Wavelength	Intensities	
nm	a.u.	
179.22	1909.9	
179.44	1914.5	
179.65	1905.3	
179.86	1923.7	
180.08	1934.6	
180.29	5027.8	
180.51	3544.4	
180.72	5649.7	
180.94	6640.9	
181.15	3348.4	
181.37	3220.1	
181.58	5592.3	
181.79	5885.9	
182.01	3403	
182.22	3667.9	
182.44	5812.1	
182.65	4865.3	
182.87	4664.6	
183.08	3992.2	
183.29	6126.2	
183.51	5029.1	
183.72	3664.5	
183.94	5368.4	
184.15	5466.7	
184.37	5476.3	
184.58	3221.5	
184.79	4478.9	
185.01	5050.3	
185.22	5755.5	
185.44	4796.3	
185.65	3936.9	
185.86	5340.4	
186.08	4934.2	
186.29	3144.3	
186.51	3331.4	
186.72	5036	
186.94	5982.1	
187.15	3906.8	
187.36	4105.5	
187.58	7744.7	
187.79	5503.6	
188.01	4214.7	
188.22	6617.7	
188.43	6670.9	
188.65	5752.7	
188.86	3405.1	
189.08	4025.6	
189.29	5232.6	
189.5	5274.2	
189.72	3773	
189.93	3862.5	
190.15	6006	
190.36	7195.9	
190.57	4162.2	
190.79	4029.7	
191	6105.7	
191.22	6035.4	
191.43	4151.9	
191.64	3360.7	
191.86	6318	
192.07	6064.7	
192.29	3535.5	
192.5	3747.8	
192.71	6074.3	
192.93	5168.4	
193.14	3705.5	
193.35	3827.7	
193.57	5228.5	
193.78	6040.1	
194	3091.1	
194.21	3650.8	
194.42	4960.2	
194.64	5470.8	
194.85	4043.4	
195.07	4797	
195.28	5515.9	
195.49	4722.6	
195.71	5027.1	
195.92	3492.5	
196.13	5649.7	
196.35	5764.3	
196.56	5322	
196.78	4059.8	
196.99	7094.2	
197.2	6609.5	
197.42	4684.4	
197.63	4123.2	
197.84	4835.9	
198.06	5644.2	
198.27	3782.6	
198.48	5068.7	
198.7	5186.8	
198.91	5397.8	
199.13	4136.2	
199.34	4115.1	
199.55	5885.2	
199.77	4698	
199.98	3598.3	
200.19	4192.9	
200.41	5230.5	
200.62	5042.1	
200.83	4287.1	
201.05	4625	
201.26	5349.3	
201.47	5036.6	
201.69	3616.7	
201.9	3470.6	
202.11	5459.2	
202.33	6502.3	
202.54	3917.8	
202.76	4361.5	
202.97	5578	
203.18	5532.9	
203.4	4270.7	
203.61	4169	
203.82	5513.8	
204.04	5122.7	
204.25	4148.5	
204.46	4010.6	
204.68	5442.1	
204.89	5747.3	
205.1	4047.5	
205.32	3458.3	
205.53	5880.4	
205.74	5996.5	
205.96	2945	
206.17	4226.3	
206.38	5831.2	
206.6	5961	
206.81	4665.3	
207.02	3864.5	
207.24	5763.7	
207.45	6133.7	
207.66	3827	
207.88	3306.8	
208.09	5727.5	
208.3	5499.5	
208.52	3558.7	
208.73	3997.6	
208.94	5406.6	
209.15	6198.5	
209.37	3908.2	
209.58	4111	
209.79	5979.4	
210.01	5233.2	
210.22	3132	
210.43	3229	
210.65	5441.5	
210.86	5842.9	
211.07	3965.6	
211.29	3521.8	
211.5	5823.7	
211.71	5335	
211.93	3551.2	
212.14	3523.9	
212.35	5382.7	
212.56	5608.7	
212.78	4153.3	
212.99	3429.7	
213.2	6394.4	
213.42	5191.6	
213.63	3685	
213.84	3971	
214.06	4746.5	
214.27	4931.5	
214.48	3905.5	
214.69	4219.5	
214.91	6167.8	
215.12	6171.9	
215.33	4201.1	
215.55	4698.7	
215.76	6765.1	
215.97	5812.1	
216.18	4050.9	
216.4	3941.7	
216.61	5113.1	
216.82	5973.9	
217.04	3619.4	
217.25	3734.1	
217.46	6146	
217.67	5855.8	
217.89	3220.8	
218.1	3344.3	
218.31	5536.3	
218.53	5602.6	
218.74	3807.2	
218.95	3640.6	
219.16	5427.1	
219.38	6390.3	
219.59	3716.4	
219.8	4390.8	
220.01	7092.1	
220.23	5498.8	
220.44	4790.9	
220.65	3540.3	
220.87	5502.2	
221.08	6127.5	
221.29	3347.1	
221.5	4540.3	
221.72	7439.6	
221.93	5152	
222.14	4152.6	
222.35	4896.7	
222.57	5465.3	
222.78	5816.2	
222.99	3921.2	
223.2	4262.5	
223.42	5782.1	
223.63	5932.3	
223.84	3001.6	
224.05	3067.9	
224.27	7025.9	
224.48	6335.1	
224.69	4853	
224.9	4099.4	
225.12	5618.9	
225.33	5451	
225.54	3250.1	
225.75	3660.4	
225.97	4986.8	
226.18	5317.2	
226.39	3962.1	
226.6	3686.3	
226.82	5240.1	
227.03	5080.3	
227.24	4162.8	
227.45	3395.5	
227.67	5840.8	
227.88	6452.5	
228.09	4579.9	
228.3	4571.7	
228.52	5919.3	
228.73	5410.7	
228.94	3796.9	
229.15	3330.7	
229.36	5389.6	
229.58	5272.8	
229.79	3878.2	
230	4536.9	
230.21	6558.3	
230.43	5502.9	
230.64	4100.7	
230.85	4233.2	
231.06	5881.1	
231.28	5920.7	
231.49	3365.5	
231.7	3987.4	
231.91	5846.3	
232.12	5482.4	
232.34	3474.7	
232.55	3969.6	
232.76	6123.4	
232.97	5615.5	
233.18	3586.7	
233.4	4005.8	
233.61	5636	
233.82	5182.7	
234.03	3789.4	
234.25	3697.9	
234.46	7637.6	
234.67	5491.3	
234.88	4201.1	
235.09	3646.1	
235.31	5760.3	
235.52	5274.9	
235.73	4060.4	
235.94	3422.8	
236.15	5186.8	
236.37	6603.3	
236.58	3631.7	
236.79	3935.5	
237	5811.5	
237.21	4989.5	
237.43	4209.9	
237.64	3288.4	
237.85	10027	
238.06	5035.3	
238.27	4309.6	
238.48	3437.2	
238.7	5795.8	
238.91	5287.2	
239.12	3913.7	
239.33	3953.3	
239.54	5256.5	
239.76	5326.8	
239.97	3920.5	
240.18	4020.8	
240.39	6863.4	
240.6	5767.1	
240.82	4093.9	
241.03	3309.5	
241.24	5438	
241.45	6348	
241.66	3581.9	
241.87	4253.6	
242.09	6219.7	
242.3	6576	
242.51	4277.5	
242.72	3955.3	
242.93	5924.8	
243.14	5377.3	
243.36	4581.3	
243.57	4911.7	
243.78	6321.4	
243.99	5728.2	
244.2	3982.6	
244.41	3536.8	
244.63	5067.4	
244.84	5714.5	
245.05	4192.9	
245.26	3953.3	
245.47	5731.6	
245.68	6019.7	
245.9	5251	
246.11	4140.3	
246.32	5297.4	
246.53	5715.9	
246.74	6442.9	
246.95	3312.9	
247.16	4954	
247.38	5459.2	
247.59	3332.7	
247.8	3964.9	
248.01	5156.8	
248.22	5370.5	
248.43	3577.1	
248.64	3829	
248.86	4797.7	
249.07	5225.1	
249.28	3461.1	
249.49	4052.2	
249.7	6106.4	
249.91	6128.2	
250.12	3250.1	
250.34	3315	
250.55	5529.5	
250.76	5490.6	
250.97	4089.1	
251.18	4143	
251.39	6200.6	
251.6	5612.8	
251.81	4201.1	
252.03	4193.6	
252.24	5183.4	
252.45	5984.8	
252.66	3384.6	
252.87	4386.1	
253.08	5462.6	
253.29	7262.1	
253.5	3390.8	
253.72	4816.8	
253.93	5269.4	
254.14	6473.6	
254.35	3760.1	
254.56	3881.6	
254.77	5708.4	
254.98	5053.7	
255.19	3674.1	
255.41	4747.2	
255.62	5544.5	
255.83	6153.5	
256.04	4322.6	
256.25	4136.2	
256.46	6709.8	
256.67	5125.4	
256.88	4059.8	
257.09	4503.5	
257.31	5126.1	
257.52	5106.3	
257.73	5112.4	
257.94	3738.9	
258.15	5313.1	
258.36	5451.7	
258.57	4771.1	
258.78	2998.2	
258.99	5976	
259.2	5326.8	
259.41	3748.5	
259.63	3871.3	
259.84	6374	
260.05	6833.4	
260.26	4946.5	
260.47	3603.7	
260.68	6080.4	
260.89	5321.3	
261.1	4569	
261.31	3595.6	
261.52	6068.8	
261.73	6411.5	
261.95	4953.4	
262.16	4296	
262.37	6161.7	
262.58	6269.5	
262.79	4883	
263	3874.1	
263.21	5543.2	
263.42	5000.5	
263.63	3946.4	
263.84	3796.3	
264.05	6073.6	
264.26	6409.5	
264.47	4695.3	
264.69	4271.4	
264.9	6150.7	
265.11	5704.3	
265.32	3699.3	
265.53	3773	
265.74	5597.1	
265.95	4851	
266.16	4010.6	
266.37	4463.2	
266.58	5601.2	
266.79	5255.1	
267	3704.1	
267.21	3465.8	
267.42	5013.4	
267.63	5442.1	
267.84	3895.9	
268.06	3425.6	
268.27	5870.8	
268.48	6184.2	
268.69	3829.7	
268.9	4513	
269.11	6147.3	
269.32	4917.9	
269.53	3967.6	
269.74	3639.2	
269.95	5797.8	
270.16	4763.6	
270.37	3961.5	
270.58	4602.5	
270.79	5265.3	
271	5993	
271.21	4224.3	
271.42	4007.9	
271.63	5622.4	
271.84	5075.5	
272.05	3099.3	
272.26	3548.4	
272.47	5453.7	
272.68	5697.4	
272.89	3737.5	
273.11	4410.6	
273.32	5289.2	
273.53	6455.9	
273.74	4214	
273.95	4147.1	
274.16	6141.9	
274.37	5560.2	
274.58	4280.3	
274.79	3417.4	
275	5575.9	
275.21	6175.3	
275.42	5251.7	
275.63	4432.5	
275.84	5686.5	
276.05	7262.1	
276.26	4102.8	
276.47	3948.5	
276.68	5301.5	
276.89	6522.8	
277.1	4448.2	
277.31	3459	
277.52	5679	
277.73	5928.2	
277.94	3422.8	
278.15	3824.2	
278.36	5643.5	
278.57	5047.6	
278.78	3768.9	
278.99	4292.5	
279.2	5070.1	
279.41	5044.8	
279.62	5020.3	
279.83	3457	
280.04	6733	
280.25	4934.2	
280.46	4998.4	
280.67	3964.9	
280.88	5039.4	
281.09	6167.8	
281.3	4182	
281.51	5217.5	
281.72	5205.9	
281.93	6001.2	
282.14	3667.2	
282.35	3923.2	
282.56	5977.3	
282.77	5980.1	
282.98	3815.4	
283.19	4729.4	
283.4	7398.6	
283.61	5368.4	
283.82	3403	
284.03	4909.7	
284.24	5581.4	
284.45	6148	
284.66	4832.5	
284.87	4689.8	
285.08	6030.6	
285.29	6281.8	
285.5	3360	
285.71	3893.2	
285.92	6116.6	
286.12	6804	
286.33	4863.9	
286.54	3786.7	
286.75	5929.6	
286.96	5319.9	
287.17	3482.9	
287.38	4839.4	
287.59	5050.3	
287.8	4998.4	
288.01	3902.1	
288.22	4500.8	
288.43	5973.9	
288.64	4975.2	
288.85	4579.9	
289.06	4368.3	
289.27	5918.6	
289.48	6405.4	
289.69	4948.6	
289.9	4461.2	
290.11	6162.3	
290.32	5133.6	
290.53	4659.1	
290.74	4291.2	
290.94	5940.5	
291.15	5967.8	
291.36	3717.1	
291.57	4405.2	
291.78	5218.9	
291.99	4909.7	
292.2	3544.4	
292.41	4283.7	
292.62	6055.2	
292.83	5862	
293.04	5297.4	
293.25	3564.8	
293.46	5270.1	
293.67	6053.8	
293.88	3687	
294.09	3517	
294.29	4989.5	
294.5	5563.6	
294.71	4009.2	
294.92	3808.5	
295.13	5268.7	
295.34	6677.7	
295.55	3308.2	
295.76	3426.9	
295.97	5898.2	
296.18	6681.8	
296.39	3484.3	
296.6	3659	
296.81	5601.2	
297.01	5872.9	
297.22	3919.1	
297.43	3706.8	
297.64	5136.3	
297.85	5048.2	
298.06	3049.4	
298.27	3358	
298.48	5522	
298.69	5233.2	
298.9	3980.6	
299.11	3595.6	
299.31	4983.4	
299.52	5001.8	
299.73	4300.7	
299.94	4134.8	
300.15	5451	
300.36	5140.4	
300.57	4188.8	
300.78	4240.7	
300.99	5326.1	
301.2	5620.3	
301.4	3700	
301.61	4014	
301.82	5810.1	
302.03	5902.9	
302.24	4500.1	
302.45	3531.4	
302.66	5795.1	
302.87	6225.1	
303.08	3769.6	
303.29	5094	
303.49	5191.6	
303.7	5487.9	
303.91	3230.3	
304.12	4852.3	
304.33	5003.9	
304.54	5657.9	
304.75	3715	
304.96	3517	
305.16	5836	
305.37	6630.6	
305.58	3216	
305.79	3384.6	
306	5808	
306.21	4865.3	
306.42	3688.4	
306.63	5701.5	
306.83	5336.3	
307.04	6067.4	
307.25	4078.9	
307.46	4065.9	
307.67	4685.1	
307.88	5943.2	
308.09	3659.7	
308.29	3769.6	
308.5	5595.7	
308.71	6132.3	
308.92	3967.6	
309.13	3582.6	
309.34	5329.5	
309.55	5384.1	
309.75	4531.5	
309.96	4258.4	
310.17	5873.6	
310.38	5214.8	
310.59	4466.6	
310.8	3435.1	
311.01	5909.8	
311.21	5252.4	
311.42	3532.7	
311.63	3635.1	
311.84	5268.7	
312.05	5595.7	
312.26	4145.8	
312.46	4538.3	
312.67	5264	
312.88	4970.4	
313.09	3615.3	
313.3	3452.9	
313.51	6348.7	
313.71	6616.3	
313.92	3549.8	
314.13	3760.8	
314.34	5677.7	
314.55	5440.1	
314.76	4665.3	
314.96	4066.6	
315.17	5547.3	
315.38	5891.3	
315.59	3626.3	
315.8	3438.5	
316.01	6353.5	
316.21	6454.5	
316.42	3426.9	
316.63	3953.9	
316.84	5364.3	
317.05	6227.2	
317.26	4260.5	
317.46	3811.3	
317.67	5361.6	
317.88	5893.4	
318.09	4564.9	
318.3	3347.7	
318.5	5193.6	
318.71	5810.1	
318.92	5874.3	
319.13	4214.7	
319.34	6044.9	
319.54	6192.4	
319.75	3302.7	
319.96	3174.4	
320.17	5870.2	
320.38	6070.9	
320.58	3237.8	
320.79	3928	
321	6154.8	
321.21	6214.2	
321.42	3974.4	
321.62	3234.4	
321.83	5087.8	
322.04	5498.8	
322.25	3758	
322.46	3581.2	
322.66	5580	
322.87	5705	
323.08	4433.2	
323.29	3454.9	
323.5	6563.7	
323.7	5029.1	
323.91	4904.9	
324.12	4330.1	
324.33	5521.3	
324.53	5867.4	
324.74	4190.1	
324.95	4422.9	
325.16	4833.2	
325.37	5329.5	
325.57	3583.9	
325.78	3677.5	
325.99	5530.2	
326.2	4998.4	
326.4	5209.3	
326.61	3333.4	
326.82	5414.1	
327.03	5574.6	
327.24	5158.8	
327.44	4879.6	
327.65	5708.4	
327.86	4579.3	
328.07	4179.2	
328.27	3446	
328.48	6215.6	
328.69	5037.3	
328.9	5190.9	
329.1	3833.1	
329.31	5365.7	
329.52	6328.9	
329.73	3575.1	
329.93	4071.4	
330.14	5431.2	
330.35	5728.9	
330.56	5958.2	
330.76	4478.9	
330.97	5319.9	
331.18	5877	
331.39	4004.5	
331.59	3298.6	
331.8	6051.7	
332.01	6176.7	
332.22	3693.9	
332.42	4240.7	
332.63	5644.9	
332.84	5207.3	
333.05	4020.2	
333.25	3685	
333.46	5286.5	
333.67	5524.1	
333.88	3758	
334.08	4194.9	
334.29	7257.3	
334.5	6189	
334.7	3482.9	
334.91	5212.1	
335.12	5005.9	
335.33	5940.5	
335.53	3944.4	
335.74	5945.9	
335.95	5195.7	
336.16	5090.6	
336.36	4007.9	
336.57	4577.9	
336.78	4948.6	
336.98	6114.6	
337.19	4882.4	
337.4	3907.5	
337.61	6593.1	
337.81	5014.8	
338.02	3642.7	
338.23	4788.8	
338.43	6265.4	
338.64	5107.6	
338.85	3611.9	
339.05	4722.6	
339.26	6369.2	
339.47	4873.5	
339.68	3605.1	
339.88	5378	
340.09	5730.9	
340.3	5982.1	
340.5	4217.5	
340.71	3264.5	
340.92	4976.6	
341.13	6214.9	
341.33	3516.4	
341.54	4224.3	
341.75	5703.6	
341.95	5316.5	
342.16	4057	
342.37	4391.5	
342.57	5028.4	
342.78	5406	
342.99	4440.7	
343.19	3237.8	
343.4	5880.4	
343.61	5754.1	
343.81	3820.1	
344.02	3543.7	
344.23	5963.7	
344.43	6328.2	
344.64	4486.4	
344.85	4338.3	
345.06	5684.5	
345.26	6093.4	
345.47	4123.9	
345.68	4898.1	
345.88	4820.2	
346.09	5942.5	
346.3	4271.4	
346.5	3179.8	
346.71	5433.3	
346.92	5215.5	
347.12	3260.4	
347.33	4147.1	
347.54	6032.6	
347.74	6526.9	
347.95	4152.6	
348.16	3081.5	
348.36	5272.8	
348.57	4998.4	
348.78	4106.9	
348.98	4380.6	
349.19	5412.1	
349.39	4859.8	
349.6	3267.2	
349.81	3678.2	
350.01	5746.6	
350.22	5211.4	
350.43	3936.2	
350.63	4801.8	
350.84	5579.3	
351.05	5255.1	
351.25	3660.4	
351.46	3257	
351.67	6087.9	
351.87	5118.6	
352.08	3872.7	
352.29	4422.9	
352.49	5911.1	
352.7	6019.7	
352.9	3445.4	
353.11	4364.2	
353.32	6621.8	
353.52	5240.8	
353.73	3410.6	
353.94	4364.9	
354.14	5728.2	
354.35	5580.7	
354.55	3538.2	
354.76	3968.3	
354.97	5780.1	
355.17	5466	
355.38	3349.1	
355.59	4655.7	
355.79	5096	
356	5575.9	
356.2	3921.9	
356.41	3383.9	
356.62	4838	
356.82	5322.7	
357.03	4175.1	
357.24	3719.1	
357.44	5147.2	
357.65	5233.2	
357.85	5018.9	
358.06	3975.8	
358.27	4848.2	
358.47	5066.7	
358.68	3262.4	
358.88	4182	
359.09	5659.9	
359.3	5995.8	
359.5	4855.7	
359.71	4360.1	
359.91	6559	
360.12	5841.5	
360.33	4137.6	
360.53	4615.4	
360.74	5075.5	
360.94	5165	
361.15	4379.2	
361.36	3506.1	
361.56	5842.9	
361.77	5279	
361.97	4799.8	
362.18	3762.1	
362.38	5934.3	
362.59	4927.4	
362.8	3407.1	
363	3327.9	
363.21	4717.8	
363.41	5555.5	
363.62	4038.6	
363.83	5032.5	
364.03	5450.3	
364.24	6393.8	
364.44	5184.8	
364.65	5010	
364.85	5247.6	
365.06	4862.6	
365.27	3601.7	
365.47	3693.2	
365.68	6247	
365.88	5189.6	
366.09	4013.3	
366.29	3717.7	
366.5	5428.5	
366.71	5915.9	
366.91	5091.9	
367.12	4161.5	
367.32	6493.4	
367.53	5655.8	
367.73	4080.9	
367.94	5110.4	
368.14	5700.9	
368.35	6589.7	
368.56	4170.3	
368.76	3483.6	
368.97	5800.5	
369.17	7554.3	
369.38	3579.2	
369.58	3847.5	
369.79	4844.8	
369.99	6173.9	
370.2	4889.9	
370.4	3954.6	
370.61	5532.2	
370.82	6664.8	
371.02	3799.7	
371.23	3128.6	
371.43	4699.4	
371.64	6077.7	
371.84	3897.3	
372.05	5081.7	
372.25	7445.7	
372.46	5794.4	
372.66	3803.8	
372.87	3820.8	
373.07	5836.7	
373.28	7404.8	
373.48	4832.5	
373.69	4572.4	
373.9	5227.1	
374.1	5283.1	
374.31	4762.9	
374.51	4287.1	
374.72	6148.7	
374.92	4874.2	
375.13	4928.1	
375.33	4116.4	
375.54	5655.1	
375.74	5051	
375.95	4105.5	
376.15	5451.7	
376.36	5649	
376.56	5438.7	
376.77	4187.4	
376.97	4654.4	
377.18	6651.8	
377.38	5642.8	
377.59	4991.6	
377.79	3607.8	
378	5416.2	
378.2	5933	
378.41	3734.8	
378.61	3601.7	
378.82	5964.4	
379.02	4988.2	
379.23	3895.2	
379.43	4977.9	
379.64	6004.6	
379.84	5643.5	
380.05	3679.5	
380.25	3591.5	
380.46	5711.8	
380.66	5277.6	
380.87	5075.5	
381.07	5432.6	
381.28	6356.2	
381.48	5728.2	
381.69	3715	
381.89	3764.8	
382.1	4671.4	
382.3	5917.3	
382.51	4919.9	
382.71	5799.8	
382.91	5797.8	
383.12	6253.8	
383.32	4121.9	
383.53	4377.9	
383.73	5585.5	
383.94	5371.1	
384.14	4319.8	
384.35	3377.1	
384.55	5289.2	
384.76	5744.6	
384.96	4053.6	
385.17	4455	
385.37	5728.2	
385.58	5057.8	
385.78	4496	
385.98	3317.7	
386.19	5248.9	
386.39	5639.4	
386.6	3824.9	
386.8	4166.3	
387.01	5725.4	
387.21	5791	
387.42	4527.4	
387.62	5102.9	
387.83	5018.9	
388.03	5693.4	
388.23	4113	
388.44	4909.7	
388.64	4619.5	
388.85	4836.6	
389.05	4457.7	
389.26	5126.1	
389.46	6530.3	
389.67	6066.1	
389.87	4472.1	
390.07	4442	
390.28	5331.5	
390.48	4858.5	
390.69	3624.2	
390.89	3988.1	
391.1	5071.5	
391.3	6042.9	
391.5	5175.9	
391.71	5846.3	
391.91	5748.6	
392.12	6773.3	
392.32	5315.8	
392.53	4455.7	
392.73	5160.2	
392.93	5388.9	
393.14	4149.9	
393.34	4926	
393.55	5857.9	
393.75	5390.9	
393.95	4192.2	
394.16	4018.8	
394.36	5048.9	
394.57	5717.9	
394.77	3562.1	
394.98	4054.3	
395.18	5021.6	
395.38	5086.5	
395.59	4838.7	
395.79	3853.6	
396	5088.5	
396.2	5643.5	
396.4	4748.6	
396.61	4556	
396.81	5853.1	
397.02	5006.6	
397.22	4880.3	
397.42	4901.5	
397.63	5776	
397.83	4909	
398.04	3590.8	
398.24	4174.4	
398.44	5542.5	
398.65	4555.4	
398.85	3510.2	
399.05	3665.9	
399.26	4863.2	
399.46	6635.4	
399.67	4012	
399.87	3744.4	
400.07	5296	
400.28	5580.7	
400.48	3758	
400.69	4835.3	
400.89	5814.9	
401.09	6272.2	
401.3	3662.5	
401.5	4811.4	
401.7	6450.4	
401.91	6769.9	
402.11	4065.2	
402.32	4280.3	
402.52	5872.9	
402.72	5804.6	
402.93	4550.6	
403.13	3349.8	
403.33	6662	
403.54	5415.5	
403.74	4225.6	
403.94	5145.9	
404.15	5474.2	
404.35	6648.4	
404.56	3972.4	
404.76	5922.7	
404.96	5826.5	
405.17	5547.9	
405.37	4823.6	
405.57	4441.4	
405.78	5907.7	
405.98	5360.9	
406.18	3868.6	
406.39	4898.1	
406.59	5837.4	
406.79	5509.7	
407	3728.7	
407.2	3891.8	
407.4	5842.2	
407.61	6083.8	
407.81	3856.3	
408.01	6234	
408.22	4683	
408.42	6699.6	
408.62	4772.4	
408.83	4193.6	
409.03	5242.8	
409.23	4972.5	
409.44	4292.5	
409.64	4585.4	
409.84	6100.9	
410.05	5954.8	
410.25	4335.5	
410.45	4111.6	
410.66	5336.3	
410.86	7918.8	
411.06	4460.5	
411.27	4280.9	
411.47	7626	
411.67	5485.1	
411.88	4573.1	
412.08	4780.6	
412.28	6151.4	
412.49	6613.6	
412.69	4260.5	
412.89	4253.6	
413.09	6477.7	
413.3	6278.4	
413.5	4339	
413.7	3926	
413.91	5555.5	
414.11	6337.1	
414.31	4123.9	
414.52	4539	
414.72	6059.3	
414.92	5903.6	
415.12	4141.7	
415.33	4695.3	
415.53	6322.1	
415.73	6463.4	
415.94	5015.5	
416.14	4431.8	
416.34	5252.4	
416.55	4934.9	
416.75	5726.1	
416.95	5054.4	
417.15	6225.8	
417.36	7119.4	
417.56	5785.5	
417.76	4791.6	
417.97	6589.7	
418.17	6249	
418.37	4362.9	
418.57	4470.7	
418.78	6078.4	
418.98	5766.4	
419.18	5299.5	
419.38	5341.8	
419.59	5798.5	
419.79	5377.3	
419.99	4324.6	
420.2	4729.4	
420.4	6208.1	
420.6	6475.7	
420.8	4222.2	
421.01	4111	
421.21	6077.7	
421.41	6283.9	
421.61	4650.3	
421.82	4358.8	
422.02	5519.3	
422.22	6658.6	
422.42	5227.8	
422.63	4894	
422.83	5778	
423.03	6957.6	
423.23	4894	
423.44	3808.5	
423.64	5827.8	
423.84	5605.3	
424.04	4280.3	
424.25	4011.3	
424.45	6840.9	
424.65	6722.1	
424.85	3792.8	
425.06	4364.2	
425.26	6720.1	
425.46	5300.1	
425.66	4868	
425.87	4562.2	
426.07	6595.8	
426.27	6425.8	
426.47	4693.3	
426.67	4050.2	
426.88	6950.8	
427.08	6292	
427.28	4941.1	
427.48	4035.9	
427.69	5223.7	
427.89	5870.2	
428.09	4925.4	
428.29	4022.9	
428.5	6554.9	
428.7	6155.5	
428.9	3873.4	
429.1	4526.7	
429.3	5965.7	
429.51	6449.1	
429.71	4326	
429.91	5023.7	
430.11	6285.2	
430.31	6447.7	
430.52	4504.2	
430.72	4810	
430.92	6867.5	
431.12	6323.4	
431.32	4130.8	
431.53	4631.1	
431.73	5182	
431.93	6950.1	
432.13	4080.9	
432.33	3962.1	
432.54	5629.2	
432.74	6029.2	
432.94	3777.1	
433.14	4957.4	
433.34	6191	
433.55	5585.5	
433.75	4884.4	
433.95	6596.5	
434.15	5896.1	
434.35	5613.5	
434.56	4091.8	
434.76	3495.2	
434.96	5887.9	
435.16	6180.8	
435.36	3866.6	
435.56	4994.3	
435.77	5465.3	
435.97	5679.7	
436.17	5711.1	
436.37	4900.1	
436.57	5461.2	
436.78	5375.2	
436.98	6827.2	
437.18	5524.1	
437.38	6112.5	
437.58	5738.4	
437.78	5782.8	
437.99	4321.2	
438.19	6275.7	
438.39	7035.5	
438.59	4261.8	
438.79	3741.6	
438.99	6885.3	
439.2	5742.5	
439.4	3958.7	
439.6	3881.6	
439.8	6004	
440	7094.2	
440.2	4821.6	
440.4	4888.5	
440.61	6327.5	
440.81	6935.1	
441.01	3884.3	
441.21	4843.4	
441.41	6638.8	
441.61	6321.4	
441.81	5088.5	
442.02	6255.9	
442.22	7208.2	
442.42	6367.1	
442.62	3932.8	
442.82	4108.9	
443.02	6688	
443.22	5732.9	
443.43	4420.2	
443.63	3981.3	
443.83	5580.7	
444.03	5653.8	
444.23	5116.5	
444.43	4777.2	
444.63	5847	
444.83	7195.9	
445.04	3987.4	
445.24	5423	
445.44	6327.5	
445.64	6369.9	
445.84	4959.5	
446.04	4928.8	
446.24	5687.9	
446.44	6738.5	
446.65	4166.3	
446.85	4459.8	
447.05	5851.7	
447.25	6649.8	
447.45	4648.2	
447.65	3916.4	
447.85	6003.3	
448.05	5675.6	
448.25	5013.4	
448.46	4780.6	
448.66	5945.9	
448.86	5705	
449.06	3745.7	
449.26	4992.9	
449.46	6369.2	
449.66	5408.7	
449.86	4475.5	
450.06	4438.6	
450.26	5565	
450.47	6168.5	
450.67	4760.8	
450.87	5039.4	
451.07	6182.8	
451.27	5967.1	
451.47	4065.2	
451.67	4534.2	
451.87	5615.5	
452.07	6829.3	
452.27	4222.9	
452.47	4190.1	
452.67	5987.6	
452.88	6572.6	
453.08	3597.6	
453.28	5617.6	
453.48	7082.6	
453.68	5937.1	
453.88	4071.4	
454.08	4375.8	
454.28	6274.3	
454.48	5885.9	
454.68	4903.5	
454.88	5472.9	
455.08	6410.1	
455.28	6031.3	
455.48	3962.8	
455.68	4540.3	
455.89	6737.8	
456.09	6442.2	
456.29	4296.6	
456.49	4265.9	
456.69	6632	
456.89	6113.9	
457.09	4852.3	
457.29	5122.7	
457.49	6100.9	
457.69	6299.6	
457.89	4530.1	
458.09	3901.4	
458.29	5881.8	
458.49	6577.4	
458.69	4899.4	
458.89	4256.4	
459.09	6763.8	
459.29	6883.9	
459.49	4451.6	
459.69	5260.5	
459.9	6418.3	
460.1	5780.1	
460.3	4402.5	
460.5	4066.6	
460.7	6287.9	
460.9	5979.4	
461.1	3665.2	
461.3	5028.4	
461.5	6869.6	
461.7	6461.3	
461.9	4082.3	
462.1	4567	
462.3	5898.2	
462.5	6503	
462.7	4065.9	
462.9	4188.1	
463.1	7595.9	
463.3	7154.2	
463.5	4336.9	
463.7	5249.6	
463.9	5961	
464.1	6419.7	
464.3	4361.5	
464.5	4684.4	
464.7	6696.9	
464.9	6206.7	
465.1	5986.9	
465.3	4981.3	
465.5	7005.4	
465.7	6899.6	
465.9	5223	
466.1	5139	
466.3	6628.6	
466.5	6531.7	
466.7	5870.8	
466.9	4761.5	
467.1	6411.5	
467.3	7452.6	
467.5	5697.4	
467.7	4560.1	
467.9	7616.4	
468.1	8490.9	
468.3	5470.8	
468.5	5806.7	
468.7	6355.5	
468.9	6316.6	
469.1	4849.6	
469.3	5575.3	
469.5	8402.1	
469.7	5776.6	
469.9	5403.9	
470.1	4622.9	
470.3	6375.3	
470.5	6376.7	
470.7	5977.3	
470.9	4801.8	
471.1	6130.3	
471.3	6673	
471.5	4466.6	
471.69	6568.5	
471.89	6063.4	
472.09	5530.9	
472.29	5349.3	
472.49	5837.4	
472.69	5749.3	
472.89	6612.2	
473.09	4437.3	
473.29	4698.7	
473.49	5931.6	
473.69	6190.3	
473.89	5679.7	
474.09	4884.4	
474.29	7467.6	
474.49	7096.2	
474.69	5685.2	
474.89	5007.3	
475.09	6195.8	
475.29	6149.4	
475.49	4468	
475.69	4657.8	
475.88	7899	
476.08	6475.7	
476.28	4303.5	
476.48	4891.2	
476.68	6967.9	
476.88	6769.2	
477.08	4721.3	
477.28	4973.2	
477.48	6348	
477.68	7004.7	
477.88	4452.3	
478.08	4826.4	
478.28	7248.4	
478.48	6408.1	
478.67	4834.6	
478.87	4383.3	
479.07	6991.1	
479.27	6567.8	
479.47	5143.8	
479.67	5087.8	
479.87	6885.3	
480.07	7415	
480.27	4283	
480.47	6016.9	
480.67	6553.5	
480.87	7189.7	
481.06	4622.3	
481.26	5449.6	
481.46	6493.4	
481.66	6389.7	
481.86	5079	
482.06	6225.1	
482.26	6180.8	
482.46	7370.6	
482.66	5040.1	
482.86	4571.7	
483.05	6532.3	
483.25	5932.3	
483.45	7529	
483.65	4980.7	
483.85	6094.1	
484.05	6361	
484.25	5442.8	
484.45	5827.2	
484.65	7301.7	
484.84	7257.3	
485.04	4861.2	
485.24	4853.7	
485.44	7495.6	
485.64	5829.9	
485.84	4050.2	
486.04	5606.7	
486.24	6134.3	
486.44	6535.8	
486.63	4040	
486.83	4831.2	
487.03	5988.9	
487.23	6192.4	
487.43	4192.9	
487.63	6511.2	
487.83	6234.7	
488.02	7212.9	
488.22	5061.2	
488.42	5760.3	
488.62	7191.1	
488.82	6023.8	
489.02	4736.3	
489.22	4745.1	
489.41	6953.5	
489.61	6571.2	
489.81	4446.1	
490.01	4536.9	
490.21	6862.1	
490.41	7574.1	
490.61	4458.4	
490.8	4663.2	
491	6332.3	
491.2	5728.2	
491.4	5300.1	
491.6	4298	
491.8	6380.8	
491.99	6584.2	
492.19	4191.5	
492.39	4558.8	
492.59	6892.1	
492.79	6978.8	
492.99	5359.5	
493.18	4424.3	
493.38	7013.6	
493.58	7686.7	
493.78	5063.3	
493.98	4679.6	
494.18	6575.3	
494.37	6087.2	
494.57	5219.6	
494.77	5147.2	
494.97	6716.7	
495.17	6918	
495.37	4635.9	
495.56	4984.8	
495.76	7085.3	
495.96	6789.7	
496.16	5870.2	
496.36	4725.3	
496.55	6861.4	
496.75	6392.4	
496.95	5145.2	
497.15	5003.2	
497.35	6849.1	
497.54	6737.8	
497.74	4790.2	
497.94	6565.8	
498.14	7504.4	
498.34	7360.4	
498.53	4379.2	
498.73	5246.9	
498.93	6153.5	
499.13	6717.3	
499.33	4922.6	
499.52	5593	
499.72	6678.4	
499.92	7145.4	
500.12	4613.4	
500.32	4911	
500.51	7017	
500.71	6736.5	
500.91	5687.9	
501.11	5309	
501.31	6870.9	
501.5	7363.8	
501.7	5992.4	
501.9	4895.3	
502.1	6744	
502.29	7076.4	
502.49	5410.7	
502.69	5971.9	
502.89	6893.5	
503.09	6950.1	
503.28	4440.7	
503.48	4677.6	
503.68	6146	
503.88	6285.9	
504.07	5612.1	
504.27	5181.4	
504.47	6619	
504.67	6793.1	
504.86	5539.8	
505.06	5156.1	
505.26	6310.5	
505.46	8187.1	
505.65	5150.6	
505.85	5433.9	
506.05	6313.9	
506.25	6881.2	
506.44	4551.3	
506.64	5528.2	
506.84	6276.3	
507.04	7218.4	
507.23	4868	
507.43	5384.8	
507.63	8348.2	
507.83	6554.9	
508.02	5392.3	
508.22	5033.2	
508.42	8605.6	
508.62	6263.4	
508.81	5286.5	
509.01	5865.4	
509.21	6265.4	
509.4	6471.6	
509.6	5563.6	
509.8	4820.2	
510	6411.5	
510.19	7970	
510.39	4785.4	
510.59	4844.8	
510.79	6191.7	
510.98	7608.2	
511.18	4900.8	
511.38	5077.6	
511.57	7131	
511.77	6911.2	
511.97	5768.4	
512.17	4717.8	
512.36	7043	
512.56	7030.7	
512.76	4782.7	
512.95	4585.4	
513.15	7225.2	
513.35	5778.7	
513.55	5617.6	
513.74	4831.8	
513.94	7174.7	
514.14	6514.6	
514.33	5819.6	
514.53	5588.9	
514.73	6439.5	
514.92	6639.5	
515.12	4947.2	
515.32	4753.3	
515.51	6684.6	
515.71	7255.3	
515.91	6660	
516.11	4839.4	
516.3	8434.9	
516.5	6307.1	
516.7	5475.6	
516.89	6013.5	
517.09	6427.9	
517.29	6339.8	
517.48	6049	
517.68	5088.5	
517.88	6115.2	
518.07	6740.5	
518.27	5595.1	
518.47	4657.1	
518.66	7380.2	
518.86	5933.6	
519.06	4418.8	
519.25	4943.1	
519.45	6356.2	
519.65	7795.9	
519.84	5591.6	
520.04	6244.3	
520.24	8198.7	
520.43	7002.7	
520.63	5352	
520.83	5075.5	
521.02	6182.8	
521.22	6862.7	
521.42	5661.3	
521.61	6141.9	
521.81	6470.9	
522.01	6640.2	
522.2	5404.6	
522.4	5266.7	
522.6	7096.2	
522.79	5829.9	
522.99	5266	
523.18	4464.6	
523.38	6733	
523.58	6728.3	
523.77	6392.4	
523.97	4401.8	
524.17	8580.3	
524.36	7782.3	
524.56	5816.2	
524.76	5351.3	
524.95	6553.5	
525.15	6284.5	
525.34	5181.4	
525.54	5124	
525.74	6945.3	
525.93	5890.6	
526.13	6328.2	
526.33	5055.8	
526.52	7328.3	
526.72	6739.2	
526.91	6307.1	
527.11	5498.1	
527.31	7270.3	
527.5	7557	
527.7	5394.3	
527.89	4406.5	
528.09	6053.1	
528.29	6610.8	
528.48	5797.8	
528.68	5505.6	
528.87	7053.9	
529.07	7115.3	
529.27	5315.8	
529.46	4857.1	
529.66	6787.7	
529.85	7130.3	
530.05	4676.2	
530.25	5483.1	
530.44	8097	
530.64	6681.2	
530.83	5051.7	
531.03	5331.5	
531.23	7038.2	
531.42	6903	
531.62	6050.4	
531.81	5236	
532.01	7148.8	
532.21	7653.9	
532.4	4823.6	
532.6	5297.4	
532.79	8013	
532.99	7032.7	
533.18	5324.7	
533.38	6285.9	
533.58	6583.5	
533.77	7417.7	
533.97	5143.1	
534.16	6048.3	
534.36	7576.8	
534.55	6640.9	
534.75	6193.1	
534.95	5299.5	
535.14	7421.8	
535.34	6597.9	
535.53	5014.1	
535.73	6910.5	
535.92	8061.5	
536.12	6855.9	
536.31	5104.9	
536.51	6305.7	
536.71	7180.9	
536.9	6750.1	
537.1	5223.7	
537.29	5296	
537.49	7600.7	
537.68	6563.1	
537.88	5728.2	
538.07	5025	
538.27	6841.6	
538.46	7838.9	
538.66	4899.4	
538.86	5253	
539.05	6892.8	
539.25	7290.1	
539.44	5525.4	
539.64	5204.6	
539.83	6701	
540.03	7725.6	
540.22	5060.5	
540.42	5286.5	
540.61	7066.9	
540.81	7198.6	
541	5697.4	
541.2	6333	
541.39	6542.6	
541.59	7037.5	
541.78	6080.4	
541.98	5134.3	
542.18	6303	
542.37	6298.2	
542.57	5607.3	
542.76	6047	
542.96	6375.3	
543.15	7171.3	
543.35	5670.1	
543.54	4965.6	
543.74	7499	
543.93	7045	
544.13	5645.6	
544.32	6812.2	
544.52	7481.2	
544.71	6599.9	
544.91	4800.4	
545.1	6001.2	
545.3	6582.2	
545.49	7355.6	
545.69	4723.3	
545.88	5269.4	
546.08	8272.4	
546.27	7848.5	
546.47	5843.5	
546.66	5172.5	
546.86	7636.2	
547.05	8198.7	
547.24	5393	
547.44	5231.2	
547.63	6448.4	
547.83	7663.5	
548.02	5689.9	
548.22	5855.8	
548.41	6326.2	
548.61	7777.5	
548.8	5247.6	
549	5098.1	
549.19	6989	
549.39	7320.8	
549.58	4856.4	
549.78	5526.1	
549.97	7458.7	
550.17	6905.8	
550.36	7199.3	
550.55	7440.3	
550.75	6944.7	
550.94	7879.9	
551.14	5091.9	
551.33	5619.6	
551.53	6229.9	
551.72	7350.2	
551.92	5629.9	
552.11	5348.6	
552.31	7384.3	
552.5	7373.4	
552.69	7086	
552.89	5045.5	
553.08	7248.4	
553.28	7004.1	
553.47	5352	
553.67	6551.5	
553.86	7994.6	
554.06	6280.4	
554.25	4564.2	
554.44	5182.7	
554.64	8832.2	
554.83	8355	
555.03	5147.2	
555.22	5620.3	
555.42	7591.1	
555.61	7254.6	
555.8	5381.4	
556	5708.4	
556.19	6327.5	
556.39	7772	
556.58	5499.5	
556.78	5434.6	
556.97	7204.8	
557.16	6773.3	
557.36	6670.2	
557.55	5079.6	
557.75	6167.8	
557.94	7932.5	
558.13	5201.2	
558.33	4981.3	
558.52	7687.4	
558.72	6576	
558.91	5094.7	
559.1	5431.9	
559.3	6303	
559.49	6062.7	
559.69	4619.5	
559.88	5792.3	
560.07	7187	
560.27	7522.2	
560.46	5905	
560.66	6008.1	
560.85	6901.7	
561.04	6159.6	
561.24	5089.9	
561.43	5264.6	
561.63	6381.5	
561.82	6748.7	
562.01	6612.2	
562.21	5672.2	
562.4	7166.5	
562.59	8154.3	
562.79	5472.9	
562.98	5108.3	
563.18	7052.5	
563.37	8584.4	
563.56	6010.1	
563.76	4993.6	
563.95	6494.8	
564.14	6440.2	
564.34	5423	
564.53	5171.1	
564.73	7055.3	
564.92	7366.5	
565.11	5553.4	
565.31	4868	
565.5	7677.8	
565.69	6531.7	
565.89	5098.1	
566.08	5370.5	
566.27	7420.5	
566.47	7834.8	
566.66	6005.3	
566.85	4675.5	
567.05	7075	
567.24	6417.7	
567.44	5027.8	
567.63	6478.4	
567.82	7215	
568.02	7017.7	
568.21	5076.2	
568.4	5422.3	
568.6	6782.2	
568.79	6875	
568.98	4836.6	
569.18	4969.7	
569.37	6840.9	
569.56	8966	
569.76	5398.4	
569.95	6339.8	
570.14	7237.5	
570.34	7099.6	
570.53	4810.7	
570.72	4809.3	
570.91	7696.9	
571.11	6726.9	
571.3	5380.7	
571.49	6311.8	
571.69	6796.5	
571.88	6412.2	
572.07	5940.5	
572.27	5917.3	
572.46	6361	
572.65	7424.6	
572.85	5114.5	
573.04	5440.1	
573.23	7663.5	
573.43	6883.9	
573.62	4827.1	
573.81	5522.7	
574	6911.2	
574.2	6721.4	
574.39	5128.8	
574.58	5423	
574.78	7681.2	
574.97	6916.7	
575.16	5708.4	
575.36	5896.8	
575.55	7290.8	
575.74	7503.8	
575.93	4805.2	
576.13	5799.8	
576.32	6692.1	
576.51	7253.2	
576.71	5228.5	
576.9	6591	
577.09	7598	
577.28	7052.5	
577.48	5743.2	
577.67	4697.4	
577.86	6808.1	
578.05	7008.1	
578.25	5346.6	
578.44	5461.2	
578.63	6862.1	
578.83	8072.4	
579.02	4726.7	
579.21	6292	
579.4	7085.3	
579.6	6707.8	
579.79	5514.5	
579.98	7696.3	
580.17	7331.7	
580.37	7469.6	
580.56	4900.8	
580.75	5696.1	
580.94	7932.5	
581.14	7701.7	
581.33	6171.2	
581.52	5055.8	
581.71	7208.8	
581.91	7923.6	
582.1	4657.8	
582.29	5403.9	
582.48	6804	
582.68	6748.1	
582.87	5854.5	
583.06	5461.2	
583.25	7122.2	
583.45	7040.2	
583.64	6156.2	
583.83	6875	
584.02	6688	
584.21	7176.1	
584.41	6081.1	
584.6	5405.3	
584.79	6823.1	
584.98	7647.8	
585.18	4806.6	
585.37	4853.7	
585.56	6363.7	
585.75	7200	
585.94	5107.6	
586.14	5820.3	
586.33	7862.8	
586.52	6905.8	
586.71	5620.3	
586.91	5367	
587.1	6354.8	
587.29	7368.6	
587.48	5362.3	
587.67	5162.9	
587.87	7181.5	
588.06	7425.3	
588.25	6674.3	
588.44	5897.5	
588.63	6996.5	
588.83	7576.8	
589.02	5381.4	
589.21	5326.8	
589.4	6833.4	
589.59	6600.6	
589.78	4690.5	
589.98	4999.1	
590.17	6412.2	
590.36	6990.4	
590.55	4410	
590.74	5365	
590.94	8493.6	
591.13	6980.8	
591.32	5104.9	
591.51	4625	
591.7	7448.5	
591.89	6855.2	
592.09	4701.5	
592.28	5159.5	
592.47	6107	
592.66	7978.2	
592.85	4633.9	
593.05	4860.5	
593.24	6689.3	
593.43	7458	
593.62	4911.7	
593.81	5393.7	
594	6660.7	
594.19	7002.7	
594.39	4908.3	
594.58	4826.4	
594.77	7077.8	
594.96	7719.5	
595.15	4810	
595.34	5486.5	
595.54	7197.2	
595.73	6219	
595.92	4182.6	
596.11	5345.2	
596.3	7737.2	
596.49	6358.3	
596.68	5171.1	
596.88	5663.3	
597.07	7388.4	
597.26	6128.2	
597.45	4678.9	
597.64	5897.5	
597.83	6382.2	
598.02	7054.6	
598.22	4804.5	
598.41	5496.7	
598.6	6823.8	
598.79	6208.8	
598.98	4837.3	
599.17	5780.1	
599.36	6867.5	
599.55	8106.5	
599.74	6951.5	
599.94	6642.9	
600.13	7381.6	
600.32	6203.3	
600.51	4545.8	
600.7	4745.8	
600.89	8144.1	
601.08	8094.3	
601.27	4532.8	
601.47	5489.2	
601.66	7389.1	
601.85	8020.5	
602.04	5205.3	
602.23	5390.9	
602.42	6393.8	
602.61	7048.4	
602.8	5083.1	
602.99	4951.3	
603.18	6775.4	
603.37	7061.4	
603.57	5611.4	
603.76	6085.2	
603.95	7840.3	
604.14	7342	
604.33	4968.4	
604.52	5355.4	
604.71	7057.3	
604.9	6529.6	
605.09	5923.4	
605.28	5731.6	
605.47	7582.9	
605.66	7250.5	
605.86	5533.6	
606.05	4960.2	
606.24	7579.5	
606.43	6081.1	
606.62	5292	
606.81	6114.6	
607	7460.8	
607.19	6675.7	
607.38	4755.4	
607.57	5025.7	
607.76	6516.6	
607.95	5945.9	
608.14	5429.8	
608.33	6012.2	
608.52	6539.2	
608.72	7412.3	
608.91	4689.8	
609.1	4558.8	
609.29	6636.1	
609.48	6134.3	
609.67	5670.1	
609.86	4685.8	
610.05	6208.8	
610.24	6650.4	
610.43	4508.9	
610.62	4132.1	
610.81	7837.6	
611	7522.2	
611.19	4684.4	
611.38	5470.1	
611.57	6865.5	
611.76	8337.3	
611.95	4447.5	
612.14	4362.9	
612.33	6681.8	
612.52	6250.4	
612.71	5028.4	
612.9	4199.7	
613.09	5791.7	
613.28	8218.5	
613.47	4756.7	
613.66	5781.4	
613.85	6853.2	
614.04	6416.3	
614.24	4870.8	
614.43	4030.4	
614.62	6990.4	
614.81	6874.3	
615	5469.4	
615.19	5432.6	
615.38	6178.7	
615.57	6611.5	
615.76	5322.7	
615.95	6267.5	
616.14	7049.8	
616.33	6689.3	
616.52	5617.6	
616.71	5836	
616.9	6967.2	
617.09	6733.7	
617.28	4878.3	
617.47	6233.3	
617.66	5992.4	
617.85	6042.9	
618.04	5858.6	
618.22	5285.1	
618.41	6265.4	
618.6	7279.2	
618.79	5130.8	
618.98	4810	
619.17	7561.1	
619.36	5881.1	
619.55	4966.3	
619.74	4985.4	
619.93	6725.5	
620.12	6136.4	
620.31	5549.3	
620.5	5724.1	
620.69	7303.1	
620.88	7669	
621.07	6393.1	
621.26	5382.1	
621.45	6940.6	
621.64	6958.3	
621.83	5506.3	
622.02	4687.8	
622.21	6942.6	
622.4	6685.3	
622.59	6132.3	
622.78	5796.4	
622.97	6189	
623.16	7228	
623.35	5403.9	
623.54	4584.7	
623.72	6479.8	
623.91	6682.5	
624.1	5679	
624.29	4358.8	
624.48	7798.7	
624.67	6914.6	
624.86	5569.8	
625.05	4615.4	
625.24	7847.8	
625.43	6155.5	
625.62	7402.7	
625.81	4794.3	
626	7275.1	
626.19	6462	
626.38	5610.1	
626.56	5031.2	
626.75	6322.8	
626.94	7087.3	
627.13	5607.3	
627.32	4360.1	
627.51	7010.9	
627.7	8366	
627.89	4474.8	
628.08	5655.8	
628.27	6178.7	
628.46	6417.7	
628.65	4807.9	
628.83	4440	
629.02	7026.6	
629.21	6306.4	
629.4	5212.8	
629.59	5438	
629.78	6186.9	
629.97	7161.7	
630.16	5467.4	
630.35	4941.1	
630.54	7684	
630.72	7324.9	
630.91	4921.3	
631.1	5554.1	
631.29	6815	
631.48	6947.4	
631.67	5597.1	
631.86	5091.9	
632.05	6356.2	
632.24	6497.5	
632.42	4654.4	
632.61	5344.5	
632.8	6578.8	
632.99	6169.8	
633.18	5279	
633.37	5676.3	
633.56	6812.9	
633.75	6582.9	
633.93	5302.9	
634.12	4917.2	
634.31	7601.4	
634.5	7237.5	
634.69	5018.9	
634.88	5568.4	
635.07	6556.9	
635.25	7176.8	
635.44	5927.5	
635.63	6146.6	
635.82	6446.3	
636.01	5978	
636.2	5888.6	
636.39	5380.7	
636.57	7614.3	
636.76	7360.4	
636.95	4809.3	
637.14	6244.3	
637.33	6905.1	
637.52	7858.7	
637.7	4646.8	
637.89	5646.2	
638.08	6492.1	
638.27	8021.9	
638.46	5621	
638.65	6184.2	
638.83	7992.5	
639.02	6286.6	
639.21	5608.7	
639.4	6059.3	
639.59	6811.5	
639.78	6427.2	
639.96	4927.4	
640.15	4952	
640.34	6725.5	
640.53	6843.6	
640.72	4639.3	
640.91	4959.5	
641.09	6173.9	
641.28	7539.3	
641.47	5283.1	
641.66	5849	
641.85	6768.5	
642.03	7162.4	
642.22	5635.3	
642.41	5166.3	
642.6	6348	
642.79	5697.4	
642.97	4898.7	
643.16	5686.5	
643.35	6244.3	
643.54	6163.7	
643.73	4824.3	
643.91	5708.4	
644.1	6021	
644.29	6630.6	
644.48	4990.2	
644.67	5029.8	
644.85	6229.9	
645.04	6556.2	
645.23	4602.5	
645.42	4923.3	
645.6	6072.9	
645.79	7428	
645.98	4992.9	
646.17	4007.2	
646.36	5940.5	
646.54	6650.4	
646.73	5921.4	
646.92	4640	
647.11	6208.8	
647.29	7326.9	
647.48	4731.5	
647.67	4519.9	
647.86	7561.8	
648.05	7571.3	
648.23	5057.1	
648.42	6398.5	
648.61	6940.6	
648.8	6655.9	
648.98	4672.1	
649.17	4992.3	
649.36	6241.5	
649.55	5669.5	
649.73	4674.8	
649.92	5495.4	
650.11	6092	
650.3	6436.8	
650.48	4958.8	
650.67	4616.8	
650.86	6744	
651.05	5627.8	
651.23	4858.5	
651.42	4781.3	
651.61	6206.7	
651.79	6350.1	
651.98	5028.4	
652.17	4699.4	
652.36	6719.4	
652.54	5726.8	
652.73	4702.8	
652.92	4515.1	
653.11	6780.1	
653.29	6846.4	
653.48	4042.7	
653.67	5095.3	
653.85	6572.6	
654.04	7684	
654.23	5304.9	
654.42	4829.1	
654.6	6176	
654.79	6888	
654.98	4351.9	
655.16	4936.3	
655.35	5727.5	
655.54	5728.9	
655.73	4455.7	
655.91	4417.5	
656.1	6883.2	
656.29	5653.8	
656.47	3947.1	
656.66	5717.9	
656.85	5922.7	
657.03	5897.5	
657.22	4482.3	
657.41	4575.2	
657.59	6012.2	
657.78	5827.2	
657.97	4117.1	
658.16	4891.2	
658.34	6677.7	
658.53	7073	
658.72	5838.8	
658.9	6346.7	
659.09	6054.5	
659.28	6197.8	
659.46	4564.9	
659.65	4635.2	
659.84	5918.6	
660.02	6477.7	
660.21	4493.9	
660.4	4398.4	
660.58	6911.9	
660.77	6227.2	
660.96	5107.6	
661.14	4066.6	
661.33	7430	
661.52	7235.5	
661.7	4016.7	
661.89	7889.5	
662.08	5879	
662.26	5411.4	
662.45	4334.9	
662.64	4526	
662.82	6602	
663.01	5722	
663.2	4506.9	
663.38	5244.8	
663.57	6458.6	
663.75	6380.8	
663.94	4873.5	
664.13	6181.5	
664.31	5782.1	
664.5	6548	
664.69	5227.8	
664.87	5735.7	
665.06	5577.3	
665.25	6330.3	
665.43	5857.9	
665.62	5975.3	
665.8	6728.3	
665.99	5994.4	
666.18	4823.6	
666.36	4934.2	
666.55	6709.8	
666.74	6571.9	
666.92	4461.2	
667.11	6158.9	
667.29	6002.6	
667.48	6582.9	
667.67	5719.3	
667.85	4845.5	
668.04	6062	
668.22	6009.4	
668.41	4941.7	
668.6	5063.3	
668.78	5843.5	
668.97	6029.9	
669.15	5291.3	
669.34	4207.2	
669.53	5831.9	
669.71	6203.3	
669.9	4422.2	
670.08	5125.4	
670.27	5823.1	
670.46	6400.6	
670.64	5328.8	
670.83	5545.2	
671.01	5721.3	
671.2	6429.3	
671.38	4477.5	
671.57	4385.4	
671.76	7083.9	
671.94	7589.8	
672.13	4278.2	
672.31	5552.7	
672.5	6538.5	
672.69	5601.9	
672.87	4457.1	
673.06	4738.3	
673.24	6379.4	
673.43	5878.4	
673.61	5261.2	
673.8	4801.1	
673.98	6546.7	
674.17	6760.3	
674.36	5472.2	
674.54	5274.9	
674.73	6417	
674.91	6566.5	
675.1	5010.7	
675.28	4533.5	
675.47	6158.2	
675.65	6592.4	
675.84	4777.9	
676.03	5212.8	
676.21	5855.8	
676.4	5436.7	
676.58	5688.6	
676.77	5316.5	
676.95	7434.1	
677.14	5845.6	
677.32	4470.7	
677.51	4210.6	
677.69	6561	
677.88	5453.7	
678.06	4322.6	
678.25	4398.4	
678.44	6107	
678.62	5912.5	
678.81	4197.7	
678.99	5199.1	
679.18	7017	
679.36	6540.5	
679.55	4773.1	
679.73	5426.4	
679.92	6464.8	
680.1	5915.9	
680.29	6075.6	
680.47	4772.4	
680.66	5839.4	
680.84	6732.4	
681.03	4063.2	
681.21	5215.5	
681.4	5869.5	
681.58	5764.3	
681.77	4515.8	
681.95	4519.2	
682.14	6710.5	
682.32	7074.4	
682.51	5453.1	
682.69	4282.3	
682.88	5838.1	
683.06	6505	
683.25	5137.7	
683.43	5620.3	
683.62	6116.6	
683.8	6598.6	
683.99	5753.4	
684.17	5099.4	
684.36	7492.8	
684.54	6120	
684.73	4242	
684.91	4555.4	
685.1	6565.8	
685.28	5910.4	
685.46	5151.3	
685.65	5259.2	
685.83	6840.2	
686.02	6165.1	
686.2	4690.5	
686.39	4745.8	
686.57	5732.3	
686.76	7366.5	
686.94	4573.1	
687.13	4818.2	
687.31	6533.7	
687.5	6100.2	
687.68	4153.3	
687.86	5504.3	
688.05	7830.1	
688.23	5531.6	
688.42	5566.4	
688.6	4643.4	
688.79	5975.3	
688.97	5971.2	
689.16	5084.4	
689.34	3963.5	
689.52	6741.2	
689.71	6913.9	
689.89	5388.2	
690.08	4628.4	
690.26	6252.4	
690.45	6163.7	
690.63	5551.4	
690.81	4829.1	
691	5996.5	
691.18	5924.1	
691.37	4962.2	
691.55	7253.9	
691.74	5833.3	
691.92	7980.3	
692.1	4959.5	
692.29	4388.1	
692.47	6099.5	
692.66	5434.6	
692.84	4588.8	
693.02	5184.8	
693.21	5520	
693.39	6064	
693.58	5232.6	
693.76	4668	
693.94	7233.4	
694.13	7004.1	
694.31	4545.1	
694.5	5698.8	
694.68	5773.9	
694.86	6167.1	
695.05	4958.8	
695.23	5089.9	
695.42	6496.8	
695.6	8918.2	
695.78	5572.5	
695.97	4649.6	
696.15	6567.2	
696.34	5978.7	
696.52	4454.3	
696.7	5304.9	
696.89	6386.9	
697.07	5741.1	
697.25	5268.1	
697.44	6843.6	
697.62	6305.7	
697.81	6761	
697.99	4941.7	
698.17	5429.2	
698.36	5637.4	
698.54	6389.7	
698.72	5187.5	
698.91	4269.3	
699.09	5896.1	
699.28	5806.7	
699.46	4986.1	
699.64	4756.1	
699.83	5751.4	
700.01	7117.4	
700.19	5627.1	
700.38	3954.6	
700.56	7033.4	
700.74	5811.5	
700.93	4382	
701.11	5211.4	
701.29	6466.1	
701.48	7502.4	
701.66	4565.6	
701.84	4589.5	
702.03	5965.7	
702.21	6621.1	
702.39	4173.8	
702.58	4790.2	
702.76	6333	
702.94	6475.7	
703.13	4194.9	
703.31	6661.4	
703.49	5623.7	
703.68	6781.5	
703.86	4399	
704.04	5380	
704.23	6217.6	
704.41	6625.2	
704.59	4543.8	
704.78	5867.4	
704.96	7371.3	
705.14	6645	
705.33	4355.3	
705.51	5231.2	
705.69	6040.1	
705.87	6931	
706.06	5516.5	
706.24	4371.7	
706.42	6337.1	
706.61	6626.5	
706.79	5565.7	
706.97	4350.6	
707.16	5801.2	
707.34	6481.1	
707.52	5491.3	
707.7	4547.2	
707.89	6000.5	
708.07	5653.1	
708.25	5466	
708.44	5620.3	
708.62	5819	
708.8	7085.3	
708.98	5726.8	
709.17	4662.5	
709.35	6328.9	
709.53	6323.4	
709.72	4408.6	
709.9	4531.5	
710.08	6546.7	
710.26	6606.7	
710.45	6010.8	
710.63	4734.2	
710.81	6242.2	
710.99	6344.6	
711.18	5388.2	
711.36	4866	
711.54	6109.1	
711.72	6946.7	
711.91	4945.8	
712.09	4400.4	
712.27	6288.6	
712.45	7440.3	
712.64	5315.2	
712.82	4229.7	
713	5793	
713.18	5981.4	
713.37	4431.8	
713.55	5735	
713.73	6896.2	
713.91	5524.7	
714.1	4926.7	
714.28	4450.2	
714.46	6675	
714.64	5831.2	
714.83	3953.9	
715.01	4831.8	
715.19	5986.2	
715.37	5439.4	
715.55	4585.4	
715.74	4902.8	
715.92	7032.7	
716.1	4992.3	
716.28	6081.1	
716.47	5055.1	
716.65	5638.1	
716.83	5802.6	
717.01	4938.3	
717.19	4973.2	
717.38	7956.4	
717.56	5408	
717.74	5198.4	
717.92	4271.4	
718.1	6698.2	
718.29	5861.3	
718.47	3788.7	
718.65	4479.6	
718.83	6534.4	
719.01	6372.6	
719.2	3582.6	
719.38	4725.3	
719.56	6087.2	
719.74	7720.2	
719.92	4316.4	
720.11	5542.5	
720.29	6236.7	
720.47	5300.8	
720.65	3921.2	
720.83	4810	
721.02	5685.2	
721.2	5434.6	
721.38	4973.2	
721.56	4119.1	
721.74	4994.3	
721.92	5199.1	
722.11	5494.7	
722.29	5171.8	
722.47	6509.8	
722.65	5666.7	
722.83	4225.6	
723.01	5179.3	
723.2	5745.2	
723.38	5968.5	
723.56	3609.9	
723.74	4855.7	
723.92	5278.3	
724.1	6429.3	
724.29	4121.9	
724.47	5384.1	
724.65	5293.3	
724.83	5213.4	
725.01	4050.9	
725.19	4965.6	
725.37	5281.7	
725.56	5380.7	
725.74	3852.9	
725.92	4183.3	
726.1	5225.1	
726.28	5496.1	
726.46	4643.4	
726.64	4346.5	
726.83	5534.3	
727.01	5771.2	
727.19	3843.4	
727.37	4742.4	
727.55	5627.8	
727.73	6228.6	
727.91	3870	
728.09	3657	
728.28	6198.5	
728.46	6916	
728.64	4877.6	
728.82	4811.4	
729	7331	
729.18	6479.8	
729.36	3906.8	
729.54	6373.3	
729.72	7583.6	
729.91	5767.8	
730.09	5924.8	
730.27	4629.1	
730.45	5614.2	
730.63	6285.2	
730.81	5293.3	
730.99	4223.6	
731.17	6735.8	
731.35	5371.8	
731.53	4764.9	
731.71	4386.7	
731.9	6559.6	
732.08	6757.6	
732.26	4692.6	
732.44	4289.1	
732.62	6800.6	
732.8	6292.7	
732.98	5066	
733.16	4046.8	
733.34	6217.6	
733.52	5074.9	
733.7	4674.1	
733.88	4964.3	
734.07	6111.1	
734.25	5829.2	
734.43	4037.9	
734.61	5687.2	
734.79	7458	
734.97	5723.4	
735.15	4176.5	
735.33	4607.9	
735.51	6105	
735.69	5724.1	
735.87	5833.3	
736.05	4797	
736.23	5898.2	
736.41	5730.2	
736.59	4591.5	
736.77	4745.1	
736.95	6354.2	
737.13	5847.6	
737.32	4313.7	
737.5	4496	
737.68	6862.7	
737.86	5696.1	
738.04	4027.7	
738.22	6075	
738.4	5429.8	
738.58	5829.2	
738.76	4775.2	
738.94	3646.7	
739.12	5618.3	
739.3	5520.6	
739.48	5440.1	
739.66	5067.4	
739.84	5899.5	
740.02	5894.7	
740.2	3711.6	
740.38	4168.3	
740.56	6350.1	
740.74	5171.8	
740.92	4784.7	
741.1	4693.3	
741.28	5692	
741.46	5562.3	
741.64	4359.4	
741.82	4943.1	
742	5788.2	
742.18	5687.9	
742.36	4616.8	
742.54	4115.1	
742.72	6399.2	
742.9	5041.4	
743.08	4969.7	
743.26	3747.1	
743.44	6649.8	
743.62	6462.7	
743.8	5171.1	
743.98	4136.9	
744.16	6181.5	
744.34	5815.5	
744.52	5074.9	
744.7	5037.3	
744.88	6324.1	
745.06	5808.7	
745.24	5131.5	
745.42	5344.5	
745.6	6413.6	
745.78	6118	
745.96	3973.7	
746.14	4266.6	
746.32	7162.4	
746.5	6450.4	
746.68	4903.5	
746.86	4348.5	
747.03	6869.6	
747.21	5143.8	
747.39	4925.4	
747.57	4350.6	
747.75	6075	
747.93	6519.4	
748.11	4429.1	
748.29	4275.5	
748.47	7634.8	
748.65	5718.6	
748.83	5090.6	
749.01	4730.1	
749.19	6251.1	
749.37	5375.9	
749.55	4624.3	
749.73	4792.2	
749.91	5833.3	
750.09	5610.8	
750.26	4820.9	
750.44	4138.9	
750.62	5911.1	
750.8	5879.7	
750.98	4048.2	
751.16	4332.1	
751.34	5973.2	
751.52	5298.1	
751.7	5238	
751.88	4017.4	
752.06	6477	
752.24	6273.6	
752.42	3984.7	
752.59	4291.2	
752.77	5811.5	
752.95	7177.4	
753.13	5131.5	
753.31	4427.7	
753.49	5544.5	
753.67	6094.8	
753.85	4800.4	
754.03	4380.6	
754.21	6289.3	
754.38	6737.8	
754.56	4597.7	
754.74	3579.2	
754.92	5622.4	
755.1	6427.9	
755.28	3773	
755.46	3752.6	
755.64	7288.7	
755.82	7447.8	
755.99	4241.3	
756.17	4366.3	
756.35	4898.1	
756.53	6565.1	
756.71	3167.5	
756.89	4208.6	
757.07	6171.9	
757.25	5128.1	
757.42	4724	
757.6	5640.1	
757.78	6062.7	
757.96	5050.3	
758.14	4313.7	
758.32	3827	
758.5	4548.5	
758.67	5478.3	
758.85	4144.4	
759.03	4320.5	
759.21	5689.3	
759.39	5068	
759.57	3751.2	
759.75	4859.8	
759.92	6292	
760.1	5510.4	
760.28	5268.1	
760.46	5581.4	
760.64	5294	
760.82	5059.8	
760.99	5141.1	
761.17	4203.8	
761.35	6105	
761.53	5039.4	
761.71	4359.4	
761.89	5070.8	
762.06	6010.8	
762.24	5504.3	
762.42	4435.9	
762.6	4132.8	
762.78	5471.5	
762.96	6134.3	
763.13	4728.1	
763.31	4437.9	
763.49	6251.1	
763.67	5376.6	
763.85	5300.1	
764.02	5949.3	
764.2	6500.3	
764.38	5733.6	
764.56	4259.1	
764.74	5202.5	
764.91	6681.8	
765.09	5537.7	
765.27	3906.2	
765.45	3693.2	
765.63	6767.9	
765.8	6600.6	
765.98	3474.7	
766.16	3882.9	
766.34	5029.8	
766.52	4887.8	
766.69	4851	
766.87	3678.8	
767.05	5496.1	
767.23	6283.9	
767.41	4028.4	
767.58	4296.6	
767.76	6133	
767.94	6240.8	
768.12	4121.2	
768.29	4954	
768.47	5644.9	
768.65	6392.4	
768.83	3764.2	
769	4935.6	
769.18	5182	
769.36	5918.6	
769.54	4997	
769.72	3852.9	
769.89	6205.3	
770.07	6425.2	
770.25	4157.4	
770.43	5499.5	
770.6	7037.5	
770.78	7429.3	
770.96	4371.7	
771.14	5070.1	
771.31	6118.6	
771.49	5526.8	
771.67	3500	
771.85	3777.8	
772.02	4645.5	
772.2	5509.7	
772.38	4545.1	
772.55	4043.4	
772.73	5792.3	
772.91	5542.5	
773.09	4449.6	
773.26	4487.1	
773.44	5759.6	
773.62	5463.3	
773.8	3963.5	
773.97	3616.7	
774.15	5780.7	
774.33	5379.3	
774.5	3825.6	
774.68	4240	
774.86	5861.3	
775.04	5455.8	
775.21	3925.3	
775.39	3936.2	
775.57	5706.3	
775.74	6223.1	
775.92	3768.9	
776.1	3688.4	
776.27	5723.4	
776.45	7102.4	
776.63	3927.3	
776.81	3443.3	
776.98	5393	
777.16	6566.5	
777.34	4134.8	
777.51	4093.2	
777.69	5364.3	
777.87	5160.2	
778.04	4124.6	
778.22	4868	
778.4	5217.5	
778.57	5931.6	
778.75	3399.6	
778.93	3694.5	
779.1	4963.6	
779.28	4853.7	
779.46	3413.3	
779.64	3941	
779.81	6079.1	
779.99	7034.8	
780.17	4817.5	
780.34	5012.7	
780.52	5469.4	
780.69	5696.1	
780.87	4306.9	
781.05	3880.2	
781.22	5568.4	
781.4	5643.5	
781.58	3942.3	
781.75	3095.2	
781.93	5613.5	
782.11	5021.6	
782.28	4935.6	
782.46	4026.3	
782.64	4827.1	
782.81	5896.1	
782.99	4089.8	
783.17	4062.5	
783.34	5674.9	
783.52	4868.7	
783.69	4327.4	
783.87	5198.4	
784.05	4902.2	
784.22	5017.5	
784.4	5180.7	
784.58	4392.9	
784.75	5954.1	
784.93	5052.3	
785.1	3992.9	
785.28	4726.7	
785.46	5677.7	
785.63	4931.5	
785.81	3975.1	
785.99	3889.8	
786.16	5127.4	
786.34	5584.1	
786.51	3931.4	
786.69	4366.3	
786.87	4734.2	
787.04	5281.7	
787.22	3689.8	
787.39	4739	
787.57	4997.7	
787.75	6179.4	
787.92	4907.6	
788.1	4900.1	
788.27	5036	
788.45	4813.4	
788.63	4574.5	
788.8	3280.2	
788.98	5558.9	
789.15	4746.5	
789.33	3426.3	
789.5	4116.4	
789.68	5990.3	
789.86	6141.2	
790.03	4512.4	
790.21	3917.1	
790.38	5984.2	
790.56	5169.8	
790.73	3784	
790.91	3818.8	
791.09	4999.8	
791.26	5909.1	
791.44	4080.2	
791.61	3470.6	
791.79	5057.8	
791.96	5112.4	
792.14	3633.1	
792.32	3150.5	
792.49	5052.3	
792.67	5225.1	
792.84	3672.7	
793.02	3449.5	
793.19	5530.9	
793.37	6301.6	
793.54	3168.9	
793.72	3562.1	
793.89	6457.2	
794.07	5094.7	
794.25	4221.5	
794.42	3235.8	
794.6	6118	
794.77	5727.5	
794.95	4456.4	
795.12	3951.2	
795.3	5048.2	
795.47	5720	
795.65	4294.6	
795.82	4115.7	
796	4876.9	
796.17	6861.4	
796.35	4000.4	
796.52	4693.3	
796.7	5612.8	
796.87	5722.7	
797.05	5048.2	
797.22	4866.7	
797.4	5699.5	
797.57	6784.9	
797.75	4112.3	
797.92	3842.7	
798.1	6019	
798.27	5060.5	
798.45	3323.2	
798.62	3625.6	
798.8	5399.8	
798.97	5960.3	
799.15	4399.7	
799.32	4169.7	
799.5	4629.1	
799.67	5514.5	
799.85	4453	
800.02	3203	
800.2	5028.4	
800.37	5437.4	
800.55	4700.8	
800.72	3904.8	
800.9	5846.3	
801.07	6323.4	
801.25	5308.3	
801.42	4268.6	
801.6	5885.2	
801.77	5656.5	
801.95	3975.8	
802.12	3768.3	
802.29	5593	
802.47	5550.7	
802.64	4248.2	
802.82	3190.7	
802.99	5025	
803.17	6137.8	
803.34	4133.5	
803.52	3737.5	
803.69	6794.5	
803.87	4784.1	
804.04	4146.5	
804.21	4225.6	
804.39	6240.8	
804.56	5294	
804.74	3526.6	
804.91	4378.6	
805.09	5072.8	
805.26	5193	
805.44	3568.9	
805.61	3951.2	
805.78	5754.8	
805.96	5760.9	
806.13	4351.3	
806.31	4721.9	
806.48	4537.6	
806.66	5145.2	
806.83	4280.3	
807	4199.7	
807.18	5064.6	
807.35	5465.3	
807.53	4164.2	
807.7	3345	
807.87	6307.7	
808.05	5135.6	
808.22	4660.5	
808.4	3363.4	
808.57	5072.1	
808.74	4782.7	
808.92	3819.5	
809.09	4911.7	
809.27	4960.2	
809.44	5617.6	
809.61	3357.3	
809.79	3741.6	
809.96	6313.9	
810.14	5855.8	
810.31	3250.1	
810.48	4095.9	
810.66	5233.9	
810.83	6051.1	
811.01	3807.2	
811.18	4289.1	
811.35	5942.5	
811.53	4543.8	
811.7	4752	
811.87	4333.5	
812.05	5107.6	
812.22	5031.9	
812.39	3736.9	
812.57	3579.8	
812.74	5143.8	
812.92	6969.2	
813.09	3986.7	
813.26	4418.2	
813.44	6612.2	
813.61	5054.4	
813.78	3319.8	
813.96	4560.1	
814.13	5123.3	
814.3	4759.5	
814.48	4896	
814.65	4080.2	
814.82	6436.8	
815	4917.2	
815.17	4130.8	
815.34	5130.2	
815.52	5049.6	
815.69	5031.2	
815.87	4162.8	
816.04	3574.4	
816.21	5158.8	
816.38	4515.1	
816.56	3940.3	
816.73	3731.4	
816.9	6492.1	
817.08	5894.1	
817.25	3712.3	
817.42	4746.5	
817.6	4698	
817.77	5147.2	
817.94	4263.9	
818.12	3705.5	
818.29	4876.9	
818.46	7757.7	
818.64	3902.7	
818.81	3627.6	
818.98	4778.6	
819.16	7042.3	
819.33	4478.2	
819.5	4164.9	
819.67	5557.5	
819.85	6202.6	
820.02	4067.3	
820.19	4317.1	
820.37	5354.1	
820.54	4924.7	
820.71	4218.8	
820.88	5251	
821.06	5286.5	
821.23	4916.5	
821.4	4221.5	
821.58	4172.4	
821.75	5939.8	
821.92	5312.4	
822.09	3389.4	
822.27	3530	
822.44	5141.1	
822.61	5040.7	
822.79	3439.2	
822.96	6619.7	
823.13	5674.2	
823.3	4889.9	
823.48	3919.8	
823.65	3559.4	
823.82	5924.1	
823.99	4680.3	
824.17	4936.3	
824.34	3596.9	
824.51	6849.8	
824.68	5176.6	
824.86	3740.3	
825.03	4193.6	
825.2	5162.2	
825.37	6298.9	
825.55	3724.6	
825.72	4197.7	
825.89	6863.4	
826.06	6426.5	
826.24	4039.3	
826.41	4061.8	
826.58	6275	
826.75	5437.4	
826.92	3153.9	
827.1	3568.9	
827.27	8602.8	
827.44	6908.5	
827.61	3857.7	
827.79	4707.6	
827.96	4866	
828.13	5253.7	
828.3	3947.1	
828.47	3334.8	
828.65	5352.7	
828.82	5303.6	
828.99	5254.4	
829.16	4592.9	
829.34	5760.3	
829.51	5557.5	
829.68	4224.3	
829.85	4391.5	
830.02	6076.3	
830.2	5738.4	
830.37	3224.2	
830.54	5078.3	
830.71	6664.8	
830.88	5095.3	
831.05	3248.8	
831.23	3806.5	
831.4	6303.6	
831.57	7109.2	
831.74	3853.6	
831.91	3414.6	
832.09	5369.1	
832.26	5740.5	
832.43	4022.9	
832.6	4472.1	
832.77	5358.9	
832.94	6242.2	
833.12	3125.9	
833.29	3997.6	
833.46	5588.9	
833.63	7392.5	
833.8	4373.8	
833.97	4061.8	
834.15	5749.3	
834.32	5530.2	
834.49	4130.8	
834.66	4279.6	
834.83	6032	
835	4848.9	
835.17	3839.9	
835.35	3908.9	
835.52	5655.1	
835.69	5567.1	
835.86	4017.4	
836.03	3381.9	
836.2	5696.1	
836.37	5383.4	
836.55	4010.6	
836.72	3730.7	
836.89	5298.1	
837.06	5827.8	
837.23	4091.8	
837.4	4487.8	
837.57	6654.5	
837.75	7296.2	
837.92	3627.6	
838.09	3996.3	
838.26	5278.3	
838.43	6079.1	
838.6	4244.8	
838.77	3715.7	
838.94	6973.3	
839.11	6638.8	
839.29	4005.1	
839.46	3162.7	
839.63	5716.6	
839.8	5448.3	
839.97	3932.1	
840.14	3870	
840.31	5515.9	
840.48	5737	
840.65	3261.7	
840.82	3871.3	
841	5737.7	
841.17	5722	
841.34	3592.8	
841.51	3644.7	
841.68	5656.5	
841.85	5360.9	
842.02	3709.6	
842.19	3072.6	
842.36	5472.2	
842.53	5518.6	
842.7	3570.3	
842.87	4429.1	
843.05	7303.1	
843.22	5451.7	
843.39	3315	
843.56	3713.6	
843.73	5156.1	
843.9	5840.1	
844.07	5797.1	
844.24	4831.8	
844.41	8538	
844.58	4963.6	
844.75	3443.3	
844.92	3787.4	
845.09	5753.4	
845.26	5734.3	
845.43	3543.7	
845.6	3715.7	
845.77	5756.2	
845.94	5401.9	
846.12	3947.8	
846.29	4199	
846.46	5941.8	
846.63	5759.6	
846.8	3584.6	
846.97	4220.2	
847.14	6277	
847.31	5653.1	
847.48	4019.5	
847.65	4451.6	
847.82	6090.7	
847.99	5992.4	
848.16	4832.5	
848.33	4414.7	
848.5	5294.7	
848.67	6282.5	
848.84	3497.9	
849.01	3696.6	
849.18	5140.4	
849.35	4800.4	
849.52	4427	
849.69	3444	
849.86	5943.2	
850.03	6199.2	
850.2	3529.3	
850.37	4366.3	
850.54	6142.5	
850.71	5449	
850.88	4250.2	
851.05	3523.9	
851.22	5629.9	
851.39	6307.1	
851.56	3357.3	
851.73	4085.7	
851.9	5027.8	
852.07	6018.3	
852.24	3974.4	
852.41	3506.1	
852.58	5520.6	
852.75	5134.3	
852.92	4014	
853.09	3507.5	
853.26	5307.7	
853.43	6206.7	
853.6	3505.4	
853.77	3013.2	
853.94	6331.6	
854.11	5641.5	
854.28	5358.9	
854.44	3814	
854.61	6752.8	
854.78	6113.9	
854.95	3538.9	
855.12	4522.6	
855.29	4559.5	
855.46	6583.5	
855.63	3549.8	
855.8	4907.6	
855.97	5281	
856.14	6132.3	
856.31	5160.9	
856.48	3876.1	
856.65	5311.7	
856.82	5052.3	
856.99	3360.7	
857.16	3817.4	
857.33	6982.9	
857.49	5380.7	
857.66	3889.8	
857.83	4110.3	
858	5385.5	
858.17	5603.9	
858.34	3363.4	
858.51	3526.6	
858.68	6470.2	
858.85	6494.1	
859.02	4096.6	
859.19	4360.8	
859.36	5005.9	
859.52	5070.1	
859.69	3571.7	
859.86	4174.4	
860.03	5109	
860.2	6410.1	
860.37	3202.3	
860.54	3592.1	
860.71	5982.8	
860.88	6484.6	
861.05	4010.6	
861.21	4478.9	
861.38	6470.9	
861.55	4883	
861.72	3194.1	
861.89	4005.1	
862.06	6100.2	
862.23	6550.1	
862.4	3496.6	
862.56	3708.2	
862.73	5851.7	
862.9	5531.6	
863.07	4136.2	
863.24	3169.6	
863.41	4878.9	
863.58	5050.3	
863.75	3670	
863.91	4074.1	
864.08	6382.2	
864.25	5915.2	
864.42	4470.7	
864.59	4991.6	
864.76	6762.4	
864.93	5018.2	
865.09	3444.7	
865.26	3780.6	
865.43	6242.9	
865.6	6676.4	
865.77	3072.6	
865.94	3525.9	
866.1	6318.7	
866.27	6025.8	
866.44	5370.5	
866.61	3362.8	
866.78	5455.8	
866.95	5896.1	
867.11	3406.5	
867.28	3138.2	
867.45	6171.2	
867.62	5051.7	
867.79	4257.7	
867.96	3522.5	
868.12	5136.3	
868.29	6059.9	
868.46	3536.2	
868.63	4795	
868.8	6202.6	
868.97	5927.5	
869.13	3738.2	
869.3	3713.6	
869.47	5840.8	
869.64	6098.9	
869.81	3633.1	
869.97	3548.4	
870.14	5763.7	
870.31	6424.5	
870.48	3480.2	
870.65	4514.4	
870.81	5347.9	
870.98	5356.1	
871.15	4059.8	
871.32	3745.7	
871.48	5810.8	
871.65	6494.1	
871.82	3507.5	
871.99	3960.1	
872.16	6939.2	
872.32	6383.5	
872.49	3560.7	
872.66	3619.4	
872.83	5988.3	
872.99	5231.2	
873.16	4109.6	
873.33	3502	
873.5	5592.3	
873.67	5640.8	
873.83	3743	
874	4798.4	
874.17	5850.4	
874.34	6902.3	
874.5	4618.2	
874.67	4433.9	
874.84	6406.7	
875.01	5027.8	
875.17	5019.6	
875.34	3487	
875.51	5642.8	
875.68	6869.6	
875.84	4233.8	
876.01	5285.1	
876.18	5930.9	
876.34	5851	
876.51	3534.8	
876.68	3545	
876.85	5481.7	
877.01	6291.4	
877.18	5098.8	
877.35	3538.2	
877.52	5491.3	
877.68	4980.7	
877.85	3421.5	
878.02	3494.5	
878.18	5542.5	
878.35	5235.3	
878.52	2843.9	
878.69	4004.5	
878.85	6021.7	
879.02	5924.1	
879.19	5076.9	
879.35	3836.5	
879.52	5912.5	
879.69	6158.9	
879.86	3088.3	
880.02	3919.8	
880.19	5449	
880.36	6831.3	
880.52	4050.2	
880.69	4235.2	
880.86	5982.8	
881.02	6122.7	
881.19	3904.8	
881.36	3923.2	
881.52	5909.8	
881.69	5222.3	
881.86	3821.5	
882.02	3796.9	
882.19	6228.6	
882.36	7264.8	
882.52	3674.1	
882.69	5017.5	
882.86	5698.8	
883.02	5589.6	
883.19	4371	
883.36	4098	
883.52	6097.5	
883.69	6894.1	
883.86	3565.5	
884.02	3216.7	
884.19	6027.2	
884.36	5558.9	
884.52	4089.1	
884.69	3749.1	
884.86	5280.3	
885.02	6719.4	
885.19	3920.5	
885.36	4103.4	
885.52	5545.2	
885.69	5698.1	
885.86	5132.2	
886.02	4572.4	
886.19	6022.4	
886.35	5466.7	
886.52	3928	
886.69	5044.8	
886.85	5087.8	
887.02	6385.6	
887.19	6385.6	
887.35	6385.6	
887.52	6385.6	
887.68	6385.6	
887.85	6385.6	
888.02	6385.6	
888.18	6385.6	
888.35	6385.6	
888.51	6385.6	
888.68	6385.6	
888.85	6385.6	
889.01	6385.6	
889.18	6385.6	
889.35	6385.6	
889.51	6385.6	
889.68	6385.6	
889.84	6385.6	
890.01	6385.6	
890.17	6385.6	
890.34	6385.6	
890.51	6385.6	
890.67	6385.6	
890.84	6385.6	
891	6385.6	
891.17	6385.6	
891.34	6385.6	
891.5	6385.6	
891.67	6385.6	
891.83	6385.6	
892	6385.6	
892.16	6385.6	
892.33	6385.6	
892.5	6385.6	
892.66	6385.6	
892.83	6385.6	
892.99	6385.6	
893.16	6385.6	
893.32	6385.6	
893.49	6385.6	
893.65	6385.6	
893.82	6385.6	
893.99	6385.6	
894.15	6385.6	
894.32	6385.6	
894.48	6385.6	
894.65	6385.6	
894.81	6385.6	
894.98	6385.6	
895.14	6385.6	
895.31	6385.6	
895.47	6385.6	
895.64	6385.6	
895.81	6385.6	
895.97	6385.6	
896.14	6385.6	
896.3	6385.6	
896.47	6385.6	
896.63	6385.6	
896.8	6385.6	
896.96	6385.6	
897.13	6385.6	
897.29	6385.6	
897.46	6385.6	
897.62	6385.6	
897.79	6385.6	
897.95	6385.6	
898.12	6385.6	
898.28	6385.6	
898.45	6385.6	
898.61	6385.6	
898.78	6385.6	
898.94	6385.6	
899.11	6385.6	
899.27	6385.6	
899.44	6385.6	
899.6	6385.6	
899.77	6385.6	
899.93	6385.6	
900.1	6385.6	
900.26	6385.6	
900.43	6385.6	
900.59	6385.6	
900.76	6385.6	
900.92	6385.6	
901.09	6385.6	
901.25	6385.6	
901.42	6385.6	
901.58	6385.6	
901.75	6385.6	
901.91	6385.6	
902.07	6385.6	
902.24	6385.6	
902.4	6385.6	
902.57	6385.6	
902.73	6385.6	
902.9	6385.6	
903.06	6385.6	
903.23	6385.6	
903.39	6385.6	
903.56	6385.6	
903.72	6385.6	
903.88	6385.6	
904.05	6385.6	
904.21	6385.6	
904.38	6385.6	
904.54	6385.6	
904.71	6385.6	
904.87	6385.6	
905.03	6385.6	
905.2	6385.6	
905.36	6385.6	
905.53	6385.6	
905.69	6385.6	
905.86	6385.6	
906.02	6385.6	
906.18	6385.6	
906.35	6385.6	
906.51	6385.6	
906.68	6385.6	
906.84	6385.6	
907.01	6385.6	
907.17	6385.6	
907.33	6385.6	
907.5	6385.6	
907.66	6385.6	
907.83	6385.6	
907.99	6385.6	
908.15	6385.6	
908.32	6385.6	
908.48	6385.6	
908.65	6385.6	
908.81	6385.6	
908.97	6385.6	
909.14	6385.6	
909.3	6385.6	
909.47	6385.6	
909.63	6385.6	
909.79	6385.6	
909.96	6385.6	
910.12	6385.6	
910.28	6385.6	
910.45	6385.6	
910.61	6385.6	
910.78	6385.6	
910.94	6385.6	
911.1	6385.6	
911.27	6385.6	
911.43	6385.6	
911.59	6385.6	
911.76	6385.6	
911.92	6385.6	
912.08	6385.6	
912.25	6385.6	
912.41	6385.6	
912.57	6385.6	
912.74	6385.6	
912.9	6385.6	
913.07	6385.6	
913.23	6385.6	
913.39	6385.6	
913.56	6385.6	
913.72	6385.6	
913.88	6385.6	
914.05	6385.6	
914.21	6385.6	
914.37	6385.6	
914.54	6385.6	
914.7	6385.6	
914.86	6385.6	
915.03	6385.6	
915.19	6385.6	
