Wavelength	Intensities	
nm	a.u.	
179.22	1896.4	
179.44	1898.5	
179.65	1894.4	
179.86	1902.6	
180.08	1912.8	
180.29	4988.9	
180.51	3536.2	
180.72	5674.2	
180.94	6653.2	
181.15	3282.2	
181.37	3194.8	
181.58	5535	
181.79	5847.6	
182.01	3390.8	
182.22	3660.4	
182.44	5836	
182.65	4816.1	
182.87	4576.5	
183.08	4012.7	
183.29	6161	
183.51	5023	
183.72	3681.6	
183.94	5369.8	
184.15	5395.7	
184.37	5421.7	
184.58	3226.9	
184.79	4429.1	
185.01	4969.7	
185.22	5800.5	
185.44	4689.2	
185.65	3924.6	
185.86	5337	
186.08	4956.8	
186.29	3142.9	
186.51	3386.7	
186.72	5049.6	
186.94	5934.3	
187.15	3899.3	
187.36	4058.4	
187.58	7746.1	
187.79	5517.9	
188.01	4237.9	
188.22	6591	
188.43	6699.6	
188.65	5823.7	
188.86	3377.1	
189.08	4018.1	
189.29	5206.6	
189.5	5232.6	
189.72	3785.3	
189.93	3861.1	
190.15	5978	
190.36	7159	
190.57	4158.7	
190.79	4017.4	
191	6083.8	
191.22	5978	
191.43	4170.3	
191.64	3368.9	
191.86	6257.2	
192.07	5982.8	
192.29	3599.6	
192.5	3766.9	
192.71	6008.7	
192.93	5208	
193.14	3646.1	
193.35	3813.3	
193.57	5199.1	
193.78	5991.7	
194	2970.2	
194.21	3670.6	
194.42	4920.6	
194.64	5408.7	
194.85	4110.3	
195.07	4720.6	
195.28	5454.4	
195.49	4752	
195.71	4981.3	
195.92	3487.7	
196.13	5641.5	
196.35	5746.6	
196.56	5326.8	
196.78	4024.9	
196.99	7107.8	
197.2	6595.1	
197.42	4663.9	
197.63	4093.2	
197.84	4833.2	
198.06	5611.4	
198.27	3772.4	
198.48	4994.3	
198.7	5177.3	
198.91	5345.2	
199.13	4048.8	
199.34	4121.9	
199.55	5802.6	
199.77	4719.9	
199.98	3547.8	
200.19	4123.9	
200.41	5224.4	
200.62	4995.7	
200.83	4291.2	
201.05	4537.6	
201.26	5357.5	
201.47	5087.2	
201.69	3597.6	
201.9	3434.4	
202.11	5369.8	
202.33	6414.2	
202.54	3903.4	
202.76	4357.4	
202.97	5546.6	
203.18	5532.9	
203.4	4298	
203.61	4188.8	
203.82	5471.5	
204.04	5092.6	
204.25	4082.3	
204.46	4051.6	
204.68	5453.7	
204.89	5665.4	
205.1	3989.4	
205.32	3467.2	
205.53	5878.4	
205.74	5952.8	
205.96	2964.8	
206.17	4193.6	
206.38	5877.7	
206.6	6011.5	
206.81	4651.6	
207.02	3807.2	
207.24	5679	
207.45	6102.9	
207.66	3904.8	
207.88	3293.1	
208.09	5631.9	
208.3	5459.2	
208.52	3605.1	
208.73	3891.8	
208.94	5399.8	
209.15	6221.7	
209.37	3798.3	
209.58	4125.3	
209.79	5987.6	
210.01	5255.1	
210.22	3110.2	
210.43	3272.7	
210.65	5500.2	
210.86	5941.2	
211.07	3902.7	
211.29	3549.1	
211.5	5822.4	
211.71	5369.1	
211.93	3565.5	
212.14	3580.5	
212.35	5302.2	
212.56	5616.2	
212.78	4123.2	
212.99	3355.9	
213.2	6427.9	
213.42	5211.4	
213.63	3666.5	
213.84	3922.5	
214.06	4838	
214.27	4887.8	
214.48	3891.1	
214.69	4148.5	
214.91	6146.6	
215.12	6206.7	
215.33	4225	
215.55	4602.5	
215.76	6735.1	
215.97	5790.3	
216.18	4020.8	
216.4	3885	
216.61	5117.2	
216.82	5973.9	
217.04	3629.7	
217.25	3754.6	
217.46	6052.4	
217.67	5862	
217.89	3211.9	
218.1	3339.6	
218.31	5555.5	
218.53	5684.5	
218.74	3789.4	
218.95	3681.6	
219.16	5380	
219.38	6371.9	
219.59	3648.8	
219.8	4345.8	
220.01	7055.9	
220.23	5395.7	
220.44	4782.7	
220.65	3581.9	
220.87	5504.3	
221.08	6078.4	
221.29	3259.7	
221.5	4452.3	
221.72	7421.8	
221.93	5096	
222.14	4152.6	
222.35	4837.3	
222.57	5555.5	
222.78	5806	
222.99	3930.7	
223.2	4222.2	
223.42	5797.1	
223.63	5879.7	
223.84	3041.9	
224.05	2951.1	
224.27	7051.8	
224.48	6328.2	
224.69	4816.8	
224.9	4098.7	
225.12	5712.5	
225.33	5340.4	
225.54	3284.3	
225.75	3677.5	
225.97	4977.9	
226.18	5287.9	
226.39	3953.9	
226.6	3685.7	
226.82	5130.8	
227.03	5031.2	
227.24	4073.4	
227.45	3389.4	
227.67	5825.1	
227.88	6400.6	
228.09	4596.3	
228.3	4627	
228.52	5885.9	
228.73	5397.1	
228.94	3766.9	
229.15	3373	
229.36	5330.2	
229.58	5296	
229.79	3835.8	
230	4488.5	
230.21	6504.3	
230.43	5539.8	
230.64	4080.2	
230.85	4323.9	
231.06	5870.8	
231.28	5859.2	
231.49	3319.1	
231.7	4001.7	
231.91	5745.2	
232.12	5530.2	
232.34	3401.7	
232.55	4005.8	
232.76	6087.2	
232.97	5599.1	
233.18	3579.8	
233.4	4033.8	
233.61	5639.4	
233.82	5272.2	
234.03	3776.5	
234.25	3662.5	
234.46	7580.2	
234.67	5484.5	
234.88	4231.1	
235.09	3591.5	
235.31	5752.1	
235.52	5310.4	
235.73	4134.8	
235.94	3442	
236.15	5167	
236.37	6592.4	
236.58	3602.4	
236.79	3951.2	
237	5776	
237.21	4975.9	
237.43	4186.7	
237.64	3299.3	
237.85	9945.6	
238.06	4958.1	
238.27	4294.6	
238.48	3417.4	
238.7	5849	
238.91	5283.1	
239.12	3902.1	
239.33	3924.6	
239.54	5084.4	
239.76	5350	
239.97	3869.3	
240.18	3879.5	
240.39	6734.4	
240.6	5710.4	
240.82	4009.2	
241.03	3343.7	
241.24	5455.8	
241.45	6329.6	
241.66	3569.6	
241.87	4221.5	
242.09	6144.6	
242.3	6571.9	
242.51	4313	
242.72	4025.6	
242.93	5950.7	
243.14	5386.2	
243.36	4558.8	
243.57	4897.4	
243.78	6251.8	
243.99	5860.6	
244.2	4022.9	
244.41	3571.7	
244.63	5000.5	
244.84	5799.8	
245.05	4199	
245.26	3969.6	
245.47	5735	
245.68	5975.3	
245.9	5208	
246.11	4158.7	
246.32	5249.6	
246.53	5707.7	
246.74	6436.1	
246.95	3263.8	
247.16	4872.8	
247.38	5439.4	
247.59	3237.8	
247.8	3956.7	
248.01	5160.9	
248.22	5345.2	
248.43	3551.9	
248.64	3861.8	
248.86	4805.9	
249.07	5257.8	
249.28	3474.7	
249.49	3994.2	
249.7	5984.2	
249.91	6111.8	
250.12	3274.7	
250.34	3340.2	
250.55	5537.7	
250.76	5485.1	
250.97	4117.1	
251.18	4097.3	
251.39	6130.3	
251.6	5586.9	
251.81	4141	
252.03	4160.1	
252.24	5199.8	
252.45	5969.8	
252.66	3437.2	
252.87	4296	
253.08	5467.4	
253.29	7178.8	
253.5	3454.2	
253.72	4792.9	
253.93	5241.4	
254.14	6532.3	
254.35	3708.2	
254.56	3829.7	
254.77	5629.2	
254.98	5062.6	
255.19	3648.1	
255.41	4767	
255.62	5528.2	
255.83	6119.3	
256.04	4283	
256.25	4113	
256.46	6460.7	
256.67	5116.5	
256.88	4078.2	
257.09	4556	
257.31	5100.8	
257.52	5166.3	
257.73	5065.3	
257.94	3681.6	
258.15	5274.2	
258.36	5457.8	
258.57	4692.6	
258.78	3016	
258.99	5943.9	
259.2	5269.4	
259.41	3766.2	
259.63	3902.1	
259.84	6328.2	
260.05	6763.1	
260.26	4952.7	
260.47	3615.3	
260.68	6053.8	
260.89	5393.7	
261.1	4539.7	
261.31	3548.4	
261.52	6016.9	
261.73	6392.4	
261.95	4858.5	
262.16	4258.4	
262.37	6130.9	
262.58	6258.6	
262.79	4821.6	
263	3840.6	
263.21	5506.3	
263.42	4956.8	
263.63	3854.3	
263.84	3794.2	
264.05	6089.3	
264.26	6392.4	
264.47	4724	
264.69	4303.5	
264.9	6207.4	
265.11	5659.2	
265.32	3682.2	
265.53	3768.9	
265.74	5552	
265.95	4846.2	
266.16	4009.2	
266.37	4387.4	
266.58	5569.8	
266.79	5229.8	
267	3709.6	
267.21	3461.7	
267.42	5077.6	
267.63	5428.5	
267.84	3894.6	
268.06	3362.8	
268.27	5842.2	
268.48	6173.3	
268.69	3791.5	
268.9	4599.7	
269.11	6144.6	
269.32	4928.8	
269.53	3876.8	
269.74	3603.1	
269.95	5799.8	
270.16	4791.6	
270.37	3952.6	
270.58	4558.8	
270.79	5287.2	
271	6033.3	
271.21	4247.5	
271.42	3990.8	
271.63	5551.4	
271.84	5134.9	
272.05	3143.6	
272.26	3497.9	
272.47	5452.4	
272.68	5641.5	
272.89	3768.9	
273.11	4353.3	
273.32	5252.4	
273.53	6382.2	
273.74	4298	
273.95	4147.8	
274.16	6129.6	
274.37	5535	
274.58	4270	
274.79	3464.5	
275	5637.4	
275.21	6139.1	
275.42	5178.6	
275.63	4446.1	
275.84	5687.2	
276.05	7240.3	
276.26	4141.7	
276.47	3915.7	
276.68	5343.2	
276.89	6462	
277.1	4409.3	
277.31	3503.4	
277.52	5782.8	
277.73	5909.1	
277.94	3401	
278.15	3809.9	
278.36	5634	
278.57	5126.7	
278.78	3744.4	
278.99	4240	
279.2	5109	
279.41	5067.4	
279.62	4987.5	
279.83	3517.7	
280.04	6675	
280.25	4966.3	
280.46	4997	
280.67	3971	
280.88	5103.5	
281.09	6146	
281.3	4164.2	
281.51	5231.9	
281.72	5922.7	
281.93	6005.3	
282.14	3676.1	
282.35	3967.6	
282.56	5964.4	
282.77	5896.1	
282.98	3709.6	
283.19	4687.8	
283.4	7337.9	
283.61	5375.2	
283.82	3383.2	
284.03	4898.1	
284.24	5576.6	
284.45	6121.4	
284.66	4890.5	
284.87	4687.8	
285.08	6040.1	
285.29	6208.1	
285.5	3326.6	
285.71	3893.9	
285.92	6070.9	
286.12	6761.7	
286.33	4881.7	
286.54	3818.8	
286.75	5948.7	
286.96	5300.1	
287.17	3525.2	
287.38	4797.7	
287.59	5051.7	
287.8	5002.5	
288.01	3880.9	
288.22	4465.9	
288.43	6021	
288.64	4977.9	
288.85	4581.3	
289.06	4357.4	
289.27	5924.8	
289.48	6395.8	
289.69	4889.2	
289.9	4414.1	
290.11	6094.1	
290.32	5124	
290.53	4599.1	
290.74	4268	
290.94	5979.4	
291.15	5887.2	
291.36	3690.4	
291.57	4468.7	
291.78	5165.7	
291.99	4835.3	
292.2	3497.9	
292.41	4241.3	
292.62	6071.5	
292.83	5781.4	
293.04	5281	
293.25	3580.5	
293.46	5255.8	
293.67	6034	
293.88	3697.9	
294.09	3521.1	
294.29	4971.8	
294.5	5623.7	
294.71	4003.1	
294.92	3768.3	
295.13	5192.3	
295.34	6617	
295.55	3313.6	
295.76	3404.4	
295.97	5847	
296.18	6701.6	
296.39	3537.5	
296.6	3677.5	
296.81	5550.7	
297.01	5858.6	
297.22	3842.7	
297.43	3635.8	
297.64	5081.7	
297.85	5132.9	
298.06	3064.4	
298.27	3293.1	
298.48	5517.9	
298.69	5186.8	
298.9	3950.5	
299.11	3609.9	
299.31	4926.7	
299.52	4995	
299.73	4263.2	
299.94	4156	
300.15	5459.9	
300.36	5072.1	
300.57	4162.2	
300.78	4198.3	
300.99	5362.9	
301.2	5514.5	
301.4	3626.3	
301.61	4044.7	
301.82	5770.5	
302.03	5887.9	
302.24	4504.2	
302.45	3517.7	
302.66	5760.9	
302.87	6200.6	
303.08	3720.5	
303.29	5096	
303.49	5175.9	
303.7	5491.3	
303.91	3306.1	
304.12	4842.8	
304.33	4954.7	
304.54	5552	
304.75	3704.1	
304.96	3485	
305.16	5751.4	
305.37	6527.6	
305.58	3200.3	
305.79	3345	
306	5741.8	
306.21	4898.7	
306.42	3657.7	
306.63	5675.6	
306.83	5353.4	
307.04	6090	
307.25	4043.4	
307.46	4080.9	
307.67	4678.2	
307.88	5946.6	
308.09	3635.8	
308.29	3747.8	
308.5	5513.8	
308.71	6083.1	
308.92	3971.7	
309.13	3549.1	
309.34	5369.1	
309.55	5400.5	
309.75	4571.1	
309.96	4228.4	
310.17	5886.5	
310.38	5137	
310.59	4465.9	
310.8	3450.8	
311.01	5285.1	
311.21	5356.1	
311.42	3540.9	
311.63	3633.8	
311.84	5203.2	
312.05	5631.9	
312.26	4083.6	
312.46	4491.9	
312.67	5292.6	
312.88	4960.9	
313.09	3532.7	
313.3	3481.5	
313.51	6328.2	
313.71	6681.8	
313.92	3515.7	
314.13	3806.5	
314.34	5652.4	
314.55	5358.9	
314.76	4573.8	
314.96	3951.2	
315.17	5505.6	
315.38	5919.3	
315.59	3554.6	
315.8	3357.3	
316.01	6373.3	
316.21	6365.1	
316.42	3454.2	
316.63	3932.8	
316.84	5342.5	
317.05	6184.2	
317.26	4195.6	
317.46	3743.7	
317.67	5386.8	
317.88	5874.9	
318.09	4539.7	
318.3	3339.6	
318.5	5132.9	
318.71	5786.2	
318.92	5844.9	
319.13	4162.2	
319.34	6019	
319.54	6184.9	
319.75	3307.5	
319.96	3226.2	
320.17	5903.6	
320.38	6091.3	
320.58	3272.7	
320.79	3892.5	
321	6052.4	
321.21	6212.9	
321.42	3923.9	
321.62	3207.8	
321.83	5089.2	
322.04	5464.7	
322.25	3780.6	
322.46	3586	
322.66	5623	
322.87	5713.2	
323.08	4440	
323.29	3520.5	
323.5	6554.2	
323.7	4969.1	
323.91	4879.6	
324.12	4379.9	
324.33	5556.8	
324.53	5801.2	
324.74	4224.3	
324.95	4427	
325.16	4777.9	
325.37	5220.3	
325.57	3588	
325.78	3690.4	
325.99	5517.9	
326.2	4980	
326.4	5282.4	
326.61	3272	
326.82	5425.8	
327.03	5588.2	
327.24	5141.1	
327.44	4859.1	
327.65	5726.1	
327.86	4696.7	
328.07	4253.6	
328.27	3429	
328.48	6155.5	
328.69	5059.2	
328.9	5210.7	
329.1	3853.6	
329.31	5323.4	
329.52	6304.3	
329.73	3553.9	
329.93	4013.3	
330.14	5498.8	
330.35	5725.4	
330.56	5916.6	
330.76	4415.4	
330.97	5253	
331.18	5624.4	
331.39	3962.1	
331.59	3210.5	
331.8	6010.8	
332.01	6158.9	
332.22	3683.6	
332.42	4270	
332.63	5632.6	
332.84	5139.7	
333.05	3981.3	
333.25	3654.9	
333.46	5239.4	
333.67	5481.7	
333.88	3762.1	
334.08	4139.6	
334.29	7609.6	
334.5	6141.2	
334.7	3493.2	
334.91	5146.5	
335.12	5063.3	
335.33	5931.6	
335.53	3966.9	
335.74	5862	
335.95	5240.1	
336.16	5086.5	
336.36	3910.3	
336.57	4576.5	
336.78	4971.1	
336.98	6009.4	
337.19	4872.8	
337.4	3896.6	
337.61	6599.9	
337.81	5020.3	
338.02	3608.5	
338.23	4776.5	
338.43	6244.9	
338.64	5166.3	
338.85	3530.7	
339.05	4735.6	
339.26	6291.4	
339.47	4868	
339.68	3618.1	
339.88	5362.3	
340.09	5765	
340.3	5967.1	
340.5	4164.2	
340.71	3216	
340.92	4933.6	
341.13	6207.4	
341.33	3497.2	
341.54	4254.3	
341.75	5737.7	
341.95	5360.9	
342.16	4022.9	
342.37	4398.4	
342.57	5025.7	
342.78	5451.7	
342.99	4481	
343.19	3221.5	
343.4	5892	
343.61	5728.2	
343.81	3818.1	
344.02	3519.1	
344.23	5893.4	
344.43	6368.5	
344.64	4509.6	
344.85	4336.2	
345.06	5706.3	
345.26	6097.5	
345.47	4080.2	
345.68	4847.5	
345.88	4846.9	
346.09	5933	
346.3	4172.4	
346.5	3146.4	
346.71	5467.4	
346.92	5169.1	
347.12	3259	
347.33	4104.8	
347.54	5991.7	
347.74	6401.3	
347.95	4063.2	
348.16	3056.3	
348.36	5290.6	
348.57	5007.3	
348.78	4027	
348.98	4361.5	
349.19	5362.9	
349.39	4896.7	
349.6	3308.8	
349.81	3637.9	
350.01	5704.3	
350.22	5173.2	
350.43	3951.9	
350.63	4792.2	
350.84	5547.9	
351.05	5222.3	
351.25	3639.9	
351.46	3209.2	
351.67	6061.3	
351.87	5160.9	
352.08	3837.9	
352.29	4383.3	
352.49	5870.8	
352.7	5608	
352.9	3481.5	
353.11	4341	
353.32	6623.8	
353.52	5254.4	
353.73	3459.7	
353.94	4363.5	
354.14	5752.7	
354.35	5581.4	
354.55	3552.5	
354.76	4018.1	
354.97	5733.6	
355.17	5524.1	
355.38	3321.1	
355.59	4633.2	
355.79	5092.6	
356	5539.8	
356.2	3919.1	
356.41	3334.1	
356.62	4834.6	
356.82	5332.2	
357.03	4184	
357.24	3740.3	
357.44	5163.6	
357.65	5284.4	
357.85	5074.2	
358.06	3955.3	
358.27	4844.1	
358.47	5070.8	
358.68	3287.7	
358.88	4154	
359.09	5678.3	
359.3	6107.7	
359.5	4889.2	
359.71	4339	
359.91	6547.4	
360.12	5888.6	
360.33	4118.5	
360.53	4636.6	
360.74	5167.7	
360.94	5202.5	
361.15	4380.6	
361.36	3528.7	
361.56	5920.7	
361.77	5303.6	
361.97	4922.6	
362.18	3824.9	
362.38	5971.2	
362.59	4919.2	
362.8	3469.3	
363	3353.9	
363.21	4772.4	
363.41	5413.5	
363.62	4022.9	
363.83	5147.9	
364.03	5500.8	
364.24	6521.4	
364.44	5137.7	
364.65	5162.9	
364.85	5301.5	
365.06	5112.4	
365.27	3743.7	
365.47	3717.7	
365.68	6234	
365.88	5244.8	
366.09	4154	
366.29	3742.3	
366.5	5562.3	
366.71	5912.5	
366.91	5096	
367.12	4220.9	
367.32	6481.8	
367.53	5769.8	
367.73	4147.1	
367.94	5177.9	
368.14	5774.6	
368.35	6653.2	
368.56	4137.6	
368.76	3485.6	
368.97	5814.2	
369.17	7644.4	
369.38	3670	
369.58	3936.2	
369.79	4908.3	
369.99	6240.2	
370.2	4900.8	
370.4	4018.1	
370.61	5588.2	
370.82	6779.5	
371.02	3906.2	
371.23	3224.2	
371.43	4752	
371.64	6173.3	
371.84	3916.4	
372.05	5188.9	
372.25	7427.3	
372.46	5870.8	
372.66	3917.8	
372.87	3855.6	
373.07	5898.1	
373.28	7466.2	
373.48	4937	
373.69	4620.2	
373.9	5259.2	
374.1	5318.6	
374.31	4861.9	
374.51	4370.4	
374.72	6120.7	
374.92	5011.4	
375.13	5070.8	
375.33	4138.3	
375.54	5748.6	
375.74	5132.9	
375.95	4240.7	
376.15	5517.2	
376.36	5692.7	
376.56	5543.9	
376.77	4289.1	
376.97	4721.3	
377.18	6841.6	
377.38	5822.4	
377.59	5104.2	
377.79	3756.7	
378	5548.6	
378.2	6051.7	
378.41	3835.2	
378.61	3711.6	
378.82	6110.5	
379.02	5078.3	
379.23	3946.4	
379.43	5173.2	
379.64	6143.9	
379.84	5773.9	
380.05	3817.4	
380.25	3751.9	
380.46	5829.2	
380.66	5456.5	
380.87	5144.5	
381.07	5535	
381.28	6470.9	
381.48	5838.1	
381.69	3780.6	
381.89	3892.5	
382.1	4782	
382.3	6069.5	
382.51	5049.6	
382.71	6041.5	
382.91	5903.6	
383.12	6427.2	
383.32	4235.9	
383.53	4455.7	
383.73	5704.3	
383.94	5505.6	
384.14	4428.4	
384.35	3431.7	
384.55	5498.8	
384.76	5933.6	
384.96	4219.5	
385.17	4531.5	
385.37	5849	
385.58	5175.2	
385.78	4590.9	
385.98	3387.3	
386.19	5383.4	
386.39	5750.7	
386.6	4011.3	
386.8	4229.1	
387.01	5838.1	
387.21	5881.1	
387.42	4716.5	
387.62	5182.7	
387.83	5151.3	
388.03	5859.2	
388.23	4257.7	
388.44	5064.6	
388.64	4898.7	
388.85	4899.4	
389.05	4554.7	
389.26	5232.6	
389.46	6623.8	
389.67	6272.9	
389.87	4615.4	
390.07	4705.5	
390.28	5514.5	
390.48	5062.6	
390.69	3745.1	
390.89	4083	
391.1	5257.1	
391.3	6210.8	
391.5	5259.9	
391.71	5955.5	
391.91	5872.9	
392.12	6892.8	
392.32	5409.4	
392.53	4583.4	
392.73	5319.9	
392.93	5476.3	
393.14	4242	
393.34	5096.7	
393.55	5974.6	
393.75	5439.4	
393.95	4240.7	
394.16	4147.8	
394.36	5210.7	
394.57	5978.7	
394.77	3719.1	
394.98	4169.7	
395.18	5119.2	
395.38	5262.6	
395.59	5027.8	
395.79	3945.1	
396	5266.7	
396.2	5764.3	
396.4	4835.3	
396.61	4742.4	
396.81	6037.4	
397.02	5197.7	
397.22	4984.8	
397.42	5069.4	
397.63	5988.3	
397.83	5156.8	
398.04	3852.2	
398.24	4398.4	
398.44	5731.6	
398.65	4681.7	
398.85	3683.6	
399.05	3839.3	
399.26	5048.2	
399.46	6888.7	
399.67	4194.9	
399.87	3949.8	
400.07	5439.4	
400.28	5844.9	
400.48	3994.2	
400.69	5163.6	
400.89	6051.7	
401.09	6460.7	
401.3	3839.9	
401.5	5069.4	
401.7	6667.5	
401.91	7004.1	
402.11	4234.5	
402.32	4496.7	
402.52	6027.2	
402.72	5977.3	
402.93	4741	
403.13	3536.8	
403.33	6825.2	
403.54	5500.2	
403.74	4407.9	
403.94	5361.6	
404.15	5614.2	
404.35	6779.5	
404.56	4207.9	
404.76	6090	
404.96	6018.3	
405.17	5864	
405.37	5520	
405.57	4670.1	
405.78	6053.8	
405.98	5525.4	
406.18	4136.2	
406.39	5166.3	
406.59	6037.4	
406.79	5685.2	
407	3986	
407.2	4113	
407.4	6022.4	
407.61	6286.6	
407.81	4114.4	
408.01	6184.2	
408.22	4995	
408.42	7149.5	
408.62	5161.6	
408.83	4550.6	
409.03	5627.1	
409.23	5312.4	
409.44	4602.5	
409.64	4977.2	
409.84	6427.9	
410.05	6330.3	
410.25	4687.1	
410.45	4447.5	
410.66	5803.9	
410.86	8359.8	
411.06	4863.9	
411.27	4769	
411.47	8004.8	
411.67	5975.3	
411.88	4988.2	
412.08	5154.7	
412.28	6535.1	
412.49	7129	
412.69	4709.6	
412.89	4749.9	
413.09	6910.5	
413.3	6734.4	
413.5	4781.3	
413.7	4407.9	
413.91	5997.8	
414.11	6908.5	
414.31	4574.5	
414.52	4943.1	
414.72	6490	
414.92	6413.6	
415.12	4573.8	
415.33	5071.5	
415.53	6756.9	
415.73	6911.2	
415.94	5541.8	
416.14	4861.9	
416.34	5744.6	
416.55	5534.3	
416.75	6077	
416.95	5534.3	
417.15	6733	
417.36	7534.5	
417.56	6303	
417.76	5332.9	
417.97	7137.2	
418.17	6793.1	
418.37	4861.2	
418.57	4982.7	
418.78	6553.5	
418.98	6231.3	
419.18	5904.3	
419.38	5853.8	
419.59	6228.6	
419.79	5901.6	
419.99	4812	
420.2	5272.2	
420.4	6780.1	
420.6	6987.7	
420.8	4730.8	
421.01	4595.6	
421.21	6548	
421.41	6769.2	
421.61	5203.2	
421.82	4818.2	
422.02	6085.9	
422.22	6997.2	
422.42	5631.2	
422.63	5330.2	
422.83	6243.6	
423.03	7425.9	
423.23	5345.2	
423.44	4268	
423.64	6264.1	
423.84	6083.8	
424.04	4773.1	
424.25	4455.7	
424.45	7324.9	
424.65	7320.8	
424.85	4207.9	
425.06	4885.8	
425.26	7262.1	
425.46	6189	
425.66	5431.9	
425.87	5014.8	
426.07	7034.8	
426.27	6873.7	
426.47	5121.3	
426.67	4504.2	
426.88	7421.8	
427.08	6795.2	
427.28	5378	
427.48	4470	
427.69	5729.5	
427.89	6343.9	
428.09	5414.1	
428.29	4527.4	
428.5	7089.4	
428.7	6561.7	
428.9	4396.3	
429.1	5023	
429.3	6485.2	
429.51	6923.5	
429.71	4688.5	
429.91	5511.1	
430.11	6804	
430.31	6978.8	
430.52	5031.2	
430.72	5284.4	
430.92	7391.8	
431.12	6817	
431.32	4742.4	
431.53	5160.2	
431.73	5653.8	
431.93	7461.4	
432.13	4571.7	
432.33	4478.2	
432.54	6182.8	
432.74	6588.3	
432.94	4369	
433.14	5479	
433.34	6698.2	
433.55	6151.4	
433.75	5403.9	
433.95	7169.9	
434.15	6498.9	
434.35	6122.1	
434.56	4584	
434.76	4014.7	
434.96	6451.8	
435.16	6674.3	
435.36	4396.3	
435.56	5586.9	
435.77	6053.1	
435.97	6229.2	
436.17	6253.8	
436.37	5431.9	
436.57	6026.5	
436.78	5913.9	
436.98	7239.6	
437.18	6146.6	
437.38	6674.3	
437.58	6314.6	
437.78	6253.8	
437.99	4866.7	
438.19	6789	
438.39	7901.7	
438.59	4804.5	
438.79	4325.3	
438.99	7455.3	
439.2	6319.3	
439.4	4476.9	
439.6	4384	
439.8	6587.6	
440	7742.7	
440.2	5453.7	
440.4	5542.5	
440.61	6946.7	
440.81	7511.9	
441.01	4624.3	
441.21	5460.6	
441.41	7362.4	
441.61	6933.7	
441.81	5788.2	
442.02	6873	
442.22	7864.9	
442.42	7073	
442.62	4669.4	
442.82	4743.8	
443.02	7359.7	
443.22	6420.4	
443.43	5101.5	
443.63	4646.8	
443.83	6227.2	
444.03	6281.8	
444.23	5869.5	
444.43	5479	
444.63	6544.6	
444.83	7847.1	
445.04	4684.4	
445.24	6028.5	
445.44	6914.6	
445.64	7050.5	
445.84	5590.3	
446.04	5608	
446.24	6302.3	
446.44	7389.8	
446.65	4720.6	
446.85	5147.9	
447.05	6511.2	
447.25	7327.6	
447.45	5231.2	
447.65	4623.6	
447.85	6700.3	
448.05	6324.8	
448.25	5640.8	
448.46	5532.2	
448.66	6659.3	
448.86	6369.9	
449.06	4474.8	
449.26	5754.8	
449.46	7017.7	
449.66	6017.6	
449.86	5131.5	
450.06	5229.8	
450.26	6260.6	
450.47	6854.6	
450.67	5440.8	
450.87	5754.1	
451.07	6955.6	
451.27	6730.3	
451.47	4696	
451.67	5266.7	
451.87	6296.8	
452.07	7541.3	
452.27	4931.5	
452.47	4945.2	
452.67	6703.7	
452.88	7335.8	
453.08	4302.8	
453.28	6342.6	
453.48	7847.8	
453.68	6602	
453.88	4853	
454.08	5068	
454.28	6966.5	
454.48	6684.6	
454.68	5642.2	
454.88	6214.2	
455.08	7212.3	
455.28	6872.3	
455.48	4769	
455.68	5386.8	
455.89	7576.1	
456.09	7220.5	
456.29	5035.3	
456.49	5083.7	
456.69	7462.1	
456.89	6694.1	
457.09	5596.4	
457.29	5855.8	
457.49	7002	
457.69	7083.2	
457.89	5386.2	
458.09	4745.1	
458.29	6802	
458.49	7406.1	
458.69	5784.1	
458.89	5119.2	
459.09	7720.8	
459.29	7825.3	
459.49	5261.9	
459.69	6230.6	
459.9	7224.6	
460.1	6615.6	
460.3	5211.4	
460.5	5011.4	
460.7	7253.9	
460.9	6863.4	
461.1	4627	
461.3	6025.8	
461.5	7825.3	
461.7	7421.8	
461.9	5021.6	
462.1	5571.2	
462.3	6916	
462.5	7563.8	
462.7	5158.8	
462.9	5220.3	
463.1	8547.5	
463.3	8179.6	
463.5	5306.3	
463.7	6306.4	
463.9	7053.2	
464.1	7490.8	
464.3	5473.5	
464.5	5753.4	
464.7	7828	
464.9	7307.8	
465.1	7082.6	
465.3	6087.2	
465.5	8049.2	
465.7	7961.1	
465.9	6341.9	
466.1	6169.2	
466.3	7825.3	
466.5	7638.2	
466.7	6993.1	
466.9	5888.6	
467.1	7488.1	
467.3	8585.1	
467.5	6909.8	
467.7	5672.9	
467.9	8697.7	
468.1	9528.5	
468.3	6625.2	
468.5	7018.4	
468.7	7544	
468.9	7531.1	
469.1	6081.8	
469.3	6686.6	
469.5	9583.8	
469.7	7075.7	
469.9	6518	
470.1	5790.3	
470.3	7474.4	
470.5	7413.6	
470.7	7161.7	
470.9	5864	
471.1	7262.1	
471.3	7756.3	
471.5	5732.9	
471.69	7716.1	
471.89	7079.1	
472.09	6696.2	
472.29	6552.1	
472.49	6987.7	
472.69	6873.7	
472.89	7755.7	
473.09	5583.4	
473.29	5770.5	
473.49	7008.1	
473.69	7312.6	
473.89	6718	
474.09	5891.3	
474.29	8576.2	
474.49	8262.9	
474.69	6715.3	
474.89	6171.2	
475.09	7392.5	
475.29	7290.8	
475.49	5502.9	
475.69	5810.1	
475.88	8962.6	
476.08	7494.2	
476.28	5326.8	
476.48	5930.9	
476.68	8147.5	
476.88	7947.5	
477.08	5819	
477.28	6082.5	
477.48	7449.8	
477.68	8091.5	
477.88	5539.1	
478.08	5894.7	
478.28	8347.5	
478.48	7552.2	
478.67	5978.7	
478.87	5452.4	
479.07	8201.4	
479.27	7574.1	
479.47	6288.6	
479.67	6175.3	
479.87	8069	
480.07	8572.8	
480.27	5456.5	
480.47	7156.3	
480.67	7688.8	
480.87	8321.6	
481.06	5713.8	
481.26	6522.8	
481.46	7656.7	
481.66	7518.8	
481.86	6200.6	
482.06	7234.8	
482.26	7277.1	
482.46	8512	
482.66	6176.7	
482.86	5692	
483.05	7694.9	
483.25	7086	
483.45	8630.1	
483.65	6148.7	
483.85	7281.9	
484.05	7548.8	
484.25	6620.4	
484.45	7089.4	
484.65	8486.1	
484.84	8475.2	
485.04	6052.4	
485.24	6100.9	
485.44	8721.6	
485.64	6962.4	
485.84	5336.3	
486.04	6755.6	
486.24	7372	
486.44	7799.3	
486.63	5289.2	
486.83	6050.4	
487.03	7240.3	
487.23	7529.7	
487.43	5446.9	
487.63	7898.3	
487.83	7507.2	
488.02	8570.7	
488.22	6365.1	
488.42	6993.8	
488.62	8447.2	
488.82	7385	
489.02	6079.7	
489.22	6092	
489.41	8286.1	
489.61	7892.9	
489.81	5817.6	
490.01	5853.1	
490.21	8280.6	
490.41	8871.1	
490.61	5672.2	
490.8	5816.2	
491	7581.6	
491.2	7090.8	
491.4	6492.1	
491.6	5613.5	
491.8	7719.5	
491.99	7904.5	
492.19	5567.7	
492.39	5976.7	
492.59	8255.4	
492.79	8361.2	
492.99	6824.5	
493.18	5842.9	
493.38	8390.5	
493.58	9202.2	
493.78	6576	
493.98	6206.7	
494.18	8204.2	
494.37	7481.9	
494.57	6728.3	
494.77	6625.9	
494.97	8284	
495.17	8552.3	
495.37	6182.8	
495.56	6496.8	
495.76	8728.4	
495.96	8293.6	
496.16	7471.7	
496.36	6210.1	
496.55	8413.7	
496.75	7974.1	
496.95	6679.1	
497.15	6505.7	
497.35	8435.6	
497.54	8402.8	
497.74	6440.9	
497.94	8140.7	
498.14	9144.2	
498.34	8980.3	
498.53	5970.5	
498.73	6995.2	
498.93	7796.6	
499.13	8467.7	
499.33	6628.6	
499.52	7228.6	
499.72	8350.3	
499.92	8765.3	
500.12	6346.7	
500.32	6540.5	
500.51	8649.9	
500.71	8383	
500.91	7411.6	
501.11	7008.1	
501.31	8621.3	
501.5	8965.3	
501.7	7602.1	
501.9	6561.7	
502.1	8395.3	
502.29	8652	
502.49	7030.7	
502.69	7590.5	
502.89	8656.8	
503.09	8505.2	
503.28	6057.9	
503.48	6296.1	
503.68	7711.3	
503.88	7772	
504.07	7214.3	
504.27	6704.4	
504.47	8161.2	
504.67	8389.8	
504.86	7207.5	
505.06	6830	
505.26	7887.4	
505.46	9761.3	
505.65	6718.7	
505.85	6953.5	
506.05	7783.6	
506.25	8297	
506.44	6024.4	
506.64	7060	
506.84	7737.2	
507.04	8649.3	
507.23	6274.3	
507.43	6908.5	
507.63	9779.7	
507.83	7969.3	
508.02	6886	
508.22	6412.2	
508.42	10076	
508.62	7771.4	
508.81	6683.2	
509.01	7354.9	
509.21	7671.7	
509.4	7892.2	
509.6	7011.6	
509.8	6299.6	
510	7941.3	
510.19	9448.6	
510.39	6236.1	
510.59	6386.2	
510.79	7775.5	
510.98	9112.8	
511.18	6407.4	
511.38	6567.2	
511.57	8572.1	
511.77	8373.5	
511.97	7267.6	
512.17	6153.5	
512.36	8575.5	
512.56	8528.4	
512.76	6288.6	
512.95	6057.9	
513.15	8678.6	
513.35	7292.1	
513.55	7191.8	
513.74	6324.8	
513.94	8665.6	
514.14	8018.5	
514.33	7258.7	
514.53	7120.1	
514.73	7867.6	
514.92	8212.4	
515.12	6536.4	
515.32	6356.9	
515.51	8308.6	
515.71	8927.1	
515.91	8133.2	
516.11	6406.7	
516.3	9994.1	
516.5	7851.2	
516.7	7027.9	
516.89	7576.8	
517.09	7989.1	
517.29	7862.2	
517.48	7091.4	
517.68	6631.3	
517.88	7653.9	
518.07	8404.2	
518.27	7234.1	
518.47	6176.7	
518.66	9008.3	
518.86	7505.8	
519.06	6084.5	
519.25	6576	
519.45	7881.3	
519.65	9403.6	
519.84	7114.6	
520.04	7868.3	
520.24	9752.4	
520.43	8520.2	
520.63	6799.9	
520.83	6614.9	
521.02	7778.9	
521.22	8467	
521.42	7238.2	
521.61	7791.2	
521.81	7955	
522.01	8259.5	
522.2	7074.4	
522.4	6847.7	
522.6	8802.2	
522.79	7554.3	
522.99	6935.8	
523.18	6211.5	
523.38	8548.2	
523.58	8489.5	
523.77	8189.8	
523.97	6178	
524.17	10372	
524.36	9429.5	
524.56	7724.3	
524.76	7225.9	
524.95	8463.6	
525.15	8036.2	
525.34	6956.9	
525.54	6935.1	
525.74	8791.9	
525.93	7717.4	
526.13	8080.6	
526.33	6877.8	
526.52	9000.1	
526.72	8594	
526.91	8142.7	
527.11	7507.9	
527.31	9207.7	
527.5	9555.8	
527.7	7280.5	
527.89	6241.5	
528.09	7991.2	
528.29	8600.8	
528.48	7696.9	
528.68	7391.8	
528.87	9047.9	
529.07	9040.4	
529.27	7206.1	
529.46	6561.7	
529.66	8566	
529.85	8933.2	
530.05	6484.6	
530.25	7385.7	
530.44	10064	
530.64	8554.4	
530.83	6966.5	
531.03	7307.2	
531.23	9076.6	
531.42	8895.7	
531.62	8097	
531.81	7204.8	
532.01	9162.6	
532.21	9707.4	
532.4	6887.3	
532.6	7270.3	
532.79	10046	
532.99	9198.8	
533.18	7414.3	
533.38	8389.2	
533.58	8680.7	
533.77	9511.4	
533.97	7254.6	
534.16	8146.8	
534.36	9735.4	
534.55	8731.2	
534.75	8208.3	
534.95	7371.3	
535.14	9477.3	
535.34	8645.2	
535.53	6886.6	
535.73	8945.5	
535.92	10165	
536.12	8908.7	
536.31	7049.1	
536.51	8361.9	
536.71	9276.6	
536.9	8832.2	
537.1	7305.8	
537.29	7410.2	
537.49	9709.4	
537.68	8595.3	
537.88	7811	
538.07	7055.9	
538.27	9032.9	
538.46	10052	
538.66	6917.4	
538.86	7425.9	
539.05	8944.2	
539.25	9484.1	
539.44	7645.1	
539.64	7202	
539.83	8757.8	
540.03	9854.1	
540.22	6977.4	
540.42	7268.2	
540.61	9043.8	
540.81	9213.1	
541	7752.2	
541.2	8434.9	
541.39	8612.4	
541.59	9021.3	
541.78	8032.1	
541.98	7060.7	
542.18	8200.7	
542.37	8206.2	
542.57	7550.2	
542.76	8001.4	
542.96	8298.4	
543.15	9025.4	
543.35	7590.5	
543.54	6804	
543.74	9401.5	
543.93	8915.5	
544.13	7527	
544.32	8613.8	
544.52	9328.5	
544.71	8417.8	
544.91	6589	
545.1	7896.3	
545.3	8509.3	
545.49	9252.7	
545.69	6605.4	
545.88	7181.5	
546.08	10133	
546.27	9761.3	
546.47	7775.5	
546.66	7019.1	
546.86	9381.1	
547.05	10109	
547.24	7378.8	
547.44	7120.8	
547.63	8355.7	
547.83	9534.7	
548.02	7541.3	
548.22	7658.7	
548.41	8149.6	
548.61	9582.4	
548.8	7019.1	
549	6891.4	
549.19	8853.4	
549.39	9196.1	
549.58	6746.7	
549.78	7246.4	
549.97	9301.2	
550.17	8718.9	
550.36	8224	
550.55	9208.4	
550.75	8759.8	
550.94	9654.1	
551.14	7038.2	
551.33	7418.4	
551.53	8054	
551.72	9131.2	
551.92	7495.6	
552.11	7130.3	
552.31	9246.6	
552.5	9211.1	
552.69	8911.4	
552.89	6782.2	
553.08	9075.9	
553.28	8771.5	
553.47	7328.3	
553.67	8419.9	
553.86	9903.3	
554.06	8069.7	
554.25	6329.6	
554.44	6993.1	
554.64	10679	
554.83	10112	
555.03	6972.7	
555.22	7329	
555.42	9312.1	
555.61	9106	
555.8	7193.8	
556	7514	
556.19	8160.5	
556.39	9439.8	
556.58	7225.2	
556.78	7232.7	
556.97	8942.8	
557.16	8651.3	
557.36	8543.4	
557.55	6851.8	
557.75	7905.8	
557.94	9751.7	
558.13	7009.5	
558.33	6679.8	
558.52	9473.9	
558.72	8423.3	
558.91	6849.8	
559.1	7106.5	
559.3	8130.4	
559.49	7804.8	
559.69	6400.6	
559.88	7492.2	
560.07	8949.6	
560.27	9353.8	
560.46	7692.2	
560.66	7785	
560.85	8726.4	
561.04	7894.2	
561.24	6844.3	
561.43	7012.9	
561.63	8166.6	
561.82	8419.9	
562.01	8366	
562.21	7409.6	
562.4	8928.5	
562.59	9927.9	
562.79	7245.7	
562.98	6855.9	
563.18	8827.4	
563.37	10345	
563.56	7689.4	
563.76	6711.2	
563.95	8318.2	
564.14	8196	
564.34	7228.6	
564.53	6950.8	
564.73	8851.3	
564.92	9192	
565.11	7315.3	
565.31	6678.4	
565.5	9395.4	
565.69	8324.3	
565.89	6908.5	
566.08	7194.5	
566.27	9189.9	
566.47	9688.9	
566.66	7901.7	
566.85	6459.3	
567.05	8828.1	
567.24	8189.8	
567.44	6878.4	
567.63	8249.9	
567.82	9067	
568.02	8841.8	
568.21	6816.3	
568.4	7202	
568.6	8665	
568.79	8736	
568.98	6674.3	
569.18	6872.3	
569.37	8630.8	
569.56	10651	
569.76	7068.2	
569.95	8174.8	
570.14	9007.6	
570.34	8940.7	
570.53	6647.7	
570.72	6647	
570.91	9429.5	
571.11	8477.2	
571.3	7113.3	
571.49	8146.1	
571.69	8516.8	
571.88	8286.8	
572.07	7696.3	
572.27	7709.9	
572.46	8204.8	
572.65	9367.4	
572.85	6922.8	
573.04	7234.8	
573.23	9540.8	
573.43	8824.7	
573.62	6668.9	
573.81	7343.3	
574	8798.8	
574.2	8503.8	
574.39	7054.6	
574.58	7271	
574.78	9572.9	
574.97	8755.1	
575.16	7571.3	
575.36	7776.8	
575.55	9186.5	
575.74	9341.5	
575.93	6563.7	
576.13	7763.8	
576.32	8581.7	
576.51	9228.8	
576.71	7101.7	
576.9	8480	
577.09	9580.4	
577.28	9046.6	
577.48	7657.4	
577.67	6527.6	
577.86	8765.3	
578.05	9074.5	
578.25	7298.3	
578.44	7318.1	
578.63	8776.9	
578.83	9973.6	
579.02	6638.8	
579.21	8152.3	
579.4	8970.8	
579.6	8756.4	
579.79	7534.5	
579.98	9759.3	
580.17	9374.9	
580.37	9405	
580.56	6982.9	
580.75	7707.2	
580.94	10088	
581.14	9756.5	
581.33	8191.9	
581.52	7037.5	
581.71	9303.2	
581.91	9987.3	
582.1	6777.4	
582.29	7447.1	
582.48	8949.6	
582.68	8918.9	
582.87	7965.9	
583.06	7589.8	
583.25	9239.8	
583.45	9015.2	
583.64	8203.5	
583.83	9020.6	
584.02	8724.3	
584.21	9237.7	
584.41	8212.4	
584.6	7494.2	
584.79	8877.3	
584.98	9795.4	
585.18	6853.2	
585.37	6969.2	
585.56	8435.6	
585.75	9381.7	
585.94	7093.5	
586.14	7791.2	
586.33	9858.9	
586.52	8857.5	
586.71	7628	
586.91	7301	
587.1	8239	
587.29	9256.1	
587.48	7329.7	
587.67	7148.1	
587.87	9140.1	
588.06	9184.5	
588.25	8366	
588.44	7720.2	
588.63	8716.8	
588.83	9299.8	
589.02	6959.7	
589.21	6869.6	
589.4	8290.9	
589.59	8112	
589.78	6026.5	
589.98	6343.2	
590.17	7819.1	
590.36	8393.3	
590.55	5760.9	
590.74	6722.8	
590.94	9843.2	
591.13	8372.8	
591.32	6449.7	
591.51	6106.4	
591.7	8946.9	
591.89	8437.6	
592.09	6198.5	
592.28	6709.8	
592.47	7636.9	
592.66	9517.6	
592.85	6207.4	
593.05	6525.5	
593.24	8290.9	
593.43	9167.4	
593.62	6521.4	
593.81	7034.1	
594	8311.3	
594.19	8542.1	
594.39	6365.1	
594.58	6268.1	
594.77	8554.4	
594.96	9218.6	
595.15	6328.9	
595.34	6906.4	
595.54	8681.3	
595.73	7749.5	
595.92	5713.2	
596.11	6957.6	
596.3	9213.1	
596.49	7832.1	
596.68	6761	
596.88	7267.6	
597.07	8965.3	
597.26	7733.1	
597.45	6163	
597.64	7506.5	
597.83	8046.5	
598.02	8692.9	
598.22	6352.8	
598.41	7040.2	
598.6	8456.1	
598.79	7851.9	
598.98	6347.3	
599.17	7401.4	
599.36	8475.2	
599.55	9676	
599.74	8591.9	
599.94	8374.8	
600.13	9040.4	
600.32	7877.2	
600.51	6246.3	
600.7	6370.5	
600.89	9747.6	
601.08	9815.2	
601.27	6114.6	
601.47	7212.9	
601.66	9014.5	
601.85	9711.5	
602.04	6868.9	
602.23	7148.1	
602.42	8045.1	
602.61	8702.5	
602.8	6822.5	
602.99	6602.7	
603.18	8484.1	
603.37	8695	
603.57	7245	
603.76	7854	
603.95	9537.4	
604.14	9021.3	
604.33	6590.4	
604.52	7037.5	
604.71	8618.5	
604.9	8368	
605.09	7591.8	
605.28	7405.5	
605.47	9314.2	
605.66	8924.4	
605.86	7340.6	
606.05	6665.5	
606.24	9277.3	
606.43	7842.4	
606.62	7024.5	
606.81	7799.3	
607	9095	
607.19	8424.7	
607.38	6498.9	
607.57	6662	
607.76	8256.7	
607.95	7640.3	
608.14	7025.9	
608.33	7652.6	
608.52	8204.2	
608.72	9138.7	
608.91	6266.8	
609.1	6221.7	
609.29	8304.5	
609.48	7789.8	
609.67	7325.6	
609.86	6377.4	
610.05	7936.6	
610.24	8247.9	
610.43	6193.1	
610.62	5876.3	
610.81	9540.1	
611	9182.4	
611.19	6365.1	
611.38	7093.5	
611.57	8569.4	
611.76	9997.5	
611.95	6126.2	
612.14	6039.5	
612.33	8405.5	
612.52	7868.3	
612.71	6689.3	
612.9	5886.5	
613.09	7550.9	
613.28	9891	
613.47	6352.1	
613.66	7436.9	
613.85	8468.4	
614.04	7993.2	
614.24	6574	
614.43	5724.1	
614.62	8622.6	
614.81	8534.6	
615	7177.4	
615.19	7113.3	
615.38	7914.7	
615.57	8298.4	
615.76	7023.2	
615.95	7952.9	
616.14	8666.3	
616.33	8297.7	
616.52	7245.7	
616.71	7583.6	
616.9	8605.6	
617.09	8455.4	
617.28	6666.8	
617.47	8025.3	
617.66	7836.9	
617.85	7858.1	
618.04	7567.2	
618.22	7055.9	
618.41	8053.3	
618.6	8993.3	
618.79	6881.9	
618.98	6616.3	
619.17	9368.8	
619.36	7580.2	
619.55	6760.3	
619.74	6868.9	
619.93	8669.7	
620.12	7982.3	
620.31	7312.6	
620.5	7583.6	
620.69	9170.1	
620.88	9536	
621.07	8304.5	
621.26	7262.1	
621.45	8779	
621.64	8753	
621.83	7376.1	
622.02	6507.8	
622.21	8795.3	
622.4	8544.1	
622.59	7920.2	
622.78	7618.4	
622.97	8087.4	
623.16	9254.8	
623.35	7253.9	
623.54	6368.5	
623.72	8379.6	
623.91	8485.4	
624.1	7600	
624.29	6173.3	
624.48	9588.6	
624.67	8835.6	
624.86	7447.8	
625.05	6450.4	
625.24	9667.1	
625.43	8066.9	
625.62	9245.9	
625.81	6692.1	
626	9106.6	
626.19	8386.4	
626.38	7483.3	
626.56	6812.9	
626.75	8130.4	
626.94	8727.8	
627.13	7389.8	
627.32	6083.1	
627.51	8833.6	
627.7	10291	
627.89	6079.1	
628.08	7471	
628.27	7991.2	
628.46	8172.1	
628.65	6577.4	
628.83	6186.9	
629.02	8850	
629.21	8051.2	
629.4	7083.2	
629.59	7208.2	
629.78	8042.4	
629.97	9092.3	
630.16	7277.8	
630.35	6769.2	
630.54	9484.8	
630.72	9265.7	
630.91	6698.2	
631.1	7337.9	
631.29	8615.8	
631.48	8880.7	
631.67	7461.4	
631.86	6937.2	
632.05	8247.9	
632.24	8290.9	
632.42	6500.3	
632.61	7069.6	
632.8	8471.8	
632.99	8068.3	
633.18	7154.2	
633.37	7554.3	
633.56	8624.7	
633.75	8409	
633.93	7144.7	
634.12	6806.1	
634.31	9493	
634.5	9075.9	
634.69	6916	
634.88	7431.4	
635.07	8432.2	
635.25	9037	
635.44	7845.1	
635.63	8084	
635.82	8342.7	
636.01	7854.6	
636.2	7767.3	
636.39	7321.5	
636.57	9493	
636.76	9180.4	
636.95	6721.4	
637.14	8155.7	
637.33	8808.3	
637.52	9778.4	
637.7	6563.1	
637.89	7574.1	
638.08	8443.1	
638.27	9838.4	
638.46	7580.9	
638.65	8017.8	
638.83	9883.5	
639.02	8194.6	
639.21	7348.1	
639.4	7881.9	
639.59	8692.3	
639.78	8241	
639.96	6802	
640.15	6688	
640.34	8566	
640.53	8668.4	
640.72	6412.2	
640.91	6819.1	
641.09	7978.9	
641.28	9394.7	
641.47	6794.5	
641.66	7615.7	
641.85	8669.7	
642.03	8961.2	
642.22	7416.4	
642.41	7031.4	
642.6	8074.5	
642.79	7449.1	
642.97	6639.5	
643.16	7486	
643.35	8054.7	
643.54	7878.5	
643.73	6578.1	
643.91	7363.1	
644.1	7598	
644.29	8279.9	
644.48	6608.8	
644.67	6617	
644.85	7767.3	
645.04	8092.2	
645.23	6095.4	
645.42	6429.9	
645.6	7531.7	
645.79	8852	
645.98	6420.4	
646.17	5410.7	
646.36	7372	
646.54	8030.1	
646.73	7226.6	
646.92	5953.4	
647.11	7606.8	
647.29	8718.2	
647.48	6049	
647.67	5809.4	
647.86	8902.5	
648.05	8948.9	
648.23	6421.1	
648.42	7885.4	
648.61	8365.3	
648.8	8132.5	
648.98	6219.7	
649.17	6500.9	
649.36	7667.6	
649.55	7228	
649.73	6146.6	
649.92	6845.7	
650.11	7475.8	
650.3	7914	
650.48	6250.4	
650.67	5976	
650.86	8221.9	
651.05	7075.7	
651.23	6320.7	
651.42	6278.4	
651.61	7597.3	
651.79	7772	
651.98	6492.7	
652.17	6046.3	
652.36	8096.3	
652.54	7174	
652.73	6109.1	
652.92	5949.3	
653.11	8094.9	
653.29	8142.7	
653.48	5308.3	
653.67	6351.4	
653.85	7807.5	
654.04	8939.4	
654.23	6542.6	
654.42	5938.4	
654.6	7279.2	
654.79	7921.5	
654.98	5573.2	
655.16	6191	
655.35	7059.3	
655.54	6934.4	
655.73	5714.5	
655.91	5674.2	
656.1	8236.9	
656.29	7010.2	
656.47	5236.7	
656.66	7036.1	
656.85	7219.1	
657.03	7325.6	
657.22	5862	
657.41	5842.2	
657.59	7391.8	
657.78	7124.9	
657.97	5560.2	
658.16	6268.8	
658.34	8035.5	
658.53	8460.2	
658.72	7241.6	
658.9	7683.3	
659.09	7479.9	
659.28	7595.9	
659.46	6105.7	
659.65	5944.6	
659.84	7341.3	
660.02	7836.2	
660.21	5782.8	
660.4	5795.1	
660.58	8289.5	
660.77	7649.2	
660.96	6496.8	
661.14	5445.5	
661.33	8753.7	
661.52	8663.6	
661.7	5362.3	
661.89	9291	
662.08	7146	
662.26	6731.7	
662.45	5631.9	
662.64	5844.9	
662.82	7886.7	
663.01	7058.7	
663.2	5880.4	
663.38	6578.1	
663.57	7815	
663.75	7690.8	
663.94	6165.8	
664.13	7558.4	
664.31	7141.3	
664.5	7894.2	
664.69	6546	
664.87	7071.6	
665.06	6976.1	
665.25	7726.3	
665.43	7141.9	
665.62	7305.8	
665.8	7969.3	
665.99	7326.3	
666.18	6184.2	
666.36	6318	
666.55	7990.5	
666.74	7882.6	
666.92	5737	
667.11	7497.6	
667.29	7341.3	
667.48	7955.7	
667.67	7036.8	
667.85	6111.1	
668.04	7355.6	
668.22	7278.5	
668.41	6240.2	
668.6	6324.1	
668.78	7107.1	
668.97	7372.7	
669.15	6608.1	
669.34	5504.3	
669.53	7153.6	
669.71	7502.4	
669.9	5734.3	
670.08	6305.7	
670.27	7221.8	
670.46	7700.4	
670.64	6593.8	
670.83	6896.2	
671.01	6991.1	
671.2	7699.7	
671.38	5778.7	
671.57	5638.1	
671.76	8313.4	
671.94	8879.3	
672.13	5554.8	
672.31	6854.6	
672.5	7914.7	
672.69	6948.1	
672.87	5745.2	
673.06	6093.4	
673.24	7660.8	
673.43	7248.4	
673.61	6635.4	
673.8	6143.2	
673.98	7874.4	
674.17	8051.2	
674.36	6724.2	
674.54	6565.8	
674.73	7652.6	
674.91	7930.4	
675.1	6262	
675.28	5917.3	
675.47	7446.4	
675.65	8038.3	
675.84	6146	
676.03	6445	
676.21	7105.8	
676.4	6723.5	
676.58	6869.6	
676.77	6681.8	
676.95	8699.1	
677.14	7110.5	
677.32	5835.3	
677.51	5524.1	
677.69	7901.7	
677.88	6786.3	
678.06	5687.9	
678.25	5816.9	
678.44	7516.7	
678.62	7200	
678.81	5424.4	
678.99	6472.9	
679.18	8285.4	
679.36	7800.7	
679.55	6045.6	
679.73	6706.4	
679.92	7780.2	
680.1	7226.6	
680.29	7373.4	
680.47	6092.7	
680.66	7163.1	
680.84	7925	
681.03	5317.2	
681.21	6406	
681.4	7147.4	
681.58	7049.8	
681.77	5780.1	
681.95	5686.5	
682.14	7971.4	
682.32	8396	
682.51	6731	
682.69	5487.2	
682.88	7155.6	
683.06	7773.4	
683.25	6373.3	
683.43	6825.2	
683.62	7380.2	
683.8	7762.5	
683.99	6780.8	
684.17	6022.4	
684.36	8456.1	
684.54	7008.1	
684.73	5128.8	
684.91	5403.2	
685.1	7297.6	
685.28	6850.5	
685.46	6015.6	
685.65	6128.2	
685.83	7699	
686.02	7143.3	
686.2	5640.8	
686.39	5776	
686.57	6695.5	
686.76	8437.6	
686.94	5620.3	
687.13	5743.2	
687.31	7628.7	
687.5	7152.2	
687.68	5221.6	
687.86	6520.7	
688.05	8867	
688.23	6617	
688.42	6570.6	
688.6	5668.8	
688.79	7045.7	
688.97	6948.8	
689.16	6029.2	
689.34	4956.8	
689.52	7822.6	
689.71	7969.3	
689.89	6307.1	
690.08	5558.2	
690.26	7268.2	
690.45	7079.1	
690.63	6486.6	
690.81	5798.5	
691	6894.1	
691.18	6830	
691.37	5908.4	
691.55	8185	
691.74	6851.8	
691.92	8964.6	
692.1	6016.2	
692.29	5342.5	
692.47	7107.1	
692.66	6397.9	
692.84	5624.4	
693.02	6247	
693.21	6515.3	
693.39	7047.7	
693.58	6367.8	
693.76	5721.3	
693.94	8384.4	
694.13	8235.6	
694.31	5740.5	
694.5	6840.9	
694.68	6990.4	
694.86	7323.5	
695.05	6045.6	
695.23	6507.1	
695.42	7670.3	
695.6	10072	
695.78	6608.8	
695.97	5674.9	
696.15	7615	
696.34	7024.5	
696.52	5461.2	
696.7	6300.2	
696.89	7303.1	
697.07	6761.7	
697.25	6122.7	
697.44	7821.9	
697.62	7344	
697.81	7715.4	
697.99	5869.5	
698.17	6429.3	
698.36	6664.1	
698.54	7335.1	
698.72	6275	
698.91	5276.9	
699.09	6895.5	
699.28	6831.3	
699.46	5939.8	
699.64	5786.2	
699.83	6693.4	
700.01	8024.6	
700.19	6667.5	
700.38	5119.9	
700.56	8074.5	
700.74	6920.1	
700.93	5563	
701.11	6296.1	
701.29	7527	
701.48	8565.3	
701.66	5692	
701.84	5726.1	
702.03	7003.4	
702.21	7690.8	
702.39	5247.6	
702.58	5864.7	
702.76	7419.1	
702.94	7527.7	
703.13	5274.2	
703.31	7701.7	
703.49	6677.1	
703.68	7663.5	
703.86	5399.8	
704.04	6505	
704.23	7316	
704.41	7669	
704.59	5588.2	
704.78	6905.1	
704.96	8459.5	
705.14	7722.2	
705.33	5373.9	
705.51	6288.6	
705.69	7139.9	
705.87	7957	
706.06	6505.7	
706.24	5367	
706.42	7395.2	
706.61	7742.7	
706.79	6677.1	
706.97	5375.9	
707.16	6867.5	
707.34	7478.5	
707.52	6592.4	
707.7	5632.6	
707.89	6977.4	
708.07	6766.5	
708.25	6551.5	
708.44	6623.1	
708.62	7001.3	
708.8	8170.7	
708.98	6759	
709.17	5776.6	
709.35	7346.1	
709.53	7383.6	
709.72	5425.8	
709.9	5556.8	
710.08	7605.5	
710.26	7591.8	
710.45	7089.4	
710.63	5741.1	
710.81	7326.3	
710.99	7309.2	
711.18	6389	
711.36	5832.6	
711.54	7041.6	
711.72	7829.4	
711.91	5950.7	
712.09	5318.6	
712.27	7159.7	
712.45	8307.9	
712.64	6068.8	
712.82	5005.9	
713	6567.2	
713.18	6635.4	
713.37	5107.6	
713.55	6328.9	
713.73	7451.9	
713.91	6029.9	
714.1	5391.6	
714.28	4838	
714.46	7027.3	
714.64	6336.4	
714.83	4338.3	
715.01	5261.9	
715.19	6414.9	
715.37	5864.7	
715.55	4886.5	
715.74	5213.4	
715.92	7402	
716.1	5431.9	
716.28	6443.6	
716.47	5452.4	
716.65	6122.1	
716.83	6185.5	
717.01	5350	
717.19	5464.7	
717.38	8402.8	
717.56	5958.2	
717.74	5717.9	
717.92	4809.3	
718.1	7297.6	
718.29	6568.5	
718.47	4472.1	
718.65	5144.5	
718.83	7068.9	
719.01	6993.1	
719.2	4263.9	
719.38	5340.4	
719.56	6653.2	
719.74	8219.9	
719.92	4848.9	
720.11	5980.8	
720.29	6633.4	
720.47	5739.1	
720.65	4403.1	
720.83	5319.3	
721.02	6140.5	
721.2	5932.3	
721.38	5335	
721.56	4572.4	
721.74	5470.8	
721.92	5749.3	
722.11	5863.3	
722.29	5551.4	
722.47	6937.8	
722.65	6062	
722.83	4607.9	
723.01	5553.4	
723.2	6195.1	
723.38	6423.1	
723.56	4078.9	
723.74	5238.7	
723.92	5653.8	
724.1	6865.5	
724.29	4603.8	
724.47	5760.3	
724.65	5679.7	
724.83	5716.6	
725.01	4524.6	
725.19	5430.5	
725.37	5752.1	
725.56	5853.1	
725.74	4351.3	
725.92	4597.7	
726.1	5670.1	
726.28	5959.6	
726.46	5025.7	
726.64	4819.6	
726.83	5894.1	
727.01	6232.7	
727.19	4284.4	
727.37	5210	
727.55	6054.5	
727.73	6683.9	
727.91	4320.5	
728.09	4163.5	
728.28	6736.5	
728.46	7395.9	
728.64	5378	
728.82	5328.8	
729	7873.8	
729.18	7118.7	
729.36	4502.1	
729.54	6956.9	
729.72	8168	
729.91	6412.2	
730.09	6505	
730.27	5229.8	
730.45	6314.6	
730.63	7015.7	
730.81	5883.1	
730.99	4939.7	
731.17	7534.5	
731.35	5980.1	
731.53	5420.3	
731.71	5010.7	
731.9	7248.4	
732.08	7384.3	
732.26	5279	
732.44	4894.6	
732.62	7441	
732.8	6892.8	
732.98	5756.8	
733.16	4773.1	
733.34	6941.9	
733.52	5682.4	
733.7	5346.6	
733.88	5613.5	
734.07	6731.7	
734.25	6474.3	
734.43	4749.9	
734.61	6457.2	
734.79	8099.7	
734.97	6376	
735.15	4938.3	
735.33	5296	
735.51	6796.5	
735.69	6386.9	
735.87	6536.4	
736.05	5517.2	
736.23	6647	
736.41	6426.5	
736.59	5327.4	
736.77	5432.6	
736.95	7122.2	
737.13	6492.7	
737.32	5010	
737.5	5278.3	
737.68	7699	
737.86	6432	
738.04	4803.9	
738.22	6867.5	
738.4	6328.2	
738.58	6562.4	
738.76	5522	
738.94	4437.3	
739.12	6438.1	
739.3	6284.5	
739.48	6256.5	
739.66	5939.1	
739.84	6702.3	
740.02	6721.4	
740.2	4507.6	
740.38	4958.8	
740.56	7066.9	
740.74	5922.7	
740.92	5681.7	
741.1	5583.4	
741.28	6562.4	
741.46	6389.7	
741.64	5219.6	
741.82	5741.8	
742	6568.5	
742.18	6594.5	
742.36	5421.7	
742.54	5005.9	
742.72	7208.2	
742.9	5861.3	
743.08	5820.3	
743.26	4585.4	
743.44	7355.6	
743.62	7140.6	
743.8	6000.5	
743.98	4974.5	
744.16	6931	
744.34	6687.3	
744.52	5910.4	
744.7	5830.6	
744.88	7103.7	
745.06	6643.6	
745.24	5969.8	
745.42	6083.8	
745.6	7229.3	
745.78	6951.5	
745.96	4769.7	
746.14	5079	
746.32	7966.6	
746.5	7203.4	
746.68	5717.2	
746.86	5190.2	
747.03	7694.2	
747.21	5938.4	
747.39	5739.8	
747.57	5142.4	
747.75	6860	
747.93	7221.1	
748.11	5109	
748.29	5018.2	
748.47	8411	
748.65	6533	
748.83	5885.9	
749.01	5604.6	
749.19	7050.5	
749.37	6201.2	
749.55	5453.1	
749.73	5529.5	
749.91	6703	
750.09	6424.5	
750.26	5581.4	
750.44	5066.7	
750.62	6773.3	
750.8	6743.3	
750.98	4818.9	
751.16	5177.3	
751.34	6808.1	
751.52	6178	
751.7	5971.2	
751.88	4853	
752.06	7346.1	
752.24	7137.9	
752.42	4820.2	
752.59	5180.7	
752.77	6739.2	
752.95	7999.4	
753.13	6005.3	
753.31	5346.6	
753.49	6391	
753.67	6937.8	
753.85	5520.6	
754.03	5235.3	
754.21	7138.5	
754.38	7536.5	
754.56	5368.4	
754.74	4414.1	
754.92	6401.3	
755.1	7058.7	
755.28	4280.3	
755.46	4214	
755.64	7559.1	
755.82	7615.7	
755.99	4375.8	
756.17	4471.4	
756.35	4963.6	
756.53	6653.9	
756.71	3323.2	
756.89	4269.3	
757.07	6210.1	
757.25	5306.3	
757.42	4924	
757.6	5874.9	
757.78	6496.2	
757.96	5270.8	
758.14	4708.3	
758.32	4115.7	
758.5	4886.5	
758.67	5692.7	
758.85	4354.7	
759.03	4523.3	
759.21	5871.5	
759.39	5358.9	
759.57	3992.2	
759.75	5244.8	
759.92	6577.4	
760.1	5786.2	
760.28	5569.8	
760.46	5864	
760.64	5661.3	
760.82	5461.2	
760.99	5526.8	
761.17	4643.4	
761.35	6598.6	
761.53	5550	
761.71	4851	
761.89	5573.2	
762.06	6551.5	
762.24	6030.6	
762.42	5036.6	
762.6	4792.9	
762.78	6068.1	
762.96	6786.3	
763.13	5383.4	
763.31	5088.5	
763.49	6983.6	
763.67	6089.3	
763.85	6066.1	
764.02	6617.7	
764.2	7193.8	
764.38	6436.1	
764.56	4919.2	
764.74	5922	
764.91	7400	
765.09	6158.9	
765.27	4690.5	
765.45	4476.2	
765.63	7517.4	
765.8	7307.8	
765.98	4223.6	
766.16	4560.8	
766.34	5801.2	
766.52	5550	
766.69	5577.3	
766.87	4369.7	
767.05	6222.4	
767.23	6956.9	
767.41	4709	
767.58	4986.1	
767.76	6850.5	
767.94	6898.2	
768.12	4797	
768.29	5615.5	
768.47	6254.5	
768.65	7077.1	
768.83	4427	
769	5670.1	
769.18	5762.3	
769.36	6622.4	
769.54	5342.5	
769.72	4418.8	
769.89	6842.9	
770.07	7002	
770.25	4782	
770.43	6090.7	
770.6	7593.2	
770.78	8032.1	
770.96	4959.5	
771.14	5582.1	
771.31	6720.8	
771.49	6025.1	
771.67	4042.7	
771.85	4392.2	
772.02	5303.6	
772.2	6062	
772.38	5083.7	
772.55	4577.9	
772.73	6294.1	
772.91	6045.6	
773.09	4984.1	
773.26	5033.9	
773.44	6243.6	
773.62	5922.7	
773.8	4502.8	
773.97	4173.8	
774.15	6320	
774.33	5917.9	
774.5	4317.8	
774.68	4688.5	
774.86	6563.1	
775.04	5924.8	
775.21	4451.6	
775.39	4405.9	
775.57	6182.1	
775.74	6631.3	
775.92	4227	
776.1	4197.7	
776.27	6148.7	
776.45	7487.4	
776.63	4377.9	
776.81	3898	
776.98	5777.3	
777.16	6946	
777.34	4461.8	
777.51	4865.3	
777.69	5788.9	
777.87	5528.8	
778.04	4496	
778.22	5236.7	
778.4	5556.8	
778.57	6266.1	
778.75	3723.2	
778.93	4057.7	
779.1	5307	
779.28	5200.5	
779.46	3760.1	
779.64	4255	
779.81	6374.6	
779.99	7233.4	
780.17	5036	
780.34	5245.5	
780.52	5811.5	
780.69	6030.6	
780.87	4528.7	
781.05	4139.6	
781.22	5878.4	
781.4	5942.5	
781.58	4263.2	
781.75	3471.3	
781.93	5885.2	
782.11	5277.6	
782.28	5255.8	
782.46	4248.2	
782.64	5116.5	
782.81	6156.9	
782.99	4313	
783.17	4334.9	
783.34	5897.5	
783.52	5081.7	
783.69	4509.6	
783.87	5345.9	
784.05	5146.5	
784.22	5177.3	
784.4	5321.3	
784.58	4644.1	
784.75	6182.1	
784.93	5204.6	
785.1	4270	
785.28	4917.2	
785.46	5958.2	
785.63	5237.3	
785.81	4180.6	
785.99	4011.3	
786.16	5315.8	
786.34	5812.1	
786.51	4107.5	
786.69	4517.1	
786.87	4926	
787.04	5424.4	
787.22	3509.5	
787.39	4921.3	
787.57	5193.6	
787.75	6365.8	
787.92	5072.1	
788.1	5050.3	
788.27	5237.3	
788.45	4905.6	
788.63	4713.7	
788.8	3424.2	
788.98	5573.2	
789.15	4861.2	
789.33	3477.5	
789.5	4248.9	
789.68	6133	
789.86	6269.5	
790.03	4702.8	
790.21	4075.5	
790.38	6184.2	
790.56	5300.8	
790.73	3867.2	
790.91	3882.3	
791.09	5157.5	
791.26	5945.3	
791.44	4143.7	
791.61	3622.2	
791.79	5164.3	
791.96	5250.3	
792.14	3702.7	
792.32	3338.2	
792.49	5203.2	
792.67	5261.9	
792.84	3756.7	
793.02	3588.7	
793.19	5606.7	
793.37	6351.4	
793.54	3296.5	
793.72	3661.8	
793.89	6522.8	
794.07	5150.6	
794.25	4281.6	
794.42	3347.7	
794.6	6266.8	
794.77	5885.2	
794.95	4567.7	
795.12	3977.8	
795.3	5106.3	
795.47	5838.1	
795.65	4337.6	
795.82	4209.9	
796	4950.6	
796.17	6980.2	
796.35	4117.1	
796.52	4809.3	
796.7	5673.6	
796.87	5810.8	
797.05	5076.2	
797.22	4944.5	
797.4	5773.9	
797.57	6789	
797.75	4184	
797.92	3940.3	
798.1	6105	
798.27	5089.9	
798.45	3378.5	
798.62	3629.7	
798.8	5461.9	
798.97	6008.1	
799.15	4507.6	
799.32	4225.6	
799.5	4693.9	
799.67	5464.7	
799.85	4592.2	
800.02	3267.2	
800.2	5081.7	
800.37	5474.2	
800.55	4735.6	
800.72	3986.7	
800.9	5874.9	
801.07	6358.3	
801.25	5332.9	
801.42	4358.1	
801.6	5941.2	
801.77	5635.3	
801.95	3900.7	
802.12	3880.2	
802.29	5662.6	
802.47	5713.2	
802.64	4276.8	
802.82	3198.2	
802.99	5076.2	
803.17	6140.5	
803.34	4128	
803.52	3734.1	
803.69	6798.6	
803.87	4897.4	
804.04	4187.4	
804.21	4308.9	
804.39	6170.5	
804.56	5336.3	
804.74	3521.1	
804.91	4319.8	
805.09	5141.8	
805.26	5236.7	
805.44	3619.4	
805.61	3937.6	
805.78	5801.2	
805.96	5814.9	
806.13	4354	
806.31	4673.5	
806.48	4640.7	
806.66	5184.1	
806.83	4320.5	
807	4308.9	
807.18	5082.4	
807.35	5529.5	
807.53	4204.5	
807.7	3331.4	
807.87	6298.2	
808.05	5170.4	
808.22	4642.7	
808.4	3371.6	
808.57	5177.3	
808.74	4800.4	
808.92	3821.5	
809.09	4907.6	
809.27	4994.3	
809.44	5636	
809.61	3394.8	
809.79	3774.4	
809.96	6391.7	
810.14	5980.1	
810.31	3291.8	
810.48	4019.5	
810.66	5246.9	
810.83	5949.3	
811.01	3823.6	
811.18	4580.6	
811.35	5966.4	
811.53	4569.7	
811.7	4698.7	
811.87	4341.7	
812.05	5161.6	
812.22	5050.3	
812.39	3747.1	
812.57	3602.4	
812.74	5157.5	
812.92	6987	
813.09	4067.3	
813.26	4442.7	
813.44	6597.9	
813.61	5076.2	
813.78	3388	
813.96	4583.4	
814.13	5134.3	
814.3	4810	
814.48	4898.1	
814.65	4032.5	
814.82	6440.9	
815	4897.4	
815.17	4149.9	
815.34	5167	
815.52	5063.3	
815.69	5051	
815.87	4134.8	
816.04	3535.5	
816.21	5141.1	
816.38	4481.6	
816.56	3986.7	
816.73	3724.6	
816.9	6603.3	
817.08	5920.7	
817.25	3778.5	
817.42	4728.8	
817.6	4699.4	
817.77	5151.3	
817.94	4263.9	
818.12	3693.9	
818.29	4881	
818.46	7813.7	
818.64	3830.4	
818.81	3605.8	
818.98	4807.9	
819.16	7066.2	
819.33	4453	
819.5	4186	
819.67	5563.6	
819.85	6281.1	
820.02	4074.8	
820.19	4330.8	
820.37	5369.1	
820.54	4901.5	
820.71	4200.4	
820.88	5284.4	
821.06	5434.6	
821.23	4917.9	
821.4	4215.4	
821.58	4229.1	
821.75	5939.8	
821.92	5280.3	
822.09	3355.9	
822.27	3699.3	
822.44	5180	
822.61	5041.4	
822.79	3385.3	
822.96	6651.8	
823.13	5679	
823.3	4906.3	
823.48	3923.2	
823.65	3577.1	
823.82	5902.2	
823.99	4641.4	
824.17	5020.9	
824.34	3559.4	
824.51	6789	
824.68	5186.1	
824.86	3786.7	
825.03	4270.7	
825.2	5071.5	
825.37	6290	
825.55	3658.4	
825.72	4114.4	
825.89	6909.8	
826.06	6402.6	
826.24	4024.3	
826.41	4078.9	
826.58	6297.5	
826.75	5473.5	
826.92	3184.6	
827.1	3503.4	
827.27	8714.8	
827.44	6880.5	
827.61	3848.1	
827.79	4693.3	
827.96	4919.2	
828.13	5271.5	
828.3	4006.5	
828.47	3434.4	
828.65	5384.8	
828.82	5281	
828.99	5203.9	
829.16	4629.1	
829.34	5783.5	
829.51	5504.3	
829.68	4201.1	
829.85	4361.5	
830.02	6050.4	
830.2	5806	
830.37	3170.3	
830.54	5079	
830.71	6634.7	
830.88	5162.2	
831.05	3246.7	
831.23	3785.3	
831.4	6346	
831.57	7114.6	
831.74	3818.1	
831.91	3362.1	
832.09	5371.8	
832.26	5783.5	
832.43	3971.7	
832.6	4506.9	
832.77	5427.8	
832.94	6189.6	
833.12	3163.4	
833.29	3945.8	
833.46	5548.6	
833.63	7417.7	
833.8	4341	
833.97	4115.7	
834.15	5808.7	
834.32	5593	
834.49	4170.3	
834.66	4276.8	
834.83	6053.1	
835	4861.9	
835.17	3878.9	
835.35	3886.4	
835.52	5681.1	
835.69	5518.6	
835.86	4117.1	
836.03	3360.7	
836.2	5705	
836.37	5339.7	
836.55	4004.5	
836.72	3773.7	
836.89	5324	
837.06	5801.9	
837.23	4100	
837.4	4446.1	
837.57	6614.9	
837.75	7350.8	
837.92	3594.2	
838.09	3914.4	
838.26	5289.2	
838.43	6076.3	
838.6	4227	
838.77	3817.4	
838.94	6985.6	
839.11	6670.9	
839.29	4005.8	
839.46	3125.9	
839.63	5726.8	
839.8	5496.7	
839.97	3896.6	
840.14	3917.1	
840.31	5535	
840.48	5779.4	
840.65	3225.6	
840.82	3786	
841	5744.6	
841.17	5696.8	
841.34	3623.5	
841.51	3622.2	
841.68	5636	
841.85	5377.3	
842.02	3748.5	
842.19	3065.8	
842.36	5486.5	
842.53	5462.6	
842.7	3549.1	
842.87	4375.1	
843.05	7275.1	
843.22	5403.9	
843.39	3384.6	
843.56	3646.1	
843.73	5230.5	
843.9	5785.5	
844.07	5851.7	
844.24	4817.5	
844.41	8528.4	
844.58	4964.3	
844.75	3497.9	
844.92	3785.3	
845.09	5823.7	
845.26	5707.7	
845.43	3497.2	
845.6	3799	
845.77	5709.1	
845.94	5494.7	
846.12	3921.2	
846.29	4194.9	
846.46	5914.5	
846.63	5763.7	
846.8	3601.7	
846.97	4244.1	
847.14	6267.5	
847.31	5652.4	
847.48	3999	
847.65	4432.5	
847.82	6055.2	
847.99	5997.8	
848.16	4758.8	
848.33	4435.9	
848.5	5259.9	
848.67	6298.9	
848.84	3521.8	
849.01	3732.8	
849.18	5115.8	
849.35	4786.8	
849.52	4511.7	
849.69	3495.2	
849.86	5964.4	
850.03	6128.2	
850.2	3566.9	
850.37	4452.3	
850.54	6093.4	
850.71	5428.5	
850.88	4302.1	
851.05	3490.4	
851.22	5683.8	
851.39	6368.5	
851.56	3375.7	
851.73	4088.4	
851.9	5068	
852.07	6008.7	
852.24	3971.7	
852.41	3571.7	
852.58	5552.7	
852.75	5113.8	
852.92	4012	
853.09	3442.6	
853.26	5358.9	
853.43	6244.3	
853.6	3538.9	
853.77	3064.4	
853.94	6304.3	
854.11	5063.9	
854.28	5326.1	
854.44	3742.3	
854.61	6722.1	
854.78	5810.8	
854.95	3504.1	
855.12	4491.9	
855.29	4598.4	
855.46	6483.9	
855.63	3534.8	
855.8	4961.5	
855.97	5302.9	
856.14	6044.2	
856.31	5028.4	
856.48	3898.6	
856.65	5235.3	
856.82	4937.7	
856.99	3416.7	
857.16	3816	
857.33	7010.2	
857.49	5395.7	
857.66	3820.8	
857.83	4089.1	
858	5339.1	
858.17	5566.4	
858.34	3366.9	
858.51	3538.2	
858.68	6492.7	
858.85	6495.5	
859.02	4117.1	
859.19	4350.6	
859.36	4993.6	
859.52	5083.1	
859.69	3601	
859.86	4266.6	
860.03	5106.3	
860.2	6260	
860.37	3216	
860.54	3575.8	
860.71	5974.6	
860.88	6432.7	
861.05	4001	
861.21	4481.6	
861.38	6470.2	
861.55	4958.1	
861.72	3191.4	
861.89	4015.4	
862.06	6036.7	
862.23	6525.5	
862.4	3404.4	
862.56	3691.8	
862.73	5815.5	
862.9	5535.7	
863.07	4162.2	
863.24	3211.2	
863.41	4920.6	
863.58	5061.2	
863.75	3626.3	
863.91	4095.9	
864.08	6415.6	
864.25	5868.8	
864.42	4505.5	
864.59	5014.8	
864.76	6784.9	
864.93	5043.5	
865.09	3474.7	
865.26	3842	
865.43	6234	
865.6	6666.1	
865.77	3088.3	
865.94	3533.4	
866.1	6275.7	
866.27	6030.6	
866.44	5418.2	
866.61	3360.7	
866.78	5494	
866.95	5831.2	
867.11	3373	
867.28	3130.7	
867.45	6063.4	
867.62	5173.2	
867.79	4130.1	
867.96	3573.7	
868.12	5025.7	
868.29	5993.7	
868.46	3067.2	
868.63	4741.7	
868.8	6292	
868.97	5958.2	
869.13	3708.9	
869.3	3678.8	
869.47	5876.3	
869.64	6066.8	
869.81	3601.7	
869.97	3508.2	
870.14	5801.2	
870.31	6445	
870.48	3476.8	
870.65	4514.4	
870.81	5321.3	
870.98	5321.3	
871.15	3992.9	
871.32	3675.4	
871.48	5835.3	
871.65	6526.2	
871.82	3489.7	
871.99	3949.2	
872.16	6925.5	
872.32	6267.5	
872.49	3547.1	
872.66	3629.7	
872.83	5950	
872.99	5191.6	
873.16	4133.5	
873.33	3508.9	
873.5	5573.2	
873.67	5563.6	
873.83	3769.6	
874	4793.6	
874.17	5718.6	
874.34	6849.1	
874.5	4616.8	
874.67	4493.2	
874.84	6469.5	
875.01	5055.1	
875.17	5048.9	
875.34	3553.2	
875.51	5604.6	
875.68	6792.4	
875.84	4317.8	
876.01	5248.9	
876.18	5915.2	
876.34	5831.2	
876.51	3594.2	
876.68	3491.8	
876.85	5453.1	
877.01	6205.3	
877.18	5153.4	
877.35	3455.6	
877.52	5507.7	
877.68	4988.2	
877.85	3451.5	
878.02	3490.4	
878.18	5544.5	
878.35	5248.3	
878.52	2835.1	
878.69	3962.1	
878.85	5933.6	
879.02	5928.2	
879.19	5078.3	
879.35	3835.2	
879.52	5935	
879.69	6192.4	
879.86	3035.1	
880.02	3987.4	
880.19	5499.5	
880.36	6728.3	
880.52	4063.9	
880.69	4221.5	
880.86	6034	
881.02	6141.9	
881.19	3932.1	
881.36	3881.6	
881.52	5902.9	
881.69	5195	
881.86	3841.3	
882.02	3799.7	
882.19	6221	
882.36	7331.7	
882.52	3611.3	
882.69	4967.7	
882.86	5720	
883.02	5603.2	
883.19	4367.6	
883.36	4168.3	
883.52	6052.4	
883.69	6953.5	
883.86	3623.5	
884.02	3196.9	
884.19	6040.1	
884.36	5494	
884.52	4022.2	
884.69	3771	
884.86	5288.5	
885.02	6647	
885.19	3908.2	
885.36	4113.7	
885.52	5513.1	
885.69	5727.5	
885.86	5166.3	
886.02	4526.7	
886.19	5991	
886.35	5406	
886.52	3913	
886.69	5020.3	
886.85	5088.5	
887.02	6374	
887.19	6374	
887.35	6374	
887.52	6374	
887.68	6374	
887.85	6374	
888.02	6374	
888.18	6374	
888.35	6374	
888.51	6374	
888.68	6374	
888.85	6374	
889.01	6374	
889.18	6374	
889.35	6374	
889.51	6374	
889.68	6374	
889.84	6374	
890.01	6374	
890.17	6374	
890.34	6374	
890.51	6374	
890.67	6374	
890.84	6374	
891	6374	
891.17	6374	
891.34	6374	
891.5	6374	
891.67	6374	
891.83	6374	
892	6374	
892.16	6374	
892.33	6374	
892.5	6374	
892.66	6374	
892.83	6374	
892.99	6374	
893.16	6374	
893.32	6374	
893.49	6374	
893.65	6374	
893.82	6374	
893.99	6374	
894.15	6374	
894.32	6374	
894.48	6374	
894.65	6374	
894.81	6374	
894.98	6374	
895.14	6374	
895.31	6374	
895.47	6374	
895.64	6374	
895.81	6374	
895.97	6374	
896.14	6374	
896.3	6374	
896.47	6374	
896.63	6374	
896.8	6374	
896.96	6374	
897.13	6374	
897.29	6374	
897.46	6374	
897.62	6374	
897.79	6374	
897.95	6374	
898.12	6374	
898.28	6374	
898.45	6374	
898.61	6374	
898.78	6374	
898.94	6374	
899.11	6374	
899.27	6374	
899.44	6374	
899.6	6374	
899.77	6374	
899.93	6374	
900.1	6374	
900.26	6374	
900.43	6374	
900.59	6374	
900.76	6374	
900.92	6374	
901.09	6374	
901.25	6374	
901.42	6374	
901.58	6374	
901.75	6374	
901.91	6374	
902.07	6374	
902.24	6374	
902.4	6374	
902.57	6374	
902.73	6374	
902.9	6374	
903.06	6374	
903.23	6374	
903.39	6374	
903.56	6374	
903.72	6374	
903.88	6374	
904.05	6374	
904.21	6374	
904.38	6374	
904.54	6374	
904.71	6374	
904.87	6374	
905.03	6374	
905.2	6374	
905.36	6374	
905.53	6374	
905.69	6374	
905.86	6374	
906.02	6374	
906.18	6374	
906.35	6374	
906.51	6374	
906.68	6374	
906.84	6374	
907.01	6374	
907.17	6374	
907.33	6374	
907.5	6374	
907.66	6374	
907.83	6374	
907.99	6374	
908.15	6374	
908.32	6374	
908.48	6374	
908.65	6374	
908.81	6374	
908.97	6374	
909.14	6374	
909.3	6374	
909.47	6374	
909.63	6374	
909.79	6374	
909.96	6374	
910.12	6374	
910.28	6374	
910.45	6374	
910.61	6374	
910.78	6374	
910.94	6374	
911.1	6374	
911.27	6374	
911.43	6374	
911.59	6374	
911.76	6374	
911.92	6374	
912.08	6374	
912.25	6374	
912.41	6374	
912.57	6374	
912.74	6374	
912.9	6374	
913.07	6374	
913.23	6374	
913.39	6374	
913.56	6374	
913.72	6374	
913.88	6374	
914.05	6374	
914.21	6374	
914.37	6374	
914.54	6374	
914.7	6374	
914.86	6374	
915.03	6374	
915.19	6374	
