Wavelength	Intensities	
nm	a.u.	
179.22	1879.4	
179.44	1882.8	
179.65	1875.9	
179.86	1889.6	
180.08	1893.7	
180.29	5029.1	
180.51	3571.7	
180.72	5636	
180.94	6653.9	
181.15	3234.4	
181.37	3201	
181.58	5535.7	
181.79	5786.9	
182.01	3348.4	
182.22	3624.2	
182.44	5763	
182.65	4876.9	
182.87	4586.1	
183.08	3990.8	
183.29	6109.1	
183.51	4978.6	
183.72	3674.1	
183.94	5391.6	
184.15	5373.2	
184.37	5455.8	
184.58	3265.8	
184.79	4448.9	
185.01	5018.9	
185.22	5755.5	
185.44	4724.7	
185.65	3903.4	
185.86	5279	
186.08	4902.8	
186.29	3173.7	
186.51	3384.6	
186.72	5073.5	
186.94	5924.8	
187.15	3843.4	
187.36	4055.7	
187.58	7734.5	
187.79	5517.9	
188.01	4239.3	
188.22	6605.4	
188.43	6668.9	
188.65	5796.4	
188.86	3359.4	
189.08	4037.2	
189.29	5215.5	
189.5	5254.4	
189.72	3749.8	
189.93	3760.8	
190.15	6003.3	
190.36	7166.5	
190.57	4187.4	
190.79	4009.9	
191	6141.9	
191.22	6048.3	
191.43	4143	
191.64	3336.1	
191.86	6309.1	
192.07	6068.8	
192.29	3560.1	
192.5	3743	
192.71	6004	
192.93	5153.4	
193.14	3697.3	
193.35	3778.5	
193.57	5223	
193.78	6019.7	
194	3022.8	
194.21	3619.4	
194.42	4957.4	
194.64	5399.8	
194.85	4087.1	
195.07	4745.1	
195.28	5492	
195.49	4697.4	
195.71	4967	
195.92	3438.5	
196.13	5598.5	
196.35	5757.5	
196.56	5310.4	
196.78	4015.4	
196.99	7025.9	
197.2	6668.9	
197.42	4601.8	
197.63	4105.5	
197.84	4881	
198.06	5621	
198.27	3695.2	
198.48	4988.2	
198.7	5188.2	
198.91	5382.1	
199.13	4052.2	
199.34	4117.8	
199.55	5839.4	
199.77	4723.3	
199.98	3586.7	
200.19	4171.7	
200.41	5303.6	
200.62	5043.5	
200.83	4267.3	
201.05	4582	
201.26	5356.1	
201.47	5058.5	
201.69	3626.3	
201.9	3484.3	
202.11	5399.1	
202.33	6483.9	
202.54	3911.6	
202.76	4375.1	
202.97	5601.9	
203.18	5550.7	
203.4	4265.9	
203.61	4155.3	
203.82	5502.9	
204.04	5061.2	
204.25	4091.8	
204.46	4061.8	
204.68	5446.2	
204.89	5700.9	
205.1	3967.6	
205.32	3412.6	
205.53	5855.8	
205.74	5976	
205.96	2973	
206.17	4206.5	
206.38	5760.9	
206.6	6001.2	
206.81	4682.3	
207.02	3781.2	
207.24	5670.8	
207.45	6169.8	
207.66	3817.4	
207.88	3289.7	
208.09	5626.5	
208.3	5426.4	
208.52	3543.7	
208.73	3859.1	
208.94	5425.1	
209.15	6181.5	
209.37	3883.6	
209.58	4115.1	
209.79	6011.5	
210.01	5232.6	
210.22	3099.3	
210.43	3321.8	
210.65	5508.4	
210.86	5948	
211.07	3897.3	
211.29	3555.3	
211.5	5785.5	
211.71	5347.2	
211.93	3534.8	
212.14	3609.2	
212.35	5347.2	
212.56	5593	
212.78	4109.6	
212.99	3406.5	
213.2	6491.4	
213.42	5176.6	
213.63	3713.6	
213.84	4002.4	
214.06	4826.4	
214.27	4887.8	
214.48	3872.7	
214.69	4138.9	
214.91	6124.8	
215.12	6188.3	
215.33	4172.4	
215.55	4629.1	
215.76	6691.4	
215.97	5829.9	
216.18	4039.3	
216.4	3926.6	
216.61	5144.5	
216.82	5929.6	
217.04	3613.3	
217.25	3731.4	
217.46	6146.6	
217.67	5862.7	
217.89	3224.2	
218.1	3287	
218.31	5529.5	
218.53	5606.7	
218.74	3760.8	
218.95	3607.8	
219.16	5418.9	
219.38	6405.4	
219.59	3609.9	
219.8	4393.6	
220.01	6977.4	
220.23	5455.8	
220.44	4818.2	
220.65	3612.6	
220.87	5521.3	
221.08	6057.2	
221.29	3297.2	
221.5	4442.7	
221.72	7494.9	
221.93	5121.3	
222.14	4084.3	
222.35	4849.6	
222.57	5441.5	
222.78	5810.8	
222.99	3861.8	
223.2	4217.5	
223.42	5784.1	
223.63	5881.1	
223.84	2998.2	
224.05	2968.9	
224.27	6936.5	
224.48	6355.5	
224.69	4851	
224.9	4091.2	
225.12	5666	
225.33	5371.8	
225.54	3261.7	
225.75	3689.8	
225.97	4988.9	
226.18	5305.6	
226.39	4000.4	
226.6	3691.8	
226.82	5229.1	
227.03	5074.9	
227.24	4111.6	
227.45	3380.5	
227.67	5774.6	
227.88	6398.5	
228.09	4543.8	
228.3	4582.7	
228.52	5881.8	
228.73	5420.3	
228.94	3812	
229.15	3355.3	
229.36	5337.7	
229.58	5231.9	
229.79	3818.1	
230	4453.6	
230.21	6501.6	
230.43	5548.6	
230.64	4005.1	
230.85	4256.4	
231.06	5885.9	
231.28	5870.8	
231.49	3338.9	
231.7	4006.5	
231.91	5797.8	
232.12	5518.6	
232.34	3444	
232.55	3961.5	
232.76	6059.9	
232.97	5626.5	
233.18	3568.2	
233.4	4054.3	
233.61	5698.1	
233.82	5253	
234.03	3753.9	
234.25	3684.3	
234.46	7566.6	
234.67	5442.1	
234.88	4154	
235.09	3621.5	
235.31	5752.7	
235.52	5294	
235.73	4040.6	
235.94	3409.2	
236.15	5130.8	
236.37	6645.7	
236.58	3606.5	
236.79	3909.6	
237	5748.6	
237.21	4973.8	
237.43	4211.3	
237.64	3362.1	
237.85	9962	
238.06	4988.9	
238.27	4339	
238.48	3409.2	
238.7	5795.1	
238.91	5306.3	
239.12	3876.8	
239.33	3964.2	
239.54	5091.9	
239.76	5332.9	
239.97	3849.5	
240.18	3936.9	
240.39	6808.1	
240.6	5700.2	
240.82	4117.8	
241.03	3291.1	
241.24	5463.3	
241.45	6318.7	
241.66	3579.8	
241.87	4266.6	
242.09	6151.4	
242.3	6563.1	
242.51	4235.9	
242.72	3930.7	
242.93	5907	
243.14	5353.4	
243.36	4502.8	
243.57	4885.1	
243.78	6234	
243.99	5823.7	
244.2	4003.8	
244.41	3607.2	
244.63	4995.7	
244.84	5768.4	
245.05	4242	
245.26	3903.4	
245.47	5700.9	
245.68	6028.5	
245.9	5195	
246.11	4108.2	
246.32	5341.1	
246.53	5644.9	
246.74	6348	
246.95	3270.6	
247.16	4910.3	
247.38	5447.6	
247.59	3251.5	
247.8	3981.9	
248.01	5091.3	
248.22	5365	
248.43	3588.7	
248.64	3829	
248.86	4814.8	
249.07	5178.6	
249.28	3420.1	
249.49	3954.6	
249.7	5967.1	
249.91	6215.6	
250.12	3273.3	
250.34	3324.5	
250.55	5540.4	
250.76	5427.8	
250.97	4047.5	
251.18	4114.4	
251.39	6152.8	
251.6	5626.5	
251.81	4093.9	
252.03	4129.4	
252.24	5187.5	
252.45	5953.4	
252.66	3395.5	
252.87	4347.2	
253.08	5481	
253.29	7242.3	
253.5	3426.3	
253.72	4782.7	
253.93	5215.5	
254.14	6488.6	
254.35	3759.4	
254.56	3833.8	
254.77	5644.2	
254.98	5005.9	
255.19	3669.3	
255.41	4761.5	
255.62	5597.8	
255.83	6176	
256.04	4236.6	
256.25	4157.4	
256.46	6468.2	
256.67	5070.8	
256.88	4055	
257.09	4472.8	
257.31	5068	
257.52	5164.3	
257.73	5074.9	
257.94	3732.1	
258.15	5270.8	
258.36	5464.7	
258.57	4752	
258.78	2953.2	
258.99	5943.2	
259.2	5277.6	
259.41	3792.8	
259.63	3909.6	
259.84	6253.1	
260.05	6772.6	
260.26	4975.2	
260.47	3649.5	
260.68	6023.8	
260.89	5345.9	
261.1	4556.7	
261.31	3564.1	
261.52	5987.6	
261.73	6406	
261.95	4833.9	
262.16	4227.7	
262.37	6098.2	
262.58	6262.7	
262.79	4823	
263	3861.1	
263.21	5446.9	
263.42	4955.4	
263.63	3874.8	
263.84	3797.6	
264.05	5985.5	
264.26	6396.5	
264.47	4711.7	
264.69	4243.4	
264.9	6129.6	
265.11	5641.5	
265.32	3648.8	
265.53	3704.1	
265.74	5580.7	
265.95	4891.2	
266.16	4030.4	
266.37	4426.3	
266.58	5567.7	
266.79	5248.3	
267	3708.2	
267.21	3450.8	
267.42	5010	
267.63	5403.9	
267.84	3915	
268.06	3340.9	
268.27	5883.8	
268.48	6158.9	
268.69	3852.2	
268.9	4543.8	
269.11	6137.1	
269.32	4922	
269.53	3904.8	
269.74	3664.5	
269.95	5783.5	
270.16	4773.8	
270.37	4002.4	
270.58	4546.5	
270.79	5270.8	
271	5910.4	
271.21	4186	
271.42	3944.4	
271.63	5608	
271.84	5113.1	
272.05	3144.3	
272.26	3491.1	
272.47	5451.7	
272.68	5687.2	
272.89	3775.1	
273.11	4386.1	
273.32	5273.5	
273.53	6440.9	
273.74	4267.3	
273.95	4116.4	
274.16	6112.5	
274.37	5487.2	
274.58	4316.4	
274.79	3397.6	
275	5601.2	
275.21	6159.6	
275.42	5160.9	
275.63	4422.2	
275.84	5666	
276.05	7202	
276.26	4167.6	
276.47	3901.4	
276.68	5246.9	
276.89	6406	
277.1	4467.3	
277.31	3500	
277.52	5666.7	
277.73	5858.6	
277.94	3394.2	
278.15	3760.8	
278.36	5666	
278.57	5072.1	
278.78	3730	
278.99	4261.1	
279.2	5061.2	
279.41	5003.9	
279.62	4961.5	
279.83	3479.5	
280.04	6649.1	
280.25	4961.5	
280.46	4915.1	
280.67	3945.1	
280.88	5074.2	
281.09	6112.5	
281.3	4109.6	
281.51	5242.1	
281.72	5190.2	
281.93	5989.6	
282.14	3671.3	
282.35	3955.3	
282.56	5948.7	
282.77	5924.1	
282.98	3818.1	
283.19	4688.5	
283.4	7329.7	
283.61	5376.6	
283.82	3425.6	
284.03	4893.3	
284.24	5541.8	
284.45	6122.7	
284.66	4875.5	
284.87	4659.8	
285.08	5957.5	
285.29	6148	
285.5	3277.4	
285.71	3860.4	
285.92	6109.8	
286.12	6719.4	
286.33	4894.6	
286.54	3785.3	
286.75	5936.4	
286.96	5358.9	
287.17	3498.6	
287.38	4705.5	
287.59	5051	
287.8	5010.7	
288.01	3809.2	
288.22	4472.1	
288.43	5981.4	
288.64	4924.7	
288.85	4545.1	
289.06	4320.5	
289.27	5899.5	
289.48	6366.5	
289.69	4904.2	
289.9	4431.8	
290.11	6061.3	
290.32	5181.4	
290.53	4606.6	
290.74	4235.9	
290.94	5863.3	
291.15	5869.5	
291.36	3740.3	
291.57	4399	
291.78	5200.5	
291.99	4902.8	
292.2	3532.7	
292.41	4300.7	
292.62	6032	
292.83	5800.5	
293.04	5255.1	
293.25	3560.1	
293.46	5289.9	
293.67	6069.5	
293.88	3695.9	
294.09	3428.3	
294.29	4973.2	
294.5	5591	
294.71	3971	
294.92	3739.6	
295.13	5225.1	
295.34	6569.2	
295.55	3261.7	
295.76	3371	
295.97	5879	
296.18	6702.3	
296.39	3473.4	
296.6	3719.1	
296.81	5580.7	
297.01	5902.2	
297.22	3848.8	
297.43	3657.7	
297.64	5065.3	
297.85	5126.7	
298.06	3031.7	
298.27	3300	
298.48	5500.2	
298.69	5143.8	
298.9	3992.2	
299.11	3588	
299.31	4989.5	
299.52	4984.1	
299.73	4218.1	
299.94	4190.8	
300.15	5427.1	
300.36	5057.8	
300.57	4162.2	
300.78	4206.5	
300.99	5298.1	
301.2	5573.9	
301.4	3625.6	
301.61	3962.8	
301.82	5788.9	
302.03	5853.8	
302.24	4453	
302.45	3475.4	
302.66	5754.8	
302.87	6229.9	
303.08	3674.7	
303.29	5050.3	
303.49	5136.3	
303.7	5507	
303.91	3250.8	
304.12	4755.4	
304.33	4978.6	
304.54	5558.2	
304.75	3734.1	
304.96	3538.2	
305.16	5766.4	
305.37	6538.5	
305.58	3192.1	
305.79	3319.8	
306	5781.4	
306.21	4837.3	
306.42	3669.3	
306.63	5636.7	
306.83	5304.2	
307.04	6034.7	
307.25	4037.2	
307.46	4057.7	
307.67	4717.8	
307.88	5939.1	
308.09	3577.1	
308.29	3764.8	
308.5	5531.6	
308.71	6073.6	
308.92	3957.4	
309.13	3564.1	
309.34	5354.1	
309.55	5373.9	
309.75	4627	
309.96	4219.5	
310.17	5930.2	
310.38	5157.5	
310.59	4409.3	
310.8	4142.4	
311.01	5301.5	
311.21	5315.8	
311.42	3488.4	
311.63	3609.2	
311.84	5162.2	
312.05	5641.5	
312.26	4127.3	
312.46	4449.6	
312.67	5307.7	
312.88	4947.9	
313.09	3582.6	
313.3	3484.3	
313.51	6306.4	
313.71	6687.3	
313.92	3557.3	
314.13	3761.4	
314.34	5595.1	
314.55	5367.7	
314.76	4536.9	
314.96	4013.3	
315.17	5507.7	
315.38	5846.3	
315.59	3543	
315.8	3364.8	
316.01	6365.8	
316.21	6382.8	
316.42	3416.7	
316.63	3955.3	
316.84	5284.4	
317.05	6236.1	
317.26	4212.7	
317.46	3784.6	
317.67	5383.4	
317.88	5881.1	
318.09	4545.1	
318.3	3295.2	
318.5	5167	
318.71	5810.1	
318.92	5752.7	
319.13	4150.5	
319.34	5946.6	
319.54	6105	
319.75	3308.2	
319.96	3140.2	
320.17	5857.9	
320.38	5998.5	
320.58	3235.1	
320.79	3886.4	
321	6105.7	
321.21	6210.8	
321.42	3889.1	
321.62	3265.8	
321.83	5037.3	
322.04	5509	
322.25	3719.1	
322.46	3627	
322.66	5592.3	
322.87	5717.2	
323.08	4423.6	
323.29	3487	
323.5	6573.3	
323.7	5005.2	
323.91	4917.2	
324.12	4352.6	
324.33	5591	
324.53	5827.2	
324.74	4235.2	
324.95	4445.5	
325.16	4834.6	
325.37	5253	
325.57	3605.1	
325.78	3663.1	
325.99	5489.9	
326.2	4965	
326.4	5195	
326.61	3274	
326.82	5420.3	
327.03	5588.9	
327.24	5051	
327.44	4859.1	
327.65	5717.2	
327.86	4582.7	
328.07	4275.5	
328.27	3416	
328.48	6232	
328.69	5081.7	
328.9	5141.8	
329.1	3814	
329.31	5348.6	
329.52	6290.7	
329.73	3530.7	
329.93	3988.1	
330.14	5522	
330.35	5700.2	
330.56	5935.7	
330.76	4407.2	
330.97	5291.3	
331.18	5656.5	
331.39	3945.1	
331.59	3224.9	
331.8	6047.7	
332.01	6094.1	
332.22	3639.2	
332.42	4244.1	
332.63	5636	
332.84	5180.7	
333.05	4036.5	
333.25	3633.8	
333.46	5212.8	
333.67	5446.2	
333.88	3688.4	
334.08	4109.6	
334.29	7712	
334.5	6079.7	
334.7	3501.3	
334.91	5120.6	
335.12	4990.9	
335.33	5924.8	
335.53	3980.6	
335.74	5924.1	
335.95	5215.5	
336.16	5142.4	
336.36	3958	
336.57	4552.6	
336.78	5003.9	
336.98	6040.8	
337.19	4922	
337.4	3878.2	
337.61	6634.7	
337.81	5014.1	
338.02	3631	
338.23	4732.9	
338.43	6199.9	
338.64	5047.6	
338.85	3547.8	
339.05	4710.3	
339.26	6286.6	
339.47	4894	
339.68	3564.8	
339.88	5328.8	
340.09	5719.3	
340.3	5981.4	
340.5	4205.8	
340.71	3255.6	
340.92	4932.9	
341.13	6182.1	
341.33	3443.3	
341.54	4247.5	
341.75	5685.2	
341.95	5367	
342.16	4037.9	
342.37	4341	
342.57	5053.7	
342.78	5408	
342.99	4469.4	
343.19	3182.5	
343.4	5867.4	
343.61	5743.2	
343.81	3807.9	
344.02	3508.9	
344.23	5859.9	
344.43	6305.7	
344.64	4429.1	
344.85	4345.1	
345.06	5748.6	
345.26	6130.9	
345.47	4176.5	
345.68	4847.5	
345.88	4837.3	
346.09	5900.9	
346.3	4199.7	
346.5	3165.5	
346.71	5506.3	
346.92	5153.4	
347.12	3252.9	
347.33	4071.4	
347.54	6013.5	
347.74	6414.9	
347.95	4174.4	
348.16	3018	
348.36	5244.8	
348.57	4956.8	
348.78	4018.1	
348.98	4361.5	
349.19	5362.3	
349.39	4921.3	
349.6	3265.8	
349.81	3698.6	
350.01	5730.9	
350.22	5145.2	
350.43	3934.8	
350.63	4741.7	
350.84	5524.7	
351.05	5234.6	
351.25	3616.7	
351.46	3229.6	
351.67	6085.9	
351.87	5145.2	
352.08	3790.1	
352.29	4409.3	
352.49	5968.5	
352.7	5647.6	
352.9	3445.4	
353.11	4345.8	
353.32	6563.7	
353.52	5231.2	
353.73	3436.5	
353.94	4389.5	
354.14	5752.7	
354.35	5524.7	
354.55	3564.8	
354.76	3927.3	
354.97	5718.6	
355.17	5509	
355.38	3366.2	
355.59	4708.3	
355.79	5147.2	
356	5595.7	
356.2	3949.2	
356.41	3403.7	
356.62	4833.2	
356.82	5310.4	
357.03	4214.7	
357.24	3753.9	
357.44	5171.8	
357.65	5193	
357.85	5078.3	
358.06	3975.1	
358.27	4846.9	
358.47	5058.5	
358.68	3265.8	
358.88	4118.5	
359.09	5666.7	
359.3	6025.8	
359.5	4925.4	
359.71	4310.3	
359.91	6578.1	
360.12	5808.7	
360.33	4135.5	
360.53	4608.6	
360.74	5115.1	
360.94	5203.9	
361.15	4339	
361.36	3543	
361.56	5897.5	
361.77	5360.9	
361.97	4814.1	
362.18	3756.7	
362.38	5940.5	
362.59	4904.9	
362.8	3500.7	
363	3336.1	
363.21	4762.2	
363.41	5460.6	
363.62	4010.6	
363.83	5114.5	
364.03	5470.8	
364.24	6516	
364.44	5184.1	
364.65	5180.7	
364.85	5311.7	
365.06	5137.7	
365.27	3641.3	
365.47	3680.9	
365.68	6262.7	
365.88	5272.8	
366.09	4115.1	
366.29	3772.4	
366.5	5533.6	
366.71	6000.5	
366.91	5027.1	
367.12	4226.3	
367.32	6569.2	
367.53	5895.4	
367.73	4179.9	
367.94	5201.8	
368.14	5729.5	
368.35	6664.1	
368.56	4164.2	
368.76	3949.2	
368.97	5845.6	
369.17	7572	
369.38	3638.6	
369.58	3921.9	
369.79	4896	
369.99	6238.1	
370.2	4961.5	
370.4	4080.9	
370.61	5538.4	
370.82	6718.7	
371.02	3860.4	
371.23	3212.6	
371.43	4786.1	
371.64	6156.9	
371.84	3937.6	
372.05	5239.4	
372.25	7457.3	
372.46	5858.6	
372.66	3930.1	
372.87	3830.4	
373.07	5890	
373.28	7501	
373.48	5003.2	
373.69	4597.7	
373.9	5352	
374.1	5337	
374.31	4851.6	
374.51	4444.8	
374.72	6190.3	
374.92	5074.9	
375.13	4996.4	
375.33	4203.8	
375.54	5767.8	
375.74	5151.3	
375.95	4296	
376.15	5488.6	
376.36	5640.1	
376.56	5547.3	
376.77	4280.9	
376.97	4790.2	
377.18	6783.6	
377.38	5782.1	
377.59	5039.4	
377.79	3771	
378	5542.5	
378.2	6022.4	
378.41	3889.1	
378.61	3763.5	
378.82	6039.5	
379.02	5112.4	
379.23	3945.8	
379.43	5115.1	
379.64	6106.4	
379.84	5776	
380.05	3784.6	
380.25	3778.5	
380.46	5844.9	
380.66	5446.2	
380.87	5222.3	
381.07	5543.2	
381.28	6447.7	
381.48	5842.2	
381.69	3861.1	
381.89	3907.5	
382.1	4769.7	
382.3	6074.3	
382.51	5008.6	
382.71	5865.4	
382.91	5921.4	
383.12	6483.2	
383.32	4202.4	
383.53	4483	
383.73	5657.2	
383.94	5535	
384.14	4334.9	
384.35	3453.6	
384.55	5393	
384.76	5868.8	
384.96	4188.8	
385.17	4546.5	
385.37	5816.9	
385.58	5129.5	
385.78	4656.4	
385.98	3435.8	
386.19	5343.2	
386.39	5781.4	
386.6	4034.5	
386.8	4256.4	
387.01	5908.4	
387.21	5929.6	
387.42	4696	
387.62	5233.9	
387.83	5169.8	
388.03	5810.8	
388.23	4216.1	
388.44	5107	
388.64	4790.2	
388.85	4990.9	
389.05	4624.3	
389.26	5298.1	
389.46	6834.1	
389.67	6287.3	
389.87	4607.9	
390.07	4637.3	
390.28	5507.7	
390.48	5057.8	
390.69	3865.9	
390.89	4175.1	
391.1	5257.1	
391.3	6188.3	
391.5	5366.4	
391.71	5928.2	
391.91	5882.4	
392.12	7002.7	
392.32	5477.6	
392.53	4589.5	
392.73	5335	
392.93	5559.6	
393.14	4228.4	
393.34	5075.5	
393.55	6066.1	
393.75	5438	
393.95	4227	
394.16	4250.2	
394.36	5211.4	
394.57	5951.4	
394.77	3728	
394.98	4173.8	
395.18	5156.1	
395.38	5221.6	
395.59	5044.1	
395.79	3936.9	
396	5264.6	
396.2	5784.1	
396.4	4833.9	
396.61	4700.8	
396.81	5976	
397.02	5244.2	
397.22	5079.6	
397.42	5115.1	
397.63	5896.8	
397.83	5144.5	
398.04	3901.4	
398.24	4407.9	
398.44	5743.2	
398.65	4805.9	
398.85	3795.6	
399.05	3869.3	
399.26	5107.6	
399.46	6909.8	
399.67	4233.8	
399.87	3934.1	
400.07	5470.8	
400.28	5910.4	
400.48	4046.1	
400.69	5151.3	
400.89	6094.1	
401.09	6509.1	
401.3	3886.4	
401.5	5073.5	
401.7	6731.7	
401.91	6946.7	
402.11	4198.3	
402.32	4483	
402.52	6055.8	
402.72	6047	
402.93	4703.5	
403.13	3608.5	
403.33	6897.6	
403.54	5578	
403.74	4420.9	
403.94	5301.5	
404.15	5673.6	
404.35	6858	
404.56	4175.1	
404.76	6123.4	
404.96	6121.4	
405.17	5899.5	
405.37	5544.5	
405.57	4639.3	
405.78	6049	
405.98	5567.1	
406.18	4162.2	
406.39	5154.7	
406.59	6052.4	
406.79	5705.6	
407	4063.2	
407.2	4154	
407.4	6081.1	
407.61	6328.9	
407.81	4140.3	
408.01	6150.1	
408.22	5016.8	
408.42	7170.6	
408.62	5082.4	
408.83	4602.5	
409.03	5605.3	
409.23	5460.6	
409.44	4632.5	
409.64	4948.6	
409.84	6518	
410.05	6383.5	
410.25	4743.1	
410.45	4574.5	
410.66	5815.5	
410.86	8406.9	
411.06	4898.1	
411.27	4820.2	
411.47	8088.8	
411.67	6004	
411.88	5023.7	
412.08	5270.1	
412.28	6675.7	
412.49	7136.5	
412.69	4786.8	
412.89	4703.5	
413.09	6924.9	
413.3	6770.6	
413.5	4807.3	
413.7	4382	
413.91	6075	
414.11	6933.7	
414.31	4658.4	
414.52	5103.5	
414.72	6583.5	
414.92	6453.1	
415.12	4659.8	
415.33	5171.1	
415.53	6773.3	
415.73	6995.9	
415.94	5526.8	
416.14	5009.3	
416.34	5771.9	
416.55	5495.4	
416.75	6264.1	
416.95	5532.9	
417.15	6808.1	
417.36	7609.6	
417.56	6393.1	
417.76	5428.5	
417.97	7202.7	
418.17	6825.2	
418.37	4922	
418.57	5051	
418.78	6543.9	
418.98	6293.4	
419.18	5908.4	
419.38	5841.5	
419.59	6354.8	
419.79	5975.3	
419.99	4913.8	
420.2	5378.6	
420.4	6892.8	
420.6	7081.9	
420.8	4821.6	
421.01	4655.7	
421.21	6647.7	
421.41	6817.7	
421.61	5255.8	
421.82	4897.4	
422.02	6130.9	
422.22	7197.2	
422.42	5697.4	
422.63	5431.9	
422.83	6269.5	
423.03	7490.8	
423.23	5361.6	
423.44	4339.6	
423.64	6377.4	
423.84	6081.8	
424.04	4829.8	
424.25	4408.6	
424.45	7318.1	
424.65	7303.7	
424.85	4263.9	
425.06	4862.6	
425.26	7283.3	
425.46	6263.4	
425.66	5401.9	
425.87	5085.1	
426.07	7068.2	
426.27	6901.7	
426.47	5225.1	
426.67	4568.3	
426.88	7446.4	
427.08	6845	
427.28	5423.7	
427.48	4488.5	
427.69	5767.8	
427.89	6462	
428.09	5389.6	
428.29	4571.7	
428.5	7209.5	
428.7	6621.1	
428.9	4445.5	
429.1	5096	
429.3	6575.3	
429.51	7025.2	
429.71	4739	
429.91	5586.9	
430.11	6797.9	
430.31	7346.1	
430.52	5066	
430.72	5320.6	
430.92	7434.8	
431.12	6905.1	
431.32	4786.1	
431.53	5211.4	
431.73	5753.4	
431.93	7565.2	
432.13	4643.4	
432.33	4552	
432.54	6207.4	
432.74	6604	
432.94	4406.5	
433.14	5543.2	
433.34	6748.7	
433.55	6232	
433.75	5553.4	
433.95	7225.9	
434.15	6574.7	
434.35	6217.6	
434.56	4681.7	
434.76	4132.1	
434.96	6469.5	
435.16	6753.5	
435.36	4497.3	
435.56	5659.2	
435.77	6155.5	
435.97	6386.9	
436.17	6374	
436.37	5670.1	
436.57	6127.5	
436.78	5998.5	
436.98	5597.8	
437.18	6206	
437.38	6771.3	
437.58	6350.1	
437.78	6376.7	
437.99	4919.9	
438.19	6885.3	
438.39	7674.4	
438.59	4867.3	
438.79	4391.5	
438.99	7592.5	
439.2	6337.1	
439.4	4588.8	
439.6	4449.6	
439.8	6698.2	
440	7885.4	
440.2	5567.7	
440.4	5614.2	
440.61	7017	
440.81	7595.2	
441.01	4660.5	
441.21	5549.3	
441.41	7381.6	
441.61	7090.1	
441.81	5890	
442.02	6884.6	
442.22	7944.8	
442.42	7103.7	
442.62	4665.3	
442.82	4891.9	
443.02	7392.5	
443.22	6477.7	
443.43	5163.6	
443.63	4786.1	
443.83	6301.6	
444.03	6392.4	
444.23	5961	
444.43	5602.6	
444.63	6647.7	
444.83	7866.9	
445.04	4759.5	
445.24	6116.6	
445.44	7005.4	
445.64	7176.8	
445.84	5672.9	
446.04	5556.1	
446.24	6415.6	
446.44	7453.9	
446.65	4951.3	
446.85	5216.9	
447.05	6558.3	
447.25	7426.6	
447.45	5335.6	
447.65	4691.9	
447.85	6704.4	
448.05	6400.6	
448.25	5810.8	
448.46	5592.3	
448.66	6774	
448.86	6434	
449.06	4589.5	
449.26	5792.3	
449.46	7108.5	
449.66	6184.9	
449.86	5216.9	
450.06	5243.5	
450.26	6290.7	
450.47	6993.8	
450.67	5532.2	
450.87	5883.1	
451.07	7008.1	
451.27	6772.6	
451.47	4848.9	
451.67	5343.2	
451.87	6438.8	
452.07	7658.7	
452.27	5026.4	
452.47	5084.4	
452.67	6768.5	
452.88	7363.1	
453.08	4382	
453.28	6427.9	
453.48	7940.7	
453.68	6690.7	
453.88	4913.8	
454.08	5265.3	
454.28	7045.7	
454.48	6698.2	
454.68	5696.1	
454.88	6251.8	
455.08	7247.1	
455.28	6896.9	
455.48	4846.9	
455.68	5401.9	
455.89	7643.7	
456.09	7307.8	
456.29	5181.4	
456.49	5212.1	
456.69	7600	
456.89	6776.7	
457.09	5689.9	
457.29	6081.8	
457.49	7158.3	
457.69	7324.2	
457.89	5507	
458.09	4904.9	
458.29	6861.4	
458.49	7574.1	
458.69	5888.6	
458.89	5237.3	
459.09	7835.5	
459.29	7940.7	
459.49	5444.9	
459.69	6238.8	
459.9	7378.1	
460.1	6866.2	
460.3	5378.6	
460.5	5219.6	
460.7	7357.7	
460.9	7027.9	
461.1	4805.9	
461.3	6143.2	
461.5	7963.9	
461.7	7613	
461.9	5110.4	
462.1	5605.3	
462.3	7021.1	
462.5	7629.4	
462.7	5248.3	
462.9	5351.3	
463.1	8639	
463.3	8285.4	
463.5	5558.2	
463.7	6432	
463.9	7221.8	
464.1	7565.9	
464.3	5639.4	
464.5	5773.2	
464.7	7850.5	
464.9	7458	
465.1	7339.2	
465.3	6193.1	
465.5	8209.6	
465.7	8137.9	
465.9	6412.2	
466.1	6360.3	
466.3	7968	
466.5	7791.8	
466.7	7177.4	
466.9	6083.8	
467.1	7740.6	
467.3	8693.6	
467.5	7085.3	
467.7	5987.6	
467.9	8802.2	
468.1	9771.5	
468.3	6799.3	
468.5	7212.9	
468.7	7668.3	
468.9	7638.9	
469.1	6223.1	
469.3	6911.2	
469.5	9686.9	
469.7	7201.3	
469.9	6767.2	
470.1	5944.6	
470.3	7623.9	
470.5	7693.5	
470.7	7197.9	
470.9	6062	
471.1	7357.7	
471.3	7860.1	
471.5	5903.6	
471.69	7864.2	
471.89	7296.9	
472.09	6824.5	
472.29	6667.5	
472.49	7086.7	
472.69	7072.3	
472.89	7973.4	
473.09	5808.7	
473.29	5973.2	
473.49	7196.6	
473.69	7447.1	
473.89	6897.6	
474.09	6060.6	
474.29	8695.7	
474.49	8363.9	
474.69	6891.4	
474.89	6260.6	
475.09	7482.6	
475.29	7421.2	
475.49	5657.2	
475.69	5891.3	
475.88	9118.9	
476.08	7751.6	
476.28	5477.6	
476.48	6065.4	
476.68	8283.4	
476.88	8092.2	
477.08	5921.4	
477.28	6261.3	
477.48	7602.7	
477.68	8291.5	
477.88	5735.7	
478.08	6066.8	
478.28	8550.3	
478.48	7647.8	
478.67	6067.4	
478.87	5622.4	
479.07	8299.1	
479.27	7897	
479.47	6272.9	
479.67	6348.7	
479.87	8225.3	
480.07	8769.4	
480.27	5603.2	
480.47	7277.1	
480.67	7838.3	
480.87	8574.2	
481.06	5832.6	
481.26	6659.3	
481.46	7763.2	
481.66	7711.3	
481.86	6265.4	
482.06	7317.4	
482.26	7460.8	
482.46	8560.5	
482.66	6351.4	
482.86	5926.1	
483.05	7893.6	
483.25	7362.4	
483.45	8873.2	
483.65	6361.7	
483.85	7413.6	
484.05	7671	
484.25	6724.2	
484.45	7237.5	
484.65	8634.9	
484.84	8610.3	
485.04	6222.4	
485.24	6240.2	
485.44	8914.8	
485.64	7165.8	
485.84	5483.1	
486.04	6922.1	
486.24	7603.4	
486.44	8003.5	
486.63	5477	
486.83	6240.2	
487.03	7486	
487.23	7714.7	
487.43	5603.9	
487.63	8022.6	
487.83	7707.2	
488.02	8780.3	
488.22	6602.7	
488.42	7243	
488.62	8735.3	
488.82	7523.6	
489.02	6232	
489.22	6250.4	
489.41	8557.8	
489.61	8086.1	
489.81	5896.8	
490.01	5993.7	
490.21	8359.1	
490.41	9087.5	
490.61	5870.8	
490.8	6063.4	
491	7791.2	
491.2	7136.5	
491.4	6744.6	
491.6	5766.4	
491.8	7851.2	
491.99	8253.3	
492.19	5663.3	
492.39	6071.5	
492.59	8548.9	
492.79	8571.4	
492.99	7035.5	
493.18	6030.6	
493.38	8616.5	
493.58	9351	
493.78	6793.8	
493.98	6359.6	
494.18	8343.4	
494.37	7773.4	
494.57	7005.4	
494.77	6856.6	
494.97	8516.1	
495.17	8764.6	
495.37	6414.2	
495.56	6675	
495.76	8888.2	
495.96	8493.6	
496.16	7619.8	
496.36	6547.4	
496.55	8589.2	
496.75	8192.6	
496.95	6883.2	
497.15	6770.6	
497.35	8702.5	
497.54	8734.6	
497.74	6623.1	
497.94	8258.1	
498.14	9398.8	
498.34	9190.6	
498.53	6360.3	
498.73	7150.8	
498.93	8032.8	
499.13	8727.8	
499.33	6879.8	
499.52	7517.4	
499.72	8616.5	
499.92	9019.3	
500.12	6557.6	
500.32	6651.1	
500.51	8921	
500.71	8665	
500.91	7694.9	
501.11	7235.5	
501.31	8835.6	
501.5	9243.2	
501.7	7952.9	
501.9	6838.9	
502.1	8602.8	
502.29	8946.2	
502.49	7271	
502.69	7788.4	
502.89	8828.8	
503.09	8800.8	
503.28	6320	
503.48	6418.3	
503.68	8075.1	
503.88	8089.5	
504.07	7466.2	
504.27	6960.4	
504.47	8445.8	
504.67	8546.2	
504.86	7438.2	
505.06	7132.4	
505.26	8125.7	
505.46	9983.8	
505.65	6950.1	
505.85	7137.2	
506.05	8026	
506.25	8579.6	
506.44	6298.2	
506.64	7241.6	
506.84	8013.7	
507.04	8950.3	
507.23	6508.4	
507.43	7080.5	
507.63	10000	
507.83	8212.4	
508.02	6992.4	
508.22	6741.2	
508.42	10261	
508.62	8005.5	
508.81	7344	
509.01	7614.3	
509.21	7959.8	
509.4	8185.7	
509.6	7245	
509.8	6573.3	
510	8187.1	
510.19	9704	
510.39	6556.2	
510.59	6596.5	
510.79	7933.1	
510.98	9400.2	
511.18	6589.7	
511.38	6742.6	
511.57	8859.5	
511.77	8669.7	
511.97	7514.7	
512.17	6395.8	
512.36	8756.4	
512.56	8817.2	
512.76	6554.9	
512.95	6293.4	
513.15	8933.2	
513.35	7557	
513.55	7389.8	
513.74	6657.9	
513.94	8958.5	
514.14	8296.3	
514.33	7556.3	
514.53	7154.9	
514.73	8247.9	
514.92	8486.8	
515.12	6787	
515.32	6584.9	
515.51	8507.3	
515.71	9142.1	
515.91	8335.9	
516.11	6577.4	
516.3	10318	
516.5	8146.1	
516.7	7253.2	
516.89	7810.3	
517.09	8258.8	
517.29	8131.1	
517.48	7473	
517.68	6862.7	
517.88	7914.7	
518.07	8654	
518.27	7423.2	
518.47	6498.9	
518.66	9203.6	
518.86	7769.3	
519.06	6332.3	
519.25	6772.6	
519.45	8133.8	
519.65	9796.1	
519.84	7438.9	
520.04	8010.3	
520.24	10021	
520.43	8702.5	
520.63	7083.9	
520.83	6834.1	
521.02	8006.9	
521.22	8750.3	
521.42	7442.3	
521.61	7976.8	
521.81	8313.4	
522.01	8484.1	
522.2	7266.2	
522.4	7074.4	
522.6	9000.1	
522.79	7819.1	
522.99	7170.6	
523.18	6485.9	
523.38	8772.1	
523.58	8727.8	
523.77	8426.7	
523.97	6477	
524.17	10616	
524.36	9736	
524.56	7778.2	
524.76	7452.6	
524.95	8710	
525.15	8376.9	
525.34	7224.6	
525.54	7268.2	
525.74	8990.6	
525.93	7977.5	
526.13	8336.6	
526.33	7160.4	
526.52	9305.3	
526.72	8821.3	
526.91	8441.7	
527.11	7653.3	
527.31	9433.6	
527.5	9845.3	
527.7	7576.8	
527.89	6595.8	
528.09	8284	
528.29	8916.2	
528.48	8073.8	
528.68	7671	
528.87	9229.5	
529.07	9276.6	
529.27	7444.4	
529.46	6984.9	
529.66	8846.5	
529.85	9293	
530.05	6753.5	
530.25	7641.7	
530.44	10347	
530.64	8854.7	
530.83	7306.5	
531.03	7656	
531.23	9315.5	
531.42	9260.2	
531.62	8446.5	
531.81	7544	
532.01	9567.4	
532.21	10056	
532.4	7290.1	
532.6	7621.9	
532.79	10417	
532.99	9508	
533.18	7750.9	
533.38	8675.9	
533.58	9043.1	
533.77	9833	
533.97	7625.3	
534.16	8505.2	
534.36	9973.6	
534.55	9015.8	
534.75	8605.6	
534.95	7556.3	
535.14	9823.4	
535.34	9011.1	
535.53	7226.6	
535.73	9351.7	
535.92	10380	
536.12	9153.1	
536.31	7458	
536.51	8807.6	
536.71	9567.4	
536.9	9121	
537.1	7578.8	
537.29	7760.4	
537.49	10091	
537.68	9015.8	
537.88	8156.4	
538.07	7352.9	
538.27	9318.9	
538.46	10362	
538.66	7264.1	
538.86	7722.2	
539.05	9436.4	
539.25	9865.7	
539.44	8035.5	
539.64	7587	
539.83	9137.4	
540.03	10123	
540.22	7387	
540.42	7563.1	
540.61	9408.4	
540.81	9537.4	
541	8106.5	
541.2	8749.6	
541.39	8945.5	
541.59	9399.5	
541.78	8312.7	
541.98	7446.4	
542.18	8545.5	
542.37	8543.4	
542.57	7782.3	
542.76	8349.6	
542.96	8566.7	
543.15	9398.1	
543.35	7808.9	
543.54	7146.7	
543.74	9739.5	
543.93	9202.9	
544.13	7771.4	
544.32	8971.5	
544.52	9574.9	
544.71	8779.6	
544.91	6978.8	
545.1	8272.4	
545.3	8854.1	
545.49	9601.6	
545.69	6936.5	
545.88	7448.5	
546.08	10461	
546.27	10073	
546.47	8092.2	
546.66	7286	
546.86	9679.4	
547.05	10402	
547.24	7555	
547.44	7341.3	
547.63	8709.3	
547.83	9823.4	
548.02	7790.5	
548.22	7989.1	
548.41	8503.8	
548.61	9899.2	
548.8	7378.8	
549	7290.1	
549.19	9141.4	
549.39	9404.3	
549.58	7077.1	
549.78	7710.6	
549.97	9510.8	
550.17	9000.8	
550.36	8483.4	
550.55	9594.7	
550.75	8940.7	
550.94	9988.6	
551.14	7304.4	
551.33	7816.4	
551.53	8393.9	
551.72	9445.2	
551.92	7815	
552.11	7449.8	
552.31	9483.5	
552.5	9538.8	
552.69	9274.6	
552.89	7079.1	
553.08	9332.6	
553.28	9052	
553.47	7538.6	
553.67	8578.9	
553.86	10190	
554.06	8283.4	
554.25	6675.7	
554.44	7250.5	
554.64	10859	
554.83	10411	
555.03	7181.5	
555.22	7684.7	
555.42	9633	
555.61	9227.5	
555.8	7506.5	
556	7852.6	
556.19	8475.9	
556.39	9724.4	
556.58	7559.1	
556.78	7459.4	
556.97	9222	
557.16	8942.1	
557.36	8775.5	
557.55	7179.5	
557.75	8212.4	
557.94	9983.8	
558.13	7255.3	
558.33	7056.6	
558.52	9788.6	
558.72	8662.2	
558.91	7107.1	
559.1	7437.5	
559.3	8380.3	
559.49	8049.2	
559.69	6651.8	
559.88	7711.3	
560.07	9241.8	
560.27	9655.5	
560.46	7909.3	
560.66	8089.5	
560.85	9067	
561.04	8183.7	
561.24	7058.7	
561.43	7372.7	
561.63	8468.4	
561.82	8779.6	
562.01	8736.6	
562.21	7697.6	
562.4	9314.8	
562.59	10181	
562.79	7537.2	
562.98	7179.5	
563.18	9078	
563.37	10644	
563.56	8018.5	
563.76	7055.3	
563.95	8554.4	
564.14	8542.8	
564.34	7436.9	
564.53	7206.8	
564.73	9059.5	
564.92	9516.9	
565.11	7617.1	
565.31	7002.7	
565.5	9717.6	
565.69	8643.1	
565.89	7268.9	
566.08	7475.1	
566.27	9605.7	
566.47	9968.8	
566.66	8260.8	
566.85	6797.9	
567.05	9097.1	
567.24	8489.5	
567.44	7149.5	
567.63	8470.4	
567.82	9381.7	
568.02	9145.5	
568.21	7174.7	
568.4	7530.4	
568.6	8966	
568.79	9035	
568.98	6982.2	
569.18	7106.5	
569.37	8912.8	
569.56	10953	
569.76	7448.5	
569.95	8448.6	
570.14	9316.2	
570.34	9161.2	
570.53	6969.9	
570.72	6946	
570.91	9752.4	
571.11	8873.8	
571.3	7517.4	
571.49	8357.1	
571.69	8925.7	
571.88	8413.7	
572.07	8062.9	
572.27	8015.7	
572.46	8527.1	
572.65	9576.3	
572.85	7314	
573.04	7657.4	
573.23	9856.2	
573.43	9090.3	
573.62	6969.9	
573.81	7651.2	
574	9091.6	
574.2	8846.5	
574.39	7341.3	
574.58	7560.4	
574.78	10005	
574.97	9208.4	
575.16	7856	
575.36	8073.1	
575.55	9553.8	
575.74	9794.1	
575.93	6995.2	
576.13	8020.5	
576.32	8865.7	
576.51	9487.6	
576.71	7390.4	
576.9	8739.4	
577.09	9857.6	
577.28	9344.9	
577.48	7931.1	
577.67	6911.9	
577.86	9039.7	
578.05	9318.9	
578.25	7574.8	
578.44	7686	
578.63	9186.5	
578.83	10334	
579.02	6968.6	
579.21	8632.9	
579.4	9340.8	
579.6	9020.6	
579.79	7817.1	
579.98	10077	
580.17	9684.2	
580.37	9826.2	
580.56	7295.5	
580.75	8009.6	
580.94	10337	
581.14	10135	
581.33	8514.8	
581.52	7465.5	
581.71	9711.5	
581.91	10280	
582.1	7146	
582.29	7732.4	
582.48	9284.1	
582.68	9261.6	
582.87	8250.6	
583.06	7878.5	
583.25	9651.4	
583.45	9088.2	
583.64	8532.5	
583.83	9265	
584.02	9040.4	
584.21	9577.7	
584.41	8477.2	
584.6	7770.7	
584.79	9367.4	
584.98	10081	
585.18	7290.8	
585.37	7189.1	
585.56	8857.5	
585.75	9643.9	
585.94	7494.2	
586.14	8101.8	
586.33	10298	
586.52	9235	
586.71	7942	
586.91	7669	
587.1	8589.9	
587.29	9628.9	
587.48	7616.4	
587.67	7500.3	
587.87	9407	
588.06	9567.4	
588.25	8788.5	
588.44	8021.9	
588.63	9019.9	
588.83	9476.6	
589.02	7286	
589.21	7194.5	
589.4	8688.8	
589.59	8424.7	
589.78	6391	
589.98	6624.5	
590.17	8062.9	
590.36	8715.5	
590.55	6110.5	
590.74	7005.4	
590.94	10273	
591.13	8732.5	
591.32	6825.9	
591.51	6399.2	
591.7	9185.8	
591.89	8729.8	
592.09	6481.8	
592.28	7055.3	
592.47	7900.4	
592.66	9893.7	
592.85	6472.9	
593.05	6738.5	
593.24	8546.9	
593.43	9265.7	
593.62	6832	
593.81	7370	
594	8591.2	
594.19	8855.4	
594.39	6667.5	
594.58	6609.5	
594.77	8841.8	
594.96	9521	
595.15	6584.9	
595.34	7256	
595.54	8915.5	
595.73	8030.8	
595.92	6012.2	
596.11	7222.5	
596.3	9457.5	
596.49	8225.3	
596.68	7092.8	
596.88	7554.3	
597.07	9212.4	
597.26	8015.7	
597.45	6432.7	
597.64	7774.1	
597.83	8203.5	
598.02	8872.5	
598.22	6647.7	
598.41	7363.1	
598.6	8660.2	
598.79	8215.8	
598.98	6623.1	
599.17	7687.4	
599.36	8794.7	
599.55	9923.1	
599.74	8823.3	
599.94	8566	
600.13	9407.7	
600.32	8159.1	
600.51	6483.9	
600.7	6617.7	
600.89	9996.1	
601.08	10022	
601.27	6417.7	
601.47	7304.4	
601.66	9282.8	
601.85	9985.9	
602.04	7201.3	
602.23	7501.7	
602.42	8293.6	
602.61	8939.4	
602.8	6988.4	
602.99	6869.6	
603.18	8705.2	
603.37	9064.3	
603.57	7527.7	
603.76	8102.4	
603.95	9858.9	
604.14	9292.3	
604.33	6960.4	
604.52	7339.2	
604.71	8978.3	
604.9	8632.9	
605.09	7970.7	
605.28	7679.9	
605.47	9574.9	
605.66	9159.2	
605.86	7492.2	
606.05	6994.5	
606.24	9492.3	
606.43	8052.6	
606.62	7224.6	
606.81	8099.7	
607	9427.5	
607.19	8758.5	
607.38	6795.2	
607.57	6960.4	
607.76	8486.1	
607.95	7970	
608.14	7349.5	
608.33	7967.3	
608.52	8374.1	
608.72	9298.5	
608.91	6608.1	
609.1	6423.8	
609.29	8575.5	
609.48	8011.7	
609.67	7584.3	
609.86	6577.4	
610.05	8150.9	
610.24	8570.1	
610.43	6474.3	
610.62	6116.6	
610.81	9741.5	
611	9470.5	
611.19	6631.3	
611.38	7365.2	
611.57	8826.1	
611.76	10146	
611.95	6363	
612.14	6183.5	
612.33	8677.2	
612.52	8147.5	
612.71	6963.1	
612.9	6115.2	
613.09	7781.6	
613.28	10213	
613.47	6689.3	
613.66	7658	
613.85	8738	
614.04	8334.6	
614.24	6808.8	
614.43	6040.8	
614.62	8914.8	
614.81	8846.5	
615	7387	
615.19	7402.7	
615.38	8113.4	
615.57	8514.1	
615.76	7216.4	
615.95	8205.5	
616.14	8909.3	
616.33	8552.3	
616.52	7555	
616.71	7870.3	
616.9	8939.4	
617.09	8860.9	
617.28	6894.8	
617.47	8159.1	
617.66	8046.5	
617.85	8066.3	
618.04	7813.7	
618.22	7346.1	
618.41	8445.1	
618.6	9379.7	
618.79	7196.6	
618.98	6873.7	
619.17	9686.9	
619.36	7933.1	
619.55	7075	
619.74	7077.8	
619.93	8936	
620.12	8282	
620.31	7701.7	
620.5	7844.4	
620.69	9522.4	
620.88	9805.7	
621.07	8555.7	
621.26	7519.5	
621.45	9045.2	
621.64	9095	
621.83	7613	
622.02	6820.4	
622.21	9024.7	
622.4	8819.9	
622.59	8162.5	
622.78	7885.4	
622.97	8460.8	
623.16	9451.4	
623.35	7626	
623.54	6746	
623.72	8647.2	
623.91	8875.2	
624.1	7870.3	
624.29	6465.4	
624.48	9938.1	
624.67	9095.7	
624.86	7785	
625.05	6732.4	
625.24	10097	
625.43	8385.7	
625.62	9467.8	
625.81	6939.2	
626	9537.4	
626.19	8662.2	
626.38	7791.8	
626.56	7086.7	
626.75	8447.2	
626.94	9222	
627.13	7669	
627.32	6361.7	
627.51	9082.7	
627.7	10450	
627.89	6514.6	
628.08	7657.4	
628.27	8303.1	
628.46	8445.8	
628.65	6854.6	
628.83	6471.6	
629.02	9142.8	
629.21	8340	
629.4	7337.2	
629.59	7567.2	
629.78	8354.3	
629.97	9353.1	
630.16	7576.1	
630.35	7059.3	
630.54	9796.8	
630.72	9514.2	
630.91	7021.1	
631.1	7690.8	
631.29	8979.7	
631.48	9154.4	
631.67	7748.8	
631.86	7202	
632.05	8587.8	
632.24	8717.5	
632.42	6877.8	
632.61	7436.9	
632.8	8773.5	
632.99	8340	
633.18	7466.9	
633.37	7948.2	
633.56	9025.4	
633.75	8892.3	
633.93	7488.7	
634.12	7174	
634.31	9797.5	
634.5	9450	
634.69	7234.1	
634.88	7676.5	
635.07	8731.9	
635.25	9390.6	
635.44	8261.5	
635.63	8371.4	
635.82	8720.9	
636.01	8150.9	
636.2	8131.8	
636.39	7585.7	
636.57	9891	
636.76	9470.5	
636.95	7098.3	
637.14	8516.1	
637.33	9118.9	
637.52	10064	
637.7	6862.1	
637.89	7872.4	
638.08	8637.6	
638.27	10295	
638.46	7905.2	
638.65	8312	
638.83	10247	
639.02	8550.3	
639.21	7789.8	
639.4	8289.5	
639.59	8968.7	
639.78	8521.6	
639.96	7021.1	
640.15	7060.7	
640.34	8843.8	
640.53	8992.6	
640.72	6716.7	
640.91	7146	
641.09	8311.3	
641.28	9719	
641.47	7066.2	
641.66	7871	
641.85	9026.1	
642.03	9255.5	
642.22	7775.5	
642.41	7144	
642.6	8366.6	
642.79	7862.2	
642.97	6951.5	
643.16	7712.7	
643.35	8310.7	
643.54	8087.4	
643.73	6852.5	
643.91	7570.7	
644.1	7940	
644.29	8523	
644.48	6918	
644.67	6871.6	
644.85	8118.8	
645.04	8325	
645.23	6345.3	
645.42	6678.4	
645.6	7904.5	
645.79	9131.9	
645.98	6580.1	
646.17	5643.5	
646.36	7567.2	
646.54	8291.5	
646.73	7352.2	
646.92	6174.6	
647.11	7843.7	
647.29	8933.9	
647.48	6329.6	
647.67	6019.7	
647.86	9090.3	
648.05	9177.6	
648.23	6780.1	
648.42	8141.4	
648.61	8628.8	
648.8	8400.1	
648.98	6404	
649.17	6698.2	
649.36	7965.2	
649.55	7423.2	
649.73	6438.1	
649.92	7202	
650.11	7733.1	
650.3	8014.4	
650.48	6414.9	
650.67	6233.3	
650.86	8418.5	
651.05	7371.3	
651.23	6574	
651.42	6523.5	
651.61	7948.8	
651.79	8030.1	
651.98	6676.4	
652.17	6303	
652.36	8322.9	
652.54	7404.8	
652.73	6301.6	
652.92	6151.4	
653.11	8380.3	
653.29	8387.8	
653.48	5532.9	
653.67	6508.4	
653.85	8046.5	
654.04	9103.2	
654.23	6696.9	
654.42	6287.9	
654.6	7460.8	
654.79	8181	
654.98	5743.2	
655.16	6327.5	
655.35	7232.7	
655.54	7129.7	
655.73	5945.3	
655.91	5922	
656.1	8416.5	
656.29	7247.8	
656.47	5494.7	
656.66	7318.8	
656.85	7540.6	
657.03	7604.1	
657.22	5971.9	
657.41	6150.7	
657.59	7603.4	
657.78	7345.4	
657.97	5740.5	
658.16	6472.3	
658.34	8313.4	
658.53	8685.4	
658.72	7408.9	
658.9	7900.4	
659.09	7706.5	
659.28	7834.2	
659.46	6227.9	
659.65	6249	
659.84	7507.9	
660.02	8043.1	
660.21	5999.2	
660.4	6004	
660.58	8456.1	
660.77	7747.5	
660.96	6592.4	
661.14	5662	
661.33	8908	
661.52	8843.8	
661.7	5600.5	
661.89	9428.2	
662.08	7430.7	
662.26	6966.5	
662.45	5949.3	
662.64	6011.5	
662.82	8094.3	
663.01	7220.5	
663.2	6025.1	
663.38	6796.5	
663.57	8078.6	
663.75	7884.7	
663.94	6356.2	
664.13	7660.1	
664.31	7356.3	
664.5	8123.6	
664.69	6733	
664.87	7256.6	
665.06	7151.5	
665.25	7822.6	
665.43	7430.7	
665.62	7497.6	
665.8	8267	
665.99	7551.5	
666.18	6344.6	
666.36	6584.2	
666.55	8192.6	
666.74	8101.1	
666.92	6019	
667.11	7680.6	
667.29	7533.1	
667.48	8188.5	
667.67	7252.5	
667.85	6391	
668.04	7512.6	
668.22	7580.9	
668.41	6465.4	
668.6	6533.7	
668.78	7330.4	
668.97	7537.2	
669.15	6723.5	
669.34	5705.6	
669.53	7293.5	
669.71	7730.4	
669.9	5920	
670.08	6614.3	
670.27	7359.7	
670.46	7916.1	
670.64	6840.2	
670.83	7098.3	
671.01	7242.3	
671.2	7905.2	
671.38	6019	
671.57	5913.2	
671.76	8589.2	
671.94	9129.2	
672.13	5819	
672.31	7020.4	
672.5	8009.6	
672.69	7320.8	
672.87	5924.1	
673.06	6320.7	
673.24	7862.8	
673.43	7480.5	
673.61	6799.9	
673.8	6233.3	
673.98	8105.9	
674.17	8271.7	
674.36	6896.2	
674.54	6662.7	
674.73	7716.1	
674.91	8114.7	
675.1	6438.8	
675.28	6022.4	
675.47	7591.8	
675.65	8131.8	
675.84	6260.6	
676.03	6627.9	
676.21	7378.8	
676.4	6937.2	
676.58	7139.2	
676.77	6846.4	
676.95	8910	
677.14	7341.3	
677.32	5947.3	
677.51	5772.5	
677.69	8133.8	
677.88	6917.4	
678.06	5826.5	
678.25	5978.7	
678.44	7675.8	
678.62	7395.2	
678.81	5631.9	
678.99	6632.7	
679.18	8435.6	
679.36	7906.5	
679.55	6275	
679.73	6850.5	
679.92	7894.2	
680.1	7380.2	
680.29	7467.6	
680.47	6281.8	
680.66	7258	
680.84	8174.8	
681.03	5574.6	
681.21	6745.3	
681.4	7285.3	
681.58	7197.2	
681.77	6012.8	
681.95	5919.3	
682.14	8158.4	
682.32	8569.4	
682.51	6870.3	
682.69	5696.8	
682.88	7245	
683.06	7913.4	
683.25	6506.4	
683.43	7062.8	
683.62	7432.8	
683.8	7864.9	
683.99	7023.2	
684.17	6270.2	
684.36	8566.7	
684.54	7223.9	
684.73	5273.5	
684.91	5470.1	
685.1	7507.2	
685.28	6895.5	
685.46	6222.4	
685.65	6305.7	
685.83	7873.8	
686.02	7212.9	
686.2	5804.6	
686.39	5935.7	
686.57	6929.6	
686.76	8678.6	
686.94	5759.6	
687.13	5960.3	
687.31	7783	
687.5	7342.7	
687.68	5384.1	
687.86	6688	
688.05	9033.6	
688.23	6768.5	
688.42	6718	
688.6	5888.6	
688.79	7208.8	
688.97	7105.8	
689.16	6262	
689.34	5176.6	
689.52	7967.3	
689.71	8144.1	
689.89	6515.3	
690.08	5713.8	
690.26	7328.3	
690.45	7342	
690.63	6616.3	
690.81	5948.7	
691	7049.1	
691.18	7051.2	
691.37	6073.6	
691.55	8212.4	
691.74	6922.8	
691.92	9063.6	
692.1	6127.5	
692.29	5530.2	
692.47	7273.7	
692.66	6595.8	
692.84	5776.6	
693.02	6492.1	
693.21	6722.8	
693.39	7199.3	
693.58	6543.3	
693.76	5913.2	
693.94	8546.9	
694.13	8357.1	
694.31	5902.2	
694.5	6990.4	
694.68	7188.4	
694.86	7468.9	
695.05	6249.7	
695.23	6677.1	
695.42	7823.2	
695.6	10175	
695.78	6874.3	
695.97	5896.1	
696.15	7833.5	
696.34	7120.8	
696.52	5703.6	
696.7	6499.6	
696.89	7541.3	
697.07	6934.4	
697.25	6431.3	
697.44	8034.9	
697.62	7462.8	
697.81	7884	
697.99	6012.2	
698.17	6547.4	
698.36	6844.3	
698.54	7486.7	
698.72	6384.9	
698.91	5444.2	
699.09	7090.8	
699.28	7052.5	
699.46	6093.4	
699.64	5940.5	
699.83	6858	
700.01	8313.4	
700.19	6870.9	
700.38	5227.1	
700.56	8242.4	
700.74	7083.9	
700.93	5696.8	
701.11	6494.8	
701.29	7706.5	
701.48	8755.1	
701.66	5806.7	
701.84	5848.3	
702.03	7200	
702.21	7819.1	
702.39	5378	
702.58	6020.3	
702.76	7484.6	
702.94	7712	
703.13	5426.4	
703.31	7920.9	
703.49	6855.9	
703.68	8372.8	
703.86	5588.9	
704.04	6651.8	
704.23	7389.8	
704.41	7824.6	
704.59	5812.1	
704.78	6822.5	
704.96	8579.6	
705.14	7875.8	
705.33	5553.4	
705.51	6336.4	
705.69	7278.5	
705.87	8103.8	
706.06	6683.9	
706.24	5505.6	
706.42	7630.7	
706.61	7795.9	
706.79	6741.2	
706.97	5573.2	
707.16	7008.8	
707.34	7658.7	
707.52	6627.2	
707.7	5808	
707.89	7207.5	
708.07	6860.7	
708.25	6694.8	
708.44	6818.4	
708.62	7085.3	
708.8	8268.3	
708.98	7008.1	
709.17	5889.3	
709.35	7563.8	
709.53	7559.7	
709.72	5596.4	
709.9	5750.7	
710.08	7709.2	
710.26	7802.1	
710.45	7289.4	
710.63	5883.8	
710.81	7479.9	
710.99	7439.6	
711.18	6509.8	
711.36	6024.4	
711.54	7207.5	
711.72	7939.3	
711.91	6034.7	
712.09	5456.5	
712.27	7328.3	
712.45	7974.1	
712.64	6313.2	
712.82	5123.3	
713	6663.4	
713.18	6787	
713.37	5218.2	
713.55	6371.9	
713.73	7576.8	
713.91	6124.8	
714.1	5546.6	
714.28	4977.2	
714.46	7172	
714.64	6383.5	
714.83	4473.4	
715.01	5385.5	
715.19	6548.7	
715.37	5896.8	
715.55	5019.6	
715.74	5297.4	
715.92	7537.9	
716.1	5462.6	
716.28	6441.5	
716.47	5507.7	
716.65	6193.1	
716.83	6247.7	
717.01	5408.7	
717.19	5420.3	
717.38	8516.1	
717.56	6038.1	
717.74	5810.8	
717.92	4837.3	
718.1	7406.8	
718.29	6551.5	
718.47	4582	
718.65	5186.8	
718.83	7288.7	
719.01	7114.6	
719.2	4384	
719.38	5454.4	
719.56	6733	
719.74	8372.1	
719.92	4865.3	
720.11	5990.3	
720.29	6682.5	
720.47	5862	
720.65	4444.1	
720.83	5407.3	
721.02	6268.8	
721.2	5993	
721.38	5380.7	
721.56	4715.1	
721.74	5560.2	
721.92	5756.8	
722.11	6016.9	
722.29	5635.3	
722.47	7049.1	
722.65	6201.2	
722.83	4752	
723.01	5690.6	
723.2	6297.5	
723.38	6546.7	
723.56	4162.2	
723.74	5354.8	
723.92	5708.4	
724.1	6885.3	
724.29	4663.2	
724.47	5846.3	
724.65	5816.2	
724.83	5766.4	
725.01	4566.3	
725.19	5554.8	
725.37	5849	
725.56	5921.4	
725.74	4416.1	
725.92	4653.7	
726.1	5720	
726.28	6022.4	
726.46	5132.9	
726.64	4832.5	
726.83	6092.7	
727.01	6349.4	
727.19	4420.9	
727.37	5245.5	
727.55	6133	
727.73	6703.7	
727.91	4355.3	
728.09	4272.1	
728.28	6768.5	
728.46	7401.4	
728.64	5481	
728.82	5393.7	
729	7986.4	
729.18	7210.9	
729.36	4599.1	
729.54	7109.2	
729.72	8158.4	
729.91	6485.2	
730.09	6662.7	
730.27	5413.5	
730.45	6339.1	
730.63	7097.6	
730.81	6045.6	
730.99	4970.4	
731.17	7567.9	
731.35	6062	
731.53	5548.6	
731.71	5135.6	
731.9	7243	
732.08	7488.7	
732.26	5424.4	
732.44	5029.1	
732.62	7511.9	
732.8	6985.6	
732.98	5811.5	
733.16	4797.7	
733.34	7041.6	
733.52	5793.7	
733.7	5381.4	
733.88	5791	
734.07	6914.6	
734.25	6620.4	
734.43	4858.5	
734.61	6511.2	
734.79	8172.1	
734.97	6481.1	
735.15	5096.7	
735.33	5347.2	
735.51	6849.8	
735.69	6506.4	
735.87	6593.1	
736.05	5617.6	
736.23	6772.6	
736.41	6549.4	
736.59	5423.7	
736.77	5603.9	
736.95	7230.7	
737.13	6655.2	
737.32	5109	
737.5	5322.7	
737.68	7853.3	
737.86	6548.7	
738.04	4937	
738.22	6869.6	
738.4	6375.3	
738.58	6632	
738.76	5629.2	
738.94	4554	
739.12	6516.6	
739.3	6399.9	
739.48	6348.7	
739.66	5957.5	
739.84	6851.8	
740.02	6812.9	
740.2	4623.6	
740.38	5051	
740.56	7154.9	
740.74	6012.2	
740.92	5683.8	
741.1	5715.9	
741.28	6627.9	
741.46	6479.1	
741.64	5278.3	
741.82	5828.5	
742	6640.9	
742.18	6659.3	
742.36	5497.4	
742.54	5003.2	
742.72	7264.1	
742.9	6034.7	
743.08	5937.1	
743.26	4670.7	
743.44	7442.3	
743.62	7339.9	
743.8	6108.4	
743.98	5098.8	
744.16	7060	
744.34	6774.7	
744.52	6052.4	
744.7	5926.8	
744.88	7187.7	
745.06	6741.9	
745.24	6008.7	
745.42	6135	
745.6	7245.7	
745.78	7064.1	
745.96	4876.2	
746.14	5170.4	
746.32	8051.9	
746.5	7284.6	
746.68	5840.1	
746.86	5248.3	
747.03	7787.7	
747.21	6040.8	
747.39	5806	
747.57	5226.4	
747.75	6853.9	
747.93	7367.2	
748.11	5151.3	
748.29	5126.1	
748.47	8538	
748.65	6617	
748.83	5960.3	
749.01	5682.4	
749.19	7180.2	
749.37	6268.1	
749.55	5557.5	
749.73	5706.3	
749.91	6795.2	
750.09	6552.8	
750.26	5636	
750.44	5073.5	
750.62	6893.5	
750.8	6760.3	
750.98	4924	
751.16	5334.3	
751.34	6838.9	
751.52	6171.9	
751.7	6054.5	
751.88	4954	
752.06	7338.6	
752.24	7147.4	
752.42	4808.6	
752.59	5229.8	
752.77	6731.7	
752.95	8116.1	
753.13	5997.8	
753.31	5414.8	
753.49	6480.5	
753.67	7010.2	
753.85	5711.1	
754.03	5259.9	
754.21	7243.7	
754.38	7576.1	
754.56	5449	
754.74	4378.6	
754.92	6406	
755.1	7075	
755.28	4365.6	
755.46	4229.1	
755.64	7537.9	
755.82	7662.8	
755.99	4344.4	
756.17	4422.9	
756.35	5010	
756.53	6701.6	
756.71	3317.7	
756.89	4332.1	
757.07	6285.2	
757.25	5324	
757.42	4964.3	
757.6	5883.1	
757.78	6432	
757.96	5384.8	
758.14	4629.8	
758.32	4177.2	
758.5	4870.1	
758.67	5739.8	
758.85	4487.8	
759.03	4560.1	
759.21	5953.4	
759.39	5358.9	
759.57	4029	
759.75	5277.6	
759.92	6576.7	
760.1	5834	
760.28	5567.1	
760.46	5911.1	
760.64	5674.2	
760.82	5472.9	
760.99	5565.7	
761.17	4687.1	
761.35	6611.5	
761.53	5582.8	
761.71	4913.8	
761.89	5616.2	
762.06	6563.7	
762.24	6008.1	
762.42	4956.8	
762.6	4837.3	
762.78	6106.4	
762.96	6815.6	
763.13	5398.4	
763.31	5181.4	
763.49	7092.1	
763.67	6108.4	
763.85	6006.7	
764.02	6522.8	
764.2	7271.7	
764.38	6466.8	
764.56	5040.7	
764.74	5948.7	
764.91	7417.7	
765.09	6242.9	
765.27	4799.1	
765.45	4521.2	
765.63	7534.5	
765.8	7348.8	
765.98	4255.7	
766.16	4633.9	
766.34	5894.7	
766.52	5586.9	
766.69	5659.2	
766.87	4494.6	
767.05	6274.3	
767.23	7047.1	
767.41	4760.8	
767.58	5051	
767.76	6830	
767.94	7004.1	
768.12	4804.5	
768.29	5664.7	
768.47	6386.2	
768.65	7095.5	
768.83	4449.6	
769	5681.7	
769.18	5859.2	
769.36	6659.3	
769.54	5453.7	
769.72	4523.3	
769.89	6888	
770.07	7049.1	
770.25	4803.9	
770.43	6104.3	
770.6	7718.1	
770.78	8174.1	
770.96	5038.7	
771.14	5700.9	
771.31	6800.6	
771.49	6102.3	
771.67	4151.2	
771.85	4375.8	
772.02	5347.9	
772.2	6141.2	
772.38	5111	
772.55	4677.6	
772.73	6341.9	
772.91	6137.1	
773.09	4986.1	
773.26	5120.6	
773.44	6244.9	
773.62	6016.2	
773.8	4464.6	
773.97	4203.1	
774.15	6329.6	
774.33	5976.7	
774.5	4343.7	
774.68	4779.3	
774.86	6578.8	
775.04	5986.2	
775.21	4483	
775.39	4468.7	
775.57	6298.2	
775.74	6681.8	
775.92	4244.8	
776.1	4216.1	
776.27	6255.9	
776.45	7505.8	
776.63	4387.4	
776.81	3897.3	
776.98	5823.1	
777.16	6999.3	
777.34	4616.1	
777.51	4902.8	
777.69	5816.2	
777.87	5609.4	
778.04	4577.2	
778.22	5254.4	
778.4	5605.3	
778.57	6303	
778.75	3807.9	
778.93	4103.4	
779.1	5354.1	
779.28	5216.2	
779.46	3848.1	
779.64	4331.5	
779.81	6420.4	
779.99	7322.2	
780.17	5165.7	
780.34	5313.1	
780.52	5852.4	
780.69	6078.4	
780.87	4662.5	
781.05	4190.1	
781.22	5851.7	
781.4	5937.1	
781.58	4301.4	
781.75	3422.8	
781.93	5914.5	
782.11	5278.3	
782.28	5182	
782.46	4270	
782.64	5091.9	
782.81	6141.9	
782.99	4431.1	
783.17	4307.6	
783.34	5951.4	
783.52	5185.5	
783.69	4578.6	
783.87	5331.5	
784.05	5269.4	
784.22	5223	
784.4	5354.8	
784.58	4584	
784.75	6176	
784.93	5285.8	
785.1	4293.2	
785.28	4943.8	
785.46	5874.3	
785.63	5203.9	
785.81	4197.7	
785.99	4092.5	
786.16	5362.9	
786.34	5752.1	
786.51	4124.6	
786.69	4487.1	
786.87	5001.8	
787.04	5540.4	
787.22	3922.5	
787.39	4916.5	
787.57	5223.7	
787.75	6362.4	
787.92	5109	
788.1	5125.4	
788.27	5262.6	
788.45	5023	
788.63	4754	
788.8	3447.4	
788.98	5570.5	
789.15	4891.2	
789.33	3573	
789.5	4259.8	
789.68	6184.9	
789.86	6231.3	
790.03	4676.2	
790.21	4044.1	
790.38	6093.4	
790.56	5274.9	
790.73	3934.8	
790.91	3986	
791.09	5166.3	
791.26	5955.5	
791.44	4218.8	
791.61	3573	
791.79	5212.1	
791.96	5212.8	
792.14	3769.6	
792.32	3319.8	
792.49	5180.7	
792.67	5252.4	
792.84	3833.8	
793.02	3593.5	
793.19	5675.6	
793.37	6433.4	
793.54	3267.2	
793.72	3680.2	
793.89	6535.1	
794.07	5205.3	
794.25	4373.1	
794.42	3395.5	
794.6	6294.1	
794.77	5874.9	
794.95	4592.2	
795.12	3984.7	
795.3	5108.3	
795.47	5759.6	
795.65	4422.9	
795.82	4212.7	
796	4971.8	
796.17	6949.4	
796.35	4110.3	
796.52	4863.2	
796.7	5726.8	
796.87	5801.2	
797.05	5075.5	
797.22	4954	
797.4	5767.8	
797.57	6832	
797.75	4192.2	
797.92	3918.4	
798.1	6077.7	
798.27	5109	
798.45	3371	
798.62	3599	
798.8	5460.6	
798.97	5968.5	
799.15	4467.3	
799.32	4210.6	
799.5	4717.8	
799.67	5575.9	
799.85	4598.4	
800.02	3303.4	
800.2	5130.2	
800.37	5456.5	
800.55	4749.9	
800.72	3975.1	
800.9	5911.1	
801.07	6361	
801.25	5389.6	
801.42	4330.8	
801.6	5951.4	
801.77	5692	
801.95	3907.5	
802.12	3838.6	
802.29	5642.2	
802.47	5644.9	
802.64	4272.7	
802.82	3220.1	
802.99	5024.3	
803.17	6124.1	
803.34	4188.1	
803.52	3806.5	
803.69	6797.9	
803.87	4855.7	
804.04	4169.7	
804.21	4284.4	
804.39	6233.3	
804.56	5313.1	
804.74	3533.4	
804.91	4365.6	
805.09	5072.1	
805.26	5181.4	
805.44	3620.8	
805.61	3983.3	
805.78	5757.5	
805.96	5816.2	
806.13	4341	
806.31	4654.4	
806.48	4605.2	
806.66	5203.9	
806.83	4271.4	
807	4179.9	
807.18	5061.2	
807.35	5534.3	
807.53	4205.8	
807.7	3342.3	
807.87	6371.2	
808.05	5101.5	
808.22	4617.5	
808.4	3339.6	
808.57	5207.3	
808.74	4775.9	
808.92	3806.5	
809.09	4943.1	
809.27	4989.5	
809.44	5641.5	
809.61	3387.3	
809.79	3761.4	
809.96	6333	
810.14	5865.4	
810.31	3310.2	
810.48	4101.4	
810.66	5184.8	
810.83	6061.3	
811.01	3857.7	
811.18	4606.6	
811.35	5916.6	
811.53	4564.9	
811.7	4663.9	
811.87	4384	
812.05	5139	
812.22	5059.2	
812.39	3693.2	
812.57	3642.7	
812.74	5132.2	
812.92	6898.2	
813.09	4093.2	
813.26	4440	
813.44	6670.9	
813.61	5040.7	
813.78	3353.2	
813.96	4531.5	
814.13	5176.6	
814.3	4809.3	
814.48	4841.4	
814.65	4020.2	
814.82	6392.4	
815	4931.5	
815.17	4114.4	
815.34	5067.4	
815.52	5020.9	
815.69	5031.9	
815.87	4111	
816.04	3565.5	
816.21	5204.6	
816.38	4472.8	
816.56	4009.2	
816.73	3720.5	
816.9	6561	
817.08	5892	
817.25	3753.2	
817.42	4772.4	
817.6	4703.5	
817.77	5122.7	
817.94	4226.3	
818.12	3637.2	
818.29	4840.7	
818.46	7742.7	
818.64	3880.2	
818.81	3594.2	
818.98	4810	
819.16	7002.7	
819.33	4459.8	
819.5	4061.8	
819.67	5515.9	
819.85	6246.3	
820.02	4039.3	
820.19	4287.1	
820.37	5414.1	
820.54	4954.7	
820.71	4208.6	
820.88	5250.3	
821.06	5466	
821.23	4919.2	
821.4	4242.7	
821.58	4183.3	
821.75	5889.3	
821.92	5323.4	
822.09	3399.6	
822.27	3450.1	
822.44	5183.4	
822.61	5034.6	
822.79	3398.9	
822.96	6638.1	
823.13	5664	
823.3	4883.7	
823.48	3950.5	
823.65	3534.8	
823.82	5866.7	
823.99	4681.7	
824.17	5036.6	
824.34	3639.2	
824.51	6787	
824.68	5165.7	
824.86	3824.2	
825.03	4252.3	
825.2	5100.8	
825.37	6324.1	
825.55	3723.2	
825.72	4220.2	
825.89	6887.3	
826.06	6423.8	
826.24	4098	
826.41	4016.7	
826.58	6223.8	
826.75	5450.3	
826.92	3201.7	
827.1	3547.1	
827.27	8573.5	
827.44	6836.1	
827.61	3839.9	
827.79	4674.8	
827.96	4864.6	
828.13	5281	
828.3	4037.9	
828.47	3391.4	
828.65	5431.2	
828.82	5371.8	
828.99	5236.7	
829.16	4557.4	
829.34	5763	
829.51	5494	
829.68	4114.4	
829.85	4368.3	
830.02	6096.8	
830.2	5776.6	
830.37	3216	
830.54	5013.4	
830.71	6612.9	
830.88	5141.8	
831.05	3237.8	
831.23	3743	
831.4	6296.8	
831.57	7064.8	
831.74	3884.3	
831.91	3386	
832.09	5301.5	
832.26	5773.2	
832.43	3958	
832.6	4530.8	
832.77	5425.1	
832.94	6128.9	
833.12	3126.6	
833.29	3984	
833.46	4999.1	
833.63	7319.4	
833.8	4379.9	
833.97	4013.3	
834.15	5771.9	
834.32	5507	
834.49	4232.5	
834.66	4274.1	
834.83	6008.7	
835	4874.2	
835.17	3814.7	
835.35	3908.2	
835.52	5715.2	
835.69	5532.9	
835.86	4059.1	
836.03	3335.5	
836.2	5745.9	
836.37	5307.7	
836.55	4003.1	
836.72	3713.6	
836.89	5307	
837.06	5756.2	
837.23	4142.4	
837.4	4442	
837.57	6670.9	
837.75	7375.4	
837.92	3652.9	
838.09	3868.6	
838.26	5302.9	
838.43	6091.3	
838.6	4161.5	
838.77	3755.3	
838.94	6985.6	
839.11	6662.7	
839.29	4042.7	
839.46	3203.7	
839.63	5743.9	
839.8	5450.3	
839.97	3926	
840.14	3846.8	
840.31	5516.5	
840.48	5770.5	
840.65	3188.7	
840.82	3817.4	
841	5794.4	
841.17	5759.6	
841.34	3605.1	
841.51	3639.2	
841.68	5657.2	
841.85	5398.4	
842.02	3701.4	
842.19	3041.9	
842.36	5484.5	
842.53	5496.7	
842.7	3579.8	
842.87	4393.6	
843.05	7236.8	
843.22	5382.7	
843.39	3422.8	
843.56	3608.5	
843.73	5197.1	
843.9	5753.4	
844.07	5826.5	
844.24	4816.8	
844.41	8551.6	
844.58	4992.3	
844.75	3443.3	
844.92	3781.9	
845.09	5741.8	
845.26	5747.3	
845.43	3526.6	
845.6	3772.4	
845.77	5808	
845.94	5457.2	
846.12	3985.3	
846.29	4179.2	
846.46	5961	
846.63	5797.1	
846.8	3541.6	
846.97	4222.2	
847.14	6227.9	
847.31	5654.4	
847.48	4055.7	
847.65	4444.8	
847.82	6021	
847.99	6026.5	
848.16	4746.5	
848.33	4426.3	
848.5	5286.5	
848.67	6229.9	
848.84	3510.9	
849.01	3679.5	
849.18	5143.8	
849.35	4806.6	
849.52	4410	
849.69	3495.2	
849.86	5930.9	
850.03	6174.6	
850.2	3567.6	
850.37	4328.7	
850.54	6135.7	
850.71	5418.9	
850.88	4297.3	
851.05	3478.1	
851.22	5684.5	
851.39	6313.9	
851.56	3364.1	
851.73	4087.7	
851.9	4999.8	
852.07	5994.4	
852.24	3913.7	
852.41	3581.2	
852.58	5636	
852.75	5098.8	
852.92	3999.7	
853.09	3472.7	
853.26	5355.4	
853.43	6124.8	
853.6	3530	
853.77	3003	
853.94	6277.7	
854.11	5040.7	
854.28	5315.2	
854.44	3880.9	
854.61	6726.9	
854.78	5916.6	
854.95	3566.2	
855.12	4495.3	
855.29	4589.5	
855.46	6326.9	
855.63	3553.2	
855.8	4928.8	
855.97	5313.8	
856.14	6094.8	
856.31	5006.6	
856.48	3820.1	
856.65	5246.2	
856.82	4977.9	
856.99	3402.4	
857.16	3827	
857.33	7071	
857.49	5329.5	
857.66	3868.6	
857.83	4123.2	
858	5365.7	
858.17	5484.5	
858.34	3350.5	
858.51	3578.5	
858.68	6509.1	
858.85	6509.1	
859.02	4097.3	
859.19	4390.8	
859.36	5026.4	
859.52	5055.8	
859.69	3577.1	
859.86	4257.7	
860.03	5129.5	
860.2	6413.6	
860.37	3203	
860.54	3595.6	
860.71	5971.9	
860.88	6481.8	
861.05	4001.7	
861.21	4503.5	
861.38	6472.9	
861.55	4984.8	
861.72	3210.5	
861.89	4005.8	
862.06	6059.9	
862.23	6517.3	
862.4	3438.5	
862.56	3710.9	
862.73	5816.2	
862.9	5565	
863.07	4187.4	
863.24	3209.8	
863.41	4924	
863.58	5046.9	
863.75	3631	
863.91	4110.3	
864.08	6368.5	
864.25	5882.4	
864.42	4513.7	
864.59	5017.5	
864.76	6683.2	
864.93	5033.2	
865.09	3478.1	
865.26	3777.8	
865.43	6240.8	
865.6	6619	
865.77	3078.8	
865.94	3512.3	
866.1	6341.2	
866.27	6064	
866.44	5354.8	
866.61	3333.4	
866.78	5430.5	
866.95	5895.4	
867.11	3397.6	
867.28	3180.5	
867.45	6146	
867.62	5113.8	
867.79	4110.3	
867.96	3548.4	
868.12	5048.9	
868.29	6027.9	
868.46	3109.5	
868.63	4746.5	
868.8	6189	
868.97	5883.8	
869.13	3728	
869.3	3736.9	
869.47	5830.6	
869.64	6143.2	
869.81	3549.8	
869.97	3560.1	
870.14	5822.4	
870.31	6408.1	
870.48	3440.6	
870.65	4461.8	
870.81	5311.7	
870.98	5376.6	
871.15	4040.6	
871.32	3685	
871.48	5770.5	
871.65	6506.4	
871.82	3517.7	
871.99	3906.2	
872.16	6853.2	
872.32	6268.8	
872.49	3530.7	
872.66	3639.2	
872.83	5984.8	
872.99	5229.1	
873.16	4078.2	
873.33	3512.9	
873.5	5559.6	
873.67	5625.1	
873.83	3817.4	
874	4810.7	
874.17	5781.4	
874.34	6862.7	
874.5	4600.4	
874.67	4433.2	
874.84	6416.3	
875.01	4993.6	
875.17	4995	
875.34	3508.9	
875.51	5683.1	
875.68	6852.5	
875.84	4317.8	
876.01	5203.9	
876.18	5923.4	
876.34	5883.1	
876.51	3572.3	
876.68	3510.2	
876.85	5359.5	
877.01	6232	
877.18	5081.7	
877.35	3502.7	
877.52	5561.6	
877.68	4950.6	
877.85	3449.5	
878.02	3476.8	
878.18	5498.8	
878.35	5218.2	
878.52	2843.3	
878.69	4006.5	
878.85	5988.3	
879.02	5924.1	
879.19	5068.7	
879.35	3857	
879.52	5956.9	
879.69	6184.9	
879.86	3026.9	
880.02	4012	
880.19	5429.2	
880.36	6648.4	
880.52	4104.8	
880.69	4194.2	
880.86	6064	
881.02	6096.8	
881.19	3836.5	
881.36	3895.2	
881.52	5892.7	
881.69	5259.2	
881.86	3790.1	
882.02	3726.6	
882.19	6176.7	
882.36	7319.4	
882.52	3648.8	
882.69	4997.7	
882.86	5664	
883.02	5631.2	
883.19	4351.9	
883.36	4099.4	
883.52	6033.3	
883.69	6932.4	
883.86	3557.3	
884.02	3231.7	
884.19	6032.6	
884.36	5539.1	
884.52	4031.8	
884.69	3719.1	
884.86	5289.9	
885.02	6594.5	
885.19	4011.3	
885.36	4073.4	
885.52	5528.2	
885.69	5752.1	
885.86	5126.1	
886.02	4577.9	
886.19	5967.1	
886.35	5363.6	
886.52	3953.3	
886.69	5066	
886.85	5096.7	
887.02	6358.3	
887.19	6358.3	
887.35	6358.3	
887.52	6358.3	
887.68	6358.3	
887.85	6358.3	
888.02	6358.3	
888.18	6358.3	
888.35	6358.3	
888.51	6358.3	
888.68	6358.3	
888.85	6358.3	
889.01	6358.3	
889.18	6358.3	
889.35	6358.3	
889.51	6358.3	
889.68	6358.3	
889.84	6358.3	
890.01	6358.3	
890.17	6358.3	
890.34	6358.3	
890.51	6358.3	
890.67	6358.3	
890.84	6358.3	
891	6358.3	
891.17	6358.3	
891.34	6358.3	
891.5	6358.3	
891.67	6358.3	
891.83	6358.3	
892	6358.3	
892.16	6358.3	
892.33	6358.3	
892.5	6358.3	
892.66	6358.3	
892.83	6358.3	
892.99	6358.3	
893.16	6358.3	
893.32	6358.3	
893.49	6358.3	
893.65	6358.3	
893.82	6358.3	
893.99	6358.3	
894.15	6358.3	
894.32	6358.3	
894.48	6358.3	
894.65	6358.3	
894.81	6358.3	
894.98	6358.3	
895.14	6358.3	
895.31	6358.3	
895.47	6358.3	
895.64	6358.3	
895.81	6358.3	
895.97	6358.3	
896.14	6358.3	
896.3	6358.3	
896.47	6358.3	
896.63	6358.3	
896.8	6358.3	
896.96	6358.3	
897.13	6358.3	
897.29	6358.3	
897.46	6358.3	
897.62	6358.3	
897.79	6358.3	
897.95	6358.3	
898.12	6358.3	
898.28	6358.3	
898.45	6358.3	
898.61	6358.3	
898.78	6358.3	
898.94	6358.3	
899.11	6358.3	
899.27	6358.3	
899.44	6358.3	
899.6	6358.3	
899.77	6358.3	
899.93	6358.3	
900.1	6358.3	
900.26	6358.3	
900.43	6358.3	
900.59	6358.3	
900.76	6358.3	
900.92	6358.3	
901.09	6358.3	
901.25	6358.3	
901.42	6358.3	
901.58	6358.3	
901.75	6358.3	
901.91	6358.3	
902.07	6358.3	
902.24	6358.3	
902.4	6358.3	
902.57	6358.3	
902.73	6358.3	
902.9	6358.3	
903.06	6358.3	
903.23	6358.3	
903.39	6358.3	
903.56	6358.3	
903.72	6358.3	
903.88	6358.3	
904.05	6358.3	
904.21	6358.3	
904.38	6358.3	
904.54	6358.3	
904.71	6358.3	
904.87	6358.3	
905.03	6358.3	
905.2	6358.3	
905.36	6358.3	
905.53	6358.3	
905.69	6358.3	
905.86	6358.3	
906.02	6358.3	
906.18	6358.3	
906.35	6358.3	
906.51	6358.3	
906.68	6358.3	
906.84	6358.3	
907.01	6358.3	
907.17	6358.3	
907.33	6358.3	
907.5	6358.3	
907.66	6358.3	
907.83	6358.3	
907.99	6358.3	
908.15	6358.3	
908.32	6358.3	
908.48	6358.3	
908.65	6358.3	
908.81	6358.3	
908.97	6358.3	
909.14	6358.3	
909.3	6358.3	
909.47	6358.3	
909.63	6358.3	
909.79	6358.3	
909.96	6358.3	
910.12	6358.3	
910.28	6358.3	
910.45	6358.3	
910.61	6358.3	
910.78	6358.3	
910.94	6358.3	
911.1	6358.3	
911.27	6358.3	
911.43	6358.3	
911.59	6358.3	
911.76	6358.3	
911.92	6358.3	
912.08	6358.3	
912.25	6358.3	
912.41	6358.3	
912.57	6358.3	
912.74	6358.3	
912.9	6358.3	
913.07	6358.3	
913.23	6358.3	
913.39	6358.3	
913.56	6358.3	
913.72	6358.3	
913.88	6358.3	
914.05	6358.3	
914.21	6358.3	
914.37	6358.3	
914.54	6358.3	
914.7	6358.3	
914.86	6358.3	
915.03	6358.3	
915.19	6358.3	
