Wavelength	Intensities	
nm	a.u.	
179.22	1513.4	
179.44	1516.2	
179.65	1510.7	
179.86	1521.6	
180.08	1519.6	
180.29	3284.9	
180.51	2658.9	
180.72	4528.7	
180.94	4939	
181.15	2362	
181.37	2386.6	
181.58	4269.3	
181.79	4435.9	
182.01	2483.5	
182.22	2514.9	
182.44	4518.5	
182.65	3981.9	
182.87	3062.4	
183.08	2749.7	
183.29	4687.8	
183.51	4018.1	
183.72	2476	
183.94	3364.1	
184.15	4225.6	
184.37	4190.1	
184.58	2312.2	
184.79	2824.8	
185.01	4054.3	
185.22	4556.7	
185.44	3049.4	
185.65	2705.4	
185.86	4344.4	
186.08	3969.6	
186.29	2285.5	
186.51	2443.2	
186.72	4071.4	
186.94	4554.7	
187.15	2738.1	
187.36	2804.4	
187.58	5508.4	
187.79	4375.1	
188.01	2770.9	
188.22	4047.5	
188.43	4931.5	
188.65	4416.1	
188.86	2485.6	
189.08	2777	
189.29	4145.1	
189.5	4076.1	
189.72	2540.2	
189.93	2669.2	
190.15	4598.4	
190.36	5117.9	
190.57	2759.3	
190.79	2655.5	
191	4547.2	
191.22	4556	
191.43	2842.6	
191.64	2477.4	
191.86	4719.2	
192.07	4562.9	
192.29	2515.6	
192.5	2529.2	
192.71	4558.1	
192.93	4178.5	
193.14	2564.7	
193.35	2622.1	
193.57	4122.6	
193.78	4616.1	
194	2241.2	
194.21	2493.7	
194.42	3981.3	
194.64	4215.4	
194.85	2654.2	
195.07	3061	
195.28	4216.1	
195.49	3856.3	
195.71	3188.7	
195.92	2462.3	
196.13	4450.9	
196.35	4382.7	
196.56	3381.9	
196.78	2735.4	
196.99	5154.1	
197.2	4867.3	
197.42	2986.6	
197.63	2714.2	
197.84	3953.9	
198.06	4368.3	
198.27	2562	
198.48	3153.2	
198.7	4132.8	
198.91	4375.1	
199.13	2760.7	
199.34	2747	
199.55	4687.8	
199.77	3753.9	
199.98	2541.5	
200.19	2738.1	
200.41	4292.5	
200.62	4063.2	
200.83	2767.5	
201.05	2995.5	
201.26	4315.8	
201.47	4130.8	
201.69	2511.5	
201.9	2481.5	
202.11	4322.6	
202.33	4783.4	
202.54	2614.6	
202.76	2882.2	
202.97	4252.3	
203.18	4434.5	
203.4	2846.7	
203.61	2923.8	
203.82	4283.7	
204.04	4100	
204.25	2769.5	
204.46	2674.6	
204.68	4300.7	
204.89	4400.4	
205.1	2673.3	
205.32	2424.8	
205.53	4492.6	
205.74	4542.4	
205.96	2193.4	
206.17	2750.4	
206.38	4427.7	
206.6	4514.4	
206.81	2973	
207.02	2578.4	
207.24	4387.4	
207.45	4595	
207.66	2677.4	
207.88	2450.1	
208.09	4351.3	
208.3	4254.3	
208.52	2521.7	
208.73	2751.1	
208.94	4237.2	
209.15	4629.1	
209.37	2663.7	
209.58	2689.7	
209.79	4582	
210.01	4179.9	
210.22	2277.3	
210.43	2376.3	
210.65	4198.3	
210.86	4401.8	
211.07	2680.8	
211.29	2456.2	
211.5	4399.7	
211.71	4232.5	
211.93	2522.4	
212.14	2519.7	
212.35	4274.1	
212.56	4211.3	
212.78	2753.2	
212.99	2382.5	
213.2	4737.6	
213.42	4160.1	
213.63	2538.8	
213.84	2680.8	
214.06	3971	
214.27	3938.2	
214.48	2646.7	
214.69	2828.2	
214.91	4665.3	
215.12	4627.7	
215.33	2770.2	
215.55	2910.8	
215.76	4926.7	
215.97	4383.3	
216.18	2683.5	
216.4	2658.9	
216.61	4055	
216.82	4526	
217.04	2579.8	
217.25	2566.1	
217.46	4640	
217.67	4484.4	
217.89	2310.8	
218.1	2334	
218.31	4289.1	
218.53	4369	
218.74	2643.2	
218.95	2513.5	
219.16	4255	
219.38	4766.3	
219.59	2488.3	
219.8	2915.6	
220.01	5008.6	
220.23	4255.7	
220.44	3045.3	
220.65	2465.8	
220.87	4351.3	
221.08	4601.1	
221.29	2442.5	
221.5	2919	
221.72	5271.5	
221.93	4049.5	
222.14	2772.3	
222.35	3138.9	
222.57	4300.7	
222.78	4508.9	
222.99	2696.5	
223.2	2765.4	
223.42	4407.2	
223.63	4464.6	
223.84	2114.2	
224.05	2166.1	
224.27	4955.4	
224.48	4716.5	
224.69	3177.1	
224.9	2797.5	
225.12	4360.1	
225.33	4225	
225.54	2293	
225.75	2533.3	
225.97	4057	
226.18	4236.6	
226.39	2622.1	
226.6	2514.2	
226.82	4156	
227.03	3960.8	
227.24	2747	
227.45	2394.1	
227.67	4564.2	
227.88	4642.7	
228.09	3050.8	
228.3	2992.8	
228.52	4474.1	
228.73	4192.2	
228.94	2577.7	
229.15	2401.6	
229.36	4284.4	
229.58	4311.7	
229.79	2677.4	
230	2898.6	
230.21	4922.6	
230.43	4248.2	
230.64	2716.3	
230.85	2816	
231.06	4584	
231.28	4519.9	
231.49	2402.3	
231.7	2719.7	
231.91	4544.4	
232.12	4245.4	
232.34	2465.8	
232.55	2639.8	
232.76	4609.3	
232.97	4298.7	
233.18	2495.1	
233.4	2750.4	
233.61	4328.7	
233.82	4104.8	
234.03	2610.5	
234.25	2599.6	
234.46	5335.6	
234.67	4274.8	
234.88	2820.7	
235.09	2526.5	
235.31	4343.1	
235.52	4171.7	
235.73	2706.7	
235.94	2384.5	
236.15	4081.6	
236.37	4851	
236.58	2468.5	
236.79	2616.6	
237	4463.2	
237.21	3921.9	
237.43	2796.8	
237.64	2337.4	
237.85	6378.1	
238.06	4051.6	
238.27	2699.2	
238.48	2451.4	
238.7	4446.8	
238.91	4190.1	
239.12	2629.6	
239.33	2734.7	
239.54	4020.2	
239.76	4185.4	
239.97	2682.8	
240.18	2660.3	
240.39	4816.8	
240.6	4362.9	
240.82	2806.4	
241.03	2345.6	
241.24	4231.1	
241.45	4629.8	
241.66	2444.6	
241.87	2852.8	
242.09	4741	
242.3	4860.5	
242.51	2866.5	
242.72	2600.2	
242.93	4455	
243.14	4185.4	
243.36	2972.3	
243.57	3155.9	
243.78	4677.6	
243.99	4396.3	
244.2	2633	
244.41	2471.9	
244.63	3985.3	
244.84	4353.3	
245.05	2809.8	
245.26	2603	
245.47	4476.9	
245.68	4501.4	
245.9	3211.2	
246.11	2753.8	
246.32	4070.7	
246.53	4417.5	
246.74	3960.1	
246.95	2376.3	
247.16	4132.8	
247.38	4296.6	
247.59	2424.8	
247.8	2718.3	
248.01	3963.5	
248.22	4268.6	
248.43	2454.8	
248.64	2661	
248.86	4022.9	
249.07	4156	
249.28	2485.6	
249.49	2723.1	
249.7	4472.8	
249.91	4526.7	
250.12	2355.8	
250.34	2375	
250.55	4320.5	
250.76	4280.9	
250.97	2665.8	
251.18	2741.5	
251.39	4493.2	
251.6	4355.3	
251.81	2737.5	
252.03	2738.8	
252.24	4167.6	
252.45	4449.6	
252.66	2372.9	
252.87	2786.6	
253.08	4323.9	
253.29	5111.7	
253.5	2433.7	
253.72	3127.2	
253.93	4215.4	
254.14	4820.9	
254.35	2546.3	
254.56	2596.8	
254.77	4361.5	
254.98	4044.1	
255.19	2622.1	
255.41	3076.7	
255.62	4384.7	
255.83	4560.8	
256.04	2853.5	
256.25	2704	
256.46	4915.8	
256.67	4062.5	
256.88	2760.7	
257.09	2924.5	
257.31	3935.5	
257.52	3978.5	
257.73	3278.1	
257.94	2564.1	
258.15	4274.1	
258.36	4194.2	
258.57	3046	
258.78	2161.3	
258.99	4531.5	
259.2	4118.5	
259.41	2558.6	
259.63	2647.3	
259.84	4724	
260.05	4815.5	
260.26	3113.6	
260.47	2589.3	
260.68	4547.9	
260.89	4165.6	
261.1	2973	
261.31	2471.9	
261.52	4667.3	
261.73	4758.1	
261.95	3174.4	
262.16	2751.8	
262.37	4621.6	
262.58	4680.3	
262.79	3160.7	
263	2589.3	
263.21	4258.4	
263.42	4094.6	
263.63	2758.6	
263.84	2661.7	
264.05	4599.7	
264.26	4721.3	
264.47	2989.4	
264.69	2788	
264.9	4743.1	
265.11	4226.3	
265.32	2468.5	
265.53	2585.9	
265.74	4337.6	
265.95	3886.4	
266.16	2649.4	
266.37	2888.3	
266.58	4342.4	
266.79	4108.2	
267	2620.7	
267.21	2450.7	
267.42	3977.2	
267.63	4238.6	
267.84	2579.1	
268.06	2433	
268.27	4548.5	
268.48	4607.2	
268.69	2618	
268.9	2960.7	
269.11	4534.2	
269.32	3858.4	
269.53	2682.8	
269.74	2489	
269.95	4350.6	
270.16	3893.9	
270.37	2655.5	
270.58	3005.1	
270.79	4201.7	
271	4534.9	
271.21	2824.8	
271.42	2696.5	
271.63	4418.8	
271.84	3960.1	
272.05	2295.1	
272.26	2452.8	
272.47	4306.2	
272.68	4345.1	
272.89	2648	
273.11	2876.7	
273.32	4091.8	
273.53	4685.1	
273.74	2789.3	
273.95	2813.9	
274.16	4408.6	
274.37	4231.8	
274.58	2977.1	
274.79	2425.5	
275	4453	
275.21	4491.2	
275.42	3327.9	
275.63	2874	
275.84	4435.2	
276.05	5157.5	
276.26	2770.9	
276.47	2591.4	
276.68	4246.8	
276.89	4855.7	
277.1	2880.8	
277.31	2434.4	
277.52	4339.6	
277.73	4653	
277.94	2364.7	
278.15	2581.1	
278.36	4408.6	
278.57	4037.9	
278.78	2584.5	
278.99	2807.8	
279.2	4157.4	
279.41	4048.8	
279.62	3231.7	
279.83	2448.7	
280.04	4962.9	
280.25	4069.3	
280.46	3167.5	
280.67	2707.4	
280.88	4104.1	
281.09	4571.1	
281.3	2801.6	
281.51	3288.4	
281.72	4083	
281.93	4461.2	
282.14	2564.7	
282.35	2730.6	
282.56	4573.8	
282.77	4475.5	
282.98	2609.1	
283.19	3011.2	
283.4	5182.7	
283.61	4176.5	
283.82	2501.3	
284.03	3115	
284.24	4452.3	
284.45	4539.7	
284.66	3230.3	
284.87	3024.2	
285.08	4649.6	
285.29	4642.7	
285.5	2409.8	
285.71	2633	
285.92	4522.6	
286.12	4935.6	
286.33	3151.8	
286.54	2596.8	
286.75	4511	
286.96	4218.8	
287.17	2482.8	
287.38	3016	
287.59	4156	
287.8	4131.4	
288.01	2581.8	
288.22	2836.4	
288.43	4368.3	
288.64	3900.7	
288.85	2995.5	
289.06	2900.6	
289.27	4529.4	
289.48	4668.7	
289.69	3186	
289.9	2902	
290.11	4648.2	
290.32	4109.6	
290.53	3003	
290.74	2796.8	
290.94	4510.3	
291.15	4492.6	
291.36	2529.9	
291.57	2839.8	
291.78	4207.9	
291.99	3901.4	
292.2	2514.2	
292.41	2856.2	
292.62	4563.6	
292.83	4457.1	
293.04	3343.7	
293.25	2531.3	
293.46	4184.7	
293.67	4502.8	
293.88	2492.4	
294.09	2524.5	
294.29	4068.6	
294.5	4319.2	
294.71	2699.2	
294.92	2528.6	
295.13	4190.1	
295.34	4896	
295.55	2338.1	
295.76	2375	
295.97	4495.3	
296.18	4797.7	
296.39	2441.2	
296.6	2540.2	
296.81	4251.6	
297.01	4501.4	
297.22	2624.1	
297.43	2575	
297.64	4225.6	
297.85	3960.8	
298.06	2230.9	
298.27	2383.2	
298.48	4158.7	
298.69	4136.2	
298.9	2742.2	
299.11	2519	
299.31	4016.1	
299.52	4037.2	
299.73	2852.1	
299.94	2792.7	
300.15	4299.4	
300.36	4128.7	
300.57	2785.2	
300.78	2774.3	
300.99	4134.8	
301.2	4263.2	
301.4	2594.1	
301.61	2704.7	
301.82	4392.9	
302.03	4407.2	
302.24	2907.4	
302.45	2475.3	
302.66	4450.2	
302.87	4519.2	
303.08	2542.2	
303.29	3220.1	
303.49	4171.7	
303.7	4131.4	
303.91	2362.7	
304.12	3127.2	
304.33	3902.7	
304.54	4371.7	
304.75	2519	
304.96	2572.9	
305.16	4464.6	
305.37	4816.8	
305.58	2329.2	
305.79	2349.7	
306	4429.8	
306.21	3858.4	
306.42	2546.3	
306.63	3530.7	
306.83	4186	
307.04	4405.9	
307.25	2736.1	
307.46	2705.4	
307.67	3900.7	
307.88	4374.5	
308.09	2563.4	
308.29	2546.3	
308.5	4305.5	
308.71	4511.7	
308.92	2717.7	
309.13	2438.4	
309.34	4286.4	
309.55	4205.8	
309.75	3093.1	
309.96	2811.9	
310.17	4442.7	
310.38	4091.8	
310.59	2871.9	
310.8	2745	
311.01	4176.5	
311.21	4265.2	
311.42	2556.5	
311.63	2534	
311.84	4158.1	
312.05	4306.2	
312.26	2805	
312.46	2966.8	
312.67	4178.5	
312.88	3942.3	
313.09	2462.3	
313.3	2456.2	
313.51	4689.2	
313.71	4869.4	
313.92	2510.1	
314.13	2566.1	
314.34	4400.4	
314.55	4261.1	
314.76	2996.9	
314.96	2691	
315.17	4440.7	
315.38	4328.7	
315.59	2525.8	
315.8	2419.3	
316.01	4559.5	
316.21	4751.3	
316.42	2461.7	
316.63	2686.9	
316.84	4167.6	
317.05	4536.9	
317.26	2853.5	
317.46	2555.2	
317.67	4287.1	
317.88	4417.5	
318.09	2942.2	
318.3	2392.7	
318.5	4188.1	
318.71	4351.3	
318.92	3637.2	
319.13	2827.6	
319.34	4536.9	
319.54	4622.9	
319.75	2355.2	
319.96	2266.4	
320.17	4390.8	
320.38	4538.3	
320.58	2380.4	
320.79	2638.5	
321	4620.2	
321.21	4700.1	
321.42	2744.3	
321.62	2340.1	
321.83	4162.8	
322.04	4282.3	
322.25	2672.6	
322.46	2483.5	
322.66	4328.7	
322.87	4449.6	
323.08	2956.6	
323.29	2424.8	
323.5	4887.8	
323.7	3992.9	
323.91	3153.2	
324.12	2897.2	
324.33	4397.7	
324.53	4418.8	
324.74	2811.9	
324.95	2857.6	
325.16	4017.4	
325.37	4134.8	
325.57	2458.2	
325.78	2560	
325.99	4414.7	
326.2	3996.3	
326.4	3233.7	
326.61	2366.8	
326.82	4207.2	
327.03	4316.4	
327.24	3249.4	
327.44	3091.8	
327.65	4442	
327.86	3801.7	
328.07	2830.3	
328.27	2405	
328.48	4670.7	
328.69	3975.1	
328.9	3260.4	
329.1	2551.1	
329.31	4177.2	
329.52	4709.6	
329.73	2504.7	
329.93	2649.4	
330.14	4358.8	
330.35	4375.1	
330.56	3652.9	
330.76	2960.7	
330.97	4163.5	
331.18	4266.6	
331.39	2677.4	
331.59	2292.4	
331.8	4631.8	
332.01	4638.6	
332.22	2596.1	
332.42	2792.1	
332.63	4362.2	
332.84	3973.1	
333.05	2751.1	
333.25	2520.4	
333.46	4055.7	
333.67	4205.8	
333.88	2623.4	
334.08	2788	
334.29	5270.8	
334.5	4524.6	
334.7	2466.4	
334.91	3198.9	
335.12	3961.5	
335.33	4410	
335.53	2702	
335.74	3568.2	
335.95	4231.1	
336.16	3930.7	
336.36	2701.3	
336.57	2977.7	
336.78	3896.6	
336.98	4540.3	
337.19	3224.9	
337.4	2675.3	
337.61	4906.3	
337.81	3975.1	
338.02	2557.2	
338.23	3103.4	
338.43	4696	
338.64	4085	
338.85	2488.3	
339.05	3084.2	
339.26	4806.6	
339.47	3949.8	
339.68	2562.7	
339.88	3381.9	
340.09	4488.5	
340.3	4591.5	
340.5	2805.7	
340.71	2310.1	
340.92	4027.7	
341.13	4606.6	
341.33	2329.9	
341.54	2792.1	
341.75	4435.9	
341.95	4128.7	
342.16	2710.1	
342.37	2910.8	
342.57	3996.3	
342.78	4169.7	
342.99	2932.7	
343.19	2379.7	
343.4	4522.6	
343.61	4401.8	
343.81	2629.6	
344.02	2418	
344.23	4492.6	
344.43	4620.2	
344.64	2966.1	
344.85	2915.6	
345.06	4493.2	
345.26	4552.6	
345.47	2795.5	
345.68	3175.7	
345.88	3931.4	
346.09	4501.4	
346.3	2850.8	
346.5	2257.5	
346.71	4188.1	
346.92	4130.1	
347.12	2473.3	
347.33	2832.3	
347.54	4511	
347.74	4744.5	
347.95	2792.1	
348.16	2263	
348.36	4179.9	
348.57	3984	
348.78	2875.3	
348.98	2896.5	
349.19	4241.3	
349.39	3893.2	
349.6	2471.9	
349.81	2571.6	
350.01	4514.4	
350.22	4066.6	
350.43	2835.8	
350.63	3109.5	
350.84	4283.7	
351.05	4055.7	
351.25	2582.5	
351.46	2430.9	
351.67	4510.3	
351.87	4117.1	
352.08	2679.4	
352.29	2954.5	
352.49	4545.1	
352.7	4337.6	
352.9	2454.8	
353.11	2889	
353.32	4818.9	
353.52	4177.2	
353.73	2532	
353.94	3007.8	
354.14	4493.2	
354.35	4281.6	
354.55	2620.7	
354.76	2809.1	
354.97	4441.4	
355.17	4278.9	
355.38	2581.8	
355.59	3157.3	
355.79	4122.6	
356	4236.6	
356.2	2749.7	
356.41	2565.4	
356.62	4076.1	
356.82	4296	
357.03	2968.2	
357.24	2743.6	
357.44	4123.2	
357.65	4160.8	
357.85	3323.2	
358.06	2848.7	
358.27	3995.6	
358.47	4011.3	
358.68	2535.4	
358.88	2959.3	
359.09	4518.5	
359.3	4531.5	
359.5	3326.6	
359.71	3046	
359.91	4810.7	
360.12	4489.1	
360.33	3036.5	
360.53	3225.6	
360.74	4191.5	
360.94	4286.4	
361.15	3091.8	
361.36	2736.8	
361.56	4660.5	
361.77	4369.7	
361.97	3351.8	
362.18	2792.1	
362.38	4716.5	
362.59	4180.6	
362.8	2704.7	
363	2673.3	
363.21	4171	
363.41	4361.5	
363.62	2944.3	
363.83	3382.6	
364.03	4595.6	
364.24	4850.3	
364.44	3573.7	
364.65	3502.7	
364.85	4364.9	
365.06	4267.3	
365.27	2800.9	
365.47	2925.9	
365.68	4900.1	
365.88	4412	
366.09	3031.7	
366.29	2832.3	
366.5	4439.3	
366.71	4700.8	
366.91	3444	
367.12	3183.9	
367.32	5048.9	
367.53	4566.3	
367.73	3187.3	
367.94	3635.1	
368.14	4709.6	
368.35	4855.7	
368.56	3082.2	
368.76	2767.5	
368.97	4737.6	
369.17	5485.1	
369.38	2849.4	
369.58	3020.8	
369.79	4082.3	
369.99	4910.3	
370.2	3508.9	
370.4	2996.9	
370.61	4475.5	
370.82	5169.1	
371.02	3041.2	
371.23	2692.4	
371.43	4263.2	
371.64	4916.5	
371.84	3066.5	
372.05	3594.9	
372.25	5382.7	
372.46	4618.9	
372.66	3077.4	
372.87	3070.6	
373.07	4684.4	
373.28	5629.2	
373.48	3504.1	
373.69	3356.6	
373.9	4567	
374.1	4502.8	
374.31	3540.9	
374.51	3272.7	
374.72	4916.5	
374.92	4389.5	
375.13	3669.3	
375.33	3279.5	
375.54	4674.8	
375.74	4513.7	
375.95	3388	
376.15	3828.3	
376.36	4844.8	
376.56	4715.8	
376.77	3349.8	
376.97	3510.2	
377.18	5418.2	
377.38	4840	
377.59	3639.9	
377.79	3205.8	
378	4717.2	
378.2	4846.9	
378.41	3238.5	
378.61	3154.6	
378.82	5036	
379.02	4646.8	
379.23	3322.5	
379.43	3782.6	
379.64	5220.3	
379.84	4909.7	
380.05	3262.4	
380.25	3160.7	
380.46	4915.1	
380.66	4722.6	
380.87	3857.7	
381.07	3997	
381.28	5207.3	
381.48	4906.3	
381.69	3162.7	
381.89	3198.9	
382.1	4414.7	
382.3	4872.1	
382.51	3725.9	
382.71	4145.1	
382.91	4735.6	
383.12	5071.5	
383.32	3361.4	
383.53	3442	
383.73	4823.6	
383.94	4718.5	
384.14	3409.2	
384.35	2992.1	
384.55	4490.5	
384.76	4790.9	
384.96	3344.3	
385.17	3441.3	
385.37	4857.1	
385.58	4412	
385.78	3447.4	
385.98	2977.7	
386.19	4616.8	
386.39	4813.4	
386.6	3218.7	
386.8	3287.7	
387.01	4834.6	
387.21	4939.7	
387.42	3472.7	
387.62	3818.1	
387.83	4618.2	
388.03	4670.7	
388.23	3453.6	
388.44	3715	
388.64	4428.4	
388.85	4520.5	
389.05	3533.4	
389.26	3866.6	
389.46	5621	
389.67	5207.3	
389.87	3674.7	
390.07	3638.6	
390.28	4691.2	
390.48	4539.7	
390.69	3186	
390.89	3405.8	
391.1	4728.1	
391.3	5079.6	
391.5	3990.8	
391.71	4195.6	
391.91	5045.5	
392.12	5337.7	
392.32	3973.1	
392.53	3616.7	
392.73	4752	
392.93	4749.9	
393.14	3427.6	
393.34	3777.8	
393.55	4990.2	
393.75	4669.4	
393.95	3406.5	
394.16	3371	
394.36	4739	
394.57	4995.7	
394.77	3115	
394.98	3267.2	
395.18	4668.7	
395.38	4715.8	
395.59	3874.1	
395.79	3382.6	
396	4907.6	
396.2	5083.1	
396.4	3815.4	
396.61	3743	
396.81	5048.9	
397.02	4752	
397.22	3975.8	
397.42	3916.4	
397.63	5245.5	
397.83	4824.3	
398.04	3419.4	
398.24	3708.2	
398.44	4980	
398.65	4567.7	
398.85	3372.3	
399.05	3389.4	
399.26	4848.9	
399.46	5582.1	
399.67	3582.6	
399.87	3520.5	
400.07	5066.7	
400.28	5186.8	
400.48	3530	
400.69	4018.8	
400.89	5195	
401.09	5577.3	
401.3	3575.8	
401.5	4037.9	
401.7	5586.2	
401.91	5778	
402.11	3802.4	
402.32	3777.1	
402.52	5329.5	
402.72	5222.3	
402.93	3901.4	
403.13	3313.6	
403.33	5714.5	
403.54	4888.5	
403.74	3612.6	
403.94	4100.7	
404.15	4917.9	
404.35	5518.6	
404.56	3517	
404.76	4365.6	
404.96	5292.6	
405.17	5076.9	
405.37	4095.9	
405.57	3831.1	
405.78	5283.1	
405.98	4986.8	
406.18	3646.7	
406.39	4043.4	
406.59	5231.9	
406.79	4945.2	
407	3486.3	
407.2	3508.9	
407.4	5520	
407.61	5322.7	
407.81	3586.7	
408.01	4731.5	
408.22	4674.8	
408.42	5735	
408.62	4236.6	
408.83	3981.3	
409.03	5225.7	
409.23	5276.9	
409.44	4072	
409.64	4186	
409.84	5814.9	
410.05	5779.4	
410.25	4233.8	
410.45	4113	
410.66	5628.5	
410.86	6832.7	
411.06	4420.2	
411.27	4282.3	
411.47	6806.1	
411.67	5647.6	
411.88	4390.2	
412.08	4585.4	
412.28	6017.6	
412.49	6255.9	
412.69	4371	
412.89	4392.9	
413.09	6204.7	
413.3	6194.4	
413.5	4492.6	
413.7	4345.8	
413.91	5726.1	
414.11	6214.9	
414.31	4405.2	
414.52	4649.6	
414.72	6083.1	
414.92	5920	
415.12	4358.1	
415.33	4722.6	
415.53	6214.2	
415.73	6389	
415.94	4894.6	
416.14	4526.7	
416.34	5860.6	
416.55	5653.1	
416.75	5258.5	
416.95	4859.1	
417.15	6470.9	
417.36	6645.7	
417.56	5371.1	
417.76	4853.7	
417.97	6418.3	
418.17	6373.3	
418.37	4697.4	
418.57	4734.2	
418.78	6346	
418.98	6119.3	
419.18	5150	
419.38	5118.6	
419.59	5941.8	
419.79	5919.3	
419.99	4593.6	
420.2	4674.8	
420.4	6313.2	
420.6	6348	
420.8	4522.6	
421.01	4511	
421.21	6349.4	
421.41	6232	
421.61	4641.4	
421.82	4635.2	
422.02	6121.4	
422.22	6500.3	
422.42	4970.4	
422.63	4773.1	
422.83	6027.9	
423.03	6725.5	
423.23	4810	
423.44	4248.2	
423.64	6063.4	
423.84	5791	
424.04	4465.3	
424.25	4351.9	
424.45	6423.8	
424.65	6423.8	
424.85	4205.8	
425.06	4472.8	
425.26	6668.2	
425.46	5986.9	
425.66	4718.5	
425.87	4509.6	
426.07	6346	
426.27	6174.6	
426.47	4638	
426.67	4335.5	
426.88	6531.7	
427.08	6158.9	
427.28	4838	
427.48	4212	
427.69	5670.8	
427.89	5939.1	
428.09	4678.9	
428.29	4274.1	
428.5	6290	
428.7	6067.4	
428.9	4268.6	
429.1	4552	
429.3	6031.3	
429.51	6150.1	
429.71	4455.7	
429.91	4917.9	
430.11	6322.1	
430.31	6513.9	
430.52	4616.8	
430.72	4736.3	
430.92	6544.6	
431.12	6279.8	
431.32	4396.3	
431.53	4642.1	
431.73	5761.6	
431.93	6505.7	
432.13	4387.4	
432.33	4390.2	
432.54	6012.8	
432.74	6019	
432.94	4323.9	
433.14	4920.6	
433.34	6421.7	
433.55	6216.3	
433.75	4854.4	
433.95	5790.3	
434.15	6266.8	
434.35	5954.1	
434.56	4470.7	
434.76	4257	
434.96	6172.6	
435.16	6450.4	
435.36	4407.9	
435.56	5113.1	
435.77	6076.3	
435.97	6163.7	
436.17	5414.8	
436.37	4988.2	
436.57	6032	
436.78	5992.4	
436.98	5862	
437.18	5350.7	
437.38	6331	
437.58	6034.7	
437.78	5356.8	
437.99	4642.7	
438.19	6389.7	
438.39	6775.4	
438.59	4592.2	
438.79	4350.6	
438.99	6745.3	
439.2	6023.8	
439.4	4332.8	
439.6	4352.6	
439.8	6153.5	
440	6795.8	
440.2	4999.8	
440.4	4983.4	
440.61	6660	
440.81	6823.8	
441.01	4610.7	
441.21	5121.3	
441.41	6888	
441.61	6508.4	
441.81	5264.6	
442.02	5689.3	
442.22	7072.3	
442.42	6675	
442.62	4637.3	
442.82	4775.2	
443.02	6894.1	
443.22	6433.4	
443.43	4973.2	
443.63	4619.5	
443.83	6340.5	
444.03	6305	
444.23	5416.9	
444.43	5139.7	
444.63	6664.8	
444.83	7154.9	
445.04	4842.8	
445.24	5434.6	
445.44	6769.9	
445.64	6627.9	
445.84	5106.3	
446.04	5173.9	
446.24	6266.8	
446.44	6814.3	
446.65	4608.6	
446.85	4940.4	
447.05	6385.6	
447.25	6793.1	
447.45	4977.2	
447.65	4668	
447.85	6520	
448.05	6143.9	
448.25	5178.6	
448.46	5060.5	
448.66	6430.6	
448.86	6284.5	
449.06	4668	
449.26	5130.2	
449.46	6717.3	
449.66	6158.9	
449.86	5061.9	
450.06	4936.3	
450.26	6247.7	
450.47	6602.7	
450.67	5004.6	
450.87	5211.4	
451.07	6769.9	
451.27	6524.1	
451.47	4642.1	
451.67	5218.2	
451.87	6367.1	
452.07	6959	
452.27	4934.2	
452.47	4799.8	
452.67	6462.7	
452.88	6731.7	
453.08	4521.2	
453.28	5531.6	
453.48	7213.6	
453.68	6419	
453.88	4940.4	
454.08	4906.3	
454.28	6734.4	
454.48	6529.6	
454.68	5167.7	
454.88	5461.2	
455.08	6864.1	
455.28	6690.7	
455.48	4766.3	
455.68	5221	
455.89	7150.1	
456.09	6897.6	
456.29	5038.7	
456.49	5099.4	
456.69	7159	
456.89	6565.8	
457.09	5352.7	
457.29	5591.6	
457.49	6866.8	
457.69	6940.6	
457.89	5374.6	
458.09	4880.3	
458.29	6803.4	
458.49	7265.5	
458.69	5518.6	
458.89	5307.7	
459.09	7308.5	
459.29	7352.9	
459.49	5225.7	
459.69	5683.1	
459.9	7060.7	
460.1	6848.4	
460.3	5204.6	
460.5	5016.2	
460.7	7058	
460.9	6713.9	
461.1	4907.6	
461.3	5562.3	
461.5	7537.9	
461.7	7249.1	
461.9	5246.2	
462.1	5365.7	
462.3	7052.5	
462.5	7261.4	
462.7	5306.3	
462.9	5418.2	
463.1	7854.6	
463.3	7735.2	
463.5	5524.7	
463.7	6066.1	
463.9	7334.5	
464.1	7404.1	
464.3	5745.2	
464.5	5745.2	
464.7	7556.3	
464.9	7410.2	
465.1	6426.5	
465.3	5996.5	
465.5	7642.3	
465.7	7854	
465.9	6189.6	
466.1	5889.3	
466.3	7675.8	
466.5	7498.3	
466.7	6491.4	
466.9	5886.5	
467.1	7789.1	
467.3	8049.2	
467.5	6544.6	
467.7	5958.2	
467.9	8196.7	
468.1	8714.8	
468.3	6305.7	
468.5	6497.5	
468.7	7602.7	
468.9	7559.1	
469.1	6116.6	
469.3	6522.1	
469.5	8681.3	
469.7	7468.9	
469.9	6427.2	
470.1	5972.6	
470.3	7724.9	
470.5	7742	
470.7	6635.4	
470.9	6013.5	
471.1	7542	
471.3	7769.3	
471.5	5950	
471.69	6819.7	
471.89	7524.2	
472.09	7117.4	
472.29	6257.2	
472.49	6385.6	
472.69	7246.4	
472.89	7657.4	
473.09	5857.9	
473.29	5885.9	
473.49	7374.1	
473.69	7264.8	
473.89	6272.2	
474.09	5866.1	
474.29	8083.3	
474.49	7813.7	
474.69	6277.7	
474.89	5954.1	
475.09	7403.4	
475.29	7358.4	
475.49	5649	
475.69	5851.7	
475.88	8200.1	
476.08	7591.1	
476.28	5612.1	
476.48	5772.5	
476.68	7907.2	
476.88	7525.6	
477.08	5765	
477.28	5914.5	
477.48	7387	
477.68	7595.2	
477.88	5717.2	
478.08	5813.5	
478.28	7968	
478.48	7503.1	
478.67	5858.6	
478.87	5449.6	
479.07	7855.3	
479.27	7423.9	
479.47	5923.4	
479.67	5959.6	
479.87	7704.5	
480.07	7880.6	
480.27	5656.5	
480.47	6305	
480.67	7441	
480.87	7863.5	
481.06	5703.6	
481.26	6076.3	
481.46	7541.3	
481.66	7307.8	
481.86	5967.8	
482.06	6326.2	
482.26	7297.6	
482.46	7681.9	
482.66	5848.3	
482.86	5655.8	
483.05	7615	
483.25	7187.7	
483.45	7269.6	
483.65	5855.8	
483.85	7176.1	
484.05	7464.2	
484.25	6129.6	
484.45	6332.3	
484.65	7795.3	
484.84	8008.9	
485.04	5898.8	
485.24	5888.6	
485.44	8200.1	
485.64	7251.2	
485.84	5585.5	
486.04	6251.1	
486.24	7392.5	
486.44	7559.7	
486.63	5549.3	
486.83	6012.8	
487.03	7407.5	
487.23	7548.1	
487.43	5623.7	
487.63	6886	
487.83	7616.4	
488.02	7815.7	
488.22	6219	
488.42	6445	
488.62	8069.7	
488.82	7461.4	
489.02	6011.5	
489.22	5987.6	
489.41	7838.3	
489.61	7851.9	
489.81	5778.7	
490.01	5864	
490.21	7970	
490.41	8333.2	
490.61	5973.9	
490.8	5886.5	
491	7743.4	
491.2	7381.6	
491.4	6290.7	
491.6	5746.6	
491.8	7709.9	
491.99	7593.2	
492.19	5690.6	
492.39	5722	
492.59	7871.7	
492.79	8001.4	
492.99	6379.4	
493.18	5908.4	
493.38	8145.5	
493.58	8477.9	
493.78	6337.8	
493.98	6142.5	
494.18	7929.7	
494.37	7601.4	
494.57	6512.5	
494.77	6322.8	
494.97	8247.2	
495.17	8344.1	
495.37	6256.5	
495.56	6530.3	
495.76	8411	
495.96	8329.1	
496.16	7031.4	
496.36	6582.9	
496.55	8480.6	
496.75	8051.9	
496.95	6619	
497.15	6643.6	
497.35	8446.5	
497.54	8277.9	
497.74	6486.6	
497.94	7420.5	
498.14	8811	
498.34	8567.3	
498.53	6334.4	
498.73	6737.1	
498.93	7993.9	
499.13	8430.8	
499.33	6688	
499.52	6919.4	
499.72	8622.6	
499.92	8465.6	
500.12	6589	
500.32	6713.2	
500.51	8605.6	
500.71	8415.1	
500.91	7102.4	
501.11	6950.1	
501.31	8532.5	
501.5	8798.1	
501.7	7249.8	
501.9	6703.7	
502.1	8354.3	
502.29	8634.2	
502.49	6984.3	
502.69	7156.3	
502.89	8472.4	
503.09	8477.9	
503.28	6279.8	
503.48	6354.8	
503.68	8196.7	
503.88	8060.8	
504.07	6952.2	
504.27	6634.7	
504.47	8297.7	
504.67	8254	
504.86	6807.4	
505.06	6721.4	
505.26	8147.5	
505.46	8883.4	
505.65	6537.1	
505.85	6657.3	
506.05	8029.4	
506.25	8243.8	
506.44	6199.9	
506.64	6596.5	
506.84	7818.5	
507.04	8226.7	
507.23	6230.6	
507.43	6537.1	
507.63	8795.3	
507.83	7845.1	
508.02	6562.4	
508.22	6203.3	
508.42	8875.2	
508.62	7732.4	
508.81	6360.3	
509.01	6627.2	
509.21	7622.5	
509.4	7930.4	
509.6	6528.2	
509.8	6208.1	
510	7907.9	
510.19	8448.6	
510.39	6153.5	
510.59	6275	
510.79	7811.6	
510.98	8499.1	
511.18	6324.8	
511.38	6322.8	
511.57	8381	
511.77	7959.1	
511.97	6617	
512.17	6143.2	
512.36	8264.9	
512.56	8060.8	
512.76	6170.5	
512.95	6077	
513.15	8343.4	
513.35	7435.5	
513.55	6641.6	
513.74	6083.8	
513.94	8281.3	
514.14	7856	
514.33	6705.7	
514.53	6478.4	
514.73	7958.4	
514.92	7983.7	
515.12	6200.6	
515.32	6180.1	
515.51	8090.2	
515.71	8182.3	
515.91	7152.2	
516.11	6256.5	
516.3	9006.3	
516.5	7937.9	
516.7	6576	
516.89	6812.2	
517.09	7924.3	
517.29	7978.2	
517.48	6750.1	
517.68	6397.2	
517.88	7581.6	
518.07	8166.6	
518.27	6749.4	
518.47	6092.7	
518.66	8513.4	
518.86	7805.5	
519.06	6102.3	
519.25	6368.5	
519.45	7935.9	
519.65	8671.1	
519.84	6796.5	
520.04	7098.9	
520.24	8931.2	
520.43	8190.5	
520.63	6561.7	
520.83	6374.6	
521.02	7802.8	
521.22	8146.1	
521.42	6489.3	
521.61	6873.7	
521.81	7948.2	
522.01	8055.3	
522.2	6627.9	
522.4	6404	
522.6	8330.5	
522.79	7653.9	
522.99	6453.1	
523.18	6268.1	
523.38	8239.7	
523.58	8319.5	
523.77	7268.9	
523.97	6350.1	
524.17	9335.3	
524.36	8979.7	
524.56	7047.1	
524.76	6874.3	
524.95	8353.7	
525.15	8230.1	
525.34	6766.5	
525.54	6871.6	
525.74	8671.8	
525.93	8026.7	
526.13	7540.6	
526.33	6799.9	
526.52	8926.4	
526.72	8481.3	
526.91	7512.6	
527.11	7147.4	
527.31	8823.3	
527.5	8951	
527.7	7167.2	
527.89	6653.9	
528.09	8396	
528.29	8733.9	
528.48	7354.9	
528.68	7200.7	
528.87	8871.1	
529.07	8805.6	
529.27	7071	
529.46	6805.4	
529.66	8712.1	
529.85	8910.7	
530.05	6855.9	
530.25	7174	
530.44	9386.5	
530.64	8505.2	
530.83	6997.9	
531.03	7169.3	
531.23	9140.8	
531.42	8695.7	
531.62	7617.8	
531.81	7211.6	
532.01	9108.7	
532.21	9174.9	
532.4	7088.7	
532.6	7317.4	
532.79	9678.7	
532.99	9157.8	
533.18	7467.6	
533.38	7931.8	
533.58	8972.8	
533.77	9179	
533.97	7448.5	
534.16	7809.6	
534.36	9493	
534.55	9112.8	
534.75	7785	
534.95	7550.9	
535.14	9558.6	
535.34	8936.7	
535.53	7294.9	
535.73	8258.8	
535.92	9808.4	
536.12	8813.8	
536.31	7241.6	
536.51	7944.1	
536.71	9260.9	
536.9	9002.9	
537.1	7358.4	
537.29	7433.4	
537.49	9463.7	
537.68	8888.9	
537.88	7742	
538.07	7219.1	
538.27	9154.4	
538.46	9583.8	
538.66	7162.4	
538.86	7444.4	
539.05	9192.6	
539.25	9321	
539.44	7707.9	
539.64	7365.2	
539.83	9016.5	
540.03	9544.2	
540.22	7276.4	
540.42	7312.6	
540.61	9148.3	
540.81	9090.9	
541	7537.9	
541.2	7908.6	
541.39	8891.6	
541.59	8974.2	
541.78	7785.7	
541.98	7229.3	
542.18	8669.7	
542.37	8566.7	
542.57	7445.7	
542.76	7683.3	
542.96	8676.6	
543.15	8862.9	
543.35	7378.1	
543.54	6987	
543.74	8546.2	
543.93	8781.7	
544.13	7259.4	
544.32	7780.2	
544.52	8979.7	
544.71	8498.4	
544.91	6784.9	
545.1	7357	
545.3	8620.6	
545.49	8777.6	
545.69	6694.1	
545.88	7051.2	
546.08	9443.9	
546.27	9047.2	
546.47	7230	
546.66	6886	
546.86	8983.1	
547.05	9144.9	
547.24	7021.8	
547.44	7026.6	
547.63	8378.9	
547.83	8956.4	
548.02	7154.2	
548.22	7181.5	
548.41	8277.2	
548.61	9010.4	
548.8	6847.7	
549	6886.6	
549.19	8686.1	
549.39	8827.4	
549.58	6666.1	
549.78	7072.3	
549.97	8869.8	
550.17	8438.3	
550.36	7398.6	
550.55	7984.3	
550.75	8542.8	
550.94	8943.5	
551.14	6769.2	
551.33	6926.9	
551.53	8100.4	
551.72	8683.4	
551.92	6967.2	
552.11	6892.1	
552.31	8850.6	
552.5	8666.3	
552.69	7832.1	
552.89	6590.4	
553.08	8659.5	
553.28	8521.6	
553.47	6812.9	
553.67	7463.5	
553.86	8985.1	
554.06	8118.8	
554.25	6407.4	
554.44	6782.2	
554.64	9377.6	
554.83	9117.6	
555.03	6671.6	
555.22	6905.8	
555.42	8845.2	
555.61	8653.4	
555.8	6811.5	
556	6881.2	
556.19	8165.9	
556.39	8572.1	
556.58	6811.5	
556.78	6797.2	
556.97	8542.1	
557.16	8345.5	
557.36	7460.1	
557.55	6662	
557.75	7924.3	
557.94	8922.3	
558.13	6591.7	
558.33	6419	
558.52	8890.9	
558.72	7961.1	
558.91	6533	
559.1	6637.5	
559.3	7948.2	
559.49	7875.8	
559.69	6399.2	
559.88	6752.8	
560.07	8379.6	
560.27	8728.4	
560.46	6890.7	
560.66	6934.4	
560.85	8324.3	
561.04	7823.9	
561.24	6447.7	
561.43	6532.3	
561.63	7866.9	
561.82	8149.6	
562.01	7267.6	
562.21	6693.4	
562.4	8335.2	
562.59	8789.9	
562.79	6677.1	
562.98	6474.3	
563.18	8297.7	
563.37	9105.3	
563.56	6903	
563.76	6574.7	
563.95	8118.1	
564.14	8043.1	
564.34	6672.3	
564.53	6516	
564.73	8432.9	
564.92	8516.8	
565.11	6706.4	
565.31	6459.3	
565.5	8660.9	
565.69	7930.4	
565.89	6614.3	
566.08	6715.3	
566.27	8479.3	
566.47	8792.6	
566.66	7129	
566.85	6406.7	
567.05	8449.9	
567.24	8157.1	
567.44	6473.6	
567.63	7147.4	
567.82	8551	
568.02	8233.5	
568.21	6513.9	
568.4	6744.6	
568.6	8327.7	
568.79	8227.4	
568.98	6482.5	
569.18	6428.6	
569.37	8236.9	
569.56	9294.4	
569.76	6793.1	
569.95	7192.5	
570.14	8364.6	
570.34	8199.4	
570.53	6406.7	
570.72	6246.3	
570.91	8703.9	
571.11	8248.5	
571.3	6542.6	
571.49	7146.7	
571.69	8232.2	
571.88	7838.3	
572.07	6864.8	
572.27	6847.7	
572.46	7873.1	
572.65	8482	
572.85	6499.6	
573.04	6628.6	
573.23	8613.1	
573.43	8262.2	
573.62	6415.6	
573.81	6763.8	
574	8355.7	
574.2	8078.6	
574.39	6569.9	
574.58	6682.5	
574.78	8677.2	
574.97	8301.1	
575.16	6900.3	
575.36	7039.6	
575.55	8671.1	
575.74	8581	
575.93	6439.5	
576.13	7002	
576.32	8262.9	
576.51	8534.6	
576.71	6689.3	
576.9	7344.7	
577.09	8754.4	
577.28	8510.7	
577.48	6888.7	
577.67	6396.5	
577.86	8348.9	
578.05	8429.4	
578.25	6701.6	
578.44	6724.2	
578.63	8333.2	
578.83	9002.9	
579.02	6498.9	
579.21	7249.1	
579.4	8374.1	
579.6	8283.4	
579.79	6802.7	
579.98	7924.3	
580.17	8570.1	
580.37	8736	
580.56	6490.7	
580.75	7006.8	
580.94	8672.5	
581.14	8898.4	
581.33	7221.1	
581.52	6641.6	
581.71	8531.8	
581.91	8966	
582.1	6621.1	
582.29	6849.8	
582.48	8370.7	
582.68	8384.4	
582.87	7029.3	
583.06	7021.8	
583.25	8725	
583.45	8254	
583.64	7278.5	
583.83	7644.4	
584.02	8449.9	
584.21	8637	
584.41	7235.5	
584.6	6924.2	
584.79	8527.7	
584.98	8763.3	
585.18	6606.1	
585.37	6672.3	
585.56	8396	
585.75	8645.2	
585.94	6728.3	
586.14	7045	
586.33	8914.1	
586.52	8320.9	
586.71	6887.3	
586.91	6817.7	
587.1	8080.6	
587.29	8588.5	
587.48	6632	
587.67	6622.4	
587.87	8501.8	
588.06	8295.6	
588.25	7256.6	
588.44	6873	
588.63	8073.8	
588.83	8357.1	
589.02	6551.5	
589.21	6375.3	
589.4	8016.4	
589.59	7865.6	
589.78	5922.7	
589.98	5999.9	
590.17	7357	
590.36	7632.8	
590.55	5467.4	
590.74	5908.4	
590.94	8243.8	
591.13	7436.2	
591.32	5847	
591.51	5586.2	
591.7	7749.5	
591.89	7466.9	
592.09	5671.5	
592.28	5840.1	
592.47	7076.4	
592.66	8219.2	
592.85	5661.3	
593.05	5757.5	
593.24	7503.8	
593.43	8000.7	
593.62	5897.5	
593.81	6059.9	
594	7608.9	
594.19	7677.8	
594.39	5776	
594.58	5803.9	
594.77	7792.5	
594.96	8026.7	
595.15	5769.8	
595.34	6008.1	
595.54	7492.8	
595.73	7118.7	
595.92	5449.6	
596.11	5922	
596.3	7896.3	
596.49	7337.9	
596.68	5879.7	
596.88	6140.5	
597.07	7727.7	
597.26	7226.6	
597.45	5716.6	
597.64	6245.6	
597.83	7402	
598.02	7662.1	
598.22	5685.2	
598.41	6055.8	
598.6	7529.7	
598.79	7275.8	
598.98	5687.9	
599.17	6281.8	
599.36	7686	
599.55	8116.8	
599.74	6858	
599.94	6698.9	
600.13	7950.2	
600.32	7309.9	
600.51	5670.8	
600.7	5817.6	
600.89	8306.6	
601.08	8358.4	
601.27	5674.9	
601.47	6066.8	
601.66	7932.5	
601.85	8118.1	
602.04	6034.7	
602.23	6073.6	
602.42	7414.3	
602.61	7694.9	
602.8	5926.1	
602.99	5850.4	
603.18	7637.6	
603.37	7611.6	
603.57	6136.4	
603.76	6495.5	
603.95	8147.5	
604.14	7922.9	
604.33	5992.4	
604.52	6061.3	
604.71	7770.7	
604.9	7406.8	
605.09	6337.8	
605.28	6219	
605.47	8172.1	
605.66	7761.8	
605.86	6189.6	
606.05	5860.6	
606.24	8057.4	
606.43	7215.7	
606.62	6065.4	
606.81	6396.5	
607	7983	
607.19	7471	
607.38	5732.9	
607.57	5830.6	
607.76	7454.6	
607.95	7074.4	
608.14	6132.3	
608.33	6390.3	
608.52	7328.3	
608.72	7918.8	
608.91	5678.3	
609.1	5600.5	
609.29	7469.6	
609.48	7165.2	
609.67	6104.3	
609.86	5597.8	
610.05	7242.3	
610.24	7223.2	
610.43	5612.8	
610.62	5399.1	
610.81	7970.7	
611	7931.1	
611.19	5606.7	
611.38	5980.1	
611.57	7595.2	
611.76	8066.9	
611.95	5547.3	
612.14	5433.3	
612.33	7319.4	
612.52	7133.8	
612.71	5834	
612.9	5459.2	
613.09	7019.1	
613.28	8251.9	
613.47	5721.3	
613.66	6163.7	
613.85	7563.1	
614.04	7164.5	
614.24	5725.4	
614.43	5275.6	
614.62	7582.3	
614.81	7504.4	
615	5949.3	
615.19	5884.5	
615.38	7173.4	
615.57	7487.4	
615.76	5952.1	
615.95	6488.6	
616.14	7617.8	
616.33	7378.1	
616.52	6051.7	
616.71	6120.7	
616.9	7474.4	
617.09	7427.3	
617.28	5887.9	
617.47	6343.9	
617.66	7137.9	
617.85	7096.2	
618.04	6167.1	
618.22	5970.5	
618.41	7255.3	
618.6	7914.7	
618.79	5969.8	
618.98	5801.9	
619.17	7950.2	
619.36	6961.7	
619.55	5956.2	
619.74	5905.7	
619.93	7613	
620.12	7268.2	
620.31	6208.1	
620.5	6317.3	
620.69	8081.3	
620.88	8217.8	
621.07	6630.6	
621.26	6200.6	
621.45	7718.8	
621.64	7757	
621.83	6198.5	
622.02	5852.4	
622.21	7813.7	
622.4	7613	
622.59	6461.3	
622.78	6487.3	
622.97	7473	
623.16	7974.8	
623.35	6276.3	
623.54	5723.4	
623.72	7529.7	
623.91	7587.7	
624.1	6356.9	
624.29	5670.8	
624.48	8125.7	
624.67	7821.2	
624.86	6356.2	
625.05	5833.3	
625.24	8271.1	
625.43	7409.6	
625.62	7151.5	
625.81	5912.5	
626	7855.3	
626.19	7461.4	
626.38	6288.6	
626.56	5947.3	
626.75	7422.5	
626.94	7725.6	
627.13	6260.6	
627.32	5579.3	
627.51	7803.4	
627.7	8196.7	
627.89	5646.9	
628.08	6229.2	
628.27	7202.7	
628.46	7482.6	
628.65	5827.8	
628.83	5572.5	
629.02	7742	
629.21	7234.8	
629.4	5999.9	
629.59	6070.2	
629.78	7283.9	
629.97	7751.6	
630.16	6091.3	
630.35	5924.8	
630.54	8203.5	
630.72	7983.7	
630.91	5858.6	
631.1	6175.3	
631.29	7589.1	
631.48	7567.9	
631.67	6232.7	
631.86	5903.6	
632.05	7515.4	
632.24	7511.9	
632.42	5778.7	
632.61	6131.6	
632.8	7428.7	
632.99	7167.2	
633.18	6111.8	
633.37	6282.5	
633.56	7628.7	
633.75	7615.7	
633.93	6097.5	
634.12	6007.4	
634.31	8146.8	
634.5	7742	
634.69	5930.2	
634.88	6236.7	
635.07	7520.8	
635.25	7894.2	
635.44	6468.2	
635.63	6601.3	
635.82	7491.5	
636.01	6765.1	
636.2	6427.2	
636.39	6183.5	
636.57	8208.3	
636.76	7675.1	
636.95	5872.9	
637.14	6578.1	
637.33	7637.6	
637.52	8064.2	
637.7	5714.5	
637.89	6333	
638.08	7499.7	
638.27	8201.4	
638.46	6272.9	
638.65	6416.3	
638.83	8178.9	
639.02	7339.2	
639.21	6311.2	
639.4	6376.7	
639.59	7587.7	
639.78	7381.6	
639.96	5823.7	
640.15	5782.8	
640.34	7514	
640.53	7392.5	
640.72	5713.2	
640.91	5817.6	
641.09	7137.9	
641.28	7793.9	
641.47	5907.7	
641.66	6194.4	
641.85	7563.8	
642.03	7613	
642.22	6034	
642.41	5827.8	
642.6	7174.7	
642.79	6796.5	
642.97	5715.9	
643.16	6006	
643.35	7081.2	
643.54	7034.8	
643.73	5627.1	
643.91	5964.4	
644.1	6950.8	
644.29	7239.6	
644.48	5562.3	
644.67	5552.7	
644.85	6751.5	
645.04	7193.8	
645.23	5302.2	
645.42	5462.6	
645.6	6883.9	
645.79	7408.2	
645.98	5335	
646.17	4859.1	
646.36	6513.2	
646.54	6742.6	
646.73	5662.6	
646.92	5078.3	
647.11	6638.1	
647.29	7095.5	
647.48	5033.2	
647.67	4948.6	
647.86	7249.1	
648.05	7197.9	
648.23	5171.8	
648.42	5922	
648.61	7020.4	
648.8	6842.9	
648.98	5010	
649.17	5309	
649.36	6657.9	
649.55	6402	
649.73	5188.2	
649.92	5538.4	
650.11	6574	
650.3	6690.7	
650.48	5216.9	
650.67	5126.1	
650.86	6764.4	
651.05	6216.3	
651.23	5124.7	
651.42	5059.2	
651.61	6583.5	
651.79	6467.5	
651.98	5288.5	
652.17	4980.7	
652.36	6776.7	
652.54	6277.7	
652.73	5066.7	
652.92	4997	
653.11	6722.8	
653.29	6876.4	
653.48	4706.2	
653.67	5095.3	
653.85	6528.2	
654.04	7140.6	
654.23	5214.1	
654.42	4984.8	
654.6	6287.9	
654.79	6552.1	
654.98	4662.5	
655.16	4970.4	
655.35	6118	
655.54	5836.7	
655.73	4649.6	
655.91	4591.5	
656.1	6511.2	
656.29	5885.9	
656.47	4496.7	
656.66	5399.8	
656.85	6186.9	
657.03	6167.8	
657.22	4769.7	
657.41	4821.6	
657.59	6281.8	
657.78	6171.2	
657.97	4528.1	
658.16	5038	
658.34	6709.8	
658.53	6886	
658.72	5509.7	
658.9	5720	
659.09	6457.2	
659.28	6493.4	
659.46	4919.9	
659.65	4790.9	
659.84	6244.9	
660.02	6689.3	
660.21	4866.7	
660.4	4784.7	
660.58	6748.7	
660.77	6404.7	
660.96	5225.1	
661.14	4619.5	
661.33	7043	
661.52	6937.8	
661.7	4573.1	
661.89	6335.1	
662.08	6221.7	
662.26	5905.7	
662.45	4747.9	
662.64	4833.2	
662.82	6689.3	
663.01	6087.9	
663.2	4803.9	
663.38	5102.2	
663.57	6498.9	
663.75	6497.5	
663.94	4969.7	
664.13	5580	
664.31	6262.7	
664.5	6535.1	
664.69	5048.9	
664.87	5287.2	
665.06	6089.3	
665.25	6442.2	
665.43	5441.5	
665.62	5492.7	
665.8	6509.1	
665.99	6201.9	
666.18	4971.1	
666.36	4957.4	
666.55	6569.9	
666.74	6429.9	
666.92	4713.7	
667.11	5633.3	
667.29	6276.3	
667.48	6493.4	
667.67	5329.5	
667.85	4873.5	
668.04	6154.1	
668.22	6154.8	
668.41	4940.4	
668.6	5157.5	
668.78	6018.3	
668.97	6233.3	
669.15	5084.4	
669.34	4513	
669.53	6053.8	
669.71	6289.3	
669.9	4665.3	
670.08	4941.7	
670.27	6021	
670.46	6445.6	
670.64	5114.5	
670.83	5309.7	
671.01	5915.2	
671.2	6240.2	
671.38	4765.6	
671.57	4670.1	
671.76	6707.1	
671.94	6861.4	
672.13	4613.4	
672.31	5085.8	
672.5	6508.4	
672.69	6072.2	
672.87	4725.3	
673.06	4866.7	
673.24	6343.9	
673.43	6179.4	
673.61	5064.6	
673.8	4830.5	
673.98	6370.5	
674.17	6451.1	
674.36	5162.2	
674.54	5024.3	
674.73	6154.1	
674.91	6546	
675.1	4923.3	
675.28	4578.6	
675.47	6201.9	
675.65	6429.9	
675.84	4881	
676.03	4989.5	
676.21	6139.8	
676.4	5752.7	
676.58	5210	
676.77	5123.3	
676.95	6929	
677.14	6118.6	
677.32	4637.3	
677.51	4548.5	
677.69	6488	
677.88	6002.6	
678.06	4648.9	
678.25	4747.9	
678.44	6262.7	
678.62	5981.4	
678.81	4527.4	
678.99	5016.8	
679.18	6616.3	
679.36	6361	
679.55	4734.2	
679.73	5061.9	
679.92	6405.4	
680.1	6019	
680.29	5427.1	
680.47	4835.9	
680.66	6126.2	
680.84	6468.9	
681.03	4448.2	
681.21	5091.9	
681.4	6057.2	
681.58	6020.3	
681.77	4683	
681.95	4615.4	
682.14	6524.1	
682.32	6653.2	
682.51	5134.9	
682.69	4498	
682.88	6100.2	
683.06	6196.5	
683.25	5019.6	
683.43	5193	
683.62	6235.4	
683.8	6361	
683.99	5295.4	
684.17	4860.5	
684.36	6713.2	
684.54	6081.1	
684.73	4351.3	
684.91	4406.5	
685.1	6124.1	
685.28	5661.3	
685.46	4594.3	
685.65	4619.5	
685.83	6020.3	
686.02	5730.2	
686.2	4301.4	
686.39	4427	
686.57	5651	
686.76	6386.2	
686.94	4401.8	
687.13	4476.2	
687.31	6016.9	
687.5	5917.3	
687.68	4214.7	
687.86	4719.9	
688.05	6867.5	
688.23	5573.9	
688.42	4883	
688.6	4451.6	
688.79	5803.3	
688.97	5838.8	
689.16	4752	
689.34	4203.1	
689.52	6296.1	
689.71	6455.2	
689.89	4875.5	
690.08	4509.6	
690.26	6029.9	
690.45	5827.2	
690.63	4965	
690.81	4643.4	
691	6019	
691.18	5836	
691.37	4683	
691.55	5851	
691.74	5795.1	
691.92	6847.7	
692.1	4640.7	
692.29	4395.6	
692.47	6073.6	
692.66	5597.1	
692.84	4468	
693.02	4797	
693.21	5651.7	
693.39	5973.2	
693.58	4894	
693.76	4513.7	
693.94	6582.9	
694.13	6438.8	
694.31	4692.6	
694.5	5181.4	
694.68	5971.9	
694.86	6202.6	
695.05	4915.8	
695.23	5126.1	
695.42	6451.1	
695.6	7588.4	
695.78	5177.9	
695.97	4754.7	
696.15	6455.2	
696.34	6050.4	
696.52	4678.2	
696.7	5031.9	
696.89	6274.3	
697.07	5855.8	
697.25	4934.9	
697.44	5666	
697.62	6229.2	
697.81	6298.9	
697.99	4851	
698.17	5077.6	
698.36	5979.4	
698.54	6324.1	
698.72	5022.3	
698.91	4401.1	
699.09	6063.4	
699.28	5897.5	
699.46	4874.8	
699.64	4729.4	
699.83	6029.2	
700.01	6427.2	
700.19	5240.8	
700.38	4393.6	
700.56	6495.5	
700.74	6047	
700.93	4569.7	
701.11	5074.9	
701.29	6357.6	
701.48	6987.7	
701.66	4798.4	
701.84	4843.4	
702.03	6262	
702.21	6669.6	
702.39	4645.5	
702.58	4944.5	
702.76	6551.5	
702.94	6511.2	
703.13	4605.9	
703.31	5883.8	
703.49	6208.8	
703.68	6913.9	
703.86	4738.3	
704.04	5240.8	
704.23	6398.5	
704.41	6631.3	
704.59	4886.5	
704.78	5409.4	
704.96	7302.4	
705.14	6567.2	
705.33	4808.6	
705.51	5134.9	
705.69	6227.2	
705.87	6789	
706.06	5256.5	
706.24	4693.3	
706.42	6536.4	
706.61	6606.7	
706.79	5351.3	
706.97	4685.8	
707.16	6176	
707.34	6500.3	
707.52	5261.9	
707.7	4882.4	
707.89	6175.3	
708.07	6070.2	
708.25	5334.3	
708.44	5429.8	
708.62	6192.4	
708.8	6900.3	
708.98	5468.8	
709.17	4945.2	
709.35	6384.2	
709.53	6471.6	
709.72	4830.5	
709.9	4891.2	
710.08	6750.8	
710.26	6713.2	
710.45	5674.9	
710.63	4950.6	
710.81	6412.2	
710.99	6461.3	
711.18	5301.5	
711.36	4956.8	
711.54	6346.7	
711.72	6691.4	
711.91	5098.1	
712.09	4763.6	
712.27	6700.3	
712.45	6655.2	
712.64	5061.9	
712.82	4523.3	
713	6042.2	
713.18	6059.3	
713.37	4593.6	
713.55	5152.7	
713.73	6488	
713.91	5687.2	
714.1	4613.4	
714.28	4283	
714.46	6062	
714.64	5603.9	
714.83	3856.3	
715.01	4229.7	
715.19	5717.2	
715.37	5076.9	
715.55	4012	
715.74	4145.8	
715.92	5961.6	
716.1	4830.5	
716.28	4828.4	
716.47	4216.8	
716.65	5392.3	
716.83	5282.4	
717.01	4108.9	
717.19	4056.3	
717.38	6405.4	
717.56	5079.6	
717.74	4292.5	
717.92	3869.3	
718.1	5907.7	
718.29	5414.1	
718.47	3728	
718.65	4118.5	
718.83	6024.4	
719.01	5913.2	
719.2	3869.3	
719.38	4384.7	
719.56	5753.4	
719.74	6592.4	
719.92	4269.3	
720.11	4770.4	
720.29	5854.5	
720.47	5331.5	
720.65	3872.7	
720.83	4324.6	
721.02	5489.2	
721.2	5327.4	
721.38	4274.8	
721.56	3826.3	
721.74	4999.8	
721.92	5012.7	
722.11	4410.6	
722.29	4292.5	
722.47	5779.4	
722.65	5276.3	
722.83	3906.2	
723.01	4265.9	
723.2	5357.5	
723.38	5526.8	
723.56	3586.7	
723.74	4188.1	
723.92	5020.3	
724.1	5700.2	
724.29	3835.2	
724.47	4493.9	
724.65	5216.9	
724.83	5074.9	
725.01	3858.4	
725.19	4183.3	
725.37	5077.6	
725.56	5098.8	
725.74	3719.1	
725.92	3845.4	
726.1	5162.2	
726.28	5273.5	
726.46	4057	
726.64	3902.7	
726.83	5421	
727.01	5348.6	
727.19	3766.9	
727.37	4130.8	
727.55	5414.1	
727.73	5654.4	
727.91	3657.7	
728.09	3584.6	
728.28	5607.3	
728.46	5716.6	
728.64	4251.6	
728.82	4198.3	
729	6181.5	
729.18	5955.5	
729.36	3782.6	
729.54	5013.4	
729.72	6406	
729.91	5535	
730.09	5005.9	
730.27	4244.1	
730.45	5593.7	
730.63	5892	
730.81	4622.3	
730.99	4186.7	
731.17	6286.6	
731.35	5435.3	
731.53	4429.1	
731.71	4254.3	
731.9	6053.8	
732.08	6034.7	
732.26	4336.9	
732.44	4071.4	
732.62	6059.9	
732.8	5897.5	
732.98	4508.3	
733.16	4042.7	
733.34	5892.7	
733.52	5031.2	
733.7	4290.5	
733.88	4412	
734.07	5789.6	
734.25	5589.6	
734.43	4038.6	
734.61	4800.4	
734.79	6494.8	
734.97	5572.5	
735.15	4153.3	
735.33	4315.8	
735.51	5829.2	
735.69	5638.7	
735.87	4826.4	
736.05	4371	
736.23	5691.3	
736.41	5450.3	
736.59	4348.5	
736.77	4362.9	
736.95	6006.7	
737.13	5551.4	
737.32	4121.9	
737.5	4266.6	
737.68	6301.6	
737.86	5525.4	
738.04	3958.7	
738.22	5027.8	
738.4	5511.1	
738.58	5717.9	
738.76	4339.6	
738.94	3750.5	
739.12	5517.2	
739.3	5492	
739.48	4642.7	
739.66	4520.5	
739.84	5708.4	
740.02	5657.2	
740.2	3868.6	
740.38	3997	
740.56	5872.9	
740.74	5085.8	
740.92	4371	
741.1	4287.1	
741.28	5550.7	
741.46	5327.4	
741.64	4145.1	
741.82	4397	
742	5597.1	
742.18	5489.9	
742.36	4188.8	
742.54	4061.1	
742.72	5922.7	
742.9	5104.2	
743.08	4378.6	
743.26	3713	
743.44	5857.9	
743.62	5813.5	
743.8	4468.7	
743.98	3981.3	
744.16	5710.4	
744.34	5419.6	
744.52	4371.7	
744.7	4373.8	
744.88	5738.4	
745.06	5383.4	
745.24	4362.2	
745.42	4431.1	
745.6	5795.1	
745.78	5693.4	
745.96	3733.4	
746.14	3946.4	
746.32	6218.3	
746.5	5601.9	
746.68	4179.2	
746.86	3837.9	
747.03	5809.4	
747.21	5023.7	
747.39	4184	
747.57	3847.5	
747.75	5411.4	
747.93	5662.6	
748.11	3793.5	
748.29	3812.6	
748.47	6361	
748.65	5266	
748.83	4237.2	
749.01	4102.8	
749.19	5575.3	
749.37	5087.2	
749.55	4018.8	
749.73	4076.8	
749.91	5517.2	
750.09	5293.3	
750.26	4083.6	
750.44	3730	
750.62	5434.6	
750.8	5291.3	
750.98	3682.9	
751.16	3845.4	
751.34	5497.4	
751.52	5038	
751.7	4296	
751.88	3694.5	
752.06	5681.1	
752.24	5576.6	
752.42	3716.4	
752.59	3834.5	
752.77	5355.4	
752.95	6006	
753.13	4193.6	
753.31	3893.2	
753.49	5186.8	
753.67	5357.5	
753.85	4076.8	
754.03	3807.2	
754.21	5571.8	
754.38	5729.5	
754.56	3818.1	
754.74	3304.7	
754.92	4988.2	
755.1	5325.4	
755.28	3191.4	
755.46	3128.6	
755.64	5778	
755.82	5664.7	
755.99	3160.7	
756.17	3130	
756.35	4079.6	
756.53	4896.7	
756.71	2439.1	
756.89	3163.4	
757.07	4646.8	
757.25	4190.1	
757.42	3238.5	
757.6	3777.1	
757.78	4783.4	
757.96	4278.9	
758.14	3180.5	
758.32	2930	
758.5	3948.5	
758.67	4443.4	
758.85	3003.7	
759.03	3091.8	
759.21	4575.8	
759.39	4191.5	
759.57	2852.8	
759.75	3432.4	
759.92	5012.7	
760.1	4676.9	
760.28	3678.2	
760.46	3844	
760.64	4541	
760.82	4382	
760.99	3631.7	
761.17	3226.2	
761.35	5025.7	
761.53	4389.5	
761.71	3432.4	
761.89	3672	
762.06	4937.7	
762.24	4677.6	
762.42	3364.1	
762.6	3272	
762.78	4714.4	
762.96	5057.1	
763.13	3675.4	
763.31	3454.9	
763.49	5124	
763.67	4721.3	
763.85	3939.6	
764.02	4199	
764.2	5370.5	
764.38	4749.9	
764.56	3372.3	
764.74	3889.1	
764.91	5367.7	
765.09	4667.3	
765.27	3317	
765.45	3118.4	
765.63	5497.4	
765.8	5205.9	
765.98	3080.1	
766.16	3158.7	
766.34	4437.9	
766.52	4360.1	
766.69	3677.5	
766.87	3034.4	
767.05	4758.1	
767.23	5151.3	
767.41	3235.1	
767.58	3364.1	
767.76	4982.7	
767.94	5119.9	
768.12	3355.3	
768.29	3634.5	
768.47	4627	
768.65	5134.3	
768.83	3047.4	
769	3597.6	
769.18	4512.4	
769.36	4828.4	
769.54	3629	
769.72	3021.4	
769.89	5101.5	
770.07	4988.2	
770.25	3284.3	
770.43	3986	
770.6	5511.8	
770.78	5582.1	
770.96	3351.8	
771.14	3619.4	
771.31	4962.2	
771.49	4641.4	
771.67	2876.7	
771.85	2977.7	
772.02	4182.6	
772.2	4517.1	
772.38	3372.3	
772.55	3047.4	
772.73	4756.1	
772.91	4565.6	
773.09	3290.4	
773.26	3334.1	
773.44	4681	
773.62	4569	
773.8	3056.9	
773.97	2880.1	
774.15	4717.2	
774.33	4569.7	
774.5	2926.5	
774.68	3087	
774.86	4642.1	
775.04	4484.4	
775.21	3014.6	
775.39	2889	
775.57	4687.1	
775.74	4664.6	
775.92	2781.1	
776.1	2755.9	
776.27	4675.5	
776.45	5201.8	
776.63	2962.7	
776.81	2747	
776.98	4396.3	
777.16	4959.5	
777.34	3022.8	
777.51	3122.5	
777.69	4432.5	
777.87	4292.5	
778.04	3121.1	
778.22	3295.2	
778.4	4228.4	
778.57	4724	
778.75	2577	
778.93	2762	
779.1	4231.8	
779.28	4005.1	
779.46	2564.1	
779.64	2853.5	
779.81	4746.5	
779.99	5079.6	
780.17	3247.4	
780.34	3334.1	
780.52	4423.6	
780.69	4459.1	
780.87	3066.5	
781.05	2787.3	
781.22	4459.8	
781.4	4455.7	
781.58	2899.2	
781.75	2334.7	
781.93	4489.8	
782.11	4035.2	
782.28	3378.5	
782.46	2860.3	
782.64	3953.3	
782.81	4601.1	
782.99	2963.4	
783.17	2846	
783.34	4409.3	
783.52	4114.4	
783.69	2890.4	
783.87	3402.4	
784.05	4229.1	
784.22	4027	
784.4	3367.5	
784.58	3065.1	
784.75	4645.5	
784.93	4170.3	
785.1	2880.1	
785.28	3081.5	
785.46	4564.2	
785.63	4012.7	
785.81	2899.2	
785.99	2689.7	
786.16	4218.8	
786.34	4297.3	
786.51	2719	
786.69	3012.6	
786.87	3904.1	
787.04	4169	
787.22	2721.1	
787.39	3142.9	
787.57	4091.2	
787.75	4661.9	
787.92	3315	
788.1	3220.1	
788.27	3945.8	
788.45	3745.1	
788.63	3104	
788.8	2385.2	
788.98	4317.8	
789.15	3757.3	
789.33	2461.7	
789.5	2757.9	
789.68	4545.1	
789.86	4592.2	
790.03	3044	
790.21	2723.1	
790.38	4668.7	
790.56	4145.1	
790.73	2653.5	
790.91	2654.9	
791.09	4016.7	
791.26	4418.2	
791.44	2836.4	
791.61	2529.2	
791.79	4070	
791.96	3995.6	
792.14	2575.7	
792.32	2281.4	
792.49	4019.5	
792.67	4105.5	
792.84	2648	
793.02	2457.6	
793.19	4377.9	
793.37	4644.8	
793.54	2343.6	
793.72	2476	
793.89	4675.5	
794.07	3966.2	
794.25	2833	
794.42	2402.9	
794.6	4580.6	
794.77	4336.2	
794.95	3002.3	
795.12	2640.5	
795.3	4088.4	
795.47	4311	
795.65	2951.1	
795.82	2786.6	
796	3973.7	
796.17	4872.8	
796.35	2701.3	
796.52	3103.4	
796.7	4368.3	
796.87	4373.1	
797.05	2681.5	
797.22	3159.3	
797.4	4403.1	
797.57	4821.6	
797.75	2790.7	
797.92	2626.2	
798.1	4615.4	
798.27	3894.6	
798.45	2367.5	
798.62	2525.8	
798.8	4216.8	
798.97	4442.7	
799.15	2882.9	
799.32	2822.1	
799.5	3773	
799.67	4083.6	
799.85	3004.4	
800.02	2340.1	
800.2	4006.5	
800.37	4050.9	
800.55	3026.2	
800.72	2630.3	
800.9	4414.1	
801.07	4594.3	
801.25	3376.4	
801.42	2902.7	
801.6	4511.7	
801.77	4111	
801.95	2742.2	
802.12	2601.6	
802.29	4316.4	
802.47	4230.4	
802.64	2874.7	
802.82	2292.4	
802.99	3989.4	
803.17	4439.3	
803.34	2774.3	
803.52	2554.5	
803.69	4852.3	
803.87	3814.7	
804.04	2774.3	
804.21	2808.4	
804.39	4644.8	
804.56	4059.8	
804.74	2492.4	
804.91	2895.1	
805.09	4025.6	
805.26	3993.5	
805.44	2511.5	
805.61	2671.2	
805.78	4451.6	
805.96	4306.2	
806.13	2801.6	
806.31	2977.1	
806.48	3683.6	
806.66	3992.2	
806.83	2837.8	
807	2703.3	
807.18	4001	
807.35	4209.3	
807.53	2796.8	
807.7	2377.7	
807.87	4605.2	
808.05	3960.8	
808.22	2979.8	
808.4	2364.7	
808.57	3881.6	
808.74	3707.5	
808.92	2654.2	
809.09	3207.1	
809.27	4031.8	
809.44	4192.9	
809.61	2381.1	
809.79	2587.9	
809.96	4800.4	
810.14	4339.6	
810.31	2361.3	
810.48	2932.7	
810.66	3967.6	
810.83	4399.7	
811.01	2620.7	
811.18	2799.6	
811.35	4443.4	
811.53	3626.3	
811.7	2996.2	
811.87	2796.8	
812.05	4115.1	
812.22	3967.6	
812.39	2593.4	
812.57	2489.6	
812.74	4072.7	
812.92	4831.8	
813.09	2746.3	
813.26	2811.2	
813.44	4749.2	
813.61	3882.9	
813.78	2334	
813.96	2944.3	
814.13	4032.5	
814.3	3908.2	
814.48	3138.9	
814.65	2642.6	
814.82	4676.9	
815	3791.5	
815.17	2748.4	
815.34	3277.4	
815.52	3900.7	
815.69	3910.3	
815.87	2657.6	
816.04	2697.2	
816.21	3899.3	
816.38	3708.2	
816.56	2705.4	
816.73	2507.4	
816.9	4886.5	
817.08	4310.3	
817.25	2603	
817.42	2962.7	
817.6	3753.2	
817.77	3948.5	
817.94	2778.4	
818.12	2497.2	
818.29	3899.3	
818.46	5225.7	
818.64	2660.3	
818.81	2444.6	
818.98	3870	
819.16	4991.6	
819.33	2932	
819.5	2761.3	
819.67	4162.2	
819.85	4514.4	
820.02	2725.2	
820.19	2817.3	
820.37	4162.2	
820.54	3930.1	
820.71	2803	
820.88	3358.7	
821.06	4111	
821.23	3833.1	
821.4	2786.6	
821.58	2763.4	
821.75	4334.2	
821.92	4063.9	
822.09	2396.1	
822.27	2369.5	
822.44	3996.3	
822.61	3936.2	
822.79	2362.7	
822.96	4045.4	
823.13	4154.6	
823.3	3764.2	
823.48	2621.4	
823.65	2398.9	
823.82	4453.6	
823.99	3764.8	
824.17	3201.7	
824.34	2435.7	
824.51	4918.5	
824.68	4061.1	
824.86	2575.7	
825.03	2777	
825.2	3998.3	
825.37	4563.6	
825.55	2555.2	
825.72	2759.3	
825.89	4765.6	
826.06	4605.9	
826.24	2669.9	
826.41	2637.1	
826.58	4614.8	
826.75	4130.1	
826.92	2300.6	
827.1	2484.9	
827.27	5767.1	
827.44	4756.1	
827.61	2554.5	
827.79	2939.5	
827.96	3969.6	
828.13	3963.5	
828.3	2716.3	
828.47	2355.8	
828.65	4329.4	
828.82	4227.7	
828.99	3196.9	
829.16	2872.6	
829.34	4427.7	
829.51	4328	
829.68	2687.6	
829.85	2719	
830.02	4737	
830.2	4464.6	
830.37	2286.2	
830.54	3119.1	
830.71	4866.7	
830.88	4044.1	
831.05	2191.3	
831.23	2504.7	
831.4	4850.3	
831.57	5039.4	
831.74	2547.7	
831.91	2351.1	
832.09	4347.2	
832.26	4455	
832.43	2603.7	
832.6	2829.6	
832.77	4265.2	
832.94	4689.8	
833.12	2192	
833.29	2522.4	
833.46	4231.1	
833.63	5064.6	
833.8	2763.4	
833.97	2585.2	
834.15	4521.9	
834.32	4389.5	
834.49	2811.2	
834.66	2721.1	
834.83	4453.6	
835	3960.8	
835.17	2507.4	
835.35	2478.7	
835.52	4446.1	
835.69	4276.2	
835.86	2600.9	
836.03	2238.4	
836.2	4433.9	
836.37	4244.1	
836.55	2533.3	
836.72	2482.1	
836.89	4173.1	
837.06	4542.4	
837.23	2639.1	
837.4	2805	
837.57	4898.1	
837.75	5094.7	
837.92	2411.1	
838.09	2517	
838.26	4228.4	
838.43	4468	
838.6	2759.3	
838.77	2476.7	
838.94	4984.8	
839.11	4857.8	
839.29	2603	
839.46	2125.8	
839.63	4542.4	
839.8	4216.8	
839.97	2548.4	
840.14	2549	
840.31	4412.7	
840.48	4456.4	
840.65	2192.7	
840.82	2465.1	
841	4410.6	
841.17	4252.9	
841.34	2357.2	
841.51	2445.3	
841.68	4402.5	
841.85	4254.3	
842.02	2456.9	
842.19	2150.4	
842.36	4323.9	
842.53	4306.2	
842.7	2372.2	
842.87	2719	
843.05	5173.9	
843.22	4201.7	
843.39	2282.8	
843.56	2489	
843.73	4190.1	
843.9	4512.4	
844.07	3509.5	
844.24	2957.3	
844.41	5608	
844.58	3969.6	
844.75	2303.3	
844.92	2446	
845.09	4352.6	
845.26	4345.8	
845.43	2358.6	
845.6	2498.5	
845.77	4468.7	
845.94	4280.9	
846.12	2580.4	
846.29	2647.3	
846.46	4603.8	
846.63	4332.1	
846.8	2390	
846.97	2701.3	
847.14	4607.2	
847.31	4406.5	
847.48	2579.1	
847.65	2850.1	
847.82	4291.2	
847.99	4472.8	
848.16	2970.2	
848.33	2760	
848.5	4091.2	
848.67	4629.1	
848.84	2317.6	
849.01	2431.6	
849.18	4149.2	
849.35	3917.8	
849.52	2795.5	
849.69	2323.8	
849.86	4561.5	
850.03	4522.6	
850.2	2381.8	
850.37	2729.9	
850.54	4527.4	
850.71	4154	
850.88	2767.5	
851.05	2351.8	
851.22	4287.1	
851.39	4651.6	
851.56	2260.3	
851.73	2648.7	
851.9	3959.4	
852.07	4554.7	
852.24	2604.3	
852.41	2332	
852.58	4356.7	
852.75	4031.1	
852.92	2629.6	
853.09	2306	
853.26	4014.7	
853.43	4572.4	
853.6	2372.2	
853.77	2070.5	
853.94	4691.2	
854.11	3892.5	
854.28	3210.5	
854.44	2544.3	
854.61	4932.2	
854.78	4557.4	
854.95	2376.3	
855.12	2781.8	
855.29	3718.4	
855.46	4691.2	
855.63	2349.7	
855.8	3048.1	
855.97	4023.6	
856.14	4601.8	
856.31	3112.2	
856.48	2546.3	
856.65	4199.7	
856.82	3910.3	
856.99	2337.4	
857.16	2536.8	
857.33	5027.8	
857.49	4214	
857.66	2505.3	
857.83	2644.6	
858	4297.3	
858.17	4373.8	
858.34	2302.6	
858.51	2390	
858.68	4694.6	
858.85	4785.4	
859.02	2656.9	
859.19	2762	
859.36	4020.2	
859.52	3867.2	
859.69	2344.9	
859.86	2667.8	
860.03	3945.8	
860.2	4677.6	
860.37	2181.8	
860.54	2394.8	
860.71	4497.3	
860.88	4674.1	
861.05	2590.7	
861.21	2929.3	
861.38	4708.3	
861.55	3825.6	
861.72	2228.2	
861.89	2588.6	
862.06	4543.1	
862.23	4756.7	
862.4	2296.5	
862.56	2405.7	
862.73	4444.1	
862.9	4276.8	
863.07	2669.2	
863.24	2185.2	
863.41	3994.2	
863.58	4008.6	
863.75	2387.9	
863.91	2702	
864.08	4547.9	
864.25	4438.6	
864.42	2818.7	
864.59	3078.1	
864.76	4857.1	
864.93	3949.8	
865.09	2310.8	
865.26	2495.1	
865.43	4631.8	
865.6	4883	
865.77	2108.7	
865.94	2284.2	
866.1	4643.4	
866.27	4404.5	
866.44	3244.7	
866.61	2265.7	
866.78	4213.4	
866.95	4458.4	
867.11	2310.8	
867.28	2177	
867.45	4646.2	
867.62	3960.1	
867.79	2544.3	
867.96	2357.9	
868.12	3863.8	
868.29	4433.2	
868.46	2351.8	
868.63	2983.9	
868.8	4539.7	
868.97	4452.3	
869.13	2464.4	
869.3	2449.4	
869.47	4341	
869.64	4485.1	
869.81	2362	
869.97	2338.1	
870.14	4273.4	
870.31	4693.9	
870.48	2269.8	
870.65	2884.9	
870.81	4205.8	
870.98	4177.2	
871.15	2574.3	
871.32	2452.8	
871.48	4432.5	
871.65	4769	
871.82	2359.3	
871.99	2572.2	
872.16	5003.2	
872.32	4629.8	
872.49	2379.1	
872.66	2375.6	
872.83	4564.9	
872.99	4066.6	
873.16	2616.6	
873.33	2366.1	
873.5	4276.2	
873.67	4278.9	
873.83	2506.7	
874	2998.9	
874.17	4336.9	
874.34	4811.4	
874.5	2866.5	
874.67	2760.7	
874.84	4638	
875.01	3850.9	
875.17	3084.9	
875.34	2338.1	
875.51	4328	
875.68	5012.1	
875.84	2710.8	
876.01	3126.6	
876.18	4499.4	
876.34	4402.5	
876.51	2398.9	
876.68	2329.9	
876.85	4116.4	
877.01	4669.4	
877.18	3177.1	
877.35	2288.3	
877.52	4429.8	
877.68	3962.8	
877.85	2351.8	
878.02	2348.3	
878.18	4072.7	
878.35	4155.3	
878.52	1949.7	
878.69	2710.1	
878.85	4568.3	
879.02	4430.4	
879.19	3188	
879.35	2480.1	
879.52	4521.9	
879.69	4513	
879.86	2142.2	
880.02	2569.5	
880.19	4291.9	
880.36	4857.1	
880.52	2613.2	
880.69	2728.6	
880.86	4552.6	
881.02	4525.3	
881.19	2572.2	
881.36	2450.7	
881.52	4476.9	
881.69	4038.6	
881.86	2523.8	
882.02	2484.2	
882.19	4563.6	
882.36	5116.5	
882.52	2452.1	
882.69	3159.3	
882.86	4323.9	
883.02	4361.5	
883.19	2729.9	
883.36	2568.8	
883.52	4443.4	
883.69	4986.8	
883.86	2385.2	
884.02	2215.9	
884.19	4474.1	
884.36	4330.8	
884.52	2625.5	
884.69	2556.5	
884.86	4144.4	
885.02	4715.1	
885.19	2561.3	
885.36	2614.6	
885.52	4185.4	
885.69	4370.4	
885.86	3188	
886.02	2828.2	
886.19	4491.9	
886.35	4116.4	
886.52	2534.7	
886.69	3061	
886.85	3925.3	
887.02	4630.5	
887.19	4630.5	
887.35	4630.5	
887.52	4630.5	
887.68	4630.5	
887.85	4630.5	
888.02	4630.5	
888.18	4630.5	
888.35	4630.5	
888.51	4630.5	
888.68	4630.5	
888.85	4630.5	
889.01	4630.5	
889.18	4630.5	
889.35	4630.5	
889.51	4630.5	
889.68	4630.5	
889.84	4630.5	
890.01	4630.5	
890.17	4630.5	
890.34	4630.5	
890.51	4630.5	
890.67	4630.5	
890.84	4630.5	
891	4630.5	
891.17	4630.5	
891.34	4630.5	
891.5	4630.5	
891.67	4630.5	
891.83	4630.5	
892	4630.5	
892.16	4630.5	
892.33	4630.5	
892.5	4630.5	
892.66	4630.5	
892.83	4630.5	
892.99	4630.5	
893.16	4630.5	
893.32	4630.5	
893.49	4630.5	
893.65	4630.5	
893.82	4630.5	
893.99	4630.5	
894.15	4630.5	
894.32	4630.5	
894.48	4630.5	
894.65	4630.5	
894.81	4630.5	
894.98	4630.5	
895.14	4630.5	
895.31	4630.5	
895.47	4630.5	
895.64	4630.5	
895.81	4630.5	
895.97	4630.5	
896.14	4630.5	
896.3	4630.5	
896.47	4630.5	
896.63	4630.5	
896.8	4630.5	
896.96	4630.5	
897.13	4630.5	
897.29	4630.5	
897.46	4630.5	
897.62	4630.5	
897.79	4630.5	
897.95	4630.5	
898.12	4630.5	
898.28	4630.5	
898.45	4630.5	
898.61	4630.5	
898.78	4630.5	
898.94	4630.5	
899.11	4630.5	
899.27	4630.5	
899.44	4630.5	
899.6	4630.5	
899.77	4630.5	
899.93	4630.5	
900.1	4630.5	
900.26	4630.5	
900.43	4630.5	
900.59	4630.5	
900.76	4630.5	
900.92	4630.5	
901.09	4630.5	
901.25	4630.5	
901.42	4630.5	
901.58	4630.5	
901.75	4630.5	
901.91	4630.5	
902.07	4630.5	
902.24	4630.5	
902.4	4630.5	
902.57	4630.5	
902.73	4630.5	
902.9	4630.5	
903.06	4630.5	
903.23	4630.5	
903.39	4630.5	
903.56	4630.5	
903.72	4630.5	
903.88	4630.5	
904.05	4630.5	
904.21	4630.5	
904.38	4630.5	
904.54	4630.5	
904.71	4630.5	
904.87	4630.5	
905.03	4630.5	
905.2	4630.5	
905.36	4630.5	
905.53	4630.5	
905.69	4630.5	
905.86	4630.5	
906.02	4630.5	
906.18	4630.5	
906.35	4630.5	
906.51	4630.5	
906.68	4630.5	
906.84	4630.5	
907.01	4630.5	
907.17	4630.5	
907.33	4630.5	
907.5	4630.5	
907.66	4630.5	
907.83	4630.5	
907.99	4630.5	
908.15	4630.5	
908.32	4630.5	
908.48	4630.5	
908.65	4630.5	
908.81	4630.5	
908.97	4630.5	
909.14	4630.5	
909.3	4630.5	
909.47	4630.5	
909.63	4630.5	
909.79	4630.5	
909.96	4630.5	
910.12	4630.5	
910.28	4630.5	
910.45	4630.5	
910.61	4630.5	
910.78	4630.5	
910.94	4630.5	
911.1	4630.5	
911.27	4630.5	
911.43	4630.5	
911.59	4630.5	
911.76	4630.5	
911.92	4630.5	
912.08	4630.5	
912.25	4630.5	
912.41	4630.5	
912.57	4630.5	
912.74	4630.5	
912.9	4630.5	
913.07	4630.5	
913.23	4630.5	
913.39	4630.5	
913.56	4630.5	
913.72	4630.5	
913.88	4630.5	
914.05	4630.5	
914.21	4630.5	
914.37	4630.5	
914.54	4630.5	
914.7	4630.5	
914.86	4630.5	
915.03	4630.5	
915.19	4630.5	
