Wavelength	Intensities	
nm	a.u.	
179.22	1940.3	
179.44	1928.8	
179.65	1951.7	
179.86	1906	
180.08	1918.9	
180.29	5036.6	
180.51	3539.6	
180.72	5625.1	
180.94	6690	
181.15	3259.7	
181.37	3216.7	
181.58	5577.3	
181.79	5866.1	
182.01	3382.6	
182.22	3713	
182.44	5847	
182.65	4834.6	
182.87	4603.2	
183.08	4092.5	
183.29	6175.3	
183.51	5073.5	
183.72	3676.8	
183.94	5431.2	
184.15	5474.2	
184.37	5494.7	
184.58	3306.8	
184.79	4527.4	
185.01	5019.6	
185.22	5913.2	
185.44	4776.5	
185.65	3940.3	
185.86	5356.8	
186.08	4941.7	
186.29	3184.6	
186.51	3422.2	
186.72	5104.9	
186.94	6032	
187.15	3925.3	
187.36	4062.5	
187.58	7819.8	
187.79	5558.2	
188.01	4319.8	
188.22	6675	
188.43	6740.5	
188.65	5819.6	
188.86	3456.3	
189.08	4070.7	
189.29	5285.1	
189.5	5276.3	
189.72	3765.5	
189.93	3855.6	
190.15	6019.7	
190.36	7235.5	
190.57	4199.7	
190.79	4012	
191	6143.9	
191.22	6170.5	
191.43	4111	
191.64	3400.3	
191.86	6280.4	
192.07	6097.5	
192.29	3546.4	
192.5	3796.9	
192.71	6033.3	
192.93	5136.3	
193.14	3776.5	
193.35	3833.8	
193.57	5269.4	
193.78	6076.3	
194	3009.8	
194.21	3674.1	
194.42	4947.2	
194.64	5508.4	
194.85	4029	
195.07	4841.4	
195.28	5526.8	
195.49	4804.5	
195.71	5027.1	
195.92	3555.3	
196.13	5692	
196.35	5814.9	
196.56	5408.7	
196.78	4100.7	
196.99	7116	
197.2	6659.3	
197.42	4648.9	
197.63	4138.9	
197.84	4878.9	
198.06	5651.7	
198.27	3788.7	
198.48	5076.9	
198.7	5190.2	
198.91	5341.8	
199.13	4127.3	
199.34	4132.1	
199.55	5890	
199.77	4709	
199.98	3618.8	
200.19	4167.6	
200.41	5266.7	
200.62	5104.2	
200.83	4307.6	
201.05	4609.3	
201.26	5325.4	
201.47	5093.3	
201.69	3649.5	
201.9	3493.2	
202.11	5455.1	
202.33	6511.2	
202.54	3925.3	
202.76	4346.5	
202.97	5607.3	
203.18	5615.5	
203.4	4345.8	
203.61	4199	
203.82	5500.8	
204.04	5134.3	
204.25	4151.9	
204.46	4138.9	
204.68	5501.5	
204.89	5720	
205.1	4010.6	
205.32	3437.9	
205.53	5947.3	
205.74	6023.1	
205.96	2964.8	
206.17	4233.2	
206.38	5790.3	
206.6	6016.9	
206.81	4734.9	
207.02	3818.8	
207.24	5739.8	
207.45	6142.5	
207.66	3919.8	
207.88	3334.1	
208.09	5684.5	
208.3	5462.6	
208.52	3567.6	
208.73	3872.7	
208.94	5431.2	
209.15	6217	
209.37	3913	
209.58	4156	
209.79	6042.2	
210.01	5261.9	
210.22	3156.6	
210.43	3246	
210.65	5459.9	
210.86	5904.3	
211.07	3926.6	
211.29	3549.8	
211.5	5858.6	
211.71	5365.7	
211.93	3561.4	
212.14	3568.9	
212.35	5408.7	
212.56	5632.6	
212.78	4147.1	
212.99	3418.7	
213.2	6469.5	
213.42	5227.8	
213.63	3693.2	
213.84	4026.3	
214.06	4854.4	
214.27	4959.5	
214.48	3981.3	
214.69	4165.6	
214.91	6201.9	
215.12	6219	
215.33	4276.8	
215.55	4723.3	
215.76	6764.4	
215.97	5829.2	
216.18	4095.9	
216.4	3956.7	
216.61	5199.1	
216.82	5982.8	
217.04	3668.6	
217.25	3776.5	
217.46	6164.4	
217.67	5843.5	
217.89	3210.5	
218.1	3353.2	
218.31	5556.1	
218.53	5649.7	
218.74	3778.5	
218.95	3631.7	
219.16	5397.1	
219.38	6431.3	
219.59	3716.4	
219.8	4427.7	
220.01	7136.5	
220.23	5446.9	
220.44	4889.2	
220.65	3586	
220.87	5526.8	
221.08	6113.2	
221.29	3325.9	
221.5	4433.2	
221.72	7561.8	
221.93	5197.7	
222.14	4203.1	
222.35	4927.4	
222.57	5507	
222.78	5867.4	
222.99	3939.6	
223.2	4285	
223.42	5829.2	
223.63	5909.8	
223.84	3054.2	
224.05	3017.3	
224.27	7049.1	
224.48	6508.4	
224.69	4865.3	
224.9	4158.1	
225.12	5705	
225.33	5446.9	
225.54	3277.4	
225.75	3730.7	
225.97	5017.5	
226.18	5302.9	
226.39	3947.8	
226.6	3666.5	
226.82	5230.5	
227.03	5076.2	
227.24	4190.1	
227.45	3421.5	
227.67	5879	
227.88	6469.5	
228.09	4587.4	
228.3	4664.6	
228.52	5898.8	
228.73	5371.1	
228.94	3837.2	
229.15	3429	
229.36	5382.7	
229.58	5279	
229.79	3846.8	
230	4580.6	
230.21	6565.8	
230.43	5578	
230.64	4069.3	
230.85	4276.2	
231.06	5948.7	
231.28	5890.6	
231.49	3441.3	
231.7	3999	
231.91	5779.4	
232.12	5502.9	
232.34	3457	
232.55	4006.5	
232.76	6114.6	
232.97	5621.7	
233.18	3661.1	
233.4	4102.1	
233.61	5735.7	
233.82	5342.5	
234.03	3798.3	
234.25	3730	
234.46	7611.6	
234.67	5500.8	
234.88	4239.3	
235.09	3727.3	
235.31	5806	
235.52	5338.4	
235.73	4136.9	
235.94	3467.9	
236.15	5186.8	
236.37	6677.7	
236.58	3631	
236.79	3975.8	
237	5808.7	
237.21	4953.4	
237.43	4232.5	
237.64	3313.6	
237.85	10028	
238.06	4975.2	
238.27	4300.1	
238.48	3447.4	
238.7	5803.3	
238.91	5320.6	
239.12	3978.5	
239.33	3980.6	
239.54	5068.7	
239.76	5395	
239.97	3950.5	
240.18	3969.6	
240.39	6864.1	
240.6	5776.6	
240.82	4054.3	
241.03	3355.3	
241.24	5468.8	
241.45	6333.7	
241.66	3605.8	
241.87	4268.6	
242.09	6242.9	
242.3	6642.2	
242.51	4270.7	
242.72	4018.1	
242.93	6005.3	
243.14	5444.2	
243.36	4651.6	
243.57	4942.4	
243.78	6390.3	
243.99	5847	
244.2	3993.5	
244.41	3545.7	
244.63	5034.6	
244.84	5813.5	
245.05	4270	
245.26	4035.2	
245.47	5760.9	
245.68	6038.1	
245.9	5232.6	
246.11	4217.5	
246.32	5266	
246.53	5736.4	
246.74	6526.9	
246.95	3315	
247.16	4965.6	
247.38	5505.6	
247.59	3310.9	
247.8	3994.2	
248.01	5143.1	
248.22	5373.2	
248.43	3642	
248.64	3886.4	
248.86	4877.6	
249.07	5203.2	
249.28	3505.4	
249.49	4088.4	
249.7	5998.5	
249.91	6165.1	
250.12	3268.6	
250.34	3323.9	
250.55	5569.1	
250.76	5520	
250.97	4138.3	
251.18	4166.3	
251.39	6324.1	
251.6	5705	
251.81	4209.3	
252.03	4205.8	
252.24	5171.8	
252.45	6110.5	
252.66	3477.5	
252.87	4452.3	
253.08	5547.3	
253.29	7270.3	
253.5	3467.2	
253.72	4796.3	
253.93	5289.2	
254.14	6528.9	
254.35	3733.4	
254.56	3895.9	
254.77	5783.5	
254.98	5099.4	
255.19	3671.3	
255.41	4805.9	
255.62	5568.4	
255.83	6157.6	
256.04	4236.6	
256.25	4229.7	
256.46	6569.9	
256.67	5126.7	
256.88	4062.5	
257.09	4598.4	
257.31	5148.6	
257.52	5151.3	
257.73	5229.8	
257.94	3777.1	
258.15	5324.7	
258.36	5479	
258.57	4754	
258.78	2999.6	
258.99	5994.4	
259.2	5303.6	
259.41	3787.4	
259.63	3895.2	
259.84	6382.2	
260.05	6846.4	
260.26	4995	
260.47	3731.4	
260.68	6145.3	
260.89	5444.2	
261.1	4519.2	
261.31	3598.3	
261.52	6121.4	
261.73	6405.4	
261.95	4855.1	
262.16	4311.7	
262.37	6236.1	
262.58	6310.5	
262.79	4835.9	
263	3864.5	
263.21	5456.5	
263.42	4987.5	
263.63	3890.5	
263.84	3851.5	
264.05	6043.6	
264.26	6442.9	
264.47	4743.8	
264.69	4082.3	
264.9	6189.6	
265.11	5694.7	
265.32	3648.8	
265.53	3777.8	
265.74	5668.1	
265.95	4913.8	
266.16	4017.4	
266.37	4485.1	
266.58	5621.7	
266.79	5312.4	
267	3707.5	
267.21	3500.7	
267.42	5018.2	
267.63	5482.4	
267.84	3989.4	
268.06	3381.2	
268.27	5936.4	
268.48	6225.8	
268.69	3857	
268.9	4593.6	
269.11	6173.9	
269.32	4913.1	
269.53	3951.9	
269.74	3642.7	
269.95	5835.3	
270.16	4753.3	
270.37	3988.1	
270.58	4530.8	
270.79	5328.1	
271	6052.4	
271.21	4252.3	
271.42	4080.9	
271.63	5688.6	
271.84	5132.2	
272.05	3173.7	
272.26	3576.4	
272.47	5498.1	
272.68	5720.7	
272.89	3794.2	
273.11	4441.4	
273.32	5268.1	
273.53	6427.2	
273.74	4263.9	
273.95	4178.5	
274.16	6141.9	
274.37	5588.9	
274.58	4336.2	
274.79	3478.1	
275	5625.1	
275.21	6168.5	
275.42	5270.8	
275.63	4474.8	
275.84	5717.2	
276.05	7256.6	
276.26	4192.9	
276.47	3947.8	
276.68	5329.5	
276.89	6567.2	
277.1	4477.5	
277.31	3480.9	
277.52	5769.8	
277.73	5907	
277.94	3478.8	
278.15	3854.3	
278.36	5700.9	
278.57	5122.7	
278.78	3837.2	
278.99	4274.1	
279.2	5128.1	
279.41	5083.7	
279.62	5005.2	
279.83	3482.2	
280.04	6718	
280.25	4954	
280.46	5027.8	
280.67	3958	
280.88	5080.3	
281.09	6204.7	
281.3	4172.4	
281.51	5229.1	
281.72	5200.5	
281.93	6036	
282.14	3698.6	
282.35	4037.2	
282.56	6002.6	
282.77	5964.4	
282.98	3851.5	
283.19	4692.6	
283.4	7414.3	
283.61	5400.5	
283.82	3452.2	
284.03	4938.3	
284.24	5582.1	
284.45	6149.4	
284.66	4965.6	
284.87	4723.3	
285.08	6139.1	
285.29	6290.7	
285.5	3392.1	
285.71	3912.3	
285.92	6189.6	
286.12	6829.3	
286.33	4894	
286.54	3852.9	
286.75	6017.6	
286.96	5360.2	
287.17	3526.6	
287.38	4801.1	
287.59	5139	
287.8	5005.2	
288.01	3936.9	
288.22	4540.3	
288.43	6015.6	
288.64	5026.4	
288.85	4622.9	
289.06	4376.5	
289.27	5995.8	
289.48	6421.1	
289.69	4977.2	
289.9	4446.8	
290.11	6113.2	
290.32	5186.8	
290.53	4715.1	
290.74	4318.5	
290.94	5905.7	
291.15	6041.5	
291.36	3710.2	
291.57	4493.2	
291.78	5215.5	
291.99	4898.1	
292.2	3540.9	
292.41	4309.6	
292.62	6120	
292.83	5894.1	
293.04	5368.4	
293.25	3607.2	
293.46	5213.4	
293.67	6141.2	
293.88	3709.6	
294.09	3574.4	
294.29	5055.8	
294.5	5649.7	
294.71	3986.7	
294.92	3876.8	
295.13	5268.7	
295.34	6610.2	
295.55	3336.1	
295.76	3420.1	
295.97	5927.5	
296.18	6709.1	
296.39	3530	
296.6	3714.3	
296.81	5599.8	
297.01	6023.1	
297.22	3852.2	
297.43	3715	
297.64	5087.8	
297.85	5140.4	
298.06	3076.7	
298.27	3319.8	
298.48	5545.9	
298.69	5165	
298.9	4037.2	
299.11	3693.9	
299.31	4995.7	
299.52	4999.8	
299.73	4342.4	
299.94	4179.9	
300.15	5493.3	
300.36	5079.6	
300.57	4280.3	
300.78	4267.3	
300.99	5419.6	
301.2	5636	
301.4	3714.3	
301.61	4089.8	
301.82	5874.3	
302.03	5925.5	
302.24	4595	
302.45	3540.9	
302.66	5794.4	
302.87	6268.8	
303.08	3762.8	
303.29	5084.4	
303.49	5205.3	
303.7	5597.8	
303.91	3297.2	
304.12	4843.4	
304.33	5023	
304.54	5580	
304.75	3691.8	
304.96	3559.4	
305.16	5845.6	
305.37	6561.7	
305.58	3239.9	
305.79	3380.5	
306	5868.8	
306.21	4905.6	
306.42	3717.1	
306.63	5737.7	
306.83	5332.9	
307.04	6119.3	
307.25	4129.4	
307.46	4131.4	
307.67	4691.2	
307.88	5928.2	
308.09	3679.5	
308.29	3845.4	
308.5	5569.1	
308.71	6154.1	
308.92	3935.5	
309.13	3515	
309.34	5419.6	
309.55	5503.6	
309.75	4607.9	
309.96	4277.5	
310.17	5924.8	
310.38	5180	
310.59	4492.6	
310.8	3526.6	
311.01	5304.2	
311.21	5364.3	
311.42	3521.8	
311.63	3678.8	
311.84	5251	
312.05	5694.7	
312.26	4146.5	
312.46	4543.1	
312.67	5339.7	
312.88	5057.1	
313.09	3672.7	
313.3	3492.5	
313.51	6264.7	
313.71	6728.3	
313.92	3568.2	
314.13	3814.7	
314.34	5677	
314.55	5362.3	
314.76	4644.8	
314.96	4009.9	
315.17	5580	
315.38	5984.8	
315.59	3636.5	
315.8	3523.2	
316.01	6337.8	
316.21	6427.2	
316.42	3476.1	
316.63	3930.1	
316.84	5358.2	
317.05	6253.1	
317.26	4321.2	
317.46	3831.7	
317.67	5449	
317.88	5940.5	
318.09	4579.9	
318.3	3354.6	
318.5	5215.5	
318.71	5860.6	
318.92	5896.1	
319.13	4209.9	
319.34	6077	
319.54	6108.4	
319.75	3361.4	
319.96	3183.9	
320.17	5976	
320.38	6124.8	
320.58	3274	
320.79	3968.3	
321	6144.6	
321.21	6247	
321.42	3997.6	
321.62	3279.5	
321.83	5078.3	
322.04	5492	
322.25	3799.7	
322.46	3632.4	
322.66	5618.3	
322.87	5709.1	
323.08	4496.7	
323.29	3561.4	
323.5	6563.1	
323.7	5061.9	
323.91	4976.6	
324.12	4442.7	
324.33	5540.4	
324.53	5823.1	
324.74	4228.4	
324.95	4538.3	
325.16	4868.7	
325.37	5296.7	
325.57	3642	
325.78	3695.2	
325.99	5627.1	
326.2	5031.9	
326.4	5076.9	
326.61	3332.7	
326.82	5449	
327.03	5617.6	
327.24	5182.7	
327.44	4931.5	
327.65	5784.1	
327.86	4668.7	
328.07	4283	
328.27	3450.8	
328.48	6233.3	
328.69	5115.1	
328.9	5227.8	
329.1	3879.5	
329.31	5385.5	
329.52	6315.9	
329.73	3632.4	
329.93	4141.7	
330.14	5467.4	
330.35	5708.4	
330.56	5993.7	
330.76	4511	
330.97	5294.7	
331.18	5671.5	
331.39	4028.4	
331.59	3253.5	
331.8	6200.6	
332.01	6234.7	
332.22	3713.6	
332.42	4347.8	
332.63	5629.2	
332.84	5216.9	
333.05	4108.9	
333.25	3697.9	
333.46	5261.2	
333.67	5541.1	
333.88	3774.4	
334.08	4243.4	
334.29	7395.2	
334.5	6220.4	
334.7	3477.5	
334.91	5154.7	
335.12	4994.3	
335.33	5928.9	
335.53	4004.5	
335.74	5970.5	
335.95	5281.7	
336.16	5135.6	
336.36	4024.3	
336.57	4653.7	
336.78	4996.4	
336.98	6188.3	
337.19	4965.6	
337.4	3961.5	
337.61	6679.8	
337.81	5029.1	
338.02	3646.1	
338.23	4792.9	
338.43	6305	
338.64	5084.4	
338.85	3657	
339.05	4814.1	
339.26	6397.2	
339.47	4930.8	
339.68	3607.2	
339.88	5379.3	
340.09	5801.9	
340.3	6034	
340.5	4212.7	
340.71	3243.3	
340.92	4961.5	
341.13	6300.9	
341.33	3517	
341.54	4322.6	
341.75	5739.8	
341.95	5405.3	
342.16	4113	
342.37	4412	
342.57	5111.7	
342.78	5545.2	
342.99	4498.7	
343.19	3254.2	
343.4	5948	
343.61	5795.1	
343.81	3845.4	
344.02	3590.1	
344.23	5989.6	
344.43	6415.6	
344.64	4580.6	
344.85	4356	
345.06	5807.4	
345.26	6163.7	
345.47	4235.9	
345.68	4940.4	
345.88	4830.5	
346.09	5982.8	
346.3	4322.6	
346.5	3218	
346.71	5545.9	
346.92	5191.6	
347.12	3331.4	
347.33	4147.1	
347.54	6119.3	
347.74	6510.5	
347.95	4210.6	
348.16	3140.9	
348.36	5330.9	
348.57	5008.6	
348.78	4119.8	
348.98	4462.5	
349.19	5433.9	
349.39	5016.8	
349.6	3392.1	
349.81	3673.4	
350.01	5742.5	
350.22	5224.4	
350.43	4008.6	
350.63	4824.3	
350.84	5542.5	
351.05	5333.6	
351.25	3658.4	
351.46	3323.9	
351.67	6128.9	
351.87	5229.1	
352.08	3915	
352.29	4421.6	
352.49	6013.5	
352.7	5657.9	
352.9	3514.3	
353.11	4434.5	
353.32	6727.6	
353.52	5307.7	
353.73	3523.9	
353.94	4427.7	
354.14	5833.3	
354.35	5675.6	
354.55	3679.5	
354.76	4087.1	
354.97	5779.4	
355.17	5534.3	
355.38	3411.9	
355.59	4802.5	
355.79	5231.9	
356	5629.9	
356.2	4045.4	
356.41	3467.9	
356.62	4893.3	
356.82	5405.3	
357.03	4309.6	
357.24	3858.4	
357.44	5297.4	
357.65	5308.3	
357.85	5186.8	
358.06	4027	
358.27	4941.7	
358.47	5193	
358.68	3321.8	
358.88	4321.9	
359.09	5749.3	
359.3	6215.6	
359.5	5003.9	
359.71	4384.7	
359.91	6647.7	
360.12	5978	
360.33	4243.4	
360.53	4800.4	
360.74	5234.6	
360.94	5303.6	
361.15	4520.5	
361.36	3688.4	
361.56	6117.3	
361.77	5517.2	
361.97	4973.8	
362.18	3987.4	
362.38	6090	
362.59	5006.6	
362.8	3674.7	
363	3481.5	
363.21	4925.4	
363.41	5661.3	
363.62	4217.5	
363.83	5231.9	
364.03	5737	
364.24	6652.5	
364.44	5261.9	
364.65	5350	
364.85	5483.1	
365.06	5327.4	
365.27	3839.3	
365.47	3877.5	
365.68	6421.7	
365.88	5389.6	
366.09	4263.9	
366.29	3925.3	
366.5	5743.2	
366.71	6234	
366.91	5255.8	
367.12	4440.7	
367.32	6771.9	
367.53	5961.6	
367.73	4428.4	
367.94	5396.4	
368.14	5940.5	
368.35	6951.5	
368.56	4367	
368.76	3691.1	
368.97	6029.2	
369.17	7845.8	
369.38	3808.5	
369.58	4166.9	
369.79	5084.4	
369.99	6466.8	
370.2	5143.8	
370.4	4283.7	
370.61	5739.8	
370.82	6995.9	
371.02	4119.8	
371.23	3457.7	
371.43	5038	
371.64	6365.1	
371.84	4205.8	
372.05	5397.1	
372.25	7761.8	
372.46	6130.3	
372.66	4216.1	
372.87	4128	
373.07	6169.8	
373.28	7813.7	
373.48	5251.7	
373.69	4965	
373.9	5655.8	
374.1	5645.6	
374.31	5175.2	
374.51	4764.3	
374.72	6513.2	
374.92	5347.2	
375.13	5394.3	
375.33	4510.3	
375.54	6106.4	
375.74	5470.1	
375.95	4588.1	
376.15	5934.3	
376.36	6127.5	
376.56	5857.2	
376.77	4689.8	
376.97	5111.7	
377.18	7176.1	
377.38	6230.6	
377.59	5481.7	
377.79	4208.6	
378	5997.8	
378.2	6453.1	
378.41	4317.1	
378.61	4215.4	
378.82	6548.7	
379.02	5607.3	
379.23	4433.9	
379.43	5593.7	
379.64	6582.2	
379.84	6234	
380.05	4237.2	
380.25	4190.8	
380.46	6344.6	
380.66	5895.4	
380.87	5617.6	
381.07	6033.3	
381.28	6982.2	
381.48	6313.2	
381.69	4276.8	
381.89	4339.6	
382.1	5291.3	
382.3	6516	
382.51	5410.7	
382.71	6388.3	
382.91	6301.6	
383.12	6784.9	
383.32	4635.9	
383.53	4959.5	
383.73	6180.1	
383.94	6001.2	
384.14	4756.1	
384.35	3926.6	
384.55	5841.5	
384.76	6383.5	
384.96	4672.1	
385.17	5050.3	
385.37	6290	
385.58	5578.7	
385.78	5001.1	
385.98	3794.2	
386.19	5771.9	
386.39	6238.8	
386.6	4479.6	
386.8	4720.6	
387.01	6406.7	
387.21	6344.6	
387.42	5131.5	
387.62	5827.8	
387.83	5633.3	
388.03	6356.9	
388.23	4759.5	
388.44	5677	
388.64	5298.8	
388.85	5520	
389.05	5181.4	
389.26	5814.2	
389.46	7472.4	
389.67	6797.2	
389.87	5110.4	
390.07	5201.2	
390.28	6017.6	
390.48	5606	
390.69	4420.2	
390.89	4726.7	
391.1	5771.9	
391.3	6807.4	
391.5	5991.7	
391.71	6649.1	
391.91	6462.7	
392.12	7568.6	
392.32	6036.7	
392.53	5258.5	
392.73	5872.2	
392.93	6154.1	
393.14	4879.6	
393.34	5679.7	
393.55	6604	
393.75	6070.2	
393.95	4866	
394.16	4844.1	
394.36	5840.1	
394.57	6579.4	
394.77	4359.4	
394.98	4838	
395.18	5843.5	
395.38	6109.8	
395.59	5724.8	
395.79	4659.1	
396	6013.5	
396.2	6542.6	
396.4	5588.2	
396.61	5507.7	
396.81	6716	
397.02	6003.3	
397.22	5844.9	
397.42	5925.5	
397.63	6752.2	
397.83	5989.6	
398.04	4696	
398.24	5205.3	
398.44	6566.5	
398.65	5676.3	
398.85	4607.2	
399.05	4777.9	
399.26	5998.5	
399.46	7787.7	
399.67	5138.4	
399.87	4867.3	
400.07	6361.7	
400.28	6798.6	
400.48	5026.4	
400.69	6062.7	
400.89	7120.1	
401.09	7397.3	
401.3	4812	
401.5	6091.3	
401.7	7686	
401.91	7948.8	
402.11	5189.6	
402.32	5450.3	
402.52	7010.9	
402.72	6766.5	
402.93	5569.8	
403.13	4359.4	
403.33	7717.4	
403.54	6405.4	
403.74	5332.2	
403.94	6211.5	
404.15	6560.3	
404.35	7723.6	
404.56	5175.2	
404.76	7062.8	
404.96	6995.2	
405.17	6797.2	
405.37	6875	
405.57	5657.2	
405.78	7083.9	
405.98	6414.9	
406.18	5158.2	
406.39	6169.8	
406.59	7093.5	
406.79	6690	
407	5001.1	
407.2	5268.7	
407.4	7170.6	
407.61	7416.4	
407.81	5220.3	
408.01	7772.7	
408.22	6199.2	
408.42	8458.8	
408.62	6549.4	
408.83	5952.8	
409.03	7004.1	
409.23	6761.7	
409.44	6149.4	
409.64	6401.3	
409.84	8000	
410.05	7890.8	
410.25	6298.9	
410.45	6048.3	
410.66	7550.2	
410.86	10069	
411.06	6684.6	
411.27	6429.9	
411.47	9940.2	
411.67	7796.6	
411.88	6780.1	
412.08	7046.4	
412.28	8432.2	
412.49	9043.8	
412.69	6599.9	
412.89	6683.2	
413.09	8839	
413.3	8677.2	
413.5	6760.3	
413.7	6347.3	
413.91	7782.3	
414.11	8826.1	
414.31	6602	
414.52	7137.2	
414.72	8555	
414.92	8544.1	
415.12	6683.9	
415.33	7275.1	
415.53	8985.1	
415.73	9114.8	
415.94	7670.3	
416.14	7071	
416.34	7890.1	
416.55	7733.1	
416.75	8319.5	
416.95	7807.5	
417.15	9108.7	
417.36	9692.4	
417.56	8697.7	
417.76	7596.6	
417.97	9411.8	
418.17	9179	
418.37	7149.5	
418.57	7329	
418.78	8871.1	
418.98	8493.6	
419.18	8142	
419.38	8127.7	
419.59	8634.9	
419.79	8194.6	
419.99	7141.9	
420.2	7502.4	
420.4	9183.1	
420.6	9259.5	
420.8	7143.3	
421.01	6924.2	
421.21	8979.7	
421.41	9189.9	
421.61	7516.7	
421.82	7161.7	
422.02	8484.7	
422.22	9406.3	
422.42	7972.1	
422.63	7582.9	
422.83	8678.6	
423.03	9981.8	
423.23	7664.2	
423.44	6614.9	
423.64	8734.6	
423.84	8394.6	
424.04	7111.2	
424.25	6793.1	
424.45	9572.9	
424.65	9506.7	
424.85	6552.8	
425.06	7137.2	
425.26	9587.9	
425.46	8444.5	
425.66	7566.6	
425.87	7193.8	
426.07	9268.4	
426.27	9166.7	
426.47	7471.7	
426.67	6754.9	
426.88	9595.4	
427.08	9078	
427.28	7734.5	
427.48	6676.4	
427.69	8066.9	
427.89	8677.2	
428.09	7748.1	
428.29	6815	
428.5	9491.7	
428.7	8926.4	
428.9	6800.6	
429.1	7370	
429.3	8809	
429.51	9366.7	
429.71	6946	
429.91	7899	
430.11	9256.1	
430.31	9541.5	
430.52	7445.7	
430.72	7849.2	
430.92	9879.4	
431.12	9437.7	
431.32	7303.7	
431.53	7546.1	
431.73	8288.1	
431.93	10027	
432.13	7078.5	
432.33	7114	
432.54	8695	
432.74	9211.1	
432.94	7049.8	
433.14	8070.4	
433.34	9274.6	
433.55	8966	
433.75	8069	
433.95	10037	
434.15	9265.7	
434.35	8981.7	
434.56	7208.8	
434.76	6845	
434.96	9187.9	
435.16	9640.5	
435.36	7233.4	
435.56	8440.4	
435.77	8983.1	
435.97	9145.5	
436.17	9283.4	
436.37	8382.3	
436.57	8963.3	
436.78	8951.7	
436.98	9527.8	
437.18	9024.7	
437.38	9785.9	
437.58	9098.4	
437.78	9181	
437.99	7768.6	
438.19	9557.2	
438.39	11121	
438.59	7779.6	
438.79	7185.6	
438.99	10555	
439.2	9273.9	
439.4	7421.8	
439.6	7413	
439.8	9728.5	
440	10830	
440.2	8678.6	
440.4	8810.4	
440.61	10138	
440.81	10742	
441.01	7846.5	
441.21	8896.4	
441.41	10718	
441.61	10235	
441.81	9110	
442.02	10261	
442.22	11353	
442.42	10395	
442.62	8098.4	
442.82	8110	
443.02	10865	
443.22	9990.7	
443.43	8670.4	
443.63	8162.5	
443.83	9764	
444.03	9827.5	
444.23	9501.9	
444.43	8985.8	
444.63	10195	
444.83	11486	
445.04	8242.4	
445.24	9626.8	
445.44	10281	
445.64	10492	
445.84	8939.4	
446.04	8996.7	
446.24	9612.5	
446.44	10744	
446.65	8132.5	
446.85	8716.2	
447.05	10021	
447.25	10678	
447.45	8665.6	
447.65	8058.8	
447.85	10098	
448.05	9699.9	
448.25	9159.9	
448.46	9004.2	
448.66	10174	
448.86	9893.7	
449.06	8064.2	
449.26	9213.1	
449.46	10686	
449.66	9495.7	
449.86	8804.2	
450.06	8817.2	
450.26	9843.2	
450.47	10492	
450.67	9017.2	
450.87	9314.8	
451.07	10533	
451.27	10462	
451.47	8432.9	
451.67	9049.3	
451.87	10096	
452.07	11148	
452.27	8736	
452.47	8587.1	
452.67	10295	
452.88	11084	
453.08	7905.2	
453.28	10206	
453.48	11843	
453.68	10313	
453.88	8740.7	
454.08	8940.1	
454.28	10991	
454.48	10673	
454.68	9662.3	
454.88	10174	
455.08	11031	
455.28	11080	
455.48	8598.7	
455.68	9384.5	
455.89	11611	
456.09	11390	
456.29	9090.3	
456.49	9411.8	
456.69	11861	
456.89	10849	
457.09	10006	
457.29	10434	
457.49	11341	
457.69	11630	
457.89	9878	
458.09	9230.2	
458.29	11260	
458.49	12066	
458.69	10290	
458.89	9870.5	
459.09	12415	
459.29	12424	
459.49	9899.2	
459.69	10802	
459.9	11852	
460.1	11546	
460.3	9874.6	
460.5	9696.4	
460.7	12009	
460.9	11736	
461.1	9365.4	
461.3	10781	
461.5	12718	
461.7	12389	
461.9	10113	
462.1	10449	
462.3	12045	
462.5	12692	
462.7	10195	
462.9	10532	
463.1	13908	
463.3	13688	
463.5	10643	
463.7	11844	
463.9	12494	
464.1	13074	
464.3	11107	
464.5	11202	
464.7	13158	
464.9	13105	
465.1	12639	
465.3	11742	
465.5	13642	
465.7	13664	
465.9	12196	
466.1	11774	
466.3	13678	
466.5	13304	
466.7	13089	
466.9	11623	
467.1	13539	
467.3	14584	
467.5	13166	
467.7	11893	
467.9	14840	
468.1	15771	
468.3	12631	
468.5	13327	
468.7	13697	
468.9	13599	
469.1	12363	
469.3	13111	
469.5	15860	
469.7	13301	
469.9	12729	
470.1	12089	
470.3	13782	
470.5	13766	
470.7	13386	
470.9	12121	
471.1	13691	
471.3	13806	
471.5	11974	
471.69	14111	
471.89	13269	
472.09	12899	
472.29	12828	
472.49	12899	
472.69	13178	
472.89	14046	
473.09	11927	
473.29	11819	
473.49	13318	
473.69	13374	
473.89	12940	
474.09	12180	
474.29	14707	
474.49	14322	
474.69	12946	
474.89	12177	
475.09	13435	
475.29	13347	
475.49	11503	
475.69	11852	
475.88	14941	
476.08	13574	
476.28	11535	
476.48	11945	
476.68	14048	
476.88	13957	
477.08	11749	
477.28	12208	
477.48	13302	
477.68	14041	
477.88	11708	
478.08	11993	
478.28	14508	
478.48	13554	
478.67	12039	
478.87	11212	
479.07	14278	
479.27	13741	
479.47	12297	
479.67	12327	
479.87	14120	
480.07	14749	
480.27	11553	
480.47	13196	
480.67	13755	
480.87	14511	
481.06	11837	
481.26	12716	
481.46	13746	
481.66	13770	
481.86	12367	
482.06	13487	
482.26	13461	
482.46	14651	
482.66	12283	
482.86	11987	
483.05	13926	
483.25	13373	
483.45	15047	
483.65	12604	
483.85	13595	
484.05	13923	
484.25	13043	
484.45	13744	
484.65	14943	
484.84	15192	
485.04	12475	
485.24	12489	
485.44	15190	
485.64	13609	
485.84	11888	
486.04	13467	
486.24	14024	
486.44	14481	
486.63	11941	
486.83	12977	
487.03	14093	
487.23	14522	
487.43	12235	
487.63	14847	
487.83	14490	
488.02	15556	
488.22	13414	
488.42	14192	
488.62	15408	
488.82	14333	
489.02	12876	
489.22	13188	
489.41	15212	
489.61	15068	
489.81	12753	
490.01	12863	
490.21	15228	
490.41	15791	
490.61	12753	
490.8	12674	
491	14680	
491.2	13817	
491.4	13403	
491.6	12486	
491.8	14692	
491.99	14833	
492.19	12525	
492.39	12879	
492.59	15550	
492.79	15623	
492.99	14160	
493.18	13282	
493.38	15810	
493.58	16903	
493.78	14270	
493.98	13786	
494.18	15843	
494.37	15461	
494.57	14782	
494.77	14711	
494.97	16363	
495.17	16799	
495.37	14387	
495.56	14583	
495.76	17055	
495.96	16616	
496.16	15745	
496.36	14680	
496.55	16883	
496.75	16524	
496.95	15111	
497.15	14919	
497.35	16987	
497.54	17082	
497.74	14827	
497.94	16776	
498.14	17754	
498.34	17664	
498.53	14733	
498.73	15591	
498.93	16707	
499.13	17202	
499.33	15495	
499.52	15960	
499.72	17333	
499.92	17499	
500.12	15154	
500.32	15522	
500.51	17669	
500.71	17480	
500.91	16331	
501.11	15920	
501.31	17606	
501.5	17879	
501.7	16671	
501.9	15532	
502.1	17247	
502.29	17497	
502.49	16001	
502.69	16355	
502.89	17483	
503.09	17415	
503.28	14911	
503.48	14945	
503.68	16472	
503.88	16475	
504.07	15881	
504.27	15266	
504.47	16888	
504.67	16819	
504.86	15716	
505.06	15255	
505.26	16319	
505.46	18215	
505.65	15099	
505.85	15269	
506.05	16279	
506.25	16553	
506.44	14390	
506.64	15225	
506.84	16068	
507.04	16898	
507.23	14624	
507.43	14978	
507.63	18022	
507.83	16363	
508.02	14983	
508.22	14501	
508.42	18203	
508.62	16017	
508.81	14853	
509.01	15593	
509.21	15701	
509.4	16082	
509.6	15062	
509.8	14538	
510	16093	
510.19	17707	
510.39	14493	
510.59	14601	
510.79	15963	
510.98	17483	
511.18	14663	
511.38	14886	
511.57	16750	
511.77	16766	
511.97	15367	
512.17	14371	
512.36	16803	
512.56	16654	
512.76	14537	
512.95	14235	
513.15	17079	
513.35	15678	
513.55	15562	
513.74	14427	
513.94	16850	
514.14	16302	
514.33	15624	
514.53	15350	
514.73	16339	
514.92	16618	
515.12	14833	
515.32	14762	
515.51	16753	
515.71	17453	
515.91	16697	
516.11	14881	
516.3	18624	
516.5	16186	
516.7	15464	
516.89	16080	
517.09	16369	
517.29	16427	
517.48	15659	
517.68	15053	
517.88	16295	
518.07	16936	
518.27	15677	
518.47	14638	
518.66	17580	
518.86	16165	
519.06	14599	
519.25	15056	
519.45	16367	
519.65	18010	
519.84	15735	
520.04	16454	
520.24	18032	
520.43	16894	
520.63	15096	
520.83	14819	
521.02	16107	
521.22	16724	
521.42	15380	
521.61	16014	
521.81	16340	
522.01	16653	
522.2	15640	
522.4	15237	
522.6	17360	
522.79	16265	
522.99	15565	
523.18	15028	
523.38	17379	
523.58	17468	
523.77	17340	
523.97	15276	
524.17	19356	
524.36	18497	
524.56	16949	
524.76	16682	
524.95	17988	
525.15	17423	
525.34	16318	
525.54	16449	
525.74	18374	
525.93	17206	
526.13	17615	
526.33	16571	
526.52	18916	
526.72	18370	
526.91	17907	
527.11	17394	
527.31	18944	
527.5	19579	
527.7	17316	
527.89	16436	
528.09	18188	
528.29	18847	
528.48	17831	
528.68	17402	
528.87	19170	
529.07	18921	
529.27	17180	
529.46	16579	
529.66	18426	
529.85	18887	
530.05	16326	
530.25	17129	
530.44	20047	
530.64	18406	
530.83	17113	
531.03	17367	
531.23	19102	
531.42	19231	
531.62	18503	
531.81	17634	
532.01	19680	
532.21	20114	
532.4	17562	
532.6	17979	
532.79	20790	
532.99	19969	
533.18	18175	
533.38	19078	
533.58	19643	
533.77	20428	
533.97	18411	
534.16	19110	
534.36	20603	
534.55	19831	
534.75	19205	
534.95	18369	
535.14	20697	
535.34	19688	
535.53	17712	
535.73	19833	
535.92	20999	
536.12	19758	
536.31	17964	
536.51	19092	
536.71	19897	
536.9	19584	
537.1	18028	
537.29	18435	
537.49	20536	
537.68	19555	
537.88	18783	
538.07	18153	
538.27	19976	
538.46	21168	
538.66	17879	
538.86	18383	
539.05	19889	
539.25	20356	
539.44	18735	
539.64	18043	
539.83	19579	
540.03	20715	
540.22	17935	
540.42	17922	
540.61	19723	
540.81	20111	
541	18269	
541.2	19108	
541.39	19277	
541.59	19734	
541.78	18786	
541.98	17641	
542.18	18885	
542.37	18698	
542.57	17873	
542.76	18541	
542.96	18624	
543.15	19408	
543.35	17724	
543.54	17092	
543.74	19501	
543.93	19226	
544.13	17547	
544.32	18608	
544.52	19391	
544.71	18662	
544.91	16727	
545.1	17844	
545.3	18628	
545.49	19293	
545.69	16505	
545.88	17124	
546.08	20390	
546.27	19600	
546.47	17729	
546.66	16945	
546.86	19341	
547.05	20084	
547.24	17151	
547.44	17105	
547.63	18186	
547.83	19456	
548.02	17523	
548.22	17555	
548.41	18032	
548.61	19370	
548.8	16762	
549	16807	
549.19	18415	
549.39	18953	
549.58	16357	
549.78	16924	
549.97	18943	
550.17	18363	
550.36	17826	
550.55	18884	
550.75	18310	
550.94	19192	
551.14	16448	
551.33	16735	
551.53	17727	
551.72	18719	
551.92	16914	
552.11	16629	
552.31	18617	
552.5	18543	
552.69	18339	
552.89	16190	
553.08	18531	
553.28	18237	
553.47	16589	
553.67	17864	
553.86	19215	
554.06	17284	
554.25	15590	
554.44	16324	
554.64	19834	
554.83	19424	
555.03	16252	
555.22	16644	
555.42	18604	
555.61	18223	
555.8	16374	
556	16637	
556.19	17488	
556.39	18563	
556.58	16549	
556.78	16470	
556.97	18215	
557.16	18034	
557.36	17664	
557.55	16130	
557.75	17030	
557.94	19060	
558.13	15947	
558.33	15971	
558.52	18634	
558.72	17427	
558.91	15846	
559.1	16216	
559.3	17245	
559.49	16688	
559.69	15375	
559.88	16447	
560.07	17968	
560.27	18299	
560.46	16584	
560.66	16713	
560.85	17666	
561.04	16685	
561.24	15769	
561.43	15836	
561.63	16988	
561.82	17351	
562.01	17267	
562.21	16390	
562.4	17869	
562.59	19025	
562.79	16117	
562.98	15917	
563.18	17790	
563.37	19525	
563.56	16692	
563.76	15884	
563.95	17341	
564.14	17337	
564.34	16251	
564.53	16027	
564.73	17852	
564.92	18355	
565.11	16647	
565.31	16014	
565.5	18634	
565.69	17491	
565.89	16059	
566.08	16381	
566.27	18505	
566.47	19082	
566.66	17289	
566.85	15777	
567.05	18143	
567.24	17529	
567.44	16199	
567.63	17476	
567.82	18315	
568.02	18181	
568.21	16226	
568.4	16617	
568.6	18120	
568.79	18103	
568.98	16008	
569.18	16307	
569.37	18103	
569.56	20138	
569.76	16714	
569.95	17543	
570.14	18316	
570.34	18290	
570.53	16066	
570.72	16202	
570.91	18765	
571.11	17970	
571.3	16474	
571.49	17466	
571.69	18011	
571.88	17608	
572.07	17158	
572.27	16975	
572.46	17704	
572.65	18733	
572.85	16584	
573.04	16884	
573.23	19095	
573.43	18342	
573.62	16419	
573.81	17215	
574	18602	
574.2	18453	
574.39	16918	
574.58	17017	
574.78	19678	
574.97	18728	
575.16	17453	
575.36	17826	
575.55	19347	
575.74	19240	
575.93	16574	
576.13	17795	
576.32	18638	
576.51	19234	
576.71	17045	
576.9	18686	
577.09	19525	
577.28	19100	
577.48	17741	
577.67	16536	
577.86	18741	
578.05	19254	
578.25	17323	
578.44	17509	
578.63	18860	
578.83	20363	
579.02	16722	
579.21	18501	
579.4	19186	
579.6	18940	
579.79	17522	
579.98	19977	
580.17	19582	
580.37	19648	
580.56	17202	
580.75	18028	
580.94	20284	
581.14	20037	
581.33	18604	
581.52	17469	
581.71	19649	
581.91	20247	
582.1	17272	
582.29	17705	
582.48	19365	
582.68	19437	
582.87	18340	
583.06	18025	
583.25	19703	
583.45	19584	
583.64	18903	
583.83	19699	
584.02	19106	
584.21	19771	
584.41	18607	
584.6	17906	
584.79	19415	
584.98	20253	
585.18	17319	
585.37	17340	
585.56	19067	
585.75	19880	
585.94	17475	
586.14	18130	
586.33	20066	
586.52	19209	
586.71	17843	
586.91	17473	
587.1	18335	
587.29	19332	
587.48	17216	
587.67	17173	
587.87	19094	
588.06	19133	
588.25	18281	
588.44	17367	
588.63	18297	
588.83	18887	
589.02	16419	
589.21	16139	
589.4	17296	
589.59	17287	
589.78	14837	
589.98	15021	
590.17	16476	
590.36	16990	
590.55	14188	
590.74	14853	
590.94	18345	
591.13	16694	
591.32	14903	
591.51	14351	
591.7	17357	
591.89	16883	
592.09	14524	
592.28	15054	
592.47	15988	
592.66	18120	
592.85	14515	
593.05	14988	
593.24	16787	
593.43	17644	
593.62	15044	
593.81	15686	
594	16797	
594.19	17100	
594.39	14853	
594.58	14838	
594.77	17024	
594.96	17507	
595.15	14637	
595.34	15287	
595.54	16982	
595.73	16098	
595.92	14073	
596.11	15162	
596.3	17600	
596.49	16178	
596.68	14951	
596.88	15596	
597.07	17202	
597.26	15949	
597.45	14435	
597.64	15789	
597.83	16397	
598.02	17013	
598.22	14579	
598.41	15328	
598.6	16742	
598.79	16150	
598.98	14660	
599.17	15685	
599.36	16844	
599.55	18066	
599.74	16879	
599.94	16827	
600.13	17350	
600.32	15980	
600.51	14378	
600.7	14589	
600.89	18024	
601.08	18116	
601.27	14431	
601.47	15524	
601.66	17219	
601.85	17934	
602.04	15141	
602.23	15327	
602.42	16319	
602.61	16946	
602.8	14982	
602.99	14730	
603.18	16763	
603.37	16948	
603.57	15473	
603.76	16065	
603.95	17734	
604.14	17451	
604.33	15001	
604.52	15348	
604.71	16987	
604.9	16482	
605.09	15709	
605.28	15644	
605.47	17531	
605.66	17246	
605.86	15434	
606.05	15023	
606.24	17601	
606.43	15997	
606.62	15317	
606.81	16030	
607	17411	
607.19	16678	
607.38	14548	
607.57	14933	
607.76	16406	
607.95	15927	
608.14	15225	
608.33	15982	
608.52	16393	
608.72	17182	
608.91	14516	
609.1	14420	
609.29	16343	
609.48	15810	
609.67	15208	
609.86	14228	
610.05	15838	
610.24	16238	
610.43	14104	
610.62	13710	
610.81	17406	
611	17293	
611.19	14235	
611.38	15081	
611.57	16533	
611.76	18079	
611.95	13971	
612.14	13810	
612.33	16408	
612.52	15679	
612.71	14577	
612.9	13758	
613.09	15462	
613.28	17886	
613.47	14169	
613.66	15356	
613.85	16412	
614.04	15947	
614.24	14339	
614.43	13541	
614.62	16699	
614.81	16528	
615	14991	
615.19	15174	
615.38	15775	
615.57	16254	
615.76	14921	
615.95	15777	
616.14	16656	
616.33	16294	
616.52	15329	
616.71	15612	
616.9	16759	
617.09	16604	
617.28	14653	
617.47	16061	
617.66	15936	
617.85	16096	
618.04	15880	
618.22	15340	
618.41	16470	
618.6	17342	
618.79	15344	
618.98	15089	
619.17	17979	
619.36	16196	
619.55	15380	
619.74	15282	
619.93	17247	
620.12	16708	
620.31	16138	
620.5	16217	
620.69	18026	
620.88	18287	
621.07	16889	
621.26	15966	
621.45	17468	
621.64	17628	
621.83	16150	
622.02	15259	
622.21	17636	
622.4	17445	
622.59	16653	
622.78	16561	
622.97	17071	
623.16	17982	
623.35	16168	
623.54	15268	
623.72	17184	
623.91	17447	
624.1	16328	
624.29	14969	
624.48	18572	
624.67	17646	
624.86	16316	
625.05	15337	
625.24	18703	
625.43	16971	
625.62	18198	
625.81	15537	
626	18086	
626.19	17417	
626.38	16513	
626.56	15744	
626.75	17072	
626.94	17888	
627.13	16189	
627.32	14863	
627.51	17535	
627.7	18916	
627.89	14876	
628.08	16141	
628.27	16803	
628.46	16881	
628.65	15205	
628.83	14922	
629.02	17446	
629.21	16807	
629.4	15690	
629.59	15936	
629.78	16842	
629.97	17807	
630.16	16143	
630.35	15504	
630.54	18221	
630.72	17847	
630.91	15465	
631.1	16031	
631.29	17274	
631.48	17584	
631.67	16165	
631.86	15552	
632.05	17122	
632.24	17116	
632.42	15157	
632.61	15937	
632.8	17075	
632.99	16860	
633.18	16085	
633.37	16326	
633.56	17500	
633.75	17427	
633.93	15999	
634.12	15686	
634.31	18396	
634.5	18020	
634.69	15725	
634.88	16135	
635.07	17366	
635.25	17996	
635.44	16604	
635.63	16886	
635.82	17000	
636.01	16445	
636.2	16464	
636.39	16178	
636.57	18290	
636.76	17830	
636.95	15414	
637.14	16918	
637.33	17553	
637.52	18607	
637.7	15157	
637.89	16168	
638.08	17197	
638.27	18473	
638.46	16139	
638.65	16513	
638.83	18370	
639.02	16687	
639.21	15961	
639.4	16453	
639.59	17251	
639.78	16850	
639.96	15225	
640.15	15168	
640.34	16970	
640.53	17130	
640.72	14715	
640.91	15159	
641.09	16273	
641.28	17684	
641.47	15069	
641.66	15907	
641.85	16991	
642.03	17084	
642.22	15730	
642.41	15167	
642.6	16331	
642.79	15644	
642.97	14684	
643.16	15526	
643.35	16177	
643.54	15803	
643.73	14482	
643.91	15270	
644.1	15378	
644.29	16153	
644.48	14285	
644.67	14261	
644.85	15487	
645.04	15756	
645.23	13495	
645.42	13905	
645.6	14940	
645.79	16220	
645.98	13509	
646.17	12604	
646.36	14388	
646.54	15005	
646.73	13949	
646.92	12896	
647.11	14407	
647.29	15488	
647.48	12884	
647.67	12448	
647.86	15587	
648.05	15838	
648.23	13303	
648.42	14679	
648.61	15303	
648.8	15011	
648.98	13026	
649.17	13274	
649.36	14518	
649.55	14067	
649.73	13041	
649.92	13741	
650.11	14376	
650.3	14670	
650.48	12880	
650.67	12752	
650.86	15031	
651.05	13788	
651.23	12997	
651.42	12893	
651.61	14481	
651.79	14427	
651.98	13203	
652.17	12766	
652.36	14696	
652.54	13845	
652.73	12720	
652.92	12421	
653.11	14581	
653.29	14580	
653.48	11766	
653.67	12676	
653.85	14046	
654.04	15224	
654.23	12628	
654.42	12039	
654.6	13158	
654.79	13933	
654.98	11378	
655.16	11911	
655.35	12800	
655.54	12879	
655.73	11656	
655.91	11632	
656.1	14246	
656.29	13072	
656.47	11374	
656.66	13198	
656.85	13355	
657.03	13496	
657.22	12001	
657.41	12071	
657.59	13642	
657.78	13395	
657.97	11688	
658.16	12598	
658.34	14285	
658.53	14889	
658.72	13475	
658.9	14037	
659.09	13777	
659.28	13934	
659.46	12246	
659.65	12144	
659.84	13663	
660.02	14274	
660.21	12195	
660.4	12097	
660.58	14575	
660.77	13976	
660.96	12811	
661.14	11824	
661.33	15109	
661.52	14895	
661.7	11635	
661.89	15628	
662.08	13326	
662.26	13072	
662.45	11852	
662.64	12054	
662.82	14100	
663.01	13361	
663.2	12055	
663.38	12883	
663.57	13958	
663.75	13910	
663.94	12395	
664.13	13647	
664.31	13280	
664.5	14059	
664.69	12424	
664.87	13219	
665.06	13046	
665.25	13863	
665.43	13442	
665.62	13558	
665.8	14224	
665.99	13405	
666.18	12306	
666.36	12390	
666.55	13930	
666.74	14098	
666.92	11765	
667.11	13473	
667.29	13450	
667.48	13919	
667.67	13141	
667.85	12292	
668.04	13415	
668.22	13491	
668.41	12191	
668.6	12417	
668.78	13134	
668.97	13339	
669.15	12507	
669.34	11535	
669.53	13190	
669.71	13605	
669.9	11679	
670.08	12423	
670.27	13123	
670.46	13801	
670.64	12483	
670.83	12956	
671.01	12951	
671.2	13638	
671.38	11812	
671.57	11554	
671.76	14308	
671.94	14946	
672.13	11551	
672.31	12663	
672.5	13899	
672.69	13163	
672.87	11731	
673.06	12142	
673.24	13636	
673.43	13219	
673.61	12349	
673.8	12076	
673.98	13756	
674.17	14072	
674.36	12580	
674.54	12412	
674.73	13506	
674.91	13857	
675.1	12203	
675.28	11715	
675.47	13267	
675.65	13906	
675.84	12038	
676.03	12375	
676.21	13043	
676.4	12771	
676.58	12652	
676.77	12671	
676.95	14584	
677.14	13059	
677.32	11613	
677.51	11452	
677.69	13902	
677.88	12590	
678.06	11475	
678.25	11554	
678.44	13398	
678.62	13085	
678.81	11287	
678.99	12437	
679.18	14169	
679.36	13832	
679.55	11868	
679.73	12610	
679.92	13662	
680.1	13060	
680.29	13241	
680.47	11877	
680.66	12849	
680.84	13847	
681.03	11220	
681.21	12311	
681.4	13059	
681.58	12811	
681.77	11505	
681.95	11495	
682.14	13744	
682.32	14145	
682.51	12525	
682.69	11048	
682.88	12722	
683.06	13352	
683.25	11983	
683.43	12445	
683.62	12904	
683.8	13269	
683.99	12258	
684.17	11373	
684.36	13651	
684.54	12094	
684.73	9912.9	
684.91	10116	
685.1	12094	
685.28	11405	
685.46	10542	
685.65	10725	
685.83	12299	
686.02	11640	
686.2	10069	
686.39	10300	
686.57	11721	
686.76	13089	
686.94	10309	
687.13	10519	
687.31	12377	
687.5	11891	
687.68	9940.2	
687.86	11433	
688.05	13895	
688.23	11546	
688.42	11438	
688.6	10712	
688.79	11949	
688.97	12000	
689.16	11314	
689.34	10025	
689.52	12973	
689.71	13011	
689.89	11437	
690.08	10608	
690.26	12269	
690.45	12174	
690.63	11443	
690.81	10748	
691	11821	
691.18	11876	
691.37	10745	
691.55	12999	
691.74	11548	
691.92	13785	
692.1	10648	
692.29	10146	
692.47	11854	
692.66	11140	
692.84	10401	
693.02	11095	
693.21	11577	
693.39	11987	
693.58	11334	
693.76	10740	
693.94	13512	
694.13	13495	
694.31	11021	
694.5	12140	
694.68	12297	
694.86	12604	
695.05	11356	
695.23	11506	
695.42	13069	
695.6	15383	
695.78	11901	
695.97	10890	
696.15	12884	
696.34	12204	
696.52	10596	
696.7	11424	
696.89	12444	
697.07	11697	
697.25	11215	
697.44	12797	
697.62	12357	
697.81	12583	
697.99	10728	
698.17	11285	
698.36	11428	
698.54	12245	
698.72	11128	
698.91	10098	
699.09	11893	
699.28	11635	
699.46	10806	
699.64	10552	
699.83	11561	
700.01	12900	
700.19	11503	
700.38	9958.6	
700.56	13017	
700.74	11893	
700.93	10375	
701.11	11331	
701.29	12499	
701.48	13675	
701.66	10686	
701.84	10740	
702.03	12072	
702.21	12808	
702.39	10201	
702.58	10853	
702.76	12501	
702.94	12573	
703.13	10177	
703.31	12820	
703.49	11652	
703.68	12834	
703.86	10429	
704.04	11559	
704.23	12241	
704.41	12680	
704.59	10482	
704.78	11551	
704.96	13471	
705.14	12723	
705.33	10449	
705.51	11201	
705.69	12190	
705.87	12947	
706.06	11522	
706.24	10408	
706.42	12476	
706.61	12680	
706.79	11467	
706.97	10346	
707.16	11796	
707.34	12427	
707.52	11339	
707.7	10531	
707.89	11921	
708.07	11624	
708.25	11459	
708.44	11657	
708.62	11800	
708.8	12966	
708.98	11710	
709.17	10509	
709.35	12129	
709.53	12115	
709.72	10252	
709.9	10267	
710.08	12315	
710.26	12399	
710.45	11845	
710.63	10399	
710.81	11916	
710.99	11930	
711.18	10887	
711.36	10304	
711.54	11699	
711.72	12262	
711.91	10375	
712.09	9605	
712.27	11501	
712.45	12080	
712.64	10274	
712.82	9162.6	
713	10531	
713.18	10587	
713.37	8877.3	
713.55	10100	
713.73	11095	
713.91	9394	
714.1	8697	
714.28	7904.5	
714.46	10074	
714.64	9117.6	
714.83	7064.8	
715.01	7884.7	
715.19	8940.7	
715.37	8345.5	
715.55	7342.7	
715.74	7702.4	
715.92	9855.5	
716.1	7709.9	
716.28	8772.1	
716.47	7688.8	
716.65	8371.4	
716.83	8555.7	
717.01	7575.4	
717.19	7720.2	
717.38	10830	
717.56	8338.6	
717.74	8037.6	
717.92	7365.2	
718.1	9869.8	
718.29	9206.3	
718.47	7192.5	
718.65	7962.5	
718.83	10135	
719.01	10082	
719.2	7237.5	
719.38	8414.4	
719.56	9747	
719.74	11255	
719.92	7694.2	
720.11	8800.8	
720.29	9464.3	
720.47	8434.9	
720.65	6995.2	
720.83	7793.9	
721.02	8611	
721.2	8336.6	
721.38	7696.9	
721.56	6985.6	
721.74	7756.3	
721.92	7903.8	
722.11	8357.1	
722.29	7929.7	
722.47	9272.5	
722.65	8347.5	
722.83	6845.7	
723.01	7903.1	
723.2	8476.5	
723.38	8762.6	
723.56	6306.4	
723.74	7571.3	
723.92	7908.6	
724.1	9101.2	
724.29	6762.4	
724.47	8071	
724.65	7980.3	
724.83	7925	
725.01	6708.5	
725.19	7649.8	
725.37	7956.4	
725.56	8023.3	
725.74	6467.5	
725.92	6802	
726.1	7923.6	
726.28	8213.7	
726.46	7238.2	
726.64	6939.2	
726.83	8143.4	
727.01	8434.9	
727.19	6499.6	
727.37	7402	
727.55	8281.3	
727.73	8752.3	
727.91	6460	
728.09	6358.3	
728.28	8895	
728.46	9606.3	
728.64	7756.3	
728.82	7722.2	
729	10313	
729.18	9525.1	
729.36	7019.1	
729.54	9375.6	
729.72	10838	
729.91	9032.2	
730.09	9164	
730.27	7858.7	
730.45	9043.8	
730.63	9660.3	
730.81	8621.9	
730.99	7638.9	
731.17	10228	
731.35	8708	
731.53	8128.4	
731.71	7643.7	
731.9	9884.9	
732.08	10012	
732.26	7875.8	
732.44	7585	
732.62	10000	
732.8	9473.2	
732.98	8203.5	
733.16	7340.6	
733.34	9419.3	
733.52	8163.2	
733.7	7819.8	
733.88	8137.3	
734.07	9405	
734.25	9103.2	
734.43	7249.8	
734.61	8943.5	
734.79	10699	
734.97	9017.2	
735.15	7478.5	
735.33	7771.4	
735.51	9252	
735.69	8910.7	
735.87	9095	
736.05	7984.3	
736.23	9121	
736.41	9010.4	
736.59	7845.8	
736.77	8013	
736.95	9791.3	
737.13	9088.2	
737.32	7535.8	
737.5	7754.3	
737.68	10161	
737.86	8903.9	
738.04	7343.3	
738.22	9304.6	
738.4	8772.1	
738.58	9070.5	
738.76	8084	
738.94	6911.2	
739.12	8857.5	
739.3	8858.1	
739.48	8704.5	
739.66	8436.3	
739.84	9260.9	
740.02	9211.1	
740.2	6888	
740.38	7354.3	
740.56	9647.3	
740.74	8414.4	
740.92	8084	
741.1	7962.5	
741.28	8853.4	
741.46	8748.9	
741.64	7565.2	
741.82	8015.1	
742	8938.7	
742.18	8961.2	
742.36	7636.2	
742.54	7244.3	
742.72	9463	
742.9	8185.7	
743.08	8181	
743.26	6896.9	
743.44	9706	
743.62	9533.3	
743.8	8244.4	
743.98	7217.7	
744.16	9161.9	
744.34	8740.7	
744.52	8054.7	
744.7	8125.7	
744.88	9273.2	
745.06	8749.6	
745.24	8041.7	
745.42	8166.6	
745.6	9323.7	
745.78	8974.9	
745.96	6776.7	
746.14	7020.4	
746.32	9962	
746.5	9217.2	
746.68	7740	
746.86	7179.5	
747.03	9686.2	
747.21	7879.9	
747.39	7567.9	
747.57	7129	
747.75	8885.5	
747.93	9207	
748.11	7103	
748.29	6935.1	
748.47	10500	
748.65	8475.2	
748.83	7900.4	
749.01	7495.6	
749.19	9098.4	
749.37	8175.5	
749.55	7435.5	
749.73	7524.9	
749.91	8608.3	
750.09	8398	
750.26	7559.1	
750.44	6884.6	
750.62	8745.5	
750.8	8669.7	
750.98	6748.7	
751.16	7053.2	
751.34	8705.2	
751.52	8024.6	
751.7	7925	
751.88	6731.7	
752.06	9207	
752.24	9038.4	
752.42	6605.4	
752.59	7059.3	
752.77	8630.8	
752.95	9977	
753.13	7799.3	
753.31	7141.9	
753.49	8227.4	
753.67	8695.7	
753.85	7387.7	
754.03	7014.3	
754.21	8800.1	
754.38	9245.9	
754.56	7045	
754.74	5915.2	
754.92	7859.4	
755.1	8445.8	
755.28	5541.8	
755.46	5330.9	
755.64	8563.2	
755.82	8462.9	
755.99	5017.5	
756.17	4968.4	
756.35	5450.3	
756.53	7034.1	
756.71	3611.3	
756.89	4682.3	
757.07	6697.5	
757.25	5770.5	
757.42	5466	
757.6	6593.8	
757.78	7139.9	
757.96	6107.7	
758.14	5369.1	
758.32	4837.3	
758.5	5519.3	
758.67	6391	
758.85	4975.2	
759.03	5146.5	
759.21	6544.6	
759.39	5941.2	
759.57	4616.8	
759.75	5866.7	
759.92	7363.1	
760.1	6604	
760.28	6441.5	
760.46	6695.5	
760.64	6498.9	
760.82	6260	
760.99	6442.2	
761.17	5611.4	
761.35	7606.2	
761.53	6498.9	
761.71	5868.1	
761.89	6728.9	
762.06	7583.6	
762.24	7145.4	
762.42	6169.2	
762.6	5956.2	
762.78	7308.5	
762.96	7952.9	
763.13	6774	
763.31	6341.9	
763.49	8223.3	
763.67	7341.3	
763.85	7324.2	
764.02	7909.3	
764.2	8540.7	
764.38	7725.6	
764.56	6281.8	
764.74	7151.5	
764.91	8680	
765.09	7443.7	
765.27	5894.1	
765.45	5723.4	
765.63	8692.3	
765.8	8575.5	
765.98	5393	
766.16	5788.9	
766.34	7000	
766.52	6767.9	
766.69	6746.7	
766.87	5567.1	
767.05	7345.4	
767.23	8203.5	
767.41	5854.5	
767.58	6108.4	
767.76	7915.4	
767.94	8007.6	
768.12	5958.2	
768.29	6740.5	
768.47	7376.8	
768.65	8155	
768.83	5384.8	
769	6732.4	
769.18	6833.4	
769.36	7646.4	
769.54	6465.4	
769.72	5337	
769.89	7865.6	
770.07	7997.3	
770.25	5717.2	
770.43	7086.7	
770.6	8561.2	
770.78	9082.7	
770.96	5849.7	
771.14	6569.9	
771.31	7645.1	
771.49	6899.6	
771.67	4993.6	
771.85	5160.2	
772.02	6142.5	
772.2	6896.9	
772.38	5950.7	
772.55	5401.9	
772.73	7178.1	
772.91	6926.2	
773.09	5797.8	
773.26	5902.2	
773.44	7153.6	
773.62	6802.7	
773.8	5172.5	
773.97	4940.4	
774.15	7078.5	
774.33	6675	
774.5	5061.2	
774.68	5457.2	
774.86	7079.8	
775.04	6739.9	
775.21	5068	
775.39	5114.5	
775.57	6964.5	
775.74	7310.6	
775.92	4967.7	
776.1	4820.2	
776.27	6827.2	
776.45	8073.8	
776.63	5010	
776.81	4513	
776.98	6391.7	
777.16	7612.3	
777.34	5113.1	
777.51	5422.3	
777.69	6357.6	
777.87	6086.6	
778.04	5074.9	
778.22	5789.6	
778.4	6059.9	
778.57	6853.2	
778.75	4304.8	
778.93	4696	
779.1	5855.8	
779.28	5735	
779.46	4375.1	
779.64	4839.4	
779.81	6858	
779.99	7789.8	
780.17	5617.6	
780.34	5823.1	
780.52	6325.5	
780.69	6560.3	
780.87	5027.8	
781.05	4614.1	
781.22	6326.9	
781.4	6326.2	
781.58	4762.2	
781.75	3835.2	
781.93	6368.5	
782.11	5709.7	
782.28	5679.7	
782.46	4637.3	
782.64	5481.7	
782.81	6434	
782.99	4780	
783.17	4693.3	
783.34	6332.3	
783.52	5479	
783.69	4953.4	
783.87	5797.1	
784.05	5608	
784.22	5562.3	
784.4	5677	
784.58	4955.4	
784.75	6520	
784.93	5558.2	
785.1	4613.4	
785.28	5181.4	
785.46	6158.2	
785.63	5497.4	
785.81	4552	
785.99	4371.7	
786.16	5705	
786.34	6170.5	
786.51	4401.1	
786.69	4784.7	
786.87	5182.7	
787.04	5808.7	
787.22	3764.2	
787.39	5246.9	
787.57	5446.9	
787.75	6662	
787.92	5436	
788.1	5358.9	
788.27	5478.3	
788.45	5272.8	
788.63	5088.5	
788.8	3694.5	
788.98	5872.2	
789.15	5145.2	
789.33	3795.6	
789.5	4504.2	
789.68	6391	
789.86	6510.5	
790.03	4895.3	
790.21	4341.7	
790.38	6380.1	
790.56	5510.4	
790.73	4136.2	
790.91	4182	
791.09	5375.9	
791.26	6206	
791.44	4387.4	
791.61	3782.6	
791.79	5325.4	
791.96	5434.6	
792.14	3953.9	
792.32	3482.9	
792.49	5414.1	
792.67	5483.1	
792.84	3981.9	
793.02	3794.9	
793.19	5787.6	
793.37	6631.3	
793.54	3461.7	
793.72	3834.5	
793.89	6709.1	
794.07	5345.2	
794.25	4548.5	
794.42	3517.7	
794.6	6473.6	
794.77	6078.4	
794.95	4747.2	
795.12	4172.4	
795.3	5327.4	
795.47	5976	
795.65	4599.7	
795.82	4339	
796	5102.9	
796.17	7172	
796.35	4292.5	
796.52	4964.3	
796.7	5842.9	
796.87	5961.6	
797.05	5212.8	
797.22	5089.9	
797.4	5930.2	
797.57	6991.8	
797.75	4317.8	
797.92	4108.2	
798.1	6252.4	
798.27	5324.7	
798.45	3538.9	
798.62	3806.5	
798.8	5623.7	
798.97	6102.3	
799.15	4579.3	
799.32	4345.8	
799.5	4826.4	
799.67	5628.5	
799.85	4743.8	
800.02	3460.4	
800.2	5201.8	
800.37	5616.2	
800.55	4902.8	
800.72	4082.3	
800.9	6021	
801.07	6540.5	
801.25	5526.8	
801.42	4482.3	
801.6	6065.4	
801.77	5853.8	
801.95	4022.9	
802.12	3961.5	
802.29	5784.8	
802.47	5755.5	
802.64	4412	
802.82	3335.5	
802.99	5198.4	
803.17	6260	
803.34	4344.4	
803.52	3875.4	
803.69	6955.6	
803.87	4904.9	
804.04	4292.5	
804.21	4380.6	
804.39	6395.8	
804.56	5390.3	
804.74	3616	
804.91	4496	
805.09	5202.5	
805.26	5288.5	
805.44	3706.1	
805.61	4017.4	
805.78	5896.1	
805.96	5937.7	
806.13	4406.5	
806.31	4777.2	
806.48	4697.4	
806.66	5296.7	
806.83	4409.3	
807	4296	
807.18	5114.5	
807.35	5542.5	
807.53	4235.9	
807.7	3429	
807.87	6479.8	
808.05	5228.5	
808.22	4642.1	
808.4	3435.1	
808.57	5245.5	
808.74	4817.5	
808.92	3951.2	
809.09	4940.4	
809.27	5040.7	
809.44	5700.2	
809.61	3447.4	
809.79	3868.6	
809.96	6425.2	
810.14	6018.3	
810.31	3330.7	
810.48	4126	
810.66	5313.1	
810.83	6133.7	
811.01	3906.8	
811.18	4700.8	
811.35	5976	
811.53	4648.9	
811.7	4772.4	
811.87	4420.9	
812.05	5178.6	
812.22	5117.9	
812.39	3728.7	
812.57	3687	
812.74	5179.3	
812.92	6939.9	
813.09	4089.8	
813.26	4513	
813.44	6703.7	
813.61	5145.9	
813.78	3405.8	
813.96	4618.9	
814.13	5205.3	
814.3	4846.9	
814.48	4966.3	
814.65	4087.1	
814.82	6561.7	
815	4995.7	
815.17	4220.2	
815.34	5134.9	
815.52	5144.5	
815.69	5101.5	
815.87	4201.7	
816.04	3635.1	
816.21	5187.5	
816.38	4543.8	
816.56	4069.3	
816.73	3737.5	
816.9	6546.7	
817.08	6016.2	
817.25	3741	
817.42	4835.3	
817.6	4694.6	
817.77	5211.4	
817.94	4302.1	
818.12	3753.9	
818.29	4977.9	
818.46	7893.6	
818.64	3899.3	
818.81	3672.7	
818.98	4880.3	
819.16	7148.8	
819.33	4608.6	
819.5	4204.5	
819.67	5653.8	
819.85	6197.2	
820.02	4135.5	
820.19	4388.1	
820.37	5451	
820.54	4958.8	
820.71	4282.3	
820.88	5335.6	
821.06	5457.8	
821.23	5007.3	
821.4	4320.5	
821.58	4253.6	
821.75	5949.3	
821.92	5356.8	
822.09	3427.6	
822.27	3603.1	
822.44	5180.7	
822.61	5154.1	
822.79	3500.7	
822.96	6701	
823.13	5725.4	
823.3	4900.8	
823.48	4010.6	
823.65	3611.3	
823.82	5918.6	
823.99	4746.5	
824.17	5032.5	
824.34	3633.1	
824.51	6890.7	
824.68	5263.3	
824.86	3780.6	
825.03	4260.5	
825.2	5172.5	
825.37	6336.4	
825.55	3761.4	
825.72	4248.9	
825.89	6956.9	
826.06	6417.7	
826.24	4105.5	
826.41	4193.6	
826.58	6402	
826.75	5525.4	
826.92	3257.6	
827.1	3578.5	
827.27	8697.7	
827.44	6978.8	
827.61	3893.2	
827.79	4727.4	
827.96	4932.2	
828.13	5302.9	
828.3	4007.2	
828.47	3433.1	
828.65	5410.1	
828.82	5339.1	
828.99	5297.4	
829.16	4681.7	
829.34	5765.7	
829.51	5544.5	
829.68	4206.5	
829.85	4433.9	
830.02	6075	
830.2	5824.4	
830.37	3267.2	
830.54	5084.4	
830.71	6663.4	
830.88	5141.1	
831.05	3289	
831.23	3807.9	
831.4	6314.6	
831.57	7199.3	
831.74	3922.5	
831.91	3455.6	
832.09	5432.6	
832.26	5801.9	
832.43	4073.4	
832.6	4552	
832.77	5436.7	
832.94	6254.5	
833.12	3177.8	
833.29	4053.6	
833.46	5648.3	
833.63	7417.7	
833.8	4397.7	
833.97	4110.3	
834.15	5872.2	
834.32	5579.3	
834.49	4203.1	
834.66	4306.9	
834.83	6070.9	
835	4892.6	
835.17	3885	
835.35	4005.1	
835.52	5735	
835.69	5612.1	
835.86	4081.6	
836.03	3347.7	
836.2	5752.1	
836.37	5381.4	
836.55	4046.8	
836.72	3806.5	
836.89	5330.9	
837.06	5814.2	
837.23	4138.9	
837.4	4545.1	
837.57	6647.7	
837.75	7423.2	
837.92	3728	
838.09	3949.8	
838.26	5346.6	
838.43	6113.9	
838.6	4258.4	
838.77	3763.5	
838.94	6970.6	
839.11	6744	
839.29	4048.8	
839.46	3155.2	
839.63	5763	
839.8	5551.4	
839.97	3964.2	
840.14	3984.7	
840.31	5554.1	
840.48	5783.5	
840.65	3248.1	
840.82	3899.3	
841	5805.3	
841.17	5765.7	
841.34	3651.5	
841.51	3667.2	
841.68	5687.9	
841.85	5533.6	
842.02	3758	
842.19	3122.5	
842.36	5539.8	
842.53	5500.2	
842.7	3547.1	
842.87	4454.3	
843.05	7315.3	
843.22	5449.6	
843.39	3450.1	
843.56	3680.9	
843.73	5260.5	
843.9	5870.2	
844.07	5874.3	
844.24	4880.3	
844.41	8675.9	
844.58	4997	
844.75	3479.5	
844.92	3732.8	
845.09	5754.8	
845.26	5760.9	
845.43	3517.7	
845.6	3801.7	
845.77	5766.4	
845.94	5539.8	
846.12	4020.2	
846.29	4212.7	
846.46	5977.3	
846.63	5778.7	
846.8	3585.3	
846.97	4271.4	
847.14	6315.9	
847.31	5687.2	
847.48	4064.5	
847.65	4543.8	
847.82	6052.4	
847.99	6044.9	
848.16	4862.6	
848.33	4465.3	
848.5	5382.7	
848.67	6275	
848.84	3571	
849.01	3774.4	
849.18	5196.4	
849.35	4820.9	
849.52	4504.2	
849.69	3538.9	
849.86	6005.3	
850.03	6228.6	
850.2	3626.3	
850.37	4389.5	
850.54	6163	
850.71	5462.6	
850.88	4323.3	
851.05	3510.2	
851.22	5676.3	
851.39	6375.3	
851.56	3358.7	
851.73	4115.7	
851.9	5064.6	
852.07	6023.1	
852.24	4012.7	
852.41	3577.8	
852.58	5681.1	
852.75	5178.6	
852.92	4016.1	
853.09	3554.6	
853.26	5311.7	
853.43	6255.9	
853.6	3538.9	
853.77	3063.8	
853.94	6337.1	
854.11	5075.5	
854.28	5365	
854.44	3946.4	
854.61	6808.8	
854.78	5849	
854.95	3573	
855.12	4531.5	
855.29	4642.1	
855.46	6416.3	
855.63	3534.8	
855.8	5047.6	
855.97	5391.6	
856.14	6082.5	
856.31	5074.2	
856.48	3884.3	
856.65	5323.4	
856.82	5012.1	
856.99	3444.7	
857.16	3902.1	
857.33	7025.9	
857.49	5415.5	
857.66	3831.1	
857.83	4251.6	
858	5378	
858.17	5580.7	
858.34	3368.2	
858.51	3588.7	
858.68	6454.5	
858.85	6574.7	
859.02	4193.6	
859.19	4438.6	
859.36	5033.9	
859.52	5094.7	
859.69	3625.6	
859.86	4266.6	
860.03	5173.2	
860.2	6384.9	
860.37	3244	
860.54	3607.2	
860.71	6009.4	
860.88	6414.9	
861.05	4050.9	
861.21	4552	
861.38	6510.5	
861.55	4941.1	
861.72	3224.2	
861.89	4015.4	
862.06	6090	
862.23	6621.8	
862.4	3467.2	
862.56	3725.3	
862.73	5888.6	
862.9	5546.6	
863.07	4215.4	
863.24	3219.4	
863.41	4934.2	
863.58	5041.4	
863.75	3618.1	
863.91	4123.2	
864.08	6402	
864.25	5942.5	
864.42	4539.7	
864.59	5056.4	
864.76	6752.8	
864.93	5076.9	
865.09	3480.9	
865.26	3814.7	
865.43	6302.3	
865.6	6698.9	
865.77	3080.8	
865.94	3561.4	
866.1	6341.9	
866.27	6090.7	
866.44	5423	
866.61	3385.3	
866.78	5523.4	
866.95	5823.7	
867.11	3422.8	
867.28	3209.8	
867.45	6155.5	
867.62	5108.3	
867.79	4131.4	
867.96	3554.6	
868.12	5070.8	
868.29	6085.9	
868.46	3142.3	
868.63	4797.7	
868.8	6201.2	
868.97	5990.3	
869.13	3781.9	
869.3	3762.1	
869.47	5943.9	
869.64	6162.3	
869.81	3591.5	
869.97	3590.8	
870.14	5827.2	
870.31	6498.2	
870.48	3519.8	
870.65	4528.7	
870.81	5346.6	
870.98	5317.9	
871.15	4076.8	
871.32	3730	
871.48	5823.7	
871.65	6568.5	
871.82	3519.8	
871.99	3925.3	
872.16	7012.2	
872.32	6285.9	
872.49	3603.1	
872.66	3652.9	
872.83	5978.7	
872.99	5255.8	
873.16	4134.2	
873.33	3533.4	
873.5	5559.6	
873.67	5687.9	
873.83	3770.3	
874	4846.2	
874.17	5763	
874.34	6936.5	
874.5	4678.2	
874.67	4489.1	
874.84	6455.2	
875.01	5042.8	
875.17	5025.7	
875.34	3528.7	
875.51	5668.1	
875.68	6902.3	
875.84	4326.7	
876.01	5336.3	
876.18	5948	
876.34	5935	
876.51	3624.2	
876.68	3482.9	
876.85	5460.6	
877.01	6326.2	
877.18	5149.3	
877.35	3604.4	
877.52	5585.5	
877.68	4961.5	
877.85	3521.1	
878.02	3538.9	
878.18	5484.5	
878.35	5196.4	
878.52	2830.3	
878.69	4033.1	
878.85	6035.4	
879.02	5928.2	
879.19	5087.8	
879.35	3859.1	
879.52	5906.3	
879.69	6197.2	
879.86	3082.2	
880.02	4042	
880.19	5488.6	
880.36	6732.4	
880.52	4161.5	
880.69	4277.5	
880.86	6124.8	
881.02	6128.2	
881.19	3936.9	
881.36	3914.4	
881.52	5976	
881.69	5283.1	
881.86	3870.7	
882.02	3756	
882.19	6240.2	
882.36	7346.7	
882.52	3638.6	
882.69	5010	
882.86	5691.3	
883.02	5672.2	
883.19	4382	
883.36	4098	
883.52	6036	
883.69	6951.5	
883.86	3588	
884.02	3276.1	
884.19	5986.2	
884.36	5578.7	
884.52	4057	
884.69	3857.7	
884.86	5280.3	
885.02	6654.5	
885.19	4009.9	
885.36	4158.7	
885.52	5568.4	
885.69	5783.5	
885.86	5178.6	
886.02	4615.4	
886.19	6009.4	
886.35	5479	
886.52	3934.8	
886.69	5025.7	
886.85	5094	
887.02	6404	
887.19	6404	
887.35	6404	
887.52	6404	
887.68	6404	
887.85	6404	
888.02	6404	
888.18	6404	
888.35	6404	
888.51	6404	
888.68	6404	
888.85	6404	
889.01	6404	
889.18	6404	
889.35	6404	
889.51	6404	
889.68	6404	
889.84	6404	
890.01	6404	
890.17	6404	
890.34	6404	
890.51	6404	
890.67	6404	
890.84	6404	
891	6404	
891.17	6404	
891.34	6404	
891.5	6404	
891.67	6404	
891.83	6404	
892	6404	
892.16	6404	
892.33	6404	
892.5	6404	
892.66	6404	
892.83	6404	
892.99	6404	
893.16	6404	
893.32	6404	
893.49	6404	
893.65	6404	
893.82	6404	
893.99	6404	
894.15	6404	
894.32	6404	
894.48	6404	
894.65	6404	
894.81	6404	
894.98	6404	
895.14	6404	
895.31	6404	
895.47	6404	
895.64	6404	
895.81	6404	
895.97	6404	
896.14	6404	
896.3	6404	
896.47	6404	
896.63	6404	
896.8	6404	
896.96	6404	
897.13	6404	
897.29	6404	
897.46	6404	
897.62	6404	
897.79	6404	
897.95	6404	
898.12	6404	
898.28	6404	
898.45	6404	
898.61	6404	
898.78	6404	
898.94	6404	
899.11	6404	
899.27	6404	
899.44	6404	
899.6	6404	
899.77	6404	
899.93	6404	
900.1	6404	
900.26	6404	
900.43	6404	
900.59	6404	
900.76	6404	
900.92	6404	
901.09	6404	
901.25	6404	
901.42	6404	
901.58	6404	
901.75	6404	
901.91	6404	
902.07	6404	
902.24	6404	
902.4	6404	
902.57	6404	
902.73	6404	
902.9	6404	
903.06	6404	
903.23	6404	
903.39	6404	
903.56	6404	
903.72	6404	
903.88	6404	
904.05	6404	
904.21	6404	
904.38	6404	
904.54	6404	
904.71	6404	
904.87	6404	
905.03	6404	
905.2	6404	
905.36	6404	
905.53	6404	
905.69	6404	
905.86	6404	
906.02	6404	
906.18	6404	
906.35	6404	
906.51	6404	
906.68	6404	
906.84	6404	
907.01	6404	
907.17	6404	
907.33	6404	
907.5	6404	
907.66	6404	
907.83	6404	
907.99	6404	
908.15	6404	
908.32	6404	
908.48	6404	
908.65	6404	
908.81	6404	
908.97	6404	
909.14	6404	
909.3	6404	
909.47	6404	
909.63	6404	
909.79	6404	
909.96	6404	
910.12	6404	
910.28	6404	
910.45	6404	
910.61	6404	
910.78	6404	
910.94	6404	
911.1	6404	
911.27	6404	
911.43	6404	
911.59	6404	
911.76	6404	
911.92	6404	
912.08	6404	
912.25	6404	
912.41	6404	
912.57	6404	
912.74	6404	
912.9	6404	
913.07	6404	
913.23	6404	
913.39	6404	
913.56	6404	
913.72	6404	
913.88	6404	
914.05	6404	
914.21	6404	
914.37	6404	
914.54	6404	
914.7	6404	
914.86	6404	
915.03	6404	
915.19	6404	
