Wavelength	Intensities	
nm	a.u.	
179.22	1780	
179.44	1781.7	
179.65	1778.3	
179.86	1785.1	
180.08	1793.3	
180.29	4291.9	
180.51	3231.7	
180.72	5274.9	
180.94	5947.3	
181.15	2930.6	
181.37	2904	
181.58	5029.8	
181.79	5356.1	
182.01	3080.8	
182.22	3185.3	
182.44	5333.6	
182.65	4538.3	
182.87	3972.4	
183.08	3558.7	
183.29	5586.2	
183.51	4630.5	
183.72	3317.7	
183.94	4610.7	
184.15	4984.1	
184.37	4979.3	
184.58	2908.8	
184.79	3833.8	
185.01	4687.1	
185.22	5296.7	
185.44	4022.2	
185.65	3469.3	
185.86	5003.2	
186.08	4536.3	
186.29	2876	
186.51	3065.1	
186.72	4715.1	
186.94	5474.2	
187.15	3469.9	
187.36	3575.8	
187.58	6913.9	
187.79	5081	
188.01	3682.2	
188.22	5632.6	
188.43	6029.9	
188.65	5201.8	
188.86	3044	
189.08	3558	
189.29	4810.7	
189.5	4796.3	
189.72	3286.3	
189.93	3393.5	
190.15	5436.7	
190.36	6394.4	
190.57	3640.6	
190.79	3495.9	
191	5500.8	
191.22	5558.2	
191.43	3648.8	
191.64	3082.2	
191.86	5674.2	
192.07	5444.2	
192.29	3147.7	
192.5	3314.3	
192.71	5491.3	
192.93	4799.8	
193.14	3257.6	
193.35	3366.2	
193.57	4781.3	
193.78	5603.9	
194	2669.9	
194.21	3251.5	
194.42	4607.2	
194.64	4991.6	
194.85	3575.1	
195.07	4151.9	
195.28	5010.7	
195.49	4420.9	
195.71	4347.8	
195.92	3102.7	
196.13	5172.5	
196.35	5210	
196.56	4596.3	
196.78	3547.8	
196.99	6395.8	
197.2	5949.3	
197.42	4016.7	
197.63	3590.8	
197.84	4536.3	
198.06	5243.5	
198.27	3347.1	
198.48	4246.1	
198.7	4829.8	
198.91	5024.3	
199.13	3586.7	
199.34	3573.7	
199.55	5408	
199.77	4396.3	
199.98	3202.3	
200.19	3566.9	
200.41	4968.4	
200.62	4628.4	
200.83	3719.1	
201.05	4012.7	
201.26	4957.4	
201.47	4694.6	
201.69	3196.2	
201.9	3093.1	
202.11	4965.6	
202.33	5820.3	
202.54	3433.1	
202.76	3742.3	
202.97	5033.9	
203.18	5111	
203.4	3695.2	
203.61	3701.4	
203.82	5045.5	
204.04	4726.7	
204.25	3660.4	
204.46	3618.1	
204.68	5038.7	
204.89	5171.8	
205.1	3508.2	
205.32	3085.6	
205.53	5386.2	
205.74	5429.8	
205.96	2680.1	
206.17	3651.5	
206.38	5287.2	
206.6	5384.8	
206.81	4083	
207.02	3334.8	
207.24	5196.4	
207.45	5554.1	
207.66	3461.1	
207.88	2988.7	
208.09	5128.8	
208.3	5023	
208.52	3140.2	
208.73	3465.2	
208.94	4990.9	
209.15	5550	
209.37	3435.1	
209.58	3825.6	
209.79	5442.8	
210.01	4881.7	
210.22	2812.5	
210.43	2975.7	
210.65	4947.9	
210.86	5340.4	
211.07	3376.4	
211.29	3156.6	
211.5	5287.2	
211.71	4948.6	
211.93	3197.6	
212.14	3202.3	
212.35	4925.4	
212.56	5074.2	
212.78	3564.1	
212.99	2979.8	
213.2	5739.8	
213.42	4821.6	
213.63	3289	
213.84	3450.1	
214.06	4517.8	
214.27	4521.9	
214.48	3386.7	
214.69	3665.9	
214.91	5577.3	
215.12	5667.4	
215.33	3682.2	
215.55	3996.3	
215.76	6057.2	
215.97	5304.9	
216.18	3551.9	
216.4	3463.8	
216.61	4728.8	
216.82	5367	
217.04	3226.2	
217.25	3309.5	
217.46	5464	
217.67	5296	
217.89	2867.8	
218.1	2991.4	
218.31	5099.4	
218.53	5147.9	
218.74	3327.3	
218.95	3230.3	
219.16	4960.9	
219.38	5774.6	
219.59	3245.3	
219.8	3839.9	
220.01	6311.8	
220.23	5012.1	
220.44	4160.8	
220.65	3127.9	
220.87	5086.5	
221.08	5558.2	
221.29	2960.7	
221.5	3829	
221.72	6637.5	
221.93	4768.4	
222.14	3663.8	
222.35	4244.1	
222.57	5020.9	
222.78	5373.9	
222.99	3438.5	
223.2	3659.7	
223.42	5270.8	
223.63	5338.4	
223.84	2676	
224.05	2721.8	
224.27	6212.2	
224.48	5726.8	
224.69	4128	
224.9	3590.8	
225.12	5223.7	
225.33	4967.7	
225.54	2872.6	
225.75	3252.2	
225.97	4610	
226.18	4912.4	
226.39	3449.5	
226.6	3224.9	
226.82	4795	
227.03	4661.2	
227.24	3585.3	
227.45	3012.6	
227.67	5351.3	
227.88	5743.2	
228.09	4059.8	
228.3	3985.3	
228.52	5309.7	
228.73	4909	
228.94	3396.9	
229.15	3055.6	
229.36	4975.2	
229.58	4891.9	
229.79	3394.8	
230	3850.9	
230.21	5910.4	
230.43	5082.4	
230.64	3528	
230.85	3692.5	
231.06	5365.7	
231.28	5347.9	
231.49	3091.1	
231.7	3528	
231.91	5290.6	
232.12	4969.7	
232.34	3110.9	
232.55	3482.2	
232.76	5563.6	
232.97	5124.7	
233.18	3194.8	
233.4	3582.6	
233.61	5152	
233.82	4793.6	
234.03	3341.6	
234.25	3315.7	
234.46	6745.3	
234.67	5057.1	
234.88	3637.9	
235.09	3218.7	
235.31	5236.7	
235.52	4894	
235.73	3532.7	
235.94	3037.1	
236.15	4768.4	
236.37	5973.9	
236.58	3181.9	
236.79	3438.5	
237	5214.8	
237.21	4579.9	
237.43	3707.5	
237.64	2947.7	
237.85	8660.2	
238.06	4627.7	
238.27	3760.8	
238.48	3044	
238.7	5284.4	
238.91	4905.6	
239.12	3385.3	
239.33	3485	
239.54	4643.4	
239.76	4890.5	
239.97	3434.4	
240.18	3453.6	
240.39	6057.2	
240.6	5229.1	
240.82	3566.2	
241.03	3011.2	
241.24	4990.2	
241.45	5749.3	
241.66	3147	
241.87	3702.7	
242.09	5636	
242.3	5851.7	
242.51	3749.8	
242.72	3437.9	
242.93	5388.2	
243.14	4925.4	
243.36	3958	
243.57	4264.6	
243.78	5717.9	
243.99	5217.5	
244.2	3450.8	
244.41	3145	
244.63	4615.4	
244.84	5233.2	
245.05	3667.9	
245.26	3454.9	
245.47	5322.7	
245.68	5457.2	
245.9	4491.2	
246.11	3611.3	
246.32	4853	
246.53	5214.8	
246.74	5539.8	
246.95	2951.1	
247.16	4628.4	
247.38	5005.9	
247.59	2959.3	
247.8	3480.2	
248.01	4739	
248.22	4941.7	
248.43	3148.4	
248.64	3349.1	
248.86	4568.3	
249.07	4752.7	
249.28	3159.3	
249.49	3579.2	
249.7	5515.9	
249.91	5535	
250.12	2916.3	
250.34	2955.2	
250.55	5123.3	
250.76	5057.1	
250.97	3586.7	
251.18	3650.8	
251.39	5575.9	
251.6	5169.1	
251.81	3678.8	
252.03	3601	
252.24	4767.7	
252.45	5410.7	
252.66	3025.5	
252.87	3827.7	
253.08	5062.6	
253.29	6451.8	
253.5	3053.5	
253.72	4087.1	
253.93	4885.1	
254.14	5857.9	
254.35	3308.2	
254.56	3369.6	
254.77	5223	
254.98	4618.9	
255.19	3285.6	
255.41	4176.5	
255.62	5100.8	
255.83	5532.2	
256.04	3680.9	
256.25	3635.8	
256.46	6043.6	
256.67	4799.8	
256.88	3550.5	
257.09	3945.8	
257.31	4696	
257.52	4758.8	
257.73	4469.4	
257.94	3282.9	
258.15	4898.7	
258.36	5013.4	
258.57	4046.8	
258.78	2723.1	
258.99	5416.9	
259.2	4823.6	
259.41	3303.4	
259.63	3374.4	
259.84	5677.7	
260.05	6070.2	
260.26	4298	
260.47	3207.1	
260.68	5480.4	
260.89	4931.5	
261.1	3964.9	
261.31	3112.2	
261.52	5539.1	
261.73	5879.7	
261.95	4252.3	
262.16	3719.8	
262.37	5579.3	
262.58	5717.9	
262.79	4223.6	
263	3392.1	
263.21	5010	
263.42	4890.5	
263.63	3491.8	
263.84	3403	
264.05	5453.1	
264.26	5776	
264.47	4089.1	
264.69	3652.9	
264.9	5655.8	
265.11	5122	
265.32	3209.8	
265.53	3269.2	
265.74	5139	
265.95	4496	
266.16	3539.6	
266.37	3849.5	
266.58	5136.3	
266.79	4816.1	
267	3273.3	
267.21	3036.5	
267.42	4655.7	
267.63	5033.9	
267.84	3418.7	
268.06	3026.9	
268.27	5412.8	
268.48	5522.7	
268.69	3372.3	
268.9	3917.1	
269.11	5608.7	
269.32	4568.3	
269.53	3463.1	
269.74	3211.9	
269.95	5299.5	
270.16	4504.8	
270.37	3488.4	
270.58	3953.3	
270.79	4859.8	
271	5436.7	
271.21	3655.6	
271.42	3513.6	
271.63	5218.9	
271.84	4690.5	
272.05	2829.6	
272.26	3135.4	
272.47	5023	
272.68	5210.7	
272.89	3349.1	
273.11	3831.1	
273.32	4855.1	
273.53	5766.4	
273.74	3718.4	
273.95	3617.4	
274.16	5470.1	
274.37	5035.3	
274.58	3777.1	
274.79	3073.3	
275	5123.3	
275.21	5506.3	
275.42	4488.5	
275.63	3874.8	
275.84	5215.5	
276.05	6445	
276.26	3600.3	
276.47	3486.3	
276.68	4886.5	
276.89	5881.1	
277.1	3913.7	
277.31	3052.2	
277.52	5227.8	
277.73	5466	
277.94	3027.6	
278.15	3412.6	
278.36	5175.2	
278.57	4673.5	
278.78	3329.3	
278.99	3693.2	
279.2	4752.7	
279.41	4653.7	
279.62	4325.3	
279.83	3089	
280.04	5988.3	
280.25	4674.1	
280.46	4309.6	
280.67	3496.6	
280.88	4688.5	
281.09	5561.6	
281.3	3636.5	
281.51	4468.7	
281.72	4776.5	
281.93	5423.7	
282.14	3275.4	
282.35	3542.3	
282.56	5469.4	
282.77	5343.8	
282.98	3418.7	
283.19	4122.6	
283.4	6563.7	
283.61	4941.7	
283.82	3110.2	
284.03	4207.9	
284.24	5125.4	
284.45	5502.2	
284.66	4278.9	
284.87	4063.9	
285.08	5501.5	
285.29	5619.6	
285.5	3010.5	
285.71	3446	
285.92	5520.6	
286.12	6070.9	
286.33	4211.3	
286.54	3397.6	
286.75	5380	
286.96	4925.4	
287.17	3131.3	
287.38	4127.3	
287.59	4753.3	
287.8	4698	
288.01	3433.8	
288.22	3863.2	
288.43	5453.7	
288.64	4567	
288.85	3982.6	
289.06	3787.4	
289.27	5341.8	
289.48	5786.9	
289.69	4248.2	
289.9	3891.8	
290.11	5603.2	
290.32	4795.7	
290.53	4056.3	
290.74	3763.5	
290.94	5488.6	
291.15	5416.2	
291.36	3263.1	
291.57	3813.3	
291.78	4874.8	
291.99	4509.6	
292.2	3197.6	
292.41	3734.1	
292.62	5471.5	
292.83	5337	
293.04	4501.4	
293.25	3203.7	
293.46	4823	
293.67	5471.5	
293.88	3237.2	
294.09	3167.5	
294.29	4620.9	
294.5	5141.1	
294.71	3485.6	
294.92	3212.6	
295.13	4814.8	
295.34	5982.1	
295.55	2936.8	
295.76	2937.5	
295.97	5410.7	
296.18	5998.5	
296.39	3073.3	
296.6	3280.8	
296.81	5119.2	
297.01	5378.6	
297.22	3407.1	
297.43	3268.6	
297.64	4755.4	
297.85	4684.4	
298.06	2740.9	
298.27	2940.9	
298.48	5003.9	
298.69	4764.9	
298.9	3492.5	
299.11	3248.1	
299.31	4622.3	
299.52	4633.2	
299.73	3756	
299.94	3676.8	
300.15	5046.2	
300.36	4747.2	
300.57	3758	
300.78	3693.2	
300.99	4891.9	
301.2	5087.8	
301.4	3243.3	
301.61	3485	
301.82	5309	
302.03	5400.5	
302.24	3914.4	
302.45	3104	
302.66	5225.1	
302.87	5600.5	
303.08	3274.7	
303.29	4405.9	
303.49	4852.3	
303.7	4993.6	
303.91	2955.2	
304.12	4173.8	
304.33	4632.5	
304.54	5193	
304.75	3313.6	
304.96	3192.1	
305.16	5292	
305.37	5926.8	
305.58	2877.4	
305.79	2990.7	
306	5304.2	
306.21	4506.2	
306.42	3370.3	
306.63	4876.2	
306.83	4934.2	
307.04	5510.4	
307.25	3548.4	
307.46	3593.5	
307.67	4398.4	
307.88	5364.3	
308.09	3221.5	
308.29	3312.9	
308.5	5124	
308.71	5451.7	
308.92	3464.5	
309.13	3196.2	
309.34	4969.7	
309.55	4981.3	
309.75	4067.3	
309.96	3673.4	
310.17	5361.6	
310.38	4760.2	
310.59	3885	
310.8	3087.7	
311.01	5925.5	
311.21	4918.5	
311.42	3182.5	
311.63	3244.7	
311.84	4848.9	
312.05	5168.4	
312.26	3635.8	
312.46	3910.3	
312.67	4852.3	
312.88	4597	
313.09	3157.3	
313.3	3138.2	
313.51	5681.7	
313.71	5982.8	
313.92	3192.8	
314.13	3353.9	
314.34	5194.3	
314.55	4956.8	
314.76	4002.4	
314.96	3539.6	
315.17	5138.4	
315.38	5266	
315.59	3155.9	
315.8	3044.6	
316.01	5700.9	
316.21	5817.6	
316.42	3107.5	
316.63	3445.4	
316.84	4922	
317.05	5587.5	
317.26	3725.3	
317.46	3349.8	
317.67	4931.5	
317.88	5335.6	
318.09	3931.4	
318.3	2994.8	
318.5	4738.3	
318.71	5269.4	
318.92	4980.7	
319.13	3682.2	
319.34	5448.3	
319.54	5597.1	
319.75	3036.5	
319.96	2866.5	
320.17	5319.3	
320.38	5448.3	
320.58	2912.9	
320.79	3497.2	
321	5502.2	
321.21	5631.2	
321.42	3515	
321.62	2911.5	
321.83	4695.3	
322.04	5063.3	
322.25	3361.4	
322.46	3166.2	
322.66	5140.4	
322.87	5270.1	
323.08	3878.2	
323.29	3139.5	
323.5	5902.9	
323.7	4638.6	
323.91	4191.5	
324.12	3790.8	
324.33	5088.5	
324.53	5344.5	
324.74	3685.7	
324.95	3800.3	
325.16	4558.8	
325.37	4916.5	
325.57	3181.2	
325.78	3259.7	
325.99	5100.1	
326.2	4540.3	
326.4	4429.1	
326.61	2973	
326.82	4982	
327.03	5125.4	
327.24	4435.2	
327.44	4150.6	
327.65	5198.4	
327.86	4325.3	
328.07	3704.1	
328.27	3064.4	
328.48	5570.5	
328.69	4654.4	
328.9	4412	
329.1	3409.2	
329.31	4969.1	
329.52	5710.4	
329.73	3210.5	
329.93	3541.6	
330.14	5025.7	
330.35	5228.5	
330.56	5048.2	
330.76	3863.2	
330.97	4833.2	
331.18	5182.7	
331.39	3482.2	
331.59	2859	
331.8	5556.1	
332.01	5599.8	
332.22	3316.3	
332.42	3689.1	
332.63	5165.7	
332.84	4735.6	
333.05	3532.7	
333.25	3274.7	
333.46	4754	
333.67	5059.2	
333.88	3340.9	
334.08	3667.9	
334.29	6529.6	
334.5	5586.9	
334.7	3094.5	
334.91	4455	
335.12	4620.9	
335.33	5397.8	
335.53	3523.2	
335.74	5070.8	
335.95	4856.4	
336.16	4668	
336.36	3549.1	
336.57	3979.2	
336.78	4668	
336.98	5523.4	
337.19	4209.9	
337.4	3416	
337.61	6008.1	
337.81	4616.1	
338.02	3271.3	
338.23	4026.3	
338.43	5597.8	
338.64	4710.3	
338.85	3226.9	
339.05	4177.9	
339.26	5739.1	
339.47	4549.2	
339.68	3231	
339.88	4599.1	
340.09	5273.5	
340.3	5460.6	
340.5	3766.9	
340.71	2887	
340.92	4585.4	
341.13	5598.5	
341.33	3077.4	
341.54	3733.4	
341.75	5253.7	
341.95	4867.3	
342.16	3592.8	
342.37	3855.6	
342.57	4629.8	
342.78	4996.4	
342.99	3912.3	
343.19	2876	
343.4	5414.1	
343.61	5256.5	
343.81	3420.8	
344.02	3084.2	
344.23	5391.6	
344.43	5687.9	
344.64	3951.2	
344.85	3847.5	
345.06	5226.4	
345.26	5526.8	
345.47	3667.9	
345.68	4248.2	
345.88	4510.3	
346.09	5427.1	
346.3	3718.4	
346.5	2839.2	
346.71	5028.4	
346.92	4842.1	
347.12	3009.8	
347.33	3659.7	
347.54	5492	
347.74	5846.3	
347.95	3697.9	
348.16	2792.1	
348.36	4860.5	
348.57	4771.8	
348.78	3622.9	
348.98	3913.7	
349.19	4944.5	
349.39	4576.5	
349.6	3026.9	
349.81	3321.8	
350.01	5302.2	
350.22	4835.3	
350.43	3564.8	
350.63	4222.2	
350.84	5138.4	
351.05	4863.2	
351.25	3278.1	
351.46	3012.6	
351.67	5534.3	
351.87	4838.7	
352.08	3486.3	
352.29	3898	
352.49	5488.6	
352.7	5522	
352.9	3171.6	
353.11	3939.6	
353.32	6019.7	
353.52	4919.9	
353.73	3173.7	
353.94	3999	
354.14	5433.9	
354.35	5195.7	
354.55	3246.7	
354.76	3614	
354.97	5396.4	
355.17	5151.3	
355.38	3160	
355.59	4224.3	
355.79	4842.8	
356	5171.1	
356.2	3646.7	
356.41	3181.9	
356.62	4728.8	
356.82	5133.6	
357.03	3924.6	
357.24	3565.5	
357.44	4973.2	
357.65	5040.1	
357.85	4635.9	
358.06	3691.8	
358.27	4681.7	
358.47	4940.4	
358.68	3196.9	
358.88	3950.5	
359.09	5457.2	
359.3	5760.9	
359.5	4486.4	
359.71	4093.9	
359.91	6178	
360.12	5642.2	
360.33	3979.9	
360.53	4416.1	
360.74	5030.5	
360.94	5070.8	
361.15	4251.6	
361.36	3534.8	
361.56	5692.7	
361.77	5296	
361.97	4586.1	
362.18	3743.7	
362.38	5758.9	
362.59	5006.6	
362.8	3543.7	
363	3383.2	
363.21	4806.6	
363.41	5412.1	
363.62	3951.2	
363.83	4842.8	
364.03	5509	
364.24	6316.6	
364.44	4928.1	
364.65	4861.2	
364.85	5311.7	
365.06	4999.1	
365.27	3709.6	
365.47	3739.6	
365.68	6240.2	
365.88	5251	
366.09	4113.7	
366.29	3835.8	
366.5	5585.5	
366.71	5917.3	
366.91	4939.7	
367.12	4235.9	
367.32	6465.4	
367.53	5784.8	
367.73	4296	
367.94	5066.7	
368.14	5770.5	
368.35	6474.3	
368.56	4148.5	
368.76	3657.7	
368.97	5905.7	
369.17	7223.9	
369.38	3796.3	
369.58	3984	
369.79	4962.9	
369.99	6200.6	
370.2	4896	
370.4	4026.3	
370.61	5575.9	
370.82	6625.2	
371.02	4050.9	
371.23	3449.5	
371.43	5007.3	
371.64	6156.9	
371.84	4095.9	
372.05	5122.7	
372.25	7312.6	
372.46	5971.2	
372.66	4199.7	
372.87	4123.9	
373.07	6074.3	
373.28	7344.7	
373.48	4990.9	
373.69	4788.8	
373.9	5662.6	
374.1	5643.5	
374.31	5001.8	
374.51	4631.8	
374.72	6407.4	
374.92	5466.7	
375.13	5275.6	
375.33	4564.9	
375.54	6147.3	
375.74	5683.8	
375.95	4691.9	
376.15	5717.9	
376.36	6248.4	
376.56	6047.7	
376.77	4773.1	
376.97	5125.4	
377.18	7146.7	
377.38	6328.9	
377.59	5470.1	
377.79	4478.2	
378	6192.4	
378.2	6550.8	
378.41	4569.7	
378.61	4434.5	
378.82	6705	
379.02	5942.5	
379.23	4710.3	
379.43	5679.7	
379.64	6800.6	
379.84	6389	
380.05	4521.2	
380.25	4472.8	
380.46	6539.8	
380.66	6044.9	
380.87	5617.6	
381.07	5937.1	
381.28	7019.8	
381.48	6437.4	
381.69	4512.4	
381.89	4633.2	
382.1	5619.6	
382.3	6567.2	
382.51	5500.8	
382.71	6206.7	
382.91	6343.2	
383.12	6881.2	
383.32	4834.6	
383.53	4946.5	
383.73	6233.3	
383.94	6152.1	
384.14	4937	
384.35	4151.9	
384.55	5956.9	
384.76	6305.7	
384.96	4807.9	
385.17	5008.6	
385.37	6424.5	
385.58	5729.5	
385.78	5027.8	
385.98	4040	
386.19	5885.9	
386.39	6195.1	
386.6	4570.4	
386.8	4711.7	
387.01	6315.9	
387.21	6358.3	
387.42	5091.3	
387.62	5677.7	
387.83	5862.7	
388.03	6311.8	
388.23	4980.7	
388.44	5563	
388.64	5719.3	
388.85	5827.8	
389.05	5287.2	
389.26	5828.5	
389.46	7506.5	
389.67	7058	
389.87	5346.6	
390.07	5409.4	
390.28	6327.5	
390.48	5954.8	
390.69	4637.3	
390.89	5004.6	
391.1	6085.2	
391.3	6855.9	
391.5	5968.5	
391.71	6494.8	
391.91	6696.2	
392.12	7552.9	
392.32	6019	
392.53	5325.4	
392.73	6214.2	
392.93	6294.8	
393.14	5146.5	
393.34	5989.6	
393.55	6667.5	
393.75	6249.7	
393.95	5006.6	
394.16	4851.6	
394.36	6004	
394.57	6561	
394.77	4524	
394.98	4838.7	
395.18	5999.2	
395.38	6286.6	
395.59	5818.3	
395.79	4969.1	
396	6404.7	
396.2	6769.9	
396.4	5773.2	
396.61	5762.3	
396.81	6974	
397.02	6414.2	
397.22	6054.5	
397.42	6116.6	
397.63	7069.6	
397.83	6527.6	
398.04	5012.7	
398.24	5560.9	
398.44	6801.3	
398.65	6098.9	
398.85	5036.6	
399.05	5081	
399.26	6451.1	
399.46	7890.8	
399.67	5451.7	
399.87	5242.1	
400.07	6807.4	
400.28	7056.6	
400.48	5385.5	
400.69	6328.2	
400.89	7468.3	
401.09	7727	
401.3	5414.1	
401.5	6389	
401.7	8125	
401.91	8214.4	
402.11	5820.3	
402.32	5952.8	
402.52	7472.4	
402.72	7320.8	
402.93	6036.7	
403.13	4899.4	
403.33	7962.5	
403.54	6592.4	
403.74	5523.4	
403.94	6083.1	
404.15	6579.4	
404.35	7576.1	
404.56	5184.8	
404.76	6746	
404.96	7047.7	
405.17	6913.9	
405.37	6429.9	
405.57	5941.2	
405.78	7425.9	
405.98	6861.4	
406.18	5623	
406.39	6370.5	
406.59	7344.7	
406.79	6860.7	
407	5296.7	
407.2	5272.8	
407.4	7221.1	
407.61	7355.6	
407.81	5266	
408.01	7416.4	
408.22	6514.6	
408.42	8348.9	
408.62	6649.8	
408.83	6367.8	
409.03	7498.3	
409.23	7435.5	
409.44	6619	
409.64	6957.6	
409.84	8628.1	
410.05	8565.3	
410.25	6900.3	
410.45	6741.2	
410.66	8301.8	
410.86	10299	
411.06	7384.3	
411.27	7088	
411.47	10260	
411.67	8529.1	
411.88	7334.5	
412.08	7802.8	
412.28	9140.1	
412.49	9658.2	
412.69	7432.1	
412.89	7416.4	
413.09	9471.9	
413.3	9568.8	
413.5	7623.9	
413.7	7384.3	
413.91	8791.9	
414.11	9658.9	
414.31	7453.9	
414.52	8005.5	
414.72	9418.6	
414.92	9390.6	
415.12	7573.4	
415.33	8023.9	
415.53	9738.1	
415.73	9829.6	
415.94	8235.6	
416.14	7884	
416.34	8908	
416.55	8705.9	
416.75	8849.3	
416.95	8553	
417.15	9757.2	
417.36	10294	
417.56	9189.2	
417.76	8430.1	
417.97	10161	
418.17	9952.4	
418.37	8017.8	
418.57	8318.8	
418.78	9824.8	
418.98	9535.3	
419.18	8965.3	
419.38	8843.8	
419.59	9580.4	
419.79	9033.6	
419.99	7953.6	
420.2	8241	
420.4	9714.9	
420.6	9910.8	
420.8	7961.8	
421.01	7832.1	
421.21	9861.7	
421.41	9977.7	
421.61	8228.1	
421.82	8060.8	
422.02	9395.4	
422.22	10140	
422.42	8771.5	
422.63	8150.9	
422.83	9497.1	
423.03	10522	
423.23	8302.5	
423.44	7516.7	
423.64	9435.7	
423.84	9125.1	
424.04	7787.7	
424.25	7509.9	
424.45	10027	
424.65	10079	
424.85	7339.9	
425.06	7723.6	
425.26	10127	
425.46	9128.5	
425.66	8086.7	
425.87	7836.2	
426.07	9782.5	
426.27	9648	
426.47	8016.4	
426.67	7368.6	
426.88	10013	
427.08	9531.2	
427.28	8269.7	
427.48	7283.9	
427.69	8598.7	
427.89	9163.3	
428.09	8110.6	
428.29	7312.6	
428.5	9815.9	
428.7	9359.9	
428.9	7279.8	
429.1	7665.5	
429.3	9263	
429.51	9658.2	
429.71	7446.4	
429.91	8352.3	
430.11	9673.9	
430.31	9901.9	
430.52	7908.6	
430.72	8312.7	
430.92	10288	
431.12	9750.4	
431.32	7861.5	
431.53	8007.6	
431.73	8990.6	
431.93	10244	
432.13	7613.7	
432.33	7473.7	
432.54	9260.2	
432.74	9504.6	
432.94	7572.7	
433.14	8484.1	
433.34	9807.7	
433.55	9624.1	
433.75	8502.5	
433.95	10141	
434.15	9714.9	
434.35	9540.8	
434.56	7801.4	
434.76	7647.8	
434.96	9680.1	
435.16	10110	
435.36	7850.5	
435.56	8892.3	
435.77	9574.9	
435.97	9705.3	
436.17	9566.7	
436.37	8914.8	
436.57	9626.1	
436.78	9721	
436.98	9554.5	
437.18	9409.7	
437.38	10423	
437.58	9779.1	
437.78	9519.6	
437.99	8240.3	
438.19	10032	
438.39	11091	
438.59	8099	
438.79	7719.5	
438.99	10471	
439.2	9439.1	
439.4	7484.6	
439.6	7612.3	
439.8	9753.1	
440	10751	
440.2	8724.3	
440.4	8939.4	
440.61	10590	
440.81	10995	
441.01	8435.6	
441.21	9388.6	
441.41	11222	
441.61	10777	
441.81	9642.5	
442.02	10434	
442.22	11576	
442.42	10882	
442.62	8553.7	
442.82	8413.7	
443.02	11098	
443.22	10319	
443.43	9041.1	
443.63	8619.2	
443.83	10205	
444.03	10234	
444.23	9779.1	
444.43	9362.6	
444.63	10828	
444.83	11738	
445.04	9056.1	
445.24	10026	
445.44	10926	
445.64	11101	
445.84	9241.1	
446.04	9377.6	
446.24	10276	
446.44	11117	
446.65	8539.3	
446.85	8977.6	
447.05	10015	
447.25	10900	
447.45	8897.7	
447.65	8404.2	
447.85	10404	
448.05	9886.9	
448.25	9386.5	
448.46	9080	
448.66	10425	
448.86	10086	
449.06	8336.6	
449.26	9334	
449.46	10790	
449.66	9888.3	
449.86	9150.3	
450.06	8991.3	
450.26	10141	
450.47	10653	
450.67	9110	
450.87	9587.9	
451.07	10834	
451.27	10692	
451.47	8600.1	
451.67	9223.4	
451.87	10418	
452.07	11176	
452.27	9011.7	
452.47	8886.1	
452.67	10502	
452.88	11028	
453.08	8185.7	
453.28	10064	
453.48	11740	
453.68	10465	
453.88	8821.3	
454.08	8939.4	
454.28	10966	
454.48	10576	
454.68	9433.6	
454.88	9961.3	
455.08	11080	
455.28	11077	
455.48	8741.4	
455.68	9528.5	
455.89	11703	
456.09	11341	
456.29	9154.4	
456.49	9367.4	
456.69	11678	
456.89	10852	
457.09	9705.3	
457.29	10238	
457.49	11363	
457.69	11686	
457.89	9966.8	
458.09	9355.1	
458.29	11339	
458.49	12080	
458.69	10380	
458.89	9951.1	
459.09	12439	
459.29	12454	
459.49	9878.7	
459.69	10819	
459.9	11824	
460.1	11714	
460.3	9755.8	
460.5	9641.8	
460.7	11839	
460.9	11661	
461.1	9312.8	
461.3	10593	
461.5	12673	
461.7	12162	
461.9	10271	
462.1	10426	
462.3	12025	
462.5	12503	
462.7	10280	
462.9	10355	
463.1	13402	
463.3	13293	
463.5	10548	
463.7	11721	
463.9	12555	
464.1	12807	
464.3	11173	
464.5	11165	
464.7	13147	
464.9	13191	
465.1	12477	
465.3	11652	
465.5	13495	
465.7	13524	
465.9	11903	
466.1	11487	
466.3	13508	
466.5	13154	
466.7	12677	
466.9	11529	
467.1	13429	
467.3	14141	
467.5	12704	
467.7	11808	
467.9	14351	
468.1	15171	
468.3	12338	
468.5	12853	
468.7	13689	
468.9	13450	
469.1	12200	
469.3	12805	
469.5	15165	
469.7	13317	
469.9	12476	
470.1	12052	
470.3	13659	
470.5	13665	
470.7	13018	
470.9	11923	
471.1	13507	
471.3	13616	
471.5	11799	
471.69	13313	
471.89	13190	
472.09	12725	
472.29	12446	
472.49	12507	
472.69	13113	
472.89	13601	
473.09	11773	
473.29	11592	
473.49	13033	
473.69	12949	
473.89	12329	
474.09	11661	
474.29	14123	
474.49	13817	
474.69	12362	
474.89	11805	
475.09	13130	
475.29	13102	
475.49	11144	
475.69	11527	
475.88	14239	
476.08	13310	
476.28	11245	
476.48	11351	
476.68	13506	
476.88	13261	
477.08	11254	
477.28	11604	
477.48	12806	
477.68	13334	
477.88	11130	
478.08	11320	
478.28	13706	
478.48	12936	
478.67	11565	
478.87	10724	
479.07	13780	
479.27	13108	
479.47	11559	
479.67	11705	
479.87	13461	
480.07	13882	
480.27	11082	
480.47	12389	
480.67	13139	
480.87	13711	
481.06	11306	
481.26	12067	
481.46	13113	
481.66	13056	
481.86	11669	
482.06	12495	
482.26	12830	
482.46	13842	
482.66	11442	
482.86	11226	
483.05	13257	
483.25	12640	
483.45	13624	
483.65	11611	
483.85	12897	
484.05	13110	
484.25	12012	
484.45	12600	
484.65	13806	
484.84	14080	
485.04	11694	
485.24	11639	
485.44	14362	
485.64	12903	
485.84	11241	
486.04	12469	
486.24	13201	
486.44	13549	
486.63	11249	
486.83	12005	
487.03	13080	
487.23	13551	
487.43	11357	
487.63	13468	
487.83	13596	
488.02	14478	
488.22	12525	
488.42	13047	
488.62	14259	
488.82	13554	
489.02	12084	
489.22	12274	
489.41	14151	
489.61	14143	
489.81	11879	
490.01	11996	
490.21	14306	
490.41	14924	
490.61	12026	
490.8	12101	
491	13987	
491.2	13304	
491.4	12466	
491.6	11766	
491.8	13670	
491.99	13577	
492.19	11288	
492.39	11610	
492.59	14059	
492.79	14090	
492.99	12501	
493.18	11880	
493.38	14321	
493.58	15212	
493.78	12810	
493.98	12417	
494.18	14446	
494.37	14242	
494.57	13392	
494.77	13131	
494.97	14846	
495.17	15341	
495.37	13121	
495.56	13416	
495.76	15627	
495.96	15332	
496.16	14270	
496.36	13467	
496.55	15613	
496.75	15167	
496.95	13783	
497.15	13723	
497.35	15408	
497.54	15532	
497.74	13376	
497.94	14936	
498.14	16135	
498.34	15918	
498.53	13306	
498.73	14010	
498.93	15179	
499.13	15624	
499.33	14065	
499.52	14263	
499.72	15909	
499.92	15966	
500.12	13688	
500.32	14048	
500.51	16090	
500.71	16051	
500.91	14788	
501.11	14391	
501.31	16040	
501.5	16214	
501.7	14984	
501.9	14122	
502.1	15765	
502.29	16123	
502.49	14562	
502.69	14849	
502.89	15920	
503.09	15959	
503.28	13431	
503.48	13541	
503.68	15016	
503.88	15094	
504.07	14334	
504.27	13796	
504.47	15318	
504.67	15383	
504.86	14190	
505.06	13928	
505.26	15059	
505.46	16663	
505.65	13689	
505.85	13888	
506.05	14729	
506.25	15153	
506.44	12944	
506.64	13598	
506.84	14586	
507.04	15255	
507.23	12871	
507.43	13511	
507.63	16115	
507.83	14546	
508.02	13414	
508.22	13164	
508.42	16235	
508.62	14465	
508.81	13140	
509.01	13682	
509.21	14119	
509.4	14419	
509.6	13302	
509.8	12768	
510	14426	
510.19	15771	
510.39	12712	
510.59	12869	
510.79	14440	
510.98	15608	
511.18	13184	
511.38	13173	
511.57	15171	
511.77	15072	
511.97	13546	
512.17	12888	
512.36	15033	
512.56	14964	
512.76	12679	
512.95	12446	
513.15	15149	
513.35	13812	
513.55	13537	
513.74	12762	
513.94	14888	
514.14	14542	
514.33	13736	
514.53	13482	
514.73	14558	
514.92	14618	
515.12	12925	
515.32	12816	
515.51	14791	
515.71	15182	
515.91	14425	
516.11	13036	
516.3	16419	
516.5	14622	
516.7	13381	
516.89	14003	
517.09	14509	
517.29	14612	
517.48	13708	
517.68	13083	
517.88	14330	
518.07	14971	
518.27	13676	
518.47	12811	
518.66	15302	
518.86	14244	
519.06	12557	
519.25	12994	
519.45	14398	
519.65	15687	
519.84	13615	
520.04	14254	
520.24	16202	
520.43	15098	
520.63	13400	
520.83	13205	
521.02	14325	
521.22	14775	
521.42	13185	
521.61	13705	
521.81	14284	
522.01	14444	
522.2	13187	
522.4	12920	
522.6	14922	
522.79	13855	
522.99	13139	
523.18	12696	
523.38	15040	
523.58	15084	
523.77	14588	
523.97	12936	
524.17	16848	
524.36	16107	
524.56	14200	
524.76	14016	
524.95	15363	
525.15	15127	
525.34	14007	
525.54	14120	
525.74	15947	
525.93	15196	
526.13	15257	
526.33	14155	
526.52	16395	
526.72	16115	
526.91	15288	
527.11	14671	
527.31	16452	
527.5	16855	
527.7	14760	
527.89	13846	
528.09	15696	
528.29	16281	
528.48	15184	
528.68	14659	
528.87	16550	
529.07	16449	
529.27	14765	
529.46	14460	
529.66	16359	
529.85	16705	
530.05	14347	
530.25	14982	
530.44	17593	
530.64	16058	
530.83	14563	
531.03	14696	
531.23	16434	
531.42	16257	
531.62	15355	
531.81	14584	
532.01	16916	
532.21	17332	
532.4	14926	
532.6	15398	
532.79	17888	
532.99	17374	
533.18	15504	
533.38	16317	
533.58	17141	
533.77	17654	
533.97	15638	
534.16	16336	
534.36	17771	
534.55	17098	
534.75	16393	
534.95	15713	
535.14	18015	
535.34	17237	
535.53	15266	
535.73	17050	
535.92	18460	
536.12	17150	
536.31	15382	
536.51	16356	
536.71	17339	
536.9	17006	
537.1	15283	
537.29	15663	
537.49	17721	
537.68	16916	
537.88	15883	
538.07	15259	
538.27	17275	
538.46	18075	
538.66	15255	
538.86	15666	
539.05	17283	
539.25	17685	
539.44	16128	
539.64	15500	
539.83	17189	
540.03	17991	
540.22	15381	
540.42	15210	
540.61	17177	
540.81	17314	
541	15499	
541.2	16267	
541.39	16667	
541.59	16965	
541.78	16064	
541.98	15107	
542.18	16414	
542.37	16314	
542.57	15331	
542.76	16083	
542.96	16256	
543.15	16838	
543.35	15138	
543.54	14694	
543.74	16767	
543.93	16561	
544.13	14897	
544.32	15798	
544.52	16641	
544.71	15989	
544.91	14075	
545.1	15057	
545.3	16054	
545.49	16634	
545.69	13982	
545.88	14530	
546.08	17370	
546.27	16926	
546.47	14836	
546.66	14274	
546.86	16604	
547.05	16994	
547.24	14459	
547.44	14450	
547.63	15780	
547.83	16780	
548.02	14685	
548.22	14907	
548.41	15481	
548.61	16609	
548.8	14232	
549	14176	
549.19	15929	
549.39	16329	
549.58	13767	
549.78	14388	
549.97	16304	
550.17	15827	
550.36	15001	
550.55	15862	
550.75	15717	
550.94	16445	
551.14	13747	
551.33	14044	
551.53	15169	
551.72	15786	
551.92	14051	
552.11	14062	
552.31	15822	
552.5	15928	
552.69	15380	
552.89	13676	
553.08	15935	
553.28	15601	
553.47	13915	
553.67	14922	
553.86	16290	
554.06	14888	
554.25	13166	
554.44	13679	
554.64	16731	
554.83	16602	
555.03	13582	
555.22	13970	
555.42	15924	
555.61	15586	
555.8	13758	
556	13812	
556.19	14835	
556.39	15752	
556.58	13702	
556.78	13638	
556.97	15404	
557.16	15160	
557.36	14745	
557.55	13495	
557.75	14541	
557.94	16206	
558.13	13469	
558.33	13290	
558.52	15930	
558.72	15008	
558.91	13265	
559.1	13416	
559.3	14707	
559.49	14292	
559.69	12908	
559.88	13752	
560.07	15287	
560.27	15646	
560.46	13752	
560.66	13991	
560.85	15042	
561.04	14300	
561.24	13217	
561.43	13074	
561.63	14493	
561.82	14665	
562.01	14265	
562.21	13503	
562.4	15033	
562.59	15893	
562.79	13393	
562.98	13115	
563.18	15009	
563.37	16386	
563.56	13806	
563.76	13349	
563.95	14767	
564.14	14746	
564.34	13525	
564.53	13275	
564.73	15203	
564.92	15358	
565.11	13710	
565.31	13250	
565.5	15717	
565.69	14767	
565.89	13364	
566.08	13690	
566.27	15627	
566.47	15970	
566.66	14156	
566.85	13088	
567.05	15522	
567.24	14799	
567.44	13373	
567.63	14470	
567.82	15616	
568.02	15232	
568.21	13377	
568.4	13544	
568.6	15218	
568.79	15134	
568.98	13154	
569.18	13483	
569.37	15227	
569.56	16901	
569.76	13823	
569.95	14707	
570.14	15596	
570.34	15550	
570.53	13259	
570.72	13233	
570.91	15907	
571.11	15203	
571.3	13658	
571.49	14476	
571.69	15259	
571.88	14772	
572.07	14108	
572.27	14177	
572.46	14677	
572.65	15779	
572.85	13676	
573.04	13883	
573.23	16023	
573.43	15230	
573.62	13608	
573.81	14021	
574	15525	
574.2	15489	
574.39	13870	
574.58	14074	
574.78	16365	
574.97	15717	
575.16	14498	
575.36	14739	
575.55	16214	
575.74	16248	
575.93	13700	
576.13	14777	
576.32	15664	
576.51	16224	
576.71	14085	
576.9	15220	
577.09	16432	
577.28	15851	
577.48	14467	
577.67	13717	
577.86	15689	
578.05	15986	
578.25	14263	
578.44	14373	
578.63	15767	
578.83	16940	
579.02	13689	
579.21	15284	
579.4	16081	
579.6	15851	
579.79	14489	
579.98	16185	
580.17	16317	
580.37	16417	
580.56	13845	
580.75	14650	
580.94	16750	
581.14	16647	
581.33	15096	
581.52	14100	
581.71	16287	
581.91	16889	
582.1	14091	
582.29	14431	
582.48	16024	
582.68	15997	
582.87	14798	
583.06	14570	
583.25	16234	
583.45	15741	
583.64	15365	
583.83	15791	
584.02	15943	
584.21	16247	
584.41	14939	
584.6	14511	
584.79	16259	
584.98	16789	
585.18	14084	
585.37	14038	
585.56	15730	
585.75	16326	
585.94	14087	
586.14	14818	
586.33	16616	
586.52	15902	
586.71	14400	
586.91	14233	
587.1	15193	
587.29	16072	
587.48	13827	
587.67	13975	
587.87	15862	
588.06	15749	
588.25	14916	
588.44	14229	
588.63	15440	
588.83	15770	
589.02	13777	
589.21	13588	
589.4	15059	
589.59	14887	
589.78	12476	
589.98	12734	
590.17	14075	
590.36	14347	
590.55	11740	
590.74	12202	
590.94	15172	
591.13	13825	
591.32	11916	
591.51	11666	
591.7	14279	
591.89	13950	
592.09	11857	
592.28	12229	
592.47	13377	
592.66	15161	
592.85	12050	
593.05	12308	
593.24	13884	
593.43	14684	
593.62	12248	
593.81	12738	
594	13956	
594.19	14194	
594.39	12203	
594.58	12137	
594.77	14275	
594.96	14652	
595.15	12004	
595.34	12620	
595.54	14098	
595.73	13400	
595.92	11404	
596.11	12353	
596.3	14528	
596.49	13381	
596.68	12080	
596.88	12422	
597.07	14194	
597.26	13301	
597.45	11639	
597.64	12768	
597.83	13474	
598.02	13987	
598.22	11805	
598.41	12444	
598.6	13896	
598.79	13480	
598.98	11951	
599.17	12517	
599.36	13794	
599.55	14790	
599.74	13480	
599.94	13343	
600.13	14246	
600.32	13314	
600.51	11697	
600.7	11801	
600.89	14697	
601.08	14793	
601.27	11574	
601.47	12362	
601.66	14264	
601.85	14715	
602.04	12187	
602.23	12332	
602.42	13381	
602.61	13933	
602.8	11977	
602.99	11778	
603.18	13608	
603.37	13734	
603.57	12297	
603.76	12769	
603.95	14491	
604.14	14058	
604.33	11899	
604.52	12206	
604.71	13974	
604.9	13463	
605.09	12859	
605.28	12537	
605.47	14349	
605.66	13934	
605.86	12304	
606.05	11900	
606.24	14272	
606.43	13030	
606.62	12146	
606.81	12795	
607	14252	
607.19	13544	
607.38	11632	
607.57	11864	
607.76	13387	
607.95	12735	
608.14	12135	
608.33	12650	
608.52	13315	
608.72	14140	
608.91	11339	
609.1	11380	
609.29	13368	
609.48	12816	
609.67	12196	
609.86	11394	
610.05	12981	
610.24	13136	
610.43	11342	
610.62	10843	
610.81	14124	
611	14033	
611.19	11278	
611.38	11985	
611.57	13398	
611.76	14516	
611.95	11210	
612.14	10914	
612.33	13276	
612.52	12891	
612.71	11596	
612.9	10802	
613.09	12487	
613.28	14591	
613.47	11356	
613.66	12106	
613.85	13398	
614.04	12905	
614.24	11394	
614.43	10696	
614.62	13334	
614.81	13306	
615	11794	
615.19	11761	
615.38	12776	
615.57	13193	
615.76	11697	
615.95	12628	
616.14	13555	
616.33	13240	
616.52	12056	
616.71	12134	
616.9	13413	
617.09	13246	
617.28	11533	
617.47	12493	
617.66	12611	
617.85	12671	
618.04	12392	
618.22	11835	
618.41	13120	
618.6	13997	
618.79	11969	
618.98	11684	
619.17	14369	
619.36	12724	
619.55	11872	
619.74	11757	
619.93	13650	
620.12	13196	
620.31	12448	
620.5	12575	
620.69	14379	
620.88	14678	
621.07	13166	
621.26	12437	
621.45	13960	
621.64	13947	
621.83	12618	
622.02	11810	
622.21	13984	
622.4	13825	
622.59	12982	
622.78	12891	
622.97	13557	
623.16	14444	
623.35	12533	
623.54	11743	
623.72	13806	
623.91	13865	
624.1	12704	
624.29	11641	
624.48	14808	
624.67	14183	
624.86	12833	
625.05	11894	
625.24	14876	
625.43	13560	
625.62	14173	
625.81	12134	
626	14280	
626.19	13786	
626.38	12779	
626.56	12215	
626.75	13698	
626.94	14356	
627.13	12743	
627.32	11572	
627.51	14246	
627.7	15174	
627.89	11736	
628.08	12753	
628.27	13368	
628.46	13553	
628.65	11951	
628.83	11632	
629.02	13975	
629.21	13295	
629.4	12291	
629.59	12435	
629.78	13467	
629.97	14156	
630.16	12459	
630.35	12091	
630.54	14703	
630.72	14295	
630.91	12134	
631.1	12538	
631.29	13806	
631.48	13945	
631.67	12577	
631.86	11957	
632.05	13456	
632.24	13562	
632.42	11703	
632.61	12315	
632.8	13553	
632.99	13389	
633.18	12351	
633.37	12598	
633.56	13749	
633.75	13701	
633.93	12232	
634.12	12045	
634.31	14570	
634.5	14252	
634.69	12043	
634.88	12383	
635.07	13601	
635.25	14171	
635.44	12794	
635.63	13012	
635.82	13431	
636.01	13013	
636.2	12543	
636.39	12378	
636.57	14298	
636.76	14031	
636.95	11815	
637.14	12902	
637.33	13805	
637.52	14418	
637.7	11626	
637.89	12435	
638.08	13530	
638.27	14572	
638.46	12501	
638.65	12873	
638.83	14631	
639.02	13183	
639.21	12210	
639.4	12638	
639.59	13532	
639.78	13205	
639.96	11559	
640.15	11496	
640.34	13330	
640.53	13508	
640.72	11297	
640.91	11528	
641.09	12771	
641.28	13939	
641.47	11452	
641.66	12250	
641.85	13370	
642.03	13392	
642.22	11863	
642.41	11515	
642.6	12888	
642.79	12274	
642.97	11172	
643.16	11888	
643.35	12709	
643.54	12443	
643.73	11196	
643.91	11611	
644.1	12269	
644.29	12968	
644.48	11034	
644.67	11055	
644.85	12247	
645.04	12595	
645.23	10525	
645.42	10763	
645.6	12094	
645.79	13060	
645.98	10598	
646.17	9607	
646.36	11644	
646.54	11927	
646.73	11055	
646.92	10023	
647.11	11508	
647.29	12398	
647.48	10097	
647.67	9783.1	
647.86	12656	
648.05	12699	
648.23	10193	
648.42	11317	
648.61	12026	
648.8	11883	
648.98	9824.1	
649.17	10238	
649.36	11475	
649.55	11131	
649.73	9940.8	
649.92	10666	
650.11	11437	
650.3	11710	
650.48	10023	
650.67	9895.8	
650.86	11911	
651.05	11046	
651.23	9973.6	
651.42	9887.6	
651.61	11273	
651.79	11318	
651.98	10077	
652.17	9697.8	
652.36	11667	
652.54	10813	
652.73	9730.6	
652.92	9648.7	
653.11	11697	
653.29	11790	
653.48	9129.2	
653.67	9970.9	
653.85	11315	
654.04	12273	
654.23	9997.5	
654.42	9553.1	
654.6	10735	
654.79	11271	
654.98	8874.5	
655.16	9313.5	
655.35	10193	
655.54	9999.5	
655.73	8834.3	
655.91	8631.5	
656.1	11032	
656.29	10054	
656.47	8404.9	
656.66	9918.3	
656.85	10408	
657.03	10627	
657.22	9093	
657.41	9218.6	
657.59	10763	
657.78	10555	
657.97	8990.6	
658.16	9701.9	
658.34	11260	
658.53	11697	
658.72	10269	
658.9	10817	
659.09	10905	
659.28	10983	
659.46	9466.4	
659.65	9341.5	
659.84	10667	
660.02	11134	
660.21	9395.4	
660.4	9192	
660.58	11553	
660.77	11005	
660.96	9850	
661.14	8832.2	
661.33	11989	
661.52	11784	
661.7	8918.2	
661.89	11900	
662.08	10696	
662.26	10180	
662.45	9137.4	
662.64	9114.1	
662.82	11069	
663.01	10470	
663.2	9153.1	
663.38	9769.5	
663.57	10984	
663.75	10955	
663.94	9347.6	
664.13	10381	
664.31	10486	
664.5	11114	
664.69	9727.2	
664.87	10131	
665.06	10358	
665.25	10873	
665.43	10197	
665.62	10337	
665.8	11148	
665.99	10585	
666.18	9314.2	
666.36	9404.3	
666.55	11062	
666.74	11018	
666.92	9086.2	
667.11	10344	
667.29	10602	
667.48	11028	
667.67	10038	
667.85	9208.4	
668.04	10570	
668.22	10490	
668.41	9300.5	
668.6	9511.4	
668.78	10272	
668.97	10572	
669.15	9528.5	
669.34	8819.9	
669.53	10356	
669.71	10707	
669.9	8855.4	
670.08	9391.3	
670.27	10389	
670.46	10767	
670.64	9568.1	
670.83	9790.7	
671.01	10159	
671.2	10604	
671.38	8951	
671.57	8882	
671.76	11264	
671.94	11819	
672.13	8737.3	
672.31	9643.9	
672.5	10802	
672.69	10345	
672.87	9022	
673.06	9198.1	
673.24	10765	
673.43	10543	
673.61	9538.8	
673.8	9077.3	
673.98	10811	
674.17	11060	
674.36	9644.6	
674.54	9528.5	
674.73	10608	
674.91	10909	
675.1	9271.2	
675.28	8942.8	
675.47	10516	
675.65	11002	
675.84	9097.1	
676.03	9425.4	
676.21	10255	
676.4	9904	
676.58	9788.6	
676.77	9591.3	
676.95	11598	
677.14	10229	
677.32	8815.8	
677.51	8634.2	
677.69	10933	
677.88	10010	
678.06	8760.5	
678.25	8855.4	
678.44	10473	
678.62	10294	
678.81	8556.4	
678.99	9396.1	
679.18	11134	
679.36	10840	
679.55	9038.4	
679.73	9569.5	
679.92	10738	
680.1	10166	
680.29	10201	
680.47	9000.1	
680.66	10148	
680.84	10899	
681.03	8449.9	
681.21	9331.2	
681.4	10185	
681.58	10101	
681.77	8865.7	
681.95	8760.5	
682.14	10852	
682.32	11092	
682.51	9641.2	
682.69	8474.5	
682.88	10033	
683.06	10464	
683.25	9276.6	
683.43	9607.7	
683.62	10296	
683.8	10673	
683.99	9685.5	
684.17	9045.9	
684.36	11268	
684.54	10069	
684.73	8285.4	
684.91	8354.3	
685.1	10090	
685.28	9508.7	
685.46	8440.4	
685.65	8371.4	
685.83	9947	
686.02	9379.7	
686.2	7891.5	
686.39	8044.4	
686.57	9361.3	
686.76	10646	
686.94	8103.8	
687.13	8378.9	
687.31	10044	
687.5	9621.4	
687.68	7862.2	
687.86	8896.4	
688.05	11135	
688.23	9157.8	
688.42	8854.1	
688.6	8360.5	
688.79	9624.1	
688.97	9727.9	
689.16	8707.3	
689.34	7761.1	
689.52	10286	
689.71	10565	
689.89	8910	
690.08	8376.2	
690.26	9974.3	
690.45	9807	
690.63	8994	
690.81	8457.4	
691	9762	
691.18	9574.9	
691.37	8537.3	
691.55	10387	
691.74	9444.5	
691.92	11168	
692.1	8413.7	
692.29	7890.8	
692.47	9605.7	
692.66	9029.5	
692.84	8077.9	
693.02	8453.3	
693.21	9194	
693.39	9609.1	
693.58	8697	
693.76	8146.1	
693.94	10574	
694.13	10570	
694.31	8327	
694.5	9217.2	
694.68	9758.6	
694.86	10006	
695.05	8741.4	
695.23	8869.8	
695.42	10473	
695.6	12275	
695.78	9393.3	
695.97	8589.9	
696.15	10505	
696.34	9867.8	
696.52	8256.7	
696.7	9015.8	
696.89	10056	
697.07	9495.1	
697.25	8825.4	
697.44	10003	
697.62	9978.4	
697.81	10245	
697.99	8507.3	
698.17	8874.5	
698.36	9377	
698.54	9955.2	
698.72	8813.8	
698.91	7826.7	
699.09	9530.6	
699.28	9408.4	
699.46	8520.2	
699.64	8338	
699.83	9355.8	
700.01	10387	
700.19	9002.2	
700.38	7748.8	
700.56	10326	
700.74	9560.6	
700.93	8018.5	
701.11	8789.9	
701.29	10079	
701.48	10879	
701.66	8372.8	
701.84	8359.8	
702.03	9710.1	
702.21	10322	
702.39	7944.1	
702.58	8595.3	
702.76	10063	
702.94	10176	
703.13	8009.6	
703.31	10043	
703.49	9535.3	
703.68	10295	
703.86	8104.5	
704.04	9073.2	
704.23	9882.8	
704.41	10311	
704.59	8261.5	
704.78	9301.9	
704.96	10874	
705.14	10253	
705.33	8185	
705.51	8822.6	
705.69	9822.1	
705.87	10538	
706.06	9037	
706.24	8051.9	
706.42	10090	
706.61	10355	
706.79	9093.7	
706.97	8036.2	
707.16	9501.2	
707.34	10060	
707.52	8898.4	
707.7	8293.6	
707.89	9699.9	
708.07	9364.7	
708.25	8893.6	
708.44	9075.9	
708.62	9519	
708.8	10433	
708.98	9144.2	
709.17	8314.1	
709.35	9892.4	
709.53	9891.7	
709.72	7986.4	
709.9	8396	
710.08	10142	
710.26	10151	
710.45	9415.2	
710.63	8346.2	
710.81	9833.7	
710.99	9688.3	
711.18	8718.2	
711.36	8228.1	
711.54	9489.6	
711.72	10183	
711.91	8319.5	
712.09	7716.7	
712.27	9718.3	
712.45	10369	
712.64	8355.7	
712.82	7421.2	
713	8945.5	
713.18	9084.1	
713.37	7489.4	
713.55	8426.7	
713.73	9734	
713.91	8406.9	
714.1	7421.2	
714.28	6860.7	
714.46	8937.3	
714.64	8089.5	
714.83	6196.5	
715.01	6707.1	
715.19	7956.4	
715.37	7337.9	
715.55	6268.8	
715.74	6584.2	
715.92	8508.6	
716.1	6888.7	
716.28	7572.7	
716.47	6520	
716.65	7421.8	
716.83	7539.3	
717.01	6407.4	
717.19	6460.7	
717.38	9192.6	
717.56	7074.4	
717.74	6630.6	
717.92	5971.9	
718.1	8201.4	
718.29	7657.4	
718.47	5786.2	
718.65	6440.2	
718.83	8428.1	
719.01	8432.9	
719.2	6017.6	
719.38	6956.9	
719.56	8339.3	
719.74	9671.2	
719.92	6650.4	
720.11	7408.9	
720.29	8312.7	
720.47	7527.7	
720.65	6004.6	
720.83	6684.6	
721.02	7528.3	
721.2	7316	
721.38	6604	
721.56	5924.8	
721.74	6953.5	
721.92	7017.7	
722.11	6952.9	
722.29	6735.1	
722.47	8002.8	
722.65	7331.7	
722.83	5944.6	
723.01	6632.7	
723.2	7409.6	
723.38	7674.4	
723.56	5348.6	
723.74	6384.2	
723.92	6944	
724.1	8008.2	
724.29	5768.4	
724.47	6722.1	
724.65	7117.4	
724.83	6925.5	
725.01	5685.2	
725.19	6444.3	
725.37	6902.3	
725.56	6929.6	
725.74	5573.2	
725.92	5846.3	
726.1	7014.3	
726.28	7251.9	
726.46	6146.6	
726.64	5760.9	
726.83	7077.8	
727.01	7332.4	
727.19	5577.3	
727.37	6257.9	
727.55	7356.3	
727.73	7695.6	
727.91	5567.7	
728.09	5336.3	
728.28	7758.4	
728.46	7994.6	
728.64	6314.6	
728.82	6305.7	
729	8548.2	
729.18	8103.1	
729.36	5656.5	
729.54	7643.7	
729.72	8995.4	
729.91	7628	
730.09	7542	
730.27	6455.2	
730.45	7645.8	
730.63	8125.7	
730.81	6984.3	
730.99	6197.2	
731.17	8625.4	
731.35	7426.6	
731.53	6666.1	
731.71	6275	
731.9	8368	
732.08	8503.8	
732.26	6481.8	
732.44	6186.2	
732.62	8406.2	
732.8	8041	
732.98	6809.5	
733.16	5939.1	
733.34	7998	
733.52	6896.2	
733.7	6360.3	
733.88	6565.1	
734.07	7861.5	
734.25	7592.5	
734.43	5897.5	
734.61	7249.8	
734.79	8918.9	
734.97	7527.7	
735.15	6015.6	
735.33	6305	
735.51	7778.2	
735.69	7511.3	
735.87	7170.6	
736.05	6458.6	
736.23	7672.4	
736.41	7386.3	
736.59	6373.3	
736.77	6363.7	
736.95	8066.3	
737.13	7518.1	
737.32	6111.1	
737.5	6247	
737.68	8533.9	
737.86	7437.5	
738.04	5840.8	
738.22	7397.9	
738.4	7235.5	
738.58	7553.6	
738.76	6355.5	
738.94	5452.4	
739.12	7382.2	
739.3	7260.7	
739.48	6802	
739.66	6589	
739.84	7552.9	
740.02	7521.5	
740.2	5556.1	
740.38	5862.7	
740.56	7886.7	
740.74	6797.9	
740.92	6397.2	
741.1	6213.5	
741.28	7253.2	
741.46	7166.5	
741.64	5923.4	
741.82	6335.7	
742	7337.2	
742.18	7223.2	
742.36	6155.5	
742.54	5724.1	
742.72	7829.4	
742.9	6677.7	
743.08	6335.7	
743.26	5318.6	
743.44	7845.1	
743.62	7767.3	
743.8	6495.5	
743.98	5680.4	
744.16	7480.5	
744.34	7162.4	
744.52	6384.9	
744.7	6320.7	
744.88	7592.5	
745.06	7127.6	
745.24	6275	
745.42	6425.2	
745.6	7594.6	
745.78	7327.6	
745.96	5278.3	
746.14	5502.2	
746.32	8147.5	
746.5	7477.8	
746.68	6026.5	
746.86	5471.5	
747.03	7841	
747.21	6491.4	
747.39	5903.6	
747.57	5442.8	
747.75	7152.2	
747.93	7399.3	
748.11	5481.7	
748.29	5334.3	
748.47	8415.1	
748.65	6877.1	
748.83	6058.6	
749.01	5760.9	
749.19	7250.5	
749.37	6550.8	
749.55	5696.8	
749.73	5752.7	
749.91	6972	
750.09	6768.5	
750.26	5722	
750.44	5199.8	
750.62	7041.6	
750.8	6929.6	
750.98	5109.7	
751.16	5378.6	
751.34	6956.9	
751.52	6438.8	
751.7	6059.3	
751.88	5022.3	
752.06	7357.7	
752.24	7094.8	
752.42	5070.1	
752.59	5341.8	
752.77	6838.9	
752.95	7877.2	
753.13	5917.3	
753.31	5368.4	
753.49	6563.7	
753.67	6908.5	
753.85	5593.7	
754.03	5234.6	
754.21	7051.2	
754.38	7429.3	
754.56	5282.4	
754.74	4493.9	
754.92	6331	
755.1	6838.9	
755.28	4374.5	
755.46	4330.1	
755.64	7348.8	
755.82	7397.9	
755.99	4335.5	
756.17	4351.3	
756.35	5038.7	
756.53	6338.5	
756.71	3333.4	
756.89	4131.4	
757.07	5991	
757.25	5210	
757.42	4584	
757.6	5402.5	
757.78	6102.9	
757.96	5302.9	
758.14	4409.3	
758.32	4028.4	
758.5	4928.8	
758.67	5614.2	
758.85	4216.8	
759.03	4349.9	
759.21	5783.5	
759.39	5255.1	
759.57	3909.6	
759.75	4812	
759.92	6307.7	
760.1	5765.7	
760.28	5209.3	
760.46	5414.1	
760.64	5608	
760.82	5371.1	
760.99	5147.2	
761.17	4381.3	
761.35	6370.5	
761.53	5427.1	
761.71	4592.9	
761.89	5137	
762.06	6292	
762.24	5814.2	
762.42	4715.1	
762.6	4498	
762.78	5806	
762.96	6396.5	
763.13	5122	
763.31	4799.8	
763.49	6527.6	
763.67	5819	
763.85	5458.5	
764.02	5965.1	
764.2	6730.3	
764.38	6053.1	
764.56	4636.6	
764.74	5344.5	
764.91	6844.3	
765.09	5898.8	
765.27	4292.5	
765.45	4171	
765.63	6880.5	
765.8	6766.5	
765.98	3968.3	
766.16	4235.2	
766.34	5494	
766.52	5367.7	
766.69	5007.3	
766.87	4086.4	
767.05	5887.2	
767.23	6414.2	
767.41	4308.9	
767.58	4505.5	
767.76	6287.3	
767.94	6335	
768.12	4384	
768.29	4960.2	
768.47	5837.4	
768.65	6483.9	
768.83	4023.6	
769	5023	
769.18	5444.2	
769.36	5970.5	
769.54	4967	
769.72	4016.1	
769.89	6264.7	
770.07	6296.8	
770.25	4279.6	
770.43	5381.4	
770.6	6902.3	
770.78	7226.6	
770.96	4430.4	
771.14	4949.3	
771.31	6171.2	
771.49	5631.2	
771.67	3683.6	
771.85	3891.1	
772.02	4992.9	
772.2	5574.6	
772.38	4517.1	
772.55	4088.4	
772.73	5788.9	
772.91	5537.7	
773.09	4379.9	
773.26	4497.3	
773.44	5703.6	
773.62	5401.2	
773.8	4012.7	
773.97	3726.6	
774.15	5754.1	
774.33	5476.3	
774.5	3824.2	
774.68	4178.5	
774.86	5866.1	
775.04	5450.3	
775.21	3920.5	
775.39	3945.1	
775.57	5670.1	
775.74	6040.1	
775.92	3719.1	
776.1	3677.5	
776.27	5620.3	
776.45	6619	
776.63	3893.9	
776.81	3543.7	
776.98	5317.2	
777.16	6267.5	
777.34	3984	
777.51	4230.4	
777.69	5300.1	
777.87	5108.3	
778.04	4001	
778.22	4559.5	
778.4	5129.5	
778.57	5701.5	
778.75	3414	
778.93	3616.7	
779.1	4938.3	
779.28	4833.2	
779.46	3396.9	
779.64	3772.4	
779.81	5786.2	
779.99	6495.5	
780.17	4469.4	
780.34	4559.5	
780.52	5365	
780.69	5494.7	
780.87	4133.5	
781.05	3709.6	
781.22	5402.5	
781.4	5397.1	
781.58	3782.6	
781.75	3076.7	
781.93	5380.7	
782.11	4815.5	
782.28	4547.9	
782.46	3790.8	
782.64	4721.9	
782.81	5522	
782.99	3805.8	
783.17	3831.7	
783.34	5380	
783.52	4777.9	
783.69	3865.2	
783.87	4728.8	
784.05	4916.5	
784.22	4873.5	
784.4	4642.1	
784.58	4059.1	
784.75	5641.5	
784.93	4894.6	
785.1	3766.2	
785.28	4240	
785.46	5396.4	
785.63	4771.8	
785.81	3724.6	
785.99	3603.1	
786.16	5036.6	
786.34	5311.1	
786.51	3627.6	
786.69	3942.3	
786.87	4590.2	
787.04	4983.4	
787.22	3494.5	
787.39	4302.1	
787.57	4805.9	
787.75	5754.8	
787.92	4491.2	
788.1	4402.5	
788.27	4797.7	
788.45	4539.7	
788.63	4184	
788.8	3077.4	
788.98	5177.3	
789.15	4498.7	
789.33	3162.1	
789.5	3734.1	
789.68	5584.1	
789.86	5690.6	
790.03	4081.6	
790.21	3592.1	
790.38	5575.9	
790.56	4932.2	
790.73	3507.5	
790.91	3500	
791.09	4747.2	
791.26	5395.7	
791.44	3729.4	
791.61	3228.3	
791.79	4799.1	
791.96	4846.2	
792.14	3364.1	
792.32	2973.7	
792.49	4767	
792.67	4917.2	
792.84	3445.4	
793.02	3187.3	
793.19	5154.7	
793.37	5768.4	
793.54	2958.6	
793.72	3326.6	
793.89	5824.4	
794.07	4763.6	
794.25	3676.8	
794.42	3056.9	
794.6	5689.3	
794.77	5370.5	
794.95	3972.4	
795.12	3492.5	
795.3	4826.4	
795.47	5319.3	
795.65	3841.3	
795.82	3723.2	
796	4601.8	
796.17	6202.6	
796.35	3642.7	
796.52	4225.6	
796.7	5234.6	
796.87	5322	
797.05	3566.9	
797.22	4303.5	
797.4	5317.9	
797.57	6118	
797.75	3781.9	
797.92	3530	
798.1	5586.9	
798.27	4670.1	
798.45	3086.3	
798.62	3256.3	
798.8	5005.9	
798.97	5468.1	
799.15	3912.3	
799.32	3774.4	
799.5	4443.4	
799.67	5096.7	
799.85	4055	
800.02	2984.6	
800.2	4711.7	
800.37	4998.4	
800.55	4199.7	
800.72	3509.5	
800.9	5413.5	
801.07	5760.3	
801.25	4605.9	
801.42	3814.7	
801.6	5448.3	
801.77	5148.6	
801.95	3588	
802.12	3438.5	
802.29	5242.8	
802.47	5117.2	
802.64	3889.8	
802.82	2942.2	
802.99	4738.3	
803.17	5497.4	
803.34	3705.5	
803.52	3393.5	
803.69	6087.9	
803.87	4504.8	
804.04	3693.9	
804.21	3760.1	
804.39	5720.7	
804.56	4892.6	
804.74	3177.1	
804.91	3849.5	
805.09	4739.7	
805.26	4877.6	
805.44	3259.7	
805.61	3528	
805.78	5365.7	
805.96	5317.9	
806.13	3816	
806.31	4089.1	
806.48	4354.7	
806.66	4840.7	
806.83	3784	
807	3687.7	
807.18	4786.8	
807.35	5071.5	
807.53	3704.8	
807.7	3016	
807.87	5726.8	
808.05	4762.2	
808.22	4121.2	
808.4	2994.8	
808.57	4672.1	
808.74	4400.4	
808.92	3401	
809.09	4258.4	
809.27	4691.2	
809.44	5170.4	
809.61	3030.3	
809.79	3360	
809.96	5710.4	
810.14	5436	
810.31	2914.3	
810.48	3576.4	
810.66	4845.5	
810.83	5452.4	
811.01	3401	
811.18	3805.1	
811.35	5375.9	
811.53	4240.7	
811.7	4169.7	
811.87	3816.7	
812.05	4793.6	
812.22	4683.7	
812.39	3267.2	
812.57	3201.7	
812.74	4750.6	
812.92	6184.2	
813.09	3553.2	
813.26	3831.1	
813.44	5908.4	
813.61	4633.9	
813.78	3003.7	
813.96	3986.7	
814.13	4724	
814.3	4476.9	
814.48	4306.2	
814.65	3503.4	
814.82	5920.7	
815	4516.5	
815.17	3592.1	
815.34	4359.4	
815.52	4648.2	
815.69	4686.4	
815.87	3582.6	
816.04	3569.6	
816.21	4758.1	
816.38	4226.3	
816.56	3486.3	
816.73	3289.7	
816.9	5914.5	
817.08	5348.6	
817.25	3323.2	
817.42	4072	
817.6	4357.4	
817.77	4697.4	
817.94	3759.4	
818.12	3310.9	
818.29	4451.6	
818.46	6777.4	
818.64	3458.3	
818.81	3229.6	
818.98	4459.8	
819.16	6283.2	
819.33	3841.3	
819.5	3586	
819.67	5056.4	
819.85	5559.6	
820.02	3605.8	
820.19	3816.7	
820.37	4939.7	
820.54	4633.2	
820.71	3706.8	
820.88	4542.4	
821.06	4954.7	
821.23	4545.1	
821.4	3720.5	
821.58	3700	
821.75	5357.5	
821.92	4934.2	
822.09	3093.8	
822.27	3061.7	
822.44	4755.4	
822.61	4622.9	
822.79	3123.8	
822.96	5686.5	
823.13	5165.7	
823.3	4536.3	
823.48	3446.7	
823.65	3136.8	
823.82	5319.9	
823.99	4387.4	
824.17	4363.5	
824.34	3234.4	
824.51	6134.3	
824.68	4800.4	
824.86	3348.4	
825.03	3685	
825.2	4706.9	
825.37	5636	
825.55	3282.2	
825.72	3629	
825.89	6081.8	
826.06	5659.2	
826.24	3581.2	
826.41	3555.3	
826.58	5678.3	
826.75	4973.8	
826.92	2894.5	
827.1	3189.4	
827.27	7558.4	
827.44	6098.9	
827.61	3427.6	
827.79	4063.9	
827.96	4556	
828.13	4778.6	
828.3	3578.5	
828.47	2996.9	
828.65	4988.9	
828.82	4945.8	
828.99	4541.7	
829.16	3956	
829.34	5341.1	
829.51	5101.5	
829.68	3611.3	
829.85	3807.9	
830.02	5576.6	
830.2	5293.3	
830.37	2871.3	
830.54	4349.2	
830.71	6023.8	
830.88	4778.6	
831.05	2923.8	
831.23	3338.9	
831.4	5711.1	
831.57	6343.9	
831.74	3367.5	
831.91	2981.2	
832.09	5014.1	
832.26	5299.5	
832.43	3512.3	
832.6	3946.4	
832.77	4976.6	
832.94	5616.9	
833.12	2803	
833.29	3502	
833.46	4644.1	
833.63	6576	
833.8	3773.7	
833.97	3495.2	
834.15	5367	
834.32	5108.3	
834.49	3665.9	
834.66	3734.8	
834.83	5475.6	
835	4573.1	
835.17	3383.2	
835.35	3396.9	
835.52	5221	
835.69	5137	
835.86	3529.3	
836.03	2946.3	
836.2	5246.2	
836.37	4933.6	
836.55	3459.7	
836.72	3260.4	
836.89	4884.4	
837.06	5333.6	
837.23	3545.7	
837.4	3850.9	
837.57	6001.9	
837.75	6518.7	
837.92	3209.2	
838.09	3374.4	
838.26	4870.8	
838.43	5502.2	
838.6	3713	
838.77	3299.3	
838.94	6264.1	
839.11	5998.5	
839.29	3517	
839.46	2777.7	
839.63	5266	
839.8	4986.1	
839.97	3386.7	
840.14	3405.8	
840.31	5094	
840.48	5235.3	
840.65	2878.1	
840.82	3288.4	
841	5266.7	
841.17	5134.9	
841.34	3192.1	
841.51	3245.3	
841.68	5253.7	
841.85	5001.8	
842.02	3319.8	
842.19	2757.2	
842.36	5085.8	
842.53	5128.8	
842.7	3093.8	
842.87	3790.8	
843.05	6541.2	
843.22	5012.1	
843.39	2951.8	
843.56	3222.8	
843.73	4812.7	
843.9	5350.7	
844.07	4950.6	
844.24	4173.8	
844.41	7422.5	
844.58	4612	
844.75	3076	
844.92	3327.9	
845.09	5246.2	
845.26	5230.5	
845.43	3103.4	
845.6	3308.8	
845.77	5255.8	
845.94	5025	
846.12	3467.2	
846.29	3656.3	
846.46	5448.3	
846.63	5289.9	
846.8	3113.6	
846.97	3694.5	
847.14	5643.5	
847.31	5210	
847.48	3527.3	
847.65	3863.2	
847.82	5517.9	
847.99	5446.2	
848.16	4130.1	
848.33	3810.6	
848.5	4829.8	
848.67	5589.6	
848.84	3074.7	
849.01	3203.7	
849.18	4778.6	
849.35	4512.4	
849.52	3863.2	
849.69	3024.8	
849.86	5471.5	
850.03	5603.9	
850.2	3206.4	
850.37	3710.2	
850.54	5533.6	
850.71	4949.9	
850.88	3670	
851.05	3052.8	
851.22	5156.1	
851.39	5697.4	
851.56	2974.3	
851.73	3575.8	
851.9	4657.8	
852.07	5444.2	
852.24	3405.8	
852.41	3085.6	
852.58	5102.2	
852.75	4663.9	
852.92	3503.4	
853.09	3059.7	
853.26	4847.5	
853.43	5592.3	
853.6	3067.2	
853.77	2679.4	
853.94	5722.7	
854.11	5160.9	
854.28	4550.6	
854.44	3337.5	
854.61	6069.5	
854.78	5564.3	
854.95	3089	
855.12	3840.6	
855.29	4257	
855.46	5784.1	
855.63	3118.4	
855.8	4221.5	
855.97	4829.8	
856.14	5566.4	
856.31	4268.6	
856.48	3370.3	
856.65	4857.1	
856.82	4588.1	
856.99	2985.9	
857.16	3307.5	
857.33	6213.5	
857.49	4953.4	
857.66	3361.4	
857.83	3548.4	
858	4931.5	
858.17	5152	
858.34	2950.4	
858.51	3150.5	
858.68	5772.5	
858.85	5791.7	
859.02	3596.9	
859.19	3746.4	
859.36	4698.7	
859.52	4668	
859.69	3143.6	
859.86	3622.2	
860.03	4728.1	
860.2	5687.9	
860.37	2891.7	
860.54	3201.7	
860.71	5481	
860.88	5763	
861.05	3474.7	
861.21	3908.9	
861.38	5757.5	
861.55	4511	
861.72	2896.5	
861.89	3490.4	
862.06	5502.9	
862.23	5911.8	
862.4	2993.4	
862.56	3274	
862.73	5323.4	
862.9	5018.2	
863.07	3559.4	
863.24	2833.7	
863.41	4536.9	
863.58	4661.9	
863.75	3145	
863.91	3620.1	
864.08	5711.8	
864.25	5348.6	
864.42	3821.5	
864.59	4248.9	
864.76	6006.7	
864.93	4651.6	
865.09	3006.4	
865.26	3283.6	
865.43	5627.8	
865.6	5971.2	
865.77	2757.2	
865.94	3022.1	
866.1	5652.4	
866.27	5439.4	
866.44	4622.3	
866.61	2946.3	
866.78	5012.7	
866.95	5351.3	
867.11	3005.7	
867.28	2748.4	
867.45	5573.2	
867.62	4689.2	
867.79	3575.8	
867.96	3090.4	
868.12	4644.8	
868.29	5401.2	
868.46	2720.4	
868.63	4102.8	
868.8	5539.8	
868.97	5362.3	
869.13	3259.7	
869.3	3196.2	
869.47	5291.3	
869.64	5514.5	
869.81	3156.6	
869.97	3132	
870.14	5203.9	
870.31	5775.3	
870.48	3009.1	
870.65	3865.9	
870.81	4924.7	
870.98	4949.3	
871.15	3523.9	
871.32	3218.7	
871.48	5297.4	
871.65	5795.8	
871.82	3050.8	
871.99	3414	
872.16	6173.9	
872.32	5634.6	
872.49	3198.9	
872.66	3082.9	
872.83	5405.3	
872.99	4789.5	
873.16	3517	
873.33	3053.5	
873.5	5108.3	
873.67	5106.3	
873.83	3281.5	
874	4123.9	
874.17	5277.6	
874.34	6105	
874.5	3958	
874.67	3839.3	
874.84	5738.4	
875.01	4569.7	
875.17	4267.3	
875.34	3074.7	
875.51	5191.6	
875.68	6165.8	
875.84	3702.7	
876.01	4424.3	
876.18	5446.9	
876.34	5378	
876.51	3070.6	
876.68	3048.7	
876.85	4961.5	
877.01	5675.6	
877.18	4289.8	
877.35	3090.4	
877.52	5151.3	
877.68	4588.8	
877.85	3077.4	
878.02	3080.1	
878.18	4957.4	
878.35	4810	
878.52	2547	
878.69	3450.8	
878.85	5486.5	
879.02	5343.8	
879.19	4329.4	
879.35	3297.9	
879.52	5416.2	
879.69	5517.2	
879.86	2764.8	
880.02	3456.3	
880.19	5038	
880.36	5989.6	
880.52	3565.5	
880.69	3633.1	
880.86	5511.8	
881.02	5489.2	
881.19	3446	
881.36	3373	
881.52	5348.6	
881.69	4782.7	
881.86	3343	
882.02	3276.1	
882.19	5610.1	
882.36	6421.7	
882.52	3194.8	
882.69	4277.5	
882.86	5186.8	
883.02	5130.2	
883.19	3708.9	
883.36	3497.2	
883.52	5442.8	
883.69	6204	
883.86	3136.8	
884.02	2828.9	
884.19	5424.4	
884.36	5085.8	
884.52	3488.4	
884.69	3319.8	
884.86	4813.4	
885.02	5891.3	
885.19	3452.2	
885.36	3599	
885.52	5061.9	
885.69	5205.9	
885.86	4431.8	
886.02	3872.7	
886.19	5459.2	
886.35	4813.4	
886.52	3423.5	
886.69	4282.3	
886.85	4661.2	
887.02	5653.8	
887.19	5653.8	
887.35	5653.8	
887.52	5653.8	
887.68	5653.8	
887.85	5653.8	
888.02	5653.8	
888.18	5653.8	
888.35	5653.8	
888.51	5653.8	
888.68	5653.8	
888.85	5653.8	
889.01	5653.8	
889.18	5653.8	
889.35	5653.8	
889.51	5653.8	
889.68	5653.8	
889.84	5653.8	
890.01	5653.8	
890.17	5653.8	
890.34	5653.8	
890.51	5653.8	
890.67	5653.8	
890.84	5653.8	
891	5653.8	
891.17	5653.8	
891.34	5653.8	
891.5	5653.8	
891.67	5653.8	
891.83	5653.8	
892	5653.8	
892.16	5653.8	
892.33	5653.8	
892.5	5653.8	
892.66	5653.8	
892.83	5653.8	
892.99	5653.8	
893.16	5653.8	
893.32	5653.8	
893.49	5653.8	
893.65	5653.8	
893.82	5653.8	
893.99	5653.8	
894.15	5653.8	
894.32	5653.8	
894.48	5653.8	
894.65	5653.8	
894.81	5653.8	
894.98	5653.8	
895.14	5653.8	
895.31	5653.8	
895.47	5653.8	
895.64	5653.8	
895.81	5653.8	
895.97	5653.8	
896.14	5653.8	
896.3	5653.8	
896.47	5653.8	
896.63	5653.8	
896.8	5653.8	
896.96	5653.8	
897.13	5653.8	
897.29	5653.8	
897.46	5653.8	
897.62	5653.8	
897.79	5653.8	
897.95	5653.8	
898.12	5653.8	
898.28	5653.8	
898.45	5653.8	
898.61	5653.8	
898.78	5653.8	
898.94	5653.8	
899.11	5653.8	
899.27	5653.8	
899.44	5653.8	
899.6	5653.8	
899.77	5653.8	
899.93	5653.8	
900.1	5653.8	
900.26	5653.8	
900.43	5653.8	
900.59	5653.8	
900.76	5653.8	
900.92	5653.8	
901.09	5653.8	
901.25	5653.8	
901.42	5653.8	
901.58	5653.8	
901.75	5653.8	
901.91	5653.8	
902.07	5653.8	
902.24	5653.8	
902.4	5653.8	
902.57	5653.8	
902.73	5653.8	
902.9	5653.8	
903.06	5653.8	
903.23	5653.8	
903.39	5653.8	
903.56	5653.8	
903.72	5653.8	
903.88	5653.8	
904.05	5653.8	
904.21	5653.8	
904.38	5653.8	
904.54	5653.8	
904.71	5653.8	
904.87	5653.8	
905.03	5653.8	
905.2	5653.8	
905.36	5653.8	
905.53	5653.8	
905.69	5653.8	
905.86	5653.8	
906.02	5653.8	
906.18	5653.8	
906.35	5653.8	
906.51	5653.8	
906.68	5653.8	
906.84	5653.8	
907.01	5653.8	
907.17	5653.8	
907.33	5653.8	
907.5	5653.8	
907.66	5653.8	
907.83	5653.8	
907.99	5653.8	
908.15	5653.8	
908.32	5653.8	
908.48	5653.8	
908.65	5653.8	
908.81	5653.8	
908.97	5653.8	
909.14	5653.8	
909.3	5653.8	
909.47	5653.8	
909.63	5653.8	
909.79	5653.8	
909.96	5653.8	
910.12	5653.8	
910.28	5653.8	
910.45	5653.8	
910.61	5653.8	
910.78	5653.8	
910.94	5653.8	
911.1	5653.8	
911.27	5653.8	
911.43	5653.8	
911.59	5653.8	
911.76	5653.8	
911.92	5653.8	
912.08	5653.8	
912.25	5653.8	
912.41	5653.8	
912.57	5653.8	
912.74	5653.8	
912.9	5653.8	
913.07	5653.8	
913.23	5653.8	
913.39	5653.8	
913.56	5653.8	
913.72	5653.8	
913.88	5653.8	
914.05	5653.8	
914.21	5653.8	
914.37	5653.8	
914.54	5653.8	
914.7	5653.8	
914.86	5653.8	
915.03	5653.8	
915.19	5653.8	
