Wavelength	Intensities	
nm	a.u.	
179.22	1799.3	
179.44	1795	
179.65	1803.6	
179.86	1786.5	
180.08	1765.3	
180.29	4341	
180.51	3186.6	
180.72	5242.8	
180.94	6043.6	
181.15	2950.4	
181.37	2918.4	
181.58	5072.1	
181.79	5384.1	
182.01	3040.6	
182.22	3274.7	
182.44	5338.4	
182.65	4555.4	
182.87	4042.7	
183.08	3566.2	
183.29	5629.9	
183.51	4614.1	
183.72	3267.2	
183.94	4629.8	
184.15	4989.5	
184.37	4941.1	
184.58	2867.2	
184.79	3880.9	
185.01	4651.6	
185.22	5290.6	
185.44	4072	
185.65	3491.8	
185.86	4922.6	
186.08	4579.9	
186.29	2833.7	
186.51	3003	
186.72	4730.8	
186.94	5482.4	
187.15	3525.2	
187.36	3575.1	
187.58	7031.4	
187.79	5091.9	
188.01	3660.4	
188.22	5693.4	
188.43	6041.5	
188.65	5320.6	
188.86	3076	
189.08	3613.3	
189.29	4859.1	
189.5	4860.5	
189.72	3291.8	
189.93	3409.2	
190.15	5519.3	
190.36	6410.1	
190.57	3650.2	
190.79	3486.3	
191	5477.6	
191.22	5527.5	
191.43	3664.5	
191.64	3072.6	
191.86	5764.3	
192.07	5499.5	
192.29	3196.2	
192.5	3319.1	
192.71	5437.4	
192.93	4800.4	
193.14	3311.6	
193.35	3331.4	
193.57	4861.9	
193.78	5487.2	
194	2719.7	
194.21	3275.4	
194.42	4609.3	
194.64	4967	
194.85	3536.8	
195.07	4204.5	
195.28	5003.2	
195.49	4453.6	
195.71	4353.3	
195.92	3139.5	
196.13	5249.6	
196.35	5296	
196.56	4608.6	
196.78	3609.2	
196.99	6394.4	
197.2	6005.3	
197.42	3581.2	
197.63	3631	
197.84	4531.5	
198.06	5139	
198.27	3327.3	
198.48	4401.1	
198.7	4874.8	
198.91	4987.5	
199.13	3613.3	
199.34	3614	
199.55	5450.3	
199.77	4362.9	
199.98	3215.3	
200.19	3703.4	
200.41	4939	
200.62	4699.4	
200.83	3741.6	
201.05	4064.5	
201.26	4944.5	
201.47	4737.6	
201.69	3211.2	
201.9	3111.5	
202.11	4988.2	
202.33	5885.2	
202.54	3403.7	
202.76	3765.5	
202.97	5126.7	
203.18	5132.2	
203.4	3779.2	
203.61	3721.2	
203.82	5085.8	
204.04	4812	
204.25	3654.3	
204.46	3601	
204.68	5067.4	
204.89	5186.1	
205.1	3522.5	
205.32	3085.6	
205.53	5403.9	
205.74	5488.6	
205.96	2682.2	
206.17	3678.2	
206.38	5279	
206.6	5419.6	
206.81	4057.7	
207.02	3386.7	
207.24	5242.1	
207.45	5596.4	
207.66	3436.5	
207.88	2977.1	
208.09	5184.1	
208.3	4992.9	
208.52	3164.1	
208.73	3476.1	
208.94	5016.2	
209.15	5642.8	
209.37	3443.3	
209.58	3608.5	
209.79	5497.4	
210.01	4853	
210.22	2798.2	
210.43	2946.3	
210.65	4969.7	
210.86	5391.6	
211.07	3436.5	
211.29	3197.6	
211.5	5280.3	
211.71	5001.1	
211.93	3098.6	
212.14	3164.8	
212.35	4936.3	
212.56	5081	
212.78	3648.8	
212.99	3059	
213.2	5806	
213.42	4796.3	
213.63	3317	
213.84	3505.4	
214.06	4549.2	
214.27	4594.3	
214.48	3420.1	
214.69	3658.4	
214.91	5581.4	
215.12	5639.4	
215.33	3715	
215.55	4029	
215.76	6067.4	
215.97	5277.6	
216.18	3543.7	
216.4	3547.1	
216.61	4700.8	
216.82	5453.7	
217.04	3182.5	
217.25	3351.8	
217.46	5556.1	
217.67	5369.8	
217.89	2934.1	
218.1	2992.8	
218.31	5031.9	
218.53	5145.2	
218.74	3361.4	
218.95	3269.2	
219.16	4972.5	
219.38	5751.4	
219.59	3274.7	
219.8	3825.6	
220.01	6294.8	
220.23	5113.8	
220.44	4160.8	
220.65	3176.4	
220.87	5111.7	
221.08	5585.5	
221.29	3006.4	
221.5	3919.1	
221.72	6623.1	
221.93	4795	
222.14	3648.1	
222.35	4287.8	
222.57	5010	
222.78	5356.8	
222.99	3467.9	
223.2	3728.7	
223.42	5251	
223.63	5375.2	
223.84	2753.8	
224.05	2665.8	
224.27	6290	
224.48	5770.5	
224.69	4222.2	
224.9	3663.1	
225.12	5169.1	
225.33	4936.3	
225.54	2927.2	
225.75	3312.2	
225.97	4678.9	
226.18	4968.4	
226.39	3522.5	
226.6	3250.1	
226.82	4791.6	
227.03	4682.3	
227.24	3640.6	
227.45	3067.9	
227.67	5308.3	
227.88	5730.2	
228.09	4022.2	
228.3	4026.3	
228.52	5326.8	
228.73	4980	
228.94	3410.6	
229.15	3049.4	
229.36	4975.2	
229.58	4962.2	
229.79	3387.3	
230	3888.4	
230.21	5862	
230.43	5101.5	
230.64	3583.3	
230.85	3747.8	
231.06	5370.5	
231.28	5368.4	
231.49	2975	
231.7	3517	
231.91	5304.9	
232.12	5045.5	
232.34	3110.9	
232.55	3539.6	
232.76	5535	
232.97	5190.2	
233.18	3194.8	
233.4	3579.8	
233.61	5187.5	
233.82	4818.9	
234.03	3350.5	
234.25	3326.6	
234.46	6786.3	
234.67	5068.7	
234.88	3679.5	
235.09	3247.4	
235.31	5324.7	
235.52	4868	
235.73	3580.5	
235.94	3115.6	
236.15	4737.6	
236.37	5991	
236.58	3209.2	
236.79	3495.2	
237	5342.5	
237.21	4575.8	
237.43	3751.2	
237.64	2948.4	
237.85	8626	
238.06	4616.8	
238.27	3758.7	
238.48	3087.7	
238.7	5300.1	
238.91	4919.9	
239.12	3469.3	
239.33	3523.9	
239.54	4662.5	
239.76	4974.5	
239.97	3452.2	
240.18	3484.3	
240.39	6107.7	
240.6	5184.1	
240.82	3620.8	
241.03	3005.1	
241.24	5018.9	
241.45	5720	
241.66	3173.7	
241.87	3751.9	
242.09	5646.2	
242.3	5918.6	
242.51	3755.3	
242.72	3451.5	
242.93	5371.8	
243.14	5005.2	
243.36	3956.7	
243.57	4295.3	
243.78	5742.5	
243.99	5305.6	
244.2	3521.1	
244.41	3181.9	
244.63	4632.5	
244.84	5284.4	
245.05	3710.9	
245.26	3437.9	
245.47	5293.3	
245.68	5422.3	
245.9	4512.4	
246.11	3680.2	
246.32	4843.4	
246.53	5244.8	
246.74	5489.2	
246.95	2935.4	
247.16	4669.4	
247.38	5024.3	
247.59	2919	
247.8	3476.8	
248.01	4728.1	
248.22	4924.7	
248.43	3158.7	
248.64	3370.3	
248.86	4567	
249.07	4788.2	
249.28	3118.4	
249.49	3544.4	
249.7	5449.6	
249.91	5569.1	
250.12	2940.9	
250.34	2979.1	
250.55	5143.8	
250.76	5018.2	
250.97	3579.8	
251.18	3565.5	
251.39	5568.4	
251.6	5149.3	
251.81	3650.2	
252.03	3680.2	
252.24	4810.7	
252.45	5362.9	
252.66	3064.4	
252.87	3846.8	
253.08	5048.2	
253.29	6397.2	
253.5	3013.9	
253.72	4119.1	
253.93	4898.7	
254.14	5883.8	
254.35	3319.1	
254.56	3432.4	
254.77	5198.4	
254.98	4655	
255.19	3310.2	
255.41	4110.3	
255.62	5126.1	
255.83	5509.7	
256.04	3697.3	
256.25	3596.9	
256.46	6062.7	
256.67	4756.7	
256.88	3592.1	
257.09	4015.4	
257.31	4773.1	
257.52	4706.9	
257.73	4425.7	
257.94	3327.9	
258.15	4908.3	
258.36	5038	
258.57	4143	
258.78	2698.5	
258.99	5476.3	
259.2	4885.1	
259.41	3321.8	
259.63	3398.9	
259.84	5765	
260.05	6090	
260.26	4278.2	
260.47	3224.2	
260.68	5528.2	
260.89	4947.2	
261.1	4016.7	
261.31	3170.9	
261.52	5541.1	
261.73	5887.9	
261.95	4241.3	
262.16	3753.2	
262.37	5558.9	
262.58	5765	
262.79	4229.1	
263	3397.6	
263.21	5149.3	
263.42	4854.4	
263.63	3424.2	
263.84	3355.9	
264.05	5489.9	
264.26	5793	
264.47	4085.7	
264.69	3742.3	
264.9	5592.3	
265.11	5213.4	
265.32	3247.4	
265.53	3349.1	
265.74	5158.2	
265.95	4483.7	
266.16	3562.8	
266.37	3868.6	
266.58	5081.7	
266.79	4866	
267	3339.6	
267.21	3038.5	
267.42	4625	
267.63	4984.1	
267.84	3482.2	
268.06	2967.5	
268.27	5397.1	
268.48	5687.9	
268.69	3373	
268.9	3969	
269.11	5595.1	
269.32	4552.6	
269.53	3451.5	
269.74	3219.4	
269.95	5247.6	
270.16	4490.5	
270.37	3495.9	
270.58	3970.3	
270.79	4866.7	
271	5461.2	
271.21	3704.8	
271.42	3581.9	
271.63	5169.1	
271.84	4681.7	
272.05	2803	
272.26	3139.5	
272.47	5018.9	
272.68	5126.7	
272.89	3312.9	
273.11	3792.8	
273.32	4820.9	
273.53	5817.6	
273.74	3733.4	
273.95	3638.6	
274.16	5482.4	
274.37	5042.1	
274.58	3910.3	
274.79	3032.4	
275	5142.4	
275.21	5591	
275.42	4507.6	
275.63	3869.3	
275.84	5289.2	
276.05	6419	
276.26	3645.4	
276.47	3454.9	
276.68	4980	
276.89	5863.3	
277.1	3908.2	
277.31	3056.9	
277.52	5205.3	
277.73	5450.3	
277.94	3026.2	
278.15	3386.7	
278.36	5227.1	
278.57	4743.1	
278.78	3343	
278.99	3702.7	
279.2	4741.7	
279.41	4693.3	
279.62	4387.4	
279.83	3112.2	
280.04	6011.5	
280.25	4671.4	
280.46	4335.5	
280.67	3515	
280.88	4707.6	
281.09	5574.6	
281.3	3662.5	
281.51	4515.1	
281.72	4799.8	
281.93	5403.2	
282.14	3254.2	
282.35	3508.2	
282.56	5428.5	
282.77	5394.3	
282.98	3378.5	
283.19	4078.9	
283.4	6567.8	
283.61	5018.2	
283.82	3137.5	
284.03	4277.5	
284.24	5140.4	
284.45	5542.5	
284.66	4265.9	
284.87	4090.5	
285.08	5500.2	
285.29	5593	
285.5	3003.7	
285.71	3392.1	
285.92	5601.9	
286.12	6068.1	
286.33	4249.5	
286.54	3400.3	
286.75	5402.5	
286.96	4919.9	
287.17	3146.4	
287.38	4212	
287.59	4726.7	
287.8	4714.4	
288.01	3421.5	
288.22	3867.2	
288.43	5448.3	
288.64	4571.7	
288.85	4003.8	
289.06	3786	
289.27	5401.9	
289.48	5778	
289.69	4271.4	
289.9	3921.9	
290.11	5602.6	
290.32	4748.6	
290.53	4044.7	
290.74	3727.3	
290.94	5392.3	
291.15	5510.4	
291.36	3286.3	
291.57	3871.3	
291.78	4887.1	
291.99	4476.9	
292.2	3190.1	
292.41	3682.9	
292.62	5490.6	
292.83	5315.2	
293.04	4575.8	
293.25	3226.2	
293.46	4888.5	
293.67	5532.9	
293.88	3275.4	
294.09	3201	
294.29	4654.4	
294.5	5207.3	
294.71	3482.2	
294.92	3422.8	
295.13	4881.7	
295.34	6004	
295.55	2926.5	
295.76	2968.9	
295.97	5380.7	
296.18	6041.5	
296.39	3084.9	
296.6	3313.6	
296.81	5098.1	
297.01	5433.3	
297.22	3403	
297.43	3275.4	
297.64	4786.1	
297.85	4693.3	
298.06	2746.3	
298.27	3005.7	
298.48	5038	
298.69	4786.8	
298.9	3586	
299.11	3252.2	
299.31	4625	
299.52	4625	
299.73	3815.4	
299.94	3662.5	
300.15	5031.9	
300.36	4726	
300.57	3685.7	
300.78	3688.4	
300.99	4925.4	
301.2	5104.2	
301.4	3307.5	
301.61	3524.6	
301.82	5370.5	
302.03	5377.3	
302.24	3949.2	
302.45	3177.8	
302.66	5270.1	
302.87	5679.7	
303.08	3291.1	
303.29	4413.4	
303.49	4861.2	
303.7	5048.9	
303.91	2918.4	
304.12	4185.4	
304.33	4583.4	
304.54	5140.4	
304.75	3336.8	
304.96	3172.3	
305.16	5277.6	
305.37	5927.5	
305.58	2923.1	
305.79	3030.3	
306	5292.6	
306.21	4530.1	
306.42	3285.6	
306.63	4898.7	
306.83	4897.4	
307.04	5522	
307.25	3609.9	
307.46	3560.1	
307.67	4414.7	
307.88	5352.7	
308.09	3217.4	
308.29	3323.2	
308.5	5120.6	
308.71	5511.8	
308.92	3428.3	
309.13	3165.5	
309.34	4956.8	
309.55	5027.8	
309.75	4091.8	
309.96	3637.2	
310.17	5366.4	
310.38	4781.3	
310.59	3896.6	
310.8	3091.8	
311.01	4839.4	
311.21	4916.5	
311.42	3128.6	
311.63	3290.4	
311.84	4874.2	
312.05	5166.3	
312.26	3596.2	
312.46	3962.8	
312.67	4902.8	
312.88	4604.5	
313.09	3190.7	
313.3	3088.3	
313.51	5704.3	
313.71	6027.9	
313.92	3173.7	
314.13	3379.8	
314.34	5246.9	
314.55	4921.3	
314.76	4012	
314.96	3597.6	
315.17	5156.1	
315.38	5360.2	
315.59	3207.8	
315.8	3083.6	
316.01	5804.6	
316.21	5778	
316.42	3071.3	
316.63	3463.8	
316.84	4889.9	
317.05	5587.5	
317.26	3750.5	
317.46	3353.9	
317.67	4947.9	
317.88	5388.2	
318.09	3979.2	
318.3	2976.4	
318.5	4844.8	
318.71	5270.8	
318.92	5009.3	
319.13	3712.3	
319.34	5421	
319.54	5558.9	
319.75	2997.5	
319.96	2875.3	
320.17	5314.5	
320.38	5532.9	
320.58	2897.2	
320.79	3482.2	
321	5536.3	
321.21	5667.4	
321.42	3500	
321.62	2874	
321.83	4737	
322.04	5083.1	
322.25	3365.5	
322.46	3203.7	
322.66	5147.9	
322.87	5315.2	
323.08	3890.5	
323.29	3087	
323.5	5994.4	
323.7	4612.7	
323.91	4258.4	
324.12	3831.1	
324.33	5096.7	
324.53	5300.1	
324.74	3672	
324.95	3855	
325.16	4542.4	
325.37	4839.4	
325.57	3179.1	
325.78	3245.3	
325.99	5102.2	
326.2	4562.2	
326.4	4414.1	
326.61	2990	
326.82	4976.6	
327.03	5160.2	
327.24	4473.4	
327.44	4165.6	
327.65	5275.6	
327.86	4328.7	
328.07	3760.8	
328.27	3112.2	
328.48	5634.6	
328.69	4678.9	
328.9	4500.1	
329.1	3452.9	
329.31	4945.2	
329.52	5729.5	
329.73	3194.8	
329.93	3553.2	
330.14	5089.9	
330.35	5220.3	
330.56	5126.7	
330.76	3839.3	
330.97	4864.6	
331.18	5280.3	
331.39	3581.9	
331.59	2884.9	
331.8	5519.3	
332.01	5632.6	
332.22	3293.8	
332.42	3703.4	
332.63	5168.4	
332.84	4807.3	
333.05	3536.8	
333.25	3226.2	
333.46	4804.5	
333.67	5035.3	
333.88	3324.5	
334.08	3621.5	
334.29	6623.8	
334.5	5577.3	
334.7	3065.8	
334.91	4367	
335.12	4672.8	
335.33	5418.2	
335.53	3514.3	
335.74	5085.1	
335.95	4887.1	
336.16	4670.1	
336.36	3489.7	
336.57	4005.1	
336.78	4610.7	
336.98	5489.9	
337.19	4268	
337.4	3509.5	
337.61	5991.7	
337.81	4642.1	
338.02	3269.9	
338.23	4160.8	
338.43	5682.4	
338.64	4776.5	
338.85	3247.4	
339.05	4163.5	
339.26	5763.7	
339.47	4539	
339.68	3170.9	
339.88	4624.3	
340.09	5216.9	
340.3	5481.7	
340.5	3724.6	
340.71	2889	
340.92	4615.4	
341.13	5625.1	
341.33	3093.1	
341.54	3678.2	
341.75	5276.3	
341.95	4906.3	
342.16	3557.3	
342.37	3876.8	
342.57	4637.3	
342.78	4966.3	
342.99	3919.8	
343.19	2900.6	
343.4	5334.3	
343.61	5225.7	
343.81	3369.6	
344.02	3183.9	
344.23	5378	
344.43	5715.2	
344.64	3938.9	
344.85	3825.6	
345.06	5295.4	
345.26	5520.6	
345.47	3710.9	
345.68	4252.3	
345.88	4566.3	
346.09	5412.8	
346.3	3740.3	
346.5	2914.9	
346.71	5048.9	
346.92	4747.2	
347.12	2953.9	
347.33	3678.2	
347.54	5515.2	
347.74	5846.3	
347.95	3680.2	
348.16	2740.9	
348.36	4885.1	
348.57	4718.5	
348.78	3677.5	
348.98	3892.5	
349.19	5060.5	
349.39	4569.7	
349.6	3005.1	
349.81	3291.8	
350.01	5292	
350.22	4796.3	
350.43	3562.8	
350.63	4179.2	
350.84	5099.4	
351.05	4839.4	
351.25	3226.2	
351.46	2993.4	
351.67	5543.2	
351.87	4790.9	
352.08	3441.3	
352.29	3897.3	
352.49	5406	
352.7	5553.4	
352.9	3166.2	
353.11	3936.9	
353.32	6004	
353.52	4891.9	
353.73	3116.3	
353.94	3941.7	
354.14	5362.9	
354.35	5137	
354.55	3226.9	
354.76	3551.9	
354.97	5343.2	
355.17	5089.2	
355.38	3056.9	
355.59	4186	
355.79	4816.1	
356	5163.6	
356.2	3555.3	
356.41	3205.1	
356.62	4592.9	
356.82	5053.7	
357.03	3855	
357.24	3519.1	
357.44	4915.8	
357.65	4969.1	
357.85	4569.7	
358.06	3687.7	
358.27	4644.1	
358.47	4835.9	
358.68	3125.2	
358.88	3827.7	
359.09	5372.5	
359.3	5627.8	
359.5	4455	
359.71	3962.1	
359.91	6096.1	
360.12	5474.2	
360.33	3837.9	
360.53	4334.2	
360.74	4886.5	
360.94	4924.7	
361.15	3996.3	
361.36	3382.6	
361.56	5606	
361.77	5168.4	
361.97	4472.1	
362.18	3699.3	
362.38	5659.9	
362.59	4848.9	
362.8	3405.1	
363	3230.3	
363.21	4622.3	
363.41	5240.1	
363.62	3844	
363.83	4689.2	
364.03	5352	
364.24	6137.1	
364.44	4812.7	
364.65	4761.5	
364.85	5144.5	
365.06	4835.3	
365.27	3501.3	
365.47	3570.3	
365.68	6024.4	
365.88	5113.8	
366.09	3920.5	
366.29	3616.7	
366.5	5364.3	
366.71	5673.6	
366.91	4777.2	
367.12	4115.1	
367.32	6225.8	
367.53	5589.6	
367.73	4090.5	
367.94	4806.6	
368.14	5610.1	
368.35	6304.3	
368.56	3968.3	
368.76	3472.7	
368.97	5685.8	
369.17	7071.6	
369.38	3579.8	
369.58	3839.3	
369.79	4848.9	
369.99	6004.6	
370.2	4645.5	
370.4	3844.7	
370.61	5441.5	
370.82	6465.4	
371.02	3846.1	
371.23	3225.6	
371.43	4805.2	
371.64	5958.2	
371.84	3877.5	
372.05	4870.8	
372.25	7133.1	
372.46	5727.5	
372.66	3949.8	
372.87	3839.3	
373.07	5766.4	
373.28	7206.1	
373.48	4747.9	
373.69	4536.9	
373.9	5347.9	
374.1	5360.2	
374.31	4767	
374.51	4362.2	
374.72	6139.1	
374.92	5135.6	
375.13	4919.9	
375.33	4222.9	
375.54	5791	
375.74	5298.8	
375.95	4384.7	
376.15	5420.3	
376.36	5867.4	
376.56	5741.8	
376.77	4446.8	
376.97	4790.9	
377.18	6739.9	
377.38	6005.3	
377.59	5139.7	
377.79	4052.9	
378	5861.3	
378.2	6100.2	
378.41	4154	
378.61	3969	
378.82	6221.7	
379.02	5492.7	
379.23	4280.3	
379.43	5246.9	
379.64	6304.3	
379.84	5994.4	
380.05	4075.5	
380.25	4060.4	
380.46	6079.7	
380.66	5622.4	
380.87	5223	
381.07	5565.7	
381.28	6637.5	
381.48	6047.7	
381.69	4102.8	
381.89	4176.5	
382.1	5132.2	
382.3	6107.7	
382.51	5083.1	
382.71	5816.9	
382.91	5999.2	
383.12	6464.1	
383.32	4355.3	
383.53	4526	
383.73	5870.2	
383.94	5666.7	
384.14	4524	
384.35	3715.7	
384.55	5637.4	
384.76	6042.2	
384.96	4378.6	
385.17	4593.6	
385.37	6001.2	
385.58	5309	
385.78	4595.6	
385.98	3634.5	
386.19	5455.8	
386.39	5872.2	
386.6	4160.8	
386.8	4358.1	
387.01	5954.8	
387.21	6015.6	
387.42	4783.4	
387.62	5285.8	
387.83	5418.2	
388.03	5855.8	
388.23	4480.3	
388.44	5156.1	
388.64	5113.8	
388.85	5362.3	
389.05	4815.5	
389.26	5381.4	
389.46	6997.9	
389.67	6476.4	
389.87	4844.8	
390.07	4840.7	
390.28	5763.7	
390.48	5435.3	
390.69	4145.1	
390.89	4416.1	
391.1	5606	
391.3	6395.8	
391.5	5405.3	
391.71	5947.3	
391.91	6300.9	
392.12	7002	
392.32	5524.7	
392.53	4838	
392.73	5665.4	
392.93	5757.5	
393.14	4583.4	
393.34	5242.8	
393.55	6119.3	
393.75	5790.3	
393.95	4504.8	
394.16	4429.1	
394.36	5609.4	
394.57	6086.6	
394.77	4101.4	
394.98	4461.8	
395.18	5594.4	
395.38	5763.7	
395.59	5355.4	
395.79	4410	
396	5812.1	
396.2	6184.9	
396.4	5169.1	
396.61	5122	
396.81	6375.3	
397.02	5734.3	
397.22	5437.4	
397.42	5492.7	
397.63	6389	
397.83	5720.7	
398.04	4395.6	
398.24	4939	
398.44	6200.6	
398.65	5428.5	
398.85	4358.1	
399.05	4364.2	
399.26	5721.3	
399.46	7247.8	
399.67	4826.4	
399.87	4571.1	
400.07	6092.7	
400.28	6499.6	
400.48	4649.6	
400.69	5578	
400.89	6684.6	
401.09	6999.3	
401.3	4554	
401.5	5619.6	
401.7	7245	
401.91	7476.5	
402.11	5014.8	
402.32	5128.8	
402.52	6748.1	
402.72	6521.4	
402.93	5225.7	
403.13	4123.9	
403.33	7153.6	
403.54	5907	
403.74	4742.4	
403.94	5487.9	
404.15	6033.3	
404.35	7097.6	
404.56	4622.9	
404.76	6289.3	
404.96	6588.3	
405.17	6273.6	
405.37	5796.4	
405.57	5223.7	
405.78	6634.1	
405.98	6202.6	
406.18	4805.9	
406.39	5575.3	
406.59	6560.3	
406.79	6094.8	
407	4492.6	
407.2	4572.4	
407.4	6533	
407.61	6720.1	
407.81	4778.6	
408.01	6637.5	
408.22	5870.8	
408.42	7529	
408.62	5958.9	
408.83	5556.1	
409.03	6562.4	
409.23	6453.8	
409.44	5634.6	
409.64	5853.1	
409.84	7475.1	
410.05	7445.7	
410.25	5793	
410.45	5566.4	
410.66	7108.5	
410.86	9110.7	
411.06	6142.5	
411.27	5827.2	
411.47	9126.4	
411.67	7205.4	
411.88	6214.2	
412.08	6445	
412.28	7872.4	
412.49	8286.8	
412.69	6095.4	
412.89	6154.1	
413.09	8144.8	
413.3	8066.3	
413.5	6259.3	
413.7	5942.5	
413.91	7494.9	
414.11	8189.1	
414.31	6187.6	
414.52	6543.3	
414.72	8008.2	
414.92	7871.7	
415.12	6127.5	
415.33	6627.9	
415.53	8277.9	
415.73	8444.5	
415.94	6896.2	
416.14	6322.1	
416.34	7343.3	
416.55	7096.2	
416.75	7454.6	
416.95	7006.8	
417.15	8378.9	
417.36	8759.2	
417.56	7729.7	
417.76	6941.2	
417.97	8698.4	
418.17	8421.2	
418.37	6630.6	
418.57	6612.9	
418.78	8333.9	
418.98	7929.7	
419.18	7391.8	
419.38	7174	
419.59	7832.8	
419.79	7503.8	
419.99	6359.6	
420.2	6782.9	
420.4	8404.2	
420.6	8474.5	
420.8	6449.7	
421.01	6336.4	
421.21	8299.1	
421.41	8322.9	
421.61	6708.5	
421.82	6515.3	
422.02	7815	
422.22	8497	
422.42	7131.7	
422.63	6626.5	
422.83	7945.4	
423.03	8784.4	
423.23	6838.9	
423.44	5907.7	
423.64	7914.7	
423.84	7656.7	
424.04	6210.8	
424.25	5996.5	
424.45	8596.7	
424.65	8525	
424.85	5758.9	
425.06	6311.8	
425.26	8630.1	
425.46	7712.7	
425.66	6738.5	
425.87	6488.6	
426.07	8373.5	
426.27	8216.5	
426.47	6498.2	
426.67	5887.9	
426.88	8529.1	
427.08	8153.6	
427.28	6705.7	
427.48	5940.5	
427.69	7231.4	
427.89	7685.3	
428.09	6683.2	
428.29	5942.5	
428.5	8309.3	
428.7	7936.6	
428.9	5867.4	
429.1	6267.5	
429.3	7881.3	
429.51	8200.1	
429.71	6139.8	
429.91	6877.1	
430.11	8255.4	
430.31	8468.4	
430.52	6445.6	
430.72	6719.4	
430.92	8721.6	
431.12	8131.8	
431.32	6164.4	
431.53	6500.9	
431.73	7187.7	
431.93	8704.5	
432.13	6085.2	
432.33	6023.8	
432.54	7774.1	
432.74	8044.4	
432.94	6016.2	
433.14	6956.9	
433.34	8318.2	
433.55	7882.6	
433.75	6823.8	
433.95	8440.4	
434.15	8100.4	
434.35	7878.5	
434.56	6247	
434.76	5862.7	
434.96	8019.2	
435.16	8413.1	
435.36	6094.1	
435.56	7160.4	
435.77	7811	
435.97	7948.8	
436.17	7720.2	
436.37	7140.6	
436.57	7796.6	
436.78	7854	
436.98	8621.9	
437.18	7557.7	
437.38	8473.1	
437.58	7918.1	
437.78	7653.3	
437.99	6417.7	
438.19	8364.6	
438.39	9033.6	
438.59	6404.7	
438.79	5855.1	
438.99	8767.4	
439.2	7804.1	
439.4	5935.7	
439.6	6037.4	
439.8	8241.7	
440	9221.3	
440.2	7155.6	
440.4	7313.3	
440.61	8735.3	
440.81	9185.1	
441.01	6556.2	
441.21	7365.2	
441.41	9095	
441.61	8640.4	
441.81	7521.5	
442.02	8390.5	
442.22	9551.7	
442.42	8716.8	
442.62	6571.2	
442.82	6640.2	
443.02	9181.7	
443.22	8412.4	
443.43	7105.1	
443.63	6694.1	
443.83	8324.3	
444.03	8289.5	
444.23	7841	
444.43	7320.8	
444.63	8671.8	
444.83	9619.3	
445.04	6806.1	
445.24	7933.8	
445.44	8863.6	
445.64	8891.6	
445.84	7323.5	
446.04	7364.5	
446.24	8125.7	
446.44	9054.8	
446.65	6485.9	
446.85	6870.3	
447.05	8147.5	
447.25	8894.3	
447.45	6978.8	
447.65	6466.8	
447.85	8505.2	
448.05	8110.6	
448.25	7436.2	
448.46	7179.5	
448.66	8510.7	
448.86	8091.5	
449.06	6354.2	
449.26	7329.7	
449.46	8845.9	
449.66	7989.1	
449.86	7006.8	
450.06	6945.3	
450.26	8187.1	
450.47	8658.1	
450.67	7168.6	
450.87	7489.4	
451.07	8774.9	
451.27	8598.7	
451.47	6541.2	
451.67	7120.1	
451.87	8320.9	
452.07	9243.8	
452.27	6881.2	
452.47	6796.5	
452.67	8541.4	
452.88	8869.1	
453.08	6228.6	
453.28	7902.4	
453.48	9559.2	
453.68	8389.8	
453.88	6736.5	
454.08	6941.2	
454.28	8896.4	
454.48	8633.6	
454.68	7430	
454.88	7827.3	
455.08	8964	
455.28	8862.9	
455.48	6640.9	
455.68	7363.1	
455.89	9412.5	
456.09	9163.3	
456.29	7021.1	
456.49	7108.5	
456.69	9431.6	
456.89	8672.5	
457.09	7659.4	
457.29	7920.9	
457.49	9125.1	
457.69	9144.2	
457.89	7606.8	
458.09	6945.3	
458.29	8943.5	
458.49	9655.5	
458.69	7921.5	
458.89	7414.3	
459.09	9838.4	
459.29	9934.7	
459.49	7462.1	
459.69	8180.3	
459.9	9301.9	
460.1	8982.4	
460.3	7203.4	
460.5	7127.6	
460.7	9312.1	
460.9	9027.4	
461.1	6941.2	
461.3	8190.5	
461.5	10114	
461.7	9665	
461.9	7549.5	
462.1	7759.1	
462.3	9353.1	
462.5	9846.6	
462.7	7469.6	
462.9	7626	
463.1	10651	
463.3	10537	
463.5	7875.8	
463.7	8907.3	
463.9	9634.3	
464.1	10015	
464.3	8174.1	
464.5	8303.1	
464.7	10230	
464.9	10032	
465.1	9441.1	
465.3	8699.1	
465.5	10493	
465.7	10485	
465.9	8771.5	
466.1	8542.1	
466.3	10485	
466.5	10135	
466.7	9551	
466.9	8471.8	
467.1	10286	
467.3	11060	
467.5	9486.9	
467.7	8591.9	
467.9	11359	
468.1	11997	
468.3	9152.4	
468.5	9629.5	
468.7	10310	
468.9	10268	
469.1	8836.3	
469.3	9470.5	
469.5	12081	
469.7	10088	
469.9	9148.3	
470.1	8831.5	
470.3	10475	
470.5	10370	
470.7	9756.5	
470.9	8644.5	
471.1	10117	
471.3	10443	
471.5	8603.5	
471.69	10186	
471.89	10013	
472.09	9497.8	
472.29	9284.8	
472.49	9471.9	
472.69	9813.9	
472.89	10358	
473.09	8461.5	
473.29	8400.1	
473.49	9843.9	
473.69	9885.5	
473.89	9296.4	
474.09	8629.5	
474.29	11084	
474.49	10764	
474.69	9295.7	
474.89	8733.2	
475.09	9993.4	
475.29	9946.3	
475.49	8148.2	
475.69	8436.9	
475.88	11318	
476.08	10288	
476.28	8017.8	
476.48	8370	
476.68	10449	
476.88	10312	
477.08	8286.1	
477.28	8551	
477.48	9854.8	
477.68	10402	
477.88	8142.7	
478.08	8406.2	
478.28	10787	
478.48	9981.8	
478.67	8452.6	
478.87	7855.3	
479.07	10720	
479.27	10049	
479.47	8529.8	
479.67	8655.4	
479.87	10362	
480.07	10766	
480.27	7983.7	
480.47	9368.8	
480.67	10082	
480.87	10729	
481.06	8262.2	
481.26	8904.6	
481.46	10157	
481.66	10017	
481.86	8629.5	
482.06	9528.5	
482.26	9823.4	
482.46	10561	
482.66	8533.2	
482.86	8012.3	
483.05	10169	
483.25	9626.8	
483.45	10693	
483.65	8628.1	
483.85	9688.9	
484.05	10095	
484.25	9000.1	
484.45	9438.4	
484.65	10844	
484.84	10854	
485.04	8586.5	
485.24	8617.2	
485.44	11097	
485.64	9658.2	
485.84	8112.7	
486.04	9250	
486.24	9964.7	
486.44	10323	
486.63	7998.7	
486.83	8813.1	
487.03	10016	
487.23	10259	
487.43	8088.8	
487.63	10247	
487.83	10253	
488.02	11057	
488.22	9054.1	
488.42	9492.3	
488.62	10920	
488.82	10018	
489.02	8654.7	
489.22	8822	
489.41	10870	
489.61	10663	
489.81	8549.6	
490.01	8600.8	
490.21	10792	
490.41	11449	
490.61	8594.6	
490.8	8635.6	
491	10532	
491.2	9762.7	
491.4	9017.2	
491.6	8231.5	
491.8	10262	
491.99	10331	
492.19	8148.2	
492.39	8449.2	
492.59	10835	
492.79	10923	
492.99	9344.2	
493.18	8580.3	
493.38	11073	
493.58	11760	
493.78	9322.4	
493.98	8957.8	
494.18	10808	
494.37	10474	
494.57	9549	
494.77	9378.3	
494.97	11151	
495.17	11415	
495.37	9199.5	
495.56	9611.1	
495.76	11745	
495.96	11367	
496.16	10339	
496.36	9467.1	
496.55	11628	
496.75	11146	
496.95	9718.3	
497.15	9665	
497.35	11538	
497.54	11517	
497.74	9454.8	
497.94	11063	
498.14	12179	
498.34	12025	
498.53	9318.3	
498.73	9834.3	
498.93	11109	
499.13	11566	
499.33	9891.7	
499.52	10220	
499.72	11611	
499.92	11778	
500.12	9713.5	
500.32	9873.9	
500.51	11938	
500.71	11675	
500.91	10494	
501.11	10129	
501.31	11724	
501.5	12068	
501.7	10731	
501.9	9847.3	
502.1	11560	
502.29	11915	
502.49	10271	
502.69	10578	
502.89	11759	
503.09	11794	
503.28	9204.3	
503.48	9346.2	
503.68	11037	
503.88	11034	
504.07	10178	
504.27	9858.2	
504.47	11329	
504.67	11343	
504.86	10122	
505.06	9797.5	
505.26	11141	
505.46	12366	
505.65	9596.8	
505.85	9798.2	
506.05	10933	
506.25	11202	
506.44	9036.3	
506.64	9741.5	
506.84	10684	
507.04	11464	
507.23	9179	
507.43	9704	
507.63	12320	
507.83	10871	
508.02	9501.2	
508.22	9249.3	
508.42	12570	
508.62	10613	
508.81	9583.1	
509.01	9853.5	
509.21	10527	
509.4	10719	
509.6	9540.1	
509.8	9247.9	
510	10832	
510.19	11934	
510.39	9069.1	
510.59	9243.2	
510.79	10660	
510.98	11858	
511.18	9199.5	
511.38	9299.1	
511.57	11327	
511.77	11080	
511.97	9802.3	
512.17	8954.4	
512.36	11301	
512.56	11144	
512.76	8951	
512.95	8737.3	
513.15	11355	
513.35	10217	
513.55	9835.7	
513.74	9095.7	
513.94	11337	
514.14	10761	
514.33	9906	
514.53	9678	
514.73	10749	
514.92	10899	
515.12	9166.7	
515.32	8994	
515.51	10991	
515.71	11486	
515.91	10741	
516.11	9181.7	
516.3	12525	
516.5	10709	
516.7	9579	
516.89	10052	
517.09	10685	
517.29	10778	
517.48	9846	
517.68	9276.6	
517.88	10413	
518.07	11098	
518.27	9760.6	
518.47	8944.8	
518.66	11469	
518.86	10312	
519.06	8718.9	
519.25	9216.5	
519.45	10646	
519.65	11906	
519.84	9757.2	
520.04	10260	
520.24	12314	
520.43	11159	
520.63	9357.2	
520.83	9168.8	
521.02	10423	
521.22	10951	
521.42	9484.1	
521.61	10055	
521.81	10507	
522.01	10867	
522.2	9534	
522.4	9311.4	
522.6	11262	
522.79	10183	
522.99	9407.7	
523.18	8916.9	
523.38	11087	
523.58	11181	
523.77	10574	
523.97	8933.2	
524.17	12746	
524.36	12190	
524.56	10115	
524.76	9838.4	
524.95	11292	
525.15	10860	
525.34	9798.2	
525.54	9905.3	
525.74	11607	
525.93	10834	
526.13	10778	
526.33	9826.8	
526.52	11965	
526.72	11557	
526.91	10915	
527.11	10356	
527.31	12035	
527.5	12383	
527.7	10335	
527.89	9415.9	
528.09	11340	
528.29	11761	
528.48	10735	
528.68	10244	
528.87	12096	
529.07	12106	
529.27	10268	
529.46	9788.6	
529.66	11692	
529.85	11987	
530.05	9656.9	
530.25	10391	
530.44	12953	
530.64	11485	
530.83	9943.6	
531.03	10197	
531.23	12048	
531.42	11895	
531.62	11049	
531.81	10300	
532.01	12430	
532.21	12706	
532.4	10200	
532.6	10612	
532.79	13038	
532.99	12352	
533.18	10597	
533.38	11463	
533.58	12116	
533.77	12603	
533.97	10600	
534.16	11324	
534.36	12865	
534.55	12243	
534.75	11565	
534.95	10693	
535.14	12957	
535.34	12162	
535.53	10311	
535.73	11977	
535.92	13247	
536.12	12114	
536.31	10327	
536.51	11344	
536.71	12483	
536.9	12048	
537.1	10512	
537.29	10731	
537.49	12916	
537.68	11955	
537.88	11056	
538.07	10206	
538.27	12183	
538.46	13123	
538.66	10230	
538.86	10729	
539.05	12308	
539.25	12678	
539.44	11047	
539.64	10623	
539.83	12103	
540.03	13010	
540.22	10390	
540.42	10387	
540.61	12229	
540.81	12325	
541	10809	
541.2	11381	
541.39	11862	
541.59	12184	
541.78	11179	
541.98	10349	
542.18	11580	
542.37	11555	
542.57	10636	
542.76	10974	
542.96	11535	
543.15	11989	
543.35	10519	
543.54	9868.5	
543.74	12266	
543.93	11952	
544.13	10428	
544.32	11359	
544.52	12079	
544.71	11484	
544.91	9630.9	
545.1	10675	
545.3	11576	
545.49	11955	
545.69	9610.4	
545.88	10149	
546.08	12842	
546.27	12413	
546.47	10462	
546.66	9839.1	
546.86	12182	
547.05	12732	
547.24	10116	
547.44	9983.2	
547.63	11228	
547.83	12194	
548.02	10425	
548.22	10335	
548.41	11178	
548.61	12103	
548.8	9792	
549	9807.7	
549.19	11639	
549.39	11905	
549.58	9351.7	
549.78	10006	
549.97	11824	
550.17	11377	
550.36	10685	
550.55	11573	
550.75	11395	
550.94	12183	
551.14	9586.5	
551.33	9850	
551.53	10966	
551.72	11707	
551.92	9912.9	
552.11	9744.2	
552.31	11791	
552.5	11733	
552.69	11132	
552.89	9356.5	
553.08	11641	
553.28	11310	
553.47	9670.5	
553.67	10688	
553.86	12147	
554.06	10659	
554.25	8977.6	
554.44	9499.8	
554.64	12740	
554.83	12293	
555.03	9435.7	
555.22	9725.1	
555.42	11693	
555.61	11389	
555.8	9594.7	
556	9830.2	
556.19	10684	
556.39	11708	
556.58	9655.5	
556.78	9680.7	
556.97	11298	
557.16	11110	
557.36	10670	
557.55	9385.2	
557.75	10386	
557.94	11944	
558.13	9341.5	
558.33	9167.4	
558.52	11887	
558.72	10787	
558.91	9260.9	
559.1	9467.8	
559.3	10488	
559.49	10350	
559.69	8908	
559.88	9645.3	
560.07	11126	
560.27	11582	
560.46	9830.9	
560.66	9996.8	
560.85	11126	
561.04	10229	
561.24	9165.3	
561.43	9180.4	
561.63	10480	
561.82	10724	
562.01	10336	
562.21	9541.5	
562.4	11184	
562.59	12076	
562.79	9454.1	
562.98	9247.9	
563.18	11066	
563.37	12393	
563.56	9964.7	
563.76	9188.6	
563.95	10664	
564.14	10604	
564.34	9459.6	
564.53	9223.4	
564.73	11060	
564.92	11450	
565.11	9675.3	
565.31	9187.9	
565.5	11697	
565.69	10769	
565.89	9209	
566.08	9558.6	
566.27	11523	
566.47	11877	
566.66	10097	
566.85	9003.6	
567.05	11218	
567.24	10670	
567.44	9229.5	
567.63	10429	
567.82	11319	
568.02	11118	
568.21	9326.4	
568.4	9531.2	
568.6	11113	
568.79	11041	
568.98	9129.8	
569.18	9377	
569.37	11102	
569.56	12766	
569.76	9568.8	
569.95	10337	
570.14	11385	
570.34	11261	
570.53	9197.4	
570.72	9195.4	
570.91	11850	
571.11	10985	
571.3	9468.4	
571.49	10330	
571.69	11182	
571.88	10764	
572.07	9977	
572.27	10050	
572.46	10633	
572.65	11646	
572.85	9354.4	
573.04	9626.8	
573.23	11816	
573.43	11372	
573.62	9277.3	
573.81	9833	
574	11241	
574.2	11069	
574.39	9624.8	
574.58	9709.4	
574.78	11977	
574.97	11372	
575.16	9979.1	
575.36	10228	
575.55	11852	
575.74	11882	
575.93	9312.8	
576.13	10265	
576.32	11239	
576.51	11832	
576.71	9672.6	
576.9	10872	
577.09	11955	
577.28	11595	
577.48	10124	
577.67	9289.6	
577.86	11276	
578.05	11613	
578.25	9848.7	
578.44	9929.2	
578.63	11370	
578.83	12568	
579.02	9377	
579.21	10692	
579.4	11518	
579.6	11410	
579.79	9986.6	
579.98	11973	
580.17	11929	
580.37	11858	
580.56	9636.4	
580.75	10195	
580.94	12321	
581.14	12291	
581.33	10667	
581.52	9712.8	
581.71	11725	
581.91	12356	
582.1	9481.4	
582.29	9906.7	
582.48	11544	
582.68	11404	
582.87	10376	
583.06	10091	
583.25	11798	
583.45	11574	
583.64	10643	
583.83	11216	
584.02	11309	
584.21	11823	
584.41	10668	
584.6	10078	
584.79	11540	
584.98	12177	
585.18	9480.7	
585.37	9478	
585.56	11088	
585.75	11929	
585.94	9715.6	
586.14	10297	
586.33	12225	
586.52	11560	
586.71	10014	
586.91	9830.2	
587.1	10893	
587.29	11682	
587.48	9639.1	
587.67	9629.5	
587.87	11518	
588.06	11551	
588.25	10746	
588.44	10028	
588.63	11209	
588.83	11665	
589.02	9529.2	
589.21	9394	
589.4	10822	
589.59	10746	
589.78	8534.6	
589.98	8703.9	
590.17	10124	
590.36	10590	
590.55	8021.9	
590.74	8771.5	
590.94	11561	
591.13	10420	
591.32	8627.4	
591.51	8150.2	
591.7	10808	
591.89	10485	
592.09	8480	
592.28	8789.2	
592.47	9810.5	
592.66	11439	
592.85	8323.6	
593.05	8504.5	
593.24	10299	
593.43	10955	
593.62	8682.7	
593.81	9140.1	
594	10373	
594.19	10610	
594.39	8546.9	
594.58	8568.7	
594.77	10716	
594.96	11153	
595.15	8368.7	
595.34	8988.5	
595.54	10536	
595.73	9730.6	
595.92	7774.1	
596.11	8767.4	
596.3	11111	
596.49	9871.9	
596.68	8637.6	
596.88	9101.2	
597.07	10813	
597.26	9714.9	
597.45	8272.4	
597.64	9366	
597.83	10052	
598.02	10503	
598.22	8368	
598.41	8896.4	
598.6	10416	
598.79	9880.8	
598.98	8413.7	
599.17	9155.1	
599.36	10402	
599.55	11398	
599.74	10095	
599.94	10021	
600.13	10776	
600.32	9757.2	
600.51	8221.2	
600.7	8354.3	
600.89	11285	
601.08	11440	
601.27	8166.6	
601.47	8955.8	
601.66	10687	
601.85	11318	
602.04	8746.2	
602.23	8856.1	
602.42	9963.4	
602.61	10507	
602.8	8551	
602.99	8292.2	
603.18	10177	
603.37	10519	
603.57	8948.9	
603.76	9349	
603.95	11077	
604.14	10727	
604.33	8480	
604.52	8759.8	
604.71	10378	
604.9	9996.1	
605.09	9508	
605.28	9007.6	
605.47	10927	
605.66	10598	
605.86	8914.8	
606.05	8471.1	
606.24	10810	
606.43	9538.8	
606.62	8675.2	
606.81	9290.3	
607	10692	
607.19	10127	
607.38	8212.4	
607.57	8411	
607.76	9904.7	
607.95	9381.7	
608.14	8812.4	
608.33	9245.9	
608.52	9896.5	
608.72	10679	
608.91	8084.7	
609.1	8041.7	
609.29	9869.8	
609.48	9554.5	
609.67	8801.5	
609.86	8008.9	
610.05	9605.7	
610.24	9960.6	
610.43	7864.2	
610.62	7537.9	
610.81	10846	
611	10708	
611.19	7933.1	
611.38	8624	
611.57	10118	
611.76	11190	
611.95	7903.1	
612.14	7707.2	
612.33	9919.7	
612.52	9548.3	
612.71	8230.1	
612.9	7613.7	
613.09	9214.5	
613.28	11234	
613.47	8240.3	
613.66	8862.2	
613.85	10066	
614.04	9638.4	
614.24	8062.9	
614.43	7403.4	
614.62	10118	
614.81	10092	
615	8538.7	
615.19	8634.2	
615.38	9500.5	
615.57	9843.2	
615.76	8453.3	
615.95	9342.8	
616.14	10163	
616.33	9854.1	
616.52	8635.6	
616.71	8875.2	
616.9	10154	
617.09	9983.2	
617.28	8145.5	
617.47	9183.8	
617.66	9401.5	
617.85	9395.4	
618.04	9076.6	
618.22	8492.9	
618.41	9712.2	
618.6	10585	
618.79	8551	
618.98	8254	
619.17	10800	
619.36	9374.2	
619.55	8402.8	
619.74	8449.9	
619.93	10270	
620.12	9738.1	
620.31	9017.9	
620.5	9086.2	
620.69	10771	
620.88	11118	
621.07	9838.4	
621.26	8834.3	
621.45	10463	
621.64	10471	
621.83	8923	
622.02	8273.8	
622.21	10421	
622.4	10318	
622.59	9503.3	
622.78	9275.3	
622.97	10009	
623.16	10785	
623.35	8983.8	
623.54	8174.1	
623.72	10174	
623.91	10237	
624.1	9253.4	
624.29	8130.4	
624.48	11243	
624.67	10568	
624.86	9028.8	
625.05	8168.7	
625.24	11206	
625.43	9906.7	
625.62	10564	
625.81	8552.3	
626	10824	
626.19	10196	
626.38	9201.5	
626.56	8612.4	
626.75	9989.3	
626.94	10707	
627.13	9166.7	
627.32	8049.2	
627.51	10606	
627.7	11729	
627.89	8085.4	
628.08	9111.4	
628.27	9788.6	
628.46	9975	
628.65	8512	
628.83	8088.8	
629.02	10499	
629.21	9880.1	
629.4	8746.2	
629.59	9002.2	
629.78	9906.7	
629.97	10752	
630.16	8911.4	
630.35	8534.6	
630.54	11113	
630.72	10864	
630.91	8590.5	
631.1	9047.9	
631.29	10346	
631.48	10490	
631.67	9114.8	
631.86	8635.6	
632.05	10167	
632.24	10152	
632.42	8329.8	
632.61	8886.8	
632.8	10234	
632.99	9843.2	
633.18	8918.2	
633.37	9131.2	
633.56	10410	
633.75	10231	
633.93	8897.7	
634.12	8616.5	
634.31	11064	
634.5	10828	
634.69	8605.6	
634.88	9024.7	
635.07	10235	
635.25	10690	
635.44	9333.3	
635.63	9605.7	
635.82	10081	
636.01	9538.8	
636.2	9330.5	
636.39	8884.1	
636.57	11078	
636.76	10656	
636.95	8398.7	
637.14	9605	
637.33	10454	
637.52	11163	
637.7	8251.3	
637.89	9041.8	
638.08	10101	
638.27	11247	
638.46	9019.3	
638.65	9435	
638.83	11186	
639.02	9897.8	
639.21	9023.4	
639.4	9425.4	
639.59	10256	
639.78	9855.5	
639.96	8262.9	
640.15	8284.7	
640.34	10155	
640.53	10172	
640.72	8120.9	
640.91	8318.8	
641.09	9570.8	
641.28	10632	
641.47	8275.8	
641.66	9050	
641.85	10167	
642.03	10337	
642.22	8841.8	
642.41	8417.8	
642.6	9623.4	
642.79	9098.4	
642.97	8097.7	
643.16	8760.5	
643.35	9527.8	
643.54	9351	
643.73	7962.5	
643.91	8732.5	
644.1	9321.7	
644.29	9763.3	
644.48	8032.1	
644.67	8033.5	
644.85	9256.1	
645.04	9662.3	
645.23	7581.6	
645.42	7854.6	
645.6	9131.2	
645.79	10142	
645.98	7793.2	
646.17	6918.7	
646.36	8771.5	
646.54	9290.3	
646.73	8331.1	
646.92	7307.8	
647.11	8827.4	
647.29	9739.5	
647.48	7466.9	
647.67	7199.3	
647.86	9984.5	
648.05	10045	
648.23	7645.8	
648.42	8751.7	
648.61	9491	
648.8	9199.5	
648.98	7311.2	
649.17	7595.9	
649.36	8892.3	
649.55	8520.2	
649.73	7380.2	
649.92	8067.6	
650.11	8795.3	
650.3	9078.6	
650.48	7418.4	
650.67	7110.5	
650.86	9230.2	
651.05	8256.7	
651.23	7431.4	
651.42	7296.2	
651.61	8875.2	
651.79	8794.7	
651.98	7598.6	
652.17	7253.9	
652.36	9189.2	
652.54	8373.5	
652.73	7178.1	
652.92	7124.2	
653.11	9166.7	
653.29	9235.7	
653.48	6608.1	
653.67	7506.5	
653.85	8961.2	
654.04	9841.2	
654.23	7632.8	
654.42	7219.1	
654.6	8279.9	
654.79	8940.1	
654.98	6623.1	
655.16	7000	
655.35	7950.9	
655.54	7845.1	
655.73	6737.1	
655.91	6548.7	
656.1	8938.7	
656.29	7953.6	
656.47	6326.2	
656.66	7741.3	
656.85	8212.4	
657.03	8272.4	
657.22	6762.4	
657.41	6946.7	
657.59	8353	
657.78	8174.8	
657.97	6579.4	
658.16	7159	
658.34	8931.2	
658.53	9249.3	
658.72	7968	
658.9	8413.1	
659.09	8565.3	
659.28	8529.1	
659.46	7004.7	
659.65	6932.4	
659.84	8257.4	
660.02	8805.6	
660.21	6810.9	
660.4	6867.5	
660.58	9109.4	
660.77	8578.3	
660.96	7358.4	
661.14	6495.5	
661.33	9579	
661.52	9380.4	
661.7	6483.2	
661.89	9572.9	
662.08	8301.8	
662.26	7774.8	
662.45	6715.3	
662.64	6787	
662.82	8903.2	
663.01	8094.9	
663.2	6883.2	
663.38	7554.3	
663.57	8731.2	
663.75	8693.6	
663.94	7137.2	
664.13	8190.5	
664.31	8194.6	
664.5	8731.2	
664.69	7335.8	
664.87	7748.1	
665.06	7914	
665.25	8513.4	
665.43	7913.4	
665.62	8008.9	
665.8	8823.3	
665.99	8244.4	
666.18	7061.4	
666.36	7138.5	
666.55	8872.5	
666.74	8754.4	
666.92	6775.4	
667.11	8076.5	
667.29	8353.7	
667.48	8786.5	
667.67	7726.3	
667.85	6944.7	
668.04	8204.2	
668.22	8200.1	
668.41	7139.2	
668.6	7260	
668.78	8098.4	
668.97	8259.5	
669.15	7395.2	
669.34	6434.7	
669.53	8112	
669.71	8357.1	
669.9	6574	
670.08	7131	
670.27	8101.8	
670.46	8519.6	
670.64	7413	
670.83	7628.7	
671.01	7921.5	
671.2	8512.7	
671.38	6750.8	
671.57	6567.2	
671.76	9079.3	
671.94	9534.7	
672.13	6513.9	
672.31	7384.3	
672.5	8657.4	
672.69	8060.8	
672.87	6722.1	
673.06	7008.1	
673.24	8529.1	
673.43	8073.8	
673.61	7354.3	
673.8	6907.1	
673.98	8708	
674.17	8853.4	
674.36	7446.4	
674.54	7337.9	
674.73	8432.9	
674.91	8746.2	
675.1	7050.5	
675.28	6690.7	
675.47	8382.3	
675.65	8709.3	
675.84	6928.3	
676.03	7206.1	
676.21	8064.2	
676.4	7673.7	
676.58	7564.5	
676.77	7430	
676.95	9349.7	
677.14	8060.8	
677.32	6627.2	
677.51	6533.7	
677.69	8708.6	
677.88	7815.7	
678.06	6572.6	
678.25	6662.7	
678.44	8337.3	
678.62	8029.4	
678.81	6393.8	
678.99	7243	
679.18	9080.7	
679.36	8560.5	
679.55	6897.6	
679.73	7362.4	
679.92	8558.5	
680.1	8034.9	
680.29	7893.6	
680.47	6866.2	
680.66	8006.2	
680.84	8665	
681.03	6255.2	
681.21	7298.3	
681.4	8051.2	
681.58	7926.3	
681.77	6673.6	
681.95	6576	
682.14	8631.5	
682.32	9092.3	
682.51	7433.4	
682.69	6419	
682.88	7982.3	
683.06	8457.4	
683.25	7122.2	
683.43	7572.7	
683.62	8279.3	
683.8	8551.6	
683.99	7684	
684.17	7032	
684.36	9174.9	
684.54	8012.3	
684.73	6240.2	
684.91	6283.9	
685.1	8155	
685.28	7600.7	
685.46	6752.8	
685.65	6739.9	
685.83	8288.1	
686.02	7778.9	
686.2	6416.3	
686.39	6492.1	
686.57	7560.4	
686.76	8861.6	
686.94	6343.9	
687.13	6431.3	
687.31	8202.1	
687.5	7838.9	
687.68	6029.9	
687.86	7100.3	
688.05	9361.9	
688.23	7485.3	
688.42	7083.9	
688.6	6442.9	
688.79	7856	
688.97	7782.3	
689.16	6829.3	
689.34	5921.4	
689.52	8433.5	
689.71	8583.7	
689.89	7017	
690.08	6460	
690.26	8024.6	
690.45	7869	
690.63	7178.8	
690.81	6558.3	
691	7759.1	
691.18	7737.2	
691.37	6621.1	
691.55	8520.2	
691.74	7626.6	
691.92	9355.1	
692.1	6563.7	
692.29	6171.9	
692.47	7877.2	
692.66	7228.6	
692.84	6374.6	
693.02	6800.6	
693.21	7339.2	
693.39	7807.5	
693.58	6858	
693.76	6412.2	
693.94	8826.7	
694.13	8716.8	
694.31	6475.7	
694.5	7368.6	
694.68	7771.4	
694.86	8092.2	
695.05	6827.9	
695.23	7126.9	
695.42	8468.4	
695.6	10328	
695.78	7365.2	
695.97	6495.5	
696.15	8473.1	
696.34	7841.7	
696.52	6318.7	
696.7	7045.7	
696.89	8092.9	
697.07	7562.5	
697.25	6980.2	
697.44	8251.9	
697.62	8073.1	
697.81	8362.5	
697.99	6660.7	
698.17	6985.6	
698.36	7537.2	
698.54	8112.7	
698.72	6895.5	
698.91	6050.4	
699.09	7721.5	
699.28	7550.2	
699.46	6601.3	
699.64	6526.2	
699.83	7611.6	
700.01	8500.4	
700.19	7286.7	
700.38	5788.2	
700.56	8536.6	
700.74	7668.3	
700.93	6178.7	
701.11	6944	
701.29	8174.8	
701.48	9056.1	
701.66	6349.4	
701.84	6442.2	
702.03	7856	
702.21	8397.4	
702.39	6075	
702.58	6562.4	
702.76	8137.3	
702.94	8244.4	
703.13	6021.7	
703.31	8183.7	
703.49	7537.9	
703.68	8366	
703.86	6185.5	
704.04	6995.2	
704.23	7988.4	
704.41	8338.6	
704.59	6357.6	
704.78	7300.3	
704.96	8999.5	
705.14	8224.6	
705.33	6192.4	
705.51	6917.4	
705.69	7789.1	
705.87	8477.9	
706.06	6983.6	
706.24	6132.3	
706.42	8063.5	
706.61	8298.4	
706.79	7067.5	
706.97	6102.9	
707.16	7600	
707.34	8078.6	
707.52	7000	
707.7	6315.9	
707.89	7759.8	
708.07	7477.8	
708.25	7004.7	
708.44	7202.7	
708.62	7640.3	
708.8	8624	
708.98	7244.3	
709.17	6376	
709.35	7896.3	
709.53	7952.9	
709.72	6061.3	
709.9	6457.2	
710.08	8183.7	
710.26	8191.9	
710.45	7489.4	
710.63	6332.3	
710.81	7924.3	
710.99	7744.1	
711.18	6820.4	
711.36	6401.3	
711.54	7731.1	
711.72	8304.5	
711.91	6507.1	
712.09	5988.9	
712.27	7748.8	
712.45	8618.5	
712.64	6599.9	
712.82	5735	
713	7234.1	
713.18	7383.6	
713.37	5689.9	
713.55	6668.2	
713.73	7998.7	
713.91	6728.9	
714.1	5893.4	
714.28	5450.3	
714.46	7486.7	
714.64	6737.8	
714.83	4918.5	
715.01	5601.2	
715.19	6796.5	
715.37	6199.2	
715.55	5204.6	
715.74	5485.8	
715.92	7471.7	
716.1	5823.7	
716.28	6442.2	
716.47	5580	
716.65	6462.7	
716.83	6408.1	
717.01	5354.1	
717.19	5384.1	
717.38	8249.9	
717.56	6144.6	
717.74	5642.8	
717.92	4967.7	
718.1	7235.5	
718.29	6592.4	
718.47	4745.8	
718.65	5322	
718.83	7285.3	
719.01	7180.9	
719.2	4665.3	
719.38	5586.2	
719.56	7013.6	
719.74	8359.8	
719.92	5233.2	
720.11	6247.7	
720.29	7009.5	
720.47	6122.1	
720.65	4769.7	
720.83	5520.6	
721.02	6473.6	
721.2	6182.1	
721.38	5502.2	
721.56	4818.9	
721.74	5843.5	
721.92	6009.4	
722.11	5823.7	
722.29	5692.7	
722.47	7081.9	
722.65	6353.5	
722.83	4881	
723.01	5556.1	
723.2	6333.7	
723.38	6638.8	
723.56	4435.2	
723.74	5382.7	
723.92	5930.2	
724.1	6967.2	
724.29	4839.4	
724.47	5838.1	
724.65	5984.8	
724.83	5939.1	
725.01	4718.5	
725.19	5515.2	
725.37	5984.8	
725.56	6083.1	
725.74	4582.7	
725.92	4809.3	
726.1	5874.3	
726.28	6169.2	
726.46	5101.5	
726.64	4867.3	
726.83	6172.6	
727.01	6363.7	
727.19	4607.9	
727.37	5247.6	
727.55	6406.7	
727.73	6673.6	
727.91	4547.2	
728.09	4442	
728.28	6766.5	
728.46	7221.1	
728.64	5371.1	
728.82	5353.4	
729	7679.9	
729.18	7122.2	
729.36	4709.6	
729.54	6690.7	
729.72	8109.3	
729.91	6528.9	
730.09	6462	
730.27	5283.1	
730.45	6523.5	
730.63	6998.6	
730.81	5892	
730.99	5104.9	
731.17	7488.1	
731.35	6212.2	
731.53	5526.8	
731.71	5174.5	
731.9	7214.3	
732.08	7328.3	
732.26	5381.4	
732.44	5115.8	
732.62	7393.8	
732.8	7002	
732.98	5743.2	
733.16	4880.3	
733.34	6880.5	
733.52	5792.3	
733.7	5324	
733.88	5509.7	
734.07	6805.4	
734.25	6642.9	
734.43	4870.1	
734.61	6236.1	
734.79	7928.4	
734.97	6487.3	
735.15	5055.1	
735.33	5299.5	
735.51	6834.1	
735.69	6544.6	
735.87	6295.5	
736.05	5497.4	
736.23	6489.3	
736.41	6499.6	
736.59	5287.9	
736.77	5479	
736.95	7097.6	
737.13	6651.1	
737.32	5079.6	
737.5	5227.8	
737.68	7526.3	
737.86	6506.4	
738.04	4848.9	
738.22	6527.6	
738.4	6343.9	
738.58	6576.7	
738.76	5350	
738.94	4496	
739.12	6457.2	
739.3	6281.8	
739.48	5988.3	
739.66	5711.8	
739.84	6657.9	
740.02	6638.8	
740.2	4609.3	
740.38	4901.5	
740.56	7020.4	
740.74	5941.8	
740.92	5477	
741.1	5356.8	
741.28	6457.2	
741.46	6274.3	
741.64	5105.6	
741.82	5515.9	
742	6512.5	
742.18	6422.4	
742.36	5229.1	
742.54	4919.9	
742.72	7001.3	
742.9	5902.2	
743.08	5633.3	
743.26	4539.7	
743.44	7099.6	
743.62	6989	
743.8	5731.6	
743.98	4927.4	
744.16	6761.7	
744.34	6428.6	
744.52	5604.6	
744.7	5599.1	
744.88	6841.6	
745.06	6348	
745.24	5591.6	
745.42	5672.2	
745.6	6922.1	
745.78	6723.5	
745.96	4597	
746.14	4872.1	
746.32	7479.9	
746.5	6790.4	
746.68	5300.8	
746.86	4820.9	
747.03	7178.1	
747.21	5766.4	
747.39	5317.2	
747.57	4874.2	
747.75	6548	
747.93	6819.1	
748.11	4818.2	
748.29	4771.8	
748.47	7873.1	
748.65	6232	
748.83	5416.2	
749.01	5158.8	
749.19	6665.5	
749.37	5898.8	
749.55	5110.4	
749.73	5228.5	
749.91	6340.5	
750.09	6165.1	
750.26	5187.5	
750.44	4623.6	
750.62	6470.9	
750.8	6393.1	
750.98	4489.8	
751.16	4803.9	
751.34	6470.2	
751.52	5876.3	
751.7	5524.1	
751.88	4532.2	
752.06	6802.7	
752.24	6600.6	
752.42	4512.4	
752.59	4819.6	
752.77	6272.2	
752.95	7429.3	
753.13	5388.2	
753.31	4886.5	
753.49	6044.2	
753.67	6490	
753.85	5161.6	
754.03	4730.1	
754.21	6593.1	
754.38	6951.5	
754.56	4876.2	
754.74	4045.4	
754.92	5945.3	
755.1	6524.1	
755.28	4024.3	
755.46	4029	
755.64	7093.5	
755.82	7141.3	
755.99	4108.9	
756.17	4141	
756.35	4847.5	
756.53	6131.6	
756.71	3108.8	
756.89	3893.9	
757.07	5790.3	
757.25	5071.5	
757.42	4425.7	
757.6	5150	
757.78	5954.1	
757.96	5010	
758.14	4235.9	
758.32	3848.8	
758.5	4668	
758.67	5435.3	
758.85	3992.2	
759.03	4160.8	
759.21	5545.2	
759.39	5012.7	
759.57	3693.9	
759.75	4708.3	
759.92	6060.6	
760.1	5595.7	
760.28	5016.2	
760.46	5273.5	
760.64	5345.2	
760.82	5096.7	
760.99	4924.7	
761.17	4230.4	
761.35	6071.5	
761.53	5176.6	
761.71	4373.8	
761.89	4948.6	
762.06	5981.4	
762.24	5495.4	
762.42	4474.8	
762.6	4198.3	
762.78	5568.4	
762.96	6159.6	
763.13	4820.2	
763.31	4446.8	
763.49	6284.5	
763.67	5522.7	
763.85	5214.1	
764.02	5681.7	
764.2	6461.3	
764.38	5792.3	
764.56	4363.5	
764.74	5126.7	
764.91	6628.6	
765.09	5666	
765.27	4131.4	
765.45	3940.3	
765.63	6702.3	
765.8	6523.5	
765.98	3737.5	
766.16	3953.9	
766.34	5277.6	
766.52	5045.5	
766.69	4834.6	
766.87	3829.7	
767.05	5612.1	
767.23	6417	
767.41	4051.6	
767.58	4259.1	
767.76	6043.6	
767.94	6103.6	
768.12	4139.6	
768.29	4807.9	
768.47	5638.1	
768.65	6216.3	
768.83	3833.8	
769	4846.9	
769.18	5258.5	
769.36	5845.6	
769.54	4730.1	
769.72	3848.1	
769.89	6097.5	
770.07	6115.9	
770.25	4202.4	
770.43	5177.9	
770.6	6753.5	
770.78	7099.6	
770.96	4307.6	
771.14	4788.2	
771.31	6018.3	
771.49	5356.8	
771.67	3543.7	
771.85	3725.9	
772.02	4746.5	
772.2	5483.8	
772.38	4426.3	
772.55	4007.9	
772.73	5642.2	
772.91	5412.1	
773.09	4250.9	
773.26	4378.6	
773.44	5524.7	
773.62	5326.8	
773.8	3885.7	
773.97	3585.3	
774.15	5621.7	
774.33	5331.5	
774.5	3708.9	
774.68	4052.2	
774.86	5763	
775.04	5301.5	
775.21	3809.9	
775.39	3760.8	
775.57	5599.1	
775.74	5868.1	
775.92	3607.8	
776.1	3533.4	
776.27	5532.9	
776.45	6576.7	
776.63	3799.7	
776.81	3386.7	
776.98	5219.6	
777.16	6102.9	
777.34	3906.8	
777.51	4118.5	
777.69	5175.9	
777.87	5016.8	
778.04	3917.1	
778.22	4395.6	
778.4	5068.7	
778.57	5630.5	
778.75	3307.5	
778.93	3511.6	
779.1	4904.9	
779.28	4696	
779.46	3286.3	
779.64	3703.4	
779.81	5705.6	
779.99	6430.6	
780.17	4324.6	
780.34	4501.4	
780.52	5246.9	
780.69	5371.1	
780.87	3997.6	
781.05	3530.7	
781.22	5302.9	
781.4	5356.8	
781.58	3682.9	
781.75	2976.4	
781.93	5340.4	
782.11	4741	
782.28	4462.5	
782.46	3710.2	
782.64	4602.5	
782.81	5453.7	
782.99	3819.5	
783.17	3759.4	
783.34	5313.8	
783.52	4676.2	
783.69	3953.3	
783.87	4604.5	
784.05	4827.1	
784.22	4752.7	
784.4	4543.8	
784.58	3962.1	
784.75	5586.9	
784.93	4857.1	
785.1	3705.5	
785.28	4244.1	
785.46	5402.5	
785.63	4714.4	
785.81	3690.4	
785.99	3487	
786.16	4948.6	
786.34	5261.9	
786.51	3514.3	
786.69	3944.4	
786.87	4505.5	
787.04	4960.9	
787.22	3479.5	
787.39	4244.8	
787.57	4718.5	
787.75	5638.1	
787.92	4385.4	
788.1	4355.3	
788.27	4746.5	
788.45	4500.8	
788.63	4132.1	
788.8	2973.7	
788.98	5107	
789.15	4455	
789.33	3123.8	
789.5	3715.7	
789.68	5604.6	
789.86	5659.9	
790.03	4005.8	
790.21	3643.3	
790.38	5554.8	
790.56	4883	
790.73	3469.3	
790.91	3486.3	
791.09	4759.5	
791.26	5371.1	
791.44	3742.3	
791.61	3158	
791.79	4731.5	
791.96	4810	
792.14	3272.7	
792.32	2921.1	
792.49	4720.6	
792.67	4862.6	
792.84	3370.3	
793.02	3115	
793.19	5125.4	
793.37	5788.9	
793.54	2904.7	
793.72	3306.8	
793.89	5782.8	
794.07	4775.2	
794.25	3734.1	
794.42	2975.7	
794.6	5605.3	
794.77	5296.7	
794.95	4022.9	
795.12	3558	
795.3	4732.9	
795.47	5206.6	
795.65	3843.4	
795.82	3733.4	
796	4540.3	
796.17	6260.6	
796.35	3581.2	
796.52	4250.2	
796.7	5191.6	
796.87	5268.7	
797.05	3519.8	
797.22	4339.6	
797.4	5196.4	
797.57	6065.4	
797.75	3691.8	
797.92	3488.4	
798.1	5582.1	
798.27	4601.1	
798.45	2999.6	
798.62	3217.4	
798.8	5056.4	
798.97	5395	
799.15	3917.1	
799.32	3654.9	
799.5	4382.7	
799.67	4988.2	
799.85	4031.1	
800.02	2960.7	
800.2	4707.6	
800.37	5008	
800.55	4128.7	
800.72	3405.1	
800.9	5405.3	
801.07	5735.7	
801.25	4610.7	
801.42	3822.2	
801.6	5422.3	
801.77	5141.1	
801.95	3622.9	
802.12	3401.7	
802.29	5155.4	
802.47	5115.8	
802.64	3808.5	
802.82	2859	
802.99	4682.3	
803.17	5556.1	
803.34	3644	
803.52	3324.5	
803.69	6099.5	
803.87	4492.6	
804.04	3688.4	
804.21	3732.8	
804.39	5661.3	
804.56	4849.6	
804.74	3190.1	
804.91	3826.3	
805.09	4670.1	
805.26	4788.2	
805.44	3235.8	
805.61	3532.1	
805.78	5317.2	
805.96	5354.1	
806.13	3828.3	
806.31	4076.8	
806.48	4356	
806.66	4771.1	
806.83	3816	
807	3695.9	
807.18	4662.5	
807.35	5051	
807.53	3670	
807.7	3007.8	
807.87	5750.7	
808.05	4739	
808.22	4033.1	
808.4	3016	
808.57	4670.7	
808.74	4422.9	
808.92	3398.3	
809.09	4225	
809.27	4647.5	
809.44	5195.7	
809.61	3016	
809.79	3333.4	
809.96	5782.1	
810.14	5314.5	
810.31	2899.9	
810.48	3595.6	
810.66	4825.7	
810.83	5466.7	
811.01	3411.9	
811.18	3791.5	
811.35	5322.7	
811.53	4242.7	
811.7	4067.3	
811.87	3823.6	
812.05	4773.8	
812.22	4681.7	
812.39	3289.7	
812.57	3230.3	
812.74	4732.2	
812.92	6180.1	
813.09	3568.2	
813.26	3881.6	
813.44	5906.3	
813.61	4664.6	
813.78	2988.7	
813.96	3981.9	
814.13	4739	
814.3	4483.7	
814.48	4253.6	
814.65	3609.9	
814.82	6004.6	
815	4524.6	
815.17	3640.6	
815.34	4424.3	
815.52	4613.4	
815.69	4741.7	
815.87	3594.2	
816.04	3549.1	
816.21	4728.1	
816.38	4265.2	
816.56	3485	
816.73	3310.9	
816.9	5936.4	
817.08	5410.1	
817.25	3327.3	
817.42	4154	
817.6	4349.9	
817.77	4702.1	
817.94	3719.1	
818.12	3303.4	
818.29	4545.1	
818.46	6794.5	
818.64	3446	
818.81	3211.9	
818.98	4505.5	
819.16	6313.2	
819.33	3882.3	
819.5	3651.5	
819.67	5025	
819.85	5597.8	
820.02	3590.8	
820.19	3765.5	
820.37	4898.1	
820.54	4550.6	
820.71	3735.5	
820.88	4546.5	
821.06	4903.5	
821.23	4526.7	
821.4	3726.6	
821.58	3670	
821.75	5364.3	
821.92	4848.2	
822.09	3048.1	
822.27	3253.5	
822.44	4745.1	
822.61	4655	
822.79	3034.4	
822.96	5687.2	
823.13	5092.6	
823.3	4512.4	
823.48	3533.4	
823.65	3125.9	
823.82	5366.4	
823.99	4384.7	
824.17	4352.6	
824.34	3215.3	
824.51	6167.1	
824.68	4753.3	
824.86	3342.3	
825.03	3695.9	
825.2	4737.6	
825.37	5596.4	
825.55	3318.4	
825.72	3668.6	
825.89	6173.3	
826.06	5722	
826.24	3585.3	
826.41	3603.1	
826.58	5728.2	
826.75	4941.7	
826.92	2862.4	
827.1	3158	
827.27	7587	
827.44	6107.7	
827.61	3355.9	
827.79	4065.9	
827.96	4524	
828.13	4795	
828.3	3491.8	
828.47	3037.8	
828.65	5003.2	
828.82	4872.1	
828.99	4511.7	
829.16	3993.5	
829.34	5326.8	
829.51	5130.2	
829.68	3648.1	
829.85	3770.3	
830.02	5573.9	
830.2	5335	
830.37	2854.9	
830.54	4396.3	
830.71	5969.1	
830.88	4686.4	
831.05	2897.2	
831.23	3310.9	
831.4	5810.8	
831.57	6372.6	
831.74	3426.3	
831.91	3003.7	
832.09	5006.6	
832.26	5262.6	
832.43	3550.5	
832.6	3906.8	
832.77	4975.2	
832.94	5686.5	
833.12	2819.4	
833.29	3441.3	
833.46	4646.8	
833.63	6532.3	
833.8	3777.8	
833.97	3533.4	
834.15	5254.4	
834.32	5150	
834.49	3665.9	
834.66	3768.9	
834.83	5477.6	
835	4556.7	
835.17	3383.2	
835.35	3420.8	
835.52	5214.1	
835.69	5048.2	
835.86	3608.5	
836.03	2961.4	
836.2	5252.4	
836.37	4902.8	
836.55	3483.6	
836.72	3327.9	
836.89	4906.9	
837.06	5378.6	
837.23	3563.5	
837.4	3894.6	
837.57	5971.2	
837.75	6590.4	
837.92	3195.5	
838.09	3438.5	
838.26	4902.2	
838.43	5522.7	
838.6	3701.4	
838.77	3306.1	
838.94	6266.1	
839.11	6016.9	
839.29	3493.8	
839.46	2783.9	
839.63	5344.5	
839.8	5061.2	
839.97	3409.9	
840.14	3389.4	
840.31	5091.3	
840.48	5297.4	
840.65	2863.7	
840.82	3330.7	
841	5280.3	
841.17	5204.6	
841.34	3151.1	
841.51	3196.9	
841.68	5175.9	
841.85	4994.3	
842.02	3274.7	
842.19	2732	
842.36	5061.9	
842.53	5046.2	
842.7	3147.7	
842.87	3846.1	
843.05	6492.1	
843.22	4934.9	
843.39	3003	
843.56	3300.6	
843.73	4830.5	
843.9	5394.3	
844.07	4987.5	
844.24	4177.2	
844.41	7480.5	
844.58	4640.7	
844.75	3080.1	
844.92	3287.7	
845.09	5290.6	
845.26	5247.6	
845.43	3136.1	
845.6	3305.4	
845.77	5277.6	
845.94	4977.2	
846.12	3446.7	
846.29	3627	
846.46	5443.5	
846.63	5227.1	
846.8	3109.5	
846.97	3749.1	
847.14	5631.2	
847.31	5202.5	
847.48	3556.6	
847.65	3816	
847.82	5528.2	
847.99	5440.8	
848.16	4108.9	
848.33	3816	
848.5	4832.5	
848.67	5587.5	
848.84	3118.4	
849.01	3299.3	
849.18	4769.7	
849.35	4487.8	
849.52	3865.2	
849.69	3020.1	
849.86	5509.7	
850.03	5571.2	
850.2	3119.7	
850.37	3799	
850.54	5620.3	
850.71	4948.6	
850.88	3747.8	
851.05	3061.7	
851.22	5130.8	
851.39	5717.9	
851.56	2963.4	
851.73	3581.9	
851.9	4698	
852.07	5486.5	
852.24	3440.6	
852.41	3063.1	
852.58	5183.4	
852.75	4747.9	
852.92	3460.4	
853.09	3063.8	
853.26	4902.2	
853.43	5631.2	
853.6	3116.3	
853.77	2691	
853.94	5738.4	
854.11	5214.1	
854.28	4582	
854.44	3371.6	
854.61	6094.8	
854.78	5498.1	
854.95	3118.4	
855.12	3911.6	
855.29	4344.4	
855.46	5787.6	
855.63	3052.8	
855.8	4240	
855.97	4877.6	
856.14	5575.3	
856.31	4338.3	
856.48	3433.1	
856.65	4893.3	
856.82	4599.1	
856.99	3026.2	
857.16	3308.8	
857.33	6265.4	
857.49	4966.3	
857.66	3334.1	
857.83	3639.2	
858	4961.5	
858.17	5116.5	
858.34	2950.4	
858.51	3132	
858.68	5877.7	
858.85	5811.5	
859.02	3596.2	
859.19	3843.4	
859.36	4689.8	
859.52	4672.1	
859.69	3150.5	
859.86	3708.2	
860.03	4741	
860.2	5800.5	
860.37	2830.3	
860.54	3190.1	
860.71	5447.6	
860.88	5759.6	
861.05	3480.9	
861.21	3910.9	
861.38	5814.9	
861.55	4556	
861.72	2858.3	
861.89	3491.1	
862.06	5510.4	
862.23	5939.1	
862.4	3041.2	
862.56	3231.7	
862.73	5364.3	
862.9	5130.2	
863.07	3583.9	
863.24	2888.3	
863.41	4605.9	
863.58	4672.1	
863.75	3156.6	
863.91	3619.4	
864.08	5753.4	
864.25	5397.8	
864.42	3915	
864.59	4298	
864.76	6018.3	
864.93	4677.6	
865.09	3016.7	
865.26	3319.1	
865.43	5664.7	
865.6	6006.7	
865.77	2745.6	
865.94	3117	
866.1	5678.3	
866.27	5442.1	
866.44	4625	
866.61	2968.2	
866.78	4961.5	
866.95	5424.4	
867.11	2988	
867.28	2813.9	
867.45	5591	
867.62	4767	
867.79	3605.8	
867.96	3132	
868.12	4652.3	
868.29	5493.3	
868.46	2714.2	
868.63	4165.6	
868.8	5541.1	
868.97	5442.1	
869.13	3241.3	
869.3	3261.7	
869.47	5324.7	
869.64	5528.8	
869.81	3125.2	
869.97	3123.2	
870.14	5277.6	
870.31	5794.4	
870.48	3058.3	
870.65	3887	
870.81	4929.5	
870.98	4969.1	
871.15	3506.1	
871.32	3276.8	
871.48	5317.2	
871.65	5862.7	
871.82	3099.9	
871.99	3444.7	
872.16	6196.5	
872.32	5638.7	
872.49	3185.3	
872.66	3164.8	
872.83	5425.1	
872.99	4808.6	
873.16	3551.9	
873.33	3054.2	
873.5	5132.9	
873.67	5137	
873.83	3272	
874	4093.2	
874.17	5254.4	
874.34	6126.8	
874.5	3970.3	
874.67	3833.1	
874.84	5769.1	
875.01	4606.6	
875.17	4222.9	
875.34	3069.2	
875.51	5180.7	
875.68	6178.7	
875.84	3712.3	
876.01	4517.1	
876.18	5469.4	
876.34	5403.2	
876.51	3120.4	
876.68	3075.4	
876.85	4956.1	
877.01	5657.2	
877.18	4342.4	
877.35	3087.7	
877.52	5113.1	
877.68	4595.6	
877.85	3098.6	
878.02	3078.8	
878.18	5007.3	
878.35	4855.7	
878.52	2497.8	
878.69	3460.4	
878.85	5489.9	
879.02	5384.8	
879.19	4414.1	
879.35	3325.2	
879.52	5427.8	
879.69	5601.2	
879.86	2732	
880.02	3469.3	
880.19	5013.4	
880.36	6098.9	
880.52	3559.4	
880.69	3682.9	
880.86	5418.9	
881.02	5556.1	
881.19	3402.4	
881.36	3403	
881.52	5375.2	
881.69	4798.4	
881.86	3353.2	
882.02	3255.6	
882.19	5661.3	
882.36	6498.2	
882.52	3241.3	
882.69	4341.7	
882.86	5184.8	
883.02	5156.8	
883.19	3748.5	
883.36	3525.2	
883.52	5489.2	
883.69	6211.5	
883.86	3134.8	
884.02	2884.9	
884.19	5455.8	
884.36	5056.4	
884.52	3497.9	
884.69	3317.7	
884.86	4847.5	
885.02	5898.8	
885.19	3457	
885.36	3567.6	
885.52	5006.6	
885.69	5206.6	
885.86	4435.2	
886.02	3948.5	
886.19	5483.8	
886.35	4939	
886.52	3448.8	
886.69	4339	
886.85	4657.8	
887.02	5771.9	
887.19	5771.9	
887.35	5771.9	
887.52	5771.9	
887.68	5771.9	
887.85	5771.9	
888.02	5771.9	
888.18	5771.9	
888.35	5771.9	
888.51	5771.9	
888.68	5771.9	
888.85	5771.9	
889.01	5771.9	
889.18	5771.9	
889.35	5771.9	
889.51	5771.9	
889.68	5771.9	
889.84	5771.9	
890.01	5771.9	
890.17	5771.9	
890.34	5771.9	
890.51	5771.9	
890.67	5771.9	
890.84	5771.9	
891	5771.9	
891.17	5771.9	
891.34	5771.9	
891.5	5771.9	
891.67	5771.9	
891.83	5771.9	
892	5771.9	
892.16	5771.9	
892.33	5771.9	
892.5	5771.9	
892.66	5771.9	
892.83	5771.9	
892.99	5771.9	
893.16	5771.9	
893.32	5771.9	
893.49	5771.9	
893.65	5771.9	
893.82	5771.9	
893.99	5771.9	
894.15	5771.9	
894.32	5771.9	
894.48	5771.9	
894.65	5771.9	
894.81	5771.9	
894.98	5771.9	
895.14	5771.9	
895.31	5771.9	
895.47	5771.9	
895.64	5771.9	
895.81	5771.9	
895.97	5771.9	
896.14	5771.9	
896.3	5771.9	
896.47	5771.9	
896.63	5771.9	
896.8	5771.9	
896.96	5771.9	
897.13	5771.9	
897.29	5771.9	
897.46	5771.9	
897.62	5771.9	
897.79	5771.9	
897.95	5771.9	
898.12	5771.9	
898.28	5771.9	
898.45	5771.9	
898.61	5771.9	
898.78	5771.9	
898.94	5771.9	
899.11	5771.9	
899.27	5771.9	
899.44	5771.9	
899.6	5771.9	
899.77	5771.9	
899.93	5771.9	
900.1	5771.9	
900.26	5771.9	
900.43	5771.9	
900.59	5771.9	
900.76	5771.9	
900.92	5771.9	
901.09	5771.9	
901.25	5771.9	
901.42	5771.9	
901.58	5771.9	
901.75	5771.9	
901.91	5771.9	
902.07	5771.9	
902.24	5771.9	
902.4	5771.9	
902.57	5771.9	
902.73	5771.9	
902.9	5771.9	
903.06	5771.9	
903.23	5771.9	
903.39	5771.9	
903.56	5771.9	
903.72	5771.9	
903.88	5771.9	
904.05	5771.9	
904.21	5771.9	
904.38	5771.9	
904.54	5771.9	
904.71	5771.9	
904.87	5771.9	
905.03	5771.9	
905.2	5771.9	
905.36	5771.9	
905.53	5771.9	
905.69	5771.9	
905.86	5771.9	
906.02	5771.9	
906.18	5771.9	
906.35	5771.9	
906.51	5771.9	
906.68	5771.9	
906.84	5771.9	
907.01	5771.9	
907.17	5771.9	
907.33	5771.9	
907.5	5771.9	
907.66	5771.9	
907.83	5771.9	
907.99	5771.9	
908.15	5771.9	
908.32	5771.9	
908.48	5771.9	
908.65	5771.9	
908.81	5771.9	
908.97	5771.9	
909.14	5771.9	
909.3	5771.9	
909.47	5771.9	
909.63	5771.9	
909.79	5771.9	
909.96	5771.9	
910.12	5771.9	
910.28	5771.9	
910.45	5771.9	
910.61	5771.9	
910.78	5771.9	
910.94	5771.9	
911.1	5771.9	
911.27	5771.9	
911.43	5771.9	
911.59	5771.9	
911.76	5771.9	
911.92	5771.9	
912.08	5771.9	
912.25	5771.9	
912.41	5771.9	
912.57	5771.9	
912.74	5771.9	
912.9	5771.9	
913.07	5771.9	
913.23	5771.9	
913.39	5771.9	
913.56	5771.9	
913.72	5771.9	
913.88	5771.9	
914.05	5771.9	
914.21	5771.9	
914.37	5771.9	
914.54	5771.9	
914.7	5771.9	
914.86	5771.9	
915.03	5771.9	
915.19	5771.9	
