Wavelength	Intensities	
nm	a.u.	
179.22	1682.2	
179.44	1676.9	
179.65	1687.5	
179.86	1666.4	
180.08	1735.3	
180.29	3951.9	
180.51	3093.1	
180.72	4989.5	
180.94	5686.5	
181.15	2738.1	
181.37	2736.8	
181.58	4778.6	
181.79	5086.5	
182.01	2897.9	
182.22	3015.3	
182.44	5052.3	
182.65	4329.4	
182.87	3724.6	
183.08	3321.1	
183.29	5298.8	
183.51	4403.1	
183.72	3029.6	
183.94	4184	
184.15	4765.6	
184.37	4709.6	
184.58	2681.5	
184.79	3528	
185.01	4508.9	
185.22	5089.9	
185.44	3641.3	
185.65	3237.2	
185.86	4788.2	
186.08	4410.6	
186.29	2676.7	
186.51	2833.7	
186.72	4518.5	
186.94	5182.7	
187.15	3278.1	
187.36	3330	
187.58	6446.3	
187.79	4849.6	
188.01	3388.7	
188.22	5106.3	
188.43	5700.2	
188.65	5033.9	
188.86	2856.9	
189.08	3369.6	
189.29	4588.8	
189.5	4622.9	
189.72	2990	
189.93	3141.6	
190.15	5229.8	
190.36	6016.2	
190.57	3347.7	
190.79	3267.9	
191	5186.8	
191.22	5156.1	
191.43	3381.9	
191.64	2867.2	
191.86	5377.3	
192.07	5231.9	
192.29	2940.9	
192.5	3029.6	
192.71	5192.3	
192.93	4597.7	
193.14	3073.3	
193.35	3138.9	
193.57	4637.3	
193.78	5193.6	
194	2510.1	
194.21	3063.1	
194.42	4428.4	
194.64	4805.2	
194.85	3278.1	
195.07	3813.3	
195.28	4790.9	
195.49	4240	
195.71	3982.6	
195.92	2878.1	
196.13	4993.6	
196.35	4997.7	
196.56	4179.9	
196.78	3294.5	
196.99	5967.8	
197.2	5636.7	
197.42	3666.5	
197.63	3331.4	
197.84	4313.7	
198.06	4897.4	
198.27	3095.2	
198.48	3937.6	
198.7	4635.9	
198.91	4754	
199.13	3411.2	
199.34	3349.1	
199.55	5209.3	
199.77	4184	
199.98	2989.4	
200.19	3362.1	
200.41	4753.3	
200.62	4482.3	
200.83	3391.4	
201.05	3666.5	
201.26	4720.6	
201.47	4543.1	
201.69	3020.1	
201.9	2965.5	
202.11	4823	
202.33	5449.6	
202.54	3118.4	
202.76	3546.4	
202.97	4815.5	
203.18	4906.9	
203.4	3435.1	
203.61	3468.6	
203.82	4877.6	
204.04	4507.6	
204.25	3352.5	
204.46	3293.1	
204.68	4756.1	
204.89	4971.8	
205.1	3277.4	
205.32	2848.7	
205.53	5038	
205.74	5175.9	
205.96	2515.6	
206.17	3379.8	
206.38	5034.6	
206.6	5147.2	
206.81	3794.9	
207.02	3095.2	
207.24	4903.5	
207.45	5272.2	
207.66	3168.2	
207.88	2781.8	
208.09	4952	
208.3	4773.8	
208.52	3007.8	
208.73	3252.9	
208.94	4778.6	
209.15	5293.3	
209.37	3188.7	
209.58	3553.2	
209.79	5189.6	
210.01	4619.5	
210.22	2663	
210.43	2728.6	
210.65	4749.9	
210.86	5098.8	
211.07	3186.6	
211.29	2937.5	
211.5	5000.5	
211.71	4719.9	
211.93	2912.9	
212.14	2951.1	
212.35	4680.3	
212.56	4791.6	
212.78	3350.5	
212.99	2811.2	
213.2	5416.2	
213.42	4595.6	
213.63	3026.2	
213.84	3198.9	
214.06	4326	
214.27	4372.4	
214.48	3185.3	
214.69	3396.9	
214.91	5251	
215.12	5262.6	
215.33	3378.5	
215.55	3688.4	
215.76	5724.1	
215.97	5030.5	
216.18	3236.5	
216.4	3296.5	
216.61	4554	
216.82	5175.9	
217.04	2996.9	
217.25	3108.1	
217.46	5231.9	
217.67	4990.2	
217.89	2677.4	
218.1	2798.2	
218.31	4814.8	
218.53	4911.7	
218.74	3117	
218.95	3002.3	
219.16	4734.2	
219.38	5485.1	
219.59	2990.7	
219.8	3487	
220.01	5884.5	
220.23	4818.2	
220.44	3807.2	
220.65	2951.1	
220.87	4838	
221.08	5244.8	
221.29	2824.1	
221.5	3575.8	
221.72	6186.2	
221.93	4523.3	
222.14	3375.1	
222.35	3872	
222.57	4765.6	
222.78	5139	
222.99	3183.9	
223.2	3415.3	
223.42	5027.1	
223.63	5107.6	
223.84	2545.6	
224.05	2550.4	
224.27	5798.5	
224.48	5380.7	
224.69	3885	
224.9	3323.9	
225.12	4943.1	
225.33	4732.9	
225.54	2744.3	
225.75	3036.5	
225.97	4442	
226.18	4731.5	
226.39	3198.9	
226.6	3060.3	
226.82	4572.4	
227.03	4435.2	
227.24	3339.6	
227.45	2806.4	
227.67	5042.8	
227.88	5446.2	
228.09	3730.7	
228.3	3633.8	
228.52	5051	
228.73	4713.7	
228.94	3179.8	
229.15	2837.8	
229.36	4741	
229.58	4674.8	
229.79	3147.7	
230	3607.8	
230.21	5509	
230.43	4805.9	
230.64	3330.7	
230.85	3422.8	
231.06	5114.5	
231.28	5116.5	
231.49	2793.4	
231.7	3303.4	
231.91	5010	
232.12	4784.7	
232.34	2893.8	
232.55	3218	
232.76	5212.8	
232.97	4861.2	
233.18	2955.9	
233.4	3273.3	
233.61	4928.8	
233.82	4567.7	
234.03	3089	
234.25	3094.5	
234.46	6316.6	
234.67	4808.6	
234.88	3388.7	
235.09	2995.5	
235.31	4936.3	
235.52	4650.9	
235.73	3304.1	
235.94	2891	
236.15	4549.9	
236.37	5626.5	
236.58	2982.5	
236.79	3175	
237	5025	
237.21	4384	
237.43	3442.6	
237.64	2749.1	
237.85	7875.8	
238.06	4430.4	
238.27	3373.7	
238.48	2845.3	
238.7	5007.3	
238.91	4631.1	
239.12	3150.5	
239.33	3242.6	
239.54	4444.8	
239.76	4710.3	
239.97	3207.1	
240.18	3201.7	
240.39	5646.9	
240.6	4876.9	
240.82	3361.4	
241.03	2830.3	
241.24	4730.1	
241.45	5383.4	
241.66	2957.3	
241.87	3377.8	
242.09	5326.8	
242.3	5538.4	
242.51	3464.5	
242.72	3160.7	
242.93	5094.7	
243.14	4780	
243.36	3646.7	
243.57	3872.7	
243.78	5423	
243.99	5008	
244.2	3261	
244.41	2889.7	
244.63	4405.9	
244.84	4922.6	
245.05	3378.5	
245.26	3149.1	
245.47	4977.9	
245.68	5148.6	
245.9	4073.4	
246.11	3367.5	
246.32	4564.2	
246.53	4946.5	
246.74	4998.4	
246.95	2763.4	
247.16	4502.8	
247.38	4788.8	
247.59	2755.2	
247.8	3215.3	
248.01	4461.2	
248.22	4737.6	
248.43	2979.1	
248.64	3160	
248.86	4341	
249.07	4615.4	
249.28	2932.7	
249.49	3256.3	
249.7	5170.4	
249.91	5199.8	
250.12	2713.6	
250.34	2820.1	
250.55	4861.9	
250.76	4760.2	
250.97	3305.4	
251.18	3305.4	
251.39	5244.2	
251.6	4887.1	
251.81	3360	
252.03	3332	
252.24	4556.7	
252.45	5119.9	
252.66	2869.9	
252.87	3495.9	
253.08	4788.2	
253.29	5988.9	
253.5	2842.6	
253.72	3802.4	
253.93	4672.8	
254.14	5466	
254.35	3081.5	
254.56	3178.4	
254.77	4949.3	
254.98	4476.2	
255.19	3035.1	
255.41	3816	
255.62	4873.5	
255.83	5252.4	
256.04	3432.4	
256.25	3323.9	
256.46	5728.2	
256.67	4550.6	
256.88	3274.7	
257.09	3636.5	
257.31	4463.9	
257.52	4498.7	
257.73	4050.9	
257.94	3108.8	
258.15	4759.5	
258.36	4747.9	
258.57	3754.6	
258.78	2485.6	
258.99	5159.5	
259.2	4672.1	
259.41	3081.5	
259.63	3175.7	
259.84	5417.6	
260.05	5638.7	
260.26	3921.2	
260.47	2998.9	
260.68	5194.3	
260.89	4640	
261.1	3612.6	
261.31	2947.7	
261.52	5315.2	
261.73	5523.4	
261.95	3928.7	
262.16	3428.3	
262.37	5264	
262.58	5390.3	
262.79	3864.5	
263	3101.3	
263.21	4825	
263.42	4586.8	
263.63	3398.3	
263.84	3121.1	
264.05	5227.1	
264.26	5421.7	
264.47	3781.2	
264.69	3310.2	
264.9	5381.4	
265.11	4877.6	
265.32	2992.8	
265.53	3019.4	
265.74	4839.4	
265.95	4248.2	
266.16	3252.2	
266.37	3568.2	
266.58	4869.4	
266.79	4596.3	
267	3023.5	
267.21	2837.1	
267.42	4485.7	
267.63	4739	
267.84	3243.3	
268.06	2783.9	
268.27	5100.1	
268.48	5254.4	
268.69	3166.2	
268.9	3614.7	
269.11	5295.4	
269.32	4323.3	
269.53	3201.7	
269.74	2967.5	
269.95	4923.3	
270.16	4289.8	
270.37	3226.2	
270.58	3670	
270.79	4647.5	
271	5145.2	
271.21	3397.6	
271.42	3231	
271.63	4927.4	
271.84	4440	
272.05	2648.7	
272.26	2923.8	
272.47	4821.6	
272.68	4876.2	
272.89	3158	
273.11	3532.7	
273.32	4599.1	
273.53	5401.9	
273.74	3360.7	
273.95	3343.7	
274.16	5138.4	
274.37	4787.5	
274.58	3547.8	
274.79	2921.8	
275	4908.3	
275.21	5244.2	
275.42	4141	
275.63	3567.6	
275.84	4990.9	
276.05	6042.9	
276.26	3343	
276.47	3147.7	
276.68	4676.9	
276.89	5541.8	
277.1	3586	
277.31	2871.9	
277.52	4994.3	
277.73	5173.9	
277.94	2839.8	
278.15	3109.5	
278.36	4922	
278.57	4486.4	
278.78	3115	
278.99	3426.9	
279.2	4562.2	
279.41	4440.7	
279.62	3902.1	
279.83	2900.6	
280.04	5664.7	
280.25	4455	
280.46	3919.1	
280.67	3252.2	
280.88	4515.1	
281.09	5230.5	
281.3	3368.2	
281.51	4118.5	
281.72	5177.3	
281.93	5121.3	
282.14	3033	
282.35	3251.5	
282.56	5200.5	
282.77	5129.5	
282.98	3142.9	
283.19	3718.4	
283.4	6138.4	
283.61	4692.6	
283.82	2923.1	
284.03	3867.9	
284.24	4909	
284.45	5231.9	
284.66	3926	
284.87	3773.7	
285.08	5239.4	
285.29	5324.7	
285.5	2811.9	
285.71	3133.4	
285.92	5203.9	
286.12	5655.1	
286.33	3878.2	
286.54	3182.5	
286.75	5111	
286.96	4668	
287.17	2977.7	
287.38	3781.2	
287.59	4566.3	
287.8	4530.8	
288.01	3166.2	
288.22	3523.9	
288.43	5074.9	
288.64	4317.1	
288.85	3682.2	
289.06	3484.3	
289.27	5111.7	
289.48	5435.3	
289.69	3906.2	
289.9	3595.6	
290.11	5320.6	
290.32	4597.7	
290.53	3636.5	
290.74	3397.6	
290.94	5085.8	
291.15	5154.7	
291.36	3037.8	
291.57	3549.8	
291.78	4644.8	
291.99	4309.6	
292.2	2950.4	
292.41	3430.3	
292.62	5192.3	
292.83	4997	
293.04	4195.6	
293.25	3018	
293.46	4645.5	
293.67	5210	
293.88	3005.1	
294.09	2933.4	
294.29	4451.6	
294.5	4894.6	
294.71	3261	
294.92	3060.3	
295.13	4642.7	
295.34	5582.8	
295.55	2794.1	
295.76	2751.1	
295.97	5118.6	
296.18	5582.8	
296.39	2898.6	
296.6	3023.5	
296.81	4793.6	
297.01	5053.7	
297.22	3138.9	
297.43	3026.9	
297.64	4571.1	
297.85	4481	
298.06	2565.4	
298.27	2756.6	
298.48	4777.9	
298.69	4574.5	
298.9	3253.5	
299.11	3009.8	
299.31	4414.7	
299.52	4472.8	
299.73	3495.2	
299.94	3373	
300.15	4752.7	
300.36	4474.1	
300.57	3465.2	
300.78	3415.3	
300.99	4707.6	
301.2	4812	
301.4	3013.9	
301.61	3237.8	
301.82	5018.2	
302.03	5096	
302.24	3620.1	
302.45	2915.6	
302.66	4972.5	
302.87	5247.6	
303.08	3064.4	
303.29	4007.9	
303.49	4625	
303.7	4764.9	
303.91	2751.8	
304.12	3835.8	
304.33	4397.7	
304.54	4874.8	
304.75	3060.3	
304.96	2960	
305.16	5008.6	
305.37	5501.5	
305.58	2717	
305.79	2774.3	
306	4993.6	
306.21	4279.6	
306.42	3028.3	
306.63	4444.1	
306.83	4601.1	
307.04	5163.6	
307.25	3319.1	
307.46	3273.3	
307.67	4261.1	
307.88	5072.1	
308.09	3043.3	
308.29	3051.5	
308.5	4861.2	
308.71	5088.5	
308.92	3205.1	
309.13	2945.7	
309.34	4707.6	
309.55	4726	
309.75	3717.7	
309.96	3402.4	
310.17	5080.3	
310.38	4567.7	
310.59	3495.9	
310.8	2890.4	
311.01	4627	
311.21	4700.1	
311.42	2972.3	
311.63	3003.7	
311.84	4644.8	
312.05	4877.6	
312.26	3356.6	
312.46	3667.2	
312.67	4655	
312.88	4407.9	
313.09	2933.4	
313.3	2908.8	
313.51	5343.8	
313.71	5623	
313.92	2938.2	
314.13	3048.7	
314.34	4935.6	
314.55	4720.6	
314.76	3581.9	
314.96	3276.1	
315.17	4893.3	
315.38	5061.9	
315.59	2972.3	
315.8	2859.6	
316.01	5385.5	
316.21	5459.2	
316.42	2864.4	
316.63	3212.6	
316.84	4663.9	
317.05	5250.3	
317.26	3449.5	
317.46	3110.9	
317.67	4795	
317.88	5044.8	
318.09	3631	
318.3	2766.1	
318.5	4629.8	
318.71	4940.4	
318.92	4515.8	
319.13	3420.1	
319.34	5125.4	
319.54	5233.2	
319.75	2798.9	
319.96	2678.7	
320.17	4979.3	
320.38	5227.8	
320.58	2710.8	
320.79	3214.6	
321	5197.1	
321.21	5296	
321.42	3224.9	
321.62	2693.8	
321.83	4563.6	
322.04	4732.9	
322.25	3157.3	
322.46	2962	
322.66	4844.8	
322.87	4995.7	
323.08	3611.9	
323.29	2876.7	
323.5	5588.9	
323.7	4422.2	
323.91	3949.8	
324.12	3500	
324.33	4911	
324.53	5028.4	
324.74	3371	
324.95	3556	
325.16	4344.4	
325.37	4672.1	
325.57	2963.4	
325.78	3009.1	
325.99	4881	
326.2	4404.5	
326.4	4079.6	
326.61	2736.8	
326.82	4699.4	
327.03	4878.3	
327.24	4017.4	
327.44	3784.6	
327.65	4960.2	
327.86	4138.9	
328.07	3409.9	
328.27	2809.8	
328.48	5231.9	
328.69	4410	
328.9	4026.3	
329.1	3076.7	
329.31	4735.6	
329.52	5365.7	
329.73	2996.9	
329.93	3172.3	
330.14	4819.6	
330.35	4928.8	
330.56	4599.1	
330.76	3625.6	
330.97	4663.2	
331.18	4911.7	
331.39	3239.2	
331.59	2724.5	
331.8	5185.5	
332.01	5363.6	
332.22	3065.1	
332.42	3372.3	
332.63	4860.5	
332.84	4546.5	
333.05	3302.7	
333.25	2958.6	
333.46	4590.9	
333.67	4790.2	
333.88	3042.6	
334.08	3316.3	
334.29	6022.4	
334.5	5238.7	
334.7	2867.8	
334.91	4028.4	
335.12	4394.3	
335.33	5078.3	
335.53	3240.6	
335.74	4560.1	
335.95	4683.7	
336.16	4420.9	
336.36	3247.4	
336.57	3686.3	
336.78	4448.9	
336.98	5193	
337.19	3932.1	
337.4	3201.7	
337.61	5649	
337.81	4405.2	
338.02	3037.1	
338.23	3715	
338.43	5374.6	
338.64	4558.1	
338.85	3014.6	
339.05	3824.9	
339.26	5337	
339.47	4318.5	
339.68	2938.8	
339.88	4200.4	
340.09	5053.7	
340.3	5160.2	
340.5	3390.8	
340.71	2676.7	
340.92	4392.9	
341.13	5286.5	
341.33	2826.9	
341.54	3384.6	
341.75	4994.3	
341.95	4629.1	
342.16	3293.8	
342.37	3553.9	
342.57	4450.2	
342.78	4722.6	
342.99	3543	
343.19	2689	
343.4	5035.3	
343.61	4949.9	
343.81	3104.7	
344.02	2878.1	
344.23	5101.5	
344.43	5326.1	
344.64	3646.1	
344.85	3586	
345.06	4965	
345.26	5204.6	
345.47	3405.1	
345.68	3866.6	
345.88	4287.8	
346.09	5132.9	
346.3	3446	
346.5	2642.6	
346.71	4727.4	
346.92	4548.5	
347.12	2768.9	
347.33	3330.7	
347.54	5184.8	
347.74	5421.7	
347.95	3353.2	
348.16	2596.1	
348.36	4638.6	
348.57	4498	
348.78	3380.5	
348.98	3590.1	
349.19	4701.5	
349.39	4299.4	
349.6	2767.5	
349.81	2996.2	
350.01	5039.4	
350.22	4551.3	
350.43	3358	
350.63	3780.6	
350.84	4810.7	
351.05	4552.6	
351.25	2953.2	
351.46	2755.2	
351.67	5150.6	
351.87	4497.3	
352.08	3123.8	
352.29	3534.1	
352.49	5055.1	
352.7	4816.1	
352.9	2869.2	
353.11	3534.8	
353.32	5532.9	
353.52	4607.9	
353.73	2906.8	
353.94	3586	
354.14	5001.1	
354.35	4846.9	
354.55	2937.5	
354.76	3185.3	
354.97	4952.7	
355.17	4760.2	
355.38	2856.2	
355.59	3710.9	
355.79	4462.5	
356	4728.1	
356.2	3226.9	
356.41	2811.2	
356.62	4324.6	
356.82	4666.6	
357.03	3448.8	
357.24	3086.3	
357.44	4511	
357.65	4618.9	
357.85	4034.5	
358.06	3264.5	
358.27	4270.7	
358.47	4444.8	
358.68	2762	
358.88	3446	
359.09	4902.8	
359.3	5119.9	
359.5	3915	
359.71	3526.6	
359.91	5473.5	
360.12	4963.6	
360.33	3376.4	
360.53	3732.8	
360.74	4517.1	
360.94	4501.4	
361.15	3594.2	
361.36	2990	
361.56	5085.8	
361.77	4669.4	
361.97	3880.9	
362.18	3099.9	
362.38	5137.7	
362.59	4414.7	
362.8	2944.3	
363	2864.4	
363.21	4167.6	
363.41	4724	
363.62	3336.8	
363.83	3987.4	
364.03	4856.4	
364.24	5414.1	
364.44	4169	
364.65	3964.2	
364.85	4666	
365.06	4410.6	
365.27	3084.9	
365.47	3075.4	
365.68	5400.5	
365.88	4608.6	
366.09	3375.7	
366.29	3076	
366.5	4778.6	
366.71	5115.1	
366.91	4072	
367.12	3492.5	
367.32	5565.7	
367.53	5025.7	
367.73	3366.9	
367.94	4147.8	
368.14	5021.6	
368.35	5571.2	
368.56	3345	
368.76	3234.4	
368.97	5096	
369.17	6199.9	
369.38	3061.7	
369.58	3254.2	
369.79	4327.4	
369.99	5294	
370.2	4029	
370.4	3329.3	
370.61	4806.6	
370.82	5771.9	
371.02	3337.5	
371.23	2764.1	
371.43	4293.9	
371.64	5308.3	
371.84	3300	
372.05	4141.7	
372.25	6155.5	
372.46	4993.6	
372.66	3213.9	
372.87	3246.7	
373.07	5016.8	
373.28	6230.6	
373.48	3991.5	
373.69	3725.3	
373.9	4666.6	
374.1	4647.5	
374.31	3942.3	
374.51	3591.5	
374.72	5251	
374.92	4448.2	
375.13	4066.6	
375.33	3474	
375.54	4917.2	
375.74	4538.3	
375.95	3493.8	
376.15	4390.2	
376.36	4993.6	
376.56	4899.4	
376.77	3542.3	
376.97	3824.2	
377.18	5744.6	
377.38	5099.4	
377.59	4111.6	
377.79	3161.4	
378	4820.2	
378.2	5152	
378.41	3223.5	
378.61	3133.4	
378.82	5230.5	
379.02	4606.6	
379.23	3340.2	
379.43	4087.7	
379.64	5327.4	
379.84	4946.5	
380.05	3246	
380.25	3145	
380.46	5058.5	
380.66	4760.8	
380.87	4233.8	
381.07	4427	
381.28	5523.4	
381.48	5086.5	
381.69	3162.7	
381.89	3192.8	
382.1	4323.9	
382.3	5130.2	
382.51	4056.3	
382.71	4681.7	
382.91	4989.5	
383.12	5379.3	
383.32	3501.3	
383.53	3638.6	
383.73	4913.1	
383.94	4807.3	
384.14	3674.7	
384.35	2957.3	
384.55	4760.2	
384.76	5053.7	
384.96	3542.3	
385.17	3758	
385.37	5050.3	
385.58	4508.3	
385.78	3743	
385.98	2943.6	
386.19	4708.3	
386.39	4991.6	
386.6	3289	
386.8	3443.3	
387.01	5044.8	
387.21	5104.2	
387.42	3784.6	
387.62	4164.2	
387.83	4661.2	
388.03	4911	
388.23	3536.2	
388.44	4122.6	
388.64	4289.8	
388.85	4450.2	
389.05	3781.9	
389.26	4184	
389.46	5870.2	
389.67	5419.6	
389.87	3749.1	
390.07	3781.2	
390.28	4776.5	
390.48	4521.2	
390.69	3222.8	
390.89	3428.3	
391.1	4683.7	
391.3	5299.5	
391.5	4377.2	
391.71	4756.1	
391.91	5173.9	
392.12	5725.4	
392.32	4385.4	
392.53	3762.1	
392.73	4721.9	
392.93	4837.3	
393.14	3568.2	
393.34	4116.4	
393.55	5174.5	
393.75	4795.7	
393.95	3542.3	
394.16	3499.3	
394.36	4681.7	
394.57	5180.7	
394.77	3201.7	
394.98	3467.9	
395.18	4652.3	
395.38	4655.7	
395.59	4096.6	
395.79	3322.5	
396	4712.4	
396.2	5053.7	
396.4	3943.7	
396.61	3908.2	
396.81	5144.5	
397.02	4599.1	
397.22	4165.6	
397.42	4202.4	
397.63	5192.3	
397.83	4603.2	
398.04	3346.4	
398.24	3691.1	
398.44	5014.1	
398.65	4258.4	
398.85	3196.2	
399.05	3241.3	
399.26	4592.2	
399.46	5824.4	
399.67	3550.5	
399.87	3312.9	
400.07	4803.9	
400.28	5180	
400.48	3389.4	
400.69	4168.3	
400.89	5238	
401.09	5666.7	
401.3	3349.8	
401.5	4124.6	
401.7	5709.1	
401.91	5920	
402.11	3674.1	
402.32	3803.1	
402.52	5353.4	
402.72	5215.5	
402.93	3988.8	
403.13	3065.1	
403.33	5956.2	
403.54	4934.9	
403.74	3743.7	
403.94	4367.6	
404.15	4986.8	
404.35	5892.7	
404.56	3528.7	
404.76	4863.2	
404.96	5300.1	
405.17	5129.5	
405.37	4173.1	
405.57	3904.1	
405.78	5315.2	
405.98	4930.8	
406.18	3491.1	
406.39	4165.6	
406.59	5347.9	
406.79	4973.2	
407	3400.3	
407.2	3500.7	
407.4	5388.2	
407.61	5508.4	
407.81	3486.3	
408.01	5272.2	
408.22	4485.1	
408.42	5977.3	
408.62	4259.1	
408.83	3868.6	
409.03	4919.9	
409.23	4886.5	
409.44	3893.2	
409.64	4044.7	
409.84	5703.6	
410.05	5569.1	
410.25	4039.3	
410.45	3811.3	
410.66	5190.2	
410.86	7022.5	
411.06	4149.9	
411.27	4037.9	
411.47	6858	
411.67	5324.7	
411.88	4240.7	
412.08	4402.5	
412.28	5720	
412.49	6203.3	
412.69	4066.6	
412.89	4010.6	
413.09	6047.7	
413.3	5946.6	
413.5	4143.7	
413.7	3831.7	
413.91	5411.4	
414.11	6014.2	
414.31	4044.7	
414.52	4302.8	
414.72	5853.1	
414.92	5706.3	
415.12	4009.9	
415.33	4454.3	
415.53	6006	
415.73	6153.5	
415.94	4752	
416.14	4221.5	
416.34	5311.1	
416.55	5143.1	
416.75	5147.9	
416.95	4754	
417.15	5998.5	
417.36	6517.3	
417.56	5337.7	
417.76	4550.6	
417.97	6248.4	
418.17	6029.2	
418.37	4312.3	
418.57	4284.4	
418.78	5985.5	
418.98	5677.7	
419.18	4989.5	
419.38	4964.3	
419.59	5706.3	
419.79	5446.2	
419.99	4274.8	
420.2	4478.2	
420.4	6154.8	
420.6	6201.9	
420.8	4190.1	
421.01	4073.4	
421.21	5980.8	
421.41	6049.7	
421.61	4463.2	
421.82	4262.5	
422.02	5652.4	
422.22	6356.9	
422.42	4865.3	
422.63	4597	
422.83	5688.6	
423.03	6657.9	
423.23	4583.4	
423.44	3848.8	
423.64	5736.4	
423.84	5552	
424.04	4242.7	
424.25	3959.4	
424.45	6491.4	
424.65	6370.5	
424.85	3876.1	
425.06	4234.5	
425.26	6535.1	
425.46	5647.6	
425.66	4646.2	
425.87	4384	
426.07	6185.5	
426.27	6102.3	
426.47	4496.7	
426.67	4040.6	
426.88	6556.2	
427.08	6067.4	
427.28	4675.5	
427.48	4014.7	
427.69	5421.7	
427.89	5834	
428.09	4572.4	
428.29	3970.3	
428.5	6254.5	
428.7	5912.5	
428.9	3934.1	
429.1	4360.8	
429.3	5963	
429.51	6130.9	
429.71	4201.1	
429.91	4813.4	
430.11	6243.6	
430.31	6270.2	
430.52	4441.4	
430.72	4601.8	
430.92	6591.7	
431.12	6215.6	
431.32	4170.3	
431.53	4548.5	
431.73	5299.5	
431.93	6621.8	
432.13	4154.6	
432.33	4085	
432.54	5723.4	
432.74	5913.2	
432.94	3999	
433.14	4740.4	
433.34	6186.2	
433.55	5859.2	
433.75	4802.5	
433.95	6036.7	
434.15	5988.3	
434.35	5696.8	
434.56	4174.4	
434.76	3781.2	
434.96	5973.2	
435.16	6178.7	
435.36	4051.6	
435.56	4975.2	
435.77	5752.1	
435.97	5860.6	
436.17	5439.4	
436.37	4866	
436.57	5715.2	
436.78	5679	
436.98	6202.6	
437.18	5271.5	
437.38	6176.7	
437.58	5855.1	
437.78	5496.1	
437.99	4448.2	
438.19	6281.8	
438.39	6890.7	
438.59	4407.9	
438.79	4048.8	
438.99	6746.7	
439.2	5855.8	
439.4	4117.1	
439.6	4067.3	
439.8	6090.7	
440	6872.3	
440.2	4831.8	
440.4	4849.6	
440.61	6417.7	
440.81	6802.7	
441.01	4240.7	
441.21	4932.2	
441.41	6752.8	
441.61	6398.5	
441.81	5195	
442.02	5951.4	
442.22	7149.5	
442.42	6496.2	
442.62	4388.1	
442.82	4443.4	
443.02	6814.3	
443.22	6109.1	
443.43	4714.4	
443.63	4335.5	
443.83	5952.1	
444.03	6010.1	
444.23	5276.3	
444.43	4996.4	
444.63	6264.7	
444.83	7118.7	
445.04	4558.1	
445.24	5423	
445.44	6556.2	
445.64	6587.6	
445.84	5131.5	
446.04	5067.4	
446.24	6053.8	
446.44	6793.8	
446.65	4436.6	
446.85	4787.5	
447.05	6268.8	
447.25	6823.1	
447.45	4897.4	
447.65	4380.6	
447.85	6335.1	
448.05	6006.7	
448.25	5126.1	
448.46	5012.7	
448.66	6286.6	
448.86	5990.3	
449.06	4381.3	
449.26	5124.7	
449.46	6593.8	
449.66	5857.9	
449.86	4811.4	
450.06	4775.2	
450.26	6000.5	
450.47	6503	
450.67	4931.5	
450.87	5194.3	
451.07	6694.1	
451.27	6331.6	
451.47	4526.7	
451.67	4932.9	
451.87	6160.3	
452.07	6961.7	
452.27	4737.6	
452.47	4655	
452.67	6412.9	
452.88	6684.6	
453.08	4250.2	
453.28	5715.9	
453.48	7359	
453.68	6298.9	
453.88	4683.7	
454.08	4777.9	
454.28	6666.1	
454.48	6397.9	
454.68	5197.7	
454.88	5550	
455.08	6809.5	
455.28	6503.7	
455.48	4564.9	
455.68	5065.3	
455.89	7157	
456.09	6811.5	
456.29	4825	
456.49	4923.3	
456.69	7075.7	
456.89	6374	
457.09	5249.6	
457.29	5525.4	
457.49	6788.3	
457.69	6826.6	
457.89	5167	
458.09	4693.9	
458.29	6574.7	
458.49	7150.1	
458.69	5525.4	
458.89	5044.1	
459.09	7312.6	
459.29	7335.8	
459.49	5132.9	
459.69	5804.6	
459.9	6995.2	
460.1	6657.9	
460.3	5091.3	
460.5	4895.3	
460.7	7036.1	
460.9	6677.1	
461.1	4679.6	
461.3	5549.3	
461.5	7489.4	
461.7	7146	
461.9	5008	
462.1	5365	
462.3	6827.2	
462.5	7241.6	
462.7	5094	
462.9	5143.8	
463.1	7947.5	
463.3	7778.9	
463.5	5314.5	
463.7	5988.3	
463.9	7032	
464.1	7290.1	
464.3	5507.7	
464.5	5640.1	
464.7	7441	
464.9	7279.2	
465.1	6647	
465.3	5887.9	
465.5	7801.4	
465.7	7834.8	
465.9	6156.9	
466.1	5951.4	
466.3	7644.4	
466.5	7602.7	
466.7	6593.8	
466.9	5751.4	
467.1	7592.5	
467.3	8190.5	
467.5	6639.5	
467.7	5821.7	
467.9	8456.1	
468.1	9061.6	
468.3	6431.3	
468.5	6737.8	
468.7	7583.6	
468.9	7476.5	
469.1	6035.4	
469.3	6600.6	
469.5	9012.4	
469.7	7315.3	
469.9	6406	
470.1	5812.8	
470.3	7648.5	
470.5	7637.6	
470.7	6875.7	
470.9	6014.2	
471.1	7402	
471.3	7763.8	
471.5	5917.9	
471.69	7277.8	
471.89	7429.3	
472.09	6981.5	
472.29	6445.6	
472.49	6662	
472.69	7178.1	
472.89	7718.1	
473.09	5741.8	
473.29	5889.3	
473.49	7356.3	
473.69	7326.9	
473.89	6563.7	
474.09	5913.2	
474.29	8329.1	
474.49	8063.5	
474.69	6552.1	
474.89	6156.9	
475.09	7443.7	
475.29	7412.3	
475.49	5635.3	
475.69	5909.1	
475.88	8669.1	
476.08	7767.3	
476.28	5723.4	
476.48	5909.8	
476.68	8041.7	
476.88	7806.2	
477.08	5951.4	
477.28	6109.8	
477.48	7513.3	
477.68	7846.5	
477.88	5707	
478.08	5972.6	
478.28	8168.7	
478.48	7623.9	
478.67	5972.6	
478.87	5444.2	
479.07	8144.8	
479.27	7699.7	
479.47	6151.4	
479.67	6169.2	
479.87	7955.7	
480.07	8335.9	
480.27	5578	
480.47	6838.9	
480.67	7673.1	
480.87	8185.7	
481.06	5916.6	
481.26	6494.8	
481.46	7712	
481.66	7565.2	
481.86	6287.3	
482.06	6886	
482.26	7474.4	
482.46	8166.6	
482.66	6148.7	
482.86	5877.7	
483.05	7830.7	
483.25	7243.7	
483.45	8081.3	
483.65	6207.4	
483.85	7400.7	
484.05	7703.1	
484.25	6503	
484.45	6830	
484.65	8209.6	
484.84	8284.7	
485.04	6121.4	
485.24	6078.4	
485.44	8547.5	
485.64	7259.4	
485.84	5668.1	
486.04	6708.5	
486.24	7604.8	
486.44	7781.6	
486.63	5541.1	
486.83	6311.2	
487.03	7548.8	
487.23	7681.9	
487.43	5724.1	
487.63	7349.5	
487.83	7750.9	
488.02	8463.6	
488.22	6402	
488.42	6991.8	
488.62	8432.2	
488.82	7604.8	
489.02	6192.4	
489.22	6268.8	
489.41	8354.3	
489.61	8157.7	
489.81	6082.5	
490.01	6031.3	
490.21	8326.4	
490.41	8725.7	
490.61	6116.6	
490.8	6109.8	
491	7957.7	
491.2	7443	
491.4	6600.6	
491.6	6014.2	
491.8	8004.1	
491.99	7912.7	
492.19	5839.4	
492.39	6085.2	
492.59	8155	
492.79	8345.5	
492.99	6780.8	
493.18	5962.3	
493.38	8395.3	
493.58	8983.8	
493.78	6657.9	
493.98	6334.4	
494.18	8183	
494.37	7752.2	
494.57	6890.7	
494.77	6683.9	
494.97	8396.7	
495.17	8669.1	
495.37	6460.7	
495.56	6778.1	
495.76	8777.6	
495.96	8545.5	
496.16	7490.1	
496.36	6662.7	
496.55	8676.6	
496.75	8317.5	
496.95	7038.9	
497.15	6823.1	
497.35	8733.2	
497.54	8756.4	
497.74	6804.7	
497.94	8082.6	
498.14	9276.6	
498.34	9062.3	
498.53	6494.1	
498.73	7191.8	
498.93	8355	
499.13	8719.6	
499.33	7017	
499.52	7326.9	
499.72	8809	
499.92	8852	
500.12	6806.8	
500.32	7058.7	
500.51	8957.8	
500.71	8718.2	
500.91	7647.1	
501.11	7367.9	
501.31	8988.5	
501.5	9338.7	
501.7	7800.7	
501.9	7138.5	
502.1	8770.1	
502.29	9103.9	
502.49	7516	
502.69	7686.7	
502.89	8960.5	
503.09	8919.6	
503.28	6729.6	
503.48	6795.8	
503.68	8499.1	
503.88	8449.2	
504.07	7550.2	
504.27	7190.4	
504.47	8760.5	
504.67	8773.5	
504.86	7453.2	
505.06	7171.3	
505.26	8559.1	
505.46	9773.6	
505.65	7149.5	
505.85	7340.6	
506.05	8439.7	
506.25	8886.8	
506.44	6646.3	
506.64	7329.7	
506.84	8381.7	
507.04	9044.5	
507.23	6912.6	
507.43	7300.3	
507.63	9858.9	
507.83	8529.1	
508.02	7295.5	
508.22	6936.5	
508.42	10023	
508.62	8394.6	
508.81	7068.9	
509.01	7561.8	
509.21	8238.3	
509.4	8581	
509.6	7316.7	
509.8	6919.4	
510	8492.2	
510.19	9563.3	
510.39	6885.3	
510.59	6984.3	
510.79	8495	
510.98	9430.9	
511.18	6993.1	
511.38	7119.4	
511.57	9241.8	
511.77	8865	
511.97	7598.6	
512.17	6941.2	
512.36	9149.6	
512.56	9034.3	
512.76	6896.2	
512.95	6773.3	
513.15	9297.8	
513.35	8075.8	
513.55	7589.8	
513.74	6942.6	
513.94	9258.2	
514.14	8661.5	
514.33	7643	
514.53	7479.2	
514.73	8716.8	
514.92	8820.6	
515.12	7120.1	
515.32	7036.1	
515.51	9048.6	
515.71	9365.4	
515.91	8376.9	
516.11	7022.5	
516.3	10187	
516.5	8772.8	
516.7	7565.9	
516.89	8098.4	
517.09	8806.9	
517.29	8834.3	
517.48	7834.2	
517.68	7413	
517.88	8654	
518.07	9199.5	
518.27	7874.4	
518.47	7090.8	
518.66	9559.9	
518.86	8579.6	
519.06	7017	
519.25	7238.9	
519.45	8892.3	
519.65	9981.1	
519.84	7864.2	
520.04	8394.6	
520.24	10383	
520.43	9374.2	
520.63	7701	
520.83	7565.9	
521.02	8845.2	
521.22	9429.5	
521.42	7901.1	
521.61	8374.8	
521.81	9032.9	
522.01	9227.5	
522.2	7753.6	
522.4	7714.7	
522.6	9607.7	
522.79	8583.7	
522.99	7793.9	
523.18	7307.8	
523.38	9546.3	
523.58	9493.7	
523.77	8833.6	
523.97	7481.9	
524.17	10935	
524.36	10335	
524.56	8498.4	
524.76	8157.1	
524.95	9725.1	
525.15	9460.3	
525.34	8280.6	
525.54	8255.4	
525.74	10047	
525.93	9407	
526.13	9234.3	
526.33	8338	
526.52	10539	
526.72	10092	
526.91	9307.3	
527.11	8888.9	
527.31	10484	
527.5	10912	
527.7	8829.5	
527.89	8194.6	
528.09	9951.8	
528.29	10296	
528.48	9191.3	
528.68	8845.9	
528.87	10668	
529.07	10694	
529.27	8931.2	
529.46	8727.8	
529.66	10469	
529.85	10884	
530.05	8639	
530.25	9162.6	
530.44	11687	
530.64	10469	
530.83	8781.7	
531.03	9204.9	
531.23	10987	
531.42	10768	
531.62	9624.1	
531.81	9156.5	
532.01	11101	
532.21	11370	
532.4	9004.9	
532.6	9352.4	
532.79	11886	
532.99	11341	
533.18	9564.7	
533.38	10273	
533.58	11088	
533.77	11631	
533.97	9677.3	
534.16	10273	
534.36	11901	
534.55	11141	
534.75	10396	
534.95	9704.6	
535.14	11875	
535.34	11224	
535.53	9501.2	
535.73	10989	
535.92	12378	
536.12	11389	
536.31	9670.5	
536.51	10540	
536.71	11616	
536.9	11348	
537.1	9732.6	
537.29	9956.5	
537.49	12060	
537.68	11292	
537.88	10245	
538.07	9609.8	
538.27	11618	
538.46	12410	
538.66	9503.9	
538.86	9890.3	
539.05	11584	
539.25	11916	
539.44	10190	
539.64	9867.8	
539.83	11651	
540.03	12336	
540.22	9850	
540.42	9796.8	
540.61	11744	
540.81	11665	
541	10265	
541.2	10785	
541.39	11326	
541.59	11615	
541.78	10495	
541.98	9836.4	
542.18	11076	
542.37	11183	
542.57	10084	
542.76	10638	
542.96	11118	
543.15	11523	
543.35	10071	
543.54	9570.2	
543.74	11746	
543.93	11397	
544.13	10008	
544.32	10729	
544.52	11768	
544.71	11208	
544.91	9204.9	
545.1	10239	
545.3	11150	
545.49	11561	
545.69	9216.5	
545.88	9790	
546.08	12531	
546.27	12008	
546.47	10128	
546.66	9549	
546.86	11800	
547.05	12212	
547.24	9711.5	
547.44	9620.7	
547.63	11028	
547.83	11854	
548.02	9949	
548.22	10001	
548.41	10902	
548.61	11785	
548.8	9508.7	
549	9607.7	
549.19	11361	
549.39	11658	
549.58	9272.5	
549.78	9693.7	
549.97	11635	
550.17	11218	
550.36	10363	
550.55	11028	
550.75	11183	
550.94	11844	
551.14	9430.2	
551.33	9634.3	
551.53	10751	
551.72	11501	
551.92	9766.1	
552.11	9462.3	
552.31	11532	
552.5	11462	
552.69	10710	
552.89	9297.1	
553.08	11411	
553.28	11190	
553.47	9531.2	
553.67	10299	
553.86	11880	
554.06	10546	
554.25	8896.4	
554.44	9355.1	
554.64	12415	
554.83	12045	
555.03	9321.7	
555.22	9598.8	
555.42	11542	
555.61	11254	
555.8	9458.2	
556	9680.1	
556.19	10617	
556.39	11553	
556.58	9429.5	
556.78	9431.6	
556.97	11234	
557.16	10996	
557.36	10475	
557.55	9201.5	
557.75	10488	
557.94	11815	
558.13	9230.2	
558.33	9114.1	
558.52	11637	
558.72	10733	
558.91	9179	
559.1	9366	
559.3	10591	
559.49	10314	
559.69	8868.4	
559.88	9532.6	
560.07	11037	
560.27	11460	
560.46	9676.7	
560.66	9834.3	
560.85	11002	
561.04	10365	
561.24	9011.1	
561.43	9189.9	
561.63	10507	
561.82	10671	
562.01	10057	
562.21	9373.6	
562.4	10971	
562.59	11679	
562.79	9199.5	
562.98	8982.4	
563.18	10958	
563.37	12030	
563.56	9539.4	
563.76	9018.6	
563.95	10571	
564.14	10578	
564.34	9399.5	
564.53	9051.3	
564.73	11017	
564.92	11211	
565.11	9538.8	
565.31	9007.6	
565.5	11413	
565.69	10608	
565.89	9198.8	
566.08	9435	
566.27	11264	
566.47	11731	
566.66	9960	
566.85	8894.3	
567.05	11096	
567.24	10692	
567.44	9021.3	
567.63	10070	
567.82	11317	
568.02	10999	
568.21	9127.8	
568.4	9444.5	
568.6	10989	
568.79	10888	
568.98	8996.7	
569.18	9078	
569.37	11011	
569.56	12476	
569.76	9410.4	
569.95	10152	
570.14	11181	
570.34	11094	
570.53	9095	
570.72	9115.5	
570.91	11553	
571.11	10928	
571.3	9427.5	
571.49	10083	
571.69	11018	
571.88	10530	
572.07	9828.9	
572.27	9844.6	
572.46	10527	
572.65	11242	
572.85	9204.3	
573.04	9411.8	
573.23	11529	
573.43	11000	
573.62	9060.2	
573.81	9553.8	
574	11065	
574.2	10828	
574.39	9449.3	
574.58	9540.8	
574.78	11700	
574.97	11116	
575.16	9684.2	
575.36	9991.4	
575.55	11521	
575.74	11681	
575.93	9190.6	
576.13	10048	
576.32	11039	
576.51	11462	
576.71	9473.2	
576.9	10500	
577.09	11845	
577.28	11331	
577.48	9727.2	
577.67	9151	
577.86	11059	
578.05	11269	
578.25	9512.8	
578.44	9651.4	
578.63	11054	
578.83	12026	
579.02	9080.7	
579.21	10287	
579.4	11361	
579.6	11077	
579.79	9620.7	
579.98	11256	
580.17	11462	
580.37	11607	
580.56	9245.2	
580.75	9779.7	
580.94	11626	
581.14	11727	
581.33	10200	
581.52	9312.8	
581.71	11407	
581.91	11897	
582.1	9109.4	
582.29	9501.9	
582.48	11163	
582.68	11119	
582.87	9900.6	
583.06	9652.1	
583.25	11374	
583.45	11146	
583.64	10126	
583.83	10634	
584.02	11013	
584.21	11439	
584.41	9963.4	
584.6	9600.9	
584.79	11226	
584.98	11658	
585.18	9176.3	
585.37	9216.5	
585.56	10874	
585.75	11385	
585.94	9253.4	
586.14	9943.6	
586.33	11671	
586.52	11137	
586.71	9595.4	
586.91	9498.5	
587.1	10613	
587.29	11399	
587.48	9415.2	
587.67	9285.5	
587.87	11260	
588.06	11150	
588.25	10270	
588.44	9715.6	
588.63	10884	
588.83	11230	
589.02	9219.3	
589.21	9149	
589.4	10705	
589.59	10609	
589.78	8563.2	
589.98	8617.9	
590.17	10109	
590.36	10493	
590.55	8089.5	
590.74	8604.9	
590.94	11298	
591.13	10210	
591.32	8447.2	
591.51	8075.1	
591.7	10380	
591.89	10249	
592.09	8053.3	
592.28	8527.1	
592.47	9676	
592.66	11189	
592.85	8265.6	
593.05	8417.2	
593.24	10107	
593.43	10802	
593.62	8439.7	
593.81	8768	
594	10099	
594.19	10342	
594.39	8397.4	
594.58	8265.6	
594.77	10330	
594.96	10743	
595.15	8256.7	
595.34	8744.1	
595.54	10256	
595.73	9710.8	
595.92	7761.1	
596.11	8572.8	
596.3	10707	
596.49	9719	
596.68	8405.5	
596.88	8754.4	
597.07	10496	
597.26	9615.2	
597.45	8039.6	
597.64	9049.3	
597.83	9843.9	
598.02	10205	
598.22	8103.8	
598.41	8685.4	
598.6	10185	
598.79	9620.7	
598.98	8082.6	
599.17	8799.4	
599.36	10088	
599.55	10946	
599.74	9628.2	
599.94	9551.7	
600.13	10447	
600.32	9663	
600.51	7929.1	
600.7	8011.7	
600.89	10911	
601.08	10989	
601.27	7832.1	
601.47	8586.5	
601.66	10327	
601.85	10830	
602.04	8421.2	
602.23	8465.6	
602.42	9714.2	
602.61	10124	
602.8	8164.6	
602.99	8108.6	
603.18	9947.7	
603.37	10034	
603.57	8514.8	
603.76	9011.7	
603.95	10525	
604.14	10095	
604.33	8143.4	
604.52	8426	
604.71	10148	
604.9	9749.7	
605.09	8822.6	
605.28	8637	
605.47	10437	
605.66	10148	
605.86	8582.4	
606.05	8144.1	
606.24	10535	
606.43	9311.4	
606.62	8315.4	
606.81	8852.7	
607	10419	
607.19	9796.8	
607.38	7996.6	
607.57	8028	
607.76	9546.3	
607.95	9139.4	
608.14	8404.9	
608.33	8804.2	
608.52	9516.2	
608.72	10241	
608.91	7793.2	
609.1	7684.7	
609.29	9613.2	
609.48	9288.9	
609.67	8404.9	
609.86	7744.7	
610.05	9306.7	
610.24	9635.7	
610.43	7610.9	
610.62	7422.5	
610.81	10427	
611	10258	
611.19	7773.4	
611.38	8329.8	
611.57	9753.1	
611.76	10697	
611.95	7581.6	
612.14	7477.1	
612.33	9559.9	
612.52	9252	
612.71	7896.3	
612.9	7382.9	
613.09	8992.6	
613.28	10686	
613.47	7791.2	
613.66	8387.8	
613.85	9757.2	
614.04	9214.5	
614.24	7772.7	
614.43	7219.8	
614.62	9714.9	
614.81	9749	
615	8170.7	
615.19	8180.3	
615.38	9121.7	
615.57	9514.2	
615.76	8073.1	
615.95	8846.5	
616.14	9719	
616.33	9495.7	
616.52	8284	
616.71	8592.6	
616.9	9784.5	
617.09	9586.5	
617.28	7729	
617.47	8722.3	
617.66	9110.7	
617.85	9147.6	
618.04	8537.3	
618.22	8107.2	
618.41	9465	
618.6	10080	
618.79	8088.1	
618.98	7890.1	
619.17	10378	
619.36	9084.8	
619.55	8035.5	
619.74	8049.2	
619.93	9811.1	
620.12	9370.1	
620.31	8459.5	
620.5	8621.9	
620.69	10281	
620.88	10613	
621.07	9210.4	
621.26	8425.3	
621.45	10117	
621.64	10053	
621.83	8567.3	
622.02	7947.5	
622.21	10071	
622.4	9906	
622.59	8986.5	
622.78	8818.6	
622.97	9628.2	
623.16	10391	
623.35	8586.5	
623.54	7883.3	
623.72	9809.1	
623.91	9913.5	
624.1	8793.3	
624.29	7822.6	
624.48	10677	
624.67	10176	
624.86	8652.7	
625.05	8002.1	
625.24	10791	
625.43	9628.9	
625.62	9929.2	
625.81	8213.7	
626	10312	
626.19	9766.8	
626.38	8767.4	
626.56	8336.6	
626.75	9738.1	
626.94	10328	
627.13	8834.3	
627.32	7826	
627.51	10262	
627.7	11145	
627.89	7968	
628.08	8879.3	
628.27	9645.3	
628.46	9800.2	
628.65	8142.7	
628.83	7887.4	
629.02	10280	
629.21	9761.3	
629.4	8424	
629.59	8610.3	
629.78	9584.5	
629.97	10292	
630.16	8625.4	
630.35	8271.1	
630.54	10785	
630.72	10459	
630.91	8284	
631.1	8627.4	
631.29	10045	
631.48	10090	
631.67	8755.1	
631.86	8347.5	
632.05	9792.7	
632.24	9770.9	
632.42	8062.9	
632.61	8553.7	
632.8	9809.1	
632.99	9559.2	
633.18	8524.3	
633.37	8850.6	
633.56	10006	
633.75	9895.8	
633.93	8604.2	
634.12	8298.4	
634.31	10687	
634.5	10385	
634.69	8386.4	
634.88	8705.9	
635.07	9840.5	
635.25	10278	
635.44	8991.9	
635.63	9050.7	
635.82	9747.6	
636.01	9302.6	
636.2	8858.8	
636.39	8594.6	
636.57	10644	
636.76	10314	
636.95	8088.8	
637.14	9085.5	
637.33	10021	
637.52	10704	
637.7	8000	
637.89	8705.2	
638.08	9762.7	
638.27	10752	
638.46	8706.6	
638.65	8969.4	
638.83	10770	
639.02	9561.3	
639.21	8621.3	
639.4	8927.8	
639.59	9929.2	
639.78	9622.7	
639.96	7979.6	
640.15	8019.8	
640.34	9781.1	
640.53	9766.1	
640.72	7787.7	
640.91	7970.7	
641.09	9211.1	
641.28	10281	
641.47	7941.3	
641.66	8548.2	
641.85	9767.4	
642.03	9870.5	
642.22	8315.4	
642.41	8035.5	
642.6	9378.3	
642.79	8839	
642.97	7871	
643.16	8346.2	
643.35	9241.1	
643.54	9069.1	
643.73	7708.6	
643.91	8306.6	
644.1	8985.1	
644.29	9361.3	
644.48	7699.7	
644.67	7737.9	
644.85	8967.4	
645.04	9385.8	
645.23	7431.4	
645.42	7578.2	
645.6	8933.9	
645.79	9697.1	
645.98	7430.7	
646.17	6750.8	
646.36	8577.6	
646.54	8952.4	
646.73	8011.7	
646.92	7137.9	
647.11	8674.5	
647.29	9431.6	
647.48	7126.2	
647.67	7004.7	
647.86	9570.8	
648.05	9596.1	
648.23	7288	
648.42	8233.5	
648.61	9152.4	
648.8	8901.8	
648.98	6933.7	
649.17	7218.4	
649.36	8463.6	
649.55	8257.4	
649.73	6974	
649.92	7565.2	
650.11	8513.4	
650.3	8780.3	
650.48	7114.6	
650.67	6976.1	
650.86	8912.1	
651.05	8036.2	
651.23	7127.6	
651.42	7108.5	
651.61	8442.4	
651.79	8486.1	
651.98	7120.8	
652.17	6799.9	
652.36	8710.7	
652.54	8094.3	
652.73	6911.9	
652.92	6780.1	
653.11	8708	
653.29	8791.2	
653.48	6427.2	
653.67	7189.7	
653.85	8630.1	
654.04	9371.5	
654.23	7229.3	
654.42	6888	
654.6	8201.4	
654.79	8602.8	
654.98	6446.3	
655.16	6759.7	
655.35	7746.8	
655.54	7584.3	
655.73	6315.9	
655.91	6307.7	
656.1	8380.3	
656.29	7501.7	
656.47	5980.8	
656.66	7204.1	
656.85	7870.3	
657.03	7823.2	
657.22	6449.1	
657.41	6440.2	
657.59	7936.6	
657.78	7814.4	
657.97	6207.4	
658.16	6781.5	
658.34	8383	
658.53	8866.3	
658.72	7430	
658.9	7761.8	
659.09	8151.6	
659.28	8148.2	
659.46	6522.8	
659.65	6457.2	
659.84	7874.4	
660.02	8366.6	
660.21	6509.8	
660.4	6369.9	
660.58	8607.6	
660.77	8070.4	
660.96	6897.6	
661.14	6100.9	
661.33	8953	
661.52	8927.8	
661.7	6171.2	
661.89	8719.6	
662.08	7825.3	
662.26	7384.3	
662.45	6307.7	
662.64	6303.6	
662.82	8290.9	
663.01	7686.7	
663.2	6307.1	
663.38	6882.5	
663.57	8132.5	
663.75	8156.4	
663.94	6583.5	
664.13	7469.6	
664.31	7686	
664.5	8178.9	
664.69	6675.7	
664.87	7196.6	
665.06	7531.1	
665.25	8009.6	
665.43	7335.8	
665.62	7296.2	
665.8	8190.5	
665.99	7798	
666.18	6533	
666.36	6616.3	
666.55	8292.9	
666.74	8155	
666.92	6259.3	
667.11	7302.4	
667.29	7758.4	
667.48	8110.6	
667.67	7135.8	
667.85	6388.3	
668.04	7700.4	
668.22	7687.4	
668.41	6528.9	
668.6	6715.3	
668.78	7662.1	
668.97	7774.1	
669.15	6731	
669.34	6029.9	
669.53	7674.4	
669.71	7886.7	
669.9	6109.8	
670.08	6614.9	
670.27	7536.5	
670.46	7982.3	
670.64	6789	
670.83	6988.4	
671.01	7473.7	
671.2	7965.9	
671.38	6184.9	
671.57	6100.9	
671.76	8405.5	
671.94	8813.1	
672.13	6006.7	
672.31	6800.6	
672.5	7940.7	
672.69	7569.3	
672.87	6189	
673.06	6404	
673.24	7961.1	
673.43	7638.2	
673.61	6713.2	
673.8	6270.2	
673.98	8022.6	
674.17	8169.3	
674.36	6834.8	
674.54	6737.8	
674.73	7804.8	
674.91	8146.8	
675.1	6391.7	
675.28	6141.2	
675.47	7724.9	
675.65	8120.2	
675.84	6331.6	
676.03	6649.1	
676.21	7603.4	
676.4	7161.7	
676.58	6875	
676.77	6851.1	
676.95	8677.9	
677.14	7544	
677.32	6086.6	
677.51	6047	
677.69	8117.5	
677.88	7310.6	
678.06	5992.4	
678.25	6187.6	
678.44	7801.4	
678.62	7484	
678.81	5987.6	
678.99	6689.3	
679.18	8407.6	
679.36	8006.2	
679.55	6378.1	
679.73	6842.9	
679.92	7989.8	
680.1	7579.5	
680.29	7260	
680.47	6352.8	
680.66	7645.1	
680.84	8157.1	
681.03	5881.1	
681.21	6786.3	
681.4	7563.8	
681.58	7458.7	
681.77	6285.9	
681.95	6195.1	
682.14	8312	
682.32	8513.4	
682.51	6918.7	
682.69	6006	
682.88	7587	
683.06	7978.9	
683.25	6630	
683.43	7008.8	
683.62	7794.6	
683.8	8006.2	
683.99	7124.2	
684.17	6602.7	
684.36	8733.2	
684.54	7744.7	
684.73	5948.7	
684.91	6128.2	
685.1	7956.4	
685.28	7447.1	
685.46	6453.1	
685.65	6485.9	
685.83	7940	
686.02	7531.1	
686.2	6068.1	
686.39	6139.1	
686.57	7249.1	
686.76	8456.7	
686.94	6072.2	
687.13	6235.4	
687.31	7930.4	
687.5	7591.8	
687.68	5872.2	
687.86	6728.3	
688.05	8931.2	
688.23	7312.6	
688.42	6864.1	
688.6	6101.6	
688.79	7670.3	
688.97	7752.2	
689.16	6664.8	
689.34	5823.1	
689.52	8316.8	
689.71	8432.2	
689.89	6992.4	
690.08	6397.2	
690.26	8045.8	
690.45	7960.5	
690.63	7102.4	
690.81	6712.6	
691	7989.1	
691.18	7806.2	
691.37	6793.8	
691.55	8383.7	
691.74	7859.4	
691.92	9376.3	
692.1	6851.1	
692.29	6407.4	
692.47	8041	
692.66	7527	
692.84	6634.7	
693.02	6980.2	
693.21	7656	
693.39	8137.9	
693.58	7182.2	
693.76	6729.6	
693.94	9067	
694.13	8915.5	
694.31	6851.1	
694.5	7588.4	
694.68	8155	
694.86	8531.8	
695.05	7229.3	
695.23	7335.8	
695.42	8798.8	
695.6	10574	
695.78	7835.5	
695.97	7157	
696.15	9050	
696.34	8505.2	
696.52	7009.5	
696.7	7663.5	
696.89	8813.8	
697.07	8417.8	
697.25	7569.3	
697.44	8776.9	
697.62	8865	
697.81	9049.3	
697.99	7419.1	
698.17	7758.4	
698.36	8346.8	
698.54	9013.8	
698.72	7806.9	
698.91	6965.8	
699.09	8697.7	
699.28	8479.3	
699.46	7565.2	
699.64	7316.7	
699.83	8584.4	
700.01	9399.5	
700.19	8132.5	
700.38	6905.1	
700.56	9403.6	
700.74	8718.9	
700.93	7230	
701.11	7968	
701.29	9154.4	
701.48	10047	
701.66	7484.6	
701.84	7672.4	
702.03	8966.7	
702.21	9529.2	
702.39	7337.2	
702.58	7874.4	
702.76	9379	
702.94	9501.9	
703.13	7352.9	
703.31	9283.4	
703.49	8992.6	
703.68	10110	
703.86	7636.2	
704.04	8381	
704.23	9445.9	
704.41	9669.1	
704.59	7830.1	
704.78	8573.5	
704.96	10651	
705.14	9762.7	
705.33	7759.1	
705.51	8254.7	
705.69	9311.4	
705.87	9947	
706.06	8554.4	
706.24	7625.3	
706.42	9727.2	
706.61	9848	
706.79	8541.4	
706.97	7733.8	
707.16	9243.8	
707.34	9637.1	
707.52	8480.6	
707.7	8004.8	
707.89	9394.7	
708.07	9156.5	
708.25	8615.1	
708.44	8786.5	
708.62	9360.6	
708.8	10170	
708.98	8859.5	
709.17	8198.7	
709.35	9836.4	
709.53	9579.7	
709.72	7804.8	
709.9	8273.8	
710.08	9961.3	
710.26	9963.4	
710.45	9053.4	
710.63	8157.1	
710.81	9601.6	
710.99	9733.3	
711.18	8589.9	
711.36	8214.4	
711.54	9566.1	
711.72	10122	
711.91	8222.6	
712.09	7863.5	
712.27	9662.3	
712.45	10031	
712.64	8402.1	
712.82	7716.7	
713	9116.2	
713.18	9186.5	
713.37	7645.8	
713.55	8546.9	
713.73	9809.8	
713.91	8635.6	
714.1	7683.3	
714.28	7297.6	
714.46	9215.9	
714.64	8570.1	
714.83	6591	
715.01	7068.2	
715.19	8273.8	
715.37	7727	
715.55	6632.7	
715.74	6875.7	
715.92	8783.7	
716.1	7307.8	
716.28	7649.2	
716.47	6945.3	
716.65	7875.8	
716.83	7838.9	
717.01	6793.8	
717.19	6716.7	
717.38	9462.3	
717.56	7637.6	
717.74	6974.7	
717.92	6390.3	
718.1	8516.8	
718.29	8050.6	
718.47	6122.1	
718.65	6715.3	
718.83	8724.3	
719.01	8788.5	
719.2	6402	
719.38	7278.5	
719.56	8715.5	
719.74	9877.4	
719.92	7077.8	
720.11	7787.1	
720.29	8798.1	
720.47	8015.1	
720.65	6553.5	
720.83	7117.4	
721.02	8085.4	
721.2	7800.7	
721.38	7059.3	
721.56	6395.1	
721.74	7475.1	
721.92	7479.2	
722.11	7275.1	
722.29	7022.5	
722.47	8428.1	
722.65	7778.2	
722.83	6399.2	
723.01	7036.1	
723.2	7833.5	
723.38	8163.9	
723.56	6032.6	
723.74	6842.9	
723.92	7581.6	
724.1	8340	
724.29	6317.3	
724.47	7163.1	
724.65	7621.9	
724.83	7554.3	
725.01	6211.5	
725.19	6862.7	
725.37	7527	
725.56	7522.2	
725.74	6087.2	
725.92	6319.3	
726.1	7524.2	
726.28	7778.2	
726.46	6633.4	
726.64	6304.3	
726.83	7735.9	
727.01	7806.2	
727.19	6120	
727.37	6701	
727.55	7864.2	
727.73	8136.6	
727.91	6067.4	
728.09	5986.2	
728.28	8235.6	
728.46	8473.1	
728.64	6821.1	
728.82	6806.8	
729	9047.9	
729.18	8522.3	
729.36	6199.2	
729.54	7892.2	
729.72	9376.3	
729.91	8087.4	
730.09	7733.8	
730.27	6869.6	
730.45	8116.1	
730.63	8481.3	
730.81	7307.2	
730.99	6768.5	
731.17	9047.9	
731.35	7921.5	
731.53	6992.4	
731.71	6744	
731.9	8743.5	
732.08	8762.6	
732.26	6886.6	
732.44	6623.8	
732.62	8823.3	
732.8	8437.6	
732.98	7231.4	
733.16	6488	
733.34	8403.5	
733.52	7335.8	
733.7	6776	
733.88	6904.4	
734.07	8241.7	
734.25	8088.1	
734.43	6354.2	
734.61	7453.2	
734.79	9170.1	
734.97	7954.3	
735.15	6444.3	
735.33	6688.7	
735.51	8213.7	
735.69	7942.7	
735.87	7567.9	
736.05	6715.3	
736.23	8049.2	
736.41	7757	
736.59	6552.1	
736.77	6768.5	
736.95	8371.4	
737.13	7845.1	
737.32	6413.6	
737.5	6483.2	
737.68	8765.3	
737.86	7698.3	
738.04	6247.7	
738.22	7566.6	
738.4	7542	
738.58	7806.2	
738.76	6576.7	
738.94	5817.6	
739.12	7671	
739.3	7608.2	
739.48	7032	
739.66	6740.5	
739.84	7798	
740.02	7781.6	
740.2	5930.2	
740.38	6069.5	
740.56	8043.7	
740.74	7131	
740.92	6633.4	
741.1	6411.5	
741.28	7607.5	
741.46	7411.6	
741.64	6166.4	
741.82	6543.9	
742	7601.4	
742.18	7471.7	
742.36	6296.1	
742.54	5926.1	
742.72	7961.8	
742.9	7008.8	
743.08	6512.5	
743.26	5625.8	
743.44	8024.6	
743.62	7816.4	
743.8	6649.1	
743.98	5900.2	
744.16	7586.4	
744.34	7370	
744.52	6421.1	
744.7	6377.4	
744.88	7657.4	
745.06	7195.2	
745.24	6365.8	
745.42	6395.1	
745.6	7761.1	
745.78	7459.4	
745.96	5430.5	
746.14	5636	
746.32	8180.3	
746.5	7411.6	
746.68	6014.2	
746.86	5582.1	
747.03	7800	
747.21	6518	
747.39	5910.4	
747.57	5536.3	
747.75	7201.3	
747.93	7466.9	
748.11	5569.8	
748.29	5429.8	
748.47	8466.3	
748.65	6905.1	
748.83	6032.6	
749.01	5810.1	
749.19	7309.9	
749.37	6582.9	
749.55	5750.7	
749.73	5876.3	
749.91	7064.1	
750.09	6863.4	
750.26	5836	
750.44	5285.8	
750.62	7025.9	
750.8	6946	
750.98	5248.3	
751.16	5378	
751.34	7047.1	
751.52	6510.5	
751.7	6075.6	
751.88	5160.9	
752.06	7339.2	
752.24	7148.1	
752.42	5075.5	
752.59	5331.5	
752.77	6850.5	
752.95	7856.7	
753.13	5889.3	
753.31	5396.4	
753.49	6644.3	
753.67	6917.4	
753.85	5618.3	
754.03	5207.3	
754.21	7101.7	
754.38	7338.6	
754.56	5306.3	
754.74	4525.3	
754.92	6328.9	
755.1	6803.4	
755.28	4422.9	
755.46	4334.9	
755.64	7258.7	
755.82	7163.1	
755.99	4269.3	
756.17	4225	
756.35	4971.8	
756.53	6100.2	
756.71	3210.5	
756.89	3941	
757.07	5757.5	
757.25	5038	
757.42	4404.5	
757.6	5147.9	
757.78	5969.1	
757.96	5222.3	
758.14	4330.8	
758.32	3990.1	
758.5	4947.9	
758.67	5532.2	
758.85	4132.8	
759.03	4242	
759.21	5662.6	
759.39	5242.1	
759.57	3794.2	
759.75	4709.6	
759.92	6255.2	
760.1	5770.5	
760.28	5040.7	
760.46	5277.6	
760.64	5516.5	
760.82	5369.8	
760.99	5013.4	
761.17	4321.9	
761.35	6251.1	
761.53	5416.2	
761.71	4487.1	
761.89	5012.7	
762.06	6178	
762.24	5775.3	
762.42	4605.2	
762.6	4531.5	
762.78	5846.3	
762.96	6275.7	
763.13	4954.7	
763.31	4648.2	
763.49	6384.2	
763.67	5815.5	
763.85	5391.6	
764.02	5768.4	
764.2	6712.6	
764.38	5977.3	
764.56	4632.5	
764.74	5283.1	
764.91	6707.1	
765.09	5780.1	
765.27	4368.3	
765.45	4186.7	
765.63	6716	
765.8	6599.9	
765.98	3994.2	
766.16	4237.9	
766.34	5503.6	
766.52	5294	
766.69	4848.2	
766.87	4083.6	
767.05	5776.6	
767.23	6395.1	
767.41	4235.2	
767.58	4457.1	
767.76	6204.7	
767.94	6234.7	
768.12	4334.9	
768.29	4814.1	
768.47	5725.4	
768.65	6263.4	
768.83	3960.1	
769	4807.3	
769.18	5416.9	
769.36	5937.7	
769.54	4761.5	
769.72	3938.9	
769.89	6179.4	
770.07	6183.5	
770.25	4200.4	
770.43	5182.7	
770.6	6720.1	
770.78	6978.8	
770.96	4320.5	
771.14	4790.9	
771.31	6034.7	
771.49	5558.9	
771.67	3659.7	
771.85	3812.6	
772.02	4951.3	
772.2	5474.2	
772.38	4441.4	
772.55	4027.7	
772.73	5623.7	
772.91	5445.5	
773.09	4268	
773.26	4320.5	
773.44	5621.7	
773.62	5394.3	
773.8	3895.9	
773.97	3634.5	
774.15	5597.1	
774.33	5311.7	
774.5	3728.7	
774.68	4033.1	
774.86	5689.9	
775.04	5362.9	
775.21	3803.1	
775.39	3738.2	
775.57	5541.1	
775.74	5727.5	
775.92	3622.2	
776.1	3551.2	
776.27	5433.9	
776.45	6420.4	
776.63	3743	
776.81	3422.8	
776.98	5186.8	
777.16	5949.3	
777.34	3793.5	
777.51	4105.5	
777.69	5139.7	
777.87	4980.7	
778.04	3863.8	
778.22	4362.2	
778.4	5022.3	
778.57	5457.2	
778.75	3265.1	
778.93	3519.8	
779.1	4836.6	
779.28	4705.5	
779.46	3284.9	
779.64	3618.1	
779.81	5609.4	
779.99	6227.9	
780.17	4252.3	
780.34	4308.2	
780.52	5208	
780.69	5304.9	
780.87	3885	
781.05	3530.7	
781.22	5231.9	
781.4	5203.2	
781.58	3640.6	
781.75	2976.4	
781.93	5219.6	
782.11	4684.4	
782.28	4290.5	
782.46	3577.8	
782.64	4539	
782.81	5299.5	
782.99	3694.5	
783.17	3604.4	
783.34	5198.4	
783.52	4698	
783.69	3750.5	
783.87	4416.1	
784.05	4716.5	
784.22	4746.5	
784.4	4309.6	
784.58	3857.7	
784.75	5485.8	
784.93	4703.5	
785.1	3540.3	
785.28	4015.4	
785.46	5236.7	
785.63	4624.3	
785.81	3568.9	
785.99	3395.5	
786.16	4823.6	
786.34	5046.2	
786.51	3404.4	
786.69	3786	
786.87	4476.2	
787.04	4825	
787.22	3251.5	
787.39	4018.8	
787.57	4657.8	
787.75	5520	
787.92	4203.8	
788.1	4101.4	
788.27	4641.4	
788.45	4394.9	
788.63	3902.7	
788.8	2915.6	
788.98	4972.5	
789.15	4389.5	
789.33	3118.4	
789.5	3470.6	
789.68	5390.9	
789.86	5427.8	
790.03	3802.4	
790.21	3394.8	
790.38	5345.2	
790.56	4747.2	
790.73	3309.5	
790.91	3266.5	
791.09	4674.8	
791.26	5135.6	
791.44	3488.4	
791.61	3037.1	
791.79	4585.4	
791.96	4634.6	
792.14	3129.3	
792.32	2782.5	
792.49	4589.5	
792.67	4733.5	
792.84	3197.6	
793.02	3072.6	
793.19	4967	
793.37	5522	
793.54	2813.2	
793.72	3099.3	
793.89	5597.8	
794.07	4554	
794.25	3397.6	
794.42	2882.2	
794.6	5464.7	
794.77	4997	
794.95	3736.9	
795.12	3327.9	
795.3	4575.2	
795.47	4967	
795.65	3641.3	
795.82	3487	
796	4444.1	
796.17	5788.9	
796.35	3385.3	
796.52	3941	
796.7	4990.2	
796.87	5086.5	
797.05	3382.6	
797.22	4079.6	
797.4	5094.7	
797.57	5736.4	
797.75	3508.2	
797.92	3312.9	
798.1	5317.9	
798.27	4489.1	
798.45	2937.5	
798.62	3126.6	
798.8	4795	
798.97	5212.8	
799.15	3610.6	
799.32	3490.4	
799.5	4242.7	
799.67	4825.7	
799.85	3738.2	
800.02	2758.6	
800.2	4506.2	
800.37	4798.4	
800.55	3805.1	
800.72	3323.9	
800.9	5153.4	
801.07	5490.6	
801.25	4307.6	
801.42	3593.5	
801.6	5217.5	
801.77	4843.4	
801.95	3377.8	
802.12	3241.3	
802.29	4999.8	
802.47	4856.4	
802.64	3521.8	
802.82	2764.1	
802.99	4468.7	
803.17	5156.1	
803.34	3494.5	
803.52	3134.8	
803.69	5733.6	
803.87	4293.9	
804.04	3444.7	
804.21	3435.1	
804.39	5384.8	
804.56	4634.6	
804.74	2950.4	
804.91	3587.4	
805.09	4511	
805.26	4619.5	
805.44	3031	
805.61	3293.8	
805.78	5048.9	
805.96	5080.3	
806.13	3554.6	
806.31	3762.1	
806.48	4146.5	
806.66	4607.9	
806.83	3493.2	
807	3491.8	
807.18	4526.7	
807.35	4823	
807.53	3463.1	
807.7	2823.5	
807.87	5404.6	
808.05	4494.6	
808.22	3697.3	
808.4	2838.5	
808.57	4516.5	
808.74	4284.4	
808.92	3170.3	
809.09	3951.9	
809.27	4515.8	
809.44	4868.7	
809.61	2828.2	
809.79	3143.6	
809.96	5483.1	
810.14	5088.5	
810.31	2740.9	
810.48	3379.1	
810.66	4603.2	
810.83	5101.5	
811.01	3153.2	
811.18	3469.3	
811.35	5073.5	
811.53	4034.5	
811.7	3774.4	
811.87	3525.2	
812.05	4554.7	
812.22	4459.1	
812.39	3059	
812.57	3000.3	
812.74	4584.7	
812.92	5790.3	
813.09	3344.3	
813.26	3557.3	
813.44	5577.3	
813.61	4399.7	
813.78	2836.4	
813.96	3654.3	
814.13	4576.5	
814.3	4294.6	
814.48	3869.3	
814.65	3242.6	
814.82	5352	
815	4248.9	
815.17	3411.9	
815.34	4037.2	
815.52	4492.6	
815.69	4439.3	
815.87	3330	
816.04	3290.4	
816.21	4499.4	
816.38	4135.5	
816.56	3261.7	
816.73	3055.6	
816.9	5605.3	
817.08	5028.4	
817.25	3092.4	
817.42	3801.7	
817.6	4207.9	
817.77	4515.1	
817.94	3401	
818.12	3042.6	
818.29	4323.9	
818.46	6243.6	
818.64	3213.9	
818.81	2929.3	
818.98	4314.4	
819.16	5857.9	
819.33	3651.5	
819.5	3479.5	
819.67	4841.4	
819.85	5261.2	
820.02	3325.2	
820.19	3519.1	
820.37	4681	
820.54	4352.6	
820.71	3385.3	
820.88	4205.8	
821.06	4708.3	
821.23	4284.4	
821.4	3479.5	
821.58	3379.1	
821.75	5010	
821.92	4624.3	
822.09	2841.9	
822.27	2878.8	
822.44	4493.9	
822.61	4407.9	
822.79	2834.4	
822.96	5196.4	
823.13	4837.3	
823.3	4240.7	
823.48	3220.1	
823.65	2941.6	
823.82	5067.4	
823.99	4205.2	
824.17	3956	
824.34	2967.5	
824.51	5754.1	
824.68	4564.9	
824.86	3089	
825.03	3415.3	
825.2	4497.3	
825.37	5263.3	
825.55	3093.8	
825.72	3359.4	
825.89	5706.3	
826.06	5415.5	
826.24	3336.1	
826.41	3315.7	
826.58	5385.5	
826.75	4737	
826.92	2698.5	
827.1	2918.4	
827.27	7004.7	
827.44	5656.5	
827.61	3117.7	
827.79	3734.1	
827.96	4381.3	
828.13	4503.5	
828.3	3301.3	
828.47	2828.9	
828.65	4794.3	
828.82	4700.8	
828.99	4101.4	
829.16	3620.1	
829.34	5072.8	
829.51	4907.6	
829.68	3362.1	
829.85	3430.3	
830.02	5346.6	
830.2	5053	
830.37	2665.1	
830.54	3986.7	
830.71	5585.5	
830.88	4500.8	
831.05	2702.6	
831.23	3076	
831.4	5453.1	
831.57	5978	
831.74	3166.8	
831.91	2831.7	
832.09	4853	
832.26	5042.1	
832.43	3235.1	
832.6	3588.7	
832.77	4774.5	
832.94	5236.7	
833.12	2601.6	
833.29	3177.1	
833.46	4865.3	
833.63	6070.9	
833.8	3463.8	
833.97	3212.6	
834.15	5029.1	
834.32	4861.2	
834.49	3334.1	
834.66	3384.6	
834.83	5154.1	
835	4369	
835.17	3118.4	
835.35	3111.5	
835.52	4962.2	
835.69	4840	
835.86	3287	
836.03	2714.9	
836.2	5014.1	
836.37	4708.3	
836.55	3189.4	
836.72	3072.6	
836.89	4696.7	
837.06	5135.6	
837.23	3262.4	
837.4	3485	
837.57	5661.3	
837.75	6137.1	
837.92	2931.3	
838.09	3176.4	
838.26	4703.5	
838.43	5240.1	
838.6	3351.2	
838.77	3093.1	
838.94	5787.6	
839.11	5656.5	
839.29	3239.2	
839.46	2600.2	
839.63	5003.9	
839.8	4773.8	
839.97	3162.1	
840.14	3080.1	
840.31	4909.7	
840.48	5058.5	
840.65	2628.9	
840.82	3082.2	
841	4982.7	
841.17	4902.8	
841.34	2906.8	
841.51	2951.8	
841.68	4996.4	
841.85	4718.5	
842.02	3058.3	
842.19	2570.9	
842.36	4850.3	
842.53	4841.4	
842.7	2923.8	
842.87	3465.2	
843.05	6079.1	
843.22	4736.3	
843.39	2801.6	
843.56	2998.2	
843.73	4612	
843.9	5097.4	
844.07	4513.7	
844.24	3787.4	
844.41	6822.5	
844.58	4377.9	
844.75	2831.7	
844.92	3017.3	
845.09	4983.4	
845.26	4985.4	
845.43	2835.1	
845.6	3071.3	
845.77	5026.4	
845.94	4764.3	
846.12	3178.4	
846.29	3275.4	
846.46	5195.7	
846.63	4960.2	
846.8	2837.8	
846.97	3383.2	
847.14	5400.5	
847.31	4911.7	
847.48	3207.8	
847.65	3457.7	
847.82	5141.8	
847.99	5116.5	
848.16	3717.7	
848.33	3472.7	
848.5	4654.4	
848.67	5330.9	
848.84	2852.8	
849.01	2998.2	
849.18	4601.8	
849.35	4280.3	
849.52	3545	
849.69	2841.2	
849.86	5189.6	
850.03	5253.7	
850.2	2867.8	
850.37	3501.3	
850.54	5216.2	
850.71	4732.9	
850.88	3463.8	
851.05	2802.3	
851.22	4876.9	
851.39	5390.9	
851.56	2687.6	
851.73	3306.1	
851.9	4442	
852.07	5156.8	
852.24	3190.1	
852.41	2866.5	
852.58	4935.6	
852.75	4537.6	
852.92	3180.5	
853.09	2807.1	
853.26	4617.5	
853.43	5296	
853.6	2903.3	
853.77	2476	
853.94	5393	
854.11	4451.6	
854.28	4106.9	
854.44	3116.3	
854.61	5657.2	
854.78	5185.5	
854.95	2849.4	
855.12	3519.8	
855.29	4156	
855.46	5405.3	
855.63	2874.7	
855.8	3839.9	
855.97	4584	
856.14	5200.5	
856.31	3988.8	
856.48	3140.2	
856.65	4683	
856.82	4356.7	
856.99	2775.7	
857.16	3082.2	
857.33	5885.2	
857.49	4700.1	
857.66	3042.6	
857.83	3274.7	
858	4739.7	
858.17	4909	
858.34	2745	
858.51	2890.4	
858.68	5488.6	
858.85	5508.4	
859.02	3317	
859.19	3420.8	
859.36	4450.2	
859.52	4459.1	
859.69	2859.6	
859.86	3311.6	
860.03	4449.6	
860.2	5382.7	
860.37	2642.6	
860.54	2939.5	
860.71	5119.2	
860.88	5401.2	
861.05	3170.3	
861.21	3551.9	
861.38	5425.8	
861.55	4240	
861.72	2630.3	
861.89	3185.3	
862.06	5176.6	
862.23	5500.8	
862.4	2816	
862.56	2987.3	
862.73	5055.1	
862.9	4791.6	
863.07	3328.6	
863.24	2631.6	
863.41	4386.1	
863.58	4468.7	
863.75	2959.3	
863.91	3274.7	
864.08	5354.1	
864.25	5081.7	
864.42	3516.4	
864.59	3961.5	
864.76	5623.7	
864.93	4420.9	
865.09	2748.4	
865.26	3021.4	
865.43	5326.1	
865.6	5550.7	
865.77	2593.4	
865.94	2796.8	
866.1	5326.8	
866.27	5104.9	
866.44	4196.3	
866.61	2760.7	
866.78	4700.8	
866.95	5092.6	
867.11	2814.6	
867.28	2615.9	
867.45	5276.9	
867.62	4457.1	
867.79	3295.2	
867.96	2813.2	
868.12	4369.7	
868.29	5131.5	
868.46	2889	
868.63	3701.4	
868.8	5260.5	
868.97	5102.9	
869.13	3013.9	
869.3	2972.3	
869.47	4984.8	
869.64	5271.5	
869.81	2871.3	
869.97	2874.7	
870.14	4891.9	
870.31	5466	
870.48	2794.1	
870.65	3463.1	
870.81	4712.4	
870.98	4735.6	
871.15	3182.5	
871.32	2998.2	
871.48	5048.9	
871.65	5485.1	
871.82	2858.3	
871.99	3119.1	
872.16	5789.6	
872.32	5312.4	
872.49	2931.3	
872.66	2854.2	
872.83	5155.4	
872.99	4531.5	
873.16	3278.8	
873.33	2813.9	
873.5	4839.4	
873.67	4883	
873.83	2979.8	
874	3698.6	
874.17	4992.3	
874.34	5684.5	
874.5	3601	
874.67	3500.7	
874.84	5389.6	
875.01	4351.3	
875.17	3962.1	
875.34	2829.6	
875.51	4915.8	
875.68	5826.5	
875.84	3383.9	
876.01	4048.8	
876.18	5094.7	
876.34	5028.4	
876.51	2876.7	
876.68	2793.4	
876.85	4670.7	
877.01	5357.5	
877.18	3973.1	
877.35	2811.2	
877.52	4851.6	
877.68	4370.4	
877.85	2848	
878.02	2806.4	
878.18	4698	
878.35	4625	
878.52	2319	
878.69	3149.1	
878.85	5175.2	
879.02	5132.9	
879.19	3972.4	
879.35	3072.6	
879.52	5115.1	
879.69	5205.3	
879.86	2539.5	
880.02	3151.8	
880.19	4762.2	
880.36	5684.5	
880.52	3224.2	
880.69	3331.4	
880.86	5184.1	
881.02	5219.6	
881.19	3124.5	
881.36	3033	
881.52	5079	
881.69	4533.5	
881.86	3115.6	
882.02	3003	
882.19	5322	
882.36	5997.1	
882.52	2921.8	
882.69	3963.5	
882.86	4942.4	
883.02	4829.8	
883.19	3379.8	
883.36	3211.9	
883.52	5143.1	
883.69	5776	
883.86	2904.7	
884.02	2617.3	
884.19	5083.7	
884.36	4820.9	
884.52	3183.9	
884.69	3013.9	
884.86	4620.9	
885.02	5567.1	
885.19	3197.6	
885.36	3278.8	
885.52	4792.2	
885.69	4973.2	
885.86	4056.3	
886.02	3567.6	
886.19	5117.2	
886.35	4715.1	
886.52	3139.5	
886.69	3925.3	
886.85	4446.1	
887.02	5345.9	
887.19	5345.9	
887.35	5345.9	
887.52	5345.9	
887.68	5345.9	
887.85	5345.9	
888.02	5345.9	
888.18	5345.9	
888.35	5345.9	
888.51	5345.9	
888.68	5345.9	
888.85	5345.9	
889.01	5345.9	
889.18	5345.9	
889.35	5345.9	
889.51	5345.9	
889.68	5345.9	
889.84	5345.9	
890.01	5345.9	
890.17	5345.9	
890.34	5345.9	
890.51	5345.9	
890.67	5345.9	
890.84	5345.9	
891	5345.9	
891.17	5345.9	
891.34	5345.9	
891.5	5345.9	
891.67	5345.9	
891.83	5345.9	
892	5345.9	
892.16	5345.9	
892.33	5345.9	
892.5	5345.9	
892.66	5345.9	
892.83	5345.9	
892.99	5345.9	
893.16	5345.9	
893.32	5345.9	
893.49	5345.9	
893.65	5345.9	
893.82	5345.9	
893.99	5345.9	
894.15	5345.9	
894.32	5345.9	
894.48	5345.9	
894.65	5345.9	
894.81	5345.9	
894.98	5345.9	
895.14	5345.9	
895.31	5345.9	
895.47	5345.9	
895.64	5345.9	
895.81	5345.9	
895.97	5345.9	
896.14	5345.9	
896.3	5345.9	
896.47	5345.9	
896.63	5345.9	
896.8	5345.9	
896.96	5345.9	
897.13	5345.9	
897.29	5345.9	
897.46	5345.9	
897.62	5345.9	
897.79	5345.9	
897.95	5345.9	
898.12	5345.9	
898.28	5345.9	
898.45	5345.9	
898.61	5345.9	
898.78	5345.9	
898.94	5345.9	
899.11	5345.9	
899.27	5345.9	
899.44	5345.9	
899.6	5345.9	
899.77	5345.9	
899.93	5345.9	
900.1	5345.9	
900.26	5345.9	
900.43	5345.9	
900.59	5345.9	
900.76	5345.9	
900.92	5345.9	
901.09	5345.9	
901.25	5345.9	
901.42	5345.9	
901.58	5345.9	
901.75	5345.9	
901.91	5345.9	
902.07	5345.9	
902.24	5345.9	
902.4	5345.9	
902.57	5345.9	
902.73	5345.9	
902.9	5345.9	
903.06	5345.9	
903.23	5345.9	
903.39	5345.9	
903.56	5345.9	
903.72	5345.9	
903.88	5345.9	
904.05	5345.9	
904.21	5345.9	
904.38	5345.9	
904.54	5345.9	
904.71	5345.9	
904.87	5345.9	
905.03	5345.9	
905.2	5345.9	
905.36	5345.9	
905.53	5345.9	
905.69	5345.9	
905.86	5345.9	
906.02	5345.9	
906.18	5345.9	
906.35	5345.9	
906.51	5345.9	
906.68	5345.9	
906.84	5345.9	
907.01	5345.9	
907.17	5345.9	
907.33	5345.9	
907.5	5345.9	
907.66	5345.9	
907.83	5345.9	
907.99	5345.9	
908.15	5345.9	
908.32	5345.9	
908.48	5345.9	
908.65	5345.9	
908.81	5345.9	
908.97	5345.9	
909.14	5345.9	
909.3	5345.9	
909.47	5345.9	
909.63	5345.9	
909.79	5345.9	
909.96	5345.9	
910.12	5345.9	
910.28	5345.9	
910.45	5345.9	
910.61	5345.9	
910.78	5345.9	
910.94	5345.9	
911.1	5345.9	
911.27	5345.9	
911.43	5345.9	
911.59	5345.9	
911.76	5345.9	
911.92	5345.9	
912.08	5345.9	
912.25	5345.9	
912.41	5345.9	
912.57	5345.9	
912.74	5345.9	
912.9	5345.9	
913.07	5345.9	
913.23	5345.9	
913.39	5345.9	
913.56	5345.9	
913.72	5345.9	
913.88	5345.9	
914.05	5345.9	
914.21	5345.9	
914.37	5345.9	
914.54	5345.9	
914.7	5345.9	
914.86	5345.9	
915.03	5345.9	
915.19	5345.9	
