Wavelength	Intensities	
nm	a.u.	
179.22	1632.9	
179.44	1647.9	
179.65	1617.9	
179.86	1678	
180.08	1669.8	
180.29	3788.1	
180.51	2974.3	
180.72	4812	
180.94	5402.5	
181.15	2651.4	
181.37	2613.2	
181.58	4639.3	
181.79	4912.4	
182.01	2756.6	
182.22	2839.8	
182.44	4888.5	
182.65	4248.2	
182.87	3551.2	
183.08	3138.2	
183.29	5152	
183.51	4336.2	
183.72	2844.6	
183.94	4010.6	
184.15	4607.2	
184.37	4499.4	
184.58	2585.2	
184.79	3293.8	
185.01	4375.1	
185.22	4944.5	
185.44	3489.1	
185.65	3096.5	
185.86	4638	
186.08	4289.1	
186.29	2536.1	
186.51	2710.8	
186.72	4382.7	
186.94	5010	
187.15	3052.2	
187.36	3123.8	
187.58	6138.4	
187.79	4705.5	
188.01	3235.8	
188.22	4782	
188.43	5438.7	
188.65	4846.2	
188.86	2714.9	
189.08	3168.9	
189.29	4456.4	
189.5	4436.6	
189.72	2871.3	
189.93	2996.2	
190.15	5007.3	
190.36	5731.6	
190.57	3156.6	
190.79	3064.4	
191	5020.9	
191.22	4985.4	
191.43	3174.4	
191.64	2739.5	
191.86	5139.7	
192.07	4973.8	
192.29	2805.7	
192.5	2895.1	
192.71	4973.8	
192.93	4448.2	
193.14	2917	
193.35	3018	
193.57	4414.7	
193.78	4965.6	
194	2384.5	
194.21	2829.6	
194.42	4247.5	
194.64	4610	
194.85	3089	
195.07	3521.1	
195.28	4532.2	
195.49	4192.2	
195.71	3653.6	
195.92	2753.8	
196.13	4827.7	
196.35	4758.1	
196.56	3921.2	
196.78	3117	
196.99	5749.3	
197.2	5377.3	
197.42	3444.7	
197.63	3121.1	
197.84	4224.3	
198.06	4778.6	
198.27	2927.2	
198.48	3697.3	
198.7	4483	
198.91	4666.6	
199.13	3177.1	
199.34	3124.5	
199.55	5016.8	
199.77	4034.5	
199.98	2870.6	
200.19	3196.2	
200.41	4599.7	
200.62	4297.3	
200.83	3220.1	
201.05	3422.8	
201.26	4596.3	
201.47	4377.2	
201.69	2805.7	
201.9	2783.2	
202.11	4586.1	
202.33	5248.9	
202.54	2938.8	
202.76	3334.8	
202.97	4611.3	
203.18	4736.3	
203.4	3229	
203.61	3258.3	
203.82	4734.2	
204.04	4394.9	
204.25	3162.1	
204.46	3118.4	
204.68	4634.6	
204.89	4826.4	
205.1	3080.1	
205.32	2727.2	
205.53	4868	
205.74	5024.3	
205.96	2394.8	
206.17	3155.9	
206.38	4830.5	
206.6	4973.8	
206.81	3545.7	
207.02	2937.5	
207.24	4781.3	
207.45	5045.5	
207.66	3058.3	
207.88	2674.6	
208.09	4757.4	
208.3	4572.4	
208.52	2850.1	
208.73	3048.1	
208.94	4607.9	
209.15	5082.4	
209.37	3030.3	
209.58	3116.3	
209.79	4995	
210.01	4501.4	
210.22	2570.2	
210.43	2605	
210.65	4577.2	
210.86	4863.2	
211.07	3028.3	
211.29	2803	
211.5	4810	
211.71	4555.4	
211.93	2854.2	
212.14	2785.2	
212.35	4582.7	
212.56	4630.5	
212.78	3213.3	
212.99	2689.7	
213.2	5232.6	
213.42	4466.6	
213.63	2891.7	
213.84	3031	
214.06	4203.1	
214.27	4287.8	
214.48	3001	
214.69	3207.1	
214.91	5059.8	
215.12	5094.7	
215.33	3190.1	
215.55	3368.9	
215.76	5470.1	
215.97	4840.7	
216.18	3091.8	
216.4	3072.6	
216.61	4362.9	
216.82	4937	
217.04	2859.6	
217.25	2941.6	
217.46	5061.2	
217.67	4804.5	
217.89	2582.5	
218.1	2672.6	
218.31	4602.5	
218.53	4790.2	
218.74	2985.9	
218.95	2809.8	
219.16	4590.9	
219.38	5280.3	
219.59	2820.1	
219.8	3310.2	
220.01	5624.4	
220.23	4665.3	
220.44	3534.1	
220.65	2777.7	
220.87	4642.1	
221.08	5096.7	
221.29	2713.6	
221.5	3344.3	
221.72	5950	
221.93	4372.4	
222.14	3121.1	
222.35	3686.3	
222.57	4605.2	
222.78	4967	
222.99	3061.7	
223.2	3186	
223.42	4832.5	
223.63	4889.2	
223.84	2388.6	
224.05	2448	
224.27	5525.4	
224.48	5175.2	
224.69	3818.1	
224.9	3179.1	
225.12	4726.7	
225.33	4596.3	
225.54	2597.5	
225.75	2844.6	
225.97	4404.5	
226.18	4595	
226.39	3013.2	
226.6	2844.6	
226.82	4485.7	
227.03	4291.2	
227.24	3181.2	
227.45	2689.7	
227.67	4970.4	
227.88	5197.1	
228.09	3495.9	
228.3	3457.7	
228.52	4894	
228.73	4610.7	
228.94	2930	
229.15	2692.4	
229.36	4578.6	
229.58	4554	
229.79	2983.9	
230	3375.7	
230.21	5327.4	
230.43	4681	
230.64	3097.9	
230.85	3210.5	
231.06	4945.2	
231.28	4904.2	
231.49	2686.9	
231.7	3142.3	
231.91	4911.7	
232.12	4620.2	
232.34	2778.4	
232.55	3066.5	
232.76	5038	
232.97	4726.7	
233.18	2800.3	
233.4	3147.7	
233.61	4741	
233.82	4444.8	
234.03	2934.1	
234.25	2935.4	
234.46	6124.1	
234.67	4648.2	
234.88	3233.7	
235.09	2899.9	
235.31	4730.8	
235.52	4498	
235.73	3106.1	
235.94	2716.3	
236.15	4448.9	
236.37	5390.3	
236.58	2800.3	
236.79	3051.5	
237	4873.5	
237.21	4283.7	
237.43	3261	
237.64	2673.3	
237.85	7405.5	
238.06	4297.3	
238.27	3201	
238.48	2725.8	
238.7	4816.1	
238.91	4532.2	
239.12	2971.6	
239.33	3106.1	
239.54	4362.2	
239.76	4523.3	
239.97	3016.7	
240.18	3033.7	
240.39	5464	
240.6	4736.3	
240.82	3191.4	
241.03	2670.6	
241.24	4616.8	
241.45	5194.3	
241.66	2851.5	
241.87	3292.5	
242.09	5173.2	
242.3	5324.7	
242.51	3282.9	
242.72	3035.1	
242.93	4870.8	
243.14	4582	
243.36	3423.5	
243.57	3621.5	
243.78	5203.2	
243.99	4901.5	
244.2	3009.1	
244.41	2753.8	
244.63	4259.8	
244.84	4774.5	
245.05	3215.3	
245.26	3002.3	
245.47	4831.2	
245.68	4926	
245.9	3835.2	
246.11	3190.1	
246.32	4446.1	
246.53	4781.3	
246.74	4668.7	
246.95	2625.5	
247.16	4336.9	
247.38	4630.5	
247.59	2677.4	
247.8	3074	
248.01	4341	
248.22	4621.6	
248.43	2822.1	
248.64	2978.4	
248.86	4274.1	
249.07	4423.6	
249.28	2756.6	
249.49	3133.4	
249.7	4990.9	
249.91	4999.8	
250.12	2649.4	
250.34	2681.5	
250.55	4704.9	
250.76	4605.2	
250.97	3130.7	
251.18	3124.5	
251.39	5017.5	
251.6	4715.8	
251.81	3248.1	
252.03	3112.2	
252.24	4429.8	
252.45	4896	
252.66	2721.1	
252.87	3256.3	
253.08	4691.2	
253.29	5646.2	
253.5	2780.5	
253.72	3603.7	
253.93	4585.4	
254.14	5236	
254.35	2897.9	
254.56	2968.9	
254.77	4762.2	
254.98	4328.7	
255.19	2908.1	
255.41	3588.7	
255.62	4761.5	
255.83	5031.2	
256.04	3265.1	
256.25	3112.2	
256.46	5483.8	
256.67	4411.3	
256.88	3127.9	
257.09	3433.1	
257.31	4323.3	
257.52	4386.1	
257.73	3837.9	
257.94	2892.4	
258.15	4582	
258.36	4601.1	
258.57	3583.3	
258.78	2412.5	
258.99	4904.9	
259.2	4480.3	
259.41	2904	
259.63	3032.4	
259.84	5185.5	
260.05	5382.1	
260.26	3663.8	
260.47	2865.8	
260.68	5013.4	
260.89	4534.9	
261.1	3437.2	
261.31	2727.2	
261.52	5104.9	
261.73	5274.2	
261.95	3672	
262.16	3196.9	
262.37	5103.5	
262.58	5140.4	
262.79	3609.9	
263	2973	
263.21	4752	
263.42	4228.4	
263.63	3199.6	
263.84	2957.3	
264.05	4976.6	
264.26	5212.1	
264.47	3498.6	
264.69	3107.5	
264.9	5193.6	
265.11	4694.6	
265.32	2850.1	
265.53	2876	
265.74	4694.6	
265.95	4162.2	
266.16	3089.7	
266.37	3334.1	
266.58	4761.5	
266.79	4438.6	
267	2917	
267.21	2770.2	
267.42	4318.5	
267.63	4627.7	
267.84	3037.1	
268.06	2710.1	
268.27	4952	
268.48	5072.1	
268.69	2983.9	
268.9	3358	
269.11	5096	
269.32	4169	
269.53	3060.3	
269.74	2863.7	
269.95	4730.1	
270.16	4164.9	
270.37	3065.8	
270.58	3499.3	
270.79	4548.5	
271	5005.9	
271.21	3198.2	
271.42	3057.6	
271.63	4800.4	
271.84	4296	
272.05	2521.7	
272.26	2806.4	
272.47	4628.4	
272.68	4719.2	
272.89	2962	
273.11	3297.2	
273.32	4436.6	
273.53	5228.5	
273.74	3153.2	
273.95	3168.2	
274.16	4928.1	
274.37	4619.5	
274.58	3344.3	
274.79	2782.5	
275	4704.9	
275.21	4956.8	
275.42	3920.5	
275.63	3345	
275.84	4787.5	
276.05	5767.8	
276.26	3190.1	
276.47	2996.9	
276.68	4603.2	
276.89	5333.6	
277.1	3368.2	
277.31	2740.9	
277.52	4815.5	
277.73	5001.1	
277.94	2670.6	
278.15	2897.2	
278.36	4776.5	
278.57	4440	
278.78	2954.5	
278.99	3209.8	
279.2	4429.8	
279.41	4365.6	
279.62	3790.1	
279.83	2725.8	
280.04	5376.6	
280.25	4313	
280.46	3768.3	
280.67	3037.8	
280.88	4365.6	
281.09	5081	
281.3	3157.3	
281.51	3837.9	
281.72	4408.6	
281.93	4958.8	
282.14	2881.5	
282.35	3082.2	
282.56	5010	
282.77	4902.2	
282.98	2966.8	
283.19	3485.6	
283.4	5838.8	
283.61	4586.8	
283.82	2731.3	
284.03	3620.1	
284.24	4755.4	
284.45	4957.4	
284.66	3659	
284.87	3502	
285.08	5056.4	
285.29	5117.2	
285.5	2676.7	
285.71	2970.9	
285.92	4987.5	
286.12	5513.1	
286.33	3603.7	
286.54	3063.1	
286.75	5005.2	
286.96	4563.6	
287.17	2763.4	
287.38	3535.5	
287.59	4412.7	
287.8	4415.4	
288.01	3014.6	
288.22	3365.5	
288.43	4801.8	
288.64	4214	
288.85	3464.5	
289.06	3374.4	
289.27	4905.6	
289.48	5178.6	
289.69	3751.9	
289.9	3365.5	
290.11	5100.8	
290.32	4492.6	
290.53	3481.5	
290.74	3231.7	
290.94	4869.4	
291.15	4937	
291.36	2876.7	
291.57	3371.6	
291.78	4504.2	
291.99	4232.5	
292.2	2839.8	
292.41	3260.4	
292.62	5003.2	
292.83	4825.7	
293.04	3900	
293.25	2877.4	
293.46	4492.6	
293.67	4987.5	
293.88	2860.3	
294.09	2768.9	
294.29	4390.8	
294.5	4735.6	
294.71	3089	
294.92	2925.9	
295.13	4497.3	
295.34	5395.7	
295.55	2614.6	
295.76	2634.4	
295.97	4911	
296.18	5387.5	
296.39	2735.4	
296.6	2895.8	
296.81	4662.5	
297.01	4970.4	
297.22	3039.2	
297.43	2923.8	
297.64	4460.5	
297.85	4345.8	
298.06	2473.3	
298.27	2654.2	
298.48	4622.3	
298.69	4412.7	
298.9	3124.5	
299.11	2820.7	
299.31	4296	
299.52	4363.5	
299.73	3312.2	
299.94	3233.7	
300.15	4655	
300.36	4411.3	
300.57	3229.6	
300.78	3211.9	
300.99	4478.9	
301.2	4634.6	
301.4	2945	
301.61	3095.8	
301.82	4847.5	
302.03	4949.3	
302.24	3334.1	
302.45	2807.1	
302.66	4824.3	
302.87	5118.6	
303.08	2906.8	
303.29	3747.8	
303.49	4508.3	
303.7	4562.9	
303.91	2609.8	
304.12	3583.9	
304.33	4230.4	
304.54	4762.9	
304.75	2919.7	
304.96	2831	
305.16	4894	
305.37	5364.3	
305.58	2596.1	
305.79	2665.1	
306	4875.5	
306.21	4223.6	
306.42	2942.2	
306.63	4169.7	
306.83	4535.6	
307.04	4947.2	
307.25	3164.1	
307.46	3109.5	
307.67	4150.5	
307.88	4830.5	
308.09	2892.4	
308.29	2920.4	
308.5	4622.3	
308.71	4973.8	
308.92	3072.6	
309.13	2788	
309.34	4608.6	
309.55	4541	
309.75	3548.4	
309.96	3189.4	
310.17	4872.1	
310.38	4411.3	
310.59	3291.1	
310.8	2753.2	
311.01	5363.6	
311.21	4577.2	
311.42	2827.6	
311.63	2830.3	
311.84	4461.8	
312.05	4659.8	
312.26	3231	
312.46	3424.2	
312.67	4507.6	
312.88	4304.8	
313.09	2793.4	
313.3	2749.1	
313.51	5142.4	
313.71	5403.9	
313.92	2778.4	
314.13	2962.7	
314.34	4818.9	
314.55	4596.3	
314.76	3463.1	
314.96	3067.2	
315.17	4771.8	
315.38	4749.2	
315.59	2815.3	
315.8	2745.6	
316.01	5166.3	
316.21	5268.7	
316.42	2753.8	
316.63	3071.3	
316.84	4541	
317.05	5066	
317.26	3199.6	
317.46	2957.3	
317.67	4631.1	
317.88	4900.8	
318.09	3472	
318.3	2667.1	
318.5	4457.1	
318.71	4867.3	
318.92	4243.4	
319.13	3300.6	
319.34	5008	
319.54	5018.9	
319.75	2679.4	
319.96	2583.2	
320.17	4824.3	
320.38	4970.4	
320.58	2608.4	
320.79	3084.9	
321	5010.7	
321.21	5120.6	
321.42	3073.3	
321.62	2638.5	
321.83	4403.8	
322.04	4616.8	
322.25	2976.4	
322.46	2794.1	
322.66	4670.1	
322.87	4844.1	
323.08	3366.9	
323.29	2731.3	
323.5	5373.2	
323.7	4354.7	
323.91	3699.3	
324.12	3295.9	
324.33	4713.1	
324.53	4831.2	
324.74	3183.9	
324.95	3330.7	
325.16	4234.5	
325.37	4478.2	
325.57	2794.1	
325.78	2871.3	
325.99	4722.6	
326.2	4263.9	
326.4	3867.2	
326.61	2641.9	
326.82	4616.8	
327.03	4687.1	
327.24	3804.4	
327.44	3600.3	
327.65	4832.5	
327.86	4076.8	
328.07	3201.7	
328.27	2749.7	
328.48	5083.7	
328.69	4271.4	
328.9	3880.2	
329.1	2959.3	
329.31	4541	
329.52	5150.6	
329.73	2856.9	
329.93	3099.9	
330.14	4660.5	
330.35	4767.7	
330.56	4353.3	
330.76	3380.5	
330.97	4508.3	
331.18	4649.6	
331.39	3107.5	
331.59	2656.9	
331.8	5056.4	
332.01	5170.4	
332.22	2927.9	
332.42	3169.6	
332.63	4708.3	
332.84	4406.5	
333.05	3154.6	
333.25	2854.2	
333.46	4442	
333.67	4633.2	
333.88	2959.3	
334.08	3168.2	
334.29	5850.4	
334.5	5017.5	
334.7	2752.5	
334.91	3794.2	
335.12	4332.1	
335.33	4922	
335.53	3104.7	
335.74	4292.5	
335.95	4583.4	
336.16	4337.6	
336.36	3040.6	
336.57	3433.8	
336.78	4257	
336.98	4983.4	
337.19	3719.8	
337.4	3018.7	
337.61	5448.3	
337.81	4283.7	
338.02	2905.4	
338.23	3570.3	
338.43	5132.2	
338.64	4422.2	
338.85	2877.4	
339.05	3614	
339.26	5227.1	
339.47	4277.5	
339.68	2846	
339.88	3928	
340.09	4819.6	
340.3	4967.7	
340.5	3233.7	
340.71	2575	
340.92	4296.6	
341.13	5091.9	
341.33	2717	
341.54	3233.1	
341.75	4770.4	
341.95	4496.7	
342.16	3104	
342.37	3381.2	
342.57	4318.5	
342.78	4592.2	
342.99	3388.7	
343.19	2641.9	
343.4	4881.7	
343.61	4751.3	
343.81	2938.2	
344.02	2738.8	
344.23	4889.9	
344.43	5156.1	
344.64	3412.6	
344.85	3278.8	
345.06	4825.7	
345.26	4987.5	
345.47	3224.2	
345.68	3644	
345.88	4261.1	
346.09	4942.4	
346.3	3236.5	
346.5	2556.5	
346.71	4532.2	
346.92	4447.5	
347.12	2710.8	
347.33	3219.4	
347.54	5023.7	
347.74	5275.6	
347.95	3168.2	
348.16	2511.5	
348.36	4513	
348.57	4332.8	
348.78	3245.3	
348.98	3352.5	
349.19	4588.8	
349.39	4207.2	
349.6	2660.3	
349.81	2881.5	
350.01	4851.6	
350.22	4407.2	
350.43	3175.7	
350.63	3612.6	
350.84	4609.3	
351.05	4429.1	
351.25	2893.8	
351.46	2659.6	
351.67	5000.5	
351.87	4417.5	
352.08	3080.8	
352.29	3362.1	
352.49	4933.6	
352.7	4713.1	
352.9	2764.1	
353.11	3388	
353.32	5380.7	
353.52	4474.1	
353.73	2798.9	
353.94	3412.6	
354.14	4842.8	
354.35	4604.5	
354.55	2908.8	
354.76	3149.1	
354.97	4793.6	
355.17	4627	
355.38	2798.2	
355.59	3596.9	
355.79	4401.1	
356	4623.6	
356.2	3106.1	
356.41	2830.3	
356.62	4379.2	
356.82	4633.2	
357.03	3316.3	
357.24	3065.1	
357.44	4398.4	
357.65	4512.4	
357.85	3850.9	
358.06	3201	
358.27	4260.5	
358.47	4425	
358.68	2816.6	
358.88	3346.4	
359.09	4880.3	
359.3	5047.6	
359.5	3784.6	
359.71	3431.7	
359.91	5318.6	
360.12	4868	
360.33	3419.4	
360.53	3708.9	
360.74	4514.4	
360.94	4594.3	
361.15	3488.4	
361.36	3062.4	
361.56	5115.1	
361.77	4757.4	
361.97	3863.8	
362.18	3185.3	
362.38	5068	
362.59	4520.5	
362.8	3061.7	
363	2945	
363.21	4321.9	
363.41	4767	
363.62	3323.9	
363.83	3937.6	
364.03	4958.8	
364.24	5386.2	
364.44	4132.1	
364.65	4038.6	
364.85	4773.8	
365.06	4610.7	
365.27	3183.2	
365.47	3227.6	
365.68	5366.4	
365.88	4751.3	
366.09	3465.2	
366.29	3242.6	
366.5	4918.5	
366.71	5187.5	
366.91	4052.9	
367.12	3590.8	
367.32	5597.8	
367.53	5094.7	
367.73	3642.7	
367.94	4256.4	
368.14	5110.4	
368.35	5625.1	
368.56	3605.8	
368.76	3185.3	
368.97	5264	
369.17	6221.7	
369.38	3257	
369.58	3417.4	
369.79	4529.4	
369.99	5451.7	
370.2	4063.2	
370.4	3489.7	
370.61	4949.9	
370.82	5790.3	
371.02	3472.7	
371.23	3091.1	
371.43	4554.7	
371.64	5408.7	
371.84	3542.3	
372.05	4231.1	
372.25	6242.2	
372.46	5199.8	
372.66	3495.2	
372.87	3542.3	
373.07	5255.8	
373.28	6370.5	
373.48	4134.8	
373.69	3976.5	
373.9	5055.1	
374.1	4993.6	
374.31	4177.9	
374.51	3841.3	
374.72	5508.4	
374.92	4833.2	
375.13	4267.3	
375.33	3749.8	
375.54	5280.3	
375.74	4974.5	
375.95	3965.6	
376.15	4709.6	
376.36	5426.4	
376.56	5278.3	
376.77	3988.1	
376.97	4200.4	
377.18	6117.3	
377.38	5509	
377.59	4462.5	
377.79	3758	
378	5325.4	
378.2	5513.8	
378.41	3714.3	
378.61	3711.6	
378.82	5690.6	
379.02	5257.8	
379.23	3846.8	
379.43	4556.7	
379.64	5790.3	
379.84	5616.9	
380.05	3786.7	
380.25	3743.7	
380.46	5502.2	
380.66	5320.6	
380.87	4539.7	
381.07	4847.5	
381.28	5953.4	
381.48	5533.6	
381.69	3718.4	
381.89	3814.7	
382.1	4923.3	
382.3	5628.5	
382.51	4455.7	
382.71	5028.4	
382.91	5428.5	
383.12	5866.1	
383.32	3964.9	
383.53	4080.9	
383.73	5405.3	
383.94	5322.7	
384.14	4113	
384.35	3529.3	
384.55	5221.6	
384.76	5543.9	
384.96	4003.1	
385.17	4146.5	
385.37	5539.1	
385.58	4988.2	
385.78	4116.4	
385.98	3495.9	
386.19	5175.9	
386.39	5472.2	
386.6	3769.6	
386.8	3906.2	
387.01	5520	
387.21	5554.1	
387.42	4174.4	
387.62	4582	
387.83	5165	
388.03	5355.4	
388.23	4029	
388.44	4506.9	
388.64	4982	
388.85	5053	
389.05	4203.8	
389.26	4661.9	
389.46	6395.1	
389.67	5984.8	
389.87	4371.7	
390.07	4386.1	
390.28	5335	
390.48	5120.6	
390.69	3872.7	
390.89	4094.6	
391.1	5291.3	
391.3	5831.9	
391.5	4812.7	
391.71	5163.6	
391.91	5765.7	
392.12	6272.2	
392.32	4807.9	
392.53	4291.2	
392.73	5368.4	
392.93	5454.4	
393.14	4192.9	
393.34	4569.7	
393.55	5716.6	
393.75	5379.3	
393.95	4127.3	
394.16	4072.7	
394.36	5350	
394.57	5726.8	
394.77	3781.2	
394.98	3985.3	
395.18	5292	
395.38	5322	
395.59	4633.9	
395.79	4015.4	
396	5455.1	
396.2	5804.6	
396.4	4718.5	
396.61	4592.2	
396.81	5819.6	
397.02	5456.5	
397.22	4805.2	
397.42	4836.6	
397.63	5978	
397.83	5466	
398.04	4130.1	
398.24	4502.8	
398.44	5803.3	
398.65	5164.3	
398.85	4075.5	
399.05	4108.9	
399.26	5506.3	
399.46	6556.9	
399.67	4394.9	
399.87	4241.3	
400.07	5819	
400.28	6004	
400.48	4337.6	
400.69	5054.4	
400.89	6080.4	
401.09	6518	
401.3	4311.7	
401.5	5005.9	
401.7	6657.9	
401.91	6817	
402.11	4684.4	
402.32	4715.1	
402.52	6313.2	
402.72	6126.2	
402.93	4859.1	
403.13	4148.5	
403.33	6778.1	
403.54	5772.5	
403.74	4567.7	
403.94	5129.5	
404.15	5813.5	
404.35	6514.6	
404.56	4367	
404.76	5438.7	
404.96	6059.9	
405.17	5949.3	
405.37	5087.2	
405.57	4738.3	
405.78	6233.3	
405.98	5796.4	
406.18	4443.4	
406.39	5011.4	
406.59	6285.2	
406.79	5918.6	
407	4320.5	
407.2	4388.1	
407.4	6442.2	
407.61	6275.7	
407.81	4454.3	
408.01	5571.2	
408.22	5520.6	
408.42	6846.4	
408.62	5193.6	
408.83	4876.2	
409.03	6138.4	
409.23	6137.1	
409.44	5061.9	
409.64	5327.4	
409.84	6894.1	
410.05	6941.2	
410.25	5440.8	
410.45	5277.6	
410.66	6850.5	
410.86	8433.5	
411.06	5660.6	
411.27	5529.5	
411.47	8239.7	
411.67	6994.5	
411.88	5771.9	
412.08	6051.7	
412.28	7438.2	
412.49	7711.3	
412.69	5794.4	
412.89	5799.8	
413.09	7632.1	
413.3	7608.9	
413.5	5967.1	
413.7	5739.8	
413.91	7201.3	
414.11	7765.9	
414.31	5884.5	
414.52	6239.5	
414.72	7620.5	
414.92	7658	
415.12	5848.3	
415.33	6298.2	
415.53	7843.7	
415.73	7894.2	
415.94	6369.2	
416.14	6077	
416.34	7337.9	
416.55	7108.5	
416.75	6915.3	
416.95	6587	
417.15	7935.9	
417.36	8292.2	
417.56	7103	
417.76	6465.4	
417.97	8191.2	
418.17	8033.5	
418.37	6223.8	
418.57	6327.5	
418.78	7856.7	
418.98	7615.7	
419.18	6932.4	
419.38	6818.4	
419.59	7737.2	
419.79	7400	
419.99	6252.4	
420.2	6331.6	
420.4	7935.9	
420.6	7990.5	
420.8	6122.1	
421.01	6049	
421.21	7975.5	
421.41	7902.4	
421.61	6308.4	
421.82	6206	
422.02	7680.6	
422.22	8219.2	
422.42	6716.7	
422.63	6311.2	
422.83	7589.8	
423.03	8434.9	
423.23	6444.3	
423.44	5764.3	
423.64	7660.8	
423.84	7301	
424.04	6057.2	
424.25	5838.1	
424.45	8217.8	
424.65	8070.4	
424.85	5735	
425.06	6070.2	
425.26	8274.5	
425.46	7490.8	
425.66	6324.1	
425.87	6171.2	
426.07	7957	
426.27	7763.2	
426.47	6155.5	
426.67	5750.7	
426.88	8302.5	
427.08	7912.7	
427.28	6465.4	
427.48	5695.4	
427.69	7066.2	
427.89	7459.4	
428.09	6270.2	
428.29	5801.2	
428.5	7828	
428.7	7687.4	
428.9	5709.1	
429.1	5987.6	
429.3	7580.9	
429.51	7861.5	
429.71	5881.8	
429.91	6511.2	
430.11	7882.6	
430.31	7983.7	
430.52	6134.3	
430.72	6389.7	
430.92	8161.8	
431.12	7910.6	
431.32	6001.9	
431.53	6300.2	
431.73	7198.6	
431.93	8269	
432.13	5868.1	
432.33	5952.1	
432.54	7571.3	
432.74	7717.4	
432.94	5851	
433.14	6462.7	
433.34	7939.3	
433.55	7694.9	
433.75	6524.8	
433.95	7859.4	
434.15	7899	
434.35	7653.3	
434.56	6025.8	
434.76	5845.6	
434.96	7797.3	
435.16	8159.8	
435.36	5961	
435.56	6879.8	
435.77	7722.9	
435.97	7804.8	
436.17	7296.9	
436.37	6777.4	
436.57	7680.6	
436.78	7822.6	
436.98	7585.7	
437.18	7157	
437.38	8180.3	
437.58	7765.9	
437.78	7257.3	
437.99	6419	
438.19	8120.9	
438.39	8750.3	
438.59	6403.3	
438.79	5926.1	
438.99	8569.4	
439.2	7761.8	
439.4	5811.5	
439.6	5943.9	
439.8	7899	
440	8549.6	
440.2	6670.2	
440.4	6802.7	
440.61	8372.8	
440.81	8626	
441.01	6328.9	
441.21	6933.1	
441.41	8832.2	
441.61	8465.6	
441.81	7237.5	
442.02	7879.2	
442.22	9058.2	
442.42	8733.9	
442.62	6509.8	
442.82	6456.6	
443.02	8840.4	
443.22	8278.6	
443.43	6831.3	
443.63	6458.6	
443.83	8085.4	
444.03	8096.3	
444.23	7395.2	
444.43	7137.9	
444.63	8465.6	
444.83	9153.1	
445.04	6851.1	
445.24	7531.7	
445.44	8706.6	
445.64	8704.5	
445.84	7135.8	
446.04	7178.8	
446.24	8221.9	
446.44	8814.5	
446.65	6453.1	
446.85	6860	
447.05	8226.7	
447.25	8742.1	
447.45	6767.2	
447.65	6406	
447.85	8305.2	
448.05	7924.3	
448.25	7105.8	
448.46	6969.2	
448.66	8327	
448.86	8058.1	
449.06	6389	
449.26	7014.3	
449.46	8486.8	
449.66	7888.8	
449.86	6810.2	
450.06	6778.8	
450.26	8114.1	
450.47	8444.5	
450.67	6942.6	
450.87	7260	
451.07	8623.3	
451.27	8432.9	
451.47	6459.3	
451.67	7225.9	
451.87	8223.3	
452.07	8924.4	
452.27	6792.4	
452.47	6646.3	
452.67	8386.4	
452.88	8718.9	
453.08	6206	
453.28	7670.3	
453.48	9269.8	
453.68	8229.4	
453.88	6752.8	
454.08	6790.4	
454.28	8700.5	
454.48	8479.3	
454.68	7191.8	
454.88	7465.5	
455.08	8701.8	
455.28	8675.9	
455.48	6534.4	
455.68	7124.9	
455.89	9239.8	
456.09	9003.6	
456.29	6947.4	
456.49	7174	
456.69	9125.7	
456.89	8516.1	
457.09	7381.6	
457.29	7734.5	
457.49	8901.2	
457.69	9005.6	
457.89	7527	
458.09	6864.1	
458.29	8904.6	
458.49	9439.8	
458.69	7714	
458.89	7377.5	
459.09	9585.2	
459.29	9649.3	
459.49	7447.8	
459.69	8038.3	
459.9	9336.7	
460.1	9160.6	
460.3	7299.6	
460.5	7247.8	
460.7	9341.5	
460.9	8953	
461.1	7073.7	
461.3	7869	
461.5	9824.1	
461.7	9447.3	
461.9	7369.3	
462.1	7704.5	
462.3	9316.9	
462.5	9673.2	
462.7	7533.1	
462.9	7696.3	
463.1	10363	
463.3	10300	
463.5	7788.4	
463.7	8669.1	
463.9	9592.7	
464.1	10006	
464.3	8052.6	
464.5	8202.1	
464.7	10100	
464.9	10116	
465.1	9180.4	
465.3	8551	
465.5	10331	
465.7	10456	
465.9	8804.9	
466.1	8346.8	
466.3	10392	
466.5	10157	
466.7	9283.4	
466.9	8452.6	
467.1	10407	
467.3	10821	
467.5	9370.8	
467.7	8606.2	
467.9	10961	
468.1	11657	
468.3	9005.6	
468.5	9430.9	
468.7	10329	
468.9	10156	
469.1	8829.5	
469.3	9312.1	
469.5	11680	
469.7	10135	
469.9	9164.7	
470.1	8688.2	
470.3	10485	
470.5	10441	
470.7	9619.3	
470.9	8675.2	
471.1	10306	
471.3	10359	
471.5	8790.6	
471.69	9900.6	
471.89	10157	
472.09	9706.7	
472.29	9121	
472.49	9182.4	
472.69	9977.7	
472.89	10462	
473.09	8600.1	
473.29	8451.3	
473.49	10049	
473.69	9994.8	
473.89	9086.2	
474.09	8548.9	
474.29	10868	
474.49	10558	
474.69	9114.1	
474.89	8588.5	
475.09	10019	
475.29	9932	
475.49	8216.5	
475.69	8470.4	
475.88	10892	
476.08	10175	
476.28	8137.3	
476.48	8385.7	
476.68	10402	
476.88	10170	
477.08	8275.8	
477.28	8389.2	
477.48	9880.8	
477.68	10146	
477.88	8148.9	
478.08	8383.7	
478.28	10522	
478.48	9808.4	
478.67	8374.8	
478.87	7794.6	
479.07	10490	
479.27	9979.8	
479.47	8475.2	
479.67	8556.4	
479.87	10270	
480.07	10529	
480.27	8086.7	
480.47	9036.3	
480.67	10049	
480.87	10542	
481.06	8194.6	
481.26	8774.9	
481.46	10021	
481.66	9852.8	
481.86	8501.8	
482.06	9140.8	
482.26	9757.2	
482.46	10336	
482.66	8399.4	
482.86	8153.6	
483.05	10155	
483.25	9493.7	
483.45	10024	
483.65	8340	
483.85	9670.5	
484.05	9870.5	
484.25	8771.5	
484.45	9179	
484.65	10344	
484.84	10613	
485.04	8311.3	
485.24	8477.9	
485.44	10791	
485.64	9622	
485.84	7989.8	
486.04	8977.6	
486.24	9868.5	
486.44	10127	
486.63	7996	
486.83	8662.2	
487.03	10056	
487.23	10231	
487.43	8182.3	
487.63	9811.1	
487.83	10257	
488.02	10826	
488.22	8857.5	
488.42	9325.1	
488.62	10871	
488.82	9965.4	
489.02	8673.8	
489.22	8794	
489.41	10674	
489.61	10658	
489.81	8554.4	
490.01	8602.2	
490.21	10787	
490.41	11232	
490.61	8668.4	
490.8	8682	
491	10355	
491.2	10052	
491.4	8934.6	
491.6	8496.3	
491.8	10378	
491.99	10315	
492.19	8220.5	
492.39	8343.4	
492.59	10558	
492.79	10679	
492.99	9067	
493.18	8457.4	
493.38	10730	
493.58	11420	
493.78	9058.8	
493.98	8719.6	
494.18	10733	
494.37	10392	
494.57	9284.8	
494.77	9129.8	
494.97	11016	
495.17	11273	
495.37	9160.6	
495.56	9347.6	
495.76	11520	
495.96	11319	
496.16	10112	
496.36	9435.7	
496.55	11525	
496.75	11088	
496.95	9626.8	
497.15	9658.2	
497.35	11465	
497.54	11392	
497.74	9525.8	
497.94	10761	
498.14	11970	
498.34	11683	
498.53	9357.2	
498.73	9818	
498.93	11019	
499.13	11582	
499.33	9795.4	
499.52	9997.5	
499.72	11640	
499.92	11604	
500.12	9618.6	
500.32	9846.6	
500.51	11723	
500.71	11611	
500.91	10280	
501.11	10150	
501.31	11755	
501.5	12050	
501.7	10586	
501.9	9938.1	
502.1	11561	
502.29	11867	
502.49	10167	
502.69	10441	
502.89	11639	
503.09	11736	
503.28	9383.8	
503.48	9418.6	
503.68	11116	
503.88	11145	
504.07	10022	
504.27	9667.8	
504.47	11413	
504.67	11315	
504.86	10004	
505.06	9671.2	
505.26	10992	
505.46	12284	
505.65	9582.4	
505.85	9684.8	
506.05	10952	
506.25	11224	
506.44	9009.7	
506.64	9581.1	
506.84	10705	
507.04	11131	
507.23	9132.6	
507.43	9510.1	
507.63	11830	
507.83	10728	
508.02	9381.1	
508.22	9112.8	
508.42	12075	
508.62	10517	
508.81	9185.8	
509.01	9673.2	
509.21	10308	
509.4	10612	
509.6	9260.9	
509.8	8881.4	
510	10524	
510.19	11420	
510.39	8779.6	
510.59	9062.9	
510.79	10525	
510.98	11366	
511.18	9130.5	
511.38	9048.6	
511.57	11160	
511.77	10865	
511.97	9617.3	
512.17	8985.1	
512.36	10995	
512.56	10840	
512.76	8823.3	
512.95	8733.9	
513.15	11080	
513.35	10017	
513.55	9444.5	
513.74	8820.6	
513.94	11057	
514.14	10617	
514.33	9586.5	
514.53	9360.6	
514.73	10579	
514.92	10783	
515.12	8996.7	
515.32	8967.4	
515.51	10847	
515.71	11011	
515.91	10118	
516.11	9035.6	
516.3	11989	
516.5	10566	
516.7	9400.9	
516.89	9754.5	
517.09	10682	
517.29	10781	
517.48	9803.6	
517.68	9250	
517.88	10438	
518.07	10927	
518.27	9605	
518.47	8913.4	
518.66	11351	
518.86	10369	
519.06	8792.6	
519.25	9144.9	
519.45	10600	
519.65	11628	
519.84	9548.3	
520.04	10048	
520.24	11930	
520.43	11135	
520.63	9342.8	
520.83	9218.6	
521.02	10601	
521.22	10937	
521.42	9445.2	
521.61	9798.2	
521.81	10772	
522.01	10839	
522.2	9341.5	
522.4	9093.7	
522.6	11126	
522.79	10236	
522.99	9146.2	
523.18	8885.5	
523.38	11028	
523.58	11006	
523.77	10383	
523.97	8976.2	
524.17	12294	
524.36	11809	
524.56	9958.6	
524.76	9798.2	
524.95	11288	
525.15	10952	
525.34	9716.9	
525.54	9826.2	
525.74	11728	
525.93	11030	
526.13	10663	
526.33	9944.3	
526.52	12091	
526.72	11646	
526.91	10755	
527.11	10340	
527.31	11958	
527.5	12267	
527.7	10352	
527.89	9624.1	
528.09	11359	
528.29	11776	
528.48	10494	
528.68	10195	
528.87	12016	
529.07	12070	
529.27	10378	
529.46	10082	
529.66	11957	
529.85	12215	
530.05	10032	
530.25	10651	
530.44	12906	
530.64	11791	
530.83	10196	
531.03	10408	
531.23	12162	
531.42	11998	
531.62	10806	
531.81	10302	
532.01	12268	
532.21	12528	
532.4	10401	
532.6	10626	
532.79	13041	
532.99	12452	
533.18	10703	
533.38	11497	
533.58	12290	
533.77	12638	
533.97	10898	
534.16	11495	
534.36	13091	
534.55	12447	
534.75	11593	
534.95	10892	
535.14	13091	
535.34	12368	
535.53	10659	
535.73	11973	
535.92	13420	
536.12	12470	
536.31	10804	
536.51	11630	
536.71	12729	
536.9	12403	
537.1	10805	
537.29	10946	
537.49	13050	
537.68	12259	
537.88	11245	
538.07	10578	
538.27	12642	
538.46	13159	
538.66	10547	
538.86	10989	
539.05	12655	
539.25	12930	
539.44	11265	
539.64	10826	
539.83	12523	
540.03	13147	
540.22	10784	
540.42	10725	
540.61	12547	
540.81	12582	
541	10922	
541.2	11452	
541.39	12155	
541.59	12333	
541.78	11309	
541.98	10527	
542.18	12028	
542.37	11916	
542.57	10718	
542.76	11112	
542.96	11918	
543.15	12384	
543.35	10747	
543.54	10195	
543.74	12260	
543.93	12176	
544.13	10626	
544.32	11260	
544.52	12291	
544.71	11802	
544.91	9895.1	
545.1	10651	
545.3	11703	
545.49	12058	
545.69	9858.9	
545.88	10168	
546.08	12785	
546.27	12324	
546.47	10567	
546.66	10036	
546.86	12256	
547.05	12368	
547.24	10134	
547.44	10130	
547.63	11411	
547.83	12252	
548.02	10280	
548.22	10423	
548.41	11323	
548.61	12251	
548.8	9896.5	
549	9938.8	
549.19	11752	
549.39	11973	
549.58	9708.1	
549.78	10069	
549.97	11976	
550.17	11519	
550.36	10572	
550.55	11262	
550.75	11462	
550.94	12098	
551.14	9779.7	
551.33	9979.8	
551.53	11059	
551.72	11768	
551.92	9985.9	
552.11	9854.8	
552.31	11715	
552.5	11600	
552.69	10967	
552.89	9522.4	
553.08	11783	
553.28	11443	
553.47	9713.5	
553.67	10542	
553.86	12024	
554.06	10790	
554.25	9207.7	
554.44	9507.4	
554.64	12498	
554.83	12035	
555.03	9530.6	
555.22	9789.3	
555.42	11668	
555.61	11511	
555.8	9624.1	
556	9812.5	
556.19	10859	
556.39	11467	
556.58	9532.6	
556.78	9624.1	
556.97	11426	
557.16	11154	
557.36	10503	
557.55	9307.3	
557.75	10537	
557.94	11902	
558.13	9332.6	
558.33	9284.1	
558.52	11724	
558.72	10805	
558.91	9330.5	
559.1	9494.4	
559.3	10632	
559.49	10469	
559.69	9049.3	
559.88	9593.4	
560.07	11239	
560.27	11467	
560.46	9652.1	
560.66	9807.7	
560.85	11063	
561.04	10346	
561.24	9176.3	
561.43	9176.9	
561.63	10553	
561.82	10773	
562.01	10038	
562.21	9387.2	
562.4	10987	
562.59	11622	
562.79	9287.5	
562.98	9141.4	
563.18	10901	
563.37	11942	
563.56	9625.5	
563.76	9073.9	
563.95	10679	
564.14	10683	
564.34	9361.3	
564.53	9192	
564.73	11065	
564.92	11123	
565.11	9501.2	
565.31	9039.1	
565.5	11353	
565.69	10578	
565.89	9226.1	
566.08	9344.9	
566.27	11186	
566.47	11687	
566.66	9872.6	
566.85	8843.1	
567.05	11021	
567.24	10588	
567.44	9090.3	
567.63	9996.8	
567.82	11237	
568.02	10916	
568.21	9047.9	
568.4	9334	
568.6	10879	
568.79	10817	
568.98	9037	
569.18	9099.8	
569.37	10738	
569.56	12078	
569.76	9280	
569.95	9973.6	
570.14	11057	
570.34	11009	
570.53	9050.7	
570.72	8882	
570.91	11341	
571.11	10751	
571.3	9162.6	
571.49	9867.8	
571.69	10790	
571.88	10357	
572.07	9592.7	
572.27	9463.7	
572.46	10278	
572.65	10996	
572.85	8994.7	
573.04	9170.8	
573.23	11263	
573.43	10686	
573.62	8814.5	
573.81	9166.7	
574	10825	
574.2	10524	
574.39	9095	
574.58	9134.6	
574.78	11336	
574.97	10849	
575.16	9562	
575.36	9513.5	
575.55	11129	
575.74	11256	
575.93	8837	
576.13	9676.7	
576.32	10766	
576.51	11154	
576.71	9342.8	
576.9	10029	
577.09	11409	
577.28	10972	
577.48	9497.1	
577.67	8837	
577.86	10802	
578.05	10949	
578.25	9307.3	
578.44	9278	
578.63	10731	
578.83	11712	
579.02	8872.5	
579.21	9927.9	
579.4	10981	
579.6	10682	
579.79	9357.9	
579.98	10851	
580.17	11153	
580.37	11197	
580.56	9024.7	
580.75	9523.7	
580.94	11387	
581.14	11359	
581.33	9800.9	
581.52	9111.4	
581.71	11105	
581.91	11646	
582.1	8997.4	
582.29	9320.3	
582.48	10890	
582.68	10835	
582.87	9663.7	
583.06	9531.9	
583.25	11124	
583.45	10677	
583.64	9916.9	
583.83	10398	
584.02	10913	
584.21	11200	
584.41	9790	
584.6	9452.1	
584.79	10928	
584.98	11351	
585.18	9030.9	
585.37	9094.3	
585.56	10723	
585.75	11175	
585.94	9146.2	
586.14	9648.7	
586.33	11500	
586.52	10874	
586.71	9415.9	
586.91	9257.5	
587.1	10303	
587.29	11144	
587.48	9094.3	
587.67	9054.1	
587.87	10991	
588.06	10772	
588.25	9812.5	
588.44	9300.5	
588.63	10499	
588.83	10863	
589.02	8904.6	
589.21	8643.1	
589.4	10210	
589.59	10187	
589.78	7922.9	
589.98	8066.3	
590.17	9576.3	
590.36	9921.7	
590.55	7473	
590.74	7942	
590.94	10525	
591.13	9506	
591.32	7815	
591.51	7471.7	
591.7	9777.7	
591.89	9403.6	
592.09	7538.6	
592.28	7768.6	
592.47	8876.6	
592.66	10411	
592.85	7568.6	
593.05	7632.1	
593.24	9314.2	
593.43	10031	
593.62	7772.7	
593.81	8034.9	
594	9552.4	
594.19	9573.6	
594.39	7742	
594.58	7690.1	
594.77	9624.8	
594.96	10049	
595.15	7656.7	
595.34	7981.6	
595.54	9600.9	
595.73	9017.2	
595.92	7229.3	
596.11	7886.7	
596.3	9959.3	
596.49	9084.1	
596.68	7732.4	
596.88	8006.9	
597.07	9689.6	
597.26	8936.7	
597.45	7487.4	
597.64	8232.8	
597.83	9173.5	
598.02	9567.4	
598.22	7591.8	
598.41	7976.8	
598.6	9434.3	
598.79	9026.1	
598.98	7573.4	
599.17	8180.3	
599.36	9523.7	
599.55	10223	
599.74	8804.2	
599.94	8835.6	
600.13	9990	
600.32	9075.9	
600.51	7357.7	
600.7	7479.2	
600.89	10287	
601.08	10327	
601.27	7357.7	
601.47	7975.5	
601.66	9724.4	
601.85	10087	
602.04	7871.7	
602.23	7986.4	
602.42	9208.4	
602.61	9665.7	
602.8	7822.6	
602.99	7630.7	
603.18	9450.7	
603.37	9596.8	
603.57	8043.7	
603.76	8410.3	
603.95	10078	
604.14	9724.4	
604.33	7648.5	
604.52	7931.8	
604.71	9658.2	
604.9	9207.7	
605.09	8222.6	
605.28	8109.3	
605.47	9996.1	
605.66	9660.3	
605.86	8087.4	
606.05	7763.8	
606.24	10052	
606.43	8901.8	
606.62	7901.7	
606.81	8432.9	
607	9828.9	
607.19	9273.2	
607.38	7499	
607.57	7609.6	
607.76	9152.4	
607.95	8730.5	
608.14	7946.1	
608.33	8268.3	
608.52	9035.6	
608.72	9668.5	
608.91	7358.4	
609.1	7281.2	
609.29	9238.4	
609.48	8837	
609.67	7993.2	
609.86	7325.6	
610.05	8943.5	
610.24	8965.3	
610.43	7176.8	
610.62	6980.8	
610.81	9858.9	
611	9715.6	
611.19	7258.7	
611.38	7811	
611.57	9351	
611.76	10055	
611.95	7169.9	
612.14	7021.8	
612.33	9146.2	
612.52	8725	
612.71	7439.6	
612.9	6839.5	
613.09	8647.2	
613.28	10145	
613.47	7357.7	
613.66	7935.2	
613.85	9230.9	
614.04	8789.2	
614.24	7310.6	
614.43	6690.7	
614.62	9325.8	
614.81	9117.6	
615	7598.6	
615.19	7578.2	
615.38	8738	
615.57	9027.4	
615.76	7634.8	
615.95	8236.9	
616.14	9285.5	
616.33	9014.5	
616.52	7811.6	
616.71	7864.2	
616.9	9170.1	
617.09	9052.7	
617.28	7302.4	
617.47	8183	
617.66	8552.3	
617.85	8614.4	
618.04	7879.2	
618.22	7582.3	
618.41	8852.7	
618.6	9417.2	
618.79	7494.2	
618.98	7367.9	
619.17	9710.1	
619.36	8436.3	
619.55	7445.7	
619.74	7523.6	
619.93	9194	
620.12	8873.8	
620.31	7878.5	
620.5	7932.5	
620.69	9572.2	
620.88	9972.2	
621.07	8427.4	
621.26	7861.5	
621.45	9347.6	
621.64	9346.2	
621.83	7917.4	
622.02	7348.1	
622.21	9377.6	
622.4	9300.5	
622.59	8275.2	
622.78	8111.3	
622.97	9022.7	
623.16	9682.1	
623.35	7907.2	
623.54	7197.2	
623.72	9039.7	
623.91	9182.4	
624.1	7993.9	
624.29	7064.8	
624.48	9908.1	
624.67	9380.4	
624.86	7932.5	
625.05	7300.3	
625.24	10016	
625.43	8972.2	
625.62	9052	
625.81	7496.9	
626	9495.1	
626.19	9052.7	
626.38	7841.7	
626.56	7495.6	
626.75	8912.1	
626.94	9443.9	
627.13	7954.3	
627.32	6952.9	
627.51	9377	
627.7	10138	
627.89	7067.5	
628.08	7882.6	
628.27	8676.6	
628.46	8929.8	
628.65	7239.6	
628.83	6948.1	
629.02	9232.2	
629.21	8673.8	
629.4	7524.9	
629.59	7707.9	
629.78	8695.7	
629.97	9387.9	
630.16	7702.4	
630.35	7341.3	
630.54	9774.3	
630.72	9484.1	
630.91	7385	
631.1	7662.1	
631.29	9053.4	
631.48	9099.1	
631.67	7802.1	
631.86	7375.4	
632.05	8929.8	
632.24	8929.1	
632.42	7196.6	
632.61	7493.5	
632.8	8852.7	
632.99	8610.3	
633.18	7599.3	
633.37	7802.8	
633.56	9110	
633.75	8975.6	
633.93	7675.8	
634.12	7432.8	
634.31	9690.3	
634.5	9357.9	
634.69	7523.6	
634.88	7806.2	
635.07	8939.4	
635.25	9393.4	
635.44	8006.2	
635.63	8063.5	
635.82	8869.8	
636.01	8308.6	
636.2	7909.9	
636.39	7660.8	
636.57	9712.2	
636.76	9290.3	
636.95	7279.8	
637.14	8135.9	
637.33	9149.6	
637.52	9742.9	
637.7	7105.8	
637.89	7775.5	
638.08	8937.3	
638.27	9811.1	
638.46	7824.6	
638.65	8022.6	
638.83	9657.5	
639.02	8763.3	
639.21	7687.4	
639.4	7912.7	
639.59	8975.6	
639.78	8794	
639.96	7225.9	
640.15	7150.1	
640.34	8980.3	
640.53	8908	
640.72	7032.7	
640.91	7197.2	
641.09	8487.5	
641.28	9296.4	
641.47	7163.1	
641.66	7811	
641.85	8834.9	
642.03	8966	
642.22	7502.4	
642.41	7140.6	
642.6	8469.7	
642.79	7985	
642.97	6972.7	
643.16	7451.2	
643.35	8370	
643.54	8231.5	
643.73	6852.5	
643.91	7346.1	
644.1	8189.1	
644.29	8632.2	
644.48	6834.1	
644.67	6848.4	
644.85	8002.8	
645.04	8428.1	
645.23	6522.8	
645.42	6752.8	
645.6	8045.8	
645.79	8749.6	
645.98	6623.1	
646.17	5944.6	
646.36	7680.6	
646.54	8017.8	
646.73	7013.6	
646.92	6189	
647.11	7754.3	
647.29	8425.3	
647.48	6172.6	
647.67	6046.3	
647.86	8612.4	
648.05	8595.3	
648.23	6354.8	
648.42	7159.7	
648.61	8183.7	
648.8	7933.1	
648.98	6147.3	
649.17	6300.9	
649.36	7634.8	
649.55	7293.5	
649.73	6154.1	
649.92	6651.1	
650.11	7532.4	
650.3	7780.9	
650.48	6189.6	
650.67	6010.8	
650.86	8039	
651.05	7273.7	
651.23	6147.3	
651.42	6053.8	
651.61	7591.1	
651.79	7575.4	
651.98	6265.4	
652.17	5957.5	
652.36	7846.5	
652.54	7243.7	
652.73	6123.4	
652.92	5973.2	
653.11	7875.8	
653.29	7950.9	
653.48	5607.3	
653.67	6206	
653.85	7679.9	
654.04	8351.6	
654.23	6336.4	
654.42	6040.8	
654.6	7306.5	
654.79	7849.2	
654.98	5668.1	
655.16	5995.8	
655.35	6979.5	
655.54	6796.5	
655.73	5525.4	
655.91	5446.9	
656.1	7588.4	
656.29	6804	
656.47	5288.5	
656.66	6391	
656.85	7095.5	
657.03	7103	
657.22	5681.7	
657.41	5674.9	
657.59	7223.9	
657.78	7115.3	
657.97	5438.7	
658.16	5982.1	
658.34	7682.6	
658.53	7922.9	
658.72	6625.9	
658.9	6846.4	
659.09	7359.7	
659.28	7445.7	
659.46	5763.7	
659.65	5752.7	
659.84	7201.3	
660.02	7581.6	
660.21	5825.1	
660.4	5629.9	
660.58	7817.1	
660.77	7438.9	
660.96	6090	
661.14	5466	
661.33	8143.4	
661.52	8073.8	
661.7	5410.7	
661.89	7827.3	
662.08	7077.1	
662.26	6768.5	
662.45	5629.9	
662.64	5679	
662.82	7591.1	
663.01	6997.9	
663.2	5714.5	
663.38	6141.2	
663.57	7413.6	
663.75	7377.5	
663.94	5834	
664.13	6742.6	
664.31	7069.6	
664.5	7445.7	
664.69	6094.1	
664.87	6260.6	
665.06	6898.2	
665.25	7339.9	
665.43	6548.7	
665.62	6520.7	
665.8	7450.5	
665.99	7012.2	
666.18	5819	
666.36	5859.2	
666.55	7576.1	
666.74	7356.3	
666.92	5560.2	
667.11	6628.6	
667.29	7083.9	
667.48	7463.5	
667.67	6269.5	
667.85	5697.4	
668.04	7029.3	
668.22	7000	
668.41	5879	
668.6	5954.1	
668.78	6852.5	
668.97	7012.9	
669.15	6076.3	
669.34	5373.2	
669.53	6862.1	
669.71	7073.7	
669.9	5425.8	
670.08	5906.3	
670.27	6780.8	
670.46	7234.8	
670.64	6029.2	
670.83	6150.7	
671.01	6791.1	
671.2	7180.9	
671.38	5487.2	
671.57	5421	
671.76	7609.6	
671.94	7950.2	
672.13	5390.3	
672.31	6114.6	
672.5	7333.1	
672.69	6882.5	
672.87	5441.5	
673.06	5655.1	
673.24	7212.9	
673.43	6924.2	
673.61	5954.1	
673.8	5586.9	
673.98	7266.2	
674.17	7320.1	
674.36	6020.3	
674.54	5954.1	
674.73	6994.5	
674.91	7326.9	
675.1	5760.3	
675.28	5404.6	
675.47	6969.2	
675.65	7365.9	
675.84	5638.1	
676.03	5823.7	
676.21	6813.6	
676.4	6400.6	
676.58	6226.5	
676.77	5988.9	
676.95	7890.1	
677.14	6802.7	
677.32	5384.8	
677.51	5269.4	
677.69	7294.2	
677.88	6659.3	
678.06	5345.9	
678.25	5435.3	
678.44	6936.5	
678.62	6795.8	
678.81	5175.2	
678.99	5857.9	
679.18	7465.5	
679.36	7202	
679.55	5550	
679.73	5963	
679.92	7146	
680.1	6815	
680.29	6409.5	
680.47	5526.1	
680.66	6846.4	
680.84	7327.6	
681.03	5121.3	
681.21	5806.7	
681.4	6798.6	
681.58	6697.5	
681.77	5446.9	
681.95	5411.4	
682.14	7337.2	
682.32	7579.5	
682.51	5975.3	
682.69	5175.2	
682.88	6818.4	
683.06	6985.6	
683.25	5851.7	
683.43	6054.5	
683.62	6966.5	
683.8	7155.6	
683.99	6144.6	
684.17	5684.5	
684.36	7714.7	
684.54	6873.7	
684.73	5053.7	
684.91	5219.6	
685.1	6926.2	
685.28	6579.4	
685.46	5532.2	
685.65	5477	
685.83	6883.2	
686.02	6593.1	
686.2	5115.8	
686.39	5131.5	
686.57	6380.1	
686.76	7321.5	
686.94	5041.4	
687.13	5212.8	
687.31	6727.6	
687.5	6550.8	
687.68	4751.3	
687.86	5619.6	
688.05	7809.6	
688.23	6273.6	
688.42	5694	
688.6	5135.6	
688.79	6505.7	
688.97	6507.8	
689.16	5449.6	
689.34	4780.6	
689.52	7085.3	
689.71	7310.6	
689.89	5675.6	
690.08	5253.7	
690.26	6821.8	
690.45	6715.3	
690.63	5848.3	
690.81	5429.8	
691	6797.9	
691.18	6496.8	
691.37	5539.8	
691.55	6827.9	
691.74	6507.1	
691.92	7885.4	
692.1	5437.4	
692.29	5117.2	
692.47	6725.5	
692.66	6271.6	
692.84	5216.9	
693.02	5504.9	
693.21	6339.8	
693.39	6771.9	
693.58	5691.3	
693.76	5281.7	
693.94	7546.8	
694.13	7441.6	
694.31	5355.4	
694.5	6109.1	
694.68	6675.7	
694.86	7037.5	
695.05	5695.4	
695.23	6014.2	
695.42	7344	
695.6	8795.3	
695.78	6205.3	
695.97	5600.5	
696.15	7434.8	
696.34	6946.7	
696.52	5500.8	
696.7	5950.7	
696.89	7178.1	
697.07	6773.3	
697.25	5829.9	
697.44	6822.5	
697.62	7210.2	
697.81	7327.6	
697.99	5801.2	
698.17	6009.4	
698.36	6767.2	
698.54	7165.8	
698.72	5911.8	
698.91	5264	
699.09	6964.5	
699.28	6754.2	
699.46	5769.8	
699.64	5651	
699.83	6793.1	
700.01	7473	
700.19	6215.6	
700.38	5232.6	
700.56	7593.9	
700.74	6895.5	
700.93	5405.3	
701.11	6064	
701.29	7316	
701.48	8125.7	
701.66	5691.3	
701.84	5771.2	
702.03	7122.8	
702.21	7585	
702.39	5416.2	
702.58	5894.1	
702.76	7466.2	
702.94	7514	
703.13	5435.3	
703.31	7193.1	
703.49	7053.9	
703.68	7976.8	
703.86	5649.7	
704.04	6291.4	
704.23	7384.3	
704.41	7593.2	
704.59	5787.6	
704.78	6489.3	
704.96	8464.3	
705.14	7647.1	
705.33	5688.6	
705.51	6250.4	
705.69	7210.2	
705.87	7830.7	
706.06	6376	
706.24	5668.8	
706.42	7559.1	
706.61	7642.3	
706.79	6452.5	
706.97	5668.8	
707.16	7177.4	
707.34	7593.2	
707.52	6374	
707.7	5861.3	
707.89	7202	
708.07	7090.1	
708.25	6494.1	
708.44	6657.3	
708.62	7123.5	
708.8	8060.8	
708.98	6673.6	
709.17	5939.1	
709.35	7514.7	
709.53	7516	
709.72	5764.3	
709.9	5810.1	
710.08	7854.6	
710.26	7671.7	
710.45	6866.2	
710.63	5950.7	
710.81	7523.6	
710.99	7485.3	
711.18	6450.4	
711.36	6092.7	
711.54	7338.6	
711.72	7853.3	
711.91	6120	
712.09	5737.7	
712.27	7487.4	
712.45	7800	
712.64	6204	
712.82	5474.9	
713	6968.6	
713.18	7148.8	
713.37	5529.5	
713.55	6361.7	
713.73	7642.3	
713.91	6592.4	
714.1	5591	
714.28	5213.4	
714.46	7148.1	
714.64	6523.5	
714.83	4696	
715.01	5207.3	
715.19	6553.5	
715.37	5944.6	
715.55	4910.3	
715.74	5005.9	
715.92	6965.1	
716.1	5567.1	
716.28	5855.8	
716.47	5145.9	
716.65	6178	
716.83	6197.2	
717.01	5014.8	
717.19	4999.8	
717.38	7500.3	
717.56	5908.4	
717.74	5165	
717.92	4610	
718.1	6795.2	
718.29	6208.8	
718.47	4421.6	
718.65	4884.4	
718.83	6907.1	
719.01	6830.7	
719.2	4529.4	
719.38	5357.5	
719.56	6669.6	
719.74	7884	
719.92	5166.3	
720.11	5745.9	
720.29	6804	
720.47	6217.6	
720.65	4765.6	
720.83	5342.5	
721.02	6342.6	
721.2	6123.4	
721.38	5202.5	
721.56	4691.9	
721.74	5648.3	
721.92	5779.4	
722.11	5464	
722.29	5326.1	
722.47	6707.1	
722.65	6097.5	
722.83	4691.2	
723.01	5204.6	
723.2	6130.9	
723.38	6369.9	
723.56	4310.3	
723.74	5136.3	
723.92	5876.3	
724.1	6626.5	
724.29	4618.2	
724.47	5401.9	
724.65	5960.3	
724.83	5813.5	
725.01	4558.8	
725.19	5121.3	
725.37	5853.1	
725.56	5859.9	
725.74	4429.8	
725.92	4614.1	
726.1	5839.4	
726.28	6086.6	
726.46	4980	
726.64	4651.6	
726.83	6145.3	
727.01	6210.8	
727.19	4419.5	
727.37	5104.9	
727.55	6156.2	
727.73	6495.5	
727.91	4377.2	
728.09	4379.2	
728.28	6524.8	
728.46	6632	
728.64	5151.3	
728.82	5023	
729	7271.7	
729.18	6802	
729.36	4582.7	
729.54	6093.4	
729.72	7524.9	
729.91	6367.8	
730.09	6042.2	
730.27	5197.1	
730.45	6337.1	
730.63	6737.8	
730.81	5551.4	
730.99	4990.2	
731.17	7197.2	
731.35	6206	
731.53	5272.8	
731.71	5094.7	
731.9	6963.1	
732.08	7030	
732.26	5208.7	
732.44	5014.8	
732.62	7062.1	
732.8	6746	
732.98	5467.4	
733.16	4829.8	
733.34	6752.2	
733.52	5773.9	
733.7	5131.5	
733.88	5276.3	
734.07	6588.3	
734.25	6400.6	
734.43	4829.1	
734.61	5852.4	
734.79	7430.7	
734.97	6393.1	
735.15	4879.6	
735.33	5072.1	
735.51	6567.8	
735.69	6373.3	
735.87	5778.7	
736.05	5188.2	
736.23	6453.8	
736.41	6242.9	
736.59	5078.3	
736.77	5139	
736.95	6735.1	
737.13	6257.9	
737.32	4863.2	
737.5	4985.4	
737.68	7234.8	
737.86	6251.8	
738.04	4685.8	
738.22	6008.1	
738.4	6159.6	
738.58	6404.7	
738.76	5121.3	
738.94	4395.6	
739.12	6243.6	
739.3	6204.7	
739.48	5485.1	
739.66	5336.3	
739.84	6411.5	
740.02	6350.1	
740.2	4453.6	
740.38	4685.8	
740.56	6578.1	
740.74	5709.7	
740.92	5145.9	
741.1	5023.7	
741.28	6195.1	
741.46	6047	
741.64	4820.9	
741.82	5116.5	
742	6204	
742.18	6102.3	
742.36	4866.7	
742.54	4560.1	
742.72	6642.2	
742.9	5636	
743.08	5143.1	
743.26	4322.6	
743.44	6619.7	
743.62	6511.9	
743.8	5217.5	
743.98	4487.1	
744.16	6302.3	
744.34	6081.1	
744.52	5143.8	
744.7	5122	
744.88	6406	
745.06	6074.3	
745.24	5144.5	
745.42	5193.6	
745.6	6408.8	
745.78	6278.4	
745.96	4282.3	
746.14	4500.1	
746.32	6881.9	
746.5	6318	
746.68	4810	
746.86	4457.1	
747.03	6578.8	
747.21	5532.9	
747.39	4825.7	
747.57	4472.1	
747.75	6094.1	
747.93	6301.6	
748.11	4442	
748.29	4333.5	
748.47	7238.9	
748.65	5812.1	
748.83	4848.9	
749.01	4732.9	
749.19	6227.9	
749.37	5545.2	
749.55	4638.6	
749.73	4657.1	
749.91	5988.3	
750.09	5761.6	
750.26	4675.5	
750.44	4283.7	
750.62	5928.9	
750.8	5906.3	
750.98	4140.3	
751.16	4360.1	
751.34	6027.9	
751.52	5497.4	
751.7	4946.5	
751.88	4106.2	
752.06	6333	
752.24	6154.1	
752.42	4091.8	
752.59	4375.1	
752.77	5874.9	
752.95	6692.1	
753.13	4844.1	
753.31	4304.8	
753.49	5545.9	
753.67	5872.2	
753.85	4587.4	
754.03	4192.2	
754.21	6087.2	
754.38	6206	
754.56	4298	
754.74	3682.9	
754.92	5472.2	
755.1	5844.9	
755.28	3557.3	
755.46	3562.1	
755.64	6331	
755.82	6430.6	
755.99	3586	
756.17	3581.2	
756.35	4433.2	
756.53	5486.5	
756.71	2772.9	
756.89	3408.5	
757.07	5218.9	
757.25	4582.7	
757.42	3814	
757.6	4427.7	
757.78	5337.7	
757.96	4586.8	
758.14	3611.3	
758.32	3363.4	
758.5	4279.6	
758.67	4899.4	
758.85	3509.5	
759.03	3622.9	
759.21	5066.7	
759.39	4629.8	
759.57	3159.3	
759.75	4034.5	
759.92	5573.9	
760.1	5029.8	
760.28	4278.9	
760.46	4461.8	
760.64	4918.5	
760.82	4745.8	
760.99	4208.6	
761.17	3676.1	
761.35	5472.2	
761.53	4691.2	
761.71	3899.3	
761.89	4200.4	
762.06	5492.7	
762.24	5018.9	
762.42	3889.1	
762.6	3709.6	
762.78	5057.8	
762.96	5503.6	
763.13	4158.7	
763.31	3895.9	
763.49	5619.6	
763.67	4977.2	
763.85	4470.7	
764.02	4924.7	
764.2	5909.1	
764.38	5222.3	
764.56	3819.5	
764.74	4403.1	
764.91	5909.8	
765.09	5107.6	
765.27	3672	
765.45	3495.2	
765.63	5978.7	
765.8	5747.3	
765.98	3317.7	
766.16	3485.6	
766.34	4861.2	
766.52	4601.8	
766.69	4179.9	
766.87	3405.8	
767.05	5167.7	
767.23	5658.5	
767.41	3632.4	
767.58	3766.2	
767.76	5502.2	
767.94	5547.3	
768.12	3693.2	
768.29	4126	
768.47	5044.1	
768.65	5604.6	
768.83	3384.6	
769	4174.4	
769.18	4846.2	
769.36	5292	
769.54	4083.6	
769.72	3401.7	
769.89	5551.4	
770.07	5542.5	
770.25	3699.3	
770.43	4535.6	
770.6	6032	
770.78	6274.3	
770.96	3782.6	
771.14	4130.8	
771.31	5452.4	
771.49	4986.8	
771.67	3128.6	
771.85	3298.6	
772.02	4349.2	
772.2	4891.2	
772.38	3773.7	
772.55	3499.3	
772.73	5150.6	
772.91	4923.3	
773.09	3715	
773.26	3790.8	
773.44	5115.1	
773.62	4859.8	
773.8	3367.5	
773.97	3172.3	
774.15	5119.2	
774.33	4932.9	
774.5	3284.3	
774.68	3562.1	
774.86	5254.4	
775.04	4868.7	
775.21	3388	
775.39	3301.3	
775.57	5079.6	
775.74	5254.4	
775.92	3201.7	
776.1	3087.7	
776.27	4989.5	
776.45	5849	
776.63	3377.8	
776.81	2985.9	
776.98	4780	
777.16	5465.3	
777.34	3371	
777.51	3664.5	
777.69	4786.8	
777.87	4604.5	
778.04	3512.9	
778.22	3835.2	
778.4	4576.5	
778.57	5118.6	
778.75	2917	
778.93	3100.6	
779.1	4448.9	
779.28	4320.5	
779.46	2884.9	
779.64	3211.9	
779.81	5170.4	
779.99	5707.7	
780.17	3768.9	
780.34	3912.3	
780.52	4793.6	
780.69	4877.6	
780.87	3485	
781.05	3119.1	
781.22	4868.7	
781.4	4835.3	
781.58	3222.1	
781.75	2688.3	
781.93	4882.4	
782.11	4345.8	
782.28	3865.9	
782.46	3202.3	
782.64	4302.8	
782.81	4967	
782.99	3363.4	
783.17	3229.6	
783.34	4857.8	
783.52	4457.7	
783.69	3344.3	
783.87	3947.1	
784.05	4390.8	
784.22	4394.3	
784.4	3907.5	
784.58	3449.5	
784.75	5051	
784.93	4429.1	
785.1	3235.8	
785.28	3622.2	
785.46	4853.7	
785.63	4379.2	
785.81	3257.6	
785.99	3086.3	
786.16	4509.6	
786.34	4777.2	
786.51	3156.6	
786.69	3450.8	
786.87	4188.8	
787.04	4547.2	
787.22	3042.6	
787.39	3657.7	
787.57	4415.4	
787.75	5162.2	
787.92	3850.9	
788.1	3738.2	
788.27	4334.9	
788.45	4136.2	
788.63	3543.7	
788.8	2676.7	
788.98	4781.3	
789.15	4027.7	
789.33	2732.7	
789.5	3177.1	
789.68	5030.5	
789.86	5115.8	
790.03	3445.4	
790.21	3062.4	
790.38	5084.4	
790.56	4414.1	
790.73	3028.3	
790.91	3008.5	
791.09	4382	
791.26	4825.7	
791.44	3205.8	
791.61	2811.2	
791.79	4345.1	
791.96	4358.1	
792.14	2897.9	
792.32	2638.5	
792.49	4383.3	
792.67	4429.1	
792.84	2955.9	
793.02	2821.4	
793.19	4738.3	
793.37	5176.6	
793.54	2589.3	
793.72	2891	
793.89	5265.3	
794.07	4346.5	
794.25	3305.4	
794.42	2638.5	
794.6	5107	
794.77	4783.4	
794.95	3506.1	
795.12	3058.3	
795.3	4384	
795.47	4773.1	
795.65	3359.4	
795.82	3162.7	
796	4186.7	
796.17	5487.9	
796.35	3097.9	
796.52	3594.2	
796.7	4780.6	
796.87	4805.2	
797.05	3106.8	
797.22	3622.2	
797.4	4769	
797.57	5397.1	
797.75	3239.9	
797.92	3083.6	
798.1	4979.3	
798.27	4233.2	
798.45	2672.6	
798.62	2869.9	
798.8	4597	
798.97	4891.9	
799.15	3375.7	
799.32	3245.3	
799.5	4044.7	
799.67	4558.8	
799.85	3414	
800.02	2632.3	
800.2	4322.6	
800.37	4495.3	
800.55	3556.6	
800.72	3044.6	
800.9	4941.7	
801.07	5154.1	
801.25	3959.4	
801.42	3338.2	
801.6	4949.9	
801.77	4608.6	
801.95	3091.8	
802.12	2997.5	
802.29	4690.5	
802.47	4597.7	
802.64	3275.4	
802.82	2598.2	
802.99	4341	
803.17	4926.7	
803.34	3217.4	
803.52	2904	
803.69	5433.3	
803.87	4091.2	
804.04	3199.6	
804.21	3234.4	
804.39	5110.4	
804.56	4404.5	
804.74	2756.6	
804.91	3265.1	
805.09	4339	
805.26	4360.1	
805.44	2788	
805.61	3141.6	
805.78	4805.9	
805.96	4794.3	
806.13	3308.8	
806.31	3437.2	
806.48	3999.7	
806.66	4392.2	
806.83	3320.4	
807	3232.4	
807.18	4390.2	
807.35	4552.6	
807.53	3006.4	
807.7	2676	
807.87	5144.5	
808.05	4347.8	
808.22	3448.1	
808.4	2672.6	
808.57	4257	
808.74	4103.4	
808.92	2966.8	
809.09	3659.7	
809.27	4326.7	
809.44	4652.3	
809.61	2656.9	
809.79	2897.9	
809.96	5236.7	
810.14	4818.2	
810.31	2661	
810.48	3139.5	
810.66	4394.9	
810.83	4845.5	
811.01	2970.9	
811.18	3287	
811.35	4861.9	
811.53	3905.5	
811.7	3550.5	
811.87	3272.7	
812.05	4414.1	
812.22	4302.8	
812.39	2909.5	
812.57	2781.1	
812.74	4366.3	
812.92	5451.7	
813.09	3155.9	
813.26	3302	
813.44	5271.5	
813.61	4214.7	
813.78	2661	
813.96	3379.8	
814.13	4368.3	
814.3	4153.3	
814.48	3654.3	
814.65	3059.7	
814.82	5087.8	
815	4047.5	
815.17	3169.6	
815.34	3769.6	
815.52	4291.2	
815.69	4289.1	
815.87	3130.7	
816.04	3099.3	
816.21	4371.7	
816.38	3966.9	
816.56	3059.7	
816.73	2895.1	
816.9	5343.8	
817.08	4805.2	
817.25	2929.3	
817.42	3471.3	
817.6	4052.2	
817.77	4319.8	
817.94	3239.2	
818.12	2860.3	
818.29	4158.7	
818.46	5878.4	
818.64	3017.3	
818.81	2790	
818.98	4130.1	
819.16	5575.3	
819.33	3409.9	
819.5	3218.7	
819.67	4622.3	
819.85	5051.7	
820.02	3128.6	
820.19	3259	
820.37	4483.7	
820.54	4222.9	
820.71	3204.4	
820.88	3885.7	
821.06	4506.9	
821.23	4141	
821.4	3238.5	
821.58	3207.8	
821.75	4827.1	
821.92	4464.6	
822.09	2678.1	
822.27	2719	
822.44	4356.7	
822.61	4278.2	
822.79	2689	
822.96	4800.4	
823.13	4626.4	
823.3	4033.8	
823.48	3078.1	
823.65	2760	
823.82	4904.9	
823.99	4033.8	
824.17	3786.7	
824.34	2813.9	
824.51	5520	
824.68	4371.7	
824.86	2957.3	
825.03	3191.4	
825.2	4347.8	
825.37	5027.8	
825.55	2882.2	
825.72	3136.8	
825.89	5397.8	
826.06	5107	
826.24	3134.1	
826.41	3148.4	
826.58	5130.2	
826.75	4542.4	
826.92	2583.2	
827.1	2802.3	
827.27	6604.7	
827.44	5371.1	
827.61	2986.6	
827.79	3560.1	
827.96	4190.8	
828.13	4320.5	
828.3	3110.9	
828.47	2641.2	
828.65	4618.2	
828.82	4542.4	
828.99	3807.9	
829.16	3308.8	
829.34	4807.3	
829.51	4633.9	
829.68	3164.8	
829.85	3158	
830.02	5156.1	
830.2	4802.5	
830.37	2506	
830.54	3664.5	
830.71	5351.3	
830.88	4347.2	
831.05	2468.5	
831.23	2901.3	
831.4	5184.8	
831.57	5584.1	
831.74	2940.9	
831.91	2646.7	
832.09	4705.5	
832.26	4850.3	
832.43	3001	
832.6	3348.4	
832.77	4625.7	
832.94	5113.1	
833.12	2469.9	
833.29	2921.8	
833.46	4671.4	
833.63	5836	
833.8	3238.5	
833.97	2986.6	
834.15	4897.4	
834.32	4682.3	
834.49	3162.7	
834.66	3160	
834.83	4938.3	
835	4165.6	
835.17	2940.2	
835.35	2983.9	
835.52	4772.4	
835.69	4635.2	
835.86	3052.2	
836.03	2538.1	
836.2	4902.2	
836.37	4541.7	
836.55	2988	
836.72	2790.7	
836.89	4552.6	
837.06	4902.8	
837.23	3074	
837.4	3300	
837.57	5418.9	
837.75	5842.2	
837.92	2759.3	
838.09	2930	
838.26	4502.1	
838.43	4962.2	
838.6	3179.1	
838.77	2836.4	
838.94	5570.5	
839.11	5436	
839.29	3041.9	
839.46	2425.5	
839.63	4889.2	
839.8	4575.8	
839.97	2953.2	
840.14	2918.4	
840.31	4714.4	
840.48	4857.1	
840.65	2533.3	
840.82	2932.7	
841	4814.8	
841.17	4705.5	
841.34	2712.2	
841.51	2762.7	
841.68	4745.1	
841.85	4568.3	
842.02	2838.5	
842.19	2413.2	
842.36	4630.5	
842.53	4638	
842.7	2770.2	
842.87	3198.9	
843.05	5836.7	
843.22	4546.5	
843.39	2645.3	
843.56	2820.1	
843.73	4463.9	
843.9	4915.8	
844.07	4174.4	
844.24	3496.6	
844.41	6420.4	
844.58	4266.6	
844.75	2650.1	
844.92	2884.2	
845.09	4806.6	
845.26	4788.2	
845.43	2704	
845.6	2843.3	
845.77	4842.8	
845.94	4631.8	
846.12	2976.4	
846.29	3097.9	
846.46	5016.8	
846.63	4741	
846.8	2724.5	
846.97	3177.8	
847.14	5128.8	
847.31	4772.4	
847.48	3020.1	
847.65	3268.6	
847.82	4981.3	
847.99	4959.5	
848.16	3525.9	
848.33	3280.2	
848.5	4433.2	
848.67	5092.6	
848.84	2648.7	
849.01	2835.1	
849.18	4463.9	
849.35	4169.7	
849.52	3316.3	
849.69	2650.8	
849.86	4971.1	
850.03	5033.2	
850.2	2686.3	
850.37	3222.1	
850.54	5055.8	
850.71	4532.2	
850.88	3168.2	
851.05	2641.2	
851.22	4699.4	
851.39	5161.6	
851.56	2508.1	
851.73	3081.5	
851.9	4306.9	
852.07	4912.4	
852.24	2978.4	
852.41	2721.8	
852.58	4763.6	
852.75	4310.3	
852.92	2979.1	
853.09	2665.8	
853.26	4469.4	
853.43	5087.2	
853.6	2681.5	
853.77	2417.3	
853.94	5165	
854.11	4263.2	
854.28	3806.5	
854.44	2885.6	
854.61	5425.8	
854.78	5031.2	
854.95	2716.3	
855.12	3282.2	
855.29	3984	
855.46	5180.7	
855.63	2741.5	
855.8	3580.5	
855.97	4427	
856.14	5063.9	
856.31	3670.6	
856.48	2918.4	
856.65	4588.1	
856.82	4257.7	
856.99	2605.7	
857.16	2935.4	
857.33	5609.4	
857.49	4548.5	
857.66	2883.5	
857.83	3109.5	
858	4557.4	
858.17	4646.2	
858.34	2577	
858.51	2720.4	
858.68	5197.7	
858.85	5251.7	
859.02	3060.3	
859.19	3237.8	
859.36	4322.6	
859.52	4291.9	
859.69	2689.7	
859.86	3097.9	
860.03	4320.5	
860.2	5177.9	
860.37	2576.3	
860.54	2726.5	
860.71	4922	
860.88	5206.6	
861.05	2941.6	
861.21	3347.7	
861.38	5208	
861.55	4185.4	
861.72	2508.1	
861.89	2941.6	
862.06	5019.6	
862.23	5321.3	
862.4	2607.7	
862.56	2791.4	
862.73	4820.2	
862.9	4643.4	
863.07	3108.1	
863.24	2475.3	
863.41	4218.8	
863.58	4249.5	
863.75	2757.2	
863.91	3110.2	
864.08	5140.4	
864.25	4926	
864.42	3284.3	
864.59	3647.4	
864.76	5396.4	
864.93	4270.7	
865.09	2593.4	
865.26	2895.8	
865.43	5162.9	
865.6	5345.9	
865.77	2411.8	
865.94	2685.6	
866.1	5143.8	
866.27	4824.3	
866.44	3953.3	
866.61	2609.1	
866.78	4580.6	
866.95	4876.2	
867.11	2636.4	
867.28	2458.9	
867.45	5045.5	
867.62	4278.2	
867.79	3059	
867.96	2696.5	
868.12	4254.3	
868.29	4958.8	
868.46	2703.3	
868.63	3501.3	
868.8	5053	
868.97	4914.4	
869.13	2793.4	
869.3	2791.4	
869.47	4806.6	
869.64	5033.2	
869.81	2684.9	
869.97	2747	
870.14	4701.5	
870.31	5165.7	
870.48	2654.2	
870.65	3350.5	
870.81	4586.8	
870.98	4544.4	
871.15	3018.7	
871.32	2772.9	
871.48	4838.7	
871.65	5239.4	
871.82	2684.2	
871.99	2965.5	
872.16	5563	
872.32	5148.6	
872.49	2766.1	
872.66	2738.8	
872.83	4898.7	
872.99	4406.5	
873.16	3055.6	
873.33	2692.4	
873.5	4668	
873.67	4696.7	
873.83	2838.5	
874	3457.7	
874.17	4831.2	
874.34	5386.8	
874.5	3387.3	
874.67	3290.4	
874.84	5131.5	
875.01	4131.4	
875.17	3616.7	
875.34	2650.1	
875.51	4695.3	
875.68	5565	
875.84	3212.6	
876.01	3766.2	
876.18	4878.3	
876.34	4857.1	
876.51	2689.7	
876.68	2667.8	
876.85	4506.2	
877.01	5079	
877.18	3705.5	
877.35	2641.2	
877.52	4737.6	
877.68	4317.8	
877.85	2642.6	
878.02	2656.9	
878.18	4532.2	
878.35	4382	
878.52	2245.3	
878.69	3166.8	
878.85	4998.4	
879.02	4783.4	
879.19	3697.9	
879.35	2882.9	
879.52	4926	
879.69	4964.3	
879.86	2412.5	
880.02	2989.4	
880.19	4605.9	
880.36	5408.7	
880.52	3029.6	
880.69	3156.6	
880.86	4968.4	
881.02	4974.5	
881.19	2956.6	
881.36	2832.3	
881.52	4911.7	
881.69	4375.8	
881.86	2826.2	
882.02	2837.1	
882.19	5071.5	
882.36	5776.6	
882.52	2762.7	
882.69	3700	
882.86	4734.2	
883.02	4743.8	
883.19	3179.8	
883.36	3031.7	
883.52	4943.8	
883.69	5507	
883.86	2757.9	
884.02	2465.1	
884.19	4887.1	
884.36	4630.5	
884.52	3006.4	
884.69	2919	
884.86	4444.1	
885.02	5294.7	
885.19	3005.1	
885.36	3102.7	
885.52	4594.3	
885.69	4784.7	
885.86	3779.2	
886.02	3355.9	
886.19	4969.1	
886.35	4335.5	
886.52	2940.9	
886.69	3631	
886.85	4291.2	
887.02	5154.7	
887.19	5154.7	
887.35	5154.7	
887.52	5154.7	
887.68	5154.7	
887.85	5154.7	
888.02	5154.7	
888.18	5154.7	
888.35	5154.7	
888.51	5154.7	
888.68	5154.7	
888.85	5154.7	
889.01	5154.7	
889.18	5154.7	
889.35	5154.7	
889.51	5154.7	
889.68	5154.7	
889.84	5154.7	
890.01	5154.7	
890.17	5154.7	
890.34	5154.7	
890.51	5154.7	
890.67	5154.7	
890.84	5154.7	
891	5154.7	
891.17	5154.7	
891.34	5154.7	
891.5	5154.7	
891.67	5154.7	
891.83	5154.7	
892	5154.7	
892.16	5154.7	
892.33	5154.7	
892.5	5154.7	
892.66	5154.7	
892.83	5154.7	
892.99	5154.7	
893.16	5154.7	
893.32	5154.7	
893.49	5154.7	
893.65	5154.7	
893.82	5154.7	
893.99	5154.7	
894.15	5154.7	
894.32	5154.7	
894.48	5154.7	
894.65	5154.7	
894.81	5154.7	
894.98	5154.7	
895.14	5154.7	
895.31	5154.7	
895.47	5154.7	
895.64	5154.7	
895.81	5154.7	
895.97	5154.7	
896.14	5154.7	
896.3	5154.7	
896.47	5154.7	
896.63	5154.7	
896.8	5154.7	
896.96	5154.7	
897.13	5154.7	
897.29	5154.7	
897.46	5154.7	
897.62	5154.7	
897.79	5154.7	
897.95	5154.7	
898.12	5154.7	
898.28	5154.7	
898.45	5154.7	
898.61	5154.7	
898.78	5154.7	
898.94	5154.7	
899.11	5154.7	
899.27	5154.7	
899.44	5154.7	
899.6	5154.7	
899.77	5154.7	
899.93	5154.7	
900.1	5154.7	
900.26	5154.7	
900.43	5154.7	
900.59	5154.7	
900.76	5154.7	
900.92	5154.7	
901.09	5154.7	
901.25	5154.7	
901.42	5154.7	
901.58	5154.7	
901.75	5154.7	
901.91	5154.7	
902.07	5154.7	
902.24	5154.7	
902.4	5154.7	
902.57	5154.7	
902.73	5154.7	
902.9	5154.7	
903.06	5154.7	
903.23	5154.7	
903.39	5154.7	
903.56	5154.7	
903.72	5154.7	
903.88	5154.7	
904.05	5154.7	
904.21	5154.7	
904.38	5154.7	
904.54	5154.7	
904.71	5154.7	
904.87	5154.7	
905.03	5154.7	
905.2	5154.7	
905.36	5154.7	
905.53	5154.7	
905.69	5154.7	
905.86	5154.7	
906.02	5154.7	
906.18	5154.7	
906.35	5154.7	
906.51	5154.7	
906.68	5154.7	
906.84	5154.7	
907.01	5154.7	
907.17	5154.7	
907.33	5154.7	
907.5	5154.7	
907.66	5154.7	
907.83	5154.7	
907.99	5154.7	
908.15	5154.7	
908.32	5154.7	
908.48	5154.7	
908.65	5154.7	
908.81	5154.7	
908.97	5154.7	
909.14	5154.7	
909.3	5154.7	
909.47	5154.7	
909.63	5154.7	
909.79	5154.7	
909.96	5154.7	
910.12	5154.7	
910.28	5154.7	
910.45	5154.7	
910.61	5154.7	
910.78	5154.7	
910.94	5154.7	
911.1	5154.7	
911.27	5154.7	
911.43	5154.7	
911.59	5154.7	
911.76	5154.7	
911.92	5154.7	
912.08	5154.7	
912.25	5154.7	
912.41	5154.7	
912.57	5154.7	
912.74	5154.7	
912.9	5154.7	
913.07	5154.7	
913.23	5154.7	
913.39	5154.7	
913.56	5154.7	
913.72	5154.7	
913.88	5154.7	
914.05	5154.7	
914.21	5154.7	
914.37	5154.7	
914.54	5154.7	
914.7	5154.7	
914.86	5154.7	
915.03	5154.7	
915.19	5154.7	
