Wavelength	Intensities	
nm	a.u.	
179.22	1908.5	
179.44	1907.7	
179.65	1909.4	
179.86	1906	
180.08	1929.2	
180.29	4975.9	
180.51	3511.6	
180.72	5717.2	
180.94	6645.7	
181.15	3211.2	
181.37	3167.5	
181.58	5520.6	
181.79	5829.2	
182.01	3431.7	
182.22	3654.9	
182.44	5773.9	
182.65	4822.3	
182.87	4582.7	
183.08	3950.5	
183.29	6056.5	
183.51	4992.3	
183.72	3737.5	
183.94	5371.1	
184.15	5427.1	
184.37	5402.5	
184.58	3202.3	
184.79	4534.9	
185.01	5047.6	
185.22	5765.7	
185.44	4756.7	
185.65	3924.6	
185.86	5332.9	
186.08	4903.5	
186.29	3097.9	
186.51	3420.1	
186.72	5057.1	
186.94	5972.6	
187.15	3909.6	
187.36	4063.2	
187.58	7808.2	
187.79	5494	
188.01	4289.1	
188.22	6685.3	
188.43	6662	
188.65	5752.7	
188.86	3385.3	
189.08	4093.9	
189.29	5221	
189.5	5238.7	
189.72	3744.4	
189.93	3781.9	
190.15	5982.8	
190.36	7206.8	
190.57	4146.5	
190.79	3999.7	
191	6104.3	
191.22	6038.1	
191.43	4171	
191.64	3361.4	
191.86	6309.1	
192.07	6045.6	
192.29	3525.2	
192.5	3753.2	
192.71	6029.9	
192.93	5242.1	
193.14	3712.3	
193.35	3835.8	
193.57	5229.8	
193.78	6056.5	
194	2979.8	
194.21	3665.2	
194.42	4945.2	
194.64	5446.2	
194.85	4054.3	
195.07	4749.2	
195.28	5484.5	
195.49	4732.2	
195.71	4973.2	
195.92	3482.9	
196.13	5606.7	
196.35	5778.7	
196.56	5325.4	
196.78	4092.5	
196.99	7105.1	
197.2	6617	
197.42	4577.9	
197.63	4133.5	
197.84	4874.8	
198.06	5601.9	
198.27	3799	
198.48	5048.9	
198.7	5261.2	
198.91	5328.8	
199.13	4087.7	
199.34	4096.6	
199.55	5795.1	
199.77	4727.4	
199.98	3566.2	
200.19	4208.6	
200.41	5259.9	
200.62	5033.9	
200.83	4267.3	
201.05	4606.6	
201.26	5370.5	
201.47	5038	
201.69	3610.6	
201.9	3503.4	
202.11	5413.5	
202.33	6447.7	
202.54	3877.5	
202.76	4312.3	
202.97	5521.3	
203.18	5558.9	
203.4	4256.4	
203.61	4128.7	
203.82	5490.6	
204.04	5095.3	
204.25	4155.3	
204.46	4064.5	
204.68	5425.1	
204.89	5676.3	
205.1	4036.5	
205.32	3521.1	
205.53	5857.9	
205.74	5976.7	
205.96	2951.1	
206.17	4152.6	
206.38	5796.4	
206.6	5958.9	
206.81	4698.7	
207.02	3811.3	
207.24	5700.9	
207.45	6060.6	
207.66	3870	
207.88	3323.9	
208.09	5691.3	
208.3	5442.8	
208.52	3543	
208.73	3880.2	
208.94	5421	
209.15	6199.2	
209.37	3893.2	
209.58	4078.2	
209.79	5936.4	
210.01	5214.8	
210.22	3128.6	
210.43	3272.7	
210.65	5399.8	
210.86	5913.2	
211.07	3945.8	
211.29	3571.7	
211.5	5793	
211.71	5373.2	
211.93	3549.1	
212.14	3583.3	
212.35	5363.6	
212.56	5584.1	
212.78	4075.5	
212.99	3344.3	
213.2	6384.9	
213.42	5198.4	
213.63	3659.7	
213.84	3947.1	
214.06	4812.7	
214.27	4911	
214.48	3878.9	
214.69	4167.6	
214.91	6148	
215.12	6171.9	
215.33	4201.7	
215.55	4674.8	
215.76	6746.7	
215.97	5859.9	
216.18	4024.3	
216.4	3941	
216.61	5098.1	
216.82	6036.7	
217.04	3607.2	
217.25	3755.3	
217.46	6119.3	
217.67	5799.8	
217.89	3243.3	
218.1	3336.1	
218.31	5468.8	
218.53	5626.5	
218.74	3752.6	
218.95	3635.8	
219.16	5352	
219.38	6338.5	
219.59	3664.5	
219.8	4345.8	
220.01	7057.3	
220.23	5472.2	
220.44	4805.2	
220.65	3599.6	
220.87	5481.7	
221.08	6101.6	
221.29	3327.9	
221.5	4441.4	
221.72	7496.2	
221.93	5188.2	
222.14	4111	
222.35	4891.2	
222.57	5479.7	
222.78	5788.2	
222.99	3906.2	
223.2	4222.9	
223.42	5744.6	
223.63	5876.3	
223.84	2983.2	
224.05	2964.8	
224.27	6958.3	
224.48	6304.3	
224.69	4853	
224.9	4096.6	
225.12	5650.3	
225.33	5378	
225.54	3248.8	
225.75	3629.7	
225.97	5017.5	
226.18	5237.3	
226.39	3947.8	
226.6	3698.6	
226.82	5246.9	
227.03	5022.3	
227.24	4128.7	
227.45	3366.2	
227.67	5875.6	
227.88	6414.2	
228.09	4508.3	
228.3	4578.6	
228.52	5877.7	
228.73	5349.3	
228.94	3842	
229.15	3405.1	
229.36	5363.6	
229.58	5299.5	
229.79	3824.2	
230	4476.9	
230.21	6472.9	
230.43	5602.6	
230.64	4031.8	
230.85	4243.4	
231.06	5859.2	
231.28	5872.2	
231.49	3377.8	
231.7	3975.1	
231.91	5758.2	
232.12	5431.9	
232.34	3532.1	
232.55	3993.5	
232.76	6107.7	
232.97	5608.7	
233.18	3582.6	
233.4	4037.9	
233.61	5679	
233.82	5229.8	
234.03	3762.8	
234.25	3721.8	
234.46	7546.8	
234.67	5411.4	
234.88	4102.8	
235.09	3643.3	
235.31	5780.1	
235.52	5313.8	
235.73	3996.3	
235.94	3453.6	
236.15	5194.3	
236.37	6584.2	
236.58	3611.3	
236.79	3966.2	
237	5777.3	
237.21	4916.5	
237.43	4202.4	
237.64	3306.1	
237.85	9970.9	
238.06	4995	
238.27	4276.2	
238.48	3422.8	
238.7	5791	
238.91	5227.8	
239.12	3914.4	
239.33	3949.2	
239.54	5042.1	
239.76	5410.7	
239.97	3880.9	
240.18	4022.9	
240.39	6860	
240.6	5702.2	
240.82	4114.4	
241.03	3317	
241.24	5489.9	
241.45	6302.3	
241.66	3586	
241.87	4234.5	
242.09	6173.3	
242.3	6549.4	
242.51	4250.9	
242.72	3976.5	
242.93	5910.4	
243.14	5401.9	
243.36	4526.7	
243.57	4904.2	
243.78	6296.8	
243.99	5816.2	
244.2	3969	
244.41	3571.7	
244.63	4982.7	
244.84	5757.5	
245.05	4207.9	
245.26	3897.3	
245.47	5687.9	
245.68	6020.3	
245.9	5306.3	
246.11	4125.3	
246.32	5334.3	
246.53	5689.9	
246.74	6346	
246.95	3327.9	
247.16	4898.1	
247.38	5490.6	
247.59	3235.8	
247.8	3989.4	
248.01	5119.9	
248.22	5338.4	
248.43	3526.6	
248.64	3828.3	
248.86	4769.7	
249.07	5238	
249.28	3418.7	
249.49	4011.3	
249.7	6019	
249.91	6146	
250.12	3255.6	
250.34	3280.8	
250.55	5578	
250.76	5421	
250.97	4043.4	
251.18	4100.7	
251.39	6151.4	
251.6	5617.6	
251.81	4232.5	
252.03	4124.6	
252.24	5186.1	
252.45	5959.6	
252.66	3399.6	
252.87	4322.6	
253.08	5487.9	
253.29	7262.1	
253.5	3454.9	
253.72	4773.1	
253.93	5307.7	
254.14	6518	
254.35	3703.4	
254.56	3857.7	
254.77	5687.9	
254.98	5075.5	
255.19	3656.3	
255.41	4679.6	
255.62	5539.8	
255.83	6152.8	
256.04	4217.5	
256.25	4130.8	
256.46	6705.7	
256.67	5147.9	
256.88	4132.8	
257.09	4513	
257.31	5013.4	
257.52	5144.5	
257.73	5076.9	
257.94	3709.6	
258.15	5240.1	
258.36	5443.5	
258.57	4691.9	
258.78	2972.3	
258.99	5936.4	
259.2	5243.5	
259.41	3791.5	
259.63	3908.2	
259.84	6325.5	
260.05	6762.4	
260.26	4916.5	
260.47	3644	
260.68	5999.2	
260.89	5373.2	
261.1	4544.4	
261.31	3616	
261.52	6029.2	
261.73	6449.7	
261.95	4836.6	
262.16	4192.2	
262.37	6189.6	
262.58	6311.8	
262.79	4892.6	
263	3869.3	
263.21	5445.5	
263.42	5028.4	
263.63	3876.1	
263.84	3771.7	
264.05	6055.8	
264.26	6409.5	
264.47	4695.3	
264.69	4296	
264.9	6202.6	
265.11	5677	
265.32	3600.3	
265.53	3687.7	
265.74	5629.9	
265.95	4900.1	
266.16	4078.9	
266.37	4450.2	
266.58	5554.8	
266.79	5256.5	
267	3773	
267.21	3435.1	
267.42	5009.3	
267.63	5416.2	
267.84	3966.9	
268.06	3356.6	
268.27	5922	
268.48	6173.9	
268.69	3820.1	
268.9	4549.9	
269.11	6152.8	
269.32	4906.3	
269.53	3945.8	
269.74	3661.1	
269.95	5799.2	
270.16	4813.4	
270.37	3971	
270.58	4571.1	
270.79	5282.4	
271	5982.8	
271.21	4187.4	
271.42	3973.1	
271.63	5603.9	
271.84	5125.4	
272.05	3101.3	
272.26	3508.9	
272.47	5465.3	
272.68	5672.2	
272.89	3747.1	
273.11	4352.6	
273.32	5304.2	
273.53	6412.2	
273.74	4231.1	
273.95	4144.4	
274.16	6051.1	
274.37	5587.5	
274.58	4323.3	
274.79	3459.7	
275	5599.8	
275.21	6133.7	
275.42	5138.4	
275.63	4444.1	
275.84	5679	
276.05	7228.6	
276.26	4169	
276.47	3919.8	
276.68	5274.9	
276.89	6407.4	
277.1	4435.9	
277.31	3469.3	
277.52	5771.2	
277.73	5879	
277.94	3399.6	
278.15	3747.1	
278.36	5705	
278.57	5104.2	
278.78	3749.8	
278.99	4291.9	
279.2	5065.3	
279.41	5051	
279.62	4964.3	
279.83	3527.3	
280.04	6698.2	
280.25	4927.4	
280.46	4904.9	
280.67	3931.4	
280.88	5004.6	
281.09	6092	
281.3	4111.6	
281.51	5240.8	
281.72	5137	
281.93	6029.2	
282.14	3669.3	
282.35	3986	
282.56	6031.3	
282.77	5988.3	
282.98	3840.6	
283.19	4678.2	
283.4	7320.1	
283.61	5371.8	
283.82	3384.6	
284.03	4896.7	
284.24	5542.5	
284.45	6097.5	
284.66	4860.5	
284.87	4749.2	
285.08	6055.8	
285.29	6190.3	
285.5	3331.4	
285.71	3891.8	
285.92	6067.4	
286.12	6781.5	
286.33	4816.8	
286.54	3799.7	
286.75	6006	
286.96	5296	
287.17	3534.1	
287.38	4769	
287.59	5125.4	
287.8	5022.3	
288.01	3809.9	
288.22	4506.9	
288.43	6012.2	
288.64	5030.5	
288.85	4606.6	
289.06	4358.8	
289.27	5875.6	
289.48	6494.8	
289.69	4883.7	
289.9	4442	
290.11	6145.3	
290.32	5125.4	
290.53	4642.1	
290.74	4315.1	
290.94	5941.2	
291.15	5923.4	
291.36	3704.1	
291.57	4411.3	
291.78	5193.6	
291.99	4831.8	
292.2	3490.4	
292.41	4259.1	
292.62	6063.4	
292.83	5826.5	
293.04	5247.6	
293.25	3567.6	
293.46	5248.3	
293.67	6057.2	
293.88	3702	
294.09	3567.6	
294.29	5016.8	
294.5	5617.6	
294.71	3955.3	
294.92	3802.4	
295.13	5212.1	
295.34	6556.9	
295.55	3336.1	
295.76	3392.1	
295.97	5883.1	
296.18	6649.1	
296.39	3493.8	
296.6	3706.8	
296.81	5547.3	
297.01	5942.5	
297.22	3814	
297.43	3665.2	
297.64	5120.6	
297.85	5053.7	
298.06	3027.6	
298.27	3320.4	
298.48	5547.3	
298.69	5189.6	
298.9	3937.6	
299.11	3618.1	
299.31	4937	
299.52	5033.9	
299.73	4280.3	
299.94	4216.8	
300.15	5485.1	
300.36	5040.7	
300.57	4224.3	
300.78	4177.2	
300.99	5309.7	
301.2	5582.1	
301.4	3648.8	
301.61	3977.8	
301.82	5778	
302.03	5885.9	
302.24	4435.9	
302.45	3489.7	
302.66	5775.3	
302.87	6204	
303.08	3713.6	
303.29	5063.9	
303.49	5171.8	
303.7	5442.1	
303.91	3292.5	
304.12	4788.8	
304.33	5018.9	
304.54	5618.3	
304.75	3758.7	
304.96	3544.4	
305.16	5816.9	
305.37	6612.2	
305.58	3190.7	
305.79	3386	
306	5834	
306.21	4859.8	
306.42	3700	
306.63	5720.7	
306.83	5259.2	
307.04	6083.8	
307.25	4059.1	
307.46	4058.4	
307.67	4676.9	
307.88	5951.4	
308.09	3607.8	
308.29	3777.8	
308.5	5538.4	
308.71	6139.8	
308.92	3969.6	
309.13	3535.5	
309.34	5363.6	
309.55	5400.5	
309.75	4569	
309.96	4239.3	
310.17	5902.2	
310.38	5184.1	
310.59	4501.4	
310.8	3490.4	
311.01	5899.5	
311.21	5372.5	
311.42	3510.9	
311.63	3657.7	
311.84	5174.5	
312.05	5560.2	
312.26	4115.7	
312.46	4403.8	
312.67	5276.3	
312.88	5033.9	
313.09	3574.4	
313.3	3500	
313.51	6306.4	
313.71	6655.2	
313.92	3559.4	
314.13	3802.4	
314.34	5597.8	
314.55	5446.9	
314.76	4635.9	
314.96	3978.5	
315.17	5564.3	
315.38	5971.9	
315.59	3607.8	
315.8	3414	
316.01	6372.6	
316.21	6421.7	
316.42	3411.9	
316.63	3953.9	
316.84	5321.3	
317.05	6169.2	
317.26	4219.5	
317.46	3774.4	
317.67	5430.5	
317.88	5868.1	
318.09	4594.3	
318.3	3306.8	
318.5	5225.7	
318.71	5834.7	
318.92	5764.3	
319.13	4175.1	
319.34	5999.9	
319.54	6127.5	
319.75	3322.5	
319.96	3162.1	
320.17	5894.7	
320.38	6092.7	
320.58	3276.1	
320.79	3928.7	
321	6088.6	
321.21	6238.1	
321.42	3988.8	
321.62	3243.3	
321.83	4992.9	
322.04	5515.9	
322.25	3812	
322.46	3577.1	
322.66	5566.4	
322.87	5771.2	
323.08	4499.4	
323.29	3528	
323.5	6552.8	
323.7	5042.8	
323.91	4900.8	
324.12	4375.8	
324.33	5472.2	
324.53	5784.1	
324.74	4216.8	
324.95	4444.1	
325.16	4878.9	
325.37	5295.4	
325.57	3594.2	
325.78	3659	
325.99	5485.8	
326.2	4932.2	
326.4	5298.1	
326.61	3302.7	
326.82	5397.1	
327.03	5588.2	
327.24	5137	
327.44	4861.2	
327.65	5780.1	
327.86	4658.4	
328.07	4207.2	
328.27	3394.2	
328.48	6098.2	
328.69	5084.4	
328.9	5149.3	
329.1	3860.4	
329.31	5365.7	
329.52	6302.3	
329.73	3594.2	
329.93	4011.3	
330.14	5482.4	
330.35	5759.6	
330.56	5913.2	
330.76	4431.8	
330.97	5262.6	
331.18	5688.6	
331.39	3964.9	
331.59	3237.8	
331.8	6064.7	
332.01	6176.7	
332.22	3680.2	
332.42	4221.5	
332.63	5604.6	
332.84	5172.5	
333.05	4000.4	
333.25	3650.2	
333.46	5237.3	
333.67	5498.8	
333.88	3749.1	
334.08	4188.1	
334.29	7460.8	
334.5	6180.8	
334.7	3485.6	
334.91	5101.5	
335.12	5018.9	
335.33	5924.1	
335.53	3973.7	
335.74	5838.8	
335.95	5224.4	
336.16	5139	
336.36	3979.2	
336.57	4603.8	
336.78	5006.6	
336.98	6081.8	
337.19	4888.5	
337.4	3917.1	
337.61	6615.6	
337.81	5027.1	
338.02	3715	
338.23	4726.7	
338.43	6300.2	
338.64	5130.8	
338.85	3602.4	
339.05	4710.3	
339.26	6331	
339.47	4908.3	
339.68	3599	
339.88	5339.7	
340.09	5689.9	
340.3	5972.6	
340.5	4155.3	
340.71	3236.5	
340.92	4969.7	
341.13	6229.9	
341.33	3482.2	
341.54	4169	
341.75	5711.8	
341.95	5356.1	
342.16	4007.2	
342.37	4431.1	
342.57	5072.1	
342.78	5399.1	
342.99	4482.3	
343.19	3253.5	
343.4	5893.4	
343.61	5685.8	
343.81	3835.2	
344.02	3518.4	
344.23	5942.5	
344.43	6333	
344.64	4457.7	
344.85	4408.6	
345.06	5751.4	
345.26	6111.8	
345.47	4121.2	
345.68	4924	
345.88	4804.5	
346.09	5978.7	
346.3	4272.1	
346.5	3200.3	
346.71	5486.5	
346.92	5167	
347.12	3231	
347.33	4155.3	
347.54	6094.8	
347.74	6478.4	
347.95	4121.2	
348.16	3069.2	
348.36	5307	
348.57	4931.5	
348.78	4099.4	
348.98	4399.7	
349.19	5474.9	
349.39	4911.7	
349.6	3320.4	
349.81	3634.5	
350.01	5745.9	
350.22	5221.6	
350.43	3974.4	
350.63	4777.9	
350.84	5515.9	
351.05	5292.6	
351.25	3669.3	
351.46	3299.3	
351.67	6056.5	
351.87	5207.3	
352.08	3870.7	
352.29	4385.4	
352.49	5920.7	
352.7	6091.3	
352.9	3542.3	
353.11	4446.1	
353.32	6624.5	
353.52	5309.7	
353.73	3445.4	
353.94	4424.3	
354.14	5737	
354.35	5659.9	
354.55	3608.5	
354.76	4009.2	
354.97	5754.8	
355.17	5551.4	
355.38	3418.1	
355.59	4721.9	
355.79	5193	
356	5651	
356.2	3970.3	
356.41	3481.5	
356.62	4871.4	
356.82	5433.3	
357.03	4256.4	
357.24	3882.9	
357.44	5261.2	
357.65	5343.8	
357.85	5103.5	
358.06	4101.4	
358.27	4904.9	
358.47	5199.1	
358.68	3363.4	
358.88	4315.1	
359.09	5812.8	
359.3	6178	
359.5	5030.5	
359.71	4430.4	
359.91	6686.6	
360.12	5977.3	
360.33	4260.5	
360.53	4851	
360.74	5266	
360.94	5297.4	
361.15	4509.6	
361.36	3733.4	
361.56	6053.8	
361.77	5447.6	
361.97	5061.9	
362.18	3971	
362.38	6139.8	
362.59	5167	
362.8	3678.8	
363	3493.8	
363.21	4941.1	
363.41	5638.7	
363.62	4255.7	
363.83	5354.8	
364.03	5755.5	
364.24	6759	
364.44	5359.5	
364.65	5285.1	
364.85	5479	
365.06	5353.4	
365.27	3926.6	
365.47	3900	
365.68	6520.7	
365.88	5464.7	
366.09	4298.7	
366.29	3977.8	
366.5	5791.7	
366.71	6255.2	
366.91	5292	
367.12	4554.7	
367.32	6866.8	
367.53	6084.5	
367.73	4436.6	
367.94	5496.1	
368.14	5993	
368.35	6935.1	
368.56	4470.7	
368.76	3805.1	
368.97	6118.6	
369.17	7912.7	
369.38	3919.8	
369.58	4257.7	
369.79	5172.5	
369.99	6513.2	
370.2	5253	
370.4	4302.8	
370.61	5920.7	
370.82	7045	
371.02	4188.8	
371.23	3579.2	
371.43	5079	
371.64	6483.9	
371.84	4347.8	
372.05	5573.9	
372.25	7813.7	
372.46	6246.3	
372.66	4323.3	
372.87	4283.7	
373.07	6331	
373.28	7921.5	
373.48	5341.1	
373.69	5061.2	
373.9	5866.1	
374.1	5770.5	
374.31	5262.6	
374.51	4870.1	
374.72	6720.8	
374.92	5471.5	
375.13	5552	
375.33	4689.2	
375.54	6217	
375.74	5668.8	
375.95	4764.3	
376.15	6125.5	
376.36	6219	
376.56	6096.1	
376.77	4943.1	
376.97	5313.1	
377.18	7423.9	
377.38	6464.8	
377.59	5762.3	
377.79	4422.2	
378	6206.7	
378.2	6729.6	
378.41	4505.5	
378.61	4437.9	
378.82	6741.2	
379.02	5900.2	
379.23	4644.8	
379.43	5849.7	
379.64	6879.1	
379.84	6481.1	
380.05	4530.1	
380.25	4459.8	
380.46	6528.9	
380.66	6171.9	
380.87	5818.3	
381.07	6207.4	
381.28	7159	
381.48	6535.1	
381.69	4540.3	
381.89	4543.1	
382.1	5462.6	
382.3	6615.6	
382.51	5620.3	
382.71	6560.3	
382.91	6559.6	
383.12	7051.8	
383.32	4857.1	
383.53	5055.1	
383.73	6313.9	
383.94	6155.5	
384.14	4949.3	
384.35	4145.1	
384.55	6097.5	
384.76	6457.9	
384.96	4803.2	
385.17	5140.4	
385.37	6477	
385.58	5756.8	
385.78	5166.3	
385.98	4005.1	
386.19	5997.1	
386.39	6377.4	
386.6	4627	
386.8	4863.9	
387.01	6498.2	
387.21	6504.3	
387.42	5243.5	
387.62	5870.2	
387.83	5885.9	
388.03	6514.6	
388.23	5070.1	
388.44	5776.6	
388.64	5582.1	
388.85	5769.1	
389.05	5350	
389.26	5963	
389.46	7656.7	
389.67	7059.3	
389.87	5390.9	
390.07	5509	
390.28	6235.4	
390.48	5745.2	
390.69	4663.9	
390.89	4927.4	
391.1	5999.2	
391.3	6987	
391.5	6133	
391.71	6739.9	
391.91	6651.1	
392.12	7811	
392.32	6200.6	
392.53	5312.4	
392.73	6072.2	
392.93	6316.6	
393.14	5059.8	
393.34	5853.1	
393.55	6645	
393.75	6245.6	
393.95	5021.6	
394.16	5043.5	
394.36	6088.6	
394.57	6731.7	
394.77	4593.6	
394.98	4924.7	
395.18	6116.6	
395.38	6341.9	
395.59	6036	
395.79	4836.6	
396	6267.5	
396.2	6753.5	
396.4	5834	
396.61	5798.5	
396.81	7028.6	
397.02	6282.5	
397.22	6107.7	
397.42	6197.8	
397.63	7068.2	
397.83	6258.6	
398.04	4945.2	
398.24	5603.9	
398.44	6844.3	
398.65	5866.1	
398.85	4888.5	
399.05	5040.1	
399.26	6280.4	
399.46	8062.9	
399.67	5420.3	
399.87	5125.4	
400.07	6706.4	
400.28	7066.2	
400.48	5294.7	
400.69	6434.7	
400.89	7706.5	
401.09	7726.3	
401.3	5176.6	
401.5	6344.6	
401.7	8041	
401.91	8317.5	
402.11	5464.7	
402.32	5700.9	
402.52	7342.7	
402.72	7238.2	
402.93	5875.6	
403.13	4718.5	
403.33	8007.6	
403.54	6569.9	
403.74	5586.2	
403.94	6474.3	
404.15	6761.7	
404.35	7984.3	
404.56	5343.8	
404.76	7286	
404.96	7221.1	
405.17	7025.9	
405.37	6690	
405.57	5892	
405.78	7400.7	
405.98	6753.5	
406.18	5502.9	
406.39	6408.1	
406.59	7307.8	
406.79	6875	
407	5332.9	
407.2	5395	
407.4	7415.7	
407.61	7708.6	
407.81	5525.4	
408.01	7821.2	
408.22	6479.1	
408.42	8720.3	
408.62	6771.9	
408.83	6233.3	
409.03	7340.6	
409.23	7276.4	
409.44	6537.8	
409.64	6797.2	
409.84	8480.6	
410.05	8417.8	
410.25	6739.9	
410.45	6459.3	
410.66	7955	
410.86	10350	
411.06	7098.9	
411.27	6952.9	
411.47	10388	
411.67	8223.3	
411.88	7260.7	
412.08	7578.2	
412.28	8928.5	
412.49	9561.3	
412.69	7100.3	
412.89	7146.7	
413.09	9280	
413.3	9298.5	
413.5	7319.4	
413.7	6918.7	
413.91	8436.3	
414.11	9484.1	
414.31	7099.6	
414.52	7696.3	
414.72	9067.7	
414.92	9030.2	
415.12	7157.7	
415.33	7775.5	
415.53	9444.5	
415.73	9638.4	
415.94	8107.9	
416.14	7535.2	
416.34	8411.7	
416.55	8145.5	
416.75	8747.6	
416.95	8240.3	
417.15	9570.8	
417.36	10171	
417.56	9192.6	
417.76	8098.4	
417.97	9882.8	
418.17	9721.7	
418.37	7568.6	
418.57	7765.9	
418.78	9335.3	
418.98	9030.2	
419.18	8697	
419.38	8629.5	
419.59	9054.1	
419.79	8572.1	
419.99	7709.9	
420.2	7980.9	
420.4	9551	
420.6	9725.8	
420.8	7505.8	
421.01	7363.1	
421.21	9431.6	
421.41	9625.5	
421.61	7912	
421.82	7595.9	
422.02	8918.2	
422.22	9871.2	
422.42	8555	
422.63	7948.2	
422.83	9107.3	
423.03	10275	
423.23	7986.4	
423.44	7043	
423.64	9013.1	
423.84	8761.2	
424.04	7410.9	
424.25	7050.5	
424.45	10048	
424.65	9912.9	
424.85	6821.1	
425.06	7486	
425.26	9885.5	
425.46	8878.6	
425.66	7868.3	
425.87	7634.1	
426.07	9670.5	
426.27	9455.5	
426.47	7681.2	
426.67	7016.3	
426.88	9870.5	
427.08	9378.3	
427.28	8034.2	
427.48	6987	
427.69	8269	
427.89	8871.8	
428.09	7971.4	
428.29	7045	
428.5	9691	
428.7	9117.6	
428.9	7002	
429.1	7565.2	
429.3	9082.7	
429.51	9626.8	
429.71	7293.5	
429.91	8233.5	
430.11	9502.6	
430.31	9709.4	
430.52	7733.8	
430.72	8117.5	
430.92	10066	
431.12	9645.9	
431.32	7382.2	
431.53	7839.6	
431.73	8512.7	
431.93	10272	
432.13	7328.3	
432.33	7260.7	
432.54	9004.9	
432.74	9485.5	
432.94	7330.4	
433.14	8271.7	
433.34	9496.4	
433.55	9167.4	
433.75	8304.5	
433.95	10306	
434.15	9419.3	
434.35	9204.9	
434.56	7505.8	
434.76	7119.4	
434.96	9368.1	
435.16	9858.9	
435.36	7408.2	
435.56	8639	
435.77	9155.8	
435.97	9357.2	
436.17	9512.1	
436.37	8689.5	
436.57	9197.4	
436.78	9226.8	
436.98	9283.4	
437.18	9259.5	
437.38	9949	
437.58	9452.1	
437.78	9237.7	
437.99	7802.8	
438.19	9816.6	
438.39	10667	
438.59	7912	
438.79	7289.4	
438.99	10585	
439.2	9374.9	
439.4	7500.3	
439.6	7496.9	
439.8	9751.1	
440	10903	
440.2	8624.7	
440.4	8803.5	
440.61	10327	
440.81	10849	
441.01	7939.3	
441.21	9027.4	
441.41	10972	
441.61	10359	
441.81	9312.8	
442.02	10342	
442.22	11397	
442.42	10494	
442.62	8167.3	
442.82	8232.8	
443.02	10867	
443.22	9976.3	
443.43	8648.6	
443.63	8205.5	
443.83	9790.7	
444.03	9915.6	
444.23	9603.6	
444.43	9090.9	
444.63	10242	
444.83	11515	
445.04	8489.5	
445.24	9681.4	
445.44	10519	
445.64	10717	
445.84	8996	
446.04	9209.7	
446.24	9826.8	
446.44	10910	
446.65	8174.8	
446.85	8641.1	
447.05	10113	
447.25	10891	
447.45	8731.2	
447.65	8091.5	
447.85	10188	
448.05	9738.8	
448.25	9265	
448.46	9098.4	
448.66	10213	
448.86	9785.2	
449.06	7971.4	
449.26	9185.1	
449.46	10706	
449.66	9566.7	
449.86	8759.2	
450.06	8778.3	
450.26	9772.2	
450.47	10430	
450.67	8888.2	
450.87	9357.9	
451.07	10493	
451.27	10391	
451.47	8275.2	
451.67	8882.7	
451.87	10039	
452.07	11059	
452.27	8725.7	
452.47	8511.4	
452.67	10319	
452.88	10976	
453.08	7783.6	
453.28	10064	
453.48	11599	
453.68	10247	
453.88	8630.1	
454.08	8867.7	
454.28	10719	
454.48	10447	
454.68	9488.2	
454.88	9950.4	
455.08	10813	
455.28	10836	
455.48	8522.3	
455.68	9242.5	
455.89	11591	
456.09	11266	
456.29	8972.2	
456.49	9245.9	
456.69	11574	
456.89	10695	
457.09	9725.8	
457.29	10180	
457.49	11230	
457.69	11319	
457.89	9783.1	
458.09	9114.1	
458.29	11063	
458.49	11836	
458.69	10088	
458.89	9592.7	
459.09	12186	
459.29	12239	
459.49	9725.8	
459.69	10606	
459.9	11676	
460.1	11474	
460.3	9585.9	
460.5	9417.2	
460.7	11800	
460.9	11450	
461.1	9180.4	
461.3	10627	
461.5	12592	
461.7	12106	
461.9	9867.1	
462.1	10219	
462.3	11778	
462.5	12428	
462.7	10038	
462.9	10206	
463.1	13622	
463.3	13403	
463.5	10342	
463.7	11587	
463.9	12126	
464.1	12673	
464.3	10852	
464.5	10959	
464.7	13033	
464.9	12868	
465.1	12460	
465.3	11385	
465.5	13370	
465.7	13409	
465.9	11956	
466.1	11373	
466.3	13349	
466.5	12930	
466.7	12774	
466.9	11316	
467.1	13248	
467.3	14252	
467.5	12765	
467.7	11459	
467.9	14449	
468.1	15330	
468.3	12235	
468.5	12789	
468.7	13233	
468.9	13220	
469.1	11996	
469.3	12686	
469.5	15424	
469.7	12960	
469.9	12153	
470.1	11622	
470.3	13374	
470.5	13345	
470.7	13089	
470.9	11752	
471.1	13221	
471.3	13474	
471.5	11641	
471.69	13534	
471.89	12933	
472.09	12444	
472.29	12436	
472.49	12512	
472.69	12695	
472.89	13504	
473.09	11528	
473.29	11372	
473.49	12799	
473.69	12868	
473.89	12517	
474.09	11558	
474.29	14151	
474.49	13896	
474.69	12464	
474.89	11755	
475.09	12941	
475.29	12872	
475.49	11071	
475.69	11399	
475.88	14426	
476.08	13164	
476.28	10962	
476.48	11286	
476.68	13556	
476.88	13244	
477.08	11198	
477.28	11570	
477.48	12662	
477.68	13510	
477.88	10978	
478.08	11333	
478.28	13990	
478.48	12881	
478.67	11487	
478.87	10656	
479.07	13687	
479.27	13053	
479.47	11813	
479.67	11775	
479.87	13511	
480.07	14048	
480.27	10925	
480.47	12641	
480.67	13090	
480.87	13805	
481.06	11166	
481.26	12151	
481.46	13085	
481.66	13011	
481.86	11720	
482.06	12773	
482.26	12778	
482.46	13558	
482.66	11600	
482.86	11178	
483.05	13213	
483.25	12570	
483.45	14159	
483.65	11684	
483.85	12841	
484.05	13069	
484.25	12049	
484.45	12803	
484.65	14121	
484.84	14132	
485.04	11682	
485.24	11633	
485.44	14508	
485.64	12762	
485.84	11188	
486.04	12726	
486.24	13270	
486.44	13635	
486.63	11086	
486.83	12112	
487.03	13226	
487.23	13560	
487.43	11387	
487.63	14027	
487.83	13749	
488.02	14790	
488.22	12661	
488.42	13238	
488.62	14711	
488.82	13495	
489.02	12100	
489.22	12416	
489.41	14341	
489.61	14134	
489.81	11989	
490.01	11987	
490.21	14410	
490.41	15132	
490.61	11894	
490.8	12063	
491	13890	
491.2	13061	
491.4	12675	
491.6	11650	
491.8	13751	
491.99	14041	
492.19	11540	
492.39	12082	
492.59	14468	
492.79	14568	
492.99	13020	
493.18	12028	
493.38	14735	
493.58	15669	
493.78	12982	
493.98	12726	
494.18	14702	
494.37	14302	
494.57	13590	
494.77	13304	
494.97	15138	
495.17	15625	
495.37	13156	
495.56	13539	
495.76	15807	
495.96	15356	
496.16	14524	
496.36	13484	
496.55	15750	
496.75	15247	
496.95	14043	
497.15	13739	
497.35	15760	
497.54	15890	
497.74	13425	
497.94	15460	
498.14	16440	
498.34	16483	
498.53	13365	
498.73	14247	
498.93	15255	
499.13	15919	
499.33	14252	
499.52	14799	
499.72	16045	
499.92	16238	
500.12	13871	
500.32	14320	
500.51	16262	
500.71	16186	
500.91	15021	
501.11	14661	
501.31	16199	
501.5	16473	
501.7	15292	
501.9	14298	
502.1	15910	
502.29	16245	
502.49	14638	
502.69	14959	
502.89	16003	
503.09	16165	
503.28	13376	
503.48	13607	
503.68	15077	
503.88	15190	
504.07	14500	
504.27	13871	
504.47	15657	
504.67	15406	
504.86	14399	
505.06	13883	
505.26	15018	
505.46	16964	
505.65	13742	
505.85	13886	
506.05	14816	
506.25	15358	
506.44	12861	
506.64	13719	
506.84	14571	
507.04	15479	
507.23	12970	
507.43	13573	
507.63	16323	
507.83	14536	
508.02	13373	
508.22	12913	
508.42	16490	
508.62	14298	
508.81	12988	
509.01	13657	
509.21	13900	
509.4	14597	
509.6	13330	
509.8	12813	
510	14263	
510.19	15914	
510.39	12716	
510.59	12936	
510.79	14289	
510.98	15793	
511.18	12940	
511.38	13095	
511.57	15130	
511.77	15053	
511.97	13715	
512.17	12531	
512.36	15147	
512.56	15043	
512.76	12761	
512.95	12506	
513.15	15192	
513.35	13908	
513.55	13788	
513.74	12908	
513.94	15248	
514.14	14716	
514.33	13988	
514.53	13753	
514.73	14721	
514.92	14874	
515.12	13371	
515.32	13169	
515.51	15141	
515.71	15654	
515.91	15135	
516.11	13328	
516.3	16984	
516.5	14784	
516.7	13778	
516.89	14530	
517.09	15030	
517.29	14989	
517.48	14282	
517.68	13554	
517.88	14714	
518.07	15390	
518.27	14235	
518.47	13246	
518.66	15974	
518.86	14563	
519.06	13093	
519.25	13498	
519.45	14955	
519.65	16588	
519.84	14160	
520.04	15003	
520.24	16903	
520.43	15586	
520.63	13792	
520.83	13448	
521.02	14634	
521.22	15401	
521.42	13932	
521.61	14655	
521.81	14866	
522.01	15195	
522.2	14090	
522.4	13674	
522.6	15661	
522.79	14577	
522.99	14007	
523.18	13340	
523.38	15741	
523.58	15774	
523.77	15666	
523.97	13522	
524.17	17804	
524.36	16992	
524.56	15166	
524.76	14872	
524.95	16147	
525.15	15703	
525.34	14653	
525.54	14930	
525.74	16619	
525.93	15439	
526.13	15899	
526.33	14942	
526.52	17126	
526.72	16584	
526.91	16231	
527.11	15480	
527.31	17179	
527.5	17636	
527.7	15481	
527.89	14491	
528.09	16079	
528.29	16977	
528.48	15891	
528.68	15396	
528.87	17342	
529.07	16903	
529.27	15255	
529.46	14766	
529.66	16544	
529.85	17176	
530.05	14607	
530.25	15322	
530.44	18110	
530.64	16522	
530.83	15190	
531.03	15400	
531.23	17157	
531.42	17027	
531.62	16318	
531.81	15384	
532.01	17552	
532.21	18079	
532.4	15354	
532.6	15901	
532.79	18393	
532.99	17829	
533.18	16191	
533.38	17046	
533.58	17571	
533.77	18232	
533.97	16126	
534.16	16967	
534.36	18431	
534.55	17559	
534.75	17253	
534.95	16220	
535.14	18342	
535.34	17638	
535.53	15748	
535.73	17786	
535.92	18989	
536.12	17704	
536.31	15808	
536.51	17106	
536.71	17940	
536.9	17438	
537.1	15881	
537.29	16126	
537.49	18340	
537.68	17402	
537.88	16705	
538.07	15712	
538.27	17709	
538.46	18772	
538.66	15662	
538.86	16180	
539.05	17622	
539.25	18090	
539.44	16519	
539.64	15892	
539.83	17526	
540.03	18674	
540.22	15894	
540.42	15873	
540.61	17634	
540.81	17845	
541	16173	
541.2	17087	
541.39	16929	
541.59	17526	
541.78	16649	
541.98	15454	
542.18	16632	
542.37	16657	
542.57	15844	
542.76	16546	
542.96	16470	
543.15	17140	
543.35	15486	
543.54	14917	
543.74	17308	
543.93	16921	
544.13	15222	
544.32	16466	
544.52	16856	
544.71	16182	
544.91	14238	
545.1	15516	
545.3	16106	
545.49	16752	
545.69	14198	
545.88	14909	
546.08	17960	
546.27	17357	
546.47	15289	
546.66	14672	
546.86	17036	
547.05	17638	
547.24	14823	
547.44	14719	
547.63	15736	
547.83	17079	
548.02	15167	
548.22	15244	
548.41	15610	
548.61	17111	
548.8	14480	
549	14461	
549.19	16173	
549.39	16543	
549.58	14177	
549.78	14721	
549.97	16576	
550.17	15991	
550.36	15550	
550.55	16584	
550.75	16057	
550.94	17007	
551.14	14321	
551.33	14638	
551.53	15486	
551.72	16466	
551.92	14681	
552.11	14549	
552.31	16576	
552.5	16624	
552.69	16225	
552.89	13962	
553.08	16470	
553.28	16214	
553.47	14434	
553.67	15650	
553.86	17017	
554.06	15298	
554.25	13480	
554.44	14323	
554.64	17717	
554.83	17375	
555.03	14188	
555.22	14571	
555.42	16372	
555.61	16293	
555.8	14335	
556	14534	
556.19	15358	
556.39	16492	
556.58	14332	
556.78	14276	
556.97	16056	
557.16	15819	
557.36	15698	
557.55	14015	
557.75	14992	
557.94	16855	
558.13	14173	
558.33	13753	
558.52	16602	
558.72	15563	
558.91	13823	
559.1	14097	
559.3	15040	
559.49	14675	
559.69	13483	
559.88	14261	
560.07	15868	
560.27	16156	
560.46	14490	
560.66	14605	
560.85	15611	
561.04	14685	
561.24	13708	
561.43	13763	
561.63	14952	
561.82	15172	
562.01	15132	
562.21	14195	
562.4	15810	
562.59	16718	
562.79	13981	
562.98	13692	
563.18	15657	
563.37	17218	
563.56	14441	
563.76	13768	
563.95	15165	
564.14	15133	
564.34	14154	
564.53	13802	
564.73	15629	
564.92	16113	
565.11	14227	
565.31	13530	
565.5	16360	
565.69	15158	
565.89	13790	
566.08	14088	
566.27	16232	
566.47	16619	
566.66	14772	
566.85	13480	
567.05	15690	
567.24	15100	
567.44	13714	
567.63	15015	
567.82	15993	
568.02	15681	
568.21	13725	
568.4	14062	
568.6	15409	
568.79	15557	
568.98	13530	
569.18	13710	
569.37	15461	
569.56	17503	
569.76	13994	
569.95	14865	
570.14	15655	
570.34	15533	
570.53	13226	
570.72	13272	
570.91	15933	
571.11	14849	
571.3	13369	
571.49	14439	
571.69	15014	
571.88	14474	
572.07	14172	
572.27	13993	
572.46	14504	
572.65	15789	
572.85	13265	
573.04	13741	
573.23	16036	
573.43	15195	
573.62	13147	
573.81	13812	
574	15272	
574.2	15096	
574.39	13620	
574.58	13812	
574.78	16194	
574.97	15527	
575.16	14260	
575.36	14323	
575.55	15733	
575.74	16031	
575.93	13209	
576.13	14360	
576.32	15236	
576.51	15808	
576.71	13629	
576.9	15193	
577.09	16029	
577.28	15597	
577.48	14131	
577.67	13165	
577.86	15312	
578.05	15740	
578.25	13876	
578.44	14043	
578.63	15381	
578.83	16774	
579.02	13336	
579.21	14944	
579.4	15772	
579.6	15457	
579.79	14060	
579.98	16570	
580.17	16268	
580.37	16401	
580.56	13878	
580.75	14578	
580.94	16839	
581.14	16602	
581.33	15237	
581.52	14046	
581.71	16315	
581.91	17034	
582.1	13896	
582.29	14532	
582.48	16027	
582.68	15987	
582.87	15021	
583.06	14725	
583.25	16509	
583.45	16221	
583.64	15415	
583.83	16158	
584.02	15842	
584.21	16478	
584.41	15363	
584.6	14767	
584.79	16182	
584.98	16954	
585.18	14044	
585.37	14017	
585.56	15636	
585.75	16541	
585.94	14136	
586.14	15011	
586.33	16890	
586.52	15846	
586.71	14469	
586.91	14171	
587.1	15097	
587.29	16014	
587.48	13914	
587.67	13769	
587.87	15702	
588.06	15638	
588.25	14732	
588.44	13992	
588.63	14734	
588.83	15229	
589.02	12841	
589.21	12469	
589.4	13768	
589.59	13472	
589.78	11006	
589.98	11298	
590.17	12452	
590.36	12950	
590.55	10230	
590.74	10791	
590.94	14122	
591.13	12556	
591.32	10561	
591.51	10241	
591.7	13008	
591.89	12524	
592.09	10320	
592.28	10929	
592.47	11789	
592.66	13868	
592.85	10565	
593.05	10898	
593.24	12635	
593.43	13429	
593.62	11004	
593.81	11608	
594	12905	
594.19	13134	
594.39	11083	
594.58	10975	
594.77	13207	
594.96	13730	
595.15	10833	
595.34	11497	
595.54	13173	
595.73	12245	
595.92	10127	
596.11	11343	
596.3	13471	
596.49	12314	
596.68	11200	
596.88	11803	
597.07	13392	
597.26	12350	
597.45	10801	
597.64	12206	
597.83	12695	
598.02	13392	
598.22	11135	
598.41	11706	
598.6	13210	
598.79	12679	
598.98	11212	
599.17	12179	
599.36	13310	
599.55	14692	
599.74	13433	
599.94	13312	
600.13	13913	
600.32	12935	
600.51	11308	
600.7	11497	
600.89	14782	
601.08	15104	
601.27	11267	
601.47	12419	
601.66	14243	
601.85	15022	
602.04	12164	
602.23	12407	
602.42	13344	
602.61	14064	
602.8	12133	
602.99	11934	
603.18	13809	
603.37	14143	
603.57	12657	
603.76	13257	
603.95	14976	
604.14	14543	
604.33	12157	
604.52	12540	
604.71	14239	
604.9	13797	
605.09	13222	
605.28	12965	
605.47	14898	
605.66	14599	
605.86	12711	
606.05	12281	
606.24	14777	
606.43	13314	
606.62	12622	
606.81	13254	
607	14637	
607.19	14086	
607.38	12066	
607.57	12278	
607.76	13768	
607.95	13131	
608.14	12567	
608.33	13194	
608.52	13725	
608.72	14657	
608.91	11787	
609.1	11785	
609.29	13805	
609.48	13188	
609.67	12599	
609.86	11688	
610.05	13304	
610.24	13596	
610.43	11561	
610.62	11139	
610.81	14668	
611	14519	
611.19	11753	
611.38	12465	
611.57	13917	
611.76	15284	
611.95	11472	
612.14	11192	
612.33	13663	
612.52	13197	
612.71	11999	
612.9	11291	
613.09	12804	
613.28	15272	
613.47	11603	
613.66	12723	
613.85	13784	
614.04	13227	
614.24	11716	
614.43	11029	
614.62	13901	
614.81	13889	
615	12233	
615.19	12468	
615.38	13112	
615.57	13564	
615.76	12164	
615.95	13227	
616.14	14010	
616.33	13535	
616.52	12530	
616.71	12837	
616.9	13893	
617.09	13799	
617.28	11899	
617.47	13259	
617.66	13048	
617.85	13123	
618.04	12968	
618.22	12344	
618.41	13587	
618.6	14463	
618.79	12299	
618.98	12119	
619.17	14878	
619.36	13084	
619.55	12310	
619.74	12190	
619.93	14038	
620.12	13629	
620.31	12962	
620.5	13251	
620.69	14754	
620.88	15209	
621.07	13818	
621.26	12973	
621.45	14403	
621.64	14549	
621.83	13040	
622.02	12112	
622.21	14403	
622.4	14151	
622.59	13564	
622.78	13354	
622.97	13797	
623.16	14961	
623.35	12828	
623.54	12067	
623.72	13966	
623.91	14076	
624.1	13132	
624.29	11726	
624.48	15233	
624.67	14399	
624.86	13128	
625.05	11999	
625.24	15333	
625.43	13543	
625.62	14657	
625.81	12110	
626	14508	
626.19	13781	
626.38	12897	
626.56	12108	
626.75	13472	
626.94	14202	
627.13	12562	
627.32	11287	
627.51	13949	
627.7	15287	
627.89	11120	
628.08	12227	
628.27	12943	
628.46	13097	
628.65	11363	
628.83	11035	
629.02	13629	
629.21	12897	
629.4	11990	
629.59	12278	
629.78	13076	
629.97	14029	
630.16	12333	
630.35	11709	
630.54	14420	
630.72	14139	
630.91	11692	
631.1	12393	
631.29	13715	
631.48	13904	
631.67	12378	
631.86	11857	
632.05	13356	
632.24	13375	
632.42	11439	
632.61	12095	
632.8	13480	
632.99	13121	
633.18	12214	
633.37	12678	
633.56	13851	
633.75	13694	
633.93	12278	
634.12	11829	
634.31	14587	
634.5	14329	
634.69	11970	
634.88	12398	
635.07	13560	
635.25	14108	
635.44	12821	
635.63	13187	
635.82	13466	
636.01	12948	
636.2	12893	
636.39	12394	
636.57	14637	
636.76	14199	
636.95	11835	
637.14	13278	
637.33	13835	
637.52	14863	
637.7	11583	
637.89	12551	
638.08	13485	
638.27	15024	
638.46	12689	
638.65	13246	
638.83	14918	
639.02	13316	
639.21	12372	
639.4	13015	
639.59	13667	
639.78	13229	
639.96	11688	
640.15	11697	
640.34	13479	
640.53	13618	
640.72	11358	
640.91	11701	
641.09	12880	
641.28	14107	
641.47	11608	
641.66	12433	
641.85	13478	
642.03	13601	
642.22	12238	
642.41	11564	
642.6	12873	
642.79	12162	
642.97	11167	
643.16	12005	
643.35	12633	
643.54	12299	
643.73	11060	
643.91	11755	
644.1	11980	
644.29	12668	
644.48	10819	
644.67	10774	
644.85	11920	
645.04	12177	
645.23	10002	
645.42	10252	
645.6	11398	
645.79	12461	
645.98	9940.2	
646.17	8811	
646.36	10708	
646.54	11333	
646.73	10458	
646.92	9123.7	
647.11	10722	
647.29	11847	
647.48	9189.9	
647.67	8877.3	
647.86	11919	
648.05	12078	
648.23	9511.4	
648.42	10985	
648.61	11551	
648.8	11421	
648.98	9469.1	
649.17	9814.5	
649.36	11045	
649.55	10519	
649.73	9593.4	
649.92	10428	
650.11	10995	
650.3	11297	
650.48	9613.8	
650.67	9372.2	
650.86	11470	
651.05	10301	
651.23	9532.6	
651.42	9516.9	
651.61	10916	
651.79	11766	
651.98	9738.8	
652.17	9404.3	
652.36	11404	
652.54	10589	
652.73	9385.2	
652.92	9194.7	
653.11	11357	
653.29	11456	
653.48	8583.7	
653.67	9590	
653.85	11109	
654.04	12024	
654.23	9691	
654.42	9198.8	
654.6	10310	
654.79	10918	
654.98	8516.8	
655.16	9046.6	
655.35	9805.7	
655.54	9798.8	
655.73	8643.1	
655.91	8503.8	
656.1	11006	
656.29	9987.9	
656.47	8292.9	
656.66	10038	
656.85	10331	
657.03	10380	
657.22	9004.9	
657.41	9166	
657.59	10669	
657.78	10441	
657.97	8787.8	
658.16	9578.3	
658.34	11353	
658.53	11841	
658.72	10421	
658.9	10863	
659.09	10828	
659.28	10915	
659.46	9428.2	
659.65	9416.6	
659.84	10738	
660.02	11284	
660.21	9299.1	
660.4	9207	
660.58	11755	
660.77	11178	
660.96	9940.8	
661.14	8988.5	
661.33	12306	
661.52	12175	
661.7	8969.4	
661.89	12691	
662.08	10697	
662.26	10273	
662.45	9275.9	
662.64	9255.5	
662.82	11413	
663.01	10655	
663.2	9321	
663.38	10073	
663.57	11261	
663.75	11202	
663.94	9703.3	
664.13	10888	
664.31	10619	
664.5	11323	
664.69	9777	
664.87	10472	
665.06	10358	
665.25	11222	
665.43	10667	
665.62	10762	
665.8	11581	
665.99	10720	
666.18	9541.5	
666.36	9663.7	
666.55	11360	
666.74	11313	
666.92	9244.5	
667.11	10842	
667.29	10768	
667.48	11334	
667.67	10540	
667.85	9574.9	
668.04	10742	
668.22	10819	
668.41	9576.3	
668.6	9808.4	
668.78	10570	
668.97	10731	
669.15	9955.2	
669.34	8817.9	
669.53	10551	
669.71	10879	
669.9	9009	
670.08	9719	
670.27	10565	
670.46	11082	
670.64	9980.4	
670.83	10199	
671.01	10394	
671.2	10950	
671.38	9078.6	
671.57	9069.1	
671.76	11640	
671.94	12220	
672.13	8997.4	
672.31	10023	
672.5	11289	
672.69	10411	
672.87	9097.1	
673.06	9407	
673.24	11039	
673.43	10575	
673.61	9898.5	
673.8	9377	
673.98	11149	
674.17	11390	
674.36	9928.6	
674.54	9860.3	
674.73	10886	
674.91	11204	
675.1	9577.7	
675.28	9245.2	
675.47	10755	
675.65	11348	
675.84	9310.1	
676.03	9689.6	
676.21	10432	
676.4	9925.8	
676.58	10137	
676.77	9805	
676.95	11992	
677.14	10326	
677.32	8985.8	
677.51	8819.9	
677.69	11102	
677.88	10046	
678.06	8852.7	
678.25	8987.9	
678.44	10707	
678.62	10455	
678.81	8539.3	
678.99	9686.9	
679.18	11434	
679.36	10985	
679.55	9288.2	
679.73	9829.6	
679.92	10961	
680.1	10421	
680.29	10454	
680.47	9346.9	
680.66	10276	
680.84	11112	
681.03	8503.2	
681.21	9676	
681.4	10279	
681.58	10028	
681.77	8897.1	
681.95	8798.1	
682.14	11042	
682.32	11379	
682.51	9708.1	
682.69	8449.9	
682.88	10025	
683.06	10654	
683.25	9310.7	
683.43	9808.4	
683.62	10277	
683.8	10639	
683.99	9777	
684.17	8880.7	
684.36	11214	
684.54	9660.3	
684.73	7647.8	
684.91	7738.6	
685.1	9619.3	
685.28	8859.5	
685.46	8017.8	
685.65	8159.8	
685.83	9630.2	
686.02	8941.4	
686.2	7518.1	
686.39	7625.3	
686.57	8635.6	
686.76	10387	
686.94	7547.4	
687.13	7771.4	
687.31	9552.4	
687.5	9117.6	
687.68	7194.5	
687.86	8579.6	
688.05	10866	
688.23	8600.1	
688.42	8664.3	
688.6	7744.7	
688.79	9224.7	
688.97	9043.1	
689.16	8203.5	
689.34	7053.9	
689.52	9861.7	
689.71	10031	
689.89	8330.5	
690.08	7705.1	
690.26	9158.5	
690.45	8882	
690.63	8372.1	
690.81	7526.3	
691	8645.2	
691.18	8567.3	
691.37	7580.9	
691.55	9820.7	
691.74	8462.2	
691.92	10546	
692.1	7542.7	
692.29	6976.1	
692.47	8785.8	
692.66	7980.3	
692.84	7225.9	
693.02	7942	
693.21	8249.2	
693.39	8843.1	
693.58	8073.1	
693.76	7567.9	
693.94	10280	
694.13	10125	
694.31	7755.7	
694.5	8890.9	
694.68	9137.4	
694.86	9433.6	
695.05	8260.8	
695.23	8691.6	
695.42	10002	
695.6	12305	
695.78	8839	
695.97	7909.9	
696.15	9809.1	
696.34	9148.3	
696.52	7447.1	
696.7	8234.9	
696.89	9172.2	
697.07	8727.1	
697.25	8053.3	
697.44	9581.1	
697.62	9067	
697.81	9556.5	
697.99	7606.8	
698.17	8125	
698.36	8312.7	
698.54	9038.4	
698.72	7920.2	
698.91	6890.7	
699.09	8638.3	
699.28	8469	
699.46	7662.1	
699.64	7453.2	
699.83	8507.3	
700.01	9882.8	
700.19	8435.6	
700.38	6801.3	
700.56	9929.2	
700.74	8820.6	
700.93	7382.2	
701.11	8240.3	
701.29	9440.5	
701.48	10606	
701.66	7703.8	
701.84	7655.3	
702.03	9070.5	
702.21	9782.5	
702.39	7234.8	
702.58	7893.6	
702.76	9493	
702.94	9610.4	
703.13	7223.9	
703.31	9764	
703.49	8630.8	
703.68	10301	
703.86	7454.6	
704.04	8452	
704.23	9289.6	
704.41	9646.6	
704.59	7526.3	
704.78	8849.3	
704.96	10415	
705.14	9798.8	
705.33	7498.3	
705.51	8333.9	
705.69	9127.1	
705.87	9949.7	
706.06	8636.3	
706.24	7408.2	
706.42	9556.5	
706.61	9822.1	
706.79	8755.7	
706.97	7467.6	
707.16	8949.6	
707.34	9628.9	
707.52	8576.2	
707.7	7721.5	
707.89	9227.5	
708.07	8777.6	
708.25	8594	
708.44	8819.2	
708.62	9136.7	
708.8	10297	
708.98	8901.8	
709.17	7898.3	
709.35	9589.3	
709.53	9550.4	
709.72	7676.5	
709.9	7761.8	
710.08	9826.8	
710.26	9779.7	
710.45	9260.9	
710.63	7884.7	
710.81	9402.2	
710.99	9405	
711.18	8372.8	
711.36	7848.5	
711.54	8905.3	
711.72	9717.6	
711.91	7775.5	
712.09	7116.7	
712.27	8999.5	
712.45	9604.3	
712.64	7826	
712.82	6714.6	
713	8079.9	
713.18	8163.2	
713.37	6437.4	
713.55	7720.2	
713.73	8778.3	
713.91	7114.6	
714.1	6354.2	
714.28	5683.8	
714.46	7904.5	
714.64	6946.7	
714.83	4921.3	
715.01	5708.4	
715.19	6817.7	
715.37	6268.8	
715.55	5298.1	
715.74	5624.4	
715.92	7781.6	
716.1	5695.4	
716.28	6773.3	
716.47	5745.2	
716.65	6496.2	
716.83	6531	
717.01	5588.2	
717.19	5732.9	
717.38	8772.8	
717.56	6308.4	
717.74	6051.1	
717.92	5302.2	
718.1	7712.7	
718.29	7015.7	
718.47	4958.8	
718.65	5810.8	
718.83	7869.7	
719.01	7860.1	
719.2	5152	
719.38	6274.3	
719.56	7555	
719.74	9260.2	
719.92	5670.8	
720.11	6735.8	
720.29	7552.2	
720.47	6558.3	
720.65	5064.6	
720.83	5942.5	
721.02	6739.9	
721.2	6382.2	
721.38	5820.3	
721.56	5082.4	
721.74	5891.3	
721.92	6173.3	
722.11	6393.1	
722.29	6100.9	
722.47	7368.6	
722.65	6561.7	
722.83	5076.2	
723.01	6029.2	
723.2	6649.1	
723.38	6926.2	
723.56	4474.1	
723.74	5717.9	
723.92	6136.4	
724.1	7326.9	
724.29	5015.5	
724.47	6242.2	
724.65	6267.5	
724.83	6235.4	
725.01	5009.3	
725.19	5953.4	
725.37	6249	
725.56	6349.4	
725.74	4904.2	
725.92	5122	
726.1	6251.8	
726.28	6518	
726.46	5603.9	
726.64	5207.3	
726.83	6389.7	
727.01	6759.7	
727.19	4831.2	
727.37	5718.6	
727.55	6614.9	
727.73	7129	
727.91	4871.4	
728.09	4705.5	
728.28	7224.6	
728.46	7955	
728.64	6038.8	
728.82	5954.8	
729	8579.6	
729.18	7843.7	
729.36	5378.6	
729.54	7869	
729.72	9131.9	
729.91	7354.3	
730.09	7509.9	
730.27	6274.3	
730.45	7266.9	
730.63	7991.9	
730.81	7030	
730.99	6033.3	
731.17	8646.5	
731.35	7112.6	
731.53	6587	
731.71	6171.2	
731.9	8344.1	
732.08	8456.7	
732.26	6367.1	
732.44	5987.6	
732.62	8480	
732.8	7930.4	
732.98	6756.2	
733.16	5779.4	
733.34	7823.2	
733.52	6674.3	
733.7	6278.4	
733.88	6666.1	
734.07	7803.4	
734.25	7596.6	
734.43	5906.3	
734.61	7540.6	
734.79	9290.3	
734.97	7484.6	
735.15	6013.5	
735.33	6400.6	
735.51	7990.5	
735.69	7636.9	
735.87	7651.2	
736.05	6669.6	
736.23	7853.3	
736.41	7608.2	
736.59	6511.9	
736.77	6735.8	
736.95	8370.7	
737.13	7918.1	
737.32	6272.9	
737.5	6485.2	
737.68	8968.7	
737.86	7806.2	
738.04	6186.2	
738.22	8073.8	
738.4	7570.7	
738.58	7841.7	
738.76	6849.8	
738.94	5711.8	
739.12	7702.4	
739.3	7659.4	
739.48	7528.3	
739.66	7220.5	
739.84	8143.4	
740.02	8110	
740.2	5877	
740.38	6313.2	
740.56	8463.6	
740.74	7300.3	
740.92	6952.9	
741.1	6887.3	
741.28	7903.1	
741.46	7767.3	
741.64	6551.5	
741.82	7034.1	
742	7955.7	
742.18	7892.9	
742.36	6723.5	
742.54	6277.7	
742.72	8507.3	
742.9	7182.2	
743.08	7107.8	
743.26	5835.3	
743.44	8675.2	
743.62	8578.9	
743.8	7232.7	
743.98	6242.2	
744.16	8232.8	
744.34	7886	
744.52	7117.4	
744.7	7102.4	
744.88	8398	
745.06	7900.4	
745.24	7230.7	
745.42	7192.5	
745.6	8410.3	
745.78	8064.2	
745.96	5868.8	
746.14	6234	
746.32	9041.8	
746.5	8401.5	
746.68	6802	
746.86	6247	
747.03	8768	
747.21	7030.7	
747.39	6818.4	
747.57	6173.9	
747.75	7866.9	
747.93	8320.9	
748.11	6180.8	
748.29	6134.3	
748.47	9522.4	
748.65	7662.8	
748.83	6905.8	
749.01	6741.9	
749.19	8062.9	
749.37	7351.5	
749.55	6486.6	
749.73	6657.9	
749.91	7730.4	
750.09	7456	
750.26	6633.4	
750.44	6002.6	
750.62	7836.2	
750.8	7758.4	
750.98	5908.4	
751.16	6242.2	
751.34	7807.5	
751.52	7089.4	
751.7	7057.3	
751.88	5851	
752.06	8446.5	
752.24	8114.1	
752.42	5786.9	
752.59	6160.3	
752.77	7613.7	
752.95	8995.4	
753.13	6916.7	
753.31	6249.7	
753.49	7417.7	
753.67	7783	
753.85	6545.3	
754.03	6065.4	
754.21	8021.9	
754.38	8404.2	
754.56	6221	
754.74	5116.5	
754.92	7078.5	
755.1	7709.2	
755.28	4973.8	
755.46	4741	
755.64	7946.8	
755.82	7858.1	
755.99	4567	
756.17	4609.3	
756.35	5115.8	
756.53	6767.9	
756.71	3342.3	
756.89	4305.5	
757.07	6341.2	
757.25	5433.9	
757.42	4999.8	
757.6	6025.8	
757.78	6544.6	
757.96	5528.8	
758.14	4807.3	
758.32	4295.3	
758.5	4970.4	
758.67	5828.5	
758.85	4495.3	
759.03	4607.9	
759.21	6021	
759.39	5367	
759.57	4074.1	
759.75	5298.1	
759.92	6692.1	
760.1	5909.1	
760.28	5720	
760.46	6043.6	
760.64	5835.3	
760.82	5627.1	
760.99	5451	
761.17	4859.1	
761.35	6851.8	
761.53	5883.8	
761.71	5107	
761.89	5976	
762.06	6910.5	
762.24	6384.2	
762.42	5383.4	
762.6	5160.2	
762.78	6552.8	
762.96	7204.1	
763.13	5925.5	
763.31	5625.1	
763.49	7494.9	
763.67	6588.3	
763.85	6607.4	
764.02	7109.2	
764.2	7802.1	
764.38	6918	
764.56	5583.4	
764.74	6487.3	
764.91	7943.4	
765.09	6766.5	
765.27	5334.3	
765.45	5071.5	
765.63	7945.4	
765.8	7920.9	
765.98	4718.5	
766.16	5074.2	
766.34	6354.2	
766.52	6086.6	
766.69	6113.9	
766.87	4897.4	
767.05	6730.3	
767.23	7480.5	
767.41	5311.1	
767.58	5522	
767.76	7234.1	
767.94	7470.3	
768.12	5343.8	
768.29	6093.4	
768.47	6805.4	
768.65	7553.6	
768.83	4909	
769	6100.2	
769.18	6285.9	
769.36	7026.6	
769.54	5784.8	
769.72	4853.7	
769.89	7286.7	
770.07	7378.8	
770.25	5159.5	
770.43	6562.4	
770.6	8096.3	
770.78	8552.3	
770.96	5427.1	
771.14	6085.9	
771.31	7091.4	
771.49	6484.6	
771.67	4508.9	
771.85	4779.3	
772.02	5707.7	
772.2	6411.5	
772.38	5470.1	
772.55	4949.3	
772.73	6755.6	
772.91	6464.8	
773.09	5358.2	
773.26	5392.3	
773.44	6623.8	
773.62	6296.8	
773.8	4829.1	
773.97	4484.4	
774.15	6657.3	
774.33	6312.5	
774.5	4655	
774.68	5015.5	
774.86	6852.5	
775.04	6219.7	
775.21	4675.5	
775.39	4679.6	
775.57	6516	
775.74	6982.2	
775.92	4549.9	
776.1	4410	
776.27	6511.9	
776.45	7705.8	
776.63	4640	
776.81	4127.3	
776.98	6062.7	
777.16	7223.9	
777.34	4793.6	
777.51	4802.5	
777.69	6064	
777.87	5810.1	
778.04	4797.7	
778.22	5492.7	
778.4	5855.8	
778.57	6417	
778.75	3988.8	
778.93	4330.8	
779.1	5607.3	
779.28	5395	
779.46	4025.6	
779.64	4540.3	
779.81	6582.9	
779.99	7462.8	
780.17	5331.5	
780.34	5515.2	
780.52	6021.7	
780.69	6262.7	
780.87	4827.7	
781.05	4340.3	
781.22	5980.8	
781.4	6081.8	
781.58	4425.7	
781.75	3562.1	
781.93	6021	
782.11	5444.2	
782.28	5367	
782.46	4377.2	
782.64	5233.9	
782.81	6309.1	
782.99	4480.3	
783.17	4463.2	
783.34	6019.7	
783.52	5194.3	
783.69	4631.1	
783.87	5453.7	
784.05	5315.8	
784.22	5255.8	
784.4	5436.7	
784.58	4713.7	
784.75	6245.6	
784.93	5307	
785.1	4408.6	
785.28	4980.7	
785.46	5980.1	
785.63	5284.4	
785.81	4255.7	
785.99	4121.9	
786.16	5442.8	
786.34	5805.3	
786.51	4161.5	
786.69	4573.8	
786.87	5023.7	
787.04	5584.8	
787.22	4016.1	
787.39	4988.2	
787.57	5246.2	
787.75	6434	
787.92	5166.3	
788.1	5166.3	
788.27	5319.3	
788.45	5052.3	
788.63	4786.8	
788.8	3534.8	
788.98	5782.1	
789.15	4990.2	
789.33	3596.9	
789.5	4319.8	
789.68	6228.6	
789.86	6300.9	
790.03	4786.1	
790.21	4134.2	
790.38	6188.3	
790.56	5420.3	
790.73	3992.2	
790.91	4071.4	
791.09	5225.7	
791.26	6022.4	
791.44	4253.6	
791.61	3678.8	
791.79	5250.3	
791.96	5293.3	
792.14	3749.1	
792.32	3283.6	
792.49	5186.8	
792.67	5332.9	
792.84	3863.8	
793.02	3634.5	
793.19	5708.4	
793.37	6497.5	
793.54	3360	
793.72	3723.2	
793.89	6556.9	
794.07	5214.8	
794.25	4419.5	
794.42	3416	
794.6	6373.3	
794.77	5948.7	
794.95	4584	
795.12	3983.3	
795.3	5163.6	
795.47	5838.1	
795.65	4369.7	
795.82	4246.8	
796	4969.1	
796.17	6965.1	
796.35	4060.4	
796.52	4848.2	
796.7	5763	
796.87	5831.2	
797.05	5078.3	
797.22	4991.6	
797.4	5771.2	
797.57	6792.4	
797.75	4220.2	
797.92	4011.3	
798.1	6084.5	
798.27	5200.5	
798.45	3373	
798.62	3647.4	
798.8	5465.3	
798.97	6051.1	
799.15	4525.3	
799.32	4227	
799.5	4779.3	
799.67	5607.3	
799.85	4608.6	
800.02	3323.9	
800.2	5137	
800.37	5455.1	
800.55	4771.1	
800.72	3964.9	
800.9	5932.3	
801.07	6487.3	
801.25	5282.4	
801.42	4348.5	
801.6	6021	
801.77	5677.7	
801.95	4037.9	
802.12	3876.8	
802.29	5640.8	
802.47	5683.1	
802.64	4291.2	
802.82	3251.5	
802.99	5047.6	
803.17	6119.3	
803.34	4177.9	
803.52	3773.7	
803.69	6776.7	
803.87	4900.1	
804.04	4126	
804.21	4285.7	
804.39	6215.6	
804.56	5340.4	
804.74	3536.2	
804.91	4360.8	
805.09	5091.3	
805.26	5233.2	
805.44	3600.3	
805.61	3988.1	
805.78	5810.8	
805.96	5859.2	
806.13	4342.4	
806.31	4671.4	
806.48	4617.5	
806.66	5249.6	
806.83	4251.6	
807	4215.4	
807.18	5098.8	
807.35	5489.9	
807.53	4219.5	
807.7	3364.8	
807.87	6309.8	
808.05	5119.2	
808.22	4618.2	
808.4	3315	
808.57	5177.9	
808.74	4769	
808.92	3832.4	
809.09	4917.2	
809.27	5000.5	
809.44	5660.6	
809.61	3402.4	
809.79	3745.1	
809.96	6268.8	
810.14	5874.9	
810.31	3278.8	
810.48	3984.7	
810.66	5223	
810.83	5971.2	
811.01	3834.5	
811.18	4255.7	
811.35	5879.7	
811.53	4562.2	
811.7	4602.5	
811.87	4340.3	
812.05	5089.2	
812.22	5026.4	
812.39	3660.4	
812.57	3594.2	
812.74	5111	
812.92	6864.1	
813.09	4010.6	
813.26	4398.4	
813.44	6626.5	
813.61	5076.2	
813.78	3327.9	
813.96	4508.9	
814.13	5119.9	
814.3	4786.1	
814.48	4816.1	
814.65	4033.1	
814.82	6451.1	
815	4885.1	
815.17	4190.1	
815.34	5069.4	
815.52	5053	
815.69	5078.3	
815.87	4135.5	
816.04	3573.7	
816.21	5125.4	
816.38	4524	
816.56	3997	
816.73	3691.1	
816.9	6513.2	
817.08	5933.6	
817.25	3713.6	
817.42	4781.3	
817.6	4641.4	
817.77	5139	
817.94	4270.7	
818.12	3719.1	
818.29	4895.3	
818.46	7734.5	
818.64	3829.7	
818.81	3606.5	
818.98	4758.1	
819.16	6973.3	
819.33	4455.7	
819.5	4158.7	
819.67	5543.9	
819.85	6143.9	
820.02	4001.7	
820.19	4330.8	
820.37	5365.7	
820.54	4925.4	
820.71	4240.7	
820.88	5233.9	
821.06	5358.2	
821.23	4900.1	
821.4	4214.7	
821.58	4137.6	
821.75	5855.8	
821.92	5291.3	
822.09	3381.9	
822.27	3487.7	
822.44	5161.6	
822.61	5026.4	
822.79	3396.2	
822.96	6557.6	
823.13	5657.9	
823.3	4796.3	
823.48	4027.7	
823.65	3522.5	
823.82	5889.3	
823.99	4663.9	
824.17	5039.4	
824.34	3601	
824.51	6776	
824.68	5141.1	
824.86	3739.6	
825.03	4283	
825.2	5121.3	
825.37	6261.3	
825.55	3655.6	
825.72	4130.8	
825.89	6871.6	
826.06	6337.8	
826.24	4055	
826.41	4113.7	
826.58	6271.6	
826.75	5463.3	
826.92	3172.3	
827.1	3538.9	
827.27	8666.3	
827.44	6855.2	
827.61	3847.5	
827.79	4697.4	
827.96	4850.3	
828.13	5201.8	
828.3	4006.5	
828.47	3343.7	
828.65	5367.7	
828.82	5356.1	
828.99	5216.2	
829.16	4563.6	
829.34	5794.4	
829.51	5570.5	
829.68	4196.3	
829.85	4347.8	
830.02	6016.2	
830.2	5776	
830.37	3184.6	
830.54	5028.4	
830.71	6536.4	
830.88	5123.3	
831.05	3265.1	
831.23	3763.5	
831.4	6296.8	
831.57	7049.8	
831.74	3840.6	
831.91	3413.3	
832.09	5337	
832.26	5741.1	
832.43	3999	
832.6	4491.9	
832.77	5417.6	
832.94	6146	
833.12	3181.2	
833.29	3920.5	
833.46	5546.6	
833.63	7358.4	
833.8	4341	
833.97	3956.7	
834.15	5784.1	
834.32	5512.4	
834.49	4151.9	
834.66	4322.6	
834.83	6013.5	
835	4817.5	
835.17	3823.6	
835.35	3905.5	
835.52	5649	
835.69	5612.8	
835.86	4148.5	
836.03	3368.2	
836.2	5712.5	
836.37	5323.4	
836.55	4001.7	
836.72	3758	
836.89	5288.5	
837.06	5767.1	
837.23	4084.3	
837.4	4421.6	
837.57	6614.9	
837.75	7296.9	
837.92	3646.7	
838.09	3878.2	
838.26	5324	
838.43	6034.7	
838.6	4196.3	
838.77	3741	
838.94	6910.5	
839.11	6677.1	
839.29	3945.1	
839.46	3104.7	
839.63	5664.7	
839.8	5504.9	
839.97	3888.4	
840.14	3917.8	
840.31	5476.3	
840.48	5714.5	
840.65	3181.2	
840.82	3810.6	
841	5739.8	
841.17	5698.8	
841.34	3550.5	
841.51	3647.4	
841.68	5642.2	
841.85	5446.9	
842.02	3736.9	
842.19	3061.7	
842.36	5412.8	
842.53	5496.7	
842.7	3564.1	
842.87	4364.9	
843.05	7213.6	
843.22	5452.4	
843.39	3401.7	
843.56	3597.6	
843.73	5104.9	
843.9	5779.4	
844.07	5751.4	
844.24	4858.5	
844.41	8528.4	
844.58	4980.7	
844.75	3428.3	
844.92	3770.3	
845.09	5782.8	
845.26	5762.3	
845.43	3549.8	
845.6	3769.6	
845.77	5750	
845.94	5472.2	
846.12	3904.1	
846.29	4179.9	
846.46	5937.7	
846.63	5750.7	
846.8	3563.5	
846.97	4212.7	
847.14	6281.1	
847.31	5651.7	
847.48	3979.2	
847.65	4417.5	
847.82	5976	
847.99	5930.9	
848.16	4764.9	
848.33	4426.3	
848.5	5309	
848.67	6331	
848.84	3518.4	
849.01	3685.7	
849.18	5140.4	
849.35	4843.4	
849.52	4478.9	
849.69	3449.5	
849.86	5973.2	
850.03	6201.2	
850.2	3584.6	
850.37	4326	
850.54	6105.7	
850.71	5399.1	
850.88	4235.2	
851.05	3482.9	
851.22	5603.9	
851.39	6283.2	
851.56	3363.4	
851.73	4051.6	
851.9	5014.1	
852.07	5997.1	
852.24	3990.8	
852.41	3514.3	
852.58	5532.2	
852.75	5143.8	
852.92	4011.3	
853.09	3465.8	
853.26	5297.4	
853.43	6138.4	
853.6	3549.1	
853.77	3013.9	
853.94	6292.7	
854.11	5692.7	
854.28	5300.1	
854.44	3849.5	
854.61	6770.6	
854.78	5847	
854.95	3486.3	
855.12	4470.7	
855.29	4601.8	
855.46	6344.6	
855.63	3525.2	
855.8	4939	
855.97	5309	
856.14	6079.1	
856.31	5093.3	
856.48	3822.2	
856.65	5268.7	
856.82	5038	
856.99	3391.4	
857.16	3790.8	
857.33	6999.3	
857.49	5409.4	
857.66	3739.6	
857.83	4171	
858	5327.4	
858.17	5528.2	
858.34	3377.8	
858.51	3512.3	
858.68	6453.8	
858.85	6493.4	
859.02	4175.8	
859.19	4385.4	
859.36	4971.1	
859.52	5107.6	
859.69	3562.8	
859.86	4145.1	
860.03	5084.4	
860.2	6322.8	
860.37	3198.9	
860.54	3577.1	
860.71	6010.1	
860.88	6417.7	
861.05	3960.8	
861.21	4395.6	
861.38	6402	
861.55	4862.6	
861.72	3237.2	
861.89	4005.8	
862.06	6084.5	
862.23	6524.8	
862.4	3424.2	
862.56	3684.3	
862.73	5872.2	
862.9	5511.8	
863.07	4148.5	
863.24	3157.3	
863.41	4891.9	
863.58	5020.3	
863.75	3613.3	
863.91	4137.6	
864.08	6342.6	
864.25	5906.3	
864.42	4562.2	
864.59	4985.4	
864.76	6761.7	
864.93	5049.6	
865.09	3474.7	
865.26	3765.5	
865.43	6236.7	
865.6	6653.2	
865.77	3097.2	
865.94	3507.5	
866.1	6282.5	
866.27	6068.1	
866.44	5357.5	
866.61	3373	
866.78	5436	
866.95	5899.5	
867.11	3409.9	
867.28	3188	
867.45	6070.2	
867.62	5122	
867.79	4095.9	
867.96	3515.7	
868.12	5059.2	
868.29	5991	
868.46	3566.9	
868.63	4722.6	
868.8	6211.5	
868.97	5963	
869.13	3696.6	
869.3	3704.1	
869.47	5805.3	
869.64	6072.9	
869.81	3596.2	
869.97	3540.9	
870.14	5724.1	
870.31	6429.9	
870.48	3450.8	
870.65	4435.9	
870.81	5360.2	
870.98	5256.5	
871.15	4033.1	
871.32	3627	
871.48	5828.5	
871.65	6408.1	
871.82	3497.9	
871.99	3862.5	
872.16	6931	
872.32	6269.5	
872.49	3557.3	
872.66	3548.4	
872.83	5930.2	
872.99	5221.6	
873.16	4046.8	
873.33	3514.3	
873.5	5562.3	
873.67	5664	
873.83	3748.5	
874	4704.9	
874.17	5701.5	
874.34	6847.7	
874.5	4538.3	
874.67	4437.3	
874.84	6380.1	
875.01	5016.8	
875.17	4987.5	
875.34	3526.6	
875.51	5705	
875.68	6862.1	
875.84	4311	
876.01	5207.3	
876.18	5892	
876.34	5771.9	
876.51	3530.7	
876.68	3445.4	
876.85	5410.7	
877.01	6278.4	
877.18	5116.5	
877.35	3512.9	
877.52	5474.2	
877.68	4938.3	
877.85	3409.9	
878.02	3465.8	
878.18	5541.8	
878.35	5217.5	
878.52	2861.7	
878.69	4005.1	
878.85	5960.3	
879.02	5887.2	
879.19	5035.3	
879.35	3796.9	
879.52	5885.2	
879.69	6193.1	
879.86	3080.1	
880.02	3979.9	
880.19	5438	
880.36	6634.7	
880.52	4006.5	
880.69	4220.2	
880.86	6046.3	
881.02	6127.5	
881.19	3901.4	
881.36	3823.6	
881.52	5900.2	
881.69	5221.6	
881.86	3831.1	
882.02	3736.2	
882.19	6138.4	
882.36	7289.4	
882.52	3648.1	
882.69	4959.5	
882.86	5666.7	
883.02	5544.5	
883.19	4283	
883.36	4044.7	
883.52	6028.5	
883.69	6966.5	
883.86	3572.3	
884.02	3174.4	
884.19	5995.1	
884.36	5522.7	
884.52	4016.7	
884.69	3713.6	
884.86	5216.2	
885.02	6570.6	
885.19	3973.7	
885.36	4066.6	
885.52	5529.5	
885.69	5690.6	
885.86	5128.8	
886.02	4536.9	
886.19	5969.8	
886.35	5355.4	
886.52	3905.5	
886.69	4954.7	
886.85	5024.3	
887.02	6352.8	
887.19	6352.8	
887.35	6352.8	
887.52	6352.8	
887.68	6352.8	
887.85	6352.8	
888.02	6352.8	
888.18	6352.8	
888.35	6352.8	
888.51	6352.8	
888.68	6352.8	
888.85	6352.8	
889.01	6352.8	
889.18	6352.8	
889.35	6352.8	
889.51	6352.8	
889.68	6352.8	
889.84	6352.8	
890.01	6352.8	
890.17	6352.8	
890.34	6352.8	
890.51	6352.8	
890.67	6352.8	
890.84	6352.8	
891	6352.8	
891.17	6352.8	
891.34	6352.8	
891.5	6352.8	
891.67	6352.8	
891.83	6352.8	
892	6352.8	
892.16	6352.8	
892.33	6352.8	
892.5	6352.8	
892.66	6352.8	
892.83	6352.8	
892.99	6352.8	
893.16	6352.8	
893.32	6352.8	
893.49	6352.8	
893.65	6352.8	
893.82	6352.8	
893.99	6352.8	
894.15	6352.8	
894.32	6352.8	
894.48	6352.8	
894.65	6352.8	
894.81	6352.8	
894.98	6352.8	
895.14	6352.8	
895.31	6352.8	
895.47	6352.8	
895.64	6352.8	
895.81	6352.8	
895.97	6352.8	
896.14	6352.8	
896.3	6352.8	
896.47	6352.8	
896.63	6352.8	
896.8	6352.8	
896.96	6352.8	
897.13	6352.8	
897.29	6352.8	
897.46	6352.8	
897.62	6352.8	
897.79	6352.8	
897.95	6352.8	
898.12	6352.8	
898.28	6352.8	
898.45	6352.8	
898.61	6352.8	
898.78	6352.8	
898.94	6352.8	
899.11	6352.8	
899.27	6352.8	
899.44	6352.8	
899.6	6352.8	
899.77	6352.8	
899.93	6352.8	
900.1	6352.8	
900.26	6352.8	
900.43	6352.8	
900.59	6352.8	
900.76	6352.8	
900.92	6352.8	
901.09	6352.8	
901.25	6352.8	
901.42	6352.8	
901.58	6352.8	
901.75	6352.8	
901.91	6352.8	
902.07	6352.8	
902.24	6352.8	
902.4	6352.8	
902.57	6352.8	
902.73	6352.8	
902.9	6352.8	
903.06	6352.8	
903.23	6352.8	
903.39	6352.8	
903.56	6352.8	
903.72	6352.8	
903.88	6352.8	
904.05	6352.8	
904.21	6352.8	
904.38	6352.8	
904.54	6352.8	
904.71	6352.8	
904.87	6352.8	
905.03	6352.8	
905.2	6352.8	
905.36	6352.8	
905.53	6352.8	
905.69	6352.8	
905.86	6352.8	
906.02	6352.8	
906.18	6352.8	
906.35	6352.8	
906.51	6352.8	
906.68	6352.8	
906.84	6352.8	
907.01	6352.8	
907.17	6352.8	
907.33	6352.8	
907.5	6352.8	
907.66	6352.8	
907.83	6352.8	
907.99	6352.8	
908.15	6352.8	
908.32	6352.8	
908.48	6352.8	
908.65	6352.8	
908.81	6352.8	
908.97	6352.8	
909.14	6352.8	
909.3	6352.8	
909.47	6352.8	
909.63	6352.8	
909.79	6352.8	
909.96	6352.8	
910.12	6352.8	
910.28	6352.8	
910.45	6352.8	
910.61	6352.8	
910.78	6352.8	
910.94	6352.8	
911.1	6352.8	
911.27	6352.8	
911.43	6352.8	
911.59	6352.8	
911.76	6352.8	
911.92	6352.8	
912.08	6352.8	
912.25	6352.8	
912.41	6352.8	
912.57	6352.8	
912.74	6352.8	
912.9	6352.8	
913.07	6352.8	
913.23	6352.8	
913.39	6352.8	
913.56	6352.8	
913.72	6352.8	
913.88	6352.8	
914.05	6352.8	
914.21	6352.8	
914.37	6352.8	
914.54	6352.8	
914.7	6352.8	
914.86	6352.8	
915.03	6352.8	
915.19	6352.8	
