Wavelength	Intensities	
nm	a.u.	
179.22	1669.3	
179.44	1664	
179.65	1674.6	
179.86	1653.4	
180.08	1669.1	
180.29	3791.5	
180.51	2941.6	
180.72	4891.9	
180.94	5419.6	
181.15	2627.5	
181.37	2637.8	
181.58	4687.1	
181.79	4928.1	
182.01	2725.8	
182.22	2866.5	
182.44	4977.2	
182.65	4296	
182.87	3568.9	
183.08	3148.4	
183.29	5132.2	
183.51	4328	
183.72	2883.5	
183.94	3961.5	
184.15	4679.6	
184.37	4555.4	
184.58	2637.8	
184.79	3377.8	
185.01	4359.4	
185.22	4969.7	
185.44	3562.1	
185.65	3015.3	
185.86	4627	
186.08	4278.9	
186.29	2570.9	
186.51	2680.8	
186.72	4392.9	
186.94	5032.5	
187.15	3121.1	
187.36	3134.8	
187.58	6174.6	
187.79	4710.3	
188.01	3231.7	
188.22	4829.8	
188.43	5490.6	
188.65	4868.7	
188.86	2738.8	
189.08	3166.8	
189.29	4472.1	
189.5	4476.9	
189.72	2981.2	
189.93	2992.8	
190.15	5047.6	
190.36	5782.1	
190.57	3204.4	
190.79	3074	
191	5058.5	
191.22	5038	
191.43	3227.6	
191.64	2745	
191.86	5199.1	
192.07	5017.5	
192.29	2816	
192.5	2915.6	
192.71	5014.8	
192.93	4496.7	
193.14	2914.9	
193.35	3005.7	
193.57	4439.3	
193.78	5004.6	
194	2403	
194.21	2856.9	
194.42	4328	
194.64	4615.4	
194.85	3149.1	
195.07	3571	
195.28	4604.5	
195.49	4132.1	
195.71	3734.1	
195.92	2816.6	
196.13	4796.3	
196.35	4837.3	
196.56	3977.2	
196.78	3186.6	
196.99	5729.5	
197.2	5363.6	
197.42	3497.9	
197.63	3185.3	
197.84	4243.4	
198.06	4766.3	
198.27	2962.7	
198.48	3787.4	
198.7	4457.1	
198.91	4715.8	
199.13	3171.6	
199.34	3134.8	
199.55	5030.5	
199.77	4028.4	
199.98	2857.6	
200.19	3209.8	
200.41	4591.5	
200.62	4315.1	
200.83	3256.3	
201.05	3498.6	
201.26	4607.9	
201.47	4385.4	
201.69	2873.3	
201.9	2762.7	
202.11	4639.3	
202.33	5329.5	
202.54	3050.1	
202.76	3306.8	
202.97	4718.5	
203.18	4768.4	
203.4	3265.1	
203.61	3269.9	
203.82	4716.5	
204.04	4429.8	
204.25	3162.7	
204.46	3048.1	
204.68	4667.3	
204.89	4795.7	
205.1	3045.3	
205.32	2765.4	
205.53	4862.6	
205.74	5022.3	
205.96	2436.4	
206.17	3265.8	
206.38	4870.8	
206.6	5016.8	
206.81	3537.5	
207.02	2964.1	
207.24	4791.6	
207.45	5074.9	
207.66	3072.6	
207.88	2675.3	
208.09	4754.7	
208.3	4620.2	
208.52	2797.5	
208.73	3097.2	
208.94	4586.8	
209.15	5094	
209.37	3034.4	
209.58	3121.8	
209.79	5016.8	
210.01	4494.6	
210.22	2557.9	
210.43	2649.4	
210.65	4584	
210.86	4856.4	
211.07	3029.6	
211.29	2795.5	
211.5	4808.6	
211.71	4548.5	
211.93	2790	
212.14	2854.2	
212.35	4673.5	
212.56	4672.8	
212.78	3162.1	
212.99	2643.9	
213.2	5276.9	
213.42	4512.4	
213.63	2899.2	
213.84	3096.5	
214.06	4215.4	
214.27	4276.2	
214.48	3007.8	
214.69	3199.6	
214.91	5154.1	
215.12	5126.7	
215.33	3190.7	
215.55	3493.2	
215.76	5483.8	
215.97	4837.3	
216.18	3106.8	
216.4	3118.4	
216.61	4320.5	
216.82	4994.3	
217.04	2861	
217.25	2925.9	
217.46	5003.9	
217.67	4978.6	
217.89	2593.4	
218.1	2703.3	
218.31	4658.4	
218.53	4790.9	
218.74	2960.7	
218.95	2865.8	
219.16	4589.5	
219.38	5219.6	
219.59	2878.8	
219.8	3316.3	
220.01	5627.1	
220.23	4575.8	
220.44	3624.2	
220.65	2777	
220.87	4713.7	
221.08	5125.4	
221.29	2710.1	
221.5	3359.4	
221.72	5948.7	
221.93	4420.9	
222.14	3211.9	
222.35	3632.4	
222.57	4610.7	
222.78	4928.8	
222.99	3054.2	
223.2	3153.9	
223.42	4847.5	
223.63	4889.2	
223.84	2411.8	
224.05	2448	
224.27	5642.8	
224.48	5229.8	
224.69	3665.9	
224.9	3179.1	
225.12	4750.6	
225.33	4603.8	
225.54	2603.7	
225.75	2850.1	
225.97	4323.9	
226.18	4574.5	
226.39	3028.3	
226.6	2867.8	
226.82	4440.7	
227.03	4315.8	
227.24	3106.1	
227.45	2745	
227.67	5017.5	
227.88	5163.6	
228.09	3517.7	
228.3	3457.7	
228.52	4902.8	
228.73	4607.2	
228.94	2960.7	
229.15	2680.1	
229.36	4656.4	
229.58	4552	
229.79	3095.2	
230	3438.5	
230.21	5444.9	
230.43	4665.3	
230.64	3153.2	
230.85	3231.7	
231.06	4984.1	
231.28	4902.8	
231.49	2700.6	
231.7	3123.8	
231.91	4930.1	
232.12	4671.4	
232.34	2798.9	
232.55	3098.6	
232.76	5094	
232.97	4758.8	
233.18	2821.4	
233.4	3173.7	
233.61	4728.1	
233.82	4470	
234.03	2957.3	
234.25	2945	
234.46	6050.4	
234.67	4595.6	
234.88	3211.9	
235.09	2887	
235.31	4812	
235.52	4556.7	
235.73	3102.7	
235.94	2760.7	
236.15	4423.6	
236.37	5415.5	
236.58	2842.6	
236.79	2998.2	
237	4844.1	
237.21	4293.2	
237.43	3266.5	
237.64	2630.3	
237.85	7468.3	
238.06	4283.7	
238.27	3231.7	
238.48	2726.5	
238.7	4846.2	
238.91	4528.7	
239.12	2990	
239.33	3117	
239.54	4385.4	
239.76	4563.6	
239.97	2998.2	
240.18	3010.5	
240.39	5488.6	
240.6	4796.3	
240.82	3183.2	
241.03	2704	
241.24	4622.9	
241.45	5208	
241.66	2802.3	
241.87	3280.2	
242.09	5154.1	
242.3	5351.3	
242.51	3283.6	
242.72	3004.4	
242.93	4906.9	
243.14	4602.5	
243.36	3465.8	
243.57	3708.2	
243.78	5175.2	
243.99	4875.5	
244.2	3069.9	
244.41	2745.6	
244.63	4304.1	
244.84	4773.1	
245.05	3212.6	
245.26	3054.2	
245.47	4856.4	
245.68	4962.2	
245.9	3842.7	
246.11	3203.7	
246.32	4447.5	
246.53	4866	
246.74	4747.9	
246.95	2688.3	
247.16	4370.4	
247.38	4634.6	
247.59	2649.4	
247.8	3082.9	
248.01	4315.1	
248.22	4629.8	
248.43	2781.1	
248.64	2983.2	
248.86	4222.2	
249.07	4447.5	
249.28	2788.7	
249.49	3069.2	
249.7	4964.3	
249.91	5002.5	
250.12	2623.4	
250.34	2712.2	
250.55	4744.5	
250.76	4689.8	
250.97	3173.7	
251.18	3137.5	
251.39	4972.5	
251.6	4779.3	
251.81	3226.9	
252.03	3194.1	
252.24	4451.6	
252.45	4915.8	
252.66	2696.5	
252.87	3330	
253.08	4653.7	
253.29	5748	
253.5	2741.5	
253.72	3644	
253.93	4569.7	
254.14	5314.5	
254.35	2927.2	
254.56	2998.2	
254.77	4740.4	
254.98	4355.3	
255.19	2941.6	
255.41	3569.6	
255.62	4746.5	
255.83	5051.7	
256.04	3188.7	
256.25	3131.3	
256.46	5463.3	
256.67	4494.6	
256.88	3136.1	
257.09	3456.3	
257.31	4330.8	
257.52	4348.5	
257.73	3855	
257.94	2907.4	
258.15	4593.6	
258.36	4605.9	
258.57	3620.1	
258.78	2377	
258.99	4985.4	
259.2	4508.3	
259.41	2932.7	
259.63	3008.5	
259.84	5141.1	
260.05	5449	
260.26	3708.9	
260.47	2874.7	
260.68	5067.4	
260.89	4554.7	
261.1	3476.1	
261.31	2843.9	
261.52	5122.7	
261.73	5253	
261.95	3678.2	
262.16	3237.2	
262.37	5102.2	
262.58	5181.4	
262.79	3653.6	
263	2924.5	
263.21	4691.2	
263.42	4193.6	
263.63	3200.3	
263.84	2941.6	
264.05	5002.5	
264.26	5185.5	
264.47	3533.4	
264.69	3148.4	
264.9	5207.3	
265.11	4747.9	
265.32	2795.5	
265.53	2924.5	
265.74	4656.4	
265.95	4176.5	
266.16	3110.9	
266.37	3357.3	
266.58	4772.4	
266.79	4507.6	
267	2908.8	
267.21	2736.1	
267.42	4259.8	
267.63	4639.3	
267.84	3076.7	
268.06	2695.8	
268.27	4986.1	
268.48	5086.5	
268.69	3029.6	
268.9	3505.4	
269.11	5162.2	
269.32	4209.3	
269.53	3047.4	
269.74	2844.6	
269.95	4797.7	
270.16	4188.1	
270.37	3086.3	
270.58	3525.2	
270.79	4565.6	
271	5021.6	
271.21	3189.4	
271.42	3069.2	
271.63	4845.5	
271.84	4304.8	
272.05	2544.9	
272.26	2797.5	
272.47	4646.2	
272.68	4771.1	
272.89	2984.6	
273.11	3318.4	
273.32	4435.2	
273.53	5227.8	
273.74	3250.8	
273.95	3196.9	
274.16	4991.6	
274.37	4666	
274.58	3388.7	
274.79	2781.8	
275	4768.4	
275.21	5063.9	
275.42	3893.2	
275.63	3383.9	
275.84	4785.4	
276.05	5746.6	
276.26	3153.9	
276.47	2988	
276.68	4575.2	
276.89	5401.2	
277.1	3448.1	
277.31	2717	
277.52	4785.4	
277.73	5053.7	
277.94	2687.6	
278.15	2952.5	
278.36	4780	
278.57	4412	
278.78	2954.5	
278.99	3247.4	
279.2	4416.1	
279.41	4373.8	
279.62	3803.8	
279.83	2730.6	
280.04	5510.4	
280.25	4276.8	
280.46	3749.1	
280.67	3054.9	
280.88	4409.3	
281.09	5077.6	
281.3	3240.6	
281.51	3887	
281.72	4402.5	
281.93	4884.4	
282.14	2915.6	
282.35	3094.5	
282.56	4999.8	
282.77	4909	
282.98	3009.1	
283.19	3501.3	
283.4	5843.5	
283.61	4595	
283.82	2813.2	
284.03	3730	
284.24	4781.3	
284.45	5048.9	
284.66	3718.4	
284.87	3507.5	
285.08	5027.1	
285.29	5147.2	
285.5	2688.3	
285.71	2988.7	
285.92	5001.1	
286.12	5478.3	
286.33	3691.1	
286.54	2983.2	
286.75	4930.8	
286.96	4496.7	
287.17	2827.6	
287.38	3561.4	
287.59	4456.4	
287.8	4466.6	
288.01	2984.6	
288.22	3362.1	
288.43	4831.8	
288.64	4226.3	
288.85	3510.2	
289.06	3319.8	
289.27	4948.6	
289.48	5213.4	
289.69	3738.9	
289.9	3421.5	
290.11	5115.1	
290.32	4404.5	
290.53	3512.3	
290.74	3219.4	
290.94	4913.8	
291.15	4941.7	
291.36	2920.4	
291.57	3397.6	
291.78	4573.8	
291.99	4222.2	
292.2	2809.8	
292.41	3272	
292.62	5012.7	
292.83	4838.7	
293.04	3958	
293.25	2897.9	
293.46	4530.1	
293.67	5040.1	
293.88	2887.6	
294.09	2814.6	
294.29	4341	
294.5	4732.9	
294.71	3062.4	
294.92	2953.2	
295.13	4511	
295.34	5459.2	
295.55	2678.1	
295.76	2607.7	
295.97	4928.1	
296.18	5384.1	
296.39	2764.8	
296.6	2889	
296.81	4700.1	
297.01	4949.3	
297.22	3006.4	
297.43	2878.8	
297.64	4463.9	
297.85	4316.4	
298.06	2506	
298.27	2663.7	
298.48	4601.1	
298.69	4435.9	
298.9	3115.6	
299.11	2852.8	
299.31	4334.2	
299.52	4343.1	
299.73	3334.1	
299.94	3217.4	
300.15	4712.4	
300.36	4418.8	
300.57	3277.4	
300.78	3196.9	
300.99	4508.9	
301.2	4664.6	
301.4	2937.5	
301.61	3091.8	
301.82	4816.1	
302.03	4941.7	
302.24	3455.6	
302.45	2777.7	
302.66	4808.6	
302.87	5064.6	
303.08	2934.1	
303.29	3756.7	
303.49	4503.5	
303.7	4621.6	
303.91	2655.5	
304.12	3646.7	
304.33	4268.6	
304.54	4746.5	
304.75	2939.5	
304.96	2805	
305.16	4857.8	
305.37	5343.8	
305.58	2624.8	
305.79	2622.8	
306	4889.2	
306.21	4212.7	
306.42	2957.9	
306.63	4191.5	
306.83	4483	
307.04	4932.9	
307.25	3167.5	
307.46	3124.5	
307.67	4134.2	
307.88	4877.6	
308.09	2915.6	
308.29	2899.9	
308.5	4702.1	
308.71	5037.3	
308.92	3085.6	
309.13	2794.1	
309.34	4607.2	
309.55	4595	
309.75	3572.3	
309.96	3229	
310.17	4914.4	
310.38	4400.4	
310.59	3310.2	
310.8	2728.6	
311.01	5294	
311.21	4577.2	
311.42	2796.2	
311.63	2853.5	
311.84	4468	
312.05	4674.8	
312.26	3195.5	
312.46	3442	
312.67	4504.2	
312.88	4274.8	
313.09	2811.2	
313.3	2770.2	
313.51	5186.8	
313.71	5457.2	
313.92	2797.5	
314.13	2938.2	
314.34	4778.6	
314.55	4588.1	
314.76	3459	
314.96	3097.2	
315.17	4752.7	
315.38	4793.6	
315.59	2848	
315.8	2704	
316.01	5142.4	
316.21	5225.1	
316.42	2777	
316.63	3066.5	
316.84	4528.7	
317.05	5121.3	
317.26	3220.1	
317.46	2981.8	
317.67	4604.5	
317.88	4894	
318.09	3489.7	
318.3	2691	
318.5	4495.3	
318.71	4860.5	
318.92	4282.3	
319.13	3261	
319.34	4946.5	
319.54	5031.2	
319.75	2606.4	
319.96	2538.1	
320.17	4834.6	
320.38	5008	
320.58	2635.1	
320.79	3030.3	
321	5042.8	
321.21	5111.7	
321.42	3039.9	
321.62	2601.6	
321.83	4397	
322.04	4674.1	
322.25	2945	
322.46	2858.3	
322.66	4667.3	
322.87	4882.4	
323.08	3431.7	
323.29	2767.5	
323.5	5388.9	
323.7	4313.7	
323.91	3725.9	
324.12	3330	
324.33	4744.5	
324.53	4866	
324.74	3255.6	
324.95	3371	
325.16	4282.3	
325.37	4520.5	
325.57	2766.8	
325.78	2867.8	
325.99	4742.4	
326.2	4271.4	
326.4	3840.6	
326.61	2622.1	
326.82	4599.7	
327.03	4685.1	
327.24	3803.1	
327.44	3557.3	
327.65	4804.5	
327.86	4033.1	
328.07	3248.1	
328.27	2727.2	
328.48	5105.6	
328.69	4328	
328.9	3881.6	
329.1	2967.5	
329.31	4570.4	
329.52	5127.4	
329.73	2887	
329.93	3076	
330.14	4654.4	
330.35	4798.4	
330.56	4335.5	
330.76	3385.3	
330.97	4544.4	
331.18	4685.8	
331.39	3082.2	
331.59	2627.5	
331.8	5001.1	
332.01	5159.5	
332.22	2897.2	
332.42	3216	
332.63	4737.6	
332.84	4332.8	
333.05	3134.8	
333.25	2863.7	
333.46	4419.5	
333.67	4650.3	
333.88	2998.9	
334.08	3176.4	
334.29	5796.4	
334.5	5024.3	
334.7	2771.6	
334.91	3790.1	
335.12	4313	
335.33	4884.4	
335.53	3106.1	
335.74	4315.1	
335.95	4528.7	
336.16	4311.7	
336.36	3072	
336.57	3447.4	
336.78	4283.7	
336.98	4975.2	
337.19	3758	
337.4	3026.2	
337.61	5418.2	
337.81	4315.1	
338.02	2908.8	
338.23	3559.4	
338.43	5187.5	
338.64	4415.4	
338.85	2896.5	
339.05	3678.8	
339.26	5250.3	
339.47	4196.3	
339.68	2867.8	
339.88	3923.2	
340.09	4855.1	
340.3	5008.6	
340.5	3241.9	
340.71	2559.3	
340.92	4291.2	
341.13	5089.9	
341.33	2747.7	
341.54	3255.6	
341.75	4822.3	
341.95	4460.5	
342.16	3156.6	
342.37	3372.3	
342.57	4285.7	
342.78	4578.6	
342.99	3435.1	
343.19	2622.1	
343.4	4960.2	
343.61	4830.5	
343.81	3007.1	
344.02	2729.9	
344.23	4941.7	
344.43	5118.6	
344.64	3433.8	
344.85	3358.7	
345.06	4790.9	
345.26	5026.4	
345.47	3269.9	
345.68	3707.5	
345.88	4209.9	
346.09	4947.2	
346.3	3306.1	
346.5	2567.5	
346.71	4597.7	
346.92	4447.5	
347.12	2690.3	
347.33	3196.2	
347.54	4949.3	
347.74	5238.7	
347.95	3252.2	
348.16	2487.6	
348.36	4501.4	
348.57	4308.9	
348.78	3219.4	
348.98	3388	
349.19	4573.8	
349.39	4183.3	
349.6	2671.2	
349.81	2874.7	
350.01	4844.1	
350.22	4406.5	
350.43	3124.5	
350.63	3560.7	
350.84	4641.4	
351.05	4437.3	
351.25	2889	
351.46	2658.3	
351.67	4926.7	
351.87	4334.2	
352.08	2990.7	
352.29	3380.5	
352.49	4918.5	
352.7	4705.5	
352.9	2772.9	
353.11	3360	
353.32	5375.9	
353.52	4459.8	
353.73	2826.9	
353.94	3336.8	
354.14	4815.5	
354.35	4610	
354.55	2866.5	
354.76	3046.7	
354.97	4800.4	
355.17	4609.3	
355.38	2689.7	
355.59	3534.1	
355.79	4370.4	
356	4569.7	
356.2	3034.4	
356.41	2736.1	
356.62	4211.3	
356.82	4478.2	
357.03	3324.5	
357.24	2994.8	
357.44	4359.4	
357.65	4445.5	
357.85	3823.6	
358.06	3054.9	
358.27	4079.6	
358.47	4265.2	
358.68	2702	
358.88	3259	
359.09	4722.6	
359.3	4939	
359.5	3675.4	
359.71	3285.6	
359.91	5261.9	
360.12	4762.9	
360.33	3262.4	
360.53	3540.9	
360.74	4414.7	
360.94	4373.1	
361.15	3398.3	
361.36	2828.9	
361.56	4951.3	
361.77	4504.2	
361.97	3697.3	
362.18	3006.4	
362.38	4939.7	
362.59	4257	
362.8	2770.2	
363	2715.6	
363.21	4098	
363.41	4565.6	
363.62	3145	
363.83	3736.2	
364.03	4737	
364.24	5246.9	
364.44	3958	
364.65	3850.2	
364.85	4413.4	
365.06	4252.9	
365.27	2934.1	
365.47	2949.8	
365.68	5153.4	
365.88	4476.2	
366.09	3177.1	
366.29	2942.9	
366.5	4610.7	
366.71	4853.7	
366.91	3833.1	
367.12	3303.4	
367.32	5350.7	
367.53	4782.7	
367.73	3289	
367.94	3923.9	
368.14	4850.3	
368.35	5329.5	
368.56	3246	
368.76	3054.9	
368.97	4921.3	
369.17	6049.7	
369.38	2841.9	
369.58	3079.5	
369.79	4164.9	
369.99	5104.2	
370.2	3838.6	
370.4	3220.1	
370.61	4616.8	
370.82	5514.5	
371.02	3095.8	
371.23	2592.7	
371.43	4190.1	
371.64	5100.8	
371.84	3100.6	
372.05	3871.3	
372.25	5860.6	
372.46	4796.3	
372.66	3031.7	
372.87	3007.1	
373.07	4865.3	
373.28	6023.8	
373.48	3751.9	
373.69	3495.9	
373.9	4522.6	
374.1	4548.5	
374.31	3660.4	
374.51	3416	
374.72	5058.5	
374.92	4268.6	
375.13	3787.4	
375.33	3270.6	
375.54	4726	
375.74	4370.4	
375.95	3334.8	
376.15	4156.7	
376.36	4812	
376.56	4647.5	
376.77	3287	
376.97	3564.8	
377.18	5505.6	
377.38	4818.9	
377.59	3801.7	
377.79	2969.6	
378	4600.4	
378.2	4874.2	
378.41	3001.6	
378.61	2911.5	
378.82	5002.5	
379.02	4399.7	
379.23	3123.8	
379.43	3842	
379.64	5160.9	
379.84	4719.9	
380.05	3043.3	
380.25	2955.9	
380.46	4785.4	
380.66	4528.1	
380.87	3934.1	
381.07	4158.1	
381.28	5279	
381.48	4844.8	
381.69	3001	
381.89	3039.9	
382.1	4164.9	
382.3	4863.9	
382.51	3724.6	
382.71	4338.3	
382.91	4759.5	
383.12	5182.7	
383.32	3330	
383.53	3388.7	
383.73	4780	
383.94	4645.5	
384.14	3414	
384.35	2766.8	
384.55	4493.9	
384.76	4859.1	
384.96	3276.1	
385.17	3476.1	
385.37	4851	
385.58	4313.7	
385.78	3470.6	
385.98	2787.3	
386.19	4480.3	
386.39	4809.3	
386.6	3098.6	
386.8	3244	
387.01	4796.3	
387.21	4846.2	
387.42	3575.8	
387.62	3961.5	
387.83	4392.9	
388.03	4669.4	
388.23	3310.9	
388.44	3791.5	
388.64	4163.5	
388.85	4225.6	
389.05	3543	
389.26	3850.9	
389.46	5629.2	
389.67	5187.5	
389.87	3478.8	
390.07	3538.2	
390.28	4571.7	
390.48	4272.1	
390.69	2992.1	
390.89	3212.6	
391.1	4436.6	
391.3	5064.6	
391.5	4027.7	
391.71	4423.6	
391.91	4904.9	
392.12	5408.7	
392.32	4077.5	
392.53	3454.2	
392.73	4507.6	
392.93	4595.6	
393.14	3348.4	
393.34	3843.4	
393.55	4898.1	
393.75	4539	
393.95	3362.8	
394.16	3261	
394.36	4455	
394.57	4902.2	
394.77	2930	
394.98	3151.1	
395.18	4368.3	
395.38	4396.3	
395.59	3850.2	
395.79	3049.4	
396	4465.9	
396.2	4816.1	
396.4	3654.9	
396.61	3588	
396.81	4874.8	
397.02	4373.8	
397.22	3831.1	
397.42	3818.1	
397.63	4988.2	
397.83	4334.9	
398.04	3020.1	
398.24	3328.6	
398.44	4764.3	
398.65	4017.4	
398.85	2922.5	
399.05	2983.2	
399.26	4401.1	
399.46	5520.6	
399.67	3218	
399.87	3054.2	
400.07	4533.5	
400.28	4786.8	
400.48	3097.9	
400.69	3764.8	
400.89	4909	
401.09	5317.9	
401.3	3041.9	
401.5	3813.3	
401.7	5324.7	
401.91	5578.7	
402.11	3352.5	
402.32	3485.6	
402.52	5057.1	
402.72	4933.6	
402.93	3622.9	
403.13	2845.3	
403.33	5553.4	
403.54	4600.4	
403.74	3447.4	
403.94	4029	
404.15	4685.8	
404.35	5514.5	
404.56	3262.4	
404.76	4435.9	
404.96	4981.3	
405.17	4795.7	
405.37	4012.7	
405.57	3611.9	
405.78	4922.6	
405.98	4634.6	
406.18	3230.3	
406.39	3820.8	
406.59	4977.2	
406.79	4655	
407	3067.9	
407.2	3190.1	
407.4	5240.8	
407.61	5109	
407.81	3147	
408.01	4638.6	
408.22	4098.7	
408.42	5494.7	
408.62	3851.5	
408.83	3485	
409.03	4599.7	
409.23	4499.4	
409.44	3494.5	
409.64	3639.9	
409.84	5193.6	
410.05	5101.5	
410.25	3526.6	
410.45	3378.5	
410.66	4788.8	
410.86	6471.6	
411.06	3685	
411.27	3577.8	
411.47	6265.4	
411.67	4823	
411.88	3770.3	
412.08	3852.2	
412.28	5254.4	
412.49	5618.3	
412.69	3504.1	
412.89	3579.8	
413.09	5446.2	
413.3	5381.4	
413.5	3646.1	
413.7	3361.4	
413.91	4912.4	
414.11	5494.7	
414.31	3454.9	
414.52	3685.7	
414.72	5278.3	
414.92	5153.4	
415.12	3446.7	
415.33	3859.7	
415.53	5378	
415.73	5574.6	
415.94	4091.8	
416.14	3695.9	
416.34	4773.8	
416.55	4557.4	
416.75	4481.6	
416.95	4088.4	
417.15	5529.5	
417.36	5895.4	
417.56	4633.2	
417.76	3922.5	
417.97	5666	
418.17	5439.4	
418.37	3744.4	
418.57	3716.4	
418.78	5363.6	
418.98	5089.2	
419.18	4380.6	
419.38	4291.2	
419.59	5098.1	
419.79	4846.2	
419.99	3633.1	
420.2	3921.2	
420.4	5472.9	
420.6	5489.2	
420.8	3529.3	
421.01	3487.7	
421.21	5376.6	
421.41	5389.6	
421.61	3857.7	
421.82	3615.3	
422.02	5062.6	
422.22	5667.4	
422.42	4091.8	
422.63	4035.9	
422.83	5065.3	
423.03	5925.5	
423.23	3994.9	
423.44	3267.2	
423.64	5095.3	
423.84	4898.7	
424.04	3560.1	
424.25	3394.8	
424.45	5729.5	
424.65	5701.5	
424.85	3223.5	
425.06	3618.1	
425.26	5850.4	
425.46	5005.9	
425.66	3949.8	
425.87	3693.9	
426.07	5535	
426.27	5474.9	
426.47	3835.8	
426.67	3390.8	
426.88	5844.2	
427.08	5462.6	
427.28	4063.9	
427.48	3323.2	
427.69	4656.4	
427.89	5137.7	
428.09	3975.8	
428.29	3366.2	
428.5	5514.5	
428.7	5268.7	
428.9	3287	
429.1	3645.4	
429.3	5216.2	
429.51	5426.4	
429.71	3559.4	
429.91	4103.4	
430.11	5394.3	
430.31	5591	
430.52	3737.5	
430.72	3885	
430.92	5757.5	
431.12	5478.3	
431.32	3424.9	
431.53	3862.5	
431.73	4704.9	
431.93	5829.9	
432.13	3436.5	
432.33	3340.2	
432.54	5047.6	
432.74	5200.5	
432.94	3204.4	
433.14	4042	
433.34	5539.1	
433.55	5102.9	
433.75	3971	
433.95	5118.6	
434.15	5298.8	
434.35	4934.9	
434.56	3478.8	
434.76	3050.1	
434.96	5171.8	
435.16	5349.3	
435.36	3364.8	
435.56	4146.5	
435.77	4928.8	
435.97	5042.1	
436.17	4536.9	
436.37	4022.9	
436.57	4894	
436.78	4849.6	
436.98	3960.1	
437.18	4513	
437.38	5268.1	
437.58	4984.8	
437.78	4575.2	
437.99	3577.8	
438.19	5444.9	
438.39	6002.6	
438.59	3668.6	
438.79	3283.6	
438.99	5862	
439.2	4997.7	
439.4	3245.3	
439.6	3254.9	
439.8	5154.1	
440	5881.1	
440.2	3980.6	
440.4	4047.5	
440.61	5528.8	
440.81	5787.6	
441.01	3436.5	
441.21	3988.1	
441.41	5791	
441.61	5451	
441.81	4180.6	
442.02	4807.9	
442.22	6135.7	
442.42	5527.5	
442.62	3426.3	
442.82	3480.9	
443.02	5784.1	
443.22	5132.2	
443.43	3814	
443.63	3390.1	
443.83	5028.4	
444.03	5003.2	
444.23	4177.2	
444.43	3988.8	
444.63	5261.9	
444.83	6045.6	
445.04	3547.1	
445.24	4368.3	
445.44	5614.2	
445.64	5491.3	
445.84	4078.9	
446.04	4004.5	
446.24	5023	
446.44	5786.2	
446.65	3555.3	
446.85	3749.8	
447.05	5184.1	
447.25	5779.4	
447.45	3844	
447.65	3376.4	
447.85	5345.2	
448.05	5042.8	
448.25	4094.6	
448.46	3880.9	
448.66	5367.7	
448.86	5150.6	
449.06	3355.9	
449.26	4128.7	
449.46	5508.4	
449.66	4902.2	
449.86	3735.5	
450.06	3747.1	
450.26	5040.1	
450.47	5390.9	
450.67	3973.7	
450.87	4114.4	
451.07	5653.1	
451.27	5311.7	
451.47	3447.4	
451.67	4018.1	
451.87	5048.9	
452.07	5874.3	
452.27	3631.7	
452.47	3644.7	
452.67	5324.7	
452.88	5615.5	
453.08	3252.9	
453.28	4479.6	
453.48	6130.3	
453.68	5246.2	
453.88	3543.7	
454.08	3727.3	
454.28	5500.2	
454.48	5275.6	
454.68	4033.1	
454.88	4424.3	
455.08	5629.9	
455.28	5300.8	
455.48	3506.1	
455.68	3822.2	
455.89	5859.2	
456.09	5653.1	
456.29	3669.3	
456.49	3717.1	
456.69	5723.4	
456.89	5442.8	
457.09	3977.8	
457.29	4259.8	
457.49	5417.6	
457.69	5563.6	
457.89	3879.5	
458.09	3431.7	
458.29	5324	
458.49	5885.9	
458.69	4115.1	
458.89	3704.8	
459.09	5978.7	
459.29	5955.5	
459.49	3781.9	
459.69	4295.3	
459.9	5659.2	
460.1	5225.7	
460.3	3760.8	
460.5	3548.4	
460.7	5593.7	
460.9	5273.5	
461.1	3298.6	
461.3	4123.9	
461.5	6008.1	
461.7	5738.4	
461.9	3583.3	
462.1	3952.6	
462.3	5367.7	
462.5	5687.9	
462.7	3625.6	
462.9	3622.9	
463.1	6469.5	
463.3	6166.4	
463.5	3817.4	
463.7	4377.2	
463.9	5517.2	
464.1	5661.3	
464.3	3834.5	
464.5	4012	
464.7	5872.9	
464.9	5641.5	
465.1	4968.4	
465.3	4225	
465.5	6105	
465.7	6062	
465.9	4380.6	
466.1	4293.9	
466.3	5874.3	
466.5	5826.5	
466.7	4793.6	
466.9	4120.5	
467.1	5823.1	
467.3	6457.9	
467.5	4786.8	
467.7	4020.8	
467.9	6612.2	
468.1	7095.5	
468.3	4527.4	
468.5	4795	
468.7	5746.6	
468.9	5668.8	
469.1	4169	
469.3	4676.2	
469.5	7066.9	
469.7	5405.3	
469.9	4687.8	
470.1	3979.2	
470.3	5789.6	
470.5	5758.2	
470.7	4982	
470.9	4156	
471.1	5581.4	
471.3	5995.8	
471.5	3995.6	
471.69	5293.3	
471.89	5657.9	
472.09	5255.1	
472.29	4550.6	
472.49	4806.6	
472.69	5361.6	
472.89	5853.1	
473.09	3916.4	
473.29	4087.1	
473.49	5526.1	
473.69	5565	
473.89	4683	
474.09	4195.6	
474.29	6500.9	
474.49	6186.2	
474.69	4658.4	
474.89	4268	
475.09	5629.9	
475.29	5550.7	
475.49	3947.8	
475.69	4011.3	
475.88	6816.3	
476.08	5940.5	
476.28	3769.6	
476.48	4110.3	
476.68	6282.5	
476.88	5977.3	
477.08	4117.8	
477.28	4287.8	
477.48	5782.8	
477.68	6123.4	
477.88	3926	
478.08	4174.4	
478.28	6367.8	
478.48	5760.3	
478.67	4216.8	
478.87	3844	
479.07	6150.1	
479.27	5867.4	
479.47	4313.7	
479.67	4333.5	
479.87	6001.9	
480.07	6358.3	
480.27	3852.9	
480.47	4900.8	
480.67	5826.5	
480.87	6283.2	
481.06	4033.1	
481.26	4635.9	
481.46	5882.4	
481.66	5767.8	
481.86	4394.9	
482.06	5003.2	
482.26	5675.6	
482.46	6296.1	
482.66	4314.4	
482.86	3989.4	
483.05	5993	
483.25	5408	
483.45	5980.8	
483.65	4259.1	
483.85	5500.8	
484.05	5760.9	
484.25	4603.8	
484.45	4857.1	
484.65	6311.2	
484.84	6317.3	
485.04	4152.6	
485.24	4233.8	
485.44	6584.9	
485.64	5382.7	
485.84	3692.5	
486.04	4633.9	
486.24	5712.5	
486.44	5823.1	
486.63	3630.4	
486.83	4340.3	
487.03	5543.9	
487.23	5689.9	
487.43	3775.1	
487.63	5279	
487.83	5701.5	
488.02	6291.4	
488.22	4358.8	
488.42	4835.3	
488.62	6350.1	
488.82	5507	
489.02	4197.7	
489.22	4136.2	
489.41	6205.3	
489.61	5962.3	
489.81	3937.6	
490.01	3985.3	
490.21	6208.1	
490.41	6680.5	
490.61	3966.9	
490.8	3988.1	
491	5751.4	
491.2	5401.2	
491.4	4429.8	
491.6	3908.2	
491.8	5926.8	
491.99	5886.5	
492.19	3728	
492.39	4026.3	
492.59	6166.4	
492.79	6176.7	
492.99	4518.5	
493.18	3904.1	
493.38	6275	
493.58	6718	
493.78	4401.1	
493.98	4108.2	
494.18	5935.7	
494.37	5528.2	
494.57	4560.1	
494.77	4469.4	
494.97	6140.5	
495.17	6182.1	
495.37	4121.9	
495.56	4363.5	
495.76	6395.8	
495.96	6171.9	
496.16	5014.8	
496.36	4265.2	
496.55	6192.4	
496.75	5847.6	
496.95	4472.8	
497.15	4496	
497.35	6282.5	
497.54	6168.5	
497.74	4257	
497.94	5398.4	
498.14	6739.2	
498.34	6445.6	
498.53	4053.6	
498.73	4603.8	
498.93	5715.2	
499.13	6095.4	
499.33	4416.1	
499.52	4767	
499.72	6178	
499.92	6300.2	
500.12	4241.3	
500.32	4367	
500.51	6318	
500.71	6098.2	
500.91	4916.5	
501.11	4575.2	
501.31	6276.3	
501.5	6554.9	
501.7	5162.2	
501.9	4446.1	
502.1	6173.3	
502.29	6374	
502.49	4728.1	
502.69	5083.1	
502.89	6343.2	
503.09	6317.3	
503.28	4104.1	
503.48	4240	
503.68	5879	
503.88	5798.5	
504.07	4895.3	
504.27	4511.7	
504.47	6090	
504.67	6190.3	
504.86	4833.2	
505.06	4595.6	
505.26	5993.7	
505.46	6947.4	
505.65	4471.4	
505.85	4709	
506.05	5943.2	
506.25	6264.1	
506.44	4085.7	
506.64	4681.7	
506.84	5819.6	
507.04	6347.3	
507.23	4300.1	
507.43	4629.1	
507.63	7113.3	
507.83	5967.1	
508.02	4661.9	
508.22	4399.7	
508.42	7349.5	
508.62	5832.6	
508.81	4572.4	
509.01	4997	
509.21	5799.8	
509.4	5960.3	
509.6	4704.9	
509.8	4237.2	
510	5967.1	
510.19	6821.1	
510.39	4190.1	
510.59	4318.5	
510.79	5845.6	
510.98	6710.5	
511.18	4451.6	
511.38	4397	
511.57	6468.2	
511.77	6148.7	
511.97	4885.1	
512.17	4250.9	
512.36	6343.2	
512.56	6210.1	
512.76	4167.6	
512.95	4093.2	
513.15	6541.2	
513.35	5416.9	
513.55	4840.7	
513.74	4222.2	
513.94	6409.5	
514.14	6014.9	
514.33	4938.3	
514.53	4713.1	
514.73	5950.7	
514.92	6047.7	
515.12	4349.9	
515.32	4177.9	
515.51	6163.7	
515.71	6369.9	
515.91	5485.8	
516.11	4177.9	
516.3	7243.7	
516.5	5811.5	
516.7	4708.3	
516.89	5117.9	
517.09	5978	
517.29	5872.9	
517.48	4926.7	
517.68	4498.7	
517.88	5714.5	
518.07	6218.3	
518.27	4808.6	
518.47	4126.7	
518.66	6478.4	
518.86	5674.9	
519.06	4034.5	
519.25	4355.3	
519.45	5885.9	
519.65	6771.3	
519.84	4805.9	
520.04	5268.1	
520.24	7101.7	
520.43	6287.9	
520.63	4660.5	
520.83	4444.1	
521.02	5837.4	
521.22	6264.7	
521.42	4813.4	
521.61	5193	
521.81	6008.7	
522.01	6114.6	
522.2	4689.2	
522.4	4481	
522.6	6442.9	
522.79	5459.9	
522.99	4566.3	
523.18	4035.2	
523.38	6148	
523.58	6163	
523.77	5335	
523.97	4077.5	
524.17	7402	
524.36	6890	
524.56	4984.8	
524.76	4747.9	
524.95	6049.7	
525.15	5881.8	
525.34	4529.4	
525.54	4627.7	
525.74	6376.7	
525.93	5618.9	
526.13	5371.1	
526.33	4488.5	
526.52	6568.5	
526.72	6125.5	
526.91	5404.6	
527.11	4851	
527.31	6531	
527.5	6688.7	
527.7	4756.7	
527.89	4127.3	
528.09	5873.6	
528.29	6155.5	
528.48	5072.1	
528.68	4821.6	
528.87	6405.4	
529.07	6537.8	
529.27	4791.6	
529.46	4433.9	
529.66	6275.7	
529.85	6468.2	
530.05	4399	
530.25	4894	
530.44	7129.7	
530.64	6154.1	
530.83	4571.1	
531.03	4749.9	
531.23	6579.4	
531.42	6291.4	
531.62	5170.4	
531.81	4691.9	
532.01	6572.6	
532.21	6719.4	
532.4	4487.8	
532.6	4726	
532.79	7225.9	
532.99	6479.1	
533.18	4779.3	
533.38	5374.6	
533.58	6223.8	
533.77	6631.3	
533.97	4678.2	
534.16	5312.4	
534.36	6918	
534.55	6234.7	
534.75	5377.3	
534.95	4727.4	
535.14	6797.9	
535.34	6152.1	
535.53	4539.7	
535.73	5808	
535.92	7182.2	
536.12	6341.2	
536.31	4627.7	
536.51	5414.8	
536.71	6630	
536.9	6303	
537.1	4784.1	
537.29	4844.8	
537.49	6925.5	
537.68	6191.7	
537.88	5101.5	
538.07	4491.9	
538.27	6333	
538.46	7002	
538.66	4410.6	
538.86	4798.4	
539.05	6501.6	
539.25	6736.5	
539.44	4933.6	
539.64	4640.7	
539.83	6317.3	
540.03	6975.4	
540.22	4612	
540.42	4755.4	
540.61	6518.7	
540.81	6522.8	
541	5033.2	
541.2	5408.7	
541.39	6233.3	
541.59	6325.5	
541.78	5272.2	
541.98	4678.9	
542.18	5955.5	
542.37	5988.9	
542.57	4917.2	
542.76	5199.8	
542.96	6135.7	
543.15	6499.6	
543.35	5001.1	
543.54	4564.2	
543.74	6589	
543.93	6419	
544.13	5013.4	
544.32	5674.2	
544.52	6707.1	
544.71	6116.6	
544.91	4371.7	
545.1	5170.4	
545.3	6227.2	
545.49	6506.4	
545.69	4295.3	
545.88	4740.4	
546.08	7277.8	
546.27	6930.3	
546.47	5105.6	
546.66	4620.2	
546.86	6810.2	
547.05	7054.6	
547.24	4745.8	
547.44	4619.5	
547.63	6083.8	
547.83	6817	
548.02	4905.6	
548.22	5066.7	
548.41	5902.9	
548.61	6898.2	
548.8	4640.7	
549	4536.3	
549.19	6472.3	
549.39	6689.3	
549.58	4475.5	
549.78	4809.3	
549.97	6598.6	
550.17	6211.5	
550.36	5450.3	
550.55	6038.8	
550.75	6361.7	
550.94	6953.5	
551.14	4603.8	
551.33	4888.5	
551.53	5828.5	
551.72	6552.8	
551.92	4909.7	
552.11	4731.5	
552.31	6652.5	
552.5	6445	
552.69	5874.9	
552.89	4481.6	
553.08	6554.9	
553.28	6300.2	
553.47	4757.4	
553.67	5394.3	
553.86	6996.5	
554.06	5820.3	
554.25	4258.4	
554.44	4590.9	
554.64	7567.9	
554.83	7230	
555.03	4531.5	
555.22	4841.4	
555.42	6748.7	
555.61	6559.6	
555.8	4691.9	
556	4902.2	
556.19	5937.7	
556.39	6745.3	
556.58	4768.4	
556.78	4775.9	
556.97	6442.2	
557.16	6202.6	
557.36	5593	
557.55	4488.5	
557.75	5799.2	
557.94	7000.6	
558.13	4611.3	
558.33	4385.4	
558.52	6916.7	
558.72	5955.5	
558.91	4481.6	
559.1	4682.3	
559.3	5906.3	
559.49	5686.5	
559.69	4265.9	
559.88	4969.7	
560.07	6417.7	
560.27	6749.4	
560.46	5012.1	
560.66	5097.4	
560.85	6315.9	
561.04	5806.7	
561.24	4511	
561.43	4636.6	
561.63	5947.3	
561.82	6117.3	
562.01	5459.9	
562.21	4793.6	
562.4	6461.3	
562.59	6948.8	
562.79	4713.7	
562.98	4499.4	
563.18	6358.3	
563.37	7289.4	
563.56	5031.2	
563.76	4447.5	
563.95	6031.3	
564.14	5937.1	
564.34	4782	
564.53	4476.9	
564.73	6453.1	
564.92	6477.7	
565.11	4796.3	
565.31	4315.1	
565.5	6755.6	
565.69	5872.9	
565.89	4581.3	
566.08	4702.8	
566.27	6607.4	
566.47	6944	
566.66	5225.7	
566.85	4227.7	
567.05	6485.9	
567.24	6024.4	
567.44	4482.3	
567.63	5384.8	
567.82	6579.4	
568.02	6309.1	
568.21	4477.5	
568.4	4797.7	
568.6	6335.1	
568.79	6163.7	
568.98	4434.5	
569.18	4451.6	
569.37	6206.7	
569.56	7558.4	
569.76	4724	
569.95	5338.4	
570.14	6588.3	
570.34	6280.4	
570.53	4424.3	
570.72	4371.7	
570.91	6834.1	
571.11	6264.7	
571.3	4762.9	
571.49	5403.2	
571.69	6287.9	
571.88	5917.9	
572.07	5070.8	
572.27	5075.5	
572.46	5896.8	
572.65	6593.1	
572.85	4509.6	
573.04	4767	
573.23	6819.7	
573.43	6299.6	
573.62	4423.6	
573.81	4833.2	
574	6369.2	
574.2	6173.3	
574.39	4661.2	
574.58	4816.1	
574.78	6827.2	
574.97	6337.1	
575.16	4996.4	
575.36	5055.1	
575.55	6717.3	
575.74	6664.8	
575.93	4376.5	
576.13	5087.2	
576.32	6160.3	
576.51	6567.2	
576.71	4690.5	
576.9	5556.1	
577.09	6888	
577.28	6525.5	
577.48	4905.6	
577.67	4285.7	
577.86	6234.7	
578.05	6469.5	
578.25	4773.8	
578.44	4882.4	
578.63	6345.3	
578.83	7114.6	
579.02	4342.4	
579.21	5388.2	
579.4	6438.1	
579.6	6247	
579.79	4891.9	
579.98	6287.3	
580.17	6670.2	
580.37	6753.5	
580.56	4500.8	
580.75	4941.1	
580.94	6882.5	
581.14	7027.9	
581.33	5238.7	
581.52	4599.1	
581.71	6555.5	
581.91	7071.6	
582.1	4488.5	
582.29	4788.2	
582.48	6365.1	
582.68	6264.1	
582.87	5086.5	
583.06	4869.4	
583.25	6619	
583.45	6435.4	
583.64	5267.4	
583.83	5683.1	
584.02	6276.3	
584.21	6630	
584.41	5253.7	
584.6	4797.7	
584.79	6427.2	
584.98	6679.1	
585.18	4507.6	
585.37	4453	
585.56	6092.7	
585.75	6603.3	
585.94	4627.7	
586.14	5039.4	
586.33	7010.9	
586.52	6278.4	
586.71	5020.3	
586.91	4833.2	
587.1	6023.8	
587.29	6686.6	
587.48	4829.1	
587.67	4710.3	
587.87	6567.2	
588.06	6569.9	
588.25	5535	
588.44	5083.1	
588.63	6352.8	
588.83	6783.6	
589.02	4882.4	
589.21	4716.5	
589.4	6309.1	
589.59	6233.3	
589.78	4260.5	
589.98	4479.6	
590.17	5937.7	
590.36	6355.5	
590.55	4050.2	
590.74	4627	
590.94	7142.6	
591.13	6269.5	
591.32	4472.1	
591.51	4137.6	
591.7	6522.8	
591.89	6170.5	
592.09	4197	
592.28	4622.3	
592.47	5666.7	
592.66	7023.2	
592.85	4208.6	
593.05	4372.4	
593.24	6180.1	
593.43	6660.7	
593.62	4454.3	
593.81	4791.6	
594	6250.4	
594.19	6278.4	
594.39	4368.3	
594.58	4298	
594.77	6418.3	
594.96	6787	
595.15	4367.6	
595.34	4814.8	
595.54	6339.1	
595.73	5801.2	
595.92	3917.8	
596.11	4694.6	
596.3	6802.7	
596.49	5928.9	
596.68	4646.2	
596.88	4822.3	
597.07	6490	
597.26	5713.8	
597.45	4263.9	
597.64	5068.7	
597.83	5952.8	
598.02	6350.1	
598.22	4309.6	
598.41	4746.5	
598.6	6253.8	
598.79	5804.6	
598.98	4328.7	
599.17	4993.6	
599.36	6291.4	
599.55	6905.8	
599.74	5689.3	
599.94	5496.1	
600.13	6572.6	
600.32	5800.5	
600.51	4119.8	
600.7	4171	
600.89	6973.3	
601.08	7023.2	
601.27	4057	
601.47	4715.8	
601.66	6522.1	
601.85	6891.4	
602.04	4536.9	
602.23	4728.1	
602.42	5891.3	
602.61	6283.2	
602.8	4465.9	
602.99	4312.3	
603.18	6098.9	
603.37	6208.8	
603.57	4805.2	
603.76	5122	
603.95	6713.9	
604.14	6398.5	
604.33	4405.2	
604.52	4537.6	
604.71	6303.6	
604.9	5954.1	
605.09	5048.9	
605.28	4843.4	
605.47	6723.5	
605.66	6379.4	
605.86	4795.7	
606.05	4380.6	
606.24	6717.3	
606.43	5676.3	
606.62	4631.1	
606.81	5137.7	
607	6627.2	
607.19	6055.2	
607.38	4201.1	
607.57	4400.4	
607.76	5978	
607.95	5553.4	
608.14	4733.5	
608.33	5012.1	
608.52	5882.4	
608.72	6429.3	
608.91	4088.4	
609.1	4070	
609.29	5984.2	
609.48	5668.8	
609.67	4728.1	
609.86	4206.5	
610.05	5803.3	
610.24	5956.9	
610.43	4133.5	
610.62	3829	
610.81	6670.9	
611	6546	
611.19	4169.7	
611.38	4661.9	
611.57	6195.1	
611.76	6997.9	
611.95	4074.8	
612.14	3982.6	
612.33	6024.4	
612.52	5724.8	
612.71	4370.4	
612.9	3907.5	
613.09	5445.5	
613.28	7048.4	
613.47	4356.7	
613.66	4888.5	
613.85	6106.4	
614.04	5763.7	
614.24	4279.6	
614.43	3785.3	
614.62	6199.9	
614.81	6206	
615	4552.6	
615.19	4655	
615.38	5763	
615.57	5973.2	
615.76	4582	
615.95	5221.6	
616.14	6279.8	
616.33	6072.9	
616.52	4820.9	
616.71	4869.4	
616.9	6219.7	
617.09	6031.3	
617.28	4367.6	
617.47	5171.1	
617.66	5599.8	
617.85	5575.9	
618.04	4977.2	
618.22	4515.1	
618.41	5844.2	
618.6	6437.4	
618.79	4451.6	
618.98	4231.8	
619.17	6574	
619.36	5433.3	
619.55	4448.9	
619.74	4509.6	
619.93	6065.4	
620.12	5689.9	
620.31	4840.7	
620.5	4829.1	
620.69	6455.2	
620.88	6800.6	
621.07	5358.9	
621.26	4747.9	
621.45	6225.8	
621.64	6207.4	
621.83	4816.8	
622.02	4159.4	
622.21	6253.1	
622.4	6068.8	
622.59	5188.9	
622.78	5016.8	
622.97	5857.9	
623.16	6421.1	
623.35	4764.3	
623.54	4198.3	
623.72	5970.5	
623.91	6078.4	
624.1	4939.7	
624.29	4065.9	
624.48	6838.9	
624.67	6343.9	
624.86	4856.4	
625.05	4218.8	
625.24	6983.6	
625.43	5862	
625.62	5947.3	
625.81	4354.7	
626	6487.3	
626.19	5995.1	
626.38	4874.2	
626.56	4435.2	
626.75	5869.5	
626.94	6355.5	
627.13	4951.3	
627.32	4046.8	
627.51	6386.2	
627.7	7111.2	
627.89	4083	
628.08	4904.9	
628.27	5812.8	
628.46	5995.1	
628.65	4360.8	
628.83	4063.2	
629.02	6338.5	
629.21	5816.2	
629.4	4584.7	
629.59	4788.2	
629.78	5836	
629.97	6404	
630.16	4795.7	
630.35	4433.9	
630.54	6778.8	
630.72	6582.9	
630.91	4459.1	
631.1	4721.9	
631.29	6168.5	
631.48	6171.9	
631.67	4844.8	
631.86	4564.9	
632.05	6000.5	
632.24	5986.9	
632.42	4252.3	
632.61	4670.1	
632.8	6083.1	
632.99	5721.3	
633.18	4721.3	
633.37	4929.5	
633.56	6208.8	
633.75	6127.5	
633.93	4700.8	
634.12	4473.4	
634.31	6899.6	
634.5	6492.1	
634.69	4517.8	
634.88	4928.8	
635.07	6081.8	
635.25	6491.4	
635.44	5104.9	
635.63	5221	
635.82	5937.7	
636.01	5469.4	
636.2	5091.9	
636.39	4749.2	
636.57	6767.2	
636.76	6448.4	
636.95	4385.4	
637.14	5261.9	
637.33	6260.6	
637.52	6812.2	
637.7	4226.3	
637.89	4906.3	
638.08	6055.8	
638.27	6922.8	
638.46	4969.1	
638.65	5169.8	
638.83	6999.3	
639.02	5870.2	
639.21	4861.2	
639.4	5218.9	
639.59	6217.6	
639.78	5968.5	
639.96	4363.5	
640.15	4416.8	
640.34	6134.3	
640.53	6144.6	
640.72	4278.2	
640.91	4466.6	
641.09	5764.3	
641.28	6602.7	
641.47	4514.4	
641.66	5033.2	
641.85	6218.3	
642.03	6350.8	
642.22	4797.7	
642.41	4521.2	
642.6	5843.5	
642.79	5423.7	
642.97	4449.6	
643.16	4825	
643.35	5807.4	
643.54	5625.8	
643.73	4334.9	
643.91	4871.4	
644.1	5660.6	
644.29	6064	
644.48	4375.8	
644.67	4410	
644.85	5760.3	
645.04	6021.7	
645.23	4170.3	
645.42	4417.5	
645.6	5707.7	
645.79	6482.5	
645.98	4339	
646.17	3729.4	
646.36	5573.2	
646.54	5980.8	
646.73	4965	
646.92	4115.7	
647.11	5679.7	
647.29	6330.3	
647.48	4130.8	
647.67	4087.7	
647.86	6579.4	
648.05	6495.5	
648.23	4353.3	
648.42	5296.7	
648.61	6160.3	
648.8	5959.6	
648.98	4119.1	
649.17	4393.6	
649.36	5644.9	
649.55	5348.6	
649.73	4213.4	
649.92	4676.9	
650.11	5601.9	
650.3	5826.5	
650.48	4318.5	
650.67	4048.2	
650.86	6005.3	
651.05	5256.5	
651.23	4266.6	
651.42	4200.4	
651.61	5601.2	
651.79	5558.2	
651.98	4377.9	
652.17	4111.6	
652.36	5930.9	
652.54	5319.3	
652.73	4185.4	
652.92	4090.5	
653.11	6014.2	
653.29	6053.8	
653.48	3725.3	
653.67	4334.2	
653.85	5825.8	
654.04	6487.3	
654.23	4481.6	
654.42	4239.3	
654.6	5515.2	
654.79	5977.3	
654.98	3917.1	
655.16	4326.7	
655.35	5311.1	
655.54	5145.2	
655.73	3964.2	
655.91	3836.5	
656.1	5960.3	
656.29	5141.1	
656.47	3650.2	
656.66	4735.6	
656.85	5496.7	
657.03	5318.6	
657.22	3989.4	
657.41	4014	
657.59	5427.1	
657.78	5298.8	
657.97	3723.2	
658.16	4235.9	
658.34	5917.9	
658.53	6167.1	
658.72	4872.1	
658.9	5169.8	
659.09	5630.5	
659.28	5644.2	
659.46	4044.7	
659.65	3982.6	
659.84	5383.4	
660.02	5786.2	
660.21	4045.4	
660.4	3894.6	
660.58	6025.1	
660.77	5567.7	
660.96	4339	
661.14	3685.7	
661.33	6452.5	
661.52	6330.3	
661.7	3648.1	
661.89	6038.8	
662.08	5320.6	
662.26	4997	
662.45	3892.5	
662.64	3986.7	
662.82	5862.7	
663.01	5204.6	
663.2	4025.6	
663.38	4464.6	
663.57	5767.1	
663.75	5658.5	
663.94	4218.8	
664.13	5029.1	
664.31	5368.4	
664.5	5843.5	
664.69	4434.5	
664.87	4710.3	
665.06	5126.7	
665.25	5617.6	
665.43	4853	
665.62	4861.9	
665.8	5826.5	
665.99	5420.3	
666.18	4164.9	
666.36	4222.2	
666.55	5864.7	
666.74	5791.7	
666.92	3923.2	
667.11	5015.5	
667.29	5443.5	
667.48	5849	
667.67	4774.5	
667.85	4107.5	
668.04	5449.6	
668.22	5421	
668.41	4318.5	
668.6	4487.1	
668.78	5369.1	
668.97	5489.2	
669.15	4490.5	
669.34	3736.9	
669.53	5337.7	
669.71	5563.6	
669.9	3836.5	
670.08	4339.6	
670.27	5259.2	
670.46	5685.8	
670.64	4485.1	
670.83	4627	
671.01	5160.9	
671.2	5587.5	
671.38	4001	
671.57	3941	
671.76	6163	
671.94	6445	
672.13	3805.8	
672.31	4547.9	
672.5	5809.4	
672.69	5345.9	
672.87	3936.9	
673.06	4199	
673.24	5737	
673.43	5401.9	
673.61	4330.1	
673.8	4092.5	
673.98	5788.2	
674.17	5892	
674.36	4539.7	
674.54	4459.1	
674.73	5541.1	
674.91	5951.4	
675.1	4195.6	
675.28	3872	
675.47	5498.8	
675.65	5831.2	
675.84	4215.4	
676.03	4341	
676.21	5414.1	
676.4	4936.3	
676.58	4643.4	
676.77	4498.7	
676.95	6367.1	
677.14	5386.8	
677.32	3890.5	
677.51	3775.8	
677.69	5847.6	
677.88	5146.5	
678.06	3876.8	
678.25	3949.2	
678.44	5495.4	
678.62	5225.1	
678.81	3749.8	
678.99	4361.5	
679.18	6040.8	
679.36	5685.8	
679.55	4108.2	
679.73	4564.9	
679.92	5715.2	
680.1	5315.8	
680.29	4970.4	
680.47	4091.2	
680.66	5353.4	
680.84	5838.8	
681.03	3677.5	
681.21	4519.2	
681.4	5313.8	
681.58	5270.8	
681.77	3966.2	
681.95	3916.4	
682.14	5918.6	
682.32	6155.5	
682.51	4537.6	
682.69	3795.6	
682.88	5326.8	
683.06	5686.5	
683.25	4385.4	
683.43	4646.2	
683.62	5575.9	
683.8	5816.9	
683.99	4820.2	
684.17	4282.3	
684.36	6348.7	
684.54	5468.8	
684.73	3808.5	
684.91	3912.3	
685.1	5702.2	
685.28	5257.8	
685.46	4313.7	
685.65	4351.3	
685.83	5866.1	
686.02	5423	
686.2	3975.8	
686.39	4031.1	
686.57	5198.4	
686.76	6214.9	
686.94	3973.1	
687.13	4005.1	
687.31	5669.5	
687.5	5474.2	
687.68	3706.8	
687.86	4430.4	
688.05	6653.2	
688.23	5044.1	
688.42	4526	
688.6	4011.3	
688.79	5366.4	
688.97	5348.6	
689.16	4262.5	
689.34	3521.1	
689.52	5797.8	
689.71	6038.8	
689.89	4442.7	
690.08	3942.3	
690.26	5519.3	
690.45	5411.4	
690.63	4539.7	
690.81	4108.2	
691	5488.6	
691.18	5315.8	
691.37	4197.7	
691.55	5698.8	
691.74	5283.1	
691.92	6638.1	
692.1	4125.3	
692.29	3780.6	
692.47	5469.4	
692.66	4965.6	
692.84	3992.9	
693.02	4293.2	
693.21	4952.7	
693.39	5416.2	
693.58	4405.2	
693.76	3919.8	
693.94	6201.9	
694.13	6050.4	
694.31	3936.2	
694.5	4610.7	
694.68	5259.2	
694.86	5500.2	
695.05	4153.3	
695.23	4277.5	
695.42	5757.5	
695.6	7239.6	
695.78	4601.1	
695.97	4031.1	
696.15	5704.3	
696.34	5337	
696.52	3833.8	
696.7	4427	
696.89	5580.7	
697.07	5134.9	
697.25	4306.9	
697.44	5337.7	
697.62	5633.3	
697.81	5750	
697.99	4174.4	
698.17	4491.2	
698.36	5214.8	
698.54	5610.1	
698.72	4334.2	
698.91	3741.6	
699.09	5373.2	
699.28	5178.6	
699.46	4158.1	
699.64	4102.1	
699.83	5203.9	
700.01	5959.6	
700.19	4631.1	
700.38	3521.1	
700.56	5945.9	
700.74	5253	
700.93	3768.9	
701.11	4348.5	
701.29	5601.2	
701.48	6328.2	
701.66	3898	
701.84	3935.5	
702.03	5395.7	
702.21	5747.3	
702.39	3622.9	
702.58	4057.7	
702.76	5674.9	
702.94	5619.6	
703.13	3649.5	
703.31	5324	
703.49	5227.8	
703.68	5824.4	
703.86	3786.7	
704.04	4504.2	
704.23	5458.5	
704.41	5774.6	
704.59	3956	
704.78	4696.7	
704.96	6562.4	
705.14	5728.9	
705.33	3736.9	
705.51	4328.7	
705.69	5317.9	
705.87	5931.6	
706.06	4470	
706.24	3667.9	
706.42	5621.7	
706.61	5727.5	
706.79	4506.2	
706.97	3691.8	
707.16	5249.6	
707.34	5556.1	
707.52	4421.6	
707.7	3799.7	
707.89	5154.7	
708.07	5087.8	
708.25	4476.2	
708.44	4552	
708.62	5157.5	
708.8	5943.2	
708.98	4652.3	
709.17	3936.9	
709.35	5474.2	
709.53	5513.1	
709.72	3708.9	
709.9	3857.7	
710.08	5761.6	
710.26	5735	
710.45	4802.5	
710.63	3942.3	
710.81	5390.3	
710.99	5538.4	
711.18	4422.9	
711.36	4035.2	
711.54	5332.2	
711.72	5827.8	
711.91	4120.5	
712.09	3758	
712.27	5474.9	
712.45	5879.7	
712.64	4342.4	
712.82	3605.1	
713	5148.6	
713.18	5255.1	
713.37	3693.2	
713.55	4629.8	
713.73	5910.4	
713.91	4928.8	
714.1	4019.5	
714.28	3702	
714.46	5622.4	
714.64	5168.4	
714.83	3365.5	
715.01	3917.8	
715.19	5273.5	
715.37	4773.1	
715.55	3685.7	
715.74	3890.5	
715.92	5853.8	
716.1	4448.2	
716.28	4620.9	
716.47	3982.6	
716.65	5016.8	
716.83	4986.8	
717.01	3877.5	
717.19	3887.7	
717.38	6440.2	
717.56	4750.6	
717.74	4060.4	
717.92	3457	
718.1	5594.4	
718.29	5057.1	
718.47	3170.3	
718.65	3620.8	
718.83	5492	
719.01	5472.2	
719.2	3112.2	
719.38	3810.6	
719.56	5209.3	
719.74	6277.7	
719.92	3570.3	
720.11	4282.3	
720.29	5417.6	
720.47	4670.7	
720.65	3346.4	
720.83	3951.2	
721.02	5016.2	
721.2	4857.8	
721.38	3966.2	
721.56	3452.9	
721.74	4441.4	
721.92	4577.9	
722.11	4226.3	
722.29	4037.2	
722.47	5461.2	
722.65	4897.4	
722.83	3469.9	
723.01	4043.4	
723.2	4997.7	
723.38	5173.9	
723.56	3009.1	
723.74	3830.4	
723.92	4689.2	
724.1	5354.1	
724.29	3407.1	
724.47	4192.9	
724.65	4742.4	
724.83	4567	
725.01	3378.5	
725.19	3906.8	
725.37	4664.6	
725.56	4659.1	
725.74	3278.8	
725.92	3380.5	
726.1	4597	
726.28	4838	
726.46	3678.2	
726.64	3478.8	
726.83	4879.6	
727.01	4979.3	
727.19	3250.8	
727.37	3689.8	
727.55	4930.1	
727.73	5272.8	
727.91	3188.7	
728.09	3106.8	
728.28	5246.2	
728.46	5376.6	
728.64	3765.5	
728.82	3765.5	
729	5907.7	
729.18	5474.9	
729.36	3224.9	
729.54	4833.2	
729.72	6124.8	
729.91	4880.3	
730.09	4523.3	
730.27	3684.3	
730.45	4917.9	
730.63	5343.2	
730.81	4068.6	
730.99	3387.3	
731.17	5662	
731.35	4726	
731.53	3747.8	
731.71	3483.6	
731.9	5461.9	
732.08	5552	
732.26	3704.1	
732.44	3459.7	
732.62	5637.4	
732.8	5250.3	
732.98	4007.2	
733.16	3277.4	
733.34	5214.8	
733.52	4393.6	
733.7	3667.9	
733.88	3855	
734.07	5192.3	
734.25	4973.2	
734.43	3360.7	
734.61	4356.7	
734.79	5974.6	
734.97	4953.4	
735.15	3412.6	
735.33	3732.8	
735.51	5236	
735.69	4955.4	
735.87	4676.2	
736.05	3758.7	
736.23	5021.6	
736.41	4802.5	
736.59	3622.2	
736.77	3775.1	
736.95	5298.1	
737.13	4909.7	
737.32	3415.3	
737.5	3573.7	
737.68	5743.9	
737.86	4795	
738.04	3353.2	
738.22	4532.2	
738.4	4784.1	
738.58	5062.6	
738.76	3740.3	
738.94	2995.5	
739.12	4874.8	
739.3	4747.9	
739.48	4123.2	
739.66	3956	
739.84	4962.2	
740.02	4953.4	
740.2	3136.8	
740.38	3304.7	
740.56	5296	
740.74	4426.3	
740.92	3826.3	
741.1	3676.1	
741.28	4882.4	
741.46	4710.3	
741.64	3446.7	
741.82	3880.2	
742	4962.2	
742.18	4851.6	
742.36	3649.5	
742.54	3367.5	
742.72	5307	
742.9	4421.6	
743.08	3854.3	
743.26	3040.6	
743.44	5361.6	
743.62	5318.6	
743.8	4042	
743.98	3312.9	
744.16	5133.6	
744.34	4872.1	
744.52	3890.5	
744.7	3920.5	
744.88	5261.9	
745.06	4876.2	
745.24	3997.6	
745.42	4068.6	
745.6	5341.1	
745.78	5180	
745.96	3222.8	
746.14	3337.5	
746.32	5892	
746.5	5270.1	
746.68	3811.3	
746.86	3414	
747.03	5554.1	
747.21	4423.6	
747.39	3773	
747.57	3404.4	
747.75	4981.3	
747.93	5284.4	
748.11	3394.2	
748.29	3401	
748.47	6138.4	
748.65	4829.1	
748.83	3872	
749.01	3746.4	
749.19	5214.1	
749.37	4618.9	
749.55	3678.2	
749.73	3639.9	
749.91	5014.8	
750.09	4801.8	
750.26	3690.4	
750.44	3278.8	
750.62	4947.2	
750.8	4926.7	
750.98	3215.3	
751.16	3431	
751.34	5060.5	
751.52	4542.4	
751.7	4038.6	
751.88	3237.2	
752.06	5354.1	
752.24	5192.3	
752.42	3145.7	
752.59	3445.4	
752.77	4979.3	
752.95	5817.6	
753.13	3995.6	
753.31	3494.5	
753.49	4708.3	
753.67	5092.6	
753.85	3708.9	
754.03	3403	
754.21	5291.3	
754.38	5492.7	
754.56	3530.7	
754.74	2963.4	
754.92	4750.6	
755.1	5252.4	
755.28	2957.3	
755.46	2992.1	
755.64	5904.3	
755.82	5944.6	
755.99	3282.2	
756.17	3340.2	
756.35	4222.9	
756.53	5276.9	
756.71	2551.1	
756.89	3210.5	
757.07	4999.8	
757.25	4332.1	
757.42	3542.3	
757.6	4191.5	
757.78	4955.4	
757.96	4306.9	
758.14	3332	
758.32	3008.5	
758.5	4016.1	
758.67	4608.6	
758.85	3231	
759.03	3293.8	
759.21	4803.2	
759.39	4330.1	
759.57	2974.3	
759.75	3774.4	
759.92	5255.8	
760.1	4736.3	
760.28	3995.6	
760.46	4130.1	
760.64	4545.8	
760.82	4429.8	
760.99	3827.7	
761.17	3272.7	
761.35	5137	
761.53	4328.7	
761.71	3335.5	
761.89	3800.3	
762.06	4976.6	
762.24	4600.4	
762.42	3448.8	
762.6	3194.1	
762.78	4591.5	
762.96	5067.4	
763.13	3637.2	
763.31	3361.4	
763.49	5170.4	
763.67	4561.5	
763.85	4015.4	
764.02	4345.1	
764.2	5398.4	
764.38	4685.8	
764.56	3339.6	
764.74	3956.7	
764.91	5404.6	
765.09	4579.3	
765.27	3171.6	
765.45	2981.8	
765.63	5507.7	
765.8	5297.4	
765.98	2833	
766.16	3030.3	
766.34	4332.1	
766.52	4184.7	
766.69	3693.2	
766.87	2938.8	
767.05	4681	
767.23	5237.3	
767.41	3161.4	
767.58	3328.6	
767.76	5074.9	
767.94	5141.8	
768.12	3277.4	
768.29	3653.6	
768.47	4682.3	
768.65	5218.2	
768.83	2957.9	
769	3727.3	
769.18	4451.6	
769.36	4873.5	
769.54	3759.4	
769.72	3011.2	
769.89	5147.9	
770.07	5179.3	
770.25	3245.3	
770.43	4130.8	
770.6	5708.4	
770.78	5893.4	
770.96	3376.4	
771.14	3778.5	
771.31	5104.9	
771.49	4607.9	
771.67	2815.3	
771.85	2980.5	
772.02	4119.1	
772.2	4580.6	
772.38	3523.2	
772.55	3093.8	
772.73	4812.7	
772.91	4623.6	
773.09	3409.9	
773.26	3430.3	
773.44	4787.5	
773.62	4558.8	
773.8	3080.8	
773.97	2875.3	
774.15	4854.4	
774.33	4676.2	
774.5	3080.1	
774.68	3301.3	
774.86	4987.5	
775.04	4639.3	
775.21	3105.4	
775.39	3054.9	
775.57	4810.7	
775.74	5049.6	
775.92	2944.3	
776.1	2893.1	
776.27	4763.6	
776.45	5644.9	
776.63	3029.6	
776.81	2793.4	
776.98	4569	
777.16	5219.6	
777.34	3123.2	
777.51	3318.4	
777.69	4536.9	
777.87	4384.7	
778.04	3265.8	
778.22	3590.1	
778.4	4417.5	
778.57	4912.4	
778.75	2678.1	
778.93	2915.6	
779.1	4327.4	
779.28	4118.5	
779.46	2719.7	
779.64	3077.4	
779.81	5054.4	
779.99	5555.5	
780.17	3603.1	
780.34	3682.9	
780.52	4629.8	
780.69	4748.6	
780.87	3327.9	
781.05	3009.8	
781.22	4700.1	
781.4	4663.9	
781.58	3125.2	
781.75	2467.1	
781.93	4745.8	
782.11	4210.6	
782.28	3693.9	
782.46	3095.8	
782.64	4109.6	
782.81	4798.4	
782.99	3203	
783.17	3164.8	
783.34	4668	
783.52	4274.8	
783.69	3288.4	
783.87	3833.8	
784.05	4319.2	
784.22	4284.4	
784.4	3870	
784.58	3343.7	
784.75	4989.5	
784.93	4378.6	
785.1	3145	
785.28	3515.7	
785.46	4795	
785.63	4278.2	
785.81	3128.6	
785.99	2977.1	
786.16	4450.9	
786.34	4681.7	
786.51	3037.1	
786.69	3338.2	
786.87	4050.9	
787.04	4479.6	
787.22	2963.4	
787.39	3562.1	
787.57	4291.9	
787.75	4971.8	
787.92	3732.8	
788.1	3673.4	
788.27	4298	
788.45	4079.6	
788.63	3504.8	
788.8	2588.6	
788.98	4686.4	
789.15	4027.7	
789.33	2726.5	
789.5	3087	
789.68	4896.7	
789.86	4986.1	
790.03	3411.2	
790.21	3011.9	
790.38	4966.3	
790.56	4433.9	
790.73	2976.4	
790.91	2969.6	
791.09	4322.6	
791.26	4816.1	
791.44	3132.7	
791.61	2729.3	
791.79	4302.1	
791.96	4326	
792.14	2851.5	
792.32	2595.5	
792.49	4313	
792.67	4416.8	
792.84	2893.8	
793.02	2718.3	
793.19	4614.1	
793.37	5132.9	
793.54	2529.2	
793.72	2816	
793.89	5210	
794.07	4265.2	
794.25	3273.3	
794.42	2638.5	
794.6	5059.2	
794.77	4733.5	
794.95	3378.5	
795.12	3046	
795.3	4354.7	
795.47	4705.5	
795.65	3289.7	
795.82	3155.9	
796	4139.6	
796.17	5532.2	
796.35	3117	
796.52	3599	
796.7	4776.5	
796.87	4758.8	
797.05	3074	
797.22	3647.4	
797.4	4813.4	
797.57	5438	
797.75	3194.8	
797.92	3005.1	
798.1	4996.4	
798.27	4219.5	
798.45	2637.8	
798.62	2838.5	
798.8	4531.5	
798.97	4872.1	
799.15	3342.3	
799.32	3246.7	
799.5	3973.1	
799.67	4559.5	
799.85	3362.1	
800.02	2565.4	
800.2	4234.5	
800.37	4434.5	
800.55	3520.5	
800.72	2971.6	
800.9	4838	
801.07	5119.2	
801.25	3921.9	
801.42	3325.2	
801.6	4900.8	
801.77	4616.8	
801.95	3116.3	
802.12	2907.4	
802.29	4645.5	
802.47	4565.6	
802.64	3279.5	
802.82	2527.9	
802.99	4300.7	
803.17	4877.6	
803.34	3205.1	
803.52	2906.1	
803.69	5408.7	
803.87	4105.5	
804.04	3201	
804.21	3167.5	
804.39	5157.5	
804.56	4418.8	
804.74	2779.8	
804.91	3283.6	
805.09	4346.5	
805.26	4337.6	
805.44	2816	
805.61	3089.7	
805.78	4776.5	
805.96	4810	
806.13	3233.1	
806.31	3487.7	
806.48	3997	
806.66	4349.9	
806.83	3250.1	
807	3230.3	
807.18	4333.5	
807.35	4549.9	
807.53	3078.8	
807.7	2619.4	
807.87	5108.3	
808.05	4298	
808.22	3456.3	
808.4	2618	
808.57	4252.9	
808.74	4054.3	
808.92	2985.9	
809.09	3627	
809.27	4330.8	
809.44	4660.5	
809.61	2699.2	
809.79	2874.7	
809.96	5229.1	
810.14	4823.6	
810.31	2663	
810.48	3151.8	
810.66	4376.5	
810.83	4874.8	
811.01	2979.1	
811.18	3224.2	
811.35	4847.5	
811.53	3858.4	
811.7	3520.5	
811.87	3332	
812.05	4429.8	
812.22	4282.3	
812.39	2881.5	
812.57	2800.9	
812.74	4388.1	
812.92	5445.5	
813.09	3123.8	
813.26	3287.7	
813.44	5256.5	
813.61	4245.4	
813.78	2679.4	
813.96	3442	
814.13	4354.7	
814.3	4147.8	
814.48	3702	
814.65	3051.5	
814.82	5123.3	
815	4143	
815.17	3137.5	
815.34	3786	
815.52	4287.1	
815.69	4256.4	
815.87	3130	
816.04	3085.6	
816.21	4303.5	
816.38	3932.8	
816.56	3140.9	
816.73	2877.4	
816.9	5416.2	
817.08	4825	
817.25	2886.3	
817.42	3517.7	
817.6	4025.6	
817.77	4303.5	
817.94	3229	
818.12	2824.8	
818.29	4242	
818.46	5933.6	
818.64	3019.4	
818.81	2837.8	
818.98	4171.7	
819.16	5578.7	
819.33	3413.3	
819.5	3151.8	
819.67	4647.5	
819.85	5066.7	
820.02	3190.1	
820.19	3290.4	
820.37	4503.5	
820.54	4232.5	
820.71	3209.8	
820.88	3880.2	
821.06	4511	
821.23	4185.4	
821.4	3270.6	
821.58	3198.2	
821.75	4802.5	
821.92	4443.4	
822.09	2691	
822.27	2763.4	
822.44	4365.6	
822.61	4297.3	
822.79	2676	
822.96	4826.4	
823.13	4620.2	
823.3	4095.3	
823.48	3007.1	
823.65	2799.6	
823.82	4840	
823.99	4016.7	
824.17	3775.1	
824.34	2809.8	
824.51	5483.1	
824.68	4351.9	
824.86	2907.4	
825.03	3208.5	
825.2	4326	
825.37	5036	
825.55	2936.1	
825.72	3195.5	
825.89	5461.9	
826.06	5139	
826.24	3068.5	
826.41	3131.3	
826.58	5111.7	
826.75	4490.5	
826.92	2583.2	
827.1	2833	
827.27	6651.1	
827.44	5423	
827.61	2955.2	
827.79	3426.9	
827.96	4217.5	
828.13	4322.6	
828.3	3135.4	
828.47	2613.9	
828.65	4627.7	
828.82	4554.7	
828.99	3818.1	
829.16	3340.2	
829.34	4853	
829.51	4678.2	
829.68	3134.8	
829.85	3222.1	
830.02	5141.1	
830.2	4801.1	
830.37	2515.6	
830.54	3697.9	
830.71	5382.7	
830.88	4406.5	
831.05	2529.2	
831.23	2876.7	
831.4	5283.8	
831.57	5654.4	
831.74	2953.9	
831.91	2674.6	
832.09	4685.8	
832.26	4839.4	
832.43	3020.8	
832.6	3364.1	
832.77	4607.9	
832.94	5158.2	
833.12	2508.1	
833.29	2961.4	
833.46	4691.2	
833.63	5839.4	
833.8	3278.1	
833.97	3037.1	
834.15	4902.2	
834.32	4701.5	
834.49	3114.3	
834.66	3251.5	
834.83	4947.9	
835	4218.8	
835.17	2947	
835.35	2912.2	
835.52	4795.7	
835.69	4713.7	
835.86	3129.3	
836.03	2577.7	
836.2	4801.8	
836.37	4509.6	
836.55	3013.9	
836.72	2835.1	
836.89	4567	
837.06	4902.8	
837.23	3025.5	
837.4	3322.5	
837.57	5429.2	
837.75	5784.1	
837.92	2807.8	
838.09	2951.8	
838.26	4545.1	
838.43	4998.4	
838.6	3142.3	
838.77	2826.9	
838.94	5571.8	
839.11	5423	
839.29	3028.3	
839.46	2428.9	
839.63	4868.7	
839.8	4592.9	
839.97	2979.8	
840.14	2945	
840.31	4685.8	
840.48	4813.4	
840.65	2494.4	
840.82	2904	
841	4818.2	
841.17	4740.4	
841.34	2700.6	
841.51	2808.4	
841.68	4823.6	
841.85	4551.3	
842.02	2857.6	
842.19	2430.3	
842.36	4672.1	
842.53	4694.6	
842.7	2775.7	
842.87	3235.8	
843.05	5790.3	
843.22	4504.8	
843.39	2669.2	
843.56	2866.5	
843.73	4506.9	
843.9	4883	
844.07	4188.1	
844.24	3491.8	
844.41	6464.8	
844.58	4258.4	
844.75	2641.9	
844.92	2852.8	
845.09	4838.7	
845.26	4776.5	
845.43	2767.5	
845.6	2903.3	
845.77	4774.5	
845.94	4619.5	
846.12	2951.8	
846.29	3123.8	
846.46	5008.6	
846.63	4782.7	
846.8	2721.1	
846.97	3144.3	
847.14	5134.9	
847.31	4785.4	
847.48	3026.2	
847.65	3302.7	
847.82	4984.8	
847.99	4938.3	
848.16	3561.4	
848.33	3253.5	
848.5	4527.4	
848.67	5194.3	
848.84	2740.2	
849.01	2850.1	
849.18	4442.7	
849.35	4210.6	
849.52	3334.1	
849.69	2657.6	
849.86	5006.6	
850.03	5073.5	
850.2	2763.4	
850.37	3229	
850.54	5042.1	
850.71	4566.3	
850.88	3181.9	
851.05	2681.5	
851.22	4690.5	
851.39	5194.3	
851.56	2592	
851.73	3016	
851.9	4300.1	
852.07	5012.7	
852.24	2969.6	
852.41	2692.4	
852.58	4810	
852.75	4375.1	
852.92	3035.8	
853.09	2707.4	
853.26	4507.6	
853.43	5117.2	
853.6	2695.1	
853.77	2330.6	
853.94	5205.3	
854.11	4296	
854.28	3875.4	
854.44	2917	
854.61	5479.7	
854.78	5036	
854.95	2693.8	
855.12	3373	
855.29	4006.5	
855.46	5425.8	
855.63	2735.4	
855.8	3612.6	
855.97	4491.9	
856.14	5057.8	
856.31	3641.3	
856.48	2910.8	
856.65	4520.5	
856.82	4279.6	
856.99	2680.8	
857.16	2933.4	
857.33	5599.1	
857.49	4586.8	
857.66	2930	
857.83	3131.3	
858	4614.8	
858.17	4737	
858.34	2586.6	
858.51	2765.4	
858.68	5160.2	
858.85	5288.5	
859.02	3100.6	
859.19	3163.4	
859.36	4288.4	
859.52	4309.6	
859.69	2718.3	
859.86	3186.6	
860.03	4321.2	
860.2	5195	
860.37	2521.7	
860.54	2768.2	
860.71	4951.3	
860.88	5221	
861.05	2988	
861.21	3402.4	
861.38	5220.3	
861.55	4145.1	
861.72	2538.8	
861.89	3021.4	
862.06	4988.2	
862.23	5290.6	
862.4	2612.5	
862.56	2816.6	
862.73	4853	
862.9	4651.6	
863.07	3085.6	
863.24	2543.6	
863.41	4266.6	
863.58	4306.9	
863.75	2739.5	
863.91	3099.3	
864.08	5152	
864.25	4933.6	
864.42	3322.5	
864.59	3743	
864.76	5384.8	
864.93	4317.1	
865.09	2676	
865.26	2848.7	
865.43	5101.5	
865.6	5415.5	
865.77	2450.1	
865.94	2674.6	
866.1	5131.5	
866.27	4893.3	
866.44	3945.8	
866.61	2606.4	
866.78	4583.4	
866.95	4928.1	
867.11	2674	
867.28	2458.9	
867.45	5111	
867.62	4214	
867.79	3041.9	
867.96	2706	
868.12	4255	
868.29	4948.6	
868.46	2697.9	
868.63	3519.8	
868.8	5044.1	
868.97	4906.9	
869.13	2800.9	
869.3	2818	
869.47	4810	
869.64	4994.3	
869.81	2734.7	
869.97	2717.7	
870.14	4759.5	
870.31	5219.6	
870.48	2639.1	
870.65	3315	
870.81	4574.5	
870.98	4602.5	
871.15	3052.2	
871.32	2798.9	
871.48	4851.6	
871.65	5299.5	
871.82	2628.9	
871.99	2932	
872.16	5571.2	
872.32	5160.2	
872.49	2787.3	
872.66	2749.1	
872.83	5025	
872.99	4442	
873.16	3121.8	
873.33	2763.4	
873.5	4657.1	
873.67	4695.3	
873.83	2869.9	
874	3517.7	
874.17	4796.3	
874.34	5460.6	
874.5	3465.2	
874.67	3306.8	
874.84	5162.2	
875.01	4188.1	
875.17	3664.5	
875.34	2675.3	
875.51	4740.4	
875.68	5575.3	
875.84	3241.9	
876.01	3798.3	
876.18	4922.6	
876.34	4878.9	
876.51	2702.6	
876.68	2674	
876.85	4509.6	
877.01	5143.8	
877.18	3723.9	
877.35	2644.6	
877.52	4767	
877.68	4281.6	
877.85	2677.4	
878.02	2684.9	
878.18	4513	
878.35	4455.7	
878.52	2269.8	
878.69	2966.1	
878.85	5083.1	
879.02	4827.7	
879.19	3762.8	
879.35	2888.3	
879.52	4939.7	
879.69	4986.8	
879.86	2420	
880.02	3012.6	
880.19	4648.2	
880.36	5470.1	
880.52	3065.8	
880.69	3131.3	
880.86	5010	
881.02	4956.8	
881.19	2996.2	
881.36	2906.8	
881.52	4931.5	
881.69	4426.3	
881.86	2917.7	
882.02	2863.7	
882.19	5111.7	
882.36	5786.2	
882.52	2727.2	
882.69	3719.8	
882.86	4782.7	
883.02	4737.6	
883.19	3209.2	
883.36	3095.8	
883.52	5003.2	
883.69	5614.8	
883.86	2764.1	
884.02	2527.9	
884.19	4907.6	
884.36	4631.8	
884.52	3065.8	
884.69	2865.8	
884.86	4511.7	
885.02	5247.6	
885.19	3027.6	
885.36	3072.6	
885.52	4612	
885.69	4801.1	
885.86	3792.2	
886.02	3390.1	
886.19	5031.2	
886.35	4519.2	
886.52	2975.7	
886.69	3646.7	
886.85	4330.1	
887.02	5197.1	
887.19	5197.1	
887.35	5197.1	
887.52	5197.1	
887.68	5197.1	
887.85	5197.1	
888.02	5197.1	
888.18	5197.1	
888.35	5197.1	
888.51	5197.1	
888.68	5197.1	
888.85	5197.1	
889.01	5197.1	
889.18	5197.1	
889.35	5197.1	
889.51	5197.1	
889.68	5197.1	
889.84	5197.1	
890.01	5197.1	
890.17	5197.1	
890.34	5197.1	
890.51	5197.1	
890.67	5197.1	
890.84	5197.1	
891	5197.1	
891.17	5197.1	
891.34	5197.1	
891.5	5197.1	
891.67	5197.1	
891.83	5197.1	
892	5197.1	
892.16	5197.1	
892.33	5197.1	
892.5	5197.1	
892.66	5197.1	
892.83	5197.1	
892.99	5197.1	
893.16	5197.1	
893.32	5197.1	
893.49	5197.1	
893.65	5197.1	
893.82	5197.1	
893.99	5197.1	
894.15	5197.1	
894.32	5197.1	
894.48	5197.1	
894.65	5197.1	
894.81	5197.1	
894.98	5197.1	
895.14	5197.1	
895.31	5197.1	
895.47	5197.1	
895.64	5197.1	
895.81	5197.1	
895.97	5197.1	
896.14	5197.1	
896.3	5197.1	
896.47	5197.1	
896.63	5197.1	
896.8	5197.1	
896.96	5197.1	
897.13	5197.1	
897.29	5197.1	
897.46	5197.1	
897.62	5197.1	
897.79	5197.1	
897.95	5197.1	
898.12	5197.1	
898.28	5197.1	
898.45	5197.1	
898.61	5197.1	
898.78	5197.1	
898.94	5197.1	
899.11	5197.1	
899.27	5197.1	
899.44	5197.1	
899.6	5197.1	
899.77	5197.1	
899.93	5197.1	
900.1	5197.1	
900.26	5197.1	
900.43	5197.1	
900.59	5197.1	
900.76	5197.1	
900.92	5197.1	
901.09	5197.1	
901.25	5197.1	
901.42	5197.1	
901.58	5197.1	
901.75	5197.1	
901.91	5197.1	
902.07	5197.1	
902.24	5197.1	
902.4	5197.1	
902.57	5197.1	
902.73	5197.1	
902.9	5197.1	
903.06	5197.1	
903.23	5197.1	
903.39	5197.1	
903.56	5197.1	
903.72	5197.1	
903.88	5197.1	
904.05	5197.1	
904.21	5197.1	
904.38	5197.1	
904.54	5197.1	
904.71	5197.1	
904.87	5197.1	
905.03	5197.1	
905.2	5197.1	
905.36	5197.1	
905.53	5197.1	
905.69	5197.1	
905.86	5197.1	
906.02	5197.1	
906.18	5197.1	
906.35	5197.1	
906.51	5197.1	
906.68	5197.1	
906.84	5197.1	
907.01	5197.1	
907.17	5197.1	
907.33	5197.1	
907.5	5197.1	
907.66	5197.1	
907.83	5197.1	
907.99	5197.1	
908.15	5197.1	
908.32	5197.1	
908.48	5197.1	
908.65	5197.1	
908.81	5197.1	
908.97	5197.1	
909.14	5197.1	
909.3	5197.1	
909.47	5197.1	
909.63	5197.1	
909.79	5197.1	
909.96	5197.1	
910.12	5197.1	
910.28	5197.1	
910.45	5197.1	
910.61	5197.1	
910.78	5197.1	
910.94	5197.1	
911.1	5197.1	
911.27	5197.1	
911.43	5197.1	
911.59	5197.1	
911.76	5197.1	
911.92	5197.1	
912.08	5197.1	
912.25	5197.1	
912.41	5197.1	
912.57	5197.1	
912.74	5197.1	
912.9	5197.1	
913.07	5197.1	
913.23	5197.1	
913.39	5197.1	
913.56	5197.1	
913.72	5197.1	
913.88	5197.1	
914.05	5197.1	
914.21	5197.1	
914.37	5197.1	
914.54	5197.1	
914.7	5197.1	
914.86	5197.1	
915.03	5197.1	
915.19	5197.1	
