Wavelength	Intensities	
nm	a.u.	
179.22	1638.9	
179.44	1637.4	
179.65	1640.4	
179.86	1634.3	
180.08	1636.3	
180.29	3631	
180.51	2841.9	
180.72	4766.3	
180.94	5277.6	
181.15	2585.2	
181.37	2551.8	
181.58	4608.6	
181.79	4776.5	
182.01	2680.1	
182.22	2800.3	
182.44	4840.7	
182.65	4132.8	
182.87	3384.6	
183.08	3069.9	
183.29	5024.3	
183.51	4244.8	
183.72	2782.5	
183.94	3839.3	
184.15	4524.6	
184.37	4428.4	
184.58	2484.9	
184.79	3188	
185.01	4290.5	
185.22	4840.7	
185.44	3357.3	
185.65	2921.1	
185.86	4549.9	
186.08	4188.1	
186.29	2463.7	
186.51	2643.2	
186.72	4340.3	
186.94	4844.1	
187.15	2940.9	
187.36	3058.3	
187.58	6001.9	
187.79	4621.6	
188.01	3067.2	
188.22	4526	
188.43	5283.1	
188.65	4728.1	
188.86	2623.4	
189.08	3050.1	
189.29	4348.5	
189.5	4357.4	
189.72	2828.9	
189.93	2901.3	
190.15	4883	
190.36	5594.4	
190.57	3175	
190.79	2966.1	
191	4865.3	
191.22	4926.7	
191.43	3105.4	
191.64	2622.8	
191.86	5072.8	
192.07	4859.1	
192.29	2682.2	
192.5	2803.7	
192.71	4921.3	
192.93	4354	
193.14	2769.5	
193.35	2904.7	
193.57	4360.8	
193.78	4906.3	
194	2314.9	
194.21	2799.6	
194.42	4220.9	
194.64	4580.6	
194.85	2931.3	
195.07	3463.1	
195.28	4476.2	
195.49	4066.6	
195.71	3534.1	
195.92	2595.5	
196.13	4670.7	
196.35	4685.1	
196.56	3779.2	
196.78	3005.1	
196.99	5562.3	
197.2	5161.6	
197.42	3338.2	
197.63	3078.8	
197.84	4116.4	
198.06	4648.2	
198.27	2776.4	
198.48	3592.1	
198.7	4425	
198.91	4555.4	
199.13	3072	
199.34	3007.8	
199.55	4910.3	
199.77	3955.3	
199.98	2731.3	
200.19	3091.1	
200.41	4470.7	
200.62	4252.3	
200.83	3093.8	
201.05	3321.8	
201.26	4494.6	
201.47	4351.3	
201.69	2746.3	
201.9	2714.9	
202.11	4515.1	
202.33	5160.2	
202.54	2852.1	
202.76	3190.7	
202.97	4527.4	
203.18	4606.6	
203.4	3170.9	
203.61	3176.4	
203.82	4590.2	
204.04	4291.2	
204.25	3035.8	
204.46	3000.3	
204.68	4489.8	
204.89	4666	
205.1	2955.9	
205.32	2641.2	
205.53	4758.8	
205.74	4846.9	
205.96	2354.5	
206.17	3040.6	
206.38	4711.7	
206.6	4832.5	
206.81	3371	
207.02	2859.6	
207.24	4715.8	
207.45	4975.9	
207.66	2895.1	
207.88	2583.9	
208.09	4594.3	
208.3	4485.7	
208.52	2700.6	
208.73	2948.4	
208.94	4480.3	
209.15	4973.2	
209.37	2906.8	
209.58	3071.3	
209.79	4909	
210.01	4358.8	
210.22	2488.3	
210.43	2517.6	
210.65	4465.3	
210.86	4732.2	
211.07	2879.4	
211.29	2764.1	
211.5	4735.6	
211.71	4463.9	
211.93	2763.4	
212.14	2754.5	
212.35	4504.8	
212.56	4550.6	
212.78	3046	
212.99	2549.7	
213.2	5171.1	
213.42	4334.9	
213.63	2775	
213.84	2884.2	
214.06	4152.6	
214.27	4205.2	
214.48	2923.1	
214.69	3035.1	
214.91	4969.7	
215.12	4980	
215.33	3101.3	
215.55	3274	
215.76	5283.1	
215.97	4728.8	
216.18	2975	
216.4	2979.1	
216.61	4288.4	
216.82	4824.3	
217.04	2775	
217.25	2826.9	
217.46	4993.6	
217.67	4746.5	
217.89	2522.4	
218.1	2589.3	
218.31	4583.4	
218.53	4739	
218.74	2862.4	
218.95	2787.3	
219.16	4478.2	
219.38	5071.5	
219.59	2796.2	
219.8	3244	
220.01	5440.1	
220.23	4566.3	
220.44	3454.9	
220.65	2735.4	
220.87	4554.7	
221.08	4931.5	
221.29	2623.4	
221.5	3201	
221.72	5709.1	
221.93	4323.3	
222.14	3002.3	
222.35	3519.1	
222.57	4499.4	
222.78	4817.5	
222.99	2995.5	
223.2	3050.8	
223.42	4678.9	
223.63	4726.7	
223.84	2342.2	
224.05	2374.3	
224.27	5428.5	
224.48	5086.5	
224.69	3501.3	
224.9	3084.9	
225.12	4612.7	
225.33	4450.9	
225.54	2523.1	
225.75	2755.9	
225.97	4263.9	
226.18	4519.2	
226.39	2942.9	
226.6	2775.7	
226.82	4384.7	
227.03	4217.5	
227.24	2985.9	
227.45	2619.4	
227.67	4858.5	
227.88	5059.2	
228.09	3393.5	
228.3	3301.3	
228.52	4777.2	
228.73	4502.8	
228.94	2867.2	
229.15	2581.8	
229.36	4523.3	
229.58	4490.5	
229.79	2888.3	
230	3213.3	
230.21	5218.9	
230.43	4573.1	
230.64	3019.4	
230.85	3097.2	
231.06	4843.4	
231.28	4828.4	
231.49	2594.1	
231.7	3035.1	
231.91	4734.9	
232.12	4538.3	
232.34	2642.6	
232.55	2941.6	
232.76	4918.5	
232.97	4572.4	
233.18	2708.8	
233.4	3051.5	
233.61	4589.5	
233.82	4383.3	
234.03	2852.1	
234.25	2806.4	
234.46	5865.4	
234.67	4530.1	
234.88	3099.3	
235.09	2765.4	
235.31	4635.9	
235.52	4458.4	
235.73	2998.9	
235.94	2618	
236.15	4332.8	
236.37	5208.7	
236.58	2770.9	
236.79	2936.8	
237	4688.5	
237.21	4123.2	
237.43	3117.7	
237.64	2566.8	
237.85	7034.8	
238.06	4220.2	
238.27	3093.1	
238.48	2654.2	
238.7	4756.1	
238.91	4442.7	
239.12	2873.3	
239.33	3007.8	
239.54	4407.2	
239.76	4475.5	
239.97	2932	
240.18	2895.1	
240.39	5297.4	
240.6	4644.1	
240.82	3118.4	
241.03	2552.5	
241.24	4481.6	
241.45	5048.9	
241.66	2697.9	
241.87	3183.9	
242.09	5066.7	
242.3	5179.3	
242.51	3184.6	
242.72	2941.6	
242.93	4801.8	
243.14	4417.5	
243.36	3353.9	
243.57	3511.6	
243.78	5023	
243.99	4773.8	
244.2	2901.3	
244.41	2663	
244.63	4145.8	
244.84	4644.1	
245.05	3056.9	
245.26	2932	
245.47	4797	
245.68	4843.4	
245.9	3725.3	
246.11	3098.6	
246.32	4330.8	
246.53	4649.6	
246.74	4537.6	
246.95	2536.8	
247.16	4227.7	
247.38	4516.5	
247.59	2539.5	
247.8	2944.3	
248.01	4272.7	
248.22	4459.1	
248.43	2742.2	
248.64	2893.1	
248.86	4125.3	
249.07	4411.3	
249.28	2702	
249.49	3029.6	
249.7	4875.5	
249.91	4884.4	
250.12	2575	
250.34	2605	
250.55	4605.9	
250.76	4545.8	
250.97	3054.9	
251.18	3039.2	
251.39	4857.8	
251.6	4626.4	
251.81	3097.2	
252.03	3074.7	
252.24	4345.1	
252.45	4769.7	
252.66	2593.4	
252.87	3161.4	
253.08	4455	
253.29	5644.9	
253.5	2665.8	
253.72	3459.7	
253.93	4441.4	
254.14	5186.1	
254.35	2788.7	
254.56	2877.4	
254.77	4601.1	
254.98	4216.8	
255.19	2813.9	
255.41	3407.8	
255.62	4676.2	
255.83	4896.7	
256.04	3182.5	
256.25	2998.2	
256.46	5251	
256.67	4311.7	
256.88	2994.1	
257.09	3308.2	
257.31	4227.7	
257.52	4268.6	
257.73	3645.4	
257.94	2835.8	
258.15	4458.4	
258.36	4459.8	
258.57	3414	
258.78	2347.7	
258.99	4816.1	
259.2	4369.7	
259.41	2792.1	
259.63	2896.5	
259.84	5070.1	
260.05	5280.3	
260.26	3523.2	
260.47	2784.6	
260.68	4835.3	
260.89	4461.2	
261.1	3274	
261.31	2758.6	
261.52	4984.8	
261.73	5068	
261.95	3515.7	
262.16	3121.8	
262.37	4954	
262.58	5020.3	
262.79	3553.9	
263	2834.4	
263.21	4609.3	
263.42	4062.5	
263.63	3071.3	
263.84	2831.7	
264.05	4829.1	
264.26	5042.8	
264.47	3401	
264.69	3068.5	
264.9	5031.2	
265.11	4616.1	
265.32	2723.1	
265.53	2801.6	
265.74	4578.6	
265.95	4131.4	
266.16	2914.9	
266.37	3201.7	
266.58	4661.9	
266.79	4353.3	
267	2837.8	
267.21	2645.3	
267.42	4214.7	
267.63	4536.3	
267.84	2935.4	
268.06	2580.4	
268.27	4855.7	
268.48	4902.8	
268.69	2883.5	
268.9	3347.1	
269.11	4978.6	
269.32	4147.8	
269.53	2893.8	
269.74	2763.4	
269.95	4652.3	
270.16	4125.3	
270.37	3001	
270.58	3314.3	
270.79	4430.4	
271	4857.1	
271.21	3064.4	
271.42	3012.6	
271.63	4710.3	
271.84	4203.1	
272.05	2450.1	
272.26	2682.2	
272.47	4504.2	
272.68	4625.7	
272.89	2856.9	
273.11	3143.6	
273.32	4363.5	
273.53	5044.1	
273.74	3123.2	
273.95	2994.1	
274.16	4762.2	
274.37	4553.3	
274.58	3306.1	
274.79	2658.9	
275	4655.7	
275.21	4875.5	
275.42	3722.5	
275.63	3242.6	
275.84	4724.7	
276.05	5597.8	
276.26	3020.1	
276.47	2886.3	
276.68	4483	
276.89	5189.6	
277.1	3277.4	
277.31	2659.6	
277.52	4586.1	
277.73	4902.8	
277.94	2573.6	
278.15	2844.6	
278.36	4690.5	
278.57	4274.8	
278.78	2864.4	
278.99	3122.5	
279.2	4340.3	
279.41	4246.1	
279.62	3594.2	
279.83	2658.9	
280.04	5326.1	
280.25	4237.2	
280.46	3603.1	
280.67	2971.6	
280.88	4319.8	
281.09	4929.5	
281.3	2995.5	
281.51	3683.6	
281.72	4286.4	
281.93	4778.6	
282.14	2818	
282.35	3010.5	
282.56	4895.3	
282.77	4773.8	
282.98	2850.1	
283.19	3392.1	
283.4	5668.1	
283.61	4461.8	
283.82	2702.6	
284.03	3497.9	
284.24	4653.7	
284.45	4842.1	
284.66	3598.3	
284.87	3330	
285.08	4876.9	
285.29	4963.6	
285.5	2604.3	
285.71	2860.3	
285.92	4884.4	
286.12	5262.6	
286.33	3484.3	
286.54	2923.8	
286.75	4775.9	
286.96	4466.6	
287.17	2729.9	
287.38	3407.1	
287.59	4357.4	
287.8	4307.6	
288.01	2842.6	
288.22	3179.1	
288.43	4730.8	
288.64	4144.4	
288.85	3377.8	
289.06	3202.3	
289.27	4853.7	
289.48	5042.8	
289.69	3530.7	
289.9	3234.4	
290.11	4995	
290.32	4323.3	
290.53	3339.6	
290.74	3061.7	
290.94	4798.4	
291.15	4900.1	
291.36	2803	
291.57	3230.3	
291.78	4437.9	
291.99	4069.3	
292.2	2728.6	
292.41	3153.9	
292.62	4877.6	
292.83	4681	
293.04	3775.1	
293.25	2717	
293.46	4433.9	
293.67	4852.3	
293.88	2777.7	
294.09	2702.6	
294.29	4274.1	
294.5	4570.4	
294.71	2988	
294.92	2844.6	
295.13	4418.2	
295.34	5271.5	
295.55	2549.7	
295.76	2473.3	
295.97	4846.2	
296.18	5177.3	
296.39	2676.7	
296.6	2758.6	
296.81	4536.9	
297.01	4806.6	
297.22	2882.2	
297.43	2776.4	
297.64	4394.3	
297.85	4274.8	
298.06	2440.5	
298.27	2545.6	
298.48	4451.6	
298.69	4306.2	
298.9	2973.7	
299.11	2727.9	
299.31	4240.7	
299.52	4230.4	
299.73	3187.3	
299.94	3106.8	
300.15	4555.4	
300.36	4350.6	
300.57	3157.3	
300.78	3024.2	
300.99	4409.3	
301.2	4548.5	
301.4	2813.2	
301.61	2972.3	
301.82	4743.8	
302.03	4780.6	
302.24	3259.7	
302.45	2622.8	
302.66	4669.4	
302.87	4906.3	
303.08	2805	
303.29	3607.8	
303.49	4457.7	
303.7	4482.3	
303.91	2547.7	
304.12	3416	
304.33	4147.8	
304.54	4663.9	
304.75	2836.4	
304.96	2729.3	
305.16	4727.4	
305.37	5149.3	
305.58	2556.5	
305.79	2542.9	
306	4759.5	
306.21	4058.4	
306.42	2755.9	
306.63	3938.9	
306.83	4424.3	
307.04	4803.9	
307.25	3029.6	
307.46	3016.7	
307.67	4040	
307.88	4772.4	
308.09	2804.4	
308.29	2847.4	
308.5	4575.8	
308.71	4856.4	
308.92	2985.9	
309.13	2695.1	
309.34	4483	
309.55	4422.2	
309.75	3383.9	
309.96	3119.1	
310.17	4817.5	
310.38	4302.8	
310.59	3213.3	
310.8	2669.2	
311.01	4422.2	
311.21	4494.6	
311.42	2698.5	
311.63	2734.7	
311.84	4340.3	
312.05	4525.3	
312.26	3067.9	
312.46	3297.9	
312.67	4392.9	
312.88	4147.8	
313.09	2698.5	
313.3	2644.6	
313.51	4999.1	
313.71	5259.9	
313.92	2706.7	
314.13	2811.2	
314.34	4633.2	
314.55	4481.6	
314.76	3333.4	
314.96	2967.5	
315.17	4653	
315.38	4762.9	
315.59	2747	
315.8	2606.4	
316.01	4956.8	
316.21	5099.4	
316.42	2691	
316.63	2969.6	
316.84	4391.5	
317.05	4866.7	
317.26	3166.8	
317.46	2813.2	
317.67	4478.9	
317.88	4738.3	
318.09	3340.2	
318.3	2577	
318.5	4389.5	
318.71	4683.7	
318.92	4067.9	
319.13	3111.5	
319.34	4889.2	
319.54	4977.9	
319.75	2556.5	
319.96	2443.9	
320.17	4691.2	
320.38	4869.4	
320.58	2539.5	
320.79	2919	
321	4920.6	
321.21	5003.2	
321.42	2992.1	
321.62	2537.4	
321.83	4326	
322.04	4547.2	
322.25	2926.5	
322.46	2751.8	
322.66	4620.2	
322.87	4758.8	
323.08	3244	
323.29	2692.4	
323.5	5241.4	
323.7	4201.1	
323.91	3487.7	
324.12	3186.6	
324.33	4589.5	
324.53	4736.3	
324.74	3089	
324.95	3235.1	
325.16	4229.7	
325.37	4405.2	
325.57	2656.9	
325.78	2769.5	
325.99	4657.8	
326.2	4201.1	
326.4	3693.2	
326.61	2579.8	
326.82	4474.1	
327.03	4627	
327.24	3667.2	
327.44	3410.6	
327.65	4756.7	
327.86	3949.8	
328.07	3091.8	
328.27	2684.2	
328.48	4987.5	
328.69	4192.2	
328.9	3702.7	
329.1	2805	
329.31	4493.2	
329.52	5048.2	
329.73	2765.4	
329.93	2991.4	
330.14	4550.6	
330.35	4644.1	
330.56	4166.3	
330.76	3252.2	
330.97	4392.2	
331.18	4543.8	
331.39	3046	
331.59	2442.5	
331.8	4912.4	
332.01	5016.2	
332.22	2787.3	
332.42	3108.8	
332.63	4633.2	
332.84	4258.4	
333.05	3009.1	
333.25	2772.3	
333.46	4288.4	
333.67	4457.1	
333.88	2854.9	
334.08	2985.9	
334.29	5744.6	
334.5	4931.5	
334.7	2646	
334.91	3692.5	
335.12	4200.4	
335.33	4767	
335.53	2953.9	
335.74	4093.2	
335.95	4444.8	
336.16	4128	
336.36	2954.5	
336.57	3336.1	
336.78	4159.4	
336.98	4892.6	
337.19	3532.1	
337.4	2886.3	
337.61	5262.6	
337.81	4185.4	
338.02	2797.5	
338.23	3403	
338.43	5038	
338.64	4280.9	
338.85	2739.5	
339.05	3439.9	
339.26	5078.3	
339.47	4133.5	
339.68	2718.3	
339.88	3753.9	
340.09	4674.1	
340.3	4898.1	
340.5	3095.2	
340.71	2531.3	
340.92	4258.4	
341.13	4954	
341.33	2600.9	
341.54	3124.5	
341.75	4620.2	
341.95	4387.4	
342.16	3003	
342.37	3235.1	
342.57	4190.8	
342.78	4405.2	
342.99	3198.2	
343.19	2527.2	
343.4	4802.5	
343.61	4654.4	
343.81	2885.6	
344.02	2626.2	
344.23	4736.3	
344.43	4956.8	
344.64	3289.7	
344.85	3233.7	
345.06	4721.9	
345.26	4901.5	
345.47	3122.5	
345.68	3516.4	
345.88	4122.6	
346.09	4817.5	
346.3	3066.5	
346.5	2439.1	
346.71	4423.6	
346.92	4306.9	
347.12	2587.9	
347.33	3031.7	
347.54	4840.7	
347.74	5104.2	
347.95	3041.9	
348.16	2412.5	
348.36	4430.4	
348.57	4222.9	
348.78	3118.4	
348.98	3241.3	
349.19	4446.1	
349.39	4070.7	
349.6	2580.4	
349.81	2800.3	
350.01	4743.8	
350.22	4268	
350.43	3034.4	
350.63	3441.3	
350.84	4497.3	
351.05	4313.7	
351.25	2772.3	
351.46	2565.4	
351.67	4783.4	
351.87	4250.2	
352.08	2876.7	
352.29	3201.7	
352.49	4786.1	
352.7	4571.1	
352.9	2632.3	
353.11	3209.2	
353.32	5216.2	
353.52	4356	
353.73	2679.4	
353.94	3245.3	
354.14	4729.4	
354.35	4500.8	
354.55	2783.9	
354.76	2957.3	
354.97	4595.6	
355.17	4465.3	
355.38	2646	
355.59	3362.8	
355.79	4319.2	
356	4420.9	
356.2	2934.1	
356.41	2682.2	
356.62	4156	
356.82	4462.5	
357.03	3138.2	
357.24	2893.8	
357.44	4298	
357.65	4338.3	
357.85	3616.7	
358.06	2982.5	
358.27	4061.8	
358.47	4237.9	
358.68	2563.4	
358.88	3169.6	
359.09	4661.2	
359.3	4797.7	
359.5	3566.9	
359.71	3225.6	
359.91	5028.4	
360.12	4655.7	
360.33	3184.6	
360.53	3455.6	
360.74	4300.1	
360.94	4367.6	
361.15	3293.8	
361.36	2779.8	
361.56	4816.1	
361.77	4518.5	
361.97	3563.5	
362.18	2914.3	
362.38	4827.1	
362.59	4217.5	
362.8	2751.1	
363	2696.5	
363.21	4062.5	
363.41	4501.4	
363.62	3067.9	
363.83	3657	
364.03	4694.6	
364.24	5171.1	
364.44	3893.9	
364.65	3822.9	
364.85	4416.1	
365.06	4236.6	
365.27	2903.3	
365.47	2932	
365.68	5067.4	
365.88	4481.6	
366.09	3138.2	
366.29	2871.3	
366.5	4562.9	
366.71	4758.8	
366.91	3765.5	
367.12	3217.4	
367.32	5271.5	
367.53	4714.4	
367.73	3252.2	
367.94	3898	
368.14	4791.6	
368.35	5221	
368.56	3151.1	
368.76	3054.2	
368.97	4871.4	
369.17	5795.1	
369.38	2878.1	
369.58	3058.3	
369.79	4143.7	
369.99	5044.8	
370.2	3710.2	
370.4	3073.3	
370.61	4570.4	
370.82	5409.4	
371.02	3110.2	
371.23	2620.7	
371.43	4166.3	
371.64	5095.3	
371.84	3095.2	
372.05	3780.6	
372.25	5727.5	
372.46	4701.5	
372.66	3061	
372.87	3090.4	
373.07	4831.8	
373.28	5884.5	
373.48	3696.6	
373.69	3520.5	
373.9	4536.3	
374.1	4539.7	
374.31	3699.3	
374.51	3371.6	
374.72	4991.6	
374.92	4364.9	
375.13	3775.1	
375.33	3290.4	
375.54	4724.7	
375.74	4443.4	
375.95	3399.6	
376.15	4106.2	
376.36	4849.6	
376.56	4741	
376.77	3358.7	
376.97	3607.8	
377.18	5571.8	
377.38	4886.5	
377.59	3824.9	
377.79	3065.1	
378	4737	
378.2	4948.6	
378.41	3130.7	
378.61	3001.6	
378.82	5055.1	
379.02	4524	
379.23	3171.6	
379.43	3891.8	
379.64	5152.7	
379.84	4877.6	
380.05	3101.3	
380.25	3071.3	
380.46	4911	
380.66	4627.7	
380.87	3955.3	
381.07	4140.3	
381.28	5350.7	
381.48	4822.3	
381.69	3093.1	
381.89	3143.6	
382.1	4255.7	
382.3	4941.7	
382.51	3821.5	
382.71	4361.5	
382.91	4891.9	
383.12	5171.1	
383.32	3302.7	
383.53	3451.5	
383.73	4777.2	
383.94	4726.7	
384.14	3444	
384.35	2877.4	
384.55	4619.5	
384.76	4848.9	
384.96	3340.9	
385.17	3493.2	
385.37	4954	
385.58	4372.4	
385.78	3547.1	
385.98	2843.3	
386.19	4587.4	
386.39	4757.4	
386.6	3162.1	
386.8	3337.5	
387.01	4881	
387.21	4906.3	
387.42	3592.8	
387.62	3941.7	
387.83	4541	
388.03	4730.8	
388.23	3427.6	
388.44	3872	
388.64	4326	
388.85	4291.9	
389.05	3556	
389.26	3942.3	
389.46	5687.9	
389.67	5174.5	
389.87	3585.3	
390.07	3586.7	
390.28	4592.9	
390.48	4386.1	
390.69	3109.5	
390.89	3259	
391.1	4583.4	
391.3	5107.6	
391.5	4044.1	
391.71	4429.1	
391.91	4984.8	
392.12	5463.3	
392.32	4113.7	
392.53	3600.3	
392.73	4625.7	
392.93	4689.8	
393.14	3416	
393.34	4034.5	
393.55	5041.4	
393.75	4588.8	
393.95	3365.5	
394.16	3255.6	
394.36	4610	
394.57	5006.6	
394.77	3121.1	
394.98	3326.6	
395.18	4512.4	
395.38	4670.7	
395.59	3893.2	
395.79	3246.7	
396	4684.4	
396.2	5018.9	
396.4	3762.1	
396.61	3741	
396.81	4971.8	
397.02	4562.9	
397.22	3905.5	
397.42	3964.9	
397.63	5163.6	
397.83	4560.1	
398.04	3249.4	
398.24	3559.4	
398.44	4898.1	
398.65	4296.6	
398.85	3115.6	
399.05	3194.8	
399.26	4634.6	
399.46	5708.4	
399.67	3500	
399.87	3352.5	
400.07	4841.4	
400.28	5030.5	
400.48	3351.2	
400.69	4020.2	
400.89	5139.7	
401.09	5510.4	
401.3	3388	
401.5	4023.6	
401.7	5566.4	
401.91	5758.9	
402.11	3615.3	
402.32	3632.4	
402.52	5189.6	
402.72	5109	
402.93	3779.2	
403.13	3024.8	
403.33	5718.6	
403.54	4816.1	
403.74	3560.1	
403.94	4198.3	
404.15	4866.7	
404.35	5646.2	
404.56	3479.5	
404.76	4612	
404.96	5236.7	
405.17	5084.4	
405.37	3981.3	
405.57	3792.2	
405.78	5188.2	
405.98	4838	
406.18	3452.9	
406.39	3948.5	
406.59	5143.8	
406.79	4816.8	
407	3342.3	
407.2	3396.2	
407.4	5496.7	
407.61	5371.8	
407.81	3500	
408.01	4764.3	
408.22	4532.8	
408.42	5791	
408.62	4141	
408.83	3812	
409.03	4986.1	
409.23	4936.3	
409.44	3854.3	
409.64	3972.4	
409.84	5610.8	
410.05	5580	
410.25	3987.4	
410.45	3853.6	
410.66	5300.1	
410.86	6852.5	
411.06	4184.7	
411.27	4085.7	
411.47	6723.5	
411.67	5394.3	
411.88	4280.9	
412.08	4391.5	
412.28	5825.1	
412.49	6108.4	
412.69	4089.1	
412.89	4126	
413.09	6025.1	
413.3	5973.9	
413.5	4244.1	
413.7	3984.7	
413.91	5490.6	
414.11	5948.7	
414.31	4093.2	
414.52	4381.3	
414.72	5816.2	
414.92	5734.3	
415.12	4074.8	
415.33	4484.4	
415.53	5982.8	
415.73	6086.6	
415.94	4612.7	
416.14	4248.2	
416.34	5447.6	
416.55	5213.4	
416.75	5046.2	
416.95	4745.1	
417.15	6148.7	
417.36	6475.7	
417.56	5272.8	
417.76	4586.8	
417.97	6225.8	
418.17	6081.8	
418.37	4436.6	
418.57	4402.5	
418.78	6035.4	
418.98	5798.5	
419.18	4916.5	
419.38	4956.1	
419.59	5759.6	
419.79	5502.2	
419.99	4302.8	
420.2	4468	
420.4	6150.7	
420.6	6190.3	
420.8	4300.1	
421.01	4138.9	
421.21	6090.7	
421.41	6040.1	
421.61	4433.2	
421.82	4306.2	
422.02	5769.8	
422.22	6257.2	
422.42	4776.5	
422.63	4500.1	
422.83	5732.3	
423.03	6578.1	
423.23	4666	
423.44	3929.4	
423.64	5732.3	
423.84	5525.4	
424.04	4279.6	
424.25	4012	
424.45	6292	
424.65	6320.7	
424.85	3960.8	
425.06	4250.9	
425.26	6467.5	
425.46	5697.4	
425.66	4519.9	
425.87	4366.3	
426.07	6184.2	
426.27	6048.3	
426.47	4467.3	
426.67	3988.8	
426.88	6462	
427.08	6045.6	
427.28	4647.5	
427.48	3972.4	
427.69	5421.7	
427.89	5792.3	
428.09	4539.7	
428.29	4004.5	
428.5	6126.2	
428.7	5948.7	
428.9	4031.1	
429.1	4291.2	
429.3	5905.7	
429.51	6051.1	
429.71	4222.9	
429.91	4744.5	
430.11	6192.4	
430.31	6383.5	
430.52	4404.5	
430.72	4596.3	
430.92	6402	
431.12	6055.8	
431.32	4134.2	
431.53	4541.7	
431.73	5426.4	
431.93	6462	
432.13	4158.1	
432.33	4043.4	
432.54	5836.7	
432.74	5922	
432.94	4057.7	
433.14	4743.8	
433.34	6236.7	
433.55	5813.5	
433.75	4631.8	
433.95	5874.9	
434.15	6033.3	
434.35	5708.4	
434.56	4207.2	
434.76	3945.8	
434.96	5950	
435.16	6110.5	
435.36	4104.1	
435.56	4890.5	
435.77	5763	
435.97	5913.2	
436.17	5316.5	
436.37	4812.7	
436.57	5748	
436.78	5683.8	
436.98	4765.6	
437.18	5205.3	
437.38	6193.7	
437.58	5857.9	
437.78	5326.1	
437.99	4405.2	
438.19	6151.4	
438.39	6658.6	
438.59	4410	
438.79	4001	
438.99	6629.3	
439.2	5779.4	
439.4	4087.7	
439.6	4111.6	
439.8	5983.5	
440	6724.2	
440.2	4829.8	
440.4	4849.6	
440.61	6370.5	
440.81	6617.7	
441.01	4305.5	
441.21	4812	
441.41	6610.8	
441.61	6369.9	
441.81	5100.8	
442.02	5664	
442.22	6898.9	
442.42	6460	
442.62	4401.1	
442.82	4444.8	
443.02	6739.2	
443.22	6131.6	
443.43	4780.6	
443.63	4374.5	
443.83	5966.4	
444.03	5926.8	
444.23	5162.9	
444.43	4894.6	
444.63	6306.4	
444.83	7071.6	
445.04	4564.2	
445.24	5348.6	
445.44	6476.4	
445.64	6468.9	
445.84	5011.4	
446.04	5023.7	
446.24	5987.6	
446.44	6684.6	
446.65	4459.8	
446.85	4718.5	
447.05	6056.5	
447.25	6608.1	
447.45	4756.7	
447.65	4338.3	
447.85	6351.4	
448.05	5917.3	
448.25	4960.2	
448.46	4867.3	
448.66	6257.2	
448.86	6022.4	
449.06	4326.7	
449.26	5016.2	
449.46	6482.5	
449.66	5866.7	
449.86	4732.2	
450.06	4630.5	
450.26	5983.5	
450.47	6395.1	
450.67	4918.5	
450.87	5100.1	
451.07	6614.3	
451.27	6262	
451.47	4493.2	
451.67	5040.1	
451.87	6163	
452.07	6775.4	
452.27	4630.5	
452.47	4587.4	
452.67	6305	
452.88	6528.2	
453.08	4305.5	
453.28	5507.7	
453.48	7109.2	
453.68	6201.2	
453.88	4609.3	
454.08	4685.1	
454.28	6617	
454.48	6326.9	
454.68	5031.9	
454.88	5349.3	
455.08	6675.7	
455.28	6384.2	
455.48	4550.6	
455.68	4885.1	
455.89	7031.4	
456.09	6655.9	
456.29	4698.7	
456.49	4825.7	
456.69	6887.3	
456.89	6324.1	
457.09	5081	
457.29	5373.9	
457.49	6604.7	
457.69	6642.9	
457.89	5103.5	
458.09	4612	
458.29	6552.8	
458.49	6995.2	
458.69	5343.8	
458.89	4931.5	
459.09	7148.1	
459.29	7240.9	
459.49	5066	
459.69	5521.3	
459.9	6895.5	
460.1	6556.2	
460.3	4950.6	
460.5	4826.4	
460.7	6849.8	
460.9	6598.6	
461.1	4624.3	
461.3	5456.5	
461.5	7320.8	
461.7	7032	
461.9	5057.1	
462.1	5076.2	
462.3	6731.7	
462.5	7106.5	
462.7	5072.1	
462.9	4999.8	
463.1	7787.1	
463.3	7483.3	
463.5	5253.7	
463.7	5785.5	
463.9	7031.4	
464.1	7191.8	
464.3	5379.3	
464.5	5485.8	
464.7	7388.4	
464.9	7094.2	
465.1	6315.9	
465.3	5679	
465.5	7507.2	
465.7	7592.5	
465.9	5961	
466.1	5733.6	
466.3	7450.5	
466.5	7376.1	
466.7	6460.7	
466.9	5712.5	
467.1	7489.4	
467.3	7935.2	
467.5	6386.2	
467.7	5696.8	
467.9	8103.1	
468.1	8652.7	
468.3	6049	
468.5	6519.4	
468.7	7431.4	
468.9	7307.8	
469.1	5943.2	
469.3	6322.1	
469.5	8668.4	
469.7	7187	
469.9	6126.8	
470.1	5827.2	
470.3	7541.3	
470.5	7445	
470.7	6536.4	
470.9	5821	
471.1	7314.7	
471.3	7576.1	
471.5	5694.7	
471.69	6901	
471.89	7316.7	
472.09	6853.2	
472.29	6157.6	
472.49	6356.2	
472.69	7068.2	
472.89	7490.8	
473.09	5627.1	
473.29	5724.8	
473.49	7181.5	
473.69	7137.2	
473.89	6210.8	
474.09	5762.3	
474.29	8086.7	
474.49	7749.5	
474.69	6162.3	
474.89	5911.1	
475.09	7225.9	
475.29	7148.1	
475.49	5429.8	
475.69	5682.4	
475.88	8196	
476.08	7508.5	
476.28	5450.3	
476.48	5650.3	
476.68	7735.2	
476.88	7582.9	
477.08	5682.4	
477.28	5792.3	
477.48	7287.4	
477.68	7591.8	
477.88	5450.3	
478.08	5683.1	
478.28	7907.2	
478.48	7296.9	
478.67	5777.3	
478.87	5264	
479.07	7806.2	
479.27	7339.2	
479.47	5849.7	
479.67	5915.9	
479.87	7629.4	
480.07	7915.4	
480.27	5431.2	
480.47	6419	
480.67	7382.2	
480.87	7875.8	
481.06	5627.8	
481.26	6317.3	
481.46	7432.1	
481.66	7363.8	
481.86	5964.4	
482.06	6509.1	
482.26	7212.9	
482.46	7906.5	
482.66	5849	
482.86	5589.6	
483.05	7592.5	
483.25	7085.3	
483.45	7453.9	
483.65	5905	
483.85	7146	
484.05	7352.9	
484.25	6191.7	
484.45	6441.5	
484.65	7920.9	
484.84	7955.7	
485.04	5887.2	
485.24	5916.6	
485.44	8370	
485.64	7115.3	
485.84	5500.2	
486.04	6345.3	
486.24	7370.6	
486.44	7546.1	
486.63	5461.2	
486.83	6042.2	
487.03	7356.3	
487.23	7397.3	
487.43	5612.1	
487.63	7056.6	
487.83	7514	
488.02	7937.9	
488.22	6186.9	
488.42	6576.7	
488.62	8119.5	
488.82	7365.2	
489.02	5953.4	
489.22	5994.4	
489.41	7976.8	
489.61	7873.8	
489.81	5820.3	
490.01	5844.2	
490.21	8038.3	
490.41	8443.1	
490.61	5953.4	
490.8	5829.9	
491	7655.3	
491.2	7228	
491.4	6255.2	
491.6	5766.4	
491.8	7729	
491.99	7675.1	
492.19	5657.9	
492.39	5864	
492.59	7922.9	
492.79	8050.6	
492.99	6399.9	
493.18	5816.9	
493.38	8191.2	
493.58	8535.9	
493.78	6336.4	
493.98	6008.1	
494.18	7892.9	
494.37	7551.5	
494.57	6490	
494.77	6404	
494.97	8193.9	
495.17	8301.1	
495.37	6199.9	
495.56	6427.2	
495.76	8425.3	
495.96	8265.6	
496.16	7133.1	
496.36	6427.9	
496.55	8477.2	
496.75	8008.2	
496.95	6656.6	
497.15	6596.5	
497.35	8415.8	
497.54	8371.4	
497.74	6466.8	
497.94	7683.3	
498.14	8881.4	
498.34	8684.1	
498.53	6303	
498.73	6780.8	
498.93	7993.2	
499.13	8277.9	
499.33	6730.3	
499.52	6983.6	
499.72	8497.7	
499.92	8570.1	
500.12	6484.6	
500.32	6714.6	
500.51	8538	
500.71	8417.2	
500.91	7148.1	
501.11	7021.8	
501.31	8639	
501.5	8933.2	
501.7	7399.3	
501.9	6819.7	
502.1	8447.9	
502.29	8727.8	
502.49	7060.7	
502.69	7287.4	
502.89	8574.8	
503.09	8580.3	
503.28	6314.6	
503.48	6491.4	
503.68	8163.2	
503.88	8094.3	
504.07	7077.8	
504.27	6673.6	
504.47	8301.8	
504.67	8355.7	
504.86	7038.9	
505.06	6736.5	
505.26	8198.7	
505.46	9165.3	
505.65	6677.1	
505.85	6911.2	
506.05	8087.4	
506.25	8420.6	
506.44	6358.3	
506.64	6789.7	
506.84	7955.7	
507.04	8510	
507.23	6434	
507.43	6694.1	
507.63	9199.5	
507.83	8048.5	
508.02	6707.8	
508.22	6549.4	
508.42	9398.8	
508.62	7908.6	
508.81	6528.2	
509.01	6964.5	
509.21	7836.9	
509.4	8117.5	
509.6	6752.2	
509.8	6404	
510	7976.8	
510.19	8837	
510.39	6294.8	
510.59	6381.5	
510.79	7904.5	
510.98	8783.7	
511.18	6563.1	
511.38	6520	
511.57	8545.5	
511.77	8310	
511.97	6954.9	
512.17	6361	
512.36	8570.7	
512.56	8361.2	
512.76	6382.2	
512.95	6184.9	
513.15	8575.5	
513.35	7675.1	
513.55	6913.3	
513.74	6369.2	
513.94	8518.2	
514.14	8066.9	
514.33	6955.6	
514.53	6742.6	
514.73	8109.3	
514.92	8137.3	
515.12	6458.6	
515.32	6361	
515.51	8346.2	
515.71	8480	
515.91	7516.7	
516.11	6427.2	
516.3	9321.7	
516.5	7997.3	
516.7	6776.7	
516.89	7107.1	
517.09	8090.2	
517.29	8074.5	
517.48	7154.2	
517.68	6601.3	
517.88	7872.4	
518.07	8325	
518.27	6923.5	
518.47	6227.9	
518.66	8689.5	
518.86	7825.3	
519.06	6210.8	
519.25	6404	
519.45	8021.9	
519.65	8910	
519.84	6888	
520.04	7318.1	
520.24	9249.3	
520.43	8381	
520.63	6651.8	
520.83	6606.7	
521.02	7884	
521.22	8322.3	
521.42	6804.7	
521.61	7133.1	
521.81	8071	
522.01	8159.8	
522.2	6716	
522.4	6553.5	
522.6	8476.5	
522.79	7598	
522.99	6652.5	
523.18	6159.6	
523.38	8353.7	
523.58	8268.3	
523.77	7433.4	
523.97	6257.9	
524.17	9463	
524.36	9095.7	
524.56	7159	
524.76	6892.1	
524.95	8457.4	
525.15	8156.4	
525.34	6779.5	
525.54	6907.1	
525.74	8647.9	
525.93	8049.2	
526.13	7675.8	
526.33	6890	
526.52	8959.2	
526.72	8645.8	
526.91	7695.6	
527.11	7188.4	
527.31	8949.6	
527.5	9198.1	
527.7	7261.4	
527.89	6590.4	
528.09	8427.4	
528.29	8643.8	
528.48	7463.5	
528.68	7133.1	
528.87	8940.1	
529.07	8912.1	
529.27	7228	
529.46	6926.9	
529.66	8779	
529.85	8979	
530.05	6753.5	
530.25	7299	
530.44	9629.5	
530.64	8648.6	
530.83	7043	
531.03	7204.8	
531.23	9101.9	
531.42	8895	
531.62	7602.1	
531.81	7182.2	
532.01	9195.4	
532.21	9335.3	
532.4	7102.4	
532.6	7277.1	
532.79	9649.3	
532.99	9089.6	
533.18	7498.3	
533.38	8026.7	
533.58	8887.5	
533.77	9268.4	
533.97	7356.3	
534.16	7907.9	
534.36	9546.3	
534.55	9035.6	
534.75	8011.7	
534.95	7382.9	
535.14	9570.2	
535.34	8913.4	
535.53	7215	
535.73	8450.6	
535.92	9920.4	
536.12	8956.4	
536.31	7327.6	
536.51	8121.6	
536.71	9331.9	
536.9	8984.4	
537.1	7294.2	
537.29	7517.4	
537.49	9595.4	
537.68	8929.1	
537.88	7748.8	
538.07	7201.3	
538.27	9157.8	
538.46	9725.8	
538.66	7185.6	
538.86	7359	
539.05	9111.4	
539.25	9332.6	
539.44	7662.8	
539.64	7413.6	
539.83	9030.9	
540.03	9617.9	
540.22	7326.9	
540.42	7357	
540.61	9258.9	
540.81	9309.4	
541	7660.1	
541.2	7971.4	
541.39	8951.7	
541.59	9104.6	
541.78	7944.8	
541.98	7343.3	
542.18	8697	
542.37	8681.3	
542.57	7516	
542.76	7983	
542.96	8768.7	
543.15	9075.2	
543.35	7607.5	
543.54	7183.6	
543.74	9146.2	
543.93	9035	
544.13	7469.6	
544.32	8158.4	
544.52	9269.1	
544.71	8691.6	
544.91	6894.8	
545.1	7626.6	
545.3	8804.9	
545.49	9033.6	
545.69	6889.4	
545.88	7240.3	
546.08	9721.7	
546.27	9408.4	
546.47	7587	
546.66	7058	
546.86	9220.6	
547.05	9476.6	
547.24	7262.1	
547.44	7195.2	
547.63	8600.8	
547.83	9256.8	
548.02	7351.5	
548.22	7519.5	
548.41	8477.9	
548.61	9341.5	
548.8	7027.9	
549	7092.1	
549.19	8867.7	
549.39	9135.3	
549.58	6811.5	
549.78	7215.7	
549.97	9128.5	
550.17	8665.6	
550.36	7746.1	
550.55	8381.7	
550.75	8703.2	
550.94	9299.1	
551.14	7052.5	
551.33	7191.8	
551.53	8226	
551.72	8927.1	
551.92	7285.3	
552.11	7056.6	
552.31	9032.2	
552.5	8875.2	
552.69	8135.9	
552.89	6870.3	
553.08	8895	
553.28	8665.6	
553.47	6973.3	
553.67	7720.8	
553.86	9323	
554.06	8165.9	
554.25	6550.8	
554.44	6940.6	
554.64	9733.3	
554.83	9487.6	
555.03	6859.3	
555.22	7148.8	
555.42	9071.1	
555.61	8815.8	
555.8	6956.9	
556	7148.1	
556.19	8381.7	
556.39	8964.6	
556.58	6984.9	
556.78	7014.3	
556.97	8753.7	
557.16	8557.8	
557.36	7881.9	
557.55	6769.2	
557.75	8054.7	
557.94	9315.5	
558.13	6822.5	
558.33	6657.9	
558.52	9149.6	
558.72	8283.4	
558.91	6702.3	
559.1	6871.6	
559.3	8127.7	
559.49	8006.9	
559.69	6711.2	
559.88	7123.5	
560.07	8642.4	
560.27	8976.2	
560.46	7246.4	
560.66	7248.4	
560.85	8522.3	
561.04	7907.9	
561.24	6736.5	
561.43	6771.9	
561.63	8185.7	
561.82	8356.4	
562.01	7646.4	
562.21	7033.4	
562.4	8591.9	
562.59	9181	
562.79	6988.4	
562.98	6703.7	
563.18	8493.6	
563.37	9410.4	
563.56	7227.3	
563.76	6693.4	
563.95	8295.6	
564.14	8206.9	
564.34	7022.5	
564.53	6763.8	
564.73	8623.3	
564.92	8703.9	
565.11	7092.1	
565.31	6684.6	
565.5	9000.8	
565.69	8244.4	
565.89	6834.8	
566.08	6963.1	
566.27	8923.7	
566.47	9140.8	
566.66	7541.3	
566.85	6589.7	
567.05	8747.6	
567.24	8408.3	
567.44	6813.6	
567.63	7724.3	
567.82	8873.8	
568.02	8541.4	
568.21	6851.1	
568.4	7095.5	
568.6	8712.7	
568.79	8623.3	
568.98	6752.8	
569.18	6817	
569.37	8583	
569.56	9813.2	
569.76	7175.4	
569.95	7727.7	
570.14	8939.4	
570.34	8776.2	
570.53	6849.1	
570.72	6789.7	
570.91	9343.5	
571.11	8653.4	
571.3	7141.9	
571.49	7791.8	
571.69	8643.1	
571.88	8382.3	
572.07	7389.8	
572.27	7425.3	
572.46	8261.5	
572.65	8951	
572.85	6978.1	
573.04	7136.5	
573.23	9235.7	
573.43	8699.8	
573.62	6871.6	
573.81	7262.1	
574	8878.6	
574.2	8658.1	
574.39	7137.9	
574.58	7124.9	
574.78	9292.3	
574.97	8795.3	
575.16	7488.7	
575.36	7534.5	
575.55	9260.2	
575.74	9165.3	
575.93	6892.8	
576.13	7580.9	
576.32	8825.4	
576.51	9170.8	
576.71	7226.6	
576.9	8056.7	
577.09	9492.3	
577.28	8920.3	
577.48	7505.8	
577.67	6925.5	
577.86	8918.2	
578.05	9098.4	
578.25	7397.9	
578.44	7367.9	
578.63	8850	
578.83	9702.6	
579.02	6952.2	
579.21	7988.4	
579.4	8968.1	
579.6	8888.9	
579.79	7344.7	
579.98	8798.1	
580.17	9220	
580.37	9286.2	
580.56	7052.5	
580.75	7619.1	
580.94	9407	
581.14	9485.5	
581.33	7830.1	
581.52	7193.8	
581.71	9095	
581.91	9630.9	
582.1	6988.4	
582.29	7338.6	
582.48	8869.1	
582.68	8897.7	
582.87	7640.3	
583.06	7346.7	
583.25	9166.7	
583.45	9031.5	
583.64	7856	
583.83	8258.1	
584.02	8875.2	
584.21	9261.6	
584.41	7762.5	
584.6	7393.8	
584.79	9039.7	
584.98	9442.5	
585.18	7134.4	
585.37	7015.7	
585.56	8813.1	
585.75	9246.6	
585.94	7187.7	
586.14	7603.4	
586.33	9577.7	
586.52	8939.4	
586.71	7630.7	
586.91	7324.2	
587.1	8457.4	
587.29	9168.8	
587.48	7334.5	
587.67	7197.9	
587.87	9138	
588.06	8957.8	
588.25	8004.1	
588.44	7512.6	
588.63	8809.7	
588.83	9043.8	
589.02	7253.9	
589.21	7000	
589.4	8706.6	
589.59	8671.8	
589.78	6732.4	
589.98	6754.9	
590.17	8355	
590.36	8628.1	
590.55	6259.3	
590.74	6799.3	
590.94	9349	
591.13	8435.6	
591.32	6685.3	
591.51	6269.5	
591.7	8659.5	
591.89	8325	
592.09	6331.6	
592.28	6673	
592.47	7774.1	
592.66	9061.6	
592.85	6287.3	
593.05	6516.6	
593.24	8145.5	
593.43	8822	
593.62	6593.8	
593.81	6846.4	
594	8375.5	
594.19	8293.6	
594.39	6499.6	
594.58	6449.1	
594.77	8437.6	
594.96	8685.4	
595.15	6425.2	
595.34	6840.9	
595.54	8385.1	
595.73	7888.1	
595.92	6064	
596.11	6782.9	
596.3	8716.8	
596.49	8020.5	
596.68	6581.5	
596.88	6845.7	
597.07	8482	
597.26	7751.6	
597.45	6332.3	
597.64	7053.9	
597.83	8004.8	
598.02	8350.9	
598.22	6386.9	
598.41	6820.4	
598.6	8314.8	
598.79	7819.8	
598.98	6353.5	
599.17	6950.1	
599.36	8291.5	
599.55	8914.1	
599.74	7740.6	
599.94	7520.8	
600.13	8657.4	
600.32	7780.2	
600.51	6189	
600.7	6253.1	
600.89	9060.2	
601.08	9090.9	
601.27	6195.1	
601.47	6683.2	
601.66	8584.4	
601.85	8833.6	
602.04	6571.9	
602.23	6701	
602.42	7952.9	
602.61	8314.8	
602.8	6503.7	
602.99	6214.9	
603.18	8076.5	
603.37	8182.3	
603.57	6651.8	
603.76	7066.2	
603.95	8665	
604.14	8345.5	
604.33	6314.6	
604.52	6608.8	
604.71	8313.4	
604.9	7896.3	
605.09	7007.5	
605.28	6815	
605.47	8681.3	
605.66	8260.8	
605.86	6823.8	
606.05	6451.1	
606.24	8576.2	
606.43	7584.3	
606.62	6592.4	
606.81	7105.1	
607	8500.4	
607.19	7982.3	
607.38	6214.2	
607.57	6393.1	
607.76	7912	
607.95	7453.2	
608.14	6759.7	
608.33	7039.6	
608.52	7856	
608.72	8366	
608.91	6111.1	
609.1	6044.9	
609.29	7930.4	
609.48	7550.2	
609.67	6686.6	
609.86	6158.9	
610.05	7746.8	
610.24	7924.3	
610.43	6027.9	
610.62	5847.6	
610.81	8587.8	
611	8518.2	
611.19	6074.3	
611.38	6580.1	
611.57	8118.1	
611.76	8784.4	
611.95	5951.4	
612.14	5877.7	
612.33	7919.5	
612.52	7612.3	
612.71	6323.4	
612.9	5727.5	
613.09	7431.4	
613.28	8890.9	
613.47	6217	
613.66	6730.3	
613.85	8105.9	
614.04	7693.5	
614.24	6206.7	
614.43	5702.9	
614.62	8116.1	
614.81	8062.9	
615	6624.5	
615.19	6588.3	
615.38	7716.7	
615.57	7906.5	
615.76	6664.1	
615.95	7150.8	
616.14	8182.3	
616.33	7975.5	
616.52	6742.6	
616.71	6772.6	
616.9	8151.6	
617.09	8030.1	
617.28	6232	
617.47	7052.5	
617.66	7660.1	
617.85	7602.7	
618.04	6868.9	
618.22	6548	
618.41	7847.8	
618.6	8430.8	
618.79	6546.7	
618.98	6320.7	
619.17	8592.6	
619.36	7415.7	
619.55	6419	
619.74	6470.2	
619.93	8130.4	
620.12	7781.6	
620.31	6858.6	
620.5	6896.2	
620.69	8468.4	
620.88	8849.3	
621.07	7263.5	
621.26	6825.2	
621.45	8247.2	
621.64	8284.7	
621.83	6807.4	
622.02	6339.8	
622.21	8389.2	
622.4	8238.3	
622.59	7162.4	
622.78	6992.4	
622.97	7991.2	
623.16	8565.3	
623.35	6824.5	
623.54	6249.7	
623.72	8041	
623.91	8163.9	
624.1	7032.7	
624.29	6187.6	
624.48	8946.9	
624.67	8436.3	
624.86	6924.2	
625.05	6343.9	
625.24	9023.4	
625.43	7978.9	
625.62	7977.5	
625.81	6531.7	
626	8520.2	
626.19	8170.7	
626.38	6886	
626.56	6608.8	
626.75	8015.1	
626.94	8538	
627.13	6965.1	
627.32	6165.8	
627.51	8475.9	
627.7	9141.4	
627.89	6126.2	
628.08	6924.2	
628.27	7864.2	
628.46	8050.6	
628.65	6494.1	
628.83	6131.6	
629.02	8411	
629.21	7782.3	
629.4	6647	
629.59	6782.9	
629.78	7889.5	
629.97	8445.1	
630.16	6790.4	
630.35	6502.3	
630.54	8809	
630.72	8638.3	
630.91	6445	
631.1	6807.4	
631.29	8267	
631.48	8213.7	
631.67	6886.6	
631.86	6489.3	
632.05	8126.3	
632.24	8043.1	
632.42	6337.1	
632.61	6637.5	
632.8	7938.6	
632.99	7795.3	
633.18	6696.2	
633.37	6915.3	
633.56	8248.5	
633.75	8136.6	
633.93	6782.9	
634.12	6522.8	
634.31	8854.1	
634.5	8470.4	
634.69	6518.7	
634.88	6842.3	
635.07	8062.2	
635.25	8452	
635.44	7208.2	
635.63	7227.3	
635.82	7983	
636.01	7470.3	
636.2	7033.4	
636.39	6791.7	
636.57	8835.6	
636.76	8453.3	
636.95	6363	
637.14	7245	
637.33	8365.3	
637.52	8825.4	
637.7	6217.6	
637.89	6975.4	
638.08	8043.1	
638.27	8993.3	
638.46	7023.2	
638.65	7256	
638.83	9002.2	
639.02	8031.5	
639.21	6969.9	
639.4	7167.9	
639.59	8196.7	
639.78	7894.2	
639.96	6382.2	
640.15	6397.9	
640.34	8230.8	
640.53	8102.4	
640.72	6268.8	
640.91	6361.7	
641.09	7735.9	
641.28	8569.4	
641.47	6434.7	
641.66	6890.7	
641.85	8157.7	
642.03	8309.3	
642.22	6744.6	
642.41	6510.5	
642.6	7718.1	
642.79	7396.6	
642.97	6345.3	
643.16	6678.4	
643.35	7677.8	
643.54	7564.5	
643.73	6193.1	
643.91	6728.9	
644.1	7520.1	
644.29	7882.6	
644.48	6293.4	
644.67	6289.3	
644.85	7528.3	
645.04	7886	
645.23	5992.4	
645.42	6238.8	
645.6	7501.7	
645.79	8288.8	
645.98	6090	
646.17	5492	
646.36	7292.8	
646.54	7585	
646.73	6636.8	
646.92	5868.8	
647.11	7383.6	
647.29	8041.7	
647.48	5802.6	
647.67	5606	
647.86	8180.3	
648.05	8082.6	
648.23	5976	
648.42	6778.1	
648.61	7655.3	
648.8	7543.4	
648.98	5766.4	
649.17	6008.7	
649.36	7287.4	
649.55	6958.3	
649.73	5781.4	
649.92	6275.7	
650.11	7247.8	
650.3	7450.5	
650.48	5843.5	
650.67	5674.2	
650.86	7610.3	
651.05	6920.1	
651.23	5722	
651.42	5717.2	
651.61	7262.1	
651.79	7176.1	
651.98	5986.9	
652.17	5673.6	
652.36	7514.7	
652.54	6871.6	
652.73	5756.2	
652.92	5511.1	
653.11	7503.1	
653.29	7653.3	
653.48	5265.3	
653.67	5898.8	
653.85	7365.2	
654.04	7990.5	
654.23	6021.7	
654.42	5702.2	
654.6	7002.7	
654.79	7507.2	
654.98	5350.7	
655.16	5704.3	
655.35	6834.8	
655.54	6601.3	
655.73	5366.4	
655.91	5279	
656.1	7262.8	
656.29	6509.8	
656.47	4994.3	
656.66	6092.7	
656.85	6757.6	
657.03	6781.5	
657.22	5387.5	
657.41	5456.5	
657.59	6802	
657.78	6799.3	
657.97	5163.6	
658.16	5710.4	
658.34	7342.7	
658.53	7595.9	
658.72	6260.6	
658.9	6547.4	
659.09	7075.7	
659.28	7105.1	
659.46	5541.8	
659.65	5405.3	
659.84	6893.5	
660.02	7225.9	
660.21	5535.7	
660.4	5319.9	
660.58	7481.9	
660.77	7063.4	
660.96	5855.8	
661.14	5181.4	
661.33	7829.4	
661.52	7778.2	
661.7	5145.2	
661.89	7413	
662.08	6857.3	
662.26	6531.7	
662.45	5410.7	
662.64	5493.3	
662.82	7391.8	
663.01	6832.7	
663.2	5472.2	
663.38	5844.2	
663.57	7185.6	
663.75	7126.2	
663.94	5650.3	
664.13	6434.7	
664.31	6898.2	
664.5	7295.5	
664.69	5813.5	
664.87	6125.5	
665.06	6577.4	
665.25	7066.2	
665.43	6330.3	
665.62	6266.1	
665.8	7311.2	
665.99	6822.5	
666.18	5618.9	
666.36	5667.4	
666.55	7363.8	
666.74	7260.7	
666.92	5416.2	
667.11	6371.2	
667.29	6889.4	
667.48	7265.5	
667.67	6176.7	
667.85	5449	
668.04	6847	
668.22	6782.2	
668.41	5611.4	
668.6	5971.2	
668.78	6823.1	
668.97	6860	
669.15	5873.6	
669.34	5158.8	
669.53	6752.2	
669.71	6967.2	
669.9	5279	
670.08	5621.7	
670.27	6663.4	
670.46	7065.5	
670.64	5894.1	
670.83	5991.7	
671.01	6621.1	
671.2	6909.2	
671.38	5359.5	
671.57	5304.2	
671.76	7473.7	
671.94	7772	
672.13	5237.3	
672.31	5803.9	
672.5	7251.9	
672.69	6724.8	
672.87	5287.9	
673.06	5554.8	
673.24	7123.5	
673.43	6791.1	
673.61	5751.4	
673.8	5498.8	
673.98	7150.8	
674.17	7221.8	
674.36	5859.9	
674.54	5794.4	
674.73	6952.9	
674.91	7223.9	
675.1	5629.2	
675.28	5263.3	
675.47	6897.6	
675.65	7255.3	
675.84	5556.8	
676.03	5737	
676.21	6779.5	
676.4	6427.2	
676.58	6083.1	
676.77	5892.7	
676.95	7816.4	
677.14	6753.5	
677.32	5337.7	
677.51	5259.2	
677.69	7296.2	
677.88	6582.9	
678.06	5234.6	
678.25	5406.6	
678.44	6845.7	
678.62	6723.5	
678.81	5140.4	
678.99	5766.4	
679.18	7422.5	
679.36	7197.9	
679.55	5480.4	
679.73	5879.7	
679.92	7211.6	
680.1	6732.4	
680.29	6270.9	
680.47	5439.4	
680.66	6759.7	
680.84	7187	
681.03	5070.8	
681.21	5780.1	
681.4	6701.6	
681.58	6617.7	
681.77	5343.2	
681.95	5380.7	
682.14	7305.1	
682.32	7445	
682.51	5938.4	
682.69	5082.4	
682.88	6727.6	
683.06	6921.5	
683.25	5674.2	
683.43	5941.8	
683.62	6946	
683.8	7134.4	
683.99	6100.9	
684.17	5677.7	
684.36	7618.4	
684.54	6745.3	
684.73	5070.8	
684.91	5173.2	
685.1	6989	
685.28	6477	
685.46	5479.7	
685.65	5513.8	
685.83	6944	
686.02	6527.6	
686.2	4999.8	
686.39	5181.4	
686.57	6372.6	
686.76	7193.8	
686.94	5017.5	
687.13	5128.1	
687.31	6780.8	
687.5	6551.5	
687.68	4726.7	
687.86	5494	
688.05	7739.3	
688.23	6171.9	
688.42	5620.3	
688.6	5132.9	
688.79	6498.2	
688.97	6492.7	
689.16	5463.3	
689.34	4677.6	
689.52	6904.4	
689.71	7084.6	
689.89	5653.8	
690.08	5129.5	
690.26	6671.6	
690.45	6492.1	
690.63	5692.7	
690.81	5235.3	
691	6703	
691.18	6494.1	
691.37	5395	
691.55	6645.7	
691.74	6460	
691.92	7755.7	
692.1	5281	
692.29	4962.2	
692.47	6606.1	
692.66	6090.7	
692.84	4984.1	
693.02	5351.3	
693.21	6124.8	
693.39	6481.8	
693.58	5488.6	
693.76	5059.2	
693.94	7295.5	
694.13	7092.8	
694.31	5115.8	
694.5	5735	
694.68	6347.3	
694.86	6595.8	
695.05	5300.1	
695.23	5447.6	
695.42	6944	
695.6	8332.5	
695.78	5816.2	
695.97	5174.5	
696.15	6982.9	
696.34	6523.5	
696.52	5105.6	
696.7	5606	
696.89	6823.1	
697.07	6339.8	
697.25	5448.3	
697.44	6355.5	
697.62	6777.4	
697.81	6896.9	
697.99	5270.8	
698.17	5544.5	
698.36	6363	
698.54	6728.9	
698.72	5457.8	
698.91	4840	
699.09	6395.8	
699.28	6287.3	
699.46	5221.6	
699.64	5142.4	
699.83	6340.5	
700.01	7016.3	
700.19	5673.6	
700.38	4616.1	
700.56	7014.3	
700.74	6366.5	
700.93	4843.4	
701.11	5396.4	
701.29	6662	
701.48	7376.1	
701.66	5051	
701.84	5063.9	
702.03	6480.5	
702.21	6856.6	
702.39	4810.7	
702.58	5161.6	
702.76	6748.7	
702.94	6702.3	
703.13	4798.4	
703.31	6259.3	
703.49	6273.6	
703.68	6859.3	
703.86	4851	
704.04	5545.9	
704.23	6663.4	
704.41	6807.4	
704.59	5008	
704.78	5659.9	
704.96	7546.8	
705.14	6748.1	
705.33	4805.9	
705.51	5326.1	
705.69	6387.6	
705.87	6953.5	
706.06	5463.3	
706.24	4700.8	
706.42	6583.5	
706.61	6731.7	
706.79	5526.1	
706.97	4705.5	
707.16	6252.4	
707.34	6649.1	
707.52	5407.3	
707.7	4821.6	
707.89	6187.6	
708.07	6083.8	
708.25	5419.6	
708.44	5765.7	
708.62	6215.6	
708.8	6965.1	
708.98	5562.3	
709.17	4983.4	
709.35	6447.7	
709.53	6408.8	
709.72	4711.7	
709.9	4800.4	
710.08	6709.1	
710.26	6671.6	
710.45	5709.7	
710.63	4966.3	
710.81	6391.7	
710.99	6351.4	
711.18	5311.7	
711.36	4967	
711.54	6283.9	
711.72	6688.7	
711.91	5014.1	
712.09	4633.9	
712.27	6405.4	
712.45	6651.8	
712.64	5111	
712.82	4425	
713	5921.4	
713.18	6006	
713.37	4481	
713.55	5269.4	
713.73	6583.5	
713.91	5697.4	
714.1	4737.6	
714.28	4375.1	
714.46	6268.1	
714.64	5698.1	
714.83	3986	
715.01	4446.1	
715.19	5761.6	
715.37	5225.7	
715.55	4145.8	
715.74	4304.8	
715.92	6206.7	
716.1	4876.9	
716.28	5061.2	
716.47	4388.1	
716.65	5464.7	
716.83	5384.1	
717.01	4252.3	
717.19	4264.6	
717.38	6780.8	
717.56	5184.1	
717.74	4389.5	
717.92	3842.7	
718.1	5963	
718.29	5478.3	
718.47	3604.4	
718.65	4043.4	
718.83	5934.3	
719.01	5853.8	
719.2	3583.9	
719.38	4301.4	
719.56	5707	
719.74	6702.3	
719.92	4073.4	
720.11	4693.3	
720.29	5812.1	
720.47	5189.6	
720.65	3763.5	
720.83	4299.4	
721.02	5520.6	
721.2	5223.7	
721.38	4294.6	
721.56	3804.4	
721.74	4885.8	
721.92	4897.4	
722.11	4552	
722.29	4386.1	
722.47	5778.7	
722.65	5243.5	
722.83	3827	
723.01	4323.3	
723.2	5255.1	
723.38	5461.2	
723.56	3425.6	
723.74	4120.5	
723.92	4957.4	
724.1	5698.1	
724.29	3764.2	
724.47	4454.3	
724.65	5044.1	
724.83	4915.1	
725.01	3653.6	
725.19	4220.2	
725.37	4906.3	
725.56	4860.5	
725.74	3523.2	
725.92	3704.1	
726.1	4900.1	
726.28	5121.3	
726.46	3970.3	
726.64	3799.7	
726.83	5133.6	
727.01	5242.1	
727.19	3502.7	
727.37	4053.6	
727.55	5203.9	
727.73	5515.2	
727.91	3534.1	
728.09	3379.8	
728.28	5558.9	
728.46	5709.1	
728.64	4095.3	
728.82	4014.7	
729	6200.6	
729.18	5749.3	
729.36	3458.3	
729.54	4952	
729.72	6346	
729.91	5268.1	
730.09	4737.6	
730.27	3930.7	
730.45	5171.8	
730.63	5524.1	
730.81	4352.6	
730.99	3714.3	
731.17	5950.7	
731.35	4943.8	
731.53	3988.1	
731.71	3781.2	
731.9	5728.2	
732.08	5768.4	
732.26	4044.1	
732.44	3696.6	
732.62	5857.9	
732.8	5507	
732.98	4287.1	
733.16	3608.5	
733.34	5513.8	
733.52	4644.8	
733.7	3947.8	
733.88	4048.2	
734.07	5377.3	
734.25	5289.2	
734.43	3616.7	
734.61	4521.2	
734.79	6232.7	
734.97	5150	
735.15	3655.6	
735.33	3857.7	
735.51	5497.4	
735.69	5094	
735.87	4551.3	
736.05	4009.2	
736.23	5243.5	
736.41	4984.8	
736.59	3850.2	
736.77	3879.5	
736.95	5542.5	
737.13	5083.1	
737.32	3667.9	
737.5	3765.5	
737.68	5891.3	
737.86	5015.5	
738.04	3474.7	
738.22	4717.2	
738.4	4977.2	
738.58	5153.4	
738.76	3938.2	
738.94	3224.2	
739.12	5068	
739.3	4957.4	
739.48	4296	
739.66	4077.5	
739.84	5160.2	
740.02	5168.4	
740.2	3292.5	
740.38	3462.4	
740.56	5349.3	
740.74	4599.7	
740.92	3953.3	
741.1	3826.3	
741.28	5087.2	
741.46	4896.7	
741.64	3611.3	
741.82	3944.4	
742	5053	
742.18	4969.7	
742.36	3739.6	
742.54	3468.6	
742.72	5421	
742.9	4588.8	
743.08	3968.3	
743.26	3214.6	
743.44	5495.4	
743.62	5432.6	
743.8	4065.2	
743.98	3472	
744.16	5165.7	
744.34	4968.4	
744.52	4047.5	
744.7	3975.8	
744.88	5323.4	
745.06	4943.1	
745.24	4048.8	
745.42	4104.1	
745.6	5422.3	
745.78	5271.5	
745.96	3217.4	
746.14	3521.8	
746.32	5865.4	
746.5	5282.4	
746.68	3781.2	
746.86	3459.7	
747.03	5504.9	
747.21	4538.3	
747.39	3846.8	
747.57	3445.4	
747.75	5102.9	
747.93	5361.6	
748.11	3457	
748.29	3340.9	
748.47	6117.3	
748.65	4842.1	
748.83	3879.5	
749.01	3736.9	
749.19	5216.9	
749.37	4585.4	
749.55	3710.2	
749.73	3676.1	
749.91	5085.1	
750.09	4857.1	
750.26	3735.5	
750.44	3345.7	
750.62	5057.1	
750.8	4977.9	
750.98	3309.5	
751.16	3527.3	
751.34	5089.2	
751.52	4632.5	
751.7	4011.3	
751.88	3209.2	
752.06	5365	
752.24	5165	
752.42	3218	
752.59	3446.7	
752.77	4958.8	
752.95	5808.7	
753.13	3980.6	
753.31	3524.6	
753.49	4760.8	
753.67	5039.4	
753.85	3731.4	
754.03	3409.9	
754.21	5285.8	
754.38	5412.1	
754.56	3481.5	
754.74	2936.1	
754.92	4764.9	
755.1	5154.1	
755.28	2936.1	
755.46	2961.4	
755.64	5780.7	
755.82	5847.6	
755.99	3252.2	
756.17	3209.2	
756.35	4183.3	
756.53	5124.7	
756.71	2551.8	
756.89	3415.3	
757.07	4876.2	
757.25	4283	
757.42	3441.3	
757.6	4054.3	
757.78	4938.3	
757.96	4259.1	
758.14	3278.8	
758.32	3001	
758.5	3953.9	
758.67	4543.8	
758.85	3132.7	
759.03	3171.6	
759.21	4719.9	
759.39	4246.1	
759.57	2910.8	
759.75	3537.5	
759.92	5137.7	
760.1	4706.9	
760.28	3867.9	
760.46	3989.4	
760.64	4524	
760.82	4355.3	
760.99	3782.6	
761.17	3263.8	
761.35	5025.7	
761.53	4350.6	
761.71	3368.2	
761.89	3713.7	
762.06	4967	
762.24	4602.5	
762.42	3356.6	
762.6	3197.6	
762.78	4619.5	
762.96	5022.3	
763.13	3632.4	
763.31	3351.8	
763.49	5070.1	
763.67	4590.9	
763.85	3930.7	
764.02	4263.2	
764.2	5299.5	
764.38	4639.3	
764.56	3269.2	
764.74	3905.5	
764.91	5380	
765.09	4529.4	
765.27	3163.4	
765.45	2979.8	
765.63	5422.3	
765.8	5162.9	
765.98	2848.7	
766.16	2995.5	
766.34	4298	
766.52	4188.8	
766.69	3625.6	
766.87	2902.7	
767.05	4636.6	
767.23	5087.8	
767.41	3160.7	
767.58	3369.6	
767.76	5016.2	
767.94	5030.5	
768.12	3206.4	
768.29	3650.2	
768.47	4631.1	
768.65	5193	
768.83	2913.6	
769	3669.3	
769.18	4344.4	
769.36	4838.7	
769.54	3683.6	
769.72	2944.3	
769.89	5059.8	
770.07	5062.6	
770.25	3243.3	
770.43	4086.4	
770.6	5629.2	
770.78	5753.4	
770.96	3308.2	
771.14	3698.6	
771.31	4984.8	
771.49	4592.2	
771.67	2804.4	
771.85	2964.1	
772.02	4078.9	
772.2	4479.6	
772.38	3497.2	
772.55	3052.8	
772.73	4809.3	
772.91	4586.1	
773.09	3329.3	
773.26	3429.7	
773.44	4799.8	
773.62	4534.9	
773.8	3077.4	
773.97	2932	
774.15	4789.5	
774.33	4576.5	
774.5	3026.2	
774.68	3220.8	
774.86	4874.2	
775.04	4567	
775.21	3018.7	
775.39	2952.5	
775.57	4702.8	
775.74	4871.4	
775.92	2875.3	
776.1	2816.6	
776.27	4702.1	
776.45	5472.9	
776.63	3026.2	
776.81	2755.9	
776.98	4534.2	
777.16	5134.9	
777.34	3110.9	
777.51	3315.7	
777.69	4498.7	
777.87	4313.7	
778.04	3163.4	
778.22	3457.7	
778.4	4336.2	
778.57	4782.7	
778.75	2654.9	
778.93	2901.3	
779.1	4232.5	
779.28	4103.4	
779.46	2695.1	
779.64	2998.2	
779.81	4873.5	
779.99	5440.8	
780.17	3467.9	
780.34	3513.6	
780.52	4575.8	
780.69	4618.9	
780.87	3193.5	
781.05	2933.4	
781.22	4628.4	
781.4	4603.8	
781.58	2982.5	
781.75	2463	
781.93	4638	
782.11	4140.3	
782.28	3620.1	
782.46	3041.9	
782.64	4052.2	
782.81	4721.3	
782.99	3154.6	
783.17	3003.7	
783.34	4662.5	
783.52	4261.8	
783.69	3160.7	
783.87	3715	
784.05	4342.4	
784.22	4185.4	
784.4	3747.8	
784.58	3263.1	
784.75	4823	
784.93	4300.1	
785.1	2997.5	
785.28	3418.7	
785.46	4744.5	
785.63	4109.6	
785.81	3035.8	
785.99	2921.8	
786.16	4379.2	
786.34	4502.8	
786.51	2932.7	
786.69	3235.1	
786.87	4041.3	
787.04	4343.7	
787.22	2846	
787.39	3489.7	
787.57	4245.4	
787.75	4945.2	
787.92	3654.9	
788.1	3459.7	
788.27	4155.3	
788.45	4012.7	
788.63	3398.3	
788.8	2536.1	
788.98	4542.4	
789.15	3906.8	
789.33	2663.7	
789.5	3025.5	
789.68	4867.3	
789.86	4877.6	
790.03	3321.1	
790.21	2917.7	
790.38	4881	
790.56	4289.1	
790.73	2888.3	
790.91	2805.7	
791.09	4252.3	
791.26	4665.3	
791.44	3033.7	
791.61	2639.1	
791.79	4216.1	
791.96	4191.5	
792.14	2762.7	
792.32	2514.2	
792.49	4216.1	
792.67	4351.3	
792.84	2762	
793.02	2661.7	
793.19	4638.6	
793.37	4967	
793.54	2469.9	
793.72	2707.4	
793.89	5064.6	
794.07	4192.9	
794.25	3136.8	
794.42	2544.3	
794.6	4954	
794.77	4633.2	
794.95	3300	
795.12	2834.4	
795.3	4230.4	
795.47	4555.4	
795.65	3204.4	
795.82	3057.6	
796	4082.3	
796.17	5309	
796.35	2976.4	
796.52	3390.1	
796.7	4601.1	
796.87	4642.7	
797.05	2989.4	
797.22	3492.5	
797.4	4664.6	
797.57	5248.3	
797.75	3064.4	
797.92	2891	
798.1	4872.1	
798.27	4109.6	
798.45	2581.8	
798.62	2686.3	
798.8	4404.5	
798.97	4714.4	
799.15	3106.1	
799.32	3052.2	
799.5	3951.9	
799.67	4402.5	
799.85	3269.2	
800.02	2495.8	
800.2	4203.1	
800.37	4326.7	
800.55	3371.6	
800.72	2884.9	
800.9	4730.8	
801.07	4962.2	
801.25	3759.4	
801.42	3166.8	
801.6	4780.6	
801.77	4416.8	
801.95	2939.5	
802.12	2848	
802.29	4568.3	
802.47	4454.3	
802.64	3168.9	
802.82	2519	
802.99	4244.1	
803.17	4769.7	
803.34	3069.9	
803.52	2760.7	
803.69	5223.7	
803.87	3975.8	
804.04	3093.8	
804.21	3076	
804.39	4940.4	
804.56	4283.7	
804.74	2663.7	
804.91	3138.2	
805.09	4236.6	
805.26	4231.1	
805.44	2755.2	
805.61	2936.1	
805.78	4639.3	
805.96	4632.5	
806.13	3079.5	
806.31	3310.2	
806.48	3853.6	
806.66	4219.5	
806.83	3181.9	
807	3062.4	
807.18	4252.3	
807.35	4355.3	
807.53	3009.8	
807.7	2554.5	
807.87	4956.1	
808.05	4199	
808.22	3251.5	
808.4	2559.3	
808.57	4133.5	
808.74	3944.4	
808.92	2911.5	
809.09	3529.3	
809.27	4235.2	
809.44	4490.5	
809.61	2606.4	
809.79	2814.6	
809.96	5082.4	
810.14	4625	
810.31	2534	
810.48	2992.8	
810.66	4323.9	
810.83	4653.7	
811.01	2908.1	
811.18	3147	
811.35	4765.6	
811.53	3773.7	
811.7	3364.1	
811.87	3132	
812.05	4353.3	
812.22	4093.2	
812.39	2796.8	
812.57	2691.7	
812.74	4286.4	
812.92	5245.5	
813.09	3009.1	
813.26	3147	
813.44	5108.3	
813.61	4078.9	
813.78	2556.5	
813.96	3237.8	
814.13	4242	
814.3	4100	
814.48	3444.7	
814.65	2971.6	
814.82	5070.1	
815	3983.3	
815.17	3028.3	
815.34	3657	
815.52	4156	
815.69	4168.3	
815.87	2964.1	
816.04	2938.8	
816.21	4258.4	
816.38	3883.6	
816.56	2941.6	
816.73	2820.1	
816.9	5171.1	
817.08	4649.6	
817.25	2831	
817.42	3381.2	
817.6	3930.1	
817.77	4154	
817.94	3124.5	
818.12	2804.4	
818.29	4073.4	
818.46	5724.8	
818.64	2887	
818.81	2681.5	
818.98	4058.4	
819.16	5365	
819.33	3231.7	
819.5	3074.7	
819.67	4455.7	
819.85	4889.9	
820.02	2949.8	
820.19	3082.9	
820.37	4354.7	
820.54	4100	
820.71	3067.2	
820.88	3789.4	
821.06	4348.5	
821.23	4061.1	
821.4	3102.7	
821.58	3036.5	
821.75	4645.5	
821.92	4389.5	
822.09	2592.7	
822.27	2684.2	
822.44	4201.7	
822.61	4152.6	
822.79	2590.7	
822.96	4571.1	
823.13	4418.2	
823.3	3969	
823.48	2951.8	
823.65	2641.2	
823.82	4747.2	
823.99	3990.8	
824.17	3601.7	
824.34	2656.9	
824.51	5281	
824.68	4327.4	
824.86	2831.7	
825.03	3044	
825.2	4220.2	
825.37	4861.9	
825.55	2843.9	
825.72	3069.2	
825.89	5246.9	
826.06	5029.8	
826.24	2990.7	
826.41	3039.2	
826.58	4960.9	
826.75	4362.2	
826.92	2482.1	
827.1	2680.1	
827.27	6379.4	
827.44	5181.4	
827.61	2853.5	
827.79	3330.7	
827.96	4130.1	
828.13	4230.4	
828.3	2962	
828.47	2540.8	
828.65	4534.9	
828.82	4416.1	
828.99	3611.3	
829.16	3194.8	
829.34	4779.3	
829.51	4655.7	
829.68	2999.6	
829.85	3091.1	
830.02	5001.8	
830.2	4791.6	
830.37	2429.6	
830.54	3508.2	
830.71	5297.4	
830.88	4288.4	
831.05	2370.2	
831.23	2735.4	
831.4	5127.4	
831.57	5433.3	
831.74	2837.1	
831.91	2522.4	
832.09	4590.9	
832.26	4719.9	
832.43	2923.1	
832.6	3205.8	
832.77	4496	
832.94	5004.6	
833.12	2381.1	
833.29	2859.6	
833.46	4524.6	
833.63	5603.9	
833.8	3121.1	
833.97	2856.2	
834.15	4754	
834.32	4604.5	
834.49	2976.4	
834.66	2994.1	
834.83	4775.9	
835	4102.1	
835.17	2811.9	
835.35	2799.6	
835.52	4672.1	
835.69	4575.8	
835.86	2923.1	
836.03	2443.9	
836.2	4795	
836.37	4418.8	
836.55	2828.9	
836.72	2735.4	
836.89	4439.3	
837.06	4784.7	
837.23	2914.3	
837.4	3091.8	
837.57	5285.8	
837.75	5610.1	
837.92	2679.4	
838.09	2853.5	
838.26	4439.3	
838.43	4813.4	
838.6	2990.7	
838.77	2719.7	
838.94	5328.1	
839.11	5268.7	
839.29	2930.6	
839.46	2353.8	
839.63	4787.5	
839.8	4496.7	
839.97	2839.2	
840.14	2789.3	
840.31	4627.7	
840.48	4759.5	
840.65	2379.1	
840.82	2792.7	
841	4704.9	
841.17	4506.9	
841.34	2609.8	
841.51	2688.3	
841.68	4677.6	
841.85	4509.6	
842.02	2736.1	
842.19	2335.4	
842.36	4474.8	
842.53	4562.2	
842.7	2632.3	
842.87	3106.8	
843.05	5667.4	
843.22	4471.4	
843.39	2511.5	
843.56	2699.9	
843.73	4429.1	
843.9	4792.2	
844.07	3973.1	
844.24	3313.6	
844.41	6199.9	
844.58	4175.1	
844.75	2564.1	
844.92	2693.8	
845.09	4641.4	
845.26	4676.9	
845.43	2628.2	
845.6	2785.9	
845.77	4666.6	
845.94	4490.5	
846.12	2900.6	
846.29	2998.2	
846.46	4881.7	
846.63	4674.8	
846.8	2604.3	
846.97	3061	
847.14	4921.3	
847.31	4698.7	
847.48	2833	
847.65	3176.4	
847.82	4830.5	
847.99	4814.8	
848.16	3390.8	
848.33	3080.1	
848.5	4351.3	
848.67	4983.4	
848.84	2613.9	
849.01	2691.7	
849.18	4355.3	
849.35	4076.8	
849.52	3131.3	
849.69	2559.3	
849.86	4843.4	
850.03	4863.9	
850.2	2641.2	
850.37	3075.4	
850.54	4902.8	
850.71	4455.7	
850.88	3041.2	
851.05	2571.6	
851.22	4605.2	
851.39	5027.8	
851.56	2484.2	
851.73	2921.1	
851.9	4208.6	
852.07	4784.1	
852.24	2887.6	
852.41	2564.7	
852.58	4656.4	
852.75	4257.7	
852.92	2874	
853.09	2527.2	
853.26	4316.4	
853.43	4993.6	
853.6	2684.9	
853.77	2301.2	
853.94	5032.5	
854.11	4188.8	
854.28	3606.5	
854.44	2790	
854.61	5307	
854.78	4927.4	
854.95	2620	
855.12	3117	
855.29	3936.9	
855.46	5119.2	
855.63	2641.9	
855.8	3419.4	
855.97	4334.2	
856.14	4964.3	
856.31	3519.8	
856.48	2838.5	
856.65	4433.2	
856.82	4181.3	
856.99	2534	
857.16	2813.2	
857.33	5418.2	
857.49	4416.8	
857.66	2761.3	
857.83	2938.8	
858	4511.7	
858.17	4602.5	
858.34	2441.9	
858.51	2606.4	
858.68	5055.1	
858.85	5051.7	
859.02	2985.3	
859.19	3100.6	
859.36	4283	
859.52	4196.3	
859.69	2669.9	
859.86	3006.4	
860.03	4192.9	
860.2	4994.3	
860.37	2412.5	
860.54	2658.9	
860.71	4797.7	
860.88	5063.3	
861.05	2871.3	
861.21	3233.7	
861.38	5085.8	
861.55	4065.2	
861.72	2455.5	
861.89	2866.5	
862.06	4860.5	
862.23	5118.6	
862.4	2557.9	
862.56	2671.2	
862.73	4762.9	
862.9	4500.1	
863.07	2958.6	
863.24	2433.7	
863.41	4180.6	
863.58	4203.8	
863.75	2639.8	
863.91	2979.8	
864.08	4929.5	
864.25	4731.5	
864.42	3130	
864.59	3473.4	
864.76	5268.7	
864.93	4165.6	
865.09	2531.3	
865.26	2809.8	
865.43	4951.3	
865.6	5241.4	
865.77	2312.8	
865.94	2592	
866.1	4973.2	
866.27	4708.3	
866.44	3743.7	
866.61	2497.8	
866.78	4465.3	
866.95	4749.9	
867.11	2568.8	
867.28	2412.5	
867.45	4898.7	
867.62	4238.6	
867.79	2889.7	
867.96	2553.8	
868.12	4160.8	
868.29	4799.1	
868.46	2585.9	
868.63	3300	
868.8	4861.9	
868.97	4745.8	
869.13	2693.8	
869.3	2709.5	
869.47	4724.7	
869.64	4886.5	
869.81	2594.1	
869.97	2584.5	
870.14	4575.8	
870.31	5072.8	
870.48	2515.6	
870.65	3196.9	
870.81	4443.4	
870.98	4450.2	
871.15	2873.3	
871.32	2704.7	
871.48	4777.2	
871.65	5095.3	
871.82	2562.7	
871.99	2840.5	
872.16	5405.3	
872.32	4940.4	
872.49	2654.2	
872.66	2667.1	
872.83	4870.1	
872.99	4267.3	
873.16	2925.9	
873.33	2617.3	
873.5	4515.8	
873.67	4618.2	
873.83	2721.8	
874	3338.2	
874.17	4650.9	
874.34	5274.2	
874.5	3278.8	
874.67	3142.9	
874.84	4985.4	
875.01	4131.4	
875.17	3472.7	
875.34	2621.4	
875.51	4654.4	
875.68	5433.3	
875.84	3064.4	
876.01	3568.9	
876.18	4773.8	
876.34	4733.5	
876.51	2579.8	
876.68	2609.1	
876.85	4383.3	
877.01	4983.4	
877.18	3542.3	
877.35	2564.7	
877.52	4640	
877.68	4236.6	
877.85	2579.8	
878.02	2561.3	
878.18	4397	
878.35	4283.7	
878.52	2172.2	
878.69	2999.6	
878.85	4901.5	
879.02	4741	
879.19	3564.1	
879.35	2792.1	
879.52	4780.6	
879.69	4844.8	
879.86	2323.8	
880.02	2903.3	
880.19	4523.3	
880.36	5330.9	
880.52	2914.3	
880.69	3046	
880.86	4785.4	
881.02	4881.7	
881.19	2850.1	
881.36	2737.5	
881.52	4788.2	
881.69	4232.5	
881.86	2820.1	
882.02	2697.9	
882.19	4973.2	
882.36	5576.6	
882.52	2677.4	
882.69	3560.7	
882.86	4649.6	
883.02	4631.1	
883.19	3123.2	
883.36	2895.8	
883.52	4840.7	
883.69	5330.9	
883.86	2632.3	
884.02	2455.5	
884.19	4785.4	
884.36	4559.5	
884.52	2884.9	
884.69	2772.3	
884.86	4388.8	
885.02	5155.4	
885.19	2875.3	
885.36	2905.4	
885.52	4457.1	
885.69	4629.8	
885.86	3584.6	
886.02	3186.6	
886.19	4856.4	
886.35	4346.5	
886.52	2840.5	
886.69	3493.2	
886.85	4259.8	
887.02	5002.5	
887.19	5002.5	
887.35	5002.5	
887.52	5002.5	
887.68	5002.5	
887.85	5002.5	
888.02	5002.5	
888.18	5002.5	
888.35	5002.5	
888.51	5002.5	
888.68	5002.5	
888.85	5002.5	
889.01	5002.5	
889.18	5002.5	
889.35	5002.5	
889.51	5002.5	
889.68	5002.5	
889.84	5002.5	
890.01	5002.5	
890.17	5002.5	
890.34	5002.5	
890.51	5002.5	
890.67	5002.5	
890.84	5002.5	
891	5002.5	
891.17	5002.5	
891.34	5002.5	
891.5	5002.5	
891.67	5002.5	
891.83	5002.5	
892	5002.5	
892.16	5002.5	
892.33	5002.5	
892.5	5002.5	
892.66	5002.5	
892.83	5002.5	
892.99	5002.5	
893.16	5002.5	
893.32	5002.5	
893.49	5002.5	
893.65	5002.5	
893.82	5002.5	
893.99	5002.5	
894.15	5002.5	
894.32	5002.5	
894.48	5002.5	
894.65	5002.5	
894.81	5002.5	
894.98	5002.5	
895.14	5002.5	
895.31	5002.5	
895.47	5002.5	
895.64	5002.5	
895.81	5002.5	
895.97	5002.5	
896.14	5002.5	
896.3	5002.5	
896.47	5002.5	
896.63	5002.5	
896.8	5002.5	
896.96	5002.5	
897.13	5002.5	
897.29	5002.5	
897.46	5002.5	
897.62	5002.5	
897.79	5002.5	
897.95	5002.5	
898.12	5002.5	
898.28	5002.5	
898.45	5002.5	
898.61	5002.5	
898.78	5002.5	
898.94	5002.5	
899.11	5002.5	
899.27	5002.5	
899.44	5002.5	
899.6	5002.5	
899.77	5002.5	
899.93	5002.5	
900.1	5002.5	
900.26	5002.5	
900.43	5002.5	
900.59	5002.5	
900.76	5002.5	
900.92	5002.5	
901.09	5002.5	
901.25	5002.5	
901.42	5002.5	
901.58	5002.5	
901.75	5002.5	
901.91	5002.5	
902.07	5002.5	
902.24	5002.5	
902.4	5002.5	
902.57	5002.5	
902.73	5002.5	
902.9	5002.5	
903.06	5002.5	
903.23	5002.5	
903.39	5002.5	
903.56	5002.5	
903.72	5002.5	
903.88	5002.5	
904.05	5002.5	
904.21	5002.5	
904.38	5002.5	
904.54	5002.5	
904.71	5002.5	
904.87	5002.5	
905.03	5002.5	
905.2	5002.5	
905.36	5002.5	
905.53	5002.5	
905.69	5002.5	
905.86	5002.5	
906.02	5002.5	
906.18	5002.5	
906.35	5002.5	
906.51	5002.5	
906.68	5002.5	
906.84	5002.5	
907.01	5002.5	
907.17	5002.5	
907.33	5002.5	
907.5	5002.5	
907.66	5002.5	
907.83	5002.5	
907.99	5002.5	
908.15	5002.5	
908.32	5002.5	
908.48	5002.5	
908.65	5002.5	
908.81	5002.5	
908.97	5002.5	
909.14	5002.5	
909.3	5002.5	
909.47	5002.5	
909.63	5002.5	
909.79	5002.5	
909.96	5002.5	
910.12	5002.5	
910.28	5002.5	
910.45	5002.5	
910.61	5002.5	
910.78	5002.5	
910.94	5002.5	
911.1	5002.5	
911.27	5002.5	
911.43	5002.5	
911.59	5002.5	
911.76	5002.5	
911.92	5002.5	
912.08	5002.5	
912.25	5002.5	
912.41	5002.5	
912.57	5002.5	
912.74	5002.5	
912.9	5002.5	
913.07	5002.5	
913.23	5002.5	
913.39	5002.5	
913.56	5002.5	
913.72	5002.5	
913.88	5002.5	
914.05	5002.5	
914.21	5002.5	
914.37	5002.5	
914.54	5002.5	
914.7	5002.5	
914.86	5002.5	
915.03	5002.5	
915.19	5002.5	
