Wavelength	Intensities	
nm	a.u.	
179.22	1867.1	
179.44	1875.3	
179.65	1858.9	
179.86	1891.6	
180.08	1881.4	
180.29	4785.4	
180.51	3429	
180.72	5573.2	
180.94	6440.2	
181.15	3168.2	
181.37	3113.6	
181.58	5425.8	
181.79	5670.1	
182.01	3329.3	
182.22	3560.1	
182.44	5697.4	
182.65	4766.3	
182.87	4431.1	
183.08	3917.8	
183.29	6063.4	
183.51	4956.1	
183.72	3608.5	
183.94	5169.1	
184.15	5330.9	
184.37	5390.9	
184.58	3145.7	
184.79	4311.7	
185.01	4973.2	
185.22	5756.2	
185.44	4600.4	
185.65	3895.2	
185.86	5279	
186.08	4848.2	
186.29	3106.8	
186.51	3331.4	
186.72	5026.4	
186.94	5940.5	
187.15	3910.9	
187.36	3938.9	
187.58	7658	
187.79	5421.7	
188.01	4150.5	
188.22	6425.8	
188.43	6537.8	
188.65	5655.1	
188.86	3319.1	
189.08	3915.7	
189.29	5179.3	
189.5	5130.2	
189.72	3615.3	
189.93	3810.6	
190.15	5937.1	
190.36	7023.2	
190.57	4087.1	
190.79	3854.3	
191	6053.8	
191.22	5954.1	
191.43	3989.4	
191.64	3300.6	
191.86	6190.3	
192.07	5947.3	
192.29	3520.5	
192.5	3675.4	
192.71	5916.6	
192.93	5141.1	
193.14	3689.1	
193.35	3737.5	
193.57	5162.2	
193.78	5889.3	
194	2984.6	
194.21	3620.8	
194.42	4926.7	
194.64	5437.4	
194.85	3906.8	
195.07	4650.9	
195.28	5437.4	
195.49	4663.2	
195.71	4861.2	
195.92	3443.3	
196.13	5626.5	
196.35	5656.5	
196.56	5171.8	
196.78	3983.3	
196.99	6953.5	
197.2	6546.7	
197.42	4513	
197.63	4022.2	
197.84	4821.6	
198.06	5515.2	
198.27	3695.2	
198.48	4879.6	
198.7	5130.8	
198.91	5267.4	
199.13	3994.9	
199.34	3975.1	
199.55	5816.2	
199.77	4727.4	
199.98	3521.1	
200.19	4084.3	
200.41	5196.4	
200.62	5044.1	
200.83	4153.3	
201.05	4491.9	
201.26	5305.6	
201.47	5001.8	
201.69	3556.6	
201.9	3480.9	
202.11	5360.9	
202.33	6322.1	
202.54	3790.8	
202.76	4296.6	
202.97	5439.4	
203.18	5480.4	
203.4	4171.7	
203.61	4051.6	
203.82	5420.3	
204.04	5108.3	
204.25	4040.6	
204.46	3987.4	
204.68	5379.3	
204.89	5612.1	
205.1	3900	
205.32	3370.3	
205.53	5771.2	
205.74	5887.9	
205.96	2909.5	
206.17	4120.5	
206.38	5755.5	
206.6	5804.6	
206.81	4573.8	
207.02	3765.5	
207.24	5577.3	
207.45	6012.2	
207.66	3804.4	
207.88	3264.5	
208.09	5614.8	
208.3	5383.4	
208.52	3497.9	
208.73	3842.7	
208.94	5412.8	
209.15	6068.1	
209.37	3830.4	
209.58	3999	
209.79	5896.8	
210.01	5179.3	
210.22	3059	
210.43	3155.2	
210.65	5372.5	
210.86	5757.5	
211.07	3863.8	
211.29	3545.7	
211.5	5703.6	
211.71	5355.4	
211.93	3493.2	
212.14	3535.5	
212.35	5275.6	
212.56	5508.4	
212.78	4063.2	
212.99	3357.3	
213.2	6335.7	
213.42	5182.7	
213.63	3638.6	
213.84	3921.2	
214.06	4801.8	
214.27	4833.9	
214.48	3719.8	
214.69	4060.4	
214.91	6029.2	
215.12	6172.6	
215.33	4119.8	
215.55	4545.1	
215.76	6632.7	
215.97	5690.6	
216.18	3976.5	
216.4	3825.6	
216.61	5076.2	
216.82	5876.3	
217.04	3585.3	
217.25	3684.3	
217.46	5986.9	
217.67	5767.8	
217.89	3177.8	
218.1	3278.8	
218.31	5423.7	
218.53	5547.9	
218.74	3761.4	
218.95	3580.5	
219.16	5343.2	
219.38	6258.6	
219.59	3633.8	
219.8	4346.5	
220.01	6864.8	
220.23	5365	
220.44	4685.1	
220.65	3532.7	
220.87	5446.9	
221.08	5989.6	
221.29	3244	
221.5	4345.8	
221.72	7270.3	
221.93	5103.5	
222.14	4098	
222.35	4721.9	
222.57	5364.3	
222.78	5723.4	
222.99	3812.6	
223.2	4175.8	
223.42	5709.1	
223.63	5823.1	
223.84	2953.2	
224.05	2973.7	
224.27	6798.6	
224.48	6232	
224.69	4723.3	
224.9	3990.1	
225.12	5509.7	
225.33	5313.1	
225.54	3234.4	
225.75	3601	
225.97	4983.4	
226.18	5249.6	
226.39	3915.7	
226.6	3577.8	
226.82	5134.9	
227.03	4939	
227.24	4031.1	
227.45	3272	
227.67	5781.4	
227.88	6287.3	
228.09	4431.8	
228.3	4476.2	
228.52	5765.7	
228.73	5360.9	
228.94	3757.3	
229.15	3345.7	
229.36	5302.2	
229.58	5238.7	
229.79	3781.9	
230	4402.5	
230.21	6391.7	
230.43	5483.8	
230.64	3997.6	
230.85	4159.4	
231.06	5778.7	
231.28	5788.9	
231.49	3338.2	
231.7	3886.4	
231.91	5652.4	
232.12	5397.8	
232.34	3381.9	
232.55	3906.8	
232.76	5971.2	
232.97	5576.6	
233.18	3506.8	
233.4	3993.5	
233.61	5597.8	
233.82	5057.1	
234.03	3680.2	
234.25	3624.9	
234.46	7395.9	
234.67	5421.7	
234.88	4092.5	
235.09	3616.7	
235.31	5639.4	
235.52	5198.4	
235.73	3979.9	
235.94	3366.9	
236.15	5071.5	
236.37	6500.3	
236.58	3521.8	
236.79	3863.2	
237	5678.3	
237.21	4902.2	
237.43	4161.5	
237.64	3250.8	
237.85	9673.9	
238.06	4946.5	
238.27	4239.3	
238.48	3349.8	
238.7	5677.7	
238.91	5271.5	
239.12	3811.3	
239.33	3825.6	
239.54	5148.6	
239.76	5256.5	
239.97	3857	
240.18	3867.2	
240.39	6738.5	
240.6	5652.4	
240.82	4003.8	
241.03	3242.6	
241.24	5409.4	
241.45	6209.4	
241.66	3472.7	
241.87	4135.5	
242.09	6130.9	
242.3	6468.9	
242.51	4196.3	
242.72	3917.1	
242.93	5841.5	
243.14	5365.7	
243.36	4399.7	
243.57	4793.6	
243.78	6234	
243.99	5739.1	
244.2	3925.3	
244.41	3523.9	
244.63	4916.5	
244.84	5632.6	
245.05	4084.3	
245.26	3861.8	
245.47	5651	
245.68	5929.6	
245.9	5162.2	
246.11	4043.4	
246.32	5173.9	
246.53	5634	
246.74	6211.5	
246.95	3267.2	
247.16	4921.3	
247.38	5344.5	
247.59	3272	
247.8	3908.2	
248.01	5056.4	
248.22	5292.6	
248.43	3539.6	
248.64	3764.2	
248.86	4784.7	
249.07	5129.5	
249.28	3393.5	
249.49	3968.3	
249.7	5927.5	
249.91	6029.2	
250.12	3190.7	
250.34	3297.2	
250.55	5518.6	
250.76	5313.8	
250.97	3895.2	
251.18	3998.3	
251.39	6115.9	
251.6	5561.6	
251.81	4072.7	
252.03	4054.3	
252.24	5079	
252.45	5836	
252.66	3315.7	
252.87	4256.4	
253.08	5443.5	
253.29	7066.9	
253.5	3377.8	
253.72	4657.8	
253.93	5219.6	
254.14	6369.2	
254.35	3678.2	
254.56	3766.2	
254.77	5686.5	
254.98	4999.8	
255.19	3646.1	
255.41	4631.1	
255.62	5515.9	
255.83	6070.9	
256.04	4102.1	
256.25	4060.4	
256.46	6659.3	
256.67	5068	
256.88	3981.3	
257.09	4455	
257.31	5086.5	
257.52	5120.6	
257.73	4977.9	
257.94	3646.7	
258.15	5253	
258.36	5423.7	
258.57	4569	
258.78	2925.9	
258.99	5866.1	
259.2	5161.6	
259.41	3699.3	
259.63	3765.5	
259.84	6229.9	
260.05	6607.4	
260.26	4839.4	
260.47	3599.6	
260.68	5945.3	
260.89	5277.6	
261.1	4414.7	
261.31	3506.1	
261.52	5912.5	
261.73	6295.5	
261.95	4756.7	
262.16	4164.2	
262.37	6027.9	
262.58	6169.8	
262.79	4736.3	
263	3779.2	
263.21	5446.9	
263.42	4947.9	
263.63	3816	
263.84	3702	
264.05	5958.2	
264.26	6325.5	
264.47	4620.9	
264.69	4177.2	
264.9	6047.7	
265.11	5567.7	
265.32	3571	
265.53	3660.4	
265.74	5506.3	
265.95	4806.6	
266.16	3943	
266.37	4329.4	
266.58	5502.2	
266.79	5192.3	
267	3633.8	
267.21	3407.8	
267.42	5024.3	
267.63	5363.6	
267.84	3814	
268.06	3308.8	
268.27	5836	
268.48	6092	
268.69	3749.1	
268.9	4456.4	
269.11	6066.1	
269.32	4840.7	
269.53	3897.3	
269.74	3590.1	
269.95	5689.9	
270.16	4764.9	
270.37	3910.3	
270.58	4485.7	
270.79	5212.8	
271	5926.8	
271.21	4153.3	
271.42	3875.4	
271.63	5534.3	
271.84	5003.2	
272.05	3115	
272.26	3494.5	
272.47	5382.7	
272.68	5588.2	
272.89	3677.5	
273.11	4257.7	
273.32	5169.1	
273.53	6326.2	
273.74	4169.7	
273.95	4076.1	
274.16	5992.4	
274.37	5419.6	
274.58	4283.7	
274.79	3365.5	
275	5525.4	
275.21	6081.1	
275.42	5129.5	
275.63	4372.4	
275.84	5647.6	
276.05	7148.1	
276.26	4094.6	
276.47	3816.7	
276.68	5298.8	
276.89	6356.2	
277.1	4393.6	
277.31	3436.5	
277.52	5653.1	
277.73	5842.2	
277.94	3306.1	
278.15	3741	
278.36	5599.8	
278.57	5099.4	
278.78	3709.6	
278.99	4157.4	
279.2	5057.8	
279.41	4966.3	
279.62	4763.6	
279.83	3424.2	
280.04	6560.3	
280.25	4911.7	
280.46	4814.1	
280.67	3871.3	
280.88	5038	
281.09	6053.1	
281.3	4050.9	
281.51	5189.6	
281.72	5914.5	
281.93	5839.4	
282.14	3610.6	
282.35	3904.8	
282.56	5911.1	
282.77	5821	
282.98	3687	
283.19	4571.1	
283.4	7168.6	
283.61	5331.5	
283.82	3340.9	
284.03	4800.4	
284.24	5480.4	
284.45	6003.3	
284.66	4704.2	
284.87	4556	
285.08	5980.8	
285.29	6124.8	
285.5	3316.3	
285.71	3743.7	
285.92	6017.6	
286.12	6651.8	
286.33	4673.5	
286.54	3777.1	
286.75	5840.8	
286.96	5236	
287.17	3421.5	
287.38	4683	
287.59	5024.4	
287.8	4978.6	
288.01	3803.8	
288.22	4354	
288.43	5969.8	
288.64	4924	
288.85	4476.2	
289.06	4301.4	
289.27	5853.8	
289.48	6331	
289.69	4774.5	
289.9	4394.3	
290.11	5984.8	
290.32	5127.4	
290.53	4517.8	
290.74	4222.9	
290.94	5842.9	
291.15	5911.1	
291.36	3689.1	
291.57	4265.2	
291.78	5172.5	
291.99	4809.3	
292.2	3515.7	
292.41	4186.7	
292.62	5929.6	
292.83	5705.6	
293.04	5167	
293.25	3444	
293.46	5190.9	
293.67	5984.2	
293.88	3597.6	
294.09	3476.8	
294.29	4983.4	
294.5	5504.3	
294.71	3868.6	
294.92	3719.8	
295.13	5175.2	
295.34	6470.2	
295.55	3274	
295.76	3371.6	
295.97	5815.5	
296.18	6559.6	
296.39	3415.3	
296.6	3596.2	
296.81	5494	
297.01	5812.8	
297.22	3805.8	
297.43	3565.5	
297.64	5026.4	
297.85	5022.3	
298.06	2992.1	
298.27	3278.1	
298.48	5384.1	
298.69	5132.2	
298.9	3935.5	
299.11	3534.1	
299.31	4942.4	
299.52	4917.2	
299.73	4190.8	
299.94	4053.6	
300.15	5382.7	
300.36	5008.6	
300.57	4142.4	
300.78	4094.6	
300.99	5296	
301.2	5486.5	
301.4	3599.6	
301.61	3938.9	
301.82	5711.1	
302.03	5799.8	
302.24	4434.5	
302.45	3436.5	
302.66	5648.3	
302.87	6133.7	
303.08	3614	
303.29	4992.9	
303.49	5159.5	
303.7	5399.1	
303.91	3234.4	
304.12	4653.7	
304.33	4889.9	
304.54	5538.4	
304.75	3659.7	
304.96	3507.5	
305.16	5692	
305.37	6437.4	
305.58	3158.7	
305.79	3298.6	
306	5724.8	
306.21	4837.3	
306.42	3630.4	
306.63	5513.8	
306.83	5246.9	
307.04	5950.7	
307.25	3961.5	
307.46	3938.2	
307.67	4648.9	
307.88	5853.1	
308.09	3566.2	
308.29	3697.9	
308.5	5496.7	
308.71	6021	
308.92	3838.6	
309.13	3525.2	
309.34	5332.9	
309.55	5279.7	
309.75	4467.3	
309.96	4166.9	
310.17	5815.5	
310.38	5074.2	
310.59	4290.5	
310.8	4071.4	
311.01	5284.4	
311.21	5231.2	
311.42	3430.3	
311.63	3583.3	
311.84	5117.2	
312.05	5480.4	
312.26	4070	
312.46	4385.4	
312.67	5223	
312.88	4958.8	
313.09	3512.9	
313.3	3423.5	
313.51	6129.6	
313.71	6518.7	
313.92	3500	
314.13	3685	
314.34	5618.9	
314.55	5338.4	
314.76	4514.4	
314.96	3951.9	
315.17	5515.9	
315.38	5816.9	
315.59	3517.7	
315.8	3329.3	
316.01	6277.7	
316.21	6253.8	
316.42	3392.8	
316.63	3900	
316.84	5269.4	
317.05	6087.2	
317.26	4069.3	
317.46	3688.4	
317.67	5328.8	
317.88	5812.1	
318.09	4470	
318.3	3319.1	
318.5	5113.1	
318.71	5712.5	
318.92	5718.6	
319.13	4096.6	
319.34	5896.1	
319.54	6059.3	
319.75	3305.4	
319.96	3106.8	
320.17	5778.7	
320.38	5922.7	
320.58	3194.8	
320.79	3835.2	
321	5941.8	
321.21	6105.7	
321.42	3862.5	
321.62	3208.5	
321.83	5026.4	
322.04	5384.1	
322.25	3719.8	
322.46	3542.3	
322.66	5523.4	
322.87	5623	
323.08	4388.8	
323.29	3471.3	
323.5	6441.5	
323.7	4948.6	
323.91	4758.1	
324.12	4332.8	
324.33	5487.2	
324.53	5726.1	
324.74	4055.7	
324.95	4381.3	
325.16	4860.5	
325.37	5203.9	
325.57	3586.7	
325.78	3636.5	
325.99	5423	
326.2	4880.3	
326.4	5128.1	
326.61	3267.2	
326.82	5343.8	
327.03	5528.8	
327.24	4963.6	
327.44	4741	
327.65	5681.1	
327.86	4612	
328.07	4084.3	
328.27	3428.3	
328.48	6097.5	
328.69	4984.8	
328.9	5003.9	
329.1	3771.7	
329.31	5326.1	
329.52	6238.8	
329.73	3496.6	
329.93	3997	
330.14	5483.1	
330.35	5656.5	
330.56	5718.6	
330.76	4330.8	
330.97	5192.3	
331.18	5606	
331.39	3926.6	
331.59	3207.1	
331.8	5973.2	
332.01	6164.4	
332.22	3629	
332.42	4083	
332.63	5562.3	
332.84	5098.8	
333.05	3973.1	
333.25	3562.8	
333.46	5143.1	
333.67	5421.7	
333.88	3710.2	
334.08	4053.6	
334.29	7180.9	
334.5	6083.1	
334.7	3396.2	
334.91	5014.8	
335.12	4956.8	
335.33	5775.3	
335.53	3887	
335.74	5769.8	
335.95	5201.2	
336.16	4992.3	
336.36	3838.6	
336.57	4478.2	
336.78	4931.5	
336.98	6002.6	
337.19	4777.9	
337.4	3878.9	
337.61	6507.1	
337.81	4926.7	
338.02	3603.7	
338.23	4649.6	
338.43	6127.5	
338.64	5081.7	
338.85	3531.4	
339.05	4661.2	
339.26	6236.7	
339.47	4857.8	
339.68	3531.4	
339.88	5207.3	
340.09	5646.9	
340.3	5941.8	
340.5	4154.6	
340.71	3183.9	
340.92	4917.2	
341.13	6084.5	
341.33	3390.1	
341.54	4158.7	
341.75	5643.5	
341.95	5291.3	
342.16	4000.4	
342.37	4332.8	
342.57	5038.7	
342.78	5357.5	
342.99	4417.5	
343.19	3152.5	
343.4	5883.8	
343.61	5651	
343.81	3806.5	
344.02	3478.1	
344.23	5849	
344.43	6243.6	
344.64	4315.8	
344.85	4257.7	
345.06	5689.3	
345.26	5991	
345.47	4093.9	
345.68	4772.4	
345.88	4789.5	
346.09	5888.6	
346.3	4102.1	
346.5	3151.1	
346.71	5401.2	
346.92	5080.3	
347.12	3247.4	
347.33	4044.1	
347.54	5907	
347.74	6317.3	
347.95	4087.1	
348.16	3039.2	
348.36	5247.6	
348.57	4909.7	
348.78	4003.1	
348.98	4317.1	
349.19	5381.4	
349.39	4861.2	
349.6	3276.1	
349.81	3573	
350.01	5660.6	
350.22	5163.6	
350.43	3895.9	
350.63	4781.3	
350.84	5454.4	
351.05	5193.6	
351.25	3543	
351.46	3241.3	
351.67	6009.4	
351.87	5144.5	
352.08	3831.1	
352.29	4358.8	
352.49	5868.1	
352.7	5995.1	
352.9	3472	
353.11	4278.2	
353.32	6578.1	
353.52	5253.7	
353.73	3454.2	
353.94	4405.2	
354.14	5723.4	
354.35	5550.7	
354.55	3542.3	
354.76	3973.7	
354.97	5710.4	
355.17	5457.2	
355.38	3356.6	
355.59	4653	
355.79	5122.7	
356	5530.9	
356.2	3889.8	
356.41	3430.3	
356.62	4921.3	
356.82	5373.9	
357.03	4153.3	
357.24	3760.1	
357.44	5144.5	
357.65	5279	
357.85	5027.8	
358.06	3953.9	
358.27	4891.9	
358.47	5087.2	
358.68	3352.5	
358.88	4141	
359.09	5746.6	
359.3	6093.4	
359.5	4874.8	
359.71	4318.5	
359.91	6476.4	
360.12	5870.2	
360.33	4207.9	
360.53	4614.8	
360.74	5188.2	
360.94	5168.4	
361.15	4370.4	
361.36	3562.1	
361.56	5949.3	
361.77	5418.9	
361.97	4907.6	
362.18	3850.2	
362.38	5907.7	
362.59	5072.1	
362.8	3645.4	
363	3400.3	
363.21	4873.5	
363.41	5569.8	
363.62	4095.9	
363.83	5137.7	
364.03	5651.7	
364.24	6593.1	
364.44	5196.4	
364.65	5130.8	
364.85	5359.5	
365.06	5243.5	
365.27	3764.8	
365.47	3769.6	
365.68	6305.7	
365.88	5410.7	
366.09	4174.4	
366.29	3870.7	
366.5	5626.5	
366.71	6090.7	
366.91	5155.4	
367.12	4375.1	
367.32	6682.5	
367.53	5930.9	
367.73	4261.1	
367.94	5257.8	
368.14	5825.1	
368.35	6780.1	
368.56	4274.1	
368.76	4114.4	
368.97	5934.3	
369.17	7652.6	
369.38	3758	
369.58	4089.8	
369.79	5072.1	
369.99	6343.9	
370.2	5035.3	
370.4	4158.1	
370.61	5686.5	
370.82	6912.6	
371.02	4111	
371.23	3434.4	
371.43	5033.2	
371.64	6324.1	
371.84	4143.7	
372.05	5366.4	
372.25	7548.1	
372.46	6042.9	
372.66	4166.3	
372.87	4095.9	
373.07	6102.3	
373.28	7595.2	
373.48	5184.1	
373.69	4869.4	
373.9	5556.8	
374.1	5659.2	
374.31	5143.1	
374.51	4631.8	
374.72	6482.5	
374.92	5315.8	
375.13	5310.4	
375.33	4536.9	
375.54	6063.4	
375.74	5507.7	
375.95	4561.5	
376.15	5799.2	
376.36	6041.5	
376.56	5928.2	
376.77	4728.8	
376.97	5140.4	
377.18	7158.3	
377.38	6272.2	
377.59	5435.3	
377.79	4255.7	
378	5991	
378.2	6463.4	
378.41	4312.3	
378.61	4196.3	
378.82	6496.2	
379.02	5623	
379.23	4513.7	
379.43	5584.8	
379.64	6520	
379.84	6143.9	
380.05	4222.9	
380.25	4243.4	
380.46	6290.7	
380.66	5838.1	
380.87	5629.9	
381.07	5920.7	
381.28	6917.4	
381.48	6245.6	
381.69	4325.3	
381.89	4350.6	
382.1	5259.9	
382.3	6410.8	
382.51	5347.9	
382.71	6324.8	
382.91	6282.5	
383.12	6798.6	
383.32	4674.8	
383.53	4864.6	
383.73	6115.9	
383.94	5945.9	
384.14	4843.4	
384.35	3943.7	
384.55	5885.2	
384.76	6344.6	
384.96	4668	
385.17	4904.2	
385.37	6313.2	
385.58	5558.9	
385.78	4973.8	
385.98	3833.8	
386.19	5783.5	
386.39	6238.8	
386.6	4395.6	
386.8	4709	
387.01	6281.1	
387.21	6394.4	
387.42	5139.7	
387.62	5691.3	
387.83	5721.3	
388.03	6349.4	
388.23	4756.1	
388.44	5590.3	
388.64	5393.7	
388.85	5562.3	
389.05	5190.2	
389.26	5790.3	
389.46	7436.2	
389.67	6813.6	
389.87	5085.8	
390.07	5225.7	
390.28	6068.8	
390.48	5649.7	
390.69	4443.4	
390.89	4721.3	
391.1	5862.7	
391.3	6733	
391.5	5924.1	
391.71	6516	
391.91	6509.1	
392.12	7501.7	
392.32	5902.9	
392.53	5164.3	
392.73	5925.5	
392.93	6093.4	
393.14	4883.7	
393.34	5656.5	
393.55	6516	
393.75	6060.6	
393.95	4909	
394.16	4823.6	
394.36	5889.3	
394.57	6597.2	
394.77	4431.8	
394.98	4880.3	
395.18	5891.3	
395.38	6056.5	
395.59	5766.4	
395.79	4792.2	
396	6091.3	
396.2	6567.8	
396.4	5668.8	
396.61	5517.2	
396.81	6725.5	
397.02	6078.4	
397.22	5857.2	
397.42	5947.3	
397.63	6871.6	
397.83	6087.9	
398.04	4691.9	
398.24	5287.2	
398.44	6625.9	
398.65	5752.7	
398.85	4622.3	
399.05	4794.3	
399.26	6146.6	
399.46	7817.1	
399.67	5227.1	
399.87	4894.6	
400.07	6490	
400.28	6898.2	
400.48	5091.9	
400.69	6187.6	
400.89	7111.9	
401.09	7483.3	
401.3	4961.5	
401.5	6052.4	
401.7	7848.5	
401.91	8043.7	
402.11	5350	
402.32	5532.9	
402.52	7087.3	
402.72	6933.7	
402.93	5654.4	
403.13	4549.2	
403.33	7752.2	
403.54	6387.6	
403.74	5346.6	
403.94	6214.2	
404.15	6627.2	
404.35	7782.3	
404.56	5274.2	
404.76	7074.4	
404.96	7148.1	
405.17	6914.6	
405.37	6230.6	
405.57	5726.1	
405.78	7195.9	
405.98	6675.7	
406.18	5355.4	
406.39	6280.4	
406.59	7138.5	
406.79	6840.2	
407	5164.3	
407.2	5279.7	
407.4	7277.8	
407.61	7405.5	
407.81	5397.1	
408.01	6964.5	
408.22	6496.2	
408.42	8366.6	
408.62	6642.9	
408.83	6187.6	
409.03	7200	
409.23	7120.8	
409.44	6304.3	
409.64	6671.6	
409.84	8319.5	
410.05	8230.8	
410.25	6636.1	
410.45	6361	
410.66	7866.9	
410.86	10195	
411.06	7009.5	
411.27	6849.8	
411.47	10184	
411.67	8137.3	
411.88	7016.3	
412.08	7367.9	
412.28	8771.5	
412.49	9223.4	
412.69	6982.9	
412.89	6993.8	
413.09	9131.2	
413.3	9050.7	
413.5	7128.3	
413.7	6792.4	
413.91	8316.8	
414.11	9199.5	
414.31	7111.9	
414.52	7525.6	
414.72	8914.8	
414.92	8914.8	
415.12	7060.7	
415.33	7649.2	
415.53	9331.2	
415.73	9489.6	
415.94	8033.5	
416.14	7421.8	
416.34	8441.7	
416.55	8084	
416.75	8695.7	
416.95	8110	
417.15	9493	
417.36	10064	
417.56	9017.9	
417.76	8018.5	
417.97	9871.9	
418.17	9517.6	
418.37	7550.2	
418.57	7693.5	
418.78	9263.6	
418.98	8944.2	
419.18	8539.3	
419.38	8478.6	
419.59	9092.3	
419.79	8524.3	
419.99	7600	
420.2	8013.7	
420.4	9614.5	
420.6	9697.8	
420.8	7553.6	
421.01	7386.3	
421.21	9518.3	
421.41	9612.5	
421.61	7978.2	
421.82	7714.7	
422.02	8966.7	
422.22	9856.2	
422.42	8541.4	
422.63	7880.6	
422.83	9060.9	
423.03	10324	
423.23	8043.1	
423.44	7064.1	
423.64	9170.8	
423.84	8740.7	
424.04	7566.6	
424.25	7221.1	
424.45	10003	
424.65	9871.9	
424.85	7047.7	
425.06	7563.8	
425.26	10045	
425.46	8953.7	
425.66	7965.2	
425.87	7789.1	
426.07	9669.8	
426.27	9610.4	
426.47	7864.9	
426.67	7209.5	
426.88	10051	
427.08	9522.4	
427.28	8174.8	
427.48	7129	
427.69	8387.1	
427.89	9174.2	
428.09	8210.3	
428.29	7324.9	
428.5	9861	
428.7	9503.9	
428.9	7212.3	
429.1	7829.4	
429.3	9360.6	
429.51	9779.1	
429.71	7507.2	
429.91	8430.1	
430.11	9766.8	
430.31	10030	
430.52	7890.1	
430.72	8333.2	
430.92	10333	
431.12	9807	
431.32	7808.9	
431.53	8048.5	
431.73	8818.6	
431.93	10527	
432.13	7665.5	
432.33	7601.4	
432.54	9243.2	
432.74	9787.2	
432.94	7694.9	
433.14	8622.6	
433.34	9826.8	
433.55	9587.2	
433.75	8589.2	
433.95	10550	
434.15	9834.3	
434.35	9513.5	
434.56	7875.8	
434.76	7630	
434.96	9927.2	
435.16	10226	
435.36	7912	
435.56	9019.3	
435.77	9690.3	
435.97	9820	
436.17	9849.4	
436.37	9127.1	
436.57	9719.7	
436.78	9770.9	
436.98	10744	
437.18	9574.3	
437.38	10509	
437.58	9719	
437.78	9652.8	
437.99	8320.2	
438.19	10188	
438.39	11035	
438.59	8289.5	
438.79	7770	
438.99	10994	
439.2	9901.2	
439.4	8014.4	
439.6	8120.9	
439.8	10430	
440	11467	
440.2	9275.3	
440.4	9478.7	
440.61	10963	
440.81	11481	
441.01	8676.6	
441.21	9702.6	
441.41	11568	
441.61	10969	
441.81	9893.1	
442.02	10959	
442.22	11891	
442.42	11123	
442.62	8822	
442.82	8799.4	
443.02	11594	
443.22	10867	
443.43	9460.3	
443.63	8857.5	
443.83	10576	
444.03	10592	
444.23	10319	
444.43	9785.9	
444.63	11084	
444.83	12103	
445.04	9207.7	
445.24	10410	
445.44	11349	
445.64	11295	
445.84	9654.8	
446.04	9801.6	
446.24	10565	
446.44	11525	
446.65	9007	
446.85	9419.3	
447.05	10451	
447.25	11531	
447.45	9501.9	
447.65	8936	
447.85	10948	
448.05	10547	
448.25	10048	
448.46	9841.2	
448.66	11041	
448.86	10668	
449.06	9002.2	
449.26	10055	
449.46	11585	
449.66	10511	
449.86	9772.2	
450.06	9697.1	
450.26	10836	
450.47	11411	
450.67	9748.3	
450.87	10315	
451.07	11454	
451.27	11358	
451.47	9244.5	
451.67	9981.1	
451.87	11075	
452.07	12035	
452.27	9759.9	
452.47	9491.7	
452.67	11260	
452.88	12042	
453.08	8896.4	
453.28	11101	
453.48	12723	
453.68	11235	
453.88	9768.8	
454.08	9986.6	
454.28	12127	
454.48	11660	
454.68	10701	
454.88	10907	
455.08	12079	
455.28	12134	
455.48	9667.1	
455.68	10535	
455.89	12876	
456.09	12542	
456.29	10235	
456.49	10483	
456.69	12959	
456.89	12075	
457.09	11049	
457.29	11703	
457.49	12580	
457.69	12863	
457.89	11321	
458.09	10471	
458.29	12716	
458.49	13357	
458.69	11751	
458.89	11144	
459.09	13754	
459.29	13704	
459.49	11084	
459.69	12041	
459.9	13253	
460.1	12973	
460.3	11026	
460.5	10963	
460.7	13358	
460.9	13009	
461.1	10768	
461.3	12247	
461.5	14291	
461.7	13885	
461.9	11681	
462.1	11963	
462.3	13674	
462.5	14210	
462.7	11759	
462.9	12088	
463.1	15334	
463.3	15360	
463.5	12390	
463.7	13655	
463.9	14160	
464.1	14534	
464.3	12966	
464.5	12859	
464.7	14895	
464.9	14922	
465.1	14440	
465.3	13426	
465.5	15253	
465.7	15413	
465.9	14002	
466.1	13315	
466.3	15657	
466.5	15190	
466.7	14863	
466.9	13533	
467.1	15400	
467.3	16243	
467.5	14984	
467.7	13757	
467.9	16621	
468.1	17571	
468.3	14555	
468.5	15143	
468.7	15618	
468.9	15525	
469.1	14302	
469.3	15150	
469.5	17626	
469.7	15345	
469.9	14592	
470.1	14160	
470.3	15668	
470.5	15579	
470.7	15234	
470.9	13930	
471.1	15578	
471.3	15664	
471.5	13975	
471.69	15831	
471.89	15244	
472.09	14846	
472.29	14844	
472.49	14839	
472.69	15268	
472.89	15915	
473.09	13805	
473.29	13655	
473.49	15300	
473.69	15376	
473.89	14971	
474.09	13999	
474.29	16559	
474.49	16220	
474.69	14915	
474.89	14201	
475.09	15350	
475.29	15529	
475.49	13522	
475.69	13898	
475.88	16883	
476.08	15554	
476.28	13412	
476.48	13764	
476.68	15941	
476.88	15819	
477.08	13741	
477.28	14255	
477.48	15242	
477.68	15924	
477.88	13775	
478.08	13969	
478.28	16341	
478.48	15591	
478.67	14098	
478.87	13293	
479.07	16510	
479.27	15569	
479.47	14252	
479.67	14406	
479.87	16208	
480.07	16700	
480.27	13694	
480.47	15266	
480.67	15874	
480.87	16767	
481.06	13894	
481.26	14929	
481.46	15832	
481.66	15890	
481.86	14440	
482.06	15461	
482.26	15557	
482.46	16559	
482.66	14522	
482.86	14283	
483.05	16336	
483.25	15536	
483.45	17098	
483.65	14846	
483.85	15997	
484.05	16161	
484.25	15306	
484.45	15873	
484.65	17182	
484.84	17496	
485.04	15014	
485.24	14917	
485.44	17504	
485.64	16025	
485.84	14416	
486.04	15937	
486.24	16568	
486.44	16956	
486.63	14653	
486.83	15339	
487.03	16733	
487.23	16991	
487.43	14729	
487.63	17359	
487.83	17154	
488.02	18108	
488.22	16041	
488.42	16793	
488.62	17928	
488.82	17061	
489.02	15627	
489.22	16131	
489.41	17915	
489.61	17776	
489.81	15566	
490.01	15576	
490.21	18058	
490.41	18618	
490.61	15522	
490.8	15677	
491	17365	
491.2	16509	
491.4	16166	
491.6	15221	
491.8	17333	
491.99	17495	
492.19	15289	
492.39	15702	
492.59	18314	
492.79	18430	
492.99	17066	
493.18	16219	
493.38	18815	
493.58	19871	
493.78	17230	
493.98	16921	
494.18	18695	
494.37	18504	
494.57	17975	
494.77	17768	
494.97	19637	
495.17	20112	
495.37	17714	
495.56	17985	
495.76	20360	
495.96	19867	
496.16	18910	
496.36	17945	
496.55	20259	
496.75	19772	
496.95	18323	
497.15	18357	
497.35	20138	
497.54	20360	
497.74	18157	
497.94	19939	
498.14	21229	
498.34	20922	
498.53	18289	
498.73	19054	
498.93	20268	
499.13	20854	
499.33	19077	
499.52	19471	
499.72	21085	
499.92	21204	
500.12	18806	
500.32	19074	
500.51	21052	
500.71	21102	
500.91	20016	
501.11	19559	
501.31	21143	
501.5	21373	
501.7	20270	
501.9	19294	
502.1	20861	
502.29	21180	
502.49	19646	
502.69	19886	
502.89	20950	
503.09	21093	
503.28	18320	
503.48	18496	
503.68	20004	
503.88	20172	
504.07	19460	
504.27	18731	
504.47	20499	
504.67	20373	
504.86	19242	
505.06	18946	
505.26	19835	
505.46	21559	
505.65	18604	
505.85	18741	
506.05	19744	
506.25	20009	
506.44	17929	
506.64	18677	
506.84	19423	
507.04	20194	
507.23	17984	
507.43	18468	
507.63	21599	
507.83	19904	
508.02	18349	
508.22	18141	
508.42	21771	
508.62	19602	
508.81	18186	
509.01	19164	
509.21	19349	
509.4	19720	
509.6	18732	
509.8	18200	
510	19830	
510.19	21539	
510.39	18152	
510.59	18330	
510.79	19667	
510.98	21255	
511.18	18415	
511.38	18608	
511.57	20576	
511.77	20406	
511.97	18910	
512.17	17815	
512.36	20465	
512.56	20249	
512.76	18113	
512.95	17926	
513.15	20590	
513.35	19416	
513.55	19270	
513.74	18226	
513.94	20753	
514.14	20067	
514.33	19297	
514.53	19267	
514.73	20099	
514.92	20306	
515.12	18845	
515.32	18558	
515.51	20635	
515.71	21195	
515.91	20337	
516.11	18894	
516.3	22423	
516.5	20274	
516.7	19201	
516.89	19905	
517.09	20377	
517.29	20139	
517.48	19716	
517.68	19048	
517.88	20263	
518.07	20857	
518.27	19735	
518.47	18746	
518.66	21471	
518.86	20081	
519.06	18404	
519.25	18952	
519.45	20493	
519.65	22192	
519.84	19514	
520.04	20421	
520.24	22173	
520.43	20758	
520.63	19207	
520.83	18867	
521.02	20145	
521.22	20644	
521.42	19310	
521.61	20015	
521.81	20459	
522.01	20624	
522.2	19673	
522.4	19254	
522.6	21388	
522.79	20620	
522.99	19660	
523.18	19486	
523.38	21694	
523.58	21967	
523.77	21752	
523.97	19921	
524.17	23975	
524.36	23272	
524.56	21453	
524.76	21198	
524.95	22692	
525.15	22207	
525.34	21067	
525.54	21219	
525.74	23140	
525.93	22139	
526.13	22525	
526.33	21513	
526.52	23675	
526.72	23380	
526.91	23050	
527.11	22245	
527.31	24074	
527.5	24708	
527.7	22375	
527.89	21504	
528.09	23350	
528.29	24241	
528.48	22967	
528.68	22543	
528.87	24393	
529.07	23971	
529.27	22193	
529.46	21551	
529.66	23360	
529.85	23851	
530.05	21203	
530.25	22199	
530.44	25090	
530.64	23597	
530.83	22180	
531.03	22588	
531.23	24408	
531.42	24317	
531.62	23760	
531.81	23006	
532.01	25165	
532.21	25677	
532.4	23283	
532.6	23745	
532.79	26264	
532.99	25731	
533.18	23951	
533.38	24645	
533.58	25484	
533.77	26086	
533.97	24388	
534.16	24838	
534.36	26568	
534.55	25567	
534.75	24957	
534.95	24180	
535.14	26734	
535.34	25436	
535.53	23539	
535.73	25620	
535.92	26911	
536.12	25319	
536.31	23668	
536.51	24920	
536.71	25632	
536.9	25413	
537.1	23724	
537.29	24376	
537.49	26257	
537.68	25484	
537.88	24795	
538.07	23782	
538.27	25859	
538.46	26919	
538.66	23814	
538.86	24395	
539.05	26015	
539.25	26250	
539.44	24692	
539.64	23862	
539.83	25565	
540.03	26553	
540.22	23781	
540.42	23716	
540.61	25563	
540.81	25920	
541	24045	
541.2	25225	
541.39	25217	
541.59	25557	
541.78	24888	
541.98	23418	
542.18	24688	
542.37	24588	
542.57	23592	
542.76	24381	
542.96	24174	
543.15	25100	
543.35	23255	
543.54	22667	
543.74	24911	
543.93	24722	
544.13	23096	
544.32	24205	
544.52	24931	
544.71	24066	
544.91	22266	
545.1	23388	
545.3	24197	
545.49	24869	
545.69	22215	
545.88	22775	
546.08	25930	
546.27	25269	
546.47	23203	
546.66	22567	
546.86	24853	
547.05	25546	
547.24	22762	
547.44	22726	
547.63	23782	
547.83	25061	
548.02	22916	
548.22	23147	
548.41	23556	
548.61	24681	
548.8	22255	
549	22274	
549.19	23872	
549.39	24480	
549.58	21749	
549.78	22266	
549.97	24222	
550.17	23713	
550.36	23051	
550.55	24281	
550.75	23758	
550.94	24436	
551.14	21884	
551.33	22107	
551.53	23068	
551.72	24170	
551.92	22334	
552.11	21991	
552.31	24017	
552.5	24083	
552.69	23598	
552.89	21344	
553.08	23923	
553.28	23450	
553.47	21908	
553.67	22960	
553.86	24424	
554.06	22809	
554.25	21099	
554.44	21743	
554.64	24981	
554.83	24617	
555.03	21661	
555.22	21917	
555.42	24003	
555.61	23528	
555.8	21489	
556	22138	
556.19	22646	
556.39	23878	
556.58	21827	
556.78	21669	
556.97	23480	
557.16	23322	
557.36	22933	
557.55	21426	
557.75	22245	
557.94	24266	
558.13	21386	
558.33	21234	
558.52	23990	
558.72	22803	
558.91	21178	
559.1	21456	
559.3	22418	
559.49	22032	
559.69	20753	
559.88	21554	
560.07	23093	
560.27	23577	
560.46	21685	
560.66	21758	
560.85	22938	
561.04	22027	
561.24	20989	
561.43	20945	
561.63	22263	
561.82	22571	
562.01	22571	
562.21	21488	
562.4	23154	
562.59	24320	
562.79	21370	
562.98	21325	
563.18	23234	
563.37	24961	
563.56	22046	
563.76	21447	
563.95	22930	
564.14	22898	
564.34	21891	
564.53	21529	
564.73	23451	
564.92	24090	
565.11	22237	
565.31	21512	
565.5	24055	
565.69	23042	
565.89	21798	
566.08	22040	
566.27	24075	
566.47	24676	
566.66	22771	
566.85	21500	
567.05	23885	
567.24	23223	
567.44	21734	
567.63	23249	
567.82	24010	
568.02	23744	
568.21	21747	
568.4	22382	
568.6	23931	
568.79	23905	
568.98	21854	
569.18	22166	
569.37	24212	
569.56	26029	
569.76	22625	
569.95	23667	
570.14	24329	
570.34	24495	
570.53	21984	
570.72	22078	
570.91	24908	
571.11	23963	
571.3	22479	
571.49	23508	
571.69	24249	
571.88	23745	
572.07	23302	
572.27	23077	
572.46	23747	
572.65	24882	
572.85	22756	
573.04	23213	
573.23	25199	
573.43	24530	
573.62	22786	
573.81	23449	
574	24971	
574.2	24851	
574.39	23387	
574.58	23606	
574.78	26045	
574.97	25251	
575.16	23983	
575.36	24278	
575.55	25858	
575.74	26008	
575.93	23271	
576.13	24572	
576.32	25092	
576.51	25856	
576.71	23667	
576.9	25108	
577.09	26026	
577.28	25562	
577.48	24200	
577.67	23313	
577.86	25459	
578.05	25961	
578.25	24359	
578.44	24126	
578.63	25692	
578.83	26775	
579.02	23487	
579.21	25184	
579.4	25729	
579.6	25803	
579.79	24247	
579.98	26575	
580.17	26374	
580.37	26552	
580.56	23760	
580.75	24714	
580.94	27011	
581.14	26741	
581.33	25333	
581.52	24195	
581.71	26430	
581.91	27110	
582.1	24025	
582.29	24371	
582.48	26297	
582.68	26292	
582.87	25116	
583.06	24829	
583.25	26528	
583.45	26331	
583.64	25679	
583.83	26241	
584.02	25993	
584.21	26541	
584.41	25427	
584.6	24891	
584.79	26398	
584.98	27220	
585.18	24296	
585.37	24264	
585.56	25860	
585.75	26518	
585.94	23995	
586.14	25032	
586.33	26796	
586.52	25951	
586.71	24501	
586.91	24049	
587.1	24962	
587.29	25947	
587.48	23596	
587.67	23735	
587.87	25712	
588.06	25682	
588.25	24728	
588.44	24006	
588.63	24903	
588.83	25297	
589.02	22831	
589.21	22541	
589.4	23668	
589.59	23397	
589.78	20788	
589.98	20949	
590.17	22270	
590.36	22969	
590.55	19849	
590.74	20403	
590.94	23969	
591.13	22410	
591.32	20564	
591.51	20349	
591.7	23151	
591.89	22762	
592.09	20507	
592.28	21121	
592.47	21984	
592.66	24099	
592.85	20607	
593.05	20964	
593.24	22583	
593.43	23700	
593.62	21173	
593.81	21659	
594	22945	
594.19	23103	
594.39	20727	
594.58	20777	
594.77	22948	
594.96	23442	
595.15	20521	
595.34	21209	
595.54	22691	
595.73	21805	
595.92	19871	
596.11	20828	
596.3	23264	
596.49	22087	
596.68	20711	
596.88	21282	
597.07	23053	
597.26	21825	
597.45	20113	
597.64	21633	
597.83	22018	
598.02	22930	
598.22	20313	
598.41	21060	
598.6	22517	
598.79	21977	
598.98	20265	
599.17	21457	
599.36	22553	
599.55	23545	
599.74	22464	
599.94	22347	
600.13	22945	
600.32	21748	
600.51	20065	
600.7	20351	
600.89	23450	
601.08	23627	
601.27	20124	
601.47	21168	
601.66	22707	
601.85	23565	
602.04	20826	
602.23	20859	
602.42	21943	
602.61	22459	
602.8	20562	
602.99	20160	
603.18	22279	
603.37	22691	
603.57	21098	
603.76	21660	
603.95	23206	
604.14	22919	
604.33	20564	
604.52	21024	
604.71	22763	
604.9	22158	
605.09	21313	
605.28	21232	
605.47	23128	
605.66	22831	
605.86	21022	
606.05	20513	
606.24	23025	
606.43	21601	
606.62	20849	
606.81	21528	
607	22892	
607.19	22268	
607.38	20032	
607.57	20457	
607.76	21814	
607.95	21467	
608.14	20701	
608.33	21201	
608.52	21707	
608.72	22844	
608.91	19902	
609.1	19932	
609.29	21928	
609.48	21214	
609.67	20647	
609.86	19758	
610.05	21282	
610.24	21707	
610.43	19756	
610.62	19275	
610.81	22737	
611	22567	
611.19	19740	
611.38	20402	
611.57	21957	
611.76	23355	
611.95	19377	
612.14	19171	
612.33	21617	
612.52	21218	
612.71	20035	
612.9	19262	
613.09	20887	
613.28	23262	
613.47	19597	
613.66	20826	
613.85	21804	
614.04	21222	
614.24	19970	
614.43	19080	
614.62	22029	
614.81	21901	
615	20312	
615.19	20555	
615.38	21229	
615.57	21907	
615.76	20258	
615.95	21338	
616.14	22040	
616.33	21794	
616.52	20663	
616.71	21042	
616.9	22069	
617.09	22164	
617.28	20209	
617.47	21489	
617.66	21493	
617.85	21694	
618.04	21572	
618.22	20883	
618.41	22253	
618.6	23256	
618.79	21087	
618.98	20959	
619.17	23708	
619.36	21964	
619.55	21281	
619.74	21117	
619.93	23117	
620.12	22731	
620.31	22013	
620.5	22304	
620.69	23934	
620.88	24344	
621.07	22895	
621.26	22089	
621.45	23616	
621.64	23903	
621.83	22227	
622.02	21422	
622.21	23658	
622.4	23446	
622.59	22952	
622.78	22715	
622.97	23102	
623.16	24298	
623.35	22186	
623.54	21473	
623.72	23416	
623.91	23764	
624.1	22494	
624.29	21408	
624.48	24858	
624.67	23853	
624.86	22601	
625.05	21588	
625.24	24840	
625.43	23424	
625.62	24374	
625.81	21882	
626	24223	
626.19	23767	
626.38	22873	
626.56	21999	
626.75	23441	
626.94	24325	
627.13	22439	
627.32	21192	
627.51	24122	
627.7	25204	
627.89	21258	
628.08	22615	
628.27	22925	
628.46	23225	
628.65	21590	
628.83	21324	
629.02	23521	
629.21	23224	
629.4	22040	
629.59	22338	
629.78	23247	
629.97	24103	
630.16	22392	
630.35	21878	
630.54	24461	
630.72	24106	
630.91	21831	
631.1	22360	
631.29	23716	
631.48	23967	
631.67	22320	
631.86	21789	
632.05	23276	
632.24	23536	
632.42	21522	
632.61	22106	
632.8	23371	
632.99	23033	
633.18	22169	
633.37	22476	
633.56	23789	
633.75	23600	
633.93	22268	
634.12	21983	
634.31	24384	
634.5	24386	
634.69	21913	
634.88	22272	
635.07	23481	
635.25	24014	
635.44	22572	
635.63	22960	
635.82	23191	
636.01	22667	
636.2	22470	
636.39	22106	
636.57	24205	
636.76	23902	
636.95	21605	
637.14	22853	
637.33	23569	
637.52	24604	
637.7	21324	
637.89	22104	
638.08	23078	
638.27	24586	
638.46	22126	
638.65	22447	
638.83	24146	
639.02	22709	
639.21	21840	
639.4	22279	
639.59	23050	
639.78	22390	
639.96	20949	
640.15	20874	
640.34	22760	
640.53	22869	
640.72	20494	
640.91	20740	
641.09	22055	
641.28	23267	
641.47	20990	
641.66	21612	
641.85	22689	
642.03	22522	
642.22	21263	
642.41	20765	
642.6	22042	
642.79	21179	
642.97	20037	
643.16	20970	
643.35	21703	
643.54	21392	
643.73	19905	
643.91	20703	
644.1	20882	
644.29	21674	
644.48	19534	
644.67	19746	
644.85	20850	
645.04	21143	
645.23	18721	
645.42	19131	
645.6	20058	
645.79	21140	
645.98	18583	
646.17	17604	
646.36	19537	
646.54	19761	
646.73	18938	
646.92	17707	
647.11	19166	
647.29	20215	
647.48	17811	
647.67	17342	
647.86	20385	
648.05	20686	
648.23	18132	
648.42	19450	
648.61	19996	
648.8	19910	
648.98	17732	
649.17	18166	
649.36	19389	
649.55	19028	
649.73	17905	
649.92	18594	
650.11	19214	
650.3	19460	
650.48	17838	
650.67	17419	
650.86	19587	
651.05	18522	
651.23	17702	
651.42	17671	
651.61	19127	
651.79	18938	
651.98	17763	
652.17	17307	
652.36	19185	
652.54	18302	
652.73	17122	
652.92	17057	
653.11	19077	
653.29	19023	
653.48	16281	
653.67	17123	
653.85	18585	
654.04	19441	
654.23	16901	
654.42	16169	
654.6	17232	
654.79	17862	
654.98	15409	
655.16	15866	
655.35	16775	
655.54	16666	
655.73	15492	
655.91	15635	
656.1	18173	
656.29	17129	
656.47	15388	
656.66	17098	
656.85	17613	
657.03	17735	
657.22	16249	
657.41	16363	
657.59	17780	
657.78	17649	
657.97	16049	
658.16	16911	
658.34	18417	
658.53	18935	
658.72	17641	
658.9	18247	
659.09	17983	
659.28	18151	
659.46	16614	
659.65	16557	
659.84	17834	
660.02	18296	
660.21	16472	
660.4	16326	
660.58	18854	
660.77	18155	
660.96	16955	
661.14	16033	
661.33	19185	
661.52	18976	
661.7	15938	
661.89	19607	
662.08	17561	
662.26	17256	
662.45	16148	
662.64	16131	
662.82	18153	
663.01	17578	
663.2	16112	
663.38	16892	
663.57	18042	
663.75	17871	
663.94	16517	
664.13	17389	
664.31	17375	
664.5	18168	
664.69	16631	
664.87	17180	
665.06	17030	
665.25	17911	
665.43	17381	
665.62	17352	
665.8	18111	
665.99	17381	
666.18	16403	
666.36	16442	
666.55	17980	
666.74	17892	
666.92	15857	
667.11	17331	
667.29	17462	
667.48	17996	
667.67	16994	
667.85	16052	
668.04	17374	
668.22	17492	
668.41	16165	
668.6	16253	
668.78	17141	
668.97	17445	
669.15	16330	
669.34	15429	
669.53	17176	
669.71	17403	
669.9	15541	
670.08	16201	
670.27	17272	
670.46	17617	
670.64	16463	
670.83	16744	
671.01	16871	
671.2	17518	
671.38	15703	
671.57	15489	
671.76	18219	
671.94	18854	
672.13	15567	
672.31	16464	
672.5	17886	
672.69	17204	
672.87	15626	
673.06	16077	
673.24	17625	
673.43	17154	
673.61	16292	
673.8	15885	
673.98	17701	
674.17	17868	
674.36	16551	
674.54	16256	
674.73	17458	
674.91	17681	
675.1	16055	
675.28	15681	
675.47	17354	
675.65	17954	
675.84	15844	
676.03	16337	
676.21	16927	
676.4	16610	
676.58	16503	
676.77	16488	
676.95	18363	
677.14	16998	
677.32	15532	
677.51	15405	
677.69	17752	
677.88	16638	
678.06	15431	
678.25	15522	
678.44	17321	
678.62	16922	
678.81	15189	
678.99	16361	
679.18	18054	
679.36	17709	
679.55	15758	
679.73	16422	
679.92	17531	
680.1	17154	
680.29	17058	
680.47	15754	
680.66	16799	
680.84	17650	
681.03	15109	
681.21	16050	
681.4	16935	
681.58	16750	
681.77	15449	
681.95	15298	
682.14	17644	
682.32	18058	
682.51	16281	
682.69	15044	
682.88	16519	
683.06	17079	
683.25	15849	
683.43	16232	
683.62	16742	
683.8	17220	
683.99	16077	
684.17	15180	
684.36	17353	
684.54	15696	
684.73	13621	
684.91	13545	
685.1	15501	
685.28	14901	
685.46	13923	
685.65	14040	
685.83	15779	
686.02	14959	
686.2	13475	
686.39	13858	
686.57	14959	
686.76	16800	
686.94	13916	
687.13	14173	
687.31	15906	
687.5	15630	
687.68	13715	
687.86	14913	
688.05	17505	
688.23	15266	
688.42	15194	
688.6	14508	
688.79	15859	
688.97	15814	
689.16	15139	
689.34	13761	
689.52	16721	
689.71	16725	
689.89	15283	
690.08	14461	
690.26	15945	
690.45	15945	
690.63	15140	
690.81	14546	
691	15578	
691.18	15584	
691.37	14425	
691.55	16546	
691.74	15343	
691.92	17270	
692.1	14515	
692.29	13701	
692.47	15652	
692.66	15042	
692.84	14070	
693.02	14693	
693.21	15391	
693.39	15810	
693.58	15050	
693.76	14624	
693.94	17276	
694.13	17141	
694.31	14956	
694.5	16083	
694.68	16190	
694.86	16599	
695.05	15380	
695.23	15459	
695.42	16919	
695.6	19121	
695.78	15986	
695.97	14836	
696.15	16933	
696.34	16186	
696.52	14408	
696.7	15201	
696.89	16298	
697.07	15683	
697.25	15021	
697.44	16490	
697.62	16177	
697.81	16470	
697.99	14631	
698.17	15075	
698.36	15337	
698.54	16110	
698.72	15061	
698.91	13974	
699.09	15616	
699.28	15474	
699.46	14442	
699.64	14351	
699.83	15427	
700.01	16409	
700.19	15223	
700.38	13838	
700.56	16720	
700.74	15802	
700.93	14205	
701.11	15227	
701.29	16427	
701.48	17459	
701.66	14666	
701.84	14704	
702.03	15927	
702.21	16801	
702.39	14082	
702.58	14898	
702.76	16387	
702.94	16466	
703.13	14087	
703.31	16633	
703.49	15638	
703.68	16615	
703.86	14291	
704.04	15439	
704.23	16160	
704.41	16550	
704.59	14407	
704.78	15599	
704.96	17341	
705.14	16541	
705.33	14412	
705.51	14935	
705.69	15933	
705.87	16625	
706.06	15310	
706.24	14225	
706.42	16188	
706.61	16518	
706.79	15268	
706.97	14105	
707.16	15489	
707.34	16161	
707.52	15178	
707.7	14362	
707.89	15668	
708.07	15358	
708.25	15201	
708.44	15397	
708.62	15537	
708.8	16635	
708.98	15267	
709.17	14338	
709.35	15923	
709.53	15839	
709.72	14062	
709.9	14133	
710.08	15931	
710.26	15924	
710.45	15362	
710.63	14095	
710.81	15587	
710.99	15549	
711.18	14563	
711.36	13992	
711.54	15337	
711.72	15843	
711.91	13825	
712.09	13185	
712.27	14980	
712.45	15483	
712.64	13581	
712.82	12547	
713	13912	
713.18	13967	
713.37	12115	
713.55	13080	
713.73	14107	
713.91	12341	
714.1	11538	
714.28	10808	
714.46	12803	
714.64	11968	
714.83	9618.6	
715.01	10274	
715.19	11449	
715.37	10722	
715.55	9776.3	
715.74	10063	
715.92	12097	
716.1	10090	
716.28	11128	
716.47	9966.1	
716.65	10701	
716.83	10727	
717.01	9851.4	
717.19	10005	
717.38	13050	
717.56	10664	
717.74	10484	
717.92	9798.8	
718.1	12306	
718.29	11660	
718.47	9840.5	
718.65	10531	
718.83	12734	
719.01	12712	
719.2	10065	
719.38	11235	
719.56	12485	
719.74	13880	
719.92	10480	
720.11	11323	
720.29	11946	
720.47	10938	
720.65	9508	
720.83	10252	
721.02	10858	
721.2	10669	
721.38	10025	
721.56	9288.9	
721.74	10090	
721.92	10243	
722.11	10423	
722.29	10150	
722.47	11415	
722.65	10687	
722.83	9195.4	
723.01	10017	
723.2	10777	
723.38	11097	
723.56	8704.5	
723.74	9861.7	
723.92	10202	
724.1	11516	
724.29	9050	
724.47	10215	
724.65	10314	
724.83	10144	
725.01	9009	
725.19	9871.2	
725.37	10232	
725.56	10254	
725.74	8751.7	
725.92	9075.9	
726.1	10159	
726.28	10388	
726.46	9383.8	
726.64	9121	
726.83	10387	
727.01	10639	
727.19	8711.4	
727.37	9650.7	
727.55	10557	
727.73	11055	
727.91	8743.5	
728.09	8657.4	
728.28	11267	
728.46	11776	
728.64	9897.2	
728.82	9895.8	
729	12542	
729.18	11796	
729.36	9367.4	
729.54	11650	
729.72	13076	
729.91	11407	
730.09	11518	
730.27	10393	
730.45	11374	
730.63	12209	
730.81	11003	
730.99	10256	
731.17	12592	
731.35	11153	
731.53	10554	
731.71	10144	
731.9	12214	
732.08	12308	
732.26	10327	
732.44	9930.6	
732.62	12390	
732.8	11980	
732.98	10652	
733.16	9602.9	
733.34	11914	
733.52	10555	
733.7	10091	
733.88	10382	
734.07	11542	
734.25	11481	
734.43	9607.7	
734.61	11223	
734.79	13005	
734.97	11279	
735.15	9725.1	
735.33	10095	
735.51	11557	
735.69	11246	
735.87	11222	
736.05	10258	
736.23	11497	
736.41	11370	
736.59	10105	
736.77	10243	
736.95	12107	
737.13	11432	
737.32	9813.9	
737.5	10042	
737.68	12495	
737.86	11244	
738.04	9574.3	
738.22	11474	
738.4	10856	
738.58	11221	
738.76	10038	
738.94	9136	
739.12	11131	
739.3	11082	
739.48	10930	
739.66	10562	
739.84	11435	
740.02	11402	
740.2	9258.2	
740.38	9505.3	
740.56	11854	
740.74	10621	
740.92	10180	
741.1	10162	
741.28	11090	
741.46	10976	
741.64	9582.4	
741.82	10133	
742	11058	
742.18	11042	
742.36	9878	
742.54	9399.5	
742.72	11596	
742.9	10293	
743.08	10131	
743.26	8927.1	
743.44	11737	
743.62	11478	
743.8	10211	
743.98	9321	
744.16	11120	
744.34	10915	
744.52	10029	
744.7	9916.9	
744.88	11120	
745.06	10665	
745.24	9944.9	
745.42	10092	
745.6	11277	
745.78	10802	
745.96	8653.4	
746.14	8960.5	
746.32	11913	
746.5	11062	
746.68	9454.1	
746.86	8904.6	
747.03	11563	
747.21	9818.6	
747.39	9349	
747.57	8890.2	
747.75	10589	
747.93	11028	
748.11	8841.8	
748.29	8825.4	
748.47	12252	
748.65	10327	
748.83	9647.3	
749.01	9403.6	
749.19	10887	
749.37	10013	
749.55	9177.6	
749.73	9197.4	
749.91	10391	
750.09	10096	
750.26	9263	
750.44	8619.2	
750.62	10449	
750.8	10509	
750.98	8544.8	
751.16	8902.5	
751.34	10541	
751.52	9819.3	
751.7	9723.8	
751.88	8381.7	
752.06	10979	
752.24	10800	
752.42	8456.7	
752.59	8750.3	
752.77	10316	
752.95	11564	
753.13	9546.9	
753.31	8862.9	
753.49	9966.8	
753.67	10389	
753.85	9073.2	
754.03	8669.7	
754.21	10519	
754.38	10852	
754.56	8495.7	
754.74	7598.6	
754.92	9351.7	
755.1	9940.8	
755.28	6949.4	
755.46	6589.7	
755.64	9518.3	
755.82	9269.1	
755.99	5767.1	
756.17	5686.5	
756.35	6094.8	
756.53	7544.7	
756.71	4219.5	
756.89	5195.7	
757.07	7280.5	
757.25	6403.3	
757.42	6256.5	
757.6	7289.4	
757.78	7973.4	
757.96	7061.4	
758.14	6303.6	
758.32	5829.2	
758.5	6498.2	
758.67	7261.4	
758.85	5869.5	
759.03	6064.7	
759.21	7356.3	
759.39	6867.5	
759.57	5485.8	
759.75	6767.9	
759.92	8228.1	
760.1	7570	
760.28	7280.5	
760.46	7643.7	
760.64	7521.5	
760.82	7359	
760.99	7539.9	
761.17	6673.6	
761.35	8711.4	
761.53	7708.6	
761.71	6985.6	
761.89	7771.4	
762.06	8817.2	
762.24	8342.1	
762.42	7365.2	
762.6	7166.5	
762.78	8606.2	
762.96	9270.5	
763.13	7946.8	
763.31	7574.1	
763.49	9557.2	
763.67	8609	
763.85	8519.6	
764.02	9037	
764.2	9740.8	
764.38	8946.2	
764.56	7455.3	
764.74	8256.7	
764.91	9878	
765.09	8665.6	
765.27	7136.5	
765.45	6901.7	
765.63	9823.4	
765.8	9666.4	
765.98	6664.8	
766.16	6968.6	
766.34	8158.4	
766.52	7892.9	
766.69	7944.8	
766.87	6662.7	
767.05	8575.5	
767.23	9278	
767.41	6933.7	
767.58	7154.2	
767.76	8892.3	
767.94	9058.2	
768.12	6906.4	
768.29	7644.4	
768.47	8363.9	
768.65	9142.8	
768.83	6447.7	
769	7614.3	
769.18	7815.7	
769.36	8546.9	
769.54	7482.6	
769.72	6393.8	
769.89	8725.7	
770.07	8829.5	
770.25	6627.2	
770.43	7900.4	
770.6	9379.7	
770.78	9799.5	
770.96	6714.6	
771.14	7337.2	
771.31	8428.1	
771.49	7789.8	
771.67	5884.5	
771.85	6123.4	
772.02	7083.2	
772.2	7759.1	
772.38	6746	
772.55	6186.9	
772.73	7922.9	
772.91	7722.2	
773.09	6523.5	
773.26	6584.2	
773.44	7785.7	
773.62	7503.8	
773.8	5879.7	
773.97	5705	
774.15	7746.8	
774.33	7399.3	
774.5	5784.1	
774.68	6124.1	
774.86	7873.8	
775.04	7277.1	
775.21	5745.2	
775.39	5653.8	
775.57	7479.2	
775.74	7905.8	
775.92	5511.1	
776.1	5356.8	
776.27	7385.7	
776.45	8729.8	
776.63	5632.6	
776.81	5061.9	
776.98	7028.6	
777.16	8011.7	
777.34	5703.6	
777.51	5601.9	
777.69	6834.1	
777.87	6670.9	
778.04	5666.7	
778.22	6206	
778.4	6630.6	
778.57	7233.4	
778.75	4802.5	
778.93	5130.2	
779.1	6311.2	
779.28	6206.7	
779.46	4773.8	
779.64	5218.2	
779.81	7294.2	
779.99	8214.4	
780.17	6052.4	
780.34	6158.2	
780.52	6685.9	
780.69	6901	
780.87	5461.2	
781.05	5033.9	
781.22	6720.1	
781.4	6798.6	
781.58	5019.6	
781.75	4182	
781.93	6654.5	
782.11	6148.7	
782.28	5896.1	
782.46	4971.1	
782.64	5794.4	
782.81	6895.5	
782.99	5152.7	
783.17	5071.5	
783.34	6614.9	
783.52	5872.2	
783.69	5173.2	
783.87	5978	
784.05	5785.5	
784.22	5862	
784.4	5991.7	
784.58	5208.7	
784.75	6771.9	
784.93	5868.1	
785.1	4800.4	
785.28	5459.2	
785.46	6468.9	
785.63	5784.1	
785.81	4764.9	
785.99	4631.8	
786.16	5928.9	
786.34	6264.7	
786.51	4657.8	
786.69	4997.7	
786.87	5444.2	
787.04	5930.9	
787.22	4372.4	
787.39	5380.7	
787.57	5696.8	
787.75	6724.2	
787.92	5544.5	
788.1	5487.2	
788.27	5783.5	
788.45	5474.2	
788.63	5220.3	
788.8	3894.6	
788.98	6019	
789.15	5290.6	
789.33	4022.9	
789.5	4651.6	
789.68	6488	
789.86	6617.7	
790.03	5040.7	
790.21	4474.1	
790.38	6423.1	
790.56	5682.4	
790.73	4283.7	
790.91	4401.8	
791.09	5540.4	
791.26	6304.3	
791.44	4455.7	
791.61	3938.9	
791.79	5476.3	
791.96	5574.6	
792.14	4067.3	
792.32	3662.5	
792.49	5518.6	
792.67	5669.5	
792.84	4106.9	
793.02	3893.9	
793.19	5924.8	
793.37	6685.3	
793.54	3580.5	
793.72	4016.1	
793.89	6844.3	
794.07	5511.8	
794.25	4635.9	
794.42	3684.3	
794.6	6484.6	
794.77	6148	
794.95	4842.1	
795.12	4271.4	
795.3	5400.5	
795.47	6076.3	
795.65	4640	
795.82	4466.6	
796	5285.8	
796.17	7074.4	
796.35	4353.3	
796.52	4962.9	
796.7	5948.7	
796.87	6043.6	
797.05	5202.5	
797.22	5062.6	
797.4	5950	
797.57	7006.8	
797.75	4391.5	
797.92	4138.3	
798.1	6328.2	
798.27	5308.3	
798.45	3606.5	
798.62	3857.7	
798.8	5674.2	
798.97	6173.9	
799.15	4630.5	
799.32	4394.3	
799.5	4944.5	
799.67	5736.4	
799.85	4752	
800.02	3521.1	
800.2	5244.2	
800.37	5644.9	
800.55	4937.7	
800.72	4078.9	
800.9	6079.7	
801.07	6599.2	
801.25	5406.6	
801.42	4541	
801.6	6128.9	
801.77	5804.6	
801.95	4208.6	
802.12	4005.8	
802.29	5773.2	
802.47	5763.7	
802.64	4458.4	
802.82	3351.8	
802.99	5256.5	
803.17	6287.9	
803.34	4339	
803.52	3906.2	
803.69	6924.9	
803.87	4962.2	
804.04	4281.6	
804.21	4370.4	
804.39	6366.5	
804.56	5444.9	
804.74	3674.1	
804.91	4461.8	
805.09	5199.8	
805.26	5330.2	
805.44	3758.7	
805.61	4042.7	
805.78	5881.1	
805.96	5926.8	
806.13	4530.8	
806.31	4709.6	
806.48	4721.3	
806.66	5355.4	
806.83	4364.9	
807	4325.3	
807.18	5186.8	
807.35	5606	
807.53	4209.3	
807.7	3407.1	
807.87	6353.5	
808.05	5221	
808.22	4681.7	
808.4	3469.9	
808.57	5214.8	
808.74	4819.6	
808.92	3917.1	
809.09	4940.4	
809.27	5095.3	
809.44	5668.8	
809.61	3462.4	
809.79	3812	
809.96	6310.5	
810.14	5924.1	
810.31	3366.2	
810.48	4113.7	
810.66	5302.2	
810.83	5975.3	
811.01	3920.5	
811.18	4303.5	
811.35	5943.2	
811.53	4633.2	
811.7	4711.7	
811.87	4427	
812.05	5147.2	
812.22	5048.2	
812.39	3711.6	
812.57	3654.3	
812.74	5233.9	
812.92	6875	
813.09	4089.1	
813.26	4433.2	
813.44	6618.4	
813.61	5084.4	
813.78	3403.7	
813.96	4540.3	
814.13	5199.8	
814.3	4839.4	
814.48	4860.5	
814.65	4128	
814.82	6412.9	
815	4918.5	
815.17	4148.5	
815.34	5139.7	
815.52	5149.3	
815.69	5126.1	
815.87	4154.6	
816.04	3579.8	
816.21	5182	
816.38	4608.6	
816.56	3973.1	
816.73	3791.5	
816.9	6520	
817.08	5887.9	
817.25	3794.2	
817.42	4759.5	
817.6	4713.1	
817.77	5206.6	
817.94	4238.6	
818.12	3714.3	
818.29	4958.8	
818.46	7670.3	
818.64	3970.3	
818.81	3703.4	
818.98	4840.7	
819.16	7053.2	
819.33	4524	
819.5	4224.3	
819.67	5660.6	
819.85	6208.1	
820.02	4036.5	
820.19	4334.9	
820.37	5410.7	
820.54	4917.2	
820.71	4248.9	
820.88	5194.3	
821.06	5429.8	
821.23	4988.9	
821.4	4313	
821.58	4184.7	
821.75	5928.2	
821.92	5285.8	
822.09	3416	
822.27	3524.6	
822.44	5166.3	
822.61	5082.4	
822.79	3449.5	
822.96	6503	
823.13	5692	
823.3	4869.4	
823.48	3921.9	
823.65	3560.7	
823.82	5840.8	
823.99	4700.1	
824.17	4943.8	
824.34	3662.5	
824.51	6846.4	
824.68	5257.8	
824.86	3711.6	
825.03	4243.4	
825.2	5190.2	
825.37	6287.3	
825.55	3703.4	
825.72	4179.2	
825.89	6820.4	
826.06	6439.5	
826.24	4116.4	
826.41	4101.4	
826.58	6279.8	
826.75	5496.7	
826.92	3243.3	
827.1	3568.9	
827.27	8505.2	
827.44	6731.7	
827.61	3845.4	
827.79	4653.7	
827.96	4928.1	
828.13	5235.3	
828.3	4016.1	
828.47	3427.6	
828.65	5405.3	
828.82	5399.1	
828.99	5240.1	
829.16	4613.4	
829.34	5712.5	
829.51	5530.9	
829.68	4166.3	
829.85	4325.3	
830.02	6082.5	
830.2	5789.6	
830.37	3304.7	
830.54	5005.2	
830.71	6605.4	
830.88	5123.3	
831.05	3338.2	
831.23	3800.3	
831.4	6296.1	
831.57	7090.1	
831.74	3904.1	
831.91	3448.1	
832.09	5381.4	
832.26	5773.9	
832.43	4005.8	
832.6	4507.6	
832.77	5450.3	
832.94	6212.9	
833.12	3197.6	
833.29	3971	
833.46	5585.5	
833.63	7319.4	
833.8	4363.5	
833.97	4044.1	
834.15	5857.9	
834.32	5578.7	
834.49	4150.6	
834.66	4259.8	
834.83	6007.4	
835	4828.4	
835.17	3808.5	
835.35	3914.4	
835.52	5726.8	
835.69	5614.8	
835.86	4016.1	
836.03	3379.8	
836.2	5715.2	
836.37	5354.1	
836.55	4008.6	
836.72	3734.1	
836.89	5343.8	
837.06	5786.9	
837.23	4078.2	
837.4	4384.7	
837.57	6619	
837.75	7303.7	
837.92	3659.7	
838.09	3891.1	
838.26	5357.5	
838.43	6122.1	
838.6	4185.4	
838.77	3792.2	
838.94	6776	
839.11	6621.1	
839.29	4031.1	
839.46	3188	
839.63	5730.2	
839.8	5513.1	
839.97	3873.4	
840.14	3839.3	
840.31	5547.3	
840.48	5817.6	
840.65	3275.4	
840.82	3818.1	
841	5693.4	
841.17	5710.4	
841.34	3591.5	
841.51	3651.5	
841.68	5707	
841.85	5418.9	
842.02	3694.5	
842.19	3130	
842.36	5479	
842.53	5494	
842.7	3609.2	
842.87	4372.4	
843.05	7204.8	
843.22	5414.8	
843.39	3402.4	
843.56	3713.7	
843.73	5201.8	
843.9	5809.4	
844.07	5767.1	
844.24	4792.2	
844.41	8393.9	
844.58	4976.6	
844.75	3431.7	
844.92	3730.7	
845.09	5732.3	
845.26	5745.2	
845.43	3579.2	
845.6	3788.1	
845.77	5728.9	
845.94	5472.9	
846.12	3976.5	
846.29	4174.4	
846.46	5915.9	
846.63	5634	
846.8	3566.9	
846.97	4264.6	
847.14	6242.9	
847.31	5659.9	
847.48	4022.2	
847.65	4405.2	
847.82	5950.7	
847.99	5965.1	
848.16	4763.6	
848.33	4319.8	
848.5	5253	
848.67	6279.1	
848.84	3481.5	
849.01	3697.9	
849.18	5148.6	
849.35	4806.6	
849.52	4408.6	
849.69	3443.3	
849.86	5896.8	
850.03	6128.9	
850.2	3571	
850.37	4330.1	
850.54	6044.2	
850.71	5408.7	
850.88	4216.8	
851.05	3507.5	
851.22	5659.9	
851.39	6280.4	
851.56	3351.8	
851.73	4044.7	
851.9	5051.7	
852.07	5989.6	
852.24	3898	
852.41	3572.3	
852.58	5609.4	
852.75	5101.5	
852.92	3957.4	
853.09	3539.6	
853.26	5369.1	
853.43	6160.3	
853.6	3550.5	
853.77	2998.2	
853.94	6315.3	
854.11	5736.4	
854.28	5238.7	
854.44	3842	
854.61	6671.6	
854.78	5821	
854.95	3525.9	
855.12	4419.5	
855.29	4660.5	
855.46	6397.2	
855.63	3516.4	
855.8	4868.7	
855.97	5287.2	
856.14	6101.6	
856.31	4982.7	
856.48	3863.2	
856.65	5274.2	
856.82	4985.4	
856.99	3415.3	
857.16	3835.8	
857.33	6895.5	
857.49	5354.1	
857.66	3835.8	
857.83	4087.7	
858	5404.6	
858.17	5496.1	
858.34	3353.2	
858.51	3530	
858.68	6371.2	
858.85	6464.8	
859.02	4084.3	
859.19	4378.6	
859.36	4975.9	
859.52	5049.6	
859.69	3545	
859.86	4158.7	
860.03	5117.9	
860.2	6339.8	
860.37	3260.4	
860.54	3590.8	
860.71	5969.1	
860.88	6373.3	
861.05	3962.1	
861.21	4449.6	
861.38	6363	
861.55	4899.4	
861.72	3194.1	
861.89	3956.7	
862.06	5973.9	
862.23	6499.6	
862.4	3471.3	
862.56	3698.6	
862.73	5803.9	
862.9	5503.6	
863.07	4132.1	
863.24	3226.2	
863.41	4858.5	
863.58	5044.1	
863.75	3609.9	
863.91	4113	
864.08	6335	
864.25	5883.8	
864.42	4418.8	
864.59	4911	
864.76	6653.9	
864.93	5055.1	
865.09	3435.1	
865.26	3751.9	
865.43	6234	
865.6	6541.9	
865.77	3061.7	
865.94	3509.5	
866.1	6264.7	
866.27	6008.7	
866.44	5279	
866.61	3362.1	
866.78	5431.9	
866.95	5864.7	
867.11	3426.9	
867.28	3177.8	
867.45	6027.9	
867.62	5123.3	
867.79	4097.3	
867.96	3528.7	
868.12	4984.8	
868.29	5969.1	
868.46	3544.4	
868.63	4645.5	
868.8	6096.8	
868.97	5954.8	
869.13	3698.6	
869.3	3631.7	
869.47	5819.6	
869.64	6022.4	
869.81	3484.3	
869.97	3534.8	
870.14	5728.2	
870.31	6384.2	
870.48	3471.3	
870.65	4373.1	
870.81	5350	
870.98	5273.5	
871.15	3996.3	
871.32	3735.5	
871.48	5790.3	
871.65	6382.8	
871.82	3534.1	
871.99	3884.3	
872.16	6867.5	
872.32	6227.2	
872.49	3566.9	
872.66	3506.8	
872.83	5918.6	
872.99	5217.5	
873.16	4031.8	
873.33	3471.3	
873.5	5562.3	
873.67	5611.4	
873.83	3683.6	
874	4731.5	
874.17	5667.4	
874.34	6780.8	
874.5	4461.8	
874.67	4371.7	
874.84	6361	
875.01	4982.7	
875.17	4967	
875.34	3453.6	
875.51	5661.3	
875.68	6764.4	
875.84	4237.9	
876.01	5100.1	
876.18	5857.2	
876.34	5841.5	
876.51	3528.7	
876.68	3455.6	
876.85	5420.3	
877.01	6214.2	
877.18	4896.7	
877.35	3438.5	
877.52	5472.2	
877.68	4913.8	
877.85	3396.9	
878.02	3485	
878.18	5509	
878.35	5162.2	
878.52	2821.4	
878.69	3900	
878.85	5884.5	
879.02	5888.6	
879.19	4946.5	
879.35	3804.4	
879.52	5847.6	
879.69	6032.6	
879.86	3025.5	
880.02	3921.9	
880.19	5439.4	
880.36	6664.8	
880.52	4053.6	
880.69	4102.8	
880.86	5991	
881.02	6062	
881.19	3896.6	
881.36	3846.8	
881.52	5877	
881.69	5233.9	
881.86	3735.5	
882.02	3700.7	
882.19	6186.2	
882.36	7146.7	
882.52	3586	
882.69	4956.8	
882.86	5629.2	
883.02	5567.7	
883.19	4259.8	
883.36	4006.5	
883.52	6007.4	
883.69	6812.2	
883.86	3570.3	
884.02	3164.1	
884.19	6011.5	
884.36	5462.6	
884.52	3999.7	
884.69	3798.3	
884.86	5214.8	
885.02	6574.7	
885.19	3932.1	
885.36	4138.9	
885.52	5459.9	
885.69	5646.2	
885.86	5096.7	
886.02	4479.6	
886.19	5980.1	
886.35	5391.6	
886.52	3879.5	
886.69	4969.1	
886.85	5015.5	
887.02	6327.5	
887.19	6327.5	
887.35	6327.5	
887.52	6327.5	
887.68	6327.5	
887.85	6327.5	
888.02	6327.5	
888.18	6327.5	
888.35	6327.5	
888.51	6327.5	
888.68	6327.5	
888.85	6327.5	
889.01	6327.5	
889.18	6327.5	
889.35	6327.5	
889.51	6327.5	
889.68	6327.5	
889.84	6327.5	
890.01	6327.5	
890.17	6327.5	
890.34	6327.5	
890.51	6327.5	
890.67	6327.5	
890.84	6327.5	
891	6327.5	
891.17	6327.5	
891.34	6327.5	
891.5	6327.5	
891.67	6327.5	
891.83	6327.5	
892	6327.5	
892.16	6327.5	
892.33	6327.5	
892.5	6327.5	
892.66	6327.5	
892.83	6327.5	
892.99	6327.5	
893.16	6327.5	
893.32	6327.5	
893.49	6327.5	
893.65	6327.5	
893.82	6327.5	
893.99	6327.5	
894.15	6327.5	
894.32	6327.5	
894.48	6327.5	
894.65	6327.5	
894.81	6327.5	
894.98	6327.5	
895.14	6327.5	
895.31	6327.5	
895.47	6327.5	
895.64	6327.5	
895.81	6327.5	
895.97	6327.5	
896.14	6327.5	
896.3	6327.5	
896.47	6327.5	
896.63	6327.5	
896.8	6327.5	
896.96	6327.5	
897.13	6327.5	
897.29	6327.5	
897.46	6327.5	
897.62	6327.5	
897.79	6327.5	
897.95	6327.5	
898.12	6327.5	
898.28	6327.5	
898.45	6327.5	
898.61	6327.5	
898.78	6327.5	
898.94	6327.5	
899.11	6327.5	
899.27	6327.5	
899.44	6327.5	
899.6	6327.5	
899.77	6327.5	
899.93	6327.5	
900.1	6327.5	
900.26	6327.5	
900.43	6327.5	
900.59	6327.5	
900.76	6327.5	
900.92	6327.5	
901.09	6327.5	
901.25	6327.5	
901.42	6327.5	
901.58	6327.5	
901.75	6327.5	
901.91	6327.5	
902.07	6327.5	
902.24	6327.5	
902.4	6327.5	
902.57	6327.5	
902.73	6327.5	
902.9	6327.5	
903.06	6327.5	
903.23	6327.5	
903.39	6327.5	
903.56	6327.5	
903.72	6327.5	
903.88	6327.5	
904.05	6327.5	
904.21	6327.5	
904.38	6327.5	
904.54	6327.5	
904.71	6327.5	
904.87	6327.5	
905.03	6327.5	
905.2	6327.5	
905.36	6327.5	
905.53	6327.5	
905.69	6327.5	
905.86	6327.5	
906.02	6327.5	
906.18	6327.5	
906.35	6327.5	
906.51	6327.5	
906.68	6327.5	
906.84	6327.5	
907.01	6327.5	
907.17	6327.5	
907.33	6327.5	
907.5	6327.5	
907.66	6327.5	
907.83	6327.5	
907.99	6327.5	
908.15	6327.5	
908.32	6327.5	
908.48	6327.5	
908.65	6327.5	
908.81	6327.5	
908.97	6327.5	
909.14	6327.5	
909.3	6327.5	
909.47	6327.5	
909.63	6327.5	
909.79	6327.5	
909.96	6327.5	
910.12	6327.5	
910.28	6327.5	
910.45	6327.5	
910.61	6327.5	
910.78	6327.5	
910.94	6327.5	
911.1	6327.5	
911.27	6327.5	
911.43	6327.5	
911.59	6327.5	
911.76	6327.5	
911.92	6327.5	
912.08	6327.5	
912.25	6327.5	
912.41	6327.5	
912.57	6327.5	
912.74	6327.5	
912.9	6327.5	
913.07	6327.5	
913.23	6327.5	
913.39	6327.5	
913.56	6327.5	
913.72	6327.5	
913.88	6327.5	
914.05	6327.5	
914.21	6327.5	
914.37	6327.5	
914.54	6327.5	
914.7	6327.5	
914.86	6327.5	
915.03	6327.5	
915.19	6327.5	
