Wavelength	Intensities	
nm	a.u.	
179.22	1597.1	
179.44	1604.2	
179.65	1589.9	
179.86	1618.6	
180.08	1607.7	
180.29	3681.6	
180.51	2903.3	
180.72	4713.7	
180.94	5277.6	
181.15	2589.3	
181.37	2568.2	
181.58	4578.6	
181.79	4736.3	
182.01	2626.9	
182.22	2783.9	
182.44	4816.8	
182.65	4169	
182.87	3407.8	
183.08	3048.1	
183.29	5001.8	
183.51	4213.4	
183.72	2801.6	
183.94	3837.2	
184.15	4534.9	
184.37	4499.4	
184.58	2514.9	
184.79	3224.2	
185.01	4294.6	
185.22	4825	
185.44	3363.4	
185.65	2925.9	
185.86	4534.2	
186.08	4156	
186.29	2514.2	
186.51	2641.2	
186.72	4301.4	
186.94	4899.4	
187.15	3007.8	
187.36	3036.5	
187.58	6030.6	
187.79	4620.9	
188.01	3060.3	
188.22	4564.9	
188.43	5264	
188.65	4753.3	
188.86	2691	
189.08	3091.1	
189.29	4341	
189.5	4354	
189.72	2841.2	
189.93	2875.3	
190.15	4919.2	
190.36	5578	
190.57	3050.1	
190.79	2981.8	
191	4905.6	
191.22	4858.5	
191.43	3052.2	
191.64	2604.3	
191.86	5074.2	
192.07	4866	
192.29	2773.6	
192.5	2831	
192.71	4922.6	
192.93	4349.2	
193.14	2776.4	
193.35	2825.5	
193.57	4363.5	
193.78	4916.5	
194	2328.5	
194.21	2740.2	
194.42	4198.3	
194.64	4508.9	
194.85	2962.7	
195.07	3426.3	
195.28	4488.5	
195.49	4073.4	
195.71	3609.2	
195.92	2699.2	
196.13	4658.4	
196.35	4711.7	
196.56	3807.9	
196.78	3050.8	
196.99	5543.2	
197.2	5221	
197.42	3335.5	
197.63	3031.7	
197.84	4160.8	
198.06	4679.6	
198.27	2816	
198.48	3517.7	
198.7	4409.3	
198.91	4606.6	
199.13	3028.3	
199.34	3005.7	
199.55	4923.3	
199.77	3953.9	
199.98	2705.4	
200.19	3065.1	
200.41	4494.6	
200.62	4232.5	
200.83	3093.1	
201.05	3366.9	
201.26	5109	
201.47	4317.8	
201.69	2727.2	
201.9	2676.7	
202.11	4478.2	
202.33	5117.9	
202.54	2875.3	
202.76	3169.6	
202.97	4569	
203.18	4638.6	
203.4	3123.8	
203.61	3160	
203.82	4534.2	
204.04	4292.5	
204.25	3059	
204.46	3003.7	
204.68	4542.4	
204.89	4704.2	
205.1	3032.4	
205.32	2676.7	
205.53	4738.3	
205.74	4826.4	
205.96	2345.6	
206.17	3059	
206.38	4698	
206.6	4863.9	
206.81	3402.4	
207.02	2859	
207.24	4719.2	
207.45	4972.5	
207.66	2936.1	
207.88	2607.1	
208.09	4603.8	
208.3	4536.9	
208.52	2770.2	
208.73	2952.5	
208.94	4519.9	
209.15	5003.2	
209.37	2895.8	
209.58	2985.3	
209.79	4898.1	
210.01	4397.7	
210.22	2435.7	
210.43	2516.3	
210.65	4470.7	
210.86	4736.3	
211.07	2881.5	
211.29	2723.8	
211.5	4650.9	
211.71	4484.4	
211.93	2701.3	
212.14	2697.2	
212.35	4514.4	
212.56	4536.3	
212.78	3066.5	
212.99	2531.3	
213.2	5155.4	
213.42	4366.3	
213.63	2783.9	
213.84	2913.6	
214.06	4123.2	
214.27	4188.8	
214.48	2914.9	
214.69	3108.8	
214.91	5012.1	
215.12	4990.2	
215.33	3069.9	
215.55	3307.5	
215.76	5362.9	
215.97	4719.2	
216.18	2975.7	
216.4	2992.1	
216.61	4307.6	
216.82	4804.5	
217.04	2749.1	
217.25	2775.7	
217.46	4870.8	
217.67	4763.6	
217.89	2575	
218.1	2580.4	
218.31	4562.2	
218.53	4655.7	
218.74	2862.4	
218.95	2758.6	
219.16	4502.1	
219.38	5158.8	
219.59	2757.2	
219.8	3192.1	
220.01	5483.8	
220.23	4549.9	
220.44	3406.5	
220.65	2689.7	
220.87	4593.6	
221.08	4932.2	
221.29	2610.5	
221.5	3224.9	
221.72	5733.6	
221.93	4289.8	
222.14	3073.3	
222.35	3571	
222.57	4549.9	
222.78	4844.1	
222.99	3000.3	
223.2	3066.5	
223.42	4704.2	
223.63	4778.6	
223.84	2334	
224.05	2355.8	
224.27	5359.5	
224.48	5021.6	
224.69	3538.9	
224.9	3018	
225.12	4633.2	
225.33	4484.4	
225.54	2513.5	
225.75	2736.1	
225.97	4281.6	
226.18	4420.9	
226.39	2917	
226.6	2746.3	
226.82	4360.1	
227.03	4274.1	
227.24	2961.4	
227.45	2590.7	
227.67	4841.4	
227.88	4987.5	
228.09	3371.6	
228.3	3357.3	
228.52	4689.8	
228.73	4498.7	
228.94	2828.9	
229.15	2604.3	
229.36	4528.1	
229.58	4474.1	
229.79	2950.4	
230	3237.8	
230.21	5296	
230.43	4577.9	
230.64	3037.1	
230.85	3115	
231.06	4865.3	
231.28	4827.1	
231.49	2556.5	
231.7	2988.7	
231.91	4739.7	
232.12	4521.9	
232.34	2714.2	
232.55	2901.3	
232.76	4932.2	
232.97	4549.2	
233.18	2715.6	
233.4	2983.2	
233.61	4578.6	
233.82	4346.5	
234.03	2847.4	
234.25	2840.5	
234.46	5821	
234.67	4502.1	
234.88	3061	
235.09	2818	
235.31	4613.4	
235.52	4424.3	
235.73	3011.2	
235.94	2562	
236.15	4346.5	
236.37	5228.5	
236.58	2710.8	
236.79	2891.7	
237	4678.9	
237.21	4158.1	
237.43	3138.2	
237.64	2553.1	
237.85	7111.2	
238.06	4277.5	
238.27	3103.4	
238.48	2652.1	
238.7	4720.6	
238.91	4437.3	
239.12	2899.2	
239.33	3046	
239.54	4262.5	
239.76	4374.5	
239.97	2905.4	
240.18	2908.8	
240.39	5242.8	
240.6	4610	
240.82	3082.2	
241.03	2579.8	
241.24	4506.9	
241.45	5074.9	
241.66	2693.1	
241.87	3159.3	
242.09	5018.9	
242.3	5160.9	
242.51	3115	
242.72	2956.6	
242.93	4775.9	
243.14	4475.5	
243.36	3298.6	
243.57	3515.7	
243.78	5051	
243.99	4718.5	
244.2	2930	
244.41	2680.1	
244.63	4237.9	
244.84	4612	
245.05	3083.6	
245.26	2895.1	
245.47	4760.8	
245.68	4846.9	
245.9	3697.3	
246.11	3058.3	
246.32	4367	
246.53	4657.1	
246.74	4478.9	
246.95	2508.8	
247.16	4269.3	
247.38	4534.2	
247.59	2590.7	
247.8	2966.1	
248.01	4235.2	
248.22	4498.7	
248.43	2670.6	
248.64	2921.1	
248.86	4218.1	
249.07	4351.9	
249.28	2657.6	
249.49	2986.6	
249.7	4871.4	
249.91	4894.6	
250.12	2565.4	
250.34	2626.9	
250.55	4604.5	
250.76	4554.7	
250.97	3061	
251.18	3019.4	
251.39	4893.3	
251.6	4659.1	
251.81	3077.4	
252.03	3045.3	
252.24	4342.4	
252.45	4823	
252.66	2607.1	
252.87	3108.1	
253.08	4510.3	
253.29	5603.9	
253.5	2633	
253.72	3482.9	
253.93	4444.8	
254.14	5164.3	
254.35	2800.3	
254.56	2926.5	
254.77	4646.8	
254.98	4273.4	
255.19	2825.5	
255.41	3494.5	
255.62	4674.8	
255.83	4903.5	
256.04	3174.4	
256.25	2949.1	
256.46	5259.2	
256.67	4307.6	
256.88	3011.9	
257.09	3248.8	
257.31	4225.6	
257.52	4274.1	
257.73	3656.3	
257.94	2808.4	
258.15	4449.6	
258.36	4481.6	
258.57	3362.8	
258.78	2313.5	
258.99	4876.9	
259.2	4407.9	
259.41	2762.7	
259.63	2912.2	
259.84	5069.4	
260.05	5248.3	
260.26	3503.4	
260.47	2747.7	
260.68	4890.5	
260.89	4413.4	
261.1	3314.3	
261.31	2706	
261.52	4938.3	
261.73	5105.6	
261.95	3519.8	
262.16	3138.9	
262.37	4958.1	
262.58	5031.2	
262.79	3480.9	
263	2818.7	
263.21	4547.9	
263.42	4083	
263.63	3054.9	
263.84	2824.8	
264.05	4856.4	
264.26	5079.6	
264.47	3470.6	
264.69	3091.1	
264.9	5035.3	
265.11	4622.3	
265.32	2766.1	
265.53	2727.2	
265.74	4599.7	
265.95	4080.9	
266.16	2957.9	
266.37	3203	
266.58	4598.4	
266.79	4314.4	
267	2795.5	
267.21	2648	
267.42	4250.2	
267.63	4482.3	
267.84	2934.1	
268.06	2589.3	
268.27	4833.9	
268.48	4940.4	
268.69	2850.1	
268.9	3286.3	
269.11	4939.7	
269.32	4146.5	
269.53	2925.9	
269.74	2745.6	
269.95	4631.8	
270.16	4101.4	
270.37	2963.4	
270.58	3335.5	
270.79	4396.3	
271	4840	
271.21	3031	
271.42	2994.8	
271.63	4669.4	
271.84	4202.4	
272.05	2495.8	
272.26	2652.1	
272.47	4549.9	
272.68	4614.8	
272.89	2850.8	
273.11	3179.8	
273.32	4340.3	
273.53	5096	
273.74	3064.4	
273.95	3012.6	
274.16	4813.4	
274.37	4516.5	
274.58	3269.2	
274.79	2672.6	
275	4648.2	
275.21	4892.6	
275.42	3725.3	
275.63	3176.4	
275.84	4725.3	
276.05	5573.9	
276.26	3066.5	
276.47	2890.4	
276.68	4448.9	
276.89	5195	
277.1	3255.6	
277.31	2610.5	
277.52	4632.5	
277.73	4919.2	
277.94	2572.2	
278.15	2859.6	
278.36	4671.4	
278.57	4302.1	
278.78	2824.1	
278.99	3103.4	
279.2	4373.8	
279.41	4278.2	
279.62	3550.5	
279.83	2653.5	
280.04	5281	
280.25	4232.5	
280.46	3603.7	
280.67	2960.7	
280.88	4291.9	
281.09	4906.3	
281.3	3056.9	
281.51	3695.2	
281.72	4340.3	
281.93	4802.5	
282.14	2796.8	
282.35	3011.2	
282.56	4848.9	
282.77	4786.1	
282.98	2881.5	
283.19	3364.8	
283.4	5634	
283.61	4475.5	
283.82	2708.1	
284.03	3502.7	
284.24	4733.5	
284.45	4867.3	
284.66	3601.7	
284.87	3390.1	
285.08	4908.3	
285.29	4985.4	
285.5	2649.4	
285.71	2911.5	
285.92	4874.8	
286.12	5340.4	
286.33	3476.8	
286.54	2839.2	
286.75	4866.7	
286.96	4467.3	
287.17	2718.3	
287.38	3419.4	
287.59	4370.4	
287.8	4312.3	
288.01	2897.9	
288.22	3198.2	
288.43	4727.4	
288.64	4075.5	
288.85	3341.6	
289.06	3188.7	
289.27	4809.3	
289.48	5012.1	
289.69	3571.7	
289.9	3253.5	
290.11	4948.6	
290.32	4410	
290.53	3372.3	
290.74	3089	
290.94	4786.8	
291.15	4902.2	
291.36	2839.8	
291.57	3183.9	
291.78	4477.5	
291.99	4061.8	
292.2	2721.1	
292.41	3077.4	
292.62	4885.8	
292.83	4723.3	
293.04	3756	
293.25	2781.1	
293.46	4457.7	
293.67	4861.2	
293.88	2729.3	
294.09	2740.9	
294.29	4252.3	
294.5	4588.1	
294.71	2962.7	
294.92	2860.3	
295.13	4421.6	
295.34	5250.3	
295.55	2585.2	
295.76	2532	
295.97	4747.9	
296.18	5242.1	
296.39	2652.1	
296.6	2742.2	
296.81	4574.5	
297.01	4775.2	
297.22	2891	
297.43	2835.1	
297.64	4346.5	
297.85	4233.2	
298.06	2415.2	
298.27	2572.9	
298.48	4478.9	
298.69	4314.4	
298.9	2983.9	
299.11	2738.1	
299.31	4227	
299.52	4254.3	
299.73	3205.1	
299.94	3112.9	
300.15	4578.6	
300.36	4291.2	
300.57	3131.3	
300.78	3122.5	
300.99	4394.3	
301.2	4515.1	
301.4	2807.8	
301.61	2975.7	
301.82	4738.3	
302.03	4864.6	
302.24	3283.6	
302.45	2658.3	
302.66	4649.6	
302.87	4867.3	
303.08	2796.2	
303.29	3592.8	
303.49	4377.2	
303.7	4464.6	
303.91	2570.9	
304.12	3479.5	
304.33	4186.7	
304.54	4635.2	
304.75	2766.8	
304.96	2714.9	
305.16	4727.4	
305.37	5197.1	
305.58	2570.9	
305.79	2555.2	
306	4696.7	
306.21	4117.8	
306.42	2839.2	
306.63	4012	
306.83	4404.5	
307.04	4823	
307.25	3022.1	
307.46	2971.6	
307.67	4093.2	
307.88	4745.1	
308.09	2829.6	
308.29	2787.3	
308.5	4604.5	
308.71	4849.6	
308.92	2910.8	
309.13	2746.3	
309.34	4478.9	
309.55	4456.4	
309.75	3420.1	
309.96	3090.4	
310.17	4812.7	
310.38	4283	
310.59	3177.8	
310.8	2613.9	
311.01	4463.2	
311.21	4498.7	
311.42	2736.1	
311.63	2740.9	
311.84	4416.8	
312.05	4517.1	
312.26	3077.4	
312.46	3298.6	
312.67	4446.1	
312.88	4203.1	
313.09	2683.5	
313.3	2710.1	
313.51	4996.4	
313.71	5263.3	
313.92	2718.3	
314.13	2805	
314.34	4651.6	
314.55	4515.1	
314.76	3300	
314.96	2969.6	
315.17	4637.3	
315.38	4784.1	
315.59	2711.5	
315.8	2600.9	
316.01	4981.3	
316.21	5116.5	
316.42	2681.5	
316.63	2993.4	
316.84	4483.7	
317.05	4908.3	
317.26	3136.8	
317.46	2843.9	
317.67	4496.7	
317.88	4815.5	
318.09	3291.1	
318.3	2598.9	
318.5	4388.8	
318.71	4689.2	
318.92	4065.9	
319.13	3179.8	
319.34	4823	
319.54	4945.8	
319.75	2594.1	
319.96	2457.6	
320.17	4725.3	
320.38	4882.4	
320.58	2519	
320.79	2916.3	
321	4903.5	
321.21	4984.1	
321.42	2938.8	
321.62	2545.6	
321.83	4328.7	
322.04	4582.7	
322.25	2874	
322.46	2754.5	
322.66	4573.8	
322.87	4693.9	
323.08	3209.8	
323.29	2641.2	
323.5	5224.4	
323.7	4153.3	
323.91	3514.3	
324.12	3155.2	
324.33	4622.3	
324.53	4719.2	
324.74	3082.9	
324.95	3245.3	
325.16	4173.1	
325.37	4377.2	
325.57	2693.8	
325.78	2753.2	
325.99	4650.3	
326.2	4180.6	
326.4	3732.1	
326.61	2564.1	
326.82	4462.5	
327.03	4597	
327.24	3650.8	
327.44	3439.2	
327.65	4721.9	
327.86	3973.1	
328.07	3155.2	
328.27	2684.9	
328.48	4972.5	
328.69	4158.7	
328.9	3644.7	
329.1	2811.2	
329.31	4481.6	
329.52	5006.6	
329.73	2780.5	
329.93	2926.5	
330.14	4601.8	
330.35	4687.1	
330.56	4209.9	
330.76	3244.7	
330.97	4435.2	
331.18	4504.8	
331.39	3036.5	
331.59	2521	
331.8	4937.7	
332.01	5004.6	
332.22	2820.7	
332.42	3076	
332.63	4620.9	
332.84	4228.4	
333.05	3025.5	
333.25	2727.2	
333.46	4328.7	
333.67	4479.6	
333.88	2880.1	
334.08	3102.7	
334.29	5739.1	
334.5	4900.1	
334.7	2665.8	
334.91	3655.6	
335.12	4202.4	
335.33	4720.6	
335.53	2960	
335.74	4113.7	
335.95	4463.2	
336.16	4239.3	
336.36	2942.9	
336.57	3302.7	
336.78	4246.1	
336.98	4829.1	
337.19	3551.2	
337.4	2910.2	
337.61	5281	
337.81	4184	
338.02	2773.6	
338.23	3388.7	
338.43	5001.8	
338.64	4300.7	
338.85	2774.3	
339.05	3459.7	
339.26	5091.3	
339.47	4134.8	
339.68	2725.2	
339.88	3734.8	
340.09	4748.6	
340.3	4825.7	
340.5	3045.3	
340.71	2510.1	
340.92	4201.7	
341.13	4938.3	
341.33	2655.5	
341.54	3052.2	
341.75	4711.7	
341.95	4389.5	
342.16	3020.1	
342.37	3222.1	
342.57	4240.7	
342.78	4446.1	
342.99	3353.2	
343.19	2503.3	
343.4	4807.3	
343.61	4692.6	
343.81	2947.7	
344.02	2638.5	
344.23	4780.6	
344.43	4999.8	
344.64	3308.8	
344.85	3263.1	
345.06	4715.8	
345.26	4885.1	
345.47	3134.8	
345.68	3480.2	
345.88	4169	
346.09	4814.1	
346.3	3173.7	
346.5	2478	
346.71	4424.3	
346.92	4291.2	
347.12	2623.4	
347.33	3004.4	
347.54	4855.1	
347.74	5113.8	
347.95	3056.3	
348.16	2433.7	
348.36	4382	
348.57	4210.6	
348.78	3139.5	
348.98	3284.9	
349.19	4521.2	
349.39	4099.4	
349.6	2609.8	
349.81	2789.3	
350.01	4734.9	
350.22	4355.3	
350.43	3026.9	
350.63	3455.6	
350.84	4556.7	
351.05	4317.8	
351.25	2768.9	
351.46	2540.2	
351.67	4879.6	
351.87	4240	
352.08	2871.9	
352.29	3224.2	
352.49	4855.7	
352.7	4610	
352.9	2661	
353.11	3211.9	
353.32	5231.2	
353.52	4397	
353.73	2708.8	
353.94	3316.3	
354.14	4732.2	
354.35	4585.4	
354.55	2817.3	
354.76	3036.5	
354.97	4751.3	
355.17	4579.3	
355.38	2722.4	
355.59	3426.3	
355.79	4317.1	
356	4528.7	
356.2	3042.6	
356.41	2719	
356.62	4196.3	
356.82	4513.7	
357.03	3216.7	
357.24	2947.7	
357.44	4347.8	
357.65	4367.6	
357.85	3718.4	
358.06	3123.8	
358.27	4149.9	
358.47	4296	
358.68	2684.9	
358.88	3218.7	
359.09	4760.8	
359.3	4977.9	
359.5	3670	
359.71	3332.7	
359.91	5216.9	
360.12	4775.2	
360.33	3321.1	
360.53	3588	
360.74	4394.3	
360.94	4427	
361.15	3397.6	
361.36	2882.2	
361.56	5001.1	
361.77	4545.8	
361.97	3712.3	
362.18	3002.3	
362.38	5017.5	
362.59	4347.8	
362.8	2864.4	
363	2802.3	
363.21	4143.7	
363.41	4641.4	
363.62	3216.7	
363.83	3807.2	
364.03	4820.2	
364.24	5313.8	
364.44	3990.1	
364.65	3949.2	
364.85	4613.4	
365.06	4321.9	
365.27	3013.9	
365.47	3080.1	
365.68	5238	
365.88	4601.1	
366.09	3313.6	
366.29	3081.5	
366.5	4745.8	
366.71	5016.2	
366.91	3945.1	
367.12	3416	
367.32	5399.1	
367.53	4925.4	
367.73	3444.7	
367.94	4045.4	
368.14	4978.6	
368.35	5449.6	
368.56	3405.1	
368.76	3269.2	
368.97	5070.1	
369.17	6036.7	
369.38	3057.6	
369.58	3214.6	
369.79	4307.6	
369.99	5221.6	
370.2	3895.2	
370.4	3252.2	
370.61	4771.1	
370.82	5620.3	
371.02	3234.4	
371.23	2755.2	
371.43	4325.3	
371.64	5253.7	
371.84	3341.6	
372.05	4052.2	
372.25	5970.5	
372.46	4981.3	
372.66	3325.2	
372.87	3283.6	
373.07	4987.5	
373.28	6191	
373.48	3967.6	
373.69	3747.1	
373.9	4782	
374.1	4678.9	
374.31	3965.6	
374.51	3629	
374.72	5319.9	
374.92	4568.3	
375.13	4095.9	
375.33	3571	
375.54	5043.5	
375.74	4679.6	
375.95	3679.5	
376.15	4441.4	
376.36	5200.5	
376.56	5025	
376.77	3698.6	
376.97	3987.4	
377.18	5892	
377.38	5198.4	
377.59	4161.5	
377.79	3410.6	
378	5077.6	
378.2	5324.7	
378.41	3469.3	
378.61	3364.1	
378.82	5498.8	
379.02	4855.1	
379.23	3607.2	
379.43	4335.5	
379.64	5586.2	
379.84	5169.1	
380.05	3436.5	
380.25	3418.1	
380.46	5270.1	
380.66	4981.3	
380.87	4345.1	
381.07	4491.9	
381.28	5698.1	
381.48	5222.3	
381.69	3445.4	
381.89	3422.8	
382.1	4575.8	
382.3	5253.7	
382.51	4169	
382.71	4767	
382.91	5162.2	
383.12	5545.9	
383.32	3669.3	
383.53	3784.6	
383.73	5107.6	
383.94	5015.5	
384.14	3741.6	
384.35	3166.8	
384.55	4903.5	
384.76	5157.5	
384.96	3659	
385.17	3856.3	
385.37	5140.4	
385.58	4683	
385.78	3776.5	
385.98	3063.8	
386.19	4835.3	
386.39	5105.6	
386.6	3474	
386.8	3623.5	
387.01	5148.6	
387.21	5304.9	
387.42	3951.2	
387.62	4328.7	
387.83	4811.4	
388.03	5044.8	
388.23	3773.7	
388.44	4254.3	
388.64	4559.5	
388.85	4634.6	
389.05	3997.6	
389.26	4340.3	
389.46	6126.2	
389.67	5683.1	
389.87	4070	
390.07	4098	
390.28	5074.2	
390.48	4730.8	
390.69	3464.5	
390.89	3691.1	
391.1	4945.2	
391.3	5542.5	
391.5	4495.3	
391.71	4930.8	
391.91	5436.7	
392.12	5960.3	
392.32	4571.1	
392.53	3968.3	
392.73	5006.6	
392.93	5071.5	
393.14	3794.2	
393.34	4252.3	
393.55	5352.7	
393.75	5047.6	
393.95	3736.2	
394.16	3693.2	
394.36	4874.2	
394.57	5365.7	
394.77	3398.9	
394.98	3654.3	
395.18	4929.5	
395.38	4992.9	
395.59	4365.6	
395.79	3632.4	
396	5184.8	
396.2	5460.6	
396.4	4243.4	
396.61	4258.4	
396.81	5451	
397.02	4933.6	
397.22	4449.6	
397.42	4476.9	
397.63	5573.9	
397.83	5075.5	
398.04	3725.3	
398.24	4089.1	
398.44	5298.1	
398.65	4706.9	
398.85	3621.5	
399.05	3693.9	
399.26	5059.2	
399.46	6179.4	
399.67	3997	
399.87	3770.3	
400.07	5258.5	
400.28	5583.4	
400.48	3871.3	
400.69	4616.8	
400.89	5705	
401.09	6077.7	
401.3	3867.2	
401.5	4519.9	
401.7	6158.9	
401.91	6378.7	
402.11	4169	
402.32	4184	
402.52	5755.5	
402.72	5623.7	
402.93	4288.4	
403.13	3485.6	
403.33	6139.1	
403.54	5106.3	
403.74	3973.7	
403.94	4502.1	
404.15	5250.3	
404.35	5999.9	
404.56	3816	
404.76	5039.4	
404.96	5692.7	
405.17	5515.9	
405.37	4530.1	
405.57	4334.2	
405.78	5765.7	
405.98	5333.6	
406.18	3967.6	
406.39	4543.1	
406.59	5677	
406.79	5253	
407	3680.2	
407.2	3730	
407.4	5809.4	
407.61	5736.4	
407.81	3884.3	
408.01	5315.2	
408.22	5056.4	
408.42	6389.7	
408.62	4888.5	
408.83	4504.2	
409.03	5584.1	
409.23	5567.7	
409.44	4614.8	
409.64	4714.4	
409.84	6335.7	
410.05	6339.8	
410.25	4787.5	
410.45	4611.3	
410.66	6112.5	
410.86	7674.4	
411.06	5046.9	
411.27	4871.4	
411.47	7582.3	
411.67	6161	
411.88	4971.1	
412.08	5239.4	
412.28	6617	
412.49	7018.4	
412.69	4926	
412.89	4968.4	
413.09	6857.3	
413.3	6776	
413.5	5117.9	
413.7	4790.2	
413.91	6326.2	
414.11	6913.3	
414.31	4891.9	
414.52	5233.9	
414.72	6685.3	
414.92	6590.4	
415.12	4969.1	
415.33	5338.4	
415.53	6911.9	
415.73	6918.7	
415.94	5560.2	
416.14	5152	
416.34	6321.4	
416.55	6039.5	
416.75	5930.2	
416.95	5634.6	
417.15	7034.8	
417.36	7339.2	
417.56	6236.1	
417.76	5459.2	
417.97	7168.6	
418.17	7072.3	
418.37	5315.8	
418.57	5406	
418.78	6986.3	
418.98	6649.8	
419.18	5838.8	
419.38	5730.9	
419.59	6577.4	
419.79	6302.3	
419.99	5094	
420.2	5345.9	
420.4	6994.5	
420.6	7013.6	
420.8	5129.5	
421.01	5001.1	
421.21	6933.7	
421.41	6931.7	
421.61	5302.9	
421.82	5150.6	
422.02	6585.6	
422.22	7179.5	
422.42	5650.3	
422.63	5362.3	
422.83	6587	
423.03	7481.9	
423.23	5388.2	
423.44	4734.2	
423.64	6526.9	
423.84	6358.3	
424.04	5001.8	
424.25	4802.5	
424.45	7107.8	
424.65	7035.5	
424.85	4651.6	
425.06	5019.6	
425.26	7215.7	
425.46	6391	
425.66	5301.5	
425.87	5138.4	
426.07	6970.6	
426.27	6720.1	
426.47	5223.7	
426.67	4733.5	
426.88	7118.7	
427.08	6737.1	
427.28	5385.5	
427.48	4627	
427.69	5998.5	
427.89	6429.3	
428.09	5276.9	
428.29	4702.8	
428.5	6834.8	
428.7	6594.5	
428.9	4661.9	
429.1	5003.2	
429.3	6632.7	
429.51	6728.3	
429.71	4848.2	
429.91	5416.9	
430.11	6819.7	
430.31	7203.4	
430.52	5110.4	
430.72	5311.7	
430.92	7191.1	
431.12	6745.3	
431.32	4855.7	
431.53	5081.7	
431.73	6070.2	
431.93	7123.5	
432.13	4793.6	
432.33	4674.8	
432.54	6470.9	
432.74	6535.8	
432.94	4768.4	
433.14	5424.4	
433.34	6959.7	
433.55	6496.8	
433.75	5472.9	
433.95	6465.4	
434.15	6623.8	
434.35	6406.7	
434.56	4900.1	
434.76	4618.9	
434.96	6654.5	
435.16	6852.5	
435.36	4804.5	
435.56	5552	
435.77	6459.3	
435.97	6546	
436.17	6044.9	
436.37	5520.6	
436.57	6463.4	
436.78	6424.5	
436.98	6636.8	
437.18	5918.6	
437.38	6982.9	
437.58	6492.1	
437.78	5974.6	
437.99	5085.1	
438.19	6896.9	
438.39	7340.6	
438.59	4997	
438.79	4560.1	
438.99	7171.3	
439.2	6380.1	
439.4	4661.9	
439.6	4693.9	
439.8	6654.5	
440	7514	
440.2	5492	
440.4	5556.1	
440.61	7243.7	
440.81	7395.9	
441.01	5109.7	
441.21	5624.4	
441.41	7542	
441.61	7104.4	
441.81	5882.4	
442.02	6420.4	
442.22	7741.3	
442.42	7223.9	
442.62	5033.9	
442.82	5094	
443.02	7520.1	
443.22	6916	
443.43	5452.4	
443.63	5109.7	
443.83	6715.3	
444.03	6710.5	
444.23	5921.4	
444.43	5736.4	
444.63	7089.4	
444.83	7747.5	
445.04	5322.7	
445.24	6087.2	
445.44	7131.7	
445.64	7186.3	
445.84	5634.6	
446.04	5701.5	
446.24	6546.7	
446.44	7357.7	
446.65	5018.9	
446.85	5369.1	
447.05	6588.3	
447.25	7268.9	
447.45	5474.9	
447.65	4988.2	
447.85	6921.5	
448.05	6511.2	
448.25	5654.4	
448.46	5494.7	
448.66	6845	
448.86	6527.6	
449.06	4937.7	
449.26	5676.3	
449.46	7037.5	
449.66	6441.5	
449.86	5340.4	
450.06	5342.5	
450.26	6577.4	
450.47	7014.3	
450.67	5467.4	
450.87	5693.4	
451.07	7141.3	
451.27	6860.7	
451.47	5010.7	
451.67	5681.7	
451.87	6690	
452.07	7327.6	
452.27	5268.1	
452.47	5167	
452.67	6924.2	
452.88	7169.3	
453.08	4778.6	
453.28	6020.3	
453.48	7694.9	
453.68	6741.2	
453.88	5108.3	
454.08	5278.3	
454.28	7108.5	
454.48	6858.6	
454.68	5649.7	
454.88	5915.2	
455.08	7206.8	
455.28	7094.8	
455.48	5046.2	
455.68	5535.7	
455.89	7521.5	
456.09	7302.4	
456.29	5318.6	
456.49	5436	
456.69	7500.3	
456.89	6842.9	
457.09	5685.8	
457.29	6019	
457.49	7252.5	
457.69	7385	
457.89	5700.9	
458.09	5221.6	
458.29	7203.4	
458.49	7631.4	
458.69	5971.2	
458.89	5515.2	
459.09	7798.7	
459.29	7774.1	
459.49	5620.3	
459.69	6085.9	
459.9	7350.2	
460.1	7159	
460.3	5493.3	
460.5	5317.9	
460.7	7440.3	
460.9	7053.9	
461.1	5119.9	
461.3	6008.1	
461.5	7947.5	
461.7	7684	
461.9	5568.4	
462.1	5862.7	
462.3	7376.1	
462.5	7578.2	
462.7	5534.3	
462.9	5622.4	
463.1	8469	
463.3	8237.6	
463.5	5799.8	
463.7	6513.9	
463.9	7593.9	
464.1	7789.8	
464.3	5997.8	
464.5	6116.6	
464.7	7968	
464.9	7714.7	
465.1	6855.2	
465.3	6247.7	
465.5	8145.5	
465.7	8212.4	
465.9	6498.2	
466.1	6320.7	
466.3	7974.1	
466.5	7879.2	
466.7	6974	
466.9	6253.8	
467.1	8073.1	
467.3	8513.4	
467.5	6900.3	
467.7	6232	
467.9	8729.8	
468.1	9279.3	
468.3	6693.4	
468.5	7092.1	
468.7	7877.2	
468.9	7822.6	
469.1	6478.4	
469.3	6868.9	
469.5	9155.8	
469.7	7694.9	
469.9	6696.9	
470.1	6294.8	
470.3	8088.1	
470.5	7974.1	
470.7	7071.6	
470.9	6350.1	
471.1	7742.7	
471.3	7937.2	
471.5	6169.2	
471.69	7337.9	
471.89	7713.3	
472.09	7309.9	
472.29	6731	
472.49	6850.5	
472.69	7443.7	
472.89	7935.9	
473.09	6073.6	
473.29	6139.8	
473.49	7626	
473.69	7505.8	
473.89	6652.5	
474.09	6196.5	
474.29	8460.2	
474.49	8173.4	
474.69	6655.2	
474.89	6251.1	
475.09	7604.8	
475.29	7527.7	
475.49	5821.7	
475.69	6029.2	
475.88	8479.3	
476.08	7888.1	
476.28	5765	
476.48	5993.7	
476.68	8103.8	
476.88	7813.7	
477.08	5965.7	
477.28	6085.9	
477.48	7593.9	
477.68	7901.7	
477.88	5851	
478.08	6020.3	
478.28	8327.7	
478.48	7598	
478.67	6106.4	
478.87	5547.9	
479.07	8055.3	
479.27	7551.5	
479.47	6138.4	
479.67	6101.6	
479.87	7899.7	
480.07	8153	
480.27	5713.8	
480.47	6662	
480.67	7683.3	
480.87	8159.1	
481.06	5855.1	
481.26	6430.6	
481.46	7716.7	
481.66	7565.2	
481.86	6150.7	
482.06	6732.4	
482.26	7434.1	
482.46	8032.1	
482.66	6057.9	
482.86	5778	
483.05	7737.2	
483.25	7251.9	
483.45	7698.3	
483.65	6098.9	
483.85	7280.5	
484.05	7546.8	
484.25	6377.4	
484.45	6687.3	
484.65	8036.2	
484.84	8112.7	
485.04	6002.6	
485.24	6104.3	
485.44	8329.8	
485.64	7196.6	
485.84	5672.2	
486.04	6575.3	
486.24	7565.9	
486.44	7698.3	
486.63	5599.8	
486.83	6122.7	
487.03	7481.2	
487.23	7623.9	
487.43	5608.7	
487.63	7137.9	
487.83	7759.8	
488.02	8118.8	
488.22	6258.6	
488.42	6666.1	
488.62	8191.2	
488.82	7462.8	
489.02	6044.2	
489.22	6130.9	
489.41	8025.3	
489.61	7937.2	
489.81	5945.3	
490.01	5860.6	
490.21	8127.7	
490.41	8549.6	
490.61	5933.6	
490.8	5993	
491	7778.9	
491.2	7222.5	
491.4	6346	
491.6	5752.1	
491.8	7755.7	
491.99	7673.7	
492.19	5622.4	
492.39	5816.2	
492.59	8009.6	
492.79	8183	
492.99	6498.9	
493.18	5922	
493.38	8266.3	
493.58	8693.6	
493.78	6436.1	
493.98	6100.2	
494.18	8010.3	
494.37	7595.2	
494.57	6505.7	
494.77	6459.3	
494.97	8231.5	
495.17	8428.1	
495.37	6289.3	
495.56	6517.3	
495.76	8596.7	
495.96	8353	
496.16	7126.2	
496.36	6465.4	
496.55	8490.2	
496.75	8029.4	
496.95	6589	
497.15	6536.4	
497.35	8407.6	
497.54	8323.6	
497.74	6421.1	
497.94	7557.7	
498.14	8804.9	
498.34	8674.5	
498.53	6303	
498.73	6690.7	
498.93	8000.7	
499.13	8350.9	
499.33	6739.2	
499.52	6860	
499.72	8465.6	
499.92	8526.4	
500.12	6423.8	
500.32	6657.3	
500.51	8527.7	
500.71	8350.9	
500.91	7076.4	
501.11	6779.5	
501.31	8408.3	
501.5	8781.7	
501.7	7298.3	
501.9	6668.9	
502.1	8270.4	
502.29	8596.7	
502.49	6925.5	
502.69	7166.5	
502.89	8495.7	
503.09	8443.1	
503.28	6205.3	
503.48	6304.3	
503.68	8003.5	
503.88	7815	
504.07	6943.3	
504.27	6584.2	
504.47	8163.9	
504.67	8168	
504.86	6842.3	
505.06	6559.6	
505.26	8019.8	
505.46	8950.3	
505.65	6561.7	
505.85	6574.7	
506.05	7843.7	
506.25	8147.5	
506.44	6036	
506.64	6585.6	
506.84	7710.6	
507.04	8176.9	
507.23	6206	
507.43	6513.2	
507.63	8918.2	
507.83	7691.5	
508.02	6497.5	
508.22	6197.8	
508.42	9064.3	
508.62	7613	
508.81	6273.6	
509.01	6645	
509.21	7501	
509.4	7770.7	
509.6	6459.3	
509.8	6046.3	
510	7702.4	
510.19	8591.9	
510.39	6022.4	
510.59	6146	
510.79	7631.4	
510.98	8471.8	
511.18	6154.1	
511.38	6137.8	
511.57	8269.7	
511.77	7903.1	
511.97	6511.2	
512.17	6026.5	
512.36	8079.2	
512.56	7931.1	
512.76	5930.9	
512.95	5834	
513.15	8203.5	
513.35	7189.7	
513.55	6550.1	
513.74	6032.6	
513.94	8133.2	
514.14	7640.3	
514.33	6634.1	
514.53	6545.3	
514.73	7723.6	
514.92	7787.1	
515.12	6051.1	
515.32	5940.5	
515.51	7903.1	
515.71	8079.2	
515.91	7131.7	
516.11	5952.8	
516.3	8936.7	
516.5	7551.5	
516.7	6418.3	
516.89	6650.4	
517.09	7679.2	
517.29	7629.4	
517.48	6674.3	
517.68	6103.6	
517.88	7426.6	
518.07	7899.7	
518.27	6518	
518.47	5795.8	
518.66	8193.9	
518.86	7355.6	
519.06	5706.3	
519.25	5959.6	
519.45	7617.8	
519.65	8539.3	
519.84	6541.2	
520.04	6885.3	
520.24	8806.9	
520.43	7959.8	
520.63	6256.5	
520.83	6075.6	
521.02	7413.6	
521.22	7842.4	
521.42	6295.5	
521.61	6660	
521.81	7602.7	
522.01	7645.8	
522.2	6339.1	
522.4	6086.6	
522.6	7968	
522.79	7224.6	
522.99	6183.5	
523.18	5784.8	
523.38	7897	
523.58	7800	
523.77	6995.9	
523.97	5810.8	
524.17	9053.4	
524.36	8546.9	
524.56	6661.4	
524.76	6425.8	
524.95	7804.1	
525.15	7641	
525.34	6290.7	
525.54	6362.4	
525.74	8143.4	
525.93	7494.9	
526.13	7043	
526.33	6345.3	
526.52	8404.9	
526.72	7994.6	
526.91	7037.5	
527.11	6569.9	
527.31	8343.4	
527.5	8606.2	
527.7	6653.2	
527.89	5993.7	
528.09	7840.3	
528.29	8079.2	
528.48	6928.3	
528.68	6639.5	
528.87	8350.9	
529.07	8356.4	
529.27	6557.6	
529.46	6311.2	
529.66	8086.1	
529.85	8254.7	
530.05	6191	
530.25	6576	
530.44	9060.2	
530.64	7957	
530.83	6337.1	
531.03	6574	
531.23	8439.7	
531.42	8260.1	
531.62	7022.5	
531.81	6518.7	
532.01	8548.2	
532.21	8638.3	
532.4	6480.5	
532.6	6666.1	
532.79	8976.2	
532.99	8369.4	
533.18	6675.7	
533.38	7242.3	
533.58	8174.8	
533.77	8542.1	
533.97	6661.4	
534.16	7225.2	
534.36	8876.6	
534.55	8187.8	
534.75	7290.8	
534.95	6734.4	
535.14	8832.2	
535.34	8174.8	
535.53	6488	
535.73	7692.2	
535.92	9088.9	
536.12	8138.6	
536.31	6509.1	
536.51	7391.8	
536.71	8445.8	
536.9	8214.4	
537.1	6556.9	
537.29	6623.8	
537.49	8769.4	
537.68	8094.9	
537.88	7040.2	
538.07	6384.9	
538.27	8424	
538.46	8985.1	
538.66	6347.3	
538.86	6761.7	
539.05	8376.2	
539.25	8538	
539.44	6778.8	
539.64	6599.9	
539.83	8145.5	
540.03	8862.2	
540.22	6475	
540.42	6565.8	
540.61	8360.5	
540.81	8327.7	
541	6730.3	
541.2	7223.9	
541.39	8014.4	
541.59	8209.6	
541.78	7026.6	
541.98	6442.2	
542.18	7738.6	
542.37	7755	
542.57	6610.2	
542.76	7082.6	
542.96	7910.6	
543.15	8198.7	
543.35	6685.9	
543.54	6322.8	
543.74	8178.9	
543.93	8090.2	
544.13	6589	
544.32	7256	
544.52	8359.8	
544.71	7795.9	
544.91	5963.7	
545.1	6744.6	
545.3	7778.9	
545.49	8078.6	
545.69	5945.3	
545.88	6365.1	
546.08	8901.2	
546.27	8487.5	
546.47	6698.2	
546.66	6154.8	
546.86	8390.5	
547.05	8677.2	
547.24	6324.8	
547.44	6235.4	
547.63	7599.3	
547.83	8333.9	
548.02	6425.8	
548.22	6528.2	
548.41	7557	
548.61	8357.1	
548.8	6178	
549	6081.8	
549.19	8037.6	
549.39	8187.1	
549.58	5930.9	
549.78	6292.7	
549.97	8185.7	
550.17	7748.8	
550.36	6906.4	
550.55	7424.6	
550.75	7826.7	
550.94	8348.9	
551.14	6082.5	
551.33	6338.5	
551.53	7372	
551.72	8022.6	
551.92	6348	
552.11	6171.2	
552.31	8135.9	
552.5	7857.4	
552.69	7279.8	
552.89	5898.8	
553.08	7962.5	
553.28	7747.5	
553.47	6159.6	
553.67	6873	
553.86	8404.2	
554.06	7261.4	
554.25	5690.6	
554.44	5937.1	
554.64	8860.9	
554.83	8479.3	
555.03	5894.7	
555.22	6199.9	
555.42	8130.4	
555.61	7944.1	
555.8	6085.9	
556	6153.5	
556.19	7348.8	
556.39	8128.4	
556.58	6068.8	
556.78	6110.5	
556.97	7846.5	
557.16	7653.3	
557.36	6870.3	
557.55	5924.8	
557.75	7123.5	
557.94	8347.5	
558.13	5908.4	
558.33	5779.4	
558.52	8099	
558.72	7346.7	
558.91	5777.3	
559.1	5952.1	
559.3	7239.6	
559.49	7000	
559.69	5711.1	
559.88	6204.7	
560.07	7750.9	
560.27	7983.7	
560.46	6361	
560.66	6408.8	
560.85	7563.8	
561.04	6992.4	
561.24	5765.7	
561.43	5839.4	
561.63	7131	
561.82	7397.9	
562.01	6704.4	
562.21	6034.7	
562.4	7660.1	
562.59	8257.4	
562.79	5963.7	
562.98	5791.7	
563.18	7705.1	
563.37	8607.6	
563.56	6248.4	
563.76	5734.3	
563.95	7339.2	
564.14	7223.2	
564.34	6029.2	
564.53	5773.9	
564.73	7696.9	
564.92	7780.9	
565.11	6137.1	
565.31	5606.7	
565.5	8054	
565.69	7214.3	
565.89	5821	
566.08	5956.2	
566.27	7871.7	
566.47	8130.4	
566.66	6510.5	
566.85	5604.6	
567.05	7685.3	
567.24	7368.6	
567.44	5771.9	
567.63	6612.2	
567.82	7871	
568.02	7520.8	
568.21	5799.2	
568.4	5965.1	
568.6	7476.5	
568.79	7545.4	
568.98	5726.8	
569.18	5642.8	
569.37	7590.5	
569.56	8804.9	
569.76	6053.1	
569.95	6664.1	
570.14	7787.7	
570.34	7580.9	
570.53	5700.9	
570.72	5473.5	
570.91	8093.6	
571.11	7508.5	
571.3	5952.1	
571.49	6526.2	
571.69	7535.2	
571.88	7157	
572.07	6232	
572.27	6279.1	
572.46	7012.9	
572.65	7864.9	
572.85	5838.1	
573.04	5982.8	
573.23	8083.3	
573.43	7572	
573.62	5640.8	
573.81	6030.6	
574	7593.2	
574.2	7373.4	
574.39	5884.5	
574.58	5976	
574.78	8117.5	
574.97	7497.6	
575.16	6268.1	
575.36	6204.7	
575.55	7909.9	
575.74	7985.7	
575.93	5613.5	
576.13	6307.7	
576.32	7436.9	
576.51	7787.1	
576.71	6080.4	
576.9	6825.9	
577.09	8120.9	
577.28	7716.1	
577.48	6223.8	
577.67	5530.2	
577.86	7539.9	
578.05	7793.9	
578.25	6015.6	
578.44	6066.1	
578.63	7557.7	
578.83	8332.5	
579.02	5676.3	
579.21	6623.1	
579.4	7685.3	
579.6	7497.6	
579.79	6142.5	
579.98	7534.5	
580.17	7888.8	
580.37	8029.4	
580.56	5786.2	
580.75	6287.9	
580.94	8128.4	
581.14	8235.6	
581.33	6522.8	
581.52	5905.7	
581.71	7850.5	
581.91	8313.4	
582.1	5741.8	
582.29	5995.1	
582.48	7660.1	
582.68	7608.9	
582.87	6348	
583.06	6215.6	
583.25	7888.8	
583.45	7728.4	
583.64	6552.1	
583.83	6967.2	
584.02	7648.5	
584.21	7912.7	
584.41	6542.6	
584.6	6120	
584.79	7665.5	
584.98	8036.9	
585.18	5760.3	
585.37	5780.7	
585.56	7436.9	
585.75	7942.7	
585.94	5894.1	
586.14	6233.3	
586.33	8217.1	
586.52	7527.7	
586.71	6161.7	
586.91	5997.1	
587.1	7110.5	
587.29	7862.8	
587.48	5963	
587.67	5873.6	
587.87	7826	
588.06	7735.2	
588.25	6697.5	
588.44	6250.4	
588.63	7501.7	
588.83	7818.5	
589.02	5920	
589.21	5740.5	
589.4	7417.1	
589.59	7213.6	
589.78	5199.8	
589.98	5385.5	
590.17	6845.7	
590.36	7129	
590.55	4937	
590.74	5433.9	
590.94	7980.9	
591.13	7083.9	
591.32	5412.8	
591.51	5171.8	
591.7	7407.5	
591.89	7076.4	
592.09	5197.7	
592.28	5467.4	
592.47	6588.3	
592.66	7894.2	
592.85	5194.3	
593.05	5299.5	
593.24	6980.2	
593.43	7507.9	
593.62	5347.9	
593.81	5696.8	
594	7044.3	
594.19	7113.3	
594.39	5304.2	
594.58	5212.1	
594.77	7321.5	
594.96	7630.7	
595.15	5211.4	
595.34	5649	
595.54	7159	
595.73	6657.9	
595.92	4854.4	
596.11	5452.4	
596.3	7535.8	
596.49	6705	
596.68	5453.7	
596.88	5662.6	
597.07	7336.5	
597.26	6544.6	
597.45	5174.5	
597.64	5851.7	
597.83	6911.9	
598.02	7169.9	
598.22	5169.8	
598.41	5606	
598.6	7133.8	
598.79	6659.3	
598.98	5191.6	
599.17	5808	
599.36	7168.6	
599.55	7771.4	
599.74	6564.4	
599.94	6305.7	
600.13	7456	
600.32	6713.9	
600.51	5001.1	
600.7	5053	
600.89	7908.6	
601.08	7974.8	
601.27	4988.2	
601.47	5546.6	
601.66	7430	
601.85	7764.5	
602.04	5456.5	
602.23	5611.4	
602.42	6819.1	
602.61	7183.6	
602.8	5335.6	
602.99	5216.2	
603.18	7052.5	
603.37	7135.8	
603.57	5670.8	
603.76	5954.1	
603.95	7624.6	
604.14	7286.7	
604.33	5308.3	
604.52	5454.4	
604.71	7126.9	
604.9	6748.1	
605.09	5860.6	
605.28	5708.4	
605.47	7536.5	
605.66	7239.6	
605.86	5713.2	
606.05	5250.3	
606.24	7554.3	
606.43	6475	
606.62	5550.7	
606.81	5930.2	
607	7451.9	
607.19	6880.5	
607.38	5139.7	
607.57	5219.6	
607.76	6791.7	
607.95	6356.9	
608.14	5642.2	
608.33	5935	
608.52	6693.4	
608.72	7344	
608.91	5045.5	
609.1	4906.9	
609.29	6883.2	
609.48	6466.8	
609.67	5564.3	
609.86	4986.1	
610.05	6598.6	
610.24	6780.8	
610.43	4978.6	
610.62	4761.5	
610.81	7597.3	
611	7367.2	
611.19	5042.1	
611.38	5423.7	
611.57	7079.8	
611.76	7699	
611.95	4874.2	
612.14	4827.7	
612.33	6831.3	
612.52	6506.4	
612.71	5192.3	
612.9	4709	
613.09	6322.8	
613.28	7850.5	
613.47	5150	
613.66	5655.1	
613.85	6897.6	
614.04	6560.3	
614.24	5143.8	
614.43	4567	
614.62	7083.9	
614.81	6903.7	
615	5389.6	
615.19	5358.2	
615.38	6596.5	
615.57	6821.8	
615.76	5349.3	
615.95	5917.9	
616.14	7068.2	
616.33	6788.3	
616.52	5623.7	
616.71	5672.2	
616.9	7000	
617.09	6879.8	
617.28	5166.3	
617.47	5884.5	
617.66	6433.4	
617.85	6422.4	
618.04	5692	
618.22	5326.1	
618.41	6658.6	
618.6	7187.7	
618.79	5347.2	
618.98	5191.6	
619.17	7393.2	
619.36	6296.1	
619.55	5233.9	
619.74	5283.1	
619.93	7000.6	
620.12	6492.7	
620.31	5671.5	
620.5	5655.8	
620.69	7307.8	
620.88	7644.4	
621.07	6092	
621.26	5591.6	
621.45	7095.5	
621.64	7120.1	
621.83	5628.5	
622.02	5072.8	
622.21	7109.9	
622.4	6976.7	
622.59	5901.6	
622.78	5902.9	
622.97	6709.1	
623.16	7253.2	
623.35	5587.5	
623.54	4965.6	
623.72	6818.4	
623.91	6844.3	
624.1	5735	
624.29	4883	
624.48	7633.5	
624.67	7161.7	
624.86	5577.3	
625.05	5033.9	
625.24	7688.8	
625.43	6761.7	
625.62	6743.3	
625.81	5218.9	
626	7266.9	
626.19	6821.1	
626.38	5734.3	
626.56	5328.1	
626.75	6742.6	
626.94	7219.8	
627.13	5723.4	
627.32	4844.8	
627.51	7128.3	
627.7	7832.1	
627.89	4853.7	
628.08	5649	
628.27	6622.4	
628.46	6754.2	
628.65	5119.9	
628.83	4885.8	
629.02	7112.6	
629.21	6618.4	
629.4	5405.3	
629.59	5521.3	
629.78	6552.8	
629.97	7256	
630.16	5614.2	
630.35	5195	
630.54	7559.7	
630.72	7356.3	
630.91	5207.3	
631.1	5552	
631.29	6981.5	
631.48	6954.9	
631.67	5637.4	
631.86	5305.6	
632.05	6763.8	
632.24	6778.1	
632.42	5066	
632.61	5440.1	
632.8	6799.9	
632.99	6522.8	
633.18	5504.3	
633.37	5668.8	
633.56	7060.7	
633.75	6888.7	
633.93	5512.4	
634.12	5326.8	
634.31	7602.7	
634.5	7196.6	
634.69	5292.6	
634.88	5671.5	
635.07	6932.4	
635.25	7333.1	
635.44	5899.5	
635.63	5970.5	
635.82	6750.1	
636.01	6258.6	
636.2	5843.5	
636.39	5597.8	
636.57	7583.6	
636.76	7164.5	
636.95	5167.7	
637.14	6070.9	
637.33	7152.9	
637.52	7572	
637.7	5083.7	
637.89	5694.7	
638.08	6859.3	
638.27	7691.5	
638.46	5674.9	
638.65	5939.1	
638.83	7774.1	
639.02	6686.6	
639.21	5775.3	
639.4	5938.4	
639.59	6989	
639.78	6711.9	
639.96	5105.6	
640.15	5156.8	
640.34	6878.4	
640.53	6901	
640.72	4988.9	
640.91	5141.8	
641.09	6533.7	
641.28	7300.3	
641.47	5217.5	
641.66	5717.9	
641.85	6996.5	
642.03	7083.9	
642.22	5507	
642.41	5284.4	
642.6	6554.2	
642.79	6176	
642.97	5239.4	
643.16	5485.8	
643.35	6521.4	
643.54	6350.1	
643.73	5046.2	
643.91	5500.2	
644.1	6358.3	
644.29	6691.4	
644.48	5015.5	
644.67	5081.7	
644.85	6376.7	
645.04	6634.1	
645.23	4732.2	
645.42	5016.8	
645.6	6320	
645.79	7051.2	
645.98	4885.8	
646.17	4317.8	
646.36	6107.7	
646.54	6367.1	
646.73	5410.1	
646.92	4695.3	
647.11	6160.3	
647.29	6827.9	
647.48	4633.9	
647.67	4465.9	
647.86	7109.9	
648.05	6972	
648.23	4872.8	
648.42	5787.6	
648.61	6619	
648.8	6468.9	
648.98	4658.4	
649.17	4965.6	
649.36	6265.4	
649.55	5914.5	
649.73	4704.2	
649.92	5230.5	
650.11	6109.8	
650.3	6365.8	
650.48	4760.2	
650.67	4619.5	
650.86	6524.1	
651.05	5773.9	
651.23	4726	
651.42	4673.5	
651.61	6162.3	
651.79	6118.6	
651.98	4941.7	
652.17	4555.4	
652.36	6432.7	
652.54	5861.3	
652.73	4708.3	
652.92	4539.7	
653.11	6427.9	
653.29	6521.4	
653.48	4156	
653.67	4771.8	
653.85	6269.5	
654.04	6967.9	
654.23	4988.2	
654.42	4709.6	
654.6	5959.6	
654.79	6360.3	
654.98	4352.6	
655.16	4681.7	
655.35	5726.1	
655.54	5560.9	
655.73	4326	
655.91	4278.2	
656.1	6302.3	
656.29	5575.9	
656.47	4045.4	
656.66	5267.4	
656.85	5887.2	
657.03	5789.6	
657.22	4405.2	
657.41	4514.4	
657.59	5907	
657.78	5793.7	
657.97	4264.6	
658.16	4698	
658.34	6391.7	
658.53	6567.2	
658.72	5299.5	
658.9	5594.4	
659.09	6131.6	
659.28	6105.7	
659.46	4550.6	
659.65	4459.1	
659.84	5790.3	
660.02	6278.4	
660.21	4482.3	
660.4	4330.8	
660.58	6462.7	
660.77	6048.3	
660.96	4759.5	
661.14	4177.2	
661.33	6818.4	
661.52	6719.4	
661.7	4125.3	
661.89	6395.1	
662.08	5812.1	
662.26	5475.6	
662.45	4303.5	
662.64	4421.6	
662.82	6294.8	
663.01	5769.8	
663.2	4356	
663.38	4825.7	
663.57	6171.9	
663.75	6120	
663.94	4646.8	
664.13	5410.1	
664.31	5835.3	
664.5	6276.3	
664.69	4749.2	
664.87	5076.9	
665.06	5595.1	
665.25	6019.7	
665.43	5269.4	
665.62	5264	
665.8	6308.4	
665.99	5829.2	
666.18	4657.1	
666.36	4652.3	
666.55	6307.7	
666.74	6173.9	
666.92	4458.4	
667.11	5452.4	
667.29	5948	
667.48	6227.9	
667.67	5077.6	
667.85	4567.7	
668.04	5831.2	
668.22	5729.5	
668.41	4693.3	
668.6	4874.2	
668.78	5738.4	
668.97	5827.2	
669.15	4846.2	
669.34	4205.2	
669.53	5739.1	
669.71	5988.3	
669.9	4308.2	
670.08	4708.3	
670.27	5650.3	
670.46	6143.2	
670.64	4927.4	
670.83	4955.4	
671.01	5538.4	
671.2	6006	
671.38	4384.7	
671.57	4317.8	
671.76	6461.3	
671.94	6806.1	
672.13	4203.1	
672.31	4958.8	
672.5	6277.7	
672.69	5709.1	
672.87	4308.9	
673.06	4515.8	
673.24	6080.4	
673.43	5783.5	
673.61	4758.1	
673.8	4533.5	
673.98	6144.6	
674.17	6219	
674.36	4934.9	
674.54	4810	
674.73	5959.6	
674.91	6239.5	
675.1	4605.9	
675.28	4371.7	
675.47	5884.5	
675.65	6217	
675.84	4599.7	
676.03	4685.1	
676.21	5832.6	
676.4	5410.7	
676.58	5057.1	
676.77	4915.8	
676.95	6810.2	
677.14	5767.1	
677.32	4347.8	
677.51	4279.6	
677.69	6247.7	
677.88	5576.6	
678.06	4328.7	
678.25	4343.1	
678.44	5881.1	
678.62	5651	
678.81	4208.6	
678.99	4779.3	
679.18	6491.4	
679.36	6122.7	
679.55	4489.1	
679.73	4917.9	
679.92	6151.4	
680.1	5705	
680.29	5304.2	
680.47	4556	
680.66	5769.8	
680.84	6253.1	
681.03	4146.5	
681.21	4876.2	
681.4	5745.2	
681.58	5648.3	
681.77	4425.7	
681.95	4345.1	
682.14	6319.3	
682.32	6507.1	
682.51	4956.1	
682.69	4129.4	
682.88	5675.6	
683.06	6018.3	
683.25	4809.3	
683.43	5033.2	
683.62	5961	
683.8	6126.8	
683.99	5057.8	
684.17	4631.1	
684.36	6640.9	
684.54	5789.6	
684.73	4122.6	
684.91	4201.7	
685.1	5999.2	
685.28	5527.5	
685.46	4513.7	
685.65	4604.5	
685.83	6070.2	
686.02	5637.4	
686.2	4225	
686.39	4278.2	
686.57	5508.4	
686.76	6388.3	
686.94	4280.9	
687.13	4353.3	
687.31	6038.1	
687.5	5745.9	
687.68	3967.6	
687.86	4706.2	
688.05	6869.6	
688.23	5292.6	
688.42	4762.9	
688.6	4266.6	
688.79	5595.1	
688.97	5614.8	
689.16	4578.6	
689.34	3889.8	
689.52	6115.2	
689.71	6346.7	
689.89	4747.2	
690.08	4316.4	
690.26	5915.2	
690.45	5645.6	
690.63	4910.3	
690.81	4363.5	
691	5740.5	
691.18	5603.2	
691.37	4494.6	
691.55	5833.3	
691.74	5547.3	
691.92	6773.3	
692.1	4416.1	
692.29	4138.3	
692.47	5730.9	
692.66	5262.6	
692.84	4246.8	
693.02	4530.8	
693.21	5353.4	
693.39	5710.4	
693.58	4679.6	
693.76	4308.2	
693.94	6368.5	
694.13	6291.4	
694.31	4347.2	
694.5	5013.4	
694.68	5528.8	
694.86	5890.6	
695.05	4577.9	
695.23	4629.1	
695.42	6057.9	
695.6	7415.7	
695.78	4906.9	
695.97	4343.7	
696.15	6122.1	
696.34	5617.6	
696.52	4197	
696.7	4728.8	
696.89	5885.9	
697.07	5498.1	
697.25	4715.8	
697.44	5497.4	
697.62	5916.6	
697.81	6016.2	
697.99	4478.2	
698.17	4743.1	
698.36	5536.3	
698.54	5941.2	
698.72	4677.6	
698.91	4022.2	
699.09	5672.9	
699.28	5513.1	
699.46	4524.6	
699.64	4299.4	
699.83	5535	
700.01	6177.4	
700.19	4886.5	
700.38	3851.5	
700.56	6248.4	
700.74	5531.6	
700.93	4143	
701.11	4646.8	
701.29	5971.2	
701.48	6692.8	
701.66	4265.9	
701.84	4319.2	
702.03	5718.6	
702.21	6122.7	
702.39	4072	
702.58	4417.5	
702.76	6007.4	
702.94	6066.1	
703.13	4044.1	
703.31	5572.5	
703.49	5568.4	
703.68	6174.6	
703.86	4205.2	
704.04	4785.4	
704.23	5915.9	
704.41	6058.6	
704.59	4271.4	
704.78	5044.1	
704.96	6868.2	
705.14	6059.3	
705.33	4132.8	
705.51	4672.8	
705.69	5659.9	
705.87	6199.9	
706.06	4782	
706.24	4113	
706.42	5883.1	
706.61	6055.2	
706.79	4893.3	
706.97	4119.8	
707.16	5582.1	
707.34	5821	
707.52	4793.6	
707.7	4227.7	
707.89	5530.9	
708.07	5429.2	
708.25	4801.8	
708.44	4941.1	
708.62	5585.5	
708.8	6329.6	
708.98	4943.1	
709.17	4356	
709.35	5840.8	
709.53	5823.1	
709.72	4117.1	
709.9	4278.9	
710.08	6122.7	
710.26	6038.8	
710.45	5142.4	
710.63	4317.1	
710.81	5765	
710.99	5826.5	
711.18	4732.9	
711.36	4382.7	
711.54	5713.8	
711.72	6158.9	
711.91	4476.9	
712.09	4083.6	
712.27	5791	
712.45	6090	
712.64	4557.4	
712.82	3897.3	
713	5429.8	
713.18	5578.7	
713.37	3984	
713.55	4739	
713.73	6140.5	
713.91	5213.4	
714.1	4202.4	
714.28	3873.4	
714.46	5830.6	
714.64	5328.1	
714.83	3511.6	
715.01	3974.4	
715.19	5432.6	
715.37	4902.8	
715.55	3781.9	
715.74	3975.8	
715.92	5879.7	
716.1	4542.4	
716.28	4715.8	
716.47	4057.7	
716.65	5109.7	
716.83	5047.6	
717.01	3958.7	
717.19	3957.4	
717.38	6486.6	
717.56	4877.6	
717.74	4158.7	
717.92	3597.6	
718.1	5786.2	
718.29	5212.8	
718.47	3370.3	
718.65	3830.4	
718.83	5670.8	
719.01	5616.2	
719.2	3353.9	
719.38	4011.3	
719.56	5443.5	
719.74	6435.4	
719.92	3785.3	
720.11	4430.4	
720.29	5549.3	
720.47	4883	
720.65	3541.6	
720.83	4035.9	
721.02	5134.3	
721.2	4988.9	
721.38	4019.5	
721.56	3523.9	
721.74	4638.6	
721.92	4683.7	
722.11	4371	
722.29	4154	
722.47	5610.8	
722.65	5004.6	
722.83	3583.3	
723.01	4091.8	
723.2	5057.1	
723.38	5253.7	
723.56	3214.6	
723.74	3969	
723.92	4773.1	
724.1	5477	
724.29	3537.5	
724.47	4237.9	
724.65	4870.8	
724.83	4678.9	
725.01	3506.8	
725.19	4017.4	
725.37	4804.5	
725.56	4799.8	
725.74	3452.2	
725.92	3534.1	
726.1	4745.8	
726.28	4997	
726.46	3806.5	
726.64	3582.6	
726.83	5075.5	
727.01	5132.2	
727.19	3392.1	
727.37	3942.3	
727.55	5084.4	
727.73	5352	
727.91	3378.5	
728.09	3283.6	
728.28	5416.2	
728.46	5532.9	
728.64	3928.7	
728.82	3935.5	
729	6090	
729.18	5594.4	
729.36	3368.2	
729.54	4894.6	
729.72	6238.8	
729.91	5164.3	
730.09	4766.3	
730.27	3895.9	
730.45	5143.1	
730.63	5513.1	
730.81	4261.1	
730.99	3725.3	
731.17	5907.7	
731.35	4913.8	
731.53	3998.3	
731.71	3773.7	
731.9	5670.8	
732.08	5740.5	
732.26	3927.3	
732.44	3644	
732.62	5746.6	
732.8	5416.2	
732.98	4080.2	
733.16	3531.4	
733.34	5565.7	
733.52	4633.2	
733.7	3876.8	
733.88	4011.3	
734.07	5313.1	
734.25	5204.6	
734.43	3526.6	
734.61	4478.2	
734.79	6141.9	
734.97	5139.7	
735.15	3668.6	
735.33	3870	
735.51	5369.8	
735.69	5119.2	
735.87	4472.8	
736.05	3943.7	
736.23	5292	
736.41	5046.2	
736.59	3853.6	
736.77	3930.1	
736.95	5576.6	
737.13	5163.6	
737.32	3657.7	
737.5	3788.7	
737.68	5937.1	
737.86	5022.3	
738.04	3560.1	
738.22	4689.2	
738.4	5060.5	
738.58	5297.4	
738.76	3944.4	
738.94	3248.1	
739.12	5097.4	
739.3	5013.4	
739.48	4354	
739.66	4134.2	
739.84	5216.9	
740.02	5195.7	
740.2	3377.8	
740.38	3568.9	
740.56	5412.8	
740.74	4653.7	
740.92	4029.7	
741.1	3880.9	
741.28	5126.1	
741.46	4909.7	
741.64	3718.4	
741.82	4080.9	
742	5125.4	
742.18	5085.1	
742.36	3819.5	
742.54	3625.6	
742.72	5527.5	
742.9	4642.1	
743.08	3984	
743.26	3269.2	
743.44	5499.5	
743.62	5481	
743.8	4184.7	
743.98	3573	
744.16	5307	
744.34	5044.1	
744.52	4082.3	
744.7	4091.2	
744.88	5421	
745.06	5078.3	
745.24	4040	
745.42	4174.4	
745.6	5466.7	
745.78	5371.8	
745.96	3349.1	
746.14	3517.7	
746.32	6005.3	
746.5	5378.6	
746.68	3916.4	
746.86	3532.1	
747.03	5680.4	
747.21	4624.3	
747.39	3956.7	
747.57	3499.3	
747.75	5167.7	
747.93	5347.9	
748.11	3500.7	
748.29	3506.8	
748.47	6251.1	
748.65	5002.5	
748.83	4033.1	
749.01	3836.5	
749.19	5344.5	
749.37	4660.5	
749.55	3796.3	
749.73	3846.1	
749.91	5171.1	
750.09	5003.9	
750.26	3816	
750.44	3420.1	
750.62	5140.4	
750.8	5050.3	
750.98	3341.6	
751.16	3556	
751.34	5182.7	
751.52	4758.1	
751.7	4099.4	
751.88	3328.6	
752.06	5485.8	
752.24	5296.7	
752.42	3305.4	
752.59	3556	
752.77	5067.4	
752.95	5863.3	
753.13	4055	
753.31	3573	
753.49	4872.1	
753.67	5165	
753.85	3828.3	
754.03	3515	
754.21	5375.2	
754.38	5539.8	
754.56	3625.6	
754.74	3007.1	
754.92	4822.3	
755.1	5199.1	
755.28	3018.7	
755.46	3095.8	
755.64	5791	
755.82	5833.3	
755.99	3239.2	
756.17	3278.1	
756.35	4159.4	
756.53	5179.3	
756.71	2518.3	
756.89	3390.8	
757.07	4906.9	
757.25	4298.7	
757.42	3512.3	
757.6	4059.8	
757.78	4999.1	
757.96	4256.4	
758.14	3277.4	
758.32	3008.5	
758.5	4052.2	
758.67	4557.4	
758.85	3164.1	
759.03	3215.3	
759.21	4744.5	
759.39	4296.6	
759.57	2910.2	
759.75	3659	
759.92	5137.7	
760.1	4758.8	
760.28	3820.1	
760.46	3995.6	
760.64	4520.5	
760.82	4414.1	
760.99	3775.1	
761.17	3233.1	
761.35	5074.2	
761.53	4296	
761.71	3444.7	
761.89	3798.3	
762.06	4960.9	
762.24	4597	
762.42	3438.5	
762.6	3256.3	
762.78	4622.3	
762.96	5041.4	
763.13	3660.4	
763.31	3372.3	
763.49	5221	
763.67	4574.5	
763.85	3938.2	
764.02	4315.1	
764.2	5409.4	
764.38	4718.5	
764.56	3345	
764.74	3903.4	
764.91	5363.6	
765.09	4616.1	
765.27	3169.6	
765.45	3048.7	
765.63	5512.4	
765.8	5262.6	
765.98	2895.1	
766.16	3060.3	
766.34	4347.8	
766.52	4251.6	
766.69	3680.2	
766.87	2947.7	
767.05	4675.5	
767.23	5158.2	
767.41	3173	
767.58	3349.1	
767.76	5014.1	
767.94	5075.5	
768.12	3285.6	
768.29	3689.8	
768.47	4678.9	
768.65	5141.8	
768.83	2947.7	
769	3669.3	
769.18	4444.8	
769.36	4908.3	
769.54	3666.5	
769.72	3007.1	
769.89	5159.5	
770.07	5112.4	
770.25	3210.5	
770.43	4057	
770.6	5570.5	
770.78	5784.1	
770.96	3367.5	
771.14	3697.3	
771.31	5115.1	
771.49	4614.8	
771.67	2848.7	
771.85	2924.5	
772.02	4073.4	
772.2	4564.2	
772.38	3465.8	
772.55	3117	
772.73	4815.5	
772.91	4625.7	
773.09	3362.1	
773.26	3361.4	
773.44	4767	
773.62	4589.5	
773.8	3001	
773.97	2884.2	
774.15	4786.8	
774.33	4590.9	
774.5	3025.5	
774.68	3175	
774.86	4860.5	
775.04	4586.1	
775.21	3009.8	
775.39	2938.8	
775.57	4777.2	
775.74	4945.2	
775.92	2900.6	
776.1	2835.8	
776.27	4712.4	
776.45	5435.3	
776.63	3087	
776.81	2772.3	
776.98	4535.6	
777.16	5182	
777.34	3093.1	
777.51	3309.5	
777.69	4586.8	
777.87	4288.4	
778.04	3206.4	
778.22	3524.6	
778.4	4334.9	
778.57	4792.2	
778.75	2671.2	
778.93	2928.6	
779.1	4281.6	
779.28	4126	
779.46	2695.1	
779.64	2973.7	
779.81	4919.9	
779.99	5450.3	
780.17	3456.3	
780.34	3581.9	
780.52	4570.4	
780.69	4660.5	
780.87	3160	
781.05	2989.4	
781.22	4594.3	
781.4	4620.9	
781.58	3066.5	
781.75	2514.9	
781.93	4650.9	
782.11	4136.9	
782.28	3621.5	
782.46	3022.8	
782.64	4071.4	
782.81	4706.9	
782.99	3137.5	
783.17	3004.4	
783.34	4666.6	
783.52	4240.7	
783.69	3143.6	
783.87	3682.9	
784.05	4326.7	
784.22	4213.4	
784.4	3676.8	
784.58	3201.7	
784.75	4870.8	
784.93	4305.5	
785.1	3036.5	
785.28	3375.7	
785.46	4719.2	
785.63	4151.2	
785.81	3008.5	
785.99	2828.9	
786.16	4414.1	
786.34	4524	
786.51	2926.5	
786.69	3258.3	
786.87	4028.4	
787.04	4365.6	
787.22	2888.3	
787.39	3461.7	
787.57	4250.9	
787.75	4954.7	
787.92	3661.1	
788.1	3523.9	
788.27	4209.3	
788.45	3975.8	
788.63	3379.8	
788.8	2508.8	
788.98	4621.6	
789.15	3935.5	
789.33	2665.1	
789.5	2970.9	
789.68	4833.2	
789.86	4930.8	
790.03	3291.8	
790.21	2918.4	
790.38	4912.4	
790.56	4379.2	
790.73	2921.1	
790.91	2856.2	
791.09	4213.4	
791.26	4724.7	
791.44	3030.3	
791.61	2636.4	
791.79	4234.5	
791.96	4248.2	
792.14	2764.1	
792.32	2467.1	
792.49	4196.3	
792.67	4334.9	
792.84	2825.5	
793.02	2640.5	
793.19	4565.6	
793.37	4955.4	
793.54	2463	
793.72	2691	
793.89	5033.9	
794.07	4132.8	
794.25	3111.5	
794.42	2532.7	
794.6	4945.2	
794.77	4607.2	
794.95	3276.7	
795.12	2874	
795.3	4259.8	
795.47	4574.5	
795.65	3192.8	
795.82	3018	
796	4125.3	
796.17	5272.2	
796.35	3008.5	
796.52	3470.6	
796.7	4608.6	
796.87	4674.1	
797.05	2952.5	
797.22	3511.6	
797.4	4632.5	
797.57	5213.4	
797.75	3071.3	
797.92	2859.6	
798.1	4844.8	
798.27	4106.9	
798.45	2579.1	
798.62	2732	
798.8	4407.9	
798.97	4752.7	
799.15	3162.7	
799.32	3073.3	
799.5	3949.2	
799.67	4420.9	
799.85	3282.9	
800.02	2538.1	
800.2	4238.6	
800.37	4343.7	
800.55	3357.3	
800.72	2895.8	
800.9	4675.5	
801.07	4968.4	
801.25	3742.3	
801.42	3154.6	
801.6	4749.9	
801.77	4410	
801.95	2988	
802.12	2854.2	
802.29	4586.1	
802.47	4421.6	
802.64	3191.4	
802.82	2457.6	
802.99	4235.9	
803.17	4771.1	
803.34	3094.5	
803.52	2779.8	
803.69	5223.7	
803.87	3982.6	
804.04	3071.3	
804.21	3136.1	
804.39	4990.2	
804.56	4293.9	
804.74	2664.4	
804.91	3145	
805.09	4201.7	
805.26	4227	
805.44	2723.8	
805.61	2953.9	
805.78	4770.4	
805.96	4630.5	
806.13	3077.4	
806.31	3380.5	
806.48	3922.5	
806.66	4210.6	
806.83	3154.6	
807	3111.5	
807.18	4260.5	
807.35	4428.4	
807.53	3030.3	
807.7	2592.7	
807.87	4941.1	
808.05	4256.4	
808.22	3323.9	
808.4	2581.8	
808.57	4215.4	
808.74	3962.8	
808.92	2861	
809.09	3489.7	
809.27	4224.3	
809.44	4532.8	
809.61	2557.9	
809.79	2852.1	
809.96	5102.9	
810.14	4607.9	
810.31	2536.1	
810.48	3110.2	
810.66	4270.7	
810.83	4683	
811.01	2887.6	
811.18	3085.6	
811.35	4674.1	
811.53	3820.8	
811.7	3353.9	
811.87	3168.9	
812.05	4343.7	
812.22	4177.2	
812.39	2777	
812.57	2686.3	
812.74	4293.2	
812.92	5322	
813.09	3007.8	
813.26	3142.9	
813.44	5069.4	
813.61	4160.1	
813.78	2509.4	
813.96	3243.3	
814.13	4266.6	
814.3	4072	
814.48	3526.6	
814.65	2974.3	
814.82	5058.5	
815	4027	
815.17	3059	
815.34	3546.4	
815.52	4212	
815.69	4160.8	
815.87	2988.7	
816.04	2945	
816.21	4170.3	
816.38	3886.4	
816.56	2946.3	
816.73	2820.1	
816.9	5182.7	
817.08	4702.8	
817.25	2850.8	
817.42	3343	
817.6	3996.3	
817.77	4160.8	
817.94	3078.1	
818.12	2723.8	
818.29	4076.1	
818.46	5709.7	
818.64	2941.6	
818.81	2669.9	
818.98	4057	
819.16	5401.2	
819.33	3284.9	
819.5	3043.3	
819.67	4447.5	
819.85	4885.8	
820.02	3052.8	
820.19	3104.7	
820.37	4390.2	
820.54	4162.2	
820.71	3070.6	
820.88	3687.7	
821.06	4367	
821.23	4076.8	
821.4	3117	
821.58	3081.5	
821.75	4687.8	
821.92	4369	
822.09	2623.4	
822.27	2803.7	
822.44	4191.5	
822.61	4158.1	
822.79	2593.4	
822.96	4556.7	
823.13	4471.4	
823.3	3975.1	
823.48	2923.8	
823.65	2667.1	
823.82	4730.8	
823.99	3993.5	
824.17	3627.6	
824.34	2661.7	
824.51	5302.9	
824.68	4308.9	
824.86	2803.7	
825.03	3080.8	
825.2	4274.1	
825.37	4876.9	
825.55	2861.7	
825.72	3029.6	
825.89	5269.4	
826.06	4981.3	
826.24	2981.2	
826.41	2994.8	
826.58	4973.2	
826.75	4369.7	
826.92	2485.6	
827.1	2680.1	
827.27	6393.8	
827.44	5192.3	
827.61	2835.1	
827.79	3329.3	
827.96	4154.6	
828.13	4210.6	
828.3	2964.1	
828.47	2498.5	
828.65	4500.8	
828.82	4476.9	
828.99	3639.2	
829.16	3190.1	
829.34	4738.3	
829.51	4590.2	
829.68	3046.7	
829.85	3095.2	
830.02	5064.6	
830.2	4714.4	
830.37	2458.2	
830.54	3534.1	
830.71	5223	
830.88	4280.9	
831.05	2392.7	
831.23	2734.7	
831.4	5111.7	
831.57	5462.6	
831.74	2828.9	
831.91	2572.9	
832.09	4607.2	
832.26	4701.5	
832.43	2859	
832.6	3203	
832.77	4515.1	
832.94	4979.3	
833.12	2402.3	
833.29	2820.7	
833.46	4376.5	
833.63	5602.6	
833.8	3133.4	
833.97	2884.9	
834.15	4840.7	
834.32	4657.1	
834.49	3039.2	
834.66	3050.8	
834.83	4851	
835	4134.8	
835.17	2854.9	
835.35	2801.6	
835.52	4706.9	
835.69	4603.8	
835.86	2976.4	
836.03	2486.9	
836.2	4747.9	
836.37	4390.8	
836.55	2877.4	
836.72	2723.1	
836.89	4405.2	
837.06	4819.6	
837.23	2930.6	
837.4	3148.4	
837.57	5293.3	
837.75	5602.6	
837.92	2641.9	
838.09	2830.3	
838.26	4445.5	
838.43	4855.7	
838.6	3031	
838.77	2738.8	
838.94	5337	
839.11	5319.3	
839.29	2928.6	
839.46	2378.4	
839.63	4791.6	
839.8	4534.9	
839.97	2821.4	
840.14	2793.4	
840.31	4588.1	
840.48	4698.7	
840.65	2396.8	
840.82	2789.3	
841	4711	
841.17	4574.5	
841.34	2622.1	
841.51	2665.8	
841.68	4687.1	
841.85	4457.7	
842.02	2689	
842.19	2327.9	
842.36	4539.7	
842.53	4562.2	
842.7	2671.2	
842.87	3047.4	
843.05	5618.9	
843.22	4508.9	
843.39	2488.3	
843.56	2706	
843.73	4424.3	
843.9	4759.5	
844.07	4007.9	
844.24	3367.5	
844.41	6240.8	
844.58	4198.3	
844.75	2539.5	
844.92	2785.2	
845.09	4674.1	
845.26	4689.8	
845.43	2613.9	
845.6	2747.7	
845.77	4710.3	
845.94	4525.3	
846.12	2911.5	
846.29	3005.1	
846.46	4830.5	
846.63	4633.9	
846.8	2608.4	
846.97	3041.2	
847.14	5005.9	
847.31	4637.3	
847.48	2902	
847.65	3134.8	
847.82	4799.1	
847.99	4816.8	
848.16	3361.4	
848.33	3139.5	
848.5	4379.2	
848.67	4992.3	
848.84	2570.2	
849.01	2695.8	
849.18	4338.3	
849.35	4095.3	
849.52	3149.8	
849.69	2526.5	
849.86	4874.8	
850.03	4900.1	
850.2	2633.7	
850.37	3063.1	
850.54	4923.3	
850.71	4478.2	
850.88	3160	
851.05	2568.8	
851.22	4586.8	
851.39	4990.2	
851.56	2443.9	
851.73	2895.8	
851.9	4212	
852.07	4799.8	
852.24	2892.4	
852.41	2555.2	
852.58	4653	
852.75	4280.3	
852.92	2915.6	
853.09	2555.2	
853.26	4381.3	
853.43	4934.2	
853.6	2587.3	
853.77	2282.8	
853.94	5082.4	
854.11	4277.5	
854.28	3709.6	
854.44	2832.3	
854.61	5292.6	
854.78	4910.3	
854.95	2590.7	
855.12	3109.5	
855.29	3921.9	
855.46	5099.4	
855.63	2609.1	
855.8	3451.5	
855.97	4321.2	
856.14	4915.1	
856.31	3491.8	
856.48	2770.9	
856.65	4526.7	
856.82	4203.8	
856.99	2542.9	
857.16	2801.6	
857.33	5461.9	
857.49	4422.2	
857.66	2802.3	
857.83	2945	
858	4526.7	
858.17	4613.4	
858.34	2489	
858.51	2623.4	
858.68	5098.8	
858.85	5055.8	
859.02	3026.2	
859.19	3090.4	
859.36	4207.2	
859.52	4199.7	
859.69	2650.1	
859.86	3007.1	
860.03	4244.1	
860.2	5029.8	
860.37	2454.8	
860.54	2646.7	
860.71	4785.4	
860.88	5050.3	
861.05	2850.1	
861.21	3209.8	
861.38	5029.1	
861.55	4059.1	
861.72	2413.9	
861.89	2907.4	
862.06	4947.2	
862.23	5111.7	
862.4	2537.4	
862.56	2692.4	
862.73	4694.6	
862.9	4489.8	
863.07	2988	
863.24	2419.3	
863.41	4164.9	
863.58	4261.1	
863.75	2646	
863.91	2983.9	
864.08	4899.4	
864.25	4705.5	
864.42	3157.3	
864.59	3530	
864.76	5231.9	
864.93	4206.5	
865.09	2537.4	
865.26	2782.5	
865.43	4990.9	
865.6	5200.5	
865.77	2295.8	
865.94	2552.5	
866.1	5010	
866.27	4773.8	
866.44	3735.5	
866.61	2539.5	
866.78	4489.1	
866.95	4743.1	
867.11	2600.9	
867.28	2400.2	
867.45	4960.9	
867.62	4197	
867.79	2983.9	
867.96	2549.7	
868.12	4217.5	
868.29	4784.1	
868.46	2593.4	
868.63	3347.1	
868.8	4850.3	
868.97	4755.4	
869.13	2740.2	
869.3	2671.9	
869.47	4698	
869.64	4868.7	
869.81	2557.9	
869.97	2596.1	
870.14	4556	
870.31	5077.6	
870.48	2560	
870.65	3231.7	
870.81	4464.6	
870.98	4394.9	
871.15	2908.1	
871.32	2753.8	
871.48	4694.6	
871.65	5083.1	
871.82	2577.7	
871.99	2835.1	
872.16	5403.9	
872.32	4947.9	
872.49	2678.1	
872.66	2660.3	
872.83	4823	
872.99	4330.8	
873.16	2902.7	
873.33	2579.8	
873.5	4567.7	
873.67	4577.9	
873.83	2698.5	
874	3345	
874.17	4679.6	
874.34	5263.3	
874.5	3233.7	
874.67	3121.8	
874.84	5000.5	
875.01	4098	
875.17	3519.8	
875.34	2618.7	
875.51	4614.8	
875.68	5361.6	
875.84	3067.9	
876.01	3596.9	
876.18	4762.9	
876.34	4723.3	
876.51	2584.5	
876.68	2510.8	
876.85	4418.8	
877.01	5026.4	
877.18	3583.9	
877.35	2570.9	
877.52	4677.6	
877.68	4205.2	
877.85	2594.1	
878.02	2611.2	
878.18	4389.5	
878.35	4336.9	
878.52	2148.3	
878.69	2996.2	
878.85	4906.3	
879.02	4700.1	
879.19	3543.7	
879.35	2768.9	
879.52	4782.7	
879.69	4833.9	
879.86	2363.4	
880.02	2867.8	
880.19	4497.3	
880.36	5256.5	
880.52	2908.8	
880.69	3027.6	
880.86	4845.5	
881.02	4796.3	
881.19	2849.4	
881.36	2732	
881.52	4713.1	
881.69	4345.1	
881.86	2854.2	
882.02	2752.5	
882.19	4933.6	
882.36	5573.2	
882.52	2665.8	
882.69	3478.8	
882.86	4659.1	
883.02	4642.7	
883.19	3026.9	
883.36	2933.4	
883.52	4838.7	
883.69	5385.5	
883.86	2719	
884.02	2400.9	
884.19	4786.8	
884.36	4587.4	
884.52	2882.2	
884.69	2805.7	
884.86	4403.1	
885.02	5175.9	
885.19	2822.1	
885.36	2932.7	
885.52	4543.1	
885.69	4667.3	
885.86	3611.9	
886.02	3200.3	
886.19	4842.8	
886.35	4368.3	
886.52	2812.5	
886.69	3502	
886.85	4227	
887.02	4991.6	
887.19	4991.6	
887.35	4991.6	
887.52	4991.6	
887.68	4991.6	
887.85	4991.6	
888.02	4991.6	
888.18	4991.6	
888.35	4991.6	
888.51	4991.6	
888.68	4991.6	
888.85	4991.6	
889.01	4991.6	
889.18	4991.6	
889.35	4991.6	
889.51	4991.6	
889.68	4991.6	
889.84	4991.6	
890.01	4991.6	
890.17	4991.6	
890.34	4991.6	
890.51	4991.6	
890.67	4991.6	
890.84	4991.6	
891	4991.6	
891.17	4991.6	
891.34	4991.6	
891.5	4991.6	
891.67	4991.6	
891.83	4991.6	
892	4991.6	
892.16	4991.6	
892.33	4991.6	
892.5	4991.6	
892.66	4991.6	
892.83	4991.6	
892.99	4991.6	
893.16	4991.6	
893.32	4991.6	
893.49	4991.6	
893.65	4991.6	
893.82	4991.6	
893.99	4991.6	
894.15	4991.6	
894.32	4991.6	
894.48	4991.6	
894.65	4991.6	
894.81	4991.6	
894.98	4991.6	
895.14	4991.6	
895.31	4991.6	
895.47	4991.6	
895.64	4991.6	
895.81	4991.6	
895.97	4991.6	
896.14	4991.6	
896.3	4991.6	
896.47	4991.6	
896.63	4991.6	
896.8	4991.6	
896.96	4991.6	
897.13	4991.6	
897.29	4991.6	
897.46	4991.6	
897.62	4991.6	
897.79	4991.6	
897.95	4991.6	
898.12	4991.6	
898.28	4991.6	
898.45	4991.6	
898.61	4991.6	
898.78	4991.6	
898.94	4991.6	
899.11	4991.6	
899.27	4991.6	
899.44	4991.6	
899.6	4991.6	
899.77	4991.6	
899.93	4991.6	
900.1	4991.6	
900.26	4991.6	
900.43	4991.6	
900.59	4991.6	
900.76	4991.6	
900.92	4991.6	
901.09	4991.6	
901.25	4991.6	
901.42	4991.6	
901.58	4991.6	
901.75	4991.6	
901.91	4991.6	
902.07	4991.6	
902.24	4991.6	
902.4	4991.6	
902.57	4991.6	
902.73	4991.6	
902.9	4991.6	
903.06	4991.6	
903.23	4991.6	
903.39	4991.6	
903.56	4991.6	
903.72	4991.6	
903.88	4991.6	
904.05	4991.6	
904.21	4991.6	
904.38	4991.6	
904.54	4991.6	
904.71	4991.6	
904.87	4991.6	
905.03	4991.6	
905.2	4991.6	
905.36	4991.6	
905.53	4991.6	
905.69	4991.6	
905.86	4991.6	
906.02	4991.6	
906.18	4991.6	
906.35	4991.6	
906.51	4991.6	
906.68	4991.6	
906.84	4991.6	
907.01	4991.6	
907.17	4991.6	
907.33	4991.6	
907.5	4991.6	
907.66	4991.6	
907.83	4991.6	
907.99	4991.6	
908.15	4991.6	
908.32	4991.6	
908.48	4991.6	
908.65	4991.6	
908.81	4991.6	
908.97	4991.6	
909.14	4991.6	
909.3	4991.6	
909.47	4991.6	
909.63	4991.6	
909.79	4991.6	
909.96	4991.6	
910.12	4991.6	
910.28	4991.6	
910.45	4991.6	
910.61	4991.6	
910.78	4991.6	
910.94	4991.6	
911.1	4991.6	
911.27	4991.6	
911.43	4991.6	
911.59	4991.6	
911.76	4991.6	
911.92	4991.6	
912.08	4991.6	
912.25	4991.6	
912.41	4991.6	
912.57	4991.6	
912.74	4991.6	
912.9	4991.6	
913.07	4991.6	
913.23	4991.6	
913.39	4991.6	
913.56	4991.6	
913.72	4991.6	
913.88	4991.6	
914.05	4991.6	
914.21	4991.6	
914.37	4991.6	
914.54	4991.6	
914.7	4991.6	
914.86	4991.6	
915.03	4991.6	
915.19	4991.6	
