Wavelength	Intensities	
nm	a.u.	
179.22	1867.2	
179.44	1872.2	
179.65	1862.3	
179.86	1882.1	
180.08	1883.4	
180.29	4894.6	
180.51	3547.8	
180.72	5633.3	
180.94	6572.6	
181.15	3309.5	
181.37	3110.9	
181.58	5526.1	
181.79	5793	
182.01	3399.6	
182.22	3613.3	
182.44	5735.7	
182.65	4829.1	
182.87	4562.9	
183.08	4024.9	
183.29	6055.8	
183.51	4980.7	
183.72	3674.1	
183.94	5303.6	
184.15	5365	
184.37	5393	
184.58	3161.4	
184.79	4442	
185.01	4998.4	
185.22	5803.9	
185.44	4683	
185.65	3930.7	
185.86	5259.2	
186.08	4880.3	
186.29	3142.9	
186.51	3415.3	
186.72	5082.4	
186.94	5969.8	
187.15	3930.1	
187.36	4027.7	
187.58	7745.4	
187.79	5518.6	
188.01	4190.1	
188.22	6560.3	
188.43	6623.8	
188.65	5722.7	
188.86	3353.9	
189.08	4063.9	
189.29	5219.6	
189.5	5185.5	
189.72	3753.9	
189.93	3794.2	
190.15	5968.5	
190.36	7189.7	
190.57	4144.4	
190.79	3969	
191	6088.6	
191.22	6036.7	
191.43	4146.5	
191.64	3427.6	
191.86	6272.9	
192.07	6038.8	
192.29	3590.1	
192.5	3758	
192.71	6006	
192.93	5151.3	
193.14	3706.1	
193.35	3851.5	
193.57	5234.6	
193.78	5980.8	
194	3018	
194.21	3686.3	
194.42	4965.6	
194.64	5412.8	
194.85	4031.8	
195.07	4688.5	
195.28	5482.4	
195.49	4697.4	
195.71	4981.3	
195.92	3444	
196.13	5603.9	
196.35	5728.2	
196.56	5327.4	
196.78	4042	
196.99	7042.3	
197.2	6526.2	
197.42	4657.8	
197.63	4080.9	
197.84	4831.2	
198.06	5657.9	
198.27	3720.5	
198.48	5042.8	
198.7	5156.8	
198.91	5362.3	
199.13	4059.1	
199.34	4102.8	
199.55	5824.4	
199.77	4685.1	
199.98	3554.6	
200.19	4106.9	
200.41	5319.3	
200.62	5057.8	
200.83	4237.9	
201.05	4543.8	
201.26	5340.4	
201.47	5052.3	
201.69	3583.9	
201.9	3467.2	
202.11	5398.4	
202.33	6406	
202.54	3807.2	
202.76	4276.8	
202.97	5504.3	
203.18	5540.4	
203.4	4208.6	
203.61	4085	
203.82	5513.8	
204.04	5073.5	
204.25	4093.9	
204.46	4005.8	
204.68	5463.3	
204.89	5651.7	
205.1	3929.4	
205.32	3481.5	
205.53	5806	
205.74	5996.5	
205.96	2955.9	
206.17	4144.4	
206.38	5766.4	
206.6	5935.7	
206.81	4686.4	
207.02	3786	
207.24	5722.7	
207.45	6035.4	
207.66	3850.2	
207.88	3300.6	
208.09	5619.6	
208.3	5421	
208.52	3518.4	
208.73	3887	
208.94	5406	
209.15	6154.8	
209.37	3885	
209.58	4053.6	
209.79	5949.3	
210.01	5190.2	
210.22	3095.2	
210.43	3200.3	
210.65	5414.8	
210.86	5825.8	
211.07	3866.6	
211.29	3540.3	
211.5	5801.2	
211.71	5352.7	
211.93	3564.1	
212.14	3564.1	
212.35	5280.3	
212.56	5586.2	
212.78	4098	
212.99	3366.2	
213.2	6502.3	
213.42	5130.2	
213.63	3726.6	
213.84	4007.2	
214.06	4793.6	
214.27	4911	
214.48	3824.9	
214.69	4158.1	
214.91	6080.4	
215.12	6200.6	
215.33	4209.9	
215.55	4603.8	
215.76	6675	
215.97	5794.4	
216.18	4017.4	
216.4	3909.6	
216.61	5099.4	
216.82	5913.2	
217.04	3550.5	
217.25	3702	
217.46	6131.6	
217.67	5860.6	
217.89	3147	
218.1	3285.6	
218.31	5490.6	
218.53	5629.2	
218.74	3722.5	
218.95	3632.4	
219.16	5347.2	
219.38	6384.2	
219.59	3607.8	
219.8	4315.1	
220.01	7036.8	
220.23	5477.6	
220.44	4690.5	
220.65	3531.4	
220.87	5462.6	
221.08	6044.2	
221.29	3289	
221.5	4390.8	
221.72	7405.5	
221.93	5117.2	
222.14	4113.7	
222.35	4820.9	
222.57	5446.9	
222.78	5802.6	
222.99	3888.4	
223.2	4246.8	
223.42	5723.4	
223.63	5836.7	
223.84	2958.6	
224.05	2923.1	
224.27	6948.8	
224.48	6268.1	
224.69	4835.3	
224.9	4072.7	
225.12	5649	
225.33	5370.5	
225.54	3226.2	
225.75	3667.9	
225.97	5009.3	
226.18	5268.1	
226.39	3951.2	
226.6	3687.7	
226.82	5167	
227.03	5023	
227.24	4052.2	
227.45	3367.5	
227.67	5818.3	
227.88	6380.8	
228.09	4530.8	
228.3	4647.5	
228.52	5823.1	
228.73	5388.2	
228.94	3833.8	
229.15	3366.9	
229.36	5313.8	
229.58	5270.8	
229.79	3797.6	
230	4433.9	
230.21	6421.1	
230.43	5499.5	
230.64	4059.1	
230.85	4274.8	
231.06	5857.9	
231.28	5844.9	
231.49	3397.6	
231.7	3976.5	
231.91	5769.1	
232.12	5464	
232.34	3423.5	
232.55	3925.3	
232.76	6076.3	
232.97	5569.1	
233.18	3620.1	
233.4	4008.6	
233.61	5708.4	
233.82	5160.9	
234.03	3750.5	
234.25	3697.3	
234.46	7555	
234.67	5450.3	
234.88	4096.6	
235.09	3609.9	
235.31	5737	
235.52	5311.7	
235.73	4019.5	
235.94	3394.2	
236.15	5170.4	
236.37	6630.6	
236.58	3564.1	
236.79	3955.3	
237	5737.7	
237.21	4904.2	
237.43	4172.4	
237.64	3307.5	
237.85	9899.9	
238.06	4979.3	
238.27	4296.6	
238.48	3411.2	
238.7	5793	
238.91	5274.9	
239.12	3901.4	
239.33	3887	
239.54	4973.8	
239.76	5347.2	
239.97	3875.4	
240.18	3823.6	
240.39	6773.3	
240.6	5682.4	
240.82	4076.8	
241.03	3283.6	
241.24	5411.4	
241.45	6322.1	
241.66	3503.4	
241.87	4200.4	
242.09	6160.3	
242.3	6548.7	
242.51	4256.4	
242.72	3935.5	
242.93	5878.4	
243.14	5369.8	
243.36	4547.9	
243.57	4842.1	
243.78	6313.9	
243.99	5817.6	
244.2	3957.4	
244.41	3474	
244.63	4996.4	
244.84	5735.7	
245.05	4208.6	
245.26	3865.2	
245.47	5777.3	
245.68	5961.6	
245.9	5190.2	
246.11	4031.1	
246.32	5250.3	
246.53	5670.1	
246.74	6363.7	
246.95	3288.4	
247.16	4877.6	
247.38	5444.9	
247.59	3259	
247.8	3982.6	
248.01	5123.3	
248.22	5397.1	
248.43	3567.6	
248.64	3844	
248.86	4767	
249.07	5183.4	
249.28	3442	
249.49	4014.7	
249.7	5978.7	
249.91	6145.3	
250.12	3216	
250.34	3388	
250.55	5537.7	
250.76	5431.2	
250.97	4018.1	
251.18	4081.6	
251.39	6155.5	
251.6	5592.3	
251.81	4160.8	
252.03	4089.1	
252.24	5203.2	
252.45	5980.8	
252.66	3437.9	
252.87	4321.9	
253.08	5444.9	
253.29	7173.4	
253.5	3423.5	
253.72	4766.3	
253.93	5223.7	
254.14	6494.8	
254.35	3690.4	
254.56	3844	
254.77	5688.6	
254.98	5019.6	
255.19	3640.6	
255.41	4736.3	
255.62	5567.7	
255.83	6083.8	
256.04	4180.6	
256.25	4123.9	
256.46	6672.3	
256.67	5040.1	
256.88	4018.8	
257.09	4492.6	
257.31	5072.1	
257.52	5139.7	
257.73	5068	
257.94	3713	
258.15	5296.7	
258.36	5444.2	
258.57	4699.4	
258.78	3011.2	
258.99	5931.6	
259.2	5291.3	
259.41	3705.5	
259.63	3806.5	
259.84	6272.2	
260.05	6788.3	
260.26	4860.5	
260.47	3639.9	
260.68	5982.8	
260.89	5326.1	
261.1	4508.3	
261.31	3518.4	
261.52	6072.9	
261.73	6438.8	
261.95	4796.3	
262.16	4214.7	
262.37	6141.9	
262.58	6260.6	
262.79	4841.4	
263	3805.1	
263.21	5500.2	
263.42	4964.3	
263.63	3880.2	
263.84	3766.2	
264.05	6031.3	
264.26	6381.5	
264.47	4709.6	
264.69	4193.6	
264.9	6203.3	
265.11	5601.9	
265.32	3601	
265.53	3689.8	
265.74	5568.4	
265.95	4856.4	
266.16	3956.7	
266.37	4399.7	
266.58	5546.6	
266.79	5241.4	
267	3679.5	
267.21	3448.1	
267.42	4988.9	
267.63	5423	
267.84	3923.9	
268.06	3345	
268.27	5855.1	
268.48	6179.4	
268.69	3832.4	
268.9	4563.6	
269.11	6112.5	
269.32	4900.8	
269.53	3917.8	
269.74	3636.5	
269.95	5765.7	
270.16	4797	
270.37	3919.8	
270.58	4506.9	
270.79	5231.2	
271	5948	
271.21	4220.2	
271.42	3981.3	
271.63	5564.3	
271.84	5055.1	
272.05	3125.2	
272.26	3525.2	
272.47	5459.2	
272.68	5678.3	
272.89	3677.5	
273.11	4326	
273.32	5258.5	
273.53	6405.4	
273.74	4259.8	
273.95	4174.4	
274.16	6092.7	
274.37	5494	
274.58	4278.9	
274.79	3413.3	
275	5573.9	
275.21	6107.7	
275.42	5216.2	
275.63	4422.2	
275.84	5685.8	
276.05	7148.1	
276.26	4091.2	
276.47	3838.6	
276.68	5261.2	
276.89	6440.9	
277.1	4408.6	
277.31	3432.4	
277.52	5716.6	
277.73	5910.4	
277.94	3423.5	
278.15	3784.6	
278.36	5671.5	
278.57	5103.5	
278.78	3754.6	
278.99	4285.7	
279.2	4999.1	
279.41	5027.8	
279.62	4980.7	
279.83	3456.3	
280.04	6639.5	
280.25	4916.5	
280.46	4881.7	
280.67	3929.4	
280.88	5046.9	
281.09	6110.5	
281.3	4068.6	
281.51	5216.2	
281.72	5150	
281.93	5989.6	
282.14	3568.2	
282.35	3941	
282.56	5963	
282.77	5928.9	
282.98	3780.6	
283.19	4666	
283.4	7303.7	
283.61	5384.1	
283.82	3409.9	
284.03	4861.9	
284.24	5530.2	
284.45	6113.9	
284.66	4845.5	
284.87	4667.3	
285.08	6021.7	
285.29	6201.9	
285.5	3304.1	
285.71	3877.5	
285.92	6050.4	
286.12	6769.9	
286.33	4826.4	
286.54	3842	
286.75	5964.4	
286.96	5278.3	
287.17	3523.9	
287.38	4690.5	
287.59	5094.7	
287.8	4973.8	
288.01	3882.9	
288.22	4390.8	
288.43	5540.4	
288.64	4926.7	
288.85	4543.1	
289.06	4361.5	
289.27	5835.3	
289.48	6380.8	
289.69	4962.9	
289.9	4375.8	
290.11	6076.3	
290.32	5195	
290.53	4694.6	
290.74	4265.2	
290.94	5839.4	
291.15	5931.6	
291.36	3712.3	
291.57	4392.9	
291.78	5184.1	
291.99	4799.8	
292.2	3525.9	
292.41	4334.2	
292.62	6024.4	
292.83	5816.2	
293.04	5257.8	
293.25	3538.2	
293.46	5254.4	
293.67	6035.4	
293.88	3718.4	
294.09	3532.1	
294.29	4991.6	
294.5	5627.8	
294.71	3950.5	
294.92	3799	
295.13	5260.5	
295.34	6550.8	
295.55	3285.6	
295.76	3422.8	
295.97	5823.1	
296.18	6610.8	
296.39	3487	
296.6	3667.9	
296.81	5564.3	
297.01	5888.6	
297.22	3803.1	
297.43	3665.2	
297.64	5051	
297.85	5154.7	
298.06	3035.8	
298.27	3320.4	
298.48	5483.1	
298.69	5149.3	
298.9	3948.5	
299.11	3549.1	
299.31	4934.2	
299.52	5007.3	
299.73	4249.5	
299.94	4193.6	
300.15	5412.1	
300.36	5079	
300.57	4197	
300.78	4119.8	
300.99	5278.3	
301.2	5526.1	
301.4	3633.8	
301.61	3969	
301.82	5773.2	
302.03	5898.2	
302.24	4434.5	
302.45	3489.1	
302.66	5765	
302.87	6185.5	
303.08	3693.2	
303.29	5008	
303.49	5191.6	
303.7	5498.1	
303.91	3261	
304.12	4812.7	
304.33	4943.1	
304.54	5592.3	
304.75	3713	
304.96	3532.1	
305.16	5823.7	
305.37	6520	
305.58	3138.2	
305.79	3325.2	
306	5732.9	
306.21	4857.8	
306.42	3627.6	
306.63	5620.3	
306.83	5271.5	
307.04	6020.3	
307.25	4062.5	
307.46	4016.1	
307.67	4660.5	
307.88	5959.6	
308.09	3622.9	
308.29	3760.8	
308.5	5516.5	
308.71	6038.1	
308.92	3877.5	
309.13	3533.4	
309.34	5362.3	
309.55	5380.7	
309.75	4588.1	
309.96	4197.7	
310.17	5883.8	
310.38	5164.3	
310.59	4437.9	
310.8	3491.1	
311.01	5255.1	
311.21	5335	
311.42	3520.5	
311.63	3648.8	
311.84	5239.4	
312.05	5575.9	
312.26	4128	
312.46	4482.3	
312.67	5247.6	
312.88	4995	
313.09	3493.8	
313.3	3526.6	
313.51	6212.2	
313.71	6563.1	
313.92	3510.2	
314.13	3709.6	
314.34	5539.1	
314.55	5346.6	
314.76	4534.9	
314.96	3939.6	
315.17	5513.1	
315.38	5838.1	
315.59	3556	
315.8	3443.3	
316.01	6358.9	
316.21	6398.5	
316.42	3416	
316.63	4055	
316.84	5356.1	
317.05	6197.2	
317.26	4118.5	
317.46	3775.8	
317.67	5405.3	
317.88	5748.6	
318.09	4571.1	
318.3	3286.3	
318.5	5158.8	
318.71	5756.2	
318.92	5698.1	
319.13	4182.6	
319.34	5926.8	
319.54	6128.9	
319.75	3295.2	
319.96	3191.4	
320.17	5809.4	
320.38	6032	
320.58	3250.1	
320.79	3894.6	
321	6032.6	
321.21	6195.8	
321.42	3964.9	
321.62	3270.6	
321.83	5071.5	
322.04	5405.3	
322.25	3759.4	
322.46	3588	
322.66	5603.9	
322.87	5750.7	
323.08	4398.4	
323.29	3489.1	
323.5	6532.3	
323.7	5036	
323.91	4871.4	
324.12	4359.4	
324.33	5555.5	
324.53	5741.1	
324.74	4215.4	
324.95	4348.5	
325.16	4796.3	
325.37	5287.9	
325.57	3582.6	
325.78	3642	
325.99	5565.7	
326.2	4952	
326.4	5065.3	
326.61	3284.9	
326.82	5373.2	
327.03	5571.8	
327.24	5046.2	
327.44	4837.3	
327.65	5743.2	
327.86	4607.2	
328.07	4234.5	
328.27	3430.3	
328.48	6158.9	
328.69	5031.2	
328.9	5169.1	
329.1	3800.3	
329.31	5343.2	
329.52	6271.6	
329.73	3559.4	
329.93	4031.8	
330.14	5431.9	
330.35	5666	
330.56	5852.4	
330.76	4379.9	
330.97	5319.9	
331.18	5620.3	
331.39	3999.7	
331.59	3274.7	
331.8	6077	
332.01	6201.2	
332.22	3674.7	
332.42	4227	
332.63	5560.9	
332.84	5171.8	
333.05	4040.6	
333.25	3637.9	
333.46	5229.8	
333.67	5446.9	
333.88	3702	
334.08	4147.1	
334.29	7251.9	
334.5	6167.8	
334.7	3416	
334.91	5195.7	
335.12	5016.8	
335.33	5879	
335.53	3952.6	
335.74	5847.6	
335.95	5229.1	
336.16	5070.8	
336.36	3946.4	
336.57	4610.7	
336.78	4980.7	
336.98	6085.9	
337.19	4870.1	
337.4	3917.1	
337.61	6567.2	
337.81	4941.7	
338.02	3625.6	
338.23	4729.4	
338.43	6196.5	
338.64	5138.4	
338.85	3596.2	
339.05	4702.1	
339.26	6270.2	
339.47	4869.4	
339.68	3615.3	
339.88	5343.8	
340.09	5705	
340.3	6014.9	
340.5	4215.4	
340.71	3184.6	
340.92	4941.7	
341.13	6197.8	
341.33	3459	
341.54	4269.3	
341.75	5723.4	
341.95	5352	
342.16	4035.9	
342.37	4440.7	
342.57	5016.2	
342.78	5410.1	
342.99	4476.9	
343.19	3201.7	
343.4	5893.4	
343.61	5733.6	
343.81	3810.6	
344.02	3515	
344.23	5867.4	
344.43	6264.1	
344.64	4420.2	
344.85	4289.1	
345.06	5761.6	
345.26	6066.8	
345.47	4114.4	
345.68	4834.6	
345.88	4788.2	
346.09	5886.5	
346.3	4214	
346.5	3197.6	
346.71	5453.1	
346.92	5139.7	
347.12	3272	
347.33	4135.5	
347.54	5997.1	
347.74	6432.7	
347.95	4091.2	
348.16	3109.5	
348.36	5213.4	
348.57	4972.5	
348.78	3981.9	
348.98	4386.1	
349.19	5376.6	
349.39	4960.2	
349.6	3282.2	
349.81	3614.7	
350.01	5669.5	
350.22	5141.8	
350.43	3926	
350.63	4825	
350.84	5527.5	
351.05	5182	
351.25	3631	
351.46	3284.9	
351.67	6113.2	
351.87	5153.4	
352.08	3819.5	
352.29	4416.1	
352.49	5961	
352.7	6086.6	
352.9	3575.1	
353.11	4351.3	
353.32	6602	
353.52	5267.4	
353.73	3500	
353.94	4433.9	
354.14	5776.6	
354.35	5643.5	
354.55	3573	
354.76	3983.3	
354.97	5728.9	
355.17	5497.4	
355.38	3343	
355.59	4711.7	
355.79	5179.3	
356	5604.6	
356.2	3938.2	
356.41	3504.8	
356.62	4914.4	
356.82	5395	
357.03	4255.7	
357.24	3823.6	
357.44	5205.9	
357.65	5313.1	
357.85	5072.1	
358.06	4051.6	
358.27	4872.8	
358.47	5130.8	
358.68	3310.2	
358.88	4222.2	
359.09	5745.2	
359.3	6098.2	
359.5	4928.8	
359.71	4355.3	
359.91	6652.5	
360.12	5833.3	
360.33	4244.1	
360.53	4715.1	
360.74	5201.8	
360.94	5300.8	
361.15	4451.6	
361.36	3674.7	
361.56	6010.8	
361.77	5445.5	
361.97	4931.5	
362.18	3886.4	
362.38	6010.8	
362.59	5084.4	
362.8	3574.4	
363	3489.1	
363.21	4835.9	
363.41	5570.5	
363.62	4196.3	
363.83	5173.2	
364.03	5630.5	
364.24	6651.8	
364.44	5261.9	
364.65	5304.2	
364.85	5423	
365.06	5277.6	
365.27	3778.5	
365.47	3793.5	
365.68	6391.7	
365.88	5425.1	
366.09	4197.7	
366.29	3890.5	
366.5	5661.3	
366.71	6090.7	
366.91	5283.8	
367.12	4394.9	
367.32	6646.3	
367.53	5967.1	
367.73	4293.2	
367.94	5293.3	
368.14	5869.5	
368.35	6812.9	
368.56	4382.7	
368.76	3650.2	
368.97	6011.5	
369.17	7765.2	
369.38	3837.2	
369.58	4101.4	
369.79	5050.3	
369.99	6404.7	
370.2	5103.5	
370.4	4145.8	
370.61	5743.2	
370.82	7049.8	
371.02	4128.7	
371.23	3410.6	
371.43	4995	
371.64	6378.1	
371.84	4154.6	
372.05	5425.1	
372.25	7705.1	
372.46	6047.7	
372.66	4110.3	
372.87	4069.3	
373.07	6163.7	
373.28	7735.9	
373.48	5186.8	
373.69	4840	
373.9	5621	
374.1	5687.2	
374.31	5142.4	
374.51	4654.4	
374.72	6443.6	
374.92	5245.5	
375.13	5302.9	
375.33	4517.1	
375.54	6103.6	
375.74	5484.5	
375.95	4616.1	
376.15	5900.2	
376.36	6068.1	
376.56	5902.9	
376.77	4688.5	
376.97	5132.2	
377.18	7128.3	
377.38	6227.9	
377.59	5468.8	
377.79	4195.6	
378	5995.8	
378.2	6428.6	
378.41	4256.4	
378.61	4160.8	
378.82	6449.1	
379.02	5593	
379.23	4416.1	
379.43	5575.9	
379.64	6532.3	
379.84	6232.7	
380.05	4276.2	
380.25	4173.1	
380.46	6267.5	
380.66	5904.3	
380.87	5562.3	
381.07	5958.9	
381.28	6945.3	
381.48	6335.1	
381.69	4244.1	
381.89	4299.4	
382.1	5193.6	
382.3	6380.8	
382.51	5422.3	
382.71	6298.2	
382.91	6265.4	
383.12	6836.1	
383.32	4616.1	
383.53	4884.4	
383.73	6115.2	
383.94	5883.8	
384.14	4722.6	
384.35	3846.1	
384.55	5730.9	
384.76	6284.5	
384.96	4635.2	
385.17	4969.1	
385.37	6221	
385.58	5553.4	
385.78	4966.3	
385.98	3772.4	
386.19	5717.9	
386.39	6176	
386.6	4400.4	
386.8	4702.8	
387.01	6262.7	
387.21	6328.2	
387.42	5046.2	
387.62	5708.4	
387.83	5651	
388.03	6350.8	
388.23	4779.3	
388.44	5604.6	
388.64	5442.1	
388.85	5499.5	
389.05	5111.7	
389.26	5747.3	
389.46	7412.3	
389.67	6792.4	
389.87	5102.9	
390.07	5199.8	
390.28	6040.1	
390.48	5596.4	
390.69	4378.6	
390.89	4694.6	
391.1	5717.9	
391.3	6716	
391.5	5898.8	
391.71	6491.4	
391.91	6468.9	
392.12	7487.4	
392.32	5892.7	
392.53	5144.5	
392.73	5767.8	
392.93	5967.8	
393.14	4859.8	
393.34	5655.8	
393.55	6437.4	
393.75	5995.1	
393.95	4805.2	
394.16	4812.7	
394.36	5839.4	
394.57	6537.8	
394.77	4388.8	
394.98	4786.8	
395.18	5821.7	
395.38	5905.7	
395.59	5717.2	
395.79	4663.2	
396	5939.1	
396.2	6456.6	
396.4	5593.7	
396.61	5451	
396.81	6762.4	
397.02	5960.3	
397.22	5726.1	
397.42	5784.8	
397.63	6754.2	
397.83	5931.6	
398.04	4604.5	
398.24	5195	
398.44	6442.9	
398.65	5556.8	
398.85	4543.8	
399.05	4715.8	
399.26	5948	
399.46	7782.3	
399.67	5084.4	
399.87	4816.8	
400.07	6327.5	
400.28	6747.4	
400.48	4971.8	
400.69	5999.9	
400.89	6926.2	
401.09	7365.9	
401.3	4837.3	
401.5	5859.2	
401.7	7651.9	
401.91	7899	
402.11	5110.4	
402.32	5274.2	
402.52	6838.2	
402.72	6812.9	
402.93	5427.8	
403.13	4298	
403.33	7582.9	
403.54	6238.8	
403.74	5184.8	
403.94	6172.6	
404.15	6475	
404.35	7684	
404.56	5074.9	
404.76	6954.9	
404.96	6925.5	
405.17	6759.7	
405.37	6027.2	
405.57	5545.9	
405.78	6997.2	
405.98	6388.3	
406.18	5097.4	
406.39	6051.7	
406.59	6917.4	
406.79	6598.6	
407	5007.3	
407.2	5106.3	
407.4	7185	
407.61	7356.3	
407.81	5226.4	
408.01	7307.8	
408.22	6257.9	
408.42	8420.6	
408.62	6419	
408.83	5984.2	
409.03	6924.9	
409.23	6830.7	
409.44	6085.9	
409.64	6427.9	
409.84	8035.5	
410.05	7933.8	
410.25	6327.5	
410.45	6047.7	
410.66	7564.5	
410.86	9962.7	
411.06	6666.8	
411.27	6506.4	
411.47	9948.3	
411.67	7776.1	
411.88	6718	
412.08	7020.4	
412.28	8387.8	
412.49	8966	
412.69	6542.6	
412.89	6578.1	
413.09	8686.8	
413.3	8612.4	
413.5	6772.6	
413.7	6231.3	
413.91	7912	
414.11	8815.8	
414.31	6567.2	
414.52	7086.7	
414.72	8480	
414.92	8465.6	
415.12	6591	
415.33	7178.1	
415.53	8900.5	
415.73	9059.5	
415.94	7555	
416.14	7019.1	
416.34	7835.5	
416.55	7595.2	
416.75	8272.4	
416.95	7653.9	
417.15	9030.2	
417.36	9635	
417.56	8557.8	
417.76	7563.1	
417.97	9344.9	
418.17	9113.5	
418.37	7051.8	
418.57	7198.6	
418.78	8702.5	
418.98	8345.5	
419.18	8000	
419.38	7983	
419.59	8561.9	
419.79	8135.2	
419.99	7070.3	
420.2	7484.6	
420.4	9098.4	
420.6	9194	
420.8	7008.8	
421.01	6861.4	
421.21	8908	
421.41	9041.1	
421.61	7406.8	
421.82	7054.6	
422.02	8382.3	
422.22	9310.7	
422.42	7920.2	
422.63	7445.7	
422.83	8467	
423.03	9765.4	
423.23	7552.9	
423.44	6460.7	
423.64	8551	
423.84	8294.3	
424.04	6939.2	
424.25	6679.8	
424.45	9527.8	
424.65	9405	
424.85	6421.1	
425.06	7155.6	
425.26	9428.8	
425.46	8406.9	
425.66	7475.1	
425.87	7123.5	
426.07	9174.9	
426.27	9025.4	
426.47	7314	
426.67	6632	
426.88	9407	
427.08	8993.3	
427.28	7631.4	
427.48	6594.5	
427.69	7918.1	
427.89	8542.8	
428.09	7657.4	
428.29	6712.6	
428.5	9281.4	
428.7	8896.4	
428.9	6684.6	
429.1	7234.1	
429.3	8843.1	
429.51	9258.9	
429.71	6951.5	
429.91	7864.9	
430.11	9075.2	
430.31	9342.2	
430.52	7266.2	
430.72	7662.1	
430.92	9837.1	
431.12	9174.2	
431.32	7122.2	
431.53	7560.4	
431.73	8175.5	
431.93	9883.5	
432.13	7027.3	
432.33	6958.3	
432.54	8733.9	
432.74	9075.9	
432.94	6937.2	
433.14	8013	
433.34	9226.8	
433.55	8784.4	
433.75	7988.4	
433.95	9971.6	
434.15	9157.2	
434.35	8788.5	
434.56	7135.1	
434.76	6820.4	
434.96	9158.5	
435.16	9557.9	
435.36	7201.3	
435.56	8376.2	
435.77	8858.1	
435.97	9121.7	
436.17	9175.6	
436.37	8333.9	
436.57	8824.7	
436.78	8871.8	
436.98	9987.9	
437.18	8785.8	
437.38	9612.5	
437.58	8946.9	
437.78	8878.6	
437.99	7437.5	
438.19	9424.8	
438.39	10257	
438.59	7462.8	
438.79	7021.1	
438.99	10421	
439.2	9280	
439.4	7301.7	
439.6	7389.8	
439.8	9743.6	
440	10750	
440.2	8557.8	
440.4	8639.7	
440.61	10083	
440.81	10719	
441.01	7770	
441.21	8755.1	
441.41	10609	
441.61	10037	
441.81	8982.4	
442.02	9987.3	
442.22	11123	
442.42	10321	
442.62	8018.5	
442.82	7901.7	
443.02	10647	
443.22	9867.8	
443.43	8445.8	
443.63	8049.9	
443.83	9617.9	
444.03	9640.5	
444.23	9346.2	
444.43	8834.9	
444.63	10017	
444.83	11157	
445.04	8045.8	
445.24	9401.5	
445.44	10161	
445.64	10281	
445.84	8773.5	
446.04	8747.6	
446.24	9582.4	
446.44	10628	
446.65	7972.7	
446.85	8549.6	
447.05	9543.5	
447.25	10602	
447.45	8476.5	
447.65	7886	
447.85	9916.3	
448.05	9475.3	
448.25	9165.3	
448.46	8877.9	
448.66	10089	
448.86	9744.9	
449.06	7873.1	
449.26	9106.6	
449.46	10503	
449.66	9405.6	
449.86	8742.1	
450.06	8589.9	
450.26	9628.9	
450.47	10281	
450.67	8761.2	
450.87	9344.9	
451.07	10337	
451.27	10299	
451.47	8134.5	
451.67	8943.5	
451.87	9858.9	
452.07	11023	
452.27	8457.4	
452.47	8349.6	
452.67	10028	
452.88	10715	
453.08	7690.1	
453.28	9910.8	
453.48	11522	
453.68	10102	
453.88	8576.2	
454.08	8836.3	
454.28	10849	
454.48	10447	
454.68	9417.9	
454.88	9906.7	
455.08	10893	
455.28	10832	
455.48	8504.5	
455.68	9299.1	
455.89	11446	
456.09	11273	
456.29	9052	
456.49	9186.5	
456.69	11578	
456.89	10922	
457.09	9752.4	
457.29	10312	
457.49	11252	
457.69	11519	
457.89	9750.4	
458.09	9133.9	
458.29	10995	
458.49	11782	
458.69	10164	
458.89	9536	
459.09	12143	
459.29	12088	
459.49	9629.5	
459.69	10488	
459.9	11682	
460.1	11394	
460.3	9592	
460.5	9421.3	
460.7	11721	
460.9	11503	
461.1	9157.8	
461.3	10623	
461.5	12620	
461.7	12266	
461.9	9987.9	
462.1	10406	
462.3	11867	
462.5	12513	
462.7	10160	
462.9	10377	
463.1	13659	
463.3	13402	
463.5	10479	
463.7	11700	
463.9	12269	
464.1	12695	
464.3	11019	
464.5	10875	
464.7	12925	
464.9	12878	
465.1	12495	
465.3	11480	
465.5	13367	
465.7	13465	
465.9	11828	
466.1	11447	
466.3	13454	
466.5	13205	
466.7	12938	
466.9	11466	
467.1	13362	
467.3	14342	
467.5	12864	
467.7	11629	
467.9	14433	
468.1	15399	
468.3	12400	
468.5	13017	
468.7	13479	
468.9	13291	
469.1	12099	
469.3	12800	
469.5	15479	
469.7	13072	
469.9	12271	
470.1	11615	
470.3	13377	
470.5	13502	
470.7	13078	
470.9	11748	
471.1	13244	
471.3	13478	
471.5	11662	
471.69	13556	
471.89	12983	
472.09	12529	
472.29	12447	
472.49	12624	
472.69	12867	
472.89	13543	
473.09	11570	
473.29	11512	
473.49	12953	
473.69	13134	
473.89	12548	
474.09	11729	
474.29	14268	
474.49	13962	
474.69	12589	
474.89	11769	
475.09	13096	
475.29	12966	
475.49	11107	
475.69	11519	
475.88	14552	
476.08	13120	
476.28	11166	
476.48	11601	
476.68	13680	
476.88	13492	
477.08	11324	
477.28	11891	
477.48	13027	
477.68	13631	
477.88	11225	
478.08	11540	
478.28	14106	
478.48	13163	
478.67	11581	
478.87	10891	
479.07	14138	
479.27	13233	
479.47	11883	
479.67	11887	
479.87	13797	
480.07	14297	
480.27	11178	
480.47	12888	
480.67	13407	
480.87	14048	
481.06	11395	
481.26	12412	
481.46	13345	
481.66	13186	
481.86	12060	
482.06	13012	
482.26	13069	
482.46	14169	
482.66	12093	
482.86	11694	
483.05	13687	
483.25	13097	
483.45	14618	
483.65	12137	
483.85	13312	
484.05	13767	
484.25	12635	
484.45	13266	
484.65	14465	
484.84	14745	
485.04	12200	
485.24	12254	
485.44	15016	
485.64	13223	
485.84	11643	
486.04	13123	
486.24	13783	
486.44	14091	
486.63	11710	
486.83	12525	
487.03	13882	
487.23	14144	
487.43	11981	
487.63	14414	
487.83	14148	
488.02	15233	
488.22	13135	
488.42	13822	
488.62	15055	
488.82	14001	
489.02	12505	
489.22	12966	
489.41	14915	
489.61	14660	
489.81	12424	
490.01	12555	
490.21	14757	
490.41	15418	
490.61	12238	
490.8	12354	
491	14200	
491.2	13413	
491.4	13065	
491.6	12202	
491.8	14268	
491.99	14499	
492.19	12301	
492.39	12757	
492.59	15209	
492.79	15410	
492.99	13898	
493.18	12895	
493.38	15464	
493.58	16453	
493.78	13822	
493.98	13501	
494.18	15427	
494.37	15140	
494.57	14491	
494.77	14370	
494.97	16018	
495.17	16451	
495.37	13933	
495.56	14317	
495.76	16432	
495.96	16210	
496.16	15334	
496.36	14260	
496.55	16497	
496.75	16044	
496.95	14681	
497.15	14543	
497.35	16552	
497.54	16694	
497.74	14468	
497.94	16437	
498.14	17386	
498.34	17133	
498.53	14394	
498.73	15261	
498.93	16252	
499.13	16873	
499.33	15143	
499.52	15617	
499.72	16861	
499.92	16910	
500.12	14676	
500.32	15002	
500.51	17179	
500.71	17117	
500.91	15912	
501.11	15493	
501.31	17043	
501.5	17428	
501.7	16225	
501.9	15177	
502.1	16639	
502.29	17067	
502.49	15513	
502.69	15758	
502.89	16954	
503.09	16876	
503.28	14322	
503.48	14514	
503.68	15945	
503.88	16072	
504.07	15444	
504.27	14760	
504.47	16518	
504.67	16347	
504.86	15180	
505.06	14756	
505.26	15801	
505.46	17654	
505.65	14512	
505.85	14562	
506.05	15659	
506.25	15993	
506.44	13733	
506.64	14575	
506.84	15424	
507.04	16206	
507.23	13846	
507.43	14201	
507.63	17253	
507.83	15500	
508.02	14301	
508.22	13814	
508.42	17566	
508.62	15279	
508.81	14441	
509.01	15015	
509.21	15214	
509.4	15634	
509.6	14609	
509.8	14057	
510	15543	
510.19	17236	
510.39	13835	
510.59	13969	
510.79	15406	
510.98	16953	
511.18	13941	
511.38	14147	
511.57	16057	
511.77	16111	
511.97	14782	
512.17	13658	
512.36	16312	
512.56	16109	
512.76	13969	
512.95	13757	
513.15	16416	
513.35	15050	
513.55	14943	
513.74	14017	
513.94	16437	
514.14	15816	
514.33	15125	
514.53	14879	
514.73	15761	
514.92	16155	
515.12	14431	
515.32	14437	
515.51	16240	
515.71	16922	
515.91	16131	
516.11	14399	
516.3	18028	
516.5	15920	
516.7	14915	
516.89	15581	
517.09	15867	
517.29	15941	
517.48	15421	
517.68	14676	
517.88	15852	
518.07	16455	
518.27	15340	
518.47	14296	
518.66	17180	
518.86	15734	
519.06	14047	
519.25	14539	
519.45	16005	
519.65	17686	
519.84	15026	
520.04	15831	
520.24	17653	
520.43	16231	
520.63	14567	
520.83	14403	
521.02	15680	
521.22	16298	
521.42	15062	
521.61	15636	
521.81	16064	
522.01	16138	
522.2	15126	
522.4	14928	
522.6	17038	
522.79	15882	
522.99	15168	
523.18	14770	
523.38	17059	
523.58	17230	
523.77	17167	
523.97	14923	
524.17	19157	
524.36	18389	
524.56	16503	
524.76	16212	
524.95	17486	
525.15	17136	
525.34	15896	
525.54	16137	
525.74	17953	
525.93	16830	
526.13	17215	
526.33	16206	
526.52	18509	
526.72	17944	
526.91	17650	
527.11	16938	
527.31	18715	
527.5	19200	
527.7	17006	
527.89	15960	
528.09	17752	
528.29	18470	
528.48	17481	
528.68	17010	
528.87	18852	
529.07	18573	
529.27	16630	
529.46	15994	
529.66	17686	
529.85	18191	
530.05	15648	
530.25	16608	
530.44	19609	
530.64	18047	
530.83	16663	
531.03	17092	
531.23	18968	
531.42	18739	
531.62	18081	
531.81	17321	
532.01	19456	
532.21	19886	
532.4	17357	
532.6	17626	
532.79	20445	
532.99	19687	
533.18	17946	
533.38	18691	
533.58	19372	
533.77	19985	
533.97	18004	
534.16	18726	
534.36	20342	
534.55	19426	
534.75	18826	
534.95	17776	
535.14	20028	
535.34	19133	
535.53	17236	
535.73	19427	
535.92	20657	
536.12	19295	
536.31	17493	
536.51	18847	
536.71	19670	
536.9	19308	
537.1	17650	
537.29	18018	
537.49	20254	
537.68	19282	
537.88	18432	
538.07	17651	
538.27	19775	
538.46	20749	
538.66	17647	
538.86	18067	
539.05	19468	
539.25	19939	
539.44	18295	
539.64	17551	
539.83	19310	
540.03	20236	
540.22	17676	
540.42	17520	
540.61	19367	
540.81	19497	
541	17941	
541.2	18669	
541.39	18700	
541.59	19304	
541.78	18378	
541.98	17019	
542.18	18255	
542.37	18273	
542.57	17302	
542.76	18187	
542.96	18010	
543.15	18759	
543.35	17145	
543.54	16483	
543.74	18961	
543.93	18556	
544.13	17081	
544.32	18191	
544.52	18804	
544.71	17930	
544.91	16154	
545.1	17346	
545.3	17962	
545.49	18761	
545.69	15950	
545.88	16750	
546.08	19660	
546.27	19194	
546.47	17234	
546.66	16450	
546.86	18886	
547.05	19507	
547.24	16635	
547.44	16649	
547.63	17689	
547.83	18999	
548.02	16808	
548.22	16972	
548.41	17461	
548.61	18807	
548.8	16196	
549	16298	
549.19	17916	
549.39	18543	
549.58	15963	
549.78	16455	
549.97	18464	
550.17	17905	
550.36	17169	
550.55	18260	
550.75	17833	
550.94	18748	
551.14	16043	
551.33	16401	
551.53	17230	
551.72	18273	
551.92	16654	
552.11	16414	
552.31	18190	
552.5	18049	
552.69	17945	
552.89	15750	
553.08	18245	
553.28	17699	
553.47	16240	
553.67	17527	
553.86	18845	
554.06	16967	
554.25	15228	
554.44	16079	
554.64	19415	
554.83	19009	
555.03	15869	
555.22	16240	
555.42	18215	
555.61	17847	
555.8	15978	
556	16266	
556.19	17126	
556.39	18307	
556.58	16038	
556.78	16068	
556.97	17809	
557.16	17604	
557.36	17473	
557.55	15728	
557.75	16662	
557.94	18670	
558.13	15730	
558.33	15583	
558.52	18213	
558.72	17003	
558.91	15564	
559.1	15788	
559.3	16807	
559.49	16414	
559.69	15155	
559.88	16146	
560.07	17602	
560.27	17902	
560.46	16105	
560.66	16287	
560.85	17203	
561.04	16318	
561.24	15388	
561.43	15468	
561.63	16587	
561.82	16996	
562.01	16906	
562.21	16028	
562.4	17542	
562.59	18635	
562.79	15787	
562.98	15522	
563.18	17344	
563.37	19093	
563.56	16376	
563.76	15590	
563.95	16991	
564.14	17029	
564.34	15911	
564.53	15723	
564.73	17734	
564.92	17986	
565.11	16153	
565.31	15569	
565.5	18185	
565.69	17136	
565.89	15738	
566.08	16113	
566.27	18023	
566.47	18563	
566.66	16718	
566.85	15375	
567.05	17640	
567.24	17034	
567.44	15646	
567.63	17022	
567.82	17918	
568.02	17696	
568.21	15694	
568.4	16228	
568.6	17705	
568.79	17764	
568.98	15525	
569.18	15778	
569.37	17557	
569.56	19523	
569.76	15898	
569.95	16896	
570.14	17646	
570.34	17624	
570.53	15258	
570.72	15476	
570.91	18162	
571.11	17243	
571.3	15749	
571.49	16736	
571.69	17445	
571.88	16811	
572.07	16561	
572.27	16459	
572.46	17034	
572.65	18041	
572.85	15858	
573.04	16288	
573.23	18475	
573.43	17666	
573.62	15670	
573.81	16457	
574	17748	
574.2	17671	
574.39	16201	
574.58	16350	
574.78	18766	
574.97	18133	
575.16	16685	
575.36	17013	
575.55	18555	
575.74	18549	
575.93	15751	
576.13	17140	
576.32	17670	
576.51	18570	
576.71	16270	
576.9	17847	
577.09	18890	
577.28	18286	
577.48	16889	
577.67	15853	
577.86	18026	
578.05	18321	
578.25	16690	
578.44	16714	
578.63	18261	
578.83	19453	
579.02	16014	
579.21	17819	
579.4	18458	
579.6	18221	
579.79	17010	
579.98	19198	
580.17	19027	
580.37	19111	
580.56	16380	
580.75	17337	
580.94	19641	
581.14	19503	
581.33	17943	
581.52	16907	
581.71	19112	
581.91	19772	
582.1	16566	
582.29	17195	
582.48	18801	
582.68	18695	
582.87	17917	
583.06	17303	
583.25	19286	
583.45	18547	
583.64	18213	
583.83	18865	
584.02	18480	
584.21	19173	
584.41	17914	
584.6	17352	
584.79	18945	
584.98	19592	
585.18	16737	
585.37	16714	
585.56	18352	
585.75	19151	
585.94	16784	
586.14	17496	
586.33	19359	
586.52	18491	
586.71	17036	
586.91	16853	
587.1	17436	
587.29	18560	
587.48	16373	
587.67	16365	
587.87	18143	
588.06	18138	
588.25	17181	
588.44	16234	
588.63	17086	
588.83	17404	
589.02	14922	
589.21	14682	
589.4	15909	
589.59	15593	
589.78	13162	
589.98	13327	
590.17	14732	
590.36	15469	
590.55	12719	
590.74	13369	
590.94	16767	
591.13	15380	
591.32	13484	
591.51	13145	
591.7	15915	
591.89	15455	
592.09	13189	
592.28	13762	
592.47	14600	
592.66	16801	
592.85	13308	
593.05	13626	
593.24	15518	
593.43	16370	
593.62	14052	
593.81	14470	
594	15701	
594.19	15854	
594.39	13569	
594.58	13543	
594.77	15715	
594.96	16227	
595.15	13311	
595.34	13999	
595.54	15621	
595.73	14790	
595.92	12910	
596.11	14239	
596.3	16332	
596.49	15151	
596.68	14011	
596.88	14371	
597.07	16141	
597.26	15031	
597.45	13396	
597.64	14767	
597.83	15289	
598.02	15993	
598.22	13719	
598.41	14335	
598.6	15726	
598.79	15223	
598.98	13885	
599.17	14799	
599.36	16023	
599.55	17110	
599.74	15995	
599.94	15840	
600.13	16619	
600.32	15328	
600.51	13776	
600.7	13926	
600.89	17417	
601.08	17421	
601.27	13818	
601.47	14846	
601.66	16649	
601.85	17314	
602.04	14540	
602.23	14546	
602.42	15779	
602.61	16492	
602.8	14537	
602.99	14365	
603.18	16218	
603.37	16595	
603.57	15023	
603.76	15692	
603.95	17249	
604.14	16810	
604.33	14639	
604.52	14894	
604.71	16507	
604.9	16257	
605.09	15428	
605.28	15235	
605.47	17193	
605.66	16649	
605.86	15072	
606.05	14582	
606.24	17047	
606.43	15558	
606.62	14850	
606.81	15644	
607	16956	
607.19	16389	
607.38	14206	
607.57	14610	
607.76	15920	
607.95	15388	
608.14	14745	
608.33	15393	
608.52	15952	
608.72	16860	
608.91	13967	
609.1	13973	
609.29	16001	
609.48	15319	
609.67	14855	
609.86	13938	
610.05	15473	
610.24	15815	
610.43	13837	
610.62	13321	
610.81	17004	
611	16830	
611.19	13908	
611.38	14780	
611.57	16240	
611.76	17522	
611.95	13646	
612.14	13444	
612.33	15884	
612.52	15486	
612.71	14203	
612.9	13378	
613.09	15053	
613.28	17472	
613.47	13802	
613.66	14928	
613.85	16076	
614.04	15602	
614.24	13996	
614.43	13167	
614.62	16256	
614.81	16072	
615	14570	
615.19	14805	
615.38	15415	
615.57	15817	
615.76	14408	
615.95	15547	
616.14	16096	
616.33	15864	
616.52	14711	
616.71	15285	
616.9	16266	
617.09	16223	
617.28	14313	
617.47	15726	
617.66	15557	
617.85	15629	
618.04	15535	
618.22	14876	
618.41	16193	
618.6	17103	
618.79	14832	
618.98	14595	
619.17	17276	
619.36	15611	
619.55	14656	
619.74	14951	
619.93	16620	
620.12	16282	
620.31	15451	
620.5	15696	
620.69	17372	
620.88	17800	
621.07	16453	
621.26	15395	
621.45	16957	
621.64	17055	
621.83	15466	
622.02	14892	
622.21	17185	
622.4	16791	
622.59	16220	
622.78	15986	
622.97	16475	
623.16	17595	
623.35	15584	
623.54	14723	
623.72	16806	
623.91	16862	
624.1	15731	
624.29	14482	
624.48	17866	
624.67	17075	
624.86	15548	
625.05	14657	
625.24	18002	
625.43	16224	
625.62	17413	
625.81	14941	
626	17227	
626.19	16597	
626.38	15573	
626.56	14816	
626.75	16023	
626.94	16934	
627.13	15170	
627.32	13847	
627.51	16626	
627.7	18064	
627.89	14087	
628.08	15306	
628.27	15946	
628.46	16106	
628.65	14428	
628.83	14182	
629.02	16637	
629.21	16034	
629.4	15003	
629.59	15246	
629.78	16025	
629.97	17050	
630.16	15360	
630.35	14671	
630.54	17456	
630.72	17082	
630.91	14541	
631.1	15142	
631.29	16498	
631.48	16901	
631.67	15329	
631.86	14748	
632.05	16364	
632.24	16490	
632.42	14485	
632.61	15164	
632.8	16421	
632.99	16070	
633.18	15102	
633.37	15610	
633.56	16621	
633.75	16574	
633.93	15332	
634.12	14931	
634.31	17505	
634.5	17298	
634.69	14995	
634.88	15395	
635.07	16539	
635.25	17104	
635.44	15820	
635.63	16233	
635.82	16339	
636.01	15938	
636.2	15820	
636.39	15360	
636.57	17582	
636.76	17085	
636.95	14826	
637.14	16238	
637.33	16903	
637.52	17901	
637.7	14443	
637.89	15490	
638.08	16377	
638.27	17912	
638.46	15418	
638.65	15856	
638.83	17635	
639.02	16109	
639.21	15349	
639.4	15680	
639.59	16540	
639.78	16084	
639.96	14416	
640.15	14416	
640.34	16298	
640.53	16395	
640.72	14190	
640.91	14539	
641.09	15601	
641.28	16963	
641.47	14522	
641.66	15382	
641.85	16251	
642.03	16358	
642.22	14881	
642.41	14336	
642.6	15679	
642.79	14903	
642.97	13887	
643.16	14853	
643.35	15354	
643.54	15169	
643.73	13637	
643.91	14384	
644.1	14682	
644.29	15150	
644.48	13275	
644.67	13221	
644.85	14425	
645.04	14614	
645.23	12355	
645.42	12725	
645.6	13812	
645.79	14910	
645.98	12268	
646.17	11309	
646.36	13235	
646.54	13785	
646.73	12712	
646.92	11703	
647.11	13181	
647.29	14298	
647.48	11716	
647.67	11446	
647.86	14549	
648.05	14824	
648.23	12263	
648.42	13706	
648.61	14362	
648.8	14136	
648.98	12120	
649.17	12439	
649.36	13717	
649.55	13216	
649.73	11943	
649.92	12715	
650.11	13298	
650.3	13618	
650.48	11946	
650.67	11880	
650.86	13947	
651.05	12919	
651.23	12094	
651.42	11989	
651.61	13483	
651.79	13504	
651.98	12319	
652.17	11845	
652.36	13829	
652.54	12902	
652.73	11759	
652.92	11563	
653.11	13647	
653.29	13679	
653.48	10815	
653.67	11728	
653.85	13332	
654.04	14148	
654.23	11673	
654.42	11172	
654.6	12353	
654.79	12911	
654.98	10463	
655.16	11088	
655.35	11893	
655.54	12035	
655.73	10796	
655.91	10850	
656.1	13387	
656.29	12330	
656.47	10558	
656.66	12347	
656.85	12583	
657.03	12802	
657.22	11313	
657.41	11486	
657.59	12981	
657.78	12636	
657.97	11113	
658.16	11859	
658.34	13627	
658.53	14118	
658.72	12761	
658.9	13405	
659.09	13154	
659.28	13259	
659.46	11710	
659.65	11549	
659.84	12999	
660.02	13545	
660.21	11468	
660.4	11555	
660.58	14024	
660.77	13258	
660.96	12085	
661.14	11153	
661.33	14404	
661.52	14310	
661.7	11077	
661.89	14876	
662.08	12802	
662.26	12517	
662.45	11290	
662.64	11385	
662.82	13468	
663.01	12824	
663.2	11439	
663.38	12219	
663.57	13387	
663.75	13221	
663.94	11753	
664.13	13024	
664.31	12697	
664.5	13339	
664.69	12089	
664.87	12484	
665.06	12491	
665.25	13260	
665.43	12720	
665.62	12768	
665.8	13482	
665.99	12826	
666.18	11511	
666.36	11783	
666.55	13465	
666.74	13344	
666.92	11215	
667.11	12822	
667.29	12784	
667.48	13349	
667.67	12427	
667.85	11677	
668.04	12693	
668.22	12786	
668.41	11670	
668.6	11737	
668.78	12638	
668.97	12801	
669.15	11854	
669.34	10748	
669.53	12560	
669.71	12892	
669.9	11112	
670.08	11738	
670.27	12520	
670.46	13052	
670.64	11872	
670.83	12273	
671.01	12357	
671.2	13031	
671.38	11196	
671.57	11079	
671.76	13659	
671.94	14214	
672.13	10908	
672.31	11981	
672.5	13221	
672.69	12486	
672.87	11099	
673.06	11505	
673.24	12952	
673.43	12658	
673.61	11714	
673.8	11411	
673.98	13106	
674.17	13500	
674.36	11916	
674.54	11843	
674.73	12812	
674.91	13180	
675.1	11544	
675.28	11039	
675.47	12734	
675.65	13298	
675.84	11307	
676.03	11624	
676.21	12500	
676.4	12130	
676.58	12076	
676.77	11874	
676.95	13786	
677.14	12301	
677.32	10960	
677.51	10824	
677.69	13148	
677.88	12037	
678.06	10878	
678.25	10998	
678.44	12685	
678.62	12342	
678.81	10585	
678.99	11651	
679.18	13403	
679.36	13038	
679.55	11166	
679.73	11847	
679.92	12966	
680.1	12327	
680.29	12540	
680.47	11268	
680.66	12263	
680.84	13183	
681.03	10395	
681.21	11474	
681.4	12383	
681.58	12101	
681.77	10935	
681.95	10743	
682.14	13170	
682.32	13385	
682.51	11798	
682.69	10367	
682.88	12031	
683.06	12607	
683.25	11346	
683.43	11660	
683.62	12226	
683.8	12433	
683.99	11417	
684.17	10484	
684.36	12753	
684.54	10985	
684.73	9052.7	
684.91	9174.9	
685.1	11186	
685.28	10554	
685.46	9808.4	
685.65	9925.8	
685.83	11521	
686.02	10893	
686.2	9386.5	
686.39	9621.4	
686.57	10635	
686.76	12329	
686.94	9622	
687.13	9696.4	
687.31	11499	
687.5	11150	
687.68	9222	
687.86	10591	
688.05	12864	
688.23	10682	
688.42	10667	
688.6	9913.5	
688.79	11148	
688.97	11175	
689.16	10228	
689.34	8985.1	
689.52	11928	
689.71	11949	
689.89	10384	
690.08	9528.5	
690.26	11138	
690.45	11015	
690.63	10331	
690.81	9422	
691	10661	
691.18	10638	
691.37	9579	
691.55	11747	
691.74	10493	
691.92	12736	
692.1	9721	
692.29	9138	
692.47	10830	
692.66	10088	
692.84	9372.2	
693.02	10073	
693.21	10441	
693.39	11105	
693.58	10317	
693.76	9837.1	
693.94	12561	
694.13	12366	
694.31	10139	
694.5	11286	
694.68	11312	
694.86	11733	
695.05	10542	
695.23	10836	
695.42	12110	
695.6	14311	
695.78	10870	
695.97	9830.9	
696.15	11806	
696.34	11088	
696.52	9510.8	
696.7	10314	
696.89	11254	
697.07	10726	
697.25	10103	
697.44	11627	
697.62	11175	
697.81	11492	
697.99	9665	
698.17	10192	
698.36	10447	
698.54	11192	
698.72	10128	
698.91	9005.6	
699.09	10800	
699.28	10675	
699.46	9685.5	
699.64	9614.5	
699.83	10656	
700.01	11864	
700.19	10593	
700.38	9071.1	
700.56	12209	
700.74	11028	
700.93	9557.2	
701.11	10509	
701.29	11651	
701.48	12728	
701.66	9846	
701.84	9901.9	
702.03	11165	
702.21	11865	
702.39	9321	
702.58	10019	
702.76	11486	
702.94	11712	
703.13	9271.8	
703.31	11794	
703.49	10831	
703.68	12197	
703.86	9519	
704.04	10697	
704.23	11465	
704.41	11792	
704.59	9753.8	
704.78	10942	
704.96	12592	
705.14	11899	
705.33	9571.5	
705.51	10414	
705.69	11381	
705.87	12131	
706.06	10727	
706.24	9557.9	
706.42	11544	
706.61	12020	
706.79	10757	
706.97	9594.1	
707.16	11091	
707.34	11616	
707.52	10618	
707.7	9785.2	
707.89	11289	
708.07	10899	
708.25	10688	
708.44	10962	
708.62	11201	
708.8	12390	
708.98	11033	
709.17	10047	
709.35	11510	
709.53	11497	
709.72	9562	
709.9	9654.8	
710.08	11678	
710.26	11688	
710.45	11232	
710.63	9747.6	
710.81	11413	
710.99	11312	
711.18	10281	
711.36	9620	
711.54	10972	
711.72	11541	
711.91	9523.1	
712.09	8916.2	
712.27	10782	
712.45	11466	
712.64	9526.5	
712.82	8417.8	
713	9796.1	
713.18	9755.2	
713.37	8040.3	
713.55	9012.4	
713.73	10114	
713.91	8425.3	
714.1	7704.5	
714.28	7137.2	
714.46	9193.3	
714.64	8329.1	
714.83	6300.9	
715.01	6946.7	
715.19	8202.8	
715.37	7571.3	
715.55	6594.5	
715.74	6939.2	
715.92	9075.9	
716.1	7017	
716.28	7971.4	
716.47	6995.2	
716.65	7643.7	
716.83	7884.7	
717.01	6925.5	
717.19	7031.4	
717.38	10124	
717.56	7733.8	
717.74	7447.1	
717.92	6729.6	
718.1	9245.9	
718.29	8584.4	
718.47	6640.2	
718.65	7363.8	
718.83	9505.3	
719.01	9489.6	
719.2	6689.3	
719.38	7791.8	
719.56	9119.6	
719.74	10606	
719.92	7088.7	
720.11	8110.6	
720.29	8733.2	
720.47	7780.2	
720.65	6307.1	
720.83	7105.1	
721.02	7921.5	
721.2	7715.4	
721.38	7154.9	
721.56	6405.4	
721.74	7146.7	
721.92	7320.8	
722.11	7632.1	
722.29	7293.5	
722.47	8627.4	
722.65	7767.3	
722.83	6317.3	
723.01	7249.8	
723.2	7933.8	
723.38	8161.2	
723.56	5806	
723.74	6911.9	
723.92	7308.5	
724.1	8618.5	
724.29	6270.9	
724.47	7428.7	
724.65	7466.9	
724.83	7447.8	
725.01	6301.6	
725.19	7164.5	
725.37	7496.9	
725.56	7532.4	
725.74	6092.7	
725.92	6308.4	
726.1	7333.1	
726.28	7729	
726.46	6721.4	
726.64	6449.1	
726.83	7739.3	
727.01	7925	
727.19	6012.8	
727.37	6860	
727.55	7795.3	
727.73	8326.4	
727.91	6066.1	
728.09	5952.8	
728.28	8501.1	
728.46	9244.5	
728.64	7368.6	
728.82	7312.6	
729	9919	
729.18	9398.8	
729.36	6697.5	
729.54	9143.5	
729.72	10470	
729.91	8809	
730.09	8926.4	
730.27	7722.2	
730.45	8680.7	
730.63	9471.2	
730.81	8445.8	
730.99	7379.5	
731.17	10006	
731.35	8380.3	
731.53	7899	
731.71	7407.5	
731.9	9568.8	
732.08	9719.7	
732.26	7619.8	
732.44	7294.2	
732.62	9778.4	
732.8	9226.1	
732.98	8011	
733.16	7060.7	
733.34	9203.6	
733.52	7984.3	
733.7	7641.7	
733.88	7942	
734.07	9140.1	
734.25	8995.4	
734.43	7073	
734.61	8835.6	
734.79	10587	
734.97	8797.4	
735.15	7323.5	
735.33	7699	
735.51	9271.8	
735.69	8890.9	
735.87	8888.9	
736.05	7922.2	
736.23	9134.6	
736.41	8901.2	
736.59	7836.9	
736.77	8041.7	
736.95	9680.1	
737.13	9111.4	
737.32	7627.3	
737.5	7832.1	
737.68	10294	
737.86	9076.6	
738.04	7431.4	
738.22	9359.2	
738.4	8763.9	
738.58	9132.6	
738.76	8028.7	
738.94	6987	
739.12	8989.9	
739.3	8897.7	
739.48	8758.5	
739.66	8569.4	
739.84	9365.4	
740.02	9343.5	
740.2	7204.1	
740.38	7670.3	
740.56	9815.9	
740.74	8528.4	
740.92	8243.1	
741.1	8131.8	
741.28	9196.1	
741.46	8998.8	
741.64	7755.7	
741.82	8275.8	
742	9127.8	
742.18	9168.1	
742.36	7914.7	
742.54	7434.8	
742.72	9726.5	
742.9	8421.9	
743.08	8344.1	
743.26	7152.9	
743.44	9901.2	
743.62	9790.7	
743.8	8490.2	
743.98	7508.5	
744.16	9402.2	
744.34	9065.7	
744.52	8394.6	
744.7	8285.4	
744.88	9480	
745.06	8980.3	
745.24	8302.5	
745.42	8450.6	
745.6	9544.2	
745.78	9153.1	
745.96	7027.3	
746.14	7311.9	
746.32	10211	
746.5	9499.2	
746.68	8000.7	
746.86	7378.8	
747.03	9928.6	
747.21	8157.1	
747.39	7851.9	
747.57	7419.8	
747.75	9079.3	
747.93	9482.8	
748.11	7361.8	
748.29	7208.2	
748.47	10671	
748.65	8763.3	
748.83	8120.2	
749.01	7890.1	
749.19	9278	
749.37	8495	
749.55	7686.7	
749.73	7776.8	
749.91	8981	
750.09	8603.5	
750.26	7782.3	
750.44	7163.1	
750.62	8983.1	
750.8	8914.8	
750.98	7037.5	
751.16	7316	
751.34	8925	
751.52	8381	
751.7	8256.7	
751.88	6968.6	
752.06	9429.5	
752.24	9327.8	
752.42	6968.6	
752.59	7380.2	
752.77	8875.9	
752.95	10220	
753.13	8058.1	
753.31	7498.3	
753.49	8580.3	
753.67	9056.1	
753.85	7721.5	
754.03	7188.4	
754.21	9159.9	
754.38	9477.3	
754.56	7252.5	
754.74	6124.1	
754.92	8039	
755.1	8690.2	
755.28	5662.6	
755.46	5349.3	
755.64	8520.2	
755.82	8462.9	
755.99	4938.3	
756.17	4967	
756.35	5361.6	
756.53	6929	
756.71	3616.7	
756.89	4631.8	
757.07	6552.1	
757.25	5698.1	
757.42	5449	
757.6	6542.6	
757.78	7109.2	
757.96	6094.1	
758.14	5373.2	
758.32	4703.5	
758.5	5439.4	
758.67	6302.3	
758.85	4911	
759.03	5021.6	
759.21	6508.4	
759.39	5853.1	
759.57	4571.7	
759.75	5823.7	
759.92	7218.4	
760.1	6518.7	
760.28	6361	
760.46	6686.6	
760.64	6449.7	
760.82	6268.8	
760.99	6396.5	
761.17	5700.2	
761.35	7612.3	
761.53	6577.4	
761.71	5963	
761.89	6703.7	
762.06	7795.3	
762.24	7250.5	
762.42	6169.2	
762.6	6049	
762.78	7402	
762.96	8138.6	
763.13	6888	
763.31	6522.1	
763.49	8462.9	
763.67	7613.7	
763.85	7477.8	
764.02	8105.9	
764.2	8774.9	
764.38	8015.7	
764.56	6520	
764.74	7412.3	
764.91	8983.1	
765.09	7761.8	
765.27	6171.9	
765.45	6041.5	
765.63	8968.7	
765.8	8786.5	
765.98	5716.6	
766.16	6148.7	
766.34	7267.6	
766.52	7048.4	
766.69	7083.9	
766.87	5888.6	
767.05	7688.1	
767.23	8389.2	
767.41	6181.5	
767.58	6388.3	
767.76	8243.1	
767.94	8342.1	
768.12	6165.1	
768.29	6993.1	
768.47	7663.5	
768.65	8426	
768.83	5760.9	
769	6967.9	
769.18	7135.8	
769.36	7930.4	
769.54	6904.4	
769.72	5702.2	
769.89	8092.2	
770.07	8211.7	
770.25	6002.6	
770.43	7344.7	
770.6	8852	
770.78	9345.6	
770.96	6165.1	
771.14	6866.2	
771.31	7937.9	
771.49	7200.7	
771.67	5249.6	
771.85	5575.9	
772.02	6363	
772.2	7163.1	
772.38	6108.4	
772.55	5653.8	
772.73	7463.5	
772.91	7185	
773.09	6003.3	
773.26	6115.9	
773.44	7219.8	
773.62	6982.2	
773.8	5476.3	
773.97	5173.2	
774.15	7344	
774.33	6909.8	
774.5	5260.5	
774.68	5706.3	
774.86	7357	
775.04	6955.6	
775.21	5266	
775.39	5315.2	
775.57	7146	
775.74	7475.1	
775.92	5065.3	
776.1	5051.7	
776.27	7064.1	
776.45	8251.9	
776.63	5231.2	
776.81	4719.9	
776.98	6561.7	
777.16	7794.6	
777.34	5298.8	
777.51	5253.7	
777.69	6543.9	
777.87	6274.3	
778.04	5309	
778.22	5907.7	
778.4	6258.6	
778.57	6944	
778.75	4443.4	
778.93	4809.3	
779.1	6059.3	
779.28	5858.6	
779.46	4471.4	
779.64	5036	
779.81	7021.8	
779.99	7962.5	
780.17	5743.9	
780.34	5851	
780.52	6406.7	
780.69	6589.7	
780.87	5087.2	
781.05	4683	
781.22	6425.2	
781.4	6541.2	
781.58	4826.4	
781.75	3949.8	
781.93	6359.6	
782.11	5766.4	
782.28	5635.3	
782.46	4756.1	
782.64	5573.9	
782.81	6580.1	
782.99	4790.9	
783.17	4747.9	
783.34	6341.2	
783.52	5521.3	
783.69	4967	
783.87	5750	
784.05	5543.9	
784.22	5526.8	
784.4	5664.7	
784.58	4967	
784.75	6494.8	
784.93	5547.9	
785.1	4560.1	
785.28	5236	
785.46	6184.2	
785.63	5548.6	
785.81	4502.1	
785.99	4277.5	
786.16	5578.7	
786.34	6041.5	
786.51	4447.5	
786.69	4837.3	
786.87	5238	
787.04	5806.7	
787.22	4240.7	
787.39	5225.1	
787.57	5464	
787.75	6588.3	
787.92	5393	
788.1	5362.3	
788.27	5477.6	
788.45	5270.8	
788.63	5067.4	
788.8	3644	
788.98	5910.4	
789.15	5158.8	
789.33	3790.1	
789.5	4487.8	
789.68	6402.6	
789.86	6550.1	
790.03	4982.7	
790.21	4280.9	
790.38	6313.9	
790.56	5453.1	
790.73	4105.5	
790.91	4159.4	
791.09	5384.8	
791.26	6158.9	
791.44	4390.8	
791.61	3774.4	
791.79	5332.2	
791.96	5389.6	
792.14	3908.2	
792.32	3474	
792.49	5381.4	
792.67	5463.3	
792.84	3992.9	
793.02	3725.9	
793.19	5844.2	
793.37	6655.2	
793.54	3465.2	
793.72	3848.8	
793.89	6649.8	
794.07	5315.2	
794.25	4546.5	
794.42	3549.1	
794.6	6416.3	
794.77	6008.1	
794.95	4775.2	
795.12	4095.3	
795.3	5231.2	
795.47	5907.7	
795.65	4564.9	
795.82	4380.6	
796	5072.8	
796.17	7023.9	
796.35	4170.3	
796.52	4984.1	
796.7	5838.8	
796.87	5900.9	
797.05	5162.9	
797.22	5051	
797.4	5867.4	
797.57	6928.3	
797.75	4244.1	
797.92	4067.3	
798.1	6208.1	
798.27	5242.1	
798.45	3441.3	
798.62	3759.4	
798.8	5578.7	
798.97	6067.4	
799.15	4521.2	
799.32	4334.9	
799.5	4804.5	
799.67	5617.6	
799.85	4656.4	
800.02	3410.6	
800.2	5182	
800.37	5545.9	
800.55	4821.6	
800.72	4055	
800.9	6070.2	
801.07	6493.4	
801.25	5388.2	
801.42	4433.2	
801.6	5988.9	
801.77	5752.1	
801.95	4104.8	
802.12	3918.4	
802.29	5705	
802.47	5700.9	
802.64	4386.7	
802.82	3308.8	
802.99	5139	
803.17	6204	
803.34	4265.2	
803.52	3900	
803.69	6896.9	
803.87	4947.9	
804.04	4225.6	
804.21	4306.9	
804.39	6228.6	
804.56	5331.5	
804.74	3583.9	
804.91	4388.8	
805.09	5198.4	
805.26	5255.8	
805.44	3591.5	
805.61	4051.6	
805.78	5803.9	
805.96	5838.8	
806.13	4353.3	
806.31	4780.6	
806.48	4691.2	
806.66	5251.7	
806.83	4294.6	
807	4280.9	
807.18	5091.3	
807.35	5535	
807.53	4220.2	
807.7	3330	
807.87	6326.9	
808.05	5155.4	
808.22	4634.6	
808.4	3346.4	
808.57	5177.9	
808.74	4781.3	
808.92	3850.9	
809.09	4942.4	
809.27	5057.8	
809.44	5634.6	
809.61	3383.2	
809.79	3736.9	
809.96	6354.2	
810.14	5950.7	
810.31	3266.5	
810.48	4092.5	
810.66	5213.4	
810.83	6006.7	
811.01	3864.5	
811.18	4244.1	
811.35	5913.9	
811.53	4560.8	
811.7	4720.6	
811.87	4332.8	
812.05	5135.6	
812.22	5072.8	
812.39	3700.7	
812.57	3631.7	
812.74	5144.5	
812.92	6911.9	
813.09	4025.6	
813.26	4442	
813.44	6647.7	
813.61	5085.8	
813.78	3361.4	
813.96	4584	
814.13	5165	
814.3	4831.2	
814.48	4853.7	
814.65	4079.6	
814.82	6448.4	
815	4971.8	
815.17	4098	
815.34	5118.6	
815.52	5072.1	
815.69	5087.2	
815.87	4068.6	
816.04	3580.5	
816.21	5162.9	
816.38	4495.3	
816.56	3959.4	
816.73	3706.8	
816.9	6492.1	
817.08	5926.8	
817.25	3736.9	
817.42	4674.8	
817.6	4739	
817.77	5109	
817.94	4274.1	
818.12	3770.3	
818.29	4866	
818.46	7689.4	
818.64	3885.7	
818.81	3598.3	
818.98	4799.1	
819.16	7039.6	
819.33	4444.1	
819.5	4145.8	
819.67	5551.4	
819.85	6223.8	
820.02	4009.2	
820.19	4313	
820.37	5401.2	
820.54	4926.7	
820.71	4156.7	
820.88	5228.5	
821.06	5412.8	
821.23	4968.4	
821.4	4230.4	
821.58	4197	
821.75	5941.2	
821.92	5254.4	
822.09	3421.5	
822.27	3499.3	
822.44	5113.1	
822.61	5096.7	
822.79	3385.3	
822.96	6582.9	
823.13	5647.6	
823.3	4870.1	
823.48	3917.8	
823.65	3585.3	
823.82	5865.4	
823.99	4659.8	
824.17	5017.5	
824.34	3575.1	
824.51	6828.6	
824.68	5246.9	
824.86	3756.7	
825.03	4231.8	
825.2	5046.2	
825.37	6197.2	
825.55	3698.6	
825.72	4152.6	
825.89	6995.9	
826.06	6391	
826.24	4087.1	
826.41	4100	
826.58	6232.7	
826.75	5447.6	
826.92	3162.1	
827.1	3491.1	
827.27	8504.5	
827.44	6829.3	
827.61	3865.9	
827.79	4706.2	
827.96	4878.9	
828.13	5254.4	
828.3	3956	
828.47	3380.5	
828.65	5363.6	
828.82	5310.4	
828.99	5262.6	
829.16	4552.6	
829.34	5786.9	
829.51	5547.9	
829.68	4202.4	
829.85	4360.1	
830.02	6122.1	
830.2	5780.1	
830.37	3190.7	
830.54	5064.6	
830.71	6580.8	
830.88	5035.3	
831.05	3284.9	
831.23	3794.9	
831.4	6292.7	
831.57	7090.1	
831.74	3855	
831.91	3394.8	
832.09	5376.6	
832.26	5772.5	
832.43	4025.6	
832.6	4487.1	
832.77	5420.3	
832.94	6211.5	
833.12	3193.5	
833.29	3972.4	
833.46	5048.9	
833.63	7299	
833.8	4329.4	
833.97	4052.2	
834.15	5814.9	
834.32	5582.8	
834.49	4184.7	
834.66	4229.7	
834.83	5978.7	
835	4838	
835.17	3848.8	
835.35	3947.8	
835.52	5632.6	
835.69	5526.1	
835.86	4073.4	
836.03	3321.8	
836.2	5693.4	
836.37	5322.7	
836.55	3980.6	
836.72	3735.5	
836.89	5314.5	
837.06	5756.8	
837.23	4111.6	
837.4	4427.7	
837.57	6622.4	
837.75	7317.4	
837.92	3639.2	
838.09	3872.7	
838.26	5332.9	
838.43	6074.3	
838.6	4180.6	
838.77	3705.5	
838.94	6982.9	
839.11	6655.9	
839.29	4018.1	
839.46	3120.4	
839.63	5703.6	
839.8	5440.1	
839.97	3956.7	
840.14	3885.7	
840.31	5513.8	
840.48	5767.8	
840.65	3263.1	
840.82	3837.2	
841	5741.8	
841.17	5738.4	
841.34	3582.6	
841.51	3654.9	
841.68	5642.2	
841.85	5403.9	
842.02	3716.4	
842.19	3074.7	
842.36	5513.8	
842.53	5486.5	
842.7	3550.5	
842.87	4432.5	
843.05	7283.3	
843.22	5406	
843.39	3390.1	
843.56	3686.3	
843.73	5225.1	
843.9	5809.4	
844.07	5805.3	
844.24	4840.7	
844.41	8486.8	
844.58	4944.5	
844.75	3448.8	
844.92	3771.7	
845.09	5769.8	
845.26	5669.5	
845.43	3568.2	
845.6	3738.2	
845.77	5743.2	
845.94	5450.3	
846.12	3948.5	
846.29	4220.2	
846.46	5988.3	
846.63	5782.8	
846.8	3546.4	
846.97	4221.5	
847.14	6257.2	
847.31	5709.1	
847.48	3979.2	
847.65	4461.8	
847.82	6015.6	
847.99	6029.9	
848.16	4706.9	
848.33	4406.5	
848.5	5306.3	
848.67	6235.4	
848.84	3543.7	
849.01	3700.7	
849.18	5137	
849.35	4816.1	
849.52	4400.4	
849.69	3466.5	
849.86	5906.3	
850.03	6126.8	
850.2	3538.2	
850.37	4386.7	
850.54	6125.5	
850.71	5407.3	
850.88	4287.1	
851.05	3518.4	
851.22	5632.6	
851.39	6356.9	
851.56	3310.2	
851.73	4101.4	
851.9	4992.9	
852.07	5992.4	
852.24	3919.1	
852.41	3488.4	
852.58	5506.3	
852.75	5116.5	
852.92	3982.6	
853.09	3488.4	
853.26	5352	
853.43	6194.4	
853.6	3577.8	
853.77	2995.5	
853.94	6246.3	
854.11	5735.7	
854.28	5274.2	
854.44	3871.3	
854.61	6586.3	
854.78	5814.9	
854.95	3523.9	
855.12	4508.3	
855.29	4623.6	
855.46	6298.2	
855.63	3523.9	
855.8	4899.4	
855.97	5299.5	
856.14	6081.8	
856.31	5030.5	
856.48	3889.1	
856.65	5306.3	
856.82	4989.5	
856.99	3372.3	
857.16	3829.7	
857.33	6998.6	
857.49	5352	
857.66	3837.9	
857.83	4082.3	
858	5355.4	
858.17	5551.4	
858.34	3274	
858.51	3534.1	
858.68	6480.5	
858.85	6462.7	
859.02	4079.6	
859.19	4395.6	
859.36	4990.9	
859.52	5141.8	
859.69	3598.3	
859.86	4212.7	
860.03	5062.6	
860.2	6287.3	
860.37	3214.6	
860.54	3614	
860.71	5986.2	
860.88	6385.6	
861.05	3949.8	
861.21	4457.1	
861.38	6404.7	
861.55	4910.3	
861.72	3189.4	
861.89	3969.6	
862.06	6051.7	
862.23	6486.6	
862.4	3408.5	
862.56	3733.4	
862.73	5835.3	
862.9	5517.2	
863.07	4205.2	
863.24	3173.7	
863.41	4934.9	
863.58	5069.4	
863.75	3592.1	
863.91	4091.8	
864.08	6417	
864.25	5903.6	
864.42	4468.7	
864.59	4971.1	
864.76	6676.4	
864.93	5053.7	
865.09	3491.8	
865.26	3811.3	
865.43	6262	
865.6	6586.3	
865.77	3120.4	
865.94	3489.7	
866.1	6242.2	
866.27	6062	
866.44	5365.7	
866.61	3334.1	
866.78	5410.1	
866.95	5862.7	
867.11	3416.7	
867.28	3150.5	
867.45	6111.1	
867.62	5100.1	
867.79	4170.3	
867.96	3465.8	
868.12	5050.3	
868.29	6084.5	
868.46	3570.3	
868.63	4750.6	
868.8	6141.2	
868.97	5952.8	
869.13	3691.8	
869.3	3715.7	
869.47	5857.2	
869.64	6023.1	
869.81	3551.2	
869.97	3607.8	
870.14	5709.1	
870.31	6394.4	
870.48	3439.9	
870.65	4485.1	
870.81	5322	
870.98	5309	
871.15	4009.2	
871.32	3671.3	
871.48	5825.1	
871.65	6447.7	
871.82	3511.6	
871.99	3885.7	
872.16	6944	
872.32	6261.3	
872.49	3591.5	
872.66	3609.2	
872.83	5905.7	
872.99	5188.9	
873.16	4057	
873.33	3504.1	
873.5	5523.4	
873.67	5642.2	
873.83	3715	
874	4724	
874.17	5681.7	
874.34	6898.2	
874.5	4545.1	
874.67	4467.3	
874.84	6365.8	
875.01	4968.4	
875.17	4952.7	
875.34	3504.1	
875.51	5637.4	
875.68	6829.3	
875.84	4249.5	
876.01	5184.8	
876.18	5879	
876.34	5863.3	
876.51	3597.6	
876.68	3485.6	
876.85	5369.1	
877.01	6227.2	
877.18	5016.2	
877.35	3525.9	
877.52	5536.3	
877.68	4933.6	
877.85	3414	
878.02	3508.9	
878.18	5464	
878.35	5255.8	
878.52	2821.4	
878.69	3939.6	
878.85	5926.1	
879.02	5883.8	
879.19	5001.1	
879.35	3804.4	
879.52	5884.5	
879.69	6120.7	
879.86	3056.3	
880.02	3975.1	
880.19	5445.5	
880.36	6669.6	
880.52	4113	
880.69	4209.9	
880.86	6010.8	
881.02	6042.9	
881.19	3844.7	
881.36	3824.2	
881.52	5857.2	
881.69	5220.3	
881.86	3794.9	
882.02	3721.8	
882.19	6150.7	
882.36	7265.5	
882.52	3610.6	
882.69	4994.3	
882.86	5713.2	
883.02	5625.8	
883.19	4296.6	
883.36	3965.6	
883.52	6006.7	
883.69	6913.9	
883.86	3589.4	
884.02	3201.7	
884.19	5958.2	
884.36	5506.3	
884.52	3977.2	
884.69	3721.2	
884.86	5242.8	
885.02	6559.6	
885.19	3928.7	
885.36	4128	
885.52	5493.3	
885.69	5678.3	
885.86	5136.3	
886.02	4455	
886.19	6005.3	
886.35	5442.8	
886.52	3923.9	
886.69	4943.1	
886.85	5049.6	
887.02	6387.6	
887.19	6387.6	
887.35	6387.6	
887.52	6387.6	
887.68	6387.6	
887.85	6387.6	
888.02	6387.6	
888.18	6387.6	
888.35	6387.6	
888.51	6387.6	
888.68	6387.6	
888.85	6387.6	
889.01	6387.6	
889.18	6387.6	
889.35	6387.6	
889.51	6387.6	
889.68	6387.6	
889.84	6387.6	
890.01	6387.6	
890.17	6387.6	
890.34	6387.6	
890.51	6387.6	
890.67	6387.6	
890.84	6387.6	
891	6387.6	
891.17	6387.6	
891.34	6387.6	
891.5	6387.6	
891.67	6387.6	
891.83	6387.6	
892	6387.6	
892.16	6387.6	
892.33	6387.6	
892.5	6387.6	
892.66	6387.6	
892.83	6387.6	
892.99	6387.6	
893.16	6387.6	
893.32	6387.6	
893.49	6387.6	
893.65	6387.6	
893.82	6387.6	
893.99	6387.6	
894.15	6387.6	
894.32	6387.6	
894.48	6387.6	
894.65	6387.6	
894.81	6387.6	
894.98	6387.6	
895.14	6387.6	
895.31	6387.6	
895.47	6387.6	
895.64	6387.6	
895.81	6387.6	
895.97	6387.6	
896.14	6387.6	
896.3	6387.6	
896.47	6387.6	
896.63	6387.6	
896.8	6387.6	
896.96	6387.6	
897.13	6387.6	
897.29	6387.6	
897.46	6387.6	
897.62	6387.6	
897.79	6387.6	
897.95	6387.6	
898.12	6387.6	
898.28	6387.6	
898.45	6387.6	
898.61	6387.6	
898.78	6387.6	
898.94	6387.6	
899.11	6387.6	
899.27	6387.6	
899.44	6387.6	
899.6	6387.6	
899.77	6387.6	
899.93	6387.6	
900.1	6387.6	
900.26	6387.6	
900.43	6387.6	
900.59	6387.6	
900.76	6387.6	
900.92	6387.6	
901.09	6387.6	
901.25	6387.6	
901.42	6387.6	
901.58	6387.6	
901.75	6387.6	
901.91	6387.6	
902.07	6387.6	
902.24	6387.6	
902.4	6387.6	
902.57	6387.6	
902.73	6387.6	
902.9	6387.6	
903.06	6387.6	
903.23	6387.6	
903.39	6387.6	
903.56	6387.6	
903.72	6387.6	
903.88	6387.6	
904.05	6387.6	
904.21	6387.6	
904.38	6387.6	
904.54	6387.6	
904.71	6387.6	
904.87	6387.6	
905.03	6387.6	
905.2	6387.6	
905.36	6387.6	
905.53	6387.6	
905.69	6387.6	
905.86	6387.6	
906.02	6387.6	
906.18	6387.6	
906.35	6387.6	
906.51	6387.6	
906.68	6387.6	
906.84	6387.6	
907.01	6387.6	
907.17	6387.6	
907.33	6387.6	
907.5	6387.6	
907.66	6387.6	
907.83	6387.6	
907.99	6387.6	
908.15	6387.6	
908.32	6387.6	
908.48	6387.6	
908.65	6387.6	
908.81	6387.6	
908.97	6387.6	
909.14	6387.6	
909.3	6387.6	
909.47	6387.6	
909.63	6387.6	
909.79	6387.6	
909.96	6387.6	
910.12	6387.6	
910.28	6387.6	
910.45	6387.6	
910.61	6387.6	
910.78	6387.6	
910.94	6387.6	
911.1	6387.6	
911.27	6387.6	
911.43	6387.6	
911.59	6387.6	
911.76	6387.6	
911.92	6387.6	
912.08	6387.6	
912.25	6387.6	
912.41	6387.6	
912.57	6387.6	
912.74	6387.6	
912.9	6387.6	
913.07	6387.6	
913.23	6387.6	
913.39	6387.6	
913.56	6387.6	
913.72	6387.6	
913.88	6387.6	
914.05	6387.6	
914.21	6387.6	
914.37	6387.6	
914.54	6387.6	
914.7	6387.6	
914.86	6387.6	
915.03	6387.6	
915.19	6387.6	
