Wavelength	Intensities	
nm	a.u.	
179.22	1920.8	
179.44	1913.8	
179.65	1927.8	
179.86	1899.8	
180.08	1946.9	
180.29	4983.4	
180.51	3579.2	
180.72	5655.8	
180.94	6783.6	
181.15	3289.7	
181.37	3200.3	
181.58	5576.6	
181.79	5861.3	
182.01	3407.8	
182.22	3713	
182.44	5914.5	
182.65	4903.5	
182.87	4683.7	
183.08	4103.4	
183.29	6198.5	
183.51	5182	
183.72	3756	
183.94	5495.4	
184.15	5458.5	
184.37	5544.5	
184.58	3379.8	
184.79	4588.8	
185.01	5133.6	
185.22	5885.2	
185.44	4845.5	
185.65	4029.7	
185.86	5390.3	
186.08	4962.9	
186.29	3201.7	
186.51	3419.4	
186.72	5158.8	
186.94	6041.5	
187.15	4001	
187.36	4149.2	
187.58	7969.3	
187.79	5649	
188.01	4308.2	
188.22	6753.5	
188.43	6771.9	
188.65	5793	
188.86	3427.6	
189.08	4121.9	
189.29	5349.3	
189.5	5307	
189.72	3853.6	
189.93	3951.9	
190.15	6077.7	
190.36	7319.4	
190.57	4216.8	
190.79	4063.9	
191	6251.1	
191.22	6148.7	
191.43	4274.8	
191.64	3492.5	
191.86	6322.8	
192.07	6128.9	
192.29	3654.9	
192.5	3855.6	
192.71	6090.7	
192.93	5236.7	
193.14	3795.6	
193.35	3918.4	
193.57	5303.6	
193.78	6087.2	
194	3094.5	
194.21	3779.9	
194.42	5020.3	
194.64	5570.5	
194.85	4151.9	
195.07	4885.1	
195.28	5626.5	
195.49	4773.1	
195.71	5187.5	
195.92	3547.1	
196.13	5689.3	
196.35	5859.9	
196.56	5414.1	
196.78	4117.1	
196.99	7157.7	
197.2	6797.9	
197.42	4795	
197.63	4255	
197.84	4948.6	
198.06	5734.3	
198.27	3870.7	
198.48	5090.6	
198.7	5277.6	
198.91	5416.2	
199.13	4173.8	
199.34	4247.5	
199.55	6008.7	
199.77	4794.3	
199.98	3622.2	
200.19	4205.8	
200.41	5390.9	
200.62	5109	
200.83	4409.3	
201.05	4686.4	
201.26	5438	
201.47	5135.6	
201.69	3769.6	
201.9	3568.9	
202.11	5515.9	
202.33	6509.1	
202.54	4031.8	
202.76	4386.1	
202.97	5671.5	
203.18	5688.6	
203.4	4379.2	
203.61	4266.6	
203.82	5610.1	
204.04	5175.9	
204.25	4252.9	
204.46	4089.8	
204.68	5550	
204.89	5851.7	
205.1	4145.1	
205.32	3558.7	
205.53	5982.1	
205.74	6167.8	
205.96	3023.5	
206.17	4293.2	
206.38	5907	
206.6	6023.8	
206.81	4878.9	
207.02	3910.9	
207.24	5802.6	
207.45	6227.9	
207.66	4022.2	
207.88	3415.3	
208.09	5743.2	
208.3	5541.1	
208.52	3641.3	
208.73	4035.2	
208.94	5522.7	
209.15	6274.3	
209.37	3973.1	
209.58	4198.3	
209.79	6054.5	
210.01	5316.5	
210.22	3177.8	
210.43	3336.1	
210.65	5538.4	
210.86	5973.9	
211.07	3999.7	
211.29	3648.8	
211.5	5870.8	
211.71	5466.7	
211.93	3731.4	
212.14	3615.3	
212.35	5465.3	
212.56	5745.9	
212.78	4212	
212.99	3502.7	
213.2	6580.1	
213.42	5258.5	
213.63	3807.9	
213.84	3989.4	
214.06	4917.2	
214.27	5020.9	
214.48	3966.2	
214.69	4304.1	
214.91	6193.1	
215.12	6382.8	
215.33	4321.9	
215.55	4786.1	
215.76	6897.6	
215.97	5905	
216.18	4119.8	
216.4	4022.9	
216.61	5212.1	
216.82	6053.1	
217.04	3723.2	
217.25	3899.3	
217.46	6224.5	
217.67	5964.4	
217.89	3265.8	
218.1	3392.1	
218.31	5620.3	
218.53	5703.6	
218.74	3859.1	
218.95	3793.5	
219.16	5466.7	
219.38	6532.3	
219.59	3815.4	
219.8	4502.1	
220.01	7174.7	
220.23	5535.7	
220.44	4922	
220.65	3628.3	
220.87	5609.4	
221.08	6199.9	
221.29	3398.9	
221.5	4541	
221.72	7608.2	
221.93	5242.1	
222.14	4174.4	
222.35	4936.3	
222.57	5490.6	
222.78	5911.8	
222.99	3970.3	
223.2	4313	
223.42	5853.8	
223.63	6035.4	
223.84	3053.5	
224.05	3032.4	
224.27	7128.3	
224.48	6425.2	
224.69	4960.9	
224.9	4212	
225.12	5808	
225.33	5498.1	
225.54	3349.1	
225.75	3774.4	
225.97	5138.4	
226.18	5369.1	
226.39	4071.4	
226.6	3818.8	
226.82	5279.7	
227.03	5122.7	
227.24	4231.1	
227.45	3512.9	
227.67	5846.3	
227.88	6492.7	
228.09	4746.5	
228.3	4679.6	
228.52	5983.5	
228.73	5459.9	
228.94	3949.8	
229.15	3422.2	
229.36	5453.1	
229.58	5363.6	
229.79	3901.4	
230	4644.8	
230.21	6642.2	
230.43	5625.8	
230.64	4153.3	
230.85	4381.3	
231.06	5976	
231.28	5928.2	
231.49	3450.1	
231.7	4074.1	
231.91	5854.5	
232.12	5612.1	
232.34	3533.4	
232.55	4071.4	
232.76	6214.9	
232.97	5757.5	
233.18	3674.1	
233.4	4158.1	
233.61	5715.9	
233.82	5259.2	
234.03	3849.5	
234.25	3810.6	
234.46	7715.4	
234.67	5564.3	
234.88	4287.8	
235.09	3681.6	
235.31	5866.7	
235.52	5436.7	
235.73	4168.3	
235.94	3562.1	
236.15	5255.8	
236.37	6713.2	
236.58	3710.9	
236.79	4006.5	
237	5840.8	
237.21	5060.5	
237.43	4242.7	
237.64	3451.5	
237.85	10106	
238.06	5065.3	
238.27	4367	
238.48	3465.2	
238.7	5867.4	
238.91	5409.4	
239.12	3992.9	
239.33	4036.5	
239.54	5281.7	
239.76	5454.4	
239.97	3910.3	
240.18	3990.1	
240.39	7051.8	
240.6	5775.3	
240.82	4151.2	
241.03	3432.4	
241.24	5540.4	
241.45	6436.8	
241.66	3665.9	
241.87	4323.9	
242.09	6339.1	
242.3	6679.1	
242.51	4355.3	
242.72	4024.9	
242.93	6033.3	
243.14	5496.1	
243.36	4661.2	
243.57	4994.3	
243.78	6411.5	
243.99	5906.3	
244.2	4016.7	
244.41	3710.2	
244.63	5072.8	
244.84	5960.3	
245.05	4296	
245.26	4031.8	
245.47	5845.6	
245.68	6184.2	
245.9	5393	
246.11	4198.3	
246.32	5339.7	
246.53	5827.8	
246.74	6532.3	
246.95	3402.4	
247.16	5030.5	
247.38	5563.6	
247.59	3332	
247.8	4052.2	
248.01	5247.6	
248.22	5418.2	
248.43	3594.2	
248.64	3958	
248.86	4840	
249.07	5276.3	
249.28	3560.7	
249.49	4119.1	
249.7	6161	
249.91	6242.2	
250.12	3360.7	
250.34	3454.9	
250.55	5628.5	
250.76	5580	
250.97	4164.9	
251.18	4204.5	
251.39	6295.5	
251.6	5739.8	
251.81	4254.3	
252.03	4261.8	
252.24	5292.6	
252.45	6097.5	
252.66	3448.8	
252.87	4457.7	
253.08	5565.7	
253.29	7303.7	
253.5	3491.8	
253.72	4954	
253.93	5350.7	
254.14	6621.8	
254.35	3773.7	
254.56	3898.6	
254.77	5782.8	
254.98	5147.9	
255.19	3743	
255.41	4876.2	
255.62	5641.5	
255.83	6212.2	
256.04	4326.7	
256.25	4228.4	
256.46	6799.9	
256.67	5210	
256.88	4183.3	
257.09	4621.6	
257.31	5197.7	
257.52	5253.7	
257.73	5200.5	
257.94	3776.5	
258.15	5356.1	
258.36	5558.9	
258.57	4836.6	
258.78	3061.7	
258.99	6171.2	
259.2	5365	
259.41	3852.2	
259.63	3988.8	
259.84	6452.5	
260.05	6898.2	
260.26	5072.8	
260.47	3732.8	
260.68	6119.3	
260.89	5444.9	
261.1	4672.1	
261.31	3642.7	
261.52	6116.6	
261.73	6556.2	
261.95	5069.4	
262.16	4407.2	
262.37	6312.5	
262.58	6367.8	
262.79	4914.4	
263	3915.7	
263.21	5568.4	
263.42	5103.5	
263.63	3989.4	
263.84	3908.2	
264.05	6167.8	
264.26	6537.8	
264.47	4833.9	
264.69	4363.5	
264.9	6272.9	
265.11	5760.9	
265.32	3750.5	
265.53	3790.8	
265.74	5742.5	
265.95	4878.9	
266.16	4162.8	
266.37	4524.6	
266.58	5674.9	
266.79	5419.6	
267	3792.8	
267.21	3549.1	
267.42	5109.7	
267.63	5570.5	
267.84	4012.7	
268.06	3444.7	
268.27	6053.8	
268.48	6337.8	
268.69	3879.5	
268.9	4648.9	
269.11	6271.6	
269.32	4976.6	
269.53	4065.9	
269.74	3766.9	
269.95	5892	
270.16	4833.9	
270.37	4055.7	
270.58	4666.6	
270.79	5375.2	
271	6124.8	
271.21	4368.3	
271.42	4058.4	
271.63	5662.6	
271.84	5221.6	
272.05	3205.8	
272.26	3675.4	
272.47	5575.3	
272.68	5774.6	
272.89	3850.2	
273.11	4431.8	
273.32	5354.1	
273.53	6563.7	
273.74	4381.3	
273.95	4235.9	
274.16	6234.7	
274.37	5640.1	
274.58	4453	
274.79	3517.7	
275	5670.8	
275.21	6234	
275.42	5246.9	
275.63	4552	
275.84	5874.9	
276.05	7318.1	
276.26	4263.9	
276.47	3946.4	
276.68	5388.2	
276.89	6628.6	
277.1	4600.4	
277.31	3523.9	
277.52	5869.5	
277.73	6003.3	
277.94	3549.1	
278.15	3889.1	
278.36	5764.3	
278.57	5187.5	
278.78	3885.7	
278.99	4348.5	
279.2	5157.5	
279.41	5104.9	
279.62	5037.3	
279.83	3585.3	
280.04	6842.3	
280.25	5101.5	
280.46	5074.9	
280.67	4044.1	
280.88	5107	
281.09	6223.8	
281.3	4319.2	
281.51	5479	
281.72	5238.7	
281.93	6083.8	
282.14	3732.8	
282.35	4044.7	
282.56	6055.8	
282.77	5997.1	
282.98	3941.7	
283.19	4840	
283.4	7444.4	
283.61	5479	
283.82	3581.9	
284.03	4983.4	
284.24	5658.5	
284.45	6245.6	
284.66	5021.6	
284.87	4825	
285.08	6152.1	
285.29	6296.8	
285.5	3406.5	
285.71	3932.1	
285.92	6251.1	
286.12	6901	
286.33	4977.9	
286.54	3934.8	
286.75	6135	
286.96	5432.6	
287.17	3598.3	
287.38	4907.6	
287.59	5169.1	
287.8	5095.3	
288.01	3951.2	
288.22	4581.3	
288.43	6111.8	
288.64	5055.1	
288.85	4696.7	
289.06	4506.2	
289.27	6065.4	
289.48	6516	
289.69	5085.1	
289.9	4556.7	
290.11	6209.4	
290.32	5209.3	
290.53	4770.4	
290.74	4410	
290.94	6002.6	
291.15	6044.9	
291.36	3803.8	
291.57	4534.9	
291.78	5285.1	
291.99	4952	
292.2	3550.5	
292.41	4390.8	
292.62	6118	
292.83	5898.1	
293.04	5422.3	
293.25	3678.2	
293.46	5343.8	
293.67	6225.8	
293.88	3749.8	
294.09	3607.2	
294.29	5102.9	
294.5	5672.9	
294.71	4105.5	
294.92	3872.7	
295.13	5260.5	
295.34	6679.1	
295.55	3394.2	
295.76	3510.9	
295.97	5969.8	
296.18	6784.2	
296.39	3619.4	
296.6	3852.2	
296.81	5706.3	
297.01	6061.3	
297.22	3969.6	
297.43	3741.6	
297.64	5152	
297.85	5218.9	
298.06	3122.5	
298.27	3444	
298.48	5599.1	
298.69	5278.3	
298.9	4163.5	
299.11	3732.8	
299.31	5068.7	
299.52	5101.5	
299.73	4388.8	
299.94	4306.9	
300.15	5526.8	
300.36	5156.1	
300.57	4302.1	
300.78	4319.8	
300.99	5439.4	
301.2	5672.2	
301.4	3768.9	
301.61	4181.3	
301.82	5965.7	
302.03	6026.5	
302.24	4608.6	
302.45	3606.5	
302.66	5946.6	
302.87	6383.5	
303.08	3799.7	
303.29	5185.5	
303.49	5270.1	
303.7	5608	
303.91	3355.9	
304.12	4970.4	
304.33	5084.4	
304.54	5648.3	
304.75	3843.4	
304.96	3670	
305.16	5914.5	
305.37	6658.6	
305.58	3317	
305.79	3455.6	
306	5905	
306.21	4963.6	
306.42	3781.9	
306.63	5745.2	
306.83	5432.6	
307.04	6197.2	
307.25	4229.7	
307.46	4219.5	
307.67	4767	
307.88	6042.2	
308.09	3691.8	
308.29	3854.3	
308.5	5713.8	
308.71	6176.7	
308.92	4038.6	
309.13	3673.4	
309.34	5387.5	
309.55	5552	
309.75	4700.1	
309.96	4364.2	
310.17	6002.6	
310.38	5252.4	
310.59	4549.9	
310.8	4362.9	
311.01	5378.6	
311.21	5395.7	
311.42	3541.6	
311.63	3753.2	
311.84	5283.1	
312.05	5702.2	
312.26	4233.2	
312.46	4598.4	
312.67	5354.1	
312.88	5109	
313.09	3654.3	
313.3	3549.1	
313.51	6457.9	
313.71	6762.4	
313.92	3586	
314.13	3839.3	
314.34	5821.7	
314.55	5480.4	
314.76	4721.3	
314.96	4086.4	
315.17	5617.6	
315.38	5978	
315.59	3674.7	
315.8	3528	
316.01	6498.2	
316.21	6571.2	
316.42	3574.4	
316.63	4056.3	
316.84	5440.1	
317.05	6367.1	
317.26	4319.2	
317.46	3906.8	
317.67	5487.9	
317.88	5988.3	
318.09	4648.9	
318.3	3390.1	
318.5	5285.8	
318.71	5909.1	
318.92	5958.9	
319.13	4323.9	
319.34	6034.7	
319.54	6264.1	
319.75	3431	
319.96	3253.5	
320.17	6010.8	
320.38	6159.6	
320.58	3405.8	
320.79	4039.3	
321	6192.4	
321.21	6283.9	
321.42	4115.1	
321.62	3289	
321.83	5159.5	
322.04	5544.5	
322.25	3846.1	
322.46	3725.9	
322.66	5754.8	
322.87	5809.4	
323.08	4548.5	
323.29	3616.7	
323.5	6651.8	
323.7	5120.6	
323.91	4975.2	
324.12	4538.3	
324.33	5571.2	
324.53	5911.1	
324.74	4368.3	
324.95	4614.8	
325.16	4956.1	
325.37	5385.5	
325.57	3745.1	
325.78	3798.3	
325.99	5679.7	
326.2	5099.4	
326.4	5162.2	
326.61	3408.5	
326.82	5500.2	
327.03	5699.5	
327.24	5258.5	
327.44	5003.9	
327.65	5890	
327.86	4681.7	
328.07	4364.2	
328.27	3494.5	
328.48	6319.3	
328.69	5126.7	
328.9	5324	
329.1	4001	
329.31	5458.5	
329.52	6472.3	
329.73	3682.9	
329.93	4160.1	
330.14	5515.2	
330.35	5814.9	
330.56	6118.6	
330.76	4633.2	
330.97	5367	
331.18	5795.1	
331.39	4102.1	
331.59	3309.5	
331.8	6182.8	
332.01	6322.8	
332.22	3803.8	
332.42	4358.8	
332.63	5737	
332.84	5257.8	
333.05	4189.5	
333.25	3728	
333.46	5364.3	
333.67	5637.4	
333.88	3865.9	
334.08	4293.9	
334.29	8305.9	
334.5	6367.8	
334.7	3546.4	
334.91	5313.8	
335.12	5114.5	
335.33	6049.7	
335.53	4104.1	
335.74	6047.7	
335.95	5312.4	
336.16	5171.1	
336.36	4087.7	
336.57	4714.4	
336.78	5080.3	
336.98	6230.6	
337.19	5048.2	
337.4	4009.9	
337.61	6692.1	
337.81	5124.7	
338.02	3758.7	
338.23	4945.8	
338.43	6290	
338.64	5285.1	
338.85	3706.1	
339.05	4878.9	
339.26	6475.7	
339.47	4988.9	
339.68	3654.3	
339.88	5500.2	
340.09	5849.7	
340.3	6076.3	
340.5	4295.3	
340.71	3292.5	
340.92	5042.8	
341.13	6335.7	
341.33	3648.8	
341.54	4352.6	
341.75	5892.7	
341.95	5455.8	
342.16	4154.6	
342.37	4511.7	
342.57	5165.7	
342.78	5529.5	
342.99	4653	
343.19	3318.4	
343.4	5965.7	
343.61	5814.9	
343.81	3929.4	
344.02	3596.9	
344.23	6038.1	
344.43	6429.9	
344.64	4587.4	
344.85	4463.9	
345.06	5890.6	
345.26	6260	
345.47	4269.3	
345.68	5041.4	
345.88	4928.1	
346.09	6152.8	
346.3	4381.3	
346.5	3366.9	
346.71	5637.4	
346.92	5306.3	
347.12	3374.4	
347.33	4293.9	
347.54	6184.2	
347.74	6631.3	
347.95	4214	
348.16	3194.8	
348.36	5422.3	
348.57	5198.4	
348.78	4240.7	
348.98	4587.4	
349.19	5522	
349.39	5069.4	
349.6	3450.8	
349.81	3797.6	
350.01	5797.1	
350.22	5298.8	
350.43	4119.8	
350.63	4958.1	
350.84	5651	
351.05	5394.3	
351.25	3763.5	
351.46	3405.8	
351.67	6153.5	
351.87	5352	
352.08	4026.3	
352.29	4577.9	
352.49	6171.2	
352.7	6234.7	
352.9	3673.4	
353.11	4612.7	
353.32	6848.4	
353.52	5418.9	
353.73	3589.4	
353.94	4666.6	
354.14	5981.4	
354.35	5780.7	
354.55	3743.7	
354.76	4192.9	
354.97	5910.4	
355.17	5616.2	
355.38	3553.9	
355.59	4863.2	
355.79	5382.1	
356	5869.5	
356.2	4181.3	
356.41	3694.5	
356.62	5131.5	
356.82	5643.5	
357.03	4439.3	
357.24	4074.8	
357.44	5388.2	
357.65	5513.8	
357.85	5490.6	
358.06	4263.2	
358.27	5208	
358.47	5401.2	
358.68	3554.6	
358.88	4507.6	
359.09	5977.3	
359.3	6435.4	
359.5	5243.5	
359.71	4679.6	
359.91	6881.9	
360.12	6222.4	
360.33	4549.9	
360.53	5052.3	
360.74	5496.7	
360.94	5554.8	
361.15	4762.9	
361.36	3981.9	
361.56	6300.2	
361.77	5742.5	
361.97	5339.1	
362.18	4218.8	
362.38	6361	
362.59	5422.3	
362.8	3949.8	
363	3773.7	
363.21	5239.4	
363.41	5903.6	
363.62	4530.8	
363.83	5608	
364.03	5989.6	
364.24	7096.2	
364.44	5692	
364.65	5644.9	
364.85	5777.3	
365.06	5466	
365.27	4227	
365.47	4255.7	
365.68	6902.3	
365.88	5803.9	
366.09	4616.8	
366.29	4350.6	
366.5	6087.9	
366.71	6537.1	
366.91	5659.9	
367.12	4857.1	
367.32	7236.8	
367.53	6401.3	
367.73	4829.8	
367.94	5900.2	
368.14	6438.8	
368.35	7359.7	
368.56	4741.7	
368.76	4163.5	
368.97	6543.3	
369.17	8348.2	
369.38	4278.2	
369.58	4636.6	
369.79	5551.4	
369.99	6903	
370.2	5591.6	
370.4	4693.9	
370.61	6218.3	
370.82	7404.8	
371.02	4624.3	
371.23	3854.3	
371.43	5462.6	
371.64	6859.3	
371.84	4622.3	
372.05	5924.1	
372.25	8304.5	
372.46	6582.9	
372.66	4719.9	
372.87	4692.6	
373.07	6796.5	
373.28	8410.3	
373.48	5814.9	
373.69	5472.9	
373.9	6247.7	
374.1	6265.4	
374.31	5845.6	
374.51	5318.6	
374.72	7238.9	
374.92	6021.7	
375.13	6079.7	
375.33	5198.4	
375.54	6840.9	
375.74	6187.6	
375.95	5371.1	
376.15	6677.1	
376.36	6883.9	
376.56	6690.7	
376.77	5549.3	
376.97	5980.8	
377.18	8052.6	
377.38	7072.3	
377.59	6393.1	
377.79	5039.4	
378	6971.3	
378.2	7440.3	
378.41	5173.9	
378.61	5042.1	
378.82	7485.3	
379.02	6561	
379.23	5384.1	
379.43	6655.2	
379.64	7494.9	
379.84	7211.6	
380.05	5173.2	
380.25	5157.5	
380.46	7305.1	
380.66	6807.4	
380.87	6524.8	
381.07	6888	
381.28	7898.3	
381.48	7288	
381.69	5248.9	
381.89	5258.5	
382.1	6072.9	
382.3	7428	
382.51	6408.1	
382.71	7380.2	
382.91	7230	
383.12	7901.1	
383.32	5575.3	
383.53	5783.5	
383.73	7043	
383.94	6848.4	
384.14	5679.7	
384.35	4861.2	
384.55	6761.7	
384.76	7281.9	
384.96	5584.1	
385.17	5884.5	
385.37	7208.8	
385.58	6438.1	
385.78	5870.8	
385.98	4734.2	
386.19	6606.7	
386.39	7048.4	
386.6	5298.8	
386.8	5629.2	
387.01	7250.5	
387.21	7273	
387.42	6018.3	
387.62	6718	
387.83	6632.7	
388.03	7301.7	
388.23	5735	
388.44	6648.4	
388.64	6334.4	
388.85	6626.5	
389.05	6244.3	
389.26	6922.8	
389.46	8677.2	
389.67	8079.9	
389.87	6315.3	
390.07	6380.1	
390.28	7268.9	
390.48	6771.3	
390.69	5634.6	
390.89	5885.2	
391.1	7017.7	
391.3	7941.3	
391.5	7163.1	
391.71	7819.8	
391.91	7832.8	
392.12	8836.3	
392.32	7310.6	
392.53	6498.9	
392.73	7138.5	
392.93	7357.7	
393.14	6127.5	
393.34	6890	
393.55	7819.8	
393.75	7219.8	
393.95	6016.2	
394.16	5943.9	
394.36	7047.1	
394.57	7746.8	
394.77	5515.9	
394.98	5910.4	
395.18	7043	
395.38	7360.4	
395.59	7088.7	
395.79	5944.6	
396	7314.7	
396.2	7843	
396.4	6973.3	
396.61	6982.2	
396.81	8228.7	
397.02	7539.3	
397.22	7478.5	
397.42	7503.1	
397.63	8302.5	
397.83	7578.2	
398.04	6272.9	
398.24	6894.8	
398.44	8015.7	
398.65	7279.8	
398.85	6213.5	
399.05	6295.5	
399.26	7636.9	
399.46	9428.2	
399.67	6848.4	
399.87	6497.5	
400.07	8106.5	
400.28	8525	
400.48	6714.6	
400.69	7944.1	
400.89	8949.6	
401.09	9297.1	
401.3	6848.4	
401.5	8022.6	
401.7	9854.8	
401.91	10034	
402.11	7172	
402.32	7386.3	
402.52	8999.5	
402.72	8803.5	
402.93	7508.5	
403.13	6307.1	
403.33	9622.7	
403.54	7948.2	
403.74	6966.5	
403.94	7728.4	
404.15	8144.8	
404.35	9266.4	
404.56	6587.6	
404.76	8632.9	
404.96	8603.5	
405.17	8379.6	
405.37	7882.6	
405.57	7529	
405.78	8987.2	
405.98	8247.2	
406.18	7185	
406.39	8070.4	
406.59	8905.9	
406.79	8570.7	
407	6827.9	
407.2	6894.1	
407.4	8920.3	
407.61	9188.6	
407.81	7002.7	
408.01	9284.8	
408.22	8131.1	
408.42	10346	
408.62	8600.1	
408.83	8252.6	
409.03	9362.6	
409.23	9307.3	
409.44	8720.3	
409.64	8961.2	
409.84	10806	
410.05	10822	
410.25	9280.7	
410.45	8918.2	
410.66	10763	
410.86	13142	
411.06	9902.6	
411.27	9685.5	
411.47	13453	
411.67	11197	
411.88	9966.8	
412.08	10582	
412.28	11955	
412.49	12484	
412.69	10203	
412.89	10290	
413.09	12476	
413.3	12373	
413.5	10520	
413.7	10221	
413.91	11665	
414.11	12768	
414.31	10463	
414.52	11215	
414.72	12288	
414.92	12570	
415.12	10669	
415.33	11284	
415.53	13048	
415.73	13183	
415.94	11609	
416.14	11029	
416.34	12201	
416.55	11792	
416.75	12562	
416.95	11893	
417.15	13373	
417.36	13916	
417.56	12966	
417.76	11957	
417.97	13784	
418.17	13713	
418.37	11547	
418.57	11899	
418.78	13391	
418.98	12837	
419.18	12786	
419.38	12545	
419.59	13232	
419.79	12493	
419.99	11654	
420.2	11950	
420.4	13592	
420.6	13734	
420.8	11574	
421.01	11224	
421.21	13639	
421.41	13884	
421.61	12004	
421.82	11815	
422.02	13160	
422.22	13984	
422.42	12800	
422.63	11852	
422.83	13178	
423.03	14503	
423.23	12089	
423.44	11160	
423.64	13231	
423.84	12716	
424.04	11513	
424.25	11336	
424.45	14008	
424.65	13848	
424.85	10985	
425.06	11606	
425.26	14093	
425.46	12520	
425.66	11896	
425.87	11682	
426.07	13758	
426.27	13624	
426.47	11907	
426.67	11073	
426.88	13844	
427.08	13516	
427.28	12393	
427.48	10888	
427.69	12196	
427.89	13008	
428.09	12138	
428.29	11254	
428.5	13958	
428.7	13297	
428.9	11264	
429.1	11588	
429.3	13281	
429.51	13913	
429.71	11430	
429.91	12517	
430.11	13913	
430.31	14659	
430.52	12082	
430.72	12741	
430.92	14611	
431.12	14098	
431.32	12071	
431.53	12288	
431.73	13087	
431.93	14769	
432.13	11840	
432.33	11918	
432.54	13674	
432.74	14109	
432.94	12028	
433.14	12989	
433.34	14255	
433.55	14145	
433.75	13141	
433.95	15481	
434.15	14463	
434.35	14189	
434.56	12422	
434.76	12415	
434.96	14579	
435.16	15211	
435.36	12603	
435.56	14060	
435.77	14576	
435.97	14853	
436.17	14977	
436.37	14149	
436.57	14662	
436.78	14933	
436.98	15065	
437.18	14769	
437.38	15902	
437.58	14866	
437.78	14809	
437.99	13391	
438.19	15307	
438.39	16189	
438.59	13202	
438.79	12430	
438.99	15869	
439.2	14690	
439.4	12476	
439.6	12660	
439.8	15128	
440	16408	
440.2	14280	
440.4	14399	
440.61	16065	
440.81	16955	
441.01	13939	
441.21	15262	
441.41	17470	
441.61	16645	
441.81	15774	
442.02	16987	
442.22	17711	
442.42	16873	
442.62	14599	
442.82	14298	
443.02	17397	
443.22	16771	
443.43	15309	
443.63	14597	
443.83	16202	
444.03	16391	
444.23	16538	
444.43	15939	
444.63	17204	
444.83	18440	
445.04	15380	
445.24	16653	
445.44	17165	
445.64	17611	
445.84	15626	
446.04	16023	
446.24	16352	
446.44	17574	
446.65	14478	
446.85	15418	
447.05	16199	
447.25	17197	
447.45	15132	
447.65	14729	
447.85	16593	
448.05	15904	
448.25	16052	
448.46	15758	
448.66	16809	
448.86	16374	
449.06	14679	
449.26	15872	
449.46	17554	
449.66	16293	
449.86	15887	
450.06	15690	
450.26	16629	
450.47	17379	
450.67	15769	
450.87	16332	
451.07	17640	
451.27	17755	
451.47	15259	
451.67	16337	
451.87	17342	
452.07	18131	
452.27	15955	
452.47	15749	
452.67	17377	
452.88	18162	
453.08	14905	
453.28	17454	
453.48	19252	
453.68	17155	
453.88	16046	
454.08	16040	
454.28	18319	
454.48	17903	
454.68	16722	
454.88	17346	
455.08	18358	
455.28	19000	
455.48	15940	
455.68	17079	
455.89	19506	
456.09	19095	
456.29	16817	
456.49	17217	
456.69	19738	
456.89	18544	
457.09	18031	
457.29	18698	
457.49	19579	
457.69	19921	
457.89	18504	
458.09	17471	
458.29	19866	
458.49	20579	
458.69	19090	
458.89	18753	
459.09	21365	
459.29	21400	
459.49	18539	
459.69	19660	
459.9	20459	
460.1	20789	
460.3	18250	
460.5	18359	
460.7	20977	
460.9	20622	
461.1	18211	
461.3	19866	
461.5	22056	
461.7	21705	
461.9	19706	
462.1	19630	
462.3	21491	
462.5	22306	
462.7	19917	
462.9	20312	
463.1	23463	
463.3	23829	
463.5	20468	
463.7	22472	
463.9	22799	
464.1	23126	
464.3	21978	
464.5	21679	
464.7	23926	
464.9	24156	
465.1	23495	
465.3	22698	
465.5	24208	
465.7	24622	
465.9	23289	
466.1	22174	
466.3	25056	
466.5	24134	
466.7	24408	
466.9	22802	
467.1	24650	
467.3	25660	
467.5	24703	
467.7	23412	
467.9	26090	
468.1	27282	
468.3	24132	
468.5	25174	
468.7	25371	
468.9	25132	
469.1	24225	
469.3	25351	
469.5	27911	
469.7	25515	
469.9	24365	
470.1	24457	
470.3	25785	
470.5	25948	
470.7	25512	
470.9	24192	
471.1	25770	
471.3	25348	
471.5	24168	
471.69	25999	
471.89	25164	
472.09	24507	
472.29	25126	
472.49	24671	
472.69	25364	
472.89	25841	
473.09	24060	
473.29	23395	
473.49	25038	
473.69	25040	
473.89	24606	
474.09	23689	
474.29	26340	
474.49	26067	
474.69	24937	
474.89	23908	
475.09	24983	
475.29	25262	
475.49	23142	
475.69	23954	
475.88	26318	
476.08	25471	
476.28	23471	
476.48	23320	
476.68	25388	
476.88	25269	
477.08	23101	
477.28	23846	
477.48	24378	
477.68	25130	
477.88	23169	
478.08	23334	
478.28	26014	
478.48	24874	
478.67	23817	
478.87	22418	
479.07	26442	
479.27	25084	
479.47	23829	
479.67	24122	
479.87	25877	
480.07	26411	
480.27	23333	
480.47	24836	
480.67	25365	
480.87	26418	
481.06	23637	
481.26	24632	
481.46	25606	
481.66	25634	
481.86	24419	
482.06	25377	
482.26	25119	
482.46	26299	
482.66	24118	
482.86	23746	
483.05	25794	
483.25	25244	
483.45	26925	
483.65	24675	
483.85	25741	
484.05	26113	
484.25	25016	
484.45	26088	
484.65	27005	
484.84	27752	
485.04	25047	
485.24	24862	
485.44	27578	
485.64	25834	
485.84	24581	
486.04	26401	
486.24	26596	
486.44	27210	
486.63	24724	
486.83	25934	
487.03	27181	
487.23	27521	
487.43	25101	
487.63	27975	
487.83	27650	
488.02	28709	
488.22	27072	
488.42	27781	
488.62	28618	
488.82	27874	
489.02	26244	
489.22	27011	
489.41	28431	
489.61	28672	
489.81	26320	
490.01	26459	
490.21	28872	
490.41	29698	
490.61	26824	
490.8	26576	
491	28749	
491.2	27479	
491.4	27004	
491.6	25945	
491.8	27930	
491.99	27779	
492.19	25843	
492.39	26047	
492.59	28710	
492.79	28719	
492.99	27413	
493.18	26681	
493.38	29306	
493.58	31090	
493.78	28301	
493.98	27783	
494.18	29971	
494.37	29893	
494.57	29789	
494.77	29576	
494.97	31427	
495.17	32297	
495.37	29831	
495.56	30078	
495.76	32660	
495.96	32428	
496.16	31649	
496.36	30867	
496.55	32912	
496.75	32901	
496.95	31148	
497.15	31249	
497.35	32782	
497.54	33362	
497.74	31035	
497.94	32810	
498.14	34009	
498.34	33789	
498.53	31161	
498.73	32027	
498.93	33038	
499.13	33882	
499.33	32348	
499.52	32434	
499.72	34669	
499.92	34312	
500.12	32240	
500.32	32434	
500.51	34491	
500.71	34798	
500.91	33679	
501.11	32960	
501.31	34766	
501.5	34824	
501.7	33913	
501.9	32835	
502.1	34202	
502.29	34733	
502.49	33718	
502.69	33484	
502.89	34419	
503.09	34572	
503.28	31695	
503.48	31929	
503.68	33037	
503.88	33593	
504.07	32808	
504.27	31847	
504.47	33747	
504.67	33457	
504.86	32574	
505.06	32081	
505.26	32985	
505.46	34867	
505.65	31798	
505.85	31593	
506.05	32426	
506.25	32769	
506.44	30440	
506.64	31158	
506.84	31797	
507.04	32663	
507.23	30167	
507.43	30879	
507.63	33826	
507.83	32319	
508.02	30986	
508.22	30614	
508.42	34582	
508.62	32030	
508.81	30619	
509.01	31704	
509.21	31402	
509.4	32051	
509.6	30948	
509.8	30548	
510	31913	
510.19	33767	
510.39	30526	
510.59	30832	
510.79	32315	
510.98	33867	
511.18	30950	
511.38	31225	
511.57	33163	
511.77	33134	
511.97	31479	
512.17	30222	
512.36	33064	
512.56	32578	
512.76	30453	
512.95	30139	
513.15	32711	
513.35	31578	
513.55	31475	
513.74	30537	
513.94	33089	
514.14	32345	
514.33	31681	
514.53	31636	
514.73	32169	
514.92	32785	
515.12	31023	
515.32	31182	
515.51	32918	
515.71	33319	
515.91	32631	
516.11	31186	
516.3	35226	
516.5	32716	
516.7	31647	
516.89	32301	
517.09	32770	
517.29	33026	
517.48	32182	
517.68	31611	
517.88	32623	
518.07	33279	
518.27	32073	
518.47	30936	
518.66	33555	
518.86	32206	
519.06	30797	
519.25	31279	
519.45	32692	
519.65	34729	
519.84	32154	
520.04	33117	
520.24	35031	
520.43	33469	
520.63	31552	
520.83	31379	
521.02	32337	
521.22	32906	
521.42	31401	
521.61	32129	
521.81	32386	
522.01	32309	
522.2	31649	
522.4	31010	
522.6	33282	
522.79	32357	
522.99	31513	
523.18	31543	
523.38	33722	
523.58	34061	
523.77	34478	
523.97	32576	
524.17	36800	
524.36	36064	
524.56	34574	
524.76	34355	
524.95	36016	
525.15	35444	
525.34	34621	
525.54	34818	
525.74	36677	
525.93	36031	
526.13	36609	
526.33	35635	
526.52	37457	
526.72	37296	
526.91	37074	
527.11	36491	
527.31	38047	
527.5	38560	
527.7	36388	
527.89	35637	
528.09	37355	
528.29	38597	
528.48	36942	
528.68	36493	
528.87	38544	
529.07	38115	
529.27	36618	
529.46	36368	
529.66	38249	
529.85	38982	
530.05	36306	
530.25	37016	
530.44	40010	
530.64	38001	
530.83	36494	
531.03	37162	
531.23	38786	
531.42	38206	
531.62	37866	
531.81	37162	
532.01	39512	
532.21	40273	
532.4	38098	
532.6	38865	
532.79	41325	
532.99	41014	
533.18	39311	
533.38	40214	
533.58	41037	
533.77	41425	
533.97	39940	
534.16	40910	
534.36	42426	
534.55	41478	
534.75	41105	
534.95	40260	
535.14	42757	
535.34	41603	
535.53	39550	
535.73	41718	
535.92	42845	
536.12	41205	
536.31	39463	
536.51	40752	
536.71	41419	
536.9	40874	
537.1	39389	
537.29	39715	
537.49	41641	
537.68	40858	
537.88	40365	
538.07	39363	
538.27	41480	
538.46	42550	
538.66	39660	
538.86	40421	
539.05	41696	
539.25	42163	
539.44	40879	
539.64	39890	
539.83	41252	
540.03	42510	
540.22	39740	
540.42	39309	
540.61	40991	
540.81	41501	
541	39304	
541.2	40739	
541.39	40317	
541.59	40907	
541.78	40454	
541.98	39019	
542.18	39978	
542.37	39847	
542.57	39045	
542.76	40140	
542.96	39419	
543.15	40174	
543.35	38562	
543.54	37872	
543.74	39825	
543.93	39527	
544.13	37917	
544.32	38922	
544.52	39367	
544.71	38703	
544.91	36735	
545.1	38021	
545.3	38819	
545.49	39616	
545.69	36754	
545.88	37205	
546.08	40479	
546.27	39666	
546.47	37740	
546.66	36898	
546.86	39170	
547.05	39968	
547.24	36869	
547.44	37316	
547.63	37840	
547.83	39585	
548.02	37522	
548.22	37411	
548.41	37892	
548.61	39056	
548.8	36668	
549	36668	
549.19	38049	
549.39	38569	
549.58	35846	
549.78	36660	
549.97	38430	
550.17	37546	
550.36	36982	
550.55	38122	
550.75	37337	
550.94	38331	
551.14	35738	
551.33	35529	
551.53	36814	
551.72	37896	
551.92	35672	
552.11	35749	
552.31	37745	
552.5	37580	
552.69	37246	
552.89	34999	
553.08	37464	
553.28	37018	
553.47	35428	
553.67	36633	
553.86	37818	
554.06	36005	
554.25	34220	
554.44	35211	
554.64	38470	
554.83	37992	
555.03	35071	
555.22	35503	
555.42	37218	
555.61	36687	
555.8	34628	
556	35003	
556.19	35931	
556.39	37117	
556.58	34874	
556.78	34536	
556.97	36532	
557.16	36575	
557.36	36136	
557.55	34824	
557.75	35269	
557.94	37648	
558.13	34329	
558.33	34359	
558.52	37124	
558.72	35910	
558.91	34226	
559.1	34377	
559.3	35547	
559.49	34723	
559.69	33779	
559.88	34748	
560.07	35964	
560.27	36566	
560.46	34730	
560.66	34835	
560.85	35878	
561.04	34488	
561.24	33626	
561.43	33570	
561.63	34860	
561.82	35132	
562.01	35097	
562.21	34298	
562.4	35452	
562.59	36867	
562.79	34063	
562.98	33875	
563.18	35849	
563.37	37717	
563.56	35014	
563.76	34540	
563.95	35780	
564.14	35764	
564.34	34640	
564.53	34265	
564.73	36266	
564.92	36910	
565.11	35082	
565.31	34594	
565.5	37155	
565.69	36097	
565.89	34786	
566.08	35241	
566.27	36975	
566.47	37903	
566.66	35983	
566.85	34859	
567.05	36835	
567.24	36336	
567.44	34907	
567.63	36407	
567.82	37380	
568.02	37124	
568.21	35069	
568.4	35471	
568.6	37458	
568.79	37187	
568.98	35134	
569.18	35812	
569.37	37634	
569.56	39463	
569.76	36412	
569.95	37364	
570.14	37679	
570.34	38145	
570.53	35776	
570.72	35900	
570.91	38657	
571.11	37499	
571.3	35951	
571.49	36943	
571.69	37710	
571.88	37118	
572.07	37089	
572.27	36695	
572.46	37302	
572.65	38250	
572.85	36150	
573.04	36777	
573.23	39020	
573.43	38129	
573.62	36302	
573.81	37076	
574	38655	
574.2	38504	
574.39	37322	
574.58	37471	
574.78	40447	
574.97	39703	
575.16	38348	
575.36	38750	
575.55	40383	
575.74	40111	
575.93	37700	
576.13	39122	
576.32	39389	
576.51	40451	
576.71	38276	
576.9	39677	
577.09	40729	
577.28	40084	
577.48	38601	
577.67	37858	
577.86	39875	
578.05	40337	
578.25	38670	
578.44	38521	
578.63	40038	
578.83	41573	
579.02	37977	
579.21	40047	
579.4	40298	
579.6	40270	
579.79	38711	
579.98	41307	
580.17	40823	
580.37	41185	
580.56	38363	
580.75	39488	
580.94	41596	
581.14	41163	
581.33	40048	
581.52	38553	
581.71	41115	
581.91	41471	
582.1	38765	
582.29	38877	
582.48	40656	
582.68	40772	
582.87	39772	
583.06	39320	
583.25	40925	
583.45	40963	
583.64	40374	
583.83	41194	
584.02	40395	
584.21	41006	
584.41	40111	
584.6	39640	
584.79	41161	
584.98	42200	
585.18	39019	
585.37	38832	
585.56	40353	
585.75	41422	
585.94	38751	
586.14	39601	
586.33	41334	
586.52	40553	
586.71	38941	
586.91	38628	
587.1	39126	
587.29	40356	
587.48	37666	
587.67	38153	
587.87	39834	
588.06	39660	
588.25	39135	
588.44	38021	
588.63	38923	
588.83	39588	
589.02	37026	
589.21	36671	
589.4	37642	
589.59	37780	
589.78	34741	
589.98	34836	
590.17	35842	
590.36	36412	
590.55	32830	
590.74	33118	
590.94	36584	
591.13	34884	
591.32	32754	
591.51	32399	
591.7	35573	
591.89	35086	
592.09	32984	
592.28	33891	
592.47	34605	
592.66	37018	
592.85	33336	
593.05	33857	
593.24	35233	
593.43	36458	
593.62	34131	
593.81	34400	
594	35398	
594.19	35590	
594.39	33738	
594.58	33512	
594.77	35691	
594.96	36020	
595.15	33221	
595.34	34125	
595.54	35555	
595.73	34256	
595.92	32185	
596.11	33231	
596.3	35554	
596.49	34284	
596.68	32814	
596.88	33522	
597.07	35042	
597.26	34080	
597.45	32202	
597.64	33886	
597.83	34355	
598.02	34893	
598.22	32441	
598.41	33184	
598.6	34493	
598.79	34055	
598.98	32290	
599.17	33481	
599.36	34379	
599.55	35527	
599.74	34375	
599.94	34369	
600.13	34738	
600.32	33479	
600.51	31868	
600.7	32146	
600.89	35205	
601.08	35462	
601.27	31793	
601.47	32783	
601.66	34491	
601.85	35018	
602.04	32475	
602.23	32426	
602.42	33491	
602.61	34153	
602.8	31892	
602.99	31606	
603.18	33740	
603.37	33934	
603.57	32160	
603.76	32797	
603.95	34516	
604.14	34342	
604.33	32009	
604.52	32285	
604.71	34110	
604.9	33627	
605.09	32812	
605.28	32616	
605.47	34775	
605.66	34055	
605.86	32600	
606.05	31857	
606.24	34239	
606.43	32790	
606.62	32230	
606.81	32698	
607	33953	
607.19	33503	
607.38	31158	
607.57	31471	
607.76	33079	
607.95	32491	
608.14	31826	
608.33	32490	
608.52	32799	
608.72	33858	
608.91	30890	
609.1	30829	
609.29	32904	
609.48	32043	
609.67	31513	
609.86	30342	
610.05	32013	
610.24	32441	
610.43	30530	
610.62	30053	
610.81	33525	
611	33450	
611.19	30359	
611.38	31142	
611.57	32750	
611.76	34054	
611.95	30203	
612.14	29935	
612.33	32583	
612.52	32043	
612.71	30604	
612.9	29812	
613.09	31546	
613.28	34004	
613.47	30111	
613.66	31492	
613.85	32567	
614.04	31982	
614.24	30415	
614.43	29608	
614.62	32828	
614.81	32503	
615	31071	
615.19	31217	
615.38	31778	
615.57	32575	
615.76	31188	
615.95	32062	
616.14	32711	
616.33	32572	
616.52	31063	
616.71	31539	
616.9	32748	
617.09	32888	
617.28	30754	
617.47	32172	
617.66	32094	
617.85	32077	
618.04	32221	
618.22	31625	
618.41	33082	
618.6	34201	
618.79	32012	
618.98	31763	
619.17	34760	
619.36	33094	
619.55	32299	
619.74	32277	
619.93	34144	
620.12	33610	
620.31	33118	
620.5	33322	
620.69	35246	
620.88	35639	
621.07	34255	
621.26	33533	
621.45	35015	
621.64	35121	
621.83	33705	
622.02	32905	
622.21	35321	
622.4	35163	
622.59	34322	
622.78	34232	
622.97	34752	
623.16	35817	
623.35	33959	
623.54	33021	
623.72	35169	
623.91	35237	
624.1	34158	
624.29	32821	
624.48	36538	
624.67	35477	
624.86	34362	
625.05	33316	
625.24	36471	
625.43	34850	
625.62	36166	
625.81	33499	
626	35813	
626.19	35478	
626.38	34553	
626.56	33746	
626.75	35321	
626.94	36327	
627.13	34241	
627.32	33057	
627.51	35831	
627.7	37349	
627.89	32856	
628.08	34423	
628.27	34787	
628.46	34707	
628.65	33185	
628.83	32940	
629.02	35362	
629.21	34801	
629.4	33936	
629.59	33943	
629.78	34962	
629.97	35683	
630.16	34118	
630.35	33318	
630.54	36173	
630.72	35894	
630.91	33455	
631.1	33902	
631.29	35378	
631.48	35579	
631.67	33745	
631.86	33267	
632.05	34805	
632.24	34886	
632.42	32866	
632.61	33365	
632.8	34623	
632.99	34791	
633.18	33877	
633.37	34060	
633.56	34962	
633.75	35089	
633.93	33558	
634.12	33427	
634.31	35904	
634.5	35747	
634.69	33406	
634.88	33624	
635.07	34710	
635.25	35314	
635.44	34115	
635.63	34456	
635.82	34363	
636.01	33851	
636.2	33529	
636.39	33139	
636.57	35461	
636.76	34814	
636.95	32667	
637.14	33948	
637.33	34589	
637.52	35715	
637.7	32399	
637.89	33335	
638.08	34554	
638.27	35735	
638.46	33325	
638.65	33481	
638.83	35231	
639.02	33770	
639.21	32909	
639.4	33441	
639.59	33925	
639.78	33370	
639.96	31584	
640.15	31587	
640.34	33586	
640.53	33698	
640.72	31170	
640.91	31262	
641.09	32533	
641.28	33877	
641.47	31195	
641.66	32221	
641.85	33405	
642.03	32982	
642.22	31608	
642.41	31025	
642.6	32451	
642.79	31412	
642.97	30199	
643.16	31524	
643.35	32343	
643.54	31483	
643.73	30326	
643.91	31069	
644.1	31135	
644.29	32374	
644.48	29806	
644.67	29969	
644.85	30964	
645.04	31260	
645.23	28930	
645.42	29100	
645.6	29960	
645.79	31075	
645.98	28607	
646.17	27208	
646.36	28977	
646.54	29390	
646.73	28233	
646.92	27325	
647.11	28734	
647.29	29884	
647.48	27357	
647.67	26828	
647.86	29733	
648.05	30165	
648.23	27442	
648.42	28758	
648.61	29152	
648.8	29148	
648.98	26625	
649.17	27258	
649.36	28298	
649.55	28090	
649.73	26657	
649.92	27770	
650.11	28625	
650.3	28655	
650.48	26697	
650.67	26673	
650.86	28815	
651.05	27604	
651.23	26660	
651.42	26447	
651.61	27965	
651.79	27742	
651.98	26565	
652.17	26185	
652.36	28014	
652.54	27000	
652.73	25982	
652.92	25695	
653.11	27935	
653.29	27859	
653.48	24823	
653.67	26067	
653.85	27421	
654.04	28343	
654.23	25680	
654.42	24865	
654.6	25658	
654.79	26359	
654.98	23382	
655.16	23807	
655.35	24450	
655.54	24341	
655.73	22806	
655.91	22683	
656.1	25447	
656.29	24475	
656.47	22804	
656.66	24658	
656.85	25071	
657.03	25599	
657.22	24012	
657.41	24391	
657.59	25772	
657.78	25854	
657.97	24029	
658.16	24883	
658.34	26542	
658.53	27076	
658.72	25790	
658.9	26102	
659.09	26052	
659.28	26194	
659.46	24617	
659.65	24480	
659.84	25891	
660.02	26516	
660.21	24278	
660.4	24379	
660.58	26776	
660.77	26170	
660.96	24844	
661.14	23953	
661.33	27332	
661.52	26884	
661.7	23814	
661.89	27619	
662.08	25395	
662.26	25231	
662.45	23832	
662.64	23954	
662.82	26074	
663.01	25388	
663.2	23906	
663.38	24970	
663.57	25809	
663.75	25632	
663.94	24320	
664.13	25403	
664.31	25155	
664.5	25761	
664.69	24283	
664.87	24946	
665.06	24830	
665.25	25719	
665.43	25301	
665.62	25106	
665.8	25933	
665.99	24939	
666.18	23903	
666.36	24037	
666.55	25604	
666.74	25662	
666.92	23386	
667.11	25071	
667.29	25019	
667.48	25631	
667.67	24631	
667.85	23553	
668.04	25007	
668.22	25111	
668.41	23686	
668.6	23804	
668.78	24565	
668.97	24832	
669.15	23966	
669.34	23022	
669.53	24640	
669.71	24993	
669.9	22855	
670.08	23796	
670.27	24618	
670.46	24929	
670.64	23769	
670.83	24204	
671.01	24333	
671.2	25064	
671.38	23287	
671.57	22879	
671.76	25550	
671.94	26200	
672.13	22824	
672.31	23870	
672.5	25295	
672.69	24637	
672.87	23021	
673.06	23496	
673.24	25209	
673.43	24608	
673.61	23642	
673.8	23212	
673.98	25000	
674.17	25391	
674.36	24012	
674.54	23888	
674.73	24685	
674.91	24947	
675.1	23610	
675.28	22844	
675.47	24675	
675.65	25204	
675.84	23173	
676.03	23715	
676.21	24361	
676.4	23834	
676.58	23855	
676.77	23973	
676.95	25673	
677.14	24108	
677.32	22755	
677.51	22626	
677.69	24927	
677.88	23913	
678.06	22650	
678.25	22756	
678.44	24744	
678.62	24107	
678.81	22290	
678.99	23630	
679.18	25293	
679.36	25107	
679.55	23203	
679.73	23826	
679.92	24768	
680.1	24288	
680.29	24464	
680.47	23163	
680.66	24040	
680.84	24836	
681.03	22237	
681.21	23358	
681.4	24153	
681.58	23854	
681.77	22477	
681.95	22662	
682.14	24888	
682.32	25273	
682.51	23545	
682.69	22095	
682.88	23742	
683.06	24265	
683.25	22971	
683.43	23388	
683.62	24020	
683.8	24456	
683.99	23461	
684.17	22771	
684.36	24879	
684.54	23207	
684.73	20804	
684.91	21014	
685.1	22545	
685.28	21685	
685.46	20625	
685.65	20535	
685.83	21814	
686.02	21176	
686.2	19917	
686.39	20157	
686.57	21478	
686.76	23324	
686.94	20215	
687.13	20702	
687.31	22463	
687.5	22296	
687.68	20241	
687.86	21569	
688.05	23879	
688.23	21802	
688.42	21760	
688.6	21229	
688.79	22302	
688.97	22239	
689.16	21677	
689.34	20306	
689.52	23404	
689.71	23382	
689.89	22069	
690.08	21125	
690.26	22838	
690.45	22764	
690.63	21893	
690.81	21566	
691	22324	
691.18	22614	
691.37	21356	
691.55	23478	
691.74	22136	
691.92	24116	
692.1	21069	
692.29	20350	
692.47	22132	
692.66	21469	
692.84	20756	
693.02	21102	
693.21	21941	
693.39	22220	
693.58	21841	
693.76	21095	
693.94	23741	
694.13	23812	
694.31	21500	
694.5	22608	
694.68	22814	
694.86	23206	
695.05	22371	
695.23	22549	
695.42	23974	
695.6	26386	
695.78	22889	
695.97	21678	
696.15	23851	
696.34	23141	
696.52	21367	
696.7	22262	
696.89	23051	
697.07	22584	
697.25	21701	
697.44	23468	
697.62	22956	
697.81	23216	
697.99	21277	
698.17	21936	
698.36	21829	
698.54	22747	
698.72	21687	
698.91	20449	
699.09	22121	
699.28	21949	
699.46	21072	
699.64	20824	
699.83	21865	
700.01	22809	
700.19	21649	
700.38	20059	
700.56	23266	
700.74	22033	
700.93	20612	
701.11	21566	
701.29	22602	
701.48	24031	
701.66	20962	
701.84	21136	
702.03	22474	
702.21	23368	
702.39	20520	
702.58	21447	
702.76	22889	
702.94	22887	
703.13	20576	
703.31	23272	
703.49	22066	
703.68	23679	
703.86	20596	
704.04	21888	
704.23	22450	
704.41	22891	
704.59	20842	
704.78	21791	
704.96	23523	
705.14	22823	
705.33	20674	
705.51	21178	
705.69	22138	
705.87	22925	
706.06	21571	
706.24	20338	
706.42	22448	
706.61	22950	
706.79	21252	
706.97	20282	
707.16	21660	
707.34	22328	
707.52	21132	
707.7	20443	
707.89	21876	
708.07	21438	
708.25	21115	
708.44	21500	
708.62	21594	
708.8	22450	
708.98	21386	
709.17	20388	
709.35	21893	
709.53	21597	
709.72	19903	
709.9	20166	
710.08	21814	
710.26	22025	
710.45	21081	
710.63	19895	
710.81	21446	
710.99	21419	
711.18	20353	
711.36	19678	
711.54	20935	
711.72	21552	
711.91	19411	
712.09	18739	
712.27	20619	
712.45	21650	
712.64	19172	
712.82	18002	
713	19471	
713.18	19389	
713.37	17701	
713.55	18567	
713.73	19813	
713.91	17735	
714.1	16840	
714.28	15994	
714.46	17900	
714.64	16586	
714.83	14282	
715.01	14793	
715.19	15691	
715.37	14992	
715.55	13867	
715.74	13989	
715.92	16320	
716.1	14124	
716.28	15121	
716.47	13832	
716.65	14429	
716.83	14668	
717.01	13632	
717.19	13680	
717.38	16847	
717.56	14343	
717.74	14105	
717.92	13376	
718.1	15776	
718.29	15272	
718.47	13400	
718.65	14304	
718.83	16631	
719.01	16874	
719.2	14065	
719.38	15433	
719.56	16660	
719.74	18297	
719.92	14761	
720.11	15525	
720.29	16184	
720.47	15117	
720.65	13476	
720.83	14055	
721.02	14640	
721.2	14404	
721.38	13644	
721.56	12867	
721.74	13638	
721.92	13790	
722.11	13941	
722.29	13715	
722.47	15091	
722.65	14174	
722.83	12762	
723.01	13396	
723.2	14158	
723.38	14467	
723.56	12052	
723.74	13315	
723.92	13542	
724.1	14880	
724.29	12520	
724.47	13700	
724.65	13673	
724.83	13504	
725.01	12214	
725.19	13063	
725.37	13414	
725.56	13549	
725.74	11942	
725.92	12386	
726.1	13276	
726.28	13742	
726.46	12594	
726.64	12235	
726.83	13478	
727.01	13895	
727.19	11849	
727.37	12744	
727.55	13645	
727.73	14143	
727.91	11781	
728.09	11589	
728.28	14186	
728.46	14947	
728.64	12988	
728.82	12800	
729	15539	
729.18	14769	
729.36	12310	
729.54	14670	
729.72	16083	
729.91	14364	
730.09	14513	
730.27	13402	
730.45	14286	
730.63	15112	
730.81	13989	
730.99	13050	
731.17	15683	
731.35	14147	
731.53	13525	
731.71	13125	
731.9	15246	
732.08	15301	
732.26	13255	
732.44	12839	
732.62	15308	
732.8	14837	
732.98	13472	
733.16	12510	
733.34	14605	
733.52	13207	
733.7	12777	
733.88	13269	
734.07	14265	
734.25	14086	
734.43	12273	
734.61	13976	
734.79	15793	
734.97	13913	
735.15	12355	
735.33	12652	
735.51	14055	
735.69	13749	
735.87	13762	
736.05	12816	
736.23	13915	
736.41	13679	
736.59	12654	
736.77	12624	
736.95	14364	
737.13	13798	
737.32	12037	
737.5	12396	
737.68	14955	
737.86	13425	
738.04	11738	
738.22	13681	
738.4	13011	
738.58	13252	
738.76	12138	
738.94	11182	
739.12	13224	
739.3	13074	
739.48	13095	
739.66	12726	
739.84	13489	
740.02	13482	
740.2	11271	
740.38	11632	
740.56	13938	
740.74	12525	
740.92	12273	
741.1	11997	
741.28	12912	
741.46	12748	
741.64	11529	
741.82	11890	
742	12905	
742.18	12818	
742.36	11646	
742.54	11173	
742.72	13368	
742.9	12024	
743.08	11860	
743.26	10658	
743.44	13419	
743.62	13280	
743.8	11938	
743.98	10883	
744.16	12757	
744.34	12454	
744.52	11742	
744.7	11639	
744.88	12845	
745.06	12209	
745.24	11538	
745.42	11562	
745.6	12775	
745.78	12417	
745.96	9999.5	
746.14	10395	
746.32	13331	
746.5	12469	
746.68	10916	
746.86	10202	
747.03	12973	
747.21	11021	
747.39	10731	
747.57	10135	
747.75	11931	
747.93	12233	
748.11	10194	
748.29	9925.8	
748.47	13586	
748.65	11574	
748.83	10891	
749.01	10584	
749.19	12065	
749.37	11133	
749.55	10207	
749.73	10398	
749.91	11553	
750.09	11147	
750.26	10376	
750.44	9828.2	
750.62	11674	
750.8	11521	
750.98	9598.1	
751.16	9972.2	
751.34	11551	
751.52	10853	
751.7	10765	
751.88	9495.7	
752.06	11934	
752.24	11751	
752.42	9315.5	
752.59	9735.4	
752.77	11160	
752.95	12630	
753.13	10600	
753.31	9855.5	
753.49	10951	
753.67	11343	
753.85	9929.9	
754.03	9490.3	
754.21	11353	
754.38	11773	
754.56	9295	
754.74	8259.5	
754.92	10206	
755.1	10768	
755.28	7818.5	
755.46	7434.8	
755.64	10589	
755.82	10312	
755.99	6615.6	
756.17	6524.8	
756.35	6822.5	
756.53	8385.1	
756.71	4915.1	
756.89	5947.3	
757.07	7920.2	
757.25	7090.8	
757.42	6874.3	
757.6	7978.2	
757.78	8647.2	
757.96	7742	
758.14	7027.3	
758.32	6551.5	
758.5	7240.3	
758.67	7949.5	
758.85	6706.4	
759.03	6771.9	
759.21	8082.6	
759.39	7506.5	
759.57	6164.4	
759.75	7427.3	
759.92	8966	
760.1	8192.6	
760.28	8084	
760.46	8396.7	
760.64	8112	
760.82	7950.9	
760.99	8208.9	
761.17	7261.4	
761.35	9200.8	
761.53	8261.5	
761.71	7555	
761.89	8340	
762.06	9309.4	
762.24	8866.3	
762.42	7787.7	
762.6	7617.1	
762.78	8960.5	
762.96	9764.7	
763.13	8353	
763.31	8071.7	
763.49	9839.8	
763.67	9058.8	
763.85	8992.6	
764.02	9558.6	
764.2	10160	
764.38	9330.5	
764.56	7821.9	
764.74	8714.8	
764.91	10312	
765.09	9072.5	
765.27	7531.1	
765.45	7301.7	
765.63	10233	
765.8	10030	
765.98	6810.2	
766.16	7132.4	
766.34	8406.2	
766.52	8134.5	
766.69	8188.5	
766.87	6967.9	
767.05	8758.5	
767.23	9442.5	
767.41	7096.2	
767.58	7371.3	
767.76	9193.3	
767.94	9278.7	
768.12	7097.6	
768.29	7997.3	
768.47	8539.3	
768.65	9362.6	
768.83	6687.3	
769	7830.1	
769.18	8041.7	
769.36	8790.6	
769.54	7801.4	
769.72	6545.3	
769.89	8959.9	
770.07	9128.5	
770.25	6786.3	
770.43	8176.9	
770.6	9636.4	
770.78	9975.7	
770.96	6895.5	
771.14	7558.4	
771.31	8594	
771.49	7943.4	
771.67	5851.7	
771.85	6152.8	
772.02	7038.9	
772.2	7850.5	
772.38	6939.9	
772.55	6377.4	
772.73	8098.4	
772.91	7798	
773.09	6646.3	
773.26	6660.7	
773.44	7906.5	
773.62	7567.2	
773.8	5994.4	
773.97	5761.6	
774.15	7918.1	
774.33	7460.1	
774.5	5782.8	
774.68	6265.4	
774.86	8041.7	
775.04	7352.9	
775.21	5758.2	
775.39	5839.4	
775.57	7632.8	
775.74	8101.8	
775.92	5591	
776.1	5504.9	
776.27	7475.8	
776.45	8882	
776.63	5649	
776.81	5184.8	
776.98	7071.6	
777.16	8219.2	
777.34	5775.3	
777.51	6143.2	
777.69	6974.7	
777.87	6706.4	
778.04	5718.6	
778.22	6358.9	
778.4	6705.7	
778.57	7448.5	
778.75	4894.6	
778.93	5148.6	
779.1	6424.5	
779.28	6228.6	
779.46	4876.9	
779.64	5336.3	
779.81	7397.9	
779.99	8378.9	
780.17	6186.2	
780.34	6261.3	
780.52	6894.8	
780.69	6996.5	
780.87	5683.1	
781.05	5103.5	
781.22	6811.5	
781.4	6860.7	
781.58	5223	
781.75	4368.3	
781.93	6795.2	
782.11	6111.1	
782.28	6091.3	
782.46	5122	
782.64	5960.3	
782.81	6889.4	
782.99	5179.3	
783.17	5171.8	
783.34	6792.4	
783.52	5928.9	
783.69	5345.9	
783.87	6167.8	
784.05	5920	
784.22	5991	
784.4	6080.4	
784.58	5398.4	
784.75	6930.3	
784.93	5919.3	
785.1	4990.2	
785.28	5621.7	
785.46	6673	
785.63	5846.3	
785.81	4853	
785.99	4743.1	
786.16	5988.3	
786.34	6451.1	
786.51	4738.3	
786.69	5141.1	
786.87	5514.5	
787.04	6099.5	
787.22	4559.5	
787.39	5586.2	
787.57	5760.3	
787.75	7010.9	
787.92	5814.2	
788.1	5651	
788.27	5809.4	
788.45	5592.3	
788.63	5372.5	
788.8	3984	
788.98	6287.9	
789.15	5396.4	
789.33	4134.2	
789.5	4841.4	
789.68	6773.3	
789.86	6868.9	
790.03	5241.4	
790.21	4619.5	
790.38	6610.8	
790.56	5812.8	
790.73	4477.5	
790.91	4492.6	
791.09	5668.8	
791.26	6505.7	
791.44	4694.6	
791.61	4127.3	
791.79	5561.6	
791.96	5720	
792.14	4202.4	
792.32	3743.7	
792.49	5563	
792.67	5787.6	
792.84	4317.8	
793.02	4048.8	
793.19	6094.1	
793.37	6920.8	
793.54	3786	
793.72	4130.1	
793.89	7083.9	
794.07	5603.2	
794.25	4629.1	
794.42	3808.5	
794.6	6736.5	
794.77	6358.3	
794.95	4943.1	
795.12	4395.6	
795.3	5534.3	
795.47	6277.7	
795.65	4828.4	
795.82	4677.6	
796	5324	
796.17	7368.6	
796.35	4535.6	
796.52	5261.9	
796.7	6124.8	
796.87	6231.3	
797.05	5473.5	
797.22	5398.4	
797.4	6164.4	
797.57	7288	
797.75	4590.2	
797.92	4286.4	
798.1	6536.4	
798.27	5488.6	
798.45	3732.1	
798.62	4012.7	
798.8	5844.2	
798.97	6319.3	
799.15	4889.9	
799.32	4635.2	
799.5	5061.2	
799.67	5894.1	
799.85	4935.6	
800.02	3689.8	
800.2	5405.3	
800.37	5814.9	
800.55	5150.6	
800.72	4323.3	
800.9	6260	
801.07	6787	
801.25	5683.1	
801.42	4688.5	
801.6	6287.9	
801.77	6037.4	
801.95	4356	
802.12	4197.7	
802.29	5943.9	
802.47	5959.6	
802.64	4640	
802.82	3541.6	
802.99	5410.7	
803.17	6451.1	
803.34	4536.3	
803.52	4061.1	
803.69	7165.2	
803.87	5146.5	
804.04	4468.7	
804.21	4583.4	
804.39	6531.7	
804.56	5585.5	
804.74	3838.6	
804.91	4683	
805.09	5418.9	
805.26	5524.7	
805.44	3868.6	
805.61	4287.8	
805.78	6090.7	
805.96	6165.8	
806.13	4644.1	
806.31	5001.1	
806.48	4883.7	
806.66	5489.2	
806.83	4586.8	
807	4480.3	
807.18	5326.1	
807.35	5774.6	
807.53	4497.3	
807.7	3575.8	
807.87	6656.6	
808.05	5348.6	
808.22	4897.4	
808.4	3556.6	
808.57	5446.2	
808.74	4970.4	
808.92	4076.1	
809.09	5201.2	
809.27	5205.9	
809.44	5896.1	
809.61	3554.6	
809.79	4001.7	
809.96	6582.2	
810.14	6133	
810.31	3539.6	
810.48	4205.8	
810.66	5382.7	
810.83	6315.3	
811.01	4012	
811.18	4543.8	
811.35	6123.4	
811.53	4691.9	
811.7	4943.8	
811.87	4521.2	
812.05	5341.1	
812.22	5187.5	
812.39	3946.4	
812.57	3812.6	
812.74	5356.8	
812.92	7096.2	
813.09	4246.8	
813.26	4666	
813.44	6816.3	
813.61	5304.9	
813.78	3560.7	
813.96	4777.2	
814.13	5323.4	
814.3	4975.2	
814.48	5133.6	
814.65	4276.8	
814.82	6616.3	
815	5178.6	
815.17	4344.4	
815.34	5345.9	
815.52	5246.9	
815.69	5268.1	
815.87	4379.9	
816.04	4249.5	
816.21	5412.1	
816.38	4692.6	
816.56	4179.9	
816.73	3887.7	
816.9	6689.3	
817.08	6201.9	
817.25	3887	
817.42	4961.5	
817.6	4786.8	
817.77	5346.6	
817.94	4448.2	
818.12	3854.3	
818.29	5055.1	
818.46	8023.9	
818.64	4033.1	
818.81	3810.6	
818.98	4971.1	
819.16	7268.2	
819.33	4666.6	
819.5	4360.8	
819.67	5728.9	
819.85	6420.4	
820.02	4248.2	
820.19	4541	
820.37	5499.5	
820.54	5132.2	
820.71	4420.2	
820.88	5524.7	
821.06	5567.7	
821.23	5132.2	
821.4	4481	
821.58	4447.5	
821.75	6117.3	
821.92	5416.2	
822.09	3525.9	
822.27	3678.8	
822.44	5327.4	
822.61	5206.6	
822.79	3546.4	
822.96	6826.6	
823.13	5882.4	
823.3	5006.6	
823.48	4065.9	
823.65	3736.9	
823.82	6001.9	
823.99	4865.3	
824.17	5195.7	
824.34	3781.2	
824.51	7008.1	
824.68	5349.3	
824.86	3917.1	
825.03	4367	
825.2	5361.6	
825.37	6429.9	
825.55	3885.7	
825.72	4350.6	
825.89	7086.7	
826.06	6599.9	
826.24	4271.4	
826.41	4323.3	
826.58	6410.8	
826.75	5575.9	
826.92	3329.3	
827.1	3744.4	
827.27	8848.6	
827.44	7045	
827.61	3994.2	
827.79	4914.4	
827.96	4959.5	
828.13	5437.4	
828.3	4186.7	
828.47	3533.4	
828.65	5528.2	
828.82	5464.7	
828.99	5434.6	
829.16	4771.1	
829.34	5940.5	
829.51	5723.4	
829.68	4369.7	
829.85	4524	
830.02	6211.5	
830.2	5959.6	
830.37	3360.7	
830.54	5292.6	
830.71	6767.9	
830.88	5274.2	
831.05	3480.2	
831.23	3934.8	
831.4	6497.5	
831.57	7305.8	
831.74	4059.1	
831.91	3535.5	
832.09	5552.7	
832.26	5920	
832.43	4190.8	
832.6	4710.3	
832.77	5610.8	
832.94	6293.4	
833.12	3297.2	
833.29	4162.2	
833.46	5740.5	
833.63	7654.6	
833.8	4552.6	
833.97	4209.9	
834.15	5955.5	
834.32	5681.1	
834.49	4302.8	
834.66	4412.7	
834.83	6174.6	
835	5052.3	
835.17	3930.1	
835.35	3989.4	
835.52	5791.7	
835.69	5692.7	
835.86	4270.7	
836.03	3515.7	
836.2	5863.3	
836.37	5515.2	
836.55	4093.2	
836.72	3880.2	
836.89	5387.5	
837.06	5969.1	
837.23	4257.7	
837.4	4695.3	
837.57	6718	
837.75	7570.7	
837.92	3816.7	
838.09	4027	
838.26	5455.1	
838.43	6242.2	
838.6	4367.6	
838.77	3859.1	
838.94	7152.9	
839.11	6814.3	
839.29	4214.7	
839.46	3293.8	
839.63	5856.5	
839.8	5567.1	
839.97	4044.1	
840.14	4080.2	
840.31	5636.7	
840.48	5928.9	
840.65	3356.6	
840.82	3942.3	
841	5831.2	
841.17	5871.5	
841.34	3728	
841.51	3758.7	
841.68	5802.6	
841.85	5646.2	
842.02	3881.6	
842.19	3166.2	
842.36	5664	
842.53	5657.2	
842.7	3663.8	
842.87	4569.7	
843.05	7456.7	
843.22	5540.4	
843.39	3495.2	
843.56	3820.8	
843.73	5322.7	
843.9	5913.2	
844.07	6104.3	
844.24	5048.9	
844.41	8766	
844.58	5096.7	
844.75	3565.5	
844.92	3926	
845.09	5877.7	
845.26	5857.9	
845.43	3685.7	
845.6	3861.8	
845.77	5905	
845.94	5552	
846.12	4055	
846.29	4238.6	
846.46	6105	
846.63	5890.6	
846.8	3681.6	
846.97	4404.5	
847.14	6375.3	
847.31	5795.1	
847.48	4142.4	
847.65	4580.6	
847.82	6124.8	
847.99	6120	
848.16	4957.4	
848.33	4521.9	
848.5	5369.1	
848.67	6418.3	
848.84	3668.6	
849.01	3824.2	
849.18	5240.8	
849.35	4862.6	
849.52	4594.3	
849.69	3659	
849.86	6096.1	
850.03	6347.3	
850.2	3709.6	
850.37	4536.9	
850.54	6285.9	
850.71	5538.4	
850.88	4429.1	
851.05	3577.8	
851.22	5775.3	
851.39	6485.2	
851.56	3482.2	
851.73	4224.3	
851.9	5141.8	
852.07	6091.3	
852.24	4087.1	
852.41	3655.6	
852.58	5666.7	
852.75	5219.6	
852.92	4071.4	
853.09	3568.2	
853.26	5481.7	
853.43	6339.8	
853.6	3614	
853.77	3112.9	
853.94	6434.7	
854.11	5835.3	
854.28	5456.5	
854.44	4017.4	
854.61	6749.4	
854.78	6161.7	
854.95	3601.7	
855.12	4647.5	
855.29	4660.5	
855.46	6549.4	
855.63	3609.9	
855.8	5094.7	
855.97	5419.6	
856.14	6193.7	
856.31	5183.4	
856.48	4014	
856.65	5358.2	
856.82	5109	
856.99	3502	
857.16	3941.7	
857.33	7228	
857.49	5464	
857.66	3948.5	
857.83	4255.7	
858	5411.4	
858.17	5689.9	
858.34	3482.9	
858.51	3639.9	
858.68	6619	
858.85	6701.6	
859.02	4301.4	
859.19	4573.1	
859.36	5138.4	
859.52	5177.9	
859.69	3685	
859.86	4284.4	
860.03	5184.8	
860.2	6412.9	
860.37	3293.8	
860.54	3687	
860.71	6046.3	
860.88	6543.3	
861.05	4108.2	
861.21	4601.8	
861.38	6518	
861.55	5045.5	
861.72	3320.4	
861.89	4106.9	
862.06	6159.6	
862.23	6717.3	
862.4	3566.9	
862.56	3802.4	
862.73	6016.2	
862.9	5618.3	
863.07	4259.8	
863.24	3287	
863.41	5036	
863.58	5124.7	
863.75	3699.3	
863.91	4250.2	
864.08	6477	
864.25	6034.7	
864.42	4573.8	
864.59	5096	
864.76	6828.6	
864.93	5168.4	
865.09	3516.4	
865.26	3870	
865.43	6327.5	
865.6	6794.5	
865.77	3183.2	
865.94	3648.1	
866.1	6461.3	
866.27	6163	
866.44	5503.6	
866.61	3450.8	
866.78	5550.7	
866.95	5993.7	
867.11	3551.2	
867.28	3231	
867.45	6208.1	
867.62	5196.4	
867.79	4208.6	
867.96	3558.7	
868.12	5152	
868.29	6136.4	
868.46	3172.3	
868.63	4861.2	
868.8	6330.3	
868.97	6060.6	
869.13	3799	
869.3	3812	
869.47	5946.6	
869.64	6181.5	
869.81	3685.7	
869.97	3653.6	
870.14	5877	
870.31	6533.7	
870.48	3535.5	
870.65	4573.1	
870.81	5382.7	
870.98	5395	
871.15	4091.8	
871.32	3839.9	
871.48	5936.4	
871.65	6571.2	
871.82	3618.8	
871.99	4065.9	
872.16	7110.5	
872.32	6406.7	
872.49	3616.7	
872.66	3684.3	
872.83	6113.2	
872.99	5330.2	
873.16	4218.8	
873.33	3586.7	
873.5	5653.8	
873.67	5679.7	
873.83	3839.3	
874	4920.6	
874.17	5735.7	
874.34	6922.1	
874.5	4730.1	
874.67	4562.9	
874.84	6485.9	
875.01	5151.3	
875.17	5165.7	
875.34	3603.1	
875.51	5754.1	
875.68	6918.7	
875.84	4352.6	
876.01	5370.5	
876.18	6014.2	
876.34	5933.6	
876.51	3676.8	
876.68	3570.3	
876.85	5520	
877.01	6372.6	
877.18	5259.9	
877.35	3534.8	
877.52	5642.8	
877.68	5010.7	
877.85	3528	
878.02	3534.8	
878.18	5541.8	
878.35	5319.9	
878.52	2925.9	
878.69	4044.1	
878.85	6063.4	
879.02	6047.7	
879.19	5133.6	
879.35	3929.4	
879.52	5978.7	
879.69	6315.3	
879.86	3121.1	
880.02	4061.8	
880.19	5554.8	
880.36	6948.8	
880.52	4181.3	
880.69	4402.5	
880.86	6096.1	
881.02	6278.4	
881.19	4004.5	
881.36	3971	
881.52	6080.4	
881.69	5295.4	
881.86	3897.3	
882.02	3809.9	
882.19	6290	
882.36	7473.7	
882.52	3731.4	
882.69	5166.3	
882.86	5776.6	
883.02	5668.8	
883.19	4459.1	
883.36	4147.8	
883.52	6116.6	
883.69	7099.6	
883.86	3754.6	
884.02	3240.6	
884.19	6096.8	
884.36	5571.2	
884.52	4138.3	
884.69	3857	
884.86	5334.3	
885.02	6741.9	
885.19	4052.2	
885.36	4242.7	
885.52	5606.7	
885.69	5744.6	
885.86	5274.2	
886.02	4634.6	
886.19	6095.4	
886.35	5582.8	
886.52	3962.1	
886.69	5059.2	
886.85	5160.9	
887.02	6532.3	
887.19	6532.3	
887.35	6532.3	
887.52	6532.3	
887.68	6532.3	
887.85	6532.3	
888.02	6532.3	
888.18	6532.3	
888.35	6532.3	
888.51	6532.3	
888.68	6532.3	
888.85	6532.3	
889.01	6532.3	
889.18	6532.3	
889.35	6532.3	
889.51	6532.3	
889.68	6532.3	
889.84	6532.3	
890.01	6532.3	
890.17	6532.3	
890.34	6532.3	
890.51	6532.3	
890.67	6532.3	
890.84	6532.3	
891	6532.3	
891.17	6532.3	
891.34	6532.3	
891.5	6532.3	
891.67	6532.3	
891.83	6532.3	
892	6532.3	
892.16	6532.3	
892.33	6532.3	
892.5	6532.3	
892.66	6532.3	
892.83	6532.3	
892.99	6532.3	
893.16	6532.3	
893.32	6532.3	
893.49	6532.3	
893.65	6532.3	
893.82	6532.3	
893.99	6532.3	
894.15	6532.3	
894.32	6532.3	
894.48	6532.3	
894.65	6532.3	
894.81	6532.3	
894.98	6532.3	
895.14	6532.3	
895.31	6532.3	
895.47	6532.3	
895.64	6532.3	
895.81	6532.3	
895.97	6532.3	
896.14	6532.3	
896.3	6532.3	
896.47	6532.3	
896.63	6532.3	
896.8	6532.3	
896.96	6532.3	
897.13	6532.3	
897.29	6532.3	
897.46	6532.3	
897.62	6532.3	
897.79	6532.3	
897.95	6532.3	
898.12	6532.3	
898.28	6532.3	
898.45	6532.3	
898.61	6532.3	
898.78	6532.3	
898.94	6532.3	
899.11	6532.3	
899.27	6532.3	
899.44	6532.3	
899.6	6532.3	
899.77	6532.3	
899.93	6532.3	
900.1	6532.3	
900.26	6532.3	
900.43	6532.3	
900.59	6532.3	
900.76	6532.3	
900.92	6532.3	
901.09	6532.3	
901.25	6532.3	
901.42	6532.3	
901.58	6532.3	
901.75	6532.3	
901.91	6532.3	
902.07	6532.3	
902.24	6532.3	
902.4	6532.3	
902.57	6532.3	
902.73	6532.3	
902.9	6532.3	
903.06	6532.3	
903.23	6532.3	
903.39	6532.3	
903.56	6532.3	
903.72	6532.3	
903.88	6532.3	
904.05	6532.3	
904.21	6532.3	
904.38	6532.3	
904.54	6532.3	
904.71	6532.3	
904.87	6532.3	
905.03	6532.3	
905.2	6532.3	
905.36	6532.3	
905.53	6532.3	
905.69	6532.3	
905.86	6532.3	
906.02	6532.3	
906.18	6532.3	
906.35	6532.3	
906.51	6532.3	
906.68	6532.3	
906.84	6532.3	
907.01	6532.3	
907.17	6532.3	
907.33	6532.3	
907.5	6532.3	
907.66	6532.3	
907.83	6532.3	
907.99	6532.3	
908.15	6532.3	
908.32	6532.3	
908.48	6532.3	
908.65	6532.3	
908.81	6532.3	
908.97	6532.3	
909.14	6532.3	
909.3	6532.3	
909.47	6532.3	
909.63	6532.3	
909.79	6532.3	
909.96	6532.3	
910.12	6532.3	
910.28	6532.3	
910.45	6532.3	
910.61	6532.3	
910.78	6532.3	
910.94	6532.3	
911.1	6532.3	
911.27	6532.3	
911.43	6532.3	
911.59	6532.3	
911.76	6532.3	
911.92	6532.3	
912.08	6532.3	
912.25	6532.3	
912.41	6532.3	
912.57	6532.3	
912.74	6532.3	
912.9	6532.3	
913.07	6532.3	
913.23	6532.3	
913.39	6532.3	
913.56	6532.3	
913.72	6532.3	
913.88	6532.3	
914.05	6532.3	
914.21	6532.3	
914.37	6532.3	
914.54	6532.3	
914.7	6532.3	
914.86	6532.3	
915.03	6532.3	
915.19	6532.3	
