Wavelength	Intensities	
nm	a.u.	
179.22	1632.4	
179.44	1632.6	
179.65	1632.2	
179.86	1632.9	
180.08	1616.5	
180.29	3607.8	
180.51	2864.4	
180.72	4747.9	
180.94	5270.8	
181.15	2594.1	
181.37	2538.1	
181.58	4549.9	
181.79	4744.5	
182.01	2706	
182.22	2765.4	
182.44	4797	
182.65	4144.4	
182.87	3359.4	
183.08	3013.9	
183.29	5014.8	
183.51	4229.1	
183.72	2748.4	
183.94	3807.2	
184.15	4556	
184.37	4454.3	
184.58	2539.5	
184.79	3189.4	
185.01	4313.7	
185.22	4835.9	
185.44	3308.2	
185.65	2912.9	
185.86	4554	
186.08	4172.4	
186.29	2475.3	
186.51	2614.6	
186.72	4345.8	
186.94	4872.1	
187.15	2931.3	
187.36	2979.8	
187.58	5997.8	
187.79	4622.3	
188.01	3122.5	
188.22	4547.9	
188.43	5302.2	
188.65	4713.7	
188.86	2650.8	
189.08	3081.5	
189.29	4335.5	
189.5	4361.5	
189.72	2824.8	
189.93	2852.1	
190.15	4893.3	
190.36	5548.6	
190.57	3044	
190.79	2960.7	
191	4842.8	
191.22	4863.2	
191.43	3070.6	
191.64	2636.4	
191.86	5034.6	
192.07	4887.1	
192.29	2714.9	
192.5	2748.4	
192.71	4911.7	
192.93	4360.1	
193.14	2783.9	
193.35	2832.3	
193.57	4281.6	
193.78	4900.1	
194	2338.8	
194.21	2760.7	
194.42	4255.7	
194.64	4517.1	
194.85	2975.7	
195.07	3412.6	
195.28	4474.8	
195.49	4058.4	
195.71	3593.5	
195.92	2658.9	
196.13	4618.2	
196.35	4703.5	
196.56	3754.6	
196.78	3005.7	
196.99	5549.3	
197.2	5214.8	
197.42	3307.5	
197.63	3044.6	
197.84	4196.3	
198.06	4631.8	
198.27	2807.1	
198.48	3543	
198.7	4353.3	
198.91	4556.7	
199.13	3034.4	
199.34	3007.1	
199.55	4882.4	
199.77	3988.1	
199.98	2733.4	
200.19	3074.7	
200.41	4474.8	
200.62	4249.5	
200.83	3150.5	
201.05	3304.1	
201.26	4459.1	
201.47	4302.1	
201.69	2739.5	
201.9	2641.9	
202.11	4558.1	
202.33	5160.9	
202.54	2858.3	
202.76	3127.9	
202.97	4561.5	
203.18	4657.1	
203.4	3125.2	
203.61	3170.9	
203.82	4575.2	
204.04	4310.3	
204.25	3017.3	
204.46	2981.2	
204.68	4501.4	
204.89	4635.2	
205.1	2945	
205.32	2672.6	
205.53	4733.5	
205.74	4848.9	
205.96	2337.4	
206.17	3057.6	
206.38	4741	
206.6	4786.8	
206.81	3362.8	
207.02	2863.1	
207.24	4626.4	
207.45	4940.4	
207.66	2927.2	
207.88	2570.2	
208.09	4610	
208.3	4478.9	
208.52	2737.5	
208.73	2934.7	
208.94	4493.9	
209.15	4956.1	
209.37	2904	
209.58	3016.7	
209.79	4842.1	
210.01	4369	
210.22	2480.8	
210.43	2564.7	
210.65	4523.3	
210.86	4715.1	
211.07	2908.8	
211.29	2725.2	
211.5	4670.7	
211.71	4449.6	
211.93	2676.7	
212.14	2727.2	
212.35	4453	
212.56	4524.6	
212.78	3042.6	
212.99	2583.9	
213.2	5093.3	
213.42	4392.9	
213.63	2767.5	
213.84	2925.2	
214.06	4163.5	
214.27	4176.5	
214.48	2887	
214.69	3059	
214.91	5023	
215.12	4962.9	
215.33	3050.1	
215.55	3227.6	
215.76	5324.7	
215.97	4720.6	
216.18	2939.5	
216.4	2981.8	
216.61	4291.9	
216.82	4816.8	
217.04	2798.2	
217.25	2841.2	
217.46	4888.5	
217.67	4759.5	
217.89	2555.2	
218.1	2572.9	
218.31	4585.4	
218.53	4662.5	
218.74	2923.8	
218.95	2765.4	
219.16	4485.1	
219.38	5077.6	
219.59	2760	
219.8	3188	
220.01	5386.2	
220.23	4549.9	
220.44	3360.7	
220.65	2669.9	
220.87	4565.6	
221.08	4970.4	
221.29	2577.7	
221.5	3218	
221.72	5658.5	
221.93	4253.6	
222.14	3042.6	
222.35	3461.1	
222.57	4504.2	
222.78	4797	
222.99	2922.5	
223.2	3089.7	
223.42	4661.9	
223.63	4737.6	
223.84	2334	
224.05	2372.9	
224.27	5373.2	
224.48	5059.8	
224.69	3562.1	
224.9	3011.2	
225.12	4626.4	
225.33	4453.6	
225.54	2527.9	
225.75	2785.9	
225.97	4225	
226.18	4447.5	
226.39	2887.6	
226.6	2758.6	
226.82	4367	
227.03	4207.2	
227.24	3024.8	
227.45	2583.2	
227.67	4818.2	
227.88	5045.5	
228.09	3334.1	
228.3	3295.9	
228.52	4743.8	
228.73	4474.8	
228.94	2805.7	
229.15	2605.7	
229.36	4513.7	
229.58	4468.7	
229.79	2917.7	
230	3213.3	
230.21	5225.1	
230.43	4476.9	
230.64	2985.9	
230.85	3078.8	
231.06	4801.8	
231.28	4812.7	
231.49	2570.9	
231.7	3023.5	
231.91	4784.1	
232.12	4545.8	
232.34	2721.1	
232.55	2893.1	
232.76	4900.8	
232.97	4545.8	
233.18	2704	
233.4	3016	
233.61	4567.7	
233.82	4293.2	
234.03	2922.5	
234.25	2841.2	
234.46	5849.7	
234.67	4457.7	
234.88	3084.2	
235.09	2768.9	
235.31	4618.9	
235.52	4428.4	
235.73	2962.7	
235.94	2611.2	
236.15	4289.1	
236.37	5218.9	
236.58	2734.7	
236.79	2966.1	
237	4702.8	
237.21	4173.1	
237.43	3138.9	
237.64	2556.5	
237.85	7074.4	
238.06	4242.7	
238.27	3049.4	
238.48	2612.5	
238.7	4711	
238.91	4385.4	
239.12	2816	
239.33	2994.8	
239.54	4393.6	
239.76	4397.7	
239.97	2891	
240.18	2928.6	
240.39	5241.4	
240.6	4579.9	
240.82	3069.9	
241.03	2586.6	
241.24	4428.4	
241.45	4970.4	
241.66	2725.2	
241.87	3106.1	
242.09	5012.7	
242.3	5215.5	
242.51	3121.8	
242.72	2914.9	
242.93	4734.2	
243.14	4477.5	
243.36	3331.4	
243.57	3537.5	
243.78	5039.4	
243.99	4737	
244.2	2875.3	
244.41	2691	
244.63	4175.1	
244.84	4630.5	
245.05	3122.5	
245.26	2897.2	
245.47	4747.2	
245.68	4803.9	
245.9	3631	
246.11	3013.2	
246.32	4350.6	
246.53	4628.4	
246.74	4434.5	
246.95	2543.6	
247.16	4292.5	
247.38	4462.5	
247.59	2541.5	
247.8	2931.3	
248.01	4194.9	
248.22	4480.3	
248.43	2702.6	
248.64	2857.6	
248.86	4159.4	
249.07	4373.1	
249.28	2686.9	
249.49	2996.9	
249.7	4846.2	
249.91	4847.5	
250.12	2592	
250.34	2615.9	
250.55	4557.4	
250.76	4494.6	
250.97	3011.2	
251.18	3044.6	
251.39	4828.4	
251.6	4643.4	
251.81	3048.7	
252.03	3027.6	
252.24	4357.4	
252.45	4819.6	
252.66	2624.8	
252.87	3140.2	
253.08	4561.5	
253.29	5614.2	
253.5	2630.3	
253.72	3495.2	
253.93	4464.6	
254.14	5145.2	
254.35	2832.3	
254.56	2859	
254.77	4619.5	
254.98	4227.7	
255.19	2798.2	
255.41	3371.6	
255.62	4635.9	
255.83	4886.5	
256.04	3174.4	
256.25	2982.5	
256.46	5273.5	
256.67	4268	
256.88	3060.3	
257.09	3230.3	
257.31	4220.2	
257.52	4296.6	
257.73	3665.9	
257.94	2765.4	
258.15	4458.4	
258.36	4455	
258.57	3374.4	
258.78	2319.7	
258.99	4860.5	
259.2	4435.9	
259.41	2788	
259.63	2894.5	
259.84	5068	
260.05	5221	
260.26	3517	
260.47	2768.2	
260.68	4924	
260.89	4375.8	
261.1	3320.4	
261.31	2738.1	
261.52	4941.7	
261.73	5132.2	
261.95	3453.6	
262.16	3110.2	
262.37	4863.2	
262.58	4982	
262.79	3557.3	
263	2858.3	
263.21	4541	
263.42	4091.8	
263.63	3081.5	
263.84	2825.5	
264.05	4869.4	
264.26	5044.1	
264.47	3371.6	
264.69	3074.7	
264.9	5051.7	
265.11	4613.4	
265.32	2720.4	
265.53	2772.3	
265.74	4524.6	
265.95	4070.7	
266.16	2955.9	
266.37	3220.8	
266.58	4556	
266.79	4345.8	
267	2850.8	
267.21	2654.2	
267.42	4219.5	
267.63	4465.9	
267.84	2923.1	
268.06	2556.5	
268.27	4809.3	
268.48	4899.4	
268.69	2843.3	
268.9	3235.1	
269.11	4941.1	
269.32	4093.2	
269.53	2895.1	
269.74	2742.2	
269.95	4619.5	
270.16	4107.5	
270.37	2912.9	
270.58	3331.4	
270.79	4443.4	
271	4828.4	
271.21	3069.2	
271.42	2958.6	
271.63	4661.9	
271.84	4159.4	
272.05	2476	
272.26	2677.4	
272.47	4519.9	
272.68	4602.5	
272.89	2863.7	
273.11	3157.3	
273.32	4341	
273.53	4989.5	
273.74	3091.8	
273.95	3011.2	
274.16	4792.2	
274.37	4500.1	
274.58	3239.2	
274.79	2630.3	
275	4670.1	
275.21	4829.8	
275.42	3726.6	
275.63	3156.6	
275.84	4721.3	
276.05	5579.3	
276.26	3065.1	
276.47	2872.6	
276.68	4457.7	
276.89	5150.6	
277.1	3195.5	
277.31	2599.6	
277.52	4620.2	
277.73	4916.5	
277.94	2598.2	
278.15	2822.1	
278.36	4666.6	
278.57	4307.6	
278.78	2852.1	
278.99	3078.8	
279.2	4309.6	
279.41	4252.9	
279.62	3590.8	
279.83	2669.9	
280.04	5281	
280.25	4181.3	
280.46	3560.7	
280.67	2966.8	
280.88	4263.2	
281.09	4922.6	
281.3	3065.8	
281.51	3724.6	
281.72	4367.6	
281.93	4795	
282.14	2790	
282.35	2994.8	
282.56	4888.5	
282.77	4799.8	
282.98	2866.5	
283.19	3369.6	
283.4	5634	
283.61	4384.7	
283.82	2712.2	
284.03	3489.7	
284.24	4692.6	
284.45	4868.7	
284.66	3553.2	
284.87	3345.7	
285.08	4945.2	
285.29	4979.3	
285.5	2554.5	
285.71	2850.1	
285.92	4888.5	
286.12	5343.8	
286.33	3476.1	
286.54	2881.5	
286.75	4810.7	
286.96	4401.1	
287.17	2716.3	
287.38	3414	
287.59	4327.4	
287.8	4323.9	
288.01	2860.3	
288.22	3174.4	
288.43	4683	
288.64	4108.9	
288.85	3336.1	
289.06	3181.2	
289.27	4820.9	
289.48	5032.5	
289.69	3521.8	
289.9	3237.2	
290.11	4990.2	
290.32	4354.7	
290.53	3295.2	
290.74	3098.6	
290.94	4771.8	
291.15	4831.8	
291.36	2782.5	
291.57	3183.9	
291.78	4392.9	
291.99	4061.8	
292.2	2708.8	
292.41	3139.5	
292.62	4903.5	
292.83	4711.7	
293.04	3726.6	
293.25	2803	
293.46	4418.2	
293.67	4848.2	
293.88	2786.6	
294.09	2702.6	
294.29	4270.7	
294.5	4583.4	
294.71	2956.6	
294.92	2805	
295.13	4408.6	
295.34	5304.9	
295.55	2538.1	
295.76	2568.2	
295.97	4764.3	
296.18	5258.5	
296.39	2646.7	
296.6	2772.9	
296.81	4557.4	
297.01	4762.9	
297.22	2893.8	
297.43	2796.8	
297.64	4397.7	
297.85	4239.3	
298.06	2373.6	
298.27	2525.1	
298.48	4467.3	
298.69	4305.5	
298.9	3005.1	
299.11	2730.6	
299.31	4222.9	
299.52	4202.4	
299.73	3149.8	
299.94	3084.9	
300.15	4573.1	
300.36	4311.7	
300.57	3061.7	
300.78	3075.4	
300.99	4399.7	
301.2	4558.8	
301.4	2811.9	
301.61	2913.6	
301.82	4717.2	
302.03	4759.5	
302.24	3265.8	
302.45	2618.7	
302.66	4683	
302.87	4890.5	
303.08	2805	
303.29	3577.1	
303.49	4372.4	
303.7	4452.3	
303.91	2520.4	
304.12	3466.5	
304.33	4165.6	
304.54	4626.4	
304.75	2784.6	
304.96	2721.1	
305.16	4720.6	
305.37	5176.6	
305.58	2497.2	
305.79	2540.8	
306	4722.6	
306.21	4053.6	
306.42	2711.5	
306.63	3961.5	
306.83	4418.8	
307.04	4711.7	
307.25	3078.8	
307.46	2977.7	
307.67	4012.7	
307.88	4687.1	
308.09	2802.3	
308.29	2805.7	
308.5	4605.9	
308.71	4782.7	
308.92	2983.9	
309.13	2674.6	
309.34	4468	
309.55	4417.5	
309.75	3366.9	
309.96	3041.9	
310.17	4784.7	
310.38	4266.6	
310.59	3156.6	
310.8	2623.4	
311.01	4435.2	
311.21	4423.6	
311.42	2708.8	
311.63	2734	
311.84	4340.3	
312.05	4540.3	
312.26	3084.9	
312.46	3276.1	
312.67	4435.2	
312.88	4108.2	
313.09	2663.7	
313.3	2678.7	
313.51	4998.4	
313.71	5180	
313.92	2717	
314.13	2806.4	
314.34	4660.5	
314.55	4472.8	
314.76	3300	
314.96	2925.2	
315.17	4616.8	
315.38	4746.5	
315.59	2717	
315.8	2594.1	
316.01	4966.3	
316.21	5102.9	
316.42	2624.1	
316.63	2934.1	
316.84	4413.4	
317.05	4899.4	
317.26	3114.3	
317.46	2893.1	
317.67	4470.7	
317.88	4760.2	
318.09	3306.8	
318.3	2557.2	
318.5	4417.5	
318.71	4641.4	
318.92	4073.4	
319.13	3158.7	
319.34	4838.7	
319.54	4866	
319.75	2554.5	
319.96	2465.8	
320.17	4702.1	
320.38	4827.7	
320.58	2512.9	
320.79	2947	
321	4932.2	
321.21	4955.4	
321.42	2973.7	
321.62	2506	
321.83	4304.8	
322.04	4482.3	
322.25	2883.5	
322.46	2694.4	
322.66	4615.4	
322.87	4704.2	
323.08	3183.2	
323.29	2658.3	
323.5	5177.9	
323.7	4136.2	
323.91	3455.6	
324.12	3179.1	
324.33	4627	
324.53	4691.2	
324.74	3099.9	
324.95	3210.5	
325.16	4122.6	
325.37	4303.5	
325.57	2682.8	
325.78	2744.3	
325.99	4632.5	
326.2	4151.2	
326.4	3750.5	
326.61	2605	
326.82	4471.4	
327.03	4582	
327.24	3644	
327.44	3410.6	
327.65	4719.2	
327.86	3949.2	
328.07	3139.5	
328.27	2659.6	
328.48	4941.7	
328.69	4234.5	
328.9	3672.7	
329.1	2724.5	
329.31	4459.1	
329.52	4957.4	
329.73	2751.1	
329.93	2908.1	
330.14	4555.4	
330.35	4649.6	
330.56	4130.8	
330.76	3262.4	
330.97	4428.4	
331.18	4481	
331.39	2951.8	
331.59	2473.3	
331.8	4868	
332.01	4954.7	
332.22	2800.3	
332.42	3066.5	
332.63	4591.5	
332.84	4231.8	
333.05	3053.5	
333.25	2745	
333.46	4296	
333.67	4496	
333.88	2887	
334.08	3008.5	
334.29	5737	
334.5	4888.5	
334.7	2613.9	
334.91	3562.1	
335.12	4164.2	
335.33	4740.4	
335.53	2926.5	
335.74	4009.2	
335.95	4446.1	
336.16	4160.8	
336.36	2896.5	
336.57	3335.5	
336.78	4176.5	
336.98	4915.1	
337.19	3508.9	
337.4	2905.4	
337.61	5273.5	
337.81	4172.4	
338.02	2816.6	
338.23	3362.8	
338.43	5023.7	
338.64	4296.6	
338.85	2742.9	
339.05	3382.6	
339.26	5139	
339.47	4142.4	
339.68	2742.2	
339.88	3719.1	
340.09	4705.5	
340.3	4822.3	
340.5	3133.4	
340.71	2485.6	
340.92	4226.3	
341.13	4891.2	
341.33	2631	
341.54	3124.5	
341.75	4670.1	
341.95	4362.2	
342.16	3024.2	
342.37	3210.5	
342.57	4227	
342.78	4422.9	
342.99	3280.8	
343.19	2509.4	
343.4	4743.8	
343.61	4678.2	
343.81	2895.1	
344.02	2639.8	
344.23	4773.1	
344.43	4998.4	
344.64	3270.6	
344.85	3237.2	
345.06	4737.6	
345.26	4870.1	
345.47	3074.7	
345.68	3553.2	
345.88	4154	
346.09	4732.2	
346.3	3172.3	
346.5	2435	
346.71	4417.5	
346.92	4304.1	
347.12	2599.6	
347.33	3026.9	
347.54	4842.8	
347.74	5100.1	
347.95	3001	
348.16	2371.5	
348.36	4360.8	
348.57	4219.5	
348.78	3087.7	
348.98	3206.4	
349.19	4449.6	
349.39	4082.3	
349.6	2536.1	
349.81	2766.8	
350.01	4678.9	
350.22	4252.3	
350.43	2996.2	
350.63	3477.5	
350.84	4485.1	
351.05	4268.6	
351.25	2752.5	
351.46	2531.3	
351.67	4782	
351.87	4250.9	
352.08	2925.2	
352.29	3207.8	
352.49	4808.6	
352.7	4529.4	
352.9	2635.7	
353.11	3178.4	
353.32	5196.4	
353.52	4368.3	
353.73	2678.1	
353.94	3211.2	
354.14	4666	
354.35	4460.5	
354.55	2712.2	
354.76	2957.3	
354.97	4674.8	
355.17	4415.4	
355.38	2624.1	
355.59	3361.4	
355.79	4221.5	
356	4415.4	
356.2	2956.6	
356.41	2648.7	
356.62	4074.1	
356.82	4392.2	
357.03	3142.3	
357.24	2828.2	
357.44	4250.2	
357.65	4283.7	
357.85	3621.5	
358.06	2956.6	
358.27	4055	
358.47	4188.8	
358.68	2549	
358.88	3048.1	
359.09	4568.3	
359.3	4756.7	
359.5	3481.5	
359.71	3242.6	
359.91	5057.1	
360.12	4628.4	
360.33	3129.3	
360.53	3409.9	
360.74	4234.5	
360.94	4282.3	
361.15	3235.8	
361.36	2747.7	
361.56	4792.2	
361.77	4419.5	
361.97	3507.5	
362.18	2831.7	
362.38	4760.2	
362.59	4154	
362.8	2652.1	
363	2573.6	
363.21	3999.7	
363.41	4440	
363.62	2985.3	
363.83	3601.7	
364.03	4577.2	
364.24	5015.5	
364.44	3711.6	
364.65	3661.8	
364.85	4313	
365.06	4157.4	
365.27	2815.3	
365.47	2826.9	
365.68	5018.2	
365.88	4358.8	
366.09	3056.3	
366.29	2805	
366.5	4456.4	
366.71	4738.3	
366.91	3606.5	
367.12	3102	
367.32	5186.1	
367.53	4640.7	
367.73	3147.7	
367.94	3762.1	
368.14	4724	
368.35	5069.4	
368.56	3052.2	
368.76	2800.3	
368.97	4762.9	
369.17	5720.7	
369.38	2764.8	
369.58	2932.7	
369.79	4033.1	
369.99	4980.7	
370.2	3626.3	
370.4	3013.2	
370.61	4453.6	
370.82	5346.6	
371.02	2958.6	
371.23	2517.6	
371.43	4080.9	
371.64	4897.4	
371.84	2996.2	
372.05	3653.6	
372.25	5596.4	
372.46	4635.9	
372.66	2944.3	
372.87	2940.2	
373.07	4671.4	
373.28	5728.2	
373.48	3551.2	
373.69	3353.2	
373.9	4395.6	
374.1	4345.8	
374.31	3509.5	
374.51	3181.2	
374.72	4869.4	
374.92	4146.5	
375.13	3556	
375.33	3076	
375.54	4545.8	
375.74	4270	
375.95	3150.5	
376.15	3866.6	
376.36	4676.9	
376.56	4504.8	
376.77	3115.6	
376.97	3435.1	
377.18	5338.4	
377.38	4640	
377.59	3475.4	
377.79	2855.6	
378	4477.5	
378.2	4657.8	
378.41	2904	
378.61	2805	
378.82	4849.6	
379.02	4307.6	
379.23	2994.1	
379.43	3653.6	
379.64	4999.8	
379.84	4621.6	
380.05	2897.9	
380.25	2773.6	
380.46	4647.5	
380.66	4408.6	
380.87	3671.3	
381.07	3934.1	
381.28	5082.4	
381.48	4710.3	
381.69	2874.7	
381.89	2932.7	
382.1	4024.9	
382.3	4700.1	
382.51	3637.2	
382.71	4123.2	
382.91	4601.8	
383.12	4974.5	
383.32	3121.1	
383.53	3218.7	
383.73	4591.5	
383.94	4485.1	
384.14	3291.1	
384.35	2697.9	
384.55	4369.7	
384.76	4701.5	
384.96	3145.7	
385.17	3382.6	
385.37	4775.2	
385.58	4169	
385.78	3287	
385.98	2638.5	
386.19	4416.8	
386.39	4608.6	
386.6	2971.6	
386.8	3126.6	
387.01	4623.6	
387.21	4711.7	
387.42	3385.3	
387.62	3722.5	
387.83	4326	
388.03	4490.5	
388.23	3200.3	
388.44	3606.5	
388.64	4083.6	
388.85	4065.2	
389.05	3342.3	
389.26	3682.9	
389.46	5468.1	
389.67	4944.5	
389.87	3362.8	
390.07	3379.8	
390.28	4398.4	
390.48	4129.4	
390.69	2874.7	
390.89	3038.5	
391.1	4356	
391.3	4862.6	
391.5	3793.5	
391.71	4141	
391.91	4778.6	
392.12	5203.2	
392.32	3827	
392.53	3351.8	
392.73	4378.6	
392.93	4472.8	
393.14	3158	
393.34	3607.2	
393.55	4756.7	
393.75	4371	
393.95	3179.1	
394.16	3106.8	
394.36	4323.9	
394.57	4723.3	
394.77	2817.3	
394.98	3052.8	
395.18	4283	
395.38	4356.7	
395.59	3603.1	
395.79	2912.2	
396	4391.5	
396.2	4633.2	
396.4	3507.5	
396.61	3354.6	
396.81	4706.9	
397.02	4233.8	
397.22	3644	
397.42	3673.4	
397.63	4815.5	
397.83	4250.9	
398.04	2895.8	
398.24	3194.8	
398.44	4548.5	
398.65	3877.5	
398.85	2828.2	
399.05	2826.9	
399.26	4279.6	
399.46	5276.3	
399.67	3115.6	
399.87	2924.5	
400.07	4440.7	
400.28	4661.9	
400.48	2973	
400.69	3629.7	
400.89	4702.8	
401.09	5115.1	
401.3	2944.3	
401.5	3557.3	
401.7	5133.6	
401.91	5339.7	
402.11	3185.3	
402.32	3274	
402.52	4865.3	
402.72	4786.1	
402.93	3459.7	
403.13	2741.5	
403.33	5377.3	
403.54	4493.2	
403.74	3334.8	
403.94	3826.3	
404.15	4589.5	
404.35	5304.2	
404.56	3101.3	
404.76	4188.8	
404.96	4777.9	
405.17	4618.2	
405.37	3680.2	
405.57	3389.4	
405.78	4812	
405.98	4503.5	
406.18	3137.5	
406.39	3577.1	
406.59	4813.4	
406.79	4433.9	
407	2954.5	
407.2	3082.2	
407.4	5046.2	
407.61	4937	
407.81	3031	
408.01	4409.3	
408.22	4065.2	
408.42	5268.1	
408.62	3695.9	
408.83	3284.9	
409.03	4466.6	
409.23	4407.2	
409.44	3306.8	
409.64	3483.6	
409.84	5111	
410.05	4944.5	
410.25	3413.3	
410.45	3297.9	
410.66	4574.5	
410.86	6156.2	
411.06	3500	
411.27	3434.4	
411.47	5913.9	
411.67	4696.7	
411.88	3534.8	
412.08	3637.2	
412.28	5085.1	
412.49	5440.8	
412.69	3435.1	
412.89	3379.1	
413.09	5331.5	
413.3	5216.9	
413.5	3519.8	
413.7	3198.2	
413.91	4745.1	
414.11	5272.8	
414.31	3333.4	
414.52	3553.2	
414.72	5098.1	
414.92	4947.9	
415.12	3375.7	
415.33	3633.8	
415.53	5216.2	
415.73	5365	
415.94	3844.7	
416.14	3493.2	
416.34	4627.7	
416.55	4435.9	
416.75	4310.3	
416.95	3825.6	
417.15	5244.8	
417.36	5677.7	
417.56	4378.6	
417.76	3717.7	
417.97	5397.8	
418.17	5230.5	
418.37	3547.1	
418.57	3525.9	
418.78	5145.2	
418.98	4891.2	
419.18	4081.6	
419.38	4059.1	
419.59	4906.3	
419.79	4680.3	
419.99	3480.9	
420.2	3663.8	
420.4	5317.2	
420.6	5269.4	
420.8	3387.3	
421.01	3340.2	
421.21	5193	
421.41	5147.2	
421.61	3669.3	
421.82	3407.1	
422.02	4923.3	
422.22	5502.9	
422.42	3950.5	
422.63	3831.1	
422.83	4885.8	
423.03	5696.1	
423.23	3799.7	
423.44	3112.2	
423.64	4922.6	
423.84	4755.4	
424.04	3458.3	
424.25	3238.5	
424.45	5531.6	
424.65	5481	
424.85	3093.1	
425.06	3419.4	
425.26	5709.1	
425.46	4875.5	
425.66	3794.9	
425.87	3590.8	
426.07	5390.9	
426.27	5241.4	
426.47	3704.1	
426.67	3261	
426.88	5637.4	
427.08	5215.5	
427.28	3819.5	
427.48	3244	
427.69	4593.6	
427.89	4958.1	
428.09	3781.9	
428.29	3241.9	
428.5	5319.3	
428.7	5121.3	
428.9	3186	
429.1	3478.1	
429.3	5099.4	
429.51	5226.4	
429.71	3450.1	
429.91	3917.1	
430.11	5266.7	
430.31	5565	
430.52	3577.8	
430.72	3706.1	
430.92	5591	
431.12	5245.5	
431.32	3326.6	
431.53	3654.3	
431.73	4573.1	
431.93	5566.4	
432.13	3272	
432.33	3162.1	
432.54	4858.5	
432.74	5027.8	
432.94	3144.3	
433.14	3839.9	
433.34	5297.4	
433.55	4896	
433.75	3848.8	
433.95	4805.2	
434.15	5150	
434.35	4810.7	
434.56	3283.6	
434.76	2916.3	
434.96	5007.3	
435.16	5167	
435.36	3186.6	
435.56	3923.2	
435.77	4797	
435.97	4896	
436.17	4311	
436.37	3774.4	
436.57	4757.4	
436.78	4665.3	
436.98	3846.1	
437.18	4273.4	
437.38	5111.7	
437.58	4870.1	
437.78	4353.3	
437.99	3416.7	
438.19	5285.8	
438.39	5839.4	
438.59	3450.1	
438.79	3104.7	
438.99	5662.6	
439.2	4870.1	
439.4	3174.4	
439.6	3073.3	
439.8	4985.4	
440	5773.9	
440.2	3730.7	
440.4	3826.3	
440.61	5364.3	
440.81	5618.9	
441.01	3293.1	
441.21	3848.1	
441.41	5590.3	
441.61	5246.2	
441.81	3989.4	
442.02	4601.1	
442.22	5863.3	
442.42	5384.1	
442.62	3291.1	
442.82	3391.4	
443.02	5584.8	
443.22	5020.9	
443.43	3581.9	
443.63	3231.7	
443.83	4924	
444.03	4805.2	
444.23	4057	
444.43	3857.7	
444.63	5130.2	
444.83	5851.7	
445.04	3394.8	
445.24	4177.2	
445.44	5403.9	
445.64	5392.3	
445.84	3917.8	
446.04	3910.9	
446.24	4966.3	
446.44	5552	
446.65	3401	
446.85	3579.8	
447.05	5029.8	
447.25	5565	
447.45	3716.4	
447.65	3205.8	
447.85	5241.4	
448.05	4878.3	
448.25	3915	
448.46	3777.1	
448.66	5164.3	
448.86	4908.3	
449.06	3265.8	
449.26	3902.7	
449.46	5354.8	
449.66	4831.8	
449.86	3605.8	
450.06	3599	
450.26	4878.3	
450.47	5306.3	
450.67	3813.3	
450.87	3958.7	
451.07	5481	
451.27	5128.1	
451.47	3384.6	
451.67	3841.3	
451.87	5011.4	
452.07	5724.8	
452.27	3495.2	
452.47	3435.8	
452.67	5214.1	
452.88	5364.3	
453.08	3145.7	
453.28	4250.2	
453.48	5943.2	
453.68	5168.4	
453.88	3388.7	
454.08	3511.6	
454.28	5380.7	
454.48	5114.5	
454.68	3835.2	
454.88	4143.7	
455.08	5532.9	
455.28	5143.8	
455.48	3355.9	
455.68	3678.2	
455.89	5751.4	
456.09	5455.8	
456.29	3545.7	
456.49	3530	
456.69	5626.5	
456.89	5066	
457.09	3779.9	
457.29	4072	
457.49	5265.3	
457.69	5351.3	
457.89	3727.3	
458.09	3257	
458.29	5152	
458.49	5630.5	
458.69	3930.7	
458.89	3600.3	
459.09	5739.1	
459.29	5767.1	
459.49	3596.9	
459.69	4077.5	
459.9	5474.9	
460.1	5066.7	
460.3	3610.6	
460.5	3392.1	
460.7	5458.5	
460.9	5122.7	
461.1	3261.7	
461.3	3974.4	
461.5	5853.8	
461.7	5626.5	
461.9	3446	
462.1	3709.6	
462.3	5275.6	
462.5	5553.4	
462.7	3491.1	
462.9	3523.2	
463.1	6166.4	
463.3	5893.4	
463.5	3681.6	
463.7	4272.1	
463.9	5360.2	
464.1	5499.5	
464.3	3673.4	
464.5	3837.2	
464.7	5787.6	
464.9	5438	
465.1	4639.3	
465.3	4072	
465.5	5857.2	
465.7	5903.6	
465.9	4213.4	
466.1	4086.4	
466.3	5686.5	
466.5	5668.1	
466.7	4629.8	
466.9	3982.6	
467.1	5725.4	
467.3	6225.8	
467.5	4557.4	
467.7	3825.6	
467.9	6390.3	
468.1	6825.9	
468.3	4403.1	
468.5	4567	
468.7	5550	
468.9	5476.3	
469.1	4074.1	
469.3	4541.7	
469.5	6771.9	
469.7	5295.4	
469.9	4444.8	
470.1	3833.1	
470.3	5708.4	
470.5	5634	
470.7	4655	
470.9	3928.7	
471.1	5458.5	
471.3	5814.2	
471.5	3826.3	
471.69	5044.8	
471.89	5489.9	
472.09	4992.3	
472.29	4339.6	
472.49	4668	
472.69	5202.5	
472.89	5716.6	
473.09	3792.8	
473.29	3982.6	
473.49	5436.7	
473.69	5418.9	
473.89	4491.2	
474.09	4031.8	
474.29	6185.5	
474.49	5943.2	
474.69	4464.6	
474.89	4149.2	
475.09	5498.1	
475.29	5397.8	
475.49	3730.7	
475.69	3895.2	
475.88	6550.1	
476.08	5724.8	
476.28	3726.6	
476.48	4000.4	
476.68	6052.4	
476.88	5841.5	
477.08	3931.4	
477.28	4079.6	
477.48	5648.3	
477.68	5913.9	
477.88	3745.1	
478.08	3981.3	
478.28	6103.6	
478.48	5604.6	
478.67	4014.7	
478.87	3651.5	
479.07	6003.3	
479.27	5743.9	
479.47	4102.1	
479.67	4158.1	
479.87	5940.5	
480.07	6231.3	
480.27	3741	
480.47	4714.4	
480.67	5664	
480.87	6110.5	
481.06	3885	
481.26	4419.5	
481.46	5720	
481.66	5610.8	
481.86	4196.3	
482.06	4762.9	
482.26	5481.7	
482.46	6007.4	
482.66	4108.9	
482.86	3814.7	
483.05	5801.9	
483.25	5298.1	
483.45	5751.4	
483.65	4097.3	
483.85	5266.7	
484.05	5506.3	
484.25	4370.4	
484.45	4596.3	
484.65	6011.5	
484.84	6075.6	
485.04	4087.7	
485.24	3984	
485.44	6291.4	
485.64	5328.8	
485.84	3557.3	
486.04	4479.6	
486.24	5494	
486.44	5765	
486.63	3577.8	
486.83	4129.4	
487.03	5416.9	
487.23	5467.4	
487.43	3639.9	
487.63	5035.3	
487.83	5586.2	
488.02	6060.6	
488.22	4159.4	
488.42	4506.2	
488.62	6156.9	
488.82	5406	
489.02	3971	
489.22	3919.1	
489.41	6020.3	
489.61	5871.5	
489.81	3850.2	
490.01	3792.2	
490.21	5984.8	
490.41	6457.2	
490.61	3868.6	
490.8	3880.2	
491	5675.6	
491.2	5259.9	
491.4	4367.6	
491.6	3760.1	
491.8	5670.8	
491.99	5657.2	
492.19	3645.4	
492.39	3837.2	
492.59	5966.4	
492.79	6017.6	
492.99	4394.3	
493.18	3790.1	
493.38	6059.9	
493.58	6468.9	
493.78	4298	
493.98	3972.4	
494.18	5841.5	
494.37	5438.7	
494.57	4339	
494.77	4184	
494.97	5930.2	
495.17	6053.8	
495.37	3974.4	
495.56	4250.2	
495.76	6143.9	
495.96	5964.4	
496.16	4787.5	
496.36	4106.2	
496.55	6136.4	
496.75	5713.2	
496.95	4328	
497.15	4351.9	
497.35	6097.5	
497.54	6012.2	
497.74	4109.6	
497.94	5302.2	
498.14	6534.4	
498.34	6275.7	
498.53	3957.4	
498.73	4406.5	
498.93	5590.3	
499.13	6019	
499.33	4253.6	
499.52	4595	
499.72	6049.7	
499.92	6139.1	
500.12	4053.6	
500.32	4268	
500.51	6188.3	
500.71	5935.7	
500.91	4822.3	
501.11	4446.1	
501.31	6122.1	
501.5	6427.9	
501.7	4963.6	
501.9	4291.9	
502.1	5965.7	
502.29	6206.7	
502.49	4595	
502.69	4781.3	
502.89	6158.9	
503.09	6126.8	
503.28	3967.6	
503.48	4098	
503.68	5785.5	
503.88	5616.9	
504.07	4643.4	
504.27	4340.3	
504.47	6003.3	
504.67	6055.2	
504.86	4562.9	
505.06	4438.6	
505.26	5859.9	
505.46	6730.3	
505.65	4377.9	
505.85	4556	
506.05	5777.3	
506.25	6122.7	
506.44	4052.9	
506.64	4526.7	
506.84	5672.9	
507.04	6223.8	
507.23	4159.4	
507.43	4470.7	
507.63	6938.5	
507.83	5745.9	
508.02	4515.1	
508.22	4268	
508.42	7073.7	
508.62	5659.2	
508.81	4607.9	
509.01	4725.3	
509.21	5647.6	
509.4	5879.7	
509.6	4491.2	
509.8	4055.7	
510	5802.6	
510.19	6515.3	
510.39	4063.2	
510.59	4171	
510.79	5694.7	
510.98	6512.5	
511.18	4296.6	
511.38	4263.2	
511.57	6305	
511.77	5954.8	
511.97	4676.9	
512.17	4088.4	
512.36	6213.5	
512.56	6075	
512.76	4107.5	
512.95	3875.4	
513.15	6340.5	
513.35	5342.5	
513.55	4636.6	
513.74	4106.9	
513.94	6266.1	
514.14	5822.4	
514.33	4699.4	
514.53	4539.7	
514.73	5849	
514.92	5796.4	
515.12	4139.6	
515.32	4072	
515.51	5980.8	
515.71	6184.2	
515.91	5179.3	
516.11	4057.7	
516.3	7043	
516.5	5722.7	
516.7	4499.4	
516.89	4843.4	
517.09	5797.1	
517.29	5748	
517.48	4646.8	
517.68	4263.2	
517.88	5522	
518.07	6061.3	
518.27	4568.3	
518.47	3930.7	
518.66	6395.1	
518.86	5520.6	
519.06	3895.9	
519.25	4147.1	
519.45	5715.2	
519.65	6608.8	
519.84	4683	
520.04	4967.7	
520.24	6916	
520.43	6055.8	
520.63	4456.4	
520.83	4258.4	
521.02	5692	
521.22	6107.7	
521.42	4665.3	
521.61	4895.3	
521.81	5841.5	
522.01	5955.5	
522.2	4538.3	
522.4	4338.3	
522.6	6202.6	
522.79	5389.6	
522.99	4451.6	
523.18	3931.4	
523.38	6043.6	
523.58	5990.3	
523.77	5093.3	
523.97	3915.7	
524.17	7137.2	
524.36	6657.9	
524.56	4750.6	
524.76	4555.4	
524.95	5896.8	
525.15	5793.7	
525.34	4386.1	
525.54	4392.2	
525.74	6226.5	
525.93	5526.1	
526.13	5105.6	
526.33	4306.9	
526.52	6429.3	
526.72	5947.3	
526.91	5184.1	
527.11	4595.6	
527.31	6279.8	
527.5	6632	
527.7	4653	
527.89	4042	
528.09	5708.4	
528.29	6053.1	
528.48	4946.5	
528.68	4571.1	
528.87	6294.1	
529.07	6291.4	
529.27	4594.3	
529.46	4236.6	
529.66	6093.4	
529.85	6276.3	
530.05	4099.4	
530.25	4644.1	
530.44	6966.5	
530.64	5993	
530.83	4410	
531.03	4545.1	
531.23	6385.6	
531.42	6201.2	
531.62	4956.8	
531.81	4543.1	
532.01	6401.3	
532.21	6524.1	
532.4	4372.4	
532.6	4588.1	
532.79	6950.8	
532.99	6352.8	
533.18	4635.2	
533.38	5188.9	
533.58	6141.2	
533.77	6421.7	
533.97	4484.4	
534.16	5020.3	
534.36	6742.6	
534.55	5995.8	
534.75	5114.5	
534.95	4536.3	
535.14	6627.2	
535.34	6087.9	
535.53	4356.7	
535.73	5509	
535.92	6975.4	
536.12	6133.7	
536.31	4393.6	
536.51	5190.2	
536.71	6475.7	
536.9	6161.7	
537.1	4567	
537.29	4674.8	
537.49	6724.8	
537.68	6036	
537.88	4940.4	
538.07	4438.6	
538.27	6246.3	
538.46	6872.3	
538.66	4275.5	
538.86	4558.1	
539.05	6314.6	
539.25	6524.8	
539.44	4842.1	
539.64	4560.8	
539.83	6112.5	
540.03	6801.3	
540.22	4427	
540.42	4530.8	
540.61	6402	
540.81	6453.1	
541	4767	
541.2	5186.8	
541.39	6053.1	
541.59	6213.5	
541.78	5033.9	
541.98	4454.3	
542.18	5840.1	
542.37	5824.4	
542.57	4775.2	
542.76	4945.8	
542.96	5997.1	
543.15	6346.7	
543.35	4780	
543.54	4401.8	
543.74	6327.5	
543.93	6260	
544.13	4712.4	
544.32	5481	
544.52	6544.6	
544.71	5971.2	
544.91	4274.1	
545.1	4967.7	
545.3	6014.2	
545.49	6323.4	
545.69	4173.1	
545.88	4556.7	
546.08	7034.8	
546.27	6622.4	
546.47	4909	
546.66	4387.4	
546.86	6565.8	
547.05	6810.2	
547.24	4646.2	
547.44	4470	
547.63	5900.9	
547.83	6516	
548.02	4697.4	
548.22	4838.7	
548.41	5750.7	
548.61	6680.5	
548.8	4459.1	
549	4412	
549.19	6243.6	
549.39	6480.5	
549.58	4277.5	
549.78	4657.1	
549.97	6454.5	
550.17	6064	
550.36	5181.4	
550.55	5789.6	
550.75	6140.5	
550.94	6661.4	
551.14	4450.2	
551.33	4668.7	
551.53	5700.2	
551.72	6292.7	
551.92	4677.6	
552.11	4491.9	
552.31	6472.9	
552.5	6356.9	
552.69	5571.2	
552.89	4262.5	
553.08	6333.7	
553.28	6197.2	
553.47	4520.5	
553.67	5271.5	
553.86	6753.5	
554.06	5716.6	
554.25	4067.9	
554.44	4351.3	
554.64	7185.6	
554.83	6890.7	
555.03	4396.3	
555.22	4649.6	
555.42	6555.5	
555.61	6357.6	
555.8	4583.4	
556	4756.7	
556.19	5868.1	
556.39	6494.8	
556.58	4566.3	
556.78	4614.1	
556.97	6278.4	
557.16	6029.2	
557.36	5422.3	
557.55	4323.3	
557.75	5639.4	
557.94	6733	
558.13	4426.3	
558.33	4284.4	
558.52	6617.7	
558.72	5829.9	
558.91	4331.5	
559.1	4496.7	
559.3	5678.3	
559.49	5545.2	
559.69	4218.1	
559.88	4631.8	
560.07	6229.2	
560.27	6537.1	
560.46	4856.4	
560.66	4915.1	
560.85	6156.9	
561.04	5616.9	
561.24	4322.6	
561.43	4449.6	
561.63	5818.3	
561.82	6034.7	
562.01	5206.6	
562.21	4602.5	
562.4	6191.7	
562.59	6752.8	
562.79	4570.4	
562.98	4283.7	
563.18	6204	
563.37	7023.9	
563.56	4815.5	
563.76	4314.4	
563.95	5837.4	
564.14	5790.3	
564.34	4623.6	
564.53	4336.9	
564.73	6175.3	
564.92	6253.8	
565.11	4572.4	
565.31	4217.5	
565.5	6518.7	
565.69	5798.5	
565.89	4422.9	
566.08	4561.5	
566.27	6395.8	
566.47	6678.4	
566.66	4986.1	
566.85	4052.2	
567.05	6262	
567.24	5900.2	
567.44	4231.8	
567.63	5184.8	
567.82	6412.9	
568.02	6095.4	
568.21	4250.9	
568.4	4629.8	
568.6	6051.7	
568.79	6049	
568.98	4283.7	
569.18	4231.1	
569.37	6049	
569.56	7254.6	
569.76	4612	
569.95	5150.6	
570.14	6312.5	
570.34	6220.4	
570.53	4303.5	
570.72	4173.1	
570.91	6680.5	
571.11	6081.1	
571.3	4558.8	
571.49	5139.7	
571.69	6122.7	
571.88	5836	
572.07	4886.5	
572.27	4902.8	
572.46	5701.5	
572.65	6357.6	
572.85	4404.5	
573.04	4584.7	
573.23	6639.5	
573.43	6154.8	
573.62	4268	
573.81	4685.8	
574	6129.6	
574.2	6016.9	
574.39	4477.5	
574.58	4530.8	
574.78	6613.6	
574.97	6180.1	
575.16	4789.5	
575.36	4816.1	
575.55	6489.3	
575.74	6517.3	
575.93	4181.3	
576.13	4833.2	
576.32	5972.6	
576.51	6311.2	
576.71	4562.2	
576.9	5380.7	
577.09	6668.2	
577.28	6252.4	
577.48	4760.8	
577.67	4156	
577.86	6118	
578.05	6236.1	
578.25	4555.4	
578.44	4595	
578.63	6195.1	
578.83	6878.4	
579.02	4251.6	
579.21	5174.5	
579.4	6215.6	
579.6	6017.6	
579.79	4648.9	
579.98	6042.9	
580.17	6473.6	
580.37	6595.8	
580.56	4370.4	
580.75	4841.4	
580.94	6711.2	
581.14	6783.6	
581.33	5068	
581.52	4484.4	
581.71	6335.7	
581.91	6907.8	
582.1	4275.5	
582.29	4581.3	
582.48	6201.2	
582.68	6104.3	
582.87	4872.1	
583.06	4676.2	
583.25	6450.4	
583.45	6229.9	
583.64	5105.6	
583.83	5500.2	
584.02	6232.7	
584.21	6386.2	
584.41	5057.1	
584.6	4578.6	
584.79	6194.4	
584.98	6587	
585.18	4347.2	
585.37	4360.8	
585.56	6000.5	
585.75	6384.9	
585.94	4444.1	
586.14	4867.3	
586.33	6784.9	
586.52	6098.2	
586.71	4799.8	
586.91	4560.1	
587.1	5835.3	
587.29	6518.7	
587.48	4537.6	
587.67	4549.9	
587.87	6401.3	
588.06	6358.3	
588.25	5360.2	
588.44	4902.2	
588.63	6169.2	
588.83	6535.1	
589.02	4663.2	
589.21	4506.9	
589.4	6219	
589.59	6095.4	
589.78	4125.3	
589.98	4241.3	
590.17	5827.2	
590.36	6032.6	
590.55	3911.6	
590.74	4437.3	
590.94	6922.8	
591.13	6072.9	
591.32	4283.7	
591.51	4041.3	
591.7	6305	
591.89	6004	
592.09	4064.5	
592.28	4348.5	
592.47	5509	
592.66	6817	
592.85	4061.1	
593.05	4164.2	
593.24	5948	
593.43	6503	
593.62	4321.9	
593.81	4564.2	
594	6001.9	
594.19	6021.7	
594.39	4226.3	
594.58	4171	
594.77	6161	
594.96	6412.2	
595.15	4210.6	
595.34	4592.9	
595.54	6112.5	
595.73	5659.9	
595.92	3814	
596.11	4480.3	
596.3	6521.4	
596.49	5651	
596.68	4392.2	
596.88	4549.9	
597.07	6255.9	
597.26	5545.9	
597.45	4111.6	
597.64	4831.8	
597.83	5757.5	
598.02	6133.7	
598.22	4126	
598.41	4549.2	
598.6	6066.1	
598.79	5668.1	
598.98	4162.8	
599.17	4722.6	
599.36	6039.5	
599.55	6720.8	
599.74	5387.5	
599.94	5226.4	
600.13	6416.3	
600.32	5640.8	
600.51	3911.6	
600.7	4024.3	
600.89	6793.8	
601.08	6834.1	
601.27	3936.2	
601.47	4497.3	
601.66	6308.4	
601.85	6697.5	
602.04	4388.1	
602.23	4528.1	
602.42	5706.3	
602.61	6158.9	
602.8	4275.5	
602.99	4149.2	
603.18	5941.2	
603.37	6061.3	
603.57	4563.6	
603.76	4937	
603.95	6565.8	
604.14	6200.6	
604.33	4265.9	
604.52	4392.9	
604.71	6139.8	
604.9	5752.1	
605.09	4814.8	
605.28	4681	
605.47	6450.4	
605.66	6073.6	
605.86	4564.9	
606.05	4283.7	
606.24	6454.5	
606.43	5450.3	
606.62	4437.9	
606.81	4880.3	
607	6346.7	
607.19	5900.9	
607.38	4117.8	
607.57	4190.8	
607.76	5644.9	
607.95	5395.7	
608.14	4589.5	
608.33	4836.6	
608.52	5729.5	
608.72	6319.3	
608.91	3981.3	
609.1	3956.7	
609.29	5862.7	
609.48	5514.5	
609.67	4533.5	
609.86	4041.3	
610.05	5597.1	
610.24	5813.5	
610.43	3943.7	
610.62	3680.9	
610.81	6505	
611	6337.1	
611.19	3979.2	
611.38	4508.3	
611.57	6103.6	
611.76	6750.1	
611.95	3974.4	
612.14	3797.6	
612.33	5877	
612.52	5602.6	
612.71	4238.6	
612.9	3753.9	
613.09	5267.4	
613.28	6785.6	
613.47	4113.7	
613.66	4665.3	
613.85	5950	
614.04	5538.4	
614.24	4136.2	
614.43	3677.5	
614.62	6014.9	
614.81	5975.3	
615	4392.9	
615.19	4458.4	
615.38	5556.8	
615.57	5845.6	
615.76	4392.9	
615.95	4986.8	
616.14	6088.6	
616.33	5851.7	
616.52	4576.5	
616.71	4684.4	
616.9	6105.7	
617.09	5825.8	
617.28	4197	
617.47	4872.8	
617.66	5491.3	
617.85	5428.5	
618.04	4728.1	
618.22	4330.1	
618.41	5672.2	
618.6	6274.3	
618.79	4298	
618.98	4158.7	
619.17	6357.6	
619.36	5257.1	
619.55	4256.4	
619.74	4278.2	
619.93	5950	
620.12	5522.7	
620.31	4582.7	
620.5	4672.1	
620.69	6269.5	
620.88	6628.6	
621.07	5068	
621.26	4532.2	
621.45	6055.8	
621.64	6012.8	
621.83	4576.5	
622.02	4087.1	
622.21	6121.4	
622.4	6015.6	
622.59	4930.1	
622.78	4822.3	
622.97	5722.7	
623.16	6251.8	
623.35	4627.7	
623.54	4025.6	
623.72	5799.2	
623.91	5916.6	
624.1	4829.8	
624.29	3901.4	
624.48	6564.4	
624.67	6119.3	
624.86	4663.2	
625.05	4042.7	
625.24	6677.7	
625.43	5690.6	
625.62	5664	
625.81	4186	
626	6317.3	
626.19	5840.8	
626.38	4662.5	
626.56	4343.1	
626.75	5743.9	
626.94	6162.3	
627.13	4683	
627.32	3814.7	
627.51	6200.6	
627.7	6840.9	
627.89	3882.3	
628.08	4739.7	
628.27	5707.7	
628.46	5787.6	
628.65	4151.9	
628.83	3962.8	
629.02	6114.6	
629.21	5579.3	
629.4	4367.6	
629.59	4561.5	
629.78	5584.8	
629.97	6205.3	
630.16	4548.5	
630.35	4256.4	
630.54	6593.8	
630.72	6372.6	
630.91	4332.1	
631.1	4618.9	
631.29	6000.5	
631.48	6005.3	
631.67	4730.1	
631.86	4353.3	
632.05	5798.5	
632.24	5849.7	
632.42	4153.3	
632.61	4522.6	
632.8	5868.8	
632.99	5584.8	
633.18	4559.5	
633.37	4746.5	
633.56	6089.3	
633.75	5932.3	
633.93	4524.6	
634.12	4346.5	
634.31	6604.7	
634.5	6246.3	
634.69	4334.2	
634.88	4635.2	
635.07	5945.3	
635.25	6286.6	
635.44	4909.7	
635.63	4970.4	
635.82	5829.2	
636.01	5268.7	
636.2	4816.8	
636.39	4504.8	
636.57	6521.4	
636.76	6243.6	
636.95	4209.3	
637.14	5038.7	
637.33	6115.2	
637.52	6548.7	
637.7	4050.2	
637.89	4741	
638.08	5873.6	
638.27	6705	
638.46	4688.5	
638.65	4952.7	
638.83	6761	
639.02	5752.7	
639.21	4739.7	
639.4	4926.7	
639.59	5941.8	
639.78	5770.5	
639.96	4267.3	
640.15	4305.5	
640.34	5953.4	
640.53	5999.2	
640.72	4181.3	
640.91	4360.1	
641.09	5600.5	
641.28	6451.1	
641.47	4320.5	
641.66	4883	
641.85	6043.6	
642.03	6110.5	
642.22	4656.4	
642.41	4394.9	
642.6	5687.9	
642.79	5282.4	
642.97	4248.2	
643.16	4607.9	
643.35	5669.5	
643.54	5530.2	
643.73	4148.5	
643.91	4633.9	
644.1	5467.4	
644.29	5852.4	
644.48	4226.3	
644.67	4243.4	
644.85	5477	
645.04	5879.7	
645.23	4016.7	
645.42	4227.7	
645.6	5598.5	
645.79	6222.4	
645.98	4196.3	
646.17	3649.5	
646.36	5440.8	
646.54	5711.8	
646.73	4755.4	
646.92	3987.4	
647.11	5550	
647.29	6089.3	
647.48	4021.5	
647.67	3879.5	
647.86	6363.7	
648.05	6249.7	
648.23	4239.3	
648.42	4991.6	
648.61	5997.1	
648.8	5773.9	
648.98	4014	
649.17	4258.4	
649.36	5530.2	
649.55	5203.9	
649.73	4086.4	
649.92	4518.5	
650.11	5388.9	
650.3	5742.5	
650.48	4091.2	
650.67	3986	
650.86	5868.8	
651.05	5128.1	
651.23	4114.4	
651.42	4046.1	
651.61	5537	
651.79	5389.6	
651.98	4212	
652.17	3949.8	
652.36	5834	
652.54	5233.2	
652.73	4060.4	
652.92	3900	
653.11	5782.8	
653.29	5821.7	
653.48	3603.7	
653.67	4207.2	
653.85	5680.4	
654.04	6312.5	
654.23	4288.4	
654.42	4010.6	
654.6	5410.1	
654.79	5770.5	
654.98	3713.6	
655.16	4107.5	
655.35	5233.2	
655.54	4988.2	
655.73	3806.5	
655.91	3732.8	
656.1	5711.1	
656.29	5017.5	
656.47	3504.1	
656.66	4567.7	
656.85	5267.4	
657.03	5291.3	
657.22	3806.5	
657.41	3889.8	
657.59	5301.5	
657.78	5234.6	
657.97	3607.2	
658.16	4085	
658.34	5726.1	
658.53	5898.8	
658.72	4605.2	
658.9	4923.3	
659.09	5478.3	
659.28	5425.8	
659.46	3889.1	
659.65	3813.3	
659.84	5208.7	
660.02	5707.7	
660.21	3914.4	
660.4	3753.2	
660.58	5870.8	
660.77	5374.6	
660.96	4157.4	
661.14	3554.6	
661.33	6180.1	
661.52	6044.9	
661.7	3498.6	
661.89	5722.7	
662.08	5261.9	
662.26	4799.1	
662.45	3719.1	
662.64	3834.5	
662.82	5696.1	
663.01	5111	
663.2	3794.9	
663.38	4257	
663.57	5582.1	
663.75	5535	
663.94	3962.1	
664.13	4813.4	
664.31	5251	
664.5	5627.8	
664.69	4245.4	
664.87	4460.5	
665.06	5077.6	
665.25	5499.5	
665.43	4673.5	
665.62	4616.8	
665.8	5599.8	
665.99	5227.8	
666.18	4028.4	
666.36	4051.6	
666.55	5696.1	
666.74	5552.7	
666.92	3814.7	
667.11	4855.7	
667.29	5352.7	
667.48	5611.4	
667.67	4543.1	
667.85	3928.7	
668.04	5257.1	
668.22	5232.6	
668.41	4050.2	
668.6	4301.4	
668.78	5203.9	
668.97	5293.3	
669.15	4290.5	
669.34	3570.3	
669.53	5229.8	
669.71	5416.9	
669.9	3754.6	
670.08	4158.7	
670.27	5058.5	
670.46	5599.8	
670.64	4354	
670.83	4456.4	
671.01	5103.5	
671.2	5450.3	
671.38	3833.1	
671.57	3751.2	
671.76	5868.8	
671.94	6238.8	
672.13	3658.4	
672.31	4392.9	
672.5	5631.9	
672.69	5132.2	
672.87	3786.7	
673.06	3970.3	
673.24	5586.9	
673.43	5295.4	
673.61	4252.3	
673.8	3969.6	
673.98	5588.9	
674.17	5649	
674.36	4382	
674.54	4238.6	
674.73	5365.7	
674.91	5694	
675.1	4100	
675.28	3775.8	
675.47	5350	
675.65	5695.4	
675.84	4005.1	
676.03	4106.2	
676.21	5282.4	
676.4	4757.4	
676.58	4473.4	
676.77	4305.5	
676.95	6163.7	
677.14	5199.8	
677.32	3710.2	
677.51	3745.7	
677.69	5675.6	
677.88	5046.9	
678.06	3775.8	
678.25	3887	
678.44	5362.3	
678.62	5098.8	
678.81	3644.7	
678.99	4137.6	
679.18	5887.9	
679.36	5528.8	
679.55	3986.7	
679.73	4369	
679.92	5571.8	
680.1	5159.5	
680.29	4782.7	
680.47	3918.4	
680.66	5192.3	
680.84	5748	
681.03	3581.2	
681.21	4231.1	
681.4	5208	
681.58	5117.9	
681.77	3844.7	
681.95	3831.1	
682.14	5734.3	
682.32	5986.9	
682.51	4390.8	
682.69	3670.6	
682.88	5165	
683.06	5489.9	
683.25	4231.1	
683.43	4435.2	
683.62	5461.9	
683.8	5581.4	
683.99	4567	
684.17	4130.1	
684.36	6148.7	
684.54	5328.1	
684.73	3614.7	
684.91	3750.5	
685.1	5515.9	
685.28	5133.6	
685.46	4145.1	
685.65	4181.3	
685.83	5619.6	
686.02	5279.7	
686.2	3788.7	
686.39	3895.2	
686.57	4975.9	
686.76	5962.3	
686.94	3774.4	
687.13	3891.1	
687.31	5517.2	
687.5	5309.7	
687.68	3596.9	
687.86	4258.4	
688.05	6333.7	
688.23	4902.8	
688.42	4328.7	
688.6	3814	
688.79	5149.3	
688.97	5184.8	
689.16	4069.3	
689.34	3456.3	
689.52	5571.2	
689.71	5814.2	
689.89	4229.7	
690.08	3822.2	
690.26	5418.2	
690.45	5210.7	
690.63	4450.9	
690.81	3929.4	
691	5294.7	
691.18	5085.1	
691.37	4037.2	
691.55	5402.5	
691.74	5128.1	
691.92	6440.2	
692.1	4024.9	
692.29	3678.2	
692.47	5248.9	
692.66	4879.6	
692.84	3790.8	
693.02	4094.6	
693.21	4894	
693.39	5276.9	
693.58	4207.9	
693.76	3893.2	
693.94	5951.4	
694.13	5795.8	
694.31	3775.1	
694.5	4450.9	
694.68	5104.2	
694.86	5322	
695.05	4041.3	
695.23	4063.2	
695.42	5582.8	
695.6	6931.7	
695.78	4433.2	
695.97	3827.7	
696.15	5634	
696.34	5153.4	
696.52	3706.1	
696.7	4261.1	
696.89	5433.3	
697.07	5067.4	
697.25	4163.5	
697.44	4997.7	
697.62	5477	
697.81	5582.8	
697.99	3982.6	
698.17	4183.3	
698.36	5051	
698.54	5474.2	
698.72	4171.7	
698.91	3594.2	
699.09	5259.2	
699.28	5063.3	
699.46	4004.5	
699.64	3882.9	
699.83	5132.2	
700.01	5755.5	
700.19	4427.7	
700.38	3392.8	
700.56	5764.3	
700.74	5061.9	
700.93	3614	
701.11	4181.3	
701.29	5416.9	
701.48	6062.7	
701.66	3787.4	
701.84	3880.2	
702.03	5212.8	
702.21	5646.9	
702.39	3577.1	
702.58	3881.6	
702.76	5480.4	
702.94	5482.4	
703.13	3508.2	
703.31	5043.5	
703.49	5075.5	
703.68	5712.5	
703.86	3693.2	
704.04	4263.2	
704.23	5382.7	
704.41	5614.2	
704.59	3796.9	
704.78	4520.5	
704.96	6374	
705.14	5548.6	
705.33	3655.6	
705.51	4134.8	
705.69	5150.6	
705.87	5729.5	
706.06	4223.6	
706.24	3579.2	
706.42	5380.7	
706.61	5520	
706.79	4364.2	
706.97	3579.8	
707.16	5119.2	
707.34	5356.1	
707.52	4268	
707.7	3725.9	
707.89	5055.8	
708.07	4928.8	
708.25	4304.1	
708.44	4308.9	
708.62	4995.7	
708.8	5800.5	
708.98	4432.5	
709.17	3820.1	
709.35	5277.6	
709.53	5349.3	
709.72	3624.9	
709.9	3736.2	
710.08	5582.8	
710.26	5565.7	
710.45	4662.5	
710.63	3759.4	
710.81	5214.8	
710.99	5355.4	
711.18	4248.2	
711.36	3842	
711.54	5184.1	
711.72	5677	
711.91	3981.3	
712.09	3651.5	
712.27	5373.2	
712.45	5677	
712.64	4108.9	
712.82	3479.5	
713	4992.3	
713.18	5131.5	
713.37	3578.5	
713.55	4454.3	
713.73	5621	
713.91	4824.3	
714.1	3783.3	
714.28	3518.4	
714.46	5430.5	
714.64	4941.7	
714.83	3279.5	
715.01	3758	
715.19	5103.5	
715.37	4582.7	
715.55	3596.2	
715.74	3764.8	
715.92	5598.5	
716.1	4306.2	
716.28	4392.2	
716.47	3786	
716.65	4866.7	
716.83	4830.5	
717.01	3731.4	
717.19	3701.4	
717.38	6120	
717.56	4639.3	
717.74	3879.5	
717.92	3321.1	
718.1	5397.1	
718.29	4902.2	
718.47	3054.2	
718.65	3411.9	
718.83	5339.1	
719.01	5217.5	
719.2	2990.7	
719.38	3706.8	
719.56	5066	
719.74	6015.6	
719.92	3466.5	
720.11	4085.7	
720.29	5221	
720.47	4627.7	
720.65	3173.7	
720.83	3702.7	
721.02	4915.8	
721.2	4711.7	
721.38	3788.7	
721.56	3375.7	
721.74	4386.7	
721.92	4483	
722.11	4063.2	
722.29	3849.5	
722.47	5322	
722.65	4732.2	
722.83	3288.4	
723.01	3858.4	
723.2	4804.5	
723.38	5037.3	
723.56	2953.9	
723.74	3659.7	
723.92	4504.8	
724.1	5203.9	
724.29	3190.1	
724.47	4024.3	
724.65	4603.8	
724.83	4447.5	
725.01	3216.7	
725.19	3714.3	
725.37	4506.9	
725.56	4539	
725.74	3120.4	
725.92	3263.8	
726.1	4487.1	
726.28	4683.7	
726.46	3532.7	
726.64	3315.7	
726.83	4756.7	
727.01	4828.4	
727.19	3188	
727.37	3590.1	
727.55	4842.8	
727.73	5122.7	
727.91	3085.6	
728.09	2961.4	
728.28	5116.5	
728.46	5238	
728.64	3610.6	
728.82	3628.3	
729	5674.9	
729.18	5313.1	
729.36	3020.8	
729.54	4513.7	
729.72	5900.9	
729.91	4800.4	
730.09	4356.7	
730.27	3568.2	
730.45	4741	
730.63	5095.3	
730.81	3852.2	
730.99	3233.1	
731.17	5522.7	
731.35	4589.5	
731.53	3547.1	
731.71	3388.7	
731.9	5240.8	
732.08	5379.3	
732.26	3619.4	
732.44	3343.7	
732.62	5482.4	
732.8	5055.1	
732.98	3798.3	
733.16	3242.6	
733.34	5185.5	
733.52	4234.5	
733.7	3518.4	
733.88	3621.5	
734.07	4973.8	
734.25	4860.5	
734.43	3162.7	
734.61	4089.1	
734.79	5800.5	
734.97	4806.6	
735.15	3310.9	
735.33	3478.1	
735.51	5042.8	
735.69	4805.2	
735.87	4113	
736.05	3638.6	
736.23	4926	
736.41	4637.3	
736.59	3565.5	
736.77	3616	
736.95	5205.3	
737.13	4726	
737.32	3306.8	
737.5	3375.7	
737.68	5559.6	
737.86	4673.5	
738.04	3195.5	
738.22	4339.6	
738.4	4694.6	
738.58	4896	
738.76	3556	
738.94	2887	
739.12	4741	
739.3	4648.9	
739.48	3954.6	
739.66	3761.4	
739.84	4884.4	
740.02	4835.3	
740.2	3033.7	
740.38	3161.4	
740.56	5130.8	
740.74	4306.9	
740.92	3667.2	
741.1	3577.1	
741.28	4769	
741.46	4621.6	
741.64	3329.3	
741.82	3700.7	
742	4818.2	
742.18	4648.9	
742.36	3485.6	
742.54	3207.1	
742.72	5203.2	
742.9	4327.4	
743.08	3741	
743.26	2985.9	
743.44	5167	
743.62	5139	
743.8	3827	
743.98	3198.2	
744.16	4997	
744.34	4754.7	
744.52	3745.7	
744.7	3697.9	
744.88	5089.2	
745.06	4759.5	
745.24	3756	
745.42	3833.1	
745.6	5177.9	
745.78	5035.3	
745.96	3082.2	
746.14	3211.2	
746.32	5651.7	
746.5	5107	
746.68	3599	
746.86	3241.9	
747.03	5386.8	
747.21	4414.7	
747.39	3643.3	
747.57	3213.3	
747.75	4892.6	
747.93	5150	
748.11	3282.2	
748.29	3197.6	
748.47	5945.3	
748.65	4648.9	
748.83	3697.9	
749.01	3502	
749.19	5017.5	
749.37	4455.7	
749.55	3530	
749.73	3491.8	
749.91	4842.8	
750.09	4752.7	
750.26	3583.9	
750.44	3154.6	
750.62	4783.4	
750.8	4764.3	
750.98	3196.2	
751.16	3289.7	
751.34	4952	
751.52	4433.2	
751.7	3797.6	
751.88	3052.2	
752.06	5197.1	
752.24	4977.9	
752.42	3058.3	
752.59	3276.8	
752.77	4838	
752.95	5680.4	
753.13	3790.1	
753.31	3355.3	
753.49	4633.2	
753.67	4911.7	
753.85	3586	
754.03	3255.6	
754.21	5113.8	
754.38	5319.3	
754.56	3379.8	
754.74	2806.4	
754.92	4610.7	
755.1	5015.5	
755.28	2856.9	
755.46	2861.7	
755.64	5670.8	
755.82	5724.1	
755.99	3114.3	
756.17	3158	
756.35	4102.1	
756.53	5105.6	
756.71	2513.5	
756.89	3381.9	
757.07	4789.5	
757.25	4252.3	
757.42	3435.8	
757.6	4022.9	
757.78	4853	
757.96	4207.9	
758.14	3195.5	
758.32	2872.6	
758.5	3916.4	
758.67	4472.8	
758.85	3056.9	
759.03	3142.3	
759.21	4659.1	
759.39	4215.4	
759.57	2779.8	
759.75	3497.2	
759.92	5136.3	
760.1	4667.3	
760.28	3796.3	
760.46	3962.1	
760.64	4403.1	
760.82	4242.7	
760.99	3677.5	
761.17	3151.8	
761.35	4969.7	
761.53	4231.8	
761.71	3309.5	
761.89	3596.2	
762.06	4760.8	
762.24	4506.9	
762.42	3269.2	
762.6	3099.3	
762.78	4469.4	
762.96	4880.3	
763.13	3473.4	
763.31	3244	
763.49	5005.2	
763.67	4437.9	
763.85	3768.9	
764.02	4131.4	
764.2	5198.4	
764.38	4528.1	
764.56	3120.4	
764.74	3716.4	
764.91	5221	
765.09	4449.6	
765.27	3029.6	
765.45	2848.7	
765.63	5316.5	
765.8	5148.6	
765.98	2697.9	
766.16	2889.7	
766.34	4248.9	
766.52	4063.9	
766.69	3491.1	
766.87	2846	
767.05	4525.3	
767.23	4990.2	
767.41	3044.6	
767.58	3192.8	
767.76	4910.3	
767.94	4982.7	
768.12	3089.7	
768.29	3540.3	
768.47	4523.3	
768.65	5039.4	
768.83	2813.9	
769	3563.5	
769.18	4321.9	
769.36	4805.9	
769.54	3563.5	
769.72	2938.8	
769.89	4988.9	
770.07	4960.9	
770.25	3164.8	
770.43	3966.2	
770.6	5439.4	
770.78	5729.5	
770.96	3210.5	
771.14	3565.5	
771.31	4912.4	
771.49	4506.9	
771.67	2725.8	
771.85	2832.3	
772.02	4003.1	
772.2	4472.1	
772.38	3344.3	
772.55	2998.9	
772.73	4700.8	
772.91	4471.4	
773.09	3280.2	
773.26	3302	
773.44	4674.8	
773.62	4500.8	
773.8	2964.1	
773.97	2800.9	
774.15	4687.8	
774.33	4474.1	
774.5	2935.4	
774.68	3046	
774.86	4859.8	
775.04	4472.1	
775.21	2928.6	
775.39	2904.7	
775.57	4728.1	
775.74	4803.9	
775.92	2760.7	
776.1	2740.2	
776.27	4635.9	
776.45	5441.5	
776.63	2902.7	
776.81	2684.9	
776.98	4430.4	
777.16	5094.7	
777.34	3047.4	
777.51	3193.5	
777.69	4462.5	
777.87	4205.2	
778.04	3194.1	
778.22	3426.3	
778.4	4354.7	
778.57	4702.8	
778.75	2635.1	
778.93	2838.5	
779.1	4194.2	
779.28	4068.6	
779.46	2626.9	
779.64	2914.3	
779.81	4869.4	
779.99	5321.3	
780.17	3431	
780.34	3512.3	
780.52	4468	
780.69	4593.6	
780.87	3212.6	
781.05	2884.9	
781.22	4629.8	
781.4	4556.7	
781.58	2976.4	
781.75	2450.7	
781.93	4584	
782.11	4122.6	
782.28	3524.6	
782.46	2964.8	
782.64	4055	
782.81	4648.9	
782.99	3078.1	
783.17	3039.2	
783.34	4562.2	
783.52	4222.9	
783.69	3093.1	
783.87	3723.2	
784.05	4260.5	
784.22	4182	
784.4	3669.3	
784.58	3174.4	
784.75	4835.3	
784.93	4280.9	
785.1	2975.7	
785.28	3360.7	
785.46	4668	
785.63	4125.3	
785.81	2964.1	
785.99	2807.1	
786.16	4359.4	
786.34	4503.5	
786.51	2874.7	
786.69	3155.9	
786.87	3982.6	
787.04	4341	
787.22	2847.4	
787.39	3462.4	
787.57	4204.5	
787.75	4931.5	
787.92	3562.8	
788.1	3456.3	
788.27	4151.2	
788.45	3930.1	
788.63	3269.9	
788.8	2471.2	
788.98	4584.7	
789.15	3867.9	
789.33	2583.2	
789.5	3038.5	
789.68	4774.5	
789.86	4839.4	
790.03	3287	
790.21	2903.3	
790.38	4866.7	
790.56	4261.1	
790.73	2859	
790.91	2824.1	
791.09	4218.8	
791.26	4601.8	
791.44	2994.8	
791.61	2650.1	
791.79	4221.5	
791.96	4171.7	
792.14	2704	
792.32	2400.2	
792.49	4177.2	
792.67	4290.5	
792.84	2800.9	
793.02	2638.5	
793.19	4728.1	
793.37	4900.1	
793.54	2462.3	
793.72	2666.5	
793.89	4952	
794.07	4161.5	
794.25	3086.3	
794.42	2488.3	
794.6	4812	
794.77	4607.2	
794.95	3246	
795.12	2854.2	
795.3	4251.6	
795.47	4601.8	
795.65	3142.9	
795.82	2984.6	
796	4117.1	
796.17	5285.1	
796.35	2923.8	
796.52	3426.3	
796.7	4554.7	
796.87	4635.9	
797.05	2896.5	
797.22	3470.6	
797.4	4655	
797.57	5205.3	
797.75	3050.1	
797.92	2850.8	
798.1	4840	
798.27	4039.3	
798.45	2557.2	
798.62	2684.9	
798.8	4432.5	
798.97	4711.7	
799.15	3186.6	
799.32	3040.6	
799.5	3956.7	
799.67	4374.5	
799.85	3252.9	
800.02	2489	
800.2	4186	
800.37	4283.7	
800.55	3354.6	
800.72	2871.3	
800.9	4724.7	
801.07	4937.7	
801.25	3738.9	
801.42	3136.8	
801.6	4754	
801.77	4445.5	
801.95	2977.7	
802.12	2816.6	
802.29	4534.9	
802.47	4394.3	
802.64	3119.7	
802.82	2439.8	
802.99	4187.4	
803.17	4789.5	
803.34	3079.5	
803.52	2775.7	
803.69	5268.7	
803.87	4023.6	
804.04	3013.2	
804.21	3084.2	
804.39	4926.7	
804.56	4306.2	
804.74	2660.3	
804.91	3113.6	
805.09	4235.9	
805.26	4190.8	
805.44	2678.1	
805.61	2927.9	
805.78	4662.5	
805.96	4541	
806.13	3102	
806.31	3304.7	
806.48	3862.5	
806.66	4188.8	
806.83	3162.7	
807	3049.4	
807.18	4237.9	
807.35	4414.1	
807.53	2988	
807.7	2581.8	
807.87	4936.3	
808.05	4211.3	
808.22	3309.5	
808.4	2557.2	
808.57	4168.3	
808.74	3988.8	
808.92	2876.7	
809.09	3492.5	
809.27	4194.2	
809.44	4511	
809.61	2517	
809.79	2743.6	
809.96	5079	
810.14	4621.6	
810.31	2467.8	
810.48	3040.6	
810.66	4283	
810.83	4702.8	
811.01	2888.3	
811.18	3079.5	
811.35	4704.9	
811.53	3809.2	
811.7	3350.5	
811.87	3168.9	
812.05	4310.3	
812.22	4177.2	
812.39	2800.3	
812.57	2674	
812.74	4286.4	
812.92	5237.3	
813.09	2940.9	
813.26	3121.8	
813.44	5094	
813.61	4113.7	
813.78	2583.2	
813.96	3229.6	
814.13	4254.3	
814.3	4076.8	
814.48	3447.4	
814.65	2932	
814.82	5024.3	
815	3943	
815.17	3020.8	
815.34	3542.3	
815.52	4159.4	
815.69	4135.5	
815.87	2974.3	
816.04	2938.2	
816.21	4134.2	
816.38	3847.5	
816.56	2932.7	
816.73	2737.5	
816.9	5181.4	
817.08	4658.4	
817.25	2799.6	
817.42	3339.6	
817.6	3884.3	
817.77	4179.2	
817.94	3069.2	
818.12	2779.1	
818.29	4080.9	
818.46	5655.1	
818.64	2856.9	
818.81	2668.5	
818.98	4055	
819.16	5354.1	
819.33	3164.1	
819.5	3109.5	
819.67	4435.2	
819.85	4894	
820.02	3036.5	
820.19	3158.7	
820.37	4398.4	
820.54	4149.9	
820.71	3084.2	
820.88	3714.3	
821.06	4370.4	
821.23	4081.6	
821.4	3076	
821.58	3059	
821.75	4588.8	
821.92	4379.9	
822.09	2582.5	
822.27	2598.2	
822.44	4216.8	
822.61	4189.5	
822.79	2585.9	
822.96	4549.2	
823.13	4457.1	
823.3	3977.8	
823.48	2865.8	
823.65	2586.6	
823.82	4739.7	
823.99	3933.5	
824.17	3574.4	
824.34	2712.9	
824.51	5256.5	
824.68	4229.7	
824.86	2805	
825.03	3082.2	
825.2	4229.1	
825.37	4859.1	
825.55	2775.7	
825.72	3022.1	
825.89	5253.7	
826.06	4922.6	
826.24	2961.4	
826.41	2981.8	
826.58	5019.6	
826.75	4405.9	
826.92	2496.5	
827.1	2688.3	
827.27	6326.9	
827.44	5236.7	
827.61	2839.8	
827.79	3272.7	
827.96	4103.4	
828.13	4214.7	
828.3	2996.2	
828.47	2545.6	
828.65	4518.5	
828.82	4410	
828.99	3568.2	
829.16	3207.8	
829.34	4775.2	
829.51	4610	
829.68	2997.5	
829.85	3003.7	
830.02	5030.5	
830.2	4747.9	
830.37	2409.8	
830.54	3485	
830.71	5205.9	
830.88	4318.5	
831.05	2394.1	
831.23	2722.4	
831.4	5065.3	
831.57	5436	
831.74	2783.9	
831.91	2491	
832.09	4575.2	
832.26	4674.1	
832.43	2833.7	
832.6	3219.4	
832.77	4526	
832.94	4999.1	
833.12	2402.3	
833.29	2820.1	
833.46	4568.3	
833.63	5597.1	
833.8	3128.6	
833.97	2841.2	
834.15	4771.8	
834.32	4598.4	
834.49	2996.9	
834.66	3025.5	
834.83	4780.6	
835	4134.2	
835.17	2746.3	
835.35	2792.1	
835.52	4654.4	
835.69	4540.3	
835.86	2956.6	
836.03	2452.1	
836.2	4747.9	
836.37	4433.2	
836.55	2810.5	
836.72	2750.4	
836.89	4386.1	
837.06	4815.5	
837.23	2927.2	
837.4	3161.4	
837.57	5274.9	
837.75	5596.4	
837.92	2674	
838.09	2810.5	
838.26	4440.7	
838.43	4818.9	
838.6	2986.6	
838.77	2723.8	
838.94	5382.7	
839.11	5247.6	
839.29	2923.1	
839.46	2351.8	
839.63	4704.9	
839.8	4472.8	
839.97	2792.1	
840.14	2747	
840.31	4611.3	
840.48	4721.9	
840.65	2420.7	
840.82	2789.3	
841	4645.5	
841.17	4529.4	
841.34	2553.1	
841.51	2680.1	
841.68	4677.6	
841.85	4399.7	
842.02	2705.4	
842.19	2312.2	
842.36	4582	
842.53	4560.8	
842.7	2632.3	
842.87	3126.6	
843.05	5607.3	
843.22	4491.9	
843.39	2460.3	
843.56	2680.8	
843.73	4409.3	
843.9	4743.8	
844.07	3969	
844.24	3309.5	
844.41	6212.2	
844.58	4156	
844.75	2573.6	
844.92	2718.3	
845.09	4645.5	
845.26	4663.2	
845.43	2574.3	
845.6	2720.4	
845.77	4724.7	
845.94	4515.1	
846.12	2856.2	
846.29	3059	
846.46	4827.1	
846.63	4645.5	
846.8	2608.4	
846.97	3051.5	
847.14	4995.7	
847.31	4599.7	
847.48	2915.6	
847.65	3097.2	
847.82	4825.7	
847.99	4810.7	
848.16	3321.8	
848.33	3104.7	
848.5	4400.4	
848.67	4943.8	
848.84	2548.4	
849.01	2718.3	
849.18	4287.8	
849.35	4106.9	
849.52	3150.5	
849.69	2527.2	
849.86	4853.7	
850.03	4876.9	
850.2	2563.4	
850.37	3054.2	
850.54	4845.5	
850.71	4412	
850.88	3036.5	
851.05	2574.3	
851.22	4565.6	
851.39	4930.1	
851.56	2458.9	
851.73	2892.4	
851.9	4241.3	
852.07	4808.6	
852.24	2834.4	
852.41	2566.8	
852.58	4664.6	
852.75	4278.9	
852.92	2855.6	
853.09	2544.9	
853.26	4324.6	
853.43	4848.9	
853.6	2598.9	
853.77	2268.5	
853.94	5040.1	
854.11	4149.9	
854.28	3555.3	
854.44	2788.7	
854.61	5250.3	
854.78	4838	
854.95	2542.2	
855.12	3167.5	
855.29	3936.2	
855.46	5151.3	
855.63	2628.9	
855.8	3458.3	
855.97	4344.4	
856.14	4937	
856.31	3498.6	
856.48	2841.2	
856.65	4431.8	
856.82	4154	
856.99	2535.4	
857.16	2735.4	
857.33	5446.2	
857.49	4427	
857.66	2727.2	
857.83	2973.7	
858	4496.7	
858.17	4600.4	
858.34	2504.7	
858.51	2600.9	
858.68	5032.5	
858.85	4998.4	
859.02	2944.3	
859.19	3095.2	
859.36	4205.2	
859.52	4243.4	
859.69	2626.2	
859.86	3011.2	
860.03	4240	
860.2	5009.3	
860.37	2438.4	
860.54	2632.3	
860.71	4809.3	
860.88	4998.4	
861.05	2885.6	
861.21	3193.5	
861.38	5028.4	
861.55	4076.1	
861.72	2422.7	
861.89	2830.3	
862.06	4838.7	
862.23	5089.9	
862.4	2500.6	
862.56	2613.2	
862.73	4753.3	
862.9	4494.6	
863.07	2930	
863.24	2444.6	
863.41	4190.1	
863.58	4208.6	
863.75	2670.6	
863.91	2981.8	
864.08	4924	
864.25	4803.2	
864.42	3143.6	
864.59	3509.5	
864.76	5190.2	
864.93	4164.2	
865.09	2561.3	
865.26	2772.9	
865.43	4932.2	
865.6	5223.7	
865.77	2306	
865.94	2560.6	
866.1	4924	
866.27	4740.4	
866.44	3679.5	
866.61	2540.2	
866.78	4478.9	
866.95	4761.5	
867.11	2565.4	
867.28	2321.7	
867.45	4958.8	
867.62	4197.7	
867.79	2910.2	
867.96	2590	
868.12	4170.3	
868.29	4806.6	
868.46	2598.2	
868.63	3364.1	
868.8	4899.4	
868.97	4761.5	
869.13	2693.8	
869.3	2650.8	
869.47	4663.2	
869.64	4830.5	
869.81	2588.6	
869.97	2570.2	
870.14	4568.3	
870.31	5019.6	
870.48	2485.6	
870.65	3182.5	
870.81	4438.6	
870.98	4427.7	
871.15	2934.7	
871.32	2695.8	
871.48	4719.9	
871.65	5015.5	
871.82	2626.2	
871.99	2816.6	
872.16	5374.6	
872.32	4967.7	
872.49	2615.9	
872.66	2597.5	
872.83	4821.6	
872.99	4279.6	
873.16	2919	
873.33	2553.8	
873.5	4555.4	
873.67	4611.3	
873.83	2744.3	
874	3345.7	
874.17	4630.5	
874.34	5222.3	
874.5	3231	
874.67	3127.2	
874.84	5001.1	
875.01	4056.3	
875.17	3500.7	
875.34	2565.4	
875.51	4614.8	
875.68	5356.8	
875.84	3050.1	
876.01	3558.7	
876.18	4772.4	
876.34	4754.7	
876.51	2602.3	
876.68	2581.8	
876.85	4407.9	
877.01	4990.2	
877.18	3543	
877.35	2578.4	
877.52	4709	
877.68	4188.8	
877.85	2567.5	
878.02	2553.1	
878.18	4393.6	
878.35	4312.3	
878.52	2127.8	
878.69	3001	
878.85	4876.9	
879.02	4721.9	
879.19	3525.9	
879.35	2770.2	
879.52	4786.8	
879.69	4795	
879.86	2310.8	
880.02	2894.5	
880.19	4545.8	
880.36	5259.9	
880.52	2960.7	
880.69	3037.8	
880.86	4843.4	
881.02	4867.3	
881.19	2844.6	
881.36	2737.5	
881.52	4769	
881.69	4255	
881.86	2768.2	
882.02	2677.4	
882.19	4926.7	
882.36	5596.4	
882.52	2688.3	
882.69	3465.8	
882.86	4618.2	
883.02	4599.7	
883.19	3023.5	
883.36	2947	
883.52	4801.1	
883.69	5367.7	
883.86	2603.7	
884.02	2394.8	
884.19	4790.2	
884.36	4562.2	
884.52	2868.5	
884.69	2804.4	
884.86	4398.4	
885.02	5081.7	
885.19	2838.5	
885.36	2927.2	
885.52	4481	
885.69	4624.3	
885.86	3607.8	
886.02	3203.7	
886.19	4852.3	
886.35	4411.3	
886.52	2807.1	
886.69	3493.2	
886.85	4227.7	
887.02	5001.8	
887.19	5001.8	
887.35	5001.8	
887.52	5001.8	
887.68	5001.8	
887.85	5001.8	
888.02	5001.8	
888.18	5001.8	
888.35	5001.8	
888.51	5001.8	
888.68	5001.8	
888.85	5001.8	
889.01	5001.8	
889.18	5001.8	
889.35	5001.8	
889.51	5001.8	
889.68	5001.8	
889.84	5001.8	
890.01	5001.8	
890.17	5001.8	
890.34	5001.8	
890.51	5001.8	
890.67	5001.8	
890.84	5001.8	
891	5001.8	
891.17	5001.8	
891.34	5001.8	
891.5	5001.8	
891.67	5001.8	
891.83	5001.8	
892	5001.8	
892.16	5001.8	
892.33	5001.8	
892.5	5001.8	
892.66	5001.8	
892.83	5001.8	
892.99	5001.8	
893.16	5001.8	
893.32	5001.8	
893.49	5001.8	
893.65	5001.8	
893.82	5001.8	
893.99	5001.8	
894.15	5001.8	
894.32	5001.8	
894.48	5001.8	
894.65	5001.8	
894.81	5001.8	
894.98	5001.8	
895.14	5001.8	
895.31	5001.8	
895.47	5001.8	
895.64	5001.8	
895.81	5001.8	
895.97	5001.8	
896.14	5001.8	
896.3	5001.8	
896.47	5001.8	
896.63	5001.8	
896.8	5001.8	
896.96	5001.8	
897.13	5001.8	
897.29	5001.8	
897.46	5001.8	
897.62	5001.8	
897.79	5001.8	
897.95	5001.8	
898.12	5001.8	
898.28	5001.8	
898.45	5001.8	
898.61	5001.8	
898.78	5001.8	
898.94	5001.8	
899.11	5001.8	
899.27	5001.8	
899.44	5001.8	
899.6	5001.8	
899.77	5001.8	
899.93	5001.8	
900.1	5001.8	
900.26	5001.8	
900.43	5001.8	
900.59	5001.8	
900.76	5001.8	
900.92	5001.8	
901.09	5001.8	
901.25	5001.8	
901.42	5001.8	
901.58	5001.8	
901.75	5001.8	
901.91	5001.8	
902.07	5001.8	
902.24	5001.8	
902.4	5001.8	
902.57	5001.8	
902.73	5001.8	
902.9	5001.8	
903.06	5001.8	
903.23	5001.8	
903.39	5001.8	
903.56	5001.8	
903.72	5001.8	
903.88	5001.8	
904.05	5001.8	
904.21	5001.8	
904.38	5001.8	
904.54	5001.8	
904.71	5001.8	
904.87	5001.8	
905.03	5001.8	
905.2	5001.8	
905.36	5001.8	
905.53	5001.8	
905.69	5001.8	
905.86	5001.8	
906.02	5001.8	
906.18	5001.8	
906.35	5001.8	
906.51	5001.8	
906.68	5001.8	
906.84	5001.8	
907.01	5001.8	
907.17	5001.8	
907.33	5001.8	
907.5	5001.8	
907.66	5001.8	
907.83	5001.8	
907.99	5001.8	
908.15	5001.8	
908.32	5001.8	
908.48	5001.8	
908.65	5001.8	
908.81	5001.8	
908.97	5001.8	
909.14	5001.8	
909.3	5001.8	
909.47	5001.8	
909.63	5001.8	
909.79	5001.8	
909.96	5001.8	
910.12	5001.8	
910.28	5001.8	
910.45	5001.8	
910.61	5001.8	
910.78	5001.8	
910.94	5001.8	
911.1	5001.8	
911.27	5001.8	
911.43	5001.8	
911.59	5001.8	
911.76	5001.8	
911.92	5001.8	
912.08	5001.8	
912.25	5001.8	
912.41	5001.8	
912.57	5001.8	
912.74	5001.8	
912.9	5001.8	
913.07	5001.8	
913.23	5001.8	
913.39	5001.8	
913.56	5001.8	
913.72	5001.8	
913.88	5001.8	
914.05	5001.8	
914.21	5001.8	
914.37	5001.8	
914.54	5001.8	
914.7	5001.8	
914.86	5001.8	
915.03	5001.8	
915.19	5001.8	
