Wavelength	Intensities	
nm	a.u.	
179.22	1554.4	
179.44	1546.2	
179.65	1562.6	
179.86	1529.8	
180.08	1557.1	
180.29	3374.4	
180.51	2704	
180.72	4577.9	
180.94	4958.1	
181.15	2439.8	
181.37	2395.4	
181.58	4382	
181.79	4493.2	
182.01	2487.6	
182.22	2581.8	
182.44	4531.5	
182.65	4017.4	
182.87	3147	
183.08	2776.4	
183.29	4780.6	
183.51	4046.8	
183.72	2572.2	
183.94	3486.3	
184.15	4358.8	
184.37	4227	
184.58	2376.3	
184.79	2928.6	
185.01	4153.3	
185.22	4640	
185.44	3130	
185.65	2779.1	
185.86	4443.4	
186.08	4020.8	
186.29	2384.5	
186.51	2465.8	
186.72	4127.3	
186.94	4685.8	
187.15	2782.5	
187.36	2841.9	
187.58	5618.3	
187.79	4410	
188.01	2860.3	
188.22	4083	
188.43	5027.8	
188.65	4588.1	
188.86	2495.1	
189.08	2839.8	
189.29	4211.3	
189.5	4180.6	
189.72	2595.5	
189.93	2671.2	
190.15	4663.2	
190.36	5205.3	
190.57	2899.2	
190.79	2753.8	
191	4642.7	
191.22	4683.7	
191.43	2903.3	
191.64	2524.5	
191.86	4801.8	
192.07	4626.4	
192.29	2549.7	
192.5	2600.2	
192.71	4605.9	
192.93	4231.8	
193.14	2623.4	
193.35	2717	
193.57	4188.1	
193.78	4648.2	
194	2212.5	
194.21	2569.5	
194.42	4104.1	
194.64	4366.3	
194.85	2808.4	
195.07	3173	
195.28	4333.5	
195.49	3960.8	
195.71	3282.2	
195.92	2563.4	
196.13	4522.6	
196.35	4501.4	
196.56	3408.5	
196.78	2824.1	
196.99	5255.1	
197.2	4911	
197.42	3082.2	
197.63	2816.6	
197.84	4040	
198.06	4466.6	
198.27	2665.8	
198.48	3261.7	
198.7	4175.8	
198.91	4388.1	
199.13	2884.2	
199.34	2796.8	
199.55	4683.7	
199.77	3846.8	
199.98	2561.3	
200.19	2862.4	
200.41	4360.1	
200.62	4042	
200.83	2924.5	
201.05	3067.9	
201.26	4349.9	
201.47	4142.4	
201.69	2567.5	
201.9	2514.2	
202.11	4334.9	
202.33	4893.3	
202.54	2684.2	
202.76	3002.3	
202.97	4339.6	
203.18	4480.3	
203.4	2899.2	
203.61	2994.8	
203.82	4380.6	
204.04	4136.2	
204.25	2836.4	
204.46	2798.9	
204.68	4393.6	
204.89	4483	
205.1	2794.1	
205.32	2490.3	
205.53	4526	
205.74	4637.3	
205.96	2229.6	
206.17	2827.6	
206.38	4506.2	
206.6	4664.6	
206.81	3136.1	
207.02	2697.2	
207.24	4515.8	
207.45	4738.3	
207.66	2719.7	
207.88	2458.9	
208.09	4408.6	
208.3	4345.1	
208.52	2543.6	
208.73	2814.6	
208.94	4354	
209.15	4754	
209.37	2711.5	
209.58	2809.8	
209.79	4631.8	
210.01	4276.8	
210.22	2334.7	
210.43	2433	
210.65	4285.7	
210.86	4481	
211.07	2708.1	
211.29	2529.9	
211.5	4463.9	
211.71	4339	
211.93	2579.8	
212.14	2598.2	
212.35	4331.5	
212.56	4321.9	
212.78	2843.9	
212.99	2437.1	
213.2	4863.9	
213.42	4217.5	
213.63	2603	
213.84	2719	
214.06	4013.3	
214.27	4046.8	
214.48	2705.4	
214.69	2897.9	
214.91	4773.1	
215.12	4788.8	
215.33	2837.1	
215.55	3007.8	
215.76	5037.3	
215.97	4516.5	
216.18	2749.1	
216.4	2779.8	
216.61	4099.4	
216.82	4642.1	
217.04	2624.8	
217.25	2630.3	
217.46	4717.2	
217.67	4506.9	
217.89	2394.1	
218.1	2387.9	
218.31	4341	
218.53	4458.4	
218.74	2702.6	
218.95	2554.5	
219.16	4331.5	
219.38	4923.3	
219.59	2585.2	
219.8	2951.8	
220.01	5171.1	
220.23	4422.9	
220.44	3177.1	
220.65	2571.6	
220.87	4418.8	
221.08	4753.3	
221.29	2483.5	
221.5	2996.2	
221.72	5350	
221.93	4110.3	
222.14	2849.4	
222.35	3263.1	
222.57	4326	
222.78	4614.1	
222.99	2803	
223.2	2854.9	
223.42	4482.3	
223.63	4523.3	
223.84	2263	
224.05	2237.1	
224.27	5059.8	
224.48	4889.2	
224.69	3243.3	
224.9	2822.1	
225.12	4394.3	
225.33	4283.7	
225.54	2418.7	
225.75	2602.3	
225.97	4097.3	
226.18	4308.2	
226.39	2712.2	
226.6	2607.7	
226.82	4243.4	
227.03	4063.2	
227.24	2823.5	
227.45	2422.7	
227.67	4657.8	
227.88	4779.3	
228.09	3059.7	
228.3	3052.2	
228.52	4547.2	
228.73	4335.5	
228.94	2689.7	
229.15	2456.9	
229.36	4350.6	
229.58	4360.1	
229.79	2750.4	
230	2980.5	
230.21	4999.1	
230.43	4351.9	
230.64	2832.3	
230.85	2920.4	
231.06	4676.2	
231.28	4601.1	
231.49	2471.9	
231.7	2797.5	
231.91	4607.9	
232.12	4347.2	
232.34	2557.2	
232.55	2725.8	
232.76	4691.2	
232.97	4395.6	
233.18	2549	
233.4	2853.5	
233.61	4420.9	
233.82	4173.1	
234.03	2704.7	
234.25	2684.2	
234.46	5513.8	
234.67	4416.8	
234.88	2902.7	
235.09	2602.3	
235.31	4442.7	
235.52	4248.2	
235.73	2768.9	
235.94	2473.9	
236.15	4244.1	
236.37	4971.8	
236.58	2566.1	
236.79	2688.3	
237	4491.2	
237.21	4007.9	
237.43	2922.5	
237.64	2381.1	
237.85	6618.4	
238.06	4126.7	
238.27	2850.8	
238.48	2527.9	
238.7	4564.9	
238.91	4248.2	
239.12	2702.6	
239.33	2881.5	
239.54	4121.2	
239.76	4269.3	
239.97	2745.6	
240.18	2784.6	
240.39	5015.5	
240.6	4431.8	
240.82	2894.5	
241.03	2454.8	
241.24	4303.5	
241.45	4741.7	
241.66	2558.6	
241.87	2957.9	
242.09	4841.4	
242.3	4878.9	
242.51	2955.9	
242.72	2744.3	
242.93	4529.4	
243.14	4282.3	
243.36	3117.7	
243.57	3242.6	
243.78	4801.8	
243.99	4543.1	
244.2	2691.7	
244.41	2481.5	
244.63	4044.1	
244.84	4394.3	
245.05	2910.2	
245.26	2730.6	
245.47	4567.7	
245.68	4569.7	
245.9	3376.4	
246.11	2813.2	
246.32	4171.7	
246.53	4488.5	
246.74	4110.3	
246.95	2381.1	
247.16	4145.1	
247.38	4347.2	
247.59	2520.4	
247.8	2785.9	
248.01	4026.3	
248.22	4306.9	
248.43	2557.2	
248.64	2714.9	
248.86	4049.5	
249.07	4188.1	
249.28	2544.3	
249.49	2840.5	
249.7	4638.6	
249.91	4666	
250.12	2420	
250.34	2469.2	
250.55	4444.8	
250.76	4374.5	
250.97	2841.2	
251.18	2872.6	
251.39	4648.9	
251.6	4412	
251.81	2811.2	
252.03	2832.3	
252.24	4233.8	
252.45	4534.9	
252.66	2469.2	
252.87	2987.3	
253.08	4319.8	
253.29	5311.7	
253.5	2514.2	
253.72	3193.5	
253.93	4297.3	
254.14	4896.7	
254.35	2661	
254.56	2689.7	
254.77	4415.4	
254.98	4100.7	
255.19	2679.4	
255.41	3152.5	
255.62	4513	
255.83	4680.3	
256.04	2902.7	
256.25	2779.1	
256.46	5003.9	
256.67	4131.4	
256.88	2796.8	
257.09	3041.2	
257.31	4057	
257.52	4119.8	
257.73	3413.3	
257.94	2626.2	
258.15	4357.4	
258.36	4322.6	
258.57	3175.7	
258.78	2220	
258.99	4678.9	
259.2	4168.3	
259.41	2620.7	
259.63	2698.5	
259.84	4823	
260.05	4944.5	
260.26	3209.2	
260.47	2581.8	
260.68	4628.4	
260.89	4289.1	
261.1	3092.4	
261.31	2569.5	
261.52	4789.5	
261.73	4833.9	
261.95	3251.5	
262.16	2877.4	
262.37	4703.5	
262.58	4760.2	
262.79	3254.2	
263	2637.1	
263.21	4420.9	
263.42	4195.6	
263.63	2899.9	
263.84	2687.6	
264.05	4575.2	
264.26	4801.1	
264.47	3174.4	
264.69	2933.4	
264.9	4787.5	
265.11	4384	
265.32	2583.9	
265.53	2553.8	
265.74	4440	
265.95	3960.1	
266.16	2802.3	
266.37	2988.7	
266.58	4429.8	
266.79	4154	
267	2640.5	
267.21	2469.2	
267.42	4017.4	
267.63	4331.5	
267.84	2718.3	
268.06	2458.9	
268.27	4616.8	
268.48	4692.6	
268.69	2723.8	
268.9	3048.1	
269.11	4660.5	
269.32	4003.1	
269.53	2754.5	
269.74	2615.3	
269.95	4401.1	
270.16	4030.4	
270.37	2781.8	
270.58	3012.6	
270.79	4265.2	
271	4612	
271.21	2864.4	
271.42	2790.7	
271.63	4553.3	
271.84	4022.9	
272.05	2348.3	
272.26	2529.9	
272.47	4325.3	
272.68	4439.3	
272.89	2762.7	
273.11	2950.4	
273.32	4182	
273.53	4848.2	
273.74	2889	
273.95	2926.5	
274.16	4489.1	
274.37	4268	
274.58	2993.4	
274.79	2500.6	
275	4469.4	
275.21	4630.5	
275.42	3454.9	
275.63	3008.5	
275.84	4544.4	
276.05	5317.9	
276.26	2865.8	
276.47	2657.6	
276.68	4328	
276.89	4902.8	
277.1	3013.2	
277.31	2457.6	
277.52	4448.2	
277.73	4738.3	
277.94	2455.5	
278.15	2620.7	
278.36	4476.2	
278.57	4144.4	
278.78	2631	
278.99	2853.5	
279.2	4189.5	
279.41	4101.4	
279.62	3358.7	
279.83	2501.3	
280.04	5022.3	
280.25	4097.3	
280.46	3337.5	
280.67	2770.9	
280.88	4165.6	
281.09	4678.2	
281.3	2850.8	
281.51	3373.7	
281.72	4168.3	
281.93	4512.4	
282.14	2608.4	
282.35	2799.6	
282.56	4685.8	
282.77	4575.2	
282.98	2699.2	
283.19	3130.7	
283.4	5388.2	
283.61	4298	
283.82	2560.6	
284.03	3240.6	
284.24	4506.2	
284.45	4628.4	
284.66	3347.1	
284.87	3083.6	
285.08	4724.7	
285.29	4740.4	
285.5	2514.9	
285.71	2641.9	
285.92	4633.9	
286.12	5051.7	
286.33	3196.9	
286.54	2654.9	
286.75	4517.8	
286.96	4257	
287.17	2592.7	
287.38	3130.7	
287.59	4222.2	
287.8	4242.7	
288.01	2712.9	
288.22	2923.1	
288.43	4463.2	
288.64	3973.1	
288.85	3099.3	
289.06	2951.1	
289.27	4603.2	
289.48	4822.3	
289.69	3308.2	
289.9	3032.4	
290.11	4775.9	
290.32	4203.1	
290.53	3084.9	
290.74	2886.3	
290.94	4546.5	
291.15	4629.1	
291.36	2574.3	
291.57	3007.8	
291.78	4229.7	
291.99	3953.9	
292.2	2564.1	
292.41	2939.5	
292.62	4670.7	
292.83	4546.5	
293.04	3461.7	
293.25	2608.4	
293.46	4292.5	
293.67	4642.1	
293.88	2577	
294.09	2577	
294.29	4124.6	
294.5	4386.7	
294.71	2733.4	
294.92	2658.3	
295.13	4232.5	
295.34	5027.8	
295.55	2434.4	
295.76	2409.8	
295.97	4601.1	
296.18	4933.6	
296.39	2506.7	
296.6	2585.2	
296.81	4357.4	
297.01	4593.6	
297.22	2721.8	
297.43	2659.6	
297.64	4257.7	
297.85	4085.7	
298.06	2232.3	
298.27	2405	
298.48	4298	
298.69	4160.8	
298.9	2826.9	
299.11	2621.4	
299.31	4145.1	
299.52	4098.7	
299.73	2948.4	
299.94	2895.1	
300.15	4369.7	
300.36	4195.6	
300.57	2871.3	
300.78	2828.2	
300.99	4200.4	
301.2	4387.4	
301.4	2691.7	
301.61	2758.6	
301.82	4524	
302.03	4601.1	
302.24	3031	
302.45	2519	
302.66	4515.1	
302.87	4616.8	
303.08	2676	
303.29	3269.9	
303.49	4246.8	
303.7	4244.8	
303.91	2446.6	
304.12	3183.9	
304.33	4026.3	
304.54	4479.6	
304.75	2658.9	
304.96	2577.7	
305.16	4561.5	
305.37	4881.7	
305.58	2421.4	
305.79	2410.5	
306	4548.5	
306.21	4024.9	
306.42	2624.1	
306.63	3714.3	
306.83	4219.5	
307.04	4515.1	
307.25	2797.5	
307.46	2792.7	
307.67	3946.4	
307.88	4457.7	
308.09	2618.7	
308.29	2660.3	
308.5	4421.6	
308.71	4616.1	
308.92	2793.4	
309.13	2507.4	
309.34	4369.7	
309.55	4309.6	
309.75	3177.1	
309.96	2863.7	
310.17	4559.5	
310.38	4115.1	
310.59	2936.1	
310.8	2871.9	
311.01	4739	
311.21	4308.9	
311.42	2605	
311.63	2650.1	
311.84	4244.8	
312.05	4395.6	
312.26	2853.5	
312.46	3093.1	
312.67	4242.7	
312.88	3975.1	
313.09	2557.2	
313.3	2545.6	
313.51	4756.7	
313.71	4998.4	
313.92	2509.4	
314.13	2626.2	
314.34	4442	
314.55	4283.7	
314.76	3084.2	
314.96	2757.9	
315.17	4545.1	
315.38	4444.1	
315.59	2568.8	
315.8	2467.1	
316.01	4747.2	
316.21	4868.7	
316.42	2542.9	
316.63	2807.1	
316.84	4242	
317.05	4621.6	
317.26	2917	
317.46	2645.3	
317.67	4312.3	
317.88	4536.3	
318.09	3143.6	
318.3	2387.9	
318.5	4252.9	
318.71	4438.6	
318.92	3792.8	
319.13	2942.9	
319.34	4614.8	
319.54	4739	
319.75	2439.1	
319.96	2354.5	
320.17	4490.5	
320.38	4658.4	
320.58	2362	
320.79	2777.7	
321	4673.5	
321.21	4780	
321.42	2854.2	
321.62	2411.8	
321.83	4197.7	
322.04	4366.3	
322.25	2699.9	
322.46	2587.3	
322.66	4381.3	
322.87	4595.6	
323.08	3013.9	
323.29	2491.7	
323.5	4980	
323.7	4114.4	
323.91	3263.1	
324.12	2966.8	
324.33	4450.9	
324.53	4558.8	
324.74	2816.6	
324.95	2977.1	
325.16	4027.7	
325.37	4249.5	
325.57	2566.1	
325.78	2589.3	
325.99	4520.5	
326.2	4026.3	
326.4	3329.3	
326.61	2463	
326.82	4354	
327.03	4379.9	
327.24	3366.2	
327.44	3177.8	
327.65	4552	
327.86	3859.1	
328.07	2887	
328.27	2522.4	
328.48	4832.5	
328.69	4064.5	
328.9	3386.7	
329.1	2633	
329.31	4308.9	
329.52	4784.7	
329.73	2622.1	
329.93	2752.5	
330.14	4440.7	
330.35	4480.3	
330.56	3816	
330.76	2983.9	
330.97	4216.8	
331.18	4350.6	
331.39	2805	
331.59	2400.9	
331.8	4739.7	
332.01	4741	
332.22	2661.7	
332.42	2831	
332.63	4418.8	
332.84	4122.6	
333.05	2811.9	
333.25	2538.1	
333.46	4171	
333.67	4306.2	
333.88	2713.6	
334.08	2806.4	
334.29	5319.9	
334.5	4607.2	
334.7	2546.3	
334.91	3343.7	
335.12	4030.4	
335.33	4481	
335.53	2799.6	
335.74	3794.9	
335.95	4315.1	
336.16	4059.8	
336.36	2740.9	
336.57	3143.6	
336.78	3989.4	
336.98	4614.8	
337.19	3304.1	
337.4	2741.5	
337.61	5040.1	
337.81	4064.5	
338.02	2667.8	
338.23	3096.5	
338.43	4802.5	
338.64	4184.7	
338.85	2567.5	
339.05	3235.1	
339.26	4881	
339.47	4040.6	
339.68	2611.2	
339.88	3482.2	
340.09	4558.8	
340.3	4606.6	
340.5	2943.6	
340.71	2398.9	
340.92	4113.7	
341.13	4735.6	
341.33	2521	
341.54	2915.6	
341.75	4497.3	
341.95	4253.6	
342.16	2855.6	
342.37	3026.9	
342.57	4059.1	
342.78	4255.7	
342.99	3041.9	
343.19	2411.1	
343.4	4605.2	
343.61	4407.9	
343.81	2746.3	
344.02	2489.6	
344.23	4617.5	
344.43	4746.5	
344.64	3061.7	
344.85	3039.9	
345.06	4518.5	
345.26	4677.6	
345.47	2914.3	
345.68	3299.3	
345.88	4013.3	
346.09	4616.8	
346.3	2962	
346.5	2351.1	
346.71	4260.5	
346.92	4179.2	
347.12	2490.3	
347.33	2890.4	
347.54	4602.5	
347.74	4787.5	
347.95	2897.9	
348.16	2347.7	
348.36	4244.8	
348.57	4107.5	
348.78	2961.4	
348.98	3004.4	
349.19	4364.2	
349.39	3953.9	
349.6	2473.9	
349.81	2600.2	
350.01	4570.4	
350.22	4147.1	
350.43	2853.5	
350.63	3201.7	
350.84	4349.2	
351.05	4175.1	
351.25	2639.1	
351.46	2415.2	
351.67	4584.7	
351.87	4125.3	
352.08	2762.7	
352.29	2998.2	
352.49	4628.4	
352.7	4407.9	
352.9	2565.4	
353.11	3009.1	
353.32	5019.6	
353.52	4275.5	
353.73	2594.8	
353.94	3093.8	
354.14	4551.3	
354.35	4371.7	
354.55	2658.9	
354.76	2840.5	
354.97	4516.5	
355.17	4298	
355.38	2549	
355.59	3260.4	
355.79	4170.3	
356	4293.9	
356.2	2871.9	
356.41	2626.2	
356.62	4126	
356.82	4351.9	
357.03	2988.7	
357.24	2712.9	
357.44	4183.3	
357.65	4235.2	
357.85	3457.7	
358.06	2881.5	
358.27	3997.6	
358.47	4098	
358.68	2554.5	
358.88	3002.3	
359.09	4541.7	
359.3	4721.3	
359.5	3409.2	
359.71	3108.1	
359.91	4877.6	
360.12	4511	
360.33	3089.7	
360.53	3304.7	
360.74	4276.2	
360.94	4275.5	
361.15	3198.9	
361.36	2725.8	
361.56	4747.9	
361.77	4389.5	
361.97	3445.4	
362.18	2889.7	
362.38	4765.6	
362.59	4204.5	
362.8	2735.4	
363	2679.4	
363.21	4171.7	
363.41	4443.4	
363.62	3066.5	
363.83	3511.6	
364.03	4702.8	
364.24	5009.3	
364.44	3685	
364.65	3644.7	
364.85	4479.6	
365.06	4285.7	
365.27	2898.6	
365.47	2972.3	
365.68	5005.2	
365.88	4405.9	
366.09	3121.8	
366.29	2917	
366.5	4534.9	
366.71	4833.2	
366.91	3731.4	
367.12	3240.6	
367.32	5195	
367.53	4704.2	
367.73	3317	
367.94	3822.9	
368.14	4762.9	
368.35	5037.3	
368.56	3161.4	
368.76	2893.8	
368.97	4829.1	
369.17	5688.6	
369.38	2957.3	
369.58	3097.9	
369.79	4209.9	
369.99	5069.4	
370.2	3713	
370.4	3205.1	
370.61	4676.2	
370.82	5408.7	
371.02	3140.2	
371.23	2762	
371.43	4277.5	
371.64	5049.6	
371.84	3234.4	
372.05	3734.8	
372.25	5646.9	
372.46	4748.6	
372.66	3197.6	
372.87	3199.6	
373.07	4904.9	
373.28	5876.3	
373.48	3753.9	
373.69	3592.1	
373.9	4726	
374.1	4657.8	
374.31	3792.2	
374.51	3490.4	
374.72	5139	
374.92	4521.9	
375.13	3910.9	
375.33	3459	
375.54	4926.7	
375.74	4733.5	
375.95	3566.2	
376.15	4147.1	
376.36	5059.8	
376.56	4944.5	
376.77	3616.7	
376.97	3807.2	
377.18	5707	
377.38	5096.7	
377.59	3903.4	
377.79	3423.5	
378	4986.1	
378.2	5201.2	
378.41	3409.9	
378.61	3361.4	
378.82	5325.4	
379.02	4939	
379.23	3590.8	
379.43	4097.3	
379.64	5491.3	
379.84	5141.8	
380.05	3549.1	
380.25	3463.8	
380.46	5227.1	
380.66	5006.6	
380.87	4173.8	
381.07	4318.5	
381.28	5618.9	
381.48	5245.5	
381.69	3420.1	
381.89	3564.8	
382.1	4719.9	
382.3	5248.3	
382.51	4095.9	
382.71	4545.1	
382.91	5080.3	
383.12	5412.1	
383.32	3653.6	
383.53	3744.4	
383.73	5138.4	
383.94	5070.1	
384.14	3721.2	
384.35	3318.4	
384.55	4851	
384.76	5103.5	
384.96	3779.9	
385.17	3835.8	
385.37	5231.2	
385.58	4742.4	
385.78	3791.5	
385.98	3262.4	
386.19	4857.8	
386.39	5111	
386.6	3543.7	
386.8	3662.5	
387.01	5152.7	
387.21	5310.4	
387.42	3878.2	
387.62	4247.5	
387.83	4899.4	
388.03	5018.9	
388.23	3829	
388.44	4137.6	
388.64	4801.8	
388.85	4844.8	
389.05	3936.2	
389.26	4267.3	
389.46	6066.1	
389.67	5623.7	
389.87	4083.6	
390.07	4021.5	
390.28	5109	
390.48	4939	
390.69	3573.7	
390.89	3816.7	
391.1	5072.8	
391.3	5528.2	
391.5	4449.6	
391.71	4744.5	
391.91	5471.5	
392.12	5851	
392.32	4528.1	
392.53	4108.2	
392.73	5195.7	
392.93	5193.6	
393.14	3953.3	
393.34	4390.2	
393.55	5491.3	
393.75	5190.2	
393.95	3926	
394.16	3820.1	
394.36	5211.4	
394.57	5480.4	
394.77	3652.9	
394.98	3792.8	
395.18	5128.1	
395.38	5141.8	
395.59	4416.1	
395.79	3805.8	
396	5347.2	
396.2	5569.1	
396.4	4379.9	
396.61	4283	
396.81	5543.9	
397.02	5343.2	
397.22	4533.5	
397.42	4581.3	
397.63	5812.8	
397.83	5386.8	
398.04	4002.4	
398.24	4299.4	
398.44	5597.8	
398.65	5027.8	
398.85	3949.2	
399.05	4003.8	
399.26	5563.6	
399.46	6275.7	
399.67	4308.9	
399.87	4152.6	
400.07	5709.7	
400.28	5806.7	
400.48	4190.1	
400.69	4819.6	
400.89	5971.9	
401.09	6350.1	
401.3	4238.6	
401.5	4820.2	
401.7	6427.9	
401.91	6566.5	
402.11	4545.8	
402.32	4586.1	
402.52	6171.2	
402.72	5981.4	
402.93	4791.6	
403.13	4092.5	
403.33	6606.1	
403.54	5698.1	
403.74	4545.8	
403.94	4845.5	
404.15	5717.9	
404.35	6386.9	
404.56	4308.2	
404.76	5297.4	
404.96	5988.3	
405.17	5835.3	
405.37	4760.2	
405.57	4599.7	
405.78	6143.2	
405.98	5743.2	
406.18	4463.9	
406.39	4852.3	
406.59	6100.9	
406.79	5823.1	
407	4326.7	
407.2	4372.4	
407.4	6346	
407.61	6226.5	
407.81	4458.4	
408.01	5619.6	
408.22	5625.1	
408.42	6664.1	
408.62	5230.5	
408.83	4984.1	
409.03	6258.6	
409.23	6290	
409.44	5190.2	
409.64	5337	
409.84	7049.1	
410.05	7025.9	
410.25	5485.1	
410.45	5380.7	
410.66	6979.5	
410.86	8245.8	
411.06	5809.4	
411.27	5698.1	
411.47	8342.7	
411.67	7186.3	
411.88	5887.2	
412.08	6183.5	
412.28	7564.5	
412.49	7901.7	
412.69	6053.8	
412.89	6030.6	
413.09	7849.2	
413.3	7884.7	
413.5	6280.4	
413.7	6053.8	
413.91	7513.3	
414.11	8008.2	
414.31	6266.1	
414.52	6580.1	
414.72	7937.9	
414.92	7961.1	
415.12	6189	
415.33	6604.7	
415.53	8186.4	
415.73	8342.7	
415.94	6766.5	
416.14	6464.1	
416.34	7755	
416.55	7574.8	
416.75	7172	
416.95	6921.5	
417.15	8455.4	
417.36	8642.4	
417.56	7494.2	
417.76	6911.9	
417.97	8572.8	
418.17	8531.2	
418.37	6744	
418.57	6799.3	
418.78	8503.8	
418.98	8179.6	
419.18	7404.8	
419.38	7257.3	
419.59	8118.1	
419.79	8015.1	
419.99	6716	
420.2	6896.9	
420.4	8566	
420.6	8483.4	
420.8	6705	
421.01	6677.7	
421.21	8573.5	
421.41	8545.5	
421.61	6861.4	
421.82	6809.5	
422.02	8295	
422.22	8719.6	
422.42	7331.7	
422.63	6885.3	
422.83	8269.7	
423.03	8901.2	
423.23	6943.3	
423.44	6450.4	
423.64	8243.8	
423.84	8066.9	
424.04	6690	
424.25	6531.7	
424.45	8710	
424.65	8578.9	
424.85	6410.1	
425.06	6720.1	
425.26	8936	
425.46	8143.4	
425.66	6900.3	
425.87	6763.8	
426.07	8551	
426.27	8376.9	
426.47	6818.4	
426.67	6550.1	
426.88	8784.4	
427.08	8349.6	
427.28	7176.1	
427.48	6392.4	
427.69	7875.1	
427.89	8207.6	
428.09	6900.3	
428.29	6467.5	
428.5	8504.5	
428.7	8314.8	
428.9	6515.3	
429.1	6699.6	
429.3	8332.5	
429.51	8493.6	
429.71	6635.4	
429.91	7205.4	
430.11	8691.6	
430.31	8763.9	
430.52	6840.9	
430.72	7193.8	
430.92	8938.7	
431.12	8624	
431.32	6851.8	
431.53	7030.7	
431.73	8197.3	
431.93	8996.7	
432.13	6784.9	
432.33	6870.9	
432.54	8483.4	
432.74	8471.8	
432.94	6898.2	
433.14	7378.8	
433.34	8884.8	
433.55	8813.8	
433.75	7429.3	
433.95	8613.8	
434.15	8991.3	
434.35	8720.3	
434.56	6988.4	
434.76	7000.6	
434.96	8982.4	
435.16	9162.6	
435.36	7101.7	
435.56	7962.5	
435.77	8941.4	
435.97	8998.1	
436.17	8335.2	
436.37	7942	
436.57	8873.2	
436.78	8948.3	
436.98	7793.2	
437.18	8316.8	
437.38	9472.5	
437.58	8974.2	
437.78	8379.6	
437.99	7570.7	
438.19	9314.2	
438.39	9892.4	
438.59	7589.1	
438.79	7213.6	
438.99	9727.2	
439.2	8987.9	
439.4	7041.6	
439.6	7135.1	
439.8	9015.2	
440	9719	
440.2	7833.5	
440.4	7815.7	
440.61	9628.9	
440.81	9947	
441.01	7757.7	
441.21	8354.3	
441.41	10301	
441.61	9783.8	
441.81	8640.4	
442.02	9266.4	
442.22	10421	
442.42	10024	
442.62	8066.3	
442.82	7955	
443.02	10349	
443.22	9874.6	
443.43	8463.6	
443.63	8102.4	
443.83	9567.4	
444.03	9709.4	
444.23	9008.3	
444.43	8679.3	
444.63	10260	
444.83	10683	
445.04	8551	
445.24	9136	
445.44	10389	
445.64	10389	
445.84	8707.3	
446.04	8886.8	
446.24	9812.5	
446.44	10395	
446.65	8180.3	
446.85	8501.1	
447.05	9650	
447.25	10332	
447.45	8459.5	
447.65	8045.8	
447.85	9991.4	
448.05	9438.4	
448.25	8752.3	
448.46	8581.7	
448.66	10079	
448.86	9736	
449.06	8242.4	
449.26	8631.5	
449.46	10312	
449.66	9617.3	
449.86	8633.6	
450.06	8586.5	
450.26	9866.4	
450.47	10262	
450.67	8667	
450.87	8998.1	
451.07	10510	
451.27	10304	
451.47	8417.8	
451.67	9126.4	
451.87	10262	
452.07	10607	
452.27	8728.4	
452.47	8604.9	
452.67	10381	
452.88	10525	
453.08	8213	
453.28	9449.3	
453.48	11247	
453.68	10100	
453.88	8856.1	
454.08	8656.1	
454.28	10774	
454.48	10438	
454.68	8998.8	
454.88	9331.2	
455.08	10737	
455.28	10826	
455.48	8558.5	
455.68	9312.8	
455.89	11265	
456.09	11084	
456.29	9144.9	
456.49	9454.1	
456.69	11338	
456.89	10842	
457.09	9663	
457.29	10040	
457.49	11243	
457.69	11390	
457.89	9938.8	
458.09	9260.2	
458.29	11419	
458.49	11890	
458.69	10208	
458.89	10060	
459.09	12280	
459.29	12111	
459.49	9932.6	
459.69	10568	
459.9	11826	
460.1	11774	
460.3	9854.8	
460.5	9834.3	
460.7	11981	
460.9	11632	
461.1	9740.8	
461.3	10598	
461.5	12546	
461.7	12260	
461.9	10418	
462.1	10318	
462.3	12222	
462.5	12522	
462.7	10458	
462.9	10834	
463.1	13181	
463.3	13246	
463.5	10882	
463.7	11705	
463.9	12849	
464.1	13040	
464.3	11521	
464.5	11374	
464.7	13320	
464.9	13422	
465.1	12293	
465.3	11850	
465.5	13452	
465.7	13734	
465.9	12306	
466.1	11694	
466.3	13839	
466.5	13468	
466.7	12830	
466.9	12009	
467.1	14011	
467.3	14259	
467.5	12961	
467.7	12253	
467.9	14493	
468.1	15017	
468.3	12575	
468.5	13083	
468.7	14072	
468.9	13913	
469.1	12679	
469.3	13065	
469.5	15444	
469.7	14066	
469.9	12692	
470.1	12703	
470.3	14376	
470.5	14315	
470.7	13469	
470.9	12681	
471.1	14296	
471.3	14147	
471.5	12755	
471.69	13672	
471.89	14113	
472.09	13651	
472.29	13170	
472.49	12777	
472.69	14099	
472.89	14139	
473.09	12619	
473.29	12323	
473.49	14160	
473.69	13783	
473.89	13001	
474.09	12421	
474.29	14614	
474.49	14281	
474.69	12953	
474.89	12484	
475.09	13965	
475.29	13997	
475.49	12154	
475.69	12465	
475.88	14625	
476.08	14147	
476.28	12197	
476.48	12230	
476.68	14354	
476.88	14047	
477.08	12282	
477.28	12598	
477.48	13739	
477.68	13913	
477.88	12081	
478.08	12233	
478.28	14440	
478.48	13794	
478.67	12340	
478.87	11695	
479.07	14472	
479.27	13917	
479.47	12289	
479.67	12587	
479.87	14323	
480.07	14483	
480.27	12170	
480.47	12945	
480.67	13984	
480.87	14470	
481.06	12340	
481.26	12904	
481.46	14261	
481.66	14032	
481.86	12729	
482.06	13078	
482.26	14055	
482.46	14318	
482.66	12585	
482.86	12359	
483.05	14450	
483.25	13767	
483.45	14005	
483.65	12619	
483.85	13926	
484.05	14338	
484.25	12957	
484.45	13455	
484.65	14672	
484.84	15036	
485.04	12808	
485.24	12817	
485.44	15324	
485.64	14224	
485.84	12798	
486.04	13542	
486.24	14598	
486.44	14760	
486.63	12780	
486.83	13297	
487.03	14834	
487.23	15010	
487.43	12985	
487.63	14300	
487.83	14938	
488.02	15372	
488.22	13786	
488.42	14163	
488.62	15557	
488.82	15046	
489.02	13472	
489.22	13710	
489.41	15459	
489.61	15600	
489.81	13503	
490.01	13700	
490.21	15743	
490.41	16273	
490.61	13856	
490.8	13777	
491	15653	
491.2	15063	
491.4	13986	
491.6	13585	
491.8	15490	
491.99	15215	
492.19	13429	
492.39	13411	
492.59	15644	
492.79	15757	
492.99	14022	
493.18	13626	
493.38	15935	
493.58	16592	
493.78	14384	
493.98	14133	
494.18	16081	
494.37	15963	
494.57	15075	
494.77	14930	
494.97	16663	
495.17	17027	
495.37	14990	
495.56	15201	
495.76	17381	
495.96	17398	
496.16	16195	
496.36	15657	
496.55	17713	
496.75	17385	
496.95	15752	
497.15	15854	
497.35	17680	
497.54	17849	
497.74	15847	
497.94	16860	
498.14	18233	
498.34	17961	
498.53	15816	
498.73	16272	
498.93	17625	
499.13	18040	
499.33	16345	
499.52	16592	
499.72	18386	
499.92	18237	
500.12	16408	
500.32	16355	
500.51	18303	
500.71	18522	
500.91	17017	
501.11	16695	
501.31	18495	
501.5	18719	
501.7	17169	
501.9	16727	
502.1	18170	
502.29	18445	
502.49	16954	
502.69	17090	
502.89	18416	
503.09	18449	
503.28	16207	
503.48	16277	
503.68	17837	
503.88	17806	
504.07	16696	
504.27	16266	
504.47	18069	
504.67	17948	
504.86	16584	
505.06	16303	
505.26	17791	
505.46	18542	
505.65	16080	
505.85	16387	
506.05	17612	
506.25	17675	
506.44	15560	
506.64	15800	
506.84	17229	
507.04	17492	
507.23	15483	
507.43	15686	
507.63	18098	
507.83	17099	
508.02	15627	
508.22	15551	
508.42	18286	
508.62	16969	
508.81	15565	
509.01	16171	
509.21	16828	
509.4	17139	
509.6	15562	
509.8	15453	
510	17074	
510.19	17773	
510.39	15267	
510.59	15498	
510.79	17085	
510.98	17892	
511.18	15581	
511.38	15721	
511.57	17660	
511.77	17463	
511.97	15983	
512.17	15526	
512.36	17604	
512.56	17324	
512.76	15352	
512.95	15083	
513.15	17716	
513.35	16690	
513.55	15917	
513.74	15425	
513.94	17513	
514.14	17096	
514.33	16033	
514.53	15939	
514.73	17260	
514.92	17496	
515.12	15658	
515.32	15606	
515.51	17642	
515.71	17565	
515.91	16656	
516.11	15692	
516.3	18562	
516.5	17418	
516.7	15991	
516.89	16343	
517.09	17505	
517.29	17425	
517.48	16139	
517.68	15864	
517.88	17245	
518.07	17776	
518.27	16150	
518.47	15547	
518.66	18008	
518.86	17259	
519.06	15472	
519.25	15700	
519.45	17301	
519.65	18362	
519.84	16232	
520.04	16754	
520.24	18666	
520.43	17830	
520.63	16075	
520.83	15954	
521.02	17504	
521.22	17673	
521.42	15986	
521.61	16457	
521.81	17303	
522.01	17430	
522.2	15956	
522.4	15725	
522.6	17736	
522.79	17045	
522.99	15938	
523.18	15886	
523.38	18029	
523.58	18008	
523.77	17136	
523.97	16212	
524.17	19292	
524.36	18899	
524.56	17247	
524.76	17110	
524.95	18741	
525.15	18487	
525.34	17270	
525.54	17475	
525.74	19291	
525.93	18842	
526.13	18159	
526.33	17847	
526.52	19724	
526.72	19503	
526.91	18591	
527.11	18153	
527.31	19763	
527.5	20208	
527.7	18315	
527.89	17735	
528.09	19458	
528.29	19949	
528.48	18450	
528.68	18189	
528.87	20183	
529.07	20030	
529.27	18583	
529.46	18099	
529.66	20280	
529.85	20484	
530.05	18269	
530.25	18666	
530.44	21029	
530.64	20032	
530.83	18468	
531.03	18545	
531.23	20452	
531.42	20152	
531.62	18985	
531.81	18469	
532.01	20650	
532.21	20792	
532.4	19040	
532.6	19325	
532.79	21440	
532.99	21190	
533.18	19589	
533.38	20115	
533.58	21203	
533.77	21392	
533.97	19975	
534.16	20192	
534.36	21978	
534.55	21459	
534.75	20404	
534.95	20124	
535.14	22321	
535.34	21622	
535.53	19715	
535.73	20942	
535.92	22429	
536.12	21450	
536.31	19768	
536.51	20562	
536.71	21637	
536.9	21234	
537.1	19725	
537.29	19882	
537.49	21936	
537.68	21318	
537.88	20237	
538.07	19609	
538.27	21707	
538.46	21989	
538.66	19732	
538.86	20150	
539.05	21595	
539.25	21971	
539.44	20582	
539.64	19961	
539.83	21599	
540.03	22162	
540.22	20000	
540.42	19667	
540.61	21440	
540.81	21800	
541	19776	
541.2	20377	
541.39	21044	
541.59	21302	
541.78	20224	
541.98	19420	
542.18	20885	
542.37	21001	
542.57	19543	
542.76	20112	
542.96	20818	
543.15	21145	
543.35	19414	
543.54	19069	
543.74	20545	
543.93	20924	
544.13	18957	
544.32	19638	
544.52	20765	
544.71	20287	
544.91	18422	
545.1	18985	
545.3	20499	
545.49	20659	
545.69	18149	
545.88	18679	
546.08	21233	
546.27	20650	
546.47	18858	
546.66	18515	
546.86	20590	
547.05	20754	
547.24	18288	
547.44	18759	
547.63	19747	
547.83	20424	
548.02	18652	
548.22	18737	
548.41	19749	
548.61	20483	
548.8	18163	
549	18398	
549.19	19970	
549.39	20215	
549.58	17921	
549.78	18393	
549.97	20204	
550.17	19635	
550.36	18614	
550.55	19134	
550.75	19630	
550.94	20115	
551.14	17907	
551.33	17933	
551.53	19260	
551.72	19713	
551.92	17959	
552.11	18030	
552.31	19868	
552.5	19566	
552.69	18708	
552.89	17481	
553.08	19643	
553.28	19398	
553.47	17780	
553.67	18475	
553.86	19776	
554.06	18962	
554.25	17302	
554.44	17547	
554.64	20192	
554.83	19946	
555.03	17520	
555.22	17728	
555.42	19585	
555.61	19436	
555.8	17450	
556	17626	
556.19	19000	
556.39	19355	
556.58	17447	
556.78	17434	
556.97	19338	
557.16	19035	
557.36	18131	
557.55	17339	
557.75	18555	
557.94	19832	
558.13	17164	
558.33	17103	
558.52	19728	
558.72	18832	
558.91	17187	
559.1	17189	
559.3	18744	
559.49	18416	
559.69	16984	
559.88	17328	
560.07	18890	
560.27	19318	
560.46	17456	
560.66	17589	
560.85	18865	
561.04	18103	
561.24	16982	
561.43	16817	
561.63	18447	
561.82	18338	
562.01	17576	
562.21	17129	
562.4	18670	
562.59	19374	
562.79	17110	
562.98	16905	
563.18	18669	
563.37	19585	
563.56	17419	
563.76	17191	
563.95	18723	
564.14	18745	
564.34	17357	
564.53	17193	
564.73	19008	
564.92	19282	
565.11	17419	
565.31	17186	
565.5	19491	
565.69	18677	
565.89	17434	
566.08	17620	
566.27	19346	
566.47	19706	
566.66	17993	
566.85	17360	
567.05	19331	
567.24	19015	
567.44	17431	
567.63	18247	
567.82	19359	
568.02	19241	
568.21	17344	
568.4	17742	
568.6	19362	
568.79	19111	
568.98	17557	
569.18	17823	
569.37	19381	
569.56	20378	
569.76	17929	
569.95	18529	
570.14	19573	
570.34	19519	
570.53	17600	
570.72	17635	
570.91	20127	
571.11	19456	
571.3	17816	
571.49	18435	
571.69	19617	
571.88	19034	
572.07	18232	
572.27	18031	
572.46	19242	
572.65	19607	
572.85	17832	
573.04	18114	
573.23	20061	
573.43	19541	
573.62	17810	
573.81	18091	
574	19818	
574.2	19562	
574.39	18217	
574.58	18222	
574.78	20517	
574.97	20138	
575.16	18708	
575.36	19012	
575.55	20655	
575.74	20569	
575.93	18238	
576.13	19047	
576.32	20235	
576.51	20837	
576.71	18615	
576.9	19508	
577.09	20923	
577.28	20402	
577.48	18928	
577.67	18559	
577.86	20394	
578.05	20593	
578.25	18955	
578.44	18868	
578.63	20413	
578.83	21072	
579.02	18546	
579.21	19408	
579.4	20724	
579.6	20497	
579.79	18961	
579.98	20353	
580.17	20771	
580.37	21111	
580.56	18632	
580.75	19284	
580.94	21061	
581.14	21102	
581.33	19525	
581.52	18939	
581.71	20938	
581.91	21175	
582.1	18718	
582.29	19011	
582.48	20764	
582.68	20918	
582.87	19493	
583.06	19252	
583.25	21042	
583.45	20850	
583.64	19942	
583.83	20187	
584.02	20870	
584.21	21371	
584.41	19607	
584.6	19456	
584.79	21201	
584.98	21404	
585.18	19048	
585.37	19138	
585.56	20803	
585.75	21284	
585.94	19082	
586.14	19449	
586.33	21218	
586.52	20895	
586.71	19235	
586.91	19123	
587.1	20178	
587.29	21055	
587.48	18485	
587.67	18828	
587.87	20543	
588.06	20354	
588.25	19351	
588.44	18854	
588.63	20019	
588.83	20355	
589.02	18442	
589.21	18030	
589.4	19634	
589.59	19630	
589.78	17310	
589.98	17229	
590.17	18706	
590.36	18880	
590.55	16269	
590.74	16336	
590.94	18877	
591.13	17905	
591.32	16180	
591.51	15807	
591.7	17985	
591.89	17966	
592.09	15923	
592.28	16212	
592.47	17434	
592.66	18894	
592.85	16085	
593.05	16340	
593.24	17910	
593.43	18652	
593.62	16493	
593.81	16637	
594	18212	
594.19	18183	
594.39	16390	
594.58	16072	
594.77	18271	
594.96	18427	
595.15	16250	
595.34	16610	
595.54	18036	
595.73	17617	
595.92	15686	
596.11	16279	
596.3	18208	
596.49	17443	
596.68	15961	
596.88	16290	
597.07	17881	
597.26	17464	
597.45	15765	
597.64	16449	
597.83	17603	
598.02	18039	
598.22	15955	
598.41	16210	
598.6	17812	
598.79	17385	
598.98	15890	
599.17	16527	
599.36	17941	
599.55	18231	
599.74	17002	
599.94	17040	
600.13	17989	
600.32	17443	
600.51	15814	
600.7	15943	
600.89	18404	
601.08	18551	
601.27	15643	
601.47	16219	
601.66	17883	
601.85	18247	
602.04	16106	
602.23	16072	
602.42	17477	
602.61	17655	
602.8	15963	
602.99	15820	
603.18	17490	
603.37	17707	
603.57	16133	
603.76	16383	
603.95	17946	
604.14	17720	
604.33	15959	
604.52	16039	
604.71	17818	
604.9	17458	
605.09	16423	
605.28	16343	
605.47	18279	
605.66	17764	
605.86	16263	
606.05	15953	
606.24	18134	
606.43	17176	
606.62	16232	
606.81	16482	
607	17957	
607.19	17538	
607.38	15660	
607.57	15810	
607.76	17305	
607.95	16982	
608.14	16086	
608.33	16368	
608.52	17278	
608.72	17822	
608.91	15309	
609.1	15470	
609.29	17350	
609.48	16868	
609.67	15870	
609.86	15350	
610.05	17035	
610.24	16954	
610.43	15408	
610.62	15051	
610.81	17653	
611	17774	
611.19	15336	
611.38	15713	
611.57	17242	
611.76	17956	
611.95	15241	
612.14	15059	
612.33	17148	
612.52	16810	
612.71	15455	
612.9	15127	
613.09	16695	
613.28	18006	
613.47	15357	
613.66	15805	
613.85	17180	
614.04	16839	
614.24	15264	
614.43	14871	
614.62	17279	
614.81	17112	
615	15538	
615.19	15660	
615.38	16715	
615.57	17113	
615.76	15700	
615.95	16214	
616.14	17394	
616.33	17237	
616.52	15885	
616.71	15910	
616.9	17228	
617.09	17329	
617.28	15608	
617.47	15824	
617.66	16959	
617.85	16957	
618.04	16083	
618.22	15715	
618.41	17252	
618.6	18158	
618.79	15970	
618.98	16065	
619.17	18210	
619.36	17224	
619.55	16071	
619.74	16116	
619.93	17907	
620.12	17531	
620.31	16567	
620.5	16722	
620.69	18404	
620.88	18817	
621.07	17129	
621.26	16814	
621.45	18460	
621.64	18240	
621.83	16816	
622.02	16420	
622.21	18268	
622.4	18417	
622.59	17283	
622.78	17284	
622.97	18326	
623.16	18649	
623.35	17052	
623.54	16500	
623.72	18320	
623.91	18437	
624.1	17301	
624.29	16425	
624.48	19075	
624.67	18621	
624.86	17105	
625.05	16572	
625.24	19261	
625.43	18328	
625.62	18134	
625.81	16771	
626	18656	
626.19	18482	
626.38	17249	
626.56	16943	
626.75	18329	
626.94	18814	
627.13	17098	
627.32	16408	
627.51	18817	
627.7	19216	
627.89	16232	
628.08	17051	
628.27	18038	
628.46	18150	
628.65	16319	
628.83	16085	
629.02	18391	
629.21	17927	
629.4	16706	
629.59	16707	
629.78	18117	
629.97	18340	
630.16	16961	
630.35	16643	
630.54	19028	
630.72	18577	
630.91	16565	
631.1	16901	
631.29	18329	
631.48	18450	
631.67	16986	
631.86	16539	
632.05	18263	
632.24	18140	
632.42	16371	
632.61	16818	
632.8	18030	
632.99	17948	
633.18	16873	
633.37	16845	
633.56	18419	
633.75	18249	
633.93	16858	
634.12	16756	
634.31	18916	
634.5	18641	
634.69	16778	
634.88	16838	
635.07	18490	
635.25	18611	
635.44	17275	
635.63	17399	
635.82	18189	
636.01	17476	
636.2	17018	
636.39	16769	
636.57	18824	
636.76	18294	
636.95	16387	
637.14	17038	
637.33	18304	
637.52	18903	
637.7	16236	
637.89	16974	
638.08	18181	
638.27	19022	
638.46	17000	
638.65	17127	
638.83	18672	
639.02	17831	
639.21	16757	
639.4	16953	
639.59	18008	
639.78	17793	
639.96	16044	
640.15	16292	
640.34	17905	
640.53	17722	
640.72	15969	
640.91	16005	
641.09	17383	
641.28	17985	
641.47	15984	
641.66	16370	
641.85	17811	
642.03	17694	
642.22	16118	
642.41	15859	
642.6	17334	
642.79	16810	
642.97	15436	
643.16	16029	
643.35	17154	
643.54	17003	
643.73	15512	
643.91	15817	
644.1	16645	
644.29	17195	
644.48	15173	
644.67	15268	
644.85	16607	
645.04	16727	
645.23	14861	
645.42	15100	
645.6	16242	
645.79	16738	
645.98	14519	
646.17	13832	
646.36	15514	
646.54	15778	
646.73	14490	
646.92	13938	
647.11	15354	
647.29	15930	
647.48	13855	
647.67	13715	
647.86	16143	
648.05	16051	
648.23	13835	
648.42	14704	
648.61	15688	
648.8	15441	
648.98	13524	
649.17	13776	
649.36	15114	
649.55	14957	
649.73	13573	
649.92	14095	
650.11	15311	
650.3	15484	
650.48	13670	
650.67	13827	
650.86	15531	
651.05	14859	
651.23	13715	
651.42	13631	
651.61	15118	
651.79	14814	
651.98	13702	
652.17	13353	
652.36	15087	
652.54	14620	
652.73	13361	
652.92	13276	
653.11	15106	
653.29	15240	
653.48	12973	
653.67	13342	
653.85	14857	
654.04	15422	
654.23	13383	
654.42	13069	
654.6	14122	
654.79	14444	
654.98	12467	
655.16	12582	
655.35	13565	
655.54	13305	
655.73	12023	
655.91	11842	
656.1	13871	
656.29	13303	
656.47	11717	
656.66	12660	
656.85	13682	
657.03	13674	
657.22	12423	
657.41	12496	
657.59	13971	
657.78	14057	
657.97	12417	
658.16	12872	
658.34	14430	
658.53	14925	
658.72	13347	
658.9	13650	
659.09	14517	
659.28	14444	
659.46	12854	
659.65	12830	
659.84	14035	
660.02	14590	
660.21	12858	
660.4	12677	
660.58	14807	
660.77	14470	
660.96	13180	
661.14	12430	
661.33	14997	
661.52	15012	
661.7	12496	
661.89	14533	
662.08	14190	
662.26	13908	
662.45	12691	
662.64	12688	
662.82	14542	
663.01	14033	
663.2	12570	
663.38	12957	
663.57	14388	
663.75	14209	
663.94	12766	
664.13	13393	
664.31	14042	
664.5	14330	
664.69	12790	
664.87	13082	
665.06	13850	
665.25	14281	
665.43	13252	
665.62	13395	
665.8	14307	
665.99	13938	
666.18	12790	
666.36	12820	
666.55	14356	
666.74	14243	
666.92	12562	
667.11	13282	
667.29	14079	
667.48	14223	
667.67	12922	
667.85	12489	
668.04	13944	
668.22	13908	
668.41	12650	
668.6	12803	
668.78	13751	
668.97	13832	
669.15	12785	
669.34	12079	
669.53	13770	
669.71	14043	
669.9	12156	
670.08	12566	
670.27	13720	
670.46	14085	
670.64	12691	
670.83	12883	
671.01	13581	
671.2	13906	
671.38	12354	
671.57	12155	
671.76	14313	
671.94	14674	
672.13	12260	
672.31	12752	
672.5	14126	
672.69	13833	
672.87	12238	
673.06	12402	
673.24	14117	
673.43	13934	
673.61	12548	
673.8	12390	
673.98	13947	
674.17	14145	
674.36	12828	
674.54	12621	
674.73	13797	
674.91	14057	
675.1	12502	
675.28	12123	
675.47	13688	
675.65	14140	
675.84	12351	
676.03	12588	
676.21	13732	
676.4	13403	
676.58	12793	
676.77	12729	
676.95	14603	
677.14	13587	
677.32	12209	
677.51	12138	
677.69	14114	
677.88	13563	
678.06	12165	
678.25	12282	
678.44	13844	
678.62	13717	
678.81	12039	
678.99	12729	
679.18	14269	
679.36	14113	
679.55	12381	
679.73	12718	
679.92	14001	
680.1	13697	
680.29	12999	
680.47	12329	
680.66	13584	
680.84	14046	
681.03	12040	
681.21	12544	
681.4	13629	
681.58	13517	
681.77	12230	
681.95	12265	
682.14	14032	
682.32	14161	
682.51	12624	
682.69	11796	
682.88	13491	
683.06	13555	
683.25	12256	
683.43	12591	
683.62	13639	
683.8	13730	
683.99	12566	
684.17	12125	
684.36	14158	
684.54	13241	
684.73	11442	
684.91	11450	
685.1	12822	
685.28	12394	
685.46	11052	
685.65	10867	
685.83	12310	
686.02	11858	
686.2	10374	
686.39	10372	
686.57	11708	
686.76	12605	
686.94	10527	
687.13	10732	
687.31	12217	
687.5	12366	
687.68	10528	
687.86	11151	
688.05	13270	
688.23	12022	
688.42	11290	
688.6	10914	
688.79	12261	
688.97	12433	
689.16	11273	
689.34	10772	
689.52	12900	
689.71	13108	
689.89	11601	
690.08	11159	
690.26	12761	
690.45	12765	
690.63	11532	
690.81	11468	
691	12693	
691.18	12549	
691.37	11351	
691.55	12402	
691.74	12326	
691.92	13562	
692.1	11237	
692.29	10785	
692.47	12481	
692.66	11974	
692.84	10979	
693.02	11146	
693.21	12179	
693.39	12505	
693.58	11363	
693.76	11052	
693.94	13205	
694.13	13268	
694.31	11312	
694.5	11902	
694.68	12665	
694.86	13211	
695.05	11673	
695.23	11985	
695.42	13510	
695.6	14556	
695.78	12128	
695.97	11687	
696.15	13577	
696.34	13073	
696.52	11476	
696.7	11907	
696.89	13165	
697.07	12631	
697.25	11695	
697.44	12446	
697.62	12940	
697.81	12828	
697.99	11349	
698.17	11714	
698.36	12526	
698.54	12734	
698.72	11495	
698.91	10815	
699.09	12459	
699.28	12301	
699.46	11151	
699.64	11065	
699.83	12457	
700.01	12703	
700.19	11440	
700.38	10626	
700.56	12816	
700.74	12316	
700.93	10938	
701.11	11327	
701.29	12709	
701.48	13422	
701.66	11080	
701.84	11290	
702.03	12665	
702.21	13136	
702.39	11170	
702.58	11400	
702.76	13024	
702.94	13099	
703.13	11019	
703.31	12382	
703.49	12618	
703.68	13105	
703.86	11045	
704.04	11802	
704.23	12739	
704.41	12923	
704.59	11194	
704.78	11638	
704.96	13764	
705.14	12917	
705.33	11045	
705.51	11266	
705.69	12458	
705.87	13024	
706.06	11556	
706.24	10875	
706.42	12732	
706.61	12861	
706.79	11580	
706.97	10811	
707.16	12341	
707.34	12476	
707.52	11172	
707.7	10963	
707.89	12319	
708.07	12132	
708.25	11312	
708.44	11554	
708.62	12267	
708.8	12775	
708.98	11504	
709.17	10884	
709.35	12370	
709.53	12471	
709.72	10587	
709.9	10664	
710.08	12544	
710.26	12658	
710.45	11465	
710.63	10692	
710.81	12011	
710.99	12121	
711.18	10993	
711.36	10484	
711.54	12056	
711.72	12229	
711.91	10537	
712.09	10107	
712.27	11820	
712.45	11890	
712.64	10241	
712.82	9764	
713	11262	
713.18	11074	
713.37	9448	
713.55	10025	
713.73	11267	
713.91	10335	
714.1	9175.6	
714.28	8712.7	
714.46	10430	
714.64	9726.5	
714.83	7792.5	
715.01	7958.4	
715.19	9238.4	
715.37	8507.9	
715.55	7340.6	
715.74	7382.2	
715.92	9200.8	
716.1	8017.8	
716.28	7980.9	
716.47	7328.3	
716.65	8475.9	
716.83	8340.7	
717.01	7148.1	
717.19	7126.9	
717.38	9442.5	
717.56	8174.1	
717.74	7283.3	
717.92	6876.4	
718.1	8929.1	
718.29	8512.7	
718.47	6822.5	
718.65	7301.7	
718.83	9345.6	
719.01	9397.4	
719.2	7335.1	
719.38	8007.6	
719.56	9496.4	
719.74	10318	
719.92	7831.4	
720.11	8297	
720.29	9443.9	
720.47	8815.1	
720.65	7266.9	
720.83	7617.8	
721.02	8664.3	
721.2	8445.1	
721.38	7283.3	
721.56	6832	
721.74	7838.9	
721.92	7928.4	
722.11	7382.2	
722.29	7187	
722.47	8647.2	
722.65	8133.8	
722.83	6660.7	
723.01	7186.3	
723.2	8040.3	
723.38	8325.7	
723.56	6385.6	
723.74	7026.6	
723.92	7811	
724.1	8493.6	
724.29	6633.4	
724.47	7174	
724.65	8044.4	
724.83	7816.4	
725.01	6492.1	
725.19	6910.5	
725.37	7744.7	
725.56	7745.4	
725.74	6352.1	
725.92	6573.3	
726.1	7750.2	
726.28	7959.8	
726.46	6662	
726.64	6430.6	
726.83	7951.6	
727.01	7887.4	
727.19	6290.7	
727.37	6806.1	
727.55	8014.4	
727.73	8264.2	
727.91	6185.5	
728.09	6182.1	
728.28	8176.9	
728.46	8284.7	
728.64	6733	
728.82	6713.2	
729	8791.2	
729.18	8530.5	
729.36	6376.7	
729.54	7628.7	
729.72	9179.7	
729.91	8311.3	
730.09	7658	
730.27	6939.9	
730.45	8282	
730.63	8595.3	
730.81	7378.8	
730.99	6853.9	
731.17	9019.3	
731.35	8258.8	
731.53	7112.6	
731.71	6978.1	
731.9	8798.8	
732.08	8755.7	
732.26	6923.5	
732.44	6727.6	
732.62	8890.9	
732.8	8598.7	
732.98	7186.3	
733.16	6618.4	
733.34	8482.7	
733.52	7568.6	
733.7	6795.2	
733.88	6886.6	
734.07	8221.9	
734.25	8140	
734.43	6563.1	
734.61	7206.1	
734.79	8974.2	
734.97	8163.2	
735.15	6545.3	
735.33	6752.8	
735.51	8226.7	
735.69	8043.7	
735.87	7172.7	
736.05	6791.1	
736.23	8132.5	
736.41	7862.2	
736.59	6721.4	
736.77	6678.4	
736.95	8368	
737.13	7926.3	
737.32	6561.7	
737.5	6564.4	
737.68	8750.3	
737.86	7829.4	
738.04	6339.1	
738.22	7253.2	
738.4	7740	
738.58	7909.9	
738.76	6579.4	
738.94	6065.4	
739.12	7719.5	
739.3	7666.9	
739.48	6885.3	
739.66	6745.3	
739.84	7881.3	
740.02	7790.5	
740.2	6137.1	
740.38	6133.7	
740.56	7985.7	
740.74	7310.6	
740.92	6570.6	
741.1	6388.3	
741.28	7648.5	
741.46	7465.5	
741.64	6136.4	
741.82	6429.3	
742	7636.9	
742.18	7524.9	
742.36	6201.9	
742.54	6069.5	
742.72	7861.5	
742.9	7116	
743.08	6414.2	
743.26	5702.9	
743.44	7760.4	
743.62	7774.8	
743.8	6403.3	
743.98	5901.6	
744.16	7532.4	
744.34	7346.1	
744.52	6236.1	
744.7	6148	
744.88	7548.1	
745.06	7220.5	
745.24	6175.3	
745.42	6189	
745.6	7559.1	
745.78	7391.1	
745.96	5478.3	
746.14	5561.6	
746.32	7804.1	
746.5	7260.7	
746.68	5801.9	
746.86	5478.3	
747.03	7555	
747.21	6574.7	
747.39	5732.9	
747.57	5381.4	
747.75	7034.8	
747.93	7225.2	
748.11	5388.2	
748.29	5457.2	
748.47	7954.3	
748.65	6887.3	
748.83	5773.2	
749.01	5574.6	
749.19	7172	
749.37	6621.1	
749.55	5494.7	
749.73	5542.5	
749.91	7001.3	
750.09	6764.4	
750.26	5610.1	
750.44	5179.3	
750.62	6961	
750.8	6796.5	
750.98	5216.2	
751.16	5309	
751.34	6905.8	
751.52	6436.1	
751.7	5696.1	
751.88	5026.4	
752.06	7220.5	
752.24	6886.6	
752.42	5030.5	
752.59	5244.2	
752.77	6645.7	
752.95	7359	
753.13	5684.5	
753.31	5279.7	
753.49	6546.7	
753.67	6736.5	
753.85	5397.1	
754.03	5043.5	
754.21	6835.4	
754.38	6964.5	
754.56	4972.5	
754.74	4466.6	
754.92	6162.3	
755.1	6293.4	
755.28	4178.5	
755.46	4131.4	
755.64	6650.4	
755.82	6431.3	
755.99	3828.3	
756.17	3762.1	
756.35	4634.6	
756.53	5393	
756.71	2966.1	
756.89	3639.9	
757.07	5116.5	
757.25	4618.9	
757.42	3806.5	
757.6	4289.8	
757.78	5320.6	
757.96	4849.6	
758.14	3867.9	
758.32	3589.4	
758.5	4640	
758.67	5045.5	
758.85	3667.2	
759.03	3712.3	
759.21	5168.4	
759.39	4762.2	
759.57	3352.5	
759.75	4003.1	
759.92	5625.8	
760.1	5285.8	
760.28	4383.3	
760.46	4498	
760.64	5153.4	
760.82	5148.6	
760.99	4363.5	
761.17	3921.9	
761.35	5803.9	
761.53	5087.8	
761.71	4147.1	
761.89	4491.9	
762.06	5700.2	
762.24	5507	
762.42	4343.7	
762.6	4143	
762.78	5480.4	
762.96	5897.5	
763.13	4532.2	
763.31	4291.9	
763.49	5980.1	
763.67	5574.6	
763.85	4806.6	
764.02	5110.4	
764.2	6219	
764.38	5565	
764.56	4254.3	
764.74	4750.6	
764.91	6234.7	
765.09	5479.7	
765.27	4117.8	
765.45	3953.3	
765.63	6307.7	
765.8	6076.3	
765.98	3887.7	
766.16	3945.8	
766.34	5274.9	
766.52	5144.5	
766.69	4487.8	
766.87	3859.1	
767.05	5537	
767.23	5918.6	
767.41	4012.7	
767.58	4119.8	
767.76	5776.6	
767.94	5785.5	
768.12	4037.2	
768.29	4333.5	
768.47	5296.7	
768.65	5832.6	
768.83	3742.3	
769	4317.1	
769.18	5168.4	
769.36	5531.6	
769.54	4339	
769.72	3647.4	
769.89	5785.5	
770.07	5670.8	
770.25	3917.1	
770.43	4605.2	
770.6	6085.9	
770.78	6262	
770.96	3983.3	
771.14	4299.4	
771.31	5597.1	
771.49	5186.8	
771.67	3405.1	
771.85	3532.1	
772.02	4702.8	
772.2	5044.8	
772.38	4111	
772.55	3679.5	
772.73	5298.1	
772.91	5137.7	
773.09	3797.6	
773.26	3889.1	
773.44	5223.7	
773.62	5054.4	
773.8	3592.1	
773.97	3448.1	
774.15	5220.3	
774.33	5083.7	
774.5	3408.5	
774.68	3653.6	
774.86	5186.1	
775.04	4980	
775.21	3505.4	
775.39	3407.8	
775.57	5076.2	
775.74	5251.7	
775.92	3292.5	
776.1	3207.8	
776.27	5020.3	
776.45	5732.9	
776.63	3452.9	
776.81	3139.5	
776.98	4899.4	
777.16	5359.5	
777.34	3459.7	
777.51	3557.3	
777.69	4884.4	
777.87	4675.5	
778.04	3473.4	
778.22	3691.8	
778.4	4678.9	
778.57	5045.5	
778.75	3048.7	
778.93	3186	
779.1	4636.6	
779.28	4394.9	
779.46	2996.2	
779.64	3187.3	
779.81	5109.7	
779.99	5523.4	
780.17	3645.4	
780.34	3700	
780.52	4804.5	
780.69	4823.6	
780.87	3413.3	
781.05	3177.8	
781.22	4874.8	
781.4	4822.3	
781.58	3278.8	
781.75	2725.8	
781.93	4765.6	
782.11	4323.9	
782.28	3723.2	
782.46	3166.8	
782.64	4269.3	
782.81	4799.8	
782.99	3257	
783.17	3157.3	
783.34	4691.9	
783.52	4453	
783.69	3197.6	
783.87	3745.7	
784.05	4460.5	
784.22	4390.8	
784.4	3740.3	
784.58	3338.9	
784.75	4982	
784.93	4478.9	
785.1	3102.7	
785.28	3487.7	
785.46	4814.8	
785.63	4225	
785.81	3169.6	
785.99	2949.1	
786.16	4515.1	
786.34	4605.9	
786.51	2992.8	
786.69	3310.9	
786.87	4115.1	
787.04	4431.1	
787.22	2948.4	
787.39	3439.2	
787.57	4337.6	
787.75	4937.7	
787.92	3611.3	
788.1	3490.4	
788.27	4254.3	
788.45	4030.4	
788.63	3347.1	
788.8	2577	
788.98	4612	
789.15	4036.5	
789.33	2704.7	
789.5	2955.9	
789.68	4778.6	
789.86	4911	
790.03	3334.1	
790.21	2920.4	
790.38	4904.9	
790.56	4368.3	
790.73	2884.2	
790.91	2824.8	
791.09	4278.9	
791.26	4646.2	
791.44	3040.6	
791.61	2675.3	
791.79	4249.5	
791.96	4194.2	
792.14	2768.9	
792.32	2519.7	
792.49	4213.4	
792.67	4307.6	
792.84	2869.2	
793.02	2680.8	
793.19	4602.5	
793.37	4884.4	
793.54	2490.3	
793.72	2728.6	
793.89	4906.9	
794.07	4171	
794.25	3069.2	
794.42	2590.7	
794.6	4756.1	
794.77	4562.2	
794.95	3200.3	
795.12	2891	
795.3	4232.5	
795.47	4518.5	
795.65	3098.6	
795.82	2957.9	
796	4042	
796.17	5108.3	
796.35	2893.8	
796.52	3326.6	
796.7	4555.4	
796.87	4572.4	
797.05	2910.8	
797.22	3338.2	
797.4	4606.6	
797.57	5049.6	
797.75	3024.2	
797.92	2847.4	
798.1	4800.4	
798.27	3999	
798.45	2536.8	
798.62	2669.2	
798.8	4354	
798.97	4642.1	
799.15	3158	
799.32	2978.4	
799.5	3918.4	
799.67	4335.5	
799.85	3170.3	
800.02	2484.2	
800.2	4178.5	
800.37	4234.5	
800.55	3192.1	
800.72	2833.7	
800.9	4646.8	
801.07	4809.3	
801.25	3532.7	
801.42	3067.2	
801.6	4718.5	
801.77	4256.4	
801.95	2892.4	
802.12	2729.3	
802.29	4482.3	
802.47	4347.8	
802.64	3041.2	
802.82	2426.2	
802.99	4144.4	
803.17	4631.1	
803.34	2966.8	
803.52	2745.6	
803.69	4932.2	
803.87	3954.6	
804.04	2947.7	
804.21	2943.6	
804.39	4794.3	
804.56	4138.3	
804.74	2595.5	
804.91	3022.8	
805.09	4139.6	
805.26	4139.6	
805.44	2667.1	
805.61	2792.1	
805.78	4603.8	
805.96	4526	
806.13	3003.7	
806.31	3126.6	
806.48	3831.7	
806.66	4128	
806.83	2998.2	
807	2906.8	
807.18	4143.7	
807.35	4301.4	
807.53	2879.4	
807.7	2460.3	
807.87	4755.4	
808.05	4058.4	
808.22	3139.5	
808.4	2497.2	
808.57	4020.2	
808.74	3869.3	
808.92	2760.7	
809.09	3347.7	
809.27	4152.6	
809.44	4351.9	
809.61	2472.6	
809.79	2724.5	
809.96	4861.2	
810.14	4427	
810.31	2410.5	
810.48	3074	
810.66	4099.4	
810.83	4474.8	
811.01	2764.8	
811.18	2960.7	
811.35	4528.1	
811.53	3734.1	
811.7	3167.5	
811.87	2943.6	
812.05	4210.6	
812.22	4063.2	
812.39	2682.8	
812.57	2579.1	
812.74	4172.4	
812.92	5024.3	
813.09	2919	
813.26	2891	
813.44	4835.3	
813.61	3943	
813.78	2474.6	
813.96	3067.9	
814.13	4144.4	
814.3	4013.3	
814.48	3270.6	
814.65	2727.2	
814.82	4834.6	
815	3824.2	
815.17	2889.7	
815.34	3347.7	
815.52	4074.8	
815.69	4020.8	
815.87	2766.1	
816.04	2785.2	
816.21	4039.3	
816.38	3758.7	
816.56	2769.5	
816.73	2643.9	
816.9	5003.2	
817.08	4443.4	
817.25	2648.7	
817.42	3134.8	
817.6	3852.9	
817.77	4028.4	
817.94	2936.8	
818.12	2564.7	
818.29	3908.2	
818.46	5311.7	
818.64	2770.9	
818.81	2572.9	
818.98	4003.1	
819.16	5147.9	
819.33	3024.2	
819.5	2872.6	
819.67	4310.3	
819.85	4670.1	
820.02	2873.3	
820.19	2902	
820.37	4255.7	
820.54	3988.8	
820.71	2936.8	
820.88	3449.5	
821.06	4207.2	
821.23	3927.3	
821.4	2891	
821.58	2948.4	
821.75	4446.8	
821.92	4202.4	
822.09	2464.4	
822.27	2624.1	
822.44	4123.2	
822.61	3995.6	
822.79	2443.2	
822.96	4159.4	
823.13	4260.5	
823.3	3859.1	
823.48	2691	
823.65	2498.5	
823.82	4560.8	
823.99	3819.5	
824.17	3349.8	
824.34	2575.7	
824.51	5082.4	
824.68	4122.6	
824.86	2666.5	
825.03	2898.6	
825.2	4099.4	
825.37	4631.1	
825.55	2724.5	
825.72	2846	
825.89	4937	
826.06	4726	
826.24	2809.8	
826.41	2785.9	
826.58	4760.2	
826.75	4230.4	
826.92	2418.7	
827.1	2581.8	
827.27	5948.7	
827.44	4876.9	
827.61	2626.2	
827.79	3091.8	
827.96	4012.7	
828.13	4026.3	
828.3	2798.2	
828.47	2425.5	
828.65	4393.6	
828.82	4293.9	
828.99	3379.8	
829.16	2963.4	
829.34	4583.4	
829.51	4480.3	
829.68	2811.9	
829.85	2809.8	
830.02	4838	
830.2	4561.5	
830.37	2285.5	
830.54	3215.3	
830.71	4980	
830.88	4182	
831.05	2256.9	
831.23	2607.1	
831.4	4901.5	
831.57	5165	
831.74	2686.3	
831.91	2380.4	
832.09	4426.3	
832.26	4515.1	
832.43	2661.7	
832.6	2975.7	
832.77	4356	
832.94	4781.3	
833.12	2270.5	
833.29	2691	
833.46	4065.9	
833.63	5289.2	
833.8	2918.4	
833.97	2686.9	
834.15	4642.7	
834.32	4490.5	
834.49	2849.4	
834.66	2874	
834.83	4549.9	
835	4044.1	
835.17	2604.3	
835.35	2637.1	
835.52	4520.5	
835.69	4423.6	
835.86	2719	
836.03	2348.3	
836.2	4546.5	
836.37	4272.7	
836.55	2676	
836.72	2529.2	
836.89	4298.7	
837.06	4580.6	
837.23	2718.3	
837.4	2890.4	
837.57	5022.3	
837.75	5277.6	
837.92	2534.7	
838.09	2637.8	
838.26	4272.7	
838.43	4654.4	
838.6	2817.3	
838.77	2585.9	
838.94	5060.5	
839.11	4967.7	
839.29	2728.6	
839.46	2238.4	
839.63	4580.6	
839.8	4285.7	
839.97	2603	
840.14	2624.8	
840.31	4460.5	
840.48	4554	
840.65	2284.9	
840.82	2637.8	
841	4513	
841.17	4390.2	
841.34	2477.4	
841.51	2532.7	
841.68	4528.7	
841.85	4222.9	
842.02	2549	
842.19	2214.5	
842.36	4367.6	
842.53	4377.2	
842.7	2478	
842.87	2905.4	
843.05	5339.1	
843.22	4281.6	
843.39	2381.1	
843.56	2575.7	
843.73	4326	
843.9	4575.2	
844.07	3621.5	
844.24	3069.9	
844.41	5788.9	
844.58	4036.5	
844.75	2403.6	
844.92	2506	
845.09	4468.7	
845.26	4499.4	
845.43	2446.6	
845.6	2572.9	
845.77	4502.1	
845.94	4298.7	
846.12	2707.4	
846.29	2725.2	
846.46	4641.4	
846.63	4424.3	
846.8	2442.5	
846.97	2870.6	
847.14	4761.5	
847.31	4491.2	
847.48	2706	
847.65	2919.7	
847.82	4497.3	
847.99	4563.6	
848.16	3083.6	
848.33	2862.4	
848.5	4230.4	
848.67	4755.4	
848.84	2373.6	
849.01	2441.9	
849.18	4204.5	
849.35	3984	
849.52	2934.1	
849.69	2401.6	
849.86	4619.5	
850.03	4594.3	
850.2	2441.9	
850.37	2852.8	
850.54	4632.5	
850.71	4252.3	
850.88	2841.9	
851.05	2366.8	
851.22	4361.5	
851.39	4733.5	
851.56	2347	
851.73	2788.7	
851.9	4074.8	
852.07	4567.7	
852.24	2666.5	
852.41	2415.9	
852.58	4454.3	
852.75	4082.3	
852.92	2686.9	
853.09	2419.3	
853.26	4112.3	
853.43	4705.5	
853.6	2414.6	
853.77	2178.4	
853.94	4825	
854.11	4034.5	
854.28	3363.4	
854.44	2649.4	
854.61	4926.7	
854.78	4639.3	
854.95	2442.5	
855.12	2891.7	
855.29	3813.3	
855.46	4899.4	
855.63	2449.4	
855.8	3170.9	
855.97	4218.8	
856.14	4677.6	
856.31	3241.9	
856.48	2620	
856.65	4341	
856.82	4040	
856.99	2385.2	
857.16	2565.4	
857.33	5137	
857.49	4272.7	
857.66	2564.1	
857.83	2721.8	
858	4384	
858.17	4450.9	
858.34	2357.9	
858.51	2482.8	
858.68	4864.6	
858.85	4760.8	
859.02	2743.6	
859.19	2835.1	
859.36	4071.4	
859.52	3981.3	
859.69	2451.4	
859.86	2796.2	
860.03	4010.6	
860.2	4777.9	
860.37	2310.8	
860.54	2461.7	
860.71	4595.6	
860.88	4795	
861.05	2692.4	
861.21	2967.5	
861.38	4757.4	
861.55	3891.1	
861.72	2226.1	
861.89	2622.1	
862.06	4613.4	
862.23	4826.4	
862.4	2340.1	
862.56	2538.1	
862.73	4560.1	
862.9	4356	
863.07	2680.1	
863.24	2200.2	
863.41	4029.7	
863.58	4080.2	
863.75	2441.9	
863.91	2772.9	
864.08	4655	
864.25	4556.7	
864.42	2874	
864.59	3261.7	
864.76	4947.9	
864.93	4063.2	
865.09	2338.8	
865.26	2596.1	
865.43	4769.7	
865.6	4962.2	
865.77	2159.9	
865.94	2435	
866.1	4676.2	
866.27	4504.8	
866.44	3424.2	
866.61	2384.5	
866.78	4291.9	
866.95	4530.8	
867.11	2414.6	
867.28	2217.3	
867.45	4741	
867.62	4044.1	
867.79	2701.3	
867.96	2400.2	
868.12	3979.2	
868.29	4561.5	
868.46	2396.8	
868.63	3086.3	
868.8	4592.9	
868.97	4552.6	
869.13	2545.6	
869.3	2519.7	
869.47	4444.1	
869.64	4620.2	
869.81	2452.1	
869.97	2378.4	
870.14	4433.9	
870.31	4748.6	
870.48	2437.1	
870.65	2980.5	
870.81	4351.3	
870.98	4263.9	
871.15	2687.6	
871.32	2497.2	
871.48	4435.9	
871.65	4842.8	
871.82	2356.5	
871.99	2597.5	
872.16	5084.4	
872.32	4735.6	
872.49	2521	
872.66	2450.7	
872.83	4582	
872.99	4145.8	
873.16	2727.9	
873.33	2420	
873.5	4371.7	
873.67	4457.1	
873.83	2555.2	
874	2991.4	
874.17	4425.7	
874.34	4945.2	
874.5	2996.9	
874.67	2889	
874.84	4720.6	
875.01	3907.5	
875.17	3183.9	
875.34	2384.5	
875.51	4419.5	
875.68	5062.6	
875.84	2875.3	
876.01	3297.2	
876.18	4517.8	
876.34	4516.5	
876.51	2450.7	
876.68	2397.5	
876.85	4182	
877.01	4704.9	
877.18	3258.3	
877.35	2390.7	
877.52	4493.9	
877.68	4089.1	
877.85	2394.8	
878.02	2410.5	
878.18	4083	
878.35	4152.6	
878.52	2036.4	
878.69	2804.4	
878.85	4710.3	
879.02	4551.3	
879.19	3210.5	
879.35	2602.3	
879.52	4565.6	
879.69	4589.5	
879.86	2152.4	
880.02	2611.8	
880.19	4358.1	
880.36	4988.9	
880.52	2644.6	
880.69	2801.6	
880.86	4656.4	
881.02	4610	
881.19	2612.5	
881.36	2538.1	
881.52	4611.3	
881.69	4108.9	
881.86	2660.3	
882.02	2503.3	
882.19	4743.8	
882.36	5218.9	
882.52	2482.8	
882.69	3192.1	
882.86	4421.6	
883.02	4357.4	
883.19	2779.1	
883.36	2679.4	
883.52	4643.4	
883.69	5079	
883.86	2451.4	
884.02	2235.7	
884.19	4483.7	
884.36	4399	
884.52	2658.3	
884.69	2603	
884.86	4238.6	
885.02	4803.9	
885.19	2637.8	
885.36	2708.8	
885.52	4231.8	
885.69	4445.5	
885.86	3297.9	
886.02	2993.4	
886.19	4542.4	
886.35	4139.6	
886.52	2642.6	
886.69	3180.5	
886.85	4070.7	
887.02	4724	
887.19	4724	
887.35	4724	
887.52	4724	
887.68	4724	
887.85	4724	
888.02	4724	
888.18	4724	
888.35	4724	
888.51	4724	
888.68	4724	
888.85	4724	
889.01	4724	
889.18	4724	
889.35	4724	
889.51	4724	
889.68	4724	
889.84	4724	
890.01	4724	
890.17	4724	
890.34	4724	
890.51	4724	
890.67	4724	
890.84	4724	
891	4724	
891.17	4724	
891.34	4724	
891.5	4724	
891.67	4724	
891.83	4724	
892	4724	
892.16	4724	
892.33	4724	
892.5	4724	
892.66	4724	
892.83	4724	
892.99	4724	
893.16	4724	
893.32	4724	
893.49	4724	
893.65	4724	
893.82	4724	
893.99	4724	
894.15	4724	
894.32	4724	
894.48	4724	
894.65	4724	
894.81	4724	
894.98	4724	
895.14	4724	
895.31	4724	
895.47	4724	
895.64	4724	
895.81	4724	
895.97	4724	
896.14	4724	
896.3	4724	
896.47	4724	
896.63	4724	
896.8	4724	
896.96	4724	
897.13	4724	
897.29	4724	
897.46	4724	
897.62	4724	
897.79	4724	
897.95	4724	
898.12	4724	
898.28	4724	
898.45	4724	
898.61	4724	
898.78	4724	
898.94	4724	
899.11	4724	
899.27	4724	
899.44	4724	
899.6	4724	
899.77	4724	
899.93	4724	
900.1	4724	
900.26	4724	
900.43	4724	
900.59	4724	
900.76	4724	
900.92	4724	
901.09	4724	
901.25	4724	
901.42	4724	
901.58	4724	
901.75	4724	
901.91	4724	
902.07	4724	
902.24	4724	
902.4	4724	
902.57	4724	
902.73	4724	
902.9	4724	
903.06	4724	
903.23	4724	
903.39	4724	
903.56	4724	
903.72	4724	
903.88	4724	
904.05	4724	
904.21	4724	
904.38	4724	
904.54	4724	
904.71	4724	
904.87	4724	
905.03	4724	
905.2	4724	
905.36	4724	
905.53	4724	
905.69	4724	
905.86	4724	
906.02	4724	
906.18	4724	
906.35	4724	
906.51	4724	
906.68	4724	
906.84	4724	
907.01	4724	
907.17	4724	
907.33	4724	
907.5	4724	
907.66	4724	
907.83	4724	
907.99	4724	
908.15	4724	
908.32	4724	
908.48	4724	
908.65	4724	
908.81	4724	
908.97	4724	
909.14	4724	
909.3	4724	
909.47	4724	
909.63	4724	
909.79	4724	
909.96	4724	
910.12	4724	
910.28	4724	
910.45	4724	
910.61	4724	
910.78	4724	
910.94	4724	
911.1	4724	
911.27	4724	
911.43	4724	
911.59	4724	
911.76	4724	
911.92	4724	
912.08	4724	
912.25	4724	
912.41	4724	
912.57	4724	
912.74	4724	
912.9	4724	
913.07	4724	
913.23	4724	
913.39	4724	
913.56	4724	
913.72	4724	
913.88	4724	
914.05	4724	
914.21	4724	
914.37	4724	
914.54	4724	
914.7	4724	
914.86	4724	
915.03	4724	
915.19	4724	
