Wavelength	Intensities	
nm	a.u.	
179.22	1954.6	
179.44	1956.2	
179.65	1953.1	
179.86	1959.2	
180.08	1916.2	
180.29	5087.8	
180.51	3590.1	
180.72	5767.1	
180.94	6759.7	
181.15	3341.6	
181.37	3237.8	
181.58	5598.5	
181.79	5900.2	
182.01	3492.5	
182.22	3747.1	
182.44	5901.6	
182.65	4901.5	
182.87	4663.9	
183.08	4169.7	
183.29	6233.3	
183.51	5064.6	
183.72	3713	
183.94	5589.6	
184.15	5550	
184.37	5560.9	
184.58	3299.3	
184.79	4611.3	
185.01	5126.1	
185.22	5898.8	
185.44	4836.6	
185.65	4040.6	
185.86	5424.4	
186.08	4944.5	
186.29	3222.8	
186.51	3499.3	
186.72	5166.3	
186.94	6077	
187.15	4000.4	
187.36	4172.4	
187.58	7970.7	
187.79	5611.4	
188.01	4372.4	
188.22	6834.1	
188.43	6828.6	
188.65	5837.4	
188.86	3446	
189.08	4143.7	
189.29	5317.2	
189.5	5361.6	
189.72	3838.6	
189.93	3942.3	
190.15	6124.1	
190.36	7363.1	
190.57	4238.6	
190.79	4123.9	
191	6279.8	
191.22	6152.1	
191.43	4227	
191.64	3467.2	
191.86	6483.9	
192.07	6203.3	
192.29	3629.7	
192.5	3872	
192.71	6116.6	
192.93	5261.2	
193.14	3863.2	
193.35	3923.2	
193.57	5288.5	
193.78	6164.4	
194	3053.5	
194.21	3793.5	
194.42	5040.1	
194.64	5567.7	
194.85	4262.5	
195.07	4894.6	
195.28	5596.4	
195.49	4809.3	
195.71	5211.4	
195.92	3595.6	
196.13	5715.2	
196.35	5857.9	
196.56	5532.9	
196.78	4134.8	
196.99	7281.2	
197.2	6845	
197.42	4793.6	
197.63	4192.9	
197.84	4894.6	
198.06	5751.4	
198.27	3860.4	
198.48	5235.3	
198.7	5307	
198.91	5427.8	
199.13	4173.8	
199.34	4209.3	
199.55	5986.2	
199.77	4807.3	
199.98	3635.1	
200.19	4287.1	
200.41	5349.3	
200.62	5125.4	
200.83	4388.8	
201.05	4764.3	
201.26	5496.7	
201.47	5122	
201.69	3747.8	
201.9	3562.8	
202.11	5524.7	
202.33	6562.4	
202.54	4013.3	
202.76	4468	
202.97	5682.4	
203.18	5640.1	
203.4	4413.4	
203.61	4251.6	
203.82	5610.1	
204.04	5148.6	
204.25	4332.8	
204.46	4141.7	
204.68	5524.7	
204.89	5819.6	
205.1	4117.8	
205.32	3568.9	
205.53	5967.8	
205.74	6070.9	
205.96	2991.4	
206.17	4336.2	
206.38	5927.5	
206.6	6096.1	
206.81	4788.8	
207.02	3923.9	
207.24	5784.8	
207.45	6225.8	
207.66	4060.4	
207.88	3353.9	
208.09	5730.9	
208.3	5614.8	
208.52	3667.2	
208.73	4072.7	
208.94	5522.7	
209.15	6315.3	
209.37	3961.5	
209.58	4209.3	
209.79	6118	
210.01	5319.9	
210.22	3144.3	
210.43	3347.1	
210.65	5494.7	
210.86	5978	
211.07	4011.3	
211.29	3674.1	
211.5	5891.3	
211.71	5442.1	
211.93	3634.5	
212.14	3665.2	
212.35	5495.4	
212.56	5753.4	
212.78	4212.7	
212.99	3495.9	
213.2	6536.4	
213.42	5308.3	
213.63	3774.4	
213.84	4119.8	
214.06	4903.5	
214.27	5016.2	
214.48	4010.6	
214.69	4319.2	
214.91	6263.4	
215.12	6346	
215.33	4404.5	
215.55	4762.2	
215.76	6868.2	
215.97	5952.8	
216.18	4110.3	
216.4	4020.8	
216.61	5223.7	
216.82	6058.6	
217.04	3704.8	
217.25	3854.3	
217.46	6217.6	
217.67	5998.5	
217.89	3308.8	
218.1	3389.4	
218.31	5629.9	
218.53	5731.6	
218.74	3866.6	
218.95	3720.5	
219.16	5477.6	
219.38	6454.5	
219.59	3790.1	
219.8	4499.4	
220.01	7186.3	
220.23	5565.7	
220.44	4953.4	
220.65	3638.6	
220.87	5593	
221.08	6236.1	
221.29	3386.7	
221.5	4632.5	
221.72	7692.2	
221.93	5270.8	
222.14	4317.8	
222.35	5040.7	
222.57	5677	
222.78	5893.4	
222.99	4035.2	
223.2	4386.7	
223.42	5951.4	
223.63	6033.3	
223.84	3083.6	
224.05	3012.6	
224.27	7144	
224.48	6496.8	
224.69	5040.1	
224.9	4255.7	
225.12	5796.4	
225.33	5534.3	
225.54	3349.1	
225.75	3741	
225.97	5092.6	
226.18	5404.6	
226.39	4078.9	
226.6	3768.3	
226.82	5309.7	
227.03	5133.6	
227.24	4230.4	
227.45	3497.9	
227.67	5933.6	
227.88	6517.3	
228.09	4797.7	
228.3	4750.6	
228.52	5909.8	
228.73	5475.6	
228.94	3900	
229.15	3508.9	
229.36	5422.3	
229.58	5362.3	
229.79	3953.9	
230	4656.4	
230.21	6601.3	
230.43	5698.1	
230.64	4190.8	
230.85	4356.7	
231.06	5948.7	
231.28	5971.2	
231.49	3453.6	
231.7	4043.4	
231.91	5856.5	
232.12	5565.7	
232.34	3556.6	
232.55	4105.5	
232.76	6182.8	
232.97	5729.5	
233.18	3670.6	
233.4	4149.9	
233.61	5793	
233.82	5257.1	
234.03	3927.3	
234.25	3788.1	
234.46	7787.7	
234.67	5550	
234.88	4354.7	
235.09	3695.2	
235.31	5845.6	
235.52	5403.9	
235.73	4185.4	
235.94	3496.6	
236.15	5261.9	
236.37	6780.1	
236.58	3714.3	
236.79	4052.9	
237	5877	
237.21	5003.2	
237.43	4337.6	
237.64	3392.1	
237.85	10315	
238.06	5118.6	
238.27	4444.8	
238.48	3510.9	
238.7	5948	
238.91	5367	
239.12	4048.2	
239.33	4003.8	
239.54	5055.8	
239.76	5433.9	
239.97	4011.3	
240.18	3998.3	
240.39	7043.6	
240.6	5814.9	
240.82	4113.7	
241.03	3383.9	
241.24	5580.7	
241.45	6510.5	
241.66	3675.4	
241.87	4310.3	
242.09	6270.9	
242.3	6728.3	
242.51	4400.4	
242.72	4015.4	
242.93	6060.6	
243.14	5466.7	
243.36	4687.1	
243.57	5081	
243.78	6462	
243.99	5934.3	
244.2	4061.8	
244.41	3654.3	
244.63	5057.8	
244.84	5870.8	
245.05	4314.4	
245.26	4066.6	
245.47	5844.9	
245.68	6139.8	
245.9	5382.1	
246.11	4261.8	
246.32	5383.4	
246.53	5752.1	
246.74	6638.8	
246.95	3375.1	
247.16	4952.7	
247.38	5528.8	
247.59	3355.3	
247.8	4082.3	
248.01	5250.3	
248.22	5473.5	
248.43	3719.8	
248.64	3885	
248.86	4870.8	
249.07	5285.1	
249.28	3466.5	
249.49	4131.4	
249.7	6137.1	
249.91	6290.7	
250.12	3358.7	
250.34	3351.8	
250.55	5745.2	
250.76	5571.2	
250.97	4190.1	
251.18	4205.8	
251.39	6313.9	
251.6	5687.2	
251.81	4291.2	
252.03	4237.2	
252.24	5229.1	
252.45	6091.3	
252.66	3495.9	
252.87	4475.5	
253.08	5592.3	
253.29	7378.1	
253.5	3527.3	
253.72	4896.7	
253.93	5391.6	
254.14	6603.3	
254.35	3873.4	
254.56	3947.1	
254.77	5851	
254.98	5148.6	
255.19	3749.8	
255.41	4949.3	
255.62	5672.9	
255.83	6252.4	
256.04	4301.4	
256.25	4255	
256.46	6911.9	
256.67	5256.5	
256.88	4191.5	
257.09	4625	
257.31	5238.7	
257.52	5286.5	
257.73	5285.8	
257.94	3831.7	
258.15	5389.6	
258.36	5579.3	
258.57	4846.9	
258.78	3062.4	
258.99	6124.1	
259.2	5358.2	
259.41	3903.4	
259.63	3945.8	
259.84	6447.7	
260.05	6950.8	
260.26	5143.1	
260.47	3709.6	
260.68	6173.9	
260.89	5492	
261.1	4695.3	
261.31	3627.6	
261.52	6177.4	
261.73	6585.6	
261.95	4968.4	
262.16	4367.6	
262.37	6351.4	
262.58	6410.8	
262.79	5034.6	
263	3921.9	
263.21	5550.7	
263.42	5007.3	
263.63	3975.1	
263.84	3855	
264.05	6091.3	
264.26	6517.3	
264.47	4804.5	
264.69	4374.5	
264.9	6317.3	
265.11	5748.6	
265.32	3794.2	
265.53	3848.1	
265.74	5681.1	
265.95	4913.8	
266.16	4110.3	
266.37	4573.8	
266.58	5695.4	
266.79	5395	
267	3784	
267.21	3566.2	
267.42	5111	
267.63	5556.1	
267.84	4042	
268.06	3437.2	
268.27	6021	
268.48	6352.1	
268.69	4026.3	
268.9	4640	
269.11	6252.4	
269.32	5010	
269.53	3995.6	
269.74	3721.8	
269.95	5920.7	
270.16	4934.2	
270.37	4018.8	
270.58	4693.3	
270.79	5334.3	
271	6133	
271.21	4341.7	
271.42	4105.5	
271.63	5677	
271.84	5173.2	
272.05	3199.6	
272.26	3580.5	
272.47	5575.3	
272.68	5834.7	
272.89	3898.6	
273.11	4494.6	
273.32	5368.4	
273.53	6599.9	
273.74	4437.9	
273.95	4291.9	
274.16	6234	
274.37	5714.5	
274.58	4417.5	
274.79	3566.2	
275	5629.9	
275.21	6294.1	
275.42	5323.4	
275.63	4597.7	
275.84	5814.2	
276.05	7386.3	
276.26	4253.6	
276.47	3977.2	
276.68	5356.1	
276.89	6619.7	
277.1	4515.1	
277.31	3573.7	
277.52	5865.4	
277.73	5977.3	
277.94	3475.4	
278.15	3975.1	
278.36	5779.4	
278.57	5229.1	
278.78	3818.8	
278.99	4410.6	
279.2	5152	
279.41	5050.3	
279.62	5122.7	
279.83	3581.2	
280.04	6859.3	
280.25	5053	
280.46	5042.1	
280.67	4059.8	
280.88	5175.9	
281.09	6283.2	
281.3	4264.6	
281.51	5438.7	
281.72	6113.2	
281.93	6106.4	
282.14	3759.4	
282.35	4046.8	
282.56	6116.6	
282.77	6040.1	
282.98	3973.1	
283.19	4807.3	
283.4	7533.1	
283.61	5531.6	
283.82	3636.5	
284.03	5005.9	
284.24	5677	
284.45	6242.9	
284.66	5043.5	
284.87	4842.8	
285.08	6166.4	
285.29	6335.1	
285.5	3450.1	
285.71	3969	
285.92	6209.4	
286.12	6937.2	
286.33	5070.1	
286.54	3934.8	
286.75	6041.5	
286.96	5388.2	
287.17	3562.8	
287.38	4913.1	
287.59	5175.2	
287.8	5079.6	
288.01	3989.4	
288.22	4633.9	
288.43	6117.3	
288.64	5059.2	
288.85	4714.4	
289.06	4454.3	
289.27	6010.8	
289.48	6569.2	
289.69	5056.4	
289.9	4599.7	
290.11	6309.8	
290.32	5290.6	
290.53	4750.6	
290.74	4382.7	
290.94	6033.3	
291.15	6094.8	
291.36	3869.3	
291.57	4550.6	
291.78	5282.4	
291.99	4872.8	
292.2	3603.1	
292.41	4440.7	
292.62	6154.8	
292.83	5926.1	
293.04	5477	
293.25	3700	
293.46	5352.7	
293.67	6191	
293.88	3767.6	
294.09	3598.3	
294.29	5058.5	
294.5	5701.5	
294.71	4097.3	
294.92	3846.8	
295.13	5256.5	
295.34	6791.1	
295.55	3379.8	
295.76	3457	
295.97	5960.3	
296.18	6840.9	
296.39	3562.1	
296.6	3771	
296.81	5658.5	
297.01	6057.9	
297.22	4007.2	
297.43	3764.8	
297.64	5178.6	
297.85	5165.7	
298.06	3099.9	
298.27	3404.4	
298.48	5615.5	
298.69	5277.6	
298.9	4160.1	
299.11	3727.3	
299.31	5044.1	
299.52	5102.2	
299.73	4404.5	
299.94	4259.8	
300.15	5570.5	
300.36	5148.6	
300.57	4397.7	
300.78	4285.7	
300.99	5380	
301.2	5656.5	
301.4	3790.8	
301.61	4123.2	
301.82	5943.2	
302.03	6052.4	
302.24	4642.7	
302.45	3613.3	
302.66	5816.2	
302.87	6365.1	
303.08	3788.7	
303.29	5236	
303.49	5347.2	
303.7	5616.9	
303.91	3291.8	
304.12	4941.1	
304.33	5021.6	
304.54	5671.5	
304.75	3826.3	
304.96	3621.5	
305.16	5924.8	
305.37	6705.7	
305.58	3304.7	
305.79	3479.5	
306	5883.8	
306.21	4961.5	
306.42	3777.1	
306.63	5843.5	
306.83	5387.5	
307.04	6223.8	
307.25	4130.1	
307.46	4165.6	
307.67	4764.3	
307.88	6055.2	
308.09	3717.1	
308.29	3895.9	
308.5	5663.3	
308.71	6225.8	
308.92	4065.2	
309.13	3663.8	
309.34	5395.7	
309.55	5448.3	
309.75	4790.9	
309.96	4366.3	
310.17	5986.9	
310.38	5233.9	
310.59	4571.1	
310.8	3571	
311.01	5347.9	
311.21	5423.7	
311.42	3563.5	
311.63	3753.9	
311.84	5272.8	
312.05	5687.9	
312.26	4239.3	
312.46	4687.8	
312.67	5415.5	
312.88	5060.5	
313.09	3641.3	
313.3	3530	
313.51	6423.8	
313.71	6853.9	
313.92	3652.2	
314.13	3839.3	
314.34	5763	
314.55	5460.6	
314.76	4728.1	
314.96	4087.7	
315.17	5636	
315.38	6001.2	
315.59	3663.1	
315.8	3505.4	
316.01	6584.2	
316.21	6516.6	
316.42	3498.6	
316.63	4076.1	
316.84	5429.8	
317.05	6388.3	
317.26	4284.4	
317.46	3875.4	
317.67	5526.8	
317.88	6062.7	
318.09	4684.4	
318.3	3343.7	
318.5	5294	
318.71	5915.2	
318.92	6050.4	
319.13	4341	
319.34	6083.1	
319.54	6214.9	
319.75	3396.2	
319.96	3225.6	
320.17	5996.5	
320.38	6195.8	
320.58	3345	
320.79	4047.5	
321	6217.6	
321.21	6277.7	
321.42	4021.5	
321.62	3329.3	
321.83	5145.2	
322.04	5608	
322.25	3879.5	
322.46	3687.7	
322.66	5687.9	
322.87	5936.4	
323.08	4575.8	
323.29	3637.2	
323.5	6696.9	
323.7	5092.6	
323.91	5089.9	
324.12	4508.9	
324.33	5610.8	
324.53	5934.3	
324.74	4359.4	
324.95	4586.1	
325.16	4965	
325.37	5433.9	
325.57	3668.6	
325.78	3731.4	
325.99	5596.4	
326.2	5085.8	
326.4	5227.1	
326.61	3379.1	
326.82	5483.1	
327.03	5674.9	
327.24	5276.9	
327.44	5040.7	
327.65	5853.8	
327.86	4673.5	
328.07	4321.2	
328.27	3482.2	
328.48	6400.6	
328.69	5108.3	
328.9	5272.8	
329.1	3918.4	
329.31	5440.8	
329.52	6440.2	
329.73	3635.8	
329.93	4173.1	
330.14	5515.2	
330.35	5862.7	
330.56	6124.1	
330.76	4556.7	
330.97	5394.3	
331.18	5808	
331.39	4124.6	
331.59	3317.7	
331.8	6225.8	
332.01	6328.9	
332.22	3792.2	
332.42	4319.2	
332.63	5655.8	
332.84	5262.6	
333.05	4143.7	
333.25	3714.3	
333.46	5317.9	
333.67	5582.1	
333.88	3816.7	
334.08	4269.3	
334.29	7451.9	
334.5	6267.5	
334.7	3554.6	
334.91	5301.5	
335.12	5099.4	
335.33	6017.6	
335.53	4140.3	
335.74	6111.8	
335.95	5305.6	
336.16	5183.4	
336.36	4082.3	
336.57	4719.9	
336.78	5086.5	
336.98	6270.9	
337.19	5080.3	
337.4	4011.3	
337.61	6680.5	
337.81	5058.5	
338.02	3800.3	
338.23	4936.3	
338.43	6386.2	
338.64	5193.6	
338.85	3662.5	
339.05	4897.4	
339.26	6447	
339.47	4979.3	
339.68	3700	
339.88	5538.4	
340.09	5849	
340.3	6139.8	
340.5	4320.5	
340.71	3314.3	
340.92	5007.3	
341.13	6396.5	
341.33	3537.5	
341.54	4384.7	
341.75	5828.5	
341.95	5481.7	
342.16	4136.2	
342.37	4506.9	
342.57	5169.1	
342.78	5567.1	
342.99	4603.8	
343.19	3263.8	
343.4	6035.4	
343.61	5834	
343.81	3992.9	
344.02	3589.4	
344.23	6015.6	
344.43	6505.7	
344.64	4601.8	
344.85	4503.5	
345.06	5868.1	
345.26	6173.3	
345.47	4273.4	
345.68	5029.8	
345.88	4941.1	
346.09	6070.2	
346.3	4349.9	
346.5	3291.8	
346.71	5547.9	
346.92	5252.4	
347.12	3405.1	
347.33	4261.8	
347.54	6079.1	
347.74	6632.7	
347.95	4227.7	
348.16	3090.4	
348.36	5365.7	
348.57	5143.8	
348.78	4201.7	
348.98	4586.1	
349.19	5535	
349.39	5013.4	
349.6	3335.5	
349.81	3758	
350.01	5803.3	
350.22	5337	
350.43	4020.2	
350.63	4947.2	
350.84	5629.2	
351.05	5369.8	
351.25	3741	
351.46	3323.2	
351.67	6218.3	
351.87	5253.7	
352.08	3938.9	
352.29	4560.1	
352.49	6044.2	
352.7	5696.8	
352.9	3561.4	
353.11	4510.3	
353.32	6780.8	
353.52	5401.2	
353.73	3525.9	
353.94	4548.5	
354.14	5928.2	
354.35	5705	
354.55	3646.1	
354.76	4116.4	
354.97	5838.8	
355.17	5599.8	
355.38	3395.5	
355.59	4834.6	
355.79	5172.5	
356	5698.1	
356.2	4044.7	
356.41	3517.7	
356.62	5016.2	
356.82	5477.6	
357.03	4307.6	
357.24	3905.5	
357.44	5274.9	
357.65	5407.3	
357.85	5272.8	
358.06	4128	
358.27	4955.4	
358.47	5235.3	
358.68	3396.9	
358.88	4337.6	
359.09	5852.4	
359.3	6173.3	
359.5	5014.8	
359.71	4434.5	
359.91	6692.1	
360.12	5977.3	
360.33	4252.3	
360.53	4748.6	
360.74	5203.9	
360.94	5303.6	
361.15	4481.6	
361.36	3688.4	
361.56	6036.7	
361.77	5449	
361.97	5028.4	
362.18	3939.6	
362.38	6029.2	
362.59	5091.9	
362.8	3592.8	
363	3434.4	
363.21	4851.6	
363.41	5588.9	
363.62	4128.7	
363.83	5193.6	
364.03	5634	
364.24	6753.5	
364.44	5285.8	
364.65	5268.1	
364.85	5407.3	
365.06	4990.9	
365.27	3776.5	
365.47	3815.4	
365.68	6382.2	
365.88	5339.1	
366.09	4238.6	
366.29	3820.1	
366.5	5656.5	
366.71	6139.8	
366.91	5238	
367.12	4360.8	
367.32	6759	
367.53	5952.1	
367.73	4314.4	
367.94	5271.5	
368.14	5843.5	
368.35	6837.5	
368.56	4344.4	
368.76	3615.3	
368.97	5917.3	
369.17	7815.7	
369.38	3786.7	
369.58	4050.9	
369.79	5001.1	
369.99	6363	
370.2	5113.1	
370.4	4149.9	
370.61	5679.7	
370.82	6909.2	
371.02	3945.8	
371.23	3293.8	
371.43	4846.9	
371.64	6291.4	
371.84	4028.4	
372.05	5373.2	
372.25	7617.8	
372.46	5994.4	
372.66	3995.6	
372.87	3950.5	
373.07	6049.7	
373.28	7761.1	
373.48	5104.9	
373.69	4810	
373.9	5398.4	
374.1	5468.8	
374.31	5046.9	
374.51	4451.6	
374.72	6322.8	
374.92	5109.7	
375.13	5150	
375.33	4340.3	
375.54	5913.9	
375.74	5254.4	
375.95	4332.1	
376.15	5734.3	
376.36	5866.1	
376.56	5668.1	
376.77	4481	
376.97	4928.1	
377.18	7010.9	
377.38	5956.2	
377.59	5297.4	
377.79	3816	
378	5711.1	
378.2	6140.5	
378.41	3979.9	
378.61	3823.6	
378.82	6277.7	
379.02	5259.9	
379.23	4055	
379.43	5270.1	
379.64	6229.9	
379.84	5910.4	
380.05	3911.6	
380.25	3827	
380.46	6025.8	
380.66	5504.3	
380.87	5373.2	
381.07	5786.2	
381.28	6677.7	
381.48	6047	
381.69	3938.2	
381.89	4024.3	
382.1	4863.9	
382.3	6206.7	
382.51	5156.8	
382.71	6143.9	
382.91	6074.3	
383.12	6533	
383.32	4364.2	
383.53	4594.3	
383.73	5814.9	
383.94	5582.1	
384.14	4553.3	
384.35	3596.2	
384.55	5511.1	
384.76	6073.6	
384.96	4291.2	
385.17	4737.6	
385.37	6002.6	
385.58	5261.2	
385.78	4807.9	
385.98	3530.7	
386.19	5464	
386.39	5884.5	
386.6	4059.8	
386.8	4289.8	
387.01	5973.2	
387.21	6055.2	
387.42	4840	
387.62	5451	
387.83	5219.6	
388.03	6061.3	
388.23	4399.7	
388.44	5270.1	
388.64	5014.8	
388.85	5063.3	
389.05	4771.1	
389.26	5463.3	
389.46	7075	
389.67	6406	
389.87	4730.8	
390.07	4848.2	
390.28	5608	
390.48	5124	
390.69	3919.1	
390.89	4258.4	
391.1	5362.3	
391.3	6327.5	
391.5	5558.9	
391.71	6233.3	
391.91	6050.4	
392.12	7139.2	
392.32	5644.9	
392.53	4730.8	
392.73	5387.5	
392.93	5678.3	
393.14	4400.4	
393.34	5292.6	
393.55	6176	
393.75	5668.8	
393.95	4446.8	
394.16	4431.8	
394.36	5319.3	
394.57	6111.8	
394.77	3875.4	
394.98	4380.6	
395.18	5403.2	
395.38	5543.9	
395.59	5222.3	
395.79	4063.2	
396	5502.2	
396.2	5943.9	
396.4	4950.6	
396.61	4947.2	
396.81	6154.8	
397.02	5410.7	
397.22	5193	
397.42	5387.5	
397.63	6111.8	
397.83	5283.8	
398.04	4063.2	
398.24	4621.6	
398.44	5917.3	
398.65	4922	
398.85	3826.3	
399.05	4039.3	
399.26	5218.9	
399.46	7049.8	
399.67	4461.2	
399.87	4046.8	
400.07	5618.3	
400.28	5995.1	
400.48	4172.4	
400.69	5337	
400.89	6227.9	
401.09	6679.1	
401.3	4024.3	
401.5	5292	
401.7	7000	
401.91	7176.1	
402.11	4388.8	
402.32	4685.1	
402.52	6268.1	
402.72	6199.2	
402.93	4861.9	
403.13	3759.4	
403.33	7099.6	
403.54	5739.8	
403.74	4629.1	
403.94	5622.4	
404.15	5801.2	
404.35	7084.6	
404.56	4396.3	
404.76	6307.1	
404.96	6333	
405.17	6042.2	
405.37	5477.6	
405.57	4814.1	
405.78	6236.7	
405.98	5761.6	
406.18	4347.2	
406.39	5338.4	
406.59	6215.6	
406.79	5930.9	
407	4195.6	
407.2	4374.5	
407.4	6210.1	
407.61	6500.9	
407.81	4265.2	
408.01	6673	
408.22	5154.1	
408.42	7285.3	
408.62	5403.2	
408.83	4767	
409.03	5865.4	
409.23	5601.9	
409.44	4909	
409.64	5181.4	
409.84	6720.8	
410.05	6640.2	
410.25	4937	
410.45	4756.7	
410.66	5990.3	
410.86	8601.5	
411.06	5130.8	
411.27	4980.7	
411.47	8480	
411.67	6221.7	
411.88	5277.6	
412.08	5508.4	
412.28	6886.6	
412.49	7447.8	
412.69	4992.3	
412.89	4956.8	
413.09	7180.9	
413.3	7065.5	
413.5	5084.4	
413.7	4672.1	
413.91	6249	
414.11	7225.2	
414.31	4862.6	
414.52	5304.9	
414.72	6811.5	
414.92	6720.8	
415.12	4924	
415.33	5433.3	
415.53	7139.9	
415.73	7394.5	
415.94	5853.1	
416.14	5268.7	
416.34	6039.5	
416.55	5679.7	
416.75	6546.7	
416.95	5834.7	
417.15	7076.4	
417.36	7942	
417.56	6684.6	
417.76	5656.5	
417.97	7541.3	
418.17	7129.7	
418.37	5251	
418.57	5313.1	
418.78	6868.9	
418.98	6588.3	
419.18	6229.2	
419.38	6204.7	
419.59	6649.1	
419.79	6244.3	
419.99	5210.7	
420.2	5618.9	
420.4	7176.1	
420.6	7387	
420.8	5106.3	
421.01	4962.2	
421.21	6958.3	
421.41	7142.6	
421.61	5547.9	
421.82	5209.3	
422.02	6477.7	
422.22	7489.4	
422.42	6168.5	
422.63	5715.2	
422.83	6575.3	
423.03	7921.5	
423.23	5672.2	
423.44	4708.3	
423.64	6748.1	
423.84	6523.5	
424.04	5149.3	
424.25	4843.4	
424.45	7718.8	
424.65	7650.5	
424.85	4629.1	
425.06	5229.1	
425.26	7602.1	
425.46	6128.2	
425.66	5732.3	
425.87	5413.5	
426.07	7439.6	
426.27	7286.7	
426.47	5582.8	
426.67	4902.2	
426.88	7815.7	
427.08	7237.5	
427.28	5805.3	
427.48	4788.2	
427.69	6031.3	
427.89	6690.7	
428.09	5813.5	
428.29	4868.7	
428.5	7476.5	
428.7	6967.9	
428.9	4723.3	
429.1	5337.7	
429.3	6901	
429.51	7368.6	
429.71	5138.4	
429.91	5902.9	
430.11	7138.5	
430.31	7463.5	
430.52	5449.6	
430.72	5741.8	
430.92	7838.3	
431.12	7217.7	
431.32	5076.9	
431.53	5575.3	
431.73	6105	
431.93	7966.6	
432.13	4970.4	
432.33	4841.4	
432.54	6565.1	
432.74	6967.2	
432.94	4802.5	
433.14	6008.1	
433.34	7068.2	
433.55	6561.7	
433.75	5822.4	
433.95	7714	
434.15	6875.7	
434.35	6581.5	
434.56	5033.9	
434.76	4488.5	
434.96	6861.4	
435.16	7143.3	
435.36	4870.8	
435.56	6081.1	
435.77	6585.6	
435.97	6679.1	
436.17	6870.9	
436.37	6001.2	
436.57	6427.9	
436.78	6434.7	
436.98	6348.7	
437.18	6621.1	
437.38	7235.5	
437.58	6737.8	
437.78	6824.5	
437.99	5344.5	
438.19	7326.3	
438.39	8840.4	
438.59	5315.2	
438.79	4781.3	
438.99	7993.9	
439.2	6741.9	
439.4	4963.6	
439.6	4843.4	
439.8	7005.4	
440	8258.1	
440.2	5917.3	
440.4	6122.1	
440.61	7516.7	
440.81	8034.9	
441.01	5124.7	
441.21	5982.8	
441.41	7883.3	
441.61	7529	
441.81	6391	
442.02	7520.1	
442.22	8467	
442.42	7559.1	
442.62	5159.5	
442.82	5261.9	
443.02	7899.7	
443.22	6950.8	
443.43	5655.8	
443.63	5169.8	
443.83	6842.9	
444.03	6770.6	
444.23	6446.3	
444.43	6022.4	
444.63	7134.4	
444.83	8412.4	
445.04	5274.9	
445.24	6685.9	
445.44	7600	
445.64	7694.9	
445.84	6152.8	
446.04	6235.4	
446.24	6844.3	
446.44	8034.2	
446.65	5353.4	
446.85	5758.9	
447.05	7316.7	
447.25	7887.4	
447.45	5860.6	
447.65	5206.6	
447.85	7244.3	
448.05	6862.1	
448.25	6340.5	
448.46	6089.3	
448.66	7305.1	
448.86	6967.9	
449.06	5025	
449.26	6261.3	
449.46	7647.8	
449.66	6633.4	
449.86	5786.9	
450.06	5762.3	
450.26	6834.1	
450.47	7460.8	
450.67	6015.6	
450.87	6404.7	
451.07	7509.2	
451.27	7294.2	
451.47	5401.2	
451.67	5887.9	
451.87	6976.7	
452.07	8155	
452.27	5536.3	
452.47	5545.2	
452.67	7251.2	
452.88	7891.5	
453.08	4907.6	
453.28	6984.3	
453.48	8550.3	
453.68	7296.9	
453.88	5432.6	
454.08	5720.7	
454.28	7662.8	
454.48	7329.7	
454.68	6263.4	
454.88	6932.4	
455.08	7712.7	
455.28	7497.6	
455.48	5285.1	
455.68	6036.7	
455.89	8269.7	
456.09	7881.3	
456.29	5721.3	
456.49	5785.5	
456.69	8210.3	
456.89	7363.8	
457.09	6315.9	
457.29	6749.4	
457.49	7683.3	
457.69	7851.9	
457.89	6135	
458.09	5494.7	
458.29	7445.7	
458.49	8229.4	
458.69	6590.4	
458.89	5903.6	
459.09	8455.4	
459.29	8557.8	
459.49	6078.4	
459.69	6864.1	
459.9	7948.8	
460.1	7446.4	
460.3	5973.2	
460.5	5815.5	
460.7	7995.3	
460.9	7726.3	
461.1	5398.4	
461.3	6815	
461.5	8642.4	
461.7	8214.4	
461.9	5825.1	
462.1	6331.6	
462.3	7691.5	
462.5	8344.8	
462.7	5900.2	
462.9	6025.1	
463.1	9451.4	
463.3	9080	
463.5	6208.8	
463.7	7278.5	
463.9	7964.6	
464.1	8290.9	
464.3	6378.1	
464.5	6608.1	
464.7	8603.5	
464.9	8232.2	
465.1	8093.6	
465.3	7004.1	
465.5	8899.8	
465.7	8923	
465.9	7300.3	
466.1	7114	
466.3	8803.5	
466.5	8505.2	
466.7	8009.6	
466.9	6860.7	
467.1	8428.8	
467.3	9591.3	
467.5	7972.7	
467.7	6744	
467.9	9786.6	
468.1	10764	
468.3	7657.4	
468.5	8118.1	
468.7	8547.5	
468.9	8480.6	
469.1	7076.4	
469.3	7820.5	
469.5	10692	
469.7	8066.3	
469.9	7610.3	
470.1	6799.3	
470.3	8596	
470.5	8592.6	
470.7	8204.8	
470.9	6922.8	
471.1	8269	
471.3	8770.1	
471.5	6703	
471.69	8826.7	
471.89	8148.9	
472.09	7662.8	
472.29	7623.9	
472.49	8090.2	
472.69	7902.4	
472.89	8795.3	
473.09	6636.8	
473.29	6730.3	
473.49	8096.3	
473.69	8348.9	
473.89	7854	
474.09	6863.4	
474.29	9684.2	
474.49	9344.2	
474.69	7792.5	
474.89	7123.5	
475.09	8415.8	
475.29	8201.4	
475.49	6604.7	
475.69	6789.7	
475.88	10061	
476.08	8629.5	
476.28	6421.7	
476.48	6947.4	
476.68	9116.9	
476.88	8898.4	
477.08	6806.1	
477.28	7118.7	
477.48	8407.6	
477.68	9192.6	
477.88	6625.9	
478.08	6974.7	
478.28	9508	
478.48	8552.3	
478.67	6959	
478.87	6367.1	
479.07	9214.5	
479.27	8727.1	
479.47	7206.8	
479.67	7275.8	
479.87	8996.7	
480.07	9629.5	
480.27	6494.1	
480.47	8116.8	
480.67	8664.3	
480.87	9361.3	
481.06	6802.7	
481.26	7669	
481.46	8633.6	
481.66	8565.3	
481.86	7257.3	
482.06	8344.8	
482.26	8312.7	
482.46	9351	
482.66	7264.1	
482.86	6749.4	
483.05	8740	
483.25	8145.5	
483.45	9852.8	
483.65	7238.2	
483.85	8344.1	
484.05	8708	
484.25	7697.6	
484.45	8245.8	
484.65	9606.3	
484.84	9569.5	
485.04	7143.3	
485.24	7124.2	
485.44	9830.2	
485.64	8129.1	
485.84	6399.2	
486.04	7906.5	
486.24	8520.2	
486.44	8920.3	
486.63	6377.4	
486.83	7223.2	
487.03	8388.5	
487.23	8693.6	
487.43	6548	
487.63	9101.2	
487.83	8773.5	
488.02	9672.6	
488.22	7523.6	
488.42	8256.7	
488.62	9608.4	
488.82	8532.5	
489.02	7187	
489.22	7273.7	
489.41	9521	
489.61	9052	
489.81	6906.4	
490.01	6939.9	
490.21	9409.7	
490.41	10142	
490.61	6839.5	
490.8	7005.4	
491	8823.3	
491.2	8051.9	
491.4	7667.6	
491.6	6832.7	
491.8	8837	
491.99	9091.6	
492.19	6606.1	
492.39	7056.6	
492.59	9465.7	
492.79	9524.4	
492.99	7964.6	
493.18	7014.3	
493.38	9538.8	
493.58	10441	
493.78	7826	
493.98	7321.5	
494.18	9232.2	
494.37	8733.9	
494.57	8110.6	
494.77	7942.7	
494.97	9568.8	
495.17	9881.4	
495.37	7392.5	
495.56	7827.3	
495.76	10039	
495.96	9648.7	
496.16	8825.4	
496.36	7606.8	
496.55	9775.6	
496.75	9427.5	
496.95	8065.6	
497.15	7877.9	
497.35	9846.6	
497.54	9854.8	
497.74	7715.4	
497.94	9531.2	
498.14	10635	
498.34	10471	
498.53	7307.8	
498.73	8314.1	
498.93	9159.9	
499.13	9876.7	
499.33	8125	
499.52	8798.8	
499.72	9828.2	
499.92	10127	
500.12	7761.1	
500.32	8034.9	
500.51	10131	
500.71	9948.3	
500.91	8913.4	
501.11	8469	
501.31	10026	
501.5	10529	
501.7	9245.2	
501.9	8079.2	
502.1	9820	
502.29	10125	
502.49	8585.1	
502.69	9029.5	
502.89	10121	
503.09	10062	
503.28	7606.8	
503.48	7762.5	
503.68	9227.5	
503.88	9322.4	
504.07	8738	
504.27	8182.3	
504.47	9637.1	
504.67	9840.5	
504.86	8636.3	
505.06	8349.6	
505.26	9484.8	
505.46	11217	
505.65	8238.3	
505.85	8546.2	
506.05	9330.5	
506.25	9834.3	
506.44	7464.8	
506.64	8568.7	
506.84	9235.7	
507.04	10312	
507.23	7772	
507.43	8294.3	
507.63	11433	
507.83	9534	
508.02	8289.5	
508.22	8222.6	
508.42	11730	
508.62	9305.3	
508.81	8624	
509.01	8961.2	
509.21	9185.8	
509.4	9467.1	
509.6	8548.9	
509.8	7867.6	
510	9563.3	
510.19	11121	
510.39	7815	
510.59	7948.2	
510.79	9371.5	
510.98	10775	
511.18	7966.6	
511.38	8043.1	
511.57	10249	
511.77	10055	
511.97	8768.7	
512.17	7817.1	
512.36	10259	
512.56	10189	
512.76	7851.2	
512.95	7658	
513.15	10438	
513.35	8926.4	
513.55	8837.7	
513.74	8015.7	
513.94	10373	
514.14	9587.2	
514.33	8981.7	
514.53	8857.5	
514.73	9684.2	
514.92	9936.7	
515.12	8217.1	
515.32	8071	
515.51	9931.3	
515.71	10605	
515.91	10008	
516.11	8208.3	
516.3	11858	
516.5	9697.8	
516.7	8808.3	
516.89	9411.1	
517.09	9860.3	
517.29	9646.6	
517.48	9079.3	
517.68	8525.7	
517.88	9543.5	
518.07	10277	
518.27	8968.7	
518.47	8036.9	
518.66	10875	
518.86	9362.6	
519.06	7920.9	
519.25	8344.8	
519.45	9906	
519.65	11475	
519.84	9045.2	
520.04	9975.7	
520.24	11823	
520.43	10476	
520.63	8743.5	
520.83	8538	
521.02	9658.9	
521.22	10435	
521.42	9069.1	
521.61	9826.2	
521.81	10062	
522.01	10198	
522.2	9122.3	
522.4	8912.8	
522.6	10834	
522.79	9598.8	
522.99	9057.5	
523.18	8357.8	
523.38	10570	
523.58	10684	
523.77	10597	
523.97	8531.8	
524.17	12828	
524.36	11839	
524.56	9914.2	
524.76	9628.9	
524.95	10895	
525.15	10608	
525.34	9437.7	
525.54	9501.9	
525.74	11301	
525.93	10278	
526.13	10937	
526.33	9636.4	
526.52	11848	
526.72	11224	
526.91	10873	
527.11	10233	
527.31	11996	
527.5	12367	
527.7	10150	
527.89	9132.6	
528.09	10930	
528.29	11549	
528.48	10704	
528.68	10331	
528.87	12064	
529.07	12041	
529.27	10225	
529.46	9749.7	
529.66	11630	
529.85	12116	
530.05	9621.4	
530.25	10507	
530.44	13296	
530.64	11565	
530.83	10191	
531.03	10476	
531.23	12281	
531.42	12142	
531.62	11360	
531.81	10533	
532.01	12502	
532.21	13172	
532.4	10362	
532.6	10770	
532.79	13693	
532.99	12726	
533.18	10950	
533.38	12007	
533.58	12409	
533.77	13292	
533.97	11072	
534.16	11985	
534.36	13548	
534.55	12517	
534.75	12144	
534.95	11225	
535.14	13566	
535.34	12551	
535.53	10856	
535.73	13013	
535.92	14010	
536.12	12827	
536.31	11003	
536.51	12225	
536.71	13121	
536.9	12672	
537.1	11203	
537.29	11378	
537.49	13706	
537.68	12751	
537.88	11906	
538.07	11051	
538.27	12895	
538.46	13929	
538.66	11009	
538.86	11389	
539.05	13125	
539.25	13547	
539.44	11883	
539.64	11428	
539.83	12928	
540.03	14113	
540.22	11288	
540.42	11368	
540.61	13135	
540.81	13371	
541	11971	
541.2	12634	
541.39	12721	
541.59	13204	
541.78	12244	
541.98	11202	
542.18	12357	
542.37	12412	
542.57	11619	
542.76	12375	
542.96	12510	
543.15	13242	
543.35	11567	
543.54	10956	
543.74	13452	
543.93	13123	
544.13	11651	
544.32	12835	
544.52	13312	
544.71	12502	
544.91	10640	
545.1	12026	
545.3	12510	
545.49	13358	
545.69	10649	
545.88	11284	
546.08	14400	
546.27	13849	
546.47	11887	
546.66	11086	
546.86	13618	
547.05	14244	
547.24	11424	
547.44	11206	
547.63	12460	
547.83	13645	
548.02	11729	
548.22	11856	
548.41	12211	
548.61	13696	
548.8	11151	
549	11176	
549.19	12896	
549.39	13298	
549.58	10716	
549.78	11359	
549.97	13310	
550.17	12798	
550.36	12351	
550.55	13409	
550.75	12820	
550.94	13766	
551.14	10959	
551.33	11376	
551.53	12187	
551.72	13187	
551.92	11440	
552.11	11186	
552.31	13158	
552.5	13364	
552.69	12890	
552.89	10695	
553.08	13149	
553.28	12696	
553.47	11187	
553.67	12441	
553.86	13905	
554.06	12063	
554.25	10343	
554.44	11027	
554.64	14625	
554.83	14222	
555.03	10930	
555.22	11382	
555.42	13323	
555.61	12998	
555.8	11112	
556	11354	
556.19	12144	
556.39	13595	
556.58	11153	
556.78	11211	
556.97	12951	
557.16	12638	
557.36	12601	
557.55	10740	
557.75	11772	
557.94	13693	
558.13	10929	
558.33	10630	
558.52	13605	
558.72	12351	
558.91	10761	
559.1	10997	
559.3	11968	
559.49	11749	
559.69	10224	
559.88	11344	
560.07	12729	
560.27	13123	
560.46	11496	
560.66	11673	
560.85	12540	
561.04	11646	
561.24	10601	
561.43	10699	
561.63	11941	
561.82	12214	
562.01	12133	
562.21	11222	
562.4	12658	
562.59	13867	
562.79	10974	
562.98	10678	
563.18	12692	
563.37	14276	
563.56	11536	
563.76	10572	
563.95	12071	
564.14	12053	
564.34	10968	
564.53	10733	
564.73	12525	
564.92	12985	
565.11	11174	
565.31	10579	
565.5	13260	
565.69	12133	
565.89	10668	
566.08	11103	
566.27	13168	
566.47	13541	
566.66	11609	
566.85	10274	
567.05	12633	
567.24	11934	
567.44	10711	
567.63	12134	
567.82	12998	
568.02	12650	
568.21	10656	
568.4	11039	
568.6	12527	
568.79	12611	
568.98	10392	
569.18	10587	
569.37	12566	
569.56	14557	
569.76	10996	
569.95	12140	
570.14	12945	
570.34	12921	
570.53	10517	
570.72	10554	
570.91	13448	
571.11	12357	
571.3	11073	
571.49	11963	
571.69	12614	
571.88	11938	
572.07	11569	
572.27	11566	
572.46	12072	
572.65	13107	
572.85	10628	
573.04	11048	
573.23	13276	
573.43	12460	
573.62	10477	
573.81	11252	
574	12589	
574.2	12333	
574.39	10894	
574.58	11052	
574.78	13506	
574.97	12710	
575.16	11456	
575.36	11627	
575.55	13122	
575.74	13323	
575.93	10466	
576.13	11680	
576.32	12468	
576.51	13198	
576.71	10961	
576.9	12308	
577.09	13358	
577.28	12768	
577.48	11370	
577.67	10324	
577.86	12480	
578.05	12894	
578.25	10955	
578.44	11145	
578.63	12526	
578.83	13889	
579.02	10309	
579.21	12055	
579.4	12707	
579.6	12469	
579.79	11099	
579.98	13517	
580.17	13132	
580.37	13254	
580.56	10581	
580.75	11400	
580.94	13633	
581.14	13391	
581.33	11910	
581.52	10694	
581.71	13005	
581.91	13623	
582.1	10365	
582.29	10991	
582.48	12430	
582.68	12491	
582.87	11588	
583.06	11120	
583.25	12771	
583.45	12174	
583.64	11759	
583.83	12659	
584.02	12268	
584.21	12770	
584.41	11778	
584.6	11000	
584.79	12529	
584.98	13280	
585.18	10443	
585.37	10335	
585.56	11898	
585.75	12857	
585.94	10514	
586.14	11394	
586.33	13373	
586.52	12448	
586.71	11067	
586.91	10815	
587.1	11613	
587.29	12736	
587.48	10588	
587.67	10477	
587.87	12487	
588.06	12697	
588.25	11929	
588.44	11226	
588.63	12211	
588.83	12619	
589.02	10432	
589.21	10256	
589.4	11747	
589.59	11626	
589.78	9476.6	
589.98	9678	
590.17	11127	
590.36	11787	
590.55	8871.1	
590.74	9746.3	
590.94	13044	
591.13	11507	
591.32	9541.5	
591.51	9056.8	
591.7	12037	
591.89	11429	
592.09	9235.7	
592.28	9736	
592.47	10686	
592.66	12785	
592.85	9217.9	
593.05	9446.6	
593.24	11262	
593.43	12107	
593.62	9569.5	
593.81	9992	
594	11312	
594.19	11613	
594.39	9423.4	
594.58	9417.9	
594.77	11715	
594.96	12220	
595.15	9273.2	
595.34	10039	
595.54	11606	
595.73	10726	
595.92	8567.3	
596.11	9771.5	
596.3	12185	
596.49	10785	
596.68	9596.1	
596.88	10030	
597.07	11860	
597.26	10577	
597.45	8940.1	
597.64	10413	
597.83	10854	
598.02	11485	
598.22	9139.4	
598.41	9904	
598.6	11230	
598.79	10670	
598.98	9070.5	
599.17	10210	
599.36	11350	
599.55	12528	
599.74	11352	
599.94	11126	
600.13	11869	
600.32	10597	
600.51	8916.9	
600.7	8987.9	
600.89	12454	
601.08	12527	
601.27	8716.8	
601.47	9880.1	
601.66	11694	
601.85	12386	
602.04	9440.5	
602.23	9709.4	
602.42	10661	
602.61	11296	
602.8	9287.5	
602.99	9173.5	
603.18	11041	
603.37	11285	
603.57	9810.5	
603.76	10319	
603.95	11998	
604.14	11538	
604.33	9092.3	
604.52	9623.4	
604.71	11264	
604.9	10856	
605.09	10138	
605.28	10021	
605.47	11910	
605.66	11501	
605.86	9879.4	
606.05	9127.1	
606.24	11802	
606.43	10242	
606.62	9390.6	
606.81	10396	
607	11636	
607.19	10931	
607.38	8921.6	
607.57	9153.7	
607.76	10688	
607.95	10053	
608.14	9424.8	
608.33	10172	
608.52	10572	
608.72	11475	
608.91	8715.5	
609.1	8613.8	
609.29	10742	
609.48	10066	
609.67	9680.1	
609.86	8697.7	
610.05	10159	
610.24	10645	
610.43	8499.8	
610.62	8066.3	
610.81	11761	
611	11553	
611.19	8596.7	
611.38	9413.8	
611.57	10875	
611.76	12369	
611.95	8276.5	
612.14	8194.6	
612.33	10548	
612.52	10135	
612.71	8942.1	
612.9	8021.9	
613.09	9637.1	
613.28	12269	
613.47	8588.5	
613.66	9618.6	
613.85	10793	
614.04	10228	
614.24	8742.1	
614.43	7826	
614.62	10862	
614.81	10717	
615	9265.7	
615.19	9358.5	
615.38	10016	
615.57	10482	
615.76	9104.6	
615.95	10223	
616.14	10956	
616.33	10504	
616.52	9455.5	
616.71	9698.5	
616.9	10813	
617.09	10660	
617.28	8733.2	
617.47	10327	
617.66	9905.3	
617.85	9947.7	
618.04	9774.3	
618.22	9260.2	
618.41	10199	
618.6	11336	
618.79	9080	
618.98	8759.2	
619.17	11557	
619.36	9697.1	
619.55	8957.1	
619.74	8944.8	
619.93	10800	
620.12	10183	
620.31	9474.6	
620.5	9812.5	
620.69	11470	
620.88	11880	
621.07	10555	
621.26	9495.1	
621.45	11025	
621.64	11016	
621.83	9663.7	
622.02	8766.7	
622.21	11102	
622.4	10834	
622.59	10296	
622.78	9979.1	
622.97	10367	
623.16	11468	
623.35	9618.6	
623.54	8686.8	
623.72	10756	
623.91	10845	
624.1	9815.9	
624.29	8422.6	
624.48	11949	
624.67	11092	
624.86	9759.3	
625.05	8730.5	
625.24	12071	
625.43	10264	
625.62	11584	
625.81	8877.9	
626	11529	
626.19	10658	
626.38	9950.4	
626.56	9192	
626.75	10570	
626.94	11058	
627.13	9772.2	
627.32	8422.6	
627.51	11147	
627.7	12680	
627.89	8611.7	
628.08	9858.9	
628.27	10298	
628.46	10634	
628.65	8981	
628.83	8566	
629.02	11165	
629.21	10411	
629.4	9354.4	
629.59	9551	
629.78	10297	
629.97	11351	
630.16	9598.1	
630.35	9093.7	
630.54	11835	
630.72	11576	
630.91	9058.8	
631.1	9613.2	
631.29	10987	
631.48	11232	
631.67	9751.1	
631.86	9085.5	
632.05	10456	
632.24	10662	
632.42	8757.8	
632.61	9439.1	
632.8	10685	
632.99	10342	
633.18	9418.6	
633.37	9804.3	
633.56	10910	
633.75	10785	
633.93	9394.7	
634.12	9035.6	
634.31	11784	
634.5	11352	
634.69	9030.9	
634.88	9617.3	
635.07	10693	
635.25	11311	
635.44	10021	
635.63	10302	
635.82	10436	
636.01	9928.6	
636.2	9984.5	
636.39	9565.4	
636.57	11658	
636.76	11275	
636.95	8886.8	
637.14	10313	
637.33	11026	
637.52	11942	
637.7	8602.8	
637.89	9600.9	
638.08	10461	
638.27	11942	
638.46	9624.1	
638.65	10187	
638.83	11974	
639.02	10189	
639.21	9461.6	
639.4	9964.1	
639.59	10783	
639.78	10226	
639.96	8731.9	
640.15	8783.7	
640.34	10541	
640.53	10751	
640.72	8380.3	
640.91	8742.8	
641.09	9910.8	
641.28	11355	
641.47	8723	
641.66	9626.8	
641.85	10651	
642.03	10855	
642.22	9323.7	
642.41	8755.1	
642.6	9969.5	
642.79	9366.7	
642.97	8436.3	
643.16	9312.8	
643.35	9762.7	
643.54	9617.3	
643.73	8338	
643.91	9230.2	
644.1	9551.7	
644.29	10127	
644.48	8382.3	
644.67	8471.1	
644.85	9709.4	
645.04	10036	
645.23	7958.4	
645.42	8243.8	
645.6	9405	
645.79	10677	
645.98	8118.8	
646.17	7234.1	
646.36	9158.5	
646.54	9770.2	
646.73	9012.4	
646.92	7673.1	
647.11	9320.3	
647.29	10530	
647.48	7790.5	
647.67	7533.8	
647.86	10641	
648.05	10680	
648.23	8097	
648.42	9508	
648.61	9990.7	
648.8	9653.4	
648.98	7641	
649.17	8076.5	
649.36	9243.8	
649.55	8649.9	
649.73	7744.1	
649.92	8581	
650.11	9108	
650.3	9488.2	
650.48	7862.8	
650.67	7464.2	
650.86	9775.6	
651.05	8566.7	
651.23	7770.7	
651.42	7803.4	
651.61	9191.3	
651.79	9221.3	
651.98	8034.2	
652.17	7604.1	
652.36	9539.4	
652.54	8639.7	
652.73	7585	
652.92	7359	
653.11	9591.3	
653.29	9706	
653.48	6761.7	
653.67	7820.5	
653.85	9403.6	
654.04	10437	
654.23	7968.6	
654.42	7449.8	
654.6	8666.3	
654.79	9387.9	
654.98	6824.5	
655.16	7436.2	
655.35	8249.2	
655.54	8234.9	
655.73	7027.9	
655.91	6967.2	
656.1	9480.7	
656.29	8221.2	
656.47	6518.7	
656.66	8335.2	
656.85	8459.5	
657.03	8504.5	
657.22	7058.7	
657.41	7159	
657.59	8621.3	
657.78	8446.5	
657.97	6755.6	
658.16	7503.8	
658.34	9276.6	
658.53	9800.9	
658.72	8495.7	
658.9	9088.9	
659.09	8670.4	
659.28	8812.4	
659.46	7273.7	
659.65	7166.5	
659.84	8453.3	
660.02	9121.7	
660.21	6991.8	
660.4	6982.2	
660.58	9466.4	
660.77	8847.9	
660.96	7591.1	
661.14	6726.9	
661.33	10090	
661.52	9897.2	
661.7	6606.1	
661.89	10528	
662.08	8372.1	
662.26	7899	
662.45	6754.9	
662.64	6993.1	
662.82	9069.8	
663.01	8256.7	
663.2	6944	
663.38	7831.4	
663.57	9037.7	
663.75	8768	
663.94	7273	
664.13	8641.7	
664.31	8257.4	
664.5	9051.3	
664.69	7488.1	
664.87	8156.4	
665.06	7920.9	
665.25	8860.9	
665.43	8308.6	
665.62	8445.1	
665.8	9288.9	
665.99	8416.5	
666.18	7154.9	
666.36	7326.9	
666.55	9151	
666.74	8970.8	
666.92	6797.2	
667.11	8669.7	
667.29	8278.6	
667.48	9024	
667.67	8140.7	
667.85	7093.5	
668.04	8426	
668.22	8457.4	
668.41	7217.7	
668.6	7454.6	
668.78	8181	
668.97	8358.4	
669.15	7675.8	
669.34	6546	
669.53	8142	
669.71	8548.2	
669.9	6709.8	
670.08	7415.7	
670.27	8230.8	
670.46	8812.4	
670.64	7690.1	
670.83	7977.5	
671.01	8067.6	
671.2	8742.8	
671.38	6825.2	
671.57	6712.6	
671.76	9317.6	
671.94	10063	
672.13	6556.9	
672.31	7781.6	
672.5	8873.2	
672.69	8162.5	
672.87	6810.2	
673.06	7131.7	
673.24	8693.6	
673.43	8202.1	
673.61	7652.6	
673.8	7117.4	
673.98	8914.1	
674.17	9088.9	
674.36	7810.3	
674.54	7611.6	
674.73	8639.7	
674.91	8912.1	
675.1	7200.7	
675.28	6836.1	
675.47	8419.9	
675.65	9026.1	
675.84	7096.9	
676.03	7468.9	
676.21	8231.5	
676.4	7772.7	
676.58	7960.5	
676.77	7815.7	
676.95	9818.6	
677.14	8168	
677.32	6789.7	
677.51	6540.5	
677.69	8974.2	
677.88	7653.3	
678.06	6668.2	
678.25	6767.2	
678.44	8473.8	
678.62	8234.9	
678.81	6421.1	
678.99	7542	
679.18	9387.9	
679.36	8925.7	
679.55	7008.8	
679.73	7736.5	
679.92	8807.6	
680.1	8172.1	
680.29	8438.3	
680.47	7021.1	
680.66	8166.6	
680.84	9062.9	
681.03	6365.8	
681.21	7456	
681.4	8253.3	
681.58	8059.4	
681.77	6825.9	
681.95	6825.9	
682.14	9127.8	
682.32	9516.2	
682.51	7824.6	
682.69	6610.2	
682.88	8159.1	
683.06	8856.1	
683.25	7563.8	
683.43	7959.8	
683.62	8458.8	
683.8	8858.8	
683.99	8170	
684.17	7358.4	
684.36	9793.4	
684.54	8374.1	
684.73	6378.7	
684.91	6614.3	
685.1	8649.3	
685.28	8074.5	
685.46	7257.3	
685.65	7397.3	
685.83	8925	
686.02	8334.6	
686.2	6759	
686.39	6918.7	
686.57	8200.1	
686.76	9654.8	
686.94	6811.5	
687.13	6937.8	
687.31	8854.1	
687.5	8439	
687.68	6425.8	
687.86	7830.7	
688.05	10279	
688.23	7920.9	
688.42	7916.1	
688.6	6985.6	
688.79	8449.9	
688.97	8333.9	
689.16	7589.1	
689.34	6389.7	
689.52	9334.6	
689.71	9426.8	
689.89	7846.5	
690.08	7069.6	
690.26	8756.4	
690.45	8718.9	
690.63	8043.7	
690.81	7260	
691	8454	
691.18	8503.2	
691.37	7479.2	
691.55	9923.8	
691.74	8426	
691.92	10650	
692.1	7710.6	
692.29	6950.8	
692.47	8805.6	
692.66	8020.5	
692.84	7241.6	
693.02	7940.7	
693.21	8356.4	
693.39	8741.4	
693.58	8088.1	
693.76	7449.8	
693.94	10217	
694.13	10028	
694.31	7561.8	
694.5	8799.4	
694.68	8893.6	
694.86	9263	
695.05	8147.5	
695.23	8491.6	
695.42	9787.2	
695.6	12266	
695.78	8828.1	
695.97	7750.9	
696.15	9879.4	
696.34	9287.5	
696.52	7683.3	
696.7	8545.5	
696.89	9665.7	
697.07	9059.5	
697.25	8553.7	
697.44	10214	
697.62	9675.3	
697.81	10056	
697.99	8243.8	
698.17	8787.2	
698.36	9062.3	
698.54	9843.2	
698.72	8681.3	
698.91	7645.8	
699.09	9424.8	
699.28	9387.9	
699.46	8428.1	
699.64	8402.1	
699.83	9341.5	
700.01	10628	
700.19	9257.5	
700.38	7616.4	
700.56	10839	
700.74	9582.4	
700.93	8111.3	
701.11	8993.3	
701.29	10263	
701.48	11453	
701.66	8579.6	
701.84	8520.2	
702.03	9904.7	
702.21	10759	
702.39	8146.8	
702.58	8896.4	
702.76	10501	
702.94	10581	
703.13	8229.4	
703.31	11030	
703.49	9866.4	
703.68	10931	
703.86	8620.6	
704.04	9695.8	
704.23	10448	
704.41	10873	
704.59	8911.4	
704.78	10148	
704.96	11680	
705.14	10961	
705.33	8689.5	
705.51	9617.9	
705.69	10419	
705.87	11392	
706.06	9932.6	
706.24	8776.2	
706.42	10843	
706.61	11267	
706.79	10068	
706.97	8869.1	
707.16	10256	
707.34	10987	
707.52	10095	
707.7	9238.4	
707.89	10712	
708.07	10227	
708.25	10225	
708.44	10362	
708.62	10582	
708.8	11897	
708.98	10469	
709.17	9404.3	
709.35	11188	
709.53	11075	
709.72	9051.3	
709.9	9215.2	
710.08	11354	
710.26	11421	
710.45	10815	
710.63	9398.8	
710.81	11077	
710.99	11043	
711.18	10105	
711.36	9719.7	
711.54	10927	
711.72	11602	
711.91	9694.4	
712.09	9117.6	
712.27	11015	
712.45	11729	
712.64	9895.1	
712.82	8916.2	
713	10295	
713.18	10558	
713.37	8975.6	
713.55	10214	
713.73	11362	
713.91	9665	
714.1	9093.7	
714.28	8360.5	
714.46	10686	
714.64	9736.7	
714.83	7611.6	
715.01	8413.7	
715.19	9497.8	
715.37	8842.4	
715.55	7905.8	
715.74	8232.2	
715.92	10444	
716.1	8286.8	
716.28	9446.6	
716.47	8331.8	
716.65	8969.4	
716.83	9093	
717.01	8127.7	
717.19	8237.6	
717.38	11474	
717.56	8785.1	
717.74	8619.2	
717.92	7587	
718.1	10303	
718.29	9499.2	
718.47	7496.9	
718.65	8219.2	
718.83	10355	
719.01	10463	
719.2	7610.9	
719.38	8860.2	
719.56	10322	
719.74	11921	
719.92	8392.6	
720.11	9559.9	
720.29	10169	
720.47	9155.8	
720.65	7821.9	
720.83	8564.6	
721.02	9370.1	
721.2	9118.2	
721.38	8630.8	
721.56	7760.4	
721.74	8505.2	
721.92	8726.4	
722.11	9151.7	
722.29	8784.4	
722.47	10131	
722.65	9209	
722.83	7700.4	
723.01	8621.3	
723.2	9269.1	
723.38	9616.6	
723.56	7103	
723.74	8433.5	
723.92	8757.8	
724.1	10073	
724.29	7703.8	
724.47	8988.5	
724.65	8863.6	
724.83	8767.4	
725.01	7516.7	
725.19	8560.5	
725.37	8815.8	
725.56	8938	
725.74	7415	
725.92	7708.6	
726.1	8817.2	
726.28	9118.2	
726.46	8073.8	
726.64	7831.4	
726.83	8998.8	
727.01	9395.4	
727.19	7417.1	
727.37	8366	
727.55	9288.9	
727.73	9774.3	
727.91	7413	
728.09	7195.9	
728.28	9798.2	
728.46	10492	
728.64	8598.7	
728.82	8469	
729	11098	
729.18	10223	
729.36	7699.7	
729.54	10155	
729.72	11545	
729.91	9729.2	
730.09	9884.9	
730.27	8596	
730.45	9609.1	
730.63	10350	
730.81	9360.6	
730.99	8338.6	
731.17	10955	
731.35	9433.6	
731.53	8913.4	
731.71	8436.3	
731.9	10620	
732.08	10808	
732.26	8604.2	
732.44	8255.4	
732.62	10743	
732.8	10228	
732.98	9166	
733.16	8024.6	
733.34	10228	
733.52	8880	
733.7	8524.3	
733.88	8819.9	
734.07	9941.5	
734.25	9798.2	
734.43	7851.2	
734.61	9712.2	
734.79	11468	
734.97	9660.3	
735.15	8014.4	
735.33	8442.4	
735.51	10021	
735.69	9605.7	
735.87	9622.7	
736.05	8617.2	
736.23	9713.5	
736.41	9478	
736.59	8413.1	
736.77	8536.6	
736.95	10193	
737.13	9643.9	
737.32	8010.3	
737.5	8319.5	
737.68	10732	
737.86	9439.1	
738.04	7818.5	
738.22	9781.1	
738.4	9140.1	
738.58	9459.6	
738.76	8467.7	
738.94	7277.8	
739.12	9276.6	
739.3	9177.6	
739.48	9173.5	
739.66	8805.6	
739.84	9559.2	
740.02	9599.5	
740.2	7418.4	
740.38	7784.3	
740.56	9992.7	
740.74	8731.9	
740.92	8391.2	
741.1	8345.5	
741.28	9227.5	
741.46	9039.1	
741.64	7826	
741.82	8396.7	
742	9224.7	
742.18	9239.8	
742.36	8036.2	
742.54	7619.1	
742.72	9783.8	
742.9	8448.6	
743.08	8433.5	
743.26	7114.6	
743.44	9987.9	
743.62	9764.7	
743.8	8577.6	
743.98	7527	
744.16	9470.5	
744.34	9069.1	
744.52	8376.2	
744.7	8307.2	
744.88	9578.3	
745.06	8979	
745.24	8385.7	
745.42	8424	
745.6	9572.2	
745.78	9157.2	
745.96	6909.8	
746.14	7268.9	
746.32	10230	
746.5	9523.7	
746.68	7875.8	
746.86	7206.1	
747.03	9980.4	
747.21	7991.9	
747.39	7859.4	
747.57	7217	
747.75	8978.3	
747.93	9446.6	
748.11	7213.6	
748.29	7086.7	
748.47	10668	
748.65	8677.2	
748.83	7986.4	
749.01	7757	
749.19	9191.3	
749.37	8215.8	
749.55	7555.6	
749.73	7508.5	
749.91	8725.7	
750.09	8393.3	
750.26	7563.1	
750.44	6952.9	
750.62	8822.6	
750.8	8720.9	
750.98	6782.2	
751.16	7053.9	
751.34	8703.2	
751.52	8028.7	
751.7	8077.2	
751.88	6728.3	
752.06	9240.4	
752.24	9105.3	
752.42	6653.9	
752.59	7054.6	
752.77	8577.6	
752.95	9985.2	
753.13	7828.7	
753.31	7105.1	
753.49	8228.7	
753.67	8743.5	
753.85	7433.4	
754.03	6947.4	
754.21	8982.4	
754.38	9348.3	
754.56	7000	
754.74	5895.4	
754.92	7897	
755.1	8601.5	
755.28	5716.6	
755.46	5578	
755.64	8980.3	
755.82	8953	
755.99	5481.7	
756.17	5485.1	
756.35	5888.6	
756.53	7572	
756.71	4031.1	
756.89	5140.4	
757.07	7116.7	
757.25	6105.7	
757.42	5924.8	
757.6	6890.7	
757.78	7451.9	
757.96	6375.3	
758.14	5726.1	
758.32	5244.8	
758.5	5951.4	
758.67	6826.6	
758.85	5453.1	
759.03	5652.4	
759.21	6920.1	
759.39	6303.6	
759.57	5038	
759.75	6333	
759.92	7515.4	
760.1	6922.8	
760.28	6685.3	
760.46	7037.5	
760.64	6781.5	
760.82	6480.5	
760.99	6735.8	
761.17	5802.6	
761.35	7759.1	
761.53	6660	
761.71	5966.4	
761.89	6843.6	
762.06	7686	
762.24	7132.4	
762.42	6204	
762.6	5958.2	
762.78	7252.5	
762.96	7987.8	
763.13	6569.2	
763.31	6289.3	
763.49	8197.3	
763.67	7152.9	
763.85	7247.1	
764.02	7827.3	
764.2	8382.3	
764.38	7550.2	
764.56	6181.5	
764.74	7042.3	
764.91	8555.7	
765.09	7260	
765.27	5742.5	
765.45	5485.1	
765.63	8482.7	
765.8	8455.4	
765.98	5174.5	
766.16	5560.2	
766.34	6673.6	
766.52	6481.1	
766.69	6597.9	
766.87	5372.5	
767.05	7182.2	
767.23	7974.1	
767.41	5578.7	
767.58	5969.1	
767.76	7726.3	
767.94	7858.7	
768.12	5737	
768.29	6544.6	
768.47	7180.9	
768.65	7904.5	
768.83	5199.1	
769	6490.7	
769.18	6656.6	
769.36	7391.1	
769.54	6509.1	
769.72	5185.5	
769.89	7629.4	
770.07	7848.5	
770.25	5496.7	
770.43	6911.9	
770.6	8467	
770.78	8854.7	
770.96	5723.4	
771.14	6410.1	
771.31	7436.2	
771.49	6745.3	
771.67	4759.5	
771.85	5003.2	
772.02	5862.7	
772.2	6709.8	
772.38	5787.6	
772.55	5260.5	
772.73	6987	
772.91	6709.1	
773.09	5611.4	
773.26	5657.2	
773.44	6887.3	
773.62	6483.2	
773.8	5044.1	
773.97	4706.2	
774.15	6913.9	
774.33	6439.5	
774.5	4870.8	
774.68	5325.4	
774.86	7112.6	
775.04	6515.3	
775.21	4941.1	
775.39	4949.3	
775.57	6756.9	
775.74	7169.3	
775.92	4728.8	
776.1	4635.9	
776.27	6679.8	
776.45	8073.1	
776.63	4851.6	
776.81	4280.3	
776.98	6238.8	
777.16	7459.4	
777.34	5014.8	
777.51	5342.5	
777.69	6215.6	
777.87	5952.1	
778.04	5025	
778.22	5734.3	
778.4	5998.5	
778.57	6771.3	
778.75	4207.9	
778.93	4510.3	
779.1	5710.4	
779.28	5594.4	
779.46	4168.3	
779.64	4762.9	
779.81	6875.7	
779.99	7763.2	
780.17	5556.8	
780.34	5750.7	
780.52	6179.4	
780.69	6434.7	
780.87	4969.1	
781.05	4524.6	
781.22	6193.1	
781.4	6312.5	
781.58	4695.3	
781.75	3741.6	
781.93	6221	
782.11	5608.7	
782.28	5661.3	
782.46	4619.5	
782.64	5470.1	
782.81	6361	
782.99	4657.8	
783.17	4646.2	
783.34	6346.7	
783.52	5420.3	
783.69	4874.2	
783.87	5778	
784.05	5487.9	
784.22	5535	
784.4	5732.9	
784.58	4950.6	
784.75	6553.5	
784.93	5502.2	
785.1	4586.8	
785.28	5261.9	
785.46	6270.2	
785.63	5493.3	
785.81	4484.4	
785.99	4384	
786.16	5604.6	
786.34	6124.1	
786.51	4359.4	
786.69	4794.3	
786.87	5196.4	
787.04	5782.8	
787.22	4197	
787.39	5268.7	
787.57	5437.4	
787.75	6645.7	
787.92	5515.2	
788.1	5381.4	
788.27	5550	
788.45	5258.5	
788.63	5053	
788.8	3622.9	
788.98	5904.3	
789.15	5182.7	
789.33	3805.1	
789.5	4575.8	
789.68	6435.4	
789.86	6545.3	
790.03	4994.3	
790.21	4339.6	
790.38	6322.8	
790.56	5595.7	
790.73	4166.9	
790.91	4240	
791.09	5425.1	
791.26	6275	
791.44	4422.9	
791.61	3827	
791.79	5389.6	
791.96	5459.2	
792.14	3961.5	
792.32	3463.1	
792.49	5404.6	
792.67	5568.4	
792.84	4069.3	
793.02	3819.5	
793.19	5874.3	
793.37	6698.2	
793.54	3474.7	
793.72	3870	
793.89	6867.5	
794.07	5386.2	
794.25	4581.3	
794.42	3577.8	
794.6	6580.1	
794.77	6140.5	
794.95	4822.3	
795.12	4206.5	
795.3	5330.2	
795.47	6048.3	
795.65	4627	
795.82	4486.4	
796	5153.4	
796.17	7331	
796.35	4276.8	
796.52	5092.6	
796.7	5933.6	
796.87	6081.1	
797.05	5359.5	
797.22	5242.8	
797.4	6005.3	
797.57	7152.9	
797.75	4425.7	
797.92	4156.7	
798.1	6283.9	
798.27	5382.1	
798.45	3543.7	
798.62	3858.4	
798.8	5712.5	
798.97	6200.6	
799.15	4666.6	
799.32	4448.2	
799.5	4799.8	
799.67	5784.8	
799.85	4812	
800.02	3445.4	
800.2	5260.5	
800.37	5680.4	
800.55	4999.8	
800.72	4179.2	
800.9	6228.6	
801.07	6704.4	
801.25	5606.7	
801.42	4525.3	
801.6	6199.9	
801.77	5935	
801.95	4245.4	
802.12	4079.6	
802.29	5881.8	
802.47	5885.9	
802.64	4514.4	
802.82	3371.6	
802.99	5208.7	
803.17	6365.1	
803.34	4384	
803.52	4009.9	
803.69	7109.9	
803.87	5070.1	
804.04	4388.1	
804.21	4438.6	
804.39	6427.2	
804.56	5509.7	
804.74	3692.5	
804.91	4578.6	
805.09	5327.4	
805.26	5438.7	
805.44	3757.3	
805.61	4203.8	
805.78	5993.7	
805.96	6096.8	
806.13	4490.5	
806.31	4898.1	
806.48	4761.5	
806.66	5359.5	
806.83	4473.4	
807	4425.7	
807.18	5216.2	
807.35	5735	
807.53	4392.2	
807.7	3508.2	
807.87	6500.3	
808.05	5309.7	
808.22	4891.2	
808.4	3480.2	
808.57	5353.4	
808.74	4878.3	
808.92	4016.7	
809.09	5137.7	
809.27	5162.9	
809.44	5838.8	
809.61	3548.4	
809.79	3927.3	
809.96	6466.1	
810.14	6127.5	
810.31	3403.7	
810.48	4188.8	
810.66	5367.7	
810.83	6322.1	
811.01	4021.5	
811.18	4457.1	
811.35	6086.6	
811.53	4698.7	
811.7	4857.1	
811.87	4532.2	
812.05	5252.4	
812.22	5269.4	
812.39	3842.7	
812.57	3762.1	
812.74	5337.7	
812.92	7155.6	
813.09	4158.1	
813.26	4607.9	
813.44	6822.5	
813.61	5208	
813.78	3458.3	
813.96	4670.7	
814.13	5253.7	
814.3	4949.3	
814.48	5117.9	
814.65	4257.7	
814.82	6634.1	
815	5079	
815.17	4352.6	
815.34	5287.9	
815.52	5199.1	
815.69	5255.1	
815.87	4302.1	
816.04	4272.1	
816.21	5273.5	
816.38	4616.8	
816.56	4135.5	
816.73	3904.8	
816.9	6668.9	
817.08	6105	
817.25	3935.5	
817.42	4955.4	
817.6	4829.8	
817.77	5356.8	
817.94	4406.5	
818.12	3815.4	
818.29	5018.2	
818.46	8024.6	
818.64	3991.5	
818.81	3778.5	
818.98	4937	
819.16	7299	
819.33	4748.6	
819.5	4322.6	
819.67	5684.5	
819.85	6399.2	
820.02	4214.7	
820.19	4504.8	
820.37	5497.4	
820.54	5137	
820.71	4431.8	
820.88	5459.2	
821.06	5505.6	
821.23	5063.9	
821.4	4406.5	
821.58	4381.3	
821.75	6020.3	
821.92	5468.8	
822.09	3476.1	
822.27	3831.1	
822.44	5305.6	
822.61	5172.5	
822.79	3480.9	
822.96	6852.5	
823.13	5862.7	
823.3	5051	
823.48	4120.5	
823.65	3720.5	
823.82	6013.5	
823.99	4804.5	
824.17	5250.3	
824.34	3773.7	
824.51	7050.5	
824.68	5337	
824.86	3932.8	
825.03	4384.7	
825.2	5303.6	
825.37	6472.3	
825.55	3881.6	
825.72	4342.4	
825.89	7111.2	
826.06	6547.4	
826.24	4194.9	
826.41	4207.9	
826.58	6486.6	
826.75	5617.6	
826.92	3233.7	
827.1	3659.7	
827.27	8845.2	
827.44	7017.7	
827.61	4005.8	
827.79	4911.7	
827.96	4925.4	
828.13	5365.7	
828.3	4216.1	
828.47	3505.4	
828.65	5509	
828.82	5449.6	
828.99	5522	
829.16	4764.9	
829.34	5950.7	
829.51	5640.1	
829.68	4364.2	
829.85	4524.6	
830.02	6249	
830.2	5930.9	
830.37	3355.9	
830.54	5285.1	
830.71	6852.5	
830.88	5256.5	
831.05	3426.9	
831.23	3997	
831.4	6503.7	
831.57	7329	
831.74	3975.8	
831.91	3551.2	
832.09	5530.9	
832.26	5946.6	
832.43	4164.2	
832.6	4713.7	
832.77	5513.8	
832.94	6354.8	
833.12	3348.4	
833.29	4164.9	
833.46	5730.2	
833.63	7578.8	
833.8	4524.6	
833.97	4201.7	
834.15	5896.8	
834.32	5669.5	
834.49	4348.5	
834.66	4447.5	
834.83	6212.9	
835	4985.4	
835.17	3984	
835.35	4010.6	
835.52	5806	
835.69	5681.1	
835.86	4223.6	
836.03	3528.7	
836.2	5853.1	
836.37	5433.3	
836.55	4197.7	
836.72	3899.3	
836.89	5390.3	
837.06	6008.7	
837.23	4304.8	
837.4	4676.9	
837.57	6793.8	
837.75	7576.1	
837.92	3753.2	
838.09	4054.3	
838.26	5438	
838.43	6286.6	
838.6	4336.2	
838.77	3874.1	
838.94	7153.6	
839.11	6847	
839.29	4116.4	
839.46	3283.6	
839.63	5878.4	
839.8	5615.5	
839.97	3994.9	
840.14	3969	
840.31	5629.2	
840.48	5932.3	
840.65	3321.8	
840.82	3977.2	
841	5896.8	
841.17	5936.4	
841.34	3691.8	
841.51	3745.1	
841.68	5820.3	
841.85	5531.6	
842.02	3823.6	
842.19	3166.2	
842.36	5608	
842.53	5601.9	
842.7	3682.2	
842.87	4544.4	
843.05	7490.8	
843.22	5554.1	
843.39	3518.4	
843.56	3742.3	
843.73	5335	
843.9	5935	
844.07	6105.7	
844.24	5074.2	
844.41	8819.9	
844.58	5061.2	
844.75	3537.5	
844.92	3943.7	
845.09	5885.9	
845.26	5814.9	
845.43	3615.3	
845.6	3876.1	
845.77	5894.1	
845.94	5638.1	
846.12	4055.7	
846.29	4342.4	
846.46	6150.7	
846.63	5866.1	
846.8	3695.2	
846.97	4351.9	
847.14	6387.6	
847.31	5948.7	
847.48	4156	
847.65	4640	
847.82	6148.7	
847.99	6214.2	
848.16	4983.4	
848.33	4594.3	
848.5	5463.3	
848.67	6452.5	
848.84	3692.5	
849.01	3847.5	
849.18	5247.6	
849.35	4967.7	
849.52	4622.9	
849.69	3598.3	
849.86	6039.5	
850.03	6340.5	
850.2	3695.9	
850.37	4584	
850.54	6318.7	
850.71	5467.4	
850.88	4444.8	
851.05	3620.8	
851.22	5799.8	
851.39	6459.3	
851.56	3510.2	
851.73	4229.7	
851.9	5100.8	
852.07	6126.8	
852.24	4082.3	
852.41	3639.2	
852.58	5726.8	
852.75	5165	
852.92	4114.4	
853.09	3581.2	
853.26	5493.3	
853.43	6361.7	
853.6	3701.4	
853.77	3127.9	
853.94	6432	
854.11	5773.2	
854.28	5440.8	
854.44	4027	
854.61	6776.7	
854.78	6228.6	
854.95	3626.3	
855.12	4666	
855.29	4655.7	
855.46	6594.5	
855.63	3681.6	
855.8	5141.8	
855.97	5406	
856.14	6279.1	
856.31	5195	
856.48	4058.4	
856.65	5410.7	
856.82	5098.1	
856.99	3522.5	
857.16	4007.2	
857.33	7235.5	
857.49	5519.3	
857.66	3930.7	
857.83	4287.8	
858	5458.5	
858.17	5640.8	
858.34	3438.5	
858.51	3676.1	
858.68	6612.9	
858.85	6650.4	
859.02	4184	
859.19	4571.7	
859.36	5107.6	
859.52	5199.8	
859.69	3727.3	
859.86	4364.2	
860.03	5240.1	
860.2	6469.5	
860.37	3312.2	
860.54	3645.4	
860.71	6146	
860.88	6599.2	
861.05	4143.7	
861.21	4654.4	
861.38	6598.6	
861.55	5057.1	
861.72	3342.3	
861.89	4106.9	
862.06	6152.1	
862.23	6680.5	
862.4	3556	
862.56	3818.1	
862.73	6059.9	
862.9	5670.8	
863.07	4299.4	
863.24	3312.9	
863.41	4996.4	
863.58	5192.3	
863.75	3717.1	
863.91	4261.1	
864.08	6515.3	
864.25	6012.8	
864.42	4562.2	
864.59	5147.9	
864.76	6875.7	
864.93	5182	
865.09	3618.8	
865.26	3910.3	
865.43	6354.2	
865.6	6879.8	
865.77	3180.5	
865.94	3630.4	
866.1	6460.7	
866.27	6154.8	
866.44	5550.7	
866.61	3481.5	
866.78	5583.4	
866.95	6075.6	
867.11	3564.8	
867.28	3223.5	
867.45	6244.9	
867.62	5210.7	
867.79	4255	
867.96	3628.3	
868.12	5151.3	
868.29	6121.4	
868.46	3640.6	
868.63	4882.4	
868.8	6323.4	
868.97	6062	
869.13	3834.5	
869.3	3841.3	
869.47	5994.4	
869.64	6202.6	
869.81	3690.4	
869.97	3630.4	
870.14	5865.4	
870.31	6649.8	
870.48	3605.1	
870.65	4648.2	
870.81	5449	
870.98	5442.8	
871.15	4150.6	
871.32	3844	
871.48	5992.4	
871.65	6647	
871.82	3617.4	
871.99	4014.7	
872.16	7116	
872.32	6389.7	
872.49	3708.9	
872.66	3709.6	
872.83	6090	
872.99	5317.2	
873.16	4178.5	
873.33	3603.7	
873.5	5791.7	
873.67	5724.1	
873.83	3846.1	
874	4923.3	
874.17	5896.8	
874.34	7047.1	
874.5	4773.1	
874.67	4582	
874.84	6593.8	
875.01	5084.4	
875.17	5162.9	
875.34	3664.5	
875.51	5767.8	
875.68	6999.3	
875.84	4400.4	
876.01	5390.3	
876.18	6114.6	
876.34	6051.1	
876.51	3689.8	
876.68	3564.8	
876.85	5550	
877.01	6377.4	
877.18	5278.3	
877.35	3590.8	
877.52	5675.6	
877.68	5010.7	
877.85	3530.7	
878.02	3629.7	
878.18	5591	
878.35	5271.5	
878.52	2901.3	
878.69	4104.8	
878.85	6067.4	
879.02	6103.6	
879.19	5197.7	
879.35	3938.2	
879.52	6021	
879.69	6272.2	
879.86	3132	
880.02	4089.8	
880.19	5580	
880.36	6924.2	
880.52	4265.9	
880.69	4400.4	
880.86	6171.9	
881.02	6270.2	
881.19	4030.4	
881.36	3979.2	
881.52	6024.4	
881.69	5356.1	
881.86	3937.6	
882.02	3930.1	
882.19	6302.3	
882.36	7458	
882.52	3755.3	
882.69	5132.9	
882.86	5848.3	
883.02	5698.8	
883.19	4510.3	
883.36	4165.6	
883.52	6206	
883.69	7116	
883.86	3671.3	
884.02	3336.8	
884.19	6123.4	
884.36	5661.3	
884.52	4120.5	
884.69	3923.2	
884.86	5369.8	
885.02	6793.1	
885.19	4100	
885.36	4265.9	
885.52	5723.4	
885.69	5863.3	
885.86	5327.4	
886.02	4739	
886.19	6102.9	
886.35	5544.5	
886.52	4046.1	
886.69	5135.6	
886.85	5196.4	
887.02	6504.3	
887.19	6504.3	
887.35	6504.3	
887.52	6504.3	
887.68	6504.3	
887.85	6504.3	
888.02	6504.3	
888.18	6504.3	
888.35	6504.3	
888.51	6504.3	
888.68	6504.3	
888.85	6504.3	
889.01	6504.3	
889.18	6504.3	
889.35	6504.3	
889.51	6504.3	
889.68	6504.3	
889.84	6504.3	
890.01	6504.3	
890.17	6504.3	
890.34	6504.3	
890.51	6504.3	
890.67	6504.3	
890.84	6504.3	
891	6504.3	
891.17	6504.3	
891.34	6504.3	
891.5	6504.3	
891.67	6504.3	
891.83	6504.3	
892	6504.3	
892.16	6504.3	
892.33	6504.3	
892.5	6504.3	
892.66	6504.3	
892.83	6504.3	
892.99	6504.3	
893.16	6504.3	
893.32	6504.3	
893.49	6504.3	
893.65	6504.3	
893.82	6504.3	
893.99	6504.3	
894.15	6504.3	
894.32	6504.3	
894.48	6504.3	
894.65	6504.3	
894.81	6504.3	
894.98	6504.3	
895.14	6504.3	
895.31	6504.3	
895.47	6504.3	
895.64	6504.3	
895.81	6504.3	
895.97	6504.3	
896.14	6504.3	
896.3	6504.3	
896.47	6504.3	
896.63	6504.3	
896.8	6504.3	
896.96	6504.3	
897.13	6504.3	
897.29	6504.3	
897.46	6504.3	
897.62	6504.3	
897.79	6504.3	
897.95	6504.3	
898.12	6504.3	
898.28	6504.3	
898.45	6504.3	
898.61	6504.3	
898.78	6504.3	
898.94	6504.3	
899.11	6504.3	
899.27	6504.3	
899.44	6504.3	
899.6	6504.3	
899.77	6504.3	
899.93	6504.3	
900.1	6504.3	
900.26	6504.3	
900.43	6504.3	
900.59	6504.3	
900.76	6504.3	
900.92	6504.3	
901.09	6504.3	
901.25	6504.3	
901.42	6504.3	
901.58	6504.3	
901.75	6504.3	
901.91	6504.3	
902.07	6504.3	
902.24	6504.3	
902.4	6504.3	
902.57	6504.3	
902.73	6504.3	
902.9	6504.3	
903.06	6504.3	
903.23	6504.3	
903.39	6504.3	
903.56	6504.3	
903.72	6504.3	
903.88	6504.3	
904.05	6504.3	
904.21	6504.3	
904.38	6504.3	
904.54	6504.3	
904.71	6504.3	
904.87	6504.3	
905.03	6504.3	
905.2	6504.3	
905.36	6504.3	
905.53	6504.3	
905.69	6504.3	
905.86	6504.3	
906.02	6504.3	
906.18	6504.3	
906.35	6504.3	
906.51	6504.3	
906.68	6504.3	
906.84	6504.3	
907.01	6504.3	
907.17	6504.3	
907.33	6504.3	
907.5	6504.3	
907.66	6504.3	
907.83	6504.3	
907.99	6504.3	
908.15	6504.3	
908.32	6504.3	
908.48	6504.3	
908.65	6504.3	
908.81	6504.3	
908.97	6504.3	
909.14	6504.3	
909.3	6504.3	
909.47	6504.3	
909.63	6504.3	
909.79	6504.3	
909.96	6504.3	
910.12	6504.3	
910.28	6504.3	
910.45	6504.3	
910.61	6504.3	
910.78	6504.3	
910.94	6504.3	
911.1	6504.3	
911.27	6504.3	
911.43	6504.3	
911.59	6504.3	
911.76	6504.3	
911.92	6504.3	
912.08	6504.3	
912.25	6504.3	
912.41	6504.3	
912.57	6504.3	
912.74	6504.3	
912.9	6504.3	
913.07	6504.3	
913.23	6504.3	
913.39	6504.3	
913.56	6504.3	
913.72	6504.3	
913.88	6504.3	
914.05	6504.3	
914.21	6504.3	
914.37	6504.3	
914.54	6504.3	
914.7	6504.3	
914.86	6504.3	
915.03	6504.3	
915.19	6504.3	
