Wavelength	Intensities	
nm	a.u.	
179.22	1792.7	
179.44	1794.7	
179.65	1790.6	
179.86	1798.8	
180.08	1813.8	
180.29	4352.6	
180.51	3246.7	
180.72	5221.6	
180.94	6029.9	
181.15	2966.1	
181.37	2897.9	
181.58	5091.3	
181.79	5315.8	
182.01	3087.7	
182.22	3276.8	
182.44	5352.7	
182.65	4556	
182.87	3992.2	
183.08	3562.1	
183.29	5594.4	
183.51	4661.2	
183.72	3291.1	
183.94	4629.8	
184.15	5063.3	
184.37	4977.2	
184.58	2869.2	
184.79	3859.1	
185.01	4661.9	
185.22	5345.9	
185.44	4095.3	
185.65	3515	
185.86	4978.6	
186.08	4573.8	
186.29	2788	
186.51	3048.1	
186.72	4676.9	
186.94	5493.3	
187.15	3501.3	
187.36	3564.8	
187.58	6903.7	
187.79	5044.1	
188.01	3709.6	
188.22	5651	
188.43	6037.4	
188.65	5291.3	
188.86	3009.1	
189.08	3568.2	
189.29	4816.1	
189.5	4829.8	
189.72	3353.2	
189.93	3394.2	
190.15	5475.6	
190.36	6438.8	
190.57	3637.2	
190.79	3528	
191	5494.7	
191.22	5446.2	
191.43	3622.9	
191.64	3061	
191.86	5737.7	
192.07	5540.4	
192.29	3147.7	
192.5	3269.9	
192.71	5468.8	
192.93	4795	
193.14	3257	
193.35	3421.5	
193.57	4817.5	
193.78	5504.3	
194	2736.1	
194.21	3295.9	
194.42	4639.3	
194.64	5041.4	
194.85	3556	
195.07	4149.9	
195.28	4998.4	
195.49	4431.1	
195.71	4339	
195.92	3093.8	
196.13	5221	
196.35	5239.4	
196.56	4601.8	
196.78	3586	
196.99	6416.3	
197.2	5993	
197.42	4038.6	
197.63	3591.5	
197.84	4542.4	
198.06	5134.9	
198.27	3321.1	
198.48	4372.4	
198.7	4809.3	
198.91	5001.1	
199.13	3627.6	
199.34	3618.1	
199.55	5382.1	
199.77	4401.1	
199.98	3184.6	
200.19	3620.8	
200.41	4973.8	
200.62	4662.5	
200.83	3706.8	
201.05	4023.6	
201.26	4941.7	
201.47	4691.2	
201.69	3253.5	
201.9	3130.7	
202.11	5038.7	
202.33	5937.7	
202.54	3449.5	
202.76	3756.7	
202.97	5079	
203.18	5094.7	
203.4	3775.8	
203.61	3712.3	
203.82	5100.8	
204.04	4713.7	
204.25	3627	
204.46	3577.8	
204.68	5016.2	
204.89	5207.3	
205.1	3531.4	
205.32	3069.2	
205.53	5355.4	
205.74	5511.1	
205.96	2632.3	
206.17	3687.7	
206.38	5300.1	
206.6	5419.6	
206.81	4093.9	
207.02	3366.9	
207.24	5175.2	
207.45	5586.9	
207.66	3446.7	
207.88	2968.9	
208.09	5149.3	
208.3	4987.5	
208.52	3160.7	
208.73	3519.8	
208.94	5051	
209.15	5635.3	
209.37	3478.1	
209.58	3532.1	
209.79	5485.1	
210.01	4867.3	
210.22	2811.2	
210.43	2861.7	
210.65	4992.3	
210.86	5343.2	
211.07	3415.3	
211.29	3222.1	
211.5	5241.4	
211.71	4915.1	
211.93	3177.1	
212.14	3205.8	
212.35	4917.9	
212.56	5154.7	
212.78	3631	
212.99	3026.9	
213.2	5808.7	
213.42	4859.1	
213.63	3306.1	
213.84	3482.2	
214.06	4543.1	
214.27	4595.6	
214.48	3407.8	
214.69	3692.5	
214.91	5536.3	
215.12	5629.9	
215.33	3668.6	
215.55	4030.4	
215.76	6041.5	
215.97	5253.7	
216.18	3530	
216.4	3454.9	
216.61	4712.4	
216.82	5419.6	
217.04	3235.1	
217.25	3310.9	
217.46	5551.4	
217.67	5291.3	
217.89	2850.1	
218.1	2975.7	
218.31	5107.6	
218.53	5162.9	
218.74	3352.5	
218.95	3263.8	
219.16	4988.2	
219.38	5808	
219.59	3233.7	
219.8	3874.8	
220.01	6288.6	
220.23	5070.1	
220.44	4098.7	
220.65	3146.4	
220.87	5073.5	
221.08	5529.5	
221.29	2957.9	
221.5	3912.3	
221.72	6685.9	
221.93	4698	
222.14	3646.7	
222.35	4167.6	
222.57	5001.8	
222.78	5359.5	
222.99	3451.5	
223.2	3718.4	
223.42	5259.2	
223.63	5353.4	
223.84	2678.7	
224.05	2690.3	
224.27	6262	
224.48	5773.2	
224.69	4187.4	
224.9	3674.7	
225.12	5171.8	
225.33	5002.5	
225.54	2930.6	
225.75	3221.5	
225.97	4666.6	
226.18	4934.9	
226.39	3500	
226.6	3269.2	
226.82	4826.4	
227.03	4621.6	
227.24	3594.2	
227.45	3028.3	
227.67	5367	
227.88	5750.7	
228.09	4050.9	
228.3	4037.9	
228.52	5321.3	
228.73	5001.1	
228.94	3339.6	
229.15	3000.3	
229.36	4945.8	
229.58	4945.8	
229.79	3431.7	
230	3941	
230.21	5902.9	
230.43	5028.4	
230.64	3560.7	
230.85	3659.7	
231.06	5376.6	
231.28	5379.3	
231.49	3020.8	
231.7	3477.5	
231.91	5309	
232.12	4987.5	
232.34	3095.2	
232.55	3519.8	
232.76	5563	
232.97	5154.1	
233.18	3178.4	
233.4	3570.3	
233.61	5251.7	
233.82	4825.7	
234.03	3334.1	
234.25	3303.4	
234.46	6745.3	
234.67	5051.7	
234.88	3680.9	
235.09	3239.2	
235.31	5259.2	
235.52	4885.8	
235.73	3571.7	
235.94	3035.8	
236.15	4805.2	
236.37	5977.3	
236.58	3168.9	
236.79	3441.3	
237	5261.9	
237.21	4582	
237.43	3726.6	
237.64	2954.5	
237.85	8608.3	
238.06	4638.6	
238.27	3744.4	
238.48	3093.8	
238.7	5292	
238.91	4868	
239.12	3419.4	
239.33	3500	
239.54	4676.9	
239.76	4937.7	
239.97	3386	
240.18	3472.7	
240.39	6133	
240.6	5224.4	
240.82	3582.6	
241.03	2996.2	
241.24	4997	
241.45	5661.3	
241.66	3158.7	
241.87	3766.2	
242.09	5709.1	
242.3	5927.5	
242.51	3728.7	
242.72	3460.4	
242.93	5421	
243.14	4988.9	
243.36	4004.5	
243.57	4304.1	
243.78	5740.5	
243.99	5318.6	
244.2	3443.3	
244.41	3132	
244.63	4612	
244.84	5264.6	
245.05	3675.4	
245.26	3427.6	
245.47	5257.8	
245.68	5407.3	
245.9	4473.4	
246.11	3626.3	
246.32	4827.7	
246.53	5235.3	
246.74	5459.9	
246.95	2888.3	
247.16	4610.7	
247.38	5040.1	
247.59	2914.9	
247.8	3463.8	
248.01	4668.7	
248.22	4960.2	
248.43	3144.3	
248.64	3401.7	
248.86	4528.7	
249.07	4803.9	
249.28	3034.4	
249.49	3575.1	
249.7	5461.2	
249.91	5569.8	
250.12	2925.2	
250.34	2998.2	
250.55	5094	
250.76	4977.9	
250.97	3534.8	
251.18	3592.1	
251.39	5615.5	
251.6	5122.7	
251.81	3647.4	
252.03	3571.7	
252.24	4846.2	
252.45	5462.6	
252.66	3055.6	
252.87	3824.9	
253.08	5029.1	
253.29	6374.6	
253.5	3089	
253.72	4205.2	
253.93	4876.2	
254.14	5863.3	
254.35	3299.3	
254.56	3368.2	
254.77	5209.3	
254.98	4684.4	
255.19	3316.3	
255.41	4147.8	
255.62	5166.3	
255.83	5561.6	
256.04	3685	
256.25	3583.3	
256.46	6034	
256.67	4752	
256.88	3551.2	
257.09	3944.4	
257.31	4670.7	
257.52	4751.3	
257.73	4448.9	
257.94	3337.5	
258.15	4895.3	
258.36	5008	
258.57	4128	
258.78	2707.4	
258.99	5399.8	
259.2	4867.3	
259.41	3287.7	
259.63	3391.4	
259.84	5696.8	
260.05	6027.2	
260.26	4285.7	
260.47	3265.1	
260.68	5464.7	
260.89	4899.4	
261.1	3958	
261.31	3246	
261.52	5584.1	
261.73	5879	
261.95	4197.7	
262.16	3705.5	
262.37	5642.2	
262.58	5735	
262.79	4214	
263	3328.6	
263.21	5006.6	
263.42	4911.7	
263.63	3404.4	
263.84	3398.3	
264.05	5466	
264.26	5781.4	
264.47	4039.3	
264.69	3696.6	
264.9	5692.7	
265.11	5255.1	
265.32	3255.6	
265.53	3332	
265.74	5086.5	
265.95	4489.1	
266.16	3480.2	
266.37	3872.7	
266.58	5130.8	
266.79	4817.5	
267	3277.4	
267.21	3093.8	
267.42	4678.9	
267.63	5029.8	
267.84	3457.7	
268.06	3013.9	
268.27	5355.4	
268.48	5578.7	
268.69	3401	
268.9	3937.6	
269.11	5666.7	
269.32	4555.4	
269.53	3493.2	
269.74	3222.8	
269.95	5282.4	
270.16	4461.8	
270.37	3493.8	
270.58	4032.5	
270.79	4872.1	
271	5479.7	
271.21	3640.6	
271.42	3495.2	
271.63	5198.4	
271.84	4730.1	
272.05	2837.1	
272.26	3138.2	
272.47	4988.9	
272.68	5188.9	
272.89	3334.1	
273.11	3798.3	
273.32	4859.1	
273.53	5756.8	
273.74	3691.8	
273.95	3633.8	
274.16	5465.3	
274.37	5061.2	
274.58	3800.3	
274.79	3106.1	
275	5128.8	
275.21	5537	
275.42	4504.2	
275.63	3852.9	
275.84	5255.8	
276.05	6421.1	
276.26	3644.7	
276.47	3378.5	
276.68	4930.8	
276.89	5877	
277.1	3883.6	
277.31	3038.5	
277.52	5196.4	
277.73	5428.5	
277.94	3014.6	
278.15	3387.3	
278.36	5219.6	
278.57	4738.3	
278.78	3284.9	
278.99	3724.6	
279.2	4733.5	
279.41	4681	
279.62	4341	
279.83	3087	
280.04	6033.3	
280.25	4631.8	
280.46	4285.7	
280.67	3439.2	
280.88	4686.4	
281.09	5568.4	
281.3	3640.6	
281.51	4519.9	
281.72	4791.6	
281.93	5430.5	
282.14	3259.7	
282.35	3538.2	
282.56	5451	
282.77	5378	
282.98	3347.1	
283.19	4022.9	
283.4	6547.4	
283.61	4929.5	
283.82	3103.4	
284.03	4212.7	
284.24	5167.7	
284.45	5516.5	
284.66	4278.2	
284.87	4099.4	
285.08	5464.7	
285.29	5644.9	
285.5	3011.9	
285.71	3433.8	
285.92	5511.8	
286.12	6070.9	
286.33	4227	
286.54	3422.8	
286.75	5390.3	
286.96	4933.6	
287.17	3127.2	
287.38	4155.3	
287.59	4720.6	
287.8	4687.8	
288.01	3379.1	
288.22	3802.4	
288.43	5427.1	
288.64	4584	
288.85	4029.7	
289.06	3780.6	
289.27	5401.2	
289.48	5783.5	
289.69	4319.2	
289.9	3837.9	
290.11	5586.9	
290.32	4825	
290.53	4034.5	
290.74	3720.5	
290.94	5348.6	
291.15	5394.3	
291.36	3334.1	
291.57	3861.8	
291.78	4795.7	
291.99	4526.7	
292.2	3199.6	
292.41	3766.2	
292.62	5471.5	
292.83	5301.5	
293.04	4577.2	
293.25	3187.3	
293.46	4825.7	
293.67	5517.9	
293.88	3246.7	
294.09	3179.8	
294.29	4631.8	
294.5	5200.5	
294.71	3529.3	
294.92	3304.1	
295.13	4797.7	
295.34	5985.5	
295.55	2949.1	
295.76	2869.9	
295.97	5345.2	
296.18	5958.2	
296.39	3115.6	
296.6	3259	
296.81	5109	
297.01	5414.1	
297.22	3424.9	
297.43	3261.7	
297.64	4759.5	
297.85	4730.8	
298.06	2738.1	
298.27	2968.2	
298.48	5067.4	
298.69	4758.8	
298.9	3506.8	
299.11	3181.9	
299.31	4687.1	
299.52	4642.1	
299.73	3781.9	
299.94	3672.7	
300.15	5024.3	
300.36	4718.5	
300.57	3695.9	
300.78	3633.8	
300.99	4924	
301.2	5111.7	
301.4	3210.5	
301.61	3520.5	
301.82	5321.3	
302.03	5429.2	
302.24	3913	
302.45	3159.3	
302.66	5281.7	
302.87	5622.4	
303.08	3284.9	
303.29	4393.6	
303.49	4830.5	
303.7	5030.5	
303.91	2863.1	
304.12	4136.9	
304.33	4614.8	
304.54	5133.6	
304.75	3259.7	
304.96	3131.3	
305.16	5311.7	
305.37	5920	
305.58	2890.4	
305.79	2998.2	
306	5291.3	
306.21	4517.1	
306.42	3262.4	
306.63	4868	
306.83	4917.9	
307.04	5462.6	
307.25	3566.2	
307.46	3583.3	
307.67	4401.8	
307.88	5427.1	
308.09	3220.8	
308.29	3284.9	
308.5	5089.9	
308.71	5492	
308.92	3482.2	
309.13	3172.3	
309.34	4964.3	
309.55	4963.6	
309.75	4036.5	
309.96	3713	
310.17	5332.2	
310.38	4773.8	
310.59	3852.9	
310.8	3061.7	
311.01	5418.2	
311.21	4903.5	
311.42	3133.4	
311.63	3294.5	
311.84	4801.8	
312.05	5059.2	
312.26	3608.5	
312.46	3898.6	
312.67	4876.9	
312.88	4606.6	
313.09	3142.3	
313.3	3094.5	
313.51	5668.1	
313.71	6004.6	
313.92	3132	
314.13	3308.8	
314.34	5173.2	
314.55	4994.3	
314.76	3973.7	
314.96	3564.1	
315.17	5113.1	
315.38	5252.4	
315.59	3206.4	
315.8	3019.4	
316.01	5673.6	
316.21	5790.3	
316.42	3091.1	
316.63	3487	
316.84	4911.7	
317.05	5612.8	
317.26	3700	
317.46	3386.7	
317.67	4947.9	
317.88	5324	
318.09	3964.2	
318.3	2923.8	
318.5	4762.2	
318.71	5266	
318.92	4993.6	
319.13	3673.4	
319.34	5430.5	
319.54	5591	
319.75	2948.4	
319.96	2824.1	
320.17	5369.1	
320.38	5432.6	
320.58	2877.4	
320.79	3436.5	
321	5580	
321.21	5594.4	
321.42	3510.9	
321.62	2917.7	
321.83	4744.5	
322.04	5069.4	
322.25	3396.2	
322.46	3196.9	
322.66	5068.7	
322.87	5312.4	
323.08	3833.1	
323.29	3052.2	
323.5	5935	
323.7	4620.9	
323.91	4271.4	
324.12	3809.9	
324.33	5140.4	
324.53	5302.2	
324.74	3711.6	
324.95	3882.3	
325.16	4565.6	
325.37	4921.3	
325.57	3199.6	
325.78	3174.4	
325.99	5132.9	
326.2	4590.9	
326.4	4403.1	
326.61	2941.6	
326.82	4896.7	
327.03	5091.3	
327.24	4423.6	
327.44	4179.9	
327.65	5231.9	
327.86	4353.3	
328.07	3702.7	
328.27	3073.3	
328.48	5650.3	
328.69	4708.3	
328.9	4515.8	
329.1	3358.7	
329.31	4975.2	
329.52	5709.1	
329.73	3200.3	
329.93	3536.2	
330.14	5053.7	
330.35	5257.1	
330.56	5087.8	
330.76	3846.1	
330.97	4897.4	
331.18	5257.8	
331.39	3487	
331.59	2910.2	
331.8	5526.1	
332.01	5614.8	
332.22	3281.5	
332.42	3668.6	
332.63	5143.8	
332.84	4706.2	
333.05	3564.1	
333.25	3225.6	
333.46	4792.2	
333.67	5038	
333.88	3276.1	
334.08	3643.3	
334.29	6533	
334.5	5560.9	
334.7	3076.7	
334.91	4422.9	
335.12	4586.1	
335.33	5326.1	
335.53	3489.1	
335.74	5023	
335.95	4848.9	
336.16	4648.2	
336.36	3465.8	
336.57	4035.9	
336.78	4559.5	
336.98	5542.5	
337.19	4273.4	
337.4	3412.6	
337.61	5945.3	
337.81	4650.3	
338.02	3279.5	
338.23	4055.7	
338.43	5633.3	
338.64	4743.8	
338.85	3222.1	
339.05	4061.1	
339.26	5755.5	
339.47	4569.7	
339.68	3169.6	
339.88	4643.4	
340.09	5235.3	
340.3	5436.7	
340.5	3632.4	
340.71	2856.2	
340.92	4582.7	
341.13	5614.2	
341.33	3050.8	
341.54	3748.5	
341.75	5178.6	
341.95	4909.7	
342.16	3536.2	
342.37	3792.2	
342.57	4663.9	
342.78	4973.2	
342.99	3973.7	
343.19	2876.7	
343.4	5353.4	
343.61	5281	
343.81	3352.5	
344.02	3089	
344.23	5421	
344.43	5681.7	
344.64	3947.1	
344.85	3799	
345.06	5242.1	
345.26	5497.4	
345.47	3661.1	
345.68	4265.9	
345.88	4522.6	
346.09	5399.1	
346.3	3774.4	
346.5	2827.6	
346.71	4973.2	
346.92	4762.2	
347.12	3011.2	
347.33	3629	
347.54	5494.7	
347.74	5810.8	
347.95	3619.4	
348.16	2758.6	
348.36	4835.9	
348.57	4735.6	
348.78	3661.1	
348.98	3844.7	
349.19	4843.4	
349.39	4500.1	
349.6	2981.2	
349.81	3212.6	
350.01	5278.3	
350.22	4739.7	
350.43	3532.1	
350.63	4185.4	
350.84	5028.4	
351.05	4807.9	
351.25	3213.9	
351.46	2951.1	
351.67	5435.3	
351.87	4697.4	
352.08	3409.2	
352.29	3844	
352.49	5409.4	
352.7	5432.6	
352.9	3093.1	
353.11	3888.4	
353.32	5950.7	
353.52	4785.4	
353.73	3131.3	
353.94	3861.8	
354.14	5252.4	
354.35	5052.3	
354.55	3188	
354.76	3519.1	
354.97	5230.5	
355.17	5042.1	
355.38	3022.1	
355.59	4112.3	
355.79	4774.5	
356	5061.2	
356.2	3424.9	
356.41	3061	
356.62	4481.6	
356.82	4943.1	
357.03	3762.8	
357.24	3315	
357.44	4783.4	
357.65	4859.1	
357.85	4416.8	
358.06	3546.4	
358.27	4532.8	
358.47	4719.9	
358.68	3016.7	
358.88	3690.4	
359.09	5223	
359.3	5546.6	
359.5	4215.4	
359.71	3799	
359.91	5890	
360.12	5313.1	
360.33	3689.1	
360.53	4113.7	
360.74	4752.7	
360.94	4797	
361.15	3924.6	
361.36	3270.6	
361.56	5489.2	
361.77	4987.5	
361.97	4236.6	
362.18	3428.3	
362.38	5408	
362.59	4620.9	
362.8	3187.3	
363	3090.4	
363.21	4447.5	
363.41	5039.4	
363.62	3604.4	
363.83	4420.2	
364.03	5129.5	
364.24	5887.9	
364.44	4567	
364.65	4584	
364.85	4968.4	
365.06	4620.2	
365.27	3354.6	
365.47	3355.3	
365.68	5819.6	
365.88	4880.3	
366.09	3686.3	
366.29	3376.4	
366.5	5117.2	
366.71	5453.1	
366.91	4485.7	
367.12	3848.1	
367.32	5993	
367.53	5407.3	
367.73	3784	
367.94	4595	
368.14	5339.7	
368.35	6038.1	
368.56	3760.1	
368.76	3245.3	
368.97	5415.5	
369.17	6767.9	
369.38	3355.3	
369.58	3530.7	
369.79	4558.1	
369.99	5729.5	
370.2	4418.2	
370.4	3603.7	
370.61	5254.4	
370.82	6200.6	
371.02	3578.5	
371.23	2996.2	
371.43	4586.1	
371.64	5727.5	
371.84	3584.6	
372.05	4603.8	
372.25	6763.1	
372.46	5382.7	
372.66	3603.7	
372.87	3569.6	
373.07	5442.1	
373.28	6827.9	
373.48	4384	
373.69	4174.4	
373.9	5020.3	
374.1	5027.8	
374.31	4395.6	
374.51	4016.1	
374.72	5727.5	
374.92	4738.3	
375.13	4569.7	
375.33	3828.3	
375.54	5330.9	
375.74	4873.5	
375.95	3948.5	
376.15	4924.7	
376.36	5410.1	
376.56	5264.6	
376.77	4013.3	
376.97	4336.2	
377.18	6318	
377.38	5480.4	
377.59	4591.5	
377.79	3560.7	
378	5293.3	
378.2	5657.2	
378.41	3616	
378.61	3530	
378.82	5698.8	
379.02	4997.7	
379.23	3722.5	
379.43	4659.8	
379.64	5864	
379.84	5419.6	
380.05	3614.7	
380.25	3547.1	
380.46	5520.6	
380.66	5178.6	
380.87	4693.9	
381.07	5016.2	
381.28	6051.1	
381.48	5486.5	
381.69	3623.5	
381.89	3647.4	
382.1	4596.3	
382.3	5643.5	
382.51	4517.1	
382.71	5267.4	
382.91	5498.1	
383.12	5951.4	
383.32	3886.4	
383.53	4079.6	
383.73	5316.5	
383.94	5166.3	
384.14	4061.8	
384.35	3278.8	
384.55	5084.4	
384.76	5473.5	
384.96	3876.8	
385.17	4196.3	
385.37	5481.7	
385.58	4836.6	
385.78	4129.4	
385.98	3247.4	
386.19	5083.7	
386.39	5414.1	
386.6	3723.2	
386.8	3935.5	
387.01	5507	
387.21	5475.6	
387.42	4225	
387.62	4685.1	
387.83	4964.3	
388.03	5398.4	
388.23	3953.9	
388.44	4638.6	
388.64	4640	
388.85	4752	
389.05	4205.2	
389.26	4776.5	
389.46	6241.5	
389.67	5868.8	
389.87	4166.9	
390.07	4199.7	
390.28	5223	
390.48	4839.4	
390.69	3598.3	
390.89	3762.8	
391.1	4971.8	
391.3	5790.3	
391.5	4826.4	
391.71	5311.7	
391.91	5571.2	
392.12	6365.1	
392.32	4826.4	
392.53	4220.9	
392.73	5047.6	
392.93	5156.1	
393.14	3936.2	
393.34	4588.1	
393.55	5535	
393.75	5136.3	
393.95	3919.8	
394.16	3848.1	
394.36	4996.4	
394.57	5593.7	
394.77	3475.4	
394.98	3863.2	
395.18	4976.6	
395.38	5139.7	
395.59	4630.5	
395.79	3728.7	
396	5099.4	
396.2	5487.9	
396.4	4540.3	
396.61	4422.2	
396.81	5620.3	
397.02	5026.4	
397.22	4599.1	
397.42	4697.4	
397.63	5669.5	
397.83	4949.9	
398.04	3647.4	
398.24	4077.5	
398.44	5472.9	
398.65	4616.8	
398.85	3588.7	
399.05	3646.1	
399.26	4930.1	
399.46	6362.4	
399.67	4030.4	
399.87	3744.4	
400.07	5251	
400.28	5641.5	
400.48	3822.9	
400.69	4713.1	
400.89	5748	
401.09	6168.5	
401.3	3761.4	
401.5	4681.7	
401.7	6308.4	
401.91	6559	
402.11	4027	
402.32	4253.6	
402.52	5750.7	
402.72	5661.3	
402.93	4367	
403.13	3401.7	
403.33	6393.8	
403.54	5280.3	
403.74	4114.4	
403.94	4911	
404.15	5412.8	
404.35	6302.3	
404.56	3971	
404.76	5466.7	
404.96	5802.6	
405.17	5564.3	
405.37	5182.7	
405.57	4381.3	
405.78	5758.9	
405.98	5360.9	
406.18	3956.7	
406.39	4745.1	
406.59	5659.9	
406.79	5364.3	
407	3771.7	
407.2	3831.1	
407.4	5861.3	
407.61	5878.4	
407.81	3886.4	
408.01	5464	
408.22	4853	
408.42	6543.3	
408.62	4762.9	
408.83	4339.6	
409.03	5417.6	
409.23	5292.6	
409.44	4446.1	
409.64	4663.2	
409.84	6182.1	
410.05	6121.4	
410.25	4543.1	
410.45	4324.6	
410.66	5735.7	
410.86	7688.1	
411.06	4700.8	
411.27	4534.9	
411.47	7542.7	
411.67	5835.3	
411.88	4823.6	
412.08	4962.9	
412.28	6368.5	
412.49	6759	
412.69	4542.4	
412.89	4529.4	
413.09	6643.6	
413.3	6476.4	
413.5	4687.8	
413.7	4345.8	
413.91	5871.5	
414.11	6594.5	
414.31	4487.1	
414.52	4812	
414.72	6235.4	
414.92	6201.2	
415.12	4468	
415.33	4912.4	
415.53	6547.4	
415.73	6666.8	
415.94	5212.1	
416.14	4743.1	
416.34	5773.2	
416.55	5518.6	
416.75	5765.7	
416.95	5229.1	
417.15	6539.8	
417.36	7141.3	
417.56	5890	
417.76	5130.2	
417.97	6933.1	
418.17	6583.5	
418.37	4786.8	
418.57	4814.1	
418.78	6410.8	
418.98	6145.3	
419.18	5550	
419.38	5465.3	
419.59	6126.2	
419.79	5827.8	
419.99	4622.3	
420.2	5059.2	
420.4	6588.3	
420.6	6680.5	
420.8	4657.8	
421.01	4503.5	
421.21	6405.4	
421.41	6537.1	
421.61	4906.9	
421.82	4721.9	
422.02	6059.9	
422.22	6795.8	
422.42	5403.9	
422.63	5031.2	
422.83	6065.4	
423.03	7044.3	
423.23	5036	
423.44	4274.8	
423.64	6184.2	
423.84	5924.1	
424.04	4656.4	
424.25	4308.2	
424.45	6855.2	
424.65	6919.4	
424.85	4205.8	
425.06	4685.1	
425.26	6906.4	
425.46	5968.5	
425.66	5045.5	
425.87	4762.9	
426.07	6688	
426.27	6513.2	
426.47	4891.9	
426.67	4304.8	
426.88	6981.5	
427.08	6565.1	
427.28	5062.6	
427.48	4207.9	
427.69	5565	
427.89	6143.9	
428.09	4996.4	
428.29	4339	
428.5	6613.6	
428.7	6283.9	
428.9	4187.4	
429.1	4653.7	
429.3	6216.3	
429.51	6525.5	
429.71	4527.4	
429.91	5215.5	
430.11	6551.5	
430.31	6977.4	
430.52	4772.4	
430.72	4903.5	
430.92	6968.6	
431.12	6434	
431.32	4429.1	
431.53	4867.3	
431.73	5560.2	
431.93	7007.5	
432.13	4423.6	
432.33	4265.9	
432.54	5993.7	
432.74	6204.7	
432.94	4202.4	
433.14	5123.3	
433.34	6460.7	
433.55	6003.3	
433.75	5069.4	
433.95	6477	
434.15	6222.4	
434.35	6068.8	
434.56	4365.6	
434.76	3997.6	
434.96	6208.1	
435.16	6374.6	
435.36	4255.7	
435.56	5229.1	
435.77	5885.9	
435.97	6130.9	
436.17	5813.5	
436.37	5152	
436.57	5861.3	
436.78	5807.4	
436.98	5156.1	
437.18	5707	
437.38	6402	
437.58	6107	
437.78	5789.6	
437.99	4584.7	
438.19	6514.6	
438.39	7644.4	
438.59	4533.5	
438.79	4189.5	
438.99	6997.2	
439.2	6015.6	
439.4	4291.9	
439.6	4276.2	
439.8	6264.1	
440	7176.8	
440.2	5147.9	
440.4	5229.1	
440.61	6604	
440.81	7104.4	
441.01	4445.5	
441.21	5167.7	
441.41	6894.1	
441.61	6594.5	
441.81	5360.9	
442.02	6245.6	
442.22	7431.4	
442.42	6759.7	
442.62	4451.6	
442.82	4540.3	
443.02	6959	
443.22	6264.7	
443.43	4831.2	
443.63	4448.2	
443.83	6021.7	
444.03	6017.6	
444.23	5492.7	
444.43	5155.4	
444.63	6381.5	
444.83	7309.2	
445.04	4630.5	
445.24	5681.7	
445.44	6632.7	
445.64	6705.7	
445.84	5201.2	
446.04	5247.6	
446.24	6095.4	
446.44	6950.8	
446.65	4575.2	
446.85	4844.1	
447.05	6189	
447.25	6908.5	
447.45	4968.4	
447.65	4444.8	
447.85	6368.5	
448.05	6019	
448.25	5365.7	
448.46	5003.2	
448.66	6386.2	
448.86	6106.4	
449.06	4252.3	
449.26	5275.6	
449.46	6625.2	
449.66	5904.3	
449.86	4845.5	
450.06	4871.4	
450.26	5991	
450.47	6548	
450.67	5094	
450.87	5285.1	
451.07	6593.1	
451.27	6339.8	
451.47	4499.4	
451.67	4943.8	
451.87	6094.1	
452.07	7105.1	
452.27	4678.9	
452.47	4700.8	
452.67	6360.3	
452.88	6746.7	
453.08	4146.5	
453.28	5717.2	
453.48	7398.6	
453.68	6286.6	
453.88	4540.3	
454.08	4803.2	
454.28	6653.2	
454.48	6335.1	
454.68	5199.8	
454.88	5658.5	
455.08	6761.7	
455.28	6550.1	
455.48	4412.7	
455.68	5027.8	
455.89	7086.7	
456.09	6788.3	
456.29	4750.6	
456.49	4801.1	
456.69	7021.1	
456.89	6315.3	
457.09	5203.9	
457.29	5423	
457.49	6640.2	
457.69	6692.8	
457.89	5044.1	
458.09	4545.8	
458.29	6389.7	
458.49	6986.3	
458.69	5343.2	
458.89	4856.4	
459.09	7166.5	
459.29	7303.1	
459.49	4940.4	
459.69	5594.4	
459.9	6766.5	
460.1	6359.6	
460.3	4887.1	
460.5	4670.1	
460.7	6770.6	
460.9	6552.1	
461.1	4459.1	
461.3	5473.5	
461.5	7425.9	
461.7	7060	
461.9	4764.3	
462.1	5155.4	
462.3	6595.8	
462.5	7057.3	
462.7	4797	
462.9	4900.8	
463.1	8008.9	
463.3	7582.9	
463.5	5096.7	
463.7	5834	
463.9	6719.4	
464.1	7008.8	
464.3	5136.3	
464.5	5248.9	
464.7	7251.9	
464.9	6883.9	
465.1	6511.2	
465.3	5604.6	
465.5	7511.3	
465.7	7567.9	
465.9	5842.2	
466.1	5724.1	
466.3	7350.8	
466.5	7240.9	
466.7	6398.5	
466.9	5416.2	
467.1	7221.1	
467.3	8015.1	
467.5	6342.6	
467.7	5429.8	
467.9	8189.1	
468.1	8825.4	
468.3	6051.1	
468.5	6386.9	
468.7	7083.9	
468.9	7034.8	
469.1	5597.1	
469.3	6269.5	
469.5	8729.1	
469.7	6752.2	
469.9	6161.7	
470.1	5459.2	
470.3	7128.3	
470.5	7219.8	
470.7	6507.1	
470.9	5524.1	
471.1	6929	
471.3	7388.4	
471.5	5358.2	
471.69	7065.5	
471.89	6918.7	
472.09	6407.4	
472.29	5974.6	
472.49	6413.6	
472.69	6574.7	
472.89	7303.7	
473.09	5204.6	
473.29	5378	
473.49	6789	
473.69	6847.7	
473.89	6223.1	
474.09	5534.3	
474.29	7990.5	
474.49	7748.8	
474.69	6120.7	
474.89	5697.4	
475.09	6974.7	
475.29	6849.8	
475.49	5162.9	
475.69	5416.9	
475.88	8250.6	
476.08	7313.3	
476.28	5141.1	
476.48	5416.9	
476.68	7541.3	
476.88	7392.5	
477.08	5431.9	
477.28	5618.3	
477.48	6994.5	
477.68	7509.2	
477.88	5156.8	
478.08	5494.7	
478.28	7822.6	
478.48	7013.6	
478.67	5531.6	
478.87	5036.6	
479.07	7600.7	
479.27	7223.9	
479.47	5673.6	
479.67	5604.6	
479.87	7481.2	
480.07	7920.9	
480.27	5082.4	
480.47	6397.9	
480.67	7169.9	
480.87	7675.1	
481.06	5274.2	
481.26	5978.7	
481.46	7167.2	
481.66	7122.8	
481.86	5701.5	
482.06	6513.9	
482.26	6936.5	
482.46	7804.8	
482.66	5696.8	
482.86	5305.6	
483.05	7266.9	
483.25	6728.3	
483.45	7673.1	
483.65	5601.2	
483.85	6808.8	
484.05	7144	
484.25	6008.7	
484.45	6389.7	
484.65	7860.1	
484.84	7819.1	
485.04	5517.2	
485.24	5481	
485.44	8086.1	
485.64	6610.8	
485.84	4921.3	
486.04	6092	
486.24	6922.8	
486.44	7270.3	
486.63	4963.6	
486.83	5661.3	
487.03	6853.2	
487.23	7030.7	
487.43	4995	
487.63	6976.1	
487.83	7037.5	
488.02	7899.7	
488.22	5844.2	
488.42	6324.8	
488.62	7761.8	
488.82	6803.4	
489.02	5545.9	
489.22	5489.2	
489.41	7638.9	
489.61	7352.2	
489.81	5367	
490.01	5365	
490.21	7661.5	
490.41	8178.9	
490.61	5247.6	
490.8	5478.3	
491	7299	
491.2	6591.7	
491.4	5886.5	
491.6	5174.5	
491.8	7225.2	
491.99	7303.1	
492.19	5038	
492.39	5432.6	
492.59	7575.4	
492.79	7659.4	
492.99	6113.2	
493.18	5285.8	
493.38	7765.2	
493.58	8329.8	
493.78	5838.8	
493.98	5481.7	
494.18	7434.1	
494.37	6999.3	
494.57	6044.9	
494.77	5926.8	
494.97	7569.3	
495.17	7772	
495.37	5641.5	
495.56	5856.5	
495.76	8013.7	
495.96	7593.9	
496.16	6671.6	
496.36	5712.5	
496.55	7751.6	
496.75	7328.3	
496.95	6019	
497.15	5954.1	
497.35	7828	
497.54	7731.1	
497.74	5843.5	
497.94	7247.8	
498.14	8371.4	
498.34	8246.5	
498.53	5563	
498.73	6214.9	
498.93	7262.8	
499.13	7653.9	
499.33	5995.1	
499.52	6405.4	
499.72	7776.8	
499.92	8035.5	
500.12	5726.8	
500.32	5958.9	
500.51	7935.2	
500.71	7789.1	
500.91	6563.7	
501.11	6333.7	
501.31	7928.4	
501.5	8288.1	
501.7	6846.4	
501.9	5993	
502.1	7759.8	
502.29	8012.3	
502.49	6390.3	
502.69	6784.9	
502.89	7899.7	
503.09	7872.4	
503.28	5614.8	
503.48	5686.5	
503.68	7277.1	
503.88	7249.1	
504.07	6451.8	
504.27	6051.1	
504.47	7649.8	
504.67	7745.4	
504.86	6440.9	
505.06	6257.9	
505.26	7415.7	
505.46	8847.9	
505.65	6025.8	
505.85	6310.5	
506.05	7335.8	
506.25	7749.5	
506.44	5614.2	
506.64	6436.8	
506.84	7186.3	
507.04	8013	
507.23	5713.2	
507.43	6244.9	
507.63	8923.7	
507.83	7367.9	
508.02	6210.8	
508.22	5866.1	
508.42	9145.5	
508.62	7263.5	
508.81	6038.8	
509.01	6556.9	
509.21	7167.2	
509.4	7440.3	
509.6	6330.3	
509.8	5674.9	
510	7420.5	
510.19	8484.7	
510.39	5639.4	
510.59	5741.8	
510.79	7193.8	
510.98	8341.4	
511.18	5799.8	
511.38	5888.6	
511.57	7936.6	
511.77	7636.9	
511.97	6496.8	
512.17	5728.9	
512.36	7858.1	
512.56	7818.5	
512.76	5683.8	
512.95	5425.1	
513.15	8107.9	
513.35	6864.1	
513.55	6369.2	
513.74	5684.5	
513.94	7967.3	
514.14	7376.1	
514.33	6457.2	
514.53	6337.1	
514.73	7391.1	
514.92	7575.4	
515.12	5798.5	
515.32	5669.5	
515.51	7602.7	
515.71	7966.6	
515.91	7167.9	
516.11	5754.1	
516.3	8973.5	
516.5	7279.8	
516.7	6244.9	
516.89	6656.6	
517.09	7455.3	
517.29	7320.8	
517.48	6511.9	
517.68	6001.9	
517.88	7154.9	
518.07	7684.7	
518.27	6423.8	
518.47	5565	
518.66	8133.2	
518.86	6957.6	
519.06	5454.4	
519.25	5788.2	
519.45	7223.2	
519.65	8516.1	
519.84	6409.5	
520.04	6921.5	
520.24	8803.5	
520.43	7854.6	
520.63	6089.3	
520.83	5921.4	
521.02	7176.8	
521.22	7709.9	
521.42	6365.8	
521.61	6836.8	
521.81	7378.8	
522.01	7590.5	
522.2	6183.5	
522.4	6106.4	
522.6	7935.9	
522.79	6873	
522.99	6036.7	
523.18	5578.7	
523.38	7632.8	
523.58	7620.5	
523.77	7105.8	
523.97	5424.4	
524.17	9163.3	
524.36	8493.6	
524.56	6563.7	
524.76	6244.9	
524.95	7642.3	
525.15	7382.2	
525.34	6105.7	
525.54	6192.4	
525.74	7942.7	
525.93	7027.3	
526.13	7103.7	
526.33	6137.1	
526.52	8290.2	
526.72	7798	
526.91	7191.1	
527.11	6529.6	
527.31	8234.2	
527.5	8528.4	
527.7	6454.5	
527.89	5595.7	
528.09	7343.3	
528.29	7787.1	
528.48	6780.8	
528.68	6443.6	
528.87	8220.5	
529.07	8205.5	
529.27	6366.5	
529.46	6013.5	
529.66	7914	
529.85	8214.4	
530.05	5929.6	
530.25	6503.7	
530.44	9028.8	
530.64	7839.6	
530.83	6283.2	
531.03	6430.6	
531.23	8159.1	
531.42	8066.9	
531.62	7084.6	
531.81	6323.4	
532.01	8335.2	
532.21	8632.9	
532.4	6151.4	
532.6	6514.6	
532.79	8948.3	
532.99	8325.7	
533.18	6543.9	
533.38	7288.7	
533.58	7921.5	
533.77	8617.9	
533.97	6425.8	
534.16	7223.2	
534.36	8724.3	
534.55	7887.4	
534.75	7262.1	
534.95	6539.8	
535.14	8628.1	
535.34	7860.8	
535.53	6336.4	
535.73	7864.2	
535.92	9104.6	
536.12	8129.8	
536.31	6300.9	
536.51	7326.3	
536.71	8353.7	
536.9	8019.8	
537.1	6507.1	
537.29	6588.3	
537.49	8758.5	
537.68	7925.6	
537.88	6878.4	
538.07	6262	
538.27	8062.9	
538.46	8924.4	
538.66	6098.9	
538.86	6518	
539.05	8181.6	
539.25	8596	
539.44	6756.9	
539.64	6436.8	
539.83	7984.3	
540.03	8893	
540.22	6399.2	
540.42	6449.7	
540.61	8255.4	
540.81	8320.9	
541	6875.7	
541.2	7346.1	
541.39	7974.8	
541.59	8159.1	
541.78	7036.1	
541.98	6413.6	
542.18	7585	
542.37	7604.1	
542.57	6696.2	
542.76	7167.2	
542.96	7707.2	
543.15	8270.4	
543.35	6748.1	
543.54	6195.8	
543.74	8510	
543.93	8186.4	
544.13	6781.5	
544.32	7585.7	
544.52	8478.6	
544.71	7767.9	
544.91	5888.6	
545.1	6919.4	
545.3	7845.1	
545.49	8344.1	
545.69	5919.3	
545.88	6472.3	
546.08	9187.2	
546.27	8802.9	
546.47	6800.6	
546.66	6234	
546.86	8488.1	
547.05	8946.9	
547.24	6432	
547.44	6393.1	
547.63	7615.7	
547.83	8551	
548.02	6584.9	
548.22	6826.6	
548.41	7561.8	
548.61	8621.9	
548.8	6234	
549	6210.8	
549.19	8064.9	
549.39	8342.1	
549.58	5907	
549.78	6446.3	
549.97	8372.1	
550.17	8019.2	
550.36	7283.9	
550.55	8092.2	
550.75	7968.6	
550.94	8765.3	
551.14	6151.4	
551.33	6455.2	
551.53	7404.1	
551.72	8251.9	
551.92	6614.3	
552.11	6260	
552.31	8382.3	
552.5	8265.6	
552.69	7786.4	
552.89	5973.9	
553.08	8251.3	
553.28	7990.5	
553.47	6375.3	
553.67	7302.4	
553.86	8791.9	
554.06	7310.6	
554.25	5662.6	
554.44	6230.6	
554.64	9498.5	
554.83	9008.3	
555.03	6137.1	
555.22	6472.9	
555.42	8423.3	
555.61	8112.7	
555.8	6299.6	
556	6551.5	
556.19	7427.3	
556.39	8493.6	
556.58	6345.3	
556.78	6317.3	
556.97	8135.2	
557.16	7748.1	
557.36	7381.6	
557.55	6060.6	
557.75	7195.2	
557.94	8648.6	
558.13	6135.7	
558.33	5872.9	
558.52	8538	
558.72	7577.5	
558.91	6011.5	
559.1	6238.1	
559.3	7351.5	
559.49	7111.9	
559.69	5633.3	
559.88	6552.1	
560.07	8081.3	
560.27	8367.3	
560.46	6750.1	
560.66	6837.5	
560.85	7886.7	
561.04	7149.5	
561.24	6062.7	
561.43	6154.8	
561.63	7469.6	
561.82	7674.4	
562.01	7169.3	
562.21	6425.8	
562.4	8045.8	
562.59	8821.3	
562.79	6342.6	
562.98	6014.9	
563.18	7868.3	
563.37	9107.3	
563.56	6698.2	
563.76	5911.8	
563.95	7470.3	
564.14	7451.2	
564.34	6274.3	
564.53	6091.3	
564.73	7962.5	
564.92	8126.3	
565.11	6464.8	
565.31	5847.6	
565.5	8374.1	
565.69	7479.9	
565.89	6034.7	
566.08	6262.7	
566.27	8317.5	
566.47	8661.5	
566.66	6904.4	
566.85	5724.8	
567.05	8048.5	
567.24	7529.7	
567.44	6004	
567.63	7193.1	
567.82	8180.3	
568.02	7989.8	
568.21	5962.3	
568.4	6405.4	
568.6	7832.1	
568.79	7811.6	
568.98	6010.1	
569.18	6020.3	
569.37	7823.9	
569.56	9508	
569.76	6365.8	
569.95	7182.9	
570.14	8208.9	
570.34	8094.9	
570.53	5916.6	
570.72	5955.5	
570.91	8619.9	
571.11	7774.1	
571.3	6441.5	
571.49	7148.8	
571.69	7909.9	
571.88	7528.3	
572.07	6794.5	
572.27	6877.8	
572.46	7465.5	
572.65	8324.3	
572.85	6178.7	
573.04	6433.4	
573.23	8601.5	
573.43	7983	
573.62	6054.5	
573.81	6483.9	
574	7996	
574.2	7772.7	
574.39	6232	
574.58	6373.3	
574.78	8571.4	
574.97	7974.1	
575.16	6675.7	
575.36	6847.7	
575.55	8350.3	
575.74	8543.4	
575.93	6010.1	
576.13	6876.4	
576.32	7878.5	
576.51	8301.1	
576.71	6372.6	
576.9	7373.4	
577.09	8648.6	
577.28	8176.9	
577.48	6725.5	
577.67	5870.2	
577.86	7938.6	
578.05	8178.9	
578.25	6483.9	
578.44	6554.9	
578.63	7991.9	
578.83	9046.6	
579.02	5994.4	
579.21	7335.1	
579.4	8143.4	
579.6	7873.1	
579.79	6624.5	
579.98	8435.6	
580.17	8467.7	
580.37	8565.3	
580.56	6109.8	
580.75	6797.9	
580.94	8862.9	
581.14	8826.1	
581.33	7157	
581.52	6246.3	
581.71	8365.3	
581.91	8955.8	
582.1	6013.5	
582.29	6531.7	
582.48	8066.9	
582.68	8006.2	
582.87	6979.5	
583.06	6640.9	
583.25	8366.6	
583.45	8083.3	
583.64	7040.2	
583.83	7729	
584.02	7929.1	
584.21	8307.2	
584.41	7127.6	
584.6	6535.1	
584.79	8062.2	
584.98	8604.9	
585.18	6176	
585.37	6125.5	
585.56	7684.7	
585.75	8338	
585.94	6274.3	
586.14	6858.6	
586.33	8893.6	
586.52	8039	
586.71	6706.4	
586.91	6566.5	
587.1	7544.7	
587.29	8467.7	
587.48	6462.7	
587.67	6333.7	
587.87	8376.2	
588.06	8372.8	
588.25	7523.6	
588.44	6873	
588.63	7985	
588.83	8544.8	
589.02	6582.9	
589.21	6429.9	
589.4	7927.7	
589.59	7820.5	
589.78	5810.1	
589.98	6021	
590.17	7598	
590.36	8008.9	
590.55	5564.3	
590.74	6254.5	
590.94	9077.3	
591.13	7892.9	
591.32	6002.6	
591.51	5658.5	
591.7	8170	
591.89	7769.3	
592.09	5673.6	
592.28	6072.2	
592.47	7130.3	
592.66	8760.5	
592.85	5636	
593.05	5892	
593.24	7694.2	
593.43	8258.8	
593.62	5968.5	
593.81	6286.6	
594	7699	
594.19	7876.5	
594.39	5843.5	
594.58	5881.8	
594.77	8036.9	
594.96	8499.1	
595.15	5871.5	
595.34	6328.9	
595.54	8013	
595.73	7193.1	
595.92	5335.6	
596.11	6227.9	
596.3	8395.3	
596.49	7309.9	
596.68	6118	
596.88	6477.7	
597.07	8148.9	
597.26	7208.2	
597.45	5676.3	
597.64	6656.6	
597.83	7350.8	
598.02	7937.9	
598.22	5756.8	
598.41	6318	
598.6	7773.4	
598.79	7261.4	
598.98	5737	
599.17	6536.4	
599.36	7753.6	
599.55	8753.7	
599.74	7463.5	
599.94	7248.4	
600.13	8196	
600.32	7140.6	
600.51	5564.3	
600.7	5704.3	
600.89	8735.3	
601.08	8654	
601.27	5470.1	
601.47	6343.2	
601.66	8098.4	
601.85	8570.1	
602.04	5987.6	
602.23	6082.5	
602.42	7337.2	
602.61	7900.4	
602.8	5926.8	
602.99	5847.6	
603.18	7572.7	
603.37	7787.1	
603.57	6298.9	
603.76	6776	
603.95	8416.5	
604.14	8010.3	
604.33	5806.7	
604.52	6044.9	
604.71	7684	
604.9	7468.9	
605.09	6867.5	
605.28	6514.6	
605.47	8330.5	
605.66	7918.1	
605.86	6300.2	
606.05	5807.4	
606.24	8232.8	
606.43	6972	
606.62	6098.2	
606.81	6685.9	
607	8167.3	
607.19	7548.8	
607.38	5564.3	
607.57	5778.7	
607.76	7320.1	
607.95	6869.6	
608.14	6235.4	
608.33	6717.3	
608.52	7301	
608.72	8073.8	
608.91	5594.4	
609.1	5452.4	
609.29	7483.3	
609.48	7064.8	
609.67	6353.5	
609.86	5552	
610.05	7175.4	
610.24	7400.7	
610.43	5421	
610.62	5181.4	
610.81	8312	
611	8116.1	
611.19	5559.6	
611.38	6146.6	
611.57	7674.4	
611.76	8709.3	
611.95	5349.3	
612.14	5154.1	
612.33	7523.6	
612.52	7088.7	
612.71	5874.3	
612.9	5212.8	
613.09	6737.1	
613.28	8696.4	
613.47	5763	
613.66	6434	
613.85	7600.7	
614.04	7188.4	
614.24	5677	
614.43	4961.5	
614.62	7703.8	
614.81	7692.9	
615	6152.8	
615.19	6103.6	
615.38	7023.2	
615.57	7357.7	
615.76	6058.6	
615.95	6764.4	
616.14	7722.2	
616.33	7423.2	
616.52	6291.4	
616.71	6440.2	
616.9	7658.7	
617.09	7585	
617.28	5745.9	
617.47	6731.7	
617.66	6951.5	
617.85	6971.3	
618.04	6427.2	
618.22	5955.5	
618.41	7213.6	
618.6	7975.5	
618.79	5950	
618.98	5651	
619.17	8216.5	
619.36	6819.1	
619.55	5847.6	
619.74	5905.7	
619.93	7704.5	
620.12	7111.9	
620.31	6299.6	
620.5	6465.4	
620.69	8079.9	
620.88	8439.7	
621.07	7055.9	
621.26	6214.9	
621.45	7722.9	
621.64	7751.6	
621.83	6342.6	
622.02	5661.3	
622.21	7833.5	
622.4	7628.7	
622.59	6787.7	
622.78	6612.2	
622.97	7256.6	
623.16	8110.6	
623.35	6293.4	
623.54	5529.5	
623.72	7434.8	
623.91	7559.7	
624.1	6520.7	
624.29	5384.1	
624.48	8445.8	
624.67	7812.3	
624.86	6370.5	
625.05	5648.3	
625.24	8490.9	
625.43	7333.8	
625.62	7732.4	
625.81	5724.8	
626	8153.6	
626.19	7486.7	
626.38	6461.3	
626.56	5960.3	
626.75	7317.4	
626.94	7938.6	
627.13	6471.6	
627.32	5432.6	
627.51	7804.8	
627.7	8974.9	
627.89	5421.7	
628.08	6538.5	
628.27	7237.5	
628.46	7477.8	
628.65	5786.9	
628.83	5427.8	
629.02	7925	
629.21	7274.4	
629.4	6124.8	
629.59	6263.4	
629.78	7266.2	
629.97	8024.6	
630.16	6283.9	
630.35	5885.2	
630.54	8480.6	
630.72	8180.3	
630.91	5875.6	
631.1	6255.9	
631.29	7713.3	
631.48	7806.9	
631.67	6511.2	
631.86	5959.6	
632.05	7539.3	
632.24	7501.7	
632.42	5732.9	
632.61	6288.6	
632.8	7555.6	
632.99	7215	
633.18	6178	
633.37	6533.7	
633.56	7798.7	
633.75	7617.1	
633.93	6226.5	
634.12	5920	
634.31	8411.7	
634.5	8077.2	
634.69	6015.6	
634.88	6366.5	
635.07	7578.2	
635.25	8067.6	
635.44	6767.9	
635.63	6891.4	
635.82	7445	
636.01	6948.8	
636.2	6741.9	
636.39	6356.2	
636.57	8442.4	
636.76	8048.5	
636.95	5791.7	
637.14	6997.9	
637.33	7792.5	
637.52	8570.7	
637.7	5720	
637.89	6495.5	
638.08	7498.3	
638.27	8712.1	
638.46	6484.6	
638.65	6884.6	
638.83	8671.1	
639.02	7290.1	
639.21	6408.1	
639.4	6838.9	
639.59	7837.6	
639.78	7438.9	
639.96	5934.3	
640.15	5905.7	
640.34	7595.9	
640.53	7790.5	
640.72	5683.8	
640.91	5947.3	
641.09	7104.4	
641.28	8284	
641.47	6058.6	
641.66	6652.5	
641.85	7748.8	
642.03	7935.9	
642.22	6350.1	
642.41	6024.4	
642.6	7269.6	
642.79	6830	
642.97	5858.6	
643.16	6454.5	
643.35	7212.3	
643.54	7055.3	
643.73	5765.7	
643.91	6466.1	
644.1	6979.5	
644.29	7463.5	
644.48	5829.2	
644.67	5887.9	
644.85	7167.9	
645.04	7479.9	
645.23	5520.6	
645.42	5741.1	
645.6	7048.4	
645.79	8034.2	
645.98	5765.7	
646.17	4980.7	
646.36	6846.4	
646.54	7366.5	
646.73	6489.3	
646.92	5456.5	
647.11	7046.4	
647.29	7877.2	
647.48	5492.7	
647.67	5269.4	
647.86	8120.9	
648.05	8045.8	
648.23	5771.9	
648.42	6804.7	
648.61	7593.9	
648.8	7329	
648.98	5425.1	
649.17	5762.3	
649.36	6921.5	
649.55	6568.5	
649.73	5483.1	
649.92	6155.5	
650.11	6891.4	
650.3	7225.9	
650.48	5617.6	
650.67	5481.7	
650.86	7428	
651.05	6594.5	
651.23	5594.4	
651.42	5512.4	
651.61	6982.9	
651.79	7042.3	
651.98	5755.5	
652.17	5458.5	
652.36	7283.9	
652.54	6507.1	
652.73	5472.2	
652.92	5390.3	
653.11	7307.8	
653.29	7520.8	
653.48	4866	
653.67	5722	
653.85	7204.1	
654.04	8049.2	
654.23	6033.3	
654.42	5504.3	
654.6	6827.9	
654.79	7359	
654.98	5053.7	
655.16	5614.2	
655.35	6421.1	
655.54	6322.8	
655.73	5127.4	
655.91	4960.2	
656.1	7297.6	
656.29	6287.9	
656.47	4649.6	
656.66	6049.7	
656.85	6550.1	
657.03	6534.4	
657.22	5057.1	
657.41	5178.6	
657.59	6627.9	
657.78	6499.6	
657.97	4915.8	
658.16	5517.9	
658.34	7219.1	
658.53	7628	
658.72	6256.5	
658.9	6658.6	
659.09	6811.5	
659.28	6837.5	
659.46	5278.3	
659.65	5303.6	
659.84	6522.1	
660.02	6996.5	
660.21	5191.6	
660.4	5068	
660.58	7380.2	
660.77	6795.2	
660.96	5634	
661.14	4873.5	
661.33	7811	
661.52	7729.7	
661.7	4818.2	
661.89	7912.7	
662.08	6552.8	
662.26	6212.9	
662.45	5028.4	
662.64	5122	
662.82	7206.8	
663.01	6449.1	
663.2	5218.2	
663.38	5764.3	
663.57	7008.8	
663.75	6887.3	
663.94	5397.8	
664.13	6476.4	
664.31	6506.4	
664.5	7089.4	
664.69	5726.1	
664.87	6120	
665.06	6318	
665.25	7032	
665.43	6264.7	
665.62	6310.5	
665.8	7135.8	
665.99	6578.8	
666.18	5423	
666.36	5445.5	
666.55	7135.8	
666.74	7096.2	
666.92	5144.5	
667.11	6574.7	
667.29	6608.8	
667.48	7233.4	
667.67	6206.7	
667.85	5338.4	
668.04	6619.7	
668.22	6561.7	
668.41	5456.5	
668.6	5651	
668.78	6366.5	
668.97	6699.6	
669.15	5762.3	
669.34	4933.6	
669.53	6452.5	
669.71	6750.1	
669.9	5042.8	
670.08	5583.4	
670.27	6461.3	
670.46	7012.2	
670.64	5836.7	
670.83	5993.7	
671.01	6323.4	
671.2	6914.6	
671.38	5055.1	
671.57	4962.2	
671.76	7456.7	
671.94	7895.6	
672.13	4996.4	
672.31	5806.7	
672.5	7054.6	
672.69	6389.7	
672.87	5130.8	
673.06	5377.3	
673.24	6994.5	
673.43	6529.6	
673.61	5777.3	
673.8	5360.9	
673.98	7036.1	
674.17	7188.4	
674.36	5778.7	
674.54	5778.7	
674.73	6838.9	
674.91	7114.6	
675.1	5423	
675.28	5153.4	
675.47	6706.4	
675.65	7086	
675.84	5378	
676.03	5609.4	
676.21	6531	
676.4	6049.7	
676.58	6071.5	
676.77	5825.1	
676.95	7712	
677.14	6469.5	
677.32	5088.5	
677.51	4911.7	
677.69	7149.5	
677.88	6193.1	
678.06	4998.4	
678.25	5120.6	
678.44	6747.4	
678.62	6479.1	
678.81	4797	
678.99	5594.4	
679.18	7389.1	
679.36	7057.3	
679.55	5259.9	
679.73	5770.5	
679.92	6956.3	
680.1	6495.5	
680.29	6371.2	
680.47	5313.1	
680.66	6540.5	
680.84	7132.4	
681.03	4744.5	
681.21	5624.4	
681.4	6466.8	
681.58	6349.4	
681.77	5149.3	
681.95	5133.6	
682.14	7275.1	
682.32	7487.4	
682.51	5885.2	
682.69	4939.7	
682.88	6371.2	
683.06	6940.6	
683.25	5601.2	
683.43	6028.5	
683.62	6646.3	
683.8	6989.7	
683.99	6035.4	
684.17	5480.4	
684.36	7734.5	
684.54	6596.5	
684.73	4939	
684.91	5033.2	
685.1	6989.7	
685.28	6491.4	
685.46	5535.7	
685.65	5605.3	
685.83	7148.1	
686.02	6525.5	
686.2	5050.3	
686.39	5160.2	
686.57	6318.7	
686.76	7544	
686.94	5004.6	
687.13	5187.5	
687.31	6861.4	
687.5	6528.2	
687.68	4677.6	
687.86	5784.8	
688.05	7955.7	
688.23	6132.3	
688.42	5783.5	
688.6	5117.2	
688.79	6451.1	
688.97	6480.5	
689.16	5482.4	
689.34	4556.7	
689.52	7016.3	
689.71	7272.3	
689.89	5749.3	
690.08	5143.8	
690.26	6720.8	
690.45	6634.7	
690.63	5879	
690.81	5251.7	
691	6606.1	
691.18	6441.5	
691.37	5425.1	
691.55	7238.2	
691.74	6436.8	
691.92	8106.5	
692.1	5362.9	
692.29	4930.8	
692.47	6604.7	
692.66	6062.7	
692.84	5083.7	
693.02	5480.4	
693.21	6049	
693.39	6498.2	
693.58	5608	
693.76	5083.7	
693.94	7475.8	
694.13	7297.6	
694.31	5096	
694.5	5997.8	
694.68	6357.6	
694.86	6699.6	
695.05	5429.2	
695.23	5674.9	
695.42	7005.4	
695.6	8910	
695.78	5945.3	
695.97	5183.4	
696.15	7106.5	
696.34	6524.8	
696.52	5050.3	
696.7	5744.6	
696.89	6866.8	
697.07	6354.8	
697.25	5580	
697.44	6882.5	
697.62	6868.9	
697.81	7047.7	
697.99	5401.9	
698.17	5724.1	
698.36	6232.7	
698.54	6840.2	
698.72	5681.1	
698.91	4780	
699.09	6513.2	
699.28	6402.6	
699.46	5380	
699.64	5259.2	
699.83	6299.6	
700.01	7326.9	
700.19	5926.1	
700.38	4586.1	
700.56	7329	
700.74	6424.5	
700.93	4893.3	
701.11	5532.2	
701.29	6842.3	
701.48	7766.6	
701.66	5143.8	
701.84	5165.7	
702.03	6539.2	
702.21	7012.2	
702.39	4793.6	
702.58	5258.5	
702.76	6827.2	
702.94	6908.5	
703.13	4775.2	
703.31	6791.1	
703.49	6290	
703.68	7023.9	
703.86	4940.4	
704.04	5801.9	
704.23	6687.3	
704.41	6942.6	
704.59	5103.5	
704.78	6087.9	
704.96	7646.4	
705.14	7062.8	
705.33	4817.5	
705.51	5575.3	
705.69	6500.9	
705.87	7182.9	
706.06	5804.6	
706.24	4829.1	
706.42	6794.5	
706.61	6935.1	
706.79	5825.8	
706.97	4842.1	
707.16	6292.7	
707.34	6817.7	
707.52	5701.5	
707.7	4975.2	
707.89	6483.2	
708.07	6132.3	
708.25	5752.1	
708.44	5976.7	
708.62	6419	
708.8	7283.3	
708.98	6011.5	
709.17	5123.3	
709.35	6692.1	
709.53	6807.4	
709.72	4868	
709.9	5280.3	
710.08	6995.9	
710.26	6959.7	
710.45	6199.9	
710.63	5125.4	
710.81	6552.1	
710.99	6656.6	
711.18	5601.2	
711.36	5116.5	
711.54	6492.7	
711.72	7135.8	
711.91	5266	
712.09	4851	
712.27	6593.8	
712.45	7443	
712.64	5520.6	
712.82	4646.8	
713	6182.1	
713.18	6291.4	
713.37	4724.7	
713.55	5884.5	
713.73	7034.8	
713.91	5835.3	
714.1	5139	
714.28	4731.5	
714.46	6765.1	
714.64	6086.6	
714.83	4194.9	
715.01	4891.2	
715.19	6147.3	
715.37	5598.5	
715.55	4590.2	
715.74	4883.7	
715.92	6881.2	
716.1	5223.7	
716.28	5840.1	
716.47	4972.5	
716.65	5836.7	
716.83	5811.5	
717.01	4825	
717.19	4831.8	
717.38	7606.8	
717.56	5492.7	
717.74	4936.3	
717.92	4272.7	
718.1	6562.4	
718.29	5793.7	
718.47	3960.1	
718.65	4470.7	
718.83	6492.1	
719.01	6361.7	
719.2	3807.2	
719.38	4773.8	
719.56	6163	
719.74	7471	
719.92	4455	
720.11	5337.7	
720.29	6283.2	
720.47	5489.2	
720.65	4023.6	
720.83	4833.2	
721.02	5773.2	
721.2	5586.9	
721.38	4855.7	
721.56	4203.1	
721.74	5167	
721.92	5344.5	
722.11	5305.6	
722.29	4986.8	
722.47	6328.9	
722.65	5647.6	
722.83	4182	
723.01	4980.7	
723.2	5672.9	
723.38	5938.4	
723.56	3720.5	
723.74	4702.8	
723.92	5228.5	
724.1	6227.2	
724.29	4169.7	
724.47	5076.9	
724.65	5362.3	
724.83	5250.3	
725.01	4032.5	
725.19	4724	
725.37	5325.4	
725.56	5311.1	
725.74	3930.7	
725.92	4119.8	
726.1	5259.9	
726.28	5519.3	
726.46	4480.3	
726.64	4207.2	
726.83	5537.7	
727.01	5714.5	
727.19	3882.3	
727.37	4530.1	
727.55	5671.5	
727.73	6035.4	
727.91	3849.5	
728.09	3710.9	
728.28	6070.2	
728.46	6351.4	
728.64	4581.3	
728.82	4609.3	
729	6836.8	
729.18	6214.9	
729.36	3838.6	
729.54	5917.9	
729.72	7102.4	
729.91	5625.8	
730.09	5510.4	
730.27	4407.9	
730.45	5547.3	
730.63	6116.6	
730.81	4926	
730.99	4147.1	
731.17	6496.8	
731.35	5322.7	
731.53	4578.6	
731.71	4296.6	
731.9	6276.3	
732.08	6400.6	
732.26	4412	
732.44	4171.7	
732.62	6542.6	
732.8	6078.4	
732.98	4764.9	
733.16	3945.1	
733.34	6092	
733.52	4953.4	
733.7	4412	
733.88	4672.1	
734.07	5862.7	
734.25	5601.9	
734.43	4044.7	
734.61	5268.7	
734.79	6949.4	
734.97	5596.4	
735.15	4040.6	
735.33	4306.2	
735.51	5889.3	
735.69	5582.1	
735.87	5215.5	
736.05	4525.3	
736.23	5592.3	
736.41	5464	
736.59	4385.4	
736.77	4398.4	
736.95	6053.1	
737.13	5584.8	
737.32	4060.4	
737.5	4203.1	
737.68	6525.5	
737.86	5482.4	
738.04	3840.6	
738.22	5526.1	
738.4	5311.7	
738.58	5577.3	
738.76	4384	
738.94	3567.6	
739.12	5400.5	
739.3	5302.9	
739.48	4894	
739.66	4608.6	
739.84	5586.2	
740.02	5623.7	
740.2	3615.3	
740.38	3887	
740.56	5904.3	
740.74	4954	
740.92	4449.6	
741.1	4350.6	
741.28	5431.9	
741.46	5270.8	
741.64	4069.3	
741.82	4524.6	
742	5498.8	
742.18	5378.6	
742.36	4192.9	
742.54	3878.9	
742.72	5939.8	
742.9	4938.3	
743.08	4533.5	
743.26	3484.3	
743.44	6062	
743.62	5958.9	
743.8	4719.9	
743.98	3903.4	
744.16	5745.9	
744.34	5433.3	
744.52	4557.4	
744.7	4520.5	
744.88	5914.5	
745.06	5444.2	
745.24	4650.3	
745.42	4821.6	
745.6	5947.3	
745.78	5730.2	
745.96	3634.5	
746.14	3918.4	
746.32	6683.9	
746.5	5887.2	
746.68	4396.3	
746.86	3963.5	
747.03	6272.9	
747.21	4876.2	
747.39	4433.2	
747.57	3999.7	
747.75	5583.4	
747.93	5911.1	
748.11	3944.4	
748.29	3828.3	
748.47	6963.8	
748.65	5365	
748.83	4574.5	
749.01	4304.8	
749.19	5820.3	
749.37	5055.1	
749.55	4242.7	
749.73	4299.4	
749.91	5537	
750.09	5285.1	
750.26	4295.3	
750.44	3778.5	
750.62	5500.2	
750.8	5466	
750.98	3714.3	
751.16	3898.6	
751.34	5553.4	
751.52	5021.6	
751.7	4596.3	
751.88	3591.5	
752.06	5975.3	
752.24	5776	
752.42	3611.9	
752.59	3910.9	
752.77	5491.3	
752.95	6468.2	
753.13	4508.3	
753.31	3991.5	
753.49	5208	
753.67	5587.5	
753.85	4311.7	
754.03	3887	
754.21	5803.9	
754.38	6107	
754.56	4074.8	
754.74	3269.2	
754.92	5184.8	
755.1	5855.1	
755.28	3402.4	
755.46	3424.9	
755.64	6560.3	
755.82	6690.7	
755.99	3782.6	
756.17	3898.6	
756.35	4570.4	
756.53	5937.1	
756.71	2919	
756.89	3726.6	
757.07	5502.9	
757.25	4745.8	
757.42	4200.4	
757.6	4829.1	
757.78	5558.2	
757.96	4700.1	
758.14	3887	
758.32	3459	
758.5	4354.7	
758.67	5118.6	
758.85	3740.3	
759.03	3842.7	
759.21	5215.5	
759.39	4769	
759.57	3350.5	
759.75	4370.4	
759.92	5758.2	
760.1	5236	
760.28	4604.5	
760.46	4770.4	
760.64	4936.3	
760.82	4727.4	
760.99	4541	
761.17	3743	
761.35	5642.2	
761.53	4719.9	
761.71	3841.3	
761.89	4486.4	
762.06	5492.7	
762.24	5041.4	
762.42	3934.8	
762.6	3752.6	
762.78	5014.1	
762.96	5589.6	
763.13	4203.1	
763.31	3886.4	
763.49	5698.8	
763.67	4923.3	
763.85	4620.9	
764.02	5051	
764.2	5906.3	
764.38	5240.1	
764.56	3834.5	
764.74	4582.7	
764.91	6034	
765.09	5056.4	
765.27	3650.8	
765.45	3441.3	
765.63	6109.1	
765.8	5916.6	
765.98	3149.1	
766.16	3484.3	
766.34	4740.4	
766.52	4501.4	
766.69	4289.8	
766.87	3297.9	
767.05	5057.8	
767.23	5743.2	
767.41	3611.3	
767.58	3828.3	
767.76	5610.1	
767.94	5634.6	
768.12	3693.9	
768.29	4317.8	
768.47	5171.1	
768.65	5825.8	
768.83	3362.8	
769	4353.3	
769.18	4835.9	
769.36	5436	
769.54	4342.4	
769.72	3460.4	
769.89	5709.7	
770.07	5750.7	
770.25	3721.2	
770.43	4811.4	
770.6	6343.9	
770.78	6713.9	
770.96	3872.7	
771.14	4418.2	
771.31	5621.7	
771.49	4995.7	
771.67	3174.4	
771.85	3405.8	
772.02	4422.2	
772.2	5036.6	
772.38	4037.2	
772.55	3594.2	
772.73	5330.9	
772.91	5186.1	
773.09	3888.4	
773.26	4001	
773.44	5299.5	
773.62	5012.1	
773.8	3561.4	
773.97	3303.4	
774.15	5345.9	
774.33	5024.3	
774.5	3406.5	
774.68	3796.9	
774.86	5411.4	
775.04	5048.2	
775.21	3533.4	
775.39	3480.2	
775.57	5322.7	
775.74	5542.5	
775.92	3387.3	
776.1	3300	
776.27	5264.6	
776.45	6343.9	
776.63	3510.9	
776.81	3131.3	
776.98	4956.1	
777.16	5864.7	
777.34	3654.9	
777.51	3870.7	
777.69	4995	
777.87	4764.9	
778.04	3662.5	
778.22	4209.9	
778.4	4822.3	
778.57	5358.9	
778.75	3077.4	
778.93	3349.1	
779.1	4628.4	
779.28	4480.3	
779.46	3093.1	
779.64	3442	
779.81	5534.3	
779.99	6257.2	
780.17	4227.7	
780.34	4337.6	
780.52	5100.1	
780.69	5230.5	
780.87	3832.4	
781.05	3426.9	
781.22	5119.2	
781.4	5040.1	
781.58	3564.1	
781.75	2828.9	
781.93	5190.9	
782.11	4637.3	
782.28	4317.8	
782.46	3557.3	
782.64	4478.2	
782.81	5302.9	
782.99	3654.9	
783.17	3625.6	
783.34	5249.6	
783.52	4556	
783.69	3732.8	
783.87	4408.6	
784.05	4657.1	
784.22	4642.1	
784.4	4496	
784.58	3908.9	
784.75	5473.5	
784.93	4711.7	
785.1	3545	
785.28	4121.2	
785.46	5245.5	
785.63	4609.3	
785.81	3514.3	
785.99	3443.3	
786.16	4823	
786.34	5112.4	
786.51	3488.4	
786.69	3843.4	
786.87	4413.4	
787.04	4873.5	
787.22	3369.6	
787.39	4166.3	
787.57	4663.2	
787.75	5590.3	
787.92	4278.2	
788.1	4260.5	
788.27	4715.1	
788.45	4460.5	
788.63	4059.1	
788.8	2919	
788.98	5185.5	
789.15	4419.5	
789.33	3087.7	
789.5	3591.5	
789.68	5439.4	
789.86	5554.8	
790.03	3958	
790.21	3474	
790.38	5516.5	
790.56	4774.5	
790.73	3403	
790.91	3403	
791.09	4668	
791.26	5349.3	
791.44	3558	
791.61	3133.4	
791.79	4643.4	
791.96	4735.6	
792.14	3223.5	
792.32	2818.7	
792.49	4711.7	
792.67	4829.1	
792.84	3252.9	
793.02	3091.1	
793.19	5059.8	
793.37	5701.5	
793.54	2845.3	
793.72	3092.4	
793.89	5748.6	
794.07	4685.8	
794.25	3563.5	
794.42	2926.5	
794.6	5613.5	
794.77	5283.1	
794.95	3944.4	
795.12	3412.6	
795.3	4670.1	
795.47	5184.1	
795.65	3792.2	
795.82	3618.8	
796	4503.5	
796.17	6113.9	
796.35	3546.4	
796.52	4131.4	
796.7	5177.9	
796.87	5302.2	
797.05	3532.7	
797.22	4254.3	
797.4	5255.1	
797.57	6055.2	
797.75	3629	
797.92	3426.3	
798.1	5453.1	
798.27	4595.6	
798.45	2981.2	
798.62	3125.2	
798.8	4985.4	
798.97	5333.6	
799.15	3842.7	
799.32	3670.6	
799.5	4349.9	
799.67	5000.5	
799.85	3934.8	
800.02	2925.2	
800.2	4656.4	
800.37	4928.1	
800.55	4099.4	
800.72	3459.7	
800.9	5380.7	
801.07	5654.4	
801.25	4612.7	
801.42	3777.8	
801.6	5398.4	
801.77	5100.1	
801.95	3525.9	
802.12	3354.6	
802.29	5123.3	
802.47	5094.7	
802.64	3749.1	
802.82	2826.9	
802.99	4642.1	
803.17	5464	
803.34	3706.1	
803.52	3276.1	
803.69	6068.8	
803.87	4460.5	
804.04	3645.4	
804.21	3672	
804.39	5571.2	
804.56	4816.8	
804.74	3098.6	
804.91	3770.3	
805.09	4672.1	
805.26	4742.4	
805.44	3196.2	
805.61	3482.9	
805.78	5274.9	
805.96	5307.7	
806.13	3755.3	
806.31	4060.4	
806.48	4283	
806.66	4704.2	
806.83	3760.8	
807	3673.4	
807.18	4650.9	
807.35	5002.5	
807.53	3650.2	
807.7	3002.3	
807.87	5684.5	
808.05	4692.6	
808.22	4023.6	
808.4	3001	
808.57	4689.8	
808.74	4392.2	
808.92	3383.2	
809.09	4265.9	
809.27	4646.2	
809.44	5124	
809.61	3027.6	
809.79	3339.6	
809.96	5763	
810.14	5345.2	
810.31	2919	
810.48	3620.1	
810.66	4768.4	
810.83	5396.4	
811.01	3358	
811.18	3745.7	
811.35	5346.6	
811.53	4162.8	
811.7	4082.3	
811.87	3789.4	
812.05	4775.2	
812.22	4706.2	
812.39	3270.6	
812.57	3194.1	
812.74	4713.7	
812.92	6139.1	
813.09	3521.1	
813.26	3843.4	
813.44	5894.7	
813.61	4628.4	
813.78	2962	
813.96	3919.1	
814.13	4749.2	
814.3	4453.6	
814.48	4269.3	
814.65	3556.6	
814.82	5967.8	
815	4501.4	
815.17	3622.2	
815.34	4395.6	
815.52	4631.1	
815.69	4607.2	
815.87	3594.2	
816.04	3530.7	
816.21	4751.3	
816.38	4205.8	
816.56	3494.5	
816.73	3287	
816.9	5890.6	
817.08	5314.5	
817.25	3331.4	
817.42	4106.2	
817.6	4332.8	
817.77	4689.2	
817.94	3665.9	
818.12	3264.5	
818.29	4499.4	
818.46	6786.3	
818.64	3397.6	
818.81	3210.5	
818.98	4463.2	
819.16	6247	
819.33	3960.1	
819.5	3622.2	
819.67	5038.7	
819.85	5568.4	
820.02	3596.2	
820.19	3724.6	
820.37	4898.7	
820.54	4620.2	
820.71	3704.8	
820.88	4514.4	
821.06	4899.4	
821.23	4527.4	
821.4	3721.2	
821.58	3646.7	
821.75	5304.2	
821.92	4860.5	
822.09	2981.2	
822.27	3080.1	
822.44	4746.5	
822.61	4675.5	
822.79	3009.1	
822.96	5653.1	
823.13	5137	
823.3	4468.7	
823.48	3451.5	
823.65	3096.5	
823.82	5292.6	
823.99	4313.7	
824.17	4372.4	
824.34	3152.5	
824.51	6124.1	
824.68	4774.5	
824.86	3275.4	
825.03	3697.9	
825.2	4689.2	
825.37	5610.8	
825.55	3312.9	
825.72	3648.1	
825.89	6093.4	
826.06	5748	
826.24	3551.2	
826.41	3524.6	
826.58	5662	
826.75	4951.3	
826.92	2873.3	
827.1	3149.1	
827.27	7580.2	
827.44	6053.8	
827.61	3388	
827.79	3990.1	
827.96	4515.8	
828.13	4728.8	
828.3	3507.5	
828.47	2960	
828.65	4952.7	
828.82	4831.2	
828.99	4543.8	
829.16	3938.9	
829.34	5292.6	
829.51	5086.5	
829.68	3609.2	
829.85	3757.3	
830.02	5580	
830.2	5246.9	
830.37	2911.5	
830.54	4332.8	
830.71	5957.5	
830.88	4747.9	
831.05	2845.3	
831.23	3311.6	
831.4	5773.2	
831.57	6375.3	
831.74	3366.9	
831.91	2944.3	
832.09	5008	
832.26	5261.9	
832.43	3429.7	
832.6	3884.3	
832.77	4972.5	
832.94	5599.8	
833.12	2802.3	
833.29	3418.1	
833.46	4613.4	
833.63	6525.5	
833.8	3830.4	
833.97	3500	
834.15	5304.2	
834.32	5038.7	
834.49	3606.5	
834.66	3740.3	
834.83	5442.1	
835	4510.3	
835.17	3388	
835.35	3396.2	
835.52	5229.8	
835.69	5091.3	
835.86	3554.6	
836.03	2953.9	
836.2	5256.5	
836.37	4934.2	
836.55	3465.8	
836.72	3265.1	
836.89	4911.7	
837.06	5326.8	
837.23	3534.8	
837.4	3897.3	
837.57	5932.3	
837.75	6531	
837.92	3239.9	
838.09	3418.7	
838.26	4856.4	
838.43	5493.3	
838.6	3622.9	
838.77	3267.9	
838.94	6217.6	
839.11	5991	
839.29	3499.3	
839.46	2763.4	
839.63	5255.1	
839.8	4980.7	
839.97	3407.1	
840.14	3408.5	
840.31	5104.9	
840.48	5287.2	
840.65	2886.3	
840.82	3329.3	
841	5281	
841.17	5171.1	
841.34	3057.6	
841.51	3211.2	
841.68	5122	
841.85	4993.6	
842.02	3220.8	
842.19	2707.4	
842.36	5042.8	
842.53	5033.2	
842.7	3114.3	
842.87	3754.6	
843.05	6479.1	
843.22	4941.1	
843.39	2998.9	
843.56	3230.3	
843.73	4824.3	
843.9	5393.7	
844.07	4934.2	
844.24	4173.1	
844.41	7422.5	
844.58	4607.2	
844.75	3037.8	
844.92	3277.4	
845.09	5200.5	
845.26	5203.2	
845.43	3103.4	
845.6	3275.4	
845.77	5236	
845.94	4977.9	
846.12	3452.9	
846.29	3652.2	
846.46	5419.6	
846.63	5276.9	
846.8	3114.3	
846.97	3660.4	
847.14	5625.1	
847.31	5227.1	
847.48	3510.9	
847.65	3841.3	
847.82	5485.8	
847.99	5446.2	
848.16	4113	
848.33	3851.5	
848.5	4807.9	
848.67	5674.9	
848.84	3075.4	
849.01	3241.9	
849.18	4784.7	
849.35	4465.9	
849.52	3818.8	
849.69	3062.4	
849.86	5467.4	
850.03	5568.4	
850.2	3185.3	
850.37	3784	
850.54	5498.8	
850.71	4952	
850.88	3693.9	
851.05	3053.5	
851.22	5168.4	
851.39	5727.5	
851.56	2917.7	
851.73	3579.8	
851.9	4603.2	
852.07	5399.8	
852.24	3485	
852.41	3104.7	
852.58	5154.7	
852.75	4736.3	
852.92	3422.8	
853.09	3028.3	
853.26	4844.1	
853.43	5622.4	
853.6	3099.3	
853.77	2689	
853.94	5719.3	
854.11	5134.3	
854.28	4536.3	
854.44	3375.1	
854.61	6079.1	
854.78	5522	
854.95	3039.9	
855.12	3861.1	
855.29	4271.4	
855.46	5696.1	
855.63	3101.3	
855.8	4228.4	
855.97	4840	
856.14	5537	
856.31	4289.8	
856.48	3363.4	
856.65	4887.1	
856.82	4655	
856.99	2974.3	
857.16	3336.8	
857.33	6274.3	
857.49	4960.9	
857.66	3336.8	
857.83	3596.2	
858	4930.8	
858.17	5126.1	
858.34	2980.5	
858.51	3108.8	
858.68	5823.1	
858.85	5820.3	
859.02	3579.2	
859.19	3830.4	
859.36	4666	
859.52	4647.5	
859.69	3090.4	
859.86	3658.4	
860.03	4663.2	
860.2	5698.1	
860.37	2798.2	
860.54	3139.5	
860.71	5420.3	
860.88	5791.7	
861.05	3480.9	
861.21	3918.4	
861.38	5810.1	
861.55	4483	
861.72	2876.7	
861.89	3472.7	
862.06	5431.9	
862.23	5893.4	
862.4	2998.9	
862.56	3224.9	
862.73	5287.2	
862.9	5085.1	
863.07	3584.6	
863.24	2841.9	
863.41	4588.1	
863.58	4674.8	
863.75	3174.4	
863.91	3590.8	
864.08	5749.3	
864.25	5357.5	
864.42	3859.1	
864.59	4278.2	
864.76	6018.3	
864.93	4650.3	
865.09	2991.4	
865.26	3295.9	
865.43	5602.6	
865.6	5955.5	
865.77	2713.6	
865.94	3031.7	
866.1	5681.7	
866.27	5385.5	
866.44	4560.8	
866.61	2908.8	
866.78	5023.7	
866.95	5328.8	
867.11	3016	
867.28	2798.9	
867.45	5580.7	
867.62	4668	
867.79	3636.5	
867.96	3078.8	
868.12	4679.6	
868.29	5397.1	
868.46	2677.4	
868.63	4045.4	
868.8	5567.1	
868.97	5399.1	
869.13	3230.3	
869.3	3246.7	
869.47	5311.7	
869.64	5507	
869.81	3081.5	
869.97	3087.7	
870.14	5193.6	
870.31	5773.9	
870.48	3030.3	
870.65	3848.8	
870.81	4945.2	
870.98	4990.9	
871.15	3504.8	
871.32	3244	
871.48	5269.4	
871.65	5842.2	
871.82	3123.8	
871.99	3371	
872.16	6202.6	
872.32	5614.2	
872.49	3170.3	
872.66	3110.2	
872.83	5454.4	
872.99	4797	
873.16	3537.5	
873.33	3097.9	
873.5	5137	
873.67	5107	
873.83	3267.9	
874	4084.3	
874.17	5233.9	
874.34	6096.8	
874.5	3991.5	
874.67	3839.3	
874.84	5715.2	
875.01	4583.4	
875.17	4313.7	
875.34	3068.5	
875.51	5152.7	
875.68	6128.2	
875.84	3741	
876.01	4453.6	
876.18	5376.6	
876.34	5373.9	
876.51	3102	
876.68	3065.8	
876.85	4954.7	
877.01	5664.7	
877.18	4369	
877.35	3087.7	
877.52	5131.5	
877.68	4607.2	
877.85	3093.8	
878.02	3072	
878.18	5023	
878.35	4764.3	
878.52	2497.8	
878.69	3408.5	
878.85	5478.3	
879.02	5372.5	
879.19	4265.2	
879.35	3358	
879.52	5414.1	
879.69	5541.1	
879.86	2672.6	
880.02	3478.8	
880.19	5002.5	
880.36	6098.9	
880.52	3535.5	
880.69	3650.8	
880.86	5424.4	
881.02	5530.9	
881.19	3338.9	
881.36	3307.5	
881.52	5353.4	
881.69	4825.7	
881.86	3398.9	
882.02	3265.8	
882.19	5627.1	
882.36	6438.1	
882.52	3204.4	
882.69	4315.8	
882.86	5233.9	
883.02	5184.1	
883.19	3784.6	
883.36	3568.9	
883.52	5440.1	
883.69	6188.3	
883.86	3137.5	
884.02	2848.7	
884.19	5492.7	
884.36	5113.8	
884.52	3494.5	
884.69	3283.6	
884.86	4845.5	
885.02	5885.2	
885.19	3467.2	
885.36	3562.8	
885.52	5022.3	
885.69	5227.1	
885.86	4395.6	
886.02	3947.1	
886.19	5399.1	
886.35	4906.9	
886.52	3435.8	
886.69	4225.6	
886.85	4690.5	
887.02	5766.4	
887.19	5766.4	
887.35	5766.4	
887.52	5766.4	
887.68	5766.4	
887.85	5766.4	
888.02	5766.4	
888.18	5766.4	
888.35	5766.4	
888.51	5766.4	
888.68	5766.4	
888.85	5766.4	
889.01	5766.4	
889.18	5766.4	
889.35	5766.4	
889.51	5766.4	
889.68	5766.4	
889.84	5766.4	
890.01	5766.4	
890.17	5766.4	
890.34	5766.4	
890.51	5766.4	
890.67	5766.4	
890.84	5766.4	
891	5766.4	
891.17	5766.4	
891.34	5766.4	
891.5	5766.4	
891.67	5766.4	
891.83	5766.4	
892	5766.4	
892.16	5766.4	
892.33	5766.4	
892.5	5766.4	
892.66	5766.4	
892.83	5766.4	
892.99	5766.4	
893.16	5766.4	
893.32	5766.4	
893.49	5766.4	
893.65	5766.4	
893.82	5766.4	
893.99	5766.4	
894.15	5766.4	
894.32	5766.4	
894.48	5766.4	
894.65	5766.4	
894.81	5766.4	
894.98	5766.4	
895.14	5766.4	
895.31	5766.4	
895.47	5766.4	
895.64	5766.4	
895.81	5766.4	
895.97	5766.4	
896.14	5766.4	
896.3	5766.4	
896.47	5766.4	
896.63	5766.4	
896.8	5766.4	
896.96	5766.4	
897.13	5766.4	
897.29	5766.4	
897.46	5766.4	
897.62	5766.4	
897.79	5766.4	
897.95	5766.4	
898.12	5766.4	
898.28	5766.4	
898.45	5766.4	
898.61	5766.4	
898.78	5766.4	
898.94	5766.4	
899.11	5766.4	
899.27	5766.4	
899.44	5766.4	
899.6	5766.4	
899.77	5766.4	
899.93	5766.4	
900.1	5766.4	
900.26	5766.4	
900.43	5766.4	
900.59	5766.4	
900.76	5766.4	
900.92	5766.4	
901.09	5766.4	
901.25	5766.4	
901.42	5766.4	
901.58	5766.4	
901.75	5766.4	
901.91	5766.4	
902.07	5766.4	
902.24	5766.4	
902.4	5766.4	
902.57	5766.4	
902.73	5766.4	
902.9	5766.4	
903.06	5766.4	
903.23	5766.4	
903.39	5766.4	
903.56	5766.4	
903.72	5766.4	
903.88	5766.4	
904.05	5766.4	
904.21	5766.4	
904.38	5766.4	
904.54	5766.4	
904.71	5766.4	
904.87	5766.4	
905.03	5766.4	
905.2	5766.4	
905.36	5766.4	
905.53	5766.4	
905.69	5766.4	
905.86	5766.4	
906.02	5766.4	
906.18	5766.4	
906.35	5766.4	
906.51	5766.4	
906.68	5766.4	
906.84	5766.4	
907.01	5766.4	
907.17	5766.4	
907.33	5766.4	
907.5	5766.4	
907.66	5766.4	
907.83	5766.4	
907.99	5766.4	
908.15	5766.4	
908.32	5766.4	
908.48	5766.4	
908.65	5766.4	
908.81	5766.4	
908.97	5766.4	
909.14	5766.4	
909.3	5766.4	
909.47	5766.4	
909.63	5766.4	
909.79	5766.4	
909.96	5766.4	
910.12	5766.4	
910.28	5766.4	
910.45	5766.4	
910.61	5766.4	
910.78	5766.4	
910.94	5766.4	
911.1	5766.4	
911.27	5766.4	
911.43	5766.4	
911.59	5766.4	
911.76	5766.4	
911.92	5766.4	
912.08	5766.4	
912.25	5766.4	
912.41	5766.4	
912.57	5766.4	
912.74	5766.4	
912.9	5766.4	
913.07	5766.4	
913.23	5766.4	
913.39	5766.4	
913.56	5766.4	
913.72	5766.4	
913.88	5766.4	
914.05	5766.4	
914.21	5766.4	
914.37	5766.4	
914.54	5766.4	
914.7	5766.4	
914.86	5766.4	
915.03	5766.4	
915.19	5766.4	
