Wavelength	Intensities	
nm	a.u.	
179.22	1732.4	
179.44	1719.3	
179.65	1745.6	
179.86	1693	
180.08	1718.2	
180.29	3995.6	
180.51	3041.9	
180.72	5006.6	
180.94	5582.1	
181.15	2764.1	
181.37	2727.9	
181.58	4821.6	
181.79	5019.6	
182.01	2884.9	
182.22	3056.9	
182.44	5071.5	
182.65	4340.3	
182.87	3713.6	
183.08	3401	
183.29	5309.7	
183.51	4401.8	
183.72	3051.5	
183.94	4179.9	
184.15	4791.6	
184.37	4709.6	
184.58	2697.9	
184.79	3545.7	
185.01	4493.9	
185.22	5109.7	
185.44	3708.2	
185.65	3235.8	
185.86	4767.7	
186.08	4364.2	
186.29	2669.9	
186.51	2813.9	
186.72	4558.8	
186.94	5173.2	
187.15	3278.8	
187.36	3350.5	
187.58	6477	
187.79	4864.6	
188.01	3398.9	
188.22	5086.5	
188.43	5696.1	
188.65	5024.3	
188.86	2833	
189.08	3312.2	
189.29	4609.3	
189.5	4601.1	
189.72	3089	
189.93	3112.2	
190.15	5194.3	
190.36	5982.1	
190.57	3320.4	
190.79	3220.8	
191	5222.3	
191.22	5207.3	
191.43	3400.3	
191.64	2883.5	
191.86	5399.1	
192.07	5210	
192.29	2918.4	
192.5	3048.7	
192.71	5191.6	
192.93	4621.6	
193.14	3031.7	
193.35	3144.3	
193.57	4568.3	
193.78	5206.6	
194	2547	
194.21	3009.8	
194.42	4470.7	
194.64	4803.9	
194.85	3290.4	
195.07	3796.9	
195.28	4840.7	
195.49	4227	
195.71	3972.4	
195.92	2894.5	
196.13	4956.8	
196.35	4973.8	
196.56	4210.6	
196.78	3310.2	
196.99	5997.8	
197.2	5620.3	
197.42	3668.6	
197.63	3414.6	
197.84	4283.7	
198.06	5008	
198.27	3029.6	
198.48	3946.4	
198.7	4618.9	
198.91	4768.4	
199.13	3322.5	
199.34	3340.9	
199.55	5192.3	
199.77	4130.8	
199.98	2932.7	
200.19	3371.6	
200.41	4693.3	
200.62	4519.2	
200.83	3403.7	
201.05	3661.1	
201.26	4743.8	
201.47	4512.4	
201.69	2997.5	
201.9	2902.7	
202.11	4756.1	
202.33	5506.3	
202.54	3126.6	
202.76	3512.3	
202.97	4808.6	
203.18	4906.9	
203.4	3442	
203.61	3426.3	
203.82	4858.5	
204.04	4521.2	
204.25	3326.6	
204.46	3268.6	
204.68	4757.4	
204.89	4945.2	
205.1	3264.5	
205.32	2867.2	
205.53	5039.4	
205.74	5214.8	
205.96	2495.8	
206.17	3336.8	
206.38	5033.2	
206.6	5210.7	
206.81	3775.8	
207.02	3100.6	
207.24	4939	
207.45	5231.2	
207.66	3173	
207.88	2775.7	
208.09	4948.6	
208.3	4775.9	
208.52	3013.2	
208.73	3215.3	
208.94	4788.8	
209.15	5362.9	
209.37	3238.5	
209.58	3557.3	
209.79	5161.6	
210.01	4682.3	
210.22	2633.7	
210.43	2775	
210.65	4749.2	
210.86	5069.4	
211.07	3175	
211.29	2922.5	
211.5	4952.7	
211.71	4743.1	
211.93	2997.5	
212.14	2962.7	
212.35	4772.4	
212.56	4782.7	
212.78	3339.6	
212.99	2803.7	
213.2	5446.2	
213.42	4618.9	
213.63	3067.9	
213.84	3211.2	
214.06	4373.1	
214.27	4366.3	
214.48	3194.8	
214.69	3345	
214.91	5260.5	
215.12	5340.4	
215.33	3368.2	
215.55	3701.4	
215.76	5774.6	
215.97	5033.9	
216.18	3310.2	
216.4	3277.4	
216.61	4515.1	
216.82	5134.3	
217.04	2981.8	
217.25	3083.6	
217.46	5198.4	
217.67	5049.6	
217.89	2736.8	
218.1	2794.8	
218.31	4805.2	
218.53	4905.6	
218.74	3121.8	
218.95	3016	
219.16	4728.8	
219.38	5408	
219.59	3022.8	
219.8	3566.9	
220.01	5928.2	
220.23	4804.5	
220.44	3803.8	
220.65	2936.8	
220.87	4804.5	
221.08	5276.9	
221.29	2801.6	
221.5	3597.6	
221.72	6191	
221.93	4501.4	
222.14	3322.5	
222.35	3907.5	
222.57	4717.2	
222.78	5059.8	
222.99	3217.4	
223.2	3399.6	
223.42	4980.7	
223.63	5098.8	
223.84	2586.6	
224.05	2550.4	
224.27	5831.9	
224.48	5410.1	
224.69	3865.2	
224.9	3405.1	
225.12	4920.6	
225.33	4745.8	
225.54	2713.6	
225.75	3039.9	
225.97	4440.7	
226.18	4689.2	
226.39	3202.3	
226.6	2979.1	
226.82	4565.6	
227.03	4460.5	
227.24	3315.7	
227.45	2815.3	
227.67	5081	
227.88	5416.2	
228.09	3663.1	
228.3	3639.2	
228.52	5091.3	
228.73	4726.7	
228.94	3106.8	
229.15	2798.9	
229.36	4741.7	
229.58	4741	
229.79	3153.2	
230	3630.4	
230.21	5565.7	
230.43	4818.2	
230.64	3287	
230.85	3435.8	
231.06	5100.1	
231.28	5122	
231.49	2824.8	
231.7	3255.6	
231.91	5041.4	
232.12	4774.5	
232.34	2908.8	
232.55	3248.1	
232.76	5262.6	
232.97	4928.8	
233.18	2964.1	
233.4	3354.6	
233.61	4980.7	
233.82	4564.2	
234.03	3135.4	
234.25	3024.2	
234.46	6311.8	
234.67	4820.2	
234.88	3412.6	
235.09	3024.8	
235.31	4919.2	
235.52	4659.1	
235.73	3274.7	
235.94	2818.7	
236.15	4616.1	
236.37	5606.7	
236.58	2913.6	
236.79	3245.3	
237	5055.1	
237.21	4390.2	
237.43	3419.4	
237.64	2803.7	
237.85	7864.9	
238.06	4475.5	
238.27	3442	
238.48	2843.9	
238.7	5050.3	
238.91	4663.2	
239.12	3184.6	
239.33	3248.8	
239.54	4628.4	
239.76	4698	
239.97	3161.4	
240.18	3273.3	
240.39	5767.8	
240.6	4945.2	
240.82	3373	
241.03	2823.5	
241.24	4711.7	
241.45	5388.2	
241.66	2977.7	
241.87	3448.8	
242.09	5356.1	
242.3	5564.3	
242.51	3482.9	
242.72	3194.8	
242.93	5126.7	
243.14	4777.9	
243.36	3652.2	
243.57	3887	
243.78	5389.6	
243.99	5091.9	
244.2	3222.1	
244.41	2925.2	
244.63	4460.5	
244.84	4947.9	
245.05	3381.2	
245.26	3198.9	
245.47	5019.6	
245.68	5160.2	
245.9	4119.8	
246.11	3315	
246.32	4633.2	
246.53	4976.6	
246.74	5031.9	
246.95	2793.4	
247.16	4448.2	
247.38	4801.1	
247.59	2723.8	
247.8	3226.2	
248.01	4450.2	
248.22	4735.6	
248.43	2970.9	
248.64	3148.4	
248.86	4309.6	
249.07	4591.5	
249.28	2911.5	
249.49	3280.8	
249.7	5232.6	
249.91	5217.5	
250.12	2719	
250.34	2776.4	
250.55	4833.9	
250.76	4755.4	
250.97	3295.9	
251.18	3390.8	
251.39	5312.4	
251.6	4915.1	
251.81	3371.6	
252.03	3328.6	
252.24	4671.4	
252.45	5128.8	
252.66	2817.3	
252.87	3550.5	
253.08	4768.4	
253.29	5954.1	
253.5	2913.6	
253.72	3865.9	
253.93	4693.9	
254.14	5496.1	
254.35	3063.1	
254.56	3082.2	
254.77	4890.5	
254.98	4444.8	
255.19	3057.6	
255.41	3779.9	
255.62	4891.2	
255.83	5274.9	
256.04	3437.2	
256.25	3375.1	
256.46	5692.7	
256.67	4513	
256.88	3321.1	
257.09	3634.5	
257.31	4485.7	
257.52	4544.4	
257.73	4145.1	
257.94	3082.2	
258.15	4720.6	
258.36	4760.8	
258.57	3717.7	
258.78	2527.2	
258.99	5117.2	
259.2	4620.2	
259.41	3066.5	
259.63	3164.1	
259.84	5358.9	
260.05	5717.2	
260.26	3917.1	
260.47	3025.5	
260.68	5215.5	
260.89	4685.8	
261.1	3610.6	
261.31	2929.3	
261.52	5184.1	
261.73	5552	
261.95	3909.6	
262.16	3438.5	
262.37	5309.7	
262.58	5374.6	
262.79	3923.9	
263	3135.4	
263.21	4837.3	
263.42	4644.1	
263.63	3407.1	
263.84	3122.5	
264.05	5128.8	
264.26	5487.2	
264.47	3751.2	
264.69	3338.2	
264.9	5335.6	
265.11	4941.7	
265.32	2951.1	
265.53	3003.7	
265.74	4937.7	
265.95	4259.8	
266.16	3280.2	
266.37	3573.7	
266.58	4859.1	
266.79	4635.9	
267	3069.9	
267.21	2870.6	
267.42	4505.5	
267.63	4719.2	
267.84	3207.1	
268.06	2794.1	
268.27	5118.6	
268.48	5341.8	
268.69	3173.7	
268.9	3627	
269.11	5295.4	
269.32	4351.9	
269.53	3255.6	
269.74	2973	
269.95	4974.5	
270.16	4308.2	
270.37	3228.3	
270.58	3661.8	
270.79	4663.2	
271	5111	
271.21	3390.8	
271.42	3274.7	
271.63	4917.9	
271.84	4418.2	
272.05	2637.8	
272.26	2879.4	
272.47	4733.5	
272.68	4896.7	
272.89	3138.2	
273.11	3490.4	
273.32	4582	
273.53	5487.9	
273.74	3396.2	
273.95	3350.5	
274.16	5215.5	
274.37	4773.1	
274.58	3495.2	
274.79	2897.9	
275	4874.8	
275.21	5199.8	
275.42	4104.1	
275.63	3613.3	
275.84	5003.2	
276.05	6090	
276.26	3340.9	
276.47	3167.5	
276.68	4683	
276.89	5528.8	
277.1	3565.5	
277.31	2843.9	
277.52	4947.9	
277.73	5175.2	
277.94	2800.3	
278.15	3107.5	
278.36	4939	
278.57	4537.6	
278.78	3090.4	
278.99	3435.1	
279.2	4549.2	
279.41	4449.6	
279.62	4003.8	
279.83	2887	
280.04	5684.5	
280.25	4462.5	
280.46	4027	
280.67	3177.1	
280.88	4493.9	
281.09	5218.9	
281.3	3383.9	
281.51	4118.5	
281.72	4558.1	
281.93	5167.7	
282.14	3033	
282.35	3248.1	
282.56	5197.1	
282.77	5110.4	
282.98	3172.3	
283.19	3702	
283.4	6108.4	
283.61	4702.8	
283.82	2924.5	
284.03	3882.3	
284.24	4925.4	
284.45	5202.5	
284.66	3962.1	
284.87	3658.4	
285.08	5214.8	
285.29	5335	
285.5	2778.4	
285.71	3149.8	
285.92	5209.3	
286.12	5720.7	
286.33	3874.1	
286.54	3175	
286.75	5175.2	
286.96	4664.6	
287.17	2911.5	
287.38	3736.2	
287.59	4545.8	
287.8	4547.9	
288.01	3167.5	
288.22	3583.9	
288.43	5048.9	
288.64	4384.7	
288.85	3675.4	
289.06	3525.9	
289.27	5397.1	
289.48	5451.7	
289.69	3941	
289.9	3584.6	
290.11	5315.2	
290.32	4564.9	
290.53	3693.9	
290.74	3411.2	
290.94	5081	
291.15	5086.5	
291.36	2989.4	
291.57	3538.9	
291.78	4623.6	
291.99	4299.4	
292.2	2930.6	
292.41	3378.5	
292.62	5214.8	
292.83	5017.5	
293.04	4194.2	
293.25	2977.7	
293.46	4644.1	
293.67	5221	
293.88	3018	
294.09	2965.5	
294.29	4461.8	
294.5	4869.4	
294.71	3201	
294.92	3110.9	
295.13	4659.8	
295.34	5595.7	
295.55	2765.4	
295.76	2715.6	
295.97	5068.7	
296.18	5613.5	
296.39	2891	
296.6	2995.5	
296.81	4801.1	
297.01	5051.7	
297.22	3172.3	
297.43	3057.6	
297.64	4593.6	
297.85	4463.9	
298.06	2551.8	
298.27	2779.1	
298.48	4723.3	
298.69	4569.7	
298.9	3272	
299.11	2970.9	
299.31	4444.1	
299.52	4453.6	
299.73	3527.3	
299.94	3386.7	
300.15	4748.6	
300.36	4534.2	
300.57	3403.7	
300.78	3368.9	
300.99	4668	
301.2	4855.7	
301.4	3023.5	
301.61	3239.9	
301.82	5065.3	
302.03	5073.5	
302.24	3600.3	
302.45	2885.6	
302.66	5036.6	
302.87	5337	
303.08	3079.5	
303.29	3966.2	
303.49	4629.1	
303.7	4790.2	
303.91	2779.1	
304.12	3857	
304.33	4361.5	
304.54	4901.5	
304.75	3045.3	
304.96	2918.4	
305.16	5022.3	
305.37	5536.3	
305.58	2719.7	
305.79	2779.1	
306	5035.3	
306.21	4326	
306.42	3048.1	
306.63	4432.5	
306.83	4648.9	
307.04	5095.3	
307.25	3309.5	
307.46	3280.8	
307.67	4279.6	
307.88	5068.7	
308.09	3065.1	
308.29	3101.3	
308.5	4830.5	
308.71	5239.4	
308.92	3241.9	
309.13	2949.1	
309.34	4760.2	
309.55	4682.3	
309.75	3695.9	
309.96	3414.6	
310.17	5139	
310.38	4543.1	
310.59	3577.8	
310.8	3457.7	
311.01	4667.3	
311.21	4700.8	
311.42	2979.8	
311.63	2964.1	
311.84	4595.6	
312.05	4872.8	
312.26	3383.2	
312.46	3608.5	
312.67	4650.9	
312.88	4364.2	
313.09	2908.1	
313.3	2904	
313.51	5441.5	
313.71	5640.8	
313.92	2938.8	
314.13	3125.9	
314.34	4994.3	
314.55	4706.9	
314.76	3664.5	
314.96	3208.5	
315.17	4846.2	
315.38	5049.6	
315.59	3005.1	
315.8	2864.4	
316.01	5394.3	
316.21	5471.5	
316.42	2892.4	
316.63	3237.8	
316.84	4610	
317.05	5246.2	
317.26	3423.5	
317.46	3127.2	
317.67	4781.3	
317.88	5047.6	
318.09	3619.4	
318.3	2796.8	
318.5	4589.5	
318.71	4964.3	
318.92	4590.9	
319.13	3411.2	
319.34	5145.9	
319.54	5237.3	
319.75	2769.5	
319.96	2668.5	
320.17	5016.2	
320.38	5167.7	
320.58	2741.5	
320.79	3201.7	
321	5229.1	
321.21	5263.3	
321.42	3283.6	
321.62	2751.1	
321.83	4509.6	
322.04	4825	
322.25	3119.7	
322.46	2965.5	
322.66	4837.3	
322.87	5056.4	
323.08	3552.5	
323.29	2907.4	
323.5	5575.3	
323.7	4410.6	
323.91	3901.4	
324.12	3494.5	
324.33	4868.7	
324.53	4985.4	
324.74	3342.3	
324.95	3558	
325.16	4428.4	
325.37	4653	
325.57	2925.2	
325.78	3035.8	
325.99	4857.1	
326.2	4383.3	
326.4	4078.9	
326.61	2798.2	
326.82	4692.6	
327.03	4808.6	
327.24	4061.1	
327.44	3757.3	
327.65	4995.7	
327.86	4146.5	
328.07	3435.1	
328.27	2912.2	
328.48	5314.5	
328.69	4453.6	
328.9	4087.1	
329.1	3078.8	
329.31	4683	
329.52	5349.3	
329.73	3011.9	
329.93	3232.4	
330.14	4813.4	
330.35	4943.8	
330.56	4595	
330.76	3553.9	
330.97	4663.9	
331.18	4814.1	
331.39	3218.7	
331.59	2684.2	
331.8	5275.6	
332.01	5336.3	
332.22	3037.8	
332.42	3416	
332.63	4877.6	
332.84	4539.7	
333.05	3263.8	
333.25	2996.9	
333.46	4550.6	
333.67	4756.1	
333.88	3121.1	
334.08	3317.7	
334.29	6184.9	
334.5	5208	
334.7	2913.6	
334.91	4039.3	
335.12	4442	
335.33	5036	
335.53	3244	
335.74	4579.9	
335.95	4658.4	
336.16	4418.2	
336.36	3209.8	
336.57	3618.8	
336.78	4470	
336.98	5180	
337.19	3908.9	
337.4	3202.3	
337.61	5665.4	
337.81	4410	
338.02	3032.4	
338.23	3770.3	
338.43	5347.2	
338.64	4508.9	
338.85	2988.7	
339.05	3797.6	
339.26	5477	
339.47	4363.5	
339.68	2976.4	
339.88	4201.1	
340.09	5017.5	
340.3	5103.5	
340.5	3402.4	
340.71	2707.4	
340.92	4431.1	
341.13	5309.7	
341.33	2836.4	
341.54	3416.7	
341.75	4999.8	
341.95	4710.3	
342.16	3295.2	
342.37	3533.4	
342.57	4469.4	
342.78	4721.3	
342.99	3583.9	
343.19	2740.2	
343.4	5089.2	
343.61	4973.2	
343.81	3142.3	
344.02	2863.7	
344.23	5072.8	
344.43	5338.4	
344.64	3635.1	
344.85	3519.1	
345.06	4999.8	
345.26	5213.4	
345.47	3401	
345.68	3872	
345.88	4321.2	
346.09	5173.9	
346.3	3456.3	
346.5	2649.4	
346.71	4784.1	
346.92	4606.6	
347.12	2790.7	
347.33	3354.6	
347.54	5167	
347.74	5494.7	
347.95	3409.2	
348.16	2632.3	
348.36	4629.1	
348.57	4475.5	
348.78	3380.5	
348.98	3543.7	
349.19	4705.5	
349.39	4344.4	
349.6	2766.1	
349.81	3095.8	
350.01	5059.2	
350.22	4586.1	
350.43	3272.7	
350.63	3834.5	
350.84	4795	
351.05	4610.7	
351.25	3044	
351.46	2748.4	
351.67	5180.7	
351.87	4524.6	
352.08	3209.8	
352.29	3564.8	
352.49	5113.8	
352.7	5200.5	
352.9	2970.2	
353.11	3635.1	
353.32	5579.3	
353.52	4654.4	
353.73	2920.4	
353.94	3639.2	
354.14	5049.6	
354.35	4812	
354.55	3037.8	
354.76	3271.3	
354.97	5006.6	
355.17	4848.2	
355.38	2887.6	
355.59	3829	
355.79	4562.9	
356	4879.6	
356.2	3343	
356.41	2976.4	
356.62	4424.3	
356.82	4810	
357.03	3516.4	
357.24	3233.7	
357.44	4600.4	
357.65	4682.3	
357.85	4223.6	
358.06	3394.8	
358.27	4449.6	
358.47	4582	
358.68	2940.9	
358.88	3583.3	
359.09	5037.3	
359.3	5314.5	
359.5	4130.1	
359.71	3683.6	
359.91	5648.3	
360.12	5163.6	
360.33	3582.6	
360.53	3945.1	
360.74	4720.6	
360.94	4744.5	
361.15	3733.4	
361.36	3160.7	
361.56	5373.9	
361.77	4906.9	
361.97	4157.4	
362.18	3405.1	
362.38	5332.9	
362.59	4607.2	
362.8	3189.4	
363	2992.1	
363.21	4478.9	
363.41	5003.9	
363.62	3532.7	
363.83	4270	
364.03	5102.2	
364.24	5755.5	
364.44	4396.3	
364.65	4371	
364.85	4890.5	
365.06	4603.2	
365.27	3295.9	
365.47	3342.3	
365.68	5666	
365.88	4860.5	
366.09	3591.5	
366.29	3374.4	
366.5	5064.6	
366.71	5449.6	
366.91	4389.5	
367.12	3784.6	
367.32	5891.3	
367.53	5291.3	
367.73	3824.9	
367.94	4541	
368.14	5259.9	
368.35	5928.2	
368.56	3673.4	
368.76	3551.9	
368.97	5461.2	
369.17	6522.8	
369.38	3319.1	
369.58	3578.5	
369.79	4573.1	
369.99	5586.9	
370.2	4345.1	
370.4	3605.8	
370.61	5119.9	
370.82	6068.1	
371.02	3544.4	
371.23	2955.9	
371.43	4575.8	
371.64	5644.9	
371.84	3700	
372.05	4556	
372.25	6567.8	
372.46	5385.5	
372.66	3667.2	
372.87	3618.8	
373.07	5470.8	
373.28	6662	
373.48	4390.2	
373.69	4192.9	
373.9	5092.6	
374.1	5133.6	
374.31	4478.9	
374.51	4016.1	
374.72	5818.3	
374.92	4870.1	
375.13	4575.2	
375.33	3960.8	
375.54	5453.7	
375.74	5073.5	
375.95	4078.9	
376.15	4969.7	
376.36	5523.4	
376.56	5395.7	
376.77	4153.3	
376.97	4432.5	
377.18	6440.2	
377.38	5621	
377.59	4720.6	
377.79	3763.5	
378	5504.9	
378.2	5797.8	
378.41	3822.9	
378.61	3719.8	
378.82	5927.5	
379.02	5196.4	
379.23	3938.2	
379.43	4816.1	
379.64	6000.5	
379.84	5650.3	
380.05	3820.8	
380.25	3728.7	
380.46	5758.9	
380.66	5341.1	
380.87	4821.6	
381.07	5122	
381.28	6228.6	
381.48	5689.9	
381.69	3810.6	
381.89	3829	
382.1	4900.1	
382.3	5733.6	
382.51	4611.3	
382.71	5332.9	
382.91	5616.9	
383.12	5991.7	
383.32	4097.3	
383.53	4150.6	
383.73	5560.2	
383.94	5485.1	
384.14	4263.2	
384.35	3504.1	
384.55	5281	
384.76	5614.2	
384.96	4074.1	
385.17	4261.8	
385.37	5614.2	
385.58	4941.1	
385.78	4235.2	
385.98	3336.1	
386.19	5224.4	
386.39	5498.1	
386.6	3822.2	
386.8	3990.1	
387.01	5619.6	
387.21	5655.1	
387.42	4361.5	
387.62	4796.3	
387.83	5201.8	
388.03	5546.6	
388.23	4175.8	
388.44	4696.7	
388.64	5032.5	
388.85	5033.2	
389.05	4460.5	
389.26	4934.2	
389.46	6618.4	
389.67	6141.2	
389.87	4462.5	
390.07	4493.9	
390.28	5482.4	
390.48	5055.1	
390.69	3861.1	
390.89	4110.3	
391.1	5255.1	
391.3	5997.8	
391.5	4986.1	
391.71	5438	
391.91	5890	
392.12	6530.3	
392.32	5053	
392.53	4424.3	
392.73	5388.9	
392.93	5440.1	
393.14	4203.8	
393.34	4708.3	
393.55	5737	
393.75	5358.2	
393.95	4141.7	
394.16	4078.2	
394.36	5268.1	
394.57	5717.2	
394.77	3764.8	
394.98	4030.4	
395.18	5257.8	
395.38	5281	
395.59	4851.6	
395.79	4066.6	
396	5459.2	
396.2	5794.4	
396.4	4743.8	
396.61	4669.4	
396.81	5996.5	
397.02	5367	
397.22	4915.8	
397.42	4916.5	
397.63	6089.3	
397.83	5436	
398.04	4046.8	
398.24	4475.5	
398.44	5809.4	
398.65	5045.5	
398.85	3976.5	
399.05	4057	
399.26	5448.3	
399.46	6709.1	
399.67	4414.1	
399.87	4225	
400.07	5714.5	
400.28	6043.6	
400.48	4347.2	
400.69	5145.9	
400.89	6236.1	
401.09	6587	
401.3	4273.4	
401.5	5136.3	
401.7	6833.4	
401.91	6865.5	
402.11	4549.2	
402.32	4773.1	
402.52	6282.5	
402.72	6093.4	
402.93	4795	
403.13	3784	
403.33	6727.6	
403.54	5537.7	
403.74	4362.9	
403.94	4972.5	
404.15	5610.1	
404.35	6505	
404.56	4179.9	
404.76	5709.1	
404.96	6074.3	
405.17	5894.1	
405.37	5033.2	
405.57	4810	
405.78	6191.7	
405.98	5760.3	
406.18	4381.3	
406.39	5050.3	
406.59	6094.8	
406.79	5649	
407	4119.1	
407.2	4092.5	
407.4	6084.5	
407.61	6229.9	
407.81	4298	
408.01	6168.5	
408.22	5446.2	
408.42	6963.1	
408.62	5367	
408.83	4975.9	
409.03	6063.4	
409.23	6042.2	
409.44	5000.5	
409.64	5221	
409.84	6903	
410.05	6864.8	
410.25	5252.4	
410.45	5121.3	
410.66	6582.9	
410.86	8350.9	
411.06	5580.7	
411.27	5367	
411.47	8335.9	
411.67	6717.3	
411.88	5595.1	
412.08	5784.1	
412.28	7170.6	
412.49	7662.8	
412.69	5485.1	
412.89	5494.7	
413.09	7540.6	
413.3	7416.4	
413.5	5688.6	
413.7	5368.4	
413.91	6870.9	
414.11	7538.6	
414.31	5497.4	
414.52	5847	
414.72	7290.1	
414.92	7243	
415.12	5482.4	
415.33	5894.1	
415.53	7574.1	
415.73	7704.5	
415.94	6146.6	
416.14	5753.4	
416.34	6825.2	
416.55	6509.1	
416.75	6657.9	
416.95	6196.5	
417.15	7590.5	
417.36	8067.6	
417.56	6908.5	
417.76	6137.8	
417.97	7873.8	
418.17	7709.9	
418.37	5864.7	
418.57	5906.3	
418.78	7584.3	
418.98	7174	
419.18	6612.2	
419.38	6377.4	
419.59	7148.8	
419.79	6821.1	
419.99	5732.9	
420.2	5980.1	
420.4	7570	
420.6	7666.2	
420.8	5709.7	
421.01	5574.6	
421.21	7578.8	
421.41	7600.7	
421.61	6018.3	
421.82	5674.9	
422.02	7138.5	
422.22	7701	
422.42	6342.6	
422.63	5938.4	
422.83	7125.6	
423.03	8004.8	
423.23	6049.7	
423.44	5211.4	
423.64	7171.3	
423.84	6869.6	
424.04	5557.5	
424.25	5297.4	
424.45	7816.4	
424.65	7615	
424.85	5110.4	
425.06	5621.7	
425.26	7806.2	
425.46	6953.5	
425.66	5846.3	
425.87	5649.7	
426.07	7453.2	
426.27	7393.2	
426.47	5816.2	
426.67	5199.1	
426.88	7702.4	
427.08	7309.9	
427.28	6016.9	
427.48	5129.5	
427.69	6449.1	
427.89	7043	
428.09	5845.6	
428.29	5243.5	
428.5	7487.4	
428.7	7172	
428.9	5150.6	
429.1	5529.5	
429.3	7088.7	
429.51	7348.1	
429.71	5374.6	
429.91	6021	
430.11	7382.9	
430.31	7559.1	
430.52	5696.1	
430.72	5876.3	
430.92	7743.4	
431.12	7342.7	
431.32	5359.5	
431.53	5679.7	
431.73	6528.2	
431.93	7772	
432.13	5282.4	
432.33	5162.9	
432.54	6933.1	
432.74	7144.7	
432.94	5212.1	
433.14	5999.2	
433.34	7375.4	
433.55	7044.3	
433.75	5997.8	
433.95	7359.7	
434.15	7220.5	
434.35	6956.3	
434.56	5370.5	
434.76	5056.4	
434.96	7215.7	
435.16	7438.2	
435.36	5378.6	
435.56	6254.5	
435.77	6941.2	
435.97	7086.7	
436.17	6834.1	
436.37	6132.3	
436.57	6967.2	
436.78	6954.2	
436.98	7418.4	
437.18	6589	
437.38	7458.7	
437.58	7061.4	
437.78	6645.7	
437.99	5575.3	
438.19	7417.1	
438.39	7952.9	
438.59	5504.3	
438.79	5076.9	
438.99	7881.9	
439.2	6900.3	
439.4	5130.2	
439.6	5181.4	
439.8	7273.7	
440	8174.1	
440.2	6143.2	
440.4	6253.1	
440.61	7731.1	
440.81	8062.9	
441.01	5560.2	
441.21	6304.3	
441.41	8026.7	
441.61	7647.8	
441.81	6456.6	
442.02	7112.6	
442.22	8318.8	
442.42	7740	
442.62	5576.6	
442.82	5593	
443.02	8079.9	
443.22	7346.1	
443.43	5943.2	
443.63	5642.2	
443.83	7210.2	
444.03	7214.3	
444.23	6549.4	
444.43	6238.8	
444.63	7569.3	
444.83	8367.3	
445.04	5755.5	
445.24	6677.1	
445.44	7781.6	
445.64	7770.7	
445.84	6180.1	
446.04	6221.7	
446.24	7144.7	
446.44	7881.9	
446.65	5576.6	
446.85	5891.3	
447.05	7380.2	
447.25	7826.7	
447.45	5970.5	
447.65	5450.3	
447.85	7400.7	
448.05	7023.2	
448.25	6272.2	
448.46	6021.7	
448.66	7374.7	
448.86	7023.9	
449.06	5345.9	
449.26	6206.7	
449.46	7613	
449.66	6918.7	
449.86	5937.7	
450.06	5779.4	
450.26	7059.3	
450.47	7600	
450.67	6047.7	
450.87	6328.9	
451.07	7675.1	
451.27	7514	
451.47	5473.5	
451.67	5911.8	
451.87	7206.1	
452.07	7948.8	
452.27	5686.5	
452.47	5659.9	
452.67	7339.9	
452.88	7643.7	
453.08	5169.8	
453.28	6698.9	
453.48	8276.5	
453.68	7214.3	
453.88	5678.3	
454.08	5654.4	
454.28	7703.8	
454.48	7369.3	
454.68	6225.8	
454.88	6536.4	
455.08	7813	
455.28	7673.1	
455.48	5467.4	
455.68	6033.3	
455.89	8102.4	
456.09	7836.2	
456.29	5777.3	
456.49	5816.2	
456.69	8027.4	
456.89	7286	
457.09	6290	
457.29	6635.4	
457.49	7749.5	
457.69	7824.6	
457.89	6215.6	
458.09	5713.2	
458.29	7591.8	
458.49	8249.2	
458.69	6441.5	
458.89	6016.2	
459.09	8301.1	
459.29	8366	
459.49	6131.6	
459.69	6733.7	
459.9	7895.6	
460.1	7579.5	
460.3	6016.2	
460.5	5771.2	
460.7	7985.7	
460.9	7586.4	
461.1	5566.4	
461.3	6569.2	
461.5	8553.7	
461.7	8257.4	
461.9	6080.4	
462.1	6369.9	
462.3	7832.8	
462.5	8236.2	
462.7	6072.9	
462.9	6115.2	
463.1	9066.4	
463.3	8843.1	
463.5	6388.3	
463.7	7130.3	
463.9	8120.2	
464.1	8372.1	
464.3	6614.9	
464.5	6593.1	
464.7	8659.5	
464.9	8400.8	
465.1	7647.8	
465.3	6806.1	
465.5	8700.5	
465.7	8791.9	
465.9	7116.7	
466.1	6901	
466.3	8598.7	
466.5	8512.7	
466.7	7641.7	
466.9	6706.4	
467.1	8567.3	
467.3	9121.7	
467.5	7712	
467.7	6744	
467.9	9442.5	
468.1	10062	
468.3	7355.6	
468.5	7658.7	
468.7	8473.1	
468.9	8527.7	
469.1	7064.8	
469.3	7484.6	
469.5	10048	
469.7	8213.7	
469.9	7413	
470.1	6814.3	
470.3	8611.7	
470.5	8535.3	
470.7	7753.6	
470.9	6884.6	
471.1	8291.5	
471.3	8529.8	
471.5	6689.3	
471.69	8053.3	
471.89	8168	
472.09	7791.2	
472.29	7223.9	
472.49	7531.1	
472.69	7987.8	
472.89	8497	
473.09	6559	
473.29	6541.2	
473.49	8029.4	
473.69	8079.9	
473.89	7291.5	
474.09	6614.3	
474.29	9014.5	
474.49	8742.1	
474.69	7296.2	
474.89	6716	
475.09	8167.3	
475.29	8043.7	
475.49	6346	
475.69	6488.6	
475.88	9196.7	
476.08	8381	
476.28	6241.5	
476.48	6480.5	
476.68	8701.1	
476.88	8391.9	
477.08	6483.2	
477.28	6681.8	
477.48	8010.3	
477.68	8499.8	
477.88	6301.6	
478.08	6494.1	
478.28	8803.5	
478.48	8135.9	
478.67	6565.8	
478.87	6074.3	
479.07	8628.1	
479.27	8196	
479.47	6674.3	
479.67	6674.3	
479.87	8469	
480.07	8869.8	
480.27	6128.2	
480.47	7300.3	
480.67	8254.7	
480.87	8727.1	
481.06	6340.5	
481.26	7011.6	
481.46	8231.5	
481.66	8089.5	
481.86	6672.3	
482.06	7393.2	
482.26	7932.5	
482.46	8681.3	
482.66	6664.1	
482.86	6223.1	
483.05	8322.3	
483.25	7688.8	
483.45	8400.1	
483.65	6657.3	
483.85	7866.9	
484.05	8095.6	
484.25	6901.7	
484.45	7341.3	
484.65	8756.4	
484.84	8782.4	
485.04	6549.4	
485.24	6568.5	
485.44	9067.7	
485.64	7770.7	
485.84	6092.7	
486.04	7110.5	
486.24	8057.4	
486.44	8256.7	
486.63	6104.3	
486.83	6763.1	
487.03	8001.4	
487.23	8066.3	
487.43	6130.3	
487.63	7992.5	
487.83	8232.2	
488.02	8789.9	
488.22	6866.8	
488.42	7357.7	
488.62	8738.7	
488.82	7987.1	
489.02	6563.1	
489.22	6580.8	
489.41	8667	
489.61	8401.5	
489.81	6350.1	
490.01	6449.1	
490.21	8624	
490.41	9267.7	
490.61	6398.5	
490.8	6438.1	
491	8267.6	
491.2	7715.4	
491.4	6865.5	
491.6	6142.5	
491.8	8142	
491.99	8092.9	
492.19	6071.5	
492.39	6334.4	
492.59	8569.4	
492.79	8694.3	
492.99	7105.8	
493.18	6469.5	
493.38	8729.1	
493.58	9351	
493.78	6956.3	
493.98	6638.1	
494.18	8544.8	
494.37	8105.9	
494.57	7157	
494.77	7050.5	
494.97	8807.6	
495.17	8981	
495.37	6756.9	
495.56	7095.5	
495.76	9152.4	
495.96	8853.4	
496.16	7759.8	
496.36	6853.2	
496.55	9061.6	
496.75	8653.4	
496.95	7176.1	
497.15	7038.9	
497.35	8954.4	
497.54	8810.4	
497.74	6976.1	
497.94	8310	
498.14	9526.5	
498.34	9346.2	
498.53	6819.1	
498.73	7295.5	
498.93	8484.1	
499.13	8905.9	
499.33	7168.6	
499.52	7442.3	
499.72	9111.4	
499.92	9067	
500.12	7068.2	
500.32	7190.4	
500.51	9093.7	
500.71	8960.5	
500.91	7648.5	
501.11	7367.9	
501.31	9017.9	
501.5	9320.3	
501.7	7920.9	
501.9	7137.2	
502.1	8850.6	
502.29	9106	
502.49	7507.2	
502.69	7793.9	
502.89	8951.7	
503.09	8990.6	
503.28	6642.2	
503.48	6698.2	
503.68	8394.6	
503.88	8334.6	
504.07	7447.8	
504.27	7082.6	
504.47	8744.1	
504.67	8798.8	
504.86	7378.8	
505.06	7073	
505.26	8431.5	
505.46	9596.8	
505.65	6972.7	
505.85	7174	
506.05	8386.4	
506.25	8689.5	
506.44	6513.2	
506.64	7177.4	
506.84	8198	
507.04	8822	
507.23	6705.7	
507.43	6959	
507.63	9665.7	
507.83	8231.5	
508.02	6999.3	
508.22	6761.7	
508.42	9871.2	
508.62	8093.6	
508.81	6896.9	
509.01	7274.4	
509.21	8027.4	
509.4	8237.6	
509.6	7043.6	
509.8	6507.8	
510	8234.9	
510.19	9229.5	
510.39	6528.2	
510.59	6648.4	
510.79	8006.9	
510.98	9060.2	
511.18	6757.6	
511.38	6711.2	
511.57	8685.4	
511.77	8482.7	
511.97	7184.3	
512.17	6475	
512.36	8647.2	
512.56	8530.5	
512.76	6414.9	
512.95	6307.1	
513.15	8822.6	
513.35	7658	
513.55	7144.7	
513.74	6452.5	
513.94	8679.3	
514.14	8165.3	
514.33	7199.3	
514.53	6963.1	
514.73	8188.5	
514.92	8320.2	
515.12	6604.7	
515.32	6465.4	
515.51	8403.5	
515.71	8615.8	
515.91	7842.4	
516.11	6531	
516.3	9657.5	
516.5	8064.2	
516.7	6903	
516.89	7337.9	
517.09	8112	
517.29	8051.2	
517.48	7059.3	
517.68	6657.3	
517.88	7869.7	
518.07	8405.5	
518.27	7023.2	
518.47	6272.9	
518.66	8791.2	
518.86	7752.9	
519.06	6183.5	
519.25	6484.6	
519.45	7987.1	
519.65	9078.6	
519.84	7010.2	
520.04	7579.5	
520.24	9418.6	
520.43	8396	
520.63	6787.7	
520.83	6531.7	
521.02	7918.8	
521.22	8262.9	
521.42	6855.9	
521.61	7279.2	
521.81	8094.9	
522.01	8232.8	
522.2	6892.1	
522.4	6657.9	
522.6	8546.2	
522.79	7545.4	
522.99	6767.2	
523.18	6229.9	
523.38	8403.5	
523.58	8260.1	
523.77	7684.7	
523.97	6223.1	
524.17	9725.8	
524.36	9069.8	
524.56	7370	
524.76	7043.6	
524.95	8329.8	
525.15	8100.4	
525.34	6725.5	
525.54	6846.4	
525.74	8589.2	
525.93	7907.2	
526.13	7746.1	
526.33	6849.1	
526.52	8959.9	
526.72	8487.5	
526.91	7772	
527.11	7137.2	
527.31	8873.8	
527.5	9124.4	
527.7	7145.4	
527.89	6424.5	
528.09	8098.4	
528.29	8611.7	
528.48	7488.7	
528.68	7250.5	
528.87	8839	
529.07	8898.4	
529.27	7101	
529.46	6830	
529.66	8542.8	
529.85	8813.8	
530.05	6660	
530.25	7126.2	
530.44	9641.8	
530.64	8433.5	
530.83	6853.2	
531.03	7051.2	
531.23	8911.4	
531.42	8783.1	
531.62	7582.9	
531.81	7013.6	
532.01	9040.4	
532.21	9241.1	
532.4	6937.8	
532.6	7133.1	
532.79	9515.5	
532.99	9026.1	
533.18	7301	
533.38	8001.4	
533.58	8754.4	
533.77	9271.2	
533.97	7142.6	
534.16	7820.5	
534.36	9432.3	
534.55	8754.4	
534.75	7891.5	
534.95	7210.2	
535.14	9438.4	
535.34	8597.4	
535.53	6959	
535.73	8436.9	
535.92	9781.1	
536.12	8701.8	
536.31	7056.6	
536.51	7891.5	
536.71	9017.9	
536.9	8691.6	
537.1	7129	
537.29	7250.5	
537.49	9463.7	
537.68	8599.4	
537.88	7558.4	
538.07	6956.9	
538.27	8853.4	
538.46	9579.7	
538.66	6884.6	
538.86	7212.9	
539.05	8912.8	
539.25	9127.8	
539.44	7453.9	
539.64	7103.7	
539.83	8711.4	
540.03	9420.7	
540.22	6946	
540.42	6997.2	
540.61	8929.8	
540.81	8922.3	
541	7376.1	
541.2	7890.1	
541.39	8439.7	
541.59	8706.6	
541.78	7623.2	
541.98	6866.8	
542.18	8256.7	
542.37	8155	
542.57	7137.2	
542.76	7588.4	
542.96	8343.4	
543.15	8742.1	
543.35	7180.2	
543.54	6718	
543.74	8892.3	
543.93	8616.5	
544.13	7096.9	
544.32	7873.8	
544.52	8888.2	
544.71	8258.8	
544.91	6501.6	
545.1	7290.8	
545.3	8336.6	
545.49	8753.7	
545.69	6428.6	
545.88	6888.7	
546.08	9508.7	
546.27	9082.7	
546.47	7253.9	
546.66	6615.6	
546.86	8914.8	
547.05	9376.3	
547.24	6852.5	
547.44	6802	
547.63	8152.3	
547.83	8935.3	
548.02	6963.8	
548.22	7165.8	
548.41	7906.5	
548.61	8956.4	
548.8	6701.6	
549	6619	
549.19	8454	
549.39	8689.5	
549.58	6417.7	
549.78	6823.1	
549.97	8704.5	
550.17	8299.7	
550.36	7421.8	
550.55	8285.4	
550.75	8283.4	
550.94	8970.8	
551.14	6588.3	
551.33	6883.9	
551.53	7840.3	
551.72	8576.2	
551.92	6849.1	
552.11	6697.5	
552.31	8525	
552.5	8567.3	
552.69	7962.5	
552.89	6322.8	
553.08	8595.3	
553.28	8299.1	
553.47	6666.1	
553.67	7461.4	
553.86	8993.3	
554.06	7631.4	
554.25	6086.6	
554.44	6437.4	
554.64	9562.6	
554.83	9140.1	
555.03	6534.4	
555.22	6806.1	
555.42	8624.7	
555.61	8362.5	
555.8	6565.1	
556	6769.9	
556.19	7802.8	
556.39	8652.7	
556.58	6612.9	
556.78	6707.1	
556.97	8350.9	
557.16	8036.9	
557.36	7554.3	
557.55	6380.8	
557.75	7508.5	
557.94	8926.4	
558.13	6359.6	
558.33	6191.7	
558.52	8742.8	
558.72	7799.3	
558.91	6252.4	
559.1	6463.4	
559.3	7666.2	
559.49	7328.3	
559.69	6025.1	
559.88	6792.4	
560.07	8361.2	
560.27	8591.9	
560.46	6840.9	
560.66	6964.5	
560.85	8152.3	
561.04	7461.4	
561.24	6275	
561.43	6403.3	
561.63	7666.9	
561.82	7835.5	
562.01	7228.6	
562.21	6543.9	
562.4	8101.8	
562.59	8888.2	
562.79	6423.8	
562.98	6244.9	
563.18	8168.7	
563.37	9171.5	
563.56	6849.1	
563.76	6098.2	
563.95	7764.5	
564.14	7688.8	
564.34	6472.3	
564.53	6264.7	
564.73	8101.8	
564.92	8313.4	
565.11	6570.6	
565.31	6117.3	
565.5	8556.4	
565.69	7757	
565.89	6328.9	
566.08	6491.4	
566.27	8401.5	
566.47	8766	
566.66	7027.3	
566.85	6032.6	
567.05	8145.5	
567.24	7784.3	
567.44	6180.8	
567.63	7175.4	
567.82	8365.3	
568.02	8026.7	
568.21	6257.9	
568.4	6509.1	
568.6	7996	
568.79	8020.5	
568.98	6101.6	
569.18	6207.4	
569.37	7935.2	
569.56	9428.8	
569.76	6555.5	
569.95	7196.6	
570.14	8324.3	
570.34	8114.1	
570.53	6124.1	
570.72	6089.3	
570.91	8643.8	
571.11	7930.4	
571.3	6502.3	
571.49	7067.5	
571.69	7983.7	
571.88	7700.4	
572.07	6820.4	
572.27	6834.8	
572.46	7619.1	
572.65	8395.3	
572.85	6219	
573.04	6479.1	
573.23	8578.9	
573.43	8074.5	
573.62	6135.7	
573.81	6576	
574	8039.6	
574.2	7884.7	
574.39	6432.7	
574.58	6449.1	
574.78	8688.8	
574.97	8153	
575.16	6731.7	
575.36	6871.6	
575.55	8454	
575.74	8595.3	
575.93	6027.9	
576.13	6836.8	
576.32	7912	
576.51	8353	
576.71	6488.6	
576.9	7485.3	
577.09	8638.3	
577.28	8200.7	
577.48	6779.5	
577.67	6043.6	
577.86	7957	
578.05	8292.2	
578.25	6520.7	
578.44	6569.2	
578.63	8113.4	
578.83	9025.4	
579.02	6134.3	
579.21	7176.1	
579.4	8196	
579.6	7950.2	
579.79	6628.6	
579.98	8314.8	
580.17	8359.1	
580.37	8475.2	
580.56	6238.8	
580.75	6829.3	
580.94	8765.3	
581.14	8813.8	
581.33	7130.3	
581.52	6295.5	
581.71	8325.7	
581.91	8926.4	
582.1	6108.4	
582.29	6614.3	
582.48	8037.6	
582.68	8064.9	
582.87	6917.4	
583.06	6635.4	
583.25	8312	
583.45	8200.1	
583.64	7156.3	
583.83	7591.1	
584.02	8110	
584.21	8360.5	
584.41	7083.9	
584.6	6621.1	
584.79	8131.8	
584.98	8645.2	
585.18	6205.3	
585.37	6115.9	
585.56	7839.6	
585.75	8303.8	
585.94	6295.5	
586.14	6852.5	
586.33	8799.4	
586.52	8049.9	
586.71	6772.6	
586.91	6505	
587.1	7585.7	
587.29	8436.3	
587.48	6390.3	
587.67	6329.6	
587.87	8244.4	
588.06	8171.4	
588.25	7273	
588.44	6731.7	
588.63	7991.9	
588.83	8377.6	
589.02	6355.5	
589.21	6284.5	
589.4	7791.8	
589.59	7644.4	
589.78	5614.8	
589.98	5731.6	
590.17	7374.7	
590.36	7744.7	
590.55	5344.5	
590.74	5864.7	
590.94	8621.9	
591.13	7645.1	
591.32	5841.5	
591.51	5413.5	
591.7	7933.8	
591.89	7533.8	
592.09	5610.1	
592.28	5991	
592.47	6980.2	
592.66	8488.1	
592.85	5537	
593.05	5702.2	
593.24	7488.1	
593.43	8118.8	
593.62	5734.3	
593.81	6181.5	
594	7466.2	
594.19	7727.7	
594.39	5750	
594.58	5718.6	
594.77	7811.6	
594.96	8218.5	
595.15	5645.6	
595.34	6102.3	
595.54	7608.9	
595.73	7068.2	
595.92	5143.8	
596.11	6038.1	
596.3	8044.4	
596.49	7193.8	
596.68	5900.2	
596.88	6221	
597.07	7922.2	
597.26	7038.9	
597.45	5541.8	
597.64	6413.6	
597.83	7249.8	
598.02	7637.6	
598.22	5515.2	
598.41	6089.3	
598.6	7552.2	
598.79	7069.6	
598.98	5623.7	
599.17	6309.8	
599.36	7595.2	
599.55	8365.3	
599.74	7055.3	
599.94	6875	
600.13	7952.3	
600.32	7055.9	
600.51	5358.2	
600.7	5531.6	
600.89	8431.5	
601.08	8438.3	
601.27	5358.2	
601.47	6028.5	
601.66	7816.4	
601.85	8366.6	
602.04	5930.2	
602.23	6010.1	
602.42	7183.6	
602.61	7593.9	
602.8	5749.3	
602.99	5624.4	
603.18	7447.8	
603.37	7574.8	
603.57	6041.5	
603.76	6552.1	
603.95	8116.8	
604.14	7781.6	
604.33	5656.5	
604.52	5849	
604.71	7650.5	
604.9	7281.2	
605.09	6363.7	
605.28	6263.4	
605.47	8085.4	
605.66	7755	
605.86	6032	
606.05	5771.9	
606.24	8064.9	
606.43	6857.3	
606.62	5984.8	
606.81	6436.8	
607	7891.5	
607.19	7349.5	
607.38	5511.1	
607.57	5676.3	
607.76	7205.4	
607.95	6771.9	
608.14	5953.4	
608.33	6477	
608.52	7165.8	
608.72	7787.7	
608.91	5410.7	
609.1	5319.3	
609.29	7343.3	
609.48	6914.6	
609.67	6090	
609.86	5324	
610.05	6926.2	
610.24	7272.3	
610.43	5318.6	
610.62	4964.3	
610.81	8084	
611	7776.1	
611.19	5346.6	
611.38	5902.9	
611.57	7511.3	
611.76	8327	
611.95	5221	
612.14	5195.7	
612.33	7283.9	
612.52	6944	
612.71	5560.2	
612.9	5106.3	
613.09	6642.2	
613.28	8430.1	
613.47	5614.8	
613.66	6191.7	
613.85	7367.2	
614.04	6989	
614.24	5483.8	
614.43	4924	
614.62	7460.1	
614.81	7408.9	
615	5883.8	
615.19	5853.8	
615.38	6859.3	
615.57	7147.4	
615.76	5808.7	
615.95	6501.6	
616.14	7491.5	
616.33	7210.9	
616.52	6063.4	
616.71	6109.8	
616.9	7438.2	
617.09	7253.2	
617.28	5556.8	
617.47	6389	
617.66	6713.9	
617.85	6765.8	
618.04	6270.2	
618.22	5766.4	
618.41	7084.6	
618.6	7787.7	
618.79	5799.2	
618.98	5502.9	
619.17	7917.4	
619.36	6628.6	
619.55	5698.8	
619.74	5705	
619.93	7421.2	
620.12	6907.1	
620.31	6065.4	
620.5	6229.9	
620.69	8041.7	
620.88	8145.5	
621.07	6670.9	
621.26	5973.9	
621.45	7599.3	
621.64	7486	
621.83	6036.7	
622.02	5420.3	
622.21	7557	
622.4	7364.5	
622.59	6455.2	
622.78	6299.6	
622.97	7123.5	
623.16	7716.7	
623.35	6040.8	
623.54	5297.4	
623.72	7245.7	
623.91	7294.9	
624.1	6193.7	
624.29	5184.1	
624.48	8099.7	
624.67	7639.6	
624.86	6156.9	
625.05	5388.9	
625.24	8241.7	
625.43	7039.6	
625.62	7334.5	
625.81	5539.1	
626	7821.2	
626.19	7249.8	
626.38	6075.6	
626.56	5709.7	
626.75	7097.6	
626.94	7663.5	
627.13	6195.8	
627.32	5178.6	
627.51	7685.3	
627.7	8400.1	
627.89	5189.6	
628.08	6151.4	
628.27	6959.7	
628.46	7147.4	
628.65	5543.9	
628.83	5245.5	
629.02	7620.5	
629.21	6993.8	
629.4	5788.9	
629.59	6006.7	
629.78	6978.1	
629.97	7716.1	
630.16	6004	
630.35	5582.1	
630.54	8141.4	
630.72	7935.9	
630.91	5642.2	
631.1	6015.6	
631.29	7379.5	
631.48	7534.5	
631.67	6100.9	
631.86	5694.7	
632.05	7190.4	
632.24	7154.2	
632.42	5420.3	
632.61	5950.7	
632.8	7238.9	
632.99	6965.8	
633.18	5883.1	
633.37	6188.3	
633.56	7518.1	
633.75	7331.7	
633.93	5926.8	
634.12	5611.4	
634.31	8018.5	
634.5	7659.4	
634.69	5728.9	
634.88	6040.8	
635.07	7265.5	
635.25	7758.4	
635.44	6328.9	
635.63	6537.8	
635.82	7169.9	
636.01	6761.7	
636.2	6287.9	
636.39	5956.9	
636.57	8017.1	
636.76	7651.9	
636.95	5573.9	
637.14	6569.9	
637.33	7493.5	
637.52	8075.8	
637.7	5382.7	
637.89	6156.2	
638.08	7178.8	
638.27	8280.6	
638.46	6143.2	
638.65	6548.7	
638.83	8214.4	
639.02	6961.7	
639.21	6075	
639.4	6383.5	
639.59	7429.3	
639.78	7004.7	
639.96	5566.4	
640.15	5580	
640.34	7275.1	
640.53	7325.6	
640.72	5313.8	
640.91	5562.3	
641.09	6875	
641.28	7826	
641.47	5579.3	
641.66	6206.7	
641.85	7402	
642.03	7509.9	
642.22	6005.3	
642.41	5657.2	
642.6	6840.2	
642.79	6470.2	
642.97	5508.4	
643.16	6011.5	
643.35	6881.9	
643.54	6676.4	
643.73	5383.4	
643.91	5928.9	
644.1	6653.2	
644.29	7137.9	
644.48	5453.1	
644.67	5432.6	
644.85	6705	
645.04	6978.8	
645.23	5143.8	
645.42	5428.5	
645.6	6685.3	
645.79	7546.8	
645.98	5278.3	
646.17	4602.5	
646.36	6397.9	
646.54	6861.4	
646.73	5882.4	
646.92	5012.1	
647.11	6592.4	
647.29	7322.2	
647.48	5100.1	
647.67	4857.1	
647.86	7535.8	
648.05	7455.3	
648.23	5227.1	
648.42	6253.1	
648.61	7078.5	
648.8	6854.6	
648.98	5019.6	
649.17	5271.5	
649.36	6581.5	
649.55	6249.7	
649.73	5094.7	
649.92	5676.3	
650.11	6470.9	
650.3	6752.2	
650.48	5214.1	
650.67	4911.7	
650.86	6978.8	
651.05	6087.9	
651.23	5120.6	
651.42	5042.8	
651.61	6518.7	
651.79	6498.2	
651.98	5274.2	
652.17	4983.4	
652.36	6839.5	
652.54	6119.3	
652.73	4947.2	
652.92	4885.1	
653.11	6909.2	
653.29	6962.4	
653.48	4509.6	
653.67	5184.8	
653.85	6698.9	
654.04	7462.1	
654.23	5324.7	
654.42	5087.2	
654.6	6427.9	
654.79	6804.7	
654.98	4595	
655.16	5075.5	
655.35	6011.5	
655.54	5909.1	
655.73	4686.4	
655.91	4586.1	
656.1	6855.2	
656.29	5896.1	
656.47	4367	
656.66	5604.6	
656.85	6230.6	
657.03	6214.2	
657.22	4732.2	
657.41	4734.9	
657.59	6262	
657.78	6095.4	
657.97	4483.7	
658.16	5066	
658.34	6783.6	
658.53	7034.8	
658.72	5727.5	
658.9	6060.6	
659.09	6433.4	
659.28	6433.4	
659.46	4853	
659.65	4756.1	
659.84	6210.1	
660.02	6649.1	
660.21	4879.6	
660.4	4668	
660.58	6917.4	
660.77	6356.9	
660.96	5186.1	
661.14	4424.3	
661.33	7300.3	
661.52	7193.8	
661.7	4394.9	
661.89	7050.5	
662.08	6142.5	
662.26	5778.7	
662.45	4645.5	
662.64	4757.4	
662.82	6651.8	
663.01	6055.8	
663.2	4867.3	
663.38	5335.6	
663.57	6614.9	
663.75	6489.3	
663.94	5012.7	
664.13	5888.6	
664.31	6159.6	
664.5	6570.6	
664.69	5023	
664.87	5607.3	
665.06	5956.9	
665.25	6420.4	
665.43	5821	
665.62	5684.5	
665.8	6652.5	
665.99	6119.3	
666.18	4982	
666.36	5061.9	
666.55	6696.9	
666.74	6574.7	
666.92	4739.7	
667.11	5956.2	
667.29	6299.6	
667.48	6615.6	
667.67	5622.4	
667.85	4935.6	
668.04	6191.7	
668.22	6129.6	
668.41	5089.2	
668.6	5223.7	
668.78	6023.1	
668.97	6195.8	
669.15	5285.1	
669.34	4519.2	
669.53	6129.6	
669.71	6354.8	
669.9	4691.9	
670.08	5129.5	
670.27	5997.1	
670.46	6580.1	
670.64	5245.5	
670.83	5452.4	
671.01	5963.7	
671.2	6459.3	
671.38	4655.7	
671.57	4607.2	
671.76	6933.7	
671.94	7268.2	
672.13	4554.7	
672.31	5400.5	
672.5	6623.1	
672.69	6052.4	
672.87	4706.2	
673.06	4888.5	
673.24	6528.9	
673.43	6089.3	
673.61	5228.5	
673.8	4862.6	
673.98	6617	
674.17	6692.8	
674.36	5344.5	
674.54	5279	
674.73	6332.3	
674.91	6627.2	
675.1	5042.1	
675.28	4628.4	
675.47	6229.9	
675.65	6580.8	
675.84	4982.7	
676.03	5151.3	
676.21	6117.3	
676.4	5683.8	
676.58	5537	
676.77	5361.6	
676.95	7286.7	
677.14	6014.2	
677.32	4659.1	
677.51	4508.9	
677.69	6660.7	
677.88	5862.7	
678.06	4664.6	
678.25	4700.1	
678.44	6236.1	
678.62	6004	
678.81	4448.2	
678.99	5132.9	
679.18	6834.8	
679.36	6607.4	
679.55	4831.8	
679.73	5289.2	
679.92	6524.1	
680.1	6048.3	
680.29	5789.6	
680.47	4900.1	
680.66	6105.7	
680.84	6735.8	
681.03	4346.5	
681.21	5181.4	
681.4	6062	
681.58	5981.4	
681.77	4716.5	
681.95	4622.3	
682.14	6744	
682.32	6952.9	
682.51	5415.5	
682.69	4476.9	
682.88	6020.3	
683.06	6425.2	
683.25	5106.3	
683.43	5486.5	
683.62	6242.2	
683.8	6493.4	
683.99	5539.8	
684.17	5056.4	
684.36	7174	
684.54	6212.9	
684.73	4392.2	
684.91	4541.7	
685.1	6349.4	
685.28	5873.6	
685.46	4947.2	
685.65	5016.2	
685.83	6495.5	
686.02	5997.8	
686.2	4598.4	
686.39	4614.1	
686.57	5916.6	
686.76	6918.7	
686.94	4520.5	
687.13	4792.9	
687.31	6406.7	
687.5	6063.4	
687.68	4242	
687.86	5161.6	
688.05	7389.8	
688.23	5627.1	
688.42	5231.2	
688.6	4676.2	
688.79	5941.8	
688.97	5998.5	
689.16	4987.5	
689.34	4169.7	
689.52	6398.5	
689.71	6696.9	
689.89	5130.8	
690.08	4642.7	
690.26	6227.9	
690.45	6082.5	
690.63	5302.2	
690.81	4767	
691	6075.6	
691.18	5956.2	
691.37	4854.4	
691.55	6434	
691.74	5898.8	
691.92	7430	
692.1	4866.7	
692.29	4453	
692.47	6044.2	
692.66	5545.9	
692.84	4632.5	
693.02	4930.8	
693.21	5625.1	
693.39	6017.6	
693.58	5070.8	
693.76	4572.4	
693.94	6815	
694.13	6746	
694.31	4642.1	
694.5	5414.1	
694.68	5879.7	
694.86	6167.8	
695.05	4923.3	
695.23	4969.1	
695.42	6470.9	
695.6	8119.5	
695.78	5326.8	
695.97	4713.1	
696.15	6475	
696.34	5980.8	
696.52	4517.8	
696.7	5137.7	
696.89	6332.3	
697.07	5833.3	
697.25	4984.1	
697.44	6095.4	
697.62	6282.5	
697.81	6468.9	
697.99	4835.9	
698.17	5161.6	
698.36	5755.5	
698.54	6298.9	
698.72	5040.7	
698.91	4287.1	
699.09	5936.4	
699.28	5814.2	
699.46	4874.2	
699.64	4719.2	
699.83	5854.5	
700.01	6681.8	
700.19	5407.3	
700.38	4144.4	
700.56	6682.5	
700.74	5835.3	
700.93	4466.6	
701.11	5054.4	
701.29	6345.3	
701.48	7089.4	
701.66	4550.6	
701.84	4650.3	
702.03	6011.5	
702.21	6527.6	
702.39	4286.4	
702.58	4702.1	
702.76	6405.4	
702.94	6399.9	
703.13	4343.1	
703.31	6087.9	
703.49	5805.3	
703.68	6625.9	
703.86	4441.4	
704.04	5180	
704.23	6242.2	
704.41	6424.5	
704.59	4561.5	
704.78	5462.6	
704.96	7367.2	
705.14	6529.6	
705.33	4496	
705.51	4952.7	
705.69	5969.1	
705.87	6590.4	
706.06	5197.7	
706.24	4323.3	
706.42	6253.8	
706.61	6478.4	
706.79	5281	
706.97	4320.5	
707.16	5857.2	
707.34	6275.7	
707.52	5198.4	
707.7	4591.5	
707.89	5905	
708.07	5676.3	
708.25	5236.7	
708.44	5322.7	
708.62	5911.1	
708.8	6715.3	
708.98	5411.4	
709.17	4628.4	
709.35	6171.9	
709.53	6197.8	
709.72	4381.3	
709.9	4774.5	
710.08	6358.9	
710.26	6415.6	
710.45	5636.7	
710.63	4605.9	
710.81	6152.8	
710.99	6133	
711.18	5087.2	
711.36	4734.2	
711.54	6036.7	
711.72	6567.8	
711.91	4814.8	
712.09	4360.8	
712.27	6102.9	
712.45	6565.8	
712.64	4956.1	
712.82	4179.2	
713	5721.3	
713.18	5868.8	
713.37	4330.8	
713.55	5193.6	
713.73	6508.4	
713.91	5455.8	
714.1	4515.8	
714.28	4263.9	
714.46	6174.6	
714.64	5584.1	
714.83	3803.1	
715.01	4415.4	
715.19	5665.4	
715.37	5173.9	
715.55	4133.5	
715.74	4403.1	
715.92	6294.1	
716.1	4792.2	
716.28	5200.5	
716.47	4464.6	
716.65	5401.9	
716.83	5319.3	
717.01	4364.9	
717.19	4398.4	
717.38	7051.8	
717.56	5118.6	
717.74	4558.1	
717.92	3953.3	
718.1	6091.3	
718.29	5543.2	
718.47	3657	
718.65	4090.5	
718.83	6015.6	
719.01	5964.4	
719.2	3527.3	
719.38	4345.8	
719.56	5773.9	
719.74	6862.1	
719.92	4072.7	
720.11	4829.1	
720.29	5853.8	
720.47	5119.2	
720.65	3696.6	
720.83	4370.4	
721.02	5417.6	
721.2	5251.7	
721.38	4414.7	
721.56	3870	
721.74	4857.1	
721.92	5008.6	
722.11	4720.6	
722.29	4550.6	
722.47	5895.4	
722.65	5367.7	
722.83	3927.3	
723.01	4573.8	
723.2	5377.3	
723.38	5627.8	
723.56	3390.8	
723.74	4317.1	
723.92	5013.4	
724.1	5857.2	
724.29	3825.6	
724.47	4650.3	
724.65	5117.9	
724.83	4926	
725.01	3749.1	
725.19	4364.9	
725.37	5072.1	
725.56	5077.6	
725.74	3609.2	
725.92	3788.1	
726.1	5011.4	
726.28	5251	
726.46	4150.6	
726.64	3901.4	
726.83	5261.9	
727.01	5398.4	
727.19	3595.6	
727.37	4222.9	
727.55	5289.2	
727.73	5649	
727.91	3607.2	
728.09	3458.3	
728.28	5793.7	
728.46	5967.8	
728.64	4267.3	
728.82	4244.8	
729	6552.1	
729.18	6020.3	
729.36	3664.5	
729.54	5382.7	
729.72	6672.3	
729.91	5382.1	
730.09	5091.3	
730.27	4176.5	
730.45	5320.6	
730.63	5797.1	
730.81	4669.4	
730.99	3922.5	
731.17	6238.1	
731.35	5135.6	
731.53	4302.1	
731.71	3992.2	
731.9	5998.5	
732.08	6126.8	
732.26	4228.4	
732.44	4007.9	
732.62	6172.6	
732.8	5717.9	
732.98	4534.2	
733.16	3827	
733.34	5810.8	
733.52	4851	
733.7	4203.8	
733.88	4375.8	
734.07	5704.3	
734.25	5474.9	
734.43	3807.9	
734.61	4962.9	
734.79	6591.7	
734.97	5379.3	
735.15	3891.8	
735.33	4162.2	
735.51	5626.5	
735.69	5395	
735.87	4977.2	
736.05	4328.7	
736.23	5584.8	
736.41	5347.2	
736.59	4225	
736.77	4235.2	
736.95	5862	
737.13	5424.4	
737.32	3949.2	
737.5	4106.9	
737.68	6260.6	
737.86	5285.1	
738.04	3786.7	
738.22	5171.1	
738.4	5237.3	
738.58	5431.2	
738.76	4224.3	
738.94	3442	
739.12	5339.1	
739.3	5227.1	
739.48	4616.8	
739.66	4453	
739.84	5494	
740.02	5440.1	
740.2	3596.2	
740.38	3786.7	
740.56	5781.4	
740.74	4918.5	
740.92	4317.1	
741.1	4228.4	
741.28	5356.8	
741.46	5222.3	
741.64	3983.3	
741.82	4399	
742	5436	
742.18	5290.6	
742.36	4097.3	
742.54	3816	
742.72	5854.5	
742.9	4848.9	
743.08	4410	
743.26	3465.8	
743.44	5934.3	
743.62	5833.3	
743.8	4555.4	
743.98	3829.7	
744.16	5634.6	
744.34	5369.8	
744.52	4450.9	
744.7	4358.8	
744.88	5821	
745.06	5348.6	
745.24	4390.8	
745.42	4617.5	
745.6	5827.2	
745.78	5650.3	
745.96	3627.6	
746.14	3827.7	
746.32	6348	
746.5	5801.9	
746.68	4250.9	
746.86	3838.6	
747.03	5975.3	
747.21	4866	
747.39	4290.5	
747.57	3853.6	
747.75	5468.1	
747.93	5713.2	
748.11	3865.9	
748.29	3771.7	
748.47	6738.5	
748.65	5259.2	
748.83	4414.1	
749.01	4125.3	
749.19	5706.3	
749.37	4992.3	
749.55	4116.4	
749.73	4125.3	
749.91	5477.6	
750.09	5229.8	
750.26	4173.1	
750.44	3731.4	
750.62	5420.3	
750.8	5347.9	
750.98	3560.7	
751.16	3842.7	
751.34	5491.3	
751.52	4940.4	
751.7	4448.9	
751.88	3574.4	
752.06	5821.7	
752.24	5591.6	
752.42	3576.4	
752.59	3835.8	
752.77	5400.5	
752.95	6274.3	
753.13	4291.2	
753.31	3947.8	
753.49	5169.8	
753.67	5483.1	
753.85	4150.6	
754.03	3812.6	
754.21	5675.6	
754.38	5939.8	
754.56	3945.8	
754.74	3214.6	
754.92	5091.3	
755.1	5636	
755.28	3247.4	
755.46	3320.4	
755.64	6229.2	
755.82	6378.7	
755.99	3555.3	
756.17	3606.5	
756.35	4433.2	
756.53	5579.3	
756.71	2753.2	
756.89	3447.4	
757.07	5238.7	
757.25	4568.3	
757.42	3835.2	
757.6	4500.1	
757.78	5330.9	
757.96	4541.7	
758.14	3676.8	
758.32	3251.5	
758.5	4235.9	
758.67	4840	
758.85	3466.5	
759.03	3568.9	
759.21	5016.8	
759.39	4536.3	
759.57	3192.1	
759.75	4018.1	
759.92	5502.2	
760.1	4940.4	
760.28	4261.1	
760.46	4479.6	
760.64	4789.5	
760.82	4592.9	
760.99	4175.1	
761.17	3534.1	
761.35	5389.6	
761.53	4626.4	
761.71	3637.9	
761.89	4225	
762.06	5268.7	
762.24	4818.2	
762.42	3689.8	
762.6	3545.7	
762.78	4864.6	
762.96	5421.7	
763.13	3981.3	
763.31	3672	
763.49	5437.4	
763.67	4801.8	
763.85	4364.2	
764.02	4756.1	
764.2	5750	
764.38	5044.8	
764.56	3650.8	
764.74	4291.2	
764.91	5737	
765.09	4930.1	
765.27	3449.5	
765.45	3273.3	
765.63	5864	
765.8	5689.3	
765.98	3076.7	
766.16	3355.9	
766.34	4624.3	
766.52	4498.7	
766.69	3999.7	
766.87	3158	
767.05	5001.1	
767.23	5455.8	
767.41	3439.2	
767.58	3564.1	
767.76	5384.8	
767.94	5386.2	
768.12	3568.2	
768.29	4040.6	
768.47	4962.9	
768.65	5537	
768.83	3252.9	
769	4048.8	
769.18	4652.3	
769.36	5128.8	
769.54	4033.8	
769.72	3281.5	
769.89	5479.7	
770.07	5496.7	
770.25	3491.1	
770.43	4368.3	
770.6	6035.4	
770.78	6262	
770.96	3638.6	
771.14	4140.3	
771.31	5410.1	
771.49	4889.2	
771.67	3035.1	
771.85	3255.6	
772.02	4273.4	
772.2	4864.6	
772.38	3803.1	
772.55	3356.6	
772.73	5087.8	
772.91	4894.6	
773.09	3676.1	
773.26	3733.4	
773.44	5050.3	
773.62	4823.6	
773.8	3339.6	
773.97	3093.1	
774.15	5115.1	
774.33	4898.1	
774.5	3194.1	
774.68	3510.9	
774.86	5242.1	
775.04	4856.4	
775.21	3263.8	
775.39	3245.3	
775.57	5054.4	
775.74	5292	
775.92	3137.5	
776.1	3034.4	
776.27	5007.3	
776.45	5895.4	
776.63	3288.4	
776.81	2963.4	
776.98	4738.3	
777.16	5575.3	
777.34	3408.5	
777.51	3635.8	
777.69	4764.3	
777.87	4579.9	
778.04	3418.1	
778.22	3842.7	
778.4	4609.3	
778.57	5083.1	
778.75	2897.2	
778.93	3090.4	
779.1	4461.8	
779.28	4322.6	
779.46	2882.2	
779.64	3178.4	
779.81	5258.5	
779.99	5852.4	
780.17	3846.1	
780.34	3934.1	
780.52	4815.5	
780.69	4949.9	
780.87	3496.6	
781.05	3202.3	
781.22	4838	
781.4	4947.9	
781.58	3284.3	
781.75	2703.3	
781.93	4885.8	
782.11	4359.4	
782.28	4020.2	
782.46	3280.8	
782.64	4313.7	
782.81	5091.3	
782.99	3419.4	
783.17	3289.7	
783.34	4924	
783.52	4366.3	
783.69	3481.5	
783.87	4148.5	
784.05	4504.2	
784.22	4384	
784.4	4128	
784.58	3602.4	
784.75	5147.2	
784.93	4548.5	
785.1	3254.2	
785.28	3775.8	
785.46	4946.5	
785.63	4399.7	
785.81	3312.9	
785.99	3170.3	
786.16	4596.3	
786.34	4857.8	
786.51	3192.8	
786.69	3529.3	
786.87	4243.4	
787.04	4630.5	
787.22	3121.1	
787.39	3865.2	
787.57	4409.3	
787.75	5266	
787.92	3963.5	
788.1	3905.5	
788.27	4468.7	
788.45	4192.2	
788.63	3711.6	
788.8	2786.6	
788.98	4787.5	
789.15	4154	
789.33	2897.2	
789.5	3333.4	
789.68	5091.3	
789.86	5183.4	
790.03	3639.9	
790.21	3140.9	
790.38	5188.9	
790.56	4535.6	
790.73	3139.5	
790.91	3132	
791.09	4461.8	
791.26	4960.9	
791.44	3308.2	
791.61	2919	
791.79	4419.5	
791.96	4463.9	
792.14	2953.2	
792.32	2634.4	
792.49	4483	
792.67	4607.9	
792.84	3121.1	
793.02	2902	
793.19	4918.5	
793.37	5378.6	
793.54	2684.2	
793.72	2921.1	
793.89	5429.2	
794.07	4422.2	
794.25	3281.5	
794.42	2774.3	
794.6	5269.4	
794.77	4922.6	
794.95	3587.4	
795.12	3158	
795.3	4457.1	
795.47	4844.8	
795.65	3482.2	
795.82	3289	
796	4310.3	
796.17	5745.2	
796.35	3257	
796.52	3810.6	
796.7	4930.8	
796.87	4946.5	
797.05	3252.2	
797.22	3903.4	
797.4	4943.8	
797.57	5675.6	
797.75	3377.1	
797.92	3173.7	
798.1	5162.9	
798.27	4328.7	
798.45	2748.4	
798.62	2895.1	
798.8	4713.7	
798.97	5063.9	
799.15	3541.6	
799.32	3381.9	
799.5	4141	
799.67	4728.8	
799.85	3628.3	
800.02	2672.6	
800.2	4420.2	
800.37	4605.9	
800.55	3780.6	
800.72	3156.6	
800.9	5070.8	
801.07	5291.3	
801.25	4236.6	
801.42	3448.8	
801.6	5045.5	
801.77	4755.4	
801.95	3238.5	
802.12	3055.6	
802.29	4887.8	
802.47	4738.3	
802.64	3474	
802.82	2711.5	
802.99	4401.1	
803.17	5135.6	
803.34	3339.6	
803.52	3074.7	
803.69	5696.8	
803.87	4230.4	
804.04	3401	
804.21	3376.4	
804.39	5243.5	
804.56	4596.3	
804.74	2869.2	
804.91	3485	
805.09	4439.3	
805.26	4549.9	
805.44	2973	
805.61	3229.6	
805.78	4957.4	
805.96	4986.1	
806.13	3454.9	
806.31	3693.2	
806.48	4076.8	
806.66	4479.6	
806.83	3435.8	
807	3403.7	
807.18	4441.4	
807.35	4739.7	
807.53	3321.8	
807.7	2757.2	
807.87	5356.1	
808.05	4461.8	
808.22	3704.8	
808.4	2820.1	
808.57	4441.4	
808.74	4193.6	
808.92	3165.5	
809.09	3889.8	
809.27	4439.3	
809.44	4835.3	
809.61	2776.4	
809.79	3026.2	
809.96	5416.9	
810.14	4988.9	
810.31	2723.1	
810.48	3257	
810.66	4515.8	
810.83	5063.9	
811.01	3101.3	
811.18	3461.7	
811.35	5022.3	
811.53	4015.4	
811.7	3736.2	
811.87	3459.7	
812.05	4559.5	
812.22	4465.9	
812.39	3022.1	
812.57	2968.9	
812.74	4502.1	
812.92	5712.5	
813.09	3352.5	
813.26	3474.7	
813.44	5588.9	
813.61	4360.8	
813.78	2776.4	
813.96	3609.9	
814.13	4486.4	
814.3	4297.3	
814.48	3912.3	
814.65	3284.3	
814.82	5343.2	
815	4292.5	
815.17	3360	
815.34	3988.1	
815.52	4433.2	
815.69	4420.2	
815.87	3312.2	
816.04	3282.9	
816.21	4502.8	
816.38	4043.4	
816.56	3191.4	
816.73	3028.3	
816.9	5511.8	
817.08	5038	
817.25	3082.9	
817.42	3733.4	
817.6	4138.9	
817.77	4468	
817.94	3365.5	
818.12	2961.4	
818.29	4290.5	
818.46	6243.6	
818.64	3169.6	
818.81	2941.6	
818.98	4222.9	
819.16	5843.5	
819.33	3565.5	
819.5	3345.7	
819.67	4803.9	
819.85	5286.5	
820.02	3332.7	
820.19	3488.4	
820.37	4689.8	
820.54	4388.1	
820.71	3425.6	
820.88	4126	
821.06	4651.6	
821.23	4263.2	
821.4	3412.6	
821.58	3386	
821.75	4989.5	
821.92	4602.5	
822.09	2788.7	
822.27	3046.7	
822.44	4495.3	
822.61	4388.1	
822.79	2818.7	
822.96	5150	
823.13	4773.1	
823.3	4228.4	
823.48	3171.6	
823.65	2915.6	
823.82	5036.6	
823.99	4206.5	
824.17	3969	
824.34	2977.7	
824.51	5738.4	
824.68	4562.2	
824.86	3042.6	
825.03	3383.9	
825.2	4516.5	
825.37	5243.5	
825.55	3045.3	
825.72	3374.4	
825.89	5702.9	
826.06	5356.1	
826.24	3229.6	
826.41	3263.8	
826.58	5381.4	
826.75	4663.9	
826.92	2654.9	
827.1	2938.8	
827.27	6985.6	
827.44	5673.6	
827.61	3168.9	
827.79	3706.1	
827.96	4332.8	
828.13	4523.3	
828.3	3217.4	
828.47	2788.7	
828.65	4762.2	
828.82	4683	
828.99	4046.1	
829.16	3618.1	
829.34	4994.3	
829.51	4864.6	
829.68	3274	
829.85	3414.6	
830.02	5261.9	
830.2	5044.8	
830.37	2656.2	
830.54	3885.7	
830.71	5614.8	
830.88	4491.9	
831.05	2611.2	
831.23	3016	
831.4	5465.3	
831.57	5938.4	
831.74	3162.1	
831.91	2815.3	
832.09	4790.9	
832.26	5039.4	
832.43	3167.5	
832.6	3523.2	
832.77	4773.1	
832.94	5332.9	
833.12	2637.8	
833.29	3172.3	
833.46	4741.7	
833.63	6091.3	
833.8	3449.5	
833.97	3151.1	
834.15	5031.9	
834.32	4816.1	
834.49	3312.9	
834.66	3353.9	
834.83	5102.2	
835	4321.2	
835.17	3087	
835.35	3085.6	
835.52	4924	
835.69	4828.4	
835.86	3239.9	
836.03	2681.5	
836.2	5005.9	
836.37	4685.1	
836.55	3209.8	
836.72	3018	
836.89	4619.5	
837.06	5063.9	
837.23	3297.2	
837.4	3480.2	
837.57	5657.9	
837.75	6102.3	
837.92	2947	
838.09	3132	
838.26	4709	
838.43	5178.6	
838.6	3383.9	
838.77	3017.3	
838.94	5814.2	
839.11	5587.5	
839.29	3186.6	
839.46	2590.7	
839.63	5039.4	
839.8	4789.5	
839.97	3131.3	
840.14	3134.1	
840.31	4914.4	
840.48	5016.8	
840.65	2667.1	
840.82	3039.9	
841	5005.2	
841.17	4875.5	
841.34	2872.6	
841.51	2957.9	
841.68	4962.9	
841.85	4729.4	
842.02	2992.8	
842.19	2561.3	
842.36	4814.8	
842.53	4846.9	
842.7	2784.6	
842.87	3461.7	
843.05	6123.4	
843.22	4735.6	
843.39	2785.9	
843.56	2962.7	
843.73	4621.6	
843.9	5068	
844.07	4493.9	
844.24	3719.8	
844.41	6768.5	
844.58	4412	
844.75	2812.5	
844.92	3010.5	
845.09	4961.5	
845.26	4999.8	
845.43	2872.6	
845.6	3038.5	
845.77	5006.6	
845.94	4742.4	
846.12	3186.6	
846.29	3309.5	
846.46	5150	
846.63	4964.3	
846.8	2867.8	
846.97	3312.2	
847.14	5350	
847.31	4930.8	
847.48	3216	
847.65	3480.9	
847.82	5221	
847.99	5134.9	
848.16	3749.1	
848.33	3491.8	
848.5	4592.2	
848.67	5381.4	
848.84	2851.5	
849.01	2993.4	
849.18	4514.4	
849.35	4250.9	
849.52	3488.4	
849.69	2847.4	
849.86	5158.2	
850.03	5250.3	
850.2	2880.1	
850.37	3438.5	
850.54	5179.3	
850.71	4728.1	
850.88	3360.7	
851.05	2823.5	
851.22	4922	
851.39	5352	
851.56	2751.1	
851.73	3234.4	
851.9	4431.8	
852.07	5196.4	
852.24	3194.1	
852.41	2762.7	
852.58	4971.1	
852.75	4502.8	
852.92	3233.7	
853.09	2837.8	
853.26	4599.1	
853.43	5269.4	
853.6	2906.8	
853.77	2494.4	
853.94	5436.7	
854.11	4387.4	
854.28	4108.9	
854.44	3117.7	
854.61	5664.7	
854.78	5182	
854.95	2826.2	
855.12	3481.5	
855.29	4138.3	
855.46	5430.5	
855.63	2889.7	
855.8	3900	
855.97	4560.8	
856.14	5281.7	
856.31	3914.4	
856.48	3110.2	
856.65	4645.5	
856.82	4371.7	
856.99	2784.6	
857.16	3084.9	
857.33	5866.7	
857.49	4704.9	
857.66	3119.7	
857.83	3299.3	
858	4678.2	
858.17	4885.8	
858.34	2721.8	
858.51	2879.4	
858.68	5446.2	
858.85	5528.2	
859.02	3211.9	
859.19	3502	
859.36	4443.4	
859.52	4446.8	
859.69	2887.6	
859.86	3298.6	
860.03	4496.7	
860.2	5375.9	
860.37	2600.9	
860.54	2864.4	
860.71	5136.3	
860.88	5412.1	
861.05	3172.3	
861.21	3587.4	
861.38	5458.5	
861.55	4302.8	
861.72	2669.9	
861.89	3177.8	
862.06	5154.1	
862.23	5562.3	
862.4	2790	
862.56	2980.5	
862.73	5048.2	
862.9	4861.9	
863.07	3317	
863.24	2637.1	
863.41	4379.2	
863.58	4453	
863.75	2919.7	
863.91	3257	
864.08	5347.9	
864.25	5068.7	
864.42	3472.7	
864.59	3922.5	
864.76	5649.7	
864.93	4412.7	
865.09	2809.8	
865.26	3047.4	
865.43	5310.4	
865.6	5592.3	
865.77	2542.9	
865.94	2843.9	
866.1	5287.2	
866.27	5079.6	
866.44	4184.7	
866.61	2797.5	
866.78	4706.9	
866.95	5070.1	
867.11	2813.9	
867.28	2593.4	
867.45	5247.6	
867.62	4456.4	
867.79	3256.3	
867.96	2866.5	
868.12	4436.6	
868.29	5141.8	
868.46	2850.8	
868.63	3736.2	
868.8	5263.3	
868.97	5119.2	
869.13	3022.8	
869.3	2962	
869.47	4996.4	
869.64	5221.6	
869.81	2891	
869.97	2892.4	
870.14	4933.6	
870.31	5420.3	
870.48	2820.1	
870.65	3558	
870.81	4727.4	
870.98	4714.4	
871.15	3242.6	
871.32	3014.6	
871.48	5037.3	
871.65	5477.6	
871.82	2812.5	
871.99	3114.3	
872.16	5782.8	
872.32	5309	
872.49	2924.5	
872.66	2876	
872.83	5143.8	
872.99	4548.5	
873.16	3295.9	
873.33	2824.1	
873.5	4859.1	
873.67	4863.2	
873.83	3001	
874	3743	
874.17	4885.8	
874.34	5694	
874.5	3603.1	
874.67	3466.5	
874.84	5381.4	
875.01	4368.3	
875.17	3900.7	
875.34	2859.6	
875.51	4919.9	
875.68	5845.6	
875.84	3377.1	
876.01	4087.1	
876.18	5139	
876.34	5058.5	
876.51	2831.7	
876.68	2754.5	
876.85	4702.1	
877.01	5358.2	
877.18	3934.1	
877.35	2836.4	
877.52	4899.4	
877.68	4390.2	
877.85	2805	
878.02	2785.2	
878.18	4762.9	
878.35	4592.9	
878.52	2324.4	
878.69	3172.3	
878.85	5180	
879.02	5078.3	
879.19	3973.7	
879.35	3069.9	
879.52	5072.1	
879.69	5242.8	
879.86	2540.2	
880.02	3160	
880.19	4768.4	
880.36	5656.5	
880.52	3185.3	
880.69	3364.8	
880.86	5142.4	
881.02	5243.5	
881.19	3102	
881.36	3051.5	
881.52	5081.7	
881.69	4558.1	
881.86	3096.5	
882.02	2975.7	
882.19	5325.4	
882.36	6055.8	
882.52	2922.5	
882.69	3943.7	
882.86	4930.1	
883.02	4885.8	
883.19	3383.2	
883.36	3254.9	
883.52	5171.1	
883.69	5867.4	
883.86	2912.2	
884.02	2598.9	
884.19	5182	
884.36	4823	
884.52	3216	
884.69	3033	
884.86	4644.1	
885.02	5586.2	
885.19	3179.8	
885.36	3246.7	
885.52	4762.9	
885.69	5003.2	
885.86	4048.8	
886.02	3614	
886.19	5074.2	
886.35	4677.6	
886.52	3105.4	
886.69	3938.9	
886.85	4454.3	
887.02	5363.6	
887.19	5363.6	
887.35	5363.6	
887.52	5363.6	
887.68	5363.6	
887.85	5363.6	
888.02	5363.6	
888.18	5363.6	
888.35	5363.6	
888.51	5363.6	
888.68	5363.6	
888.85	5363.6	
889.01	5363.6	
889.18	5363.6	
889.35	5363.6	
889.51	5363.6	
889.68	5363.6	
889.84	5363.6	
890.01	5363.6	
890.17	5363.6	
890.34	5363.6	
890.51	5363.6	
890.67	5363.6	
890.84	5363.6	
891	5363.6	
891.17	5363.6	
891.34	5363.6	
891.5	5363.6	
891.67	5363.6	
891.83	5363.6	
892	5363.6	
892.16	5363.6	
892.33	5363.6	
892.5	5363.6	
892.66	5363.6	
892.83	5363.6	
892.99	5363.6	
893.16	5363.6	
893.32	5363.6	
893.49	5363.6	
893.65	5363.6	
893.82	5363.6	
893.99	5363.6	
894.15	5363.6	
894.32	5363.6	
894.48	5363.6	
894.65	5363.6	
894.81	5363.6	
894.98	5363.6	
895.14	5363.6	
895.31	5363.6	
895.47	5363.6	
895.64	5363.6	
895.81	5363.6	
895.97	5363.6	
896.14	5363.6	
896.3	5363.6	
896.47	5363.6	
896.63	5363.6	
896.8	5363.6	
896.96	5363.6	
897.13	5363.6	
897.29	5363.6	
897.46	5363.6	
897.62	5363.6	
897.79	5363.6	
897.95	5363.6	
898.12	5363.6	
898.28	5363.6	
898.45	5363.6	
898.61	5363.6	
898.78	5363.6	
898.94	5363.6	
899.11	5363.6	
899.27	5363.6	
899.44	5363.6	
899.6	5363.6	
899.77	5363.6	
899.93	5363.6	
900.1	5363.6	
900.26	5363.6	
900.43	5363.6	
900.59	5363.6	
900.76	5363.6	
900.92	5363.6	
901.09	5363.6	
901.25	5363.6	
901.42	5363.6	
901.58	5363.6	
901.75	5363.6	
901.91	5363.6	
902.07	5363.6	
902.24	5363.6	
902.4	5363.6	
902.57	5363.6	
902.73	5363.6	
902.9	5363.6	
903.06	5363.6	
903.23	5363.6	
903.39	5363.6	
903.56	5363.6	
903.72	5363.6	
903.88	5363.6	
904.05	5363.6	
904.21	5363.6	
904.38	5363.6	
904.54	5363.6	
904.71	5363.6	
904.87	5363.6	
905.03	5363.6	
905.2	5363.6	
905.36	5363.6	
905.53	5363.6	
905.69	5363.6	
905.86	5363.6	
906.02	5363.6	
906.18	5363.6	
906.35	5363.6	
906.51	5363.6	
906.68	5363.6	
906.84	5363.6	
907.01	5363.6	
907.17	5363.6	
907.33	5363.6	
907.5	5363.6	
907.66	5363.6	
907.83	5363.6	
907.99	5363.6	
908.15	5363.6	
908.32	5363.6	
908.48	5363.6	
908.65	5363.6	
908.81	5363.6	
908.97	5363.6	
909.14	5363.6	
909.3	5363.6	
909.47	5363.6	
909.63	5363.6	
909.79	5363.6	
909.96	5363.6	
910.12	5363.6	
910.28	5363.6	
910.45	5363.6	
910.61	5363.6	
910.78	5363.6	
910.94	5363.6	
911.1	5363.6	
911.27	5363.6	
911.43	5363.6	
911.59	5363.6	
911.76	5363.6	
911.92	5363.6	
912.08	5363.6	
912.25	5363.6	
912.41	5363.6	
912.57	5363.6	
912.74	5363.6	
912.9	5363.6	
913.07	5363.6	
913.23	5363.6	
913.39	5363.6	
913.56	5363.6	
913.72	5363.6	
913.88	5363.6	
914.05	5363.6	
914.21	5363.6	
914.37	5363.6	
914.54	5363.6	
914.7	5363.6	
914.86	5363.6	
915.03	5363.6	
915.19	5363.6	
