Wavelength	Intensities	
nm	a.u.	
179.22	1782.4	
179.44	1785.1	
179.65	1779.7	
179.86	1790.6	
180.08	1824.7	
180.29	4353.3	
180.51	3177.1	
180.72	5231.2	
180.94	5995.1	
181.15	2958.6	
181.37	2912.2	
181.58	5064.6	
181.79	5337	
182.01	3081.5	
182.22	3221.5	
182.44	5348.6	
182.65	4489.1	
182.87	4095.9	
183.08	3551.9	
183.29	5606	
183.51	4633.9	
183.72	3306.1	
183.94	4660.5	
184.15	4998.4	
184.37	4963.6	
184.58	2861	
184.79	3877.5	
185.01	4723.3	
185.22	5289.9	
185.44	4118.5	
185.65	3542.3	
185.86	4990.2	
186.08	4552.6	
186.29	2814.6	
186.51	3040.6	
186.72	4676.2	
186.94	5482.4	
187.15	3557.3	
187.36	3564.1	
187.58	6941.2	
187.79	5134.9	
188.01	3714.3	
188.22	5674.9	
188.43	6036.7	
188.65	5273.5	
188.86	3025.5	
189.08	3577.8	
189.29	4865.3	
189.5	4782	
189.72	3333.4	
189.93	3375.1	
190.15	5487.2	
190.36	6457.2	
190.57	3631	
190.79	3547.1	
191	5544.5	
191.22	5502.2	
191.43	3604.4	
191.64	3054.2	
191.86	5694	
192.07	5552	
192.29	3155.2	
192.5	3305.4	
192.71	5500.2	
192.93	4813.4	
193.14	3307.5	
193.35	3356.6	
193.57	4823	
193.78	5449.6	
194	2699.2	
194.21	3223.5	
194.42	4640	
194.64	5029.1	
194.85	3536.2	
195.07	4140.3	
195.28	5013.4	
195.49	4412.7	
195.71	4326	
195.92	3084.2	
196.13	5208	
196.35	5287.9	
196.56	4601.8	
196.78	3553.2	
196.99	6406	
197.2	6046.3	
197.42	3572.3	
197.63	3615.3	
197.84	4581.3	
198.06	5172.5	
198.27	3261	
198.48	4380.6	
198.7	4821.6	
198.91	5008	
199.13	3586	
199.34	3581.9	
199.55	5404.6	
199.77	4347.8	
199.98	3173.7	
200.19	3669.3	
200.41	4898.1	
200.62	4625.7	
200.83	3738.9	
201.05	4005.8	
201.26	4930.1	
201.47	4732.9	
201.69	3180.5	
201.9	3114.3	
202.11	5008	
202.33	5829.9	
202.54	3412.6	
202.76	3850.2	
202.97	5058.5	
203.18	5079	
203.4	3708.9	
203.61	3760.1	
203.82	5072.1	
204.04	4724	
204.25	3614	
204.46	3594.2	
204.68	5013.4	
204.89	5212.1	
205.1	3532.7	
205.32	3085.6	
205.53	5384.8	
205.74	5457.8	
205.96	2648	
206.17	3677.5	
206.38	5332.9	
206.6	5409.4	
206.81	4048.8	
207.02	3429.7	
207.24	5202.5	
207.45	5554.1	
207.66	3445.4	
207.88	2983.9	
208.09	5175.2	
208.3	5003.2	
208.52	3188.7	
208.73	3495.2	
208.94	5025	
209.15	5571.2	
209.37	3450.1	
209.58	3599.6	
209.79	5511.1	
210.01	4857.8	
210.22	2807.8	
210.43	2919	
210.65	5025.7	
210.86	5294	
211.07	3418.1	
211.29	3197.6	
211.5	5261.9	
211.71	4975.2	
211.93	3215.3	
212.14	3163.4	
212.35	4947.9	
212.56	5161.6	
212.78	3627.6	
212.99	2984.6	
213.2	5823.7	
213.42	4805.2	
213.63	3292.5	
213.84	3421.5	
214.06	4532.8	
214.27	4600.4	
214.48	3465.2	
214.69	3652.9	
214.91	5619.6	
215.12	5680.4	
215.33	3691.1	
215.55	3976.5	
215.76	6049	
215.97	5311.7	
216.18	3493.8	
216.4	3466.5	
216.61	4765.6	
216.82	5400.5	
217.04	3226.9	
217.25	3358	
217.46	5532.9	
217.67	5340.4	
217.89	2861.7	
218.1	2966.8	
218.31	5057.8	
218.53	5173.9	
218.74	3384.6	
218.95	3231.7	
219.16	4960.2	
219.38	5748	
219.59	3252.9	
219.8	3817.4	
220.01	6285.2	
220.23	5040.1	
220.44	4192.9	
220.65	3139.5	
220.87	5098.8	
221.08	5489.9	
221.29	2992.8	
221.5	3825.6	
221.72	6660.7	
221.93	4741.7	
222.14	3627.6	
222.35	4219.5	
222.57	5045.5	
222.78	5332.2	
222.99	3504.1	
223.2	3715.7	
223.42	5295.4	
223.63	5358.9	
223.84	2732	
224.05	2724.5	
224.27	6217	
224.48	5775.3	
224.69	4235.2	
224.9	3609.2	
225.12	5177.3	
225.33	4986.1	
225.54	2895.1	
225.75	3212.6	
225.97	4652.3	
226.18	4914.4	
226.39	3451.5	
226.6	3300.6	
226.82	4872.1	
227.03	4661.9	
227.24	3593.5	
227.45	3045.3	
227.67	5373.2	
227.88	5763	
228.09	3984	
228.3	3994.2	
228.52	5319.9	
228.73	4928.8	
228.94	3345.7	
229.15	3041.2	
229.36	4980.7	
229.58	4916.5	
229.79	3424.9	
230	3942.3	
230.21	5891.3	
230.43	5132.9	
230.64	3615.3	
230.85	3707.5	
231.06	5397.1	
231.28	5339.7	
231.49	3034.4	
231.7	3539.6	
231.91	5339.1	
232.12	5059.8	
232.34	3106.8	
232.55	3526.6	
232.76	5553.4	
232.97	5144.5	
233.18	3160	
233.4	3598.3	
233.61	5191.6	
233.82	4835.9	
234.03	3315	
234.25	3307.5	
234.46	6763.8	
234.67	5038	
234.88	3652.2	
235.09	3256.3	
235.31	5260.5	
235.52	4962.9	
235.73	3534.8	
235.94	3041.9	
236.15	4819.6	
236.37	5969.8	
236.58	3170.9	
236.79	3489.1	
237	5257.8	
237.21	4591.5	
237.43	3726.6	
237.64	2858.3	
237.85	8669.1	
238.06	4660.5	
238.27	3692.5	
238.48	3041.9	
238.7	5315.2	
238.91	4922.6	
239.12	3379.8	
239.33	3462.4	
239.54	4650.9	
239.76	4943.1	
239.97	3472.7	
240.18	3474	
240.39	6151.4	
240.6	5218.9	
240.82	3646.1	
241.03	3001.6	
241.24	5027.1	
241.45	5694.7	
241.66	3153.2	
241.87	3657.7	
242.09	5636.7	
242.3	5920.7	
242.51	3755.3	
242.72	3499.3	
242.93	5360.2	
243.14	5010	
243.36	3980.6	
243.57	4274.1	
243.78	5713.2	
243.99	5332.2	
244.2	3465.2	
244.41	3114.3	
244.63	4646.2	
244.84	5255.8	
245.05	3695.9	
245.26	3446	
245.47	5270.8	
245.68	5462.6	
245.9	4508.3	
246.11	3644.7	
246.32	4821.6	
246.53	5193.6	
246.74	5483.8	
246.95	2962.7	
247.16	4638.6	
247.38	4983.4	
247.59	2966.8	
247.8	3495.9	
248.01	4706.9	
248.22	4977.2	
248.43	3160.7	
248.64	3368.9	
248.86	4519.2	
249.07	4788.2	
249.28	3095.2	
249.49	3567.6	
249.7	5485.8	
249.91	5541.1	
250.12	2930	
250.34	3031	
250.55	5136.3	
250.76	5015.5	
250.97	3592.1	
251.18	3603.1	
251.39	5555.5	
251.6	5173.2	
251.81	3620.8	
252.03	3614	
252.24	4810.7	
252.45	5435.3	
252.66	3048.1	
252.87	3820.1	
253.08	5068.7	
253.29	6421.1	
253.5	3107.5	
253.72	4160.8	
253.93	4881	
254.14	5848.3	
254.35	3306.8	
254.56	3353.9	
254.77	5201.8	
254.98	4635.9	
255.19	3315.7	
255.41	4175.1	
255.62	5143.8	
255.83	5556.8	
256.04	3747.8	
256.25	3629.7	
256.46	6034	
256.67	4749.2	
256.88	3599	
257.09	3979.2	
257.31	4650.3	
257.52	4733.5	
257.73	4401.1	
257.94	3280.8	
258.15	4909.7	
258.36	5017.5	
258.57	4134.8	
258.78	2669.9	
258.99	5417.6	
259.2	4897.4	
259.41	3335.5	
259.63	3403	
259.84	5751.4	
260.05	5998.5	
260.26	4294.6	
260.47	3233.1	
260.68	5461.9	
260.89	4921.3	
261.1	3942.3	
261.31	3241.9	
261.52	5495.4	
261.73	5846.3	
261.95	4299.4	
262.16	3709.6	
262.37	5655.1	
262.58	5677.7	
262.79	4219.5	
263	3329.3	
263.21	5150	
263.42	4881	
263.63	3424.2	
263.84	3351.8	
264.05	5521.3	
264.26	5717.9	
264.47	4093.9	
264.69	3703.4	
264.9	5635.3	
265.11	5167.7	
265.32	3212.6	
265.53	3289	
265.74	5134.3	
265.95	4515.8	
266.16	3519.8	
266.37	3819.5	
266.58	5103.5	
266.79	4818.9	
267	3269.9	
267.21	3061.7	
267.42	4622.9	
267.63	5019.6	
267.84	3431.7	
268.06	2998.9	
268.27	5440.1	
268.48	5632.6	
268.69	3370.3	
268.9	4022.2	
269.11	5615.5	
269.32	4512.4	
269.53	3510.9	
269.74	3215.3	
269.95	5203.9	
270.16	4505.5	
270.37	3523.2	
270.58	3974.4	
270.79	4863.2	
271	5441.5	
271.21	3721.8	
271.42	3490.4	
271.63	5141.1	
271.84	4709	
272.05	2826.2	
272.26	3154.6	
272.47	5012.1	
272.68	5216.9	
272.89	3311.6	
273.11	3827	
273.32	4829.8	
273.53	5784.1	
273.74	3757.3	
273.95	3670	
274.16	5491.3	
274.37	5011.4	
274.58	3777.8	
274.79	3080.1	
275	5124	
275.21	5553.4	
275.42	4482.3	
275.63	3879.5	
275.84	5195.7	
276.05	6483.2	
276.26	3659.7	
276.47	3442.6	
276.68	4861.9	
276.89	5816.9	
277.1	3887	
277.31	3131.3	
277.52	5171.1	
277.73	5392.3	
277.94	3026.2	
278.15	3364.8	
278.36	5182.7	
278.57	4733.5	
278.78	3335.5	
278.99	3701.4	
279.2	4744.5	
279.41	4678.9	
279.62	4312.3	
279.83	3117	
280.04	6036.7	
280.25	4663.9	
280.46	4317.8	
280.67	3492.5	
280.88	4723.3	
281.09	5599.8	
281.3	3656.3	
281.51	4568.3	
281.72	4795	
281.93	5441.5	
282.14	3251.5	
282.35	3515	
282.56	5449	
282.77	5368.4	
282.98	3407.1	
283.19	4120.5	
283.4	6557.6	
283.61	4921.3	
283.82	3145.7	
284.03	4263.2	
284.24	5156.1	
284.45	5504.3	
284.66	4284.4	
284.87	4180.6	
285.08	5507.7	
285.29	5664	
285.5	3006.4	
285.71	3381.9	
285.92	5481.7	
286.12	6128.9	
286.33	4182.6	
286.54	3397.6	
286.75	5399.8	
286.96	4915.1	
287.17	3148.4	
287.38	4146.5	
287.59	4764.9	
287.8	4726	
288.01	3405.8	
288.22	3892.5	
288.43	5447.6	
288.64	4607.2	
288.85	3972.4	
289.06	3824.9	
289.27	5369.1	
289.48	5804.6	
289.69	4282.3	
289.9	3887	
290.11	5584.8	
290.32	4755.4	
290.53	4071.4	
290.74	3757.3	
290.94	5423.7	
291.15	5532.2	
291.36	3310.2	
291.57	3850.2	
291.78	4833.2	
291.99	4482.3	
292.2	3176.4	
292.41	3741	
292.62	5483.8	
292.83	5278.3	
293.04	4575.2	
293.25	3180.5	
293.46	4861.2	
293.67	5476.3	
293.88	3242.6	
294.09	3163.4	
294.29	4618.9	
294.5	5141.1	
294.71	3470.6	
294.92	3348.4	
295.13	4895.3	
295.34	5954.1	
295.55	2936.8	
295.76	2951.8	
295.97	5315.8	
296.18	5980.8	
296.39	3075.4	
296.6	3288.4	
296.81	5098.1	
297.01	5379.3	
297.22	3437.9	
297.43	3250.8	
297.64	4807.9	
297.85	4710.3	
298.06	2712.9	
298.27	2945.7	
298.48	5038	
298.69	4805.2	
298.9	3562.1	
299.11	3219.4	
299.31	4630.5	
299.52	4653	
299.73	3776.5	
299.94	3690.4	
300.15	5027.1	
300.36	4716.5	
300.57	3675.4	
300.78	3706.1	
300.99	4917.2	
301.2	5094	
301.4	3198.2	
301.61	3525.9	
301.82	5361.6	
302.03	5385.5	
302.24	3932.8	
302.45	3105.4	
302.66	5298.8	
302.87	5554.8	
303.08	3299.3	
303.29	4400.4	
303.49	4823	
303.7	5005.9	
303.91	2942.9	
304.12	4201.7	
304.33	4603.2	
304.54	5169.8	
304.75	3302	
304.96	3175.7	
305.16	5278.3	
305.37	5862	
305.58	2876.7	
305.79	2957.3	
306	5327.4	
306.21	4497.3	
306.42	3317	
306.63	4859.8	
306.83	4840	
307.04	5449.6	
307.25	3583.9	
307.46	3547.1	
307.67	4396.3	
307.88	5415.5	
308.09	3243.3	
308.29	3308.8	
308.5	5051	
308.71	5502.9	
308.92	3452.9	
309.13	3175.7	
309.34	4920.6	
309.55	4930.1	
309.75	4024.9	
309.96	3707.5	
310.17	5374.6	
310.38	4790.9	
310.59	3847.5	
310.8	3087.7	
311.01	4915.1	
311.21	4979.3	
311.42	3177.1	
311.63	3208.5	
311.84	4811.4	
312.05	5145.9	
312.26	3649.5	
312.46	3947.8	
312.67	4866	
312.88	4613.4	
313.09	3117.7	
313.3	3093.1	
313.51	5726.8	
313.71	6004.6	
313.92	3136.1	
314.13	3327.9	
314.34	5211.4	
314.55	4992.9	
314.76	3970.3	
314.96	3571	
315.17	5094	
315.38	5302.9	
315.59	3185.3	
315.8	3061.7	
316.01	5745.2	
316.21	5784.8	
316.42	3037.8	
316.63	3462.4	
316.84	4956.1	
317.05	5606	
317.26	3737.5	
317.46	3347.1	
317.67	4976.6	
317.88	5356.8	
318.09	4023.6	
318.3	2957.3	
318.5	4790.2	
318.71	5257.8	
318.92	4991.6	
319.13	3655.6	
319.34	5453.7	
319.54	5579.3	
319.75	2945.7	
319.96	2843.9	
320.17	5368.4	
320.38	5518.6	
320.58	2890.4	
320.79	3416	
321	5548.6	
321.21	5623.7	
321.42	3478.8	
321.62	2883.5	
321.83	4755.4	
322.04	4996.4	
322.25	3375.7	
322.46	3162.7	
322.66	5127.4	
322.87	5294.7	
323.08	3887.7	
323.29	3098.6	
323.5	5943.2	
323.7	4638.6	
323.91	4286.4	
324.12	3802.4	
324.33	5100.1	
324.53	5302.2	
324.74	3659.7	
324.95	3891.1	
325.16	4509.6	
325.37	4889.9	
325.57	3170.3	
325.78	3196.2	
325.99	5091.3	
326.2	4595.6	
326.4	4380.6	
326.61	2946.3	
326.82	5004.6	
327.03	5090.6	
327.24	4425	
327.44	4149.2	
327.65	5246.2	
327.86	4308.9	
328.07	3691.8	
328.27	3087.7	
328.48	5621	
328.69	4628.4	
328.9	4493.2	
329.1	3397.6	
329.31	4913.1	
329.52	5717.2	
329.73	3183.2	
329.93	3557.3	
330.14	5079.6	
330.35	5197.7	
330.56	5102.2	
330.76	3862.5	
330.97	4862.6	
331.18	5298.8	
331.39	3554.6	
331.59	2862.4	
331.8	5498.8	
332.01	5636	
332.22	3275.4	
332.42	3681.6	
332.63	5149.3	
332.84	4803.9	
333.05	3551.2	
333.25	3227.6	
333.46	4825.7	
333.67	4984.1	
333.88	3317	
334.08	3676.1	
334.29	7277.8	
334.5	5582.8	
334.7	3104.7	
334.91	4384.7	
335.12	4659.1	
335.33	5404.6	
335.53	3496.6	
335.74	5105.6	
335.95	4911.7	
336.16	4660.5	
336.36	3502.7	
336.57	3943	
336.78	4579.3	
336.98	5496.1	
337.19	4330.8	
337.4	3390.8	
337.61	6042.9	
337.81	4666	
338.02	3239.9	
338.23	4148.5	
338.43	5683.8	
338.64	4750.6	
338.85	3205.1	
339.05	4167.6	
339.26	5798.5	
339.47	4541	
339.68	3210.5	
339.88	4599.1	
340.09	5255.8	
340.3	5482.4	
340.5	3736.9	
340.71	2876	
340.92	4597	
341.13	5629.9	
341.33	3035.1	
341.54	3704.1	
341.75	5223.7	
341.95	4878.9	
342.16	3616	
342.37	3868.6	
342.57	4635.9	
342.78	4942.4	
342.99	3933.5	
343.19	2871.9	
343.4	5389.6	
343.61	5238	
343.81	3331.4	
344.02	3105.4	
344.23	5387.5	
344.43	5713.2	
344.64	3941	
344.85	3835.2	
345.06	5264	
345.26	5500.8	
345.47	3636.5	
345.68	4259.8	
345.88	4491.9	
346.09	5399.1	
346.3	3738.2	
346.5	2856.9	
346.71	5021.6	
346.92	4775.2	
347.12	2949.1	
347.33	3635.1	
347.54	5558.9	
347.74	5843.5	
347.95	3614.7	
348.16	2766.8	
348.36	4807.9	
348.57	4693.9	
348.78	3670.6	
348.98	3817.4	
349.19	5011.4	
349.39	4493.2	
349.6	2940.9	
349.81	3243.3	
350.01	5237.3	
350.22	4734.2	
350.43	3547.8	
350.63	4170.3	
350.84	5034.6	
351.05	4823	
351.25	3166.8	
351.46	2962	
351.67	5459.2	
351.87	4749.2	
352.08	3384.6	
352.29	3825.6	
352.49	5366.4	
352.7	5452.4	
352.9	3119.1	
353.11	3817.4	
353.32	5992.4	
353.52	4824.3	
353.73	3056.9	
353.94	3830.4	
354.14	5287.2	
354.35	5037.3	
354.55	3110.2	
354.76	3521.8	
354.97	5257.8	
355.17	4979.3	
355.38	2989.4	
355.59	4057	
355.79	4722.6	
356	5010	
356.2	3456.3	
356.41	3048.7	
356.62	4481	
356.82	4912.4	
357.03	3697.9	
357.24	3336.1	
357.44	4724.7	
357.65	4801.8	
357.85	4373.8	
358.06	3532.1	
358.27	4501.4	
358.47	4642.7	
358.68	2927.2	
358.88	3691.8	
359.09	5175.2	
359.3	5501.5	
359.5	4259.1	
359.71	3788.7	
359.91	5815.5	
360.12	5294	
360.33	3644.7	
360.53	4091.8	
360.74	4681	
360.94	4772.4	
361.15	3842	
361.36	3194.8	
361.56	5355.4	
361.77	4947.9	
361.97	4214.7	
362.18	3354.6	
362.38	5353.4	
362.59	4590.2	
362.8	3078.8	
363	2978.4	
363.21	4407.2	
363.41	4988.2	
363.62	3569.6	
363.83	4311.7	
364.03	5078.3	
364.24	5792.3	
364.44	4487.1	
364.65	4417.5	
364.85	4829.8	
365.06	4525.3	
365.27	3244.7	
365.47	3301.3	
365.68	5748	
365.88	4842.8	
366.09	3637.2	
366.29	3263.8	
366.5	5028.4	
366.71	5434.6	
366.91	4399	
367.12	3728.7	
367.32	5846.3	
367.53	5292	
367.73	3667.2	
367.94	4486.4	
368.14	5241.4	
368.35	5965.7	
368.56	3615.3	
368.76	3459	
368.97	5300.1	
369.17	6727.6	
369.38	3183.2	
369.58	3491.8	
369.79	4465.9	
369.99	5666.7	
370.2	4337.6	
370.4	3568.2	
370.61	5061.9	
370.82	6093.4	
371.02	3491.1	
371.23	2941.6	
371.43	4453	
371.64	5540.4	
371.84	3452.9	
372.05	4459.8	
372.25	6621.8	
372.46	5235.3	
372.66	3414.6	
372.87	3491.8	
373.07	5344.5	
373.28	6625.9	
373.48	4286.4	
373.69	3984	
373.9	4895.3	
374.1	4945.8	
374.31	4242.7	
374.51	3859.1	
374.72	5536.3	
374.92	4601.8	
375.13	4356.7	
375.33	3693.9	
375.54	5203.2	
375.74	4784.1	
375.95	3692.5	
376.15	4773.1	
376.36	5232.6	
376.56	5012.1	
376.77	3803.8	
376.97	4133.5	
377.18	6113.2	
377.38	5298.1	
377.59	4400.4	
377.79	3297.2	
378	5100.1	
378.2	5407.3	
378.41	3429	
378.61	3305.4	
378.82	5513.1	
379.02	4738.3	
379.23	3537.5	
379.43	4424.3	
379.64	5613.5	
379.84	5256.5	
380.05	3442.6	
380.25	3338.9	
380.46	5358.2	
380.66	4958.1	
380.87	4539.7	
381.07	4873.5	
381.28	5854.5	
381.48	5264.6	
381.69	3382.6	
381.89	3431.7	
382.1	4484.4	
382.3	5420.3	
382.51	4436.6	
382.71	5105.6	
382.91	5313.8	
383.12	5809.4	
383.32	3764.8	
383.53	3917.8	
383.73	5180.7	
383.94	5025	
384.14	3899.3	
384.35	3118.4	
384.55	4915.8	
384.76	5329.5	
384.96	3782.6	
385.17	4044.1	
385.37	5367.7	
385.58	4729.4	
385.78	3967.6	
385.98	3093.1	
386.19	4941.1	
386.39	5266	
386.6	3537.5	
386.8	3738.9	
387.01	5269.4	
387.21	5380.7	
387.42	4091.2	
387.62	4536.3	
387.83	4814.1	
388.03	5211.4	
388.23	3794.2	
388.44	4388.8	
388.64	4491.2	
388.85	4538.3	
389.05	4057.7	
389.26	4530.8	
389.46	6154.8	
389.67	5694.7	
389.87	4009.9	
390.07	4051.6	
390.28	4971.8	
390.48	4678.2	
390.69	3366.9	
390.89	3615.3	
391.1	4840.7	
391.3	5514.5	
391.5	4637.3	
391.71	5081	
391.91	5368.4	
392.12	6180.8	
392.32	4787.5	
392.53	4084.3	
392.73	4863.2	
392.93	5025	
393.14	3861.8	
393.34	4708.3	
393.55	5390.9	
393.75	5055.1	
393.95	3805.1	
394.16	3794.9	
394.36	4825	
394.57	5399.8	
394.77	3312.9	
394.98	3696.6	
395.18	4815.5	
395.38	4980	
395.59	4403.1	
395.79	3521.1	
396	4878.9	
396.2	5258.5	
396.4	4218.1	
396.61	4181.3	
396.81	5446.9	
397.02	4807.9	
397.22	4463.2	
397.42	4469.4	
397.63	5377.3	
397.83	4757.4	
398.04	3504.1	
398.24	3885	
398.44	5221	
398.65	4399	
398.85	3332.7	
399.05	3435.1	
399.26	4758.1	
399.46	6217.6	
399.67	3764.2	
399.87	3488.4	
400.07	5025.7	
400.28	5294.7	
400.48	3558	
400.69	4476.9	
400.89	5455.1	
401.09	5933.6	
401.3	3528.7	
401.5	4422.9	
401.7	6070.2	
401.91	6270.9	
402.11	3785.3	
402.32	4025.6	
402.52	5570.5	
402.72	5502.2	
402.93	4165.6	
403.13	3310.2	
403.33	6232.7	
403.54	5178.6	
403.74	3987.4	
403.94	4719.2	
404.15	5194.3	
404.35	6146	
404.56	3733.4	
404.76	5244.8	
404.96	5500.8	
405.17	5324.7	
405.37	4741.7	
405.57	4158.1	
405.78	5601.9	
405.98	5083.1	
406.18	3703.4	
406.39	4429.1	
406.59	5597.8	
406.79	5167.7	
407	3573	
407.2	3642.7	
407.4	5621.7	
407.61	5689.3	
407.81	3637.9	
408.01	5707.7	
408.22	4644.1	
408.42	6277.7	
408.62	4514.4	
408.83	4037.2	
409.03	5157.5	
409.23	4980	
409.44	4134.2	
409.64	4355.3	
409.84	5945.3	
410.05	5793.7	
410.25	4239.3	
410.45	4017.4	
410.66	5437.4	
410.86	7479.2	
411.06	4409.3	
411.27	4252.9	
411.47	7251.9	
411.67	5485.8	
411.88	4518.5	
412.08	4644.8	
412.28	6018.3	
412.49	6343.2	
412.69	4237.2	
412.89	4265.9	
413.09	6315.9	
413.3	6175.3	
413.5	4319.8	
413.7	3951.2	
413.91	5539.1	
414.11	6285.9	
414.31	4201.7	
414.52	4460.5	
414.72	6035.4	
414.92	5881.8	
415.12	4106.2	
415.33	4655	
415.53	6240.2	
415.73	6356.9	
415.94	4849.6	
416.14	4437.9	
416.34	5433.3	
416.55	5138.4	
416.75	5447.6	
416.95	4999.8	
417.15	6201.9	
417.36	6809.5	
417.56	5586.9	
417.76	4764.3	
417.97	6594.5	
418.17	6255.9	
418.37	4475.5	
418.57	4511	
418.78	6158.9	
418.98	5881.8	
419.18	5247.6	
419.38	5200.5	
419.59	5865.4	
419.79	5595.1	
419.99	4398.4	
420.2	4752	
420.4	6294.1	
420.6	6425.2	
420.8	4308.2	
421.01	4169.7	
421.21	6107	
421.41	6307.1	
421.61	4625	
421.82	4487.8	
422.02	5814.9	
422.22	6580.1	
422.42	5134.9	
422.63	4818.2	
422.83	5870.2	
423.03	6924.2	
423.23	4845.5	
423.44	3977.8	
423.64	5947.3	
423.84	5666	
424.04	4362.2	
424.25	4133.5	
424.45	6634.7	
424.65	6642.2	
424.85	3958.7	
425.06	4444.8	
425.26	6716.7	
425.46	5761.6	
425.66	4823	
425.87	4521.2	
426.07	6462.7	
426.27	6370.5	
426.47	4786.1	
426.67	4174.4	
426.88	6755.6	
427.08	6348.7	
427.28	4866.7	
427.48	4115.1	
427.69	5394.3	
427.89	5967.8	
428.09	4883.7	
428.29	4158.7	
428.5	6429.9	
428.7	6105	
428.9	4101.4	
429.1	4431.8	
429.3	6079.1	
429.51	6374	
429.71	4339	
429.91	5087.2	
430.11	6335.7	
430.31	6452.5	
430.52	4532.2	
430.72	4799.1	
430.92	6814.3	
431.12	6324.8	
431.32	4300.1	
431.53	4655	
431.73	5415.5	
431.93	6842.3	
432.13	4270.7	
432.33	4131.4	
432.54	5922	
432.74	6080.4	
432.94	4090.5	
433.14	5014.8	
433.34	6296.1	
433.55	5895.4	
433.75	4909.7	
433.95	6368.5	
434.15	6118	
434.35	5951.4	
434.56	4274.8	
434.76	3842	
434.96	6113.9	
435.16	6235.4	
435.36	4126.7	
435.56	5057.1	
435.77	5797.1	
435.97	5965.7	
436.17	5752.1	
436.37	5061.9	
436.57	5821	
436.78	5701.5	
436.98	6571.9	
437.18	5599.8	
437.38	6346.7	
437.58	5917.9	
437.78	5733.6	
437.99	4539.7	
438.19	6481.8	
438.39	7178.1	
438.59	4581.3	
438.79	4052.9	
438.99	6986.3	
439.2	5937.1	
439.4	4182.6	
439.6	4098.7	
439.8	6204	
440	7005.4	
440.2	4965.6	
440.4	5032.5	
440.61	6520	
440.81	6941.9	
441.01	4285.7	
441.21	5113.1	
441.41	6909.8	
441.61	6541.2	
441.81	5321.3	
442.02	6272.9	
442.22	7355.6	
442.42	6602.7	
442.62	4417.5	
442.82	4476.2	
443.02	6901.7	
443.22	6205.3	
443.43	4747.2	
443.63	4379.2	
443.83	6027.2	
444.03	6001.2	
444.23	5429.8	
444.43	5069.4	
444.63	6299.6	
444.83	7307.8	
445.04	4505.5	
445.24	5614.8	
445.44	6625.2	
445.64	6721.4	
445.84	5242.8	
446.04	5268.1	
446.24	6148	
446.44	6965.1	
446.65	4566.3	
446.85	4842.1	
447.05	6211.5	
447.25	6969.9	
447.45	4999.8	
447.65	4392.9	
447.85	6350.1	
448.05	6066.1	
448.25	5290.6	
448.46	5106.3	
448.66	6323.4	
448.86	6050.4	
449.06	4297.3	
449.26	5283.1	
449.46	6685.9	
449.66	5911.8	
449.86	4907.6	
450.06	4762.2	
450.26	6034.7	
450.47	6520.7	
450.67	5091.3	
450.87	5362.3	
451.07	6626.5	
451.27	6406	
451.47	4482.3	
451.67	4966.3	
451.87	6121.4	
452.07	7183.6	
452.27	4706.2	
452.47	4707.6	
452.67	6462.7	
452.88	6775.4	
453.08	4266.6	
453.28	5827.2	
453.48	7499.7	
453.68	6409.5	
453.88	4556	
454.08	4851.6	
454.28	6658.6	
454.48	6326.9	
454.68	5299.5	
454.88	5643.5	
455.08	6875.7	
455.28	6526.2	
455.48	4519.9	
455.68	5097.4	
455.89	7241.6	
456.09	6889.4	
456.29	4851	
456.49	4869.4	
456.69	7126.9	
456.89	6423.1	
457.09	5240.8	
457.29	5608	
457.49	6666.1	
457.69	6863.4	
457.89	5175.9	
458.09	4694.6	
458.29	6488	
458.49	7144.7	
458.69	5569.1	
458.89	5033.9	
459.09	7359.7	
459.29	7484	
459.49	5102.2	
459.69	5822.4	
459.9	7034.8	
460.1	6528.2	
460.3	5016.2	
460.5	4812	
460.7	6983.6	
460.9	6727.6	
461.1	4558.8	
461.3	5642.8	
461.5	7468.9	
461.7	7175.4	
461.9	4956.8	
462.1	5259.9	
462.3	6722.8	
462.5	7261.4	
462.7	4956.1	
462.9	5070.1	
463.1	8161.2	
463.3	7776.1	
463.5	5204.6	
463.7	5980.1	
463.9	6918	
464.1	7262.1	
464.3	5323.4	
464.5	5582.8	
464.7	7510.6	
464.9	7120.8	
465.1	6719.4	
465.3	5898.8	
465.5	7711.3	
465.7	7778.9	
465.9	6145.3	
466.1	5961.6	
466.3	7630.7	
466.5	7511.3	
466.7	6687.3	
466.9	5784.1	
467.1	7475.8	
467.3	8215.1	
467.5	6671.6	
467.7	5738.4	
467.9	8395.3	
468.1	9209.7	
468.3	6371.2	
468.5	6672.3	
468.7	7397.3	
468.9	7432.8	
469.1	5952.1	
469.3	6613.6	
469.5	9130.5	
469.7	7066.2	
469.9	6427.9	
470.1	5758.2	
470.3	7565.9	
470.5	7490.1	
470.7	6865.5	
470.9	5879	
471.1	7317.4	
471.3	7696.3	
471.5	5730.9	
471.69	7271	
471.89	7212.9	
472.09	6862.7	
472.29	6399.2	
472.49	6745.3	
472.69	7021.1	
472.89	7718.1	
473.09	5559.6	
473.29	5774.6	
473.49	7230	
473.69	7299.6	
473.89	6607.4	
474.09	5855.8	
474.29	8393.9	
474.49	8027.4	
474.69	6604.7	
474.89	6059.3	
475.09	7318.8	
475.29	7275.8	
475.49	5608	
475.69	5781.4	
475.88	8670.4	
476.08	7736.5	
476.28	5471.5	
476.48	5885.2	
476.68	8074.5	
476.88	7817.1	
477.08	5732.9	
477.28	6003.3	
477.48	7432.1	
477.68	7925	
477.88	5593	
478.08	5900.9	
478.28	8230.8	
478.48	7434.1	
478.67	5960.3	
478.87	5380.7	
479.07	8067.6	
479.27	7578.2	
479.47	6055.2	
479.67	6140.5	
479.87	7970	
480.07	8353.7	
480.27	5516.5	
480.47	6820.4	
480.67	7707.9	
480.87	8153.6	
481.06	5667.4	
481.26	6399.9	
481.46	7644.4	
481.66	7475.8	
481.86	6221.7	
482.06	7031.4	
482.26	7343.3	
482.46	8258.1	
482.66	6154.1	
482.86	5730.9	
483.05	7731.8	
483.25	7157	
483.45	8211.7	
483.65	6131.6	
483.85	7311.2	
484.05	7589.1	
484.25	6533	
484.45	6943.3	
484.65	8254	
484.84	8301.8	
485.04	6043.6	
485.24	6052.4	
485.44	8658.1	
485.64	7122.8	
485.84	5520.6	
486.04	6661.4	
486.24	7473	
486.44	7886.7	
486.63	5418.9	
486.83	6203.3	
487.03	7387	
487.23	7585.7	
487.43	5601.9	
487.63	7602.7	
487.83	7697.6	
488.02	8520.2	
488.22	6338.5	
488.42	6901.7	
488.62	8351.6	
488.82	7448.5	
489.02	6106.4	
489.22	6194.4	
489.41	8263.6	
489.61	7984.3	
489.81	5940.5	
490.01	5970.5	
490.21	8297.7	
490.41	8903.2	
490.61	6025.8	
490.8	6038.1	
491	7834.8	
491.2	7305.1	
491.4	6564.4	
491.6	5907.7	
491.8	7864.2	
491.99	7954.3	
492.19	5692.7	
492.39	5935	
492.59	8231.5	
492.79	8318.2	
492.99	6679.8	
493.18	5895.4	
493.38	8352.3	
493.58	8974.9	
493.78	6487.3	
493.98	6126.8	
494.18	8125	
494.37	7585	
494.57	6737.1	
494.77	6608.1	
494.97	8320.2	
495.17	8519.6	
495.37	6333.7	
495.56	6576	
495.76	8753	
495.96	8340.7	
496.16	7436.9	
496.36	6570.6	
496.55	8651.3	
496.75	8201.4	
496.95	6952.2	
497.15	6714.6	
497.35	8702.5	
497.54	8600.1	
497.74	6580.1	
497.94	7983.7	
498.14	9151.7	
498.34	9095.7	
498.53	6372.6	
498.73	7002.7	
498.93	7993.2	
499.13	8637.6	
499.33	6874.3	
499.52	7336.5	
499.72	8687.5	
499.92	8861.6	
500.12	6578.1	
500.32	6836.1	
500.51	8864.3	
500.71	8686.8	
500.91	7529	
501.11	7213.6	
501.31	8849.3	
501.5	9233.6	
501.7	7818.5	
501.9	6894.1	
502.1	8632.9	
502.29	9009	
502.49	7305.8	
502.69	7780.9	
502.89	8837	
503.09	8920.3	
503.28	6483.9	
503.48	6657.9	
503.68	8244.4	
503.88	8144.8	
504.07	7537.9	
504.27	7012.2	
504.47	8622.6	
504.67	8671.8	
504.86	7374.7	
505.06	7044.3	
505.26	8332.5	
505.46	9818.6	
505.65	6976.1	
505.85	7265.5	
506.05	8266.3	
506.25	8601.5	
506.44	6546	
506.64	7221.8	
506.84	8063.5	
507.04	8969.4	
507.23	6602.7	
507.43	7083.2	
507.63	9863.7	
507.83	8296.3	
508.02	7103	
508.22	6771.3	
508.42	10137	
508.62	8183.7	
508.81	7051.8	
509.01	7453.9	
509.21	8021.9	
509.4	8226	
509.6	7150.1	
509.8	6630.6	
510	8274.5	
510.19	9485.5	
510.39	6602	
510.59	6712.6	
510.79	8144.8	
510.98	9355.1	
511.18	6837.5	
511.38	6898.9	
511.57	8926.4	
511.77	8793.3	
511.97	7404.1	
512.17	6656.6	
512.36	8828.8	
512.56	8856.1	
512.76	6661.4	
512.95	6472.9	
513.15	9033.6	
513.35	7683.3	
513.55	7330.4	
513.74	6653.9	
513.94	8912.8	
514.14	8333.9	
514.33	7443	
514.53	7257.3	
514.73	8357.8	
514.92	8477.9	
515.12	6782.2	
515.32	6666.1	
515.51	8609.7	
515.71	8944.2	
515.91	7978.2	
516.11	6668.2	
516.3	10001	
516.5	8222.6	
516.7	7165.2	
516.89	7678.5	
517.09	8418.5	
517.29	8307.9	
517.48	7430.7	
517.68	6966.5	
517.88	8183.7	
518.07	8703.9	
518.27	7429.3	
518.47	6561.7	
518.66	9152.4	
518.86	8010.3	
519.06	6440.9	
519.25	6775.4	
519.45	8342.1	
519.65	9557.2	
519.84	7284.6	
520.04	7962.5	
520.24	9959.3	
520.43	8858.1	
520.63	7281.2	
520.83	6972.7	
521.02	8228.7	
521.22	8814.5	
521.42	7407.5	
521.61	7920.9	
521.81	8384.4	
522.01	8592.6	
522.2	7204.8	
522.4	6985.6	
522.6	8903.9	
522.79	7795.9	
522.99	7011.6	
523.18	6466.8	
523.38	8738	
523.58	8654	
523.77	8115.4	
523.97	6500.9	
524.17	10247	
524.36	9542.2	
524.56	7703.1	
524.76	7337.2	
524.95	8705.9	
525.15	8516.8	
525.34	7283.3	
525.54	7323.5	
525.74	9127.1	
525.93	8358.4	
526.13	8329.8	
526.33	7402	
526.52	9429.5	
526.72	9013.8	
526.91	8385.7	
527.11	7723.6	
527.31	9484.8	
527.5	9770.2	
527.7	7690.8	
527.89	6800.6	
528.09	8546.9	
528.29	9006.3	
528.48	7950.9	
528.68	7677.2	
528.87	9325.8	
529.07	9491	
529.27	7715.4	
529.46	7378.1	
529.66	9213.1	
529.85	9499.8	
530.05	7263.5	
530.25	7877.9	
530.44	10297	
530.64	9115.5	
530.83	7606.2	
531.03	7681.9	
531.23	9562.6	
531.42	9366	
531.62	8359.1	
531.81	7592.5	
532.01	9533.3	
532.21	9904.7	
532.4	7443	
532.6	7775.5	
532.79	10396	
532.99	9631.6	
533.18	7868.3	
533.38	8688.2	
533.58	9276.6	
533.77	9910.1	
533.97	7869.7	
534.16	8509.3	
534.36	10197	
534.55	9427.5	
534.75	8770.1	
534.95	7891.5	
535.14	10092	
535.34	9407.7	
535.53	7666.2	
535.73	9339.4	
535.92	10650	
536.12	9555.1	
536.31	7790.5	
536.51	8880.7	
536.71	9843.9	
536.9	9454.8	
537.1	7838.3	
537.29	8028.7	
537.49	10204	
537.68	9314.8	
537.88	8369.4	
538.07	7664.2	
538.27	9486.9	
538.46	10473	
538.66	7594.6	
538.86	7913.4	
539.05	9678.7	
539.25	9970.9	
539.44	8196.7	
539.64	7845.1	
539.83	9519	
540.03	10408	
540.22	7847.8	
540.42	7918.1	
540.61	9802.9	
540.81	9790.7	
541	8308.6	
541.2	8841.8	
541.39	9379	
541.59	9626.8	
541.78	8523.6	
541.98	7784.3	
542.18	9110	
542.37	8976.2	
542.57	8176.9	
542.76	8582.4	
542.96	9059.5	
543.15	9625.5	
543.35	8288.1	
543.54	7602.7	
543.74	9912.9	
543.93	9583.1	
544.13	8155.7	
544.32	8983.8	
544.52	9762	
544.71	9088.2	
544.91	7299	
545.1	8363.9	
545.3	9181	
545.49	9714.9	
545.69	7258.7	
545.88	7729.7	
546.08	10624	
546.27	10086	
546.47	8231.5	
546.66	7630	
546.86	9963.4	
547.05	10451	
547.24	7836.9	
547.44	7662.8	
547.63	8972.2	
547.83	9940.2	
548.02	8119.5	
548.22	8206.9	
548.41	8826.1	
548.61	9974.3	
548.8	7722.2	
549	7601.4	
549.19	9493	
549.39	9721	
549.58	7326.9	
549.78	7880.6	
549.97	9721.7	
550.17	9151.7	
550.36	8525.7	
550.55	9366.7	
550.75	9228.1	
550.94	10022	
551.14	7451.9	
551.33	7787.7	
551.53	8691.6	
551.72	9576.3	
551.92	7766.6	
552.11	7606.8	
552.31	9574.3	
552.5	9616.6	
552.69	9147.6	
552.89	7312.6	
553.08	9661.6	
553.28	9329.2	
553.47	7674.4	
553.67	8639	
553.86	10079	
554.06	8621.3	
554.25	7047.7	
554.44	7482.6	
554.64	10743	
554.83	10398	
555.03	7410.9	
555.22	7771.4	
555.42	9640.5	
555.61	9517.6	
555.8	7692.2	
556	7851.2	
556.19	8658.8	
556.39	9757.2	
556.58	7647.8	
556.78	7641.7	
556.97	9385.8	
557.16	9035.6	
557.36	8628.8	
557.55	7303.7	
557.75	8510.7	
557.94	10030	
558.13	7408.2	
558.33	7250.5	
558.52	9835	
558.72	8768	
558.91	7321.5	
559.1	7457.3	
559.3	8612.4	
559.49	8380.3	
559.69	7013.6	
559.88	7822.6	
560.07	9400.2	
560.27	9697.1	
560.46	8018.5	
560.66	8001.4	
560.85	9221.3	
561.04	8387.8	
561.24	7279.2	
561.43	7434.8	
561.63	8655.4	
561.82	8931.2	
562.01	8468.4	
562.21	7689.4	
562.4	9226.1	
562.59	10068	
562.79	7566.6	
562.98	7275.1	
563.18	9204.3	
563.37	10408	
563.56	7980.9	
563.76	7240.9	
563.95	8852	
564.14	8692.3	
564.34	7571.3	
564.53	7326.3	
564.73	9283.4	
564.92	9443.2	
565.11	7756.3	
565.31	7254.6	
565.5	9722.4	
565.69	8856.8	
565.89	7423.9	
566.08	7636.2	
566.27	9636.4	
566.47	10013	
566.66	8251.3	
566.85	7057.3	
567.05	9422.7	
567.24	8847.2	
567.44	7357.7	
567.63	8559.1	
567.82	9577.7	
568.02	9265	
568.21	7398.6	
568.4	7653.3	
568.6	9232.2	
568.79	9157.8	
568.98	7246.4	
569.18	7318.8	
569.37	9198.8	
569.56	10849	
569.76	7745.4	
569.95	8586.5	
570.14	9499.2	
570.34	9481.4	
570.53	7287.4	
570.72	7369.3	
570.91	9978.4	
571.11	9147.6	
571.3	7787.7	
571.49	8557.1	
571.69	9318.9	
571.88	8830.8	
572.07	8174.8	
572.27	8204.2	
572.46	8833.6	
572.65	9709.4	
572.85	7606.2	
573.04	7879.9	
573.23	9932.6	
573.43	9320.3	
573.62	7382.2	
573.81	7948.2	
574	9322.4	
574.2	9202.2	
574.39	7675.8	
574.58	7928.4	
574.78	10088	
574.97	9585.2	
575.16	8226.7	
575.36	8295	
575.55	9934.7	
575.74	9976.3	
575.93	7471.7	
576.13	8451.3	
576.32	9380.4	
576.51	9923.1	
576.71	7877.9	
576.9	9114.1	
577.09	10212	
577.28	9644.6	
577.48	8212.4	
577.67	7503.8	
577.86	9432.9	
578.05	9711.5	
578.25	7878.5	
578.44	8049.2	
578.63	9596.1	
578.83	10569	
579.02	7499.7	
579.21	8835.6	
579.4	9802.3	
579.6	9476	
579.79	8084.7	
579.98	10000	
580.17	10005	
580.37	10060	
580.56	7614.3	
580.75	8350.9	
580.94	10419	
581.14	10333	
581.33	8843.1	
581.52	7828	
581.71	9913.5	
581.91	10473	
582.1	7534.5	
582.29	8042.4	
582.48	9596.8	
582.68	9497.8	
582.87	8474.5	
583.06	8127	
583.25	9923.8	
583.45	9358.5	
583.64	8802.9	
583.83	9314.2	
584.02	9585.2	
584.21	9942.2	
584.41	8732.5	
584.6	8110	
584.79	9739.5	
584.98	10238	
585.18	7718.1	
585.37	7693.5	
585.56	9357.2	
585.75	9944.3	
585.94	7924.3	
586.14	8510.7	
586.33	10416	
586.52	9673.2	
586.71	8286.8	
586.91	8027.4	
587.1	9129.2	
587.29	9940.8	
587.48	8019.2	
587.67	7877.9	
587.87	9908.8	
588.06	9862.3	
588.25	9041.1	
588.44	8472.4	
588.63	9611.8	
588.83	10004	
589.02	7944.1	
589.21	7806.9	
589.4	9392.7	
589.59	9328.5	
589.78	7190.4	
589.98	7512.6	
590.17	8891.6	
590.36	9435	
590.55	6888	
590.74	7491.5	
590.94	10344	
591.13	9174.2	
591.32	7325.6	
591.51	6890	
591.7	9509.4	
591.89	9025.4	
592.09	6924.2	
592.28	7451.9	
592.47	8437.6	
592.66	10127	
592.85	7069.6	
593.05	7234.8	
593.24	8975.6	
593.43	9693	
593.62	7343.3	
593.81	7729.7	
594	9028.1	
594.19	9213.1	
594.39	7219.1	
594.58	7203.4	
594.77	9280.7	
594.96	9822.1	
595.15	7182.9	
595.34	7653.9	
595.54	9228.8	
595.73	8454.7	
595.92	6618.4	
596.11	7621.9	
596.3	9676	
596.49	8669.1	
596.68	7433.4	
596.88	7663.5	
597.07	9413.8	
597.26	8374.8	
597.45	6948.1	
597.64	7867.6	
597.83	8676.6	
598.02	9208.4	
598.22	6992.4	
598.41	7492.2	
598.6	9051.3	
598.79	8533.9	
598.98	7089.4	
599.17	7858.1	
599.36	9030.9	
599.55	9955.9	
599.74	8817.9	
599.94	8520.9	
600.13	9482.1	
600.32	8435.6	
600.51	6798.6	
600.7	6939.9	
600.89	10003	
601.08	10000	
601.27	6678.4	
601.47	7539.3	
601.66	9332.6	
601.85	9877.4	
602.04	7299	
602.23	7438.9	
602.42	8570.7	
602.61	9163.3	
602.8	7217.7	
602.99	6894.8	
603.18	8891.6	
603.37	8994.7	
603.57	7450.5	
603.76	7978.9	
603.95	9706	
604.14	9274.6	
604.33	7104.4	
604.52	7345.4	
604.71	9035.6	
604.9	8724.3	
605.09	8083.3	
605.28	7757.7	
605.47	9655.5	
605.66	9225.4	
605.86	7486	
606.05	7045	
606.24	9456.2	
606.43	8216.5	
606.62	7356.3	
606.81	8006.2	
607	9344.2	
607.19	8773.5	
607.38	6858.6	
607.57	7056.6	
607.76	8551.6	
607.95	8066.9	
608.14	7447.1	
608.33	7976.2	
608.52	8527.7	
608.72	9338.7	
608.91	6700.3	
609.1	6625.2	
609.29	8633.6	
609.48	8305.9	
609.67	7553.6	
609.86	6781.5	
610.05	8319.5	
610.24	8589.2	
610.43	6627.2	
610.62	6328.2	
610.81	9655.5	
611	9371.5	
611.19	6739.2	
611.38	7297.6	
611.57	8800.8	
611.76	10001	
611.95	6556.9	
612.14	6483.2	
612.33	8652	
612.52	8200.7	
612.71	7019.1	
612.9	6331.6	
613.09	7985	
613.28	9877.4	
613.47	6867.5	
613.66	7579.5	
613.85	8838.4	
614.04	8342.1	
614.24	6848.4	
614.43	6215.6	
614.62	8875.2	
614.81	8821.3	
615	7296.2	
615.19	7312.6	
615.38	8273.1	
615.57	8557.1	
615.76	7144.7	
615.95	8034.9	
616.14	8940.7	
616.33	8506.6	
616.52	7438.9	
616.71	7616.4	
616.9	8832.2	
617.09	8753	
617.28	6851.1	
617.47	7867.6	
617.66	8163.9	
617.85	8202.8	
618.04	7589.8	
618.22	7200.7	
618.41	8409	
618.6	9216.5	
618.79	7138.5	
618.98	6838.2	
619.17	9456.8	
619.36	8010.3	
619.55	7077.1	
619.74	7048.4	
619.93	8877.9	
620.12	8412.4	
620.31	7611.6	
620.5	7717.4	
620.69	9396.8	
620.88	9691.7	
621.07	8297	
621.26	7475.8	
621.45	9097.1	
621.64	9088.2	
621.83	7589.1	
622.02	6936.5	
622.21	9129.2	
622.4	8976.2	
622.59	8068.3	
622.78	8009.6	
622.97	8604.9	
623.16	9379	
623.35	7568.6	
623.54	6833.4	
623.72	8695	
623.91	8888.2	
624.1	7751.6	
624.29	6677.7	
624.48	9845.3	
624.67	9183.1	
624.86	7696.3	
625.05	6899.6	
625.24	9833	
625.43	8546.9	
625.62	9101.2	
625.81	7066.9	
626	9437	
626.19	8817.9	
626.38	7821.9	
626.56	7264.8	
626.75	8580.3	
626.94	9224.1	
627.13	7820.5	
627.32	6759	
627.51	9290.3	
627.7	10412	
627.89	6875	
628.08	7869	
628.27	8572.1	
628.46	8712.7	
628.65	7029.3	
628.83	6801.3	
629.02	9134.6	
629.21	8584.4	
629.4	7496.2	
629.59	7535.8	
629.78	8568	
629.97	9347.6	
630.16	7682.6	
630.35	7215.7	
630.54	9850.7	
630.72	9449.3	
630.91	7167.9	
631.1	7651.9	
631.29	9000.8	
631.48	9157.2	
631.67	7721.5	
631.86	7188.4	
632.05	8727.8	
632.24	8732.5	
632.42	6911.2	
632.61	7489.4	
632.8	8830.2	
632.99	8415.8	
633.18	7534.5	
633.37	7798.7	
633.56	9085.5	
633.75	8880.7	
633.93	7518.8	
634.12	7198.6	
634.31	9715.6	
634.5	9275.9	
634.69	7266.9	
634.88	7692.9	
635.07	8815.1	
635.25	9363.3	
635.44	7950.2	
635.63	8269	
635.82	8694.3	
636.01	8233.5	
636.2	7907.9	
636.39	7571.3	
636.57	9700.5	
636.76	9306.7	
636.95	7108.5	
637.14	8253.3	
637.33	9102.5	
637.52	9764.7	
637.7	6941.9	
637.89	7748.8	
638.08	8724.3	
638.27	9941.5	
638.46	7720.8	
638.65	8138.6	
638.83	9941.5	
639.02	8682.7	
639.21	7660.1	
639.4	8129.1	
639.59	8979.7	
639.78	8578.3	
639.96	7025.2	
640.15	7060	
640.34	8845.2	
640.53	8923	
640.72	6775.4	
640.91	7102.4	
641.09	8296.3	
641.28	9380.4	
641.47	7003.4	
641.66	7716.1	
641.85	8855.4	
642.03	9063.6	
642.22	7473	
642.41	7130.3	
642.6	8357.8	
642.79	7933.1	
642.97	6924.9	
643.16	7551.5	
643.35	8353	
643.54	8168	
643.73	6828.6	
643.91	7514.7	
644.1	8119.5	
644.29	8602.8	
644.48	6954.2	
644.67	6972.7	
644.85	8209.6	
645.04	8557.8	
645.23	6655.2	
645.42	6963.1	
645.6	8174.1	
645.79	9155.8	
645.98	6883.9	
646.17	6078.4	
646.36	7871	
646.54	8376.9	
646.73	7421.2	
646.92	6477	
647.11	8041.7	
647.29	8962.6	
647.48	6449.7	
647.67	6318.7	
647.86	9171.5	
648.05	9111.4	
648.23	6722.1	
648.42	7836.2	
648.61	8539.3	
648.8	8340	
648.98	6469.5	
649.17	6686.6	
649.36	7924.3	
649.55	7463.5	
649.73	6417.7	
649.92	7077.8	
650.11	7857.4	
650.3	8210.3	
650.48	6635.4	
650.67	6406	
650.86	8443.8	
651.05	7444.4	
651.23	6586.3	
651.42	6518	
651.61	7871	
651.79	7959.1	
651.98	6653.2	
652.17	6401.3	
652.36	8297.7	
652.54	7401.4	
652.73	6407.4	
652.92	6222.4	
653.11	8336.6	
653.29	8343.4	
653.48	5828.5	
653.67	6568.5	
653.85	8079.9	
654.04	9050.7	
654.23	6774	
654.42	6445	
654.6	7633.5	
654.79	8170.7	
654.98	5927.5	
655.16	6406.7	
655.35	7308.5	
655.54	7186.3	
655.73	5890	
655.91	5769.1	
656.1	8133.8	
656.29	7083.2	
656.47	5458.5	
656.66	6948.1	
656.85	7352.9	
657.03	7434.8	
657.22	5916.6	
657.41	6034	
657.59	7559.7	
657.78	7337.9	
657.97	5702.9	
658.16	6392.4	
658.34	8105.9	
658.53	8486.8	
658.72	7124.2	
658.9	7582.9	
659.09	7695.6	
659.28	7728.4	
659.46	6169.2	
659.65	6044.9	
659.84	7367.2	
660.02	7959.8	
660.21	6025.8	
660.4	5950.7	
660.58	8314.1	
660.77	7731.8	
660.96	6508.4	
661.14	5688.6	
661.33	8699.1	
661.52	8589.2	
661.7	5595.1	
661.89	8669.1	
662.08	7463.5	
662.26	7019.1	
662.45	5896.8	
662.64	5993	
662.82	8045.8	
663.01	7340.6	
663.2	6043.6	
663.38	6625.2	
663.57	7961.8	
663.75	7701	
663.94	6272.9	
664.13	7309.9	
664.31	7342.7	
664.5	7881.9	
664.69	6617.7	
664.87	6916	
665.06	7012.2	
665.25	7734.5	
665.43	7083.9	
665.62	7090.1	
665.8	8040.3	
665.99	7459.4	
666.18	6214.9	
666.36	6294.1	
666.55	7957	
666.74	7927.7	
666.92	5892.7	
667.11	7258	
667.29	7433.4	
667.48	7924.3	
667.67	6980.2	
667.85	6087.2	
668.04	7496.2	
668.22	7432.8	
668.41	6264.7	
668.6	6399.9	
668.78	7219.8	
668.97	7459.4	
669.15	6524.8	
669.34	5691.3	
669.53	7276.4	
669.71	7645.7	
669.9	5809.4	
670.08	6373.3	
670.27	7281.2	
670.46	7699.7	
670.64	6541.9	
670.83	6737.1	
671.01	7132.4	
671.2	7585.7	
671.38	5954.8	
671.57	5705	
671.76	8230.8	
671.94	8679.3	
672.13	5778.7	
672.31	6693.4	
672.5	7956.4	
672.69	7342	
672.87	5939.8	
673.06	6171.2	
673.24	7761.1	
673.43	7261.4	
673.61	6451.8	
673.8	6139.1	
673.98	7869.7	
674.17	7950.2	
674.36	6597.9	
674.54	6481.1	
674.73	7615	
674.91	7914.7	
675.1	6223.8	
675.28	5903.6	
675.47	7542	
675.65	7949.5	
675.84	6130.3	
676.03	6376.7	
676.21	7262.8	
676.4	6851.1	
676.58	6767.9	
676.77	6531.7	
676.95	8583	
677.14	7230.7	
677.32	5781.4	
677.51	5689.3	
677.69	7890.8	
677.88	6998.6	
678.06	5687.9	
678.25	5859.9	
678.44	7394.5	
678.62	7137.2	
678.81	5593	
678.99	6403.3	
679.18	8197.3	
679.36	7776.1	
679.55	6053.1	
679.73	6565.1	
679.92	7694.2	
680.1	7316	
680.29	7130.3	
680.47	6044.9	
680.66	7156.3	
680.84	7901.7	
681.03	5544.5	
681.21	6417.7	
681.4	7251.9	
681.58	7134.4	
681.77	5847.6	
681.95	5741.8	
682.14	7951.6	
682.32	8215.8	
682.51	6602.7	
682.69	5671.5	
682.88	7105.1	
683.06	7658	
683.25	6303	
683.43	6692.8	
683.62	7527.7	
683.8	7792.5	
683.99	6847	
684.17	6206.7	
684.36	8475.2	
684.54	7391.8	
684.73	5618.9	
684.91	5755.5	
685.1	7672.4	
685.28	7103	
685.46	6174.6	
685.65	6266.1	
685.83	7773.4	
686.02	7195.9	
686.2	5685.8	
686.39	5779.4	
686.57	6944.7	
686.76	8164.6	
686.94	5636	
687.13	5750.7	
687.31	7574.8	
687.5	7228.6	
687.68	5353.4	
687.86	6431.3	
688.05	8641.1	
688.23	6756.2	
688.42	6485.9	
688.6	5708.4	
688.79	7146.7	
688.97	7070.3	
689.16	6141.9	
689.34	5264.6	
689.52	7774.1	
689.71	7905.8	
689.89	6380.1	
690.08	5731.6	
690.26	7342	
690.45	7236.8	
690.63	6484.6	
690.81	5844.2	
691	7144.7	
691.18	7071	
691.37	6004	
691.55	7892.9	
691.74	7047.7	
691.92	8772.8	
692.1	5967.8	
692.29	5516.5	
692.47	7232.7	
692.66	6632	
692.84	5748.6	
693.02	6162.3	
693.21	6710.5	
693.39	7118.7	
693.58	6297.5	
693.76	5750.7	
693.94	8136.6	
694.13	8001.4	
694.31	5735.7	
694.5	6664.8	
694.68	7032	
694.86	7346.7	
695.05	6009.4	
695.23	6285.2	
695.42	7647.1	
695.6	9536.7	
695.78	6643.6	
695.97	5746.6	
696.15	7728.4	
696.34	7180.9	
696.52	5666.7	
696.7	6382.8	
696.89	7468.9	
697.07	6937.2	
697.25	6246.3	
697.44	7466.9	
697.62	7433.4	
697.81	7729.7	
697.99	5981.4	
698.17	6347.3	
698.36	6810.2	
698.54	7451.2	
698.72	6273.6	
698.91	5429.2	
699.09	7064.8	
699.28	6903.7	
699.46	5921.4	
699.64	5744.6	
699.83	6879.8	
700.01	7767.9	
700.19	6492.7	
700.38	5104.9	
700.56	7905.8	
700.74	6939.9	
700.93	5445.5	
701.11	6095.4	
701.29	7424.6	
701.48	8318.2	
701.66	5681.7	
701.84	5674.2	
702.03	6991.8	
702.21	7630.7	
702.39	5318.6	
702.58	5847	
702.76	7432.8	
702.94	7462.1	
703.13	5302.9	
703.31	7432.8	
703.49	6850.5	
703.68	7570	
703.86	5440.1	
704.04	6318	
704.23	7124.9	
704.41	7538.6	
704.59	5607.3	
704.78	6494.8	
704.96	8164.6	
705.14	7559.1	
705.33	5353.4	
705.51	6079.7	
705.69	7019.8	
705.87	7742.7	
706.06	6354.8	
706.24	5310.4	
706.42	7284.6	
706.61	7546.1	
706.79	6302.3	
706.97	5367	
707.16	6761.7	
707.34	7292.8	
707.52	6323.4	
707.7	5484.5	
707.89	7003.4	
708.07	6629.3	
708.25	6236.7	
708.44	6350.1	
708.62	6797.2	
708.8	7721.5	
708.98	6498.2	
709.17	5559.6	
709.35	7143.3	
709.53	7195.9	
709.72	5285.8	
709.9	5698.8	
710.08	7381.6	
710.26	7397.3	
710.45	6698.9	
710.63	5560.9	
710.81	7028.6	
710.99	6993.1	
711.18	6102.9	
711.36	5623	
711.54	6908.5	
711.72	7524.9	
711.91	5711.8	
712.09	5262.6	
712.27	7051.8	
712.45	7960.5	
712.64	5874.3	
712.82	5074.2	
713	6612.9	
713.18	6682.5	
713.37	5211.4	
713.55	6124.8	
713.73	7475.8	
713.91	6302.3	
714.1	5514.5	
714.28	5006.6	
714.46	7084.6	
714.64	6429.3	
714.83	4511	
715.01	5169.8	
715.19	6541.2	
715.37	5841.5	
715.55	4810.7	
715.74	5097.4	
715.92	7174	
716.1	5421.7	
716.28	6124.1	
716.47	5202.5	
716.65	6029.2	
716.83	6128.9	
717.01	5075.5	
717.19	5134.9	
717.38	7811	
717.56	5786.9	
717.74	5278.3	
717.92	4474.1	
718.1	6741.9	
718.29	6078.4	
718.47	4151.2	
718.65	4725.3	
718.83	6755.6	
719.01	6660	
719.2	4112.3	
719.38	5096	
719.56	6412.9	
719.74	7765.9	
719.92	4712.4	
720.11	5596.4	
720.29	6495.5	
720.47	5738.4	
720.65	4394.9	
720.83	5113.1	
721.02	6047.7	
721.2	5769.8	
721.38	5107.6	
721.56	4476.2	
721.74	5425.1	
721.92	5513.8	
722.11	5481	
722.29	5204.6	
722.47	6673	
722.65	5894.1	
722.83	4432.5	
723.01	5225.7	
723.2	5943.9	
723.38	6150.7	
723.56	3932.1	
723.74	4939	
723.92	5532.9	
724.1	6498.2	
724.29	4354	
724.47	5367	
724.65	5585.5	
724.83	5477.6	
725.01	4225.6	
725.19	5040.7	
725.37	5537.7	
725.56	5590.3	
725.74	4126.7	
725.92	4342.4	
726.1	5482.4	
726.28	5728.9	
726.46	4756.1	
726.64	4400.4	
726.83	5702.2	
727.01	5862	
727.19	4067.9	
727.37	4782	
727.55	5828.5	
727.73	6235.4	
727.91	4024.9	
728.09	3932.1	
728.28	6249.7	
728.46	6640.2	
728.64	4820.9	
728.82	4792.2	
729	7131	
729.18	6464.8	
729.36	4056.3	
729.54	6158.9	
729.72	7348.1	
729.91	5841.5	
730.09	5834.7	
730.27	4715.1	
730.45	5835.3	
730.63	6240.2	
730.81	5219.6	
730.99	4332.8	
731.17	6763.8	
731.35	5552	
731.53	4835.9	
731.71	4468	
731.9	6557.6	
732.08	6610.8	
732.26	4666	
732.44	4394.3	
732.62	6725.5	
732.8	6307.1	
732.98	5070.1	
733.16	4209.9	
733.34	6247	
733.52	5126.7	
733.7	4622.9	
733.88	4924	
734.07	6018.3	
734.25	5849	
734.43	4143	
734.61	5398.4	
734.79	7127.6	
734.97	5769.8	
735.15	4258.4	
735.33	4558.8	
735.51	6040.1	
735.69	5779.4	
735.87	5451	
736.05	4790.9	
736.23	5713.2	
736.41	5675.6	
736.59	4532.2	
736.77	4674.1	
736.95	6290.7	
737.13	5748.6	
737.32	4263.9	
737.5	4405.9	
737.68	6822.5	
737.86	5715.9	
738.04	4052.9	
738.22	5700.9	
738.4	5530.2	
738.58	5832.6	
738.76	4621.6	
738.94	3751.2	
739.12	5592.3	
739.3	5514.5	
739.48	5094	
739.66	4867.3	
739.84	5840.1	
740.02	5811.5	
740.2	3835.2	
740.38	4071.4	
740.56	6146.6	
740.74	5167	
740.92	4667.3	
741.1	4567.7	
741.28	5703.6	
741.46	5514.5	
741.64	4308.9	
741.82	4687.1	
742	5709.1	
742.18	5583.4	
742.36	4365.6	
742.54	4089.1	
742.72	6183.5	
742.9	5012.7	
743.08	4789.5	
743.26	3773.7	
743.44	6255.9	
743.62	6212.9	
743.8	4880.3	
743.98	4038.6	
744.16	5939.8	
744.34	5614.8	
744.52	4876.2	
744.7	4684.4	
744.88	6048.3	
745.06	5648.3	
745.24	4814.1	
745.42	4922	
745.6	6138.4	
745.78	5943.9	
745.96	3801.7	
746.14	4102.8	
746.32	6777.4	
746.5	6051.7	
746.68	4523.3	
746.86	4115.7	
747.03	6458.6	
747.21	5022.3	
747.39	4569.7	
747.57	4117.1	
747.75	5711.1	
747.93	6067.4	
748.11	4098.7	
748.29	4035.2	
748.47	7139.9	
748.65	5512.4	
748.83	4737.6	
749.01	4528.1	
749.19	5968.5	
749.37	5195	
749.55	4319.2	
749.73	4431.1	
749.91	5703.6	
750.09	5447.6	
750.26	4511.7	
750.44	3908.9	
750.62	5719.3	
750.8	5646.2	
750.98	3910.9	
751.16	4118.5	
751.34	5684.5	
751.52	5203.9	
751.7	4719.2	
751.88	3820.1	
752.06	6171.9	
752.24	5867.4	
752.42	3745.7	
752.59	4004.5	
752.77	5577.3	
752.95	6625.9	
753.13	4669.4	
753.31	4180.6	
753.49	5305.6	
753.67	5785.5	
753.85	4405.2	
754.03	4052.9	
754.21	5960.3	
754.38	6356.9	
754.56	4215.4	
754.74	3418.1	
754.92	5379.3	
755.1	5943.9	
755.28	3506.1	
755.46	3510.9	
755.64	6669.6	
755.82	6744.6	
755.99	3837.2	
756.17	3890.5	
756.35	4601.1	
756.53	6077	
756.71	2971.6	
756.89	3719.1	
757.07	5609.4	
757.25	4859.1	
757.42	4220.2	
757.6	4980	
757.78	5637.4	
757.96	4740.4	
758.14	3934.1	
758.32	3534.1	
758.5	4421.6	
758.67	5189.6	
758.85	3809.2	
759.03	3901.4	
759.21	5315.2	
759.39	4759.5	
759.57	3412.6	
759.75	4487.8	
759.92	5900.9	
760.1	5348.6	
760.28	4653	
760.46	4937.7	
760.64	5026.4	
760.82	4840.7	
760.99	4522.6	
761.17	3867.9	
761.35	5700.2	
761.53	4810	
761.71	3820.8	
761.89	4517.1	
762.06	5555.5	
762.24	5147.2	
762.42	3995.6	
762.6	3838.6	
762.78	5100.1	
762.96	5688.6	
763.13	4315.1	
763.31	4063.2	
763.49	5814.9	
763.67	5033.2	
763.85	4780.6	
764.02	5238.7	
764.2	6099.5	
764.38	5299.5	
764.56	3889.1	
764.74	4637.3	
764.91	6137.1	
765.09	5183.4	
765.27	3689.8	
765.45	3481.5	
765.63	6180.8	
765.8	6019.7	
765.98	3306.8	
766.16	3534.8	
766.34	4843.4	
766.52	4648.9	
766.69	4335.5	
766.87	3414	
767.05	5131.5	
767.23	5781.4	
767.41	3746.4	
767.58	3928	
767.76	5685.8	
767.94	5778	
768.12	3799.7	
768.29	4388.1	
768.47	5197.7	
768.65	5831.2	
768.83	3425.6	
769	4446.8	
769.18	4907.6	
769.36	5451	
769.54	4412	
769.72	3465.2	
769.89	5730.9	
770.07	5795.8	
770.25	3794.2	
770.43	4839.4	
770.6	6348.7	
770.78	6688.7	
770.96	3936.9	
771.14	4470.7	
771.31	5661.3	
771.49	5061.9	
771.67	3209.2	
771.85	3434.4	
772.02	4462.5	
772.2	5135.6	
772.38	4121.9	
772.55	3678.8	
772.73	5351.3	
772.91	5180	
773.09	3932.1	
773.26	4076.1	
773.44	5376.6	
773.62	5036.6	
773.8	3618.1	
773.97	3291.1	
774.15	5393	
774.33	5071.5	
774.5	3474.7	
774.68	3802.4	
774.86	5579.3	
775.04	5087.8	
775.21	3543.7	
775.39	3556	
775.57	5299.5	
775.74	5593	
775.92	3394.2	
776.1	3336.1	
776.27	5300.1	
776.45	6375.3	
776.63	3558	
776.81	3136.8	
776.98	4982	
777.16	5879	
777.34	3643.3	
777.51	3941.7	
777.69	4958.1	
777.87	4790.2	
778.04	3748.5	
778.22	4207.2	
778.4	4804.5	
778.57	5387.5	
778.75	3130	
778.93	3317.7	
779.1	4715.8	
779.28	4495.3	
779.46	3086.3	
779.64	3523.9	
779.81	5570.5	
779.99	6249	
780.17	4137.6	
780.34	4325.3	
780.52	5098.1	
780.69	5212.1	
780.87	3819.5	
781.05	3408.5	
781.22	5100.1	
781.4	5172.5	
781.58	3601.7	
781.75	2868.5	
781.93	5148.6	
782.11	4604.5	
782.28	4319.2	
782.46	3543	
782.64	4512.4	
782.81	5274.2	
782.99	3650.8	
783.17	3575.1	
783.34	5212.8	
783.52	4539	
783.69	3819.5	
783.87	4476.9	
784.05	4725.3	
784.22	4598.4	
784.4	4484.4	
784.58	3902.1	
784.75	5449.6	
784.93	4716.5	
785.1	3551.9	
785.28	4151.9	
785.46	5255.1	
785.63	4668.7	
785.81	3592.8	
785.99	3456.3	
786.16	4818.9	
786.34	5091.9	
786.51	3471.3	
786.69	3855	
786.87	4408.6	
787.04	4862.6	
787.22	3366.2	
787.39	4143	
787.57	4629.1	
787.75	5601.2	
787.92	4351.9	
788.1	4222.9	
788.27	4702.1	
788.45	4456.4	
788.63	4057	
788.8	2923.8	
788.98	5157.5	
789.15	4336.2	
789.33	3097.2	
789.5	3584.6	
789.68	5437.4	
789.86	5584.8	
790.03	3932.1	
790.21	3477.5	
790.38	5565.7	
790.56	4784.7	
790.73	3360.7	
790.91	3367.5	
791.09	4683	
791.26	5316.5	
791.44	3588.7	
791.61	3149.1	
791.79	4705.5	
791.96	4679.6	
792.14	3216	
792.32	2870.6	
792.49	4687.8	
792.67	4772.4	
792.84	3249.4	
793.02	3093.1	
793.19	5092.6	
793.37	5724.1	
793.54	2897.9	
793.72	3198.9	
793.89	5717.2	
794.07	4661.9	
794.25	3590.1	
794.42	2889	
794.6	5587.5	
794.77	5263.3	
794.95	3962.1	
795.12	3459	
795.3	4740.4	
795.47	5218.9	
795.65	3848.1	
795.82	3681.6	
796	4572.4	
796.17	6128.9	
796.35	3540.3	
796.52	4143.7	
796.7	5091.3	
796.87	5290.6	
797.05	3484.3	
797.22	4283	
797.4	5227.8	
797.57	6057.9	
797.75	3692.5	
797.92	3446.7	
798.1	5468.1	
798.27	4601.1	
798.45	3001	
798.62	3195.5	
798.8	4962.2	
798.97	5397.1	
799.15	3861.1	
799.32	3702.7	
799.5	4343.7	
799.67	4982.7	
799.85	3973.7	
800.02	2902.7	
800.2	4641.4	
800.37	4936.3	
800.55	4087.7	
800.72	3429.7	
800.9	5360.2	
801.07	5737.7	
801.25	4558.1	
801.42	3801.7	
801.6	5458.5	
801.77	5081	
801.95	3574.4	
802.12	3356.6	
802.29	5140.4	
802.47	5074.9	
802.64	3762.1	
802.82	2773.6	
802.99	4664.6	
803.17	5481	
803.34	3646.7	
803.52	3278.1	
803.69	6051.7	
803.87	4463.2	
804.04	3671.3	
804.21	3686.3	
804.39	5558.2	
804.56	4782	
804.74	3145.7	
804.91	3771	
805.09	4667.3	
805.26	4771.1	
805.44	3183.2	
805.61	3528.7	
805.78	5272.2	
805.96	5232.6	
806.13	3773.7	
806.31	4017.4	
806.48	4234.5	
806.66	4762.9	
806.83	3788.7	
807	3649.5	
807.18	4657.1	
807.35	4979.3	
807.53	3592.8	
807.7	2973.7	
807.87	5725.4	
808.05	4704.2	
808.22	4063.9	
808.4	2979.8	
808.57	4655	
808.74	4412.7	
808.92	3396.9	
809.09	4316.4	
809.27	4624.3	
809.44	5117.2	
809.61	3033.7	
809.79	3296.5	
809.96	5748	
810.14	5326.1	
810.31	2938.2	
810.48	3512.9	
810.66	4783.4	
810.83	5417.6	
811.01	3388	
811.18	3734.1	
811.35	5304.9	
811.53	4248.2	
811.7	4078.9	
811.87	3803.8	
812.05	4704.9	
812.22	4615.4	
812.39	3269.9	
812.57	3182.5	
812.74	4734.9	
812.92	6201.2	
813.09	3545	
813.26	3829	
813.44	5948	
813.61	4647.5	
813.78	2955.2	
813.96	3954.6	
814.13	4729.4	
814.3	4445.5	
814.48	4226.3	
814.65	3547.1	
814.82	6021.7	
815	4474.1	
815.17	3621.5	
815.34	4359.4	
815.52	4606.6	
815.69	4656.4	
815.87	3512.3	
816.04	3571.7	
816.21	4721.3	
816.38	4199	
816.56	3497.2	
816.73	3238.5	
816.9	5881.1	
817.08	5359.5	
817.25	3350.5	
817.42	4108.9	
817.6	4382.7	
817.77	4715.8	
817.94	3734.8	
818.12	3232.4	
818.29	4486.4	
818.46	6733	
818.64	3414.6	
818.81	3166.8	
818.98	4444.8	
819.16	6332.3	
819.33	3883.6	
819.5	3633.1	
819.67	5059.8	
819.85	5606.7	
820.02	3573	
820.19	3758	
820.37	4886.5	
820.54	4516.5	
820.71	3710.9	
820.88	4564.9	
821.06	4927.4	
821.23	4502.1	
821.4	3706.1	
821.58	3641.3	
821.75	5324.7	
821.92	4839.4	
822.09	2993.4	
822.27	3102.7	
822.44	4744.5	
822.61	4625	
822.79	2990.7	
822.96	5651	
823.13	5079.6	
823.3	4463.9	
823.48	3456.3	
823.65	3154.6	
823.82	5297.4	
823.99	4349.2	
824.17	4383.3	
824.34	3192.8	
824.51	6120.7	
824.68	4806.6	
824.86	3337.5	
825.03	3738.9	
825.2	4749.9	
825.37	5648.3	
825.55	3271.3	
825.72	3647.4	
825.89	6141.9	
826.06	5714.5	
826.24	3521.1	
826.41	3527.3	
826.58	5702.9	
826.75	4958.1	
826.92	2854.9	
827.1	3207.8	
827.27	7656	
827.44	6063.4	
827.61	3338.9	
827.79	4050.2	
827.96	4517.8	
828.13	4741	
828.3	3549.1	
828.47	2990.7	
828.65	4970.4	
828.82	4890.5	
828.99	4472.8	
829.16	3977.2	
829.34	5296.7	
829.51	5152	
829.68	3672.7	
829.85	3768.9	
830.02	5565.7	
830.2	5246.9	
830.37	2835.1	
830.54	4309.6	
830.71	5986.2	
830.88	4745.8	
831.05	2914.3	
831.23	3279.5	
831.4	5745.9	
831.57	6349.4	
831.74	3364.8	
831.91	2974.3	
832.09	4997	
832.26	5245.5	
832.43	3495.2	
832.6	3881.6	
832.77	4944.5	
832.94	5599.8	
833.12	2831	
833.29	3499.3	
833.46	4635.9	
833.63	6562.4	
833.8	3773.7	
833.97	3493.2	
834.15	5352	
834.32	5162.2	
834.49	3596.9	
834.66	3701.4	
834.83	5430.5	
835	4562.9	
835.17	3402.4	
835.35	3330.7	
835.52	5245.5	
835.69	5081.7	
835.86	3621.5	
836.03	2956.6	
836.2	5258.5	
836.37	4909.7	
836.55	3529.3	
836.72	3336.1	
836.89	4913.1	
837.06	5401.9	
837.23	3558.7	
837.4	3862.5	
837.57	5963.7	
837.75	6487.3	
837.92	3193.5	
838.09	3400.3	
838.26	4916.5	
838.43	5518.6	
838.6	3668.6	
838.77	3297.9	
838.94	6212.2	
839.11	6019	
839.29	3504.8	
839.46	2814.6	
839.63	5256.5	
839.8	5023	
839.97	3378.5	
840.14	3387.3	
840.31	5150.6	
840.48	5322.7	
840.65	2847.4	
840.82	3295.9	
841	5276.9	
841.17	5155.4	
841.34	3126.6	
841.51	3149.1	
841.68	5175.2	
841.85	4971.1	
842.02	3263.1	
842.19	2676	
842.36	5042.1	
842.53	5053.7	
842.7	3104	
842.87	3802.4	
843.05	6529.6	
843.22	5029.8	
843.39	2992.1	
843.56	3297.9	
843.73	4848.2	
843.9	5340.4	
844.07	4936.3	
844.24	4216.1	
844.41	7417.7	
844.58	4661.9	
844.75	3065.8	
844.92	3318.4	
845.09	5266.7	
845.26	5254.4	
845.43	3132.7	
845.6	3297.9	
845.77	5255.8	
845.94	5018.9	
846.12	3444.7	
846.29	3597.6	
846.46	5451	
846.63	5264.6	
846.8	3097.2	
846.97	3719.8	
847.14	5657.9	
847.31	5205.3	
847.48	3481.5	
847.65	3863.2	
847.82	5509	
847.99	5470.8	
848.16	4128.7	
848.33	3827.7	
848.5	4856.4	
848.67	5681.7	
848.84	3078.1	
849.01	3257.6	
849.18	4802.5	
849.35	4487.1	
849.52	3882.9	
849.69	3049.4	
849.86	5406	
850.03	5592.3	
850.2	3115.6	
850.37	3759.4	
850.54	5542.5	
850.71	4960.2	
850.88	3708.9	
851.05	3059	
851.22	5182.7	
851.39	5700.9	
851.56	2953.2	
851.73	3563.5	
851.9	4660.5	
852.07	5448.3	
852.24	3435.1	
852.41	3060.3	
852.58	5173.2	
852.75	4710.3	
852.92	3537.5	
853.09	3059.7	
853.26	4899.4	
853.43	5593.7	
853.6	3123.2	
853.77	2682.8	
853.94	5756.2	
854.11	5145.2	
854.28	4555.4	
854.44	3351.2	
854.61	6120	
854.78	5541.1	
854.95	3051.5	
855.12	3803.8	
855.29	4280.9	
855.46	6052.4	
855.63	3087	
855.8	4293.2	
855.97	4798.4	
856.14	5555.5	
856.31	4351.9	
856.48	3360.7	
856.65	4868.7	
856.82	4618.9	
856.99	2973	
857.16	3344.3	
857.33	6320.7	
857.49	4969.1	
857.66	3393.5	
857.83	3560.7	
858	4971.8	
858.17	5101.5	
858.34	2931.3	
858.51	3097.9	
858.68	5840.1	
858.85	5913.2	
859.02	3599.6	
859.19	3806.5	
859.36	4683	
859.52	4650.9	
859.69	3101.3	
859.86	3644.7	
860.03	4710.3	
860.2	5728.9	
860.37	2822.8	
860.54	3087.7	
860.71	5442.1	
860.88	5780.7	
861.05	3499.3	
861.21	3880.9	
861.38	5830.6	
861.55	4511.7	
861.72	2898.6	
861.89	3439.9	
862.06	5495.4	
862.23	5896.8	
862.4	3010.5	
862.56	3257	
862.73	5335	
862.9	5024.3	
863.07	3601	
863.24	2912.9	
863.41	4539	
863.58	4650.9	
863.75	3181.9	
863.91	3569.6	
864.08	5760.3	
864.25	5336.3	
864.42	3822.9	
864.59	4290.5	
864.76	6012.8	
864.93	4646.8	
865.09	3063.1	
865.26	3307.5	
865.43	5694.7	
865.6	6006	
865.77	2767.5	
865.94	3121.1	
866.1	5668.1	
866.27	5422.3	
866.44	4617.5	
866.61	2975.7	
866.78	5012.7	
866.95	5405.3	
867.11	3067.2	
867.28	2791.4	
867.45	5563	
867.62	4668	
867.79	3541.6	
867.96	3106.8	
868.12	4577.9	
868.29	5442.8	
868.46	2726.5	
868.63	4117.8	
868.8	5579.3	
868.97	5423	
869.13	3254.9	
869.3	3273.3	
869.47	5293.3	
869.64	5486.5	
869.81	3126.6	
869.97	3125.9	
870.14	5218.9	
870.31	5758.2	
870.48	3054.2	
870.65	3889.8	
870.81	4949.3	
870.98	4986.1	
871.15	3508.9	
871.32	3274.7	
871.48	5300.8	
871.65	5839.4	
871.82	3046	
871.99	3431.7	
872.16	6206.7	
872.32	5652.4	
872.49	3147	
872.66	3152.5	
872.83	5423	
872.99	4822.3	
873.16	3491.1	
873.33	3041.2	
873.5	5121.3	
873.67	5139.7	
873.83	3280.8	
874	4098	
874.17	5175.9	
874.34	6125.5	
874.5	3938.2	
874.67	3885.7	
874.84	5770.5	
875.01	4560.8	
875.17	4303.5	
875.34	3104	
875.51	5192.3	
875.68	6164.4	
875.84	3699.3	
876.01	4523.3	
876.18	5438.7	
876.34	5371.8	
876.51	3156.6	
876.68	3049.4	
876.85	4933.6	
877.01	5659.9	
877.18	4380.6	
877.35	3040.6	
877.52	5134.9	
877.68	4564.2	
877.85	3057.6	
878.02	3102.7	
878.18	5029.1	
878.35	4829.1	
878.52	2481.5	
878.69	3424.9	
878.85	5438	
879.02	5319.9	
879.19	4327.4	
879.35	3329.3	
879.52	5414.8	
879.69	5558.2	
879.86	2697.2	
880.02	3469.3	
880.19	5094	
880.36	6081.8	
880.52	3503.4	
880.69	3640.6	
880.86	5516.5	
881.02	5518.6	
881.19	3422.8	
881.36	3304.7	
881.52	5347.9	
881.69	4800.4	
881.86	3338.9	
882.02	3282.2	
882.19	5610.1	
882.36	6453.8	
882.52	3159.3	
882.69	4350.6	
882.86	5238	
883.02	5111.7	
883.19	3768.3	
883.36	3549.1	
883.52	5504.3	
883.69	6179.4	
883.86	3138.9	
884.02	2810.5	
884.19	5431.2	
884.36	5041.4	
884.52	3487	
884.69	3269.9	
884.86	4816.1	
885.02	5965.1	
885.19	3458.3	
885.36	3512.9	
885.52	5004.6	
885.69	5236.7	
885.86	4461.2	
886.02	3986	
886.19	5441.5	
886.35	4866	
886.52	3403.7	
886.69	4306.9	
886.85	4637.3	
887.02	5710.4	
887.19	5710.4	
887.35	5710.4	
887.52	5710.4	
887.68	5710.4	
887.85	5710.4	
888.02	5710.4	
888.18	5710.4	
888.35	5710.4	
888.51	5710.4	
888.68	5710.4	
888.85	5710.4	
889.01	5710.4	
889.18	5710.4	
889.35	5710.4	
889.51	5710.4	
889.68	5710.4	
889.84	5710.4	
890.01	5710.4	
890.17	5710.4	
890.34	5710.4	
890.51	5710.4	
890.67	5710.4	
890.84	5710.4	
891	5710.4	
891.17	5710.4	
891.34	5710.4	
891.5	5710.4	
891.67	5710.4	
891.83	5710.4	
892	5710.4	
892.16	5710.4	
892.33	5710.4	
892.5	5710.4	
892.66	5710.4	
892.83	5710.4	
892.99	5710.4	
893.16	5710.4	
893.32	5710.4	
893.49	5710.4	
893.65	5710.4	
893.82	5710.4	
893.99	5710.4	
894.15	5710.4	
894.32	5710.4	
894.48	5710.4	
894.65	5710.4	
894.81	5710.4	
894.98	5710.4	
895.14	5710.4	
895.31	5710.4	
895.47	5710.4	
895.64	5710.4	
895.81	5710.4	
895.97	5710.4	
896.14	5710.4	
896.3	5710.4	
896.47	5710.4	
896.63	5710.4	
896.8	5710.4	
896.96	5710.4	
897.13	5710.4	
897.29	5710.4	
897.46	5710.4	
897.62	5710.4	
897.79	5710.4	
897.95	5710.4	
898.12	5710.4	
898.28	5710.4	
898.45	5710.4	
898.61	5710.4	
898.78	5710.4	
898.94	5710.4	
899.11	5710.4	
899.27	5710.4	
899.44	5710.4	
899.6	5710.4	
899.77	5710.4	
899.93	5710.4	
900.1	5710.4	
900.26	5710.4	
900.43	5710.4	
900.59	5710.4	
900.76	5710.4	
900.92	5710.4	
901.09	5710.4	
901.25	5710.4	
901.42	5710.4	
901.58	5710.4	
901.75	5710.4	
901.91	5710.4	
902.07	5710.4	
902.24	5710.4	
902.4	5710.4	
902.57	5710.4	
902.73	5710.4	
902.9	5710.4	
903.06	5710.4	
903.23	5710.4	
903.39	5710.4	
903.56	5710.4	
903.72	5710.4	
903.88	5710.4	
904.05	5710.4	
904.21	5710.4	
904.38	5710.4	
904.54	5710.4	
904.71	5710.4	
904.87	5710.4	
905.03	5710.4	
905.2	5710.4	
905.36	5710.4	
905.53	5710.4	
905.69	5710.4	
905.86	5710.4	
906.02	5710.4	
906.18	5710.4	
906.35	5710.4	
906.51	5710.4	
906.68	5710.4	
906.84	5710.4	
907.01	5710.4	
907.17	5710.4	
907.33	5710.4	
907.5	5710.4	
907.66	5710.4	
907.83	5710.4	
907.99	5710.4	
908.15	5710.4	
908.32	5710.4	
908.48	5710.4	
908.65	5710.4	
908.81	5710.4	
908.97	5710.4	
909.14	5710.4	
909.3	5710.4	
909.47	5710.4	
909.63	5710.4	
909.79	5710.4	
909.96	5710.4	
910.12	5710.4	
910.28	5710.4	
910.45	5710.4	
910.61	5710.4	
910.78	5710.4	
910.94	5710.4	
911.1	5710.4	
911.27	5710.4	
911.43	5710.4	
911.59	5710.4	
911.76	5710.4	
911.92	5710.4	
912.08	5710.4	
912.25	5710.4	
912.41	5710.4	
912.57	5710.4	
912.74	5710.4	
912.9	5710.4	
913.07	5710.4	
913.23	5710.4	
913.39	5710.4	
913.56	5710.4	
913.72	5710.4	
913.88	5710.4	
914.05	5710.4	
914.21	5710.4	
914.37	5710.4	
914.54	5710.4	
914.7	5710.4	
914.86	5710.4	
915.03	5710.4	
915.19	5710.4	
