Wavelength	Intensities	
nm	a.u.	
179.22	1931.9	
179.44	1925.1	
179.65	1938.7	
179.86	1911.4	
180.08	1931.9	
180.29	4848.9	
180.51	3525.9	
180.72	5638.1	
180.94	6667.5	
181.15	3327.3	
181.37	3166.8	
181.58	5550	
181.79	5880.4	
182.01	3352.5	
182.22	3627	
182.44	5776	
182.65	4873.5	
182.87	4566.3	
183.08	4042	
183.29	6135.7	
183.51	5018.9	
183.72	3662.5	
183.94	5395.7	
184.15	5354.1	
184.37	5478.3	
184.58	3177.8	
184.79	4469.4	
185.01	5004.6	
185.22	5776	
185.44	4680.3	
185.65	3912.3	
185.86	5300.1	
186.08	4889.2	
186.29	3125.2	
186.51	3358.7	
186.72	4992.3	
186.94	5874.9	
187.15	3897.3	
187.36	4054.3	
187.58	7800.7	
187.79	5547.9	
188.01	4231.8	
188.22	6583.5	
188.43	6679.1	
188.65	5746.6	
188.86	3371.6	
189.08	4084.3	
189.29	5211.4	
189.5	5264.6	
189.72	3737.5	
189.93	3842	
190.15	5981.4	
190.36	7187	
190.57	4122.6	
190.79	4026.3	
191	6101.6	
191.22	6032	
191.43	4123.9	
191.64	3328.6	
191.86	6313.2	
192.07	6014.2	
192.29	3566.9	
192.5	3784	
192.71	5982.8	
192.93	5141.8	
193.14	3713.6	
193.35	3839.9	
193.57	5177.3	
193.78	6029.9	
194	3021.4	
194.21	3649.5	
194.42	4939	
194.64	5428.5	
194.85	4061.1	
195.07	4709	
195.28	5532.2	
195.49	4703.5	
195.71	5024.4	
195.92	3476.1	
196.13	5653.1	
196.35	5730.9	
196.56	5298.8	
196.78	4040	
196.99	7053.2	
197.2	6595.1	
197.42	4563.6	
197.63	4089.8	
197.84	4825.7	
198.06	5584.8	
198.27	3744.4	
198.48	4983.4	
198.7	5146.5	
198.91	5279.7	
199.13	4061.8	
199.34	4169.7	
199.55	5854.5	
199.77	4728.1	
199.98	3598.3	
200.19	4176.5	
200.41	5258.5	
200.62	5043.5	
200.83	4239.3	
201.05	4562.9	
201.26	5318.6	
201.47	5046.2	
201.69	3658.4	
201.9	3450.1	
202.11	5405.3	
202.33	6411.5	
202.54	3814.7	
202.76	4229.7	
202.97	5507.7	
203.18	5543.2	
203.4	4246.1	
203.61	4123.2	
203.82	5472.9	
204.04	5146.5	
204.25	4192.9	
204.46	4057.7	
204.68	5447.6	
204.89	5624.4	
205.1	3993.5	
205.32	3441.3	
205.53	5827.8	
205.74	5949.3	
205.96	2976.4	
206.17	4148.5	
206.38	5812.1	
206.6	5930.2	
206.81	4719.2	
207.02	3866.6	
207.24	5692.7	
207.45	6141.9	
207.66	3910.3	
207.88	3309.5	
208.09	5626.5	
208.3	5451.7	
208.52	3543.7	
208.73	3904.8	
208.94	5475.6	
209.15	6176.7	
209.37	3900.7	
209.58	4089.1	
209.79	5963.7	
210.01	5180.7	
210.22	3092.4	
210.43	3242.6	
210.65	5440.8	
210.86	5917.3	
211.07	3893.2	
211.29	3538.9	
211.5	5771.2	
211.71	5392.3	
211.93	3570.3	
212.14	3493.8	
212.35	5355.4	
212.56	5609.4	
212.78	4114.4	
212.99	3372.3	
213.2	6432.7	
213.42	5180	
213.63	3671.3	
213.84	3917.8	
214.06	4801.8	
214.27	4873.5	
214.48	3852.9	
214.69	4159.4	
214.91	6102.3	
215.12	6173.9	
215.33	4246.8	
215.55	4643.4	
215.76	6619.7	
215.97	5840.1	
216.18	4031.8	
216.4	3964.9	
216.61	5059.2	
216.82	6006.7	
217.04	3576.4	
217.25	3719.1	
217.46	6139.8	
217.67	5796.4	
217.89	3148.4	
218.1	3344.3	
218.31	5463.3	
218.53	5603.9	
218.74	3721.2	
218.95	3645.4	
219.16	5397.8	
219.38	6333.7	
219.59	3691.8	
219.8	4332.8	
220.01	7085.3	
220.23	5494	
220.44	4812.7	
220.65	3480.9	
220.87	5526.8	
221.08	6105.7	
221.29	3278.1	
221.5	4380.6	
221.72	7493.5	
221.93	5141.8	
222.14	4142.4	
222.35	4840	
222.57	5493.3	
222.78	5825.1	
222.99	3855.6	
223.2	4244.1	
223.42	5790.3	
223.63	5887.9	
223.84	3002.3	
224.05	2975.7	
224.27	6963.1	
224.48	6348.7	
224.69	4834.6	
224.9	4087.1	
225.12	5649.7	
225.33	5412.1	
225.54	3282.9	
225.75	3643.3	
225.97	4978.6	
226.18	5286.5	
226.39	3986	
226.6	3635.8	
226.82	5162.9	
227.03	5016.8	
227.24	4095.3	
227.45	3434.4	
227.67	5782.1	
227.88	6423.1	
228.09	4534.9	
228.3	4575.8	
228.52	5827.8	
228.73	5361.6	
228.94	3777.8	
229.15	3368.9	
229.36	5332.9	
229.58	5299.5	
229.79	3848.8	
230	4440.7	
230.21	6460	
230.43	5544.5	
230.64	4052.2	
230.85	4196.3	
231.06	5873.6	
231.28	5881.8	
231.49	3371.6	
231.7	3969.6	
231.91	5739.8	
232.12	5454.4	
232.34	3427.6	
232.55	3976.5	
232.76	6075	
232.97	5648.3	
233.18	3596.9	
233.4	4040.6	
233.61	5686.5	
233.82	5202.5	
234.03	3776.5	
234.25	3673.4	
234.46	7612.3	
234.67	5478.3	
234.88	4153.3	
235.09	3667.9	
235.31	5737	
235.52	5333.6	
235.73	4002.4	
235.94	3448.1	
236.15	5129.5	
236.37	6616.3	
236.58	3569.6	
236.79	3973.1	
237	5707.7	
237.21	4960.2	
237.43	4160.8	
237.64	3321.1	
237.85	10025	
238.06	4936.3	
238.27	4264.6	
238.48	3471.3	
238.7	5744.6	
238.91	5227.8	
239.12	3923.9	
239.33	3900	
239.54	5193	
239.76	5380.7	
239.97	3869.3	
240.18	3869.3	
240.39	6824.5	
240.6	5733.6	
240.82	4067.9	
241.03	3326.6	
241.24	5443.5	
241.45	6254.5	
241.66	3620.1	
241.87	4220.9	
242.09	6152.8	
242.3	6561.7	
242.51	4236.6	
242.72	3930.1	
242.93	5907.7	
243.14	5380.7	
243.36	4523.3	
243.57	4952	
243.78	6303	
243.99	5693.4	
244.2	3884.3	
244.41	3525.2	
244.63	4967	
244.84	5770.5	
245.05	4198.3	
245.26	3959.4	
245.47	5707.7	
245.68	6036	
245.9	5251	
246.11	4083.6	
246.32	5272.8	
246.53	5698.1	
246.74	6324.1	
246.95	3284.3	
247.16	4885.1	
247.38	5431.2	
247.59	3261.7	
247.8	3964.9	
248.01	5085.1	
248.22	5383.4	
248.43	3605.8	
248.64	3827.7	
248.86	4780.6	
249.07	5156.1	
249.28	3461.7	
249.49	3977.8	
249.7	6001.2	
249.91	6152.8	
250.12	3252.2	
250.34	3303.4	
250.55	5580.7	
250.76	5462.6	
250.97	4030.4	
251.18	4159.4	
251.39	6135.7	
251.6	5631.9	
251.81	4205.2	
252.03	4121.2	
252.24	5124.7	
252.45	5975.3	
252.66	3402.4	
252.87	4313	
253.08	5451.7	
253.29	7130.3	
253.5	3446	
253.72	4817.5	
253.93	5242.8	
254.14	6457.2	
254.35	3693.9	
254.56	3858.4	
254.77	5713.8	
254.98	5068	
255.19	3689.1	
255.41	4756.1	
255.62	5514.5	
255.83	6105	
256.04	4261.8	
256.25	4150.6	
256.46	6684.6	
256.67	5084.4	
256.88	4096.6	
257.09	4533.5	
257.31	5099.4	
257.52	5123.3	
257.73	5045.5	
257.94	3674.1	
258.15	5240.8	
258.36	5482.4	
258.57	4677.6	
258.78	3024.2	
258.99	5928.2	
259.2	5274.9	
259.41	3786	
259.63	3878.2	
259.84	6356.2	
260.05	6776.7	
260.26	4971.1	
260.47	3609.9	
260.68	6045.6	
260.89	5354.8	
261.1	4562.2	
261.31	3558	
261.52	6008.1	
261.73	6373.3	
261.95	4901.5	
262.16	4271.4	
262.37	6163.7	
262.58	6279.1	
262.79	4831.8	
263	3807.9	
263.21	5446.9	
263.42	5005.2	
263.63	3910.3	
263.84	3764.8	
264.05	5888.6	
264.26	6373.3	
264.47	4668	
264.69	4207.9	
264.9	6151.4	
265.11	5620.3	
265.32	3642.7	
265.53	3713	
265.74	5558.2	
265.95	4827.1	
266.16	3930.7	
266.37	4493.9	
266.58	5539.1	
266.79	5242.8	
267	3663.8	
267.21	3433.8	
267.42	4978.6	
267.63	5443.5	
267.84	3887	
268.06	3348.4	
268.27	5853.8	
268.48	6227.9	
268.69	3792.2	
268.9	4548.5	
269.11	6122.1	
269.32	4901.5	
269.53	3966.2	
269.74	3607.2	
269.95	5774.6	
270.16	4736.3	
270.37	3978.5	
270.58	4528.1	
270.79	5308.3	
271	5934.3	
271.21	4199.7	
271.42	3923.2	
271.63	5586.2	
271.84	5093.3	
272.05	3117	
272.26	3559.4	
272.47	5459.9	
272.68	5630.5	
272.89	3725.3	
273.11	4305.5	
273.32	5205.3	
273.53	6339.8	
273.74	4273.4	
273.95	4161.5	
274.16	6071.5	
274.37	5509.7	
274.58	4362.2	
274.79	3415.3	
275	5578.7	
275.21	6130.9	
275.42	5220.3	
275.63	4486.4	
275.84	5666.7	
276.05	7189.1	
276.26	4100	
276.47	3853.6	
276.68	5253	
276.89	6498.2	
277.1	4421.6	
277.31	3474.7	
277.52	5713.2	
277.73	5855.8	
277.94	3411.2	
278.15	3808.5	
278.36	5651	
278.57	5108.3	
278.78	3782.6	
278.99	4266.6	
279.2	5010	
279.41	5002.5	
279.62	4977.9	
279.83	3536.2	
280.04	6710.5	
280.25	4986.8	
280.46	4928.8	
280.67	3913	
280.88	5075.5	
281.09	6147.3	
281.3	4136.2	
281.51	5193	
281.72	5899.5	
281.93	5976	
282.14	3664.5	
282.35	3966.9	
282.56	5943.9	
282.77	5906.3	
282.98	3765.5	
283.19	4738.3	
283.4	7288.7	
283.61	5401.9	
283.82	3424.2	
284.03	4829.8	
284.24	5508.4	
284.45	6112.5	
284.66	4917.9	
284.87	4686.4	
285.08	6083.8	
285.29	6206	
285.5	3347.7	
285.71	3825.6	
285.92	6141.2	
286.12	6774.7	
286.33	4836.6	
286.54	3813.3	
286.75	5951.4	
286.96	5327.4	
287.17	3524.6	
287.38	4805.2	
287.59	5052.3	
287.8	4947.2	
288.01	3867.2	
288.22	4461.8	
288.43	5969.8	
288.64	4984.8	
288.85	4595.6	
289.06	4376.5	
289.27	5863.3	
289.48	6434	
289.69	4881.7	
289.9	4366.3	
290.11	6092	
290.32	5177.3	
290.53	4617.5	
290.74	4240.7	
290.94	5887.9	
291.15	5911.1	
291.36	3713.7	
291.57	4450.2	
291.78	5255.8	
291.99	4885.1	
292.2	3487	
292.41	4281.6	
292.62	5982.1	
292.83	5840.8	
293.04	5257.8	
293.25	3536.8	
293.46	5287.2	
293.67	6115.2	
293.88	3680.9	
294.09	3565.5	
294.29	4985.4	
294.5	5609.4	
294.71	3966.9	
294.92	3787.4	
295.13	5217.5	
295.34	6514.6	
295.55	3306.8	
295.76	3356.6	
295.97	5872.2	
296.18	6692.8	
296.39	3431	
296.6	3713	
296.81	5530.2	
297.01	5954.1	
297.22	3870	
297.43	3611.9	
297.64	5116.5	
297.85	5094	
298.06	3023.5	
298.27	3358	
298.48	5526.8	
298.69	5180	
298.9	3988.8	
299.11	3558	
299.31	4954.7	
299.52	4973.8	
299.73	4300.7	
299.94	4186	
300.15	5422.3	
300.36	5039.4	
300.57	4177.2	
300.78	4153.3	
300.99	5318.6	
301.2	5572.5	
301.4	3637.2	
301.61	4000.4	
301.82	5778	
302.03	5935.7	
302.24	4547.2	
302.45	3482.9	
302.66	5721.3	
302.87	6146.6	
303.08	3650.2	
303.29	5011.4	
303.49	5182.7	
303.7	5496.7	
303.91	3276.1	
304.12	4814.1	
304.33	4975.2	
304.54	5599.8	
304.75	3717.7	
304.96	3534.1	
305.16	5799.8	
305.37	6563.1	
305.58	3150.5	
305.79	3327.9	
306	5813.5	
306.21	4838	
306.42	3614	
306.63	5668.1	
306.83	5239.4	
307.04	6082.5	
307.25	4060.4	
307.46	4052.2	
307.67	4629.8	
307.88	5898.8	
308.09	3601.7	
308.29	3749.1	
308.5	5504.9	
308.71	6083.8	
308.92	3904.1	
309.13	3580.5	
309.34	5371.8	
309.55	5360.2	
309.75	4597.7	
309.96	4189.5	
310.17	5884.5	
310.38	5173.9	
310.59	4400.4	
310.8	3464.5	
311.01	5248.3	
311.21	5324	
311.42	3444	
311.63	3610.6	
311.84	5180.7	
312.05	5594.4	
312.26	4099.4	
312.46	4571.1	
312.67	5281	
312.88	4985.4	
313.09	3586.7	
313.3	3478.8	
313.51	6315.3	
313.71	6619.7	
313.92	3545	
314.13	3725.3	
314.34	5593.7	
314.55	5369.8	
314.76	4625	
314.96	3962.1	
315.17	5495.4	
315.38	5971.9	
315.59	3584.6	
315.8	3380.5	
316.01	6428.6	
316.21	6412.2	
316.42	3435.8	
316.63	3930.1	
316.84	5289.9	
317.05	6170.5	
317.26	4235.9	
317.46	3731.4	
317.67	5330.2	
317.88	5795.8	
318.09	4510.3	
318.3	3311.6	
318.5	5115.8	
318.71	5786.9	
318.92	5784.1	
319.13	4174.4	
319.34	6015.6	
319.54	6143.2	
319.75	3323.2	
319.96	3182.5	
320.17	5813.5	
320.38	6020.3	
320.58	3198.2	
320.79	3904.1	
321	6016.2	
321.21	6208.1	
321.42	3942.3	
321.62	3237.8	
321.83	5018.2	
322.04	5446.9	
322.25	3725.9	
322.46	3596.2	
322.66	5603.9	
322.87	5705	
323.08	4496.7	
323.29	3480.2	
323.5	6551.5	
323.7	4971.1	
323.91	4820.9	
324.12	4350.6	
324.33	5580	
324.53	5823.1	
324.74	4194.9	
324.95	4435.9	
325.16	4870.8	
325.37	5255.1	
325.57	3583.3	
325.78	3609.2	
325.99	5543.9	
326.2	4967	
326.4	5221.6	
326.61	3300.6	
326.82	5405.3	
327.03	5593	
327.24	5111.7	
327.44	4775.2	
327.65	5762.3	
327.86	4646.2	
328.07	4186	
328.27	3415.3	
328.48	6151.4	
328.69	5044.8	
328.9	5175.9	
329.1	3762.8	
329.31	5392.3	
329.52	6352.1	
329.73	3586.7	
329.93	4038.6	
330.14	5462.6	
330.35	5724.8	
330.56	5937.1	
330.76	4420.9	
330.97	5285.8	
331.18	5671.5	
331.39	3973.1	
331.59	3137.5	
331.8	6018.3	
332.01	6170.5	
332.22	3623.5	
332.42	4248.9	
332.63	5613.5	
332.84	5181.4	
333.05	4009.2	
333.25	3679.5	
333.46	5220.3	
333.67	5484.5	
333.88	3738.2	
334.08	4130.8	
334.29	7291.5	
334.5	6171.9	
334.7	3461.7	
334.91	5092.6	
335.12	5016.8	
335.33	5887.2	
335.53	3977.2	
335.74	5922.7	
335.95	5212.1	
336.16	5061.2	
336.36	3951.9	
336.57	4593.6	
336.78	4924	
336.98	6042.2	
337.19	4887.1	
337.4	3897.3	
337.61	6543.9	
337.81	4970.4	
338.02	3589.4	
338.23	4762.9	
338.43	6246.3	
338.64	5128.1	
338.85	3591.5	
339.05	4760.2	
339.26	6266.1	
339.47	4931.5	
339.68	3520.5	
339.88	5355.4	
340.09	5693.4	
340.3	5969.8	
340.5	4161.5	
340.71	3212.6	
340.92	4909.7	
341.13	6226.5	
341.33	3491.1	
341.54	4261.1	
341.75	5667.4	
341.95	5316.5	
342.16	4048.8	
342.37	4344.4	
342.57	5043.5	
342.78	5367	
342.99	4475.5	
343.19	3219.4	
343.4	5912.5	
343.61	5742.5	
343.81	3860.4	
344.02	3475.4	
344.23	5823.7	
344.43	6272.9	
344.64	4425	
344.85	4427.7	
345.06	5720	
345.26	6087.9	
345.47	4145.1	
345.68	4896.7	
345.88	4835.9	
346.09	5991.7	
346.3	4224.3	
346.5	3141.6	
346.71	5438	
346.92	5169.8	
347.12	3266.5	
347.33	4113.7	
347.54	6012.2	
347.74	6460	
347.95	4124.6	
348.16	3005.7	
348.36	5297.4	
348.57	4941.7	
348.78	4069.3	
348.98	4394.3	
349.19	5401.9	
349.39	4914.4	
349.6	3209.8	
349.81	3620.8	
350.01	5713.2	
350.22	5130.2	
350.43	3951.9	
350.63	4752	
350.84	5494.7	
351.05	5180	
351.25	3657	
351.46	3201	
351.67	6042.9	
351.87	5130.2	
352.08	3790.8	
352.29	4360.8	
352.49	5913.9	
352.7	6003.3	
352.9	3527.3	
353.11	4375.1	
353.32	6672.3	
353.52	5253	
353.73	3420.8	
353.94	4415.4	
354.14	5756.8	
354.35	5557.5	
354.55	3568.2	
354.76	3931.4	
354.97	5748	
355.17	5502.9	
355.38	3304.7	
355.59	4676.9	
355.79	5087.2	
356	5580.7	
356.2	3945.1	
356.41	3406.5	
356.62	4894	
356.82	5336.3	
357.03	4224.3	
357.24	3776.5	
357.44	5175.9	
357.65	5297.4	
357.85	5070.1	
358.06	3961.5	
358.27	4874.2	
358.47	5079	
358.68	3331.4	
358.88	4234.5	
359.09	5680.4	
359.3	6081.1	
359.5	4934.2	
359.71	4358.8	
359.91	6651.8	
360.12	5847	
360.33	4171.7	
360.53	4649.6	
360.74	5160.2	
360.94	5233.9	
361.15	4364.2	
361.36	3609.9	
361.56	5958.9	
361.77	5360.2	
361.97	4904.2	
362.18	3794.2	
362.38	5903.6	
362.59	5047.6	
362.8	3479.5	
363	3420.1	
363.21	4786.8	
363.41	5478.3	
363.62	4024.9	
363.83	5121.3	
364.03	5556.1	
364.24	6520.7	
364.44	5245.5	
364.65	5045.5	
364.85	5350.7	
365.06	5244.2	
365.27	3706.1	
365.47	3820.8	
365.68	6394.4	
365.88	5248.3	
366.09	4094.6	
366.29	3814.7	
366.5	5563	
366.71	5982.8	
366.91	5051	
367.12	4287.8	
367.32	6592.4	
367.53	5891.3	
367.73	4204.5	
367.94	5176.6	
368.14	5792.3	
368.35	6706.4	
368.56	4187.4	
368.76	3601.7	
368.97	5881.1	
369.17	7651.2	
369.38	3704.8	
369.58	3990.8	
369.79	4910.3	
369.99	6287.9	
370.2	5028.4	
370.4	4128	
370.61	5579.3	
370.82	6769.2	
371.02	4012	
371.23	3306.8	
371.43	4825	
371.64	6154.1	
371.84	3997.6	
372.05	5258.5	
372.25	7573.4	
372.46	5904.3	
372.66	3971.7	
372.87	3926	
373.07	5930.2	
373.28	7548.8	
373.48	5016.8	
373.69	4652.3	
373.9	5445.5	
374.1	5392.3	
374.31	4868	
374.51	4409.3	
374.72	6215.6	
374.92	5096.7	
375.13	5126.7	
375.33	4296	
375.54	5795.1	
375.74	5235.3	
375.95	4302.8	
376.15	5563.6	
376.36	5822.4	
376.56	5657.9	
376.77	4337.6	
376.97	4799.1	
377.18	6834.1	
377.38	5877	
377.59	5185.5	
377.79	3887	
378	5616.9	
378.2	6107.7	
378.41	3961.5	
378.61	3853.6	
378.82	6118	
379.02	5258.5	
379.23	4079.6	
379.43	5216.2	
379.64	6213.5	
379.84	5821	
380.05	3906.2	
380.25	3822.2	
380.46	5920.7	
380.66	5498.1	
380.87	5295.4	
381.07	5636	
381.28	6569.2	
381.48	5961.6	
381.69	3979.2	
381.89	3908.9	
382.1	4900.1	
382.3	6152.8	
382.51	5083.7	
382.71	5995.1	
382.91	6010.1	
383.12	6481.1	
383.32	4391.5	
383.53	4520.5	
383.73	5816.2	
383.94	5606.7	
384.14	4508.9	
384.35	3601	
384.55	5568.4	
384.76	5996.5	
384.96	4333.5	
385.17	4693.3	
385.37	5919.3	
385.58	5259.2	
385.78	4670.1	
385.98	3460.4	
386.19	5523.4	
386.39	5842.9	
386.6	4076.1	
386.8	4308.2	
387.01	6031.3	
387.21	5989.6	
387.42	4745.8	
387.62	5274.2	
387.83	5313.1	
388.03	5964.4	
388.23	4318.5	
388.44	5251.7	
388.64	4926.7	
388.85	5070.1	
389.05	4590.9	
389.26	5309.7	
389.46	6909.2	
389.67	6324.1	
389.87	4728.8	
390.07	4709.6	
390.28	5564.3	
390.48	5152.7	
390.69	3915.7	
390.89	4237.9	
391.1	5374.6	
391.3	6296.8	
391.5	5483.8	
391.71	6099.5	
391.91	6006	
392.12	7002	
392.32	5448.3	
392.53	4731.5	
392.73	5410.7	
392.93	5567.7	
393.14	4377.9	
393.34	5154.1	
393.55	6024.4	
393.75	5621	
393.95	4444.1	
394.16	4379.9	
394.36	5322	
394.57	6067.4	
394.77	3841.3	
394.98	4314.4	
395.18	5283.8	
395.38	5413.5	
395.59	5179.3	
395.79	4050.2	
396	5357.5	
396.2	5870.8	
396.4	4919.2	
396.61	4830.5	
396.81	6064	
397.02	5356.8	
397.22	5160.2	
397.42	5178.6	
397.63	6074.3	
397.83	5284.4	
398.04	3992.9	
398.24	4544.4	
398.44	5869.5	
398.65	4904.9	
398.85	3846.1	
399.05	3994.9	
399.26	5247.6	
399.46	7040.9	
399.67	4343.1	
399.87	4029.7	
400.07	5597.8	
400.28	6040.1	
400.48	4203.8	
400.69	5134.3	
400.89	6229.2	
401.09	6668.2	
401.3	4023.6	
401.5	5207.3	
401.7	6882.5	
401.91	7135.8	
402.11	4346.5	
402.32	4627	
402.52	6182.1	
402.72	6109.1	
402.93	4818.9	
403.13	3678.2	
403.33	7010.9	
403.54	5745.9	
403.74	4548.5	
403.94	5504.9	
404.15	5836.7	
404.35	6948.8	
404.56	4304.1	
404.76	6216.3	
404.96	6210.1	
405.17	6032	
405.37	5561.6	
405.57	4792.2	
405.78	6216.3	
405.98	5632.6	
406.18	4262.5	
406.39	5233.9	
406.59	6236.7	
406.79	5842.9	
407	4184	
407.2	4240	
407.4	6281.8	
407.61	6447	
407.81	4331.5	
408.01	6272.2	
408.22	5169.1	
408.42	7309.2	
408.62	5309	
408.83	4727.4	
409.03	5735	
409.23	5585.5	
409.44	4839.4	
409.64	5109.7	
409.84	6731	
410.05	6567.8	
410.25	4862.6	
410.45	4675.5	
410.66	5962.3	
410.86	8610.3	
411.06	5199.1	
411.27	4983.4	
411.47	8248.5	
411.67	6190.3	
411.88	5212.8	
412.08	5378.6	
412.28	6845	
412.49	7374.1	
412.69	4904.2	
412.89	5039.4	
413.09	7089.4	
413.3	6993.1	
413.5	5030.5	
413.7	4663.2	
413.91	6204	
414.11	7096.2	
414.31	4907.6	
414.52	5233.2	
414.72	6775.4	
414.92	6640.9	
415.12	4926.7	
415.33	5368.4	
415.53	7008.1	
415.73	7271	
415.94	5795.1	
416.14	5180	
416.34	5971.9	
416.55	5706.3	
416.75	6352.1	
416.95	5801.9	
417.15	7017	
417.36	7765.2	
417.56	6612.9	
417.76	5567.7	
417.97	7458	
418.17	7058	
418.37	5186.8	
418.57	5173.9	
418.78	6716.7	
418.98	6520	
419.18	6210.1	
419.38	6074.3	
419.59	6578.8	
419.79	6167.1	
419.99	5124.7	
420.2	5608	
420.4	7105.8	
420.6	7294.9	
420.8	5010	
421.01	4902.8	
421.21	6875.7	
421.41	7079.1	
421.61	5448.3	
421.82	5107	
422.02	6359.6	
422.22	7346.7	
422.42	5929.6	
422.63	5595.1	
422.83	6574.7	
423.03	7721.5	
423.23	5642.8	
423.44	4489.8	
423.64	6599.9	
423.84	6408.1	
424.04	5027.1	
424.25	4669.4	
424.45	7544	
424.65	7524.9	
424.85	4529.4	
425.06	5108.3	
425.26	7515.4	
425.46	6464.1	
425.66	5601.2	
425.87	5278.3	
426.07	7287.4	
426.27	7167.9	
426.47	5457.2	
426.67	4792.2	
426.88	7617.1	
427.08	7135.8	
427.28	5715.2	
427.48	4740.4	
427.69	5989.6	
427.89	6653.9	
428.09	5672.9	
428.29	4848.9	
428.5	7369.3	
428.7	6850.5	
428.9	4662.5	
429.1	5282.4	
429.3	6731.7	
429.51	7147.4	
429.71	5008.6	
429.91	5754.1	
430.11	7018.4	
430.31	7231.4	
430.52	5268.1	
430.72	5595.7	
430.92	7596.6	
431.12	7010.2	
431.32	4849.6	
431.53	5383.4	
431.73	5973.9	
431.93	7731.1	
432.13	4879.6	
432.33	4697.4	
432.54	6480.5	
432.74	6820.4	
432.94	4648.9	
433.14	5683.1	
433.34	6953.5	
433.55	6509.8	
433.75	5679	
433.95	7493.5	
434.15	6759.7	
434.35	6414.9	
434.56	4805.9	
434.76	4356	
434.96	6779.5	
435.16	7022.5	
435.36	4715.1	
435.56	5828.5	
435.77	6407.4	
435.97	6571.9	
436.17	6493.4	
436.37	5781.4	
436.57	6302.3	
436.78	6239.5	
436.98	5706.3	
437.18	6379.4	
437.38	6939.9	
437.58	6515.3	
437.78	6593.8	
437.99	5098.8	
438.19	7120.8	
438.39	7901.7	
438.59	5092.6	
438.79	4674.1	
438.99	7836.9	
439.2	6513.9	
439.4	4761.5	
439.6	4648.9	
439.8	6884.6	
440	8016.4	
440.2	5707.7	
440.4	5845.6	
440.61	7277.1	
440.81	7709.9	
441.01	4818.9	
441.21	5815.5	
441.41	7598	
441.61	7203.4	
441.81	6049	
442.02	7175.4	
442.22	8212.4	
442.42	7336.5	
442.62	5032.5	
442.82	4986.8	
443.02	7688.1	
443.22	6781.5	
443.43	5449	
443.63	4926	
443.83	6537.8	
444.03	6597.9	
444.23	6233.3	
444.43	5785.5	
444.63	6856.6	
444.83	8164.6	
445.04	5038.7	
445.24	6405.4	
445.44	7283.3	
445.64	7374.7	
445.84	5956.2	
446.04	5913.2	
446.24	6642.2	
446.44	7699.7	
446.65	5099.4	
446.85	5470.1	
447.05	6899.6	
447.25	7571.3	
447.45	5612.8	
447.65	4987.5	
447.85	7008.8	
448.05	6610.2	
448.25	6095.4	
448.46	5849	
448.66	6999.3	
448.86	6666.8	
449.06	4781.3	
449.26	5976	
449.46	7312.6	
449.66	6371.2	
449.86	5484.5	
450.06	5425.8	
450.26	6513.9	
450.47	7192.5	
450.67	5778	
450.87	6118.6	
451.07	7240.3	
451.27	6992.4	
451.47	5034.6	
451.67	5612.1	
451.87	6638.1	
452.07	7821.2	
452.27	5233.2	
452.47	5272.8	
452.67	6845.7	
452.88	7602.7	
453.08	4627.7	
453.28	6738.5	
453.48	8292.9	
453.68	7023.9	
453.88	5102.2	
454.08	5391.6	
454.28	7309.2	
454.48	6967.2	
454.68	5977.3	
454.88	6466.8	
455.08	7423.9	
455.28	7148.8	
455.48	5079	
455.68	5586.9	
455.89	7927.7	
456.09	7628	
456.29	5408.7	
456.49	5449.6	
456.69	7782.3	
456.89	6955.6	
457.09	5948	
457.29	6261.3	
457.49	7332.4	
457.69	7460.8	
457.89	5756.8	
458.09	5102.2	
458.29	7146	
458.49	7855.3	
458.69	6124.1	
458.89	5560.2	
459.09	7977.5	
459.29	8201.4	
459.49	5698.1	
459.69	6546	
459.9	7626.6	
460.1	7165.2	
460.3	5658.5	
460.5	5360.9	
460.7	7608.9	
460.9	7305.1	
461.1	5044.8	
461.3	6354.2	
461.5	8221.2	
461.7	7759.8	
461.9	5435.3	
462.1	5946.6	
462.3	7285.3	
462.5	7876.5	
462.7	5520	
462.9	5567.1	
463.1	8923.7	
463.3	8563.9	
463.5	5783.5	
463.7	6715.3	
463.9	7426.6	
464.1	7791.8	
464.3	5862	
464.5	6153.5	
464.7	8103.8	
464.9	7729.7	
465.1	7488.1	
465.3	6537.8	
465.5	8532.5	
465.7	8380.3	
465.9	6657.3	
466.1	6613.6	
466.3	8191.2	
466.5	8060.1	
466.7	7460.8	
466.9	6259.3	
467.1	7948.8	
467.3	9017.9	
467.5	7377.5	
467.7	6228.6	
467.9	9160.6	
468.1	10076	
468.3	6988.4	
468.5	7419.8	
468.7	7980.9	
468.9	7984.3	
469.1	6494.8	
469.3	7238.2	
469.5	9868.5	
469.7	7447.8	
469.9	7043.6	
470.1	6234	
470.3	7883.3	
470.5	7968	
470.7	7453.2	
470.9	6370.5	
471.1	7778.9	
471.3	8219.2	
471.5	6171.2	
471.69	8185.7	
471.89	7563.8	
472.09	7124.2	
472.29	6988.4	
472.49	7283.3	
472.69	7354.3	
472.89	8181	
473.09	6005.3	
473.29	6170.5	
473.49	7485.3	
473.69	7742.7	
473.89	7192.5	
474.09	6331.6	
474.29	9013.1	
474.49	8606.2	
474.69	7137.9	
474.89	6490	
475.09	7731.1	
475.29	7761.8	
475.49	5885.2	
475.69	6121.4	
475.88	9321.7	
476.08	8009.6	
476.28	5889.3	
476.48	6386.9	
476.68	8555	
476.88	8358.4	
477.08	6232	
477.28	6555.5	
477.48	7811	
477.68	8484.1	
477.88	6027.2	
478.08	6366.5	
478.28	8832.9	
478.48	7959.8	
478.67	6384.2	
478.87	5794.4	
479.07	8523.6	
479.27	8026.7	
479.47	6574.7	
479.67	6622.4	
479.87	8428.8	
480.07	9000.1	
480.27	5810.8	
480.47	7608.9	
480.67	8051.9	
480.87	8788.5	
481.06	6195.1	
481.26	6997.2	
481.46	8015.1	
481.66	7959.1	
481.86	6645	
482.06	7677.8	
482.26	7840.3	
482.46	8826.1	
482.66	6577.4	
482.86	6115.9	
483.05	8133.8	
483.25	7482.6	
483.45	9001.5	
483.65	6537.8	
483.85	7714	
484.05	7987.1	
484.25	6996.5	
484.45	7557	
484.65	8925	
484.84	8888.2	
485.04	6466.1	
485.24	6421.7	
485.44	9227.5	
485.64	7393.8	
485.84	5754.8	
486.04	7185.6	
486.24	7857.4	
486.44	8247.9	
486.63	5679.7	
486.83	6567.8	
487.03	7659.4	
487.23	7989.1	
487.43	5909.1	
487.63	8280.6	
487.83	8005.5	
488.02	9048.6	
488.22	6849.1	
488.42	7430.7	
488.62	8946.2	
488.82	7806.2	
489.02	6434.7	
489.22	6623.8	
489.41	8798.1	
489.61	8393.3	
489.81	6197.8	
490.01	6315.3	
490.21	8630.1	
490.41	9320.3	
490.61	6139.8	
490.8	6348.7	
491	8151.6	
491.2	7527.7	
491.4	7006.1	
491.6	6171.9	
491.8	8184.4	
491.99	8453.3	
492.19	6006.7	
492.39	6330.3	
492.59	8779.6	
492.79	8823.3	
492.99	7163.1	
493.18	6199.2	
493.38	8838.4	
493.58	9588.6	
493.78	7097.6	
493.98	6673	
494.18	8566.7	
494.37	7960.5	
494.57	7193.1	
494.77	7099.6	
494.97	8737.3	
495.17	9015.2	
495.37	6559	
495.56	7016.3	
495.76	9135.3	
495.96	8826.7	
496.16	7886	
496.36	6726.9	
496.55	8936.7	
496.75	8488.1	
496.95	7198.6	
497.15	7118.1	
497.35	9011.1	
497.54	8970.8	
497.74	6907.8	
497.94	8664.3	
498.14	9675.3	
498.34	9427.5	
498.53	6634.7	
498.73	7410.9	
498.93	8341.4	
499.13	9028.8	
499.33	7157	
499.52	7530.4	
499.72	8884.1	
499.92	9275.9	
500.12	6858	
500.32	7159	
500.51	9206.3	
500.71	8828.1	
500.91	8007.6	
501.11	7468.9	
501.31	9071.8	
501.5	9571.5	
501.7	8229.4	
501.9	7169.3	
502.1	8898.4	
502.29	9236.3	
502.49	7597.3	
502.69	8029.4	
502.89	9147.6	
503.09	9198.8	
503.28	6689.3	
503.48	6765.1	
503.68	8294.3	
503.88	8381	
504.07	7740.6	
504.27	7156.3	
504.47	8722.3	
504.67	8904.6	
504.86	7637.6	
505.06	7354.9	
505.26	8303.1	
505.46	10280	
505.65	7212.9	
505.85	7496.9	
506.05	8335.9	
506.25	8792.6	
506.44	6502.3	
506.64	7518.8	
506.84	8215.8	
507.04	9147.6	
507.23	6637.5	
507.43	7258	
507.63	10251	
507.83	8403.5	
508.02	7248.4	
508.22	6863.4	
508.42	10498	
508.62	8141.4	
508.81	7213.6	
509.01	7671.7	
509.21	8058.1	
509.4	8377.6	
509.6	7294.2	
509.8	6619.7	
510	8327	
510.19	9829.6	
510.39	6687.3	
510.59	6720.8	
510.79	8146.8	
510.98	9585.9	
511.18	6813.6	
511.38	6924.2	
511.57	8981	
511.77	8864.3	
511.97	7645.8	
512.17	6619	
512.36	8964.6	
512.56	8970.8	
512.76	6718	
512.95	6437.4	
513.15	9203.6	
513.35	7634.1	
513.55	7559.1	
513.74	6691.4	
513.94	9133.9	
514.14	8398	
514.33	7781.6	
514.53	7436.9	
514.73	8369.4	
514.92	8642.4	
515.12	6989	
515.32	6731	
515.51	8684.1	
515.71	9329.2	
515.91	8561.9	
516.11	6787.7	
516.3	10449	
516.5	8406.2	
516.7	7348.8	
516.89	8030.1	
517.09	8439.7	
517.29	8385.1	
517.48	7623.9	
517.68	7176.8	
517.88	8268.3	
518.07	8874.5	
518.27	7664.2	
518.47	6675.7	
518.66	9394.7	
518.86	8018.5	
519.06	6535.1	
519.25	6984.3	
519.45	8324.3	
519.65	9877.4	
519.84	7539.9	
520.04	8234.2	
520.24	10151	
520.43	9061.6	
520.63	7265.5	
520.83	7092.8	
521.02	8298.4	
521.22	8979.7	
521.42	7685.3	
521.61	8159.1	
521.81	8560.5	
522.01	8703.9	
522.2	7449.1	
522.4	7277.8	
522.6	9178.3	
522.79	8013.7	
522.99	7428	
523.18	6706.4	
523.38	8946.2	
523.58	8988.5	
523.77	8592.6	
523.97	6646.3	
524.17	10850	
524.36	9942.9	
524.56	7955.7	
524.76	7664.2	
524.95	8936	
525.15	8551.6	
525.34	7433.4	
525.54	7397.3	
525.74	9189.2	
525.93	8277.2	
526.13	8627.4	
526.33	7368.6	
526.52	9557.2	
526.72	9043.8	
526.91	8645.8	
527.11	7950.9	
527.31	9656.2	
527.5	10142	
527.7	7755	
527.89	6864.1	
528.09	8555.7	
528.29	8994.7	
528.48	8120.9	
528.68	7817.8	
528.87	9503.9	
529.07	9519.6	
529.27	7725.6	
529.46	7139.2	
529.66	8954.4	
529.85	9536	
530.05	7051.8	
530.25	7925.6	
530.44	10525	
530.64	9136	
530.83	7666.9	
531.03	7881.3	
531.23	9469.8	
531.42	9437.7	
531.62	8525.7	
531.81	7701.7	
532.01	9663	
532.21	10173	
532.4	7425.9	
532.6	7765.9	
532.79	10636	
532.99	9663.7	
533.18	7862.8	
533.38	8899.1	
533.58	9185.1	
533.77	10132	
533.97	7793.9	
534.16	8576.2	
534.36	10141	
534.55	9214.5	
534.75	8796.7	
534.95	7861.5	
535.14	10020	
535.34	9190.6	
535.53	7458	
535.73	9620.7	
535.92	10722	
536.12	9461.6	
536.31	7680.6	
536.51	8788.5	
536.71	9695.8	
536.9	9357.9	
537.1	7817.1	
537.29	7941.3	
537.49	10187	
537.68	9145.5	
537.88	8296.3	
538.07	7587	
538.27	9405	
538.46	10505	
538.66	7413.6	
538.86	7805.5	
539.05	9434.3	
539.25	9880.1	
539.44	8129.1	
539.64	7761.1	
539.83	9423.4	
540.03	10438	
540.22	7682.6	
540.42	7839.6	
540.61	9520.3	
540.81	9749.7	
541	8288.8	
541.2	8848.6	
541.39	9025.4	
541.59	9441.1	
541.78	8503.8	
541.98	7615.7	
542.18	8739.4	
542.37	8721.6	
542.57	7970.7	
542.76	8490.2	
542.96	8791.2	
543.15	9567.4	
543.35	7994.6	
543.54	7443.7	
543.74	9813.2	
543.93	9500.5	
544.13	7941.3	
544.32	9098.4	
544.52	9762.7	
544.71	8903.9	
544.91	7051.2	
545.1	8272.4	
545.3	8943.5	
545.49	9622	
545.69	7002	
545.88	7660.8	
546.08	10559	
546.27	10227	
546.47	8178.2	
546.66	7378.8	
546.86	9848.7	
547.05	10461	
547.24	7624.6	
547.44	7476.5	
547.63	8669.7	
547.83	9807	
548.02	7874.4	
548.22	8082.6	
548.41	8583.7	
548.61	9888.3	
548.8	7448.5	
549	7328.3	
549.19	9265.7	
549.39	9493	
549.58	7051.8	
549.78	7767.3	
549.97	9579	
550.17	9126.4	
550.36	8586.5	
550.55	9674.6	
550.75	9164.7	
550.94	10002	
551.14	7392.5	
551.33	7765.2	
551.53	8516.8	
551.72	9627.5	
551.92	7824.6	
552.11	7553.6	
552.31	9587.9	
552.5	9414.5	
552.69	9265	
552.89	7235.5	
553.08	9513.5	
553.28	9256.1	
553.47	7503.1	
553.67	8890.9	
553.86	10230	
554.06	8439	
554.25	6746.7	
554.44	7388.4	
554.64	10975	
554.83	10414	
555.03	7357	
555.22	7757	
555.42	9731.3	
555.61	9435.7	
555.8	7556.3	
556	7842.4	
556.19	8600.8	
556.39	9853.5	
556.58	7709.2	
556.78	7630.7	
556.97	9353.8	
557.16	8992.6	
557.36	8772.1	
557.55	7252.5	
557.75	8316.1	
557.94	10075	
558.13	7374.7	
558.33	7141.3	
558.52	9843.2	
558.72	8742.1	
558.91	7192.5	
559.1	7509.2	
559.3	8526.4	
559.49	8182.3	
559.69	6727.6	
559.88	7841	
560.07	9273.9	
560.27	9624.1	
560.46	7973.4	
560.66	8186.4	
560.85	9035.6	
561.04	8262.2	
561.24	7192.5	
561.43	7440.3	
561.63	8480	
561.82	8755.1	
562.01	8638.3	
562.21	7683.3	
562.4	9314.8	
562.59	10317	
562.79	7575.4	
562.98	7167.9	
563.18	9138	
563.37	10682	
563.56	8085.4	
563.76	7122.2	
563.95	8595.3	
564.14	8502.5	
564.34	7561.8	
564.53	7346.1	
564.73	9140.1	
564.92	9536	
565.11	7725.6	
565.31	7048.4	
565.5	9751.1	
565.69	8682.7	
565.89	7349.5	
566.08	7648.5	
566.27	9665.7	
566.47	10051	
566.66	8222.6	
566.85	6825.9	
567.05	9088.2	
567.24	8500.4	
567.44	7127.6	
567.63	8524.3	
567.82	9512.8	
568.02	9144.2	
568.21	7114	
568.4	7599.3	
568.6	8998.8	
568.79	8979	
568.98	6945.3	
569.18	7080.5	
569.37	8925.7	
569.56	10954	
569.76	7405.5	
569.95	8461.5	
570.14	9282.1	
570.34	9176.9	
570.53	6938.5	
570.72	6933.7	
570.91	9679.4	
571.11	8821.3	
571.3	7371.3	
571.49	8412.4	
571.69	8837	
571.88	8438.3	
572.07	7920.2	
572.27	8029.4	
572.46	8422.6	
572.65	9531.2	
572.85	7134.4	
573.04	7562.5	
573.23	9729.2	
573.43	8899.8	
573.62	6849.8	
573.81	7576.8	
574	8944.8	
574.2	8855.4	
574.39	7267.6	
574.58	7514.7	
574.78	9783.8	
574.97	9019.3	
575.16	7757.7	
575.36	7916.8	
575.55	9394	
575.74	9626.8	
575.93	6820.4	
576.13	7998.7	
576.32	8818.6	
576.51	9456.2	
576.71	7309.2	
576.9	8680.7	
577.09	9725.8	
577.28	9253.4	
577.48	7832.8	
577.67	6829.3	
577.86	8948.9	
578.05	9181.7	
578.25	7469.6	
578.44	7626	
578.63	9035	
578.83	10241	
579.02	6948.1	
579.21	8515.5	
579.4	9226.1	
579.6	8897.7	
579.79	7735.9	
579.98	10004	
580.17	9701.2	
580.37	9687.6	
580.56	7088.7	
580.75	8015.1	
580.94	10172	
581.14	9962.7	
581.33	8504.5	
581.52	7344	
581.71	9568.1	
581.91	10188	
582.1	7034.1	
582.29	7668.3	
582.48	9245.9	
582.68	9214.5	
582.87	8159.1	
583.06	7808.9	
583.25	9512.1	
583.45	8901.8	
583.64	8518.9	
583.83	9175.6	
584.02	9001.5	
584.21	9516.2	
584.41	8432.9	
584.6	7802.8	
584.79	9199.5	
584.98	10096	
585.18	7226.6	
585.37	7202	
585.56	8767.4	
585.75	9605.7	
585.94	7364.5	
586.14	8198.7	
586.33	10136	
586.52	9174.9	
586.71	7949.5	
586.91	7546.8	
587.1	8555.7	
587.29	9603.6	
587.48	7471	
587.67	7311.9	
587.87	9454.1	
588.06	9475.3	
588.25	8632.9	
588.44	7935.2	
588.63	8804.2	
588.83	9423.4	
589.02	7180.2	
589.21	7049.1	
589.4	8524.3	
589.59	8271.1	
589.78	6195.1	
589.98	6524.8	
590.17	7823.9	
590.36	8559.8	
590.55	5844.9	
590.74	6685.3	
590.94	9953.8	
591.13	8427.4	
591.32	6410.1	
591.51	6010.1	
591.7	8834.9	
591.89	8242.4	
592.09	6089.3	
592.28	6591	
592.47	7559.1	
592.66	9465	
592.85	6095.4	
593.05	6433.4	
593.24	8267	
593.43	9018.6	
593.62	6437.4	
593.81	6985.6	
594	8270.4	
594.19	8410.3	
594.39	6309.1	
594.58	6326.9	
594.77	8584.4	
594.96	9212.4	
595.15	6412.2	
595.34	7085.3	
595.54	8710.7	
595.73	7790.5	
595.92	5711.8	
596.11	6939.2	
596.3	9264.3	
596.49	7860.1	
596.68	6679.1	
596.88	7165.2	
597.07	8917.5	
597.26	7668.3	
597.45	6270.9	
597.64	7540.6	
597.83	7993.9	
598.02	8675.9	
598.22	6387.6	
598.41	7117.4	
598.6	8528.4	
598.79	7959.1	
598.98	6421.1	
599.17	7478.5	
599.36	8555.7	
599.55	9798.8	
599.74	8535.9	
599.94	8354.3	
600.13	9088.2	
600.32	7992.5	
600.51	6284.5	
600.7	6500.9	
600.89	9887.6	
601.08	9965.4	
601.27	6359.6	
601.47	7333.8	
601.66	9236.3	
601.85	9861	
602.04	6994.5	
602.23	7372.7	
602.42	8203.5	
602.61	8923	
602.8	7036.1	
602.99	6814.3	
603.18	8652.7	
603.37	8929.8	
603.57	7387	
603.76	8078.6	
603.95	9765.4	
604.14	9243.2	
604.33	6852.5	
604.52	7290.8	
604.71	8836.3	
604.9	8462.9	
605.09	7888.1	
605.28	7650.5	
605.47	9558.6	
605.66	9230.2	
605.86	7582.9	
606.05	6875.7	
606.24	9590	
606.43	8083.3	
606.62	7242.3	
606.81	8093.6	
607	9433.6	
607.19	8687.5	
607.38	6604.7	
607.57	6917.4	
607.76	8426	
607.95	7957.7	
608.14	7341.3	
608.33	8004.1	
608.52	8507.9	
608.72	9280.7	
608.91	6630.6	
609.1	6488	
609.29	8512	
609.48	8105.9	
609.67	7507.9	
609.86	6679.1	
610.05	8107.9	
610.24	8506.6	
610.43	6372.6	
610.62	6112.5	
610.81	9631.6	
611	9452.1	
611.19	6522.8	
611.38	7331	
611.57	8788.5	
611.76	10170	
611.95	6335.1	
612.14	6239.5	
612.33	8555.7	
612.52	8121.6	
612.71	6907.8	
612.9	6091.3	
613.09	7741.3	
613.28	10201	
613.47	6599.9	
613.66	7537.2	
613.85	8729.1	
614.04	8230.1	
614.24	6711.2	
614.43	6040.8	
614.62	8860.2	
614.81	8777.6	
615	7359.7	
615.19	7323.5	
615.38	8059.4	
615.57	8494.3	
615.76	7212.9	
615.95	8110.6	
616.14	8903.2	
616.33	8605.6	
616.52	7481.2	
616.71	7834.8	
616.9	9005.6	
617.09	8777.6	
617.28	6904.4	
617.47	8147.5	
617.66	8024.6	
617.85	8012.3	
618.04	7863.5	
618.22	7240.9	
618.41	8322.3	
618.6	9173.5	
618.79	7137.2	
618.98	6821.1	
619.17	9585.2	
619.36	7879.2	
619.55	7096.9	
619.74	7049.1	
619.93	8806.9	
620.12	8212.4	
620.31	7601.4	
620.5	7773.4	
620.69	9475.3	
620.88	9838.4	
621.07	8530.5	
621.26	7502.4	
621.45	8933.9	
621.64	9069.8	
621.83	7610.9	
622.02	6802.7	
622.21	9021.3	
622.4	8776.9	
622.59	8096.3	
622.78	7918.1	
622.97	8351.6	
623.16	9368.8	
623.35	7475.1	
623.54	6599.9	
623.72	8657.4	
623.91	8731.2	
624.1	7797.3	
624.29	6388.3	
624.48	9793.4	
624.67	9002.2	
624.86	7658	
625.05	6692.8	
625.24	9867.1	
625.43	8286.8	
625.62	9310.1	
625.81	6816.3	
626	9265	
626.19	8528.4	
626.38	7576.1	
626.56	6975.4	
626.75	8277.9	
626.94	9101.9	
627.13	7524.9	
627.32	6262.7	
627.51	8919.6	
627.7	10238	
627.89	6425.2	
628.08	7568.6	
628.27	8075.1	
628.46	8286.1	
628.65	6668.2	
628.83	6224.5	
629.02	8879.3	
629.21	8150.9	
629.4	7075.7	
629.59	7296.2	
629.78	8105.2	
629.97	9149.6	
630.16	7354.9	
630.35	6803.4	
630.54	9564.7	
630.72	9203.6	
630.91	6822.5	
631.1	7420.5	
631.29	8703.9	
631.48	8946.9	
631.67	7442.3	
631.86	6944.7	
632.05	8298.4	
632.24	8419.2	
632.42	6579.4	
632.61	7248.4	
632.8	8519.5	
632.99	8142.7	
633.18	7244.3	
633.37	7683.3	
633.56	8730.5	
633.75	8559.8	
633.93	7232.7	
634.12	6881.2	
634.31	9607	
634.5	9181	
634.69	6921.5	
634.88	7472.4	
635.07	8525.7	
635.25	9193.3	
635.44	7905.2	
635.63	8140	
635.82	8435.6	
636.01	7894.2	
636.2	7792.5	
636.39	7370.6	
636.57	9493.7	
636.76	9246.6	
636.95	6802.7	
637.14	8219.9	
637.33	8906.6	
637.52	9957.9	
637.7	6567.2	
637.89	7555	
638.08	8430.1	
638.27	9935.4	
638.46	7671.7	
638.65	8111.3	
638.83	9958.6	
639.02	8249.9	
639.21	7503.1	
639.4	8042.4	
639.59	8778.3	
639.78	8458.1	
639.96	6771.9	
640.15	6907.1	
640.34	8667	
640.53	8830.8	
640.72	6573.3	
640.91	6891.4	
641.09	8042.4	
641.28	9411.8	
641.47	6834.8	
641.66	7732.4	
641.85	8776.2	
642.03	9024.7	
642.22	7541.3	
642.41	6952.9	
642.6	8196	
642.79	7603.4	
642.97	6698.9	
643.16	7447.8	
643.35	8135.2	
643.54	7882.6	
643.73	6570.6	
643.91	7345.4	
644.1	7610.9	
644.29	8391.9	
644.48	6625.2	
644.67	6614.3	
644.85	7802.8	
645.04	8168	
645.23	6103.6	
645.42	6391	
645.6	7600.7	
645.79	8798.8	
645.98	6387.6	
646.17	5370.5	
646.36	7291.5	
646.54	7965.9	
646.73	7103	
646.92	5814.9	
647.11	7445	
647.29	8548.9	
647.48	5975.3	
647.67	5653.1	
647.86	8871.8	
648.05	8894.3	
648.23	6319.3	
648.42	7733.1	
648.61	8254	
648.8	7952.9	
648.98	6022.4	
649.17	6341.9	
649.36	7597.3	
649.55	7085.3	
649.73	6128.2	
649.92	6832.7	
650.11	7478.5	
650.3	7810.3	
650.48	6266.8	
650.67	6043.6	
650.86	8131.8	
651.05	7037.5	
651.23	6267.5	
651.42	6266.8	
651.61	7461.4	
651.79	7733.8	
651.98	6353.5	
652.17	6076.3	
652.36	8076.5	
652.54	7118.7	
652.73	6122.7	
652.92	5885.9	
653.11	8096.3	
653.29	8147.5	
653.48	5419.6	
653.67	6369.9	
653.85	7814.4	
654.04	8814.5	
654.23	6567.8	
654.42	6064	
654.6	7324.9	
654.79	8030.8	
654.98	5567.7	
655.16	6282.5	
655.35	6963.8	
655.54	6916	
655.73	5759.6	
655.91	5636	
656.1	8181.6	
656.29	6900.3	
656.47	5254.4	
656.66	7023.2	
656.85	7258	
657.03	7313.3	
657.22	5799.8	
657.41	6004.6	
657.59	7433.4	
657.78	7257.3	
657.97	5520	
658.16	6255.9	
658.34	8108.6	
658.53	8514.1	
658.72	7205.4	
658.9	7735.9	
659.09	7528.3	
659.28	7630.7	
659.46	6061.3	
659.65	6015.6	
659.84	7346.1	
660.02	7881.3	
660.21	5938.4	
660.4	5994.4	
660.58	8345.5	
660.77	7651.9	
660.96	6545.3	
661.14	5547.9	
661.33	8927.1	
661.52	8754.4	
661.7	5492	
661.89	9336.7	
662.08	7355.6	
662.26	6911.2	
662.45	5792.3	
662.64	5930.2	
662.82	7971.4	
663.01	7189.1	
663.2	5896.8	
663.38	6783.6	
663.57	7919.5	
663.75	7856	
663.94	6244.9	
664.13	7638.2	
664.31	7326.3	
664.5	8069	
664.69	6472.3	
664.87	7111.2	
665.06	7014.3	
665.25	7780.2	
665.43	7380.9	
665.62	7451.9	
665.8	8114.7	
665.99	7481.9	
666.18	6285.2	
666.36	6402	
666.55	8185.7	
666.74	8071	
666.92	5969.1	
667.11	7586.4	
667.29	7463.5	
667.48	8024.6	
667.67	7180.2	
667.85	6356.9	
668.04	7520.1	
668.22	7548.1	
668.41	6371.9	
668.6	6522.1	
668.78	7294.9	
668.97	7546.1	
669.15	6779.5	
669.34	5670.8	
669.53	7257.3	
669.71	7639.6	
669.9	5912.5	
670.08	6565.1	
670.27	7369.3	
670.46	7880.6	
670.64	6685.3	
670.83	6966.5	
671.01	7191.8	
671.2	7770	
671.38	5838.8	
671.57	5827.8	
671.76	8420.6	
671.94	9010.4	
672.13	5708.4	
672.31	6819.1	
672.5	8008.9	
672.69	7281.2	
672.87	5907	
673.06	6263.4	
673.24	7759.1	
673.43	7364.5	
673.61	6724.8	
673.8	6201.2	
673.98	7983.7	
674.17	8148.9	
674.36	6823.8	
674.54	6622.4	
674.73	7752.9	
674.91	7972.1	
675.1	6348	
675.28	5962.3	
675.47	7541.3	
675.65	8148.2	
675.84	6232	
676.03	6568.5	
676.21	7319.4	
676.4	6805.4	
676.58	7046.4	
676.77	6763.1	
676.95	8710.7	
677.14	7303.7	
677.32	5880.4	
677.51	5657.2	
677.69	8051.9	
677.88	6942.6	
678.06	5668.8	
678.25	5885.2	
678.44	7507.9	
678.62	7201.3	
678.81	5608.7	
678.99	6586.3	
679.18	8406.2	
679.36	7957	
679.55	6167.1	
679.73	6789	
679.92	7821.2	
680.1	7256	
680.29	7346.7	
680.47	6137.1	
680.66	7185	
680.84	8063.5	
681.03	5390.3	
681.21	6530.3	
681.4	7261.4	
681.58	7088	
681.77	5842.2	
681.95	5776.6	
682.14	8188.5	
682.32	8419.9	
682.51	6741.9	
682.69	5590.3	
682.88	7105.8	
683.06	7846.5	
683.25	6449.1	
683.43	6909.8	
683.62	7396.6	
683.8	7775.5	
683.99	6911.9	
684.17	6188.3	
684.36	8601.5	
684.54	7200	
684.73	5288.5	
684.91	5543.9	
685.1	7482.6	
685.28	6900.3	
685.46	6032.6	
685.65	6012.2	
685.83	7644.4	
686.02	7044.3	
686.2	5474.9	
686.39	5603.9	
686.57	6879.1	
686.76	8297.7	
686.94	5477	
687.13	5685.8	
687.31	7572.7	
687.5	7044.3	
687.68	5106.3	
687.86	6505.7	
688.05	8630.1	
688.23	6503	
688.42	6516	
688.6	5575.9	
688.79	6905.1	
688.97	6931.7	
689.16	6024.4	
689.34	4922	
689.52	7558.4	
689.71	7859.4	
689.89	6216.3	
690.08	5453.7	
690.26	7148.8	
690.45	6987	
690.63	6311.8	
690.81	5584.8	
691	6730.3	
691.18	6724.8	
691.37	5661.3	
691.55	7942.7	
691.74	6697.5	
691.92	8669.7	
692.1	5747.3	
692.29	5109	
692.47	6938.5	
692.66	6195.1	
692.84	5399.8	
693.02	5993	
693.21	6350.8	
693.39	6890	
693.58	6116.6	
693.76	5579.3	
693.94	8198.7	
694.13	7889.5	
694.31	5455.1	
694.5	6627.9	
694.68	6748.1	
694.86	7095.5	
695.05	5951.4	
695.23	6292	
695.42	7536.5	
695.6	9947.7	
695.78	6590.4	
695.97	5679	
696.15	7544.7	
696.34	6803.4	
696.52	5315.2	
696.7	6222.4	
696.89	7287.4	
697.07	6571.2	
697.25	6024.4	
697.44	7640.3	
697.62	7074.4	
697.81	7466.2	
697.99	5709.1	
698.17	6163.7	
698.36	6452.5	
698.54	7163.8	
698.72	6051.1	
698.91	4984.1	
699.09	6740.5	
699.28	6631.3	
699.46	5635.3	
699.64	5644.9	
699.83	6516.6	
700.01	7871.7	
700.19	6445.6	
700.38	4857.1	
700.56	7861.5	
700.74	6703.7	
700.93	5272.2	
701.11	6111.8	
701.29	7258.7	
701.48	8327	
701.66	5460.6	
701.84	5558.9	
702.03	6779.5	
702.21	7538.6	
702.39	5082.4	
702.58	5713.8	
702.76	7209.5	
702.94	7363.8	
703.13	5087.2	
703.31	7633.5	
703.49	6604	
703.68	7555	
703.86	5257.1	
704.04	6282.5	
704.23	7129	
704.41	7529	
704.59	5439.4	
704.78	6681.2	
704.96	8219.2	
705.14	7540.6	
705.33	5277.6	
705.51	6133.7	
705.69	6924.9	
705.87	7864.2	
706.06	6442.9	
706.24	5265.3	
706.42	7276.4	
706.61	7512.6	
706.79	6428.6	
706.97	5309	
707.16	6757.6	
707.34	7311.9	
707.52	6377.4	
707.7	5529.5	
707.89	7033.4	
708.07	6567.2	
708.25	6407.4	
708.44	6533.7	
708.62	6807.4	
708.8	8000.7	
708.98	6743.3	
709.17	5601.9	
709.35	7265.5	
709.53	7330.4	
709.72	5319.3	
709.9	5520.6	
710.08	7557.7	
710.26	7574.1	
710.45	6996.5	
710.63	5693.4	
710.81	7189.7	
710.99	7225.9	
711.18	6183.5	
711.36	5759.6	
711.54	6903	
711.72	7628.7	
711.91	5743.9	
712.09	5171.8	
712.27	7124.9	
712.45	7701.7	
712.64	6022.4	
712.82	4912.4	
713	6442.9	
713.18	6498.9	
713.37	5018.2	
713.55	6235.4	
713.73	7408.2	
713.91	5948.7	
714.1	5298.8	
714.28	4773.8	
714.46	6965.8	
714.64	6156.9	
714.83	4164.2	
715.01	4917.2	
715.19	6199.2	
715.37	5602.6	
715.55	4681	
715.74	4981.3	
715.92	7126.2	
716.1	5137	
716.28	6126.2	
716.47	5136.3	
716.65	5735	
716.83	6058.6	
717.01	4973.2	
717.19	5119.2	
717.38	8054.7	
717.56	5645.6	
717.74	5316.5	
717.92	4431.1	
718.1	6919.4	
718.29	6098.9	
718.47	4111.6	
718.65	4805.2	
718.83	6858.6	
719.01	6752.2	
719.2	4032.5	
719.38	5124	
719.56	6500.3	
719.74	8041	
719.92	4711.7	
720.11	5797.1	
720.29	6488.6	
720.47	5697.4	
720.65	4216.8	
720.83	5085.1	
721.02	5958.2	
721.2	5759.6	
721.38	5134.3	
721.56	4419.5	
721.74	5221	
721.92	5424.4	
722.11	5655.8	
722.29	5343.2	
722.47	6677.1	
722.65	5824.4	
722.83	4438.6	
723.01	5356.8	
723.2	5920.7	
723.38	6160.3	
723.56	3849.5	
723.74	5039.4	
723.92	5429.8	
724.1	6556.2	
724.29	4302.1	
724.47	5571.8	
724.65	5528.2	
724.83	5462.6	
725.01	4203.1	
725.19	5181.4	
725.37	5563.6	
725.56	5593.7	
725.74	4044.1	
725.92	4354	
726.1	5451.7	
726.28	5694.7	
726.46	4814.1	
726.64	4502.1	
726.83	5760.3	
727.01	6018.3	
727.19	4048.8	
727.37	4894	
727.55	5821.7	
727.73	6434	
727.91	4070.7	
728.09	3956	
728.28	6504.3	
728.46	7085.3	
728.64	5081.7	
728.82	5074.2	
729	7646.4	
729.18	6903	
729.36	4267.3	
729.54	6723.5	
729.72	7933.1	
729.91	6184.2	
730.09	6277.7	
730.27	4991.6	
730.45	6087.9	
730.63	6800.6	
730.81	5713.2	
730.99	4677.6	
731.17	7256	
731.35	5913.9	
731.53	5310.4	
731.71	4824.3	
731.9	6977.4	
732.08	7232.7	
732.26	5124	
732.44	4725.3	
732.62	7223.2	
732.8	6675.7	
732.98	5534.3	
733.16	4515.8	
733.34	6676.4	
733.52	5517.9	
733.7	5156.1	
733.88	5425.8	
734.07	6546	
734.25	6313.9	
734.43	4595.6	
734.61	6155.5	
734.79	7862.8	
734.97	6235.4	
735.15	4803.2	
735.33	5042.1	
735.51	6651.1	
735.69	6246.3	
735.87	6255.9	
736.05	5328.1	
736.23	6479.8	
736.41	6238.8	
736.59	5208	
736.77	5248.3	
736.95	6979.5	
737.13	6352.1	
737.32	4831.2	
737.5	5084.4	
737.68	7554.3	
737.86	6289.3	
738.04	4640	
738.22	6604.7	
738.4	6055.2	
738.58	6385.6	
738.76	5272.8	
738.94	4261.1	
739.12	6206	
739.3	6111.1	
739.48	6063.4	
739.66	5756.2	
739.84	6505.7	
740.02	6593.1	
740.2	4388.1	
740.38	4753.3	
740.56	6961	
740.74	5788.2	
740.92	5490.6	
741.1	5403.2	
741.28	6346.7	
741.46	6161.7	
741.64	5003.9	
741.82	5584.8	
742	6386.9	
742.18	6374	
742.36	5177.9	
742.54	4751.3	
742.72	6939.2	
742.9	5698.1	
743.08	5555.5	
743.26	4328	
743.44	7173.4	
743.62	6997.2	
743.8	5692.7	
743.98	4783.4	
744.16	6705.7	
744.34	6361	
744.52	5685.8	
744.7	5560.2	
744.88	6808.8	
745.06	6403.3	
745.24	5714.5	
745.42	5870.8	
745.6	6920.8	
745.78	6778.1	
745.96	4473.4	
746.14	4777.2	
746.32	7716.1	
746.5	7007.5	
746.68	5443.5	
746.86	4877.6	
747.03	7417.1	
747.21	5689.3	
747.39	5367	
747.57	4906.3	
747.75	6569.9	
747.93	6941.9	
748.11	4845.5	
748.29	4870.1	
748.47	8112	
748.65	6254.5	
748.83	5578.7	
749.01	5332.9	
749.19	6749.4	
749.37	5908.4	
749.55	5169.8	
749.73	5265.3	
749.91	6436.1	
750.09	6115.2	
750.26	5328.1	
750.44	4731.5	
750.62	6445.6	
750.8	6403.3	
750.98	4625	
751.16	4841.4	
751.34	6548	
751.52	5863.3	
751.7	5721.3	
751.88	4606.6	
752.06	7061.4	
752.24	6761	
752.42	4538.3	
752.59	4846.2	
752.77	6376.7	
752.95	7626	
753.13	5603.2	
753.31	5036	
753.49	5997.1	
753.67	6520	
753.85	5304.2	
754.03	4861.9	
754.21	6830	
754.38	7153.6	
754.56	5061.9	
754.74	4080.9	
754.92	5970.5	
755.1	6750.1	
755.28	4025.6	
755.46	3956	
755.64	7378.1	
755.82	7545.4	
755.99	4231.8	
756.17	4337.6	
756.35	4925.4	
756.53	6621.1	
756.71	3183.2	
756.89	4190.1	
757.07	6137.8	
757.25	5210	
757.42	4730.1	
757.6	5681.1	
757.78	6254.5	
757.96	5150.6	
758.14	4434.5	
758.32	3945.8	
758.5	4666	
758.67	5517.2	
758.85	4183.3	
759.03	4349.2	
759.21	5756.8	
759.39	5124	
759.57	3749.1	
759.75	4953.4	
759.92	6402.6	
760.1	5562.3	
760.28	5429.8	
760.46	5587.5	
760.64	5438.7	
760.82	5184.8	
760.99	5223.7	
761.17	4378.6	
761.35	6278.4	
761.53	5309.7	
761.71	4606.6	
761.89	5275.6	
762.06	6211.5	
762.24	5702.2	
762.42	4642.7	
762.6	4401.1	
762.78	5754.8	
762.96	6431.3	
763.13	5122.7	
763.31	4713.7	
763.49	6677.7	
763.67	5732.9	
763.85	5612.1	
764.02	6213.5	
764.2	6926.9	
764.38	6008.1	
764.56	4677.6	
764.74	5530.2	
764.91	7075	
765.09	5872.2	
765.27	4388.1	
765.45	4164.2	
765.63	7003.4	
765.8	6954.9	
765.98	3852.9	
766.16	4325.3	
766.34	5472.2	
766.52	5276.3	
766.69	5206.6	
766.87	4065.2	
767.05	5905	
767.23	6597.9	
767.41	4354	
767.58	4703.5	
767.76	6516	
767.94	6514.6	
768.12	4447.5	
768.29	5233.2	
768.47	5915.9	
768.65	6710.5	
768.83	4136.9	
769	5258.5	
769.18	5469.4	
769.36	6305	
769.54	5049.6	
769.72	4138.9	
769.89	6594.5	
770.07	6690.7	
770.25	4500.1	
770.43	5852.4	
770.6	7382.2	
770.78	7739.3	
770.96	4699.4	
771.14	5291.3	
771.31	6432	
771.49	5824.4	
771.67	3803.1	
771.85	4069.3	
772.02	5040.1	
772.2	5777.3	
772.38	4789.5	
772.55	4339.6	
772.73	6065.4	
772.91	5824.4	
773.09	4715.1	
773.26	4732.2	
773.44	6023.1	
773.62	5704.3	
773.8	4229.1	
773.97	3935.5	
774.15	6090	
774.33	5692	
774.5	4033.8	
774.68	4513.7	
774.86	6266.1	
775.04	5711.1	
775.21	4203.8	
775.39	4216.1	
775.57	5997.8	
775.74	6436.8	
775.92	4033.1	
776.1	3910.3	
776.27	5990.3	
776.45	7172.7	
776.63	4147.8	
776.81	3684.3	
776.98	5567.1	
777.16	6832.7	
777.34	4317.8	
777.51	4334.9	
777.69	5575.3	
777.87	5409.4	
778.04	4390.2	
778.22	5046.2	
778.4	5382.7	
778.57	6114.6	
778.75	3596.2	
778.93	3900.7	
779.1	5214.8	
779.28	5010	
779.46	3620.8	
779.64	4136.9	
779.81	6214.2	
779.99	7166.5	
780.17	4911	
780.34	5088.5	
780.52	5607.3	
780.69	5815.5	
780.87	4431.1	
781.05	4012.7	
781.22	5664.7	
781.4	5829.9	
781.58	4137.6	
781.75	3302	
781.93	5733.6	
782.11	5130.8	
782.28	5036	
782.46	4144.4	
782.64	4992.3	
782.81	5976.7	
782.99	4235.2	
783.17	4158.7	
783.34	5796.4	
783.52	4945.2	
783.69	4364.9	
783.87	5285.1	
784.05	5150.6	
784.22	5112.4	
784.4	5184.1	
784.58	4459.8	
784.75	6067.4	
784.93	5094.7	
785.1	4166.9	
785.28	4823	
785.46	5725.4	
785.63	5141.1	
785.81	4081.6	
785.99	3951.2	
786.16	5233.9	
786.34	5658.5	
786.51	4031.8	
786.69	4379.9	
786.87	4885.8	
787.04	5406	
787.22	3799	
787.39	4790.9	
787.57	5014.1	
787.75	6174.6	
787.92	5005.9	
788.1	4980	
788.27	5115.1	
788.45	4941.1	
788.63	4666.6	
788.8	3331.4	
788.98	5666	
789.15	4809.3	
789.33	3508.2	
789.5	4123.9	
789.68	6075.6	
789.86	6161	
790.03	4582	
790.21	3955.3	
790.38	6050.4	
790.56	5236	
790.73	3882.9	
790.91	3941.7	
791.09	5136.3	
791.26	5884.5	
791.44	4081.6	
791.61	3497.2	
791.79	5088.5	
791.96	5155.4	
792.14	3674.1	
792.32	3197.6	
792.49	5134.3	
792.67	5251	
792.84	3702	
793.02	3573	
793.19	5591.6	
793.37	6329.6	
793.54	3271.3	
793.72	3596.9	
793.89	6505	
794.07	5085.8	
794.25	4231.8	
794.42	3297.9	
794.6	6253.8	
794.77	5812.8	
794.95	4476.2	
795.12	3932.8	
795.3	5074.2	
795.47	5721.3	
795.65	4298.7	
795.82	4168.3	
796	4857.8	
796.17	6867.5	
796.35	4041.3	
796.52	4779.3	
796.7	5651.7	
796.87	5769.8	
797.05	4959.5	
797.22	4899.4	
797.4	5714.5	
797.57	6778.1	
797.75	4120.5	
797.92	3870.7	
798.1	6006	
798.27	5119.2	
798.45	3324.5	
798.62	3627	
798.8	5383.4	
798.97	5914.5	
799.15	4425.7	
799.32	4190.1	
799.5	4644.1	
799.67	5497.4	
799.85	4476.2	
800.02	3260.4	
800.2	5015.5	
800.37	5371.8	
800.55	4672.1	
800.72	3923.9	
800.9	5885.9	
801.07	6339.8	
801.25	5306.3	
801.42	4321.2	
801.6	5880.4	
801.77	5610.8	
801.95	4029.7	
802.12	3830.4	
802.29	5590.3	
802.47	5549.3	
802.64	4240.7	
802.82	3208.5	
802.99	5048.2	
803.17	6060.6	
803.34	4173.1	
803.52	3722.5	
803.69	6761.7	
803.87	4863.9	
804.04	4175.1	
804.21	4209.3	
804.39	6181.5	
804.56	5294.7	
804.74	3469.3	
804.91	4326.7	
805.09	5115.8	
805.26	5158.8	
805.44	3555.3	
805.61	3935.5	
805.78	5769.1	
805.96	5823.7	
806.13	4281.6	
806.31	4601.1	
806.48	4605.9	
806.66	5193.6	
806.83	4270.7	
807	4143.7	
807.18	4976.6	
807.35	5494	
807.53	4211.3	
807.7	3309.5	
807.87	6302.3	
808.05	5102.9	
808.22	4581.3	
808.4	3301.3	
808.57	5080.3	
808.74	4700.8	
808.92	3841.3	
809.09	4855.1	
809.27	4980	
809.44	5630.5	
809.61	3310.2	
809.79	3684.3	
809.96	6217	
810.14	5849	
810.31	3295.2	
810.48	4044.1	
810.66	5227.1	
810.83	6001.9	
811.01	3812	
811.18	4296.6	
811.35	5881.8	
811.53	4561.5	
811.7	4620.2	
811.87	4285.7	
812.05	5069.4	
812.22	5016.2	
812.39	3659.7	
812.57	3566.9	
812.74	5087.2	
812.92	6879.8	
813.09	4057	
813.26	4427.7	
813.44	6609.5	
813.61	5051.7	
813.78	3375.1	
813.96	4515.8	
814.13	5119.2	
814.3	4757.4	
814.48	4836.6	
814.65	4033.8	
814.82	6339.8	
815	4915.1	
815.17	4135.5	
815.34	5018.9	
815.52	5030.5	
815.69	5023.7	
815.87	4054.3	
816.04	3498.6	
816.21	5120.6	
816.38	4445.5	
816.56	3994.2	
816.73	3661.8	
816.9	6503	
817.08	5899.5	
817.25	3741	
817.42	4733.5	
817.6	4711	
817.77	5160.9	
817.94	4283	
818.12	3657.7	
818.29	4814.1	
818.46	7692.2	
818.64	3888.4	
818.81	3644.7	
818.98	4733.5	
819.16	7045	
819.33	4472.1	
819.5	4102.1	
819.67	5524.1	
819.85	6144.6	
820.02	4046.8	
820.19	4223.6	
820.37	5313.8	
820.54	4866.7	
820.71	4160.1	
820.88	5191.6	
821.06	5388.2	
821.23	4876.9	
821.4	4203.1	
821.58	4171.7	
821.75	5862	
821.92	5274.2	
822.09	3353.9	
822.27	3476.8	
822.44	5164.3	
822.61	5000.5	
822.79	3357.3	
822.96	6618.4	
823.13	5696.1	
823.3	4816.8	
823.48	3895.9	
823.65	3530.7	
823.82	5838.1	
823.99	4597.7	
824.17	5023	
824.34	3627.6	
824.51	6834.1	
824.68	5168.4	
824.86	3748.5	
825.03	4248.9	
825.2	5119.9	
825.37	6268.1	
825.55	3642	
825.72	4107.5	
825.89	6864.8	
826.06	6365.8	
826.24	4019.5	
826.41	4050.9	
826.58	6292	
826.75	5449	
826.92	3163.4	
827.1	3518.4	
827.27	8516.1	
827.44	6821.1	
827.61	3816.7	
827.79	4653.7	
827.96	4861.9	
828.13	5195.7	
828.3	4008.6	
828.47	3422.8	
828.65	5328.1	
828.82	5298.8	
828.99	5197.1	
829.16	4573.1	
829.34	5732.3	
829.51	5541.1	
829.68	4157.4	
829.85	4315.1	
830.02	6029.2	
830.2	5743.9	
830.37	3192.1	
830.54	5019.6	
830.71	6628.6	
830.88	5018.2	
831.05	3250.1	
831.23	3764.8	
831.4	6271.6	
831.57	7096.2	
831.74	3846.8	
831.91	3405.8	
832.09	5344.5	
832.26	5814.9	
832.43	3936.2	
832.6	4472.8	
832.77	5390.3	
832.94	6122.1	
833.12	3153.2	
833.29	3947.8	
833.46	5013.4	
833.63	7251.2	
833.8	4379.9	
833.97	4024.9	
834.15	5740.5	
834.32	5514.5	
834.49	4164.9	
834.66	4222.2	
834.83	5988.3	
835	4834.6	
835.17	3822.9	
835.35	3863.8	
835.52	5624.4	
835.69	5533.6	
835.86	3982.6	
836.03	3302	
836.2	5667.4	
836.37	5371.8	
836.55	3985.3	
836.72	3752.6	
836.89	5307	
837.06	5767.1	
837.23	4083	
837.4	4453.6	
837.57	6602	
837.75	7260.7	
837.92	3613.3	
838.09	3818.8	
838.26	5294.7	
838.43	6058.6	
838.6	4178.5	
838.77	3685.7	
838.94	6929.6	
839.11	6617	
839.29	3965.6	
839.46	3118.4	
839.63	5710.4	
839.8	5455.1	
839.97	3784.6	
840.14	3837.9	
840.31	5487.2	
840.48	5741.8	
840.65	3151.8	
840.82	3750.5	
841	5724.1	
841.17	5679.7	
841.34	3539.6	
841.51	3582.6	
841.68	5608	
841.85	5398.4	
842.02	3704.1	
842.19	3024.8	
842.36	5468.8	
842.53	5475.6	
842.7	3543	
842.87	4423.6	
843.05	7258.7	
843.22	5414.8	
843.39	3402.4	
843.56	3626.3	
843.73	5136.3	
843.9	5814.9	
844.07	5848.3	
844.24	4792.2	
844.41	8537.3	
844.58	4931.5	
844.75	3442.6	
844.92	3731.4	
845.09	5710.4	
845.26	5645.6	
845.43	3500	
845.6	3700.7	
845.77	5748	
845.94	5489.2	
846.12	3855	
846.29	4158.7	
846.46	5902.9	
846.63	5662	
846.8	3588.7	
846.97	4211.3	
847.14	6195.1	
847.31	5606.7	
847.48	4008.6	
847.65	4435.9	
847.82	5983.5	
847.99	6022.4	
848.16	4773.1	
848.33	4367	
848.5	5242.1	
848.67	6197.8	
848.84	3511.6	
849.01	3675.4	
849.18	5149.3	
849.35	4786.8	
849.52	4497.3	
849.69	3435.1	
849.86	5942.5	
850.03	6168.5	
850.2	3542.3	
850.37	4379.9	
850.54	6154.8	
850.71	5373.2	
850.88	4250.9	
851.05	3479.5	
851.22	5592.3	
851.39	6286.6	
851.56	3360.7	
851.73	4087.1	
851.9	4967	
852.07	6038.1	
852.24	3891.8	
852.41	3524.6	
852.58	5553.4	
852.75	5100.8	
852.92	3973.7	
853.09	3476.8	
853.26	5291.3	
853.43	6190.3	
853.6	3592.1	
853.77	3022.8	
853.94	6314.6	
854.11	5709.1	
854.28	5214.8	
854.44	3830.4	
854.61	6731.7	
854.78	5825.8	
854.95	3480.9	
855.12	4433.9	
855.29	4592.2	
855.46	6364.4	
855.63	3536.2	
855.8	4928.1	
855.97	5216.9	
856.14	6111.8	
856.31	5029.1	
856.48	3888.4	
856.65	5248.9	
856.82	4975.2	
856.99	3371.6	
857.16	3794.2	
857.33	6965.8	
857.49	5338.4	
857.66	3777.8	
857.83	4113.7	
858	5331.5	
858.17	5517.9	
858.34	3362.1	
858.51	3468.6	
858.68	6421.1	
858.85	6503	
859.02	4123.2	
859.19	4370.4	
859.36	4979.3	
859.52	5016.8	
859.69	3559.4	
859.86	4204.5	
860.03	5086.5	
860.2	6289.3	
860.37	3200.3	
860.54	3600.3	
860.71	5896.8	
860.88	6371.2	
861.05	4059.1	
861.21	4487.8	
861.38	6419.7	
861.55	4904.9	
861.72	3164.8	
861.89	3919.8	
862.06	6035.4	
862.23	6630	
862.4	3458.3	
862.56	3659.7	
862.73	5843.5	
862.9	5472.2	
863.07	4164.9	
863.24	3177.1	
863.41	4927.4	
863.58	5010	
863.75	3594.2	
863.91	4117.1	
864.08	6354.2	
864.25	5883.1	
864.42	4459.8	
864.59	4983.4	
864.76	6684.6	
864.93	5062.6	
865.09	3372.3	
865.26	3793.5	
865.43	6240.8	
865.6	6618.4	
865.77	3061.7	
865.94	3501.3	
866.1	6291.4	
866.27	6027.9	
866.44	5315.8	
866.61	3334.8	
866.78	5427.8	
866.95	5875.6	
867.11	3386.7	
867.28	3104.7	
867.45	6016.2	
867.62	5072.8	
867.79	4078.9	
867.96	3545.7	
868.12	4987.5	
868.29	6036	
868.46	3492.5	
868.63	4696.7	
868.8	6182.8	
868.97	5908.4	
869.13	3690.4	
869.3	3643.3	
869.47	5872.2	
869.64	5980.8	
869.81	3556.6	
869.97	3587.4	
870.14	5721.3	
870.31	6432	
870.48	3441.3	
870.65	4440.7	
870.81	5337	
870.98	5343.2	
871.15	4040	
871.32	3721.2	
871.48	5805.3	
871.65	6503	
871.82	3509.5	
871.99	3892.5	
872.16	6920.8	
872.32	6298.2	
872.49	3536.8	
872.66	3612.6	
872.83	5955.5	
872.99	5197.1	
873.16	4077.5	
873.33	3477.5	
873.5	5541.1	
873.67	5636	
873.83	3732.1	
874	4736.3	
874.17	5681.7	
874.34	6852.5	
874.5	4554.7	
874.67	4405.9	
874.84	6368.5	
875.01	4939.7	
875.17	5039.4	
875.34	3500	
875.51	5674.9	
875.68	6864.8	
875.84	4276.2	
876.01	5190.2	
876.18	5894.1	
876.34	5865.4	
876.51	3550.5	
876.68	3401.7	
876.85	5442.8	
877.01	6244.9	
877.18	5031.9	
877.35	3583.3	
877.52	5494.7	
877.68	4946.5	
877.85	3437.9	
878.02	3423.5	
878.18	5466	
878.35	5199.1	
878.52	2817.3	
878.69	3920.5	
878.85	5935	
879.02	5930.9	
879.19	4969.1	
879.35	3799	
879.52	5872.2	
879.69	6114.6	
879.86	2977.7	
880.02	4019.5	
880.19	5494	
880.36	6610.8	
880.52	4073.4	
880.69	4272.1	
880.86	6042.9	
881.02	6110.5	
881.19	3930.7	
881.36	3844.7	
881.52	5888.6	
881.69	5177.9	
881.86	3864.5	
882.02	3664.5	
882.19	6167.1	
882.36	7301.7	
882.52	3650.8	
882.69	4988.2	
882.86	5697.4	
883.02	5593.7	
883.19	4300.1	
883.36	4047.5	
883.52	6075	
883.69	6968.6	
883.86	3573	
884.02	3133.4	
884.19	5997.1	
884.36	5511.1	
884.52	3947.8	
884.69	3731.4	
884.86	5201.2	
885.02	6570.6	
885.19	3975.1	
885.36	4073.4	
885.52	5491.3	
885.69	5670.1	
885.86	5107	
886.02	4536.3	
886.19	5950	
886.35	5373.9	
886.52	3919.1	
886.69	4923.3	
886.85	5061.2	
887.02	6423.1	
887.19	6423.1	
887.35	6423.1	
887.52	6423.1	
887.68	6423.1	
887.85	6423.1	
888.02	6423.1	
888.18	6423.1	
888.35	6423.1	
888.51	6423.1	
888.68	6423.1	
888.85	6423.1	
889.01	6423.1	
889.18	6423.1	
889.35	6423.1	
889.51	6423.1	
889.68	6423.1	
889.84	6423.1	
890.01	6423.1	
890.17	6423.1	
890.34	6423.1	
890.51	6423.1	
890.67	6423.1	
890.84	6423.1	
891	6423.1	
891.17	6423.1	
891.34	6423.1	
891.5	6423.1	
891.67	6423.1	
891.83	6423.1	
892	6423.1	
892.16	6423.1	
892.33	6423.1	
892.5	6423.1	
892.66	6423.1	
892.83	6423.1	
892.99	6423.1	
893.16	6423.1	
893.32	6423.1	
893.49	6423.1	
893.65	6423.1	
893.82	6423.1	
893.99	6423.1	
894.15	6423.1	
894.32	6423.1	
894.48	6423.1	
894.65	6423.1	
894.81	6423.1	
894.98	6423.1	
895.14	6423.1	
895.31	6423.1	
895.47	6423.1	
895.64	6423.1	
895.81	6423.1	
895.97	6423.1	
896.14	6423.1	
896.3	6423.1	
896.47	6423.1	
896.63	6423.1	
896.8	6423.1	
896.96	6423.1	
897.13	6423.1	
897.29	6423.1	
897.46	6423.1	
897.62	6423.1	
897.79	6423.1	
897.95	6423.1	
898.12	6423.1	
898.28	6423.1	
898.45	6423.1	
898.61	6423.1	
898.78	6423.1	
898.94	6423.1	
899.11	6423.1	
899.27	6423.1	
899.44	6423.1	
899.6	6423.1	
899.77	6423.1	
899.93	6423.1	
900.1	6423.1	
900.26	6423.1	
900.43	6423.1	
900.59	6423.1	
900.76	6423.1	
900.92	6423.1	
901.09	6423.1	
901.25	6423.1	
901.42	6423.1	
901.58	6423.1	
901.75	6423.1	
901.91	6423.1	
902.07	6423.1	
902.24	6423.1	
902.4	6423.1	
902.57	6423.1	
902.73	6423.1	
902.9	6423.1	
903.06	6423.1	
903.23	6423.1	
903.39	6423.1	
903.56	6423.1	
903.72	6423.1	
903.88	6423.1	
904.05	6423.1	
904.21	6423.1	
904.38	6423.1	
904.54	6423.1	
904.71	6423.1	
904.87	6423.1	
905.03	6423.1	
905.2	6423.1	
905.36	6423.1	
905.53	6423.1	
905.69	6423.1	
905.86	6423.1	
906.02	6423.1	
906.18	6423.1	
906.35	6423.1	
906.51	6423.1	
906.68	6423.1	
906.84	6423.1	
907.01	6423.1	
907.17	6423.1	
907.33	6423.1	
907.5	6423.1	
907.66	6423.1	
907.83	6423.1	
907.99	6423.1	
908.15	6423.1	
908.32	6423.1	
908.48	6423.1	
908.65	6423.1	
908.81	6423.1	
908.97	6423.1	
909.14	6423.1	
909.3	6423.1	
909.47	6423.1	
909.63	6423.1	
909.79	6423.1	
909.96	6423.1	
910.12	6423.1	
910.28	6423.1	
910.45	6423.1	
910.61	6423.1	
910.78	6423.1	
910.94	6423.1	
911.1	6423.1	
911.27	6423.1	
911.43	6423.1	
911.59	6423.1	
911.76	6423.1	
911.92	6423.1	
912.08	6423.1	
912.25	6423.1	
912.41	6423.1	
912.57	6423.1	
912.74	6423.1	
912.9	6423.1	
913.07	6423.1	
913.23	6423.1	
913.39	6423.1	
913.56	6423.1	
913.72	6423.1	
913.88	6423.1	
914.05	6423.1	
914.21	6423.1	
914.37	6423.1	
914.54	6423.1	
914.7	6423.1	
914.86	6423.1	
915.03	6423.1	
915.19	6423.1	
