Wavelength	Intensities	
nm	a.u.	
179.22	1721.1	
179.44	1713.8	
179.65	1728.5	
179.86	1699.1	
180.08	1712.1	
180.29	4017.4	
180.51	3067.9	
180.72	5040.7	
180.94	5625.1	
181.15	2794.8	
181.37	2727.9	
181.58	4821.6	
181.79	5078.3	
182.01	2874	
182.22	3012.6	
182.44	5066	
182.65	4348.5	
182.87	3693.9	
183.08	3325.9	
183.29	5314.5	
183.51	4427	
183.72	3043.3	
183.94	4265.2	
184.15	4799.8	
184.37	4702.8	
184.58	2745.6	
184.79	3553.2	
185.01	4478.2	
185.22	5145.9	
185.44	3743	
185.65	3217.4	
185.86	4756.7	
186.08	4400.4	
186.29	2686.9	
186.51	2845.3	
186.72	4476.2	
186.94	5207.3	
187.15	3256.3	
187.36	3340.2	
187.58	6479.8	
187.79	4885.1	
188.01	3426.9	
188.22	5182	
188.43	5671.5	
188.65	5066	
188.86	2875.3	
189.08	3315.7	
189.29	4583.4	
189.5	4582	
189.72	3072	
189.93	3145.7	
190.15	5237.3	
190.36	6040.8	
190.57	3321.8	
190.79	3257	
191	5236	
191.22	5214.8	
191.43	3404.4	
191.64	2841.9	
191.86	5369.1	
192.07	5207.3	
192.29	2967.5	
192.5	3106.8	
192.71	5193.6	
192.93	4646.8	
193.14	3062.4	
193.35	3155.2	
193.57	4612.7	
193.78	5176.6	
194	2542.9	
194.21	3016	
194.42	4447.5	
194.64	4851.6	
194.85	3284.3	
195.07	3810.6	
195.28	4782	
195.49	4258.4	
195.71	3964.9	
195.92	2909.5	
196.13	4952	
196.35	4980.7	
196.56	4190.8	
196.78	3272	
196.99	6019	
197.2	5641.5	
197.42	3738.9	
197.63	3338.2	
197.84	4328.7	
198.06	4919.2	
198.27	3128.6	
198.48	3949.2	
198.7	4586.8	
198.91	4813.4	
199.13	3361.4	
199.34	3355.9	
199.55	5155.4	
199.77	4171	
199.98	3020.8	
200.19	3380.5	
200.41	4719.2	
200.62	4495.3	
200.83	3430.3	
201.05	3686.3	
201.26	4776.5	
201.47	4556	
201.69	3039.9	
201.9	2882.9	
202.11	4787.5	
202.33	5543.9	
202.54	3219.4	
202.76	3474.7	
202.97	4834.6	
203.18	4907.6	
203.4	3463.8	
203.61	3452.2	
203.82	4863.9	
204.04	4501.4	
204.25	3404.4	
204.46	3287.7	
204.68	4818.2	
204.89	4934.9	
205.1	3241.3	
205.32	2840.5	
205.53	5057.1	
205.74	5182	
205.96	2556.5	
206.17	3373	
206.38	5059.2	
206.6	5129.5	
206.81	3820.8	
207.02	3142.9	
207.24	4947.2	
207.45	5279.7	
207.66	3246.7	
207.88	2788	
208.09	4945.8	
208.3	4766.3	
208.52	3001.6	
208.73	3276.1	
208.94	4792.9	
209.15	5309	
209.37	3239.9	
209.58	3539.6	
209.79	5177.3	
210.01	4649.6	
210.22	2572.9	
210.43	2719	
210.65	4756.1	
210.86	5072.1	
211.07	3213.3	
211.29	2973	
211.5	4998.4	
211.71	4732.9	
211.93	2960.7	
212.14	2992.1	
212.35	4738.3	
212.56	4855.1	
212.78	3380.5	
212.99	2796.8	
213.2	5471.5	
213.42	4650.9	
213.63	3022.8	
213.84	3265.1	
214.06	4307.6	
214.27	4382	
214.48	3187.3	
214.69	3373.7	
214.91	5286.5	
215.12	5303.6	
215.33	3379.8	
215.55	3639.9	
215.76	5737.7	
215.97	5063.9	
216.18	3310.9	
216.4	3209.2	
216.61	4491.2	
216.82	5171.8	
217.04	3013.2	
217.25	3102	
217.46	5219.6	
217.67	5065.3	
217.89	2761.3	
218.1	2778.4	
218.31	4820.9	
218.53	4880.3	
218.74	3137.5	
218.95	3028.9	
219.16	4773.8	
219.38	5496.1	
219.59	3044	
219.8	3558	
220.01	5889.3	
220.23	4825.7	
220.44	3781.9	
220.65	2953.2	
220.87	4900.8	
221.08	5238	
221.29	2889	
221.5	3612.6	
221.72	6253.8	
221.93	4505.5	
222.14	3401.7	
222.35	3921.2	
222.57	4798.4	
222.78	5112.4	
222.99	3265.1	
223.2	3427.6	
223.42	5016.2	
223.63	5103.5	
223.84	2510.1	
224.05	2521	
224.27	5864.7	
224.48	5449	
224.69	3847.5	
224.9	3377.1	
225.12	4948.6	
225.33	4755.4	
225.54	2723.1	
225.75	2994.1	
225.97	4446.8	
226.18	4677.6	
226.39	3254.9	
226.6	3043.3	
226.82	4613.4	
227.03	4466.6	
227.24	3374.4	
227.45	2820.1	
227.67	5076.2	
227.88	5433.3	
228.09	3686.3	
228.3	3671.3	
228.52	5120.6	
228.73	4700.8	
228.94	3151.1	
229.15	2764.1	
229.36	4738.3	
229.58	4685.8	
229.79	3200.3	
230	3598.3	
230.21	5598.5	
230.43	4792.9	
230.64	3287.7	
230.85	3450.8	
231.06	5132.9	
231.28	5081	
231.49	2796.2	
231.7	3300	
231.91	4989.5	
232.12	4803.9	
232.34	2889	
232.55	3225.6	
232.76	5272.8	
232.97	4929.5	
233.18	3000.3	
233.4	3319.8	
233.61	4896.7	
233.82	4539.7	
234.03	3108.8	
234.25	3093.8	
234.46	6379.4	
234.67	4834.6	
234.88	3431.7	
235.09	3017.3	
235.31	4921.3	
235.52	4661.9	
235.73	3287.7	
235.94	2876	
236.15	4595.6	
236.37	5656.5	
236.58	2934.7	
236.79	3257	
237	4989.5	
237.21	4386.1	
237.43	3458.3	
237.64	2757.2	
237.85	7891.5	
238.06	4466.6	
238.27	3442	
238.48	2840.5	
238.7	5012.1	
238.91	4644.1	
239.12	3141.6	
239.33	3263.8	
239.54	4498.7	
239.76	4659.8	
239.97	3209.2	
240.18	3202.3	
240.39	5759.6	
240.6	4956.1	
240.82	3349.8	
241.03	2832.3	
241.24	4792.9	
241.45	5467.4	
241.66	2938.2	
241.87	3497.2	
242.09	5364.3	
242.3	5635.3	
242.51	3483.6	
242.72	3217.4	
242.93	5094.7	
243.14	4713.7	
243.36	3708.2	
243.57	3968.3	
243.78	5457.8	
243.99	5061.9	
244.2	3207.8	
244.41	2899.2	
244.63	4423.6	
244.84	4970.4	
245.05	3437.2	
245.26	3217.4	
245.47	5020.9	
245.68	5162.2	
245.9	4200.4	
246.11	3396.9	
246.32	4635.2	
246.53	4983.4	
246.74	5012.7	
246.95	2781.8	
247.16	4465.3	
247.38	4794.3	
247.59	2800.9	
247.8	3238.5	
248.01	4506.2	
248.22	4748.6	
248.43	3007.1	
248.64	3144.3	
248.86	4326.7	
249.07	4635.2	
249.28	2915.6	
249.49	3301.3	
249.7	5207.3	
249.91	5246.9	
250.12	2762.7	
250.34	2837.8	
250.55	4865.3	
250.76	4771.1	
250.97	3314.3	
251.18	3347.1	
251.39	5180	
251.6	4918.5	
251.81	3366.2	
252.03	3325.9	
252.24	4631.1	
252.45	5113.8	
252.66	2845.3	
252.87	3556	
253.08	4792.2	
253.29	5988.3	
253.5	2883.5	
253.72	3844	
253.93	4706.9	
254.14	5559.6	
254.35	3110.2	
254.56	3177.8	
254.77	4917.2	
254.98	4516.5	
255.19	3059.7	
255.41	3813.3	
255.62	4894.6	
255.83	5247.6	
256.04	3394.2	
256.25	3319.8	
256.46	5722.7	
256.67	4562.2	
256.88	3257.6	
257.09	3670	
257.31	4478.9	
257.52	4539.7	
257.73	4116.4	
257.94	3065.8	
258.15	4719.2	
258.36	4728.1	
258.57	3775.8	
258.78	2488.3	
258.99	5169.8	
259.2	4636.6	
259.41	3065.8	
259.63	3209.2	
259.84	5409.4	
260.05	5748.6	
260.26	3934.8	
260.47	3009.8	
260.68	5238.7	
260.89	4718.5	
261.1	3681.6	
261.31	2949.1	
261.52	5255.1	
261.73	5507.7	
261.95	3890.5	
262.16	3485.6	
262.37	5328.8	
262.58	5334.3	
262.79	3892.5	
263	3138.2	
263.21	4767.7	
263.42	4674.1	
263.63	3379.1	
263.84	3140.2	
264.05	5142.4	
264.26	5486.5	
264.47	3757.3	
264.69	3337.5	
264.9	5354.1	
265.11	4964.3	
265.32	2975.7	
265.53	3048.7	
265.74	4870.1	
265.95	4330.8	
266.16	3282.9	
266.37	3599	
266.58	4870.1	
266.79	4569.7	
267	3060.3	
267.21	2869.9	
267.42	4427	
267.63	4829.1	
267.84	3218.7	
268.06	2831	
268.27	5102.9	
268.48	5283.8	
268.69	3121.8	
268.9	3665.9	
269.11	5276.9	
269.32	4315.1	
269.53	3229.6	
269.74	3031.7	
269.95	4981.3	
270.16	4319.8	
270.37	3290.4	
270.58	3708.9	
270.79	4669.4	
271	5188.2	
271.21	3434.4	
271.42	3297.2	
271.63	4965.6	
271.84	4484.4	
272.05	2645.3	
272.26	2952.5	
272.47	4795	
272.68	4959.5	
272.89	3137.5	
273.11	3504.8	
273.32	4614.8	
273.53	5472.2	
273.74	3458.3	
273.95	3405.1	
274.16	5154.1	
274.37	4726.7	
274.58	3465.2	
274.79	2871.9	
275	4887.1	
275.21	5257.1	
275.42	4070.7	
275.63	3515	
275.84	5018.9	
276.05	6113.9	
276.26	3375.7	
276.47	3207.1	
276.68	4711	
276.89	5582.8	
277.1	3589.4	
277.31	2807.1	
277.52	4948.6	
277.73	5193	
277.94	2848.7	
278.15	3063.8	
278.36	4986.8	
278.57	4511	
278.78	3093.8	
278.99	3446	
279.2	4587.4	
279.41	4528.7	
279.62	3960.1	
279.83	2899.9	
280.04	5676.3	
280.25	4467.3	
280.46	3924.6	
280.67	3249.4	
280.88	4545.1	
281.09	5276.9	
281.3	3376.4	
281.51	4116.4	
281.72	4543.8	
281.93	5197.7	
282.14	3030.3	
282.35	3250.8	
282.56	5189.6	
282.77	5140.4	
282.98	3109.5	
283.19	3691.8	
283.4	6163	
283.61	4730.8	
283.82	2908.8	
284.03	3908.9	
284.24	4866	
284.45	5227.8	
284.66	3959.4	
284.87	3681.6	
285.08	5264	
285.29	5337.7	
285.5	2846	
285.71	3181.2	
285.92	5213.4	
286.12	5735	
286.33	3872	
286.54	3196.9	
286.75	5132.2	
286.96	4676.2	
287.17	2964.1	
287.38	3775.1	
287.59	4559.5	
287.8	4532.8	
288.01	3102.7	
288.22	3576.4	
288.43	5064.6	
288.64	4386.1	
288.85	3691.1	
289.06	3506.1	
289.27	5129.5	
289.48	5466.7	
289.69	3918.4	
289.9	3590.8	
290.11	5284.4	
290.32	4592.2	
290.53	3696.6	
290.74	3449.5	
290.94	5074.9	
291.15	5168.4	
291.36	3034.4	
291.57	3539.6	
291.78	4654.4	
291.99	4303.5	
292.2	2990.7	
292.41	3451.5	
292.62	5223	
292.83	5059.8	
293.04	4200.4	
293.25	3013.2	
293.46	4639.3	
293.67	5209.3	
293.88	3033.7	
294.09	2953.2	
294.29	4495.3	
294.5	4863.9	
294.71	3293.8	
294.92	3100.6	
295.13	4657.1	
295.34	5671.5	
295.55	2799.6	
295.76	2703.3	
295.97	5080.3	
296.18	5597.1	
296.39	2863.1	
296.6	3063.1	
296.81	4814.1	
297.01	5069.4	
297.22	3152.5	
297.43	3039.2	
297.64	4573.8	
297.85	4475.5	
298.06	2556.5	
298.27	2836.4	
298.48	4793.6	
298.69	4571.7	
298.9	3222.1	
299.11	2988.7	
299.31	4427.7	
299.52	4395.6	
299.73	3489.7	
299.94	3409.9	
300.15	4826.4	
300.36	4493.9	
300.57	3427.6	
300.78	3438.5	
300.99	4654.4	
301.2	4882.4	
301.4	3056.9	
301.61	3237.2	
301.82	5066.7	
302.03	5129.5	
302.24	3633.1	
302.45	2892.4	
302.66	5020.9	
302.87	5285.1	
303.08	3074	
303.29	3999.7	
303.49	4595	
303.7	4758.1	
303.91	2751.8	
304.12	3827	
304.33	4396.3	
304.54	4927.4	
304.75	3078.8	
304.96	2953.9	
305.16	5036	
305.37	5541.8	
305.58	2742.2	
305.79	2763.4	
306	5033.9	
306.21	4306.2	
306.42	3095.2	
306.63	4459.8	
306.83	4683.7	
307.04	5143.8	
307.25	3345	
307.46	3303.4	
307.67	4234.5	
307.88	5101.5	
308.09	3095.2	
308.29	3067.2	
308.5	4825	
308.71	5216.2	
308.92	3248.1	
309.13	2934.7	
309.34	4709.6	
309.55	4715.1	
309.75	3715.7	
309.96	3439.9	
310.17	5101.5	
310.38	4565.6	
310.59	3532.1	
310.8	2848.7	
311.01	5479.7	
311.21	4747.2	
311.42	2965.5	
311.63	2968.2	
311.84	4644.8	
312.05	4846.9	
312.26	3383.9	
312.46	3650.8	
312.67	4691.2	
312.88	4420.2	
313.09	2953.2	
313.3	2928.6	
313.51	5370.5	
313.71	5671.5	
313.92	2961.4	
314.13	3119.7	
314.34	4991.6	
314.55	4757.4	
314.76	3674.1	
314.96	3284.3	
315.17	4894	
315.38	5087.8	
315.59	3007.1	
315.8	2852.1	
316.01	5378	
316.21	5509.7	
316.42	2888.3	
316.63	3271.3	
316.84	4670.7	
317.05	5188.9	
317.26	3454.9	
317.46	3143.6	
317.67	4732.9	
317.88	5082.4	
318.09	3681.6	
318.3	2780.5	
318.5	4610.7	
318.71	5007.3	
318.92	4552.6	
319.13	3452.9	
319.34	5166.3	
319.54	5236	
319.75	2793.4	
319.96	2683.5	
320.17	5044.8	
320.38	5215.5	
320.58	2782.5	
320.79	3179.8	
321	5216.2	
321.21	5312.4	
321.42	3259.7	
321.62	2688.3	
321.83	4594.3	
322.04	4801.1	
322.25	3128.6	
322.46	2969.6	
322.66	4863.9	
322.87	4998.4	
323.08	3586.7	
323.29	2926.5	
323.5	5591	
323.7	4432.5	
323.91	3886.4	
324.12	3522.5	
324.33	4898.1	
324.53	5051.7	
324.74	3408.5	
324.95	3557.3	
325.16	4362.9	
325.37	4695.3	
325.57	2962	
325.78	2982.5	
325.99	4903.5	
326.2	4422.2	
326.4	4033.8	
326.61	2770.9	
326.82	4756.1	
327.03	4855.1	
327.24	4100.7	
327.44	3859.1	
327.65	5018.9	
327.86	4118.5	
328.07	3453.6	
328.27	2882.2	
328.48	5324	
328.69	4444.8	
328.9	4126	
329.1	3108.8	
329.31	4756.1	
329.52	5380.7	
329.73	3004.4	
329.93	3225.6	
330.14	4799.1	
330.35	4979.3	
330.56	4655.7	
330.76	3602.4	
330.97	4678.2	
331.18	4908.3	
331.39	3282.9	
331.59	2676.7	
331.8	5251	
332.01	5304.9	
332.22	3078.8	
332.42	3426.9	
332.63	4883	
332.84	4493.2	
333.05	3315	
333.25	3019.4	
333.46	4599.7	
333.67	4739	
333.88	3077.4	
334.08	3342.3	
334.29	6095.4	
334.5	5224.4	
334.7	2863.1	
334.91	4079.6	
335.12	4409.3	
335.33	5074.9	
335.53	3246.7	
335.74	4644.1	
335.95	4640	
336.16	4501.4	
336.36	3241.9	
336.57	3708.2	
336.78	4455.7	
336.98	5198.4	
337.19	3914.4	
337.4	3170.3	
337.61	5679.7	
337.81	4444.1	
338.02	3046.7	
338.23	3784.6	
338.43	5388.9	
338.64	4530.1	
338.85	2988.7	
339.05	3848.8	
339.26	5375.2	
339.47	4364.9	
339.68	2917.7	
339.88	4283	
340.09	4965	
340.3	5154.7	
340.5	3405.8	
340.71	2717	
340.92	4456.4	
341.13	5333.6	
341.33	2841.9	
341.54	3464.5	
341.75	4973.8	
341.95	4629.8	
342.16	3363.4	
342.37	3530	
342.57	4505.5	
342.78	4699.4	
342.99	3604.4	
343.19	2681.5	
343.4	5106.3	
343.61	4977.2	
343.81	3160	
344.02	2865.1	
344.23	5107.6	
344.43	5399.8	
344.64	3600.3	
344.85	3549.8	
345.06	5061.2	
345.26	5157.5	
345.47	3358.7	
345.68	3952.6	
345.88	4359.4	
346.09	5178.6	
346.3	3439.9	
346.5	2637.1	
346.71	4733.5	
346.92	4568.3	
347.12	2802.3	
347.33	3354.6	
347.54	5154.1	
347.74	5516.5	
347.95	3382.6	
348.16	2590	
348.36	4629.8	
348.57	4450.9	
348.78	3422.2	
348.98	3588.7	
349.19	4708.3	
349.39	4334.9	
349.6	2753.2	
349.81	2975	
350.01	5029.1	
350.22	4592.9	
350.43	3363.4	
350.63	3842	
350.84	4797	
351.05	4590.2	
351.25	3035.1	
351.46	2729.9	
351.67	5157.5	
351.87	4543.8	
352.08	3173	
352.29	3554.6	
352.49	5092.6	
352.7	5172.5	
352.9	2864.4	
353.11	3563.5	
353.32	5625.8	
353.52	4646.2	
353.73	2951.1	
353.94	3559.4	
354.14	5015.5	
354.35	4790.9	
354.55	2957.3	
354.76	3232.4	
354.97	4945.8	
355.17	4761.5	
355.38	2805	
355.59	3793.5	
355.79	4531.5	
356	4766.3	
356.2	3214.6	
356.41	2858.3	
356.62	4437.3	
356.82	4683	
357.03	3478.1	
357.24	3090.4	
357.44	4526	
357.65	4635.2	
357.85	4058.4	
358.06	3302	
358.27	4298	
358.47	4492.6	
358.68	2804.4	
358.88	3473.4	
359.09	4924	
359.3	5227.8	
359.5	3952.6	
359.71	3583.9	
359.91	5511.8	
360.12	4981.3	
360.33	3439.9	
360.53	3770.3	
360.74	4519.9	
360.94	4587.4	
361.15	3601	
361.36	3018.7	
361.56	5224.4	
361.77	4689.8	
361.97	3932.1	
362.18	3209.2	
362.38	5151.3	
362.59	4402.5	
362.8	2954.5	
363	2863.7	
363.21	4299.4	
363.41	4726	
363.62	3325.9	
363.83	4107.5	
364.03	4960.9	
364.24	5533.6	
364.44	4192.9	
364.65	4104.8	
364.85	4679.6	
365.06	4496.7	
365.27	3092.4	
365.47	3167.5	
365.68	5433.3	
365.88	4678.2	
366.09	3406.5	
366.29	3114.3	
366.5	4777.2	
366.71	5102.9	
366.91	4117.1	
367.12	3504.8	
367.32	5612.8	
367.53	5060.5	
367.73	3537.5	
367.94	4254.3	
368.14	5066	
368.35	5623.7	
368.56	3401	
368.76	3037.1	
368.97	5092.6	
369.17	6236.1	
369.38	3113.6	
369.58	3272.7	
369.79	4397	
369.99	5389.6	
370.2	4097.3	
370.4	3386.7	
370.61	4896	
370.82	5823.1	
371.02	3342.3	
371.23	2837.8	
371.43	4364.9	
371.64	5333.6	
371.84	3372.3	
372.05	4191.5	
372.25	6268.8	
372.46	5050.3	
372.66	3340.2	
372.87	3292.5	
373.07	5075.5	
373.28	6356.9	
373.48	4000.4	
373.69	3777.8	
373.9	4793.6	
374.1	4743.1	
374.31	4009.2	
374.51	3624.9	
374.72	5334.3	
374.92	4540.3	
375.13	4115.1	
375.33	3508.9	
375.54	5019.6	
375.74	4620.9	
375.95	3564.8	
376.15	4500.1	
376.36	5065.3	
376.56	4899.4	
376.77	3626.3	
376.97	3958	
377.18	5859.9	
377.38	5114.5	
377.59	4072	
377.79	3287	
378	4919.2	
378.2	5237.3	
378.41	3292.5	
378.61	3226.9	
378.82	5319.9	
379.02	4731.5	
379.23	3390.1	
379.43	4217.5	
379.64	5423.7	
379.84	5055.1	
380.05	3320.4	
380.25	3165.5	
380.46	5133.6	
380.66	4827.7	
380.87	4231.8	
381.07	4576.5	
381.28	5595.7	
381.48	5095.3	
381.69	3299.3	
381.89	3353.2	
382.1	4423.6	
382.3	5220.3	
382.51	4107.5	
382.71	4785.4	
382.91	5092.6	
383.12	5532.2	
383.32	3560.7	
383.53	3732.8	
383.73	5077.6	
383.94	4906.9	
384.14	3693.9	
384.35	3046	
384.55	4807.3	
384.76	5110.4	
384.96	3540.9	
385.17	3817.4	
385.37	5177.3	
385.58	4514.4	
385.78	3751.2	
385.98	3017.3	
386.19	4709.6	
386.39	5082.4	
386.6	3398.3	
386.8	3588.7	
387.01	5065.3	
387.21	5185.5	
387.42	3868.6	
387.62	4220.9	
387.83	4726.7	
388.03	4986.8	
388.23	3613.3	
388.44	4113	
388.64	4385.4	
388.85	4464.6	
389.05	3819.5	
389.26	4250.2	
389.46	5950.7	
389.67	5431.9	
389.87	3773.7	
390.07	3815.4	
390.28	4839.4	
390.48	4575.8	
390.69	3222.1	
390.89	3506.1	
391.1	4705.5	
391.3	5324.7	
391.5	4362.2	
391.71	4812	
391.91	5160.9	
392.12	5842.2	
392.32	4415.4	
392.53	3788.7	
392.73	4788.8	
392.93	4872.8	
393.14	3622.2	
393.34	4231.8	
393.55	5195	
393.75	4828.4	
393.95	3622.9	
394.16	3562.1	
394.36	4674.8	
394.57	5209.3	
394.77	3183.2	
394.98	3481.5	
395.18	4614.8	
395.38	4698.7	
395.59	4152.6	
395.79	3403	
396	4754	
396.2	5072.1	
396.4	3950.5	
396.61	3936.9	
396.81	5181.4	
397.02	4660.5	
397.22	4108.9	
397.42	4145.1	
397.63	5261.2	
397.83	4642.7	
398.04	3340.9	
398.24	3673.4	
398.44	5089.9	
398.65	4300.7	
398.85	3222.1	
399.05	3259.7	
399.26	4669.4	
399.46	5853.1	
399.67	3521.8	
399.87	3373.7	
400.07	4944.5	
400.28	5104.9	
400.48	3427.6	
400.69	4243.4	
400.89	5229.8	
401.09	5649	
401.3	3310.2	
401.5	4131.4	
401.7	5742.5	
401.91	5917.9	
402.11	3652.9	
402.32	3783.3	
402.52	5358.9	
402.72	5287.2	
402.93	3943	
403.13	3083.6	
403.33	5932.3	
403.54	4934.2	
403.74	3756.7	
403.94	4410	
404.15	5023.7	
404.35	5855.1	
404.56	3573.7	
404.76	4904.9	
404.96	5313.8	
405.17	5113.1	
405.37	4317.8	
405.57	3887	
405.78	5332.9	
405.98	4883	
406.18	3523.9	
406.39	4167.6	
406.59	5268.7	
406.79	4969.1	
407	3412.6	
407.2	3460.4	
407.4	5382.1	
407.61	5462.6	
407.81	3465.2	
408.01	5242.8	
408.22	4419.5	
408.42	5902.9	
408.62	4163.5	
408.83	3795.6	
409.03	4885.8	
409.23	4882.4	
409.44	3847.5	
409.64	3963.5	
409.84	5591	
410.05	5529.5	
410.25	3950.5	
410.45	3799	
410.66	5139.7	
410.86	6984.3	
411.06	4028.4	
411.27	3939.6	
411.47	6763.1	
411.67	5228.5	
411.88	4179.2	
412.08	4280.3	
412.28	5687.2	
412.49	6087.9	
412.69	3904.1	
412.89	3901.4	
413.09	5934.3	
413.3	5825.1	
413.5	4088.4	
413.7	3747.8	
413.91	5329.5	
414.11	5958.9	
414.31	3873.4	
414.52	4164.2	
414.72	5690.6	
414.92	5601.2	
415.12	3913.7	
415.33	4240	
415.53	5852.4	
415.73	5984.8	
415.94	4504.8	
416.14	4093.2	
416.34	5181.4	
416.55	4971.8	
416.75	4971.8	
416.95	4554	
417.15	5915.2	
417.36	6434.7	
417.56	5157.5	
417.76	4377.2	
417.97	6075.6	
418.17	5864	
418.37	4133.5	
418.57	4182	
418.78	5768.4	
418.98	5461.2	
419.18	4783.4	
419.38	4818.9	
419.59	5417.6	
419.79	5261.2	
419.99	3966.9	
420.2	4312.3	
420.4	5890	
420.6	6004	
420.8	3961.5	
421.01	3876.8	
421.21	5756.2	
421.41	5849.7	
421.61	4268.6	
421.82	4052.2	
422.02	5438	
422.22	6116.6	
422.42	4628.4	
422.63	4420.9	
422.83	5484.5	
423.03	6379.4	
423.23	4402.5	
423.44	3695.9	
423.64	5433.9	
423.84	5242.1	
424.04	3997.6	
424.25	3745.7	
424.45	6201.9	
424.65	6189	
424.85	3556	
425.06	4033.1	
425.26	6263.4	
425.46	5397.1	
425.66	4411.3	
425.87	4172.4	
426.07	5969.1	
426.27	5877	
426.47	4232.5	
426.67	3724.6	
426.88	6226.5	
427.08	5812.8	
427.28	4436.6	
427.48	3751.9	
427.69	5122	
427.89	5505.6	
428.09	4371.7	
428.29	3710.2	
428.5	5950.7	
428.7	5599.8	
428.9	3650.2	
429.1	4039.3	
429.3	5599.8	
429.51	5803.9	
429.71	3928.7	
429.91	4486.4	
430.11	5784.1	
430.31	6005.3	
430.52	4117.1	
430.72	4284.4	
430.92	6264.1	
431.12	5789.6	
431.32	3799	
431.53	4196.3	
431.73	5013.4	
431.93	6252.4	
432.13	3801	
432.33	3680.2	
432.54	5411.4	
432.74	5615.5	
432.94	3581.9	
433.14	4423.6	
433.34	5836	
433.55	5380	
433.75	4326	
433.95	5657.9	
434.15	5615.5	
434.35	5369.8	
434.56	3822.9	
434.76	3422.8	
434.96	5530.9	
435.16	5726.8	
435.36	3648.1	
435.56	4536.9	
435.77	5327.4	
435.97	5449.6	
436.17	5012.1	
436.37	4481	
436.57	5220.3	
436.78	5177.3	
436.98	4417.5	
437.18	4913.8	
437.38	5679	
437.58	5399.1	
437.78	4942.4	
437.99	4062.5	
438.19	5800.5	
438.39	6868.2	
438.59	3978.5	
438.79	3588.7	
438.99	6324.8	
439.2	5401.9	
439.4	3659	
439.6	3603.1	
439.8	5581.4	
440	6363	
440.2	4356	
440.4	4420.2	
440.61	5933	
440.81	6260.6	
441.01	3779.9	
441.21	4450.2	
441.41	6138.4	
441.61	5855.1	
441.81	4631.8	
442.02	5367.7	
442.22	6551.5	
442.42	5958.2	
442.62	3803.1	
442.82	3870.7	
443.02	6220.4	
443.22	5502.2	
443.43	4125.3	
443.63	3764.8	
443.83	5342.5	
444.03	5337.7	
444.23	4681	
444.43	4306.2	
444.63	5651	
444.83	6466.8	
445.04	3813.3	
445.24	4840.7	
445.44	5938.4	
445.64	5889.3	
445.84	4504.2	
446.04	4508.9	
446.24	5406.6	
446.44	6219.7	
446.65	3870	
446.85	4145.1	
447.05	5712.5	
447.25	6177.4	
447.45	4226.3	
447.65	3715	
447.85	5732.3	
448.05	5375.9	
448.25	4541.7	
448.46	4300.7	
448.66	5748.6	
448.86	5416.2	
449.06	3689.1	
449.26	4481.6	
449.46	5903.6	
449.66	5266	
449.86	4158.1	
450.06	4070	
450.26	5310.4	
450.47	5787.6	
450.67	4278.2	
450.87	4540.3	
451.07	5974.6	
451.27	5685.2	
451.47	3854.3	
451.67	4235.2	
451.87	5472.9	
452.07	6268.8	
452.27	4012	
452.47	3983.3	
452.67	5672.2	
452.88	6008.7	
453.08	3493.2	
453.28	5005.9	
453.48	6568.5	
453.68	5584.8	
453.88	3870.7	
454.08	4055.7	
454.28	5948	
454.48	5709.1	
454.68	4492.6	
454.88	4845.5	
455.08	6001.9	
455.28	5716.6	
455.48	3799.7	
455.68	4274.8	
455.89	6316.6	
456.09	6075	
456.29	4001.7	
456.49	4040	
456.69	6203.3	
456.89	5583.4	
457.09	4401.1	
457.29	4661.2	
457.49	5885.9	
457.69	5907.7	
457.89	4252.3	
458.09	3824.9	
458.29	5663.3	
458.49	6209.4	
458.69	4546.5	
458.89	4142.4	
459.09	6336.4	
459.29	6443.6	
459.49	4172.4	
459.69	4825.7	
459.9	6072.9	
460.1	5568.4	
460.3	4086.4	
460.5	3930.1	
460.7	5950	
460.9	5672.2	
461.1	3704.1	
461.3	4625.7	
461.5	6496.8	
461.7	6168.5	
461.9	3921.9	
462.1	4311.7	
462.3	5797.8	
462.5	6134.3	
462.7	3990.8	
462.9	4044.1	
463.1	6951.5	
463.3	6647	
463.5	4266.6	
463.7	4823	
463.9	5857.9	
464.1	6132.3	
464.3	4228.4	
464.5	4435.2	
464.7	6324.8	
464.9	5976.7	
465.1	5347.2	
465.3	4687.8	
465.5	6558.3	
465.7	6506.4	
465.9	4846.9	
466.1	4764.9	
466.3	6352.1	
466.5	6250.4	
466.7	5279	
466.9	4552.6	
467.1	6302.3	
467.3	6902.3	
467.5	5274.9	
467.7	4441.4	
467.9	7077.1	
468.1	7594.6	
468.3	5040.7	
468.5	5339.1	
468.7	6138.4	
468.9	6152.1	
469.1	4632.5	
469.3	5171.1	
469.5	7598.6	
469.7	5848.3	
469.9	5113.8	
470.1	4448.2	
470.3	6290	
470.5	6236.7	
470.7	5393	
470.9	4569.7	
471.1	6006	
471.3	6357.6	
471.5	4370.4	
471.69	5826.5	
471.89	5984.2	
472.09	5603.9	
472.29	4992.9	
472.49	5345.9	
472.69	5727.5	
472.89	6369.9	
473.09	4394.9	
473.29	4517.8	
473.49	5896.8	
473.69	5936.4	
473.89	5167	
474.09	4607.2	
474.29	6921.5	
474.49	6653.2	
474.69	5197.1	
474.89	4693.9	
475.09	6015.6	
475.29	5990.3	
475.49	4339	
475.69	4439.3	
475.88	7230	
476.08	6356.9	
476.28	4231.8	
476.48	4571.1	
476.68	6701	
476.88	6443.6	
477.08	4527.4	
477.28	4676.9	
477.48	6172.6	
477.68	6611.5	
477.88	4270	
478.08	4604.5	
478.28	6834.1	
478.48	6283.2	
478.67	4585.4	
478.87	4220.9	
479.07	6595.8	
479.27	6288.6	
479.47	4786.1	
479.67	4769.7	
479.87	6527.6	
480.07	6911.2	
480.27	4182	
480.47	5390.3	
480.67	6321.4	
480.87	6732.4	
481.06	4409.3	
481.26	5077.6	
481.46	6259.3	
481.66	6151.4	
481.86	4752.7	
482.06	5536.3	
482.26	6026.5	
482.46	6681.8	
482.66	4764.3	
482.86	4364.9	
483.05	6322.8	
483.25	5794.4	
483.45	6630	
483.65	4693.9	
483.85	5924.1	
484.05	6152.1	
484.25	5012.7	
484.45	5260.5	
484.65	6781.5	
484.84	6730.3	
485.04	4683	
485.24	4615.4	
485.44	7053.2	
485.64	5710.4	
485.84	4120.5	
486.04	5126.1	
486.24	6029.9	
486.44	6277.7	
486.63	4016.7	
486.83	4661.9	
487.03	5922.7	
487.23	6077.7	
487.43	4201.1	
487.63	5858.6	
487.83	6094.1	
488.02	6731.7	
488.22	4776.5	
488.42	5253.7	
488.62	6797.2	
488.82	5899.5	
489.02	4576.5	
489.22	4582	
489.41	6646.3	
489.61	6414.2	
489.81	4368.3	
490.01	4333.5	
490.21	6612.9	
490.41	7148.8	
490.61	4367	
490.8	4468.7	
491	6186.9	
491.2	5827.8	
491.4	4967.7	
491.6	4308.2	
491.8	6307.1	
491.99	6277	
492.19	4152.6	
492.39	4452.3	
492.59	6613.6	
492.79	6714.6	
492.99	5014.8	
493.18	4341	
493.38	6776.7	
493.58	7245.7	
493.78	4833.2	
493.98	4532.8	
494.18	6432.7	
494.37	5988.9	
494.57	5029.1	
494.77	4797.7	
494.97	6595.8	
495.17	6729.6	
495.37	4584.7	
495.56	4846.2	
495.76	6905.8	
495.96	6604	
496.16	5574.6	
496.36	4668.7	
496.55	6763.8	
496.75	6350.8	
496.95	4966.3	
497.15	4833.9	
497.35	6782.2	
497.54	6588.3	
497.74	4720.6	
497.94	6138.4	
498.14	7221.1	
498.34	7044.3	
498.53	4481.6	
498.73	5071.5	
498.93	6105.7	
499.13	6662	
499.33	4903.5	
499.52	5319.3	
499.72	6646.3	
499.92	6832.7	
500.12	4683	
500.32	4948.6	
500.51	6827.2	
500.71	6599.2	
500.91	5438.7	
501.11	5149.3	
501.31	6723.5	
501.5	7051.2	
501.7	5676.3	
501.9	4907.6	
502.1	6619	
502.29	6928.3	
502.49	5226.4	
502.69	5594.4	
502.89	6849.1	
503.09	6813.6	
503.28	4536.3	
503.48	4703.5	
503.68	6324.1	
503.88	6201.9	
504.07	5386.2	
504.27	4993.6	
504.47	6533.7	
504.67	6668.9	
504.86	5362.9	
505.06	5099.4	
505.26	6460.7	
505.46	7587	
505.65	4972.5	
505.85	5184.1	
506.05	6361	
506.25	6736.5	
506.44	4555.4	
506.64	5259.9	
506.84	6237.4	
507.04	6887.3	
507.23	4717.8	
507.43	5126.1	
507.63	7731.1	
507.83	6406	
508.02	5142.4	
508.22	4864.6	
508.42	7955.7	
508.62	6195.1	
508.81	4987.5	
509.01	5502.2	
509.21	6164.4	
509.4	6379.4	
509.6	5191.6	
509.8	4724	
510	6335.7	
510.19	7361.1	
510.39	4676.9	
510.59	4727.4	
510.79	6271.6	
510.98	7243	
511.18	4833.9	
511.38	4876.2	
511.57	6929.6	
511.77	6669.6	
511.97	5380.7	
512.17	4699.4	
512.36	6860.7	
512.56	6795.8	
512.76	4667.3	
512.95	4534.2	
513.15	7014.3	
513.35	5876.3	
513.55	5347.9	
513.74	4739.7	
513.94	6874.3	
514.14	6350.8	
514.33	5400.5	
514.53	5164.3	
514.73	6417	
514.92	6519.4	
515.12	4840.7	
515.32	4623.6	
515.51	6663.4	
515.71	6866.2	
515.91	5996.5	
516.11	4685.8	
516.3	7836.9	
516.5	6262	
516.7	5162.9	
516.89	5573.2	
517.09	6393.8	
517.29	6356.2	
517.48	5369.1	
517.68	4917.9	
517.88	6176.7	
518.07	6666.8	
518.27	5305.6	
518.47	4558.8	
518.66	7071.6	
518.86	6070.2	
519.06	4446.8	
519.25	4807.3	
519.45	6314.6	
519.65	7358.4	
519.84	5300.8	
520.04	5820.3	
520.24	7686.7	
520.43	6812.2	
520.63	5181.4	
520.83	4947.9	
521.02	6327.5	
521.22	6711.9	
521.42	5375.2	
521.61	5712.5	
521.81	6435.4	
522.01	6592.4	
522.2	5204.6	
522.4	5085.8	
522.6	6860	
522.79	5956.9	
522.99	5133.6	
523.18	4536.3	
523.38	6700.3	
523.58	6594.5	
523.77	5877.7	
523.97	4513	
524.17	7980.3	
524.36	7378.1	
524.56	5553.4	
524.76	5292	
524.95	6612.9	
525.15	6384.2	
525.34	5064.6	
525.54	5067.4	
525.74	6903.7	
525.93	6074.3	
526.13	5976.7	
526.33	5017.5	
526.52	7163.1	
526.72	6695.5	
526.91	5969.8	
527.11	5362.3	
527.31	7118.1	
527.5	7464.2	
527.7	5310.4	
527.89	4663.2	
528.09	6337.1	
528.29	6693.4	
528.48	5646.2	
528.68	5389.6	
528.87	7126.2	
529.07	7070.3	
529.27	5361.6	
529.46	4939.7	
529.66	6783.6	
529.85	7057.3	
530.05	4891.2	
530.25	5413.5	
530.44	7880.6	
530.64	6709.8	
530.83	5153.4	
531.03	5388.9	
531.23	7086	
531.42	6842.9	
531.62	5816.9	
531.81	5248.9	
532.01	7163.1	
532.21	7390.4	
532.4	5012.1	
532.6	5252.4	
532.79	7758.4	
532.99	7124.9	
533.18	5353.4	
533.38	6112.5	
533.58	6783.6	
533.77	7275.8	
533.97	5269.4	
534.16	5919.3	
534.36	7528.3	
534.55	6748.7	
534.75	5967.8	
534.95	5354.1	
535.14	7416.4	
535.34	6724.8	
535.53	5143.1	
535.73	6518	
535.92	7808.2	
536.12	6908.5	
536.31	5246.2	
536.51	6068.1	
536.71	7206.8	
536.9	6896.9	
537.1	5286.5	
537.29	5416.9	
537.49	7490.8	
537.68	6726.2	
537.88	5777.3	
538.07	5046.9	
538.27	6977.4	
538.46	7750.2	
538.66	5053	
538.86	5335.6	
539.05	7043	
539.25	7329	
539.44	5564.3	
539.64	5267.4	
539.83	6909.8	
540.03	7626.6	
540.22	5141.8	
540.42	5317.9	
540.61	7087.3	
540.81	7122.8	
541	5673.6	
541.2	6098.9	
541.39	6693.4	
541.59	6965.8	
541.78	5866.1	
541.98	5217.5	
542.18	6546	
542.37	6521.4	
542.57	5521.3	
542.76	5955.5	
542.96	6602	
543.15	7150.8	
543.35	5556.1	
543.54	5083.7	
543.74	7225.9	
543.93	7034.8	
544.13	5530.9	
544.32	6391.7	
544.52	7305.1	
544.71	6637.5	
544.91	4868	
545.1	5816.2	
545.3	6718.7	
545.49	7139.9	
545.69	4810.7	
545.88	5274.9	
546.08	7939.3	
546.27	7610.3	
546.47	5720	
546.66	5141.1	
546.86	7330.4	
547.05	7813	
547.24	5332.9	
547.44	5182.7	
547.63	6692.8	
547.83	7402.7	
548.02	5502.2	
548.22	5607.3	
548.41	6480.5	
548.61	7469.6	
548.8	5136.3	
549	5094	
549.19	7064.1	
549.39	7289.4	
549.58	4874.2	
549.78	5356.8	
549.97	7272.3	
550.17	6876.4	
550.36	6048.3	
550.55	6764.4	
550.75	6916.7	
550.94	7632.8	
551.14	5135.6	
551.33	5438.7	
551.53	6375.3	
551.72	7058	
551.92	5532.2	
552.11	5248.3	
552.31	7241.6	
552.5	7154.2	
552.69	6489.3	
552.89	4917.9	
553.08	7176.1	
553.28	6844.3	
553.47	5357.5	
553.67	6113.2	
553.86	7635.5	
554.06	6303	
554.25	4755.4	
554.44	5162.9	
554.64	8247.2	
554.83	7846.5	
555.03	5118.6	
555.22	5363.6	
555.42	7318.8	
555.61	7134.4	
555.8	5281	
556	5534.3	
556.19	6503.7	
556.39	7406.1	
556.58	5285.8	
556.78	5346.6	
556.97	7111.2	
557.16	6802	
557.36	6272.2	
557.55	5031.9	
557.75	6331.6	
557.94	7604.8	
558.13	5185.5	
558.33	4903.5	
558.52	7393.2	
558.72	6569.9	
558.91	5103.5	
559.1	5226.4	
559.3	6413.6	
559.49	6214.9	
559.69	4747.9	
559.88	5467.4	
560.07	6980.2	
560.27	7348.1	
560.46	5639.4	
560.66	5726.8	
560.85	6922.8	
561.04	6254.5	
561.24	5009.3	
561.43	5186.1	
561.63	6412.2	
561.82	6708.5	
562.01	6044.9	
562.21	5400.5	
562.4	7077.8	
562.59	7755	
562.79	5338.4	
562.98	5075.5	
563.18	6954.2	
563.37	7993.9	
563.56	5662	
563.76	4982	
563.95	6506.4	
564.14	6463.4	
564.34	5363.6	
564.53	5133.6	
564.73	6982.2	
564.92	7133.1	
565.11	5386.8	
565.31	4877.6	
565.5	7425.9	
565.69	6493.4	
565.89	5141.8	
566.08	5276.3	
566.27	7189.7	
566.47	7546.8	
566.66	5816.2	
566.85	4868	
567.05	6981.5	
567.24	6513.2	
567.44	4988.9	
567.63	6072.9	
567.82	7090.1	
568.02	6916.7	
568.21	5003.2	
568.4	5382.7	
568.6	6867.5	
568.79	6768.5	
568.98	4922	
569.18	5003.9	
569.37	6834.1	
569.56	8207.6	
569.76	5335	
569.95	6028.5	
570.14	7129	
570.34	6939.2	
570.53	4948.6	
570.72	4982.7	
570.91	7457.3	
571.11	6784.9	
571.3	5358.9	
571.49	5975.3	
571.69	6907.1	
571.88	6451.1	
572.07	5695.4	
572.27	5703.6	
572.46	6494.1	
572.65	7243	
572.85	5134.3	
573.04	5415.5	
573.23	7514.7	
573.43	6936.5	
573.62	4992.3	
573.81	5392.3	
574	7006.1	
574.2	6761	
574.39	5232.6	
574.58	5355.4	
574.78	7521.5	
574.97	6875.7	
575.16	5571.2	
575.36	5642.2	
575.55	7266.2	
575.74	7321.5	
575.93	4945.8	
576.13	5746.6	
576.32	6787	
576.51	7231.4	
576.71	5228.5	
576.9	6296.8	
577.09	7519.5	
577.28	7126.9	
577.48	5702.2	
577.67	4811.4	
577.86	6839.5	
578.05	7045.7	
578.25	5334.3	
578.44	5407.3	
578.63	6929.6	
578.83	7803.4	
579.02	4928.1	
579.21	6100.9	
579.4	7081.9	
579.6	6763.1	
579.79	5468.1	
579.98	7070.3	
580.17	7273	
580.37	7390.4	
580.56	5091.9	
580.75	5678.3	
580.94	7556.3	
581.14	7656	
581.33	5922	
581.52	5191.6	
581.71	7161.7	
581.91	7722.9	
582.1	4973.2	
582.29	5421	
582.48	6971.3	
582.68	6951.5	
582.87	5780.7	
583.06	5474.2	
583.25	7209.5	
583.45	7075	
583.64	5984.8	
583.83	6459.3	
584.02	6882.5	
584.21	7200.7	
584.41	5928.9	
584.6	5441.5	
584.79	6949.4	
584.98	7501	
585.18	5061.2	
585.37	5039.4	
585.56	6768.5	
585.75	7230.7	
585.94	5314.5	
586.14	5827.8	
586.33	7731.1	
586.52	6972	
586.71	5575.3	
586.91	5390.3	
587.1	6564.4	
587.29	7349.5	
587.48	5351.3	
587.67	5304.2	
587.87	7149.5	
588.06	7136.5	
588.25	6299.6	
588.44	5797.1	
588.63	6865.5	
588.83	7443	
589.02	5429.2	
589.21	5269.4	
589.4	6912.6	
589.59	6808.8	
589.78	4784.7	
589.98	4952.7	
590.17	6513.2	
590.36	6845.7	
590.55	4614.1	
590.74	5154.7	
590.94	7847.1	
591.13	6840.9	
591.32	5025	
591.51	4749.9	
591.7	7075.7	
591.89	6764.4	
592.09	4745.1	
592.28	5131.5	
592.47	6224.5	
592.66	7642.3	
592.85	4778.6	
593.05	4870.1	
593.24	6698.9	
593.43	7265.5	
593.62	4971.1	
593.81	5298.1	
594	6757.6	
594.19	6804	
594.39	4947.2	
594.58	4756.1	
594.77	6946.7	
594.96	7373.4	
595.15	4889.9	
595.34	5246.9	
595.54	7006.1	
595.73	6277.7	
595.92	4412	
596.11	5270.1	
596.3	7324.9	
596.49	6385.6	
596.68	5165.7	
596.88	5421.7	
597.07	7101	
597.26	6223.1	
597.45	4812.7	
597.64	5667.4	
597.83	6442.9	
598.02	6861.4	
598.22	4782.7	
598.41	5231.9	
598.6	6720.8	
598.79	6365.1	
598.98	4853.7	
599.17	5485.1	
599.36	6808.1	
599.55	7591.1	
599.74	6345.3	
599.94	6156.2	
600.13	7221.1	
600.32	6311.8	
600.51	4616.8	
600.7	4748.6	
600.89	7640.3	
601.08	7710.6	
601.27	4620.2	
601.47	5302.2	
601.66	7104.4	
601.85	7551.5	
602.04	5096.7	
602.23	5152.7	
602.42	6472.3	
602.61	6941.9	
602.8	5057.8	
602.99	4917.2	
603.18	6679.1	
603.37	6836.8	
603.57	5411.4	
603.76	5811.5	
603.95	7435.5	
604.14	7079.8	
604.33	4927.4	
604.52	5265.3	
604.71	6861.4	
604.9	6505.7	
605.09	5641.5	
605.28	5495.4	
605.47	7350.2	
605.66	6962.4	
605.86	5392.3	
606.05	4988.9	
606.24	7280.5	
606.43	6133.7	
606.62	5210.7	
606.81	5824.4	
607	7152.9	
607.19	6599.2	
607.38	4825.7	
607.57	4992.3	
607.76	6447	
607.95	6075.6	
608.14	5347.2	
608.33	5664	
608.52	6453.1	
608.72	7111.9	
608.91	4722.6	
609.1	4655.7	
609.29	6648.4	
609.48	6296.1	
609.67	5339.1	
609.86	4698	
610.05	6302.3	
610.24	6514.6	
610.43	4623.6	
610.62	4422.9	
610.81	7379.5	
611	7190.4	
611.19	4749.2	
611.38	5337	
611.57	6804	
611.76	7774.1	
611.95	4612.7	
612.14	4444.1	
612.33	6627.2	
612.52	6269.5	
612.71	5001.8	
612.9	4435.2	
613.09	5961.6	
613.28	7729.7	
613.47	4960.2	
613.66	5515.2	
613.85	6759.7	
614.04	6292	
614.24	4848.9	
614.43	4287.1	
614.62	6870.9	
614.81	6763.8	
615	5249.6	
615.19	5218.2	
615.38	6291.4	
615.57	6571.2	
615.76	5173.2	
615.95	5853.8	
616.14	6850.5	
616.33	6587	
616.52	5374.6	
616.71	5539.8	
616.9	6858.6	
617.09	6689.3	
617.28	4924.7	
617.47	5794.4	
617.66	6161	
617.85	6102.9	
618.04	5571.8	
618.22	5181.4	
618.41	6434.7	
618.6	7041.6	
618.79	5085.1	
618.98	4928.8	
619.17	7296.2	
619.36	6045.6	
619.55	5016.8	
619.74	5037.3	
619.93	6792.4	
620.12	6249	
620.31	5401.9	
620.5	5463.3	
620.69	7156.3	
620.88	7507.9	
621.07	6047	
621.26	5325.4	
621.45	6902.3	
621.64	6836.1	
621.83	5418.9	
622.02	4851.6	
622.21	6898.9	
622.4	6746	
622.59	5870.2	
622.78	5685.8	
622.97	6442.2	
623.16	7202	
623.35	5421.7	
623.54	4764.9	
623.72	6585.6	
623.91	6685.3	
624.1	5569.8	
624.29	4655.7	
624.48	7488.1	
624.67	7011.6	
624.86	5542.5	
625.05	4799.8	
625.24	7692.9	
625.43	6489.3	
625.62	6827.2	
625.81	4949.9	
626	7125.6	
626.19	6612.9	
626.38	5487.9	
626.56	5111	
626.75	6511.2	
626.94	6960.4	
627.13	5570.5	
627.32	4625	
627.51	6969.9	
627.7	7738.6	
627.89	4520.5	
628.08	5538.4	
628.27	6424.5	
628.46	6594.5	
628.65	4920.6	
628.83	4584.7	
629.02	6964.5	
629.21	6361.7	
629.4	5302.2	
629.59	5393	
629.78	6285.9	
629.97	7169.9	
630.16	5399.1	
630.35	5070.8	
630.54	7477.8	
630.72	7217.7	
630.91	5034.6	
631.1	5493.3	
631.29	6837.5	
631.48	6903.7	
631.67	5599.8	
631.86	5100.1	
632.05	6627.2	
632.24	6588.3	
632.42	4898.1	
632.61	5347.2	
632.8	6635.4	
632.99	6340.5	
633.18	5361.6	
633.37	5637.4	
633.56	6874.3	
633.75	6810.9	
633.93	5292.6	
634.12	5127.4	
634.31	7488.7	
634.5	7081.2	
634.69	5122	
634.88	5487.9	
635.07	6745.3	
635.25	7140.6	
635.44	5814.2	
635.63	6010.8	
635.82	6608.8	
636.01	6066.1	
636.2	5705.6	
636.39	5452.4	
636.57	7460.1	
636.76	7116	
636.95	5007.3	
637.14	5999.9	
637.33	6921.5	
637.52	7506.5	
637.7	4785.4	
637.89	5606.7	
638.08	6561.7	
638.27	7697.6	
638.46	5674.9	
638.65	5944.6	
638.83	7671	
639.02	6503	
639.21	5513.1	
639.4	5896.8	
639.59	6890.7	
639.78	6539.2	
639.96	5003.2	
640.15	5135.6	
640.34	6771.3	
640.53	6867.5	
640.72	4847.5	
640.91	5096.7	
641.09	6380.8	
641.28	7306.5	
641.47	5038.7	
641.66	5651	
641.85	6784.2	
642.03	7043	
642.22	5547.9	
642.41	5191.6	
642.6	6406.7	
642.79	5963	
642.97	4982	
643.16	5561.6	
643.35	6393.8	
643.54	6277	
643.73	4961.5	
643.91	5552	
644.1	6215.6	
644.29	6578.1	
644.48	5042.8	
644.67	5030.5	
644.85	6268.1	
645.04	6604	
645.23	4709.6	
645.42	4930.1	
645.6	6258.6	
645.79	7124.9	
645.98	4909	
646.17	4253.6	
646.36	6064.7	
646.54	6511.2	
646.73	5516.5	
646.92	4640.7	
647.11	6228.6	
647.29	6961	
647.48	4737.6	
647.67	4575.8	
647.86	7174.7	
648.05	7117.4	
648.23	5027.8	
648.42	5831.2	
648.61	6670.2	
648.8	6481.8	
648.98	4724.7	
649.17	4943.8	
649.36	6235.4	
649.55	5857.9	
649.73	4758.1	
649.92	5260.5	
650.11	6063.4	
650.3	6406	
650.48	4841.4	
650.67	4594.3	
650.86	6559.6	
651.05	5834.7	
651.23	4858.5	
651.42	4759.5	
651.61	6210.8	
651.79	6197.8	
651.98	4913.8	
652.17	4660.5	
652.36	6615.6	
652.54	5848.3	
652.73	4666	
652.92	4596.3	
653.11	6581.5	
653.29	6646.3	
653.48	4232.5	
653.67	4919.2	
653.85	6348	
654.04	7216.4	
654.23	5085.8	
654.42	4670.1	
654.6	6081.8	
654.79	6556.9	
654.98	4401.8	
655.16	4792.2	
655.35	5825.1	
655.54	5625.1	
655.73	4447.5	
655.91	4324.6	
656.1	6579.4	
656.29	5622.4	
656.47	4077.5	
656.66	5352	
656.85	5897.5	
657.03	5920	
657.22	4468	
657.41	4502.8	
657.59	5937.1	
657.78	5750.7	
657.97	4246.8	
658.16	4794.3	
658.34	6450.4	
658.53	6817	
658.72	5478.3	
658.9	5864.7	
659.09	6133	
659.28	6120	
659.46	4565.6	
659.65	4474.1	
659.84	5905	
660.02	6406.7	
660.21	4524.6	
660.4	4437.9	
660.58	6584.9	
660.77	6098.2	
660.96	4902.8	
661.14	4187.4	
661.33	6975.4	
661.52	6922.8	
661.7	4192.9	
661.89	6824.5	
662.08	5939.1	
662.26	5491.3	
662.45	4399.7	
662.64	4478.9	
662.82	6464.1	
663.01	5781.4	
663.2	4487.1	
663.38	5063.3	
663.57	6303	
663.75	6260.6	
663.94	4670.7	
664.13	5640.8	
664.31	5864	
664.5	6340.5	
664.69	4887.8	
664.87	5301.5	
665.06	5645.6	
665.25	6131.6	
665.43	5484.5	
665.62	5583.4	
665.8	6425.2	
665.99	5952.8	
666.18	4671.4	
666.36	4806.6	
666.55	6505	
666.74	6359.6	
666.92	4553.3	
667.11	5732.9	
667.29	6012.8	
667.48	6427.2	
667.67	5351.3	
667.85	4671.4	
668.04	5976.7	
668.22	5913.2	
668.41	4758.8	
668.6	5011.4	
668.78	5771.9	
668.97	6023.8	
669.15	5028.4	
669.34	4265.9	
669.53	5816.2	
669.71	6104.3	
669.9	4399.7	
670.08	4896	
670.27	5760.9	
670.46	6320	
670.64	5098.8	
670.83	5231.9	
671.01	5653.8	
671.2	6204	
671.38	4521.9	
671.57	4385.4	
671.76	6709.1	
671.94	7147.4	
672.13	4358.1	
672.31	5137.7	
672.5	6374.6	
672.69	5816.2	
672.87	4455	
673.06	4747.2	
673.24	6255.2	
673.43	5906.3	
673.61	5042.8	
673.8	4666	
673.98	6337.8	
674.17	6524.1	
674.36	5225.7	
674.54	5005.2	
674.73	6130.9	
674.91	6465.4	
675.1	4728.8	
675.28	4519.9	
675.47	6029.9	
675.65	6447	
675.84	4687.1	
676.03	4935.6	
676.21	5939.8	
676.4	5518.6	
676.58	5302.9	
676.77	5079	
676.95	7058.7	
677.14	5907.7	
677.32	4401.1	
677.51	4287.1	
677.69	6480.5	
677.88	5665.4	
678.06	4421.6	
678.25	4514.4	
678.44	6006.7	
678.62	5838.1	
678.81	4264.6	
678.99	4975.2	
679.18	6554.2	
679.36	6300.9	
679.55	4668.7	
679.73	5130.8	
679.92	6328.9	
680.1	5835.3	
680.29	5562.3	
680.47	4665.3	
680.66	5898.8	
680.84	6469.5	
681.03	4216.8	
681.21	5075.5	
681.4	5869.5	
681.58	5754.8	
681.77	4475.5	
681.95	4408.6	
682.14	6525.5	
682.32	6741.2	
682.51	5156.8	
682.69	4247.5	
682.88	5832.6	
683.06	6244.9	
683.25	5010.7	
683.43	5232.6	
683.62	6092	
683.8	6337.1	
683.99	5423.7	
684.17	4843.4	
684.36	6993.8	
684.54	6019	
684.73	4326.7	
684.91	4430.4	
685.1	6244.9	
685.28	5732.9	
685.46	4859.8	
685.65	4894.6	
685.83	6355.5	
686.02	5909.1	
686.2	4467.3	
686.39	4579.9	
686.57	5782.1	
686.76	6785.6	
686.94	4375.1	
687.13	4602.5	
687.31	6203.3	
687.5	5978	
687.68	4120.5	
687.86	4995.7	
688.05	7261.4	
688.23	5525.4	
688.42	5060.5	
688.6	4510.3	
688.79	5842.2	
688.97	5780.1	
689.16	4791.6	
689.34	3995.6	
689.52	6339.1	
689.71	6626.5	
689.89	4998.4	
690.08	4491.9	
690.26	6126.8	
690.45	5905	
690.63	5083.7	
690.81	4659.8	
691	5982.8	
691.18	5795.1	
691.37	4782	
691.55	6346	
691.74	5765	
691.92	7240.3	
692.1	4744.5	
692.29	4334.2	
692.47	5965.7	
692.66	5528.8	
692.84	4428.4	
693.02	4835.3	
693.21	5472.9	
693.39	5907	
693.58	4943.8	
693.76	4502.1	
693.94	6772.6	
694.13	6636.8	
694.31	4508.9	
694.5	5248.3	
694.68	5842.2	
694.86	6049.7	
695.05	4788.8	
695.23	5100.1	
695.42	6379.4	
695.6	8042.4	
695.78	5295.4	
695.97	4502.1	
696.15	6460	
696.34	5819	
696.52	4384	
696.7	5046.2	
696.89	6234	
697.07	5677.7	
697.25	4982.7	
697.44	6019.7	
697.62	6227.2	
697.81	6405.4	
697.99	4741.7	
698.17	5044.1	
698.36	5725.4	
698.54	6170.5	
698.72	4950.6	
698.91	4214.7	
699.09	5902.9	
699.28	5729.5	
699.46	4714.4	
699.64	4649.6	
699.83	5728.9	
700.01	6610.8	
700.19	5236	
700.38	4031.1	
700.56	6631.3	
700.74	5758.2	
700.93	4289.1	
701.11	4934.9	
701.29	6255.2	
701.48	6991.1	
701.66	4489.1	
701.84	4546.5	
702.03	5958.9	
702.21	6480.5	
702.39	4214	
702.58	4670.1	
702.76	6215.6	
702.94	6240.8	
703.13	4181.3	
703.31	5953.4	
703.49	5754.8	
703.68	6773.3	
703.86	4371.7	
704.04	5147.9	
704.23	6127.5	
704.41	6450.4	
704.59	4469.4	
704.78	5356.1	
704.96	7253.2	
705.14	6343.2	
705.33	4311.7	
705.51	4953.4	
705.69	5899.5	
705.87	6548.7	
706.06	5094.7	
706.24	4328.7	
706.42	6148	
706.61	6421.1	
706.79	5089.9	
706.97	4272.7	
707.16	5762.3	
707.34	6165.1	
707.52	5085.8	
707.7	4461.8	
707.89	5808	
708.07	5633.3	
708.25	5110.4	
708.44	5231.9	
708.62	5767.1	
708.8	6679.1	
708.98	5403.2	
709.17	4579.3	
709.35	6096.1	
709.53	6122.7	
709.72	4331.5	
709.9	4631.1	
710.08	6353.5	
710.26	6374.6	
710.45	5646.9	
710.63	4609.3	
710.81	6026.5	
710.99	6025.1	
711.18	5061.2	
711.36	4688.5	
711.54	5870.8	
711.72	6562.4	
711.91	4751.3	
712.09	4327.4	
712.27	6032	
712.45	6582.2	
712.64	4914.4	
712.82	4166.3	
713	5682.4	
713.18	5879.7	
713.37	4316.4	
713.55	5238	
713.73	6436.1	
713.91	5488.6	
714.1	4582.7	
714.28	4178.5	
714.46	6210.8	
714.64	5662.6	
714.83	3819.5	
715.01	4351.3	
715.19	5756.2	
715.37	5173.9	
715.55	4205.2	
715.74	4366.3	
715.92	6290	
716.1	4814.1	
716.28	5279.7	
716.47	4440.7	
716.65	5478.3	
716.83	5423.7	
717.01	4354.7	
717.19	4415.4	
717.38	6959	
717.56	5176.6	
717.74	4524.6	
717.92	3889.8	
718.1	6102.9	
718.29	5486.5	
718.47	3583.9	
718.65	4092.5	
718.83	6026.5	
719.01	5885.2	
719.2	3562.1	
719.38	4354	
719.56	5745.2	
719.74	6851.8	
719.92	4014	
720.11	4879.6	
720.29	5807.4	
720.47	5130.8	
720.65	3695.2	
720.83	4387.4	
721.02	5436	
721.2	5224.4	
721.38	4445.5	
721.56	3791.5	
721.74	4896.7	
721.92	4986.8	
722.11	4769.7	
722.29	4532.8	
722.47	5911.1	
722.65	5350.7	
722.83	3902.1	
723.01	4517.8	
723.2	5367	
723.38	5579.3	
723.56	3475.4	
723.74	4291.2	
723.92	4990.2	
724.1	5886.5	
724.29	3758	
724.47	4691.2	
724.65	5085.8	
724.83	4906.3	
725.01	3741	
725.19	4390.2	
725.37	5055.8	
725.56	5003.9	
725.74	3622.9	
725.92	3838.6	
726.1	4973.8	
726.28	5169.1	
726.46	4149.2	
726.64	3857	
726.83	5278.3	
727.01	5402.5	
727.19	3615.3	
727.37	4164.9	
727.55	5363.6	
727.73	5698.8	
727.91	3602.4	
728.09	3466.5	
728.28	5737	
728.46	5993.7	
728.64	4283	
728.82	4231.8	
729	6468.2	
729.18	5955.5	
729.36	3541.6	
729.54	5379.3	
729.72	6627.9	
729.91	5362.3	
730.09	5150	
730.27	4134.2	
730.45	5279	
730.63	5803.3	
730.81	4554.7	
730.99	3837.9	
731.17	6170.5	
731.35	5075.5	
731.53	4229.7	
731.71	3936.9	
731.9	5925.5	
732.08	6064	
732.26	4186.7	
732.44	3916.4	
732.62	6109.8	
732.8	5735.7	
732.98	4414.7	
733.16	3713.6	
733.34	5765.7	
733.52	4683.7	
733.7	4149.9	
733.88	4340.3	
734.07	5569.1	
734.25	5374.6	
734.43	3709.6	
734.61	4911	
734.79	6473.6	
734.97	5290.6	
735.15	3757.3	
735.33	4102.8	
735.51	5524.7	
735.69	5300.8	
735.87	5036.6	
736.05	4249.5	
736.23	5462.6	
736.41	5171.1	
736.59	4098	
736.77	4196.3	
736.95	5885.2	
737.13	5301.5	
737.32	3833.8	
737.5	3942.3	
737.68	6105.7	
737.86	5208.7	
738.04	3635.8	
738.22	5093.3	
738.4	5065.3	
738.58	5375.9	
738.76	4139.6	
738.94	3392.1	
739.12	5233.9	
739.3	5134.9	
739.48	4568.3	
739.66	4366.3	
739.84	5354.8	
740.02	5339.7	
740.2	3447.4	
740.38	3675.4	
740.56	5635.3	
740.74	4816.1	
740.92	4235.2	
741.1	4154	
741.28	5263.3	
741.46	5029.1	
741.64	3846.1	
741.82	4276.2	
742	5241.4	
742.18	5281	
742.36	4022.2	
742.54	3740.3	
742.72	5729.5	
742.9	4711	
743.08	4255	
743.26	3351.2	
743.44	5825.8	
743.62	5724.8	
743.8	4420.2	
743.98	3728	
744.16	5489.2	
744.34	5210.7	
744.52	4293.9	
744.7	4298	
744.88	5603.2	
745.06	5251.7	
745.24	4371	
745.42	4450.2	
745.6	5701.5	
745.78	5561.6	
745.96	3478.8	
746.14	3756	
746.32	6217	
746.5	5640.8	
746.68	4171.7	
746.86	3670	
747.03	5937.7	
747.21	4717.8	
747.39	4149.9	
747.57	3708.9	
747.75	5340.4	
747.93	5644.2	
748.11	3683.6	
748.29	3649.5	
748.47	6641.6	
748.65	5142.4	
748.83	4255.7	
749.01	4020.2	
749.19	5504.9	
749.37	4807.3	
749.55	3949.8	
749.73	4044.7	
749.91	5300.8	
750.09	5091.3	
750.26	4064.5	
750.44	3547.8	
750.62	5264	
750.8	5241.4	
750.98	3464.5	
751.16	3779.9	
751.34	5345.9	
751.52	4831.8	
751.7	4343.7	
751.88	3420.8	
752.06	5741.8	
752.24	5519.3	
752.42	3454.9	
752.59	3725.9	
752.77	5205.3	
752.95	6157.6	
753.13	4229.1	
753.31	3807.2	
753.49	4991.6	
753.67	5328.8	
753.85	4130.8	
754.03	3686.3	
754.21	5612.1	
754.38	5776	
754.56	3819.5	
754.74	3111.5	
754.92	4987.5	
755.1	5465.3	
755.28	3178.4	
755.46	3208.5	
755.64	6199.9	
755.82	6281.8	
755.99	3473.4	
756.17	3575.8	
756.35	4379.2	
756.53	5529.5	
756.71	2755.9	
756.89	3431	
757.07	5236	
757.25	4592.2	
757.42	3857.7	
757.6	4482.3	
757.78	5234.6	
757.96	4460.5	
758.14	3560.7	
758.32	3190.7	
758.5	4157.4	
758.67	4828.4	
758.85	3441.3	
759.03	3566.2	
759.21	4952.7	
759.39	4496	
759.57	3119.1	
759.75	4018.8	
759.92	5518.6	
760.1	4946.5	
760.28	4270	
760.46	4488.5	
760.64	4701.5	
760.82	4575.8	
760.99	4124.6	
761.17	3456.3	
761.35	5344.5	
761.53	4473.4	
761.71	3563.5	
761.89	4074.1	
762.06	5224.4	
762.24	4852.3	
762.42	3652.2	
762.6	3456.3	
762.78	4803.9	
762.96	5246.9	
763.13	3927.3	
763.31	3636.5	
763.49	5367.7	
763.67	4754.7	
763.85	4262.5	
764.02	4706.9	
764.2	5661.3	
764.38	4904.9	
764.56	3562.1	
764.74	4237.9	
764.91	5702.9	
765.09	4806.6	
765.27	3376.4	
765.45	3231	
765.63	5816.9	
765.8	5627.1	
765.98	3062.4	
766.16	3221.5	
766.34	4560.1	
766.52	4367.6	
766.69	3950.5	
766.87	3131.3	
767.05	4924.7	
767.23	5450.3	
767.41	3352.5	
767.58	3544.4	
767.76	5332.9	
767.94	5304.9	
768.12	3486.3	
768.29	3960.1	
768.47	4903.5	
768.65	5487.9	
768.83	3152.5	
769	4033.8	
769.18	4646.2	
769.36	5112.4	
769.54	4008.6	
769.72	3200.3	
769.89	5427.8	
770.07	5422.3	
770.25	3491.8	
770.43	4460.5	
770.6	6002.6	
770.78	6249	
770.96	3631	
771.14	4066.6	
771.31	5358.9	
771.49	4839.4	
771.67	3003	
771.85	3121.8	
772.02	4232.5	
772.2	4781.3	
772.38	3770.3	
772.55	3324.5	
772.73	5089.9	
772.91	4848.2	
773.09	3583.9	
773.26	3781.2	
773.44	5059.2	
773.62	4833.2	
773.8	3319.8	
773.97	3084.2	
774.15	5117.9	
774.33	4814.1	
774.5	3147	
774.68	3472	
774.86	5048.9	
775.04	4809.3	
775.21	3302.7	
775.39	3217.4	
775.57	5066.7	
775.74	5248.9	
775.92	3160	
776.1	3056.9	
776.27	5000.5	
776.45	5907	
776.63	3289.7	
776.81	2957.3	
776.98	4781.3	
777.16	5517.9	
777.34	3394.2	
777.51	3667.9	
777.69	4711.7	
777.87	4549.2	
778.04	3425.6	
778.22	3878.9	
778.4	4601.8	
778.57	5092.6	
778.75	2889	
778.93	3101.3	
779.1	4485.7	
779.28	4287.8	
779.46	2912.2	
779.64	3221.5	
779.81	5166.3	
779.99	5847	
780.17	3822.2	
780.34	3947.8	
780.52	4866	
780.69	4963.6	
780.87	3542.3	
781.05	3188.7	
781.22	4906.9	
781.4	4912.4	
781.58	3271.3	
781.75	2663.7	
781.93	4914.4	
782.11	4377.2	
782.28	3982.6	
782.46	3290.4	
782.64	4332.1	
782.81	5038	
782.99	3447.4	
783.17	3316.3	
783.34	4896.7	
783.52	4392.9	
783.69	3495.9	
783.87	4106.2	
784.05	4465.9	
784.22	4377.9	
784.4	4070.7	
784.58	3583.9	
784.75	5162.9	
784.93	4531.5	
785.1	3295.9	
785.28	3807.9	
785.46	4963.6	
785.63	4413.4	
785.81	3278.1	
785.99	3168.9	
786.16	4610	
786.34	4893.3	
786.51	3243.3	
786.69	3568.9	
786.87	4218.1	
787.04	4669.4	
787.22	3133.4	
787.39	3793.5	
787.57	4431.8	
787.75	5335.6	
787.92	4027.7	
788.1	3906.2	
788.27	4461.8	
788.45	4270.7	
788.63	3726.6	
788.8	2717.7	
788.98	4892.6	
789.15	4166.3	
789.33	2925.2	
789.5	3262.4	
789.68	5113.1	
789.86	5224.4	
790.03	3635.8	
790.21	3177.8	
790.38	5180.7	
790.56	4542.4	
790.73	3166.8	
790.91	3168.2	
791.09	4470	
791.26	5050.3	
791.44	3323.9	
791.61	2893.1	
791.79	4444.8	
791.96	4444.1	
792.14	3000.3	
792.32	2683.5	
792.49	4440	
792.67	4558.1	
792.84	3099.3	
793.02	2945.7	
793.19	5012.7	
793.37	5322.7	
793.54	2683.5	
793.72	2955.2	
793.89	5375.2	
794.07	4487.8	
794.25	3433.1	
794.42	2757.9	
794.6	5251	
794.77	4941.1	
794.95	3627	
795.12	3185.3	
795.3	4517.8	
795.47	4919.9	
795.65	3508.9	
795.82	3348.4	
796	4327.4	
796.17	5707.7	
796.35	3247.4	
796.52	3799	
796.7	4926	
796.87	4972.5	
797.05	3168.2	
797.22	3907.5	
797.4	4901.5	
797.57	5689.9	
797.75	3355.3	
797.92	3155.2	
798.1	5188.2	
798.27	4390.8	
798.45	2813.9	
798.62	2937.5	
798.8	4713.7	
798.97	5068.7	
799.15	3536.8	
799.32	3407.1	
799.5	4148.5	
799.67	4724.7	
799.85	3680.9	
800.02	2757.2	
800.2	4495.3	
800.37	4663.2	
800.55	3745.7	
800.72	3181.2	
800.9	5010.7	
801.07	5337.7	
801.25	4233.8	
801.42	3457	
801.6	5072.1	
801.77	4785.4	
801.95	3211.9	
802.12	3122.5	
802.29	4812	
802.47	4801.8	
802.64	3441.3	
802.82	2691	
802.99	4444.8	
803.17	5195	
803.34	3351.8	
803.52	3064.4	
803.69	5666	
803.87	4255	
804.04	3367.5	
804.21	3427.6	
804.39	5286.5	
804.56	4566.3	
804.74	2891.7	
804.91	3487.7	
805.09	4461.8	
805.26	4529.4	
805.44	3001.6	
805.61	3226.2	
805.78	4968.4	
805.96	4954	
806.13	3465.2	
806.31	3732.8	
806.48	4092.5	
806.66	4500.1	
806.83	3411.9	
807	3390.1	
807.18	4406.5	
807.35	4754	
807.53	3416.7	
807.7	2741.5	
807.87	5357.5	
808.05	4472.1	
808.22	3724.6	
808.4	2766.8	
808.57	4466.6	
808.74	4206.5	
808.92	3115	
809.09	3938.9	
809.27	4430.4	
809.44	4840	
809.61	2756.6	
809.79	3110.2	
809.96	5422.3	
810.14	5035.3	
810.31	2757.2	
810.48	3254.2	
810.66	4541.7	
810.83	5081.7	
811.01	3146.4	
811.18	3422.2	
811.35	5075.5	
811.53	3973.1	
811.7	3736.2	
811.87	3510.9	
812.05	4575.2	
812.22	4425.7	
812.39	3037.8	
812.57	2937.5	
812.74	4554.7	
812.92	5788.9	
813.09	3351.2	
813.26	3466.5	
813.44	5601.9	
813.61	4397.7	
813.78	2782.5	
813.96	3611.9	
814.13	4560.8	
814.3	4272.1	
814.48	3949.8	
814.65	3310.9	
814.82	5396.4	
815	4260.5	
815.17	3351.8	
815.34	4044.1	
815.52	4477.5	
815.69	4375.8	
815.87	3297.9	
816.04	3248.8	
816.21	4489.8	
816.38	4053.6	
816.56	3224.9	
816.73	3054.2	
816.9	5515.9	
817.08	5011.4	
817.25	3082.2	
817.42	3741.6	
817.6	4189.5	
817.77	4457.7	
817.94	3362.1	
818.12	2996.2	
818.29	4315.8	
818.46	6242.2	
818.64	3205.8	
818.81	2951.1	
818.98	4253.6	
819.16	5858.6	
819.33	3581.2	
819.5	3392.1	
819.67	4797	
819.85	5272.2	
820.02	3314.3	
820.19	3507.5	
820.37	4650.3	
820.54	4378.6	
820.71	3431	
820.88	4162.2	
821.06	4687.1	
821.23	4332.8	
821.4	3493.2	
821.58	3395.5	
821.75	5055.1	
821.92	4615.4	
822.09	2851.5	
822.27	2870.6	
822.44	4496.7	
822.61	4388.8	
822.79	2817.3	
822.96	5164.3	
823.13	4795	
823.3	4277.5	
823.48	3197.6	
823.65	2902.7	
823.82	5069.4	
823.99	4172.4	
824.17	4100	
824.34	2975.7	
824.51	5726.8	
824.68	4561.5	
824.86	3100.6	
825.03	3407.1	
825.2	4533.5	
825.37	5304.9	
825.55	3068.5	
825.72	3307.5	
825.89	5734.3	
826.06	5372.5	
826.24	3265.1	
826.41	3289	
826.58	5376.6	
826.75	4667.3	
826.92	2677.4	
827.1	2955.2	
827.27	7048.4	
827.44	5675.6	
827.61	3112.9	
827.79	3723.9	
827.96	4347.8	
828.13	4514.4	
828.3	3268.6	
828.47	2790.7	
828.65	4782.7	
828.82	4691.2	
828.99	4076.8	
829.16	3568.2	
829.34	5030.5	
829.51	4856.4	
829.68	3347.1	
829.85	3415.3	
830.02	5281	
830.2	5007.3	
830.37	2674	
830.54	3962.1	
830.71	5640.8	
830.88	4500.8	
831.05	2624.1	
831.23	3097.9	
831.4	5429.2	
831.57	5924.8	
831.74	3114.3	
831.91	2729.3	
832.09	4839.4	
832.26	5029.1	
832.43	3213.9	
832.6	3532.7	
832.77	4784.7	
832.94	5337.7	
833.12	2630.3	
833.29	3133.4	
833.46	4380.6	
833.63	6137.1	
833.8	3450.1	
833.97	3241.9	
834.15	5102.9	
834.32	4882.4	
834.49	3354.6	
834.66	3412.6	
834.83	5196.4	
835	4371	
835.17	3132	
835.35	3099.9	
835.52	4962.2	
835.69	4849.6	
835.86	3287.7	
836.03	2740.2	
836.2	4974.5	
836.37	4710.3	
836.55	3215.3	
836.72	3019.4	
836.89	4689.2	
837.06	5094.7	
837.23	3316.3	
837.4	3543.7	
837.57	5603.2	
837.75	6112.5	
837.92	2959.3	
838.09	3194.8	
838.26	4693.3	
838.43	5187.5	
838.6	3325.9	
838.77	3044.6	
838.94	5803.3	
839.11	5658.5	
839.29	3239.2	
839.46	2568.8	
839.63	5064.6	
839.8	4780	
839.97	3115	
840.14	3063.1	
840.31	4871.4	
840.48	5005.2	
840.65	2678.7	
840.82	3080.8	
841	5016.2	
841.17	4920.6	
841.34	2854.2	
841.51	2950.4	
841.68	4975.9	
841.85	4746.5	
842.02	2998.9	
842.19	2542.9	
842.36	4840.7	
842.53	4805.9	
842.7	2909.5	
842.87	3486.3	
843.05	6115.9	
843.22	4759.5	
843.39	2783.9	
843.56	2966.8	
843.73	4595	
843.9	5087.8	
844.07	4468.7	
844.24	3764.8	
844.41	6810.9	
844.58	4385.4	
844.75	2822.8	
844.92	3008.5	
845.09	5001.1	
845.26	4956.1	
845.43	2937.5	
845.6	3041.2	
845.77	5005.9	
845.94	4727.4	
846.12	3190.7	
846.29	3379.8	
846.46	5199.8	
846.63	4968.4	
846.8	2881.5	
846.97	3376.4	
847.14	5390.3	
847.31	4941.7	
847.48	3170.9	
847.65	3497.9	
847.82	5177.9	
847.99	5150	
848.16	3786	
848.33	3449.5	
848.5	4657.1	
848.67	5328.1	
848.84	2845.3	
849.01	3008.5	
849.18	4603.8	
849.35	4319.8	
849.52	3542.3	
849.69	2820.1	
849.86	5157.5	
850.03	5245.5	
850.2	2879.4	
850.37	3433.1	
850.54	5261.9	
850.71	4702.8	
850.88	3493.8	
851.05	2835.1	
851.22	4855.1	
851.39	5332.2	
851.56	2723.1	
851.73	3261.7	
851.9	4489.1	
852.07	5195.7	
852.24	3162.1	
852.41	2859	
852.58	4909.7	
852.75	4512.4	
852.92	3177.8	
853.09	2794.8	
853.26	4634.6	
853.43	5354.1	
853.6	2861.7	
853.77	2474.6	
853.94	5358.9	
854.11	4392.9	
854.28	4136.2	
854.44	3074	
854.61	5712.5	
854.78	5225.1	
854.95	2839.8	
855.12	3514.3	
855.29	4149.2	
855.46	5515.9	
855.63	2913.6	
855.8	3867.9	
855.97	4603.8	
856.14	5216.9	
856.31	4040	
856.48	3099.9	
856.65	4698	
856.82	4371	
856.99	2749.7	
857.16	3094.5	
857.33	5904.3	
857.49	4658.4	
857.66	3102	
857.83	3267.9	
858	4723.3	
858.17	4935.6	
858.34	2740.9	
858.51	2875.3	
858.68	5506.3	
858.85	5465.3	
859.02	3246.7	
859.19	3468.6	
859.36	4513.7	
859.52	4470	
859.69	2908.1	
859.86	3359.4	
860.03	4467.3	
860.2	5477.6	
860.37	2650.8	
860.54	2944.3	
860.71	5139.7	
860.88	5440.8	
861.05	3222.8	
861.21	3529.3	
861.38	5385.5	
861.55	4296.6	
861.72	2579.1	
861.89	3171.6	
862.06	5154.7	
862.23	5530.2	
862.4	2844.6	
862.56	2978.4	
862.73	5112.4	
862.9	4816.8	
863.07	3274	
863.24	2644.6	
863.41	4351.9	
863.58	4541.7	
863.75	2946.3	
863.91	3273.3	
864.08	5411.4	
864.25	5145.2	
864.42	3544.4	
864.59	3917.8	
864.76	5654.4	
864.93	4451.6	
865.09	2824.1	
865.26	3088.3	
865.43	5316.5	
865.6	5651	
865.77	2545.6	
865.94	2833.7	
866.1	5354.1	
866.27	5123.3	
866.44	4144.4	
866.61	2818	
866.78	4732.2	
866.95	5040.7	
867.11	2777	
867.28	2568.8	
867.45	5252.4	
867.62	4473.4	
867.79	3285.6	
867.96	2864.4	
868.12	4413.4	
868.29	5104.9	
868.46	2880.1	
868.63	3749.8	
868.8	5260.5	
868.97	5096.7	
869.13	2999.6	
869.3	2964.1	
869.47	4988.9	
869.64	5204.6	
869.81	2885.6	
869.97	2894.5	
870.14	4979.3	
870.31	5411.4	
870.48	2747	
870.65	3594.2	
870.81	4784.7	
870.98	4705.5	
871.15	3239.2	
871.32	2945.7	
871.48	5033.2	
871.65	5487.2	
871.82	2863.7	
871.99	3127.9	
872.16	5843.5	
872.32	5279.7	
872.49	2938.2	
872.66	2856.2	
872.83	5173.9	
872.99	4603.2	
873.16	3270.6	
873.33	2831.7	
873.5	4853	
873.67	4870.8	
873.83	3022.8	
874	3760.1	
874.17	4936.3	
874.34	5640.1	
874.5	3673.4	
874.67	3506.8	
874.84	5386.8	
875.01	4293.2	
875.17	3937.6	
875.34	2871.3	
875.51	4895.3	
875.68	5862.7	
875.84	3420.8	
876.01	4017.4	
876.18	5086.5	
876.34	5105.6	
876.51	2890.4	
876.68	2827.6	
876.85	4701.5	
877.01	5373.9	
877.18	3989.4	
877.35	2847.4	
877.52	4910.3	
877.68	4429.8	
877.85	2839.2	
878.02	2841.9	
878.18	4765.6	
878.35	4622.3	
878.52	2336	
878.69	3187.3	
878.85	5210	
879.02	5108.3	
879.19	3974.4	
879.35	3115.6	
879.52	5123.3	
879.69	5274.2	
879.86	2575	
880.02	3164.8	
880.19	4797	
880.36	5714.5	
880.52	3236.5	
880.69	3386.7	
880.86	5169.1	
881.02	5218.9	
881.19	3151.1	
881.36	3102.7	
881.52	5066	
881.69	4512.4	
881.86	3102	
882.02	2975.7	
882.19	5307.7	
882.36	6088.6	
882.52	2980.5	
882.69	4016.1	
882.86	4934.2	
883.02	4910.3	
883.19	3421.5	
883.36	3252.9	
883.52	5167.7	
883.69	5783.5	
883.86	2913.6	
884.02	2653.5	
884.19	5134.3	
884.36	4851	
884.52	3196.2	
884.69	3039.2	
884.86	4672.8	
885.02	5525.4	
885.19	3213.9	
885.36	3298.6	
885.52	4823	
885.69	4973.2	
885.86	4059.1	
886.02	3605.8	
886.19	5131.5	
886.35	4698.7	
886.52	3080.1	
886.69	3896.6	
886.85	4470.7	
887.02	5423	
887.19	5423	
887.35	5423	
887.52	5423	
887.68	5423	
887.85	5423	
888.02	5423	
888.18	5423	
888.35	5423	
888.51	5423	
888.68	5423	
888.85	5423	
889.01	5423	
889.18	5423	
889.35	5423	
889.51	5423	
889.68	5423	
889.84	5423	
890.01	5423	
890.17	5423	
890.34	5423	
890.51	5423	
890.67	5423	
890.84	5423	
891	5423	
891.17	5423	
891.34	5423	
891.5	5423	
891.67	5423	
891.83	5423	
892	5423	
892.16	5423	
892.33	5423	
892.5	5423	
892.66	5423	
892.83	5423	
892.99	5423	
893.16	5423	
893.32	5423	
893.49	5423	
893.65	5423	
893.82	5423	
893.99	5423	
894.15	5423	
894.32	5423	
894.48	5423	
894.65	5423	
894.81	5423	
894.98	5423	
895.14	5423	
895.31	5423	
895.47	5423	
895.64	5423	
895.81	5423	
895.97	5423	
896.14	5423	
896.3	5423	
896.47	5423	
896.63	5423	
896.8	5423	
896.96	5423	
897.13	5423	
897.29	5423	
897.46	5423	
897.62	5423	
897.79	5423	
897.95	5423	
898.12	5423	
898.28	5423	
898.45	5423	
898.61	5423	
898.78	5423	
898.94	5423	
899.11	5423	
899.27	5423	
899.44	5423	
899.6	5423	
899.77	5423	
899.93	5423	
900.1	5423	
900.26	5423	
900.43	5423	
900.59	5423	
900.76	5423	
900.92	5423	
901.09	5423	
901.25	5423	
901.42	5423	
901.58	5423	
901.75	5423	
901.91	5423	
902.07	5423	
902.24	5423	
902.4	5423	
902.57	5423	
902.73	5423	
902.9	5423	
903.06	5423	
903.23	5423	
903.39	5423	
903.56	5423	
903.72	5423	
903.88	5423	
904.05	5423	
904.21	5423	
904.38	5423	
904.54	5423	
904.71	5423	
904.87	5423	
905.03	5423	
905.2	5423	
905.36	5423	
905.53	5423	
905.69	5423	
905.86	5423	
906.02	5423	
906.18	5423	
906.35	5423	
906.51	5423	
906.68	5423	
906.84	5423	
907.01	5423	
907.17	5423	
907.33	5423	
907.5	5423	
907.66	5423	
907.83	5423	
907.99	5423	
908.15	5423	
908.32	5423	
908.48	5423	
908.65	5423	
908.81	5423	
908.97	5423	
909.14	5423	
909.3	5423	
909.47	5423	
909.63	5423	
909.79	5423	
909.96	5423	
910.12	5423	
910.28	5423	
910.45	5423	
910.61	5423	
910.78	5423	
910.94	5423	
911.1	5423	
911.27	5423	
911.43	5423	
911.59	5423	
911.76	5423	
911.92	5423	
912.08	5423	
912.25	5423	
912.41	5423	
912.57	5423	
912.74	5423	
912.9	5423	
913.07	5423	
913.23	5423	
913.39	5423	
913.56	5423	
913.72	5423	
913.88	5423	
914.05	5423	
914.21	5423	
914.37	5423	
914.54	5423	
914.7	5423	
914.86	5423	
915.03	5423	
915.19	5423	
