Wavelength	Intensities	
nm	a.u.	
179.22	1927.3	
179.44	1924.7	
179.65	1929.9	
179.86	1919.6	
180.08	1910.1	
180.29	5016.2	
180.51	3536.8	
180.72	5734.3	
180.94	6750.1	
181.15	3278.8	
181.37	3200.3	
181.58	5524.7	
181.79	5896.1	
182.01	3416	
182.22	3712.3	
182.44	5896.1	
182.65	4838.7	
182.87	4640	
183.08	4074.1	
183.29	6180.8	
183.51	5117.9	
183.72	3702	
183.94	5513.8	
184.15	5479	
184.37	5488.6	
184.58	3304.7	
184.79	4543.8	
185.01	5090.6	
185.22	5863.3	
185.44	4801.1	
185.65	4026.3	
185.86	5329.5	
186.08	4998.4	
186.29	3204.4	
186.51	3449.5	
186.72	5176.6	
186.94	6090.7	
187.15	4023.6	
187.36	4117.1	
187.58	7948.2	
187.79	5612.8	
188.01	4353.3	
188.22	6748.7	
188.43	6759	
188.65	5872.2	
188.86	3376.4	
189.08	4067.3	
189.29	5323.4	
189.5	5300.8	
189.72	3895.2	
189.93	3872	
190.15	6086.6	
190.36	7367.2	
190.57	4283	
190.79	4119.1	
191	6204	
191.22	6137.8	
191.43	4225.6	
191.64	3439.2	
191.86	6391.7	
192.07	6104.3	
192.29	3606.5	
192.5	3822.2	
192.71	6124.1	
192.93	5239.4	
193.14	3808.5	
193.35	3867.2	
193.57	5251	
193.78	6085.2	
194	3061	
194.21	3781.2	
194.42	5068.7	
194.64	5515.2	
194.85	4123.9	
195.07	4885.1	
195.28	5605.3	
195.49	4812.7	
195.71	5123.3	
195.92	3587.4	
196.13	5679.7	
196.35	5848.3	
196.56	5459.2	
196.78	4210.6	
196.99	7153.6	
197.2	6752.8	
197.42	4771.8	
197.63	4221.5	
197.84	4926.7	
198.06	5702.2	
198.27	3830.4	
198.48	5046.9	
198.7	5287.9	
198.91	5412.1	
199.13	4208.6	
199.34	4182	
199.55	5959.6	
199.77	4814.8	
199.98	3683.6	
200.19	4243.4	
200.41	5373.2	
200.62	5121.3	
200.83	4392.2	
201.05	4646.2	
201.26	5420.3	
201.47	5113.8	
201.69	3717.1	
201.9	3577.8	
202.11	5501.5	
202.33	6467.5	
202.54	3986	
202.76	4359.4	
202.97	5614.8	
203.18	5594.4	
203.4	4382	
203.61	4247.5	
203.82	5584.8	
204.04	5158.8	
204.25	4231.8	
204.46	4121.9	
204.68	5455.8	
204.89	5769.1	
205.1	4105.5	
205.32	3580.5	
205.53	5891.3	
205.74	6081.1	
205.96	2964.8	
206.17	4291.2	
206.38	5844.2	
206.6	6000.5	
206.81	4782.7	
207.02	3897.3	
207.24	5720.7	
207.45	6234.7	
207.66	3975.1	
207.88	3407.8	
208.09	5700.2	
208.3	5511.8	
208.52	3636.5	
208.73	3982.6	
208.94	5490.6	
209.15	6232.7	
209.37	3955.3	
209.58	4136.9	
209.79	6049	
210.01	5308.3	
210.22	3179.1	
210.43	3443.3	
210.65	5545.9	
210.86	5944.6	
211.07	4002.4	
211.29	3644.7	
211.5	5835.3	
211.71	5447.6	
211.93	3689.1	
212.14	3671.3	
212.35	5374.6	
212.56	5679.7	
212.78	4192.9	
212.99	3480.9	
213.2	6491.4	
213.42	5228.5	
213.63	3745.1	
213.84	4029.7	
214.06	4875.5	
214.27	4975.2	
214.48	3961.5	
214.69	4260.5	
214.91	6163	
215.12	6313.9	
215.33	4280.9	
215.55	4735.6	
215.76	6825.9	
215.97	5947.3	
216.18	4142.4	
216.4	4040	
216.61	5208	
216.82	6056.5	
217.04	3640.6	
217.25	3891.8	
217.46	6203.3	
217.67	5919.3	
217.89	3288.4	
218.1	3391.4	
218.31	5634	
218.53	5683.1	
218.74	3829.7	
218.95	3745.1	
219.16	5479	
219.38	6419	
219.59	3725.9	
219.8	4498	
220.01	7174.7	
220.23	5528.2	
220.44	4893.3	
220.65	3655.6	
220.87	5606.7	
221.08	6115.2	
221.29	3441.3	
221.5	4578.6	
221.72	7573.4	
221.93	5253	
222.14	4212	
222.35	4947.2	
222.57	5613.5	
222.78	5890	
222.99	3915.7	
223.2	4319.8	
223.42	5811.5	
223.63	5979.4	
223.84	3022.8	
224.05	3040.6	
224.27	7017	
224.48	6452.5	
224.69	4987.5	
224.9	4249.5	
225.12	5793.7	
225.33	5436	
225.54	3358	
225.75	3721.8	
225.97	5041.4	
226.18	5388.2	
226.39	4087.7	
226.6	3765.5	
226.82	5260.5	
227.03	5091.3	
227.24	4207.2	
227.45	3475.4	
227.67	5872.9	
227.88	6489.3	
228.09	4635.2	
228.3	4732.2	
228.52	6017.6	
228.73	5511.1	
228.94	3878.9	
229.15	3474.7	
229.36	5425.8	
229.58	5337.7	
229.79	3963.5	
230	4609.3	
230.21	6621.8	
230.43	5610.8	
230.64	4128	
230.85	4379.9	
231.06	5952.1	
231.28	5992.4	
231.49	3455.6	
231.7	4091.8	
231.91	5883.8	
232.12	5565	
232.34	3523.9	
232.55	4097.3	
232.76	6151.4	
232.97	5699.5	
233.18	3625.6	
233.4	4105.5	
233.61	5766.4	
233.82	5219.6	
234.03	3899.3	
234.25	3740.3	
234.46	7775.5	
234.67	5574.6	
234.88	4272.1	
235.09	3715	
235.31	5874.3	
235.52	5377.3	
235.73	4158.7	
235.94	3540.3	
236.15	5309	
236.37	6724.8	
236.58	3702.7	
236.79	4025.6	
237	5766.4	
237.21	5048.9	
237.43	4349.2	
237.64	3375.7	
237.85	10114	
238.06	5085.8	
238.27	4362.2	
238.48	3523.2	
238.7	5928.9	
238.91	5313.1	
239.12	4025.6	
239.33	4031.8	
239.54	5130.2	
239.76	5444.2	
239.97	3956	
240.18	3977.2	
240.39	6939.9	
240.6	5805.3	
240.82	4162.8	
241.03	3395.5	
241.24	5558.2	
241.45	6419.7	
241.66	3650.2	
241.87	4304.1	
242.09	6226.5	
242.3	6688.7	
242.51	4390.8	
242.72	4019.5	
242.93	5999.2	
243.14	5479	
243.36	4626.4	
243.57	5046.2	
243.78	6402.6	
243.99	5905	
244.2	4069.3	
244.41	3596.2	
244.63	5078.3	
244.84	5859.2	
245.05	4319.2	
245.26	4033.8	
245.47	5823.1	
245.68	6118.6	
245.9	5341.8	
246.11	4265.9	
246.32	5349.3	
246.53	5807.4	
246.74	6543.3	
246.95	3402.4	
247.16	4966.3	
247.38	5527.5	
247.59	3344.3	
247.8	4024.9	
248.01	5243.5	
248.22	5456.5	
248.43	3606.5	
248.64	3938.2	
248.86	4915.1	
249.07	5285.1	
249.28	3523.9	
249.49	4095.9	
249.7	6111.8	
249.91	6260.6	
250.12	3331.4	
250.34	3396.9	
250.55	5642.8	
250.76	5550	
250.97	4168.3	
251.18	4184	
251.39	6317.3	
251.6	5704.3	
251.81	4259.8	
252.03	4270	
252.24	5260.5	
252.45	6084.5	
252.66	3499.3	
252.87	4497.3	
253.08	5554.1	
253.29	7356.3	
253.5	3491.1	
253.72	4920.6	
253.93	5338.4	
254.14	6619	
254.35	3783.3	
254.56	3913	
254.77	5741.8	
254.98	5132.2	
255.19	3796.3	
255.41	4882.4	
255.62	5607.3	
255.83	6231.3	
256.04	4345.8	
256.25	4240	
256.46	6828.6	
256.67	5221.6	
256.88	4128	
257.09	4653.7	
257.31	5183.4	
257.52	5253.7	
257.73	5223	
257.94	3803.1	
258.15	5332.2	
258.36	5573.2	
258.57	4827.7	
258.78	3016.7	
258.99	6010.1	
259.2	5378	
259.41	3837.9	
259.63	3906.2	
259.84	6393.8	
260.05	6950.1	
260.26	5021.6	
260.47	3710.9	
260.68	6111.1	
260.89	5431.9	
261.1	4605.9	
261.31	3663.8	
261.52	6154.1	
261.73	6504.3	
261.95	5002.5	
262.16	4359.4	
262.37	6300.9	
262.58	6361.7	
262.79	4940.4	
263	3901.4	
263.21	5645.6	
263.42	5014.8	
263.63	3934.1	
263.84	3882.3	
264.05	6130.9	
264.26	6445	
264.47	4728.1	
264.69	4365.6	
264.9	6270.9	
265.11	5767.1	
265.32	3687.7	
265.53	3773.7	
265.74	5642.8	
265.95	4902.8	
266.16	4062.5	
266.37	4567	
266.58	5571.8	
266.79	5377.3	
267	3741	
267.21	3520.5	
267.42	5074.9	
267.63	5520.6	
267.84	3943.7	
268.06	3431	
268.27	5948.7	
268.48	6309.1	
268.69	3899.3	
268.9	4643.4	
269.11	6244.3	
269.32	5010.7	
269.53	4002.4	
269.74	3680.2	
269.95	5868.1	
270.16	4909	
270.37	4103.4	
270.58	4689.2	
270.79	5401.2	
271	6043.6	
271.21	4276.2	
271.42	4061.8	
271.63	5658.5	
271.84	5177.3	
272.05	3229	
272.26	3620.1	
272.47	5530.9	
272.68	5827.2	
272.89	3878.2	
273.11	4476.9	
273.32	5323.4	
273.53	6537.1	
273.74	4392.9	
273.95	4272.1	
274.16	6213.5	
274.37	5604.6	
274.58	4427	
274.79	3564.1	
275	5715.2	
275.21	6285.2	
275.42	5296.7	
275.63	4543.1	
275.84	5741.8	
276.05	7296.9	
276.26	4244.8	
276.47	3995.6	
276.68	5354.8	
276.89	6535.1	
277.1	4526	
277.31	3520.5	
277.52	5801.2	
277.73	5965.1	
277.94	3488.4	
278.15	3913	
278.36	5775.3	
278.57	5205.9	
278.78	3869.3	
278.99	4361.5	
279.2	5150	
279.41	5077.6	
279.62	5126.7	
279.83	3562.1	
280.04	6785.6	
280.25	4995	
280.46	5047.6	
280.67	4050.2	
280.88	5122	
281.09	6232.7	
281.3	4215.4	
281.51	5330.2	
281.72	5252.4	
281.93	6116.6	
282.14	3723.2	
282.35	4031.1	
282.56	6044.9	
282.77	6031.3	
282.98	3910.3	
283.19	4795.7	
283.4	7468.9	
283.61	5496.1	
283.82	3530.7	
284.03	4984.1	
284.24	5655.8	
284.45	6214.9	
284.66	5005.9	
284.87	4843.4	
285.08	6112.5	
285.29	6298.9	
285.5	3430.3	
285.71	3923.2	
285.92	6183.5	
286.12	6875.7	
286.33	4992.3	
286.54	3874.1	
286.75	6075	
286.96	5376.6	
287.17	3581.9	
287.38	4858.5	
287.59	5122	
287.8	5046.9	
288.01	4010.6	
288.22	4594.3	
288.43	6096.8	
288.64	5028.4	
288.85	4736.3	
289.06	4452.3	
289.27	6305	
289.48	6565.8	
289.69	5010.7	
289.9	4515.1	
290.11	6244.9	
290.32	5228.5	
290.53	4752	
290.74	4414.7	
290.94	5989.6	
291.15	6006	
291.36	3794.2	
291.57	4541.7	
291.78	5270.8	
291.99	4915.1	
292.2	3576.4	
292.41	4349.2	
292.62	6092.7	
292.83	5894.7	
293.04	5371.1	
293.25	3668.6	
293.46	5353.4	
293.67	6170.5	
293.88	3778.5	
294.09	3595.6	
294.29	5083.7	
294.5	5667.4	
294.71	4040	
294.92	3902.1	
295.13	5289.9	
295.34	6685.3	
295.55	3356.6	
295.76	3503.4	
295.97	5987.6	
296.18	6735.1	
296.39	3581.9	
296.6	3762.1	
296.81	5678.3	
297.01	6027.9	
297.22	3960.8	
297.43	3745.1	
297.64	5184.1	
297.85	5214.1	
298.06	3107.5	
298.27	3375.1	
298.48	5579.3	
298.69	5264.6	
298.9	4070.7	
299.11	3737.5	
299.31	5019.6	
299.52	5026.4	
299.73	4399	
299.94	4286.4	
300.15	5537.7	
300.36	5170.4	
300.57	4311.7	
300.78	4287.1	
300.99	5457.2	
301.2	5686.5	
301.4	3778.5	
301.61	4135.5	
301.82	5883.8	
302.03	5983.5	
302.24	4593.6	
302.45	3614	
302.66	5849.7	
302.87	6374.6	
303.08	3835.2	
303.29	5276.9	
303.49	5298.1	
303.7	5599.8	
303.91	3340.2	
304.12	4926	
304.33	5033.9	
304.54	5654.4	
304.75	3779.9	
304.96	3603.1	
305.16	5901.6	
305.37	6653.2	
305.58	3246	
305.79	3428.3	
306	5859.9	
306.21	4927.4	
306.42	3833.1	
306.63	5815.5	
306.83	5420.3	
307.04	6163.7	
307.25	4186	
307.46	4160.8	
307.67	4731.5	
307.88	6049.7	
308.09	3745.7	
308.29	3897.3	
308.5	5625.1	
308.71	6227.2	
308.92	4061.8	
309.13	3696.6	
309.34	5429.8	
309.55	5466.7	
309.75	4687.1	
309.96	4360.1	
310.17	6015.6	
310.38	5228.5	
310.59	4593.6	
310.8	3557.3	
311.01	5345.2	
311.21	5438.7	
311.42	3607.2	
311.63	3693.9	
311.84	5340.4	
312.05	5705.6	
312.26	4229.1	
312.46	4594.3	
312.67	5347.9	
312.88	5107.6	
313.09	3604.4	
313.3	3573	
313.51	6341.2	
313.71	6799.3	
313.92	3610.6	
314.13	3857.7	
314.34	5763	
314.55	5462.6	
314.76	4679.6	
314.96	4123.2	
315.17	5599.1	
315.38	5969.1	
315.59	3695.9	
315.8	3490.4	
316.01	6521.4	
316.21	6510.5	
316.42	3480.2	
316.63	4016.1	
316.84	5408	
317.05	6337.1	
317.26	4280.9	
317.46	3855.6	
317.67	5428.5	
317.88	5971.2	
318.09	4599.7	
318.3	3375.7	
318.5	5219.6	
318.71	5936.4	
318.92	5924.1	
319.13	4304.8	
319.34	6125.5	
319.54	6178	
319.75	3387.3	
319.96	3226.2	
320.17	5953.4	
320.38	6147.3	
320.58	3366.9	
320.79	3948.5	
321	6170.5	
321.21	6241.5	
321.42	4056.3	
321.62	3308.2	
321.83	5175.9	
322.04	5572.5	
322.25	3872	
322.46	3635.8	
322.66	5710.4	
322.87	5853.8	
323.08	4541	
323.29	3631	
323.5	6592.4	
323.7	5143.8	
323.91	5006.6	
324.12	4481	
324.33	5622.4	
324.53	5947.3	
324.74	4280.3	
324.95	4560.8	
325.16	4934.9	
325.37	5349.3	
325.57	3658.4	
325.78	3688.4	
325.99	5635.3	
326.2	5059.8	
326.4	5184.8	
326.61	3375.1	
326.82	5527.5	
327.03	5678.3	
327.24	5198.4	
327.44	4943.8	
327.65	5842.2	
327.86	4731.5	
328.07	4304.8	
328.27	3511.6	
328.48	6332.3	
328.69	5175.9	
328.9	5271.5	
329.1	3931.4	
329.31	5405.3	
329.52	6417	
329.73	3610.6	
329.93	4182.6	
330.14	5526.8	
330.35	5817.6	
330.56	6061.3	
330.76	4575.8	
330.97	5348.6	
331.18	5784.8	
331.39	4083.6	
331.59	3360.7	
331.8	6319.3	
332.01	6429.9	
332.22	3775.8	
332.42	4354.7	
332.63	5697.4	
332.84	5244.2	
333.05	4116.4	
333.25	3719.1	
333.46	5384.1	
333.67	5553.4	
333.88	3878.2	
334.08	4300.1	
334.29	7490.8	
334.5	6283.2	
334.7	3581.2	
334.91	5240.1	
335.12	5094.7	
335.33	6016.2	
335.53	4050.9	
335.74	5957.5	
335.95	5358.9	
336.16	5226.4	
336.36	4134.8	
336.57	4717.8	
336.78	5037.3	
336.98	6176	
337.19	5073.5	
337.4	4008.6	
337.61	6727.6	
337.81	5056.4	
338.02	3777.1	
338.23	4846.2	
338.43	6360.3	
338.64	5187.5	
338.85	3749.8	
339.05	4843.4	
339.26	6441.5	
339.47	5023	
339.68	3672.7	
339.88	5498.1	
340.09	5862.7	
340.3	6107.7	
340.5	4288.4	
340.71	3325.2	
340.92	5085.1	
341.13	6334.4	
341.33	3599.6	
341.54	4388.1	
341.75	5829.9	
341.95	5462.6	
342.16	4125.3	
342.37	4440.7	
342.57	5120.6	
342.78	5529.5	
342.99	4665.3	
343.19	3319.8	
343.4	5968.5	
343.61	5819	
343.81	3939.6	
344.02	3583.3	
344.23	6046.3	
344.43	6436.8	
344.64	4626.4	
344.85	4451.6	
345.06	5905.7	
345.26	6236.7	
345.47	4272.7	
345.68	5007.3	
345.88	4904.9	
346.09	6133	
346.3	4340.3	
346.5	3310.2	
346.71	5619.6	
346.92	5236	
347.12	3364.1	
347.33	4286.4	
347.54	6205.3	
347.74	6548	
347.95	4259.8	
348.16	3177.8	
348.36	5354.8	
348.57	5148.6	
348.78	4250.2	
348.98	4527.4	
349.19	5550.7	
349.39	5057.8	
349.6	3347.1	
349.81	3789.4	
350.01	5843.5	
350.22	5312.4	
350.43	4080.9	
350.63	4937	
350.84	5670.8	
351.05	5395	
351.25	3750.5	
351.46	3383.2	
351.67	6133.7	
351.87	5272.8	
352.08	3943.7	
352.29	4586.8	
352.49	6065.4	
352.7	6223.1	
352.9	3654.9	
353.11	4515.8	
353.32	6784.2	
353.52	5489.9	
353.73	3546.4	
353.94	4582	
354.14	5920	
354.35	5711.8	
354.55	3648.1	
354.76	4103.4	
354.97	5902.2	
355.17	5666.7	
355.38	3534.1	
355.59	4934.9	
355.79	5291.3	
356	5739.1	
356.2	4134.8	
356.41	3638.6	
356.62	5035.3	
356.82	5571.8	
357.03	4444.1	
357.24	3988.1	
357.44	5365.7	
357.65	5491.3	
357.85	5358.9	
358.06	4179.9	
358.27	5065.3	
358.47	5339.1	
358.68	3524.6	
358.88	4507.6	
359.09	5936.4	
359.3	6303	
359.5	5121.3	
359.71	4553.3	
359.91	6798.6	
360.12	6144.6	
360.33	4375.8	
360.53	4948.6	
360.74	5402.5	
360.94	5468.8	
361.15	4635.9	
361.36	3843.4	
361.56	6235.4	
361.77	5656.5	
361.97	5160.9	
362.18	4168.3	
362.38	6210.8	
362.59	5257.1	
362.8	3834.5	
363	3661.1	
363.21	5069.4	
363.41	5782.1	
363.62	4421.6	
363.83	5494	
364.03	5926.1	
364.24	6921.5	
364.44	5550.7	
364.65	5581.4	
364.85	5651.7	
365.06	5304.2	
365.27	4046.8	
365.47	4093.9	
365.68	6688.7	
365.88	5661.3	
366.09	4440	
366.29	4175.8	
366.5	5943.2	
366.71	6338.5	
366.91	5535	
367.12	4688.5	
367.32	7054.6	
367.53	6240.8	
367.73	4617.5	
367.94	5631.2	
368.14	6153.5	
368.35	7131	
368.56	4629.1	
368.76	4131.4	
368.97	6276.3	
369.17	8088.8	
369.38	4113.7	
369.58	4416.8	
369.79	5308.3	
369.99	6759	
370.2	5500.8	
370.4	4524.6	
370.61	6047.7	
370.82	7311.9	
371.02	4446.1	
371.23	3775.8	
371.43	5322.7	
371.64	6701.6	
371.84	4567	
372.05	5813.5	
372.25	8169.3	
372.46	6421.1	
372.66	4504.2	
372.87	4472.1	
373.07	6523.5	
373.28	8163.2	
373.48	5586.2	
373.69	5338.4	
373.9	5999.9	
374.1	6106.4	
374.31	5618.9	
374.51	5100.1	
374.72	6980.2	
374.92	5663.3	
375.13	5830.6	
375.33	4965.6	
375.54	6512.5	
375.74	5884.5	
375.95	5016.8	
376.15	6324.8	
376.36	6531	
376.56	6343.2	
376.77	5123.3	
376.97	5571.8	
377.18	7671.7	
377.38	6761.7	
377.59	5962.3	
377.79	4662.5	
378	6514.6	
378.2	7000.6	
378.41	4808.6	
378.61	4734.2	
378.82	7058	
379.02	6118	
379.23	5008.6	
379.43	6141.9	
379.64	7077.1	
379.84	6781.5	
380.05	4768.4	
380.25	4739.7	
380.46	6881.2	
380.66	6457.9	
380.87	6177.4	
381.07	6620.4	
381.28	7486	
381.48	6885.3	
381.69	4823	
381.89	4810	
382.1	5798.5	
382.3	7066.9	
382.51	5953.4	
382.71	6930.3	
382.91	6799.9	
383.12	7361.8	
383.32	5191.6	
383.53	5446.9	
383.73	6662	
383.94	6516.6	
384.14	5285.8	
384.35	4464.6	
384.55	6361.7	
384.76	6873.7	
384.96	5141.1	
385.17	5500.2	
385.37	6761	
385.58	6077	
385.78	5491.3	
385.98	4379.2	
386.19	6235.4	
386.39	6662.7	
386.6	4977.9	
386.8	5173.9	
387.01	6944	
387.21	6845	
387.42	5674.9	
387.62	6243.6	
387.83	6152.1	
388.03	6926.9	
388.23	5330.9	
388.44	6177.4	
388.64	5980.8	
388.85	6110.5	
389.05	5712.5	
389.26	6425.2	
389.46	8043.1	
389.67	7397.3	
389.87	5728.2	
390.07	5813.5	
390.28	6698.9	
390.48	6270.9	
390.69	5046.2	
390.89	5356.1	
391.1	6425.8	
391.3	7511.9	
391.5	6642.9	
391.71	7247.8	
391.91	7134.4	
392.12	8243.8	
392.32	6686.6	
392.53	5845.6	
392.73	6510.5	
392.93	6735.1	
393.14	5543.2	
393.34	6331	
393.55	7200	
393.75	6685.3	
393.95	5525.4	
394.16	5498.8	
394.36	6449.7	
394.57	7075	
394.77	5027.8	
394.98	5442.8	
395.18	6481.1	
395.38	6599.2	
395.59	6445.6	
395.79	5346.6	
396	6690.7	
396.2	7223.2	
396.4	6259.3	
396.61	6238.1	
396.81	7577.5	
397.02	6799.3	
397.22	6548	
397.42	6686.6	
397.63	7532.4	
397.83	6774.7	
398.04	5438	
398.24	6068.1	
398.44	7260.7	
398.65	6393.8	
398.85	5274.9	
399.05	5385.5	
399.26	6752.2	
399.46	8602.8	
399.67	5861.3	
399.87	5626.5	
400.07	7201.3	
400.28	7673.1	
400.48	5841.5	
400.69	6908.5	
400.89	8497.7	
401.09	8347.5	
401.3	5788.2	
401.5	6873	
401.7	8686.8	
401.91	9015.8	
402.11	6119.3	
402.32	6275	
402.52	8166.6	
402.72	7838.9	
402.93	6621.8	
403.13	5337	
403.33	8778.3	
403.54	7270.3	
403.74	6210.8	
403.94	7108.5	
404.15	7356.3	
404.35	8563.9	
404.56	5986.9	
404.76	7834.2	
404.96	7817.1	
405.17	7666.9	
405.37	7259.4	
405.57	6571.9	
405.78	7994.6	
405.98	7367.2	
406.18	6151.4	
406.39	7110.5	
406.59	7946.8	
406.79	7642.3	
407	5968.5	
407.2	6140.5	
407.4	8090.2	
407.61	8351.6	
407.81	6178	
408.01	8404.9	
408.22	7114.6	
408.42	9292.3	
408.62	7460.8	
408.83	6976.1	
409.03	8144.1	
409.23	7909.9	
409.44	7276.4	
409.64	7635.5	
409.84	9303.9	
410.05	9154.4	
410.25	7567.9	
410.45	7372	
410.66	8921	
410.86	11374	
411.06	8168	
411.27	7905.8	
411.47	11497	
411.67	9319.6	
411.88	8206.9	
412.08	8736.6	
412.28	9938.1	
412.49	10549	
412.69	8200.7	
412.89	8249.2	
413.09	10466	
413.3	10465	
413.5	8401.5	
413.7	8078.6	
413.91	9566.1	
414.11	10628	
414.31	8312	
414.52	8896.4	
414.72	10236	
414.92	10361	
415.12	8376.9	
415.33	9015.2	
415.53	10744	
415.73	10973	
415.94	9355.1	
416.14	8887.5	
416.34	9791.3	
416.55	9204.3	
416.75	10042	
416.95	9451.4	
417.15	10831	
417.36	11496	
417.56	10450	
417.76	9577.7	
417.97	11275	
418.17	10986	
418.37	8899.8	
418.57	9207.7	
418.78	10698	
418.98	10458	
419.18	10090	
419.38	9947	
419.59	10456	
419.79	9996.1	
419.99	9010.4	
420.2	9462.3	
420.4	11021	
420.6	11199	
420.8	9035	
421.01	8738	
421.21	10892	
421.41	11067	
421.61	9386.5	
421.82	9040.4	
422.02	10309	
422.22	11300	
422.42	10034	
422.63	9377	
422.83	10570	
423.03	11750	
423.23	9389.9	
423.44	8437.6	
423.64	10545	
423.84	10211	
424.04	8987.9	
424.25	8592.6	
424.45	11466	
424.65	11318	
424.85	8282	
425.06	8942.8	
425.26	11452	
425.46	9834.3	
425.66	9490.3	
425.87	9110	
426.07	11060	
426.27	10886	
426.47	9277.3	
426.67	8568.7	
426.88	11410	
427.08	10892	
427.28	9572.9	
427.48	8484.7	
427.69	9648.7	
427.89	10488	
428.09	9519.6	
428.29	8533.9	
428.5	11159	
428.7	10659	
428.9	8586.5	
429.1	9138	
429.3	10592	
429.51	11196	
429.71	8867	
429.91	9880.1	
430.11	11101	
430.31	11426	
430.52	9329.9	
430.72	9663	
430.92	11686	
431.12	11208	
431.32	9109.4	
431.53	9341.5	
431.73	10136	
431.93	11996	
432.13	9030.2	
432.33	8898.4	
432.54	10645	
432.74	11061	
432.94	8974.9	
433.14	9977.7	
433.34	11214	
433.55	10960	
433.75	10036	
433.95	12138	
434.15	11206	
434.35	10951	
434.56	9277.3	
434.76	8915.5	
434.96	11288	
435.16	11660	
435.36	9321	
435.56	10604	
435.77	11019	
435.97	11309	
436.17	11390	
436.37	10718	
436.57	11104	
436.78	11268	
436.98	12267	
437.18	11174	
437.38	12151	
437.58	11373	
437.78	11379	
437.99	9991.4	
438.19	11796	
438.39	12738	
438.59	9893.7	
438.79	9281.4	
438.99	12509	
439.2	11481	
439.4	9303.9	
439.6	9383.8	
439.8	11804	
440	12833	
440.2	10687	
440.4	10623	
440.61	12180	
440.81	12852	
441.01	9933.3	
441.21	11107	
441.41	13153	
441.61	12486	
441.81	11518	
442.02	12572	
442.22	13583	
442.42	12696	
442.62	10451	
442.82	10256	
443.02	13060	
443.22	12299	
443.43	11027	
443.63	10441	
443.83	11852	
444.03	12013	
444.23	11987	
444.43	11389	
444.63	12661	
444.83	13904	
445.04	10802	
445.24	12177	
445.44	12859	
445.64	13067	
445.84	11243	
446.04	11505	
446.24	12154	
446.44	13356	
446.65	10544	
446.85	11110	
447.05	12327	
447.25	13138	
447.45	11069	
447.65	10324	
447.85	12519	
448.05	11897	
448.25	11650	
448.46	11344	
448.66	12496	
448.86	12160	
449.06	10297	
449.26	11618	
449.46	13037	
449.66	11919	
449.86	11297	
450.06	11129	
450.26	12297	
450.47	12986	
450.67	11292	
450.87	11863	
451.07	13041	
451.27	12991	
451.47	10750	
451.67	11662	
451.87	12749	
452.07	13623	
452.27	11269	
452.47	11085	
452.67	12833	
452.88	13542	
453.08	10308	
453.28	12724	
453.48	14463	
453.68	12791	
453.88	11332	
454.08	11490	
454.28	13577	
454.48	13154	
454.68	12119	
454.88	12605	
455.08	13524	
455.28	13678	
455.48	11036	
455.68	12187	
455.89	14448	
456.09	14040	
456.29	11703	
456.49	12075	
456.69	14481	
456.89	13474	
457.09	12644	
457.29	13233	
457.49	14090	
457.69	14440	
457.89	12807	
458.09	12033	
458.29	14195	
458.49	14912	
458.69	13289	
458.89	12798	
459.09	15397	
459.29	15483	
459.49	12798	
459.69	13745	
459.9	14910	
460.1	14714	
460.3	12672	
460.5	12525	
460.7	15069	
460.9	14817	
461.1	12364	
461.3	13923	
461.5	15974	
461.7	15504	
461.9	13332	
462.1	13485	
462.3	15200	
462.5	15943	
462.7	13435	
462.9	13745	
463.1	17146	
463.3	17019	
463.5	13930	
463.7	15513	
463.9	15837	
464.1	16371	
464.3	14667	
464.5	14764	
464.7	16711	
464.9	16876	
465.1	16303	
465.3	15332	
465.5	17157	
465.7	17400	
465.9	15808	
466.1	15249	
466.3	17472	
466.5	16877	
466.7	16910	
466.9	15365	
467.1	17155	
467.3	18228	
467.5	16886	
467.7	15618	
467.9	18614	
468.1	19457	
468.3	16304	
468.5	17076	
468.7	17614	
468.9	17407	
469.1	16172	
469.3	17103	
469.5	19721	
469.7	17352	
469.9	16494	
470.1	16023	
470.3	17707	
470.5	17752	
470.7	17407	
470.9	16192	
471.1	17721	
471.3	17720	
471.5	16021	
471.69	18075	
471.89	17315	
472.09	16783	
472.29	16911	
472.49	16806	
472.69	17131	
472.89	17969	
473.09	16037	
473.29	15620	
473.49	17243	
473.69	17260	
473.89	16842	
474.09	15932	
474.29	18521	
474.49	18108	
474.69	16873	
474.89	16077	
475.09	17169	
475.29	17395	
475.49	15331	
475.69	15816	
475.88	18878	
476.08	17607	
476.28	15428	
476.48	15682	
476.68	17854	
476.88	17688	
477.08	15569	
477.28	16107	
477.48	17111	
477.68	17750	
477.88	15436	
478.08	15723	
478.28	18371	
478.48	17396	
478.67	15808	
478.87	15023	
479.07	18286	
479.27	17323	
479.47	16094	
479.67	16303	
479.87	18047	
480.07	18736	
480.27	15556	
480.47	17232	
480.67	17606	
480.87	18434	
481.06	15662	
481.26	16780	
481.46	17609	
481.66	17550	
481.86	16357	
482.06	17486	
482.26	17370	
482.46	18309	
482.66	16306	
482.86	16064	
483.05	18069	
483.25	17298	
483.45	18998	
483.65	16542	
483.85	17750	
484.05	18029	
484.25	16886	
484.45	17847	
484.65	18935	
484.84	19300	
485.04	16660	
485.24	16609	
485.44	19269	
485.64	17659	
485.84	16150	
486.04	17713	
486.24	18237	
486.44	18590	
486.63	16126	
486.83	17174	
487.03	18318	
487.23	18824	
487.43	16534	
487.63	19187	
487.83	18692	
488.02	19877	
488.22	17796	
488.42	18536	
488.62	19710	
488.82	18855	
489.02	17230	
489.22	17844	
489.41	19613	
489.61	19447	
489.81	17294	
490.01	17341	
490.21	19729	
490.41	20673	
490.61	17388	
490.8	17527	
491	19602	
491.2	18469	
491.4	18217	
491.6	17140	
491.8	19272	
491.99	19449	
492.19	16985	
492.39	17294	
492.59	19830	
492.79	19992	
492.99	18322	
493.18	17503	
493.38	20070	
493.58	21345	
493.78	18673	
493.98	18299	
494.18	20325	
494.37	19982	
494.57	19558	
494.77	19315	
494.97	21149	
495.17	21674	
495.37	19086	
495.56	19620	
495.76	22029	
495.96	21665	
496.16	20940	
496.36	19981	
496.55	22145	
496.75	21768	
496.95	20885	
497.15	20171	
497.35	22150	
497.54	22333	
497.74	20093	
497.94	21472	
498.14	23072	
498.34	22893	
498.53	20033	
498.73	20727	
498.93	21836	
499.13	22495	
499.33	20814	
499.52	21264	
499.72	22928	
499.92	22998	
500.12	20731	
500.32	20936	
500.51	22982	
500.71	23053	
500.91	21985	
501.11	21409	
501.31	23143	
501.5	23548	
501.7	22294	
501.9	21252	
502.1	22816	
502.29	23175	
502.49	21911	
502.69	22037	
502.89	23068	
503.09	23192	
503.28	20174	
503.48	20586	
503.68	21963	
503.88	22116	
504.07	21491	
504.27	20818	
504.47	22457	
504.67	22306	
504.86	21410	
505.06	20844	
505.26	21799	
505.46	23754	
505.65	20779	
505.85	20900	
506.05	21648	
506.25	22161	
506.44	19808	
506.64	20595	
506.84	21431	
507.04	22262	
507.23	19787	
507.43	20433	
507.63	23387	
507.83	21666	
508.02	20504	
508.22	20006	
508.42	23735	
508.62	21410	
508.81	20177	
509.01	21194	
509.21	21099	
509.4	21588	
509.6	20378	
509.8	19924	
510	21495	
510.19	23076	
510.39	19839	
510.59	19942	
510.79	21373	
510.98	23086	
511.18	20295	
511.38	20365	
511.57	22280	
511.77	22357	
511.97	20892	
512.17	19680	
512.36	22484	
512.56	22235	
512.76	20015	
512.95	19716	
513.15	22555	
513.35	20842	
513.55	20891	
513.74	20013	
513.94	22360	
514.14	21763	
514.33	21069	
514.53	20909	
514.73	21680	
514.92	22158	
515.12	20555	
515.32	20306	
515.51	22241	
515.71	22809	
515.91	22104	
516.11	20481	
516.3	24129	
516.5	21768	
516.7	20875	
516.89	21652	
517.09	22032	
517.29	21972	
517.48	21578	
517.68	20706	
517.88	21691	
518.07	22391	
518.27	21365	
518.47	20289	
518.66	22978	
518.86	21685	
519.06	19880	
519.25	20559	
519.45	21833	
519.65	23913	
519.84	21188	
520.04	22342	
520.24	24140	
520.43	22640	
520.63	20942	
520.83	20663	
521.02	21917	
521.22	22597	
521.42	21087	
521.61	21896	
521.81	22106	
522.01	22234	
522.2	21201	
522.4	20740	
522.6	22756	
522.79	21852	
522.99	21080	
523.18	20792	
523.38	22974	
523.58	23218	
523.77	23234	
523.97	21074	
524.17	25436	
524.36	24645	
524.56	22883	
524.76	22628	
524.95	24055	
525.15	23653	
525.34	22692	
525.54	22873	
525.74	24714	
525.93	23806	
526.13	24583	
526.33	23210	
526.52	25594	
526.72	24963	
526.91	24881	
527.11	24135	
527.31	25743	
527.5	26064	
527.7	24023	
527.89	23018	
528.09	24871	
528.29	25669	
528.48	24373	
528.68	24163	
528.87	25857	
529.07	25798	
529.27	24064	
529.46	23825	
529.66	25663	
529.85	26353	
530.05	23791	
530.25	24317	
530.44	27384	
530.64	25796	
530.83	24101	
531.03	24575	
531.23	26280	
531.42	26014	
531.62	25327	
531.81	24409	
532.01	26611	
532.21	27240	
532.4	24888	
532.6	25430	
532.79	27863	
532.99	27455	
533.18	25552	
533.38	26645	
533.58	27368	
533.77	27973	
533.97	26073	
534.16	27071	
534.36	28575	
534.55	27641	
534.75	27157	
534.95	26159	
535.14	28848	
535.34	27454	
535.53	25815	
535.73	27966	
535.92	29201	
536.12	27598	
536.31	26023	
536.51	27300	
536.71	27810	
536.9	27446	
537.1	25757	
537.29	26032	
537.49	28169	
537.68	27311	
537.88	26596	
538.07	25791	
538.27	27817	
538.46	28955	
538.66	25703	
538.86	26564	
539.05	27898	
539.25	28084	
539.44	26944	
539.64	26099	
539.83	27499	
540.03	28551	
540.22	25873	
540.42	25867	
540.61	27583	
540.81	27856	
541	26098	
541.2	27112	
541.39	26835	
541.59	27469	
541.78	26597	
541.98	25537	
542.18	26574	
542.37	26637	
542.57	25663	
542.76	26656	
542.96	26587	
543.15	27319	
543.35	25666	
543.54	24914	
543.74	27163	
543.93	26854	
544.13	25207	
544.32	26366	
544.52	26809	
544.71	26147	
544.91	24211	
545.1	25491	
545.3	26116	
545.49	26861	
545.69	23951	
545.88	24711	
546.08	27938	
546.27	27435	
546.47	25265	
546.66	24533	
546.86	26787	
547.05	27439	
547.24	24619	
547.44	24506	
547.63	25566	
547.83	27123	
548.02	25035	
548.22	25056	
548.41	25494	
548.61	26837	
548.8	24192	
549	24298	
549.19	25955	
549.39	26477	
549.58	23666	
549.78	24503	
549.97	26527	
550.17	25749	
550.36	25916	
550.55	26177	
550.75	25588	
550.94	26526	
551.14	23758	
551.33	24087	
551.53	24965	
551.72	26097	
551.92	23961	
552.11	23966	
552.31	25871	
552.5	25895	
552.69	25486	
552.89	23309	
553.08	25799	
553.28	25498	
553.47	23734	
553.67	24986	
553.86	26365	
554.06	24501	
554.25	22777	
554.44	23642	
554.64	26928	
554.83	26493	
555.03	23566	
555.22	23825	
555.42	25792	
555.61	25421	
555.8	23419	
556	23663	
556.19	24708	
556.39	25791	
556.58	23670	
556.78	23318	
556.97	25327	
557.16	24920	
557.36	24667	
557.55	23307	
557.75	24126	
557.94	26045	
558.13	23173	
558.33	23043	
558.52	25901	
558.72	24637	
558.91	22990	
559.1	23341	
559.3	24376	
559.49	23809	
559.69	22672	
559.88	23582	
560.07	25147	
560.27	25541	
560.46	23733	
560.66	24092	
560.85	24797	
561.04	23771	
561.24	22869	
561.43	22865	
561.63	24139	
561.82	24363	
562.01	24358	
562.21	23412	
562.4	24761	
562.59	26174	
562.79	23227	
562.98	23018	
563.18	24985	
563.37	26718	
563.56	23875	
563.76	23240	
563.95	24707	
564.14	24565	
564.34	23593	
564.53	23325	
564.73	25253	
564.92	25918	
565.11	23918	
565.31	23361	
565.5	25855	
565.69	24936	
565.89	23639	
566.08	24063	
566.27	25886	
566.47	26615	
566.66	24634	
566.85	23533	
567.05	25742	
567.24	25106	
567.44	23697	
567.63	25063	
567.82	25970	
568.02	25705	
568.21	23842	
568.4	24290	
568.6	25864	
568.79	25783	
568.98	23833	
569.18	24092	
569.37	25962	
569.56	28155	
569.76	24728	
569.95	25705	
570.14	26303	
570.34	26665	
570.53	24029	
570.72	24167	
570.91	26987	
571.11	25998	
571.3	24641	
571.49	25617	
571.69	26218	
571.88	25733	
572.07	25453	
572.27	25229	
572.46	25872	
572.65	26844	
572.85	24643	
573.04	25067	
573.23	27434	
573.43	26488	
573.62	24610	
573.81	25323	
574	26759	
574.2	26736	
574.39	25275	
574.58	25486	
574.78	28209	
574.97	27412	
575.16	26116	
575.36	26586	
575.55	28082	
575.74	28102	
575.93	25153	
576.13	26805	
576.32	27291	
576.51	28336	
576.71	25771	
576.9	27564	
577.09	28446	
577.28	27766	
577.48	26369	
577.67	25542	
577.86	27672	
578.05	28171	
578.25	26217	
578.44	26260	
578.63	27687	
578.83	29106	
579.02	25540	
579.21	27512	
579.4	28287	
579.6	27930	
579.79	26518	
579.98	28977	
580.17	28662	
580.37	28820	
580.56	26079	
580.75	26901	
580.94	29127	
581.14	28984	
581.33	27466	
581.52	26373	
581.71	28635	
581.91	29063	
582.1	26080	
582.29	26710	
582.48	28288	
582.68	28290	
582.87	27310	
583.06	27030	
583.25	28513	
583.45	27879	
583.64	27854	
583.83	28584	
584.02	27951	
584.21	28669	
584.41	27517	
584.6	27108	
584.79	28414	
584.98	29481	
585.18	26499	
585.37	26656	
585.56	27869	
585.75	28956	
585.94	26367	
586.14	27411	
586.33	29078	
586.52	28256	
586.71	26787	
586.91	26586	
587.1	27101	
587.29	28408	
587.48	25910	
587.67	26097	
587.87	27889	
588.06	27897	
588.25	27183	
588.44	26391	
588.63	27169	
588.83	28064	
589.02	25393	
589.21	25191	
589.4	26512	
589.59	26612	
589.78	23728	
589.98	24007	
590.17	25247	
590.36	25839	
590.55	22601	
590.74	23214	
590.94	26525	
591.13	24959	
591.32	22924	
591.51	22552	
591.7	25548	
591.89	24875	
592.09	22682	
592.28	23298	
592.47	24251	
592.66	26549	
592.85	23036	
593.05	23385	
593.24	25005	
593.43	25952	
593.62	23677	
593.81	24230	
594	25206	
594.19	25370	
594.39	23137	
594.58	23253	
594.77	25583	
594.96	25984	
595.15	22896	
595.34	23844	
595.54	25242	
595.73	24320	
595.92	22253	
596.11	23305	
596.3	25656	
596.49	24417	
596.68	22956	
596.88	23548	
597.07	25418	
597.26	24135	
597.45	22444	
597.64	23984	
597.83	24427	
598.02	25110	
598.22	22627	
598.41	23485	
598.6	24700	
598.79	24118	
598.98	22588	
599.17	23746	
599.36	24712	
599.55	25902	
599.74	24917	
599.94	24660	
600.13	25183	
600.32	24006	
600.51	22350	
600.7	22484	
600.89	25717	
601.08	25963	
601.27	22211	
601.47	23483	
601.66	24970	
601.85	25781	
602.04	23029	
602.23	23259	
602.42	24090	
602.61	24720	
602.8	22659	
602.99	22489	
603.18	24412	
603.37	24605	
603.57	23050	
603.76	23644	
603.95	25314	
604.14	25004	
604.33	22487	
604.52	23096	
604.71	24797	
604.9	24320	
605.09	23395	
605.28	23453	
605.47	25345	
605.66	24971	
605.86	23187	
606.05	22622	
606.24	25279	
606.43	23527	
606.62	22884	
606.81	23575	
607	24853	
607.19	24362	
607.38	22206	
607.57	22557	
607.76	24033	
607.95	23345	
608.14	22832	
608.33	23459	
608.52	23921	
608.72	25003	
608.91	21985	
609.1	21941	
609.29	23875	
609.48	23322	
609.67	22822	
609.86	21832	
610.05	23264	
610.24	23669	
610.43	21687	
610.62	21124	
610.81	24907	
611	24761	
611.19	21777	
611.38	22564	
611.57	23944	
611.76	25609	
611.95	21534	
612.14	21104	
612.33	23917	
612.52	23312	
612.71	22102	
612.9	21282	
613.09	22868	
613.28	25497	
613.47	21660	
613.66	22893	
613.85	23971	
614.04	23370	
614.24	21960	
614.43	21046	
614.62	24083	
614.81	23958	
615	22414	
615.19	22681	
615.38	23209	
615.57	23782	
615.76	22370	
615.95	23411	
616.14	24187	
616.33	23859	
616.52	22784	
616.71	23123	
616.9	24169	
617.09	24166	
617.28	22205	
617.47	23743	
617.66	23283	
617.85	23435	
618.04	23552	
618.22	22828	
618.41	24110	
618.6	25335	
618.79	23198	
618.98	22945	
619.17	25644	
619.36	24171	
619.55	23266	
619.74	23254	
619.93	25312	
620.12	24688	
620.31	24070	
620.5	24320	
620.69	26159	
620.88	26529	
621.07	25260	
621.26	24377	
621.45	25860	
621.64	26166	
621.83	24487	
622.02	23631	
622.21	25905	
622.4	25864	
622.59	25271	
622.78	24964	
622.97	25476	
623.16	26652	
623.35	24596	
623.54	23739	
623.72	25820	
623.91	26118	
624.1	25025	
624.29	23721	
624.48	27177	
624.67	26377	
624.86	25085	
625.05	23929	
625.24	27332	
625.43	25752	
625.62	26902	
625.81	24241	
626	26530	
626.19	26201	
626.38	25279	
626.56	24383	
626.75	26002	
626.94	26968	
627.13	25126	
627.32	23823	
627.51	26564	
627.7	28060	
627.89	23702	
628.08	25346	
628.27	25589	
628.46	25789	
628.65	24057	
628.83	23761	
629.02	26245	
629.21	25626	
629.4	24619	
629.59	24961	
629.78	25701	
629.97	26639	
630.16	24996	
630.35	24357	
630.54	27220	
630.72	26703	
630.91	24344	
631.1	24758	
631.29	26186	
631.48	26479	
631.67	24758	
631.86	24184	
632.05	25836	
632.24	26043	
632.42	23793	
632.61	24434	
632.8	25673	
632.99	25633	
633.18	24523	
633.37	24804	
633.56	25946	
633.75	25971	
633.93	24628	
634.12	24293	
634.31	26744	
634.5	26680	
634.69	24291	
634.88	24481	
635.07	25929	
635.25	26495	
635.44	25139	
635.63	25454	
635.82	25520	
636.01	24864	
636.2	24890	
636.39	24566	
636.57	26583	
636.76	26110	
636.95	23926	
637.14	25183	
637.33	26103	
637.52	26933	
637.7	23376	
637.89	24505	
638.08	25650	
638.27	27039	
638.46	24560	
638.65	24914	
638.83	26557	
639.02	24993	
639.21	24164	
639.4	24804	
639.59	25318	
639.78	24952	
639.96	23151	
640.15	23285	
640.34	25121	
640.53	25146	
640.72	22801	
640.91	23040	
641.09	24257	
641.28	25662	
641.47	23071	
641.66	24028	
641.85	25184	
642.03	24788	
642.22	23534	
642.41	22995	
642.6	24195	
642.79	23502	
642.97	22399	
643.16	23345	
643.35	24150	
643.54	23733	
643.73	22311	
643.91	23180	
644.1	23167	
644.29	24290	
644.48	22117	
644.67	22205	
644.85	23189	
645.04	23701	
645.23	21164	
645.42	21642	
645.6	22756	
645.79	23824	
645.98	20990	
646.17	20070	
646.36	21956	
646.54	22382	
646.73	21167	
646.92	20274	
647.11	21775	
647.29	22806	
647.48	20161	
647.67	20011	
647.86	23091	
648.05	23307	
648.23	20539	
648.42	21825	
648.61	22253	
648.8	22178	
648.98	20026	
649.17	20413	
649.36	21597	
649.55	21330	
649.73	19925	
649.92	20831	
650.11	21708	
650.3	21793	
650.48	20073	
650.67	19810	
650.86	22101	
651.05	20932	
651.23	19990	
651.42	19985	
651.61	21410	
651.79	21082	
651.98	20151	
652.17	19724	
652.36	21435	
652.54	20735	
652.73	19470	
652.92	19354	
653.11	21631	
653.29	21814	
653.48	18655	
653.67	19739	
653.85	21110	
654.04	22231	
654.23	19456	
654.42	18966	
654.6	19998	
654.79	20450	
654.98	17863	
655.16	18320	
655.35	19018	
655.54	18938	
655.73	17598	
655.91	17463	
656.1	20022	
656.29	19005	
656.47	17216	
656.66	19071	
656.85	19435	
657.03	19606	
657.22	18277	
657.41	18448	
657.59	20017	
657.78	19885	
657.97	18226	
658.16	19015	
658.34	20665	
658.53	21302	
658.72	20018	
658.9	20596	
659.09	20139	
659.28	20506	
659.46	18933	
659.65	18788	
659.84	20121	
660.02	20712	
660.21	18658	
660.4	18802	
660.58	21162	
660.77	20460	
660.96	19387	
661.14	18156	
661.33	21676	
661.52	21562	
661.7	18137	
661.89	22081	
662.08	19704	
662.26	19595	
662.45	18331	
662.64	18485	
662.82	20431	
663.01	19717	
663.2	18278	
663.38	19377	
663.57	20274	
663.75	20297	
663.94	18758	
664.13	20011	
664.31	19595	
664.5	20450	
664.69	18893	
664.87	19396	
665.06	19577	
665.25	20379	
665.43	19832	
665.62	19854	
665.8	20626	
665.99	19904	
666.18	18606	
666.36	18697	
666.55	20480	
666.74	20418	
666.92	18274	
667.11	19811	
667.29	19725	
667.48	20371	
667.67	19342	
667.85	18512	
668.04	19723	
668.22	20022	
668.41	18621	
668.6	18693	
668.78	19495	
668.97	19679	
669.15	18758	
669.34	17637	
669.53	19576	
669.71	19896	
669.9	18101	
670.08	18694	
670.27	19402	
670.46	19929	
670.64	18703	
670.83	19153	
671.01	19106	
671.2	19939	
671.38	17977	
671.57	17919	
671.76	20605	
671.94	21182	
672.13	17723	
672.31	18887	
672.5	20248	
672.69	19493	
672.87	17942	
673.06	18474	
673.24	20102	
673.43	19549	
673.61	18617	
673.8	18300	
673.98	20133	
674.17	20349	
674.36	18980	
674.54	18708	
674.73	19805	
674.91	20031	
675.1	18533	
675.28	18020	
675.47	19682	
675.65	20405	
675.84	18351	
676.03	18834	
676.21	19312	
676.4	18950	
676.58	19084	
676.77	18865	
676.95	21009	
677.14	19395	
677.32	17928	
677.51	17898	
677.69	20146	
677.88	19024	
678.06	17885	
678.25	18021	
678.44	19799	
678.62	19600	
678.81	17523	
678.99	18697	
679.18	20465	
679.36	20230	
679.55	18336	
679.73	18917	
679.92	20043	
680.1	19378	
680.29	19683	
680.47	18200	
680.66	19293	
680.84	20228	
681.03	17453	
681.21	18598	
681.4	19427	
681.58	19172	
681.77	18000	
681.95	17695	
682.14	20003	
682.32	20472	
682.51	18721	
682.69	17499	
682.88	19044	
683.06	19464	
683.25	18370	
683.43	18668	
683.62	19295	
683.8	19831	
683.99	18705	
684.17	17957	
684.36	20338	
684.54	18626	
684.73	16569	
684.91	16647	
685.1	18450	
685.28	17702	
685.46	16743	
685.65	16647	
685.83	18205	
686.02	17625	
686.2	15982	
686.39	16279	
686.57	17169	
686.76	19180	
686.94	16304	
687.13	16639	
687.31	18394	
687.5	18153	
687.68	16093	
687.86	17661	
688.05	19877	
688.23	17544	
688.42	17537	
688.6	16801	
688.79	18088	
688.97	18162	
689.16	17406	
689.34	16212	
689.52	19116	
689.71	19200	
689.89	17759	
690.08	17038	
690.26	18682	
690.45	18592	
690.63	17834	
690.81	17217	
691	18247	
691.18	18303	
691.37	17223	
691.55	19340	
691.74	17931	
691.92	20174	
692.1	17062	
692.29	16260	
692.47	18122	
692.66	17454	
692.84	16569	
693.02	17196	
693.21	17686	
693.39	18136	
693.58	17582	
693.76	16931	
693.94	19499	
694.13	19552	
694.31	17176	
694.5	18407	
694.68	18447	
694.86	18946	
695.05	17785	
695.23	18193	
695.42	19528	
695.6	22006	
695.78	18521	
695.97	17388	
696.15	19563	
696.34	18721	
696.52	17141	
696.7	17938	
696.89	19086	
697.07	18326	
697.25	17671	
697.44	19374	
697.62	18716	
697.81	18981	
697.99	17163	
698.17	17783	
698.36	17864	
698.54	18621	
698.72	17429	
698.91	16295	
699.09	18060	
699.28	17956	
699.46	17066	
699.64	16759	
699.83	17803	
700.01	18946	
700.19	17582	
700.38	16107	
700.56	19162	
700.74	17961	
700.93	16398	
701.11	17454	
701.29	18603	
701.48	19733	
701.66	16873	
701.84	17098	
702.03	18353	
702.21	19169	
702.39	16394	
702.58	17236	
702.76	18590	
702.94	18909	
703.13	16307	
703.31	19303	
703.49	18030	
703.68	19686	
703.86	16569	
704.04	17788	
704.23	18344	
704.41	18891	
704.59	16733	
704.78	17933	
704.96	19561	
705.14	18882	
705.33	16496	
705.51	17107	
705.69	18230	
705.87	19031	
706.06	17554	
706.24	16223	
706.42	18331	
706.61	18777	
706.79	17447	
706.97	16183	
707.16	17626	
707.34	18197	
707.52	17268	
707.7	16453	
707.89	18030	
708.07	17575	
708.25	17182	
708.44	17604	
708.62	17621	
708.8	18686	
708.98	17395	
709.17	16409	
709.35	17955	
709.53	17865	
709.72	16027	
709.9	16302	
710.08	18108	
710.26	18172	
710.45	17368	
710.63	16151	
710.81	17538	
710.99	17518	
711.18	16669	
711.36	16057	
711.54	17131	
711.72	17927	
711.91	15845	
712.09	15144	
712.27	17106	
712.45	17588	
712.64	15738	
712.82	14611	
713	15981	
713.18	16034	
713.37	14393	
713.55	15395	
713.73	16565	
713.91	14689	
714.1	13910	
714.28	13110	
714.46	15061	
714.64	14024	
714.83	11823	
715.01	12489	
715.19	13408	
715.37	12641	
715.55	11673	
715.74	11931	
715.92	13944	
716.1	11945	
716.28	12927	
716.47	11767	
716.65	12482	
716.83	12674	
717.01	11559	
717.19	11613	
717.38	14806	
717.56	12235	
717.74	12035	
717.92	11206	
718.1	13671	
718.29	12949	
718.47	11133	
718.65	11991	
718.83	14206	
719.01	14258	
719.2	11574	
719.38	12798	
719.56	14182	
719.74	15714	
719.92	12218	
720.11	13156	
720.29	13802	
720.47	12858	
720.65	11262	
720.83	11966	
721.02	12630	
721.2	12217	
721.38	11625	
721.56	10857	
721.74	11645	
721.92	11763	
722.11	12099	
722.29	11723	
722.47	13011	
722.65	12110	
722.83	10610	
723.01	11547	
723.2	12216	
723.38	12469	
723.56	10079	
723.74	11188	
723.92	11559	
724.1	12891	
724.29	10438	
724.47	11799	
724.65	11723	
724.83	11623	
725.01	10223	
725.19	11210	
725.37	11484	
725.56	11556	
725.74	10072	
725.92	10380	
726.1	11452	
726.28	11768	
726.46	10744	
726.64	10371	
726.83	11571	
727.01	11978	
727.19	9990	
727.37	10950	
727.55	11703	
727.73	12237	
727.91	9902.6	
728.09	9693	
728.28	12295	
728.46	13010	
728.64	11041	
728.82	10882	
729	13651	
729.18	12833	
729.36	10343	
729.54	12587	
729.72	14184	
729.91	12467	
730.09	12661	
730.27	11366	
730.45	12288	
730.63	13171	
730.81	11987	
730.99	11101	
731.17	13685	
731.35	12074	
731.53	11565	
731.71	11148	
731.9	13232	
732.08	13388	
732.26	11097	
732.44	10835	
732.62	13301	
732.8	12880	
732.98	11648	
733.16	10615	
733.34	12573	
733.52	11468	
733.7	10843	
733.88	11280	
734.07	12301	
734.25	12147	
734.43	10352	
734.61	12116	
734.79	13905	
734.97	12036	
735.15	10428	
735.33	10811	
735.51	12295	
735.69	11916	
735.87	12123	
736.05	10967	
736.23	12155	
736.41	11938	
736.59	10744	
736.77	10862	
736.95	12639	
737.13	11963	
737.32	10212	
737.5	10660	
737.68	13121	
737.86	11656	
738.04	10052	
738.22	11871	
738.4	11334	
738.58	11650	
738.76	10694	
738.94	9537.4	
739.12	11483	
739.3	11381	
739.48	11280	
739.66	10964	
739.84	11721	
740.02	11738	
740.2	9574.9	
740.38	9858.2	
740.56	12179	
740.74	10909	
740.92	10541	
741.1	10425	
741.28	11280	
741.46	11200	
741.64	9876	
741.82	10464	
742	11260	
742.18	11255	
742.36	10053	
742.54	9625.5	
742.72	11839	
742.9	10479	
743.08	10439	
743.26	9119.6	
743.44	11922	
743.62	11671	
743.8	10415	
743.98	9363.3	
744.16	11340	
744.34	10937	
744.52	10155	
744.7	9970.9	
744.88	11293	
745.06	10712	
745.24	10051	
745.42	10157	
745.6	11241	
745.78	10885	
745.96	8659.5	
746.14	8972.8	
746.32	11914	
746.5	11108	
746.68	9536	
746.86	8905.9	
747.03	11529	
747.21	9657.5	
747.39	9450	
747.57	8803.5	
747.75	10508	
747.93	10978	
748.11	8766.7	
748.29	8626.7	
748.47	12137	
748.65	10208	
748.83	9610.4	
749.01	9321.7	
749.19	10725	
749.37	9841.9	
749.55	8986.5	
749.73	9086.2	
749.91	10235	
750.09	9902.6	
750.26	9196.1	
750.44	8483.4	
750.62	10279	
750.8	10299	
750.98	8376.2	
751.16	8666.3	
751.34	10323	
751.52	9577.7	
751.7	9440.5	
751.88	8135.2	
752.06	10752	
752.24	10539	
752.42	8219.9	
752.59	8495.7	
752.77	10035	
752.95	11430	
753.13	9266.4	
753.31	8643.1	
753.49	9696.4	
753.67	10173	
753.85	8839.7	
754.03	8332.5	
754.21	10241	
754.38	10583	
754.56	8251.3	
754.74	7111.9	
754.92	8974.9	
755.1	9766.1	
755.28	6802.7	
755.46	6608.8	
755.64	9755.2	
755.82	9669.1	
755.99	6120	
756.17	6060.6	
756.35	6462.7	
756.53	8015.7	
756.71	4536.9	
756.89	5605.3	
757.07	7520.1	
757.25	6647.7	
757.42	6440.9	
757.6	7519.5	
757.78	8099.7	
757.96	7092.1	
758.14	6484.6	
758.32	5911.1	
758.5	6580.8	
758.67	7443	
758.85	6062	
759.03	6245.6	
759.21	7527	
759.39	6946.7	
759.57	5695.4	
759.75	6984.3	
759.92	8289.5	
760.1	7642.3	
760.28	7348.1	
760.46	7757.7	
760.64	7441.6	
760.82	7294.9	
760.99	7481.9	
761.17	6497.5	
761.35	8475.2	
761.53	7413	
761.71	6860	
761.89	7578.2	
762.06	8491.6	
762.24	7959.1	
762.42	6974.7	
762.6	6776	
762.78	8101.1	
762.96	8763.9	
763.13	7494.9	
763.31	7120.8	
763.49	9103.2	
763.67	8100.4	
763.85	8059.4	
764.02	8582.4	
764.2	9280	
764.38	8437.6	
764.56	6989.7	
764.74	7948.8	
764.91	9275.3	
765.09	8187.1	
765.27	6545.3	
765.45	6336.4	
765.63	9284.8	
765.8	9168.8	
765.98	5930.9	
766.16	6307.1	
766.34	7549.5	
766.52	7324.2	
766.69	7325.6	
766.87	6105.7	
767.05	7978.2	
767.23	8722.3	
767.41	6413.6	
767.58	6590.4	
767.76	8447.2	
767.94	8458.8	
768.12	6397.9	
768.29	7105.1	
768.47	7768.6	
768.65	8503.2	
768.83	5868.8	
769	7129	
769.18	7232.1	
769.36	7969.3	
769.54	7037.5	
769.72	5888.6	
769.89	8217.8	
770.07	8361.9	
770.25	6081.8	
770.43	7374.7	
770.6	8958.5	
770.78	9386.5	
770.96	6248.4	
771.14	5997.1	
771.31	8001.4	
771.49	7225.9	
771.67	5236.7	
771.85	5595.1	
772.02	6380.1	
772.2	7263.5	
772.38	6311.2	
772.55	5701.5	
772.73	7417.7	
772.91	7236.8	
773.09	6081.8	
773.26	6115.2	
773.44	7289.4	
773.62	6920.1	
773.8	5523.4	
773.97	5175.9	
774.15	7294.9	
774.33	6848.4	
774.5	5285.1	
774.68	5695.4	
774.86	7419.1	
775.04	6931.7	
775.21	5326.8	
775.39	5307.7	
775.57	7057.3	
775.74	7528.3	
775.92	5115.8	
776.1	5004.6	
776.27	7090.1	
776.45	8384.4	
776.63	5264	
776.81	4716.5	
776.98	6543.9	
777.16	7804.8	
777.34	5322	
777.51	5682.4	
777.69	6533.7	
777.87	6331.6	
778.04	5307.7	
778.22	5990.3	
778.4	6349.4	
778.57	6962.4	
778.75	4564.2	
778.93	4810.7	
779.1	5960.3	
779.28	5905.7	
779.46	4459.1	
779.64	5027.8	
779.81	7118.7	
779.99	7995.3	
780.17	5733.6	
780.34	6006.7	
780.52	6500.9	
780.69	6647.7	
780.87	5202.5	
781.05	4805.9	
781.22	6491.4	
781.4	6520	
781.58	4888.5	
781.75	3998.3	
781.93	6423.8	
782.11	5863.3	
782.28	5840.8	
782.46	4827.7	
782.64	5653.8	
782.81	6611.5	
782.99	4896	
783.17	4857.1	
783.34	6490.7	
783.52	5674.2	
783.69	5102.9	
783.87	5855.8	
784.05	5879.7	
784.22	5681.1	
784.4	5847.6	
784.58	5162.2	
784.75	6706.4	
784.93	5718.6	
785.1	4767.7	
785.28	5440.1	
785.46	6393.8	
785.63	5679	
785.81	4680.3	
785.99	4526.7	
786.16	5864.7	
786.34	6313.2	
786.51	4622.3	
786.69	4988.9	
786.87	5380	
787.04	5936.4	
787.22	4307.6	
787.39	5392.3	
787.57	5582.8	
787.75	6804.7	
787.92	5619.6	
788.1	5584.8	
788.27	5612.1	
788.45	5352.7	
788.63	5298.8	
788.8	3801.7	
788.98	6023.8	
789.15	5294	
789.33	3976.5	
789.5	4646.8	
789.68	6538.5	
789.86	6716.7	
790.03	5064.6	
790.21	4484.4	
790.38	6563.7	
790.56	5683.1	
790.73	4305.5	
790.91	4341.7	
791.09	5539.1	
791.26	6365.1	
791.44	4595.6	
791.61	3999	
791.79	5563.6	
791.96	5593	
792.14	4063.9	
792.32	3620.1	
792.49	5537	
792.67	5614.2	
792.84	4145.8	
793.02	3966.9	
793.19	5972.6	
793.37	6802.7	
793.54	3633.1	
793.72	3935.5	
793.89	6886.6	
794.07	5501.5	
794.25	4715.8	
794.42	3723.9	
794.6	6638.8	
794.77	6212.9	
794.95	4945.2	
795.12	4333.5	
795.3	5433.3	
795.47	6125.5	
795.65	4694.6	
795.82	4545.8	
796	5273.5	
796.17	7347.4	
796.35	4360.8	
796.52	5115.1	
796.7	6059.3	
796.87	6105.7	
797.05	5375.9	
797.22	5353.4	
797.4	6061.3	
797.57	7167.9	
797.75	4479.6	
797.92	4198.3	
798.1	6397.2	
798.27	5455.1	
798.45	3648.8	
798.62	3946.4	
798.8	5682.4	
798.97	6275.7	
799.15	4762.2	
799.32	4505.5	
799.5	5003.9	
799.67	5791.7	
799.85	4945.2	
800.02	3604.4	
800.2	5375.9	
800.37	5733.6	
800.55	5031.9	
800.72	4188.1	
800.9	6241.5	
801.07	6692.1	
801.25	5588.2	
801.42	4603.2	
801.6	6231.3	
801.77	5955.5	
801.95	4278.9	
802.12	4142.4	
802.29	5928.2	
802.47	5862	
802.64	4551.3	
802.82	3476.1	
802.99	5268.7	
803.17	6371.2	
803.34	4479.6	
803.52	4023.6	
803.69	7150.8	
803.87	5147.2	
804.04	4412	
804.21	4563.6	
804.39	6477	
804.56	5551.4	
804.74	3710.2	
804.91	4586.1	
805.09	5300.1	
805.26	5488.6	
805.44	3763.5	
805.61	4267.3	
805.78	6092	
805.96	6133	
806.13	4581.3	
806.31	4947.9	
806.48	4828.4	
806.66	5395.7	
806.83	4558.8	
807	4470.7	
807.18	5220.3	
807.35	5734.3	
807.53	4392.9	
807.7	3536.2	
807.87	6524.8	
808.05	5350.7	
808.22	4840	
808.4	3516.4	
808.57	5348.6	
808.74	4952.7	
808.92	4026.3	
809.09	5093.3	
809.27	5133.6	
809.44	5814.9	
809.61	3546.4	
809.79	4005.1	
809.96	6510.5	
810.14	6168.5	
810.31	3448.1	
810.48	4172.4	
810.66	5438.7	
810.83	6195.8	
811.01	4339	
811.18	4502.8	
811.35	6185.5	
811.53	4700.8	
811.7	4842.8	
811.87	4541	
812.05	5272.2	
812.22	5248.3	
812.39	3877.5	
812.57	3736.9	
812.74	5313.8	
812.92	7062.8	
813.09	4199	
813.26	4519.2	
813.44	6786.3	
813.61	5259.2	
813.78	3487	
813.96	4668.7	
814.13	5334.3	
814.3	4928.1	
814.48	5122	
814.65	4261.8	
814.82	6589.7	
815	5069.4	
815.17	4356.7	
815.34	5246.9	
815.52	5188.2	
815.69	5231.2	
815.87	4333.5	
816.04	3707.5	
816.21	5286.5	
816.38	4642.1	
816.56	4182.6	
816.73	3873.4	
816.9	6680.5	
817.08	6071.5	
817.25	3887	
817.42	4881	
817.6	4812.7	
817.77	5275.6	
817.94	4416.1	
818.12	3829	
818.29	5005.9	
818.46	7920.2	
818.64	4004.5	
818.81	3765.5	
818.98	4961.5	
819.16	7206.1	
819.33	4691.2	
819.5	4298.7	
819.67	5699.5	
819.85	6436.1	
820.02	4239.3	
820.19	4489.1	
820.37	5537.7	
820.54	5027.8	
820.71	4407.9	
820.88	5435.3	
821.06	5515.2	
821.23	5081.7	
821.4	4422.2	
821.58	4369	
821.75	6087.2	
821.92	5468.8	
822.09	3523.9	
822.27	3814.7	
822.44	5311.7	
822.61	5190.2	
822.79	3519.8	
822.96	6779.5	
823.13	5872.9	
823.3	5018.2	
823.48	4115.1	
823.65	3721.2	
823.82	5991	
823.99	4839.4	
824.17	5223.7	
824.34	3751.9	
824.51	6989	
824.68	5362.9	
824.86	3878.9	
825.03	4342.4	
825.2	5300.1	
825.37	6452.5	
825.55	3867.9	
825.72	4288.4	
825.89	7010.9	
826.06	6583.5	
826.24	4179.2	
826.41	4182	
826.58	6488	
826.75	5608	
826.92	3306.1	
827.1	3662.5	
827.27	8867.7	
827.44	7015	
827.61	4026.3	
827.79	4782	
827.96	4999.8	
828.13	5410.7	
828.3	4202.4	
828.47	3525.9	
828.65	5505.6	
828.82	5460.6	
828.99	5403.9	
829.16	4745.8	
829.34	5949.3	
829.51	5696.8	
829.68	4334.2	
829.85	4478.9	
830.02	6225.1	
830.2	5986.9	
830.37	3335.5	
830.54	5231.9	
830.71	6802	
830.88	5219.6	
831.05	3404.4	
831.23	3961.5	
831.4	6428.6	
831.57	7286	
831.74	3975.8	
831.91	3515.7	
832.09	5479	
832.26	5875.6	
832.43	4159.4	
832.6	4685.1	
832.77	5474.2	
832.94	6264.1	
833.12	3300.6	
833.29	4083.6	
833.46	5688.6	
833.63	7536.5	
833.8	4549.9	
833.97	4212.7	
834.15	5913.2	
834.32	5687.9	
834.49	4323.3	
834.66	4356	
834.83	6130.3	
835	4926.7	
835.17	3946.4	
835.35	3987.4	
835.52	5783.5	
835.69	5671.5	
835.86	4289.1	
836.03	3472.7	
836.2	5816.2	
836.37	5433.3	
836.55	4189.5	
836.72	3887.7	
836.89	5398.4	
837.06	5963	
837.23	4209.9	
837.4	4622.9	
837.57	6778.8	
837.75	7521.5	
837.92	3758.7	
838.09	4066.6	
838.26	5416.2	
838.43	6154.1	
838.6	4374.5	
838.77	3843.4	
838.94	7117.4	
839.11	6817.7	
839.29	4118.5	
839.46	3267.2	
839.63	5872.2	
839.8	5598.5	
839.97	3994.2	
840.14	4009.9	
840.31	5679	
840.48	5912.5	
840.65	3311.6	
840.82	4154.6	
841	5900.9	
841.17	5823.1	
841.34	3736.9	
841.51	3758	
841.68	5742.5	
841.85	5573.9	
842.02	3868.6	
842.19	3131.3	
842.36	5582.1	
842.53	5590.3	
842.7	3650.8	
842.87	4501.4	
843.05	7452.6	
843.22	5507	
843.39	3558	
843.56	3748.5	
843.73	5234.6	
843.9	5919.3	
844.07	6023.1	
844.24	5020.9	
844.41	8729.8	
844.58	5100.8	
844.75	3519.1	
844.92	3959.4	
845.09	5853.8	
845.26	5848.3	
845.43	3671.3	
845.6	3831.1	
845.77	5903.6	
845.94	5584.8	
846.12	4074.1	
846.29	4259.8	
846.46	6161.7	
846.63	5839.4	
846.8	3646.1	
846.97	4364.2	
847.14	6375.3	
847.31	5801.9	
847.48	4113.7	
847.65	4556.7	
847.82	6191.7	
847.99	6061.3	
848.16	4904.2	
848.33	4560.1	
848.5	5425.1	
848.67	6364.4	
848.84	3620.1	
849.01	3822.2	
849.18	5261.9	
849.35	4921.3	
849.52	4603.8	
849.69	3550.5	
849.86	6087.9	
850.03	6279.1	
850.2	3654.3	
850.37	4478.9	
850.54	6240.8	
850.71	5505.6	
850.88	4379.9	
851.05	3596.9	
851.22	5745.2	
851.39	6464.8	
851.56	3403.7	
851.73	4209.9	
851.9	5097.4	
852.07	6123.4	
852.24	4000.4	
852.41	3652.9	
852.58	5730.9	
852.75	5156.8	
852.92	4033.1	
853.09	3548.4	
853.26	5410.7	
853.43	6369.2	
853.6	3657	
853.77	3144.3	
853.94	6423.8	
854.11	5787.6	
854.28	5453.7	
854.44	3983.3	
854.61	6863.4	
854.78	6182.8	
854.95	3609.2	
855.12	4536.9	
855.29	4672.1	
855.46	6450.4	
855.63	3599	
855.8	5075.5	
855.97	5406	
856.14	6148	
856.31	5201.2	
856.48	3977.8	
856.65	5375.9	
856.82	5091.3	
856.99	3429	
857.16	3976.5	
857.33	7110.5	
857.49	5509	
857.66	3919.1	
857.83	4156	
858	5379.3	
858.17	5624.4	
858.34	3426.3	
858.51	3648.1	
858.68	6613.6	
858.85	6587.6	
859.02	4203.1	
859.19	4567.7	
859.36	5122	
859.52	5182	
859.69	3642	
859.86	4330.1	
860.03	5174.5	
860.2	6434.7	
860.37	3334.8	
860.54	3644	
860.71	6074.3	
860.88	6496.2	
861.05	4083	
861.21	4584	
861.38	6575.3	
861.55	4965	
861.72	3306.8	
861.89	4076.8	
862.06	6124.1	
862.23	6669.6	
862.4	3517	
862.56	3795.6	
862.73	5955.5	
862.9	5558.2	
863.07	4235.9	
863.24	3248.1	
863.41	4973.2	
863.58	5078.3	
863.75	3659.7	
863.91	4218.8	
864.08	6500.3	
864.25	6034.7	
864.42	4614.1	
864.59	5093.3	
864.76	6851.8	
864.93	5162.2	
865.09	3560.7	
865.26	3841.3	
865.43	6376.7	
865.6	6745.3	
865.77	3180.5	
865.94	3611.9	
866.1	6384.2	
866.27	6109.1	
866.44	5511.1	
866.61	3473.4	
866.78	5545.9	
866.95	5977.3	
867.11	3528	
867.28	3188.7	
867.45	6141.2	
867.62	5286.5	
867.79	4181.3	
867.96	3551.2	
868.12	5100.8	
868.29	6183.5	
868.46	3123.8	
868.63	4837.3	
868.8	6224.5	
868.97	6005.3	
869.13	3782.6	
869.3	3748.5	
869.47	5915.2	
869.64	6195.1	
869.81	3654.9	
869.97	3624.2	
870.14	5844.2	
870.31	6563.1	
870.48	3607.2	
870.65	4603.8	
870.81	5442.1	
870.98	5406.6	
871.15	4100	
871.32	3763.5	
871.48	5955.5	
871.65	6532.3	
871.82	3612.6	
871.99	3966.2	
872.16	7086	
872.32	6405.4	
872.49	3659	
872.66	3667.2	
872.83	6068.8	
872.99	5324	
873.16	4171	
873.33	3624.2	
873.5	5695.4	
873.67	5696.8	
873.83	3800.3	
874	4846.9	
874.17	5894.7	
874.34	7012.9	
874.5	4685.8	
874.67	4528.1	
874.84	6467.5	
875.01	5108.3	
875.17	5104.2	
875.34	3624.2	
875.51	5692.7	
875.68	6954.9	
875.84	4409.3	
876.01	5349.3	
876.18	5961.6	
876.34	5975.3	
876.51	3650.2	
876.68	3550.5	
876.85	5489.9	
877.01	6358.9	
877.18	5189.6	
877.35	3553.2	
877.52	5629.2	
877.68	4995	
877.85	3541.6	
878.02	3523.9	
878.18	5595.7	
878.35	5229.1	
878.52	2880.8	
878.69	4064.5	
878.85	6081.8	
879.02	6066.8	
879.19	5119.2	
879.35	3954.6	
879.52	5960.3	
879.69	6241.5	
879.86	3125.9	
880.02	4007.9	
880.19	5613.5	
880.36	6837.5	
880.52	4144.4	
880.69	4331.5	
880.86	6135	
881.02	6204.7	
881.19	3961.5	
881.36	3959.4	
881.52	5971.2	
881.69	5315.2	
881.86	3901.4	
882.02	3807.2	
882.19	6306.4	
882.36	7462.8	
882.52	3704.8	
882.69	5080.3	
882.86	5808.7	
883.02	5697.4	
883.19	4416.1	
883.36	4157.4	
883.52	6161	
883.69	6990.4	
883.86	3708.2	
884.02	3223.5	
884.19	6082.5	
884.36	5573.2	
884.52	4034.5	
884.69	3812.6	
884.86	5336.3	
885.02	6747.4	
885.19	4035.9	
885.36	4241.3	
885.52	5612.1	
885.69	5761.6	
885.86	5296	
886.02	4683.7	
886.19	6078.4	
886.35	5550	
886.52	3930.7	
886.69	5090.6	
886.85	5099.4	
887.02	6470.2	
887.19	6470.2	
887.35	6470.2	
887.52	6470.2	
887.68	6470.2	
887.85	6470.2	
888.02	6470.2	
888.18	6470.2	
888.35	6470.2	
888.51	6470.2	
888.68	6470.2	
888.85	6470.2	
889.01	6470.2	
889.18	6470.2	
889.35	6470.2	
889.51	6470.2	
889.68	6470.2	
889.84	6470.2	
890.01	6470.2	
890.17	6470.2	
890.34	6470.2	
890.51	6470.2	
890.67	6470.2	
890.84	6470.2	
891	6470.2	
891.17	6470.2	
891.34	6470.2	
891.5	6470.2	
891.67	6470.2	
891.83	6470.2	
892	6470.2	
892.16	6470.2	
892.33	6470.2	
892.5	6470.2	
892.66	6470.2	
892.83	6470.2	
892.99	6470.2	
893.16	6470.2	
893.32	6470.2	
893.49	6470.2	
893.65	6470.2	
893.82	6470.2	
893.99	6470.2	
894.15	6470.2	
894.32	6470.2	
894.48	6470.2	
894.65	6470.2	
894.81	6470.2	
894.98	6470.2	
895.14	6470.2	
895.31	6470.2	
895.47	6470.2	
895.64	6470.2	
895.81	6470.2	
895.97	6470.2	
896.14	6470.2	
896.3	6470.2	
896.47	6470.2	
896.63	6470.2	
896.8	6470.2	
896.96	6470.2	
897.13	6470.2	
897.29	6470.2	
897.46	6470.2	
897.62	6470.2	
897.79	6470.2	
897.95	6470.2	
898.12	6470.2	
898.28	6470.2	
898.45	6470.2	
898.61	6470.2	
898.78	6470.2	
898.94	6470.2	
899.11	6470.2	
899.27	6470.2	
899.44	6470.2	
899.6	6470.2	
899.77	6470.2	
899.93	6470.2	
900.1	6470.2	
900.26	6470.2	
900.43	6470.2	
900.59	6470.2	
900.76	6470.2	
900.92	6470.2	
901.09	6470.2	
901.25	6470.2	
901.42	6470.2	
901.58	6470.2	
901.75	6470.2	
901.91	6470.2	
902.07	6470.2	
902.24	6470.2	
902.4	6470.2	
902.57	6470.2	
902.73	6470.2	
902.9	6470.2	
903.06	6470.2	
903.23	6470.2	
903.39	6470.2	
903.56	6470.2	
903.72	6470.2	
903.88	6470.2	
904.05	6470.2	
904.21	6470.2	
904.38	6470.2	
904.54	6470.2	
904.71	6470.2	
904.87	6470.2	
905.03	6470.2	
905.2	6470.2	
905.36	6470.2	
905.53	6470.2	
905.69	6470.2	
905.86	6470.2	
906.02	6470.2	
906.18	6470.2	
906.35	6470.2	
906.51	6470.2	
906.68	6470.2	
906.84	6470.2	
907.01	6470.2	
907.17	6470.2	
907.33	6470.2	
907.5	6470.2	
907.66	6470.2	
907.83	6470.2	
907.99	6470.2	
908.15	6470.2	
908.32	6470.2	
908.48	6470.2	
908.65	6470.2	
908.81	6470.2	
908.97	6470.2	
909.14	6470.2	
909.3	6470.2	
909.47	6470.2	
909.63	6470.2	
909.79	6470.2	
909.96	6470.2	
910.12	6470.2	
910.28	6470.2	
910.45	6470.2	
910.61	6470.2	
910.78	6470.2	
910.94	6470.2	
911.1	6470.2	
911.27	6470.2	
911.43	6470.2	
911.59	6470.2	
911.76	6470.2	
911.92	6470.2	
912.08	6470.2	
912.25	6470.2	
912.41	6470.2	
912.57	6470.2	
912.74	6470.2	
912.9	6470.2	
913.07	6470.2	
913.23	6470.2	
913.39	6470.2	
913.56	6470.2	
913.72	6470.2	
913.88	6470.2	
914.05	6470.2	
914.21	6470.2	
914.37	6470.2	
914.54	6470.2	
914.7	6470.2	
914.86	6470.2	
915.03	6470.2	
915.19	6470.2	
