Wavelength	Intensities	
nm	a.u.	
179.22	1927.5	
179.44	1934.6	
179.65	1920.3	
179.86	1949	
180.08	1903.9	
180.29	5014.1	
180.51	3563.5	
180.72	5681.1	
180.94	6657.9	
181.15	3271.3	
181.37	3243.3	
181.58	5634	
181.79	5827.2	
182.01	3414	
182.22	3687	
182.44	5843.5	
182.65	4860.5	
182.87	4608.6	
183.08	4083.6	
183.29	6123.4	
183.51	5085.8	
183.72	3744.4	
183.94	5456.5	
184.15	5416.9	
184.37	5444.9	
184.58	3195.5	
184.79	4497.3	
185.01	5036.6	
185.22	5854.5	
185.44	4748.6	
185.65	3974.4	
185.86	5316.5	
186.08	4923.3	
186.29	3140.9	
186.51	3448.8	
186.72	5044.8	
186.94	6073.6	
187.15	3889.1	
187.36	4023.6	
187.58	7870.3	
187.79	5565	
188.01	4308.9	
188.22	6666.1	
188.43	6689.3	
188.65	5794.4	
188.86	3384.6	
189.08	4061.8	
189.29	5240.8	
189.5	5270.1	
189.72	3777.8	
189.93	3945.8	
190.15	6047	
190.36	7189.1	
190.57	4157.4	
190.79	4051.6	
191	6156.2	
191.22	6060.6	
191.43	4141	
191.64	3388	
191.86	6309.8	
192.07	6055.2	
192.29	3558.7	
192.5	3772.4	
192.71	6068.1	
192.93	5102.2	
193.14	3761.4	
193.35	3857	
193.57	5195	
193.78	6105	
194	3025.5	
194.21	3734.8	
194.42	4978.6	
194.64	5471.5	
194.85	4115.1	
195.07	4817.5	
195.28	5595.7	
195.49	4721.9	
195.71	5063.9	
195.92	3489.1	
196.13	5634.6	
196.35	5778.7	
196.56	5467.4	
196.78	4061.1	
196.99	7161.1	
197.2	6653.9	
197.42	4676.9	
197.63	4170.3	
197.84	4886.5	
198.06	5681.1	
198.27	3813.3	
198.48	5090.6	
198.7	5279	
198.91	5309.7	
199.13	4121.9	
199.34	4128	
199.55	5881.1	
199.77	4697.4	
199.98	3601.7	
200.19	4196.3	
200.41	5228.5	
200.62	5111.7	
200.83	4296.6	
201.05	4569.7	
201.26	5375.9	
201.47	5097.4	
201.69	3618.8	
201.9	3469.3	
202.11	5389.6	
202.33	6540.5	
202.54	3906.2	
202.76	4359.4	
202.97	5571.8	
203.18	5611.4	
203.4	4272.1	
203.61	4156	
203.82	5513.8	
204.04	5121.3	
204.25	4199	
204.46	4123.2	
204.68	5544.5	
204.89	5730.9	
205.1	3998.3	
205.32	3443.3	
205.53	5896.8	
205.74	6075	
205.96	2954.5	
206.17	4250.9	
206.38	5885.2	
206.6	6032	
206.81	4688.5	
207.02	3835.8	
207.24	5747.3	
207.45	6164.4	
207.66	3944.4	
207.88	3418.7	
208.09	5670.8	
208.3	5471.5	
208.52	3623.5	
208.73	3908.2	
208.94	5475.6	
209.15	6195.8	
209.37	3929.4	
209.58	4166.3	
209.79	6006	
210.01	5304.9	
210.22	3121.8	
210.43	3280.8	
210.65	5489.2	
210.86	5903.6	
211.07	3958	
211.29	3597.6	
211.5	5857.9	
211.71	5446.9	
211.93	3602.4	
212.14	3569.6	
212.35	5394.3	
212.56	5621.7	
212.78	4086.4	
212.99	3433.8	
213.2	6418.3	
213.42	5235.3	
213.63	3745.7	
213.84	3998.3	
214.06	4830.5	
214.27	4921.3	
214.48	3926.6	
214.69	4217.5	
214.91	6182.1	
215.12	6260	
215.33	4222.9	
215.55	4758.8	
215.76	6759.7	
215.97	5862.7	
216.18	4059.1	
216.4	3952.6	
216.61	5165.7	
216.82	5920.7	
217.04	3679.5	
217.25	3772.4	
217.46	6161	
217.67	5851	
217.89	3239.2	
218.1	3391.4	
218.31	5561.6	
218.53	5663.3	
218.74	3811.3	
218.95	3678.8	
219.16	5364.3	
219.38	6363	
219.59	3674.7	
219.8	4399	
220.01	7063.4	
220.23	5488.6	
220.44	4857.1	
220.65	3603.1	
220.87	5489.9	
221.08	6087.2	
221.29	3343.7	
221.5	4481.6	
221.72	7552.2	
221.93	5153.4	
222.14	4141	
222.35	4913.1	
222.57	5440.1	
222.78	5778.7	
222.99	3913	
223.2	4326	
223.42	5819.6	
223.63	5961.6	
223.84	3050.1	
224.05	2929.3	
224.27	7023.2	
224.48	6441.5	
224.69	4941.1	
224.9	4119.1	
225.12	5638.1	
225.33	5395	
225.54	3336.8	
225.75	3715.7	
225.97	4976.6	
226.18	5335.6	
226.39	4039.3	
226.6	3743	
226.82	5200.5	
227.03	5086.5	
227.24	4145.1	
227.45	3414	
227.67	5869.5	
227.88	6391	
228.09	4640.7	
228.3	4674.8	
228.52	5902.9	
228.73	5363.6	
228.94	3844.7	
229.15	3424.2	
229.36	5359.5	
229.58	5362.3	
229.79	3878.2	
230	4528.1	
230.21	6571.2	
230.43	5574.6	
230.64	4133.5	
230.85	4287.1	
231.06	5831.2	
231.28	5859.9	
231.49	3351.8	
231.7	4016.7	
231.91	5825.1	
232.12	5535	
232.34	3492.5	
232.55	4022.2	
232.76	6161.7	
232.97	5657.9	
233.18	3615.3	
233.4	4108.2	
233.61	5754.1	
233.82	5317.9	
234.03	3801.7	
234.25	3764.2	
234.46	7593.9	
234.67	5549.3	
234.88	4220.9	
235.09	3657.7	
235.31	5783.5	
235.52	5332.9	
235.73	4040	
235.94	3511.6	
236.15	5145.2	
236.37	6689.3	
236.58	3600.3	
236.79	3954.6	
237	5791	
237.21	4997	
237.43	4244.8	
237.64	3340.9	
237.85	9998.9	
238.06	5040.7	
238.27	4295.3	
238.48	3463.1	
238.7	5887.9	
238.91	5274.9	
239.12	3958	
239.33	3979.9	
239.54	5122	
239.76	5385.5	
239.97	3861.1	
240.18	3936.9	
240.39	6890	
240.6	5732.9	
240.82	4087.1	
241.03	3345	
241.24	5458.5	
241.45	6323.4	
241.66	3577.1	
241.87	4248.2	
242.09	6285.2	
242.3	6612.9	
242.51	4328.7	
242.72	3919.1	
242.93	5975.3	
243.14	5461.2	
243.36	4600.4	
243.57	4971.8	
243.78	6388.3	
243.99	5881.1	
244.2	3984.7	
244.41	3653.6	
244.63	5058.5	
244.84	5776	
245.05	4248.9	
245.26	4009.2	
245.47	5724.1	
245.68	6068.1	
245.9	5273.5	
246.11	4190.8	
246.32	5269.4	
246.53	5760.3	
246.74	6452.5	
246.95	3362.1	
247.16	4985.4	
247.38	5451.7	
247.59	3286.3	
247.8	4014.7	
248.01	5165	
248.22	5392.3	
248.43	3599.6	
248.64	3864.5	
248.86	4843.4	
249.07	5259.9	
249.28	3549.1	
249.49	4055.7	
249.7	6010.1	
249.91	6180.8	
250.12	3271.3	
250.34	3345.7	
250.55	5597.8	
250.76	5455.1	
250.97	4091.8	
251.18	4143	
251.39	6208.8	
251.6	5678.3	
251.81	4199.7	
252.03	4245.4	
252.24	5154.1	
252.45	6038.1	
252.66	3371.6	
252.87	4374.5	
253.08	5456.5	
253.29	7271.7	
253.5	3491.8	
253.72	4866.7	
253.93	5305.6	
254.14	6543.9	
254.35	3711.6	
254.56	3909.6	
254.77	5762.3	
254.98	5079	
255.19	3681.6	
255.41	4797.7	
255.62	5609.4	
255.83	6151.4	
256.04	4252.3	
256.25	4158.1	
256.46	6626.5	
256.67	5211.4	
256.88	4104.1	
257.09	4549.9	
257.31	5166.3	
257.52	5183.4	
257.73	5175.2	
257.94	3784	
258.15	5301.5	
258.36	5479.7	
258.57	4753.3	
258.78	3013.9	
258.99	5941.8	
259.2	5331.5	
259.41	3806.5	
259.63	3833.1	
259.84	6368.5	
260.05	6857.3	
260.26	5027.1	
260.47	3675.4	
260.68	6047.7	
260.89	5393.7	
261.1	4562.2	
261.31	3575.1	
261.52	6068.1	
261.73	6496.8	
261.95	4844.8	
262.16	4276.2	
262.37	6159.6	
262.58	6296.1	
262.79	4893.3	
263	3881.6	
263.21	5506.3	
263.42	4924.7	
263.63	3887.7	
263.84	3830.4	
264.05	6067.4	
264.26	6460.7	
264.47	4801.1	
264.69	4074.1	
264.9	6203.3	
265.11	5735	
265.32	3674.1	
265.53	3784	
265.74	5634.6	
265.95	4909	
266.16	4070	
266.37	4443.4	
266.58	5635.3	
266.79	5338.4	
267	3723.9	
267.21	3419.4	
267.42	5086.5	
267.63	5483.8	
267.84	3924.6	
268.06	3416.7	
268.27	5969.1	
268.48	6264.1	
268.69	3881.6	
268.9	4620.2	
269.11	6107	
269.32	4915.1	
269.53	3930.7	
269.74	3666.5	
269.95	5834	
270.16	4823.6	
270.37	4042.7	
270.58	4567	
270.79	5289.9	
271	5978.7	
271.21	4281.6	
271.42	4015.4	
271.63	5609.4	
271.84	5158.2	
272.05	3186	
272.26	3599.6	
272.47	5509.7	
272.68	5763	
272.89	3795.6	
273.11	4431.1	
273.32	5292	
273.53	6466.8	
273.74	4267.3	
273.95	4184.7	
274.16	6177.4	
274.37	5533.6	
274.58	4395.6	
274.79	3508.2	
275	5633.3	
275.21	6216.3	
275.42	5216.2	
275.63	4488.5	
275.84	5698.8	
276.05	7265.5	
276.26	4130.1	
276.47	3920.5	
276.68	5313.1	
276.89	6517.3	
277.1	4490.5	
277.31	3477.5	
277.52	5735.7	
277.73	5894.7	
277.94	3433.8	
278.15	3780.6	
278.36	5679.7	
278.57	5104.9	
278.78	3788.7	
278.99	4290.5	
279.2	5106.3	
279.41	5080.3	
279.62	4972.5	
279.83	3520.5	
280.04	6713.9	
280.25	4971.1	
280.46	5002.5	
280.67	3962.8	
280.88	5072.8	
281.09	6135.7	
281.3	4182.6	
281.51	5256.5	
281.72	5231.2	
281.93	6077	
282.14	3704.1	
282.35	3978.5	
282.56	6019.7	
282.77	5915.2	
282.98	3855	
283.19	4713.7	
283.4	7366.5	
283.61	5414.1	
283.82	3424.9	
284.03	4989.5	
284.24	5634	
284.45	6126.2	
284.66	4906.3	
284.87	4757.4	
285.08	6044.2	
285.29	6247	
285.5	3317	
285.71	3882.3	
285.92	6163	
286.12	6825.2	
286.33	4919.9	
286.54	3860.4	
286.75	5992.4	
286.96	5324.7	
287.17	3517	
287.38	4773.8	
287.59	5100.8	
287.8	4999.1	
288.01	3953.3	
288.22	4535.6	
288.43	6078.4	
288.64	5036.6	
288.85	4645.5	
289.06	4401.8	
289.27	5938.4	
289.48	6470.2	
289.69	4919.2	
289.9	4481.6	
290.11	6182.1	
290.32	5152	
290.53	4728.8	
290.74	4373.1	
290.94	5992.4	
291.15	5967.1	
291.36	3690.4	
291.57	4467.3	
291.78	5253.7	
291.99	4939.7	
292.2	3541.6	
292.41	4264.6	
292.62	6049.7	
292.83	5840.8	
293.04	5322	
293.25	3599.6	
293.46	5242.8	
293.67	6105	
293.88	3719.8	
294.09	3586.7	
294.29	5014.8	
294.5	5689.9	
294.71	3960.1	
294.92	3831.1	
295.13	5244.8	
295.34	6591	
295.55	3350.5	
295.76	3488.4	
295.97	5915.9	
296.18	6710.5	
296.39	3493.2	
296.6	3726.6	
296.81	5611.4	
297.01	5923.4	
297.22	3918.4	
297.43	3676.1	
297.64	5122	
297.85	5116.5	
298.06	3059.7	
298.27	3357.3	
298.48	5613.5	
298.69	5146.5	
298.9	4041.3	
299.11	3652.9	
299.31	5003.2	
299.52	5061.9	
299.73	4299.4	
299.94	4187.4	
300.15	5504.9	
300.36	5119.9	
300.57	4254.3	
300.78	4225.6	
300.99	5362.9	
301.2	5666.7	
301.4	3653.6	
301.61	4059.1	
301.82	5825.8	
302.03	5941.8	
302.24	4521.2	
302.45	3567.6	
302.66	5766.4	
302.87	6249	
303.08	3788.1	
303.29	5080.3	
303.49	5267.4	
303.7	5511.1	
303.91	3280.2	
304.12	4863.2	
304.33	4964.3	
304.54	5586.9	
304.75	3801.7	
304.96	3533.4	
305.16	5888.6	
305.37	6604	
305.58	3251.5	
305.79	3407.8	
306	5874.9	
306.21	4872.1	
306.42	3752.6	
306.63	5752.7	
306.83	5311.1	
307.04	6105.7	
307.25	4064.5	
307.46	4110.3	
307.67	4696.7	
307.88	5999.9	
308.09	3675.4	
308.29	3787.4	
308.5	5603.9	
308.71	6064	
308.92	4018.1	
309.13	3565.5	
309.34	5450.3	
309.55	5442.1	
309.75	4614.8	
309.96	4240.7	
310.17	5892	
310.38	5139.7	
310.59	4419.5	
310.8	3506.8	
311.01	5300.1	
311.21	5358.2	
311.42	3517	
311.63	3638.6	
311.84	5204.6	
312.05	5646.9	
312.26	4177.9	
312.46	4497.3	
312.67	5308.3	
312.88	5025	
313.09	3634.5	
313.3	3496.6	
313.51	6317.3	
313.71	6691.4	
313.92	3605.1	
314.13	3832.4	
314.34	5673.6	
314.55	5381.4	
314.76	4648.9	
314.96	4031.8	
315.17	5572.5	
315.38	5946.6	
315.59	3614.7	
315.8	3472	
316.01	6357.6	
316.21	6408.1	
316.42	3422.8	
316.63	3984.7	
316.84	5367.7	
317.05	6249.7	
317.26	4291.9	
317.46	3848.8	
317.67	5420.3	
317.88	5889.3	
318.09	4601.8	
318.3	3316.3	
318.5	5171.8	
318.71	5864	
318.92	5911.1	
319.13	4244.8	
319.34	6044.2	
319.54	6200.6	
319.75	3321.8	
319.96	3222.8	
320.17	6024.4	
320.38	6087.2	
320.58	3224.9	
320.79	4003.1	
321	6092	
321.21	6246.3	
321.42	4016.7	
321.62	3277.4	
321.83	5096	
322.04	5498.8	
322.25	3834.5	
322.46	3616.7	
322.66	5616.9	
322.87	5811.5	
323.08	4467.3	
323.29	3558.7	
323.5	6569.2	
323.7	5079	
323.91	4911.7	
324.12	4373.8	
324.33	5519.3	
324.53	5773.9	
324.74	4238.6	
324.95	4491.2	
325.16	4868.7	
325.37	5264	
325.57	3598.3	
325.78	3708.9	
325.99	5602.6	
326.2	4963.6	
326.4	5085.1	
326.61	3376.4	
326.82	5446.2	
327.03	5620.3	
327.24	5181.4	
327.44	4907.6	
327.65	5724.8	
327.86	4683.7	
328.07	4261.1	
328.27	3434.4	
328.48	6222.4	
328.69	5077.6	
328.9	5231.2	
329.1	3883.6	
329.31	5386.2	
329.52	6300.9	
329.73	3615.3	
329.93	4052.2	
330.14	5485.1	
330.35	5732.3	
330.56	5964.4	
330.76	4513.7	
330.97	5288.5	
331.18	5702.2	
331.39	3985.3	
331.59	3210.5	
331.8	6146.6	
332.01	6204	
332.22	3733.4	
332.42	4330.1	
332.63	5576.6	
332.84	5205.3	
333.05	4037.2	
333.25	3699.3	
333.46	5255.1	
333.67	5433.3	
333.88	3768.3	
334.08	4207.9	
334.29	7364.5	
334.5	6234.7	
334.7	3541.6	
334.91	5231.9	
335.12	5007.3	
335.33	5950.7	
335.53	4044.7	
335.74	5944.6	
335.95	5264.6	
336.16	5181.4	
336.36	4045.4	
336.57	4610	
336.78	5018.9	
336.98	6152.1	
337.19	4931.5	
337.4	3922.5	
337.61	6612.9	
337.81	5009.3	
338.02	3672	
338.23	4789.5	
338.43	6275	
338.64	5146.5	
338.85	3610.6	
339.05	4838	
339.26	6363.7	
339.47	4923.3	
339.68	3660.4	
339.88	5352	
340.09	5739.1	
340.3	5936.4	
340.5	4243.4	
340.71	3223.5	
340.92	4952.7	
341.13	6272.9	
341.33	3535.5	
341.54	4253.6	
341.75	5691.3	
341.95	5390.9	
342.16	4119.8	
342.37	4456.4	
342.57	5084.4	
342.78	5490.6	
342.99	4571.7	
343.19	3302.7	
343.4	5961	
343.61	5784.1	
343.81	3868.6	
344.02	3561.4	
344.23	5986.9	
344.43	6390.3	
344.64	4467.3	
344.85	4411.3	
345.06	5783.5	
345.26	6152.1	
345.47	4232.5	
345.68	4914.4	
345.88	4858.5	
346.09	6008.1	
346.3	4263.9	
346.5	3231.7	
346.71	5530.2	
346.92	5177.9	
347.12	3287	
347.33	4212.7	
347.54	6104.3	
347.74	6510.5	
347.95	4135.5	
348.16	3073.3	
348.36	5216.9	
348.57	5040.1	
348.78	4118.5	
348.98	4462.5	
349.19	5438.7	
349.39	4921.3	
349.6	3297.2	
349.81	3680.2	
350.01	5767.8	
350.22	5199.8	
350.43	4007.2	
350.63	4874.2	
350.84	5519.3	
351.05	5337.7	
351.25	3663.1	
351.46	3291.1	
351.67	6093.4	
351.87	5216.2	
352.08	3876.1	
352.29	4469.4	
352.49	5988.3	
352.7	5659.2	
352.9	3510.9	
353.11	4384.7	
353.32	6718	
353.52	5204.6	
353.73	3529.3	
353.94	4435.9	
354.14	5806	
354.35	5702.9	
354.55	3619.4	
354.76	4050.9	
354.97	5812.8	
355.17	5539.8	
355.38	3378.5	
355.59	4787.5	
355.79	5221	
356	5670.1	
356.2	3998.3	
356.41	3487.7	
356.62	4895.3	
356.82	5431.9	
357.03	4298.7	
357.24	3895.9	
357.44	5216.2	
357.65	5378	
357.85	5195	
358.06	4037.2	
358.27	4967	
358.47	5183.4	
358.68	3315.7	
358.88	4315.1	
359.09	5822.4	
359.3	6172.6	
359.5	5031.9	
359.71	4427	
359.91	6680.5	
360.12	5965.7	
360.33	4268	
360.53	4790.2	
360.74	5247.6	
360.94	5237.3	
361.15	4500.8	
361.36	3640.6	
361.56	6070.9	
361.77	5445.5	
361.97	4997	
362.18	3936.2	
362.38	6052.4	
362.59	5088.5	
362.8	3629.7	
363	3428.3	
363.21	4911	
363.41	5597.1	
363.62	4153.3	
363.83	5229.1	
364.03	5620.3	
364.24	6666.8	
364.44	5328.8	
364.65	5177.9	
364.85	5430.5	
365.06	5264	
365.27	3830.4	
365.47	3794.2	
365.68	6444.3	
365.88	5348.6	
366.09	4253.6	
366.29	3941	
366.5	5691.3	
366.71	6096.8	
366.91	5225.7	
367.12	4388.8	
367.32	6718	
367.53	6001.9	
367.73	4318.5	
367.94	5313.1	
368.14	5920	
368.35	6890	
368.56	4367	
368.76	3641.3	
368.97	6008.7	
369.17	7740.6	
369.38	3774.4	
369.58	4081.6	
369.79	5076.9	
369.99	6382.8	
370.2	5204.6	
370.4	4284.4	
370.61	5760.9	
370.82	7014.3	
371.02	4124.6	
371.23	3383.2	
371.43	4919.9	
371.64	6296.1	
371.84	4055	
372.05	5393	
372.25	7750.9	
372.46	6052.4	
372.66	4094.6	
372.87	4003.1	
373.07	6091.3	
373.28	7824.6	
373.48	5183.4	
373.69	4893.3	
373.9	5509	
374.1	5631.9	
374.31	5137	
374.51	4575.2	
374.72	6481.8	
374.92	5270.8	
375.13	5332.2	
375.33	4484.4	
375.54	6006	
375.74	5394.3	
375.95	4515.8	
376.15	5836	
376.36	5982.1	
376.56	5821	
376.77	4629.8	
376.97	5099.4	
377.18	7059.3	
377.38	6141.9	
377.59	5446.2	
377.79	4078.9	
378	5918.6	
378.2	6395.1	
378.41	4123.2	
378.61	4069.3	
378.82	6367.1	
379.02	5404.6	
379.23	4319.8	
379.43	5488.6	
379.64	6419.7	
379.84	6068.1	
380.05	4109.6	
380.25	4018.1	
380.46	6196.5	
380.66	5715.2	
380.87	5554.8	
381.07	5913.2	
381.28	6828.6	
381.48	6136.4	
381.69	4165.6	
381.89	4237.9	
382.1	5042.8	
382.3	6402.6	
382.51	5350.7	
382.71	6210.1	
382.91	6191	
383.12	6756.9	
383.32	4556	
383.53	4785.4	
383.73	6076.3	
383.94	5794.4	
384.14	4666.6	
384.35	3780.6	
384.55	5722	
384.76	6200.6	
384.96	4579.9	
385.17	4853	
385.37	6199.9	
385.58	5500.8	
385.78	4923.3	
385.98	3710.2	
386.19	5754.8	
386.39	6089.3	
386.6	4371.7	
386.8	4628.4	
387.01	6255.2	
387.21	6265.4	
387.42	5046.9	
387.62	5776.6	
387.83	5496.1	
388.03	6288.6	
388.23	4650.3	
388.44	5573.9	
388.64	5174.5	
388.85	5378	
389.05	5041.4	
389.26	5707	
389.46	7351.5	
389.67	6678.4	
389.87	5001.1	
390.07	5087.8	
390.28	5914.5	
390.48	5433.9	
390.69	4237.9	
390.89	4545.1	
391.1	5632.6	
391.3	6650.4	
391.5	5752.1	
391.71	6363	
391.91	6338.5	
392.12	7461.4	
392.32	5817.6	
392.53	5018.9	
392.73	5718.6	
392.93	5897.5	
393.14	4737.6	
393.34	5530.9	
393.55	6435.4	
393.75	5926.8	
393.95	4803.2	
394.16	4688.5	
394.36	5686.5	
394.57	6507.8	
394.77	4171	
394.98	4724.7	
395.18	5680.4	
395.38	5782.1	
395.59	5585.5	
395.79	4498.7	
396	5868.1	
396.2	6342.6	
396.4	5380.7	
396.61	5360.2	
396.81	6519.4	
397.02	5830.6	
397.22	5642.2	
397.42	5737.7	
397.63	6554.2	
397.83	5737.7	
398.04	4483.7	
398.24	5033.9	
398.44	6315.9	
398.65	5357.5	
398.85	4375.8	
399.05	4456.4	
399.26	5771.2	
399.46	7576.1	
399.67	4886.5	
399.87	4485.7	
400.07	6140.5	
400.28	6576	
400.48	4700.1	
400.69	5812.1	
400.89	6769.2	
401.09	7268.2	
401.3	4498	
401.5	5812.8	
401.7	7492.8	
401.91	7665.5	
402.11	4844.8	
402.32	5051	
402.52	6742.6	
402.72	6556.2	
402.93	5287.9	
403.13	4141	
403.33	7542	
403.54	6213.5	
403.74	5116.5	
403.94	6043.6	
404.15	6352.1	
404.35	7556.3	
404.56	4997	
404.76	6845	
404.96	6796.5	
405.17	6541.9	
405.37	6542.6	
405.57	5362.3	
405.78	6797.9	
405.98	6140.5	
406.18	4857.1	
406.39	5833.3	
406.59	6867.5	
406.79	6396.5	
407	4801.8	
407.2	5028.4	
407.4	7040.2	
407.61	7238.9	
407.81	5020.9	
408.01	7101	
408.22	5934.3	
408.42	8200.1	
408.62	6244.3	
408.83	5672.2	
409.03	6744	
409.23	6445.6	
409.44	5832.6	
409.64	6099.5	
409.84	7659.4	
410.05	7643.7	
410.25	5913.2	
410.45	5844.9	
410.66	7095.5	
410.86	9708.1	
411.06	6237.4	
411.27	6156.9	
411.47	9485.5	
411.67	7261.4	
411.88	6404.7	
412.08	6642.2	
412.28	8028	
412.49	8582.4	
412.69	6089.3	
412.89	6151.4	
413.09	8363.9	
413.3	8234.2	
413.5	6359.6	
413.7	5809.4	
413.91	7454.6	
414.11	8404.9	
414.31	6169.8	
414.52	6623.1	
414.72	7963.2	
414.92	7940.7	
415.12	6124.8	
415.33	6720.8	
415.53	8372.8	
415.73	8634.2	
415.94	7111.2	
416.14	6498.9	
416.34	7316.7	
416.55	7174.7	
416.75	7750.9	
416.95	7189.7	
417.15	8424	
417.36	9267.1	
417.56	8083.3	
417.76	7017	
417.97	8862.2	
418.17	8490.2	
418.37	6502.3	
418.57	6603.3	
418.78	8133.2	
418.98	7811.6	
419.18	7530.4	
419.38	7425.9	
419.59	8016.4	
419.79	7585	
419.99	6577.4	
420.2	6982.2	
420.4	8541.4	
420.6	8727.8	
420.8	6481.8	
421.01	6328.9	
421.21	8306.6	
421.41	8568	
421.61	6794.5	
421.82	6519.4	
422.02	7864.2	
422.22	8828.1	
422.42	7276.4	
422.63	6968.6	
422.83	8008.2	
423.03	9187.9	
423.23	7156.3	
423.44	5953.4	
423.64	8121.6	
423.84	7825.3	
424.04	6488	
424.25	6094.8	
424.45	9046.6	
424.65	9022	
424.85	5840.1	
425.06	6541.2	
425.26	8940.7	
425.46	7832.1	
425.66	7056.6	
425.87	6683.9	
426.07	8777.6	
426.27	8495	
426.47	6842.3	
426.67	6149.4	
426.88	9049.3	
427.08	8503.2	
427.28	7215.7	
427.48	6165.8	
427.69	7286	
427.89	8092.2	
428.09	7200	
428.29	6249	
428.5	8865	
428.7	8399.4	
428.9	6217	
429.1	6837.5	
429.3	8293.6	
429.51	8814.5	
429.71	6494.1	
429.91	7425.9	
430.11	8629.5	
430.31	8883.4	
430.52	6879.8	
430.72	7193.1	
430.92	9287.5	
431.12	8747.6	
431.32	6601.3	
431.53	7030	
431.73	7689.4	
431.93	9503.3	
432.13	6507.8	
432.33	6451.8	
432.54	8169.3	
432.74	8625.4	
432.94	6406.7	
433.14	7585	
433.34	8759.2	
433.55	8345.5	
433.75	7506.5	
433.95	9434.3	
434.15	8586.5	
434.35	8239.7	
434.56	6678.4	
434.76	6228.6	
434.96	8544.8	
435.16	8914.1	
435.36	6607.4	
435.56	7823.9	
435.77	8327	
435.97	8500.4	
436.17	8561.2	
436.37	7720.8	
436.57	8328.4	
436.78	8230.1	
436.98	8869.8	
437.18	8302.5	
437.38	8948.3	
437.58	8424.7	
437.78	8366	
437.99	6883.2	
438.19	8877.3	
438.39	10485	
438.59	7106.5	
438.79	6635.4	
438.99	9965.4	
439.2	8755.7	
439.4	6853.2	
439.6	6819.1	
439.8	9067.7	
440	10305	
440.2	7996	
440.4	8094.9	
440.61	9471.2	
440.81	10079	
441.01	7077.1	
441.21	8042.4	
441.41	9865.1	
441.61	9382.4	
441.81	8372.8	
442.02	9510.8	
442.22	10494	
442.42	9626.1	
442.62	7326.9	
442.82	7275.1	
443.02	10050	
443.22	9184.5	
443.43	7956.4	
443.63	7297.6	
443.83	8931.2	
444.03	9059.5	
444.23	8759.2	
444.43	8229.4	
444.63	9303.2	
444.83	10576	
445.04	7319.4	
445.24	8777.6	
445.44	9495.1	
445.64	9622.7	
445.84	8144.8	
446.04	8257.4	
446.24	8964	
446.44	10157	
446.65	7450.5	
446.85	7978.2	
447.05	9114.1	
447.25	9977.7	
447.45	7980.3	
447.65	7237.5	
447.85	9338.1	
448.05	8961.2	
448.25	8466.3	
448.46	8316.1	
448.66	9519	
448.86	9096.4	
449.06	7226.6	
449.26	8580.3	
449.46	9900.6	
449.66	8823.3	
449.86	8088.1	
450.06	7947.5	
450.26	9071.8	
450.47	9697.1	
450.67	8193.2	
450.87	8737.3	
451.07	9770.2	
451.27	9647.3	
451.47	7552.2	
451.67	8295	
451.87	9185.8	
452.07	10442	
452.27	7842.4	
452.47	7677.8	
452.67	9503.9	
452.88	10293	
453.08	7196.6	
453.28	9396.1	
453.48	11015	
453.68	9561.3	
453.88	7967.3	
454.08	8180.3	
454.28	10240	
454.48	9926.5	
454.68	8796	
454.88	9386.5	
455.08	10244	
455.28	10260	
455.48	7862.8	
455.68	8574.2	
455.89	10952	
456.09	10600	
456.29	8413.7	
456.49	8581	
456.69	11052	
456.89	10214	
457.09	9256.8	
457.29	9633	
457.49	10604	
457.69	10782	
457.89	9153.1	
458.09	8419.9	
458.29	10411	
458.49	11028	
458.69	9462.3	
458.89	8882.7	
459.09	11433	
459.29	11529	
459.49	9009.7	
459.69	9837.1	
459.9	11054	
460.1	10650	
460.3	8875.2	
460.5	8826.1	
460.7	11117	
460.9	10901	
461.1	8497.7	
461.3	9843.2	
461.5	12010	
461.7	11613	
461.9	9299.1	
462.1	9678	
462.3	11078	
462.5	11807	
462.7	9398.1	
462.9	9579.7	
463.1	12924	
463.3	12617	
463.5	9711.5	
463.7	10915	
463.9	11587	
464.1	11896	
464.3	10087	
464.5	10208	
464.7	12166	
464.9	12093	
465.1	11772	
465.3	10747	
465.5	12663	
465.7	12684	
465.9	11044	
466.1	10750	
466.3	12695	
466.5	12409	
466.7	12056	
466.9	10658	
467.1	12507	
467.3	13523	
467.5	12058	
467.7	10808	
467.9	13683	
468.1	14674	
468.3	11527	
468.5	12155	
468.7	12506	
468.9	12426	
469.1	11138	
469.3	11962	
469.5	14612	
469.7	12007	
469.9	11326	
470.1	10800	
470.3	12493	
470.5	12519	
470.7	12226	
470.9	10791	
471.1	12409	
471.3	12714	
471.5	10903	
471.69	12867	
471.89	12117	
472.09	11652	
472.29	11662	
472.49	11785	
472.69	11943	
472.89	12714	
473.09	10662	
473.29	10645	
473.49	12039	
473.69	12295	
473.89	11733	
474.09	10826	
474.29	13600	
474.49	13129	
474.69	11798	
474.89	11056	
475.09	12184	
475.29	12270	
475.49	10383	
475.69	10734	
475.88	13827	
476.08	12495	
476.28	10388	
476.48	10693	
476.68	12986	
476.88	12856	
477.08	10743	
477.28	11166	
477.48	12306	
477.68	12984	
477.88	10690	
478.08	10943	
478.28	13461	
478.48	12506	
478.67	10940	
478.87	10233	
479.07	13237	
479.27	12500	
479.47	11288	
479.67	11208	
479.87	13048	
480.07	13685	
480.27	10576	
480.47	12194	
480.67	12650	
480.87	13446	
481.06	10801	
481.26	11723	
481.46	12636	
481.66	12626	
481.86	11318	
482.06	12467	
482.26	12353	
482.46	13385	
482.66	11323	
482.86	11037	
483.05	13001	
483.25	12420	
483.45	13874	
483.65	11514	
483.85	12712	
484.05	13011	
484.25	11991	
484.45	12607	
484.65	13895	
484.84	14193	
485.04	11467	
485.24	11650	
485.44	14262	
485.64	12492	
485.84	11015	
486.04	12464	
486.24	12975	
486.44	13600	
486.63	11094	
486.83	11961	
487.03	13121	
487.23	13438	
487.43	11162	
487.63	13853	
487.83	13538	
488.02	14622	
488.22	12430	
488.42	13130	
488.62	14407	
488.82	13308	
489.02	11959	
489.22	12181	
489.41	14189	
489.61	14045	
489.81	11784	
490.01	11835	
490.21	14138	
490.41	14601	
490.61	11531	
490.8	11656	
491	13439	
491.2	12740	
491.4	12321	
491.6	11602	
491.8	13757	
491.99	14056	
492.19	11712	
492.39	12338	
492.59	14762	
492.79	14915	
492.99	13287	
493.18	12420	
493.38	14959	
493.58	15939	
493.78	13249	
493.98	12872	
494.18	14935	
494.37	14481	
494.57	13885	
494.77	13734	
494.97	15489	
495.17	15842	
495.37	13323	
495.56	13541	
495.76	15926	
495.96	15468	
496.16	14517	
496.36	13434	
496.55	15589	
496.75	15286	
496.95	14025	
497.15	13958	
497.35	15729	
497.54	15924	
497.74	13805	
497.94	15554	
498.14	16782	
498.34	16416	
498.53	13454	
498.73	14561	
498.93	15503	
499.13	16229	
499.33	14427	
499.52	14812	
499.72	16265	
499.92	16423	
500.12	13991	
500.32	14445	
500.51	16280	
500.71	16177	
500.91	15214	
501.11	14699	
501.31	16421	
501.5	16692	
501.7	15393	
501.9	14400	
502.1	15921	
502.29	16213	
502.49	14874	
502.69	15115	
502.89	16191	
503.09	16216	
503.28	13678	
503.48	13691	
503.68	15143	
503.88	15542	
504.07	14725	
504.27	13923	
504.47	15575	
504.67	15589	
504.86	14449	
505.06	14063	
505.26	15119	
505.46	16984	
505.65	13913	
505.85	14059	
506.05	14881	
506.25	15539	
506.44	13154	
506.64	14067	
506.84	14863	
507.04	15737	
507.23	13348	
507.43	13819	
507.63	16632	
507.83	14807	
508.02	13572	
508.22	13426	
508.42	16918	
508.62	14873	
508.81	13637	
509.01	14431	
509.21	14728	
509.4	15145	
509.6	14156	
509.8	13499	
510	14937	
510.19	16687	
510.39	13263	
510.59	13487	
510.79	14875	
510.98	16211	
511.18	13506	
511.38	13638	
511.57	15520	
511.77	15497	
511.97	14150	
512.17	13191	
512.36	15699	
512.56	15655	
512.76	13528	
512.95	13345	
513.15	15938	
513.35	14663	
513.55	14463	
513.74	13606	
513.94	16090	
514.14	15327	
514.33	14698	
514.53	14637	
514.73	15392	
514.92	15754	
515.12	13945	
515.32	13902	
515.51	15828	
515.71	16518	
515.91	15742	
516.11	14099	
516.3	17867	
516.5	15304	
516.7	14433	
516.89	15373	
517.09	15622	
517.29	15527	
517.48	15016	
517.68	14201	
517.88	15385	
518.07	16143	
518.27	14967	
518.47	13831	
518.66	16857	
518.86	15414	
519.06	13791	
519.25	14271	
519.45	15636	
519.65	17246	
519.84	14582	
520.04	15368	
520.24	17208	
520.43	15907	
520.63	14175	
520.83	14046	
521.02	15366	
521.22	16054	
521.42	14683	
521.61	15419	
521.81	15735	
522.01	16129	
522.2	14986	
522.4	14795	
522.6	16944	
522.79	15713	
522.99	15130	
523.18	14478	
523.38	16718	
523.58	16955	
523.77	16821	
523.97	14607	
524.17	18984	
524.36	18181	
524.56	16225	
524.76	15866	
524.95	17264	
525.15	16840	
525.34	15808	
525.54	15735	
525.74	17440	
525.93	16491	
526.13	16858	
526.33	15855	
526.52	18115	
526.72	17685	
526.91	17522	
527.11	16730	
527.31	18440	
527.5	19011	
527.7	16672	
527.89	15613	
528.09	17544	
528.29	18158	
528.48	17152	
528.68	16685	
528.87	18523	
529.07	18292	
529.27	16218	
529.46	15479	
529.66	17344	
529.85	17783	
530.05	15348	
530.25	16266	
530.44	19268	
530.64	17724	
530.83	16531	
531.03	17034	
531.23	18917	
531.42	18649	
531.62	18044	
531.81	17124	
532.01	19133	
532.21	19805	
532.4	17009	
532.6	17432	
532.79	19944	
532.99	19450	
533.18	17496	
533.38	18639	
533.58	19035	
533.77	19725	
533.97	17672	
534.16	18583	
534.36	19941	
534.55	19126	
534.75	18486	
534.95	17578	
535.14	19679	
535.34	18751	
535.53	16961	
535.73	19151	
535.92	20225	
536.12	19103	
536.31	17308	
536.51	18654	
536.71	19247	
536.9	19071	
537.1	17460	
537.29	17818	
537.49	20032	
537.68	19052	
537.88	18310	
538.07	17531	
538.27	19486	
538.46	20582	
538.66	17369	
538.86	17761	
539.05	19271	
539.25	19612	
539.44	18007	
539.64	17365	
539.83	18904	
540.03	20060	
540.22	17317	
540.42	17412	
540.61	19197	
540.81	19536	
541	17744	
541.2	18502	
541.39	18523	
541.59	19037	
541.78	18097	
541.98	16870	
542.18	17890	
542.37	17982	
542.57	16921	
542.76	17692	
542.96	17666	
543.15	18494	
543.35	16935	
543.54	16298	
543.74	18692	
543.93	18315	
544.13	16941	
544.32	18045	
544.52	18753	
544.71	17959	
544.91	16133	
545.1	17325	
545.3	17864	
545.49	18753	
545.69	15948	
545.88	16565	
546.08	19645	
546.27	19142	
546.47	17215	
546.66	16466	
546.86	18666	
547.05	19441	
547.24	16529	
547.44	16506	
547.63	17447	
547.83	18841	
548.02	16674	
548.22	16950	
548.41	17386	
548.61	18805	
548.8	16228	
549	16128	
549.19	17975	
549.39	18432	
549.58	15849	
549.78	16460	
549.97	18257	
550.17	17714	
550.36	17206	
550.55	18363	
550.75	17845	
550.94	18856	
551.14	16161	
551.33	16354	
551.53	17203	
551.72	18315	
551.92	16481	
552.11	16275	
552.31	18273	
552.5	18115	
552.69	17909	
552.89	15656	
553.08	18168	
553.28	17818	
553.47	16273	
553.67	17512	
553.86	18850	
554.06	17176	
554.25	15292	
554.44	15970	
554.64	19405	
554.83	19228	
555.03	15988	
555.22	16304	
555.42	18285	
555.61	17922	
555.8	16126	
556	16492	
556.19	17167	
556.39	18417	
556.58	16159	
556.78	16068	
556.97	17935	
557.16	17589	
557.36	17451	
557.55	15763	
557.75	16694	
557.94	18714	
558.13	15842	
558.33	15494	
558.52	18445	
558.72	17240	
558.91	15662	
559.1	15915	
559.3	16868	
559.49	16400	
559.69	15240	
559.88	16245	
560.07	17724	
560.27	18037	
560.46	16277	
560.66	16451	
560.85	17368	
561.04	16513	
561.24	15586	
561.43	15656	
561.63	17019	
561.82	17141	
562.01	17202	
562.21	16336	
562.4	17752	
562.59	18921	
562.79	16186	
562.98	15795	
563.18	17713	
563.37	19398	
563.56	16541	
563.76	15698	
563.95	17275	
564.14	17247	
564.34	16167	
564.53	16036	
564.73	17985	
564.92	18353	
565.11	16511	
565.31	15827	
565.5	18567	
565.69	17372	
565.89	16045	
566.08	16401	
566.27	18501	
566.47	18929	
566.66	17017	
566.85	15746	
567.05	18036	
567.24	17418	
567.44	15941	
567.63	17382	
567.82	18204	
568.02	17912	
568.21	16150	
568.4	16546	
568.6	17946	
568.79	18028	
568.98	15889	
569.18	16006	
569.37	17821	
569.56	19859	
569.76	16081	
569.95	17185	
570.14	17897	
570.34	17928	
570.53	15655	
570.72	15717	
570.91	18442	
571.11	17595	
571.3	16222	
571.49	17137	
571.69	17843	
571.88	17193	
572.07	16911	
572.27	16782	
572.46	17303	
572.65	18336	
572.85	16224	
573.04	16698	
573.23	18740	
573.43	18185	
573.62	16250	
573.81	16967	
574	18295	
574.2	18054	
574.39	16659	
574.58	16814	
574.78	19338	
574.97	18427	
575.16	17215	
575.36	17395	
575.55	19044	
575.74	18873	
575.93	16270	
576.13	17626	
576.32	18288	
576.51	18954	
576.71	16724	
576.9	18255	
577.09	19307	
577.28	18890	
577.48	17536	
577.67	16376	
577.86	18538	
578.05	19004	
578.25	17082	
578.44	17206	
578.63	18721	
578.83	20032	
579.02	16371	
579.21	18216	
579.4	18951	
579.6	18649	
579.79	17406	
579.98	19751	
580.17	19620	
580.37	19738	
580.56	16978	
580.75	18025	
580.94	20249	
581.14	20211	
581.33	18652	
581.52	17533	
581.71	19754	
581.91	20412	
582.1	17208	
582.29	17794	
582.48	19306	
582.68	19445	
582.87	18686	
583.06	18120	
583.25	19842	
583.45	19647	
583.64	18801	
583.83	19536	
584.02	19225	
584.21	19755	
584.41	18724	
584.6	18003	
584.79	19662	
584.98	20523	
585.18	17425	
585.37	17438	
585.56	18854	
585.75	19888	
585.94	17456	
586.14	18273	
586.33	20067	
586.52	19095	
586.71	17730	
586.91	17289	
587.1	18187	
587.29	19194	
587.48	16980	
587.67	16879	
587.87	18731	
588.06	18542	
588.25	17727	
588.44	16849	
588.63	17426	
588.83	17897	
589.02	15224	
589.21	14942	
589.4	16028	
589.59	15909	
589.78	13495	
589.98	13816	
590.17	15201	
590.36	15917	
590.55	13254	
590.74	14044	
590.94	17460	
591.13	16012	
591.32	14267	
591.51	13671	
591.7	16579	
591.89	16117	
592.09	13806	
592.28	14220	
592.47	15212	
592.66	17380	
592.85	13999	
593.05	14319	
593.24	16136	
593.43	17136	
593.62	14596	
593.81	15193	
594	16301	
594.19	16459	
594.39	14143	
594.58	14101	
594.77	16164	
594.96	16665	
595.15	13876	
595.34	14626	
595.54	16264	
595.73	15492	
595.92	13612	
596.11	14924	
596.3	17125	
596.49	15872	
596.68	14681	
596.88	15182	
597.07	16905	
597.26	15618	
597.45	14016	
597.64	15462	
597.83	16004	
598.02	16791	
598.22	14318	
598.41	15162	
598.6	16559	
598.79	16109	
598.98	14535	
599.17	15731	
599.36	16619	
599.55	18054	
599.74	16994	
599.94	16765	
600.13	17458	
600.32	16244	
600.51	14648	
600.7	14860	
600.89	18138	
601.08	18331	
601.27	14575	
601.47	15803	
601.66	17481	
601.85	18292	
602.04	15459	
602.23	15683	
602.42	16691	
602.61	17303	
602.8	15406	
602.99	15188	
603.18	17099	
603.37	17563	
603.57	15982	
603.76	16587	
603.95	18264	
604.14	17871	
604.33	15419	
604.52	15924	
604.71	17664	
604.9	17210	
605.09	16382	
605.28	16247	
605.47	18048	
605.66	17703	
605.86	16111	
606.05	15335	
606.24	17922	
606.43	16516	
606.62	15772	
606.81	16575	
607	17790	
607.19	17254	
607.38	15235	
607.57	15502	
607.76	16998	
607.95	16400	
608.14	15810	
608.33	16438	
608.52	16858	
608.72	17862	
608.91	14988	
609.1	14976	
609.29	17170	
609.48	16394	
609.67	15914	
609.86	14918	
610.05	16451	
610.24	16923	
610.43	14829	
610.62	14432	
610.81	17925	
611	17911	
611.19	14967	
611.38	15748	
611.57	17235	
611.76	18583	
611.95	14804	
612.14	14450	
612.33	16978	
612.52	16478	
612.71	15319	
612.9	14409	
613.09	16215	
613.28	18564	
613.47	14960	
613.66	16103	
613.85	17139	
614.04	16628	
614.24	15192	
614.43	14385	
614.62	17454	
614.81	17354	
615	15738	
615.19	15818	
615.38	16342	
615.57	16884	
615.76	15440	
615.95	16597	
616.14	17514	
616.33	17064	
616.52	15951	
616.71	16418	
616.9	17492	
617.09	17489	
617.28	15659	
617.47	16952	
617.66	16727	
617.85	16876	
618.04	16939	
618.22	16060	
618.41	17286	
618.6	18297	
618.79	16153	
618.98	15906	
619.17	18741	
619.36	16883	
619.55	16143	
619.74	16305	
619.93	18066	
620.12	17497	
620.31	16880	
620.5	17150	
620.69	18732	
620.88	19283	
621.07	17790	
621.26	16856	
621.45	18337	
621.64	18489	
621.83	16944	
622.02	16112	
622.21	18374	
622.4	18213	
622.59	17613	
622.78	17384	
622.97	17826	
623.16	18953	
623.35	16888	
623.54	16186	
623.72	18171	
623.91	18331	
624.1	17215	
624.29	15860	
624.48	19334	
624.67	18366	
624.86	17318	
625.05	16101	
625.24	19398	
625.43	17720	
625.62	18919	
625.81	16434	
626	18711	
626.19	17972	
626.38	17088	
626.56	16167	
626.75	17509	
626.94	18292	
627.13	16486	
627.32	15165	
627.51	17957	
627.7	19568	
627.89	15441	
628.08	16737	
628.27	17161	
628.46	17523	
628.65	15816	
628.83	15470	
629.02	17847	
629.21	17396	
629.4	16342	
629.59	16650	
629.78	17667	
629.97	18578	
630.16	16724	
630.35	16259	
630.54	18808	
630.72	18607	
630.91	16006	
631.1	16854	
631.29	18025	
631.48	18325	
631.67	16825	
631.86	16298	
632.05	17904	
632.24	17940	
632.42	15966	
632.61	16787	
632.8	18004	
632.99	17594	
633.18	16891	
633.37	17158	
633.56	18408	
633.75	18307	
633.93	16818	
634.12	16606	
634.31	19088	
634.5	18870	
634.69	16670	
634.88	16997	
635.07	17973	
635.25	18667	
635.44	17408	
635.63	17751	
635.82	17965	
636.01	17598	
636.2	17385	
636.39	16980	
636.57	19193	
636.76	18713	
636.95	16479	
637.14	18024	
637.33	18477	
637.52	19429	
637.7	16068	
637.89	17012	
638.08	18000	
638.27	19435	
638.46	17193	
638.65	17486	
638.83	19166	
639.02	17804	
639.21	16988	
639.4	17417	
639.59	18113	
639.78	17688	
639.96	15998	
640.15	16101	
640.34	17869	
640.53	18062	
640.72	15644	
640.91	16134	
641.09	17246	
641.28	18689	
641.47	15905	
641.66	16858	
641.85	17933	
642.03	18045	
642.22	16500	
642.41	16012	
642.6	17165	
642.79	16505	
642.97	15449	
643.16	16392	
643.35	16960	
643.54	16617	
643.73	15107	
643.91	15948	
644.1	16012	
644.29	16659	
644.48	14677	
644.67	14743	
644.85	15830	
645.04	15963	
645.23	13741	
645.42	14037	
645.6	15039	
645.79	16077	
645.98	13695	
646.17	12585	
646.36	14423	
646.54	15028	
646.73	14126	
646.92	12848	
647.11	14424	
647.29	15614	
647.48	12826	
647.67	12618	
647.86	15885	
648.05	16217	
648.23	13646	
648.42	15083	
648.61	15601	
648.8	15707	
648.98	13629	
649.17	13983	
649.36	15042	
649.55	14500	
649.73	13336	
649.92	13921	
650.11	14487	
650.3	14995	
650.48	13317	
650.67	13260	
650.86	15373	
651.05	14343	
651.23	13444	
651.42	13507	
651.61	14913	
651.79	14973	
651.98	13756	
652.17	13243	
652.36	15255	
652.54	14186	
652.73	13109	
652.92	12869	
653.11	14972	
653.29	15039	
653.48	11955	
653.67	12966	
653.85	14364	
654.04	15367	
654.23	12727	
654.42	12151	
654.6	13319	
654.79	14137	
654.98	11689	
655.16	12302	
655.35	13287	
655.54	13408	
655.73	12301	
655.91	12286	
656.1	14905	
656.29	13753	
656.47	12022	
656.66	13965	
656.85	14185	
657.03	14232	
657.22	12658	
657.41	12860	
657.59	14390	
657.78	14102	
657.97	12532	
658.16	13322	
658.34	15042	
658.53	15538	
658.72	14209	
658.9	14751	
659.09	14680	
659.28	14728	
659.46	13266	
659.65	13085	
659.84	14388	
660.02	15041	
660.21	12997	
660.4	13018	
660.58	15558	
660.77	14775	
660.96	13706	
661.14	12617	
661.33	15880	
661.52	15877	
661.7	12515	
661.89	16322	
662.08	14291	
662.26	13899	
662.45	12721	
662.64	12912	
662.82	14966	
663.01	14219	
663.2	12884	
663.38	13695	
663.57	14758	
663.75	14758	
663.94	13251	
664.13	14469	
664.31	14071	
664.5	14993	
664.69	13216	
664.87	14215	
665.06	14050	
665.25	14786	
665.43	14276	
665.62	14300	
665.8	15040	
665.99	14330	
666.18	13180	
666.36	13241	
666.55	14982	
666.74	14901	
666.92	12750	
667.11	14456	
667.29	14278	
667.48	14892	
667.67	14127	
667.85	13040	
668.04	14289	
668.22	14332	
668.41	13066	
668.6	13218	
668.78	14018	
668.97	14300	
669.15	13396	
669.34	12342	
669.53	13919	
669.71	14469	
669.9	12390	
670.08	13186	
670.27	13989	
670.46	14577	
670.64	13388	
670.83	13687	
671.01	13836	
671.2	14586	
671.38	12600	
671.57	12434	
671.76	15221	
671.94	15713	
672.13	12409	
672.31	13510	
672.5	14715	
672.69	14099	
672.87	12716	
673.06	12961	
673.24	14661	
673.43	14157	
673.61	13240	
673.8	12821	
673.98	14609	
674.17	14961	
674.36	13512	
674.54	13312	
674.73	14416	
674.91	14663	
675.1	13053	
675.28	12611	
675.47	14223	
675.65	14879	
675.84	12800	
676.03	13219	
676.21	13920	
676.4	13394	
676.58	13568	
676.77	13352	
676.95	15436	
677.14	13771	
677.32	12510	
677.51	12301	
677.69	14710	
677.88	13764	
678.06	12381	
678.25	12495	
678.44	14373	
678.62	13833	
678.81	12136	
678.99	13262	
679.18	15004	
679.36	14601	
679.55	12874	
679.73	13472	
679.92	14505	
680.1	13806	
680.29	14090	
680.47	12745	
680.66	13777	
680.84	14688	
681.03	12056	
681.21	13183	
681.4	13906	
681.58	13649	
681.77	12295	
681.95	12370	
682.14	14683	
682.32	14915	
682.51	13220	
682.69	12071	
682.88	13515	
683.06	14052	
683.25	12821	
683.43	13210	
683.62	13526	
683.8	13846	
683.99	12713	
684.17	11736	
684.36	13760	
684.54	12092	
684.73	10074	
684.91	10253	
685.1	12202	
685.28	11658	
685.46	10967	
685.65	11094	
685.83	12688	
686.02	12166	
686.2	10535	
686.39	10767	
686.57	12116	
686.76	13525	
686.94	10811	
687.13	10955	
687.31	12796	
687.5	12372	
687.68	10377	
687.86	11912	
688.05	14235	
688.23	11991	
688.42	11970	
688.6	11157	
688.79	12450	
688.97	12400	
689.16	11516	
689.34	10359	
689.52	13063	
689.71	13256	
689.89	11475	
690.08	10714	
690.26	12270	
690.45	12239	
690.63	11272	
690.81	10621	
691	11675	
691.18	11678	
691.37	10597	
691.55	12897	
691.74	11656	
691.92	13829	
692.1	10864	
692.29	10266	
692.47	11987	
692.66	11335	
692.84	10583	
693.02	11388	
693.21	11824	
693.39	12380	
693.58	11768	
693.76	11237	
693.94	14039	
694.13	13944	
694.31	11588	
694.5	12768	
694.68	12822	
694.86	13140	
695.05	11869	
695.23	11932	
695.42	13507	
695.6	15828	
695.78	12203	
695.97	11127	
696.15	13110	
696.34	12364	
696.52	10869	
696.7	11462	
696.89	12609	
697.07	11997	
697.25	11271	
697.44	12948	
697.62	12310	
697.81	12706	
697.99	10944	
698.17	11379	
698.36	11659	
698.54	12409	
698.72	11336	
698.91	10251	
699.09	11971	
699.28	11910	
699.46	10933	
699.64	10850	
699.83	11892	
700.01	13223	
700.19	11964	
700.38	10324	
700.56	13485	
700.74	12381	
700.93	10865	
701.11	11865	
701.29	12956	
701.48	14080	
701.66	11180	
701.84	11213	
702.03	12482	
702.21	13316	
702.39	10634	
702.58	11411	
702.76	12865	
702.94	13018	
703.13	10686	
703.31	13156	
703.49	12178	
703.68	13194	
703.86	10857	
704.04	12077	
704.23	12693	
704.41	13188	
704.59	11088	
704.78	12370	
704.96	13967	
705.14	13212	
705.33	10909	
705.51	11774	
705.69	12633	
705.87	13501	
706.06	12149	
706.24	10867	
706.42	12958	
706.61	13319	
706.79	12030	
706.97	10924	
707.16	12338	
707.34	13019	
707.52	12041	
707.7	11160	
707.89	12633	
708.07	12278	
708.25	12054	
708.44	12306	
708.62	12460	
708.8	13624	
708.98	12317	
709.17	11323	
709.35	12906	
709.53	12721	
709.72	10914	
709.9	10919	
710.08	12955	
710.26	13068	
710.45	12480	
710.63	11024	
710.81	12650	
710.99	12527	
711.18	11396	
711.36	10826	
711.54	11964	
711.72	12724	
711.91	10699	
712.09	9953.1	
712.27	11833	
712.45	12883	
712.64	10574	
712.82	9271.2	
713	10597	
713.18	10507	
713.37	8717.5	
713.55	9832.3	
713.73	10819	
713.91	9060.2	
714.1	8254	
714.28	7503.8	
714.46	9788.6	
714.64	8814.5	
714.83	6679.8	
715.01	7501.7	
715.19	8663.6	
715.37	7967.3	
715.55	7041.6	
715.74	7300.3	
715.92	9484.1	
716.1	7398.6	
716.28	8422.6	
716.47	7370.6	
716.65	7980.3	
716.83	8241.7	
717.01	7306.5	
717.19	7478.5	
717.38	10677	
717.56	8366.6	
717.74	8082.6	
717.92	7378.8	
718.1	10095	
718.29	9313.5	
718.47	7341.3	
718.65	8114.1	
718.83	10237	
719.01	10182	
719.2	7261.4	
719.38	8477.2	
719.56	9663.7	
719.74	11207	
719.92	7602.1	
720.11	8553	
720.29	9282.8	
720.47	8262.9	
720.65	6804	
720.83	7712	
721.02	8447.2	
721.2	8211.7	
721.38	7537.9	
721.56	6830.7	
721.74	7650.5	
721.92	7792.5	
722.11	8115.4	
722.29	7835.5	
722.47	9118.9	
722.65	8208.3	
722.83	6722.8	
723.01	7800.7	
723.2	8375.5	
723.38	8635.6	
723.56	6234.7	
723.74	7406.8	
723.92	7776.8	
724.1	9016.5	
724.29	6647	
724.47	7945.4	
724.65	7851.9	
724.83	7950.2	
725.01	6842.9	
725.19	7714	
725.37	7934.5	
725.56	8028	
725.74	6429.3	
725.92	6770.6	
726.1	7860.8	
726.28	8170	
726.46	7238.2	
726.64	6876.4	
726.83	8133.8	
727.01	8396.7	
727.19	6395.1	
727.37	7372	
727.55	8181.6	
727.73	8873.8	
727.91	6462	
728.09	6466.8	
728.28	9139.4	
728.46	9861.7	
728.64	7951.6	
728.82	7891.5	
729	10593	
729.18	9892.4	
729.36	7305.1	
729.54	9883.5	
729.72	11101	
729.91	9426.1	
730.09	9654.1	
730.27	8409.6	
730.45	9465	
730.63	10190	
730.81	9082.1	
730.99	8132.5	
731.17	10632	
731.35	9039.1	
731.53	8525.7	
731.71	8057.4	
731.9	10305	
732.08	10412	
732.26	8227.4	
732.44	7970.7	
732.62	10434	
732.8	9936.1	
732.98	8767.4	
733.16	7794.6	
733.34	9912.2	
733.52	8649.3	
733.7	8374.8	
733.88	8887.5	
734.07	9721.7	
734.25	9686.9	
734.43	7909.9	
734.61	9584.5	
734.79	11323	
734.97	9444.5	
735.15	8039.6	
735.33	8452	
735.51	9995.5	
735.69	9531.9	
735.87	9573.6	
736.05	8695.7	
736.23	9841.2	
736.41	9736	
736.59	8628.1	
736.77	8799.4	
736.95	10439	
737.13	9929.9	
737.32	8303.8	
737.5	8582.4	
737.68	11056	
737.86	9865.1	
738.04	8148.2	
738.22	10043	
738.4	9574.3	
738.58	9782.5	
738.76	8816.5	
738.94	7699.7	
739.12	9690.3	
739.3	9669.8	
739.48	9521	
739.66	9293	
739.84	10099	
740.02	10196	
740.2	7942	
740.38	8253.3	
740.56	10515	
740.74	9294.4	
740.92	9007	
741.1	8902.5	
741.28	9811.8	
741.46	9770.9	
741.64	8419.2	
741.82	9062.3	
742	9987.9	
742.18	9843.2	
742.36	8753.7	
742.54	8227.4	
742.72	10451	
742.9	9099.8	
743.08	9114.8	
743.26	7817.1	
743.44	10686	
743.62	10381	
743.8	9241.1	
743.98	8191.9	
744.16	10155	
744.34	9810.5	
744.52	9123.7	
744.7	9036.3	
744.88	10172	
745.06	9746.3	
745.24	9004.9	
745.42	9135.3	
745.6	10263	
745.78	9956.5	
745.96	7724.9	
746.14	8102.4	
746.32	10978	
746.5	10172	
746.68	8566	
746.86	8039	
747.03	10627	
747.21	8832.9	
747.39	8529.1	
747.57	8045.8	
747.75	9745.6	
747.93	10254	
748.11	8094.3	
748.29	7920.2	
748.47	11428	
748.65	9443.9	
748.83	8731.9	
749.01	8546.2	
749.19	10017	
749.37	9156.5	
749.55	8357.1	
749.73	8501.8	
749.91	9748.3	
750.09	9372.9	
750.26	8507.9	
750.44	7918.8	
750.62	9612.5	
750.8	9668.5	
750.98	7783.6	
751.16	8062.9	
751.34	9732.6	
751.52	9041.1	
751.7	8968.7	
751.88	7755.7	
752.06	10290	
752.24	10040	
752.42	7668.3	
752.59	8065.6	
752.77	9616.6	
752.95	10932	
753.13	8781	
753.31	8186.4	
753.49	9224.7	
753.67	9782.5	
753.85	8463.6	
754.03	7954.3	
754.21	9875.3	
754.38	10198	
754.56	7868.3	
754.74	6793.1	
754.92	8634.2	
755.1	9137.4	
755.28	6061.3	
755.46	5684.5	
755.64	8740.7	
755.82	8581	
755.99	5065.3	
756.17	5003.2	
756.35	5503.6	
756.53	7068.2	
756.71	3707.5	
756.89	4678.2	
757.07	6692.8	
757.25	5902.9	
757.42	5636.7	
757.6	6858	
757.78	7452.6	
757.96	6328.2	
758.14	5586.2	
758.32	4937.7	
758.5	5649.7	
758.67	6459.3	
758.85	5131.5	
759.03	5173.2	
759.21	6588.3	
759.39	5970.5	
759.57	4785.4	
759.75	6068.1	
759.92	7425.3	
760.1	6703	
760.28	6554.2	
760.46	6899.6	
760.64	6803.4	
760.82	6566.5	
760.99	6888	
761.17	5984.8	
761.35	8050.6	
761.53	6990.4	
761.71	6377.4	
761.89	7164.5	
762.06	8205.5	
762.24	7764.5	
762.42	6875.7	
762.6	6574.7	
762.78	8021.2	
762.96	8771.5	
763.13	7507.9	
763.31	7176.1	
763.49	9094.3	
763.67	8181.6	
763.85	8130.4	
764.02	8803.5	
764.2	9362.6	
764.38	8582.4	
764.56	7092.1	
764.74	8148.2	
764.91	9483.5	
765.09	8361.2	
765.27	6838.9	
765.45	6617	
765.63	9596.8	
765.8	9410.4	
765.98	6240.2	
766.16	6647.7	
766.34	7833.5	
766.52	7653.3	
766.69	7696.3	
766.87	6391.7	
767.05	8324.3	
767.23	9071.8	
767.41	6749.4	
767.58	6883.9	
767.76	8770.1	
767.94	8832.2	
768.12	6766.5	
768.29	7590.5	
768.47	8241	
768.65	9042.5	
768.83	6275	
769	7502.4	
769.18	7702.4	
769.36	8447.9	
769.54	7341.3	
769.72	6279.8	
769.89	8617.2	
770.07	8748.9	
770.25	6479.8	
770.43	7895.6	
770.6	9426.8	
770.78	9765.4	
770.96	6732.4	
771.14	7315.3	
771.31	8454.7	
771.49	7632.1	
771.67	5749.3	
771.85	5999.9	
772.02	6928.3	
772.2	7763.8	
772.38	6681.2	
772.55	6188.3	
772.73	7845.8	
772.91	7630.7	
773.09	6473.6	
773.26	6514.6	
773.44	7757	
773.62	7473	
773.8	5948.7	
773.97	5666.7	
774.15	7764.5	
774.33	7370.6	
774.5	5758.9	
774.68	6122.1	
774.86	7839.6	
775.04	7307.2	
775.21	5719.3	
775.39	5750	
775.57	7531.1	
775.74	8062.9	
775.92	5562.3	
776.1	5390.9	
776.27	7413	
776.45	8763.9	
776.63	5653.8	
776.81	5152	
776.98	6970.6	
777.16	8146.8	
777.34	5756.8	
777.51	6034	
777.69	6901	
777.87	6683.9	
778.04	5667.4	
778.22	6376	
778.4	6640.9	
778.57	7379.5	
778.75	4833.2	
778.93	5152.7	
779.1	6342.6	
779.28	6256.5	
779.46	4803.9	
779.64	5381.4	
779.81	7380.2	
779.99	8342.1	
780.17	6081.8	
780.34	6222.4	
780.52	6793.8	
780.69	6968.6	
780.87	5599.1	
781.05	4989.5	
781.22	6747.4	
781.4	6713.2	
781.58	5103.5	
781.75	4188.8	
781.93	6640.9	
782.11	6013.5	
782.28	5994.4	
782.46	5011.4	
782.64	5831.9	
782.81	6871.6	
782.99	5085.1	
783.17	5039.4	
783.34	6641.6	
783.52	5791.7	
783.69	5160.9	
783.87	6019	
784.05	5814.2	
784.22	5781.4	
784.4	5990.3	
784.58	5188.2	
784.75	6718	
784.93	5783.5	
785.1	4787.5	
785.28	5472.9	
785.46	6477.7	
785.63	5751.4	
785.81	4709.6	
785.99	4593.6	
786.16	5865.4	
786.34	6329.6	
786.51	4614.1	
786.69	5063.3	
786.87	5453.7	
787.04	6012.8	
787.22	3992.9	
787.39	5483.1	
787.57	5608	
787.75	6815	
787.92	5612.8	
788.1	5560.9	
788.27	5763	
788.45	5427.8	
788.63	5272.8	
788.8	3831.1	
788.98	6100.9	
789.15	5276.3	
789.33	4121.9	
789.5	4684.4	
789.68	6668.2	
789.86	6665.5	
790.03	5178.6	
790.21	4501.4	
790.38	6552.1	
790.56	5596.4	
790.73	4302.1	
790.91	4345.8	
791.09	5469.4	
791.26	6326.2	
791.44	4506.9	
791.61	3920.5	
791.79	5421.7	
791.96	5573.9	
792.14	4074.8	
792.32	3629.7	
792.49	5439.4	
792.67	5631.2	
792.84	4096.6	
793.02	3939.6	
793.19	5956.2	
793.37	6823.8	
793.54	3674.1	
793.72	3877.5	
793.89	6894.1	
794.07	5446.2	
794.25	4612.7	
794.42	3664.5	
794.6	6586.3	
794.77	6143.9	
794.95	4831.2	
795.12	4216.1	
795.3	5440.8	
795.47	6112.5	
795.65	4628.4	
795.82	4482.3	
796	5208.7	
796.17	7230.7	
796.35	4323.3	
796.52	5057.8	
796.7	5964.4	
796.87	6102.9	
797.05	5252.4	
797.22	5208	
797.4	5980.8	
797.57	7043.6	
797.75	4401.1	
797.92	4168.3	
798.1	6306.4	
798.27	5368.4	
798.45	3556	
798.62	3872	
798.8	5657.2	
798.97	6197.2	
799.15	4660.5	
799.32	4468	
799.5	4883	
799.67	5741.8	
799.85	4801.1	
800.02	3492.5	
800.2	5285.8	
800.37	5616.9	
800.55	4984.1	
800.72	4145.1	
800.9	6060.6	
801.07	6617.7	
801.25	5507.7	
801.42	4553.3	
801.6	6101.6	
801.77	5813.5	
801.95	4065.9	
802.12	4032.5	
802.29	5827.2	
802.47	5781.4	
802.64	4476.2	
802.82	3373	
802.99	5186.1	
803.17	6307.7	
803.34	4351.3	
803.52	3888.4	
803.69	6949.4	
803.87	5026.4	
804.04	4315.1	
804.21	4416.1	
804.39	6406.7	
804.56	5475.6	
804.74	3613.3	
804.91	4458.4	
805.09	5211.4	
805.26	5417.6	
805.44	3692.5	
805.61	4157.4	
805.78	5971.2	
805.96	5993.7	
806.13	4530.1	
806.31	4817.5	
806.48	4740.4	
806.66	5309	
806.83	4442	
807	4296	
807.18	5188.9	
807.35	5608	
807.53	4262.5	
807.7	3483.6	
807.87	6432.7	
808.05	5233.9	
808.22	4738.3	
808.4	3437.2	
808.57	5300.8	
808.74	4807.3	
808.92	3938.9	
809.09	4949.3	
809.27	5057.8	
809.44	5732.3	
809.61	3482.9	
809.79	3867.9	
809.96	6377.4	
810.14	5990.3	
810.31	3362.8	
810.48	4102.1	
810.66	5310.4	
810.83	6141.9	
811.01	3923.9	
811.18	4712.4	
811.35	5983.5	
811.53	4614.8	
811.7	4730.8	
811.87	4440	
812.05	5229.8	
812.22	5126.1	
812.39	3738.9	
812.57	3680.9	
812.74	5214.8	
812.92	6954.2	
813.09	4083.6	
813.26	4499.4	
813.44	6667.5	
813.61	5117.9	
813.78	3409.2	
813.96	4580.6	
814.13	5213.4	
814.3	4845.5	
814.48	4937	
814.65	4094.6	
814.82	6505.7	
815	4984.1	
815.17	4228.4	
815.34	5209.3	
815.52	5097.4	
815.69	5136.3	
815.87	4238.6	
816.04	3628.3	
816.21	5244.8	
816.38	4638	
816.56	4039.3	
816.73	3780.6	
816.9	6536.4	
817.08	5973.2	
817.25	3864.5	
817.42	4801.1	
817.6	4726	
817.77	5212.8	
817.94	4298	
818.12	3720.5	
818.29	4891.2	
818.46	7816.4	
818.64	3928.7	
818.81	3677.5	
818.98	4825.7	
819.16	7157	
819.33	4575.2	
819.5	4238.6	
819.67	5582.8	
819.85	6281.8	
820.02	4143.7	
820.19	4401.1	
820.37	5436.7	
820.54	5013.4	
820.71	4271.4	
820.88	5327.4	
821.06	5505.6	
821.23	4965.6	
821.4	4394.9	
821.58	4282.3	
821.75	5959.6	
821.92	5343.2	
822.09	3442.6	
822.27	3517	
822.44	5253.7	
822.61	5041.4	
822.79	3482.2	
822.96	6644.3	
823.13	5777.3	
823.3	4946.5	
823.48	4051.6	
823.65	3604.4	
823.82	5872.9	
823.99	4715.8	
824.17	5076.2	
824.34	3637.9	
824.51	6898.9	
824.68	5270.1	
824.86	3866.6	
825.03	4258.4	
825.2	5172.5	
825.37	6388.3	
825.55	3758.7	
825.72	4262.5	
825.89	6991.8	
826.06	6468.9	
826.24	4130.8	
826.41	4129.4	
826.58	6351.4	
826.75	5537	
826.92	3224.2	
827.1	3671.3	
827.27	8723	
827.44	6938.5	
827.61	3941.7	
827.79	4794.3	
827.96	4917.9	
828.13	5293.3	
828.3	4072.7	
828.47	3426.3	
828.65	5433.9	
828.82	5375.2	
828.99	5268.1	
829.16	4661.9	
829.34	5801.2	
829.51	5600.5	
829.68	4262.5	
829.85	4433.2	
830.02	6126.2	
830.2	5870.8	
830.37	3263.8	
830.54	5138.4	
830.71	6675.7	
830.88	5132.2	
831.05	3333.4	
831.23	3882.9	
831.4	6365.8	
831.57	7234.1	
831.74	3912.3	
831.91	3435.1	
832.09	5442.8	
832.26	5858.6	
832.43	4049.5	
832.6	4613.4	
832.77	5430.5	
832.94	6266.1	
833.12	3213.3	
833.29	4059.8	
833.46	5061.2	
833.63	7331	
833.8	4459.8	
833.97	4121.2	
834.15	5859.9	
834.32	5625.1	
834.49	4232.5	
834.66	4293.9	
834.83	6113.2	
835	4932.9	
835.17	3864.5	
835.35	3913	
835.52	5766.4	
835.69	5642.8	
835.86	4094.6	
836.03	3409.9	
836.2	5767.1	
836.37	5390.9	
836.55	4036.5	
836.72	3745.7	
836.89	5399.8	
837.06	5832.6	
837.23	4171	
837.4	4552	
837.57	6670.2	
837.75	7454.6	
837.92	3727.3	
838.09	3964.2	
838.26	5351.3	
838.43	6135	
838.6	4271.4	
838.77	3808.5	
838.94	7037.5	
839.11	6722.8	
839.29	4108.2	
839.46	3214.6	
839.63	5763	
839.8	5533.6	
839.97	3935.5	
840.14	3991.5	
840.31	5565	
840.48	5839.4	
840.65	3265.1	
840.82	3816	
841	5791.7	
841.17	5739.8	
841.34	3597.6	
841.51	3702.7	
841.68	5755.5	
841.85	5444.9	
842.02	3790.1	
842.19	3067.9	
842.36	5590.3	
842.53	5616.9	
842.7	3616.7	
842.87	4437.3	
843.05	7339.9	
843.22	5443.5	
843.39	3435.8	
843.56	3751.2	
843.73	5306.3	
843.9	5894.1	
844.07	5986.9	
844.24	4874.2	
844.41	8623.3	
844.58	4997	
844.75	3503.4	
844.92	3850.9	
845.09	5780.1	
845.26	5818.3	
845.43	3588.7	
845.6	3842.7	
845.77	5726.1	
845.94	5429.2	
846.12	4004.5	
846.29	4237.9	
846.46	5988.3	
846.63	5793.7	
846.8	3593.5	
846.97	4289.8	
847.14	6266.1	
847.31	5727.5	
847.48	4078.9	
847.65	4444.8	
847.82	6095.4	
847.99	6042.2	
848.16	4872.1	
848.33	4493.9	
848.5	5289.2	
848.67	6294.8	
848.84	3569.6	
849.01	3764.8	
849.18	5189.6	
849.35	4868	
849.52	4516.5	
849.69	3504.8	
849.86	5933	
850.03	6298.2	
850.2	3591.5	
850.37	4433.9	
850.54	6113.9	
850.71	5436.7	
850.88	4333.5	
851.05	3533.4	
851.22	5716.6	
851.39	6379.4	
851.56	3417.4	
851.73	4132.8	
851.9	5056.4	
852.07	6071.5	
852.24	3990.1	
852.41	3547.8	
852.58	5627.1	
852.75	5107	
852.92	4027.7	
853.09	3532.1	
853.26	5404.6	
853.43	6267.5	
853.6	3604.4	
853.77	3067.2	
853.94	6370.5	
854.11	5134.3	
854.28	5358.2	
854.44	3877.5	
854.61	6858	
854.78	5859.2	
854.95	3570.3	
855.12	4518.5	
855.29	4620.2	
855.46	6443.6	
855.63	3579.2	
855.8	4984.1	
855.97	5302.9	
856.14	6143.9	
856.31	5067.4	
856.48	3920.5	
856.65	5299.5	
856.82	5008	
856.99	3446.7	
857.16	3837.2	
857.33	7064.8	
857.49	5390.3	
857.66	3892.5	
857.83	4217.5	
858	5354.1	
858.17	5604.6	
858.34	3410.6	
858.51	3616	
858.68	6512.5	
858.85	6563.7	
859.02	4174.4	
859.19	4437.3	
859.36	5004.6	
859.52	5128.8	
859.69	3561.4	
859.86	4277.5	
860.03	5119.2	
860.2	6322.8	
860.37	3258.3	
860.54	3654.9	
860.71	6012.2	
860.88	6431.3	
861.05	4071.4	
861.21	4514.4	
861.38	6514.6	
861.55	4963.6	
861.72	3315.7	
861.89	3991.5	
862.06	6141.2	
862.23	6673.6	
862.4	3489.7	
862.56	3750.5	
862.73	5915.2	
862.9	5584.1	
863.07	4285	
863.24	3257.6	
863.41	4969.1	
863.58	5064.6	
863.75	3684.3	
863.91	4135.5	
864.08	6420.4	
864.25	5954.8	
864.42	4576.5	
864.59	5042.8	
864.76	6800.6	
864.93	5031.9	
865.09	3456.3	
865.26	3835.2	
865.43	6277.7	
865.6	6737.8	
865.77	3169.6	
865.94	3539.6	
866.1	6350.1	
866.27	6070.9	
866.44	5471.5	
866.61	3381.2	
866.78	5504.3	
866.95	5919.3	
867.11	3468.6	
867.28	3175.7	
867.45	6066.1	
867.62	5119.9	
867.79	4139.6	
867.96	3535.5	
868.12	5055.8	
868.29	6077	
868.46	3056.9	
868.63	4811.4	
868.8	6274.3	
868.97	5911.8	
869.13	3743.7	
869.3	3702.7	
869.47	5943.9	
869.64	6163.7	
869.81	3649.5	
869.97	3604.4	
870.14	5763	
870.31	6435.4	
870.48	3461.7	
870.65	4599.7	
870.81	5372.5	
870.98	5318.6	
871.15	4048.2	
871.32	3740.3	
871.48	5881.8	
871.65	6534.4	
871.82	3593.5	
871.99	3936.2	
872.16	7073.7	
872.32	6311.8	
872.49	3609.9	
872.66	3594.2	
872.83	6062	
872.99	5210.7	
873.16	4076.1	
873.33	3522.5	
873.5	5663.3	
873.67	5672.9	
873.83	3774.4	
874	4890.5	
874.17	5770.5	
874.34	6854.6	
874.5	4621.6	
874.67	4502.1	
874.84	6412.9	
875.01	5079.6	
875.17	5087.8	
875.34	3562.8	
875.51	5715.9	
875.68	6916.7	
875.84	4327.4	
876.01	5315.8	
876.18	5964.4	
876.34	5861.3	
876.51	3631.7	
876.68	3519.8	
876.85	5390.3	
877.01	6304.3	
877.18	5190.2	
877.35	3557.3	
877.52	5505.6	
877.68	4975.2	
877.85	3429	
878.02	3547.8	
878.18	5573.2	
878.35	5238	
878.52	2867.2	
878.69	3972.4	
878.85	6029.9	
879.02	5941.2	
879.19	5098.8	
879.35	3844	
879.52	5969.8	
879.69	6180.8	
879.86	3090.4	
880.02	3981.3	
880.19	5526.8	
880.36	6720.8	
880.52	4099.4	
880.69	4248.9	
880.86	6138.4	
881.02	6191.7	
881.19	3932.8	
881.36	3870	
881.52	5878.4	
881.69	5203.2	
881.86	3866.6	
882.02	3798.3	
882.19	6163	
882.36	7419.8	
882.52	3678.8	
882.69	5066.7	
882.86	5724.8	
883.02	5635.3	
883.19	4465.9	
883.36	4128.7	
883.52	6087.9	
883.69	6976.7	
883.86	3667.2	
884.02	3239.9	
884.19	6048.3	
884.36	5585.5	
884.52	4040	
884.69	3750.5	
884.86	5294.7	
885.02	6591	
885.19	4002.4	
885.36	4114.4	
885.52	5528.2	
885.69	5690.6	
885.86	5197.7	
886.02	4650.9	
886.19	6006.7	
886.35	5489.2	
886.52	3952.6	
886.69	4988.2	
886.85	5076.2	
887.02	6414.9	
887.19	6414.9	
887.35	6414.9	
887.52	6414.9	
887.68	6414.9	
887.85	6414.9	
888.02	6414.9	
888.18	6414.9	
888.35	6414.9	
888.51	6414.9	
888.68	6414.9	
888.85	6414.9	
889.01	6414.9	
889.18	6414.9	
889.35	6414.9	
889.51	6414.9	
889.68	6414.9	
889.84	6414.9	
890.01	6414.9	
890.17	6414.9	
890.34	6414.9	
890.51	6414.9	
890.67	6414.9	
890.84	6414.9	
891	6414.9	
891.17	6414.9	
891.34	6414.9	
891.5	6414.9	
891.67	6414.9	
891.83	6414.9	
892	6414.9	
892.16	6414.9	
892.33	6414.9	
892.5	6414.9	
892.66	6414.9	
892.83	6414.9	
892.99	6414.9	
893.16	6414.9	
893.32	6414.9	
893.49	6414.9	
893.65	6414.9	
893.82	6414.9	
893.99	6414.9	
894.15	6414.9	
894.32	6414.9	
894.48	6414.9	
894.65	6414.9	
894.81	6414.9	
894.98	6414.9	
895.14	6414.9	
895.31	6414.9	
895.47	6414.9	
895.64	6414.9	
895.81	6414.9	
895.97	6414.9	
896.14	6414.9	
896.3	6414.9	
896.47	6414.9	
896.63	6414.9	
896.8	6414.9	
896.96	6414.9	
897.13	6414.9	
897.29	6414.9	
897.46	6414.9	
897.62	6414.9	
897.79	6414.9	
897.95	6414.9	
898.12	6414.9	
898.28	6414.9	
898.45	6414.9	
898.61	6414.9	
898.78	6414.9	
898.94	6414.9	
899.11	6414.9	
899.27	6414.9	
899.44	6414.9	
899.6	6414.9	
899.77	6414.9	
899.93	6414.9	
900.1	6414.9	
900.26	6414.9	
900.43	6414.9	
900.59	6414.9	
900.76	6414.9	
900.92	6414.9	
901.09	6414.9	
901.25	6414.9	
901.42	6414.9	
901.58	6414.9	
901.75	6414.9	
901.91	6414.9	
902.07	6414.9	
902.24	6414.9	
902.4	6414.9	
902.57	6414.9	
902.73	6414.9	
902.9	6414.9	
903.06	6414.9	
903.23	6414.9	
903.39	6414.9	
903.56	6414.9	
903.72	6414.9	
903.88	6414.9	
904.05	6414.9	
904.21	6414.9	
904.38	6414.9	
904.54	6414.9	
904.71	6414.9	
904.87	6414.9	
905.03	6414.9	
905.2	6414.9	
905.36	6414.9	
905.53	6414.9	
905.69	6414.9	
905.86	6414.9	
906.02	6414.9	
906.18	6414.9	
906.35	6414.9	
906.51	6414.9	
906.68	6414.9	
906.84	6414.9	
907.01	6414.9	
907.17	6414.9	
907.33	6414.9	
907.5	6414.9	
907.66	6414.9	
907.83	6414.9	
907.99	6414.9	
908.15	6414.9	
908.32	6414.9	
908.48	6414.9	
908.65	6414.9	
908.81	6414.9	
908.97	6414.9	
909.14	6414.9	
909.3	6414.9	
909.47	6414.9	
909.63	6414.9	
909.79	6414.9	
909.96	6414.9	
910.12	6414.9	
910.28	6414.9	
910.45	6414.9	
910.61	6414.9	
910.78	6414.9	
910.94	6414.9	
911.1	6414.9	
911.27	6414.9	
911.43	6414.9	
911.59	6414.9	
911.76	6414.9	
911.92	6414.9	
912.08	6414.9	
912.25	6414.9	
912.41	6414.9	
912.57	6414.9	
912.74	6414.9	
912.9	6414.9	
913.07	6414.9	
913.23	6414.9	
913.39	6414.9	
913.56	6414.9	
913.72	6414.9	
913.88	6414.9	
914.05	6414.9	
914.21	6414.9	
914.37	6414.9	
914.54	6414.9	
914.7	6414.9	
914.86	6414.9	
915.03	6414.9	
915.19	6414.9	
