Wavelength	Intensities	
nm	a.u.	
179.22	1914.3	
179.44	1912.5	
179.65	1916.2	
179.86	1908.7	
180.08	1910.8	
180.29	4945.8	
180.51	3534.1	
180.72	5666	
180.94	6651.1	
181.15	3237.8	
181.37	3151.1	
181.58	5500.8	
181.79	5846.3	
182.01	3398.9	
182.22	3636.5	
182.44	5769.8	
182.65	4844.8	
182.87	4629.8	
183.08	4012	
183.29	6111.1	
183.51	5069.4	
183.72	3670.6	
183.94	5382.7	
184.15	5398.4	
184.37	5484.5	
184.58	3230.3	
184.79	4518.5	
185.01	5050.3	
185.22	5803.9	
185.44	4717.2	
185.65	3960.8	
185.86	5350	
186.08	4939.7	
186.29	3115	
186.51	3399.6	
186.72	5089.9	
186.94	5965.1	
187.15	3886.4	
187.36	4075.5	
187.58	7755	
187.79	5537.7	
188.01	4268.6	
188.22	6637.5	
188.43	6645.7	
188.65	5784.1	
188.86	3422.2	
189.08	4057.7	
189.29	5276.3	
189.5	5208	
189.72	3784.6	
189.93	3853.6	
190.15	6021.7	
190.36	7150.8	
190.57	4095.9	
190.79	4097.3	
191	6118	
191.22	6059.3	
191.43	4113	
191.64	3392.1	
191.86	6303.6	
192.07	5984.8	
192.29	3568.9	
192.5	3771	
192.71	6008.7	
192.93	5138.4	
193.14	3692.5	
193.35	3790.1	
193.57	5189.6	
193.78	6077	
194	2990.7	
194.21	3686.3	
194.42	4958.1	
194.64	5417.6	
194.85	4102.1	
195.07	4832.5	
195.28	5490.6	
195.49	4710.3	
195.71	5003.9	
195.92	3549.1	
196.13	5652.4	
196.35	5756.8	
196.56	5367	
196.78	4068.6	
196.99	7053.2	
197.2	6649.8	
197.42	4639.3	
197.63	4055.7	
197.84	4934.9	
198.06	5636	
198.27	3747.8	
198.48	5051	
198.7	5213.4	
198.91	5317.2	
199.13	4098.7	
199.34	4109.6	
199.55	5842.9	
199.77	4713.7	
199.98	3627.6	
200.19	4107.5	
200.41	5396.4	
200.62	5030.5	
200.83	4288.4	
201.05	4582	
201.26	5286.5	
201.47	5059.2	
201.69	3602.4	
201.9	3459.7	
202.11	5407.3	
202.33	6488	
202.54	3917.8	
202.76	4344.4	
202.97	5561.6	
203.18	5563.6	
203.4	4239.3	
203.61	4165.6	
203.82	5513.8	
204.04	5047.6	
204.25	4087.7	
204.46	4033.8	
204.68	5446.9	
204.89	5729.5	
205.1	4016.7	
205.32	3489.7	
205.53	5901.6	
205.74	6001.9	
205.96	2917	
206.17	4215.4	
206.38	5838.8	
206.6	6018.3	
206.81	4691.2	
207.02	3848.8	
207.24	5650.3	
207.45	6093.4	
207.66	3873.4	
207.88	3334.8	
208.09	5642.8	
208.3	5421	
208.52	3566.2	
208.73	3876.8	
208.94	5416.9	
209.15	6164.4	
209.37	3896.6	
209.58	4062.5	
209.79	5952.1	
210.01	5235.3	
210.22	3093.1	
210.43	3231.7	
210.65	5498.1	
210.86	5862	
211.07	3908.2	
211.29	3599	
211.5	5791.7	
211.71	5388.2	
211.93	3618.8	
212.14	3552.5	
212.35	5416.2	
212.56	5626.5	
212.78	4197.7	
212.99	3392.1	
213.2	6376	
213.42	5193.6	
213.63	3743.7	
213.84	3994.9	
214.06	4811.4	
214.27	4874.2	
214.48	3861.8	
214.69	4207.2	
214.91	6136.4	
215.12	6255.9	
215.33	4213.4	
215.55	4680.3	
215.76	6690	
215.97	5870.2	
216.18	4063.2	
216.4	3920.5	
216.61	5115.8	
216.82	6006	
217.04	3634.5	
217.25	3734.8	
217.46	6115.2	
217.67	5883.8	
217.89	3189.4	
218.1	3311.6	
218.31	5543.2	
218.53	5651	
218.74	3743	
218.95	3635.8	
219.16	5394.3	
219.38	6367.1	
219.59	3684.3	
219.8	4397.7	
220.01	7092.8	
220.23	5528.8	
220.44	4749.9	
220.65	3542.3	
220.87	5515.2	
221.08	6058.6	
221.29	3268.6	
221.5	4424.3	
221.72	7466.9	
221.93	5182	
222.14	4138.3	
222.35	4868.7	
222.57	5455.8	
222.78	5793.7	
222.99	3867.9	
223.2	4186.7	
223.42	5797.8	
223.63	5901.6	
223.84	2983.2	
224.05	2983.9	
224.27	6967.2	
224.48	6357.6	
224.69	4887.8	
224.9	4138.9	
225.12	5670.1	
225.33	5424.4	
225.54	3327.9	
225.75	3614	
225.97	5022.3	
226.18	5283.1	
226.39	3933.5	
226.6	3704.1	
226.82	5192.3	
227.03	5033.2	
227.24	4115.7	
227.45	3394.8	
227.67	5860.6	
227.88	6397.2	
228.09	4537.6	
228.3	4657.1	
228.52	5834	
228.73	5375.2	
228.94	3789.4	
229.15	3357.3	
229.36	5378	
229.58	5227.8	
229.79	3861.1	
230	4453.6	
230.21	6521.4	
230.43	5560.9	
230.64	4052.9	
230.85	4278.9	
231.06	5940.5	
231.28	5892.7	
231.49	3332.7	
231.7	3985.3	
231.91	5789.6	
232.12	5477.6	
232.34	3500.7	
232.55	4031.1	
232.76	6120.7	
232.97	5636.7	
233.18	3594.2	
233.4	4018.1	
233.61	5668.8	
233.82	5186.1	
234.03	3781.9	
234.25	3726.6	
234.46	7593.2	
234.67	5544.5	
234.88	4153.3	
235.09	3692.5	
235.31	5799.2	
235.52	5367	
235.73	4078.9	
235.94	3439.9	
236.15	5162.9	
236.37	6642.9	
236.58	3603.7	
236.79	4007.2	
237	5748.6	
237.21	4949.9	
237.43	4252.3	
237.64	3309.5	
237.85	9983.8	
238.06	5019.6	
238.27	4280.3	
238.48	3374.4	
238.7	5765.7	
238.91	5308.3	
239.12	3903.4	
239.33	3955.3	
239.54	5025.7	
239.76	5354.1	
239.97	3930.1	
240.18	3948.5	
240.39	6826.6	
240.6	5715.9	
240.82	4113.7	
241.03	3300	
241.24	5413.5	
241.45	6315.3	
241.66	3552.5	
241.87	4332.1	
242.09	6209.4	
242.3	6576	
242.51	4255.7	
242.72	3947.8	
242.93	5939.8	
243.14	5383.4	
243.36	4510.3	
243.57	4968.4	
243.78	6382.2	
243.99	5844.2	
244.2	4009.2	
244.41	3545	
244.63	4990.2	
244.84	5758.9	
245.05	4205.8	
245.26	3921.9	
245.47	5702.2	
245.68	6018.3	
245.9	5223	
246.11	4130.1	
246.32	5246.9	
246.53	5721.3	
246.74	6373.3	
246.95	3289	
247.16	4913.8	
247.38	5472.9	
247.59	3263.1	
247.8	3943	
248.01	5134.3	
248.22	5444.2	
248.43	3592.1	
248.64	3821.5	
248.86	4805.2	
249.07	5220.3	
249.28	3457	
249.49	4056.3	
249.7	6004	
249.91	6200.6	
250.12	3236.5	
250.34	3347.7	
250.55	5528.2	
250.76	5465.3	
250.97	4078.9	
251.18	4124.6	
251.39	6139.8	
251.6	5630.5	
251.81	4230.4	
252.03	4133.5	
252.24	5190.9	
252.45	6003.3	
252.66	3469.9	
252.87	4388.8	
253.08	5470.1	
253.29	7311.2	
253.5	3409.2	
253.72	4798.4	
253.93	5248.3	
254.14	6457.2	
254.35	3758.7	
254.56	3846.8	
254.77	5695.4	
254.98	5066.7	
255.19	3654.9	
255.41	4778.6	
255.62	5558.2	
255.83	6088.6	
256.04	4198.3	
256.25	4177.2	
256.46	6500.3	
256.67	5093.3	
256.88	4032.5	
257.09	4536.3	
257.31	5112.4	
257.52	5194.3	
257.73	5100.1	
257.94	3745.7	
258.15	5316.5	
258.36	5464	
258.57	4721.9	
258.78	2964.8	
258.99	6010.8	
259.2	5248.9	
259.41	3762.1	
259.63	3813.3	
259.84	6354.8	
260.05	6820.4	
260.26	4986.8	
260.47	3695.2	
260.68	6009.4	
260.89	5336.3	
261.1	4577.9	
261.31	3542.3	
261.52	6092.7	
261.73	6371.9	
261.95	4825	
262.16	4229.7	
262.37	6187.6	
262.58	6292.7	
262.79	4846.9	
263	3861.8	
263.21	5517.9	
263.42	5005.2	
263.63	3856.3	
263.84	3839.9	
264.05	6059.9	
264.26	6394.4	
264.47	4683.7	
264.69	4247.5	
264.9	6128.2	
265.11	5593.7	
265.32	3584.6	
265.53	3720.5	
265.74	5599.1	
265.95	4894.6	
266.16	4028.4	
266.37	4427.7	
266.58	5515.2	
266.79	5257.1	
267	3745.1	
267.21	3442	
267.42	5016.2	
267.63	5493.3	
267.84	3928	
268.06	3358	
268.27	5907	
268.48	6225.8	
268.69	3882.9	
268.9	4578.6	
269.11	6141.2	
269.32	4909	
269.53	3863.2	
269.74	3633.8	
269.95	5836	
270.16	4814.8	
270.37	3964.9	
270.58	4552	
270.79	5284.4	
271	6075	
271.21	4189.5	
271.42	4004.5	
271.63	5591.6	
271.84	5089.9	
272.05	3125.2	
272.26	3575.8	
272.47	5425.1	
272.68	5716.6	
272.89	3751.2	
273.11	4384.7	
273.32	5259.2	
273.53	6432	
273.74	4272.1	
273.95	4199.7	
274.16	6069.5	
274.37	5518.6	
274.58	4334.9	
274.79	3422.8	
275	5562.3	
275.21	6111.8	
275.42	5229.1	
275.63	4519.9	
275.84	5698.1	
276.05	7277.1	
276.26	4164.2	
276.47	3904.8	
276.68	5281	
276.89	6493.4	
277.1	4418.2	
277.31	3458.3	
277.52	5747.3	
277.73	5911.1	
277.94	3429	
278.15	3863.8	
278.36	5706.3	
278.57	5092.6	
278.78	3767.6	
278.99	4252.9	
279.2	5133.6	
279.41	5045.5	
279.62	4954.7	
279.83	3508.9	
280.04	6711.2	
280.25	4967	
280.46	4932.9	
280.67	3942.3	
280.88	5091.9	
281.09	6070.2	
281.3	4186.7	
281.51	5228.5	
281.72	5982.8	
281.93	5999.9	
282.14	3679.5	
282.35	3951.9	
282.56	5952.1	
282.77	5996.5	
282.98	3758.7	
283.19	4678.9	
283.4	7309.2	
283.61	5355.4	
283.82	3457.7	
284.03	4911.7	
284.24	5636	
284.45	6097.5	
284.66	4894.6	
284.87	4776.5	
285.08	6065.4	
285.29	6249	
285.5	3360	
285.71	3921.2	
285.92	6143.9	
286.12	6795.8	
286.33	4828.4	
286.54	3837.2	
286.75	5974.6	
286.96	5329.5	
287.17	3482.9	
287.38	4800.4	
287.59	5137	
287.8	5005.9	
288.01	3910.3	
288.22	4433.2	
288.43	5981.4	
288.64	4958.1	
288.85	4619.5	
289.06	4389.5	
289.27	5977.3	
289.48	6343.9	
289.69	4909.7	
289.9	4396.3	
290.11	6106.4	
290.32	5161.6	
290.53	4603.2	
290.74	4315.1	
290.94	5882.4	
291.15	6006	
291.36	3759.4	
291.57	4373.1	
291.78	5205.3	
291.99	4922.6	
292.2	3572.3	
292.41	4339.6	
292.62	6050.4	
292.83	5820.3	
293.04	5298.8	
293.25	3592.1	
293.46	5260.5	
293.67	6001.9	
293.88	3692.5	
294.09	3539.6	
294.29	5023	
294.5	5614.2	
294.71	4009.9	
294.92	3805.1	
295.13	5262.6	
295.34	6578.8	
295.55	3317	
295.76	3516.4	
295.97	5920.7	
296.18	6675	
296.39	3474	
296.6	3687	
296.81	5571.8	
297.01	5875.6	
297.22	3842.7	
297.43	3702.7	
297.64	5126.7	
297.85	5119.9	
298.06	3064.4	
298.27	3324.5	
298.48	5489.9	
298.69	5218.9	
298.9	4002.4	
299.11	3612.6	
299.31	4997	
299.52	5005.9	
299.73	4315.1	
299.94	4191.5	
300.15	5494	
300.36	5066.7	
300.57	4212	
300.78	4201.7	
300.99	5334.3	
301.2	5656.5	
301.4	3663.8	
301.61	4024.3	
301.82	5814.9	
302.03	5935.7	
302.24	4457.1	
302.45	3509.5	
302.66	5738.4	
302.87	6280.4	
303.08	3770.3	
303.29	5087.8	
303.49	5200.5	
303.7	5502.9	
303.91	3244.7	
304.12	4833.9	
304.33	4975.2	
304.54	5569.1	
304.75	3689.8	
304.96	3528	
305.16	5816.9	
305.37	6576	
305.58	3252.9	
305.79	3323.9	
306	5838.1	
306.21	4858.5	
306.42	3535.5	
306.63	5683.8	
306.83	5328.8	
307.04	6092.7	
307.25	4101.4	
307.46	4050.9	
307.67	4646.2	
307.88	5984.8	
308.09	3609.2	
308.29	3784	
308.5	5540.4	
308.71	6083.8	
308.92	3947.1	
309.13	3550.5	
309.34	5455.1	
309.55	5427.8	
309.75	4620.2	
309.96	4265.2	
310.17	5888.6	
310.38	5190.9	
310.59	4490.5	
310.8	3527.3	
311.01	5266	
311.21	5324	
311.42	3475.4	
311.63	3664.5	
311.84	5223.7	
312.05	5650.3	
312.26	4107.5	
312.46	4519.9	
312.67	5337	
312.88	5023	
313.09	3549.1	
313.3	3463.1	
313.51	6249	
313.71	6642.9	
313.92	3575.1	
314.13	3807.2	
314.34	5618.9	
314.55	5356.8	
314.76	4582.7	
314.96	3971	
315.17	5504.9	
315.38	5947.3	
315.59	3578.5	
315.8	3431	
316.01	6447.7	
316.21	6448.4	
316.42	3418.1	
316.63	3974.4	
316.84	5362.9	
317.05	6234	
317.26	4283.7	
317.46	3784	
317.67	5445.5	
317.88	5870.8	
318.09	4526	
318.3	3306.8	
318.5	5160.9	
318.71	5795.1	
318.92	5769.8	
319.13	4227	
319.34	5905	
319.54	6115.9	
319.75	3333.4	
319.96	3200.3	
320.17	5868.8	
320.38	6058.6	
320.58	3233.1	
320.79	3945.8	
321	6036.7	
321.21	6272.2	
321.42	3909.6	
321.62	3287	
321.83	5079.6	
322.04	5552.7	
322.25	3819.5	
322.46	3613.3	
322.66	5634	
322.87	5750.7	
323.08	4474.8	
323.29	3525.2	
323.5	6561	
323.7	5043.5	
323.91	4965.6	
324.12	4431.1	
324.33	5526.8	
324.53	5881.1	
324.74	4252.3	
324.95	4495.3	
325.16	4841.4	
325.37	5265.3	
325.57	3639.2	
325.78	3650.2	
325.99	5547.9	
326.2	4995	
326.4	5203.2	
326.61	3310.9	
326.82	5419.6	
327.03	5635.3	
327.24	5122	
327.44	4913.1	
327.65	5715.2	
327.86	4648.2	
328.07	4213.4	
328.27	3397.6	
328.48	6199.2	
328.69	5074.9	
328.9	5218.2	
329.1	3869.3	
329.31	5345.9	
329.52	6379.4	
329.73	3531.4	
329.93	4044.7	
330.14	5475.6	
330.35	5817.6	
330.56	5937.1	
330.76	4499.4	
330.97	5296.7	
331.18	5655.1	
331.39	3999	
331.59	3237.2	
331.8	6025.1	
332.01	6238.1	
332.22	3676.1	
332.42	4230.4	
332.63	5550	
332.84	5180.7	
333.05	4000.4	
333.25	3634.5	
333.46	5255.1	
333.67	5527.5	
333.88	3747.1	
334.08	4213.4	
334.29	7397.3	
334.5	6186.9	
334.7	3479.5	
334.91	5175.9	
335.12	5053	
335.33	5887.9	
335.53	3935.5	
335.74	5909.8	
335.95	5229.1	
336.16	5134.3	
336.36	3922.5	
336.57	4599.1	
336.78	4984.1	
336.98	6042.2	
337.19	4915.1	
337.4	3916.4	
337.61	6636.8	
337.81	5002.5	
338.02	3613.3	
338.23	4726.7	
338.43	6301.6	
338.64	5064.6	
338.85	3583.3	
339.05	4734.2	
339.26	6336.4	
339.47	4872.1	
339.68	3571	
339.88	5308.3	
340.09	5686.5	
340.3	6024.4	
340.5	4212.7	
340.71	3219.4	
340.92	4959.5	
341.13	6228.6	
341.33	3487	
341.54	4328	
341.75	5745.9	
341.95	5362.3	
342.16	4044.1	
342.37	4375.1	
342.57	5060.5	
342.78	5476.3	
342.99	4465.3	
343.19	3240.6	
343.4	5958.9	
343.61	5765.7	
343.81	3858.4	
344.02	3545	
344.23	5934.3	
344.43	6320	
344.64	4430.4	
344.85	4354.7	
345.06	5769.1	
345.26	6130.9	
345.47	4225	
345.68	4898.7	
345.88	4848.2	
346.09	5945.9	
346.3	4250.9	
346.5	3160.7	
346.71	5530.2	
346.92	5227.1	
347.12	3237.8	
347.33	4158.7	
347.54	6012.8	
347.74	6483.2	
347.95	4113.7	
348.16	3035.8	
348.36	5283.8	
348.57	4921.3	
348.78	4104.1	
348.98	4417.5	
349.19	5427.1	
349.39	4945.2	
349.6	3295.9	
349.81	3649.5	
350.01	5751.4	
350.22	5225.1	
350.43	3966.2	
350.63	4816.1	
350.84	5528.2	
351.05	5320.6	
351.25	3645.4	
351.46	3300.6	
351.67	6094.1	
351.87	5232.6	
352.08	3896.6	
352.29	4417.5	
352.49	5944.6	
352.7	6068.1	
352.9	3524.6	
353.11	4425.7	
353.32	6645	
353.52	5300.1	
353.73	3504.1	
353.94	4401.1	
354.14	5765	
354.35	5634	
354.55	3573.7	
354.76	3997.6	
354.97	5785.5	
355.17	5571.8	
355.38	3376.4	
355.59	4756.7	
355.79	5225.7	
356	5668.1	
356.2	4002.4	
356.41	3414	
356.62	4878.9	
356.82	5387.5	
357.03	4254.3	
357.24	3824.2	
357.44	5233.2	
357.65	5393.7	
357.85	5195.7	
358.06	4033.8	
358.27	4935.6	
358.47	5190.2	
358.68	3345	
358.88	4294.6	
359.09	5795.1	
359.3	6173.3	
359.5	4984.1	
359.71	4461.2	
359.91	6685.3	
360.12	6006.7	
360.33	4254.3	
360.53	4816.1	
360.74	5234.6	
360.94	5263.3	
361.15	4529.4	
361.36	3704.8	
361.56	6110.5	
361.77	5482.4	
361.97	5038	
362.18	3960.1	
362.38	6087.2	
362.59	5129.5	
362.8	3631	
363	3463.8	
363.21	4930.8	
363.41	5683.8	
363.62	4246.1	
363.83	5266.7	
364.03	5711.8	
364.24	6724.8	
364.44	5378.6	
364.65	5281	
364.85	5445.5	
365.06	5344.5	
365.27	3865.2	
365.47	3854.3	
365.68	6609.5	
365.88	5469.4	
366.09	4316.4	
366.29	3979.2	
366.5	5778	
366.71	6201.2	
366.91	5433.3	
367.12	4536.3	
367.32	6786.3	
367.53	6070.2	
367.73	4517.8	
367.94	5470.1	
368.14	6093.4	
368.35	6939.9	
368.56	4432.5	
368.76	4195.6	
368.97	6055.8	
369.17	7887.4	
369.38	3876.8	
369.58	4185.4	
369.79	5177.3	
369.99	6451.8	
370.2	5268.7	
370.4	4339	
370.61	5870.2	
370.82	7021.8	
371.02	4233.8	
371.23	3420.8	
371.43	5014.1	
371.64	6535.8	
371.84	4302.8	
372.05	5531.6	
372.25	7892.2	
372.46	6216.3	
372.66	4341.7	
372.87	4264.6	
373.07	6345.3	
373.28	7937.2	
373.48	5408	
373.69	5066	
373.9	5778	
374.1	5842.2	
374.31	5331.5	
374.51	4909.7	
374.72	6795.2	
374.92	5517.9	
375.13	5593	
375.33	4742.4	
375.54	6301.6	
375.74	5733.6	
375.95	4883	
376.15	6179.4	
376.36	6333	
376.56	6170.5	
376.77	4960.2	
376.97	5412.1	
377.18	7400.7	
377.38	6503	
377.59	5826.5	
377.79	4425	
378	6270.9	
378.2	6797.2	
378.41	4569	
378.61	4491.2	
378.82	6832.7	
379.02	5865.4	
379.23	4773.8	
379.43	5958.9	
379.64	6891.4	
379.84	6554.9	
380.05	4563.6	
380.25	4484.4	
380.46	6578.8	
380.66	6204	
380.87	5994.4	
381.07	6263.4	
381.28	7280.5	
381.48	6623.8	
381.69	4571.7	
381.89	4661.2	
382.1	5496.1	
382.3	6779.5	
382.51	5778.7	
382.71	6684.6	
382.91	6582.9	
383.12	7154.9	
383.32	4928.8	
383.53	5187.5	
383.73	6408.1	
383.94	6201.9	
384.14	5031.9	
384.35	4078.9	
384.55	6072.9	
384.76	6587	
384.96	4867.3	
385.17	5240.8	
385.37	6567.8	
385.58	5778	
385.78	5305.6	
385.98	4046.1	
386.19	6040.1	
386.39	6464.8	
386.6	4726.7	
386.8	4988.9	
387.01	6584.2	
387.21	6698.9	
387.42	5455.1	
387.62	6097.5	
387.83	5986.2	
388.03	6662.7	
388.23	5182	
388.44	5971.2	
388.64	5586.9	
388.85	5825.8	
389.05	5511.8	
389.26	6138.4	
389.46	7794.6	
389.67	7224.6	
389.87	5560.9	
390.07	5595.1	
390.28	6511.9	
390.48	5966.4	
390.69	4792.9	
390.89	5042.8	
391.1	6160.3	
391.3	7163.1	
391.5	6313.2	
391.71	6889.4	
391.91	6870.9	
392.12	7985.7	
392.32	6438.1	
392.53	5543.2	
392.73	6181.5	
392.93	6418.3	
393.14	5227.1	
393.34	6010.1	
393.55	6939.2	
393.75	6360.3	
393.95	5169.8	
394.16	5190.9	
394.36	6190.3	
394.57	6933.1	
394.77	4782.7	
394.98	5193.6	
395.18	6278.4	
395.38	6380.1	
395.59	6252.4	
395.79	5153.4	
396	6479.8	
396.2	6854.6	
396.4	6185.5	
396.61	6038.8	
396.81	7254.6	
397.02	6496.2	
397.22	6420.4	
397.42	6507.1	
397.63	7276.4	
397.83	6458.6	
398.04	5094	
398.24	5862	
398.44	7062.1	
398.65	6109.1	
398.85	5082.4	
399.05	5280.3	
399.26	6569.9	
399.46	8408.3	
399.67	5724.1	
399.87	5406	
400.07	7060	
400.28	7498.3	
400.48	5655.1	
400.69	6868.9	
400.89	7775.5	
401.09	8134.5	
401.3	5532.9	
401.5	6762.4	
401.7	8494.3	
401.91	8736	
402.11	5864.7	
402.32	6060.6	
402.52	7615.7	
402.72	7443.7	
402.93	6171.9	
403.13	4825.7	
403.33	8295.6	
403.54	6856.6	
403.74	5877.7	
403.94	6762.4	
404.15	7117.4	
404.35	8378.9	
404.56	5649.7	
404.76	7712.7	
404.96	7653.3	
405.17	7371.3	
405.37	6850.5	
405.57	6281.1	
405.78	7808.2	
405.98	7010.9	
406.18	5768.4	
406.39	6728.9	
406.59	7659.4	
406.79	7248.4	
407	5609.4	
407.2	5764.3	
407.4	7898.3	
407.61	8135.2	
407.81	6004.6	
408.01	8229.4	
408.22	7029.3	
408.42	9285.5	
408.62	7440.3	
408.83	6944.7	
409.03	8020.5	
409.23	7731.1	
409.44	7189.1	
409.64	7509.9	
409.84	9099.1	
410.05	9154.4	
410.25	7466.2	
410.45	7230	
410.66	8682	
410.86	11249	
411.06	7923.6	
411.27	7690.1	
411.47	11342	
411.67	9086.8	
411.88	7979.6	
412.08	8459.5	
412.28	9790.7	
412.49	10299	
412.69	8011.7	
412.89	8069	
413.09	10228	
413.3	10114	
413.5	8218.5	
413.7	7796.6	
413.91	9327.8	
414.11	10357	
414.31	8129.8	
414.52	8764.6	
414.72	10027	
414.92	10084	
415.12	8200.7	
415.33	8775.5	
415.53	10482	
415.73	10798	
415.94	9176.3	
416.14	8569.4	
416.34	9507.4	
416.55	9218.6	
416.75	9894.4	
416.95	9397.4	
417.15	10669	
417.36	11320	
417.56	10327	
417.76	9281.4	
417.97	11133	
418.17	10830	
418.37	8721.6	
418.57	8946.2	
418.78	10409	
418.98	10116	
419.18	9796.1	
419.38	9637.7	
419.59	10198	
419.79	9752.4	
419.99	8908.7	
420.2	9179.7	
420.4	10852	
420.6	10912	
420.8	8791.2	
421.01	8571.4	
421.21	10814	
421.41	10854	
421.61	9157.2	
421.82	8835.6	
422.02	10160	
422.22	11081	
422.42	9743.6	
422.63	8989.9	
422.83	10292	
423.03	11599	
423.23	9340.8	
423.44	8236.2	
423.64	10359	
423.84	9817.3	
424.04	8676.6	
424.25	8228.1	
424.45	11202	
424.65	11041	
424.85	7976.8	
425.06	8772.8	
425.26	11115	
425.46	10206	
425.66	9215.9	
425.87	8868.4	
426.07	10789	
426.27	10672	
426.47	9091.6	
426.67	8300.4	
426.88	11202	
427.08	10574	
427.28	9332.6	
427.48	8189.8	
427.69	9412.5	
427.89	10088	
428.09	9285.5	
428.29	8329.8	
428.5	10971	
428.7	10446	
428.9	8338	
429.1	8942.8	
429.3	10501	
429.51	10977	
429.71	8629.5	
429.91	9578.3	
430.11	10798	
430.31	11231	
430.52	9028.1	
430.72	9446.6	
430.92	11430	
431.12	10882	
431.32	8887.5	
431.53	9214.5	
431.73	9881.4	
431.93	11742	
432.13	8779	
432.33	8742.8	
432.54	10503	
432.74	10958	
432.94	8786.5	
433.14	9839.8	
433.34	11009	
433.55	10738	
433.75	9780.4	
433.95	11926	
434.15	10976	
434.35	10744	
434.56	9015.2	
434.76	8779	
434.96	11047	
435.16	11517	
435.36	9113.5	
435.56	10373	
435.77	10860	
435.97	11079	
436.17	11176	
436.37	10432	
436.57	10888	
436.78	10913	
436.98	12037	
437.18	10886	
437.38	11749	
437.58	10981	
437.78	10932	
437.99	9473.2	
438.19	11444	
438.39	12988	
438.59	9519.6	
438.79	8933.9	
438.99	12395	
439.2	11245	
439.4	9259.5	
439.6	9295	
439.8	11776	
440	12833	
440.2	10678	
440.4	10784	
440.61	12314	
440.81	13007	
441.01	9998.9	
441.21	11139	
441.41	13084	
441.61	12525	
441.81	11434	
442.02	12547	
442.22	13453	
442.42	12593	
442.62	10373	
442.82	10092	
443.02	13189	
443.22	12299	
443.43	10873	
443.63	10340	
443.83	11951	
444.03	12164	
444.23	11934	
444.43	11417	
444.63	12587	
444.83	13688	
445.04	10682	
445.24	11943	
445.44	12656	
445.64	12973	
445.84	11139	
446.04	11283	
446.24	11934	
446.44	13063	
446.65	10288	
446.85	10899	
447.05	12084	
447.25	12993	
447.45	10847	
447.65	10267	
447.85	12291	
448.05	11792	
448.25	11508	
448.46	11254	
448.66	12486	
448.86	11942	
449.06	10238	
449.26	11403	
449.46	13031	
449.66	11703	
449.86	11169	
450.06	11021	
450.26	12130	
450.47	12764	
450.67	11101	
450.87	11673	
451.07	12734	
451.27	12724	
451.47	10597	
451.67	11329	
451.87	12337	
452.07	13298	
452.27	11011	
452.47	10875	
452.67	12603	
452.88	13320	
453.08	10088	
453.28	12415	
453.48	14221	
453.68	12561	
453.88	11136	
454.08	11306	
454.28	13442	
454.48	13084	
454.68	11905	
454.88	12491	
455.08	13564	
455.28	13568	
455.48	11012	
455.68	12060	
455.89	14441	
456.09	14090	
456.29	11784	
456.49	12131	
456.69	14470	
456.89	13397	
457.09	12577	
457.29	13275	
457.49	14202	
457.69	14534	
457.89	12840	
458.09	12108	
458.29	14201	
458.49	14958	
458.69	13263	
458.89	12721	
459.09	15299	
459.29	15367	
459.49	12723	
459.69	13745	
459.9	14765	
460.1	14567	
460.3	12693	
460.5	12605	
460.7	15008	
460.9	14866	
461.1	12394	
461.3	13996	
461.5	16109	
461.7	15552	
461.9	13530	
462.1	13579	
462.3	15336	
462.5	15966	
462.7	13560	
462.9	13785	
463.1	17175	
463.3	17084	
463.5	14089	
463.7	15487	
463.9	15910	
464.1	16546	
464.3	14793	
464.5	14808	
464.7	16785	
464.9	16820	
465.1	16393	
465.3	15404	
465.5	17225	
465.7	17490	
465.9	15831	
466.1	15418	
466.3	17582	
466.5	16870	
466.7	17173	
466.9	15522	
467.1	17372	
467.3	18348	
467.5	17249	
467.7	15857	
467.9	18748	
468.1	19636	
468.3	16578	
468.5	17244	
468.7	17709	
468.9	17615	
469.1	16494	
469.3	17216	
469.5	19858	
469.7	17610	
469.9	16651	
470.1	16285	
470.3	17819	
470.5	17885	
470.7	17410	
470.9	16244	
471.1	17816	
471.3	17602	
471.5	16041	
471.69	18203	
471.89	17193	
472.09	16619	
472.29	16995	
472.49	16931	
472.69	17148	
472.89	17913	
473.09	16051	
473.29	15763	
473.49	17187	
473.69	17170	
473.89	16840	
474.09	15988	
474.29	18633	
474.49	18158	
474.69	16879	
474.89	16055	
475.09	17204	
475.29	17316	
475.49	15394	
475.69	15812	
475.88	18642	
476.08	17451	
476.28	15366	
476.48	15665	
476.68	17672	
476.88	17615	
477.08	15423	
477.28	16159	
477.48	17006	
477.68	17720	
477.88	15466	
478.08	15586	
478.28	18290	
478.48	17268	
478.67	15864	
478.87	14881	
479.07	18388	
479.27	17289	
479.47	16104	
479.67	16194	
479.87	18045	
480.07	18523	
480.27	15417	
480.47	16919	
480.67	17452	
480.87	18417	
481.06	15573	
481.26	16602	
481.46	17603	
481.66	17466	
481.86	16140	
482.06	17191	
482.26	17124	
482.46	18273	
482.66	16206	
482.86	15898	
483.05	17762	
483.25	17158	
483.45	18854	
483.65	16380	
483.85	17529	
484.05	17812	
484.25	16808	
484.45	17536	
484.65	18781	
484.84	19215	
485.04	16569	
485.24	16727	
485.44	19387	
485.64	17648	
485.84	16089	
486.04	17661	
486.24	18248	
486.44	18653	
486.63	16255	
486.83	17180	
487.03	18591	
487.23	18841	
487.43	16578	
487.63	19250	
487.83	18888	
488.02	20025	
488.22	18018	
488.42	18761	
488.62	19850	
488.82	18743	
489.02	17423	
489.22	17826	
489.41	19716	
489.61	19536	
489.81	17326	
490.01	17496	
490.21	19738	
490.41	20303	
490.61	17106	
490.8	17107	
491	19015	
491.2	18067	
491.4	17750	
491.6	16879	
491.8	18979	
491.99	19311	
492.19	17115	
492.39	17573	
492.59	20054	
492.79	20256	
492.99	18771	
493.18	17793	
493.38	20384	
493.58	21734	
493.78	18988	
493.98	18590	
494.18	20731	
494.37	20370	
494.57	20085	
494.77	19644	
494.97	21607	
495.17	21974	
495.37	19645	
495.56	19953	
495.76	22212	
495.96	21807	
496.16	21079	
496.36	20087	
496.55	22155	
496.75	21796	
496.95	20424	
497.15	20504	
497.35	22216	
497.54	22460	
497.74	20112	
497.94	22151	
498.14	23374	
498.34	23149	
498.53	20359	
498.73	21313	
498.93	22268	
499.13	22923	
499.33	21296	
499.52	21465	
499.72	23207	
499.92	23178	
500.12	21060	
500.32	21096	
500.51	23141	
500.71	23356	
500.91	22205	
501.11	21658	
501.31	23442	
501.5	23746	
501.7	22372	
501.9	21320	
502.1	22913	
502.29	23304	
502.49	21787	
502.69	21838	
502.89	23124	
503.09	23026	
503.28	20315	
503.48	20541	
503.68	21874	
503.88	22142	
504.07	21539	
504.27	20674	
504.47	22519	
504.67	22203	
504.86	21272	
505.06	20551	
505.26	21670	
505.46	23558	
505.65	20445	
505.85	20488	
506.05	21394	
506.25	21711	
506.44	19260	
506.64	20197	
506.84	20950	
507.04	21668	
507.23	19305	
507.43	19854	
507.63	22676	
507.83	20844	
508.02	19569	
508.22	19093	
508.42	22754	
508.62	20446	
508.81	19256	
509.01	20203	
509.21	20307	
509.4	20708	
509.6	19643	
509.8	19238	
510	20757	
510.19	22490	
510.39	19127	
510.59	19428	
510.79	20816	
510.98	22214	
511.18	19456	
511.38	19489	
511.57	21457	
511.77	21309	
511.97	20140	
512.17	18951	
512.36	21612	
512.56	21313	
512.76	19230	
512.95	18880	
513.15	21769	
513.35	20510	
513.55	20294	
513.74	19424	
513.94	21875	
514.14	21138	
514.33	20521	
514.53	20439	
514.73	21265	
514.92	21745	
515.12	20080	
515.32	19934	
515.51	22002	
515.71	22530	
515.91	21965	
516.11	20039	
516.3	23994	
516.5	21758	
516.7	20656	
516.89	21394	
517.09	21734	
517.29	21851	
517.48	21219	
517.68	20346	
517.88	21616	
518.07	22190	
518.27	21178	
518.47	20040	
518.66	22749	
518.86	21491	
519.06	19839	
519.25	20601	
519.45	21812	
519.65	23502	
519.84	21017	
520.04	21623	
520.24	23552	
520.43	22136	
520.63	20188	
520.83	20194	
521.02	21338	
521.22	21877	
521.42	20708	
521.61	21427	
521.81	21655	
522.01	21877	
522.2	20817	
522.4	20446	
522.6	22892	
522.79	21786	
522.99	21050	
523.18	20710	
523.38	23016	
523.58	23090	
523.77	23064	
523.97	21190	
524.17	25395	
524.36	24687	
524.56	22793	
524.76	22557	
524.95	24059	
525.15	23401	
525.34	22414	
525.54	22551	
525.74	24430	
525.93	23212	
526.13	23933	
526.33	22784	
526.52	25047	
526.72	24574	
526.91	24176	
527.11	23632	
527.31	25391	
527.5	25808	
527.7	23634	
527.89	22756	
528.09	24496	
528.29	25266	
528.48	24135	
528.68	23819	
528.87	25629	
529.07	25184	
529.27	23250	
529.46	22715	
529.66	24569	
529.85	24951	
530.05	22377	
530.25	23386	
530.44	26304	
530.64	24949	
530.83	23433	
531.03	23875	
531.23	25705	
531.42	25472	
531.62	24909	
531.81	24111	
532.01	26277	
532.21	26874	
532.4	24277	
532.6	25007	
532.79	27517	
532.99	26950	
533.18	25133	
533.38	26056	
533.58	26750	
533.77	27179	
533.97	25358	
534.16	26187	
534.36	27764	
534.55	26717	
534.75	26174	
534.95	25386	
535.14	27669	
535.34	26682	
535.53	24683	
535.73	26907	
535.92	27927	
536.12	26529	
536.31	24974	
536.51	26333	
536.71	26856	
536.9	26533	
537.1	25083	
537.29	25251	
537.49	27479	
537.68	26467	
537.88	26059	
538.07	25100	
538.27	27019	
538.46	27975	
538.66	25055	
538.86	25608	
539.05	26977	
539.25	27185	
539.44	25854	
539.64	24966	
539.83	26562	
540.03	27590	
540.22	25059	
540.42	24752	
540.61	26460	
540.81	26928	
541	25206	
541.2	25981	
541.39	25908	
541.59	26571	
541.78	25649	
541.98	24148	
542.18	25458	
542.37	25516	
542.57	24329	
542.76	25070	
542.96	24911	
543.15	25650	
543.35	23950	
543.54	23310	
543.74	25428	
543.93	25269	
544.13	23690	
544.32	24781	
544.52	25249	
544.71	24499	
544.91	22601	
545.1	23898	
545.3	24633	
545.49	25202	
545.69	22409	
545.88	23185	
546.08	26379	
546.27	25757	
546.47	23746	
546.66	22973	
546.86	25299	
547.05	25998	
547.24	23111	
547.44	23156	
547.63	24119	
547.83	25374	
548.02	23393	
548.22	23438	
548.41	23892	
548.61	25139	
548.8	22656	
549	22562	
549.19	24323	
549.39	24633	
549.58	22245	
549.78	22775	
549.97	24694	
550.17	24215	
550.36	23663	
550.55	24580	
550.75	24114	
550.94	25103	
551.14	22447	
551.33	22653	
551.53	23589	
551.72	24791	
551.92	22722	
552.11	22443	
552.31	24529	
552.5	24458	
552.69	24184	
552.89	22115	
553.08	24536	
553.28	24151	
553.47	22481	
553.67	23688	
553.86	25088	
554.06	23317	
554.25	21319	
554.44	22152	
554.64	25673	
554.83	25278	
555.03	22008	
555.22	22442	
555.42	24376	
555.61	24132	
555.8	22154	
556	22520	
556.19	23461	
556.39	24604	
556.58	22345	
556.78	22259	
556.97	24046	
557.16	23982	
557.36	23546	
557.55	21902	
557.75	22840	
557.94	24861	
558.13	21715	
558.33	21721	
558.52	24395	
558.72	23178	
558.91	21445	
559.1	21903	
559.3	22902	
559.49	22313	
559.69	21150	
559.88	22269	
560.07	23627	
560.27	24041	
560.46	22189	
560.66	22466	
560.85	23199	
561.04	22231	
561.24	21367	
561.43	21352	
561.63	22633	
561.82	22881	
562.01	22799	
562.21	21999	
562.4	23354	
562.59	24761	
562.79	21784	
562.98	21480	
563.18	23408	
563.37	25101	
563.56	22407	
563.76	21612	
563.95	23087	
564.14	22964	
564.34	21988	
564.53	21659	
564.73	23752	
564.92	24159	
565.11	22338	
565.31	21754	
565.5	24191	
565.69	23275	
565.89	21939	
566.08	22139	
566.27	24143	
566.47	24875	
566.66	22851	
566.85	21502	
567.05	23739	
567.24	23051	
567.44	21779	
567.63	23214	
567.82	23976	
568.02	23692	
568.21	21766	
568.4	22338	
568.6	23672	
568.79	23761	
568.98	21590	
569.18	21774	
569.37	23582	
569.56	25649	
569.76	21805	
569.95	22879	
570.14	23406	
570.34	23457	
570.53	21141	
570.72	21128	
570.91	23785	
571.11	22788	
571.3	21474	
571.49	22257	
571.69	22993	
571.88	22291	
572.07	22172	
572.27	22037	
572.46	22815	
572.65	23752	
572.85	21448	
573.04	21852	
573.23	24098	
573.43	23338	
573.62	21530	
573.81	22135	
574	23622	
574.2	23436	
574.39	21992	
574.58	22141	
574.78	24776	
574.97	23942	
575.16	22612	
575.36	23013	
575.55	24455	
575.74	24494	
575.93	21614	
576.13	22996	
576.32	23580	
576.51	24326	
576.71	22272	
576.9	23885	
577.09	24650	
577.28	24226	
577.48	22961	
577.67	21796	
577.86	23905	
578.05	24436	
578.25	22704	
578.44	22849	
578.63	23961	
578.83	25385	
579.02	22083	
579.21	23703	
579.4	24510	
579.6	24413	
579.79	23068	
579.98	25199	
580.17	24950	
580.37	25378	
580.56	22675	
580.75	23745	
580.94	25905	
581.14	25532	
581.33	24306	
581.52	23125	
581.71	25532	
581.91	26119	
582.1	23094	
582.29	23543	
582.48	25152	
582.68	25152	
582.87	24260	
583.06	23894	
583.25	25690	
583.45	24886	
583.64	24829	
583.83	25404	
584.02	25226	
584.21	25855	
584.41	24648	
584.6	23982	
584.79	25599	
584.98	26287	
585.18	23438	
585.37	23210	
585.56	24823	
585.75	25771	
585.94	23277	
586.14	24134	
586.33	25805	
586.52	24962	
586.71	23463	
586.91	23167	
587.1	23773	
587.29	25066	
587.48	22388	
587.67	22333	
587.87	24031	
588.06	23766	
588.25	23104	
588.44	21873	
588.63	22467	
588.83	22838	
589.02	20048	
589.21	19488	
589.4	20586	
589.59	20051	
589.78	17396	
589.98	17369	
590.17	18620	
590.36	19211	
590.55	16208	
590.74	16873	
590.94	20256	
591.13	18748	
591.32	16813	
591.51	16358	
591.7	19338	
591.89	19004	
592.09	16713	
592.28	17305	
592.47	18201	
592.66	20390	
592.85	17150	
593.05	17446	
593.24	19093	
593.43	20092	
593.62	17901	
593.81	18363	
594	19551	
594.19	19794	
594.39	17591	
594.58	17472	
594.77	19667	
594.96	20302	
595.15	17127	
595.34	17905	
595.54	19456	
595.73	18502	
595.92	16645	
596.11	17836	
596.3	20207	
596.49	18930	
596.68	17785	
596.88	18452	
597.07	20212	
597.26	19087	
597.45	17441	
597.64	18873	
597.83	19412	
598.02	20155	
598.22	17735	
598.41	18496	
598.6	20238	
598.79	19552	
598.98	18047	
599.17	19106	
599.36	20415	
599.55	21634	
599.74	20652	
599.94	20483	
600.13	21281	
600.32	19967	
600.51	18402	
600.7	18597	
600.89	22008	
601.08	22121	
601.27	18567	
601.47	19662	
601.66	21452	
601.85	22231	
602.04	19486	
602.23	19845	
602.42	20696	
602.61	21467	
602.8	19512	
602.99	19331	
603.18	21206	
603.37	21786	
603.57	20076	
603.76	20624	
603.95	22502	
604.14	22061	
604.33	19821	
604.52	20083	
604.71	21992	
604.9	21388	
605.09	20727	
605.28	20547	
605.47	22357	
605.66	21974	
605.86	20331	
606.05	19841	
606.24	22277	
606.43	20759	
606.62	20171	
606.81	20781	
607	22283	
607.19	21622	
607.38	19396	
607.57	19646	
607.76	21205	
607.95	20594	
608.14	20034	
608.33	20588	
608.52	21138	
608.72	21975	
608.91	19213	
609.1	19050	
609.29	21141	
609.48	20382	
609.67	19957	
609.86	19128	
610.05	20570	
610.24	20906	
610.43	18856	
610.62	18421	
610.81	22059	
611	21874	
611.19	18958	
611.38	19758	
611.57	21243	
611.76	22538	
611.95	18680	
612.14	18434	
612.33	20962	
612.52	20540	
612.71	19336	
612.9	18373	
613.09	20045	
613.28	22560	
613.47	18905	
613.66	20006	
613.85	21148	
614.04	20668	
614.24	19207	
614.43	18137	
614.62	21262	
614.81	21198	
615	19710	
615.19	20041	
615.38	20468	
615.57	20865	
615.76	19509	
615.95	20504	
616.14	21360	
616.33	20988	
616.52	19947	
616.71	20305	
616.9	21307	
617.09	21270	
617.28	19488	
617.47	20725	
617.66	20601	
617.85	20811	
618.04	20705	
618.22	19921	
618.41	21250	
618.6	22326	
618.79	20155	
618.98	19962	
619.17	22737	
619.36	20927	
619.55	20204	
619.74	20214	
619.93	22085	
620.12	21560	
620.31	20897	
620.5	21122	
620.69	22818	
620.88	23259	
621.07	21800	
621.26	20930	
621.45	22552	
621.64	22411	
621.83	20919	
622.02	20274	
622.21	22457	
622.4	22368	
622.59	21771	
622.78	21399	
622.97	21891	
623.16	22904	
623.35	21004	
623.54	20135	
623.72	22143	
623.91	22344	
624.1	21190	
624.29	19883	
624.48	23302	
624.67	22543	
624.86	21134	
625.05	20069	
625.24	23343	
625.43	21474	
625.62	22720	
625.81	20137	
626	22505	
626.19	21819	
626.38	20826	
626.56	19956	
626.75	21242	
626.94	21992	
627.13	20158	
627.32	18751	
627.51	21538	
627.7	22975	
627.89	18738	
628.08	20001	
628.27	20542	
628.46	20820	
628.65	19011	
628.83	18828	
629.02	21332	
629.21	20775	
629.4	19744	
629.59	20000	
629.78	20889	
629.97	21838	
630.16	20234	
630.35	19635	
630.54	22417	
630.72	22076	
630.91	19529	
631.1	20153	
631.29	21517	
631.48	21760	
631.67	20446	
631.86	19651	
632.05	21225	
632.24	21385	
632.42	19398	
632.61	20228	
632.8	21332	
632.99	21166	
633.18	20280	
633.37	20725	
633.56	21625	
633.75	21599	
633.93	20206	
634.12	19928	
634.31	22744	
634.5	22485	
634.69	20243	
634.88	20439	
635.07	21663	
635.25	22175	
635.44	20985	
635.63	21374	
635.82	21501	
636.01	20938	
636.2	20837	
636.39	20534	
636.57	22751	
636.76	22350	
636.95	19882	
637.14	21295	
637.33	22096	
637.52	23009	
637.7	19601	
637.89	20672	
638.08	21564	
638.27	22913	
638.46	20594	
638.65	20948	
638.83	22634	
639.02	21229	
639.21	20353	
639.4	20863	
639.59	21519	
639.78	21117	
639.96	19540	
640.15	19391	
640.34	21321	
640.53	21272	
640.72	19026	
640.91	19297	
641.09	20463	
641.28	21754	
641.47	19252	
641.66	20291	
641.85	21217	
642.03	21213	
642.22	19706	
642.41	19146	
642.6	20354	
642.79	19581	
642.97	18653	
643.16	19398	
643.35	20061	
643.54	19642	
643.73	18129	
643.91	18766	
644.1	19000	
644.29	19627	
644.48	17636	
644.67	17484	
644.85	18499	
645.04	18542	
645.23	16196	
645.42	16447	
645.6	17425	
645.79	18503	
645.98	15781	
646.17	14589	
646.36	16431	
646.54	16769	
646.73	16047	
646.92	14792	
647.11	16152	
647.29	17232	
647.48	14648	
647.67	14424	
647.86	17508	
648.05	17925	
648.23	15374	
648.42	16787	
648.61	17543	
648.8	17321	
648.98	15373	
649.17	15866	
649.36	17053	
649.55	16658	
649.73	15283	
649.92	16195	
650.11	16684	
650.3	16960	
650.48	15144	
650.67	14880	
650.86	17252	
651.05	16193	
651.23	15281	
651.42	15180	
651.61	16742	
651.79	16852	
651.98	15569	
652.17	15187	
652.36	17202	
652.54	16191	
652.73	15150	
652.92	14883	
653.11	17133	
653.29	16921	
653.48	13995	
653.67	14957	
653.85	16444	
654.04	17218	
654.23	14864	
654.42	14216	
654.6	15292	
654.79	15839	
654.98	13467	
655.16	13940	
655.35	14825	
655.54	14872	
655.73	13698	
655.91	13665	
656.1	16432	
656.29	15414	
656.47	13612	
656.66	15485	
656.85	15937	
657.03	15949	
657.22	14517	
657.41	14732	
657.59	16269	
657.78	16041	
657.97	14470	
658.16	15204	
658.34	16975	
658.53	17606	
658.72	16276	
658.9	16845	
659.09	16608	
659.28	16679	
659.46	15316	
659.65	15283	
659.84	16514	
660.02	17023	
660.21	15076	
660.4	15165	
660.58	17675	
660.77	17010	
660.96	15886	
661.14	14778	
661.33	17929	
661.52	17931	
661.7	14790	
661.89	18514	
662.08	16520	
662.26	16055	
662.45	14846	
662.64	15001	
662.82	17095	
663.01	16360	
663.2	15076	
663.38	15862	
663.57	16948	
663.75	16951	
663.94	15452	
664.13	16578	
664.31	16397	
664.5	17131	
664.69	15381	
664.87	16221	
665.06	16044	
665.25	16921	
665.43	16365	
665.62	16337	
665.8	17146	
665.99	16429	
666.18	15272	
666.36	15402	
666.55	17030	
666.74	17051	
666.92	14838	
667.11	16327	
667.29	16434	
667.48	17018	
667.67	16070	
667.85	15195	
668.04	16430	
668.22	16505	
668.41	15253	
668.6	15298	
668.78	16175	
668.97	16257	
669.15	15373	
669.34	14351	
669.53	16191	
669.71	16496	
669.9	14506	
670.08	15201	
670.27	16135	
670.46	16545	
670.64	15427	
670.83	15700	
671.01	16025	
671.2	16495	
671.38	14667	
671.57	14510	
671.76	17156	
671.94	17925	
672.13	14425	
672.31	15555	
672.5	16800	
672.69	16090	
672.87	14733	
673.06	14945	
673.24	16463	
673.43	16024	
673.61	15436	
673.8	14753	
673.98	16602	
674.17	16966	
674.36	15397	
674.54	15206	
674.73	16397	
674.91	16655	
675.1	15156	
675.28	14623	
675.47	16071	
675.65	16746	
675.84	14728	
676.03	15054	
676.21	15920	
676.4	15430	
676.58	15588	
676.77	15451	
676.95	17462	
677.14	15670	
677.32	14340	
677.51	14163	
677.69	16597	
677.88	15374	
678.06	14276	
678.25	14306	
678.44	16059	
678.62	15749	
678.81	13992	
678.99	15089	
679.18	16904	
679.36	16657	
679.55	14622	
679.73	15264	
679.92	16395	
680.1	15679	
680.29	16044	
680.47	14538	
680.66	15538	
680.84	16352	
681.03	13728	
681.21	14904	
681.4	15739	
681.58	15352	
681.77	14126	
681.95	14074	
682.14	16350	
682.32	16696	
682.51	15008	
682.69	13474	
682.88	15286	
683.06	15801	
683.25	14579	
683.43	14861	
683.62	15417	
683.8	15597	
683.99	14410	
684.17	13393	
684.36	15555	
684.54	13723	
684.73	11509	
684.91	11459	
685.1	13318	
685.28	12566	
685.46	11664	
685.65	11856	
685.83	13400	
686.02	12764	
686.2	11280	
686.39	11538	
686.57	12633	
686.76	14532	
686.94	11596	
687.13	11827	
687.31	13643	
687.5	13241	
687.68	11205	
687.86	12740	
688.05	15016	
688.23	12783	
688.42	12790	
688.6	11987	
688.79	13398	
688.97	13152	
689.16	12320	
689.34	11131	
689.52	14040	
689.71	14103	
689.89	12385	
690.08	11476	
690.26	13013	
690.45	12736	
690.63	11992	
690.81	11170	
691	12214	
691.18	12220	
691.37	11037	
691.55	13280	
691.74	11886	
691.92	14072	
692.1	11054	
692.29	10456	
692.47	12361	
692.66	11636	
692.84	10879	
693.02	11665	
693.21	12063	
693.39	12581	
693.58	12056	
693.76	11584	
693.94	14442	
694.13	14448	
694.31	12007	
694.5	13362	
694.68	13355	
694.86	13836	
695.05	12697	
695.23	12953	
695.42	14183	
695.6	16606	
695.78	13111	
695.97	11900	
696.15	13859	
696.34	13129	
696.52	11336	
696.7	11957	
696.89	13076	
697.07	12393	
697.25	11672	
697.44	13297	
697.62	12648	
697.81	13024	
697.99	11179	
698.17	11753	
698.36	11755	
698.54	12542	
698.72	11464	
698.91	10356	
699.09	12135	
699.28	11987	
699.46	11073	
699.64	11012	
699.83	12043	
700.01	13415	
700.19	12116	
700.38	10551	
700.56	13753	
700.74	12687	
700.93	11166	
701.11	12204	
701.29	13437	
701.48	14558	
701.66	11607	
701.84	11736	
702.03	12930	
702.21	13706	
702.39	11014	
702.58	11822	
702.76	13278	
702.94	13366	
703.13	11095	
703.31	13622	
703.49	12549	
703.68	13743	
703.86	11188	
704.04	12319	
704.23	13056	
704.41	13605	
704.59	11421	
704.78	12709	
704.96	14327	
705.14	13633	
705.33	11331	
705.51	12127	
705.69	13082	
705.87	13969	
706.06	12514	
706.24	11401	
706.42	13366	
706.61	13807	
706.79	12575	
706.97	11480	
707.16	12799	
707.34	13534	
707.52	12333	
707.7	11546	
707.89	12983	
708.07	12618	
708.25	12496	
708.44	12617	
708.62	12908	
708.8	14036	
708.98	12857	
709.17	11726	
709.35	13399	
709.53	13347	
709.72	11435	
709.9	11564	
710.08	13530	
710.26	13450	
710.45	12838	
710.63	11441	
710.81	13123	
710.99	12836	
711.18	12031	
711.36	11362	
711.54	12406	
711.72	13151	
711.91	11002	
712.09	10331	
712.27	12058	
712.45	13145	
712.64	10750	
712.82	9426.8	
713	10801	
713.18	10716	
713.37	8902.5	
713.55	9880.1	
713.73	10798	
713.91	8882.7	
714.1	8106.5	
714.28	7296.2	
714.46	9418.6	
714.64	8300.4	
714.83	6134.3	
715.01	7003.4	
715.19	8030.8	
715.37	7350.8	
715.55	6396.5	
715.74	6640.9	
715.92	8848.6	
716.1	6708.5	
716.28	7845.8	
716.47	6719.4	
716.65	7333.8	
716.83	7619.8	
717.01	6643.6	
717.19	6744	
717.38	9942.2	
717.56	7467.6	
717.74	7347.4	
717.92	6535.8	
718.1	9191.3	
718.29	8584.4	
718.47	6673.6	
718.65	7464.8	
718.83	9794.8	
719.01	9830.2	
719.2	6947.4	
719.38	8162.5	
719.56	9378.3	
719.74	10934	
719.92	7445	
720.11	8340.7	
720.29	8868.4	
720.47	7930.4	
720.65	6359.6	
720.83	7206.1	
721.02	7917.4	
721.2	7591.8	
721.38	7077.8	
721.56	6162.3	
721.74	6977.4	
721.92	7250.5	
722.11	7593.2	
722.29	7124.2	
722.47	8564.6	
722.65	7694.9	
722.83	6228.6	
723.01	7158.3	
723.2	7739.3	
723.38	8077.2	
723.56	5555.5	
723.74	6873	
723.92	7161.7	
724.1	8481.3	
724.29	6157.6	
724.47	7364.5	
724.65	7279.2	
724.83	7223.9	
725.01	6137.1	
725.19	7161.1	
725.37	7400.7	
725.56	7464.8	
725.74	5965.1	
725.92	6238.1	
726.1	7290.8	
726.28	7548.8	
726.46	6612.2	
726.64	6341.2	
726.83	7488.1	
727.01	7846.5	
727.19	5844.2	
727.37	6915.3	
727.55	7714.7	
727.73	8242.4	
727.91	5926.1	
728.09	5841.5	
728.28	8549.6	
728.46	9211.1	
728.64	7417.7	
728.82	7415	
729	10038	
729.18	9499.2	
729.36	7028.6	
729.54	9433.6	
729.72	10881	
729.91	9086.8	
730.09	9375.6	
730.27	8042.4	
730.45	9129.8	
730.63	9805	
730.81	8888.9	
730.99	7872.4	
731.17	10510	
731.35	8937.3	
731.53	8430.1	
731.71	7994.6	
731.9	10090	
732.08	10241	
732.26	8135.9	
732.44	7802.1	
732.62	10219	
732.8	9710.1	
732.98	8400.1	
733.16	7441	
733.34	9627.5	
733.52	8422.6	
733.7	8149.6	
733.88	8404.9	
734.07	9606.3	
734.25	9460.3	
734.43	7632.8	
734.61	9415.2	
734.79	11148	
734.97	9385.8	
735.15	7911.3	
735.33	8349.6	
735.51	9744.2	
735.69	9458.9	
735.87	9535.3	
736.05	8600.8	
736.23	9736.7	
736.41	9663	
736.59	8473.8	
736.77	8641.1	
736.95	10456	
737.13	9863.7	
737.32	8312	
737.5	8626.7	
737.68	11073	
737.86	9849.4	
738.04	8144.8	
738.22	10109	
738.4	9489.6	
738.58	9813.9	
738.76	8879.3	
738.94	7655.3	
739.12	9775	
739.3	9635	
739.48	9645.3	
739.66	9455.5	
739.84	10170	
740.02	10191	
740.2	8070.4	
740.38	8409.6	
740.56	10630	
740.74	9422.7	
740.92	9071.8	
741.1	8922.3	
741.28	9934	
741.46	9800.9	
741.64	8503.2	
741.82	9124.4	
742	9988.6	
742.18	9910.8	
742.36	8832.2	
742.54	8299.7	
742.72	10541	
742.9	9179	
743.08	9267.7	
743.26	7922.9	
743.44	10778	
743.62	10578	
743.8	9300.5	
743.98	8225.3	
744.16	10176	
744.34	9843.9	
744.52	9129.2	
744.7	9064.3	
744.88	10333	
745.06	9790.7	
745.24	9056.1	
745.42	9146.2	
745.6	10234	
745.78	9915.6	
745.96	7743.4	
746.14	8008.9	
746.32	10918	
746.5	10234	
746.68	8621.3	
746.86	7979.6	
747.03	10687	
747.21	8698.4	
747.39	8612.4	
747.57	7987.1	
747.75	9731.3	
747.93	10192	
748.11	8015.7	
748.29	7932.5	
748.47	11484	
748.65	9396.8	
748.83	8857.5	
749.01	8559.8	
749.19	9975	
749.37	9060.9	
749.55	8350.3	
749.73	8488.8	
749.91	9529.2	
750.09	9227.5	
750.26	8499.8	
750.44	7806.9	
750.62	9693	
750.8	9518.3	
750.98	7653.9	
751.16	7906.5	
751.34	9638.4	
751.52	8902.5	
751.7	8781	
751.88	7548.1	
752.06	10129	
752.24	9877.4	
752.42	7545.4	
752.59	7881.3	
752.77	9495.7	
752.95	10865	
753.13	8588.5	
753.31	8007.6	
753.49	9168.1	
753.67	9660.3	
753.85	8252.6	
754.03	7778.2	
754.21	9630.2	
754.38	10062	
754.56	7781.6	
754.74	6516	
754.92	8484.1	
755.1	9081.4	
755.28	5999.2	
755.46	5681.7	
755.64	8687.5	
755.82	8454	
755.99	4935.6	
756.17	4916.5	
756.35	5390.3	
756.53	7005.4	
756.71	3517	
756.89	4525.3	
757.07	6526.9	
757.25	5646.2	
757.42	5406.6	
757.6	6469.5	
757.78	7060	
757.96	6038.1	
758.14	5340.4	
758.32	4697.4	
758.5	5353.4	
758.67	6140.5	
758.85	4838	
759.03	4957.4	
759.21	6371.2	
759.39	5713.8	
759.57	4475.5	
759.75	5653.8	
759.92	7189.1	
760.1	6365.8	
760.28	6238.8	
760.46	6573.3	
760.64	6324.1	
760.82	6223.1	
760.99	6344.6	
761.17	5644.2	
761.35	7551.5	
761.53	6543.3	
761.71	5945.3	
761.89	6733.7	
762.06	7792.5	
762.24	7273	
762.42	6364.4	
762.6	6199.9	
762.78	7531.1	
762.96	8325	
763.13	6974	
763.31	6786.3	
763.49	8682	
763.67	7737.2	
763.85	7697.6	
764.02	8402.8	
764.2	9028.8	
764.38	8154.3	
764.56	6678.4	
764.74	7666.2	
764.91	9149	
765.09	8017.8	
765.27	6421.1	
765.45	6166.4	
765.63	9257.5	
765.8	9052.7	
765.98	5829.2	
766.16	6260.6	
766.34	7439.6	
766.52	7275.8	
766.69	7243	
766.87	6057.9	
767.05	7888.8	
767.23	8645.8	
767.41	6381.5	
767.58	6584.2	
767.76	8434.9	
767.94	8472.4	
768.12	6313.2	
768.29	7150.1	
768.47	7801.4	
768.65	8646.5	
768.83	5892	
769	7147.4	
769.18	7290.8	
769.36	8080.6	
769.54	6830.7	
769.72	5876.3	
769.89	8271.7	
770.07	8450.6	
770.25	6069.5	
770.43	7502.4	
770.6	9019.9	
770.78	9413.1	
770.96	6333.7	
771.14	6929	
771.31	8035.5	
771.49	7350.2	
771.67	5344.5	
771.85	5631.9	
772.02	6482.5	
772.2	7355.6	
772.38	6371.2	
772.55	5785.5	
772.73	7477.1	
772.91	7250.5	
773.09	6108.4	
773.26	6158.2	
773.44	7364.5	
773.62	7085.3	
773.8	5534.3	
773.97	5214.8	
774.15	7454.6	
774.33	6983.6	
774.5	5360.9	
774.68	5694.7	
774.86	7509.2	
775.04	6939.2	
775.21	5367	
775.39	5326.8	
775.57	7199.3	
775.74	7600	
775.92	5216.2	
776.1	5047.6	
776.27	7107.1	
776.45	8451.3	
776.63	5273.5	
776.81	4679.6	
776.98	6675	
777.16	7823.9	
777.34	5374.6	
777.51	5335	
777.69	6580.8	
777.87	6354.8	
778.04	5291.3	
778.22	6000.5	
778.4	6273.6	
778.57	7037.5	
778.75	4544.4	
778.93	4766.3	
779.1	5986.9	
779.28	5865.4	
779.46	4480.3	
779.64	4973.2	
779.81	7029.3	
779.99	7955.7	
780.17	5808	
780.34	5902.2	
780.52	6397.9	
780.69	6647	
780.87	5197.7	
781.05	4755.4	
781.22	6447	
781.4	6479.1	
781.58	4760.8	
781.75	3906.8	
781.93	6394.4	
782.11	5750.7	
782.28	5720	
782.46	4760.2	
782.64	5479	
782.81	6553.5	
782.99	4818.9	
783.17	4781.3	
783.34	6397.2	
783.52	5495.4	
783.69	4920.6	
783.87	5735	
784.05	5494	
784.22	5488.6	
784.4	5702.9	
784.58	4988.9	
784.75	6502.3	
784.93	5536.3	
785.1	4540.3	
785.28	5274.9	
785.46	6182.8	
785.63	5498.8	
785.81	4524.6	
785.99	4343.1	
786.16	5705	
786.34	6045.6	
786.51	4392.2	
786.69	4846.2	
786.87	5175.2	
787.04	5762.3	
787.22	4186.7	
787.39	5218.2	
787.57	5393	
787.75	6587.6	
787.92	5434.6	
788.1	5344.5	
788.27	5494	
788.45	5246.9	
788.63	5038.7	
788.8	3637.9	
788.98	5927.5	
789.15	5093.3	
789.33	3801	
789.5	4534.9	
789.68	6430.6	
789.86	6494.8	
790.03	4973.2	
790.21	4298	
790.38	6385.6	
790.56	5453.1	
790.73	4109.6	
790.91	4140.3	
791.09	5332.2	
791.26	6127.5	
791.44	4334.9	
791.61	3764.8	
791.79	5307.7	
791.96	5447.6	
792.14	3872.7	
792.32	3421.5	
792.49	5336.3	
792.67	5421	
792.84	4018.1	
793.02	3777.8	
793.19	5739.8	
793.37	6574	
793.54	3401.7	
793.72	3787.4	
793.89	6680.5	
794.07	5315.2	
794.25	4465.9	
794.42	3473.4	
794.6	6431.3	
794.77	6062.7	
794.95	4774.5	
795.12	4147.8	
795.3	5201.8	
795.47	5950.7	
795.65	4558.1	
795.82	4264.6	
796	5051.7	
796.17	7124.2	
796.35	4209.3	
796.52	4938.3	
796.7	5778	
796.87	5941.2	
797.05	5190.2	
797.22	5042.8	
797.4	5825.1	
797.57	6898.9	
797.75	4284.4	
797.92	4111.6	
798.1	6216.3	
798.27	5192.3	
798.45	3454.2	
798.62	3706.1	
798.8	5566.4	
798.97	6092.7	
799.15	4542.4	
799.32	4347.2	
799.5	4769.7	
799.67	5631.2	
799.85	4700.1	
800.02	3358	
800.2	5181.4	
800.37	5557.5	
800.55	4821.6	
800.72	4072.7	
800.9	5996.5	
801.07	6514.6	
801.25	5464.7	
801.42	4470	
801.6	6068.8	
801.77	5769.1	
801.95	3957.4	
802.12	3893.2	
802.29	5684.5	
802.47	5706.3	
802.64	4362.9	
802.82	3261	
802.99	5118.6	
803.17	6137.8	
803.34	4268	
803.52	3803.1	
803.69	6865.5	
803.87	4961.5	
804.04	4169	
804.21	4363.5	
804.39	6262.7	
804.56	5374.6	
804.74	3623.5	
804.91	4372.4	
805.09	5151.3	
805.26	5259.2	
805.44	3644.7	
805.61	4020.8	
805.78	5862.7	
805.96	5847.6	
806.13	4416.1	
806.31	4678.2	
806.48	4676.9	
806.66	5217.5	
806.83	4324.6	
807	4291.2	
807.18	5129.5	
807.35	5494.7	
807.53	4188.8	
807.7	3368.9	
807.87	6410.1	
808.05	5185.5	
808.22	4625	
808.4	3344.3	
808.57	5173.2	
808.74	4741.7	
808.92	3820.8	
809.09	4949.3	
809.27	5041.4	
809.44	5667.4	
809.61	3429.7	
809.79	3766.9	
809.96	6331	
810.14	5942.5	
810.31	3234.4	
810.48	4059.1	
810.66	5246.9	
810.83	6079.7	
811.01	3855	
811.18	4306.2	
811.35	5928.2	
811.53	4573.1	
811.7	4713.7	
811.87	4263.9	
812.05	5150	
812.22	5045.5	
812.39	3661.1	
812.57	3603.7	
812.74	5126.1	
812.92	6858.6	
813.09	4033.1	
813.26	4397	
813.44	6579.4	
813.61	5063.3	
813.78	3379.1	
813.96	4568.3	
814.13	5160.2	
814.3	4780.6	
814.48	4887.8	
814.65	4095.9	
814.82	6458.6	
815	4885.8	
815.17	4142.4	
815.34	5090.6	
815.52	5065.3	
815.69	5102.2	
815.87	4156	
816.04	3571.7	
816.21	5124	
816.38	4529.4	
816.56	4006.5	
816.73	3739.6	
816.9	6522.1	
817.08	5887.9	
817.25	3727.3	
817.42	4783.4	
817.6	4699.4	
817.77	5190.2	
817.94	4245.4	
818.12	3679.5	
818.29	4898.1	
818.46	7757	
818.64	3873.4	
818.81	3578.5	
818.98	4798.4	
819.16	7035.5	
819.33	4485.1	
819.5	4162.2	
819.67	5554.1	
819.85	6176	
820.02	4101.4	
820.19	4358.1	
820.37	5338.4	
820.54	4911	
820.71	4229.1	
820.88	5273.5	
821.06	5365.7	
821.23	4920.6	
821.4	4304.8	
821.58	4163.5	
821.75	5884.5	
821.92	5311.7	
822.09	3343	
822.27	3416	
822.44	5155.4	
822.61	5086.5	
822.79	3478.1	
822.96	6574	
823.13	5661.3	
823.3	4868	
823.48	3917.8	
823.65	3517.7	
823.82	5859.2	
823.99	4658.4	
824.17	5060.5	
824.34	3597.6	
824.51	6827.2	
824.68	5231.9	
824.86	3758	
825.03	4257	
825.2	5117.2	
825.37	6272.9	
825.55	3749.8	
825.72	4206.5	
825.89	6910.5	
826.06	6315.9	
826.24	4106.9	
826.41	4096.6	
826.58	6255.2	
826.75	5479	
826.92	3168.2	
827.1	3526.6	
827.27	8628.8	
827.44	6814.3	
827.61	3862.5	
827.79	4680.3	
827.96	4875.5	
828.13	5254.4	
828.3	4041.3	
828.47	3385.3	
828.65	5380	
828.82	5306.3	
828.99	5261.2	
829.16	4610.7	
829.34	5767.8	
829.51	5550.7	
829.68	4128.7	
829.85	4357.4	
830.02	6075.6	
830.2	5830.6	
830.37	3229.6	
830.54	5056.4	
830.71	6573.3	
830.88	5086.5	
831.05	3295.2	
831.23	3787.4	
831.4	6279.8	
831.57	7165.2	
831.74	3921.2	
831.91	3407.1	
832.09	5444.9	
832.26	5778.7	
832.43	4000.4	
832.6	4532.2	
832.77	5382.1	
832.94	6204	
833.12	3135.4	
833.29	3915	
833.46	4983.4	
833.63	7401.4	
833.8	4414.1	
833.97	4069.3	
834.15	5836.7	
834.32	5535	
834.49	4182.6	
834.66	4279.6	
834.83	6025.8	
835	4856.4	
835.17	3899.3	
835.35	3885	
835.52	5675.6	
835.69	5582.8	
835.86	4113	
836.03	3347.7	
836.2	5691.3	
836.37	5322	
836.55	4006.5	
836.72	3755.3	
836.89	5342.5	
837.06	5817.6	
837.23	4090.5	
837.4	4499.4	
837.57	6588.3	
837.75	7374.7	
837.92	3747.1	
838.09	3915	
838.26	5307	
838.43	6071.5	
838.6	4220.9	
838.77	3719.1	
838.94	6931	
839.11	6629.3	
839.29	3974.4	
839.46	3141.6	
839.63	5747.3	
839.8	5459.2	
839.97	3889.8	
840.14	3852.9	
840.31	5541.8	
840.48	5780.1	
840.65	3177.8	
840.82	3819.5	
841	5746.6	
841.17	5709.7	
841.34	3576.4	
841.51	3622.9	
841.68	5677	
841.85	5410.1	
842.02	3704.8	
842.19	3091.1	
842.36	5535	
842.53	5476.3	
842.7	3594.2	
842.87	4443.4	
843.05	7277.8	
843.22	5399.8	
843.39	3354.6	
843.56	3659	
843.73	5171.8	
843.9	5848.3	
844.07	5884.5	
844.24	4837.3	
844.41	8512.7	
844.58	5028.4	
844.75	3416.7	
844.92	3799	
845.09	5728.2	
845.26	5771.2	
845.43	3540.9	
845.6	3766.9	
845.77	5760.9	
845.94	5462.6	
846.12	3941	
846.29	4178.5	
846.46	5980.8	
846.63	5773.9	
846.8	3562.8	
846.97	4227.7	
847.14	6263.4	
847.31	5718.6	
847.48	3994.9	
847.65	4476.2	
847.82	6115.2	
847.99	6020.3	
848.16	4809.3	
848.33	4430.4	
848.5	5259.2	
848.67	6269.5	
848.84	3559.4	
849.01	3669.3	
849.18	5194.3	
849.35	4773.1	
849.52	4502.8	
849.69	3491.1	
849.86	5965.7	
850.03	6186.2	
850.2	3568.2	
850.37	4358.1	
850.54	6145.3	
850.71	5393.7	
850.88	4249.5	
851.05	3519.8	
851.22	5694	
851.39	6341.9	
851.56	3318.4	
851.73	4068.6	
851.9	5016.2	
852.07	5980.1	
852.24	3930.7	
852.41	3532.1	
852.58	5595.7	
852.75	5119.9	
852.92	3993.5	
853.09	3548.4	
853.26	5350.7	
853.43	6156.9	
853.6	3593.5	
853.77	3056.9	
853.94	6340.5	
854.11	5695.4	
854.28	5345.2	
854.44	3777.8	
854.61	6804.7	
854.78	5806	
854.95	3542.3	
855.12	4485.7	
855.29	4595	
855.46	6463.4	
855.63	3560.1	
855.8	4913.1	
855.97	5234.6	
856.14	6118	
856.31	5107	
856.48	3902.1	
856.65	5294	
856.82	5008.6	
856.99	3383.9	
857.16	3927.3	
857.33	7036.1	
857.49	5358.2	
857.66	3814	
857.83	4147.8	
858	5314.5	
858.17	5520.6	
858.34	3319.8	
858.51	3502.7	
858.68	6460	
858.85	6594.5	
859.02	4155.3	
859.19	4412	
859.36	5008.6	
859.52	5096.7	
859.69	3582.6	
859.86	4189.5	
860.03	5064.6	
860.2	6306.4	
860.37	3166.2	
860.54	3610.6	
860.71	5973.2	
860.88	6404	
861.05	4004.5	
861.21	4450.9	
861.38	6434.7	
861.55	4915.1	
861.72	3186.6	
861.89	3952.6	
862.06	6034.7	
862.23	6512.5	
862.4	3405.8	
862.56	3727.3	
862.73	5814.2	
862.9	5470.1	
863.07	4173.1	
863.24	3188.7	
863.41	4909	
863.58	4960.9	
863.75	3666.5	
863.91	4074.1	
864.08	6348.7	
864.25	5942.5	
864.42	4476.9	
864.59	4948.6	
864.76	6722.1	
864.93	5041.4	
865.09	3530	
865.26	3796.3	
865.43	6216.3	
865.6	6601.3	
865.77	3062.4	
865.94	3512.3	
866.1	6291.4	
866.27	6100.2	
866.44	5312.4	
866.61	3344.3	
866.78	5479.7	
866.95	5871.5	
867.11	3491.8	
867.28	3119.1	
867.45	6094.1	
867.62	5029.1	
867.79	4117.1	
867.96	3486.3	
868.12	5059.2	
868.29	6016.2	
868.46	3065.8	
868.63	4704.9	
868.8	6232.7	
868.97	5962.3	
869.13	3700.7	
869.3	3700.7	
869.47	5868.8	
869.64	6083.1	
869.81	3602.4	
869.97	3603.7	
870.14	5770.5	
870.31	6453.8	
870.48	3416	
870.65	4568.3	
870.81	5353.4	
870.98	5304.9	
871.15	4069.3	
871.32	3723.2	
871.48	5850.4	
871.65	6526.2	
871.82	3491.8	
871.99	3926.6	
872.16	6922.8	
872.32	6254.5	
872.49	3582.6	
872.66	3621.5	
872.83	5933.6	
872.99	5227.8	
873.16	4044.1	
873.33	3485	
873.5	5564.3	
873.67	5603.2	
873.83	3691.8	
874	4742.4	
874.17	5723.4	
874.34	6795.8	
874.5	4558.8	
874.67	4409.3	
874.84	6316.6	
875.01	5048.2	
875.17	5059.2	
875.34	3497.9	
875.51	5653.8	
875.68	6849.8	
875.84	4310.3	
876.01	5254.4	
876.18	5917.9	
876.34	5900.2	
876.51	3598.3	
876.68	3466.5	
876.85	5416.9	
877.01	6209.4	
877.18	5149.3	
877.35	3580.5	
877.52	5505.6	
877.68	4954	
877.85	3470.6	
878.02	3517	
878.18	5537	
878.35	5211.4	
878.52	2804.4	
878.69	3962.1	
878.85	5969.1	
879.02	5937.7	
879.19	5054.4	
879.35	3839.3	
879.52	5818.3	
879.69	6176	
879.86	3048.1	
880.02	3959.4	
880.19	5494.7	
880.36	6617	
880.52	4123.9	
880.69	4250.9	
880.86	6049	
881.02	6085.2	
881.19	3920.5	
881.36	3892.5	
881.52	5954.1	
881.69	5195	
881.86	3846.8	
882.02	3719.1	
882.19	6262.7	
882.36	7262.1	
882.52	3605.1	
882.69	5007.3	
882.86	5723.4	
883.02	5573.2	
883.19	4305.5	
883.36	4102.1	
883.52	6070.2	
883.69	6869.6	
883.86	3624.9	
884.02	3181.9	
884.19	6002.6	
884.36	5563	
884.52	4024.3	
884.69	3734.1	
884.86	5255.8	
885.02	6620.4	
885.19	3971	
885.36	4136.2	
885.52	5510.4	
885.69	5653.8	
885.86	5167.7	
886.02	4542.4	
886.19	6005.3	
886.35	5330.2	
886.52	3897.3	
886.69	5001.8	
886.85	5034.6	
887.02	6281.1	
887.19	6281.1	
887.35	6281.1	
887.52	6281.1	
887.68	6281.1	
887.85	6281.1	
888.02	6281.1	
888.18	6281.1	
888.35	6281.1	
888.51	6281.1	
888.68	6281.1	
888.85	6281.1	
889.01	6281.1	
889.18	6281.1	
889.35	6281.1	
889.51	6281.1	
889.68	6281.1	
889.84	6281.1	
890.01	6281.1	
890.17	6281.1	
890.34	6281.1	
890.51	6281.1	
890.67	6281.1	
890.84	6281.1	
891	6281.1	
891.17	6281.1	
891.34	6281.1	
891.5	6281.1	
891.67	6281.1	
891.83	6281.1	
892	6281.1	
892.16	6281.1	
892.33	6281.1	
892.5	6281.1	
892.66	6281.1	
892.83	6281.1	
892.99	6281.1	
893.16	6281.1	
893.32	6281.1	
893.49	6281.1	
893.65	6281.1	
893.82	6281.1	
893.99	6281.1	
894.15	6281.1	
894.32	6281.1	
894.48	6281.1	
894.65	6281.1	
894.81	6281.1	
894.98	6281.1	
895.14	6281.1	
895.31	6281.1	
895.47	6281.1	
895.64	6281.1	
895.81	6281.1	
895.97	6281.1	
896.14	6281.1	
896.3	6281.1	
896.47	6281.1	
896.63	6281.1	
896.8	6281.1	
896.96	6281.1	
897.13	6281.1	
897.29	6281.1	
897.46	6281.1	
897.62	6281.1	
897.79	6281.1	
897.95	6281.1	
898.12	6281.1	
898.28	6281.1	
898.45	6281.1	
898.61	6281.1	
898.78	6281.1	
898.94	6281.1	
899.11	6281.1	
899.27	6281.1	
899.44	6281.1	
899.6	6281.1	
899.77	6281.1	
899.93	6281.1	
900.1	6281.1	
900.26	6281.1	
900.43	6281.1	
900.59	6281.1	
900.76	6281.1	
900.92	6281.1	
901.09	6281.1	
901.25	6281.1	
901.42	6281.1	
901.58	6281.1	
901.75	6281.1	
901.91	6281.1	
902.07	6281.1	
902.24	6281.1	
902.4	6281.1	
902.57	6281.1	
902.73	6281.1	
902.9	6281.1	
903.06	6281.1	
903.23	6281.1	
903.39	6281.1	
903.56	6281.1	
903.72	6281.1	
903.88	6281.1	
904.05	6281.1	
904.21	6281.1	
904.38	6281.1	
904.54	6281.1	
904.71	6281.1	
904.87	6281.1	
905.03	6281.1	
905.2	6281.1	
905.36	6281.1	
905.53	6281.1	
905.69	6281.1	
905.86	6281.1	
906.02	6281.1	
906.18	6281.1	
906.35	6281.1	
906.51	6281.1	
906.68	6281.1	
906.84	6281.1	
907.01	6281.1	
907.17	6281.1	
907.33	6281.1	
907.5	6281.1	
907.66	6281.1	
907.83	6281.1	
907.99	6281.1	
908.15	6281.1	
908.32	6281.1	
908.48	6281.1	
908.65	6281.1	
908.81	6281.1	
908.97	6281.1	
909.14	6281.1	
909.3	6281.1	
909.47	6281.1	
909.63	6281.1	
909.79	6281.1	
909.96	6281.1	
910.12	6281.1	
910.28	6281.1	
910.45	6281.1	
910.61	6281.1	
910.78	6281.1	
910.94	6281.1	
911.1	6281.1	
911.27	6281.1	
911.43	6281.1	
911.59	6281.1	
911.76	6281.1	
911.92	6281.1	
912.08	6281.1	
912.25	6281.1	
912.41	6281.1	
912.57	6281.1	
912.74	6281.1	
912.9	6281.1	
913.07	6281.1	
913.23	6281.1	
913.39	6281.1	
913.56	6281.1	
913.72	6281.1	
913.88	6281.1	
914.05	6281.1	
914.21	6281.1	
914.37	6281.1	
914.54	6281.1	
914.7	6281.1	
914.86	6281.1	
915.03	6281.1	
915.19	6281.1	
