Wavelength	Intensities	
nm	a.u.	
179.22	1951.2	
179.44	1945.2	
179.65	1957.2	
179.86	1933.3	
180.08	1928.5	
180.29	5063.3	
180.51	3583.9	
180.72	5747.3	
180.94	6808.8	
181.15	3318.4	
181.37	3229	
181.58	5576.6	
181.79	5832.6	
182.01	3439.9	
182.22	3719.1	
182.44	5828.5	
182.65	4887.1	
182.87	4667.3	
183.08	4046.8	
183.29	6143.9	
183.51	5012.7	
183.72	3751.2	
183.94	5451	
184.15	5440.1	
184.37	5492	
184.58	3209.8	
184.79	4519.2	
185.01	5030.5	
185.22	5812.8	
185.44	4780	
185.65	3976.5	
185.86	5366.4	
186.08	4917.9	
186.29	3196.9	
186.51	3433.1	
186.72	5128.1	
186.94	6068.8	
187.15	3977.8	
187.36	4066.6	
187.58	7935.2	
187.79	5603.9	
188.01	4321.9	
188.22	6711.9	
188.43	6751.5	
188.65	5819.6	
188.86	3376.4	
189.08	4090.5	
189.29	5270.1	
189.5	5248.3	
189.72	3804.4	
189.93	3878.2	
190.15	6086.6	
190.36	7312.6	
190.57	4247.5	
190.79	4038.6	
191	6165.1	
191.22	6093.4	
191.43	4210.6	
191.64	3401	
191.86	6365.1	
192.07	6072.2	
192.29	3604.4	
192.5	3806.5	
192.71	6036	
192.93	5201.2	
193.14	3749.8	
193.35	3852.9	
193.57	5273.5	
193.78	6083.8	
194	3037.8	
194.21	3724.6	
194.42	4968.4	
194.64	5534.3	
194.85	4121.9	
195.07	4848.9	
195.28	5567.7	
195.49	4752	
195.71	5062.6	
195.92	3546.4	
196.13	5714.5	
196.35	5834	
196.56	5430.5	
196.78	4103.4	
196.99	7137.2	
197.2	6679.8	
197.42	4676.9	
197.63	4120.5	
197.84	4895.3	
198.06	5685.8	
198.27	3837.9	
198.48	5124	
198.7	5219.6	
198.91	5350.7	
199.13	4184	
199.34	4144.4	
199.55	5885.9	
199.77	4768.4	
199.98	3682.9	
200.19	4242	
200.41	5409.4	
200.62	5026.4	
200.83	4343.1	
201.05	4697.4	
201.26	5429.2	
201.47	5105.6	
201.69	3711.6	
201.9	3538.2	
202.11	5443.5	
202.33	6481.8	
202.54	3931.4	
202.76	4347.2	
202.97	5618.3	
203.18	5572.5	
203.4	4325.3	
203.61	4225	
203.82	5550.7	
204.04	5134.9	
204.25	4213.4	
204.46	4047.5	
204.68	5496.1	
204.89	5780.7	
205.1	4027	
205.32	3480.9	
205.53	5944.6	
205.74	6017.6	
205.96	2940.9	
206.17	4275.5	
206.38	5857.2	
206.6	6072.9	
206.81	4804.5	
207.02	3908.9	
207.24	5741.8	
207.45	6176	
207.66	3986	
207.88	3309.5	
208.09	5638.7	
208.3	5474.2	
208.52	3629.7	
208.73	4005.8	
208.94	5524.7	
209.15	6210.8	
209.37	3940.3	
209.58	4150.6	
209.79	6070.2	
210.01	5300.8	
210.22	3162.1	
210.43	3257.6	
210.65	5479	
210.86	5907.7	
211.07	3958.7	
211.29	3591.5	
211.5	5906.3	
211.71	5397.1	
211.93	3614	
212.14	3638.6	
212.35	5401.2	
212.56	5703.6	
212.78	4169	
212.99	3405.8	
213.2	6524.8	
213.42	5255.1	
213.63	3748.5	
213.84	4027.7	
214.06	4870.8	
214.27	4947.2	
214.48	3960.1	
214.69	4217.5	
214.91	6163.7	
215.12	6304.3	
215.33	4229.7	
215.55	4721.3	
215.76	6855.9	
215.97	5887.2	
216.18	4110.3	
216.4	3971	
216.61	5141.1	
216.82	6044.9	
217.04	3651.5	
217.25	3818.8	
217.46	6131.6	
217.67	5871.5	
217.89	3260.4	
218.1	3377.1	
218.31	5551.4	
218.53	5649.7	
218.74	3765.5	
218.95	3715	
219.16	5427.8	
219.38	6456.6	
219.59	3704.1	
219.8	4399	
220.01	7163.8	
220.23	5529.5	
220.44	4941.1	
220.65	3648.1	
220.87	5601.9	
221.08	6188.3	
221.29	3373	
221.5	4568.3	
221.72	7487.4	
221.93	5203.9	
222.14	4214	
222.35	4920.6	
222.57	5515.2	
222.78	5896.8	
222.99	3955.3	
223.2	4277.5	
223.42	5791	
223.63	5945.3	
223.84	3032.4	
224.05	3016.7	
224.27	7096.9	
224.48	6451.1	
224.69	4980.7	
224.9	4151.2	
225.12	5710.4	
225.33	5493.3	
225.54	3284.9	
225.75	3720.5	
225.97	5020.9	
226.18	5417.6	
226.39	4042	
226.6	3715	
226.82	5261.2	
227.03	5087.2	
227.24	4154	
227.45	3449.5	
227.67	5887.9	
227.88	6449.7	
228.09	4673.5	
228.3	4706.9	
228.52	5912.5	
228.73	5472.2	
228.94	3842	
229.15	3389.4	
229.36	5407.3	
229.58	5306.3	
229.79	3870.7	
230	4532.2	
230.21	6610.2	
230.43	5575.3	
230.64	4115.1	
230.85	4304.1	
231.06	5926.1	
231.28	6051.1	
231.49	3398.3	
231.7	4095.3	
231.91	5834	
232.12	5467.4	
232.34	3477.5	
232.55	4001	
232.76	6116.6	
232.97	5677	
233.18	3622.9	
233.4	4169.7	
233.61	5759.6	
233.82	5223.7	
234.03	3858.4	
234.25	3734.8	
234.46	7638.2	
234.67	5501.5	
234.88	4216.8	
235.09	3674.1	
235.31	5874.3	
235.52	5364.3	
235.73	4133.5	
235.94	3504.8	
236.15	5227.8	
236.37	6723.5	
236.58	3646.1	
236.79	3965.6	
237	5821.7	
237.21	4997	
237.43	4317.1	
237.64	3360	
237.85	10093	
238.06	5051	
238.27	4351.9	
238.48	3496.6	
238.7	5840.1	
238.91	5332.2	
239.12	3953.3	
239.33	4093.9	
239.54	5039.4	
239.76	5459.2	
239.97	3944.4	
240.18	3971	
240.39	6931	
240.6	5834	
240.82	4117.8	
241.03	3346.4	
241.24	5514.5	
241.45	6389.7	
241.66	3607.2	
241.87	4272.1	
242.09	6235.4	
242.3	6701.6	
242.51	4347.8	
242.72	3949.2	
242.93	5988.9	
243.14	5433.3	
243.36	4560.8	
243.57	5014.1	
243.78	6346	
243.99	5825.8	
244.2	4055	
244.41	3659	
244.63	4997	
244.84	5867.4	
245.05	4252.3	
245.26	4028.4	
245.47	5743.2	
245.68	6042.2	
245.9	5367	
246.11	4234.5	
246.32	5322.7	
246.53	5722.7	
246.74	6524.1	
246.95	3358	
247.16	4924.7	
247.38	5492.7	
247.59	3268.6	
247.8	4005.1	
248.01	5194.3	
248.22	5393.7	
248.43	3608.5	
248.64	3835.8	
248.86	4818.2	
249.07	5227.8	
249.28	3418.1	
249.49	4054.3	
249.7	6049	
249.91	6233.3	
250.12	3311.6	
250.34	3375.7	
250.55	5615.5	
250.76	5508.4	
250.97	4160.8	
251.18	4151.9	
251.39	6262.7	
251.6	5700.9	
251.81	4282.3	
252.03	4186.7	
252.24	5218.2	
252.45	6036	
252.66	3439.9	
252.87	4444.1	
253.08	5499.5	
253.29	7232.1	
253.5	3506.1	
253.72	4846.2	
253.93	5307	
254.14	6543.3	
254.35	3777.8	
254.56	3879.5	
254.77	5722	
254.98	5081.7	
255.19	3732.1	
255.41	4865.3	
255.62	5552	
255.83	6212.2	
256.04	4268	
256.25	4205.2	
256.46	6739.9	
256.67	5175.2	
256.88	4129.4	
257.09	4582	
257.31	5152	
257.52	5123.3	
257.73	5163.6	
257.94	3777.1	
258.15	5343.2	
258.36	5498.8	
258.57	4754.7	
258.78	3044.6	
258.99	5952.1	
259.2	5270.8	
259.41	3784.6	
259.63	3867.9	
259.84	6371.9	
260.05	6861.4	
260.26	5031.9	
260.47	3771.7	
260.68	6049	
260.89	5423.7	
261.1	4626.4	
261.31	3599	
261.52	6039.5	
261.73	6496.8	
261.95	4859.8	
262.16	4291.9	
262.37	6204	
262.58	6349.4	
262.79	4904.9	
263	3890.5	
263.21	5513.8	
263.42	4971.1	
263.63	3893.2	
263.84	3827	
264.05	6014.2	
264.26	6466.8	
264.47	4728.1	
264.69	4276.8	
264.9	6204	
265.11	5726.8	
265.32	3644.7	
265.53	3792.2	
265.74	5663.3	
265.95	4905.6	
266.16	4067.3	
266.37	4521.9	
266.58	5606	
266.79	5342.5	
267	3755.3	
267.21	3442	
267.42	5040.7	
267.63	5470.8	
267.84	3999	
268.06	3372.3	
268.27	5932.3	
268.48	6278.4	
268.69	3876.8	
268.9	4599.1	
269.11	6172.6	
269.32	4920.6	
269.53	3930.7	
269.74	3729.4	
269.95	5853.1	
270.16	4851	
270.37	3996.3	
270.58	4652.3	
270.79	5285.1	
271	6016.2	
271.21	4285.7	
271.42	4018.1	
271.63	5649	
271.84	5161.6	
272.05	3147.7	
272.26	3566.2	
272.47	5548.6	
272.68	5691.3	
272.89	3791.5	
273.11	4462.5	
273.32	5309	
273.53	6535.1	
273.74	4298.7	
273.95	4183.3	
274.16	6201.9	
274.37	5494.7	
274.58	4291.2	
274.79	3488.4	
275	5594.4	
275.21	6189	
275.42	5313.1	
275.63	4542.4	
275.84	5774.6	
276.05	7322.9	
276.26	4236.6	
276.47	3995.6	
276.68	5329.5	
276.89	6567.2	
277.1	4524.6	
277.31	3486.3	
277.52	5779.4	
277.73	5925.5	
277.94	3445.4	
278.15	3854.3	
278.36	5699.5	
278.57	5132.9	
278.78	3810.6	
278.99	4353.3	
279.2	5150.6	
279.41	5072.1	
279.62	5103.5	
279.83	3488.4	
280.04	6762.4	
280.25	4989.5	
280.46	5027.1	
280.67	4001.7	
280.88	5082.4	
281.09	6183.5	
281.3	4221.5	
281.51	5315.2	
281.72	5224.4	
281.93	6045.6	
282.14	3735.5	
282.35	3975.1	
282.56	6004.6	
282.77	6049	
282.98	3835.2	
283.19	4728.1	
283.4	7428.7	
283.61	5408	
283.82	3414.6	
284.03	4948.6	
284.24	5580	
284.45	6186.2	
284.66	5011.4	
284.87	4746.5	
285.08	6119.3	
285.29	6258.6	
285.5	3380.5	
285.71	3836.5	
285.92	6148	
286.12	6843.6	
286.33	4850.3	
286.54	3826.3	
286.75	5999.2	
286.96	5338.4	
287.17	3567.6	
287.38	4827.1	
287.59	5109.7	
287.8	5017.5	
288.01	3934.1	
288.22	4515.1	
288.43	5998.5	
288.64	4968.4	
288.85	4641.4	
289.06	4407.9	
289.27	5999.9	
289.48	6516	
289.69	4912.4	
289.9	4479.6	
290.11	6189	
290.32	5185.5	
290.53	4702.1	
290.74	4321.9	
290.94	5969.1	
291.15	6013.5	
291.36	3746.4	
291.57	4457.7	
291.78	5274.2	
291.99	4899.4	
292.2	3588	
292.41	4343.7	
292.62	6070.9	
292.83	5864.7	
293.04	5380.7	
293.25	3614	
293.46	5309	
293.67	6133.7	
293.88	3800.3	
294.09	3586.7	
294.29	5057.1	
294.5	5690.6	
294.71	4029.7	
294.92	3814.7	
295.13	5320.6	
295.34	6632.7	
295.55	3283.6	
295.76	3432.4	
295.97	5934.3	
296.18	6717.3	
296.39	3583.9	
296.6	3751.2	
296.81	5627.8	
297.01	5995.8	
297.22	3892.5	
297.43	3673.4	
297.64	5141.8	
297.85	5148.6	
298.06	3079.5	
298.27	3355.3	
298.48	5533.6	
298.69	5195	
298.9	4075.5	
299.11	3646.7	
299.31	5002.5	
299.52	5017.5	
299.73	4346.5	
299.94	4282.3	
300.15	5505.6	
300.36	5117.9	
300.57	4196.3	
300.78	4248.2	
300.99	5345.2	
301.2	5632.6	
301.4	3709.6	
301.61	4046.8	
301.82	5831.2	
302.03	5901.6	
302.24	4571.1	
302.45	3543.7	
302.66	5780.7	
302.87	6294.1	
303.08	3727.3	
303.29	5109.7	
303.49	5221	
303.7	5490.6	
303.91	3302.7	
304.12	4943.1	
304.33	4985.4	
304.54	5550	
304.75	3704.1	
304.96	3603.7	
305.16	5829.9	
305.37	6620.4	
305.58	3215.3	
305.79	3383.9	
306	5868.1	
306.21	4939.7	
306.42	3691.8	
306.63	5870.2	
306.83	5341.1	
307.04	6132.3	
307.25	4147.8	
307.46	4131.4	
307.67	4726.7	
307.88	5964.4	
308.09	3627	
308.29	3807.9	
308.5	5620.3	
308.71	6146.6	
308.92	4049.5	
309.13	3584.6	
309.34	5363.6	
309.55	5459.2	
309.75	4638.6	
309.96	4259.8	
310.17	5947.3	
310.38	5192.3	
310.59	4554.7	
310.8	4179.2	
311.01	5365	
311.21	5353.4	
311.42	3501.3	
311.63	3658.4	
311.84	5208.7	
312.05	5632.6	
312.26	4100.7	
312.46	4529.4	
312.67	5326.1	
312.88	5017.5	
313.09	3588	
313.3	3539.6	
313.51	6369.9	
313.71	6714.6	
313.92	3569.6	
314.13	3788.1	
314.34	5693.4	
314.55	5469.4	
314.76	4691.2	
314.96	4066.6	
315.17	5560.2	
315.38	5932.3	
315.59	3594.2	
315.8	3427.6	
316.01	6382.8	
316.21	6460.7	
316.42	3475.4	
316.63	3979.2	
316.84	5367	
317.05	6284.5	
317.26	4247.5	
317.46	3837.2	
317.67	5427.1	
317.88	5950	
318.09	4575.8	
318.3	3398.3	
318.5	5243.5	
318.71	5842.9	
318.92	5936.4	
319.13	4286.4	
319.34	6088.6	
319.54	6201.2	
319.75	3346.4	
319.96	3284.3	
320.17	5973.2	
320.38	6108.4	
320.58	3308.2	
320.79	3951.9	
321	6069.5	
321.21	6215.6	
321.42	3991.5	
321.62	3275.4	
321.83	5084.4	
322.04	5571.2	
322.25	3833.8	
322.46	3662.5	
322.66	5599.1	
322.87	5767.8	
323.08	4502.1	
323.29	3553.9	
323.5	6662.7	
323.7	5038	
323.91	4989.5	
324.12	4483	
324.33	5551.4	
324.53	5838.1	
324.74	4253.6	
324.95	4510.3	
325.16	4911.7	
325.37	5329.5	
325.57	3603.7	
325.78	3707.5	
325.99	5539.1	
326.2	5001.1	
326.4	5111.7	
326.61	3327.9	
326.82	5409.4	
327.03	5646.9	
327.24	5207.3	
327.44	4928.8	
327.65	5792.3	
327.86	4696	
328.07	4259.8	
328.27	3415.3	
328.48	6268.8	
328.69	5114.5	
328.9	5232.6	
329.1	3896.6	
329.31	5367	
329.52	6362.4	
329.73	3582.6	
329.93	4132.8	
330.14	5477.6	
330.35	5795.1	
330.56	6059.3	
330.76	4506.9	
330.97	5315.8	
331.18	5696.8	
331.39	4078.2	
331.59	3258.3	
331.8	6128.9	
332.01	6277	
332.22	3736.9	
332.42	4317.1	
332.63	5652.4	
332.84	5188.2	
333.05	4062.5	
333.25	3745.1	
333.46	5315.8	
333.67	5547.3	
333.88	3786	
334.08	4148.5	
334.29	7442.3	
334.5	6264.1	
334.7	3468.6	
334.91	5189.6	
335.12	5029.1	
335.33	5978.7	
335.53	4020.8	
335.74	5981.4	
335.95	5292	
336.16	5143.1	
336.36	4084.3	
336.57	4588.8	
336.78	5000.5	
336.98	6187.6	
337.19	4963.6	
337.4	3900.7	
337.61	6714.6	
337.81	4997	
338.02	3665.9	
338.23	4781.3	
338.43	6268.1	
338.64	5143.8	
338.85	3565.5	
339.05	4770.4	
339.26	6365.8	
339.47	4965	
339.68	3658.4	
339.88	5501.5	
340.09	5732.9	
340.3	6003.3	
340.5	4273.4	
340.71	3191.4	
340.92	4934.9	
341.13	6280.4	
341.33	3528.7	
341.54	4308.2	
341.75	5745.2	
341.95	5363.6	
342.16	4099.4	
342.37	4410	
342.57	5076.9	
342.78	5481.7	
342.99	4518.5	
343.19	3205.8	
343.4	6020.3	
343.61	5777.3	
343.81	3865.9	
344.02	3615.3	
344.23	5977.3	
344.43	6409.5	
344.64	4491.2	
344.85	4420.9	
345.06	5788.9	
345.26	6138.4	
345.47	4230.4	
345.68	4880.3	
345.88	4910.3	
346.09	6019	
346.3	4297.3	
346.5	3172.3	
346.71	5535.7	
346.92	5165.7	
347.12	3258.3	
347.33	4156.7	
347.54	6102.3	
347.74	6520	
347.95	4103.4	
348.16	3122.5	
348.36	5325.4	
348.57	5154.1	
348.78	4135.5	
348.98	4503.5	
349.19	5453.7	
349.39	4943.8	
349.6	3313.6	
349.81	3735.5	
350.01	5717.9	
350.22	5222.3	
350.43	4012	
350.63	4848.9	
350.84	5558.2	
351.05	5309.7	
351.25	3681.6	
351.46	3293.8	
351.67	6199.9	
351.87	5134.9	
352.08	3929.4	
352.29	4430.4	
352.49	5938.4	
352.7	5691.3	
352.9	3504.1	
353.11	4446.8	
353.32	6725.5	
353.52	5313.8	
353.73	3409.2	
353.94	4433.9	
354.14	5750.7	
354.35	5666.7	
354.55	3594.9	
354.76	3996.3	
354.97	5816.9	
355.17	5562.3	
355.38	3390.1	
355.59	4788.2	
355.79	5160.9	
356	5651	
356.2	3927.3	
356.41	3438.5	
356.62	4874.8	
356.82	5417.6	
357.03	4240.7	
357.24	3855.6	
357.44	5263.3	
357.65	5270.8	
357.85	5222.3	
358.06	4030.4	
358.27	4891.2	
358.47	5128.8	
358.68	3347.1	
358.88	4302.1	
359.09	5745.2	
359.3	6148	
359.5	4984.1	
359.71	4461.2	
359.91	6605.4	
360.12	5952.8	
360.33	4187.4	
360.53	4674.1	
360.74	5244.2	
360.94	5238.7	
361.15	4470	
361.36	3614	
361.56	6032	
361.77	5450.3	
361.97	4994.3	
362.18	3876.8	
362.38	6047.7	
362.59	5079	
362.8	3560.7	
363	3409.9	
363.21	4817.5	
363.41	5571.2	
363.62	4085.7	
363.83	5203.2	
364.03	5612.8	
364.24	6726.9	
364.44	5294.7	
364.65	5352.7	
364.85	5382.1	
365.06	4994.3	
365.27	3741	
365.47	3829.7	
365.68	6452.5	
365.88	5403.9	
366.09	4190.8	
366.29	3841.3	
366.5	5661.3	
366.71	6087.9	
366.91	5283.8	
367.12	4428.4	
367.32	6722.1	
367.53	5907	
367.73	4337.6	
367.94	5332.9	
368.14	5899.5	
368.35	6907.1	
368.56	4244.1	
368.76	3650.2	
368.97	5994.4	
369.17	7780.2	
369.38	3790.1	
369.58	4118.5	
369.79	5048.9	
369.99	6357.6	
370.2	5090.6	
370.4	4225	
370.61	5692.7	
370.82	6961	
371.02	3996.3	
371.23	3322.5	
371.43	4873.5	
371.64	6371.9	
371.84	4095.9	
372.05	5381.4	
372.25	7658	
372.46	6116.6	
372.66	4111	
372.87	4042	
373.07	6098.2	
373.28	7791.8	
373.48	5175.9	
373.69	4902.8	
373.9	5618.3	
374.1	5575.3	
374.31	5126.7	
374.51	4660.5	
374.72	6414.2	
374.92	5235.3	
375.13	5279	
375.33	4474.1	
375.54	5987.6	
375.74	5365	
375.95	4527.4	
376.15	5797.1	
376.36	5990.3	
376.56	5825.8	
376.77	4564.2	
376.97	5044.1	
377.18	7144	
377.38	6086.6	
377.59	5378.6	
377.79	4070.7	
378	5859.2	
378.2	6399.2	
378.41	4156	
378.61	4089.1	
378.82	6437.4	
379.02	5451.7	
379.23	4329.4	
379.43	5491.3	
379.64	6462.7	
379.84	6132.3	
380.05	4097.3	
380.25	4058.4	
380.46	6221.7	
380.66	5720.7	
380.87	5554.1	
381.07	5941.2	
381.28	6849.8	
381.48	6169.2	
381.69	4162.2	
381.89	4258.4	
382.1	5066.7	
382.3	6362.4	
382.51	5354.1	
382.71	6229.2	
382.91	6225.1	
383.12	6801.3	
383.32	4575.8	
383.53	4811.4	
383.73	5984.8	
383.94	5837.4	
384.14	4672.1	
384.35	3774.4	
384.55	5695.4	
384.76	6092.7	
384.96	4545.8	
385.17	4855.7	
385.37	6067.4	
385.58	5407.3	
385.78	4909	
385.98	3633.8	
386.19	5586.9	
386.39	5993.7	
386.6	4274.1	
386.8	4551.3	
387.01	6095.4	
387.21	6175.3	
387.42	4860.5	
387.62	5572.5	
387.83	5413.5	
388.03	6202.6	
388.23	4599.1	
388.44	5478.3	
388.64	5091.9	
388.85	5278.3	
389.05	4930.1	
389.26	5560.9	
389.46	7232.1	
389.67	6584.2	
389.87	4886.5	
390.07	4992.9	
390.28	5832.6	
390.48	5332.2	
390.69	4143.7	
390.89	4419.5	
391.1	5484.5	
391.3	6463.4	
391.5	5677.7	
391.71	6324.1	
391.91	6240.8	
392.12	7356.3	
392.32	5791.7	
392.53	4954.7	
392.73	5633.3	
392.93	5849.7	
393.14	4588.1	
393.34	5420.3	
393.55	6340.5	
393.75	5753.4	
393.95	4569.7	
394.16	4521.9	
394.36	5492.7	
394.57	6286.6	
394.77	4016.7	
394.98	4501.4	
395.18	5513.1	
395.38	5759.6	
395.59	5464.7	
395.79	4332.8	
396	5687.2	
396.2	6093.4	
396.4	5229.8	
396.61	5166.3	
396.81	6364.4	
397.02	5690.6	
397.22	5467.4	
397.42	5582.8	
397.63	6426.5	
397.83	5527.5	
398.04	4280.9	
398.24	4832.5	
398.44	6152.1	
398.65	5148.6	
398.85	4186	
399.05	4279.6	
399.26	5552	
399.46	7338.6	
399.67	4737	
399.87	4373.1	
400.07	5959.6	
400.28	6293.4	
400.48	4532.2	
400.69	5634	
400.89	7051.2	
401.09	7040.2	
401.3	4379.9	
401.5	5610.1	
401.7	7318.1	
401.91	7530.4	
402.11	4770.4	
402.32	5048.2	
402.52	6536.4	
402.72	6471.6	
402.93	5098.1	
403.13	3910.9	
403.33	7293.5	
403.54	5939.1	
403.74	4835.3	
403.94	5746.6	
404.15	5980.1	
404.35	7283.9	
404.56	4536.9	
404.76	6534.4	
404.96	6447	
405.17	6333	
405.37	6058.6	
405.57	5196.4	
405.78	6636.1	
405.98	5974.6	
406.18	4655.7	
406.39	5682.4	
406.59	6498.2	
406.79	6171.2	
407	4369	
407.2	4534.2	
407.4	6574	
407.61	6724.8	
407.81	4512.4	
408.01	7123.5	
408.22	5446.9	
408.42	7621.2	
408.62	5827.8	
408.83	5213.4	
409.03	6156.2	
409.23	6015.6	
409.44	5248.3	
409.64	5702.2	
409.84	7237.5	
410.05	7060.7	
410.25	5455.8	
410.45	5244.2	
410.66	6529.6	
410.86	9112.8	
411.06	5703.6	
411.27	5512.4	
411.47	8961.9	
411.67	6850.5	
411.88	5836	
412.08	6115.9	
412.28	7464.8	
412.49	7977.5	
412.69	5497.4	
412.89	5511.1	
413.09	7742.7	
413.3	7590.5	
413.5	5726.1	
413.7	5203.9	
413.91	6821.1	
414.11	7743.4	
414.31	5432.6	
414.52	5989.6	
414.72	7449.1	
414.92	7341.3	
415.12	5513.8	
415.33	6015.6	
415.53	7750.2	
415.73	7908.6	
415.94	6477.7	
416.14	5831.2	
416.34	6630	
416.55	6480.5	
416.75	7149.5	
416.95	6440.9	
417.15	7668.3	
417.36	8368	
417.56	7291.5	
417.76	6353.5	
417.97	8086.1	
418.17	7787.1	
418.37	5828.5	
418.57	5943.9	
418.78	7451.9	
418.98	7149.5	
419.18	6824.5	
419.38	6726.9	
419.59	7217	
419.79	6783.6	
419.99	5774.6	
420.2	6169.2	
420.4	7752.9	
420.6	7950.9	
420.8	5692	
421.01	5541.8	
421.21	7556.3	
421.41	7753.6	
421.61	6085.9	
421.82	5748.6	
422.02	7050.5	
422.22	8004.1	
422.42	6686.6	
422.63	6250.4	
422.83	7206.8	
423.03	8398	
423.23	6222.4	
423.44	5175.9	
423.64	7217	
423.84	6922.8	
424.04	5610.1	
424.25	5313.8	
424.45	8206.9	
424.65	8057.4	
424.85	5006.6	
425.06	5630.5	
425.26	8103.1	
425.46	6564.4	
425.66	6257.9	
425.87	5879.7	
426.07	7780.9	
426.27	7717.4	
426.47	5890	
426.67	5295.4	
426.88	8114.7	
427.08	7542	
427.28	6098.9	
427.48	5266	
427.69	6419	
427.89	7109.9	
428.09	6173.9	
428.29	5209.3	
428.5	7849.9	
428.7	7391.1	
428.9	5164.3	
429.1	5819.6	
429.3	7252.5	
429.51	7676.5	
429.71	5493.3	
429.91	6387.6	
430.11	7462.1	
430.31	7800.7	
430.52	5774.6	
430.72	6147.3	
430.92	8153.6	
431.12	7559.7	
431.32	5453.7	
431.53	5897.5	
431.73	6412.9	
431.93	8220.5	
432.13	5397.1	
432.33	5151.3	
432.54	6882.5	
432.74	7317.4	
432.94	5137	
433.14	6320	
433.34	7490.8	
433.55	6911.9	
433.75	6188.3	
433.95	8056.7	
434.15	7299	
434.35	6952.2	
434.56	5408.7	
434.76	4764.3	
434.96	7264.8	
435.16	7500.3	
435.36	5174.5	
435.56	6365.8	
435.77	6832	
435.97	7086	
436.17	7175.4	
436.37	6359.6	
436.57	6826.6	
436.78	6834.1	
436.98	7620.5	
437.18	6961.7	
437.38	7608.2	
437.58	6991.8	
437.78	7122.2	
437.99	5620.3	
438.19	7610.9	
438.39	8322.3	
438.59	5618.3	
438.79	4997.7	
438.99	8322.9	
439.2	6971.3	
439.4	5220.3	
439.6	5157.5	
439.8	7387.7	
440	8583.7	
440.2	6238.8	
440.4	6411.5	
440.61	7792.5	
440.81	8384.4	
441.01	5435.3	
441.21	6351.4	
441.41	8283.4	
441.61	7889.5	
441.81	6688	
442.02	7781.6	
442.22	8768.7	
442.42	7963.2	
442.62	5509	
442.82	5567.7	
443.02	8258.8	
443.22	7331	
443.43	5995.8	
443.63	5534.3	
443.83	7125.6	
444.03	7132.4	
444.23	6804	
444.43	6407.4	
444.63	7409.6	
444.83	8688.2	
445.04	5577.3	
445.24	6991.8	
445.44	7824.6	
445.64	7933.8	
445.84	6455.9	
446.04	6381.5	
446.24	7163.8	
446.44	8255.4	
446.65	5534.3	
446.85	5991	
447.05	7225.2	
447.25	8146.8	
447.45	6042.9	
447.65	5380.7	
447.85	7458.7	
448.05	7119.4	
448.25	6513.9	
448.46	6274.3	
448.66	7404.8	
448.86	7092.8	
449.06	5234.6	
449.26	6509.1	
449.46	7847.8	
449.66	6757.6	
449.86	5893.4	
450.06	5917.3	
450.26	7073.7	
450.47	7691.5	
450.67	6157.6	
450.87	6582.2	
451.07	7688.1	
451.27	7448.5	
451.47	5528.2	
451.67	6151.4	
451.87	7058.7	
452.07	8372.8	
452.27	5638.7	
452.47	5732.3	
452.67	7434.8	
452.88	8064.9	
453.08	4985.4	
453.28	7113.3	
453.48	8637	
453.68	7369.3	
453.88	5563.6	
454.08	5924.8	
454.28	7789.1	
454.48	7410.9	
454.68	6451.8	
454.88	6960.4	
455.08	7905.2	
455.28	7639.6	
455.48	5481	
455.68	6083.1	
455.89	8392.6	
456.09	8039.6	
456.29	5822.4	
456.49	5871.5	
456.69	8223.3	
456.89	7535.8	
457.09	6431.3	
457.29	6710.5	
457.49	7834.2	
457.69	7945.4	
457.89	6207.4	
458.09	5566.4	
458.29	7506.5	
458.49	8368.7	
458.69	6656.6	
458.89	6021.7	
459.09	8498.4	
459.29	8671.8	
459.49	6113.9	
459.69	6922.1	
459.9	8068.3	
460.1	7505.8	
460.3	5963.7	
460.5	5754.8	
460.7	8019.8	
460.9	7723.6	
461.1	5447.6	
461.3	6771.9	
461.5	8596	
461.7	8316.1	
461.9	5872.2	
462.1	6333.7	
462.3	7696.3	
462.5	8323.6	
462.7	5947.3	
462.9	5939.1	
463.1	9395.4	
463.3	9005.6	
463.5	6217	
463.7	7176.8	
463.9	7914	
464.1	8306.6	
464.3	6309.8	
464.5	6669.6	
464.7	8587.1	
464.9	8235.6	
465.1	7939.3	
465.3	6972.7	
465.5	8915.5	
465.7	8871.1	
465.9	7176.8	
466.1	7013.6	
466.3	8733.2	
466.5	8501.1	
466.7	7985	
466.9	6723.5	
467.1	8424	
467.3	9437.7	
467.5	7894.2	
467.7	6777.4	
467.9	9654.8	
468.1	10626	
468.3	7553.6	
468.5	7921.5	
468.7	8416.5	
468.9	8359.1	
469.1	6982.2	
469.3	7710.6	
469.5	10521	
469.7	7972.7	
469.9	7414.3	
470.1	6711.9	
470.3	8350.3	
470.5	8439	
470.7	8031.5	
470.9	6759.7	
471.1	8131.1	
471.3	8662.2	
471.5	6621.8	
471.69	8654	
471.89	8047.2	
472.09	7580.2	
472.29	7465.5	
472.49	7845.1	
472.69	7763.2	
472.89	8636.3	
473.09	6540.5	
473.29	6647	
473.49	7865.6	
473.69	8123.6	
473.89	7621.9	
474.09	6791.1	
474.29	9460.3	
474.49	9047.9	
474.69	7683.3	
474.89	6912.6	
475.09	8136.6	
475.29	8017.1	
475.49	6268.8	
475.69	6582.2	
475.88	9779.7	
476.08	8349.6	
476.28	6255.2	
476.48	6744	
476.68	8860.9	
476.88	8699.8	
477.08	6565.8	
477.28	6847.7	
477.48	8156.4	
477.68	8860.9	
477.88	6339.8	
478.08	6677.7	
478.28	9174.2	
478.48	8281.3	
478.67	6668.9	
478.87	6115.2	
479.07	8996	
479.27	8424.7	
479.47	6940.6	
479.67	6840.9	
479.87	8718.2	
480.07	9394	
480.27	6124.8	
480.47	7845.1	
480.67	8334.6	
480.87	9024.7	
481.06	6503.7	
481.26	7250.5	
481.46	8278.6	
481.66	8291.5	
481.86	6970.6	
482.06	8043.1	
482.26	8062.9	
482.46	9020.6	
482.66	6896.2	
482.86	6404	
483.05	8364.6	
483.25	7762.5	
483.45	9430.9	
483.65	6890	
483.85	7881.9	
484.05	8245.1	
484.25	7288	
484.45	7717.4	
484.65	9220	
484.84	9225.4	
485.04	6700.3	
485.24	6730.3	
485.44	9450	
485.64	7671.7	
485.84	5954.8	
486.04	7408.9	
486.24	8051.9	
486.44	8503.2	
486.63	5932.3	
486.83	6776	
487.03	7929.1	
487.23	8109.3	
487.43	6044.2	
487.63	8486.1	
487.83	8170	
488.02	9161.9	
488.22	7064.1	
488.42	7772.7	
488.62	9195.4	
488.82	7993.2	
489.02	6741.2	
489.22	6780.8	
489.41	8998.8	
489.61	8549.6	
489.81	6409.5	
490.01	6427.2	
490.21	8831.5	
490.41	9552.4	
490.61	6324.1	
490.8	6418.3	
491	8220.5	
491.2	7557	
491.4	7060	
491.6	6139.1	
491.8	8252.6	
491.99	8472.4	
492.19	6075.6	
492.39	6498.9	
492.59	8811	
492.79	8858.8	
492.99	7249.1	
493.18	6389	
493.38	8976.9	
493.58	9704.6	
493.78	7157	
493.98	6706.4	
494.18	8648.6	
494.37	8099	
494.57	7387.7	
494.77	7291.5	
494.97	8824	
495.17	9187.2	
495.37	6747.4	
495.56	7058.7	
495.76	9308	
495.96	8884.1	
496.16	8094.9	
496.36	6905.8	
496.55	9174.2	
496.75	8536.6	
496.95	7324.9	
497.15	7171.3	
497.35	9086.2	
497.54	8942.8	
497.74	6937.2	
497.94	8753	
498.14	9745.6	
498.34	9565.4	
498.53	6608.8	
498.73	7472.4	
498.93	8325.7	
499.13	9039.1	
499.33	7196.6	
499.52	7874.4	
499.72	8961.9	
499.92	9353.8	
500.12	6920.8	
500.32	7162.4	
500.51	9338.1	
500.71	8968.7	
500.91	7961.1	
501.11	7613.7	
501.31	9086.8	
501.5	9608.4	
501.7	8311.3	
501.9	7172.7	
502.1	8905.3	
502.29	9310.7	
502.49	7706.5	
502.69	8150.9	
502.89	9076.6	
503.09	9140.8	
503.28	6647.7	
503.48	6697.5	
503.68	8274.5	
503.88	8324.3	
504.07	7776.1	
504.27	7223.2	
504.47	8727.1	
504.67	8954.4	
504.86	7708.6	
505.06	7355.6	
505.26	8385.7	
505.46	10253	
505.65	7274.4	
505.85	7449.8	
506.05	8262.9	
506.25	8835.6	
506.44	6483.2	
506.64	7563.1	
506.84	8183.7	
507.04	9291	
507.23	6774.7	
507.43	7387	
507.63	10426	
507.83	8549.6	
508.02	7421.2	
508.22	6957.6	
508.42	10606	
508.62	8183	
508.81	7235.5	
509.01	7832.1	
509.21	8019.2	
509.4	8346.8	
509.6	7446.4	
509.8	6840.2	
510	8402.8	
510.19	9865.7	
510.39	6655.2	
510.59	6744	
510.79	8071	
510.98	9559.2	
511.18	6862.1	
511.38	6888	
511.57	8938	
511.77	8830.2	
511.97	7587	
512.17	6556.9	
512.36	8884.1	
512.56	8886.8	
512.76	6678.4	
512.95	6370.5	
513.15	9057.5	
513.35	7699	
513.55	7515.4	
513.74	6614.3	
513.94	9043.8	
514.14	8347.5	
514.33	7606.2	
514.53	7320.1	
514.73	8255.4	
514.92	8491.6	
515.12	6743.3	
515.32	6518.7	
515.51	8530.5	
515.71	9190.6	
515.91	8350.9	
516.11	6632.7	
516.3	10365	
516.5	8060.8	
516.7	7227.3	
516.89	7801.4	
517.09	8299.7	
517.29	8111.3	
517.48	7502.4	
517.68	6897.6	
517.88	7916.1	
518.07	8608.3	
518.27	7371.3	
518.47	6425.2	
518.66	9139.4	
518.86	7786.4	
519.06	6256.5	
519.25	6621.8	
519.45	8145.5	
519.65	9632.3	
519.84	7338.6	
520.04	8110	
520.24	10056	
520.43	8697	
520.63	7059.3	
520.83	6728.3	
521.02	7849.2	
521.22	8624	
521.42	7319.4	
521.61	7980.9	
521.81	8169.3	
522.01	8381.7	
522.2	7204.1	
522.4	6957.6	
522.6	8863.6	
522.79	7613	
522.99	6989.7	
523.18	6158.9	
523.38	8602.2	
523.58	8508.6	
523.77	8393.9	
523.97	6193.1	
524.17	10523	
524.36	9583.1	
524.56	7671.7	
524.76	7255.3	
524.95	8454.7	
525.15	8000.7	
525.34	7012.9	
525.54	7032	
525.74	8819.2	
525.93	7740.6	
526.13	8233.5	
526.33	6881.9	
526.52	9172.2	
526.72	8548.2	
526.91	8267.6	
527.11	7452.6	
527.31	9207.7	
527.5	9649.3	
527.7	7303.1	
527.89	6333	
528.09	8130.4	
528.29	8504.5	
528.48	7769.3	
528.68	7421.2	
528.87	9035	
529.07	9058.2	
529.27	7288.7	
529.46	6747.4	
529.66	8561.2	
529.85	8998.1	
530.05	6486.6	
530.25	7325.6	
530.44	10039	
530.64	8551	
530.83	7015	
531.03	7225.2	
531.23	8903.2	
531.42	8898.4	
531.62	8019.8	
531.81	7168.6	
532.01	9048.6	
532.21	9648.7	
532.4	6906.4	
532.6	7275.1	
532.79	10109	
532.99	9180.4	
533.18	7230.7	
533.38	8363.9	
533.58	8595.3	
533.77	9511.4	
533.97	7127.6	
534.16	8073.8	
534.36	9575.6	
534.55	8632.2	
534.75	8189.1	
534.95	7249.1	
535.14	9516.2	
535.34	8641.7	
535.53	6923.5	
535.73	9001.5	
535.92	10006	
536.12	8818.6	
536.31	6892.8	
536.51	8210.3	
536.71	9002.2	
536.9	8663.6	
537.1	7100.3	
537.29	7268.9	
537.49	9543.5	
537.68	8473.8	
537.88	7689.4	
538.07	6878.4	
538.27	8669.7	
538.46	9865.1	
538.66	6749.4	
538.86	7134.4	
539.05	8776.9	
539.25	9168.1	
539.44	7395.2	
539.64	7080.5	
539.83	8677.9	
540.03	9673.2	
540.22	6879.8	
540.42	7144.7	
540.61	8862.2	
540.81	9047.9	
541	7553.6	
541.2	8226	
541.39	8354.3	
541.59	8819.9	
541.78	7832.8	
541.98	6919.4	
542.18	8046.5	
542.37	7963.2	
542.57	7372.7	
542.76	7854.6	
542.96	8150.2	
543.15	8924.4	
543.35	7331.7	
543.54	6705	
543.74	9215.9	
543.93	8652	
544.13	7376.1	
544.32	8520.2	
544.52	9179	
544.71	8228.1	
544.91	6486.6	
545.1	7748.1	
545.3	8279.9	
545.49	8966	
545.69	6434.7	
545.88	6981.5	
546.08	10002	
546.27	9579	
546.47	7566.6	
546.66	6707.8	
546.86	9239.1	
547.05	9889.6	
547.24	7030.7	
547.44	6864.8	
547.63	8085.4	
547.83	9274.6	
548.02	7274.4	
548.22	7481.2	
548.41	7953.6	
548.61	9311.4	
548.8	6832	
549	6687.3	
549.19	8556.4	
549.39	8931.2	
549.58	6436.8	
549.78	6991.1	
549.97	8983.8	
550.17	8436.9	
550.36	7991.2	
550.55	9024.7	
550.75	8383.7	
550.94	9454.1	
551.14	6664.8	
551.33	7124.2	
551.53	7755	
551.72	8742.1	
551.92	7098.9	
552.11	6815.6	
552.31	8872.5	
552.5	8759.8	
552.69	8602.8	
552.89	6455.9	
553.08	8789.9	
553.28	8520.2	
553.47	6785.6	
553.67	8044.4	
553.86	9467.1	
554.06	7713.3	
554.25	5969.1	
554.44	6651.8	
554.64	10284	
554.83	9713.5	
555.03	6604	
555.22	6929	
555.42	9029.5	
555.61	8702.5	
555.8	6762.4	
556	7112.6	
556.19	7754.3	
556.39	9079.3	
556.58	6785.6	
556.78	6847.7	
556.97	8579.6	
557.16	8241	
557.36	8152.3	
557.55	6435.4	
557.75	7490.1	
557.94	9275.9	
558.13	6628.6	
558.33	6286.6	
558.52	9045.9	
558.72	7907.2	
558.91	6483.9	
559.1	6668.2	
559.3	7660.8	
559.49	7424.6	
559.69	5982.1	
559.88	7045	
560.07	8441.7	
560.27	8967.4	
560.46	7180.9	
560.66	7373.4	
560.85	8267	
561.04	7316	
561.24	6352.1	
561.43	6617	
561.63	7643.7	
561.82	7959.1	
562.01	7871	
562.21	6926.2	
562.4	8468.4	
562.59	9400.2	
562.79	6776	
562.98	6301.6	
563.18	8380.3	
563.37	9844.6	
563.56	7312.6	
563.76	6225.1	
563.95	7753.6	
564.14	7605.5	
564.34	6592.4	
564.53	6454.5	
564.73	8309.3	
564.92	8674.5	
565.11	6827.2	
565.31	6167.1	
565.5	8912.1	
565.69	7809.6	
565.89	6401.3	
566.08	6652.5	
566.27	8829.5	
566.47	9170.1	
566.66	7303.7	
566.85	5920.7	
567.05	8278.6	
567.24	7647.8	
567.44	6264.7	
567.63	7770	
567.82	8553	
568.02	8292.2	
568.21	6324.8	
568.4	6696.9	
568.6	8101.1	
568.79	8096.3	
568.98	6111.8	
569.18	6273.6	
569.37	8083.3	
569.56	10172	
569.76	6635.4	
569.95	7594.6	
570.14	8492.9	
570.34	8450.6	
570.53	6176	
570.72	6140.5	
570.91	8931.2	
571.11	8030.8	
571.3	6642.2	
571.49	7615	
571.69	8074.5	
571.88	7632.8	
572.07	7118.1	
572.27	7202	
572.46	7633.5	
572.65	8689.5	
572.85	6331	
573.04	6666.8	
573.23	8979.7	
573.43	8142	
573.62	6076.3	
573.81	6787	
574	8113.4	
574.2	7925	
574.39	6488.6	
574.58	6705	
574.78	9059.5	
574.97	8264.2	
575.16	7070.3	
575.36	7163.1	
575.55	8648.6	
575.74	8852.7	
575.93	6069.5	
576.13	7204.8	
576.32	8037.6	
576.51	8488.8	
576.71	6492.7	
576.9	7907.2	
577.09	8875.2	
577.28	8365.3	
577.48	7050.5	
577.67	5892.7	
577.86	8030.8	
578.05	8455.4	
578.25	6642.9	
578.44	6736.5	
578.63	8129.8	
578.83	9407	
579.02	5948.7	
579.21	7555	
579.4	8360.5	
579.6	8020.5	
579.79	6758.3	
579.98	9156.5	
580.17	8772.1	
580.37	8689.5	
580.56	6185.5	
580.75	7051.8	
580.94	9209.7	
581.14	9089.6	
581.33	7465.5	
581.52	6346	
581.71	8564.6	
581.91	9263	
582.1	5949.3	
582.29	6657.3	
582.48	8137.9	
582.68	8054	
582.87	7195.9	
583.06	6679.1	
583.25	8541.4	
583.45	7898.3	
583.64	7400.7	
583.83	8080.6	
584.02	7931.8	
584.21	8451.3	
584.41	7331.7	
584.6	6698.9	
584.79	8080.6	
584.98	8890.2	
585.18	6069.5	
585.37	6068.8	
585.56	7574.8	
585.75	8442.4	
585.94	6371.2	
586.14	7037.5	
586.33	9126.4	
586.52	8048.5	
586.71	6855.9	
586.91	6604.7	
587.1	7457.3	
587.29	8618.5	
587.48	6480.5	
587.67	6388.3	
587.87	8465.6	
588.06	8550.3	
588.25	7775.5	
588.44	7022.5	
588.63	8189.1	
588.83	8717.5	
589.02	6464.1	
589.21	6415.6	
589.4	7949.5	
589.59	7757	
589.78	5670.8	
589.98	6068.1	
590.17	7451.2	
590.36	8064.2	
590.55	5438	
590.74	6349.4	
590.94	9591.3	
591.13	8069	
591.32	6107.7	
591.51	5575.3	
591.7	8480.6	
591.89	7944.8	
592.09	5709.1	
592.28	6221	
592.47	7075.7	
592.66	9049.3	
592.85	5731.6	
593.05	6006.7	
593.24	7758.4	
593.43	8537.3	
593.62	5947.3	
593.81	6479.1	
594	7734.5	
594.19	7976.8	
594.39	5942.5	
594.58	5825.1	
594.77	8066.9	
594.96	8766.7	
595.15	5778	
595.34	6505.7	
595.54	8112.7	
595.73	7202	
595.92	5138.4	
596.11	6453.8	
596.3	8660.2	
596.49	7313.3	
596.68	6061.3	
596.88	6587.6	
597.07	8331.8	
597.26	7098.3	
597.45	5598.5	
597.64	6850.5	
597.83	7343.3	
598.02	8013.7	
598.22	5726.1	
598.41	6453.8	
598.6	7749.5	
598.79	7182.9	
598.98	5726.8	
599.17	6690	
599.36	7766.6	
599.55	9013.1	
599.74	7933.1	
599.94	7576.1	
600.13	8375.5	
600.32	7062.8	
600.51	5388.9	
600.7	5535	
600.89	8968.1	
601.08	9039.7	
601.27	5410.1	
601.47	6336.4	
601.66	8295.6	
601.85	8952.4	
602.04	6002.6	
602.23	6396.5	
602.42	7259.4	
602.61	7952.3	
602.8	6021.7	
602.99	5697.4	
603.18	7647.1	
603.37	7890.1	
603.57	6415.6	
603.76	7040.9	
603.95	8629.5	
604.14	8136.6	
604.33	5782.1	
604.52	6058.6	
604.71	7800.7	
604.9	7387	
605.09	6803.4	
605.28	6641.6	
605.47	8406.2	
605.66	8134.5	
605.86	6351.4	
606.05	5773.9	
606.24	8382.3	
606.43	6947.4	
606.62	6113.2	
606.81	6988.4	
607	8219.9	
607.19	7499	
607.38	5568.4	
607.57	5847.6	
607.76	7306.5	
607.95	6791.1	
608.14	6213.5	
608.33	6819.1	
608.52	7398.6	
608.72	8279.3	
608.91	5492	
609.1	5371.1	
609.29	7418.4	
609.48	6888.7	
609.67	6544.6	
609.86	5424.4	
610.05	7055.3	
610.24	7435.5	
610.43	5266	
610.62	4956.1	
610.81	8616.5	
611	8307.9	
611.19	5477.6	
611.38	6165.1	
611.57	7649.2	
611.76	9078	
611.95	5196.4	
612.14	5043.5	
612.33	7402.7	
612.52	6995.2	
612.71	5758.9	
612.9	4948.6	
613.09	6496.2	
613.28	8959.9	
613.47	5477.6	
613.66	6483.9	
613.85	7537.9	
614.04	7086	
614.24	5542.5	
614.43	4792.2	
614.62	7651.9	
614.81	7669	
615	6262	
615.19	6150.1	
615.38	6877.8	
615.57	7258.7	
615.76	5980.8	
615.95	6962.4	
616.14	7705.1	
616.33	7360.4	
616.52	6367.8	
616.71	6566.5	
616.9	7742	
617.09	7457.3	
617.28	5596.4	
617.47	6942.6	
617.66	6735.8	
617.85	6751.5	
618.04	6569.2	
618.22	6034.7	
618.41	7081.9	
618.6	7993.9	
618.79	5916.6	
618.98	5532.2	
619.17	8368.7	
619.36	6564.4	
619.55	5695.4	
619.74	5713.8	
619.93	7557	
620.12	6864.8	
620.31	6221	
620.5	6485.2	
620.69	8145.5	
620.88	8573.5	
621.07	7198.6	
621.26	6191.7	
621.45	7629.4	
621.64	7678.5	
621.83	6303	
622.02	5363.6	
622.21	7675.8	
622.4	7423.2	
622.59	6790.4	
622.78	6494.8	
622.97	7021.8	
623.16	8010.3	
623.35	6154.8	
623.54	5295.4	
623.72	7290.1	
623.91	7394.5	
624.1	6473.6	
624.29	5063.9	
624.48	8545.5	
624.67	7705.1	
624.86	6292	
625.05	5343.8	
625.24	8692.9	
625.43	6901.7	
625.62	8135.9	
625.81	5552.7	
626	8113.4	
626.19	7245.7	
626.38	6397.2	
626.56	5818.3	
626.75	7084.6	
626.94	7886	
627.13	6381.5	
627.32	5084.4	
627.51	7830.1	
627.7	9101.9	
627.89	5259.2	
628.08	6370.5	
628.27	6908.5	
628.46	7115.3	
628.65	5514.5	
628.83	5078.3	
629.02	7803.4	
629.21	6989.7	
629.4	5958.2	
629.59	6147.3	
629.78	6914.6	
629.97	7931.1	
630.16	6216.3	
630.35	5596.4	
630.54	8338.6	
630.72	7980.9	
630.91	5569.1	
631.1	6253.8	
631.29	7501	
631.48	7695.6	
631.67	6331.6	
631.86	5788.9	
632.05	7101.7	
632.24	7128.3	
632.42	5406.6	
632.61	6087.9	
632.8	7326.9	
632.99	6804	
633.18	6004.6	
633.37	6404	
633.56	7534.5	
633.75	7331.7	
633.93	5940.5	
634.12	5649	
634.31	8267.6	
634.5	7936.6	
634.69	5717.2	
634.88	6350.1	
635.07	7288	
635.25	7815	
635.44	6593.1	
635.63	6876.4	
635.82	7086.7	
636.01	6653.9	
636.2	6566.5	
636.39	6082.5	
636.57	8329.8	
636.76	8011.7	
636.95	5488.6	
637.14	7005.4	
637.33	7546.1	
637.52	8497.7	
637.7	5292.6	
637.89	6212.9	
638.08	7116	
638.27	8641.1	
638.46	6397.2	
638.65	6863.4	
638.83	8766	
639.02	6936.5	
639.21	6307.7	
639.4	6837.5	
639.59	7580.9	
639.78	6989.7	
639.96	5539.8	
640.15	5601.2	
640.34	7361.1	
640.53	7613	
640.72	5212.8	
640.91	5656.5	
641.09	6757.6	
641.28	8154.3	
641.47	5666	
641.66	6578.1	
641.85	7484	
642.03	7826.7	
642.22	6313.2	
642.41	5695.4	
642.6	6952.9	
642.79	6206	
642.97	5509.7	
643.16	6266.1	
643.35	6942.6	
643.54	6767.9	
643.73	5453.1	
643.91	6298.9	
644.1	6528.2	
644.29	7268.9	
644.48	5593.7	
644.67	5616.2	
644.85	6823.1	
645.04	7201.3	
645.23	5167.7	
645.42	5455.8	
645.6	6725.5	
645.79	7966.6	
645.98	5516.5	
646.17	4539.7	
646.36	6472.9	
646.54	7221.1	
646.73	6437.4	
646.92	5094	
647.11	6831.3	
647.29	7921.5	
647.48	5197.1	
647.67	5009.3	
647.86	8163.2	
648.05	8060.1	
648.23	5631.2	
648.42	6924.9	
648.61	7480.5	
648.8	7117.4	
648.98	5238.7	
649.17	5563.6	
649.36	6725.5	
649.55	6142.5	
649.73	5257.1	
649.92	6102.9	
650.11	6610.8	
650.3	7041.6	
650.48	5416.9	
650.67	5111	
650.86	7301.7	
651.05	6102.9	
651.23	5339.1	
651.42	5374.6	
651.61	6692.1	
651.79	6860	
651.98	5538.4	
652.17	5161.6	
652.36	7271.7	
652.54	6252.4	
652.73	5255.1	
652.92	4967	
653.11	7210.2	
653.29	7305.1	
653.48	4412	
653.67	5489.2	
653.85	7001.3	
654.04	8097	
654.23	5810.1	
654.42	5349.3	
654.6	6569.9	
654.79	7266.2	
654.98	4691.2	
655.16	5266	
655.35	6183.5	
655.54	6109.1	
655.73	4885.8	
655.91	4751.3	
656.1	7395.2	
656.29	6059.3	
656.47	4312.3	
656.66	6167.1	
656.85	6389.7	
657.03	6409.5	
657.22	4950.6	
657.41	5003.2	
657.59	6430.6	
657.78	6186.9	
657.97	4543.1	
658.16	5352	
658.34	7069.6	
658.53	7503.1	
658.72	6284.5	
658.9	6803.4	
659.09	6427.9	
659.28	6619	
659.46	5048.2	
659.65	5009.3	
659.84	6270.9	
660.02	6883.9	
660.21	4862.6	
660.4	4783.4	
660.58	7317.4	
660.77	6682.5	
660.96	5432.6	
661.14	4483	
661.33	7802.8	
661.52	7746.8	
661.7	4401.1	
661.89	8350.9	
662.08	6232.7	
662.26	5795.8	
662.45	4739.7	
662.64	4864.6	
662.82	6942.6	
663.01	6169.8	
663.2	4890.5	
663.38	5643.5	
663.57	6832.7	
663.75	6710.5	
663.94	5244.8	
664.13	6579.4	
664.31	6187.6	
664.5	6898.9	
664.69	5644.9	
664.87	6090	
665.06	5990.3	
665.25	6666.8	
665.43	6320.7	
665.62	6395.1	
665.8	7107.1	
665.99	6330.3	
666.18	5162.9	
666.36	5336.3	
666.55	7071	
666.74	6978.8	
666.92	4833.2	
667.11	6498.9	
667.29	6377.4	
667.48	7009.5	
667.67	6162.3	
667.85	5248.9	
668.04	6431.3	
668.22	6399.2	
668.41	5252.4	
668.6	5439.4	
668.78	6184.2	
668.97	6373.3	
669.15	5605.3	
669.34	4507.6	
669.53	6225.1	
669.71	6545.3	
669.9	4753.3	
670.08	5479.7	
670.27	6150.1	
670.46	6763.8	
670.64	5668.8	
670.83	5877.7	
671.01	6073.6	
671.2	6804	
671.38	4771.8	
671.57	4731.5	
671.76	7422.5	
671.94	8039.6	
672.13	4603.8	
672.31	5875.6	
672.5	6999.3	
672.69	6124.1	
672.87	4784.1	
673.06	5111	
673.24	6709.8	
673.43	6191.7	
673.61	5627.1	
673.8	5107	
673.98	6952.9	
674.17	7106.5	
674.36	5709.7	
674.54	5563	
674.73	6639.5	
674.91	6934.4	
675.1	5311.7	
675.28	4911	
675.47	6488	
675.65	7017.7	
675.84	5163.6	
676.03	5547.3	
676.21	6265.4	
676.4	5713.8	
676.58	5969.1	
676.77	5726.8	
676.95	7811	
677.14	6126.2	
677.32	4835.3	
677.51	4581.3	
677.69	7025.9	
677.88	5748	
678.06	4657.8	
678.25	4719.2	
678.44	6556.2	
678.62	6195.1	
678.81	4547.9	
678.99	5557.5	
679.18	7250.5	
679.36	6776.7	
679.55	5090.6	
679.73	5702.9	
679.92	6761	
680.1	6161	
680.29	6323.4	
680.47	5110.4	
680.66	6134.3	
680.84	7026.6	
681.03	4375.8	
681.21	5656.5	
681.4	6199.2	
681.58	6040.1	
681.77	4869.4	
681.95	4768.4	
682.14	7044.3	
682.32	7462.8	
682.51	5739.1	
682.69	4549.9	
682.88	6081.1	
683.06	6809.5	
683.25	5434.6	
683.43	6001.9	
683.62	6380.8	
683.8	6825.2	
683.99	6002.6	
684.17	5322	
684.36	7691.5	
684.54	6454.5	
684.73	4545.1	
684.91	4749.2	
685.1	6755.6	
685.28	6135.7	
685.46	5432.6	
685.65	5544.5	
685.83	7021.1	
686.02	6374.6	
686.2	4874.8	
686.39	5008	
686.57	6246.3	
686.76	7728.4	
686.94	4817.5	
687.13	5051.7	
687.31	6917.4	
687.5	6343.9	
687.68	4414.1	
687.86	5774.6	
688.05	7977.5	
688.23	5799.2	
688.42	5798.5	
688.6	4870.1	
688.79	6181.5	
688.97	6251.1	
689.16	5259.9	
689.34	4178.5	
689.52	7004.7	
689.71	7238.9	
689.89	5588.2	
690.08	4816.1	
690.26	6492.1	
690.45	6321.4	
690.63	5799.2	
690.81	5057.8	
691	6163.7	
691.18	6235.4	
691.37	5109	
691.55	7510.6	
691.74	6183.5	
691.92	8239	
692.1	5186.8	
692.29	4594.3	
692.47	6369.9	
692.66	5566.4	
692.84	4834.6	
693.02	5431.9	
693.21	5715.9	
693.39	6324.1	
693.58	5471.5	
693.76	4885.1	
693.94	7499.7	
694.13	7260.7	
694.31	4768.4	
694.5	5898.1	
694.68	6066.1	
694.86	6335	
695.05	5235.3	
695.23	5243.5	
695.42	6731	
695.6	9176.9	
695.78	5804.6	
695.97	4866	
696.15	6799.3	
696.34	6141.9	
696.52	4625.7	
696.7	5474.2	
696.89	6565.8	
697.07	5976	
697.25	5390.9	
697.44	7071.6	
697.62	6483.9	
697.81	6959	
697.99	5119.2	
698.17	5628.5	
698.36	5775.3	
698.54	6579.4	
698.72	5478.3	
698.91	4396.3	
699.09	6137.1	
699.28	5995.1	
699.46	5111.7	
699.64	4978.6	
699.83	5896.8	
700.01	7228	
700.19	5803.3	
700.38	4083	
700.56	7170.6	
700.74	5995.1	
700.93	4524.6	
701.11	5418.9	
701.29	6545.3	
701.48	7664.9	
701.66	4773.1	
701.84	4812	
702.03	6063.4	
702.21	6716.7	
702.39	4278.9	
702.58	4975.9	
702.76	6523.5	
702.94	6683.9	
703.13	4332.8	
703.31	6910.5	
703.49	5827.8	
703.68	7381.6	
703.86	4495.3	
704.04	5583.4	
704.23	6331	
704.41	6759.7	
704.59	4685.8	
704.78	5973.2	
704.96	7423.2	
705.14	6845	
705.33	4446.1	
705.51	5378.6	
705.69	6161	
705.87	7049.8	
706.06	5586.9	
706.24	4408.6	
706.42	6492.1	
706.61	6804.7	
706.79	5655.1	
706.97	4485.1	
707.16	5909.1	
707.34	6526.2	
707.52	5694	
707.7	4742.4	
707.89	6011.5	
708.07	5746.6	
708.25	5595.1	
708.44	5642.2	
708.62	5993.7	
708.8	7228.6	
708.98	5883.1	
709.17	4747.9	
709.35	6395.1	
709.53	6475.7	
709.72	4440	
709.9	4558.8	
710.08	6653.2	
710.26	6779.5	
710.45	6214.9	
710.63	4817.5	
710.81	6432.7	
710.99	6377.4	
711.18	5497.4	
711.36	5048.2	
711.54	6236.7	
711.72	7014.3	
711.91	5033.9	
712.09	4450.9	
712.27	6305.7	
712.45	7087.3	
712.64	5444.9	
712.82	4289.8	
713	5874.9	
713.18	6052.4	
713.37	4504.2	
713.55	5793.7	
713.73	7065.5	
713.91	5580	
714.1	5107	
714.28	4470.7	
714.46	6753.5	
714.64	5997.8	
714.83	3951.9	
715.01	4956.8	
715.19	6107	
715.37	5511.1	
715.55	4591.5	
715.74	4861.9	
715.92	7139.9	
716.1	5025	
716.28	6123.4	
716.47	5130.8	
716.65	5730.9	
716.83	5886.5	
717.01	4924.7	
717.19	5052.3	
717.38	7966.6	
717.56	5524.1	
717.74	5216.9	
717.92	4232.5	
718.1	6815	
718.29	5913.2	
718.47	3842.7	
718.65	4563.6	
718.83	6563.7	
719.01	6507.8	
719.2	3644	
719.38	4839.4	
719.56	6155.5	
719.74	7818.5	
719.92	4328	
720.11	5558.2	
720.29	6242.9	
720.47	5298.1	
720.65	4000.4	
720.83	4924.7	
721.02	5784.1	
721.2	5461.2	
721.38	4980	
721.56	4272.1	
721.74	5006.6	
721.92	5266	
722.11	5487.9	
722.29	5227.8	
722.47	6554.2	
722.65	5687.2	
722.83	4213.4	
723.01	5273.5	
723.2	5818.3	
723.38	6071.5	
723.56	3687.7	
723.74	4887.1	
723.92	5227.1	
724.1	6506.4	
724.29	4155.3	
724.47	5430.5	
724.65	5304.9	
724.83	5212.1	
725.01	4123.2	
725.19	4999.8	
725.37	5327.4	
725.56	5461.2	
725.74	3938.9	
725.92	4216.1	
726.1	5205.3	
726.28	5579.3	
726.46	4685.8	
726.64	4326.7	
726.83	5501.5	
727.01	5870.2	
727.19	3857	
727.37	4782	
727.55	5687.9	
727.73	6168.5	
727.91	3850.2	
728.09	3683.6	
728.28	6303.6	
728.46	7006.1	
728.64	4872.8	
728.82	4863.9	
729	7371.3	
729.18	6553.5	
729.36	3949.8	
729.54	6507.1	
729.72	7598	
729.91	5801.9	
730.09	5975.3	
730.27	4668.7	
730.45	5609.4	
730.63	6296.1	
730.81	5250.3	
730.99	4192.2	
731.17	6908.5	
731.35	5356.8	
731.53	4816.1	
731.71	4375.8	
731.9	6562.4	
732.08	6794.5	
732.26	4627.7	
732.44	4366.3	
732.62	6830.7	
732.8	6290	
732.98	5161.6	
733.16	4091.2	
733.34	6251.8	
733.52	4997	
733.7	4670.1	
733.88	4934.9	
734.07	6144.6	
734.25	5848.3	
734.43	4093.2	
734.61	5778.7	
734.79	7451.2	
734.97	5720.7	
735.15	4298	
735.33	4621.6	
735.51	6138.4	
735.69	5752.1	
735.87	5847	
736.05	4856.4	
736.23	5930.2	
736.41	5666	
736.59	4667.3	
736.77	4769	
736.95	6343.9	
737.13	5842.2	
737.32	4293.2	
737.5	4454.3	
737.68	6958.3	
737.86	5707	
738.04	4095.3	
738.22	6109.8	
738.4	5508.4	
738.58	5847.6	
738.76	4785.4	
738.94	3579.8	
739.12	5664.7	
739.3	5461.2	
739.48	5383.4	
739.66	5124.7	
739.84	5888.6	
740.02	5913.2	
740.2	3723.9	
740.38	4147.1	
740.56	6325.5	
740.74	5082.4	
740.92	4812	
741.1	4786.8	
741.28	5737.7	
741.46	5554.8	
741.64	4349.2	
741.82	4911.7	
742	5775.3	
742.18	5790.3	
742.36	4626.4	
742.54	4209.3	
742.72	6382.2	
742.9	5017.5	
743.08	5024.3	
743.26	3817.4	
743.44	6618.4	
743.62	6453.8	
743.8	5213.4	
743.98	4265.9	
744.16	6137.8	
744.34	5786.2	
744.52	5156.8	
744.7	5085.1	
744.88	6326.2	
745.06	5813.5	
745.24	5125.4	
745.42	5337	
745.6	6401.3	
745.78	6105	
745.96	3918.4	
746.14	4345.1	
746.32	7281.2	
746.5	6478.4	
746.68	4884.4	
746.86	4403.1	
747.03	6993.8	
747.21	5161.6	
747.39	4937	
747.57	4353.3	
747.75	6019	
747.93	6454.5	
748.11	4333.5	
748.29	4269.3	
748.47	7738.6	
748.65	5745.2	
748.83	5152.7	
749.01	4813.4	
749.19	6257.9	
749.37	5413.5	
749.55	4643.4	
749.73	4745.8	
749.91	5896.8	
750.09	5631.2	
750.26	4807.9	
750.44	4208.6	
750.62	5892.7	
750.8	5895.4	
750.98	4009.2	
751.16	4401.8	
751.34	6047.7	
751.52	5317.9	
751.7	5263.3	
751.88	4055.7	
752.06	6481.1	
752.24	6328.9	
752.42	3970.3	
752.59	4345.1	
752.77	5885.9	
752.95	7278.5	
753.13	5177.3	
753.31	4556	
753.49	5601.2	
753.67	6056.5	
753.85	4851.6	
754.03	4399	
754.21	6403.3	
754.38	6812.2	
754.56	4639.3	
754.74	3591.5	
754.92	5654.4	
755.1	6404	
755.28	3727.3	
755.46	3869.3	
755.64	7350.2	
755.82	7514	
755.99	4281.6	
756.17	4348.5	
756.35	4906.3	
756.53	6630.6	
756.71	3222.8	
756.89	4236.6	
757.07	6163	
757.25	5197.1	
757.42	4723.3	
757.6	5625.1	
757.78	6131.6	
757.96	5044.8	
758.14	4372.4	
758.32	3854.3	
758.5	4597.7	
758.67	5443.5	
758.85	4205.8	
759.03	4374.5	
759.21	5685.8	
759.39	5091.9	
759.57	3711.6	
759.75	4953.4	
759.92	6387.6	
760.1	5550	
760.28	5387.5	
760.46	5604.6	
760.64	5322.7	
760.82	4995	
760.99	5102.9	
761.17	4227.7	
761.35	6092	
761.53	5069.4	
761.71	4441.4	
761.89	5123.3	
762.06	6010.8	
762.24	5436	
762.42	4408.6	
762.6	4161.5	
762.78	5461.2	
762.96	6182.1	
763.13	4848.9	
763.31	4429.8	
763.49	6363.7	
763.67	5369.8	
763.85	5352	
764.02	5998.5	
764.2	6507.8	
764.38	5745.2	
764.56	4287.8	
764.74	5303.6	
764.91	6721.4	
765.09	5607.3	
765.27	3962.1	
765.45	3815.4	
765.63	6722.8	
765.8	6624.5	
765.98	3487	
766.16	3852.9	
766.34	5144.5	
766.52	4942.4	
766.69	4986.1	
766.87	3721.8	
767.05	5567.7	
767.23	6365.8	
767.41	4134.2	
767.58	4399	
767.76	6188.3	
767.94	6316.6	
768.12	4219.5	
768.29	4977.2	
768.47	5684.5	
768.65	6442.2	
768.83	3748.5	
769	5082.4	
769.18	5255.8	
769.36	6008.7	
769.54	5074.9	
769.72	3835.8	
769.89	6244.9	
770.07	6404	
770.25	4205.2	
770.43	5580	
770.6	7120.8	
770.78	7532.4	
770.96	4349.2	
771.14	5163.6	
771.31	6159.6	
771.49	5507.7	
771.67	3549.8	
771.85	3844	
772.02	4747.2	
772.2	5551.4	
772.38	4633.2	
772.55	4085	
772.73	5881.8	
772.91	5613.5	
773.09	4530.8	
773.26	4607.2	
773.44	5826.5	
773.62	5493.3	
773.8	4006.5	
773.97	3692.5	
774.15	5945.3	
774.33	5485.1	
774.5	3842.7	
774.68	4307.6	
774.86	5958.9	
775.04	5556.1	
775.21	3949.8	
775.39	4020.2	
775.57	5846.3	
775.74	6306.4	
775.92	3766.2	
776.1	3704.1	
776.27	5821.7	
776.45	7061.4	
776.63	4003.8	
776.81	3486.3	
776.98	5397.8	
777.16	6596.5	
777.34	4132.1	
777.51	4063.2	
777.69	5458.5	
777.87	5160.9	
778.04	4218.1	
778.22	4923.3	
778.4	5216.9	
778.57	5977.3	
778.75	3437.9	
778.93	3740.3	
779.1	4980	
779.28	4843.4	
779.46	3463.1	
779.64	4003.1	
779.81	6124.1	
779.99	7068.2	
780.17	4895.3	
780.34	5002.5	
780.52	5499.5	
780.69	5698.8	
780.87	4305.5	
781.05	3878.9	
781.22	5651	
781.4	5671.5	
781.58	4013.3	
781.75	3181.9	
781.93	5678.3	
782.11	5031.9	
782.28	5019.6	
782.46	4034.5	
782.64	4874.8	
782.81	5905	
782.99	4185.4	
783.17	4134.8	
783.34	5741.1	
783.52	4900.1	
783.69	4334.9	
783.87	5214.8	
784.05	4990.9	
784.22	5010	
784.4	5188.2	
784.58	4475.5	
784.75	6036	
784.93	5047.6	
785.1	4119.1	
785.28	4749.9	
785.46	5694	
785.63	5023	
785.81	4035.2	
785.99	3891.1	
786.16	5183.4	
786.34	5579.3	
786.51	3938.9	
786.69	4369.7	
786.87	4802.5	
787.04	5331.5	
787.22	3869.3	
787.39	4820.2	
787.57	4967	
787.75	6219.7	
787.92	5048.9	
788.1	4962.9	
788.27	5081.7	
788.45	4829.1	
788.63	4633.2	
788.8	3248.8	
788.98	5464	
789.15	4715.1	
789.33	3489.7	
789.5	4105.5	
789.68	6082.5	
789.86	6169.8	
790.03	4629.1	
790.21	3984	
790.38	5995.8	
790.56	5261.9	
790.73	3798.3	
790.91	3880.2	
791.09	5068	
791.26	5953.4	
791.44	4042	
791.61	3555.3	
791.79	5081	
791.96	5103.5	
792.14	3692.5	
792.32	3179.8	
792.49	5083.7	
792.67	5200.5	
792.84	3752.6	
793.02	3502	
793.19	5600.5	
793.37	6363	
793.54	3224.2	
793.72	3607.2	
793.89	6505	
794.07	5135.6	
794.25	4247.5	
794.42	3288.4	
794.6	6207.4	
794.77	5828.5	
794.95	4547.2	
795.12	3931.4	
795.3	5064.6	
795.47	5799.8	
795.65	4366.3	
795.82	4121.9	
796	4891.2	
796.17	6960.4	
796.35	3938.9	
796.52	4770.4	
796.7	5673.6	
796.87	5812.8	
797.05	5023	
797.22	4988.2	
797.4	5752.1	
797.57	6787	
797.75	4141	
797.92	3908.9	
798.1	6068.1	
798.27	5069.4	
798.45	3327.9	
798.62	3616.7	
798.8	5411.4	
798.97	5961.6	
799.15	4414.1	
799.32	4214	
799.5	4676.9	
799.67	5547.9	
799.85	4567.7	
800.02	3307.5	
800.2	5027.1	
800.37	5409.4	
800.55	4751.3	
800.72	3966.9	
800.9	5917.9	
801.07	6376	
801.25	5356.1	
801.42	4348.5	
801.6	5926.8	
801.77	5695.4	
801.95	4024.3	
802.12	3808.5	
802.29	5616.2	
802.47	5641.5	
802.64	4264.6	
802.82	3233.7	
802.99	4987.5	
803.17	6124.1	
803.34	4203.8	
803.52	3764.8	
803.69	6796.5	
803.87	4865.3	
804.04	4123.2	
804.21	4289.8	
804.39	6264.7	
804.56	5255.8	
804.74	3546.4	
804.91	4343.7	
805.09	5167	
805.26	5206.6	
805.44	3577.1	
805.61	3967.6	
805.78	5799.8	
805.96	5840.8	
806.13	4327.4	
806.31	4748.6	
806.48	4639.3	
806.66	5164.3	
806.83	4347.8	
807	4250.9	
807.18	5044.8	
807.35	5463.3	
807.53	4207.2	
807.7	3336.1	
807.87	6302.3	
808.05	5111	
808.22	4659.1	
808.4	3326.6	
808.57	5181.4	
808.74	4756.7	
808.92	3854.3	
809.09	4934.2	
809.27	5021.6	
809.44	5723.4	
809.61	3420.1	
809.79	3799.7	
809.96	6386.2	
810.14	5978.7	
810.31	3314.3	
810.48	4080.9	
810.66	5268.7	
810.83	6087.9	
811.01	3887	
811.18	4340.3	
811.35	5987.6	
811.53	4605.9	
811.7	4733.5	
811.87	4390.2	
812.05	5149.3	
812.22	5102.9	
812.39	3725.3	
812.57	3633.8	
812.74	5139	
812.92	6952.2	
813.09	4049.5	
813.26	4489.1	
813.44	6716	
813.61	5048.9	
813.78	3394.2	
813.96	4590.2	
814.13	5177.3	
814.3	4783.4	
814.48	4950.6	
814.65	4123.2	
814.82	6509.1	
815	4945.2	
815.17	4171.7	
815.34	5126.7	
815.52	5059.8	
815.69	5046.9	
815.87	4115.1	
816.04	3530.7	
816.21	5182	
816.38	4521.9	
816.56	4040	
816.73	3742.3	
816.9	6537.8	
817.08	5982.8	
817.25	3784.6	
817.42	4801.8	
817.6	4724	
817.77	5142.4	
817.94	4251.6	
818.12	3707.5	
818.29	4874.8	
818.46	7840.3	
818.64	3897.3	
818.81	3674.1	
818.98	4806.6	
819.16	7154.9	
819.33	4497.3	
819.5	4160.1	
819.67	5552	
819.85	6255.2	
820.02	4092.5	
820.19	4363.5	
820.37	5427.1	
820.54	4949.3	
820.71	4266.6	
820.88	5279.7	
821.06	5395	
821.23	4937	
821.4	4299.4	
821.58	4205.2	
821.75	5978.7	
821.92	5320.6	
822.09	3354.6	
822.27	3530.7	
822.44	5203.9	
822.61	5023	
822.79	3431.7	
822.96	6701.6	
823.13	5739.1	
823.3	4864.6	
823.48	4020.8	
823.65	3534.8	
823.82	5949.3	
823.99	4692.6	
824.17	5099.4	
824.34	3686.3	
824.51	6853.9	
824.68	5250.3	
824.86	3749.1	
825.03	4252.9	
825.2	5142.4	
825.37	6351.4	
825.55	3786.7	
825.72	4215.4	
825.89	7000.6	
826.06	6444.3	
826.24	4054.3	
826.41	4161.5	
826.58	6326.2	
826.75	5490.6	
826.92	3209.2	
827.1	3601.7	
827.27	8760.5	
827.44	6924.9	
827.61	3935.5	
827.79	4767	
827.96	4890.5	
828.13	5264	
828.3	4080.9	
828.47	3448.1	
828.65	5403.2	
828.82	5380	
828.99	5287.2	
829.16	4575.8	
829.34	5766.4	
829.51	5558.2	
829.68	4232.5	
829.85	4407.2	
830.02	6106.4	
830.2	5871.5	
830.37	3204.4	
830.54	5162.9	
830.71	6615.6	
830.88	5156.8	
831.05	3312.2	
831.23	3806.5	
831.4	6374.6	
831.57	7221.8	
831.74	3880.2	
831.91	3487.7	
832.09	5390.9	
832.26	5754.8	
832.43	3988.8	
832.6	4485.1	
832.77	5422.3	
832.94	6163	
833.12	3166.2	
833.29	4006.5	
833.46	5010.7	
833.63	7448.5	
833.8	4455	
833.97	4089.1	
834.15	5823.7	
834.32	5575.3	
834.49	4193.6	
834.66	4311	
834.83	6048.3	
835	4826.4	
835.17	3941.7	
835.35	3915.7	
835.52	5749.3	
835.69	5616.9	
835.86	4056.3	
836.03	3426.9	
836.2	5719.3	
836.37	5415.5	
836.55	4003.1	
836.72	3760.8	
836.89	5341.1	
837.06	5918.6	
837.23	4164.2	
837.4	4542.4	
837.57	6650.4	
837.75	7425.9	
837.92	3661.1	
838.09	3862.5	
838.26	5343.2	
838.43	6161.7	
838.6	4283.7	
838.77	3805.1	
838.94	6971.3	
839.11	6744	
839.29	4030.4	
839.46	3171.6	
839.63	5704.3	
839.8	5539.1	
839.97	3963.5	
840.14	3990.1	
840.31	5553.4	
840.48	5794.4	
840.65	3291.1	
840.82	3869.3	
841	5838.8	
841.17	5828.5	
841.34	3635.8	
841.51	3655.6	
841.68	5715.9	
841.85	5506.3	
842.02	3751.2	
842.19	3086.3	
842.36	5547.3	
842.53	5506.3	
842.7	3601.7	
842.87	4508.3	
843.05	7361.1	
843.22	5452.4	
843.39	3405.8	
843.56	3729.4	
843.73	5225.1	
843.9	5881.8	
844.07	5949.3	
844.24	4976.6	
844.41	8655.4	
844.58	5016.2	
844.75	3528	
844.92	3794.9	
845.09	5837.4	
845.26	5785.5	
845.43	3540.3	
845.6	3820.1	
845.77	5821.7	
845.94	5515.9	
846.12	3994.2	
846.29	4252.9	
846.46	5960.3	
846.63	5795.8	
846.8	3586.7	
846.97	4359.4	
847.14	6330.3	
847.31	5709.1	
847.48	4043.4	
847.65	4493.9	
847.82	6101.6	
847.99	6095.4	
848.16	4812	
848.33	4456.4	
848.5	5246.2	
848.67	6347.3	
848.84	3566.9	
849.01	3715	
849.18	5188.9	
849.35	4831.8	
849.52	4521.9	
849.69	3510.2	
849.86	6038.8	
850.03	6282.5	
850.2	3568.2	
850.37	4476.9	
850.54	6180.8	
850.71	5438	
850.88	4394.9	
851.05	3543.7	
851.22	5763	
851.39	6380.8	
851.56	3385.3	
851.73	4152.6	
851.9	5122	
852.07	6026.5	
852.24	3966.2	
852.41	3587.4	
852.58	5653.8	
852.75	5094.7	
852.92	4001.7	
853.09	3504.1	
853.26	5339.7	
853.43	6258.6	
853.6	3594.2	
853.77	3028.9	
853.94	6379.4	
854.11	5688.6	
854.28	5386.8	
854.44	3881.6	
854.61	6825.9	
854.78	6131.6	
854.95	3568.2	
855.12	4548.5	
855.29	4653	
855.46	6548	
855.63	3586.7	
855.8	5076.2	
855.97	5376.6	
856.14	6132.3	
856.31	5144.5	
856.48	3921.9	
856.65	5294	
856.82	5009.3	
856.99	3429	
857.16	3865.2	
857.33	7087.3	
857.49	5452.4	
857.66	3887.7	
857.83	4251.6	
858	5387.5	
858.17	5691.3	
858.34	3339.6	
858.51	3562.1	
858.68	6565.1	
858.85	6552.1	
859.02	4146.5	
859.19	4442.7	
859.36	4996.4	
859.52	5119.9	
859.69	3531.4	
859.86	4231.1	
860.03	5124.7	
860.2	6384.2	
860.37	3205.8	
860.54	3608.5	
860.71	6036	
860.88	6520	
861.05	4054.3	
861.21	4563.6	
861.38	6518	
861.55	4928.8	
861.72	3265.8	
861.89	4086.4	
862.06	6144.6	
862.23	6595.1	
862.4	3453.6	
862.56	3732.8	
862.73	5928.2	
862.9	5598.5	
863.07	4257	
863.24	3238.5	
863.41	4948.6	
863.58	5063.3	
863.75	3657.7	
863.91	4237.2	
864.08	6381.5	
864.25	5988.9	
864.42	4490.5	
864.59	5085.1	
864.76	6734.4	
864.93	5082.4	
865.09	3522.5	
865.26	3842	
865.43	6303.6	
865.6	6746.7	
865.77	3094.5	
865.94	3585.3	
866.1	6357.6	
866.27	6114.6	
866.44	5515.2	
866.61	3426.3	
866.78	5453.1	
866.95	5980.8	
867.11	3496.6	
867.28	3200.3	
867.45	6151.4	
867.62	5162.9	
867.79	4182.6	
867.96	3546.4	
868.12	5048.9	
868.29	6105	
868.46	3606.5	
868.63	4803.2	
868.8	6290.7	
868.97	6047.7	
869.13	3715	
869.3	3715	
869.47	5892.7	
869.64	6148	
869.81	3629.7	
869.97	3632.4	
870.14	5760.3	
870.31	6551.5	
870.48	3480.2	
870.65	4527.4	
870.81	5427.1	
870.98	5318.6	
871.15	4104.1	
871.32	3792.8	
871.48	5924.1	
871.65	6505	
871.82	3570.3	
871.99	3951.2	
872.16	7048.4	
872.32	6423.1	
872.49	3611.3	
872.66	3646.1	
872.83	6031.3	
872.99	5230.5	
873.16	4121.9	
873.33	3557.3	
873.5	5653.8	
873.67	5709.1	
873.83	3822.9	
874	4815.5	
874.17	5769.8	
874.34	6928.3	
874.5	4637.3	
874.67	4492.6	
874.84	6461.3	
875.01	5023	
875.17	5093.3	
875.34	3556.6	
875.51	5694	
875.68	6883.9	
875.84	4329.4	
876.01	5362.3	
876.18	5949.3	
876.34	5879.7	
876.51	3581.2	
876.68	3497.9	
876.85	5425.1	
877.01	6329.6	
877.18	5117.2	
877.35	3511.6	
877.52	5537	
877.68	4990.2	
877.85	3495.9	
878.02	3522.5	
878.18	5609.4	
878.35	5309	
878.52	2875.3	
878.69	4017.4	
878.85	6029.9	
879.02	5973.9	
879.19	5118.6	
879.35	3883.6	
879.52	5938.4	
879.69	6240.8	
879.86	3078.8	
880.02	4058.4	
880.19	5531.6	
880.36	6826.6	
880.52	4062.5	
880.69	4284.4	
880.86	6116.6	
881.02	6170.5	
881.19	4000.4	
881.36	3921.9	
881.52	5961	
881.69	5291.3	
881.86	3870.7	
882.02	3767.6	
882.19	6282.5	
882.36	7439.6	
882.52	3676.8	
882.69	5082.4	
882.86	5810.8	
883.02	5688.6	
883.19	4371.7	
883.36	4142.4	
883.52	6069.5	
883.69	6999.3	
883.86	3649.5	
884.02	3264.5	
884.19	6107	
884.36	5624.4	
884.52	4119.1	
884.69	3762.8	
884.86	5293.3	
885.02	6660	
885.19	4042	
885.36	4219.5	
885.52	5547.9	
885.69	5753.4	
885.86	5276.9	
886.02	4640.7	
886.19	6046.3	
886.35	5520.6	
886.52	3969	
886.69	5026.4	
886.85	5100.1	
887.02	6460	
887.19	6460	
887.35	6460	
887.52	6460	
887.68	6460	
887.85	6460	
888.02	6460	
888.18	6460	
888.35	6460	
888.51	6460	
888.68	6460	
888.85	6460	
889.01	6460	
889.18	6460	
889.35	6460	
889.51	6460	
889.68	6460	
889.84	6460	
890.01	6460	
890.17	6460	
890.34	6460	
890.51	6460	
890.67	6460	
890.84	6460	
891	6460	
891.17	6460	
891.34	6460	
891.5	6460	
891.67	6460	
891.83	6460	
892	6460	
892.16	6460	
892.33	6460	
892.5	6460	
892.66	6460	
892.83	6460	
892.99	6460	
893.16	6460	
893.32	6460	
893.49	6460	
893.65	6460	
893.82	6460	
893.99	6460	
894.15	6460	
894.32	6460	
894.48	6460	
894.65	6460	
894.81	6460	
894.98	6460	
895.14	6460	
895.31	6460	
895.47	6460	
895.64	6460	
895.81	6460	
895.97	6460	
896.14	6460	
896.3	6460	
896.47	6460	
896.63	6460	
896.8	6460	
896.96	6460	
897.13	6460	
897.29	6460	
897.46	6460	
897.62	6460	
897.79	6460	
897.95	6460	
898.12	6460	
898.28	6460	
898.45	6460	
898.61	6460	
898.78	6460	
898.94	6460	
899.11	6460	
899.27	6460	
899.44	6460	
899.6	6460	
899.77	6460	
899.93	6460	
900.1	6460	
900.26	6460	
900.43	6460	
900.59	6460	
900.76	6460	
900.92	6460	
901.09	6460	
901.25	6460	
901.42	6460	
901.58	6460	
901.75	6460	
901.91	6460	
902.07	6460	
902.24	6460	
902.4	6460	
902.57	6460	
902.73	6460	
902.9	6460	
903.06	6460	
903.23	6460	
903.39	6460	
903.56	6460	
903.72	6460	
903.88	6460	
904.05	6460	
904.21	6460	
904.38	6460	
904.54	6460	
904.71	6460	
904.87	6460	
905.03	6460	
905.2	6460	
905.36	6460	
905.53	6460	
905.69	6460	
905.86	6460	
906.02	6460	
906.18	6460	
906.35	6460	
906.51	6460	
906.68	6460	
906.84	6460	
907.01	6460	
907.17	6460	
907.33	6460	
907.5	6460	
907.66	6460	
907.83	6460	
907.99	6460	
908.15	6460	
908.32	6460	
908.48	6460	
908.65	6460	
908.81	6460	
908.97	6460	
909.14	6460	
909.3	6460	
909.47	6460	
909.63	6460	
909.79	6460	
909.96	6460	
910.12	6460	
910.28	6460	
910.45	6460	
910.61	6460	
910.78	6460	
910.94	6460	
911.1	6460	
911.27	6460	
911.43	6460	
911.59	6460	
911.76	6460	
911.92	6460	
912.08	6460	
912.25	6460	
912.41	6460	
912.57	6460	
912.74	6460	
912.9	6460	
913.07	6460	
913.23	6460	
913.39	6460	
913.56	6460	
913.72	6460	
913.88	6460	
914.05	6460	
914.21	6460	
914.37	6460	
914.54	6460	
914.7	6460	
914.86	6460	
915.03	6460	
915.19	6460	
