Wavelength	Intensities	
nm	a.u.	
179.22	1929.7	
179.44	1933.6	
179.65	1925.8	
179.86	1941.5	
180.08	1903.2	
180.29	5087.2	
180.51	3534.1	
180.72	5687.9	
180.94	6683.2	
181.15	3329.3	
181.37	3201.7	
181.58	5546.6	
181.79	5844.2	
182.01	3437.9	
182.22	3758	
182.44	5896.1	
182.65	4859.1	
182.87	4693.9	
183.08	4025.6	
183.29	6134.3	
183.51	5055.8	
183.72	3716.4	
183.94	5440.8	
184.15	5466	
184.37	5469.4	
184.58	3267.9	
184.79	4533.5	
185.01	5035.3	
185.22	5920.7	
185.44	4748.6	
185.65	4014.7	
185.86	5392.3	
186.08	4975.9	
186.29	3177.1	
186.51	3452.2	
186.72	5084.4	
186.94	6029.2	
187.15	3994.9	
187.36	4119.8	
187.58	7919.5	
187.79	5629.9	
188.01	4355.3	
188.22	6716.7	
188.43	6764.4	
188.65	5813.5	
188.86	3373.7	
189.08	4115.1	
189.29	5270.1	
189.5	5279.7	
189.72	3848.1	
189.93	3871.3	
190.15	6083.1	
190.36	7280.5	
190.57	4232.5	
190.79	4044.1	
191	6139.8	
191.22	6038.8	
191.43	4236.6	
191.64	3383.2	
191.86	6384.9	
192.07	6049.7	
192.29	3598.3	
192.5	3798.3	
192.71	6084.5	
192.93	5203.2	
193.14	3759.4	
193.35	3874.8	
193.57	5244.8	
193.78	6081.1	
194	3037.1	
194.21	3748.5	
194.42	4936.3	
194.64	5515.9	
194.85	4140.3	
195.07	4854.4	
195.28	5549.3	
195.49	4717.8	
195.71	5086.5	
195.92	3526.6	
196.13	5700.2	
196.35	5790.3	
196.56	5392.3	
196.78	4037.2	
196.99	7202.7	
197.2	6782.2	
197.42	4717.8	
197.63	4129.4	
197.84	4874.8	
198.06	5664.7	
198.27	3771.7	
198.48	5118.6	
198.7	5219.6	
198.91	5327.4	
199.13	4117.8	
199.34	4189.5	
199.55	5903.6	
199.77	4707.6	
199.98	3629.7	
200.19	4198.3	
200.41	5379.3	
200.62	5127.4	
200.83	4350.6	
201.05	4681	
201.26	5356.8	
201.47	5093.3	
201.69	3695.9	
201.9	3544.4	
202.11	5425.1	
202.33	6509.1	
202.54	3893.2	
202.76	4386.1	
202.97	5628.5	
203.18	5609.4	
203.4	4283	
203.61	4220.9	
203.82	5537	
204.04	5116.5	
204.25	4194.9	
204.46	4063.9	
204.68	5487.2	
204.89	5712.5	
205.1	4104.8	
205.32	3530	
205.53	5940.5	
205.74	6001.9	
205.96	2973	
206.17	4227.7	
206.38	5879	
206.6	6024.4	
206.81	4739	
207.02	3860.4	
207.24	5721.3	
207.45	6177.4	
207.66	3946.4	
207.88	3374.4	
208.09	5682.4	
208.3	5477	
208.52	3601	
208.73	3992.2	
208.94	5555.5	
209.15	6241.5	
209.37	3953.9	
209.58	4184	
209.79	6051.1	
210.01	5301.5	
210.22	3149.1	
210.43	3315	
210.65	5500.8	
210.86	5895.4	
211.07	3983.3	
211.29	3618.8	
211.5	5909.8	
211.71	5455.8	
211.93	3621.5	
212.14	3571.7	
212.35	5400.5	
212.56	5681.1	
212.78	4180.6	
212.99	3416	
213.2	6434	
213.42	5240.1	
213.63	3753.9	
213.84	4006.5	
214.06	4845.5	
214.27	4941.7	
214.48	3931.4	
214.69	4242	
214.91	6201.2	
215.12	6275	
215.33	4265.2	
215.55	4728.1	
215.76	6769.9	
215.97	5862	
216.18	4094.6	
216.4	3993.5	
216.61	5171.8	
216.82	5988.9	
217.04	3629	
217.25	3826.3	
217.46	6201.2	
217.67	5928.9	
217.89	3264.5	
218.1	3353.9	
218.31	5582.8	
218.53	5639.4	
218.74	3786.7	
218.95	3741.6	
219.16	5467.4	
219.38	6409.5	
219.59	3720.5	
219.8	4391.5	
220.01	7186.3	
220.23	5512.4	
220.44	4870.8	
220.65	3543.7	
220.87	5593	
221.08	6081.1	
221.29	3319.1	
221.5	4593.6	
221.72	7553.6	
221.93	5243.5	
222.14	4182	
222.35	4914.4	
222.57	5545.9	
222.78	5854.5	
222.99	3951.9	
223.2	4300.7	
223.42	5854.5	
223.63	5969.8	
223.84	3040.6	
224.05	3045.3	
224.27	7101.7	
224.48	6386.9	
224.69	4952.7	
224.9	4160.8	
225.12	5709.1	
225.33	5479.7	
225.54	3286.3	
225.75	3703.4	
225.97	5077.6	
226.18	5310.4	
226.39	3989.4	
226.6	3685	
226.82	5263.3	
227.03	5062.6	
227.24	4187.4	
227.45	3428.3	
227.67	5863.3	
227.88	6489.3	
228.09	4670.1	
228.3	4659.1	
228.52	5920	
228.73	5485.1	
228.94	3816.7	
229.15	3452.9	
229.36	5391.6	
229.58	5347.2	
229.79	3885	
230	4587.4	
230.21	6586.3	
230.43	5642.8	
230.64	4076.8	
230.85	4341.7	
231.06	5913.9	
231.28	5954.8	
231.49	3416	
231.7	4009.9	
231.91	5778	
232.12	5567.1	
232.34	3490.4	
232.55	3988.1	
232.76	6169.8	
232.97	5713.8	
233.18	3664.5	
233.4	4070	
233.61	5731.6	
233.82	5194.3	
234.03	3801	
234.25	3798.3	
234.46	7692.9	
234.67	5635.3	
234.88	4184	
235.09	3692.5	
235.31	5839.4	
235.52	5393	
235.73	4113	
235.94	3404.4	
236.15	5207.3	
236.37	6694.8	
236.58	3641.3	
236.79	3984.7	
237	5787.6	
237.21	4949.3	
237.43	4289.8	
237.64	3342.3	
237.85	10144	
238.06	5010.7	
238.27	4385.4	
238.48	3491.8	
238.7	5890.6	
238.91	5333.6	
239.12	4025.6	
239.33	4046.8	
239.54	5033.9	
239.76	5452.4	
239.97	3936.2	
240.18	3928	
240.39	6930.3	
240.6	5799.8	
240.82	4080.9	
241.03	3360	
241.24	5388.2	
241.45	6399.2	
241.66	3650.2	
241.87	4288.4	
242.09	6240.8	
242.3	6706.4	
242.51	4325.3	
242.72	4015.4	
242.93	5975.3	
243.14	5486.5	
243.36	4590.9	
243.57	4937.7	
243.78	6352.8	
243.99	5921.4	
244.2	4018.1	
244.41	3631.7	
244.63	5007.3	
244.84	5868.1	
245.05	4252.3	
245.26	3978.5	
245.47	5763.7	
245.68	5999.9	
245.9	5334.3	
246.11	4160.8	
246.32	5278.3	
246.53	5717.9	
246.74	6432.7	
246.95	3347.7	
247.16	4924	
247.38	5489.9	
247.59	3300	
247.8	4031.1	
248.01	5179.3	
248.22	5485.1	
248.43	3600.3	
248.64	3893.9	
248.86	4900.8	
249.07	5232.6	
249.28	3472	
249.49	4041.3	
249.7	6042.9	
249.91	6197.8	
250.12	3336.8	
250.34	3324.5	
250.55	5585.5	
250.76	5513.8	
250.97	4153.3	
251.18	4143.7	
251.39	6203.3	
251.6	5702.9	
251.81	4254.3	
252.03	4173.1	
252.24	5212.8	
252.45	6067.4	
252.66	3472	
252.87	4342.4	
253.08	5485.1	
253.29	7412.3	
253.5	3437.9	
253.72	4860.5	
253.93	5363.6	
254.14	6560.3	
254.35	3792.8	
254.56	3902.7	
254.77	5776.6	
254.98	5042.1	
255.19	3667.2	
255.41	4816.8	
255.62	5615.5	
255.83	6197.8	
256.04	4283	
256.25	4201.1	
256.46	6769.9	
256.67	5100.1	
256.88	4106.9	
257.09	4595.6	
257.31	5164.3	
257.52	5171.1	
257.73	5139	
257.94	3744.4	
258.15	5324	
258.36	5513.1	
258.57	4803.2	
258.78	3001	
258.99	5999.2	
259.2	5289.2	
259.41	3795.6	
259.63	3902.7	
259.84	6374.6	
260.05	6870.3	
260.26	5037.3	
260.47	3720.5	
260.68	6068.8	
260.89	5432.6	
261.1	4654.4	
261.31	3630.4	
261.52	6053.1	
261.73	6449.7	
261.95	4939	
262.16	4321.2	
262.37	6257.2	
262.58	6319.3	
262.79	4897.4	
263	3871.3	
263.21	5520.6	
263.42	4981.3	
263.63	3943	
263.84	3847.5	
264.05	6036.7	
264.26	6539.2	
264.47	4743.8	
264.69	4324.6	
264.9	6212.9	
265.11	5737	
265.32	3702	
265.53	3749.8	
265.74	5576.6	
265.95	4871.4	
266.16	4074.1	
266.37	4502.1	
266.58	5612.8	
266.79	5299.5	
267	3796.3	
267.21	3465.8	
267.42	5063.3	
267.63	5439.4	
267.84	3982.6	
268.06	3390.8	
268.27	5972.6	
268.48	6294.1	
268.69	3845.4	
268.9	4658.4	
269.11	6270.2	
269.32	4943.1	
269.53	4018.1	
269.74	3719.1	
269.95	5884.5	
270.16	4876.2	
270.37	4000.4	
270.58	4648.9	
270.79	5346.6	
271	6092	
271.21	4275.5	
271.42	4070	
271.63	5615.5	
271.84	5091.3	
272.05	3155.2	
272.26	3576.4	
272.47	5565	
272.68	5689.3	
272.89	3795.6	
273.11	4455.7	
273.32	5306.3	
273.53	6489.3	
273.74	4298.7	
273.95	4248.2	
274.16	6145.3	
274.37	5614.2	
274.58	4420.9	
274.79	3484.3	
275	5571.2	
275.21	6219	
275.42	5232.6	
275.63	4560.1	
275.84	5761.6	
276.05	7359	
276.26	4213.4	
276.47	3931.4	
276.68	5366.4	
276.89	6590.4	
277.1	4484.4	
277.31	3454.2	
277.52	5795.8	
277.73	5892.7	
277.94	3432.4	
278.15	3805.8	
278.36	5740.5	
278.57	5171.1	
278.78	3761.4	
278.99	4291.9	
279.2	5091.9	
279.41	5080.3	
279.62	5005.9	
279.83	3540.9	
280.04	6747.4	
280.25	4995.7	
280.46	4969.7	
280.67	3995.6	
280.88	5134.3	
281.09	6222.4	
281.3	4165.6	
281.51	5336.3	
281.72	5208.7	
281.93	6002.6	
282.14	3744.4	
282.35	4054.3	
282.56	6060.6	
282.77	6054.5	
282.98	3848.8	
283.19	4707.6	
283.4	7379.5	
283.61	5419.6	
283.82	3450.1	
284.03	4965.6	
284.24	5616.9	
284.45	6234.7	
284.66	4982.7	
284.87	4773.1	
285.08	6099.5	
285.29	6217	
285.5	3403	
285.71	3937.6	
285.92	6107	
286.12	6805.4	
286.33	4874.2	
286.54	3857	
286.75	5967.8	
286.96	5351.3	
287.17	3544.4	
287.38	4874.2	
287.59	5121.3	
287.8	5009.3	
288.01	3915.7	
288.22	4512.4	
288.43	6014.2	
288.64	4976.6	
288.85	4662.5	
289.06	4403.8	
289.27	5933	
289.48	6487.3	
289.69	5014.1	
289.9	4468.7	
290.11	6163	
290.32	5179.3	
290.53	4715.8	
290.74	4317.8	
290.94	5952.1	
291.15	6064.7	
291.36	3784	
291.57	4457.7	
291.78	5298.1	
291.99	4868	
292.2	3545	
292.41	4356	
292.62	6096.8	
292.83	5857.9	
293.04	5329.5	
293.25	3558.7	
293.46	5297.4	
293.67	6126.2	
293.88	3730.7	
294.09	3560.7	
294.29	5017.5	
294.5	5670.1	
294.71	4027.7	
294.92	3796.9	
295.13	5296	
295.34	6650.4	
295.55	3383.9	
295.76	3453.6	
295.97	5963	
296.18	6722.8	
296.39	3530.7	
296.6	3815.4	
296.81	5616.9	
297.01	5969.1	
297.22	3934.8	
297.43	3693.2	
297.64	5165.7	
297.85	5112.4	
298.06	3054.9	
298.27	3307.5	
298.48	5534.3	
298.69	5199.8	
298.9	4044.1	
299.11	3661.1	
299.31	4993.6	
299.52	5047.6	
299.73	4330.8	
299.94	4279.6	
300.15	5499.5	
300.36	5160.9	
300.57	4247.5	
300.78	4262.5	
300.99	5352	
301.2	5661.3	
301.4	3694.5	
301.61	4081.6	
301.82	5856.5	
302.03	5991	
302.24	4612.7	
302.45	3538.9	
302.66	5844.2	
302.87	6272.2	
303.08	3741.6	
303.29	5088.5	
303.49	5217.5	
303.7	5569.8	
303.91	3300.6	
304.12	4851	
304.33	4985.4	
304.54	5657.2	
304.75	3751.2	
304.96	3575.8	
305.16	5775.3	
305.37	6591.7	
305.58	3198.9	
305.79	3435.1	
306	5868.8	
306.21	4926.7	
306.42	3619.4	
306.63	5886.5	
306.83	5345.9	
307.04	6119.3	
307.25	4134.2	
307.46	4144.4	
307.67	4708.3	
307.88	6012.8	
308.09	3650.8	
308.29	3819.5	
308.5	5588.9	
308.71	6156.2	
308.92	4031.8	
309.13	3577.1	
309.34	5347.2	
309.55	5408.7	
309.75	4678.2	
309.96	4334.9	
310.17	5950.7	
310.38	5213.4	
310.59	4506.2	
310.8	4191.5	
311.01	5331.5	
311.21	5416.9	
311.42	3493.2	
311.63	3720.5	
311.84	5226.4	
312.05	5664.7	
312.26	4174.4	
312.46	4571.7	
312.67	5360.2	
312.88	5102.2	
313.09	3654.9	
313.3	3525.9	
313.51	6342.6	
313.71	6705	
313.92	3577.1	
314.13	3786	
314.34	5758.9	
314.55	5401.9	
314.76	4681.7	
314.96	4026.3	
315.17	5575.9	
315.38	5952.8	
315.59	3642.7	
315.8	3450.8	
316.01	6447	
316.21	6491.4	
316.42	3435.8	
316.63	4003.8	
316.84	5345.2	
317.05	6262	
317.26	4312.3	
317.46	3863.8	
317.67	5462.6	
317.88	5926.1	
318.09	4601.1	
318.3	3343	
318.5	5182.7	
318.71	5849.7	
318.92	5919.3	
319.13	4288.4	
319.34	6039.5	
319.54	6154.8	
319.75	3348.4	
319.96	3196.9	
320.17	5859.9	
320.38	6155.5	
320.58	3229.6	
320.79	3954.6	
321	6085.9	
321.21	6258.6	
321.42	4053.6	
321.62	3295.2	
321.83	5038.7	
322.04	5479	
322.25	3796.3	
322.46	3624.2	
322.66	5642.2	
322.87	5794.4	
323.08	4457.1	
323.29	3599	
323.5	6578.1	
323.7	5094.7	
323.91	4961.5	
324.12	4488.5	
324.33	5544.5	
324.53	5889.3	
324.74	4256.4	
324.95	4526.7	
325.16	4921.3	
325.37	5347.9	
325.57	3582.6	
325.78	3684.3	
325.99	5563.6	
326.2	4981.3	
326.4	5066	
326.61	3312.2	
326.82	5428.5	
327.03	5629.2	
327.24	5152	
327.44	4961.5	
327.65	5810.1	
327.86	4695.3	
328.07	4261.1	
328.27	3453.6	
328.48	6193.1	
328.69	5071.5	
328.9	5260.5	
329.1	3891.1	
329.31	5411.4	
329.52	6380.8	
329.73	3551.9	
329.93	4144.4	
330.14	5477	
330.35	5778	
330.56	5971.2	
330.76	4465.9	
330.97	5368.4	
331.18	5710.4	
331.39	4005.1	
331.59	3231	
331.8	6135.7	
332.01	6284.5	
332.22	3732.8	
332.42	4271.4	
332.63	5614.8	
332.84	5154.1	
333.05	4043.4	
333.25	3700.7	
333.46	5256.5	
333.67	5552.7	
333.88	3803.1	
334.08	4235.9	
334.29	7433.4	
334.5	6171.9	
334.7	3540.3	
334.91	5212.8	
335.12	5078.3	
335.33	5970.5	
335.53	4029.7	
335.74	5958.9	
335.95	5230.5	
336.16	5158.2	
336.36	4059.1	
336.57	4618.9	
336.78	5009.3	
336.98	6161	
337.19	4975.9	
337.4	3948.5	
337.61	6698.9	
337.81	5057.1	
338.02	3741	
338.23	4826.4	
338.43	6296.8	
338.64	5147.2	
338.85	3618.1	
339.05	4801.1	
339.26	6385.6	
339.47	4943.1	
339.68	3643.3	
339.88	5431.2	
340.09	5763.7	
340.3	5988.3	
340.5	4255.7	
340.71	3212.6	
340.92	5005.2	
341.13	6309.8	
341.33	3512.9	
341.54	4315.8	
341.75	5726.1	
341.95	5364.3	
342.16	4063.2	
342.37	4397.7	
342.57	5089.2	
342.78	5464.7	
342.99	4552	
343.19	3250.1	
343.4	6049	
343.61	5828.5	
343.81	3888.4	
344.02	3616	
344.23	5968.5	
344.43	6420.4	
344.64	4534.2	
344.85	4415.4	
345.06	5838.8	
345.26	6193.7	
345.47	4190.8	
345.68	4899.4	
345.88	4796.3	
346.09	6032.6	
346.3	4275.5	
346.5	3222.1	
346.71	5573.9	
346.92	5226.4	
347.12	3310.9	
347.33	4201.1	
347.54	5988.9	
347.74	6511.9	
347.95	4189.5	
348.16	3140.9	
348.36	5286.5	
348.57	5113.8	
348.78	4121.9	
348.98	4515.1	
349.19	5431.9	
349.39	5002.5	
349.6	3310.9	
349.81	3667.9	
350.01	5738.4	
350.22	5195	
350.43	4001.7	
350.63	4896.7	
350.84	5616.2	
351.05	5325.4	
351.25	3669.3	
351.46	3276.1	
351.67	6176	
351.87	5208	
352.08	3882.3	
352.29	4461.8	
352.49	6034.7	
352.7	5675.6	
352.9	3556	
353.11	4462.5	
353.32	6703	
353.52	5337.7	
353.73	3516.4	
353.94	4518.5	
354.14	5800.5	
354.35	5722.7	
354.55	3618.8	
354.76	4109.6	
354.97	5927.5	
355.17	5592.3	
355.38	3456.3	
355.59	4851.6	
355.79	5204.6	
356	5657.9	
356.2	4001.7	
356.41	3506.1	
356.62	4922.6	
356.82	5464	
357.03	4308.2	
357.24	3852.9	
357.44	5258.5	
357.65	5402.5	
357.85	5230.5	
358.06	4046.1	
358.27	4893.3	
358.47	5272.2	
358.68	3348.4	
358.88	4274.1	
359.09	5806	
359.3	6236.1	
359.5	5046.9	
359.71	4379.2	
359.91	6730.3	
360.12	5986.2	
360.33	4262.5	
360.53	4779.3	
360.74	5218.9	
360.94	5283.8	
361.15	4495.3	
361.36	3721.8	
361.56	6025.1	
361.77	5481	
361.97	4994.3	
362.18	3919.8	
362.38	6118	
362.59	5171.1	
362.8	3630.4	
363	3460.4	
363.21	4906.9	
363.41	5606.7	
363.62	4156.7	
363.83	5307	
364.03	5683.1	
364.24	6701.6	
364.44	5353.4	
364.65	5373.2	
364.85	5446.2	
365.06	5033.2	
365.27	3804.4	
365.47	3818.1	
365.68	6498.2	
365.88	5367	
366.09	4216.1	
366.29	3926.6	
366.5	5728.9	
366.71	6053.8	
366.91	5332.9	
367.12	4418.8	
367.32	6776.7	
367.53	5895.4	
367.73	4360.8	
367.94	5338.4	
368.14	5864	
368.35	6906.4	
368.56	4329.4	
368.76	3685.7	
368.97	6020.3	
369.17	7752.9	
369.38	3782.6	
369.58	4087.1	
369.79	5070.8	
369.99	6441.5	
370.2	5170.4	
370.4	4241.3	
370.61	5756.8	
370.82	7003.4	
371.02	4090.5	
371.23	3345	
371.43	4933.6	
371.64	6341.2	
371.84	4182	
372.05	5410.7	
372.25	7767.9	
372.46	6111.1	
372.66	4128.7	
372.87	4088.4	
373.07	6150.7	
373.28	7782.3	
373.48	5147.9	
373.69	4863.9	
373.9	5547.3	
374.1	5583.4	
374.31	5142.4	
374.51	4676.2	
374.72	6484.6	
374.92	5216.9	
375.13	5305.6	
375.33	4479.6	
375.54	6009.4	
375.74	5418.2	
375.95	4535.6	
376.15	5889.3	
376.36	5930.9	
376.56	5880.4	
376.77	4655	
376.97	5065.3	
377.18	7077.1	
377.38	6141.9	
377.59	5417.6	
377.79	4037.9	
378	5836	
378.2	6349.4	
378.41	4088.4	
378.61	4029	
378.82	6359.6	
379.02	5378	
379.23	4231.1	
379.43	5468.1	
379.64	6408.1	
379.84	6040.1	
380.05	4110.3	
380.25	4007.2	
380.46	6145.3	
380.66	5682.4	
380.87	5498.1	
381.07	5829.9	
381.28	6771.3	
381.48	6105	
381.69	4148.5	
381.89	4175.8	
382.1	5040.7	
382.3	6369.2	
382.51	5337	
382.71	6272.2	
382.91	6180.1	
383.12	6678.4	
383.32	4456.4	
383.53	4810.7	
383.73	6049	
383.94	5775.3	
384.14	4612.7	
384.35	3677.5	
384.55	5687.2	
384.76	6121.4	
384.96	4478.9	
385.17	4775.2	
385.37	6116.6	
385.58	5392.3	
385.78	4911.7	
385.98	3611.9	
386.19	5638.7	
386.39	6005.3	
386.6	4246.1	
386.8	4459.1	
387.01	6171.2	
387.21	6154.1	
387.42	4955.4	
387.62	5591.6	
387.83	5380	
388.03	6223.8	
388.23	4536.3	
388.44	5453.7	
388.64	5115.8	
388.85	5281.7	
389.05	4958.1	
389.26	5670.1	
389.46	7186.3	
389.67	6588.3	
389.87	4889.2	
390.07	4967	
390.28	5819	
390.48	5326.8	
390.69	4163.5	
390.89	4462.5	
391.1	5535.7	
391.3	6501.6	
391.5	5702.2	
391.71	6348	
391.91	6244.3	
392.12	7358.4	
392.32	5795.8	
392.53	4902.2	
392.73	5552	
392.93	5807.4	
393.14	4585.4	
393.34	5413.5	
393.55	6331	
393.75	5755.5	
393.95	4600.4	
394.16	4524	
394.36	5505.6	
394.57	6321.4	
394.77	4055	
394.98	4496	
395.18	5545.2	
395.38	5745.2	
395.59	5494	
395.79	4313.7	
396	5646.2	
396.2	6155.5	
396.4	5210	
396.61	5109.7	
396.81	6375.3	
397.02	5585.5	
397.22	5458.5	
397.42	5524.7	
397.63	6362.4	
397.83	5470.1	
398.04	4231.8	
398.24	4797	
398.44	6053.8	
398.65	5117.2	
398.85	4108.9	
399.05	4257	
399.26	5423	
399.46	7312.6	
399.67	4607.2	
399.87	4321.2	
400.07	5833.3	
400.28	6264.1	
400.48	4429.1	
400.69	5449	
400.89	7005.4	
401.09	6902.3	
401.3	4334.2	
401.5	5519.3	
401.7	7301.7	
401.91	7498.3	
402.11	4611.3	
402.32	4898.7	
402.52	6472.9	
402.72	6395.8	
402.93	5012.1	
403.13	3807.2	
403.33	7197.9	
403.54	5866.7	
403.74	4740.4	
403.94	5756.8	
404.15	6013.5	
404.35	7224.6	
404.56	4586.8	
404.76	6591	
404.96	6507.1	
405.17	6279.1	
405.37	5997.8	
405.57	5134.3	
405.78	6576.7	
405.98	5887.9	
406.18	4569.7	
406.39	5508.4	
406.59	6425.2	
406.79	6041.5	
407	4352.6	
407.2	4505.5	
407.4	6534.4	
407.61	6715.3	
407.81	4597	
408.01	7109.2	
408.22	5427.8	
408.42	7615.7	
408.62	5744.6	
408.83	5131.5	
409.03	6067.4	
409.23	5848.3	
409.44	5205.9	
409.64	5612.8	
409.84	6992.4	
410.05	6942.6	
410.25	5323.4	
410.45	5084.4	
410.66	6383.5	
410.86	9063.6	
411.06	5521.3	
411.27	5360.2	
411.47	8733.9	
411.67	6587	
411.88	5681.1	
412.08	5890.6	
412.28	7311.2	
412.49	7771.4	
412.69	5299.5	
412.89	5383.4	
413.09	7603.4	
413.3	7449.8	
413.5	5397.8	
413.7	4975.9	
413.91	6593.8	
414.11	7613	
414.31	5276.3	
414.52	5721.3	
414.72	7180.9	
414.92	7090.8	
415.12	5268.7	
415.33	5819.6	
415.53	7451.9	
415.73	7681.2	
415.94	6165.1	
416.14	5560.9	
416.34	6399.9	
416.55	6172.6	
416.75	6883.9	
416.95	6217	
417.15	7484	
417.36	8257.4	
417.56	7025.2	
417.76	6025.8	
417.97	7933.1	
418.17	7499	
418.37	5582.1	
418.57	5638.1	
418.78	7193.8	
418.98	6881.2	
419.18	6522.8	
419.38	6474.3	
419.59	6975.4	
419.79	6516	
419.99	5494	
420.2	5982.8	
420.4	7511.3	
420.6	7680.6	
420.8	5491.3	
421.01	5302.2	
421.21	7295.5	
421.41	7573.4	
421.61	5913.9	
421.82	5479.7	
422.02	6720.1	
422.22	7740.6	
422.42	6375.3	
422.63	5999.9	
422.83	6954.2	
423.03	8095.6	
423.23	5980.8	
423.44	4863.2	
423.64	6976.7	
423.84	6773.3	
424.04	5388.2	
424.25	5036.6	
424.45	7972.7	
424.65	7840.3	
424.85	4876.2	
425.06	5481	
425.26	7871	
425.46	6475.7	
425.66	5962.3	
425.87	5594.4	
426.07	7679.9	
426.27	7479.9	
426.47	5752.7	
426.67	5104.2	
426.88	8036.9	
427.08	7379.5	
427.28	5988.3	
427.48	5012.7	
427.69	6158.2	
427.89	6973.3	
428.09	6129.6	
428.29	5040.7	
428.5	7740.6	
428.7	7197.2	
428.9	5000.5	
429.1	5640.8	
429.3	7070.3	
429.51	7504.4	
429.71	5279	
429.91	6117.3	
430.11	7332.4	
430.31	7664.2	
430.52	5582.8	
430.72	5957.5	
430.92	7987.8	
431.12	7438.9	
431.32	5306.3	
431.53	5687.9	
431.73	6202.6	
431.93	8118.8	
432.13	5207.3	
432.33	5092.6	
432.54	6764.4	
432.74	7180.2	
432.94	5012.1	
433.14	6126.8	
433.34	7256	
433.55	6834.8	
433.75	6012.2	
433.95	7905.8	
434.15	7040.2	
434.35	6773.3	
434.56	5132.9	
434.76	4672.1	
434.96	7019.8	
435.16	7341.3	
435.36	5046.2	
435.56	6175.3	
435.77	6630	
435.97	6833.4	
436.17	6965.1	
436.37	6171.9	
436.57	6690	
436.78	6550.8	
436.98	7296.9	
437.18	6789	
437.38	7336.5	
437.58	6893.5	
437.78	6934.4	
437.99	5449.6	
438.19	7408.9	
438.39	8191.2	
438.59	5321.3	
438.79	4898.7	
438.99	8013	
439.2	6917.4	
439.4	5039.4	
439.6	5060.5	
439.8	7335.8	
440	8408.3	
440.2	6150.1	
440.4	6270.9	
440.61	7611.6	
440.81	8269.7	
441.01	5243.5	
441.21	6165.8	
441.41	7994.6	
441.61	7490.8	
441.81	6503	
442.02	7459.4	
442.22	8487.5	
442.42	7635.5	
442.62	5190.9	
442.82	5320.6	
443.02	8032.8	
443.22	7099.6	
443.43	5795.8	
443.63	5251.7	
443.83	6855.2	
444.03	6993.8	
444.23	6577.4	
444.43	6178	
444.63	7153.6	
444.83	8501.1	
445.04	5349.3	
445.24	6724.8	
445.44	7518.8	
445.64	7600	
445.84	6111.8	
446.04	6146	
446.24	6846.4	
446.44	7939.3	
446.65	5397.1	
446.85	5751.4	
447.05	7155.6	
447.25	8012.3	
447.45	5909.1	
447.65	5142.4	
447.85	7218.4	
448.05	6873.7	
448.25	6333.7	
448.46	6025.1	
448.66	7243	
448.86	6961.7	
449.06	4969.7	
449.26	6277.7	
449.46	7622.5	
449.66	6507.8	
449.86	5733.6	
450.06	5709.7	
450.26	6806.1	
450.47	7408.9	
450.67	5982.8	
450.87	6351.4	
451.07	7494.2	
451.27	7258	
451.47	5280.3	
451.67	5834	
451.87	6833.4	
452.07	8142	
452.27	5502.2	
452.47	5422.3	
452.67	7157.7	
452.88	7873.1	
453.08	4790.9	
453.28	6950.8	
453.48	8511.4	
453.68	7102.4	
453.88	5408	
454.08	5638.7	
454.28	7630.7	
454.48	7283.9	
454.68	6221.7	
454.88	6846.4	
455.08	7720.2	
455.28	7410.9	
455.48	5230.5	
455.68	5844.2	
455.89	8151.6	
456.09	7775.5	
456.29	5520.6	
456.49	5660.6	
456.69	8014.4	
456.89	7198.6	
457.09	6242.9	
457.29	6598.6	
457.49	7580.9	
457.69	7726.3	
457.89	6045.6	
458.09	5340.4	
458.29	7271.7	
458.49	7980.9	
458.69	6339.1	
458.89	5753.4	
459.09	8210.3	
459.29	8487.5	
459.49	5791	
459.69	6696.9	
459.9	7771.4	
460.1	7258	
460.3	5737	
460.5	5512.4	
460.7	7757.7	
460.9	7458	
461.1	5192.3	
461.3	6543.3	
461.5	8475.9	
461.7	7940.7	
461.9	5621.7	
462.1	6124.8	
462.3	7391.8	
462.5	8107.2	
462.7	5687.2	
462.9	5838.1	
463.1	9200.8	
463.3	8841.8	
463.5	5986.2	
463.7	6943.3	
463.9	7636.2	
464.1	8012.3	
464.3	6036.7	
464.5	6363.7	
464.7	8324.3	
464.9	7929.1	
465.1	7752.9	
465.3	6627.2	
465.5	8688.8	
465.7	8606.2	
465.9	7073	
466.1	6797.9	
466.3	8344.8	
466.5	8262.2	
466.7	7707.9	
466.9	6442.9	
467.1	8152.3	
467.3	9241.8	
467.5	7613.7	
467.7	6377.4	
467.9	9458.9	
468.1	10298	
468.3	7219.1	
468.5	7669	
468.7	8110	
468.9	8114.7	
469.1	6668.2	
469.3	7469.6	
469.5	10177	
469.7	7598.6	
469.9	7090.8	
470.1	6381.5	
470.3	8092.2	
470.5	8180.3	
470.7	7703.8	
470.9	6497.5	
471.1	7819.8	
471.3	8361.2	
471.5	6285.2	
471.69	8382.3	
471.89	7667.6	
472.09	7203.4	
472.29	7137.2	
472.49	7503.1	
472.69	7439.6	
472.89	8297	
473.09	6108.4	
473.29	6306.4	
473.49	7582.9	
473.69	7716.7	
473.89	7290.1	
474.09	6469.5	
474.29	9137.4	
474.49	8760.5	
474.69	7271	
474.89	6597.9	
475.09	7786.4	
475.29	7813.7	
475.49	5944.6	
475.69	6204.7	
475.88	9415.9	
476.08	8103.1	
476.28	5890.6	
476.48	6402	
476.68	8564.6	
476.88	8391.2	
477.08	6208.1	
477.28	6522.1	
477.48	7908.6	
477.68	8606.9	
477.88	6034.7	
478.08	6459.3	
478.28	8905.3	
478.48	8040.3	
478.67	6475.7	
478.87	5825.8	
479.07	8627.4	
479.27	8122.2	
479.47	6634.7	
479.67	6575.3	
479.87	8382.3	
480.07	9007	
480.27	5786.9	
480.47	7596.6	
480.67	8077.2	
480.87	8833.6	
481.06	6172.6	
481.26	7027.3	
481.46	7959.1	
481.66	8016.4	
481.86	6642.9	
482.06	7716.1	
482.26	7726.3	
482.46	8862.2	
482.66	6563.7	
482.86	6170.5	
483.05	8082.7	
483.25	7436.9	
483.45	9172.9	
483.65	6591.7	
483.85	7666.9	
484.05	7961.8	
484.25	6979.5	
484.45	7455.3	
484.65	9016.5	
484.84	8882.7	
485.04	6496.8	
485.24	6474.3	
485.44	9159.9	
485.64	7374.1	
485.84	5639.4	
486.04	7202.7	
486.24	7750.9	
486.44	8140.7	
486.63	5656.5	
486.83	6564.4	
487.03	7593.2	
487.23	7903.1	
487.43	5742.5	
487.63	8258.8	
487.83	7909.3	
488.02	8910.7	
488.22	6832.7	
488.42	7513.3	
488.62	8812.4	
488.82	7686.7	
489.02	6480.5	
489.22	6400.6	
489.41	8635.6	
489.61	8185.7	
489.81	6086.6	
490.01	6135.7	
490.21	8555	
490.41	9237	
490.61	5994.4	
490.8	6227.2	
491	7918.1	
491.2	7350.8	
491.4	6801.3	
491.6	5855.1	
491.8	8015.1	
491.99	8187.1	
492.19	5783.5	
492.39	6267.5	
492.59	8642.4	
492.79	8644.5	
492.99	7175.4	
493.18	6137.1	
493.38	8785.1	
493.58	9477.3	
493.78	6905.8	
493.98	6414.2	
494.18	8401.5	
494.37	7804.1	
494.57	7074.4	
494.77	6939.9	
494.97	8528.4	
495.17	8852	
495.37	6421.1	
495.56	6798.6	
495.76	9056.1	
495.96	8586.5	
496.16	7720.8	
496.36	6553.5	
496.55	8816.5	
496.75	8176.9	
496.95	7044.3	
497.15	6933.7	
497.35	8821.3	
497.54	8718.9	
497.74	6653.9	
497.94	8480.6	
498.14	9494.4	
498.34	9271.8	
498.53	6297.5	
498.73	7150.1	
498.93	8165.3	
499.13	8628.8	
499.33	6931	
499.52	7576.8	
499.72	8630.8	
499.92	8969.4	
500.12	6500.9	
500.32	6855.2	
500.51	8937.3	
500.71	8648.6	
500.91	7637.6	
501.11	7260	
501.31	8758.5	
501.5	9259.5	
501.7	7950.9	
501.9	6754.9	
502.1	8553	
502.29	8931.9	
502.49	7286.7	
502.69	7832.8	
502.89	8806.9	
503.09	8724.3	
503.28	6354.2	
503.48	6412.2	
503.68	7899	
503.88	8011	
504.07	7495.6	
504.27	7012.2	
504.47	8446.5	
504.67	8525	
504.86	7406.8	
505.06	7023.9	
505.26	8064.9	
505.46	9879.4	
505.65	6899.6	
505.85	7225.2	
506.05	7931.8	
506.25	8486.8	
506.44	6168.5	
506.64	7294.2	
506.84	7938.6	
507.04	8961.9	
507.23	6466.8	
507.43	7079.1	
507.63	10014	
507.83	8213.7	
508.02	7014.3	
508.22	6540.5	
508.42	10229	
508.62	7854.6	
508.81	6892.1	
509.01	7419.8	
509.21	7750.2	
509.4	8114.7	
509.6	7088	
509.8	6428.6	
510	8076.5	
510.19	9583.1	
510.39	6384.2	
510.59	6458.6	
510.79	7785.7	
510.98	9279.3	
511.18	6524.8	
511.38	6676.4	
511.57	8726.4	
511.77	8557.1	
511.97	7354.9	
512.17	6293.4	
512.36	8690.9	
512.56	8658.1	
512.76	6323.4	
512.95	6079.1	
513.15	8805.6	
513.35	7387.7	
513.55	7307.2	
513.74	6460.7	
513.94	8753.7	
514.14	8063.5	
514.33	7421.2	
514.53	7119.4	
514.73	7976.2	
514.92	8311.3	
515.12	6593.1	
515.32	6369.9	
515.51	8369.4	
515.71	8928.5	
515.91	8076.5	
516.11	6420.4	
516.3	10061	
516.5	7798.7	
516.7	7019.8	
516.89	7551.5	
517.09	8037.6	
517.29	7875.1	
517.48	7475.8	
517.68	6660	
517.88	7718.8	
518.07	8352.3	
518.27	7141.3	
518.47	6169.2	
518.66	8994.7	
518.86	7518.1	
519.06	6012.2	
519.25	6475	
519.45	7856	
519.65	9452.1	
519.84	7166.5	
520.04	7909.9	
520.24	9741.5	
520.43	8487.5	
520.63	6752.8	
520.83	6494.8	
521.02	7628	
521.22	8408.3	
521.42	7214.3	
521.61	7720.2	
521.81	7952.9	
522.01	8142.7	
522.2	7011.6	
522.4	6679.1	
522.6	8700.5	
522.79	7436.2	
522.99	6902.3	
523.18	6079.7	
523.38	8375.5	
523.58	8318.2	
523.77	8157.1	
523.97	6003.3	
524.17	10165	
524.36	9368.1	
524.56	7367.2	
524.76	7036.1	
524.95	8352.3	
525.15	7850.5	
525.34	6851.1	
525.54	6790.4	
525.74	8604.9	
525.93	7504.4	
526.13	7975.5	
526.33	6628.6	
526.52	8908.7	
526.72	8409	
526.91	7978.9	
527.11	7209.5	
527.31	9053.4	
527.5	9312.8	
527.7	7131	
527.89	6135.7	
528.09	7748.8	
528.29	8381.7	
528.48	7511.3	
528.68	7217.7	
528.87	8779	
529.07	8828.1	
529.27	7025.2	
529.46	6471.6	
529.66	8214.4	
529.85	8807.6	
530.05	6217.6	
530.25	7114	
530.44	9824.1	
530.64	8357.8	
530.83	6790.4	
531.03	7026.6	
531.23	8765.3	
531.42	8719.6	
531.62	7826	
531.81	6934.4	
532.01	8817.9	
532.21	9413.1	
532.4	6580.1	
532.6	7043.6	
532.79	9854.8	
532.99	8856.1	
533.18	7018.4	
533.38	8086.7	
533.58	8312.7	
533.77	9207.7	
533.97	6897.6	
534.16	7863.5	
534.36	9468.4	
534.55	8472.4	
534.75	8011	
534.95	7049.8	
535.14	9236.3	
535.34	8349.6	
535.53	6604.7	
535.73	8790.6	
535.92	9723.1	
536.12	8649.3	
536.31	6791.1	
536.51	8078.6	
536.71	8931.9	
536.9	8410.3	
537.1	6935.1	
537.29	6974.7	
537.49	9314.8	
537.68	8406.2	
537.88	7423.9	
538.07	6674.3	
538.27	8474.5	
538.46	9663	
538.66	6559.6	
538.86	6963.1	
539.05	8554.4	
539.25	8974.9	
539.44	7245	
539.64	6838.2	
539.83	8420.6	
540.03	9485.5	
540.22	6758.3	
540.42	6888	
540.61	8673.1	
540.81	8806.3	
541	7437.5	
541.2	8054.7	
541.39	8256.7	
541.59	8604.9	
541.78	7598	
541.98	6698.2	
542.18	7834.8	
542.37	7880.6	
542.57	7144.7	
542.76	7699	
542.96	7891.5	
543.15	8655.4	
543.35	7171.3	
543.54	6459.3	
543.74	9071.8	
543.93	8527.1	
544.13	7163.8	
544.32	8248.5	
544.52	8960.5	
544.71	8093.6	
544.91	6210.8	
545.1	7518.8	
545.3	8077.2	
545.49	8860.9	
545.69	6145.3	
545.88	6791.7	
546.08	9680.1	
546.27	9365.4	
546.47	7285.3	
546.66	6535.8	
546.86	9090.3	
547.05	9693.7	
547.24	6838.2	
547.44	6720.8	
547.63	7860.1	
547.83	9067.7	
548.02	7073	
548.22	7359.7	
548.41	7694.9	
548.61	9155.1	
548.8	6609.5	
549	6527.6	
549.19	8396	
549.39	8686.8	
549.58	6208.8	
549.78	6864.8	
549.97	8813.8	
550.17	8270.4	
550.36	7804.8	
550.55	8838.4	
550.75	8314.8	
550.94	9306.7	
551.14	6496.8	
551.33	6939.2	
551.53	7613	
551.72	8701.1	
551.92	6921.5	
552.11	6630	
552.31	8723.7	
552.5	8800.1	
552.69	8456.1	
552.89	6222.4	
553.08	8679.3	
553.28	8320.2	
553.47	6715.3	
553.67	7873.8	
553.86	9408.4	
554.06	7532.4	
554.25	5791	
554.44	6481.1	
554.64	10193	
554.83	9526.5	
555.03	6498.2	
555.22	6861.4	
555.42	8837	
555.61	8570.1	
555.8	6638.8	
556	7005.4	
556.19	7664.2	
556.39	8989.2	
556.58	6722.8	
556.78	6731.7	
556.97	8382.3	
557.16	8045.1	
557.36	8057.4	
557.55	6289.3	
557.75	7344.7	
557.94	9157.2	
558.13	6451.8	
558.33	6171.9	
558.52	8978.3	
558.72	7825.3	
558.91	6297.5	
559.1	6621.1	
559.3	7553.6	
559.49	7290.1	
559.69	5888.6	
559.88	6929	
560.07	8459.5	
560.27	8834.3	
560.46	7131.7	
560.66	7271.7	
560.85	8181	
561.04	7386.3	
561.24	6329.6	
561.43	6556.9	
561.63	7585.7	
561.82	7894.2	
562.01	7835.5	
562.21	6804	
562.4	8297	
562.59	9437	
562.79	6679.8	
562.98	6199.9	
563.18	8359.1	
563.37	9763.3	
563.56	7200.7	
563.76	6178.7	
563.95	7707.2	
564.14	7543.4	
564.34	6557.6	
564.53	6434	
564.73	8251.9	
564.92	8603.5	
565.11	6754.2	
565.31	6107.7	
565.5	8813.8	
565.69	7680.6	
565.89	6268.8	
566.08	6548	
566.27	8690.9	
566.47	9038.4	
566.66	7300.3	
566.85	5831.9	
567.05	8236.9	
567.24	7603.4	
567.44	6199.2	
567.63	7748.8	
567.82	8518.9	
568.02	8228.7	
568.21	6272.9	
568.4	6764.4	
568.6	8010.3	
568.79	8142.7	
568.98	5975.3	
569.18	6230.6	
569.37	7929.1	
569.56	10136	
569.76	6579.4	
569.95	7610.3	
570.14	8357.1	
570.34	8325	
570.53	5965.7	
570.72	5997.1	
570.91	8826.1	
571.11	7986.4	
571.3	6538.5	
571.49	7582.9	
571.69	8068.3	
571.88	7552.9	
572.07	7118.7	
572.27	7129	
572.46	7503.1	
572.65	8753	
572.85	6250.4	
573.04	6597.2	
573.23	8863.6	
573.43	8160.5	
573.62	6072.2	
573.81	6713.2	
574	8071.7	
574.2	7843	
574.39	6404	
574.58	6621.1	
574.78	8898.4	
574.97	8142	
575.16	6960.4	
575.36	7187	
575.55	8587.1	
575.74	8680.7	
575.93	6079.1	
576.13	7072.3	
576.32	7930.4	
576.51	8490.2	
576.71	6378.1	
576.9	7851.2	
577.09	8846.5	
577.28	8398.7	
577.48	7013.6	
577.67	5870.2	
577.86	8021.2	
578.05	8350.9	
578.25	6532.3	
578.44	6744	
578.63	8090.2	
578.83	9301.2	
579.02	5895.4	
579.21	7580.2	
579.4	8275.8	
579.6	7893.6	
579.79	6783.6	
579.98	9004.2	
580.17	8692.3	
580.37	8775.5	
580.56	6148.7	
580.75	6963.8	
580.94	9211.1	
581.14	9011.7	
581.33	7434.1	
581.52	6330.3	
581.71	8555	
581.91	9234.3	
582.1	5906.3	
582.29	6567.2	
582.48	8144.8	
582.68	7984.3	
582.87	7169.9	
583.06	6642.2	
583.25	8513.4	
583.45	8295.6	
583.64	7378.8	
583.83	8191.9	
584.02	7871	
584.21	8385.1	
584.41	7391.1	
584.6	6580.8	
584.79	8088.8	
584.98	8994.7	
585.18	6055.8	
585.37	6137.8	
585.56	7642.3	
585.75	8451.3	
585.94	6373.3	
586.14	6982.2	
586.33	9088.9	
586.52	8089.5	
586.71	6826.6	
586.91	6511.2	
587.1	7481.9	
587.29	8501.1	
587.48	6552.8	
587.67	6419	
587.87	8469	
588.06	8531.8	
588.25	7794.6	
588.44	7027.9	
588.63	8112.7	
588.83	8630.1	
589.02	6455.9	
589.21	6373.3	
589.4	7761.1	
589.59	7662.8	
589.78	5588.2	
589.98	5920	
590.17	7421.2	
590.36	8006.2	
590.55	5400.5	
590.74	6261.3	
590.94	9519	
591.13	8019.8	
591.32	6023.8	
591.51	5516.5	
591.7	8400.8	
591.89	7867.6	
592.09	5734.3	
592.28	6104.3	
592.47	7037.5	
592.66	8980.3	
592.85	5558.2	
593.05	5883.8	
593.24	7623.2	
593.43	8511.4	
593.62	5863.3	
593.81	6391.7	
594	7675.8	
594.19	8004.8	
594.39	5814.9	
594.58	5834	
594.77	8088.1	
594.96	8697	
595.15	5722	
595.34	6398.5	
595.54	8095.6	
595.73	7165.8	
595.92	5126.7	
596.11	6364.4	
596.3	8602.8	
596.49	7294.2	
596.68	6101.6	
596.88	6649.1	
597.07	8432.9	
597.26	7048.4	
597.45	5513.8	
597.64	6881.9	
597.83	7320.8	
598.02	8006.9	
598.22	5698.8	
598.41	6371.2	
598.6	7802.8	
598.79	7172	
598.98	5685.2	
599.17	6740.5	
599.36	7780.9	
599.55	9106	
599.74	7933.1	
599.94	7600	
600.13	8411	
600.32	7140.6	
600.51	5523.4	
600.7	5679	
600.89	9129.8	
601.08	9075.9	
601.27	5356.8	
601.47	6557.6	
601.66	8240.3	
601.85	9030.2	
602.04	6135	
602.23	6223.1	
602.42	7309.2	
602.61	8000.7	
602.8	6070.9	
602.99	5865.4	
603.18	7660.8	
603.37	7875.8	
603.57	6526.2	
603.76	7049.8	
603.95	8817.9	
604.14	8194.6	
604.33	5829.2	
604.52	6191.7	
604.71	7841	
604.9	7492.8	
605.09	6837.5	
605.28	6667.5	
605.47	8507.9	
605.66	8211.7	
605.86	6404.7	
606.05	5870.2	
606.24	8527.7	
606.43	7012.9	
606.62	6214.2	
606.81	7073.7	
607	8383.7	
607.19	7626.6	
607.38	5613.5	
607.57	5971.9	
607.76	7393.8	
607.95	6849.8	
608.14	6303.6	
608.33	6911.2	
608.52	7334.5	
608.72	8370.7	
608.91	5573.2	
609.1	5422.3	
609.29	7572	
609.48	6978.8	
609.67	6511.9	
609.86	5489.9	
610.05	7081.2	
610.24	7432.1	
610.43	5363.6	
610.62	4975.2	
610.81	8646.5	
611	8385.7	
611.19	5517.2	
611.38	6337.1	
611.57	7732.4	
611.76	9201.5	
611.95	5343.2	
612.14	5154.7	
612.33	7523.6	
612.52	7011.6	
612.71	5863.3	
612.9	4983.4	
613.09	6627.9	
613.28	9069.1	
613.47	5602.6	
613.66	6577.4	
613.85	7716.7	
614.04	7217.7	
614.24	5665.4	
614.43	4795	
614.62	7805.5	
614.81	7684	
615	6322.8	
615.19	6255.9	
615.38	7028.6	
615.57	7412.3	
615.76	6154.1	
615.95	7073	
616.14	7793.2	
616.33	7473	
616.52	6446.3	
616.71	6635.4	
616.9	7817.1	
617.09	7626	
617.28	5768.4	
617.47	7057.3	
617.66	6796.5	
617.85	6866.2	
618.04	6730.3	
618.22	6043.6	
618.41	7245.7	
618.6	8103.8	
618.79	5868.1	
618.98	5598.5	
619.17	8431.5	
619.36	6695.5	
619.55	5762.3	
619.74	5834	
619.93	7591.1	
620.12	7038.2	
620.31	6357.6	
620.5	6595.1	
620.69	8190.5	
620.88	8542.1	
621.07	7382.2	
621.26	6257.9	
621.45	7794.6	
621.64	7785.7	
621.83	6369.2	
622.02	5547.9	
622.21	7836.9	
622.4	7511.3	
622.59	6937.2	
622.78	6610.2	
622.97	7163.1	
623.16	8185	
623.35	6249.7	
623.54	5396.4	
623.72	7385.7	
623.91	7478.5	
624.1	6491.4	
624.29	5153.4	
624.48	8630.8	
624.67	7753.6	
624.86	6360.3	
625.05	5383.4	
625.24	8735.3	
625.43	6997.2	
625.62	8249.2	
625.81	5591.6	
626	8141.4	
626.19	7307.2	
626.38	6491.4	
626.56	5874.9	
626.75	7137.2	
626.94	7963.9	
627.13	6460	
627.32	5131.5	
627.51	7877.9	
627.7	9189.9	
627.89	5281.7	
628.08	6431.3	
628.27	6909.8	
628.46	7167.2	
628.65	5515.2	
628.83	5203.2	
629.02	7879.2	
629.21	7054.6	
629.4	6072.9	
629.59	6257.9	
629.78	6933.7	
629.97	8128.4	
630.16	6331.6	
630.35	5816.9	
630.54	8399.4	
630.72	8197.3	
630.91	5718.6	
631.1	6370.5	
631.29	7619.8	
631.48	7846.5	
631.67	6332.3	
631.86	5912.5	
632.05	7159	
632.24	7268.9	
632.42	5466.7	
632.61	6190.3	
632.8	7347.4	
632.99	7019.1	
633.18	6120.7	
633.37	6537.1	
633.56	7613	
633.75	7471	
633.93	6118.6	
634.12	5730.2	
634.31	8504.5	
634.5	8012.3	
634.69	5876.3	
634.88	6419	
635.07	7313.3	
635.25	8007.6	
635.44	6821.1	
635.63	7066.9	
635.82	7271	
636.01	6748.1	
636.2	6712.6	
636.39	6229.9	
636.57	8450.6	
636.76	8118.8	
636.95	5580	
637.14	7148.8	
637.33	7649.8	
637.52	8716.2	
637.7	5373.2	
637.89	6460	
638.08	7268.9	
638.27	8843.8	
638.46	6494.1	
638.65	7015	
638.83	8847.2	
639.02	7147.4	
639.21	6440.9	
639.4	7003.4	
639.59	7643.7	
639.78	7181.5	
639.96	5687.9	
640.15	5754.1	
640.34	7499	
640.53	7691.5	
640.72	5465.3	
640.91	5826.5	
641.09	6903.7	
641.28	8381	
641.47	5731.6	
641.66	6648.4	
641.85	7589.1	
642.03	7938.6	
642.22	6443.6	
642.41	5887.9	
642.6	7068.9	
642.79	6399.9	
642.97	5624.4	
643.16	6430.6	
643.35	7045.7	
643.54	6807.4	
643.73	5560.2	
643.91	6373.3	
644.1	6724.8	
644.29	7309.9	
644.48	5655.1	
644.67	5713.2	
644.85	6963.8	
645.04	7247.8	
645.23	5244.8	
645.42	5572.5	
645.6	6811.5	
645.79	8048.5	
645.98	5586.2	
646.17	4636.6	
646.36	6552.1	
646.54	7238.2	
646.73	6512.5	
646.92	5250.3	
647.11	6879.8	
647.29	7952.3	
647.48	5310.4	
647.67	5162.9	
647.86	8261.5	
648.05	8274.5	
648.23	5748	
648.42	6951.5	
648.61	7586.4	
648.8	7248.4	
648.98	5309.7	
649.17	5608.7	
649.36	6825.2	
649.55	6315.9	
649.73	5341.8	
649.92	6183.5	
650.11	6785.6	
650.3	7094.2	
650.48	5434.6	
650.67	5150	
650.86	7351.5	
651.05	6276.3	
651.23	5463.3	
651.42	5456.5	
651.61	6764.4	
651.79	7016.3	
651.98	5696.1	
652.17	5270.1	
652.36	7278.5	
652.54	6387.6	
652.73	5275.6	
652.92	5055.1	
653.11	7364.5	
653.29	7374.7	
653.48	4541.7	
653.67	5608.7	
653.85	7180.9	
654.04	8242.4	
654.23	5974.6	
654.42	5342.5	
654.6	6693.4	
654.79	7382.9	
654.98	4876.9	
655.16	5480.4	
655.35	6330.3	
655.54	6250.4	
655.73	5047.6	
655.91	4940.4	
656.1	7445	
656.29	6126.2	
656.47	4500.8	
656.66	6293.4	
656.85	6439.5	
657.03	6526.2	
657.22	4977.2	
657.41	5061.2	
657.59	6574.7	
657.78	6340.5	
657.97	4700.1	
658.16	5491.3	
658.34	7253.2	
658.53	7650.5	
658.72	6343.2	
658.9	6947.4	
659.09	6622.4	
659.28	6701.6	
659.46	5109.7	
659.65	5103.5	
659.84	6406	
660.02	6975.4	
660.21	4945.8	
660.4	4952	
660.58	7438.2	
660.77	6754.2	
660.96	5648.3	
661.14	4522.6	
661.33	7955.7	
661.52	7839.6	
661.7	4508.9	
661.89	8444.5	
662.08	6345.3	
662.26	5916.6	
662.45	4882.4	
662.64	4943.1	
662.82	7085.3	
663.01	6161.7	
663.2	5027.8	
663.38	5752.1	
663.57	7004.1	
663.75	6908.5	
663.94	5360.9	
664.13	6665.5	
664.31	6339.8	
664.5	7043.6	
664.69	5747.3	
664.87	6219.7	
665.06	6098.2	
665.25	6849.8	
665.43	6459.3	
665.62	6559	
665.8	7284.6	
665.99	6464.1	
666.18	5388.2	
666.36	5474.2	
666.55	7193.8	
666.74	7094.2	
666.92	4947.9	
667.11	6720.1	
667.29	6537.8	
667.48	7163.8	
667.67	6369.9	
667.85	5379.3	
668.04	6638.1	
668.22	6580.1	
668.41	5450.3	
668.6	5578	
668.78	6296.1	
668.97	6567.2	
669.15	5782.1	
669.34	4730.8	
669.53	6275	
669.71	6732.4	
669.9	4901.5	
670.08	5613.5	
670.27	6247	
670.46	6943.3	
670.64	5834	
670.83	6037.4	
671.01	6252.4	
671.2	6844.3	
671.38	4988.2	
671.57	4849.6	
671.76	7525.6	
671.94	8214.4	
672.13	4857.1	
672.31	5973.2	
672.5	7042.3	
672.69	6262	
672.87	5001.1	
673.06	5275.6	
673.24	6849.8	
673.43	6365.1	
673.61	5810.1	
673.8	5259.2	
673.98	7154.2	
674.17	7290.8	
674.36	5947.3	
674.54	5700.9	
674.73	6901	
674.91	7031.4	
675.1	5411.4	
675.28	5061.9	
675.47	6616.3	
675.65	7188.4	
675.84	5274.9	
676.03	5677.7	
676.21	6391	
676.4	5847	
676.58	6116.6	
676.77	5821.7	
676.95	7894.9	
677.14	6299.6	
677.32	4980.7	
677.51	4735.6	
677.69	7146	
677.88	5865.4	
678.06	4715.1	
678.25	4947.9	
678.44	6584.9	
678.62	6328.2	
678.81	4625	
678.99	5659.2	
679.18	7404.8	
679.36	6999.3	
679.55	5149.3	
679.73	5914.5	
679.92	6931.7	
680.1	6284.5	
680.29	6567.8	
680.47	5153.4	
680.66	6268.8	
680.84	7165.8	
681.03	4466.6	
681.21	5505.6	
681.4	6350.1	
681.58	6257.9	
681.77	4981.3	
681.95	4905.6	
682.14	7208.2	
682.32	7556.3	
682.51	5915.9	
682.69	4614.1	
682.88	6260.6	
683.06	6951.5	
683.25	5535.7	
683.43	6159.6	
683.62	6509.8	
683.8	7011.6	
683.99	6242.2	
684.17	5369.1	
684.36	7847.8	
684.54	6493.4	
684.73	4595	
684.91	4853	
685.1	6855.9	
685.28	6339.1	
685.46	5543.9	
685.65	5598.5	
685.83	7172	
686.02	6542.6	
686.2	4975.2	
686.39	5119.9	
686.57	6303	
686.76	7894.2	
686.94	4903.5	
687.13	5119.2	
687.31	6950.8	
687.5	6453.1	
687.68	4506.2	
687.86	5881.1	
688.05	8108.6	
688.23	5799.8	
688.42	5865.4	
688.6	4994.3	
688.79	6328.9	
688.97	6296.1	
689.16	5487.2	
689.34	4252.3	
689.52	7128.3	
689.71	7257.3	
689.89	5713.2	
690.08	4977.2	
690.26	6614.3	
690.45	6429.3	
690.63	5864.7	
690.81	5104.9	
691	6265.4	
691.18	6310.5	
691.37	5319.3	
691.55	7544.7	
691.74	6193.1	
691.92	8393.3	
692.1	5334.3	
692.29	4659.1	
692.47	6456.6	
692.66	5666.7	
692.84	4925.4	
693.02	5503.6	
693.21	5866.1	
693.39	6404	
693.58	5567.7	
693.76	4984.1	
693.94	7619.1	
694.13	7418.4	
694.31	4878.9	
694.5	6071.5	
694.68	6131.6	
694.86	6460.7	
695.05	5292.6	
695.23	5372.5	
695.42	6871.6	
695.6	9323	
695.78	5870.8	
695.97	4924	
696.15	6911.2	
696.34	6264.7	
696.52	4708.3	
696.7	5524.1	
696.89	6716	
697.07	6059.9	
697.25	5541.8	
697.44	7242.3	
697.62	6649.8	
697.81	6991.1	
697.99	5186.8	
698.17	5724.8	
698.36	5924.1	
698.54	6694.1	
698.72	5558.9	
698.91	4543.1	
699.09	6326.2	
699.28	6107.7	
699.46	5240.8	
699.64	5044.1	
699.83	5982.1	
700.01	7418.4	
700.19	5976.7	
700.38	4225.6	
700.56	7272.3	
700.74	6102.3	
700.93	4661.2	
701.11	5478.3	
701.29	6626.5	
701.48	7879.2	
701.66	4917.2	
701.84	4894.6	
702.03	6154.8	
702.21	6810.2	
702.39	4422.2	
702.58	5040.7	
702.76	6621.8	
702.94	6735.1	
703.13	4445.5	
703.31	7027.3	
703.49	5866.1	
703.68	7204.1	
703.86	4578.6	
704.04	5691.3	
704.23	6430.6	
704.41	6845	
704.59	4749.2	
704.78	6143.2	
704.96	7572.7	
705.14	6949.4	
705.33	4601.1	
705.51	5431.9	
705.69	6238.8	
705.87	7102.4	
706.06	5739.8	
706.24	4559.5	
706.42	6544.6	
706.61	6924.9	
706.79	5788.9	
706.97	4553.3	
707.16	6004	
707.34	6606.1	
707.52	5676.3	
707.7	4831.8	
707.89	6148.7	
708.07	5837.4	
708.25	5687.9	
708.44	5803.9	
708.62	6052.4	
708.8	7303.1	
708.98	5992.4	
709.17	4876.9	
709.35	6531.7	
709.53	6521.4	
709.72	4541.7	
709.9	4711.7	
710.08	6803.4	
710.26	6808.8	
710.45	6236.7	
710.63	4870.1	
710.81	6410.1	
710.99	6479.1	
711.18	5559.6	
711.36	4993.6	
711.54	6264.1	
711.72	7032	
711.91	5126.7	
712.09	4515.1	
712.27	6469.5	
712.45	7092.8	
712.64	5412.1	
712.82	4374.5	
713	5910.4	
713.18	6103.6	
713.37	4468.7	
713.55	5891.3	
713.73	7030.7	
713.91	5541.1	
714.1	4992.9	
714.28	4494.6	
714.46	6757.6	
714.64	5978.7	
714.83	4005.1	
715.01	4898.7	
715.19	6066.1	
715.37	5528.2	
715.55	4599.1	
715.74	4945.2	
715.92	7127.6	
716.1	4984.1	
716.28	6180.8	
716.47	5147.2	
716.65	5737.7	
716.83	5865.4	
717.01	4982.7	
717.19	5039.4	
717.38	8090.2	
717.56	5473.5	
717.74	5298.8	
717.92	4288.4	
718.1	6800.6	
718.29	5968.5	
718.47	3878.9	
718.65	4518.5	
718.83	6596.5	
719.01	6524.1	
719.2	3637.2	
719.38	4819.6	
719.56	6176	
719.74	7712.7	
719.92	4313	
720.11	5464.7	
720.29	6274.3	
720.47	5332.2	
720.65	3932.1	
720.83	4916.5	
721.02	5738.4	
721.2	5493.3	
721.38	4980	
721.56	4191.5	
721.74	5006.6	
721.92	5210	
722.11	5501.5	
722.29	5225.1	
722.47	6536.4	
722.65	5720	
722.83	4247.5	
723.01	5224.4	
723.2	5766.4	
723.38	6059.9	
723.56	3594.2	
723.74	4909	
723.92	5270.8	
724.1	6507.1	
724.29	4165.6	
724.47	5388.9	
724.65	5282.4	
724.83	5240.1	
725.01	4050.2	
725.19	5058.5	
725.37	5340.4	
725.56	5394.3	
725.74	3947.8	
725.92	4218.8	
726.1	5221.6	
726.28	5520	
726.46	4642.1	
726.64	4367	
726.83	5574.6	
727.01	5823.7	
727.19	3886.4	
727.37	4799.1	
727.55	5649.7	
727.73	6182.1	
727.91	3891.1	
728.09	3689.1	
728.28	6293.4	
728.46	6862.1	
728.64	4872.8	
728.82	4785.4	
729	7363.1	
729.18	6546	
729.36	3976.5	
729.54	6462	
729.72	7600.7	
729.91	5800.5	
730.09	5919.3	
730.27	4620.9	
730.45	5571.8	
730.63	6315.3	
730.81	5286.5	
730.99	4166.3	
731.17	6855.9	
731.35	5327.4	
731.53	4853	
731.71	4354.7	
731.9	6574.7	
732.08	6833.4	
732.26	4631.8	
732.44	4260.5	
732.62	6817	
732.8	6280.4	
732.98	5146.5	
733.16	4108.2	
733.34	6266.8	
733.52	5025	
733.7	4661.9	
733.88	4921.3	
734.07	6169.2	
734.25	5838.8	
734.43	4042.7	
734.61	5740.5	
734.79	7407.5	
734.97	5678.3	
735.15	4199.7	
735.33	4611.3	
735.51	6133	
735.69	5723.4	
735.87	5827.8	
736.05	4892.6	
736.23	5900.9	
736.41	5699.5	
736.59	4706.9	
736.77	4683.7	
736.95	6414.2	
737.13	5811.5	
737.32	4329.4	
737.5	4552	
737.68	6983.6	
737.86	5689.3	
738.04	4015.4	
738.22	6055.8	
738.4	5433.3	
738.58	5778.7	
738.76	4767.7	
738.94	3622.2	
739.12	5618.9	
739.3	5521.3	
739.48	5412.8	
739.66	5107.6	
739.84	5903.6	
740.02	5876.3	
740.2	3777.1	
740.38	4139.6	
740.56	6306.4	
740.74	5115.1	
740.92	4888.5	
741.1	4748.6	
741.28	5696.1	
741.46	5572.5	
741.64	4405.9	
741.82	4910.3	
742	5784.1	
742.18	5805.3	
742.36	4629.1	
742.54	4148.5	
742.72	6400.6	
742.9	5023.7	
743.08	5055.1	
743.26	3735.5	
743.44	6604.7	
743.62	6487.3	
743.8	5231.2	
743.98	4160.1	
744.16	6205.3	
744.34	5880.4	
744.52	5161.6	
744.7	5010	
744.88	6356.2	
745.06	5838.1	
745.24	5254.4	
745.42	5335	
745.6	6389.7	
745.78	6128.9	
745.96	3923.2	
746.14	4337.6	
746.32	7318.1	
746.5	6483.2	
746.68	4909.7	
746.86	4373.8	
747.03	6942.6	
747.21	5213.4	
747.39	4895.3	
747.57	4449.6	
747.75	6055.8	
747.93	6510.5	
748.11	4353.3	
748.29	4222.2	
748.47	7753.6	
748.65	5733.6	
748.83	5145.2	
749.01	4828.4	
749.19	6223.8	
749.37	5385.5	
749.55	4715.8	
749.73	4832.5	
749.91	5840.1	
750.09	5593	
750.26	4866	
750.44	4198.3	
750.62	5926.1	
750.8	6004	
750.98	4012.7	
751.16	4422.9	
751.34	5972.6	
751.52	5251	
751.7	5269.4	
751.88	4055.7	
752.06	6537.1	
752.24	6400.6	
752.42	3963.5	
752.59	4340.3	
752.77	5892.7	
752.95	7242.3	
753.13	5133.6	
753.31	4524	
753.49	5543.2	
753.67	6105	
753.85	4867.3	
754.03	4375.8	
754.21	6408.8	
754.38	6849.8	
754.56	4666.6	
754.74	3657.7	
754.92	5654.4	
755.1	6466.8	
755.28	3735.5	
755.46	3816	
755.64	7325.6	
755.82	7458.7	
755.99	4206.5	
756.17	4344.4	
756.35	4932.9	
756.53	6559	
756.71	3207.8	
756.89	4246.8	
757.07	6181.5	
757.25	5103.5	
757.42	4767.7	
757.6	5694.7	
757.78	6120	
757.96	5031.9	
758.14	4391.5	
758.32	3822.9	
758.5	4571.7	
758.67	5489.9	
758.85	4190.1	
759.03	4386.7	
759.21	5720.7	
759.39	5063.9	
759.57	3739.6	
759.75	4973.2	
759.92	6404	
760.1	5547.3	
760.28	5396.4	
760.46	5616.2	
760.64	5347.2	
760.82	5063.3	
760.99	5156.8	
761.17	4281.6	
761.35	6157.6	
761.53	5127.4	
761.71	4382	
761.89	5186.1	
762.06	6111.8	
762.24	5440.1	
762.42	4471.4	
762.6	4208.6	
762.78	5489.9	
762.96	6192.4	
763.13	4741	
763.31	4531.5	
763.49	6343.2	
763.67	5446.9	
763.85	5424.4	
764.02	6066.8	
764.2	6578.1	
764.38	5829.9	
764.56	4352.6	
764.74	5357.5	
764.91	6769.2	
765.09	5563	
765.27	4024.9	
765.45	3832.4	
765.63	6741.2	
765.8	6649.1	
765.98	3475.4	
766.16	3915	
766.34	5128.8	
766.52	4873.5	
766.69	4947.9	
766.87	3767.6	
767.05	5588.9	
767.23	6375.3	
767.41	4044.1	
767.58	4420.2	
767.76	6195.1	
767.94	6329.6	
768.12	4237.9	
768.29	5074.2	
768.47	5700.2	
768.65	6470.9	
768.83	3827	
769	5001.1	
769.18	5184.1	
769.36	5963	
769.54	5068	
769.72	3863.2	
769.89	6285.9	
770.07	6470.9	
770.25	4255	
770.43	5592.3	
770.6	7127.6	
770.78	7585.7	
770.96	4456.4	
771.14	5168.4	
771.31	6211.5	
771.49	5546.6	
771.67	3577.1	
771.85	3860.4	
772.02	4752	
772.2	5542.5	
772.38	4633.2	
772.55	4100.7	
772.73	5862	
772.91	5627.8	
773.09	4552.6	
773.26	4602.5	
773.44	5838.8	
773.62	5512.4	
773.8	3998.3	
773.97	3691.8	
774.15	5886.5	
774.33	5455.1	
774.5	3913	
774.68	4268.6	
774.86	6143.2	
775.04	5584.1	
775.21	3964.2	
775.39	3986	
775.57	5881.1	
775.74	6310.5	
775.92	3884.3	
776.1	3740.3	
776.27	5792.3	
776.45	7129.7	
776.63	4012	
776.81	3513.6	
776.98	5343.8	
777.16	6596.5	
777.34	4139.6	
777.51	4146.5	
777.69	5452.4	
777.87	5199.8	
778.04	4208.6	
778.22	4951.3	
778.4	5231.9	
778.57	5920	
778.75	3485.6	
778.93	3777.1	
779.1	4971.8	
779.28	4885.8	
779.46	3443.3	
779.64	3995.6	
779.81	6098.9	
779.99	7040.2	
780.17	4885.1	
780.34	5040.7	
780.52	5560.9	
780.69	5791	
780.87	4343.7	
781.05	3908.9	
781.22	5663.3	
781.4	5685.8	
781.58	4035.2	
781.75	3207.8	
781.93	5698.1	
782.11	5066	
782.28	4984.1	
782.46	4108.9	
782.64	4864.6	
782.81	5912.5	
782.99	4130.8	
783.17	4130.8	
783.34	5696.1	
783.52	4876.9	
783.69	4347.8	
783.87	5178.6	
784.05	5078.3	
784.22	4993.6	
784.4	5226.4	
784.58	4482.3	
784.75	6023.1	
784.93	5046.9	
785.1	4096.6	
785.28	4805.2	
785.46	5776.6	
785.63	5070.8	
785.81	4076.8	
785.99	3923.2	
786.16	5184.1	
786.34	5660.6	
786.51	3896.6	
786.69	4371.7	
786.87	4769	
787.04	5367	
787.22	3764.2	
787.39	4819.6	
787.57	4971.1	
787.75	6253.1	
787.92	4982	
788.1	4963.6	
788.27	5105.6	
788.45	4831.8	
788.63	4657.1	
788.8	3283.6	
788.98	5401.9	
789.15	4782.7	
789.33	3410.6	
789.5	4183.3	
789.68	6062	
789.86	6203.3	
790.03	4625.7	
790.21	4002.4	
790.38	6073.6	
790.56	5151.3	
790.73	3870.7	
790.91	3908.2	
791.09	5055.8	
791.26	5860.6	
791.44	4123.9	
791.61	3525.2	
791.79	5096	
791.96	5115.8	
792.14	3629	
792.32	3231.7	
792.49	5089.9	
792.67	5218.2	
792.84	3727.3	
793.02	3492.5	
793.19	5586.2	
793.37	6451.8	
793.54	3258.3	
793.72	3590.1	
793.89	6482.5	
794.07	5121.3	
794.25	4301.4	
794.42	3307.5	
794.6	6189.6	
794.77	5806.7	
794.95	4536.9	
795.12	3974.4	
795.3	5121.3	
795.47	5823.1	
795.65	4375.1	
795.82	4216.1	
796	4902.8	
796.17	7037.5	
796.35	4080.9	
796.52	4743.8	
796.7	5671.5	
796.87	5842.9	
797.05	5008.6	
797.22	4976.6	
797.4	5711.8	
797.57	6857.3	
797.75	4161.5	
797.92	3917.8	
798.1	6138.4	
798.27	5107	
798.45	3337.5	
798.62	3654.3	
798.8	5396.4	
798.97	5970.5	
799.15	4474.1	
799.32	4219.5	
799.5	4571.1	
799.67	5498.8	
799.85	4569.7	
800.02	3231.7	
800.2	5052.3	
800.37	5466.7	
800.55	4754.7	
800.72	3932.8	
800.9	5928.2	
801.07	6423.8	
801.25	5308.3	
801.42	4306.2	
801.6	5983.5	
801.77	5679	
801.95	4023.6	
802.12	3821.5	
802.29	5602.6	
802.47	5649.7	
802.64	4291.2	
802.82	3170.9	
802.99	5050.3	
803.17	6125.5	
803.34	4190.8	
803.52	3686.3	
803.69	6879.8	
803.87	4839.4	
804.04	4169.7	
804.21	4307.6	
804.39	6243.6	
804.56	5337	
804.74	3504.1	
804.91	4354.7	
805.09	5119.2	
805.26	5311.7	
805.44	3639.9	
805.61	4002.4	
805.78	5785.5	
805.96	5866.1	
806.13	4354	
806.31	4717.8	
806.48	4627.7	
806.66	5184.8	
806.83	4315.1	
807	4248.2	
807.18	5063.9	
807.35	5552	
807.53	4199	
807.7	3327.3	
807.87	6348	
808.05	5180.7	
808.22	4690.5	
808.4	3364.8	
808.57	5158.8	
808.74	4762.2	
808.92	3906.2	
809.09	4965	
809.27	5046.9	
809.44	5748	
809.61	3392.1	
809.79	3803.1	
809.96	6337.8	
810.14	5926.8	
810.31	3297.9	
810.48	4055	
810.66	5266.7	
810.83	6017.6	
811.01	3831.7	
811.18	4374.5	
811.35	5960.3	
811.53	4564.9	
811.7	4713.7	
811.87	4432.5	
812.05	5127.4	
812.22	5020.3	
812.39	3753.9	
812.57	3625.6	
812.74	5197.1	
812.92	7038.9	
813.09	4055.7	
813.26	4519.9	
813.44	6624.5	
813.61	5062.6	
813.78	3355.3	
813.96	4586.8	
814.13	5203.9	
814.3	4814.1	
814.48	4900.8	
814.65	4064.5	
814.82	6515.3	
815	4947.2	
815.17	4185.4	
815.34	5142.4	
815.52	5034.6	
815.69	5072.1	
815.87	4206.5	
816.04	3520.5	
816.21	5202.5	
816.38	4525.3	
816.56	3943	
816.73	3713	
816.9	6546.7	
817.08	6044.2	
817.25	3776.5	
817.42	4784.7	
817.6	4668.7	
817.77	5242.1	
817.94	4179.2	
818.12	3717.1	
818.29	4906.9	
818.46	7840.3	
818.64	3945.1	
818.81	3692.5	
818.98	4783.4	
819.16	7137.9	
819.33	4487.8	
819.5	4246.8	
819.67	5530.2	
819.85	6251.1	
820.02	4111	
820.19	4347.8	
820.37	5399.8	
820.54	4951.3	
820.71	4298.7	
820.88	5337	
821.06	5375.9	
821.23	4988.9	
821.4	4248.2	
821.58	4284.4	
821.75	5937.7	
821.92	5298.8	
822.09	3433.8	
822.27	3629	
822.44	5239.4	
822.61	5019.6	
822.79	3408.5	
822.96	6754.2	
823.13	5719.3	
823.3	4907.6	
823.48	3982.6	
823.65	3580.5	
823.82	5868.8	
823.99	4648.9	
824.17	5045.5	
824.34	3667.2	
824.51	6842.9	
824.68	5242.8	
824.86	3775.8	
825.03	4266.6	
825.2	5161.6	
825.37	6321.4	
825.55	3778.5	
825.72	4195.6	
825.89	6956.3	
826.06	6402.6	
826.24	4067.9	
826.41	4106.2	
826.58	6346	
826.75	5489.9	
826.92	3176.4	
827.1	3577.8	
827.27	8699.1	
827.44	6873.7	
827.61	3933.5	
827.79	4737	
827.96	4934.2	
828.13	5312.4	
828.3	4137.6	
828.47	3403.7	
828.65	5410.7	
828.82	5393	
828.99	5288.5	
829.16	4624.3	
829.34	5813.5	
829.51	5520	
829.68	4207.2	
829.85	4385.4	
830.02	6070.2	
830.2	5796.4	
830.37	3231	
830.54	5171.1	
830.71	6722.8	
830.88	5119.2	
831.05	3286.3	
831.23	3837.9	
831.4	6309.8	
831.57	7205.4	
831.74	3924.6	
831.91	3450.1	
832.09	5326.1	
832.26	5753.4	
832.43	3996.3	
832.6	4593.6	
832.77	5448.3	
832.94	6202.6	
833.12	3188	
833.29	3998.3	
833.46	4997	
833.63	7433.4	
833.8	4434.5	
833.97	4089.8	
834.15	5860.6	
834.32	5586.9	
834.49	4227	
834.66	4315.8	
834.83	6124.8	
835	4865.3	
835.17	3848.1	
835.35	3933.5	
835.52	5743.2	
835.69	5672.2	
835.86	4058.4	
836.03	3350.5	
836.2	5700.2	
836.37	5372.5	
836.55	4042.7	
836.72	3807.2	
836.89	5370.5	
837.06	5923.4	
837.23	4124.6	
837.4	4486.4	
837.57	6625.9	
837.75	7425.9	
837.92	3730.7	
838.09	3904.1	
838.26	5334.3	
838.43	6168.5	
838.6	4303.5	
838.77	3804.4	
838.94	7095.5	
839.11	6712.6	
839.29	4059.8	
839.46	3188	
839.63	5781.4	
839.8	5550.7	
839.97	3930.7	
840.14	3981.9	
840.31	5570.5	
840.48	5811.5	
840.65	3196.2	
840.82	3906.8	
841	5780.1	
841.17	5808.7	
841.34	3620.1	
841.51	3647.4	
841.68	5715.9	
841.85	5437.4	
842.02	3766.2	
842.19	3122.5	
842.36	5541.8	
842.53	5534.3	
842.7	3560.7	
842.87	4532.2	
843.05	7351.5	
843.22	5535	
843.39	3448.8	
843.56	3726.6	
843.73	5244.2	
843.9	5885.9	
844.07	6004.6	
844.24	4968.4	
844.41	8617.2	
844.58	5058.5	
844.75	3502	
844.92	3824.2	
845.09	5828.5	
845.26	5763	
845.43	3594.9	
845.6	3814.7	
845.77	5752.7	
845.94	5536.3	
846.12	4003.1	
846.29	4267.3	
846.46	5963.7	
846.63	5808	
846.8	3626.3	
846.97	4292.5	
847.14	6318.7	
847.31	5726.1	
847.48	4044.7	
847.65	4513	
847.82	6111.8	
847.99	6040.8	
848.16	4823.6	
848.33	4507.6	
848.5	5339.7	
848.67	6288.6	
848.84	3564.1	
849.01	3749.1	
849.18	5141.8	
849.35	4790.9	
849.52	4504.2	
849.69	3545	
849.86	6049	
850.03	6343.2	
850.2	3594.2	
850.37	4414.7	
850.54	6192.4	
850.71	5459.9	
850.88	4306.2	
851.05	3530.7	
851.22	5697.4	
851.39	6354.2	
851.56	3364.1	
851.73	4177.2	
851.9	5029.8	
852.07	6049	
852.24	3965.6	
852.41	3557.3	
852.58	5616.9	
852.75	5125.4	
852.92	4057	
853.09	3503.4	
853.26	5388.2	
853.43	6272.9	
853.6	3545.7	
853.77	3039.9	
853.94	6401.3	
854.11	5746.6	
854.28	5371.1	
854.44	3893.9	
854.61	6855.9	
854.78	6112.5	
854.95	3510.9	
855.12	4491.2	
855.29	4625	
855.46	6546	
855.63	3603.7	
855.8	4970.4	
855.97	5305.6	
856.14	6136.4	
856.31	5100.8	
856.48	3886.4	
856.65	5317.9	
856.82	5002.5	
856.99	3461.7	
857.16	3867.2	
857.33	7072.3	
857.49	5403.2	
857.66	3934.8	
857.83	4182	
858	5396.4	
858.17	5580.7	
858.34	3374.4	
858.51	3501.3	
858.68	6520.7	
858.85	6595.1	
859.02	4186.7	
859.19	4502.8	
859.36	5056.4	
859.52	5118.6	
859.69	3536.8	
859.86	4296	
860.03	5169.1	
860.2	6400.6	
860.37	3204.4	
860.54	3656.3	
860.71	6040.1	
860.88	6454.5	
861.05	4061.1	
861.21	4558.1	
861.38	6492.1	
861.55	4978.6	
861.72	3274	
861.89	4014	
862.06	6121.4	
862.23	6665.5	
862.4	3500	
862.56	3790.8	
862.73	5973.2	
862.9	5575.3	
863.07	4213.4	
863.24	3214.6	
863.41	4899.4	
863.58	5087.8	
863.75	3646.7	
863.91	4154	
864.08	6464.8	
864.25	5941.2	
864.42	4618.2	
864.59	5041.4	
864.76	6799.3	
864.93	5100.1	
865.09	3521.8	
865.26	3789.4	
865.43	6290.7	
865.6	6810.2	
865.77	3151.1	
865.94	3571.7	
866.1	6382.8	
866.27	6098.9	
866.44	5575.9	
866.61	3396.9	
866.78	5490.6	
866.95	5906.3	
867.11	3498.6	
867.28	3131.3	
867.45	6118	
867.62	5158.8	
867.79	4153.3	
867.96	3536.2	
868.12	5068	
868.29	6111.1	
868.46	3618.8	
868.63	4824.3	
868.8	6268.8	
868.97	5971.2	
869.13	3707.5	
869.3	3721.8	
869.47	5876.3	
869.64	6148.7	
869.81	3590.8	
869.97	3633.8	
870.14	5811.5	
870.31	6622.4	
870.48	3465.2	
870.65	4543.8	
870.81	5352.7	
870.98	5405.3	
871.15	4097.3	
871.32	3720.5	
871.48	5906.3	
871.65	6523.5	
871.82	3579.2	
871.99	3954.6	
872.16	7042.3	
872.32	6481.1	
872.49	3594.9	
872.66	3596.2	
872.83	6055.2	
872.99	5238.7	
873.16	4132.8	
873.33	3567.6	
873.5	5624.4	
873.67	5675.6	
873.83	3764.2	
874	4782	
874.17	5758.9	
874.34	7005.4	
874.5	4670.1	
874.67	4543.1	
874.84	6476.4	
875.01	5059.8	
875.17	5117.9	
875.34	3589.4	
875.51	5708.4	
875.68	6928.3	
875.84	4332.8	
876.01	5370.5	
876.18	5993	
876.34	5901.6	
876.51	3573.7	
876.68	3489.1	
876.85	5443.5	
877.01	6255.9	
877.18	5116.5	
877.35	3608.5	
877.52	5580.7	
877.68	4980	
877.85	3534.1	
878.02	3505.4	
878.18	5544.5	
878.35	5276.9	
878.52	2848	
878.69	4016.1	
878.85	6039.5	
879.02	5948.7	
879.19	5139.7	
879.35	3909.6	
879.52	5914.5	
879.69	6255.9	
879.86	3106.1	
880.02	4007.2	
880.19	5530.2	
880.36	6816.3	
880.52	4147.1	
880.69	4298	
880.86	6101.6	
881.02	6126.8	
881.19	3919.8	
881.36	3934.1	
881.52	5950	
881.69	5270.8	
881.86	3814.7	
882.02	3765.5	
882.19	6281.1	
882.36	7368.6	
882.52	3676.1	
882.69	5081.7	
882.86	5773.9	
883.02	5683.8	
883.19	4370.4	
883.36	4157.4	
883.52	6074.3	
883.69	7007.5	
883.86	3618.8	
884.02	3199.6	
884.19	6066.8	
884.36	5560.2	
884.52	4076.1	
884.69	3844.7	
884.86	5294.7	
885.02	6738.5	
885.19	4022.2	
885.36	4174.4	
885.52	5586.2	
885.69	5738.4	
885.86	5266	
886.02	4643.4	
886.19	6049	
886.35	5526.1	
886.52	4026.3	
886.69	5153.4	
886.85	5107.6	
887.02	6466.8	
887.19	6466.8	
887.35	6466.8	
887.52	6466.8	
887.68	6466.8	
887.85	6466.8	
888.02	6466.8	
888.18	6466.8	
888.35	6466.8	
888.51	6466.8	
888.68	6466.8	
888.85	6466.8	
889.01	6466.8	
889.18	6466.8	
889.35	6466.8	
889.51	6466.8	
889.68	6466.8	
889.84	6466.8	
890.01	6466.8	
890.17	6466.8	
890.34	6466.8	
890.51	6466.8	
890.67	6466.8	
890.84	6466.8	
891	6466.8	
891.17	6466.8	
891.34	6466.8	
891.5	6466.8	
891.67	6466.8	
891.83	6466.8	
892	6466.8	
892.16	6466.8	
892.33	6466.8	
892.5	6466.8	
892.66	6466.8	
892.83	6466.8	
892.99	6466.8	
893.16	6466.8	
893.32	6466.8	
893.49	6466.8	
893.65	6466.8	
893.82	6466.8	
893.99	6466.8	
894.15	6466.8	
894.32	6466.8	
894.48	6466.8	
894.65	6466.8	
894.81	6466.8	
894.98	6466.8	
895.14	6466.8	
895.31	6466.8	
895.47	6466.8	
895.64	6466.8	
895.81	6466.8	
895.97	6466.8	
896.14	6466.8	
896.3	6466.8	
896.47	6466.8	
896.63	6466.8	
896.8	6466.8	
896.96	6466.8	
897.13	6466.8	
897.29	6466.8	
897.46	6466.8	
897.62	6466.8	
897.79	6466.8	
897.95	6466.8	
898.12	6466.8	
898.28	6466.8	
898.45	6466.8	
898.61	6466.8	
898.78	6466.8	
898.94	6466.8	
899.11	6466.8	
899.27	6466.8	
899.44	6466.8	
899.6	6466.8	
899.77	6466.8	
899.93	6466.8	
900.1	6466.8	
900.26	6466.8	
900.43	6466.8	
900.59	6466.8	
900.76	6466.8	
900.92	6466.8	
901.09	6466.8	
901.25	6466.8	
901.42	6466.8	
901.58	6466.8	
901.75	6466.8	
901.91	6466.8	
902.07	6466.8	
902.24	6466.8	
902.4	6466.8	
902.57	6466.8	
902.73	6466.8	
902.9	6466.8	
903.06	6466.8	
903.23	6466.8	
903.39	6466.8	
903.56	6466.8	
903.72	6466.8	
903.88	6466.8	
904.05	6466.8	
904.21	6466.8	
904.38	6466.8	
904.54	6466.8	
904.71	6466.8	
904.87	6466.8	
905.03	6466.8	
905.2	6466.8	
905.36	6466.8	
905.53	6466.8	
905.69	6466.8	
905.86	6466.8	
906.02	6466.8	
906.18	6466.8	
906.35	6466.8	
906.51	6466.8	
906.68	6466.8	
906.84	6466.8	
907.01	6466.8	
907.17	6466.8	
907.33	6466.8	
907.5	6466.8	
907.66	6466.8	
907.83	6466.8	
907.99	6466.8	
908.15	6466.8	
908.32	6466.8	
908.48	6466.8	
908.65	6466.8	
908.81	6466.8	
908.97	6466.8	
909.14	6466.8	
909.3	6466.8	
909.47	6466.8	
909.63	6466.8	
909.79	6466.8	
909.96	6466.8	
910.12	6466.8	
910.28	6466.8	
910.45	6466.8	
910.61	6466.8	
910.78	6466.8	
910.94	6466.8	
911.1	6466.8	
911.27	6466.8	
911.43	6466.8	
911.59	6466.8	
911.76	6466.8	
911.92	6466.8	
912.08	6466.8	
912.25	6466.8	
912.41	6466.8	
912.57	6466.8	
912.74	6466.8	
912.9	6466.8	
913.07	6466.8	
913.23	6466.8	
913.39	6466.8	
913.56	6466.8	
913.72	6466.8	
913.88	6466.8	
914.05	6466.8	
914.21	6466.8	
914.37	6466.8	
914.54	6466.8	
914.7	6466.8	
914.86	6466.8	
915.03	6466.8	
915.19	6466.8	
