Wavelength	Intensities	
nm	a.u.	
179.22	1972.5	
179.44	1970.1	
179.65	1974.9	
179.86	1965.4	
180.08	1915.5	
180.29	5020.3	
180.51	3543.7	
180.72	5707.7	
180.94	6654.5	
181.15	3287.7	
181.37	3230.3	
181.58	5582.1	
181.79	5915.9	
182.01	3438.5	
182.22	3667.9	
182.44	5908.4	
182.65	4920.6	
182.87	4700.8	
183.08	4114.4	
183.29	6188.3	
183.51	5058.5	
183.72	3763.5	
183.94	5475.6	
184.15	5410.1	
184.37	5508.4	
184.58	3244	
184.79	4576.5	
185.01	5102.2	
185.22	5784.1	
185.44	4818.2	
185.65	4059.1	
185.86	5285.8	
186.08	4915.8	
186.29	3183.2	
186.51	3447.4	
186.72	5118.6	
186.94	6030.6	
187.15	3946.4	
187.36	4125.3	
187.58	7945.4	
187.79	5556.8	
188.01	4270	
188.22	6748.1	
188.43	6704.4	
188.65	5833.3	
188.86	3428.3	
189.08	4121.2	
189.29	5311.7	
189.5	5287.9	
189.72	3777.8	
189.93	3893.2	
190.15	6065.4	
190.36	7284.6	
190.57	4220.9	
190.79	4067.9	
191	6163.7	
191.22	6128.2	
191.43	4260.5	
191.64	3426.3	
191.86	6330.3	
192.07	6181.5	
192.29	3622.2	
192.5	3801	
192.71	6075	
192.93	5218.2	
193.14	3764.2	
193.35	3858.4	
193.57	5285.8	
193.78	6140.5	
194	3018	
194.21	3737.5	
194.42	5032.5	
194.64	5511.8	
194.85	4126	
195.07	4861.9	
195.28	5539.8	
195.49	4783.4	
195.71	5193	
195.92	3517.7	
196.13	5720	
196.35	5812.1	
196.56	5469.4	
196.78	4097.3	
196.99	7210.2	
197.2	6729.6	
197.42	4728.8	
197.63	4211.3	
197.84	4919.9	
198.06	5692.7	
198.27	3842	
198.48	5028.4	
198.7	5253.7	
198.91	5358.9	
199.13	4175.1	
199.34	4149.2	
199.55	5938.4	
199.77	4766.3	
199.98	3633.8	
200.19	4160.1	
200.41	5365	
200.62	5047.6	
200.83	4342.4	
201.05	4728.8	
201.26	5444.2	
201.47	5093.3	
201.69	3732.8	
201.9	3528.7	
202.11	5451	
202.33	6518	
202.54	3910.9	
202.76	4405.2	
202.97	5600.5	
203.18	5612.8	
203.4	4320.5	
203.61	4220.2	
203.82	5556.1	
204.04	5173.9	
204.25	4215.4	
204.46	4140.3	
204.68	5500.2	
204.89	5798.5	
205.1	4079.6	
205.32	3522.5	
205.53	5956.2	
205.74	6040.8	
205.96	2994.1	
206.17	4252.9	
206.38	5920	
206.6	6042.9	
206.81	4712.4	
207.02	3904.1	
207.24	5711.8	
207.45	6169.2	
207.66	3910.9	
207.88	3370.3	
208.09	5698.8	
208.3	5513.1	
208.52	3607.2	
208.73	3990.1	
208.94	5496.7	
209.15	6296.8	
209.37	3946.4	
209.58	4119.1	
209.79	6047	
210.01	5302.2	
210.22	3162.7	
210.43	3312.2	
210.65	5492	
210.86	5976	
211.07	3966.2	
211.29	3590.8	
211.5	5881.8	
211.71	5422.3	
211.93	3619.4	
212.14	3587.4	
212.35	5413.5	
212.56	5668.1	
212.78	4199	
212.99	3433.8	
213.2	6436.8	
213.42	5225.1	
213.63	3728	
213.84	4000.4	
214.06	4805.9	
214.27	4959.5	
214.48	3943.7	
214.69	4238.6	
214.91	6232	
215.12	6366.5	
215.33	4257	
215.55	4741	
215.76	6797.2	
215.97	5900.2	
216.18	4112.3	
216.4	4005.1	
216.61	5127.4	
216.82	6038.8	
217.04	3634.5	
217.25	3785.3	
217.46	6168.5	
217.67	5881.8	
217.89	3279.5	
218.1	3353.9	
218.31	5607.3	
218.53	5644.2	
218.74	3800.3	
218.95	3717.1	
219.16	5432.6	
219.38	6447	
219.59	3672	
219.8	4436.6	
220.01	7159.7	
220.23	5572.5	
220.44	4879.6	
220.65	3608.5	
220.87	5545.2	
221.08	6176	
221.29	3330	
221.5	4513	
221.72	7557	
221.93	5159.5	
222.14	4195.6	
222.35	4955.4	
222.57	5537	
222.78	5878.4	
222.99	3990.8	
223.2	4252.3	
223.42	5775.3	
223.63	6043.6	
223.84	3007.1	
224.05	2981.8	
224.27	7101.7	
224.48	6447.7	
224.69	4926	
224.9	4194.2	
225.12	5700.9	
225.33	5494.7	
225.54	3330	
225.75	3729.4	
225.97	5081	
226.18	5362.9	
226.39	4012	
226.6	3738.9	
226.82	5251.7	
227.03	5108.3	
227.24	4196.3	
227.45	3372.3	
227.67	5854.5	
227.88	6485.2	
228.09	4701.5	
228.3	4760.8	
228.52	5971.2	
228.73	5438	
228.94	3872	
229.15	3411.2	
229.36	5392.3	
229.58	5375.2	
229.79	3878.9	
230	4541.7	
230.21	6605.4	
230.43	5569.1	
230.64	4110.3	
230.85	4313	
231.06	5913.9	
231.28	5931.6	
231.49	3461.7	
231.7	4012.7	
231.91	5823.7	
232.12	5528.2	
232.34	3583.9	
232.55	4004.5	
232.76	6197.8	
232.97	5677	
233.18	3637.9	
233.4	4114.4	
233.61	5748.6	
233.82	5274.9	
234.03	3857.7	
234.25	3737.5	
234.46	7667.6	
234.67	5558.2	
234.88	4255.7	
235.09	3672.7	
235.31	5840.1	
235.52	5366.4	
235.73	4108.9	
235.94	3431	
236.15	5190.2	
236.37	6681.8	
236.58	3586.7	
236.79	4010.6	
237	5826.5	
237.21	5014.8	
237.43	4309.6	
237.64	3358	
237.85	10086	
238.06	4977.2	
238.27	4306.2	
238.48	3431.7	
238.7	5853.1	
238.91	5324.7	
239.12	3974.4	
239.33	3947.1	
239.54	5065.3	
239.76	5453.1	
239.97	3927.3	
240.18	3994.2	
240.39	6947.4	
240.6	5754.1	
240.82	4101.4	
241.03	3385.3	
241.24	5484.5	
241.45	6386.9	
241.66	3627	
241.87	4278.2	
242.09	6213.5	
242.3	6634.7	
242.51	4397	
242.72	3970.3	
242.93	6067.4	
243.14	5439.4	
243.36	4666.6	
243.57	5046.9	
243.78	6415.6	
243.99	5901.6	
244.2	4023.6	
244.41	3693.2	
244.63	5030.5	
244.84	5831.9	
245.05	4284.4	
245.26	3967.6	
245.47	5778	
245.68	6063.4	
245.9	5315.2	
246.11	4270.7	
246.32	5352.7	
246.53	5759.6	
246.74	6550.8	
246.95	3303.4	
247.16	4945.2	
247.38	5509	
247.59	3323.9	
247.8	3973.1	
248.01	5156.1	
248.22	5410.1	
248.43	3579.2	
248.64	3890.5	
248.86	4838.7	
249.07	5264.6	
249.28	3502	
249.49	4083.6	
249.7	6071.5	
249.91	6242.2	
250.12	3292.5	
250.34	3351.2	
250.55	5598.5	
250.76	5502.9	
250.97	4083.6	
251.18	4179.2	
251.39	6269.5	
251.6	5685.8	
251.81	4184	
252.03	4226.3	
252.24	5210	
252.45	6080.4	
252.66	3394.2	
252.87	4445.5	
253.08	5499.5	
253.29	7280.5	
253.5	3426.3	
253.72	4896	
253.93	5309	
254.14	6578.8	
254.35	3820.8	
254.56	3969.6	
254.77	5806.7	
254.98	5104.9	
255.19	3790.1	
255.41	4876.2	
255.62	5550	
255.83	6214.2	
256.04	4339	
256.25	4221.5	
256.46	6864.1	
256.67	5159.5	
256.88	4113.7	
257.09	4610.7	
257.31	5159.5	
257.52	5147.2	
257.73	5199.8	
257.94	3743	
258.15	5303.6	
258.36	5507.7	
258.57	4745.8	
258.78	3012.6	
258.99	6122.7	
259.2	5356.8	
259.41	3869.3	
259.63	3893.2	
259.84	6364.4	
260.05	6867.5	
260.26	5013.4	
260.47	3689.1	
260.68	6096.8	
260.89	5436	
261.1	4632.5	
261.31	3603.7	
261.52	6105.7	
261.73	6499.6	
261.95	4890.5	
262.16	4273.4	
262.37	6271.6	
262.58	6356.9	
262.79	4909.7	
263	3894.6	
263.21	5508.4	
263.42	5008	
263.63	3921.2	
263.84	3820.8	
264.05	6073.6	
264.26	6479.8	
264.47	4805.9	
264.69	4403.8	
264.9	6217	
265.11	5746.6	
265.32	3674.1	
265.53	3814.7	
265.74	5665.4	
265.95	4860.5	
266.16	4098.7	
266.37	4500.8	
266.58	5639.4	
266.79	5312.4	
267	3764.2	
267.21	3537.5	
267.42	5068	
267.63	5493.3	
267.84	3966.9	
268.06	3375.1	
268.27	5928.9	
268.48	6198.5	
268.69	3857.7	
268.9	4580.6	
269.11	6283.2	
269.32	5000.5	
269.53	3962.8	
269.74	3704.1	
269.95	5911.8	
270.16	4845.5	
270.37	4022.2	
270.58	4671.4	
270.79	5345.9	
271	6032.6	
271.21	4245.4	
271.42	4004.5	
271.63	5648.3	
271.84	5177.9	
272.05	3203.7	
272.26	3571	
272.47	5578	
272.68	5783.5	
272.89	3812.6	
273.11	4444.1	
273.32	5298.8	
273.53	6496.8	
273.74	4326.7	
273.95	4209.9	
274.16	6199.9	
274.37	5541.8	
274.58	4388.8	
274.79	3458.3	
275	5633.3	
275.21	6229.9	
275.42	5258.5	
275.63	4475.5	
275.84	5814.2	
276.05	7314	
276.26	4229.1	
276.47	3924.6	
276.68	5360.2	
276.89	6538.5	
277.1	4546.5	
277.31	3512.3	
277.52	5766.4	
277.73	5934.3	
277.94	3400.3	
278.15	3833.1	
278.36	5737	
278.57	5100.8	
278.78	3784	
278.99	4283.7	
279.2	5088.5	
279.41	5038.7	
279.62	5115.8	
279.83	3524.6	
280.04	6754.9	
280.25	5044.1	
280.46	5008.6	
280.67	3975.1	
280.88	5063.9	
281.09	6220.4	
281.3	4160.8	
281.51	5328.8	
281.72	5164.3	
281.93	6051.7	
282.14	3715	
282.35	4047.5	
282.56	6046.3	
282.77	6024.4	
282.98	3885	
283.19	4780.6	
283.4	7424.6	
283.61	5438	
283.82	3524.6	
284.03	4949.9	
284.24	5597.1	
284.45	6195.1	
284.66	4985.4	
284.87	4739	
285.08	6084.5	
285.29	6294.1	
285.5	3343.7	
285.71	3924.6	
285.92	6153.5	
286.12	6849.1	
286.33	4853	
286.54	3900.7	
286.75	6026.5	
286.96	5356.8	
287.17	3540.3	
287.38	4876.2	
287.59	5124	
287.8	5046.9	
288.01	3907.5	
288.22	4558.8	
288.43	6056.5	
288.64	5020.9	
288.85	4631.1	
289.06	4441.4	
289.27	5926.8	
289.48	6504.3	
289.69	4944.5	
289.9	4483	
290.11	6238.8	
290.32	5227.8	
290.53	4728.8	
290.74	4323.3	
290.94	5946.6	
291.15	6044.2	
291.36	3720.5	
291.57	4451.6	
291.78	5228.5	
291.99	4902.2	
292.2	3562.8	
292.41	4331.5	
292.62	6093.4	
292.83	5879	
293.04	5403.9	
293.25	3573	
293.46	5298.8	
293.67	6106.4	
293.88	3736.2	
294.09	3624.9	
294.29	5022.3	
294.5	5752.7	
294.71	4020.2	
294.92	3833.8	
295.13	5250.3	
295.34	6673.6	
295.55	3346.4	
295.76	3433.8	
295.97	5927.5	
296.18	6731.7	
296.39	3522.5	
296.6	3777.1	
296.81	5622.4	
297.01	5949.3	
297.22	3886.4	
297.43	3749.1	
297.64	5131.5	
297.85	5137	
298.06	3097.2	
298.27	3317.7	
298.48	5615.5	
298.69	5220.3	
298.9	4007.2	
299.11	3700	
299.31	5018.9	
299.52	5071.5	
299.73	4346.5	
299.94	4297.3	
300.15	5543.2	
300.36	5111.7	
300.57	4293.9	
300.78	4267.3	
300.99	5398.4	
301.2	5696.8	
301.4	3715.7	
301.61	4081.6	
301.82	5885.9	
302.03	5963	
302.24	4565.6	
302.45	3562.1	
302.66	5769.1	
302.87	6368.5	
303.08	3693.2	
303.29	5141.8	
303.49	5227.1	
303.7	5540.4	
303.91	3327.3	
304.12	4939	
304.33	5004.6	
304.54	5642.8	
304.75	3790.8	
304.96	3618.1	
305.16	5881.1	
305.37	6677.1	
305.58	3245.3	
305.79	3400.3	
306	5844.2	
306.21	4872.1	
306.42	3735.5	
306.63	5775.3	
306.83	5405.3	
307.04	6115.2	
307.25	4121.9	
307.46	4103.4	
307.67	4690.5	
307.88	6049.7	
308.09	3670	
308.29	3836.5	
308.5	5597.1	
308.71	6152.8	
308.92	4049.5	
309.13	3618.1	
309.34	5396.4	
309.55	5442.1	
309.75	4657.1	
309.96	4278.2	
310.17	5919.3	
310.38	5170.4	
310.59	4511.7	
310.8	3566.9	
311.01	5311.1	
311.21	5388.9	
311.42	3601	
311.63	3673.4	
311.84	5251.7	
312.05	5670.8	
312.26	4142.4	
312.46	4629.1	
312.67	5306.3	
312.88	5053.7	
313.09	3630.4	
313.3	3543	
313.51	6376.7	
313.71	6666.8	
313.92	3583.9	
314.13	3833.8	
314.34	5763.7	
314.55	5432.6	
314.76	4657.8	
314.96	4057.7	
315.17	5631.2	
315.38	5947.3	
315.59	3611.3	
315.8	3410.6	
316.01	6395.8	
316.21	6449.7	
316.42	3518.4	
316.63	3966.9	
316.84	5399.1	
317.05	6240.8	
317.26	4289.1	
317.46	3852.2	
317.67	5439.4	
317.88	5933.6	
318.09	4655.7	
318.3	3313.6	
318.5	5243.5	
318.71	5863.3	
318.92	5951.4	
319.13	4252.3	
319.34	6030.6	
319.54	6226.5	
319.75	3363.4	
319.96	3204.4	
320.17	5952.1	
320.38	6105	
320.58	3261.7	
320.79	3969.6	
321	6103.6	
321.21	6217	
321.42	3991.5	
321.62	3315	
321.83	5050.3	
322.04	5508.4	
322.25	3865.9	
322.46	3622.9	
322.66	5614.8	
322.87	5747.3	
323.08	4528.7	
323.29	3561.4	
323.5	6627.9	
323.7	5065.3	
323.91	4980	
324.12	4431.1	
324.33	5635.3	
324.53	5823.1	
324.74	4245.4	
324.95	4565.6	
325.16	4910.3	
325.37	5365	
325.57	3601	
325.78	3706.8	
325.99	5558.9	
326.2	5004.6	
326.4	5173.2	
326.61	3316.3	
326.82	5457.2	
327.03	5612.1	
327.24	5119.9	
327.44	4875.5	
327.65	5744.6	
327.86	4671.4	
328.07	4288.4	
328.27	3475.4	
328.48	6229.9	
328.69	5143.8	
328.9	5253.7	
329.1	3971	
329.31	5437.4	
329.52	6383.5	
329.73	3601	
329.93	4075.5	
330.14	5525.4	
330.35	5786.2	
330.56	6032.6	
330.76	4526.7	
330.97	5343.2	
331.18	5758.9	
331.39	4036.5	
331.59	3276.1	
331.8	6115.2	
332.01	6280.4	
332.22	3749.1	
332.42	4320.5	
332.63	5628.5	
332.84	5253	
333.05	4027	
333.25	3711.6	
333.46	5310.4	
333.67	5466	
333.88	3814	
334.08	4260.5	
334.29	7418.4	
334.5	6231.3	
334.7	3504.8	
334.91	5232.6	
335.12	5036.6	
335.33	5954.1	
335.53	3987.4	
335.74	6011.5	
335.95	5266	
336.16	5119.9	
336.36	4084.3	
336.57	4662.5	
336.78	5027.1	
336.98	6195.1	
337.19	4956.1	
337.4	3970.3	
337.61	6722.8	
337.81	4988.2	
338.02	3685	
338.23	4818.9	
338.43	6369.9	
338.64	5137	
338.85	3640.6	
339.05	4790.2	
339.26	6402	
339.47	4952.7	
339.68	3704.1	
339.88	5480.4	
340.09	5744.6	
340.3	6090	
340.5	4252.3	
340.71	3237.8	
340.92	4977.2	
341.13	6273.6	
341.33	3532.7	
341.54	4313	
341.75	5735	
341.95	5427.1	
342.16	4112.3	
342.37	4412	
342.57	5042.1	
342.78	5449.6	
342.99	4587.4	
343.19	3240.6	
343.4	5901.6	
343.61	5786.2	
343.81	3844.7	
344.02	3550.5	
344.23	5956.2	
344.43	6428.6	
344.64	4531.5	
344.85	4436.6	
345.06	5782.8	
345.26	6180.1	
345.47	4216.1	
345.68	4902.2	
345.88	4846.2	
346.09	6027.9	
346.3	4341	
346.5	3190.1	
346.71	5510.4	
346.92	5202.5	
347.12	3303.4	
347.33	4248.9	
347.54	6113.9	
347.74	6547.4	
347.95	4187.4	
348.16	3107.5	
348.36	5300.1	
348.57	5203.9	
348.78	4156	
348.98	4500.8	
349.19	5438.7	
349.39	4947.2	
349.6	3303.4	
349.81	3708.9	
350.01	5760.9	
350.22	5165.7	
350.43	3984	
350.63	4900.8	
350.84	5580	
351.05	5304.9	
351.25	3654.3	
351.46	3254.9	
351.67	6019.7	
351.87	5225.7	
352.08	3888.4	
352.29	4449.6	
352.49	5976.7	
352.7	5648.3	
352.9	3502	
353.11	4363.5	
353.32	6635.4	
353.52	5281	
353.73	3482.2	
353.94	4458.4	
354.14	5786.9	
354.35	5645.6	
354.55	3566.9	
354.76	4032.5	
354.97	5842.2	
355.17	5535.7	
355.38	3368.9	
355.59	4766.3	
355.79	5137	
356	5591	
356.2	3986.7	
356.41	3411.2	
356.62	4958.8	
356.82	5414.1	
357.03	4246.8	
357.24	3781.2	
357.44	5198.4	
357.65	5276.9	
357.85	5152.7	
358.06	3971	
358.27	4870.1	
358.47	5123.3	
358.68	3284.3	
358.88	4244.8	
359.09	5763	
359.3	6124.1	
359.5	4939	
359.71	4347.8	
359.91	6623.8	
360.12	5945.3	
360.33	4186	
360.53	4672.8	
360.74	5137	
360.94	5169.8	
361.15	4412	
361.36	3583.9	
361.56	5909.1	
361.77	5302.2	
361.97	4878.3	
362.18	3836.5	
362.38	5953.4	
362.59	4990.2	
362.8	3534.1	
363	3280.2	
363.21	4722.6	
363.41	5511.1	
363.62	4034.5	
363.83	5148.6	
364.03	5509	
364.24	6521.4	
364.44	5238	
364.65	5177.3	
364.85	5289.2	
365.06	4897.4	
365.27	3714.3	
365.47	3646.7	
365.68	6307.7	
365.88	5273.5	
366.09	4090.5	
366.29	3751.9	
366.5	5522.7	
366.71	5988.3	
366.91	5094.7	
367.12	4190.8	
367.32	6662.7	
367.53	5836.7	
367.73	4145.8	
367.94	5218.9	
368.14	5754.8	
368.35	6765.1	
368.56	4216.8	
368.76	3505.4	
368.97	5892.7	
369.17	7621.2	
369.38	3668.6	
369.58	3975.8	
369.79	4939.7	
369.99	6214.9	
370.2	4962.9	
370.4	4053.6	
370.61	5511.8	
370.82	6830.7	
371.02	3904.1	
371.23	3168.2	
371.43	4763.6	
371.64	6178.7	
371.84	3880.2	
372.05	5208	
372.25	7465.5	
372.46	5825.1	
372.66	3876.8	
372.87	3872.7	
373.07	5964.4	
373.28	7544	
373.48	4967	
373.69	4654.4	
373.9	5330.2	
374.1	5372.5	
374.31	4834.6	
374.51	4300.1	
374.72	6174.6	
374.92	4999.8	
375.13	5027.8	
375.33	4227.7	
375.54	5711.8	
375.74	5136.3	
375.95	4203.8	
376.15	5512.4	
376.36	5746.6	
376.56	5551.4	
376.77	4311	
376.97	4730.8	
377.18	6762.4	
377.38	5760.9	
377.59	5074.9	
377.79	3698.6	
378	5515.9	
378.2	6008.7	
378.41	3758	
378.61	3647.4	
378.82	6077	
379.02	5043.5	
379.23	3877.5	
379.43	5104.9	
379.64	6066.1	
379.84	5710.4	
380.05	3650.2	
380.25	3680.2	
380.46	5803.3	
380.66	5307.7	
380.87	5173.2	
381.07	5543.9	
381.28	6462	
381.48	5828.5	
381.69	3764.8	
381.89	3850.9	
382.1	4750.6	
382.3	6011.5	
382.51	4960.9	
382.71	5904.3	
382.91	5907	
383.12	6395.8	
383.32	4209.9	
383.53	4460.5	
383.73	5739.8	
383.94	5445.5	
384.14	4346.5	
384.35	3407.8	
384.55	5382.1	
384.76	5851	
384.96	4184	
385.17	4650.9	
385.37	5784.8	
385.58	5152	
385.78	4598.4	
385.98	3353.2	
386.19	5326.1	
386.39	5683.8	
386.6	3937.6	
386.8	4182.6	
387.01	5836	
387.21	5840.1	
387.42	4614.8	
387.62	5248.3	
387.83	5136.3	
388.03	5836	
388.23	4188.8	
388.44	5085.8	
388.64	4846.2	
388.85	4870.1	
389.05	4569.7	
389.26	5183.4	
389.46	6804	
389.67	6248.4	
389.87	4538.3	
390.07	4607.9	
390.28	5435.3	
390.48	4992.3	
390.69	3715	
390.89	4077.5	
391.1	5164.3	
391.3	6152.1	
391.5	5357.5	
391.71	5971.9	
391.91	5915.9	
392.12	6976.1	
392.32	5342.5	
392.53	4612.7	
392.73	5193.6	
392.93	5461.9	
393.14	4240.7	
393.34	5421.7	
393.55	6007.4	
393.75	5477.6	
393.95	4237.2	
394.16	4177.2	
394.36	5143.8	
394.57	5890	
394.77	3635.8	
394.98	4116.4	
395.18	5134.3	
395.38	5299.5	
395.59	5024.3	
395.79	3857	
396	5227.8	
396.2	5712.5	
396.4	4756.1	
396.61	4677.6	
396.81	5895.4	
397.02	5157.5	
397.22	4941.1	
397.42	5053	
397.63	5885.9	
397.83	5094	
398.04	3737.5	
398.24	4288.4	
398.44	5653.1	
398.65	4674.8	
398.85	3652.2	
399.05	3737.5	
399.26	4932.2	
399.46	6834.1	
399.67	4163.5	
399.87	3815.4	
400.07	5334.3	
400.28	5757.5	
400.48	3928	
400.69	5016.8	
400.89	6457.2	
401.09	6342.6	
401.3	3770.3	
401.5	5019.6	
401.7	6655.2	
401.91	6933.7	
402.11	4173.8	
402.32	4434.5	
402.52	5978.7	
402.72	5943.2	
402.93	4638.6	
403.13	3421.5	
403.33	6839.5	
403.54	5488.6	
403.74	4336.2	
403.94	5297.4	
404.15	5552	
404.35	6827.9	
404.56	4092.5	
404.76	6049	
404.96	5961	
405.17	5737	
405.37	5388.9	
405.57	4595	
405.78	6014.2	
405.98	5492.7	
406.18	4076.8	
406.39	5011.4	
406.59	6018.3	
406.79	5563.6	
407	3898.6	
407.2	4026.3	
407.4	5961	
407.61	6126.2	
407.81	3945.1	
408.01	6408.8	
408.22	4824.3	
408.42	6901	
408.62	5008.6	
408.83	4344.4	
409.03	5410.7	
409.23	5212.1	
409.44	4493.2	
409.64	4772.4	
409.84	6328.9	
410.05	6201.9	
410.25	4546.5	
410.45	4274.1	
410.66	5541.1	
410.86	8182.3	
411.06	4732.2	
411.27	4564.9	
411.47	7865.6	
411.67	5694.7	
411.88	4833.2	
412.08	5018.2	
412.28	6424.5	
412.49	6884.6	
412.69	4427.7	
412.89	4465.3	
413.09	6703.7	
413.3	6527.6	
413.5	4573.1	
413.7	4173.1	
413.91	5784.1	
414.11	6604.7	
414.31	4366.3	
414.52	4743.1	
414.72	6257.9	
414.92	6149.4	
415.12	4399.7	
415.33	4879.6	
415.53	6563.1	
415.73	6748.1	
415.94	5354.8	
416.14	4659.8	
416.34	5458.5	
416.55	5270.8	
416.75	5887.9	
416.95	5292.6	
417.15	6513.9	
417.36	7283.9	
417.56	6113.9	
417.76	5049.6	
417.97	6889.4	
418.17	6532.3	
418.37	4655.7	
418.57	4711.7	
418.78	6279.8	
418.98	5971.2	
419.18	5599.8	
419.38	5578	
419.59	6092.7	
419.79	5613.5	
419.99	4627.7	
420.2	5073.5	
420.4	6491.4	
420.6	6784.9	
420.8	4459.8	
421.01	4349.2	
421.21	6324.8	
421.41	6591.7	
421.61	4950.6	
421.82	4615.4	
422.02	5782.1	
422.22	6909.8	
422.42	5327.4	
422.63	5134.9	
422.83	6046.3	
423.03	7217.7	
423.23	5076.9	
423.44	4029	
423.64	6128.2	
423.84	5864	
424.04	4581.3	
424.25	4143.7	
424.45	7055.3	
424.65	7049.8	
424.85	3958.7	
425.06	4569	
425.26	7018.4	
425.46	5440.8	
425.66	5165.7	
425.87	4831.8	
426.07	6819.7	
426.27	6721.4	
426.47	4947.9	
426.67	4307.6	
426.88	7183.6	
427.08	6637.5	
427.28	5205.3	
427.48	4237.9	
427.69	5395	
427.89	6095.4	
428.09	5132.2	
428.29	4300.1	
428.5	6908.5	
428.7	6319.3	
428.9	4138.9	
429.1	4630.5	
429.3	6238.1	
429.51	6708.5	
429.71	4479.6	
429.91	5319.9	
430.11	6550.8	
430.31	6735.8	
430.52	4797	
430.72	5071.5	
430.92	7055.9	
431.12	6547.4	
431.32	4394.9	
431.53	4863.9	
431.73	5388.9	
431.93	7237.5	
432.13	4340.3	
432.33	4138.9	
432.54	5879.7	
432.74	6324.1	
432.94	3984.7	
433.14	5178.6	
433.34	6448.4	
433.55	5874.3	
433.75	5083.7	
433.95	6991.8	
434.15	6147.3	
434.35	5857.9	
434.56	4274.1	
434.76	3710.9	
434.96	6163.7	
435.16	6402.6	
435.36	4089.8	
435.56	5306.3	
435.77	5726.8	
435.97	5928.2	
436.17	6076.3	
436.37	5188.2	
436.57	5714.5	
436.78	5557.5	
436.98	5195	
437.18	5817.6	
437.38	6377.4	
437.58	5984.2	
437.78	6092	
437.99	4584	
438.19	6544.6	
438.39	7293.5	
438.59	4491.2	
438.79	3950.5	
438.99	7241.6	
439.2	5988.9	
439.4	4113	
439.6	3988.1	
439.8	6292.7	
440	7312.6	
440.2	5091.3	
440.4	5253	
440.61	6605.4	
440.81	7206.8	
441.01	4191.5	
441.21	5178.6	
441.41	6935.8	
441.61	6565.8	
441.81	5406	
442.02	6584.2	
442.22	7580.9	
442.42	6600.6	
442.62	4278.9	
442.82	4343.7	
443.02	6935.8	
443.22	6052.4	
443.43	4724.7	
443.63	4184.7	
443.83	5790.3	
444.03	5879	
444.23	5461.2	
444.43	5109.7	
444.63	6137.1	
444.83	7447.8	
445.04	4296.6	
445.24	5700.9	
445.44	6609.5	
445.64	6709.1	
445.84	5220.3	
446.04	5212.8	
446.24	5960.3	
446.44	7047.7	
446.65	4405.2	
446.85	4776.5	
447.05	6339.1	
447.25	7010.9	
447.45	4916.5	
447.65	4237.2	
447.85	6229.9	
448.05	6008.7	
448.25	5392.3	
448.46	5154.7	
448.66	6268.8	
448.86	5969.1	
449.06	3953.3	
449.26	5329.5	
449.46	6647.7	
449.66	5593.7	
449.86	4806.6	
450.06	4721.3	
450.26	5873.6	
450.47	6449.7	
450.67	5074.2	
450.87	5408.7	
451.07	6513.2	
451.27	6281.8	
451.47	4292.5	
451.67	4854.4	
451.87	5913.9	
452.07	7142.6	
452.27	4476.2	
452.47	4566.3	
452.67	6293.4	
452.88	6751.5	
453.08	3891.8	
453.28	6008.1	
453.48	7458.7	
453.68	6239.5	
453.88	4333.5	
454.08	4622.9	
454.28	6584.9	
454.48	6167.1	
454.68	5214.8	
454.88	5792.3	
455.08	6632	
455.28	6275	
455.48	4285.7	
455.68	4752	
455.89	7107.1	
456.09	6713.2	
456.29	4595.6	
456.49	4581.3	
456.69	6912.6	
456.89	6460	
457.09	5079	
457.29	5405.3	
457.49	6505	
457.69	6598.6	
457.89	4829.8	
458.09	4238.6	
458.29	6130.3	
458.49	6956.9	
458.69	5252.4	
458.89	4692.6	
459.09	7140.6	
459.29	7245	
459.49	4803.2	
459.69	5638.7	
459.9	6763.8	
460.1	6115.9	
460.3	4683	
460.5	4399	
460.7	6660	
460.9	6318	
461.1	4011.3	
461.3	5396.4	
461.5	7238.2	
461.7	6919.4	
461.9	4403.1	
462.1	5031.2	
462.3	6268.8	
462.5	6916	
462.7	4511	
462.9	4580.6	
463.1	7963.9	
463.3	7518.8	
463.5	4696.7	
463.7	5696.1	
463.9	6419	
464.1	6770.6	
464.3	4814.8	
464.5	5119.9	
464.7	7087.3	
464.9	6687.3	
465.1	6454.5	
465.3	5414.1	
465.5	7508.5	
465.7	7303.1	
465.9	5636	
466.1	5591	
466.3	7097.6	
466.5	6942.6	
466.7	6383.5	
466.9	5139.7	
467.1	6847.7	
467.3	7806.2	
467.5	6231.3	
467.7	4990.2	
467.9	8073.8	
468.1	8974.2	
468.3	5890.6	
468.5	6327.5	
468.7	6724.2	
468.9	6718	
469.1	5324.7	
469.3	6069.5	
469.5	8855.4	
469.7	6258.6	
469.9	5922	
470.1	5062.6	
470.3	6720.1	
470.5	6755.6	
470.7	6482.5	
470.9	5176.6	
471.1	6490	
471.3	7070.3	
471.5	4894	
471.69	7096.2	
471.89	6351.4	
472.09	5982.8	
472.29	5838.1	
472.49	6353.5	
472.69	6110.5	
472.89	7021.1	
473.09	4886.5	
473.29	5096.7	
473.49	6382.8	
473.69	6561	
473.89	6135	
474.09	5173.2	
474.29	7907.2	
474.49	7552.9	
474.69	6046.3	
474.89	5353.4	
475.09	6554.9	
475.29	6518	
475.49	4760.2	
475.69	5003.2	
475.88	8345.5	
476.08	6894.8	
476.28	4666.6	
476.48	5334.3	
476.68	7370.6	
476.88	7295.5	
477.08	5071.5	
477.28	5399.1	
477.48	6720.8	
477.68	7513.3	
477.88	4788.8	
478.08	5242.1	
478.28	7710.6	
478.48	6810.9	
478.67	5246.2	
478.87	4739.7	
479.07	7491.5	
479.27	6969.2	
479.47	5547.3	
479.67	5464	
479.87	7351.5	
480.07	7893.6	
480.27	4717.8	
480.47	6445	
480.67	6985.6	
480.87	7588.4	
481.06	4977.9	
481.26	5836	
481.46	6877.8	
481.66	6858	
481.86	5526.1	
482.06	6595.1	
482.26	6531	
482.46	7734.5	
482.66	5423	
482.86	4971.1	
483.05	6991.1	
483.25	6297.5	
483.45	8019.2	
483.65	5450.3	
483.85	6503	
484.05	6864.8	
484.25	5859.9	
484.45	6342.6	
484.65	7855.3	
484.84	7664.9	
485.04	5246.2	
485.24	5283.1	
485.44	8017.1	
485.64	6197.8	
485.84	4489.1	
486.04	6001.2	
486.24	6567.2	
486.44	7032.7	
486.63	4436.6	
486.83	5301.5	
487.03	6391.7	
487.23	6618.4	
487.43	4669.4	
487.63	7019.1	
487.83	6672.3	
488.02	7690.8	
488.22	5647.6	
488.42	6184.2	
488.62	7577.5	
488.82	6456.6	
489.02	5256.5	
489.22	5203.9	
489.41	7509.9	
489.61	7073	
489.81	4953.4	
490.01	4964.3	
490.21	7326.3	
490.41	8062.9	
490.61	4908.3	
490.8	5050.3	
491	6836.8	
491.2	6152.1	
491.4	5769.8	
491.6	4765.6	
491.8	6808.1	
491.99	7051.2	
492.19	4547.9	
492.39	5055.1	
492.59	7352.9	
492.79	7435.5	
492.99	5813.5	
493.18	4881	
493.38	7432.1	
493.58	8163.9	
493.78	5617.6	
493.98	5173.9	
494.18	7075.7	
494.37	6477	
494.57	5730.9	
494.77	5720.7	
494.97	7191.8	
495.17	7428.7	
495.37	5130.2	
495.56	5466.7	
495.76	7669.6	
495.96	7236.2	
496.16	6398.5	
496.36	5238.7	
496.55	7404.8	
496.75	6948.8	
496.95	6189	
497.15	5481	
497.35	7395.2	
497.54	7341.3	
497.74	5279.7	
497.94	7082.6	
498.14	8095.6	
498.34	7823.9	
498.53	5004.6	
498.73	5859.2	
498.93	6670.9	
499.13	7369.3	
499.33	5535.7	
499.52	6179.4	
499.72	7131.7	
499.92	7604.1	
500.12	5180.7	
500.32	5449	
500.51	7523.6	
500.71	7305.1	
500.91	6270.2	
501.11	5819	
501.31	7435.5	
501.5	7837.6	
501.7	6540.5	
501.9	5462.6	
502.1	7260.7	
502.29	7518.8	
502.49	5951.4	
502.69	6470.2	
502.89	7500.3	
503.09	7442.3	
503.28	4973.8	
503.48	5124	
503.68	6659.3	
503.88	6760.3	
504.07	6240.8	
504.27	5707.7	
504.47	7082.6	
504.67	7306.5	
504.86	6107.7	
505.06	5797.8	
505.26	6818.4	
505.46	8731.9	
505.65	5717.2	
505.85	5967.1	
506.05	6769.2	
506.25	7238.2	
506.44	5093.3	
506.64	6070.2	
506.84	6735.1	
507.04	7757.7	
507.23	5218.9	
507.43	5906.3	
507.63	8864.3	
507.83	7068.9	
508.02	5974.6	
508.22	5518.6	
508.42	9116.9	
508.62	6782.2	
508.81	5865.4	
509.01	6414.9	
509.21	6690.7	
509.4	6975.4	
509.6	5965.7	
509.8	5345.2	
510	6918	
510.19	8480	
510.39	5253.7	
510.59	5300.1	
510.79	6714.6	
510.98	8148.9	
511.18	5406	
511.38	5572.5	
511.57	7595.2	
511.77	7521.5	
511.97	6300.2	
512.17	5219.6	
512.36	7557	
512.56	7576.8	
512.76	5213.4	
512.95	5023.7	
513.15	7601.4	
513.35	6226.5	
513.55	6199.2	
513.74	5266.7	
513.94	7624.6	
514.14	6944.7	
514.33	6250.4	
514.53	6032.6	
514.73	6883.2	
514.92	7108.5	
515.12	5515.9	
515.32	5262.6	
515.51	7161.1	
515.71	7844.4	
515.91	7011.6	
516.11	5398.4	
516.3	8929.1	
516.5	6723.5	
516.7	5960.3	
516.89	6563.7	
517.09	6976.7	
517.29	6847	
517.48	6207.4	
517.68	5606	
517.88	6621.8	
518.07	7249.1	
518.27	6102.9	
518.47	5111.7	
518.66	7903.1	
518.86	6446.3	
519.06	4940.4	
519.25	5436	
519.45	6782.9	
519.65	8331.8	
519.84	6095.4	
520.04	6828.6	
520.24	8787.8	
520.43	7473.7	
520.63	5877.7	
520.83	5614.8	
521.02	6690.7	
521.22	7358.4	
521.42	6181.5	
521.61	6719.4	
521.81	6899.6	
522.01	7196.6	
522.2	5998.5	
522.4	5705.6	
522.6	7630.7	
522.79	6350.8	
522.99	5761.6	
523.18	5053	
523.38	7252.5	
523.58	7237.5	
523.77	7058.7	
523.97	4946.5	
524.17	9220.6	
524.36	8204.2	
524.56	6440.2	
524.76	5938.4	
524.95	7198.6	
525.15	6774	
525.34	5754.1	
525.54	5760.3	
525.74	7546.8	
525.93	6491.4	
526.13	6984.9	
526.33	5502.9	
526.52	7894.9	
526.72	7224.6	
526.91	6963.1	
527.11	6175.3	
527.31	7882.6	
527.5	8329.1	
527.7	5980.1	
527.89	4947.2	
528.09	6714.6	
528.29	7207.5	
528.48	6424.5	
528.68	6029.2	
528.87	7700.4	
529.07	7812.3	
529.27	5949.3	
529.46	5500.2	
529.66	7266.9	
529.85	7839.6	
530.05	5296	
530.25	6132.3	
530.44	8754.4	
530.64	7315.3	
530.83	5713.8	
531.03	5945.9	
531.23	7578.8	
531.42	7488.7	
531.62	6731	
531.81	5897.5	
532.01	7723.6	
532.21	8256.7	
532.4	5520.6	
532.6	5937.7	
532.79	8839	
532.99	7752.9	
533.18	5896.1	
533.38	7034.8	
533.58	7140.6	
533.77	8224.6	
533.97	5825.1	
534.16	6709.8	
534.36	8289.5	
534.55	7279.2	
534.75	6900.3	
534.95	5899.5	
535.14	8097	
535.34	7293.5	
535.53	5552	
535.73	7732.4	
535.92	8738.7	
536.12	7520.1	
536.31	5697.4	
536.51	7029.3	
536.71	7829.4	
536.9	7349.5	
537.1	5896.1	
537.29	6004.6	
537.49	8346.8	
537.68	7236.2	
537.88	6376.7	
538.07	5556.8	
538.27	7413.6	
538.46	8576.2	
538.66	5446.9	
538.86	5925.5	
539.05	7514.7	
539.25	7885.4	
539.44	6180.8	
539.64	5881.1	
539.83	7426.6	
540.03	8480.6	
540.22	5705	
540.42	5900.9	
540.61	7687.4	
540.81	7767.9	
541	6420.4	
541.2	6941.2	
541.39	7271.7	
541.59	7630.7	
541.78	6662	
541.98	5746.6	
542.18	6849.1	
542.37	6883.2	
542.57	6311.2	
542.76	6740.5	
542.96	7045	
543.15	7774.1	
543.35	6292	
543.54	5519.3	
543.74	8101.1	
543.93	7696.3	
544.13	6268.8	
544.32	7421.2	
544.52	8006.2	
544.71	7217.7	
544.91	5329.5	
545.1	6642.9	
545.3	7199.3	
545.49	7909.3	
545.69	5281.7	
545.88	5887.9	
546.08	8909.3	
546.27	8529.8	
546.47	6487.3	
546.66	5765.7	
546.86	8122.2	
547.05	8852.7	
547.24	6011.5	
547.44	5751.4	
547.63	7071.6	
547.83	8260.1	
548.02	6184.2	
548.22	6497.5	
548.41	6911.9	
548.61	8270.4	
548.8	5733.6	
549	5783.5	
549.19	7658	
549.39	7954.3	
549.58	5418.9	
549.78	6066.8	
549.97	8079.9	
550.17	7483.3	
550.36	7070.3	
550.55	8013.7	
550.75	7482.6	
550.94	8507.3	
551.14	5747.3	
551.33	6152.1	
551.53	6868.2	
551.72	7882.6	
551.92	6250.4	
552.11	5924.1	
552.31	7890.8	
552.5	8009.6	
552.69	7733.1	
552.89	5566.4	
553.08	7903.1	
553.28	7441	
553.47	5997.8	
553.67	7148.1	
553.86	8682	
554.06	6806.8	
554.25	5089.9	
554.44	5751.4	
554.64	9456.8	
554.83	8876.6	
555.03	5738.4	
555.22	6122.7	
555.42	8093.6	
555.61	7744.7	
555.8	5934.3	
556	6235.4	
556.19	6913.3	
556.39	8374.1	
556.58	6053.1	
556.78	6059.9	
556.97	7719.5	
557.16	7468.9	
557.36	7260	
557.55	5650.3	
557.75	6649.8	
557.94	8462.9	
558.13	5784.8	
558.33	5500.2	
558.52	8338.6	
558.72	7164.5	
558.91	5630.5	
559.1	5884.5	
559.3	6860	
559.49	6499.6	
559.69	5241.4	
559.88	6300.9	
560.07	7637.6	
560.27	8054	
560.46	6479.1	
560.66	6584.2	
560.85	7477.1	
561.04	6702.3	
561.24	5591.6	
561.43	5870.8	
561.63	6933.7	
561.82	7249.1	
562.01	7106.5	
562.21	6175.3	
562.4	7639.6	
562.59	8695.7	
562.79	6034.7	
562.98	5578	
563.18	7608.2	
563.37	9092.3	
563.56	6568.5	
563.76	5470.1	
563.95	6956.9	
564.14	6916	
564.34	5862.7	
564.53	5722.7	
564.73	7553.6	
564.92	7905.2	
565.11	6061.3	
565.31	5358.2	
565.5	8151.6	
565.69	7012.9	
565.89	5623.7	
566.08	5925.5	
566.27	7974.1	
566.47	8360.5	
566.66	6579.4	
566.85	5148.6	
567.05	7572	
567.24	6911.2	
567.44	5494.7	
567.63	7045	
567.82	7864.9	
568.02	7476.5	
568.21	5603.9	
568.4	5954.1	
568.6	7342.7	
568.79	7359	
568.98	5382.7	
569.18	5556.8	
569.37	7414.3	
569.56	9400.9	
569.76	5885.9	
569.95	6924.9	
570.14	7794.6	
570.34	7649.2	
570.53	5339.7	
570.72	5334.3	
570.91	8193.2	
571.11	7291.5	
571.3	5930.2	
571.49	6833.4	
571.69	7279.8	
571.88	6838.2	
572.07	6428.6	
572.27	6385.6	
572.46	6836.1	
572.65	8002.1	
572.85	5591	
573.04	5966.4	
573.23	8124.3	
573.43	7335.1	
573.62	5252.4	
573.81	5965.1	
574	7392.5	
574.2	7227.3	
574.39	5612.1	
574.58	5824.4	
574.78	8272.4	
574.97	7510.6	
575.16	6209.4	
575.36	6417	
575.55	7803.4	
575.74	8017.8	
575.93	5258.5	
576.13	6445.6	
576.32	7167.9	
576.51	7793.2	
576.71	5740.5	
576.9	7079.1	
577.09	8165.3	
577.28	7610.9	
577.48	6090.7	
577.67	5144.5	
577.86	7238.9	
578.05	7561.8	
578.25	5853.1	
578.44	5971.9	
578.63	7376.8	
578.83	8605.6	
579.02	5231.2	
579.21	6838.9	
579.4	7568.6	
579.6	7218.4	
579.79	6064	
579.98	8264.9	
580.17	7982.3	
580.37	7905.8	
580.56	5453.1	
580.75	6225.1	
580.94	8458.8	
581.14	8318.2	
581.33	6677.1	
581.52	5545.9	
581.71	7673.1	
581.91	8431.5	
582.1	5201.8	
582.29	5875.6	
582.48	7361.1	
582.68	7290.1	
582.87	6351.4	
583.06	5911.8	
583.25	7658	
583.45	7491.5	
583.64	6604	
583.83	7412.3	
584.02	7172.7	
584.21	7606.8	
584.41	6646.3	
584.6	5818.3	
584.79	7375.4	
584.98	8140.7	
585.18	5365	
585.37	5367	
585.56	6888	
585.75	7688.8	
585.94	5613.5	
586.14	6281.8	
586.33	8421.2	
586.52	7322.9	
586.71	6109.1	
586.91	5851	
587.1	6752.8	
587.29	7893.6	
587.48	5822.4	
587.67	5654.4	
587.87	7781.6	
588.06	7815.7	
588.25	7166.5	
588.44	6443.6	
588.63	7475.1	
588.83	8013	
589.02	5823.7	
589.21	5790.3	
589.4	7251.2	
589.59	7111.2	
589.78	5066	
589.98	5264	
590.17	6763.8	
590.36	7393.2	
590.55	4768.4	
590.74	5711.8	
590.94	9021.3	
591.13	7334.5	
591.32	5386.2	
591.51	4956.1	
591.7	7811	
591.89	7300.3	
592.09	5120.6	
592.28	5577.3	
592.47	6483.2	
592.66	8427.4	
592.85	4999.8	
593.05	5319.3	
593.24	7041.6	
593.43	7826	
593.62	5331.5	
593.81	5816.2	
594	7059.3	
594.19	7361.1	
594.39	5287.9	
594.58	5152.7	
594.77	7392.5	
594.96	8064.9	
595.15	5157.5	
595.34	5806.7	
595.54	7577.5	
595.73	6604	
595.92	4510.3	
596.11	5713.8	
596.3	8088.1	
596.49	6621.1	
596.68	5509	
596.88	6025.1	
597.07	7736.5	
597.26	6477	
597.45	4995	
597.64	6274.3	
597.83	6733.7	
598.02	7389.8	
598.22	5160.2	
598.41	5822.4	
598.6	7224.6	
598.79	6620.4	
598.98	5152	
599.17	6171.2	
599.36	7225.2	
599.55	8467	
599.74	7284.6	
599.94	7079.1	
600.13	7829.4	
600.32	6524.8	
600.51	4904.2	
600.7	5119.2	
600.89	8540	
601.08	8540	
601.27	4847.5	
601.47	5928.2	
601.66	7773.4	
601.85	8435.6	
602.04	5578	
602.23	5913.2	
602.42	6737.1	
602.61	7413.6	
602.8	5504.9	
602.99	5194.3	
603.18	7115.3	
603.37	7424.6	
603.57	5920.7	
603.76	6503	
603.95	8171.4	
604.14	7724.3	
604.33	5265.3	
604.52	5672.2	
604.71	7288.7	
604.9	6941.2	
605.09	6294.1	
605.28	6132.3	
605.47	7958.4	
605.66	7653.9	
605.86	5952.8	
606.05	5287.2	
606.24	7927.7	
606.43	6365.8	
606.62	5631.2	
606.81	6451.1	
607	7804.8	
607.19	7059.3	
607.38	5173.2	
607.57	5360.2	
607.76	6909.8	
607.95	6244.9	
608.14	5801.9	
608.33	6489.3	
608.52	6893.5	
608.72	7812.3	
608.91	5018.9	
609.1	4931.5	
609.29	6946.7	
609.48	6503	
609.67	6069.5	
609.86	4939	
610.05	6547.4	
610.24	6973.3	
610.43	4819.6	
610.62	4481.6	
610.81	8181	
611	7860.8	
611.19	5013.4	
611.38	5749.3	
611.57	7291.5	
611.76	8626	
611.95	4818.9	
612.14	4687.1	
612.33	7045.7	
612.52	6479.8	
612.71	5473.5	
612.9	4533.5	
613.09	6143.9	
613.28	8561.2	
613.47	5173.9	
613.66	6083.8	
613.85	7170.6	
614.04	6713.9	
614.24	5158.2	
614.43	4343.1	
614.62	7273.7	
614.81	7187	
615	5806	
615.19	5700.2	
615.38	6563.7	
615.57	6861.4	
615.76	5540.4	
615.95	6611.5	
616.14	7307.2	
616.33	6909.2	
616.52	5890.6	
616.71	6163.7	
616.9	7207.5	
617.09	7047.7	
617.28	5246.9	
617.47	6771.9	
617.66	6300.2	
617.85	6236.7	
618.04	6142.5	
618.22	5563	
618.41	6630	
618.6	7576.8	
618.79	5399.1	
618.98	5149.3	
619.17	7842.4	
619.36	6139.8	
619.55	5240.8	
619.74	5278.3	
619.93	7178.1	
620.12	6554.2	
620.31	5907	
620.5	6042.2	
620.69	7699	
620.88	8131.8	
621.07	6794.5	
621.26	5732.9	
621.45	7296.2	
621.64	7315.3	
621.83	5870.8	
622.02	5038.7	
622.21	7292.1	
622.4	7123.5	
622.59	6410.8	
622.78	6173.9	
622.97	6561	
623.16	7585.7	
623.35	5727.5	
623.54	4869.4	
623.72	6852.5	
623.91	7016.3	
624.1	5976.7	
624.29	4669.4	
624.48	8038.3	
624.67	7306.5	
624.86	5887.9	
625.05	4939.7	
625.24	8208.3	
625.43	6496.2	
625.62	7726.3	
625.81	5133.6	
626	7615	
626.19	6771.3	
626.38	6012.8	
626.56	5315.8	
626.75	6693.4	
626.94	7445	
627.13	5991.7	
627.32	4642.7	
627.51	7324.9	
627.7	8738	
627.89	4792.2	
628.08	5981.4	
628.27	6491.4	
628.46	6750.1	
628.65	5097.4	
628.83	4712.4	
629.02	7337.9	
629.21	6526.9	
629.4	5528.2	
629.59	5737	
629.78	6493.4	
629.97	7572	
630.16	5739.1	
630.35	5195	
630.54	7977.5	
630.72	7707.2	
630.91	5296	
631.1	5838.1	
631.29	7193.1	
631.48	7245.7	
631.67	5919.3	
631.86	5341.1	
632.05	6707.1	
632.24	6718	
632.42	5035.3	
632.61	5601.2	
632.8	6851.8	
632.99	6454.5	
633.18	5610.8	
633.37	5999.2	
633.56	7167.9	
633.75	6935.8	
633.93	5562.3	
634.12	5248.9	
634.31	7936.6	
634.5	7587	
634.69	5299.5	
634.88	5918.6	
635.07	6794.5	
635.25	7453.2	
635.44	6264.7	
635.63	6460.7	
635.82	6685.3	
636.01	6191	
636.2	6210.8	
636.39	5729.5	
636.57	7903.1	
636.76	7542.7	
636.95	5060.5	
637.14	6612.9	
637.33	7237.5	
637.52	8289.5	
637.7	4868	
637.89	5918.6	
638.08	6784.2	
638.27	8290.9	
638.46	6004.6	
638.65	6442.2	
638.83	8327	
639.02	6558.3	
639.21	5915.9	
639.4	6414.2	
639.59	7163.8	
639.78	6744.6	
639.96	5169.8	
640.15	5160.9	
640.34	6981.5	
640.53	7187.7	
640.72	4913.1	
640.91	5378.6	
641.09	6407.4	
641.28	7902.4	
641.47	5293.3	
641.66	6173.9	
641.85	7083.9	
642.03	7425.3	
642.22	5864	
642.41	5378	
642.6	6568.5	
642.79	5899.5	
642.97	5238	
643.16	5982.1	
643.35	6513.9	
643.54	6326.2	
643.73	5040.1	
643.91	5956.9	
644.1	6244.9	
644.29	6864.1	
644.48	5196.4	
644.67	5266	
644.85	6545.3	
645.04	6842.3	
645.23	4810	
645.42	5123.3	
645.6	6426.5	
645.79	7612.3	
645.98	5169.8	
646.17	4153.3	
646.36	6139.1	
646.54	6779.5	
646.73	6111.8	
646.92	4858.5	
647.11	6420.4	
647.29	7535.2	
647.48	4876.9	
647.67	4711.7	
647.86	7837.6	
648.05	7765.2	
648.23	5230.5	
648.42	6596.5	
648.61	7167.2	
648.8	6810.9	
648.98	4919.2	
649.17	5180.7	
649.36	6447.7	
649.55	5827.8	
649.73	4971.1	
649.92	5717.9	
650.11	6279.8	
650.3	6696.9	
650.48	5077.6	
650.67	4786.1	
650.86	7053.9	
651.05	5863.3	
651.23	5118.6	
651.42	4985.4	
651.61	6417	
651.79	6520	
651.98	5229.8	
652.17	4865.3	
652.36	6864.8	
652.54	5903.6	
652.73	4885.8	
652.92	4774.5	
653.11	6926.9	
653.29	6976.1	
653.48	4182	
653.67	5253	
653.85	6751.5	
654.04	7871	
654.23	5567.1	
654.42	5031.2	
654.6	6348.7	
654.79	6982.2	
654.98	4486.4	
655.16	5161.6	
655.35	5875.6	
655.54	5841.5	
655.73	4599.7	
655.91	4477.5	
656.1	7157	
656.29	5767.8	
656.47	4150.6	
656.66	5913.9	
656.85	6059.9	
657.03	6138.4	
657.22	4622.3	
657.41	4713.1	
657.59	6189.6	
657.78	5905	
657.97	4323.9	
658.16	5128.1	
658.34	6842.9	
658.53	7196.6	
658.72	6023.1	
658.9	6645	
659.09	6229.9	
659.28	6401.3	
659.46	4779.3	
659.65	4713.7	
659.84	5976	
660.02	6566.5	
660.21	4601.8	
660.4	4586.1	
660.58	7035.5	
660.77	6414.9	
660.96	5154.1	
661.14	4276.8	
661.33	7595.9	
661.52	7441.6	
661.7	4205.8	
661.89	8112	
662.08	6023.1	
662.26	5597.1	
662.45	4453	
662.64	4674.1	
662.82	6746.7	
663.01	5887.2	
663.2	4661.2	
663.38	5437.4	
663.57	6734.4	
663.75	6541.9	
663.94	4990.2	
664.13	6419	
664.31	5966.4	
664.5	6754.2	
664.69	5201.2	
664.87	5803.9	
665.06	5769.8	
665.25	6487.3	
665.43	6066.8	
665.62	6151.4	
665.8	6966.5	
665.99	6158.9	
666.18	5023.7	
666.36	5083.7	
666.55	6805.4	
666.74	6707.8	
666.92	4616.1	
667.11	6369.9	
667.29	6141.9	
667.48	6768.5	
667.67	5960.3	
667.85	4848.9	
668.04	6217.6	
668.22	6198.5	
668.41	5008.6	
668.6	5210	
668.78	5982.1	
668.97	6181.5	
669.15	5489.2	
669.34	4345.8	
669.53	5937.7	
669.71	6309.8	
669.9	4582.7	
670.08	5233.9	
670.27	5911.8	
670.46	6594.5	
670.64	5559.6	
670.83	5760.9	
671.01	5868.1	
671.2	6584.2	
671.38	4612.7	
671.57	4515.1	
671.76	7262.1	
671.94	7813.7	
672.13	4475.5	
672.31	5718.6	
672.5	6774.7	
672.69	5989.6	
672.87	4599.7	
673.06	4920.6	
673.24	6569.9	
673.43	5953.4	
673.61	5525.4	
673.8	4902.8	
673.98	6700.3	
674.17	6907.8	
674.36	5543.2	
674.54	5434.6	
674.73	6565.1	
674.91	6772.6	
675.1	5062.6	
675.28	4673.5	
675.47	6305.7	
675.65	6801.3	
675.84	4920.6	
676.03	5270.8	
676.21	6025.1	
676.4	5528.2	
676.58	5741.8	
676.77	5517.9	
676.95	7589.8	
677.14	5951.4	
677.32	4612	
677.51	4405.9	
677.69	6875	
677.88	5636	
678.06	4422.2	
678.25	4562.9	
678.44	6318	
678.62	5965.7	
678.81	4282.3	
678.99	5339.7	
679.18	7162.4	
679.36	6651.8	
679.55	4923.3	
679.73	5560.9	
679.92	6694.8	
680.1	5997.8	
680.29	6213.5	
680.47	4952.7	
680.66	5990.3	
680.84	6849.1	
681.03	4165.6	
681.21	5369.1	
681.4	6046.3	
681.58	5911.8	
681.77	4676.2	
681.95	4599.7	
682.14	6909.2	
682.32	7249.1	
682.51	5589.6	
682.69	4366.3	
682.88	5976.7	
683.06	6704.4	
683.25	5272.2	
683.43	5803.9	
683.62	6266.1	
683.8	6692.8	
683.99	5821	
684.17	5233.9	
684.36	7630	
684.54	6303	
684.73	4413.4	
684.91	4601.1	
685.1	6607.4	
685.28	5958.2	
685.46	5303.6	
685.65	5400.5	
685.83	6944	
686.02	6235.4	
686.2	4680.3	
686.39	4862.6	
686.57	5859.2	
686.76	7582.9	
686.94	4676.2	
687.13	4849.6	
687.31	6796.5	
687.5	6176.7	
687.68	4262.5	
687.86	5621.7	
688.05	8031.5	
688.23	5629.2	
688.42	5656.5	
688.6	4755.4	
688.79	6042.2	
688.97	6070.2	
689.16	5196.4	
689.34	4052.9	
689.52	6845.7	
689.71	7048.4	
689.89	5442.8	
690.08	4687.8	
690.26	6346	
690.45	6214.9	
690.63	5657.9	
690.81	4884.4	
691	6062	
691.18	6016.2	
691.37	5060.5	
691.55	7345.4	
691.74	5999.9	
691.92	8165.3	
692.1	5014.8	
692.29	4496.7	
692.47	6228.6	
692.66	5453.7	
692.84	4652.3	
693.02	5284.4	
693.21	5591	
693.39	6141.9	
693.58	5333.6	
693.76	4744.5	
693.94	7458	
694.13	7086.7	
694.31	4743.1	
694.5	5829.2	
694.68	5929.6	
694.86	6189.6	
695.05	5039.4	
695.23	5500.8	
695.42	6687.3	
695.6	9073.2	
695.78	5664.7	
695.97	4689.8	
696.15	6645.7	
696.34	6077.7	
696.52	4513	
696.7	5411.4	
696.89	6485.2	
697.07	5857.9	
697.25	5332.9	
697.44	6874.3	
697.62	6417.7	
697.81	6842.3	
697.99	5010	
698.17	5505.6	
698.36	5769.8	
698.54	6494.1	
698.72	5348.6	
698.91	4362.9	
699.09	6044.9	
699.28	5881.1	
699.46	5040.1	
699.64	4882.4	
699.83	5795.1	
700.01	7306.5	
700.19	5709.7	
700.38	4032.5	
700.56	7179.5	
700.74	5901.6	
700.93	4463.9	
701.11	5369.8	
701.29	6608.8	
701.48	7667.6	
701.66	4724.7	
701.84	4725.3	
702.03	6003.3	
702.21	6704.4	
702.39	4319.2	
702.58	4930.1	
702.76	6488.6	
702.94	6582.2	
703.13	4362.2	
703.31	6796.5	
703.49	5771.9	
703.68	7298.3	
703.86	4524	
704.04	5530.9	
704.23	6270.9	
704.41	6720.1	
704.59	4693.3	
704.78	5989.6	
704.96	7500.3	
705.14	6772.6	
705.33	4426.3	
705.51	5371.8	
705.69	6156.2	
705.87	7042.3	
706.06	5606	
706.24	4422.2	
706.42	6541.2	
706.61	6764.4	
706.79	5679	
706.97	4460.5	
707.16	5898.8	
707.34	6567.8	
707.52	5623	
707.7	4774.5	
707.89	6095.4	
708.07	5819	
708.25	5661.3	
708.44	5844.9	
708.62	6059.9	
708.8	7256.6	
708.98	5997.1	
709.17	4815.5	
709.35	6500.3	
709.53	6440.2	
709.72	4514.4	
709.9	5082.4	
710.08	6737.8	
710.26	6740.5	
710.45	6358.9	
710.63	4883	
710.81	6479.1	
710.99	6522.8	
711.18	5610.8	
711.36	5047.6	
711.54	6287.9	
711.72	7053.9	
711.91	5201.8	
712.09	4504.2	
712.27	6468.9	
712.45	7187	
712.64	5492.7	
712.82	4401.8	
713	6003.3	
713.18	6111.1	
713.37	4577.9	
713.55	6121.4	
713.73	7104.4	
713.91	5687.9	
714.1	5186.8	
714.28	4624.3	
714.46	6856.6	
714.64	6075	
714.83	4004.5	
715.01	4936.3	
715.19	6209.4	
715.37	5502.9	
715.55	4632.5	
715.74	5026.4	
715.92	7235.5	
716.1	5109	
716.28	6128.9	
716.47	5215.5	
716.65	5855.8	
716.83	6038.8	
717.01	5068	
717.19	5186.8	
717.38	8163.9	
717.56	5543.2	
717.74	5335.6	
717.92	4356	
718.1	6912.6	
718.29	6021.7	
718.47	3914.4	
718.65	4607.2	
718.83	6707.8	
719.01	6622.4	
719.2	3755.3	
719.38	4946.5	
719.56	6285.9	
719.74	7960.5	
719.92	4446.1	
720.11	5599.1	
720.29	6423.8	
720.47	5492	
720.65	4175.8	
720.83	5023.7	
721.02	5845.6	
721.2	5658.5	
721.38	5153.4	
721.56	4338.3	
721.74	5150.6	
721.92	5416.9	
722.11	5687.2	
722.29	5403.2	
722.47	6662	
722.65	5796.4	
722.83	4390.2	
723.01	5428.5	
723.2	5920.7	
723.38	6238.1	
723.56	3775.1	
723.74	5040.1	
723.92	5383.4	
724.1	6636.1	
724.29	4294.6	
724.47	5575.9	
724.65	5470.1	
724.83	5357.5	
725.01	4194.9	
725.19	5200.5	
725.37	5451	
725.56	5589.6	
725.74	4083.6	
725.92	4304.8	
726.1	5356.1	
726.28	5727.5	
726.46	4790.2	
726.64	4519.2	
726.83	5739.1	
727.01	6022.4	
727.19	3978.5	
727.37	5005.9	
727.55	5837.4	
727.73	6404	
727.91	3994.9	
728.09	3854.3	
728.28	6490	
728.46	7125.6	
728.64	5085.1	
728.82	4989.5	
729	7520.1	
729.18	6683.9	
729.36	4162.8	
729.54	6636.8	
729.72	7864.2	
729.91	5952.1	
730.09	6184.9	
730.27	4831.8	
730.45	5854.5	
730.63	6559.6	
730.81	5528.2	
730.99	4485.1	
731.17	7124.9	
731.35	5627.1	
731.53	5070.1	
731.71	4610.7	
731.9	6773.3	
732.08	7043.6	
732.26	4962.9	
732.44	4539	
732.62	7082.6	
732.8	6584.9	
732.98	5399.1	
733.16	4339.6	
733.34	6553.5	
733.52	5253	
733.7	4908.3	
733.88	5236	
734.07	6441.5	
734.25	6124.8	
734.43	4287.8	
734.61	6096.1	
734.79	7745.4	
734.97	5961	
735.15	4493.9	
735.33	4898.7	
735.51	6399.2	
735.69	6038.8	
735.87	6186.2	
736.05	5143.1	
736.23	6232	
736.41	5922.7	
736.59	4960.9	
736.77	5037.3	
736.95	6724.8	
737.13	6115.9	
737.32	4519.2	
737.5	4780	
737.68	7344	
737.86	5954.8	
738.04	4289.1	
738.22	6427.9	
738.4	5795.8	
738.58	6081.1	
738.76	5031.9	
738.94	3898.6	
739.12	5888.6	
739.3	5767.1	
739.48	5743.2	
739.66	5394.3	
739.84	6205.3	
740.02	6161.7	
740.2	4042.7	
740.38	4375.1	
740.56	6608.1	
740.74	5346.6	
740.92	5115.8	
741.1	5023	
741.28	6018.3	
741.46	5845.6	
741.64	4652.3	
741.82	5206.6	
742	6066.1	
742.18	6046.3	
742.36	4945.2	
742.54	4483	
742.72	6660	
742.9	5276.9	
743.08	5388.2	
743.26	3966.2	
743.44	6895.5	
743.62	6658.6	
743.8	5467.4	
743.98	4486.4	
744.16	6471.6	
744.34	6087.9	
744.52	5428.5	
744.7	5369.1	
744.88	6558.3	
745.06	6068.1	
745.24	5505.6	
745.42	5602.6	
745.6	6644.3	
745.78	6394.4	
745.96	4214	
746.14	4506.9	
746.32	7495.6	
746.5	6731	
746.68	5150.6	
746.86	4646.8	
747.03	7212.3	
747.21	5360.9	
747.39	5231.9	
747.57	4592.2	
747.75	6303.6	
747.93	6726.9	
748.11	4631.8	
748.29	4492.6	
748.47	8016.4	
748.65	6012.8	
748.83	5420.3	
749.01	5086.5	
749.19	6516.6	
749.37	5623	
749.55	4968.4	
749.73	4981.3	
749.91	6142.5	
750.09	5843.5	
750.26	5071.5	
750.44	4408.6	
750.62	6244.3	
750.8	6174.6	
750.98	4259.1	
751.16	4679.6	
751.34	6201.9	
751.52	5544.5	
751.7	5459.9	
751.88	4222.9	
752.06	6840.2	
752.24	6544.6	
752.42	4227.7	
752.59	4584	
752.77	6160.3	
752.95	7458	
753.13	5417.6	
753.31	4692.6	
753.49	5806.7	
753.67	6326.2	
753.85	5057.8	
754.03	4595	
754.21	6615.6	
754.38	7008.1	
754.56	4855.7	
754.74	3807.2	
754.92	5875.6	
755.1	6649.8	
755.28	3875.4	
755.46	3924.6	
755.64	7449.8	
755.82	7580.9	
755.99	4304.8	
756.17	4448.9	
756.35	4976.6	
756.53	6669.6	
756.71	3263.1	
756.89	4307.6	
757.07	6206.7	
757.25	5273.5	
757.42	4856.4	
757.6	5834.7	
757.78	6219.7	
757.96	5164.3	
758.14	4441.4	
758.32	3966.2	
758.5	4720.6	
758.67	5676.3	
758.85	4259.1	
759.03	4467.3	
759.21	5812.8	
759.39	5214.8	
759.57	3825.6	
759.75	5132.9	
759.92	6512.5	
760.1	5634	
760.28	5462.6	
760.46	5707.7	
760.64	5464.7	
760.82	5096.7	
760.99	4988.9	
761.17	4363.5	
761.35	6305.7	
761.53	5189.6	
761.71	4468.7	
761.89	5224.4	
762.06	6197.8	
762.24	5642.2	
762.42	4610	
762.6	4330.8	
762.78	5635.3	
762.96	6328.9	
763.13	4968.4	
763.31	4652.3	
763.49	6522.8	
763.67	5476.3	
763.85	5512.4	
764.02	6150.1	
764.2	6746	
764.38	5885.9	
764.56	4473.4	
764.74	5438	
764.91	6877.1	
765.09	5771.2	
765.27	4129.4	
765.45	3941.7	
765.63	6863.4	
765.8	6804.7	
765.98	3575.8	
766.16	4055.7	
766.34	5244.8	
766.52	5044.8	
766.69	5039.4	
766.87	3842.7	
767.05	5694	
767.23	6479.1	
767.41	4188.1	
767.58	4427	
767.76	6359.6	
767.94	6399.2	
768.12	4286.4	
768.29	5157.5	
768.47	5783.5	
768.65	6598.6	
768.83	3986.7	
769	5141.8	
769.18	5254.4	
769.36	6189	
769.54	5128.8	
769.72	3981.9	
769.89	6353.5	
770.07	6574.7	
770.25	4332.8	
770.43	5631.9	
770.6	7268.2	
770.78	7692.9	
770.96	4532.2	
771.14	4374.5	
771.31	6304.3	
771.49	5638.1	
771.67	3633.1	
771.85	3905.5	
772.02	4823	
772.2	5634	
772.38	4662.5	
772.55	4168.3	
772.73	5913.2	
772.91	5676.3	
773.09	4560.1	
773.26	4701.5	
773.44	5849	
773.62	5472.2	
773.8	4025.6	
773.97	3751.2	
774.15	6001.9	
774.33	5562.3	
774.5	3949.2	
774.68	4382.7	
774.86	6170.5	
775.04	5544.5	
775.21	4055	
775.39	4091.8	
775.57	5898.1	
775.74	6383.5	
775.92	3889.1	
776.1	3772.4	
776.27	5930.9	
776.45	7212.3	
776.63	4017.4	
776.81	3515	
776.98	5465.3	
777.16	6675.7	
777.34	4180.6	
777.51	4573.8	
777.69	5413.5	
777.87	5313.8	
778.04	4238.6	
778.22	4928.8	
778.4	5260.5	
778.57	6043.6	
778.75	3472	
778.93	3821.5	
779.1	5049.6	
779.28	4949.3	
779.46	3493.2	
779.64	4078.9	
779.81	6158.9	
779.99	7134.4	
780.17	4971.1	
780.34	5057.1	
780.52	5467.4	
780.69	5812.1	
780.87	4429.8	
781.05	3872	
781.22	5639.4	
781.4	5772.5	
781.58	4098.7	
781.75	3238.5	
781.93	5707.7	
782.11	5050.3	
782.28	5050.3	
782.46	4064.5	
782.64	4900.1	
782.81	5812.1	
782.99	4166.3	
783.17	4156	
783.34	5790.3	
783.52	4922	
783.69	4374.5	
783.87	5307	
784.05	5059.8	
784.22	5107	
784.4	5235.3	
784.58	4490.5	
784.75	6079.7	
784.93	5107.6	
785.1	4140.3	
785.28	4882.4	
785.46	5724.8	
785.63	5070.8	
785.81	4052.2	
785.99	3936.9	
786.16	5208.7	
786.34	5697.4	
786.51	4024.9	
786.69	4441.4	
786.87	4805.9	
787.04	5411.4	
787.22	3840.6	
787.39	4859.8	
787.57	5054.4	
787.75	6315.9	
787.92	4975.2	
788.1	5025	
788.27	5113.1	
788.45	4832.5	
788.63	4720.6	
788.8	3273.3	
788.98	5576.6	
789.15	4820.2	
789.33	3401.7	
789.5	4124.6	
789.68	6112.5	
789.86	6234	
790.03	4624.3	
790.21	4021.5	
790.38	6046.3	
790.56	5260.5	
790.73	3889.1	
790.91	3852.9	
791.09	5089.2	
791.26	5922	
791.44	4109.6	
791.61	3536.8	
791.79	5051.7	
791.96	5194.3	
792.14	3710.9	
792.32	3166.2	
792.49	5104.9	
792.67	5251	
792.84	3778.5	
793.02	3577.8	
793.19	5566.4	
793.37	6402	
793.54	3222.8	
793.72	3628.3	
793.89	6520.7	
794.07	5162.9	
794.25	4138.9	
794.42	3333.4	
794.6	6196.5	
794.77	5840.1	
794.95	4551.3	
795.12	3946.4	
795.3	5110.4	
795.47	5754.8	
795.65	4403.8	
795.82	4207.9	
796	4867.3	
796.17	7051.8	
796.35	4057.7	
796.52	4799.1	
796.7	5668.1	
796.87	5830.6	
797.05	5093.3	
797.22	4969.7	
797.4	5720.7	
797.57	6841.6	
797.75	4252.9	
797.92	3962.1	
798.1	6111.1	
798.27	5059.8	
798.45	3336.8	
798.62	3682.2	
798.8	5449.6	
798.97	6006	
799.15	4446.8	
799.32	4190.8	
799.5	4682.3	
799.67	5545.9	
799.85	4556.7	
800.02	3213.3	
800.2	5024.3	
800.37	5406.6	
800.55	4831.8	
800.72	3984	
800.9	6004.6	
801.07	6445	
801.25	5360.2	
801.42	4408.6	
801.6	6018.3	
801.77	5709.1	
801.95	4010.6	
802.12	3860.4	
802.29	5709.7	
802.47	5644.9	
802.64	4267.3	
802.82	3222.1	
802.99	5079.6	
803.17	6113.9	
803.34	4188.1	
803.52	3801.7	
803.69	6903.7	
803.87	4860.5	
804.04	4155.3	
804.21	4265.9	
804.39	6261.3	
804.56	5287.2	
804.74	3539.6	
804.91	4440	
805.09	5060.5	
805.26	5299.5	
805.44	3621.5	
805.61	3987.4	
805.78	5797.1	
805.96	5840.1	
806.13	4385.4	
806.31	4726.7	
806.48	4612	
806.66	5239.4	
806.83	4384	
807	4240.7	
807.18	5112.4	
807.35	5560.9	
807.53	4259.1	
807.7	3345.7	
807.87	6357.6	
808.05	5182.7	
808.22	4728.8	
808.4	3301.3	
808.57	5145.9	
808.74	4787.5	
808.92	3891.8	
809.09	4934.2	
809.27	5046.2	
809.44	5675.6	
809.61	3432.4	
809.79	3855	
809.96	6423.8	
810.14	5981.4	
810.31	3286.3	
810.48	4099.4	
810.66	5332.9	
810.83	6074.3	
811.01	3898.6	
811.18	4353.3	
811.35	6025.8	
811.53	4511.7	
811.7	4775.9	
811.87	4377.2	
812.05	5171.1	
812.22	5100.1	
812.39	3768.3	
812.57	3635.1	
812.74	5168.4	
812.92	6949.4	
813.09	4096.6	
813.26	4470.7	
813.44	6657.9	
813.61	5104.2	
813.78	3369.6	
813.96	4630.5	
814.13	5248.9	
814.3	4851	
814.48	4950.6	
814.65	4115.7	
814.82	6488	
815	4898.7	
815.17	4222.2	
815.34	5242.1	
815.52	5006.6	
815.69	5102.9	
815.87	4220.9	
816.04	3606.5	
816.21	5239.4	
816.38	4513	
816.56	4044.1	
816.73	3792.2	
816.9	6565.1	
817.08	6029.9	
817.25	3764.2	
817.42	4815.5	
817.6	4748.6	
817.77	5264.6	
817.94	4294.6	
818.12	3720.5	
818.29	4906.9	
818.46	7808.2	
818.64	3927.3	
818.81	3686.3	
818.98	4826.4	
819.16	7161.7	
819.33	4527.4	
819.5	4183.3	
819.67	5587.5	
819.85	6269.5	
820.02	4154	
820.19	4397.7	
820.37	5412.8	
820.54	4978.6	
820.71	4273.4	
820.88	5318.6	
821.06	5476.3	
821.23	4943.1	
821.4	4305.5	
821.58	4250.2	
821.75	5926.8	
821.92	5340.4	
822.09	3424.2	
822.27	3514.3	
822.44	5210	
822.61	5094	
822.79	3428.3	
822.96	6724.8	
823.13	5769.1	
823.3	4896	
823.48	4011.3	
823.65	3600.3	
823.82	5982.1	
823.99	4732.2	
824.17	5141.1	
824.34	3631	
824.51	6847.7	
824.68	5258.5	
824.86	3799	
825.03	4278.9	
825.2	5245.5	
825.37	6356.9	
825.55	3790.8	
825.72	4220.9	
825.89	6999.3	
826.06	6451.1	
826.24	4124.6	
826.41	4041.3	
826.58	6269.5	
826.75	5530.2	
826.92	3185.3	
827.1	3620.1	
827.27	8723.7	
827.44	7000	
827.61	3905.5	
827.79	4762.9	
827.96	4833.9	
828.13	5334.3	
828.3	4024.3	
828.47	3409.9	
828.65	5437.4	
828.82	5382.7	
828.99	5356.8	
829.16	4650.9	
829.34	5795.1	
829.51	5586.9	
829.68	4209.9	
829.85	4397	
830.02	6178.7	
830.2	5846.3	
830.37	3263.1	
830.54	5158.8	
830.71	6694.8	
830.88	5174.5	
831.05	3266.5	
831.23	3788.7	
831.4	6322.8	
831.57	7202.7	
831.74	3877.5	
831.91	3414	
832.09	5438.7	
832.26	5813.5	
832.43	4037.9	
832.6	4586.1	
832.77	5422.3	
832.94	6221.7	
833.12	3219.4	
833.29	4040	
833.46	5605.3	
833.63	7432.1	
833.8	4431.1	
833.97	4074.8	
834.15	5835.3	
834.32	5573.9	
834.49	4227.7	
834.66	4354.7	
834.83	6090.7	
835	4900.1	
835.17	3960.1	
835.35	3936.9	
835.52	5695.4	
835.69	5593.7	
835.86	4154	
836.03	3387.3	
836.2	5795.1	
836.37	5329.5	
836.55	4066.6	
836.72	3743.7	
836.89	5299.5	
837.06	5896.1	
837.23	4222.2	
837.4	4582.7	
837.57	6682.5	
837.75	7475.1	
837.92	3699.3	
838.09	3971	
838.26	5311.1	
838.43	6146	
838.6	4222.9	
838.77	3846.8	
838.94	6989.7	
839.11	6753.5	
839.29	4083	
839.46	3260.4	
839.63	5756.8	
839.8	5506.3	
839.97	3904.8	
840.14	3931.4	
840.31	5542.5	
840.48	5811.5	
840.65	3226.9	
840.82	4004.5	
841	5859.2	
841.17	5819.6	
841.34	3590.1	
841.51	3648.1	
841.68	5737	
841.85	5470.1	
842.02	3735.5	
842.19	3142.9	
842.36	5554.1	
842.53	5490.6	
842.7	3659	
842.87	4505.5	
843.05	7435.5	
843.22	5508.4	
843.39	3428.3	
843.56	3713.6	
843.73	5281.7	
843.9	5894.7	
844.07	5971.2	
844.24	4937.7	
844.41	8728.4	
844.58	4980	
844.75	3510.2	
844.92	3858.4	
845.09	5784.1	
845.26	5776.6	
845.43	3608.5	
845.6	3856.3	
845.77	5773.9	
845.94	5528.8	
846.12	4048.8	
846.29	4212	
846.46	6035.4	
846.63	5821	
846.8	3633.1	
846.97	4328	
847.14	6303	
847.31	5771.9	
847.48	4066.6	
847.65	4510.3	
847.82	6172.6	
847.99	6125.5	
848.16	4863.2	
848.33	4501.4	
848.5	5353.4	
848.67	6341.9	
848.84	3609.2	
849.01	3747.1	
849.18	5141.8	
849.35	4835.9	
849.52	4615.4	
849.69	3547.1	
849.86	6009.4	
850.03	6231.3	
850.2	3639.9	
850.37	4433.9	
850.54	6249	
850.71	5464	
850.88	4352.6	
851.05	3532.7	
851.22	5730.9	
851.39	6398.5	
851.56	3418.1	
851.73	4126	
851.9	5042.1	
852.07	6021.7	
852.24	3990.1	
852.41	3606.5	
852.58	5659.9	
852.75	5104.9	
852.92	4049.5	
853.09	3481.5	
853.26	5361.6	
853.43	6279.8	
853.6	3587.4	
853.77	3053.5	
853.94	6425.2	
854.11	5732.3	
854.28	5383.4	
854.44	3926.6	
854.61	6862.1	
854.78	6159.6	
854.95	3605.8	
855.12	4611.3	
855.29	4610.7	
855.46	6408.1	
855.63	3591.5	
855.8	5081.7	
855.97	5347.2	
856.14	6186.2	
856.31	5164.3	
856.48	3928	
856.65	5323.4	
856.82	5085.8	
856.99	3472.7	
857.16	3928.7	
857.33	7166.5	
857.49	5411.4	
857.66	3892.5	
857.83	4173.8	
858	5375.2	
858.17	5661.3	
858.34	3372.3	
858.51	3558.7	
858.68	6523.5	
858.85	6580.8	
859.02	4230.4	
859.19	4547.9	
859.36	5029.8	
859.52	5122.7	
859.69	3624.2	
859.86	4298	
860.03	5177.3	
860.2	6433.4	
860.37	3251.5	
860.54	3686.3	
860.71	6000.5	
860.88	6445	
861.05	4078.2	
861.21	4536.3	
861.38	6550.8	
861.55	5016.2	
861.72	3206.4	
861.89	4034.5	
862.06	6122.7	
862.23	6617.7	
862.4	3536.8	
862.56	3804.4	
862.73	5922.7	
862.9	5530.2	
863.07	4225.6	
863.24	3248.1	
863.41	4999.1	
863.58	5063.9	
863.75	3700.7	
863.91	4157.4	
864.08	6485.2	
864.25	6008.1	
864.42	4556.7	
864.59	5081	
864.76	6775.4	
864.93	5080.3	
865.09	3479.5	
865.26	3889.1	
865.43	6358.9	
865.6	6773.3	
865.77	3128.6	
865.94	3581.9	
866.1	6360.3	
866.27	6083.1	
866.44	5444.2	
866.61	3400.3	
866.78	5454.4	
866.95	5961	
867.11	3495.2	
867.28	3153.2	
867.45	6188.3	
867.62	5098.8	
867.79	4317.1	
867.96	3590.8	
868.12	5061.2	
868.29	6163.7	
868.46	3069.9	
868.63	4806.6	
868.8	6287.3	
868.97	5991	
869.13	3775.8	
869.3	3760.8	
869.47	5914.5	
869.64	6185.5	
869.81	3633.8	
869.97	3577.8	
870.14	5831.9	
870.31	6614.3	
870.48	3622.2	
870.65	4546.5	
870.81	5366.4	
870.98	5356.1	
871.15	4048.8	
871.32	3734.1	
871.48	5865.4	
871.65	6623.8	
871.82	3583.9	
871.99	3947.8	
872.16	7024.5	
872.32	6365.8	
872.49	3612.6	
872.66	3660.4	
872.83	6047	
872.99	5316.5	
873.16	4115.7	
873.33	3533.4	
873.5	5640.1	
873.67	5627.8	
873.83	3795.6	
874	4874.8	
874.17	5788.9	
874.34	6948.8	
874.5	4657.1	
874.67	4529.4	
874.84	6606.7	
875.01	5057.1	
875.17	5097.4	
875.34	3582.6	
875.51	5720.7	
875.68	6930.3	
875.84	4331.5	
876.01	5359.5	
876.18	6009.4	
876.34	5896.8	
876.51	3593.5	
876.68	3547.8	
876.85	5470.8	
877.01	6337.1	
877.18	5214.1	
877.35	3564.8	
877.52	5562.3	
877.68	4986.8	
877.85	3483.6	
878.02	3536.2	
878.18	5554.1	
878.35	5273.5	
878.52	2842.6	
878.69	4050.9	
878.85	6037.4	
879.02	6002.6	
879.19	5127.4	
879.35	3929.4	
879.52	6024.4	
879.69	6266.1	
879.86	3106.1	
880.02	4036.5	
880.19	5550	
880.36	6908.5	
880.52	4134.2	
880.69	4287.1	
880.86	6127.5	
881.02	6148.7	
881.19	3926.6	
881.36	3981.3	
881.52	6017.6	
881.69	5275.6	
881.86	3876.8	
882.02	3814	
882.19	6305	
882.36	7468.3	
882.52	3652.2	
882.69	5162.9	
882.86	5794.4	
883.02	5627.1	
883.19	4471.4	
883.36	4176.5	
883.52	6147.3	
883.69	6993.8	
883.86	3685.7	
884.02	3271.3	
884.19	6072.9	
884.36	5559.6	
884.52	4117.8	
884.69	3821.5	
884.86	5296.7	
885.02	6727.6	
885.19	4095.9	
885.36	4167.6	
885.52	5640.1	
885.69	5735.7	
885.86	5249.6	
886.02	4646.8	
886.19	6084.5	
886.35	5551.4	
886.52	3996.3	
886.69	5063.3	
886.85	5122	
887.02	6498.2	
887.19	6498.2	
887.35	6498.2	
887.52	6498.2	
887.68	6498.2	
887.85	6498.2	
888.02	6498.2	
888.18	6498.2	
888.35	6498.2	
888.51	6498.2	
888.68	6498.2	
888.85	6498.2	
889.01	6498.2	
889.18	6498.2	
889.35	6498.2	
889.51	6498.2	
889.68	6498.2	
889.84	6498.2	
890.01	6498.2	
890.17	6498.2	
890.34	6498.2	
890.51	6498.2	
890.67	6498.2	
890.84	6498.2	
891	6498.2	
891.17	6498.2	
891.34	6498.2	
891.5	6498.2	
891.67	6498.2	
891.83	6498.2	
892	6498.2	
892.16	6498.2	
892.33	6498.2	
892.5	6498.2	
892.66	6498.2	
892.83	6498.2	
892.99	6498.2	
893.16	6498.2	
893.32	6498.2	
893.49	6498.2	
893.65	6498.2	
893.82	6498.2	
893.99	6498.2	
894.15	6498.2	
894.32	6498.2	
894.48	6498.2	
894.65	6498.2	
894.81	6498.2	
894.98	6498.2	
895.14	6498.2	
895.31	6498.2	
895.47	6498.2	
895.64	6498.2	
895.81	6498.2	
895.97	6498.2	
896.14	6498.2	
896.3	6498.2	
896.47	6498.2	
896.63	6498.2	
896.8	6498.2	
896.96	6498.2	
897.13	6498.2	
897.29	6498.2	
897.46	6498.2	
897.62	6498.2	
897.79	6498.2	
897.95	6498.2	
898.12	6498.2	
898.28	6498.2	
898.45	6498.2	
898.61	6498.2	
898.78	6498.2	
898.94	6498.2	
899.11	6498.2	
899.27	6498.2	
899.44	6498.2	
899.6	6498.2	
899.77	6498.2	
899.93	6498.2	
900.1	6498.2	
900.26	6498.2	
900.43	6498.2	
900.59	6498.2	
900.76	6498.2	
900.92	6498.2	
901.09	6498.2	
901.25	6498.2	
901.42	6498.2	
901.58	6498.2	
901.75	6498.2	
901.91	6498.2	
902.07	6498.2	
902.24	6498.2	
902.4	6498.2	
902.57	6498.2	
902.73	6498.2	
902.9	6498.2	
903.06	6498.2	
903.23	6498.2	
903.39	6498.2	
903.56	6498.2	
903.72	6498.2	
903.88	6498.2	
904.05	6498.2	
904.21	6498.2	
904.38	6498.2	
904.54	6498.2	
904.71	6498.2	
904.87	6498.2	
905.03	6498.2	
905.2	6498.2	
905.36	6498.2	
905.53	6498.2	
905.69	6498.2	
905.86	6498.2	
906.02	6498.2	
906.18	6498.2	
906.35	6498.2	
906.51	6498.2	
906.68	6498.2	
906.84	6498.2	
907.01	6498.2	
907.17	6498.2	
907.33	6498.2	
907.5	6498.2	
907.66	6498.2	
907.83	6498.2	
907.99	6498.2	
908.15	6498.2	
908.32	6498.2	
908.48	6498.2	
908.65	6498.2	
908.81	6498.2	
908.97	6498.2	
909.14	6498.2	
909.3	6498.2	
909.47	6498.2	
909.63	6498.2	
909.79	6498.2	
909.96	6498.2	
910.12	6498.2	
910.28	6498.2	
910.45	6498.2	
910.61	6498.2	
910.78	6498.2	
910.94	6498.2	
911.1	6498.2	
911.27	6498.2	
911.43	6498.2	
911.59	6498.2	
911.76	6498.2	
911.92	6498.2	
912.08	6498.2	
912.25	6498.2	
912.41	6498.2	
912.57	6498.2	
912.74	6498.2	
912.9	6498.2	
913.07	6498.2	
913.23	6498.2	
913.39	6498.2	
913.56	6498.2	
913.72	6498.2	
913.88	6498.2	
914.05	6498.2	
914.21	6498.2	
914.37	6498.2	
914.54	6498.2	
914.7	6498.2	
914.86	6498.2	
915.03	6498.2	
915.19	6498.2	
