Wavelength	Intensities	
nm	a.u.	
179.22	1695.9	
179.44	1699.5	
179.65	1692.3	
179.86	1706.6	
180.08	1708	
180.29	3998.3	
180.51	3079.5	
180.72	5020.3	
180.94	5651	
181.15	2770.2	
181.37	2750.4	
181.58	4868.7	
181.79	5068	
182.01	2920.4	
182.22	3021.4	
182.44	5044.8	
182.65	4380.6	
182.87	3746.4	
183.08	3345	
183.29	5332.2	
183.51	4465.9	
183.72	3069.2	
183.94	4289.1	
184.15	4792.2	
184.37	4786.8	
184.58	2734.7	
184.79	3584.6	
185.01	4528.1	
185.22	5104.2	
185.44	3763.5	
185.65	3238.5	
185.86	4776.5	
186.08	4433.9	
186.29	2709.5	
186.51	2857.6	
186.72	4556	
186.94	5175.2	
187.15	3281.5	
187.36	3293.1	
187.58	6489.3	
187.79	4861.9	
188.01	3392.1	
188.22	5122.7	
188.43	5733.6	
188.65	5064.6	
188.86	2895.1	
189.08	3334.8	
189.29	4648.9	
189.5	4615.4	
189.72	3110.2	
189.93	3163.4	
190.15	5225.1	
190.36	6139.8	
190.57	3392.1	
190.79	3259.7	
191	5272.2	
191.22	5226.4	
191.43	3445.4	
191.64	2926.5	
191.86	5435.3	
192.07	5233.2	
192.29	3000.3	
192.5	3065.1	
192.71	5225.1	
192.93	4625.7	
193.14	3089.7	
193.35	3176.4	
193.57	4617.5	
193.78	5239.4	
194	2562.7	
194.21	3076	
194.42	4449.6	
194.64	4816.1	
194.85	3327.9	
195.07	3755.3	
195.28	4738.3	
195.49	4268	
195.71	4016.7	
195.92	2902	
196.13	4977.9	
196.35	4990.2	
196.56	4270.7	
196.78	3360.7	
196.99	6025.8	
197.2	5639.4	
197.42	3699.3	
197.63	3374.4	
197.84	4399	
198.06	4969.7	
198.27	3100.6	
198.48	3997	
198.7	4668.7	
198.91	4803.2	
199.13	3335.5	
199.34	3384.6	
199.55	5219.6	
199.77	4211.3	
199.98	3006.4	
200.19	3394.2	
200.41	4803.2	
200.62	4513.7	
200.83	3450.8	
201.05	3690.4	
201.26	4758.1	
201.47	4549.2	
201.69	3036.5	
201.9	2961.4	
202.11	4816.8	
202.33	5518.6	
202.54	3160.7	
202.76	3562.8	
202.97	4861.2	
203.18	4909	
203.4	3482.9	
203.61	3502	
203.82	4842.8	
204.04	4511	
204.25	3442.6	
204.46	3321.8	
204.68	4776.5	
204.89	4961.5	
205.1	3260.4	
205.32	2873.3	
205.53	5037.3	
205.74	5209.3	
205.96	2541.5	
206.17	3383.2	
206.38	5080.3	
206.6	5172.5	
206.81	3809.9	
207.02	3147.7	
207.24	5012.1	
207.45	5283.8	
207.66	3282.2	
207.88	2816	
208.09	4967	
208.3	4779.3	
208.52	2977.7	
208.73	3226.9	
208.94	4825	
209.15	5328.8	
209.37	3222.8	
209.58	3588	
209.79	5253.7	
210.01	4710.3	
210.22	2656.9	
210.43	2816	
210.65	4743.8	
210.86	5042.1	
211.07	3269.9	
211.29	2975	
211.5	5063.9	
211.71	4748.6	
211.93	3012.6	
212.14	3033	
212.35	4802.5	
212.56	4842.8	
212.78	3326.6	
212.99	2847.4	
213.2	5477.6	
213.42	4614.8	
213.63	3065.8	
213.84	3278.1	
214.06	4341	
214.27	4404.5	
214.48	3194.8	
214.69	3425.6	
214.91	5341.1	
215.12	5398.4	
215.33	3351.2	
215.55	3736.9	
215.76	5728.2	
215.97	5091.3	
216.18	3336.8	
216.4	3258.3	
216.61	4560.1	
216.82	5120.6	
217.04	3009.1	
217.25	3113.6	
217.46	5291.3	
217.67	5104.9	
217.89	2740.2	
218.1	2837.8	
218.31	4874.8	
218.53	4968.4	
218.74	3137.5	
218.95	3080.1	
219.16	4800.4	
219.38	5500.2	
219.59	3044.6	
219.8	3567.6	
220.01	5882.4	
220.23	4915.1	
220.44	3799.7	
220.65	2962.7	
220.87	4850.3	
221.08	5293.3	
221.29	2822.1	
221.5	3596.9	
221.72	6215.6	
221.93	4548.5	
222.14	3409.9	
222.35	3940.3	
222.57	4846.2	
222.78	5128.8	
222.99	3261	
223.2	3480.9	
223.42	5041.4	
223.63	5111.7	
223.84	2552.5	
224.05	2592	
224.27	5875.6	
224.48	5472.9	
224.69	3829	
224.9	3345	
225.12	4979.3	
225.33	4835.9	
225.54	2790.7	
225.75	3090.4	
225.97	4481.6	
226.18	4767	
226.39	3220.8	
226.6	3065.1	
226.82	4633.2	
227.03	4552	
227.24	3371	
227.45	2846	
227.67	5057.8	
227.88	5488.6	
228.09	3769.6	
228.3	3741	
228.52	5143.8	
228.73	4759.5	
228.94	3116.3	
229.15	2837.1	
229.36	4748.6	
229.58	4719.9	
229.79	3198.2	
230	3573	
230.21	5597.1	
230.43	4849.6	
230.64	3360	
230.85	3435.1	
231.06	5163.6	
231.28	5085.1	
231.49	2850.1	
231.7	3328.6	
231.91	5004.6	
232.12	4823.6	
232.34	2929.3	
232.55	3222.8	
232.76	5244.8	
232.97	4934.9	
233.18	2983.9	
233.4	3334.8	
233.61	4948.6	
233.82	4644.8	
234.03	3126.6	
234.25	3082.9	
234.46	6382.8	
234.67	4809.3	
234.88	3399.6	
235.09	3081.5	
235.31	5001.1	
235.52	4710.3	
235.73	3334.8	
235.94	2897.2	
236.15	4599.1	
236.37	5593	
236.58	3018.7	
236.79	3215.3	
237	5081.7	
237.21	4416.1	
237.43	3442.6	
237.64	2787.3	
237.85	7903.8	
238.06	4465.3	
238.27	3388	
238.48	2920.4	
238.7	5065.3	
238.91	4736.3	
239.12	3160.7	
239.33	3344.3	
239.54	4597.7	
239.76	4749.2	
239.97	3215.3	
240.18	3251.5	
240.39	5735.7	
240.6	4943.8	
240.82	3348.4	
241.03	2850.1	
241.24	4711	
241.45	5420.3	
241.66	3004.4	
241.87	3493.8	
242.09	5418.9	
242.3	5572.5	
242.51	3502.7	
242.72	3205.8	
242.93	5096.7	
243.14	4752.7	
243.36	3709.6	
243.57	3956.7	
243.78	5470.1	
243.99	5042.8	
244.2	3220.8	
244.41	2935.4	
244.63	4487.1	
244.84	5017.5	
245.05	3419.4	
245.26	3295.2	
245.47	5026.4	
245.68	5123.3	
245.9	4179.2	
246.11	3362.1	
246.32	4657.1	
246.53	5011.4	
246.74	5106.3	
246.95	2759.3	
247.16	4502.8	
247.38	4801.8	
247.59	2775.7	
247.8	3265.8	
248.01	4479.6	
248.22	4771.8	
248.43	2984.6	
248.64	3208.5	
248.86	4415.4	
249.07	4635.2	
249.28	2961.4	
249.49	3330.7	
249.7	5195	
249.91	5239.4	
250.12	2765.4	
250.34	2820.1	
250.55	4900.8	
250.76	4828.4	
250.97	3347.1	
251.18	3388	
251.39	5316.5	
251.6	4949.3	
251.81	3422.8	
252.03	3386	
252.24	4603.8	
252.45	5115.1	
252.66	2909.5	
252.87	3491.1	
253.08	4823.6	
253.29	6011.5	
253.5	2912.9	
253.72	3863.8	
253.93	4727.4	
254.14	5544.5	
254.35	3132	
254.56	3119.1	
254.77	5020.3	
254.98	4500.1	
255.19	3136.1	
255.41	3825.6	
255.62	4916.5	
255.83	5266.7	
256.04	3431.7	
256.25	3368.9	
256.46	5698.1	
256.67	4616.8	
256.88	3349.1	
257.09	3667.2	
257.31	4496	
257.52	4537.6	
257.73	4093.2	
257.94	3103.4	
258.15	4773.1	
258.36	4789.5	
258.57	3778.5	
258.78	2547	
258.99	5167.7	
259.2	4694.6	
259.41	3136.8	
259.63	3216.7	
259.84	5440.8	
260.05	5688.6	
260.26	3873.4	
260.47	3059.7	
260.68	5272.2	
260.89	4689.8	
261.1	3699.3	
261.31	3009.1	
261.52	5313.1	
261.73	5533.6	
261.95	3964.9	
262.16	3509.5	
262.37	5300.1	
262.58	5395.7	
262.79	3920.5	
263	3147.7	
263.21	4840.7	
263.42	4624.3	
263.63	3414	
263.84	3162.1	
264.05	5175.2	
264.26	5403.9	
264.47	3820.1	
264.69	3360.7	
264.9	5403.2	
265.11	5147.2	
265.32	3030.3	
265.53	3096.5	
265.74	4903.5	
265.95	4345.1	
266.16	3278.1	
266.37	3580.5	
266.58	4947.2	
266.79	4623.6	
267	3096.5	
267.21	2911.5	
267.42	4515.1	
267.63	4833.9	
267.84	3224.2	
268.06	2815.3	
268.27	5229.1	
268.48	5325.4	
268.69	3207.1	
268.9	3688.4	
269.11	5351.3	
269.32	4381.3	
269.53	3235.1	
269.74	3040.6	
269.95	5012.1	
270.16	4315.1	
270.37	3248.1	
270.58	3741.6	
270.79	4697.4	
271	5221	
271.21	3447.4	
271.42	3302.7	
271.63	4946.5	
271.84	4498.7	
272.05	2711.5	
272.26	2979.1	
272.47	4810	
272.68	4923.3	
272.89	3184.6	
273.11	3513.6	
273.32	4595	
273.53	5446.2	
273.74	3444	
273.95	3415.3	
274.16	5201.2	
274.37	4811.4	
274.58	3567.6	
274.79	2925.9	
275	4916.5	
275.21	5240.8	
275.42	4150.5	
275.63	3553.9	
275.84	4971.1	
276.05	6100.9	
276.26	3409.2	
276.47	3191.4	
276.68	4753.3	
276.89	5587.5	
277.1	3586	
277.31	2952.5	
277.52	4966.3	
277.73	5221	
277.94	2828.9	
278.15	3119.1	
278.36	4986.8	
278.57	4571.1	
278.78	3084.2	
278.99	3485.6	
279.2	4614.1	
279.41	4519.9	
279.62	4067.3	
279.83	2983.9	
280.04	5750.7	
280.25	4481.6	
280.46	3939.6	
280.67	3222.1	
280.88	4506.2	
281.09	5358.9	
281.3	3399.6	
281.51	4166.3	
281.72	4579.3	
281.93	5168.4	
282.14	3093.1	
282.35	3280.8	
282.56	5204.6	
282.77	5181.4	
282.98	3164.1	
283.19	3727.3	
283.4	6146.6	
283.61	4739	
283.82	2938.2	
284.03	4026.3	
284.24	4958.8	
284.45	5244.8	
284.66	3938.2	
284.87	3792.8	
285.08	5281.7	
285.29	5360.9	
285.5	2853.5	
285.71	3225.6	
285.92	5251.7	
286.12	5767.8	
286.33	3929.4	
286.54	3193.5	
286.75	5202.5	
286.96	4762.2	
287.17	2951.8	
287.38	3779.2	
287.59	4575.2	
287.8	4586.8	
288.01	3202.3	
288.22	3587.4	
288.43	5126.1	
288.64	4422.2	
288.85	3711.6	
289.06	3523.2	
289.27	5150	
289.48	5472.9	
289.69	3958.7	
289.9	3634.5	
290.11	5374.6	
290.32	4626.4	
290.53	3707.5	
290.74	3418.7	
290.94	5137	
291.15	5200.5	
291.36	3084.9	
291.57	3586.7	
291.78	4655	
291.99	4338.3	
292.2	3024.8	
292.41	3450.1	
292.62	5238	
292.83	5100.1	
293.04	4197.7	
293.25	3039.9	
293.46	4709	
293.67	5265.3	
293.88	3024.2	
294.09	2983.9	
294.29	4506.2	
294.5	4917.9	
294.71	3267.2	
294.92	3119.1	
295.13	4704.2	
295.34	5706.3	
295.55	2813.2	
295.76	2777.7	
295.97	5123.3	
296.18	5660.6	
296.39	2919.7	
296.6	3048.1	
296.81	4844.1	
297.01	5172.5	
297.22	3161.4	
297.43	3102.7	
297.64	4659.1	
297.85	4579.3	
298.06	2613.9	
298.27	2810.5	
298.48	4795.7	
298.69	4608.6	
298.9	3269.2	
299.11	3031.7	
299.31	4503.5	
299.52	4521.9	
299.73	3561.4	
299.94	3439.9	
300.15	4798.4	
300.36	4543.1	
300.57	3423.5	
300.78	3412.6	
300.99	4726.7	
301.2	4921.3	
301.4	3067.2	
301.61	3295.9	
301.82	5033.9	
302.03	5153.4	
302.24	3693.9	
302.45	2941.6	
302.66	5066.7	
302.87	5280.3	
303.08	3115.6	
303.29	4052.9	
303.49	4685.1	
303.7	4797	
303.91	2835.8	
304.12	3868.6	
304.33	4410.6	
304.54	4945.8	
304.75	3031	
304.96	2936.8	
305.16	5079.6	
305.37	5599.8	
305.58	2779.1	
305.79	2837.8	
306	5043.5	
306.21	4366.3	
306.42	3107.5	
306.63	4484.4	
306.83	4728.1	
307.04	5132.9	
307.25	3321.8	
307.46	3329.3	
307.67	4273.4	
307.88	5061.9	
308.09	3102	
308.29	3090.4	
308.5	4880.3	
308.71	5216.9	
308.92	3252.2	
309.13	2975	
309.34	4741	
309.55	4710.3	
309.75	3786.7	
309.96	3405.1	
310.17	5162.9	
310.38	4585.4	
310.59	3555.3	
310.8	3440.6	
311.01	4700.8	
311.21	4762.9	
311.42	3038.5	
311.63	3091.8	
311.84	4645.5	
312.05	4889.2	
312.26	3472.7	
312.46	3675.4	
312.67	4665.3	
312.88	4509.6	
313.09	3003	
313.3	2932	
313.51	5429.8	
313.71	5640.1	
313.92	2998.9	
314.13	3139.5	
314.34	4962.2	
314.55	4735.6	
314.76	3693.9	
314.96	3302	
315.17	4992.9	
315.38	5119.2	
315.59	3011.9	
315.8	2874.7	
316.01	5431.9	
316.21	5500.8	
316.42	2923.1	
316.63	3265.8	
316.84	4661.2	
317.05	5319.3	
317.26	3478.1	
317.46	3170.3	
317.67	4778.6	
317.88	5115.8	
318.09	3693.9	
318.3	2825.5	
318.5	4616.8	
318.71	5016.8	
318.92	4593.6	
319.13	3463.1	
319.34	5182.7	
319.54	5287.9	
319.75	2797.5	
319.96	2753.2	
320.17	5068	
320.38	5162.9	
320.58	2763.4	
320.79	3207.8	
321	5305.6	
321.21	5345.9	
321.42	3248.1	
321.62	2825.5	
321.83	4532.8	
322.04	4853	
322.25	3157.3	
322.46	2994.1	
322.66	4906.9	
322.87	5087.2	
323.08	3628.3	
323.29	2911.5	
323.5	5588.2	
323.7	4496	
323.91	3946.4	
324.12	3534.8	
324.33	4879.6	
324.53	5107.6	
324.74	3466.5	
324.95	3587.4	
325.16	4387.4	
325.37	4718.5	
325.57	2932.7	
325.78	3067.9	
325.99	4933.6	
326.2	4420.9	
326.4	4040.6	
326.61	2853.5	
326.82	4764.3	
327.03	4868	
327.24	4093.9	
327.44	3889.1	
327.65	5036	
327.86	4186	
328.07	3447.4	
328.27	2954.5	
328.48	5312.4	
328.69	4500.8	
328.9	4183.3	
329.1	3155.2	
329.31	4744.5	
329.52	5393.7	
329.73	3026.9	
329.93	3297.9	
330.14	4880.3	
330.35	4993.6	
330.56	4655.7	
330.76	3625.6	
330.97	4704.2	
331.18	4915.8	
331.39	3279.5	
331.59	2725.2	
331.8	5242.8	
332.01	5367.7	
332.22	3090.4	
332.42	3447.4	
332.63	4920.6	
332.84	4515.8	
333.05	3316.3	
333.25	3052.8	
333.46	4629.1	
333.67	4811.4	
333.88	3162.1	
334.08	3441.3	
334.29	6178	
334.5	5304.2	
334.7	2954.5	
334.91	4059.8	
335.12	4431.8	
335.33	5065.3	
335.53	3339.6	
335.74	4614.8	
335.95	4712.4	
336.16	4490.5	
336.36	3293.8	
336.57	3771	
336.78	4457.7	
336.98	5260.5	
337.19	3999	
337.4	3246.7	
337.61	5720.7	
337.81	4476.9	
338.02	3084.2	
338.23	3741	
338.43	5378.6	
338.64	4565.6	
338.85	2998.2	
339.05	3863.2	
339.26	5464.7	
339.47	4343.1	
339.68	2988.7	
339.88	4253.6	
340.09	5087.8	
340.3	5219.6	
340.5	3477.5	
340.71	2719.7	
340.92	4502.1	
341.13	5320.6	
341.33	2883.5	
341.54	3481.5	
341.75	5063.9	
341.95	4713.7	
342.16	3337.5	
342.37	3594.9	
342.57	4530.8	
342.78	4786.1	
342.99	3623.5	
343.19	2750.4	
343.4	5115.1	
343.61	5013.4	
343.81	3163.4	
344.02	2951.8	
344.23	5138.4	
344.43	5362.9	
344.64	3688.4	
344.85	3536.2	
345.06	5075.5	
345.26	5250.3	
345.47	3482.9	
345.68	3944.4	
345.88	4374.5	
346.09	5151.3	
346.3	3494.5	
346.5	2719.7	
346.71	4810	
346.92	4608.6	
347.12	2891	
347.33	3463.1	
347.54	5278.3	
347.74	5523.4	
347.95	3424.9	
348.16	2700.6	
348.36	4713.7	
348.57	4485.1	
348.78	3467.2	
348.98	3592.1	
349.19	4766.3	
349.39	4448.9	
349.6	2854.2	
349.81	3063.1	
350.01	5096.7	
350.22	4612	
350.43	3329.3	
350.63	3938.9	
350.84	4850.3	
351.05	4653	
351.25	3089	
351.46	2835.1	
351.67	5218.9	
351.87	4611.3	
352.08	3233.1	
352.29	3640.6	
352.49	5258.5	
352.7	5223	
352.9	2963.4	
353.11	3619.4	
353.32	5714.5	
353.52	4719.9	
353.73	3003.7	
353.94	3717.1	
354.14	5085.1	
354.35	4956.1	
354.55	3065.1	
354.76	3347.1	
354.97	5061.9	
355.17	4857.1	
355.38	2957.9	
355.59	3896.6	
355.79	4657.1	
356	4919.9	
356.2	3355.3	
356.41	3028.9	
356.62	4518.5	
356.82	4864.6	
357.03	3571.7	
357.24	3274.7	
357.44	4721.9	
357.65	4737	
357.85	4184	
358.06	3454.9	
358.27	4517.1	
358.47	4645.5	
358.68	3005.1	
358.88	3630.4	
359.09	5126.1	
359.3	5382.7	
359.5	4152.6	
359.71	3692.5	
359.91	5678.3	
360.12	5177.9	
360.33	3633.1	
360.53	3949.2	
360.74	4787.5	
360.94	4876.2	
361.15	3762.1	
361.36	3278.8	
361.56	5391.6	
361.77	4990.2	
361.97	4113.7	
362.18	3503.4	
362.38	5309	
362.59	4734.2	
362.8	3216.7	
363	3158.7	
363.21	4550.6	
363.41	5052.3	
363.62	3621.5	
363.83	4350.6	
364.03	5229.8	
364.24	5786.2	
364.44	4431.1	
364.65	4442	
364.85	5001.8	
365.06	4838.7	
365.27	3429	
365.47	3501.3	
365.68	5735	
365.88	5018.2	
366.09	3735.5	
366.29	3545.7	
366.5	5118.6	
366.71	5441.5	
366.91	4384.7	
367.12	3863.8	
367.32	6031.3	
367.53	5399.1	
367.73	3876.8	
367.94	4560.8	
368.14	5439.4	
368.35	6003.3	
368.56	3916.4	
368.76	3401.7	
368.97	5492.7	
369.17	6675.7	
369.38	3471.3	
369.58	3691.1	
369.79	4759.5	
369.99	5792.3	
370.2	4433.2	
370.4	3706.8	
370.61	5314.5	
370.82	6234.7	
371.02	3761.4	
371.23	3274	
371.43	4820.9	
371.64	5739.1	
371.84	3782.6	
372.05	4592.2	
372.25	6658.6	
372.46	5490.6	
372.66	3782.6	
372.87	3824.9	
373.07	5593	
373.28	6814.3	
373.48	4579.9	
373.69	4284.4	
373.9	5264.6	
374.1	5328.8	
374.31	4554.7	
374.51	4212.7	
374.72	5913.9	
374.92	5151.3	
375.13	4717.8	
375.33	4136.2	
375.54	5615.5	
375.74	5309	
375.95	4235.9	
376.15	5129.5	
376.36	5672.9	
376.56	5568.4	
376.77	4271.4	
376.97	4597.7	
377.18	6616.3	
377.38	5846.3	
377.59	4810	
377.79	4024.3	
378	5729.5	
378.2	5993.7	
378.41	4050.9	
378.61	4037.2	
378.82	6087.2	
379.02	5546.6	
379.23	4253.6	
379.43	5040.7	
379.64	6221	
379.84	5957.5	
380.05	4149.2	
380.25	4029	
380.46	5947.3	
380.66	5656.5	
380.87	5053.7	
381.07	5337	
381.28	6419.7	
381.48	5971.9	
381.69	4080.2	
381.89	4128	
382.1	5236	
382.3	6100.2	
382.51	4914.4	
382.71	5610.8	
382.91	5838.1	
383.12	6318.7	
383.32	4373.8	
383.53	4511.7	
383.73	5885.9	
383.94	5741.8	
384.14	4497.3	
384.35	3873.4	
384.55	5625.1	
384.76	5905.7	
384.96	4383.3	
385.17	4466.6	
385.37	5896.1	
385.58	5330.9	
385.78	4532.2	
385.98	3848.8	
386.19	5529.5	
386.39	5840.8	
386.6	4182	
386.8	4348.5	
387.01	5888.6	
387.21	5943.2	
387.42	4608.6	
387.62	5096.7	
387.83	5502.9	
388.03	5780.1	
388.23	4484.4	
388.44	5019.6	
388.64	5355.4	
388.85	5395.7	
389.05	4757.4	
389.26	5253.7	
389.46	6965.8	
389.67	6437.4	
389.87	4791.6	
390.07	4845.5	
390.28	5820.3	
390.48	5549.3	
390.69	4283	
390.89	4552	
391.1	5765	
391.3	6343.2	
391.5	5414.8	
391.71	5872.2	
391.91	6231.3	
392.12	6871.6	
392.32	5479.7	
392.53	4816.8	
392.73	5921.4	
392.93	5942.5	
393.14	4651.6	
393.34	5468.8	
393.55	6230.6	
393.75	5937.1	
393.95	4610	
394.16	4562.9	
394.36	5769.1	
394.57	6218.3	
394.77	4268.6	
394.98	4496.7	
395.18	5724.8	
395.38	5792.3	
395.59	5282.4	
395.79	4526.7	
396	5971.2	
396.2	6315.3	
396.4	5243.5	
396.61	5208.7	
396.81	6424.5	
397.02	6044.2	
397.22	5417.6	
397.42	5470.8	
397.63	6655.9	
397.83	6055.8	
398.04	4732.9	
398.24	5164.3	
398.44	6308.4	
398.65	5764.3	
398.85	4608.6	
399.05	4700.8	
399.26	6098.2	
399.46	7335.1	
399.67	5023.7	
399.87	4847.5	
400.07	6353.5	
400.28	6664.8	
400.48	4913.8	
400.69	5831.2	
400.89	6891.4	
401.09	7275.8	
401.3	4982	
401.5	5763.7	
401.7	7424.6	
401.91	7598	
402.11	5332.2	
402.32	5448.3	
402.52	7107.8	
402.72	6883.9	
402.93	5595.7	
403.13	4705.5	
403.33	7555	
403.54	6419.7	
403.74	5354.8	
403.94	5789.6	
404.15	6354.2	
404.35	7333.8	
404.56	5008.6	
404.76	6269.5	
404.96	6752.2	
405.17	6575.3	
405.37	5705	
405.57	5451.7	
405.78	6937.2	
405.98	6533	
406.18	5287.2	
406.39	5898.8	
406.59	6974	
406.79	6593.8	
407	5120.6	
407.2	5031.9	
407.4	7056.6	
407.61	7103.7	
407.81	5129.5	
408.01	6457.9	
408.22	6190.3	
408.42	7720.8	
408.62	6141.2	
408.83	5841.5	
409.03	7030	
409.23	6985.6	
409.44	6032	
409.64	6266.1	
409.84	8041	
410.05	8105.9	
410.25	6412.9	
410.45	6279.1	
410.66	7851.9	
410.86	9684.2	
411.06	6926.2	
411.27	6682.5	
411.47	9714.9	
411.67	8061.5	
411.88	6860	
412.08	7290.8	
412.28	8680	
412.49	9100.5	
412.69	7036.1	
412.89	7087.3	
413.09	8968.7	
413.3	8970.8	
413.5	7281.9	
413.7	6939.9	
413.91	8518.2	
414.11	9143.5	
414.31	7186.3	
414.52	7560.4	
414.72	8937.3	
414.92	9010.4	
415.12	7197.2	
415.33	7612.3	
415.53	9238.4	
415.73	9406.3	
415.94	7960.5	
416.14	7450.5	
416.34	8598.1	
416.55	8420.6	
416.75	8517.5	
416.95	8069	
417.15	9470.5	
417.36	9848.7	
417.56	8755.1	
417.76	8056.7	
417.97	9704.6	
418.17	9579	
418.37	7737.2	
418.57	7806.9	
418.78	9530.6	
418.98	9233.6	
419.18	8609	
419.38	8485.4	
419.59	9189.9	
419.79	8844.5	
419.99	7793.2	
420.2	7988.4	
420.4	9609.8	
420.6	9523.7	
420.8	7631.4	
421.01	7544.7	
421.21	9571.5	
421.41	9595.4	
421.61	8008.2	
421.82	7623.9	
422.02	9202.2	
422.22	9802.3	
422.42	8531.2	
422.63	7977.5	
422.83	9286.9	
423.03	10176	
423.23	8058.1	
423.44	7263.5	
423.64	9200.2	
423.84	8897.7	
424.04	7638.9	
424.25	7442.3	
424.45	9785.9	
424.65	9681.4	
424.85	7123.5	
425.06	7563.1	
425.26	9893.7	
425.46	9038.4	
425.66	7923.6	
425.87	7604.1	
426.07	9603.6	
426.27	9424.1	
426.47	7867.6	
426.67	7309.9	
426.88	9748.3	
427.08	9325.1	
427.28	8205.5	
427.48	7195.9	
427.69	8507.3	
427.89	9034.3	
428.09	7942.7	
428.29	7285.3	
428.5	9571.5	
428.7	9212.4	
428.9	7292.8	
429.1	7611.6	
429.3	9245.2	
429.51	9594.7	
429.71	7438.9	
429.91	8179.6	
430.11	9599.5	
430.31	9876	
430.52	7847.8	
430.72	8163.2	
430.92	10076	
431.12	9656.2	
431.32	7682.6	
431.53	8008.2	
431.73	8957.8	
431.93	10094	
432.13	7587	
432.33	7608.9	
432.54	9247.3	
432.74	9550.4	
432.94	7641.7	
433.14	8354.3	
433.34	9809.8	
433.55	9664.4	
433.75	8387.8	
433.95	9891.7	
434.15	9822.1	
434.35	9548.3	
434.56	7886	
434.76	7704.5	
434.96	9723.1	
435.16	10149	
435.36	7922.9	
435.56	8789.9	
435.77	9728.5	
435.97	9916.9	
436.17	9500.5	
436.37	8900.5	
436.57	9770.9	
436.78	9847.3	
436.98	8738.7	
437.18	9240.4	
437.38	10490	
437.58	9841.2	
437.78	9537.4	
437.99	8499.1	
438.19	10294	
438.39	11242	
438.59	8443.1	
438.79	8023.9	
438.99	10732	
439.2	9810.5	
439.4	7878.5	
439.6	7961.8	
439.8	9931.3	
440	10784	
440.2	8809.7	
440.4	8860.9	
440.61	10414	
440.81	10964	
441.01	8432.9	
441.21	9316.2	
441.41	11204	
441.61	10716	
441.81	9716.9	
442.02	10462	
442.22	11564	
442.42	10944	
442.62	8848.6	
442.82	8732.5	
443.02	11256	
443.22	10778	
443.43	9219.3	
443.63	8801.5	
443.83	10439	
444.03	10568	
444.23	9886.2	
444.43	9583.8	
444.63	10985	
444.83	11716	
445.04	9248.6	
445.24	10243	
445.44	11245	
445.64	11311	
445.84	9577	
446.04	9755.2	
446.24	10581	
446.44	11375	
446.65	8922.3	
446.85	9444.5	
447.05	10586	
447.25	11283	
447.45	9191.3	
447.65	8744.1	
447.85	10739	
448.05	10244	
448.25	9644.6	
448.46	9531.9	
448.66	10862	
448.86	10468	
449.06	8826.7	
449.26	9558.6	
449.46	11119	
449.66	10339	
449.86	9453.4	
450.06	9268.4	
450.26	10578	
450.47	11078	
450.67	9344.2	
450.87	9922.4	
451.07	11142	
451.27	11107	
451.47	9008.3	
451.67	9614.5	
451.87	11019	
452.07	11608	
452.27	9463	
452.47	9293.7	
452.67	11075	
452.88	11482	
453.08	8839	
453.28	10541	
453.48	12250	
453.68	10886	
453.88	9478	
454.08	9531.2	
454.28	11611	
454.48	11181	
454.68	9957.9	
454.88	10234	
455.08	11609	
455.28	11656	
455.48	9246.6	
455.68	10106	
455.89	12080	
456.09	12012	
456.29	9822.7	
456.49	10074	
456.69	12224	
456.89	11542	
457.09	10497	
457.29	10895	
457.49	11880	
457.69	12166	
457.89	10608	
458.09	10025	
458.29	12041	
458.49	12652	
458.69	11047	
458.89	10749	
459.09	13217	
459.29	13133	
459.49	10704	
459.69	11460	
459.9	12669	
460.1	12658	
460.3	10695	
460.5	10559	
460.7	12739	
460.9	12544	
461.1	10364	
461.3	11377	
461.5	13357	
461.7	13147	
461.9	11021	
462.1	11139	
462.3	12972	
462.5	13292	
462.7	11241	
462.9	11342	
463.1	14257	
463.3	14179	
463.5	11545	
463.7	12699	
463.9	13530	
464.1	13767	
464.3	12209	
464.5	12179	
464.7	14054	
464.9	14139	
465.1	13392	
465.3	12677	
465.5	14435	
465.7	14691	
465.9	13076	
466.1	12513	
466.3	14778	
466.5	14255	
466.7	13747	
466.9	12734	
467.1	14714	
467.3	15182	
467.5	14001	
467.7	12945	
467.9	15523	
468.1	16189	
468.3	13359	
468.5	13868	
468.7	14797	
468.9	14620	
469.1	13332	
469.3	13969	
469.5	16531	
469.7	14826	
469.9	13701	
470.1	13465	
470.3	15146	
470.5	15060	
470.7	14437	
470.9	13353	
471.1	15048	
471.3	14926	
471.5	13355	
471.69	14687	
471.89	14831	
472.09	14313	
472.29	13949	
472.49	13792	
472.69	14658	
472.89	14943	
473.09	13229	
473.29	13133	
473.49	14591	
473.69	14564	
473.89	13803	
474.09	13149	
474.29	15505	
474.49	15156	
474.69	13713	
474.89	13250	
475.09	14579	
475.29	14677	
475.49	12653	
475.69	13290	
475.88	15625	
476.08	14948	
476.28	12831	
476.48	12798	
476.68	15153	
476.88	14749	
477.08	12853	
477.28	13268	
477.48	14340	
477.68	14730	
477.88	12732	
478.08	12870	
478.28	15240	
478.48	14502	
478.67	13132	
478.87	12304	
479.07	15339	
479.27	14497	
479.47	13142	
479.67	13319	
479.87	15075	
480.07	15509	
480.27	12722	
480.47	13807	
480.67	14701	
480.87	15365	
481.06	12874	
481.26	13715	
481.46	14790	
481.66	14782	
481.86	13420	
482.06	14134	
482.26	14688	
482.46	15089	
482.66	13279	
482.86	13138	
483.05	15109	
483.25	14425	
483.45	15192	
483.65	13313	
483.85	14537	
484.05	14935	
484.25	13715	
484.45	14274	
484.65	15427	
484.84	15807	
485.04	13528	
485.24	13502	
485.44	15961	
485.64	14665	
485.84	13198	
486.04	14198	
486.24	15061	
486.44	15357	
486.63	13271	
486.83	13976	
487.03	15347	
487.23	15438	
487.43	13438	
487.63	15134	
487.83	15623	
488.02	16251	
488.22	14548	
488.42	14986	
488.62	16310	
488.82	15565	
489.02	14145	
489.22	14445	
489.41	16182	
489.61	16149	
489.81	14061	
490.01	14212	
490.21	16467	
490.41	16976	
490.61	14259	
490.8	14326	
491	16211	
491.2	15504	
491.4	14899	
491.6	14142	
491.8	16077	
491.99	15939	
492.19	13768	
492.39	13956	
492.59	16218	
492.79	16193	
492.99	14529	
493.18	14085	
493.38	16424	
493.58	17128	
493.78	14790	
493.98	14511	
494.18	16605	
494.37	16410	
494.57	15604	
494.77	15399	
494.97	17260	
495.17	17668	
495.37	15363	
495.56	15592	
495.76	18016	
495.96	17763	
496.16	16646	
496.36	16023	
496.55	18241	
496.75	17843	
496.95	16446	
497.15	16360	
497.35	18114	
497.54	18339	
497.74	16075	
497.94	17671	
498.14	18800	
498.34	18514	
498.53	16132	
498.73	16571	
498.93	17814	
499.13	18409	
499.33	16816	
499.52	16866	
499.72	18689	
499.92	18626	
500.12	16552	
500.32	16759	
500.51	18769	
500.71	18929	
500.91	17331	
501.11	17280	
501.31	18965	
501.5	19172	
501.7	17890	
501.9	17027	
502.1	18496	
502.29	18959	
502.49	17551	
502.69	17520	
502.89	18825	
503.09	19009	
503.28	16388	
503.48	16457	
503.68	18082	
503.88	18359	
504.07	17300	
504.27	16491	
504.47	18375	
504.67	18034	
504.86	17093	
505.06	16705	
505.26	18065	
505.46	19301	
505.65	16716	
505.85	16737	
506.05	17744	
506.25	18241	
506.44	15835	
506.64	16261	
506.84	17421	
507.04	17901	
507.23	15840	
507.43	16262	
507.63	18810	
507.83	17378	
508.02	16156	
508.22	15950	
508.42	19039	
508.62	17459	
508.81	16038	
509.01	16672	
509.21	17206	
509.4	17674	
509.6	16238	
509.8	15832	
510	17365	
510.19	18402	
510.39	15563	
510.59	15974	
510.79	17391	
510.98	18467	
511.18	16111	
511.38	16178	
511.57	18204	
511.77	17926	
511.97	16527	
512.17	15961	
512.36	18153	
512.56	17806	
512.76	15677	
512.95	15544	
513.15	18068	
513.35	17079	
513.55	16389	
513.74	15749	
513.94	17905	
514.14	17461	
514.33	16479	
514.53	16482	
514.73	17592	
514.92	17714	
515.12	16021	
515.32	15995	
515.51	17832	
515.71	18008	
515.91	17343	
516.11	15838	
516.3	19148	
516.5	17735	
516.7	16464	
516.89	16804	
517.09	17776	
517.29	17964	
517.48	16668	
517.68	16300	
517.88	17551	
518.07	18110	
518.27	16789	
518.47	15904	
518.66	18421	
518.86	17532	
519.06	15723	
519.25	15955	
519.45	17684	
519.65	18927	
519.84	16692	
520.04	17190	
520.24	19198	
520.43	18375	
520.63	16397	
520.83	16404	
521.02	17646	
521.22	18176	
521.42	16552	
521.61	17092	
521.81	17640	
522.01	17695	
522.2	16349	
522.4	16061	
522.6	18079	
522.79	17111	
522.99	16177	
523.18	15853	
523.38	18178	
523.58	18185	
523.77	17673	
523.97	16146	
524.17	19785	
524.36	19413	
524.56	17509	
524.76	17561	
524.95	18871	
525.15	18590	
525.34	17448	
525.54	17702	
525.74	19517	
525.93	18764	
526.13	18800	
526.33	17943	
526.52	20068	
526.72	19708	
526.91	19136	
527.11	18534	
527.31	20018	
527.5	20486	
527.7	18553	
527.89	17652	
528.09	19392	
528.29	20063	
528.48	18701	
528.68	18314	
528.87	20255	
529.07	20269	
529.27	18694	
529.46	18458	
529.66	20291	
529.85	20852	
530.05	18497	
530.25	18912	
530.44	21572	
530.64	20329	
530.83	18825	
531.03	18838	
531.23	20710	
531.42	20308	
531.62	19133	
531.81	18582	
532.01	20752	
532.21	21016	
532.4	18744	
532.6	19111	
532.79	21706	
532.99	21248	
533.18	19748	
533.38	20480	
533.58	21319	
533.77	21691	
533.97	20080	
534.16	20574	
534.36	22171	
534.55	21509	
534.75	20656	
534.95	20165	
535.14	22504	
535.34	21658	
535.53	19836	
535.73	21394	
535.92	22877	
536.12	21605	
536.31	19968	
536.51	21032	
536.71	21631	
536.9	21465	
537.1	19681	
537.29	19953	
537.49	21959	
537.68	21106	
537.88	20385	
538.07	19581	
538.27	21599	
538.46	22346	
538.66	19680	
538.86	19951	
539.05	21741	
539.25	21984	
539.44	20574	
539.64	20020	
539.83	21570	
540.03	22412	
540.22	19919	
540.42	19740	
540.61	21637	
540.81	21833	
541	20003	
541.2	20760	
541.39	21128	
541.59	21577	
541.78	20527	
541.98	19499	
542.18	20924	
542.37	20899	
542.57	19704	
542.76	20469	
542.96	20848	
543.15	21308	
543.35	19614	
543.54	19255	
543.74	21129	
543.93	21084	
544.13	19275	
544.32	19998	
544.52	20733	
544.71	20227	
544.91	18441	
545.1	19287	
545.3	20348	
545.49	20883	
545.69	18344	
545.88	18847	
546.08	21688	
546.27	21047	
546.47	19242	
546.66	18531	
546.86	20724	
547.05	21231	
547.24	18716	
547.44	18756	
547.63	19861	
547.83	20857	
548.02	18946	
548.22	18975	
548.41	19741	
548.61	20781	
548.8	18482	
549	18549	
549.19	20187	
549.39	20585	
549.58	17993	
549.78	18652	
549.97	20411	
550.17	20032	
550.36	18936	
550.55	19842	
550.75	19801	
550.94	20580	
551.14	18055	
551.33	18259	
551.53	19355	
551.72	20178	
551.92	18170	
552.11	17963	
552.31	19993	
552.5	19876	
552.69	19226	
552.89	17707	
553.08	20089	
553.28	19616	
553.47	18011	
553.67	18955	
553.86	20267	
554.06	19101	
554.25	17322	
554.44	17818	
554.64	20724	
554.83	20546	
555.03	17788	
555.22	18044	
555.42	19912	
555.61	19660	
555.8	17689	
556	17931	
556.19	19047	
556.39	19724	
556.58	17861	
556.78	17684	
556.97	19422	
557.16	19385	
557.36	18676	
557.55	17480	
557.75	18647	
557.94	20289	
558.13	17639	
558.33	17444	
558.52	19936	
558.72	19022	
558.91	17509	
559.1	17419	
559.3	18865	
559.49	18514	
559.69	17180	
559.88	17666	
560.07	19263	
560.27	19591	
560.46	17827	
560.66	17891	
560.85	19131	
561.04	18331	
561.24	17200	
561.43	17388	
561.63	18535	
561.82	18672	
562.01	18200	
562.21	17360	
562.4	19040	
562.59	19583	
562.79	17333	
562.98	17187	
563.18	18929	
563.37	20218	
563.56	17579	
563.76	17225	
563.95	18768	
564.14	18738	
564.34	17696	
564.53	17336	
564.73	19338	
564.92	19702	
565.11	17669	
565.31	17359	
565.5	19811	
565.69	18959	
565.89	17638	
566.08	17924	
566.27	19690	
566.47	20240	
566.66	18249	
566.85	17443	
567.05	19570	
567.24	19099	
567.44	17579	
567.63	18649	
567.82	19721	
568.02	19587	
568.21	17767	
568.4	18133	
568.6	19594	
568.79	19536	
568.98	17538	
569.18	17900	
569.37	19655	
569.56	21233	
569.76	18232	
569.95	18933	
570.14	19850	
570.34	20063	
570.53	17795	
570.72	17983	
570.91	20467	
571.11	19792	
571.3	18233	
571.49	18898	
571.69	19945	
571.88	19395	
572.07	18679	
572.27	18473	
572.46	19628	
572.65	20251	
572.85	18146	
573.04	18440	
573.23	20558	
573.43	20082	
573.62	18100	
573.81	18711	
574	20159	
574.2	19991	
574.39	18449	
574.58	18595	
574.78	20880	
574.97	20580	
575.16	19142	
575.36	19366	
575.55	21175	
575.74	21085	
575.93	18590	
576.13	19633	
576.32	20470	
576.51	21102	
576.71	19198	
576.9	20263	
577.09	21474	
577.28	20966	
577.48	19465	
577.67	18715	
577.86	20822	
578.05	21009	
578.25	19316	
578.44	19323	
578.63	20733	
578.83	21781	
579.02	18661	
579.21	20080	
579.4	21035	
579.6	20918	
579.79	19426	
579.98	21084	
580.17	21450	
580.37	21453	
580.56	18893	
580.75	19660	
580.94	21584	
581.14	21558	
581.33	20015	
581.52	19153	
581.71	21302	
581.91	21745	
582.1	19157	
582.29	19557	
582.48	20949	
582.68	21175	
582.87	19927	
583.06	19640	
583.25	21440	
583.45	21272	
583.64	20441	
583.83	20821	
584.02	21076	
584.21	21558	
584.41	20068	
584.6	19704	
584.79	21432	
584.98	21904	
585.18	19396	
585.37	19222	
585.56	20949	
585.75	21639	
585.94	19391	
586.14	19997	
586.33	21740	
586.52	21042	
586.71	19732	
586.91	19574	
587.1	20446	
587.29	21465	
587.48	19051	
587.67	19211	
587.87	21060	
588.06	20801	
588.25	19863	
588.44	19222	
588.63	20372	
588.83	21064	
589.02	18794	
589.21	18616	
589.4	20248	
589.59	20133	
589.78	17802	
589.98	17878	
590.17	19277	
590.36	19687	
590.55	17047	
590.74	17196	
590.94	20060	
591.13	18716	
591.32	16765	
591.51	16318	
591.7	18694	
591.89	18639	
592.09	16432	
592.28	16978	
592.47	17974	
592.66	19688	
592.85	16759	
593.05	17037	
593.24	18582	
593.43	19378	
593.62	17121	
593.81	17587	
594	18877	
594.19	19082	
594.39	17012	
594.58	16956	
594.77	18887	
594.96	19496	
595.15	16852	
595.34	17337	
595.54	18859	
595.73	18339	
595.92	16277	
596.11	17111	
596.3	18916	
596.49	18127	
596.68	16782	
596.88	17055	
597.07	18725	
597.26	17943	
597.45	16326	
597.64	17365	
597.83	18179	
598.02	18725	
598.22	16410	
598.41	16925	
598.6	18525	
598.79	18026	
598.98	16559	
599.17	17221	
599.36	18492	
599.55	19149	
599.74	18019	
599.94	17807	
600.13	18847	
600.32	17965	
600.51	16151	
600.7	16253	
600.89	19075	
601.08	19199	
601.27	16025	
601.47	16855	
601.66	18619	
601.85	19037	
602.04	16770	
602.23	16754	
602.42	17875	
602.61	18290	
602.8	16408	
602.99	16006	
603.18	18076	
603.37	18269	
603.57	16561	
603.76	17000	
603.95	18705	
604.14	18311	
604.33	16260	
604.52	16534	
604.71	18405	
604.9	18004	
605.09	16879	
605.28	16952	
605.47	18794	
605.66	18217	
605.86	16802	
606.05	16235	
606.24	18538	
606.43	17597	
606.62	16581	
606.81	16973	
607	18515	
607.19	18008	
607.38	15894	
607.57	16139	
607.76	17767	
607.95	17194	
608.14	16505	
608.33	16871	
608.52	17687	
608.72	18480	
608.91	15971	
609.1	15778	
609.29	17651	
609.48	17262	
609.67	16496	
609.86	15702	
610.05	17273	
610.24	17450	
610.43	15716	
610.62	15257	
610.81	18203	
611	18167	
611.19	15665	
611.38	16212	
611.57	17717	
611.76	18683	
611.95	15385	
612.14	15332	
612.33	17508	
612.52	17172	
612.71	15894	
612.9	15343	
613.09	17043	
613.28	18834	
613.47	15640	
613.66	16239	
613.85	17553	
614.04	17146	
614.24	15680	
614.43	14967	
614.62	17771	
614.81	17546	
615	15896	
615.19	16085	
615.38	17028	
615.57	17422	
615.76	16075	
615.95	16784	
616.14	17951	
616.33	17508	
616.52	16379	
616.71	16492	
616.9	17740	
617.09	17727	
617.28	15751	
617.47	16701	
617.66	17258	
617.85	17054	
618.04	16569	
618.22	16175	
618.41	17522	
618.6	18411	
618.79	16312	
618.98	16219	
619.17	18796	
619.36	17283	
619.55	16524	
619.74	16350	
619.93	18381	
620.12	17854	
620.31	16933	
620.5	17066	
620.69	18924	
620.88	19256	
621.07	17841	
621.26	17279	
621.45	18610	
621.64	18826	
621.83	17420	
622.02	16641	
622.21	18718	
622.4	18724	
622.59	17815	
622.78	17709	
622.97	18391	
623.16	19264	
623.35	17316	
623.54	16774	
623.72	18788	
623.91	18782	
624.1	17610	
624.29	16611	
624.48	19508	
624.67	19057	
624.86	17552	
625.05	16916	
625.24	19751	
625.43	18458	
625.62	18819	
625.81	16976	
626	19057	
626.19	18861	
626.38	17613	
626.56	17197	
626.75	18621	
626.94	19218	
627.13	17623	
627.32	16791	
627.51	19275	
627.7	20101	
627.89	16779	
628.08	17787	
628.27	18550	
628.46	18586	
628.65	16767	
628.83	16818	
629.02	18903	
629.21	18320	
629.4	17081	
629.59	17458	
629.78	18506	
629.97	18938	
630.16	17376	
630.35	16987	
630.54	19451	
630.72	19176	
630.91	17053	
631.1	17299	
631.29	18864	
631.48	18889	
631.67	17415	
631.86	16961	
632.05	18532	
632.24	18625	
632.42	16623	
632.61	17184	
632.8	18296	
632.99	18390	
633.18	17266	
633.37	17351	
633.56	18667	
633.75	18643	
633.93	17214	
634.12	16959	
634.31	19338	
634.5	19064	
634.69	16984	
634.88	17251	
635.07	18429	
635.25	18926	
635.44	17637	
635.63	17867	
635.82	18402	
636.01	17902	
636.2	17438	
636.39	17052	
636.57	19147	
636.76	18684	
636.95	16759	
637.14	17661	
637.33	18751	
637.52	19384	
637.7	16513	
637.89	17396	
638.08	18451	
638.27	19439	
638.46	17520	
638.65	17498	
638.83	19229	
639.02	18210	
639.21	17116	
639.4	17469	
639.59	18350	
639.78	18059	
639.96	16343	
640.15	16438	
640.34	18214	
640.53	18145	
640.72	16125	
640.91	16216	
641.09	17451	
641.28	18570	
641.47	16210	
641.66	17061	
641.85	18144	
642.03	17913	
642.22	16496	
642.41	16249	
642.6	17544	
642.79	17043	
642.97	15847	
643.16	16503	
643.35	17423	
643.54	17268	
643.73	15771	
643.91	16354	
644.1	16948	
644.29	17634	
644.48	15718	
644.67	15651	
644.85	16985	
645.04	17288	
645.23	15253	
645.42	15436	
645.6	16621	
645.79	17464	
645.98	14980	
646.17	14164	
646.36	15957	
646.54	16340	
646.73	15238	
646.92	14496	
647.11	15938	
647.29	16870	
647.48	14426	
647.67	14176	
647.86	16723	
648.05	17005	
648.23	14453	
648.42	15461	
648.61	16529	
648.8	16244	
648.98	14094	
649.17	14345	
649.36	15712	
649.55	15380	
649.73	14234	
649.92	14740	
650.11	15726	
650.3	15902	
650.48	14314	
650.67	14281	
650.86	16195	
651.05	15273	
651.23	14128	
651.42	14033	
651.61	15541	
651.79	15414	
651.98	14246	
652.17	13839	
652.36	15710	
652.54	15104	
652.73	13842	
652.92	13764	
653.11	15702	
653.29	15913	
653.48	13392	
653.67	14145	
653.85	15571	
654.04	16279	
654.23	14076	
654.42	13700	
654.6	14734	
654.79	15291	
654.98	12990	
655.16	13439	
655.35	14141	
655.54	13994	
655.73	12510	
655.91	12312	
656.1	14534	
656.29	13695	
656.47	12034	
656.66	13347	
656.85	13951	
657.03	14222	
657.22	12897	
657.41	13016	
657.59	14476	
657.78	14520	
657.97	12903	
658.16	13432	
658.34	15190	
658.53	15500	
658.72	14103	
658.9	14481	
659.09	14899	
659.28	15053	
659.46	13394	
659.65	13220	
659.84	14612	
660.02	15249	
660.21	13322	
660.4	13168	
660.58	15338	
660.77	14883	
660.96	13747	
661.14	12882	
661.33	15859	
661.52	15569	
661.7	12897	
661.89	15652	
662.08	14511	
662.26	14243	
662.45	13092	
662.64	13074	
662.82	15094	
663.01	14467	
663.2	12995	
663.38	13612	
663.57	14812	
663.75	14784	
663.94	13309	
664.13	14214	
664.31	14394	
664.5	14829	
664.69	13401	
664.87	13786	
665.06	14257	
665.25	14838	
665.43	14066	
665.62	13982	
665.8	14885	
665.99	14452	
666.18	13270	
666.36	13248	
666.55	14866	
666.74	14752	
666.92	12980	
667.11	13953	
667.29	14405	
667.48	14802	
667.67	13798	
667.85	12915	
668.04	14378	
668.22	14446	
668.41	13117	
668.6	13197	
668.78	14183	
668.97	14397	
669.15	13310	
669.34	12544	
669.53	14144	
669.71	14513	
669.9	12637	
670.08	13104	
670.27	14197	
670.46	14521	
670.64	13257	
670.83	13492	
671.01	14003	
671.2	14306	
671.38	12729	
671.57	12511	
671.76	14891	
671.94	15431	
672.13	12635	
672.31	13264	
672.5	14686	
672.69	14151	
672.87	12697	
673.06	12767	
673.24	14503	
673.43	14288	
673.61	13089	
673.8	12850	
673.98	14620	
674.17	14710	
674.36	13352	
674.54	13209	
674.73	14236	
674.91	14569	
675.1	13037	
675.28	12656	
675.47	14252	
675.65	14581	
675.84	12856	
676.03	13084	
676.21	14071	
676.4	13627	
676.58	13416	
676.77	13263	
676.95	15162	
677.14	14008	
677.32	12495	
677.51	12474	
677.69	14545	
677.88	13871	
678.06	12410	
678.25	12545	
678.44	14155	
678.62	13879	
678.81	12315	
678.99	13082	
679.18	14759	
679.36	14408	
679.55	12706	
679.73	13312	
679.92	14334	
680.1	13984	
680.29	13700	
680.47	12792	
680.66	13859	
680.84	14629	
681.03	12221	
681.21	13106	
681.4	14015	
681.58	13714	
681.77	12413	
681.95	12353	
682.14	14490	
682.32	14823	
682.51	13219	
682.69	12168	
682.88	13819	
683.06	13931	
683.25	12696	
683.43	13145	
683.62	14014	
683.8	14275	
683.99	13166	
684.17	12658	
684.36	14851	
684.54	13778	
684.73	11933	
684.91	11956	
685.1	13667	
685.28	13145	
685.46	11850	
685.65	11794	
685.83	13056	
686.02	12577	
686.2	10907	
686.39	11032	
686.57	12372	
686.76	13474	
686.94	11204	
687.13	11456	
687.31	13018	
687.5	12779	
687.68	10969	
687.86	11875	
688.05	14276	
688.23	12434	
688.42	12017	
688.6	11557	
688.79	12968	
688.97	12962	
689.16	11953	
689.34	11057	
689.52	13530	
689.71	13759	
689.89	12267	
690.08	11809	
690.26	13379	
690.45	13289	
690.63	12430	
690.81	12032	
691	13202	
691.18	13048	
691.37	11895	
691.55	13474	
691.74	12926	
691.92	14522	
692.1	11923	
692.29	11334	
692.47	12981	
692.66	12490	
692.84	11471	
693.02	11899	
693.21	12629	
693.39	13004	
693.58	11993	
693.76	11581	
693.94	13996	
694.13	13844	
694.31	11781	
694.5	12577	
694.68	13064	
694.86	13627	
695.05	12244	
695.23	12247	
695.42	13824	
695.6	15528	
695.78	12904	
695.97	12024	
696.15	13999	
696.34	13350	
696.52	11800	
696.7	12487	
696.89	13545	
697.07	13193	
697.25	12188	
697.44	13373	
697.62	13521	
697.81	13571	
697.99	11873	
698.17	12308	
698.36	12794	
698.54	13409	
698.72	12057	
698.91	11321	
699.09	12962	
699.28	12809	
699.46	11689	
699.64	11505	
699.83	12738	
700.01	13369	
700.19	12256	
700.38	10907	
700.56	13479	
700.74	12764	
700.93	11286	
701.11	11995	
701.29	13241	
701.48	14101	
701.66	11529	
701.84	11574	
702.03	13010	
702.21	13729	
702.39	11235	
702.58	11892	
702.76	13308	
702.94	13292	
703.13	11197	
703.31	13078	
703.49	12719	
703.68	13556	
703.86	11314	
704.04	12138	
704.23	13108	
704.41	13446	
704.59	11409	
704.78	12050	
704.96	14286	
705.14	13306	
705.33	11258	
705.51	11792	
705.69	12808	
705.87	13485	
706.06	11976	
706.24	11043	
706.42	13027	
706.61	13249	
706.79	11852	
706.97	10987	
707.16	12527	
707.34	12816	
707.52	11761	
707.7	11248	
707.89	12501	
708.07	12338	
708.25	11772	
708.44	11979	
708.62	12289	
708.8	13207	
708.98	11847	
709.17	11085	
709.35	12631	
709.53	12570	
709.72	10806	
709.9	11095	
710.08	12781	
710.26	12788	
710.45	11830	
710.63	10953	
710.81	12295	
710.99	12389	
711.18	11293	
711.36	10858	
711.54	12248	
711.72	12585	
711.91	10802	
712.09	10344	
712.27	12017	
712.45	12476	
712.64	10711	
712.82	9927.2	
713	11407	
713.18	11426	
713.37	9787.9	
713.55	10525	
713.73	11856	
713.91	10713	
714.1	9852.8	
714.28	9179	
714.46	11144	
714.64	10371	
714.83	8385.1	
715.01	8690.9	
715.19	9865.7	
715.37	9220	
715.55	8081.3	
715.74	8184.4	
715.92	10235	
716.1	8632.9	
716.28	8994	
716.47	8131.1	
716.65	9039.1	
716.83	9202.9	
717.01	7925	
717.19	7877.9	
717.38	10558	
717.56	8695	
717.74	8044.4	
717.92	7456	
718.1	9669.1	
718.29	9080	
718.47	7219.1	
718.65	7817.8	
718.83	9902.6	
719.01	9994.1	
719.2	7591.1	
719.38	8478.6	
719.56	9921.7	
719.74	11105	
719.92	8317.5	
720.11	8871.1	
720.29	9967.5	
720.47	9263.6	
720.65	7733.8	
720.83	8137.9	
721.02	9161.9	
721.2	8919.6	
721.38	7964.6	
721.56	7328.3	
721.74	8248.5	
721.92	8363.9	
722.11	8124.3	
722.29	7869	
722.47	9206.3	
722.65	8728.4	
722.83	7232.1	
723.01	7825.3	
723.2	8594.6	
723.38	8918.2	
723.56	6673	
723.74	7529	
723.92	8288.8	
724.1	9095.7	
724.29	7059.3	
724.47	7959.1	
724.65	8297.7	
724.83	8125.7	
725.01	6874.3	
725.19	7492.8	
725.37	8018.5	
725.56	8082.6	
725.74	6708.5	
725.92	6971.3	
726.1	8055.3	
726.28	8279.3	
726.46	7117.4	
726.64	6928.3	
726.83	8303.8	
727.01	8378.2	
727.19	6541.2	
727.37	7254.6	
727.55	8377.6	
727.73	8690.2	
727.91	6522.8	
728.09	6369.9	
728.28	8708	
728.46	8910.7	
728.64	7275.1	
728.82	7176.8	
729	9460.9	
729.18	8895.7	
729.36	6651.8	
729.54	8338.6	
729.72	9738.1	
729.91	8432.2	
730.09	8256.7	
730.27	7296.2	
730.45	8512.7	
730.63	8970.8	
730.81	7735.9	
730.99	7070.3	
731.17	9381.1	
731.35	8185	
731.53	7471.7	
731.71	7126.2	
731.9	9065	
732.08	9133.9	
732.26	7254.6	
732.44	6983.6	
732.62	9136.7	
732.8	8860.2	
732.98	7496.2	
733.16	6681.8	
733.34	8724.3	
733.52	7591.8	
733.7	6998.6	
733.88	7140.6	
734.07	8387.8	
734.25	8301.1	
734.43	6587	
734.61	7762.5	
734.79	9389.3	
734.97	8158.4	
735.15	6612.2	
735.33	6933.1	
735.51	8428.1	
735.69	8173.4	
735.87	7649.2	
736.05	6917.4	
736.23	8279.3	
736.41	7897.7	
736.59	6722.8	
736.77	6793.1	
736.95	8507.3	
737.13	7998	
737.32	6529.6	
737.5	6614.3	
737.68	8864.3	
737.86	7933.1	
738.04	6242.9	
738.22	7662.8	
738.4	7621.9	
738.58	7980.9	
738.76	6694.8	
738.94	6018.3	
739.12	7783	
739.3	7642.3	
739.48	7032	
739.66	6896.2	
739.84	7904.5	
740.02	7894.9	
740.2	5881.8	
740.38	6137.1	
740.56	8086.1	
740.74	7209.5	
740.92	6638.1	
741.1	6406	
741.28	7580.9	
741.46	7442.3	
741.64	6080.4	
741.82	6567.8	
742	7542	
742.18	7507.2	
742.36	6257.2	
742.54	5859.2	
742.72	7930.4	
742.9	6983.6	
743.08	6461.3	
743.26	5530.2	
743.44	7967.3	
743.62	7823.2	
743.8	6597.2	
743.98	5793.7	
744.16	7579.5	
744.34	7346.7	
744.52	6333.7	
744.7	6295.5	
744.88	7527.7	
745.06	7284.6	
745.24	6292	
745.42	6487.3	
745.6	7706.5	
745.78	7481.2	
745.96	5352.7	
746.14	5567.1	
746.32	8073.8	
746.5	7477.8	
746.68	5907	
746.86	5534.3	
747.03	7738.6	
747.21	6461.3	
747.39	5910.4	
747.57	5456.5	
747.75	7107.1	
747.93	7393.8	
748.11	5410.1	
748.29	5402.5	
748.47	8276.5	
748.65	6886.6	
748.83	5985.5	
749.01	5795.8	
749.19	7154.9	
749.37	6500.3	
749.55	5644.2	
749.73	5655.8	
749.91	6900.3	
750.09	6681.2	
750.26	5636.7	
750.44	5197.7	
750.62	6931	
750.8	6804	
750.98	5061.9	
751.16	5275.6	
751.34	6921.5	
751.52	6405.4	
751.7	5887.2	
751.88	5057.8	
752.06	7211.6	
752.24	7016.3	
752.42	4984.8	
752.59	5182	
752.77	6730.3	
752.95	7610.3	
753.13	5732.9	
753.31	5244.2	
753.49	6537.8	
753.67	6768.5	
753.85	5477	
754.03	5086.5	
754.21	6918	
754.38	7135.8	
754.56	5101.5	
754.74	4365.6	
754.92	6186.9	
755.1	6569.2	
755.28	4274.1	
755.46	4147.8	
755.64	7046.4	
755.82	7032	
755.99	4237.2	
756.17	4266.6	
756.35	5001.8	
756.53	6148.7	
756.71	3291.1	
756.89	3924.6	
757.07	5760.9	
757.25	5136.3	
757.42	4384.7	
757.6	5018.9	
757.78	5869.5	
757.96	5153.4	
758.14	4226.3	
758.32	3935.5	
758.5	4801.1	
758.67	5509	
758.85	4095.3	
759.03	4169	
759.21	5593	
759.39	5173.9	
759.57	3791.5	
759.75	4634.6	
759.92	6133.7	
760.1	5683.1	
760.28	4938.3	
760.46	5162.2	
760.64	5435.3	
760.82	5358.9	
760.99	4846.9	
761.17	4255.7	
761.35	6179.4	
761.53	5317.9	
761.71	4369.7	
761.89	4870.1	
762.06	6079.7	
762.24	5679.7	
762.42	4472.1	
762.6	4310.3	
762.78	5707	
762.96	6198.5	
763.13	4810	
763.31	4509.6	
763.49	6258.6	
763.67	5649.7	
763.85	5184.8	
764.02	5556.1	
764.2	6506.4	
764.38	5792.3	
764.56	4386.1	
764.74	5089.2	
764.91	6496.8	
765.09	5649	
765.27	4228.4	
765.45	3981.3	
765.63	6595.1	
765.8	6389	
765.98	3816	
766.16	4111.6	
766.34	5401.9	
766.52	5255.8	
766.69	4739	
766.87	3893.9	
767.05	5625.8	
767.23	6217.6	
767.41	4136.2	
767.58	4262.5	
767.76	6071.5	
767.94	6091.3	
768.12	4178.5	
768.29	4663.2	
768.47	5619.6	
768.65	6214.9	
768.83	3870	
769	4690.5	
769.18	5321.3	
769.36	5774.6	
769.54	4641.4	
769.72	3882.3	
769.89	6075	
770.07	6101.6	
770.25	4110.3	
770.43	5023	
770.6	6599.9	
770.78	6744.6	
770.96	4240	
771.14	4679.6	
771.31	5861.3	
771.49	5420.3	
771.67	3608.5	
771.85	3703.4	
772.02	4816.1	
772.2	5371.1	
772.38	4334.9	
772.55	3883.6	
772.73	5617.6	
772.91	5358.9	
773.09	4140.3	
773.26	4237.2	
773.44	5570.5	
773.62	5377.3	
773.8	3801.7	
773.97	3614	
774.15	5601.9	
774.33	5352	
774.5	3719.8	
774.68	3954.6	
774.86	5685.8	
775.04	5220.3	
775.21	3731.4	
775.39	3720.5	
775.57	5483.1	
775.74	5720	
775.92	3595.6	
776.1	3452.9	
776.27	5423	
776.45	6399.9	
776.63	3699.3	
776.81	3397.6	
776.98	5196.4	
777.16	5928.9	
777.34	3775.8	
777.51	4040	
777.69	5219.6	
777.87	5007.3	
778.04	3887.7	
778.22	4231.1	
778.4	4947.9	
778.57	5489.9	
778.75	3265.8	
778.93	3541.6	
779.1	4891.2	
779.28	4685.1	
779.46	3327.9	
779.64	3635.1	
779.81	5605.3	
779.99	6208.8	
780.17	4167.6	
780.34	4313	
780.52	5179.3	
780.69	5276.3	
780.87	3879.5	
781.05	3566.2	
781.22	5251.7	
781.4	5186.1	
781.58	3648.1	
781.75	3018.7	
781.93	5242.8	
782.11	4686.4	
782.28	4288.4	
782.46	3602.4	
782.64	4632.5	
782.81	5313.8	
782.99	3694.5	
783.17	3624.2	
783.34	5201.8	
783.52	4683.7	
783.69	3725.3	
783.87	4371.7	
784.05	4826.4	
784.22	4724.7	
784.4	4324.6	
784.58	3887.7	
784.75	5516.5	
784.93	4807.9	
785.1	3563.5	
785.28	4029	
785.46	5281	
785.63	4717.8	
785.81	3600.3	
785.99	3427.6	
786.16	4936.3	
786.34	5120.6	
786.51	3429.7	
786.69	3771	
786.87	4489.8	
787.04	4861.9	
787.22	3386.7	
787.39	4076.8	
787.57	4699.4	
787.75	5504.3	
787.92	4217.5	
788.1	4149.2	
788.27	4638.6	
788.45	4492.6	
788.63	3931.4	
788.8	3008.5	
788.98	5124	
789.15	4393.6	
789.33	3046.7	
789.5	3552.5	
789.68	5326.1	
789.86	5503.6	
790.03	3823.6	
790.21	3419.4	
790.38	5403.9	
790.56	4790.9	
790.73	3334.1	
790.91	3316.3	
791.09	4709	
791.26	5234.6	
791.44	3558.7	
791.61	3121.1	
791.79	4682.3	
791.96	4671.4	
792.14	3271.3	
792.32	2912.9	
792.49	4681.7	
792.67	4799.8	
792.84	3315	
793.02	3136.1	
793.19	5047.6	
793.37	5544.5	
793.54	2910.8	
793.72	3143.6	
793.89	5513.8	
794.07	4623.6	
794.25	3552.5	
794.42	2992.1	
794.6	5453.1	
794.77	5161.6	
794.95	3785.3	
795.12	3327.9	
795.3	4640.7	
795.47	5027.1	
795.65	3642.7	
795.82	3517.7	
796	4514.4	
796.17	5885.9	
796.35	3435.1	
796.52	4025.6	
796.7	5031.2	
796.87	5114.5	
797.05	3429.7	
797.22	4058.4	
797.4	5103.5	
797.57	5842.9	
797.75	3602.4	
797.92	3284.3	
798.1	5373.9	
798.27	4519.9	
798.45	3007.1	
798.62	3177.1	
798.8	4909.7	
798.97	5213.4	
799.15	3669.3	
799.32	3534.8	
799.5	4268.6	
799.67	4917.2	
799.85	3802.4	
800.02	2875.3	
800.2	4566.3	
800.37	4814.1	
800.55	3938.2	
800.72	3289.7	
800.9	5182.7	
801.07	5467.4	
801.25	4291.9	
801.42	3655.6	
801.6	5267.4	
801.77	4890.5	
801.95	3384.6	
802.12	3306.1	
802.29	5005.2	
802.47	4917.9	
802.64	3582.6	
802.82	2897.9	
802.99	4613.4	
803.17	5309.7	
803.34	3566.9	
803.52	3191.4	
803.69	5732.9	
803.87	4379.9	
804.04	3493.8	
804.21	3525.2	
804.39	5474.9	
804.56	4682.3	
804.74	3067.9	
804.91	3577.8	
805.09	4591.5	
805.26	4620.2	
805.44	3076.7	
805.61	3319.1	
805.78	5161.6	
805.96	5059.2	
806.13	3599	
806.31	3795.6	
806.48	4250.2	
806.66	4601.8	
806.83	3609.9	
807	3477.5	
807.18	4554.7	
807.35	4876.9	
807.53	3510.2	
807.7	2934.7	
807.87	5475.6	
808.05	4528.7	
808.22	3747.1	
808.4	2868.5	
808.57	4519.9	
808.74	4289.1	
808.92	3237.2	
809.09	3994.9	
809.27	4513	
809.44	4901.5	
809.61	2861.7	
809.79	3145	
809.96	5470.8	
810.14	5083.1	
810.31	2798.2	
810.48	3380.5	
810.66	4656.4	
810.83	5119.9	
811.01	3232.4	
811.18	3486.3	
811.35	5076.9	
811.53	4107.5	
811.7	3798.3	
811.87	3551.2	
812.05	4622.9	
812.22	4531.5	
812.39	3095.2	
812.57	3034.4	
812.74	4631.1	
812.92	5814.9	
813.09	3327.3	
813.26	3585.3	
813.44	5640.1	
813.61	4416.8	
813.78	2887	
813.96	3648.8	
814.13	4579.3	
814.3	4367.6	
814.48	3945.8	
814.65	3336.1	
814.82	5460.6	
815	4316.4	
815.17	3415.3	
815.34	4083	
815.52	4480.3	
815.69	4463.9	
815.87	3360.7	
816.04	3317	
816.21	4582	
816.38	4149.9	
816.56	3276.8	
816.73	3075.4	
816.9	5606.7	
817.08	5162.2	
817.25	3145	
817.42	3837.2	
817.6	4273.4	
817.77	4495.3	
817.94	3439.9	
818.12	3071.3	
818.29	4358.1	
818.46	6307.1	
818.64	3229.6	
818.81	3005.1	
818.98	4313	
819.16	5909.1	
819.33	3635.1	
819.5	3423.5	
819.67	4838	
819.85	5339.7	
820.02	3355.9	
820.19	3540.9	
820.37	4734.2	
820.54	4503.5	
820.71	3443.3	
820.88	4237.2	
821.06	4738.3	
821.23	4365.6	
821.4	3525.9	
821.58	3451.5	
821.75	5047.6	
821.92	4696	
822.09	2904	
822.27	3072	
822.44	4547.9	
822.61	4453	
822.79	2850.8	
822.96	5225.7	
823.13	4859.1	
823.3	4291.9	
823.48	3267.2	
823.65	2977.1	
823.82	5061.9	
823.99	4222.2	
824.17	4058.4	
824.34	3013.2	
824.51	5777.3	
824.68	4585.4	
824.86	3170.9	
825.03	3456.3	
825.2	4553.3	
825.37	5331.5	
825.55	3182.5	
825.72	3375.1	
825.89	5789.6	
826.06	5386.8	
826.24	3355.3	
826.41	3371.6	
826.58	5381.4	
826.75	4713.1	
826.92	2779.8	
827.1	2980.5	
827.27	7084.6	
827.44	5758.2	
827.61	3195.5	
827.79	3769.6	
827.96	4455.7	
828.13	4565.6	
828.3	3287	
828.47	2835.1	
828.65	4791.6	
828.82	4743.1	
828.99	4180.6	
829.16	3619.4	
829.34	5046.9	
829.51	4929.5	
829.68	3388.7	
829.85	3516.4	
830.02	5300.8	
830.2	5076.2	
830.37	2676.7	
830.54	3989.4	
830.71	5624.4	
830.88	4593.6	
831.05	2755.2	
831.23	3059	
831.4	5474.2	
831.57	5899.5	
831.74	3205.8	
831.91	2820.7	
832.09	4912.4	
832.26	5012.7	
832.43	3279.5	
832.6	3590.8	
832.77	4805.2	
832.94	5376.6	
833.12	2644.6	
833.29	3183.9	
833.46	4884.4	
833.63	6179.4	
833.8	3523.9	
833.97	3231.7	
834.15	5085.1	
834.32	4885.1	
834.49	3401	
834.66	3461.1	
834.83	5163.6	
835	4459.8	
835.17	3135.4	
835.35	3167.5	
835.52	4983.4	
835.69	4881.7	
835.86	3274	
836.03	2806.4	
836.2	5055.8	
836.37	4660.5	
836.55	3277.4	
836.72	3031	
836.89	4794.3	
837.06	5085.1	
837.23	3284.3	
837.4	3547.8	
837.57	5665.4	
837.75	6098.2	
837.92	2979.1	
838.09	3180.5	
838.26	4691.9	
838.43	5201.2	
838.6	3408.5	
838.77	3070.6	
838.94	5866.1	
839.11	5735.7	
839.29	3263.1	
839.46	2636.4	
839.63	5089.9	
839.8	4812	
839.97	3201	
840.14	3125.2	
840.31	4910.3	
840.48	5137	
840.65	2684.9	
840.82	3106.8	
841	4999.1	
841.17	4969.1	
841.34	2874	
841.51	3037.1	
841.68	5010.7	
841.85	4803.2	
842.02	3057.6	
842.19	2537.4	
842.36	4893.3	
842.53	4863.9	
842.7	2975.7	
842.87	3508.9	
843.05	6115.9	
843.22	4757.4	
843.39	2836.4	
843.56	3010.5	
843.73	4693.3	
843.9	5130.8	
844.07	4577.2	
844.24	3756.7	
844.41	6818.4	
844.58	4478.2	
844.75	2867.8	
844.92	3046.7	
845.09	5037.3	
845.26	5064.6	
845.43	2913.6	
845.6	3077.4	
845.77	5046.2	
845.94	4819.6	
846.12	3263.1	
846.29	3383.2	
846.46	5216.9	
846.63	4952	
846.8	2879.4	
846.97	3416	
847.14	5345.2	
847.31	4982	
847.48	3269.9	
847.65	3516.4	
847.82	5215.5	
847.99	5170.4	
848.16	3784.6	
848.33	3489.7	
848.5	4700.8	
848.67	5400.5	
848.84	2861.7	
849.01	3067.9	
849.18	4582.7	
849.35	4366.3	
849.52	3530	
849.69	2806.4	
849.86	5260.5	
850.03	5275.6	
850.2	2934.1	
850.37	3469.9	
850.54	5299.5	
850.71	4743.1	
850.88	3477.5	
851.05	2900.6	
851.22	4930.1	
851.39	5371.1	
851.56	2773.6	
851.73	3297.9	
851.9	4506.2	
852.07	5188.9	
852.24	3195.5	
852.41	2892.4	
852.58	4959.5	
852.75	4541.7	
852.92	3229.6	
853.09	2875.3	
853.26	4661.9	
853.43	5354.1	
853.6	2908.1	
853.77	2510.1	
853.94	5426.4	
854.11	4478.2	
854.28	4178.5	
854.44	3091.1	
854.61	5778.7	
854.78	5193	
854.95	2940.9	
855.12	3528.7	
855.29	4153.3	
855.46	5543.2	
855.63	2856.2	
855.8	3914.4	
855.97	4626.4	
856.14	5297.4	
856.31	3936.2	
856.48	3161.4	
856.65	4727.4	
856.82	4438.6	
856.99	2804.4	
857.16	3107.5	
857.33	5883.8	
857.49	4739	
857.66	3071.3	
857.83	3305.4	
858	4755.4	
858.17	4938.3	
858.34	2780.5	
858.51	2940.9	
858.68	5519.3	
858.85	5501.5	
859.02	3349.1	
859.19	3487.7	
859.36	4500.1	
859.52	4474.8	
859.69	2919.7	
859.86	3313.6	
860.03	4542.4	
860.2	5380.7	
860.37	2726.5	
860.54	2871.9	
860.71	5179.3	
860.88	5453.7	
861.05	3212.6	
861.21	3603.7	
861.38	5457.2	
861.55	4326	
861.72	2730.6	
861.89	3169.6	
862.06	5246.9	
862.23	5552	
862.4	2841.2	
862.56	3012.6	
862.73	5027.8	
862.9	4812.7	
863.07	3291.8	
863.24	2664.4	
863.41	4397	
863.58	4479.6	
863.75	2931.3	
863.91	3348.4	
864.08	5299.5	
864.25	5141.8	
864.42	3536.8	
864.59	3930.1	
864.76	5733.6	
864.93	4450.2	
865.09	2835.8	
865.26	3129.3	
865.43	5385.5	
865.6	5643.5	
865.77	2589.3	
865.94	2840.5	
866.1	5360.9	
866.27	5113.8	
866.44	4195.6	
866.61	2777.7	
866.78	4775.2	
866.95	5077.6	
867.11	2807.8	
867.28	2593.4	
867.45	5308.3	
867.62	4472.8	
867.79	3317	
867.96	2871.3	
868.12	4457.1	
868.29	5184.1	
868.46	2867.8	
868.63	3775.1	
868.8	5262.6	
868.97	5105.6	
869.13	3041.9	
869.3	3046	
869.47	5055.1	
869.64	5201.2	
869.81	2870.6	
869.97	2940.2	
870.14	4975.2	
870.31	5494	
870.48	2851.5	
870.65	3555.3	
870.81	4759.5	
870.98	4747.2	
871.15	3259.7	
871.32	2948.4	
871.48	5051.7	
871.65	5530.9	
871.82	2844.6	
871.99	3155.2	
872.16	5863.3	
872.32	5319.3	
872.49	2901.3	
872.66	2914.9	
872.83	5153.4	
872.99	4574.5	
873.16	3312.2	
873.33	2839.8	
873.5	4889.2	
873.67	4859.1	
873.83	3016	
874	3762.8	
874.17	4967	
874.34	5732.9	
874.5	3643.3	
874.67	3519.1	
874.84	5436.7	
875.01	4347.2	
875.17	3911.6	
875.34	2876	
875.51	4934.2	
875.68	5797.1	
875.84	3455.6	
876.01	4080.9	
876.18	5113.8	
876.34	5074.2	
876.51	2895.1	
876.68	2876	
876.85	4693.3	
877.01	5356.1	
877.18	3979.2	
877.35	2918.4	
877.52	4907.6	
877.68	4419.5	
877.85	2826.9	
878.02	2841.2	
878.18	4749.9	
878.35	4613.4	
878.52	2387.2	
878.69	3127.9	
878.85	5213.4	
879.02	5105.6	
879.19	3996.3	
879.35	3090.4	
879.52	5117.2	
879.69	5214.8	
879.86	2614.6	
880.02	3179.1	
880.19	4783.4	
880.36	5714.5	
880.52	3166.2	
880.69	3337.5	
880.86	5192.3	
881.02	5247.6	
881.19	3146.4	
881.36	3108.8	
881.52	5064.6	
881.69	4563.6	
881.86	3108.1	
882.02	3006.4	
882.19	5292	
882.36	6051.1	
882.52	2964.8	
882.69	3973.1	
882.86	4978.6	
883.02	4919.2	
883.19	3473.4	
883.36	3226.2	
883.52	5182	
883.69	5841.5	
883.86	2921.8	
884.02	2667.1	
884.19	5145.2	
884.36	4818.9	
884.52	3201.7	
884.69	3054.2	
884.86	4669.4	
885.02	5567.1	
885.19	3220.8	
885.36	3265.8	
885.52	4796.3	
885.69	4962.2	
885.86	4026.3	
886.02	3616	
886.19	5152.7	
886.35	4741	
886.52	3164.8	
886.69	3889.8	
886.85	4511.7	
887.02	5418.9	
887.19	5418.9	
887.35	5418.9	
887.52	5418.9	
887.68	5418.9	
887.85	5418.9	
888.02	5418.9	
888.18	5418.9	
888.35	5418.9	
888.51	5418.9	
888.68	5418.9	
888.85	5418.9	
889.01	5418.9	
889.18	5418.9	
889.35	5418.9	
889.51	5418.9	
889.68	5418.9	
889.84	5418.9	
890.01	5418.9	
890.17	5418.9	
890.34	5418.9	
890.51	5418.9	
890.67	5418.9	
890.84	5418.9	
891	5418.9	
891.17	5418.9	
891.34	5418.9	
891.5	5418.9	
891.67	5418.9	
891.83	5418.9	
892	5418.9	
892.16	5418.9	
892.33	5418.9	
892.5	5418.9	
892.66	5418.9	
892.83	5418.9	
892.99	5418.9	
893.16	5418.9	
893.32	5418.9	
893.49	5418.9	
893.65	5418.9	
893.82	5418.9	
893.99	5418.9	
894.15	5418.9	
894.32	5418.9	
894.48	5418.9	
894.65	5418.9	
894.81	5418.9	
894.98	5418.9	
895.14	5418.9	
895.31	5418.9	
895.47	5418.9	
895.64	5418.9	
895.81	5418.9	
895.97	5418.9	
896.14	5418.9	
896.3	5418.9	
896.47	5418.9	
896.63	5418.9	
896.8	5418.9	
896.96	5418.9	
897.13	5418.9	
897.29	5418.9	
897.46	5418.9	
897.62	5418.9	
897.79	5418.9	
897.95	5418.9	
898.12	5418.9	
898.28	5418.9	
898.45	5418.9	
898.61	5418.9	
898.78	5418.9	
898.94	5418.9	
899.11	5418.9	
899.27	5418.9	
899.44	5418.9	
899.6	5418.9	
899.77	5418.9	
899.93	5418.9	
900.1	5418.9	
900.26	5418.9	
900.43	5418.9	
900.59	5418.9	
900.76	5418.9	
900.92	5418.9	
901.09	5418.9	
901.25	5418.9	
901.42	5418.9	
901.58	5418.9	
901.75	5418.9	
901.91	5418.9	
902.07	5418.9	
902.24	5418.9	
902.4	5418.9	
902.57	5418.9	
902.73	5418.9	
902.9	5418.9	
903.06	5418.9	
903.23	5418.9	
903.39	5418.9	
903.56	5418.9	
903.72	5418.9	
903.88	5418.9	
904.05	5418.9	
904.21	5418.9	
904.38	5418.9	
904.54	5418.9	
904.71	5418.9	
904.87	5418.9	
905.03	5418.9	
905.2	5418.9	
905.36	5418.9	
905.53	5418.9	
905.69	5418.9	
905.86	5418.9	
906.02	5418.9	
906.18	5418.9	
906.35	5418.9	
906.51	5418.9	
906.68	5418.9	
906.84	5418.9	
907.01	5418.9	
907.17	5418.9	
907.33	5418.9	
907.5	5418.9	
907.66	5418.9	
907.83	5418.9	
907.99	5418.9	
908.15	5418.9	
908.32	5418.9	
908.48	5418.9	
908.65	5418.9	
908.81	5418.9	
908.97	5418.9	
909.14	5418.9	
909.3	5418.9	
909.47	5418.9	
909.63	5418.9	
909.79	5418.9	
909.96	5418.9	
910.12	5418.9	
910.28	5418.9	
910.45	5418.9	
910.61	5418.9	
910.78	5418.9	
910.94	5418.9	
911.1	5418.9	
911.27	5418.9	
911.43	5418.9	
911.59	5418.9	
911.76	5418.9	
911.92	5418.9	
912.08	5418.9	
912.25	5418.9	
912.41	5418.9	
912.57	5418.9	
912.74	5418.9	
912.9	5418.9	
913.07	5418.9	
913.23	5418.9	
913.39	5418.9	
913.56	5418.9	
913.72	5418.9	
913.88	5418.9	
914.05	5418.9	
914.21	5418.9	
914.37	5418.9	
914.54	5418.9	
914.7	5418.9	
914.86	5418.9	
915.03	5418.9	
915.19	5418.9	
