Wavelength	Intensities	
nm	a.u.	
179.22	1919.5	
179.44	1924.7	
179.65	1914.2	
179.86	1935.3	
180.08	1916.2	
180.29	4962.9	
180.51	3591.5	
180.72	5701.5	
180.94	6625.2	
181.15	3263.8	
181.37	3208.5	
181.58	5502.9	
181.79	5861.3	
182.01	3366.9	
182.22	3688.4	
182.44	5787.6	
182.65	4906.9	
182.87	4642.7	
183.08	4067.3	
183.29	6143.9	
183.51	5027.8	
183.72	3684.3	
183.94	5385.5	
184.15	5412.8	
184.37	5411.4	
184.58	3249.4	
184.79	4437.9	
185.01	5054.4	
185.22	5793.7	
185.44	4757.4	
185.65	3964.9	
185.86	5267.4	
186.08	4896.7	
186.29	3145.7	
186.51	3411.2	
186.72	5122.7	
186.94	6030.6	
187.15	3947.1	
187.36	4179.2	
187.58	7874.4	
187.79	5580.7	
188.01	4270.7	
188.22	6663.4	
188.43	6697.5	
188.65	5782.8	
188.86	3385.3	
189.08	4080.2	
189.29	5229.8	
189.5	5268.7	
189.72	3807.2	
189.93	3901.4	
190.15	6134.3	
190.36	7277.8	
190.57	4147.1	
190.79	4042	
191	6113.2	
191.22	5988.3	
191.43	4208.6	
191.64	3394.8	
191.86	6275.7	
192.07	6111.8	
192.29	3588	
192.5	3757.3	
192.71	6040.8	
192.93	5155.4	
193.14	3761.4	
193.35	3782.6	
193.57	5188.2	
193.78	6057.2	
194	3027.6	
194.21	3682.2	
194.42	5036	
194.64	5522	
194.85	4084.3	
195.07	4825	
195.28	5533.6	
195.49	4764.3	
195.71	5065.3	
195.92	3493.8	
196.13	5693.4	
196.35	5747.3	
196.56	5468.8	
196.78	4133.5	
196.99	7123.5	
197.2	6683.2	
197.42	4674.8	
197.63	4132.8	
197.84	4861.9	
198.06	5724.1	
198.27	3735.5	
198.48	5047.6	
198.7	5218.9	
198.91	5371.8	
199.13	4089.1	
199.34	4105.5	
199.55	5912.5	
199.77	4769	
199.98	3616.7	
200.19	4162.8	
200.41	5344.5	
200.62	5044.1	
200.83	4309.6	
201.05	4582.7	
201.26	5328.1	
201.47	5132.2	
201.69	3686.3	
201.9	3546.4	
202.11	5403.9	
202.33	6444.3	
202.54	3908.2	
202.76	4380.6	
202.97	5575.9	
203.18	5571.2	
203.4	4276.2	
203.61	4174.4	
203.82	5515.2	
204.04	5119.9	
204.25	4182.6	
204.46	4044.7	
204.68	5586.2	
204.89	5729.5	
205.1	4038.6	
205.32	3470.6	
205.53	5839.4	
205.74	6002.6	
205.96	2975	
206.17	4228.4	
206.38	5830.6	
206.6	5975.3	
206.81	4741.7	
207.02	3822.9	
207.24	5735.7	
207.45	6097.5	
207.66	3901.4	
207.88	3354.6	
208.09	5634	
208.3	5461.9	
208.52	3545	
208.73	3994.9	
208.94	5489.2	
209.15	6179.4	
209.37	3958.7	
209.58	4115.7	
209.79	6007.4	
210.01	5253	
210.22	3142.9	
210.43	3274.7	
210.65	5453.7	
210.86	5922	
211.07	3926	
211.29	3620.1	
211.5	5827.8	
211.71	5356.8	
211.93	3512.9	
212.14	3591.5	
212.35	5362.9	
212.56	5634	
212.78	4171.7	
212.99	3358.7	
213.2	6444.3	
213.42	5216.9	
213.63	3707.5	
213.84	4005.8	
214.06	4811.4	
214.27	5001.1	
214.48	3885	
214.69	4244.1	
214.91	6145.3	
215.12	6272.2	
215.33	4261.8	
215.55	4663.9	
215.76	6752.2	
215.97	5802.6	
216.18	4097.3	
216.4	3895.2	
216.61	5137.7	
216.82	5948.7	
217.04	3655.6	
217.25	3766.9	
217.46	6139.8	
217.67	5883.8	
217.89	3250.1	
218.1	3362.8	
218.31	5545.2	
218.53	5625.8	
218.74	3781.2	
218.95	3678.2	
219.16	5405.3	
219.38	6410.8	
219.59	3690.4	
219.8	4394.3	
220.01	7070.3	
220.23	5505.6	
220.44	4873.5	
220.65	3556.6	
220.87	5545.2	
221.08	6138.4	
221.29	3313.6	
221.5	4487.1	
221.72	7544	
221.93	5147.9	
222.14	4151.2	
222.35	4886.5	
222.57	5539.8	
222.78	5796.4	
222.99	3969	
223.2	4237.9	
223.42	5838.8	
223.63	5932.3	
223.84	3043.3	
224.05	2995.5	
224.27	7045.7	
224.48	6391.7	
224.69	4933.6	
224.9	4136.9	
225.12	5658.5	
225.33	5386.8	
225.54	3262.4	
225.75	3686.3	
225.97	5029.1	
226.18	5240.8	
226.39	4037.9	
226.6	3717.7	
226.82	5250.3	
227.03	5125.4	
227.24	4130.1	
227.45	3410.6	
227.67	5843.5	
227.88	6451.1	
228.09	4672.8	
228.3	4637.3	
228.52	5917.9	
228.73	5423.7	
228.94	3827.7	
229.15	3380.5	
229.36	5405.3	
229.58	5296.7	
229.79	3904.1	
230	4483.7	
230.21	6518.7	
230.43	5553.4	
230.64	4065.9	
230.85	4229.7	
231.06	5870.2	
231.28	5892	
231.49	3371	
231.7	4042	
231.91	5806.7	
232.12	5530.2	
232.34	3503.4	
232.55	4029.7	
232.76	6119.3	
232.97	5705	
233.18	3577.1	
233.4	4105.5	
233.61	5699.5	
233.82	5251	
234.03	3836.5	
234.25	3688.4	
234.46	7623.2	
234.67	5511.8	
234.88	4162.2	
235.09	3652.9	
235.31	5868.1	
235.52	5354.8	
235.73	4079.6	
235.94	3448.8	
236.15	5161.6	
236.37	6666.8	
236.58	3577.8	
236.79	3969.6	
237	5754.1	
237.21	4936.3	
237.43	4285.7	
237.64	3343	
237.85	10000	
238.06	5079	
238.27	4330.8	
238.48	3448.8	
238.7	5803.9	
238.91	5345.9	
239.12	3906.8	
239.33	3990.1	
239.54	5096	
239.76	5365	
239.97	3867.2	
240.18	3909.6	
240.39	6933.1	
240.6	5761.6	
240.82	4105.5	
241.03	3344.3	
241.24	5462.6	
241.45	6341.9	
241.66	3560.1	
241.87	4300.7	
242.09	6165.1	
242.3	6634.7	
242.51	4324.6	
242.72	3966.9	
242.93	5950.7	
243.14	5410.7	
243.36	4644.8	
243.57	4984.1	
243.78	6324.8	
243.99	5839.4	
244.2	3949.2	
244.41	3635.1	
244.63	5053.7	
244.84	5832.6	
245.05	4249.5	
245.26	3964.9	
245.47	5712.5	
245.68	6027.2	
245.9	5279.7	
246.11	4160.1	
246.32	5314.5	
246.53	5708.4	
246.74	6422.4	
246.95	3334.1	
247.16	4933.6	
247.38	5511.8	
247.59	3278.1	
247.8	3977.2	
248.01	5145.9	
248.22	5431.9	
248.43	3596.9	
248.64	3846.8	
248.86	4871.4	
249.07	5266	
249.28	3438.5	
249.49	4073.4	
249.7	6021	
249.91	6124.8	
250.12	3263.8	
250.34	3339.6	
250.55	5571.2	
250.76	5446.2	
250.97	4089.8	
251.18	4164.2	
251.39	6184.2	
251.6	5681.7	
251.81	4141.7	
252.03	4234.5	
252.24	5143.8	
252.45	5991.7	
252.66	3426.9	
252.87	4389.5	
253.08	5515.9	
253.29	7208.2	
253.5	3493.2	
253.72	4812.7	
253.93	5359.5	
254.14	6522.8	
254.35	3728	
254.56	3870	
254.77	5681.1	
254.98	5080.3	
255.19	3683.6	
255.41	4820.2	
255.62	5577.3	
255.83	6147.3	
256.04	4237.2	
256.25	4187.4	
256.46	6756.9	
256.67	5115.1	
256.88	4087.7	
257.09	4545.8	
257.31	5168.4	
257.52	5176.6	
257.73	5104.2	
257.94	3752.6	
258.15	5330.9	
258.36	5532.9	
258.57	4754	
258.78	2999.6	
258.99	5979.4	
259.2	5292	
259.41	3789.4	
259.63	3884.3	
259.84	6293.4	
260.05	6837.5	
260.26	4955.4	
260.47	3676.8	
260.68	6087.9	
260.89	5412.1	
261.1	4615.4	
261.31	3635.1	
261.52	6098.9	
261.73	6475	
261.95	4816.8	
262.16	4276.8	
262.37	6204.7	
262.58	6284.5	
262.79	4812.7	
263	3839.9	
263.21	5481	
263.42	4924	
263.63	3951.2	
263.84	3818.8	
264.05	6062	
264.26	6481.8	
264.47	4807.3	
264.69	4311	
264.9	6168.5	
265.11	5696.8	
265.32	3648.8	
265.53	3766.9	
265.74	5588.2	
265.95	4857.1	
266.16	4059.1	
266.37	4443.4	
266.58	5619.6	
266.79	5367.7	
267	3768.9	
267.21	3432.4	
267.42	5076.9	
267.63	5411.4	
267.84	3964.2	
268.06	3339.6	
268.27	5961.6	
268.48	6250.4	
268.69	3863.2	
268.9	4594.3	
269.11	6178.7	
269.32	4959.5	
269.53	4009.2	
269.74	3641.3	
269.95	5830.6	
270.16	4811.4	
270.37	4001.7	
270.58	4573.1	
270.79	5296	
271	6032	
271.21	4307.6	
271.42	3992.2	
271.63	5571.8	
271.84	5094	
272.05	3122.5	
272.26	3582.6	
272.47	5476.3	
272.68	5694.7	
272.89	3761.4	
273.11	4420.9	
273.32	5272.8	
273.53	6436.8	
273.74	4325.3	
273.95	4198.3	
274.16	6121.4	
274.37	5558.9	
274.58	4362.9	
274.79	3463.1	
275	5586.2	
275.21	6219	
275.42	5205.3	
275.63	4567.7	
275.84	5767.8	
276.05	7238.2	
276.26	4162.8	
276.47	3881.6	
276.68	5330.2	
276.89	6490.7	
277.1	4450.2	
277.31	3474.7	
277.52	5697.4	
277.73	5887.2	
277.94	3422.2	
278.15	3812.6	
278.36	5686.5	
278.57	5147.9	
278.78	3785.3	
278.99	4343.1	
279.2	5074.9	
279.41	5022.3	
279.62	4977.9	
279.83	3499.3	
280.04	6693.4	
280.25	4992.3	
280.46	4944.5	
280.67	3971	
280.88	5107	
281.09	6131.6	
281.3	4179.9	
281.51	5273.5	
281.72	5184.1	
281.93	6015.6	
282.14	3644	
282.35	3958.7	
282.56	5999.2	
282.77	5961	
282.98	3803.8	
283.19	4678.2	
283.4	7373.4	
283.61	5429.2	
283.82	3445.4	
284.03	4903.5	
284.24	5615.5	
284.45	6186.9	
284.66	4986.1	
284.87	4739.7	
285.08	6098.9	
285.29	6195.1	
285.5	3360	
285.71	3882.3	
285.92	6138.4	
286.12	6814.3	
286.33	4954.7	
286.54	3815.4	
286.75	5955.5	
286.96	5386.8	
287.17	3553.2	
287.38	4830.5	
287.59	5072.1	
287.8	4976.6	
288.01	3900	
288.22	4519.2	
288.43	6059.3	
288.64	4996.4	
288.85	4662.5	
289.06	4364.9	
289.27	5892	
289.48	6462.7	
289.69	5029.1	
289.9	4426.3	
290.11	6154.8	
290.32	5158.8	
290.53	4709.6	
290.74	4345.1	
290.94	5936.4	
291.15	6014.9	
291.36	3687.7	
291.57	4435.2	
291.78	5216.9	
291.99	4859.1	
292.2	3582.6	
292.41	4349.9	
292.62	6054.5	
292.83	5850.4	
293.04	5377.3	
293.25	3595.6	
293.46	5288.5	
293.67	6110.5	
293.88	3710.2	
294.09	3553.2	
294.29	5049.6	
294.5	5665.4	
294.71	4014	
294.92	3795.6	
295.13	5272.8	
295.34	6653.9	
295.55	3383.2	
295.76	3467.2	
295.97	5962.3	
296.18	6666.8	
296.39	3506.8	
296.6	3789.4	
296.81	5599.8	
297.01	5900.9	
297.22	3874.8	
297.43	3697.9	
297.64	5133.6	
297.85	5099.4	
298.06	3024.8	
298.27	3359.4	
298.48	5502.2	
298.69	5163.6	
298.9	4023.6	
299.11	3659.7	
299.31	4970.4	
299.52	4999.8	
299.73	4281.6	
299.94	4188.8	
300.15	5459.9	
300.36	5136.3	
300.57	4245.4	
300.78	4228.4	
300.99	5361.6	
301.2	5619.6	
301.4	3668.6	
301.61	4042	
301.82	5831.9	
302.03	5968.5	
302.24	4558.1	
302.45	3515	
302.66	5767.8	
302.87	6303.6	
303.08	3734.1	
303.29	5098.8	
303.49	5247.6	
303.7	5591.6	
303.91	3318.4	
304.12	4845.5	
304.33	4997.7	
304.54	5664.7	
304.75	3802.4	
304.96	3583.9	
305.16	5889.3	
305.37	6638.1	
305.58	3273.3	
305.79	3411.2	
306	5818.3	
306.21	4922	
306.42	3734.1	
306.63	5750	
306.83	5368.4	
307.04	6098.2	
307.25	4145.8	
307.46	4095.3	
307.67	4739.7	
307.88	5961	
308.09	3654.9	
308.29	3801	
308.5	5577.3	
308.71	6093.4	
308.92	3926.6	
309.13	3550.5	
309.34	5354.8	
309.55	5442.1	
309.75	4695.3	
309.96	4251.6	
310.17	5969.8	
310.38	5171.8	
310.59	4484.4	
310.8	3446	
311.01	5297.4	
311.21	5399.8	
311.42	3538.9	
311.63	3661.8	
311.84	5242.8	
312.05	5660.6	
312.26	4193.6	
312.46	4558.1	
312.67	5303.6	
312.88	5108.3	
313.09	3592.8	
313.3	3532.1	
313.51	6334.4	
313.71	6686.6	
313.92	3620.1	
314.13	3801.7	
314.34	5734.3	
314.55	5425.8	
314.76	4601.1	
314.96	4009.2	
315.17	5567.1	
315.38	5852.4	
315.59	3604.4	
315.8	3406.5	
316.01	6417.7	
316.21	6430.6	
316.42	3455.6	
316.63	4001	
316.84	5365.7	
317.05	6247	
317.26	4345.8	
317.46	3835.2	
317.67	5445.5	
317.88	5925.5	
318.09	4599.7	
318.3	3342.3	
318.5	5227.1	
318.71	5881.1	
318.92	5848.3	
319.13	4291.9	
319.34	6076.3	
319.54	6200.6	
319.75	3349.8	
319.96	3232.4	
320.17	5861.3	
320.38	6110.5	
320.58	3314.3	
320.79	3945.8	
321	6073.6	
321.21	6288.6	
321.42	4050.9	
321.62	3300.6	
321.83	5153.4	
322.04	5517.2	
322.25	3799	
322.46	3661.8	
322.66	5693.4	
322.87	5770.5	
323.08	4514.4	
323.29	3575.8	
323.5	6608.8	
323.7	5055.8	
323.91	4933.6	
324.12	4425.7	
324.33	5582.8	
324.53	5838.1	
324.74	4257.7	
324.95	4516.5	
325.16	4861.9	
325.37	5309	
325.57	3632.4	
325.78	3680.9	
325.99	5532.9	
326.2	5016.8	
326.4	5180.7	
326.61	3330.7	
326.82	5394.3	
327.03	5554.8	
327.24	5175.9	
327.44	4882.4	
327.65	5752.7	
327.86	4625.7	
328.07	4255.7	
328.27	3526.6	
328.48	6174.6	
328.69	5059.8	
328.9	5257.1	
329.1	3862.5	
329.31	5369.8	
329.52	6337.1	
329.73	3562.1	
329.93	4047.5	
330.14	5537.7	
330.35	5751.4	
330.56	5994.4	
330.76	4463.2	
330.97	5375.2	
331.18	5841.5	
331.39	4028.4	
331.59	3256.3	
331.8	6158.2	
332.01	6322.8	
332.22	3688.4	
332.42	4274.8	
332.63	5633.3	
332.84	5254.4	
333.05	4041.3	
333.25	3706.1	
333.46	5221	
333.67	5504.3	
333.88	3762.1	
334.08	4218.8	
334.29	7283.3	
334.5	6212.2	
334.7	3526.6	
334.91	5157.5	
335.12	5036	
335.33	5925.5	
335.53	4020.2	
335.74	5958.2	
335.95	5267.4	
336.16	5140.4	
336.36	4012.7	
336.57	4601.8	
336.78	4996.4	
336.98	6126.2	
337.19	4887.1	
337.4	3962.1	
337.61	6651.8	
337.81	5055.1	
338.02	3691.1	
338.23	4771.8	
338.43	6249.7	
338.64	5155.4	
338.85	3675.4	
339.05	4760.2	
339.26	6369.9	
339.47	4924	
339.68	3653.6	
339.88	5410.7	
340.09	5752.1	
340.3	5934.3	
340.5	4304.1	
340.71	3235.8	
340.92	4942.4	
341.13	6262.7	
341.33	3501.3	
341.54	4293.2	
341.75	5812.8	
341.95	5427.8	
342.16	4048.2	
342.37	4415.4	
342.57	5103.5	
342.78	5485.8	
342.99	4558.1	
343.19	3244.7	
343.4	5932.3	
343.61	5783.5	
343.81	3868.6	
344.02	3608.5	
344.23	5920	
344.43	6384.9	
344.64	4553.3	
344.85	4399	
345.06	5737	
345.26	6148	
345.47	4227	
345.68	4937	
345.88	4911.7	
346.09	6042.2	
346.3	4293.9	
346.5	3167.5	
346.71	5551.4	
346.92	5243.5	
347.12	3311.6	
347.33	4187.4	
347.54	6116.6	
347.74	6524.1	
347.95	4142.4	
348.16	3074	
348.36	5369.8	
348.57	5058.5	
348.78	4156.7	
348.98	4445.5	
349.19	5466.7	
349.39	4962.9	
349.6	3363.4	
349.81	3710.2	
350.01	5803.3	
350.22	5299.5	
350.43	4045.4	
350.63	4803.2	
350.84	5561.6	
351.05	5352	
351.25	3672.7	
351.46	3321.1	
351.67	6176	
351.87	5257.8	
352.08	3848.1	
352.29	4482.3	
352.49	5981.4	
352.7	6128.9	
352.9	3553.2	
353.11	4461.8	
353.32	6732.4	
353.52	5358.2	
353.73	3566.2	
353.94	4538.3	
354.14	5894.7	
354.35	5687.9	
354.55	3687	
354.76	4076.1	
354.97	5906.3	
355.17	5664.7	
355.38	3482.9	
355.59	4811.4	
355.79	5251	
356	5778	
356.2	4057.7	
356.41	3639.9	
356.62	4971.8	
356.82	5528.8	
357.03	4397.7	
357.24	3986.7	
357.44	5339.7	
357.65	5458.5	
357.85	5254.4	
358.06	4183.3	
358.27	5048.2	
358.47	5315.2	
358.68	3509.5	
358.88	4506.2	
359.09	5898.8	
359.3	6321.4	
359.5	5147.2	
359.71	4625.7	
359.91	6862.7	
360.12	6243.6	
360.33	4440.7	
360.53	4922	
360.74	5459.9	
360.94	5484.5	
361.15	4738.3	
361.36	3959.4	
361.56	6349.4	
361.77	5730.9	
361.97	5219.6	
362.18	4195.6	
362.38	6333.7	
362.59	5367	
362.8	3904.8	
363	3760.8	
363.21	5198.4	
363.41	5971.2	
363.62	4500.8	
363.83	5609.4	
364.03	5966.4	
364.24	7041.6	
364.44	5673.6	
364.65	5800.5	
364.85	5784.1	
365.06	5473.5	
365.27	4199	
365.47	4280.3	
365.68	6847.7	
365.88	5772.5	
366.09	4676.9	
366.29	4357.4	
366.5	6152.8	
366.71	6564.4	
366.91	5744.6	
367.12	4833.2	
367.32	7192.5	
367.53	6522.1	
367.73	4835.3	
367.94	5828.5	
368.14	6417	
368.35	7303.1	
368.56	4907.6	
368.76	4167.6	
368.97	6466.8	
369.17	8307.9	
369.38	4319.8	
369.58	4612.7	
369.79	5504.9	
369.99	6895.5	
370.2	5689.9	
370.4	4724.7	
370.61	6265.4	
370.82	7438.2	
371.02	4562.2	
371.23	3948.5	
371.43	5494.7	
371.64	6902.3	
371.84	4747.9	
372.05	5939.8	
372.25	8378.9	
372.46	6656.6	
372.66	4810.7	
372.87	4768.4	
373.07	6818.4	
373.28	8554.4	
373.48	5883.8	
373.69	5624.4	
373.9	6260.6	
374.1	6435.4	
374.31	5902.9	
374.51	5449	
374.72	7256.6	
374.92	6103.6	
375.13	6176	
375.33	5283.8	
375.54	6931.7	
375.74	6391	
375.95	5500.2	
376.15	6784.9	
376.36	7019.8	
376.56	6786.3	
376.77	5640.8	
376.97	6242.2	
377.18	8238.3	
377.38	7187	
377.59	6507.1	
377.79	5288.5	
378	7132.4	
378.2	7506.5	
378.41	5345.9	
378.61	5328.8	
378.82	7667.6	
379.02	6781.5	
379.23	5586.9	
379.43	6739.9	
379.64	7735.9	
379.84	7468.3	
380.05	5385.5	
380.25	5344.5	
380.46	7475.8	
380.66	6991.1	
380.87	6652.5	
381.07	7131	
381.28	8069	
381.48	7376.8	
381.69	5393.7	
381.89	5477.6	
382.1	6273.6	
382.3	7587	
382.51	6546.7	
382.71	7456.7	
382.91	7445	
383.12	7960.5	
383.32	5694	
383.53	5937.7	
383.73	7128.3	
383.94	6992.4	
384.14	5841.5	
384.35	4912.4	
384.55	6798.6	
384.76	7342	
384.96	5637.4	
385.17	5853.1	
385.37	7236.2	
385.58	6491.4	
385.78	5947.3	
385.98	4813.4	
386.19	6617.7	
386.39	7043.6	
386.6	5351.3	
386.8	5621	
387.01	7219.1	
387.21	7303.1	
387.42	6055.8	
387.62	6752.8	
387.83	6593.1	
388.03	7378.8	
388.23	5842.9	
388.44	6626.5	
388.64	6358.9	
388.85	6638.1	
389.05	6281.1	
389.26	6921.5	
389.46	8535.9	
389.67	7965.9	
389.87	6326.9	
390.07	6398.5	
390.28	7252.5	
390.48	6824.5	
390.69	5676.3	
390.89	5870.2	
391.1	6915.3	
391.3	8013.7	
391.5	7128.3	
391.71	7769.3	
391.91	7634.1	
392.12	8726.4	
392.32	7232.7	
392.53	6328.2	
392.73	7135.1	
392.93	7305.8	
393.14	6069.5	
393.34	6852.5	
393.55	7725.6	
393.75	7179.5	
393.95	5920.7	
394.16	5795.1	
394.36	6928.3	
394.57	7694.9	
394.77	5392.3	
394.98	5857.9	
395.18	6963.1	
395.38	7277.8	
395.59	6986.3	
395.79	5926.1	
396	7293.5	
396.2	7811.6	
396.4	7057.3	
396.61	6875	
396.81	8118.1	
397.02	7451.2	
397.22	7324.9	
397.42	7348.8	
397.63	8311.3	
397.83	7534.5	
398.04	6081.1	
398.24	6926.2	
398.44	8011	
398.65	7170.6	
398.85	6068.1	
399.05	6256.5	
399.26	7623.9	
399.46	9502.6	
399.67	6622.4	
399.87	6417.7	
400.07	8015.1	
400.28	8431.5	
400.48	6602	
400.69	7813.7	
400.89	8782.4	
401.09	9206.3	
401.3	6612.2	
401.5	7802.1	
401.7	9725.8	
401.91	9796.1	
402.11	7083.9	
402.32	7271	
402.52	8859.5	
402.72	8656.8	
402.93	7374.7	
403.13	6141.2	
403.33	9404.3	
403.54	7789.8	
403.74	6749.4	
403.94	7557.7	
404.15	7837.6	
404.35	9138.7	
404.56	6571.2	
404.76	8510	
404.96	8394.6	
405.17	8265.6	
405.37	7739.3	
405.57	7161.7	
405.78	8845.9	
405.98	8047.8	
406.18	6860.7	
406.39	7703.8	
406.59	8634.2	
406.79	8215.8	
407	6593.8	
407.2	6595.8	
407.4	8708	
407.61	8904.6	
407.81	6788.3	
408.01	8873.8	
408.22	7847.1	
408.42	10039	
408.62	8385.7	
408.83	8005.5	
409.03	9011.1	
409.23	8983.8	
409.44	8371.4	
409.64	8704.5	
409.84	10464	
410.05	10451	
410.25	8717.5	
410.45	8538.7	
410.66	10223	
410.86	12660	
411.06	9394	
411.27	9173.5	
411.47	12756	
411.67	10707	
411.88	9454.1	
412.08	10003	
412.28	11379	
412.49	11914	
412.69	9585.2	
412.89	9539.4	
413.09	11789	
413.3	11789	
413.5	9783.1	
413.7	9387.2	
413.91	10910	
414.11	11871	
414.31	9751.7	
414.52	10447	
414.72	11632	
414.92	11678	
415.12	9753.8	
415.33	10389	
415.53	12135	
415.73	12396	
415.94	10748	
416.14	10208	
416.34	11213	
416.55	10695	
416.75	11463	
416.95	10930	
417.15	12273	
417.36	12885	
417.56	11944	
417.76	10944	
417.97	12843	
418.17	12671	
418.37	10301	
418.57	10643	
418.78	12158	
418.98	11766	
419.18	11525	
419.38	11284	
419.59	11955	
419.79	11307	
419.99	10355	
420.2	10806	
420.4	12373	
420.6	12478	
420.8	10234	
421.01	10141	
421.21	12301	
421.41	12454	
421.61	10692	
421.82	10413	
422.02	11834	
422.22	12631	
422.42	11284	
422.63	10529	
422.83	11845	
423.03	13132	
423.23	10679	
423.44	9663.7	
423.64	11847	
423.84	11368	
424.04	9991.4	
424.25	9771.5	
424.45	12651	
424.65	12411	
424.85	9538.1	
425.06	10115	
425.26	12504	
425.46	10972	
425.66	10445	
425.87	10129	
426.07	12168	
426.27	12077	
426.47	10318	
426.67	9530.6	
426.88	12402	
427.08	11836	
427.28	10714	
427.48	9373.6	
427.69	10599	
427.89	11346	
428.09	10595	
428.29	9509.4	
428.5	12065	
428.7	11648	
428.9	9496.4	
429.1	10036	
429.3	11456	
429.51	12125	
429.71	9790	
429.91	10738	
430.11	11961	
430.31	12323	
430.52	10275	
430.72	10667	
430.92	12729	
431.12	12109	
431.32	10032	
431.53	10344	
431.73	10988	
431.93	12819	
432.13	9776.3	
432.33	9762.7	
432.54	11564	
432.74	11966	
432.94	9956.5	
433.14	10869	
433.34	12138	
433.55	11839	
433.75	10944	
433.95	13091	
434.15	12084	
434.35	11800	
434.56	10152	
434.76	9736	
434.96	12205	
435.16	12674	
435.36	10144	
435.56	11480	
435.77	12034	
435.97	12271	
436.17	12244	
436.37	11568	
436.57	12018	
436.78	12204	
436.98	13179	
437.18	12019	
437.38	13057	
437.58	12174	
437.78	12140	
437.99	10721	
438.19	12557	
438.39	14105	
438.59	10544	
438.79	9951.8	
438.99	13066	
439.2	12017	
439.4	9963.4	
439.6	10045	
439.8	12454	
440	13595	
440.2	11342	
440.4	11613	
440.61	13104	
440.81	13751	
441.01	10970	
441.21	12009	
441.41	14021	
441.61	13338	
441.81	12378	
442.02	13534	
442.22	14327	
442.42	13589	
442.62	11075	
442.82	11178	
443.02	13938	
443.22	13208	
443.43	11806	
443.63	11172	
443.83	12647	
444.03	12910	
444.23	12823	
444.43	12270	
444.63	13521	
444.83	14605	
445.04	11680	
445.24	12937	
445.44	13560	
445.64	13795	
445.84	11993	
446.04	12149	
446.24	12700	
446.44	13775	
446.65	11035	
446.85	11615	
447.05	12433	
447.25	13640	
447.45	11493	
447.65	10800	
447.85	12954	
448.05	12465	
448.25	12067	
448.46	11899	
448.66	12992	
448.86	12611	
449.06	10854	
449.26	11998	
449.46	13573	
449.66	12329	
449.86	11776	
450.06	11631	
450.26	12849	
450.47	13361	
450.67	11725	
450.87	12196	
451.07	13334	
451.27	13333	
451.47	11163	
451.67	11915	
451.87	12957	
452.07	13826	
452.27	11571	
452.47	11381	
452.67	13089	
452.88	13857	
453.08	10557	
453.28	12915	
453.48	14570	
453.68	12985	
453.88	11509	
454.08	11555	
454.28	13756	
454.48	13338	
454.68	12265	
454.88	12735	
455.08	13739	
455.28	13913	
455.48	11156	
455.68	12253	
455.89	14483	
456.09	14222	
456.29	11891	
456.49	12265	
456.69	14596	
456.89	13667	
457.09	12867	
457.29	13330	
457.49	14400	
457.69	14557	
457.89	13015	
458.09	12187	
458.29	14414	
458.49	15028	
458.69	13437	
458.89	12901	
459.09	15625	
459.29	15564	
459.49	12942	
459.69	13806	
459.9	14857	
460.1	14813	
460.3	12720	
460.5	12615	
460.7	15033	
460.9	14835	
461.1	12322	
461.3	13913	
461.5	15836	
461.7	15403	
461.9	13353	
462.1	13473	
462.3	15195	
462.5	15739	
462.7	13267	
462.9	13750	
463.1	16959	
463.3	16806	
463.5	13816	
463.7	15277	
463.9	15773	
464.1	16164	
464.3	14666	
464.5	14659	
464.7	16628	
464.9	16670	
465.1	16160	
465.3	15167	
465.5	17100	
465.7	17204	
465.9	15652	
466.1	14939	
466.3	17372	
466.5	16648	
466.7	16524	
466.9	15079	
467.1	16956	
467.3	17959	
467.5	16799	
467.7	15304	
467.9	18193	
468.1	19274	
468.3	16055	
468.5	16678	
468.7	17258	
468.9	17150	
469.1	15898	
469.3	16663	
469.5	19412	
469.7	17027	
469.9	16124	
470.1	15711	
470.3	17406	
470.5	17249	
470.7	16894	
470.9	15647	
471.1	17122	
471.3	17163	
471.5	15550	
471.69	17433	
471.89	16696	
472.09	16065	
472.29	16195	
472.49	16125	
472.69	16616	
472.89	17235	
473.09	15308	
473.29	15001	
473.49	16551	
473.69	16627	
473.89	16205	
474.09	15226	
474.29	17684	
474.49	17337	
474.69	16027	
474.89	15321	
475.09	16486	
475.29	16543	
475.49	14536	
475.69	15090	
475.88	17834	
476.08	16680	
476.28	14382	
476.48	14784	
476.68	16847	
476.88	16567	
477.08	14330	
477.28	14893	
477.48	15815	
477.68	16628	
477.88	14331	
478.08	14669	
478.28	17221	
478.48	16127	
478.67	14734	
478.87	13912	
479.07	17178	
479.27	16186	
479.47	14833	
479.67	14906	
479.87	16878	
480.07	17312	
480.27	14247	
480.47	15858	
480.67	16285	
480.87	17018	
481.06	14332	
481.26	15399	
481.46	16204	
481.66	16212	
481.86	14836	
482.06	15898	
482.26	15836	
482.46	16873	
482.66	14643	
482.86	14220	
483.05	16313	
483.25	15674	
483.45	17397	
483.65	14734	
483.85	16011	
484.05	16180	
484.25	15384	
484.45	16034	
484.65	17281	
484.84	17511	
485.04	14817	
485.24	14881	
485.44	17771	
485.64	15935	
485.84	14484	
486.04	15859	
486.24	16393	
486.44	16791	
486.63	14328	
486.83	15312	
487.03	16584	
487.23	16965	
487.43	14541	
487.63	17282	
487.83	16950	
488.02	18094	
488.22	16010	
488.42	16754	
488.62	17815	
488.82	16959	
489.02	15341	
489.22	15772	
489.41	17658	
489.61	17568	
489.81	15274	
490.01	15355	
490.21	17826	
490.41	18526	
490.61	15349	
490.8	15494	
491	17292	
491.2	16330	
491.4	15881	
491.6	14916	
491.8	16957	
491.99	16982	
492.19	14663	
492.39	15171	
492.59	17552	
492.79	17660	
492.99	16150	
493.18	15251	
493.38	17832	
493.58	19086	
493.78	16270	
493.98	15883	
494.18	17798	
494.37	17597	
494.57	17171	
494.77	16894	
494.97	18632	
495.17	19065	
495.37	16627	
495.56	17016	
495.76	19415	
495.96	19006	
496.16	18163	
496.36	17243	
496.55	19327	
496.75	18987	
496.95	17481	
497.15	17417	
497.35	19186	
497.54	19420	
497.74	17157	
497.94	19174	
498.14	20326	
498.34	19942	
498.53	17157	
498.73	17852	
498.93	18938	
499.13	19527	
499.33	17811	
499.52	18211	
499.72	19699	
499.92	19851	
500.12	17666	
500.32	17896	
500.51	20024	
500.71	19831	
500.91	18717	
501.11	18237	
501.31	20000	
501.5	20248	
501.7	18896	
501.9	17860	
502.1	19651	
502.29	19957	
502.49	18511	
502.69	18666	
502.89	19669	
503.09	19780	
503.28	17097	
503.48	17232	
503.68	18761	
503.88	18850	
504.07	18226	
504.27	17302	
504.47	19035	
504.67	18985	
504.86	17927	
505.06	17447	
505.26	18346	
505.46	20302	
505.65	17222	
505.85	17234	
506.05	18061	
506.25	18691	
506.44	16227	
506.64	17032	
506.84	17683	
507.04	18558	
507.23	16129	
507.43	16734	
507.63	19652	
507.83	17772	
508.02	16449	
508.22	16012	
508.42	19707	
508.62	17456	
508.81	16075	
509.01	16799	
509.21	16951	
509.4	17350	
509.6	16337	
509.8	15672	
510	17266	
510.19	18946	
510.39	15672	
510.59	15850	
510.79	17189	
510.98	18843	
511.18	15957	
511.38	16158	
511.57	18005	
511.77	17827	
511.97	16505	
512.17	15454	
512.36	17956	
512.56	17898	
512.76	15605	
512.95	15277	
513.15	17991	
513.35	16590	
513.55	16472	
513.74	15614	
513.94	18043	
514.14	17453	
514.33	16694	
514.53	16431	
514.73	17307	
514.92	17705	
515.12	15978	
515.32	15940	
515.51	17785	
515.71	18385	
515.91	17660	
516.11	16015	
516.3	19710	
516.5	17460	
516.7	16536	
516.89	17302	
517.09	17575	
517.29	17660	
517.48	16881	
517.68	16385	
517.88	17265	
518.07	17997	
518.27	16842	
518.47	15745	
518.66	18530	
518.86	16956	
519.06	15458	
519.25	15982	
519.45	17368	
519.65	19167	
519.84	16657	
520.04	17507	
520.24	19342	
520.43	18058	
520.63	16320	
520.83	15965	
521.02	17112	
521.22	17587	
521.42	16329	
521.61	16937	
521.81	17179	
522.01	17342	
522.2	16238	
522.4	15860	
522.6	18028	
522.79	16938	
522.99	16049	
523.18	15643	
523.38	17940	
523.58	17946	
523.77	17806	
523.97	15872	
524.17	20223	
524.36	19350	
524.56	17542	
524.76	17200	
524.95	18430	
525.15	18098	
525.34	17045	
525.54	17120	
525.74	18990	
525.93	18053	
526.13	18437	
526.33	17306	
526.52	19476	
526.72	19028	
526.91	18723	
527.11	18000	
527.31	19673	
527.5	20181	
527.7	17879	
527.89	16972	
528.09	18609	
528.29	19495	
528.48	18157	
528.68	17910	
528.87	19673	
529.07	19520	
529.27	17734	
529.46	17303	
529.66	19226	
529.85	19801	
530.05	17124	
530.25	17893	
530.44	20658	
530.64	19106	
530.83	17520	
531.03	17853	
531.23	19619	
531.42	19413	
531.62	18538	
531.81	17755	
532.01	20061	
532.21	20615	
532.4	17881	
532.6	18464	
532.79	21202	
532.99	20375	
533.18	18645	
533.38	19583	
533.58	20048	
533.77	20807	
533.97	18702	
534.16	19654	
534.36	21055	
534.55	20284	
534.75	19813	
534.95	18734	
535.14	21145	
535.34	20108	
535.53	18367	
535.73	20442	
535.92	21501	
536.12	20168	
536.31	18457	
536.51	19794	
536.71	20271	
536.9	19939	
537.1	18397	
537.29	18619	
537.49	20783	
537.68	19766	
537.88	18985	
538.07	18259	
538.27	20221	
538.46	21254	
538.66	18277	
538.86	18740	
539.05	20112	
539.25	20633	
539.44	19144	
539.64	18364	
539.83	19966	
540.03	20986	
540.22	18226	
540.42	18235	
540.61	19874	
540.81	20306	
541	18484	
541.2	19329	
541.39	19407	
541.59	19828	
541.78	18882	
541.98	17836	
542.18	18936	
542.37	18861	
542.57	18145	
542.76	18710	
542.96	18753	
543.15	19484	
543.35	17836	
543.54	17290	
543.74	19599	
543.93	19139	
544.13	17505	
544.32	18559	
544.52	19206	
544.71	18277	
544.91	16407	
545.1	17628	
545.3	18338	
545.49	19164	
545.69	16232	
545.88	16979	
546.08	19943	
546.27	19384	
546.47	17390	
546.66	16589	
546.86	19080	
547.05	19738	
547.24	16803	
547.44	16848	
547.63	17764	
547.83	19291	
548.02	17110	
548.22	17204	
548.41	17673	
548.61	19026	
548.8	16417	
549	16422	
549.19	18066	
549.39	18429	
549.58	15839	
549.78	16601	
549.97	18375	
550.17	17970	
550.36	18233	
550.55	18482	
550.75	17976	
550.94	18796	
551.14	16215	
551.33	16345	
551.53	17244	
551.72	18150	
551.92	16485	
552.11	16191	
552.31	18138	
552.5	17985	
552.69	17973	
552.89	15653	
553.08	18155	
553.28	17690	
553.47	16289	
553.67	17266	
553.86	18703	
554.06	16789	
554.25	15131	
554.44	15825	
554.64	19311	
554.83	18908	
555.03	15726	
555.22	16095	
555.42	18248	
555.61	17793	
555.8	15734	
556	16063	
556.19	16877	
556.39	18032	
556.58	15840	
556.78	15842	
556.97	17458	
557.16	17311	
557.36	17084	
557.55	15505	
557.75	16560	
557.94	18455	
558.13	15480	
558.33	15239	
558.52	17996	
558.72	16916	
558.91	15321	
559.1	15536	
559.3	16465	
559.49	16094	
559.69	14721	
559.88	15754	
560.07	17318	
560.27	17660	
560.46	15799	
560.66	15954	
560.85	16950	
561.04	16104	
561.24	14905	
561.43	14976	
561.63	16263	
561.82	16580	
562.01	16303	
562.21	15453	
562.4	16897	
562.59	18177	
562.79	15255	
562.98	15044	
563.18	17018	
563.37	18503	
563.56	15860	
563.76	14874	
563.95	16410	
564.14	16434	
564.34	15313	
564.53	15066	
564.73	16852	
564.92	17393	
565.11	15482	
565.31	14855	
565.5	17621	
565.69	16489	
565.89	15068	
566.08	15310	
566.27	17429	
566.47	17969	
566.66	16080	
566.85	14605	
567.05	16894	
567.24	16332	
567.44	14958	
567.63	16440	
567.82	17290	
568.02	17004	
568.21	14958	
568.4	15346	
568.6	16806	
568.79	16843	
568.98	14635	
569.18	15029	
569.37	16726	
569.56	18817	
569.76	15229	
569.95	16165	
570.14	16807	
570.34	16941	
570.53	14582	
570.72	14599	
570.91	17228	
571.11	16220	
571.3	14742	
571.49	15627	
571.69	16265	
571.88	15806	
572.07	15356	
572.27	15243	
572.46	15768	
572.65	16889	
572.85	14487	
573.04	14853	
573.23	17302	
573.43	16413	
573.62	14487	
573.81	15096	
574	16429	
574.2	16309	
574.39	14870	
574.58	14917	
574.78	17592	
574.97	16720	
575.16	15378	
575.36	15556	
575.55	17182	
575.74	17153	
575.93	14388	
576.13	15677	
576.32	16485	
576.51	17065	
576.71	14773	
576.9	16473	
577.09	17307	
577.28	16760	
577.48	15541	
577.67	14392	
577.86	16460	
578.05	16894	
578.25	15034	
578.44	15212	
578.63	16595	
578.83	17914	
579.02	14389	
579.21	16313	
579.4	16814	
579.6	16647	
579.79	15335	
579.98	17587	
580.17	17292	
580.37	17357	
580.56	14829	
580.75	15614	
580.94	17847	
581.14	17594	
581.33	16162	
581.52	14980	
581.71	17341	
581.91	17991	
582.1	14776	
582.29	15415	
582.48	16872	
582.68	16946	
582.87	15956	
583.06	15614	
583.25	17306	
583.45	17192	
583.64	16466	
583.83	17084	
584.02	16909	
584.21	17357	
584.41	16240	
584.6	15619	
584.79	17063	
584.98	17955	
585.18	15171	
585.37	15148	
585.56	16556	
585.75	17507	
585.94	15110	
586.14	15857	
586.33	17895	
586.52	16793	
586.71	15433	
586.91	15184	
587.1	15903	
587.29	17018	
587.48	14787	
587.67	14752	
587.87	16721	
588.06	16534	
588.25	15904	
588.44	14892	
588.63	15745	
588.83	16479	
589.02	14031	
589.21	13662	
589.4	15011	
589.59	14842	
589.78	12292	
589.98	12375	
590.17	13754	
590.36	14122	
590.55	11189	
590.74	11878	
590.94	15100	
591.13	13549	
591.32	11654	
591.51	11127	
591.7	13967	
591.89	13519	
592.09	11224	
592.28	11791	
592.47	12850	
592.66	14657	
592.85	11399	
593.05	11759	
593.24	13426	
593.43	14349	
593.62	11884	
593.81	12533	
594	13702	
594.19	13876	
594.39	11930	
594.58	11814	
594.77	14182	
594.96	14709	
595.15	11639	
595.34	12362	
595.54	13997	
595.73	12931	
595.92	11004	
596.11	12174	
596.3	14483	
596.49	13226	
596.68	11959	
596.88	12365	
597.07	14268	
597.26	13066	
597.45	11526	
597.64	12930	
597.83	13309	
598.02	14005	
598.22	11622	
598.41	12372	
598.6	13800	
598.79	13427	
598.98	11817	
599.17	12874	
599.36	13952	
599.55	15263	
599.74	14140	
599.94	13822	
600.13	14579	
600.32	13454	
600.51	11828	
600.7	11847	
600.89	15313	
601.08	15418	
601.27	11676	
601.47	12869	
601.66	14595	
601.85	15401	
602.04	12585	
602.23	12733	
602.42	13816	
602.61	14422	
602.8	12548	
602.99	12257	
603.18	14093	
603.37	14461	
603.57	12940	
603.76	13471	
603.95	15208	
604.14	14846	
604.33	12424	
604.52	12876	
604.71	14601	
604.9	14073	
605.09	13314	
605.28	13222	
605.47	15227	
605.66	14899	
605.86	13067	
606.05	12575	
606.24	14993	
606.43	13551	
606.62	12846	
606.81	13551	
607	14767	
607.19	14142	
607.38	12148	
607.57	12404	
607.76	13906	
607.95	13340	
608.14	12742	
608.33	13414	
608.52	13792	
608.72	14703	
608.91	11979	
609.1	11805	
609.29	13813	
609.48	13394	
609.67	12835	
609.86	11880	
610.05	13511	
610.24	13709	
610.43	11652	
610.62	11326	
610.81	14876	
611	14681	
611.19	11761	
611.38	12572	
611.57	14033	
611.76	15319	
611.95	11456	
612.14	11439	
612.33	13816	
612.52	13220	
612.71	12102	
612.9	11256	
613.09	12780	
613.28	15374	
613.47	11687	
613.66	12825	
613.85	13803	
614.04	13263	
614.24	11772	
614.43	10857	
614.62	13922	
614.81	13889	
615	12390	
615.19	12534	
615.38	13158	
615.57	13497	
615.76	12083	
615.95	13099	
616.14	13967	
616.33	13561	
616.52	12469	
616.71	12684	
616.9	13799	
617.09	13741	
617.28	11740	
617.47	13145	
617.66	12960	
617.85	12922	
618.04	12806	
618.22	12221	
618.41	13318	
618.6	14377	
618.79	12327	
618.98	11847	
619.17	14708	
619.36	12932	
619.55	12039	
619.74	12138	
619.93	13966	
620.12	13429	
620.31	12674	
620.5	12962	
620.69	14548	
620.88	15001	
621.07	13692	
621.26	12643	
621.45	14045	
621.64	14312	
621.83	12731	
622.02	11889	
622.21	14253	
622.4	13971	
622.59	13222	
622.78	13039	
622.97	13669	
623.16	14617	
623.35	12654	
623.54	11812	
623.72	13755	
623.91	13886	
624.1	12921	
624.29	11486	
624.48	15063	
624.67	14088	
624.86	12750	
625.05	11787	
625.24	14997	
625.43	13233	
625.62	14500	
625.81	11804	
626	14339	
626.19	13615	
626.38	12689	
626.56	11975	
626.75	13297	
626.94	14164	
627.13	12305	
627.32	10943	
627.51	13838	
627.7	14985	
627.89	11116	
628.08	12310	
628.27	12745	
628.46	12945	
628.65	11204	
628.83	10898	
629.02	13547	
629.21	12930	
629.4	11766	
629.59	11970	
629.78	12843	
629.97	13761	
630.16	12068	
630.35	11490	
630.54	14251	
630.72	14122	
630.91	11514	
631.1	12159	
631.29	13396	
631.48	13704	
631.67	12138	
631.86	11590	
632.05	12985	
632.24	13145	
632.42	11161	
632.61	11848	
632.8	13166	
632.99	12891	
633.18	11963	
633.37	12220	
633.56	13393	
633.75	13230	
633.93	11980	
634.12	11619	
634.31	14393	
634.5	13946	
634.69	11761	
634.88	12150	
635.07	13297	
635.25	13986	
635.44	12764	
635.63	12822	
635.82	13135	
636.01	12613	
636.2	12471	
636.39	12032	
636.57	14230	
636.76	13973	
636.95	11389	
637.14	12824	
637.33	13611	
637.52	14611	
637.7	11256	
637.89	12332	
638.08	13060	
638.27	14570	
638.46	12396	
638.65	12680	
638.83	14556	
639.02	12859	
639.21	12099	
639.4	12676	
639.59	13396	
639.78	12867	
639.96	11289	
640.15	11249	
640.34	13188	
640.53	13304	
640.72	10896	
640.91	11310	
641.09	12492	
641.28	13809	
641.47	11569	
641.66	12094	
641.85	13158	
642.03	13312	
642.22	11813	
642.41	11230	
642.6	12510	
642.79	11733	
642.97	10774	
643.16	11599	
643.35	12350	
643.54	11912	
643.73	10641	
643.91	11594	
644.1	11733	
644.29	12482	
644.48	10563	
644.67	10727	
644.85	11694	
645.04	12010	
645.23	9923.1	
645.42	10143	
645.6	11312	
645.79	12426	
645.98	9916.9	
646.17	8866.3	
646.36	10705	
646.54	11186	
646.73	10367	
646.92	9073.9	
647.11	10714	
647.29	11789	
647.48	9145.5	
647.67	8824	
647.86	12091	
648.05	12099	
648.23	9465.7	
648.42	10948	
648.61	11480	
648.8	11207	
648.98	9152.4	
649.17	9529.2	
649.36	10872	
649.55	10327	
649.73	9305.3	
649.92	10210	
650.11	10789	
650.3	11009	
650.48	9428.8	
650.67	9351.7	
650.86	11381	
651.05	10254	
651.23	9334.6	
651.42	9280	
651.61	10649	
651.79	10696	
651.98	9515.5	
652.17	9211.8	
652.36	11193	
652.54	10317	
652.73	9203.6	
652.92	9042.5	
653.11	11184	
653.29	11267	
653.48	8446.5	
653.67	9377	
653.85	10903	
654.04	11900	
654.23	9520.3	
654.42	8979.7	
654.6	10155	
654.79	10868	
654.98	8339.3	
655.16	8704.5	
655.35	9626.8	
655.54	9606.3	
655.73	8271.7	
655.91	8265.6	
656.1	10804	
656.29	9575.6	
656.47	7905.8	
656.66	9738.8	
656.85	9999.5	
657.03	10188	
657.22	8627.4	
657.41	8787.8	
657.59	10271	
657.78	10107	
657.97	8257.4	
658.16	9225.4	
658.34	10990	
658.53	11495	
658.72	10159	
658.9	10689	
659.09	10497	
659.28	10535	
659.46	8928.5	
659.65	8979	
659.84	10164	
660.02	10926	
660.21	8743.5	
660.4	8821.3	
660.58	11305	
660.77	10634	
660.96	9530.6	
661.14	8416.5	
661.33	11744	
661.52	11755	
661.7	8404.2	
661.89	12289	
662.08	10167	
662.26	9880.8	
662.45	8686.8	
662.64	8746.9	
662.82	10976	
663.01	10048	
663.2	8796.7	
663.38	9620	
663.57	10806	
663.75	10615	
663.94	9156.5	
664.13	10305	
664.31	10193	
664.5	10869	
664.69	9465	
664.87	10035	
665.06	9834.3	
665.25	10604	
665.43	10277	
665.62	10176	
665.8	10920	
665.99	10148	
666.18	9022	
666.36	9186.5	
666.55	10901	
666.74	10743	
666.92	8669.7	
667.11	10275	
667.29	10149	
667.48	10877	
667.67	9874.6	
667.85	9070.5	
668.04	10224	
668.22	10265	
668.41	9041.1	
668.6	9238.4	
668.78	9919	
668.97	10221	
669.15	9297.1	
669.34	8353.7	
669.53	9919	
669.71	10310	
669.9	8456.1	
670.08	9195.4	
670.27	9920.4	
670.46	10533	
670.64	9312.8	
670.83	9684.2	
671.01	9797.5	
671.2	10440	
671.38	8544.8	
671.57	8447.2	
671.76	11130	
671.94	11740	
672.13	8396.7	
672.31	9535.3	
672.5	10656	
672.69	9895.1	
672.87	8496.3	
673.06	8852	
673.24	10488	
673.43	10067	
673.61	9271.8	
673.8	8798.1	
673.98	10552	
674.17	10814	
674.36	9349	
674.54	9237	
674.73	10341	
674.91	10613	
675.1	8994	
675.28	8462.2	
675.47	10090	
675.65	10679	
675.84	8731.2	
676.03	9125.7	
676.21	9840.5	
676.4	9409.7	
676.58	9528.5	
676.77	9282.8	
676.95	11307	
677.14	9787.2	
677.32	8398	
677.51	8184.4	
677.69	10550	
677.88	9401.5	
678.06	8234.9	
678.25	8297.7	
678.44	10117	
678.62	9782.5	
678.81	7974.1	
678.99	9073.9	
679.18	10927	
679.36	10466	
679.55	8570.7	
679.73	9253.4	
679.92	10335	
680.1	9745.6	
680.29	9924.5	
680.47	8574.2	
680.66	9653.4	
680.84	10514	
681.03	7783.6	
681.21	9015.2	
681.4	9684.8	
681.58	9521.7	
681.77	8299.7	
681.95	8217.1	
682.14	10482	
682.32	10868	
682.51	9181.7	
682.69	7903.1	
682.88	9594.1	
683.06	10139	
683.25	8822.6	
683.43	9212.4	
683.62	9773.6	
683.8	10161	
683.99	9269.8	
684.17	8529.1	
684.36	10826	
684.54	9357.9	
684.73	7385	
684.91	7505.8	
685.1	9367.4	
685.28	8659.5	
685.46	7742	
685.65	7776.8	
685.83	9313.5	
686.02	8641.1	
686.2	7178.8	
686.39	7316.7	
686.57	8553	
686.76	10156	
686.94	7198.6	
687.13	7415	
687.31	9308.7	
687.5	8847.9	
687.68	6851.8	
687.86	8154.3	
688.05	10671	
688.23	8251.9	
688.42	8218.5	
688.6	7465.5	
688.79	8718.2	
688.97	8839	
689.16	7849.2	
689.34	6771.9	
689.52	9521.7	
689.71	9843.2	
689.89	8163.2	
690.08	7378.8	
690.26	8981	
690.45	8822.6	
690.63	8172.1	
690.81	7464.2	
691	8452	
691.18	8431.5	
691.37	7415	
691.55	9706	
691.74	8370	
691.92	10408	
692.1	7311.9	
692.29	6812.2	
692.47	8521.6	
692.66	7816.4	
692.84	6959	
693.02	7643	
693.21	8003.5	
693.39	8527.1	
693.58	7742.7	
693.76	7140.6	
693.94	9921.7	
694.13	9766.8	
694.31	7342	
694.5	8479.3	
694.68	8632.2	
694.86	9108.7	
695.05	7811.6	
695.23	7946.8	
695.42	9543.5	
695.6	11991	
695.78	8553	
695.97	7481.2	
696.15	9576.3	
696.34	8810.4	
696.52	7196.6	
696.7	8091.5	
696.89	9031.5	
697.07	8451.3	
697.25	7811.6	
697.44	9422	
697.62	8901.2	
697.81	9267.1	
697.99	7419.8	
698.17	7885.4	
698.36	8159.1	
698.54	8850.6	
698.72	7737.9	
698.91	6645	
699.09	8359.8	
699.28	8269	
699.46	7281.9	
699.64	7219.8	
699.83	8146.1	
700.01	9471.2	
700.19	8060.1	
700.38	6452.5	
700.56	9559.2	
700.74	8435.6	
700.93	7090.1	
701.11	7959.1	
701.29	9122.3	
701.48	10258	
701.66	7339.9	
701.84	7354.9	
702.03	8732.5	
702.21	9428.2	
702.39	6870.3	
702.58	7488.7	
702.76	9117.6	
702.94	9143.5	
703.13	6969.9	
703.31	9392	
703.49	8290.9	
703.68	9552.4	
703.86	7000.6	
704.04	8054	
704.23	8910	
704.41	9321	
704.59	7178.1	
704.78	8434.9	
704.96	9921.7	
705.14	9301.9	
705.33	6976.1	
705.51	7897.7	
705.69	8682	
705.87	9566.7	
706.06	8204.8	
706.24	7014.3	
706.42	9024.7	
706.61	9390.6	
706.79	8290.2	
706.97	7085.3	
707.16	8502.5	
707.34	9125.1	
707.52	8153	
707.7	7208.8	
707.89	8764.6	
708.07	8409	
708.25	8162.5	
708.44	8281.3	
708.62	8607.6	
708.8	9750.4	
708.98	8419.9	
709.17	7417.1	
709.35	8981.7	
709.53	9114.1	
709.72	7089.4	
709.9	7151.5	
710.08	9318.9	
710.26	9308	
710.45	8729.8	
710.63	7380.9	
710.81	8878.6	
710.99	8888.2	
711.18	7966.6	
711.36	7388.4	
711.54	8567.3	
711.72	9247.3	
711.91	7456.7	
712.09	6697.5	
712.27	8657.4	
712.45	9638.4	
712.64	7515.4	
712.82	6412.2	
713	7799.3	
713.18	7993.9	
713.37	6419	
713.55	7601.4	
713.73	8686.1	
713.91	7079.1	
714.1	6350.8	
714.28	5729.5	
714.46	7909.9	
714.64	7035.5	
714.83	5000.5	
715.01	5798.5	
715.19	6954.2	
715.37	6227.9	
715.55	5344.5	
715.74	5645.6	
715.92	7868.3	
716.1	5760.9	
716.28	6737.8	
716.47	5777.3	
716.65	6407.4	
716.83	6524.1	
717.01	5618.3	
717.19	5700.2	
717.38	8738.7	
717.56	6212.2	
717.74	5983.5	
717.92	5099.4	
718.1	7558.4	
718.29	6821.1	
718.47	4874.2	
718.65	5571.2	
718.83	7719.5	
719.01	7709.2	
719.2	4878.9	
719.38	6063.4	
719.56	7437.5	
719.74	9040.4	
719.92	5573.9	
720.11	6726.9	
720.29	7406.1	
720.47	6418.3	
720.65	4999.1	
720.83	5834.7	
721.02	6723.5	
721.2	6353.5	
721.38	5756.2	
721.56	4983.4	
721.74	5863.3	
721.92	6057.9	
722.11	6402	
722.29	5966.4	
722.47	7314.7	
722.65	6512.5	
722.83	4971.8	
723.01	5963.7	
723.2	6603.3	
723.38	6796.5	
723.56	4435.9	
723.74	5652.4	
723.92	6087.2	
724.1	7309.2	
724.29	4932.9	
724.47	6145.3	
724.65	6111.1	
724.83	6108.4	
725.01	4820.9	
725.19	5726.8	
725.37	6163.7	
725.56	6240.2	
725.74	4776.5	
725.92	4980.7	
726.1	6014.2	
726.28	6392.4	
726.46	5439.4	
726.64	5049.6	
726.83	6271.6	
727.01	6645	
727.19	4622.3	
727.37	5555.5	
727.55	6427.2	
727.73	6994.5	
727.91	4659.1	
728.09	4537.6	
728.28	7030.7	
728.46	7799.3	
728.64	5745.9	
728.82	5700.9	
729	8312.7	
729.18	7610.9	
729.36	4996.4	
729.54	7533.8	
729.72	8789.9	
729.91	6997.2	
730.09	7199.3	
730.27	5881.1	
730.45	6898.2	
730.63	7637.6	
730.81	6625.9	
730.99	5552.7	
731.17	8135.9	
731.35	6735.1	
731.53	6158.9	
731.71	5709.7	
731.9	7910.6	
732.08	8067.6	
732.26	5981.4	
732.44	5657.9	
732.62	8125	
732.8	7516.7	
732.98	6370.5	
733.16	5347.9	
733.34	7420.5	
733.52	6289.3	
733.7	5857.9	
733.88	6176.7	
734.07	7403.4	
734.25	7124.2	
734.43	5455.1	
734.61	7118.1	
734.79	8705.2	
734.97	7054.6	
735.15	5563.6	
735.33	5982.8	
735.51	7468.9	
735.69	7055.3	
735.87	7125.6	
736.05	6165.8	
736.23	7360.4	
736.41	7096.9	
736.59	5992.4	
736.77	6176	
736.95	7774.8	
737.13	7251.9	
737.32	5736.4	
737.5	5948.7	
737.68	8430.1	
737.86	7122.8	
738.04	5487.2	
738.22	7502.4	
738.4	6900.3	
738.58	7254.6	
738.76	6212.2	
738.94	5095.3	
739.12	7014.3	
739.3	6950.8	
739.48	6838.2	
739.66	6604.7	
739.84	7488.1	
740.02	7404.1	
740.2	5224.4	
740.38	5709.1	
740.56	7802.1	
740.74	6563.7	
740.92	6293.4	
741.1	6277	
741.28	7156.3	
741.46	6997.2	
741.64	5733.6	
741.82	6419.7	
742	7200.7	
742.18	7110.5	
742.36	6044.2	
742.54	5650.3	
742.72	7828	
742.9	6464.1	
743.08	6387.6	
743.26	5236	
743.44	8017.1	
743.62	7871.7	
743.8	6593.1	
743.98	5507.7	
744.16	7540.6	
744.34	7141.3	
744.52	6397.9	
744.7	6313.2	
744.88	7596.6	
745.06	7116	
745.24	6457.9	
745.42	6650.4	
745.6	7666.9	
745.78	7469.6	
745.96	5130.2	
746.14	5475.6	
746.32	8436.3	
746.5	7719.5	
746.68	6099.5	
746.86	5496.7	
747.03	8155	
747.21	6366.5	
747.39	6134.3	
747.57	5515.2	
747.75	7195.9	
747.93	7675.1	
748.11	5576.6	
748.29	5457.8	
748.47	8919.6	
748.65	6960.4	
748.83	6320	
749.01	5851.7	
749.19	7437.5	
749.37	6512.5	
749.55	5894.7	
749.73	5928.9	
749.91	7028.6	
750.09	6774.7	
750.26	5942.5	
750.44	5339.1	
750.62	7101	
750.8	7083.2	
750.98	5096	
751.16	5494	
751.34	7077.1	
751.52	6392.4	
751.7	6358.3	
751.88	5132.2	
752.06	7605.5	
752.24	7418.4	
752.42	5005.9	
752.59	5459.2	
752.77	7017.7	
752.95	8331.8	
753.13	6255.2	
753.31	5538.4	
753.49	6625.2	
753.67	7115.3	
753.85	5838.1	
754.03	5425.8	
754.21	7413	
754.38	7680.6	
754.56	5511.8	
754.74	4528.1	
754.92	6469.5	
755.1	7242.3	
755.28	4489.1	
755.46	4397	
755.64	7812.3	
755.82	7807.5	
755.99	4461.8	
756.17	4609.3	
756.35	5045.5	
756.53	6778.8	
756.71	3304.7	
756.89	4317.8	
757.07	6288.6	
757.25	5227.8	
757.42	4924	
757.6	5803.9	
757.78	6429.9	
757.96	5246.2	
758.14	4588.8	
758.32	4050.2	
758.5	4789.5	
758.67	5708.4	
758.85	4311.7	
759.03	4580.6	
759.21	5824.4	
759.39	5255.8	
759.57	3961.5	
759.75	5210.7	
759.92	6505.7	
760.1	5822.4	
760.28	5573.2	
760.46	5778.7	
760.64	5584.1	
760.82	5328.8	
760.99	5465.3	
761.17	4588.1	
761.35	6545.3	
761.53	5435.3	
761.71	4784.7	
761.89	5603.2	
762.06	6429.9	
762.24	5951.4	
762.42	4984.1	
762.6	4729.4	
762.78	6027.2	
762.96	6701	
763.13	5406.6	
763.31	5104.9	
763.49	7018.4	
763.67	6057.9	
763.85	6059.9	
764.02	6581.5	
764.2	7233.4	
764.38	6352.8	
764.56	4958.8	
764.74	5901.6	
764.91	7355.6	
765.09	6147.3	
765.27	4617.5	
765.45	4394.9	
765.63	7428.7	
765.8	7258.7	
765.98	4158.7	
766.16	4488.5	
766.34	5725.4	
766.52	5452.4	
766.69	5530.9	
766.87	4305.5	
767.05	6141.2	
767.23	6896.2	
767.41	4633.2	
767.58	4955.4	
767.76	6726.9	
767.94	6799.9	
768.12	4754.7	
768.29	5607.3	
768.47	6238.8	
768.65	6939.9	
768.83	4311	
769	5555.5	
769.18	5750	
769.36	6504.3	
769.54	5530.2	
769.72	4387.4	
769.89	6779.5	
770.07	6920.8	
770.25	4602.5	
770.43	6046.3	
770.6	7550.9	
770.78	8018.5	
770.96	4894.6	
771.14	5546.6	
771.31	6642.2	
771.49	5965.7	
771.67	3931.4	
771.85	4274.8	
772.02	5159.5	
772.2	5976.7	
772.38	5064.6	
772.55	4428.4	
772.73	6271.6	
772.91	6018.3	
773.09	4881.7	
773.26	4979.3	
773.44	6206	
773.62	5892	
773.8	4360.1	
773.97	4100.7	
774.15	6289.3	
774.33	5793	
774.5	4186.7	
774.68	4599.7	
774.86	6420.4	
775.04	5821.7	
775.21	4329.4	
775.39	4301.4	
775.57	6152.8	
775.74	6576.7	
775.92	4104.8	
776.1	4076.1	
776.27	6064.7	
776.45	7325.6	
776.63	4317.8	
776.81	3782.6	
776.98	5684.5	
777.16	6864.1	
777.34	4424.3	
777.51	4373.1	
777.69	5644.9	
777.87	5489.9	
778.04	4421.6	
778.22	5154.1	
778.4	5474.9	
778.57	6161	
778.75	3692.5	
778.93	4066.6	
779.1	5193.6	
779.28	5116.5	
779.46	3651.5	
779.64	4181.3	
779.81	6351.4	
779.99	7191.8	
780.17	4992.3	
780.34	5182.7	
780.52	5720	
780.69	5886.5	
780.87	4561.5	
781.05	4080.9	
781.22	5779.4	
781.4	5893.4	
781.58	4218.8	
781.75	3289	
781.93	5811.5	
782.11	5184.1	
782.28	5196.4	
782.46	4178.5	
782.64	5019.6	
782.81	5973.9	
782.99	4237.2	
783.17	4253.6	
783.34	5932.3	
783.52	5072.8	
783.69	4437.9	
783.87	5307	
784.05	5018.9	
784.22	5150.6	
784.4	5285.1	
784.58	4515.8	
784.75	6105	
784.93	5130.2	
785.1	4136.2	
785.28	4835.9	
785.46	5767.1	
785.63	5091.3	
785.81	4127.3	
785.99	4038.6	
786.16	5270.8	
786.34	5720	
786.51	3989.4	
786.69	4469.4	
786.87	4858.5	
787.04	5407.3	
787.22	3923.2	
787.39	4874.2	
787.57	5084.4	
787.75	6269.5	
787.92	5088.5	
788.1	5044.8	
788.27	5173.9	
788.45	4951.3	
788.63	4754.7	
788.8	3358	
788.98	5715.9	
789.15	4863.2	
789.33	3506.1	
789.5	4214	
789.68	6130.3	
789.86	6210.8	
790.03	4706.9	
790.21	4034.5	
790.38	6126.2	
790.56	5218.9	
790.73	3879.5	
790.91	3913	
791.09	5150	
791.26	5934.3	
791.44	4141.7	
791.61	3559.4	
791.79	5141.8	
791.96	5244.8	
792.14	3674.7	
792.32	3250.8	
792.49	5123.3	
792.67	5279	
792.84	3760.1	
793.02	3532.7	
793.19	5555.5	
793.37	6421.1	
793.54	3282.9	
793.72	3638.6	
793.89	6537.8	
794.07	5170.4	
794.25	4346.5	
794.42	3336.8	
794.6	6214.2	
794.77	5857.9	
794.95	4566.3	
795.12	3964.9	
795.3	5129.5	
795.47	5731.6	
795.65	4404.5	
795.82	4241.3	
796	4928.8	
796.17	6971.3	
796.35	4070	
796.52	4803.2	
796.7	5684.5	
796.87	5740.5	
797.05	5046.9	
797.22	4923.3	
797.4	5773.2	
797.57	6819.7	
797.75	4188.8	
797.92	4016.7	
798.1	6118.6	
798.27	5070.8	
798.45	3368.9	
798.62	3660.4	
798.8	5411.4	
798.97	6029.9	
799.15	4480.3	
799.32	4207.2	
799.5	4687.8	
799.67	5496.7	
799.85	4560.1	
800.02	3338.9	
800.2	5042.8	
800.37	5445.5	
800.55	4729.4	
800.72	3971.7	
800.9	5896.8	
801.07	6446.3	
801.25	5351.3	
801.42	4360.1	
801.6	5921.4	
801.77	5677	
801.95	4027	
802.12	3822.2	
802.29	5634	
802.47	5639.4	
802.64	4289.8	
802.82	3207.1	
802.99	5121.3	
803.17	6147.3	
803.34	4192.2	
803.52	3799	
803.69	6802.7	
803.87	4911	
804.04	4157.4	
804.21	4262.5	
804.39	6229.9	
804.56	5333.6	
804.74	3497.2	
804.91	4420.2	
805.09	5167	
805.26	5294.7	
805.44	3553.9	
805.61	4023.6	
805.78	5809.4	
805.96	5834.7	
806.13	4384	
806.31	4686.4	
806.48	4588.1	
806.66	5205.9	
806.83	4345.1	
807	4265.2	
807.18	5112.4	
807.35	5487.9	
807.53	4200.4	
807.7	3356.6	
807.87	6337.1	
808.05	5145.2	
808.22	4691.9	
808.4	3300.6	
808.57	5158.8	
808.74	4753.3	
808.92	3856.3	
809.09	4969.7	
809.27	4988.9	
809.44	5700.9	
809.61	3387.3	
809.79	3836.5	
809.96	6323.4	
810.14	5997.8	
810.31	3295.9	
810.48	4076.1	
810.66	5207.3	
810.83	6006	
811.01	3848.1	
811.18	4288.4	
811.35	5883.8	
811.53	4554.7	
811.7	4670.1	
811.87	4375.1	
812.05	5160.9	
812.22	5089.2	
812.39	3717.1	
812.57	3570.3	
812.74	5175.2	
812.92	6947.4	
813.09	4069.3	
813.26	4476.2	
813.44	6604	
813.61	5076.9	
813.78	3358.7	
813.96	4580.6	
814.13	5159.5	
814.3	4848.9	
814.48	4887.8	
814.65	4090.5	
814.82	6419	
815	4952	
815.17	4160.1	
815.34	5074.2	
815.52	5072.8	
815.69	5051.7	
815.87	4180.6	
816.04	3583.9	
816.21	5188.9	
816.38	4532.2	
816.56	4057.7	
816.73	3743.7	
816.9	6494.1	
817.08	5991.7	
817.25	3745.7	
817.42	4762.9	
817.6	4713.7	
817.77	5152.7	
817.94	4265.2	
818.12	3746.4	
818.29	4900.1	
818.46	7807.5	
818.64	3879.5	
818.81	3644	
818.98	4803.9	
819.16	7014.3	
819.33	4486.4	
819.5	4174.4	
819.67	5545.9	
819.85	6237.4	
820.02	4130.1	
820.19	4358.1	
820.37	5415.5	
820.54	4982	
820.71	4190.1	
820.88	5241.4	
821.06	5446.9	
821.23	4929.5	
821.4	4249.5	
821.58	4191.5	
821.75	5973.9	
821.92	5304.2	
822.09	3442	
822.27	3675.4	
822.44	5098.1	
822.61	5049.6	
822.79	3441.3	
822.96	6630	
823.13	5711.1	
823.3	4840.7	
823.48	3922.5	
823.65	3607.8	
823.82	5899.5	
823.99	4656.4	
824.17	5076.2	
824.34	3688.4	
824.51	6848.4	
824.68	5240.8	
824.86	3775.1	
825.03	4246.8	
825.2	5198.4	
825.37	6245.6	
825.55	3765.5	
825.72	4190.1	
825.89	6949.4	
826.06	6419	
826.24	4057.7	
826.41	4138.3	
826.58	6329.6	
826.75	5502.2	
826.92	3145	
827.1	3548.4	
827.27	8602.2	
827.44	6877.1	
827.61	3870	
827.79	4721.9	
827.96	4879.6	
828.13	5262.6	
828.3	4074.1	
828.47	3406.5	
828.65	5344.5	
828.82	5317.2	
828.99	5231.2	
829.16	4647.5	
829.34	5771.2	
829.51	5596.4	
829.68	4177.2	
829.85	4392.2	
830.02	6114.6	
830.2	5803.9	
830.37	3213.3	
830.54	5089.2	
830.71	6658.6	
830.88	5127.4	
831.05	3256.3	
831.23	3786.7	
831.4	6386.9	
831.57	7122.2	
831.74	3947.8	
831.91	3377.1	
832.09	5398.4	
832.26	5846.3	
832.43	4033.8	
832.6	4551.3	
832.77	5414.8	
832.94	6135.7	
833.12	3211.9	
833.29	3962.1	
833.46	4996.4	
833.63	7384.3	
833.8	4369.7	
833.97	4046.8	
834.15	5765	
834.32	5580	
834.49	4255.7	
834.66	4302.1	
834.83	6034.7	
835	4873.5	
835.17	3877.5	
835.35	3924.6	
835.52	5677	
835.69	5577.3	
835.86	4063.9	
836.03	3331.4	
836.2	5762.3	
836.37	5306.3	
836.55	4038.6	
836.72	3789.4	
836.89	5340.4	
837.06	5893.4	
837.23	4145.8	
837.4	4444.1	
837.57	6647.7	
837.75	7271	
837.92	3680.2	
838.09	3897.3	
838.26	5311.1	
838.43	6126.2	
838.6	4220.2	
838.77	3741	
838.94	7005.4	
839.11	6608.8	
839.29	4001.7	
839.46	3186.6	
839.63	5698.8	
839.8	5474.9	
839.97	3871.3	
840.14	3895.2	
840.31	5526.1	
840.48	5783.5	
840.65	3241.9	
840.82	3875.4	
841	5770.5	
841.17	5745.2	
841.34	3591.5	
841.51	3652.9	
841.68	5664.7	
841.85	5402.5	
842.02	3730	
842.19	3084.9	
842.36	5466	
842.53	5528.8	
842.7	3589.4	
842.87	4404.5	
843.05	7225.9	
843.22	5446.2	
843.39	3415.3	
843.56	3661.8	
843.73	5253.7	
843.9	5874.3	
844.07	5868.8	
844.24	4873.5	
844.41	8574.8	
844.58	5005.2	
844.75	3450.8	
844.92	3796.3	
845.09	5777.3	
845.26	5756.2	
845.43	3571.7	
845.6	3756	
845.77	5763.7	
845.94	5461.2	
846.12	3965.6	
846.29	4222.2	
846.46	5963.7	
846.63	5761.6	
846.8	3555.3	
846.97	4213.4	
847.14	6240.2	
847.31	5743.9	
847.48	4055	
847.65	4422.9	
847.82	6023.1	
847.99	6016.9	
848.16	4821.6	
848.33	4454.3	
848.5	5331.5	
848.67	6298.9	
848.84	3538.9	
849.01	3700.7	
849.18	5141.1	
849.35	4848.9	
849.52	4503.5	
849.69	3461.7	
849.86	5907	
850.03	6279.8	
850.2	3586.7	
850.37	4389.5	
850.54	6201.9	
850.71	5407.3	
850.88	4255	
851.05	3480.2	
851.22	5668.1	
851.39	6342.6	
851.56	3373.7	
851.73	4133.5	
851.9	5029.1	
852.07	6006	
852.24	3935.5	
852.41	3519.1	
852.58	5673.6	
852.75	5134.3	
852.92	3990.8	
853.09	3453.6	
853.26	5291.3	
853.43	6183.5	
853.6	3519.8	
853.77	3018.7	
853.94	6355.5	
854.11	5752.1	
854.28	5384.1	
854.44	3849.5	
854.61	6809.5	
854.78	6109.8	
854.95	3522.5	
855.12	4524.6	
855.29	4633.2	
855.46	6421.7	
855.63	3596.2	
855.8	5008.6	
855.97	5334.3	
856.14	6139.1	
856.31	5110.4	
856.48	3852.9	
856.65	5287.9	
856.82	4993.6	
856.99	3405.8	
857.16	3885.7	
857.33	7008.1	
857.49	5392.3	
857.66	3844	
857.83	4197	
858	5408.7	
858.17	5599.8	
858.34	3363.4	
858.51	3601.7	
858.68	6515.3	
858.85	6582.2	
859.02	4140.3	
859.19	4485.7	
859.36	5026.4	
859.52	5081.7	
859.69	3560.1	
859.86	4208.6	
860.03	5093.3	
860.2	6299.6	
860.37	3166.2	
860.54	3620.8	
860.71	5993	
860.88	6404.7	
861.05	4031.8	
861.21	4511	
861.38	6461.3	
861.55	4912.4	
861.72	3270.6	
861.89	4006.5	
862.06	6105.7	
862.23	6563.7	
862.4	3467.2	
862.56	3704.8	
862.73	5845.6	
862.9	5478.3	
863.07	4203.8	
863.24	3232.4	
863.41	4900.8	
863.58	5038.7	
863.75	3708.2	
863.91	4112.3	
864.08	6483.2	
864.25	5846.3	
864.42	4478.9	
864.59	5024.3	
864.76	6775.4	
864.93	5044.8	
865.09	3478.8	
865.26	3822.9	
865.43	6292.7	
865.6	6685.9	
865.77	3093.1	
865.94	3546.4	
866.1	6343.2	
866.27	6083.1	
866.44	5412.8	
866.61	3403	
866.78	5511.1	
866.95	5979.4	
867.11	3424.2	
867.28	3130.7	
867.45	6068.1	
867.62	5118.6	
867.79	4141.7	
867.96	3533.4	
868.12	5069.4	
868.29	6039.5	
868.46	3558	
868.63	4792.2	
868.8	6230.6	
868.97	5991	
869.13	3704.1	
869.3	3717.1	
869.47	5913.2	
869.64	6120	
869.81	3643.3	
869.97	3588.7	
870.14	5759.6	
870.31	6500.3	
870.48	3458.3	
870.65	4437.3	
870.81	5353.4	
870.98	5330.2	
871.15	4012.7	
871.32	3725.3	
871.48	5839.4	
871.65	6572.6	
871.82	3517	
871.99	3943.7	
872.16	6966.5	
872.32	6483.2	
872.49	3544.4	
872.66	3590.8	
872.83	5976	
872.99	5244.2	
873.16	4106.9	
873.33	3528	
873.5	5632.6	
873.67	5648.3	
873.83	3774.4	
874	4846.9	
874.17	5766.4	
874.34	6888.7	
874.5	4646.8	
874.67	4495.3	
874.84	6381.5	
875.01	5083.7	
875.17	5063.3	
875.34	3580.5	
875.51	5690.6	
875.68	6893.5	
875.84	4309.6	
876.01	5262.6	
876.18	5944.6	
876.34	5927.5	
876.51	3607.2	
876.68	3472	
876.85	5421	
877.01	6309.8	
877.18	5125.4	
877.35	3561.4	
877.52	5518.6	
877.68	4960.2	
877.85	3509.5	
878.02	3468.6	
878.18	5528.8	
878.35	5233.9	
878.52	2843.3	
878.69	3981.9	
878.85	6022.4	
879.02	5956.9	
879.19	5023.7	
879.35	3857	
879.52	5941.8	
879.69	6166.4	
879.86	3011.9	
880.02	3982.6	
880.19	5558.9	
880.36	6785.6	
880.52	4067.9	
880.69	4209.3	
880.86	6072.9	
881.02	6190.3	
881.19	3951.9	
881.36	3824.9	
881.52	5921.4	
881.69	5274.2	
881.86	3844	
882.02	3780.6	
882.19	6260	
882.36	7390.4	
882.52	3663.8	
882.69	5046.2	
882.86	5759.6	
883.02	5600.5	
883.19	4339.6	
883.36	4101.4	
883.52	6047	
883.69	6960.4	
883.86	3611.3	
884.02	3170.3	
884.19	5995.1	
884.36	5504.9	
884.52	4031.8	
884.69	3732.1	
884.86	5295.4	
885.02	6719.4	
885.19	3953.9	
885.36	4095.3	
885.52	5556.1	
885.69	5699.5	
885.86	5168.4	
886.02	4575.2	
886.19	6008.1	
886.35	5410.7	
886.52	3916.4	
886.69	5024.4	
886.85	5135.6	
887.02	6406	
887.19	6406	
887.35	6406	
887.52	6406	
887.68	6406	
887.85	6406	
888.02	6406	
888.18	6406	
888.35	6406	
888.51	6406	
888.68	6406	
888.85	6406	
889.01	6406	
889.18	6406	
889.35	6406	
889.51	6406	
889.68	6406	
889.84	6406	
890.01	6406	
890.17	6406	
890.34	6406	
890.51	6406	
890.67	6406	
890.84	6406	
891	6406	
891.17	6406	
891.34	6406	
891.5	6406	
891.67	6406	
891.83	6406	
892	6406	
892.16	6406	
892.33	6406	
892.5	6406	
892.66	6406	
892.83	6406	
892.99	6406	
893.16	6406	
893.32	6406	
893.49	6406	
893.65	6406	
893.82	6406	
893.99	6406	
894.15	6406	
894.32	6406	
894.48	6406	
894.65	6406	
894.81	6406	
894.98	6406	
895.14	6406	
895.31	6406	
895.47	6406	
895.64	6406	
895.81	6406	
895.97	6406	
896.14	6406	
896.3	6406	
896.47	6406	
896.63	6406	
896.8	6406	
896.96	6406	
897.13	6406	
897.29	6406	
897.46	6406	
897.62	6406	
897.79	6406	
897.95	6406	
898.12	6406	
898.28	6406	
898.45	6406	
898.61	6406	
898.78	6406	
898.94	6406	
899.11	6406	
899.27	6406	
899.44	6406	
899.6	6406	
899.77	6406	
899.93	6406	
900.1	6406	
900.26	6406	
900.43	6406	
900.59	6406	
900.76	6406	
900.92	6406	
901.09	6406	
901.25	6406	
901.42	6406	
901.58	6406	
901.75	6406	
901.91	6406	
902.07	6406	
902.24	6406	
902.4	6406	
902.57	6406	
902.73	6406	
902.9	6406	
903.06	6406	
903.23	6406	
903.39	6406	
903.56	6406	
903.72	6406	
903.88	6406	
904.05	6406	
904.21	6406	
904.38	6406	
904.54	6406	
904.71	6406	
904.87	6406	
905.03	6406	
905.2	6406	
905.36	6406	
905.53	6406	
905.69	6406	
905.86	6406	
906.02	6406	
906.18	6406	
906.35	6406	
906.51	6406	
906.68	6406	
906.84	6406	
907.01	6406	
907.17	6406	
907.33	6406	
907.5	6406	
907.66	6406	
907.83	6406	
907.99	6406	
908.15	6406	
908.32	6406	
908.48	6406	
908.65	6406	
908.81	6406	
908.97	6406	
909.14	6406	
909.3	6406	
909.47	6406	
909.63	6406	
909.79	6406	
909.96	6406	
910.12	6406	
910.28	6406	
910.45	6406	
910.61	6406	
910.78	6406	
910.94	6406	
911.1	6406	
911.27	6406	
911.43	6406	
911.59	6406	
911.76	6406	
911.92	6406	
912.08	6406	
912.25	6406	
912.41	6406	
912.57	6406	
912.74	6406	
912.9	6406	
913.07	6406	
913.23	6406	
913.39	6406	
913.56	6406	
913.72	6406	
913.88	6406	
914.05	6406	
914.21	6406	
914.37	6406	
914.54	6406	
914.7	6406	
914.86	6406	
915.03	6406	
915.19	6406	
