Wavelength	Intensities	
nm	a.u.	
179.22	1453	
179.44	1445.9	
179.65	1460.2	
179.86	1431.5	
180.08	1431.5	
180.29	3026.2	
180.51	2508.1	
180.72	4339.6	
180.94	4580.6	
181.15	2242.5	
181.37	2231.6	
181.58	4101.4	
181.79	4145.1	
182.01	2333.3	
182.22	2282.8	
182.44	4333.5	
182.65	3784.6	
182.87	2790	
183.08	2535.4	
183.29	4471.4	
183.51	3817.4	
183.72	2336.7	
183.94	3032.4	
184.15	4078.9	
184.37	3983.3	
184.58	2208.4	
184.79	2630.3	
185.01	3908.2	
185.22	4468	
185.44	2747	
185.65	2458.9	
185.86	4151.9	
186.08	3793.5	
186.29	2176.3	
186.51	2266.4	
186.72	3927.3	
186.94	4344.4	
187.15	2521	
187.36	2540.2	
187.58	5126.7	
187.79	4116.4	
188.01	2551.8	
188.22	3629.7	
188.43	4653.7	
188.65	4306.9	
188.86	2329.2	
189.08	2568.8	
189.29	3945.1	
189.5	3927.3	
189.72	2406.4	
189.93	2405.7	
190.15	4378.6	
190.36	4873.5	
190.57	2561.3	
190.79	2433	
191	4250.2	
191.22	4360.1	
191.43	2614.6	
191.64	2275.3	
191.86	4527.4	
192.07	4338.3	
192.29	2334	
192.5	2315.6	
192.71	4320.5	
192.93	4061.1	
193.14	2379.7	
193.35	2419.3	
193.57	3976.5	
193.78	4379.9	
194	2033.6	
194.21	2325.8	
194.42	3686.3	
194.64	4130.8	
194.85	2458.9	
195.07	2798.9	
195.28	4053.6	
195.49	3730.7	
195.71	2906.1	
195.92	2295.8	
196.13	4258.4	
196.35	4106.2	
196.56	3012.6	
196.78	2592.7	
196.99	4882.4	
197.2	4530.8	
197.42	2729.3	
197.63	2521.7	
197.84	3786	
198.06	4179.2	
198.27	2435.7	
198.48	2942.9	
198.7	4034.5	
198.91	4136.9	
199.13	2610.5	
199.34	2458.2	
199.55	4448.2	
199.77	3566.9	
199.98	2364.7	
200.19	2544.3	
200.41	4113	
200.62	3887.7	
200.83	2597.5	
201.05	2782.5	
201.26	4043.4	
201.47	3968.3	
201.69	2359.3	
201.9	2319.7	
202.11	4120.5	
202.33	4573.8	
202.54	2323.1	
202.76	2640.5	
202.97	4096.6	
203.18	4207.2	
203.4	2611.8	
203.61	2669.2	
203.82	4124.6	
204.04	3854.3	
204.25	2537.4	
204.46	2493.7	
204.68	4118.5	
204.89	4194.9	
205.1	2480.1	
205.32	2248.7	
205.53	4203.1	
205.74	4369.7	
205.96	2024.1	
206.17	2553.1	
206.38	4229.7	
206.6	4283	
206.81	2728.6	
207.02	2417.3	
207.24	4216.1	
207.45	4450.2	
207.66	2461	
207.88	2295.8	
208.09	4171.7	
208.3	4071.4	
208.52	2297.8	
208.73	2537.4	
208.94	4078.9	
209.15	4394.3	
209.37	2458.9	
209.58	2480.8	
209.79	4254.3	
210.01	3994.9	
210.22	2185.9	
210.43	2163.3	
210.65	3966.9	
210.86	4193.6	
211.07	2445.3	
211.29	2324.4	
211.5	4176.5	
211.71	4057.7	
211.93	2357.2	
212.14	2322.4	
212.35	4067.3	
212.56	4048.8	
212.78	2555.2	
212.99	2172.2	
213.2	4491.2	
213.42	4050.2	
213.63	2368.8	
213.84	2430.3	
214.06	3809.2	
214.27	3744.4	
214.48	2441.2	
214.69	2617.3	
214.91	4438.6	
215.12	4410.6	
215.33	2487.6	
215.55	2655.5	
215.76	4642.7	
215.97	4169.7	
216.18	2507.4	
216.4	2488.3	
216.61	3866.6	
216.82	4283	
217.04	2377	
217.25	2411.8	
217.46	4380.6	
217.67	4242.7	
217.89	2176.3	
218.1	2204.3	
218.31	4051.6	
218.53	4195.6	
218.74	2475.3	
218.95	2347.7	
219.16	4074.1	
219.38	4524.6	
219.59	2349.7	
219.8	2655.5	
220.01	4668.7	
220.23	4125.3	
220.44	2784.6	
220.65	2270.5	
220.87	4158.1	
221.08	4438.6	
221.29	2273.9	
221.5	2669.2	
221.72	4896.7	
221.93	3827	
222.14	2551.1	
222.35	2892.4	
222.57	4090.5	
222.78	4391.5	
222.99	2522.4	
223.2	2547	
223.42	4166.9	
223.63	4152.6	
223.84	2054.1	
224.05	2057.5	
224.27	4573.1	
224.48	4470	
224.69	2882.9	
224.9	2562.7	
225.12	4147.1	
225.33	4061.1	
225.54	2191.3	
225.75	2383.2	
225.97	3891.8	
226.18	4044.7	
226.39	2405.7	
226.6	2364.7	
226.82	3991.5	
227.03	3817.4	
227.24	2524.5	
227.45	2254.8	
227.67	4405.2	
227.88	4354.7	
228.09	2705.4	
228.3	2717	
228.52	4214	
228.73	4027	
228.94	2434.4	
229.15	2211.1	
229.36	4078.2	
229.58	4147.1	
229.79	2510.8	
230	2698.5	
230.21	4597	
230.43	4074.1	
230.64	2528.6	
230.85	2585.2	
231.06	4300.7	
231.28	4290.5	
231.49	2209.1	
231.7	2555.2	
231.91	4287.1	
232.12	4055.7	
232.34	2301.2	
232.55	2373.6	
232.76	4392.9	
232.97	4102.1	
233.18	2342.9	
233.4	2537.4	
233.61	4086.4	
233.82	3826.3	
234.03	2448.7	
234.25	2352.4	
234.46	4999.8	
234.67	4100.7	
234.88	2536.8	
235.09	2341.5	
235.31	4038.6	
235.52	3966.2	
235.73	2564.7	
235.94	2257.5	
236.15	3957.4	
236.37	4561.5	
236.58	2273.2	
236.79	2460.3	
237	4210.6	
237.21	3770.3	
237.43	2588.6	
237.64	2219.3	
237.85	5888.6	
238.06	3904.8	
238.27	2525.8	
238.48	2284.9	
238.7	4291.9	
238.91	3994.9	
239.12	2454.1	
239.33	2535.4	
239.54	3884.3	
239.76	3949.8	
239.97	2419.3	
240.18	2463.7	
240.39	4569	
240.6	4099.4	
240.82	2663.7	
241.03	2194.7	
241.24	4048.2	
241.45	4398.4	
241.66	2295.8	
241.87	2649.4	
242.09	4506.9	
242.3	4527.4	
242.51	2615.9	
242.72	2385.2	
242.93	4246.1	
243.14	3936.9	
243.36	2705.4	
243.57	2837.8	
243.78	4467.3	
243.99	4192.2	
244.2	2409.1	
244.41	2273.2	
244.63	3780.6	
244.84	4061.8	
245.05	2564.7	
245.26	2370.9	
245.47	4246.8	
245.68	4181.3	
245.9	2934.1	
246.11	2543.6	
246.32	3852.9	
246.53	4225.6	
246.74	3597.6	
246.95	2185.9	
247.16	3957.4	
247.38	4074.1	
247.59	2277.3	
247.8	2496.5	
248.01	3619.4	
248.22	4057	
248.43	2336	
248.64	2443.9	
248.86	3812	
249.07	3997	
249.28	2347	
249.49	2557.9	
249.7	4248.2	
249.91	4259.8	
250.12	2221.4	
250.34	2228.2	
250.55	4089.8	
250.76	4012	
250.97	2539.5	
251.18	2491	
251.39	4270	
251.6	4189.5	
251.81	2590.7	
252.03	2514.2	
252.24	3863.2	
252.45	4184	
252.66	2264.4	
252.87	2585.2	
253.08	4095.9	
253.29	4813.4	
253.5	2267.8	
253.72	2858.3	
253.93	4011.3	
254.14	4519.2	
254.35	2390.7	
254.56	2407.7	
254.77	4103.4	
254.98	3876.8	
255.19	2419.3	
255.41	2799.6	
255.62	4217.5	
255.83	4354	
256.04	2631.6	
256.25	2525.8	
256.46	4641.4	
256.67	3928	
256.88	2516.3	
257.09	2740.9	
257.31	3736.2	
257.52	3831.1	
257.73	3000.3	
257.94	2400.2	
258.15	4115.7	
258.36	4030.4	
258.57	2778.4	
258.78	1998.1	
258.99	4320.5	
259.2	3978.5	
259.41	2368.1	
259.63	2497.2	
259.84	4486.4	
260.05	4501.4	
260.26	2855.6	
260.47	2371.5	
260.68	4349.9	
260.89	3946.4	
261.1	2710.1	
261.31	2250.7	
261.52	4491.9	
261.73	4502.1	
261.95	2914.3	
262.16	2544.3	
262.37	4375.1	
262.58	4328	
262.79	2889	
263	2400.2	
263.21	4104.8	
263.42	3849.5	
263.63	2519.7	
263.84	2457.6	
264.05	4202.4	
264.26	4381.3	
264.47	2808.4	
264.69	2640.5	
264.9	4483	
265.11	3908.2	
265.32	2321	
265.53	2340.8	
265.74	4134.2	
265.95	3739.6	
266.16	2486.9	
266.37	2598.2	
266.58	4160.1	
266.79	3910.3	
267	2395.4	
267.21	2291	
267.42	3846.1	
267.63	4042.7	
267.84	2426.8	
268.06	2205.7	
268.27	4286.4	
268.48	4306.2	
268.69	2461	
268.9	2709.5	
269.11	4036.5	
269.32	3732.1	
269.53	2480.1	
269.74	2337.4	
269.95	4093.2	
270.16	3768.9	
270.37	2513.5	
270.58	2764.1	
270.79	4048.8	
271	4355.3	
271.21	2529.9	
271.42	2581.8	
271.63	4231.1	
271.84	3736.9	
272.05	2131.9	
272.26	2261	
272.47	4050.2	
272.68	4107.5	
272.89	2426.8	
273.11	2582.5	
273.32	3859.7	
273.53	4376.5	
273.74	2539.5	
273.95	2600.9	
274.16	4100	
274.37	4014	
274.58	2710.8	
274.79	2270.5	
275	4209.3	
275.21	4293.2	
275.42	3076.7	
275.63	2612.5	
275.84	4247.5	
276.05	4848.9	
276.26	2557.9	
276.47	2419.3	
276.68	4126.7	
276.89	4568.3	
277.1	2611.2	
277.31	2235	
277.52	4207.9	
277.73	4465.3	
277.94	2197.5	
278.15	2405.7	
278.36	4172.4	
278.57	3902.7	
278.78	2398.9	
278.99	2567.5	
279.2	3970.3	
279.41	3904.8	
279.62	2973	
279.83	2257.5	
280.04	4638	
280.25	3856.3	
280.46	2922.5	
280.67	2489.6	
280.88	3919.1	
281.09	4394.9	
281.3	2571.6	
281.51	3003.7	
281.72	3960.8	
281.93	4144.4	
282.14	2379.7	
282.35	2506.7	
282.56	4416.8	
282.77	4252.3	
282.98	2443.2	
283.19	2772.3	
283.4	4914.4	
283.61	4003.1	
283.82	2279.4	
284.03	2863.7	
284.24	4278.9	
284.45	4218.1	
284.66	2957.9	
284.87	2715.6	
285.08	4382	
285.29	4395.6	
285.5	2238.4	
285.71	2401.6	
285.92	4278.2	
286.12	4653	
286.33	2883.5	
286.54	2435	
286.75	4265.9	
286.96	4059.1	
287.17	2322.4	
287.38	2749.1	
287.59	4050.9	
287.8	4022.2	
288.01	2418	
288.22	2579.1	
288.43	4018.8	
288.64	3707.5	
288.85	2750.4	
289.06	2633.7	
289.27	4324.6	
289.48	4343.7	
289.69	2912.2	
289.9	2722.4	
290.11	4401.8	
290.32	3967.6	
290.53	2789.3	
290.74	2538.1	
290.94	4252.3	
291.15	4368.3	
291.36	2377	
291.57	2664.4	
291.78	4019.5	
291.99	3739.6	
292.2	2353.1	
292.41	2613.9	
292.62	4344.4	
292.83	4212	
293.04	3004.4	
293.25	2347	
293.46	4024.9	
293.67	4277.5	
293.88	2316.9	
294.09	2334.7	
294.29	3929.4	
294.5	4123.9	
294.71	2501.3	
294.92	2381.8	
295.13	3958.7	
295.34	4655	
295.55	2196.1	
295.76	2148.3	
295.97	4252.3	
296.18	4517.1	
296.39	2279.4	
296.6	2325.8	
296.81	3980.6	
297.01	4261.1	
297.22	2422.1	
297.43	2396.8	
297.64	4044.1	
297.85	3792.2	
298.06	2067.8	
298.27	2207.7	
298.48	4000.4	
298.69	3824.2	
298.9	2515.6	
299.11	2316.9	
299.31	3846.1	
299.52	3885.7	
299.73	2575.7	
299.94	2576.3	
300.15	4158.1	
300.36	3910.3	
300.57	2581.8	
300.78	2525.8	
300.99	3959.4	
301.2	4092.5	
301.4	2394.1	
301.61	2467.1	
301.82	4121.9	
302.03	4234.5	
302.24	2695.8	
302.45	2304	
302.66	4224.3	
302.87	4206.5	
303.08	2372.9	
303.29	2953.9	
303.49	4031.8	
303.7	3888.4	
303.91	2201.6	
304.12	2789.3	
304.33	3666.5	
304.54	4177.9	
304.75	2381.8	
304.96	2327.2	
305.16	4272.1	
305.37	4526.7	
305.58	2261	
305.79	2185.9	
306	4309.6	
306.21	3745.7	
306.42	2419.3	
306.63	3184.6	
306.83	3923.2	
307.04	4159.4	
307.25	2544.9	
307.46	2483.5	
307.67	3813.3	
307.88	4184	
308.09	2381.8	
308.29	2364	
308.5	4106.2	
308.71	4236.6	
308.92	2485.6	
309.13	2353.1	
309.34	4157.4	
309.55	3981.3	
309.75	2855.6	
309.96	2595.5	
310.17	4268	
310.38	3882.9	
310.59	2624.8	
310.8	2594.1	
311.01	3964.9	
311.21	4054.3	
311.42	2327.9	
311.63	2324.4	
311.84	3971	
312.05	4040	
312.26	2607.1	
312.46	2736.8	
312.67	3949.8	
312.88	3749.1	
313.09	2273.9	
313.3	2337.4	
313.51	4457.1	
313.71	4607.9	
313.92	2321	
314.13	2395.4	
314.34	4220.9	
314.55	4087.7	
314.76	2739.5	
314.96	2516.3	
315.17	4232.5	
315.38	3966.9	
315.59	2335.4	
315.8	2233.7	
316.01	4349.2	
316.21	4498.7	
316.42	2314.9	
316.63	2442.5	
316.84	3943.7	
317.05	4255	
317.26	2642.6	
317.46	2398.2	
317.67	4078.2	
317.88	4202.4	
318.09	2740.9	
318.3	2186.5	
318.5	4028.4	
318.71	4133.5	
318.92	3239.2	
319.13	2616.6	
319.34	4219.5	
319.54	4310.3	
319.75	2218	
319.96	2198.8	
320.17	4087.7	
320.38	4295.3	
320.58	2164	
320.79	2457.6	
321	4299.4	
321.21	4442.7	
321.42	2557.2	
321.62	2213.2	
321.83	3958	
322.04	4107.5	
322.25	2484.9	
322.46	2318.3	
322.66	4126.7	
322.87	4269.3	
323.08	2642.6	
323.29	2233.7	
323.5	4607.9	
323.7	3814	
323.91	2863.7	
324.12	2594.1	
324.33	4190.1	
324.53	4272.7	
324.74	2545.6	
324.95	2637.8	
325.16	3801	
325.37	3996.3	
325.57	2334.7	
325.78	2351.1	
325.99	4209.3	
326.2	3803.1	
326.4	2950.4	
326.61	2210.4	
326.82	4018.1	
327.03	4119.8	
327.24	2970.2	
327.44	2826.9	
327.65	4209.9	
327.86	3667.2	
328.07	2622.8	
328.27	2265.7	
328.48	4463.2	
328.69	3781.9	
328.9	2966.8	
329.1	2419.3	
329.31	4100	
329.52	4390.8	
329.73	2385.9	
329.93	2418.7	
330.14	4163.5	
330.35	4170.3	
330.56	3353.2	
330.76	2659.6	
330.97	3998.3	
331.18	4017.4	
331.39	2512.2	
331.59	2157.9	
331.8	4327.4	
332.01	4379.9	
332.22	2390.7	
332.42	2540.2	
332.63	4074.8	
332.84	3778.5	
333.05	2517	
333.25	2311.5	
333.46	3852.9	
333.67	4005.8	
333.88	2446	
334.08	2548.4	
334.29	4923.3	
334.5	4212	
334.7	2332.6	
334.91	2977.1	
335.12	3774.4	
335.33	4187.4	
335.53	2501.3	
335.74	3259.7	
335.95	4045.4	
336.16	3667.2	
336.36	2491	
336.57	2764.8	
336.78	3548.4	
336.98	4270.7	
337.19	2925.2	
337.4	2419.3	
337.61	4716.5	
337.81	3747.1	
338.02	2402.3	
338.23	2720.4	
338.43	4439.3	
338.64	3932.8	
338.85	2344.9	
339.05	2871.9	
339.26	4562.2	
339.47	3756	
339.68	2319	
339.88	3022.8	
340.09	4212	
340.3	4287.1	
340.5	2575	
340.71	2143.5	
340.92	3887	
341.13	4351.3	
341.33	2233.7	
341.54	2595.5	
341.75	4162.8	
341.95	3867.2	
342.16	2504.7	
342.37	2653.5	
342.57	3834.5	
342.78	3988.1	
342.99	2655.5	
343.19	2199.5	
343.4	4240	
343.61	4202.4	
343.81	2470.5	
344.02	2228.2	
344.23	4255	
344.43	4369.7	
344.64	2752.5	
344.85	2640.5	
345.06	4242.7	
345.26	4328	
345.47	2610.5	
345.68	2875.3	
345.88	3750.5	
346.09	4306.9	
346.3	2615.9	
346.5	2129.9	
346.71	3990.8	
346.92	3938.9	
347.12	2300.6	
347.33	2594.8	
347.54	4263.2	
347.74	4456.4	
347.95	2549.7	
348.16	2124.4	
348.36	3936.2	
348.57	3848.1	
348.78	2648	
348.98	2656.2	
349.19	3982.6	
349.39	3702.7	
349.6	2258.2	
349.81	2364.7	
350.01	4263.9	
350.22	3804.4	
350.43	2598.9	
350.63	2860.3	
350.84	3977.2	
351.05	3850.2	
351.25	2284.2	
351.46	2222.7	
351.67	4123.2	
351.87	3784	
352.08	2433.7	
352.29	2628.9	
352.49	4191.5	
352.7	4229.7	
352.9	2269.1	
353.11	2668.5	
353.32	4421.6	
353.52	3973.7	
353.73	2282.1	
353.94	2676.7	
354.14	4164.9	
354.35	3927.3	
354.55	2364.7	
354.76	2485.6	
354.97	4154	
355.17	3937.6	
355.38	2333.3	
355.59	2833.7	
355.79	3800.3	
356	4093.9	
356.2	2504.7	
356.41	2319.7	
356.62	3813.3	
356.82	3961.5	
357.03	2658.3	
357.24	2420	
357.44	3796.3	
357.65	3928.7	
357.85	2978.4	
358.06	2547	
358.27	3710.2	
358.47	3747.1	
358.68	2239.8	
358.88	2592	
359.09	4093.9	
359.3	4218.8	
359.5	2866.5	
359.71	2639.1	
359.91	4366.3	
360.12	4022.2	
360.33	2684.9	
360.53	2849.4	
360.74	3883.6	
360.94	3852.2	
361.15	2719.7	
361.36	2370.2	
361.56	4246.1	
361.77	4029.7	
361.97	2938.8	
362.18	2437.8	
362.38	4245.4	
362.59	3781.2	
362.8	2363.4	
363	2342.2	
363.21	3684.3	
363.41	3951.2	
363.62	2595.5	
363.83	2904	
364.03	4212.7	
364.24	4347.2	
364.44	3125.9	
364.65	2979.1	
364.85	3985.3	
365.06	3850.9	
365.27	2368.1	
365.47	2509.4	
365.68	4343.1	
365.88	3963.5	
366.09	2605	
366.29	2381.8	
366.5	3931.4	
366.71	4214.7	
366.91	2980.5	
367.12	2703.3	
367.32	4611.3	
367.53	4087.7	
367.73	2732.7	
367.94	3123.8	
368.14	4285	
368.35	4237.2	
368.56	2654.2	
368.76	2355.8	
368.97	4055.7	
369.17	4837.3	
369.38	2424.8	
369.58	2566.1	
369.79	3657	
369.99	4417.5	
370.2	3059.7	
370.4	2555.2	
370.61	4093.2	
370.82	4721.3	
371.02	2552.5	
371.23	2258.2	
371.43	3814	
371.64	4459.1	
371.84	2621.4	
372.05	2995.5	
372.25	4810	
372.46	3977.8	
372.66	2549	
372.87	2536.1	
373.07	4026.3	
373.28	4965	
373.48	2962	
373.69	2793.4	
373.9	4042.7	
374.1	4015.4	
374.31	3015.3	
374.51	2719.7	
374.72	4260.5	
374.92	3829	
375.13	2967.5	
375.33	2696.5	
375.54	4123.9	
375.74	3919.1	
375.95	2745.6	
376.15	3243.3	
376.36	4260.5	
376.56	4115.1	
376.77	2682.8	
376.97	2919	
377.18	4739.7	
377.38	4240.7	
377.59	2938.8	
377.79	2600.2	
378	4116.4	
378.2	4133.5	
378.41	2542.9	
378.61	2504.7	
378.82	4393.6	
379.02	3985.3	
379.23	2608.4	
379.43	3031.7	
379.64	4468	
379.84	4160.8	
380.05	2585.2	
380.25	2487.6	
380.46	4206.5	
380.66	4015.4	
380.87	3091.1	
381.07	3263.1	
381.28	4529.4	
381.48	4214	
381.69	2529.2	
381.89	2592.7	
382.1	3805.1	
382.3	4098	
382.51	3021.4	
382.71	3411.9	
382.91	4035.2	
383.12	4404.5	
383.32	2686.3	
383.53	2759.3	
383.73	4133.5	
383.94	4098.7	
384.14	2745.6	
384.35	2359.9	
384.55	3814	
384.76	4132.1	
384.96	2749.1	
385.17	2853.5	
385.37	4223.6	
385.58	3774.4	
385.78	2816.6	
385.98	2346.3	
386.19	3982.6	
386.39	4270.7	
386.6	2610.5	
386.8	2673.3	
387.01	4179.2	
387.21	4274.1	
387.42	2886.3	
387.62	3083.6	
387.83	4012.7	
388.03	3876.1	
388.23	2771.6	
388.44	3038.5	
388.64	3793.5	
388.85	3735.5	
389.05	2861.7	
389.26	3046.7	
389.46	4911	
389.67	4454.3	
389.87	2874.7	
390.07	2829.6	
390.28	3974.4	
390.48	3784	
390.69	2504	
390.89	2704.7	
391.1	4051.6	
391.3	4315.8	
391.5	3211.9	
391.71	3438.5	
391.91	4321.2	
392.12	4470	
392.32	3242.6	
392.53	2930	
392.73	3978.5	
392.93	4039.3	
393.14	2713.6	
393.34	3041.9	
393.55	4299.4	
393.75	4009.2	
393.95	2729.3	
394.16	2703.3	
394.36	4060.4	
394.57	4354	
394.77	2519	
394.98	2631.6	
395.18	3973.7	
395.38	3959.4	
395.59	3037.1	
395.79	2609.8	
396	4115.1	
396.2	4240	
396.4	3012.6	
396.61	2965.5	
396.81	4196.3	
397.02	3962.8	
397.22	3086.3	
397.42	3106.1	
397.63	4359.4	
397.83	3943	
398.04	2587.3	
398.24	2812.5	
398.44	4184	
398.65	3649.5	
398.85	2530.6	
399.05	2525.1	
399.26	4033.1	
399.46	4666.6	
399.67	2758.6	
399.87	2635.1	
400.07	4178.5	
400.28	4216.1	
400.48	2678.7	
400.69	3059	
400.89	4225.6	
401.09	4564.9	
401.3	2619.4	
401.5	3001.6	
401.7	4552	
401.91	4719.2	
402.11	2828.9	
402.32	2815.3	
402.52	4458.4	
402.72	4289.8	
402.93	2985.3	
403.13	2450.1	
403.33	4762.9	
403.54	4107.5	
403.74	2872.6	
403.94	3293.8	
404.15	4124.6	
404.35	4713.7	
404.56	2764.8	
404.76	3498.6	
404.96	4473.4	
405.17	4216.8	
405.37	3332	
405.57	2962	
405.78	4362.9	
405.98	3945.8	
406.18	2723.8	
406.39	3080.8	
406.59	4244.8	
406.79	4063.2	
407	2605.7	
407.2	2713.6	
407.4	4648.2	
407.61	4468	
407.81	2675.3	
408.01	3583.9	
408.22	3678.8	
408.42	4628.4	
408.62	3157.3	
408.83	2940.9	
409.03	4116.4	
409.23	4128.7	
409.44	2880.1	
409.64	3041.2	
409.84	4629.8	
410.05	4545.8	
410.25	3078.8	
410.45	2861	
410.66	4330.8	
410.86	5495.4	
411.06	3052.8	
411.27	2943.6	
411.47	5263.3	
411.67	4373.1	
411.88	3085.6	
412.08	3121.1	
412.28	4606.6	
412.49	4792.2	
412.69	2979.1	
412.89	3007.8	
413.09	4751.3	
413.3	4655	
413.5	3092.4	
413.7	2904	
413.91	4197.7	
414.11	4780	
414.31	2938.2	
414.52	3082.9	
414.72	4616.8	
414.92	4553.3	
415.12	2931.3	
415.33	3224.2	
415.53	4631.1	
415.73	4796.3	
415.94	3407.8	
416.14	3013.9	
416.34	4388.8	
416.55	4129.4	
416.75	3590.8	
416.95	3314.3	
417.15	4846.2	
417.36	5070.8	
417.56	3749.8	
417.76	3303.4	
417.97	4963.6	
418.17	4721.3	
418.37	3142.3	
418.57	3082.9	
418.78	4799.8	
418.98	4609.3	
419.18	3512.3	
419.38	3470.6	
419.59	4459.8	
419.79	4381.3	
419.99	3050.1	
420.2	3166.8	
420.4	4769.7	
420.6	4777.2	
420.8	3012.6	
421.01	2944.3	
421.21	4743.1	
421.41	4665.3	
421.61	3134.1	
421.82	3050.8	
422.02	4615.4	
422.22	4962.2	
422.42	3384.6	
422.63	3326.6	
422.83	4509.6	
423.03	5099.4	
423.23	3304.1	
423.44	2848	
423.64	4481.6	
423.84	4323.3	
424.04	3024.8	
424.25	2871.9	
424.45	4964.3	
424.65	4876.9	
424.85	2856.2	
425.06	3082.2	
425.26	5170.4	
425.46	4488.5	
425.66	3261	
425.87	3181.2	
426.07	4735.6	
426.27	4678.9	
426.47	3212.6	
426.67	2953.2	
426.88	5111.7	
427.08	4799.1	
427.28	3328.6	
427.48	2916.3	
427.69	4360.1	
427.89	4500.1	
428.09	3209.2	
428.29	2839.2	
428.5	4728.1	
428.7	4688.5	
428.9	2895.8	
429.1	3053.5	
429.3	4700.8	
429.51	4732.2	
429.71	3036.5	
429.91	3407.1	
430.11	4911	
430.31	4838.7	
430.52	3140.2	
430.72	3192.8	
430.92	4985.4	
431.12	4731.5	
431.32	2961.4	
431.53	3201.7	
431.73	4318.5	
431.93	4995.7	
432.13	2990.7	
432.33	2912.2	
432.54	4557.4	
432.74	4546.5	
432.94	2853.5	
433.14	3401.7	
433.34	4951.3	
433.55	4670.7	
433.75	3327.9	
433.95	4012.7	
434.15	4772.4	
434.35	4487.1	
434.56	3037.1	
434.76	2704.7	
434.96	4625	
435.16	4676.9	
435.36	2924.5	
435.56	3414	
435.77	4552.6	
435.97	4607.9	
436.17	3699.3	
436.37	3287.7	
436.57	4412	
436.78	4401.8	
436.98	3839.3	
437.18	3665.2	
437.38	4536.3	
437.58	4473.4	
437.78	3681.6	
437.99	3095.8	
438.19	4798.4	
438.39	5432.6	
438.59	3137.5	
438.79	2816	
438.99	5132.2	
439.2	4504.8	
439.4	2881.5	
439.6	2857.6	
439.8	4418.2	
440	5130.8	
440.2	3323.9	
440.4	3336.8	
440.61	4914.4	
440.81	5029.1	
441.01	2969.6	
441.21	3323.2	
441.41	5029.8	
441.61	4749.2	
441.81	3503.4	
442.02	3902.7	
442.22	5272.2	
442.42	4914.4	
442.62	3009.1	
442.82	3036.5	
443.02	5150.6	
443.22	4700.8	
443.43	3221.5	
443.63	2934.1	
443.83	4635.9	
444.03	4527.4	
444.23	3472	
444.43	3328.6	
444.63	4852.3	
444.83	5214.1	
445.04	3115.6	
445.24	3605.1	
445.44	4943.8	
445.64	4899.4	
445.84	3383.2	
446.04	3397.6	
446.24	4644.8	
446.44	5035.3	
446.65	3063.1	
446.85	3212.6	
447.05	4780.6	
447.25	5014.8	
447.45	3360.7	
447.65	2959.3	
447.85	4836.6	
448.05	4566.3	
448.25	3381.9	
448.46	3284.3	
448.66	4721.3	
448.86	4574.5	
449.06	3030.3	
449.26	3442.6	
449.46	4886.5	
449.66	4597	
449.86	3276.8	
450.06	3231	
450.26	4540.3	
450.47	4881	
450.67	3403.7	
450.87	3420.1	
451.07	5139	
451.27	4734.9	
451.47	3054.9	
451.67	3369.6	
451.87	4689.2	
452.07	5312.4	
452.27	3173.7	
452.47	3192.8	
452.67	4859.1	
452.88	4829.1	
453.08	2923.1	
453.28	3703.4	
453.48	5429.2	
453.68	4702.1	
453.88	3113.6	
454.08	3202.3	
454.28	5044.8	
454.48	4796.3	
454.68	3427.6	
454.88	3707.5	
455.08	5176.6	
455.28	4819.6	
455.48	3081.5	
455.68	3372.3	
455.89	5236.7	
456.09	5073.5	
456.29	3260.4	
456.49	3327.9	
456.69	5193	
456.89	4873.5	
457.09	3481.5	
457.29	3636.5	
457.49	5007.3	
457.69	5009.3	
457.89	3465.2	
458.09	3072	
458.29	4823	
458.49	5300.8	
458.69	3584.6	
458.89	3295.2	
459.09	5286.5	
459.29	5342.5	
459.49	3348.4	
459.69	3637.9	
459.9	5078.3	
460.1	4868.7	
460.3	3315.7	
460.5	3196.9	
460.7	5165	
460.9	4699.4	
461.1	3104	
461.3	3531.4	
461.5	5454.4	
461.7	5130.8	
461.9	3241.3	
462.1	3495.9	
462.3	5068	
462.5	5182.7	
462.7	3295.2	
462.9	3321.1	
463.1	5745.2	
463.3	5523.4	
463.5	3445.4	
463.7	3798.3	
463.9	5103.5	
464.1	5167.7	
464.3	3434.4	
464.5	3581.9	
464.7	5299.5	
464.9	5033.9	
465.1	4100.7	
465.3	3773	
465.5	5477.6	
465.7	5519.3	
465.9	3841.3	
466.1	3672	
466.3	5264.6	
466.5	5331.5	
466.7	4143	
466.9	3658.4	
467.1	5487.2	
467.3	5747.3	
467.5	4113.7	
467.7	3657	
467.9	5941.2	
468.1	6191.7	
468.3	3975.8	
468.5	4167.6	
468.7	5225.1	
468.9	5180.7	
469.1	3799	
469.3	4087.7	
469.5	6165.1	
469.7	5079	
469.9	4001.7	
470.1	3591.5	
470.3	5521.3	
470.5	5382.7	
470.7	4255	
470.9	3700	
471.1	5094	
471.3	5466.7	
471.5	3622.2	
471.69	4426.3	
471.89	5354.1	
472.09	4965	
472.29	3946.4	
472.49	4098.7	
472.69	5001.8	
472.89	5345.9	
473.09	3568.2	
473.29	3702.7	
473.49	5204.6	
473.69	4947.9	
473.89	3979.2	
474.09	3704.8	
474.29	5733.6	
474.49	5574.6	
474.69	3997	
474.89	3720.5	
475.09	5212.8	
475.29	5203.2	
475.49	3554.6	
475.69	3586	
475.88	5906.3	
476.08	5382.7	
476.28	3450.1	
476.48	3697.3	
476.68	5718.6	
476.88	5412.1	
477.08	3731.4	
477.28	3738.9	
477.48	5404.6	
477.68	5459.2	
477.88	3568.9	
478.08	3709.6	
478.28	5753.4	
478.48	5319.9	
478.67	3762.8	
478.87	3425.6	
479.07	5517.2	
479.27	5459.2	
479.47	3832.4	
479.67	3874.1	
479.87	5570.5	
480.07	5712.5	
480.27	3560.7	
480.47	4165.6	
480.67	5361.6	
480.87	5704.3	
481.06	3637.2	
481.26	4027.7	
481.46	5390.9	
481.66	5257.1	
481.86	3865.2	
482.06	4162.8	
482.26	5296	
482.46	5619.6	
482.66	3822.2	
482.86	3563.5	
483.05	5612.1	
483.25	5095.3	
483.45	4929.5	
483.65	3832.4	
483.85	5071.5	
484.05	5239.4	
484.25	3983.3	
484.45	4198.3	
484.65	5445.5	
484.84	5749.3	
485.04	3795.6	
485.24	3825.6	
485.44	6021.7	
485.64	5182	
485.84	3530	
486.04	4055.7	
486.24	5317.9	
486.44	5446.2	
486.63	3507.5	
486.83	3985.3	
487.03	5248.9	
487.23	5315.8	
487.43	3574.4	
487.63	4493.9	
487.83	5343.8	
488.02	5231.9	
488.22	3864.5	
488.42	4221.5	
488.62	5785.5	
488.82	5199.8	
489.02	3822.9	
489.22	3786.7	
489.41	5470.8	
489.61	5628.5	
489.81	3622.2	
490.01	3648.8	
490.21	5785.5	
490.41	6098.9	
490.61	3678.8	
490.8	3702	
491	5462.6	
491.2	5212.1	
491.4	4044.1	
491.6	3710.2	
491.8	5561.6	
491.99	5433.9	
492.19	3588	
492.39	3674.7	
492.59	5702.2	
492.79	5795.1	
492.99	4083.6	
493.18	3661.8	
493.38	5938.4	
493.58	6099.5	
493.78	4039.3	
493.98	3855	
494.18	5509	
494.37	5158.8	
494.57	4117.1	
494.77	3988.8	
494.97	5779.4	
495.17	5819	
495.37	3886.4	
495.56	4067.9	
495.76	5758.9	
495.96	5782.8	
496.16	4498	
496.36	3971	
496.55	5914.5	
496.75	5547.9	
496.95	4128	
497.15	4105.5	
497.35	5900.9	
497.54	5819.6	
497.74	4133.5	
497.94	4797	
498.14	6238.1	
498.34	5991	
498.53	3865.2	
498.73	4195.6	
498.93	5554.1	
499.13	5879	
499.33	4173.1	
499.52	4351.3	
499.72	5984.8	
499.92	5865.4	
500.12	4005.1	
500.32	4188.1	
500.51	5943.2	
500.71	5788.9	
500.91	4521.9	
501.11	4328.7	
501.31	5943.9	
501.5	6126.2	
501.7	4685.1	
501.9	4182.6	
502.1	5849	
502.29	6081.1	
502.49	4434.5	
502.69	4530.8	
502.89	6011.5	
503.09	5939.1	
503.28	3930.7	
503.48	4042	
503.68	5823.1	
503.88	5590.3	
504.07	4450.2	
504.27	4229.1	
504.47	5808	
504.67	5888.6	
504.86	4421.6	
505.06	4285	
505.26	5817.6	
505.46	6328.9	
505.65	4146.5	
505.85	4304.8	
506.05	5730.2	
506.25	5986.2	
506.44	3961.5	
506.64	4338.3	
506.84	5653.8	
507.04	5909.8	
507.23	4021.5	
507.43	4250.2	
507.63	6425.8	
507.83	5543.9	
508.02	4231.1	
508.22	4076.8	
508.42	6587	
508.62	5552	
508.81	4211.3	
509.01	4467.3	
509.21	5495.4	
509.4	5792.3	
509.6	4407.2	
509.8	3992.2	
510	5722.7	
510.19	6089.3	
510.39	3941	
510.59	4115.7	
510.79	5640.8	
510.98	6198.5	
511.18	4176.5	
511.38	4052.2	
511.57	6137.1	
511.77	5712.5	
511.97	4383.3	
512.17	3991.5	
512.36	6102.9	
512.56	5909.8	
512.76	4051.6	
512.95	3994.2	
513.15	6238.8	
513.35	5376.6	
513.55	4433.2	
513.74	4041.3	
513.94	5997.8	
514.14	5731.6	
514.33	4511	
514.53	4377.2	
514.73	5773.2	
514.92	5766.4	
515.12	4071.4	
515.32	3981.9	
515.51	5924.8	
515.71	5838.8	
515.91	4831.2	
516.11	3999.7	
516.3	6612.2	
516.5	5656.5	
516.7	4305.5	
516.89	4475.5	
517.09	5802.6	
517.29	5792.3	
517.48	4469.4	
517.68	4171	
517.88	5301.5	
518.07	5908.4	
518.27	4482.3	
518.47	4033.1	
518.66	6163	
518.86	5593	
519.06	4027.7	
519.25	4142.4	
519.45	5724.8	
519.65	6328.2	
519.84	4515.1	
520.04	4741	
520.24	6570.6	
520.43	6001.9	
520.63	4325.3	
520.83	4237.9	
521.02	5791.7	
521.22	5943.2	
521.42	4435.9	
521.61	4639.3	
521.81	5754.1	
522.01	6008.7	
522.2	4433.9	
522.4	4285	
522.6	6127.5	
522.79	5497.4	
522.99	4347.8	
523.18	4022.2	
523.38	6036.7	
523.58	5952.8	
523.77	4788.8	
523.97	4061.1	
524.17	6761.7	
524.36	6493.4	
524.56	4717.2	
524.76	4532.8	
524.95	5977.3	
525.15	5844.9	
525.34	4427	
525.54	4370.4	
525.74	6206.7	
525.93	5719.3	
526.13	4891.9	
526.33	4429.1	
526.52	6434	
526.72	6055.2	
526.91	4928.1	
527.11	4585.4	
527.31	6266.8	
527.5	6491.4	
527.7	4659.8	
527.89	4227	
528.09	5950.7	
528.29	6128.9	
528.48	4833.2	
528.68	4617.5	
528.87	6404	
529.07	6364.4	
529.27	4649.6	
529.46	4397	
529.66	6177.4	
529.85	6305.7	
530.05	4426.3	
530.25	4617.5	
530.44	6799.9	
530.64	6128.2	
530.83	4544.4	
531.03	4634.6	
531.23	6620.4	
531.42	6307.7	
531.62	5018.9	
531.81	4655.7	
532.01	6336.4	
532.21	6529.6	
532.4	4613.4	
532.6	4642.7	
532.79	6876.4	
532.99	6521.4	
533.18	4817.5	
533.38	5201.8	
533.58	6277	
533.77	6483.2	
533.97	4770.4	
534.16	5072.8	
534.36	6744.6	
534.55	6302.3	
534.75	5174.5	
534.95	4743.8	
535.14	6728.9	
535.34	6219	
535.53	4605.9	
535.73	5539.8	
535.92	6994.5	
536.12	6253.1	
536.31	4676.2	
536.51	5247.6	
536.71	6664.8	
536.9	6275.7	
537.1	4757.4	
537.29	4891.2	
537.49	6771.9	
537.68	6285.2	
537.88	5028.4	
538.07	4534.2	
538.27	6511.9	
538.46	6951.5	
538.66	4551.3	
538.86	4851.6	
539.05	6542.6	
539.25	6703.7	
539.44	5046.2	
539.64	4782.7	
539.83	6457.2	
540.03	6840.2	
540.22	4662.5	
540.42	4710.3	
540.61	6558.3	
540.81	6534.4	
541	5009.3	
541.2	5238.7	
541.39	6320.7	
541.59	6399.9	
541.78	5040.7	
541.98	4742.4	
542.18	6146.6	
542.37	6085.9	
542.57	4936.3	
542.76	5037.3	
542.96	6148.7	
543.15	6346	
543.35	4877.6	
543.54	4525.3	
543.74	5931.6	
543.93	6359.6	
544.13	4803.2	
544.32	5367.7	
544.52	6651.1	
544.71	6270.9	
544.91	4424.3	
545.1	5020.9	
545.3	6277	
545.49	6365.1	
545.69	4463.2	
545.88	4783.4	
546.08	7034.8	
546.27	6610.8	
546.47	4930.8	
546.66	4549.9	
546.86	6631.3	
547.05	6761.7	
547.24	4720.6	
547.44	4650.3	
547.63	6105.7	
547.83	6605.4	
548.02	4834.6	
548.22	4905.6	
548.41	6013.5	
548.61	6613.6	
548.8	4650.3	
549	4610.7	
549.19	6449.7	
549.39	6562.4	
549.58	4474.1	
549.78	4760.8	
549.97	6511.2	
550.17	6199.9	
550.36	5123.3	
550.55	5582.8	
550.75	6249.7	
550.94	6724.8	
551.14	4580.6	
551.33	4805.2	
551.53	5921.4	
551.72	6425.2	
551.92	4775.9	
552.11	4724.7	
552.31	6533.7	
552.5	6369.9	
552.69	5457.8	
552.89	4440.7	
553.08	6509.8	
553.28	6300.9	
553.47	4721.3	
553.67	5150.6	
553.86	6705	
554.06	5847	
554.25	4397	
554.44	4627	
554.64	7059.3	
554.83	6793.1	
555.03	4502.1	
555.22	4745.8	
555.42	6624.5	
555.61	6425.2	
555.8	4622.9	
556	4745.1	
556.19	6169.8	
556.39	6465.4	
556.58	4673.5	
556.78	4699.4	
556.97	6477	
557.16	6286.6	
557.36	5209.3	
557.55	4506.2	
557.75	5969.1	
557.94	6862.7	
558.13	4561.5	
558.33	4465.9	
558.52	6682.5	
558.72	5793	
558.91	4577.9	
559.1	4562.9	
559.3	5878.4	
559.49	5869.5	
559.69	4491.9	
559.88	4693.3	
560.07	6337.8	
560.27	6632.7	
560.46	4879.6	
560.66	4967	
560.85	6299.6	
561.04	5873.6	
561.24	4501.4	
561.43	4493.9	
561.63	5963.7	
561.82	6166.4	
562.01	5147.2	
562.21	4691.9	
562.4	6298.9	
562.59	6666.1	
562.79	4677.6	
562.98	4490.5	
563.18	6307.7	
563.37	6871.6	
563.56	4813.4	
563.76	4525.3	
563.95	6018.3	
564.14	6053.1	
564.34	4790.9	
564.53	4557.4	
564.73	6479.8	
564.92	6308.4	
565.11	4692.6	
565.31	4476.9	
565.5	6601.3	
565.69	5966.4	
565.89	4676.2	
566.08	4729.4	
566.27	6372.6	
566.47	6705	
566.66	5042.1	
566.85	4461.8	
567.05	6308.4	
567.24	6073.6	
567.44	4610.7	
567.63	5085.1	
567.82	6524.8	
568.02	6227.9	
568.21	4536.3	
568.4	4655	
568.6	6317.3	
568.79	6219.7	
568.98	4584.7	
569.18	4451.6	
569.37	6197.2	
569.56	6965.1	
569.76	4686.4	
569.95	5177.9	
570.14	6475	
570.34	6148.7	
570.53	4570.4	
570.72	4478.2	
570.91	6683.2	
571.11	6270.9	
571.3	4801.1	
571.49	5160.9	
571.69	6360.3	
571.88	6042.2	
572.07	4920.6	
572.27	4984.8	
572.46	6043.6	
572.65	6508.4	
572.85	4640.7	
573.04	4714.4	
573.23	6666.1	
573.43	6318	
573.62	4640.7	
573.81	4810	
574	6434	
574.2	6181.5	
574.39	4673.5	
574.58	4713.1	
574.78	6713.9	
574.97	6352.8	
575.16	4949.3	
575.36	4937	
575.55	6660	
575.74	6593.8	
575.93	4444.1	
576.13	4967.7	
576.32	6285.9	
576.51	6564.4	
576.71	4809.3	
576.9	5315.8	
577.09	6776.7	
577.28	6384.9	
577.48	4954.7	
577.67	4595	
577.86	6404	
578.05	6452.5	
578.25	4789.5	
578.44	4816.8	
578.63	6408.1	
578.83	6948.8	
579.02	4612.7	
579.21	5322.7	
579.4	6486.6	
579.6	6386.9	
579.79	4825.7	
579.98	5917.3	
580.17	6580.1	
580.37	6748.1	
580.56	4616.1	
580.75	4997	
580.94	6657.9	
581.14	6896.2	
581.33	5232.6	
581.52	4780	
581.71	6553.5	
581.91	6924.2	
582.1	4718.5	
582.29	4873.5	
582.48	6464.8	
582.68	6429.9	
582.87	5102.9	
583.06	5038.7	
583.25	6733	
583.45	6275	
583.64	5164.3	
583.83	5455.8	
584.02	6571.9	
584.21	6680.5	
584.41	5267.4	
584.6	4988.2	
584.79	6592.4	
584.98	6641.6	
585.18	4743.8	
585.37	4737.6	
585.56	6470.2	
585.75	6622.4	
585.94	4842.1	
586.14	5074.9	
586.33	6901	
586.52	6447	
586.71	4972.5	
586.91	4915.1	
587.1	6191.7	
587.29	6681.2	
587.48	4788.2	
587.67	4791.6	
587.87	6685.3	
588.06	6466.8	
588.25	5356.1	
588.44	5078.3	
588.63	6362.4	
588.83	6584.2	
589.02	4861.9	
589.21	4693.3	
589.4	6375.3	
589.59	6220.4	
589.78	4401.8	
589.98	4464.6	
590.17	6051.1	
590.36	6100.2	
590.55	4202.4	
590.74	4562.9	
590.94	6672.3	
591.13	6155.5	
591.32	4521.9	
591.51	4313	
591.7	6245.6	
591.89	6090.7	
592.09	4217.5	
592.28	4476.9	
592.47	5623.7	
592.66	6652.5	
592.85	4294.6	
593.05	4392.9	
593.24	6080.4	
593.43	6539.8	
593.62	4519.9	
593.81	4668.7	
594	6202.6	
594.19	6154.8	
594.39	4363.5	
594.58	4407.9	
594.77	6285.2	
594.96	6497.5	
595.15	4469.4	
595.34	4623.6	
595.54	6044.9	
595.73	5838.1	
595.92	4107.5	
596.11	4547.2	
596.3	6473.6	
596.49	5874.9	
596.68	4545.8	
596.88	4672.1	
597.07	6324.8	
597.26	5778.7	
597.45	4352.6	
597.64	4804.5	
597.83	5944.6	
598.02	6256.5	
598.22	4302.8	
598.41	4655	
598.6	6082.5	
598.79	5898.8	
598.98	4412	
599.17	4756.7	
599.36	6229.9	
599.55	6636.8	
599.74	5273.5	
599.94	5225.1	
600.13	6417.7	
600.32	5825.1	
600.51	4222.2	
600.7	4281.6	
600.89	6708.5	
601.08	6733	
601.27	4286.4	
601.47	4714.4	
601.66	6383.5	
601.85	6598.6	
602.04	4632.5	
602.23	4537.6	
602.42	5886.5	
602.61	6251.1	
602.8	4506.2	
602.99	4421.6	
603.18	6077.7	
603.37	6227.9	
603.57	4669.4	
603.76	4983.4	
603.95	6483.2	
604.14	6278.4	
604.33	4475.5	
604.52	4630.5	
604.71	6257.9	
604.9	5966.4	
605.09	4933.6	
605.28	4805.2	
605.47	6587.6	
605.66	6108.4	
605.86	4728.8	
606.05	4491.9	
606.24	6540.5	
606.43	5786.2	
606.62	4653.7	
606.81	4977.9	
607	6486.6	
607.19	6085.9	
607.38	4323.3	
607.57	4467.3	
607.76	5910.4	
607.95	5612.1	
608.14	4650.9	
608.33	4911	
608.52	5924.1	
608.72	6425.8	
608.91	4267.3	
609.1	4306.2	
609.29	6075.6	
609.48	5737.7	
609.67	4692.6	
609.86	4315.8	
610.05	5829.2	
610.24	5866.7	
610.43	4289.8	
610.62	4143	
610.81	6563.1	
611	6442.2	
611.19	4380.6	
611.38	4719.2	
611.57	6297.5	
611.76	6630.6	
611.95	4259.1	
612.14	4207.2	
612.33	6021.7	
612.52	5731.6	
612.71	4468	
612.9	4151.2	
613.09	5645.6	
613.28	6759.7	
613.47	4341.7	
613.66	4755.4	
613.85	6173.3	
614.04	5820.3	
614.24	4407.9	
614.43	4043.4	
614.62	6199.9	
614.81	6204.7	
615	4577.2	
615.19	4594.3	
615.38	5898.8	
615.57	6111.1	
615.76	4612	
615.95	5038.7	
616.14	6277	
616.33	6096.1	
616.52	4760.2	
616.71	4709	
616.9	6218.3	
617.09	6007.4	
617.28	4496	
617.47	4903.5	
617.66	5894.1	
617.85	5815.5	
618.04	4799.1	
618.22	4562.9	
618.41	5766.4	
618.6	6453.8	
618.79	4569	
618.98	4475.5	
619.17	6533.7	
619.36	5689.3	
619.55	4640	
619.74	4607.9	
619.93	6200.6	
620.12	5914.5	
620.31	4772.4	
620.5	4894.6	
620.69	6445.6	
620.88	6722.1	
621.07	5130.2	
621.26	4773.8	
621.45	6305	
621.64	6287.9	
621.83	4908.3	
622.02	4457.7	
622.21	6184.9	
622.4	6318	
622.59	5139	
622.78	5042.8	
622.97	6147.3	
623.16	6517.3	
623.35	4828.4	
623.54	4394.9	
623.72	6165.8	
623.91	6198.5	
624.1	4998.4	
624.29	4418.2	
624.48	6767.2	
624.67	6426.5	
624.86	4896.7	
625.05	4506.2	
625.24	6799.9	
625.43	6186.2	
625.62	5638.1	
625.81	4601.1	
626	6464.1	
626.19	6236.1	
626.38	4805.2	
626.56	4588.1	
626.75	5979.4	
626.94	6452.5	
627.13	4898.1	
627.32	4352.6	
627.51	6460	
627.7	6845.7	
627.89	4427.7	
628.08	4900.8	
628.27	6064	
628.46	6221	
628.65	4559.5	
628.83	4346.5	
629.02	6433.4	
629.21	5944.6	
629.4	4739	
629.59	4801.8	
629.78	5955.5	
629.97	6442.2	
630.16	4857.8	
630.35	4612	
630.54	6825.2	
630.72	6658.6	
630.91	4593.6	
631.1	4790.9	
631.29	6128.9	
631.48	6154.1	
631.67	5020.3	
631.86	4614.8	
632.05	6272.2	
632.24	6197.8	
632.42	4562.2	
632.61	4877.6	
632.8	6165.1	
632.99	5950.7	
633.18	4861.2	
633.37	4952	
633.56	6339.8	
633.75	6313.9	
633.93	4933.6	
634.12	4634.6	
634.31	6829.3	
634.5	6477	
634.69	4780	
634.88	4984.1	
635.07	6311.2	
635.25	6514.6	
635.44	5157.5	
635.63	5218.2	
635.82	6228.6	
636.01	5380.7	
636.2	5163.6	
636.39	4878.9	
636.57	6821.1	
636.76	6303	
636.95	4631.8	
637.14	5246.2	
637.33	6485.2	
637.52	6713.2	
637.7	4515.1	
637.89	5102.2	
638.08	6296.1	
638.27	6853.9	
638.46	4986.8	
638.65	5104.2	
638.83	6854.6	
639.02	6154.1	
639.21	4960.2	
639.4	5196.4	
639.59	6312.5	
639.78	6185.5	
639.96	4602.5	
640.15	4651.6	
640.34	6283.2	
640.53	6073.6	
640.72	4545.8	
640.91	4624.3	
641.09	6041.5	
641.28	6554.2	
641.47	4842.1	
641.66	5054.4	
641.85	6255.9	
642.03	6324.1	
642.22	4837.3	
642.41	4728.1	
642.6	5997.1	
642.79	5730.9	
642.97	4672.1	
643.16	4850.3	
643.35	6030.6	
643.54	5825.1	
643.73	4530.8	
643.91	4850.3	
644.1	5867.4	
644.29	6120.7	
644.48	4541.7	
644.67	4519.2	
644.85	5590.3	
645.04	6233.3	
645.23	4382	
645.42	4586.8	
645.6	5853.8	
645.79	6333	
645.98	4394.3	
646.17	3988.8	
646.36	5507.7	
646.54	5883.8	
646.73	4730.1	
646.92	4281.6	
647.11	5766.4	
647.29	6103.6	
647.48	4248.2	
647.67	4056.3	
647.86	6322.1	
648.05	6249.7	
648.23	4371	
648.42	4961.5	
648.61	6044.9	
648.8	5978	
648.98	4259.8	
649.17	4406.5	
649.36	5829.9	
649.55	5554.8	
649.73	4270.7	
649.92	4625	
650.11	5654.4	
650.3	5883.8	
650.48	4244.8	
650.67	4162.2	
650.86	5981.4	
651.05	5440.1	
651.23	4283.7	
651.42	4255	
651.61	5716.6	
651.79	5593.7	
651.98	4359.4	
652.17	4204.5	
652.36	5910.4	
652.54	5397.8	
652.73	4263.9	
652.92	4265.9	
653.11	5910.4	
653.29	6075	
653.48	3963.5	
653.67	4328	
653.85	5776.6	
654.04	6229.2	
654.23	4386.1	
654.42	4208.6	
654.6	5591	
654.79	5832.6	
654.98	4003.8	
655.16	4280.9	
655.35	5444.9	
655.54	5153.4	
655.73	3979.9	
655.91	3881.6	
656.1	5740.5	
656.29	5169.8	
656.47	3768.9	
656.66	4476.9	
656.85	5539.8	
657.03	5410.7	
657.22	4048.8	
657.41	3998.3	
657.59	5521.3	
657.78	5440.8	
657.97	3934.1	
658.16	4252.3	
658.34	5872.2	
658.53	6075	
658.72	4652.3	
658.9	4825	
659.09	5720.7	
659.28	5691.3	
659.46	4177.2	
659.65	4111	
659.84	5510.4	
660.02	5902.2	
660.21	4128.7	
660.4	4037.9	
660.58	5894.1	
660.77	5585.5	
660.96	4328	
661.14	3842	
661.33	6206	
661.52	6139.1	
661.7	3902.7	
661.89	5328.1	
662.08	5469.4	
662.26	5074.2	
662.45	4017.4	
662.64	4085	
662.82	5902.2	
663.01	5367.7	
663.2	4076.8	
663.38	4384.7	
663.57	5721.3	
663.75	5692.7	
663.94	4205.8	
664.13	4774.5	
664.31	5597.1	
664.5	5776	
664.69	4392.2	
664.87	4528.7	
665.06	5333.6	
665.25	5603.9	
665.43	4726.7	
665.62	4602.5	
665.8	5745.2	
665.99	5554.1	
666.18	4218.8	
666.36	4197.7	
666.55	5864	
666.74	5689.3	
666.92	4059.1	
667.11	4796.3	
667.29	5622.4	
667.48	5769.8	
667.67	4558.8	
667.85	4121.9	
668.04	5512.4	
668.22	5442.8	
668.41	4286.4	
668.6	4442.7	
668.78	5397.1	
668.97	5541.8	
669.15	4416.8	
669.34	3887.7	
669.53	5451.7	
669.71	5538.4	
669.9	4046.1	
670.08	4232.5	
670.27	5341.1	
670.46	5692	
670.64	4432.5	
670.83	4573.1	
671.01	5264	
671.2	5526.1	
671.38	4140.3	
671.57	3963.5	
671.76	5970.5	
671.94	6103.6	
672.13	3981.9	
672.31	4452.3	
672.5	5786.9	
672.69	5375.2	
672.87	4060.4	
673.06	4145.8	
673.24	5620.3	
673.43	5502.9	
673.61	4293.2	
673.8	4176.5	
673.98	5646.9	
674.17	5741.8	
674.36	4477.5	
674.54	4305.5	
674.73	5289.9	
674.91	5820.3	
675.1	4210.6	
675.28	3938.2	
675.47	5470.1	
675.65	5779.4	
675.84	4238.6	
676.03	4294.6	
676.21	5482.4	
676.4	5117.9	
676.58	4518.5	
676.77	4405.2	
676.95	6155.5	
677.14	5418.2	
677.32	3978.5	
677.51	3956.7	
677.69	5846.3	
677.88	5448.3	
678.06	4026.3	
678.25	4121.2	
678.44	5539.8	
678.62	5369.1	
678.81	3954.6	
678.99	4330.1	
679.18	5918.6	
679.36	5667.4	
679.55	4240.7	
679.73	4414.1	
679.92	5685.2	
680.1	5494	
680.29	4670.7	
680.47	4114.4	
680.66	5554.8	
680.84	5797.8	
681.03	3974.4	
681.21	4358.8	
681.4	5434.6	
681.58	5380	
681.77	4054.3	
681.95	4068.6	
682.14	5821.7	
682.32	5973.9	
682.51	4369.7	
682.69	3953.9	
682.88	5395.7	
683.06	5536.3	
683.25	4340.3	
683.43	4508.9	
683.62	5676.3	
683.8	5758.9	
683.99	4575.2	
684.17	4186.7	
684.36	6058.6	
684.54	5384.8	
684.73	3915.7	
684.91	3986	
685.1	5608.7	
685.28	5300.1	
685.46	4153.3	
685.65	4130.1	
685.83	5593.7	
686.02	5302.2	
686.2	3887	
686.39	3888.4	
686.57	5152	
686.76	5711.8	
686.94	3958.7	
687.13	4034.5	
687.31	5466.7	
687.5	5421	
687.68	3729.4	
687.86	4246.1	
688.05	6190.3	
688.23	5165.7	
688.42	4221.5	
688.6	3979.2	
688.79	5343.2	
688.97	5387.5	
689.16	4162.8	
689.34	3753.2	
689.52	5559.6	
689.71	5785.5	
689.89	4327.4	
690.08	4012.7	
690.26	5489.2	
690.45	5350.7	
690.63	4379.9	
690.81	4109.6	
691	5557.5	
691.18	5309	
691.37	4134.2	
691.55	5029.8	
691.74	5290.6	
691.92	6223.8	
692.1	4098.7	
692.29	3901.4	
692.47	5543.9	
692.66	5138.4	
692.84	4004.5	
693.02	4175.8	
693.21	5081.7	
693.39	5482.4	
693.58	4276.8	
693.76	3924.6	
693.94	5899.5	
694.13	5884.5	
694.31	4076.1	
694.5	4605.9	
694.68	5355.4	
694.86	5616.2	
695.05	4201.1	
695.23	4383.3	
695.42	5699.5	
695.6	6683.9	
695.78	4485.7	
695.97	4154	
696.15	5804.6	
696.34	5432.6	
696.52	4074.8	
696.7	4437.9	
696.89	5694.7	
697.07	5290.6	
697.25	4349.2	
697.44	4947.2	
697.62	5627.8	
697.81	5636	
697.99	4203.1	
698.17	4443.4	
698.36	5444.2	
698.54	5723.4	
698.72	4302.1	
698.91	3919.1	
699.09	5536.3	
699.28	5257.1	
699.46	4186.7	
699.64	4087.1	
699.83	5384.1	
700.01	5776	
700.19	4554	
700.38	3805.8	
700.56	5612.1	
700.74	5496.1	
700.93	3980.6	
701.11	4397.7	
701.29	5694.7	
701.48	6199.9	
701.66	4048.8	
701.84	4204.5	
702.03	5532.9	
702.21	5842.9	
702.39	3906.2	
702.58	4195.6	
702.76	5826.5	
702.94	5722.7	
703.13	3911.6	
703.31	5041.4	
703.49	5518.6	
703.68	5953.4	
703.86	4075.5	
704.04	4538.3	
704.23	5763	
704.41	5898.2	
704.59	4228.4	
704.78	4579.9	
704.96	6462.7	
705.14	5812.8	
705.33	4118.5	
705.51	4441.4	
705.69	5433.9	
705.87	5952.8	
706.06	4397	
706.24	3987.4	
706.42	5657.9	
706.61	5838.1	
706.79	4562.2	
706.97	3928	
707.16	5444.9	
707.34	5705.6	
707.52	4450.2	
707.7	4094.6	
707.89	5248.9	
708.07	5354.1	
708.25	4500.8	
708.44	4767.7	
708.62	5445.5	
708.8	6030.6	
708.98	4615.4	
709.17	4178.5	
709.35	5574.6	
709.53	5627.8	
709.72	4029	
709.9	4071.4	
710.08	5906.3	
710.26	5827.8	
710.45	4807.9	
710.63	4209.3	
710.81	5566.4	
710.99	5623	
711.18	4412	
711.36	4166.9	
711.54	5539.8	
711.72	5890.6	
711.91	4274.1	
712.09	3975.1	
712.27	5594.4	
712.45	5944.6	
712.64	4205.8	
712.82	3829.7	
713	5341.1	
713.18	5285.8	
713.37	3837.9	
713.55	4410	
713.73	5673.6	
713.91	5104.2	
714.1	3997	
714.28	3806.5	
714.46	5437.4	
714.64	5094.7	
714.83	3462.4	
715.01	3701.4	
715.19	5212.8	
715.37	4669.4	
715.55	3491.8	
715.74	3621.5	
715.92	5356.8	
716.1	4418.8	
716.28	4175.1	
716.47	3639.2	
716.65	4932.9	
716.83	4775.2	
717.01	3624.2	
717.19	3575.1	
717.38	5773.2	
717.56	4672.8	
717.74	3726.6	
717.92	3348.4	
718.1	5233.9	
718.29	4914.4	
718.47	3202.3	
718.65	3489.1	
718.83	5332.9	
719.01	5181.4	
719.2	3164.8	
719.38	3730.7	
719.56	5138.4	
719.74	5855.1	
719.92	3623.5	
720.11	3997	
720.29	5279	
720.47	4797	
720.65	3349.8	
720.83	3747.1	
721.02	5020.3	
721.2	4864.6	
721.38	3658.4	
721.56	3370.3	
721.74	4514.4	
721.92	4528.1	
722.11	3827.7	
722.29	3713	
722.47	5132.9	
722.65	4776.5	
722.83	3373	
723.01	3657.7	
723.2	4614.1	
723.38	4980	
723.56	3065.8	
723.74	3589.4	
723.92	4371	
724.1	4994.3	
724.29	3312.2	
724.47	3747.8	
724.65	4729.4	
724.83	4539.7	
725.01	3207.8	
725.19	3578.5	
725.37	4595.6	
725.56	4530.8	
725.74	3233.7	
725.92	3272	
726.1	4510.3	
726.28	4766.3	
726.46	3480.9	
726.64	3338.9	
726.83	4841.4	
727.01	4798.4	
727.19	3214.6	
727.37	3571.7	
727.55	4846.9	
727.73	5048.9	
727.91	3198.2	
728.09	3097.2	
728.28	4866.7	
728.46	5083.1	
728.64	3565.5	
728.82	3530.7	
729	5410.1	
729.18	5253	
729.36	3179.8	
729.54	4154	
729.72	5663.3	
729.91	4862.6	
730.09	4141.7	
730.27	3543	
730.45	4926.7	
730.63	5126.7	
730.81	3826.3	
730.99	3386.7	
731.17	5475.6	
731.35	4719.9	
731.53	3620.8	
731.71	3484.3	
731.9	5277.6	
732.08	5170.4	
732.26	3601.7	
732.44	3375.7	
732.62	5328.8	
732.8	5060.5	
732.98	3732.1	
733.16	3318.4	
733.34	5135.6	
733.52	4359.4	
733.7	3564.8	
733.88	3646.1	
734.07	4987.5	
734.25	4911	
734.43	3282.2	
734.61	3917.8	
734.79	5530.2	
734.97	4842.8	
735.15	3350.5	
735.33	3519.8	
735.51	4977.2	
735.69	4844.8	
735.87	3889.1	
736.05	3538.2	
736.23	4913.1	
736.41	4712.4	
736.59	3623.5	
736.77	3522.5	
736.95	5135.6	
737.13	4756.7	
737.32	3339.6	
737.5	3471.3	
737.68	5399.8	
737.86	4742.4	
738.04	3280.8	
738.22	4122.6	
738.4	4765.6	
738.58	4891.9	
738.76	3434.4	
738.94	3065.8	
739.12	4809.3	
739.3	4702.1	
739.48	3748.5	
739.66	3612.6	
739.84	4870.1	
740.02	4838.7	
740.2	3142.3	
740.38	3236.5	
740.56	5070.8	
740.74	4213.4	
740.92	3567.6	
741.1	3424.9	
741.28	4799.8	
741.46	4566.3	
741.64	3336.1	
741.82	3600.3	
742	4795.7	
742.18	4681.7	
742.36	3412.6	
742.54	3281.5	
742.72	5096.7	
742.9	4357.4	
743.08	3482.9	
743.26	3001	
743.44	4987.5	
743.62	4948.6	
743.8	3671.3	
743.98	3231	
744.16	4805.2	
744.34	4670.1	
744.52	3547.1	
744.7	3537.5	
744.88	4926.7	
745.06	4676.2	
745.24	3511.6	
745.42	3556	
745.6	5008	
745.78	4977.9	
745.96	3052.2	
746.14	3135.4	
746.32	5328.8	
746.5	4750.6	
746.68	3254.9	
746.86	3110.9	
747.03	4924.7	
747.21	4406.5	
747.39	3396.9	
747.57	3068.5	
747.75	4626.4	
747.93	4782	
748.11	3129.3	
748.29	2996.2	
748.47	5571.8	
748.65	4698	
748.83	3487	
749.01	3299.3	
749.19	4857.1	
749.37	4347.8	
749.55	3332.7	
749.73	3266.5	
749.91	4726	
750.09	4651.6	
750.26	3347.7	
750.44	3060.3	
750.62	4663.9	
750.8	4559.5	
750.98	3021.4	
751.16	3117.7	
751.34	4786.1	
751.52	4348.5	
751.7	3494.5	
751.88	2983.9	
752.06	4963.6	
752.24	4780.6	
752.42	2900.6	
752.59	3105.4	
752.77	4713.1	
752.95	5145.2	
753.13	3399.6	
753.31	3123.8	
753.49	4530.8	
753.67	4588.1	
753.85	3296.5	
754.03	3037.8	
754.21	4819.6	
754.38	4984.1	
754.56	3112.9	
754.74	2709.5	
754.92	4373.8	
755.1	4643.4	
755.28	2643.9	
755.46	2613.2	
755.64	5069.4	
755.82	5087.2	
755.99	2777.7	
756.17	2775.7	
756.35	3861.8	
756.53	4490.5	
756.71	2207	
756.89	2828.9	
757.07	4292.5	
757.25	3885.7	
757.42	2899.9	
757.6	3245.3	
757.78	4369.7	
757.96	3928.7	
758.14	2780.5	
758.32	2565.4	
758.5	3695.2	
758.67	4030.4	
758.85	2732.7	
759.03	2633.7	
759.21	4235.9	
759.39	3829.7	
759.57	2519.7	
759.75	3003	
759.92	4599.7	
760.1	4255.7	
760.28	3146.4	
760.46	3304.7	
760.64	4140.3	
760.82	4047.5	
760.99	3093.8	
761.17	2738.1	
761.35	4552.6	
761.53	3945.8	
761.71	2863.7	
761.89	3143.6	
762.06	4384	
762.24	4226.3	
762.42	2897.9	
762.6	2762	
762.78	4228.4	
762.96	4432.5	
763.13	3067.2	
763.31	2879.4	
763.49	4539.7	
763.67	4211.3	
763.85	3308.8	
764.02	3543	
764.2	4786.1	
764.38	4174.4	
764.56	2889.7	
764.74	3258.3	
764.91	4672.1	
765.09	4199	
765.27	2817.3	
765.45	2623.4	
765.63	4879.6	
765.8	4620.2	
765.98	2622.1	
766.16	2694.4	
766.34	3880.2	
766.52	3861.8	
766.69	3140.2	
766.87	2594.1	
767.05	4234.5	
767.23	4659.8	
767.41	2775	
767.58	2882.9	
767.76	4552.6	
767.94	4498.7	
768.12	2817.3	
768.29	3096.5	
768.47	3995.6	
768.65	4576.5	
768.83	2626.2	
769	3046.7	
769.18	4071.4	
769.36	4342.4	
769.54	3071.3	
769.72	2594.8	
769.89	4631.8	
770.07	4476.2	
770.25	2820.7	
770.43	3366.9	
770.6	4827.1	
770.78	4887.8	
770.96	2908.8	
771.14	3104.7	
771.31	4506.9	
771.49	4163.5	
771.67	2519	
771.85	2577.7	
772.02	3841.3	
772.2	4116.4	
772.38	2990.7	
772.55	2667.1	
772.73	4317.1	
772.91	4229.7	
773.09	2874.7	
773.26	2888.3	
773.44	4336.2	
773.62	4213.4	
773.8	2673.3	
773.97	2519	
774.15	4285.7	
774.33	4179.9	
774.5	2600.2	
774.68	2702.6	
774.86	4332.1	
775.04	4142.4	
775.21	2618.7	
775.39	2585.2	
775.57	4207.9	
775.74	4332.8	
775.92	2511.5	
776.1	2394.1	
776.27	4228.4	
776.45	4795	
776.63	2588.6	
776.81	2454.1	
776.98	4145.1	
777.16	4502.1	
777.34	2637.8	
777.51	2831	
777.69	4122.6	
777.87	3919.1	
778.04	2772.3	
778.22	2942.9	
778.4	3990.8	
778.57	4283.7	
778.75	2376.3	
778.93	2481.5	
779.1	3980.6	
779.28	3711.6	
779.46	2336.7	
779.64	2534.7	
779.81	4364.2	
779.99	4737	
780.17	2905.4	
780.34	2984.6	
780.52	4166.3	
780.69	4182	
780.87	2781.8	
781.05	2513.5	
781.22	4177.9	
781.4	4155.3	
781.58	2614.6	
781.75	2185.9	
781.93	4222.2	
782.11	3745.7	
782.28	3023.5	
782.46	2585.2	
782.64	3790.1	
782.81	4271.4	
782.99	2613.2	
783.17	2540.2	
783.34	4076.1	
783.52	3904.1	
783.69	2592.7	
783.87	3032.4	
784.05	3943	
784.22	3827.7	
784.4	3028.3	
784.58	2725.8	
784.75	4376.5	
784.93	3960.1	
785.1	2504	
785.28	2813.2	
785.46	4263.9	
785.63	3807.9	
785.81	2596.8	
785.99	2475.3	
786.16	4017.4	
786.34	4091.2	
786.51	2510.1	
786.69	2791.4	
786.87	3702	
787.04	3924.6	
787.22	2459.6	
787.39	2859.6	
787.57	3907.5	
787.75	4304.1	
787.92	3024.2	
788.1	2871.9	
788.27	3788.1	
788.45	3509.5	
788.63	2850.8	
788.8	2194.1	
788.98	4109.6	
789.15	3535.5	
789.33	2342.2	
789.5	2506	
789.68	4289.8	
789.86	4290.5	
790.03	2772.3	
790.21	2518.3	
790.38	4412	
790.56	3926	
790.73	2435.7	
790.91	2421.4	
791.09	3857.7	
791.26	4133.5	
791.44	2581.1	
791.61	2314.2	
791.79	3884.3	
791.96	3789.4	
792.14	2400.2	
792.32	2153.8	
792.49	3745.1	
792.67	3936.9	
792.84	2425.5	
793.02	2325.8	
793.19	4161.5	
793.37	4315.1	
793.54	2123.7	
793.72	2284.9	
793.89	4400.4	
794.07	3747.8	
794.25	2607.1	
794.42	2172.9	
794.6	4268.6	
794.77	4024.9	
794.95	2708.1	
795.12	2381.1	
795.3	3790.1	
795.47	4054.3	
795.65	2666.5	
795.82	2549.7	
796	3771.7	
796.17	4576.5	
796.35	2489.6	
796.52	2843.9	
796.7	4060.4	
796.87	4154	
797.05	2493.7	
797.22	2920.4	
797.4	4180.6	
797.57	4582	
797.75	2641.2	
797.92	2541.5	
798.1	4319.2	
798.27	3599	
798.45	2253.4	
798.62	2312.8	
798.8	3956	
798.97	4216.1	
799.15	2675.3	
799.32	2550.4	
799.5	3616	
799.67	3902.1	
799.85	2738.1	
800.02	2174.9	
800.2	3835.8	
800.37	3823.6	
800.55	2768.2	
800.72	2491	
800.9	4229.7	
801.07	4324.6	
801.25	3039.2	
801.42	2635.7	
801.6	4173.8	
801.77	3837.9	
801.95	2483.5	
802.12	2386.6	
802.29	4066.6	
802.47	3912.3	
802.64	2692.4	
802.82	2202.2	
802.99	3855	
803.17	4123.2	
803.34	2536.8	
803.52	2363.4	
803.69	4390.8	
803.87	3595.6	
804.04	2571.6	
804.21	2537.4	
804.39	4388.8	
804.56	3835.2	
804.74	2276	
804.91	2610.5	
805.09	3792.8	
805.26	3844.7	
805.44	2320.3	
805.61	2477.4	
805.78	4154	
805.96	4052.2	
806.13	2610.5	
806.31	2730.6	
806.48	3523.2	
806.66	3760.8	
806.83	2637.8	
807	2499.2	
807.18	3859.7	
807.35	3980.6	
807.53	2563.4	
807.7	2220.7	
807.87	4367.6	
808.05	3753.2	
808.22	2732.7	
808.4	2198.8	
808.57	3650.2	
808.74	3606.5	
808.92	2430.9	
809.09	2907.4	
809.27	3872	
809.44	3993.5	
809.61	2208.4	
809.79	2361.3	
809.96	4579.9	
810.14	4053.6	
810.31	2163.3	
810.48	2744.3	
810.66	3829	
810.83	4123.9	
811.01	2460.3	
811.18	2623.4	
811.35	4139.6	
811.53	3461.7	
811.7	2729.3	
811.87	2646.7	
812.05	3968.3	
812.22	3775.8	
812.39	2368.8	
812.57	2273.2	
812.74	3910.9	
812.92	4558.8	
813.09	2574.3	
813.26	2585.9	
813.44	4494.6	
813.61	3679.5	
813.78	2162.7	
813.96	2689	
814.13	3882.9	
814.3	3791.5	
814.48	2867.8	
814.65	2433	
814.82	4272.7	
815	3574.4	
815.17	2554.5	
815.34	2906.8	
815.52	3740.3	
815.69	3746.4	
815.87	2446	
816.04	2456.9	
816.21	3672.7	
816.38	3633.8	
816.56	2449.4	
816.73	2327.2	
816.9	4534.9	
817.08	4085.7	
817.25	2412.5	
817.42	2734.7	
817.6	3575.1	
817.77	3743.7	
817.94	2499.9	
818.12	2368.1	
818.29	3677.5	
818.46	4805.2	
818.64	2489.6	
818.81	2319.7	
818.98	3756	
819.16	4569	
819.33	2633	
819.5	2530.6	
819.67	3985.3	
819.85	4290.5	
820.02	2534	
820.19	2591.4	
820.37	3927.3	
820.54	3731.4	
820.71	2553.8	
820.88	3043.3	
821.06	3932.1	
821.23	3710.9	
821.4	2571.6	
821.58	2538.8	
821.75	4086.4	
821.92	3957.4	
822.09	2187.2	
822.27	2355.8	
822.44	3775.1	
822.61	3725.9	
822.79	2260.3	
822.96	3639.9	
823.13	3828.3	
823.3	3560.7	
823.48	2438.4	
823.65	2267.8	
823.82	4179.2	
823.99	3602.4	
824.17	2952.5	
824.34	2241.8	
824.51	4603.8	
824.68	3839.3	
824.86	2425.5	
825.03	2557.2	
825.2	3817.4	
825.37	4231.1	
825.55	2366.8	
825.72	2502.6	
825.89	4457.1	
826.06	4247.5	
826.24	2443.9	
826.41	2510.8	
826.58	4431.1	
826.75	3851.5	
826.92	2193.4	
827.1	2325.1	
827.27	5380	
827.44	4434.5	
827.61	2387.2	
827.79	2725.2	
827.96	3787.4	
828.13	3695.2	
828.3	2515.6	
828.47	2170.8	
828.65	4132.8	
828.82	4025.6	
828.99	2860.3	
829.16	2613.2	
829.34	4168.3	
829.51	4131.4	
829.68	2502.6	
829.85	2484.2	
830.02	4547.2	
830.2	4203.8	
830.37	2061.6	
830.54	2780.5	
830.71	4543.8	
830.88	3910.3	
831.05	2033	
831.23	2285.5	
831.4	4562.9	
831.57	4633.2	
831.74	2387.9	
831.91	2121	
832.09	4186.7	
832.26	4301.4	
832.43	2323.8	
832.6	2553.1	
832.77	4095.9	
832.94	4415.4	
833.12	2053.4	
833.29	2347	
833.46	3762.8	
833.63	4752	
833.8	2542.2	
833.97	2342.9	
834.15	4321.9	
834.32	4173.8	
834.49	2495.8	
834.66	2453.5	
834.83	4108.2	
835	3751.9	
835.17	2329.2	
835.35	2320.3	
835.52	4238.6	
835.69	4063.9	
835.86	2400.9	
836.03	2105.3	
836.2	4251.6	
836.37	4029.7	
836.55	2339.5	
836.72	2283.5	
836.89	3989.4	
837.06	4318.5	
837.23	2403	
837.4	2523.1	
837.57	4657.1	
837.75	4764.3	
837.92	2202.2	
838.09	2329.2	
838.26	4007.2	
838.43	4291.9	
838.6	2450.7	
838.77	2261.6	
838.94	4608.6	
839.11	4607.9	
839.29	2385.2	
839.46	2006.3	
839.63	4291.9	
839.8	4007.2	
839.97	2325.1	
840.14	2295.1	
840.31	4200.4	
840.48	4248.2	
840.65	2097.8	
840.82	2316.3	
841	4225	
841.17	4072.7	
841.34	2101.9	
841.51	2229.6	
841.68	4221.5	
841.85	4009.2	
842.02	2284.2	
842.19	2013.2	
842.36	4166.9	
842.53	4162.2	
842.7	2205.7	
842.87	2465.1	
843.05	4844.8	
843.22	4020.8	
843.39	2152.4	
843.56	2319.7	
843.73	4071.4	
843.9	4307.6	
844.07	3103.4	
844.24	2651.4	
844.41	5161.6	
844.58	3866.6	
844.75	2137.4	
844.92	2204.3	
845.09	4053.6	
845.26	4164.9	
845.43	2213.2	
845.6	2306.7	
845.77	4229.7	
845.94	4083	
846.12	2381.8	
846.29	2476.7	
846.46	4360.8	
846.63	4061.1	
846.8	2213.2	
846.97	2500.6	
847.14	4330.8	
847.31	4158.1	
847.48	2390.7	
847.65	2582.5	
847.82	3938.9	
847.99	4252.3	
848.16	2676	
848.33	2520.4	
848.5	3902.1	
848.67	4366.3	
848.84	2125.8	
849.01	2248.7	
849.18	3999	
849.35	3691.8	
849.52	2564.1	
849.69	2127.2	
849.86	4349.2	
850.03	4291.9	
850.2	2141.5	
850.37	2500.6	
850.54	4254.3	
850.71	3790.1	
850.88	2523.8	
851.05	2145.6	
851.22	4029	
851.39	4361.5	
851.56	2023.4	
851.73	2390	
851.9	3839.9	
852.07	4296.6	
852.24	2407.7	
852.41	2150.4	
852.58	4187.4	
852.75	3896.6	
852.92	2344.9	
853.09	2142.9	
853.26	3669.3	
853.43	4283	
853.6	2185.2	
853.77	1972.9	
853.94	4431.8	
854.11	3768.3	
854.28	2913.6	
854.44	2372.2	
854.61	4554	
854.78	4350.6	
854.95	2162	
855.12	2592	
855.29	3593.5	
855.46	4403.1	
855.63	2187.2	
855.8	2742.2	
855.97	3916.4	
856.14	4375.8	
856.31	2865.8	
856.48	2334.7	
856.65	4032.5	
856.82	3784	
856.99	2123.7	
857.16	2291	
857.33	4700.1	
857.49	3985.3	
857.66	2282.8	
857.83	2328.5	
858	4099.4	
858.17	4100	
858.34	2082.1	
858.51	2219.3	
858.68	4396.3	
858.85	4420.9	
859.02	2465.8	
859.19	2506.7	
859.36	3859.7	
859.52	3682.9	
859.69	2170.8	
859.86	2459.6	
860.03	3624.2	
860.2	4435.2	
860.37	2082.8	
860.54	2205.7	
860.71	4230.4	
860.88	4405.9	
861.05	2313.5	
861.21	2633.7	
861.38	4423.6	
861.55	3672	
861.72	2088.9	
861.89	2441.9	
862.06	4293.2	
862.23	4469.4	
862.4	2104.6	
862.56	2198.2	
862.73	4216.8	
862.9	4079.6	
863.07	2391.3	
863.24	2086.9	
863.41	3788.1	
863.58	3848.1	
863.75	2236.4	
863.91	2486.9	
864.08	4233.2	
864.25	4147.8	
864.42	2598.9	
864.59	2817.3	
864.76	4470	
864.93	3796.3	
865.09	2140.1	
865.26	2336	
865.43	4403.8	
865.6	4541.7	
865.77	2016.6	
865.94	2164	
866.1	4328	
866.27	4125.3	
866.44	2994.1	
866.61	2106	
866.78	3981.3	
866.95	4257	
867.11	2196.1	
867.28	2027.5	
867.45	4415.4	
867.62	3766.2	
867.79	2454.1	
867.96	2125.1	
868.12	3756.7	
868.29	4233.8	
868.46	2168.1	
868.63	2736.8	
868.8	4252.3	
868.97	4234.5	
869.13	2282.8	
869.3	2247.3	
869.47	4095.9	
869.64	4269.3	
869.81	2197.5	
869.97	2212.5	
870.14	4052.9	
870.31	4403.1	
870.48	2134.7	
870.65	2581.1	
870.81	4085.7	
870.98	4034.5	
871.15	2402.9	
871.32	2307.4	
871.48	4184	
871.65	4494.6	
871.82	2159.2	
871.99	2343.6	
872.16	4727.4	
872.32	4365.6	
872.49	2206.3	
872.66	2207	
872.83	4313.7	
872.99	3897.3	
873.16	2407	
873.33	2188.6	
873.5	4052.9	
873.67	4140.3	
873.83	2312.2	
874	2689	
874.17	4181.3	
874.34	4414.1	
874.5	2633	
874.67	2540.2	
874.84	4343.1	
875.01	3650.2	
875.17	2848	
875.34	2182.5	
875.51	4125.3	
875.68	4759.5	
875.84	2521.7	
876.01	2882.9	
876.18	4258.4	
876.34	4139.6	
876.51	2164.7	
876.68	2129.9	
876.85	3909.6	
877.01	4453.6	
877.18	2863.7	
877.35	2156.5	
877.52	4232.5	
877.68	3839.3	
877.85	2174.9	
878.02	2159.2	
878.18	3660.4	
878.35	3997.6	
878.52	1871.8	
878.69	2435	
878.85	4420.2	
879.02	4206.5	
879.19	2833.7	
879.35	2270.5	
879.52	4252.3	
879.69	4250.9	
879.86	1990.6	
880.02	2348.3	
880.19	4034.5	
880.36	4586.1	
880.52	2409.8	
880.69	2505.3	
880.86	4291.9	
881.02	4264.6	
881.19	2296.5	
881.36	2308.1	
881.52	4194.9	
881.69	3908.9	
881.86	2332	
882.02	2267.8	
882.19	4360.8	
882.36	4855.7	
882.52	2258.9	
882.69	2813.9	
882.86	4102.1	
883.02	4133.5	
883.19	2493.7	
883.36	2413.9	
883.52	4285	
883.69	4631.1	
883.86	2181.8	
884.02	2067.8	
884.19	4255.7	
884.36	4096.6	
884.52	2370.2	
884.69	2338.8	
884.86	3970.3	
885.02	4447.5	
885.19	2355.2	
885.36	2413.2	
885.52	3829	
885.69	4175.8	
885.86	2889	
886.02	2626.9	
886.19	4237.9	
886.35	3945.1	
886.52	2314.9	
886.69	2773.6	
886.85	3830.4	
887.02	4396.3	
887.19	4396.3	
887.35	4396.3	
887.52	4396.3	
887.68	4396.3	
887.85	4396.3	
888.02	4396.3	
888.18	4396.3	
888.35	4396.3	
888.51	4396.3	
888.68	4396.3	
888.85	4396.3	
889.01	4396.3	
889.18	4396.3	
889.35	4396.3	
889.51	4396.3	
889.68	4396.3	
889.84	4396.3	
890.01	4396.3	
890.17	4396.3	
890.34	4396.3	
890.51	4396.3	
890.67	4396.3	
890.84	4396.3	
891	4396.3	
891.17	4396.3	
891.34	4396.3	
891.5	4396.3	
891.67	4396.3	
891.83	4396.3	
892	4396.3	
892.16	4396.3	
892.33	4396.3	
892.5	4396.3	
892.66	4396.3	
892.83	4396.3	
892.99	4396.3	
893.16	4396.3	
893.32	4396.3	
893.49	4396.3	
893.65	4396.3	
893.82	4396.3	
893.99	4396.3	
894.15	4396.3	
894.32	4396.3	
894.48	4396.3	
894.65	4396.3	
894.81	4396.3	
894.98	4396.3	
895.14	4396.3	
895.31	4396.3	
895.47	4396.3	
895.64	4396.3	
895.81	4396.3	
895.97	4396.3	
896.14	4396.3	
896.3	4396.3	
896.47	4396.3	
896.63	4396.3	
896.8	4396.3	
896.96	4396.3	
897.13	4396.3	
897.29	4396.3	
897.46	4396.3	
897.62	4396.3	
897.79	4396.3	
897.95	4396.3	
898.12	4396.3	
898.28	4396.3	
898.45	4396.3	
898.61	4396.3	
898.78	4396.3	
898.94	4396.3	
899.11	4396.3	
899.27	4396.3	
899.44	4396.3	
899.6	4396.3	
899.77	4396.3	
899.93	4396.3	
900.1	4396.3	
900.26	4396.3	
900.43	4396.3	
900.59	4396.3	
900.76	4396.3	
900.92	4396.3	
901.09	4396.3	
901.25	4396.3	
901.42	4396.3	
901.58	4396.3	
901.75	4396.3	
901.91	4396.3	
902.07	4396.3	
902.24	4396.3	
902.4	4396.3	
902.57	4396.3	
902.73	4396.3	
902.9	4396.3	
903.06	4396.3	
903.23	4396.3	
903.39	4396.3	
903.56	4396.3	
903.72	4396.3	
903.88	4396.3	
904.05	4396.3	
904.21	4396.3	
904.38	4396.3	
904.54	4396.3	
904.71	4396.3	
904.87	4396.3	
905.03	4396.3	
905.2	4396.3	
905.36	4396.3	
905.53	4396.3	
905.69	4396.3	
905.86	4396.3	
906.02	4396.3	
906.18	4396.3	
906.35	4396.3	
906.51	4396.3	
906.68	4396.3	
906.84	4396.3	
907.01	4396.3	
907.17	4396.3	
907.33	4396.3	
907.5	4396.3	
907.66	4396.3	
907.83	4396.3	
907.99	4396.3	
908.15	4396.3	
908.32	4396.3	
908.48	4396.3	
908.65	4396.3	
908.81	4396.3	
908.97	4396.3	
909.14	4396.3	
909.3	4396.3	
909.47	4396.3	
909.63	4396.3	
909.79	4396.3	
909.96	4396.3	
910.12	4396.3	
910.28	4396.3	
910.45	4396.3	
910.61	4396.3	
910.78	4396.3	
910.94	4396.3	
911.1	4396.3	
911.27	4396.3	
911.43	4396.3	
911.59	4396.3	
911.76	4396.3	
911.92	4396.3	
912.08	4396.3	
912.25	4396.3	
912.41	4396.3	
912.57	4396.3	
912.74	4396.3	
912.9	4396.3	
913.07	4396.3	
913.23	4396.3	
913.39	4396.3	
913.56	4396.3	
913.72	4396.3	
913.88	4396.3	
914.05	4396.3	
914.21	4396.3	
914.37	4396.3	
914.54	4396.3	
914.7	4396.3	
914.86	4396.3	
915.03	4396.3	
915.19	4396.3	
