Wavelength	Intensities	
nm	a.u.	
179.22	1921.8	
179.44	1915.2	
179.65	1928.5	
179.86	1901.9	
180.08	1936.7	
180.29	5093.3	
180.51	3568.9	
180.72	5762.3	
180.94	6853.9	
181.15	3336.8	
181.37	3261.7	
181.58	5649.7	
181.79	5956.2	
182.01	3493.2	
182.22	3755.3	
182.44	5872.9	
182.65	4952	
182.87	4687.8	
183.08	4104.1	
183.29	6232.7	
183.51	5104.2	
183.72	3755.3	
183.94	5581.4	
184.15	5591.6	
184.37	5534.3	
184.58	3318.4	
184.79	4623.6	
185.01	5123.3	
185.22	5858.6	
185.44	4872.1	
185.65	4012.7	
185.86	5405.3	
186.08	5017.5	
186.29	3223.5	
186.51	3475.4	
186.72	5168.4	
186.94	6082.5	
187.15	4001	
187.36	4176.5	
187.58	8018.5	
187.79	5696.1	
188.01	4349.2	
188.22	6928.3	
188.43	6819.7	
188.65	5900.2	
188.86	3448.8	
189.08	4134.8	
189.29	5311.1	
189.5	5369.1	
189.72	3867.2	
189.93	3904.8	
190.15	6173.3	
190.36	7322.2	
190.57	4252.9	
190.79	4128	
191	6236.1	
191.22	6157.6	
191.43	4275.5	
191.64	3453.6	
191.86	6419.7	
192.07	6202.6	
192.29	3628.3	
192.5	3877.5	
192.71	6154.1	
192.93	5257.8	
193.14	3819.5	
193.35	3857.7	
193.57	5255.1	
193.78	6053.8	
194	3087	
194.21	3764.8	
194.42	5027.1	
194.64	5555.5	
194.85	4108.9	
195.07	4926.7	
195.28	5618.9	
195.49	4811.4	
195.71	5226.4	
195.92	3568.2	
196.13	5678.3	
196.35	5878.4	
196.56	5521.3	
196.78	4172.4	
196.99	7212.9	
197.2	6827.2	
197.42	4784.7	
197.63	4175.8	
197.84	4924	
198.06	5729.5	
198.27	3882.3	
198.48	5222.3	
198.7	5281	
198.91	5386.2	
199.13	4235.9	
199.34	4217.5	
199.55	5900.9	
199.77	4786.1	
199.98	3641.3	
200.19	4248.2	
200.41	5364.3	
200.62	5122	
200.83	4414.1	
201.05	4706.2	
201.26	5418.2	
201.47	5121.3	
201.69	3773.7	
201.9	3576.4	
202.11	5502.9	
202.33	6614.3	
202.54	3997.6	
202.76	4455.7	
202.97	5707.7	
203.18	5655.1	
203.4	4378.6	
203.61	4320.5	
203.82	5601.2	
204.04	5148.6	
204.25	4261.1	
204.46	4137.6	
204.68	5544.5	
204.89	5825.1	
205.1	4150.6	
205.32	3561.4	
205.53	5980.8	
205.74	6148	
205.96	2984.6	
206.17	4278.2	
206.38	5947.3	
206.6	6109.1	
206.81	4836.6	
207.02	3941	
207.24	5778	
207.45	6209.4	
207.66	3976.5	
207.88	3482.9	
208.09	5741.8	
208.3	5552.7	
208.52	3659.7	
208.73	4068.6	
208.94	5504.9	
209.15	6223.8	
209.37	3990.1	
209.58	4207.2	
209.79	6137.1	
210.01	5283.8	
210.22	3142.9	
210.43	3347.7	
210.65	5534.3	
210.86	5994.4	
211.07	4061.8	
211.29	3668.6	
211.5	5915.9	
211.71	5504.9	
211.93	3659	
212.14	3629.7	
212.35	5381.4	
212.56	5696.8	
212.78	4200.4	
212.99	3498.6	
213.2	6518.7	
213.42	5227.1	
213.63	3809.9	
213.84	4035.2	
214.06	4852.3	
214.27	5022.3	
214.48	3989.4	
214.69	4290.5	
214.91	6270.2	
215.12	6354.8	
215.33	4271.4	
215.55	4857.1	
215.76	6907.1	
215.97	5979.4	
216.18	4102.8	
216.4	4111	
216.61	5214.1	
216.82	6072.2	
217.04	3702	
217.25	3870.7	
217.46	6264.1	
217.67	5990.3	
217.89	3277.4	
218.1	3457.7	
218.31	5626.5	
218.53	5743.2	
218.74	3882.3	
218.95	3766.9	
219.16	5476.3	
219.38	6537.8	
219.59	3740.3	
219.8	4506.2	
220.01	7262.1	
220.23	5595.1	
220.44	4980	
220.65	3645.4	
220.87	5574.6	
221.08	6167.8	
221.29	3396.2	
221.5	4543.1	
221.72	7730.4	
221.93	5270.8	
222.14	4272.7	
222.35	4986.8	
222.57	5524.1	
222.78	5894.7	
222.99	4045.4	
223.2	4375.1	
223.42	5864	
223.63	5992.4	
223.84	3044.6	
224.05	3059.7	
224.27	7145.4	
224.48	6469.5	
224.69	5057.1	
224.9	4237.9	
225.12	5799.2	
225.33	5479.7	
225.54	3333.4	
225.75	3685.7	
225.97	5077.6	
226.18	5411.4	
226.39	4099.4	
226.6	3766.9	
226.82	5290.6	
227.03	5127.4	
227.24	4262.5	
227.45	3477.5	
227.67	5983.5	
227.88	6595.8	
228.09	4731.5	
228.3	4839.4	
228.52	5957.5	
228.73	5495.4	
228.94	3894.6	
229.15	3476.1	
229.36	5397.8	
229.58	5347.9	
229.79	3905.5	
230	4622.3	
230.21	6630	
230.43	5653.1	
230.64	4154	
230.85	4358.1	
231.06	5993.7	
231.28	5980.8	
231.49	3485.6	
231.7	4092.5	
231.91	5851	
232.12	5540.4	
232.34	3556.6	
232.55	4095.3	
232.76	6234	
232.97	5738.4	
233.18	3704.8	
233.4	4130.1	
233.61	5831.2	
233.82	5251.7	
234.03	3850.9	
234.25	3773	
234.46	7851.2	
234.67	5520	
234.88	4328	
235.09	3681.6	
235.31	5859.9	
235.52	5406.6	
235.73	4189.5	
235.94	3507.5	
236.15	5261.2	
236.37	6782.9	
236.58	3701.4	
236.79	4069.3	
237	5834	
237.21	5029.8	
237.43	4315.1	
237.64	3393.5	
237.85	10322	
238.06	5062.6	
238.27	4423.6	
238.48	3485	
238.7	5874.3	
238.91	5409.4	
239.12	4034.5	
239.33	4050.2	
239.54	5309.7	
239.76	5414.8	
239.97	3955.3	
240.18	4027.7	
240.39	6963.1	
240.6	5853.8	
240.82	4162.2	
241.03	3418.1	
241.24	5565	
241.45	6407.4	
241.66	3666.5	
241.87	4377.2	
242.09	6315.9	
242.3	6723.5	
242.51	4386.7	
242.72	4062.5	
242.93	6059.3	
243.14	5472.9	
243.36	4683.7	
243.57	5104.9	
243.78	6455.2	
243.99	5952.8	
244.2	4039.3	
244.41	3705.5	
244.63	5037.3	
244.84	5920.7	
245.05	4299.4	
245.26	4083	
245.47	5788.9	
245.68	6093.4	
245.9	5426.4	
246.11	4229.1	
246.32	5400.5	
246.53	5791.7	
246.74	6591.7	
246.95	3396.9	
247.16	4945.8	
247.38	5564.3	
247.59	3282.2	
247.8	4055	
248.01	5255.8	
248.22	5479.7	
248.43	3667.2	
248.64	3909.6	
248.86	4870.8	
249.07	5296	
249.28	3553.2	
249.49	4162.8	
249.7	6146.6	
249.91	6303.6	
250.12	3314.3	
250.34	3383.9	
250.55	5591	
250.76	5549.3	
250.97	4157.4	
251.18	4236.6	
251.39	6330.3	
251.6	5711.8	
251.81	4314.4	
252.03	4233.8	
252.24	5218.9	
252.45	6082.5	
252.66	3523.2	
252.87	4536.9	
253.08	5559.6	
253.29	7365.9	
253.5	3507.5	
253.72	4924.7	
253.93	5364.3	
254.14	6620.4	
254.35	3829	
254.56	3949.2	
254.77	5799.8	
254.98	5102.9	
255.19	3761.4	
255.41	4919.2	
255.62	5649.7	
255.83	6267.5	
256.04	4324.6	
256.25	4269.3	
256.46	6848.4	
256.67	5221	
256.88	4107.5	
257.09	4631.1	
257.31	5210	
257.52	5260.5	
257.73	5281	
257.94	3804.4	
258.15	5360.2	
258.36	5621.7	
258.57	4868.7	
258.78	3050.1	
258.99	6068.1	
259.2	5367.7	
259.41	3909.6	
259.63	3992.2	
259.84	6471.6	
260.05	6898.2	
260.26	5155.4	
260.47	3737.5	
260.68	6169.2	
260.89	5448.3	
261.1	4735.6	
261.31	3668.6	
261.52	6133	
261.73	6595.8	
261.95	5008.6	
262.16	4376.5	
262.37	6272.9	
262.58	6374.6	
262.79	5010.7	
263	3923.2	
263.21	5467.4	
263.42	5072.1	
263.63	3981.9	
263.84	3912.3	
264.05	6174.6	
264.26	6610.8	
264.47	4820.2	
264.69	4400.4	
264.9	6267.5	
265.11	5793	
265.32	3732.1	
265.53	3831.7	
265.74	5709.1	
265.95	4908.3	
266.16	4096.6	
266.37	4604.5	
266.58	5670.8	
266.79	5352.7	
267	3819.5	
267.21	3560.1	
267.42	5119.9	
267.63	5551.4	
267.84	4125.3	
268.06	3408.5	
268.27	5990.3	
268.48	6311.2	
268.69	3912.3	
268.9	4761.5	
269.11	6278.4	
269.32	4972.5	
269.53	4047.5	
269.74	3761.4	
269.95	5894.1	
270.16	4897.4	
270.37	4029	
270.58	4651.6	
270.79	5402.5	
271	6177.4	
271.21	4334.9	
271.42	4067.3	
271.63	5676.3	
271.84	5143.8	
272.05	3225.6	
272.26	3565.5	
272.47	5582.8	
272.68	5836	
272.89	3876.1	
273.11	4513.7	
273.32	5316.5	
273.53	6602.7	
273.74	4402.5	
273.95	4285.7	
274.16	6226.5	
274.37	5636.7	
274.58	4463.9	
274.79	3510.9	
275	5677	
275.21	6335.7	
275.42	5308.3	
275.63	4607.2	
275.84	5770.5	
276.05	7401.4	
276.26	4263.2	
276.47	3977.8	
276.68	5324	
276.89	6636.1	
277.1	4602.5	
277.31	3587.4	
277.52	5868.1	
277.73	5981.4	
277.94	3447.4	
278.15	3900	
278.36	5814.9	
278.57	5201.8	
278.78	3853.6	
278.99	4382.7	
279.2	5158.8	
279.41	5111.7	
279.62	5126.7	
279.83	3629	
280.04	6881.2	
280.25	5020.9	
280.46	5051.7	
280.67	4034.5	
280.88	5160.9	
281.09	6208.1	
281.3	4302.1	
281.51	5418.9	
281.72	6093.4	
281.93	6087.9	
282.14	3719.8	
282.35	4034.5	
282.56	6036	
282.77	6063.4	
282.98	3900	
283.19	4776.5	
283.4	7522.9	
283.61	5483.1	
283.82	3573.7	
284.03	5039.4	
284.24	5690.6	
284.45	6228.6	
284.66	5061.2	
284.87	4749.2	
285.08	6178.7	
285.29	6338.5	
285.5	3377.1	
285.71	3985.3	
285.92	6244.9	
286.12	6914.6	
286.33	5010	
286.54	3921.9	
286.75	6085.2	
286.96	5411.4	
287.17	3616	
287.38	4911.7	
287.59	5163.6	
287.8	5063.9	
288.01	3967.6	
288.22	4570.4	
288.43	6155.5	
288.64	5049.6	
288.85	4760.8	
289.06	4518.5	
289.27	6062.7	
289.48	6625.9	
289.69	4997.7	
289.9	4507.6	
290.11	6335.7	
290.32	5235.3	
290.53	4824.3	
290.74	4365.6	
290.94	6025.1	
291.15	6164.4	
291.36	3837.9	
291.57	4523.3	
291.78	5315.2	
291.99	4941.7	
292.2	3591.5	
292.41	4481.6	
292.62	6080.4	
292.83	5940.5	
293.04	5509	
293.25	3712.3	
293.46	5348.6	
293.67	6193.1	
293.88	3848.1	
294.09	3661.8	
294.29	5063.9	
294.5	5711.1	
294.71	4072.7	
294.92	3847.5	
295.13	5326.1	
295.34	6696.9	
295.55	3418.7	
295.76	3482.9	
295.97	5997.8	
296.18	6817.7	
296.39	3570.3	
296.6	3830.4	
296.81	5694.7	
297.01	6003.3	
297.22	3945.8	
297.43	3744.4	
297.64	5173.2	
297.85	5180.7	
298.06	3082.2	
298.27	3362.1	
298.48	5651	
298.69	5240.8	
298.9	4052.2	
299.11	3732.8	
299.31	4984.8	
299.52	5099.4	
299.73	4410.6	
299.94	4334.9	
300.15	5531.6	
300.36	5139.7	
300.57	4385.4	
300.78	4343.7	
300.99	5438	
301.2	5733.6	
301.4	3734.8	
301.61	4100	
301.82	5904.3	
302.03	5977.3	
302.24	4616.8	
302.45	3612.6	
302.66	5896.1	
302.87	6380.8	
303.08	3731.4	
303.29	5171.8	
303.49	5284.4	
303.7	5638.7	
303.91	3345.7	
304.12	4909	
304.33	5047.6	
304.54	5653.1	
304.75	3820.8	
304.96	3659	
305.16	5926.8	
305.37	6684.6	
305.58	3273.3	
305.79	3417.4	
306	5960.3	
306.21	4949.3	
306.42	3797.6	
306.63	5831.9	
306.83	5423	
307.04	6216.3	
307.25	4205.8	
307.46	4210.6	
307.67	4681	
307.88	6042.2	
308.09	3732.8	
308.29	3927.3	
308.5	5655.1	
308.71	6232.7	
308.92	4044.7	
309.13	3631	
309.34	5384.1	
309.55	5496.7	
309.75	4736.3	
309.96	4352.6	
310.17	6014.2	
310.38	5305.6	
310.59	4605.2	
310.8	3569.6	
311.01	5382.1	
311.21	5410.7	
311.42	3599	
311.63	3730.7	
311.84	5327.4	
312.05	5705.6	
312.26	4243.4	
312.46	4544.4	
312.67	5419.6	
312.88	5122	
313.09	3678.2	
313.3	3561.4	
313.51	6433.4	
313.71	6792.4	
313.92	3661.1	
314.13	3868.6	
314.34	5776.6	
314.55	5418.2	
314.76	4805.9	
314.96	4107.5	
315.17	5627.1	
315.38	6042.9	
315.59	3585.3	
315.8	3459	
316.01	6527.6	
316.21	6574.7	
316.42	3524.6	
316.63	4010.6	
316.84	5455.1	
317.05	6312.5	
317.26	4356	
317.46	3809.9	
317.67	5470.1	
317.88	5921.4	
318.09	4663.9	
318.3	3351.8	
318.5	5292	
318.71	5954.8	
318.92	5978.7	
319.13	4339	
319.34	6062.7	
319.54	6271.6	
319.75	3375.7	
319.96	3263.8	
320.17	5983.5	
320.38	6251.8	
320.58	3396.9	
320.79	4043.4	
321	6133	
321.21	6242.2	
321.42	4066.6	
321.62	3310.2	
321.83	5145.9	
322.04	5576.6	
322.25	3857	
322.46	3665.9	
322.66	5714.5	
322.87	5857.2	
323.08	4567	
323.29	3637.9	
323.5	6729.6	
323.7	5125.4	
323.91	5051.7	
324.12	4492.6	
324.33	5610.1	
324.53	5949.3	
324.74	4369	
324.95	4549.9	
325.16	4925.4	
325.37	5383.4	
325.57	3727.3	
325.78	3733.4	
325.99	5622.4	
326.2	4999.8	
326.4	5260.5	
326.61	3420.1	
326.82	5466.7	
327.03	5648.3	
327.24	5267.4	
327.44	5018.9	
327.65	5849	
327.86	4672.8	
328.07	4325.3	
328.27	3493.8	
328.48	6284.5	
328.69	5124.7	
328.9	5343.2	
329.1	3960.1	
329.31	5494.7	
329.52	6458.6	
329.73	3665.9	
329.93	4137.6	
330.14	5595.7	
330.35	5877	
330.56	6062.7	
330.76	4511	
330.97	5335	
331.18	5757.5	
331.39	4117.8	
331.59	3338.2	
331.8	6179.4	
332.01	6337.1	
332.22	3788.1	
332.42	4375.1	
332.63	5694.7	
332.84	5271.5	
333.05	4087.1	
333.25	3769.6	
333.46	5335	
333.67	5593.7	
333.88	3796.9	
334.08	4296.6	
334.29	7651.2	
334.5	6341.9	
334.7	3558.7	
334.91	5323.4	
335.12	5114.5	
335.33	6026.5	
335.53	4050.9	
335.74	6068.8	
335.95	5360.2	
336.16	5170.4	
336.36	4052.2	
336.57	4726.7	
336.78	5036.6	
336.98	6178	
337.19	5022.3	
337.4	4020.8	
337.61	6751.5	
337.81	5076.2	
338.02	3733.4	
338.23	4887.1	
338.43	6356.9	
338.64	5197.7	
338.85	3718.4	
339.05	4851.6	
339.26	6463.4	
339.47	4973.2	
339.68	3678.2	
339.88	5533.6	
340.09	5810.1	
340.3	6135	
340.5	4336.2	
340.71	3312.9	
340.92	5029.1	
341.13	6351.4	
341.33	3564.8	
341.54	4391.5	
341.75	5849.7	
341.95	5391.6	
342.16	4140.3	
342.37	4503.5	
342.57	5143.8	
342.78	5560.9	
342.99	4645.5	
343.19	3304.1	
343.4	6006	
343.61	5848.3	
343.81	3941	
344.02	3637.2	
344.23	6044.2	
344.43	6437.4	
344.64	4573.8	
344.85	4488.5	
345.06	5795.8	
345.26	6255.9	
345.47	4201.7	
345.68	4949.9	
345.88	4873.5	
346.09	6111.8	
346.3	4379.2	
346.5	3239.9	
346.71	5602.6	
346.92	5240.1	
347.12	3297.2	
347.33	4214.7	
347.54	6173.9	
347.74	6594.5	
347.95	4231.1	
348.16	3143.6	
348.36	5304.2	
348.57	5195.7	
348.78	4121.2	
348.98	4554	
349.19	5545.9	
349.39	5022.3	
349.6	3358.7	
349.81	3736.9	
350.01	5799.2	
350.22	5225.1	
350.43	4020.2	
350.63	4935.6	
350.84	5623.7	
351.05	5304.9	
351.25	3654.9	
351.46	3314.3	
351.67	6176.7	
351.87	5245.5	
352.08	3952.6	
352.29	4517.8	
352.49	6055.8	
352.7	5713.2	
352.9	3552.5	
353.11	4490.5	
353.32	6748.7	
353.52	5363.6	
353.73	3508.9	
353.94	4536.3	
354.14	5831.2	
354.35	5656.5	
354.55	3610.6	
354.76	4058.4	
354.97	5769.8	
355.17	5642.8	
355.38	3355.3	
355.59	4756.1	
355.79	5173.2	
356	5601.2	
356.2	4057	
356.41	3422.2	
356.62	4887.1	
356.82	5475.6	
357.03	4321.2	
357.24	3839.9	
357.44	5215.5	
357.65	5381.4	
357.85	5231.2	
358.06	4057.7	
358.27	4906.3	
358.47	5200.5	
358.68	3276.7	
358.88	4265.2	
359.09	5724.1	
359.3	6228.6	
359.5	5042.8	
359.71	4368.3	
359.91	6644.3	
360.12	5946.6	
360.33	4225	
360.53	4676.2	
360.74	5134.9	
360.94	5218.9	
361.15	4440	
361.36	3675.4	
361.56	5947.3	
361.77	5375.2	
361.97	4927.4	
362.18	3880.9	
362.38	6006	
362.59	4984.1	
362.8	3538.9	
363	3338.9	
363.21	4714.4	
363.41	5487.9	
363.62	3999.7	
363.83	5209.3	
364.03	5587.5	
364.24	6618.4	
364.44	5253	
364.65	5217.5	
364.85	5341.8	
365.06	4924	
365.27	3728.7	
365.47	3667.2	
365.68	6388.3	
365.88	5292	
366.09	4059.1	
366.29	3799	
366.5	5566.4	
366.71	6034	
366.91	5158.2	
367.12	4377.2	
367.32	6626.5	
367.53	5860.6	
367.73	4216.8	
367.94	5201.2	
368.14	5781.4	
368.35	6793.1	
368.56	4214.7	
368.76	3551.9	
368.97	5840.1	
369.17	7735.9	
369.38	3718.4	
369.58	3956.7	
369.79	4900.1	
369.99	6205.3	
370.2	5027.8	
370.4	4055.7	
370.61	5615.5	
370.82	6793.1	
371.02	3887	
371.23	3241.9	
371.43	4721.9	
371.64	6196.5	
371.84	3934.1	
372.05	5202.5	
372.25	7601.4	
372.46	5881.8	
372.66	3924.6	
372.87	3881.6	
373.07	5961	
373.28	7649.2	
373.48	5006.6	
373.69	4699.4	
373.9	5294	
374.1	5345.9	
374.31	4901.5	
374.51	4414.7	
374.72	6193.7	
374.92	5015.5	
375.13	5098.1	
375.33	4113.7	
375.54	5765.7	
375.74	5115.8	
375.95	4255	
376.15	5585.5	
376.36	5696.8	
376.56	5530.2	
376.77	4294.6	
376.97	4768.4	
377.18	6742.6	
377.38	5810.8	
377.59	5160.2	
377.79	3692.5	
378	5541.1	
378.2	6063.4	
378.41	3754.6	
378.61	3694.5	
378.82	5997.8	
379.02	5130.8	
379.23	3969.6	
379.43	5107.6	
379.64	6066.1	
379.84	5635.3	
380.05	3769.6	
380.25	3696.6	
380.46	5780.7	
380.66	5352	
380.87	5168.4	
381.07	5584.1	
381.28	6553.5	
381.48	5830.6	
381.69	3762.1	
381.89	3815.4	
382.1	4730.8	
382.3	6083.8	
382.51	4919.9	
382.71	5912.5	
382.91	5863.3	
383.12	6445.6	
383.32	4201.1	
383.53	4465.3	
383.73	5692.7	
383.94	5427.8	
384.14	4297.3	
384.35	3398.9	
384.55	5414.8	
384.76	5956.9	
384.96	4212.7	
385.17	4579.9	
385.37	5827.8	
385.58	5171.1	
385.78	4601.1	
385.98	3341.6	
386.19	5354.8	
386.39	5712.5	
386.6	3927.3	
386.8	4192.2	
387.01	5850.4	
387.21	5859.2	
387.42	4670.7	
387.62	5261.9	
387.83	5087.2	
388.03	5874.3	
388.23	4205.2	
388.44	4999.8	
388.64	4703.5	
388.85	4908.3	
389.05	4593.6	
389.26	5205.9	
389.46	6870.9	
389.67	6210.1	
389.87	4519.9	
390.07	4558.8	
390.28	5464.7	
390.48	4973.2	
390.69	3713	
390.89	4072.7	
391.1	5147.2	
391.3	6139.1	
391.5	5325.4	
391.71	6012.2	
391.91	5822.4	
392.12	6978.1	
392.32	5393.7	
392.53	4554	
392.73	5176.6	
392.93	5425.8	
393.14	4218.8	
393.34	5391.6	
393.55	5954.8	
393.75	5419.6	
393.95	4261.8	
394.16	4126	
394.36	5153.4	
394.57	5887.2	
394.77	3611.9	
394.98	4133.5	
395.18	5029.8	
395.38	5131.5	
395.59	4988.2	
395.79	3898	
396	5201.2	
396.2	5727.5	
396.4	4714.4	
396.61	4684.4	
396.81	5855.8	
397.02	5092.6	
397.22	4870.1	
397.42	5034.6	
397.63	5837.4	
397.83	4987.5	
398.04	3754.6	
398.24	4317.1	
398.44	5631.9	
398.65	4619.5	
398.85	3573	
399.05	3698.6	
399.26	4896.7	
399.46	6771.9	
399.67	4074.1	
399.87	3791.5	
400.07	5292	
400.28	5739.1	
400.48	3897.3	
400.69	4985.4	
400.89	5954.1	
401.09	6353.5	
401.3	3685	
401.5	4950.6	
401.7	6584.9	
401.91	6880.5	
402.11	4068.6	
402.32	4343.1	
402.52	5988.3	
402.72	5866.7	
402.93	4627	
403.13	3502.7	
403.33	6827.9	
403.54	5442.1	
403.74	4286.4	
403.94	5284.4	
404.15	5530.9	
404.35	6746	
404.56	4037.2	
404.76	6016.9	
404.96	5971.9	
405.17	5737	
405.37	5432.6	
405.57	4552.6	
405.78	5981.4	
405.98	5425.8	
406.18	4007.2	
406.39	5010.7	
406.59	5920.7	
406.79	5541.1	
407	3746.4	
407.2	3951.2	
407.4	5937.7	
407.61	6157.6	
407.81	3877.5	
408.01	6354.8	
408.22	4819.6	
408.42	6909.2	
408.62	4943.1	
408.83	4315.1	
409.03	5341.8	
409.23	5113.8	
409.44	4383.3	
409.64	4696	
409.84	6265.4	
410.05	6110.5	
410.25	4427.7	
410.45	4229.1	
410.66	5422.3	
410.86	8127.7	
411.06	4549.2	
411.27	4483.7	
411.47	7802.1	
411.67	5653.1	
411.88	4730.1	
412.08	4937.7	
412.28	6334.4	
412.49	6877.1	
412.69	4270	
412.89	4387.4	
413.09	6619.7	
413.3	6393.1	
413.5	4411.3	
413.7	3988.1	
413.91	5610.8	
414.11	6526.9	
414.31	4300.7	
414.52	4651.6	
414.72	6260.6	
414.92	6085.2	
415.12	4207.9	
415.33	4777.9	
415.53	6364.4	
415.73	6637.5	
415.94	5208.7	
416.14	4592.2	
416.34	5351.3	
416.55	4994.3	
416.75	5881.1	
416.95	5123.3	
417.15	6367.8	
417.36	7219.1	
417.56	6006.7	
417.76	5014.8	
417.97	6822.5	
418.17	6420.4	
418.37	4532.8	
418.57	4606.6	
418.78	6224.5	
418.98	5860.6	
419.18	5522.7	
419.38	5434.6	
419.59	5900.9	
419.79	5511.8	
419.99	4519.2	
420.2	4901.5	
420.4	6389.7	
420.6	6703	
420.8	4390.2	
421.01	4194.9	
421.21	6212.9	
421.41	6430.6	
421.61	4838	
421.82	4508.9	
422.02	5745.2	
422.22	6765.8	
422.42	5309	
422.63	5048.9	
422.83	5962.3	
423.03	7148.8	
423.23	5012.7	
423.44	3919.1	
423.64	5909.8	
423.84	5780.1	
424.04	4428.4	
424.25	4067.3	
424.45	7020.4	
424.65	6885.3	
424.85	3858.4	
425.06	4454.3	
425.26	6883.2	
425.46	5414.1	
425.66	5042.8	
425.87	4671.4	
426.07	6761	
426.27	6571.9	
426.47	4876.9	
426.67	4161.5	
426.88	7081.2	
427.08	6521.4	
427.28	5064.6	
427.48	4072.7	
427.69	5350.7	
427.89	6073.6	
428.09	5091.3	
428.29	4233.2	
428.5	6783.6	
428.7	6275.7	
428.9	3989.4	
429.1	4600.4	
429.3	6130.3	
429.51	6549.4	
429.71	4368.3	
429.91	5197.1	
430.11	6439.5	
430.31	6618.4	
430.52	4636.6	
430.72	5010.7	
430.92	7024.5	
431.12	6533.7	
431.32	4341	
431.53	4774.5	
431.73	5279	
431.93	7133.1	
432.13	4271.4	
432.33	4105.5	
432.54	5862	
432.74	6193.7	
432.94	3979.2	
433.14	5107.6	
433.34	6391	
433.55	5760.3	
433.75	5021.6	
433.95	6860.7	
434.15	6114.6	
434.35	5793	
434.56	4222.2	
434.76	3626.3	
434.96	6100.2	
435.16	6297.5	
435.36	4017.4	
435.56	5185.5	
435.77	5621	
435.97	5808.7	
436.17	5987.6	
436.37	5107.6	
436.57	5591.6	
436.78	5499.5	
436.98	7094.2	
437.18	5780.7	
437.38	6324.1	
437.58	5856.5	
437.78	5956.9	
437.99	4476.2	
438.19	6509.1	
438.39	7288.7	
438.59	4431.8	
438.79	3903.4	
438.99	7136.5	
439.2	5863.3	
439.4	3976.5	
439.6	4001.7	
439.8	6171.9	
440	7265.5	
440.2	5046.9	
440.4	5190.2	
440.61	6573.3	
440.81	7165.8	
441.01	4087.1	
441.21	5107.6	
441.41	6885.3	
441.61	6535.8	
441.81	5298.8	
442.02	6505	
442.22	7427.3	
442.42	6606.7	
442.62	4176.5	
442.82	4245.4	
443.02	6853.9	
443.22	5939.1	
443.43	4655.7	
443.63	4171	
443.83	5707.7	
444.03	5793	
444.23	5403.2	
444.43	4973.2	
444.63	6071.5	
444.83	7453.9	
445.04	4157.4	
445.24	5649.7	
445.44	6487.3	
445.64	6660.7	
445.84	5225.7	
446.04	5186.8	
446.24	5844.9	
446.44	6898.9	
446.65	4341.7	
446.85	4681	
447.05	6290	
447.25	6924.9	
447.45	4813.4	
447.65	4158.1	
447.85	6156.9	
448.05	5883.1	
448.25	5201.8	
448.46	5028.4	
448.66	6175.3	
448.86	5952.1	
449.06	3948.5	
449.26	5224.4	
449.46	6483.2	
449.66	5532.2	
449.86	4702.8	
450.06	4672.8	
450.26	5741.1	
450.47	6346	
450.67	5005.2	
450.87	5292	
451.07	6431.3	
451.27	6196.5	
451.47	4197	
451.67	4804.5	
451.87	5821.7	
452.07	7108.5	
452.27	4459.8	
452.47	4435.9	
452.67	6216.3	
452.88	6698.9	
453.08	3785.3	
453.28	5924.8	
453.48	7378.1	
453.68	6135.7	
453.88	4240	
454.08	4568.3	
454.28	6491.4	
454.48	6158.2	
454.68	5162.2	
454.88	5724.8	
455.08	6595.8	
455.28	6206.7	
455.48	4171	
455.68	4777.9	
455.89	7019.1	
456.09	6751.5	
456.29	4505.5	
456.49	4547.9	
456.69	6892.8	
456.89	6215.6	
457.09	5002.5	
457.29	5386.2	
457.49	6387.6	
457.69	6462.7	
457.89	4750.6	
458.09	4217.5	
458.29	6141.9	
458.49	6939.9	
458.69	5184.1	
458.89	4586.8	
459.09	7021.1	
459.29	7274.4	
459.49	4649.6	
459.69	5556.8	
459.9	6683.9	
460.1	6021.7	
460.3	4588.1	
460.5	4380.6	
460.7	6576.7	
460.9	6221.7	
461.1	3958.7	
461.3	5276.3	
461.5	7188.4	
461.7	6800.6	
461.9	4332.1	
462.1	4896.7	
462.3	6133	
462.5	6834.8	
462.7	4343.1	
462.9	4465.9	
463.1	7860.1	
463.3	7422.5	
463.5	4643.4	
463.7	5634.6	
463.9	6246.3	
464.1	6736.5	
464.3	4698	
464.5	4992.3	
464.7	6890	
464.9	6593.1	
465.1	6343.9	
465.3	5269.4	
465.5	7418.4	
465.7	7188.4	
465.9	5651	
466.1	5443.5	
466.3	7019.1	
466.5	6959	
466.7	6240.8	
466.9	5113.1	
467.1	6702.3	
467.3	7788.4	
467.5	6093.4	
467.7	4980.7	
467.9	8039.6	
468.1	8882	
468.3	5837.4	
468.5	6263.4	
468.7	6642.2	
468.9	6634.7	
469.1	5274.2	
469.3	5999.9	
469.5	8792.6	
469.7	6155.5	
469.9	5868.1	
470.1	5002.5	
470.3	6746	
470.5	6657.9	
470.7	6352.8	
470.9	5107.6	
471.1	6467.5	
471.3	7040.2	
471.5	4828.4	
471.69	7009.5	
471.89	6365.8	
472.09	5873.6	
472.29	5770.5	
472.49	6288.6	
472.69	6095.4	
472.89	6988.4	
473.09	4781.3	
473.29	5096	
473.49	6300.2	
473.69	6451.8	
473.89	6061.3	
474.09	5150.6	
474.29	7838.9	
474.49	7505.8	
474.69	5975.3	
474.89	5291.3	
475.09	6507.1	
475.29	6406	
475.49	4748.6	
475.69	4957.4	
475.88	8301.1	
476.08	6825.2	
476.28	4614.8	
476.48	5188.2	
476.68	7305.1	
476.88	7203.4	
477.08	5063.9	
477.28	5314.5	
477.48	6619.7	
477.68	7407.5	
477.88	4816.8	
478.08	5203.2	
478.28	7660.8	
478.48	6771.3	
478.67	5223.7	
478.87	4681.7	
479.07	7431.4	
479.27	6887.3	
479.47	5516.5	
479.67	5362.3	
479.87	7307.8	
480.07	7858.1	
480.27	4627.7	
480.47	6503	
480.67	7004.1	
480.87	7604.8	
481.06	5005.9	
481.26	5890.6	
481.46	6845.7	
481.66	6860	
481.86	5453.7	
482.06	6597.2	
482.26	6597.9	
482.46	7662.8	
482.66	5405.3	
482.86	4923.3	
483.05	6832.7	
483.25	6253.8	
483.45	7953.6	
483.65	5352.7	
483.85	6481.1	
484.05	6762.4	
484.25	5852.4	
484.45	6334.4	
484.65	7735.2	
484.84	7677.2	
485.04	5294	
485.24	5279.7	
485.44	7870.3	
485.64	6104.3	
485.84	4412.7	
486.04	5981.4	
486.24	6538.5	
486.44	6901	
486.63	4439.3	
486.83	5324	
487.03	6426.5	
487.23	6564.4	
487.43	4551.3	
487.63	7008.8	
487.83	6685.9	
488.02	7664.2	
488.22	5516.5	
488.42	6186.2	
488.62	7619.8	
488.82	6442.9	
489.02	5216.2	
489.22	5165	
489.41	7427.3	
489.61	7023.2	
489.81	4880.3	
490.01	4887.8	
490.21	7346.1	
490.41	8023.3	
490.61	4863.2	
490.8	4943.8	
491	6765.8	
491.2	6067.4	
491.4	5716.6	
491.6	4721.9	
491.8	6778.1	
491.99	7017.7	
492.19	4556.7	
492.39	4919.2	
492.59	7302.4	
492.79	7376.1	
492.99	5815.5	
493.18	4847.5	
493.38	7385	
493.58	8192.6	
493.78	5612.1	
493.98	5129.5	
494.18	7087.3	
494.37	6390.3	
494.57	5710.4	
494.77	5591.6	
494.97	7128.3	
495.17	7466.9	
495.37	5051	
495.56	5468.1	
495.76	7610.9	
495.96	7240.9	
496.16	6369.2	
496.36	5120.6	
496.55	7339.2	
496.75	6902.3	
496.95	5568.4	
497.15	5407.3	
497.35	7331.7	
497.54	7290.8	
497.74	5177.3	
497.94	6869.6	
498.14	8021.9	
498.34	7897	
498.53	4868.7	
498.73	5756.2	
498.93	6569.2	
499.13	7232.1	
499.33	5463.3	
499.52	6111.1	
499.72	7175.4	
499.92	7625.3	
500.12	5096.7	
500.32	5439.4	
500.51	7531.1	
500.71	7184.3	
500.91	6299.6	
501.11	5880.4	
501.31	7331	
501.5	7966.6	
501.7	6500.3	
501.9	5470.8	
502.1	7296.2	
502.29	7534.5	
502.49	5900.9	
502.69	6445.6	
502.89	7494.9	
503.09	7436.9	
503.28	4954.7	
503.48	5092.6	
503.68	6642.9	
503.88	6753.5	
504.07	6166.4	
504.27	5687.9	
504.47	7148.8	
504.67	7234.1	
504.86	6089.3	
505.06	5840.8	
505.26	6841.6	
505.46	8766	
505.65	5670.8	
505.85	5957.5	
506.05	6799.3	
506.25	7324.2	
506.44	4999.1	
506.64	6029.2	
506.84	6752.2	
507.04	7786.4	
507.23	5286.5	
507.43	5946.6	
507.63	8823.3	
507.83	6955.6	
508.02	5956.9	
508.22	5667.4	
508.42	9119.6	
508.62	6769.9	
508.81	5816.2	
509.01	6365.8	
509.21	6691.4	
509.4	6930.3	
509.6	6006.7	
509.8	5233.9	
510	6914.6	
510.19	8513.4	
510.39	5324.7	
510.59	5367	
510.79	6695.5	
510.98	8135.2	
511.18	5353.4	
511.38	5513.8	
511.57	7613	
511.77	7502.4	
511.97	6328.2	
512.17	5207.3	
512.36	7612.3	
512.56	7580.9	
512.76	5222.3	
512.95	5080.3	
513.15	7735.2	
513.35	6231.3	
513.55	6201.2	
513.74	5329.5	
513.94	7687.4	
514.14	6969.2	
514.33	6277.7	
514.53	5945.9	
514.73	6911.9	
514.92	7095.5	
515.12	5473.5	
515.32	5319.9	
515.51	7204.1	
515.71	7852.6	
515.91	7039.6	
516.11	5360.2	
516.3	8998.1	
516.5	6804	
516.7	5935	
516.89	6531.7	
517.09	6917.4	
517.29	6784.2	
517.48	6500.9	
517.68	5601.9	
517.88	6636.8	
518.07	7308.5	
518.27	6149.4	
518.47	5095.3	
518.66	7903.8	
518.86	6380.1	
519.06	4919.2	
519.25	5416.9	
519.45	6861.4	
519.65	8356.4	
519.84	6150.7	
520.04	6903	
520.24	8865	
520.43	7512.6	
520.63	5859.9	
520.83	5540.4	
521.02	6631.3	
521.22	7456	
521.42	6126.2	
521.61	6716	
521.81	6987.7	
522.01	7149.5	
522.2	5871.5	
522.4	5690.6	
522.6	7586.4	
522.79	6272.9	
522.99	5730.2	
523.18	4970.4	
523.38	7286.7	
523.58	7323.5	
523.77	7038.2	
523.97	4925.4	
524.17	9202.9	
524.36	8337.3	
524.56	6303	
524.76	5979.4	
524.95	7135.8	
525.15	6780.1	
525.34	5669.5	
525.54	5677	
525.74	7428.7	
525.93	6454.5	
526.13	6976.1	
526.33	5575.9	
526.52	7842.4	
526.72	7219.1	
526.91	6888.7	
527.11	6110.5	
527.31	7837.6	
527.5	8290.9	
527.7	5949.3	
527.89	4872.1	
528.09	6654.5	
528.29	7262.8	
528.48	6415.6	
528.68	6055.2	
528.87	7638.9	
529.07	7686	
529.27	5919.3	
529.46	5351.3	
529.66	7275.8	
529.85	7802.1	
530.05	5190.2	
530.25	6029.9	
530.44	8812.4	
530.64	7218.4	
530.83	5615.5	
531.03	5901.6	
531.23	7599.3	
531.42	7515.4	
531.62	6659.3	
531.81	5829.9	
532.01	7725.6	
532.21	8208.3	
532.4	5477.6	
532.6	5837.4	
532.79	8648.6	
532.99	7678.5	
533.18	5974.6	
533.38	6978.8	
533.58	7133.1	
533.77	8138.6	
533.97	5761.6	
534.16	6599.9	
534.36	8240.3	
534.55	7206.8	
534.75	6864.8	
534.95	5860.6	
535.14	8041	
535.34	7204.8	
535.53	5532.2	
535.73	7704.5	
535.92	8674.5	
536.12	7498.3	
536.31	5636.7	
536.51	6906.4	
536.71	7748.1	
536.9	7324.2	
537.1	5804.6	
537.29	6021	
537.49	8184.4	
537.68	7118.1	
537.88	6320.7	
538.07	5548.6	
538.27	7395.2	
538.46	8529.1	
538.66	5375.2	
538.86	5805.3	
539.05	7467.6	
539.25	7887.4	
539.44	6189.6	
539.64	5803.3	
539.83	7346.7	
540.03	8428.1	
540.22	5639.4	
540.42	5822.4	
540.61	7644.4	
540.81	7688.8	
541	6371.2	
541.2	6964.5	
541.39	7120.1	
541.59	7568.6	
541.78	6607.4	
541.98	5672.2	
542.18	6739.2	
542.37	6821.8	
542.57	6141.9	
542.76	6646.3	
542.96	6909.8	
543.15	7745.4	
543.35	6126.2	
543.54	5447.6	
543.74	8075.8	
543.93	7605.5	
544.13	6167.8	
544.32	7345.4	
544.52	7951.6	
544.71	7000.6	
544.91	5242.1	
545.1	6707.1	
545.3	7086.7	
545.49	7956.4	
545.69	5231.2	
545.88	5871.5	
546.08	8888.9	
546.27	8457.4	
546.47	6440.2	
546.66	5692	
546.86	8098.4	
547.05	8795.3	
547.24	5898.1	
547.44	5760.3	
547.63	6967.9	
547.83	8264.2	
548.02	6114.6	
548.22	6393.1	
548.41	6824.5	
548.61	8266.3	
548.8	5662	
549	5742.5	
549.19	7496.9	
549.39	7833.5	
549.58	5401.9	
549.78	6069.5	
549.97	7957	
550.17	7414.3	
550.36	6974	
550.55	8039	
550.75	7462.8	
550.94	8406.2	
551.14	5653.1	
551.33	6148.7	
551.53	6755.6	
551.72	7780.9	
551.92	6187.6	
552.11	5869.5	
552.31	7845.1	
552.5	8044.4	
552.69	7629.4	
552.89	5507	
553.08	7808.2	
553.28	7528.3	
553.47	5952.1	
553.67	7103	
553.86	8645.2	
554.06	6787	
554.25	5085.1	
554.44	5679.7	
554.64	9368.1	
554.83	8755.1	
555.03	5667.4	
555.22	6083.1	
555.42	8054	
555.61	7742.7	
555.8	5902.2	
556	6186.2	
556.19	6775.4	
556.39	8327	
556.58	5978.7	
556.78	5953.4	
556.97	7674.4	
557.16	7326.3	
557.36	7215.7	
557.55	5514.5	
557.75	6656.6	
557.94	8488.1	
558.13	5759.6	
558.33	5398.4	
558.52	8192.6	
558.72	7101.7	
558.91	5608.7	
559.1	5884.5	
559.3	6797.2	
559.49	6547.4	
559.69	5115.1	
559.88	6317.3	
560.07	7733.8	
560.27	8097	
560.46	6365.8	
560.66	6566.5	
560.85	7504.4	
561.04	6646.3	
561.24	5588.9	
561.43	5827.8	
561.63	6924.2	
561.82	7156.3	
562.01	7165.2	
562.21	6090	
562.4	7641.7	
562.59	8559.1	
562.79	5941.2	
562.98	5529.5	
563.18	7578.8	
563.37	9138.7	
563.56	6419	
563.76	5477	
563.95	6988.4	
564.14	6864.8	
564.34	5873.6	
564.53	5633.3	
564.73	7544	
564.92	7886	
565.11	6022.4	
565.31	5420.3	
565.5	8064.9	
565.69	7034.1	
565.89	5622.4	
566.08	5945.3	
566.27	8039.6	
566.47	8330.5	
566.66	6531.7	
566.85	5100.8	
567.05	7511.9	
567.24	6923.5	
567.44	5540.4	
567.63	6963.8	
567.82	7749.5	
568.02	7511.9	
568.21	5545.9	
568.4	5941.2	
568.6	7345.4	
568.79	7445.7	
568.98	5325.4	
569.18	5470.1	
569.37	7330.4	
569.56	9544.9	
569.76	5915.9	
569.95	6916.7	
570.14	7765.9	
570.34	7626.6	
570.53	5367.7	
570.72	5387.5	
570.91	8216.5	
571.11	7329	
571.3	5960.3	
571.49	6932.4	
571.69	7333.8	
571.88	6919.4	
572.07	6412.2	
572.27	6485.2	
572.46	6848.4	
572.65	7950.9	
572.85	5687.9	
573.04	6040.1	
573.23	8239	
573.43	7442.3	
573.62	5344.5	
573.81	6069.5	
574	7374.1	
574.2	7199.3	
574.39	5717.2	
574.58	5891.3	
574.78	8288.8	
574.97	7493.5	
575.16	6247	
575.36	6449.1	
575.55	7907.2	
575.74	8063.5	
575.93	5356.8	
576.13	6298.2	
576.32	7227.3	
576.51	7822.6	
576.71	5785.5	
576.9	7133.8	
577.09	8239.7	
577.28	7681.2	
577.48	6210.1	
577.67	5146.5	
577.86	7218.4	
578.05	7673.1	
578.25	5857.9	
578.44	6075.6	
578.63	7436.9	
578.83	8615.1	
579.02	5268.1	
579.21	6982.9	
579.4	7585.7	
579.6	7333.8	
579.79	6079.7	
579.98	8394.6	
580.17	8035.5	
580.37	8062.9	
580.56	5508.4	
580.75	6242.2	
580.94	8468.4	
581.14	8357.8	
581.33	6728.3	
581.52	5609.4	
581.71	7820.5	
581.91	8540.7	
582.1	5264.6	
582.29	5978.7	
582.48	7441.6	
582.68	7364.5	
582.87	6380.8	
583.06	5943.2	
583.25	7702.4	
583.45	7628	
583.64	6753.5	
583.83	7531.1	
584.02	7131.7	
584.21	7725.6	
584.41	6782.9	
584.6	5965.1	
584.79	7388.4	
584.98	8262.9	
585.18	5387.5	
585.37	5365	
585.56	6889.4	
585.75	7844.4	
585.94	5608	
586.14	6323.4	
586.33	8496.3	
586.52	7417.1	
586.71	6152.1	
586.91	5896.8	
587.1	6823.1	
587.29	7929.7	
587.48	5956.2	
587.67	5745.2	
587.87	7783	
588.06	7900.4	
588.25	7251.2	
588.44	6530.3	
588.63	7509.9	
588.83	8123.6	
589.02	5975.3	
589.21	5878.4	
589.4	7335.1	
589.59	7189.7	
589.78	5159.5	
589.98	5472.9	
590.17	6947.4	
590.36	7561.1	
590.55	4905.6	
590.74	5864.7	
590.94	9029.5	
591.13	7509.9	
591.32	5543.9	
591.51	5101.5	
591.7	8036.9	
591.89	7414.3	
592.09	5300.1	
592.28	5745.9	
592.47	6608.1	
592.66	8576.9	
592.85	5171.1	
593.05	5421	
593.24	7170.6	
593.43	7956.4	
593.62	5333.6	
593.81	5903.6	
594	7256	
594.19	7496.2	
594.39	5380.7	
594.58	5339.7	
594.77	7634.1	
594.96	8215.1	
595.15	5334.3	
595.34	6057.2	
595.54	7724.9	
595.73	6726.9	
595.92	4572.4	
596.11	5849	
596.3	8198.7	
596.49	6765.8	
596.68	5593.7	
596.88	6120	
597.07	7961.8	
597.26	6558.3	
597.45	5091.3	
597.64	6409.5	
597.83	6907.8	
598.02	7432.8	
598.22	5117.2	
598.41	5925.5	
598.6	7202.7	
598.79	6674.3	
598.98	5304.9	
599.17	6221.7	
599.36	7346.7	
599.55	8637	
599.74	7454.6	
599.94	7129.7	
600.13	7943.4	
600.32	6709.1	
600.51	4960.9	
600.7	5103.5	
600.89	8582.4	
601.08	8673.8	
601.27	4887.8	
601.47	5982.1	
601.66	7878.5	
601.85	8563.9	
602.04	5638.7	
602.23	6111.8	
602.42	6843.6	
602.61	7451.2	
602.8	5547.9	
602.99	5390.9	
603.18	7126.2	
603.37	7486	
603.57	5973.9	
603.76	6565.1	
603.95	8299.7	
604.14	7780.2	
604.33	5329.5	
604.52	5742.5	
604.71	7393.2	
604.9	7039.6	
605.09	6364.4	
605.28	6236.7	
605.47	7988.4	
605.66	7630	
605.86	6022.4	
606.05	5395	
606.24	8062.9	
606.43	6466.8	
606.62	5715.2	
606.81	6578.8	
607	7806.2	
607.19	7144	
607.38	5177.9	
607.57	5440.8	
607.76	6930.3	
607.95	6371.9	
608.14	5910.4	
608.33	6416.3	
608.52	6890	
608.72	7867.6	
608.91	5079.6	
609.1	4928.1	
609.29	7078.5	
609.48	6549.4	
609.67	6189	
609.86	5105.6	
610.05	6605.4	
610.24	7074.4	
610.43	4907.6	
610.62	4535.6	
610.81	8242.4	
611	7910.6	
611.19	5107	
611.38	5855.8	
611.57	7356.3	
611.76	8714.8	
611.95	4842.1	
612.14	4640.7	
612.33	7109.2	
612.52	6609.5	
612.71	5435.3	
612.9	4569	
613.09	6207.4	
613.28	8690.2	
613.47	5102.2	
613.66	6191.7	
613.85	7280.5	
614.04	6749.4	
614.24	5216.2	
614.43	4448.9	
614.62	7366.5	
614.81	7340.6	
615	5862	
615.19	5832.6	
615.38	6629.3	
615.57	7003.4	
615.76	5668.8	
615.95	6696.2	
616.14	7378.1	
616.33	7040.2	
616.52	6057.9	
616.71	6300.2	
616.9	7354.9	
617.09	7178.8	
617.28	5317.9	
617.47	6915.3	
617.66	6440.9	
617.85	6449.1	
618.04	6281.1	
618.22	5689.3	
618.41	6691.4	
618.6	7615	
618.79	5554.8	
618.98	5215.5	
619.17	7950.2	
619.36	6223.1	
619.55	5356.1	
619.74	5355.4	
619.93	7225.2	
620.12	6614.3	
620.31	6032	
620.5	6215.6	
620.69	7843	
620.88	8140.7	
621.07	6904.4	
621.26	5894.7	
621.45	7318.1	
621.64	7352.9	
621.83	5915.2	
622.02	5105.6	
622.21	7387	
622.4	7138.5	
622.59	6432.7	
622.78	6283.2	
622.97	6687.3	
623.16	7786.4	
623.35	5819	
623.54	4947.9	
623.72	6920.8	
623.91	7094.2	
624.1	6151.4	
624.29	4723.3	
624.48	8278.6	
624.67	7385.7	
624.86	6098.2	
625.05	5015.5	
625.24	8324.3	
625.43	6589	
625.62	7848.5	
625.81	5277.6	
626	7765.9	
626.19	6958.3	
626.38	6080.4	
626.56	5437.4	
626.75	6752.8	
626.94	7218.4	
627.13	6106.4	
627.32	4686.4	
627.51	7515.4	
627.7	8885.5	
627.89	4853	
628.08	6133	
628.27	6563.1	
628.46	6854.6	
628.65	5236	
628.83	4800.4	
629.02	7428.7	
629.21	6603.3	
629.4	5640.8	
629.59	5831.9	
629.78	6636.8	
629.97	7681.9	
630.16	5898.8	
630.35	5315.2	
630.54	8001.4	
630.72	7817.8	
630.91	5282.4	
631.1	6044.9	
631.29	7280.5	
631.48	7382.2	
631.67	6027.9	
631.86	5442.1	
632.05	6841.6	
632.24	6823.1	
632.42	5023	
632.61	5752.1	
632.8	6997.2	
632.99	6553.5	
633.18	5694	
633.37	6200.6	
633.56	7212.3	
633.75	7060	
633.93	5681.1	
634.12	5317.9	
634.31	8076.5	
634.5	7654.6	
634.69	5455.8	
634.88	5944.6	
635.07	6967.2	
635.25	7546.8	
635.44	6427.2	
635.63	6657.3	
635.82	6794.5	
636.01	6301.6	
636.2	6351.4	
636.39	5816.2	
636.57	8119.5	
636.76	7689.4	
636.95	5182	
637.14	6779.5	
637.33	7293.5	
637.52	8377.6	
637.7	4998.4	
637.89	5967.1	
638.08	6862.7	
638.27	8428.8	
638.46	6058.6	
638.65	6535.8	
638.83	8393.3	
639.02	6737.8	
639.21	6004.6	
639.4	6509.1	
639.59	7314.7	
639.78	6834.8	
639.96	5328.1	
640.15	5316.5	
640.34	7098.3	
640.53	7365.2	
640.72	5008	
640.91	5370.5	
641.09	6477.7	
641.28	7988.4	
641.47	5373.2	
641.66	6217	
641.85	7245.7	
642.03	7537.2	
642.22	6056.5	
642.41	5465.3	
642.6	6654.5	
642.79	6051.7	
642.97	5256.5	
643.16	6097.5	
643.35	6664.8	
643.54	6443.6	
643.73	5188.2	
643.91	6061.3	
644.1	6287.3	
644.29	6965.8	
644.48	5353.4	
644.67	5369.8	
644.85	6583.5	
645.04	6988.4	
645.23	4973.2	
645.42	5276.9	
645.6	6440.2	
645.79	7640.3	
645.98	5306.3	
646.17	4330.8	
646.36	6287.3	
646.54	6946.7	
646.73	6251.1	
646.92	4986.8	
647.11	6511.9	
647.29	7724.9	
647.48	4984.8	
647.67	4851.6	
647.86	7977.5	
648.05	8011	
648.23	5435.3	
648.42	6787	
648.61	7257.3	
648.8	6947.4	
648.98	4988.9	
649.17	5361.6	
649.36	6526.2	
649.55	5958.2	
649.73	5042.1	
649.92	5873.6	
650.11	6500.9	
650.3	6824.5	
650.48	5255.1	
650.67	4851	
650.86	7073	
651.05	5927.5	
651.23	5128.1	
651.42	5102.2	
651.61	6451.8	
651.79	6740.5	
651.98	5315.8	
652.17	4950.6	
652.36	7006.8	
652.54	6053.8	
652.73	5044.8	
652.92	4824.3	
653.11	7052.5	
653.29	7186.3	
653.48	4298.7	
653.67	5366.4	
653.85	6833.4	
654.04	7972.7	
654.23	5692.7	
654.42	5182.7	
654.6	6419	
654.79	7146	
654.98	4611.3	
655.16	5177.3	
655.35	6032	
655.54	5941.8	
655.73	4670.1	
655.91	4648.9	
656.1	7175.4	
656.29	5885.2	
656.47	4175.1	
656.66	5997.1	
656.85	6171.9	
657.03	6281.8	
657.22	4673.5	
657.41	4858.5	
657.59	6251.8	
657.78	6070.2	
657.97	4407.2	
658.16	5190.2	
658.34	6997.9	
658.53	7371.3	
658.72	6107.7	
658.9	6730.3	
659.09	6337.1	
659.28	6423.8	
659.46	4893.3	
659.65	4805.9	
659.84	6021.7	
660.02	6725.5	
660.21	4663.9	
660.4	4660.5	
660.58	7161.1	
660.77	6432.7	
660.96	5358.9	
661.14	4351.9	
661.33	7778.2	
661.52	7529	
661.7	4241.3	
661.89	8343.4	
662.08	6097.5	
662.26	5639.4	
662.45	4562.9	
662.64	4783.4	
662.82	6825.2	
663.01	5977.3	
663.2	4728.8	
663.38	5539.1	
663.57	6686.6	
663.75	6537.8	
663.94	5151.3	
664.13	6526.2	
664.31	6025.1	
664.5	6827.9	
664.69	5238	
664.87	5995.1	
665.06	5815.5	
665.25	6672.3	
665.43	6222.4	
665.62	6283.2	
665.8	6942.6	
665.99	6173.9	
666.18	5053	
666.36	5177.9	
666.55	6882.5	
666.74	6945.3	
666.92	4724	
667.11	6425.2	
667.29	6167.8	
667.48	6850.5	
667.67	6038.1	
667.85	5070.8	
668.04	6328.2	
668.22	6287.3	
668.41	5124	
668.6	5337	
668.78	6066.1	
668.97	6259.3	
669.15	5623	
669.34	4400.4	
669.53	6092	
669.71	6430.6	
669.9	4712.4	
670.08	5358.9	
670.27	6078.4	
670.46	6702.3	
670.64	5552.7	
670.83	5857.9	
671.01	6004.6	
671.2	6559	
671.38	4701.5	
671.57	4618.2	
671.76	7279.2	
671.94	7927.7	
672.13	4539	
672.31	5731.6	
672.5	6858	
672.69	6050.4	
672.87	4744.5	
673.06	5037.3	
673.24	6683.2	
673.43	6101.6	
673.61	5612.1	
673.8	5045.5	
673.98	6781.5	
674.17	7032	
674.36	5574.6	
674.54	5443.5	
674.73	6517.3	
674.91	6859.3	
675.1	5251	
675.28	4826.4	
675.47	6337.1	
675.65	6918	
675.84	4939	
676.03	5390.3	
676.21	6110.5	
676.4	5550.7	
676.58	5918.6	
676.77	5612.8	
676.95	7707.2	
677.14	6079.1	
677.32	4777.9	
677.51	4455.7	
677.69	6894.8	
677.88	5723.4	
678.06	4591.5	
678.25	4670.7	
678.44	6406	
678.62	6111.8	
678.81	4453.6	
678.99	5417.6	
679.18	7239.6	
679.36	6676.4	
679.55	4964.3	
679.73	5664.7	
679.92	6755.6	
680.1	6084.5	
680.29	6269.5	
680.47	5016.2	
680.66	6087.2	
680.84	6937.8	
681.03	4216.8	
681.21	5502.2	
681.4	6092	
681.58	6019.7	
681.77	4737	
681.95	4661.9	
682.14	6962.4	
682.32	7379.5	
682.51	5750.7	
682.69	4487.1	
682.88	6004	
683.06	6813.6	
683.25	5428.5	
683.43	5914.5	
683.62	6275.7	
683.8	6809.5	
683.99	6025.8	
684.17	5238.7	
684.36	7721.5	
684.54	6354.8	
684.73	4482.3	
684.91	4736.3	
685.1	6747.4	
685.28	6164.4	
685.46	5337.7	
685.65	5533.6	
685.83	6941.9	
686.02	6393.8	
686.2	4835.9	
686.39	4940.4	
686.57	6000.5	
686.76	7698.3	
686.94	4759.5	
687.13	4975.9	
687.31	6852.5	
687.5	6282.5	
687.68	4440.7	
687.86	5783.5	
688.05	8172.8	
688.23	5776	
688.42	5775.3	
688.6	4835.9	
688.79	6165.1	
688.97	6146.6	
689.16	5279	
689.34	4131.4	
689.52	6995.9	
689.71	7160.4	
689.89	5582.1	
690.08	4807.3	
690.26	6483.2	
690.45	6322.8	
690.63	5771.2	
690.81	4988.2	
691	6173.3	
691.18	6110.5	
691.37	5214.1	
691.55	7470.3	
691.74	6063.4	
691.92	8258.8	
692.1	5177.3	
692.29	4543.8	
692.47	6354.8	
692.66	5527.5	
692.84	4799.8	
693.02	5392.3	
693.21	5701.5	
693.39	6212.9	
693.58	5466.7	
693.76	4916.5	
693.94	7499	
694.13	7217.7	
694.31	4745.1	
694.5	5925.5	
694.68	6043.6	
694.86	6313.9	
695.05	5070.8	
695.23	5561.6	
695.42	6752.2	
695.6	9234.3	
695.78	5833.3	
695.97	4866.7	
696.15	6827.9	
696.34	6169.8	
696.52	4614.1	
696.7	5489.2	
696.89	6584.2	
697.07	5954.1	
697.25	5409.4	
697.44	7197.9	
697.62	6516.6	
697.81	6951.5	
697.99	5118.6	
698.17	5603.9	
698.36	5858.6	
698.54	6552.8	
698.72	5535.7	
698.91	4343.1	
699.09	6100.2	
699.28	6056.5	
699.46	5139	
699.64	5000.5	
699.83	5891.3	
700.01	7329.7	
700.19	5831.9	
700.38	4146.5	
700.56	7216.4	
700.74	5963	
700.93	4579.9	
701.11	5455.1	
701.29	6570.6	
701.48	7787.7	
701.66	4764.9	
701.84	4794.3	
702.03	6150.1	
702.21	6764.4	
702.39	4293.9	
702.58	4933.6	
702.76	6483.2	
702.94	6666.1	
703.13	4354	
703.31	6967.9	
703.49	5752.7	
703.68	6994.5	
703.86	4536.9	
704.04	5597.1	
704.23	6352.1	
704.41	6750.8	
704.59	4707.6	
704.78	6112.5	
704.96	7456	
705.14	6865.5	
705.33	4459.8	
705.51	5409.4	
705.69	6247	
705.87	7048.4	
706.06	5687.9	
706.24	4424.3	
706.42	6576.7	
706.61	6729.6	
706.79	5660.6	
706.97	4421.6	
707.16	5956.9	
707.34	6580.8	
707.52	5712.5	
707.7	4747.9	
707.89	6115.2	
708.07	5729.5	
708.25	5758.2	
708.44	5741.1	
708.62	6019	
708.8	7235.5	
708.98	5965.1	
709.17	4792.2	
709.35	6462	
709.53	6518	
709.72	4473.4	
709.9	4788.2	
710.08	6690.7	
710.26	6752.8	
710.45	6266.8	
710.63	4812.7	
710.81	6376	
710.99	6429.3	
711.18	5567.7	
711.36	5014.1	
711.54	6261.3	
711.72	7045	
711.91	5134.9	
712.09	4514.4	
712.27	6458.6	
712.45	7185	
712.64	5524.7	
712.82	4341.7	
713	5890.6	
713.18	6101.6	
713.37	4530.8	
713.55	5911.1	
713.73	7177.4	
713.91	5651.7	
714.1	5083.1	
714.28	4642.1	
714.46	6892.8	
714.64	6064.7	
714.83	4034.5	
715.01	5053	
715.19	6210.1	
715.37	5587.5	
715.55	4646.8	
715.74	5062.6	
715.92	7240.3	
716.1	5111.7	
716.28	6324.1	
716.47	5204.6	
716.65	5809.4	
716.83	5967.1	
717.01	5079.6	
717.19	5189.6	
717.38	8169.3	
717.56	5537.7	
717.74	5276.9	
717.92	4298	
718.1	6868.9	
718.29	6002.6	
718.47	3917.1	
718.65	4597	
718.83	6644.3	
719.01	6596.5	
719.2	3752.6	
719.38	4895.3	
719.56	6278.4	
719.74	7941.3	
719.92	4421.6	
720.11	5597.1	
720.29	6333.7	
720.47	5364.3	
720.65	4032.5	
720.83	4948.6	
721.02	5868.8	
721.2	5573.9	
721.38	5122.7	
721.56	4275.5	
721.74	5085.1	
721.92	5366.4	
722.11	5716.6	
722.29	5313.1	
722.47	6651.1	
722.65	5775.3	
722.83	4310.3	
723.01	5362.9	
723.2	5872.9	
723.38	6133	
723.56	3691.1	
723.74	5012.1	
723.92	5335.6	
724.1	6576.7	
724.29	4200.4	
724.47	5527.5	
724.65	5378	
724.83	5315.8	
725.01	4186	
725.19	5096	
725.37	5393	
725.56	5547.3	
725.74	3989.4	
725.92	4270	
726.1	5293.3	
726.28	5626.5	
726.46	4867.3	
726.64	4422.9	
726.83	5610.8	
727.01	5969.8	
727.19	3981.9	
727.37	4891.2	
727.55	5743.2	
727.73	6315.3	
727.91	3966.9	
728.09	3743	
728.28	6345.3	
728.46	6974	
728.64	4927.4	
728.82	4919.9	
729	7496.2	
729.18	6647.7	
729.36	4000.4	
729.54	6484.6	
729.72	7637.6	
729.91	5827.2	
730.09	6024.4	
730.27	4683	
730.45	5642.2	
730.63	6354.8	
730.81	5322	
730.99	4298	
731.17	6968.6	
731.35	5397.1	
731.53	4819.6	
731.71	4449.6	
731.9	6591.7	
732.08	6986.3	
732.26	4730.8	
732.44	4433.2	
732.62	6919.4	
732.8	6285.9	
732.98	5190.2	
733.16	4099.4	
733.34	6376.7	
733.52	5064.6	
733.7	4714.4	
733.88	5033.2	
734.07	6221.7	
734.25	5896.1	
734.43	4128	
734.61	5825.8	
734.79	7559.1	
734.97	5732.9	
735.15	4315.8	
735.33	4756.1	
735.51	6197.2	
735.69	5744.6	
735.87	5909.8	
736.05	4880.3	
736.23	5930.2	
736.41	5773.2	
736.59	4704.2	
736.77	4816.1	
736.95	6507.1	
737.13	5845.6	
737.32	4379.2	
737.5	4583.4	
737.68	7002	
737.86	5745.2	
738.04	4091.8	
738.22	6097.5	
738.4	5487.2	
738.58	5879.7	
738.76	4863.9	
738.94	3600.3	
739.12	5677.7	
739.3	5498.1	
739.48	5521.3	
739.66	5143.8	
739.84	5981.4	
740.02	5973.9	
740.2	3739.6	
740.38	4166.3	
740.56	6406	
740.74	5154.1	
740.92	4967.7	
741.1	4825	
741.28	5717.9	
741.46	5595.7	
741.64	4422.2	
741.82	4970.4	
742	5870.2	
742.18	5786.9	
742.36	4609.3	
742.54	4166.3	
742.72	6374.6	
742.9	5070.1	
743.08	5045.5	
743.26	3842.7	
743.44	6703	
743.62	6505.7	
743.8	5257.1	
743.98	4250.2	
744.16	6165.1	
744.34	5856.5	
744.52	5229.8	
744.7	5158.2	
744.88	6370.5	
745.06	5840.1	
745.24	5242.1	
745.42	5440.8	
745.6	6472.9	
745.78	6208.8	
745.96	4031.1	
746.14	4373.1	
746.32	7261.4	
746.5	6525.5	
746.68	5046.2	
746.86	4382.7	
747.03	7025.9	
747.21	5122.7	
747.39	4969.1	
747.57	4399.7	
747.75	6143.9	
747.93	6531.7	
748.11	4383.3	
748.29	4326	
748.47	7670.3	
748.65	5767.8	
748.83	5160.2	
749.01	4850.3	
749.19	6300.2	
749.37	5429.2	
749.55	4745.8	
749.73	4841.4	
749.91	5906.3	
750.09	5646.9	
750.26	4874.2	
750.44	4260.5	
750.62	6021	
750.8	5997.1	
750.98	4076.8	
751.16	4433.2	
751.34	6010.1	
751.52	5347.9	
751.7	5261.2	
751.88	4043.4	
752.06	6599.9	
752.24	6374	
752.42	3963.5	
752.59	4378.6	
752.77	5961.6	
752.95	7309.2	
753.13	5265.3	
753.31	4567.7	
753.49	5588.2	
753.67	6112.5	
753.85	4875.5	
754.03	4489.8	
754.21	6428.6	
754.38	6873.7	
754.56	4627	
754.74	3646.1	
754.92	5694	
755.1	6596.5	
755.28	3808.5	
755.46	3811.3	
755.64	7383.6	
755.82	7622.5	
755.99	4261.8	
756.17	4410.6	
756.35	4942.4	
756.53	6748.1	
756.71	3280.2	
756.89	4314.4	
757.07	6341.2	
757.25	5257.1	
757.42	4813.4	
757.6	5742.5	
757.78	6270.2	
757.96	5113.8	
758.14	4414.1	
758.32	3900	
758.5	4639.3	
758.67	5939.8	
758.85	4340.3	
759.03	4483.7	
759.21	5840.8	
759.39	5199.1	
759.57	3834.5	
759.75	5077.6	
759.92	6446.3	
760.1	5603.2	
760.28	5416.2	
760.46	5704.3	
760.64	5365	
760.82	5090.6	
760.99	5275.6	
761.17	4335.5	
761.35	6222.4	
761.53	5142.4	
761.71	4457.1	
761.89	5258.5	
762.06	6083.1	
762.24	5538.4	
762.42	4480.3	
762.6	4261.1	
762.78	5545.9	
762.96	6318.7	
763.13	4825	
763.31	4542.4	
763.49	6419.7	
763.67	5395	
763.85	5381.4	
764.02	6133	
764.2	6609.5	
764.38	5737	
764.56	4426.3	
764.74	5341.8	
764.91	6816.3	
765.09	5591	
765.27	4024.9	
765.45	3799	
765.63	6766.5	
765.8	6725.5	
765.98	3472	
766.16	3949.8	
766.34	5149.3	
766.52	4906.3	
766.69	4975.9	
766.87	3735.5	
767.05	5603.9	
767.23	6429.9	
767.41	4067.3	
767.58	4344.4	
767.76	6305	
767.94	6346	
768.12	4272.7	
768.29	5080.3	
768.47	5776	
768.65	6471.6	
768.83	3843.4	
769	5075.5	
769.18	5255.1	
769.36	6012.2	
769.54	5051	
769.72	3926.6	
769.89	6315.3	
770.07	6471.6	
770.25	4189.5	
770.43	5621	
770.6	7126.2	
770.78	7620.5	
770.96	4443.4	
771.14	5173.9	
771.31	6201.9	
771.49	5555.5	
771.67	3542.3	
771.85	3850.9	
772.02	4769	
772.2	5609.4	
772.38	4665.3	
772.55	4125.3	
772.73	5839.4	
772.91	5612.1	
773.09	4550.6	
773.26	4645.5	
773.44	5814.9	
773.62	5548.6	
773.8	4020.2	
773.97	3665.2	
774.15	5963	
774.33	5470.1	
774.5	3973.7	
774.68	4240.7	
774.86	6132.3	
775.04	5555.5	
775.21	4012.7	
775.39	4040	
775.57	5875.6	
775.74	6309.8	
775.92	3889.1	
776.1	3743.7	
776.27	5821	
776.45	7225.9	
776.63	4034.5	
776.81	3538.2	
776.98	5498.1	
777.16	6668.9	
777.34	4251.6	
777.51	4502.8	
777.69	5481	
777.87	5270.1	
778.04	4239.3	
778.22	4928.1	
778.4	5225.1	
778.57	5999.2	
778.75	3501.3	
778.93	3781.2	
779.1	5049.6	
779.28	4888.5	
779.46	3510.2	
779.64	4102.1	
779.81	6156.2	
779.99	7127.6	
780.17	4945.2	
780.34	5072.8	
780.52	5556.1	
780.69	5838.1	
780.87	4379.2	
781.05	3941	
781.22	5612.8	
781.4	5707	
781.58	4050.2	
781.75	3126.6	
781.93	5714.5	
782.11	5047.6	
782.28	5053	
782.46	4080.2	
782.64	4873.5	
782.81	5887.2	
782.99	4221.5	
783.17	4211.3	
783.34	5756.8	
783.52	4964.3	
783.69	4429.8	
783.87	5299.5	
784.05	5055.1	
784.22	5098.1	
784.4	5304.9	
784.58	4496	
784.75	6081.8	
784.93	5101.5	
785.1	4181.3	
785.28	4899.4	
785.46	5877.7	
785.63	5060.5	
785.81	4111.6	
785.99	3953.3	
786.16	5195	
786.34	5747.3	
786.51	4041.3	
786.69	4403.1	
786.87	4840.7	
787.04	5419.6	
787.22	3853.6	
787.39	4882.4	
787.57	5057.1	
787.75	6269.5	
787.92	5051	
788.1	5003.2	
788.27	5140.4	
788.45	4916.5	
788.63	4706.9	
788.8	3332.7	
788.98	5519.3	
789.15	4818.9	
789.33	3556	
789.5	4237.9	
789.68	6139.1	
789.86	6224.5	
790.03	4656.4	
790.21	4016.1	
790.38	6135.7	
790.56	5237.3	
790.73	3869.3	
790.91	3917.1	
791.09	5137	
791.26	5988.9	
791.44	4134.2	
791.61	3579.2	
791.79	5084.4	
791.96	5231.9	
792.14	3669.3	
792.32	3213.3	
792.49	5161.6	
792.67	5248.9	
792.84	3784.6	
793.02	3481.5	
793.19	5653.1	
793.37	6448.4	
793.54	3287.7	
793.72	3618.8	
793.89	6603.3	
794.07	5215.5	
794.25	4348.5	
794.42	3350.5	
794.6	6325.5	
794.77	5878.4	
794.95	4608.6	
795.12	4010.6	
795.3	5081.7	
795.47	5847.6	
795.65	4441.4	
795.82	4218.1	
796	4921.3	
796.17	7034.1	
796.35	4124.6	
796.52	4852.3	
796.7	5695.4	
796.87	5829.2	
797.05	5100.8	
797.22	5078.3	
797.4	5804.6	
797.57	6878.4	
797.75	4259.1	
797.92	3971.7	
798.1	6169.8	
798.27	5194.3	
798.45	3375.1	
798.62	3680.9	
798.8	5423.7	
798.97	6016.2	
799.15	4520.5	
799.32	4188.1	
799.5	4677.6	
799.67	5557.5	
799.85	4664.6	
800.02	3300.6	
800.2	5095.3	
800.37	5528.2	
800.55	4839.4	
800.72	4042	
800.9	5971.9	
801.07	6583.5	
801.25	5386.8	
801.42	4364.9	
801.6	5945.3	
801.77	5814.9	
801.95	4132.8	
802.12	3854.3	
802.29	5745.2	
802.47	5733.6	
802.64	4313.7	
802.82	3207.1	
802.99	5064.6	
803.17	6232.7	
803.34	4205.2	
803.52	3777.8	
803.69	6956.9	
803.87	4937	
804.04	4241.3	
804.21	4396.3	
804.39	6348	
804.56	5398.4	
804.74	3603.7	
804.91	4420.9	
805.09	5133.6	
805.26	5304.2	
805.44	3651.5	
805.61	4018.8	
805.78	5894.7	
805.96	5945.9	
806.13	4441.4	
806.31	4792.2	
806.48	4697.4	
806.66	5311.1	
806.83	4399.7	
807	4326	
807.18	5146.5	
807.35	5602.6	
807.53	4050.9	
807.7	3414.6	
807.87	6462.7	
808.05	5276.3	
808.22	4793.6	
808.4	3363.4	
808.57	5199.8	
808.74	4798.4	
808.92	3945.1	
809.09	5118.6	
809.27	5097.4	
809.44	5745.9	
809.61	3478.1	
809.79	3891.8	
809.96	6379.4	
810.14	6046.3	
810.31	3298.6	
810.48	4147.8	
810.66	5360.2	
810.83	6116.6	
811.01	3951.2	
811.18	4470	
811.35	5988.9	
811.53	4608.6	
811.7	4813.4	
811.87	4472.8	
812.05	5193.6	
812.22	5134.9	
812.39	3784.6	
812.57	3678.2	
812.74	5203.9	
812.92	7061.4	
813.09	4179.9	
813.26	4567.7	
813.44	6776	
813.61	5100.8	
813.78	3412.6	
813.96	4610.7	
814.13	5243.5	
814.3	4782	
814.48	5047.6	
814.65	4157.4	
814.82	6584.2	
815	5029.8	
815.17	4246.1	
815.34	5244.8	
815.52	5109.7	
815.69	5190.9	
815.87	4235.9	
816.04	4218.8	
816.21	5248.9	
816.38	4563.6	
816.56	4080.9	
816.73	3800.3	
816.9	6660	
817.08	6099.5	
817.25	3844.7	
817.42	4889.9	
817.6	4768.4	
817.77	5289.2	
817.94	4416.1	
818.12	3793.5	
818.29	4924	
818.46	7976.2	
818.64	3951.2	
818.81	3730	
818.98	4838	
819.16	7152.9	
819.33	4566.3	
819.5	4231.8	
819.67	5631.9	
819.85	6369.2	
820.02	4160.8	
820.19	4461.2	
820.37	5500.8	
820.54	5011.4	
820.71	4343.1	
820.88	5399.8	
821.06	5455.1	
821.23	4962.9	
821.4	4386.1	
821.58	4316.4	
821.75	6053.8	
821.92	5355.4	
822.09	3494.5	
822.27	3574.4	
822.44	5217.5	
822.61	5127.4	
822.79	3463.8	
822.96	6788.3	
823.13	5800.5	
823.3	4960.9	
823.48	4272.1	
823.65	3595.6	
823.82	5977.3	
823.99	4786.1	
824.17	5216.2	
824.34	3678.8	
824.51	6939.9	
824.68	5326.8	
824.86	3904.1	
825.03	4373.8	
825.2	5261.9	
825.37	6402	
825.55	3835.2	
825.72	4305.5	
825.89	7085.3	
826.06	6557.6	
826.24	4162.2	
826.41	4214.7	
826.58	6357.6	
826.75	5547.3	
826.92	3259.7	
827.1	3600.3	
827.27	8823.3	
827.44	7030.7	
827.61	3904.1	
827.79	4835.3	
827.96	4984.8	
828.13	5357.5	
828.3	4133.5	
828.47	3425.6	
828.65	5411.4	
828.82	5395.7	
828.99	5499.5	
829.16	4659.1	
829.34	5840.8	
829.51	5628.5	
829.68	4291.2	
829.85	4457.7	
830.02	6103.6	
830.2	5909.1	
830.37	3290.4	
830.54	5210.7	
830.71	6746.7	
830.88	5196.4	
831.05	3324.5	
831.23	3892.5	
831.4	6402	
831.57	7318.1	
831.74	4031.1	
831.91	3451.5	
832.09	5450.3	
832.26	5909.1	
832.43	4115.1	
832.6	4672.1	
832.77	5467.4	
832.94	6315.3	
833.12	3289	
833.29	4108.9	
833.46	5646.2	
833.63	7585.7	
833.8	4527.4	
833.97	4144.4	
834.15	5894.1	
834.32	5625.1	
834.49	4315.8	
834.66	4353.3	
834.83	6163.7	
835	4909.7	
835.17	3954.6	
835.35	3976.5	
835.52	5769.8	
835.69	5638.7	
835.86	4225	
836.03	3394.2	
836.2	5780.1	
836.37	5440.1	
836.55	4113.7	
836.72	3832.4	
836.89	5423	
837.06	6012.2	
837.23	4226.3	
837.4	4626.4	
837.57	6748.1	
837.75	7535.8	
837.92	3828.3	
838.09	4046.8	
838.26	5403.9	
838.43	6221	
838.6	4356.7	
838.77	3894.6	
838.94	7092.1	
839.11	6795.2	
839.29	4164.9	
839.46	3251.5	
839.63	5819.6	
839.8	5533.6	
839.97	3999.7	
840.14	3984	
840.31	5598.5	
840.48	5823.1	
840.65	3265.1	
840.82	3889.8	
841	5868.8	
841.17	5784.8	
841.34	3661.1	
841.51	3736.9	
841.68	5776.6	
841.85	5524.7	
842.02	3813.3	
842.19	3097.9	
842.36	5608	
842.53	5579.3	
842.7	3652.9	
842.87	4588.8	
843.05	7474.4	
843.22	5524.1	
843.39	3477.5	
843.56	3787.4	
843.73	5240.8	
843.9	5976	
844.07	6013.5	
844.24	5029.1	
844.41	8811.7	
844.58	5054.4	
844.75	3493.8	
844.92	3874.1	
845.09	5846.3	
845.26	5782.1	
845.43	3653.6	
845.6	3878.9	
845.77	5896.8	
845.94	5492	
846.12	4094.6	
846.29	4339.6	
846.46	6128.9	
846.63	5886.5	
846.8	3646.1	
846.97	4346.5	
847.14	6361	
847.31	5797.1	
847.48	4144.4	
847.65	4547.9	
847.82	6137.8	
847.99	6182.1	
848.16	4930.8	
848.33	4526.7	
848.5	5366.4	
848.67	6418.3	
848.84	3638.6	
849.01	3818.8	
849.18	5171.1	
849.35	4883	
849.52	4598.4	
849.69	3620.8	
849.86	6072.2	
850.03	6346	
850.2	3614.7	
850.37	4545.8	
850.54	6262.7	
850.71	5509	
850.88	4371.7	
851.05	3615.3	
851.22	5707.7	
851.39	6442.9	
851.56	3495.2	
851.73	4182	
851.9	5119.9	
852.07	6064	
852.24	4056.3	
852.41	3639.2	
852.58	5684.5	
852.75	5197.7	
852.92	4100	
853.09	3532.1	
853.26	5453.7	
853.43	6283.9	
853.6	3600.3	
853.77	3080.1	
853.94	6397.2	
854.11	5850.4	
854.28	5489.9	
854.44	3979.9	
854.61	6953.5	
854.78	6252.4	
854.95	3640.6	
855.12	4573.8	
855.29	4636.6	
855.46	6862.1	
855.63	3664.5	
855.8	5070.8	
855.97	5399.1	
856.14	6198.5	
856.31	5282.4	
856.48	3958	
856.65	5373.2	
856.82	5041.4	
856.99	3444.7	
857.16	3921.9	
857.33	7151.5	
857.49	5457.8	
857.66	3948.5	
857.83	4285	
858	5405.3	
858.17	5717.9	
858.34	3431	
858.51	3701.4	
858.68	6576	
858.85	6664.1	
859.02	4298	
859.19	4553.3	
859.36	5062.6	
859.52	5201.2	
859.69	3659	
859.86	4347.8	
860.03	5171.8	
860.2	6508.4	
860.37	3308.8	
860.54	3727.3	
860.71	6109.8	
860.88	6527.6	
861.05	4116.4	
861.21	4629.8	
861.38	6608.1	
861.55	4969.7	
861.72	3282.2	
861.89	4103.4	
862.06	6226.5	
862.23	6699.6	
862.4	3518.4	
862.56	3807.2	
862.73	5962.3	
862.9	5665.4	
863.07	4275.5	
863.24	3274.7	
863.41	5033.2	
863.58	5133.6	
863.75	3766.2	
863.91	4185.4	
864.08	6559	
864.25	6069.5	
864.42	4627.7	
864.59	5233.2	
864.76	6875	
864.93	5120.6	
865.09	3521.1	
865.26	3913.7	
865.43	6367.8	
865.6	6856.6	
865.77	3176.4	
865.94	3585.3	
866.1	6425.2	
866.27	6201.9	
866.44	5507	
866.61	3469.3	
866.78	5499.5	
866.95	6005.3	
867.11	3545	
867.28	3218	
867.45	6218.3	
867.62	5250.3	
867.79	4214	
867.96	3631	
868.12	5099.4	
868.29	6209.4	
868.46	3620.1	
868.63	4882.4	
868.8	6337.1	
868.97	6065.4	
869.13	3759.4	
869.3	3773.7	
869.47	5981.4	
869.64	6192.4	
869.81	3664.5	
869.97	3659.7	
870.14	5844.9	
870.31	6607.4	
870.48	3557.3	
870.65	4622.9	
870.81	5488.6	
870.98	5395	
871.15	4149.9	
871.32	3835.2	
871.48	5946.6	
871.65	6603.3	
871.82	3618.8	
871.99	3999	
872.16	7062.1	
872.32	6538.5	
872.49	3687	
872.66	3711.6	
872.83	6130.3	
872.99	5313.1	
873.16	4162.2	
873.33	3622.2	
873.5	5702.9	
873.67	5752.7	
873.83	3849.5	
874	4982	
874.17	5862	
874.34	7070.3	
874.5	4833.9	
874.67	4563.6	
874.84	6581.5	
875.01	5133.6	
875.17	5245.5	
875.34	3587.4	
875.51	5787.6	
875.68	7058	
875.84	4462.5	
876.01	5416.9	
876.18	6100.9	
876.34	5999.9	
876.51	3662.5	
876.68	3637.9	
876.85	5556.1	
877.01	6361	
877.18	5236.7	
877.35	3646.7	
877.52	5645.6	
877.68	5002.5	
877.85	3601.7	
878.02	3591.5	
878.18	5653.1	
878.35	5295.4	
878.52	2869.9	
878.69	4100.7	
878.85	6034	
879.02	6071.5	
879.19	5251.7	
879.35	3959.4	
879.52	5995.1	
879.69	6269.5	
879.86	3084.2	
880.02	4109.6	
880.19	5612.1	
880.36	6991.8	
880.52	4178.5	
880.69	4377.9	
880.86	6230.6	
881.02	6234	
881.19	4042.7	
881.36	4016.7	
881.52	6035.4	
881.69	5309	
881.86	3901.4	
882.02	3793.5	
882.19	6295.5	
882.36	7492.8	
882.52	3682.9	
882.69	5237.3	
882.86	5866.7	
883.02	5741.8	
883.19	4469.4	
883.36	4210.6	
883.52	6200.6	
883.69	7141.3	
883.86	3654.9	
884.02	3265.1	
884.19	6146.6	
884.36	5592.3	
884.52	4121.2	
884.69	3874.8	
884.86	5381.4	
885.02	6840.2	
885.19	4065.2	
885.36	4203.8	
885.52	5664	
885.69	5784.8	
885.86	5354.8	
886.02	4693.9	
886.19	6104.3	
886.35	5463.3	
886.52	4116.4	
886.69	5168.4	
886.85	5190.9	
887.02	6553.5	
887.19	6553.5	
887.35	6553.5	
887.52	6553.5	
887.68	6553.5	
887.85	6553.5	
888.02	6553.5	
888.18	6553.5	
888.35	6553.5	
888.51	6553.5	
888.68	6553.5	
888.85	6553.5	
889.01	6553.5	
889.18	6553.5	
889.35	6553.5	
889.51	6553.5	
889.68	6553.5	
889.84	6553.5	
890.01	6553.5	
890.17	6553.5	
890.34	6553.5	
890.51	6553.5	
890.67	6553.5	
890.84	6553.5	
891	6553.5	
891.17	6553.5	
891.34	6553.5	
891.5	6553.5	
891.67	6553.5	
891.83	6553.5	
892	6553.5	
892.16	6553.5	
892.33	6553.5	
892.5	6553.5	
892.66	6553.5	
892.83	6553.5	
892.99	6553.5	
893.16	6553.5	
893.32	6553.5	
893.49	6553.5	
893.65	6553.5	
893.82	6553.5	
893.99	6553.5	
894.15	6553.5	
894.32	6553.5	
894.48	6553.5	
894.65	6553.5	
894.81	6553.5	
894.98	6553.5	
895.14	6553.5	
895.31	6553.5	
895.47	6553.5	
895.64	6553.5	
895.81	6553.5	
895.97	6553.5	
896.14	6553.5	
896.3	6553.5	
896.47	6553.5	
896.63	6553.5	
896.8	6553.5	
896.96	6553.5	
897.13	6553.5	
897.29	6553.5	
897.46	6553.5	
897.62	6553.5	
897.79	6553.5	
897.95	6553.5	
898.12	6553.5	
898.28	6553.5	
898.45	6553.5	
898.61	6553.5	
898.78	6553.5	
898.94	6553.5	
899.11	6553.5	
899.27	6553.5	
899.44	6553.5	
899.6	6553.5	
899.77	6553.5	
899.93	6553.5	
900.1	6553.5	
900.26	6553.5	
900.43	6553.5	
900.59	6553.5	
900.76	6553.5	
900.92	6553.5	
901.09	6553.5	
901.25	6553.5	
901.42	6553.5	
901.58	6553.5	
901.75	6553.5	
901.91	6553.5	
902.07	6553.5	
902.24	6553.5	
902.4	6553.5	
902.57	6553.5	
902.73	6553.5	
902.9	6553.5	
903.06	6553.5	
903.23	6553.5	
903.39	6553.5	
903.56	6553.5	
903.72	6553.5	
903.88	6553.5	
904.05	6553.5	
904.21	6553.5	
904.38	6553.5	
904.54	6553.5	
904.71	6553.5	
904.87	6553.5	
905.03	6553.5	
905.2	6553.5	
905.36	6553.5	
905.53	6553.5	
905.69	6553.5	
905.86	6553.5	
906.02	6553.5	
906.18	6553.5	
906.35	6553.5	
906.51	6553.5	
906.68	6553.5	
906.84	6553.5	
907.01	6553.5	
907.17	6553.5	
907.33	6553.5	
907.5	6553.5	
907.66	6553.5	
907.83	6553.5	
907.99	6553.5	
908.15	6553.5	
908.32	6553.5	
908.48	6553.5	
908.65	6553.5	
908.81	6553.5	
908.97	6553.5	
909.14	6553.5	
909.3	6553.5	
909.47	6553.5	
909.63	6553.5	
909.79	6553.5	
909.96	6553.5	
910.12	6553.5	
910.28	6553.5	
910.45	6553.5	
910.61	6553.5	
910.78	6553.5	
910.94	6553.5	
911.1	6553.5	
911.27	6553.5	
911.43	6553.5	
911.59	6553.5	
911.76	6553.5	
911.92	6553.5	
912.08	6553.5	
912.25	6553.5	
912.41	6553.5	
912.57	6553.5	
912.74	6553.5	
912.9	6553.5	
913.07	6553.5	
913.23	6553.5	
913.39	6553.5	
913.56	6553.5	
913.72	6553.5	
913.88	6553.5	
914.05	6553.5	
914.21	6553.5	
914.37	6553.5	
914.54	6553.5	
914.7	6553.5	
914.86	6553.5	
915.03	6553.5	
915.19	6553.5	
