Wavelength	Intensities	
nm	a.u.	
179.22	1968.8	
179.44	1963.3	
179.65	1974.2	
179.86	1952.4	
180.08	1970.1	
180.29	5092.6	
180.51	3599	
180.72	5766.4	
180.94	6866.8	
181.15	3362.8	
181.37	3215.3	
181.58	5632.6	
181.79	5950	
182.01	3454.2	
182.22	3776.5	
182.44	5915.2	
182.65	4937.7	
182.87	4759.5	
183.08	4131.4	
183.29	6223.8	
183.51	5079	
183.72	3798.3	
183.94	5593.7	
184.15	5512.4	
184.37	5561.6	
184.58	3295.9	
184.79	4619.5	
185.01	5117.9	
185.22	5907	
185.44	4889.2	
185.65	4046.8	
185.86	5380	
186.08	4980	
186.29	3185.3	
186.51	3476.8	
186.72	5137	
186.94	6094.1	
187.15	4012.7	
187.36	4197.7	
187.58	8045.1	
187.79	5613.5	
188.01	4333.5	
188.22	6846.4	
188.43	6832.7	
188.65	5870.8	
188.86	3452.2	
189.08	4161.5	
189.29	5289.2	
189.5	5317.9	
189.72	3832.4	
189.93	4000.4	
190.15	6114.6	
190.36	7400	
190.57	4244.1	
190.79	4127.3	
191	6225.1	
191.22	6205.3	
191.43	4254.3	
191.64	3452.2	
191.86	6430.6	
192.07	6182.1	
192.29	3615.3	
192.5	3885	
192.71	6130.3	
192.93	5250.3	
193.14	3807.2	
193.35	3927.3	
193.57	5269.4	
193.78	6124.8	
194	3087.7	
194.21	3792.8	
194.42	5008.6	
194.64	5545.9	
194.85	4179.2	
195.07	4864.6	
195.28	5601.2	
195.49	4822.3	
195.71	5174.5	
195.92	3594.9	
196.13	5702.9	
196.35	5885.2	
196.56	5546.6	
196.78	4151.2	
196.99	7285.3	
197.2	6836.1	
197.42	4767	
197.63	4273.4	
197.84	4928.8	
198.06	5791.7	
198.27	3854.3	
198.48	5143.1	
198.7	5271.5	
198.91	5408	
199.13	4182	
199.34	4189.5	
199.55	5961.6	
199.77	4785.4	
199.98	3659.7	
200.19	4285	
200.41	5417.6	
200.62	5150	
200.83	4406.5	
201.05	4719.2	
201.26	5401.2	
201.47	5213.4	
201.69	3704.8	
201.9	3568.2	
202.11	5509	
202.33	6614.9	
202.54	3974.4	
202.76	4463.2	
202.97	5671.5	
203.18	5573.9	
203.4	4405.2	
203.61	4240.7	
203.82	5596.4	
204.04	5246.2	
204.25	4285	
204.46	4199	
204.68	5595.1	
204.89	5806.7	
205.1	4122.6	
205.32	3563.5	
205.53	5994.4	
205.74	6148.7	
205.96	2998.9	
206.17	4343.7	
206.38	5951.4	
206.6	6078.4	
206.81	4855.1	
207.02	3847.5	
207.24	5826.5	
207.45	6247.7	
207.66	4047.5	
207.88	3381.2	
208.09	5730.9	
208.3	5547.3	
208.52	3631.7	
208.73	4093.2	
208.94	5539.1	
209.15	6333.7	
209.37	4033.8	
209.58	4227	
209.79	6159.6	
210.01	5322	
210.22	3139.5	
210.43	3323.2	
210.65	5520	
210.86	5896.1	
211.07	4055	
211.29	3678.2	
211.5	5869.5	
211.71	5486.5	
211.93	3633.1	
212.14	3657.7	
212.35	5475.6	
212.56	5708.4	
212.78	4213.4	
212.99	3480.2	
213.2	6602	
213.42	5266	
213.63	3799.7	
213.84	4095.9	
214.06	4852.3	
214.27	4960.2	
214.48	3960.8	
214.69	4317.8	
214.91	6242.2	
215.12	6388.3	
215.33	4355.3	
215.55	4788.2	
215.76	6827.2	
215.97	5990.3	
216.18	4147.1	
216.4	4016.1	
216.61	5210.7	
216.82	6109.1	
217.04	3655.6	
217.25	3844.7	
217.46	6189.6	
217.67	6006	
217.89	3276.8	
218.1	3439.9	
218.31	5654.4	
218.53	5694	
218.74	3861.1	
218.95	3761.4	
219.16	5451.7	
219.38	6490	
219.59	3773.7	
219.8	4498	
220.01	7253.9	
220.23	5528.8	
220.44	4971.1	
220.65	3648.8	
220.87	5565	
221.08	6141.2	
221.29	3424.2	
221.5	4614.8	
221.72	7700.4	
221.93	5270.8	
222.14	4240	
222.35	5072.1	
222.57	5657.9	
222.78	5947.3	
222.99	4000.4	
223.2	4313.7	
223.42	5892.7	
223.63	6034.7	
223.84	3126.6	
224.05	3077.4	
224.27	7187	
224.48	6484.6	
224.69	4997	
224.9	4229.1	
225.12	5819.6	
225.33	5518.6	
225.54	3396.9	
225.75	3742.3	
225.97	5089.2	
226.18	5369.8	
226.39	4132.1	
226.6	3768.3	
226.82	5221.6	
227.03	5088.5	
227.24	4192.2	
227.45	3540.3	
227.67	5981.4	
227.88	6548	
228.09	4738.3	
228.3	4732.9	
228.52	6047.7	
228.73	5532.2	
228.94	3826.3	
229.15	3488.4	
229.36	5436.7	
229.58	5317.9	
229.79	3942.3	
230	4663.2	
230.21	6656.6	
230.43	5636	
230.64	4203.1	
230.85	4366.3	
231.06	5922.7	
231.28	6004.6	
231.49	3413.3	
231.7	4108.9	
231.91	5907	
232.12	5527.5	
232.34	3543.7	
232.55	4156.7	
232.76	6233.3	
232.97	5752.1	
233.18	3717.7	
233.4	4176.5	
233.61	5825.1	
233.82	5316.5	
234.03	3842.7	
234.25	3859.7	
234.46	7754.3	
234.67	5630.5	
234.88	4328	
235.09	3792.8	
235.31	5838.1	
235.52	5400.5	
235.73	4190.8	
235.94	3538.2	
236.15	5203.2	
236.37	6776.7	
236.58	3705.5	
236.79	4034.5	
237	5857.9	
237.21	5036	
237.43	4317.1	
237.64	3353.9	
237.85	10318	
238.06	5113.1	
238.27	4463.9	
238.48	3489.1	
238.7	5944.6	
238.91	5412.1	
239.12	4083.6	
239.33	4035.2	
239.54	5092.6	
239.76	5481.7	
239.97	4016.7	
240.18	4038.6	
240.39	7109.2	
240.6	5844.2	
240.82	4163.5	
241.03	3377.1	
241.24	5572.5	
241.45	6460.7	
241.66	3671.3	
241.87	4354	
242.09	6290.7	
242.3	6795.2	
242.51	4364.2	
242.72	4063.2	
242.93	6021.7	
243.14	5530.2	
243.36	4702.8	
243.57	5042.1	
243.78	6464.1	
243.99	5902.2	
244.2	4074.8	
244.41	3663.8	
244.63	5159.5	
244.84	5859.9	
245.05	4334.9	
245.26	4037.2	
245.47	5836.7	
245.68	6153.5	
245.9	5427.8	
246.11	4235.2	
246.32	5390.3	
246.53	5838.8	
246.74	6592.4	
246.95	3401.7	
247.16	5031.9	
247.38	5541.8	
247.59	3365.5	
247.8	4022.2	
248.01	5252.4	
248.22	5468.1	
248.43	3637.2	
248.64	3958.7	
248.86	4906.9	
249.07	5256.5	
249.28	3500.7	
249.49	4186	
249.7	6101.6	
249.91	6292	
250.12	3341.6	
250.34	3431	
250.55	5698.1	
250.76	5555.5	
250.97	4219.5	
251.18	4272.1	
251.39	6243.6	
251.6	5781.4	
251.81	4330.8	
252.03	4281.6	
252.24	5309.7	
252.45	6107.7	
252.66	3510.9	
252.87	4481	
253.08	5627.1	
253.29	7367.9	
253.5	3481.5	
253.72	4947.9	
253.93	5378	
254.14	6655.2	
254.35	3799.7	
254.56	3972.4	
254.77	5809.4	
254.98	5132.9	
255.19	3772.4	
255.41	4959.5	
255.62	5595.7	
255.83	6185.5	
256.04	4356	
256.25	4144.4	
256.46	6918.7	
256.67	5190.9	
256.88	4189.5	
257.09	4706.9	
257.31	5193	
257.52	5248.3	
257.73	5200.5	
257.94	3803.1	
258.15	5330.2	
258.36	5651.7	
258.57	4840	
258.78	3013.2	
258.99	6093.4	
259.2	5381.4	
259.41	3852.9	
259.63	3949.8	
259.84	6440.2	
260.05	6980.2	
260.26	5164.3	
260.47	3934.8	
260.68	6107	
260.89	5483.1	
261.1	4686.4	
261.31	3633.8	
261.52	6118	
261.73	6632.7	
261.95	4995	
262.16	4384.7	
262.37	6317.3	
262.58	6412.2	
262.79	5010	
263	3962.8	
263.21	5535.7	
263.42	5012.7	
263.63	4012	
263.84	3837.2	
264.05	6110.5	
264.26	6594.5	
264.47	4855.1	
264.69	4415.4	
264.9	6257.2	
265.11	5787.6	
265.32	3722.5	
265.53	3814.7	
265.74	5728.9	
265.95	4932.2	
266.16	4101.4	
266.37	4584.7	
266.58	5618.3	
266.79	5410.7	
267	3831.1	
267.21	3544.4	
267.42	5089.2	
267.63	5492.7	
267.84	3969	
268.06	3389.4	
268.27	5927.5	
268.48	6318	
268.69	3924.6	
268.9	4723.3	
269.11	6274.3	
269.32	5034.6	
269.53	4080.2	
269.74	3763.5	
269.95	5973.9	
270.16	4867.3	
270.37	4090.5	
270.58	4747.2	
270.79	5332.9	
271	6107	
271.21	4375.8	
271.42	4101.4	
271.63	5702.2	
271.84	5226.4	
272.05	3206.4	
272.26	3633.1	
272.47	5576.6	
272.68	5758.2	
272.89	3894.6	
273.11	4505.5	
273.32	5404.6	
273.53	6584.9	
273.74	4351.3	
273.95	4259.1	
274.16	6234	
274.37	5674.2	
274.58	4477.5	
274.79	3555.3	
275	5670.8	
275.21	6285.2	
275.42	5382.1	
275.63	4577.9	
275.84	5791.7	
276.05	7400.7	
276.26	4231.1	
276.47	3977.8	
276.68	5322.7	
276.89	6619.7	
277.1	4614.8	
277.31	3550.5	
277.52	5922.7	
277.73	5939.8	
277.94	3452.9	
278.15	3902.1	
278.36	5741.8	
278.57	5181.4	
278.78	3855.6	
278.99	4386.7	
279.2	5160.2	
279.41	5094	
279.62	5137.7	
279.83	3611.9	
280.04	6809.5	
280.25	5072.1	
280.46	5137	
280.67	4058.4	
280.88	5141.8	
281.09	6267.5	
281.3	4221.5	
281.51	5466	
281.72	5217.5	
281.93	6131.6	
282.14	3749.8	
282.35	4095.3	
282.56	6126.8	
282.77	6114.6	
282.98	3923.9	
283.19	4844.1	
283.4	7559.7	
283.61	5503.6	
283.82	3562.8	
284.03	5040.7	
284.24	5647.6	
284.45	6220.4	
284.66	5025	
284.87	4848.2	
285.08	6115.2	
285.29	6378.7	
285.5	3368.2	
285.71	3945.8	
285.92	6240.2	
286.12	6899.6	
286.33	4976.6	
286.54	3867.2	
286.75	6141.9	
286.96	5395	
287.17	3570.3	
287.38	4999.1	
287.59	5177.3	
287.8	5083.7	
288.01	3974.4	
288.22	4552	
288.43	6112.5	
288.64	5053.7	
288.85	4749.2	
289.06	4485.1	
289.27	6037.4	
289.48	6524.8	
289.69	5074.2	
289.9	4557.4	
290.11	6269.5	
290.32	5261.2	
290.53	4767.7	
290.74	4389.5	
290.94	6011.5	
291.15	6068.1	
291.36	3765.5	
291.57	4553.3	
291.78	5292.6	
291.99	4969.7	
292.2	3634.5	
292.41	4408.6	
292.62	6136.4	
292.83	5944.6	
293.04	5487.9	
293.25	3627.6	
293.46	5366.4	
293.67	6260.6	
293.88	3771	
294.09	3642.7	
294.29	5077.6	
294.5	5657.2	
294.71	4087.1	
294.92	3880.2	
295.13	5330.9	
295.34	6696.9	
295.55	3343.7	
295.76	3495.9	
295.97	5986.2	
296.18	6818.4	
296.39	3569.6	
296.6	3836.5	
296.81	5677.7	
297.01	5984.8	
297.22	3947.8	
297.43	3792.2	
297.64	5142.4	
297.85	5143.8	
298.06	3078.1	
298.27	3303.4	
298.48	5627.1	
298.69	5270.1	
298.9	4114.4	
299.11	3703.4	
299.31	5037.3	
299.52	5068	
299.73	4394.9	
299.94	4344.4	
300.15	5548.6	
300.36	5156.8	
300.57	4326.7	
300.78	4328.7	
300.99	5432.6	
301.2	5724.1	
301.4	3752.6	
301.61	4093.9	
301.82	5953.4	
302.03	5969.8	
302.24	4636.6	
302.45	3570.3	
302.66	5827.8	
302.87	6389	
303.08	3790.8	
303.29	5232.6	
303.49	5304.2	
303.7	5613.5	
303.91	3353.9	
304.12	4976.6	
304.33	5081.7	
304.54	5692	
304.75	3809.2	
304.96	3655.6	
305.16	5894.1	
305.37	6681.2	
305.58	3306.8	
305.79	3417.4	
306	5897.5	
306.21	4988.9	
306.42	3816	
306.63	5851	
306.83	5413.5	
307.04	6230.6	
307.25	4225.6	
307.46	4158.7	
307.67	4734.9	
307.88	6050.4	
308.09	3691.1	
308.29	3917.1	
308.5	5616.2	
308.71	6206.7	
308.92	4050.9	
309.13	3674.7	
309.34	5367	
309.55	5528.8	
309.75	4744.5	
309.96	4319.2	
310.17	6025.1	
310.38	5255.8	
310.59	4625.7	
310.8	4193.6	
311.01	5343.2	
311.21	5450.3	
311.42	3580.5	
311.63	3781.2	
311.84	5329.5	
312.05	5758.9	
312.26	4166.3	
312.46	4627.7	
312.67	5392.3	
312.88	5117.9	
313.09	3677.5	
313.3	3573	
313.51	6367.8	
313.71	6854.6	
313.92	3646.7	
314.13	3827.7	
314.34	5794.4	
314.55	5486.5	
314.76	4749.2	
314.96	4130.1	
315.17	5638.7	
315.38	6013.5	
315.59	3691.1	
315.8	3517	
316.01	6512.5	
316.21	6576	
316.42	3547.1	
316.63	4047.5	
316.84	5463.3	
317.05	6304.3	
317.26	4289.1	
317.46	3851.5	
317.67	5440.1	
317.88	5911.8	
318.09	4644.1	
318.3	3396.9	
318.5	5268.1	
318.71	5884.5	
318.92	6074.3	
319.13	4306.2	
319.34	6126.8	
319.54	6287.3	
319.75	3383.2	
319.96	3245.3	
320.17	5998.5	
320.38	6188.3	
320.58	3261	
320.79	4027.7	
321	6169.8	
321.21	6240.2	
321.42	4010.6	
321.62	3316.3	
321.83	5149.3	
322.04	5611.4	
322.25	3898.6	
322.46	3661.8	
322.66	5734.3	
322.87	5857.2	
323.08	4531.5	
323.29	3649.5	
323.5	6723.5	
323.7	5068.7	
323.91	5110.4	
324.12	4495.3	
324.33	5597.8	
324.53	5856.5	
324.74	4308.9	
324.95	4562.9	
325.16	4896.7	
325.37	5442.8	
325.57	3704.1	
325.78	3764.8	
325.99	5578	
326.2	5044.1	
326.4	5268.7	
326.61	3397.6	
326.82	5518.6	
327.03	5693.4	
327.24	5278.3	
327.44	4997	
327.65	5843.5	
327.86	4722.6	
328.07	4308.2	
328.27	3509.5	
328.48	6275.7	
328.69	5099.4	
328.9	5421	
329.1	3977.8	
329.31	5451	
329.52	6520	
329.73	3640.6	
329.93	4175.8	
330.14	5545.2	
330.35	5818.3	
330.56	6101.6	
330.76	4584	
330.97	5359.5	
331.18	5778	
331.39	4047.5	
331.59	3259.7	
331.8	6203.3	
332.01	6340.5	
332.22	3758.7	
332.42	4410	
332.63	5663.3	
332.84	5253.7	
333.05	4164.9	
333.25	3719.1	
333.46	5335	
333.67	5585.5	
333.88	3876.8	
334.08	4217.5	
334.29	7512.6	
334.5	6321.4	
334.7	3577.1	
334.91	5266.7	
335.12	5086.5	
335.33	5991	
335.53	4066.6	
335.74	6047.7	
335.95	5299.5	
336.16	5207.3	
336.36	4080.2	
336.57	4743.1	
336.78	5041.4	
336.98	6262.7	
337.19	5046.2	
337.4	4048.2	
337.61	6823.8	
337.81	5059.8	
338.02	3747.1	
338.23	4834.6	
338.43	6388.3	
338.64	5220.3	
338.85	3678.8	
339.05	4945.2	
339.26	6440.2	
339.47	4973.8	
339.68	3682.9	
339.88	5545.2	
340.09	5851.7	
340.3	6068.1	
340.5	4298.7	
340.71	3279.5	
340.92	5019.6	
341.13	6322.1	
341.33	3565.5	
341.54	4360.8	
341.75	5787.6	
341.95	5419.6	
342.16	4107.5	
342.37	4469.4	
342.57	5143.8	
342.78	5572.5	
342.99	4660.5	
343.19	3227.6	
343.4	5986.9	
343.61	5827.8	
343.81	3897.3	
344.02	3586.7	
344.23	6001.9	
344.43	6431.3	
344.64	4612.7	
344.85	4459.1	
345.06	5858.6	
345.26	6232.7	
345.47	4289.8	
345.68	5000.5	
345.88	4855.1	
346.09	6032	
346.3	4336.9	
346.5	3248.8	
346.71	5614.2	
346.92	5275.6	
347.12	3297.9	
347.33	4257.7	
347.54	6137.1	
347.74	6603.3	
347.95	4248.9	
348.16	3105.4	
348.36	5384.1	
348.57	5227.8	
348.78	4143.7	
348.98	4513.7	
349.19	5616.2	
349.39	4971.8	
349.6	3357.3	
349.81	3721.2	
350.01	5846.3	
350.22	5262.6	
350.43	4024.3	
350.63	4902.8	
350.84	5573.9	
351.05	5366.4	
351.25	3683.6	
351.46	3338.2	
351.67	6138.4	
351.87	5231.9	
352.08	3955.3	
352.29	4507.6	
352.49	6041.5	
352.7	5697.4	
352.9	3553.2	
353.11	4534.2	
353.32	6705.7	
353.52	5362.9	
353.73	3470.6	
353.94	4526.7	
354.14	5819.6	
354.35	5717.2	
354.55	3620.1	
354.76	4061.1	
354.97	5830.6	
355.17	5621	
355.38	3357.3	
355.59	4764.3	
355.79	5234.6	
356	5698.8	
356.2	4048.8	
356.41	3468.6	
356.62	4939.7	
356.82	5409.4	
357.03	4289.8	
357.24	3889.8	
357.44	5284.4	
357.65	5336.3	
357.85	5225.7	
358.06	4041.3	
358.27	4936.3	
358.47	5207.3	
358.68	3371.6	
358.88	4289.1	
359.09	5717.2	
359.3	6260	
359.5	5065.3	
359.71	4476.9	
359.91	6771.3	
360.12	5995.1	
360.33	4259.1	
360.53	4809.3	
360.74	5216.9	
360.94	5333.6	
361.15	4437.9	
361.36	3748.5	
361.56	6026.5	
361.77	5459.9	
361.97	4999.1	
362.18	3865.2	
362.38	6128.9	
362.59	5117.2	
362.8	3608.5	
363	3450.8	
363.21	4855.1	
363.41	5623.7	
363.62	4242.7	
363.83	5278.3	
364.03	5679.7	
364.24	6750.8	
364.44	5313.8	
364.65	5233.2	
364.85	5410.1	
365.06	5027.8	
365.27	3777.1	
365.47	3821.5	
365.68	6421.7	
365.88	5377.3	
366.09	4235.2	
366.29	3910.3	
366.5	5664	
366.71	6161	
366.91	5233.2	
367.12	4409.3	
367.32	6722.1	
367.53	5968.5	
367.73	4346.5	
367.94	5391.6	
368.14	5948.7	
368.35	6866.8	
368.56	4265.2	
368.76	4032.5	
368.97	6032	
369.17	7842.4	
369.38	3786	
369.58	4105.5	
369.79	5027.1	
369.99	6376.7	
370.2	5177.3	
370.4	4240.7	
370.61	5718.6	
370.82	6901.7	
371.02	4100.7	
371.23	3371	
371.43	4947.2	
371.64	6335.7	
371.84	4083	
372.05	5372.5	
372.25	7789.8	
372.46	6053.8	
372.66	4101.4	
372.87	4070	
373.07	6083.1	
373.28	7776.1	
373.48	5171.1	
373.69	4838	
373.9	5487.2	
374.1	5618.3	
374.31	5084.4	
374.51	4589.5	
374.72	6399.2	
374.92	5235.3	
375.13	5254.4	
375.33	4457.7	
375.54	5939.8	
375.74	5314.5	
375.95	4431.8	
376.15	5782.1	
376.36	5912.5	
376.56	5709.1	
376.77	4530.8	
376.97	5068.7	
377.18	7111.9	
377.38	5999.2	
377.59	5398.4	
377.79	4020.2	
378	5862	
378.2	6288.6	
378.41	4068.6	
378.61	3908.9	
378.82	6298.2	
379.02	5368.4	
379.23	4173.8	
379.43	5416.9	
379.64	6373.3	
379.84	6047	
380.05	4023.6	
380.25	3927.3	
380.46	6090	
380.66	5655.1	
380.87	5544.5	
381.07	5826.5	
381.28	6779.5	
381.48	6087.2	
381.69	4087.1	
381.89	4145.8	
382.1	4997.7	
382.3	6295.5	
382.51	5259.2	
382.71	6249	
382.91	6105	
383.12	6655.2	
383.32	4431.8	
383.53	4777.9	
383.73	5924.8	
383.94	5729.5	
384.14	4575.2	
384.35	3676.1	
384.55	5664	
384.76	6114.6	
384.96	4366.3	
385.17	4794.3	
385.37	6094.1	
385.58	5369.8	
385.78	4802.5	
385.98	3646.7	
386.19	5541.8	
386.39	5937.1	
386.6	4196.3	
386.8	4491.2	
387.01	6120.7	
387.21	6092	
387.42	4956.1	
387.62	5500.2	
387.83	5326.1	
388.03	6161.7	
388.23	4498.7	
388.44	5362.9	
388.64	5074.2	
388.85	5192.3	
389.05	4877.6	
389.26	5545.9	
389.46	7109.2	
389.67	6520	
389.87	4791.6	
390.07	4896.7	
390.28	5737	
390.48	5207.3	
390.69	4023.6	
390.89	4394.9	
391.1	5375.2	
391.3	6445.6	
391.5	5576.6	
391.71	6275.7	
391.91	6162.3	
392.12	7221.8	
392.32	5610.8	
392.53	4823	
392.73	5468.8	
392.93	5670.8	
393.14	4450.9	
393.34	5283.8	
393.55	6217	
393.75	5660.6	
393.95	4468.7	
394.16	4376.5	
394.36	5425.1	
394.57	6126.8	
394.77	3946.4	
394.98	4416.8	
395.18	5421	
395.38	5567.7	
395.59	5343.8	
395.79	4235.2	
396	5515.2	
396.2	6080.4	
396.4	5104.9	
396.61	4949.3	
396.81	6277	
397.02	5483.8	
397.22	5299.5	
397.42	5363.6	
397.63	6281.8	
397.83	5379.3	
398.04	4110.3	
398.24	4737	
398.44	5994.4	
398.65	5011.4	
398.85	3987.4	
399.05	4132.1	
399.26	5343.8	
399.46	7197.2	
399.67	4517.1	
399.87	4231.1	
400.07	5758.2	
400.28	6145.3	
400.48	4351.3	
400.69	5362.9	
400.89	6383.5	
401.09	6782.9	
401.3	4218.8	
401.5	5395	
401.7	7075.7	
401.91	7363.8	
402.11	4514.4	
402.32	4829.1	
402.52	6366.5	
402.72	6242.9	
402.93	4940.4	
403.13	3745.7	
403.33	7104.4	
403.54	5767.8	
403.74	4613.4	
403.94	5599.1	
404.15	5883.8	
404.35	7118.1	
404.56	4471.4	
404.76	6457.2	
404.96	6327.5	
405.17	6111.8	
405.37	6223.8	
405.57	5027.1	
405.78	6388.3	
405.98	5806.7	
406.18	4448.2	
406.39	5378	
406.59	6307.1	
406.79	5897.5	
407	4219.5	
407.2	4414.7	
407.4	6380.8	
407.61	6565.1	
407.81	4394.3	
408.01	6458.6	
408.22	5382.7	
408.42	7391.1	
408.62	5533.6	
408.83	4882.4	
409.03	5955.5	
409.23	5756.2	
409.44	5039.4	
409.64	5364.3	
409.84	6801.3	
410.05	6842.9	
410.25	5083.1	
410.45	4928.1	
410.66	6162.3	
410.86	8856.8	
411.06	5203.9	
411.27	5089.2	
411.47	8570.7	
411.67	6407.4	
411.88	5442.1	
412.08	5665.4	
412.28	7009.5	
412.49	7552.9	
412.69	5092.6	
412.89	5107.6	
413.09	7288.7	
413.3	7122.8	
413.5	5243.5	
413.7	4722.6	
413.91	6333.7	
414.11	7305.8	
414.31	5048.2	
414.52	5469.4	
414.72	6944	
414.92	6767.2	
415.12	5055.1	
415.33	5598.5	
415.53	7139.9	
415.73	7457.3	
415.94	5967.1	
416.14	5292.6	
416.34	6109.8	
416.55	5954.8	
416.75	6567.8	
416.95	5922	
417.15	7203.4	
417.36	8022.6	
417.56	6752.8	
417.76	5808.7	
417.97	7649.8	
418.17	7272.3	
418.37	5355.4	
418.57	5433.3	
418.78	6935.1	
418.98	6654.5	
419.18	6293.4	
419.38	6229.2	
419.59	6713.2	
419.79	6319.3	
419.99	5236.7	
420.2	5715.9	
420.4	7296.9	
420.6	7442.3	
420.8	5138.4	
421.01	4967	
421.21	7036.1	
421.41	7180.9	
421.61	5599.8	
421.82	5238	
422.02	6428.6	
422.22	7423.9	
422.42	6072.2	
422.63	5780.7	
422.83	6589	
423.03	7883.3	
423.23	5782.8	
423.44	4673.5	
423.64	6702.3	
423.84	6436.1	
424.04	5173.9	
424.25	4784.7	
424.45	7638.9	
424.65	7670.3	
424.85	4614.1	
425.06	5224.4	
425.26	7545.4	
425.46	6141.9	
425.66	5726.1	
425.87	5339.7	
426.07	7406.8	
426.27	7230	
426.47	5466	
426.67	4833.9	
426.88	7660.1	
427.08	7175.4	
427.28	5698.1	
427.48	4760.2	
427.69	5956.2	
427.89	6701.6	
428.09	5720.7	
428.29	4749.2	
428.5	7399.3	
428.7	6886.6	
428.9	4767	
429.1	5411.4	
429.3	6854.6	
429.51	7316.7	
429.71	5070.8	
429.91	5834	
430.11	7088	
430.31	7328.3	
430.52	5287.9	
430.72	5684.5	
430.92	7716.7	
431.12	7161.7	
431.32	5030.5	
431.53	5449	
431.73	5922.7	
431.93	7673.7	
432.13	4909	
432.33	4719.2	
432.54	6447	
432.74	6890	
432.94	4708.3	
433.14	5867.4	
433.34	6996.5	
433.55	6463.4	
433.75	5694.7	
433.95	7661.5	
434.15	6750.1	
434.35	6522.8	
434.56	4879.6	
434.76	4355.3	
434.96	6771.9	
435.16	6987.7	
435.36	4709	
435.56	5949.3	
435.77	6380.8	
435.97	6553.5	
436.17	6656.6	
436.37	5854.5	
436.57	6365.1	
436.78	6230.6	
436.98	7795.9	
437.18	6400.6	
437.38	6970.6	
437.58	6531.7	
437.78	6586.3	
437.99	5089.2	
438.19	7099.6	
438.39	7860.8	
438.59	5070.1	
438.79	4567	
438.99	7787.7	
439.2	6530.3	
439.4	4732.2	
439.6	4687.8	
439.8	6913.3	
440	8082	
440.2	5760.9	
440.4	5874.9	
440.61	7184.3	
440.81	7891.5	
441.01	4805.9	
441.21	5826.5	
441.41	7651.9	
441.61	7295.5	
441.81	6108.4	
442.02	7248.4	
442.22	8188.5	
442.42	7299	
442.62	4926	
442.82	4998.4	
443.02	7627.3	
443.22	6658.6	
443.43	5363.6	
443.63	4894.6	
443.83	6483.2	
444.03	6507.1	
444.23	6236.1	
444.43	5749.3	
444.63	6734.4	
444.83	8098.4	
445.04	4975.9	
445.24	6361	
445.44	7219.8	
445.64	7349.5	
445.84	5903.6	
446.04	5734.3	
446.24	6525.5	
446.44	7641.7	
446.65	5068	
446.85	5364.3	
447.05	6968.6	
447.25	7571.3	
447.45	5513.1	
447.65	4838.7	
447.85	6850.5	
448.05	6552.8	
448.25	5960.3	
448.46	5662.6	
448.66	6864.1	
448.86	6588.3	
449.06	4630.5	
449.26	5968.5	
449.46	7314	
449.66	6251.8	
449.86	5321.3	
450.06	5385.5	
450.26	6462	
450.47	6989	
450.67	5686.5	
450.87	6032	
451.07	7166.5	
451.27	6911.2	
451.47	4915.1	
451.67	5510.4	
451.87	6531	
452.07	7745.4	
452.27	5098.8	
452.47	5104.9	
452.67	6883.2	
452.88	7370.6	
453.08	4478.2	
453.28	6597.2	
453.48	8081.3	
453.68	6765.8	
453.88	4984.8	
454.08	5280.3	
454.28	7137.2	
454.48	6901.7	
454.68	5841.5	
454.88	6476.4	
455.08	7309.9	
455.28	7051.2	
455.48	4858.5	
455.68	5472.9	
455.89	7821.2	
456.09	7440.3	
456.29	5150.6	
456.49	5223.7	
456.69	7578.2	
456.89	6789.7	
457.09	5708.4	
457.29	6052.4	
457.49	7159.7	
457.69	7318.1	
457.89	5556.1	
458.09	4961.5	
458.29	6827.9	
458.49	7649.2	
458.69	5879	
458.89	5352	
459.09	7854.6	
459.29	7970.7	
459.49	5375.2	
459.69	6294.8	
459.9	7403.4	
460.1	6818.4	
460.3	5350.7	
460.5	5144.5	
460.7	7339.2	
460.9	6984.9	
461.1	4712.4	
461.3	6119.3	
461.5	8049.2	
461.7	7561.8	
461.9	5114.5	
462.1	5617.6	
462.3	7025.2	
462.5	7603.4	
462.7	5201.8	
462.9	5293.3	
463.1	8745.5	
463.3	8305.2	
463.5	5510.4	
463.7	6374.6	
463.9	7113.3	
464.1	7530.4	
464.3	5506.3	
464.5	5857.2	
464.7	7733.1	
464.9	7436.9	
465.1	7238.9	
465.3	6158.9	
465.5	8200.1	
465.7	8153.6	
465.9	6339.8	
466.1	6347.3	
466.3	7866.9	
466.5	7668.3	
466.7	7060	
466.9	5930.9	
467.1	7567.9	
467.3	8603.5	
467.5	7099.6	
467.7	5821.7	
467.9	8828.8	
468.1	9715.6	
468.3	6695.5	
468.5	7132.4	
468.7	7538.6	
468.9	7570	
469.1	6103.6	
469.3	6865.5	
469.5	9595.4	
469.7	7064.8	
469.9	6608.1	
470.1	5743.2	
470.3	7533.8	
470.5	7518.1	
470.7	7094.2	
470.9	5892	
471.1	7268.2	
471.3	7797.3	
471.5	5701.5	
471.69	7746.8	
471.89	7127.6	
472.09	6742.6	
472.29	6566.5	
472.49	7006.8	
472.69	6946.7	
472.89	7786.4	
473.09	5571.2	
473.29	5851.7	
473.49	7070.3	
473.69	7341.3	
473.89	6800.6	
474.09	5944.6	
474.29	8574.8	
474.49	8302.5	
474.69	6765.8	
474.89	6053.1	
475.09	7298.3	
475.29	7232.1	
475.49	5447.6	
475.69	5735.7	
475.88	9052	
476.08	7563.8	
476.28	5438	
476.48	5954.1	
476.68	8051.2	
476.88	7986.4	
477.08	5709.1	
477.28	6161.7	
477.48	7384.3	
477.68	8124.3	
477.88	5599.8	
478.08	5994.4	
478.28	8424.7	
478.48	7563.1	
478.67	5983.5	
478.87	5345.2	
479.07	8193.2	
479.27	7583.6	
479.47	6177.4	
479.67	6141.9	
479.87	7927.7	
480.07	8636.3	
480.27	5338.4	
480.47	7148.8	
480.67	7681.2	
480.87	8300.4	
481.06	5643.5	
481.26	6448.4	
481.46	7593.9	
481.66	7466.9	
481.86	6086.6	
482.06	7270.3	
482.26	7204.1	
482.46	8344.8	
482.66	6045.6	
482.86	5677.7	
483.05	7638.2	
483.25	6985.6	
483.45	8714.1	
483.65	6120	
483.85	7176.8	
484.05	7533.1	
484.25	6510.5	
484.45	6985.6	
484.65	8454.7	
484.84	8369.4	
485.04	6001.9	
485.24	5913.2	
485.44	8674.5	
485.64	6901	
485.84	5201.8	
486.04	6710.5	
486.24	7178.1	
486.44	7691.5	
486.63	5089.2	
486.83	6040.8	
487.03	7109.2	
487.23	7342	
487.43	5283.8	
487.63	7811.6	
487.83	7371.3	
488.02	8384.4	
488.22	6210.1	
488.42	6846.4	
488.62	8254.7	
488.82	7132.4	
489.02	5915.9	
489.22	5873.6	
489.41	8168.7	
489.61	7720.2	
489.81	5612.8	
490.01	5613.5	
490.21	8000.7	
490.41	8739.4	
490.61	5475.6	
490.8	5698.1	
491	7438.9	
491.2	6748.1	
491.4	6349.4	
491.6	5357.5	
491.8	7445	
491.99	7679.9	
492.19	5205.9	
492.39	5702.9	
492.59	8045.1	
492.79	8178.2	
492.99	6577.4	
493.18	5563	
493.38	8082.6	
493.58	8918.9	
493.78	6277	
493.98	5897.5	
494.18	7760.4	
494.37	7221.1	
494.57	6412.9	
494.77	6362.4	
494.97	7942	
495.17	8208.3	
495.37	5846.3	
495.56	6236.7	
495.76	8364.6	
495.96	8060.1	
496.16	7094.8	
496.36	5924.8	
496.55	8133.8	
496.75	7709.2	
496.95	6342.6	
497.15	6224.5	
497.35	8118.1	
497.54	8120.2	
497.74	5965.1	
497.94	7717.4	
498.14	8819.2	
498.34	8714.1	
498.53	5684.5	
498.73	6517.3	
498.93	7395.9	
499.13	8012.3	
499.33	6210.8	
499.52	6863.4	
499.72	7946.8	
499.92	8391.2	
500.12	5806	
500.32	6176.7	
500.51	8314.1	
500.71	7916.8	
500.91	6946.7	
501.11	6657.3	
501.31	8155	
501.5	8614.4	
501.7	7314.7	
501.9	6108.4	
502.1	7964.6	
502.29	8249.9	
502.49	6637.5	
502.69	7086.7	
502.89	8124.3	
503.09	8088.8	
503.28	5636.7	
503.48	5859.9	
503.68	7290.1	
503.88	7384.3	
504.07	6947.4	
504.27	6355.5	
504.47	7802.8	
504.67	7968.6	
504.86	6778.1	
505.06	6468.9	
505.26	7507.9	
505.46	9468.4	
505.65	6333.7	
505.85	6601.3	
506.05	7390.4	
506.25	7925.6	
506.44	5646.9	
506.64	6609.5	
506.84	7372.7	
507.04	8507.9	
507.23	5908.4	
507.43	6563.7	
507.63	9426.8	
507.83	7568.6	
508.02	6505.7	
508.22	6110.5	
508.42	9729.9	
508.62	7352.9	
508.81	6632	
509.01	7010.9	
509.21	7238.9	
509.4	7539.9	
509.6	6612.2	
509.8	5913.2	
510	7486	
510.19	9052	
510.39	5883.8	
510.59	5953.4	
510.79	7288	
510.98	8760.5	
511.18	6018.3	
511.38	6140.5	
511.57	8177.5	
511.77	8051.9	
511.97	6745.3	
512.17	5755.5	
512.36	8110.6	
512.56	8116.1	
512.76	5837.4	
512.95	5650.3	
513.15	8265.6	
513.35	6793.8	
513.55	6723.5	
513.74	5797.1	
513.94	8201.4	
514.14	7502.4	
514.33	6793.1	
514.53	6549.4	
514.73	7414.3	
514.92	7718.1	
515.12	5986.2	
515.32	5810.1	
515.51	7728.4	
515.71	8385.7	
515.91	7836.9	
516.11	5915.2	
516.3	9481.4	
516.5	7287.4	
516.7	6408.8	
516.89	7088.7	
517.09	7481.2	
517.29	7277.1	
517.48	6836.8	
517.68	6051.7	
517.88	7094.8	
518.07	7737.9	
518.27	6621.8	
518.47	5646.2	
518.66	8372.1	
518.86	7043	
519.06	5462.6	
519.25	5922.7	
519.45	7265.5	
519.65	8888.2	
519.84	6570.6	
520.04	7366.5	
520.24	9267.1	
520.43	7957.7	
520.63	6283.9	
520.83	6022.4	
521.02	7118.1	
521.22	7789.8	
521.42	6608.8	
521.61	7157.7	
521.81	7384.3	
522.01	7524.9	
522.2	6492.7	
522.4	6253.8	
522.6	8102.4	
522.79	6756.9	
522.99	6268.1	
523.18	5453.1	
523.38	7810.3	
523.58	7808.2	
523.77	7634.8	
523.97	5451	
524.17	9732.6	
524.36	8736	
524.56	6774.7	
524.76	6457.2	
524.95	7625.3	
525.15	7283.3	
525.34	6241.5	
525.54	6153.5	
525.74	8034.9	
525.93	6871.6	
526.13	7403.4	
526.33	6042.2	
526.52	8370	
526.72	7696.3	
526.91	7347.4	
527.11	6618.4	
527.31	8264.9	
527.5	8865.7	
527.7	6535.8	
527.89	5409.4	
528.09	7161.1	
528.29	7729.7	
528.48	6937.8	
528.68	6515.3	
528.87	8155	
529.07	8232.8	
529.27	6335.7	
529.46	5912.5	
529.66	7691.5	
529.85	8270.4	
530.05	5682.4	
530.25	6500.3	
530.44	9184.5	
530.64	7703.1	
530.83	6098.2	
531.03	6399.9	
531.23	8049.9	
531.42	8043.7	
531.62	7221.1	
531.81	6396.5	
532.01	8217.1	
532.21	8763.3	
532.4	5969.1	
532.6	6343.2	
532.79	9275.9	
532.99	8188.5	
533.18	6332.3	
533.38	7504.4	
533.58	7757.7	
533.77	8555.7	
533.97	6313.2	
534.16	7125.6	
534.36	8655.4	
534.55	7660.8	
534.75	7364.5	
534.95	6349.4	
535.14	8546.9	
535.34	7644.4	
535.53	5969.8	
535.73	8085.4	
535.92	9099.1	
536.12	7860.8	
536.31	6044.2	
536.51	7350.2	
536.71	8230.1	
536.9	7819.1	
537.1	6298.2	
537.29	6396.5	
537.49	8654.7	
537.68	7600.7	
537.88	6866.2	
538.07	5970.5	
538.27	7875.1	
538.46	8929.1	
538.66	5843.5	
538.86	6292	
539.05	7925.6	
539.25	8329.1	
539.44	6510.5	
539.64	6177.4	
539.83	7716.1	
540.03	8824.7	
540.22	6058.6	
540.42	6252.4	
540.61	8013.7	
540.81	8075.8	
541	6817.7	
541.2	7426.6	
541.39	7605.5	
541.59	8043.1	
541.78	7077.8	
541.98	6048.3	
542.18	7215	
542.37	7194.5	
542.57	6455.2	
542.76	7032.7	
542.96	7266.9	
543.15	8151.6	
543.35	6532.3	
543.54	5845.6	
543.74	8466.3	
543.93	7967.3	
544.13	6632.7	
544.32	7835.5	
544.52	8322.9	
544.71	7532.4	
544.91	5641.5	
545.1	7047.7	
545.3	7492.2	
545.49	8144.1	
545.69	5550.7	
545.88	6246.3	
546.08	9257.5	
546.27	8849.3	
546.47	6807.4	
546.66	6086.6	
546.86	8490.9	
547.05	9168.8	
547.24	6292	
547.44	6092	
547.63	7304.4	
547.83	8542.8	
548.02	6463.4	
548.22	6808.1	
548.41	7136.5	
548.61	8639.7	
548.8	6007.4	
549	5987.6	
549.19	7905.2	
549.39	8150.9	
549.58	5723.4	
549.78	6340.5	
549.97	8334.6	
550.17	7781.6	
550.36	7303.7	
550.55	8383.7	
550.75	7791.2	
550.94	8712.7	
551.14	6012.8	
551.33	6376.7	
551.53	7101.7	
551.72	8193.9	
551.92	6433.4	
552.11	6205.3	
552.31	8200.7	
552.5	8131.8	
552.69	7942.7	
552.89	5835.3	
553.08	8163.2	
553.28	7824.6	
553.47	6313.2	
553.67	7453.2	
553.86	8934.6	
554.06	7058.7	
554.25	5337.7	
554.44	6008.1	
554.64	9708.1	
554.83	9045.9	
555.03	5854.5	
555.22	6356.2	
555.42	8284.7	
555.61	8003.5	
555.8	6167.1	
556	6451.1	
556.19	7056.6	
556.39	8665	
556.58	6189	
556.78	6154.8	
556.97	7912.7	
557.16	7675.8	
557.36	7532.4	
557.55	5754.1	
557.75	6841.6	
557.94	8742.8	
558.13	5987.6	
558.33	5701.5	
558.52	8489.5	
558.72	7363.1	
558.91	5863.3	
559.1	6037.4	
559.3	6999.3	
559.49	6817.7	
559.69	5309	
559.88	6532.3	
560.07	7963.9	
560.27	8363.9	
560.46	6679.8	
560.66	6849.1	
560.85	7650.5	
561.04	6832.7	
561.24	5773.2	
561.43	6021	
561.63	7104.4	
561.82	7400.7	
562.01	7330.4	
562.21	6281.1	
562.4	7932.5	
562.59	8871.8	
562.79	6238.8	
562.98	5825.1	
563.18	7812.3	
563.37	9292.3	
563.56	6718.7	
563.76	5637.4	
563.95	7075	
564.14	7083.2	
564.34	6083.1	
564.53	5834.7	
564.73	7681.2	
564.92	8191.9	
565.11	6187.6	
565.31	5603.2	
565.5	8296.3	
565.69	7245.7	
565.89	5769.8	
566.08	6133	
566.27	8198.7	
566.47	8591.9	
566.66	6759.7	
566.85	5366.4	
567.05	7771.4	
567.24	7080.5	
567.44	5701.5	
567.63	7262.1	
567.82	7998	
568.02	7769.3	
568.21	5695.4	
568.4	6108.4	
568.6	7507.2	
568.79	7558.4	
568.98	5538.4	
569.18	5715.9	
569.37	7499.7	
569.56	9630.9	
569.76	6112.5	
569.95	7095.5	
570.14	7984.3	
570.34	7795.3	
570.53	5567.7	
570.72	5571.2	
570.91	8410.3	
571.11	7462.1	
571.3	6106.4	
571.49	7023.9	
571.69	7540.6	
571.88	7129	
572.07	6578.8	
572.27	6664.1	
572.46	7012.2	
572.65	8227.4	
572.85	5842.2	
573.04	6197.2	
573.23	8359.8	
573.43	7666.9	
573.62	5510.4	
573.81	6257.9	
574	7548.1	
574.2	7382.9	
574.39	5810.1	
574.58	6082.5	
574.78	8516.8	
574.97	7720.8	
575.16	6406.7	
575.36	6575.3	
575.55	8016.4	
575.74	8195.3	
575.93	5517.2	
576.13	6593.1	
576.32	7358.4	
576.51	8032.8	
576.71	5859.9	
576.9	7316.7	
577.09	8330.5	
577.28	7907.2	
577.48	6372.6	
577.67	5394.3	
577.86	7501	
578.05	7752.2	
578.25	6035.4	
578.44	6204	
578.63	7575.4	
578.83	8815.8	
579.02	5388.2	
579.21	7044.3	
579.4	7765.9	
579.6	7356.3	
579.79	6259.3	
579.98	8535.3	
580.17	8101.1	
580.37	8164.6	
580.56	5608	
580.75	6410.8	
580.94	8690.9	
581.14	8471.8	
581.33	6909.8	
581.52	5782.1	
581.71	7929.1	
581.91	8631.5	
582.1	5333.6	
582.29	6079.7	
582.48	7543.4	
582.68	7455.3	
582.87	6555.5	
583.06	6130.3	
583.25	7877.9	
583.45	7224.6	
583.64	6847	
583.83	7611.6	
584.02	7236.2	
584.21	7841.7	
584.41	6802	
584.6	6001.9	
584.79	7579.5	
584.98	8342.7	
585.18	5421	
585.37	5506.3	
585.56	7074.4	
585.75	7823.2	
585.94	5737.7	
586.14	6513.2	
586.33	8576.2	
586.52	7524.9	
586.71	6349.4	
586.91	6034	
587.1	6918.7	
587.29	8026	
587.48	6038.8	
587.67	5778.7	
587.87	7894.2	
588.06	8039	
588.25	7332.4	
588.44	6598.6	
588.63	7549.5	
588.83	8245.1	
589.02	5948.7	
589.21	5898.2	
589.4	7373.4	
589.59	7254.6	
589.78	5206.6	
589.98	5478.3	
590.17	6992.4	
590.36	7604.8	
590.55	4966.3	
590.74	5899.5	
590.94	9116.9	
591.13	7522.2	
591.32	5599.8	
591.51	5176.6	
591.7	8087.4	
591.89	7437.5	
592.09	5307	
592.28	5849	
592.47	6662	
592.66	8639.7	
592.85	5268.7	
593.05	5486.5	
593.24	7281.9	
593.43	8105.9	
593.62	5490.6	
593.81	6126.8	
594	7287.4	
594.19	7600.7	
594.39	5421	
594.58	5347.9	
594.77	7704.5	
594.96	8353.7	
595.15	5365.7	
595.34	6031.3	
595.54	7739.3	
595.73	6720.1	
595.92	4718.5	
596.11	5995.8	
596.3	8177.5	
596.49	6836.8	
596.68	5818.3	
596.88	6206.7	
597.07	7933.8	
597.26	6689.3	
597.45	5225.7	
597.64	6463.4	
597.83	6920.8	
598.02	7589.8	
598.22	5348.6	
598.41	6029.9	
598.6	7332.4	
598.79	6733.7	
598.98	5249.6	
599.17	6318	
599.36	7305.1	
599.55	8659.5	
599.74	7544.7	
599.94	7133.1	
600.13	7959.1	
600.32	6748.1	
600.51	5032.5	
600.7	5208	
600.89	8738	
601.08	8602.2	
601.27	4986.8	
601.47	6057.2	
601.66	7916.1	
601.85	8533.2	
602.04	5627.1	
602.23	6225.1	
602.42	6845.7	
602.61	7508.5	
602.8	5629.9	
602.99	5407.3	
603.18	7154.2	
603.37	7549.5	
603.57	6111.8	
603.76	6616.3	
603.95	8345.5	
604.14	7776.1	
604.33	5414.1	
604.52	5749.3	
604.71	7406.8	
604.9	7036.1	
605.09	6434.7	
605.28	6272.2	
605.47	8018.5	
605.66	7773.4	
605.86	5960.3	
606.05	5399.8	
606.24	8131.1	
606.43	6477.7	
606.62	5758.9	
606.81	6561	
607	7993.9	
607.19	7113.3	
607.38	5109.7	
607.57	5477.6	
607.76	6918	
607.95	6363	
608.14	5953.4	
608.33	6582.9	
608.52	6968.6	
608.72	7927	
608.91	5052.3	
609.1	5017.5	
609.29	7068.2	
609.48	6554.2	
609.67	6121.4	
609.86	5089.9	
610.05	6696.2	
610.24	7009.5	
610.43	4879.6	
610.62	4504.8	
610.81	8225.3	
611	8015.7	
611.19	5136.3	
611.38	5801.9	
611.57	7317.4	
611.76	8733.9	
611.95	4849.6	
612.14	4724.7	
612.33	7094.8	
612.52	6627.9	
612.71	5397.1	
612.9	4625.7	
613.09	6214.9	
613.28	8710.7	
613.47	5153.4	
613.66	6197.2	
613.85	7221.8	
614.04	6780.1	
614.24	5251	
614.43	4486.4	
614.62	7404.1	
614.81	7372	
615	5790.3	
615.19	5821	
615.38	6625.2	
615.57	6933.1	
615.76	5668.1	
615.95	6694.1	
616.14	7412.3	
616.33	7016.3	
616.52	5976	
616.71	6293.4	
616.9	7391.8	
617.09	7154.9	
617.28	5295.4	
617.47	6860	
617.66	6385.6	
617.85	6497.5	
618.04	6340.5	
618.22	5625.8	
618.41	6747.4	
618.6	7690.8	
618.79	5537.7	
618.98	5143.8	
619.17	8002.1	
619.36	6211.5	
619.55	5348.6	
619.74	5461.9	
619.93	7201.3	
620.12	6574	
620.31	5933	
620.5	6190.3	
620.69	7799.3	
620.88	8193.2	
621.07	6883.9	
621.26	5757.5	
621.45	7356.3	
621.64	7290.1	
621.83	5941.8	
622.02	5061.9	
622.21	7371.3	
622.4	7108.5	
622.59	6421.7	
622.78	6221.7	
622.97	6664.8	
623.16	7709.9	
623.35	5857.2	
623.54	4874.8	
623.72	6911.2	
623.91	7038.9	
624.1	6070.9	
624.29	4689.2	
624.48	8116.8	
624.67	7372.7	
624.86	5943.2	
625.05	5001.1	
625.24	8296.3	
625.43	6595.1	
625.62	7807.5	
625.81	5201.8	
626	7647.1	
626.19	6863.4	
626.38	6096.1	
626.56	5468.8	
626.75	6744	
626.94	7219.8	
627.13	6015.6	
627.32	4656.4	
627.51	7346.1	
627.7	8803.5	
627.89	4853.7	
628.08	6100.9	
628.27	6577.4	
628.46	6836.1	
628.65	5145.2	
628.83	4784.1	
629.02	7469.6	
629.21	6636.1	
629.4	5696.1	
629.59	5865.4	
629.78	6561.7	
629.97	7599.3	
630.16	5869.5	
630.35	5410.7	
630.54	8029.4	
630.72	7780.2	
630.91	5251	
631.1	5897.5	
631.29	7169.9	
631.48	7441.6	
631.67	6005.3	
631.86	5462.6	
632.05	6774.7	
632.24	6850.5	
632.42	5031.2	
632.61	5685.8	
632.8	6894.8	
632.99	6579.4	
633.18	5668.8	
633.37	6115.9	
633.56	7204.8	
633.75	6976.1	
633.93	5626.5	
634.12	5248.9	
634.31	8002.1	
634.5	7589.8	
634.69	5327.4	
634.88	5946.6	
635.07	6959.7	
635.25	7553.6	
635.44	6381.5	
635.63	6625.2	
635.82	6768.5	
636.01	6285.9	
636.2	6285.2	
636.39	5827.8	
636.57	8040.3	
636.76	7714	
636.95	5109	
637.14	6661.4	
637.33	7234.8	
637.52	8348.2	
637.7	4986.1	
637.89	5983.5	
638.08	6838.9	
638.27	8462.2	
638.46	6029.2	
638.65	6561.7	
638.83	8441.7	
639.02	6637.5	
639.21	5959.6	
639.4	6611.5	
639.59	7129.7	
639.78	6763.1	
639.96	5291.3	
640.15	5300.1	
640.34	7118.7	
640.53	7227.3	
640.72	5000.5	
640.91	5342.5	
641.09	6531	
641.28	7948.8	
641.47	5362.3	
641.66	6223.1	
641.85	7193.1	
642.03	7488.7	
642.22	5928.2	
642.41	5457.2	
642.6	6599.9	
642.79	5975.3	
642.97	5231.9	
643.16	6028.5	
643.35	6626.5	
643.54	6441.5	
643.73	5113.8	
643.91	5980.8	
644.1	6291.4	
644.29	6987	
644.48	5325.4	
644.67	5393.7	
644.85	6636.8	
645.04	6863.4	
645.23	4914.4	
645.42	5223.7	
645.6	6451.1	
645.79	7743.4	
645.98	5276.3	
646.17	4232.5	
646.36	6211.5	
646.54	6986.3	
646.73	6249	
646.92	4896	
647.11	6567.8	
647.29	7653.3	
647.48	5029.1	
647.67	4799.8	
647.86	7909.9	
648.05	7843	
648.23	5294.7	
648.42	6698.9	
648.61	7284.6	
648.8	6950.1	
648.98	4962.2	
649.17	5387.5	
649.36	6465.4	
649.55	5894.1	
649.73	4958.8	
649.92	5775.3	
650.11	6376	
650.3	6722.1	
650.48	5141.1	
650.67	4924	
650.86	7034.8	
651.05	5890	
651.23	5176.6	
651.42	5139.7	
651.61	6498.9	
651.79	6595.8	
651.98	5300.8	
652.17	4928.1	
652.36	7010.2	
652.54	6037.4	
652.73	4932.9	
652.92	4852.3	
653.11	6981.5	
653.29	7153.6	
653.48	4206.5	
653.67	5356.1	
653.85	6769.9	
654.04	7915.4	
654.23	5606.7	
654.42	5156.1	
654.6	6371.9	
654.79	7017	
654.98	4616.1	
655.16	5128.8	
655.35	5971.9	
655.54	5965.7	
655.73	4752.7	
655.91	4610.7	
656.1	7193.1	
656.29	5904.3	
656.47	4206.5	
656.66	5983.5	
656.85	6173.3	
657.03	6173.9	
657.22	4691.2	
657.41	4835.3	
657.59	6298.9	
657.78	5993.7	
657.97	4310.3	
658.16	5165.7	
658.34	7006.8	
658.53	7374.7	
658.72	6129.6	
658.9	6654.5	
659.09	6271.6	
659.28	6438.1	
659.46	4871.4	
659.65	4844.8	
659.84	6077.7	
660.02	6605.4	
660.21	4618.9	
660.4	4617.5	
660.58	7120.1	
660.77	6386.2	
660.96	5244.2	
661.14	4308.2	
661.33	7671.7	
661.52	7561.1	
661.7	4230.4	
661.89	8222.6	
662.08	6033.3	
662.26	5649.7	
662.45	4521.9	
662.64	4654.4	
662.82	6779.5	
663.01	5944.6	
663.2	4702.1	
663.38	5510.4	
663.57	6640.9	
663.75	6487.3	
663.94	5042.8	
664.13	6408.1	
664.31	5980.8	
664.5	6821.8	
664.69	5214.8	
664.87	5920.7	
665.06	5777.3	
665.25	6570.6	
665.43	6139.8	
665.62	6261.3	
665.8	6907.8	
665.99	6156.9	
666.18	4979.3	
666.36	5140.4	
666.55	6919.4	
666.74	6788.3	
666.92	4602.5	
667.11	6443.6	
667.29	6161	
667.48	6845.7	
667.67	5948.7	
667.85	5023	
668.04	6217.6	
668.22	6217.6	
668.41	4986.1	
668.6	5274.2	
668.78	6029.9	
668.97	6217	
669.15	5530.2	
669.34	4375.1	
669.53	5980.1	
669.71	6398.5	
669.9	4569	
670.08	5282.4	
670.27	6067.4	
670.46	6650.4	
670.64	5456.5	
670.83	5753.4	
671.01	5868.8	
671.2	6612.2	
671.38	4598.4	
671.57	4590.2	
671.76	7163.8	
671.94	7862.2	
672.13	4465.9	
672.31	5707.7	
672.5	6722.8	
672.69	5797.1	
672.87	4643.4	
673.06	4931.5	
673.24	6541.2	
673.43	5992.4	
673.61	5384.8	
673.8	4997.7	
673.98	6798.6	
674.17	6953.5	
674.36	5578	
674.54	5425.1	
674.73	6500.3	
674.91	6739.2	
675.1	5104.2	
675.28	4693.3	
675.47	6283.9	
675.65	6865.5	
675.84	4962.9	
676.03	5314.5	
676.21	6038.1	
676.4	5546.6	
676.58	5821	
676.77	5530.2	
676.95	7684	
677.14	6039.5	
677.32	4642.7	
677.51	4331.5	
677.69	6795.8	
677.88	5613.5	
678.06	4527.4	
678.25	4601.8	
678.44	6296.1	
678.62	6037.4	
678.81	4277.5	
678.99	5325.4	
679.18	7214.3	
679.36	6737.1	
679.55	4938.3	
679.73	5601.2	
679.92	6690	
680.1	5956.9	
680.29	6177.4	
680.47	4936.3	
680.66	5999.9	
680.84	6875	
681.03	4242.7	
681.21	5425.1	
681.4	6050.4	
681.58	5939.8	
681.77	4648.9	
681.95	4571.7	
682.14	6989.7	
682.32	7237.5	
682.51	5608	
682.69	4390.8	
682.88	5978	
683.06	6696.9	
683.25	5337.7	
683.43	5830.6	
683.62	6269.5	
683.8	6675.7	
683.99	5985.5	
684.17	5191.6	
684.36	7738.6	
684.54	6292.7	
684.73	4389.5	
684.91	4574.5	
685.1	6660.7	
685.28	6030.6	
685.46	5302.2	
685.65	5417.6	
685.83	6979.5	
686.02	6263.4	
686.2	4820.2	
686.39	4898.7	
686.57	5905.7	
686.76	7675.1	
686.94	4753.3	
687.13	4937	
687.31	6740.5	
687.5	6240.2	
687.68	4332.8	
687.86	5729.5	
688.05	7873.1	
688.23	5666.7	
688.42	5786.2	
688.6	4744.5	
688.79	6043.6	
688.97	6093.4	
689.16	5159.5	
689.34	4094.6	
689.52	6980.8	
689.71	7030.7	
689.89	5541.1	
690.08	4716.5	
690.26	6365.8	
690.45	6290.7	
690.63	5787.6	
690.81	4903.5	
691	6095.4	
691.18	6023.8	
691.37	5149.3	
691.55	7551.5	
691.74	6039.5	
691.92	8178.9	
692.1	5163.6	
692.29	4502.8	
692.47	6262	
692.66	5556.1	
692.84	4724.7	
693.02	5337.7	
693.21	5702.9	
693.39	6193.1	
693.58	5424.4	
693.76	4745.1	
693.94	7396.6	
694.13	7160.4	
694.31	4658.4	
694.5	5787.6	
694.68	5943.9	
694.86	6294.1	
695.05	5041.4	
695.23	5500.8	
695.42	6634.1	
695.6	9220	
695.78	5702.2	
695.97	4780.6	
696.15	6715.3	
696.34	6158.2	
696.52	4552.6	
696.7	5441.5	
696.89	6513.9	
697.07	5849	
697.25	5409.4	
697.44	7099.6	
697.62	6373.3	
697.81	6916.7	
697.99	5128.8	
698.17	5550.7	
698.36	5825.1	
698.54	6520.7	
698.72	5418.9	
698.91	4357.4	
699.09	6096.8	
699.28	5956.9	
699.46	5119.9	
699.64	4944.5	
699.83	5840.8	
700.01	7259.4	
700.19	5726.1	
700.38	4112.3	
700.56	7161.7	
700.74	5951.4	
700.93	4590.2	
701.11	5448.3	
701.29	6632.7	
701.48	7665.5	
701.66	4696.7	
701.84	4799.8	
702.03	6043.6	
702.21	6688	
702.39	4259.1	
702.58	4917.9	
702.76	6399.2	
702.94	6664.1	
703.13	4273.4	
703.31	6947.4	
703.49	5709.1	
703.68	6776	
703.86	4536.9	
704.04	5606	
704.23	6283.9	
704.41	6765.8	
704.59	4607.9	
704.78	5991	
704.96	7456.7	
705.14	6745.3	
705.33	4384	
705.51	5398.4	
705.69	6083.8	
705.87	7047.7	
706.06	5580	
706.24	4398.4	
706.42	6384.9	
706.61	6687.3	
706.79	5627.8	
706.97	4359.4	
707.16	5926.1	
707.34	6554.9	
707.52	5614.8	
707.7	4708.3	
707.89	6143.2	
708.07	5742.5	
708.25	5668.1	
708.44	5758.2	
708.62	5980.8	
708.8	7147.4	
708.98	5947.3	
709.17	4709	
709.35	6513.2	
709.53	6483.9	
709.72	4394.3	
709.9	4650.9	
710.08	6681.2	
710.26	6763.1	
710.45	6219.7	
710.63	4821.6	
710.81	6335	
710.99	6423.8	
711.18	5517.9	
711.36	5031.9	
711.54	6150.1	
711.72	7081.2	
711.91	5096	
712.09	4446.8	
712.27	6477	
712.45	7066.9	
712.64	5438	
712.82	4327.4	
713	5840.1	
713.18	6074.3	
713.37	4569	
713.55	6023.8	
713.73	7144	
713.91	5617.6	
714.1	5096	
714.28	4569.7	
714.46	6862.7	
714.64	6016.2	
714.83	4046.1	
715.01	4945.2	
715.19	6206.7	
715.37	5579.3	
715.55	4717.8	
715.74	4916.5	
715.92	7230.7	
716.1	5132.9	
716.28	6205.3	
716.47	5248.3	
716.65	5838.1	
716.83	5980.8	
717.01	5058.5	
717.19	5134.3	
717.38	8176.9	
717.56	5580	
717.74	5302.9	
717.92	4363.5	
718.1	6828.6	
718.29	6012.8	
718.47	3893.9	
718.65	4602.5	
718.83	6651.8	
719.01	6595.1	
719.2	3652.2	
719.38	4885.8	
719.56	6249	
719.74	7911.3	
719.92	4401.8	
720.11	5605.3	
720.29	6326.2	
720.47	5412.1	
720.65	4046.8	
720.83	5033.9	
721.02	5903.6	
721.2	5618.3	
721.38	5139.7	
721.56	4316.4	
721.74	5129.5	
721.92	5414.1	
722.11	5628.5	
722.29	5277.6	
722.47	6711.2	
722.65	5796.4	
722.83	4367.6	
723.01	5362.3	
723.2	5863.3	
723.38	6125.5	
723.56	3731.4	
723.74	4979.3	
723.92	5403.2	
724.1	6617	
724.29	4264.6	
724.47	5580.7	
724.65	5378	
724.83	5328.1	
725.01	4084.3	
725.19	5081.7	
725.37	5441.5	
725.56	5539.8	
725.74	3982.6	
725.92	4247.5	
726.1	5331.5	
726.28	5698.8	
726.46	4726.7	
726.64	4427	
726.83	5581.4	
727.01	5979.4	
727.19	3964.2	
727.37	4935.6	
727.55	5709.7	
727.73	6303	
727.91	3940.3	
728.09	3821.5	
728.28	6326.9	
728.46	7040.9	
728.64	5006.6	
728.82	4896.7	
729	7540.6	
729.18	6619.7	
729.36	3975.1	
729.54	6532.3	
729.72	7722.2	
729.91	5886.5	
730.09	6058.6	
730.27	4696	
730.45	5689.3	
730.63	6453.1	
730.81	5333.6	
730.99	4227.7	
731.17	6901.7	
731.35	5467.4	
731.53	4914.4	
731.71	4458.4	
731.9	6604.7	
732.08	6913.3	
732.26	4726.7	
732.44	4452.3	
732.62	6941.9	
732.8	6324.1	
732.98	5218.2	
733.16	4160.1	
733.34	6320.7	
733.52	5112.4	
733.7	4709.6	
733.88	5065.3	
734.07	6270.2	
734.25	5934.3	
734.43	4150.6	
734.61	5937.1	
734.79	7633.5	
734.97	5812.8	
735.15	4309.6	
735.33	4689.8	
735.51	6233.3	
735.69	5802.6	
735.87	5950.7	
736.05	4961.5	
736.23	6031.3	
736.41	5784.8	
736.59	4741.7	
736.77	4841.4	
736.95	6524.1	
737.13	5902.9	
737.32	4339.6	
737.5	4558.8	
737.68	7124.9	
737.86	5690.6	
738.04	4104.8	
738.22	6197.2	
738.4	5534.3	
738.58	5881.1	
738.76	4783.4	
738.94	3741.6	
739.12	5712.5	
739.3	5541.1	
739.48	5503.6	
739.66	5215.5	
739.84	5956.2	
740.02	5913.9	
740.2	3735.5	
740.38	4239.3	
740.56	6390.3	
740.74	5151.3	
740.92	4924	
741.1	4843.4	
741.28	5771.2	
741.46	5670.1	
741.64	4453.6	
741.82	5002.5	
742	5832.6	
742.18	5825.1	
742.36	4666	
742.54	4226.3	
742.72	6451.8	
742.9	5104.9	
743.08	5062.6	
743.26	3812	
743.44	6745.3	
743.62	6496.2	
743.8	5312.4	
743.98	4193.6	
744.16	6272.9	
744.34	5864.7	
744.52	5181.4	
744.7	5121.3	
744.88	6319.3	
745.06	5843.5	
745.24	5251	
745.42	5422.3	
745.6	6445	
745.78	6221.7	
745.96	4009.9	
746.14	4341.7	
746.32	7305.1	
746.5	6559.6	
746.68	4969.7	
746.86	4418.8	
747.03	6968.6	
747.21	5206.6	
747.39	5053.7	
747.57	4342.4	
747.75	6085.2	
747.93	6531.7	
748.11	4377.2	
748.29	4310.3	
748.47	7821.9	
748.65	5765	
748.83	5201.2	
749.01	4907.6	
749.19	6400.6	
749.37	5369.8	
749.55	4758.8	
749.73	4874.2	
749.91	5914.5	
750.09	5707	
750.26	4921.3	
750.44	4180.6	
750.62	5977.3	
750.8	5980.8	
750.98	4110.3	
751.16	4462.5	
751.34	6097.5	
751.52	5337	
751.7	5322.7	
751.88	4081.6	
752.06	6531	
752.24	6376.7	
752.42	4055	
752.59	4440	
752.77	5967.8	
752.95	7317.4	
753.13	5172.5	
753.31	4522.6	
753.49	5682.4	
753.67	6141.9	
753.85	4971.8	
754.03	4496	
754.21	6453.8	
754.38	6762.4	
754.56	4681.7	
754.74	3646.7	
754.92	5710.4	
755.1	6535.8	
755.28	3775.8	
755.46	3891.1	
755.64	7503.1	
755.82	7606.8	
755.99	4239.3	
756.17	4384	
756.35	4944.5	
756.53	6700.3	
756.71	3310.9	
756.89	4319.8	
757.07	6377.4	
757.25	5235.3	
757.42	4782.7	
757.6	5790.3	
757.78	6212.2	
757.96	5117.9	
758.14	4416.8	
758.32	3920.5	
758.5	4651.6	
758.67	5618.9	
758.85	4306.9	
759.03	4446.8	
759.21	5760.3	
759.39	5180	
759.57	3779.9	
759.75	5170.4	
759.92	6423.8	
760.1	5646.2	
760.28	5431.9	
760.46	5687.2	
760.64	5425.8	
760.82	5150	
760.99	5004.6	
761.17	4349.2	
761.35	6206	
761.53	5130.8	
761.71	4450.9	
761.89	5204.6	
762.06	6145.3	
762.24	5554.1	
762.42	4530.1	
762.6	4287.8	
762.78	5580.7	
762.96	6266.1	
763.13	4837.3	
763.31	4474.8	
763.49	6457.2	
763.67	5443.5	
763.85	5489.9	
764.02	6097.5	
764.2	6652.5	
764.38	5809.4	
764.56	4370.4	
764.74	5390.9	
764.91	6843.6	
765.09	5624.4	
765.27	4050.2	
765.45	3839.9	
765.63	6851.8	
765.8	6700.3	
765.98	3537.5	
766.16	3978.5	
766.34	5234.6	
766.52	4972.5	
766.69	5007.3	
766.87	3790.1	
767.05	5613.5	
767.23	6505.7	
767.41	4122.6	
767.58	4416.8	
767.76	6292	
767.94	6369.2	
768.12	4246.1	
768.29	5155.4	
768.47	5777.3	
768.65	6588.3	
768.83	3936.9	
769	5132.9	
769.18	5287.2	
769.36	5997.8	
769.54	5153.4	
769.72	3939.6	
769.89	6318	
770.07	6493.4	
770.25	4238.6	
770.43	5737	
770.6	7252.5	
770.78	7732.4	
770.96	4544.4	
771.14	5233.9	
771.31	6306.4	
771.49	5569.1	
771.67	3601	
771.85	3926	
772.02	4780.6	
772.2	5609.4	
772.38	4644.1	
772.55	4136.2	
772.73	5851.7	
772.91	5664.7	
773.09	4574.5	
773.26	4666	
773.44	5871.5	
773.62	5535	
773.8	4050.2	
773.97	3754.6	
774.15	5982.8	
774.33	5526.1	
774.5	3894.6	
774.68	4339	
774.86	5999.2	
775.04	5535	
775.21	4038.6	
775.39	4076.8	
775.57	5902.9	
775.74	6359.6	
775.92	3883.6	
776.1	3842.7	
776.27	5849.7	
776.45	7264.1	
776.63	4010.6	
776.81	3537.5	
776.98	5460.6	
777.16	6695.5	
777.34	4222.2	
777.51	4590.2	
777.69	5472.2	
777.87	5259.2	
778.04	4218.8	
778.22	4943.1	
778.4	5313.8	
778.57	6042.9	
778.75	3471.3	
778.93	3866.6	
779.1	5085.1	
779.28	4890.5	
779.46	3546.4	
779.64	4088.4	
779.81	6152.1	
779.99	7244.3	
780.17	4959.5	
780.34	5128.8	
780.52	5565.7	
780.69	5858.6	
780.87	4485.1	
781.05	3938.9	
781.22	5653.8	
781.4	5788.9	
781.58	4117.8	
781.75	3197.6	
781.93	5627.8	
782.11	5099.4	
782.28	5150.6	
782.46	4128	
782.64	4903.5	
782.81	5976.7	
782.99	4220.9	
783.17	4190.8	
783.34	5823.7	
783.52	4951.3	
783.69	4416.8	
783.87	5349.3	
784.05	5244.8	
784.22	5078.3	
784.4	5232.6	
784.58	4595	
784.75	6117.3	
784.93	5126.1	
785.1	4162.2	
785.28	4891.9	
785.46	5828.5	
785.63	5081.7	
785.81	4182.6	
785.99	3929.4	
786.16	5280.3	
786.34	5719.3	
786.51	3990.1	
786.69	4414.1	
786.87	4896.7	
787.04	5414.8	
787.22	3894.6	
787.39	4919.9	
787.57	5036.6	
787.75	6336.4	
787.92	5072.8	
788.1	5010.7	
788.27	5190.2	
788.45	4896.7	
788.63	4717.8	
788.8	3351.8	
788.98	5567.1	
789.15	4850.3	
789.33	3442.6	
789.5	4237.2	
789.68	6158.2	
789.86	6221.7	
790.03	4663.2	
790.21	4012	
790.38	6140.5	
790.56	5248.3	
790.73	3900	
790.91	3938.2	
791.09	5123.3	
791.26	5948	
791.44	4130.8	
791.61	3532.1	
791.79	5104.2	
791.96	5246.2	
792.14	3682.9	
792.32	3267.9	
792.49	5087.8	
792.67	5305.6	
792.84	3807.2	
793.02	3515.7	
793.19	5617.6	
793.37	6429.3	
793.54	3259	
793.72	3629	
793.89	6625.9	
794.07	5137.7	
794.25	4341	
794.42	3365.5	
794.6	6299.6	
794.77	5907	
794.95	4703.5	
795.12	4019.5	
795.3	5162.9	
795.47	5855.1	
795.65	4394.9	
795.82	4217.5	
796	4951.3	
796.17	7083.2	
796.35	4054.3	
796.52	4874.2	
796.7	5751.4	
796.87	5850.4	
797.05	5173.2	
797.22	4999.8	
797.4	5825.1	
797.57	6921.5	
797.75	4240	
797.92	3971.7	
798.1	6130.9	
798.27	5106.3	
798.45	3359.4	
798.62	3695.9	
798.8	5505.6	
798.97	6073.6	
799.15	4528.1	
799.32	4263.9	
799.5	4738.3	
799.67	5528.8	
799.85	4653	
800.02	3325.9	
800.2	5089.2	
800.37	5537.7	
800.55	4863.2	
800.72	4005.8	
800.9	5935	
801.07	6458.6	
801.25	5517.9	
801.42	4434.5	
801.6	6038.8	
801.77	5792.3	
801.95	4139.6	
802.12	3907.5	
802.29	5658.5	
802.47	5724.8	
802.64	4358.8	
802.82	3291.1	
802.99	5127.4	
803.17	6234.7	
803.34	4303.5	
803.52	3831.1	
803.69	6963.8	
803.87	4900.1	
804.04	4210.6	
804.21	4325.3	
804.39	6318	
804.56	5369.1	
804.74	3594.9	
804.91	4470	
805.09	5127.4	
805.26	5303.6	
805.44	3635.1	
805.61	4105.5	
805.78	5883.1	
805.96	5978	
806.13	4440.7	
806.31	4837.3	
806.48	4628.4	
806.66	5246.9	
806.83	4397	
807	4244.1	
807.18	5135.6	
807.35	5600.5	
807.53	4316.4	
807.7	3409.2	
807.87	6478.4	
808.05	5208	
808.22	4777.9	
808.4	3435.1	
808.57	5236	
808.74	4810	
808.92	3909.6	
809.09	5033.2	
809.27	5089.9	
809.44	5780.1	
809.61	3509.5	
809.79	3815.4	
809.96	6477.7	
810.14	5998.5	
810.31	3316.3	
810.48	4106.2	
810.66	5255.1	
810.83	6154.1	
811.01	3915.7	
811.18	4356	
811.35	6028.5	
811.53	4662.5	
811.7	4840.7	
811.87	4437.3	
812.05	5233.9	
812.22	5136.3	
812.39	3791.5	
812.57	3711.6	
812.74	5228.5	
812.92	7098.3	
813.09	4184.7	
813.26	4578.6	
813.44	6713.9	
813.61	5114.5	
813.78	3495.2	
813.96	4653.7	
814.13	5244.8	
814.3	4815.5	
814.48	4985.4	
814.65	4147.1	
814.82	6624.5	
815	5001.8	
815.17	4274.8	
815.34	5212.1	
815.52	5120.6	
815.69	5173.9	
815.87	4230.4	
816.04	4134.8	
816.21	5244.2	
816.38	4576.5	
816.56	4150.6	
816.73	3790.8	
816.9	6670.9	
817.08	6083.1	
817.25	3850.2	
817.42	4919.2	
817.6	4754	
817.77	5323.4	
817.94	4364.9	
818.12	3835.2	
818.29	4952	
818.46	7987.8	
818.64	3986	
818.81	3741	
818.98	4857.8	
819.16	7176.1	
819.33	4589.5	
819.5	4259.8	
819.67	5700.2	
819.85	6315.3	
820.02	4222.9	
820.19	4423.6	
820.37	5467.4	
820.54	4946.5	
820.71	4382	
820.88	5451.7	
821.06	5465.3	
821.23	4992.3	
821.4	4349.9	
821.58	4310.3	
821.75	6038.8	
821.92	5378	
822.09	3483.6	
822.27	3666.5	
822.44	5223.7	
822.61	5130.2	
822.79	3469.3	
822.96	6820.4	
823.13	5806.7	
823.3	4943.8	
823.48	3992.2	
823.65	3663.1	
823.82	5990.3	
823.99	4792.2	
824.17	5195	
824.34	3719.8	
824.51	6987	
824.68	5298.8	
824.86	3850.9	
825.03	4332.1	
825.2	5234.6	
825.37	6412.2	
825.55	3818.8	
825.72	4287.1	
825.89	7068.9	
826.06	6531.7	
826.24	4168.3	
826.41	4126.7	
826.58	6476.4	
826.75	5558.2	
826.92	3191.4	
827.1	3639.9	
827.27	8830.8	
827.44	7032.7	
827.61	3962.1	
827.79	4779.3	
827.96	4929.5	
828.13	5358.9	
828.3	4091.8	
828.47	3444	
828.65	5477	
828.82	5425.8	
828.99	5423	
829.16	4739	
829.34	5936.4	
829.51	5659.2	
829.68	4303.5	
829.85	4489.8	
830.02	6152.1	
830.2	5948	
830.37	3276.1	
830.54	5177.3	
830.71	6755.6	
830.88	5160.2	
831.05	3352.5	
831.23	3850.2	
831.4	6456.6	
831.57	7251.9	
831.74	3975.8	
831.91	3492.5	
832.09	5403.9	
832.26	5918.6	
832.43	4178.5	
832.6	4576.5	
832.77	5471.5	
832.94	6285.2	
833.12	3236.5	
833.29	4112.3	
833.46	5668.8	
833.63	7551.5	
833.8	4534.9	
833.97	4158.1	
834.15	5907.7	
834.32	5662	
834.49	4319.8	
834.66	4417.5	
834.83	6133.7	
835	4932.2	
835.17	3915	
835.35	3983.3	
835.52	5790.3	
835.69	5648.3	
835.86	4217.5	
836.03	3429.7	
836.2	5827.2	
836.37	5423	
836.55	4073.4	
836.72	3829	
836.89	5381.4	
837.06	5963.7	
837.23	4159.4	
837.4	4596.3	
837.57	6758.3	
837.75	7485.3	
837.92	3726.6	
838.09	4012.7	
838.26	5387.5	
838.43	6255.9	
838.6	4392.9	
838.77	3851.5	
838.94	7161.1	
839.11	6829.3	
839.29	4081.6	
839.46	3229.6	
839.63	5885.2	
839.8	5603.9	
839.97	3938.9	
840.14	3975.1	
840.31	5646.2	
840.48	5854.5	
840.65	3278.8	
840.82	3924.6	
841	5877.7	
841.17	5815.5	
841.34	3740.3	
841.51	3723.9	
841.68	5679.7	
841.85	5539.1	
842.02	3827	
842.19	3160.7	
842.36	5617.6	
842.53	5558.9	
842.7	3661.8	
842.87	4566.3	
843.05	7416.4	
843.22	5486.5	
843.39	3489.7	
843.56	3742.3	
843.73	5301.5	
843.9	5952.8	
844.07	6057.2	
844.24	5092.6	
844.41	8846.5	
844.58	5066.7	
844.75	3563.5	
844.92	3943.7	
845.09	5900.2	
845.26	5808.7	
845.43	3646.1	
845.6	3840.6	
845.77	5870.8	
845.94	5539.8	
846.12	4036.5	
846.29	4302.8	
846.46	6049.7	
846.63	5827.8	
846.8	3665.2	
846.97	4313	
847.14	6378.7	
847.31	5799.2	
847.48	4171.7	
847.65	4605.9	
847.82	6129.6	
847.99	6104.3	
848.16	4915.1	
848.33	4582	
848.5	5388.9	
848.67	6396.5	
848.84	3657.7	
849.01	3827	
849.18	5231.9	
849.35	4899.4	
849.52	4616.1	
849.69	3616	
849.86	6066.8	
850.03	6273.6	
850.2	3642.7	
850.37	4459.8	
850.54	6350.1	
850.71	5504.3	
850.88	4434.5	
851.05	3551.2	
851.22	5778	
851.39	6434	
851.56	3427.6	
851.73	4198.3	
851.9	5112.4	
852.07	6105	
852.24	4066.6	
852.41	3617.4	
852.58	5674.9	
852.75	5197.1	
852.92	4093.9	
853.09	3599	
853.26	5367.7	
853.43	6312.5	
853.6	3630.4	
853.77	3083.6	
853.94	6478.4	
854.11	5827.8	
854.28	5471.5	
854.44	3985.3	
854.61	6959.7	
854.78	6187.6	
854.95	3615.3	
855.12	4632.5	
855.29	4696	
855.46	6531.7	
855.63	3620.1	
855.8	5069.4	
855.97	5375.9	
856.14	6213.5	
856.31	5139.7	
856.48	3951.9	
856.65	5368.4	
856.82	5111.7	
856.99	3521.8	
857.16	3964.9	
857.33	7195.9	
857.49	5452.4	
857.66	3979.9	
857.83	4296	
858	5423.7	
858.17	5696.8	
858.34	3425.6	
858.51	3530	
858.68	6666.1	
858.85	6627.9	
859.02	4221.5	
859.19	4551.3	
859.36	5102.9	
859.52	5130.8	
859.69	3665.9	
859.86	4335.5	
860.03	5226.4	
860.2	6507.1	
860.37	3293.1	
860.54	3631	
860.71	6098.9	
860.88	6583.5	
861.05	4108.2	
861.21	4642.1	
861.38	6593.8	
861.55	4995.7	
861.72	3311.6	
861.89	4093.9	
862.06	6143.9	
862.23	6715.3	
862.4	3590.1	
862.56	3777.8	
862.73	6002.6	
862.9	5640.1	
863.07	4280.9	
863.24	3319.1	
863.41	5042.1	
863.58	5109.7	
863.75	3692.5	
863.91	4223.6	
864.08	6566.5	
864.25	6001.9	
864.42	4588.1	
864.59	5098.1	
864.76	6913.9	
864.93	5093.3	
865.09	3557.3	
865.26	3980.6	
865.43	6414.9	
865.6	6802.7	
865.77	3155.2	
865.94	3629.7	
866.1	6435.4	
866.27	6177.4	
866.44	5571.8	
866.61	3414.6	
866.78	5538.4	
866.95	5978.7	
867.11	3494.5	
867.28	3254.9	
867.45	6294.8	
867.62	5214.1	
867.79	4192.2	
867.96	3627.6	
868.12	5144.5	
868.29	6149.4	
868.46	3646.1	
868.63	4874.8	
868.8	6352.1	
868.97	6090.7	
869.13	3827.7	
869.3	3760.8	
869.47	6004	
869.64	6274.3	
869.81	3692.5	
869.97	3670.6	
870.14	5845.6	
870.31	6496.8	
870.48	3523.2	
870.65	4668	
870.81	5416.2	
870.98	5425.1	
871.15	4196.3	
871.32	3755.3	
871.48	5950	
871.65	6632	
871.82	3650.2	
871.99	4033.8	
872.16	7157	
872.32	6556.2	
872.49	3669.3	
872.66	3676.8	
872.83	6082.5	
872.99	5332.2	
873.16	4216.1	
873.33	3584.6	
873.5	5733.6	
873.67	5701.5	
873.83	3820.1	
874	4921.3	
874.17	5883.8	
874.34	7087.3	
874.5	4762.2	
874.67	4602.5	
874.84	6522.8	
875.01	5122.7	
875.17	5205.3	
875.34	3641.3	
875.51	5767.8	
875.68	6957.6	
875.84	4420.9	
876.01	5399.1	
876.18	6094.1	
876.34	5950	
876.51	3650.8	
876.68	3564.1	
876.85	5519.3	
877.01	6423.1	
877.18	5248.3	
877.35	3677.5	
877.52	5626.5	
877.68	5018.2	
877.85	3593.5	
878.02	3650.8	
878.18	5636	
878.35	5383.4	
878.52	2907.4	
878.69	4135.5	
878.85	6109.1	
879.02	6162.3	
879.19	5191.6	
879.35	3919.1	
879.52	6024.4	
879.69	6307.1	
879.86	3133.4	
880.02	4100.7	
880.19	5599.1	
880.36	6932.4	
880.52	4238.6	
880.69	4355.3	
880.86	6119.3	
881.02	6226.5	
881.19	4016.7	
881.36	3992.9	
881.52	6105.7	
881.69	5293.3	
881.86	3954.6	
882.02	3854.3	
882.19	6348.7	
882.36	7542.7	
882.52	3723.2	
882.69	5180	
882.86	5860.6	
883.02	5751.4	
883.19	4470.7	
883.36	4217.5	
883.52	6242.9	
883.69	7132.4	
883.86	3709.6	
884.02	3252.2	
884.19	6152.1	
884.36	5595.1	
884.52	4114.4	
884.69	3889.1	
884.86	5322.7	
885.02	6857.3	
885.19	4067.9	
885.36	4298	
885.52	5676.3	
885.69	5801.2	
885.86	5377.3	
886.02	4660.5	
886.19	6181.5	
886.35	5589.6	
886.52	4084.3	
886.69	5177.9	
886.85	5131.5	
887.02	6476.4	
887.19	6476.4	
887.35	6476.4	
887.52	6476.4	
887.68	6476.4	
887.85	6476.4	
888.02	6476.4	
888.18	6476.4	
888.35	6476.4	
888.51	6476.4	
888.68	6476.4	
888.85	6476.4	
889.01	6476.4	
889.18	6476.4	
889.35	6476.4	
889.51	6476.4	
889.68	6476.4	
889.84	6476.4	
890.01	6476.4	
890.17	6476.4	
890.34	6476.4	
890.51	6476.4	
890.67	6476.4	
890.84	6476.4	
891	6476.4	
891.17	6476.4	
891.34	6476.4	
891.5	6476.4	
891.67	6476.4	
891.83	6476.4	
892	6476.4	
892.16	6476.4	
892.33	6476.4	
892.5	6476.4	
892.66	6476.4	
892.83	6476.4	
892.99	6476.4	
893.16	6476.4	
893.32	6476.4	
893.49	6476.4	
893.65	6476.4	
893.82	6476.4	
893.99	6476.4	
894.15	6476.4	
894.32	6476.4	
894.48	6476.4	
894.65	6476.4	
894.81	6476.4	
894.98	6476.4	
895.14	6476.4	
895.31	6476.4	
895.47	6476.4	
895.64	6476.4	
895.81	6476.4	
895.97	6476.4	
896.14	6476.4	
896.3	6476.4	
896.47	6476.4	
896.63	6476.4	
896.8	6476.4	
896.96	6476.4	
897.13	6476.4	
897.29	6476.4	
897.46	6476.4	
897.62	6476.4	
897.79	6476.4	
897.95	6476.4	
898.12	6476.4	
898.28	6476.4	
898.45	6476.4	
898.61	6476.4	
898.78	6476.4	
898.94	6476.4	
899.11	6476.4	
899.27	6476.4	
899.44	6476.4	
899.6	6476.4	
899.77	6476.4	
899.93	6476.4	
900.1	6476.4	
900.26	6476.4	
900.43	6476.4	
900.59	6476.4	
900.76	6476.4	
900.92	6476.4	
901.09	6476.4	
901.25	6476.4	
901.42	6476.4	
901.58	6476.4	
901.75	6476.4	
901.91	6476.4	
902.07	6476.4	
902.24	6476.4	
902.4	6476.4	
902.57	6476.4	
902.73	6476.4	
902.9	6476.4	
903.06	6476.4	
903.23	6476.4	
903.39	6476.4	
903.56	6476.4	
903.72	6476.4	
903.88	6476.4	
904.05	6476.4	
904.21	6476.4	
904.38	6476.4	
904.54	6476.4	
904.71	6476.4	
904.87	6476.4	
905.03	6476.4	
905.2	6476.4	
905.36	6476.4	
905.53	6476.4	
905.69	6476.4	
905.86	6476.4	
906.02	6476.4	
906.18	6476.4	
906.35	6476.4	
906.51	6476.4	
906.68	6476.4	
906.84	6476.4	
907.01	6476.4	
907.17	6476.4	
907.33	6476.4	
907.5	6476.4	
907.66	6476.4	
907.83	6476.4	
907.99	6476.4	
908.15	6476.4	
908.32	6476.4	
908.48	6476.4	
908.65	6476.4	
908.81	6476.4	
908.97	6476.4	
909.14	6476.4	
909.3	6476.4	
909.47	6476.4	
909.63	6476.4	
909.79	6476.4	
909.96	6476.4	
910.12	6476.4	
910.28	6476.4	
910.45	6476.4	
910.61	6476.4	
910.78	6476.4	
910.94	6476.4	
911.1	6476.4	
911.27	6476.4	
911.43	6476.4	
911.59	6476.4	
911.76	6476.4	
911.92	6476.4	
912.08	6476.4	
912.25	6476.4	
912.41	6476.4	
912.57	6476.4	
912.74	6476.4	
912.9	6476.4	
913.07	6476.4	
913.23	6476.4	
913.39	6476.4	
913.56	6476.4	
913.72	6476.4	
913.88	6476.4	
914.05	6476.4	
914.21	6476.4	
914.37	6476.4	
914.54	6476.4	
914.7	6476.4	
914.86	6476.4	
915.03	6476.4	
915.19	6476.4	
