Wavelength	Intensities	
nm	a.u.	
179.22	1693.3	
179.44	1693.7	
179.65	1693	
179.86	1694.4	
180.08	1679.3	
180.29	3822.9	
180.51	3016	
180.72	4941.1	
180.94	5481	
181.15	2704.7	
181.37	2675.3	
181.58	4727.4	
181.79	4883	
182.01	2736.8	
182.22	2960	
182.44	4981.3	
182.65	4272.1	
182.87	3540.3	
183.08	3233.1	
183.29	5243.5	
183.51	4368.3	
183.72	2920.4	
183.94	4050.2	
184.15	4733.5	
184.37	4591.5	
184.58	2625.5	
184.79	3383.9	
185.01	4405.2	
185.22	4969.1	
185.44	3583.3	
185.65	3105.4	
185.86	4711	
186.08	4276.8	
186.29	2623.4	
186.51	2776.4	
186.72	4464.6	
186.94	5063.3	
187.15	3158	
187.36	3229	
187.58	6304.3	
187.79	4762.2	
188.01	3345	
188.22	4921.3	
188.43	5532.9	
188.65	4928.1	
188.86	2791.4	
189.08	3236.5	
189.29	4481.6	
189.5	4479.6	
189.72	2951.1	
189.93	3031.7	
190.15	5094.7	
190.36	5844.2	
190.57	3224.2	
190.79	3128.6	
191	5115.8	
191.22	5161.6	
191.43	3257	
191.64	2808.4	
191.86	5260.5	
192.07	5078.3	
192.29	2855.6	
192.5	2947.7	
192.71	5063.9	
192.93	4504.8	
193.14	2930	
193.35	3054.2	
193.57	4521.9	
193.78	5148.6	
194	2476	
194.21	2895.8	
194.42	4344.4	
194.64	4678.9	
194.85	3182.5	
195.07	3616	
195.28	4709	
195.49	4194.2	
195.71	3779.9	
195.92	2836.4	
196.13	4875.5	
196.35	4918.5	
196.56	4031.8	
196.78	3207.1	
196.99	5804.6	
197.2	5491.3	
197.42	3515.7	
197.63	3254.9	
197.84	4296.6	
198.06	4832.5	
198.27	2921.8	
198.48	3788.1	
198.7	4508.3	
198.91	4700.1	
199.13	3218.7	
199.34	3211.9	
199.55	5070.1	
199.77	4102.8	
199.98	2898.6	
200.19	3228.3	
200.41	4657.1	
200.62	4379.9	
200.83	3299.3	
201.05	3499.3	
201.26	4642.7	
201.47	4434.5	
201.69	2892.4	
201.9	2805	
202.11	4741.7	
202.33	5325.4	
202.54	3026.2	
202.76	3381.9	
202.97	4691.9	
203.18	4827.7	
203.4	3360	
203.61	3295.9	
203.82	4705.5	
204.04	4456.4	
204.25	3239.2	
204.46	3139.5	
204.68	4703.5	
204.89	4856.4	
205.1	3179.1	
205.32	2740.9	
205.53	4956.1	
205.74	5088.5	
205.96	2443.2	
206.17	3317.7	
206.38	4874.2	
206.6	5012.7	
206.81	3653.6	
207.02	3054.9	
207.24	4878.9	
207.45	5150	
207.66	3033	
207.88	2735.4	
208.09	4841.4	
208.3	4625.7	
208.52	2874	
208.73	3135.4	
208.94	4655	
209.15	5172.5	
209.37	3087.7	
209.58	3202.3	
209.79	5076.9	
210.01	4547.2	
210.22	2590	
210.43	2693.8	
210.65	4660.5	
210.86	4924.7	
211.07	3048.7	
211.29	2850.1	
211.5	4903.5	
211.71	4633.2	
211.93	2932.7	
212.14	2866.5	
212.35	4653.7	
212.56	4749.2	
212.78	3222.8	
212.99	2699.2	
213.2	5335	
213.42	4526.7	
213.63	2934.7	
213.84	3055.6	
214.06	4252.3	
214.27	4299.4	
214.48	3089	
214.69	3244.7	
214.91	5196.4	
215.12	5206.6	
215.33	3227.6	
215.55	3480.9	
215.76	5559.6	
215.97	4881.7	
216.18	3116.3	
216.4	3153.9	
216.61	4414.7	
216.82	5048.2	
217.04	2901.3	
217.25	2992.8	
217.46	5081	
217.67	4950.6	
217.89	2654.2	
218.1	2753.8	
218.31	4749.9	
218.53	4816.8	
218.74	3024.8	
218.95	2930.6	
219.16	4677.6	
219.38	5353.4	
219.59	2935.4	
219.8	3371	
220.01	5735.7	
220.23	4746.5	
220.44	3682.2	
220.65	2871.9	
220.87	4739	
221.08	5167.7	
221.29	2751.1	
221.5	3424.2	
221.72	6019.7	
221.93	4462.5	
222.14	3265.1	
222.35	3777.8	
222.57	4707.6	
222.78	5002.5	
222.99	3102.7	
223.2	3287.7	
223.42	4881	
223.63	4981.3	
223.84	2451.4	
224.05	2489	
224.27	5668.1	
224.48	5261.2	
224.69	3749.1	
224.9	3207.8	
225.12	4787.5	
225.33	4642.1	
225.54	2695.1	
225.75	2924.5	
225.97	4392.2	
226.18	4593.6	
226.39	3115.6	
226.6	2897.2	
226.82	4534.2	
227.03	4374.5	
227.24	3194.8	
227.45	2728.6	
227.67	4991.6	
227.88	5287.2	
228.09	3610.6	
228.3	3523.2	
228.52	4900.1	
228.73	4603.8	
228.94	3021.4	
229.15	2719.7	
229.36	4635.9	
229.58	4618.9	
229.79	3080.1	
230	3449.5	
230.21	5460.6	
230.43	4722.6	
230.64	3214.6	
230.85	3254.2	
231.06	5026.4	
231.28	4987.5	
231.49	2697.9	
231.7	3177.8	
231.91	4963.6	
232.12	4669.4	
232.34	2800.9	
232.55	3173	
232.76	5113.8	
232.97	4721.9	
233.18	2856.9	
233.4	3226.2	
233.61	4825	
233.82	4580.6	
234.03	3020.1	
234.25	2998.9	
234.46	6165.1	
234.67	4678.2	
234.88	3312.2	
235.09	2938.2	
235.31	4831.2	
235.52	4619.5	
235.73	3201	
235.94	2743.6	
236.15	4472.8	
236.37	5485.1	
236.58	2869.9	
236.79	3063.8	
237	4923.3	
237.21	4321.9	
237.43	3330.7	
237.64	2660.3	
237.85	7605.5	
238.06	4340.3	
238.27	3310.2	
238.48	2793.4	
238.7	4962.2	
238.91	4614.1	
239.12	3084.9	
239.33	3136.8	
239.54	4440	
239.76	4592.2	
239.97	3077.4	
240.18	3130.7	
240.39	5495.4	
240.6	4789.5	
240.82	3264.5	
241.03	2674.6	
241.24	4659.1	
241.45	5251	
241.66	2876	
241.87	3349.1	
242.09	5232.6	
242.3	5444.9	
242.51	3349.8	
242.72	3070.6	
242.93	4998.4	
243.14	4644.1	
243.36	3556.6	
243.57	3781.2	
243.78	5274.9	
243.99	4878.9	
244.2	3044.6	
244.41	2797.5	
244.63	4326.7	
244.84	4839.4	
245.05	3304.7	
245.26	3080.1	
245.47	4856.4	
245.68	5068.7	
245.9	3994.2	
246.11	3281.5	
246.32	4527.4	
246.53	4818.9	
246.74	4759.5	
246.95	2662.4	
247.16	4384.7	
247.38	4719.2	
247.59	2705.4	
247.8	3149.8	
248.01	4393.6	
248.22	4639.3	
248.43	2891.7	
248.64	3026.2	
248.86	4243.4	
249.07	4541.7	
249.28	2848	
249.49	3207.1	
249.7	5046.9	
249.91	5126.7	
250.12	2709.5	
250.34	2696.5	
250.55	4777.9	
250.76	4689.8	
250.97	3183.9	
251.18	3260.4	
251.39	5086.5	
251.6	4829.8	
251.81	3248.1	
252.03	3209.8	
252.24	4542.4	
252.45	4933.6	
252.66	2714.9	
252.87	3368.9	
253.08	4676.2	
253.29	5758.9	
253.5	2761.3	
253.72	3730.7	
253.93	4633.2	
254.14	5371.8	
254.35	2977.7	
254.56	3020.1	
254.77	4825	
254.98	4422.9	
255.19	2968.2	
255.41	3639.2	
255.62	4780	
255.83	5115.8	
256.04	3312.9	
256.25	3240.6	
256.46	5584.8	
256.67	4453.6	
256.88	3186	
257.09	3488.4	
257.31	4366.3	
257.52	4430.4	
257.73	3943.7	
257.94	2975	
258.15	4644.8	
258.36	4639.3	
258.57	3648.8	
258.78	2456.2	
258.99	5090.6	
259.2	4545.1	
259.41	2926.5	
259.63	3080.1	
259.84	5230.5	
260.05	5528.8	
260.26	3732.8	
260.47	2933.4	
260.68	5097.4	
260.89	4576.5	
261.1	3531.4	
261.31	2854.2	
261.52	5183.4	
261.73	5333.6	
261.95	3693.9	
262.16	3288.4	
262.37	5145.9	
262.58	5170.4	
262.79	3736.9	
263	3043.3	
263.21	4720.6	
263.42	4287.1	
263.63	3255.6	
263.84	2958.6	
264.05	5033.9	
264.26	5255.1	
264.47	3619.4	
264.69	3175	
264.9	5223	
265.11	4818.2	
265.32	2961.4	
265.53	2950.4	
265.74	4726.7	
265.95	4226.3	
266.16	3153.2	
266.37	3405.1	
266.58	4805.2	
266.79	4506.2	
267	2965.5	
267.21	2772.3	
267.42	4343.7	
267.63	4674.1	
267.84	3134.8	
268.06	2727.9	
268.27	4987.5	
268.48	5173.9	
268.69	3007.8	
268.9	3485.6	
269.11	5174.5	
269.32	4242	
269.53	3108.8	
269.74	2882.2	
269.95	4838	
270.16	4253.6	
270.37	3135.4	
270.58	3545.7	
270.79	4623.6	
271	5018.2	
271.21	3262.4	
271.42	3142.9	
271.63	4848.2	
271.84	4386.1	
272.05	2585.2	
272.26	2848	
272.47	4670.7	
272.68	4913.8	
272.89	3003	
273.11	3372.3	
273.32	4470.7	
273.53	5274.9	
273.74	3260.4	
273.95	3226.2	
274.16	5057.1	
274.37	4683	
274.58	3431	
274.79	2805	
275	4810	
275.21	5069.4	
275.42	3977.2	
275.63	3388	
275.84	4900.1	
276.05	5883.1	
276.26	3200.3	
276.47	3060.3	
276.68	4618.2	
276.89	5399.1	
277.1	3424.2	
277.31	2748.4	
277.52	4849.6	
277.73	5075.5	
277.94	2680.8	
278.15	2989.4	
278.36	4771.8	
278.57	4442.7	
278.78	3033	
278.99	3363.4	
279.2	4513.7	
279.41	4420.9	
279.62	3841.3	
279.83	2775.7	
280.04	5545.9	
280.25	4358.1	
280.46	3826.3	
280.67	3168.9	
280.88	4447.5	
281.09	5107.6	
281.3	3203	
281.51	3972.4	
281.72	4485.7	
281.93	5011.4	
282.14	2974.3	
282.35	3145.7	
282.56	5130.8	
282.77	5023	
282.98	3084.9	
283.19	3605.8	
283.4	5904.3	
283.61	4636.6	
283.82	2826.2	
284.03	3721.2	
284.24	4825.7	
284.45	5076.9	
284.66	3790.1	
284.87	3604.4	
285.08	5088.5	
285.29	5191.6	
285.5	2742.2	
285.71	3103.4	
285.92	5113.1	
286.12	5571.8	
286.33	3687	
286.54	3021.4	
286.75	5070.8	
286.96	4625	
287.17	2839.8	
287.38	3663.8	
287.59	4484.4	
287.8	4462.5	
288.01	3054.2	
288.22	3383.2	
288.43	4904.9	
288.64	4296	
288.85	3562.1	
289.06	3406.5	
289.27	5016.2	
289.48	5263.3	
289.69	3788.1	
289.9	3434.4	
290.11	5198.4	
290.32	4467.3	
290.53	3581.2	
290.74	3336.1	
290.94	4986.1	
291.15	4992.9	
291.36	2921.1	
291.57	3393.5	
291.78	4554.7	
291.99	4197	
292.2	2888.3	
292.41	3277.4	
292.62	5085.1	
292.83	4935.6	
293.04	4069.3	
293.25	2912.2	
293.46	4578.6	
293.67	5111	
293.88	2901.3	
294.09	2856.2	
294.29	4392.9	
294.5	4826.4	
294.71	3110.2	
294.92	2990.7	
295.13	4599.1	
295.34	5522	
295.55	2696.5	
295.76	2651.4	
295.97	4942.4	
296.18	5422.3	
296.39	2788.7	
296.6	2945.7	
296.81	4656.4	
297.01	4950.6	
297.22	3021.4	
297.43	2983.2	
297.64	4530.1	
297.85	4440	
298.06	2510.8	
298.27	2682.2	
298.48	4654.4	
298.69	4472.1	
298.9	3145	
299.11	2880.8	
299.31	4364.2	
299.52	4359.4	
299.73	3348.4	
299.94	3308.8	
300.15	4712.4	
300.36	4434.5	
300.57	3287	
300.78	3289.7	
300.99	4571.1	
301.2	4721.3	
301.4	2918.4	
301.61	3190.1	
301.82	4918.5	
302.03	4992.3	
302.24	3500	
302.45	2837.1	
302.66	4947.2	
302.87	5122.7	
303.08	2945.7	
303.29	3837.2	
303.49	4490.5	
303.7	4616.1	
303.91	2709.5	
304.12	3682.9	
304.33	4317.1	
304.54	4783.4	
304.75	2941.6	
304.96	2788.7	
305.16	4894.6	
305.37	5419.6	
305.58	2653.5	
305.79	2652.1	
306	4923.3	
306.21	4220.9	
306.42	2874	
306.63	4257	
306.83	4542.4	
307.04	4961.5	
307.25	3216	
307.46	3149.8	
307.67	4194.9	
307.88	4967	
308.09	3028.9	
308.29	3003	
308.5	4745.8	
308.71	5059.8	
308.92	3096.5	
309.13	2804.4	
309.34	4684.4	
309.55	4627	
309.75	3618.1	
309.96	3274.7	
310.17	4995	
310.38	4442	
310.59	3461.7	
310.8	2813.2	
311.01	4764.3	
311.21	4638.6	
311.42	2863.7	
311.63	2869.2	
311.84	4475.5	
312.05	4727.4	
312.26	3280.2	
312.46	3494.5	
312.67	4584	
312.88	4368.3	
313.09	2842.6	
313.3	2859	
313.51	5209.3	
313.71	5486.5	
313.92	2908.8	
314.13	2912.2	
314.34	4834.6	
314.55	4668	
314.76	3525.9	
314.96	3170.3	
315.17	4796.3	
315.38	4898.1	
315.59	2877.4	
315.8	2780.5	
316.01	5274.2	
316.21	5292.6	
316.42	2807.1	
316.63	3127.2	
316.84	4638	
317.05	5063.9	
317.26	3325.2	
317.46	3018	
317.67	4655.7	
317.88	4960.9	
318.09	3564.8	
318.3	2698.5	
318.5	4526	
318.71	4907.6	
318.92	4345.8	
319.13	3332.7	
319.34	5050.3	
319.54	5122	
319.75	2754.5	
319.96	2640.5	
320.17	4920.6	
320.38	5044.8	
320.58	2663	
320.79	3119.1	
321	5102.2	
321.21	5158.2	
321.42	3152.5	
321.62	2656.2	
321.83	4451.6	
322.04	4687.8	
322.25	3040.6	
322.46	2897.9	
322.66	4741.7	
322.87	4929.5	
323.08	3407.1	
323.29	2838.5	
323.5	5468.1	
323.7	4361.5	
323.91	3796.3	
324.12	3396.2	
324.33	4784.7	
324.53	4911.7	
324.74	3291.8	
324.95	3446	
325.16	4311.7	
325.37	4541	
325.57	2800.9	
325.78	2922.5	
325.99	4758.8	
326.2	4304.1	
326.4	3815.4	
326.61	2644.6	
326.82	4629.1	
327.03	4818.2	
327.24	3847.5	
327.44	3673.4	
327.65	4872.8	
327.86	4098	
328.07	3330	
328.27	2788.7	
328.48	5199.8	
328.69	4362.2	
328.9	3911.6	
329.1	2957.3	
329.31	4607.2	
329.52	5238.7	
329.73	2869.2	
329.93	3151.8	
330.14	4711	
330.35	4838	
330.56	4442	
330.76	3386.7	
330.97	4585.4	
331.18	4878.3	
331.39	3155.9	
331.59	2648	
331.8	5124.7	
332.01	5193	
332.22	2983.9	
332.42	3248.8	
332.63	4774.5	
332.84	4431.8	
333.05	3201.7	
333.25	2894.5	
333.46	4478.9	
333.67	4646.2	
333.88	3052.8	
334.08	3206.4	
334.29	5929.6	
334.5	5105.6	
334.7	2826.2	
334.91	3844	
335.12	4331.5	
335.33	4919.2	
335.53	3127.2	
335.74	4406.5	
335.95	4587.4	
336.16	4365.6	
336.36	3096.5	
336.57	3566.2	
336.78	4302.1	
336.98	5084.4	
337.19	3779.2	
337.4	3050.8	
337.61	5475.6	
337.81	4369	
338.02	2947	
338.23	3592.1	
338.43	5251.7	
338.64	4470.7	
338.85	2927.9	
339.05	3680.9	
339.26	5361.6	
339.47	4257.7	
339.68	2897.9	
339.88	4076.8	
340.09	4924.7	
340.3	5018.9	
340.5	3264.5	
340.71	2650.1	
340.92	4306.9	
341.13	5172.5	
341.33	2827.6	
341.54	3373.7	
341.75	4803.9	
341.95	4562.2	
342.16	3209.2	
342.37	3411.2	
342.57	4328.7	
342.78	4632.5	
342.99	3450.1	
343.19	2647.3	
343.4	4988.2	
343.61	4848.2	
343.81	2997.5	
344.02	2791.4	
344.23	4952.7	
344.43	5242.8	
344.64	3464.5	
344.85	3424.2	
345.06	4835.9	
345.26	5087.8	
345.47	3281.5	
345.68	3766.2	
345.88	4276.8	
346.09	5028.4	
346.3	3318.4	
346.5	2607.1	
346.71	4631.1	
346.92	4457.1	
347.12	2752.5	
347.33	3241.3	
347.54	4999.8	
347.74	5366.4	
347.95	3232.4	
348.16	2528.6	
348.36	4517.8	
348.57	4366.3	
348.78	3332.7	
348.98	3419.4	
349.19	4666	
349.39	4235.2	
349.6	2749.1	
349.81	2912.9	
350.01	4901.5	
350.22	4396.3	
350.43	3138.2	
350.63	3663.8	
350.84	4663.2	
351.05	4483	
351.25	2877.4	
351.46	2669.2	
351.67	5032.5	
351.87	4400.4	
352.08	3083.6	
352.29	3390.8	
352.49	4987.5	
352.7	5102.9	
352.9	2801.6	
353.11	3431	
353.32	5414.8	
353.52	4534.2	
353.73	2777	
353.94	3453.6	
354.14	4860.5	
354.35	4686.4	
354.55	2923.8	
354.76	3128.6	
354.97	4889.9	
355.17	4638.6	
355.38	2833	
355.59	3589.4	
355.79	4385.4	
356	4696.7	
356.2	3127.2	
356.41	2810.5	
356.62	4287.1	
356.82	4659.1	
357.03	3349.1	
357.24	3076	
357.44	4384	
357.65	4532.8	
357.85	3926	
358.06	3202.3	
358.27	4256.4	
358.47	4384	
358.68	2706	
358.88	3337.5	
359.09	4870.1	
359.3	5038.7	
359.5	3763.5	
359.71	3424.2	
359.91	5331.5	
360.12	4939.7	
360.33	3342.3	
360.53	3660.4	
360.74	4474.1	
360.94	4494.6	
361.15	3493.8	
361.36	2975.7	
361.56	4999.1	
361.77	4634.6	
361.97	3805.1	
362.18	3039.9	
362.38	5047.6	
362.59	4389.5	
362.8	2924.5	
363	2859.6	
363.21	4175.1	
363.41	4676.9	
363.62	3308.2	
363.83	3928	
364.03	4873.5	
364.24	5317.2	
364.44	4085	
364.65	4035.9	
364.85	4605.2	
365.06	4397	
365.27	2980.5	
365.47	3072	
365.68	5243.5	
365.88	4631.1	
366.09	3308.8	
366.29	3128.6	
366.5	4741	
366.71	5110.4	
366.91	4019.5	
367.12	3419.4	
367.32	5554.1	
367.53	4963.6	
367.73	3411.2	
367.94	4084.3	
368.14	4968.4	
368.35	5487.2	
368.56	3315.7	
368.76	2946.3	
368.97	5078.3	
369.17	6119.3	
369.38	3016	
369.58	3233.1	
369.79	4311.7	
369.99	5255.8	
370.2	3967.6	
370.4	3261.7	
370.61	4779.3	
370.82	5664	
371.02	3253.5	
371.23	2742.9	
371.43	4334.9	
371.64	5240.1	
371.84	3248.8	
372.05	4018.1	
372.25	6059.9	
372.46	4974.5	
372.66	3247.4	
372.87	3230.3	
373.07	5014.1	
373.28	6232	
373.48	3981.3	
373.69	3745.1	
373.9	4651.6	
374.1	4682.3	
374.31	3900	
374.51	3567.6	
374.72	5237.3	
374.92	4471.4	
375.13	4010.6	
375.33	3444.7	
375.54	4926.7	
375.74	4607.9	
375.95	3570.3	
376.15	4345.8	
376.36	5011.4	
376.56	4871.4	
376.77	3565.5	
376.97	3865.9	
377.18	5758.9	
377.38	5066.7	
377.59	4044.7	
377.79	3257	
378	4874.8	
378.2	5122.7	
378.41	3297.9	
378.61	3218.7	
378.82	5304.9	
379.02	4672.1	
379.23	3360	
379.43	4105.5	
379.64	5391.6	
379.84	4999.1	
380.05	3274	
380.25	3231.7	
380.46	5150.6	
380.66	4787.5	
380.87	4164.2	
381.07	4453.6	
381.28	5543.2	
381.48	5082.4	
381.69	3269.2	
381.89	3342.3	
382.1	4397.7	
382.3	5136.3	
382.51	4076.8	
382.71	4622.9	
382.91	4993.6	
383.12	5373.2	
383.32	3502	
383.53	3637.2	
383.73	4956.1	
383.94	4930.1	
384.14	3659	
384.35	3042.6	
384.55	4754.7	
384.76	5003.2	
384.96	3467.2	
385.17	3827	
385.37	5049.6	
385.58	4567	
385.78	3719.8	
385.98	2977.7	
386.19	4758.1	
386.39	5041.4	
386.6	3365.5	
386.8	3529.3	
387.01	5145.2	
387.21	5143.8	
387.42	3824.2	
387.62	4130.1	
387.83	4611.3	
388.03	4912.4	
388.23	3506.8	
388.44	4027	
388.64	4384.7	
388.85	4496	
389.05	3753.9	
389.26	4199	
389.46	5950	
389.67	5395.7	
389.87	3786.7	
390.07	3812.6	
390.28	4818.2	
390.48	4588.8	
390.69	3287	
390.89	3461.1	
391.1	4742.4	
391.3	5336.3	
391.5	4327.4	
391.71	4603.8	
391.91	5177.3	
392.12	5790.3	
392.32	4317.8	
392.53	3770.3	
392.73	4876.9	
392.93	4833.2	
393.14	3556	
393.34	4064.5	
393.55	5195	
393.75	4831.8	
393.95	3558	
394.16	3480.2	
394.36	4781.3	
394.57	5182.7	
394.77	3223.5	
394.98	3459.7	
395.18	4711.7	
395.38	4856.4	
395.59	4164.9	
395.79	3426.3	
396	4864.6	
396.2	5157.5	
396.4	4001	
396.61	3962.1	
396.81	5221.6	
397.02	4702.1	
397.22	4186	
397.42	4176.5	
397.63	5317.9	
397.83	4730.1	
398.04	3368.2	
398.24	3766.2	
398.44	5072.1	
398.65	4427	
398.85	3287	
399.05	3335.5	
399.26	4752.7	
399.46	5919.3	
399.67	3663.8	
399.87	3439.9	
400.07	4956.8	
400.28	5194.3	
400.48	3489.7	
400.69	4212	
400.89	5349.3	
401.09	5692.7	
401.3	3463.8	
401.5	4215.4	
401.7	5803.3	
401.91	6020.3	
402.11	3745.7	
402.32	3816	
402.52	5384.1	
402.72	5297.4	
402.93	3981.9	
403.13	3233.1	
403.33	5885.9	
403.54	4954.7	
403.74	3752.6	
403.94	4329.4	
404.15	5042.1	
404.35	5825.1	
404.56	3601.7	
404.76	4809.3	
404.96	5386.2	
405.17	5198.4	
405.37	4478.9	
405.57	3981.9	
405.78	5406.6	
405.98	5016.8	
406.18	3601.7	
406.39	4190.1	
406.59	5365.7	
406.79	5023	
407	3467.9	
407.2	3562.8	
407.4	5663.3	
407.61	5466.7	
407.81	3578.5	
408.01	4934.2	
408.22	4702.1	
408.42	5987.6	
408.62	4311.7	
408.83	3934.1	
409.03	5104.2	
409.23	5036	
409.44	4021.5	
409.64	4142.4	
409.84	5851.7	
410.05	5653.8	
410.25	4142.4	
410.45	3992.9	
410.66	5383.4	
410.86	7083.9	
411.06	4292.5	
411.27	4187.4	
411.47	6911.9	
411.67	5535.7	
411.88	4332.1	
412.08	4446.8	
412.28	5872.9	
412.49	6197.2	
412.69	4160.8	
412.89	4203.1	
413.09	6171.9	
413.3	6054.5	
413.5	4243.4	
413.7	4024.3	
413.91	5627.8	
414.11	6161.7	
414.31	4162.8	
414.52	4418.2	
414.72	5935.7	
414.92	5869.5	
415.12	4093.9	
415.33	4493.9	
415.53	6086.6	
415.73	6232.7	
415.94	4706.2	
416.14	4373.8	
416.34	5496.1	
416.55	5251	
416.75	5157.5	
416.95	4782	
417.15	6169.8	
417.36	6631.3	
417.56	5403.2	
417.76	4685.1	
417.97	6348	
418.17	6176	
418.37	4519.9	
418.57	4451.6	
418.78	6167.8	
418.98	5847	
419.18	5034.6	
419.38	5023	
419.59	5737.7	
419.79	5575.9	
419.99	4300.7	
420.2	4650.3	
420.4	6139.1	
420.6	6248.4	
420.8	4281.6	
421.01	4170.3	
421.21	6083.1	
421.41	6109.8	
421.61	4545.1	
421.82	4380.6	
422.02	5751.4	
422.22	6414.9	
422.42	4899.4	
422.63	4625.7	
422.83	5814.9	
423.03	6596.5	
423.23	4684.4	
423.44	3948.5	
423.64	5805.3	
423.84	5578	
424.04	4309.6	
424.25	4083.6	
424.45	6474.3	
424.65	6354.8	
424.85	3963.5	
425.06	4306.2	
425.26	6573.3	
425.46	5754.8	
425.66	4650.3	
425.87	4441.4	
426.07	6249.7	
426.27	6173.3	
426.47	4554.7	
426.67	4106.9	
426.88	6514.6	
427.08	6110.5	
427.28	4737	
427.48	4031.1	
427.69	5438	
427.89	5828.5	
428.09	4674.8	
428.29	4111	
428.5	6200.6	
428.7	5971.2	
428.9	4019.5	
429.1	4345.8	
429.3	5956.2	
429.51	6124.8	
429.71	4231.8	
429.91	4774.5	
430.11	6164.4	
430.31	6295.5	
430.52	4455	
430.72	4625	
430.92	6445	
431.12	6143.2	
431.32	4206.5	
431.53	4532.2	
431.73	5398.4	
431.93	6582.2	
432.13	4188.1	
432.33	4074.8	
432.54	5821.7	
432.74	5909.1	
432.94	4029.7	
433.14	4874.8	
433.34	6189.6	
433.55	5911.8	
433.75	4721.3	
433.95	5924.1	
434.15	6042.2	
434.35	5850.4	
434.56	4184.7	
434.76	3904.1	
434.96	5980.1	
435.16	6111.8	
435.36	4119.1	
435.56	4942.4	
435.77	5763.7	
435.97	5827.2	
436.17	5352.7	
436.37	4864.6	
436.57	5800.5	
436.78	5716.6	
436.98	5289.2	
437.18	5322	
437.38	6115.9	
437.58	5877	
437.78	5313.1	
437.99	4489.8	
438.19	6231.3	
438.39	6812.2	
438.59	4413.4	
438.79	3989.4	
438.99	6703.7	
439.2	5786.9	
439.4	4107.5	
439.6	4036.5	
439.8	6077	
440	6790.4	
440.2	4853.7	
440.4	4840.7	
440.61	6409.5	
440.81	6665.5	
441.01	4249.5	
441.21	4889.9	
441.41	6651.8	
441.61	6341.9	
441.81	5118.6	
442.02	5788.2	
442.22	6949.4	
442.42	6458.6	
442.62	4319.8	
442.82	4403.8	
443.02	6724.2	
443.22	6130.3	
443.43	4642.1	
443.63	4343.1	
443.83	5960.3	
444.03	5989.6	
444.23	5134.3	
444.43	4956.8	
444.63	6269.5	
444.83	7022.5	
445.04	4484.4	
445.24	5289.2	
445.44	6557.6	
445.64	6467.5	
445.84	4979.3	
446.04	5016.8	
446.24	6004.6	
446.44	6698.2	
446.65	4450.9	
446.85	4697.4	
447.05	6079.1	
447.25	6687.3	
447.45	4831.8	
447.65	4328	
447.85	6366.5	
448.05	5902.9	
448.25	4995.7	
448.46	4877.6	
448.66	6247.7	
448.86	5962.3	
449.06	4330.1	
449.26	4999.8	
449.46	6422.4	
449.66	5842.9	
449.86	4760.8	
450.06	4702.1	
450.26	5934.3	
450.47	6382.2	
450.67	4863.2	
450.87	5051	
451.07	6548.7	
451.27	6282.5	
451.47	4423.6	
451.67	5010.7	
451.87	6010.1	
452.07	6797.2	
452.27	4606.6	
452.47	4604.5	
452.67	6273.6	
452.88	6539.8	
453.08	4156	
453.28	5470.8	
453.48	7071	
453.68	6124.8	
453.88	4515.1	
454.08	4683	
454.28	6528.2	
454.48	6250.4	
454.68	4952.7	
454.88	5396.4	
455.08	6664.1	
455.28	6311.2	
455.48	4471.4	
455.68	4999.1	
455.89	7026.6	
456.09	6667.5	
456.29	4724.7	
456.49	4804.5	
456.69	6824.5	
456.89	6214.2	
457.09	5116.5	
457.29	5296.7	
457.49	6511.9	
457.69	6619.7	
457.89	5005.9	
458.09	4564.2	
458.29	6363	
458.49	6972.7	
458.69	5227.8	
458.89	4797	
459.09	7064.1	
459.29	7193.8	
459.49	4919.9	
459.69	5540.4	
459.9	6800.6	
460.1	6467.5	
460.3	4906.3	
460.5	4661.2	
460.7	6793.8	
460.9	6379.4	
461.1	4538.3	
461.3	5317.9	
461.5	7312.6	
461.7	6952.9	
461.9	4840	
462.1	5101.5	
462.3	6635.4	
462.5	6974.7	
462.7	4862.6	
462.9	4971.8	
463.1	7698.3	
463.3	7433.4	
463.5	5076.9	
463.7	5764.3	
463.9	6832.7	
464.1	7049.1	
464.3	5162.2	
464.5	5309.7	
464.7	7208.2	
464.9	6965.1	
465.1	6324.1	
465.3	5646.9	
465.5	7428.7	
465.7	7391.8	
465.9	5724.1	
466.1	5569.1	
466.3	7304.4	
466.5	7242.3	
466.7	6300.2	
466.9	5508.4	
467.1	7312.6	
467.3	7832.1	
467.5	6267.5	
467.7	5515.9	
467.9	8000.7	
468.1	8539.3	
468.3	5946.6	
468.5	6262	
468.7	7146	
468.9	7160.4	
469.1	5711.1	
469.3	6183.5	
469.5	8594.6	
469.7	6960.4	
469.9	6007.4	
470.1	5563	
470.3	7371.3	
470.5	7241.6	
470.7	6525.5	
470.9	5677.7	
471.1	7089.4	
471.3	7423.9	
471.5	5441.5	
471.69	6834.8	
471.89	7072.3	
472.09	6646.3	
472.29	6012.2	
472.49	6201.2	
472.69	6851.1	
472.89	7408.2	
473.09	5459.2	
473.29	5502.9	
473.49	7009.5	
473.69	6975.4	
473.89	6180.1	
474.09	5623.7	
474.29	7930.4	
474.49	7679.2	
474.69	6184.2	
474.89	5724.8	
475.09	7114.6	
475.29	7073.7	
475.49	5330.2	
475.69	5524.1	
475.88	8189.8	
476.08	7332.4	
476.28	5266.7	
476.48	5565.7	
476.68	7696.9	
476.88	7477.8	
477.08	5520.6	
477.28	5687.2	
477.48	7200.7	
477.68	7440.3	
477.88	5289.2	
478.08	5594.4	
478.28	7816.4	
478.48	7191.8	
478.67	5634.6	
478.87	5123.3	
479.07	7664.2	
479.27	7287.4	
479.47	5812.1	
479.67	5803.3	
479.87	7628.7	
480.07	7866.2	
480.27	5289.9	
480.47	6377.4	
480.67	7225.2	
480.87	7744.1	
481.06	5431.9	
481.26	6034	
481.46	7344.7	
481.66	7211.6	
481.86	5773.9	
482.06	6532.3	
482.26	7134.4	
482.46	7818.5	
482.66	5756.8	
482.86	5560.9	
483.05	7403.4	
483.25	6918.7	
483.45	7505.8	
483.65	5724.8	
483.85	6952.2	
484.05	7264.1	
484.25	6129.6	
484.45	6443.6	
484.65	7781.6	
484.84	7889.5	
485.04	5720	
485.24	5739.8	
485.44	8132.5	
485.64	6885.3	
485.84	5198.4	
486.04	6203.3	
486.24	7193.8	
486.44	7419.1	
486.63	5298.1	
486.83	5895.4	
487.03	7144	
487.23	7275.8	
487.43	5324	
487.63	6901	
487.83	7354.3	
488.02	7922.2	
488.22	6033.3	
488.42	6479.8	
488.62	7937.9	
488.82	7153.6	
489.02	5791.7	
489.22	5914.5	
489.41	7846.5	
489.61	7644.4	
489.81	5578	
490.01	5615.5	
490.21	7884.7	
490.41	8269	
490.61	5655.8	
490.8	5703.6	
491	7518.1	
491.2	7073	
491.4	6105	
491.6	5603.2	
491.8	7490.8	
491.99	7528.3	
492.19	5424.4	
492.39	5630.5	
492.59	7831.4	
492.79	7909.9	
492.99	6235.4	
493.18	5640.8	
493.38	8008.2	
493.58	8383.7	
493.78	6112.5	
493.98	5861.3	
494.18	7745.4	
494.37	7320.1	
494.57	6345.3	
494.77	6224.5	
494.97	7899.7	
495.17	8016.4	
495.37	5980.8	
495.56	6212.2	
495.76	8290.9	
495.96	8062.9	
496.16	6969.9	
496.36	6227.2	
496.55	8160.5	
496.75	7786.4	
496.95	6399.9	
497.15	6313.9	
497.35	8271.7	
497.54	8188.5	
497.74	6175.3	
497.94	7320.8	
498.14	8705.2	
498.34	8520.9	
498.53	5992.4	
498.73	6604	
498.93	7650.5	
499.13	8104.5	
499.33	6539.2	
499.52	6689.3	
499.72	8222.6	
499.92	8357.1	
500.12	6234.7	
500.32	6426.5	
500.51	8415.1	
500.71	8168	
500.91	7010.2	
501.11	6767.9	
501.31	8378.9	
501.5	8705.9	
501.7	7300.3	
501.9	6522.8	
502.1	8206.9	
502.29	8433.5	
502.49	6809.5	
502.69	7183.6	
502.89	8353.7	
503.09	8415.8	
503.28	6189.6	
503.48	6322.8	
503.68	7946.8	
503.88	7898.3	
504.07	6922.8	
504.27	6598.6	
504.47	8150.9	
504.67	8233.5	
504.86	6868.2	
505.06	6694.1	
505.26	8015.7	
505.46	9097.1	
505.65	6568.5	
505.85	6702.3	
506.05	7940.7	
506.25	8261.5	
506.44	6131.6	
506.64	6651.8	
506.84	7836.9	
507.04	8387.1	
507.23	6294.1	
507.43	6569.2	
507.63	9130.5	
507.83	7933.1	
508.02	6678.4	
508.22	6275.7	
508.42	9387.2	
508.62	7729.7	
508.81	6574	
509.01	6967.2	
509.21	7684.7	
509.4	7963.2	
509.6	6763.1	
509.8	6295.5	
510	7888.1	
510.19	8680.7	
510.39	6143.2	
510.59	6261.3	
510.79	7766.6	
510.98	8672.5	
511.18	6382.8	
511.38	6389.7	
511.57	8441.7	
511.77	8187.1	
511.97	6807.4	
512.17	6258.6	
512.36	8367.3	
512.56	8240.3	
512.76	6234	
512.95	6032.6	
513.15	8499.1	
513.35	7373.4	
513.55	6842.3	
513.74	6220.4	
513.94	8428.8	
514.14	7934.5	
514.33	6813.6	
514.53	6739.2	
514.73	7937.2	
514.92	8017.8	
515.12	6292	
515.32	6115.9	
515.51	8185.7	
515.71	8392.6	
515.91	7430.7	
516.11	6170.5	
516.3	9275.9	
516.5	7873.1	
516.7	6650.4	
516.89	7044.3	
517.09	7925.6	
517.29	7960.5	
517.48	6933.7	
517.68	6381.5	
517.88	7684.7	
518.07	8207.6	
518.27	6789.7	
518.47	6082.5	
518.66	8581	
518.86	7647.8	
519.06	6092.7	
519.25	6294.8	
519.45	7858.1	
519.65	8797.4	
519.84	6754.2	
520.04	7300.3	
520.24	9151	
520.43	8262.2	
520.63	6601.3	
520.83	6434	
521.02	7873.1	
521.22	8284.7	
521.42	6797.9	
521.61	7169.3	
521.81	7966.6	
522.01	8148.2	
522.2	6649.8	
522.4	6465.4	
522.6	8414.4	
522.79	7503.1	
522.99	6552.1	
523.18	6116.6	
523.38	8266.3	
523.58	8189.8	
523.77	7413.6	
523.97	6238.1	
524.17	9480.7	
524.36	8983.1	
524.56	7085.3	
524.76	6846.4	
524.95	8263.6	
525.15	8064.2	
525.34	6711.2	
525.54	6784.2	
525.74	8574.8	
525.93	7870.3	
526.13	7657.4	
526.33	6811.5	
526.52	8877.9	
526.72	8474.5	
526.91	7675.1	
527.11	7232.7	
527.31	8801.5	
527.5	9167.4	
527.7	7134.4	
527.89	6460.7	
528.09	8184.4	
528.29	8475.2	
528.48	7356.3	
528.68	7086.7	
528.87	8851.3	
529.07	8844.5	
529.27	7177.4	
529.46	6798.6	
529.66	8743.5	
529.85	8898.4	
530.05	6799.3	
530.25	7279.2	
530.44	9754.5	
530.64	8576.2	
530.83	7088.7	
531.03	7180.2	
531.23	8976.2	
531.42	8855.4	
531.62	7718.8	
531.81	7120.1	
532.01	9033.6	
532.21	9294.4	
532.4	6971.3	
532.6	7257.3	
532.79	9775.6	
532.99	9104.6	
533.18	7293.5	
533.38	8051.2	
533.58	8761.2	
533.77	9359.9	
533.97	7441.6	
534.16	7940	
534.36	9561.3	
534.55	8852	
534.75	8141.4	
534.95	7419.8	
535.14	9523.7	
535.34	8839	
535.53	7144	
535.73	8553	
535.92	9951.1	
536.12	9092.3	
536.31	7308.5	
536.51	8175.5	
536.71	9311.4	
536.9	9025.4	
537.1	7395.2	
537.29	7520.1	
537.49	9573.6	
537.68	8862.9	
537.88	7869	
538.07	7254.6	
538.27	9148.3	
538.46	9782.5	
538.66	7109.9	
538.86	7518.8	
539.05	9200.8	
539.25	9454.8	
539.44	7839.6	
539.64	7432.8	
539.83	9084.1	
540.03	9795.4	
540.22	7389.1	
540.42	7477.8	
540.61	9241.8	
540.81	9175.6	
541	7803.4	
541.2	8290.9	
541.39	8818.6	
541.59	9103.9	
541.78	8071.7	
541.98	7376.8	
542.18	8686.1	
542.37	8665.6	
542.57	7668.3	
542.76	7960.5	
542.96	8799.4	
543.15	9194	
543.35	7750.9	
543.54	7219.1	
543.74	9357.9	
543.93	9088.2	
544.13	7558.4	
544.32	8290.2	
544.52	9304.6	
544.71	8637.6	
544.91	6981.5	
545.1	7778.9	
545.3	8698.4	
545.49	9227.5	
545.69	6850.5	
545.88	7342.7	
546.08	9960.6	
546.27	9514.9	
546.47	7746.1	
546.66	7212.3	
546.86	9325.1	
547.05	9792.7	
547.24	7314	
547.44	7203.4	
547.63	8609	
547.83	9355.1	
548.02	7531.1	
548.22	7690.8	
548.41	8462.9	
548.61	9423.4	
548.8	7163.1	
549	7088.7	
549.19	9003.6	
549.39	9315.5	
549.58	6923.5	
549.78	7340.6	
549.97	9296.4	
550.17	8796.7	
550.36	8069.7	
550.55	8714.8	
550.75	8836.3	
550.94	9544.9	
551.14	7116.7	
551.33	7326.9	
551.53	8419.2	
551.72	9024.7	
551.92	7365.9	
552.11	7241.6	
552.31	9155.8	
552.5	9104.6	
552.69	8383	
552.89	6997.2	
553.08	9131.9	
553.28	8897.7	
553.47	7213.6	
553.67	8064.2	
553.86	9400.2	
554.06	8264.9	
554.25	6725.5	
554.44	7022.5	
554.64	10100	
554.83	9714.2	
555.03	7105.1	
555.22	7342	
555.42	9227.5	
555.61	9084.8	
555.8	7161.1	
556	7305.1	
556.19	8486.8	
556.39	9227.5	
556.58	7191.1	
556.78	7247.8	
556.97	8925.7	
557.16	8665	
557.36	8057.4	
557.55	6929	
557.75	8223.3	
557.94	9503.9	
558.13	6986.3	
558.33	6913.9	
558.52	9378.3	
558.72	8487.5	
558.91	6954.2	
559.1	7107.1	
559.3	8326.4	
559.49	8086.1	
559.69	6646.3	
559.88	7210.9	
560.07	8883.4	
560.27	9192	
560.46	7454.6	
560.66	7562.5	
560.85	8842.4	
561.04	8097.7	
561.24	6926.2	
561.43	6969.2	
561.63	8290.2	
561.82	8498.4	
562.01	7888.1	
562.21	7129.7	
562.4	8899.1	
562.59	9445.2	
562.79	7178.8	
562.98	6832.7	
563.18	8683.4	
563.37	9737.4	
563.56	7438.2	
563.76	6909.8	
563.95	8538.7	
564.14	8372.8	
564.34	7124.9	
564.53	7024.5	
564.73	8890.9	
564.92	8983.1	
565.11	7230	
565.31	6868.9	
565.5	9224.7	
565.69	8374.8	
565.89	7080.5	
566.08	7230.7	
566.27	9129.2	
566.47	9441.8	
566.66	7726.3	
566.85	6789.7	
567.05	9023.4	
567.24	8566.7	
567.44	7118.1	
567.63	7956.4	
567.82	9125.1	
568.02	8832.2	
568.21	7058.7	
568.4	7387	
568.6	8796.7	
568.79	8773.5	
568.98	7023.2	
569.18	7060.7	
569.37	8751.7	
569.56	10151	
569.76	7305.8	
569.95	7967.3	
570.14	9102.5	
570.34	9004.2	
570.53	6947.4	
570.72	7082.6	
570.91	9439.8	
571.11	8778.3	
571.3	7276.4	
571.49	8014.4	
571.69	8901.2	
571.88	8509.3	
572.07	7720.8	
572.27	7619.8	
572.46	8444.5	
572.65	9225.4	
572.85	7191.8	
573.04	7413.6	
573.23	9514.2	
573.43	8916.9	
573.62	7054.6	
573.81	7492.2	
574	9094.3	
574.2	8849.3	
574.39	7294.2	
574.58	7351.5	
574.78	9664.4	
574.97	9102.5	
575.16	7734.5	
575.36	7888.1	
575.55	9481.4	
575.74	9463	
575.93	7096.2	
576.13	7955	
576.32	9080	
576.51	9387.9	
576.71	7488.7	
576.9	8516.1	
577.09	9704	
577.28	9306	
577.48	7765.2	
577.67	7079.1	
577.86	9066.4	
578.05	9380.4	
578.25	7595.9	
578.44	7579.5	
578.63	9161.9	
578.83	10036	
579.02	7212.9	
579.21	8383	
579.4	9308.7	
579.6	9057.5	
579.79	7728.4	
579.98	9254.1	
580.17	9602.2	
580.37	9777.7	
580.56	7367.9	
580.75	7825.3	
580.94	9768.1	
581.14	9800.9	
581.33	8191.9	
581.52	7458.7	
581.71	9399.5	
581.91	10004	
582.1	7372.7	
582.29	7686	
582.48	9244.5	
582.68	9195.4	
582.87	8049.2	
583.06	7819.8	
583.25	9582.4	
583.45	9124.4	
583.64	8227.4	
583.83	8688.8	
584.02	9303.9	
584.21	9486.2	
584.41	8135.2	
584.6	7767.9	
584.79	9340.8	
584.98	9790.7	
585.18	7461.4	
585.37	7382.2	
585.56	9024.7	
585.75	9546.3	
585.94	7535.2	
586.14	8065.6	
586.33	10030	
586.52	9306	
586.71	7952.3	
586.91	7695.6	
587.1	8788.5	
587.29	9616.6	
587.48	7651.2	
587.67	7619.8	
587.87	9529.2	
588.06	9340.8	
588.25	8525.7	
588.44	7920.9	
588.63	9172.9	
588.83	9484.8	
589.02	7585.7	
589.21	7452.6	
589.4	9015.8	
589.59	8944.8	
589.78	6912.6	
589.98	7193.1	
590.17	8587.1	
590.36	8956.4	
590.55	6591.7	
590.74	7150.1	
590.94	9737.4	
591.13	8776.2	
591.32	6985.6	
591.51	6514.6	
591.7	8964	
591.89	8699.8	
592.09	6658.6	
592.28	6987.7	
592.47	8172.1	
592.66	9574.9	
592.85	6778.1	
593.05	6913.9	
593.24	8664.3	
593.43	9192.6	
593.62	7025.2	
593.81	7320.8	
594	8630.8	
594.19	8854.7	
594.39	6873.7	
594.58	6795.8	
594.77	8884.1	
594.96	9229.5	
595.15	6864.8	
595.34	7268.9	
595.54	8910	
595.73	8207.6	
595.92	6371.9	
596.11	7129	
596.3	9178.3	
596.49	8285.4	
596.68	6915.3	
596.88	7259.4	
597.07	8959.2	
597.26	8112	
597.45	6557.6	
597.64	7482.6	
597.83	8408.3	
598.02	8796	
598.22	6660.7	
598.41	7256	
598.6	8684.1	
598.79	8210.3	
598.98	6681.2	
599.17	7331.7	
599.36	8729.1	
599.55	9340.8	
599.74	8026	
599.94	7918.8	
600.13	8991.9	
600.32	8211	
600.51	6507.1	
600.7	6638.8	
600.89	9402.2	
601.08	9522.4	
601.27	6524.8	
601.47	7094.8	
601.66	8959.9	
601.85	9344.9	
602.04	7049.8	
602.23	7154.2	
602.42	8249.2	
602.61	8751	
602.8	6940.6	
602.99	6726.9	
603.18	8520.2	
603.37	8602.2	
603.57	7107.8	
603.76	7486	
603.95	9157.8	
604.14	8754.4	
604.33	6774	
604.52	6925.5	
604.71	8626.7	
604.9	8353	
605.09	7461.4	
605.28	7273	
605.47	9090.9	
605.66	8829.5	
605.86	7167.9	
606.05	6764.4	
606.24	8999.5	
606.43	7960.5	
606.62	7053.9	
606.81	7511.3	
607	8985.1	
607.19	8432.9	
607.38	6659.3	
607.57	6756.9	
607.76	8170.7	
607.95	7901.1	
608.14	7051.8	
608.33	7490.1	
608.52	8236.9	
608.72	8862.9	
608.91	6524.8	
609.1	6495.5	
609.29	8341.4	
609.48	7972.1	
609.67	7131.7	
609.86	6507.1	
610.05	8110.6	
610.24	8335.9	
610.43	6418.3	
610.62	6144.6	
610.81	8996.7	
611	8917.5	
611.19	6529.6	
611.38	7013.6	
611.57	8457.4	
611.76	9301.9	
611.95	6264.1	
612.14	6268.1	
612.33	8323.6	
612.52	7982.3	
612.71	6817.7	
612.9	6143.2	
613.09	7711.3	
613.28	9377.6	
613.47	6673.6	
613.66	7195.2	
613.85	8416.5	
614.04	8105.9	
614.24	6591.7	
614.43	5963.7	
614.62	8495.7	
614.81	8464.9	
615	6862.7	
615.19	6972	
615.38	7985	
615.57	8217.8	
615.76	6800.6	
615.95	7545.4	
616.14	8572.1	
616.33	8329.8	
616.52	7045.7	
616.71	7180.2	
616.9	8495.7	
617.09	8387.8	
617.28	6642.9	
617.47	7445.7	
617.66	7899	
617.85	7828.7	
618.04	7208.2	
618.22	6823.1	
618.41	8159.1	
618.6	8839.7	
618.79	6762.4	
618.98	6631.3	
619.17	9015.8	
619.36	7704.5	
619.55	6755.6	
619.74	6886	
619.93	8571.4	
620.12	8146.1	
620.31	7206.1	
620.5	7362.4	
620.69	8899.1	
620.88	9243.2	
621.07	7767.3	
621.26	7230	
621.45	8761.2	
621.64	8639	
621.83	7281.9	
622.02	6688	
622.21	8845.9	
622.4	8600.8	
622.59	7686	
622.78	7514	
622.97	8336.6	
623.16	9012.4	
623.35	7311.9	
623.54	6668.9	
623.72	8499.8	
623.91	8593.3	
624.1	7455.3	
624.29	6576.7	
624.48	9306	
624.67	8852.7	
624.86	7380.9	
625.05	6707.1	
625.24	9445.9	
625.43	8396	
625.62	8632.2	
625.81	6957.6	
626	9029.5	
626.19	8540.7	
626.38	7393.8	
626.56	7038.9	
626.75	8439	
626.94	8983.1	
627.13	7537.2	
627.32	6528.9	
627.51	8933.2	
627.7	9743.6	
627.89	6715.3	
628.08	7567.9	
628.27	8281.3	
628.46	8518.9	
628.65	6868.2	
628.83	6716	
629.02	8901.8	
629.21	8320.2	
629.4	7165.2	
629.59	7200.7	
629.78	8348.2	
629.97	8972.8	
630.16	7324.9	
630.35	6973.3	
630.54	9377	
630.72	9243.2	
630.91	6923.5	
631.1	7283.3	
631.29	8751	
631.48	8823.3	
631.67	7574.1	
631.86	7011.6	
632.05	8632.2	
632.24	8614.4	
632.42	6822.5	
632.61	7206.8	
632.8	8605.6	
632.99	8286.8	
633.18	7278.5	
633.37	7494.9	
633.56	8802.9	
633.75	8741.4	
633.93	7320.1	
634.12	7172	
634.31	9449.3	
634.5	9066.4	
634.69	7139.9	
634.88	7473.7	
635.07	8628.8	
635.25	9032.2	
635.44	7719.5	
635.63	7843.7	
635.82	8603.5	
636.01	8114.7	
636.2	7691.5	
636.39	7402	
636.57	9514.9	
636.76	9062.9	
636.95	7045.7	
637.14	7900.4	
637.33	8911.4	
637.52	9441.8	
637.7	6811.5	
637.89	7603.4	
638.08	8588.5	
638.27	9504.6	
638.46	7511.9	
638.65	7752.2	
638.83	9546.3	
639.02	8467.7	
639.21	7558.4	
639.4	7765.9	
639.59	8841.1	
639.78	8584.4	
639.96	6982.9	
640.15	6989.7	
640.34	8767.4	
640.53	8776.2	
640.72	6831.3	
640.91	6873	
641.09	8317.5	
641.28	9172.9	
641.47	6980.8	
641.66	7609.6	
641.85	8677.2	
642.03	8824.7	
642.22	7384.3	
642.41	7077.1	
642.6	8322.3	
642.79	7837.6	
642.97	6864.8	
643.16	7343.3	
643.35	8379.6	
643.54	8084	
643.73	6789.7	
643.91	7299.6	
644.1	8099	
644.29	8573.5	
644.48	6810.9	
644.67	6871.6	
644.85	8086.7	
645.04	8427.4	
645.23	6510.5	
645.42	6811.5	
645.6	8000	
645.79	8769.4	
645.98	6559	
646.17	5954.8	
646.36	7811	
646.54	8149.6	
646.73	7222.5	
646.92	6356.9	
647.11	7970	
647.29	8597.4	
647.48	6368.5	
647.67	6176.7	
647.86	8797.4	
648.05	8783.1	
648.23	6503	
648.42	7544.7	
648.61	8340	
648.8	8190.5	
648.98	6327.5	
649.17	6470.2	
649.36	7842.4	
649.55	7440.3	
649.73	6300.9	
649.92	6823.1	
650.11	7719.5	
650.3	7939.3	
650.48	6512.5	
650.67	6241.5	
650.86	8198.7	
651.05	7451.9	
651.23	6329.6	
651.42	6340.5	
651.61	7847.1	
651.79	7746.1	
651.98	6565.1	
652.17	6237.4	
652.36	8045.1	
652.54	7451.2	
652.73	6305.7	
652.92	6094.8	
653.11	8069.7	
653.29	8202.1	
653.48	5814.9	
653.67	6537.1	
653.85	7940.7	
654.04	8673.8	
654.23	6541.9	
654.42	6362.4	
654.6	7643	
654.79	8100.4	
654.98	5914.5	
655.16	6324.1	
655.35	7354.3	
655.54	7093.5	
655.73	5861.3	
655.91	5692	
656.1	7893.6	
656.29	7050.5	
656.47	5485.1	
656.66	6705	
656.85	7240.9	
657.03	7234.8	
657.22	5851	
657.41	5928.9	
657.59	7497.6	
657.78	7346.1	
657.97	5759.6	
658.16	6235.4	
658.34	7892.9	
658.53	8260.1	
658.72	6951.5	
658.9	7184.3	
659.09	7636.2	
659.28	7643.7	
659.46	6096.1	
659.65	6043.6	
659.84	7409.6	
660.02	7938.6	
660.21	6062	
660.4	5941.2	
660.58	8133.8	
660.77	7597.3	
660.96	6449.1	
661.14	5732.3	
661.33	8533.9	
661.52	8359.1	
661.7	5705.6	
661.89	8219.2	
662.08	7314	
662.26	7074.4	
662.45	5907.7	
662.64	5958.9	
662.82	7938.6	
663.01	7260	
663.2	5920.7	
663.38	6491.4	
663.57	7822.6	
663.75	7664.9	
663.94	6123.4	
664.13	6940.6	
664.31	7374.7	
664.5	7787.1	
664.69	6455.9	
664.87	6741.2	
665.06	7193.8	
665.25	7621.9	
665.43	6874.3	
665.62	6875	
665.8	7886.7	
665.99	7439.6	
666.18	6229.2	
666.36	6178.7	
666.55	7883.3	
666.74	7756.3	
666.92	5941.8	
667.11	7081.9	
667.29	7509.2	
667.48	7877.2	
667.67	6722.8	
667.85	6105	
668.04	7462.8	
668.22	7372	
668.41	6283.9	
668.6	6488	
668.78	7296.2	
668.97	7393.8	
669.15	6464.1	
669.34	5767.8	
669.53	7285.3	
669.71	7570	
669.9	5812.8	
670.08	6331	
670.27	7158.3	
670.46	7714	
670.64	6469.5	
670.83	6627.9	
671.01	7167.9	
671.2	7605.5	
671.38	5926.8	
671.57	5849.7	
671.76	8059.4	
671.94	8397.4	
672.13	5849.7	
672.31	6563.1	
672.5	7865.6	
672.69	7308.5	
672.87	5904.3	
673.06	6083.1	
673.24	7729	
673.43	7373.4	
673.61	6368.5	
673.8	6109.8	
673.98	7735.2	
674.17	7873.1	
674.36	6578.1	
674.54	6483.2	
674.73	7543.4	
674.91	7838.3	
675.1	6227.2	
675.28	5892.7	
675.47	7423.9	
675.65	7925	
675.84	6200.6	
676.03	6305	
676.21	7376.8	
676.4	6837.5	
676.58	6658.6	
676.77	6497.5	
676.95	8421.9	
677.14	7263.5	
677.32	5864.7	
677.51	5756.8	
677.69	7807.5	
677.88	7129	
678.06	5764.3	
678.25	5967.1	
678.44	7354.9	
678.62	7217.7	
678.81	5711.8	
678.99	6353.5	
679.18	8079.9	
679.36	7808.2	
679.55	6076.3	
679.73	6549.4	
679.92	7759.8	
680.1	7290.8	
680.29	6966.5	
680.47	6081.8	
680.66	7302.4	
680.84	7843	
681.03	5618.3	
681.21	6488.6	
681.4	7285.3	
681.58	7251.2	
681.77	5901.6	
681.95	5859.9	
682.14	7838.3	
682.32	8102.4	
682.51	6588.3	
682.69	5718.6	
682.88	7253.2	
683.06	7704.5	
683.25	6333.7	
683.43	6636.1	
683.62	7472.4	
683.8	7759.8	
683.99	6686.6	
684.17	6226.5	
684.36	8350.9	
684.54	7379.5	
684.73	5730.9	
684.91	5803.3	
685.1	7601.4	
685.28	7136.5	
685.46	6107	
685.65	6141.9	
685.83	7561.8	
686.02	7111.9	
686.2	5609.4	
686.39	5661.3	
686.57	6903	
686.76	7856.7	
686.94	5624.4	
687.13	5782.8	
687.31	7383.6	
687.5	7196.6	
687.68	5348.6	
687.86	6243.6	
688.05	8383	
688.23	6709.8	
688.42	6234	
688.6	5741.8	
688.79	7163.1	
688.97	7103	
689.16	6094.1	
689.34	5334.3	
689.52	7707.9	
689.71	7852.6	
689.89	6346.7	
690.08	5840.8	
690.26	7490.1	
690.45	7281.9	
690.63	6424.5	
690.81	6012.2	
691	7344.7	
691.18	7227.3	
691.37	6165.1	
691.55	7610.3	
691.74	7118.1	
691.92	8608.3	
692.1	6111.8	
692.29	5711.8	
692.47	7301.7	
692.66	6855.9	
692.84	5767.8	
693.02	6163	
693.21	6879.8	
693.39	7297.6	
693.58	6364.4	
693.76	5779.4	
693.94	8020.5	
694.13	7981.6	
694.31	5922	
694.5	6627.9	
694.68	7161.1	
694.86	7492.2	
695.05	6149.4	
695.23	6241.5	
695.42	7789.8	
695.6	9256.8	
695.78	6624.5	
695.97	5976.7	
696.15	7833.5	
696.34	7363.1	
696.52	5918.6	
696.7	6429.3	
696.89	7638.2	
697.07	7233.4	
697.25	6384.9	
697.44	7414.3	
697.62	7597.3	
697.81	7689.4	
697.99	6133	
698.17	6393.1	
698.36	7253.2	
698.54	7631.4	
698.72	6330.3	
698.91	5629.9	
699.09	7286.7	
699.28	7141.9	
699.46	6106.4	
699.64	6006.7	
699.83	7177.4	
700.01	7894.9	
700.19	6546.7	
700.38	5520.6	
700.56	7920.9	
700.74	7159.7	
700.93	5654.4	
701.11	6302.3	
701.29	7578.2	
701.48	8349.6	
701.66	5827.2	
701.84	5956.2	
702.03	7315.3	
702.21	7790.5	
702.39	5718.6	
702.58	6102.3	
702.76	7582.3	
702.94	7700.4	
703.13	5648.3	
703.31	7336.5	
703.49	7159	
703.68	8240.3	
703.86	5745.9	
704.04	6466.1	
704.23	7518.8	
704.41	7804.1	
704.59	5926.1	
704.78	6631.3	
704.96	8656.8	
705.14	7766.6	
705.33	5728.9	
705.51	6220.4	
705.69	7278.5	
705.87	7900.4	
706.06	6517.3	
706.24	5649.7	
706.42	7468.9	
706.61	7714.7	
706.79	6449.7	
706.97	5644.9	
707.16	7134.4	
707.34	7543.4	
707.52	6365.8	
707.7	5838.1	
707.89	7102.4	
708.07	6950.1	
708.25	6412.9	
708.44	6831.3	
708.62	7066.2	
708.8	7813.7	
708.98	6490.7	
709.17	5829.9	
709.35	7363.8	
709.53	7352.9	
709.72	5602.6	
709.9	5681.7	
710.08	7608.9	
710.26	7639.6	
710.45	6718.7	
710.63	5924.8	
710.81	7273.7	
710.99	7311.2	
711.18	6333	
711.36	5782.1	
711.54	7072.3	
711.72	7675.8	
711.91	5902.9	
712.09	5439.4	
712.27	7258.7	
712.45	7664.9	
712.64	5981.4	
712.82	5330.9	
713	6799.9	
713.18	6913.9	
713.37	5322.7	
713.55	6174.6	
713.73	7446.4	
713.91	6475.7	
714.1	5606.7	
714.28	5242.1	
714.46	7183.6	
714.64	6584.2	
714.83	4755.4	
715.01	5219.6	
715.19	6535.1	
715.37	5985.5	
715.55	4859.1	
715.74	5110.4	
715.92	6947.4	
716.1	5580.7	
716.28	5930.2	
716.47	5116.5	
716.65	6109.8	
716.83	6102.9	
717.01	5023	
717.19	5038	
717.38	7537.9	
717.56	5778	
717.74	5110.4	
717.92	4513.7	
718.1	6608.8	
718.29	6075.6	
718.47	4270	
718.65	4719.9	
718.83	6632.7	
719.01	6592.4	
719.2	4259.1	
719.38	5017.5	
719.56	6394.4	
719.74	7537.9	
719.92	4771.8	
720.11	5567.7	
720.29	6537.8	
720.47	5920.7	
720.65	4538.3	
720.83	5048.2	
721.02	6079.7	
721.2	5966.4	
721.38	4988.2	
721.56	4474.1	
721.74	5506.3	
721.92	5556.8	
722.11	5276.3	
722.29	5091.3	
722.47	6488.6	
722.65	5939.8	
722.83	4465.9	
723.01	5020.3	
723.2	5857.9	
723.38	6128.2	
723.56	4064.5	
723.74	4809.3	
723.92	5563.6	
724.1	6318.7	
724.29	4373.8	
724.47	5151.3	
724.65	5595.7	
724.83	5537	
725.01	4259.1	
725.19	4813.4	
725.37	5510.4	
725.56	5552	
725.74	4189.5	
725.92	4270	
726.1	5536.3	
726.28	5702.9	
726.46	4605.2	
726.64	4410.6	
726.83	5781.4	
727.01	5862	
727.19	4108.2	
727.37	4612	
727.55	5800.5	
727.73	6086.6	
727.91	4037.9	
728.09	3953.3	
728.28	6155.5	
728.46	6266.1	
728.64	4680.3	
728.82	4641.4	
729	6801.3	
729.18	6381.5	
729.36	4102.1	
729.54	5701.5	
729.72	7052.5	
729.91	5806	
730.09	5519.3	
730.27	4531.5	
730.45	5748	
730.63	6060.6	
730.81	4940.4	
730.99	4255	
731.17	6595.8	
731.35	5588.9	
731.53	4679.6	
731.71	4442	
731.9	6339.8	
732.08	6329.6	
732.26	4519.2	
732.44	4291.9	
732.62	6459.3	
732.8	6160.3	
732.98	4796.3	
733.16	4177.9	
733.34	6078.4	
733.52	5236	
733.7	4497.3	
733.88	4579.9	
734.07	5991.7	
734.25	5794.4	
734.43	4059.1	
734.61	5205.9	
734.79	6815	
734.97	5699.5	
735.15	4173.8	
735.33	4418.8	
735.51	5914.5	
735.69	5653.8	
735.87	5100.8	
736.05	4483	
736.23	5809.4	
736.41	5558.9	
736.59	4394.9	
736.77	4444.1	
736.95	6068.8	
737.13	5584.1	
737.32	4130.1	
737.5	4314.4	
737.68	6502.3	
737.86	5463.3	
738.04	3983.3	
738.22	5193	
738.4	5444.9	
738.58	5674.2	
738.76	4377.9	
738.94	3708.9	
739.12	5534.3	
739.3	5353.4	
739.48	4761.5	
739.66	4569.7	
739.84	5614.8	
740.02	5631.9	
740.2	3787.4	
740.38	3984	
740.56	5849.7	
740.74	5061.2	
740.92	4524	
741.1	4339	
741.28	5482.4	
741.46	5284.4	
741.64	4024.9	
741.82	4425.7	
742	5489.9	
742.18	5416.2	
742.36	4178.5	
742.54	3895.9	
742.72	5864.7	
742.9	4992.9	
743.08	4424.3	
743.26	3539.6	
743.44	5881.1	
743.62	5850.4	
743.8	4511.7	
743.98	3881.6	
744.16	5563	
744.34	5429.2	
744.52	4401.1	
744.7	4444.1	
744.88	5786.9	
745.06	5382.1	
745.24	4407.9	
745.42	4572.4	
745.6	5802.6	
745.78	5716.6	
745.96	3657	
746.14	3833.8	
746.32	6271.6	
746.5	5736.4	
746.68	4161.5	
746.86	3872	
747.03	5945.9	
747.21	4874.8	
747.39	4259.8	
747.57	3846.1	
747.75	5473.5	
747.93	5706.3	
748.11	3810.6	
748.29	3723.9	
748.47	6621.8	
748.65	5296.7	
748.83	4366.3	
749.01	4123.2	
749.19	5595.7	
749.37	4972.5	
749.55	4039.3	
749.73	4085	
749.91	5385.5	
750.09	5225.1	
750.26	4055	
750.44	3614.7	
750.62	5357.5	
750.8	5304.2	
750.98	3604.4	
751.16	3842	
751.34	5442.1	
751.52	4857.8	
751.7	4268.6	
751.88	3509.5	
752.06	5728.9	
752.24	5524.1	
752.42	3493.2	
752.59	3776.5	
752.77	5314.5	
752.95	6178.7	
753.13	4269.3	
753.31	3814	
753.49	5104.2	
753.67	5305.6	
753.85	4006.5	
754.03	3670.6	
754.21	5545.9	
754.38	5729.5	
754.56	3829	
754.74	3212.6	
754.92	4997.7	
755.1	5421	
755.28	3092.4	
755.46	3212.6	
755.64	6014.9	
755.82	6101.6	
755.99	3416	
756.17	3545	
756.35	4371.7	
756.53	5411.4	
756.71	2718.3	
756.89	3434.4	
757.07	5147.9	
757.25	4549.2	
757.42	3773	
757.6	4330.1	
757.78	5201.8	
757.96	4484.4	
758.14	3555.3	
758.32	3162.1	
758.5	4196.3	
758.67	4731.5	
758.85	3364.1	
759.03	3512.3	
759.21	4919.2	
759.39	4496.7	
759.57	3108.1	
759.75	3975.1	
759.92	5418.9	
760.1	4952	
760.28	4207.2	
760.46	4318.5	
760.64	4667.3	
760.82	4607.2	
760.99	3983.3	
761.17	3440.6	
761.35	5287.9	
761.53	4584.7	
761.71	3568.2	
761.89	4047.5	
762.06	5219.6	
762.24	4759.5	
762.42	3642.7	
762.6	3410.6	
762.78	4824.3	
762.96	5259.2	
763.13	3934.1	
763.31	3627.6	
763.49	5347.9	
763.67	4767.7	
763.85	4220.9	
764.02	4599.7	
764.2	5563	
764.38	4958.1	
764.56	3549.8	
764.74	4113	
764.91	5583.4	
765.09	4792.2	
765.27	3352.5	
765.45	3185.3	
765.63	5739.8	
765.8	5512.4	
765.98	3003	
766.16	3250.8	
766.34	4603.8	
766.52	4351.9	
766.69	3951.9	
766.87	3110.2	
767.05	4894.6	
767.23	5565.7	
767.41	3333.4	
767.58	3523.9	
767.76	5265.3	
767.94	5332.9	
768.12	3341.6	
768.29	3904.8	
768.47	4842.8	
768.65	5386.2	
768.83	3158.7	
769	3885.7	
769.18	4618.9	
769.36	5091.3	
769.54	3931.4	
769.72	3148.4	
769.89	5347.2	
770.07	5315.2	
770.25	3405.1	
770.43	4338.3	
770.6	5864	
770.78	6105.7	
770.96	3516.4	
771.14	3771.7	
771.31	5289.2	
771.49	4821.6	
771.67	2944.3	
771.85	3116.3	
772.02	4324.6	
772.2	4777.9	
772.38	3713	
772.55	3315.7	
772.73	5042.1	
772.91	4820.9	
773.09	3607.8	
773.26	3626.3	
773.44	4905.6	
773.62	4788.2	
773.8	3265.1	
773.97	3060.3	
774.15	5065.3	
774.33	4792.9	
774.5	3145	
774.68	3410.6	
774.86	5143.8	
775.04	4732.9	
775.21	3287	
775.39	3218.7	
775.57	5020.3	
775.74	5142.4	
775.92	3058.3	
776.1	3004.4	
776.27	4927.4	
776.45	5783.5	
776.63	3229	
776.81	2896.5	
776.98	4756.7	
777.16	5458.5	
777.34	3338.2	
777.51	3540.9	
777.69	4728.8	
777.87	4514.4	
778.04	3432.4	
778.22	3794.2	
778.4	4597	
778.57	5016.8	
778.75	2829.6	
778.93	3072	
779.1	4452.3	
779.28	4299.4	
779.46	2861	
779.64	3188	
779.81	5178.6	
779.99	5760.3	
780.17	3716.4	
780.34	3861.8	
780.52	4764.3	
780.69	4876.2	
780.87	3435.8	
781.05	3133.4	
781.22	4783.4	
781.4	4881.7	
781.58	3274	
781.75	2594.8	
781.93	4909.7	
782.11	4369	
782.28	3874.1	
782.46	3299.3	
782.64	4262.5	
782.81	4958.8	
782.99	3333.4	
783.17	3282.9	
783.34	4807.3	
783.52	4386.1	
783.69	3446	
783.87	4039.3	
784.05	4422.2	
784.22	4350.6	
784.4	3956	
784.58	3476.1	
784.75	5098.8	
784.93	4482.3	
785.1	3178.4	
785.28	3638.6	
785.46	4917.9	
785.63	4339	
785.81	3231.7	
785.99	3087.7	
786.16	4554	
786.34	4870.1	
786.51	3109.5	
786.69	3438.5	
786.87	4207.9	
787.04	4569.7	
787.22	3035.1	
787.39	3680.2	
787.57	4402.5	
787.75	5150.6	
787.92	3880.2	
788.1	3753.2	
788.27	4368.3	
788.45	4139.6	
788.63	3619.4	
788.8	2727.2	
788.98	4763.6	
789.15	4072	
789.33	2844.6	
789.5	3176.4	
789.68	5051.7	
789.86	5145.9	
790.03	3564.1	
790.21	3137.5	
790.38	5128.8	
790.56	4517.1	
790.73	3046.7	
790.91	3048.7	
791.09	4409.3	
791.26	4940.4	
791.44	3263.1	
791.61	2912.2	
791.79	4425.7	
791.96	4419.5	
792.14	2910.8	
792.32	2658.3	
792.49	4340.3	
792.67	4478.2	
792.84	2962.7	
793.02	2847.4	
793.19	4807.9	
793.37	5164.3	
793.54	2641.9	
793.72	2836.4	
793.89	5269.4	
794.07	4351.3	
794.25	3227.6	
794.42	2700.6	
794.6	5158.2	
794.77	4819.6	
794.95	3522.5	
795.12	3085.6	
795.3	4391.5	
795.47	4786.1	
795.65	3373.7	
795.82	3250.1	
796	4225	
796.17	5532.2	
796.35	3177.1	
796.52	3667.2	
796.7	4818.9	
796.87	4810	
797.05	3124.5	
797.22	3746.4	
797.4	4827.7	
797.57	5500.2	
797.75	3315	
797.92	3076	
798.1	5076.2	
798.27	4278.2	
798.45	2750.4	
798.62	2860.3	
798.8	4641.4	
798.97	5008.6	
799.15	3413.3	
799.32	3257.6	
799.5	4076.1	
799.67	4612.7	
799.85	3558	
800.02	2695.1	
800.2	4325.3	
800.37	4551.3	
800.55	3593.5	
800.72	3062.4	
800.9	4941.7	
801.07	5203.9	
801.25	4057.7	
801.42	3377.8	
801.6	4962.9	
801.77	4700.8	
801.95	3146.4	
802.12	3031.7	
802.29	4762.2	
802.47	4579.3	
802.64	3398.9	
802.82	2658.3	
802.99	4369.7	
803.17	4992.9	
803.34	3277.4	
803.52	2951.8	
803.69	5477	
803.87	4169	
804.04	3214.6	
804.21	3345	
804.39	5193	
804.56	4459.8	
804.74	2839.2	
804.91	3369.6	
805.09	4371	
805.26	4410.6	
805.44	2869.9	
805.61	3192.8	
805.78	4911	
805.96	4824.3	
806.13	3360.7	
806.31	3554.6	
806.48	4069.3	
806.66	4354	
806.83	3340.2	
807	3327.3	
807.18	4350.6	
807.35	4586.8	
807.53	3244	
807.7	2706	
807.87	5184.1	
808.05	4386.1	
808.22	3564.8	
808.4	2682.8	
808.57	4334.9	
808.74	4149.2	
808.92	3055.6	
809.09	3718.4	
809.27	4393.6	
809.44	4728.1	
809.61	2688.3	
809.79	2969.6	
809.96	5294.7	
810.14	4853.7	
810.31	2706	
810.48	3189.4	
810.66	4443.4	
810.83	4933.6	
811.01	3073.3	
811.18	3283.6	
811.35	4919.9	
811.53	3957.4	
811.7	3616	
811.87	3319.8	
812.05	4503.5	
812.22	4367.6	
812.39	2945	
812.57	2863.7	
812.74	4421.6	
812.92	5615.5	
813.09	3205.8	
813.26	3345	
813.44	5358.2	
813.61	4303.5	
813.78	2727.2	
813.96	3429.7	
814.13	4429.8	
814.3	4198.3	
814.48	3779.2	
814.65	3129.3	
814.82	5204.6	
815	4121.9	
815.17	3222.1	
815.34	3921.2	
815.52	4324.6	
815.69	4381.3	
815.87	3167.5	
816.04	3151.8	
816.21	4382	
816.38	4002.4	
816.56	3127.9	
816.73	3013.2	
816.9	5406	
817.08	4904.2	
817.25	2995.5	
817.42	3599	
817.6	4085	
817.77	4374.5	
817.94	3319.1	
818.12	2880.8	
818.29	4257.7	
818.46	6039.5	
818.64	3061.7	
818.81	2855.6	
818.98	4194.2	
819.16	5700.2	
819.33	3448.1	
819.5	3227.6	
819.67	4678.2	
819.85	5141.8	
820.02	3214.6	
820.19	3337.5	
820.37	4595	
820.54	4305.5	
820.71	3304.1	
820.88	3949.8	
821.06	4520.5	
821.23	4240	
821.4	3246	
821.58	3208.5	
821.75	4823	
821.92	4521.2	
822.09	2747	
822.27	2899.2	
822.44	4309.6	
822.61	4336.2	
822.79	2769.5	
822.96	4872.1	
823.13	4676.2	
823.3	4130.1	
823.48	3089	
823.65	2828.9	
823.82	4889.2	
823.99	4095.9	
824.17	3874.1	
824.34	2887.6	
824.51	5578.7	
824.68	4429.1	
824.86	3012.6	
825.03	3287	
825.2	4397.7	
825.37	5177.9	
825.55	2940.2	
825.72	3151.8	
825.89	5512.4	
826.06	5223.7	
826.24	3121.1	
826.41	3201	
826.58	5220.3	
826.75	4569.7	
826.92	2611.8	
827.1	2851.5	
827.27	6725.5	
827.44	5483.8	
827.61	2989.4	
827.79	3564.1	
827.96	4244.8	
828.13	4361.5	
828.3	3185.3	
828.47	2708.8	
828.65	4620.9	
828.82	4558.1	
828.99	3917.1	
829.16	3485.6	
829.34	4876.9	
829.51	4733.5	
829.68	3194.8	
829.85	3269.2	
830.02	5223.7	
830.2	4878.9	
830.37	2579.1	
830.54	3810.6	
830.71	5445.5	
830.88	4473.4	
831.05	2562	
831.23	2966.8	
831.4	5260.5	
831.57	5734.3	
831.74	2998.2	
831.91	2654.9	
832.09	4732.2	
832.26	4829.1	
832.43	3052.8	
832.6	3426.3	
832.77	4697.4	
832.94	5193.6	
833.12	2512.2	
833.29	3040.6	
833.46	4373.1	
833.63	5909.1	
833.8	3291.8	
833.97	3082.9	
834.15	4942.4	
834.32	4757.4	
834.49	3188.7	
834.66	3238.5	
834.83	4983.4	
835	4203.1	
835.17	2970.2	
835.35	2992.1	
835.52	4869.4	
835.69	4699.4	
835.86	3108.8	
836.03	2621.4	
836.2	4898.7	
836.37	4608.6	
836.55	3059.7	
836.72	2892.4	
836.89	4556.7	
837.06	4974.5	
837.23	3171.6	
837.4	3373.7	
837.57	5506.3	
837.75	5876.3	
837.92	2869.2	
838.09	2988	
838.26	4610.7	
838.43	5022.3	
838.6	3177.8	
838.77	2926.5	
838.94	5634	
839.11	5506.3	
839.29	3051.5	
839.46	2537.4	
839.63	4954	
839.8	4661.2	
839.97	3022.1	
840.14	2964.1	
840.31	4737.6	
840.48	4913.1	
840.65	2546.3	
840.82	2931.3	
841	4856.4	
841.17	4797.7	
841.34	2763.4	
841.51	2837.1	
841.68	4889.9	
841.85	4584	
842.02	2880.1	
842.19	2456.9	
842.36	4737	
842.53	4691.9	
842.7	2680.1	
842.87	3373	
843.05	5932.3	
843.22	4629.1	
843.39	2628.9	
843.56	2885.6	
843.73	4548.5	
843.9	5003.9	
844.07	4296.6	
844.24	3609.2	
844.41	6550.8	
844.58	4291.2	
844.75	2735.4	
844.92	2931.3	
845.09	4859.1	
845.26	4824.3	
845.43	2783.9	
845.6	2904	
845.77	4908.3	
845.94	4676.2	
846.12	3047.4	
846.29	3177.8	
846.46	5079.6	
846.63	4811.4	
846.8	2832.3	
846.97	3248.8	
847.14	5212.1	
847.31	4891.9	
847.48	3057.6	
847.65	3400.3	
847.82	5072.1	
847.99	5036	
848.16	3589.4	
848.33	3327.9	
848.5	4457.1	
848.67	5214.1	
848.84	2716.3	
849.01	2855.6	
849.18	4472.1	
849.35	4216.1	
849.52	3353.2	
849.69	2739.5	
849.86	5051.7	
850.03	5133.6	
850.2	2785.9	
850.37	3315.7	
850.54	5047.6	
850.71	4620.2	
850.88	3280.2	
851.05	2701.3	
851.22	4739	
851.39	5260.5	
851.56	2641.2	
851.73	3168.9	
851.9	4396.3	
852.07	5012.7	
852.24	3027.6	
852.41	2763.4	
852.58	4799.8	
852.75	4380.6	
852.92	3041.2	
853.09	2669.2	
853.26	4489.1	
853.43	5118.6	
853.6	2735.4	
853.77	2382.5	
853.94	5272.8	
854.11	4250.2	
854.28	3968.3	
854.44	2994.8	
854.61	5586.9	
854.78	5095.3	
854.95	2756.6	
855.12	3339.6	
855.29	4041.3	
855.46	5323.4	
855.63	2789.3	
855.8	3715.7	
855.97	4571.7	
856.14	5098.1	
856.31	3785.3	
856.48	2988	
856.65	4594.3	
856.82	4317.8	
856.99	2669.9	
857.16	3028.9	
857.33	5687.2	
857.49	4564.9	
857.66	2987.3	
857.83	3094.5	
858	4639.3	
858.17	4747.9	
858.34	2634.4	
858.51	2753.8	
858.68	5252.4	
858.85	5331.5	
859.02	3139.5	
859.19	3321.8	
859.36	4373.1	
859.52	4309.6	
859.69	2735.4	
859.86	3189.4	
860.03	4385.4	
860.2	5276.9	
860.37	2541.5	
860.54	2793.4	
860.71	4969.1	
860.88	5302.9	
861.05	3078.8	
861.21	3405.1	
861.38	5296.7	
861.55	4159.4	
861.72	2507.4	
861.89	3075.4	
862.06	5081	
862.23	5374.6	
862.4	2624.1	
862.56	2820.7	
862.73	4923.3	
862.9	4741	
863.07	3123.8	
863.24	2523.8	
863.41	4316.4	
863.58	4394.3	
863.75	2829.6	
863.91	3168.9	
864.08	5193	
864.25	4975.2	
864.42	3392.8	
864.59	3758.7	
864.76	5488.6	
864.93	4384.7	
865.09	2721.1	
865.26	2972.3	
865.43	5204.6	
865.6	5434.6	
865.77	2428.2	
865.94	2700.6	
866.1	5229.1	
866.27	4952.7	
866.44	4001.7	
866.61	2714.2	
866.78	4638.6	
866.95	4914.4	
867.11	2710.8	
867.28	2503.3	
867.45	5110.4	
867.62	4368.3	
867.79	3128.6	
867.96	2735.4	
868.12	4386.1	
868.29	5005.9	
868.46	2742.9	
868.63	3611.9	
868.8	5160.2	
868.97	4939.7	
869.13	2863.1	
869.3	2841.2	
869.47	4906.3	
869.64	5094.7	
869.81	2772.3	
869.97	2749.1	
870.14	4803.2	
870.31	5312.4	
870.48	2708.1	
870.65	3440.6	
870.81	4644.1	
870.98	4616.1	
871.15	3083.6	
871.32	2850.8	
871.48	4941.1	
871.65	5356.8	
871.82	2698.5	
871.99	2977.1	
872.16	5649.7	
872.32	5147.9	
872.49	2842.6	
872.66	2783.2	
872.83	5033.9	
872.99	4456.4	
873.16	3134.1	
873.33	2775.7	
873.5	4721.3	
873.67	4785.4	
873.83	2902	
874	3565.5	
874.17	4881.7	
874.34	5554.1	
874.5	3446.7	
874.67	3292.5	
874.84	5252.4	
875.01	4190.1	
875.17	3775.8	
875.34	2804.4	
875.51	4732.9	
875.68	5628.5	
875.84	3267.2	
876.01	3893.9	
876.18	4973.8	
876.34	4946.5	
876.51	2786.6	
876.68	2745	
876.85	4545.1	
877.01	5233.9	
877.18	3834.5	
877.35	2734	
877.52	4780.6	
877.68	4334.2	
877.85	2691.7	
878.02	2737.5	
878.18	4647.5	
878.35	4492.6	
878.52	2275.3	
878.69	3080.8	
878.85	5086.5	
879.02	4980.7	
879.19	3756.7	
879.35	2889.7	
879.52	5023	
879.69	5083.1	
879.86	2461	
880.02	3096.5	
880.19	4689.8	
880.36	5535	
880.52	3083.6	
880.69	3189.4	
880.86	5029.1	
881.02	5081.7	
881.19	3005.7	
881.36	2970.9	
881.52	4947.2	
881.69	4443.4	
881.86	2925.2	
882.02	2904.7	
882.19	5108.3	
882.36	5941.2	
882.52	2841.2	
882.69	3759.4	
882.86	4832.5	
883.02	4767.7	
883.19	3259	
883.36	3082.2	
883.52	5093.3	
883.69	5597.8	
883.86	2790.7	
884.02	2547.7	
884.19	4947.2	
884.36	4707.6	
884.52	3027.6	
884.69	2965.5	
884.86	4547.2	
885.02	5332.9	
885.19	3091.1	
885.36	3149.1	
885.52	4674.1	
885.69	4854.4	
885.86	3895.2	
886.02	3403.7	
886.19	4977.2	
886.35	4589.5	
886.52	2950.4	
886.69	3745.1	
886.85	4341	
887.02	5241.4	
887.19	5241.4	
887.35	5241.4	
887.52	5241.4	
887.68	5241.4	
887.85	5241.4	
888.02	5241.4	
888.18	5241.4	
888.35	5241.4	
888.51	5241.4	
888.68	5241.4	
888.85	5241.4	
889.01	5241.4	
889.18	5241.4	
889.35	5241.4	
889.51	5241.4	
889.68	5241.4	
889.84	5241.4	
890.01	5241.4	
890.17	5241.4	
890.34	5241.4	
890.51	5241.4	
890.67	5241.4	
890.84	5241.4	
891	5241.4	
891.17	5241.4	
891.34	5241.4	
891.5	5241.4	
891.67	5241.4	
891.83	5241.4	
892	5241.4	
892.16	5241.4	
892.33	5241.4	
892.5	5241.4	
892.66	5241.4	
892.83	5241.4	
892.99	5241.4	
893.16	5241.4	
893.32	5241.4	
893.49	5241.4	
893.65	5241.4	
893.82	5241.4	
893.99	5241.4	
894.15	5241.4	
894.32	5241.4	
894.48	5241.4	
894.65	5241.4	
894.81	5241.4	
894.98	5241.4	
895.14	5241.4	
895.31	5241.4	
895.47	5241.4	
895.64	5241.4	
895.81	5241.4	
895.97	5241.4	
896.14	5241.4	
896.3	5241.4	
896.47	5241.4	
896.63	5241.4	
896.8	5241.4	
896.96	5241.4	
897.13	5241.4	
897.29	5241.4	
897.46	5241.4	
897.62	5241.4	
897.79	5241.4	
897.95	5241.4	
898.12	5241.4	
898.28	5241.4	
898.45	5241.4	
898.61	5241.4	
898.78	5241.4	
898.94	5241.4	
899.11	5241.4	
899.27	5241.4	
899.44	5241.4	
899.6	5241.4	
899.77	5241.4	
899.93	5241.4	
900.1	5241.4	
900.26	5241.4	
900.43	5241.4	
900.59	5241.4	
900.76	5241.4	
900.92	5241.4	
901.09	5241.4	
901.25	5241.4	
901.42	5241.4	
901.58	5241.4	
901.75	5241.4	
901.91	5241.4	
902.07	5241.4	
902.24	5241.4	
902.4	5241.4	
902.57	5241.4	
902.73	5241.4	
902.9	5241.4	
903.06	5241.4	
903.23	5241.4	
903.39	5241.4	
903.56	5241.4	
903.72	5241.4	
903.88	5241.4	
904.05	5241.4	
904.21	5241.4	
904.38	5241.4	
904.54	5241.4	
904.71	5241.4	
904.87	5241.4	
905.03	5241.4	
905.2	5241.4	
905.36	5241.4	
905.53	5241.4	
905.69	5241.4	
905.86	5241.4	
906.02	5241.4	
906.18	5241.4	
906.35	5241.4	
906.51	5241.4	
906.68	5241.4	
906.84	5241.4	
907.01	5241.4	
907.17	5241.4	
907.33	5241.4	
907.5	5241.4	
907.66	5241.4	
907.83	5241.4	
907.99	5241.4	
908.15	5241.4	
908.32	5241.4	
908.48	5241.4	
908.65	5241.4	
908.81	5241.4	
908.97	5241.4	
909.14	5241.4	
909.3	5241.4	
909.47	5241.4	
909.63	5241.4	
909.79	5241.4	
909.96	5241.4	
910.12	5241.4	
910.28	5241.4	
910.45	5241.4	
910.61	5241.4	
910.78	5241.4	
910.94	5241.4	
911.1	5241.4	
911.27	5241.4	
911.43	5241.4	
911.59	5241.4	
911.76	5241.4	
911.92	5241.4	
912.08	5241.4	
912.25	5241.4	
912.41	5241.4	
912.57	5241.4	
912.74	5241.4	
912.9	5241.4	
913.07	5241.4	
913.23	5241.4	
913.39	5241.4	
913.56	5241.4	
913.72	5241.4	
913.88	5241.4	
914.05	5241.4	
914.21	5241.4	
914.37	5241.4	
914.54	5241.4	
914.7	5241.4	
914.86	5241.4	
915.03	5241.4	
915.19	5241.4	
