Wavelength	Intensities	
nm	a.u.	
179.22	1723	
179.44	1725.1	
179.65	1721	
179.86	1729.2	
180.08	1754.4	
180.29	4117.8	
180.51	3079.5	
180.72	5081.7	
180.94	5842.2	
181.15	2850.1	
181.37	2838.5	
181.58	4941.7	
181.79	5195.7	
182.01	2958.6	
182.22	3169.6	
182.44	5243.5	
182.65	4487.1	
182.87	3829	
183.08	3492.5	
183.29	5463.3	
183.51	4554	
183.72	3163.4	
183.94	4403.1	
184.15	4894.6	
184.37	4827.7	
184.58	2806.4	
184.79	3744.4	
185.01	4569	
185.22	5240.1	
185.44	3928.7	
185.65	3378.5	
185.86	4896.7	
186.08	4524.6	
186.29	2779.8	
186.51	2966.1	
186.72	4590.2	
186.94	5312.4	
187.15	3399.6	
187.36	3454.2	
187.58	6710.5	
187.79	5033.9	
188.01	3566.2	
188.22	5442.8	
188.43	5913.9	
188.65	5201.8	
188.86	2988.7	
189.08	3472	
189.29	4730.1	
189.5	4720.6	
189.72	3201.7	
189.93	3284.3	
190.15	5365.7	
190.36	6266.1	
190.57	3387.3	
190.79	3404.4	
191	5378.6	
191.22	5343.8	
191.43	3512.3	
191.64	3007.1	
191.86	5638.7	
192.07	5358.9	
192.29	3020.8	
192.5	3174.4	
192.71	5344.5	
192.93	4697.4	
193.14	3208.5	
193.35	3284.9	
193.57	4710.3	
193.78	5397.8	
194	2637.8	
194.21	3155.2	
194.42	4552.6	
194.64	4911.7	
194.85	3450.1	
195.07	4003.8	
195.28	4859.1	
195.49	4319.2	
195.71	4154	
195.92	3018	
196.13	5141.1	
196.35	5119.9	
196.56	4408.6	
196.78	3486.3	
196.99	6224.5	
197.2	5799.8	
197.42	3906.2	
197.63	3446.7	
197.84	4454.3	
198.06	5119.2	
198.27	3154.6	
198.48	4200.4	
198.7	4736.3	
198.91	4875.5	
199.13	3476.8	
199.34	3550.5	
199.55	5309.7	
199.77	4246.1	
199.98	3084.9	
200.19	3496.6	
200.41	4855.1	
200.62	4579.3	
200.83	3626.3	
201.05	3815.4	
201.26	4847.5	
201.47	4628.4	
201.69	3125.2	
201.9	3048.1	
202.11	4943.8	
202.33	5653.8	
202.54	3340.2	
202.76	3633.8	
202.97	4956.8	
203.18	4973.8	
203.4	3628.3	
203.61	3582.6	
203.82	4998.4	
204.04	4685.8	
204.25	3456.3	
204.46	3439.2	
204.68	4897.4	
204.89	5070.1	
205.1	3393.5	
205.32	3024.2	
205.53	5169.8	
205.74	5365	
205.96	2596.1	
206.17	3507.5	
206.38	5215.5	
206.6	5315.8	
206.81	3975.1	
207.02	3217.4	
207.24	5080.3	
207.45	5403.9	
207.66	3353.2	
207.88	2940.2	
208.09	5085.8	
208.3	4903.5	
208.52	3069.9	
208.73	3360.7	
208.94	4904.9	
209.15	5448.3	
209.37	3369.6	
209.58	3715.7	
209.79	5328.1	
210.01	4786.1	
210.22	2750.4	
210.43	2816	
210.65	4883	
210.86	5207.3	
211.07	3266.5	
211.29	3022.8	
211.5	5159.5	
211.71	4835.9	
211.93	3089.7	
212.14	3104.7	
212.35	4890.5	
212.56	4963.6	
212.78	3517	
212.99	2845.3	
213.2	5629.2	
213.42	4733.5	
213.63	3158	
213.84	3285.6	
214.06	4422.2	
214.27	4520.5	
214.48	3313.6	
214.69	3524.6	
214.91	5413.5	
215.12	5518.6	
215.33	3604.4	
215.55	3893.2	
215.76	5890.6	
215.97	5180	
216.18	3397.6	
216.4	3334.8	
216.61	4625	
216.82	5308.3	
217.04	3131.3	
217.25	3204.4	
217.46	5410.7	
217.67	5225.7	
217.89	2810.5	
218.1	2888.3	
218.31	4944.5	
218.53	5138.4	
218.74	3263.8	
218.95	3117.7	
219.16	4900.1	
219.38	5650.3	
219.59	3151.1	
219.8	3723.9	
220.01	6109.8	
220.23	4926	
220.44	4018.8	
220.65	3072.6	
220.87	5014.1	
221.08	5426.4	
221.29	2882.9	
221.5	3759.4	
221.72	6470.2	
221.93	4633.9	
222.14	3525.2	
222.35	4088.4	
222.57	4941.1	
222.78	5224.4	
222.99	3349.1	
223.2	3532.7	
223.42	5188.9	
223.63	5225.1	
223.84	2661	
224.05	2628.2	
224.27	6106.4	
224.48	5573.2	
224.69	4108.2	
224.9	3501.3	
225.12	5074.9	
225.33	4868	
225.54	2884.9	
225.75	3164.1	
225.97	4530.8	
226.18	4805.2	
226.39	3351.2	
226.6	3133.4	
226.82	4746.5	
227.03	4612.7	
227.24	3524.6	
227.45	2989.4	
227.67	5197.7	
227.88	5605.3	
228.09	3850.2	
228.3	3867.9	
228.52	5200.5	
228.73	4836.6	
228.94	3218	
229.15	2925.9	
229.36	4876.9	
229.58	4960.2	
229.79	3327.9	
230	3723.2	
230.21	5732.3	
230.43	4918.5	
230.64	3426.3	
230.85	3587.4	
231.06	5339.7	
231.28	5307.7	
231.49	2913.6	
231.7	3427.6	
231.91	5201.2	
232.12	4967.7	
232.34	3037.1	
232.55	3376.4	
232.76	5379.3	
232.97	5002.5	
233.18	3087.7	
233.4	3485.6	
233.61	5079.6	
233.82	4685.8	
234.03	3274.7	
234.25	3211.2	
234.46	6576.7	
234.67	4859.1	
234.88	3543	
235.09	3155.2	
235.31	5104.9	
235.52	4780	
235.73	3473.4	
235.94	2943.6	
236.15	4656.4	
236.37	5790.3	
236.58	3110.2	
236.79	3346.4	
237	5128.1	
237.21	4502.8	
237.43	3592.1	
237.64	2852.8	
237.85	8301.1	
238.06	4614.8	
238.27	3589.4	
238.48	2975	
238.7	5133.6	
238.91	4767	
239.12	3257.6	
239.33	3432.4	
239.54	4646.8	
239.76	4835.9	
239.97	3345	
240.18	3302	
240.39	5854.5	
240.6	5068	
240.82	3493.8	
241.03	2903.3	
241.24	4912.4	
241.45	5540.4	
241.66	3018.7	
241.87	3595.6	
242.09	5485.1	
242.3	5783.5	
242.51	3629	
242.72	3378.5	
242.93	5258.5	
243.14	4862.6	
243.36	3820.8	
243.57	4117.8	
243.78	5591	
243.99	5123.3	
244.2	3321.8	
244.41	3074	
244.63	4581.3	
244.84	5161.6	
245.05	3588.7	
245.26	3331.4	
245.47	5171.8	
245.68	5315.2	
245.9	4292.5	
246.11	3481.5	
246.32	4736.3	
246.53	5093.3	
246.74	5281.7	
246.95	2845.3	
247.16	4536.3	
247.38	4928.8	
247.59	2861.7	
247.8	3352.5	
248.01	4618.9	
248.22	4825.7	
248.43	3035.1	
248.64	3340.9	
248.86	4422.2	
249.07	4676.9	
249.28	3009.8	
249.49	3371.6	
249.7	5380.7	
249.91	5423.7	
250.12	2841.2	
250.34	2914.3	
250.55	5012.7	
250.76	4914.4	
250.97	3449.5	
251.18	3513.6	
251.39	5438	
251.6	5070.8	
251.81	3552.5	
252.03	3505.4	
252.24	4737.6	
252.45	5260.5	
252.66	2912.9	
252.87	3654.9	
253.08	4949.3	
253.29	6177.4	
253.5	2974.3	
253.72	4056.3	
253.93	4799.8	
254.14	5718.6	
254.35	3198.2	
254.56	3304.1	
254.77	5110.4	
254.98	4534.9	
255.19	3216.7	
255.41	3988.8	
255.62	5012.1	
255.83	5437.4	
256.04	3567.6	
256.25	3463.8	
256.46	5915.2	
256.67	4727.4	
256.88	3456.3	
257.09	3787.4	
257.31	4631.8	
257.52	4661.9	
257.73	4247.5	
257.94	3155.9	
258.15	4868.7	
258.36	4896	
258.57	3934.8	
258.78	2632.3	
258.99	5286.5	
259.2	4752	
259.41	3214.6	
259.63	3375.1	
259.84	5571.2	
260.05	5937.1	
260.26	4121.9	
260.47	3141.6	
260.68	5369.1	
260.89	4850.3	
261.1	3822.2	
261.31	3087.7	
261.52	5401.2	
261.73	5744.6	
261.95	4058.4	
262.16	3639.9	
262.37	5433.9	
262.58	5546.6	
262.79	4085	
263	3259	
263.21	4955.4	
263.42	4799.8	
263.63	3359.4	
263.84	3272	
264.05	5307.7	
264.26	5603.9	
264.47	3964.2	
264.69	3592.8	
264.9	5507	
265.11	5126.1	
265.32	3110.2	
265.53	3205.8	
265.74	5036	
265.95	4387.4	
266.16	3424.2	
266.37	3708.9	
266.58	5033.9	
266.79	4766.3	
267	3186.6	
267.21	3001	
267.42	4575.2	
267.63	4898.7	
267.84	3322.5	
268.06	2954.5	
268.27	5343.2	
268.48	5462.6	
268.69	3340.9	
268.9	3818.8	
269.11	5461.2	
269.32	4439.3	
269.53	3374.4	
269.74	3097.2	
269.95	5134.9	
270.16	4466.6	
270.37	3413.3	
270.58	3878.9	
270.79	4814.1	
271	5328.1	
271.21	3568.9	
271.42	3389.4	
271.63	5041.4	
271.84	4548.5	
272.05	2736.1	
272.26	3049.4	
272.47	4924.7	
272.68	5031.9	
272.89	3174.4	
273.11	3682.9	
273.32	4689.2	
273.53	5662	
273.74	3538.2	
273.95	3538.9	
274.16	5332.9	
274.37	4946.5	
274.58	3686.3	
274.79	2981.8	
275	5010	
275.21	5373.9	
275.42	4334.9	
275.63	3767.6	
275.84	5152	
276.05	6174.6	
276.26	3507.5	
276.47	3337.5	
276.68	4805.2	
276.89	5713.2	
277.1	3728	
277.31	2973	
277.52	5112.4	
277.73	5356.1	
277.94	2923.1	
278.15	3252.9	
278.36	5091.9	
278.57	4629.1	
278.78	3181.2	
278.99	3599	
279.2	4661.2	
279.41	4597	
279.62	4150.5	
279.83	3028.3	
280.04	5916.6	
280.25	4596.3	
280.46	4141.7	
280.67	3352.5	
280.88	4640.7	
281.09	5422.3	
281.3	3575.1	
281.51	4376.5	
281.72	4681	
281.93	5255.1	
282.14	3127.9	
282.35	3448.8	
282.56	5358.9	
282.77	5227.1	
282.98	3290.4	
283.19	3921.2	
283.4	6361	
283.61	4857.8	
283.82	3025.5	
284.03	4091.8	
284.24	5040.7	
284.45	5422.3	
284.66	4159.4	
284.87	3932.1	
285.08	5382.1	
285.29	5535.7	
285.5	2936.8	
285.71	3289.7	
285.92	5389.6	
286.12	5875.6	
286.33	4035.9	
286.54	3315	
286.75	5353.4	
286.96	4833.2	
287.17	3044	
287.38	3986	
287.59	4661.2	
287.8	4607.2	
288.01	3278.8	
288.22	3703.4	
288.43	5278.3	
288.64	4498.7	
288.85	3848.8	
289.06	3693.2	
289.27	5322.7	
289.48	5597.1	
289.69	4081.6	
289.9	3730.7	
290.11	5438.7	
290.32	4733.5	
290.53	3870	
290.74	3551.2	
290.94	5315.2	
291.15	5303.6	
291.36	3186.6	
291.57	3729.4	
291.78	4789.5	
291.99	4443.4	
292.2	3089	
292.41	3652.2	
292.62	5375.9	
292.83	5216.9	
293.04	4343.1	
293.25	3149.8	
293.46	4759.5	
293.67	5301.5	
293.88	3170.9	
294.09	3065.8	
294.29	4600.4	
294.5	4992.3	
294.71	3376.4	
294.92	3245.3	
295.13	4770.4	
295.34	5831.2	
295.55	2866.5	
295.76	2881.5	
295.97	5246.2	
296.18	5850.4	
296.39	2978.4	
296.6	3177.1	
296.81	5032.5	
297.01	5264.6	
297.22	3353.2	
297.43	3161.4	
297.64	4690.5	
297.85	4623.6	
298.06	2652.8	
298.27	2891	
298.48	4906.3	
298.69	4719.2	
298.9	3408.5	
299.11	3169.6	
299.31	4522.6	
299.52	4572.4	
299.73	3640.6	
299.94	3551.2	
300.15	4918.5	
300.36	4637.3	
300.57	3611.3	
300.78	3529.3	
300.99	4758.8	
301.2	5046.9	
301.4	3177.8	
301.61	3422.2	
301.82	5212.8	
302.03	5221	
302.24	3789.4	
302.45	3017.3	
302.66	5207.3	
302.87	5498.8	
303.08	3225.6	
303.29	4268	
303.49	4793.6	
303.7	4911.7	
303.91	2848	
304.12	4065.9	
304.33	4524	
304.54	5044.1	
304.75	3229.6	
304.96	3069.2	
305.16	5169.1	
305.37	5789.6	
305.58	2793.4	
305.79	2887	
306	5128.1	
306.21	4366.3	
306.42	3166.8	
306.63	4682.3	
306.83	4817.5	
307.04	5361.6	
307.25	3476.1	
307.46	3491.8	
307.67	4349.9	
307.88	5203.2	
308.09	3200.3	
308.29	3230.3	
308.5	4949.9	
308.71	5371.1	
308.92	3372.3	
309.13	3073.3	
309.34	4825	
309.55	4825.7	
309.75	3852.9	
309.96	3537.5	
310.17	5258.5	
310.38	4642.7	
310.59	3766.2	
310.8	3020.1	
311.01	4771.1	
311.21	4867.3	
311.42	3039.2	
311.63	3151.1	
311.84	4721.3	
312.05	5016.8	
312.26	3474.7	
312.46	3833.1	
312.67	4766.3	
312.88	4575.2	
313.09	3118.4	
313.3	3019.4	
313.51	5556.1	
313.71	5864	
313.92	3075.4	
314.13	3287	
314.34	5094.7	
314.55	4854.4	
314.76	3855	
314.96	3442.6	
315.17	5074.2	
315.38	5266.7	
315.59	3087.7	
315.8	2969.6	
316.01	5560.9	
316.21	5630.5	
316.42	2988.7	
316.63	3371.6	
316.84	4797	
317.05	5479	
317.26	3579.2	
317.46	3271.3	
317.67	4872.8	
317.88	5247.6	
318.09	3846.8	
318.3	2887.6	
318.5	4755.4	
318.71	5101.5	
318.92	4834.6	
319.13	3597.6	
319.34	5335.6	
319.54	5431.9	
319.75	2874	
319.96	2793.4	
320.17	5173.2	
320.38	5312.4	
320.58	2859	
320.79	3352.5	
321	5380.7	
321.21	5485.1	
321.42	3393.5	
321.62	2820.7	
321.83	4622.3	
322.04	4943.8	
322.25	3283.6	
322.46	3061.7	
322.66	5005.2	
322.87	5180	
323.08	3728	
323.29	3018	
323.5	5916.6	
323.7	4506.2	
323.91	4062.5	
324.12	3712.3	
324.33	5051	
324.53	5171.8	
324.74	3547.8	
324.95	3713.6	
325.16	4479.6	
325.37	4754	
325.57	3129.3	
325.78	3116.3	
325.99	5001.8	
326.2	4533.5	
326.4	4378.6	
326.61	2863.7	
326.82	4858.5	
327.03	4984.8	
327.24	4259.8	
327.44	3958	
327.65	5140.4	
327.86	4231.8	
328.07	3589.4	
328.27	3024.8	
328.48	5484.5	
328.69	4504.8	
328.9	4358.1	
329.1	3300	
329.31	4806.6	
329.52	5565.7	
329.73	3091.8	
329.93	3440.6	
330.14	4976.6	
330.35	5085.8	
330.56	4899.4	
330.76	3725.3	
330.97	4803.2	
331.18	5003.2	
331.39	3410.6	
331.59	2845.3	
331.8	5401.2	
332.01	5461.9	
332.22	3200.3	
332.42	3504.1	
332.63	5019.6	
332.84	4632.5	
333.05	3457.7	
333.25	3131.3	
333.46	4742.4	
333.67	4922.6	
333.88	3258.3	
334.08	3500	
334.29	6382.8	
334.5	5433.9	
334.7	3036.5	
334.91	4266.6	
335.12	4572.4	
335.33	5219.6	
335.53	3469.9	
335.74	4844.1	
335.95	4795.7	
336.16	4634.6	
336.36	3489.1	
336.57	3830.4	
336.78	4532.8	
336.98	5375.2	
337.19	4093.9	
337.4	3364.1	
337.61	5836.7	
337.81	4519.2	
338.02	3159.3	
338.23	4003.8	
338.43	5530.9	
338.64	4681.7	
338.85	3097.9	
339.05	3997.6	
339.26	5631.2	
339.47	4502.8	
339.68	3129.3	
339.88	4440	
340.09	5145.9	
340.3	5322	
340.5	3487	
340.71	2818.7	
340.92	4538.3	
341.13	5477	
341.33	2984.6	
341.54	3661.8	
341.75	5083.1	
341.95	4805.2	
342.16	3457	
342.37	3686.3	
342.57	4579.3	
342.78	4883.7	
342.99	3794.9	
343.19	2831	
343.4	5283.1	
343.61	5096	
343.81	3336.8	
344.02	2957.9	
344.23	5240.8	
344.43	5562.3	
344.64	3825.6	
344.85	3726.6	
345.06	5139	
345.26	5409.4	
345.47	3521.8	
345.68	4121.2	
345.88	4439.3	
346.09	5274.2	
346.3	3607.8	
346.5	2755.2	
346.71	4896	
346.92	4670.1	
347.12	2895.8	
347.33	3505.4	
347.54	5397.8	
347.74	5676.3	
347.95	3500.7	
348.16	2716.3	
348.36	4783.4	
348.57	4562.9	
348.78	3542.3	
348.98	3802.4	
349.19	4917.9	
349.39	4493.9	
349.6	2941.6	
349.81	3140.9	
350.01	5133.6	
350.22	4702.8	
350.43	3403	
350.63	4079.6	
350.84	4947.2	
351.05	4741	
351.25	3140.9	
351.46	2903.3	
351.67	5328.8	
351.87	4650.9	
352.08	3345.7	
352.29	3751.2	
352.49	5285.1	
352.7	5384.1	
352.9	3020.8	
353.11	3773.7	
353.32	5838.8	
353.52	4816.8	
353.73	3021.4	
353.94	3842	
354.14	5218.2	
354.35	5103.5	
354.55	3149.8	
354.76	3465.2	
354.97	5168.4	
355.17	4964.3	
355.38	2960	
355.59	4039.3	
355.79	4680.3	
356	5024.3	
356.2	3469.3	
356.41	3126.6	
356.62	4573.1	
356.82	4958.8	
357.03	3693.9	
357.24	3352.5	
357.44	4698	
357.65	4870.8	
357.85	4398.4	
358.06	3528.7	
358.27	4533.5	
358.47	4699.4	
358.68	3049.4	
358.88	3736.9	
359.09	5233.9	
359.3	5547.9	
359.5	4282.3	
359.71	3895.9	
359.91	5870.8	
360.12	5390.9	
360.33	3764.8	
360.53	4203.1	
360.74	4805.2	
360.94	4872.1	
361.15	3919.8	
361.36	3371	
361.56	5492	
361.77	5063.9	
361.97	4322.6	
362.18	3552.5	
362.38	5542.5	
362.59	4605.2	
362.8	3267.9	
363	3136.8	
363.21	4645.5	
363.41	5165	
363.62	3762.8	
363.83	4519.9	
364.03	5261.2	
364.24	5993	
364.44	4764.3	
364.65	4644.1	
364.85	5034.6	
365.06	4758.8	
365.27	3511.6	
365.47	3521.8	
365.68	5925.5	
365.88	5011.4	
366.09	3846.1	
366.29	3577.1	
366.5	5344.5	
366.71	5595.7	
366.91	4696.7	
367.12	4031.1	
367.32	6203.3	
367.53	5565.7	
367.73	4055.7	
367.94	4803.9	
368.14	5494.7	
368.35	6141.2	
368.56	4012	
368.76	3710.9	
368.97	5640.1	
369.17	6919.4	
369.38	3544.4	
369.58	3842	
369.79	4790.2	
369.99	5922.7	
370.2	4651.6	
370.4	3867.9	
370.61	5397.1	
370.82	6360.3	
371.02	3812.6	
371.23	3217.4	
371.43	4742.4	
371.64	5963.7	
371.84	3896.6	
372.05	4807.3	
372.25	6937.8	
372.46	5670.1	
372.66	3893.9	
372.87	3886.4	
373.07	5790.3	
373.28	7107.1	
373.48	4822.3	
373.69	4485.7	
373.9	5399.8	
374.1	5412.1	
374.31	4753.3	
374.51	4382.7	
374.72	6137.1	
374.92	5185.5	
375.13	4944.5	
375.33	4221.5	
375.54	5854.5	
375.74	5367.7	
375.95	4415.4	
376.15	5411.4	
376.36	5902.9	
376.56	5732.3	
376.77	4519.9	
376.97	4919.9	
377.18	6920.1	
377.38	6105.7	
377.59	5117.2	
377.79	4234.5	
378	5942.5	
378.2	6267.5	
378.41	4283	
378.61	4222.9	
378.82	6408.8	
379.02	5677.7	
379.23	4506.2	
379.43	5372.5	
379.64	6539.8	
379.84	6173.9	
380.05	4316.4	
380.25	4207.2	
380.46	6248.4	
380.66	5835.3	
380.87	5326.1	
381.07	5624.4	
381.28	6744	
381.48	6143.2	
381.69	4331.5	
381.89	4361.5	
382.1	5289.9	
382.3	6236.7	
382.51	5130.8	
382.71	5956.2	
382.91	6164.4	
383.12	6528.2	
383.32	4542.4	
383.53	4667.3	
383.73	6049.7	
383.94	5894.7	
384.14	4678.9	
384.35	3904.8	
384.55	5766.4	
384.76	6079.7	
384.96	4539	
385.17	4732.2	
385.37	6156.2	
385.58	5483.1	
385.78	4762.2	
385.98	3801.7	
386.19	5669.5	
386.39	5994.4	
386.6	4331.5	
386.8	4562.9	
387.01	6154.8	
387.21	6157.6	
387.42	4913.8	
387.62	5453.7	
387.83	5600.5	
388.03	6145.3	
388.23	4745.1	
388.44	5363.6	
388.64	5455.1	
388.85	5663.3	
389.05	5076.2	
389.26	5687.9	
389.46	7346.7	
389.67	6920.1	
389.87	5194.3	
390.07	5133.6	
390.28	6068.8	
390.48	5719.3	
390.69	4479.6	
390.89	4775.9	
391.1	5894.7	
391.3	6719.4	
391.5	5733.6	
391.71	6167.1	
391.91	6542.6	
392.12	7296.2	
392.32	5892.7	
392.53	5337.7	
392.73	6052.4	
392.93	6139.1	
393.14	4931.5	
393.34	5520	
393.55	6402.6	
393.75	5986.9	
393.95	4714.4	
394.16	4720.6	
394.36	5921.4	
394.57	6355.5	
394.77	4399.7	
394.98	4743.1	
395.18	5962.3	
395.38	5983.5	
395.59	5611.4	
395.79	4812	
396	6258.6	
396.2	6690	
396.4	5609.4	
396.61	5625.1	
396.81	6863.4	
397.02	6297.5	
397.22	5984.2	
397.42	5930.9	
397.63	6978.1	
397.83	6344.6	
398.04	5016.2	
398.24	5556.1	
398.44	6716	
398.65	6441.5	
398.85	4990.9	
399.05	4948.6	
399.26	6425.8	
399.46	7789.1	
399.67	5363.6	
399.87	5133.6	
400.07	6795.8	
400.28	7058	
400.48	5455.1	
400.69	6294.8	
400.89	7463.5	
401.09	7743.4	
401.3	5400.5	
401.5	6291.4	
401.7	8028	
401.91	8245.1	
402.11	5808.7	
402.32	5884.5	
402.52	7547.4	
402.72	7340.6	
402.93	5976	
403.13	4851	
403.33	7804.8	
403.54	6490.7	
403.74	5338.4	
403.94	5969.1	
404.15	6457.2	
404.35	7458.7	
404.56	5154.1	
404.76	6645.7	
404.96	7068.9	
405.17	6977.4	
405.37	6468.2	
405.57	6001.2	
405.78	7441	
405.98	6862.7	
406.18	5608	
406.39	6305.7	
406.59	7309.2	
406.79	6825.2	
407	5158.8	
407.2	5187.5	
407.4	7167.2	
407.61	7337.2	
407.81	5411.4	
408.01	7202.7	
408.22	6565.8	
408.42	8318.2	
408.62	6859.3	
408.83	6397.9	
409.03	7563.1	
409.23	7589.1	
409.44	6727.6	
409.64	7010.9	
409.84	8707.3	
410.05	8701.1	
410.25	7135.8	
410.45	6863.4	
410.66	8555	
410.86	10409	
411.06	7619.8	
411.27	7393.2	
411.47	10488	
411.67	8908	
411.88	7562.5	
412.08	8095.6	
412.28	9472.5	
412.49	9878	
412.69	7764.5	
412.89	7808.2	
413.09	9777	
413.3	9710.8	
413.5	7985.7	
413.7	7706.5	
413.91	9151.7	
414.11	9891.7	
414.31	7903.8	
414.52	8520.9	
414.72	9666.4	
414.92	9742.9	
415.12	7925.6	
415.33	8421.2	
415.53	10143	
415.73	10263	
415.94	8660.2	
416.14	8258.8	
416.34	9331.9	
416.55	9075.9	
416.75	9308.7	
416.95	8897.7	
417.15	10359	
417.36	10707	
417.56	9783.8	
417.76	9004.9	
417.97	10786	
418.17	10565	
418.37	8626.7	
418.57	8753.7	
418.78	10427	
418.98	9968.1	
419.18	9392	
419.38	9232.9	
419.59	9954.5	
419.79	9569.5	
419.99	8493.6	
420.2	8700.5	
420.4	10350	
420.6	10492	
420.8	8492.2	
421.01	8532.5	
421.21	10499	
421.41	10505	
421.61	8853.4	
421.82	8634.9	
422.02	10073	
422.22	10696	
422.42	9324.4	
422.63	8694.3	
422.83	10071	
423.03	11076	
423.23	8896.4	
423.44	8116.1	
423.64	10073	
423.84	9616.6	
424.04	8352.3	
424.25	8170	
424.45	10662	
424.65	10620	
424.85	7873.8	
425.06	8413.1	
425.26	10797	
425.46	9686.9	
425.66	8790.6	
425.87	8445.1	
426.07	10323	
426.27	10221	
426.47	8548.2	
426.67	7957	
426.88	10582	
427.08	10133	
427.28	8810.4	
427.48	7916.1	
427.69	9151	
427.89	9740.1	
428.09	8699.1	
428.29	7965.2	
428.5	10380	
428.7	9921.7	
428.9	8069	
429.1	8323.6	
429.3	9898.5	
429.51	10282	
429.71	8232.2	
429.91	8972.8	
430.11	10391	
430.31	10776	
430.52	8720.9	
430.72	9035	
430.92	10840	
431.12	10490	
431.32	8460.2	
431.53	8669.1	
431.73	9635	
431.93	10859	
432.13	8303.8	
432.33	8360.5	
432.54	9994.8	
432.74	10357	
432.94	8464.9	
433.14	9236.3	
433.34	10551	
433.55	10401	
433.75	9336.7	
433.95	10941	
434.15	10516	
434.35	10373	
434.56	8708	
434.76	8525.7	
434.96	10651	
435.16	11097	
435.36	8779.6	
435.56	9781.1	
435.77	10606	
435.97	10791	
436.17	10403	
436.37	9835.7	
436.57	10630	
436.78	10644	
436.98	9672.6	
437.18	10304	
437.38	11319	
437.58	10790	
437.78	10391	
437.99	9241.1	
438.19	10974	
438.39	11607	
438.59	9050.7	
438.79	8419.9	
438.99	11274	
439.2	10411	
439.4	8331.8	
439.6	8583	
439.8	10814	
440	11932	
440.2	10028	
440.4	10064	
440.61	11802	
440.81	12271	
441.01	9553.8	
441.21	10412	
441.41	12383	
441.61	11890	
441.81	10707	
442.02	11511	
442.22	12615	
442.42	12007	
442.62	9773.6	
442.82	9650	
443.02	12263	
443.22	11884	
443.43	10235	
443.63	9977.7	
443.83	11446	
444.03	11567	
444.23	11185	
444.43	10740	
444.63	12166	
444.83	12968	
445.04	10372	
445.24	11294	
445.44	12225	
445.64	12265	
445.84	10479	
446.04	10722	
446.24	11400	
446.44	12204	
446.65	9638.4	
446.85	10206	
447.05	11174	
447.25	12092	
447.45	10049	
447.65	9725.1	
447.85	11591	
448.05	11131	
448.25	10728	
448.46	10394	
448.66	11688	
448.86	11361	
449.06	9633.6	
449.26	10615	
449.46	12105	
449.66	11258	
449.86	10441	
450.06	10344	
450.26	11581	
450.47	12213	
450.67	10395	
450.87	10852	
451.07	12223	
451.27	12168	
451.47	10019	
451.67	10665	
451.87	11785	
452.07	12498	
452.27	10419	
452.47	10368	
452.67	12024	
452.88	12518	
453.08	9537.4	
453.28	11356	
453.48	13099	
453.68	11727	
453.88	10403	
454.08	10417	
454.28	12507	
454.48	12068	
454.68	10932	
454.88	11436	
455.08	12537	
455.28	12585	
455.48	10245	
455.68	11082	
455.89	13149	
456.09	12988	
456.29	10780	
456.49	11087	
456.69	13289	
456.89	12463	
457.09	11471	
457.29	12017	
457.49	13041	
457.69	13352	
457.89	11754	
458.09	11126	
458.29	13192	
458.49	13861	
458.69	12190	
458.89	11869	
459.09	14273	
459.29	14169	
459.49	11801	
459.69	12392	
459.9	13553	
460.1	13571	
460.3	11479	
460.5	11454	
460.7	13687	
460.9	13460	
461.1	11304	
461.3	12452	
461.5	14623	
461.7	14240	
461.9	12272	
462.1	12372	
462.3	14121	
462.5	14338	
462.7	12223	
462.9	12483	
463.1	15566	
463.3	15409	
463.5	12801	
463.7	13932	
463.9	14681	
464.1	14913	
464.3	13536	
464.5	13355	
464.7	15311	
464.9	15485	
465.1	14674	
465.3	13842	
465.5	15640	
465.7	15862	
465.9	14247	
466.1	13692	
466.3	15945	
466.5	15454	
466.7	15051	
466.9	13947	
467.1	15815	
467.3	16537	
467.5	15282	
467.7	14278	
467.9	16805	
468.1	17670	
468.3	14804	
468.5	15528	
468.7	16208	
468.9	16038	
469.1	14787	
469.3	15498	
469.5	17777	
469.7	16013	
469.9	14963	
470.1	14506	
470.3	16395	
470.5	16374	
470.7	15677	
470.9	14508	
471.1	16196	
471.3	15892	
471.5	14399	
471.69	15852	
471.89	15829	
472.09	15332	
472.29	15166	
472.49	15021	
472.69	15752	
472.89	16283	
473.09	14381	
473.29	14002	
473.49	15639	
473.69	15565	
473.89	14824	
474.09	14253	
474.29	16646	
474.49	16318	
474.69	14991	
474.89	14263	
475.09	15709	
475.29	15638	
475.49	13887	
475.69	14163	
475.88	16708	
476.08	15896	
476.28	13882	
476.48	13810	
476.68	16039	
476.88	15698	
477.08	13663	
477.28	14028	
477.48	15197	
477.68	15746	
477.88	13705	
478.08	13897	
478.28	16321	
478.48	15580	
478.67	14104	
478.87	13390	
479.07	16342	
479.27	15573	
479.47	14070	
479.67	14235	
479.87	15972	
480.07	16346	
480.27	13598	
480.47	14890	
480.67	15687	
480.87	16362	
481.06	13934	
481.26	14745	
481.46	15716	
481.66	15651	
481.86	14234	
482.06	15000	
482.26	15338	
482.46	16238	
482.66	14076	
482.86	13950	
483.05	15954	
483.25	15300	
483.45	16059	
483.65	14334	
483.85	15612	
484.05	15800	
484.25	14690	
484.45	15177	
484.65	16409	
484.84	16690	
485.04	14367	
485.24	14465	
485.44	16942	
485.64	15575	
485.84	14146	
486.04	15143	
486.24	16075	
486.44	16218	
486.63	14160	
486.83	14987	
487.03	16232	
487.23	16480	
487.43	14393	
487.63	16271	
487.83	16647	
488.02	17287	
488.22	15517	
488.42	15921	
488.62	17269	
488.82	16356	
489.02	14967	
489.22	15274	
489.41	17062	
489.61	16939	
489.81	14805	
490.01	14889	
490.21	17321	
490.41	17746	
490.61	15087	
490.8	15122	
491	16878	
491.2	16078	
491.4	15326	
491.6	14412	
491.8	16516	
491.99	16298	
492.19	14176	
492.39	14410	
492.59	16937	
492.79	17161	
492.99	15560	
493.18	14927	
493.38	17434	
493.58	18377	
493.78	16038	
493.98	15541	
494.18	17574	
494.37	17455	
494.57	16429	
494.77	16384	
494.97	18203	
495.17	18641	
495.37	16537	
495.56	16834	
495.76	19080	
495.96	18843	
496.16	17761	
496.36	17030	
496.55	19124	
496.75	18701	
496.95	17237	
497.15	17139	
497.35	18789	
497.54	19078	
497.74	16831	
497.94	18324	
498.14	19699	
498.34	19530	
498.53	17063	
498.73	17523	
498.93	18753	
499.13	19334	
499.33	17746	
499.52	17889	
499.72	19833	
499.92	19695	
500.12	17559	
500.32	17940	
500.51	19819	
500.71	19751	
500.91	18566	
501.11	17962	
501.31	19858	
501.5	20018	
501.7	18681	
501.9	17891	
502.1	19684	
502.29	19767	
502.49	18427	
502.69	18512	
502.89	19671	
503.09	19598	
503.28	17048	
503.48	17232	
503.68	18719	
503.88	18662	
504.07	17938	
504.27	17392	
504.47	19158	
504.67	19144	
504.86	17865	
505.06	17544	
505.26	18652	
505.46	19906	
505.65	17149	
505.85	17226	
506.05	18320	
506.25	18671	
506.44	16333	
506.64	16978	
506.84	18146	
507.04	18594	
507.23	16508	
507.43	16912	
507.63	19463	
507.83	18252	
508.02	16925	
508.22	16597	
508.42	19852	
508.62	18013	
508.81	16832	
509.01	17082	
509.21	17614	
509.4	18054	
509.6	16959	
509.8	16396	
510	18004	
510.19	19256	
510.39	16363	
510.59	16514	
510.79	18108	
510.98	19369	
511.18	16784	
511.38	16881	
511.57	18512	
511.77	18490	
511.97	17066	
512.17	16323	
512.36	18450	
512.56	18116	
512.76	16195	
512.95	16010	
513.15	18662	
513.35	17464	
513.55	17061	
513.74	16277	
513.94	18639	
514.14	17970	
514.33	17262	
514.53	16950	
514.73	18038	
514.92	18256	
515.12	16498	
515.32	16498	
515.51	18348	
515.71	18690	
515.91	18034	
516.11	16616	
516.3	19951	
516.5	18213	
516.7	16997	
516.89	17389	
517.09	18057	
517.29	18169	
517.48	17238	
517.68	16726	
517.88	17993	
518.07	18376	
518.27	17067	
518.47	16344	
518.66	18912	
518.86	17828	
519.06	16124	
519.25	16510	
519.45	18077	
519.65	19510	
519.84	17199	
520.04	17785	
520.24	19798	
520.43	18660	
520.63	16775	
520.83	16520	
521.02	17757	
521.22	18153	
521.42	16623	
521.61	17062	
521.81	17740	
522.01	17992	
522.2	16874	
522.4	16624	
522.6	18498	
522.79	17680	
522.99	16701	
523.18	16578	
523.38	18751	
523.58	18828	
523.77	18407	
523.97	16899	
524.17	20772	
524.36	20104	
524.56	18190	
524.76	18145	
524.95	19543	
525.15	19146	
525.34	17984	
525.54	18194	
525.74	20092	
525.93	19448	
526.13	19409	
526.33	18540	
526.52	20665	
526.72	20219	
526.91	19488	
527.11	19023	
527.31	20831	
527.5	21080	
527.7	19139	
527.89	18357	
528.09	20259	
528.29	20938	
528.48	19671	
528.68	19357	
528.87	21054	
529.07	20814	
529.27	19230	
529.46	18913	
529.66	20669	
529.85	21192	
530.05	18771	
530.25	19369	
530.44	21953	
530.64	20388	
530.83	18904	
531.03	19110	
531.23	21053	
531.42	20800	
531.62	20099	
531.81	19352	
532.01	21618	
532.21	22010	
532.4	19802	
532.6	20256	
532.79	22676	
532.99	22251	
533.18	20508	
533.38	21235	
533.58	22058	
533.77	22509	
533.97	20687	
534.16	21414	
534.36	23061	
534.55	22208	
534.75	21512	
534.95	20924	
535.14	23291	
535.34	22378	
535.53	20594	
535.73	21938	
535.92	23285	
536.12	22194	
536.31	20337	
536.51	21386	
536.71	22333	
536.9	21878	
537.1	20395	
537.29	20598	
537.49	22771	
537.68	21948	
537.88	21149	
538.07	20300	
538.27	22472	
538.46	23308	
538.66	20363	
538.86	20851	
539.05	22503	
539.25	22818	
539.44	21431	
539.64	20596	
539.83	22380	
540.03	22993	
540.22	20470	
540.42	20240	
540.61	22132	
540.81	22311	
541	20502	
541.2	21366	
541.39	21745	
541.59	22066	
541.78	21058	
541.98	20012	
542.18	21459	
542.37	21330	
542.57	20245	
542.76	20847	
542.96	21171	
543.15	21682	
543.35	19977	
543.54	19560	
543.74	21530	
543.93	21360	
544.13	19596	
544.32	20489	
544.52	21358	
544.71	20786	
544.91	18944	
545.1	19876	
545.3	20907	
545.49	21361	
545.69	18843	
545.88	19206	
546.08	22198	
546.27	21573	
546.47	19666	
546.66	19171	
546.86	21289	
547.05	21893	
547.24	19266	
547.44	19241	
547.63	20440	
547.83	21398	
548.02	19515	
548.22	19552	
548.41	20123	
548.61	21170	
548.8	18876	
549	18829	
549.19	20489	
549.39	20872	
549.58	18460	
549.78	18948	
549.97	20716	
550.17	20218	
550.36	19443	
550.55	20142	
550.75	20126	
550.94	20790	
551.14	18349	
551.33	18470	
551.53	19612	
551.72	20500	
551.92	18666	
552.11	18436	
552.31	20341	
552.5	20220	
552.69	19737	
552.89	18072	
553.08	20276	
553.28	19872	
553.47	18323	
553.67	19091	
553.86	20598	
554.06	19112	
554.25	17335	
554.44	18016	
554.64	21132	
554.83	20721	
555.03	17967	
555.22	18138	
555.42	20080	
555.61	19798	
555.8	17898	
556	18070	
556.19	19249	
556.39	20032	
556.58	18043	
556.78	18015	
556.97	19707	
557.16	19452	
557.36	18940	
557.55	17683	
557.75	18743	
557.94	20318	
558.13	17775	
558.33	17559	
558.52	19898	
558.72	19027	
558.91	17469	
559.1	17660	
559.3	18665	
559.49	18385	
559.69	17062	
559.88	17770	
560.07	19230	
560.27	19680	
560.46	17970	
560.66	18073	
560.85	19170	
561.04	18161	
561.24	17233	
561.43	17127	
561.63	18469	
561.82	18604	
562.01	18143	
562.21	17509	
562.4	18983	
562.59	19929	
562.79	17284	
562.98	17197	
563.18	19114	
563.37	20450	
563.56	17856	
563.76	17399	
563.95	18834	
564.14	18905	
564.34	17759	
564.53	17168	
564.73	19254	
564.92	19504	
565.11	17819	
565.31	17353	
565.5	19840	
565.69	19061	
565.89	17397	
566.08	17816	
566.27	19661	
566.47	20127	
566.66	18267	
566.85	17314	
567.05	19516	
567.24	18917	
567.44	17360	
567.63	18591	
567.82	19531	
568.02	19291	
568.21	17528	
568.4	17741	
568.6	19343	
568.79	19284	
568.98	17513	
569.18	17752	
569.37	19523	
569.56	21100	
569.76	18129	
569.95	18769	
570.14	19729	
570.34	19766	
570.53	17597	
570.72	17542	
570.91	20160	
571.11	19383	
571.3	17959	
571.49	18599	
571.69	19704	
571.88	19052	
572.07	18461	
572.27	18325	
572.46	19009	
572.65	19920	
572.85	17705	
573.04	17942	
573.23	20291	
573.43	19584	
573.62	17752	
573.81	18172	
574	19962	
574.2	19752	
574.39	18333	
574.58	18395	
574.78	20848	
574.97	20215	
575.16	18639	
575.36	18956	
575.55	20564	
575.74	20655	
575.93	18098	
576.13	19144	
576.32	20037	
576.51	20646	
576.71	18578	
576.9	19642	
577.09	20822	
577.28	20292	
577.48	18751	
577.67	18114	
577.86	20111	
578.05	20542	
578.25	18740	
578.44	18598	
578.63	20136	
578.83	21358	
579.02	18155	
579.21	19531	
579.4	20382	
579.6	20255	
579.79	18820	
579.98	20459	
580.17	20570	
580.37	20849	
580.56	18224	
580.75	19019	
580.94	21041	
581.14	20867	
581.33	19321	
581.52	18464	
581.71	20560	
581.91	21252	
582.1	18376	
582.29	18653	
582.48	20225	
582.68	20342	
582.87	19133	
583.06	18879	
583.25	20606	
583.45	20123	
583.64	19635	
583.83	19861	
584.02	20302	
584.21	20663	
584.41	19300	
584.6	18725	
584.79	20469	
584.98	21102	
585.18	18444	
585.37	18314	
585.56	19990	
585.75	20693	
585.94	18314	
586.14	19200	
586.33	20761	
586.52	20121	
586.71	18542	
586.91	18424	
587.1	19286	
587.29	20076	
587.48	17907	
587.67	17997	
587.87	19758	
588.06	19907	
588.25	18968	
588.44	18273	
588.63	19389	
588.83	19955	
589.02	17793	
589.21	17539	
589.4	18807	
589.59	18792	
589.78	16376	
589.98	16457	
590.17	17813	
590.36	18015	
590.55	15289	
590.74	15664	
590.94	18710	
591.13	17589	
591.32	15745	
591.51	15266	
591.7	18042	
591.89	17864	
592.09	15579	
592.28	15973	
592.47	16986	
592.66	18827	
592.85	15760	
593.05	15904	
593.24	17531	
593.43	18330	
593.62	16052	
593.81	16376	
594	17686	
594.19	17828	
594.39	15792	
594.58	15863	
594.77	18094	
594.96	18155	
595.15	15749	
595.34	16181	
595.54	17494	
595.73	16914	
595.92	14972	
596.11	15763	
596.3	17980	
596.49	16944	
596.68	15563	
596.88	16084	
597.07	17805	
597.26	16824	
597.45	15093	
597.64	16184	
597.83	16898	
598.02	17394	
598.22	15223	
598.41	15591	
598.6	17348	
598.79	16716	
598.98	15181	
599.17	15973	
599.36	17071	
599.55	17875	
599.74	16691	
599.94	16645	
600.13	17512	
600.32	16410	
600.51	14906	
600.7	14928	
600.89	17866	
601.08	17961	
601.27	14779	
601.47	15509	
601.66	17191	
601.85	17703	
602.04	15431	
602.23	15255	
602.42	16480	
602.61	16994	
602.8	15020	
602.99	14717	
603.18	16722	
603.37	16940	
603.57	15309	
603.76	15672	
603.95	17552	
604.14	17062	
604.33	15060	
604.52	15121	
604.71	16916	
604.9	16459	
605.09	15596	
605.28	15380	
605.47	17392	
605.66	16914	
605.86	15309	
606.05	14826	
606.24	17207	
606.43	15999	
606.62	15055	
606.81	15623	
607	17163	
607.19	16423	
607.38	14503	
607.57	14701	
607.76	16118	
607.95	15707	
608.14	14968	
608.33	15424	
608.52	16114	
608.72	17009	
608.91	14151	
609.1	14157	
609.29	16206	
609.48	15720	
609.67	14904	
609.86	14169	
610.05	15756	
610.24	15890	
610.43	14088	
610.62	13614	
610.81	16805	
611	16806	
611.19	14077	
611.38	14677	
611.57	16215	
611.76	17182	
611.95	13954	
612.14	13691	
612.33	15848	
612.52	15472	
612.71	14307	
612.9	13577	
613.09	15226	
613.28	17090	
613.47	14146	
613.66	14875	
613.85	15952	
614.04	15537	
614.24	13975	
614.43	13404	
614.62	16083	
614.81	15950	
615	14428	
615.19	14463	
615.38	15468	
615.57	15771	
615.76	14349	
615.95	15117	
616.14	16175	
616.33	15760	
616.52	14581	
616.71	14632	
616.9	15979	
617.09	15936	
617.28	14022	
617.47	14999	
617.66	15508	
617.85	15575	
618.04	14969	
618.22	14513	
618.41	15934	
618.6	16797	
618.79	14646	
618.98	14487	
619.17	17009	
619.36	15600	
619.55	14635	
619.74	14726	
619.93	16457	
620.12	16041	
620.31	15182	
620.5	15467	
620.69	17045	
620.88	17438	
621.07	15982	
621.26	15335	
621.45	17042	
621.64	16924	
621.83	15411	
622.02	14590	
622.21	16849	
622.4	16703	
622.59	15848	
622.78	15732	
622.97	16432	
623.16	17197	
623.35	15455	
623.54	14714	
623.72	16620	
623.91	16688	
624.1	15511	
624.29	14593	
624.48	17648	
624.67	17077	
624.86	15557	
625.05	14952	
625.24	17674	
625.43	16414	
625.62	16999	
625.81	14992	
626	17146	
626.19	16715	
626.38	15745	
626.56	15164	
626.75	16669	
626.94	17407	
627.13	15700	
627.32	14672	
627.51	17095	
627.7	18030	
627.89	14724	
628.08	15546	
628.27	16367	
628.46	16586	
628.65	14886	
628.83	14618	
629.02	17059	
629.21	16401	
629.4	15282	
629.59	15395	
629.78	16466	
629.97	17043	
630.16	15509	
630.35	14985	
630.54	17589	
630.72	17137	
630.91	14965	
631.1	15371	
631.29	16814	
631.48	16926	
631.67	15468	
631.86	14874	
632.05	16560	
632.24	16431	
632.42	14655	
632.61	15160	
632.8	16479	
632.99	16111	
633.18	15313	
633.37	15401	
633.56	16771	
633.75	16659	
633.93	15152	
634.12	14904	
634.31	17322	
634.5	17129	
634.69	15079	
634.88	15352	
635.07	16646	
635.25	16958	
635.44	15752	
635.63	15760	
635.82	16305	
636.01	15855	
636.2	15435	
636.39	15170	
636.57	17201	
636.76	16770	
636.95	14698	
637.14	15726	
637.33	16728	
637.52	17300	
637.7	14397	
637.89	15280	
638.08	16393	
638.27	17444	
638.46	15257	
638.65	15433	
638.83	17095	
639.02	15894	
639.21	14961	
639.4	15359	
639.59	16227	
639.78	15870	
639.96	14193	
640.15	14165	
640.34	16069	
640.53	16023	
640.72	13821	
640.91	14145	
641.09	15309	
641.28	16517	
641.47	14154	
641.66	14866	
641.85	15870	
642.03	16025	
642.22	14568	
642.41	14093	
642.6	15282	
642.79	14809	
642.97	13765	
643.16	14472	
643.35	15182	
643.54	14995	
643.73	13692	
643.91	14131	
644.1	14676	
644.29	15404	
644.48	13496	
644.67	13482	
644.85	14761	
645.04	14973	
645.23	12945	
645.42	13119	
645.6	14261	
645.79	15259	
645.98	12922	
646.17	12183	
646.36	13875	
646.54	14242	
646.73	13198	
646.92	12258	
647.11	13798	
647.29	14591	
647.48	12302	
647.67	12138	
647.86	14810	
648.05	14844	
648.23	12465	
648.42	13533	
648.61	14308	
648.8	13951	
648.98	12020	
649.17	12320	
649.36	13615	
649.55	13297	
649.73	12168	
649.92	12790	
650.11	13659	
650.3	13909	
650.48	12228	
650.67	12020	
650.86	13903	
651.05	12972	
651.23	11937	
651.42	11939	
651.61	13457	
651.79	13398	
651.98	12133	
652.17	11740	
652.36	13550	
652.54	12876	
652.73	11771	
652.92	11576	
653.11	13630	
653.29	13611	
653.48	11060	
653.67	11767	
653.85	13280	
654.04	14051	
654.23	11778	
654.42	11411	
654.6	12534	
654.79	13005	
654.98	10624	
655.16	10883	
655.35	11811	
655.54	11574	
655.73	10431	
655.91	10348	
656.1	12612	
656.29	11822	
656.47	10241	
656.66	11623	
656.85	12234	
657.03	12309	
657.22	10867	
657.41	10890	
657.59	12523	
657.78	12306	
657.97	10627	
658.16	11337	
658.34	13031	
658.53	13239	
658.72	11936	
658.9	12329	
659.09	12585	
659.28	12594	
659.46	11060	
659.65	11037	
659.84	12350	
660.02	12883	
660.21	10986	
660.4	10845	
660.58	13030	
660.77	12476	
660.96	11361	
661.14	10499	
661.33	13455	
661.52	13313	
661.7	10480	
661.89	13352	
662.08	12113	
662.26	11726	
662.45	10598	
662.64	10611	
662.82	12740	
663.01	12071	
663.2	10659	
663.38	11379	
663.57	12513	
663.75	12444	
663.94	10821	
664.13	11826	
664.31	12010	
664.5	12480	
664.69	11159	
664.87	11491	
665.06	11920	
665.25	12366	
665.43	11650	
665.62	11564	
665.8	12557	
665.99	12021	
666.18	10819	
666.36	10864	
666.55	12456	
666.74	12370	
666.92	10555	
667.11	11683	
667.29	12037	
667.48	12304	
667.67	11458	
667.85	10681	
668.04	11895	
668.22	11940	
668.41	10699	
668.6	10802	
668.78	11772	
668.97	11939	
669.15	10943	
669.34	10090	
669.53	11854	
669.71	11956	
669.9	10139	
670.08	10651	
670.27	11630	
670.46	12101	
670.64	10873	
670.83	11112	
671.01	11562	
671.2	12005	
671.38	10348	
671.57	10232	
671.76	12568	
671.94	13056	
672.13	10176	
672.31	10862	
672.5	12227	
672.69	11787	
672.87	10265	
673.06	10535	
673.24	12095	
673.43	11744	
673.61	10691	
673.8	10411	
673.98	12078	
674.17	12341	
674.36	10927	
674.54	10827	
674.73	11968	
674.91	12185	
675.1	10562	
675.28	10228	
675.47	11736	
675.65	12213	
675.84	10420	
676.03	10630	
676.21	11559	
676.4	11351	
676.58	10973	
676.77	10996	
676.95	12918	
677.14	11587	
677.32	10107	
677.51	10056	
677.69	12193	
677.88	11246	
678.06	10034	
678.25	10166	
678.44	11748	
678.62	11514	
678.81	9807	
678.99	10660	
679.18	12416	
679.36	12060	
679.55	10351	
679.73	10820	
679.92	12019	
680.1	11533	
680.29	11346	
680.47	10262	
680.66	11514	
680.84	12211	
681.03	9830.9	
681.21	10744	
681.4	11521	
681.58	11439	
681.77	10032	
681.95	10066	
682.14	12133	
682.32	12388	
682.51	10772	
682.69	9706.7	
682.88	11417	
683.06	11783	
683.25	10498	
683.43	10950	
683.62	11637	
683.8	11971	
683.99	10984	
684.17	10297	
684.36	12439	
684.54	11370	
684.73	9334.6	
684.91	9513.5	
685.1	11258	
685.28	10699	
685.46	9661.6	
685.65	9577	
685.83	11120	
686.02	10688	
686.2	9290.3	
686.39	9445.9	
686.57	10676	
686.76	11895	
686.94	9418.6	
687.13	9627.5	
687.31	11228	
687.5	11017	
687.68	9173.5	
687.86	10114	
688.05	12368	
688.23	10572	
688.42	10217	
688.6	9733.3	
688.79	11044	
688.97	11056	
689.16	10243	
689.34	9100.5	
689.52	11806	
689.71	11841	
689.89	10420	
690.08	9823.4	
690.26	11460	
690.45	11278	
690.63	10373	
690.81	9951.1	
691	11234	
691.18	11148	
691.37	9979.8	
691.55	11652	
691.74	11050	
691.92	12562	
692.1	9994.1	
692.29	9544.2	
692.47	11174	
692.66	10662	
692.84	9746.3	
693.02	10122	
693.21	10939	
693.39	11222	
693.58	10312	
693.76	9835	
693.94	12340	
694.13	12255	
694.31	10132	
694.5	10921	
694.68	11346	
694.86	11765	
695.05	10558	
695.23	10846	
695.42	12185	
695.6	14044	
695.78	11010	
695.97	10281	
696.15	12123	
696.34	11694	
696.52	10090	
696.7	10720	
696.89	11897	
697.07	11356	
697.25	10580	
697.44	11854	
697.62	11818	
697.81	11964	
697.99	10368	
698.17	10754	
698.36	11228	
698.54	11793	
698.72	10673	
698.91	9733.3	
699.09	11446	
699.28	11363	
699.46	10269	
699.64	10226	
699.83	11342	
700.01	12102	
700.19	10875	
700.38	9688.9	
700.56	12293	
700.74	11571	
700.93	9944.9	
701.11	10828	
701.29	11963	
701.48	12928	
701.66	10297	
701.84	10423	
702.03	11800	
702.21	12290	
702.39	10028	
702.58	10522	
702.76	12117	
702.94	12233	
703.13	10159	
703.31	12006	
703.49	11665	
703.68	12554	
703.86	10336	
704.04	11084	
704.23	11972	
704.41	12291	
704.59	10522	
704.78	11345	
704.96	12988	
705.14	12295	
705.33	10307	
705.51	10782	
705.69	11842	
705.87	12520	
706.06	11091	
706.24	10277	
706.42	12181	
706.61	12420	
706.79	11118	
706.97	10196	
707.16	11694	
707.34	12200	
707.52	10965	
707.7	10513	
707.89	11807	
708.07	11593	
708.25	11109	
708.44	11355	
708.62	11719	
708.8	12576	
708.98	11292	
709.17	10492	
709.35	12056	
709.53	12012	
709.72	10167	
709.9	10471	
710.08	12302	
710.26	12278	
710.45	11364	
710.63	10484	
710.81	11902	
710.99	11830	
711.18	10816	
711.36	10459	
711.54	11783	
711.72	12241	
711.91	10457	
712.09	9873.9	
712.27	11726	
712.45	12570	
712.64	10419	
712.82	9681.4	
713	10953	
713.18	11095	
713.37	9540.8	
713.55	10527	
713.73	11673	
713.91	10326	
714.1	9321	
714.28	8785.8	
714.46	10707	
714.64	9892.4	
714.83	8030.8	
715.01	8386.4	
715.19	9663	
715.37	9005.6	
715.55	7917.4	
715.74	8188.5	
715.92	10148	
716.1	8487.5	
716.28	8882.7	
716.47	8049.2	
716.65	9029.5	
716.83	9055.4	
717.01	7973.4	
717.19	7912	
717.38	10705	
717.56	8745.5	
717.74	8212.4	
717.92	7555.6	
718.1	9792	
718.29	9317.6	
718.47	7496.9	
718.65	8170.7	
718.83	10248	
719.01	10307	
719.2	7767.9	
719.38	8733.2	
719.56	10107	
719.74	11374	
719.92	8391.2	
720.11	9084.8	
720.29	10066	
720.47	9241.1	
720.65	7769.3	
720.83	8258.8	
721.02	9258.9	
721.2	8884.1	
721.38	8216.5	
721.56	7464.2	
721.74	8441	
721.92	8559.8	
722.11	8418.5	
722.29	8212.4	
722.47	9586.5	
722.65	8893	
722.83	7391.1	
723.01	8081.3	
723.2	8969.4	
723.38	9256.1	
723.56	6975.4	
723.74	7985.7	
723.92	8572.8	
724.1	9521	
724.29	7335.8	
724.47	8236.2	
724.65	8578.3	
724.83	8464.9	
725.01	7167.9	
725.19	7965.9	
725.37	8507.3	
725.56	8553.7	
725.74	7103	
725.92	7289.4	
726.1	8528.4	
726.28	8815.8	
726.46	7537.2	
726.64	7328.3	
726.83	8721.6	
727.01	8828.8	
727.19	7075.7	
727.37	7758.4	
727.55	8869.8	
727.73	9168.8	
727.91	6984.3	
728.09	6959.7	
728.28	9241.8	
728.46	9518.3	
728.64	7929.1	
728.82	7761.8	
729	10058	
729.18	9565.4	
729.36	7258.7	
729.54	9111.4	
729.72	10458	
729.91	9160.6	
730.09	8981	
730.27	8040.3	
730.45	9241.8	
730.63	9661.6	
730.81	8423.3	
730.99	7838.9	
731.17	10131	
731.35	8948.3	
731.53	8208.9	
731.71	7861.5	
731.9	9858.2	
732.08	9844.6	
732.26	7908.6	
732.44	7638.9	
732.62	9939.5	
732.8	9546.3	
732.98	8275.2	
733.16	7428.7	
733.34	9442.5	
733.52	8373.5	
733.7	7807.5	
733.88	8085.4	
734.07	9265.7	
734.25	9101.2	
734.43	7436.9	
734.61	8609	
734.79	10331	
734.97	8985.8	
735.15	7488.7	
735.33	7699	
735.51	9215.2	
735.69	8914.8	
735.87	8583	
736.05	7794.6	
736.23	9014.5	
736.41	8763.9	
736.59	7617.1	
736.77	7792.5	
736.95	9396.8	
737.13	8890.9	
737.32	7334.5	
737.5	7613.7	
737.68	9850	
737.86	8749.6	
738.04	7254.6	
738.22	8602.8	
738.4	8527.7	
738.58	8820.6	
738.76	7574.1	
738.94	6795.8	
739.12	8709.3	
739.3	8511.4	
739.48	8108.6	
739.66	7899	
739.84	8822	
740.02	8850	
740.2	6873.7	
740.38	7106.5	
740.56	9065.7	
740.74	8148.9	
740.92	7628.7	
741.1	7454.6	
741.28	8468.4	
741.46	8464.9	
741.64	7167.2	
741.82	7520.1	
742	8548.2	
742.18	8444.5	
742.36	7247.8	
742.54	6782.9	
742.72	8964	
742.9	7870.3	
743.08	7516	
743.26	6476.4	
743.44	8968.7	
743.62	8934.6	
743.8	7529	
743.98	6768.5	
744.16	8571.4	
744.34	8338	
744.52	7380.9	
744.7	7321.5	
744.88	8620.6	
745.06	8199.4	
745.24	7271	
745.42	7371.3	
745.6	8598.7	
745.78	8436.3	
745.96	6389.7	
746.14	6575.3	
746.32	9088.9	
746.5	8390.5	
746.68	6916	
746.86	6505	
747.03	8827.4	
747.21	7425.3	
747.39	6797.2	
747.57	6365.1	
747.75	8060.1	
747.93	8355	
748.11	6440.2	
748.29	6343.2	
748.47	9400.9	
748.65	7746.1	
748.83	7028.6	
749.01	6703	
749.19	8186.4	
749.37	7520.8	
749.55	6516.6	
749.73	6678.4	
749.91	7884	
750.09	7630.7	
750.26	6665.5	
750.44	6146.6	
750.62	7890.1	
750.8	7902.4	
750.98	6094.8	
751.16	6282.5	
751.34	7916.8	
751.52	7347.4	
751.7	6870.3	
751.88	6000.5	
752.06	8340	
752.24	8029.4	
752.42	5912.5	
752.59	6136.4	
752.77	7774.1	
752.95	8852.7	
753.13	6830.7	
753.31	6233.3	
753.49	7413	
753.67	7743.4	
753.85	6459.3	
754.03	6088.6	
754.21	8004.8	
754.38	8150.9	
754.56	6074.3	
754.74	5269.4	
754.92	7118.7	
755.1	7519.5	
755.28	5031.2	
755.46	5037.3	
755.64	7844.4	
755.82	7775.5	
755.99	4827.7	
756.17	4699.4	
756.35	5343.8	
756.53	6533.7	
756.71	3564.1	
756.89	4315.8	
757.07	6214.9	
757.25	5513.1	
757.42	4916.5	
757.6	5638.1	
757.78	6501.6	
757.96	5724.8	
758.14	4862.6	
758.32	4461.2	
758.5	5421.7	
758.67	6053.1	
758.85	4640	
759.03	4771.1	
759.21	6128.9	
759.39	5689.9	
759.57	4335.5	
759.75	5255.1	
759.92	6711.9	
760.1	6199.2	
760.28	5645.6	
760.46	5870.2	
760.64	6055.8	
760.82	5914.5	
760.99	5421.7	
761.17	4939.7	
761.35	6882.5	
761.53	5993.7	
761.71	5128.8	
761.89	5724.1	
762.06	6851.1	
762.24	6366.5	
762.42	5233.9	
762.6	5068	
762.78	6410.1	
762.96	7049.8	
763.13	5606	
763.31	5374.6	
763.49	7107.8	
763.67	6425.2	
763.85	6043.6	
764.02	6509.1	
764.2	7363.8	
764.38	6573.3	
764.56	5143.8	
764.74	5903.6	
764.91	7448.5	
765.09	6441.5	
765.27	4958.8	
765.45	4753.3	
765.63	7456	
765.8	7310.6	
765.98	4592.9	
766.16	4756.1	
766.34	6037.4	
766.52	5888.6	
766.69	5494	
766.87	4645.5	
767.05	6348	
767.23	6901.7	
767.41	4899.4	
767.58	4968.4	
767.76	6812.9	
767.94	6837.5	
768.12	4906.9	
768.29	5407.3	
768.47	6241.5	
768.65	6901.7	
768.83	4516.5	
769	5466	
769.18	5915.2	
769.36	6429.9	
769.54	5377.3	
769.72	4466.6	
769.89	6670.9	
770.07	6657.9	
770.25	4699.4	
770.43	5776	
770.6	7252.5	
770.78	7553.6	
770.96	4942.4	
771.14	5322.7	
771.31	6513.9	
771.49	5984.8	
771.67	4033.8	
771.85	4255	
772.02	5319.9	
772.2	5944.6	
772.38	4820.9	
772.55	4479.6	
772.73	6131.6	
772.91	5879.7	
773.09	4693.3	
773.26	4829.1	
773.44	6005.3	
773.62	5752.7	
773.8	4259.8	
773.97	3971.7	
774.15	6008.7	
774.33	5740.5	
774.5	4160.1	
774.68	4513.7	
774.86	6180.8	
775.04	5720.7	
775.21	4158.7	
775.39	4121.2	
775.57	5833.3	
775.74	6124.8	
775.92	3979.2	
776.1	3892.5	
776.27	5840.1	
776.45	6873	
776.63	4089.1	
776.81	3775.8	
776.98	5560.2	
777.16	6386.9	
777.34	4197	
777.51	4442	
777.69	5575.9	
777.87	5321.3	
778.04	4194.2	
778.22	4610.7	
778.4	5289.9	
778.57	5840.8	
778.75	3619.4	
778.93	3820.8	
779.1	5175.2	
779.28	5029.8	
779.46	3586.7	
779.64	3881.6	
779.81	5995.1	
779.99	6636.1	
780.17	4590.9	
780.34	4657.8	
780.52	5414.1	
780.69	5592.3	
780.87	4148.5	
781.05	3833.1	
781.22	5451	
781.4	5605.3	
781.58	3914.4	
781.75	3206.4	
781.93	5498.8	
782.11	4957.4	
782.28	4646.8	
782.46	3844.7	
782.64	4784.1	
782.81	5591.6	
782.99	3958.7	
783.17	3893.2	
783.34	5512.4	
783.52	4886.5	
783.69	3997	
783.87	4759.5	
784.05	4928.8	
784.22	4878.9	
784.4	4638	
784.58	4151.9	
784.75	5670.8	
784.93	5005.2	
785.1	3758	
785.28	4275.5	
785.46	5446.9	
785.63	4864.6	
785.81	3790.1	
785.99	3637.9	
786.16	5062.6	
786.34	5311.1	
786.51	3637.2	
786.69	3975.8	
786.87	4652.3	
787.04	5120.6	
787.22	3554.6	
787.39	4260.5	
787.57	4876.9	
787.75	5791	
787.92	4487.1	
788.1	4425.7	
788.27	4863.9	
788.45	4646.2	
788.63	4110.3	
788.8	3147	
788.98	5289.2	
789.15	4474.1	
789.33	3286.3	
789.5	3701.4	
789.68	5578	
789.86	5671.5	
790.03	4014.7	
790.21	3607.8	
790.38	5621	
790.56	4917.2	
790.73	3539.6	
790.91	3516.4	
791.09	4808.6	
791.26	5390.9	
791.44	3680.9	
791.61	3267.9	
791.79	4812.7	
791.96	4833.9	
792.14	3363.4	
792.32	3001	
792.49	4798.4	
792.67	4876.2	
792.84	3438.5	
793.02	3226.9	
793.19	5163.6	
793.37	5713.8	
793.54	2977.7	
793.72	3239.9	
793.89	5816.9	
794.07	4764.9	
794.25	3622.9	
794.42	3034.4	
794.6	5716.6	
794.77	5296	
794.95	4016.7	
795.12	3506.8	
795.3	4809.3	
795.47	5233.9	
795.65	3854.3	
795.82	3667.2	
796	4581.3	
796.17	6079.7	
796.35	3538.9	
796.52	4171.7	
796.7	5214.8	
796.87	5302.9	
797.05	3565.5	
797.22	4276.2	
797.4	5292.6	
797.57	5981.4	
797.75	3640.6	
797.92	3510.9	
798.1	5515.9	
798.27	4659.8	
798.45	3095.8	
798.62	3234.4	
798.8	4974.5	
798.97	5382.1	
799.15	3901.4	
799.32	3672.7	
799.5	4367.6	
799.67	5016.2	
799.85	3949.8	
800.02	2996.9	
800.2	4756.7	
800.37	4903.5	
800.55	4073.4	
800.72	3524.6	
800.9	5240.8	
801.07	5724.1	
801.25	4546.5	
801.42	3763.5	
801.6	5383.4	
801.77	5089.2	
801.95	3601.7	
802.12	3401	
802.29	5181.4	
802.47	5086.5	
802.64	3768.3	
802.82	2934.7	
802.99	4647.5	
803.17	5483.1	
803.34	3706.1	
803.52	3304.7	
803.69	5990.3	
803.87	4498	
804.04	3633.8	
804.21	3764.2	
804.39	5644.9	
804.56	4836.6	
804.74	3151.8	
804.91	3758	
805.09	4679.6	
805.26	4837.3	
805.44	3181.2	
805.61	3501.3	
805.78	5311.7	
805.96	5214.8	
806.13	3691.8	
806.31	3953.3	
806.48	4312.3	
806.66	4705.5	
806.83	3743	
807	3642	
807.18	4708.3	
807.35	4935.6	
807.53	3650.8	
807.7	3007.1	
807.87	5636	
808.05	4663.2	
808.22	3915.7	
808.4	2957.9	
808.57	4614.8	
808.74	4332.8	
808.92	3320.4	
809.09	4126	
809.27	4623.6	
809.44	5054.4	
809.61	2916.3	
809.79	3279.5	
809.96	5675.6	
810.14	5221.6	
810.31	2880.1	
810.48	3510.9	
810.66	4737.6	
810.83	5274.2	
811.01	3332.7	
811.18	3696.6	
811.35	5251.7	
811.53	4160.1	
811.7	3996.3	
811.87	3765.5	
812.05	4713.7	
812.22	4607.2	
812.39	3201.7	
812.57	3172.3	
812.74	4748.6	
812.92	6052.4	
813.09	3501.3	
813.26	3745.1	
813.44	5803.9	
813.61	4603.2	
813.78	2932	
813.96	3858.4	
814.13	4685.8	
814.3	4429.8	
814.48	4123.2	
814.65	3519.1	
814.82	5614.2	
815	4458.4	
815.17	3550.5	
815.34	4270	
815.52	4560.8	
815.69	4550.6	
815.87	3551.2	
816.04	3467.2	
816.21	4684.4	
816.38	4206.5	
816.56	3480.9	
816.73	3282.2	
816.9	5749.3	
817.08	5228.5	
817.25	3240.6	
817.42	3986	
817.6	4336.2	
817.77	4656.4	
817.94	3631.7	
818.12	3176.4	
818.29	4460.5	
818.46	6551.5	
818.64	3365.5	
818.81	3166.8	
818.98	4427	
819.16	6186.9	
819.33	3804.4	
819.5	3549.8	
819.67	4953.4	
819.85	5461.2	
820.02	3575.8	
820.19	3704.8	
820.37	4802.5	
820.54	4528.7	
820.71	3633.1	
820.88	4401.8	
821.06	4890.5	
821.23	4425.7	
821.4	3644.7	
821.58	3579.2	
821.75	5216.9	
821.92	4802.5	
822.09	2933.4	
822.27	3009.1	
822.44	4659.8	
822.61	4572.4	
822.79	2955.2	
822.96	5487.2	
823.13	5005.9	
823.3	4405.9	
823.48	3557.3	
823.65	3057.6	
823.82	5244.8	
823.99	4329.4	
824.17	4246.1	
824.34	3106.8	
824.51	5949.3	
824.68	4696.7	
824.86	3279.5	
825.03	3590.8	
825.2	4674.1	
825.37	5474.2	
825.55	3236.5	
825.72	3485.6	
825.89	5913.9	
826.06	5556.1	
826.24	3480.2	
826.41	3489.7	
826.58	5541.1	
826.75	4930.8	
826.92	2778.4	
827.1	3080.1	
827.27	7363.1	
827.44	5929.6	
827.61	3332	
827.79	3916.4	
827.96	4545.8	
828.13	4616.8	
828.3	3424.2	
828.47	2931.3	
828.65	4917.2	
828.82	4870.8	
828.99	4297.3	
829.16	3843.4	
829.34	5185.5	
829.51	4971.1	
829.68	3572.3	
829.85	3618.8	
830.02	5486.5	
830.2	5253.7	
830.37	2760.7	
830.54	4194.2	
830.71	5876.3	
830.88	4663.2	
831.05	2800.9	
831.23	3211.9	
831.4	5606.7	
831.57	6234	
831.74	3332	
831.91	2963.4	
832.09	4926	
832.26	5193.6	
832.43	3347.7	
832.6	3735.5	
832.77	4911.7	
832.94	5519.3	
833.12	2773.6	
833.29	3333.4	
833.46	4980.7	
833.63	6327.5	
833.8	3664.5	
833.97	3409.2	
834.15	5225.1	
834.32	5012.1	
834.49	3556.6	
834.66	3594.2	
834.83	5279	
835	4493.2	
835.17	3356.6	
835.35	3312.9	
835.52	5094	
835.69	4992.3	
835.86	3471.3	
836.03	2910.8	
836.2	5155.4	
836.37	4868	
836.55	3402.4	
836.72	3158.7	
836.89	4841.4	
837.06	5276.3	
837.23	3443.3	
837.4	3722.5	
837.57	5848.3	
837.75	6315.3	
837.92	3121.1	
838.09	3330.7	
838.26	4801.8	
838.43	5356.1	
838.6	3538.9	
838.77	3249.4	
838.94	6056.5	
839.11	5888.6	
839.29	3383.2	
839.46	2786.6	
839.63	5180.7	
839.8	4973.8	
839.97	3291.1	
840.14	3267.2	
840.31	5044.8	
840.48	5225.7	
840.65	2785.9	
840.82	3194.1	
841	5161.6	
841.17	5070.8	
841.34	3032.4	
841.51	3082.9	
841.68	5104.2	
841.85	4935.6	
842.02	3186	
842.19	2665.8	
842.36	5008	
842.53	4949.3	
842.7	3078.1	
842.87	3624.9	
843.05	6316.6	
843.22	4911.7	
843.39	2877.4	
843.56	3203.7	
843.73	4737.6	
843.9	5274.2	
844.07	4769	
844.24	3974.4	
844.41	7091.4	
844.58	4506.9	
844.75	2936.1	
844.92	3158	
845.09	5128.1	
845.26	5111.7	
845.43	3031.7	
845.6	3259.7	
845.77	5140.4	
845.94	4942.4	
846.12	3335.5	
846.29	3480.2	
846.46	5395	
846.63	5101.5	
846.8	3074	
846.97	3592.1	
847.14	5492	
847.31	5072.1	
847.48	3388	
847.65	3737.5	
847.82	5364.3	
847.99	5276.9	
848.16	3946.4	
848.33	3648.8	
848.5	4743.1	
848.67	5533.6	
848.84	2976.4	
849.01	3110.2	
849.18	4685.8	
849.35	4442	
849.52	3723.9	
849.69	2934.1	
849.86	5321.3	
850.03	5468.1	
850.2	3052.2	
850.37	3654.3	
850.54	5410.1	
850.71	4853.7	
850.88	3654.3	
851.05	2982.5	
851.22	5070.1	
851.39	5546.6	
851.56	2859	
851.73	3435.8	
851.9	4566.3	
852.07	5354.1	
852.24	3319.1	
852.41	3034.4	
852.58	5091.9	
852.75	4631.8	
852.92	3374.4	
853.09	2998.2	
853.26	4758.8	
853.43	5496.1	
853.6	2991.4	
853.77	2579.8	
853.94	5562.3	
854.11	4587.4	
854.28	4320.5	
854.44	3262.4	
854.61	5972.6	
854.78	5357.5	
854.95	3041.9	
855.12	3781.9	
855.29	4191.5	
855.46	5758.9	
855.63	3032.4	
855.8	4072	
855.97	4739	
856.14	5411.4	
856.31	4093.9	
856.48	3282.9	
856.65	4830.5	
856.82	4556.7	
856.99	2923.8	
857.16	3194.1	
857.33	6106.4	
857.49	4886.5	
857.66	3281.5	
857.83	3471.3	
858	4897.4	
858.17	5059.2	
858.34	2885.6	
858.51	2962	
858.68	5649	
858.85	5651.7	
859.02	3489.1	
859.19	3606.5	
859.36	4617.5	
859.52	4612	
859.69	3029.6	
859.86	3533.4	
860.03	4616.1	
860.2	5595.1	
860.37	2715.6	
860.54	3072.6	
860.71	5296	
860.88	5615.5	
861.05	3365.5	
861.21	3750.5	
861.38	5611.4	
861.55	4399.7	
861.72	2789.3	
861.89	3378.5	
862.06	5265.3	
862.23	5747.3	
862.4	2901.3	
862.56	3117	
862.73	5161.6	
862.9	4971.8	
863.07	3492.5	
863.24	2738.8	
863.41	4483.7	
863.58	4564.9	
863.75	3091.8	
863.91	3449.5	
864.08	5511.8	
864.25	5221	
864.42	3768.3	
864.59	4169	
864.76	5889.3	
864.93	4575.2	
865.09	2933.4	
865.26	3226.9	
865.43	5497.4	
865.6	5709.1	
865.77	2622.8	
865.94	2949.8	
866.1	5506.3	
866.27	5326.8	
866.44	4405.9	
866.61	2828.2	
866.78	4917.9	
866.95	5259.9	
867.11	2944.3	
867.28	2674.6	
867.45	5403.9	
867.62	4524	
867.79	3434.4	
867.96	2996.2	
868.12	4491.9	
868.29	5332.9	
868.46	2962.7	
868.63	3921.2	
868.8	5434.6	
868.97	5337.7	
869.13	3110.2	
869.3	3152.5	
869.47	5180	
869.64	5401.2	
869.81	3048.1	
869.97	3020.1	
870.14	5067.4	
870.31	5661.3	
870.48	2973	
870.65	3744.4	
870.81	4851.6	
870.98	4867.3	
871.15	3341.6	
871.32	3145.7	
871.48	5167.7	
871.65	5722.7	
871.82	2982.5	
871.99	3282.2	
872.16	6022.4	
872.32	5552.7	
872.49	3052.2	
872.66	3018	
872.83	5305.6	
872.99	4696	
873.16	3439.2	
873.33	2984.6	
873.5	4956.8	
873.67	5079.6	
873.83	3210.5	
874	3965.6	
874.17	5090.6	
874.34	5920.7	
874.5	3793.5	
874.67	3659	
874.84	5579.3	
875.01	4433.9	
875.17	4181.3	
875.34	2960	
875.51	5096.7	
875.68	6023.1	
875.84	3552.5	
876.01	4263.2	
876.18	5286.5	
876.34	5229.8	
876.51	3050.1	
876.68	2963.4	
876.85	4823	
877.01	5510.4	
877.18	4197	
877.35	2963.4	
877.52	5012.1	
877.68	4513.7	
877.85	2962	
878.02	2988.7	
878.18	4898.1	
878.35	4733.5	
878.52	2430.3	
878.69	3319.1	
878.85	5356.1	
879.02	5276.3	
879.19	4181.3	
879.35	3213.3	
879.52	5227.1	
879.69	5393.7	
879.86	2615.9	
880.02	3282.9	
880.19	4924.7	
880.36	5865.4	
880.52	3454.9	
880.69	3504.1	
880.86	5348.6	
881.02	5377.3	
881.19	3244	
881.36	3248.8	
881.52	5203.2	
881.69	4663.2	
881.86	3248.8	
882.02	3175.7	
882.19	5427.1	
882.36	6321.4	
882.52	3048.1	
882.69	4132.8	
882.86	5070.8	
883.02	5049.6	
883.19	3601.7	
883.36	3406.5	
883.52	5365	
883.69	6016.2	
883.86	3033.7	
884.02	2721.1	
884.19	5302.9	
884.36	4990.2	
884.52	3394.8	
884.69	3174.4	
884.86	4764.3	
885.02	5790.3	
885.19	3364.8	
885.36	3397.6	
885.52	4922	
885.69	5053	
885.86	4257.7	
886.02	3796.9	
886.19	5315.2	
886.35	4784.1	
886.52	3269.2	
886.69	4134.2	
886.85	4577.2	
887.02	5574.6	
887.19	5574.6	
887.35	5574.6	
887.52	5574.6	
887.68	5574.6	
887.85	5574.6	
888.02	5574.6	
888.18	5574.6	
888.35	5574.6	
888.51	5574.6	
888.68	5574.6	
888.85	5574.6	
889.01	5574.6	
889.18	5574.6	
889.35	5574.6	
889.51	5574.6	
889.68	5574.6	
889.84	5574.6	
890.01	5574.6	
890.17	5574.6	
890.34	5574.6	
890.51	5574.6	
890.67	5574.6	
890.84	5574.6	
891	5574.6	
891.17	5574.6	
891.34	5574.6	
891.5	5574.6	
891.67	5574.6	
891.83	5574.6	
892	5574.6	
892.16	5574.6	
892.33	5574.6	
892.5	5574.6	
892.66	5574.6	
892.83	5574.6	
892.99	5574.6	
893.16	5574.6	
893.32	5574.6	
893.49	5574.6	
893.65	5574.6	
893.82	5574.6	
893.99	5574.6	
894.15	5574.6	
894.32	5574.6	
894.48	5574.6	
894.65	5574.6	
894.81	5574.6	
894.98	5574.6	
895.14	5574.6	
895.31	5574.6	
895.47	5574.6	
895.64	5574.6	
895.81	5574.6	
895.97	5574.6	
896.14	5574.6	
896.3	5574.6	
896.47	5574.6	
896.63	5574.6	
896.8	5574.6	
896.96	5574.6	
897.13	5574.6	
897.29	5574.6	
897.46	5574.6	
897.62	5574.6	
897.79	5574.6	
897.95	5574.6	
898.12	5574.6	
898.28	5574.6	
898.45	5574.6	
898.61	5574.6	
898.78	5574.6	
898.94	5574.6	
899.11	5574.6	
899.27	5574.6	
899.44	5574.6	
899.6	5574.6	
899.77	5574.6	
899.93	5574.6	
900.1	5574.6	
900.26	5574.6	
900.43	5574.6	
900.59	5574.6	
900.76	5574.6	
900.92	5574.6	
901.09	5574.6	
901.25	5574.6	
901.42	5574.6	
901.58	5574.6	
901.75	5574.6	
901.91	5574.6	
902.07	5574.6	
902.24	5574.6	
902.4	5574.6	
902.57	5574.6	
902.73	5574.6	
902.9	5574.6	
903.06	5574.6	
903.23	5574.6	
903.39	5574.6	
903.56	5574.6	
903.72	5574.6	
903.88	5574.6	
904.05	5574.6	
904.21	5574.6	
904.38	5574.6	
904.54	5574.6	
904.71	5574.6	
904.87	5574.6	
905.03	5574.6	
905.2	5574.6	
905.36	5574.6	
905.53	5574.6	
905.69	5574.6	
905.86	5574.6	
906.02	5574.6	
906.18	5574.6	
906.35	5574.6	
906.51	5574.6	
906.68	5574.6	
906.84	5574.6	
907.01	5574.6	
907.17	5574.6	
907.33	5574.6	
907.5	5574.6	
907.66	5574.6	
907.83	5574.6	
907.99	5574.6	
908.15	5574.6	
908.32	5574.6	
908.48	5574.6	
908.65	5574.6	
908.81	5574.6	
908.97	5574.6	
909.14	5574.6	
909.3	5574.6	
909.47	5574.6	
909.63	5574.6	
909.79	5574.6	
909.96	5574.6	
910.12	5574.6	
910.28	5574.6	
910.45	5574.6	
910.61	5574.6	
910.78	5574.6	
910.94	5574.6	
911.1	5574.6	
911.27	5574.6	
911.43	5574.6	
911.59	5574.6	
911.76	5574.6	
911.92	5574.6	
912.08	5574.6	
912.25	5574.6	
912.41	5574.6	
912.57	5574.6	
912.74	5574.6	
912.9	5574.6	
913.07	5574.6	
913.23	5574.6	
913.39	5574.6	
913.56	5574.6	
913.72	5574.6	
913.88	5574.6	
914.05	5574.6	
914.21	5574.6	
914.37	5574.6	
914.54	5574.6	
914.7	5574.6	
914.86	5574.6	
915.03	5574.6	
915.19	5574.6	
