Wavelength	Intensities	
nm	a.u.	
179.22	1481	
179.44	1485.5	
179.65	1476.6	
179.86	1494.3	
180.08	1518.9	
180.29	3250.8	
180.51	2599.6	
180.72	4451.6	
180.94	4748.6	
181.15	2306.7	
181.37	2325.1	
181.58	4252.3	
181.79	4334.9	
182.01	2392.7	
182.22	2476.7	
182.44	4414.1	
182.65	3952.6	
182.87	2928.6	
183.08	2691.7	
183.29	4693.9	
183.51	3860.4	
183.72	2438.4	
183.94	3255.6	
184.15	4209.9	
184.37	4075.5	
184.58	2227.5	
184.79	2747.7	
185.01	4009.9	
185.22	4508.3	
185.44	2815.3	
185.65	2618.7	
185.86	4302.1	
186.08	3907.5	
186.29	2255.5	
186.51	2379.7	
186.72	4061.8	
186.94	4476.2	
187.15	2653.5	
187.36	2719	
187.58	5345.2	
187.79	4300.1	
188.01	2720.4	
188.22	3868.6	
188.43	4803.2	
188.65	4366.3	
188.86	2362.7	
189.08	2696.5	
189.29	4009.9	
189.5	4024.3	
189.72	2441.9	
189.93	2522.4	
190.15	4495.3	
190.36	5010	
190.57	2703.3	
190.79	2567.5	
191	4504.2	
191.22	4455	
191.43	2694.4	
191.64	2389.3	
191.86	4593.6	
192.07	4510.3	
192.29	2450.1	
192.5	2489	
192.71	4519.2	
192.93	4097.3	
193.14	2454.1	
193.35	2580.4	
193.57	4007.9	
193.78	4496.7	
194	2149	
194.21	2467.1	
194.42	3885	
194.64	4274.8	
194.85	2624.1	
195.07	2945	
195.28	4152.6	
195.49	3826.3	
195.71	3080.8	
195.92	2390.7	
196.13	4335.5	
196.35	4323.9	
196.56	3223.5	
196.78	2685.6	
196.99	5063.3	
197.2	4728.1	
197.42	2897.2	
197.63	2708.8	
197.84	3897.3	
198.06	4315.1	
198.27	2461.7	
198.48	3109.5	
198.7	4072	
198.91	4291.2	
199.13	2679.4	
199.34	2684.2	
199.55	4552.6	
199.77	3674.7	
199.98	2444.6	
200.19	2686.9	
200.41	4227	
200.62	3949.2	
200.83	2759.3	
201.05	2897.2	
201.26	4214.7	
201.47	4036.5	
201.69	2416.6	
201.9	2456.9	
202.11	4250.9	
202.33	4701.5	
202.54	2525.1	
202.76	2788	
202.97	4198.3	
203.18	4331.5	
203.4	2736.1	
203.61	2792.1	
203.82	4284.4	
204.04	3970.3	
204.25	2718.3	
204.46	2611.2	
204.68	4254.3	
204.89	4337.6	
205.1	2608.4	
205.32	2370.2	
205.53	4328	
205.74	4477.5	
205.96	2159.9	
206.17	2673.3	
206.38	4326	
206.6	4448.9	
206.81	2911.5	
207.02	2551.1	
207.24	4321.2	
207.45	4538.3	
207.66	2587.3	
207.88	2309.4	
208.09	4306.9	
208.3	4200.4	
208.52	2429.6	
208.73	2612.5	
208.94	4198.3	
209.15	4565.6	
209.37	2550.4	
209.58	2647.3	
209.79	4440.7	
210.01	4086.4	
210.22	2196.1	
210.43	2310.8	
210.65	4156.7	
210.86	4333.5	
211.07	2581.8	
211.29	2396.8	
211.5	4217.5	
211.71	4184.7	
211.93	2463.7	
212.14	2465.8	
212.35	4234.5	
212.56	4126	
212.78	2697.2	
212.99	2266.4	
213.2	4674.8	
213.42	4085.7	
213.63	2486.2	
213.84	2538.8	
214.06	3926.6	
214.27	3868.6	
214.48	2506.7	
214.69	2713.6	
214.91	4593.6	
215.12	4510.3	
215.33	2656.2	
215.55	2859.6	
215.76	4831.2	
215.97	4340.3	
216.18	2591.4	
216.4	2591.4	
216.61	3965.6	
216.82	4451.6	
217.04	2452.1	
217.25	2512.9	
217.46	4498	
217.67	4443.4	
217.89	2256.2	
218.1	2325.8	
218.31	4196.3	
218.53	4316.4	
218.74	2587.9	
218.95	2424.8	
219.16	4221.5	
219.38	4765.6	
219.59	2462.3	
219.8	2792.7	
220.01	4928.8	
220.23	4233.2	
220.44	2968.9	
220.65	2412.5	
220.87	4306.9	
221.08	4518.5	
221.29	2343.6	
221.5	2807.1	
221.72	5143.8	
221.93	3930.1	
222.14	2650.8	
222.35	3016.7	
222.57	4141.7	
222.78	4474.1	
222.99	2618	
223.2	2725.2	
223.42	4360.8	
223.63	4354	
223.84	2093.7	
224.05	2208.4	
224.27	4861.2	
224.48	4618.9	
224.69	3020.8	
224.9	2699.2	
225.12	4272.1	
225.33	4164.2	
225.54	2275.3	
225.75	2463	
225.97	3976.5	
226.18	4143.7	
226.39	2500.6	
226.6	2469.2	
226.82	4039.3	
227.03	3978.5	
227.24	2636.4	
227.45	2338.1	
227.67	4439.3	
227.88	4526	
228.09	2925.2	
228.3	2843.9	
228.52	4385.4	
228.73	4153.3	
228.94	2493.1	
229.15	2357.9	
229.36	4190.8	
229.58	4188.8	
229.79	2578.4	
230	2825.5	
230.21	4797.7	
230.43	4236.6	
230.64	2665.8	
230.85	2638.5	
231.06	4456.4	
231.28	4405.2	
231.49	2293	
231.7	2661.7	
231.91	4440	
232.12	4140.3	
232.34	2441.9	
232.55	2568.8	
232.76	4493.9	
232.97	4204.5	
233.18	2412.5	
233.4	2686.9	
233.61	4264.6	
233.82	4018.8	
234.03	2570.2	
234.25	2491	
234.46	5227.8	
234.67	4227.7	
234.88	2742.9	
235.09	2449.4	
235.31	4259.1	
235.52	4127.3	
235.73	2626.2	
235.94	2343.6	
236.15	4074.8	
236.37	4774.5	
236.58	2400.9	
236.79	2537.4	
237	4343.1	
237.21	3906.2	
237.43	2684.9	
237.64	2342.9	
237.85	6197.2	
238.06	3988.1	
238.27	2661	
238.48	2379.1	
238.7	4416.1	
238.91	4148.5	
239.12	2526.5	
239.33	2680.1	
239.54	3977.2	
239.76	4132.1	
239.97	2594.1	
240.18	2600.2	
240.39	4755.4	
240.6	4214	
240.82	2742.9	
241.03	2345.6	
241.24	4133.5	
241.45	4584	
241.66	2387.9	
241.87	2740.9	
242.09	4616.1	
242.3	4706.2	
242.51	2740.9	
242.72	2574.3	
242.93	4360.8	
243.14	4124.6	
243.36	2930.6	
243.57	3011.9	
243.78	4663.2	
243.99	4391.5	
244.2	2513.5	
244.41	2394.8	
244.63	3869.3	
244.84	4263.9	
245.05	2708.1	
245.26	2553.1	
245.47	4358.1	
245.68	4363.5	
245.9	3108.8	
246.11	2702.6	
246.32	4035.9	
246.53	4353.3	
246.74	3822.9	
246.95	2255.5	
247.16	4051.6	
247.38	4187.4	
247.59	2353.1	
247.8	2648	
248.01	3811.3	
248.22	4211.3	
248.43	2443.2	
248.64	2590	
248.86	3947.8	
249.07	4108.9	
249.28	2443.2	
249.49	2693.1	
249.7	4401.1	
249.91	4510.3	
250.12	2297.8	
250.34	2309.4	
250.55	4293.2	
250.76	4156	
250.97	2658.3	
251.18	2694.4	
251.39	4457.1	
251.6	4270.7	
251.81	2643.2	
252.03	2664.4	
252.24	4035.2	
252.45	4363.5	
252.66	2348.3	
252.87	2792.1	
253.08	4169	
253.29	5055.8	
253.5	2350.4	
253.72	3046	
253.93	4158.1	
254.14	4711.7	
254.35	2488.3	
254.56	2487.6	
254.77	4273.4	
254.98	3971.7	
255.19	2555.2	
255.41	2972.3	
255.62	4369.7	
255.83	4492.6	
256.04	2764.8	
256.25	2579.1	
256.46	4798.4	
256.67	4046.1	
256.88	2658.3	
257.09	2813.9	
257.31	3847.5	
257.52	3924.6	
257.73	3181.9	
257.94	2513.5	
258.15	4188.1	
258.36	4147.8	
258.57	2947	
258.78	2104.6	
258.99	4461.2	
259.2	4082.3	
259.41	2525.8	
259.63	2599.6	
259.84	4605.2	
260.05	4743.8	
260.26	2995.5	
260.47	2475.3	
260.68	4519.9	
260.89	4075.5	
261.1	2892.4	
261.31	2397.5	
261.52	4640	
261.73	4678.9	
261.95	3064.4	
262.16	2725.8	
262.37	4551.3	
262.58	4607.9	
262.79	3056.9	
263	2480.1	
263.21	4177.9	
263.42	4001	
263.63	2682.2	
263.84	2552.5	
264.05	4452.3	
264.26	4567.7	
264.47	2937.5	
264.69	2704	
264.9	4694.6	
265.11	4166.9	
265.32	2385.9	
265.53	2463.7	
265.74	4242	
265.95	3798.3	
266.16	2565.4	
266.37	2784.6	
266.58	4265.9	
266.79	4065.2	
267	2533.3	
267.21	2332.6	
267.42	3910.3	
267.63	4173.8	
267.84	2525.8	
268.06	2345.6	
268.27	4429.8	
268.48	4535.6	
268.69	2546.3	
268.9	2802.3	
269.11	4330.1	
269.32	3795.6	
269.53	2611.2	
269.74	2450.7	
269.95	4209.9	
270.16	3834.5	
270.37	2621.4	
270.58	2913.6	
270.79	4096.6	
271	4483	
271.21	2684.9	
271.42	2628.2	
271.63	4366.3	
271.84	3882.3	
272.05	2241.8	
272.26	2357.9	
272.47	4210.6	
272.68	4258.4	
272.89	2603	
273.11	2690.3	
273.32	3958	
273.53	4616.8	
273.74	2732	
273.95	2710.1	
274.16	4332.8	
274.37	4093.9	
274.58	2821.4	
274.79	2459.6	
275	4307.6	
275.21	4385.4	
275.42	3224.2	
275.63	2772.9	
275.84	4369.7	
276.05	5063.3	
276.26	2626.9	
276.47	2512.9	
276.68	4188.1	
276.89	4652.3	
277.1	2760.7	
277.31	2339.5	
277.52	4250.2	
277.73	4564.9	
277.94	2329.2	
278.15	2501.3	
278.36	4298	
278.57	4038.6	
278.78	2496.5	
278.99	2717	
279.2	4099.4	
279.41	3951.2	
279.62	3081.5	
279.83	2377.7	
280.04	4841.4	
280.25	3984.7	
280.46	3127.9	
280.67	2644.6	
280.88	4034.5	
281.09	4531.5	
281.3	2691.7	
281.51	3192.8	
281.72	4347.8	
281.93	4332.1	
282.14	2492.4	
282.35	2624.1	
282.56	4489.8	
282.77	4332.8	
282.98	2521	
283.19	2881.5	
283.4	5107	
283.61	4133.5	
283.82	2418.7	
284.03	3089	
284.24	4394.3	
284.45	4451.6	
284.66	3126.6	
284.87	2890.4	
285.08	4515.8	
285.29	4578.6	
285.5	2325.8	
285.71	2527.2	
285.92	4459.1	
286.12	4840.7	
286.33	3080.1	
286.54	2568.2	
286.75	4429.1	
286.96	4085	
287.17	2441.9	
287.38	2876	
287.59	4055.7	
287.8	4089.1	
288.01	2558.6	
288.22	2686.3	
288.43	4248.2	
288.64	3874.1	
288.85	2932.7	
289.06	2757.2	
289.27	4459.8	
289.48	4614.1	
289.69	3087	
289.9	2895.1	
290.11	4622.3	
290.32	4082.3	
290.53	2896.5	
290.74	2747	
290.94	4400.4	
291.15	4406.5	
291.36	2448	
291.57	2771.6	
291.78	4091.2	
291.99	3844	
292.2	2414.6	
292.41	2718.3	
292.62	4462.5	
292.83	4388.1	
293.04	3250.1	
293.25	2491	
293.46	4136.9	
293.67	4450.2	
293.88	2423.4	
294.09	2440.5	
294.29	3995.6	
294.5	4270	
294.71	2583.2	
294.92	2498.5	
295.13	4082.3	
295.34	4833.9	
295.55	2299.9	
295.76	2285.5	
295.97	4464.6	
296.18	4713.7	
296.39	2368.1	
296.6	2505.3	
296.81	4117.8	
297.01	4424.3	
297.22	2581.1	
297.43	2512.9	
297.64	4144.4	
297.85	3920.5	
298.06	2185.2	
298.27	2323.1	
298.48	4123.9	
298.69	3985.3	
298.9	2671.2	
299.11	2456.2	
299.31	3979.2	
299.52	4022.2	
299.73	2785.2	
299.94	2704	
300.15	4222.2	
300.36	4024.3	
300.57	2724.5	
300.78	2700.6	
300.99	4030.4	
301.2	4210.6	
301.4	2553.1	
301.61	2565.4	
301.82	4282.3	
302.03	4472.8	
302.24	2816	
302.45	2442.5	
302.66	4324.6	
302.87	4392.9	
303.08	2455.5	
303.29	3145	
303.49	4144.4	
303.7	4024.9	
303.91	2331.3	
304.12	2975.7	
304.33	3843.4	
304.54	4262.5	
304.75	2506.7	
304.96	2484.9	
305.16	4400.4	
305.37	4679.6	
305.58	2290.3	
305.79	2290.3	
306	4341.7	
306.21	3822.2	
306.42	2506	
306.63	3386.7	
306.83	4077.5	
307.04	4289.1	
307.25	2626.9	
307.46	2640.5	
307.67	3801.7	
307.88	4306.9	
308.09	2543.6	
308.29	2465.8	
308.5	4226.3	
308.71	4422.2	
308.92	2588.6	
309.13	2398.2	
309.34	4242	
309.55	4184	
309.75	2988.7	
309.96	2696.5	
310.17	4420.9	
310.38	3966.2	
310.59	2754.5	
310.8	2661.7	
311.01	4111.6	
311.21	4194.9	
311.42	2468.5	
311.63	2436.4	
311.84	4079.6	
312.05	4191.5	
312.26	2722.4	
312.46	2878.1	
312.67	4127.3	
312.88	3853.6	
313.09	2398.2	
313.3	2362	
313.51	4622.9	
313.71	4819.6	
313.92	2420	
314.13	2500.6	
314.34	4326.7	
314.55	4210.6	
314.76	2867.2	
314.96	2632.3	
315.17	4358.1	
315.38	4192.2	
315.59	2450.7	
315.8	2354.5	
316.01	4532.2	
316.21	4688.5	
316.42	2391.3	
316.63	2637.8	
316.84	4097.3	
317.05	4387.4	
317.26	2740.2	
317.46	2519	
317.67	4176.5	
317.88	4369	
318.09	2937.5	
318.3	2278.7	
318.5	4094.6	
318.71	4278.2	
318.92	3481.5	
319.13	2780.5	
319.34	4466.6	
319.54	4490.5	
319.75	2319	
319.96	2183.1	
320.17	4332.1	
320.38	4493.2	
320.58	2295.8	
320.79	2598.9	
321	4555.4	
321.21	4536.3	
321.42	2624.1	
321.62	2288.9	
321.83	4083	
322.04	4240	
322.25	2522.4	
322.46	2435.7	
322.66	4217.5	
322.87	4405.9	
323.08	2801.6	
323.29	2333.3	
323.5	4796.3	
323.7	3926.6	
323.91	3000.3	
324.12	2769.5	
324.33	4306.9	
324.53	4320.5	
324.74	2697.2	
324.95	2814.6	
325.16	3902.7	
325.37	4096.6	
325.57	2417.3	
325.78	2464.4	
325.99	4306.2	
326.2	3896.6	
326.4	3193.5	
326.61	2263.7	
326.82	4136.2	
327.03	4179.9	
327.24	3190.1	
327.44	2985.3	
327.65	4344.4	
327.86	3732.8	
328.07	2717	
328.27	2394.8	
328.48	4592.2	
328.69	3891.8	
328.9	3162.1	
329.1	2481.5	
329.31	4154	
329.52	4569	
329.73	2450.7	
329.93	2566.1	
330.14	4268	
330.35	4270.7	
330.56	3625.6	
330.76	2826.9	
330.97	4057	
331.18	4168.3	
331.39	2641.2	
331.59	2273.2	
331.8	4473.4	
332.01	4570.4	
332.22	2506	
332.42	2684.2	
332.63	4267.3	
332.84	3935.5	
333.05	2666.5	
333.25	2463	
333.46	3990.1	
333.67	4150.5	
333.88	2520.4	
334.08	2647.3	
334.29	5087.8	
334.5	4441.4	
334.7	2379.7	
334.91	3078.1	
335.12	3845.4	
335.33	4315.8	
335.53	2644.6	
335.74	3448.1	
335.95	4196.3	
336.16	3900	
336.36	2560	
336.57	2934.1	
336.78	3770.3	
336.98	4460.5	
337.19	3108.8	
337.4	2523.8	
337.61	4844.1	
337.81	3964.2	
338.02	2506.7	
338.23	2910.8	
338.43	4553.3	
338.64	4023.6	
338.85	2443.9	
339.05	3016.7	
339.26	4672.8	
339.47	3873.4	
339.68	2482.1	
339.88	3205.1	
340.09	4392.9	
340.3	4453	
340.5	2736.1	
340.71	2197.5	
340.92	3958.7	
341.13	4486.4	
341.33	2339.5	
341.54	2770.9	
341.75	4296.6	
341.95	4055	
342.16	2697.2	
342.37	2814.6	
342.57	3953.9	
342.78	4127.3	
342.99	2819.4	
343.19	2269.8	
343.4	4362.2	
343.61	4286.4	
343.81	2589.3	
344.02	2353.1	
344.23	4389.5	
344.43	4560.1	
344.64	2893.1	
344.85	2817.3	
345.06	4309.6	
345.26	4439.3	
345.47	2760	
345.68	3106.8	
345.88	3902.7	
346.09	4364.2	
346.3	2773.6	
346.5	2192.7	
346.71	4106.2	
346.92	4020.2	
347.12	2405.7	
347.33	2617.3	
347.54	4459.8	
347.74	4574.5	
347.95	2685.6	
348.16	2195.4	
348.36	4091.8	
348.57	3923.9	
348.78	2824.8	
348.98	2852.1	
349.19	4130.1	
349.39	3824.9	
349.6	2353.8	
349.81	2437.1	
350.01	4419.5	
350.22	3953.3	
350.43	2686.3	
350.63	3029.6	
350.84	4171	
351.05	4012.7	
351.25	2447.3	
351.46	2285.5	
351.67	4388.1	
351.87	4007.2	
352.08	2575.7	
352.29	2872.6	
352.49	4403.1	
352.7	4388.8	
352.9	2349.7	
353.11	2843.3	
353.32	4733.5	
353.52	4063.2	
353.73	2430.3	
353.94	2889	
354.14	4336.2	
354.35	4132.1	
354.55	2524.5	
354.76	2669.2	
354.97	4318.5	
355.17	4147.8	
355.38	2412.5	
355.59	3055.6	
355.79	4014.7	
356	4115.7	
356.2	2622.1	
356.41	2428.9	
356.62	3921.2	
356.82	4167.6	
357.03	2818.7	
357.24	2564.7	
357.44	3978.5	
357.65	4076.1	
357.85	3246.7	
358.06	2716.3	
358.27	3867.2	
358.47	3905.5	
358.68	2398.2	
358.88	2789.3	
359.09	4313.7	
359.3	4440	
359.5	3193.5	
359.71	2854.2	
359.91	4650.9	
360.12	4297.3	
360.33	2889	
360.53	3068.5	
360.74	4070.7	
360.94	4035.2	
361.15	2962.7	
361.36	2540.2	
361.56	4556.7	
361.77	4175.1	
361.97	3141.6	
362.18	2653.5	
362.38	4506.2	
362.59	3936.9	
362.8	2490.3	
363	2471.2	
363.21	3949.8	
363.41	4181.3	
363.62	2760.7	
363.83	3194.1	
364.03	4388.1	
364.24	4657.1	
364.44	3396.9	
364.65	3342.3	
364.85	4212	
365.06	3993.5	
365.27	2646	
365.47	2667.1	
365.68	4717.8	
365.88	4164.9	
366.09	2809.1	
366.29	2601.6	
366.5	4155.3	
366.71	4438.6	
366.91	3309.5	
367.12	2938.2	
367.32	4919.2	
367.53	4348.5	
367.73	2983.9	
367.94	3454.2	
368.14	4453	
368.35	4693.9	
368.56	2899.9	
368.76	2764.1	
368.97	4485.7	
369.17	5279	
369.38	2630.3	
369.58	2775	
369.79	3865.2	
369.99	4721.9	
370.2	3386	
370.4	2832.3	
370.61	4313	
370.82	4989.5	
371.02	2869.9	
371.23	2396.1	
371.43	3969	
371.64	4721.3	
371.84	2884.9	
372.05	3419.4	
372.25	5239.4	
372.46	4326	
372.66	2808.4	
372.87	2779.8	
373.07	4414.7	
373.28	5415.5	
373.48	3315.7	
373.69	3165.5	
373.9	4283	
374.1	4240	
374.31	3350.5	
374.51	3059.7	
374.72	4732.9	
374.92	4076.1	
375.13	3441.3	
375.33	2990.7	
375.54	4517.8	
375.74	4268.6	
375.95	3124.5	
376.15	3687	
376.36	4631.1	
376.56	4478.9	
376.77	3083.6	
376.97	3252.9	
377.18	5218.9	
377.38	4574.5	
377.59	3468.6	
377.79	2932.7	
378	4515.1	
378.2	4637.3	
378.41	2910.8	
378.61	2850.8	
378.82	4757.4	
379.02	4319.8	
379.23	3014.6	
379.43	3510.2	
379.64	4949.3	
379.84	4560.1	
380.05	2954.5	
380.25	2809.1	
380.46	4618.2	
380.66	4381.3	
380.87	3648.1	
381.07	3771	
381.28	4984.1	
381.48	4597.7	
381.69	2927.2	
381.89	2942.2	
382.1	4065.9	
382.3	4562.2	
382.51	3448.1	
382.71	3902.7	
382.91	4472.1	
383.12	4844.8	
383.32	3045.3	
383.53	3181.2	
383.73	4504.8	
383.94	4423.6	
384.14	3116.3	
384.35	2648.7	
384.55	4254.3	
384.76	4511.7	
384.96	3130	
385.17	3201	
385.37	4611.3	
385.58	4109.6	
385.78	3185.3	
385.98	2645.3	
386.19	4306.9	
386.39	4545.8	
386.6	2942.2	
386.8	3063.1	
387.01	4603.8	
387.21	4723.3	
387.42	3297.2	
387.62	3499.3	
387.83	4326.7	
388.03	4388.1	
388.23	3192.1	
388.44	3547.1	
388.64	4109.6	
388.85	4152.6	
389.05	3308.8	
389.26	3581.2	
389.46	5408	
389.67	4959.5	
389.87	3328.6	
390.07	3364.8	
390.28	4432.5	
390.48	4225.6	
390.69	2865.8	
390.89	3108.8	
391.1	4401.1	
391.3	4829.1	
391.5	3749.8	
391.71	3994.9	
391.91	4803.9	
392.12	5100.1	
392.32	3743	
392.53	3327.9	
392.73	4384.7	
392.93	4408.6	
393.14	3200.3	
393.34	3514.3	
393.55	4778.6	
393.75	4403.8	
393.95	3221.5	
394.16	3028.3	
394.36	4346.5	
394.57	4749.2	
394.77	2925.9	
394.98	3022.8	
395.18	4319.8	
395.38	4406.5	
395.59	3670.6	
395.79	3076	
396	4515.1	
396.2	4744.5	
396.4	3525.9	
396.61	3463.1	
396.81	4824.3	
397.02	4358.8	
397.22	3743	
397.42	3673.4	
397.63	4922.6	
397.83	4360.1	
398.04	3026.2	
398.24	3330	
398.44	4757.4	
398.65	4035.9	
398.85	2951.8	
399.05	2990	
399.26	4491.9	
399.46	5289.2	
399.67	3267.9	
399.87	3097.2	
400.07	4605.2	
400.28	4803.2	
400.48	3121.8	
400.69	3742.3	
400.89	4812	
401.09	5184.8	
401.3	3160	
401.5	3732.1	
401.7	5285.1	
401.91	5424.4	
402.11	3393.5	
402.32	3391.4	
402.52	4987.5	
402.72	4868	
402.93	3555.3	
403.13	2880.8	
403.33	5309.7	
403.54	4528.7	
403.74	3326.6	
403.94	3736.9	
404.15	4617.5	
404.35	5273.5	
404.56	3224.9	
404.76	4157.4	
404.96	4958.8	
405.17	4772.4	
405.37	3682.2	
405.57	3568.9	
405.78	5012.1	
405.98	4642.1	
406.18	3307.5	
406.39	3719.1	
406.59	4814.1	
406.79	4624.3	
407	3094.5	
407.2	3111.5	
407.4	5216.9	
407.61	5010.7	
407.81	3318.4	
408.01	4076.8	
408.22	4331.5	
408.42	5487.9	
408.62	3986.7	
408.83	3643.3	
409.03	4909.7	
409.23	4844.8	
409.44	3706.1	
409.64	3827.7	
409.84	5439.4	
410.05	5399.1	
410.25	3845.4	
410.45	3682.2	
410.66	5243.5	
410.86	6486.6	
411.06	4012	
411.27	3902.1	
411.47	6418.3	
411.67	5360.9	
411.88	4044.1	
412.08	4131.4	
412.28	5683.8	
412.49	5866.7	
412.69	4001	
412.89	4011.3	
413.09	5760.9	
413.3	5687.2	
413.5	4145.1	
413.7	3852.9	
413.91	5283.1	
414.11	5763	
414.31	3958	
414.52	4272.1	
414.72	5697.4	
414.92	5560.9	
415.12	3947.8	
415.33	4312.3	
415.53	5747.3	
415.73	5898.8	
415.94	4412.7	
416.14	4034.5	
416.34	5281	
416.55	5089.9	
416.75	4774.5	
416.95	4465.9	
417.15	6036	
417.36	6130.9	
417.56	4921.3	
417.76	4368.3	
417.97	5988.3	
418.17	5867.4	
418.37	4240	
418.57	4222.2	
418.78	5924.8	
418.98	5604.6	
419.18	4676.9	
419.38	4602.5	
419.59	5519.3	
419.79	5314.5	
419.99	4078.2	
420.2	4245.4	
420.4	5879	
420.6	5817.6	
420.8	4045.4	
421.01	3979.2	
421.21	5871.5	
421.41	5780.7	
421.61	4274.8	
421.82	4052.2	
422.02	5586.2	
422.22	5971.9	
422.42	4527.4	
422.63	4279.6	
422.83	5546.6	
423.03	6213.5	
423.23	4260.5	
423.44	3792.2	
423.64	5558.9	
423.84	5240.1	
424.04	4061.8	
424.25	3879.5	
424.45	6003.3	
424.65	5913.9	
424.85	3702	
425.06	3982.6	
425.26	6255.9	
425.46	5483.8	
425.66	4319.2	
425.87	4171.7	
426.07	5816.9	
426.27	5700.9	
426.47	4100.7	
426.67	3789.4	
426.88	6114.6	
427.08	5681.1	
427.28	4361.5	
427.48	3796.9	
427.69	5213.4	
427.89	5464.7	
428.09	4289.1	
428.29	3759.4	
428.5	5753.4	
428.7	5594.4	
428.9	3703.4	
429.1	4022.2	
429.3	5646.2	
429.51	5709.7	
429.71	3952.6	
429.91	4396.3	
430.11	5898.8	
430.31	5897.5	
430.52	4205.2	
430.72	4255.7	
430.92	6018.3	
431.12	5729.5	
431.32	3911.6	
431.53	4147.8	
431.73	5188.9	
431.93	6042.9	
432.13	3962.8	
432.33	3794.2	
432.54	5537.7	
432.74	5556.1	
432.94	3867.2	
433.14	4351.3	
433.34	5935	
433.55	5617.6	
433.75	4361.5	
433.95	5225.1	
434.15	5722	
434.35	5425.1	
434.56	3985.3	
434.76	3730.7	
434.96	5665.4	
435.16	5841.5	
435.36	3936.9	
435.56	4488.5	
435.77	5489.9	
435.97	5627.8	
436.17	4875.5	
436.37	4473.4	
436.57	5457.2	
436.78	5461.9	
436.98	5384.8	
437.18	4754	
437.38	5777.3	
437.58	5530.9	
437.78	4792.2	
437.99	4125.3	
438.19	5812.1	
438.39	6411.5	
438.59	4076.1	
438.79	3676.1	
438.99	6189	
439.2	5457.8	
439.4	3825.6	
439.6	3824.2	
439.8	5601.9	
440	6341.2	
440.2	4535.6	
440.4	4598.4	
440.61	6092.7	
440.81	6262	
441.01	4125.3	
441.21	4567.7	
441.41	6253.8	
441.61	5988.9	
441.81	4743.8	
442.02	5180.7	
442.22	6445.6	
442.42	6070.2	
442.62	4068.6	
442.82	4201.7	
443.02	6456.6	
443.22	5876.3	
443.43	4339	
443.63	4071.4	
443.83	5685.2	
444.03	5627.8	
444.23	4789.5	
444.43	4547.2	
444.63	5967.8	
444.83	6477	
445.04	4263.9	
445.24	4765.6	
445.44	6094.8	
445.64	6057.9	
445.84	4527.4	
446.04	4601.1	
446.24	5638.7	
446.44	6177.4	
446.65	4009.9	
446.85	4309.6	
447.05	5792.3	
447.25	6177.4	
447.45	4483	
447.65	4019.5	
447.85	5971.2	
448.05	5556.1	
448.25	4573.1	
448.46	4427.7	
448.66	5825.1	
448.86	5601.9	
449.06	4041.3	
449.26	4582	
449.46	6030.6	
449.66	5587.5	
449.86	4404.5	
450.06	4315.8	
450.26	5618.9	
450.47	6025.8	
450.67	4485.1	
450.87	4579.9	
451.07	6253.8	
451.27	5820.3	
451.47	4121.2	
451.67	4579.9	
451.87	5730.9	
452.07	6340.5	
452.27	4234.5	
452.47	4220.2	
452.67	5920	
452.88	6030.6	
453.08	3814.7	
453.28	4884.4	
453.48	6597.9	
453.68	5727.5	
453.88	4160.8	
454.08	4261.8	
454.28	6130.9	
454.48	5919.3	
454.68	4610	
454.88	4749.2	
455.08	6200.6	
455.28	5975.3	
455.48	4102.8	
455.68	4482.3	
455.89	6441.5	
456.09	6239.5	
456.29	4332.1	
456.49	4402.5	
456.69	6437.4	
456.89	5883.8	
457.09	4688.5	
457.29	4894.6	
457.49	6234	
457.69	6219	
457.89	4699.4	
458.09	4268.6	
458.29	6146	
458.49	6455.9	
458.69	4814.8	
458.89	4454.3	
459.09	6629.3	
459.29	6608.8	
459.49	4517.8	
459.69	4920.6	
459.9	6318.7	
460.1	6072.2	
460.3	4440	
460.5	4334.2	
460.7	6359.6	
460.9	6006.7	
461.1	4261.1	
461.3	4907.6	
461.5	6763.8	
461.7	6421.1	
461.9	4508.3	
462.1	4709	
462.3	6323.4	
462.5	6429.9	
462.7	4620.2	
462.9	4597	
463.1	7103.7	
463.3	6976.1	
463.5	4758.8	
463.7	5295.4	
463.9	6482.5	
464.1	6655.9	
464.3	4837.3	
464.5	4976.6	
464.7	6702.3	
464.9	6563.1	
465.1	5595.7	
465.3	5155.4	
465.5	6859.3	
465.7	7021.8	
465.9	5236	
466.1	5072.8	
466.3	6824.5	
466.5	6705.7	
466.7	5670.8	
466.9	5033.2	
467.1	6913.3	
467.3	7215.7	
467.5	5648.3	
467.7	5083.7	
467.9	7389.8	
468.1	7797.3	
468.3	5438.7	
468.5	5581.4	
468.7	6759.7	
468.9	6577.4	
469.1	5244.2	
469.3	5568.4	
469.5	7770	
469.7	6623.8	
469.9	5416.9	
470.1	5020.9	
470.3	6896.9	
470.5	6747.4	
470.7	5732.9	
470.9	5094.7	
471.1	6604.7	
471.3	6802.7	
471.5	5034.6	
471.69	5892	
471.89	6599.9	
472.09	6237.4	
472.29	5389.6	
472.49	5448.3	
472.69	6326.2	
472.89	6666.8	
473.09	4949.9	
473.29	5042.1	
473.49	6468.2	
473.69	6381.5	
473.89	5408	
474.09	4978.6	
474.29	7083.2	
474.49	6954.2	
474.69	5464.7	
474.89	5046.2	
475.09	6509.1	
475.29	6439.5	
475.49	4827.1	
475.69	4934.2	
475.88	7279.8	
476.08	6704.4	
476.28	4760.2	
476.48	4860.5	
476.68	6900.3	
476.88	6605.4	
477.08	4896.7	
477.28	5042.8	
477.48	6554.9	
477.68	6722.1	
477.88	4749.9	
478.08	4899.4	
478.28	7068.2	
478.48	6551.5	
478.67	4966.3	
478.87	4593.6	
479.07	6830	
479.27	6567.8	
479.47	4990.2	
479.67	5066	
479.87	6810.9	
480.07	6994.5	
480.27	4728.8	
480.47	5440.1	
480.67	6618.4	
480.87	6901	
481.06	4872.1	
481.26	5257.8	
481.46	6634.7	
481.66	6408.1	
481.86	5113.1	
482.06	5456.5	
482.26	6404.7	
482.46	6905.8	
482.66	4975.9	
482.86	4738.3	
483.05	6799.3	
483.25	6239.5	
483.45	6329.6	
483.65	5003.9	
483.85	6244.3	
484.05	6527.6	
484.25	5262.6	
484.45	5462.6	
484.65	6814.3	
484.84	7004.1	
485.04	4943.1	
485.24	4918.5	
485.44	7192.5	
485.64	6291.4	
485.84	4641.4	
486.04	5315.2	
486.24	6493.4	
486.44	6618.4	
486.63	4616.8	
486.83	5119.9	
487.03	6509.8	
487.23	6485.2	
487.43	4686.4	
487.63	5909.1	
487.83	6595.8	
488.02	6587.6	
488.22	5142.4	
488.42	5472.2	
488.62	7081.2	
488.82	6415.6	
489.02	5056.4	
489.22	4980	
489.41	6800.6	
489.61	6904.4	
489.81	4897.4	
490.01	4875.5	
490.21	6976.7	
490.41	7387	
490.61	4921.3	
490.8	4815.5	
491	6698.9	
491.2	6335.7	
491.4	5163.6	
491.6	4745.8	
491.8	6660	
491.99	6520.7	
492.19	4638	
492.39	4784.1	
492.59	6911.9	
492.79	7020.4	
492.99	5433.3	
493.18	4881	
493.38	7144.7	
493.58	7381.6	
493.78	5309.7	
493.98	4990.2	
494.18	6806.8	
494.37	6407.4	
494.57	5385.5	
494.77	5293.3	
494.97	7055.9	
495.17	7185	
495.37	5194.3	
495.56	5337.7	
495.76	7145.4	
495.96	7159	
496.16	5887.9	
496.36	5248.9	
496.55	7240.3	
496.75	6853.2	
496.95	5436	
497.15	5419.6	
497.35	7236.8	
497.54	7092.1	
497.74	5321.3	
497.94	6219.7	
498.14	7648.5	
498.34	7400	
498.53	5199.1	
498.73	5498.8	
498.93	6838.9	
499.13	7075.7	
499.33	5563	
499.52	5623.7	
499.72	7397.3	
499.92	7216.4	
500.12	5247.6	
500.32	5437.4	
500.51	7277.8	
500.71	7103.7	
500.91	5854.5	
501.11	5593	
501.31	7252.5	
501.5	7479.2	
501.7	6104.3	
501.9	5411.4	
502.1	7151.5	
502.29	7345.4	
502.49	5707	
502.69	5847.6	
502.89	7195.9	
503.09	7249.8	
503.28	5129.5	
503.48	5212.8	
503.68	6954.9	
503.88	6760.3	
504.07	5659.9	
504.27	5408.7	
504.47	6987.7	
504.67	7101.7	
504.86	5644.9	
505.06	5437.4	
505.26	6910.5	
505.46	7617.1	
505.65	5279.7	
505.85	5477.6	
506.05	6845.7	
506.25	7063.4	
506.44	5051	
506.64	5507.7	
506.84	6654.5	
507.04	7018.4	
507.23	5150	
507.43	5352.7	
507.63	7608.9	
507.83	6607.4	
508.02	5352	
508.22	5081.7	
508.42	7767.9	
508.62	6504.3	
508.81	5173.9	
509.01	5511.1	
509.21	6525.5	
509.4	6758.3	
509.6	5451.7	
509.8	5042.1	
510	6776	
510.19	7255.3	
510.39	4967	
510.59	5089.9	
510.79	6621.8	
510.98	7292.8	
511.18	5211.4	
511.38	5136.3	
511.57	7131.7	
511.77	6790.4	
511.97	5413.5	
512.17	5016.2	
512.36	7051.2	
512.56	6836.8	
512.76	4947.2	
512.95	4811.4	
513.15	7154.9	
513.35	6280.4	
513.55	5427.1	
513.74	4980.7	
513.94	7025.2	
514.14	6658.6	
514.33	5465.3	
514.53	5292.6	
514.73	6763.8	
514.92	6666.8	
515.12	4977.2	
515.32	4998.4	
515.51	6822.5	
515.71	6834.1	
515.91	5872.9	
516.11	4964.3	
516.3	7634.8	
516.5	6605.4	
516.7	5287.9	
516.89	5461.9	
517.09	6614.3	
517.29	6637.5	
517.48	5356.1	
517.68	5076.9	
517.88	6286.6	
518.07	6865.5	
518.27	5356.8	
518.47	4837.3	
518.66	7078.5	
518.86	6438.8	
519.06	4833.9	
519.25	5037.3	
519.45	6605.4	
519.65	7247.1	
519.84	5438	
520.04	5717.9	
520.24	7552.9	
520.43	6890.7	
520.63	5244.2	
520.83	5100.8	
521.02	6552.8	
521.22	6787	
521.42	5238.7	
521.61	5566.4	
521.81	6595.1	
522.01	6774.7	
522.2	5289.2	
522.4	5048.9	
522.6	6982.9	
522.79	6314.6	
522.99	5152	
523.18	4755.4	
523.38	6879.8	
523.58	6852.5	
523.77	5701.5	
523.97	4878.9	
524.17	7830.1	
524.36	7357.7	
524.56	5618.3	
524.76	5352	
524.95	6821.8	
525.15	6628.6	
525.34	5257.8	
525.54	5331.5	
525.74	7090.8	
525.93	6534.4	
526.13	5859.9	
526.33	5277.6	
526.52	7251.2	
526.72	6939.2	
526.91	5890	
527.11	5489.2	
527.31	7172.7	
527.5	7310.6	
527.7	5531.6	
527.89	4985.4	
528.09	6777.4	
528.29	6983.6	
528.48	5751.4	
528.68	5504.9	
528.87	7260.7	
529.07	7226.6	
529.27	5479	
529.46	5242.8	
529.66	6988.4	
529.85	7132.4	
530.05	5082.4	
530.25	5483.8	
530.44	7692.9	
530.64	6796.5	
530.83	5297.4	
531.03	5558.2	
531.23	7331.7	
531.42	7131.7	
531.62	5836	
531.81	5431.9	
532.01	7340.6	
532.21	7394.5	
532.4	5425.8	
532.6	5528.2	
532.79	7735.9	
532.99	7314.7	
533.18	5575.3	
533.38	5993	
533.58	7094.2	
533.77	7357.7	
533.97	5574.6	
534.16	5917.3	
534.36	7713.3	
534.55	7105.1	
534.75	6044.9	
534.95	5550	
535.14	7647.8	
535.34	7012.2	
535.53	5330.2	
535.73	6318.7	
535.92	7808.2	
536.12	7043	
536.31	5431.9	
536.51	6062	
536.71	7287.4	
536.9	7127.6	
537.1	5410.7	
537.29	5632.6	
537.49	7550.9	
537.68	7083.2	
537.88	5777.3	
538.07	5280.3	
538.27	7119.4	
538.46	7651.9	
538.66	5298.1	
538.86	5515.9	
539.05	7294.9	
539.25	7406.8	
539.44	5762.3	
539.64	5507.7	
539.83	7113.3	
540.03	7600	
540.22	5341.8	
540.42	5373.2	
540.61	7222.5	
540.81	7238.9	
541	5654.4	
541.2	6033.3	
541.39	6933.7	
541.59	7013.6	
541.78	5870.2	
541.98	5383.4	
542.18	6714.6	
542.37	6645.7	
542.57	5507.7	
542.76	5767.8	
542.96	6798.6	
543.15	7100.3	
543.35	5565.7	
543.54	5198.4	
543.74	6645	
543.93	6977.4	
544.13	5492	
544.32	6006.7	
544.52	7184.3	
544.71	6743.3	
544.91	5010.7	
545.1	5622.4	
545.3	6862.1	
545.49	7007.5	
545.69	4959.5	
545.88	5332.2	
546.08	7618.4	
546.27	7281.2	
546.47	5564.3	
546.66	5192.3	
546.86	7232.7	
547.05	7337.2	
547.24	5272.8	
547.44	5244.2	
547.63	6654.5	
547.83	7090.1	
548.02	5361.6	
548.22	5410.7	
548.41	6485.2	
548.61	7191.8	
548.8	5072.8	
549	5091.9	
549.19	6939.2	
549.39	7023.2	
549.58	4980	
549.78	5180.7	
549.97	7027.9	
550.17	6723.5	
550.36	5718.6	
550.55	6183.5	
550.75	6750.1	
550.94	7254.6	
551.14	5080.3	
551.33	5162.2	
551.53	6464.8	
551.72	6862.7	
551.92	5274.9	
552.11	5170.4	
552.31	7076.4	
552.5	6837.5	
552.69	5991	
552.89	4898.7	
553.08	6959	
553.28	6755.6	
553.47	5127.4	
553.67	5606	
553.86	7223.2	
554.06	6244.9	
554.25	4754	
554.44	5091.3	
554.64	7595.9	
554.83	7296.9	
555.03	4952.7	
555.22	5150.6	
555.42	7075.7	
555.61	6818.4	
555.8	5118.6	
556	5167	
556.19	6468.2	
556.39	6805.4	
556.58	5104.2	
556.78	5115.1	
556.97	6827.2	
557.16	6602.7	
557.36	5634.6	
557.55	4874.8	
557.75	6251.1	
557.94	7260	
558.13	4932.9	
558.33	4844.8	
558.52	7095.5	
558.72	6235.4	
558.91	4861.9	
559.1	4921.3	
559.3	6294.1	
559.49	6172.6	
559.69	4812	
559.88	5120.6	
560.07	6713.9	
560.27	6940.6	
560.46	5309	
560.66	5313.8	
560.85	6716	
561.04	6118	
561.24	4771.1	
561.43	4885.8	
561.63	6328.2	
561.82	6397.2	
562.01	5501.5	
562.21	5017.5	
562.4	6668.2	
562.59	7075.7	
562.79	5010.7	
562.98	4839.4	
563.18	6560.3	
563.37	7251.2	
563.56	5137	
563.76	4797.7	
563.95	6358.3	
564.14	6345.3	
564.34	5119.2	
564.53	4833.9	
564.73	6806.1	
564.92	6672.3	
565.11	5074.2	
565.31	4756.7	
565.5	6926.9	
565.69	6277.7	
565.89	4937.7	
566.08	5019.6	
566.27	6752.2	
566.47	7034.1	
566.66	5421	
566.85	4685.8	
567.05	6641.6	
567.24	6408.1	
567.44	4851	
567.63	5459.2	
567.82	6776.7	
568.02	6505.7	
568.21	4799.1	
568.4	4896	
568.6	6588.3	
568.79	6464.1	
568.98	4814.1	
569.18	4835.3	
569.37	6551.5	
569.56	7428	
569.76	5034.6	
569.95	5452.4	
570.14	6697.5	
570.34	6489.3	
570.53	4792.2	
570.72	4633.9	
570.91	6953.5	
571.11	6516.6	
571.3	5055.1	
571.49	5504.3	
571.69	6609.5	
571.88	6218.3	
572.07	5215.5	
572.27	5264	
572.46	6146	
572.65	6690	
572.85	4866.7	
573.04	4950.6	
573.23	6969.2	
573.43	6603.3	
573.62	4695.3	
573.81	5076.9	
574	6699.6	
574.2	6522.1	
574.39	4952	
574.58	5001.8	
574.78	6978.8	
574.97	6669.6	
575.16	5212.1	
575.36	5203.2	
575.55	6940.6	
575.74	6888.7	
575.93	4688.5	
576.13	5197.7	
576.32	6472.9	
576.51	6761.7	
576.71	5053	
576.9	5662	
577.09	7090.8	
577.28	6695.5	
577.48	5166.3	
577.67	4645.5	
577.86	6630	
578.05	6706.4	
578.25	5003.9	
578.44	5027.1	
578.63	6611.5	
578.83	7162.4	
579.02	4745.1	
579.21	5575.3	
579.4	6743.3	
579.6	6492.1	
579.79	5048.9	
579.98	6136.4	
580.17	6874.3	
580.37	6928.3	
580.56	4906.9	
580.75	5223.7	
580.94	6956.9	
581.14	7163.8	
581.33	5455.8	
581.52	4930.1	
581.71	6713.2	
581.91	7161.1	
582.1	4818.9	
582.29	4988.2	
582.48	6582.9	
582.68	6565.1	
582.87	5298.1	
583.06	5172.5	
583.25	6870.9	
583.45	6383.5	
583.64	5469.4	
583.83	5773.2	
584.02	6664.1	
584.21	6843.6	
584.41	5395	
584.6	5182.7	
584.79	6675.7	
584.98	6849.1	
585.18	4830.5	
585.37	4786.8	
585.56	6525.5	
585.75	6773.3	
585.94	4988.2	
586.14	5171.8	
586.33	7093.5	
586.52	6500.3	
586.71	5200.5	
586.91	5012.1	
587.1	6281.1	
587.29	6832.7	
587.48	4941.1	
587.67	4902.8	
587.87	6776	
588.06	6716	
588.25	5511.1	
588.44	5176.6	
588.63	6434	
588.83	6801.3	
589.02	4902.8	
589.21	4790.9	
589.4	6473.6	
589.59	6326.9	
589.78	4362.9	
589.98	4509.6	
590.17	6041.5	
590.36	6195.1	
590.55	4179.2	
590.74	4526	
590.94	6925.5	
591.13	6202.6	
591.32	4614.1	
591.51	4233.2	
591.7	6376	
591.89	6201.2	
592.09	4350.6	
592.28	4541	
592.47	5671.5	
592.66	6762.4	
592.85	4265.9	
593.05	4449.6	
593.24	6104.3	
593.43	6574	
593.62	4562.9	
593.81	4713.7	
594	6227.2	
594.19	6285.9	
594.39	4468.7	
594.58	4433.9	
594.77	6380.8	
594.96	6523.5	
595.15	4452.3	
595.34	4702.1	
595.54	6268.8	
595.73	5754.8	
595.92	4005.8	
596.11	4636.6	
596.3	6526.2	
596.49	5922	
596.68	4584.7	
596.88	4673.5	
597.07	6399.2	
597.26	5808	
597.45	4302.1	
597.64	4773.1	
597.83	6023.1	
598.02	6245.6	
598.22	4327.4	
598.41	4708.3	
598.6	6188.3	
598.79	5844.2	
598.98	4379.2	
599.17	4911.7	
599.36	6221.7	
599.55	6739.9	
599.74	5298.1	
599.94	5219.6	
600.13	6527.6	
600.32	5819.6	
600.51	4234.5	
600.7	4278.9	
600.89	6789	
601.08	6820.4	
601.27	4194.2	
601.47	4559.5	
601.66	6393.8	
601.85	6646.3	
602.04	4573.8	
602.23	4649.6	
602.42	5930.9	
602.61	6208.8	
602.8	4487.1	
602.99	4325.3	
603.18	6156.2	
603.37	6202.6	
603.57	4694.6	
603.76	5002.5	
603.95	6545.3	
604.14	6333.7	
604.33	4457.7	
604.52	4562.2	
604.71	6214.9	
604.9	5938.4	
605.09	4942.4	
605.28	4697.4	
605.47	6489.3	
605.66	6163	
605.86	4666.6	
606.05	4390.2	
606.24	6543.3	
606.43	5642.8	
606.62	4595.6	
606.81	4898.7	
607	6419	
607.19	5973.2	
607.38	4247.5	
607.57	4331.5	
607.76	5820.3	
607.95	5576.6	
608.14	4641.4	
608.33	4854.4	
608.52	5853.8	
608.72	6307.7	
608.91	4208.6	
609.1	4128.7	
609.29	5905	
609.48	5696.1	
609.67	4706.9	
609.86	4250.9	
610.05	5793	
610.24	5810.1	
610.43	4155.3	
610.62	3900	
610.81	6505	
611	6399.9	
611.19	4212	
611.38	4540.3	
611.57	6154.8	
611.76	6588.3	
611.95	4119.8	
612.14	4003.8	
612.33	5926.1	
612.52	5664	
612.71	4300.1	
612.9	3994.9	
613.09	5605.3	
613.28	6824.5	
613.47	4304.8	
613.66	4745.1	
613.85	6023.1	
614.04	5748	
614.24	4280.9	
614.43	3801.7	
614.62	6135.7	
614.81	6090	
615	4464.6	
615.19	4476.2	
615.38	5760.9	
615.57	5862	
615.76	4484.4	
615.95	4958.1	
616.14	6128.9	
616.33	5996.5	
616.52	4640	
616.71	4639.3	
616.9	6008.7	
617.09	5913.2	
617.28	4329.4	
617.47	4871.4	
617.66	5713.2	
617.85	5624.4	
618.04	4710.3	
618.22	4488.5	
618.41	5720	
618.6	6352.1	
618.79	4300.1	
618.98	4300.1	
619.17	6445.6	
619.36	5421	
619.55	4410	
619.74	4403.1	
619.93	6024.4	
620.12	5679.7	
620.31	4640.7	
620.5	4714.4	
620.69	6304.3	
620.88	6596.5	
621.07	5070.1	
621.26	4610.7	
621.45	6111.1	
621.64	6066.1	
621.83	4640.7	
622.02	4232.5	
622.21	6196.5	
622.4	6062.7	
622.59	4851.6	
622.78	4836.6	
622.97	5919.3	
623.16	6297.5	
623.35	4730.1	
623.54	4151.9	
623.72	5881.1	
623.91	5974.6	
624.1	4766.3	
624.29	4083.6	
624.48	6562.4	
624.67	6173.9	
624.86	4653	
625.05	4230.4	
625.24	6650.4	
625.43	5912.5	
625.62	5494	
625.81	4326.7	
626	6199.9	
626.19	5880.4	
626.38	4688.5	
626.56	4428.4	
626.75	5774.6	
626.94	6186.2	
627.13	4694.6	
627.32	4128.7	
627.51	6239.5	
627.7	6628.6	
627.89	4085	
628.08	4693.9	
628.27	5677.7	
628.46	5921.4	
628.65	4320.5	
628.83	4042.7	
629.02	6194.4	
629.21	5786.2	
629.4	4482.3	
629.59	4633.9	
629.78	5738.4	
629.97	6244.3	
630.16	4556	
630.35	4361.5	
630.54	6625.2	
630.72	6408.8	
630.91	4424.3	
631.1	4573.1	
631.29	5980.8	
631.48	6058.6	
631.67	4689.8	
631.86	4284.4	
632.05	5984.8	
632.24	5890	
632.42	4163.5	
632.61	4504.2	
632.8	5896.8	
632.99	5702.2	
633.18	4528.7	
633.37	4707.6	
633.56	6147.3	
633.75	6034	
633.93	4580.6	
634.12	4360.8	
634.31	6608.8	
634.5	6239.5	
634.69	4425.7	
634.88	4658.4	
635.07	5981.4	
635.25	6335	
635.44	4926	
635.63	4924	
635.82	5924.1	
636.01	5180.7	
636.2	4861.2	
636.39	4592.2	
636.57	6645.7	
636.76	6136.4	
636.95	4337.6	
637.14	5016.2	
637.33	6155.5	
637.52	6466.1	
637.7	4167.6	
637.89	4777.9	
638.08	5917.3	
638.27	6575.3	
638.46	4724	
638.65	4911.7	
638.83	6648.4	
639.02	5827.8	
639.21	4691.9	
639.4	4883.7	
639.59	6091.3	
639.78	5823.7	
639.96	4362.9	
640.15	4423.6	
640.34	6082.5	
640.53	5887.2	
640.72	4162.2	
640.91	4363.5	
641.09	5677	
641.28	6378.1	
641.47	4480.3	
641.66	4762.9	
641.85	6050.4	
642.03	6118.6	
642.22	4601.8	
642.41	4442	
642.6	5728.2	
642.79	5380	
642.97	4354.7	
643.16	4508.9	
643.35	5630.5	
643.54	5576.6	
643.73	4196.3	
643.91	4580.6	
644.1	5593	
644.29	5864.7	
644.48	4218.1	
644.67	4179.9	
644.85	5408.7	
645.04	5814.9	
645.23	3988.1	
645.42	4202.4	
645.6	5579.3	
645.79	6068.1	
645.98	4162.8	
646.17	3636.5	
646.36	5314.5	
646.54	5641.5	
646.73	4540.3	
646.92	3961.5	
647.11	5463.3	
647.29	5892.7	
647.48	3859.7	
647.67	3783.3	
647.86	6094.8	
648.05	6044.2	
648.23	4092.5	
648.42	4715.8	
648.61	5806	
648.8	5697.4	
648.98	3976.5	
649.17	4148.5	
649.36	5461.9	
649.55	5285.1	
649.73	4030.4	
649.92	4323.3	
650.11	5339.7	
650.3	5560.9	
650.48	4010.6	
650.67	3850.9	
650.86	5662.6	
651.05	5057.8	
651.23	3965.6	
651.42	3942.3	
651.61	5473.5	
651.79	5314.5	
651.98	4065.2	
652.17	3887.7	
652.36	5641.5	
652.54	5184.1	
652.73	3895.9	
652.92	3895.9	
653.11	5678.3	
653.29	5723.4	
653.48	3581.2	
653.67	4046.1	
653.85	5463.3	
654.04	6032.6	
654.23	4089.8	
654.42	3951.2	
654.6	5260.5	
654.79	5545.2	
654.98	3673.4	
655.16	3916.4	
655.35	5126.7	
655.54	4863.2	
655.73	3634.5	
655.91	3618.8	
656.1	5505.6	
656.29	4876.2	
656.47	3467.2	
656.66	4336.2	
656.85	5239.4	
657.03	5171.1	
657.22	3829	
657.41	3735.5	
657.59	5132.9	
657.78	5049.6	
657.97	3541.6	
658.16	3927.3	
658.34	5623	
658.53	5792.3	
658.72	4394.3	
658.9	4631.8	
659.09	5401.2	
659.28	5321.3	
659.46	3779.9	
659.65	3775.1	
659.84	5173.9	
660.02	5569.1	
660.21	3798.3	
660.4	3655.6	
660.58	5688.6	
660.77	5280.3	
660.96	4025.6	
661.14	3456.3	
661.33	5860.6	
661.52	5846.3	
661.7	3464.5	
661.89	5186.8	
662.08	5094.7	
662.26	4765.6	
662.45	3678.8	
662.64	3765.5	
662.82	5552.7	
663.01	5019.6	
663.2	3779.9	
663.38	4025.6	
663.57	5477	
663.75	5311.7	
663.94	3880.2	
664.13	4517.1	
664.31	5198.4	
664.5	5416.9	
664.69	4026.3	
664.87	4185.4	
665.06	5017.5	
665.25	5295.4	
665.43	4375.1	
665.62	4359.4	
665.8	5429.2	
665.99	5195	
666.18	3884.3	
666.36	3933.5	
666.55	5515.9	
666.74	5401.9	
666.92	3711.6	
667.11	4536.9	
667.29	5254.4	
667.48	5541.8	
667.67	4293.9	
667.85	3801	
668.04	5201.8	
668.22	5059.2	
668.41	3939.6	
668.6	4057.7	
668.78	5053	
668.97	5182	
669.15	4098.7	
669.34	3525.2	
669.53	5095.3	
669.71	5264.6	
669.9	3683.6	
670.08	3958	
670.27	4986.8	
670.46	5364.3	
670.64	4095.9	
670.83	4218.8	
671.01	4921.3	
671.2	5265.3	
671.38	3754.6	
671.57	3693.2	
671.76	5672.2	
671.94	5778	
672.13	3614	
672.31	4103.4	
672.5	5460.6	
672.69	5052.3	
672.87	3713.6	
673.06	3861.1	
673.24	5338.4	
673.43	5147.9	
673.61	3976.5	
673.8	3754.6	
673.98	5367.7	
674.17	5471.5	
674.36	4154.6	
674.54	4080.2	
674.73	5111	
674.91	5504.3	
675.1	3902.7	
675.28	3647.4	
675.47	5264.6	
675.65	5489.2	
675.84	3812	
676.03	3972.4	
676.21	5132.2	
676.4	4715.1	
676.58	4203.8	
676.77	4091.2	
676.95	5893.4	
677.14	5067.4	
677.32	3580.5	
677.51	3538.9	
677.69	5543.9	
677.88	4976.6	
678.06	3663.8	
678.25	3697.3	
678.44	5126.1	
678.62	5018.2	
678.81	3601.7	
678.99	3976.5	
679.18	5606.7	
679.36	5384.1	
679.55	3756.7	
679.73	4086.4	
679.92	5385.5	
680.1	5091.9	
680.29	4401.1	
680.47	3760.8	
680.66	5111.7	
680.84	5504.9	
681.03	3460.4	
681.21	3944.4	
681.4	4976.6	
681.58	4902.8	
681.77	3672	
681.95	3663.8	
682.14	5474.2	
682.32	5636.7	
682.51	4083	
682.69	3466.5	
682.88	4988.9	
683.06	5275.6	
683.25	3979.9	
683.43	4163.5	
683.62	5299.5	
683.8	5439.4	
683.99	4202.4	
684.17	3831.1	
684.36	5749.3	
684.54	5060.5	
684.73	3483.6	
684.91	3529.3	
685.1	5248.3	
685.28	4906.9	
685.46	3823.6	
685.65	3880.2	
685.83	5297.4	
686.02	5003.2	
686.2	3593.5	
686.39	3642.7	
686.57	4870.1	
686.76	5579.3	
686.94	3586.7	
687.13	3704.8	
687.31	5210.7	
687.5	5070.8	
687.68	3400.3	
687.86	3857.7	
688.05	5974.6	
688.23	4725.3	
688.42	4006.5	
688.6	3575.8	
688.79	4958.8	
688.97	4919.9	
689.16	3818.8	
689.34	3260.4	
689.52	5347.2	
689.71	5542.5	
689.89	3952.6	
690.08	3617.4	
690.26	5182	
690.45	4897.4	
690.63	4037.2	
690.81	3661.1	
691	5121.3	
691.18	4921.3	
691.37	3792.2	
691.55	4835.3	
691.74	4875.5	
691.92	5902.2	
692.1	3675.4	
692.29	3490.4	
692.47	5150	
692.66	4696.7	
692.84	3514.3	
693.02	3738.9	
693.21	4706.2	
693.39	5167.7	
693.58	3958.7	
693.76	3523.9	
693.94	5618.9	
694.13	5502.2	
694.31	3633.8	
694.5	4108.9	
694.68	4872.8	
694.86	5099.4	
695.05	3812	
695.23	3970.3	
695.42	5228.5	
695.6	6400.6	
695.78	4102.1	
695.97	3553.2	
696.15	5311.1	
696.34	4943.8	
696.52	3465.8	
696.7	3921.9	
696.89	5134.3	
697.07	4798.4	
697.25	3829	
697.44	4597.7	
697.62	5152	
697.81	5203.2	
697.99	3702.7	
698.17	3908.2	
698.36	4880.3	
698.54	5235.3	
698.72	3917.8	
698.91	3380.5	
699.09	4973.2	
699.28	4777.9	
699.46	3741	
699.64	3678.8	
699.83	4921.3	
700.01	5255.1	
700.19	4104.8	
700.38	3270.6	
700.56	5313.1	
700.74	4934.2	
700.93	3381.2	
701.11	3938.9	
701.29	5197.1	
701.48	5748.6	
701.66	3507.5	
701.84	3586	
702.03	4949.9	
702.21	5354.1	
702.39	3365.5	
702.58	3658.4	
702.76	5186.8	
702.94	5206.6	
703.13	3255.6	
703.31	4645.5	
703.49	4870.8	
703.68	5275.6	
703.86	3467.2	
704.04	3964.9	
704.23	5138.4	
704.41	5264.6	
704.59	3616	
704.78	4159.4	
704.96	6039.5	
705.14	5218.9	
705.33	3481.5	
705.51	3771.7	
705.69	4934.9	
705.87	5399.1	
706.06	3889.1	
706.24	3368.9	
706.42	5107	
706.61	5227.1	
706.79	3971.7	
706.97	3380.5	
707.16	4861.2	
707.34	5039.4	
707.52	3918.4	
707.7	3475.4	
707.89	4782.7	
708.07	4719.2	
708.25	3949.8	
708.44	4042.7	
708.62	4816.8	
708.8	5438.7	
708.98	4055	
709.17	3518.4	
709.35	5027.8	
709.53	5075.5	
709.72	3446.7	
709.9	3480.9	
710.08	5295.4	
710.26	5345.2	
710.45	4218.1	
710.63	3571	
710.81	5000.5	
710.99	5007.3	
711.18	3894.6	
711.36	3623.5	
711.54	4881.7	
711.72	5275.6	
711.91	3716.4	
712.09	3411.2	
712.27	5076.2	
712.45	5167.7	
712.64	3761.4	
712.82	3219.4	
713	4827.7	
713.18	4840	
713.37	3309.5	
713.55	3921.2	
713.73	5211.4	
713.91	4543.1	
714.1	3382.6	
714.28	3246.7	
714.46	4976.6	
714.64	4622.9	
714.83	2995.5	
715.01	3294.5	
715.19	4817.5	
715.37	4271.4	
715.55	3168.9	
715.74	3312.9	
715.92	5094.7	
716.1	3994.9	
716.28	3921.2	
716.47	3368.9	
716.65	4600.4	
716.83	4442.7	
717.01	3329.3	
717.19	3281.5	
717.38	5635.3	
717.56	4374.5	
717.74	3377.8	
717.92	3013.2	
718.1	4970.4	
718.29	4567.7	
718.47	2823.5	
718.65	3093.1	
718.83	4932.9	
719.01	4848.2	
719.2	2740.9	
719.38	3327.3	
719.56	4724.7	
719.74	5449.6	
719.92	3186	
720.11	3639.9	
720.29	4816.1	
720.47	4348.5	
720.65	2863.7	
720.83	3323.9	
721.02	4535.6	
721.2	4446.1	
721.38	3345	
721.56	2934.7	
721.74	4122.6	
721.92	4151.9	
722.11	3545	
722.29	3435.1	
722.47	4894	
722.65	4461.2	
722.83	2995.5	
723.01	3388	
723.2	4351.3	
723.38	4587.4	
723.56	2742.2	
723.74	3310.9	
723.92	4107.5	
724.1	4724.7	
724.29	2973	
724.47	3461.7	
724.65	4328.7	
724.83	4167.6	
725.01	2906.1	
725.19	3267.2	
725.37	4238.6	
725.56	4229.1	
725.74	2871.3	
725.92	2917	
726.1	4214	
726.28	4360.1	
726.46	3089	
726.64	2934.1	
726.83	4519.9	
727.01	4493.2	
727.19	2899.2	
727.37	3229	
727.55	4532.2	
727.73	4752	
727.91	2804.4	
728.09	2753.8	
728.28	4668.7	
728.46	4788.8	
728.64	3297.9	
728.82	3179.1	
729	5210.7	
729.18	4965.6	
729.36	2781.8	
729.54	3910.9	
729.72	5387.5	
729.91	4512.4	
730.09	3873.4	
730.27	3181.9	
730.45	4559.5	
730.63	4735.6	
730.81	3510.2	
730.99	3013.2	
731.17	5138.4	
731.35	4332.8	
731.53	3188	
731.71	3068.5	
731.9	4937	
732.08	4846.2	
732.26	3248.1	
732.44	3013.2	
732.62	5003.9	
732.8	4723.3	
732.98	3439.9	
733.16	2975.7	
733.34	4895.3	
733.52	4012.7	
733.7	3173	
733.88	3268.6	
734.07	4657.8	
734.25	4557.4	
734.43	2962	
734.61	3658.4	
734.79	5292.6	
734.97	4506.2	
735.15	2998.9	
735.33	3175.7	
735.51	4672.1	
735.69	4502.8	
735.87	3687	
736.05	3274.7	
736.23	4596.3	
736.41	4409.3	
736.59	3307.5	
736.77	3239.9	
736.95	4795.7	
737.13	4486.4	
737.32	3030.3	
737.5	3061	
737.68	5124	
737.86	4446.1	
738.04	2959.3	
738.22	3883.6	
738.4	4457.7	
738.58	4596.3	
738.76	3232.4	
738.94	2717.7	
739.12	4493.2	
739.3	4458.4	
739.48	3556.6	
739.66	3381.9	
739.84	4604.5	
740.02	4502.1	
740.2	2797.5	
740.38	2928.6	
740.56	4765.6	
740.74	4048.2	
740.92	3360.7	
741.1	3231	
741.28	4547.9	
741.46	4304.1	
741.64	3026.2	
741.82	3345	
742	4597.7	
742.18	4418.8	
742.36	3187.3	
742.54	3022.8	
742.72	4917.2	
742.9	4091.8	
743.08	3304.7	
743.26	2709.5	
743.44	4842.1	
743.62	4775.2	
743.8	3429.7	
743.98	2970.2	
744.16	4661.9	
744.34	4457.7	
744.52	3425.6	
744.7	3388	
744.88	4805.2	
745.06	4491.9	
745.24	3362.1	
745.42	3387.3	
745.6	4814.8	
745.78	4741.7	
745.96	2792.7	
746.14	2977.7	
746.32	5239.4	
746.5	4631.8	
746.68	3267.2	
746.86	2953.2	
747.03	4904.2	
747.21	4173.8	
747.39	3298.6	
747.57	2956.6	
747.75	4542.4	
747.93	4712.4	
748.11	2889.7	
748.29	2878.8	
748.47	5453.7	
748.65	4400.4	
748.83	3380.5	
749.01	3167.5	
749.19	4704.9	
749.37	4123.9	
749.55	3195.5	
749.73	3181.9	
749.91	4577.2	
750.09	4449.6	
750.26	3149.1	
750.44	2918.4	
750.62	4546.5	
750.8	4461.8	
750.98	2873.3	
751.16	2985.9	
751.34	4663.2	
751.52	4262.5	
751.7	3468.6	
751.88	2791.4	
752.06	4876.2	
752.24	4657.8	
752.42	2783.2	
752.59	3018	
752.77	4536.9	
752.95	5177.9	
753.13	3362.1	
753.31	3037.1	
753.49	4351.9	
753.67	4572.4	
753.85	3218.7	
754.03	2934.7	
754.21	4807.3	
754.38	4947.9	
754.56	3048.7	
754.74	2568.8	
754.92	4351.3	
755.1	4600.4	
755.28	2602.3	
755.46	2600.9	
755.64	5218.9	
755.82	5116.5	
755.99	2768.9	
756.17	2809.8	
756.35	3810.6	
756.53	4631.8	
756.71	2231.6	
756.89	2926.5	
757.07	4410.6	
757.25	3936.2	
757.42	2983.9	
757.6	3377.1	
757.78	4448.9	
757.96	3945.8	
758.14	2803	
758.32	2578.4	
758.5	3691.1	
758.67	4132.1	
758.85	2684.9	
759.03	2770.2	
759.21	4325.3	
759.39	3879.5	
759.57	2520.4	
759.75	3108.1	
759.92	4616.8	
760.1	4280.3	
760.28	3275.4	
760.46	3383.2	
760.64	4154	
760.82	4066.6	
760.99	3188.7	
761.17	2734	
761.35	4612	
761.53	3920.5	
761.71	2907.4	
761.89	3176.4	
762.06	4486.4	
762.24	4229.1	
762.42	2960	
762.6	2742.9	
762.78	4149.2	
762.96	4504.8	
763.13	3197.6	
763.31	2883.5	
763.49	4587.4	
763.67	4177.9	
763.85	3373.7	
764.02	3601	
764.2	4827.7	
764.38	4158.7	
764.56	2915.6	
764.74	3275.4	
764.91	4728.1	
765.09	4145.1	
765.27	2766.1	
765.45	2609.8	
765.63	4906.3	
765.8	4667.3	
765.98	2529.9	
766.16	2658.9	
766.34	3878.9	
766.52	3897.3	
766.69	3078.1	
766.87	2584.5	
767.05	4283	
767.23	4587.5	
767.41	2769.5	
767.58	2873.3	
767.76	4560.1	
767.94	4592.2	
768.12	2837.8	
768.29	3134.1	
768.47	4113.7	
768.65	4641.4	
768.83	2564.7	
769	3145	
769.18	4012	
769.36	4403.8	
769.54	3124.5	
769.72	2578.4	
769.89	4704.2	
770.07	4548.5	
770.25	2864.4	
770.43	3463.8	
770.6	4968.4	
770.78	5067.4	
770.96	2867.8	
771.14	3244.7	
771.31	4626.4	
771.49	4182.6	
771.67	2508.1	
771.85	2576.3	
772.02	3851.5	
772.2	4132.1	
772.38	2925.9	
772.55	2693.8	
772.73	4390.8	
772.91	4199	
773.09	2880.8	
773.26	2968.9	
773.44	4362.9	
773.62	4175.1	
773.8	2697.2	
773.97	2598.2	
774.15	4397	
774.33	4189.5	
774.5	2598.9	
774.68	2726.5	
774.86	4455.7	
775.04	4175.8	
775.21	2642.6	
775.39	2583.2	
775.57	4304.1	
775.74	4382	
775.92	2498.5	
776.1	2434.4	
776.27	4212	
776.45	4924	
776.63	2651.4	
776.81	2461.7	
776.98	4162.8	
777.16	4614.1	
777.34	2661	
777.51	2876	
777.69	4203.1	
777.87	3981.9	
778.04	2817.3	
778.22	3020.1	
778.4	3996.3	
778.57	4328.7	
778.75	2390.7	
778.93	2523.8	
779.1	3925.3	
779.28	3764.8	
779.46	2373.6	
779.64	2598.2	
779.81	4491.9	
779.99	4775.2	
780.17	3008.5	
780.34	3006.4	
780.52	4176.5	
780.69	4214	
780.87	2813.2	
781.05	2578.4	
781.22	4264.6	
781.4	4210.6	
781.58	2661	
781.75	2213.2	
781.93	4237.9	
782.11	3795.6	
782.28	3112.2	
782.46	2678.7	
782.64	3788.7	
782.81	4361.5	
782.99	2708.1	
783.17	2624.8	
783.34	4233.2	
783.52	3934.8	
783.69	2686.9	
783.87	3211.2	
784.05	3986.7	
784.22	3893.9	
784.4	3134.1	
784.58	2826.9	
784.75	4502.1	
784.93	4050.9	
785.1	2620.7	
785.28	2953.2	
785.46	4331.5	
785.63	3891.8	
785.81	2643.2	
785.99	2538.1	
786.16	4055	
786.34	4100.7	
786.51	2547	
786.69	2859	
786.87	3713.7	
787.04	3981.3	
787.22	2553.1	
787.39	2996.2	
787.57	3971.7	
787.75	4382.7	
787.92	3145.7	
788.1	2962	
788.27	3827	
788.45	3644	
788.63	2932	
788.8	2224.8	
788.98	4175.8	
789.15	3575.1	
789.33	2364	
789.5	2599.6	
789.68	4351.3	
789.86	4495.3	
790.03	2896.5	
790.21	2550.4	
790.38	4458.4	
790.56	3932.1	
790.73	2529.2	
790.91	2453.5	
791.09	3898.6	
791.26	4244.8	
791.44	2690.3	
791.61	2312.8	
791.79	3900.7	
791.96	3855.6	
792.14	2460.3	
792.32	2221.4	
792.49	3917.1	
792.67	3972.4	
792.84	2521.7	
793.02	2382.5	
793.19	4219.5	
793.37	4474.1	
793.54	2228.2	
793.72	2366.8	
793.89	4512.4	
794.07	3835.2	
794.25	2713.6	
794.42	2275.3	
794.6	4410.6	
794.77	4115.7	
794.95	2824.1	
795.12	2524.5	
795.3	3944.4	
795.47	4150.5	
795.65	2785.9	
795.82	2661	
796	3801.7	
796.17	4701.5	
796.35	2611.2	
796.52	2991.4	
796.7	4266.6	
796.87	4264.6	
797.05	2605.7	
797.22	2973.7	
797.4	4252.9	
797.57	4693.3	
797.75	2693.8	
797.92	2572.9	
798.1	4416.1	
798.27	3748.5	
798.45	2291	
798.62	2395.4	
798.8	4103.4	
798.97	4270.7	
799.15	2738.8	
799.32	2668.5	
799.5	3690.4	
799.67	4023.6	
799.85	2845.3	
800.02	2192	
800.2	3872	
800.37	3973.7	
800.55	2920.4	
800.72	2548.4	
800.9	4305.5	
801.07	4475.5	
801.25	3261	
801.42	2768.9	
801.6	4349.2	
801.77	4059.8	
801.95	2630.3	
802.12	2512.9	
802.29	4153.3	
802.47	4061.1	
802.64	2765.4	
802.82	2250.7	
802.99	3898	
803.17	4313.7	
803.34	2722.4	
803.52	2461	
803.69	4666	
803.87	3705.5	
804.04	2681.5	
804.21	2690.3	
804.39	4546.5	
804.56	3979.9	
804.74	2381.8	
804.91	2739.5	
805.09	3923.9	
805.26	3898.6	
805.44	2381.1	
805.61	2575	
805.78	4313	
805.96	4212	
806.13	2705.4	
806.31	2856.2	
806.48	3628.3	
806.66	3934.1	
806.83	2704	
807	2654.9	
807.18	3938.2	
807.35	4033.8	
807.53	2653.5	
807.7	2321	
807.87	4498.7	
808.05	3880.2	
808.22	2800.3	
808.4	2241.8	
808.57	3774.4	
808.74	3646.7	
808.92	2553.8	
809.09	3020.8	
809.27	3936.2	
809.44	4135.5	
809.61	2252.8	
809.79	2450.1	
809.96	4636.6	
810.14	4204.5	
810.31	2306	
810.48	2852.1	
810.66	3941.7	
810.83	4251.6	
811.01	2569.5	
811.18	2724.5	
811.35	4270	
811.53	3536.8	
811.7	2938.2	
811.87	2723.8	
812.05	4046.1	
812.22	3843.4	
812.39	2467.1	
812.57	2407.7	
812.74	3936.9	
812.92	4724	
813.09	2643.9	
813.26	2716.3	
813.44	4642.1	
813.61	3738.9	
813.78	2297.1	
813.96	2818.7	
814.13	4018.1	
814.3	3838.6	
814.48	3011.2	
814.65	2585.9	
814.82	4504.2	
815	3679.5	
815.17	2657.6	
815.34	3099.9	
815.52	3849.5	
815.69	3809.2	
815.87	2586.6	
816.04	2598.2	
816.21	3810.6	
816.38	3634.5	
816.56	2585.9	
816.73	2480.1	
816.9	4717.2	
817.08	4231.8	
817.25	2494.4	
817.42	2906.8	
817.6	3667.9	
817.77	3831.7	
817.94	2682.8	
818.12	2417.3	
818.29	3825.6	
818.46	4930.1	
818.64	2555.2	
818.81	2346.3	
818.98	3759.4	
819.16	4829.8	
819.33	2855.6	
819.5	2684.2	
819.67	4125.3	
819.85	4455	
820.02	2687.6	
820.19	2721.1	
820.37	4018.8	
820.54	3835.2	
820.71	2702.6	
820.88	3197.6	
821.06	4047.5	
821.23	3807.9	
821.4	2678.1	
821.58	2734.7	
821.75	4201.7	
821.92	3966.9	
822.09	2320.3	
822.27	2366.1	
822.44	3926.6	
822.61	3877.5	
822.79	2283.5	
822.96	3836.5	
823.13	4003.1	
823.3	3656.3	
823.48	2540.8	
823.65	2317.6	
823.82	4394.3	
823.99	3724.6	
824.17	3123.8	
824.34	2362	
824.51	4760.8	
824.68	3949.8	
824.86	2424.8	
825.03	2656.2	
825.2	3936.2	
825.37	4412.7	
825.55	2500.6	
825.72	2637.8	
825.89	4675.5	
826.06	4458.4	
826.24	2607.1	
826.41	2579.8	
826.58	4558.8	
826.75	4018.1	
826.92	2261	
827.1	2426.8	
827.27	5649	
827.44	4607.9	
827.61	2475.3	
827.79	2874.7	
827.96	3848.8	
828.13	3878.9	
828.3	2611.8	
828.47	2203.6	
828.65	4230.4	
828.82	4112.3	
828.99	3044.6	
829.16	2792.1	
829.34	4354	
829.51	4272.1	
829.68	2624.1	
829.85	2572.2	
830.02	4625.7	
830.2	4360.8	
830.37	2138.8	
830.54	3020.1	
830.71	4788.2	
830.88	4011.3	
831.05	2144.2	
831.23	2377.7	
831.4	4711	
831.57	4905.6	
831.74	2483.5	
831.91	2221.4	
832.09	4287.1	
832.26	4356	
832.43	2535.4	
832.6	2719	
832.77	4153.3	
832.94	4544.4	
833.12	2088.2	
833.29	2464.4	
833.46	3946.4	
833.63	5053	
833.8	2702.6	
833.97	2499.9	
834.15	4403.1	
834.32	4280.3	
834.49	2641.2	
834.66	2639.8	
834.83	4348.5	
835	3861.8	
835.17	2450.7	
835.35	2465.1	
835.52	4334.9	
835.69	4218.8	
835.86	2565.4	
836.03	2179	
836.2	4326	
836.37	4122.6	
836.55	2514.2	
836.72	2411.1	
836.89	4113.7	
837.06	4400.4	
837.23	2517.6	
837.4	2674	
837.57	4786.8	
837.75	4984.1	
837.92	2314.9	
838.09	2448	
838.26	4186	
838.43	4398.4	
838.6	2632.3	
838.77	2400.9	
838.94	4848.9	
839.11	4744.5	
839.29	2557.9	
839.46	2074.6	
839.63	4421.6	
839.8	4174.4	
839.97	2508.8	
840.14	2461	
840.31	4299.4	
840.48	4379.9	
840.65	2146.3	
840.82	2383.8	
841	4349.2	
841.17	4203.8	
841.34	2270.5	
841.51	2358.6	
841.68	4327.4	
841.85	4193.6	
842.02	2378.4	
842.19	2112.8	
842.36	4234.5	
842.53	4230.4	
842.7	2346.3	
842.87	2652.1	
843.05	5059.2	
843.22	4144.4	
843.39	2211.1	
843.56	2394.8	
843.73	4117.1	
843.9	4426.3	
844.07	3312.9	
844.24	2847.4	
844.41	5508.4	
844.58	3971	
844.75	2225.5	
844.92	2389.3	
845.09	4257.7	
845.26	4247.5	
845.43	2298.5	
845.6	2385.2	
845.77	4277.5	
845.94	4176.5	
846.12	2485.6	
846.29	2631	
846.46	4521.2	
846.63	4292.5	
846.8	2295.1	
846.97	2677.4	
847.14	4508.3	
847.31	4315.8	
847.48	2495.8	
847.65	2740.9	
847.82	4171.7	
847.99	4377.9	
848.16	2902.7	
848.33	2755.9	
848.5	4048.2	
848.67	4579.3	
848.84	2247.3	
849.01	2381.1	
849.18	4044.7	
849.35	3827	
849.52	2683.5	
849.69	2253.4	
849.86	4470.7	
850.03	4411.3	
850.2	2271.2	
850.37	2639.8	
850.54	4429.1	
850.71	4029.7	
850.88	2673.3	
851.05	2252.1	
851.22	4282.3	
851.39	4539.7	
851.56	2163.3	
851.73	2600.9	
851.9	3956	
852.07	4450.2	
852.24	2499.2	
852.41	2274.6	
852.58	4336.9	
852.75	3954.6	
852.92	2487.6	
853.09	2254.8	
853.26	3848.1	
853.43	4453.6	
853.6	2293	
853.77	2076	
853.94	4629.8	
854.11	3873.4	
854.28	3131.3	
854.44	2452.1	
854.61	4807.9	
854.78	4473.4	
854.95	2276	
855.12	2667.8	
855.29	3695.9	
855.46	4616.8	
855.63	2325.8	
855.8	2939.5	
855.97	4033.8	
856.14	4542.4	
856.31	3002.3	
856.48	2474.6	
856.65	4156.7	
856.82	3902.7	
856.99	2254.1	
857.16	2426.8	
857.33	4919.2	
857.49	4065.2	
857.66	2368.1	
857.83	2527.9	
858	4182	
858.17	4272.7	
858.34	2198.8	
858.51	2322.4	
858.68	4573.1	
858.85	4601.8	
859.02	2529.2	
859.19	2624.1	
859.36	3958	
859.52	3814	
859.69	2320.3	
859.86	2646.7	
860.03	3877.5	
860.2	4624.3	
860.37	2226.1	
860.54	2314.9	
860.71	4409.3	
860.88	4631.1	
861.05	2477.4	
861.21	2849.4	
861.38	4545.8	
861.55	3763.5	
861.72	2078.7	
861.89	2498.5	
862.06	4440.7	
862.23	4644.1	
862.4	2220.7	
862.56	2362.7	
862.73	4323.3	
862.9	4186.7	
863.07	2572.9	
863.24	2145.6	
863.41	3878.9	
863.58	3964.9	
863.75	2349	
863.91	2578.4	
864.08	4461.2	
864.25	4309.6	
864.42	2724.5	
864.59	3005.7	
864.76	4782.7	
864.93	3963.5	
865.09	2207	
865.26	2433.7	
865.43	4554.7	
865.6	4771.1	
865.77	2091	
865.94	2276.7	
866.1	4552	
866.27	4287.1	
866.44	3180.5	
866.61	2228.9	
866.78	4123.2	
866.95	4364.9	
867.11	2270.5	
867.28	2149	
867.45	4567	
867.62	3846.1	
867.79	2517.6	
867.96	2269.8	
868.12	3841.3	
868.29	4343.7	
868.46	2284.2	
868.63	2878.1	
868.8	4445.5	
868.97	4324.6	
869.13	2362	
869.3	2357.9	
869.47	4241.3	
869.64	4425.7	
869.81	2262.3	
869.97	2269.1	
870.14	4197	
870.31	4531.5	
870.48	2223.4	
870.65	2719	
870.81	4198.3	
870.98	4177.2	
871.15	2545.6	
871.32	2411.1	
871.48	4358.1	
871.65	4648.9	
871.82	2265.7	
871.99	2476	
872.16	4870.1	
872.32	4528.1	
872.49	2306	
872.66	2332.6	
872.83	4377.2	
872.99	4004.5	
873.16	2554.5	
873.33	2304	
873.5	4171	
873.67	4236.6	
873.83	2420	
874	2840.5	
874.17	4304.8	
874.34	4642.1	
874.5	2829.6	
874.67	2703.3	
874.84	4469.4	
875.01	3734.8	
875.17	2964.8	
875.34	2276	
875.51	4244.8	
875.68	4886.5	
875.84	2714.2	
876.01	3057.6	
876.18	4389.5	
876.34	4367	
876.51	2245.3	
876.68	2211.1	
876.85	4060.4	
877.01	4605.9	
877.18	3033	
877.35	2255.5	
877.52	4326	
877.68	3961.5	
877.85	2293.7	
878.02	2342.2	
878.18	3872	
878.35	4207.2	
878.52	1917.6	
878.69	2615.9	
878.85	4518.5	
879.02	4405.2	
879.19	3039.9	
879.35	2447.3	
879.52	4405.2	
879.69	4386.7	
879.86	2071.2	
880.02	2529.9	
880.19	4232.5	
880.36	4805.2	
880.52	2527.2	
880.69	2580.4	
880.86	4456.4	
881.02	4399	
881.19	2497.2	
881.36	2403	
881.52	4371.7	
881.69	3946.4	
881.86	2517.6	
882.02	2401.6	
882.19	4539	
882.36	5055.1	
882.52	2368.1	
882.69	2992.1	
882.86	4208.6	
883.02	4335.5	
883.19	2665.1	
883.36	2525.1	
883.52	4455	
883.69	4862.6	
883.86	2360.6	
884.02	2174.9	
884.19	4318.5	
884.36	4214.7	
884.52	2515.6	
884.69	2481.5	
884.86	4084.3	
885.02	4607.9	
885.19	2465.8	
885.36	2585.2	
885.52	4064.5	
885.69	4337.6	
885.86	3100.6	
886.02	2767.5	
886.19	4341.7	
886.35	4052.9	
886.52	2451.4	
886.69	2977.1	
886.85	3876.8	
887.02	4517.1	
887.19	4517.1	
887.35	4517.1	
887.52	4517.1	
887.68	4517.1	
887.85	4517.1	
888.02	4517.1	
888.18	4517.1	
888.35	4517.1	
888.51	4517.1	
888.68	4517.1	
888.85	4517.1	
889.01	4517.1	
889.18	4517.1	
889.35	4517.1	
889.51	4517.1	
889.68	4517.1	
889.84	4517.1	
890.01	4517.1	
890.17	4517.1	
890.34	4517.1	
890.51	4517.1	
890.67	4517.1	
890.84	4517.1	
891	4517.1	
891.17	4517.1	
891.34	4517.1	
891.5	4517.1	
891.67	4517.1	
891.83	4517.1	
892	4517.1	
892.16	4517.1	
892.33	4517.1	
892.5	4517.1	
892.66	4517.1	
892.83	4517.1	
892.99	4517.1	
893.16	4517.1	
893.32	4517.1	
893.49	4517.1	
893.65	4517.1	
893.82	4517.1	
893.99	4517.1	
894.15	4517.1	
894.32	4517.1	
894.48	4517.1	
894.65	4517.1	
894.81	4517.1	
894.98	4517.1	
895.14	4517.1	
895.31	4517.1	
895.47	4517.1	
895.64	4517.1	
895.81	4517.1	
895.97	4517.1	
896.14	4517.1	
896.3	4517.1	
896.47	4517.1	
896.63	4517.1	
896.8	4517.1	
896.96	4517.1	
897.13	4517.1	
897.29	4517.1	
897.46	4517.1	
897.62	4517.1	
897.79	4517.1	
897.95	4517.1	
898.12	4517.1	
898.28	4517.1	
898.45	4517.1	
898.61	4517.1	
898.78	4517.1	
898.94	4517.1	
899.11	4517.1	
899.27	4517.1	
899.44	4517.1	
899.6	4517.1	
899.77	4517.1	
899.93	4517.1	
900.1	4517.1	
900.26	4517.1	
900.43	4517.1	
900.59	4517.1	
900.76	4517.1	
900.92	4517.1	
901.09	4517.1	
901.25	4517.1	
901.42	4517.1	
901.58	4517.1	
901.75	4517.1	
901.91	4517.1	
902.07	4517.1	
902.24	4517.1	
902.4	4517.1	
902.57	4517.1	
902.73	4517.1	
902.9	4517.1	
903.06	4517.1	
903.23	4517.1	
903.39	4517.1	
903.56	4517.1	
903.72	4517.1	
903.88	4517.1	
904.05	4517.1	
904.21	4517.1	
904.38	4517.1	
904.54	4517.1	
904.71	4517.1	
904.87	4517.1	
905.03	4517.1	
905.2	4517.1	
905.36	4517.1	
905.53	4517.1	
905.69	4517.1	
905.86	4517.1	
906.02	4517.1	
906.18	4517.1	
906.35	4517.1	
906.51	4517.1	
906.68	4517.1	
906.84	4517.1	
907.01	4517.1	
907.17	4517.1	
907.33	4517.1	
907.5	4517.1	
907.66	4517.1	
907.83	4517.1	
907.99	4517.1	
908.15	4517.1	
908.32	4517.1	
908.48	4517.1	
908.65	4517.1	
908.81	4517.1	
908.97	4517.1	
909.14	4517.1	
909.3	4517.1	
909.47	4517.1	
909.63	4517.1	
909.79	4517.1	
909.96	4517.1	
910.12	4517.1	
910.28	4517.1	
910.45	4517.1	
910.61	4517.1	
910.78	4517.1	
910.94	4517.1	
911.1	4517.1	
911.27	4517.1	
911.43	4517.1	
911.59	4517.1	
911.76	4517.1	
911.92	4517.1	
912.08	4517.1	
912.25	4517.1	
912.41	4517.1	
912.57	4517.1	
912.74	4517.1	
912.9	4517.1	
913.07	4517.1	
913.23	4517.1	
913.39	4517.1	
913.56	4517.1	
913.72	4517.1	
913.88	4517.1	
914.05	4517.1	
914.21	4517.1	
914.37	4517.1	
914.54	4517.1	
914.7	4517.1	
914.86	4517.1	
915.03	4517.1	
915.19	4517.1	
