Wavelength	Intensities	
nm	a.u.	
179.22	1714.7	
179.44	1722.7	
179.65	1706.6	
179.86	1738.7	
180.08	1699.8	
180.29	3937.6	
180.51	3078.1	
180.72	4902.2	
180.94	5636.7	
181.15	2727.9	
181.37	2683.5	
181.58	4757.4	
181.79	5067.4	
182.01	2784.6	
182.22	2964.1	
182.44	5014.1	
182.65	4347.2	
182.87	3648.8	
183.08	3290.4	
183.29	5266.7	
183.51	4399	
183.72	3003.7	
183.94	4166.3	
184.15	4722.6	
184.37	4705.5	
184.58	2707.4	
184.79	3481.5	
185.01	4459.1	
185.22	5068.7	
185.44	3686.3	
185.65	3189.4	
185.86	4732.9	
186.08	4341	
186.29	2613.9	
186.51	2794.8	
186.72	4466.6	
186.94	5116.5	
187.15	3179.1	
187.36	3282.2	
187.58	6384.2	
187.79	4816.1	
188.01	3368.9	
188.22	5008.6	
188.43	5653.8	
188.65	4986.1	
188.86	2841.9	
189.08	3331.4	
189.29	4547.2	
189.5	4575.8	
189.72	3016	
189.93	3059.7	
190.15	5141.1	
190.36	5909.1	
190.57	3309.5	
190.79	3152.5	
191	5100.8	
191.22	5177.9	
191.43	3341.6	
191.64	2834.4	
191.86	5332.9	
192.07	5177.3	
192.29	2968.2	
192.5	3018.7	
192.71	5126.7	
192.93	4552	
193.14	3029.6	
193.35	3103.4	
193.57	4529.4	
193.78	5120.6	
194	2487.6	
194.21	2995.5	
194.42	4412	
194.64	4769.7	
194.85	3253.5	
195.07	3765.5	
195.28	4784.7	
195.49	4227.7	
195.71	3877.5	
195.92	2891.7	
196.13	4838	
196.35	4935.6	
196.56	4149.2	
196.78	3310.2	
196.99	5923.4	
197.2	5535	
197.42	3659	
197.63	3297.9	
197.84	4247.5	
198.06	4912.4	
198.27	3041.9	
198.48	3956	
198.7	4560.1	
198.91	4735.6	
199.13	3336.1	
199.34	3316.3	
199.55	5145.9	
199.77	4135.5	
199.98	2951.8	
200.19	3322.5	
200.41	4745.1	
200.62	4382.7	
200.83	3402.4	
201.05	3602.4	
201.26	4714.4	
201.47	4482.3	
201.69	2985.3	
201.9	2909.5	
202.11	4735.6	
202.33	5453.7	
202.54	3100.6	
202.76	3478.8	
202.97	4797.7	
203.18	4834.6	
203.4	3360.7	
203.61	3384.6	
203.82	4772.4	
204.04	4474.8	
204.25	3276.8	
204.46	3265.8	
204.68	4741	
204.89	4889.9	
205.1	3187.3	
205.32	2839.8	
205.53	5023.7	
205.74	5120.6	
205.96	2484.9	
206.17	3309.5	
206.38	5012.1	
206.6	5120.6	
206.81	3788.1	
207.02	3076.7	
207.24	4878.3	
207.45	5248.3	
207.66	3163.4	
207.88	2750.4	
208.09	4854.4	
208.3	4704.9	
208.52	2930.6	
208.73	3215.3	
208.94	4818.2	
209.15	5217.5	
209.37	3153.2	
209.58	3254.2	
209.79	5143.8	
210.01	4602.5	
210.22	2608.4	
210.43	2721.1	
210.65	4755.4	
210.86	5012.1	
211.07	3127.9	
211.29	2933.4	
211.5	4958.8	
211.71	4653.7	
211.93	2943.6	
212.14	2914.9	
212.35	4719.9	
212.56	4790.9	
212.78	3349.1	
212.99	2748.4	
213.2	5476.3	
213.42	4584	
213.63	3036.5	
213.84	3196.2	
214.06	4293.2	
214.27	4397	
214.48	3149.1	
214.69	3338.2	
214.91	5216.2	
215.12	5295.4	
215.33	3325.2	
215.55	3577.1	
215.76	5672.9	
215.97	4977.2	
216.18	3232.4	
216.4	3196.2	
216.61	4485.7	
216.82	5070.1	
217.04	2935.4	
217.25	3096.5	
217.46	5222.3	
217.67	4968.4	
217.89	2698.5	
218.1	2768.9	
218.31	4778.6	
218.53	4930.1	
218.74	3126.6	
218.95	2988	
219.16	4704.9	
219.38	5418.9	
219.59	2962.7	
219.8	3450.8	
220.01	5824.4	
220.23	4751.3	
220.44	3756.7	
220.65	2910.8	
220.87	4814.1	
221.08	5180	
221.29	2770.2	
221.5	3541.6	
221.72	6089.3	
221.93	4457.7	
222.14	3268.6	
222.35	3816.7	
222.57	4775.2	
222.78	5073.5	
222.99	3121.8	
223.2	3362.8	
223.42	4991.6	
223.63	5061.2	
223.84	2491.7	
224.05	2577	
224.27	5751.4	
224.48	5418.2	
224.69	3846.8	
224.9	3280.8	
225.12	4812	
225.33	4700.1	
225.54	2738.8	
225.75	2947	
225.97	4425	
226.18	4653	
226.39	3145.7	
226.6	2963.4	
226.82	4581.3	
227.03	4422.9	
227.24	3239.2	
227.45	2793.4	
227.67	5081.7	
227.88	5395.7	
228.09	3682.9	
228.3	3584.6	
228.52	5022.3	
228.73	4720.6	
228.94	3079.5	
229.15	2812.5	
229.36	4675.5	
229.58	4678.2	
229.79	3130.7	
230	3521.1	
230.21	5494.7	
230.43	4792.2	
230.64	3343.7	
230.85	3325.9	
231.06	5141.8	
231.28	5055.1	
231.49	2807.8	
231.7	3230.3	
231.91	5009.3	
232.12	4719.9	
232.34	2849.4	
232.55	3209.8	
232.76	5218.9	
232.97	4816.1	
233.18	2890.4	
233.4	3265.8	
233.61	4849.6	
233.82	4489.8	
234.03	3084.9	
234.25	3028.3	
234.46	6229.2	
234.67	4737.6	
234.88	3302	
235.09	2960	
235.31	4873.5	
235.52	4617.5	
235.73	3275.4	
235.94	2826.2	
236.15	4638.6	
236.37	5600.5	
236.58	2924.5	
236.79	3125.2	
237	4951.3	
237.21	4316.4	
237.43	3420.8	
237.64	2784.6	
237.85	7776.1	
238.06	4442.7	
238.27	3360	
238.48	2809.8	
238.7	5026.4	
238.91	4646.2	
239.12	3121.1	
239.33	3233.1	
239.54	4572.4	
239.76	4646.2	
239.97	3160	
240.18	3158	
240.39	5654.4	
240.6	4932.9	
240.82	3282.9	
241.03	2778.4	
241.24	4713.1	
241.45	5300.8	
241.66	2896.5	
241.87	3410.6	
242.09	5298.1	
242.3	5510.4	
242.51	3429	
242.72	3076.7	
242.93	5060.5	
243.14	4683	
243.36	3632.4	
243.57	3807.2	
243.78	5326.8	
243.99	5018.2	
244.2	3196.9	
244.41	2936.1	
244.63	4382.7	
244.84	4905.6	
245.05	3340.9	
245.26	3167.5	
245.47	4943.8	
245.68	5074.2	
245.9	4002.4	
246.11	3308.2	
246.32	4546.5	
246.53	4932.2	
246.74	4928.1	
246.95	2708.1	
247.16	4444.1	
247.38	4757.4	
247.59	2766.8	
247.8	3181.9	
248.01	4419.5	
248.22	4706.9	
248.43	2931.3	
248.64	3084.2	
248.86	4345.8	
249.07	4539	
249.28	2854.2	
249.49	3266.5	
249.7	5122.7	
249.91	5186.8	
250.12	2729.3	
250.34	2780.5	
250.55	4828.4	
250.76	4737.6	
250.97	3262.4	
251.18	3273.3	
251.39	5173.9	
251.6	4852.3	
251.81	3354.6	
252.03	3312.2	
252.24	4556.7	
252.45	5009.3	
252.66	2848.7	
252.87	3409.9	
253.08	4734.2	
253.29	5834.7	
253.5	2831	
253.72	3777.1	
253.93	4630.5	
254.14	5446.9	
254.35	3035.1	
254.56	3130.7	
254.77	4879.6	
254.98	4431.8	
255.19	2981.8	
255.41	3778.5	
255.62	4871.4	
255.83	5124	
256.04	3361.4	
256.25	3271.3	
256.46	5655.1	
256.67	4508.9	
256.88	3282.9	
257.09	3553.2	
257.31	4424.3	
257.52	4494.6	
257.73	4005.1	
257.94	3052.8	
258.15	4666	
258.36	4743.8	
258.57	3717.7	
258.78	2484.2	
258.99	5129.5	
259.2	4592.2	
259.41	3033.7	
259.63	3106.1	
259.84	5403.9	
260.05	5618.3	
260.26	3857.7	
260.47	2992.8	
260.68	5191.6	
260.89	4622.3	
261.1	3597.6	
261.31	2917.7	
261.52	5218.2	
261.73	5476.3	
261.95	3839.9	
262.16	3321.1	
262.37	5247.6	
262.58	5298.1	
262.79	3766.2	
263	3061	
263.21	4818.2	
263.42	4332.8	
263.63	3336.8	
263.84	3088.3	
264.05	5169.1	
264.26	5375.9	
264.47	3678.8	
264.69	3253.5	
264.9	5266	
265.11	4853.7	
265.32	2949.8	
265.53	3022.8	
265.74	4831.8	
265.95	4268.6	
266.16	3145	
266.37	3478.1	
266.58	4837.3	
266.79	4580.6	
267	3056.3	
267.21	2863.1	
267.42	4433.9	
267.63	4717.8	
267.84	3190.1	
268.06	2801.6	
268.27	5091.9	
268.48	5199.1	
268.69	3102.7	
268.9	3550.5	
269.11	5272.2	
269.32	4300.7	
269.53	3186.6	
269.74	2970.2	
269.95	4917.9	
270.16	4300.1	
270.37	3186	
270.58	3589.4	
270.79	4636.6	
271	5083.7	
271.21	3338.9	
271.42	3221.5	
271.63	4871.4	
271.84	4453.6	
272.05	2621.4	
272.26	2886.3	
272.47	4741	
272.68	4824.3	
272.89	3093.8	
273.11	3409.9	
273.32	4574.5	
273.53	5399.8	
273.74	3371	
273.95	3304.1	
274.16	5118.6	
274.37	4741.7	
274.58	3471.3	
274.79	2882.2	
275	4870.1	
275.21	5194.3	
275.42	4130.1	
275.63	3489.1	
275.84	4954	
276.05	5999.9	
276.26	3293.1	
276.47	3134.1	
276.68	4676.2	
276.89	5502.9	
277.1	3476.8	
277.31	2805	
277.52	4919.2	
277.73	5104.9	
277.94	2786.6	
278.15	3158.7	
278.36	4904.9	
278.57	4479.6	
278.78	3089	
278.99	3378.5	
279.2	4528.1	
279.41	4455	
279.62	3939.6	
279.83	2848.7	
280.04	5616.2	
280.25	4407.2	
280.46	3892.5	
280.67	3171.6	
280.88	4486.4	
281.09	5174.5	
281.3	3307.5	
281.51	4116.4	
281.72	4530.8	
281.93	5139	
282.14	2966.1	
282.35	3231	
282.56	5140.4	
282.77	5044.1	
282.98	3117	
283.19	3632.4	
283.4	6074.3	
283.61	4672.1	
283.82	2890.4	
284.03	3813.3	
284.24	4859.1	
284.45	5174.5	
284.66	3851.5	
284.87	3666.5	
285.08	5198.4	
285.29	5255.8	
285.5	2797.5	
285.71	3108.1	
285.92	5208.7	
286.12	5656.5	
286.33	3826.3	
286.54	3119.1	
286.75	5089.9	
286.96	4702.1	
287.17	2925.9	
287.38	3719.8	
287.59	4524.6	
287.8	4461.2	
288.01	3110.2	
288.22	3512.3	
288.43	5000.5	
288.64	4350.6	
288.85	3614.7	
289.06	3450.1	
289.27	5107.6	
289.48	5341.1	
289.69	3859.1	
289.9	3516.4	
290.11	5259.2	
290.32	4557.4	
290.53	3642.7	
290.74	3409.9	
290.94	5087.8	
291.15	5083.7	
291.36	3051.5	
291.57	3482.2	
291.78	4606.6	
291.99	4289.1	
292.2	2889	
292.41	3390.8	
292.62	5132.9	
292.83	4985.4	
293.04	4099.4	
293.25	2959.3	
293.46	4578.6	
293.67	5190.2	
293.88	2992.8	
294.09	2903.3	
294.29	4457.7	
294.5	4880.3	
294.71	3223.5	
294.92	3047.4	
295.13	4579.9	
295.34	5607.3	
295.55	2746.3	
295.76	2732.7	
295.97	5009.3	
296.18	5526.1	
296.39	2891	
296.6	2975.7	
296.81	4792.2	
297.01	5008	
297.22	3129.3	
297.43	3046.7	
297.64	4597.7	
297.85	4378.6	
298.06	2565.4	
298.27	2736.8	
298.48	4706.2	
298.69	4510.3	
298.9	3315	
299.11	2943.6	
299.31	4439.3	
299.52	4394.3	
299.73	3459.7	
299.94	3346.4	
300.15	4745.8	
300.36	4507.6	
300.57	3415.3	
300.78	3302.7	
300.99	4647.5	
301.2	4813.4	
301.4	3016	
301.61	3169.6	
301.82	4972.5	
302.03	5081.7	
302.24	3601.7	
302.45	2876.7	
302.66	4923.3	
302.87	5238	
303.08	3049.4	
303.29	3909.6	
303.49	4568.3	
303.7	4698	
303.91	2738.8	
304.12	3795.6	
304.33	4368.3	
304.54	4896	
304.75	3034.4	
304.96	2939.5	
305.16	4999.1	
305.37	5498.1	
305.58	2652.8	
305.79	2749.7	
306	4990.9	
306.21	4289.1	
306.42	3019.4	
306.63	4343.1	
306.83	4592.9	
307.04	5088.5	
307.25	3355.3	
307.46	3257.6	
307.67	4182.6	
307.88	4995.7	
308.09	2985.9	
308.29	3029.6	
308.5	4840	
308.71	5153.4	
308.92	3210.5	
309.13	2878.1	
309.34	4699.4	
309.55	4717.8	
309.75	3651.5	
309.96	3349.1	
310.17	5054.4	
310.38	4521.9	
310.59	3512.3	
310.8	2843.9	
311.01	5563	
311.21	4666	
311.42	2938.2	
311.63	2963.4	
311.84	4547.2	
312.05	4790.9	
312.26	3334.1	
312.46	3552.5	
312.67	4628.4	
312.88	4401.1	
313.09	2896.5	
313.3	2869.2	
313.51	5345.9	
313.71	5597.8	
313.92	2890.4	
314.13	3061	
314.34	4931.5	
314.55	4661.9	
314.76	3607.8	
314.96	3198.2	
315.17	4874.2	
315.38	4977.9	
315.59	2951.8	
315.8	2817.3	
316.01	5278.3	
316.21	5416.2	
316.42	2851.5	
316.63	3252.9	
316.84	4690.5	
317.05	5197.1	
317.26	3401.7	
317.46	3001.6	
317.67	4698.7	
317.88	5026.4	
318.09	3616	
318.3	2749.7	
318.5	4610	
318.71	4960.9	
318.92	4444.1	
319.13	3349.1	
319.34	5144.5	
319.54	5268.7	
319.75	2757.2	
319.96	2607.7	
320.17	4945.2	
320.38	5123.3	
320.58	2740.2	
320.79	3144.3	
321	5196.4	
321.21	5251.7	
321.42	3220.8	
321.62	2742.9	
321.83	4511.7	
322.04	4777.2	
322.25	3117.7	
322.46	2984.6	
322.66	4815.5	
322.87	4952	
323.08	3545.7	
323.29	2886.3	
323.5	5530.9	
323.7	4417.5	
323.91	3804.4	
324.12	3459.7	
324.33	4854.4	
324.53	4990.2	
324.74	3346.4	
324.95	3514.3	
325.16	4359.4	
325.37	4599.7	
325.57	2964.1	
325.78	2989.4	
325.99	4873.5	
326.2	4374.5	
326.4	4016.7	
326.61	2756.6	
326.82	4678.9	
327.03	4835.9	
327.24	4027	
327.44	3736.9	
327.65	4992.9	
327.86	4109.6	
328.07	3368.2	
328.27	2837.8	
328.48	5246.9	
328.69	4405.9	
328.9	4059.1	
329.1	3078.8	
329.31	4654.4	
329.52	5344.5	
329.73	2899.9	
329.93	3232.4	
330.14	4794.3	
330.35	4922.6	
330.56	4582.7	
330.76	3518.4	
330.97	4601.8	
331.18	4818.2	
331.39	3272.7	
331.59	2684.9	
331.8	5197.7	
332.01	5257.1	
332.22	3021.4	
332.42	3327.9	
332.63	4839.4	
332.84	4502.8	
333.05	3246	
333.25	3017.3	
333.46	4543.8	
333.67	4751.3	
333.88	3069.2	
334.08	3278.8	
334.29	6110.5	
334.5	5197.1	
334.7	2859.6	
334.91	4003.1	
335.12	4384.7	
335.33	5012.1	
335.53	3197.6	
335.74	4536.3	
335.95	4681	
336.16	4455.7	
336.36	3196.2	
336.57	3608.5	
336.78	4347.8	
336.98	5152.7	
337.19	3913.7	
337.4	3164.1	
337.61	5606	
337.81	4408.6	
338.02	3003.7	
338.23	3711.6	
338.43	5333.6	
338.64	4482.3	
338.85	2990.7	
339.05	3831.7	
339.26	5402.5	
339.47	4317.8	
339.68	2938.8	
339.88	4147.1	
340.09	5016.8	
340.3	5081.7	
340.5	3331.4	
340.71	2672.6	
340.92	4400.4	
341.13	5258.5	
341.33	2845.3	
341.54	3401	
341.75	4985.4	
341.95	4615.4	
342.16	3225.6	
342.37	3480.2	
342.57	4388.1	
342.78	4703.5	
342.99	3545	
343.19	2702.6	
343.4	5079	
343.61	4952.7	
343.81	3089.7	
344.02	2862.4	
344.23	5026.4	
344.43	5326.1	
344.64	3545.7	
344.85	3454.2	
345.06	5010.7	
345.26	5177.3	
345.47	3364.8	
345.68	3848.8	
345.88	4323.9	
346.09	5065.3	
346.3	3420.1	
346.5	2608.4	
346.71	4729.4	
346.92	4560.1	
347.12	2802.3	
347.33	3378.5	
347.54	5106.3	
347.74	5425.8	
347.95	3324.5	
348.16	2605.7	
348.36	4600.4	
348.57	4455	
348.78	3315.7	
348.98	3479.5	
349.19	4744.5	
349.39	4327.4	
349.6	2735.4	
349.81	2994.8	
350.01	4981.3	
350.22	4496.7	
350.43	3251.5	
350.63	3788.1	
350.84	4740.4	
351.05	4553.3	
351.25	2978.4	
351.46	2738.8	
351.67	5135.6	
351.87	4511.7	
352.08	3147.7	
352.29	3500.7	
352.49	5091.9	
352.7	5164.3	
352.9	2878.1	
353.11	3511.6	
353.32	5562.3	
353.52	4616.8	
353.73	2891.7	
353.94	3536.8	
354.14	4992.9	
354.35	4786.1	
354.55	2945	
354.76	3243.3	
354.97	4926	
355.17	4741	
355.38	2837.1	
355.59	3730.7	
355.79	4514.4	
356	4782	
356.2	3252.9	
356.41	2902	
356.62	4343.1	
356.82	4701.5	
357.03	3466.5	
357.24	3145.7	
357.44	4559.5	
357.65	4663.2	
357.85	4028.4	
358.06	3229.6	
358.27	4343.1	
358.47	4454.3	
358.68	2825.5	
358.88	3439.9	
359.09	4920.6	
359.3	5175.2	
359.5	3903.4	
359.71	3516.4	
359.91	5427.1	
360.12	4989.5	
360.33	3457	
360.53	3805.1	
360.74	4487.8	
360.94	4620.2	
361.15	3630.4	
361.36	3082.2	
361.56	5184.1	
361.77	4752	
361.97	3883.6	
362.18	3167.5	
362.38	5077.6	
362.59	4411.3	
362.8	2983.2	
363	2882.9	
363.21	4248.9	
363.41	4791.6	
363.62	3383.2	
363.83	4037.2	
364.03	4913.8	
364.24	5533.6	
364.44	4209.9	
364.65	4119.8	
364.85	4655.7	
365.06	4490.5	
365.27	3126.6	
365.47	3188.7	
365.68	5427.8	
365.88	4683	
366.09	3435.8	
366.29	3196.2	
366.5	4826.4	
366.71	5156.8	
366.91	4114.4	
367.12	3562.1	
367.32	5616.9	
367.53	5135.6	
367.73	3570.3	
367.94	4266.6	
368.14	5145.9	
368.35	5618.9	
368.56	3518.4	
368.76	3090.4	
368.97	5195.7	
369.17	6314.6	
369.38	3148.4	
369.58	3377.1	
369.79	4434.5	
369.99	5441.5	
370.2	4140.3	
370.4	3416	
370.61	4992.3	
370.82	5821.7	
371.02	3373	
371.23	2882.9	
371.43	4431.1	
371.64	5459.9	
371.84	3383.2	
372.05	4260.5	
372.25	6300.9	
372.46	5136.3	
372.66	3380.5	
372.87	3371	
373.07	5117.9	
373.28	6382.2	
373.48	4098	
373.69	3873.4	
373.9	4840.7	
374.1	4876.9	
374.31	4103.4	
374.51	3736.9	
374.72	5435.3	
374.92	4645.5	
375.13	4259.1	
375.33	3600.3	
375.54	5109	
375.74	4752	
375.95	3722.5	
376.15	4586.8	
376.36	5210	
376.56	5115.1	
376.77	3760.8	
376.97	4016.7	
377.18	6021.7	
377.38	5230.5	
377.59	4292.5	
377.79	3406.5	
378	5126.1	
378.2	5386.2	
378.41	3557.3	
378.61	3332	
378.82	5513.8	
379.02	4852.3	
379.23	3599	
379.43	4370.4	
379.64	5651	
379.84	5329.5	
380.05	3467.9	
380.25	3405.1	
380.46	5348.6	
380.66	4941.7	
380.87	4438.6	
381.07	4732.9	
381.28	5839.4	
381.48	5375.2	
381.69	3518.4	
381.89	3556	
382.1	4621.6	
382.3	5388.9	
382.51	4287.8	
382.71	4936.3	
382.91	5304.2	
383.12	5730.2	
383.32	3741	
383.53	3923.9	
383.73	5198.4	
383.94	5081.7	
384.14	3935.5	
384.35	3253.5	
384.55	4984.1	
384.76	5326.8	
384.96	3797.6	
385.17	4024.3	
385.37	5352.7	
385.58	4760.2	
385.78	4000.4	
385.98	3213.9	
386.19	4997.7	
386.39	5219.6	
386.6	3607.2	
386.8	3816	
387.01	5322.7	
387.21	5384.8	
387.42	4117.8	
387.62	4460.5	
387.83	4915.1	
388.03	5214.1	
388.23	3872	
388.44	4390.8	
388.64	4635.9	
388.85	4747.2	
389.05	4068.6	
389.26	4484.4	
389.46	6237.4	
389.67	5726.1	
389.87	4151.2	
390.07	4124.6	
390.28	5124	
390.48	4867.3	
390.69	3590.8	
390.89	3786	
391.1	5053.7	
391.3	5703.6	
391.5	4689.8	
391.71	5104.2	
391.91	5533.6	
392.12	6164.4	
392.32	4716.5	
392.53	4095.9	
392.73	5079.6	
392.93	5203.9	
393.14	3965.6	
393.34	4500.1	
393.55	5515.2	
393.75	5155.4	
393.95	3923.2	
394.16	3866.6	
394.36	5128.8	
394.57	5573.2	
394.77	3583.9	
394.98	3831.7	
395.18	4986.1	
395.38	5181.4	
395.59	4564.9	
395.79	3809.9	
396	5190.2	
396.2	5483.1	
396.4	4347.2	
396.61	4343.1	
396.81	5672.2	
397.02	5066.7	
397.22	4677.6	
397.42	4575.8	
397.63	5717.9	
397.83	5096	
398.04	3877.5	
398.24	4228.4	
398.44	5504.3	
398.65	4822.3	
398.85	3732.1	
399.05	3811.3	
399.26	5215.5	
399.46	6338.5	
399.67	4076.8	
399.87	3905.5	
400.07	5489.2	
400.28	5647.6	
400.48	3959.4	
400.69	4777.2	
400.89	5838.1	
401.09	6186.2	
401.3	3934.1	
401.5	4730.8	
401.7	6374	
401.91	6553.5	
402.11	4271.4	
402.32	4377.2	
402.52	5998.5	
402.72	5866.7	
402.93	4564.2	
403.13	3759.4	
403.33	6460	
403.54	5366.4	
403.74	4330.1	
403.94	4874.2	
404.15	5574.6	
404.35	6414.9	
404.56	4166.9	
404.76	5477.6	
404.96	5969.8	
405.17	5710.4	
405.37	5003.2	
405.57	4527.4	
405.78	5961.6	
405.98	5557.5	
406.18	4220.9	
406.39	4782	
406.59	5972.6	
406.79	5581.4	
407	4022.9	
407.2	4125.3	
407.4	6181.5	
407.61	6127.5	
407.81	4205.2	
408.01	5567.1	
408.22	5343.2	
408.42	6775.4	
408.62	5079.6	
408.83	4732.2	
409.03	5976	
409.23	5787.6	
409.44	4860.5	
409.64	4960.2	
409.84	6726.2	
410.05	6602.7	
410.25	5010	
410.45	4892.6	
410.66	6363.7	
410.86	8136.6	
411.06	5329.5	
411.27	5197.7	
411.47	8074.5	
411.67	6498.9	
411.88	5355.4	
412.08	5642.2	
412.28	6987	
412.49	7388.4	
412.69	5329.5	
412.89	5300.1	
413.09	7273	
413.3	7238.2	
413.5	5447.6	
413.7	5198.4	
413.91	6691.4	
414.11	7348.8	
414.31	5368.4	
414.52	5706.3	
414.72	7237.5	
414.92	7024.5	
415.12	5356.1	
415.33	5791	
415.53	7344.7	
415.73	7559.1	
415.94	6049.7	
416.14	5599.1	
416.34	6778.1	
416.55	6482.5	
416.75	6453.8	
416.95	6115.2	
417.15	7495.6	
417.36	7915.4	
417.56	6812.2	
417.76	6029.9	
417.97	7717.4	
418.17	7543.4	
418.37	5769.8	
418.57	5825.8	
418.78	7404.8	
418.98	7165.2	
419.18	6445.6	
419.38	6383.5	
419.59	7124.9	
419.79	6830.7	
419.99	5700.2	
420.2	5961.6	
420.4	7546.8	
420.6	7641	
420.8	5666	
421.01	5572.5	
421.21	7456	
421.41	7531.7	
421.61	5909.8	
421.82	5781.4	
422.02	7221.1	
422.22	7743.4	
422.42	6374	
422.63	6047.7	
422.83	7139.9	
423.03	8168.7	
423.23	6064	
423.44	5336.3	
423.64	7190.4	
423.84	6968.6	
424.04	5615.5	
424.25	5415.5	
424.45	7920.9	
424.65	7770.7	
424.85	5337	
425.06	5752.7	
425.26	7972.7	
425.46	7092.8	
425.66	6089.3	
425.87	5871.5	
426.07	7620.5	
426.27	7533.8	
426.47	5885.2	
426.67	5449.6	
426.88	8004.1	
427.08	7494.9	
427.28	6129.6	
427.48	5406.6	
427.69	6733	
427.89	7236.2	
428.09	6070.2	
428.29	5482.4	
428.5	7629.4	
428.7	7380.2	
428.9	5437.4	
429.1	5774.6	
429.3	7420.5	
429.51	7653.3	
429.71	5703.6	
429.91	6374	
430.11	7688.1	
430.31	8105.9	
430.52	5913.2	
430.72	6240.8	
430.92	8178.2	
431.12	7716.1	
431.32	5742.5	
431.53	6036.7	
431.73	6935.1	
431.93	8180.3	
432.13	5746.6	
432.33	5676.3	
432.54	7425.9	
432.74	7525.6	
432.94	5676.3	
433.14	6364.4	
433.34	7839.6	
433.55	7499.7	
433.75	6433.4	
433.95	7727.7	
434.15	7708.6	
434.35	7434.8	
434.56	5864.7	
434.76	5589.6	
434.96	7752.9	
435.16	7986.4	
435.36	5859.2	
435.56	6744.6	
435.77	7492.2	
435.97	7684.7	
436.17	7240.3	
436.37	6690	
436.57	7596.6	
436.78	7595.9	
436.98	6692.1	
437.18	7148.1	
437.38	8163.9	
437.58	7690.8	
437.78	7262.1	
437.99	6242.9	
438.19	8082	
438.39	8739.4	
438.59	6207.4	
438.79	5732.9	
438.99	8581	
439.2	7671.7	
439.4	5805.3	
439.6	5875.6	
439.8	7905.2	
440	8754.4	
440.2	6799.3	
440.4	6846.4	
440.61	8330.5	
440.81	8698.4	
441.01	6179.4	
441.21	6985.6	
441.41	8820.6	
441.61	8361.9	
441.81	7255.3	
442.02	7892.2	
442.22	9078.6	
442.42	8538	
442.62	6380.8	
442.82	6488.6	
443.02	8862.9	
443.22	8280.6	
443.43	6865.5	
443.63	6372.6	
443.83	8090.2	
444.03	8056.7	
444.23	7484.6	
444.43	7141.3	
444.63	8531.2	
444.83	9267.1	
445.04	6686.6	
445.24	7514.7	
445.44	8657.4	
445.64	8716.8	
445.84	7060	
446.04	7204.8	
446.24	8031.5	
446.44	8794	
446.65	6504.3	
446.85	6960.4	
447.05	8390.5	
447.25	8815.1	
447.45	6925.5	
447.65	6546.7	
447.85	8492.2	
448.05	8014.4	
448.25	7262.8	
448.46	7122.8	
448.66	8469	
448.86	8094.9	
449.06	6518.7	
449.26	7213.6	
449.46	8751	
449.66	8016.4	
449.86	7034.8	
450.06	7058	
450.26	8194.6	
450.47	8695.7	
450.67	7111.9	
450.87	7391.8	
451.07	8856.8	
451.27	8697	
451.47	6668.2	
451.67	7262.1	
451.87	8417.2	
452.07	9273.9	
452.27	7045.7	
452.47	6881.9	
452.67	8666.3	
452.88	9037	
453.08	6404.7	
453.28	7961.1	
453.48	9584.5	
453.68	8575.5	
453.88	6948.8	
454.08	7172	
454.28	9080	
454.48	8783.1	
454.68	7602.7	
454.88	7830.7	
455.08	9192.6	
455.28	9089.6	
455.48	6861.4	
455.68	7559.1	
455.89	9570.8	
456.09	9326.4	
456.29	7301	
456.49	7490.8	
456.69	9669.1	
456.89	8885.5	
457.09	7873.1	
457.29	8234.2	
457.49	9300.5	
457.69	9558.6	
457.89	7872.4	
458.09	7346.7	
458.29	9314.2	
458.49	9854.1	
458.69	8159.1	
458.89	7794.6	
459.09	10174	
459.29	10283	
459.49	7798.7	
459.69	8477.9	
459.9	9787.9	
460.1	9646.6	
460.3	7794.6	
460.5	7641	
460.7	9979.8	
460.9	9548.3	
461.1	7492.8	
461.3	8585.1	
461.5	10535	
461.7	10229	
461.9	8254.7	
462.1	8382.3	
462.3	9960.6	
462.5	10404	
462.7	8269	
462.9	8237.6	
463.1	11138	
463.3	11031	
463.5	8497.7	
463.7	9375.6	
463.9	10402	
464.1	10584	
464.3	8909.3	
464.5	9058.2	
464.7	10820	
464.9	10846	
465.1	9954.5	
465.3	9348.3	
465.5	11201	
465.7	11271	
465.9	9738.8	
466.1	9280.7	
466.3	11221	
466.5	11072	
466.7	10189	
466.9	9366.7	
467.1	11204	
467.3	11723	
467.5	10273	
467.7	9548.3	
467.9	12066	
468.1	12635	
468.3	9994.1	
468.5	10327	
468.7	11292	
468.9	11092	
469.1	9854.1	
469.3	10400	
469.5	12748	
469.7	11152	
469.9	10089	
470.1	9783.1	
470.3	11417	
470.5	11447	
470.7	10645	
470.9	9666.4	
471.1	11290	
471.3	11445	
471.5	9648.7	
471.69	10940	
471.89	11092	
472.09	10661	
472.29	10273	
472.49	10269	
472.69	11033	
472.89	11466	
473.09	9635	
473.29	9515.5	
473.49	11001	
473.69	11038	
473.89	10252	
474.09	9644.6	
474.29	11984	
474.49	11712	
474.69	10287	
474.89	9802.9	
475.09	11112	
475.29	11157	
475.49	9332.6	
475.69	9644.6	
475.88	12279	
476.08	11459	
476.28	9297.8	
476.48	9511.4	
476.68	11592	
476.88	11379	
477.08	9493.7	
477.28	9770.2	
477.48	11129	
477.68	11510	
477.88	9474.6	
478.08	9612.5	
478.28	11944	
478.48	11350	
478.67	9695.1	
478.87	9148.3	
479.07	11817	
479.27	11224	
479.47	9884.2	
479.67	9884.9	
479.87	11695	
480.07	12087	
480.27	9359.9	
480.47	10577	
480.67	11451	
480.87	11978	
481.06	9609.8	
481.26	10400	
481.46	11605	
481.66	11334	
481.86	10008	
482.06	10780	
482.26	11217	
482.46	11873	
482.66	10079	
482.86	9676.7	
483.05	11765	
483.25	11082	
483.45	11875	
483.65	10049	
483.85	11314	
484.05	11725	
484.25	10426	
484.45	10923	
484.65	12254	
484.84	12425	
485.04	10221	
485.24	10232	
485.44	12658	
485.64	11542	
485.84	9901.9	
486.04	10879	
486.24	11775	
486.44	12100	
486.63	9761.3	
486.83	10466	
487.03	11806	
487.23	12144	
487.43	10014	
487.63	11662	
487.83	12052	
488.02	12767	
488.22	10830	
488.42	11361	
488.62	12828	
488.82	12065	
489.02	10537	
489.22	10761	
489.41	12719	
489.61	12607	
489.81	10574	
490.01	10633	
490.21	12832	
490.41	13332	
490.61	10575	
490.8	10623	
491	12553	
491.2	11843	
491.4	11020	
491.6	10410	
491.8	12273	
491.99	12361	
492.19	10259	
492.39	10456	
492.59	12710	
492.79	12843	
492.99	11387	
493.18	10701	
493.38	13078	
493.58	13890	
493.78	11498	
493.98	11063	
494.18	13003	
494.37	12797	
494.57	11875	
494.77	11694	
494.97	13517	
495.17	13862	
495.37	11710	
495.56	11945	
495.76	14149	
495.96	13803	
496.16	12843	
496.36	12017	
496.55	14128	
496.75	13734	
496.95	12327	
497.15	12223	
497.35	13949	
497.54	14068	
497.74	12159	
497.94	13046	
498.14	14861	
498.34	14592	
498.53	11987	
498.73	12674	
498.93	13889	
499.13	14191	
499.33	12646	
499.52	12951	
499.72	14554	
499.92	14607	
500.12	12526	
500.32	12770	
500.51	14586	
500.71	14571	
500.91	13280	
501.11	12964	
501.31	14679	
501.5	14978	
501.7	13528	
501.9	12867	
502.1	14508	
502.29	14833	
502.49	13209	
502.69	13385	
502.89	14572	
503.09	14728	
503.28	12222	
503.48	12358	
503.68	13997	
503.88	13861	
504.07	13035	
504.27	12551	
504.47	14205	
504.67	14325	
504.86	13022	
505.06	12632	
505.26	13888	
505.46	15100	
505.65	12427	
505.85	12674	
506.05	13773	
506.25	14125	
506.44	11918	
506.64	12532	
506.84	13583	
507.04	14173	
507.23	12043	
507.43	12505	
507.63	14963	
507.83	13750	
508.02	12401	
508.22	12293	
508.42	15300	
508.62	13633	
508.81	12323	
509.01	12962	
509.21	13483	
509.4	13814	
509.6	12486	
509.8	12153	
510	13800	
510.19	14904	
510.39	12075	
510.59	12272	
510.79	13741	
510.98	14830	
511.18	12295	
511.38	12434	
511.57	14309	
511.77	14097	
511.97	12825	
512.17	12106	
512.36	14335	
512.56	14105	
512.76	12166	
512.95	11891	
513.15	14487	
513.35	13448	
513.55	12869	
513.74	12256	
513.94	14386	
514.14	13906	
514.33	13147	
514.53	12672	
514.73	13953	
514.92	14183	
515.12	12394	
515.32	12355	
515.51	14149	
515.71	14549	
515.91	13609	
516.11	12420	
516.3	15563	
516.5	14145	
516.7	12824	
516.89	13327	
517.09	14057	
517.29	14072	
517.48	13209	
517.68	12536	
517.88	13861	
518.07	14425	
518.27	13117	
518.47	12206	
518.66	14869	
518.86	13809	
519.06	12182	
519.25	12557	
519.45	13951	
519.65	15204	
519.84	13099	
520.04	13674	
520.24	15623	
520.43	14567	
520.63	12810	
520.83	12701	
521.02	13893	
521.22	14283	
521.42	12832	
521.61	13336	
521.81	14179	
522.01	14328	
522.2	13017	
522.4	12729	
522.6	14756	
522.79	13893	
522.99	12987	
523.18	12587	
523.38	14777	
523.58	14787	
523.77	14205	
523.97	12914	
524.17	16468	
524.36	15851	
524.56	14048	
524.76	13756	
524.95	15274	
525.15	14962	
525.34	13886	
525.54	13775	
525.74	15752	
525.93	14950	
526.13	14927	
526.33	14087	
526.52	16339	
526.72	15823	
526.91	15169	
527.11	14493	
527.31	16318	
527.5	16594	
527.7	14639	
527.89	14006	
528.09	15735	
528.29	16358	
528.48	15031	
528.68	14587	
528.87	16452	
529.07	16276	
529.27	14592	
529.46	14394	
529.66	16212	
529.85	16521	
530.05	14214	
530.25	14780	
530.44	17333	
530.64	16019	
530.83	14568	
531.03	14776	
531.23	16692	
531.42	16371	
531.62	15498	
531.81	14853	
532.01	17090	
532.21	17213	
532.4	14928	
532.6	15417	
532.79	17556	
532.99	17434	
533.18	15495	
533.38	16142	
533.58	17012	
533.77	17628	
533.97	15738	
534.16	16288	
534.36	18036	
534.55	17255	
534.75	16439	
534.95	15862	
535.14	18089	
535.34	17335	
535.53	15499	
535.73	16977	
535.92	18142	
536.12	17182	
536.31	15542	
536.51	16478	
536.71	17438	
536.9	17160	
537.1	15478	
537.29	15743	
537.49	17776	
537.68	17127	
537.88	16155	
538.07	15376	
538.27	17338	
538.46	18275	
538.66	15511	
538.86	16011	
539.05	17497	
539.25	17732	
539.44	16200	
539.64	15527	
539.83	17206	
540.03	18066	
540.22	15617	
540.42	15444	
540.61	17238	
540.81	17527	
541	15896	
541.2	16380	
541.39	16923	
541.59	17355	
541.78	16325	
541.98	15294	
542.18	16644	
542.37	16647	
542.57	15623	
542.76	16097	
542.96	16618	
543.15	17083	
543.35	15472	
543.54	14923	
543.74	17021	
543.93	16825	
544.13	15311	
544.32	16097	
544.52	17060	
544.71	16426	
544.91	14621	
545.1	15526	
545.3	16568	
545.49	16944	
545.69	14580	
545.88	15079	
546.08	17685	
546.27	17226	
546.47	15268	
546.66	14773	
546.86	17103	
547.05	17454	
547.24	15034	
547.44	14927	
547.63	16121	
547.83	17046	
548.02	15137	
548.22	15204	
548.41	16016	
548.61	16956	
548.8	14733	
549	14689	
549.19	16466	
549.39	16845	
549.58	14386	
549.78	14896	
549.97	16853	
550.17	16204	
550.36	15274	
550.55	16031	
550.75	16129	
550.94	16869	
551.14	14420	
551.33	14531	
551.53	15585	
551.72	16540	
551.92	14582	
552.11	14592	
552.31	16478	
552.5	16362	
552.69	15784	
552.89	14270	
553.08	16482	
553.28	16096	
553.47	14502	
553.67	15156	
553.86	16728	
554.06	15479	
554.25	13867	
554.44	14249	
554.64	17379	
554.83	16855	
555.03	14325	
555.22	14416	
555.42	16346	
555.61	16021	
555.8	14351	
556	14486	
556.19	15646	
556.39	16406	
556.58	14404	
556.78	14401	
556.97	16196	
557.16	15819	
557.36	15205	
557.55	14175	
557.75	15356	
557.94	16795	
558.13	14184	
558.33	14003	
558.52	16580	
558.72	15610	
558.91	13914	
559.1	14117	
559.3	15386	
559.49	15097	
559.69	13599	
559.88	14399	
560.07	15839	
560.27	16365	
560.46	14582	
560.66	14789	
560.85	15689	
561.04	15074	
561.24	13842	
561.43	13982	
561.63	15231	
561.82	15479	
562.01	14858	
562.21	14258	
562.4	15844	
562.59	16604	
562.79	14166	
562.98	14029	
563.18	15981	
563.37	17034	
563.56	14649	
563.76	14055	
563.95	15567	
564.14	15697	
564.34	14439	
564.53	14112	
564.73	16219	
564.92	16403	
565.11	14653	
565.31	14257	
565.5	16738	
565.69	15896	
565.89	14510	
566.08	14626	
566.27	16599	
566.47	16875	
566.66	15087	
566.85	14145	
567.05	16455	
567.24	15986	
567.44	14520	
567.63	15455	
567.82	16537	
568.02	16218	
568.21	14547	
568.4	14717	
568.6	16378	
568.79	16333	
568.98	14462	
569.18	14576	
569.37	16523	
569.56	18030	
569.76	15081	
569.95	15911	
570.14	16683	
570.34	16704	
570.53	14557	
570.72	14790	
570.91	17191	
571.11	16521	
571.3	15127	
571.49	15655	
571.69	16702	
571.88	16128	
572.07	15647	
572.27	15286	
572.46	16172	
572.65	16974	
572.85	14954	
573.04	15362	
573.23	17283	
573.43	16691	
573.62	14902	
573.81	15455	
574	17013	
574.2	16770	
574.39	15397	
574.58	15636	
574.78	17815	
574.97	17324	
575.16	16007	
575.36	16094	
575.55	17779	
575.74	17860	
575.93	15292	
576.13	16255	
576.32	17236	
576.51	17707	
576.71	15771	
576.9	16714	
577.09	17964	
577.28	17615	
577.48	16057	
577.67	15354	
577.86	17340	
578.05	17635	
578.25	15945	
578.44	16049	
578.63	17493	
578.83	18428	
579.02	15526	
579.21	16895	
579.4	17590	
579.6	17571	
579.79	16045	
579.98	17704	
580.17	18110	
580.37	18182	
580.56	15679	
580.75	16328	
580.94	18469	
581.14	18211	
581.33	16822	
581.52	15882	
581.71	18060	
581.91	18307	
582.1	15811	
582.29	16152	
582.48	17777	
582.68	17832	
582.87	16490	
583.06	16303	
583.25	18046	
583.45	18013	
583.64	17030	
583.83	17496	
584.02	17725	
584.21	18245	
584.41	16657	
584.6	16456	
584.79	18048	
584.98	18428	
585.18	16020	
585.37	16100	
585.56	17548	
585.75	18198	
585.94	15990	
586.14	16621	
586.33	18297	
586.52	17791	
586.71	16298	
586.91	16083	
587.1	17071	
587.29	17869	
587.48	15760	
587.67	15680	
587.87	17747	
588.06	17479	
588.25	16698	
588.44	16333	
588.63	17296	
588.83	17570	
589.02	15499	
589.21	15397	
589.4	16933	
589.59	16900	
589.78	14485	
589.98	14618	
590.17	16054	
590.36	16265	
590.55	13644	
590.74	14167	
590.94	16840	
591.13	15937	
591.32	14000	
591.51	13728	
591.7	16286	
591.89	16037	
592.09	14001	
592.28	14311	
592.47	15484	
592.66	16988	
592.85	14018	
593.05	14166	
593.24	15887	
593.43	16600	
593.62	14328	
593.81	14610	
594	16069	
594.19	16289	
594.39	14197	
594.58	14266	
594.77	16345	
594.96	16563	
595.15	14240	
595.34	14530	
595.54	16030	
595.73	15343	
595.92	13584	
596.11	14267	
596.3	16263	
596.49	15550	
596.68	14175	
596.88	14376	
597.07	16079	
597.26	15262	
597.45	13747	
597.64	14738	
597.83	15638	
598.02	16158	
598.22	13786	
598.41	14287	
598.6	15832	
598.79	15292	
598.98	13816	
599.17	14504	
599.36	15799	
599.55	16573	
599.74	15221	
599.94	15072	
600.13	16135	
600.32	15246	
600.51	13592	
600.7	13774	
600.89	16453	
601.08	16472	
601.27	13558	
601.47	14238	
601.66	15986	
601.85	16423	
602.04	14059	
602.23	14105	
602.42	15225	
602.61	15683	
602.8	13758	
602.99	13632	
603.18	15462	
603.37	15693	
603.57	14022	
603.76	14536	
603.95	16223	
604.14	15917	
604.33	13850	
604.52	13997	
604.71	15880	
604.9	15343	
605.09	14518	
605.28	14408	
605.47	16150	
605.66	15819	
605.86	14297	
606.05	13830	
606.24	16087	
606.43	14975	
606.62	14023	
606.81	14294	
607	15865	
607.19	15399	
607.38	13523	
607.57	13654	
607.76	15107	
607.95	14791	
608.14	13931	
608.33	14407	
608.52	15156	
608.72	15773	
608.91	13467	
609.1	13291	
609.29	15186	
609.48	14816	
609.67	13822	
609.86	13226	
610.05	14871	
610.24	15139	
610.43	13169	
610.62	12953	
610.81	15827	
611	15797	
611.19	13251	
611.38	13775	
611.57	15374	
611.76	16241	
611.95	13119	
612.14	12895	
612.33	15070	
612.52	14764	
612.71	13490	
612.9	12812	
613.09	14560	
613.28	16381	
613.47	13284	
613.66	13953	
613.85	15166	
614.04	14947	
614.24	13325	
614.43	12622	
614.62	15343	
614.81	15384	
615	13546	
615.19	13749	
615.38	14747	
615.57	15272	
615.76	13796	
615.95	14382	
616.14	15492	
616.33	15276	
616.52	13954	
616.71	14173	
616.9	15339	
617.09	15237	
617.28	13541	
617.47	14389	
617.66	14887	
617.85	14802	
618.04	14372	
618.22	13964	
618.41	15257	
618.6	16148	
618.79	14012	
618.98	13884	
619.17	16296	
619.36	15126	
619.55	14031	
619.74	14074	
619.93	15765	
620.12	15402	
620.31	14545	
620.5	14842	
620.69	16437	
620.88	16890	
621.07	15334	
621.26	14694	
621.45	16294	
621.64	16355	
621.83	14869	
622.02	14285	
622.21	16315	
622.4	16391	
622.59	15403	
622.78	15190	
622.97	16002	
623.16	16771	
623.35	14931	
623.54	14265	
623.72	16225	
623.91	16341	
624.1	15142	
624.29	14216	
624.48	17148	
624.67	16607	
624.86	15094	
625.05	14383	
625.24	17247	
625.43	16272	
625.62	16332	
625.81	14614	
626	16766	
626.19	16335	
626.38	15248	
626.56	14811	
626.75	16283	
626.94	16815	
627.13	15238	
627.32	14294	
627.51	16721	
627.7	17439	
627.89	14276	
628.08	15223	
628.27	15980	
628.46	16062	
628.65	14560	
628.83	14216	
629.02	16578	
629.21	16010	
629.4	14807	
629.59	14892	
629.78	16072	
629.97	16605	
630.16	15061	
630.35	14633	
630.54	17107	
630.72	16916	
630.91	14719	
631.1	15083	
631.29	16313	
631.48	16591	
631.67	15029	
631.86	14552	
632.05	16267	
632.24	16173	
632.42	14395	
632.61	14845	
632.8	16206	
632.99	15959	
633.18	14939	
633.37	14972	
633.56	16369	
633.75	16432	
633.93	14872	
634.12	14635	
634.31	16947	
634.5	16792	
634.69	14692	
634.88	14990	
635.07	16277	
635.25	16696	
635.44	15279	
635.63	15572	
635.82	16013	
636.01	15616	
636.2	15027	
636.39	14810	
636.57	16921	
636.76	16454	
636.95	14369	
637.14	15401	
637.33	16440	
637.52	16895	
637.7	14312	
637.89	14975	
638.08	16109	
638.27	17042	
638.46	15016	
638.65	15247	
638.83	16845	
639.02	15754	
639.21	14717	
639.4	14939	
639.59	16018	
639.78	15874	
639.96	13975	
640.15	14073	
640.34	15846	
640.53	15913	
640.72	13910	
640.91	14005	
641.09	15233	
641.28	16228	
641.47	14130	
641.66	14599	
641.85	15723	
642.03	15767	
642.22	14373	
642.41	13850	
642.6	15188	
642.79	14913	
642.97	13648	
643.16	14195	
643.35	15269	
643.54	14966	
643.73	13610	
643.91	14063	
644.1	14762	
644.29	15183	
644.48	13372	
644.67	13518	
644.85	14597	
645.04	15082	
645.23	12925	
645.42	13235	
645.6	14341	
645.79	15271	
645.98	12878	
646.17	12132	
646.36	13926	
646.54	14188	
646.73	13151	
646.92	12261	
647.11	13857	
647.29	14496	
647.48	12415	
647.67	12127	
647.86	14798	
648.05	14914	
648.23	12539	
648.42	13466	
648.61	14217	
648.8	14100	
648.98	12098	
649.17	12363	
649.36	13629	
649.55	13575	
649.73	12146	
649.92	12798	
650.11	13816	
650.3	13941	
650.48	12316	
650.67	12115	
650.86	14056	
651.05	13167	
651.23	12114	
651.42	12076	
651.61	13584	
651.79	13477	
651.98	12220	
652.17	11893	
652.36	13824	
652.54	13076	
652.73	11884	
652.92	11822	
653.11	13676	
653.29	13777	
653.48	11288	
653.67	11942	
653.85	13371	
654.04	14214	
654.23	12035	
654.42	11609	
654.6	12762	
654.79	13122	
654.98	10832	
655.16	11207	
655.35	12118	
655.54	11926	
655.73	10776	
655.91	10590	
656.1	12712	
656.29	12022	
656.47	10493	
656.66	11783	
656.85	12477	
657.03	12551	
657.22	11184	
657.41	11262	
657.59	12698	
657.78	12628	
657.97	11102	
658.16	11548	
658.34	13268	
658.53	13586	
658.72	12215	
658.9	12581	
659.09	13005	
659.28	12984	
659.46	11450	
659.65	11385	
659.84	12755	
660.02	13171	
660.21	11460	
660.4	11196	
660.58	13553	
660.77	12956	
660.96	11716	
661.14	11006	
661.33	13814	
661.52	13691	
661.7	10932	
661.89	13577	
662.08	12622	
662.26	12239	
662.45	11068	
662.64	11058	
662.82	13156	
663.01	12564	
663.2	11146	
663.38	11698	
663.57	12950	
663.75	12945	
663.94	11393	
664.13	12164	
664.31	12540	
664.5	13123	
664.69	11585	
664.87	11951	
665.06	12330	
665.25	12938	
665.43	12035	
665.62	12150	
665.8	13093	
665.99	12564	
666.18	11161	
666.36	11390	
666.55	12953	
666.74	12923	
666.92	11063	
667.11	12135	
667.29	12715	
667.48	12981	
667.67	11773	
667.85	11151	
668.04	12493	
668.22	12575	
668.41	11237	
668.6	11478	
668.78	12382	
668.97	12553	
669.15	11475	
669.34	10798	
669.53	12452	
669.71	12735	
669.9	10832	
670.08	11384	
670.27	12409	
670.46	12721	
670.64	11464	
670.83	11634	
671.01	12226	
671.2	12623	
671.38	10984	
671.57	10810	
671.76	13128	
671.94	13612	
672.13	10705	
672.31	11423	
672.5	13052	
672.69	12407	
672.87	10982	
673.06	11217	
673.24	12784	
673.43	12482	
673.61	11471	
673.8	11103	
673.98	12757	
674.17	13026	
674.36	11617	
674.54	11409	
674.73	12514	
674.91	12897	
675.1	11299	
675.28	10903	
675.47	12436	
675.65	13004	
675.84	11120	
676.03	11434	
676.21	12445	
676.4	11953	
676.58	11715	
676.77	11594	
676.95	13448	
677.14	12356	
677.32	10817	
677.51	10807	
677.69	13048	
677.88	12135	
678.06	10798	
678.25	10887	
678.44	12568	
678.62	12357	
678.81	10615	
678.99	11372	
679.18	13046	
679.36	12856	
679.55	11071	
679.73	11516	
679.92	12715	
680.1	12340	
680.29	11940	
680.47	11146	
680.66	12286	
680.84	12938	
681.03	10633	
681.21	11316	
681.4	12321	
681.58	12138	
681.77	10893	
681.95	10913	
682.14	12856	
682.32	13185	
682.51	11407	
682.69	10649	
682.88	12136	
683.06	12379	
683.25	11174	
683.43	11506	
683.62	12447	
683.8	12671	
683.99	11555	
684.17	11083	
684.36	13130	
684.54	12219	
684.73	10079	
684.91	10133	
685.1	11865	
685.28	11318	
685.46	10206	
685.65	10118	
685.83	11594	
686.02	11069	
686.2	9633	
686.39	9810.5	
686.57	10989	
686.76	12296	
686.94	9834.3	
687.13	10078	
687.31	11698	
687.5	11546	
687.68	9699.9	
687.86	10476	
688.05	12900	
688.23	11150	
688.42	10654	
688.6	10241	
688.79	11594	
688.97	11611	
689.16	10614	
689.34	9705.3	
689.52	12237	
689.71	12405	
689.89	10864	
690.08	10352	
690.26	11932	
690.45	11787	
690.63	10819	
690.81	10522	
691	11711	
691.18	11708	
691.37	10496	
691.55	12078	
691.74	11458	
691.92	12964	
692.1	10421	
692.29	9970.2	
692.47	11639	
692.66	11112	
692.84	10159	
693.02	10553	
693.21	11387	
693.39	11531	
693.58	10718	
693.76	10241	
693.94	12532	
694.13	12468	
694.31	10504	
694.5	11188	
694.68	11698	
694.86	12183	
695.05	10864	
695.23	10824	
695.42	12456	
695.6	14128	
695.78	11279	
695.97	10605	
696.15	12567	
696.34	11903	
696.52	10383	
696.7	10882	
696.89	12160	
697.07	11724	
697.25	10896	
697.44	11797	
697.62	12002	
697.81	12181	
697.99	10509	
698.17	10859	
698.36	11459	
698.54	11908	
698.72	10626	
698.91	9957.2	
699.09	11557	
699.28	11413	
699.46	10319	
699.64	10240	
699.83	11386	
700.01	12085	
700.19	10835	
700.38	9723.8	
700.56	12355	
700.74	11490	
700.93	10075	
701.11	10619	
701.29	11801	
701.48	12711	
701.66	10155	
701.84	10276	
702.03	11697	
702.21	12284	
702.39	9934.7	
702.58	10569	
702.76	12015	
702.94	12129	
703.13	9818	
703.31	11727	
703.49	11559	
703.68	12424	
703.86	9992	
704.04	10765	
704.23	11779	
704.41	12026	
704.59	10192	
704.78	10883	
704.96	12890	
705.14	12034	
705.33	10004	
705.51	10438	
705.69	11554	
705.87	12203	
706.06	10671	
706.24	9869.8	
706.42	11729	
706.61	12002	
706.79	10608	
706.97	9851.4	
707.16	11241	
707.34	11656	
707.52	10482	
707.7	10013	
707.89	11252	
708.07	11092	
708.25	10622	
708.44	10674	
708.62	11269	
708.8	11967	
708.98	10670	
709.17	9886.9	
709.35	11462	
709.53	11394	
709.72	9714.2	
709.9	9908.8	
710.08	11701	
710.26	11630	
710.45	10815	
710.63	9888.3	
710.81	11308	
710.99	11344	
711.18	10226	
711.36	9691.7	
711.54	11031	
711.72	11486	
711.91	9681.4	
712.09	9336.7	
712.27	10936	
712.45	11661	
712.64	9710.1	
712.82	8973.5	
713	10403	
713.18	10555	
713.37	8910.7	
713.55	9727.9	
713.73	10923	
713.91	9832.3	
714.1	8746.9	
714.28	8219.9	
714.46	10084	
714.64	9355.8	
714.83	7475.1	
715.01	7864.2	
715.19	9054.1	
715.37	8440.4	
715.55	7455.3	
715.74	7480.5	
715.92	9494.4	
716.1	7976.8	
716.28	8282	
716.47	7504.4	
716.65	8436.9	
716.83	8486.1	
717.01	7329	
717.19	7290.1	
717.38	9955.9	
717.56	8149.6	
717.74	7425.9	
717.92	6981.5	
718.1	9217.2	
718.29	8608.3	
718.47	6853.2	
718.65	7400	
718.83	9424.8	
719.01	9409.7	
719.2	7088	
719.38	7925	
719.56	9363.3	
719.74	10436	
719.92	7695.6	
720.11	8368.7	
720.29	9228.8	
720.47	8662.2	
720.65	7053.2	
720.83	7621.9	
721.02	8637.6	
721.2	8270.4	
721.38	7430.7	
721.56	6869.6	
721.74	7887.4	
721.92	7933.8	
722.11	7722.9	
722.29	7352.2	
722.47	8859.5	
722.65	8158.4	
722.83	6678.4	
723.01	7339.2	
723.2	8285.4	
723.38	8460.8	
723.56	6363.7	
723.74	7109.2	
723.92	7937.9	
724.1	8729.1	
724.29	6642.2	
724.47	7561.8	
724.65	7942	
724.83	7735.9	
725.01	6543.3	
725.19	7137.9	
725.37	7772	
725.56	7767.9	
725.74	6391.7	
725.92	6645	
726.1	7768.6	
726.28	7964.6	
726.46	6799.3	
726.64	6589	
726.83	7950.9	
727.01	8071	
727.19	6381.5	
727.37	6990.4	
727.55	8041	
727.73	8435.6	
727.91	6321.4	
728.09	6146.6	
728.28	8482	
728.46	8630.8	
728.64	6956.3	
728.82	6985.6	
729	9174.9	
729.18	8777.6	
729.36	6553.5	
729.54	8052.6	
729.72	9580.4	
729.91	8261.5	
730.09	7971.4	
730.27	7148.1	
730.45	8256	
730.63	8703.2	
730.81	7434.8	
730.99	6825.2	
731.17	9225.4	
731.35	8122.2	
731.53	7225.2	
731.71	6952.9	
731.9	8886.8	
732.08	8947.6	
732.26	7046.4	
732.44	6818.4	
732.62	9031.5	
732.8	8554.4	
732.98	7350.2	
733.16	6490	
733.34	8546.9	
733.52	7606.2	
733.7	6804	
733.88	7054.6	
734.07	8346.2	
734.25	8185	
734.43	6486.6	
734.61	7578.8	
734.79	9263	
734.97	8080.6	
735.15	6580.8	
735.33	6845	
735.51	8289.5	
735.69	8069	
735.87	7527.7	
736.05	6830	
736.23	8073.1	
736.41	7811.6	
736.59	6669.6	
736.77	6901	
736.95	8462.2	
737.13	8011	
737.32	6447	
737.5	6653.2	
737.68	8868.4	
737.86	7884.7	
738.04	6278.4	
738.22	7557	
738.4	7593.9	
738.58	7898.3	
738.76	6587	
738.94	5887.2	
739.12	7754.3	
739.3	7630	
739.48	7053.2	
739.66	6871.6	
739.84	7965.9	
740.02	7876.5	
740.2	5928.2	
740.38	6120	
740.56	8158.4	
740.74	7260.7	
740.92	6615.6	
741.1	6494.1	
741.28	7696.9	
741.46	7468.9	
741.64	6285.2	
741.82	6612.2	
742	7663.5	
742.18	7568.6	
742.36	6318	
742.54	6085.2	
742.72	8021.2	
742.9	7045	
743.08	6561	
743.26	5616.2	
743.44	8088.1	
743.62	7909.3	
743.8	6716	
743.98	5903.6	
744.16	7689.4	
744.34	7419.8	
744.52	6455.2	
744.7	6419	
744.88	7721.5	
745.06	7355.6	
745.24	6427.9	
745.42	6518	
745.6	7829.4	
745.78	7560.4	
745.96	5541.8	
746.14	5640.1	
746.32	8192.6	
746.5	7544	
746.68	6039.5	
746.86	5739.8	
747.03	7876.5	
747.21	6660	
747.39	6025.8	
747.57	5541.8	
747.75	7215.7	
747.93	7531.7	
748.11	5599.1	
748.29	5550	
748.47	8387.8	
748.65	7000	
748.83	6120	
749.01	5909.1	
749.19	7315.3	
749.37	6645.7	
749.55	5739.8	
749.73	5814.2	
749.91	7118.1	
750.09	6926.2	
750.26	5859.9	
750.44	5296.7	
750.62	7101.7	
750.8	7004.1	
750.98	5280.3	
751.16	5504.9	
751.34	7140.6	
751.52	6595.8	
751.7	6040.1	
751.88	5196.4	
752.06	7346.7	
752.24	7177.4	
752.42	5141.8	
752.59	5474.2	
752.77	6910.5	
752.95	7830.7	
753.13	5915.2	
753.31	5419.6	
753.49	6694.1	
753.67	6987.7	
753.85	5616.9	
754.03	5313.1	
754.21	7082.6	
754.38	7311.9	
754.56	5281	
754.74	4586.1	
754.92	6365.8	
755.1	6761	
755.28	4401.8	
755.46	4341.7	
755.64	7185	
755.82	7115.3	
755.99	4273.4	
756.17	4197	
756.35	4962.9	
756.53	6029.9	
756.71	3217.4	
756.89	3892.5	
757.07	5710.4	
757.25	5059.2	
757.42	4364.2	
757.6	5042.8	
757.78	5911.1	
757.96	5231.9	
758.14	4273.4	
758.32	4014	
758.5	4885.8	
758.67	5520.6	
758.85	4130.8	
759.03	4178.5	
759.21	5614.8	
759.39	5165	
759.57	3750.5	
759.75	4605.9	
759.92	6128.9	
760.1	5704.3	
760.28	4897.4	
760.46	5201.8	
760.64	5431.9	
760.82	5331.5	
760.99	5014.1	
761.17	4291.9	
761.35	6269.5	
761.53	5310.4	
761.71	4543.1	
761.89	5012.1	
762.06	6098.9	
762.24	5782.8	
762.42	4635.9	
762.6	4440	
762.78	5780.1	
762.96	6276.3	
763.13	4913.8	
763.31	4622.9	
763.49	6425.8	
763.67	5775.3	
763.85	5358.2	
764.02	5687.9	
764.2	6656.6	
764.38	5993.7	
764.56	4560.8	
764.74	5169.8	
764.91	6685.3	
765.09	5827.8	
765.27	4356.7	
765.45	4148.5	
765.63	6769.9	
765.8	6605.4	
765.98	3979.2	
766.16	4176.5	
766.34	5481	
766.52	5253	
766.69	4887.1	
766.87	4018.1	
767.05	5745.9	
767.23	6356.2	
767.41	4244.8	
767.58	4459.1	
767.76	6150.7	
767.94	6172.6	
768.12	4257.7	
768.29	4792.2	
768.47	5667.4	
768.65	6307.7	
768.83	3865.9	
769	4787.5	
769.18	5354.8	
769.36	5786.9	
769.54	4678.9	
769.72	3895.9	
769.89	6098.9	
770.07	6053.1	
770.25	4207.9	
770.43	5061.2	
770.6	6640.2	
770.78	6839.5	
770.96	4293.9	
771.14	4599.7	
771.31	5988.3	
771.49	5451.7	
771.67	3672.7	
771.85	3820.8	
772.02	4890.5	
772.2	5401.9	
772.38	4278.9	
772.55	3921.2	
772.73	5679	
772.91	5399.8	
773.09	4192.2	
773.26	4277.5	
773.44	5578.7	
773.62	5287.9	
773.8	3801	
773.97	3604.4	
774.15	5546.6	
774.33	5315.8	
774.5	3747.1	
774.68	4010.6	
774.86	5642.2	
775.04	5250.3	
775.21	3661.1	
775.39	3692.5	
775.57	5464	
775.74	5664	
775.92	3594.9	
776.1	3506.1	
776.27	5423.7	
776.45	6270.2	
776.63	3670.6	
776.81	3371	
776.98	5132.2	
777.16	5885.2	
777.34	3785.3	
777.51	4005.8	
777.69	5130.8	
777.87	4900.8	
778.04	3827	
778.22	4202.4	
778.4	4949.3	
778.57	5442.1	
778.75	3223.5	
778.93	3400.3	
779.1	4799.1	
779.28	4677.6	
779.46	3209.2	
779.64	3599.6	
779.81	5545.9	
779.99	6187.6	
780.17	4104.8	
780.34	4233.8	
780.52	5134.3	
780.69	5188.9	
780.87	3842.7	
781.05	3496.6	
781.22	5173.2	
781.4	5167	
781.58	3519.1	
781.75	2945	
781.93	5152.7	
782.11	4607.9	
782.28	4239.3	
782.46	3562.1	
782.64	4513	
782.81	5266	
782.99	3617.4	
783.17	3522.5	
783.34	5115.8	
783.52	4539.7	
783.69	3661.8	
783.87	4324.6	
784.05	4575.8	
784.22	4672.8	
784.4	4210.6	
784.58	3790.1	
784.75	5358.9	
784.93	4775.2	
785.1	3471.3	
785.28	3953.9	
785.46	5187.5	
785.63	4528.1	
785.81	3543	
785.99	3291.8	
786.16	4790.9	
786.34	4984.8	
786.51	3340.2	
786.69	3693.9	
786.87	4348.5	
787.04	4769	
787.22	3309.5	
787.39	3984	
787.57	4603.8	
787.75	5457.8	
787.92	4132.8	
788.1	4037.9	
788.27	4601.8	
788.45	4364.2	
788.63	3864.5	
788.8	2869.9	
788.98	4954.7	
789.15	4330.8	
789.33	2960	
789.5	3491.1	
789.68	5237.3	
789.86	5410.1	
790.03	3757.3	
790.21	3306.1	
790.38	5296.7	
790.56	4655	
790.73	3265.8	
790.91	3214.6	
791.09	4620.9	
791.26	5123.3	
791.44	3473.4	
791.61	3050.1	
791.79	4557.4	
791.96	4560.1	
792.14	3094.5	
792.32	2856.2	
792.49	4579.9	
792.67	4645.5	
792.84	3198.2	
793.02	2984.6	
793.19	5173.9	
793.37	5410.1	
793.54	2694.4	
793.72	3054.2	
793.89	5400.5	
794.07	4527.4	
794.25	3423.5	
794.42	2818.7	
794.6	5363.6	
794.77	5001.8	
794.95	3680.9	
795.12	3278.8	
795.3	4575.2	
795.47	4990.9	
795.65	3563.5	
795.82	3375.1	
796	4390.8	
796.17	5710.4	
796.35	3351.8	
796.52	3863.8	
796.7	4963.6	
796.87	4990.9	
797.05	3311.6	
797.22	3945.1	
797.4	5018.2	
797.57	5703.6	
797.75	3433.1	
797.92	3261	
798.1	5253.7	
798.27	4390.2	
798.45	2829.6	
798.62	3049.4	
798.8	4788.2	
798.97	5112.4	
799.15	3639.9	
799.32	3467.2	
799.5	4219.5	
799.67	4792.9	
799.85	3676.1	
800.02	2830.3	
800.2	4442.7	
800.37	4678.9	
800.55	3850.9	
800.72	3300.6	
800.9	5084.4	
801.07	5398.4	
801.25	4211.3	
801.42	3461.1	
801.6	5102.9	
801.77	4821.6	
801.95	3291.8	
802.12	3162.1	
802.29	4844.1	
802.47	4841.4	
802.64	3499.3	
802.82	2726.5	
802.99	4483.7	
803.17	5203.2	
803.34	3448.1	
803.52	3091.8	
803.69	5653.8	
803.87	4242.7	
804.04	3411.9	
804.21	3435.8	
804.39	5312.4	
804.56	4576.5	
804.74	2977.1	
804.91	3502.7	
805.09	4475.5	
805.26	4556	
805.44	2982.5	
805.61	3252.2	
805.78	5015.5	
805.96	4913.1	
806.13	3488.4	
806.31	3689.1	
806.48	4098	
806.66	4558.1	
806.83	3491.1	
807	3343	
807.18	4442.7	
807.35	4758.8	
807.53	3333.4	
807.7	2779.8	
807.87	5323.4	
808.05	4468.7	
808.22	3730	
808.4	2840.5	
808.57	4462.5	
808.74	4214	
808.92	3085.6	
809.09	3928.7	
809.27	4438.6	
809.44	4853	
809.61	2791.4	
809.79	3052.8	
809.96	5418.9	
810.14	4988.2	
810.31	2770.9	
810.48	3289.7	
810.66	4550.6	
810.83	5013.4	
811.01	3108.1	
811.18	3451.5	
811.35	5050.3	
811.53	3975.8	
811.7	3784	
811.87	3481.5	
812.05	4536.9	
812.22	4457.1	
812.39	3092.4	
812.57	2990	
812.74	4476.2	
812.92	5685.8	
813.09	3252.9	
813.26	3525.9	
813.44	5480.4	
813.61	4335.5	
813.78	2765.4	
813.96	3595.6	
814.13	4516.5	
814.3	4321.9	
814.48	3814.7	
814.65	3281.5	
814.82	5328.8	
815	4266.6	
815.17	3356.6	
815.34	3956.7	
815.52	4445.5	
815.69	4398.4	
815.87	3315.7	
816.04	3203.7	
816.21	4478.2	
816.38	4100.7	
816.56	3242.6	
816.73	3007.8	
816.9	5577.3	
817.08	5027.8	
817.25	3059.7	
817.42	3715.7	
817.6	4143	
817.77	4466.6	
817.94	3371.6	
818.12	3037.8	
818.29	4259.1	
818.46	6206	
818.64	3213.9	
818.81	2980.5	
818.98	4307.6	
819.16	5765	
819.33	3578.5	
819.5	3353.2	
819.67	4762.2	
819.85	5221	
820.02	3277.4	
820.19	3496.6	
820.37	4639.3	
820.54	4348.5	
820.71	3403.7	
820.88	4134.8	
821.06	4654.4	
821.23	4293.9	
821.4	3368.2	
821.58	3371	
821.75	4957.4	
821.92	4616.1	
822.09	2840.5	
822.27	2895.8	
822.44	4471.4	
822.61	4334.2	
822.79	2825.5	
822.96	5053	
823.13	4747.2	
823.3	4193.6	
823.48	3152.5	
823.65	2875.3	
823.82	5039.4	
823.99	4147.8	
824.17	3960.8	
824.34	2951.8	
824.51	5644.9	
824.68	4505.5	
824.86	3070.6	
825.03	3332.7	
825.2	4453.6	
825.37	5214.8	
825.55	3056.9	
825.72	3299.3	
825.89	5662	
826.06	5304.9	
826.24	3267.2	
826.41	3246.7	
826.58	5344.5	
826.75	4643.4	
826.92	2658.3	
827.1	2936.1	
827.27	6885.3	
827.44	5598.5	
827.61	3110.9	
827.79	3695.2	
827.96	4293.2	
828.13	4467.3	
828.3	3239.2	
828.47	2793.4	
828.65	4727.4	
828.82	4707.6	
828.99	4031.1	
829.16	3556.6	
829.34	4974.5	
829.51	4795.7	
829.68	3294.5	
829.85	3423.5	
830.02	5238.7	
830.2	5033.9	
830.37	2633.7	
830.54	3906.2	
830.71	5595.7	
830.88	4558.8	
831.05	2621.4	
831.23	3048.1	
831.4	5384.1	
831.57	5838.1	
831.74	3089.7	
831.91	2762.7	
832.09	4713.7	
832.26	5005.9	
832.43	3164.1	
832.6	3506.1	
832.77	4730.8	
832.94	5203.9	
833.12	2606.4	
833.29	3131.3	
833.46	4502.1	
833.63	6029.9	
833.8	3416.7	
833.97	3239.2	
834.15	5008.6	
834.32	4846.9	
834.49	3303.4	
834.66	3360	
834.83	5081	
835	4341	
835.17	3084.2	
835.35	3072.6	
835.52	4917.9	
835.69	4823	
835.86	3214.6	
836.03	2661.7	
836.2	5003.2	
836.37	4693.3	
836.55	3139.5	
836.72	2991.4	
836.89	4627.7	
837.06	5052.3	
837.23	3210.5	
837.4	3403.7	
837.57	5664	
837.75	6042.9	
837.92	2949.8	
838.09	3123.8	
838.26	4605.9	
838.43	5126.7	
838.6	3335.5	
838.77	3028.3	
838.94	5758.9	
839.11	5575.9	
839.29	3194.1	
839.46	2547	
839.63	5002.5	
839.8	4747.2	
839.97	3090.4	
840.14	3067.2	
840.31	4864.6	
840.48	5055.8	
840.65	2639.1	
840.82	3012.6	
841	4971.1	
841.17	4847.5	
841.34	2817.3	
841.51	2961.4	
841.68	4866	
841.85	4721.3	
842.02	2920.4	
842.19	2479.4	
842.36	4801.8	
842.53	4781.3	
842.7	2862.4	
842.87	3415.3	
843.05	6014.2	
843.22	4677.6	
843.39	2741.5	
843.56	2955.2	
843.73	4610	
843.9	5025	
844.07	4368.3	
844.24	3737.5	
844.41	6685.3	
844.58	4364.2	
844.75	2766.8	
844.92	2951.1	
845.09	4919.2	
845.26	4911	
845.43	2843.3	
845.6	3011.2	
845.77	4892.6	
845.94	4721.9	
846.12	3119.1	
846.29	3297.2	
846.46	5141.1	
846.63	4945.2	
846.8	2844.6	
846.97	3345.7	
847.14	5269.4	
847.31	4912.4	
847.48	3175	
847.65	3418.7	
847.82	5130.8	
847.99	5097.4	
848.16	3678.8	
848.33	3446.7	
848.5	4554.7	
848.67	5306.3	
848.84	2793.4	
849.01	2919	
849.18	4546.5	
849.35	4334.2	
849.52	3411.2	
849.69	2809.8	
849.86	5174.5	
850.03	5196.4	
850.2	2859.6	
850.37	3401.7	
850.54	5130.2	
850.71	4651.6	
850.88	3377.8	
851.05	2752.5	
851.22	4829.1	
851.39	5347.2	
851.56	2648	
851.73	3228.3	
851.9	4369.7	
852.07	5112.4	
852.24	3086.3	
852.41	2839.8	
852.58	4899.4	
852.75	4485.7	
852.92	3155.9	
853.09	2757.9	
853.26	4615.4	
853.43	5274.9	
853.6	2846.7	
853.77	2450.1	
853.94	5326.8	
854.11	4368.3	
854.28	3995.6	
854.44	3026.2	
854.61	5579.3	
854.78	5101.5	
854.95	2789.3	
855.12	3442.6	
855.29	4111.6	
855.46	5487.9	
855.63	2814.6	
855.8	3833.8	
855.97	4560.1	
856.14	5165	
856.31	3927.3	
856.48	3095.2	
856.65	4651.6	
856.82	4377.9	
856.99	2735.4	
857.16	3044.6	
857.33	5756.2	
857.49	4672.1	
857.66	2925.9	
857.83	3220.1	
858	4713.7	
858.17	4851	
858.34	2695.1	
858.51	2847.4	
858.68	5402.5	
858.85	5392.3	
859.02	3202.3	
859.19	3431.7	
859.36	4406.5	
859.52	4414.1	
859.69	2852.1	
859.86	3299.3	
860.03	4421.6	
860.2	5296	
860.37	2596.1	
860.54	2908.8	
860.71	5098.8	
860.88	5352.7	
861.05	3141.6	
861.21	3489.1	
861.38	5292	
861.55	4257	
861.72	2620.7	
861.89	3150.5	
862.06	5085.1	
862.23	5458.5	
862.4	2738.1	
862.56	2919.7	
862.73	5041.4	
862.9	4790.9	
863.07	3249.4	
863.24	2883.5	
863.41	4315.1	
863.58	4429.8	
863.75	2881.5	
863.91	3225.6	
864.08	5314.5	
864.25	5067.4	
864.42	3449.5	
864.59	3846.1	
864.76	5582.8	
864.93	4404.5	
865.09	2808.4	
865.26	3018.7	
865.43	5245.5	
865.6	5522	
865.77	2498.5	
865.94	2800.9	
866.1	5279.7	
866.27	5076.9	
866.44	4138.3	
866.61	2712.9	
866.78	4699.4	
866.95	4988.2	
867.11	2715.6	
867.28	2532	
867.45	5229.1	
867.62	4405.2	
867.79	3231	
867.96	2816	
868.12	4412	
868.29	5173.9	
868.46	2811.2	
868.63	3667.2	
868.8	5177.9	
868.97	5055.8	
869.13	2956.6	
869.3	2921.8	
869.47	4957.4	
869.64	5169.1	
869.81	2854.2	
869.97	2807.8	
870.14	4881.7	
870.31	5319.9	
870.48	2729.3	
870.65	3482.9	
870.81	4661.9	
870.98	4704.9	
871.15	3080.1	
871.32	2877.4	
871.48	4958.8	
871.65	5393	
871.82	2798.9	
871.99	3056.3	
872.16	5782.8	
872.32	5272.2	
872.49	2870.6	
872.66	2873.3	
872.83	5076.9	
872.99	4532.8	
873.16	3160	
873.33	2812.5	
873.5	4793.6	
873.67	4889.9	
873.83	2992.1	
874	3668.6	
874.17	4899.4	
874.34	5616.9	
874.5	3635.1	
874.67	3412.6	
874.84	5281	
875.01	4293.2	
875.17	3865.2	
875.34	2827.6	
875.51	4847.5	
875.68	5772.5	
875.84	3330.7	
876.01	3973.7	
876.18	5025	
876.34	4958.1	
876.51	2826.9	
876.68	2787.3	
876.85	4604.5	
877.01	5304.2	
877.18	3926	
877.35	2743.6	
877.52	4857.8	
877.68	4332.1	
877.85	2764.8	
878.02	2802.3	
878.18	4691.9	
878.35	4544.4	
878.52	2284.9	
878.69	3098.6	
878.85	5158.2	
879.02	5018.9	
879.19	3934.8	
879.35	2978.4	
879.52	5108.3	
879.69	5118.6	
879.86	2517	
880.02	3145	
880.19	4764.3	
880.36	5582.8	
880.52	3188	
880.69	3274	
880.86	5154.7	
881.02	5124.7	
881.19	3077.4	
881.36	3043.3	
881.52	5012.1	
881.69	4498.7	
881.86	3013.9	
882.02	2996.2	
882.19	5257.1	
882.36	5962.3	
882.52	2854.9	
882.69	3852.9	
882.86	4874.8	
883.02	4840.7	
883.19	3374.4	
883.36	3186	
883.52	5182	
883.69	5748.6	
883.86	2817.3	
884.02	2590.7	
884.19	5091.9	
884.36	4775.2	
884.52	3130.7	
884.69	3031.7	
884.86	4564.9	
885.02	5441.5	
885.19	3098.6	
885.36	3181.2	
885.52	4723.3	
885.69	4945.2	
885.86	4031.1	
886.02	3532.7	
886.19	5096	
886.35	4649.6	
886.52	3125.9	
886.69	3861.8	
886.85	4361.5	
887.02	5328.1	
887.19	5328.1	
887.35	5328.1	
887.52	5328.1	
887.68	5328.1	
887.85	5328.1	
888.02	5328.1	
888.18	5328.1	
888.35	5328.1	
888.51	5328.1	
888.68	5328.1	
888.85	5328.1	
889.01	5328.1	
889.18	5328.1	
889.35	5328.1	
889.51	5328.1	
889.68	5328.1	
889.84	5328.1	
890.01	5328.1	
890.17	5328.1	
890.34	5328.1	
890.51	5328.1	
890.67	5328.1	
890.84	5328.1	
891	5328.1	
891.17	5328.1	
891.34	5328.1	
891.5	5328.1	
891.67	5328.1	
891.83	5328.1	
892	5328.1	
892.16	5328.1	
892.33	5328.1	
892.5	5328.1	
892.66	5328.1	
892.83	5328.1	
892.99	5328.1	
893.16	5328.1	
893.32	5328.1	
893.49	5328.1	
893.65	5328.1	
893.82	5328.1	
893.99	5328.1	
894.15	5328.1	
894.32	5328.1	
894.48	5328.1	
894.65	5328.1	
894.81	5328.1	
894.98	5328.1	
895.14	5328.1	
895.31	5328.1	
895.47	5328.1	
895.64	5328.1	
895.81	5328.1	
895.97	5328.1	
896.14	5328.1	
896.3	5328.1	
896.47	5328.1	
896.63	5328.1	
896.8	5328.1	
896.96	5328.1	
897.13	5328.1	
897.29	5328.1	
897.46	5328.1	
897.62	5328.1	
897.79	5328.1	
897.95	5328.1	
898.12	5328.1	
898.28	5328.1	
898.45	5328.1	
898.61	5328.1	
898.78	5328.1	
898.94	5328.1	
899.11	5328.1	
899.27	5328.1	
899.44	5328.1	
899.6	5328.1	
899.77	5328.1	
899.93	5328.1	
900.1	5328.1	
900.26	5328.1	
900.43	5328.1	
900.59	5328.1	
900.76	5328.1	
900.92	5328.1	
901.09	5328.1	
901.25	5328.1	
901.42	5328.1	
901.58	5328.1	
901.75	5328.1	
901.91	5328.1	
902.07	5328.1	
902.24	5328.1	
902.4	5328.1	
902.57	5328.1	
902.73	5328.1	
902.9	5328.1	
903.06	5328.1	
903.23	5328.1	
903.39	5328.1	
903.56	5328.1	
903.72	5328.1	
903.88	5328.1	
904.05	5328.1	
904.21	5328.1	
904.38	5328.1	
904.54	5328.1	
904.71	5328.1	
904.87	5328.1	
905.03	5328.1	
905.2	5328.1	
905.36	5328.1	
905.53	5328.1	
905.69	5328.1	
905.86	5328.1	
906.02	5328.1	
906.18	5328.1	
906.35	5328.1	
906.51	5328.1	
906.68	5328.1	
906.84	5328.1	
907.01	5328.1	
907.17	5328.1	
907.33	5328.1	
907.5	5328.1	
907.66	5328.1	
907.83	5328.1	
907.99	5328.1	
908.15	5328.1	
908.32	5328.1	
908.48	5328.1	
908.65	5328.1	
908.81	5328.1	
908.97	5328.1	
909.14	5328.1	
909.3	5328.1	
909.47	5328.1	
909.63	5328.1	
909.79	5328.1	
909.96	5328.1	
910.12	5328.1	
910.28	5328.1	
910.45	5328.1	
910.61	5328.1	
910.78	5328.1	
910.94	5328.1	
911.1	5328.1	
911.27	5328.1	
911.43	5328.1	
911.59	5328.1	
911.76	5328.1	
911.92	5328.1	
912.08	5328.1	
912.25	5328.1	
912.41	5328.1	
912.57	5328.1	
912.74	5328.1	
912.9	5328.1	
913.07	5328.1	
913.23	5328.1	
913.39	5328.1	
913.56	5328.1	
913.72	5328.1	
913.88	5328.1	
914.05	5328.1	
914.21	5328.1	
914.37	5328.1	
914.54	5328.1	
914.7	5328.1	
914.86	5328.1	
915.03	5328.1	
915.19	5328.1	
