Wavelength	Intensities	
nm	a.u.	
179.22	1628	
179.44	1638.7	
179.65	1617.2	
179.86	1660.2	
180.08	1637	
180.29	3656.3	
180.51	2919.7	
180.72	4826.4	
180.94	5269.4	
181.15	2611.2	
181.37	2650.1	
181.58	4608.6	
181.79	4815.5	
182.01	2686.9	
182.22	2796.2	
182.44	4818.2	
182.65	4240	
182.87	3368.9	
183.08	3039.2	
183.29	5096	
183.51	4270	
183.72	2779.1	
183.94	3858.4	
184.15	4571.1	
184.37	4456.4	
184.58	2519.7	
184.79	3295.2	
185.01	4346.5	
185.22	4943.8	
185.44	3409.9	
185.65	3003.7	
185.86	4590.2	
186.08	4209.9	
186.29	2510.1	
186.51	2640.5	
186.72	4331.5	
186.94	4951.3	
187.15	3033.7	
187.36	3081.5	
187.58	6044.9	
187.79	4641.4	
188.01	3164.8	
188.22	4664.6	
188.43	5356.8	
188.65	4830.5	
188.86	2676.7	
189.08	3077.4	
189.29	4360.1	
189.5	4414.7	
189.72	2852.1	
189.93	2904.7	
190.15	4970.4	
190.36	5611.4	
190.57	3136.1	
190.79	2939.5	
191	4889.2	
191.22	4926.7	
191.43	3177.8	
191.64	2705.4	
191.86	5098.8	
192.07	4913.8	
192.29	2740.9	
192.5	2812.5	
192.71	4944.5	
192.93	4385.4	
193.14	2819.4	
193.35	2981.2	
193.57	4405.9	
193.78	5050.3	
194	2395.4	
194.21	2782.5	
194.42	4242	
194.64	4602.5	
194.85	3037.8	
195.07	3454.9	
195.28	4551.3	
195.49	4089.8	
195.71	3637.9	
195.92	2681.5	
196.13	4723.3	
196.35	4756.1	
196.56	3868.6	
196.78	3053.5	
196.99	5626.5	
197.2	5259.9	
197.42	3389.4	
197.63	3134.1	
197.84	4170.3	
198.06	4731.5	
198.27	2888.3	
198.48	3669.3	
198.7	4368.3	
198.91	4562.2	
199.13	3052.2	
199.34	3085.6	
199.55	4938.3	
199.77	3992.2	
199.98	2757.2	
200.19	3080.1	
200.41	4557.4	
200.62	4285	
200.83	3190.7	
201.05	3419.4	
201.26	4526	
201.47	4362.2	
201.69	2766.1	
201.9	2727.2	
202.11	4606.6	
202.33	5195.7	
202.54	2915.6	
202.76	3224.9	
202.97	4569.7	
203.18	4674.8	
203.4	3130	
203.61	3194.8	
203.82	4588.8	
204.04	4308.9	
204.25	3104	
204.46	3085.6	
204.68	4530.8	
204.89	4700.8	
205.1	2996.2	
205.32	2622.1	
205.53	4771.1	
205.74	4951.3	
205.96	2394.1	
206.17	3126.6	
206.38	4788.2	
206.6	4873.5	
206.81	3484.3	
207.02	2911.5	
207.24	4721.9	
207.45	4936.3	
207.66	2938.8	
207.88	2599.6	
208.09	4729.4	
208.3	4532.2	
208.52	2787.3	
208.73	3005.1	
208.94	4539	
209.15	4968.4	
209.37	2922.5	
209.58	3026.2	
209.79	4889.2	
210.01	4440.7	
210.22	2504	
210.43	2556.5	
210.65	4506.9	
210.86	4801.1	
211.07	2936.1	
211.29	2706.7	
211.5	4721.3	
211.71	4489.1	
211.93	2750.4	
212.14	2760.7	
212.35	4488.5	
212.56	4547.9	
212.78	3097.2	
212.99	2622.1	
213.2	5188.2	
213.42	4423.6	
213.63	2843.9	
213.84	2941.6	
214.06	4173.1	
214.27	4212.7	
214.48	2900.6	
214.69	3114.3	
214.91	5023	
215.12	5032.5	
215.33	3136.1	
215.55	3349.8	
215.76	5378.6	
215.97	4741.7	
216.18	3036.5	
216.4	3020.1	
216.61	4357.4	
216.82	4870.8	
217.04	2718.3	
217.25	2830.3	
217.46	4960.2	
217.67	4827.7	
217.89	2541.5	
218.1	2600.9	
218.31	4578.6	
218.53	4654.4	
218.74	2913.6	
218.95	2774.3	
219.16	4507.6	
219.38	5148.6	
219.59	2761.3	
219.8	3241.9	
220.01	5496.1	
220.23	4613.4	
220.44	3407.1	
220.65	2704.7	
220.87	4662.5	
221.08	4956.1	
221.29	2636.4	
221.5	3323.2	
221.72	5788.2	
221.93	4340.3	
222.14	3087	
222.35	3566.2	
222.57	4565.6	
222.78	4870.8	
222.99	2988	
223.2	3084.2	
223.42	4782.7	
223.63	4813.4	
223.84	2383.2	
224.05	2408.4	
224.27	5408	
224.48	5151.3	
224.69	3562.8	
224.9	3118.4	
225.12	4739	
225.33	4448.9	
225.54	2560	
225.75	2783.2	
225.97	4289.8	
226.18	4512.4	
226.39	2925.9	
226.6	2805	
226.82	4381.3	
227.03	4274.8	
227.24	3063.8	
227.45	2631	
227.67	4842.8	
227.88	5071.5	
228.09	3366.9	
228.3	3355.3	
228.52	4801.8	
228.73	4521.2	
228.94	2921.8	
229.15	2632.3	
229.36	4539	
229.58	4476.9	
229.79	2916.3	
230	3327.9	
230.21	5405.3	
230.43	4544.4	
230.64	3033	
230.85	3177.1	
231.06	4908.3	
231.28	4861.2	
231.49	2627.5	
231.7	3061.7	
231.91	4805.2	
232.12	4574.5	
232.34	2681.5	
232.55	2944.3	
232.76	4984.1	
232.97	4625	
233.18	2742.9	
233.4	3045.3	
233.61	4615.4	
233.82	4354.7	
234.03	2910.2	
234.25	2878.8	
234.46	5892	
234.67	4551.3	
234.88	3101.3	
235.09	2840.5	
235.31	4685.8	
235.52	4441.4	
235.73	3028.9	
235.94	2669.2	
236.15	4400.4	
236.37	5281	
236.58	2766.8	
236.79	2931.3	
237	4768.4	
237.21	4162.8	
237.43	3142.9	
237.64	2612.5	
237.85	7240.9	
238.06	4297.3	
238.27	3156.6	
238.48	2702	
238.7	4769.7	
238.91	4488.5	
239.12	2964.1	
239.33	3072.6	
239.54	4326	
239.76	4459.8	
239.97	2930.6	
240.18	2936.8	
240.39	5276.9	
240.6	4692.6	
240.82	3130	
241.03	2623.4	
241.24	4506.2	
241.45	5071.5	
241.66	2723.1	
241.87	3170.9	
242.09	5045.5	
242.3	5285.8	
242.51	3152.5	
242.72	2942.9	
242.93	4801.8	
243.14	4527.4	
243.36	3411.9	
243.57	3624.2	
243.78	5099.4	
243.99	4793.6	
244.2	3002.3	
244.41	2719	
244.63	4178.5	
244.84	4735.6	
245.05	3142.3	
245.26	2915.6	
245.47	4771.8	
245.68	4830.5	
245.9	3755.3	
246.11	3130	
246.32	4351.3	
246.53	4726.7	
246.74	4556	
246.95	2549.7	
247.16	4319.8	
247.38	4564.2	
247.59	2628.2	
247.8	2996.9	
248.01	4230.4	
248.22	4496	
248.43	2752.5	
248.64	2946.3	
248.86	4219.5	
249.07	4450.9	
249.28	2710.8	
249.49	3031.7	
249.7	4914.4	
249.91	4992.9	
250.12	2604.3	
250.34	2612.5	
250.55	4696.7	
250.76	4547.2	
250.97	3106.1	
251.18	3075.4	
251.39	4875.5	
251.6	4617.5	
251.81	3078.8	
252.03	3040.6	
252.24	4413.4	
252.45	4821.6	
252.66	2649.4	
252.87	3239.2	
253.08	4539.7	
253.29	5738.4	
253.5	2672.6	
253.72	3491.8	
253.93	4491.2	
254.14	5197.7	
254.35	2878.1	
254.56	2940.2	
254.77	4676.2	
254.98	4258.4	
255.19	2867.2	
255.41	3467.2	
255.62	4654.4	
255.83	5007.3	
256.04	3179.8	
256.25	3007.1	
256.46	5298.8	
256.67	4321.2	
256.88	3066.5	
257.09	3360	
257.31	4272.1	
257.52	4296	
257.73	3798.3	
257.94	2863.7	
258.15	4494.6	
258.36	4523.3	
258.57	3483.6	
258.78	2322.4	
258.99	4878.3	
259.2	4401.1	
259.41	2839.8	
259.63	2955.2	
259.84	5094.7	
260.05	5281.7	
260.26	3586	
260.47	2796.2	
260.68	4941.7	
260.89	4429.1	
261.1	3357.3	
261.31	2735.4	
261.52	5027.8	
261.73	5169.1	
261.95	3546.4	
262.16	3140.9	
262.37	4949.3	
262.58	5108.3	
262.79	3562.1	
263	2891	
263.21	4575.2	
263.42	4177.2	
263.63	3134.1	
263.84	2884.2	
264.05	4861.2	
264.26	5102.2	
264.47	3432.4	
264.69	3196.9	
264.9	5091.3	
265.11	4662.5	
265.32	2764.1	
265.53	2803	
265.74	4651.6	
265.95	4119.1	
266.16	2981.8	
266.37	3266.5	
266.58	4627	
266.79	4371.7	
267	2874.7	
267.21	2695.8	
267.42	4225	
267.63	4498.7	
267.84	2994.1	
268.06	2622.1	
268.27	4866.7	
268.48	4983.4	
268.69	2953.9	
268.9	3383.9	
269.11	5012.7	
269.32	4177.2	
269.53	2909.5	
269.74	2795.5	
269.95	4691.2	
270.16	4147.1	
270.37	3015.3	
270.58	3355.9	
270.79	4464.6	
271	4889.9	
271.21	3074.7	
271.42	2967.5	
271.63	4773.1	
271.84	4246.8	
272.05	2476	
272.26	2738.8	
272.47	4573.1	
272.68	4681	
272.89	2934.1	
273.11	3232.4	
273.32	4351.3	
273.53	5089.9	
273.74	3143.6	
273.95	3088.3	
274.16	4849.6	
274.37	4504.2	
274.58	3307.5	
274.79	2678.1	
275	4691.9	
275.21	4916.5	
275.42	3839.9	
275.63	3273.3	
275.84	4738.3	
276.05	5666.7	
276.26	3108.8	
276.47	2881.5	
276.68	4532.2	
276.89	5244.8	
277.1	3240.6	
277.31	2627.5	
277.52	4708.3	
277.73	4986.8	
277.94	2605	
278.15	2843.3	
278.36	4691.9	
278.57	4340.3	
278.78	2893.1	
278.99	3171.6	
279.2	4377.9	
279.41	4270.7	
279.62	3666.5	
279.83	2697.2	
280.04	5371.8	
280.25	4256.4	
280.46	3664.5	
280.67	2950.4	
280.88	4306.2	
281.09	4924	
281.3	3118.4	
281.51	3808.5	
281.72	4367.6	
281.93	4827.1	
282.14	2800.3	
282.35	2994.8	
282.56	4922	
282.77	4856.4	
282.98	2921.8	
283.19	3418.1	
283.4	5717.9	
283.61	4500.1	
283.82	2754.5	
284.03	3549.1	
284.24	4693.9	
284.45	4937	
284.66	3603.1	
284.87	3403.7	
285.08	4960.2	
285.29	5093.3	
285.5	2650.8	
285.71	2890.4	
285.92	4887.1	
286.12	5354.8	
286.33	3556.6	
286.54	2930	
286.75	4814.8	
286.96	4429.1	
287.17	2752.5	
287.38	3475.4	
287.59	4349.2	
287.8	4361.5	
288.01	2928.6	
288.22	3173.7	
288.43	4818.9	
288.64	4160.8	
288.85	3362.8	
289.06	3244	
289.27	4852.3	
289.48	5107	
289.69	3599	
289.9	3248.1	
290.11	5039.4	
290.32	4437.9	
290.53	3390.8	
290.74	3153.9	
290.94	4855.7	
291.15	4877.6	
291.36	2887	
291.57	3228.3	
291.78	4384.7	
291.99	4128.7	
292.2	2747	
292.41	3125.2	
292.62	4926.7	
292.83	4815.5	
293.04	3771.7	
293.25	2785.2	
293.46	4462.5	
293.67	4913.1	
293.88	2809.1	
294.09	2772.9	
294.29	4283	
294.5	4583.4	
294.71	3024.2	
294.92	2843.3	
295.13	4434.5	
295.34	5318.6	
295.55	2618.7	
295.76	2548.4	
295.97	4870.1	
296.18	5346.6	
296.39	2658.9	
296.6	2873.3	
296.81	4601.1	
297.01	4816.1	
297.22	2932.7	
297.43	2856.9	
297.64	4427	
297.85	4274.8	
298.06	2428.9	
298.27	2594.8	
298.48	4492.6	
298.69	4351.3	
298.9	3011.2	
299.11	2806.4	
299.31	4271.4	
299.52	4236.6	
299.73	3194.8	
299.94	3123.2	
300.15	4598.4	
300.36	4358.8	
300.57	3151.8	
300.78	3087	
300.99	4432.5	
301.2	4583.4	
301.4	2889.7	
301.61	2992.1	
301.82	4749.9	
302.03	4856.4	
302.24	3306.1	
302.45	2703.3	
302.66	4775.2	
302.87	5018.9	
303.08	2863.1	
303.29	3691.8	
303.49	4400.4	
303.7	4510.3	
303.91	2622.8	
304.12	3544.4	
304.33	4181.3	
304.54	4639.3	
304.75	2784.6	
304.96	2775	
305.16	4780	
305.37	5208.7	
305.58	2542.2	
305.79	2625.5	
306	4819.6	
306.21	4158.1	
306.42	2802.3	
306.63	4012	
306.83	4490.5	
307.04	4831.2	
307.25	3050.1	
307.46	2957.3	
307.67	4105.5	
307.88	4789.5	
308.09	2841.2	
308.29	2836.4	
308.5	4573.8	
308.71	4833.2	
308.92	3020.1	
309.13	2723.8	
309.34	4547.9	
309.55	4533.5	
309.75	3467.9	
309.96	3104.7	
310.17	4848.9	
310.38	4275.5	
310.59	3213.9	
310.8	3147	
311.01	4421.6	
311.21	4500.1	
311.42	2741.5	
311.63	2794.1	
311.84	4414.1	
312.05	4575.2	
312.26	3104.7	
312.46	3347.1	
312.67	4399	
312.88	4243.4	
313.09	2704	
313.3	2727.2	
313.51	5031.2	
313.71	5329.5	
313.92	2760	
314.13	2853.5	
314.34	4702.1	
314.55	4519.2	
314.76	3381.2	
314.96	2972.3	
315.17	4672.8	
315.38	4757.4	
315.59	2784.6	
315.8	2632.3	
316.01	5104.9	
316.21	5188.9	
316.42	2704.7	
316.63	3011.2	
316.84	4413.4	
317.05	4934.9	
317.26	3184.6	
317.46	2867.2	
317.67	4512.4	
317.88	4777.2	
318.09	3334.8	
318.3	2596.8	
318.5	4385.4	
318.71	4723.3	
318.92	4140.3	
319.13	3219.4	
319.34	4880.3	
319.54	4944.5	
319.75	2585.9	
319.96	2465.1	
320.17	4776.5	
320.38	4936.3	
320.58	2572.9	
320.79	2962	
321	4913.1	
321.21	4997	
321.42	3023.5	
321.62	2587.9	
321.83	4346.5	
322.04	4524	
322.25	2968.9	
322.46	2789.3	
322.66	4608.6	
322.87	4771.8	
323.08	3259	
323.29	2672.6	
323.5	5326.1	
323.7	4191.5	
323.91	3540.9	
324.12	3275.4	
324.33	4655.7	
324.53	4756.1	
324.74	3105.4	
324.95	3307.5	
325.16	4227.7	
325.37	4419.5	
325.57	2716.3	
325.78	2827.6	
325.99	4642.1	
326.2	4205.2	
326.4	3753.9	
326.61	2585.2	
326.82	4502.1	
327.03	4579.3	
327.24	3707.5	
327.44	3489.7	
327.65	4713.1	
327.86	3990.1	
328.07	3180.5	
328.27	2700.6	
328.48	5053.7	
328.69	4209.3	
328.9	3685.7	
329.1	2889	
329.31	4496.7	
329.52	5068.7	
329.73	2831	
329.93	2968.2	
330.14	4599.7	
330.35	4655.7	
330.56	4166.9	
330.76	3312.9	
330.97	4433.2	
331.18	4604.5	
331.39	3051.5	
331.59	2544.3	
331.8	4962.2	
332.01	4996.4	
332.22	2859	
332.42	3093.1	
332.63	4641.4	
332.84	4283.7	
333.05	3005.7	
333.25	2777.7	
333.46	4377.2	
333.67	4474.8	
333.88	2868.5	
334.08	3097.9	
334.29	5722	
334.5	4947.2	
334.7	2699.2	
334.91	3678.2	
335.12	4213.4	
335.33	4835.3	
335.53	3035.8	
335.74	4149.2	
335.95	4461.8	
336.16	4225.6	
336.36	2924.5	
336.57	3356.6	
336.78	4201.7	
336.98	4936.3	
337.19	3594.2	
337.4	2909.5	
337.61	5283.8	
337.81	4213.4	
338.02	2816.6	
338.23	3444	
338.43	5047.6	
338.64	4362.9	
338.85	2784.6	
339.05	3512.9	
339.26	5150	
339.47	4192.2	
339.68	2753.2	
339.88	3786.7	
340.09	4761.5	
340.3	4865.3	
340.5	3123.2	
340.71	2522.4	
340.92	4217.5	
341.13	4997	
341.33	2654.9	
341.54	3151.8	
341.75	4762.2	
341.95	4388.1	
342.16	3026.9	
342.37	3280.2	
342.57	4270.7	
342.78	4468	
342.99	3274.7	
343.19	2555.9	
343.4	4813.4	
343.61	4686.4	
343.81	2891.7	
344.02	2660.3	
344.23	4810	
344.43	5026.4	
344.64	3342.3	
344.85	3280.2	
345.06	4750.6	
345.26	4895.3	
345.47	3145	
345.68	3541.6	
345.88	4166.9	
346.09	4878.3	
346.3	3150.5	
346.5	2437.8	
346.71	4467.3	
346.92	4349.9	
347.12	2643.2	
347.33	3059	
347.54	4936.3	
347.74	5140.4	
347.95	3084.9	
348.16	2449.4	
348.36	4388.1	
348.57	4206.5	
348.78	3117.7	
348.98	3288.4	
349.19	4500.1	
349.39	4124.6	
349.6	2624.1	
349.81	2811.9	
350.01	4715.1	
350.22	4338.3	
350.43	3069.9	
350.63	3510.2	
350.84	4560.8	
351.05	4382.7	
351.25	2790	
351.46	2611.8	
351.67	4851.6	
351.87	4366.3	
352.08	2921.1	
352.29	3246	
352.49	4809.3	
352.7	4588.8	
352.9	2676.7	
353.11	3241.3	
353.32	5239.4	
353.52	4431.1	
353.73	2725.2	
353.94	3290.4	
354.14	4678.2	
354.35	4511.7	
354.55	2765.4	
354.76	3016.7	
354.97	4676.9	
355.17	4452.3	
355.38	2689.7	
355.59	3464.5	
355.79	4278.9	
356	4519.9	
356.2	2996.2	
356.41	2695.1	
356.62	4164.2	
356.82	4400.4	
357.03	3207.8	
357.24	2901.3	
357.44	4226.3	
357.65	4379.2	
357.85	3663.8	
358.06	3048.7	
358.27	4122.6	
358.47	4169	
358.68	2648	
358.88	3111.5	
359.09	4657.8	
359.3	4844.1	
359.5	3577.1	
359.71	3210.5	
359.91	5094.7	
360.12	4687.1	
360.33	3132	
360.53	3471.3	
360.74	4308.2	
360.94	4341.7	
361.15	3285.6	
361.36	2792.1	
361.56	4889.9	
361.77	4468.7	
361.97	3632.4	
362.18	2927.9	
362.38	4792.9	
362.59	4208.6	
362.8	2737.5	
363	2670.6	
363.21	3996.3	
363.41	4493.9	
363.62	3072	
363.83	3617.4	
364.03	4666	
364.24	5049.6	
364.44	3805.1	
364.65	3754.6	
364.85	4424.3	
365.06	4274.8	
365.27	2831.7	
365.47	2869.9	
365.68	5102.2	
365.88	4399.7	
366.09	3117.7	
366.29	2859	
366.5	4506.9	
366.71	4769	
366.91	3720.5	
367.12	3242.6	
367.32	5269.4	
367.53	4727.4	
367.73	3156.6	
367.94	3777.1	
368.14	4687.8	
368.35	5193.6	
368.56	3065.8	
368.76	3014.6	
368.97	4823.6	
369.17	5730.2	
369.38	2871.3	
369.58	2996.2	
369.79	4115.7	
369.99	5052.3	
370.2	3654.9	
370.4	3077.4	
370.61	4551.3	
370.82	5433.9	
371.02	3029.6	
371.23	2594.8	
371.43	4144.4	
371.64	5032.5	
371.84	2992.8	
372.05	3705.5	
372.25	5705	
372.46	4618.2	
372.66	3001	
372.87	2983.9	
373.07	4713.7	
373.28	5766.4	
373.48	3639.2	
373.69	3453.6	
373.9	4461.2	
374.1	4422.2	
374.31	3626.3	
374.51	3291.1	
374.72	4964.3	
374.92	4235.2	
375.13	3654.9	
375.33	3145	
375.54	4632.5	
375.74	4345.1	
375.95	3256.3	
376.15	3988.8	
376.36	4738.3	
376.56	4612.7	
376.77	3231	
376.97	3492.5	
377.18	5408	
377.38	4764.9	
377.59	3652.2	
377.79	2971.6	
378	4552	
378.2	4823.6	
378.41	2947.7	
378.61	2919	
378.82	4916.5	
379.02	4352.6	
379.23	3050.8	
379.43	3748.5	
379.64	5051	
379.84	4655.7	
380.05	2962.7	
380.25	2896.5	
380.46	4772.4	
380.66	4464.6	
380.87	3770.3	
381.07	4058.4	
381.28	5181.4	
381.48	4715.8	
381.69	2964.1	
381.89	2965.5	
382.1	4173.8	
382.3	4798.4	
382.51	3659	
382.71	4227.7	
382.91	4689.8	
383.12	5070.1	
383.32	3187.3	
383.53	3348.4	
383.73	4649.6	
383.94	4551.3	
384.14	3340.2	
384.35	2732.7	
384.55	4406.5	
384.76	4775.9	
384.96	3215.3	
385.17	3419.4	
385.37	4760.2	
385.58	4249.5	
385.78	3371	
385.98	2747.7	
386.19	4431.8	
386.39	4739	
386.6	3087	
386.8	3156.6	
387.01	4744.5	
387.21	4831.8	
387.42	3510.2	
387.62	3760.1	
387.83	4388.1	
388.03	4557.4	
388.23	3230.3	
388.44	3722.5	
388.64	4199.7	
388.85	4169.7	
389.05	3398.3	
389.26	3771.7	
389.46	5569.8	
389.67	5028.4	
389.87	3451.5	
390.07	3448.8	
390.28	4483	
390.48	4181.3	
390.69	2929.3	
390.89	3132.7	
391.1	4410	
391.3	4917.9	
391.5	3896.6	
391.71	4330.8	
391.91	4801.1	
392.12	5310.4	
392.32	3985.3	
392.53	3458.3	
392.73	4433.9	
392.93	4544.4	
393.14	3212.6	
393.34	3731.4	
393.55	4833.2	
393.75	4490.5	
393.95	3271.3	
394.16	3211.2	
394.36	4392.2	
394.57	4871.4	
394.77	2947	
394.98	3121.1	
395.18	4288.4	
395.38	4470.7	
395.59	3756.7	
395.79	3028.9	
396	4443.4	
396.2	4776.5	
396.4	3569.6	
396.61	3500	
396.81	4834.6	
397.02	4326.7	
397.22	3711.6	
397.42	3728	
397.63	4849.6	
397.83	4332.8	
398.04	3017.3	
398.24	3313.6	
398.44	4707.6	
398.65	4079.6	
398.85	2891.7	
399.05	2923.8	
399.26	4328	
399.46	5400.5	
399.67	3172.3	
399.87	3048.1	
400.07	4607.9	
400.28	4757.4	
400.48	3087	
400.69	3697.3	
400.89	4829.1	
401.09	5206.6	
401.3	3040.6	
401.5	3693.2	
401.7	5221.6	
401.91	5455.1	
402.11	3300	
402.32	3430.3	
402.52	4958.8	
402.72	4896.7	
402.93	3583.3	
403.13	2852.8	
403.33	5474.2	
403.54	4567.7	
403.74	3383.2	
403.94	3936.2	
404.15	4678.2	
404.35	5396.4	
404.56	3213.9	
404.76	4402.5	
404.96	4937	
405.17	4790.9	
405.37	3792.8	
405.57	3476.1	
405.78	4908.3	
405.98	4586.1	
406.18	3218	
406.39	3691.1	
406.59	4929.5	
406.79	4591.5	
407	3112.2	
407.2	3106.8	
407.4	5221	
407.61	5010	
407.81	3137.5	
408.01	4173.8	
408.22	4154.6	
408.42	5395	
408.62	3784.6	
408.83	3434.4	
409.03	4582	
409.23	4551.3	
409.44	3471.3	
409.64	3605.8	
409.84	5227.8	
410.05	5050.3	
410.25	3528	
410.45	3445.4	
410.66	4794.3	
410.86	6430.6	
411.06	3592.1	
411.27	3603.7	
411.47	6233.3	
411.67	4878.3	
411.88	3711.6	
412.08	3847.5	
412.28	5241.4	
412.49	5550	
412.69	3575.8	
412.89	3542.3	
413.09	5485.1	
413.3	5395.7	
413.5	3644.7	
413.7	3383.2	
413.91	4933.6	
414.11	5481	
414.31	3473.4	
414.52	3732.1	
414.72	5300.1	
414.92	5171.1	
415.12	3511.6	
415.33	3823.6	
415.53	5393.7	
415.73	5530.9	
415.94	4057.7	
416.14	3725.3	
416.34	4790.9	
416.55	4634.6	
416.75	4428.4	
416.95	4139.6	
417.15	5498.8	
417.36	5839.4	
417.56	4588.8	
417.76	3940.3	
417.97	5651.7	
418.17	5396.4	
418.37	3738.2	
418.57	3806.5	
418.78	5436.7	
418.98	5194.3	
419.18	4339	
419.38	4286.4	
419.59	5162.2	
419.79	4930.8	
419.99	3665.9	
420.2	3851.5	
420.4	5535.7	
420.6	5539.1	
420.8	3620.1	
421.01	3529.3	
421.21	5378.6	
421.41	5375.9	
421.61	3867.9	
421.82	3664.5	
422.02	5139.7	
422.22	5739.1	
422.42	4174.4	
422.63	4076.8	
422.83	5142.4	
423.03	5975.3	
423.23	3996.3	
423.44	3368.9	
423.64	5094.7	
423.84	4906.9	
424.04	3653.6	
424.25	3463.8	
424.45	5798.5	
424.65	5724.8	
424.85	3338.2	
425.06	3752.6	
425.26	5874.9	
425.46	5125.4	
425.66	4016.7	
425.87	3820.1	
426.07	5619.6	
426.27	5474.2	
426.47	3894.6	
426.67	3516.4	
426.88	5892	
427.08	5577.3	
427.28	4087.1	
427.48	3389.4	
427.69	4868.7	
427.89	5220.3	
428.09	3952.6	
428.29	3431.7	
428.5	5590.3	
428.7	5378	
428.9	3401.7	
429.1	3731.4	
429.3	5360.2	
429.51	5522.7	
429.71	3642.7	
429.91	4155.3	
430.11	5511.8	
430.31	5859.9	
430.52	3778.5	
430.72	3911.6	
430.92	5801.2	
431.12	5485.1	
431.32	3581.9	
431.53	3906.2	
431.73	4859.1	
431.93	5890	
432.13	3561.4	
432.33	3489.7	
432.54	5150	
432.74	5256.5	
432.94	3405.1	
433.14	4128	
433.34	5601.9	
433.55	5206.6	
433.75	4064.5	
433.95	5150.6	
434.15	5360.9	
434.35	5134.3	
434.56	3583.9	
434.76	3274	
434.96	5268.1	
435.16	5488.6	
435.36	3444	
435.56	4278.9	
435.77	5118.6	
435.97	5161.6	
436.17	4664.6	
436.37	4106.9	
436.57	5036.6	
436.78	5021.6	
436.98	5330.2	
437.18	4546.5	
437.38	5489.9	
437.58	5159.5	
437.78	4647.5	
437.99	3792.2	
438.19	5608.7	
438.39	6489.3	
438.59	3762.8	
438.79	3442.6	
438.99	5974.6	
439.2	5228.5	
439.4	3464.5	
439.6	3478.8	
439.8	5327.4	
440	5960.3	
440.2	4129.4	
440.4	4185.4	
440.61	5720	
440.81	5884.5	
441.01	3640.6	
441.21	4152.6	
441.41	5961.6	
441.61	5712.5	
441.81	4378.6	
442.02	4992.3	
442.22	6245.6	
442.42	5807.4	
442.62	3668.6	
442.82	3726.6	
443.02	6098.2	
443.22	5362.3	
443.43	3951.9	
443.63	3597.6	
443.83	5286.5	
444.03	5182.7	
444.23	4425.7	
444.43	4173.1	
444.63	5483.1	
444.83	6252.4	
445.04	3741.6	
445.24	4539.7	
445.44	5819	
445.64	5765.7	
445.84	4265.9	
446.04	4365.6	
446.24	5346.6	
446.44	5982.1	
446.65	3758	
446.85	3975.1	
447.05	5438	
447.25	5982.1	
447.45	4136.2	
447.65	3637.9	
447.85	5610.1	
448.05	5253	
448.25	4267.3	
448.46	4197.7	
448.66	5530.2	
448.86	5242.1	
449.06	3628.3	
449.26	4291.2	
449.46	5762.3	
449.66	5198.4	
449.86	4014	
450.06	3958.7	
450.26	5253.7	
450.47	5668.8	
450.67	4149.2	
450.87	4442.7	
451.07	5883.8	
451.27	5608	
451.47	3759.4	
451.67	4322.6	
451.87	5393.7	
452.07	6182.8	
452.27	3846.8	
452.47	3946.4	
452.67	5653.8	
452.88	5879.7	
453.08	3545.7	
453.28	4827.1	
453.48	6367.8	
453.68	5515.9	
453.88	3855	
454.08	3947.8	
454.28	5813.5	
454.48	5536.3	
454.68	4285.7	
454.88	4565.6	
455.08	5945.3	
455.28	5645.6	
455.48	3786.7	
455.68	4213.4	
455.89	6194.4	
456.09	5938.4	
456.29	4016.1	
456.49	4092.5	
456.69	6084.5	
456.89	5575.3	
457.09	4341	
457.29	4564.9	
457.49	5852.4	
457.69	5896.1	
457.89	4301.4	
458.09	3806.5	
458.29	5685.2	
458.49	6175.3	
458.69	4474.1	
458.89	4182	
459.09	6268.1	
459.29	6333.7	
459.49	4222.9	
459.69	4730.8	
459.9	6080.4	
460.1	5689.9	
460.3	4122.6	
460.5	3975.8	
460.7	5995.8	
460.9	5740.5	
461.1	3814	
461.3	4528.7	
461.5	6445.6	
461.7	6164.4	
461.9	4022.9	
462.1	4375.8	
462.3	5875.6	
462.5	6234.7	
462.7	4136.2	
462.9	4172.4	
463.1	6866.8	
463.3	6601.3	
463.5	4317.1	
463.7	4841.4	
463.9	6024.4	
464.1	6216.3	
464.3	4314.4	
464.5	4540.3	
464.7	6414.2	
464.9	6137.1	
465.1	5449	
465.3	4709	
465.5	6627.2	
465.7	6605.4	
465.9	4937.7	
466.1	4761.5	
466.3	6502.3	
466.5	6363	
466.7	5349.3	
466.9	4638.6	
467.1	6496.2	
467.3	6941.9	
467.5	5331.5	
467.7	4670.1	
467.9	7176.8	
468.1	7647.8	
468.3	5104.2	
468.5	5360.9	
468.7	6363	
468.9	6235.4	
469.1	4855.7	
469.3	5304.9	
469.5	7621.9	
469.7	6062	
469.9	5250.3	
470.1	4716.5	
470.3	6496.8	
470.5	6512.5	
470.7	5565.7	
470.9	4797	
471.1	6275.7	
471.3	6568.5	
471.5	4663.2	
471.69	5862.7	
471.89	6245.6	
472.09	5780.7	
472.29	5111.7	
472.49	5448.3	
472.69	6069.5	
472.89	6496.8	
473.09	4659.1	
473.29	4682.3	
473.49	6151.4	
473.69	6173.9	
473.89	5295.4	
474.09	4720.6	
474.29	7077.8	
474.49	6780.8	
474.69	5283.8	
474.89	4878.3	
475.09	6297.5	
475.29	6225.1	
475.49	4526	
475.69	4667.3	
475.88	7292.1	
476.08	6468.9	
476.28	4419.5	
476.48	4723.3	
476.68	6888	
476.88	6601.3	
477.08	4707.6	
477.28	4909	
477.48	6399.9	
477.68	6632	
477.88	4564.2	
478.08	4726	
478.28	6924.2	
478.48	6397.2	
478.67	4810.7	
478.87	4410.6	
479.07	6842.9	
479.27	6508.4	
479.47	4915.1	
479.67	5005.9	
479.87	6710.5	
480.07	7023.9	
480.27	4504.2	
480.47	5477	
480.67	6460.7	
480.87	6967.2	
481.06	4691.9	
481.26	5263.3	
481.46	6510.5	
481.66	6395.8	
481.86	5038	
482.06	5612.1	
482.26	6341.2	
482.46	6858	
482.66	4914.4	
482.86	4601.1	
483.05	6601.3	
483.25	6105.7	
483.45	6623.8	
483.65	4911.7	
483.85	6262.7	
484.05	6388.3	
484.25	5180	
484.45	5519.3	
484.65	6868.9	
484.84	7002	
485.04	4879.6	
485.24	4842.8	
485.44	7303.1	
485.64	6131.6	
485.84	4531.5	
486.04	5408	
486.24	6376	
486.44	6615.6	
486.63	4460.5	
486.83	5076.2	
487.03	6346	
487.23	6406.7	
487.43	4496.7	
487.63	6019	
487.83	6476.4	
488.02	6965.8	
488.22	5072.1	
488.42	5524.1	
488.62	7124.9	
488.82	6251.8	
489.02	4988.9	
489.22	4993.6	
489.41	7000.6	
489.61	6844.3	
489.81	4780	
490.01	4764.9	
490.21	6956.9	
490.41	7454.6	
490.61	4833.9	
490.8	4915.1	
491	6645	
491.2	6313.2	
491.4	5345.2	
491.6	4674.1	
491.8	6690.7	
491.99	6746.7	
492.19	4630.5	
492.39	4823.6	
492.59	6992.4	
492.79	7031.4	
492.99	5314.5	
493.18	4741	
493.38	7053.2	
493.58	7501	
493.78	5210	
493.98	4956.8	
494.18	6854.6	
494.37	6483.2	
494.57	5412.1	
494.77	5328.1	
494.97	7092.8	
495.17	7242.3	
495.37	5156.1	
495.56	5359.5	
495.76	7275.8	
495.96	7070.3	
496.16	5980.8	
496.36	5270.1	
496.55	7350.2	
496.75	6960.4	
496.95	5519.3	
497.15	5477	
497.35	7302.4	
497.54	7264.1	
497.74	5383.4	
497.94	6529.6	
498.14	7785.7	
498.34	7585	
498.53	5127.4	
498.73	5647.6	
498.93	6781.5	
499.13	7169.3	
499.33	5518.6	
499.52	5842.2	
499.72	7269.6	
499.92	7341.3	
500.12	5294.7	
500.32	5522.7	
500.51	7453.2	
500.71	7217	
500.91	5988.9	
501.11	5771.2	
501.31	7469.6	
501.5	7668.3	
501.7	6262	
501.9	5563	
502.1	7242.3	
502.29	7490.1	
502.49	5870.8	
502.69	6204.7	
502.89	7379.5	
503.09	7492.8	
503.28	5191.6	
503.48	5317.9	
503.68	7035.5	
503.88	6957.6	
504.07	5953.4	
504.27	5648.3	
504.47	7174	
504.67	7227.3	
504.86	5954.1	
505.06	5730.2	
505.26	7049.1	
505.46	8135.2	
505.65	5649.7	
505.85	5754.1	
506.05	7056.6	
506.25	7436.9	
506.44	5233.2	
506.64	5786.2	
506.84	6892.1	
507.04	7391.8	
507.23	5347.2	
507.43	5640.8	
507.63	8094.3	
507.83	6968.6	
508.02	5655.8	
508.22	5387.5	
508.42	8381.7	
508.62	6890	
508.81	5577.3	
509.01	5961	
509.21	6840.9	
509.4	7039.6	
509.6	5760.3	
509.8	5352	
510	7075.7	
510.19	7821.9	
510.39	5316.5	
510.59	5279.7	
510.79	6866.8	
510.98	7767.9	
511.18	5490.6	
511.38	5469.4	
511.57	7586.4	
511.77	7312.6	
511.97	5897.5	
512.17	5283.8	
512.36	7494.9	
512.56	7258.7	
512.76	5341.8	
512.95	5150.6	
513.15	7598.6	
513.35	6608.8	
513.55	5858.6	
513.74	5352	
513.94	7402.7	
514.14	6981.5	
514.33	5993.7	
514.53	5819	
514.73	7102.4	
514.92	7098.9	
515.12	5479.7	
515.32	5363.6	
515.51	7239.6	
515.71	7450.5	
515.91	6479.1	
516.11	5311.1	
516.3	8376.2	
516.5	6965.1	
516.7	5722	
516.89	6175.3	
517.09	7008.1	
517.29	7059.3	
517.48	6029.9	
517.68	5516.5	
517.88	6784.9	
518.07	7330.4	
518.27	5975.3	
518.47	5201.2	
518.66	7669.6	
518.86	6748.1	
519.06	5130.8	
519.25	5419.6	
519.45	7004.1	
519.65	7823.2	
519.84	5909.8	
520.04	6369.9	
520.24	8234.9	
520.43	7374.7	
520.63	5694	
520.83	5623.7	
521.02	6995.9	
521.22	7438.9	
521.42	5926.1	
521.61	6256.5	
521.81	7134.4	
522.01	7290.8	
522.2	5761.6	
522.4	5588.2	
522.6	7501.7	
522.79	6622.4	
522.99	5720.7	
523.18	5186.1	
523.38	7296.9	
523.58	7289.4	
523.77	6480.5	
523.97	5239.4	
524.17	8514.8	
524.36	7989.1	
524.56	6171.9	
524.76	5917.3	
524.95	7310.6	
525.15	7187.7	
525.34	5853.8	
525.54	5853.8	
525.74	7632.8	
525.93	7032.7	
526.13	6533.7	
526.33	5782.1	
526.52	8012.3	
526.72	7532.4	
526.91	6610.8	
527.11	6184.9	
527.31	7803.4	
527.5	8088.8	
527.7	6055.2	
527.89	5498.1	
528.09	7237.5	
528.29	7544.7	
528.48	6411.5	
528.68	6096.1	
528.87	7809.6	
529.07	7778.9	
529.27	6129.6	
529.46	5831.2	
529.66	7666.2	
529.85	7990.5	
530.05	5812.8	
530.25	6190.3	
530.44	8621.3	
530.64	7576.1	
530.83	6004.6	
531.03	6227.9	
531.23	7972.1	
531.42	7701	
531.62	6591	
531.81	6028.5	
532.01	8060.8	
532.21	8088.1	
532.4	5918.6	
532.6	6186.9	
532.79	8569.4	
532.99	8039.6	
533.18	6324.1	
533.38	6872.3	
533.58	7787.7	
533.77	8307.2	
533.97	6301.6	
534.16	6883.2	
534.36	8378.9	
534.55	7843.7	
534.75	6894.8	
534.95	6278.4	
535.14	8421.2	
535.34	7785	
535.53	6102.3	
535.73	7462.1	
535.92	8821.3	
536.12	7936.6	
536.31	6304.3	
536.51	7031.4	
536.71	8277.9	
536.9	7849.9	
537.1	6263.4	
537.29	6348.7	
537.49	8402.8	
537.68	7836.9	
537.88	6598.6	
538.07	6042.2	
538.27	7963.2	
538.46	8613.8	
538.66	6047	
538.86	6329.6	
539.05	8058.8	
539.25	8264.2	
539.44	6669.6	
539.64	6346.7	
539.83	7980.9	
540.03	8510	
540.22	6229.9	
540.42	6321.4	
540.61	8092.2	
540.81	8131.8	
541	6611.5	
541.2	7015	
541.39	7744.1	
541.59	7922.9	
541.78	6770.6	
541.98	6275.7	
542.18	7581.6	
542.37	7553.6	
542.57	6485.9	
542.76	6799.3	
542.96	7690.1	
543.15	8028	
543.35	6556.2	
543.54	6083.8	
543.74	8040.3	
543.93	7959.8	
544.13	6384.9	
544.32	7124.2	
544.52	8194.6	
544.71	7621.2	
544.91	5814.9	
545.1	6630	
545.3	7732.4	
545.49	8003.5	
545.69	5765.7	
545.88	6249	
546.08	8636.3	
546.27	8458.8	
546.47	6559	
546.66	6018.3	
546.86	8208.9	
547.05	8492.2	
547.24	6278.4	
547.44	6059.9	
547.63	7496.9	
547.83	8177.5	
548.02	6335.7	
548.22	6475	
548.41	7402.7	
548.61	8250.6	
548.8	6113.9	
549	6034	
549.19	7865.6	
549.39	8131.8	
549.58	5786.2	
549.78	6176.7	
549.97	8056.7	
550.17	7661.5	
550.36	6751.5	
550.55	7494.9	
550.75	7709.2	
550.94	8295.6	
551.14	6027.9	
551.33	6223.1	
551.53	7271.7	
551.72	7980.3	
551.92	6206	
552.11	6122.7	
552.31	8045.1	
552.5	7819.1	
552.69	7212.3	
552.89	5940.5	
553.08	7968	
553.28	7696.9	
553.47	6072.2	
553.67	6823.1	
553.86	8297.7	
554.06	7228.6	
554.25	5571.8	
554.44	5905.7	
554.64	8830.2	
554.83	8533.9	
555.03	5877	
555.22	6144.6	
555.42	8120.9	
555.61	7914.7	
555.8	6092.7	
556	6210.1	
556.19	7339.2	
556.39	8025.3	
556.58	6033.3	
556.78	6097.5	
556.97	7854	
557.16	7600.7	
557.36	6913.3	
557.55	5851	
557.75	7123.5	
557.94	8348.9	
558.13	5964.4	
558.33	5748	
558.52	8188.5	
558.72	7342.7	
558.91	5890.6	
559.1	5986.2	
559.3	7376.8	
559.49	7146	
559.69	5760.9	
559.88	6238.1	
560.07	7761.8	
560.27	8084	
560.46	6360.3	
560.66	6445	
560.85	7619.8	
561.04	7080.5	
561.24	5884.5	
561.43	5941.2	
561.63	7260	
561.82	7542.7	
562.01	6699.6	
562.21	6100.2	
562.4	7740	
562.59	8251.3	
562.79	6054.5	
562.98	5789.6	
563.18	7692.2	
563.37	8641.1	
563.56	6298.2	
563.76	5826.5	
563.95	7339.2	
564.14	7334.5	
564.34	6115.2	
564.53	5880.4	
564.73	7851.2	
564.92	7859.4	
565.11	6114.6	
565.31	5756.2	
565.5	8076.5	
565.69	7305.8	
565.89	6040.8	
566.08	6076.3	
566.27	7960.5	
566.47	8196.7	
566.66	6554.9	
566.85	5725.4	
567.05	7856.7	
567.24	7361.1	
567.44	5924.8	
567.63	6718	
567.82	7953.6	
568.02	7694.2	
568.21	5898.8	
568.4	6150.1	
568.6	7705.1	
568.79	7617.8	
568.98	5906.3	
569.18	5848.3	
569.37	7574.8	
569.56	8917.5	
569.76	6098.9	
569.95	6787	
570.14	8051.9	
570.34	7861.5	
570.53	5874.3	
570.72	5805.3	
570.91	8227.4	
571.11	7686	
571.3	6241.5	
571.49	6779.5	
571.69	7803.4	
571.88	7290.8	
572.07	6520	
572.27	6464.1	
572.46	7324.2	
572.65	8015.1	
572.85	6070.9	
573.04	6248.4	
573.23	8301.8	
573.43	7756.3	
573.62	5798.5	
573.81	6232	
574	7795.9	
574.2	7718.1	
574.39	6077	
574.58	6240.2	
574.78	8400.8	
574.97	7847.1	
575.16	6481.1	
575.36	6515.3	
575.55	8142.7	
575.74	8299.1	
575.93	5955.5	
576.13	6533.7	
576.32	7779.6	
576.51	8041.7	
576.71	6225.1	
576.9	7060.7	
577.09	8553	
577.28	8012.3	
577.48	6524.8	
577.67	5894.1	
577.86	7909.3	
578.05	8030.1	
578.25	6344.6	
578.44	6377.4	
578.63	7918.1	
578.83	8693.6	
579.02	5959.6	
579.21	6877.8	
579.4	8086.1	
579.6	7842.4	
579.79	6425.8	
579.98	7750.2	
580.17	8193.2	
580.37	8351.6	
580.56	6106.4	
580.75	6541.2	
580.94	8460.8	
581.14	8561.9	
581.33	6894.8	
581.52	6122.1	
581.71	8194.6	
581.91	8620.6	
582.1	6079.1	
582.29	6333	
582.48	7988.4	
582.68	7903.8	
582.87	6696.9	
583.06	6452.5	
583.25	8249.9	
583.45	7716.7	
583.64	6879.8	
583.83	7378.8	
584.02	8026.7	
584.21	8236.9	
584.41	6860	
584.6	6406	
584.79	8049.9	
584.98	8457.4	
585.18	6163	
585.37	6040.1	
585.56	7851.9	
585.75	8226.7	
585.94	6145.3	
586.14	6718.7	
586.33	8633.6	
586.52	7897.7	
586.71	6539.2	
586.91	6326.2	
587.1	7565.2	
587.29	8262.9	
587.48	6409.5	
587.67	6287.9	
587.87	8140.7	
588.06	8108.6	
588.25	7109.9	
588.44	6703.7	
588.63	7854.6	
588.83	8230.8	
589.02	6331.6	
589.21	6164.4	
589.4	7785	
589.59	7852.6	
589.78	5649	
589.98	5984.2	
590.17	7393.8	
590.36	7778.2	
590.55	5431.9	
590.74	5972.6	
590.94	8510.7	
591.13	7561.8	
591.32	5837.4	
591.51	5458.5	
591.7	7835.5	
591.89	7516.7	
592.09	5530.9	
592.28	5851.7	
592.47	6991.8	
592.66	8258.8	
592.85	5592.3	
593.05	5730.9	
593.24	7460.8	
593.43	7998	
593.62	5768.4	
593.81	6111.8	
594	7535.8	
594.19	7554.3	
594.39	5770.5	
594.58	5608	
594.77	7799.3	
594.96	8124.3	
595.15	5748.6	
595.34	6098.2	
595.54	7633.5	
595.73	7105.1	
595.92	5250.3	
596.11	6017.6	
596.3	7958.4	
596.49	7158.3	
596.68	5838.8	
596.88	6076.3	
597.07	7731.8	
597.26	7087.3	
597.45	5619.6	
597.64	6232	
597.83	7202.7	
598.02	7557.7	
598.22	5620.3	
598.41	5971.9	
598.6	7542	
598.79	7149.5	
598.98	5663.3	
599.17	6196.5	
599.36	7543.4	
599.55	8161.2	
599.74	6849.1	
599.94	6816.3	
600.13	7889.5	
600.32	7172.7	
600.51	5433.3	
600.7	5541.1	
600.89	8198	
601.08	8332.5	
601.27	5384.8	
601.47	5984.2	
601.66	7724.9	
601.85	8132.5	
602.04	5851.7	
602.23	5947.3	
602.42	7117.4	
602.61	7624.6	
602.8	5742.5	
602.99	5533.6	
603.18	7323.5	
603.37	7521.5	
603.57	5972.6	
603.76	6352.8	
603.95	7934.5	
604.14	7635.5	
604.33	5703.6	
604.52	5840.1	
604.71	7514	
604.9	7181.5	
605.09	6240.8	
605.28	6148	
605.47	7994.6	
605.66	7598	
605.86	5998.5	
606.05	5695.4	
606.24	7894.9	
606.43	6815	
606.62	5901.6	
606.81	6270.2	
607	7853.3	
607.19	7341.3	
607.38	5461.2	
607.57	5631.9	
607.76	7134.4	
607.95	6674.3	
608.14	5881.1	
608.33	6336.4	
608.52	7098.9	
608.72	7707.9	
608.91	5418.2	
609.1	5332.9	
609.29	7247.8	
609.48	6865.5	
609.67	5960.3	
609.86	5370.5	
610.05	7018.4	
610.24	7120.1	
610.43	5369.8	
610.62	5051.7	
610.81	7914.7	
611	7787.1	
611.19	5386.2	
611.38	5913.2	
611.57	7379.5	
611.76	8247.9	
611.95	5229.1	
612.14	5086.5	
612.33	7233.4	
612.52	6967.2	
612.71	5631.2	
612.9	5047.6	
613.09	6703	
613.28	8267.6	
613.47	5458.5	
613.66	6001.9	
613.85	7376.1	
614.04	6929.6	
614.24	5440.8	
614.43	4981.3	
614.62	7410.2	
614.81	7355.6	
615	5799.2	
615.19	5741.8	
615.38	6924.9	
615.57	7167.9	
615.76	5775.3	
615.95	6270.2	
616.14	7444.4	
616.33	7219.8	
616.52	5933.6	
616.71	6136.4	
616.9	7393.2	
617.09	7281.9	
617.28	5573.2	
617.47	6277.7	
617.66	6863.4	
617.85	6799.3	
618.04	5990.3	
618.22	5724.8	
618.41	6966.5	
618.6	7645.8	
618.79	5719.3	
618.98	5556.8	
619.17	7833.5	
619.36	6652.5	
619.55	5655.8	
619.74	5681.1	
619.93	7373.4	
620.12	6944.7	
620.31	6084.5	
620.5	6067.4	
620.69	7984.3	
620.88	8036.2	
621.07	6627.9	
621.26	6005.3	
621.45	7630.7	
621.64	7532.4	
621.83	6115.2	
622.02	5451.7	
622.21	7608.9	
622.4	7499	
622.59	6441.5	
622.78	6302.3	
622.97	7159	
623.16	7765.2	
623.35	6069.5	
623.54	5453.1	
623.72	7256.6	
623.91	7363.1	
624.1	6252.4	
624.29	5415.5	
624.48	8112	
624.67	7690.8	
624.86	6194.4	
625.05	5546.6	
625.24	8231.5	
625.43	7226.6	
625.62	7153.6	
625.81	5704.3	
626	7796.6	
626.19	7316.7	
626.38	6144.6	
626.56	5762.3	
626.75	7214.3	
626.94	7604.1	
627.13	6170.5	
627.32	5424.4	
627.51	7746.8	
627.7	8325.7	
627.89	5414.1	
628.08	6150.7	
628.27	7067.5	
628.46	7250.5	
628.65	5670.8	
628.83	5468.8	
629.02	7651.2	
629.21	7055.3	
629.4	5894.1	
629.59	6021.7	
629.78	7095.5	
629.97	7720.2	
630.16	5992.4	
630.35	5665.4	
630.54	8074.5	
630.72	7827.3	
630.91	5756.2	
631.1	6091.3	
631.29	7446.4	
631.48	7482.6	
631.67	6129.6	
631.86	5853.8	
632.05	7308.5	
632.24	7351.5	
632.42	5580.7	
632.61	5988.3	
632.8	7359.7	
632.99	6971.3	
633.18	5958.2	
633.37	6213.5	
633.56	7544	
633.75	7435.5	
633.93	6016.9	
634.12	5785.5	
634.31	8065.6	
634.5	7800	
634.69	5780.1	
634.88	6075.6	
635.07	7404.8	
635.25	7809.6	
635.44	6371.9	
635.63	6465.4	
635.82	7299	
636.01	6716.7	
636.2	6336.4	
636.39	6032.6	
636.57	8135.2	
636.76	7697.6	
636.95	5689.9	
637.14	6623.1	
637.33	7532.4	
637.52	8066.9	
637.7	5457.2	
637.89	6237.4	
638.08	7308.5	
638.27	8219.2	
638.46	6235.4	
638.65	6489.3	
638.83	8157.7	
639.02	7167.9	
639.21	6189	
639.4	6367.8	
639.59	7507.9	
639.78	7197.9	
639.96	5655.1	
640.15	5698.8	
640.34	7294.9	
640.53	7409.6	
640.72	5550.7	
640.91	5665.4	
641.09	6979.5	
641.28	7776.1	
641.47	5702.2	
641.66	6173.9	
641.85	7402	
642.03	7532.4	
642.22	5969.8	
642.41	5692	
642.6	7055.9	
642.79	6569.9	
642.97	5601.2	
643.16	6004.6	
643.35	6963.8	
643.54	6811.5	
643.73	5468.8	
643.91	6003.3	
644.1	6798.6	
644.29	7258	
644.48	5545.2	
644.67	5613.5	
644.85	6780.1	
645.04	7217	
645.23	5311.7	
645.42	5563	
645.6	6889.4	
645.79	7581.6	
645.98	5460.6	
646.17	4807.3	
646.36	6642.9	
646.54	6950.8	
646.73	6098.9	
646.92	5231.2	
647.11	6670.9	
647.29	7384.3	
647.48	5258.5	
647.67	5119.2	
647.86	7552.9	
648.05	7481.9	
648.23	5442.8	
648.42	6154.1	
648.61	7197.2	
648.8	6992.4	
648.98	5119.2	
649.17	5404.6	
649.36	6673	
649.55	6328.9	
649.73	5168.4	
649.92	5667.4	
650.11	6622.4	
650.3	6873.7	
650.48	5268.7	
650.67	5197.1	
650.86	7031.4	
651.05	6269.5	
651.23	5228.5	
651.42	5247.6	
651.61	6707.8	
651.79	6627.9	
651.98	5388.2	
652.17	5119.9	
652.36	6922.1	
652.54	6236.7	
652.73	5156.8	
652.92	5043.5	
653.11	7000	
653.29	7000	
653.48	4683	
653.67	5421	
653.85	6765.8	
654.04	7477.8	
654.23	5386.2	
654.42	5193.6	
654.6	6463.4	
654.79	6940.6	
654.98	4796.3	
655.16	5206.6	
655.35	6191	
655.54	6057.2	
655.73	4805.9	
655.91	4644.8	
656.1	6687.3	
656.29	5940.5	
656.47	4456.4	
656.66	5555.5	
656.85	6187.6	
657.03	6193.1	
657.22	4840	
657.41	4871.4	
657.59	6338.5	
657.78	6183.5	
657.97	4583.4	
658.16	5032.5	
658.34	6821.1	
658.53	7032.7	
658.72	5655.8	
658.9	6023.8	
659.09	6484.6	
659.28	6503.7	
659.46	4911	
659.65	4866	
659.84	6287.9	
660.02	6673.6	
660.21	4953.4	
660.4	4767.7	
660.58	6874.3	
660.77	6487.3	
660.96	5219.6	
661.14	4530.8	
661.33	7221.1	
661.52	7146	
661.7	4579.3	
661.89	6769.9	
662.08	6229.2	
662.26	5855.1	
662.45	4814.8	
662.64	4902.8	
662.82	6782.2	
663.01	6219.7	
663.2	4832.5	
663.38	5281.7	
663.57	6658.6	
663.75	6559	
663.94	5066.7	
664.13	5767.1	
664.31	6244.3	
664.5	6630.6	
664.69	5184.8	
664.87	5509	
665.06	6019.7	
665.25	6536.4	
665.43	5666	
665.62	5700.9	
665.8	6772.6	
665.99	6293.4	
666.18	5059.8	
666.36	5073.5	
666.55	6752.2	
666.74	6645.7	
666.92	4868.7	
667.11	5845.6	
667.29	6307.7	
667.48	6652.5	
667.67	5517.9	
667.85	4999.8	
668.04	6259.3	
668.22	6243.6	
668.41	5094.7	
668.6	5245.5	
668.78	6126.8	
668.97	6298.9	
669.15	5301.5	
669.34	4560.1	
669.53	6128.2	
669.71	6312.5	
669.9	4644.8	
670.08	5180	
670.27	6074.3	
670.46	6570.6	
670.64	5302.9	
670.83	5383.4	
671.01	6027.2	
671.2	6412.9	
671.38	4781.3	
671.57	4719.2	
671.76	6942.6	
671.94	7183.6	
672.13	4647.5	
672.31	5337	
672.5	6711.9	
672.69	6148	
672.87	4756.1	
673.06	4986.8	
673.24	6571.9	
673.43	6163	
673.61	5201.8	
673.8	4882.4	
673.98	6511.2	
674.17	6614.9	
674.36	5387.5	
674.54	5239.4	
674.73	6448.4	
674.91	6646.3	
675.1	4989.5	
675.28	4742.4	
675.47	6267.5	
675.65	6607.4	
675.84	4957.4	
676.03	5100.1	
676.21	6230.6	
676.4	5804.6	
676.58	5423	
676.77	5292	
676.95	7203.4	
677.14	6115.2	
677.32	4689.2	
677.51	4638	
677.69	6756.9	
677.88	5956.2	
678.06	4732.9	
678.25	4769.7	
678.44	6214.2	
678.62	6093.4	
678.81	4533.5	
678.99	5078.3	
679.18	6757.6	
679.36	6546	
679.55	4910.3	
679.73	5296	
679.92	6502.3	
680.1	6113.9	
680.29	5737.7	
680.47	4907.6	
680.66	6136.4	
680.84	6678.4	
681.03	4493.2	
681.21	5040.7	
681.4	6119.3	
681.58	6013.5	
681.77	4758.8	
681.95	4731.5	
682.14	6697.5	
682.32	6909.8	
682.51	5293.3	
682.69	4554.7	
682.88	6093.4	
683.06	6378.7	
683.25	5162.9	
683.43	5334.3	
683.62	6306.4	
683.8	6553.5	
683.99	5457.2	
684.17	4933.6	
684.36	7036.1	
684.54	6221	
684.73	4573.1	
684.91	4635.9	
685.1	6397.2	
685.28	5999.9	
685.46	4981.3	
685.65	4999.1	
685.83	6453.1	
686.02	5980.1	
686.2	4607.9	
686.39	4542.4	
686.57	5818.3	
686.76	6776.7	
686.94	4525.3	
687.13	4612.7	
687.31	6260.6	
687.5	6030.6	
687.68	4290.5	
687.86	5004.6	
688.05	7176.8	
688.23	5616.2	
688.42	5153.4	
688.6	4604.5	
688.79	5835.3	
688.97	5882.4	
689.16	4910.3	
689.34	4141.7	
689.52	6320	
689.71	6655.2	
689.89	5007.3	
690.08	4739	
690.26	6283.2	
690.45	6000.5	
690.63	5182	
690.81	4755.4	
691	6171.9	
691.18	5953.4	
691.37	4889.9	
691.55	6222.4	
691.74	5942.5	
691.92	7266.9	
692.1	4759.5	
692.29	4482.3	
692.47	6070.2	
692.66	5599.8	
692.84	4561.5	
693.02	4847.5	
693.21	5644.9	
693.39	6046.3	
693.58	4947.2	
693.76	4614.8	
693.94	6842.9	
694.13	6641.6	
694.31	4670.7	
694.5	5249.6	
694.68	5861.3	
694.86	6187.6	
695.05	4857.8	
695.23	4941.1	
695.42	6404.7	
695.6	7924.3	
695.78	5225.1	
695.97	4695.3	
696.15	6498.9	
696.34	6002.6	
696.52	4610.7	
696.7	5173.2	
696.89	6297.5	
697.07	5824.4	
697.25	5100.8	
697.44	5850.4	
697.62	6311.2	
697.81	6419	
697.99	4867.3	
698.17	5114.5	
698.36	5885.2	
698.54	6227.9	
698.72	5050.3	
698.91	4375.8	
699.09	5971.9	
699.28	5776	
699.46	4762.9	
699.64	4655	
699.83	5850.4	
700.01	6552.8	
700.19	5173.9	
700.38	4121.2	
700.56	6587.6	
700.74	5853.1	
700.93	4427.7	
701.11	4934.9	
701.29	6208.1	
701.48	6941.2	
701.66	4582.7	
701.84	4627	
702.03	5966.4	
702.21	6466.8	
702.39	4363.5	
702.58	4719.2	
702.76	6353.5	
702.94	6228.6	
703.13	4285.7	
703.31	5915.2	
703.49	5851	
703.68	6746	
703.86	4441.4	
704.04	5109	
704.23	6134.3	
704.41	6369.2	
704.59	4612	
704.78	5307	
704.96	7159	
705.14	6358.3	
705.33	4420.9	
705.51	4906.9	
705.69	5942.5	
705.87	6470.9	
706.06	5091.3	
706.24	4389.5	
706.42	6184.2	
706.61	6308.4	
706.79	5139.7	
706.97	4319.8	
707.16	5801.2	
707.34	6181.5	
707.52	5033.9	
707.7	4542.4	
707.89	5825.1	
708.07	5645.6	
708.25	5116.5	
708.44	5104.9	
708.62	5796.4	
708.8	6606.1	
708.98	5208	
709.17	4547.2	
709.35	6075	
709.53	6083.1	
709.72	4298.7	
709.9	4417.5	
710.08	6370.5	
710.26	6273.6	
710.45	5367.7	
710.63	4536.9	
710.81	5995.8	
710.99	5980.8	
711.18	4928.1	
711.36	4571.1	
711.54	5866.7	
711.72	6430.6	
711.91	4644.1	
712.09	4289.8	
712.27	6026.5	
712.45	6380.8	
712.64	4772.4	
712.82	4154.6	
713	5650.3	
713.18	5713.8	
713.37	4209.9	
713.55	5014.1	
713.73	6327.5	
713.91	5364.3	
714.1	4470	
714.28	4135.5	
714.46	6006	
714.64	5521.3	
714.83	3768.9	
715.01	4205.2	
715.19	5613.5	
715.37	5026.4	
715.55	3985.3	
715.74	4168.3	
715.92	6010.8	
716.1	4708.3	
716.28	4968.4	
716.47	4250.2	
716.65	5239.4	
716.83	5192.3	
717.01	4128	
717.19	4174.4	
717.38	6574.7	
717.56	4973.2	
717.74	4324.6	
717.92	3657.7	
718.1	5829.2	
718.29	5304.2	
718.47	3405.1	
718.65	3879.5	
718.83	5842.9	
719.01	5672.9	
719.2	3392.8	
719.38	4104.8	
719.56	5483.8	
719.74	6493.4	
719.92	3888.4	
720.11	4572.4	
720.29	5653.1	
720.47	5029.8	
720.65	3558.7	
720.83	4144.4	
721.02	5259.2	
721.2	5098.1	
721.38	4178.5	
721.56	3627.6	
721.74	4725.3	
721.92	4796.3	
722.11	4420.2	
722.29	4241.3	
722.47	5680.4	
722.65	5081.7	
722.83	3660.4	
723.01	4236.6	
723.2	5121.3	
723.38	5356.1	
723.56	3275.4	
723.74	4054.3	
723.92	4797.7	
724.1	5536.3	
724.29	3599.6	
724.47	4351.3	
724.65	4954.7	
724.83	4743.8	
725.01	3556	
725.19	4012.7	
725.37	4849.6	
725.56	4773.1	
725.74	3425.6	
725.92	3596.9	
726.1	4844.8	
726.28	5031.2	
726.46	3872	
726.64	3732.8	
726.83	5079.6	
727.01	5139	
727.19	3390.8	
727.37	3930.1	
727.55	5135.6	
727.73	5410.7	
727.91	3377.1	
728.09	3268.6	
728.28	5456.5	
728.46	5569.8	
728.64	3969.6	
728.82	3914.4	
729	6089.3	
729.18	5663.3	
729.36	3395.5	
729.54	4894	
729.72	6277.7	
729.91	5105.6	
730.09	4662.5	
730.27	3828.3	
730.45	5115.8	
730.63	5501.5	
730.81	4225	
730.99	3652.2	
731.17	5917.3	
731.35	4835.3	
731.53	3940.3	
731.71	3738.9	
731.9	5668.1	
732.08	5681.1	
732.26	3885	
732.44	3635.8	
732.62	5753.4	
732.8	5431.9	
732.98	4145.1	
733.16	3521.8	
733.34	5481.7	
733.52	4524	
733.7	3886.4	
733.88	3954.6	
734.07	5368.4	
734.25	5115.8	
734.43	3500.7	
734.61	4434.5	
734.79	6125.5	
734.97	5095.3	
735.15	3591.5	
735.33	3786.7	
735.51	5405.3	
735.69	5124.7	
735.87	4434.5	
736.05	3908.9	
736.23	5205.3	
736.41	4942.4	
736.59	3816.7	
736.77	3859.1	
736.95	5436	
737.13	4999.8	
737.32	3591.5	
737.5	3700.7	
737.68	5914.5	
737.86	4981.3	
738.04	3464.5	
738.22	4691.2	
738.4	4943.8	
738.58	5093.3	
738.76	3844.7	
738.94	3188.7	
739.12	5010.7	
739.3	4945.2	
739.48	4204.5	
739.66	4016.1	
739.84	5165	
740.02	5117.9	
740.2	3244	
740.38	3438.5	
740.56	5339.7	
740.74	4567.7	
740.92	3888.4	
741.1	3751.2	
741.28	5067.4	
741.46	4901.5	
741.64	3573	
741.82	3996.3	
742	5002.5	
742.18	4952.7	
742.36	3710.9	
742.54	3472.7	
742.72	5459.9	
742.9	4527.4	
743.08	3902.1	
743.26	3132	
743.44	5435.3	
743.62	5320.6	
743.8	4083.6	
743.98	3467.9	
744.16	5230.5	
744.34	4980	
744.52	4018.1	
744.7	3940.3	
744.88	5339.7	
745.06	4961.5	
745.24	3983.3	
745.42	4083	
745.6	5400.5	
745.78	5262.6	
745.96	3279.5	
746.14	3423.5	
746.32	5899.5	
746.5	5326.8	
746.68	3803.1	
746.86	3464.5	
747.03	5524.1	
747.21	4552	
747.39	3851.5	
747.57	3426.3	
747.75	5074.9	
747.93	5324.7	
748.11	3395.5	
748.29	3394.2	
748.47	6178	
748.65	4872.8	
748.83	3960.8	
749.01	3741.6	
749.19	5174.5	
749.37	4594.3	
749.55	3671.3	
749.73	3703.4	
749.91	5100.8	
750.09	4916.5	
750.26	3707.5	
750.44	3274.7	
750.62	5072.1	
750.8	4904.9	
750.98	3273.3	
751.16	3486.3	
751.34	5066	
751.52	4657.8	
751.7	3990.1	
751.88	3176.4	
752.06	5416.9	
752.24	5122	
752.42	3205.1	
752.59	3470.6	
752.77	4975.9	
752.95	5801.9	
753.13	3953.3	
753.31	3534.1	
753.49	4745.8	
753.67	5061.2	
753.85	3697.3	
754.03	3442.6	
754.21	5316.5	
754.38	5429.2	
754.56	3488.4	
754.74	2987.3	
754.92	4803.2	
755.1	5122.7	
755.28	3007.8	
755.46	3011.9	
755.64	5769.1	
755.82	5863.3	
755.99	3181.9	
756.17	3254.2	
756.35	4163.5	
756.53	5203.2	
756.71	2504	
756.89	3138.9	
757.07	4883.7	
757.25	4315.1	
757.42	3487.7	
757.6	4104.1	
757.78	5014.8	
757.96	4362.9	
758.14	3241.9	
758.32	2965.5	
758.5	4011.3	
758.67	4575.8	
758.85	3239.9	
759.03	3263.1	
759.21	4739	
759.39	4301.4	
759.57	2927.9	
759.75	3650.8	
759.92	5147.9	
760.1	4698.7	
760.28	3895.9	
760.46	3995.6	
760.64	4511	
760.82	4434.5	
760.99	3720.5	
761.17	3198.2	
761.35	5031.2	
761.53	4289.8	
761.71	3333.4	
761.89	3702	
762.06	4979.3	
762.24	4633.9	
762.42	3373.7	
762.6	3152.5	
762.78	4601.1	
762.96	4978.6	
763.13	3622.9	
763.31	3344.3	
763.49	5098.8	
763.67	4502.8	
763.85	3885	
764.02	4243.4	
764.2	5397.1	
764.38	4673.5	
764.56	3218	
764.74	3929.4	
764.91	5340.4	
765.09	4596.3	
765.27	3177.8	
765.45	2956.6	
765.63	5428.5	
765.8	5246.9	
765.98	2810.5	
766.16	2963.4	
766.34	4332.1	
766.52	4197	
766.69	3596.2	
766.87	2892.4	
767.05	4667.3	
767.23	5132.2	
767.41	3147	
767.58	3328.6	
767.76	5030.5	
767.94	5099.4	
768.12	3186.6	
768.29	3611.9	
768.47	4597	
768.65	5121.3	
768.83	2964.1	
769	3674.7	
769.18	4414.1	
769.36	4874.2	
769.54	3669.3	
769.72	2958.6	
769.89	5127.4	
770.07	5090.6	
770.25	3287	
770.43	4061.1	
770.6	5558.2	
770.78	5849	
770.96	3308.2	
771.14	3678.2	
771.31	5008.6	
771.49	4586.1	
771.67	2790	
771.85	2936.1	
772.02	4092.5	
772.2	4489.1	
772.38	3426.9	
772.55	3042.6	
772.73	4804.5	
772.91	4639.3	
773.09	3289.7	
773.26	3418.7	
773.44	4783.4	
773.62	4581.3	
773.8	3052.2	
773.97	2889	
774.15	4727.4	
774.33	4572.4	
774.5	2971.6	
774.68	3223.5	
774.86	4919.9	
775.04	4568.3	
775.21	3069.2	
775.39	2981.8	
775.57	4744.5	
775.74	4887.8	
775.92	2839.2	
776.1	2828.9	
776.27	4698.7	
776.45	5559.6	
776.63	3040.6	
776.81	2741.5	
776.98	4487.8	
777.16	5165.7	
777.34	3140.9	
777.51	3326.6	
777.69	4567	
777.87	4330.8	
778.04	3258.3	
778.22	3501.3	
778.4	4319.2	
778.57	4792.2	
778.75	2663	
778.93	2839.2	
779.1	4315.1	
779.28	4121.2	
779.46	2703.3	
779.64	2974.3	
779.81	4896.7	
779.99	5442.8	
780.17	3478.1	
780.34	3608.5	
780.52	4563.6	
780.69	4618.9	
780.87	3257	
781.05	2907.4	
781.22	4647.5	
781.4	4627.7	
781.58	3074	
781.75	2518.3	
781.93	4670.7	
782.11	4126.7	
782.28	3664.5	
782.46	3002.3	
782.64	4123.2	
782.81	4722.6	
782.99	3141.6	
783.17	3076	
783.34	4680.3	
783.52	4276.8	
783.69	3140.9	
783.87	3731.4	
784.05	4354.7	
784.22	4148.5	
784.4	3737.5	
784.58	3291.8	
784.75	4882.4	
784.93	4317.8	
785.1	2996.9	
785.28	3420.8	
785.46	4726.7	
785.63	4200.4	
785.81	3078.1	
785.99	2953.2	
786.16	4314.4	
786.34	4599.1	
786.51	2929.3	
786.69	3270.6	
786.87	4016.7	
787.04	4386.7	
787.22	2877.4	
787.39	3484.3	
787.57	4293.2	
787.75	4945.8	
787.92	3630.4	
788.1	3592.1	
788.27	4214	
788.45	4009.9	
788.63	3424.2	
788.8	2534	
788.98	4574.5	
789.15	3975.1	
789.33	2687.6	
789.5	3039.9	
789.68	4837.3	
789.86	4965.6	
790.03	3330	
790.21	2901.3	
790.38	4921.3	
790.56	4363.5	
790.73	2919.7	
790.91	2855.6	
791.09	4251.6	
791.26	4714.4	
791.44	3061	
791.61	2704	
791.79	4242	
791.96	4167.6	
792.14	2816.6	
792.32	2506	
792.49	4208.6	
792.67	4349.9	
792.84	2837.8	
793.02	2723.8	
793.19	4559.5	
793.37	4983.4	
793.54	2496.5	
793.72	2639.8	
793.89	5084.4	
794.07	4227.7	
794.25	3137.5	
794.42	2607.7	
794.6	4935.6	
794.77	4651.6	
794.95	3313.6	
795.12	2899.9	
795.3	4259.8	
795.47	4600.4	
795.65	3237.8	
795.82	3092.4	
796	4100	
796.17	5341.1	
796.35	2999.6	
796.52	3542.3	
796.7	4653.7	
796.87	4683	
797.05	2976.4	
797.22	3479.5	
797.4	4674.1	
797.57	5286.5	
797.75	3158.7	
797.92	3004.4	
798.1	4905.6	
798.27	4091.8	
798.45	2590.7	
798.62	2738.1	
798.8	4414.1	
798.97	4791.6	
799.15	3166.8	
799.32	3151.8	
799.5	3945.1	
799.67	4445.5	
799.85	3373	
800.02	2539.5	
800.2	4209.3	
800.37	4366.3	
800.55	3392.8	
800.72	2935.4	
800.9	4752.7	
801.07	5036	
801.25	3799.7	
801.42	3170.3	
801.6	4816.8	
801.77	4484.4	
801.95	2992.8	
802.12	2863.1	
802.29	4622.3	
802.47	4536.9	
802.64	3194.8	
802.82	2562.7	
802.99	4265.9	
803.17	4840	
803.34	3112.2	
803.52	2824.8	
803.69	5317.2	
803.87	4051.6	
804.04	3083.6	
804.21	3121.1	
804.39	5060.5	
804.56	4298	
804.74	2671.2	
804.91	3201	
805.09	4194.2	
805.26	4267.3	
805.44	2723.8	
805.61	2990	
805.78	4734.2	
805.96	4664.6	
806.13	3192.1	
806.31	3379.8	
806.48	3904.1	
806.66	4298.7	
806.83	3192.8	
807	3139.5	
807.18	4283.7	
807.35	4468	
807.53	2999.6	
807.7	2643.9	
807.87	4958.8	
808.05	4270.7	
808.22	3332	
808.4	2594.8	
808.57	4229.7	
808.74	3990.1	
808.92	2899.2	
809.09	3527.3	
809.27	4297.3	
809.44	4569	
809.61	2594.8	
809.79	2798.2	
809.96	5132.9	
810.14	4660.5	
810.31	2561.3	
810.48	3054.2	
810.66	4337.6	
810.83	4714.4	
811.01	2884.9	
811.18	3174.4	
811.35	4716.5	
811.53	3820.1	
811.7	3454.2	
811.87	3175	
812.05	4319.2	
812.22	4200.4	
812.39	2842.6	
812.57	2749.1	
812.74	4304.1	
812.92	5356.8	
813.09	3030.3	
813.26	3204.4	
813.44	5204.6	
813.61	4156.7	
813.78	2627.5	
813.96	3280.2	
814.13	4294.6	
814.3	4084.3	
814.48	3566.2	
814.65	3020.8	
814.82	5018.2	
815	4040	
815.17	3097.9	
815.34	3638.6	
815.52	4209.9	
815.69	4188.8	
815.87	3027.6	
816.04	2985.3	
816.21	4248.2	
816.38	3903.4	
816.56	2930.6	
816.73	2820.7	
816.9	5222.3	
817.08	4717.8	
817.25	2870.6	
817.42	3409.9	
817.6	3989.4	
817.77	4206.5	
817.94	3209.2	
818.12	2723.8	
818.29	4092.5	
818.46	5793.7	
818.64	3028.9	
818.81	2671.2	
818.98	4091.2	
819.16	5407.3	
819.33	3242.6	
819.5	3070.6	
819.67	4508.9	
819.85	4978.6	
820.02	3061	
820.19	3206.4	
820.37	4399	
820.54	4158.7	
820.71	3132.7	
820.88	3773.7	
821.06	4365.6	
821.23	4093.2	
821.4	3155.2	
821.58	3117	
821.75	4689.8	
821.92	4412	
822.09	2581.8	
822.27	2703.3	
822.44	4248.9	
822.61	4180.6	
822.79	2621.4	
822.96	4686.4	
823.13	4478.2	
823.3	3983.3	
823.48	2897.2	
823.65	2678.7	
823.82	4782.7	
823.99	3962.1	
824.17	3645.4	
824.34	2759.3	
824.51	5290.6	
824.68	4324.6	
824.86	2860.3	
825.03	3087	
825.2	4267.3	
825.37	4922	
825.55	2830.3	
825.72	3019.4	
825.89	5329.5	
826.06	4984.8	
826.24	2988	
826.41	3013.9	
826.58	5072.8	
826.75	4421.6	
826.92	2519.7	
827.1	2715.6	
827.27	6466.1	
827.44	5225.7	
827.61	2876	
827.79	3375.7	
827.96	4177.2	
828.13	4251.6	
828.3	3001.6	
828.47	2600.9	
828.65	4564.2	
828.82	4491.9	
828.99	3707.5	
829.16	3282.9	
829.34	4760.8	
829.51	4599.1	
829.68	3068.5	
829.85	3120.4	
830.02	5040.7	
830.2	4698	
830.37	2408.4	
830.54	3519.8	
830.71	5184.8	
830.88	4268	
831.05	2433	
831.23	2794.8	
831.4	5155.4	
831.57	5481.7	
831.74	2871.9	
831.91	2571.6	
832.09	4653.7	
832.26	4752.7	
832.43	2928.6	
832.6	3269.2	
832.77	4513	
832.94	5031.9	
833.12	2405.7	
833.29	2914.9	
833.46	4233.2	
833.63	5696.1	
833.8	3158	
833.97	2942.9	
834.15	4827.1	
834.32	4630.5	
834.49	3049.4	
834.66	3113.6	
834.83	4818.9	
835	4182.6	
835.17	2838.5	
835.35	2815.3	
835.52	4708.3	
835.69	4620.9	
835.86	2978.4	
836.03	2502.6	
836.2	4791.6	
836.37	4437.9	
836.55	2914.3	
836.72	2784.6	
836.89	4473.4	
837.06	4873.5	
837.23	2974.3	
837.4	3203	
837.57	5317.9	
837.75	5663.3	
837.92	2706	
838.09	2865.1	
838.26	4459.8	
838.43	4887.1	
838.6	3085.6	
838.77	2786.6	
838.94	5393	
839.11	5275.6	
839.29	2936.8	
839.46	2392.7	
839.63	4773.8	
839.8	4524.6	
839.97	2843.9	
840.14	2780.5	
840.31	4644.8	
840.48	4733.5	
840.65	2467.8	
840.82	2818	
841	4694.6	
841.17	4592.2	
841.34	2693.1	
841.51	2714.2	
841.68	4687.8	
841.85	4554	
842.02	2783.2	
842.19	2377.7	
842.36	4588.1	
842.53	4603.2	
842.7	2665.1	
842.87	3128.6	
843.05	5683.1	
843.22	4487.1	
843.39	2579.8	
843.56	2753.8	
843.73	4437.3	
843.9	4838	
844.07	4115.1	
844.24	3355.9	
844.41	6270.9	
844.58	4248.9	
844.75	2581.1	
844.92	2788.7	
845.09	4734.2	
845.26	4713.7	
845.43	2605	
845.6	2785.2	
845.77	4762.2	
845.94	4566.3	
846.12	2942.2	
846.29	3077.4	
846.46	4922.6	
846.63	4679.6	
846.8	2691.7	
846.97	3041.9	
847.14	5033.2	
847.31	4670.7	
847.48	2939.5	
847.65	3197.6	
847.82	4844.1	
847.99	4823.6	
848.16	3448.1	
848.33	3168.9	
848.5	4355.3	
848.67	5023	
848.84	2633.7	
849.01	2704	
849.18	4388.8	
849.35	4114.4	
849.52	3213.3	
849.69	2573.6	
849.86	4896	
850.03	4979.3	
850.2	2649.4	
850.37	3121.1	
850.54	4948.6	
850.71	4500.8	
850.88	3119.7	
851.05	2598.2	
851.22	4615.4	
851.39	4962.2	
851.56	2532.7	
851.73	2972.3	
851.9	4207.9	
852.07	4894	
852.24	2917	
852.41	2566.8	
852.58	4667.3	
852.75	4331.5	
852.92	2955.9	
853.09	2611.8	
853.26	4394.3	
853.43	4957.4	
853.6	2669.2	
853.77	2310.1	
853.94	5088.5	
854.11	4186	
854.28	3715	
854.44	2788	
854.61	5330.9	
854.78	4911	
854.95	2636.4	
855.12	3202.3	
855.29	3951.2	
855.46	5145.2	
855.63	2705.4	
855.8	3513.6	
855.97	4456.4	
856.14	4952.7	
856.31	3622.2	
856.48	2845.3	
856.65	4475.5	
856.82	4145.1	
856.99	2598.9	
857.16	2837.8	
857.33	5494	
857.49	4453.6	
857.66	2785.2	
857.83	3020.1	
858	4513.7	
858.17	4636.6	
858.34	2523.8	
858.51	2690.3	
858.68	5130.8	
858.85	5127.4	
859.02	2983.9	
859.19	3148.4	
859.36	4272.7	
859.52	4234.5	
859.69	2684.2	
859.86	3026.2	
860.03	4246.1	
860.2	5102.9	
860.37	2422.1	
860.54	2670.6	
860.71	4889.2	
860.88	5119.2	
861.05	2876	
861.21	3298.6	
861.38	5043.5	
861.55	4052.9	
861.72	2466.4	
861.89	2910.8	
862.06	4911.7	
862.23	5204.6	
862.4	2550.4	
862.56	2699.2	
862.73	4747.2	
862.9	4550.6	
863.07	3039.2	
863.24	2460.3	
863.41	4162.2	
863.58	4271.4	
863.75	2635.1	
863.91	2997.5	
864.08	4982.7	
864.25	4827.7	
864.42	3168.2	
864.59	3552.5	
864.76	5298.1	
864.93	4277.5	
865.09	2568.2	
865.26	2837.1	
865.43	5040.1	
865.6	5212.1	
865.77	2377	
865.94	2609.8	
866.1	5044.1	
866.27	4809.3	
866.44	3739.6	
866.61	2538.1	
866.78	4548.5	
866.95	4782.7	
867.11	2644.6	
867.28	2409.1	
867.45	4997.7	
867.62	4254.3	
867.79	2961.4	
867.96	2639.8	
868.12	4193.6	
868.29	4868.7	
868.46	2667.1	
868.63	3396.2	
868.8	5007.3	
868.97	4842.8	
869.13	2706	
869.3	2756.6	
869.47	4720.6	
869.64	4872.8	
869.81	2703.3	
869.97	2629.6	
870.14	4681	
870.31	5095.3	
870.48	2548.4	
870.65	3241.9	
870.81	4500.1	
870.98	4483	
871.15	2911.5	
871.32	2766.1	
871.48	4720.6	
871.65	5146.5	
871.82	2578.4	
871.99	2911.5	
872.16	5453.7	
872.32	5042.8	
872.49	2692.4	
872.66	2659.6	
872.83	4898.1	
872.99	4356.7	
873.16	3009.1	
873.33	2602.3	
873.5	4568.3	
873.67	4664.6	
873.83	2805	
874	3386	
874.17	4662.5	
874.34	5276.3	
874.5	3329.3	
874.67	3240.6	
874.84	5043.5	
875.01	4151.2	
875.17	3526.6	
875.34	2615.3	
875.51	4635.9	
875.68	5481.7	
875.84	3112.2	
876.01	3695.9	
876.18	4815.5	
876.34	4767	
876.51	2637.8	
876.68	2628.2	
876.85	4472.8	
877.01	5063.9	
877.18	3606.5	
877.35	2583.2	
877.52	4675.5	
877.68	4164.2	
877.85	2620.7	
878.02	2636.4	
878.18	4436.6	
878.35	4412	
878.52	2212.5	
878.69	3040.6	
878.85	4936.3	
879.02	4805.9	
879.19	3659	
879.35	2845.3	
879.52	4881.7	
879.69	4917.9	
879.86	2367.5	
880.02	2975	
880.19	4528.1	
880.36	5342.5	
880.52	2994.1	
880.69	3046.7	
880.86	4868	
881.02	4891.9	
881.19	2835.1	
881.36	2871.9	
881.52	4814.8	
881.69	4301.4	
881.86	2822.1	
882.02	2741.5	
882.19	4977.9	
882.36	5626.5	
882.52	2716.3	
882.69	3561.4	
882.86	4644.8	
883.02	4602.5	
883.19	3089	
883.36	2940.2	
883.52	4878.9	
883.69	5416.9	
883.86	2650.1	
884.02	2477.4	
884.19	4849.6	
884.36	4623.6	
884.52	2938.2	
884.69	2858.3	
884.86	4416.8	
885.02	5199.8	
885.19	2897.9	
885.36	2957.3	
885.52	4552.6	
885.69	4682.3	
885.86	3599	
886.02	3272.7	
886.19	4898.1	
886.35	4291.9	
886.52	2861.7	
886.69	3530	
886.85	4270.7	
887.02	5037.3	
887.19	5037.3	
887.35	5037.3	
887.52	5037.3	
887.68	5037.3	
887.85	5037.3	
888.02	5037.3	
888.18	5037.3	
888.35	5037.3	
888.51	5037.3	
888.68	5037.3	
888.85	5037.3	
889.01	5037.3	
889.18	5037.3	
889.35	5037.3	
889.51	5037.3	
889.68	5037.3	
889.84	5037.3	
890.01	5037.3	
890.17	5037.3	
890.34	5037.3	
890.51	5037.3	
890.67	5037.3	
890.84	5037.3	
891	5037.3	
891.17	5037.3	
891.34	5037.3	
891.5	5037.3	
891.67	5037.3	
891.83	5037.3	
892	5037.3	
892.16	5037.3	
892.33	5037.3	
892.5	5037.3	
892.66	5037.3	
892.83	5037.3	
892.99	5037.3	
893.16	5037.3	
893.32	5037.3	
893.49	5037.3	
893.65	5037.3	
893.82	5037.3	
893.99	5037.3	
894.15	5037.3	
894.32	5037.3	
894.48	5037.3	
894.65	5037.3	
894.81	5037.3	
894.98	5037.3	
895.14	5037.3	
895.31	5037.3	
895.47	5037.3	
895.64	5037.3	
895.81	5037.3	
895.97	5037.3	
896.14	5037.3	
896.3	5037.3	
896.47	5037.3	
896.63	5037.3	
896.8	5037.3	
896.96	5037.3	
897.13	5037.3	
897.29	5037.3	
897.46	5037.3	
897.62	5037.3	
897.79	5037.3	
897.95	5037.3	
898.12	5037.3	
898.28	5037.3	
898.45	5037.3	
898.61	5037.3	
898.78	5037.3	
898.94	5037.3	
899.11	5037.3	
899.27	5037.3	
899.44	5037.3	
899.6	5037.3	
899.77	5037.3	
899.93	5037.3	
900.1	5037.3	
900.26	5037.3	
900.43	5037.3	
900.59	5037.3	
900.76	5037.3	
900.92	5037.3	
901.09	5037.3	
901.25	5037.3	
901.42	5037.3	
901.58	5037.3	
901.75	5037.3	
901.91	5037.3	
902.07	5037.3	
902.24	5037.3	
902.4	5037.3	
902.57	5037.3	
902.73	5037.3	
902.9	5037.3	
903.06	5037.3	
903.23	5037.3	
903.39	5037.3	
903.56	5037.3	
903.72	5037.3	
903.88	5037.3	
904.05	5037.3	
904.21	5037.3	
904.38	5037.3	
904.54	5037.3	
904.71	5037.3	
904.87	5037.3	
905.03	5037.3	
905.2	5037.3	
905.36	5037.3	
905.53	5037.3	
905.69	5037.3	
905.86	5037.3	
906.02	5037.3	
906.18	5037.3	
906.35	5037.3	
906.51	5037.3	
906.68	5037.3	
906.84	5037.3	
907.01	5037.3	
907.17	5037.3	
907.33	5037.3	
907.5	5037.3	
907.66	5037.3	
907.83	5037.3	
907.99	5037.3	
908.15	5037.3	
908.32	5037.3	
908.48	5037.3	
908.65	5037.3	
908.81	5037.3	
908.97	5037.3	
909.14	5037.3	
909.3	5037.3	
909.47	5037.3	
909.63	5037.3	
909.79	5037.3	
909.96	5037.3	
910.12	5037.3	
910.28	5037.3	
910.45	5037.3	
910.61	5037.3	
910.78	5037.3	
910.94	5037.3	
911.1	5037.3	
911.27	5037.3	
911.43	5037.3	
911.59	5037.3	
911.76	5037.3	
911.92	5037.3	
912.08	5037.3	
912.25	5037.3	
912.41	5037.3	
912.57	5037.3	
912.74	5037.3	
912.9	5037.3	
913.07	5037.3	
913.23	5037.3	
913.39	5037.3	
913.56	5037.3	
913.72	5037.3	
913.88	5037.3	
914.05	5037.3	
914.21	5037.3	
914.37	5037.3	
914.54	5037.3	
914.7	5037.3	
914.86	5037.3	
915.03	5037.3	
915.19	5037.3	
