Wavelength	Intensities	
nm	a.u.	
179.22	1533.9	
179.44	1534.6	
179.65	1533.2	
179.86	1536	
180.08	1482.7	
180.29	3215.3	
180.51	2612.5	
180.72	4461.8	
180.94	4773.1	
181.15	2357.9	
181.37	2348.3	
181.58	4246.1	
181.79	4402.5	
182.01	2408.4	
182.22	2443.9	
182.44	4474.8	
182.65	3966.2	
182.87	2960.7	
183.08	2708.1	
183.29	4647.5	
183.51	3971	
183.72	2510.8	
183.94	3293.1	
184.15	4280.3	
184.37	4128.7	
184.58	2347.7	
184.79	2796.2	
185.01	4072.7	
185.22	4513	
185.44	2990	
185.65	2618	
185.86	4336.2	
186.08	3969	
186.29	2288.3	
186.51	2418	
186.72	4078.9	
186.94	4527.4	
187.15	2708.1	
187.36	2687.6	
187.58	5418.9	
187.79	4345.1	
188.01	2753.2	
188.22	3906.8	
188.43	4860.5	
188.65	4435.2	
188.86	2455.5	
189.08	2742.9	
189.29	4129.4	
189.5	4048.8	
189.72	2508.8	
189.93	2538.8	
190.15	4556	
190.36	5106.3	
190.57	2717	
190.79	2676.7	
191	4517.8	
191.22	4520.5	
191.43	2810.5	
191.64	2431.6	
191.86	4676.9	
192.07	4513	
192.29	2478	
192.5	2487.6	
192.71	4564.2	
192.93	4175.1	
193.14	2487.6	
193.35	2607.7	
193.57	4118.5	
193.78	4577.9	
194	2155.1	
194.21	2507.4	
194.42	3919.1	
194.64	4218.1	
194.85	2678.1	
195.07	3052.2	
195.28	4162.2	
195.49	3904.8	
195.71	3115.6	
195.92	2383.2	
196.13	4376.5	
196.35	4352.6	
196.56	3300	
196.78	2738.1	
196.99	5089.2	
197.2	4777.9	
197.42	2897.2	
197.63	2689.7	
197.84	3979.9	
198.06	4342.4	
198.27	2577	
198.48	3121.8	
198.7	4128	
198.91	4306.9	
199.13	2729.9	
199.34	2745.6	
199.55	4594.3	
199.77	3732.1	
199.98	2506	
200.19	2758.6	
200.41	4245.4	
200.62	4007.9	
200.83	2766.1	
201.05	2975	
201.26	4276.2	
201.47	4078.2	
201.69	2481.5	
201.9	2475.3	
202.11	4280.3	
202.33	4760.8	
202.54	2592.7	
202.76	2869.2	
202.97	4214	
203.18	4359.4	
203.4	2789.3	
203.61	2886.3	
203.82	4305.5	
204.04	4080.2	
204.25	2700.6	
204.46	2658.3	
204.68	4226.3	
204.89	4372.4	
205.1	2641.9	
205.32	2420.7	
205.53	4411.3	
205.74	4500.8	
205.96	2169.5	
206.17	2747	
206.38	4420.2	
206.6	4554.7	
206.81	2950.4	
207.02	2605	
207.24	4437.9	
207.45	4599.7	
207.66	2618.7	
207.88	2337.4	
208.09	4351.3	
208.3	4169	
208.52	2467.8	
208.73	2648	
208.94	4199.7	
209.15	4592.2	
209.37	2638.5	
209.58	2704.7	
209.79	4483	
210.01	4171.7	
210.22	2220.7	
210.43	2354.5	
210.65	4179.2	
210.86	4405.9	
211.07	2605.7	
211.29	2442.5	
211.5	4360.1	
211.71	4222.9	
211.93	2508.8	
212.14	2426.8	
212.35	4236.6	
212.56	4209.3	
212.78	2743.6	
212.99	2350.4	
213.2	4690.5	
213.42	4149.9	
213.63	2527.2	
213.84	2575.7	
214.06	3909.6	
214.27	3922.5	
214.48	2545.6	
214.69	2745	
214.91	4625	
215.12	4602.5	
215.33	2698.5	
215.55	2864.4	
215.76	4913.8	
215.97	4331.5	
216.18	2706.7	
216.4	2654.9	
216.61	4055	
216.82	4474.1	
217.04	2472.6	
217.25	2573.6	
217.46	4557.4	
217.67	4463.9	
217.89	2288.9	
218.1	2351.8	
218.31	4261.1	
218.53	4405.2	
218.74	2628.9	
218.95	2486.2	
219.16	4226.3	
219.38	4732.9	
219.59	2455.5	
219.8	2850.8	
220.01	4993.6	
220.23	4285	
220.44	3028.9	
220.65	2406.4	
220.87	4365.6	
221.08	4628.4	
221.29	2394.8	
221.5	2875.3	
221.72	5162.9	
221.93	4025.6	
222.14	2734	
222.35	3125.2	
222.57	4215.4	
222.78	4493.9	
222.99	2654.2	
223.2	2752.5	
223.42	4362.2	
223.63	4390.2	
223.84	2137.4	
224.05	2192.7	
224.27	4839.4	
224.48	4648.9	
224.69	3125.9	
224.9	2764.8	
225.12	4289.1	
225.33	4203.8	
225.54	2284.2	
225.75	2524.5	
225.97	4019.5	
226.18	4181.3	
226.39	2586.6	
226.6	2508.1	
226.82	4084.3	
227.03	3926.6	
227.24	2703.3	
227.45	2381.1	
227.67	4526	
227.88	4644.8	
228.09	3006.4	
228.3	2971.6	
228.52	4408.6	
228.73	4183.3	
228.94	2559.3	
229.15	2376.3	
229.36	4231.1	
229.58	4261.1	
229.79	2575.7	
230	2880.8	
230.21	4860.5	
230.43	4192.9	
230.64	2741.5	
230.85	2779.1	
231.06	4532.2	
231.28	4502.8	
231.49	2373.6	
231.7	2707.4	
231.91	4470	
232.12	4161.5	
232.34	2480.1	
232.55	2681.5	
232.76	4567	
232.97	4279.6	
233.18	2510.8	
233.4	2710.1	
233.61	4323.9	
233.82	4021.5	
234.03	2614.6	
234.25	2527.2	
234.46	5309.7	
234.67	4291.9	
234.88	2788.7	
235.09	2544.9	
235.31	4281.6	
235.52	4132.8	
235.73	2664.4	
235.94	2402.3	
236.15	4075.5	
236.37	4805.2	
236.58	2407.7	
236.79	2627.5	
237	4404.5	
237.21	3937.6	
237.43	2817.3	
237.64	2364.7	
237.85	6278.4	
238.06	4019.5	
238.27	2729.9	
238.48	2407.7	
238.7	4424.3	
238.91	4138.9	
239.12	2563.4	
239.33	2774.3	
239.54	3990.8	
239.76	4158.1	
239.97	2658.3	
240.18	2637.1	
240.39	4812.7	
240.6	4329.4	
240.82	2765.4	
241.03	2407.7	
241.24	4233.8	
241.45	4638.6	
241.66	2439.1	
241.87	2870.6	
242.09	4707.6	
242.3	4766.3	
242.51	2855.6	
242.72	2630.3	
242.93	4431.8	
243.14	4136.9	
243.36	3005.7	
243.57	3136.8	
243.78	4702.1	
243.99	4377.2	
244.2	2608.4	
244.41	2450.1	
244.63	3972.4	
244.84	4294.6	
245.05	2772.3	
245.26	2639.8	
245.47	4491.2	
245.68	4424.3	
245.9	3236.5	
246.11	2792.1	
246.32	4001.7	
246.53	4381.3	
246.74	3861.1	
246.95	2339.5	
247.16	4085	
247.38	4221.5	
247.59	2390	
247.8	2658.9	
248.01	3876.1	
248.22	4205.2	
248.43	2460.3	
248.64	2608.4	
248.86	3979.9	
249.07	4110.3	
249.28	2446	
249.49	2693.1	
249.7	4438.6	
249.91	4463.9	
250.12	2356.5	
250.34	2420	
250.55	4340.3	
250.76	4228.4	
250.97	2709.5	
251.18	2697.2	
251.39	4541.7	
251.6	4311	
251.81	2714.9	
252.03	2666.5	
252.24	4078.9	
252.45	4431.8	
252.66	2380.4	
252.87	2809.8	
253.08	4251.6	
253.29	5084.4	
253.5	2407.7	
253.72	3083.6	
253.93	4204.5	
254.14	4718.5	
254.35	2558.6	
254.56	2592.7	
254.77	4279.6	
254.98	3976.5	
255.19	2543.6	
255.41	2994.8	
255.62	4379.9	
255.83	4534.9	
256.04	2799.6	
256.25	2639.8	
256.46	4859.1	
256.67	4027.7	
256.88	2692.4	
257.09	2925.9	
257.31	3892.5	
257.52	4047.5	
257.73	3218	
257.94	2548.4	
258.15	4183.3	
258.36	4141.7	
258.57	2996.9	
258.78	2124.4	
258.99	4512.4	
259.2	4094.6	
259.41	2500.6	
259.63	2635.7	
259.84	4731.5	
260.05	4772.4	
260.26	3044.6	
260.47	2532	
260.68	4519.2	
260.89	4143.7	
261.1	2903.3	
261.31	2472.6	
261.52	4659.1	
261.73	4739	
261.95	3093.1	
262.16	2798.9	
262.37	4569.7	
262.58	4586.1	
262.79	3080.8	
263	2570.9	
263.21	4313	
263.42	4066.6	
263.63	2788.7	
263.84	2559.3	
264.05	4451.6	
264.26	4702.1	
264.47	3001	
264.69	2788	
264.9	4682.3	
265.11	4288.4	
265.32	2457.6	
265.53	2510.1	
265.74	4240.7	
265.95	3857.7	
266.16	2642.6	
266.37	2820.7	
266.58	4289.8	
266.79	4084.3	
267	2554.5	
267.21	2430.3	
267.42	3964.9	
267.63	4216.8	
267.84	2615.3	
268.06	2383.2	
268.27	4510.3	
268.48	4550.6	
268.69	2641.9	
268.9	2912.2	
269.11	4468	
269.32	3854.3	
269.53	2646.7	
269.74	2499.2	
269.95	4282.3	
270.16	3860.4	
270.37	2683.5	
270.58	2940.2	
270.79	4203.1	
271	4507.6	
271.21	2753.2	
271.42	2641.2	
271.63	4390.2	
271.84	3882.9	
272.05	2256.2	
272.26	2384.5	
272.47	4250.2	
272.68	4334.2	
272.89	2608.4	
273.11	2834.4	
273.32	4072	
273.53	4702.1	
273.74	2746.3	
273.95	2779.8	
274.16	4430.4	
274.37	4190.8	
274.58	2936.8	
274.79	2418	
275	4366.3	
275.21	4519.2	
275.42	3305.4	
275.63	2819.4	
275.84	4439.3	
276.05	5156.1	
276.26	2682.2	
276.47	2590.7	
276.68	4248.9	
276.89	4737.6	
277.1	2878.1	
277.31	2370.9	
277.52	4306.9	
277.73	4650.9	
277.94	2312.8	
278.15	2573.6	
278.36	4362.2	
278.57	4042	
278.78	2586.6	
278.99	2781.8	
279.2	4150.6	
279.41	4029.7	
279.62	3164.1	
279.83	2421.4	
280.04	4898.1	
280.25	3975.8	
280.46	3164.1	
280.67	2615.3	
280.88	4093.9	
281.09	4576.5	
281.3	2734.7	
281.51	3278.8	
281.72	4439.3	
281.93	4390.8	
282.14	2509.4	
282.35	2714.9	
282.56	4586.1	
282.77	4411.3	
282.98	2596.8	
283.19	2966.8	
283.4	5163.6	
283.61	4142.4	
283.82	2482.8	
284.03	3098.6	
284.24	4419.5	
284.45	4530.1	
284.66	3138.2	
284.87	2961.4	
285.08	4601.8	
285.29	4631.1	
285.5	2378.4	
285.71	2596.1	
285.92	4501.4	
286.12	4899.4	
286.33	3095.2	
286.54	2639.8	
286.75	4453	
286.96	4126	
287.17	2473.9	
287.38	3020.1	
287.59	4127.3	
287.8	4103.4	
288.01	2534	
288.22	2837.8	
288.43	4293.2	
288.64	3876.8	
288.85	2966.8	
289.06	2881.5	
289.27	4491.9	
289.48	4579.9	
289.69	3122.5	
289.9	2895.1	
290.11	4663.9	
290.32	4158.7	
290.53	2948.4	
290.74	2738.8	
290.94	4438.6	
291.15	4440	
291.36	2548.4	
291.57	2822.1	
291.78	4152.6	
291.99	3877.5	
292.2	2506.7	
292.41	2790	
292.62	4508.9	
292.83	4416.8	
293.04	3241.9	
293.25	2536.8	
293.46	4185.4	
293.67	4529.4	
293.88	2470.5	
294.09	2441.2	
294.29	4097.3	
294.5	4297.3	
294.71	2695.1	
294.92	2541.5	
295.13	4154	
295.34	4840	
295.55	2351.1	
295.76	2342.2	
295.97	4474.1	
296.18	4768.4	
296.39	2388.6	
296.6	2506.7	
296.81	4150.6	
297.01	4475.5	
297.22	2593.4	
297.43	2549	
297.64	4175.8	
297.85	4005.1	
298.06	2229.6	
298.27	2398.9	
298.48	4162.2	
298.69	4078.9	
298.9	2692.4	
299.11	2528.6	
299.31	4035.9	
299.52	4022.2	
299.73	2838.5	
299.94	2792.1	
300.15	4287.8	
300.36	4093.9	
300.57	2773.6	
300.78	2740.2	
300.99	4152.6	
301.2	4274.1	
301.4	2571.6	
301.61	2635.7	
301.82	4347.8	
302.03	4404.5	
302.24	2897.9	
302.45	2392.7	
302.66	4431.8	
302.87	4493.2	
303.08	2522.4	
303.29	3153.9	
303.49	4199	
303.7	4165.6	
303.91	2319.7	
304.12	3078.1	
304.33	3885.7	
304.54	4301.4	
304.75	2527.9	
304.96	2513.5	
305.16	4421.6	
305.37	4774.5	
305.58	2306.7	
305.79	2314.2	
306	4422.9	
306.21	3885	
306.42	2523.8	
306.63	3497.2	
306.83	4138.9	
307.04	4405.2	
307.25	2727.2	
307.46	2620	
307.67	3861.8	
307.88	4371	
308.09	2562.7	
308.29	2503.3	
308.5	4302.8	
308.71	4436.6	
308.92	2623.4	
309.13	2428.9	
309.34	4287.8	
309.55	4202.4	
309.75	3052.2	
309.96	2749.1	
310.17	4459.1	
310.38	4052.2	
310.59	2777.7	
310.8	2742.9	
311.01	4333.5	
311.21	4268.6	
311.42	2479.4	
311.63	2488.3	
311.84	4139.6	
312.05	4243.4	
312.26	2762	
312.46	2916.3	
312.67	4151.2	
312.88	3935.5	
313.09	2454.8	
313.3	2418.7	
313.51	4663.2	
313.71	4855.1	
313.92	2464.4	
314.13	2560	
314.34	4415.4	
314.55	4250.2	
314.76	2932	
314.96	2693.1	
315.17	4438.6	
315.38	4242	
315.59	2491.7	
315.8	2406.4	
316.01	4557.4	
316.21	4671.4	
316.42	2495.1	
316.63	2679.4	
316.84	4138.9	
317.05	4558.8	
317.26	2811.2	
317.46	2586.6	
317.67	4257	
317.88	4432.5	
318.09	2956.6	
318.3	2413.2	
318.5	4138.9	
318.71	4318.5	
318.92	3538.2	
319.13	2848	
319.34	4469.4	
319.54	4562.9	
319.75	2377	
319.96	2272.6	
320.17	4332.8	
320.38	4543.8	
320.58	2330.6	
320.79	2635.7	
321	4619.5	
321.21	4625	
321.42	2676.7	
321.62	2335.4	
321.83	4097.3	
322.04	4240.7	
322.25	2623.4	
322.46	2436.4	
322.66	4252.3	
322.87	4452.3	
323.08	2890.4	
323.29	2379.1	
323.5	4818.9	
323.7	3969.6	
323.91	3142.9	
324.12	2837.8	
324.33	4362.9	
324.53	4412	
324.74	2757.2	
324.95	2840.5	
325.16	3967.6	
325.37	4169.7	
325.57	2480.8	
325.78	2517	
325.99	4433.2	
326.2	3947.8	
326.4	3224.9	
326.61	2332.6	
326.82	4193.6	
327.03	4285.7	
327.24	3192.1	
327.44	3036.5	
327.65	4433.9	
327.86	3786.7	
328.07	2840.5	
328.27	2434.4	
328.48	4658.4	
328.69	3962.1	
328.9	3282.9	
329.1	2560	
329.31	4189.5	
329.52	4638.6	
329.73	2541.5	
329.93	2607.7	
330.14	4292.5	
330.35	4285.7	
330.56	3637.2	
330.76	2909.5	
330.97	4107.5	
331.18	4242.7	
331.39	2687.6	
331.59	2269.1	
331.8	4564.2	
332.01	4587.4	
332.22	2539.5	
332.42	2741.5	
332.63	4308.2	
332.84	3994.2	
333.05	2695.8	
333.25	2517.6	
333.46	4031.1	
333.67	4215.4	
333.88	2576.3	
334.08	2687.6	
334.29	5181.4	
334.5	4425	
334.7	2435	
334.91	3213.3	
335.12	3953.9	
335.33	4379.9	
335.53	2682.8	
335.74	3516.4	
335.95	4194.9	
336.16	3940.3	
336.36	2598.2	
336.57	2985.3	
336.78	3861.8	
336.98	4481	
337.19	3221.5	
337.4	2641.9	
337.61	4915.8	
337.81	3943	
338.02	2548.4	
338.23	3002.3	
338.43	4629.8	
338.64	4100.7	
338.85	2530.6	
339.05	3090.4	
339.26	4762.9	
339.47	3908.2	
339.68	2484.2	
339.88	3284.9	
340.09	4444.1	
340.3	4536.9	
340.5	2805.7	
340.71	2291.7	
340.92	3962.1	
341.13	4597.7	
341.33	2368.1	
341.54	2786.6	
341.75	4407.2	
341.95	4095.3	
342.16	2733.4	
342.37	2867.8	
342.57	4010.6	
342.78	4155.3	
342.99	2856.9	
343.19	2295.8	
343.4	4455.7	
343.61	4380.6	
343.81	2650.1	
344.02	2366.8	
344.23	4423.6	
344.43	4646.8	
344.64	2972.3	
344.85	2905.4	
345.06	4394.3	
345.26	4509.6	
345.47	2826.2	
345.68	3076	
345.88	3973.1	
346.09	4504.8	
346.3	2794.8	
346.5	2258.2	
346.71	4145.1	
346.92	4140.3	
347.12	2474.6	
347.33	2722.4	
347.54	4444.1	
347.74	4713.1	
347.95	2786.6	
348.16	2285.5	
348.36	4133.5	
348.57	3951.9	
348.78	2873.3	
348.98	2904.7	
349.19	4205.8	
349.39	3883.6	
349.6	2422.1	
349.81	2536.8	
350.01	4471.4	
350.22	4039.3	
350.43	2751.1	
350.63	3129.3	
350.84	4217.5	
351.05	4053.6	
351.25	2537.4	
351.46	2359.3	
351.67	4440.7	
351.87	4043.4	
352.08	2646	
352.29	2907.4	
352.49	4500.1	
352.7	4499.4	
352.9	2463.7	
353.11	2909.5	
353.32	4848.9	
353.52	4122.6	
353.73	2514.9	
353.94	2951.8	
354.14	4470.7	
354.35	4169.7	
354.55	2597.5	
354.76	2740.2	
354.97	4422.9	
355.17	4175.8	
355.38	2481.5	
355.59	3084.2	
355.79	4066.6	
356	4119.1	
356.2	2760.7	
356.41	2536.1	
356.62	4012.7	
356.82	4246.1	
357.03	2929.3	
357.24	2704.7	
357.44	4067.3	
357.65	4203.1	
357.85	3293.8	
358.06	2794.8	
358.27	3937.6	
358.47	4067.3	
358.68	2500.6	
358.88	2935.4	
359.09	4395.6	
359.3	4538.3	
359.5	3268.6	
359.71	3037.8	
359.91	4719.2	
360.12	4380.6	
360.33	2990.7	
360.53	3179.8	
360.74	4169	
360.94	4154.6	
361.15	3080.8	
361.36	2664.4	
361.56	4616.8	
361.77	4276.8	
361.97	3323.9	
362.18	2760.7	
362.38	4625	
362.59	4123.2	
362.8	2669.9	
363	2591.4	
363.21	4097.3	
363.41	4351.3	
363.62	2944.3	
363.83	3360.7	
364.03	4582	
364.24	4818.9	
364.44	3562.8	
364.65	3455.6	
364.85	4347.2	
365.06	4242	
365.27	2773.6	
365.47	2831	
365.68	4827.7	
365.88	4365.6	
366.09	3035.1	
366.29	2847.4	
366.5	4364.9	
366.71	4646.8	
366.91	3463.8	
367.12	3102	
367.32	5050.3	
367.53	4482.3	
367.73	3203	
367.94	3609.9	
368.14	4685.1	
368.35	4871.4	
368.56	3100.6	
368.76	2945	
368.97	4687.8	
369.17	5415.5	
369.38	2795.5	
369.58	2956.6	
369.79	4147.8	
369.99	4926.7	
370.2	3523.9	
370.4	3001.6	
370.61	4513	
370.82	5223	
371.02	3039.9	
371.23	2685.6	
371.43	4197.7	
371.64	4937.7	
371.84	3050.8	
372.05	3573	
372.25	5468.8	
372.46	4627	
372.66	3068.5	
372.87	3070.6	
373.07	4634.6	
373.28	5597.8	
373.48	3526.6	
373.69	3373	
373.9	4517.1	
374.1	4543.1	
374.31	3561.4	
374.51	3309.5	
374.72	4971.8	
374.92	4403.1	
375.13	3664.5	
375.33	3259.7	
375.54	4725.3	
375.74	4510.3	
375.95	3453.6	
376.15	3945.1	
376.36	4940.4	
376.56	4758.8	
376.77	3405.8	
376.97	3592.8	
377.18	5537	
377.38	4960.9	
377.59	3700.7	
377.79	3272	
378	4824.3	
378.2	4965.6	
378.41	3286.3	
378.61	3244.7	
378.82	5109	
379.02	4750.6	
379.23	3437.9	
379.43	3854.3	
379.64	5246.2	
379.84	4914.4	
380.05	3336.1	
380.25	3229.6	
380.46	4997	
380.66	4765.6	
380.87	3932.1	
381.07	4137.6	
381.28	5303.6	
381.48	4947.9	
381.69	3262.4	
381.89	3282.2	
382.1	4515.8	
382.3	4945.8	
382.51	3824.2	
382.71	4240	
382.91	4846.2	
383.12	5240.8	
383.32	3446.7	
383.53	3509.5	
383.73	4889.2	
383.94	4860.5	
384.14	3469.3	
384.35	3009.8	
384.55	4635.9	
384.76	4931.5	
384.96	3505.4	
385.17	3603.1	
385.37	5013.4	
385.58	4481.6	
385.78	3577.8	
385.98	3052.2	
386.19	4736.3	
386.39	5016.8	
386.6	3301.3	
386.8	3366.2	
387.01	4958.8	
387.21	5025	
387.42	3627	
387.62	3895.2	
387.83	4713.7	
388.03	4710.3	
388.23	3583.9	
388.44	3881.6	
388.64	4517.8	
388.85	4592.2	
389.05	3691.8	
389.26	3996.3	
389.46	5796.4	
389.67	5362.9	
389.87	3732.1	
390.07	3756.7	
390.28	4866	
390.48	4645.5	
390.69	3343.7	
390.89	3564.1	
391.1	4813.4	
391.3	5228.5	
391.5	4115.7	
391.71	4390.8	
391.91	5240.1	
392.12	5536.3	
392.32	4224.3	
392.53	3725.9	
392.73	4871.4	
392.93	4919.9	
393.14	3598.3	
393.34	3967.6	
393.55	5233.2	
393.75	4876.2	
393.95	3590.1	
394.16	3485	
394.36	4896	
394.57	5239.4	
394.77	3410.6	
394.98	3502.7	
395.18	4869.4	
395.38	4893.3	
395.59	4090.5	
395.79	3551.2	
396	5034.6	
396.2	5223	
396.4	3975.8	
396.61	3997	
396.81	5208	
397.02	4978.6	
397.22	4191.5	
397.42	4246.1	
397.63	5456.5	
397.83	5039.4	
398.04	3605.1	
398.24	3936.9	
398.44	5242.8	
398.65	4723.3	
398.85	3685.7	
399.05	3646.1	
399.26	5173.9	
399.46	5933.6	
399.67	3926	
399.87	3777.1	
400.07	5263.3	
400.28	5397.1	
400.48	3817.4	
400.69	4362.2	
400.89	5549.3	
401.09	5896.1	
401.3	3891.1	
401.5	4330.8	
401.7	5890.6	
401.91	6032.6	
402.11	4075.5	
402.32	4089.1	
402.52	5722.7	
402.72	5483.8	
402.93	4257.7	
403.13	3674.1	
403.33	6084.5	
403.54	5226.4	
403.74	4053.6	
403.94	4487.1	
404.15	5299.5	
404.35	6006	
404.56	3956.7	
404.76	4775.9	
404.96	5597.1	
405.17	5442.1	
405.37	4358.1	
405.57	4258.4	
405.78	5711.1	
405.98	5324	
406.18	4102.1	
406.39	4397.7	
406.59	5595.7	
406.79	5351.3	
407	3829.7	
407.2	3892.5	
407.4	5939.1	
407.61	5806	
407.81	4067.3	
408.01	5195.7	
408.22	5090.6	
408.42	6225.1	
408.62	4744.5	
408.83	4555.4	
409.03	5668.8	
409.23	5681.7	
409.44	4668	
409.64	4728.1	
409.84	6375.3	
410.05	6322.1	
410.25	4849.6	
410.45	4728.8	
410.66	6262	
410.86	7542	
411.06	5123.3	
411.27	4937	
411.47	7408.9	
411.67	6395.8	
411.88	5187.5	
412.08	5337	
412.28	6758.3	
412.49	7049.8	
412.69	5216.9	
412.89	5185.5	
413.09	6989.7	
413.3	6975.4	
413.5	5456.5	
413.7	5182	
413.91	6655.9	
414.11	7017.7	
414.31	5294	
414.52	5568.4	
414.72	6953.5	
414.92	6938.5	
415.12	5292.6	
415.33	5614.2	
415.53	7157	
415.73	7259.4	
415.94	5773.2	
416.14	5461.9	
416.34	6795.8	
416.55	6537.1	
416.75	6120	
416.95	5902.9	
417.15	7458	
417.36	7524.2	
417.56	6410.8	
417.76	5806	
417.97	7464.2	
418.17	7320.8	
418.37	5716.6	
418.57	5631.2	
418.78	7376.8	
418.98	7133.8	
419.18	6156.9	
419.38	6102.9	
419.59	7071.6	
419.79	6866.2	
419.99	5624.4	
420.2	5812.1	
420.4	7421.2	
420.6	7340.6	
420.8	5596.4	
421.01	5476.3	
421.21	7449.8	
421.41	7316.7	
421.61	5743.2	
421.82	5609.4	
422.02	7184.3	
422.22	7490.1	
422.42	6035.4	
422.63	5768.4	
422.83	7101.7	
423.03	7762.5	
423.23	5837.4	
423.44	5355.4	
423.64	7061.4	
423.84	6812.9	
424.04	5643.5	
424.25	5436	
424.45	7516.7	
424.65	7428.7	
424.85	5173.2	
425.06	5594.4	
425.26	7735.2	
425.46	6993.8	
425.66	5780.7	
425.87	5692	
426.07	7358.4	
426.27	7176.1	
426.47	5766.4	
426.67	5350	
426.88	7600.7	
427.08	7272.3	
427.28	5963.7	
427.48	5283.1	
427.69	6750.8	
427.89	7063.4	
428.09	5870.2	
428.29	5340.4	
428.5	7330.4	
428.7	7175.4	
428.9	5364.3	
429.1	5519.3	
429.3	7210.9	
429.51	7236.8	
429.71	5470.8	
429.91	5883.8	
430.11	7474.4	
430.31	7647.8	
430.52	5679	
430.72	5859.2	
430.92	7657.4	
431.12	7387	
431.32	5635.3	
431.53	5798.5	
431.73	7025.2	
431.93	7755	
432.13	5564.3	
432.33	5545.2	
432.54	7195.9	
432.74	7191.8	
432.94	5570.5	
433.14	6079.1	
433.34	7653.3	
433.55	7464.2	
433.75	6066.8	
433.95	7045.7	
434.15	7510.6	
434.35	7305.1	
434.56	5703.6	
434.76	5584.1	
434.96	7402.7	
435.16	7675.8	
435.36	5737.7	
435.56	6419	
435.77	7514	
435.97	7501.7	
436.17	6783.6	
436.37	6392.4	
436.57	7379.5	
436.78	7443	
436.98	6275.7	
437.18	6721.4	
437.38	7827.3	
437.58	7501	
437.78	6759.7	
437.99	6019.7	
438.19	7783.6	
438.39	8245.1	
438.59	6102.3	
438.79	5700.2	
438.99	8254	
439.2	7479.9	
439.4	5753.4	
439.6	5732.9	
439.8	7526.3	
440	8198	
440.2	6390.3	
440.4	6449.1	
440.61	8024.6	
440.81	8289.5	
441.01	6039.5	
441.21	6683.9	
441.41	8473.1	
441.61	8058.1	
441.81	6868.9	
442.02	7232.7	
442.22	8581	
442.42	8241.7	
442.62	6360.3	
442.82	6344.6	
443.02	8623.3	
443.22	8101.8	
443.43	6662	
443.63	6266.8	
443.83	7906.5	
444.03	7864.2	
444.23	7107.8	
444.43	6820.4	
444.63	8307.2	
444.83	8851.3	
445.04	6705.7	
445.24	7189.1	
445.44	8408.3	
445.64	8390.5	
445.84	6780.8	
446.04	6959.7	
446.24	8020.5	
446.44	8498.4	
446.65	6328.9	
446.85	6685.9	
447.05	7987.8	
447.25	8419.2	
447.45	6728.9	
447.65	6328.2	
447.85	8182.3	
448.05	7712.7	
448.25	6924.2	
448.46	6738.5	
448.66	8213.7	
448.86	7899	
449.06	6333	
449.26	6890.7	
449.46	8417.8	
449.66	7847.1	
449.86	6716.7	
450.06	6696.9	
450.26	7946.8	
450.47	8454.7	
450.67	6746	
450.87	7061.4	
451.07	8675.2	
451.27	8338.6	
451.47	6513.2	
451.67	7016.3	
451.87	8275.2	
452.07	8744.1	
452.27	6810.2	
452.47	6531	
452.67	8486.8	
452.88	8625.4	
453.08	6293.4	
453.28	7408.2	
453.48	9218.6	
453.68	8303.8	
453.88	6802	
454.08	6727.6	
454.28	8738.7	
454.48	8431.5	
454.68	7109.2	
454.88	7337.2	
455.08	8808.3	
455.28	8668.4	
455.48	6665.5	
455.68	7268.2	
455.89	9127.8	
456.09	8985.1	
456.29	6980.8	
456.49	7292.8	
456.69	9241.1	
456.89	8751	
457.09	7376.1	
457.29	7829.4	
457.49	9049.3	
457.69	9157.8	
457.89	7608.9	
458.09	7171.3	
458.29	9040.4	
458.49	9525.1	
458.69	7765.2	
458.89	7497.6	
459.09	9710.1	
459.29	9605	
459.49	7499.7	
459.69	8062.9	
459.9	9346.2	
460.1	9288.2	
460.3	7462.8	
460.5	7343.3	
460.7	9469.8	
460.9	9129.2	
461.1	7267.6	
461.3	8018.5	
461.5	9949.7	
461.7	9613.8	
461.9	7792.5	
462.1	7871.7	
462.3	9675.3	
462.5	9953.8	
462.7	7763.8	
462.9	7912.7	
463.1	10517	
463.3	10368	
463.5	8127	
463.7	8831.5	
463.9	9992.7	
464.1	10196	
464.3	8615.8	
464.5	8495	
464.7	10323	
464.9	10333	
465.1	9282.1	
465.3	8854.1	
465.5	10557	
465.7	10653	
465.9	9101.9	
466.1	8624.7	
466.3	10658	
466.5	10406	
466.7	9553.1	
466.9	8839	
467.1	10779	
467.3	11071	
467.5	9666.4	
467.7	9046.6	
467.9	11251	
468.1	11729	
468.3	9364.7	
468.5	9664.4	
468.7	10749	
468.9	10503	
469.1	9312.8	
469.3	9648	
469.5	11826	
469.7	10695	
469.9	9428.2	
470.1	9247.9	
470.3	10981	
470.5	10940	
470.7	9900.6	
470.9	9213.1	
471.1	10955	
471.3	10834	
471.5	9250	
471.69	10176	
471.89	10798	
472.09	10334	
472.29	9583.1	
472.49	9519	
472.69	10682	
472.89	10843	
473.09	9125.7	
473.29	8982.4	
473.49	10665	
473.69	10471	
473.89	9534	
474.09	9189.2	
474.29	11355	
474.49	11040	
474.69	9486.9	
474.89	9225.4	
475.09	10684	
475.29	10633	
475.49	8869.1	
475.69	9206.3	
475.88	11321	
476.08	10799	
476.28	8810.4	
476.48	8927.1	
476.68	11023	
476.88	10779	
477.08	9075.2	
477.28	9139.4	
477.48	10563	
477.68	10679	
477.88	8755.7	
478.08	8880.7	
478.28	11168	
478.48	10575	
478.67	9127.1	
478.87	8573.5	
479.07	11061	
479.27	10583	
479.47	9115.5	
479.67	9225.4	
479.87	10917	
480.07	11115	
480.27	8895.7	
480.47	9480.7	
480.67	10636	
480.87	11170	
481.06	8972.8	
481.26	9552.4	
481.46	10881	
481.66	10677	
481.86	9336	
482.06	9701.2	
482.26	10567	
482.46	10989	
482.66	9228.8	
482.86	9125.1	
483.05	11028	
483.25	10471	
483.45	10537	
483.65	9293.7	
483.85	10513	
484.05	10825	
484.25	9484.8	
484.45	9787.9	
484.65	11056	
484.84	11481	
485.04	9289.6	
485.24	9377	
485.44	11572	
485.64	10694	
485.84	9189.2	
486.04	9835	
486.24	11078	
486.44	11073	
486.63	9098.4	
486.83	9718.3	
487.03	11092	
487.23	11127	
487.43	9267.1	
487.63	10573	
487.83	11369	
488.02	11456	
488.22	9781.1	
488.42	10232	
488.62	11810	
488.82	11166	
489.02	9685.5	
489.22	9977	
489.41	11568	
489.61	11751	
489.81	9635.7	
490.01	9669.1	
490.21	11688	
490.41	12279	
490.61	9799.5	
490.8	9811.1	
491	11712	
491.2	11249	
491.4	10167	
491.6	9708.1	
491.8	11548	
491.99	11437	
492.19	9624.8	
492.39	9671.2	
492.59	11750	
492.79	11966	
492.99	10219	
493.18	9869.2	
493.38	11993	
493.58	12447	
493.78	10215	
493.98	10031	
494.18	11901	
494.37	11611	
494.57	10628	
494.77	10424	
494.97	12316	
495.17	12596	
495.37	10602	
495.56	10878	
495.76	12790	
495.96	12588	
496.16	11389	
496.36	10991	
496.55	12977	
496.75	12693	
496.95	11153	
497.15	11246	
497.35	12959	
497.54	13060	
497.74	11131	
497.94	12051	
498.14	13485	
498.34	13153	
498.53	11106	
498.73	11405	
498.93	12623	
499.13	13105	
499.33	11498	
499.52	11424	
499.72	13413	
499.92	13175	
500.12	11271	
500.32	11426	
500.51	13343	
500.71	13254	
500.91	11989	
501.11	11625	
501.31	13353	
501.5	13648	
501.7	12175	
501.9	11523	
502.1	13254	
502.29	13601	
502.49	11901	
502.69	12028	
502.89	13310	
503.09	13435	
503.28	11241	
503.48	11307	
503.68	12962	
503.88	12894	
504.07	11748	
504.27	11299	
504.47	13095	
504.67	13055	
504.86	11571	
505.06	11404	
505.26	12988	
505.46	13599	
505.65	11297	
505.85	11434	
506.05	12799	
506.25	13063	
506.44	10820	
506.64	11196	
506.84	12510	
507.04	12868	
507.23	10961	
507.43	11034	
507.63	13316	
507.83	12412	
508.02	11028	
508.22	10841	
508.42	13621	
508.62	12358	
508.81	10972	
509.01	11258	
509.21	12288	
509.4	12534	
509.6	11012	
509.8	10718	
510	12363	
510.19	13081	
510.39	10753	
510.59	10915	
510.79	12503	
510.98	13226	
511.18	11013	
511.38	11002	
511.57	12994	
511.77	12738	
511.97	11148	
512.17	10692	
512.36	13064	
512.56	12805	
512.76	10747	
512.95	10599	
513.15	12984	
513.35	12087	
513.55	11310	
513.74	10776	
513.94	12749	
514.14	12504	
514.33	11399	
514.53	11207	
514.73	12694	
514.92	12617	
515.12	10935	
515.32	10890	
515.51	12709	
515.71	12790	
515.91	11843	
516.11	10958	
516.3	13662	
516.5	12538	
516.7	11164	
516.89	11432	
517.09	12704	
517.29	12878	
517.48	11408	
517.68	11166	
517.88	12432	
518.07	12862	
518.27	11462	
518.47	10909	
518.66	13289	
518.86	12535	
519.06	10778	
519.25	11096	
519.45	12656	
519.65	13400	
519.84	11305	
520.04	11916	
520.24	13728	
520.43	13079	
520.63	11303	
520.83	11280	
521.02	12704	
521.22	12995	
521.42	11411	
521.61	11669	
521.81	12747	
522.01	12880	
522.2	11333	
522.4	11115	
522.6	13079	
522.79	12358	
522.99	11232	
523.18	10998	
523.38	13224	
523.58	13077	
523.77	12126	
523.97	11157	
524.17	14052	
524.36	13740	
524.56	12140	
524.76	11897	
524.95	13508	
525.15	13272	
525.34	12069	
525.54	12096	
525.74	13838	
525.93	13416	
526.13	12837	
526.33	12270	
526.52	14398	
526.72	13961	
526.91	12926	
527.11	12691	
527.31	14308	
527.5	14573	
527.7	12665	
527.89	12065	
528.09	13891	
528.29	14410	
528.48	12876	
528.68	12542	
528.87	14470	
529.07	14396	
529.27	12810	
529.46	12624	
529.66	14537	
529.85	14634	
530.05	12609	
530.25	12966	
530.44	15328	
530.64	14338	
530.83	12800	
531.03	12822	
531.23	14850	
531.42	14532	
531.62	13252	
531.81	12784	
532.01	14680	
532.21	14999	
532.4	13021	
532.6	13209	
532.79	15339	
532.99	15247	
533.18	13399	
533.38	13847	
533.58	15059	
533.77	15225	
533.97	13474	
534.16	14024	
534.36	15802	
534.55	15198	
534.75	14133	
534.95	13715	
535.14	15890	
535.34	15213	
535.53	13534	
535.73	14459	
535.92	16137	
536.12	15155	
536.31	13702	
536.51	14270	
536.71	15446	
536.9	15210	
537.1	13575	
537.29	13813	
537.49	15529	
537.68	15059	
537.88	13935	
538.07	13371	
538.27	15379	
538.46	15756	
538.66	13377	
538.86	13629	
539.05	15365	
539.25	15603	
539.44	13969	
539.64	13539	
539.83	15346	
540.03	15831	
540.22	13537	
540.42	13451	
540.61	15327	
540.81	15510	
541	13702	
541.2	14160	
541.39	14942	
541.59	15091	
541.78	13921	
541.98	13467	
542.18	14875	
542.37	14771	
542.57	13467	
542.76	13858	
542.96	14724	
543.15	14971	
543.35	13493	
543.54	13086	
543.74	14439	
543.93	14865	
544.13	13263	
544.32	13812	
544.52	15057	
544.71	14481	
544.91	12611	
545.1	13291	
545.3	14480	
545.49	14564	
545.69	12639	
545.88	12890	
546.08	15304	
546.27	14943	
546.47	13102	
546.66	12744	
546.86	14777	
547.05	14924	
547.24	12908	
547.44	12818	
547.63	14261	
547.83	14840	
548.02	12947	
548.22	12970	
548.41	14113	
548.61	14829	
548.8	12646	
549	12764	
549.19	14386	
549.39	14652	
549.58	12400	
549.78	12734	
549.97	14489	
550.17	14203	
550.36	13013	
550.55	13487	
550.75	14225	
550.94	14697	
551.14	12407	
551.33	12560	
551.53	13780	
551.72	14399	
551.92	12540	
552.11	12366	
552.31	14410	
552.5	14184	
552.69	13341	
552.89	12220	
553.08	14347	
553.28	14078	
553.47	12372	
553.67	12937	
553.86	14441	
554.06	13463	
554.25	12017	
554.44	12201	
554.64	14786	
554.83	14646	
555.03	12254	
555.22	12284	
555.42	14254	
555.61	14087	
555.8	12211	
556	12312	
556.19	13624	
556.39	14028	
556.58	12243	
556.78	12166	
556.97	14086	
557.16	13876	
557.36	12895	
557.55	12004	
557.75	13289	
557.94	14529	
558.13	12044	
558.33	11989	
558.52	14280	
558.72	13475	
558.91	11934	
559.1	12104	
559.3	13373	
559.49	13238	
559.69	11901	
559.88	12242	
560.07	13773	
560.27	14104	
560.46	12235	
560.66	12309	
560.85	13799	
561.04	13147	
561.24	11957	
561.43	12015	
561.63	13392	
561.82	13415	
562.01	12512	
562.21	11960	
562.4	13665	
562.59	14220	
562.79	12033	
562.98	11684	
563.18	13675	
563.37	14326	
563.56	12329	
563.76	12001	
563.95	13370	
564.14	13512	
564.34	12250	
564.53	11923	
564.73	13913	
564.92	14015	
565.11	12262	
565.31	12034	
565.5	14214	
565.69	13618	
565.89	12249	
566.08	12365	
566.27	14058	
566.47	14440	
566.66	12814	
566.85	12119	
567.05	14093	
567.24	13798	
567.44	12207	
567.63	12887	
567.82	14183	
568.02	13852	
568.21	12181	
568.4	12379	
568.6	14017	
568.79	13899	
568.98	12174	
569.18	12265	
569.37	13949	
569.56	15147	
569.76	12554	
569.95	13089	
570.14	14315	
570.34	14191	
570.53	12373	
570.72	12276	
570.91	14612	
571.11	14166	
571.3	12566	
571.49	13056	
571.69	14300	
571.88	13838	
572.07	12885	
572.27	12813	
572.46	13799	
572.65	14384	
572.85	12421	
573.04	12658	
573.23	14688	
573.43	14211	
573.62	12459	
573.81	12811	
574	14385	
574.2	14186	
574.39	12776	
574.58	12787	
574.78	14973	
574.97	14552	
575.16	13117	
575.36	13190	
575.55	14946	
575.74	14949	
575.93	12708	
576.13	13442	
576.32	14556	
576.51	15087	
576.71	13112	
576.9	13863	
577.09	15266	
577.28	14936	
577.48	13228	
577.67	12805	
577.86	14687	
578.05	14932	
578.25	13207	
578.44	13162	
578.63	14818	
578.83	15610	
579.02	12958	
579.21	13842	
579.4	14852	
579.6	14939	
579.79	13304	
579.98	14480	
580.17	15172	
580.37	15365	
580.56	13105	
580.75	13652	
580.94	15282	
581.14	15451	
581.33	13809	
581.52	13115	
581.71	15123	
581.91	15636	
582.1	13125	
582.29	13363	
582.48	14920	
582.68	15039	
582.87	13707	
583.06	13600	
583.25	15389	
583.45	15203	
583.64	13914	
583.83	14336	
584.02	15190	
584.21	15508	
584.41	13788	
584.6	13587	
584.79	15349	
584.98	15580	
585.18	13295	
585.37	13518	
585.56	15113	
585.75	15466	
585.94	13485	
586.14	13753	
586.33	15545	
586.52	15216	
586.71	13607	
586.91	13543	
587.1	14640	
587.29	15206	
587.48	13207	
587.67	13205	
587.87	15107	
588.06	14789	
588.25	13892	
588.44	13408	
588.63	14664	
588.83	14804	
589.02	13011	
589.21	12795	
589.4	14404	
589.59	14464	
589.78	12293	
589.98	12304	
590.17	13730	
590.36	13839	
590.55	11662	
590.74	11867	
590.94	14175	
591.13	13467	
591.32	11585	
591.51	11404	
591.7	13487	
591.89	13321	
592.09	11316	
592.28	11731	
592.47	12876	
592.66	14083	
592.85	11486	
593.05	11660	
593.24	13370	
593.43	14025	
593.62	11815	
593.81	12075	
594	13472	
594.19	13561	
594.39	11679	
594.58	11565	
594.77	13599	
594.96	13838	
595.15	11764	
595.34	11963	
595.54	13380	
595.73	13069	
595.92	11256	
596.11	11757	
596.3	13739	
596.49	13107	
596.68	11540	
596.88	11867	
597.07	13474	
597.26	12907	
597.45	11339	
597.64	12011	
597.83	13151	
598.02	13584	
598.22	11403	
598.41	11806	
598.6	13434	
598.79	12938	
598.98	11500	
599.17	12017	
599.36	13495	
599.55	13713	
599.74	12465	
599.94	12366	
600.13	13603	
600.32	13047	
600.51	11273	
600.7	11437	
600.89	13820	
601.08	14041	
601.27	11370	
601.47	11769	
601.66	13575	
601.85	13764	
602.04	11774	
602.23	11668	
602.42	13241	
602.61	13414	
602.8	11614	
602.99	11419	
603.18	13072	
603.37	13358	
603.57	11687	
603.76	12129	
603.95	13795	
604.14	13401	
604.33	11480	
604.52	11590	
604.71	13337	
604.9	13022	
605.09	11920	
605.28	11809	
605.47	13865	
605.66	13506	
605.86	11860	
606.05	11591	
606.24	13723	
606.43	12761	
606.62	11710	
606.81	12048	
607	13581	
607.19	13161	
607.38	11301	
607.57	11458	
607.76	13057	
607.95	12672	
608.14	11641	
608.33	11986	
608.52	12944	
608.72	13387	
608.91	11194	
609.1	11213	
609.29	13095	
609.48	12618	
609.67	11592	
609.86	11219	
610.05	12719	
610.24	12916	
610.43	11136	
610.62	10779	
610.81	13556	
611	13418	
611.19	11138	
611.38	11552	
611.57	13098	
611.76	13664	
611.95	11159	
612.14	10918	
612.33	12729	
612.52	12728	
612.71	11249	
612.9	10978	
613.09	12503	
613.28	13839	
613.47	11305	
613.66	11692	
613.85	13035	
614.04	12695	
614.24	11105	
614.43	10823	
614.62	13193	
614.81	12979	
615	11380	
615.19	11469	
615.38	12669	
615.57	12947	
615.76	11488	
615.95	11931	
616.14	13246	
616.33	13033	
616.52	11655	
616.71	11697	
616.9	13261	
617.09	13137	
617.28	11299	
617.47	12027	
617.66	12748	
617.85	12734	
618.04	11876	
618.22	11482	
618.41	13060	
618.6	13680	
618.79	11828	
618.98	11725	
619.17	13895	
619.36	12884	
619.55	11792	
619.74	11837	
619.93	13488	
620.12	13200	
620.31	12274	
620.5	12361	
620.69	13837	
620.88	14301	
621.07	12677	
621.26	12368	
621.45	13819	
621.64	13910	
621.83	12428	
622.02	12115	
622.21	13897	
622.4	13949	
622.59	12600	
622.78	12796	
622.97	13740	
623.16	14157	
623.35	12502	
623.54	12048	
623.72	13842	
623.91	13778	
624.1	12620	
624.29	12015	
624.48	14521	
624.67	14067	
624.86	12709	
625.05	12159	
625.24	14615	
625.43	13929	
625.62	13454	
625.81	12359	
626	14269	
626.19	14004	
626.38	12672	
626.56	12404	
626.75	13810	
626.94	14390	
627.13	12736	
627.32	12059	
627.51	14215	
627.7	14640	
627.89	12144	
628.08	12843	
628.27	13697	
628.46	13893	
628.65	12195	
628.83	11903	
629.02	14165	
629.21	13677	
629.4	12455	
629.59	12477	
629.78	13725	
629.97	14176	
630.16	12602	
630.35	12290	
630.54	14536	
630.72	14437	
630.91	12393	
631.1	12518	
631.29	13996	
631.48	14035	
631.67	12659	
631.86	12335	
632.05	14043	
632.24	13867	
632.42	12140	
632.61	12465	
632.8	13717	
632.99	13624	
633.18	12598	
633.37	12560	
633.56	14174	
633.75	14099	
633.93	12528	
634.12	12376	
634.31	14620	
634.5	14325	
634.69	12558	
634.88	12654	
635.07	14057	
635.25	14323	
635.44	12913	
635.63	13162	
635.82	13954	
636.01	13121	
636.2	12855	
636.39	12591	
636.57	14620	
636.76	14123	
636.95	12259	
637.14	12932	
637.33	14075	
637.52	14550	
637.7	12174	
637.89	12801	
638.08	14019	
638.27	14605	
638.46	12708	
638.65	12814	
638.83	14625	
639.02	13799	
639.21	12553	
639.4	12740	
639.59	13933	
639.78	13802	
639.96	12207	
640.15	12228	
640.34	13926	
640.53	13779	
640.72	12002	
640.91	12108	
641.09	13420	
641.28	14106	
641.47	12253	
641.66	12431	
641.85	13856	
642.03	13748	
642.22	12207	
642.41	12009	
642.6	13389	
642.79	13091	
642.97	11795	
643.16	12142	
643.35	13409	
643.54	13287	
643.73	11693	
643.91	12057	
644.1	13118	
644.29	13589	
644.48	11641	
644.67	11725	
644.85	12819	
645.04	13326	
645.23	11368	
645.42	11530	
645.6	12707	
645.79	13248	
645.98	11215	
646.17	10542	
646.36	12270	
646.54	12439	
646.73	11343	
646.92	10836	
647.11	12282	
647.29	12751	
647.48	10854	
647.67	10464	
647.86	12903	
648.05	12891	
648.23	10703	
648.42	11480	
648.61	12506	
648.8	12475	
648.98	10610	
649.17	10684	
649.36	12060	
649.55	11846	
649.73	10647	
649.92	10884	
650.11	12174	
650.3	12284	
650.48	10660	
650.67	10645	
650.86	12450	
651.05	11929	
651.23	10705	
651.42	10502	
651.61	12086	
651.79	11700	
651.98	10682	
652.17	10354	
652.36	12062	
652.54	11691	
652.73	10575	
652.92	10328	
653.11	12174	
653.29	12301	
653.48	10106	
653.67	10525	
653.85	12047	
654.04	12538	
654.23	10600	
654.42	10365	
654.6	11584	
654.79	11833	
654.98	9889.6	
655.16	10053	
655.35	11094	
655.54	10901	
655.73	9589.3	
655.91	9454.1	
656.1	11267	
656.29	10725	
656.47	9166.7	
656.66	10147	
656.85	11007	
657.03	11094	
657.22	9706.7	
657.41	9798.2	
657.59	11272	
657.78	11230	
657.97	9815.2	
658.16	10167	
658.34	11699	
658.53	12136	
658.72	10618	
658.9	10898	
659.09	11598	
659.28	11603	
659.46	10075	
659.65	10088	
659.84	11430	
660.02	11930	
660.21	10081	
660.4	10076	
660.58	11980	
660.77	11530	
660.96	10488	
661.14	9867.1	
661.33	12413	
661.52	12284	
661.7	9850.7	
661.89	11537	
662.08	11573	
662.26	11224	
662.45	10006	
662.64	10023	
662.82	11924	
663.01	11310	
663.2	10041	
663.38	10426	
663.57	11792	
663.75	11740	
663.94	10139	
664.13	10782	
664.31	11371	
664.5	11783	
664.69	10267	
664.87	10580	
665.06	11302	
665.25	11586	
665.43	10628	
665.62	10586	
665.8	11767	
665.99	11478	
666.18	10138	
666.36	10161	
666.55	11761	
666.74	11684	
666.92	10004	
667.11	10756	
667.29	11379	
667.48	11693	
667.67	10358	
667.85	9940.8	
668.04	11317	
668.22	11406	
668.41	10122	
668.6	10315	
668.78	11342	
668.97	11396	
669.15	10324	
669.34	9665	
669.53	11247	
669.71	11449	
669.9	9753.8	
670.08	10223	
670.27	11160	
670.46	11602	
670.64	10196	
670.83	10412	
671.01	11104	
671.2	11336	
671.38	9917.6	
671.57	9713.5	
671.76	11783	
671.94	12085	
672.13	9779.7	
672.31	10103	
672.5	11780	
672.69	11297	
672.87	9821.4	
673.06	9983.8	
673.24	11477	
673.43	11331	
673.61	10068	
673.8	9822.1	
673.98	11518	
674.17	11675	
674.36	10314	
674.54	10132	
674.73	11208	
674.91	11656	
675.1	9999.5	
675.28	9775.6	
675.47	11252	
675.65	11646	
675.84	10010	
676.03	10070	
676.21	11295	
676.4	10867	
676.58	10395	
676.77	10419	
676.95	12088	
677.14	11216	
677.32	9708.7	
677.51	9764.7	
677.69	11584	
677.88	11120	
678.06	9783.8	
678.25	9758.6	
678.44	11430	
678.62	11182	
678.81	9633	
678.99	10163	
679.18	11906	
679.36	11559	
679.55	9934.7	
679.73	10207	
679.92	11450	
680.1	11232	
680.29	10553	
680.47	9974.3	
680.66	11138	
680.84	11606	
681.03	9670.5	
681.21	10170	
681.4	11147	
681.58	11148	
681.77	9765.4	
681.95	9687.6	
682.14	11536	
682.32	11709	
682.51	10189	
682.69	9509.4	
682.88	11084	
683.06	11131	
683.25	10009	
683.43	10152	
683.62	11266	
683.8	11387	
683.99	10235	
684.17	9712.8	
684.36	11699	
684.54	11074	
684.73	9238.4	
684.91	9341.5	
685.1	10986	
685.28	10642	
685.46	9260.9	
685.65	9138	
685.83	10479	
686.02	10095	
686.2	8469.7	
686.39	8586.5	
686.57	9726.5	
686.76	10582	
686.94	8621.9	
687.13	8679.3	
687.31	10297	
687.5	10181	
687.68	8533.9	
687.86	9090.9	
688.05	11193	
688.23	10026	
688.42	9254.8	
688.6	8976.9	
688.79	10272	
688.97	10347	
689.16	9139.4	
689.34	8597.4	
689.52	10769	
689.71	10807	
689.89	9506.7	
690.08	9155.8	
690.26	10627	
690.45	10498	
690.63	9471.2	
690.81	9314.2	
691	10677	
691.18	10419	
691.37	9329.2	
691.55	10306	
691.74	10341	
691.92	11350	
692.1	9188.6	
692.29	8824	
692.47	10527	
692.66	10008	
692.84	8852	
693.02	9152.4	
693.21	10026	
693.39	10463	
693.58	9136.7	
693.76	8980.3	
693.94	11029	
694.13	11000	
694.31	9187.2	
694.5	9666.4	
694.68	10511	
694.86	10801	
695.05	9460.3	
695.23	9815.2	
695.42	11043	
695.6	12136	
695.78	9845.3	
695.97	9368.8	
696.15	11239	
696.34	10781	
696.52	9389.3	
696.7	9781.8	
696.89	10826	
697.07	10547	
697.25	9505.3	
697.44	10167	
697.62	10918	
697.81	10714	
697.99	9256.8	
698.17	9490.3	
698.36	10427	
698.54	10731	
698.72	9491	
698.91	8789.2	
699.09	10350	
699.28	10288	
699.46	9186.5	
699.64	9127.1	
699.83	10299	
700.01	10588	
700.19	9449.3	
700.38	8627.4	
700.56	10789	
700.74	10301	
700.93	8761.9	
701.11	9239.8	
701.29	10587	
701.48	11158	
701.66	8931.2	
701.84	9126.4	
702.03	10617	
702.21	11029	
702.39	8927.1	
702.58	9235.7	
702.76	10785	
702.94	10889	
703.13	8891.6	
703.31	10099	
703.49	10476	
703.68	10811	
703.86	8926.4	
704.04	9505.3	
704.23	10636	
704.41	10856	
704.59	9027.4	
704.78	9485.5	
704.96	11497	
705.14	10659	
705.33	8970.8	
705.51	9285.5	
705.69	10364	
705.87	10894	
706.06	9297.1	
706.24	8804.9	
706.42	10559	
706.61	10797	
706.79	9309.4	
706.97	8741.4	
707.16	10244	
707.34	10461	
707.52	9164.7	
707.7	8898.4	
707.89	10172	
708.07	10115	
708.25	9286.9	
708.44	9382.4	
708.62	10103	
708.8	10677	
708.98	9364	
709.17	8893.6	
709.35	10215	
709.53	10255	
709.72	8638.3	
709.9	8601.5	
710.08	10475	
710.26	10427	
710.45	9319.6	
710.63	8651.3	
710.81	10021	
710.99	10172	
711.18	8918.2	
711.36	8536.6	
711.54	9926.5	
711.72	10274	
711.91	8507.3	
712.09	8210.3	
712.27	9809.1	
712.45	10298	
712.64	8462.2	
712.82	7915.4	
713	9317.6	
713.18	9311.4	
713.37	7776.8	
713.55	8224.6	
713.73	9620.7	
713.91	8839	
714.1	7547.4	
714.28	7323.5	
714.46	8925.7	
714.64	8327	
714.83	6500.9	
715.01	6688.7	
715.19	7949.5	
715.37	7413.6	
715.55	6161	
715.74	6266.8	
715.92	8016.4	
716.1	6922.8	
716.28	6792.4	
716.47	6252.4	
716.65	7434.1	
716.83	7366.5	
717.01	6100.9	
717.19	6001.9	
717.38	8336.6	
717.56	6975.4	
717.74	6130.9	
717.92	5789.6	
718.1	7731.1	
718.29	7268.9	
718.47	5574.6	
718.65	6057.2	
718.83	8039.6	
719.01	7992.5	
719.2	5990.3	
719.38	6591.7	
719.56	8082	
719.74	8913.4	
719.92	6526.2	
720.11	6903	
720.29	8094.9	
720.47	7600	
720.65	6118.6	
720.83	6410.8	
721.02	7528.3	
721.2	7300.3	
721.38	6178	
721.56	5679.7	
721.74	6814.3	
721.92	6850.5	
722.11	6262	
722.29	6121.4	
722.47	7413	
722.65	7034.1	
722.83	5598.5	
723.01	5863.3	
723.2	6936.5	
723.38	7248.4	
723.56	5278.3	
723.74	5876.3	
723.92	6669.6	
724.1	7276.4	
724.29	5512.4	
724.47	6075	
724.65	6859.3	
724.83	6724.8	
725.01	5474.9	
725.19	5796.4	
725.37	6594.5	
725.56	6608.8	
725.74	5292	
725.92	5421	
726.1	6697.5	
726.28	6882.5	
726.46	5606.7	
726.64	5385.5	
726.83	6948.8	
727.01	6776.7	
727.19	5256.5	
727.37	5674.2	
727.55	6913.9	
727.73	7114.6	
727.91	5252.4	
728.09	5100.8	
728.28	7038.2	
728.46	7245.7	
728.64	5670.1	
728.82	5564.3	
729	7578.2	
729.18	7413.6	
729.36	5311.7	
729.54	6468.9	
729.72	7846.5	
729.91	7071	
730.09	6453.8	
730.27	5768.4	
730.45	7137.9	
730.63	7359.7	
730.81	6062.7	
730.99	5728.2	
731.17	7756.3	
731.35	6995.2	
731.53	5896.1	
731.71	5777.3	
731.9	7569.3	
732.08	7489.4	
732.26	5789.6	
732.44	5594.4	
732.62	7544	
732.8	7251.2	
732.98	5945.9	
733.16	5520.6	
733.34	7263.5	
733.52	6396.5	
733.7	5560.2	
733.88	5620.3	
734.07	7092.8	
734.25	6915.3	
734.43	5309	
734.61	6088.6	
734.79	7771.4	
734.97	6883.9	
735.15	5395.7	
735.33	5549.3	
735.51	7157	
735.69	6840.2	
735.87	5982.1	
736.05	5534.3	
736.23	6934.4	
736.41	6621.8	
736.59	5559.6	
736.77	5557.5	
736.95	7104.4	
737.13	6718.7	
737.32	5278.3	
737.5	5331.5	
737.68	7331.7	
737.86	6647	
738.04	5122.7	
738.22	6056.5	
738.4	6578.8	
738.58	6718.7	
738.76	5390.3	
738.94	4892.6	
739.12	6641.6	
739.3	6509.8	
739.48	5634	
739.66	5483.1	
739.84	6657.3	
740.02	6642.9	
740.2	4851.6	
740.38	4975.9	
740.56	6808.1	
740.74	6019	
740.92	5377.3	
741.1	5225.7	
741.28	6516	
741.46	6281.1	
741.64	4988.2	
741.82	5337.7	
742	6410.8	
742.18	6326.9	
742.36	5099.4	
742.54	4915.8	
742.72	6701	
742.9	5979.4	
743.08	5150.6	
743.26	4573.1	
743.44	6624.5	
743.62	6511.9	
743.8	5182	
743.98	4765.6	
744.16	6381.5	
744.34	6199.9	
744.52	5094	
744.7	5122.7	
744.88	6471.6	
745.06	6078.4	
745.24	5062.6	
745.42	5133.6	
745.6	6438.1	
745.78	6402.6	
745.96	4393.6	
746.14	4554	
746.32	6827.9	
746.5	6195.1	
746.68	4816.8	
746.86	4501.4	
747.03	6419	
747.21	5677	
747.39	4745.1	
747.57	4376.5	
747.75	6015.6	
747.93	6208.1	
748.11	4373.8	
748.29	4364.2	
748.47	6905.1	
748.65	5811.5	
748.83	4747.2	
749.01	4605.2	
749.19	6139.8	
749.37	5617.6	
749.55	4571.7	
749.73	4586.1	
749.91	5985.5	
750.09	5834	
750.26	4543.8	
750.44	4252.3	
750.62	5881.8	
750.8	5771.2	
750.98	4173.8	
751.16	4362.2	
751.34	6014.9	
751.52	5581.4	
751.7	4741	
751.88	4105.5	
752.06	6165.8	
752.24	5963.7	
752.42	4111.6	
752.59	4261.1	
752.77	5768.4	
752.95	6382.8	
753.13	4622.3	
753.31	4286.4	
753.49	5564.3	
753.67	5726.1	
753.85	4417.5	
754.03	4121.9	
754.21	5846.3	
754.38	5991.7	
754.56	4111	
754.74	3556.6	
754.92	5272.2	
755.1	5495.4	
755.28	3439.2	
755.46	3349.8	
755.64	5844.2	
755.82	5842.2	
755.99	3420.1	
756.17	3346.4	
756.35	4270	
756.53	5072.8	
756.71	2631	
756.89	3307.5	
757.07	4777.9	
757.25	4321.9	
757.42	3429	
757.6	3865.2	
757.78	4888.5	
757.96	4371	
758.14	3325.9	
758.32	3081.5	
758.5	4102.8	
758.67	4571.1	
758.85	3207.8	
759.03	3205.1	
759.21	4712.4	
759.39	4323.3	
759.57	2982.5	
759.75	3515	
759.92	5107.6	
760.1	4818.9	
760.28	3796.9	
760.46	3964.2	
760.64	4732.9	
760.82	4663.2	
760.99	3847.5	
761.17	3384.6	
761.35	5285.8	
761.53	4549.2	
761.71	3614.7	
761.89	3878.2	
762.06	5171.8	
762.24	4966.3	
762.42	3609.2	
762.6	3437.2	
762.78	4900.1	
762.96	5264.6	
763.13	3828.3	
763.31	3588.7	
763.49	5300.8	
763.67	4900.1	
763.85	4090.5	
764.02	4348.5	
764.2	5569.1	
764.38	4946.5	
764.56	3601.7	
764.74	3979.9	
764.91	5546.6	
765.09	4869.4	
765.27	3508.9	
765.45	3332	
765.63	5644.2	
765.8	5395.7	
765.98	3288.4	
766.16	3299.3	
766.34	4636.6	
766.52	4523.3	
766.69	3843.4	
766.87	3224.2	
767.05	4883	
767.23	5251.7	
767.41	3399.6	
767.58	3519.1	
767.76	5219.6	
767.94	5212.1	
768.12	3490.4	
768.29	3754.6	
768.47	4771.1	
768.65	5293.3	
768.83	3182.5	
769	3702.7	
769.18	4629.8	
769.36	4952	
769.54	3705.5	
769.72	3127.9	
769.89	5249.6	
770.07	5082.4	
770.25	3418.7	
770.43	4054.3	
770.6	5526.8	
770.78	5629.9	
770.96	3442	
771.14	3768.3	
771.31	5130.2	
771.49	4698	
771.67	3009.1	
771.85	3084.2	
772.02	4310.3	
772.2	4596.3	
772.38	3505.4	
772.55	3152.5	
772.73	4878.3	
772.91	4672.8	
773.09	3367.5	
773.26	3489.1	
773.44	4827.1	
773.62	4641.4	
773.8	3159.3	
773.97	2979.8	
774.15	4819.6	
774.33	4610	
774.5	3023.5	
774.68	3177.1	
774.86	4728.1	
775.04	4601.8	
775.21	3136.1	
775.39	2976.4	
775.57	4785.4	
775.74	4756.1	
775.92	2931.3	
776.1	2882.9	
776.27	4721.3	
776.45	5322	
776.63	3061	
776.81	2800.3	
776.98	4579.3	
777.16	5007.3	
777.34	3116.3	
777.51	3307.5	
777.69	4547.2	
777.87	4330.1	
778.04	3181.2	
778.22	3351.8	
778.4	4390.8	
778.57	4710.3	
778.75	2714.2	
778.93	2861	
779.1	4302.1	
779.28	4149.9	
779.46	2658.3	
779.64	2863.1	
779.81	4760.2	
779.99	5235.3	
780.17	3333.4	
780.34	3396.2	
780.52	4500.8	
780.69	4543.1	
780.87	3142.3	
781.05	2891	
781.22	4556.7	
781.4	4491.2	
781.58	2941.6	
781.75	2471.9	
781.93	4569	
782.11	4057	
782.28	3474.7	
782.46	2942.9	
782.64	4066.6	
782.81	4614.1	
782.99	3002.3	
783.17	2911.5	
783.34	4437.3	
783.52	4177.9	
783.69	2988.7	
783.87	3375.1	
784.05	4298.7	
784.22	4138.3	
784.4	3425.6	
784.58	3091.8	
784.75	4729.4	
784.93	4259.1	
785.1	2837.8	
785.28	3205.8	
785.46	4543.8	
785.63	4102.8	
785.81	2900.6	
785.99	2768.9	
786.16	4303.5	
786.34	4428.4	
786.51	2796.2	
786.69	3078.1	
786.87	3994.2	
787.04	4255	
787.22	2746.3	
787.39	3208.5	
787.57	4131.4	
787.75	4647.5	
787.92	3372.3	
788.1	3243.3	
788.27	4106.2	
788.45	3803.1	
788.63	3087.7	
788.8	2448	
788.98	4431.8	
789.15	3795.6	
789.33	2527.9	
789.5	2820.7	
789.68	4629.1	
789.86	4690.5	
790.03	3019.4	
790.21	2766.8	
790.38	4754.7	
790.56	4229.7	
790.73	2675.3	
790.91	2726.5	
791.09	4124.6	
791.26	4418.2	
791.44	2859	
791.61	2556.5	
791.79	4161.5	
791.96	4074.1	
792.14	2609.1	
792.32	2407.7	
792.49	4121.9	
792.67	4200.4	
792.84	2719.7	
793.02	2611.2	
793.19	4519.2	
793.37	4694.6	
793.54	2401.6	
793.72	2635.1	
793.89	4678.2	
794.07	4005.1	
794.25	2923.8	
794.42	2464.4	
794.6	4637.3	
794.77	4382.7	
794.95	2965.5	
795.12	2702.6	
795.3	4100	
795.47	4373.8	
795.65	2903.3	
795.82	2805	
796	3992.9	
796.17	4990.9	
796.35	2786.6	
796.52	3166.2	
796.7	4369.7	
796.87	4384.7	
797.05	2786.6	
797.22	3175	
797.4	4470	
797.57	4866.7	
797.75	2870.6	
797.92	2636.4	
798.1	4654.4	
798.27	3865.2	
798.45	2469.2	
798.62	2530.6	
798.8	4232.5	
798.97	4472.8	
799.15	2951.8	
799.32	2810.5	
799.5	3859.1	
799.67	4201.7	
799.85	3005.1	
800.02	2381.1	
800.2	4070.7	
800.37	4102.8	
800.55	3075.4	
800.72	2665.8	
800.9	4496	
801.07	4635.9	
801.25	3364.8	
801.42	2883.5	
801.6	4496	
801.77	4137.6	
801.95	2723.8	
802.12	2604.3	
802.29	4324.6	
802.47	4192.9	
802.64	2943.6	
802.82	2372.2	
802.99	4030.4	
803.17	4471.4	
803.34	2863.7	
803.52	2611.2	
803.69	4764.3	
803.87	3865.2	
804.04	2829.6	
804.21	2816	
804.39	4667.3	
804.56	4044.7	
804.74	2499.9	
804.91	2844.6	
805.09	4002.4	
805.26	3994.9	
805.44	2514.9	
805.61	2675.3	
805.78	4408.6	
805.96	4314.4	
806.13	2815.3	
806.31	2949.1	
806.48	3707.5	
806.66	3977.8	
806.83	2895.8	
807	2790.7	
807.18	4089.8	
807.35	4141.7	
807.53	2772.9	
807.7	2411.8	
807.87	4625	
808.05	3988.1	
808.22	2950.4	
808.4	2392.7	
808.57	3882.9	
808.74	3753.2	
808.92	2655.5	
809.09	3183.2	
809.27	4079.6	
809.44	4298.7	
809.61	2351.1	
809.79	2568.8	
809.96	4766.3	
810.14	4305.5	
810.31	2325.8	
810.48	2958.6	
810.66	4004.5	
810.83	4337.6	
811.01	2596.1	
811.18	2784.6	
811.35	4336.9	
811.53	3592.1	
811.7	3028.3	
811.87	2800.3	
812.05	4121.2	
812.22	3974.4	
812.39	2578.4	
812.57	2468.5	
812.74	4087.7	
812.92	4845.5	
813.09	2734	
813.26	2781.8	
813.44	4659.1	
813.61	3893.2	
813.78	2404.3	
813.96	2874.7	
814.13	4084.3	
814.3	3894.6	
814.48	3138.2	
814.65	2674	
814.82	4536.9	
815	3734.1	
815.17	2747.7	
815.34	3152.5	
815.52	3936.2	
815.69	3919.8	
815.87	2660.3	
816.04	2704	
816.21	3879.5	
816.38	3710.9	
816.56	2680.1	
816.73	2584.5	
816.9	4817.5	
817.08	4268.6	
817.25	2600.9	
817.42	3018.7	
817.6	3780.6	
817.77	3909.6	
817.94	2800.3	
818.12	2444.6	
818.29	3892.5	
818.46	5141.1	
818.64	2675.3	
818.81	2446.6	
818.98	3897.3	
819.16	4877.6	
819.33	2898.6	
819.5	2744.3	
819.67	4181.3	
819.85	4539.7	
820.02	2714.2	
820.19	2816	
820.37	4094.6	
820.54	3905.5	
820.71	2789.3	
820.88	3289	
821.06	4126	
821.23	3827	
821.4	2723.8	
821.58	2762.7	
821.75	4347.2	
821.92	4108.2	
822.09	2353.1	
822.27	2519	
822.44	4005.8	
822.61	3939.6	
822.79	2415.9	
822.96	3981.3	
823.13	4078.2	
823.3	3756.7	
823.48	2657.6	
823.65	2398.2	
823.82	4423.6	
823.99	3794.2	
824.17	3213.3	
824.34	2441.2	
824.51	4902.2	
824.68	4023.6	
824.86	2590.7	
825.03	2676	
825.2	3947.1	
825.37	4541.7	
825.55	2551.1	
825.72	2700.6	
825.89	4804.5	
826.06	4554.7	
826.24	2641.2	
826.41	2693.1	
826.58	4592.2	
826.75	4065.2	
826.92	2295.1	
827.1	2467.1	
827.27	5730.2	
827.44	4705.5	
827.61	2592	
827.79	2955.9	
827.96	3928.7	
828.13	3916.4	
828.3	2708.8	
828.47	2310.1	
828.65	4308.2	
828.82	4154	
828.99	3168.2	
829.16	2827.6	
829.34	4422.9	
829.51	4377.2	
829.68	2685.6	
829.85	2742.9	
830.02	4698.7	
830.2	4412.7	
830.37	2250	
830.54	3075.4	
830.71	4839.4	
830.88	4034.5	
831.05	2192.7	
831.23	2437.8	
831.4	4784.7	
831.57	4980.7	
831.74	2572.2	
831.91	2291	
832.09	4343.1	
832.26	4414.7	
832.43	2568.2	
832.6	2818.7	
832.77	4216.1	
832.94	4590.9	
833.12	2197.5	
833.29	2493.7	
833.46	4209.9	
833.63	5180	
833.8	2777	
833.97	2551.1	
834.15	4512.4	
834.32	4351.9	
834.49	2701.3	
834.66	2673.3	
834.83	4418.8	
835	3960.8	
835.17	2514.2	
835.35	2559.3	
835.52	4410.6	
835.69	4270	
835.86	2605.7	
836.03	2192.7	
836.2	4453	
836.37	4216.1	
836.55	2516.3	
836.72	2410.5	
836.89	4149.2	
837.06	4453.6	
837.23	2571.6	
837.4	2766.8	
837.57	4831.2	
837.75	5122.7	
837.92	2404.3	
838.09	2534.7	
838.26	4225	
838.43	4444.1	
838.6	2684.2	
838.77	2500.6	
838.94	4904.2	
839.11	4900.1	
839.29	2635.7	
839.46	2131.9	
839.63	4532.2	
839.8	4197	
839.97	2504	
840.14	2505.3	
840.31	4333.5	
840.48	4500.8	
840.65	2200.2	
840.82	2466.4	
841	4410	
841.17	4245.4	
841.34	2319	
841.51	2450.1	
841.68	4390.2	
841.85	4196.3	
842.02	2476	
842.19	2110.8	
842.36	4319.2	
842.53	4300.7	
842.7	2336.7	
842.87	2694.4	
843.05	5154.7	
843.22	4184.7	
843.39	2273.2	
843.56	2508.1	
843.73	4187.4	
843.9	4534.9	
844.07	3439.9	
844.24	2947	
844.41	5520	
844.58	3990.1	
844.75	2342.2	
844.92	2435.7	
845.09	4359.4	
845.26	4331.5	
845.43	2370.2	
845.6	2458.2	
845.77	4448.9	
845.94	4253.6	
846.12	2565.4	
846.29	2677.4	
846.46	4556.7	
846.63	4379.2	
846.8	2349	
846.97	2706.7	
847.14	4618.9	
847.31	4363.5	
847.48	2551.1	
847.65	2749.1	
847.82	4255	
847.99	4429.1	
848.16	2965.5	
848.33	2755.9	
848.5	4108.2	
848.67	4621.6	
848.84	2310.8	
849.01	2373.6	
849.18	4104.1	
849.35	3830.4	
849.52	2760	
849.69	2280.8	
849.86	4541.7	
850.03	4523.3	
850.2	2348.3	
850.37	2669.2	
850.54	4511	
850.71	4023.6	
850.88	2725.2	
851.05	2306.7	
851.22	4292.5	
851.39	4575.8	
851.56	2252.8	
851.73	2615.3	
851.9	4034.5	
852.07	4441.4	
852.24	2570.2	
852.41	2297.8	
852.58	4444.1	
852.75	4041.3	
852.92	2568.2	
853.09	2312.8	
853.26	3928.7	
853.43	4552.6	
853.6	2372.2	
853.77	2093	
853.94	4685.1	
854.11	3919.1	
854.28	3155.2	
854.44	2519.7	
854.61	4889.2	
854.78	4511.7	
854.95	2282.1	
855.12	2780.5	
855.29	3725.3	
855.46	4760.8	
855.63	2350.4	
855.8	3031.7	
855.97	4146.5	
856.14	4580.6	
856.31	3034.4	
856.48	2500.6	
856.65	4194.9	
856.82	3956.7	
856.99	2275.3	
857.16	2437.8	
857.33	4973.8	
857.49	4164.2	
857.66	2499.2	
857.83	2652.1	
858	4225	
858.17	4308.2	
858.34	2230.2	
858.51	2332.6	
858.68	4656.4	
858.85	4583.4	
859.02	2642.6	
859.19	2738.8	
859.36	3999	
859.52	3867.9	
859.69	2366.1	
859.86	2699.2	
860.03	3917.1	
860.2	4673.5	
860.37	2243.2	
860.54	2383.8	
860.71	4454.3	
860.88	4671.4	
861.05	2534	
861.21	2861.7	
861.38	4660.5	
861.55	3814.7	
861.72	2207.7	
861.89	2554.5	
862.06	4494.6	
862.23	4657.1	
862.4	2288.9	
862.56	2354.5	
862.73	4401.1	
862.9	4166.3	
863.07	2586.6	
863.24	2230.2	
863.41	3921.2	
863.58	3989.4	
863.75	2381.8	
863.91	2693.1	
864.08	4476.9	
864.25	4414.7	
864.42	2752.5	
864.59	3031.7	
864.76	4737	
864.93	3979.2	
865.09	2287.6	
865.26	2439.8	
865.43	4571.7	
865.6	4851	
865.77	2141.5	
865.94	2297.8	
866.1	4588.1	
866.27	4349.2	
866.44	3244.7	
866.61	2261	
866.78	4172.4	
866.95	4384.7	
867.11	2329.2	
867.28	2127.8	
867.45	4617.5	
867.62	3895.9	
867.79	2563.4	
867.96	2338.8	
868.12	3910.3	
868.29	4425	
868.46	2316.3	
868.63	2941.6	
868.8	4547.9	
868.97	4366.3	
869.13	2393.4	
869.3	2435	
869.47	4253.6	
869.64	4528.7	
869.81	2319.7	
869.97	2387.9	
870.14	4300.7	
870.31	4692.6	
870.48	2300.6	
870.65	2864.4	
870.81	4199.7	
870.98	4144.4	
871.15	2522.4	
871.32	2424.1	
871.48	4358.8	
871.65	4687.1	
871.82	2295.8	
871.99	2551.1	
872.16	4943.8	
872.32	4633.2	
872.49	2392.7	
872.66	2341.5	
872.83	4513.7	
872.99	4061.1	
873.16	2571.6	
873.33	2329.9	
873.5	4283.7	
873.67	4341.7	
873.83	2453.5	
874	2910.2	
874.17	4359.4	
874.34	4741	
874.5	2856.9	
874.67	2758.6	
874.84	4547.9	
875.01	3802.4	
875.17	2994.1	
875.34	2312.8	
875.51	4286.4	
875.68	4919.9	
875.84	2718.3	
876.01	3086.3	
876.18	4422.9	
876.34	4379.2	
876.51	2324.4	
876.68	2280.8	
876.85	4078.2	
877.01	4545.1	
877.18	3124.5	
877.35	2276	
877.52	4393.6	
877.68	3938.9	
877.85	2353.1	
878.02	2336	
878.18	3999.7	
878.35	4136.2	
878.52	1986.5	
878.69	2603.7	
878.85	4585.4	
879.02	4440	
879.19	3134.1	
879.35	2488.3	
879.52	4437.9	
879.69	4443.4	
879.86	2157.2	
880.02	2514.9	
880.19	4216.8	
880.36	4865.3	
880.52	2528.6	
880.69	2669.2	
880.86	4500.1	
881.02	4455	
881.19	2545.6	
881.36	2446.6	
881.52	4394.9	
881.69	3960.1	
881.86	2492.4	
882.02	2414.6	
882.19	4582	
882.36	5122	
882.52	2428.2	
882.69	3035.1	
882.86	4278.2	
883.02	4328.7	
883.19	2735.4	
883.36	2630.3	
883.52	4451.6	
883.69	4900.8	
883.86	2347	
884.02	2187.2	
884.19	4415.4	
884.36	4251.6	
884.52	2560	
884.69	2463	
884.86	4112.3	
885.02	4673.5	
885.19	2511.5	
885.36	2593.4	
885.52	4115.7	
885.69	4317.1	
885.86	3171.6	
886.02	2834.4	
886.19	4447.5	
886.35	4009.9	
886.52	2591.4	
886.69	3051.5	
886.85	3923.9	
887.02	4606.6	
887.19	4606.6	
887.35	4606.6	
887.52	4606.6	
887.68	4606.6	
887.85	4606.6	
888.02	4606.6	
888.18	4606.6	
888.35	4606.6	
888.51	4606.6	
888.68	4606.6	
888.85	4606.6	
889.01	4606.6	
889.18	4606.6	
889.35	4606.6	
889.51	4606.6	
889.68	4606.6	
889.84	4606.6	
890.01	4606.6	
890.17	4606.6	
890.34	4606.6	
890.51	4606.6	
890.67	4606.6	
890.84	4606.6	
891	4606.6	
891.17	4606.6	
891.34	4606.6	
891.5	4606.6	
891.67	4606.6	
891.83	4606.6	
892	4606.6	
892.16	4606.6	
892.33	4606.6	
892.5	4606.6	
892.66	4606.6	
892.83	4606.6	
892.99	4606.6	
893.16	4606.6	
893.32	4606.6	
893.49	4606.6	
893.65	4606.6	
893.82	4606.6	
893.99	4606.6	
894.15	4606.6	
894.32	4606.6	
894.48	4606.6	
894.65	4606.6	
894.81	4606.6	
894.98	4606.6	
895.14	4606.6	
895.31	4606.6	
895.47	4606.6	
895.64	4606.6	
895.81	4606.6	
895.97	4606.6	
896.14	4606.6	
896.3	4606.6	
896.47	4606.6	
896.63	4606.6	
896.8	4606.6	
896.96	4606.6	
897.13	4606.6	
897.29	4606.6	
897.46	4606.6	
897.62	4606.6	
897.79	4606.6	
897.95	4606.6	
898.12	4606.6	
898.28	4606.6	
898.45	4606.6	
898.61	4606.6	
898.78	4606.6	
898.94	4606.6	
899.11	4606.6	
899.27	4606.6	
899.44	4606.6	
899.6	4606.6	
899.77	4606.6	
899.93	4606.6	
900.1	4606.6	
900.26	4606.6	
900.43	4606.6	
900.59	4606.6	
900.76	4606.6	
900.92	4606.6	
901.09	4606.6	
901.25	4606.6	
901.42	4606.6	
901.58	4606.6	
901.75	4606.6	
901.91	4606.6	
902.07	4606.6	
902.24	4606.6	
902.4	4606.6	
902.57	4606.6	
902.73	4606.6	
902.9	4606.6	
903.06	4606.6	
903.23	4606.6	
903.39	4606.6	
903.56	4606.6	
903.72	4606.6	
903.88	4606.6	
904.05	4606.6	
904.21	4606.6	
904.38	4606.6	
904.54	4606.6	
904.71	4606.6	
904.87	4606.6	
905.03	4606.6	
905.2	4606.6	
905.36	4606.6	
905.53	4606.6	
905.69	4606.6	
905.86	4606.6	
906.02	4606.6	
906.18	4606.6	
906.35	4606.6	
906.51	4606.6	
906.68	4606.6	
906.84	4606.6	
907.01	4606.6	
907.17	4606.6	
907.33	4606.6	
907.5	4606.6	
907.66	4606.6	
907.83	4606.6	
907.99	4606.6	
908.15	4606.6	
908.32	4606.6	
908.48	4606.6	
908.65	4606.6	
908.81	4606.6	
908.97	4606.6	
909.14	4606.6	
909.3	4606.6	
909.47	4606.6	
909.63	4606.6	
909.79	4606.6	
909.96	4606.6	
910.12	4606.6	
910.28	4606.6	
910.45	4606.6	
910.61	4606.6	
910.78	4606.6	
910.94	4606.6	
911.1	4606.6	
911.27	4606.6	
911.43	4606.6	
911.59	4606.6	
911.76	4606.6	
911.92	4606.6	
912.08	4606.6	
912.25	4606.6	
912.41	4606.6	
912.57	4606.6	
912.74	4606.6	
912.9	4606.6	
913.07	4606.6	
913.23	4606.6	
913.39	4606.6	
913.56	4606.6	
913.72	4606.6	
913.88	4606.6	
914.05	4606.6	
914.21	4606.6	
914.37	4606.6	
914.54	4606.6	
914.7	4606.6	
914.86	4606.6	
915.03	4606.6	
915.19	4606.6	
