Wavelength	Intensities	
nm	a.u.	
179.22	1914.7	
179.44	1920.7	
179.65	1908.7	
179.86	1932.6	
180.08	1895.7	
180.29	4977.2	
180.51	3524.6	
180.72	5583.4	
180.94	6675.7	
181.15	3248.8	
181.37	3182.5	
181.58	5498.1	
181.79	5820.3	
182.01	3383.2	
182.22	3642	
182.44	5767.1	
182.65	4849.6	
182.87	4569	
183.08	4084.3	
183.29	6051.7	
183.51	5032.5	
183.72	3682.2	
183.94	5421.7	
184.15	5454.4	
184.37	5466	
184.58	3239.2	
184.79	4413.4	
185.01	5028.4	
185.22	5831.2	
185.44	4672.8	
185.65	3971	
185.86	5291.3	
186.08	4902.2	
186.29	3191.4	
186.51	3417.4	
186.72	5057.1	
186.94	5969.1	
187.15	3950.5	
187.36	4003.1	
187.58	7727.7	
187.79	5489.2	
188.01	4239.3	
188.22	6610.2	
188.43	6681.2	
188.65	5758.9	
188.86	3386	
189.08	4025.6	
189.29	5193.6	
189.5	5236	
189.72	3790.8	
189.93	3830.4	
190.15	5980.8	
190.36	7165.8	
190.57	4121.9	
190.79	4009.9	
191	6059.9	
191.22	6067.4	
191.43	4089.8	
191.64	3403.7	
191.86	6302.3	
192.07	6021.7	
192.29	3563.5	
192.5	3719.8	
192.71	6032	
192.93	5148.6	
193.14	3768.9	
193.35	3788.1	
193.57	5229.1	
193.78	5971.9	
194	3018	
194.21	3706.1	
194.42	4934.2	
194.64	5464	
194.85	4087.1	
195.07	4738.3	
195.28	5449	
195.49	4711.7	
195.71	4997.7	
195.92	3493.8	
196.13	5646.2	
196.35	5737.7	
196.56	5336.3	
196.78	4059.8	
196.99	7078.5	
197.2	6647.7	
197.42	4657.1	
197.63	4099.4	
197.84	4820.2	
198.06	5575.3	
198.27	3746.4	
198.48	5004.6	
198.7	5218.2	
198.91	5313.1	
199.13	4072.7	
199.34	4102.1	
199.55	5858.6	
199.77	4728.1	
199.98	3592.1	
200.19	4137.6	
200.41	5360.2	
200.62	5048.2	
200.83	4304.8	
201.05	4548.5	
201.26	5352	
201.47	5047.6	
201.69	3645.4	
201.9	3534.1	
202.11	5411.4	
202.33	6439.5	
202.54	3893.9	
202.76	4326	
202.97	5514.5	
203.18	5523.4	
203.4	4272.1	
203.61	4115.7	
203.82	5477.6	
204.04	5158.8	
204.25	4153.3	
204.46	4086.4	
204.68	5463.3	
204.89	5734.3	
205.1	4006.5	
205.32	3501.3	
205.53	5866.7	
205.74	5983.5	
205.96	2947	
206.17	4169.7	
206.38	5795.1	
206.6	5980.1	
206.81	4682.3	
207.02	3850.2	
207.24	5668.1	
207.45	6081.8	
207.66	3892.5	
207.88	3280.8	
208.09	5603.2	
208.3	5426.4	
208.52	3581.9	
208.73	3883.6	
208.94	5456.5	
209.15	6186.2	
209.37	3853.6	
209.58	4120.5	
209.79	5985.5	
210.01	5254.4	
210.22	3130	
210.43	3208.5	
210.65	5434.6	
210.86	5830.6	
211.07	3934.8	
211.29	3571	
211.5	5776	
211.71	5372.5	
211.93	3536.8	
212.14	3536.8	
212.35	5375.9	
212.56	5581.4	
212.78	4132.8	
212.99	3388.7	
213.2	6400.6	
213.42	5225.7	
213.63	3719.1	
213.84	3941	
214.06	4767	
214.27	4923.3	
214.48	3850.9	
214.69	4211.3	
214.91	6092.7	
215.12	6214.2	
215.33	4238.6	
215.55	4598.4	
215.76	6682.5	
215.97	5819.6	
216.18	4083	
216.4	3934.8	
216.61	5116.5	
216.82	5943.2	
217.04	3570.3	
217.25	3767.6	
217.46	6078.4	
217.67	5831.9	
217.89	3207.1	
218.1	3363.4	
218.31	5517.9	
218.53	5605.3	
218.74	3776.5	
218.95	3640.6	
219.16	5345.9	
219.38	6332.3	
219.59	3646.1	
219.8	4357.4	
220.01	7069.6	
220.23	5433.9	
220.44	4820.2	
220.65	3505.4	
220.87	5518.6	
221.08	6063.4	
221.29	3272.7	
221.5	4475.5	
221.72	7471	
221.93	5167	
222.14	4104.8	
222.35	4874.8	
222.57	5445.5	
222.78	5833.3	
222.99	3927.3	
223.2	4219.5	
223.42	5750	
223.63	5894.7	
223.84	2988.7	
224.05	2988.7	
224.27	6939.9	
224.48	6348	
224.69	4848.9	
224.9	4117.1	
225.12	5584.8	
225.33	5354.1	
225.54	3249.4	
225.75	3696.6	
225.97	5023	
226.18	5321.3	
226.39	3973.1	
226.6	3695.2	
226.82	5227.8	
227.03	5061.9	
227.24	4123.9	
227.45	3375.1	
227.67	5812.1	
227.88	6394.4	
228.09	4524.6	
228.3	4600.4	
228.52	5905.7	
228.73	5414.8	
228.94	3818.8	
229.15	3404.4	
229.36	5404.6	
229.58	5257.8	
229.79	3803.8	
230	4424.3	
230.21	6496.8	
230.43	5592.3	
230.64	4031.8	
230.85	4259.1	
231.06	5858.6	
231.28	5932.3	
231.49	3363.4	
231.7	4003.8	
231.91	5764.3	
232.12	5496.7	
232.34	3462.4	
232.55	3988.8	
232.76	6064	
232.97	5560.2	
233.18	3603.1	
233.4	4027.7	
233.61	5638.7	
233.82	5141.8	
234.03	3807.2	
234.25	3685.7	
234.46	7581.6	
234.67	5437.4	
234.88	4164.9	
235.09	3607.2	
235.31	5808	
235.52	5315.2	
235.73	4067.9	
235.94	3433.8	
236.15	5180.7	
236.37	6613.6	
236.58	3579.2	
236.79	3940.3	
237	5797.1	
237.21	4945.8	
237.43	4222.9	
237.64	3284.9	
237.85	9900.6	
238.06	4999.8	
238.27	4315.1	
238.48	3431	
238.7	5744.6	
238.91	5259.9	
239.12	3910.3	
239.33	3969	
239.54	5046.2	
239.76	5359.5	
239.97	3855.6	
240.18	3920.5	
240.39	6903.7	
240.6	5752.1	
240.82	4040	
241.03	3324.5	
241.24	5475.6	
241.45	6311.2	
241.66	3592.8	
241.87	4201.7	
242.09	6204.7	
242.3	6557.6	
242.51	4296	
242.72	3963.5	
242.93	5928.9	
243.14	5482.4	
243.36	4494.6	
243.57	4904.2	
243.78	6343.9	
243.99	5857.9	
244.2	3895.2	
244.41	3541.6	
244.63	4971.8	
244.84	5762.3	
245.05	4240	
245.26	3914.4	
245.47	5727.5	
245.68	5988.9	
245.9	5258.5	
246.11	4140.3	
246.32	5296	
246.53	5687.2	
246.74	6406.7	
246.95	3330	
247.16	4990.2	
247.38	5414.8	
247.59	3346.4	
247.8	3977.8	
248.01	5147.9	
248.22	5386.8	
248.43	3525.2	
248.64	3764.2	
248.86	4795.7	
249.07	5179.3	
249.28	3455.6	
249.49	4000.4	
249.7	5994.4	
249.91	6196.5	
250.12	3271.3	
250.34	3323.2	
250.55	5481.7	
250.76	5492.7	
250.97	4085.7	
251.18	4110.3	
251.39	6151.4	
251.6	5632.6	
251.81	4141.7	
252.03	4208.6	
252.24	5152	
252.45	5970.5	
252.66	3399.6	
252.87	4357.4	
253.08	5422.3	
253.29	7229.3	
253.5	3390.1	
253.72	4778.6	
253.93	5279.7	
254.14	6474.3	
254.35	3744.4	
254.56	3858.4	
254.77	5657.9	
254.98	5029.8	
255.19	3687	
255.41	4771.8	
255.62	5534.3	
255.83	6080.4	
256.04	4225.6	
256.25	4041.3	
256.46	6514.6	
256.67	5083.1	
256.88	4005.8	
257.09	4517.1	
257.31	5085.8	
257.52	5107	
257.73	5162.2	
257.94	3737.5	
258.15	5276.9	
258.36	5442.1	
258.57	4677.6	
258.78	2965.5	
258.99	5957.5	
259.2	5302.2	
259.41	3758.7	
259.63	3865.9	
259.84	6335	
260.05	6791.1	
260.26	4883	
260.47	3642	
260.68	6042.2	
260.89	5328.8	
261.1	4569	
261.31	3540.3	
261.52	6028.5	
261.73	6364.4	
261.95	4859.1	
262.16	4228.4	
262.37	6171.9	
262.58	6268.8	
262.79	4789.5	
263	3891.8	
263.21	5542.5	
263.42	4952	
263.63	3878.9	
263.84	3741.6	
264.05	6010.1	
264.26	6378.1	
264.47	4704.2	
264.69	4246.8	
264.9	6160.3	
265.11	5702.2	
265.32	3562.1	
265.53	3818.8	
265.74	5557.5	
265.95	4887.1	
266.16	3947.8	
266.37	4452.3	
266.58	5594.4	
266.79	5286.5	
267	3697.9	
267.21	3415.3	
267.42	5014.8	
267.63	5426.4	
267.84	3922.5	
268.06	3396.9	
268.27	5868.8	
268.48	6150.7	
268.69	3844	
268.9	4560.1	
269.11	6133.7	
269.32	4898.7	
269.53	3949.8	
269.74	3648.8	
269.95	5781.4	
270.16	4749.9	
270.37	3947.1	
270.58	4521.9	
270.79	5227.1	
271	6025.8	
271.21	4240	
271.42	3930.1	
271.63	5587.5	
271.84	5174.5	
272.05	3212.6	
272.26	3568.2	
272.47	5477.6	
272.68	5650.3	
272.89	3751.2	
273.11	4373.8	
273.32	5279	
273.53	6360.3	
273.74	4262.5	
273.95	4166.3	
274.16	6124.1	
274.37	5518.6	
274.58	4373.1	
274.79	3405.1	
275	5567.1	
275.21	6134.3	
275.42	5216.2	
275.63	4457.1	
275.84	5747.3	
276.05	7204.1	
276.26	4123.2	
276.47	3860.4	
276.68	5315.2	
276.89	6455.9	
277.1	4460.5	
277.31	3564.8	
277.52	5688.6	
277.73	5851.7	
277.94	3420.8	
278.15	3823.6	
278.36	5705	
278.57	5127.4	
278.78	3754.6	
278.99	4282.3	
279.2	5069.4	
279.41	5008.6	
279.62	4946.5	
279.83	3496.6	
280.04	6676.4	
280.25	4932.9	
280.46	4994.3	
280.67	3930.1	
280.88	5090.6	
281.09	6130.3	
281.3	4138.9	
281.51	5215.5	
281.72	5199.1	
281.93	6021	
282.14	3648.1	
282.35	3997.6	
282.56	5988.3	
282.77	5964.4	
282.98	3794.9	
283.19	4711	
283.4	7246.4	
283.61	5457.2	
283.82	3362.8	
284.03	4875.5	
284.24	5582.1	
284.45	6139.1	
284.66	4879.6	
284.87	4705.5	
285.08	6067.4	
285.29	6234	
285.5	3302	
285.71	3876.1	
285.92	6066.1	
286.12	6787.7	
286.33	4847.5	
286.54	3853.6	
286.75	5950.7	
286.96	5335.6	
287.17	3518.4	
287.38	4798.4	
287.59	5074.2	
287.8	4997.7	
288.01	3853.6	
288.22	4371	
288.43	6008.1	
288.64	4917.2	
288.85	4619.5	
289.06	4366.3	
289.27	5894.7	
289.48	6441.5	
289.69	4932.9	
289.9	4355.3	
290.11	6064.7	
290.32	5124	
290.53	4644.1	
290.74	4204.5	
290.94	5930.2	
291.15	5952.1	
291.36	3693.9	
291.57	4431.1	
291.78	5189.6	
291.99	4892.6	
292.2	3552.5	
292.41	4285.7	
292.62	6047	
292.83	5840.1	
293.04	5238.7	
293.25	3554.6	
293.46	5215.5	
293.67	6038.1	
293.88	3674.1	
294.09	3571	
294.29	5017.5	
294.5	5605.3	
294.71	3991.5	
294.92	3751.9	
295.13	5259.2	
295.34	6574.7	
295.55	3328.6	
295.76	3391.4	
295.97	5869.5	
296.18	6647	
296.39	3465.8	
296.6	3712.3	
296.81	5552.7	
297.01	5950.7	
297.22	3868.6	
297.43	3669.3	
297.64	5065.3	
297.85	5132.2	
298.06	3033.7	
298.27	3312.2	
298.48	5513.8	
298.69	5141.8	
298.9	3945.8	
299.11	3590.8	
299.31	4996.4	
299.52	4983.4	
299.73	4283.7	
299.94	4227.7	
300.15	5451.7	
300.36	5103.5	
300.57	4225.6	
300.78	4241.3	
300.99	5313.8	
301.2	5631.2	
301.4	3659.7	
301.61	4052.9	
301.82	5800.5	
302.03	5925.5	
302.24	4496.7	
302.45	3480.2	
302.66	5743.9	
302.87	6260	
303.08	3702	
303.29	5044.1	
303.49	5191.6	
303.7	5524.1	
303.91	3278.1	
304.12	4851.6	
304.33	5026.4	
304.54	5594.4	
304.75	3721.8	
304.96	3519.1	
305.16	5783.5	
305.37	6593.8	
305.58	3174.4	
305.79	3364.1	
306	5839.4	
306.21	4848.2	
306.42	3730	
306.63	5679	
306.83	5300.8	
307.04	6122.7	
307.25	4067.3	
307.46	4039.3	
307.67	4665.3	
307.88	5954.8	
308.09	3643.3	
308.29	3798.3	
308.5	5554.1	
308.71	6067.4	
308.92	3945.8	
309.13	3573	
309.34	5416.9	
309.55	5418.2	
309.75	4618.9	
309.96	4173.1	
310.17	5909.1	
310.38	5189.6	
310.59	4456.4	
310.8	3500.7	
311.01	5264	
311.21	5337.7	
311.42	3520.5	
311.63	3624.2	
311.84	5226.4	
312.05	5668.8	
312.26	4132.8	
312.46	4506.2	
312.67	5262.6	
312.88	4987.5	
313.09	3595.6	
313.3	3479.5	
313.51	6273.6	
313.71	6662.7	
313.92	3521.1	
314.13	3759.4	
314.34	5629.2	
314.55	5404.6	
314.76	4662.5	
314.96	3956.7	
315.17	5554.1	
315.38	5910.4	
315.59	3588	
315.8	3406.5	
316.01	6378.7	
316.21	6379.4	
316.42	3431.7	
316.63	3902.7	
316.84	5342.5	
317.05	6210.1	
317.26	4257.7	
317.46	3837.2	
317.67	5418.9	
317.88	5921.4	
318.09	4556	
318.3	3309.5	
318.5	5214.1	
318.71	5816.9	
318.92	5802.6	
319.13	4240	
319.34	5999.2	
319.54	6120	
319.75	3366.2	
319.96	3179.8	
320.17	5877.7	
320.38	6053.1	
320.58	3226.9	
320.79	3930.1	
321	6073.6	
321.21	6243.6	
321.42	3927.3	
321.62	3285.6	
321.83	5078.3	
322.04	5502.2	
322.25	3805.1	
322.46	3543.7	
322.66	5577.3	
322.87	5651	
323.08	4423.6	
323.29	3506.1	
323.5	6542.6	
323.7	5036.6	
323.91	4880.3	
324.12	4372.4	
324.33	5541.8	
324.53	5834	
324.74	4147.1	
324.95	4435.2	
325.16	4849.6	
325.37	5279	
325.57	3573	
325.78	3646.1	
325.99	5590.3	
326.2	4927.4	
326.4	5051	
326.61	3277.4	
326.82	5386.2	
327.03	5621.7	
327.24	5093.3	
327.44	4818.9	
327.65	5735.7	
327.86	4629.1	
328.07	4123.2	
328.27	3434.4	
328.48	6120	
328.69	5088.5	
328.9	5139	
329.1	3835.8	
329.31	5283.8	
329.52	6283.2	
329.73	3564.8	
329.93	4060.4	
330.14	5464	
330.35	5722	
330.56	5903.6	
330.76	4414.1	
330.97	5285.1	
331.18	5676.3	
331.39	3978.5	
331.59	3215.3	
331.8	6037.4	
332.01	6236.7	
332.22	3691.1	
332.42	4246.8	
332.63	5588.2	
332.84	5188.2	
333.05	4043.4	
333.25	3645.4	
333.46	5261.9	
333.67	5458.5	
333.88	3755.3	
334.08	4188.1	
334.29	7297.6	
334.5	6191	
334.7	3416.7	
334.91	5169.1	
335.12	5041.4	
335.33	5924.8	
335.53	3973.7	
335.74	5858.6	
335.95	5273.5	
336.16	5087.2	
336.36	3965.6	
336.57	4599.1	
336.78	4971.8	
336.98	6053.8	
337.19	4817.5	
337.4	3855.6	
337.61	6509.8	
337.81	5035.3	
338.02	3640.6	
338.23	4773.8	
338.43	6257.9	
338.64	5068.7	
338.85	3609.9	
339.05	4758.1	
339.26	6320	
339.47	4853.7	
339.68	3541.6	
339.88	5337	
340.09	5683.1	
340.3	5981.4	
340.5	4205.8	
340.71	3168.9	
340.92	4946.5	
341.13	6232	
341.33	3488.4	
341.54	4248.2	
341.75	5639.4	
341.95	5386.2	
342.16	4063.2	
342.37	4403.8	
342.57	5025.7	
342.78	5460.6	
342.99	4446.1	
343.19	3226.2	
343.4	5902.2	
343.61	5749.3	
343.81	3786	
344.02	3505.4	
344.23	5874.9	
344.43	6344.6	
344.64	4517.1	
344.85	4392.9	
345.06	5775.3	
345.26	6059.3	
345.47	4166.3	
345.68	4903.5	
345.88	4874.8	
346.09	5947.3	
346.3	4205.2	
346.5	3149.8	
346.71	5459.2	
346.92	5147.9	
347.12	3251.5	
347.33	4138.9	
347.54	6001.2	
347.74	6434.7	
347.95	4095.9	
348.16	3074	
348.36	5264.6	
348.57	4971.1	
348.78	4111	
348.98	4374.5	
349.19	5375.9	
349.39	4947.2	
349.6	3252.9	
349.81	3626.3	
350.01	5745.9	
350.22	5180	
350.43	3933.5	
350.63	4752.7	
350.84	5463.3	
351.05	5313.8	
351.25	3571.7	
351.46	3275.4	
351.67	6031.3	
351.87	5175.2	
352.08	3793.5	
352.29	4427.7	
352.49	5911.8	
352.7	6050.4	
352.9	3551.9	
353.11	4437.3	
353.32	6611.5	
353.52	5228.5	
353.73	3436.5	
353.94	4418.2	
354.14	5717.9	
354.35	5614.2	
354.55	3606.5	
354.76	3982.6	
354.97	5750	
355.17	5473.5	
355.38	3377.1	
355.59	4695.3	
355.79	5082.4	
356	5563	
356.2	3923.9	
356.41	3433.8	
356.62	4883.7	
356.82	5341.1	
357.03	4269.3	
357.24	3816	
357.44	5184.8	
357.65	5276.3	
357.85	5111.7	
358.06	3984	
358.27	4858.5	
358.47	5076.2	
358.68	3323.9	
358.88	4185.4	
359.09	5666.7	
359.3	6053.1	
359.5	4915.1	
359.71	4325.3	
359.91	6509.8	
360.12	5943.2	
360.33	4136.2	
360.53	4618.2	
360.74	5070.1	
360.94	5143.1	
361.15	4411.3	
361.36	3582.6	
361.56	5961	
361.77	5378	
361.97	4930.8	
362.18	3830.4	
362.38	5900.2	
362.59	4991.6	
362.8	3547.1	
363	3328.6	
363.21	4797	
363.41	5455.8	
363.62	4043.4	
363.83	5108.3	
364.03	5548.6	
364.24	6547.4	
364.44	5122.7	
364.65	5086.5	
364.85	5281.7	
365.06	5152.7	
365.27	3702.7	
365.47	3693.9	
365.68	6234.7	
365.88	5290.6	
366.09	4119.8	
366.29	3811.3	
366.5	5507	
366.71	6000.5	
366.91	5106.3	
367.12	4233.8	
367.32	6580.1	
367.53	5782.1	
367.73	4152.6	
367.94	5150.6	
368.14	5772.5	
368.35	6725.5	
368.56	4201.1	
368.76	3956.7	
368.97	5869.5	
369.17	7634.8	
369.38	3645.4	
369.58	3969.6	
369.79	4902.8	
369.99	6223.8	
370.2	4995	
370.4	4113	
370.61	5534.3	
370.82	6816.3	
371.02	3941.7	
371.23	3313.6	
371.43	4775.2	
371.64	6208.1	
371.84	3995.6	
372.05	5221.6	
372.25	7520.8	
372.46	5891.3	
372.66	3943.7	
372.87	3926.6	
373.07	6012.8	
373.28	7617.8	
373.48	5020.9	
373.69	4705.5	
373.9	5402.5	
374.1	5447.6	
374.31	4919.9	
374.51	4425	
374.72	6212.9	
374.92	5072.8	
375.13	5064.6	
375.33	4273.4	
375.54	5739.8	
375.74	5223.7	
375.95	4294.6	
376.15	5589.6	
376.36	5814.9	
376.56	5593	
376.77	4374.5	
376.97	4895.3	
377.18	6823.1	
377.38	5864	
377.59	5187.5	
377.79	3817.4	
378	5723.4	
378.2	6127.5	
378.41	3962.8	
378.61	3850.9	
378.82	6118	
379.02	5233.9	
379.23	4030.4	
379.43	5232.6	
379.64	6206	
379.84	5814.9	
380.05	3913.7	
380.25	3829.7	
380.46	5956.9	
380.66	5563	
380.87	5248.3	
381.07	5573.2	
381.28	6574	
381.48	5875.6	
381.69	3931.4	
381.89	3958.7	
382.1	4861.2	
382.3	6171.2	
382.51	5141.1	
382.71	6016.2	
382.91	5978	
383.12	6498.9	
383.32	4328	
383.53	4549.2	
383.73	5837.4	
383.94	5629.9	
384.14	4462.5	
384.35	3556	
384.55	5528.8	
384.76	6016.2	
384.96	4263.2	
385.17	4616.1	
385.37	5950.7	
385.58	5252.4	
385.78	4726.7	
385.98	3527.3	
386.19	5410.7	
386.39	5844.9	
386.6	4073.4	
386.8	4386.1	
387.01	6008.7	
387.21	6006.7	
387.42	4779.3	
387.62	5401.9	
387.83	5298.8	
388.03	5980.8	
388.23	4394.3	
388.44	5246.2	
388.64	5029.8	
388.85	5065.3	
389.05	4771.8	
389.26	5397.8	
389.46	6965.1	
389.67	6447.7	
389.87	4708.3	
390.07	4801.1	
390.28	5631.9	
390.48	5158.2	
390.69	3972.4	
390.89	4283.7	
391.1	5325.4	
391.3	6346.7	
391.5	5526.8	
391.71	6069.5	
391.91	6050.4	
392.12	7119.4	
392.32	5489.2	
392.53	4788.2	
392.73	5426.4	
392.93	5643.5	
393.14	4440.7	
393.34	5441.5	
393.55	6150.1	
393.75	5615.5	
393.95	4420.2	
394.16	4335.5	
394.36	5356.1	
394.57	6047.7	
394.77	3913	
394.98	4361.5	
395.18	5441.5	
395.38	5496.7	
395.59	5300.8	
395.79	4201.7	
396	5447.6	
396.2	5969.8	
396.4	5061.9	
396.61	4974.5	
396.81	6194.4	
397.02	5461.2	
397.22	5287.9	
397.42	5254.4	
397.63	6189.6	
397.83	5386.8	
398.04	4111	
398.24	4668.7	
398.44	5928.2	
398.65	5030.5	
398.85	3979.9	
399.05	4143	
399.26	5345.9	
399.46	7116	
399.67	4455	
399.87	4244.8	
400.07	5730.9	
400.28	6065.4	
400.48	4283.7	
400.69	5419.6	
400.89	6367.1	
401.09	6691.4	
401.3	4166.9	
401.5	5381.4	
401.7	6944.7	
401.91	7275.8	
402.11	4571.1	
402.32	4759.5	
402.52	6323.4	
402.72	6235.4	
402.93	4956.1	
403.13	3739.6	
403.33	7078.5	
403.54	5808	
403.74	4691.2	
403.94	5687.2	
404.15	5846.3	
404.35	7059.3	
404.56	4513	
404.76	6428.6	
404.96	6356.2	
405.17	6123.4	
405.37	5827.8	
405.57	5014.1	
405.78	6411.5	
405.98	5849.7	
406.18	4522.6	
406.39	5496.7	
406.59	6394.4	
406.79	5974.6	
407	4281.6	
407.2	4420.2	
407.4	6390.3	
407.61	6681.8	
407.81	4498.7	
408.01	6847	
408.22	5358.9	
408.42	7636.9	
408.62	5586.2	
408.83	5099.4	
409.03	6047	
409.23	5847.6	
409.44	5201.8	
409.64	5414.8	
409.84	7039.6	
410.05	6946.7	
410.25	5302.9	
410.45	5018.2	
410.66	6371.9	
410.86	8960.5	
411.06	5562.3	
411.27	5312.4	
411.47	8761.9	
411.67	6601.3	
411.88	5608.7	
412.08	5857.2	
412.28	7212.3	
412.49	7736.5	
412.69	5408.7	
412.89	5377.3	
413.09	7657.4	
413.3	7430.7	
413.5	5479	
413.7	5044.1	
413.91	6705.7	
414.11	7523.6	
414.31	5290.6	
414.52	5842.2	
414.72	7275.8	
414.92	7153.6	
415.12	5330.2	
415.33	5907.7	
415.53	7628	
415.73	7709.2	
415.94	6248.4	
416.14	5722	
416.34	6538.5	
416.55	6328.9	
416.75	6935.1	
416.95	6427.2	
417.15	7613.7	
417.36	8369.4	
417.56	7188.4	
417.76	6167.8	
417.97	8054.7	
418.17	7690.1	
418.37	5730.9	
418.57	5868.8	
418.78	7391.8	
418.98	7045.7	
419.18	6756.2	
419.38	6601.3	
419.59	7180.2	
419.79	6734.4	
419.99	5690.6	
420.2	6150.7	
420.4	7671.7	
420.6	7854	
420.8	5649	
421.01	5494	
421.21	7385.7	
421.41	7704.5	
421.61	6089.3	
421.82	5760.3	
422.02	6980.8	
422.22	7950.2	
422.42	6477	
422.63	6210.8	
422.83	7101	
423.03	8430.8	
423.23	6229.9	
423.44	5226.4	
423.64	7219.1	
423.84	6956.3	
424.04	5679.7	
424.25	5362.9	
424.45	8121.6	
424.65	8118.1	
424.85	5117.9	
425.06	5754.1	
425.26	8121.6	
425.46	7077.1	
425.66	6181.5	
425.87	5920	
426.07	7914	
426.27	7752.2	
426.47	5973.2	
426.67	5408.7	
426.88	8285.4	
427.08	7649.2	
427.28	6324.8	
427.48	5322.7	
427.69	6548.7	
427.89	7177.4	
428.09	6259.3	
428.29	5361.6	
428.5	7984.3	
428.7	7545.4	
428.9	5321.3	
429.1	5976	
429.3	7456.7	
429.51	7910.6	
429.71	5693.4	
429.91	6529.6	
430.11	7747.5	
430.31	8051.9	
430.52	6016.9	
430.72	6311.8	
430.92	8379.6	
431.12	7785	
431.32	5657.9	
431.53	6109.1	
431.73	6623.1	
431.93	8490.2	
432.13	5573.2	
432.33	5442.8	
432.54	7204.1	
432.74	7628.7	
432.94	5494	
433.14	6508.4	
433.34	7831.4	
433.55	7296.2	
433.75	6503	
433.95	8325	
434.15	7623.9	
434.35	7249.8	
434.56	5689.9	
434.76	5225.7	
434.96	7520.1	
435.16	7876.5	
435.36	5533.6	
435.56	6807.4	
435.77	7281.9	
435.97	7501.7	
436.17	7536.5	
436.37	6741.9	
436.57	7238.9	
436.78	7164.5	
436.98	6598.6	
437.18	7240.9	
437.38	7918.8	
437.58	7475.1	
437.78	7376.1	
437.99	6023.8	
438.19	7899	
438.39	8699.1	
438.59	5962.3	
438.79	5474.2	
438.99	8733.2	
439.2	7575.4	
439.4	5708.4	
439.6	5683.1	
439.8	7936.6	
440	9009.7	
440.2	6860.7	
440.4	6872.3	
440.61	8362.5	
440.81	8940.7	
441.01	5924.1	
441.21	6879.8	
441.41	8720.9	
441.61	8387.8	
441.81	7151.5	
442.02	8241.7	
442.22	9272.5	
442.42	8460.2	
442.62	6053.8	
442.82	6102.9	
443.02	8789.9	
443.22	7905.8	
443.43	6638.8	
443.63	6127.5	
443.83	7689.4	
444.03	7820.5	
444.23	7430.7	
444.43	6940.6	
444.63	8009.6	
444.83	9303.2	
445.04	6288.6	
445.24	7460.1	
445.44	8414.4	
445.64	8507.9	
445.84	7001.3	
446.04	6999.3	
446.24	7685.3	
446.44	8760.5	
446.65	6147.3	
446.85	6575.3	
447.05	7816.4	
447.25	8728.4	
447.45	6691.4	
447.65	6051.1	
447.85	8122.2	
448.05	7778.9	
448.25	7168.6	
448.46	7014.3	
448.66	8148.9	
448.86	7834.2	
449.06	5936.4	
449.26	7194.5	
449.46	8576.2	
449.66	7590.5	
449.86	6771.9	
450.06	6695.5	
450.26	7804.8	
450.47	8396	
450.67	6943.3	
450.87	7273.7	
451.07	8450.6	
451.27	8304.5	
451.47	6288.6	
451.67	6905.8	
451.87	8027.4	
452.07	9109.4	
452.27	6606.7	
452.47	6452.5	
452.67	8215.8	
452.88	8860.9	
453.08	5829.9	
453.28	8032.1	
453.48	9536.7	
453.68	8278.6	
453.88	6528.2	
454.08	6781.5	
454.28	8738.7	
454.48	8459.5	
454.68	7323.5	
454.88	7805.5	
455.08	8837	
455.28	8665.6	
455.48	6406.7	
455.68	7057.3	
455.89	9329.9	
456.09	9090.3	
456.29	6888	
456.49	6974.7	
456.69	9416.6	
456.89	8812.4	
457.09	7582.3	
457.29	7803.4	
457.49	9047.9	
457.69	9165.3	
457.89	7474.4	
458.09	6761.7	
458.29	8819.2	
458.49	9477.3	
458.69	7846.5	
458.89	7230.7	
459.09	9800.9	
459.29	9822.1	
459.49	7268.9	
459.69	8155.7	
459.9	9260.9	
460.1	8869.8	
460.3	7145.4	
460.5	7082.6	
460.7	9370.1	
460.9	9055.4	
461.1	6727.6	
461.3	8188.5	
461.5	10066	
461.7	9640.5	
461.9	7337.2	
462.1	7795.3	
462.3	9221.3	
462.5	9804.3	
462.7	7549.5	
462.9	7539.9	
463.1	10839	
463.3	10610	
463.5	7806.9	
463.7	8799.4	
463.9	9579.7	
464.1	9962.7	
464.3	8008.2	
464.5	8196	
464.7	10212	
464.9	9879.4	
465.1	9661	
465.3	8587.8	
465.5	10684	
465.7	10666	
465.9	9059.5	
466.1	8705.9	
466.3	10492	
466.5	10344	
466.7	9873.9	
466.9	8447.2	
467.1	10309	
467.3	11200	
467.5	9772.9	
467.7	8591.2	
467.9	11529	
468.1	12503	
468.3	9331.2	
468.5	9907.4	
468.7	10297	
468.9	10309	
469.1	8936	
469.3	9674.6	
469.5	12306	
469.7	9969.5	
469.9	9428.2	
470.1	8607.6	
470.3	10337	
470.5	10368	
470.7	10063	
470.9	8760.5	
471.1	10269	
471.3	10604	
471.5	8543.4	
471.69	10529	
471.89	10012	
472.09	9562.6	
472.29	9526.5	
472.49	9661	
472.69	9833	
472.89	10641	
473.09	8572.1	
473.29	8563.9	
473.49	9934	
473.69	10090	
473.89	9596.1	
474.09	8785.1	
474.29	11345	
474.49	11054	
474.69	9648	
474.89	8943.5	
475.09	10267	
475.29	10135	
475.49	8348.9	
475.69	8576.2	
475.88	11764	
476.08	10352	
476.28	8238.3	
476.48	8677.2	
476.68	10893	
476.88	10748	
477.08	8691.6	
477.28	8974.2	
477.48	10207	
477.68	10910	
477.88	8468.4	
478.08	8708.6	
478.28	11337	
478.48	10430	
478.67	8860.2	
478.87	8165.3	
479.07	11067	
479.27	10513	
479.47	8996	
479.67	8987.9	
479.87	10936	
480.07	11456	
480.27	8305.9	
480.47	10074	
480.67	10578	
480.87	11199	
481.06	8574.2	
481.26	9623.4	
481.46	10434	
481.66	10481	
481.86	9118.2	
482.06	10145	
482.26	10328	
482.46	11465	
482.66	9198.8	
482.86	8675.9	
483.05	10613	
483.25	10000	
483.45	11678	
483.65	9125.1	
483.85	10314	
484.05	10679	
484.25	9658.9	
484.45	10206	
484.65	11551	
484.84	11641	
485.04	9263	
485.24	9210.4	
485.44	11812	
485.64	10156	
485.84	8533.9	
486.04	10062	
486.24	10576	
486.44	10940	
486.63	8467	
486.83	9332.6	
487.03	10606	
487.23	10776	
487.43	8628.1	
487.63	11173	
487.83	10849	
488.02	11959	
488.22	9811.8	
488.42	10471	
488.62	11861	
488.82	10695	
489.02	9463.7	
489.22	9518.3	
489.41	11624	
489.61	11370	
489.81	9133.9	
490.01	9187.9	
490.21	11537	
490.41	12273	
490.61	9045.9	
490.8	9232.2	
491	10949	
491.2	10320	
491.4	9813.9	
491.6	8972.2	
491.8	11048	
491.99	11303	
492.19	8873.8	
492.39	9314.8	
492.59	11763	
492.79	11949	
492.99	10373	
493.18	9454.1	
493.38	11953	
493.58	12970	
493.78	10262	
493.98	9876.7	
494.18	11777	
494.37	11361	
494.57	10643	
494.77	10579	
494.97	12183	
495.17	12392	
495.37	10208	
495.56	10563	
495.76	12691	
495.96	12402	
496.16	11529	
496.36	10350	
496.55	12547	
496.75	12013	
496.95	10773	
497.15	10580	
497.35	12558	
497.54	12533	
497.74	10581	
497.94	12358	
498.14	13415	
498.34	13237	
498.53	10355	
498.73	11228	
498.93	12207	
499.13	12821	
499.33	10998	
499.52	11334	
499.72	12797	
499.92	12957	
500.12	10790	
500.32	11019	
500.51	13041	
500.71	12885	
500.91	11798	
501.11	11447	
501.31	12933	
501.5	13394	
501.7	12120	
501.9	11003	
502.1	12665	
502.29	13078	
502.49	11508	
502.69	11877	
502.89	12865	
503.09	12856	
503.28	10403	
503.48	10469	
503.68	12046	
503.88	12152	
504.07	11535	
504.27	10899	
504.47	12542	
504.67	12719	
504.86	11346	
505.06	11017	
505.26	12054	
505.46	13966	
505.65	10842	
505.85	11100	
506.05	11918	
506.25	12495	
506.44	10129	
506.64	11133	
506.84	11879	
507.04	12787	
507.23	10434	
507.43	10900	
507.63	14033	
507.83	12123	
508.02	10901	
508.22	10555	
508.42	14132	
508.62	11874	
508.81	10763	
509.01	11538	
509.21	11761	
509.4	12081	
509.6	11060	
509.8	10507	
510	12040	
510.19	13682	
510.39	10544	
510.59	10467	
510.79	11850	
510.98	13257	
511.18	10608	
511.38	10848	
511.57	12707	
511.77	12640	
511.97	11369	
512.17	10290	
512.36	12654	
512.56	12643	
512.76	10416	
512.95	10240	
513.15	12856	
513.35	11493	
513.55	11404	
513.74	10506	
513.94	12850	
514.14	12336	
514.33	11426	
514.53	11303	
514.73	12190	
514.92	12503	
515.12	10860	
515.32	10555	
515.51	12587	
515.71	13208	
515.91	12564	
516.11	10700	
516.3	14399	
516.5	12102	
516.7	11219	
516.89	11915	
517.09	12302	
517.29	12264	
517.48	11564	
517.68	10992	
517.88	11895	
518.07	12628	
518.27	11545	
518.47	10468	
518.66	13294	
518.86	11940	
519.06	10367	
519.25	10948	
519.45	12372	
519.65	13824	
519.84	11417	
520.04	12159	
520.24	14043	
520.43	12723	
520.63	11011	
520.83	10684	
521.02	11985	
521.22	12646	
521.42	11348	
521.61	12022	
521.81	12329	
522.01	12524	
522.2	11469	
522.4	11203	
522.6	13207	
522.79	11977	
522.99	11374	
523.18	10760	
523.38	13145	
523.58	13134	
523.77	12998	
523.97	10972	
524.17	15074	
524.36	14323	
524.56	12380	
524.76	12228	
524.95	13315	
525.15	12998	
525.34	11884	
525.54	11839	
525.74	13638	
525.93	12807	
526.13	13076	
526.33	12021	
526.52	14173	
526.72	13627	
526.91	13259	
527.11	12670	
527.31	14335	
527.5	14691	
527.7	12553	
527.89	11535	
528.09	13285	
528.29	14049	
528.48	12957	
528.68	12624	
528.87	14307	
529.07	14154	
529.27	12467	
529.46	11668	
529.66	13591	
529.85	14029	
530.05	11465	
530.25	12487	
530.44	15292	
530.64	13650	
530.83	12221	
531.03	12562	
531.23	14414	
531.42	14370	
531.62	13577	
531.81	12709	
532.01	14803	
532.21	15339	
532.4	12555	
532.6	12995	
532.79	15487	
532.99	14981	
533.18	13079	
533.38	14106	
533.58	14499	
533.77	15255	
533.97	13185	
534.16	13879	
534.36	15511	
534.55	14500	
534.75	14156	
534.95	13049	
535.14	15313	
535.34	14502	
535.53	12594	
535.73	14655	
535.92	15909	
536.12	14607	
536.31	12810	
536.51	14145	
536.71	14995	
536.9	14565	
537.1	13094	
537.29	13345	
537.49	15558	
537.68	14515	
537.88	13866	
538.07	12841	
538.27	14834	
538.46	15872	
538.66	12769	
538.86	13306	
539.05	14830	
539.25	15250	
539.44	13504	
539.64	12944	
539.83	14487	
540.03	15545	
540.22	12930	
540.42	12998	
540.61	14779	
540.81	14918	
541	13409	
541.2	14192	
541.39	14234	
541.59	14756	
541.78	13770	
541.98	12629	
542.18	13929	
542.37	13822	
542.57	13013	
542.76	13689	
542.96	13762	
543.15	14610	
543.35	12975	
543.54	12315	
543.74	14808	
543.93	14403	
544.13	12983	
544.32	14092	
544.52	14767	
544.71	13923	
544.91	11994	
545.1	13425	
545.3	13856	
545.49	14635	
545.69	11992	
545.88	12620	
546.08	15636	
546.27	15141	
546.47	13161	
546.66	12355	
546.86	14758	
547.05	15269	
547.24	12630	
547.44	12588	
547.63	13726	
547.83	14909	
548.02	12951	
548.22	12942	
548.41	13501	
548.61	14878	
548.8	12283	
549	12325	
549.19	14077	
549.39	14421	
549.58	11863	
549.78	12575	
549.97	14433	
550.17	13883	
550.36	13390	
550.55	14340	
550.75	13836	
550.94	14851	
551.14	12120	
551.33	12467	
551.53	13371	
551.72	14371	
551.92	12552	
552.11	12256	
552.31	14371	
552.5	14214	
552.69	13921	
552.89	11815	
553.08	14280	
553.28	13949	
553.47	12392	
553.67	13459	
553.86	14896	
554.06	13184	
554.25	11393	
554.44	12022	
554.64	15608	
554.83	15124	
555.03	11933	
555.22	12341	
555.42	14323	
555.61	14044	
555.8	12113	
556	12551	
556.19	13216	
556.39	14390	
556.58	12282	
556.78	12141	
556.97	13953	
557.16	13744	
557.36	13514	
557.55	11980	
557.75	12885	
557.94	14773	
558.13	11879	
558.33	11652	
558.52	14433	
558.72	13222	
558.91	11683	
559.1	12041	
559.3	13006	
559.49	12668	
559.69	11352	
559.88	12325	
560.07	13850	
560.27	14214	
560.46	12626	
560.66	12611	
560.85	13566	
561.04	12635	
561.24	11736	
561.43	11811	
561.63	13039	
561.82	13304	
562.01	13288	
562.21	12271	
562.4	13900	
562.59	14966	
562.79	12185	
562.98	11789	
563.18	13831	
563.37	15358	
563.56	12726	
563.76	11744	
563.95	13366	
564.14	13219	
564.34	12178	
564.53	11897	
564.73	13942	
564.92	14199	
565.11	12364	
565.31	11796	
565.5	14526	
565.69	13494	
565.89	11972	
566.08	12340	
566.27	14313	
566.47	14807	
566.66	12963	
566.85	11630	
567.05	14016	
567.24	13222	
567.44	11944	
567.63	13368	
567.82	14261	
568.02	14008	
568.21	11976	
568.4	12486	
568.6	13843	
568.79	13988	
568.98	11902	
569.18	12140	
569.37	14029	
569.56	15951	
569.76	12388	
569.95	13307	
570.14	14144	
570.34	14149	
570.53	11949	
570.72	11873	
570.91	14712	
571.11	13850	
571.3	12396	
571.49	13254	
571.69	13888	
571.88	13446	
572.07	13073	
572.27	12788	
572.46	13308	
572.65	14596	
572.85	12231	
573.04	12583	
573.23	14868	
573.43	14190	
573.62	12095	
573.81	12826	
574	14238	
574.2	13969	
574.39	12527	
574.58	12804	
574.78	15153	
574.97	14386	
575.16	13091	
575.36	13239	
575.55	14840	
575.74	14993	
575.93	12120	
576.13	13355	
576.32	14170	
576.51	14969	
576.71	12540	
576.9	14098	
577.09	15195	
577.28	14599	
577.48	13176	
577.67	12080	
577.86	14376	
578.05	14789	
578.25	12865	
578.44	13044	
578.63	14401	
578.83	15724	
579.02	12195	
579.21	13938	
579.4	14686	
579.6	14414	
579.79	13005	
579.98	15362	
580.17	15100	
580.37	15117	
580.56	12619	
580.75	13439	
580.94	15553	
581.14	15507	
581.33	13943	
581.52	12831	
581.71	15188	
581.91	15696	
582.1	12583	
582.29	13058	
582.48	14679	
582.68	14673	
582.87	13753	
583.06	13278	
583.25	15037	
583.45	14436	
583.64	14046	
583.83	14796	
584.02	14461	
584.21	15095	
584.41	13937	
584.6	13155	
584.79	14831	
584.98	15572	
585.18	12686	
585.37	12633	
585.56	14152	
585.75	15150	
585.94	12745	
586.14	13627	
586.33	15603	
586.52	14491	
586.71	13202	
586.91	12891	
587.1	13799	
587.29	14877	
587.48	12734	
587.67	12686	
587.87	14717	
588.06	14710	
588.25	13867	
588.44	13190	
588.63	14111	
588.83	14594	
589.02	12291	
589.21	12080	
589.4	13411	
589.59	13272	
589.78	10975	
589.98	11319	
590.17	12627	
590.36	13317	
590.55	10503	
590.74	11294	
590.94	14651	
591.13	13116	
591.32	11235	
591.51	10854	
591.7	13689	
591.89	13162	
592.09	10962	
592.28	11419	
592.47	12309	
592.66	14446	
592.85	11007	
593.05	11344	
593.24	13086	
593.43	13894	
593.62	11312	
593.81	11957	
594	13030	
594.19	13401	
594.39	11282	
594.58	11067	
594.77	13509	
594.96	14041	
595.15	10977	
595.34	11665	
595.54	13401	
595.73	12363	
595.92	10435	
596.11	11682	
596.3	13931	
596.49	12611	
596.68	11301	
596.88	11897	
597.07	13600	
597.26	12452	
597.45	10852	
597.64	12173	
597.83	12704	
598.02	13421	
598.22	10989	
598.41	11686	
598.6	13140	
598.79	12551	
598.98	10967	
599.17	11940	
599.36	13164	
599.55	14304	
599.74	13299	
599.94	12964	
600.13	13709	
600.32	12480	
600.51	10785	
600.7	11026	
600.89	14435	
601.08	14311	
601.27	10707	
601.47	11779	
601.66	13599	
601.85	14268	
602.04	11574	
602.23	11708	
602.42	12636	
602.61	13426	
602.8	11281	
602.99	11082	
603.18	13015	
603.37	13318	
603.57	11794	
603.76	12443	
603.95	14092	
604.14	13694	
604.33	11254	
604.52	11667	
604.71	13226	
604.9	12863	
605.09	12088	
605.28	11979	
605.47	13831	
605.66	13646	
605.86	11915	
606.05	11283	
606.24	13755	
606.43	12408	
606.62	11539	
606.81	12327	
607	13654	
607.19	12921	
607.38	10981	
607.57	11206	
607.76	12721	
607.95	12148	
608.14	11548	
608.33	12167	
608.52	12624	
608.72	13648	
608.91	10908	
609.1	10641	
609.29	12763	
609.48	12240	
609.67	11823	
609.86	10684	
610.05	12390	
610.24	12611	
610.43	10697	
610.62	10213	
610.81	13824	
611	13678	
611.19	10779	
611.38	11500	
611.57	12920	
611.76	14312	
611.95	10482	
612.14	10364	
612.33	12786	
612.52	12280	
612.71	11019	
612.9	10271	
613.09	11884	
613.28	14372	
613.47	10613	
613.66	11861	
613.85	12932	
614.04	12385	
614.24	10935	
614.43	10187	
614.62	13120	
614.81	12963	
615	11518	
615.19	11416	
615.38	12343	
615.57	12747	
615.76	11315	
615.95	12222	
616.14	13099	
616.33	12726	
616.52	11741	
616.71	12064	
616.9	13119	
617.09	12981	
617.28	11146	
617.47	12405	
617.66	12248	
617.85	12390	
618.04	12334	
618.22	11624	
618.41	12697	
618.6	13685	
618.79	11609	
618.98	11275	
619.17	14052	
619.36	12362	
619.55	11493	
619.74	11536	
619.93	13340	
620.12	12757	
620.31	12155	
620.5	12387	
620.69	14040	
620.88	14372	
621.07	12999	
621.26	12125	
621.45	13605	
621.64	13563	
621.83	12329	
622.02	11396	
622.21	13631	
622.4	13579	
622.59	12809	
622.78	12684	
622.97	13112	
623.16	14150	
623.35	12233	
623.54	11287	
623.72	13323	
623.91	13482	
624.1	12426	
624.29	11093	
624.48	14629	
624.67	13762	
624.86	12427	
625.05	11349	
625.24	14749	
625.43	13155	
625.62	14200	
625.81	11609	
626	14060	
626.19	13329	
626.38	12519	
626.56	11863	
626.75	13145	
626.94	13936	
627.13	12312	
627.32	11133	
627.51	13756	
627.7	15119	
627.89	11187	
628.08	12450	
628.27	12823	
628.46	13099	
628.65	11401	
628.83	11030	
629.02	13715	
629.21	13004	
629.4	11979	
629.59	12307	
629.78	13018	
629.97	14040	
630.16	12205	
630.35	11753	
630.54	14418	
630.72	14178	
630.91	11577	
631.1	12246	
631.29	13644	
631.48	13799	
631.67	12353	
631.86	11798	
632.05	13194	
632.24	13360	
632.42	11400	
632.61	12177	
632.8	13396	
632.99	13103	
633.18	12091	
633.37	12564	
633.56	13585	
633.75	13401	
633.93	12126	
634.12	11803	
634.31	14476	
634.5	14224	
634.69	11888	
634.88	12215	
635.07	13449	
635.25	14158	
635.44	12780	
635.63	13066	
635.82	13307	
636.01	12756	
636.2	12652	
636.39	12301	
636.57	14426	
636.76	14137	
636.95	11604	
637.14	13106	
637.33	13642	
637.52	14661	
637.7	11385	
637.89	12370	
638.08	13308	
638.27	14801	
638.46	12399	
638.65	12863	
638.83	14734	
639.02	12840	
639.21	12298	
639.4	12714	
639.59	13469	
639.78	13066	
639.96	11415	
640.15	11430	
640.34	13122	
640.53	13478	
640.72	11095	
640.91	11323	
641.09	12577	
641.28	14124	
641.47	11552	
641.66	12306	
641.85	13280	
642.03	13613	
642.22	12172	
642.41	11549	
642.6	12765	
642.79	12080	
642.97	11217	
643.16	11936	
643.35	12575	
643.54	12365	
643.73	11057	
643.91	11864	
644.1	12062	
644.29	12658	
644.48	10895	
644.67	10956	
644.85	12076	
645.04	12461	
645.23	10339	
645.42	10629	
645.6	11837	
645.79	13024	
645.98	10628	
646.17	9425.4	
646.36	11335	
646.54	12051	
646.73	11090	
646.92	9828.2	
647.11	11469	
647.29	12568	
647.48	9914.2	
647.67	9684.2	
647.86	12850	
648.05	12969	
648.23	10290	
648.42	11806	
648.61	12304	
648.8	12098	
648.98	10014	
649.17	10436	
649.36	11658	
649.55	11176	
649.73	10094	
649.92	10783	
650.11	11360	
650.3	11749	
650.48	10059	
650.67	9867.1	
650.86	12069	
651.05	10966	
651.23	10134	
651.42	10099	
651.61	11501	
651.79	11612	
651.98	10243	
652.17	9826.8	
652.36	11894	
652.54	10945	
652.73	9784.5	
652.92	9620.7	
653.11	11815	
653.29	11806	
653.48	8960.5	
653.67	10032	
653.85	11372	
654.04	12409	
654.23	9862.3	
654.42	9416.6	
654.6	10598	
654.79	11211	
654.98	8718.9	
655.16	9452.1	
655.35	10281	
655.54	10227	
655.73	9074.5	
655.91	9042.5	
656.1	11571	
656.29	10383	
656.47	8738.7	
656.66	10603	
656.85	10733	
657.03	10851	
657.22	9331.2	
657.41	9396.8	
657.59	10834	
657.78	10725	
657.97	9041.8	
658.16	9783.1	
658.34	11558	
658.53	12049	
658.72	10708	
658.9	11234	
659.09	11002	
659.28	11219	
659.46	9491.7	
659.65	9442.5	
659.84	10875	
660.02	11404	
660.21	9353.8	
660.4	9349.7	
660.58	11740	
660.77	11172	
660.96	9952.4	
661.14	9002.2	
661.33	12329	
661.52	12170	
661.7	8804.2	
661.89	12738	
662.08	10673	
662.26	10250	
662.45	9159.9	
662.64	9306.7	
662.82	11391	
663.01	10634	
663.2	9323.7	
663.38	10198	
663.57	11268	
663.75	11196	
663.94	9617.9	
664.13	10789	
664.31	10585	
664.5	11324	
664.69	9957.2	
664.87	10435	
665.06	10217	
665.25	11114	
665.43	10663	
665.62	10751	
665.8	11414	
665.99	10746	
666.18	9596.1	
666.36	9650.7	
666.55	11354	
666.74	11305	
666.92	9097.8	
667.11	10861	
667.29	10638	
667.48	11243	
667.67	10316	
667.85	9518.3	
668.04	10754	
668.22	10760	
668.41	9508.7	
668.6	9698.5	
668.78	10399	
668.97	10670	
669.15	9900.6	
669.34	8808.3	
669.53	10601	
669.71	10910	
669.9	8971.5	
670.08	9695.1	
670.27	10475	
670.46	10996	
670.64	9906.7	
670.83	10244	
671.01	10382	
671.2	10992	
671.38	9052.7	
671.57	8951.7	
671.76	11690	
671.94	12269	
672.13	8981.7	
672.31	9921	
672.5	11165	
672.69	10466	
672.87	9013.1	
673.06	9400.2	
673.24	11080	
673.43	10415	
673.61	9854.8	
673.8	9331.2	
673.98	11153	
674.17	11395	
674.36	9987.3	
674.54	9768.8	
674.73	10891	
674.91	11111	
675.1	9435.7	
675.28	9186.5	
675.47	10649	
675.65	11300	
675.84	9357.9	
676.03	9681.4	
676.21	10490	
676.4	9985.9	
676.58	10107	
676.77	9964.7	
676.95	12002	
677.14	10461	
677.32	9041.8	
677.51	8851.3	
677.69	11215	
677.88	10050	
678.06	8886.8	
678.25	9023.4	
678.44	10770	
678.62	10406	
678.81	8748.2	
678.99	9763.3	
679.18	11520	
679.36	11191	
679.55	9278.7	
679.73	9977	
679.92	11108	
680.1	10447	
680.29	10651	
680.47	9306.7	
680.66	10319	
680.84	11356	
681.03	8600.8	
681.21	9745.6	
681.4	10512	
681.58	10290	
681.77	9082.7	
681.95	8951	
682.14	11248	
682.32	11533	
682.51	10020	
682.69	8652	
682.88	10245	
683.06	10789	
683.25	9577.7	
683.43	10025	
683.62	10553	
683.8	10819	
683.99	9849.4	
684.17	9046.6	
684.36	11385	
684.54	9911.5	
684.73	7785.7	
684.91	8082.6	
685.1	9990	
685.28	9383.1	
685.46	8610.3	
685.65	8825.4	
685.83	10410	
686.02	9807.7	
686.2	8320.2	
686.39	8423.3	
686.57	9402.2	
686.76	11272	
686.94	8394.6	
687.13	8564.6	
687.31	10409	
687.5	9979.8	
687.68	8023.9	
687.86	9328.5	
688.05	11664	
688.23	9445.9	
688.42	9450.7	
688.6	8609	
688.79	9950.4	
688.97	9910.1	
689.16	9132.6	
689.34	7927	
689.52	10927	
689.71	10878	
689.89	9361.9	
690.08	8594	
690.26	10205	
690.45	10116	
690.63	9462.3	
690.81	8678.6	
691	9768.8	
691.18	9732.6	
691.37	8665	
691.55	11006	
691.74	9632.3	
691.92	11923	
692.1	8794.7	
692.29	8228.7	
692.47	9966.1	
692.66	9303.9	
692.84	8540.7	
693.02	9151	
693.21	9589.3	
693.39	10122	
693.58	9340.8	
693.76	8749.6	
693.94	11512	
694.13	11314	
694.31	8813.8	
694.5	10021	
694.68	10142	
694.86	10492	
695.05	9413.8	
695.23	9775.6	
695.42	10914	
695.6	13308	
695.78	9923.8	
695.97	8803.5	
696.15	10768	
696.34	10138	
696.52	8639.7	
696.7	9389.3	
696.89	10419	
697.07	9872.6	
697.25	9283.4	
697.44	10933	
697.62	10287	
697.81	10770	
697.99	8927.1	
698.17	9424.8	
698.36	9583.1	
698.54	10358	
698.72	9346.9	
698.91	8194.6	
699.09	9994.1	
699.28	9867.1	
699.46	8914.1	
699.64	8830.8	
699.83	9727.9	
700.01	11098	
700.19	9727.9	
700.38	8128.4	
700.56	11127	
700.74	10093	
700.93	8523	
701.11	9492.3	
701.29	10533	
701.48	11802	
701.66	8763.9	
701.84	8931.2	
702.03	10146	
702.21	10968	
702.39	8338	
702.58	9010.4	
702.76	10548	
702.94	10733	
703.13	8430.8	
703.31	10959	
703.49	9865.1	
703.68	10933	
703.86	8607.6	
704.04	9677.3	
704.23	10432	
704.41	10907	
704.59	8774.9	
704.78	10019	
704.96	11548	
705.14	10970	
705.33	8647.9	
705.51	9327.8	
705.69	10264	
705.87	11157	
706.06	9792.7	
706.24	8567.3	
706.42	10625	
706.61	10861	
706.79	9662.3	
706.97	8615.8	
707.16	10040	
707.34	10610	
707.52	9654.8	
707.7	8748.9	
707.89	10372	
708.07	9785.2	
708.25	9692.4	
708.44	9877.4	
708.62	10127	
708.8	11307	
708.98	10020	
709.17	8908.7	
709.35	10509	
709.53	10558	
709.72	8590.5	
709.9	8738	
710.08	10662	
710.26	10667	
710.45	10189	
710.63	8865.7	
710.81	10332	
710.99	10329	
711.18	9372.2	
711.36	8823.3	
711.54	10084	
711.72	10796	
711.91	8725.7	
712.09	8163.9	
712.27	10075	
712.45	10692	
712.64	8970.1	
712.82	7747.5	
713	9139.4	
713.18	9265.7	
713.37	7699.7	
713.55	8830.2	
713.73	9930.6	
713.91	8339.3	
714.1	7589.1	
714.28	6934.4	
714.46	9220.6	
714.64	8323.6	
714.83	6267.5	
715.01	7078.5	
715.19	8211.7	
715.37	7614.3	
715.55	6721.4	
715.74	7106.5	
715.92	9181	
716.1	7124.9	
716.28	8157.7	
716.47	7042.3	
716.65	7800.7	
716.83	7916.1	
717.01	6970.6	
717.19	7106.5	
717.38	10239	
717.56	7708.6	
717.74	7589.1	
717.92	6718	
718.1	9189.2	
718.29	8585.1	
718.47	6564.4	
718.65	7162.4	
718.83	9332.6	
719.01	9208.4	
719.2	6470.2	
719.38	7561.1	
719.56	8893.6	
719.74	10482	
719.92	6924.9	
720.11	7905.2	
720.29	8641.1	
720.47	7751.6	
720.65	6272.9	
720.83	7113.3	
721.02	7963.9	
721.2	7711.3	
721.38	7073	
721.56	6333.7	
721.74	7216.4	
721.92	7449.1	
722.11	7722.2	
722.29	7365.2	
722.47	8707.3	
722.65	7875.1	
722.83	6299.6	
723.01	7267.6	
723.2	7969.3	
723.38	8269.7	
723.56	5831.9	
723.74	7068.9	
723.92	7357	
724.1	8575.5	
724.29	6233.3	
724.47	7522.2	
724.65	7468.3	
724.83	7445	
725.01	6190.3	
725.19	7086.7	
725.37	7475.1	
725.56	7499.7	
725.74	6057.2	
725.92	6306.4	
726.1	7361.8	
726.28	7731.1	
726.46	6716	
726.64	6450.4	
726.83	7662.1	
727.01	7909.3	
727.19	5950.7	
727.37	6840.2	
727.55	7807.5	
727.73	8411	
727.91	5998.5	
728.09	5836.7	
728.28	8429.4	
728.46	9126.4	
728.64	7195.2	
728.82	7242.3	
729	9794.1	
729.18	9077.3	
729.36	6468.2	
729.54	8794.7	
729.72	10153	
729.91	8413.1	
730.09	8501.8	
730.27	7294.2	
730.45	8322.3	
730.63	9033.6	
730.81	7993.2	
730.99	6958.3	
731.17	9556.5	
731.35	8088.8	
731.53	7486	
731.71	7014.3	
731.9	9205.6	
732.08	9424.8	
732.26	7268.9	
732.44	6936.5	
732.62	9437	
732.8	8908	
732.98	7770.7	
733.16	6698.2	
733.34	8849.3	
733.52	7662.1	
733.7	7206.1	
733.88	7553.6	
734.07	8772.8	
734.25	8471.1	
734.43	6757.6	
734.61	8422.6	
734.79	10094	
734.97	8427.4	
735.15	6885.3	
735.33	7232.1	
735.51	8744.1	
735.69	8380.3	
735.87	8653.4	
736.05	7550.2	
736.23	8631.5	
736.41	8355	
736.59	7353.6	
736.77	7455.3	
736.95	9153.1	
737.13	8543.4	
737.32	6980.8	
737.5	7243	
737.68	9699.2	
737.86	8422.6	
738.04	6776.7	
738.22	8716.2	
738.4	8229.4	
738.58	8560.5	
738.76	7421.2	
738.94	6296.8	
739.12	8297	
739.3	8238.3	
739.48	8059.4	
739.66	7907.9	
739.84	8701.8	
740.02	8668.4	
740.2	6518	
740.38	6827.9	
740.56	9011.7	
740.74	7848.5	
740.92	7515.4	
741.1	7419.1	
741.28	8487.5	
741.46	8177.5	
741.64	7077.1	
741.82	7581.6	
742	8391.2	
742.18	8357.8	
742.36	7210.2	
742.54	6790.4	
742.72	9074.5	
742.9	7657.4	
743.08	7644.4	
743.26	6364.4	
743.44	9273.9	
743.62	9030.2	
743.8	7841.7	
743.98	6705.7	
744.16	8698.4	
744.34	8322.3	
744.52	7695.6	
744.7	7600	
744.88	8838.4	
745.06	8306.6	
745.24	7632.8	
745.42	7648.5	
745.6	8837	
745.78	8511.4	
745.96	6363	
746.14	6621.8	
746.32	9608.4	
746.5	8831.5	
746.68	7323.5	
746.86	6661.4	
747.03	9317.6	
747.21	7489.4	
747.39	7191.8	
747.57	6705	
747.75	8405.5	
747.93	8781	
748.11	6760.3	
748.29	6589.7	
748.47	10073	
748.65	8097.7	
748.83	7509.2	
749.01	7101	
749.19	8596	
749.37	7732.4	
749.55	6952.2	
749.73	7185.6	
749.91	8316.8	
750.09	7954.3	
750.26	7191.8	
750.44	6556.2	
750.62	8322.3	
750.8	8310	
750.98	6429.9	
751.16	6773.3	
751.34	8310.7	
751.52	7759.8	
751.7	7560.4	
751.88	6368.5	
752.06	8880	
752.24	8544.1	
752.42	6325.5	
752.59	6664.8	
752.77	8234.9	
752.95	9623.4	
753.13	7500.3	
753.31	6787.7	
753.49	7810.3	
753.67	8382.3	
753.85	7126.9	
754.03	6645	
754.21	8538.7	
754.38	8912.8	
754.56	6624.5	
754.74	5693.4	
754.92	7570	
755.1	8244.4	
755.28	5343.2	
755.46	5145.2	
755.64	8404.2	
755.82	8344.8	
755.99	4855.1	
756.17	5144.5	
756.35	5421	
756.53	6982.2	
756.71	3648.8	
756.89	4640.7	
757.07	6653.9	
757.25	5749.3	
757.42	5464	
757.6	6464.8	
757.78	7051.8	
757.96	6040.1	
758.14	5335.6	
758.32	4748.6	
758.5	5436	
758.67	6353.5	
758.85	4975.2	
759.03	5128.1	
759.21	6479.1	
759.39	5905.7	
759.57	4610	
759.75	5840.8	
759.92	7212.9	
760.1	6528.9	
760.28	6370.5	
760.46	6641.6	
760.64	6458.6	
760.82	6245.6	
760.99	6099.5	
761.17	5545.2	
761.35	7466.9	
761.53	6427.9	
761.71	5836	
761.89	6538.5	
762.06	7527.7	
762.24	7056.6	
762.42	5946.6	
762.6	5762.3	
762.78	7089.4	
762.96	7776.8	
763.13	6563.7	
763.31	6155.5	
763.49	8049.9	
763.67	7088	
763.85	7105.1	
764.02	7755.7	
764.2	8387.1	
764.38	7518.8	
764.56	6047.7	
764.74	6979.5	
764.91	8503.8	
765.09	7266.2	
765.27	5766.4	
765.45	5517.9	
765.63	8486.8	
765.8	8256	
765.98	5274.2	
766.16	5651.7	
766.34	6799.3	
766.52	6547.4	
766.69	6555.5	
766.87	5358.2	
767.05	7246.4	
767.23	8088.1	
767.41	5674.9	
767.58	5983.5	
767.76	7757	
767.94	7834.8	
768.12	5741.1	
768.29	6582.2	
768.47	7225.9	
768.65	7930.4	
768.83	5242.8	
769	6510.5	
769.18	6731	
769.36	7456.7	
769.54	6255.2	
769.72	5322	
769.89	7616.4	
770.07	7832.1	
770.25	5614.2	
770.43	6908.5	
770.6	8473.1	
770.78	8834.9	
770.96	5795.8	
771.14	6415.6	
771.31	7486	
771.49	6799.3	
771.67	4809.3	
771.85	5107.6	
772.02	5948.7	
772.2	6844.3	
772.38	5797.8	
772.55	5302.9	
772.73	7025.9	
772.91	6768.5	
773.09	5659.2	
773.26	5743.9	
773.44	6852.5	
773.62	6657.3	
773.8	5085.8	
773.97	4835.9	
774.15	6907.8	
774.33	6556.9	
774.5	4973.2	
774.68	5369.8	
774.86	6892.1	
775.04	6585.6	
775.21	4959.5	
775.39	5018.9	
775.57	6812.9	
775.74	7220.5	
775.92	4827.1	
776.1	4742.4	
776.27	6691.4	
776.45	8016.4	
776.63	4917.2	
776.81	4430.4	
776.98	6367.1	
777.16	7515.4	
777.34	5083.1	
777.51	5371.1	
777.69	6276.3	
777.87	6070.2	
778.04	5034.6	
778.22	5711.8	
778.4	6059.3	
778.57	6793.1	
778.75	4224.3	
778.93	4531.5	
779.1	5832.6	
779.28	5724.8	
779.46	4225.6	
779.64	4710.3	
779.81	6840.9	
779.99	7770.7	
780.17	5573.9	
780.34	5651	
780.52	6244.3	
780.69	6403.3	
780.87	5021.6	
781.05	4583.4	
781.22	6193.1	
781.4	6289.3	
781.58	4706.9	
781.75	3815.4	
781.93	6277	
782.11	5610.8	
782.28	5602.6	
782.46	4545.1	
782.64	5406	
782.81	6447	
782.99	4727.4	
783.17	4633.2	
783.34	6196.5	
783.52	5455.1	
783.69	4851.6	
783.87	5698.1	
784.05	5421	
784.22	5555.5	
784.4	5616.9	
784.58	4906.3	
784.75	6378.1	
784.93	5479.7	
785.1	4448.2	
785.28	5176.6	
785.46	6036.7	
785.63	5443.5	
785.81	4441.4	
785.99	4336.2	
786.16	5552	
786.34	6005.3	
786.51	4315.8	
786.69	4709.6	
786.87	5171.8	
787.04	5701.5	
787.22	4205.8	
787.39	5189.6	
787.57	5418.2	
787.75	6573.3	
787.92	5360.2	
788.1	5304.2	
788.27	5439.4	
788.45	5131.5	
788.63	4978.6	
788.8	3636.5	
788.98	5942.5	
789.15	5085.8	
789.33	3786	
789.5	4386.7	
789.68	6343.2	
789.86	6475	
790.03	4902.2	
790.21	4195.6	
790.38	6292.7	
790.56	5462.6	
790.73	4072.7	
790.91	4147.1	
791.09	5341.1	
791.26	6169.2	
791.44	4338.3	
791.61	3762.8	
791.79	5292.6	
791.96	5400.5	
792.14	3934.1	
792.32	3464.5	
792.49	5296.7	
792.67	5445.5	
792.84	3951.9	
793.02	3735.5	
793.19	5874.3	
793.37	6486.6	
793.54	3434.4	
793.72	3798.3	
793.89	6697.5	
794.07	5319.9	
794.25	4425	
794.42	3522.5	
794.6	6436.1	
794.77	6045.6	
794.95	4683	
795.12	4145.1	
795.3	5223.7	
795.47	5919.3	
795.65	4489.1	
795.82	4369	
796	5124.7	
796.17	7073.7	
796.35	4194.2	
796.52	4960.2	
796.7	5827.2	
796.87	5980.8	
797.05	5199.8	
797.22	5076.9	
797.4	5864.7	
797.57	6949.4	
797.75	4302.1	
797.92	4102.1	
798.1	6229.9	
798.27	5258.5	
798.45	3491.8	
798.62	3747.1	
798.8	5575.3	
798.97	6127.5	
799.15	4603.8	
799.32	4291.9	
799.5	4792.9	
799.67	5651.7	
799.85	4679.6	
800.02	3447.4	
800.2	5162.9	
800.37	5565.7	
800.55	4864.6	
800.72	4105.5	
800.9	6066.1	
801.07	6503	
801.25	5442.8	
801.42	4476.9	
801.6	6104.3	
801.77	5805.3	
801.95	3914.4	
802.12	3904.8	
802.29	5763	
802.47	5739.1	
802.64	4364.9	
802.82	3286.3	
802.99	5113.8	
803.17	6209.4	
803.34	4330.8	
803.52	3833.8	
803.69	6918.7	
803.87	4912.4	
804.04	4256.4	
804.21	4366.3	
804.39	6323.4	
804.56	5395.7	
804.74	3642	
804.91	4421.6	
805.09	5165	
805.26	5257.8	
805.44	3682.2	
805.61	4047.5	
805.78	5864.7	
805.96	5909.8	
806.13	4360.8	
806.31	4700.1	
806.48	4696.7	
806.66	5316.5	
806.83	4330.1	
807	4288.4	
807.18	5145.2	
807.35	5644.2	
807.53	4235.9	
807.7	3401	
807.87	6410.1	
808.05	5189.6	
808.22	4691.9	
808.4	3409.2	
808.57	5248.3	
808.74	4828.4	
808.92	3923.9	
809.09	4988.2	
809.27	5047.6	
809.44	5747.3	
809.61	3446.7	
809.79	3801.7	
809.96	6410.8	
810.14	5993	
810.31	3282.2	
810.48	4059.8	
810.66	5295.4	
810.83	6030.6	
811.01	3893.9	
811.18	4723.3	
811.35	5926.8	
811.53	4627	
811.7	4721.9	
811.87	4360.8	
812.05	5236.7	
812.22	5109	
812.39	3707.5	
812.57	3662.5	
812.74	5171.8	
812.92	6945.3	
813.09	4046.8	
813.26	4477.5	
813.44	6685.9	
813.61	5135.6	
813.78	3402.4	
813.96	4554.7	
814.13	5182.7	
814.3	4877.6	
814.48	4943.1	
814.65	4089.1	
814.82	6509.1	
815	4962.9	
815.17	4175.1	
815.34	5184.1	
815.52	5114.5	
815.69	5110.4	
815.87	4240	
816.04	3601	
816.21	5197.1	
816.38	4571.7	
816.56	4048.2	
816.73	3751.2	
816.9	6515.3	
817.08	6003.3	
817.25	3804.4	
817.42	4785.4	
817.6	4689.8	
817.77	5177.9	
817.94	4313.7	
818.12	3772.4	
818.29	4911	
818.46	7737.9	
818.64	3922.5	
818.81	3666.5	
818.98	4816.1	
819.16	6989	
819.33	4508.9	
819.5	4247.5	
819.67	5594.4	
819.85	6206	
820.02	4120.5	
820.19	4388.8	
820.37	5348.6	
820.54	5010.7	
820.71	4251.6	
820.88	5307	
821.06	5432.6	
821.23	4936.3	
821.4	4292.5	
821.58	4267.3	
821.75	5943.9	
821.92	5345.9	
822.09	3433.8	
822.27	3590.8	
822.44	5190.2	
822.61	5036.6	
822.79	3495.9	
822.96	6597.9	
823.13	5705	
823.3	4956.1	
823.48	4018.1	
823.65	3591.5	
823.82	5925.5	
823.99	4700.8	
824.17	5103.5	
824.34	3627	
824.51	6827.2	
824.68	5256.5	
824.86	3796.9	
825.03	4289.8	
825.2	5139.7	
825.37	6379.4	
825.55	3814	
825.72	4205.2	
825.89	7011.6	
826.06	6402.6	
826.24	4104.8	
826.41	4120.5	
826.58	6265.4	
826.75	5525.4	
826.92	3221.5	
827.1	3584.6	
827.27	8670.4	
827.44	6896.9	
827.61	3898	
827.79	4771.1	
827.96	4886.5	
828.13	5360.2	
828.3	4045.4	
828.47	3454.9	
828.65	5415.5	
828.82	5397.1	
828.99	5312.4	
829.16	4630.5	
829.34	5746.6	
829.51	5601.9	
829.68	4199.7	
829.85	4420.9	
830.02	6042.9	
830.2	5871.5	
830.37	3259.7	
830.54	5089.9	
830.71	6681.2	
830.88	5210	
831.05	3323.9	
831.23	3874.1	
831.4	6326.2	
831.57	7086.7	
831.74	3839.3	
831.91	3442	
832.09	5374.6	
832.26	5793	
832.43	4072	
832.6	4481.6	
832.77	5421.7	
832.94	6216.3	
833.12	3255.6	
833.29	3989.4	
833.46	5027.1	
833.63	7455.3	
833.8	4399.7	
833.97	4066.6	
834.15	5848.3	
834.32	5561.6	
834.49	4159.4	
834.66	4360.1	
834.83	6039.5	
835	4906.9	
835.17	3841.3	
835.35	3935.5	
835.52	5670.1	
835.69	5619.6	
835.86	4154.6	
836.03	3396.2	
836.2	5795.8	
836.37	5380	
836.55	4025.6	
836.72	3769.6	
836.89	5335	
837.06	5794.4	
837.23	4123.9	
837.4	4548.5	
837.57	6660	
837.75	7436.9	
837.92	3717.7	
838.09	3936.9	
838.26	5352.7	
838.43	6083.1	
838.6	4252.3	
838.77	3777.8	
838.94	6939.2	
839.11	6707.1	
839.29	3988.1	
839.46	3200.3	
839.63	5745.2	
839.8	5510.4	
839.97	3930.1	
840.14	3895.9	
840.31	5596.4	
840.48	5831.9	
840.65	3212.6	
840.82	3874.8	
841	5773.2	
841.17	5717.2	
841.34	3614	
841.51	3663.1	
841.68	5623.7	
841.85	5421	
842.02	3773	
842.19	3117.7	
842.36	5545.2	
842.53	5588.2	
842.7	3596.9	
842.87	4445.5	
843.05	7314.7	
843.22	5433.9	
843.39	3461.7	
843.56	3730.7	
843.73	5171.1	
843.9	5834	
844.07	5904.3	
844.24	4910.3	
844.41	8638.3	
844.58	4999.8	
844.75	3448.1	
844.92	3803.8	
845.09	5798.5	
845.26	5733.6	
845.43	3538.9	
845.6	3785.3	
845.77	5852.4	
845.94	5498.8	
846.12	4000.4	
846.29	4176.5	
846.46	5928.9	
846.63	5802.6	
846.8	3594.9	
846.97	4339.6	
847.14	6279.8	
847.31	5685.8	
847.48	4103.4	
847.65	4444.1	
847.82	6085.9	
847.99	6039.5	
848.16	4820.2	
848.33	4439.3	
848.5	5324.7	
848.67	6229.9	
848.84	3566.9	
849.01	3685	
849.18	5198.4	
849.35	4842.1	
849.52	4526	
849.69	3494.5	
849.86	5956.9	
850.03	6270.2	
850.2	3626.3	
850.37	4369.7	
850.54	6158.9	
850.71	5489.2	
850.88	4308.2	
851.05	3569.6	
851.22	5665.4	
851.39	6371.9	
851.56	3414	
851.73	4099.4	
851.9	5089.2	
852.07	6023.1	
852.24	4024.9	
852.41	3473.4	
852.58	5607.3	
852.75	5182	
852.92	3991.5	
853.09	3496.6	
853.26	5364.3	
853.43	6203.3	
853.6	3517	
853.77	3037.1	
853.94	6335.1	
854.11	5048.9	
854.28	5343.8	
854.44	3852.9	
854.61	6847	
854.78	5903.6	
854.95	3558.7	
855.12	4476.9	
855.29	4634.6	
855.46	6627.9	
855.63	3579.8	
855.8	4966.3	
855.97	5283.8	
856.14	6153.5	
856.31	5123.3	
856.48	3917.8	
856.65	5300.1	
856.82	4988.2	
856.99	3391.4	
857.16	3824.2	
857.33	7101	
857.49	5429.2	
857.66	3854.3	
857.83	4158.1	
858	5390.9	
858.17	5534.3	
858.34	3423.5	
858.51	3566.2	
858.68	6505.7	
858.85	6456.6	
859.02	4128	
859.19	4385.4	
859.36	5024.3	
859.52	5126.1	
859.69	3601.7	
859.86	4266.6	
860.03	5107.6	
860.2	6334.4	
860.37	3243.3	
860.54	3633.8	
860.71	6001.9	
860.88	6407.4	
861.05	4055.7	
861.21	4484.4	
861.38	6464.8	
861.55	4929.5	
861.72	3319.1	
861.89	4057	
862.06	6098.9	
862.23	6546.7	
862.4	3433.8	
862.56	3732.8	
862.73	5926.8	
862.9	5555.5	
863.07	4241.3	
863.24	3296.5	
863.41	4923.3	
863.58	5109	
863.75	3662.5	
863.91	4076.1	
864.08	6378.7	
864.25	5926.1	
864.42	4534.9	
864.59	4969.7	
864.76	6692.8	
864.93	5050.3	
865.09	3480.2	
865.26	3805.8	
865.43	6216.3	
865.6	6690	
865.77	3121.8	
865.94	3512.3	
866.1	6356.9	
866.27	6022.4	
866.44	5345.9	
866.61	3356.6	
866.78	5479	
866.95	5879.7	
867.11	3442	
867.28	3181.9	
867.45	6152.8	
867.62	5244.8	
867.79	4146.5	
867.96	3491.1	
868.12	5050.3	
868.29	6061.3	
868.46	3059.7	
868.63	4758.1	
868.8	6212.2	
868.97	5943.2	
869.13	3760.8	
869.3	3707.5	
869.47	5877	
869.64	6058.6	
869.81	3616.7	
869.97	3560.1	
870.14	5775.3	
870.31	6589	
870.48	3472.7	
870.65	4506.2	
870.81	5418.9	
870.98	5335.6	
871.15	4059.8	
871.32	3689.8	
871.48	5863.3	
871.65	6509.8	
871.82	3558.7	
871.99	3900	
872.16	6976.7	
872.32	6268.8	
872.49	3627.6	
872.66	3628.3	
872.83	6019	
872.99	5195	
873.16	4113	
873.33	3542.3	
873.5	5599.8	
873.67	5574.6	
873.83	3746.4	
874	4756.1	
874.17	5690.6	
874.34	6896.2	
874.5	4659.8	
874.67	4502.1	
874.84	6395.1	
875.01	5022.3	
875.17	5074.9	
875.34	3588.7	
875.51	5668.1	
875.68	6885.3	
875.84	4347.8	
876.01	5257.8	
876.18	5956.2	
876.34	5960.3	
876.51	3606.5	
876.68	3484.3	
876.85	5399.8	
877.01	6285.9	
877.18	5067.4	
877.35	3573.7	
877.52	5464	
877.68	4997	
877.85	3413.3	
878.02	3539.6	
878.18	5535.7	
878.35	5259.2	
878.52	2824.1	
878.69	4021.5	
878.85	5922.7	
879.02	5984.8	
879.19	5066.7	
879.35	3865.2	
879.52	5922	
879.69	6189.6	
879.86	3078.1	
880.02	4009.9	
880.19	5496.7	
880.36	6771.3	
880.52	4017.4	
880.69	4204.5	
880.86	6022.4	
881.02	6198.5	
881.19	3878.9	
881.36	3915	
881.52	5949.3	
881.69	5261.9	
881.86	3846.1	
882.02	3736.2	
882.19	6183.5	
882.36	7333.8	
882.52	3728.7	
882.69	5055.1	
882.86	5747.3	
883.02	5641.5	
883.19	4352.6	
883.36	4072.7	
883.52	6034	
883.69	6959	
883.86	3648.1	
884.02	3221.5	
884.19	6014.2	
884.36	5530.9	
884.52	4055	
884.69	3814	
884.86	5272.2	
885.02	6681.8	
885.19	4000.4	
885.36	4115.7	
885.52	5551.4	
885.69	5716.6	
885.86	5165.7	
886.02	4539.7	
886.19	5971.2	
886.35	5474.2	
886.52	3976.5	
886.69	4989.5	
886.85	5048.2	
887.02	6442.9	
887.19	6442.9	
887.35	6442.9	
887.52	6442.9	
887.68	6442.9	
887.85	6442.9	
888.02	6442.9	
888.18	6442.9	
888.35	6442.9	
888.51	6442.9	
888.68	6442.9	
888.85	6442.9	
889.01	6442.9	
889.18	6442.9	
889.35	6442.9	
889.51	6442.9	
889.68	6442.9	
889.84	6442.9	
890.01	6442.9	
890.17	6442.9	
890.34	6442.9	
890.51	6442.9	
890.67	6442.9	
890.84	6442.9	
891	6442.9	
891.17	6442.9	
891.34	6442.9	
891.5	6442.9	
891.67	6442.9	
891.83	6442.9	
892	6442.9	
892.16	6442.9	
892.33	6442.9	
892.5	6442.9	
892.66	6442.9	
892.83	6442.9	
892.99	6442.9	
893.16	6442.9	
893.32	6442.9	
893.49	6442.9	
893.65	6442.9	
893.82	6442.9	
893.99	6442.9	
894.15	6442.9	
894.32	6442.9	
894.48	6442.9	
894.65	6442.9	
894.81	6442.9	
894.98	6442.9	
895.14	6442.9	
895.31	6442.9	
895.47	6442.9	
895.64	6442.9	
895.81	6442.9	
895.97	6442.9	
896.14	6442.9	
896.3	6442.9	
896.47	6442.9	
896.63	6442.9	
896.8	6442.9	
896.96	6442.9	
897.13	6442.9	
897.29	6442.9	
897.46	6442.9	
897.62	6442.9	
897.79	6442.9	
897.95	6442.9	
898.12	6442.9	
898.28	6442.9	
898.45	6442.9	
898.61	6442.9	
898.78	6442.9	
898.94	6442.9	
899.11	6442.9	
899.27	6442.9	
899.44	6442.9	
899.6	6442.9	
899.77	6442.9	
899.93	6442.9	
900.1	6442.9	
900.26	6442.9	
900.43	6442.9	
900.59	6442.9	
900.76	6442.9	
900.92	6442.9	
901.09	6442.9	
901.25	6442.9	
901.42	6442.9	
901.58	6442.9	
901.75	6442.9	
901.91	6442.9	
902.07	6442.9	
902.24	6442.9	
902.4	6442.9	
902.57	6442.9	
902.73	6442.9	
902.9	6442.9	
903.06	6442.9	
903.23	6442.9	
903.39	6442.9	
903.56	6442.9	
903.72	6442.9	
903.88	6442.9	
904.05	6442.9	
904.21	6442.9	
904.38	6442.9	
904.54	6442.9	
904.71	6442.9	
904.87	6442.9	
905.03	6442.9	
905.2	6442.9	
905.36	6442.9	
905.53	6442.9	
905.69	6442.9	
905.86	6442.9	
906.02	6442.9	
906.18	6442.9	
906.35	6442.9	
906.51	6442.9	
906.68	6442.9	
906.84	6442.9	
907.01	6442.9	
907.17	6442.9	
907.33	6442.9	
907.5	6442.9	
907.66	6442.9	
907.83	6442.9	
907.99	6442.9	
908.15	6442.9	
908.32	6442.9	
908.48	6442.9	
908.65	6442.9	
908.81	6442.9	
908.97	6442.9	
909.14	6442.9	
909.3	6442.9	
909.47	6442.9	
909.63	6442.9	
909.79	6442.9	
909.96	6442.9	
910.12	6442.9	
910.28	6442.9	
910.45	6442.9	
910.61	6442.9	
910.78	6442.9	
910.94	6442.9	
911.1	6442.9	
911.27	6442.9	
911.43	6442.9	
911.59	6442.9	
911.76	6442.9	
911.92	6442.9	
912.08	6442.9	
912.25	6442.9	
912.41	6442.9	
912.57	6442.9	
912.74	6442.9	
912.9	6442.9	
913.07	6442.9	
913.23	6442.9	
913.39	6442.9	
913.56	6442.9	
913.72	6442.9	
913.88	6442.9	
914.05	6442.9	
914.21	6442.9	
914.37	6442.9	
914.54	6442.9	
914.7	6442.9	
914.86	6442.9	
915.03	6442.9	
915.19	6442.9	
