Wavelength	Intensities	
nm	a.u.	
179.22	1899	
179.44	1897.4	
179.65	1900.5	
179.86	1894.4	
180.08	1881.4	
180.29	5008	
180.51	3529.3	
180.72	5692	
180.94	6719.4	
181.15	3272	
181.37	3224.2	
181.58	5497.4	
181.79	5922.7	
182.01	3374.4	
182.22	3708.2	
182.44	5827.2	
182.65	4833.2	
182.87	4661.9	
183.08	4122.6	
183.29	6137.8	
183.51	5040.1	
183.72	3720.5	
183.94	5407.3	
184.15	5466	
184.37	5494.7	
184.58	3193.5	
184.79	4491.9	
185.01	5061.2	
185.22	5804.6	
185.44	4749.2	
185.65	3938.9	
185.86	5300.8	
186.08	4937.7	
186.29	3179.1	
186.51	3408.5	
186.72	5081.7	
186.94	5972.6	
187.15	3992.9	
187.36	4054.3	
187.58	7862.8	
187.79	5572.5	
188.01	4290.5	
188.22	6693.4	
188.43	6705.7	
188.65	5786.2	
188.86	3424.2	
189.08	4100	
189.29	5230.5	
189.5	5317.9	
189.72	3777.1	
189.93	3876.8	
190.15	5956.9	
190.36	7193.1	
190.57	4132.1	
190.79	3984.7	
191	6127.5	
191.22	6073.6	
191.43	4180.6	
191.64	3424.9	
191.86	6339.8	
192.07	5986.9	
192.29	3555.3	
192.5	3765.5	
192.71	6033.3	
192.93	5180	
193.14	3751.9	
193.35	3818.8	
193.57	5208	
193.78	5963	
194	3005.1	
194.21	3715	
194.42	4989.5	
194.64	5491.3	
194.85	4147.1	
195.07	4790.9	
195.28	5580.7	
195.49	4706.9	
195.71	5072.1	
195.92	3477.5	
196.13	5625.1	
196.35	5739.1	
196.56	5367.7	
196.78	4093.2	
196.99	7077.8	
197.2	6595.8	
197.42	4719.2	
197.63	4133.5	
197.84	4901.5	
198.06	5664.7	
198.27	3756.7	
198.48	5008	
198.7	5223.7	
198.91	5307	
199.13	4078.2	
199.34	4105.5	
199.55	5948	
199.77	4745.1	
199.98	3619.4	
200.19	4119.1	
200.41	5357.5	
200.62	5055.8	
200.83	4339.6	
201.05	4620.2	
201.26	5349.3	
201.47	5070.1	
201.69	3638.6	
201.9	3474	
202.11	5408.7	
202.33	6456.6	
202.54	3898	
202.76	4357.4	
202.97	5546.6	
203.18	5579.3	
203.4	4267.3	
203.61	4197.7	
203.82	5511.1	
204.04	5147.2	
204.25	4206.5	
204.46	4086.4	
204.68	5438.7	
204.89	5713.8	
205.1	4009.2	
205.32	3463.1	
205.53	5847.6	
205.74	6014.2	
205.96	2954.5	
206.17	4252.3	
206.38	5883.8	
206.6	5971.2	
206.81	4743.8	
207.02	3859.1	
207.24	5668.1	
207.45	6136.4	
207.66	3933.5	
207.88	3330	
208.09	5650.3	
208.3	5492.7	
208.52	3591.5	
208.73	4003.8	
208.94	5484.5	
209.15	6187.6	
209.37	3891.1	
209.58	4119.1	
209.79	5973.2	
210.01	5261.2	
210.22	3147	
210.43	3244.7	
210.65	5492.7	
210.86	5926.1	
211.07	3910.9	
211.29	3576.4	
211.5	5834	
211.71	5416.9	
211.93	3601.7	
212.14	3592.1	
212.35	5359.5	
212.56	5672.2	
212.78	4144.4	
212.99	3389.4	
213.2	6495.5	
213.42	5221	
213.63	3695.9	
213.84	4035.2	
214.06	4787.5	
214.27	4969.7	
214.48	3918.4	
214.69	4177.9	
214.91	6160.3	
215.12	6251.1	
215.33	4259.8	
215.55	4647.5	
215.76	6751.5	
215.97	5840.8	
216.18	4061.8	
216.4	3981.3	
216.61	5189.6	
216.82	6006	
217.04	3603.7	
217.25	3771	
217.46	6160.3	
217.67	5847	
217.89	3193.5	
218.1	3354.6	
218.31	5492	
218.53	5599.1	
218.74	3796.9	
218.95	3669.3	
219.16	5406	
219.38	6434	
219.59	3644	
219.8	4450.2	
220.01	7105.1	
220.23	5461.9	
220.44	4837.3	
220.65	3548.4	
220.87	5547.3	
221.08	6140.5	
221.29	3257	
221.5	4513	
221.72	7514.7	
221.93	5195	
222.14	4222.9	
222.35	4855.1	
222.57	5466.7	
222.78	5855.8	
222.99	3868.6	
223.2	4288.4	
223.42	5810.1	
223.63	5917.3	
223.84	3054.2	
224.05	3025.5	
224.27	7006.8	
224.48	6341.9	
224.69	4950.6	
224.9	4157.4	
225.12	5649.7	
225.33	5405.3	
225.54	3256.3	
225.75	3693.2	
225.97	5004.6	
226.18	5328.8	
226.39	3958.7	
226.6	3716.4	
226.82	5276.3	
227.03	5066.7	
227.24	4176.5	
227.45	3426.3	
227.67	5823.1	
227.88	6444.3	
228.09	4623.6	
228.3	4648.2	
228.52	5895.4	
228.73	5447.6	
228.94	3811.3	
229.15	3436.5	
229.36	5347.9	
229.58	5315.2	
229.79	3812	
230	4544.4	
230.21	6526.2	
230.43	5530.2	
230.64	4074.8	
230.85	4238.6	
231.06	5890.6	
231.28	5905.7	
231.49	3410.6	
231.7	3969	
231.91	5804.6	
232.12	5457.2	
232.34	3469.3	
232.55	4041.3	
232.76	6100.9	
232.97	5661.3	
233.18	3633.1	
233.4	4109.6	
233.61	5679	
233.82	5186.8	
234.03	3794.2	
234.25	3728	
234.46	7666.2	
234.67	5560.9	
234.88	4237.9	
235.09	3665.9	
235.31	5810.8	
235.52	5361.6	
235.73	4088.4	
235.94	3488.4	
236.15	5156.8	
236.37	6709.8	
236.58	3573	
236.79	3971	
237	5807.4	
237.21	4994.3	
237.43	4256.4	
237.64	3302	
237.85	9953.1	
238.06	5012.1	
238.27	4308.2	
238.48	3427.6	
238.7	5764.3	
238.91	5315.8	
239.12	3906.8	
239.33	3993.5	
239.54	5208	
239.76	5344.5	
239.97	3883.6	
240.18	3945.1	
240.39	6873	
240.6	5764.3	
240.82	4073.4	
241.03	3332.7	
241.24	5450.3	
241.45	6389	
241.66	3617.4	
241.87	4235.9	
242.09	6296.8	
242.3	6597.9	
242.51	4324.6	
242.72	3923.9	
242.93	5922	
243.14	5388.9	
243.36	4634.6	
243.57	4999.8	
243.78	6349.4	
243.99	5834.7	
244.2	4004.5	
244.41	3573	
244.63	5051	
244.84	5840.8	
245.05	4248.9	
245.26	3921.2	
245.47	5774.6	
245.68	6100.9	
245.9	5295.4	
246.11	4199.7	
246.32	5259.9	
246.53	5691.3	
246.74	6425.8	
246.95	3300	
247.16	4938.3	
247.38	5634	
247.59	3242.6	
247.8	3911.6	
248.01	5136.3	
248.22	5392.3	
248.43	3581.2	
248.64	3855	
248.86	4807.9	
249.07	5185.5	
249.28	3463.8	
249.49	4069.3	
249.7	6099.5	
249.91	6191	
250.12	3265.1	
250.34	3322.5	
250.55	5584.8	
250.76	5485.1	
250.97	4078.9	
251.18	4162.2	
251.39	6218.3	
251.6	5702.9	
251.81	4186.7	
252.03	4124.6	
252.24	5180.7	
252.45	5994.4	
252.66	3404.4	
252.87	4381.3	
253.08	5487.9	
253.29	7276.4	
253.5	3444.7	
253.72	4835.9	
253.93	5322.7	
254.14	6563.1	
254.35	3728.7	
254.56	3891.1	
254.77	5704.3	
254.98	5071.5	
255.19	3654.3	
255.41	4824.3	
255.62	5543.2	
255.83	6136.4	
256.04	4211.3	
256.25	4126	
256.46	6705.7	
256.67	5159.5	
256.88	4072.7	
257.09	4547.2	
257.31	5145.2	
257.52	5136.3	
257.73	5121.3	
257.94	3773	
258.15	5300.8	
258.36	5496.7	
258.57	4725.3	
258.78	2962.7	
258.99	5906.3	
259.2	5287.9	
259.41	3714.3	
259.63	3871.3	
259.84	6350.1	
260.05	6783.6	
260.26	4933.6	
260.47	3612.6	
260.68	6083.8	
260.89	5322.7	
261.1	4599.7	
261.31	3632.4	
261.52	6066.1	
261.73	6478.4	
261.95	4828.4	
262.16	4271.4	
262.37	6255.9	
262.58	6231.3	
262.79	4883	
263	3864.5	
263.21	5548.6	
263.42	5031.2	
263.63	3828.3	
263.84	3805.8	
264.05	6083.1	
264.26	6421.1	
264.47	4760.2	
264.69	4326.7	
264.9	6164.4	
265.11	5728.2	
265.32	3620.8	
265.53	3751.9	
265.74	5601.2	
265.95	4864.6	
266.16	3964.9	
266.37	4470	
266.58	5589.6	
266.79	5293.3	
267	3644.7	
267.21	3463.8	
267.42	5008	
267.63	5423	
267.84	4018.8	
268.06	3368.2	
268.27	5903.6	
268.48	6189	
268.69	3827.7	
268.9	4581.3	
269.11	6182.1	
269.32	4906.9	
269.53	3908.2	
269.74	3662.5	
269.95	5815.5	
270.16	4801.8	
270.37	3923.9	
270.58	4543.1	
270.79	5298.8	
271	6034.7	
271.21	4246.1	
271.42	3938.9	
271.63	5584.1	
271.84	5048.9	
272.05	3119.1	
272.26	3534.8	
272.47	5443.5	
272.68	5743.2	
272.89	3795.6	
273.11	4332.8	
273.32	5277.6	
273.53	6419	
273.74	4292.5	
273.95	4193.6	
274.16	6137.1	
274.37	5543.9	
274.58	4344.4	
274.79	3413.3	
275	5595.1	
275.21	6178	
275.42	5231.9	
275.63	4502.8	
275.84	5733.6	
276.05	7180.2	
276.26	4223.6	
276.47	3889.1	
276.68	5302.2	
276.89	6465.4	
277.1	4512.4	
277.31	3488.4	
277.52	5806	
277.73	5899.5	
277.94	3436.5	
278.15	3839.3	
278.36	5711.1	
278.57	5140.4	
278.78	3747.1	
278.99	4298	
279.2	5059.8	
279.41	5057.8	
279.62	4949.9	
279.83	3511.6	
280.04	6754.9	
280.25	4956.1	
280.46	4948.6	
280.67	3982.6	
280.88	5096	
281.09	6272.2	
281.3	4167.6	
281.51	5335	
281.72	5953.4	
281.93	6043.6	
282.14	3728.7	
282.35	3992.9	
282.56	5934.3	
282.77	5990.3	
282.98	3772.4	
283.19	4674.1	
283.4	7395.2	
283.61	5386.2	
283.82	3520.5	
284.03	4992.9	
284.24	5606.7	
284.45	6143.9	
284.66	4960.9	
284.87	4724.7	
285.08	6062.7	
285.29	6242.9	
285.5	3367.5	
285.71	3903.4	
285.92	6140.5	
286.12	6775.4	
286.33	4902.8	
286.54	3813.3	
286.75	5950.7	
286.96	5320.6	
287.17	3491.1	
287.38	4806.6	
287.59	5102.9	
287.8	5019.6	
288.01	3962.8	
288.22	4461.8	
288.43	6031.3	
288.64	5003.9	
288.85	4653.7	
289.06	4328.7	
289.27	5915.2	
289.48	6446.3	
289.69	4904.2	
289.9	4466.6	
290.11	6166.4	
290.32	5125.4	
290.53	4691.2	
290.74	4288.4	
290.94	5924.8	
291.15	5958.9	
291.36	3687.7	
291.57	4399	
291.78	5216.9	
291.99	4827.1	
292.2	3496.6	
292.41	4327.4	
292.62	6049.7	
292.83	5827.8	
293.04	5369.1	
293.25	3563.5	
293.46	5225.1	
293.67	6098.9	
293.88	3747.1	
294.09	3573.7	
294.29	4972.5	
294.5	5662.6	
294.71	4020.2	
294.92	3713	
295.13	5232.6	
295.34	6605.4	
295.55	3345.7	
295.76	3408.5	
295.97	5914.5	
296.18	6670.2	
296.39	3488.4	
296.6	3729.4	
296.81	5610.1	
297.01	5900.2	
297.22	3833.8	
297.43	3713.7	
297.64	5102.2	
297.85	5087.2	
298.06	3061	
298.27	3340.9	
298.48	5588.2	
298.69	5231.2	
298.9	3979.2	
299.11	3598.3	
299.31	4967.7	
299.52	5001.1	
299.73	4300.7	
299.94	4227	
300.15	5497.4	
300.36	5083.1	
300.57	4232.5	
300.78	4241.3	
300.99	5366.4	
301.2	5653.8	
301.4	3686.3	
301.61	4040.6	
301.82	5859.9	
302.03	5914.5	
302.24	4508.3	
302.45	3525.2	
302.66	5773.2	
302.87	6310.5	
303.08	3695.9	
303.29	5094.7	
303.49	5227.8	
303.7	5461.9	
303.91	3268.6	
304.12	4958.1	
304.33	4929.5	
304.54	5590.3	
304.75	3789.4	
304.96	3512.3	
305.16	5823.7	
305.37	6590.4	
305.58	3268.6	
305.79	3386	
306	5761.6	
306.21	4855.1	
306.42	3689.8	
306.63	5741.8	
306.83	5373.2	
307.04	6141.2	
307.25	4107.5	
307.46	4085	
307.67	4653.7	
307.88	5956.2	
308.09	3641.3	
308.29	3817.4	
308.5	5568.4	
308.71	6083.1	
308.92	3919.1	
309.13	3558	
309.34	5330.2	
309.55	5386.8	
309.75	4630.5	
309.96	4274.1	
310.17	5948	
310.38	5172.5	
310.59	4474.8	
310.8	3469.9	
311.01	5272.8	
311.21	5341.1	
311.42	3523.9	
311.63	3672.7	
311.84	5208	
312.05	5613.5	
312.26	4085.7	
312.46	4528.7	
312.67	5341.8	
312.88	5018.2	
313.09	3603.1	
313.3	3467.9	
313.51	6247.7	
313.71	6730.3	
313.92	3564.1	
314.13	3775.1	
314.34	5641.5	
314.55	5366.4	
314.76	4661.9	
314.96	4027	
315.17	5554.8	
315.38	5898.8	
315.59	3606.5	
315.8	3435.8	
316.01	6371.2	
316.21	6447	
316.42	3436.5	
316.63	3917.1	
316.84	5309	
317.05	6236.7	
317.26	4266.6	
317.46	3766.9	
317.67	5431.9	
317.88	5862.7	
318.09	4551.3	
318.3	3342.3	
318.5	5209.3	
318.71	5842.2	
318.92	5936.4	
319.13	4179.2	
319.34	5970.5	
319.54	6140.5	
319.75	3358.7	
319.96	3228.3	
320.17	5876.3	
320.38	6084.5	
320.58	3249.4	
320.79	3934.8	
321	6105	
321.21	6167.8	
321.42	3978.5	
321.62	3261	
321.83	5061.9	
322.04	5502.2	
322.25	3803.8	
322.46	3571.7	
322.66	5647.6	
322.87	5770.5	
323.08	4437.3	
323.29	3568.2	
323.5	6587	
323.7	5022.3	
323.91	4928.1	
324.12	4414.1	
324.33	5601.2	
324.53	5828.5	
324.74	4203.8	
324.95	4528.7	
325.16	4829.1	
325.37	5229.1	
325.57	3614.7	
325.78	3674.1	
325.99	5560.9	
326.2	4948.6	
326.4	5081.7	
326.61	3347.1	
326.82	5373.9	
327.03	5580.7	
327.24	5138.4	
327.44	4748.6	
327.65	5701.5	
327.86	4614.1	
328.07	4251.6	
328.27	3454.9	
328.48	6166.4	
328.69	5033.9	
328.9	5156.1	
329.1	3876.8	
329.31	5416.9	
329.52	6320.7	
329.73	3624.9	
329.93	4085	
330.14	5496.7	
330.35	5712.5	
330.56	5990.3	
330.76	4440	
330.97	5298.8	
331.18	5715.2	
331.39	4033.8	
331.59	3249.4	
331.8	6075	
332.01	6250.4	
332.22	3700	
332.42	4279.6	
332.63	5632.6	
332.84	5154.1	
333.05	4038.6	
333.25	3706.8	
333.46	5272.2	
333.67	5472.2	
333.88	3760.1	
334.08	4166.9	
334.29	7467.6	
334.5	6142.5	
334.7	3566.9	
334.91	5199.8	
335.12	5077.6	
335.33	5879.7	
335.53	3943.7	
335.74	5971.9	
335.95	5244.2	
336.16	5099.4	
336.36	3977.2	
336.57	4580.6	
336.78	4990.2	
336.98	6050.4	
337.19	4941.1	
337.4	3977.2	
337.61	6640.2	
337.81	5049.6	
338.02	3651.5	
338.23	4795	
338.43	6280.4	
338.64	5154.1	
338.85	3648.8	
339.05	4704.2	
339.26	6313.9	
339.47	4920.6	
339.68	3585.3	
339.88	5393.7	
340.09	5747.3	
340.3	6011.5	
340.5	4301.4	
340.71	3202.3	
340.92	4963.6	
341.13	6233.3	
341.33	3464.5	
341.54	4289.8	
341.75	5748	
341.95	5339.1	
342.16	4048.8	
342.37	4388.1	
342.57	5056.4	
342.78	5489.9	
342.99	4465.3	
343.19	3193.5	
343.4	5887.9	
343.61	5782.1	
343.81	3887.7	
344.02	3594.2	
344.23	5905	
344.43	6389	
344.64	4516.5	
344.85	4351.9	
345.06	5767.8	
345.26	6139.1	
345.47	4189.5	
345.68	4878.3	
345.88	4844.8	
346.09	5987.6	
346.3	4258.4	
346.5	3145.7	
346.71	5531.6	
346.92	5177.3	
347.12	3300	
347.33	4131.4	
347.54	6101.6	
347.74	6481.1	
347.95	4091.8	
348.16	3033	
348.36	5310.4	
348.57	5101.5	
348.78	4095.3	
348.98	4487.1	
349.19	5401.2	
349.39	5027.8	
349.6	3292.5	
349.81	3724.6	
350.01	5745.9	
350.22	5236	
350.43	4014.7	
350.63	4803.9	
350.84	5489.2	
351.05	5319.3	
351.25	3669.3	
351.46	3325.2	
351.67	6061.3	
351.87	5175.9	
352.08	3875.4	
352.29	4412	
352.49	5961.6	
352.7	6069.5	
352.9	3497.9	
353.11	4403.1	
353.32	6668.9	
353.52	5263.3	
353.73	3449.5	
353.94	4465.9	
354.14	5778.7	
354.35	5614.2	
354.55	3556.6	
354.76	3956	
354.97	5793	
355.17	5470.8	
355.38	3366.2	
355.59	4731.5	
355.79	5098.8	
356	5610.1	
356.2	3925.3	
356.41	3450.1	
356.62	4862.6	
356.82	5410.1	
357.03	4212.7	
357.24	3791.5	
357.44	5128.1	
357.65	5337.7	
357.85	5184.1	
358.06	4016.7	
358.27	4869.4	
358.47	5134.9	
358.68	3354.6	
358.88	4242.7	
359.09	5679	
359.3	6124.1	
359.5	4978.6	
359.71	4351.3	
359.91	6625.9	
360.12	5890	
360.33	4192.2	
360.53	4705.5	
360.74	5130.8	
360.94	5213.4	
361.15	4375.8	
361.36	3532.7	
361.56	5937.1	
361.77	5322	
361.97	4913.1	
362.18	3785.3	
362.38	5954.8	
362.59	4995.7	
362.8	3482.9	
363	3366.9	
363.21	4785.4	
363.41	5522.7	
363.62	4065.9	
363.83	5152	
364.03	5513.8	
364.24	6567.2	
364.44	5212.1	
364.65	5184.1	
364.85	5328.8	
365.06	4901.5	
365.27	3669.3	
365.47	3707.5	
365.68	6318	
365.88	5275.6	
366.09	4143	
366.29	3842.7	
366.5	5507	
366.71	6020.3	
366.91	5139	
367.12	4311	
367.32	6574.7	
367.53	5840.1	
367.73	4143.7	
367.94	5181.4	
368.14	5774.6	
368.35	6730.3	
368.56	4184.7	
368.76	3577.1	
368.97	5854.5	
369.17	7669.6	
369.38	3645.4	
369.58	3947.1	
369.79	4952	
369.99	6266.1	
370.2	4952	
370.4	3997.6	
370.61	5588.9	
370.82	6825.2	
371.02	3953.3	
371.23	3246.7	
371.43	4771.1	
371.64	6146.6	
371.84	3979.2	
372.05	5194.3	
372.25	7481.9	
372.46	5901.6	
372.66	3974.4	
372.87	3870.7	
373.07	5967.8	
373.28	7602.7	
373.48	5020.9	
373.69	4687.1	
373.9	5381.4	
374.1	5451.7	
374.31	4878.9	
374.51	4429.1	
374.72	6279.1	
374.92	4993.6	
375.13	5037.3	
375.33	4257.7	
375.54	5757.5	
375.74	5126.7	
375.95	4311.7	
376.15	5622.4	
376.36	5786.9	
376.56	5569.1	
376.77	4348.5	
376.97	4744.5	
377.18	6809.5	
377.38	5856.5	
377.59	5112.4	
377.79	3788.7	
378	5650.3	
378.2	6122.1	
378.41	3902.1	
378.61	3745.1	
378.82	6143.2	
379.02	5119.2	
379.23	3997	
379.43	5157.5	
379.64	6168.5	
379.84	5786.2	
380.05	3846.1	
380.25	3762.1	
380.46	5883.1	
380.66	5515.2	
380.87	5204.6	
381.07	5602.6	
381.28	6593.8	
381.48	5908.4	
381.69	3903.4	
381.89	3908.2	
382.1	4801.8	
382.3	6064	
382.51	5090.6	
382.71	5978	
382.91	5945.3	
383.12	6447.7	
383.32	4343.7	
383.53	4545.1	
383.73	5808	
383.94	5565.7	
384.14	4362.9	
384.35	3486.3	
384.55	5485.8	
384.76	5997.8	
384.96	4250.2	
385.17	4626.4	
385.37	5961.6	
385.58	5239.4	
385.78	4639.3	
385.98	3448.8	
386.19	5615.5	
386.39	5788.2	
386.6	4009.2	
386.8	4291.9	
387.01	5980.8	
387.21	5965.1	
387.42	4738.3	
387.62	5319.9	
387.83	5094.7	
388.03	5909.1	
388.23	4319.2	
388.44	5158.2	
388.64	4840.7	
388.85	4953.4	
389.05	4638.6	
389.26	5298.1	
389.46	6940.6	
389.67	6302.3	
389.87	4658.4	
390.07	4817.5	
390.28	5524.1	
390.48	5079	
390.69	3809.2	
390.89	4198.3	
391.1	5268.1	
391.3	6270.2	
391.5	5444.2	
391.71	6042.9	
391.91	5967.8	
392.12	7058.7	
392.32	5479.7	
392.53	4653	
392.73	5296	
392.93	5541.8	
393.14	4332.1	
393.34	5214.1	
393.55	6081.1	
393.75	5526.8	
393.95	4364.2	
394.16	4285.7	
394.36	5235.3	
394.57	6006	
394.77	3774.4	
394.98	4261.1	
395.18	5184.1	
395.38	5477.6	
395.59	5100.8	
395.79	4013.3	
396	5356.8	
396.2	5805.3	
396.4	4891.2	
396.61	4788.8	
396.81	6066.8	
397.02	5213.4	
397.22	5077.6	
397.42	5121.3	
397.63	6009.4	
397.83	5192.3	
398.04	3897.3	
398.24	4514.4	
398.44	5819	
398.65	4752.7	
398.85	3773	
399.05	3915.7	
399.26	5099.4	
399.46	6923.5	
399.67	4314.4	
399.87	3934.8	
400.07	5561.6	
400.28	5894.1	
400.48	4098.7	
400.69	5156.1	
400.89	6129.6	
401.09	6593.8	
401.3	3938.2	
401.5	5132.9	
401.7	6821.8	
401.91	7028.6	
402.11	4325.3	
402.32	4597	
402.52	6191.7	
402.72	6047	
402.93	4849.6	
403.13	3608.5	
403.33	6926.2	
403.54	5629.2	
403.74	4440.7	
403.94	5465.3	
404.15	5644.2	
404.35	6878.4	
404.56	4266.6	
404.76	6213.5	
404.96	6074.3	
405.17	5844.2	
405.37	5717.2	
405.57	4764.9	
405.78	6167.1	
405.98	5589.6	
406.18	4242	
406.39	5285.8	
406.59	6171.2	
406.79	5715.9	
407	4046.8	
407.2	4187.4	
407.4	6066.8	
407.61	6451.1	
407.81	4102.8	
408.01	6503.7	
408.22	4985.4	
408.42	7079.8	
408.62	5212.1	
408.83	4656.4	
409.03	5657.9	
409.23	5410.7	
409.44	4697.4	
409.64	5056.4	
409.84	6575.3	
410.05	6485.2	
410.25	4764.9	
410.45	4620.2	
410.66	5860.6	
410.86	8458.1	
411.06	4992.9	
411.27	4844.1	
411.47	8219.9	
411.67	6057.9	
411.88	5113.8	
412.08	5323.4	
412.28	6745.3	
412.49	7246.4	
412.69	4799.8	
412.89	4862.6	
413.09	7034.1	
413.3	6879.8	
413.5	4903.5	
413.7	4440	
413.91	6099.5	
414.11	7073.7	
414.31	4674.8	
414.52	5137.7	
414.72	6702.3	
414.92	6525.5	
415.12	4756.7	
415.33	5266.7	
415.53	6953.5	
415.73	7158.3	
415.94	5634	
416.14	5086.5	
416.34	5901.6	
416.55	5636	
416.75	6288.6	
416.95	5678.3	
417.15	6880.5	
417.36	7666.9	
417.56	6450.4	
417.76	5513.1	
417.97	7319.4	
418.17	7020.4	
418.37	5003.9	
418.57	5087.2	
418.78	6697.5	
418.98	6359.6	
419.18	6020.3	
419.38	5901.6	
419.59	6433.4	
419.79	5980.1	
419.99	4982.7	
420.2	5387.5	
420.4	6980.8	
420.6	7172.7	
420.8	4857.1	
421.01	4739.7	
421.21	6636.8	
421.41	6943.3	
421.61	5350	
421.82	4905.6	
422.02	6196.5	
422.22	7245	
422.42	5764.3	
422.63	5492.7	
422.83	6380.8	
423.03	7661.5	
423.23	5507	
423.44	4408.6	
423.64	6449.1	
423.84	6124.8	
424.04	4993.6	
424.25	4539.7	
424.45	7407.5	
424.65	7419.1	
424.85	4345.8	
425.06	4939	
425.26	7303.7	
425.46	5840.8	
425.66	5434.6	
425.87	5104.9	
426.07	7146.7	
426.27	7006.1	
426.47	5366.4	
426.67	4676.2	
426.88	7518.8	
427.08	6858.6	
427.28	5557.5	
427.48	4581.3	
427.69	5788.9	
427.89	6483.9	
428.09	5555.5	
428.29	4661.2	
428.5	7208.8	
428.7	6656.6	
428.9	4521.2	
429.1	5072.8	
429.3	6550.8	
429.51	7087.3	
429.71	4846.2	
429.91	5643.5	
430.11	6935.1	
430.31	7493.5	
430.52	5097.4	
430.72	5446.9	
430.92	7505.8	
431.12	6989.7	
431.32	4771.1	
431.53	5236	
431.73	5797.8	
431.93	7611.6	
432.13	4726	
432.33	4542.4	
432.54	6298.2	
432.74	6677.1	
432.94	4457.1	
433.14	5625.1	
433.34	6848.4	
433.55	6275.7	
433.75	5535	
433.95	7424.6	
434.15	6627.9	
434.35	6313.9	
434.56	4706.9	
434.76	4202.4	
434.96	6597.2	
435.16	6864.1	
435.36	4621.6	
435.56	5758.9	
435.77	6191	
435.97	6319.3	
436.17	6554.9	
436.37	5636	
436.57	6152.1	
436.78	6079.7	
436.98	7525.6	
437.18	6246.3	
437.38	6892.1	
437.58	6347.3	
437.78	6436.8	
437.99	5100.1	
438.19	6933.7	
438.39	8479.3	
438.59	4951.3	
438.79	4440.7	
438.99	7645.8	
439.2	6352.1	
439.4	4545.1	
439.6	4524	
439.8	6716.7	
440	7848.5	
440.2	5569.1	
440.4	5700.2	
440.61	7039.6	
440.81	7623.9	
441.01	4674.1	
441.21	5668.1	
441.41	7528.3	
441.61	7102.4	
441.81	6002.6	
442.02	7043.6	
442.22	8112	
442.42	7198.6	
442.62	4731.5	
442.82	4814.1	
443.02	7462.1	
443.22	6475.7	
443.43	5223.7	
443.63	4767.7	
443.83	6272.2	
444.03	6388.3	
444.23	6060.6	
444.43	5648.3	
444.63	6641.6	
444.83	7974.1	
445.04	4756.1	
445.24	6206	
445.44	7096.9	
445.64	7200.7	
445.84	5734.3	
446.04	5738.4	
446.24	6459.3	
446.44	7522.9	
446.65	4902.8	
446.85	5339.1	
447.05	6698.9	
447.25	7485.3	
447.45	5354.8	
447.65	4668	
447.85	6754.2	
448.05	6442.9	
448.25	5820.3	
448.46	5640.1	
448.66	6803.4	
448.86	6441.5	
449.06	4495.3	
449.26	5815.5	
449.46	7124.9	
449.66	6079.1	
449.86	5273.5	
450.06	5286.5	
450.26	6313.9	
450.47	6895.5	
450.67	5523.4	
450.87	5941.8	
451.07	7036.1	
451.27	6782.2	
451.47	4807.9	
451.67	5408	
451.87	6421.1	
452.07	7672.4	
452.27	5120.6	
452.47	5049.6	
452.67	6784.2	
452.88	7323.5	
453.08	4306.9	
453.28	6383.5	
453.48	8021.9	
453.68	6765.1	
453.88	4851	
454.08	5185.5	
454.28	7087.3	
454.48	6695.5	
454.68	5813.5	
454.88	6240.2	
455.08	7228	
455.28	6930.3	
455.48	4823.6	
455.68	5343.2	
455.89	7688.8	
456.09	7370	
456.29	5104.2	
456.49	5122.7	
456.69	7506.5	
456.89	6781.5	
457.09	5741.1	
457.29	6020.3	
457.49	7134.4	
457.69	7241.6	
457.89	5476.3	
458.09	4904.2	
458.29	6755.6	
458.49	7552.2	
458.69	5874.9	
458.89	5242.8	
459.09	7750.9	
459.29	7967.3	
459.49	5367.7	
459.69	6275.7	
459.9	7342	
460.1	6744.6	
460.3	5311.1	
460.5	5089.9	
460.7	7267.6	
460.9	7020.4	
461.1	4650.3	
461.3	6065.4	
461.5	7965.9	
461.7	7530.4	
461.9	5112.4	
462.1	5634.6	
462.3	7001.3	
462.5	7587	
462.7	5182.7	
462.9	5271.5	
463.1	8701.8	
463.3	8338.6	
463.5	5478.3	
463.7	6412.9	
463.9	7189.7	
464.1	7557.7	
464.3	5589.6	
464.5	5884.5	
464.7	7783.6	
464.9	7421.2	
465.1	7219.8	
465.3	6218.3	
465.5	8122.2	
465.7	8084	
465.9	6496.2	
466.1	6322.8	
466.3	7918.1	
466.5	7722.2	
466.7	7066.2	
466.9	5959.6	
467.1	7625.3	
467.3	8581.7	
467.5	7092.8	
467.7	5898.8	
467.9	8875.2	
468.1	9762.7	
468.3	6792.4	
468.5	7116	
468.7	7570.7	
468.9	7534.5	
469.1	6176	
469.3	6905.1	
469.5	9639.1	
469.7	7107.8	
469.9	6749.4	
470.1	5960.3	
470.3	7565.9	
470.5	7666.9	
470.7	7176.8	
470.9	6050.4	
471.1	7326.3	
471.3	7914	
471.5	5811.5	
471.69	7875.1	
471.89	7225.2	
472.09	6690.7	
472.29	6675	
472.49	7111.2	
472.69	6940.6	
472.89	7928.4	
473.09	5724.1	
473.29	5912.5	
473.49	7147.4	
473.69	7458.7	
473.89	6859.3	
474.09	6013.5	
474.29	8587.1	
474.49	8354.3	
474.69	6830	
474.89	6180.8	
475.09	7380.2	
475.29	7352.2	
475.49	5600.5	
475.69	5799.2	
475.88	9149	
476.08	7595.9	
476.28	5477.6	
476.48	6039.5	
476.68	8203.5	
476.88	8016.4	
477.08	5855.8	
477.28	6181.5	
477.48	7488.7	
477.68	8208.9	
477.88	5670.1	
478.08	5977.3	
478.28	8505.9	
478.48	7595.2	
478.67	6077	
478.87	5472.2	
479.07	8254.7	
479.27	7785	
479.47	6296.1	
479.67	6329.6	
479.87	8081.3	
480.07	8580.3	
480.27	5360.9	
480.47	7167.9	
480.67	7763.8	
480.87	8350.9	
481.06	5760.9	
481.26	6676.4	
481.46	7721.5	
481.66	7647.8	
481.86	6243.6	
482.06	7336.5	
482.26	7333.8	
482.46	8359.8	
482.66	6226.5	
482.86	5762.3	
483.05	7747.5	
483.25	7106.5	
483.45	8726.4	
483.65	6232.7	
483.85	7315.3	
484.05	7634.8	
484.25	6642.2	
484.45	7117.4	
484.65	8638.3	
484.84	8444.5	
485.04	6055.8	
485.24	6128.9	
485.44	8716.2	
485.64	7004.7	
485.84	5339.7	
486.04	6813.6	
486.24	7372.7	
486.44	7782.3	
486.63	5298.1	
486.83	6165.1	
487.03	7219.1	
487.23	7502.4	
487.43	5385.5	
487.63	7914	
487.83	7548.1	
488.02	8544.1	
488.22	6436.8	
488.42	7007.5	
488.62	8481.3	
488.82	7320.8	
489.02	6098.9	
489.22	6049	
489.41	8311.3	
489.61	7903.1	
489.81	5756.8	
490.01	5801.2	
490.21	8209.6	
490.41	8913.4	
490.61	5731.6	
490.8	5846.3	
491	7630	
491.2	6963.8	
491.4	6571.9	
491.6	5596.4	
491.8	7655.3	
491.99	7872.4	
492.19	5468.1	
492.39	5812.1	
492.59	8273.8	
492.79	8282	
492.99	6690	
493.18	5728.9	
493.38	8341.4	
493.58	9107.3	
493.78	6526.9	
493.98	6041.5	
494.18	8039	
494.37	7457.3	
494.57	6689.3	
494.77	6531.7	
494.97	8187.1	
495.17	8467.7	
495.37	6094.1	
495.56	6436.8	
495.76	8613.8	
495.96	8292.9	
496.16	7391.1	
496.36	6159.6	
496.55	8404.9	
496.75	7937.9	
496.95	6662	
497.15	6528.9	
497.35	8422.6	
497.54	8360.5	
497.74	6236.1	
497.94	7974.1	
498.14	9088.9	
498.34	8931.2	
498.53	5986.9	
498.73	6824.5	
498.93	7637.6	
499.13	8286.8	
499.33	6503	
499.52	7275.1	
499.72	8230.8	
499.92	8644.5	
500.12	6210.8	
500.32	6500.9	
500.51	8611	
500.71	8296.3	
500.91	7334.5	
501.11	6850.5	
501.31	8462.9	
501.5	9006.3	
501.7	7605.5	
501.9	6466.8	
502.1	8273.8	
502.29	8591.9	
502.49	6988.4	
502.69	7466.2	
502.89	8535.3	
503.09	8488.1	
503.28	5954.1	
503.48	6100.2	
503.68	7708.6	
503.88	7722.2	
504.07	7225.9	
504.27	6634.7	
504.47	8120.2	
504.67	8234.9	
504.86	7085.3	
505.06	6761	
505.26	7778.9	
505.46	9711.5	
505.65	6640.2	
505.85	6874.3	
506.05	7708.6	
506.25	8221.2	
506.44	5948.7	
506.64	6992.4	
506.84	7634.8	
507.04	8705.9	
507.23	6168.5	
507.43	6815.6	
507.63	9706.7	
507.83	7924.3	
508.02	6725.5	
508.22	6404	
508.42	10075	
508.62	7633.5	
508.81	6667.5	
509.01	7258	
509.21	7519.5	
509.4	7743.4	
509.6	6830.7	
509.8	6154.1	
510	7800.7	
510.19	9336.7	
510.39	6159.6	
510.59	6231.3	
510.79	7557	
510.98	9060.2	
511.18	6244.3	
511.38	6468.9	
511.57	8538.7	
511.77	8333.2	
511.97	7145.4	
512.17	6064.7	
512.36	8557.1	
512.56	8373.5	
512.76	6120	
512.95	5948.7	
513.15	8576.2	
513.35	7113.3	
513.55	6994.5	
513.74	6155.5	
513.94	8561.2	
514.14	7770.7	
514.33	7072.3	
514.53	6843.6	
514.73	7787.1	
514.92	8025.3	
515.12	6380.1	
515.32	6221	
515.51	8144.8	
515.71	8761.9	
515.91	7917.4	
516.11	6226.5	
516.3	9892.4	
516.5	7702.4	
516.7	6739.9	
516.89	7436.2	
517.09	7912	
517.29	7689.4	
517.48	7277.1	
517.68	6518	
517.88	7511.3	
518.07	8206.2	
518.27	7045.7	
518.47	5991.7	
518.66	8796.7	
518.86	7357	
519.06	5836	
519.25	6339.8	
519.45	7761.1	
519.65	9267.1	
519.84	6941.9	
520.04	7787.1	
520.24	9635.7	
520.43	8391.2	
520.63	6595.1	
520.83	6428.6	
521.02	7497.6	
521.22	8300.4	
521.42	6975.4	
521.61	7555	
521.81	7795.9	
522.01	8002.8	
522.2	6766.5	
522.4	6602	
522.6	8456.7	
522.79	7220.5	
522.99	6617	
523.18	5924.1	
523.38	8188.5	
523.58	8159.1	
523.77	7955.7	
523.97	5822.4	
524.17	10221	
524.36	9233.6	
524.56	7245.7	
524.76	6946.7	
524.95	8109.3	
525.15	7804.1	
525.34	6586.3	
525.54	6619.7	
525.74	8456.1	
525.93	7417.7	
526.13	7913.4	
526.33	6615.6	
526.52	8733.2	
526.72	8319.5	
526.91	7838.9	
527.11	7015.7	
527.31	8793.3	
527.5	9218.6	
527.7	6939.2	
527.89	5911.1	
528.09	7689.4	
528.29	8360.5	
528.48	7382.2	
528.68	6990.4	
528.87	8772.8	
529.07	8658.1	
529.27	6927.6	
529.46	6406.7	
529.66	8307.9	
529.85	8796	
530.05	6308.4	
530.25	7046.4	
530.44	9682.1	
530.64	8199.4	
530.83	6580.8	
531.03	6933.7	
531.23	8636.3	
531.42	8511.4	
531.62	7707.9	
531.81	6846.4	
532.01	8694.3	
532.21	9225.4	
532.4	6524.8	
532.6	6931	
532.79	9653.4	
532.99	8865.7	
533.18	6939.2	
533.38	8054.7	
533.58	8257.4	
533.77	9123	
533.97	6900.3	
534.16	7752.9	
534.36	9326.4	
534.55	8349.6	
534.75	7931.1	
534.95	7011.6	
535.14	9108	
535.34	8280.6	
535.53	6640.9	
535.73	8705.2	
535.92	9694.4	
536.12	8504.5	
536.31	6727.6	
536.51	7899	
536.71	8812.4	
536.9	8340.7	
537.1	6938.5	
537.29	7038.9	
537.49	9240.4	
537.68	8243.8	
537.88	7407.5	
538.07	6603.3	
538.27	8413.1	
538.46	9557.9	
538.66	6427.2	
538.86	6944	
539.05	8543.4	
539.25	9026.1	
539.44	7169.9	
539.64	6831.3	
539.83	8378.2	
540.03	9459.6	
540.22	6742.6	
540.42	6899.6	
540.61	8740	
540.81	8703.9	
541	7335.8	
541.2	7949.5	
541.39	8212.4	
541.59	8574.2	
541.78	7640.3	
541.98	6725.5	
542.18	7876.5	
542.37	7829.4	
542.57	7183.6	
542.76	7658.7	
542.96	7947.5	
543.15	8640.4	
543.35	7079.8	
543.54	6430.6	
543.74	8986.5	
543.93	8563.9	
544.13	7168.6	
544.32	8208.3	
544.52	8924.4	
544.71	8049.2	
544.91	6228.6	
545.1	7498.3	
545.3	8159.1	
545.49	8779	
545.69	6192.4	
545.88	6873	
546.08	9820.7	
546.27	9362.6	
546.47	7370.6	
546.66	6542.6	
546.86	9050.7	
547.05	9658.2	
547.24	6838.9	
547.44	6659.3	
547.63	7905.8	
547.83	9047.2	
548.02	7018.4	
548.22	7295.5	
548.41	7779.6	
548.61	9155.1	
548.8	6589.7	
549	6537.1	
549.19	8431.5	
549.39	8727.8	
549.58	6330.3	
549.78	6869.6	
549.97	8757.8	
550.17	8282	
550.36	7930.4	
550.55	8897.1	
550.75	8269.7	
550.94	9203.6	
551.14	6472.3	
551.33	6922.8	
551.53	7689.4	
551.72	8658.8	
551.92	7024.5	
552.11	6731	
552.31	8715.5	
552.5	8807.6	
552.69	8504.5	
552.89	6327.5	
553.08	8695	
553.28	8350.3	
553.47	6823.8	
553.67	7918.1	
553.86	9396.8	
554.06	7620.5	
554.25	5963.7	
554.44	6522.1	
554.64	10129	
554.83	9679.4	
555.03	6527.6	
555.22	6880.5	
555.42	8925.7	
555.61	8578.3	
555.8	6719.4	
556	7034.1	
556.19	7650.5	
556.39	9066.4	
556.58	6771.9	
556.78	6658.6	
556.97	8435.6	
557.16	8160.5	
557.36	7978.2	
557.55	6384.2	
557.75	7382.9	
557.94	9237	
558.13	6443.6	
558.33	6324.8	
558.52	8966	
558.72	7957	
558.91	6398.5	
559.1	6591	
559.3	7608.2	
559.49	7365.2	
559.69	5925.5	
559.88	6966.5	
560.07	8535.9	
560.27	8863.6	
560.46	7251.9	
560.66	7296.9	
560.85	8195.3	
561.04	7419.1	
561.24	6277	
561.43	6565.1	
561.63	7688.1	
561.82	7993.2	
562.01	7894.9	
562.21	6922.1	
562.4	8401.5	
562.59	9436.4	
562.79	6745.3	
562.98	6285.2	
563.18	8253.3	
563.37	9875.3	
563.56	7311.9	
563.76	6296.8	
563.95	7725.6	
564.14	7657.4	
564.34	6728.9	
564.53	6363	
564.73	8269	
564.92	8632.9	
565.11	6823.1	
565.31	6062	
565.5	8831.5	
565.69	7809.6	
565.89	6327.5	
566.08	6737.8	
566.27	8721.6	
566.47	9181	
566.66	7309.9	
566.85	6010.1	
567.05	8343.4	
567.24	7660.8	
567.44	6354.2	
567.63	7714.7	
567.82	8604.2	
568.02	8313.4	
568.21	6304.3	
568.4	6658.6	
568.6	8089.5	
568.79	8165.3	
568.98	6138.4	
569.18	6279.1	
569.37	8118.1	
569.56	10171	
569.76	6632.7	
569.95	7647.1	
570.14	8509.3	
570.34	8408.3	
570.53	6181.5	
570.72	6095.4	
570.91	8917.5	
571.11	8018.5	
571.3	6603.3	
571.49	7589.8	
571.69	8060.8	
571.88	7606.2	
572.07	7234.8	
572.27	7202	
572.46	7588.4	
572.65	8761.9	
572.85	6431.3	
573.04	6683.9	
573.23	8889.5	
573.43	8174.8	
573.62	6070.9	
573.81	6829.3	
574	8230.1	
574.2	8027.4	
574.39	6468.9	
574.58	6580.1	
574.78	9086.8	
574.97	8251.9	
575.16	6974.7	
575.36	7192.5	
575.55	8554.4	
575.74	8785.8	
575.93	6034.7	
576.13	7107.8	
576.32	8000.7	
576.51	8561.2	
576.71	6451.1	
576.9	7933.8	
577.09	8916.9	
577.28	8434.2	
577.48	6947.4	
577.67	5888.6	
577.86	8052.6	
578.05	8380.3	
578.25	6722.8	
578.44	6736.5	
578.63	8126.3	
578.83	9328.5	
579.02	6080.4	
579.21	7689.4	
579.4	8361.2	
579.6	8051.9	
579.79	6806.1	
579.98	9111.4	
580.17	8766.7	
580.37	8823.3	
580.56	6240.2	
580.75	6975.4	
580.94	9202.2	
581.14	9110.7	
581.33	7496.2	
581.52	6404	
581.71	8675.2	
581.91	9270.5	
582.1	6053.1	
582.29	6718	
582.48	8297.7	
582.68	8090.2	
582.87	7188.4	
583.06	6778.8	
583.25	8558.5	
583.45	8242.4	
583.64	7537.2	
583.83	8327.7	
584.02	7931.8	
584.21	8452.6	
584.41	7525.6	
584.6	6734.4	
584.79	8103.1	
584.98	9028.1	
585.18	6144.6	
585.37	6195.1	
585.56	7684	
585.75	8479.3	
585.94	6470.9	
586.14	7152.9	
586.33	9238.4	
586.52	8211	
586.71	6921.5	
586.91	6709.8	
587.1	7577.5	
587.29	8618.5	
587.48	6504.3	
587.67	6504.3	
587.87	8460.2	
588.06	8563.9	
588.25	7826.7	
588.44	7077.8	
588.63	8118.1	
588.83	8804.9	
589.02	6622.4	
589.21	6429.3	
589.4	7979.6	
589.59	7766.6	
589.78	5648.3	
589.98	5978.7	
590.17	7413.6	
590.36	8023.9	
590.55	5358.2	
590.74	6272.2	
590.94	9410.4	
591.13	7949.5	
591.32	5961.6	
591.51	5511.1	
591.7	8393.9	
591.89	7894.2	
592.09	5696.1	
592.28	6181.5	
592.47	7064.8	
592.66	9030.2	
592.85	5626.5	
593.05	5884.5	
593.24	7680.6	
593.43	8458.1	
593.62	5980.1	
593.81	6486.6	
594	7661.5	
594.19	8009.6	
594.39	5823.1	
594.58	5802.6	
594.77	8058.1	
594.96	8765.3	
595.15	5769.1	
595.34	6456.6	
595.54	8160.5	
595.73	7172	
595.92	5115.8	
596.11	6374.6	
596.3	8618.5	
596.49	7279.8	
596.68	6047.7	
596.88	6509.1	
597.07	8471.8	
597.26	7080.5	
597.45	5672.9	
597.64	6941.2	
597.83	7426.6	
598.02	7972.1	
598.22	5730.9	
598.41	6489.3	
598.6	7785	
598.79	7254.6	
598.98	5732.9	
599.17	6773.3	
599.36	7834.8	
599.55	9095	
599.74	7950.9	
599.94	7659.4	
600.13	8428.1	
600.32	7187	
600.51	5470.8	
600.7	5677.7	
600.89	9141.4	
601.08	9121	
601.27	5480.4	
601.47	6498.2	
601.66	8299.7	
601.85	9033.6	
602.04	6115.9	
602.23	6425.8	
602.42	7382.2	
602.61	8090.8	
602.8	6066.1	
602.99	5799.2	
603.18	7681.9	
603.37	8013.7	
603.57	6543.9	
603.76	7087.3	
603.95	8757.8	
604.14	8321.6	
604.33	5882.4	
604.52	6297.5	
604.71	7962.5	
604.9	7543.4	
605.09	6898.2	
605.28	6714.6	
605.47	8540.7	
605.66	8244.4	
605.86	6532.3	
606.05	6024.4	
606.24	8525	
606.43	7016.3	
606.62	6315.3	
606.81	7092.1	
607	8428.1	
607.19	7638.2	
607.38	5706.3	
607.57	5971.2	
607.76	7467.6	
607.95	6946.7	
608.14	6415.6	
608.33	6982.2	
608.52	7431.4	
608.72	8437.6	
608.91	5672.9	
609.1	5460.6	
609.29	7653.3	
609.48	7064.1	
609.67	6533	
609.86	5572.5	
610.05	7183.6	
610.24	7587	
610.43	5432.6	
610.62	5055.8	
610.81	8727.8	
611	8484.1	
611.19	5588.2	
611.38	6286.6	
611.57	7841.7	
611.76	9242.5	
611.95	5341.1	
612.14	5207.3	
612.33	7619.8	
612.52	7164.5	
612.71	5967.1	
612.9	5052.3	
613.09	6691.4	
613.28	9243.8	
613.47	5715.2	
613.66	6644.3	
613.85	7707.9	
614.04	7314	
614.24	5736.4	
614.43	4904.2	
614.62	7833.5	
614.81	7828	
615	6325.5	
615.19	6327.5	
615.38	7096.2	
615.57	7415	
615.76	6165.1	
615.95	7163.1	
616.14	7875.1	
616.33	7497.6	
616.52	6513.9	
616.71	6761.7	
616.9	7829.4	
617.09	7649.8	
617.28	5825.8	
617.47	7331.7	
617.66	6868.2	
617.85	6977.4	
618.04	6840.9	
618.22	6242.2	
618.41	7198.6	
618.6	8112.7	
618.79	6061.3	
618.98	5771.9	
619.17	8592.6	
619.36	6724.8	
619.55	5938.4	
619.74	5985.5	
619.93	7676.5	
620.12	7135.8	
620.31	6554.9	
620.5	6704.4	
620.69	8340.7	
620.88	8716.8	
621.07	7428.7	
621.26	6369.9	
621.45	7951.6	
621.64	7774.8	
621.83	6406	
622.02	5595.7	
622.21	7942	
622.4	7651.2	
622.59	7035.5	
622.78	6779.5	
622.97	7224.6	
623.16	8275.8	
623.35	6353.5	
623.54	5557.5	
623.72	7416.4	
623.91	7617.8	
624.1	6739.9	
624.29	5259.2	
624.48	8723.7	
624.67	7901.1	
624.86	6541.2	
625.05	5584.1	
625.24	8826.1	
625.43	7065.5	
625.62	8346.2	
625.81	5750.7	
626	8157.7	
626.19	7479.2	
626.38	6602	
626.56	5973.9	
626.75	7297.6	
626.94	8058.1	
627.13	6552.8	
627.32	5237.3	
627.51	7933.8	
627.7	9359.2	
627.89	5433.9	
628.08	6557.6	
628.27	7062.1	
628.46	7339.9	
628.65	5730.9	
628.83	5378	
629.02	7983	
629.21	7174	
629.4	6085.9	
629.59	6443.6	
629.78	7060	
629.97	8156.4	
630.16	6350.1	
630.35	5854.5	
630.54	8531.8	
630.72	8289.5	
630.91	5813.5	
631.1	6407.4	
631.29	7677.8	
631.48	7890.1	
631.67	6407.4	
631.86	5944.6	
632.05	7304.4	
632.24	7326.9	
632.42	5554.1	
632.61	6106.4	
632.8	7449.1	
632.99	7059.3	
633.18	6139.1	
633.37	6690.7	
633.56	7685.3	
633.75	7460.8	
633.93	6181.5	
634.12	5844.2	
634.31	8515.5	
634.5	8159.1	
634.69	5920	
634.88	6402	
635.07	7531.1	
635.25	8113.4	
635.44	6894.1	
635.63	7021.1	
635.82	7351.5	
636.01	6753.5	
636.2	6775.4	
636.39	6285.2	
636.57	8465.6	
636.76	8158.4	
636.95	5710.4	
637.14	7244.3	
637.33	7772	
637.52	8822	
637.7	5613.5	
637.89	6507.1	
638.08	7368.6	
638.27	8895.7	
638.46	6543.3	
638.65	7075.7	
638.83	8888.9	
639.02	7206.8	
639.21	6438.8	
639.4	7003.4	
639.59	7706.5	
639.78	7271.7	
639.96	5750	
640.15	5718.6	
640.34	7534.5	
640.53	7777.5	
640.72	5439.4	
640.91	5840.8	
641.09	6948.1	
641.28	8397.4	
641.47	5785.5	
641.66	6664.1	
641.85	7686.7	
642.03	7999.4	
642.22	6468.2	
642.41	5933	
642.6	7129.7	
642.79	6458.6	
642.97	5723.4	
643.16	6408.1	
643.35	7114.6	
643.54	6912.6	
643.73	5639.4	
643.91	6447.7	
644.1	6701.6	
644.29	7359.7	
644.48	5656.5	
644.67	5729.5	
644.85	6965.1	
645.04	7292.1	
645.23	5322	
645.42	5634	
645.6	6815.6	
645.79	8015.7	
645.98	5644.2	
646.17	4606.6	
646.36	6555.5	
646.54	7301.7	
646.73	6510.5	
646.92	5251.7	
647.11	6815.6	
647.29	7888.8	
647.48	5391.6	
647.67	5057.1	
647.86	8202.1	
648.05	8233.5	
648.23	5699.5	
648.42	6986.3	
648.61	7496.9	
648.8	7281.2	
648.98	5360.2	
649.17	5610.8	
649.36	6812.9	
649.55	6216.3	
649.73	5317.2	
649.92	6120	
650.11	6770.6	
650.3	7063.4	
650.48	5478.3	
650.67	5268.7	
650.86	7328.3	
651.05	6242.2	
651.23	5421	
651.42	5390.3	
651.61	6744.6	
651.79	6907.1	
651.98	5582.1	
652.17	5248.9	
652.36	7263.5	
652.54	6345.3	
652.73	5296	
652.92	5109	
653.11	7292.1	
653.29	7415.7	
653.48	4549.9	
653.67	5708.4	
653.85	7079.8	
654.04	8245.8	
654.23	5807.4	
654.42	5382.1	
654.6	6570.6	
654.79	7382.2	
654.98	4844.8	
655.16	5388.2	
655.35	6212.2	
655.54	6145.3	
655.73	4982	
655.91	4938.3	
656.1	7488.1	
656.29	6114.6	
656.47	4425	
656.66	6292.7	
656.85	6417	
657.03	6429.3	
657.22	4989.5	
657.41	5098.1	
657.59	6550.8	
657.78	6332.3	
657.97	4629.1	
658.16	5468.8	
658.34	7182.9	
658.53	7718.8	
658.72	6320	
658.9	6891.4	
659.09	6614.9	
659.28	6699.6	
659.46	5173.9	
659.65	5107	
659.84	6442.9	
660.02	6950.8	
660.21	4945.8	
660.4	4936.3	
660.58	7443	
660.77	6738.5	
660.96	5609.4	
661.14	4628.4	
661.33	7983.7	
661.52	7776.1	
661.7	4531.5	
661.89	8520.2	
662.08	6420.4	
662.26	5930.9	
662.45	4784.7	
662.64	4997.7	
662.82	7073.7	
663.01	6282.5	
663.2	5046.9	
663.38	5858.6	
663.57	7037.5	
663.75	6866.2	
663.94	5376.6	
664.13	6735.1	
664.31	6308.4	
664.5	7058.7	
664.69	5671.5	
664.87	6186.9	
665.06	6089.3	
665.25	6809.5	
665.43	6427.2	
665.62	6497.5	
665.8	7248.4	
665.99	6547.4	
666.18	5313.8	
666.36	5445.5	
666.55	7222.5	
666.74	7108.5	
666.92	4992.9	
667.11	6688	
667.29	6492.7	
667.48	7127.6	
667.67	6307.1	
667.85	5154.7	
668.04	6574	
668.22	6560.3	
668.41	5369.8	
668.6	5600.5	
668.78	6331.6	
668.97	6537.1	
669.15	5746.6	
669.34	4693.9	
669.53	6348	
669.71	6657.9	
669.9	4953.4	
670.08	5578	
670.27	6418.3	
670.46	6942.6	
670.64	5748	
670.83	6064	
671.01	6215.6	
671.2	6896.2	
671.38	4990.2	
671.57	4924	
671.76	7570.7	
671.94	8153	
672.13	4844.8	
672.31	6027.2	
672.5	7037.5	
672.69	6367.8	
672.87	4948.6	
673.06	5279.7	
673.24	6825.9	
673.43	6324.1	
673.61	5706.3	
673.8	5276.9	
673.98	7092.1	
674.17	7290.8	
674.36	5868.8	
674.54	5750.7	
674.73	6756.2	
674.91	7146.7	
675.1	5369.8	
675.28	5085.8	
675.47	6612.9	
675.65	7182.9	
675.84	5195	
676.03	5694.7	
676.21	6305	
676.4	5836	
676.58	6100.9	
676.77	5869.5	
676.95	7819.1	
677.14	6298.9	
677.32	4973.8	
677.51	4746.5	
677.69	7125.6	
677.88	5930.2	
678.06	4798.4	
678.25	4861.2	
678.44	6567.2	
678.62	6271.6	
678.81	4592.9	
678.99	5592.3	
679.18	7490.1	
679.36	6956.3	
679.55	5195.7	
679.73	5819	
679.92	6974.7	
680.1	6357.6	
680.29	6563.7	
680.47	5245.5	
680.66	6292.7	
680.84	7184.3	
681.03	4451.6	
681.21	5560.9	
681.4	6352.8	
681.58	6212.2	
681.77	4942.4	
681.95	4938.3	
682.14	7241.6	
682.32	7526.3	
682.51	5951.4	
682.69	4609.3	
682.88	6253.1	
683.06	6961.7	
683.25	5592.3	
683.43	6159.6	
683.62	6489.3	
683.8	7051.2	
683.99	6146	
684.17	5483.1	
684.36	7881.9	
684.54	6522.1	
684.73	4625.7	
684.91	4904.9	
685.1	6832.7	
685.28	6237.4	
685.46	5502.2	
685.65	5529.5	
685.83	7133.1	
686.02	6470.2	
686.2	4941.7	
686.39	5076.9	
686.57	6173.3	
686.76	7802.1	
686.94	4941.7	
687.13	5082.4	
687.31	6905.1	
687.5	6393.1	
687.68	4462.5	
687.86	5932.3	
688.05	8287.4	
688.23	5935	
688.42	5834.7	
688.6	4949.3	
688.79	6265.4	
688.97	6294.8	
689.16	5348.6	
689.34	4257.7	
689.52	7189.7	
689.71	7271.7	
689.89	5679	
690.08	4947.2	
690.26	6604	
690.45	6442.9	
690.63	5853.1	
690.81	5130.2	
691	6266.8	
691.18	6203.3	
691.37	5279.7	
691.55	7567.9	
691.74	6187.6	
691.92	8290.2	
692.1	5332.2	
692.29	4595	
692.47	6428.6	
692.66	5670.1	
692.84	4845.5	
693.02	5468.8	
693.21	5816.9	
693.39	6315.3	
693.58	5617.6	
693.76	4922	
693.94	7608.2	
694.13	7367.9	
694.31	4818.2	
694.5	5987.6	
694.68	6136.4	
694.86	6449.7	
695.05	5274.2	
695.23	5789.6	
695.42	6866.2	
695.6	9306	
695.78	5986.9	
695.97	4970.4	
696.15	6909.2	
696.34	6254.5	
696.52	4726.7	
696.7	5646.2	
696.89	6679.8	
697.07	6070.2	
697.25	5492	
697.44	7060	
697.62	6608.1	
697.81	6983.6	
697.99	5193.6	
698.17	5681.7	
698.36	5961.6	
698.54	6686.6	
698.72	5553.4	
698.91	4526	
699.09	6309.1	
699.28	6102.9	
699.46	5201.8	
699.64	5051.7	
699.83	6038.1	
700.01	7410.2	
700.19	5915.9	
700.38	4213.4	
700.56	7337.2	
700.74	6105	
700.93	4671.4	
701.11	5582.1	
701.29	6737.8	
701.48	7831.4	
701.66	4949.3	
701.84	4909.7	
702.03	6204.7	
702.21	6900.3	
702.39	4483.7	
702.58	5083.1	
702.76	6686.6	
702.94	6755.6	
703.13	4403.8	
703.31	7036.8	
703.49	5911.1	
703.68	6913.3	
703.86	4714.4	
704.04	5732.9	
704.23	6466.8	
704.41	6903.7	
704.59	4840.7	
704.78	6186.2	
704.96	7626	
705.14	6925.5	
705.33	4584	
705.51	5544.5	
705.69	6296.1	
705.87	7185	
706.06	5800.5	
706.24	4579.3	
706.42	6636.8	
706.61	6908.5	
706.79	5844.9	
706.97	4584.7	
707.16	6083.8	
707.34	6772.6	
707.52	5724.8	
707.7	4812.7	
707.89	6214.2	
708.07	5936.4	
708.25	5756.2	
708.44	5892.7	
708.62	6113.9	
708.8	7361.8	
708.98	6064.7	
709.17	4874.8	
709.35	6533.7	
709.53	6586.3	
709.72	4591.5	
709.9	5139	
710.08	6907.8	
710.26	6875.7	
710.45	6397.2	
710.63	4954	
710.81	6544.6	
710.99	6581.5	
711.18	5613.5	
711.36	5180	
711.54	6356.9	
711.72	7124.2	
711.91	5241.4	
712.09	4643.4	
712.27	6522.1	
712.45	7697.6	
712.64	5621	
712.82	4412	
713	5982.1	
713.18	6148.7	
713.37	4687.1	
713.55	5920	
713.73	7146	
713.91	5644.2	
714.1	5066.7	
714.28	4585.4	
714.46	6855.2	
714.64	6016.9	
714.83	4005.8	
715.01	4992.9	
715.19	6132.3	
715.37	5636.7	
715.55	4705.5	
715.74	5003.2	
715.92	7164.5	
716.1	5042.1	
716.28	6130.9	
716.47	5113.8	
716.65	5763.7	
716.83	5932.3	
717.01	5026.4	
717.19	5099.4	
717.38	8035.5	
717.56	5524.7	
717.74	5255.1	
717.92	4350.6	
718.1	6922.1	
718.29	5983.5	
718.47	3874.1	
718.65	4683.7	
718.83	6624.5	
719.01	6554.9	
719.2	3715.7	
719.38	4927.4	
719.56	6257.2	
719.74	7918.8	
719.92	4428.4	
720.11	5647.6	
720.29	6366.5	
720.47	5403.9	
720.65	4046.1	
720.83	4965	
721.02	5893.4	
721.2	5572.5	
721.38	5075.5	
721.56	4245.4	
721.74	5088.5	
721.92	5257.8	
722.11	5627.8	
722.29	5210	
722.47	6616.3	
722.65	5771.9	
722.83	4333.5	
723.01	5357.5	
723.2	5842.9	
723.38	6088.6	
723.56	3719.1	
723.74	4910.3	
723.92	5325.4	
724.1	6580.1	
724.29	4219.5	
724.47	5524.7	
724.65	5398.4	
724.83	5345.9	
725.01	4134.8	
725.19	5127.4	
725.37	5344.5	
725.56	5426.4	
725.74	3985.3	
725.92	4289.1	
726.1	5317.2	
726.28	5613.5	
726.46	4700.1	
726.64	4389.5	
726.83	5623.7	
727.01	5928.9	
727.19	3979.2	
727.37	4878.3	
727.55	5772.5	
727.73	6361.7	
727.91	3938.9	
728.09	3746.4	
728.28	6334.4	
728.46	6980.2	
728.64	4978.6	
728.82	4949.3	
729	7468.3	
729.18	6658.6	
729.36	4091.2	
729.54	6651.1	
729.72	7803.4	
729.91	5934.3	
730.09	6139.8	
730.27	4788.2	
730.45	5757.5	
730.63	6472.3	
730.81	5464.7	
730.99	4327.4	
731.17	6994.5	
731.35	5490.6	
731.53	4973.2	
731.71	4503.5	
731.9	6717.3	
732.08	6942.6	
732.26	4852.3	
732.44	4451.6	
732.62	7015.7	
732.8	6429.3	
732.98	5284.4	
733.16	4187.4	
733.34	6434	
733.52	5137.7	
733.7	4875.5	
733.88	5087.2	
734.07	6289.3	
734.25	6005.3	
734.43	4198.3	
734.61	6002.6	
734.79	7649.8	
734.97	5986.2	
735.15	4446.8	
735.33	4773.1	
735.51	6249	
735.69	5901.6	
735.87	5976	
736.05	4966.3	
736.23	6112.5	
736.41	5868.8	
736.59	4881	
736.77	4980	
736.95	6595.1	
737.13	5986.2	
737.32	4461.8	
737.5	4690.5	
737.68	7114.6	
737.86	5791.7	
738.04	4212	
738.22	6240.8	
738.4	5624.4	
738.58	5969.1	
738.76	4977.9	
738.94	3766.2	
739.12	5866.1	
739.3	5623	
739.48	5634	
739.66	5268.1	
739.84	6106.4	
740.02	6127.5	
740.2	3886.4	
740.38	4348.5	
740.56	6524.1	
740.74	5274.9	
740.92	5078.3	
741.1	4988.2	
741.28	5900.2	
741.46	5739.8	
741.64	4558.1	
741.82	5125.4	
742	5943.2	
742.18	5937.7	
742.36	4756.1	
742.54	4342.4	
742.72	6589.7	
742.9	5175.2	
743.08	5233.9	
743.26	3873.4	
743.44	6791.1	
743.62	6655.2	
743.8	5350	
743.98	4368.3	
744.16	6377.4	
744.34	5971.2	
744.52	5352	
744.7	5227.1	
744.88	6466.8	
745.06	6019	
745.24	5304.9	
745.42	5466	
745.6	6593.8	
745.78	6260.6	
745.96	4044.1	
746.14	4430.4	
746.32	7331.7	
746.5	6627.2	
746.68	5100.1	
746.86	4504.8	
747.03	7116.7	
747.21	5200.5	
747.39	5054.4	
747.57	4492.6	
747.75	6186.9	
747.93	6619	
748.11	4528.1	
748.29	4500.1	
748.47	7854	
748.65	5896.8	
748.83	5260.5	
749.01	4943.8	
749.19	6421.7	
749.37	5552.7	
749.55	4762.2	
749.73	4909	
749.91	6027.9	
750.09	5790.3	
750.26	5042.8	
750.44	4319.8	
750.62	6095.4	
750.8	6061.3	
750.98	4125.3	
751.16	4547.9	
751.34	6163.7	
751.52	5440.8	
751.7	5365.7	
751.88	4162.8	
752.06	6658.6	
752.24	6520.7	
752.42	4134.8	
752.59	4536.9	
752.77	6040.1	
752.95	7335.8	
753.13	5333.6	
753.31	4638	
753.49	5744.6	
753.67	6207.4	
753.85	4941.1	
754.03	4585.4	
754.21	6468.2	
754.38	6878.4	
754.56	4767.7	
754.74	3716.4	
754.92	5767.1	
755.1	6518.7	
755.28	3838.6	
755.46	3882.3	
755.64	7357	
755.82	7601.4	
755.99	4310.3	
756.17	4336.9	
756.35	4917.2	
756.53	6599.2	
756.71	3192.8	
756.89	4188.8	
757.07	6176	
757.25	5174.5	
757.42	4777.9	
757.6	5683.8	
757.78	6184.9	
757.96	5086.5	
758.14	4454.3	
758.32	3896.6	
758.5	4605.2	
758.67	5554.8	
758.85	4287.1	
759.03	4289.8	
759.21	5727.5	
759.39	5184.8	
759.57	3771.7	
759.75	5069.4	
759.92	6384.2	
760.1	5584.1	
760.28	5347.9	
760.46	5659.9	
760.64	5377.3	
760.82	5086.5	
760.99	4988.9	
761.17	4386.1	
761.35	6180.8	
761.53	5073.5	
761.71	4443.4	
761.89	5155.4	
762.06	6076.3	
762.24	5487.9	
762.42	4458.4	
762.6	4230.4	
762.78	5514.5	
762.96	6257.9	
763.13	4932.9	
763.31	4566.3	
763.49	6429.9	
763.67	5522	
763.85	5479.7	
764.02	6085.2	
764.2	6705.7	
764.38	5803.9	
764.56	4399.7	
764.74	5361.6	
764.91	6857.3	
765.09	5603.9	
765.27	4074.8	
765.45	3861.1	
765.63	6812.9	
765.8	6604	
765.98	3493.8	
766.16	3945.1	
766.34	5165.7	
766.52	4946.5	
766.69	4995	
766.87	3786	
767.05	5609.4	
767.23	6431.3	
767.41	4137.6	
767.58	4474.1	
767.76	6288.6	
767.94	6282.5	
768.12	4237.9	
768.29	4940.4	
768.47	5820.3	
768.65	6541.9	
768.83	3812.6	
769	5092.6	
769.18	5223.7	
769.36	6009.4	
769.54	5110.4	
769.72	3864.5	
769.89	6284.5	
770.07	6500.3	
770.25	4250.2	
770.43	5607.3	
770.6	7161.7	
770.78	7509.9	
770.96	4442.7	
771.14	4292.5	
771.31	6248.4	
771.49	5547.3	
771.67	3537.5	
771.85	3857.7	
772.02	4724.7	
772.2	5584.8	
772.38	4598.4	
772.55	4137.6	
772.73	5889.3	
772.91	5628.5	
773.09	4507.6	
773.26	4579.3	
773.44	5842.2	
773.62	5398.4	
773.8	4022.9	
773.97	3758.7	
774.15	5911.8	
774.33	5425.8	
774.5	3878.9	
774.68	4279.6	
774.86	6101.6	
775.04	5526.8	
775.21	3934.8	
775.39	3999.7	
775.57	5838.1	
775.74	6282.5	
775.92	3843.4	
776.1	3753.2	
776.27	5811.5	
776.45	7163.8	
776.63	3961.5	
776.81	3459	
776.98	5427.1	
777.16	6580.1	
777.34	4190.1	
777.51	4509.6	
777.69	5401.9	
777.87	5217.5	
778.04	4181.3	
778.22	4887.8	
778.4	5253.7	
778.57	5913.2	
778.75	3467.9	
778.93	3768.3	
779.1	5031.9	
779.28	4831.2	
779.46	3471.3	
779.64	3964.9	
779.81	6186.9	
779.99	7048.4	
780.17	4831.2	
780.34	5036.6	
780.52	5509.7	
780.69	5739.1	
780.87	4259.8	
781.05	3858.4	
781.22	5559.6	
781.4	5694	
781.58	4055.7	
781.75	3140.2	
781.93	5610.1	
782.11	4997	
782.28	4939	
782.46	4012	
782.64	4801.1	
782.81	5754.1	
782.99	4173.1	
783.17	4074.8	
783.34	5755.5	
783.52	4922	
783.69	4306.2	
783.87	5218.9	
784.05	4965	
784.22	4991.6	
784.4	5180.7	
784.58	4445.5	
784.75	5978.7	
784.93	5038.7	
785.1	4091.2	
785.28	4733.5	
785.46	5754.1	
785.63	5010	
785.81	4071.4	
785.99	3938.2	
786.16	5171.8	
786.34	5591.6	
786.51	3987.4	
786.69	4324.6	
786.87	4747.9	
787.04	5350.7	
787.22	3804.4	
787.39	4820.9	
787.57	4995	
787.75	6225.1	
787.92	5018.9	
788.1	4944.5	
788.27	5138.4	
788.45	4807.9	
788.63	4622.9	
788.8	3255.6	
788.98	5549.3	
789.15	4692.6	
789.33	3354.6	
789.5	4108.9	
789.68	5995.8	
789.86	6160.3	
790.03	4561.5	
790.21	3900	
790.38	6066.1	
790.56	5170.4	
790.73	3808.5	
790.91	3820.8	
791.09	5018.9	
791.26	5876.3	
791.44	4127.3	
791.61	3457.7	
791.79	5050.3	
791.96	5145.2	
792.14	3638.6	
792.32	3151.8	
792.49	5070.1	
792.67	5156.1	
792.84	3697.9	
793.02	3472	
793.19	5999.2	
793.37	6247	
793.54	3153.2	
793.72	3504.8	
793.89	6485.2	
794.07	5085.1	
794.25	4290.5	
794.42	3238.5	
794.6	6231.3	
794.77	5808	
794.95	4474.8	
795.12	3942.3	
795.3	5015.5	
795.47	5722.7	
795.65	4317.1	
795.82	4194.2	
796	4863.9	
796.17	6988.4	
796.35	3973.1	
796.52	4760.8	
796.7	5683.8	
796.87	5838.1	
797.05	4970.4	
797.22	4861.2	
797.4	5713.2	
797.57	6764.4	
797.75	4106.2	
797.92	3915.7	
798.1	5993	
798.27	5139.7	
798.45	3344.3	
798.62	3623.5	
798.8	5414.1	
798.97	5911.1	
799.15	4417.5	
799.32	4235.2	
799.5	4662.5	
799.67	5494.7	
799.85	4605.2	
800.02	3254.9	
800.2	5041.4	
800.37	5401.9	
800.55	4780.6	
800.72	3926	
800.9	5975.3	
801.07	6337.1	
801.25	5322.7	
801.42	4322.6	
801.6	5986.9	
801.77	5621	
801.95	3982.6	
802.12	3842	
802.29	5670.1	
802.47	5591	
802.64	4225	
802.82	3214.6	
802.99	4984.1	
803.17	6133.7	
803.34	4094.6	
803.52	3730	
803.69	6767.2	
803.87	4886.5	
804.04	4115.1	
804.21	4241.3	
804.39	6199.2	
804.56	5285.8	
804.74	3486.3	
804.91	4348.5	
805.09	5076.2	
805.26	5167	
805.44	3561.4	
805.61	3945.1	
805.78	5704.3	
805.96	5812.8	
806.13	4265.9	
806.31	4653.7	
806.48	4663.2	
806.66	5196.4	
806.83	4327.4	
807	4205.2	
807.18	5079	
807.35	5498.8	
807.53	4161.5	
807.7	3332.7	
807.87	6300.2	
808.05	5188.9	
808.22	4693.9	
808.4	3333.4	
808.57	5155.4	
808.74	4749.9	
808.92	3883.6	
809.09	4887.1	
809.27	5010.7	
809.44	5630.5	
809.61	3347.7	
809.79	3744.4	
809.96	6284.5	
810.14	5980.8	
810.31	3273.3	
810.48	4035.2	
810.66	5231.9	
810.83	6055.2	
811.01	3871.3	
811.18	4311	
811.35	5911.8	
811.53	4528.1	
811.7	4695.3	
811.87	4271.4	
812.05	5128.1	
812.22	5016.8	
812.39	3728.7	
812.57	3621.5	
812.74	5174.5	
812.92	6873	
813.09	4030.4	
813.26	4431.1	
813.44	6689.3	
813.61	5061.2	
813.78	3335.5	
813.96	4491.2	
814.13	5217.5	
814.3	4817.5	
814.48	4918.5	
814.65	4024.9	
814.82	6414.2	
815	4848.9	
815.17	4145.8	
815.34	5102.9	
815.52	5046.9	
815.69	5039.4	
815.87	4160.8	
816.04	3566.9	
816.21	5221	
816.38	4513	
816.56	3984	
816.73	3717.1	
816.9	6531.7	
817.08	5964.4	
817.25	3767.6	
817.42	4717.2	
817.6	4683	
817.77	5159.5	
817.94	4263.9	
818.12	3697.9	
818.29	4901.5	
818.46	7737.9	
818.64	3873.4	
818.81	3680.2	
818.98	4769.7	
819.16	7110.5	
819.33	4470	
819.5	4168.3	
819.67	5526.8	
819.85	6204	
820.02	4011.3	
820.19	4377.2	
820.37	5389.6	
820.54	4974.5	
820.71	4215.4	
820.88	5249.6	
821.06	5360.2	
821.23	4883	
821.4	4253.6	
821.58	4181.3	
821.75	5920.7	
821.92	5311.1	
822.09	3379.8	
822.27	3462.4	
822.44	5182	
822.61	5020.9	
822.79	3397.6	
822.96	6741.2	
823.13	5649.7	
823.3	4943.1	
823.48	3955.3	
823.65	3564.8	
823.82	5877.7	
823.99	4671.4	
824.17	4999.8	
824.34	3599	
824.51	6832	
824.68	5265.3	
824.86	3756.7	
825.03	4258.4	
825.2	5187.5	
825.37	6281.1	
825.55	3730.7	
825.72	4156.7	
825.89	6923.5	
826.06	6366.5	
826.24	4127.3	
826.41	4072.7	
826.58	6326.2	
826.75	5453.1	
826.92	3229	
827.1	3548.4	
827.27	8744.8	
827.44	6879.1	
827.61	3885.7	
827.79	4699.4	
827.96	4813.4	
828.13	5296.7	
828.3	3974.4	
828.47	3362.1	
828.65	5395	
828.82	5306.3	
828.99	5243.5	
829.16	4635.2	
829.34	5741.1	
829.51	5522.7	
829.68	4212.7	
829.85	4330.8	
830.02	6057.9	
830.2	5862.7	
830.37	3248.8	
830.54	5183.4	
830.71	6621.1	
830.88	5098.8	
831.05	3284.9	
831.23	3751.2	
831.4	6281.8	
831.57	7109.2	
831.74	3866.6	
831.91	3371.6	
832.09	5365	
832.26	5794.4	
832.43	3939.6	
832.6	4535.6	
832.77	5347.2	
832.94	6209.4	
833.12	3147	
833.29	3987.4	
833.46	5018.9	
833.63	7458	
833.8	4369	
833.97	4011.3	
834.15	5806.7	
834.32	5549.3	
834.49	4228.4	
834.66	4300.1	
834.83	6048.3	
835	4842.8	
835.17	3870	
835.35	3935.5	
835.52	5681.1	
835.69	5552.7	
835.86	4033.8	
836.03	3364.8	
836.2	5720.7	
836.37	5355.4	
836.55	4003.1	
836.72	3759.4	
836.89	5311.1	
837.06	5855.1	
837.23	4106.9	
837.4	4511	
837.57	6645	
837.75	7403.4	
837.92	3700.7	
838.09	3920.5	
838.26	5321.3	
838.43	6034	
838.6	4228.4	
838.77	3723.9	
838.94	6948.1	
839.11	6684.6	
839.29	4005.8	
839.46	3145	
839.63	5775.3	
839.8	5475.6	
839.97	3867.9	
840.14	3895.2	
840.31	5513.8	
840.48	5783.5	
840.65	3245.3	
840.82	3999.7	
841	5777.3	
841.17	5709.7	
841.34	3622.2	
841.51	3657	
841.68	5634.6	
841.85	5376.6	
842.02	3732.1	
842.19	3052.8	
842.36	5481	
842.53	5479	
842.7	3611.3	
842.87	4414.7	
843.05	7341.3	
843.22	5428.5	
843.39	3414	
843.56	3585.3	
843.73	5170.4	
843.9	5783.5	
844.07	5872.9	
844.24	4874.8	
844.41	8617.9	
844.58	5004.6	
844.75	3413.3	
844.92	3706.1	
845.09	5659.2	
845.26	5756.8	
845.43	3527.3	
845.6	3801.7	
845.77	5703.6	
845.94	5508.4	
846.12	3964.2	
846.29	4135.5	
846.46	5965.1	
846.63	5789.6	
846.8	3592.8	
846.97	4205.2	
847.14	6243.6	
847.31	5702.9	
847.48	4028.4	
847.65	4422.9	
847.82	6038.1	
847.99	6032.6	
848.16	4823.6	
848.33	4472.8	
848.5	5310.4	
848.67	6217	
848.84	3563.5	
849.01	3705.5	
849.18	5133.6	
849.35	4831.2	
849.52	4511.7	
849.69	3527.3	
849.86	5955.5	
850.03	6248.4	
850.2	3538.9	
850.37	4432.5	
850.54	6113.2	
850.71	5358.9	
850.88	4323.3	
851.05	3505.4	
851.22	5685.8	
851.39	6297.5	
851.56	3356.6	
851.73	4099.4	
851.9	5020.9	
852.07	6004	
852.24	3968.3	
852.41	3529.3	
852.58	5623	
852.75	5072.8	
852.92	3996.3	
853.09	3475.4	
853.26	5373.9	
853.43	6197.8	
853.6	3508.2	
853.77	3082.2	
853.94	6345.3	
854.11	5732.9	
854.28	5308.3	
854.44	3777.8	
854.61	6817.7	
854.78	6109.8	
854.95	3567.6	
855.12	4519.2	
855.29	4609.3	
855.46	6608.8	
855.63	3531.4	
855.8	5040.7	
855.97	5246.9	
856.14	6163	
856.31	4994.3	
856.48	3900	
856.65	5288.5	
856.82	5013.4	
856.99	3394.8	
857.16	3867.9	
857.33	7075.7	
857.49	5440.1	
857.66	3827.7	
857.83	4130.8	
858	5396.4	
858.17	5600.5	
858.34	3334.8	
858.51	3510.2	
858.68	6467.5	
858.85	6522.1	
859.02	4141.7	
859.19	4410	
859.36	4979.3	
859.52	5066.7	
859.69	3593.5	
859.86	4248.9	
860.03	5085.8	
860.2	6333.7	
860.37	3190.7	
860.54	3575.8	
860.71	6001.9	
860.88	6487.3	
861.05	3969.6	
861.21	4530.1	
861.38	6478.4	
861.55	4921.3	
861.72	3216	
861.89	4043.4	
862.06	6101.6	
862.23	6548	
862.4	3418.1	
862.56	3686.3	
862.73	5894.7	
862.9	5522	
863.07	4221.5	
863.24	3203	
863.41	4916.5	
863.58	5016.2	
863.75	3676.1	
863.91	4140.3	
864.08	6395.8	
864.25	5913.2	
864.42	4529.4	
864.59	5013.4	
864.76	6791.1	
864.93	5019.6	
865.09	3480.2	
865.26	3775.8	
865.43	6218.3	
865.6	6690	
865.77	3091.1	
865.94	3553.2	
866.1	6339.8	
866.27	6089.3	
866.44	5401.2	
866.61	3385.3	
866.78	5461.9	
866.95	5870.2	
867.11	3378.5	
867.28	3141.6	
867.45	6090.7	
867.62	5100.8	
867.79	4097.3	
867.96	3507.5	
868.12	5057.1	
868.29	6094.8	
868.46	3089	
868.63	4785.4	
868.8	6257.9	
868.97	5971.2	
869.13	3723.9	
869.3	3742.3	
869.47	5878.4	
869.64	6187.6	
869.81	3581.9	
869.97	3586	
870.14	5776.6	
870.31	6517.3	
870.48	3539.6	
870.65	4596.3	
870.81	5395.7	
870.98	5356.1	
871.15	4038.6	
871.32	3676.8	
871.48	5785.5	
871.65	6543.9	
871.82	3520.5	
871.99	3898	
872.16	6955.6	
872.32	6371.2	
872.49	3603.7	
872.66	3598.3	
872.83	5961	
872.99	5194.3	
873.16	4154.6	
873.33	3512.3	
873.5	5560.2	
873.67	5639.4	
873.83	3733.4	
874	4790.9	
874.17	5791	
874.34	6923.5	
874.5	4655	
874.67	4457.7	
874.84	6460	
875.01	5061.9	
875.17	5000.5	
875.34	3531.4	
875.51	5664	
875.68	6821.8	
875.84	4291.9	
876.01	5354.1	
876.18	5938.4	
876.34	5913.9	
876.51	3573.7	
876.68	3524.6	
876.85	5444.9	
877.01	6277.7	
877.18	5036.6	
877.35	3530.7	
877.52	5532.2	
877.68	4940.4	
877.85	3498.6	
878.02	3514.3	
878.18	5509.7	
878.35	5218.9	
878.52	2806.4	
878.69	4046.8	
878.85	5991.7	
879.02	5910.4	
879.19	5034.6	
879.35	3839.3	
879.52	5954.1	
879.69	6236.1	
879.86	3056.9	
880.02	4006.5	
880.19	5525.4	
880.36	6826.6	
880.52	4158.1	
880.69	4205.8	
880.86	6084.5	
881.02	6184.2	
881.19	3955.3	
881.36	3947.8	
881.52	5952.1	
881.69	5194.3	
881.86	3833.8	
882.02	3783.3	
882.19	6283.9	
882.36	7372	
882.52	3665.2	
882.69	5042.8	
882.86	5705.6	
883.02	5618.3	
883.19	4375.8	
883.36	4089.1	
883.52	6083.8	
883.69	6953.5	
883.86	3581.9	
884.02	3168.2	
884.19	6027.2	
884.36	5557.5	
884.52	4078.9	
884.69	3766.2	
884.86	5244.8	
885.02	6706.4	
885.19	3956.7	
885.36	4142.4	
885.52	5567.7	
885.69	5675.6	
885.86	5254.4	
886.02	4581.3	
886.19	6017.6	
886.35	5510.4	
886.52	3978.5	
886.69	5076.9	
886.85	5150	
887.02	6386.2	
887.19	6386.2	
887.35	6386.2	
887.52	6386.2	
887.68	6386.2	
887.85	6386.2	
888.02	6386.2	
888.18	6386.2	
888.35	6386.2	
888.51	6386.2	
888.68	6386.2	
888.85	6386.2	
889.01	6386.2	
889.18	6386.2	
889.35	6386.2	
889.51	6386.2	
889.68	6386.2	
889.84	6386.2	
890.01	6386.2	
890.17	6386.2	
890.34	6386.2	
890.51	6386.2	
890.67	6386.2	
890.84	6386.2	
891	6386.2	
891.17	6386.2	
891.34	6386.2	
891.5	6386.2	
891.67	6386.2	
891.83	6386.2	
892	6386.2	
892.16	6386.2	
892.33	6386.2	
892.5	6386.2	
892.66	6386.2	
892.83	6386.2	
892.99	6386.2	
893.16	6386.2	
893.32	6386.2	
893.49	6386.2	
893.65	6386.2	
893.82	6386.2	
893.99	6386.2	
894.15	6386.2	
894.32	6386.2	
894.48	6386.2	
894.65	6386.2	
894.81	6386.2	
894.98	6386.2	
895.14	6386.2	
895.31	6386.2	
895.47	6386.2	
895.64	6386.2	
895.81	6386.2	
895.97	6386.2	
896.14	6386.2	
896.3	6386.2	
896.47	6386.2	
896.63	6386.2	
896.8	6386.2	
896.96	6386.2	
897.13	6386.2	
897.29	6386.2	
897.46	6386.2	
897.62	6386.2	
897.79	6386.2	
897.95	6386.2	
898.12	6386.2	
898.28	6386.2	
898.45	6386.2	
898.61	6386.2	
898.78	6386.2	
898.94	6386.2	
899.11	6386.2	
899.27	6386.2	
899.44	6386.2	
899.6	6386.2	
899.77	6386.2	
899.93	6386.2	
900.1	6386.2	
900.26	6386.2	
900.43	6386.2	
900.59	6386.2	
900.76	6386.2	
900.92	6386.2	
901.09	6386.2	
901.25	6386.2	
901.42	6386.2	
901.58	6386.2	
901.75	6386.2	
901.91	6386.2	
902.07	6386.2	
902.24	6386.2	
902.4	6386.2	
902.57	6386.2	
902.73	6386.2	
902.9	6386.2	
903.06	6386.2	
903.23	6386.2	
903.39	6386.2	
903.56	6386.2	
903.72	6386.2	
903.88	6386.2	
904.05	6386.2	
904.21	6386.2	
904.38	6386.2	
904.54	6386.2	
904.71	6386.2	
904.87	6386.2	
905.03	6386.2	
905.2	6386.2	
905.36	6386.2	
905.53	6386.2	
905.69	6386.2	
905.86	6386.2	
906.02	6386.2	
906.18	6386.2	
906.35	6386.2	
906.51	6386.2	
906.68	6386.2	
906.84	6386.2	
907.01	6386.2	
907.17	6386.2	
907.33	6386.2	
907.5	6386.2	
907.66	6386.2	
907.83	6386.2	
907.99	6386.2	
908.15	6386.2	
908.32	6386.2	
908.48	6386.2	
908.65	6386.2	
908.81	6386.2	
908.97	6386.2	
909.14	6386.2	
909.3	6386.2	
909.47	6386.2	
909.63	6386.2	
909.79	6386.2	
909.96	6386.2	
910.12	6386.2	
910.28	6386.2	
910.45	6386.2	
910.61	6386.2	
910.78	6386.2	
910.94	6386.2	
911.1	6386.2	
911.27	6386.2	
911.43	6386.2	
911.59	6386.2	
911.76	6386.2	
911.92	6386.2	
912.08	6386.2	
912.25	6386.2	
912.41	6386.2	
912.57	6386.2	
912.74	6386.2	
912.9	6386.2	
913.07	6386.2	
913.23	6386.2	
913.39	6386.2	
913.56	6386.2	
913.72	6386.2	
913.88	6386.2	
914.05	6386.2	
914.21	6386.2	
914.37	6386.2	
914.54	6386.2	
914.7	6386.2	
914.86	6386.2	
915.03	6386.2	
915.19	6386.2	
