Wavelength	Intensities	
nm	a.u.	
179.22	1716.9	
179.44	1716.2	
179.65	1717.6	
179.86	1714.8	
180.08	1725.1	
180.29	4003.8	
180.51	3006.4	
180.72	5059.8	
180.94	5711.1	
181.15	2797.5	
181.37	2784.6	
181.58	4840	
181.79	5136.3	
182.01	2897.9	
182.22	3063.1	
182.44	5088.5	
182.65	4333.5	
182.87	3743	
183.08	3358.7	
183.29	5382.7	
183.51	4459.1	
183.72	3016.7	
183.94	4271.4	
184.15	4816.8	
184.37	4783.4	
184.58	2757.2	
184.79	3608.5	
185.01	4521.9	
185.22	5135.6	
185.44	3773	
185.65	3282.2	
185.86	4861.2	
186.08	4439.3	
186.29	2661.7	
186.51	2839.8	
186.72	4560.1	
186.94	5185.5	
187.15	3255.6	
187.36	3383.9	
187.58	6587	
187.79	4875.5	
188.01	3442.6	
188.22	5241.4	
188.43	5670.1	
188.65	5072.8	
188.86	2853.5	
189.08	3372.3	
189.29	4640.7	
189.5	4607.2	
189.72	3116.3	
189.93	3151.1	
190.15	5244.8	
190.36	6043.6	
190.57	3442.6	
190.79	3326.6	
191	5247.6	
191.22	5300.8	
191.43	3444.7	
191.64	2902	
191.86	5454.4	
192.07	5311.7	
192.29	2985.9	
192.5	3121.8	
192.71	5256.5	
192.93	4607.2	
193.14	3110.2	
193.35	3205.8	
193.57	4634.6	
193.78	5270.8	
194	2579.8	
194.21	3095.2	
194.42	4479.6	
194.64	4838.7	
194.85	3290.4	
195.07	3859.7	
195.28	4823	
195.49	4296.6	
195.71	4050.9	
195.92	2948.4	
196.13	5018.9	
196.35	5028.4	
196.56	4280.9	
196.78	3327.9	
196.99	6021.7	
197.2	5656.5	
197.42	3710.9	
197.63	3328.6	
197.84	4397.7	
198.06	5001.1	
198.27	3126.6	
198.48	4011.3	
198.7	4629.8	
198.91	4863.9	
199.13	3366.2	
199.34	3346.4	
199.55	5232.6	
199.77	4246.1	
199.98	3002.3	
200.19	3445.4	
200.41	4799.1	
200.62	4551.3	
200.83	3502.7	
201.05	3693.9	
201.26	4801.8	
201.47	4588.8	
201.69	3050.1	
201.9	2933.4	
202.11	4810	
202.33	5630.5	
202.54	3178.4	
202.76	3541.6	
202.97	4855.1	
203.18	4909	
203.4	3528	
203.61	3510.2	
203.82	4866	
204.04	4517.8	
204.25	3414	
204.46	3352.5	
204.68	4851	
204.89	5017.5	
205.1	3290.4	
205.32	2893.8	
205.53	5134.9	
205.74	5218.2	
205.96	2527.2	
206.17	3413.3	
206.38	5108.3	
206.6	5238	
206.81	3855.6	
207.02	3223.5	
207.24	5002.5	
207.45	5347.2	
207.66	3211.9	
207.88	2830.3	
208.09	4989.5	
208.3	4795.7	
208.52	3011.2	
208.73	3317	
208.94	4831.2	
209.15	5364.3	
209.37	3232.4	
209.58	3639.2	
209.79	5206.6	
210.01	4698	
210.22	2668.5	
210.43	2732	
210.65	4772.4	
210.86	5102.9	
211.07	3222.1	
211.29	2976.4	
211.5	5031.9	
211.71	4752.7	
211.93	2983.2	
212.14	3052.8	
212.35	4768.4	
212.56	4854.4	
212.78	3388.7	
212.99	2869.9	
213.2	5489.2	
213.42	4677.6	
213.63	3044.6	
213.84	3259	
214.06	4358.1	
214.27	4417.5	
214.48	3206.4	
214.69	3434.4	
214.91	5344.5	
215.12	5350.7	
215.33	3435.8	
215.55	3777.8	
215.76	5776	
215.97	5076.2	
216.18	3311.6	
216.4	3310.9	
216.61	4516.5	
216.82	5212.8	
217.04	3084.2	
217.25	3130.7	
217.46	5299.5	
217.67	5072.8	
217.89	2723.8	
218.1	2838.5	
218.31	4869.4	
218.53	4968.4	
218.74	3188	
218.95	3063.8	
219.16	4816.8	
219.38	5491.3	
219.59	3025.5	
219.8	3620.1	
220.01	5940.5	
220.23	4855.7	
220.44	3802.4	
220.65	2988	
220.87	4877.6	
221.08	5304.2	
221.29	2883.5	
221.5	3639.2	
221.72	6279.1	
221.93	4631.1	
222.14	3409.9	
222.35	3934.8	
222.57	4835.3	
222.78	5152	
222.99	3244	
223.2	3463.8	
223.42	5010	
223.63	5100.8	
223.84	2566.8	
224.05	2558.6	
224.27	5898.2	
224.48	5490.6	
224.69	4034.5	
224.9	3381.2	
225.12	4974.5	
225.33	4746.5	
225.54	2832.3	
225.75	3046.7	
225.97	4484.4	
226.18	4705.5	
226.39	3267.2	
226.6	3086.3	
226.82	4665.3	
227.03	4470.7	
227.24	3401.7	
227.45	2842.6	
227.67	5178.6	
227.88	5508.4	
228.09	3756	
228.3	3755.3	
228.52	5106.3	
228.73	4719.2	
228.94	3102.7	
229.15	2867.2	
229.36	4857.1	
229.58	4691.9	
229.79	3230.3	
230	3654.3	
230.21	5685.8	
230.43	4868	
230.64	3349.8	
230.85	3499.3	
231.06	5185.5	
231.28	5188.2	
231.49	2856.2	
231.7	3332.7	
231.91	5098.1	
232.12	4800.4	
232.34	2981.2	
232.55	3222.8	
232.76	5289.9	
232.97	4928.8	
233.18	3048.1	
233.4	3379.8	
233.61	5012.1	
233.82	4606.6	
234.03	3168.9	
234.25	3123.2	
234.46	6316.6	
234.67	4858.5	
234.88	3483.6	
235.09	3041.9	
235.31	5014.8	
235.52	4711	
235.73	3332	
235.94	2914.3	
236.15	4610.7	
236.37	5710.4	
236.58	2984.6	
236.79	3271.3	
237	5052.3	
237.21	4438.6	
237.43	3486.3	
237.64	2837.1	
237.85	7948.2	
238.06	4506.9	
238.27	3461.7	
238.48	2886.3	
238.7	5084.4	
238.91	4730.1	
239.12	3221.5	
239.33	3345.7	
239.54	4552	
239.76	4751.3	
239.97	3205.1	
240.18	3240.6	
240.39	5784.1	
240.6	4958.8	
240.82	3404.4	
241.03	2886.3	
241.24	4805.2	
241.45	5446.9	
241.66	2967.5	
241.87	3461.7	
242.09	5381.4	
242.3	5623	
242.51	3531.4	
242.72	3231	
242.93	5122	
243.14	4762.9	
243.36	3718.4	
243.57	3910.9	
243.78	5414.8	
243.99	5068.7	
244.2	3239.9	
244.41	2945.7	
244.63	4468.7	
244.84	5032.5	
245.05	3470.6	
245.26	3209.8	
245.47	5038.7	
245.68	5198.4	
245.9	4193.6	
246.11	3447.4	
246.32	4657.8	
246.53	5036.6	
246.74	5112.4	
246.95	2830.3	
247.16	4482.3	
247.38	4855.7	
247.59	2825.5	
247.8	3250.8	
248.01	4511	
248.22	4752.7	
248.43	2996.2	
248.64	3228.3	
248.86	4383.3	
249.07	4623.6	
249.28	2968.9	
249.49	3331.4	
249.7	5258.5	
249.91	5309.7	
250.12	2761.3	
250.34	2904.7	
250.55	4948.6	
250.76	4825.7	
250.97	3330.7	
251.18	3334.1	
251.39	5319.9	
251.6	4923.3	
251.81	3411.9	
252.03	3384.6	
252.24	4633.9	
252.45	5145.2	
252.66	2879.4	
252.87	3558.7	
253.08	4855.7	
253.29	6001.2	
253.5	2892.4	
253.72	3859.1	
253.93	4737	
254.14	5595.1	
254.35	3085.6	
254.56	3200.3	
254.77	4986.1	
254.98	4526	
255.19	3087	
255.41	3830.4	
255.62	4929.5	
255.83	5261.9	
256.04	3449.5	
256.25	3353.2	
256.46	5796.4	
256.67	4615.4	
256.88	3321.8	
257.09	3643.3	
257.31	4511.7	
257.52	4588.1	
257.73	4164.9	
257.94	3112.9	
258.15	4788.2	
258.36	4829.1	
258.57	3816	
258.78	2529.2	
258.99	5163.6	
259.2	4660.5	
259.41	3136.8	
259.63	3153.9	
259.84	5472.9	
260.05	5734.3	
260.26	4024.3	
260.47	3095.2	
260.68	5252.4	
260.89	4711.7	
261.1	3719.1	
261.31	2984.6	
261.52	5295.4	
261.73	5588.2	
261.95	3949.2	
262.16	3470.6	
262.37	5332.9	
262.58	5380.7	
262.79	3932.1	
263	3141.6	
263.21	4830.5	
263.42	4655.7	
263.63	3465.8	
263.84	3151.1	
264.05	5268.7	
264.26	5499.5	
264.47	3822.9	
264.69	3321.1	
264.9	5380.7	
265.11	4975.9	
265.32	3023.5	
265.53	3119.1	
265.74	4895.3	
265.95	4302.8	
266.16	3317.7	
266.37	3493.8	
266.58	4892.6	
266.79	4641.4	
267	3119.1	
267.21	2930.6	
267.42	4506.9	
267.63	4790.9	
267.84	3196.9	
268.06	2848.7	
268.27	5182.7	
268.48	5295.4	
268.69	3155.2	
268.9	3692.5	
269.11	5354.8	
269.32	4360.1	
269.53	3221.5	
269.74	3029.6	
269.95	5008.6	
270.16	4342.4	
270.37	3289	
270.58	3719.1	
270.79	4704.9	
271	5223	
271.21	3474	
271.42	3334.8	
271.63	4965.6	
271.84	4503.5	
272.05	2664.4	
272.26	2979.8	
272.47	4866.7	
272.68	4953.4	
272.89	3178.4	
273.11	3497.2	
273.32	4598.4	
273.53	5561.6	
273.74	3500	
273.95	3448.1	
274.16	5166.3	
274.37	4836.6	
274.58	3538.9	
274.79	2916.3	
275	4891.9	
275.21	5182.7	
275.42	4199	
275.63	3604.4	
275.84	5025	
276.05	6108.4	
276.26	3407.1	
276.47	3241.3	
276.68	4704.9	
276.89	5583.4	
277.1	3649.5	
277.31	2884.9	
277.52	5008.6	
277.73	5221	
277.94	2852.8	
278.15	3148.4	
278.36	5022.3	
278.57	4603.8	
278.78	3185.3	
278.99	3464.5	
279.2	4596.3	
279.41	4512.4	
279.62	4112.3	
279.83	2929.3	
280.04	5751.4	
280.25	4490.5	
280.46	4011.3	
280.67	3239.2	
280.88	4524.6	
281.09	5302.9	
281.3	3392.1	
281.51	4165.6	
281.72	4575.2	
281.93	5203.2	
282.14	3061	
282.35	3273.3	
282.56	5226.4	
282.77	5238	
282.98	3156.6	
283.19	3834.5	
283.4	6164.4	
283.61	4760.2	
283.82	2976.4	
284.03	3978.5	
284.24	4977.9	
284.45	5236	
284.66	3979.9	
284.87	3748.5	
285.08	5295.4	
285.29	5310.4	
285.5	2859.6	
285.71	3179.1	
285.92	5259.9	
286.12	5808	
286.33	3928	
286.54	3195.5	
286.75	5208	
286.96	4739	
287.17	2979.1	
287.38	3861.1	
287.59	4630.5	
287.8	4558.8	
288.01	3237.2	
288.22	3575.1	
288.43	5192.3	
288.64	4399.7	
288.85	3756.7	
289.06	3561.4	
289.27	5384.1	
289.48	5469.4	
289.69	4057	
289.9	3641.3	
290.11	5320.6	
290.32	4581.3	
290.53	3790.1	
290.74	3439.2	
290.94	5168.4	
291.15	5203.2	
291.36	3056.9	
291.57	3625.6	
291.78	4645.5	
291.99	4319.8	
292.2	2977.1	
292.41	3480.9	
292.62	5242.8	
292.83	5014.8	
293.04	4200.4	
293.25	3035.1	
293.46	4727.4	
293.67	5270.8	
293.88	3078.8	
294.09	3002.3	
294.29	4518.5	
294.5	4951.3	
294.71	3250.1	
294.92	3084.9	
295.13	4675.5	
295.34	5683.8	
295.55	2825.5	
295.76	2767.5	
295.97	5117.2	
296.18	5711.8	
296.39	2932	
296.6	3083.6	
296.81	4846.9	
297.01	5148.6	
297.22	3185.3	
297.43	3082.9	
297.64	4645.5	
297.85	4516.5	
298.06	2626.2	
298.27	2820.7	
298.48	4825	
298.69	4584.7	
298.9	3356.6	
299.11	3083.6	
299.31	4463.2	
299.52	4525.3	
299.73	3532.1	
299.94	3470.6	
300.15	4801.1	
300.36	4576.5	
300.57	3472	
300.78	3458.3	
300.99	4736.3	
301.2	4945.2	
301.4	3114.3	
301.61	3360.7	
301.82	5054.4	
302.03	5155.4	
302.24	3678.8	
302.45	2909.5	
302.66	5070.1	
302.87	5326.8	
303.08	3064.4	
303.29	4123.9	
303.49	4643.4	
303.7	4849.6	
303.91	2746.3	
304.12	3902.7	
304.33	4470	
304.54	4917.9	
304.75	3110.2	
304.96	2973.7	
305.16	5094	
305.37	5556.8	
305.58	2742.9	
305.79	2783.9	
306	5052.3	
306.21	4334.2	
306.42	3086.3	
306.63	4462.5	
306.83	4718.5	
307.04	5162.2	
307.25	3408.5	
307.46	3321.1	
307.67	4240.7	
307.88	5113.8	
308.09	3086.3	
308.29	3132.7	
308.5	4912.4	
308.71	5264.6	
308.92	3261.7	
309.13	2975.7	
309.34	4765.6	
309.55	4762.2	
309.75	3777.8	
309.96	3500.7	
310.17	5098.8	
310.38	4531.5	
310.59	3622.2	
310.8	2950.4	
311.01	5375.9	
311.21	4779.3	
311.42	2965.5	
311.63	3029.6	
311.84	4689.2	
312.05	4926	
312.26	3421.5	
312.46	3675.4	
312.67	4723.3	
312.88	4422.2	
313.09	3040.6	
313.3	2956.6	
313.51	5385.5	
313.71	5766.4	
313.92	2968.9	
314.13	3170.3	
314.34	5003.2	
314.55	4758.1	
314.76	3761.4	
314.96	3303.4	
315.17	4988.9	
315.38	5048.2	
315.59	3019.4	
315.8	2857.6	
316.01	5457.2	
316.21	5486.5	
316.42	2916.3	
316.63	3287	
316.84	4734.2	
317.05	5328.1	
317.26	3467.9	
317.46	3142.9	
317.67	4784.1	
317.88	5089.9	
318.09	3683.6	
318.3	2804.4	
318.5	4693.3	
318.71	5052.3	
318.92	4611.3	
319.13	3463.1	
319.34	5212.1	
319.54	5312.4	
319.75	2795.5	
319.96	2733.4	
320.17	5048.2	
320.38	5283.1	
320.58	2775.7	
320.79	3277.4	
321	5266	
321.21	5333.6	
321.42	3290.4	
321.62	2749.7	
321.83	4567	
322.04	4878.3	
322.25	3194.8	
322.46	2997.5	
322.66	4910.3	
322.87	5095.3	
323.08	3584.6	
323.29	2925.2	
323.5	5660.6	
323.7	4453.6	
323.91	3964.9	
324.12	3553.9	
324.33	4902.8	
324.53	5087.8	
324.74	3499.3	
324.95	3596.2	
325.16	4382.7	
325.37	4712.4	
325.57	3006.4	
325.78	3097.2	
325.99	4954	
326.2	4449.6	
326.4	4177.2	
326.61	2813.2	
326.82	4784.1	
327.03	4927.4	
327.24	4112.3	
327.44	3835.8	
327.65	5067.4	
327.86	4160.8	
328.07	3426.9	
328.27	2902.7	
328.48	5437.4	
328.69	4511	
328.9	4108.2	
329.1	3183.9	
329.31	4792.9	
329.52	5442.8	
329.73	3024.8	
329.93	3308.8	
330.14	4894	
330.35	4970.4	
330.56	4711	
330.76	3584.6	
330.97	4686.4	
331.18	4934.2	
331.39	3312.9	
331.59	2761.3	
331.8	5248.9	
332.01	5339.1	
332.22	3102	
332.42	3461.7	
332.63	4879.6	
332.84	4568.3	
333.05	3390.1	
333.25	3078.8	
333.46	4641.4	
333.67	4826.4	
333.88	3164.1	
334.08	3436.5	
334.29	6167.1	
334.5	5289.9	
334.7	2929.3	
334.91	4111	
335.12	4472.8	
335.33	5128.1	
335.53	3334.1	
335.74	4706.9	
335.95	4709	
336.16	4517.8	
336.36	3275.4	
336.57	3714.3	
336.78	4493.9	
336.98	5223	
337.19	3950.5	
337.4	3214.6	
337.61	5769.1	
337.81	4446.1	
338.02	3123.2	
338.23	3831.7	
338.43	5443.5	
338.64	4603.8	
338.85	3005.1	
339.05	3930.7	
339.26	5504.3	
339.47	4397.7	
339.68	3047.4	
339.88	4264.6	
340.09	5040.1	
340.3	5253.7	
340.5	3524.6	
340.71	2751.1	
340.92	4465.9	
341.13	5347.9	
341.33	2878.1	
341.54	3461.7	
341.75	5013.4	
341.95	4727.4	
342.16	3375.7	
342.37	3548.4	
342.57	4505.5	
342.78	4808.6	
342.99	3639.9	
343.19	2770.9	
343.4	5199.8	
343.61	5036	
343.81	3196.2	
344.02	2940.2	
344.23	5139	
344.43	5403.2	
344.64	3682.2	
344.85	3553.9	
345.06	5084.4	
345.26	5301.5	
345.47	3461.1	
345.68	4003.1	
345.88	4372.4	
346.09	5195.7	
346.3	3500.7	
346.5	2705.4	
346.71	4806.6	
346.92	4642.1	
347.12	2893.8	
347.33	3415.3	
347.54	5260.5	
347.74	5585.5	
347.95	3425.6	
348.16	2639.8	
348.36	4676.2	
348.57	4515.8	
348.78	3454.9	
348.98	3644.7	
349.19	4850.3	
349.39	4414.7	
349.6	2832.3	
349.81	3020.1	
350.01	5065.3	
350.22	4583.4	
350.43	3350.5	
350.63	3922.5	
350.84	4861.2	
351.05	4662.5	
351.25	3087	
351.46	2789.3	
351.67	5253.7	
351.87	4577.2	
352.08	3218.7	
352.29	3638.6	
352.49	5172.5	
352.7	5230.5	
352.9	3007.1	
353.11	3579.2	
353.32	5709.7	
353.52	4756.7	
353.73	3007.1	
353.94	3656.3	
354.14	5109.7	
354.35	4927.4	
354.55	3074	
354.76	3344.3	
354.97	5096.7	
355.17	4836.6	
355.38	2944.3	
355.59	3859.1	
355.79	4588.8	
356	4907.6	
356.2	3349.1	
356.41	3055.6	
356.62	4504.8	
356.82	4878.9	
357.03	3595.6	
357.24	3233.7	
357.44	4657.8	
357.65	4747.2	
357.85	4219.5	
358.06	3410.6	
358.27	4475.5	
358.47	4618.9	
358.68	2955.9	
358.88	3570.3	
359.09	5115.1	
359.3	5329.5	
359.5	4119.8	
359.71	3678.8	
359.91	5696.1	
360.12	5194.3	
360.33	3590.1	
360.53	3903.4	
360.74	4735.6	
360.94	4769.7	
361.15	3722.5	
361.36	3211.2	
361.56	5262.6	
361.77	4942.4	
361.97	4141.7	
362.18	3372.3	
362.38	5335	
362.59	4663.2	
362.8	3140.9	
363	3130.7	
363.21	4536.3	
363.41	5035.3	
363.62	3562.1	
363.83	4269.3	
364.03	5131.5	
364.24	5757.5	
364.44	4451.6	
364.65	4420.9	
364.85	4975.9	
365.06	4728.1	
365.27	3334.8	
365.47	3396.2	
365.68	5627.1	
365.88	4944.5	
366.09	3655.6	
366.29	3420.8	
366.5	5109.7	
366.71	5446.9	
366.91	4379.2	
367.12	3823.6	
367.32	5911.1	
367.53	5396.4	
367.73	3820.8	
367.94	4544.4	
368.14	5322	
368.35	6001.9	
368.56	3758	
368.76	3363.4	
368.97	5427.8	
369.17	6579.4	
369.38	3429.7	
369.58	3646.7	
369.79	4676.9	
369.99	5711.8	
370.2	4289.8	
370.4	3725.3	
370.61	5195	
370.82	6107.7	
371.02	3657.7	
371.23	3170.3	
371.43	4711.7	
371.64	5671.5	
371.84	3639.2	
372.05	4549.9	
372.25	6601.3	
372.46	5411.4	
372.66	3695.2	
372.87	3675.4	
373.07	5494	
373.28	6784.2	
373.48	4386.1	
373.69	4225	
373.9	5177.3	
374.1	5217.5	
374.31	4446.8	
374.51	4095.3	
374.72	5686.5	
374.92	5005.9	
375.13	4596.3	
375.33	3981.9	
375.54	5528.2	
375.74	5145.2	
375.95	4064.5	
376.15	5004.6	
376.36	5588.9	
376.56	5428.5	
376.77	4171.7	
376.97	4461.8	
377.18	6447	
377.38	5790.3	
377.59	4731.5	
377.79	3895.9	
378	5573.9	
378.2	5851.7	
378.41	3946.4	
378.61	3854.3	
378.82	5986.9	
379.02	5368.4	
379.23	4096.6	
379.43	4835.3	
379.64	6027.2	
379.84	5806.7	
380.05	4001	
380.25	3889.8	
380.46	5857.9	
380.66	5491.3	
380.87	4936.3	
381.07	5176.6	
381.28	6204	
381.48	5803.3	
381.69	3926.6	
381.89	3968.3	
382.1	5052.3	
382.3	5837.4	
382.51	4749.9	
382.71	5423	
382.91	5698.1	
383.12	6152.8	
383.32	4240	
383.53	4312.3	
383.73	5629.9	
383.94	5633.3	
384.14	4288.4	
384.35	3688.4	
384.55	5421.7	
384.76	5765	
384.96	4227.7	
385.17	4343.7	
385.37	5724.1	
385.58	5232.6	
385.78	4371	
385.98	3600.3	
386.19	5405.3	
386.39	5727.5	
386.6	3997.6	
386.8	4191.5	
387.01	5784.8	
387.21	5812.1	
387.42	4481	
387.62	4903.5	
387.83	5267.4	
388.03	5707	
388.23	4328.7	
388.44	4896.7	
388.64	5137	
388.85	5245.5	
389.05	4590.2	
389.26	5113.8	
389.46	6535.8	
389.67	6274.3	
389.87	4666.6	
390.07	4724	
390.28	5619.6	
390.48	5371.1	
390.69	4085.7	
390.89	4332.8	
391.1	5538.4	
391.3	6214.2	
391.5	5270.8	
391.71	5623.7	
391.91	6098.2	
392.12	6705.7	
392.32	5281	
392.53	4663.2	
392.73	5599.8	
392.93	5771.2	
393.14	4425	
393.34	4916.5	
393.55	6001.9	
393.75	5659.9	
393.95	4430.4	
394.16	4364.2	
394.36	5571.2	
394.57	5966.4	
394.77	4035.2	
394.98	4278.2	
395.18	5497.4	
395.38	5654.4	
395.59	5106.3	
395.79	4291.2	
396	5723.4	
396.2	6122.1	
396.4	4925.4	
396.61	4977.2	
396.81	6193.7	
397.02	5784.8	
397.22	5239.4	
397.42	5283.1	
397.63	6348	
397.83	5801.2	
398.04	4415.4	
398.24	4834.6	
398.44	6189.6	
398.65	5487.9	
398.85	4371.7	
399.05	4440.7	
399.26	5879	
399.46	7090.8	
399.67	4722.6	
399.87	4576.5	
400.07	6156.9	
400.28	6380.1	
400.48	4616.8	
400.69	5522.7	
400.89	6546.7	
401.09	6961	
401.3	4730.8	
401.5	5471.5	
401.7	7159.7	
401.91	7357.7	
402.11	4971.8	
402.32	5136.3	
402.52	6769.9	
402.72	6621.8	
402.93	5262.6	
403.13	4309.6	
403.33	7195.2	
403.54	6072.2	
403.74	4841.4	
403.94	5429.8	
404.15	6040.1	
404.35	6909.2	
404.56	4648.9	
404.76	6010.8	
404.96	6412.9	
405.17	6232.7	
405.37	5750.7	
405.57	5197.1	
405.78	6633.4	
405.98	6183.5	
406.18	4909	
406.39	5533.6	
406.59	6567.8	
406.79	6217.6	
407	4583.4	
407.2	4695.3	
407.4	6634.7	
407.61	6701.6	
407.81	4797.7	
408.01	6201.9	
408.22	5839.4	
408.42	7350.2	
408.62	5806.7	
408.83	5453.7	
409.03	6728.9	
409.23	6584.2	
409.44	5668.8	
409.64	5805.3	
409.84	7580.2	
410.05	7537.2	
410.25	6039.5	
410.45	5782.1	
410.66	7337.9	
410.86	9186.5	
411.06	6279.8	
411.27	6163.7	
411.47	9196.1	
411.67	7729.7	
411.88	6420.4	
412.08	6703.7	
412.28	8105.2	
412.49	8543.4	
412.69	6408.8	
412.89	6414.2	
413.09	8397.4	
413.3	8345.5	
413.5	6649.1	
413.7	6341.2	
413.91	7836.9	
414.11	8574.8	
414.31	6472.3	
414.52	6943.3	
414.72	8266.3	
414.92	8286.1	
415.12	6554.9	
415.33	7007.5	
415.53	8628.8	
415.73	8764.6	
415.94	7276.4	
416.14	6888.7	
416.34	7987.1	
416.55	7701.7	
416.75	7862.8	
416.95	7467.6	
417.15	8884.8	
417.36	9174.9	
417.56	8148.9	
417.76	7405.5	
417.97	9075.2	
418.17	8979	
418.37	7156.3	
418.57	7312.6	
418.78	8884.8	
418.98	8487.5	
419.18	7828	
419.38	7745.4	
419.59	8576.9	
419.79	8222.6	
419.99	7154.9	
420.2	7291.5	
420.4	8924.4	
420.6	8927.1	
420.8	7113.3	
421.01	6920.8	
421.21	8934.6	
421.41	8958.5	
421.61	7251.2	
421.82	7104.4	
422.02	8508.6	
422.22	9112.1	
422.42	7657.4	
422.63	7311.9	
422.83	8612.4	
423.03	9484.8	
423.23	7382.9	
423.44	6677.7	
423.64	8561.2	
423.84	8202.1	
424.04	6944.7	
424.25	6674.3	
424.45	9121	
424.65	9127.8	
424.85	6531	
425.06	7006.1	
425.26	9279.3	
425.46	8333.9	
425.66	7265.5	
425.87	7067.5	
426.07	8899.8	
426.27	8748.9	
426.47	7274.4	
426.67	6574	
426.88	9168.8	
427.08	8680.7	
427.28	7456	
427.48	6578.8	
427.69	7980.3	
427.89	8418.5	
428.09	7315.3	
428.29	6591.7	
428.5	8891.6	
428.7	8555.7	
428.9	6655.2	
429.1	6929	
429.3	8557.8	
429.51	8911.4	
429.71	6907.1	
429.91	7561.1	
430.11	8925.7	
430.31	9162.6	
430.52	7277.1	
430.72	7473	
430.92	9364.7	
431.12	8926.4	
431.32	7051.2	
431.53	7265.5	
431.73	8247.9	
431.93	9480.7	
432.13	6966.5	
432.33	6929.6	
432.54	8632.2	
432.74	8819.9	
432.94	6934.4	
433.14	7672.4	
433.34	9044.5	
433.55	8819.9	
433.75	7692.9	
433.95	9134.6	
434.15	9013.1	
434.35	8797.4	
434.56	7165.2	
434.76	6919.4	
434.96	9040.4	
435.16	9373.6	
435.36	7175.4	
435.56	8097.7	
435.77	8933.9	
435.97	9099.1	
436.17	8711.4	
436.37	8188.5	
436.57	8992.6	
436.78	9011.7	
436.98	7997.3	
437.18	8549.6	
437.38	9537.4	
437.58	9151.7	
437.78	8746.2	
437.99	7632.1	
438.19	9473.9	
438.39	10088	
438.59	7525.6	
438.79	7011.6	
438.99	9912.2	
439.2	8900.5	
439.4	6964.5	
439.6	7066.9	
439.8	9155.1	
440	10136	
440.2	8030.1	
440.4	8213.7	
440.61	9763.3	
440.81	10238	
441.01	7728.4	
441.21	8587.8	
441.41	10495	
441.61	9984.5	
441.81	8895	
442.02	9583.8	
442.22	10607	
442.42	10108	
442.62	8055.3	
442.82	7944.1	
443.02	10519	
443.22	9862.3	
443.43	8397.4	
443.63	7978.9	
443.83	9590	
444.03	9691	
444.23	9179	
444.43	8691.6	
444.63	10187	
444.83	10985	
445.04	8480.6	
445.24	9353.8	
445.44	10267	
445.64	10423	
445.84	8765.3	
446.04	8811.7	
446.24	9698.5	
446.44	10455	
446.65	7931.1	
446.85	8441.7	
447.05	9654.8	
447.25	10359	
447.45	8389.2	
447.65	7931.1	
447.85	9941.5	
448.05	9397.4	
448.25	8700.5	
448.46	8634.9	
448.66	10002	
448.86	9555.1	
449.06	7913.4	
449.26	8797.4	
449.46	10200	
449.66	9576.3	
449.86	8649.3	
450.06	8551.6	
450.26	9758.6	
450.47	10312	
450.67	8645.2	
450.87	8924.4	
451.07	10372	
451.27	10206	
451.47	8249.2	
451.67	8731.9	
451.87	10067	
452.07	10725	
452.27	8581.7	
452.47	8400.1	
452.67	10144	
452.88	10552	
453.08	7925.6	
453.28	9594.1	
453.48	11239	
453.68	9937.4	
453.88	8544.8	
454.08	8588.5	
454.28	10548	
454.48	10281	
454.68	9018.6	
454.88	9463.7	
455.08	10787	
455.28	10601	
455.48	8321.6	
455.68	9151.7	
455.89	11208	
456.09	10904	
456.29	8822.6	
456.49	9071.1	
456.69	11311	
456.89	10572	
457.09	9488.9	
457.29	9989.3	
457.49	10822	
457.69	11232	
457.89	9617.3	
458.09	9005.6	
458.29	11069	
458.49	11667	
458.69	10012	
458.89	9653.4	
459.09	11983	
459.29	11974	
459.49	9583.8	
459.69	10253	
459.9	11530	
460.1	11376	
460.3	9402.2	
460.5	9342.8	
460.7	11564	
460.9	11381	
461.1	9343.5	
461.3	10292	
461.5	12186	
461.7	11917	
461.9	9873.3	
462.1	10118	
462.3	11717	
462.5	12112	
462.7	9953.1	
462.9	10228	
463.1	13108	
463.3	12915	
463.5	10317	
463.7	11387	
463.9	12232	
464.1	12601	
464.3	10944	
464.5	10899	
464.7	12912	
464.9	12831	
465.1	12042	
465.3	11386	
465.5	13119	
465.7	13355	
465.9	11706	
466.1	11243	
466.3	13322	
466.5	12977	
466.7	12441	
466.9	11409	
467.1	13276	
467.3	13914	
467.5	12527	
467.7	11663	
467.9	14090	
468.1	14970	
468.3	12084	
468.5	12597	
468.7	13381	
468.9	13138	
469.1	12016	
469.3	12659	
469.5	15136	
469.7	13380	
469.9	12217	
470.1	12037	
470.3	13538	
470.5	13649	
470.7	12956	
470.9	11893	
471.1	13444	
471.3	13540	
471.5	11851	
471.69	13209	
471.89	13218	
472.09	12849	
472.29	12381	
472.49	12343	
472.69	13122	
472.89	13691	
473.09	11811	
473.29	11583	
473.49	13149	
473.69	13133	
473.89	12390	
474.09	11673	
474.29	14041	
474.49	13750	
474.69	12423	
474.89	11742	
475.09	13209	
475.29	13096	
475.49	11359	
475.69	11711	
475.88	14119	
476.08	13385	
476.28	11340	
476.48	11438	
476.68	13530	
476.88	13290	
477.08	11336	
477.28	11702	
477.48	12849	
477.68	13289	
477.88	11253	
478.08	11445	
478.28	13788	
478.48	13067	
478.67	11668	
478.87	11003	
479.07	13874	
479.27	13225	
479.47	11699	
479.67	11741	
479.87	13566	
480.07	13992	
480.27	11196	
480.47	12273	
480.67	13237	
480.87	13833	
481.06	11432	
481.26	12327	
481.46	13407	
481.66	13158	
481.86	11881	
482.06	12641	
482.26	13200	
482.46	13726	
482.66	11670	
482.86	11540	
483.05	13502	
483.25	12946	
483.45	13807	
483.65	11878	
483.85	13204	
484.05	13461	
484.25	12272	
484.45	12702	
484.65	13992	
484.84	14218	
485.04	12011	
485.24	12066	
485.44	14465	
485.64	13122	
485.84	11615	
486.04	12632	
486.24	13489	
486.44	13701	
486.63	11615	
486.83	12423	
487.03	13622	
487.23	13939	
487.43	11772	
487.63	13695	
487.83	13872	
488.02	14689	
488.22	12779	
488.42	13183	
488.62	14752	
488.82	13842	
489.02	12386	
489.22	12703	
489.41	14465	
489.61	14489	
489.81	12259	
490.01	12421	
490.21	14752	
490.41	15210	
490.61	12382	
490.8	12544	
491	14412	
491.2	13710	
491.4	12762	
491.6	12222	
491.8	14071	
491.99	13962	
492.19	11832	
492.39	12153	
492.59	14376	
492.79	14525	
492.99	12991	
493.18	12363	
493.38	14859	
493.58	15600	
493.78	13065	
493.98	12730	
494.18	14737	
494.37	14759	
494.57	13748	
494.77	13601	
494.97	15366	
495.17	15828	
495.37	13618	
495.56	13828	
495.76	16080	
495.96	15903	
496.16	14827	
496.36	14136	
496.55	16253	
496.75	15809	
496.95	14331	
497.15	14317	
497.35	16130	
497.54	16228	
497.74	14074	
497.94	15508	
498.14	16806	
498.34	16628	
498.53	14048	
498.73	14592	
498.93	15869	
499.13	16292	
499.33	14668	
499.52	14774	
499.72	16647	
499.92	16643	
500.12	14475	
500.32	14781	
500.51	16741	
500.71	16790	
500.91	15395	
501.11	15103	
501.31	16831	
501.5	17008	
501.7	15596	
501.9	14938	
502.1	16630	
502.29	16883	
502.49	15322	
502.69	15486	
502.89	16803	
503.09	16776	
503.28	14186	
503.48	14401	
503.68	15959	
503.88	16088	
504.07	15147	
504.27	14661	
504.47	16313	
504.67	16273	
504.86	14940	
505.06	14689	
505.26	15903	
505.46	17139	
505.65	14480	
505.85	14503	
506.05	15636	
506.25	16032	
506.44	13867	
506.64	14225	
506.84	15461	
507.04	15972	
507.23	13885	
507.43	14274	
507.63	16752	
507.83	15368	
508.02	14250	
508.22	13878	
508.42	17138	
508.62	15453	
508.81	13966	
509.01	14530	
509.21	15291	
509.4	15402	
509.6	14179	
509.8	13839	
510	15368	
510.19	16630	
510.39	13699	
510.59	14009	
510.79	15382	
510.98	16498	
511.18	14035	
511.38	14179	
511.57	16043	
511.77	15829	
511.97	14531	
512.17	13763	
512.36	16119	
512.56	15589	
512.76	13715	
512.95	13487	
513.15	16048	
513.35	14908	
513.55	14351	
513.74	13652	
513.94	16109	
514.14	15464	
514.33	14614	
514.53	14375	
514.73	15519	
514.92	15718	
515.12	13804	
515.32	13872	
515.51	15826	
515.71	16067	
515.91	15143	
516.11	13913	
516.3	17146	
516.5	15576	
516.7	14311	
516.89	14730	
517.09	15612	
517.29	15687	
517.48	14603	
517.68	14074	
517.88	15324	
518.07	15958	
518.27	14584	
518.47	13733	
518.66	16244	
518.86	15330	
519.06	13573	
519.25	14040	
519.45	15529	
519.65	16667	
519.84	14525	
520.04	15180	
520.24	17057	
520.43	16004	
520.63	14215	
520.83	14051	
521.02	15316	
521.22	15808	
521.42	14215	
521.61	14620	
521.81	15442	
522.01	15535	
522.2	14144	
522.4	13861	
522.6	16004	
522.79	15001	
522.99	14102	
523.18	13852	
523.38	16113	
523.58	16152	
523.77	15497	
523.97	14136	
524.17	17668	
524.36	16935	
524.56	15378	
524.76	15111	
524.95	16614	
525.15	16337	
525.34	15135	
525.54	15408	
525.74	17220	
525.93	16479	
526.13	16405	
526.33	15502	
526.52	17626	
526.72	17242	
526.91	16522	
527.11	16069	
527.31	17712	
527.5	18118	
527.7	16042	
527.89	15371	
528.09	17100	
528.29	17648	
528.48	16283	
528.68	15931	
528.87	17694	
529.07	17690	
529.27	16056	
529.46	15837	
529.66	17737	
529.85	18092	
530.05	15814	
530.25	16379	
530.44	18965	
530.64	17541	
530.83	15919	
531.03	16174	
531.23	18066	
531.42	17735	
531.62	16784	
531.81	16063	
532.01	18234	
532.21	18647	
532.4	16462	
532.6	16742	
532.79	19337	
532.99	18846	
533.18	17063	
533.38	17823	
533.58	18473	
533.77	19123	
533.97	17238	
534.16	17754	
534.36	19434	
534.55	18814	
534.75	18047	
534.95	17425	
535.14	19730	
535.34	18852	
535.53	17032	
535.73	18574	
535.92	19914	
536.12	18862	
536.31	17104	
536.51	17930	
536.71	19019	
536.9	18632	
537.1	16958	
537.29	17255	
537.49	19257	
537.68	18621	
537.88	17586	
538.07	16929	
538.27	18898	
538.46	19820	
538.66	17010	
538.86	17233	
539.05	18991	
539.25	19400	
539.44	17797	
539.64	17083	
539.83	18703	
540.03	19594	
540.22	17185	
540.42	17006	
540.61	18852	
540.81	18912	
541	17253	
541.2	17963	
541.39	18361	
541.59	18838	
541.78	17758	
541.98	16776	
542.18	18226	
542.37	18121	
542.57	17099	
542.76	17628	
542.96	17959	
543.15	18507	
543.35	16802	
543.54	16358	
543.74	18474	
543.93	18192	
544.13	16581	
544.32	17337	
544.52	18271	
544.71	17535	
544.91	15945	
545.1	16658	
545.3	17761	
545.49	18201	
545.69	15812	
545.88	16188	
546.08	19100	
546.27	18461	
546.47	16518	
546.66	16012	
546.86	18268	
547.05	18554	
547.24	16171	
547.44	16100	
547.63	17357	
547.83	18189	
548.02	16377	
548.22	16442	
548.41	17232	
548.61	18165	
548.8	15790	
549	15879	
549.19	17619	
549.39	17900	
549.58	15515	
549.78	15907	
549.97	17900	
550.17	17381	
550.36	16476	
550.55	17393	
550.75	17226	
550.94	17849	
551.14	15465	
551.33	15602	
551.53	16699	
551.72	17493	
551.92	15713	
552.11	15571	
552.31	17499	
552.5	17348	
552.69	16736	
552.89	15119	
553.08	17415	
553.28	17117	
553.47	15491	
553.67	16266	
553.86	17737	
554.06	16294	
554.25	14728	
554.44	15190	
554.64	18261	
554.83	17802	
555.03	15086	
555.22	15345	
555.42	17370	
555.61	17114	
555.8	15144	
556	15417	
556.19	16517	
556.39	17174	
556.58	15292	
556.78	15143	
556.97	17025	
557.16	16554	
557.36	16224	
557.55	15025	
557.75	15877	
557.94	17626	
558.13	14930	
558.33	14799	
558.52	17283	
558.72	16393	
558.91	14795	
559.1	15016	
559.3	16155	
559.49	15792	
559.69	14371	
559.88	15117	
560.07	16620	
560.27	17170	
560.46	15286	
560.66	15285	
560.85	16621	
561.04	15651	
561.24	14582	
561.43	14601	
561.63	15961	
561.82	16176	
562.01	15597	
562.21	14864	
562.4	16399	
562.59	17311	
562.79	14846	
562.98	14597	
563.18	16498	
563.37	17645	
563.56	15353	
563.76	14747	
563.95	16253	
564.14	16100	
564.34	15102	
564.53	14695	
564.73	16681	
564.92	16971	
565.11	15170	
565.31	14764	
565.5	17217	
565.69	16275	
565.89	14899	
566.08	15125	
566.27	16984	
566.47	17516	
566.66	15792	
566.85	14644	
567.05	16999	
567.24	16427	
567.44	14928	
567.63	15953	
567.82	16902	
568.02	16792	
568.21	15005	
568.4	15280	
568.6	16746	
568.79	16896	
568.98	15015	
569.18	15014	
569.37	16976	
569.56	18376	
569.76	15576	
569.95	16254	
570.14	17059	
570.34	17231	
570.53	15162	
570.72	15072	
570.91	17704	
571.11	16984	
571.3	15415	
571.49	16183	
571.69	17195	
571.88	16641	
572.07	15961	
572.27	15779	
572.46	16592	
572.65	17294	
572.85	15289	
573.04	15685	
573.23	17716	
573.43	17124	
573.62	15176	
573.81	15696	
574	17356	
574.2	17106	
574.39	15819	
574.58	15774	
574.78	18133	
574.97	17647	
575.16	16274	
575.36	16440	
575.55	18034	
575.74	18083	
575.93	15432	
576.13	16637	
576.32	17563	
576.51	18121	
576.71	16049	
576.9	16986	
577.09	18259	
577.28	17830	
577.48	16258	
577.67	15692	
577.86	17668	
578.05	17931	
578.25	16196	
578.44	16177	
578.63	17587	
578.83	18700	
579.02	15701	
579.21	17049	
579.4	17940	
579.6	17756	
579.79	16305	
579.98	18039	
580.17	18103	
580.37	18178	
580.56	15739	
580.75	16376	
580.94	18518	
581.14	18400	
581.33	17002	
581.52	16034	
581.71	18112	
581.91	18667	
582.1	16049	
582.29	16281	
582.48	17991	
582.68	18041	
582.87	16673	
583.06	16509	
583.25	18208	
583.45	17718	
583.64	17045	
583.83	17490	
584.02	17905	
584.21	18277	
584.41	17037	
584.6	16478	
584.79	18025	
584.98	18643	
585.18	16053	
585.37	16035	
585.56	17731	
585.75	18256	
585.94	16063	
586.14	16770	
586.33	18424	
586.52	17834	
586.71	16408	
586.91	16101	
587.1	17173	
587.29	18062	
587.48	15886	
587.67	15933	
587.87	17754	
588.06	17576	
588.25	16744	
588.44	16109	
588.63	17381	
588.83	17753	
589.02	15592	
589.21	15523	
589.4	16951	
589.59	16993	
589.78	14500	
589.98	14676	
590.17	16016	
590.36	16443	
590.55	13680	
590.74	14046	
590.94	16992	
591.13	15837	
591.32	14012	
591.51	13590	
591.7	16010	
591.89	15837	
592.09	13722	
592.28	14147	
592.47	15150	
592.66	16721	
592.85	13847	
593.05	14115	
593.24	15711	
593.43	16478	
593.62	14271	
593.81	14554	
594	15886	
594.19	16079	
594.39	14014	
594.58	14078	
594.77	16078	
594.96	16300	
595.15	13958	
595.34	14414	
595.54	15930	
595.73	15271	
595.92	13301	
596.11	14158	
596.3	16240	
596.49	15297	
596.68	13896	
596.88	14138	
597.07	15956	
597.26	15126	
597.45	13487	
597.64	14440	
597.83	15423	
598.02	15700	
598.22	13537	
598.41	14044	
598.6	15685	
598.79	15101	
598.98	13519	
599.17	14190	
599.36	15613	
599.55	16318	
599.74	14919	
599.94	14874	
600.13	15960	
600.32	14914	
600.51	13195	
600.7	13353	
600.89	16125	
601.08	16361	
601.27	13176	
601.47	13969	
601.66	15675	
601.85	16212	
602.04	13682	
602.23	13694	
602.42	14853	
602.61	15358	
602.8	13538	
602.99	13257	
603.18	15029	
603.37	15240	
603.57	13756	
603.76	14256	
603.95	15793	
604.14	15407	
604.33	13439	
604.52	13606	
604.71	15423	
604.9	15047	
605.09	14092	
605.28	13771	
605.47	15758	
605.66	15302	
605.86	13736	
606.05	13405	
606.24	15745	
606.43	14471	
606.62	13676	
606.81	14031	
607	15487	
607.19	14883	
607.38	13003	
607.57	13211	
607.76	14788	
607.95	14255	
608.14	13590	
608.33	14020	
608.52	14540	
608.72	15482	
608.91	12828	
609.1	12830	
609.29	14684	
609.48	14362	
609.67	13452	
609.86	12762	
610.05	14376	
610.24	14504	
610.43	12605	
610.62	12359	
610.81	15345	
611	15227	
611.19	12743	
611.38	13240	
611.57	14881	
611.76	15783	
611.95	12448	
612.14	12304	
612.33	14557	
612.52	14224	
612.71	12979	
612.9	12277	
613.09	13906	
613.28	15725	
613.47	12792	
613.66	13410	
613.85	14599	
614.04	14218	
614.24	12708	
614.43	12116	
614.62	14746	
614.81	14590	
615	13031	
615.19	13068	
615.38	14149	
615.57	14588	
615.76	13066	
615.95	13810	
616.14	14781	
616.33	14536	
616.52	13224	
616.71	13404	
616.9	14733	
617.09	14698	
617.28	12794	
617.47	13600	
617.66	14098	
617.85	14065	
618.04	13648	
618.22	13209	
618.41	14590	
618.6	15304	
618.79	13170	
618.98	13162	
619.17	15539	
619.36	14070	
619.55	13318	
619.74	13310	
619.93	15119	
620.12	14752	
620.31	13806	
620.5	13990	
620.69	15598	
620.88	15990	
621.07	14597	
621.26	13868	
621.45	15455	
621.64	15438	
621.83	13936	
622.02	13364	
622.21	15472	
622.4	15414	
622.59	14550	
622.78	14365	
622.97	15182	
623.16	15986	
623.35	14009	
623.54	13349	
623.72	15253	
623.91	15347	
624.1	14158	
624.29	13312	
624.48	16288	
624.67	15717	
624.86	14162	
625.05	13531	
625.24	16425	
625.43	15075	
625.62	15603	
625.81	13667	
626	15732	
626.19	15341	
626.38	14319	
626.56	13796	
626.75	15358	
626.94	15957	
627.13	14224	
627.32	13287	
627.51	15791	
627.7	16591	
627.89	13304	
628.08	14364	
628.27	15055	
628.46	15120	
628.65	13507	
628.83	13237	
629.02	15545	
629.21	15049	
629.4	13828	
629.59	14048	
629.78	15114	
629.97	15816	
630.16	14065	
630.35	13636	
630.54	16226	
630.72	15864	
630.91	13849	
631.1	14029	
631.29	15473	
631.48	15520	
631.67	14156	
631.86	13588	
632.05	15356	
632.24	15277	
632.42	13340	
632.61	13862	
632.8	15115	
632.99	15040	
633.18	13987	
633.37	14186	
633.56	15345	
633.75	15326	
633.93	13891	
634.12	13693	
634.31	16042	
634.5	15737	
634.69	13672	
634.88	13953	
635.07	15256	
635.25	15774	
635.44	14345	
635.63	14468	
635.82	15077	
636.01	14532	
636.2	14134	
636.39	13965	
636.57	15873	
636.76	15479	
636.95	13463	
637.14	14342	
637.33	15366	
637.52	16107	
637.7	13302	
637.89	13986	
638.08	15145	
638.27	16068	
638.46	14029	
638.65	14319	
638.83	15954	
639.02	14874	
639.21	13750	
639.4	14134	
639.59	15021	
639.78	14773	
639.96	13168	
640.15	13164	
640.34	14786	
640.53	14850	
640.72	12811	
640.91	12979	
641.09	14319	
641.28	15319	
641.47	12981	
641.66	13695	
641.85	14867	
642.03	14916	
642.22	13319	
642.41	12967	
642.6	14373	
642.79	13706	
642.97	12706	
643.16	13328	
643.35	14218	
643.54	13961	
643.73	12667	
643.91	13246	
644.1	13624	
644.29	14373	
644.48	12529	
644.67	12623	
644.85	13807	
645.04	14007	
645.23	11966	
645.42	12342	
645.6	13516	
645.79	14422	
645.98	11985	
646.17	11188	
646.36	13117	
646.54	13398	
646.73	12397	
646.92	11604	
647.11	12992	
647.29	13832	
647.48	11421	
647.67	11304	
647.86	13958	
648.05	13973	
648.23	11611	
648.42	12564	
648.61	13375	
648.8	13304	
648.98	11200	
649.17	11509	
649.36	12772	
649.55	12468	
649.73	11230	
649.92	11822	
650.11	12817	
650.3	13003	
650.48	11385	
650.67	11226	
650.86	13125	
651.05	12275	
651.23	11333	
651.42	11238	
651.61	12785	
651.79	12663	
651.98	11470	
652.17	11075	
652.36	12883	
652.54	12129	
652.73	10977	
652.92	10858	
653.11	12898	
653.29	12891	
653.48	10372	
653.67	11155	
653.85	12613	
654.04	13460	
654.23	11129	
654.42	10875	
654.6	11923	
654.79	12329	
654.98	10157	
655.16	10338	
655.35	11355	
655.54	11217	
655.73	9906	
655.91	9716.9	
656.1	11967	
656.29	11127	
656.47	9593.4	
656.66	10963	
656.85	11389	
657.03	11609	
657.22	10132	
657.41	10302	
657.59	11665	
657.78	11742	
657.97	10041	
658.16	10642	
658.34	12261	
658.53	12585	
658.72	11275	
658.9	11743	
659.09	12015	
659.28	12042	
659.46	10370	
659.65	10459	
659.84	11848	
660.02	12285	
660.21	10479	
660.4	10238	
660.58	12502	
660.77	11960	
660.96	10755	
661.14	10027	
661.33	12925	
661.52	12773	
661.7	10010	
661.89	12719	
662.08	11629	
662.26	11348	
662.45	10108	
662.64	10208	
662.82	12190	
663.01	11527	
663.2	10233	
663.38	10850	
663.57	11987	
663.75	11951	
663.94	10443	
664.13	11305	
664.31	11547	
664.5	11978	
664.69	10398	
664.87	10882	
665.06	11325	
665.25	11897	
665.43	11170	
665.62	11160	
665.8	12015	
665.99	11610	
666.18	10281	
666.36	10353	
666.55	12051	
666.74	11912	
666.92	9981.8	
667.11	11140	
667.29	11691	
667.48	11908	
667.67	10878	
667.85	10180	
668.04	11439	
668.22	11531	
668.41	10305	
668.6	10512	
668.78	11290	
668.97	11419	
669.15	10540	
669.34	9673.2	
669.53	11333	
669.71	11594	
669.9	9843.2	
670.08	10377	
670.27	11288	
670.46	11673	
670.64	10479	
670.83	10828	
671.01	11052	
671.2	11535	
671.38	9891	
671.57	9726.5	
671.76	11994	
671.94	12585	
672.13	9623.4	
672.31	10438	
672.5	11884	
672.69	11158	
672.87	9979.8	
673.06	10041	
673.24	11606	
673.43	11366	
673.61	10371	
673.8	9992	
673.98	11828	
674.17	11835	
674.36	10603	
674.54	10337	
674.73	11480	
674.91	11776	
675.1	10234	
675.28	9753.1	
675.47	11446	
675.65	11787	
675.84	10051	
676.03	10281	
676.21	11232	
676.4	10834	
676.58	10673	
676.77	10546	
676.95	12392	
677.14	11112	
677.32	9727.2	
677.51	9688.3	
677.69	11760	
677.88	10978	
678.06	9583.8	
678.25	9775.6	
678.44	11435	
678.62	11202	
678.81	9501.2	
678.99	10252	
679.18	11918	
679.36	11642	
679.55	10012	
679.73	10428	
679.92	11544	
680.1	11107	
680.29	10903	
680.47	9899.9	
680.66	11073	
680.84	11792	
681.03	9448	
681.21	10213	
681.4	11263	
681.58	10968	
681.77	9799.5	
681.95	9621.4	
682.14	11720	
682.32	11974	
682.51	10438	
682.69	9495.7	
682.88	10955	
683.06	11286	
683.25	10086	
683.43	10471	
683.62	11340	
683.8	11513	
683.99	10539	
684.17	10017	
684.36	12039	
684.54	11014	
684.73	9229.5	
684.91	9200.2	
685.1	10867	
685.28	10304	
685.46	9312.8	
685.65	9278	
685.83	10778	
686.02	10182	
686.2	8742.8	
686.39	8923	
686.57	10021	
686.76	11327	
686.94	8873.8	
687.13	9056.1	
687.31	10703	
687.5	10469	
687.68	8677.9	
687.86	9644.6	
688.05	11866	
688.23	10083	
688.42	9617.3	
688.6	9215.2	
688.79	10482	
688.97	10457	
689.16	9520.3	
689.34	8798.8	
689.52	11200	
689.71	11342	
689.89	9756.5	
690.08	9230.2	
690.26	10978	
690.45	10729	
690.63	9901.2	
690.81	9432.3	
691	10734	
691.18	10568	
691.37	9467.1	
691.55	11073	
691.74	10469	
691.92	12032	
692.1	9383.8	
692.29	8991.3	
692.47	10570	
692.66	10111	
692.84	9131.2	
693.02	9450.7	
693.21	10286	
693.39	10680	
693.58	9610.4	
693.76	9199.5	
693.94	11497	
694.13	11439	
694.31	9291.6	
694.5	10073	
694.68	10591	
694.86	10952	
695.05	9735.4	
695.23	9837.1	
695.42	11394	
695.6	13050	
695.78	10253	
695.97	9587.9	
696.15	11525	
696.34	10887	
696.52	9450.7	
696.7	10012	
696.89	11155	
697.07	10750	
697.25	9781.1	
697.44	10912	
697.62	10982	
697.81	11208	
697.99	9471.2	
698.17	9821.4	
698.36	10464	
698.54	10998	
698.72	9698.5	
698.91	8972.2	
699.09	10700	
699.28	10409	
699.46	9413.8	
699.64	9272.5	
699.83	10411	
700.01	11163	
700.19	9960.6	
700.38	8746.2	
700.56	11287	
700.74	10518	
700.93	9078	
701.11	9738.1	
701.29	10945	
701.48	11832	
701.66	9279.3	
701.84	9423.4	
702.03	10804	
702.21	11290	
702.39	9074.5	
702.58	9572.9	
702.76	11050	
702.94	11163	
703.13	9037	
703.31	10862	
703.49	10606	
703.68	11422	
703.86	9132.6	
704.04	9960	
704.23	10970	
704.41	11190	
704.59	9334.6	
704.78	10205	
704.96	12131	
705.14	11112	
705.33	9234.3	
705.51	9655.5	
705.69	10780	
705.87	11382	
706.06	9903.3	
706.24	9086.8	
706.42	10873	
706.61	11187	
706.79	9922.4	
706.97	9043.8	
707.16	10499	
707.34	10886	
707.52	9794.1	
707.7	9186.5	
707.89	10605	
708.07	10318	
708.25	9849.4	
708.44	10173	
708.62	10419	
708.8	11389	
708.98	9978.4	
709.17	9194.7	
709.35	10746	
709.53	10793	
709.72	8906.6	
709.9	9217.2	
710.08	11033	
710.26	10865	
710.45	10126	
710.63	9115.5	
710.81	10529	
710.99	10560	
711.18	9497.1	
711.36	8935.3	
711.54	10434	
711.72	10805	
711.91	9052.7	
712.09	8669.7	
712.27	10376	
712.45	11171	
712.64	9127.8	
712.82	8327	
713	9779.1	
713.18	9851.4	
713.37	8241	
713.55	9177.6	
713.73	10437	
713.91	9151	
714.1	8244.4	
714.28	7750.9	
714.46	9676.7	
714.64	8906.6	
714.83	6994.5	
715.01	7402.7	
715.19	8642.4	
715.37	8004.1	
715.55	7045	
715.74	7158.3	
715.92	9141.4	
716.1	7589.1	
716.28	7979.6	
716.47	7114.6	
716.65	8043.1	
716.83	8142.7	
717.01	6961	
717.19	7069.6	
717.38	9719	
717.56	7813	
717.74	7150.8	
717.92	6570.6	
718.1	8797.4	
718.29	8211	
718.47	6385.6	
718.65	6978.8	
718.83	8995.4	
719.01	8965.3	
719.2	6563.1	
719.38	7563.1	
719.56	8856.1	
719.74	10071	
719.92	7282.6	
720.11	7968	
720.29	8869.8	
720.47	8133.8	
720.65	6769.9	
720.83	7298.3	
721.02	8200.7	
721.2	7940.7	
721.38	7130.3	
721.56	6451.1	
721.74	7497.6	
721.92	7589.8	
722.11	7400	
722.29	7090.1	
722.47	8539.3	
722.65	7852.6	
722.83	6449.1	
723.01	7025.2	
723.2	7893.6	
723.38	8161.8	
723.56	6034.7	
723.74	6827.9	
723.92	7535.8	
724.1	8430.8	
724.29	6350.1	
724.47	7160.4	
724.65	7629.4	
724.83	7409.6	
725.01	6234	
725.19	6842.3	
725.37	7398.6	
725.56	7500.3	
725.74	6070.9	
725.92	6285.9	
726.1	7382.2	
726.28	7664.2	
726.46	6507.8	
726.64	6259.3	
726.83	7533.1	
727.01	7876.5	
727.19	6082.5	
727.37	6597.2	
727.55	7656	
727.73	8103.8	
727.91	5948	
728.09	5810.1	
728.28	8094.3	
728.46	8409.6	
728.64	6696.2	
728.82	6703.7	
729	8921.6	
729.18	8426	
729.36	6186.9	
729.54	7826	
729.72	9396.1	
729.91	8074.5	
730.09	7777.5	
730.27	6791.1	
730.45	7953.6	
730.63	8345.5	
730.81	7346.7	
730.99	6557.6	
731.17	8873.8	
731.35	7724.9	
731.53	6977.4	
731.71	6619.7	
731.9	8695	
732.08	8682	
732.26	6734.4	
732.44	6582.9	
732.62	8750.3	
732.8	8353.7	
732.98	7074.4	
733.16	6310.5	
733.34	8292.9	
733.52	7237.5	
733.7	6507.1	
733.88	6825.2	
734.07	8103.8	
734.25	7899	
734.43	6249.7	
734.61	7396.6	
734.79	9078	
734.97	7879.9	
735.15	6332.3	
735.33	6565.1	
735.51	8029.4	
735.69	7809.6	
735.87	7331	
736.05	6578.8	
736.23	7941.3	
736.41	7655.3	
736.59	6495.5	
736.77	6600.6	
736.95	8255.4	
737.13	7701.7	
737.32	6229.9	
737.5	6346	
737.68	8649.3	
737.86	7634.8	
738.04	6064.7	
738.22	7400	
738.4	7441.6	
738.58	7671	
738.76	6472.3	
738.94	5709.7	
739.12	7568.6	
739.3	7442.3	
739.48	6881.9	
739.66	6666.8	
739.84	7710.6	
740.02	7712.7	
740.2	5782.8	
740.38	6004.6	
740.56	7966.6	
740.74	7055.3	
740.92	6437.4	
741.1	6260.6	
741.28	7513.3	
741.46	7259.4	
741.64	6051.7	
741.82	6454.5	
742	7501.7	
742.18	7363.8	
742.36	6132.3	
742.54	5832.6	
742.72	7830.1	
742.9	6761.7	
743.08	6426.5	
743.26	5413.5	
743.44	7856	
743.62	7829.4	
743.8	6427.2	
743.98	5785.5	
744.16	7462.1	
744.34	7296.2	
744.52	6331	
744.7	6222.4	
744.88	7620.5	
745.06	7129.7	
745.24	6255.2	
745.42	6383.5	
745.6	7646.4	
745.78	7520.8	
745.96	5362.3	
746.14	5557.5	
746.32	8104.5	
746.5	7514	
746.68	5924.1	
746.86	5591.6	
747.03	7736.5	
747.21	6546.7	
747.39	5917.3	
747.57	5384.1	
747.75	7079.8	
747.93	7436.9	
748.11	5425.1	
748.29	5412.8	
748.47	8417.2	
748.65	6871.6	
748.83	6003.3	
749.01	5850.4	
749.19	7299.6	
749.37	6631.3	
749.55	5658.5	
749.73	5780.7	
749.91	7033.4	
750.09	6820.4	
750.26	5731.6	
750.44	5259.9	
750.62	7021.8	
750.8	6874.3	
750.98	5119.9	
751.16	5395.7	
751.34	7110.5	
751.52	6505.7	
751.7	5941.2	
751.88	5111.7	
752.06	7378.8	
752.24	7040.2	
752.42	5071.5	
752.59	5326.8	
752.77	6797.9	
752.95	7786.4	
753.13	5861.3	
753.31	5378.6	
753.49	6606.7	
753.67	6904.4	
753.85	5580	
754.03	5236.7	
754.21	7055.9	
754.38	7258.7	
754.56	5276.3	
754.74	4583.4	
754.92	6310.5	
755.1	6732.4	
755.28	4371.7	
755.46	4422.9	
755.64	7180.9	
755.82	7180.9	
755.99	4287.1	
756.17	4269.3	
756.35	5018.9	
756.53	6162.3	
756.71	3294.5	
756.89	3985.3	
757.07	5743.9	
757.25	5141.1	
757.42	4419.5	
757.6	5096.7	
757.78	5972.6	
757.96	5261.2	
758.14	4311	
758.32	4043.4	
758.5	4957.4	
758.67	5571.2	
758.85	4205.2	
759.03	4263.9	
759.21	5735	
759.39	5275.6	
759.57	3908.9	
759.75	4685.8	
759.92	6290.7	
760.1	5756.2	
760.28	5051	
760.46	5227.1	
760.64	5568.4	
760.82	5415.5	
760.99	4860.5	
761.17	4403.1	
761.35	6228.6	
761.53	5394.3	
761.71	4553.3	
761.89	5134.3	
762.06	6152.1	
762.24	5758.9	
762.42	4633.9	
762.6	4522.6	
762.78	5877.7	
762.96	6305	
763.13	4985.4	
763.31	4676.9	
763.49	6437.4	
763.67	5862	
763.85	5359.5	
764.02	5756.8	
764.2	6687.3	
764.38	5997.1	
764.56	4591.5	
764.74	5233.2	
764.91	6733	
765.09	5827.8	
765.27	4428.4	
765.45	4125.3	
765.63	6782.2	
765.8	6601.3	
765.98	3955.3	
766.16	4147.8	
766.34	5528.8	
766.52	5275.6	
766.69	4906.3	
766.87	4065.9	
767.05	5877.7	
767.23	6343.9	
767.41	4246.1	
767.58	4456.4	
767.76	6171.2	
767.94	6247.7	
768.12	4293.9	
768.29	4821.6	
768.47	5734.3	
768.65	6317.3	
768.83	3997	
769	4868	
769.18	5442.1	
769.36	5950.7	
769.54	4821.6	
769.72	3980.6	
769.89	6229.9	
770.07	6189.6	
770.25	4264.6	
770.43	5190.9	
770.6	6756.9	
770.78	7037.5	
770.96	4321.2	
771.14	4732.9	
771.31	6059.3	
771.49	5565.7	
771.67	3713.6	
771.85	3878.2	
772.02	5016.8	
772.2	5461.2	
772.38	4392.9	
772.55	4045.4	
772.73	5784.1	
772.91	5484.5	
773.09	4255.7	
773.26	4349.9	
773.44	5651.7	
773.62	5405.3	
773.8	3910.9	
773.97	3693.2	
774.15	5641.5	
774.33	5399.1	
774.5	3769.6	
774.68	4063.2	
774.86	5674.9	
775.04	5388.9	
775.21	3856.3	
775.39	3740.3	
775.57	5571.8	
775.74	5773.2	
775.92	3727.3	
776.1	3594.9	
776.27	5485.8	
776.45	6519.4	
776.63	3821.5	
776.81	3461.1	
776.98	5241.4	
777.16	6000.5	
777.34	3915.7	
777.51	4124.6	
777.69	5197.7	
777.87	5071.5	
778.04	3941	
778.22	4235.2	
778.4	5061.2	
778.57	5539.1	
778.75	3309.5	
778.93	3545.7	
779.1	4905.6	
779.28	4748.6	
779.46	3344.3	
779.64	3665.2	
779.81	5674.2	
779.99	6218.3	
780.17	4260.5	
780.34	4345.8	
780.52	5178.6	
780.69	5302.9	
780.87	3902.7	
781.05	3558.7	
781.22	5240.8	
781.4	5285.8	
781.58	3694.5	
781.75	3013.9	
781.93	5259.2	
782.11	4751.3	
782.28	4308.2	
782.46	3643.3	
782.64	4622.3	
782.81	5349.3	
782.99	3722.5	
783.17	3662.5	
783.34	5223	
783.52	4713.7	
783.69	3815.4	
783.87	4454.3	
784.05	4827.7	
784.22	4696	
784.4	4403.1	
784.58	3907.5	
784.75	5507	
784.93	4811.4	
785.1	3607.2	
785.28	4066.6	
785.46	5293.3	
785.63	4745.1	
785.81	3599.6	
785.99	3459	
786.16	4884.4	
786.34	5075.5	
786.51	3467.9	
786.69	3836.5	
786.87	4472.1	
787.04	4864.6	
787.22	3381.9	
787.39	4069.3	
787.57	4710.3	
787.75	5503.6	
787.92	4249.5	
788.1	4134.8	
788.27	4659.1	
788.45	4485.7	
788.63	3932.8	
788.8	2963.4	
788.98	5089.9	
789.15	4417.5	
789.33	3078.8	
789.5	3583.3	
789.68	5401.2	
789.86	5518.6	
790.03	3929.4	
790.21	3444	
790.38	5438	
790.56	4798.4	
790.73	3348.4	
790.91	3348.4	
791.09	4676.9	
791.26	5205.3	
791.44	3538.2	
791.61	3088.3	
791.79	4678.2	
791.96	4707.6	
792.14	3176.4	
792.32	2874.7	
792.49	4672.8	
792.67	4713.7	
792.84	3247.4	
793.02	3134.1	
793.19	5015.5	
793.37	5517.9	
793.54	2869.2	
793.72	3142.3	
793.89	5658.5	
794.07	4613.4	
794.25	3621.5	
794.42	2953.2	
794.6	5422.3	
794.77	5165	
794.95	3845.4	
795.12	3321.8	
795.3	4680.3	
795.47	5072.8	
795.65	3685	
795.82	3460.4	
796	4496	
796.17	5916.6	
796.35	3447.4	
796.52	3990.8	
796.7	5029.8	
796.87	5195.7	
797.05	3380.5	
797.22	4026.3	
797.4	5098.8	
797.57	5840.8	
797.75	3537.5	
797.92	3280.8	
798.1	5343.8	
798.27	4543.1	
798.45	2989.4	
798.62	3150.5	
798.8	4881.7	
798.97	5231.2	
799.15	3665.9	
799.32	3574.4	
799.5	4257.7	
799.67	4889.2	
799.85	3842.7	
800.02	2863.1	
800.2	4564.2	
800.37	4768.4	
800.55	3865.9	
800.72	3350.5	
800.9	5218.2	
801.07	5530.2	
801.25	4345.8	
801.42	3644.7	
801.6	5231.9	
801.77	4904.9	
801.95	3404.4	
802.12	3248.8	
802.29	4988.9	
802.47	4861.2	
802.64	3599	
802.82	2843.3	
802.99	4568.3	
803.17	5281	
803.34	3524.6	
803.52	3176.4	
803.69	5775.3	
803.87	4359.4	
804.04	3495.2	
804.21	3546.4	
804.39	5466.7	
804.56	4714.4	
804.74	3059	
804.91	3620.1	
805.09	4588.1	
805.26	4672.1	
805.44	3080.8	
805.61	3301.3	
805.78	5071.5	
805.96	5082.4	
806.13	3631.7	
806.31	3766.9	
806.48	4182	
806.66	4569	
806.83	3607.8	
807	3469.3	
807.18	4543.1	
807.35	4827.1	
807.53	3510.9	
807.7	2827.6	
807.87	5482.4	
808.05	4538.3	
808.22	3779.2	
808.4	2892.4	
808.57	4520.5	
808.74	4254.3	
808.92	3222.1	
809.09	4033.1	
809.27	4528.7	
809.44	4962.9	
809.61	2826.2	
809.79	3173	
809.96	5519.3	
810.14	5066	
810.31	2818	
810.48	3404.4	
810.66	4633.2	
810.83	5131.5	
811.01	3220.1	
811.18	3497.2	
811.35	5162.2	
811.53	4093.9	
811.7	3817.4	
811.87	3644.7	
812.05	4607.2	
812.22	4550.6	
812.39	3065.1	
812.57	3064.4	
812.74	4605.2	
812.92	5892	
813.09	3414.6	
813.26	3581.2	
813.44	5664.7	
813.61	4484.4	
813.78	2855.6	
813.96	3693.2	
814.13	4633.2	
814.3	4384.7	
814.48	3998.3	
814.65	3294.5	
814.82	5451	
815	4366.3	
815.17	3422.8	
815.34	4117.8	
815.52	4548.5	
815.69	4543.8	
815.87	3386	
816.04	3379.1	
816.21	4550.6	
816.38	4152.6	
816.56	3329.3	
816.73	3128.6	
816.9	5659.2	
817.08	5112.4	
817.25	3149.1	
817.42	3836.5	
817.6	4200.4	
817.77	4549.9	
817.94	3489.1	
818.12	3102	
818.29	4333.5	
818.46	6296.1	
818.64	3307.5	
818.81	3016	
818.98	4364.9	
819.16	5941.2	
819.33	3710.2	
819.5	3431.7	
819.67	4829.1	
819.85	5345.9	
820.02	3375.7	
820.19	3593.5	
820.37	4730.1	
820.54	4487.8	
820.71	3518.4	
820.88	4277.5	
821.06	4731.5	
821.23	4390.2	
821.4	3512.9	
821.58	3478.1	
821.75	5085.1	
821.92	4666	
822.09	2880.1	
822.27	3095.8	
822.44	4492.6	
822.61	4457.1	
822.79	2899.2	
822.96	5203.2	
823.13	4815.5	
823.3	4303.5	
823.48	3237.2	
823.65	2989.4	
823.82	5123.3	
823.99	4242	
824.17	4079.6	
824.34	3039.9	
824.51	5798.5	
824.68	4595.6	
824.86	3190.1	
825.03	3453.6	
825.2	4508.3	
825.37	5362.9	
825.55	3162.1	
825.72	3408.5	
825.89	5832.6	
826.06	5444.2	
826.24	3366.2	
826.41	3379.8	
826.58	5474.9	
826.75	4767.7	
826.92	2768.9	
827.1	2972.3	
827.27	7111.9	
827.44	5834	
827.61	3204.4	
827.79	3820.8	
827.96	4399.7	
828.13	4560.1	
828.3	3319.1	
828.47	2870.6	
828.65	4863.9	
828.82	4764.3	
828.99	4171.7	
829.16	3693.9	
829.34	5098.8	
829.51	4916.5	
829.68	3420.1	
829.85	3523.2	
830.02	5307.7	
830.2	5098.1	
830.37	2749.1	
830.54	4005.1	
830.71	5632.6	
830.88	4612	
831.05	2731.3	
831.23	3059	
831.4	5517.9	
831.57	5958.9	
831.74	3166.2	
831.91	2809.1	
832.09	4853.7	
832.26	5057.1	
832.43	3296.5	
832.6	3661.1	
832.77	4828.4	
832.94	5361.6	
833.12	2701.3	
833.29	3214.6	
833.46	4533.5	
833.63	6209.4	
833.8	3543	
833.97	3297.9	
834.15	5081	
834.32	4941.7	
834.49	3424.9	
834.66	3477.5	
834.83	5259.9	
835	4437.3	
835.17	3169.6	
835.35	3172.3	
835.52	5054.4	
835.69	4886.5	
835.86	3353.9	
836.03	2774.3	
836.2	5070.1	
836.37	4740.4	
836.55	3237.8	
836.72	3087.7	
836.89	4713.7	
837.06	5148.6	
837.23	3303.4	
837.4	3575.8	
837.57	5731.6	
837.75	6169.8	
837.92	3052.8	
838.09	3239.9	
838.26	4812.7	
838.43	5253.7	
838.6	3390.1	
838.77	3065.1	
838.94	5924.1	
839.11	5743.2	
839.29	3281.5	
839.46	2624.1	
839.63	5088.5	
839.8	4820.2	
839.97	3211.2	
840.14	3189.4	
840.31	4893.3	
840.48	5134.9	
840.65	2691	
840.82	3137.5	
841	5010	
841.17	4954	
841.34	2925.9	
841.51	3000.3	
841.68	4989.5	
841.85	4775.2	
842.02	3044.6	
842.19	2547	
842.36	4882.4	
842.53	4879.6	
842.7	2806.4	
842.87	3542.3	
843.05	6160.3	
843.22	4769	
843.39	2800.3	
843.56	3084.2	
843.73	4735.6	
843.9	5098.8	
844.07	4585.4	
844.24	3838.6	
844.41	6920.8	
844.58	4490.5	
844.75	2867.2	
844.92	3094.5	
845.09	5036.6	
845.26	5012.7	
845.43	2955.2	
845.6	3060.3	
845.77	5061.9	
845.94	4796.3	
846.12	3211.9	
846.29	3358	
846.46	5265.3	
846.63	5042.1	
846.8	2945.7	
846.97	3446	
847.14	5347.2	
847.31	4974.5	
847.48	3196.9	
847.65	3564.1	
847.82	5227.1	
847.99	5211.4	
848.16	3821.5	
848.33	3546.4	
848.5	4643.4	
848.67	5405.3	
848.84	2903.3	
849.01	3038.5	
849.18	4606.6	
849.35	4399	
849.52	3590.8	
849.69	2871.3	
849.86	5218.2	
850.03	5295.4	
850.2	2938.8	
850.37	3526.6	
850.54	5276.9	
850.71	4791.6	
850.88	3485.6	
851.05	2878.8	
851.22	4866.7	
851.39	5477	
851.56	2809.1	
851.73	3288.4	
851.9	4459.1	
852.07	5223.7	
852.24	3245.3	
852.41	2904.7	
852.58	4992.3	
852.75	4528.1	
852.92	3250.1	
853.09	2850.1	
853.26	4704.2	
853.43	5354.8	
853.6	2927.2	
853.77	2524.5	
853.94	5444.2	
854.11	4468.7	
854.28	4177.2	
854.44	3125.2	
854.61	5787.6	
854.78	5275.6	
854.95	2879.4	
855.12	3595.6	
855.29	4211.3	
855.46	5558.9	
855.63	2939.5	
855.8	3910.9	
855.97	4700.8	
856.14	5272.8	
856.31	4013.3	
856.48	3213.9	
856.65	4777.2	
856.82	4422.9	
856.99	2820.7	
857.16	3131.3	
857.33	5963	
857.49	4713.7	
857.66	3106.1	
857.83	3369.6	
858	4759.5	
858.17	4958.1	
858.34	2808.4	
858.51	2959.3	
858.68	5572.5	
858.85	5517.9	
859.02	3331.4	
859.19	3501.3	
859.36	4482.3	
859.52	4470	
859.69	2929.3	
859.86	3373	
860.03	4473.4	
860.2	5479.7	
860.37	2717.7	
860.54	2956.6	
860.71	5156.8	
860.88	5582.1	
861.05	3263.1	
861.21	3610.6	
861.38	5455.8	
861.55	4337.6	
861.72	2689.7	
861.89	3198.9	
862.06	5249.6	
862.23	5580.7	
862.4	2839.8	
862.56	3045.3	
862.73	5133.6	
862.9	4855.1	
863.07	3349.1	
863.24	2680.8	
863.41	4439.3	
863.58	4514.4	
863.75	2951.1	
863.91	3360	
864.08	5406.6	
864.25	5128.8	
864.42	3575.1	
864.59	4007.9	
864.76	5703.6	
864.93	4478.9	
865.09	2859.6	
865.26	3117	
865.43	5360.9	
865.6	5711.1	
865.77	2605.7	
865.94	2894.5	
866.1	5415.5	
866.27	5197.1	
866.44	4230.4	
866.61	2813.9	
866.78	4786.8	
866.95	5143.8	
867.11	2841.2	
867.28	2669.2	
867.45	5331.5	
867.62	4514.4	
867.79	3289.7	
867.96	2930.6	
868.12	4448.2	
868.29	5143.8	
868.46	2891	
868.63	3765.5	
868.8	5284.4	
868.97	5146.5	
869.13	3027.6	
869.3	3048.7	
869.47	5060.5	
869.64	5226.4	
869.81	2855.6	
869.97	2925.9	
870.14	5015.5	
870.31	5485.8	
870.48	2835.1	
870.65	3581.2	
870.81	4725.3	
870.98	4743.1	
871.15	3308.2	
871.32	3045.3	
871.48	5058.5	
871.65	5513.8	
871.82	2914.3	
871.99	3159.3	
872.16	5879.7	
872.32	5406	
872.49	2960.7	
872.66	2925.9	
872.83	5209.3	
872.99	4653	
873.16	3239.2	
873.33	2933.4	
873.5	4906.3	
873.67	4925.4	
873.83	3016	
874	3758.7	
874.17	5012.1	
874.34	5746.6	
874.5	3661.1	
874.67	3538.2	
874.84	5476.3	
875.01	4346.5	
875.17	3987.4	
875.34	2889	
875.51	4919.2	
875.68	5835.3	
875.84	3463.1	
876.01	4088.4	
876.18	5135.6	
876.34	5146.5	
876.51	2906.1	
876.68	2851.5	
876.85	4717.2	
877.01	5427.8	
877.18	4012	
877.35	2876	
877.52	4919.9	
877.68	4448.2	
877.85	2850.1	
878.02	2863.1	
878.18	4774.5	
878.35	4638.6	
878.52	2353.8	
878.69	3218	
878.85	5242.8	
879.02	5124	
879.19	4042.7	
879.35	3138.9	
879.52	5126.1	
879.69	5261.9	
879.86	2573.6	
880.02	3254.9	
880.19	4817.5	
880.36	5750	
880.52	3279.5	
880.69	3405.8	
880.86	5197.1	
881.02	5296	
881.19	3131.3	
881.36	3097.2	
881.52	5109.7	
881.69	4568.3	
881.86	3116.3	
882.02	3072.6	
882.19	5352.7	
882.36	6065.4	
882.52	2969.6	
882.69	3917.8	
882.86	5018.2	
883.02	4934.2	
883.19	3405.1	
883.36	3300	
883.52	5175.2	
883.69	5913.9	
883.86	2898.6	
884.02	2652.8	
884.19	5148.6	
884.36	4856.4	
884.52	3245.3	
884.69	3072	
884.86	4644.8	
885.02	5656.5	
885.19	3206.4	
885.36	3298.6	
885.52	4853	
885.69	5004.6	
885.86	4098.7	
886.02	3684.3	
886.19	5183.4	
886.35	4730.8	
886.52	3175	
886.69	4045.4	
886.85	4459.1	
887.02	5429.8	
887.19	5429.8	
887.35	5429.8	
887.52	5429.8	
887.68	5429.8	
887.85	5429.8	
888.02	5429.8	
888.18	5429.8	
888.35	5429.8	
888.51	5429.8	
888.68	5429.8	
888.85	5429.8	
889.01	5429.8	
889.18	5429.8	
889.35	5429.8	
889.51	5429.8	
889.68	5429.8	
889.84	5429.8	
890.01	5429.8	
890.17	5429.8	
890.34	5429.8	
890.51	5429.8	
890.67	5429.8	
890.84	5429.8	
891	5429.8	
891.17	5429.8	
891.34	5429.8	
891.5	5429.8	
891.67	5429.8	
891.83	5429.8	
892	5429.8	
892.16	5429.8	
892.33	5429.8	
892.5	5429.8	
892.66	5429.8	
892.83	5429.8	
892.99	5429.8	
893.16	5429.8	
893.32	5429.8	
893.49	5429.8	
893.65	5429.8	
893.82	5429.8	
893.99	5429.8	
894.15	5429.8	
894.32	5429.8	
894.48	5429.8	
894.65	5429.8	
894.81	5429.8	
894.98	5429.8	
895.14	5429.8	
895.31	5429.8	
895.47	5429.8	
895.64	5429.8	
895.81	5429.8	
895.97	5429.8	
896.14	5429.8	
896.3	5429.8	
896.47	5429.8	
896.63	5429.8	
896.8	5429.8	
896.96	5429.8	
897.13	5429.8	
897.29	5429.8	
897.46	5429.8	
897.62	5429.8	
897.79	5429.8	
897.95	5429.8	
898.12	5429.8	
898.28	5429.8	
898.45	5429.8	
898.61	5429.8	
898.78	5429.8	
898.94	5429.8	
899.11	5429.8	
899.27	5429.8	
899.44	5429.8	
899.6	5429.8	
899.77	5429.8	
899.93	5429.8	
900.1	5429.8	
900.26	5429.8	
900.43	5429.8	
900.59	5429.8	
900.76	5429.8	
900.92	5429.8	
901.09	5429.8	
901.25	5429.8	
901.42	5429.8	
901.58	5429.8	
901.75	5429.8	
901.91	5429.8	
902.07	5429.8	
902.24	5429.8	
902.4	5429.8	
902.57	5429.8	
902.73	5429.8	
902.9	5429.8	
903.06	5429.8	
903.23	5429.8	
903.39	5429.8	
903.56	5429.8	
903.72	5429.8	
903.88	5429.8	
904.05	5429.8	
904.21	5429.8	
904.38	5429.8	
904.54	5429.8	
904.71	5429.8	
904.87	5429.8	
905.03	5429.8	
905.2	5429.8	
905.36	5429.8	
905.53	5429.8	
905.69	5429.8	
905.86	5429.8	
906.02	5429.8	
906.18	5429.8	
906.35	5429.8	
906.51	5429.8	
906.68	5429.8	
906.84	5429.8	
907.01	5429.8	
907.17	5429.8	
907.33	5429.8	
907.5	5429.8	
907.66	5429.8	
907.83	5429.8	
907.99	5429.8	
908.15	5429.8	
908.32	5429.8	
908.48	5429.8	
908.65	5429.8	
908.81	5429.8	
908.97	5429.8	
909.14	5429.8	
909.3	5429.8	
909.47	5429.8	
909.63	5429.8	
909.79	5429.8	
909.96	5429.8	
910.12	5429.8	
910.28	5429.8	
910.45	5429.8	
910.61	5429.8	
910.78	5429.8	
910.94	5429.8	
911.1	5429.8	
911.27	5429.8	
911.43	5429.8	
911.59	5429.8	
911.76	5429.8	
911.92	5429.8	
912.08	5429.8	
912.25	5429.8	
912.41	5429.8	
912.57	5429.8	
912.74	5429.8	
912.9	5429.8	
913.07	5429.8	
913.23	5429.8	
913.39	5429.8	
913.56	5429.8	
913.72	5429.8	
913.88	5429.8	
914.05	5429.8	
914.21	5429.8	
914.37	5429.8	
914.54	5429.8	
914.7	5429.8	
914.86	5429.8	
915.03	5429.8	
915.19	5429.8	
