Wavelength	Intensities	
nm	a.u.	
179.22	1641.1	
179.44	1636.3	
179.65	1645.9	
179.86	1626.8	
180.08	1606.3	
180.29	3645.4	
180.51	2856.9	
180.72	4771.8	
180.94	5214.1	
181.15	2576.3	
181.37	2527.2	
181.58	4590.9	
181.79	4777.9	
182.01	2671.2	
182.22	2770.2	
182.44	4790.2	
182.65	4176.5	
182.87	3386.7	
183.08	3072	
183.29	4978.6	
183.51	4192.9	
183.72	2785.9	
183.94	3773	
184.15	4519.2	
184.37	4394.9	
184.58	2506	
184.79	3250.1	
185.01	4289.1	
185.22	4818.2	
185.44	3343	
185.65	2956.6	
185.86	4496.7	
186.08	4171.7	
186.29	2446	
186.51	2615.9	
186.72	4306.9	
186.94	4864.6	
187.15	2989.4	
187.36	3008.5	
187.58	5961	
187.79	4631.1	
188.01	3108.8	
188.22	4579.3	
188.43	5260.5	
188.65	4735.6	
188.86	2620	
189.08	3074	
189.29	4401.8	
189.5	4329.4	
189.72	2786.6	
189.93	2884.9	
190.15	4871.4	
190.36	5560.2	
190.57	3063.1	
190.79	2964.8	
191	4861.2	
191.22	4845.5	
191.43	3076.7	
191.64	2632.3	
191.86	5088.5	
192.07	4856.4	
192.29	2714.2	
192.5	2830.3	
192.71	4918.5	
192.93	4373.1	
193.14	2757.2	
193.35	2863.1	
193.57	4359.4	
193.78	4853.7	
194	2307.4	
194.21	2755.9	
194.42	4194.9	
194.64	4536.3	
194.85	3009.1	
195.07	3411.2	
195.28	4481.6	
195.49	4076.8	
195.71	3556.6	
195.92	2676.7	
196.13	4663.2	
196.35	4678.2	
196.56	3761.4	
196.78	3041.9	
196.99	5613.5	
197.2	5238.7	
197.42	3307.5	
197.63	3031.7	
197.84	4181.3	
198.06	4676.9	
198.27	2839.8	
198.48	3527.3	
198.7	4364.2	
198.91	4547.9	
199.13	3050.8	
199.34	3021.4	
199.55	4908.3	
199.77	3932.8	
199.98	2775	
200.19	3068.5	
200.41	4503.5	
200.62	4229.7	
200.83	3140.2	
201.05	3388.7	
201.26	5040.7	
201.47	4284.4	
201.69	2760.7	
201.9	2665.1	
202.11	4578.6	
202.33	5180	
202.54	2865.1	
202.76	3194.1	
202.97	4572.4	
203.18	4634.6	
203.4	3166.8	
203.61	3153.9	
203.82	4520.5	
204.04	4315.8	
204.25	3026.2	
204.46	3023.5	
204.68	4521.9	
204.89	4685.8	
205.1	2960.7	
205.32	2638.5	
205.53	4753.3	
205.74	4881.7	
205.96	2338.8	
206.17	3063.1	
206.38	4730.1	
206.6	4839.4	
206.81	3421.5	
207.02	2839.2	
207.24	4662.5	
207.45	4983.4	
207.66	2921.1	
207.88	2603	
208.09	4599.7	
208.3	4526	
208.52	2736.1	
208.73	2977.1	
208.94	4506.9	
209.15	4962.9	
209.37	2899.2	
209.58	2998.2	
209.79	4851.6	
210.01	4442.7	
210.22	2499.2	
210.43	2555.2	
210.65	4490.5	
210.86	4724	
211.07	2885.6	
211.29	2681.5	
211.5	4669.4	
211.71	4487.1	
211.93	2695.1	
212.14	2757.9	
212.35	4486.4	
212.56	4540.3	
212.78	3005.7	
212.99	2570.9	
213.2	5144.5	
213.42	4359.4	
213.63	2773.6	
213.84	2919.7	
214.06	4132.8	
214.27	4150.6	
214.48	2932.7	
214.69	3119.1	
214.91	4971.8	
215.12	4990.9	
215.33	3031	
215.55	3333.4	
215.76	5317.9	
215.97	4723.3	
216.18	2982.5	
216.4	2946.3	
216.61	4259.8	
216.82	4821.6	
217.04	2755.9	
217.25	2790.7	
217.46	4897.4	
217.67	4772.4	
217.89	2537.4	
218.1	2594.1	
218.31	4570.4	
218.53	4670.7	
218.74	2869.9	
218.95	2744.3	
219.16	4492.6	
219.38	5116.5	
219.59	2764.1	
219.8	3220.1	
220.01	5433.3	
220.23	4546.5	
220.44	3380.5	
220.65	2674	
220.87	4603.8	
221.08	4916.5	
221.29	2643.9	
221.5	3278.8	
221.72	5772.5	
221.93	4281.6	
222.14	2989.4	
222.35	3504.1	
222.57	4496.7	
222.78	4816.8	
222.99	2952.5	
223.2	3040.6	
223.42	4673.5	
223.63	4706.2	
223.84	2347.7	
224.05	2394.1	
224.27	5381.4	
224.48	5086.5	
224.69	3562.8	
224.9	3106.1	
225.12	4617.5	
225.33	4468	
225.54	2536.1	
225.75	2769.5	
225.97	4212	
226.18	4464.6	
226.39	2919.7	
226.6	2730.6	
226.82	4385.4	
227.03	4263.9	
227.24	3016.7	
227.45	2609.1	
227.67	4832.5	
227.88	5057.1	
228.09	3344.3	
228.3	3338.9	
228.52	4739.7	
228.73	4456.4	
228.94	2822.8	
229.15	2587.9	
229.36	4538.3	
229.58	4419.5	
229.79	2910.8	
230	3289	
230.21	5287.9	
230.43	4563.6	
230.64	3000.3	
230.85	3098.6	
231.06	4820.2	
231.28	4791.6	
231.49	2602.3	
231.7	2998.9	
231.91	4781.3	
232.12	4511	
232.34	2691.7	
232.55	2900.6	
232.76	4874.2	
232.97	4642.1	
233.18	2722.4	
233.4	2967.5	
233.61	4626.4	
233.82	4356	
234.03	2834.4	
234.25	2848.7	
234.46	5856.5	
234.67	4575.2	
234.88	3077.4	
235.09	2796.2	
235.31	4636.6	
235.52	4408.6	
235.73	2972.3	
235.94	2620.7	
236.15	4322.6	
236.37	5233.2	
236.58	2708.1	
236.79	2955.9	
237	4745.1	
237.21	4130.1	
237.43	3087	
237.64	2508.8	
237.85	7129.7	
238.06	4237.2	
238.27	3077.4	
238.48	2614.6	
238.7	4724	
238.91	4393.6	
239.12	2837.8	
239.33	3037.8	
239.54	4209.3	
239.76	4413.4	
239.97	2861	
240.18	2959.3	
240.39	5202.5	
240.6	4638.6	
240.82	3033.7	
241.03	2583.9	
241.24	4489.1	
241.45	5012.1	
241.66	2724.5	
241.87	3149.8	
242.09	5010	
242.3	5203.2	
242.51	3146.4	
242.72	2904.7	
242.93	4814.8	
243.14	4515.1	
243.36	3336.8	
243.57	3503.4	
243.78	5113.8	
243.99	4799.1	
244.2	2911.5	
244.41	2662.4	
244.63	4220.9	
244.84	4694.6	
245.05	3104.7	
245.26	2932.7	
245.47	4732.2	
245.68	4833.9	
245.9	3723.9	
246.11	3041.2	
246.32	4351.3	
246.53	4666	
246.74	4504.2	
246.95	2542.2	
247.16	4292.5	
247.38	4528.1	
247.59	2583.9	
247.8	2935.4	
248.01	4212.7	
248.22	4466.6	
248.43	2737.5	
248.64	2897.9	
248.86	4194.2	
249.07	4428.4	
249.28	2661	
249.49	3044.6	
249.7	4839.4	
249.91	4891.9	
250.12	2550.4	
250.34	2648	
250.55	4618.2	
250.76	4521.9	
250.97	3022.8	
251.18	3102	
251.39	4871.4	
251.6	4674.1	
251.81	3044	
252.03	3047.4	
252.24	4346.5	
252.45	4705.5	
252.66	2600.9	
252.87	3163.4	
253.08	4502.8	
253.29	5612.1	
253.5	2682.2	
253.72	3489.7	
253.93	4420.2	
254.14	5153.4	
254.35	2826.2	
254.56	2837.1	
254.77	4633.2	
254.98	4223.6	
255.19	2831.7	
255.41	3422.8	
255.62	4655	
255.83	4880.3	
256.04	3151.1	
256.25	3047.4	
256.46	5303.6	
256.67	4321.2	
256.88	3024.2	
257.09	3260.4	
257.31	4209.9	
257.52	4259.1	
257.73	3666.5	
257.94	2831	
258.15	4427.7	
258.36	4476.2	
258.57	3412.6	
258.78	2341.5	
258.99	4824.3	
259.2	4384.7	
259.41	2803.7	
259.63	2937.5	
259.84	5038.7	
260.05	5306.3	
260.26	3539.6	
260.47	2789.3	
260.68	4904.2	
260.89	4356	
261.1	3323.9	
261.31	2690.3	
261.52	4973.8	
261.73	5123.3	
261.95	3549.1	
262.16	3104.7	
262.37	4970.4	
262.58	5020.3	
262.79	3468.6	
263	2856.9	
263.21	4562.9	
263.42	4100.7	
263.63	3068.5	
263.84	2816.6	
264.05	4851	
264.26	4994.3	
264.47	3393.5	
264.69	3066.5	
264.9	5014.1	
265.11	4642.1	
265.32	2767.5	
265.53	2765.4	
265.74	4614.8	
265.95	4135.5	
266.16	2962	
266.37	3255.6	
266.58	4575.8	
266.79	4347.8	
267	2815.3	
267.21	2653.5	
267.42	4188.1	
267.63	4526.7	
267.84	2923.8	
268.06	2607.1	
268.27	4831.8	
268.48	4924	
268.69	2912.9	
268.9	3306.1	
269.11	4937	
269.32	4095.9	
269.53	2938.8	
269.74	2740.2	
269.95	4686.4	
270.16	4097.3	
270.37	2960.7	
270.58	3355.9	
270.79	4425.7	
271	4852.3	
271.21	3084.9	
271.42	3024.8	
271.63	4707.6	
271.84	4191.5	
272.05	2456.9	
272.26	2645.3	
272.47	4530.1	
272.68	4641.4	
272.89	2865.8	
273.11	3177.8	
273.32	4343.1	
273.53	5058.5	
273.74	3127.2	
273.95	3026.9	
274.16	4801.1	
274.37	4495.3	
274.58	3267.9	
274.79	2644.6	
275	4673.5	
275.21	4891.2	
275.42	3732.8	
275.63	3265.8	
275.84	4706.9	
276.05	5667.4	
276.26	3026.2	
276.47	2863.7	
276.68	4477.5	
276.89	5168.4	
277.1	3168.9	
277.31	2656.2	
277.52	4627.7	
277.73	4903.5	
277.94	2603.7	
278.15	2806.4	
278.36	4700.8	
278.57	4247.5	
278.78	2820.1	
278.99	3127.2	
279.2	4342.4	
279.41	4280.9	
279.62	3624.9	
279.83	2631.6	
280.04	5346.6	
280.25	4213.4	
280.46	3574.4	
280.67	2931.3	
280.88	4345.1	
281.09	4979.3	
281.3	3005.1	
281.51	3734.1	
281.72	4334.9	
281.93	4843.4	
282.14	2743.6	
282.35	2990.7	
282.56	4892.6	
282.77	4797	
282.98	2875.3	
283.19	3387.3	
283.4	5683.8	
283.61	4442	
283.82	2712.9	
284.03	3536.8	
284.24	4672.1	
284.45	4844.1	
284.66	3549.8	
284.87	3382.6	
285.08	4922.6	
285.29	4973.8	
285.5	2628.9	
285.71	2874.7	
285.92	4932.2	
286.12	5360.2	
286.33	3509.5	
286.54	2884.9	
286.75	4831.8	
286.96	4412.7	
287.17	2708.8	
287.38	3419.4	
287.59	4375.1	
287.8	4329.4	
288.01	2853.5	
288.22	3188	
288.43	4734.9	
288.64	4116.4	
288.85	3373	
289.06	3192.1	
289.27	4792.2	
289.48	5027.8	
289.69	3551.2	
289.9	3241.3	
290.11	4967	
290.32	4382	
290.53	3361.4	
290.74	3107.5	
290.94	4789.5	
291.15	4823.6	
291.36	2798.2	
291.57	3259	
291.78	4366.3	
291.99	4106.9	
292.2	2745	
292.41	3143.6	
292.62	4841.4	
292.83	4729.4	
293.04	3784.6	
293.25	2782.5	
293.46	4416.1	
293.67	4859.1	
293.88	2737.5	
294.09	2751.8	
294.29	4274.1	
294.5	4638	
294.71	2962.7	
294.92	2859	
295.13	4414.1	
295.34	5238.7	
295.55	2552.5	
295.76	2562	
295.97	4753.3	
296.18	5246.2	
296.39	2665.1	
296.6	2798.9	
296.81	4546.5	
297.01	4866	
297.22	2910.8	
297.43	2819.4	
297.64	4383.3	
297.85	4212	
298.06	2363.4	
298.27	2573.6	
298.48	4458.4	
298.69	4375.8	
298.9	3032.4	
299.11	2732	
299.31	4229.1	
299.52	4231.8	
299.73	3185.3	
299.94	3099.9	
300.15	4594.3	
300.36	4302.1	
300.57	3131.3	
300.78	3048.7	
300.99	4439.3	
301.2	4594.3	
301.4	2794.8	
301.61	2958.6	
301.82	4721.3	
302.03	4824.3	
302.24	3275.4	
302.45	2660.3	
302.66	4698.7	
302.87	4874.8	
303.08	2818.7	
303.29	3591.5	
303.49	4387.4	
303.7	4455.7	
303.91	2558.6	
304.12	3444.7	
304.33	4189.5	
304.54	4630.5	
304.75	2785.9	
304.96	2704	
305.16	4793.6	
305.37	5179.3	
305.58	2526.5	
305.79	2573.6	
306	4717.8	
306.21	4102.8	
306.42	2766.8	
306.63	3950.5	
306.83	4409.3	
307.04	4750.6	
307.25	3011.2	
307.46	2963.4	
307.67	4045.4	
307.88	4720.6	
308.09	2794.8	
308.29	2787.3	
308.5	4605.2	
308.71	4857.8	
308.92	2943.6	
309.13	2710.8	
309.34	4518.5	
309.55	4440.7	
309.75	3382.6	
309.96	3023.5	
310.17	4760.2	
310.38	4273.4	
310.59	3181.2	
310.8	2615.3	
311.01	4389.5	
311.21	4474.8	
311.42	2765.4	
311.63	2777.7	
311.84	4371	
312.05	4590.2	
312.26	3048.1	
312.46	3276.8	
312.67	4419.5	
312.88	4210.6	
313.09	2677.4	
313.3	2734	
313.51	5004.6	
313.71	5254.4	
313.92	2737.5	
314.13	2846	
314.34	4646.8	
314.55	4507.6	
314.76	3287.7	
314.96	2933.4	
315.17	4660.5	
315.38	4768.4	
315.59	2753.8	
315.8	2624.8	
316.01	5019.6	
316.21	5119.9	
316.42	2648.7	
316.63	2961.4	
316.84	4358.8	
317.05	4900.8	
317.26	3110.2	
317.46	2831.7	
317.67	4472.1	
317.88	4754	
318.09	3312.2	
318.3	2563.4	
318.5	4378.6	
318.71	4698	
318.92	4094.6	
319.13	3109.5	
319.34	4875.5	
319.54	4958.1	
319.75	2551.1	
319.96	2473.9	
320.17	4671.4	
320.38	4913.1	
320.58	2520.4	
320.79	2922.5	
321	4916.5	
321.21	4965.6	
321.42	2994.8	
321.62	2536.1	
321.83	4306.9	
322.04	4524.6	
322.25	2914.9	
322.46	2713.6	
322.66	4521.2	
322.87	4741.7	
323.08	3230.3	
323.29	2650.1	
323.5	5180.7	
323.7	4232.5	
323.91	3532.1	
324.12	3211.2	
324.33	4605.9	
324.53	4744.5	
324.74	3101.3	
324.95	3249.4	
325.16	4229.1	
325.37	4427.7	
325.57	2729.3	
325.78	2713.6	
325.99	4674.1	
326.2	4199.7	
326.4	3641.3	
326.61	2583.9	
326.82	4474.8	
327.03	4545.1	
327.24	3676.1	
327.44	3435.1	
327.65	4773.8	
327.86	3938.2	
328.07	3129.3	
328.27	2656.2	
328.48	4971.1	
328.69	4246.8	
328.9	3672	
329.1	2829.6	
329.31	4466.6	
329.52	5010.7	
329.73	2723.1	
329.93	2911.5	
330.14	4562.9	
330.35	4700.8	
330.56	4177.9	
330.76	3232.4	
330.97	4425	
331.18	4593.6	
331.39	2966.1	
331.59	2514.9	
331.8	4890.5	
332.01	4914.4	
332.22	2771.6	
332.42	3058.3	
332.63	4657.1	
332.84	4278.2	
333.05	3007.1	
333.25	2740.9	
333.46	4356	
333.67	4526.7	
333.88	2869.2	
334.08	3080.1	
334.29	5923.4	
334.5	4823.6	
334.7	2636.4	
334.91	3650.2	
335.12	4203.8	
335.33	4702.8	
335.53	3009.8	
335.74	4101.4	
335.95	4425	
336.16	4183.3	
336.36	2933.4	
336.57	3318.4	
336.78	4161.5	
336.98	4861.2	
337.19	3544.4	
337.4	2867.8	
337.61	5316.5	
337.81	4199	
338.02	2824.1	
338.23	3347.7	
338.43	5015.5	
338.64	4281.6	
338.85	2724.5	
339.05	3474.7	
339.26	5085.1	
339.47	4132.8	
339.68	2766.1	
339.88	3722.5	
340.09	4692.6	
340.3	4878.9	
340.5	3033.7	
340.71	2505.3	
340.92	4237.9	
341.13	4943.1	
341.33	2595.5	
341.54	3071.3	
341.75	4687.1	
341.95	4395.6	
342.16	3016	
342.37	3235.1	
342.57	4243.4	
342.78	4459.1	
342.99	3184.6	
343.19	2517.6	
343.4	4772.4	
343.61	4653	
343.81	2956.6	
344.02	2656.9	
344.23	4738.3	
344.43	4967.7	
344.64	3242.6	
344.85	3212.6	
345.06	4717.8	
345.26	4900.8	
345.47	3129.3	
345.68	3539.6	
345.88	4153.3	
346.09	4805.2	
346.3	3165.5	
346.5	2436.4	
346.71	4437.9	
346.92	4309.6	
347.12	2607.7	
347.33	3078.8	
347.54	4903.5	
347.74	5080.3	
347.95	3046	
348.16	2395.4	
348.36	4371	
348.57	4276.2	
348.78	3101.3	
348.98	3242.6	
349.19	4422.9	
349.39	4045.4	
349.6	2561.3	
349.81	2740.2	
350.01	4730.8	
350.22	4324.6	
350.43	2994.1	
350.63	3461.7	
350.84	4496	
351.05	4238.6	
351.25	2704.7	
351.46	2541.5	
351.67	4822.3	
351.87	4269.3	
352.08	2884.2	
352.29	3189.4	
352.49	4795.7	
352.7	4576.5	
352.9	2694.4	
353.11	3203.7	
353.32	5158.8	
353.52	4328.7	
353.73	2677.4	
353.94	3226.9	
354.14	4663.9	
354.35	4511	
354.55	2759.3	
354.76	2973.7	
354.97	4661.2	
355.17	4442	
355.38	2644.6	
355.59	3352.5	
355.79	4287.8	
356	4419.5	
356.2	2953.2	
356.41	2639.8	
356.62	4158.7	
356.82	4409.3	
357.03	3132	
357.24	2869.2	
357.44	4256.4	
357.65	4406.5	
357.85	3594.2	
358.06	3001	
358.27	4103.4	
358.47	4172.4	
358.68	2600.2	
358.88	3117	
359.09	4589.5	
359.3	4775.9	
359.5	3500.7	
359.71	3183.2	
359.91	5068	
360.12	4616.1	
360.33	3156.6	
360.53	3401.7	
360.74	4278.2	
360.94	4250.9	
361.15	3219.4	
361.36	2798.9	
361.56	4792.2	
361.77	4425.7	
361.97	3530	
362.18	2882.2	
362.38	4774.5	
362.59	4199.7	
362.8	2688.3	
363	2640.5	
363.21	3997	
363.41	4473.4	
363.62	3038.5	
363.83	3578.5	
364.03	4618.2	
364.24	4969.7	
364.44	3711.6	
364.65	3660.4	
364.85	4370.4	
365.06	4220.9	
365.27	2817.3	
365.47	2841.9	
365.68	4980.7	
365.88	4373.8	
366.09	3070.6	
366.29	2833.7	
366.5	4416.8	
366.71	4695.3	
366.91	3670.6	
367.12	3196.2	
367.32	5226.4	
367.53	4687.8	
367.73	3174.4	
367.94	3801.7	
368.14	4698.7	
368.35	5139	
368.56	3076	
368.76	2953.9	
368.97	4747.9	
369.17	5659.9	
369.38	2805.7	
369.58	2978.4	
369.79	4101.4	
369.99	4960.9	
370.2	3658.4	
370.4	3032.4	
370.61	4511.7	
370.82	5351.3	
371.02	2983.2	
371.23	2574.3	
371.43	4093.2	
371.64	4990.9	
371.84	3028.9	
372.05	3627.6	
372.25	5571.2	
372.46	4601.8	
372.66	2941.6	
372.87	2966.8	
373.07	4685.1	
373.28	5752.1	
373.48	3603.7	
373.69	3389.4	
373.9	4444.1	
374.1	4402.5	
374.31	3528	
374.51	3252.2	
374.72	4900.1	
374.92	4188.8	
375.13	3609.2	
375.33	3112.9	
375.54	4576.5	
375.74	4274.1	
375.95	3274	
376.15	3895.2	
376.36	4674.8	
376.56	4528.7	
376.77	3173	
376.97	3419.4	
377.18	5352.7	
377.38	4653.7	
377.59	3641.3	
377.79	2875.3	
378	4476.2	
378.2	4757.4	
378.41	2910.8	
378.61	2782.5	
378.82	4881	
379.02	4326	
379.23	2986.6	
379.43	3661.1	
379.64	4993.6	
379.84	4636.6	
380.05	2955.9	
380.25	2834.4	
380.46	4643.4	
380.66	4415.4	
380.87	3743.7	
381.07	3947.1	
381.28	5111	
381.48	4668.7	
381.69	2867.2	
381.89	2951.1	
382.1	4104.8	
382.3	4728.8	
382.51	3590.1	
382.71	4126	
382.91	4619.5	
383.12	5029.1	
383.32	3179.1	
383.53	3300	
383.73	4618.9	
383.94	4562.9	
384.14	3280.8	
384.35	2732	
384.55	4324.6	
384.76	4695.3	
384.96	3161.4	
385.17	3344.3	
385.37	4708.3	
385.58	4246.8	
385.78	3358.7	
385.98	2732	
386.19	4362.9	
386.39	4672.1	
386.6	3016.7	
386.8	3136.8	
387.01	4701.5	
387.21	4755.4	
387.42	3414.6	
387.62	3722.5	
387.83	4336.2	
388.03	4523.3	
388.23	3230.3	
388.44	3669.3	
388.64	4093.2	
388.85	4143.7	
389.05	3356.6	
389.26	3748.5	
389.46	5429.8	
389.67	4947.2	
389.87	3366.2	
390.07	3395.5	
390.28	4410.6	
390.48	4142.4	
390.69	2879.4	
390.89	3071.3	
391.1	4367	
391.3	4904.2	
391.5	3904.1	
391.71	4230.4	
391.91	4769	
392.12	5266.7	
392.32	3850.9	
392.53	3385.3	
392.73	4450.9	
392.93	4491.9	
393.14	3196.9	
393.34	3676.1	
393.55	4764.3	
393.75	4465.9	
393.95	3198.2	
394.16	3130.7	
394.36	4414.7	
394.57	4813.4	
394.77	2876	
394.98	3095.8	
395.18	4305.5	
395.38	4411.3	
395.59	3633.8	
395.79	3050.1	
396	4453	
396.2	4705.5	
396.4	3489.1	
396.61	3428.3	
396.81	4729.4	
397.02	4295.3	
397.22	3689.8	
397.42	3680.2	
397.63	4864.6	
397.83	4287.8	
398.04	2954.5	
398.24	3252.9	
398.44	4632.5	
398.65	4002.4	
398.85	2912.2	
399.05	2944.3	
399.26	4347.8	
399.46	5341.8	
399.67	3224.2	
399.87	2958.6	
400.07	4537.6	
400.28	4676.2	
400.48	3077.4	
400.69	3687.7	
400.89	4773.1	
401.09	5163.6	
401.3	2952.5	
401.5	3639.2	
401.7	5233.2	
401.91	5418.9	
402.11	3280.8	
402.32	3314.3	
402.52	4885.8	
402.72	4784.1	
402.93	3508.9	
403.13	2797.5	
403.33	5409.4	
403.54	4541.7	
403.74	3345	
403.94	3859.1	
404.15	4627	
404.35	5358.9	
404.56	3150.5	
404.76	4291.9	
404.96	4881	
405.17	4668.7	
405.37	3603.7	
405.57	3424.9	
405.78	4842.1	
405.98	4566.3	
406.18	3180.5	
406.39	3661.8	
406.59	4874.2	
406.79	4524.6	
407	3033	
407.2	3099.9	
407.4	5122	
407.61	5009.3	
407.81	3050.1	
408.01	4302.8	
408.22	4170.3	
408.42	5380	
408.62	3746.4	
408.83	3348.4	
409.03	4493.9	
409.23	4482.3	
409.44	3446.7	
409.64	3521.8	
409.84	5139	
410.05	5072.8	
410.25	3515	
410.45	3385.3	
410.66	4755.4	
410.86	6380.8	
411.06	3596.9	
411.27	3516.4	
411.47	6115.9	
411.67	4818.9	
411.88	3688.4	
412.08	3816	
412.28	5292	
412.49	5525.4	
412.69	3475.4	
412.89	3512.9	
413.09	5421	
413.3	5294	
413.5	3573.7	
413.7	3373.7	
413.91	4871.4	
414.11	5418.2	
414.31	3447.4	
414.52	3703.4	
414.72	5170.4	
414.92	5130.8	
415.12	3472	
415.33	3791.5	
415.53	5311.7	
415.73	5415.5	
415.94	4003.1	
416.14	3637.9	
416.34	4782	
416.55	4589.5	
416.75	4386.1	
416.95	4030.4	
417.15	5417.6	
417.36	5878.4	
417.56	4543.1	
417.76	3871.3	
417.97	5529.5	
418.17	5386.2	
418.37	3736.2	
418.57	3666.5	
418.78	5341.8	
418.98	5003.2	
419.18	4287.1	
419.38	4220.9	
419.59	5039.4	
419.79	4873.5	
419.99	3637.9	
420.2	3859.1	
420.4	5458.5	
420.6	5397.8	
420.8	3590.8	
421.01	3385.3	
421.21	5298.8	
421.41	5347.9	
421.61	3780.6	
421.82	3630.4	
422.02	5057.1	
422.22	5625.1	
422.42	4069.3	
422.63	3938.9	
422.83	5033.9	
423.03	5885.2	
423.23	3962.1	
423.44	3295.2	
423.64	5023.7	
423.84	4903.5	
424.04	3616	
424.25	3369.6	
424.45	5730.9	
424.65	5638.7	
424.85	3304.1	
425.06	3617.4	
425.26	5890.6	
425.46	5068	
425.66	3955.3	
425.87	3729.4	
426.07	5543.2	
426.27	5406	
426.47	3814.7	
426.67	3450.1	
426.88	5793	
427.08	5451	
427.28	4007.9	
427.48	3420.8	
427.69	4792.9	
427.89	5147.2	
428.09	3928	
428.29	3405.1	
428.5	5462.6	
428.7	5324	
428.9	3383.2	
429.1	3672.7	
429.3	5251	
429.51	5474.2	
429.71	3631	
429.91	4067.9	
430.11	5514.5	
430.31	5793.7	
430.52	3769.6	
430.72	3848.1	
430.92	5788.2	
431.12	5446.9	
431.32	3526.6	
431.53	3900.7	
431.73	4803.2	
431.93	5821	
432.13	3478.1	
432.33	3426.3	
432.54	5118.6	
432.74	5208	
432.94	3361.4	
433.14	4065.9	
433.34	5577.3	
433.55	5190.9	
433.75	4014	
433.95	5109.7	
434.15	5286.5	
434.35	5039.4	
434.56	3560.1	
434.76	3233.7	
434.96	5248.9	
435.16	5409.4	
435.36	3410.6	
435.56	4219.5	
435.77	5043.5	
435.97	5114.5	
436.17	4554	
436.37	4042	
436.57	5044.1	
436.78	4968.4	
436.98	4073.4	
437.18	4476.9	
437.38	5375.9	
437.58	5095.3	
437.78	4615.4	
437.99	3697.9	
438.19	5503.6	
438.39	5958.9	
438.59	3691.1	
438.79	3385.3	
438.99	5935	
439.2	5161.6	
439.4	3396.9	
439.6	3407.1	
439.8	5228.5	
440	5895.4	
440.2	4114.4	
440.4	4102.8	
440.61	5588.9	
440.81	5942.5	
441.01	3536.2	
441.21	4034.5	
441.41	5870.8	
441.61	5567.7	
441.81	4246.1	
442.02	4909	
442.22	6229.9	
442.42	5693.4	
442.62	3586.7	
442.82	3727.3	
443.02	5902.9	
443.22	5330.2	
443.43	3900.7	
443.63	3568.2	
443.83	5208	
444.03	5140.4	
444.23	4317.8	
444.43	4023.6	
444.63	5482.4	
444.83	6185.5	
445.04	3707.5	
445.24	4399	
445.44	5694.7	
445.64	5709.7	
445.84	4255.7	
446.04	4261.8	
446.24	5241.4	
446.44	5864	
446.65	3701.4	
446.85	3910.9	
447.05	5315.2	
447.25	5912.5	
447.45	4003.1	
447.65	3603.7	
447.85	5616.9	
448.05	5213.4	
448.25	4182	
448.46	4054.3	
448.66	5553.4	
448.86	5206.6	
449.06	3566.2	
449.26	4242.7	
449.46	5662	
449.66	5107	
449.86	3921.9	
450.06	3924.6	
450.26	5186.1	
450.47	5597.8	
450.67	4123.2	
450.87	4293.9	
451.07	5822.4	
451.27	5525.4	
451.47	3696.6	
451.67	4244.8	
451.87	5308.3	
452.07	6094.1	
452.27	3848.8	
452.47	3824.9	
452.67	5536.3	
452.88	5759.6	
453.08	3507.5	
453.28	4644.8	
453.48	6303	
453.68	5514.5	
453.88	3733.4	
454.08	3908.2	
454.28	5735	
454.48	5505.6	
454.68	4231.1	
454.88	4532.2	
455.08	5838.1	
455.28	5584.1	
455.48	3680.2	
455.68	4123.9	
455.89	6122.1	
456.09	5782.8	
456.29	3948.5	
456.49	3995.6	
456.69	6030.6	
456.89	5651	
457.09	4251.6	
457.29	4491.9	
457.49	5746.6	
457.69	5853.1	
457.89	4195.6	
458.09	3717.7	
458.29	5598.5	
458.49	6130.9	
458.69	4388.1	
458.89	4037.2	
459.09	6169.2	
459.29	6287.3	
459.49	4095.3	
459.69	4633.9	
459.9	5948	
460.1	5658.5	
460.3	4063.2	
460.5	3879.5	
460.7	5984.2	
460.9	5625.1	
461.1	3728.7	
461.3	4414.7	
461.5	6378.1	
461.7	6063.4	
461.9	4010.6	
462.1	4299.4	
462.3	5770.5	
462.5	6124.1	
462.7	4066.6	
462.9	4089.8	
463.1	6771.3	
463.3	6582.9	
463.5	4282.3	
463.7	4762.9	
463.9	5958.9	
464.1	6188.3	
464.3	4259.8	
464.5	4481	
464.7	6262.7	
464.9	6072.2	
465.1	5246.9	
465.3	4653	
465.5	6536.4	
465.7	6506.4	
465.9	4854.4	
466.1	4666	
466.3	6318.7	
466.5	6293.4	
466.7	5287.9	
466.9	4597.7	
467.1	6360.3	
467.3	6875	
467.5	5183.4	
467.7	4545.8	
467.9	7061.4	
468.1	7511.9	
468.3	5066.7	
468.5	5238	
468.7	6268.8	
468.9	6134.3	
469.1	4769.7	
469.3	5213.4	
469.5	7527	
469.7	5948	
469.9	5140.4	
470.1	4560.8	
470.3	6382.8	
470.5	6322.1	
470.7	5453.1	
470.9	4620.9	
471.1	6098.9	
471.3	6463.4	
471.5	4549.2	
471.69	5803.3	
471.89	6133	
472.09	5784.1	
472.29	5015.5	
472.49	5289.2	
472.69	5933.6	
472.89	6374	
473.09	4523.3	
473.29	4691.2	
473.49	6090	
473.69	6032	
473.89	5190.2	
474.09	4691.2	
474.29	6991.1	
474.49	6657.9	
474.69	5176.6	
474.89	4838	
475.09	6185.5	
475.29	6071.5	
475.49	4456.4	
475.69	4595.6	
475.88	7133.1	
476.08	6471.6	
476.28	4358.8	
476.48	4627.7	
476.68	6782.2	
476.88	6532.3	
477.08	4615.4	
477.28	4845.5	
477.48	6328.2	
477.68	6647	
477.88	4437.9	
478.08	4683	
478.28	6857.3	
478.48	6290.7	
478.67	4666.6	
478.87	4349.2	
479.07	6717.3	
479.27	6375.3	
479.47	4865.3	
479.67	4922	
479.87	6622.4	
480.07	6936.5	
480.27	4463.2	
480.47	5389.6	
480.67	6289.3	
480.87	6798.6	
481.06	4621.6	
481.26	5195	
481.46	6412.9	
481.66	6366.5	
481.86	4947.9	
482.06	5575.3	
482.26	6149.4	
482.46	6792.4	
482.66	4813.4	
482.86	4541	
483.05	6525.5	
483.25	6001.2	
483.45	6442.9	
483.65	4885.8	
483.85	6042.9	
484.05	6299.6	
484.25	5133.6	
484.45	5402.5	
484.65	6802.7	
484.84	6885.3	
485.04	4747.9	
485.24	4879.6	
485.44	7134.4	
485.64	6004	
485.84	4429.8	
486.04	5291.3	
486.24	6299.6	
486.44	6537.8	
486.63	4405.2	
486.83	4944.5	
487.03	6267.5	
487.23	6321.4	
487.43	4455.7	
487.63	5933.6	
487.83	6412.9	
488.02	6931.7	
488.22	5019.6	
488.42	5416.9	
488.62	7016.3	
488.82	6188.3	
489.02	4930.1	
489.22	4894.6	
489.41	6905.8	
489.61	6696.2	
489.81	4690.5	
490.01	4679.6	
490.21	6860	
490.41	7337.2	
490.61	4708.3	
490.8	4783.4	
491	6605.4	
491.2	6109.8	
491.4	5315.8	
491.6	4665.3	
491.8	6647	
491.99	6548.7	
492.19	4599.1	
492.39	4726	
492.59	6885.3	
492.79	6853.9	
492.99	5211.4	
493.18	4647.5	
493.38	6983.6	
493.58	7381.6	
493.78	5128.8	
493.98	4896	
494.18	6691.4	
494.37	6332.3	
494.57	5355.4	
494.77	5240.1	
494.97	6907.1	
495.17	7086.7	
495.37	5035.3	
495.56	5232.6	
495.76	7201.3	
495.96	6967.9	
496.16	5788.2	
496.36	5226.4	
496.55	7167.2	
496.75	6827.2	
496.95	5367	
497.15	5380.7	
497.35	7124.2	
497.54	7093.5	
497.74	5253.7	
497.94	6406.7	
498.14	7620.5	
498.34	7440.3	
498.53	5008	
498.73	5475.6	
498.93	6644.3	
499.13	7066.9	
499.33	5423	
499.52	5601.9	
499.72	7206.8	
499.92	7193.8	
500.12	5165	
500.32	5337.7	
500.51	7340.6	
500.71	7057.3	
500.91	5857.9	
501.11	5664	
501.31	7258.7	
501.5	7538.6	
501.7	6207.4	
501.9	5416.9	
502.1	7087.3	
502.29	7417.1	
502.49	5681.7	
502.69	5992.4	
502.89	7346.7	
503.09	7278.5	
503.28	5109	
503.48	5293.3	
503.68	6938.5	
503.88	6830	
504.07	5734.3	
504.27	5487.2	
504.47	7055.9	
504.67	7158.3	
504.86	5831.9	
505.06	5563.6	
505.26	6991.8	
505.46	7951.6	
505.65	5507.7	
505.85	5662	
506.05	6941.2	
506.25	7299.6	
506.44	5110.4	
506.64	5669.5	
506.84	6750.8	
507.04	7271	
507.23	5210.7	
507.43	5544.5	
507.63	7975.5	
507.83	6784.9	
508.02	5635.3	
508.22	5330.2	
508.42	8175.5	
508.62	6716.7	
508.81	5442.1	
509.01	5852.4	
509.21	6720.8	
509.4	6907.8	
509.6	5651	
509.8	5181.4	
510	6825.9	
510.19	7664.2	
510.39	5143.8	
510.59	5259.9	
510.79	6795.2	
510.98	7696.3	
511.18	5307	
511.38	5370.5	
511.57	7374.1	
511.77	7117.4	
511.97	5788.9	
512.17	5175.9	
512.36	7302.4	
512.56	7136.5	
512.76	5273.5	
512.95	5075.5	
513.15	7467.6	
513.35	6466.1	
513.55	5751.4	
513.74	5162.9	
513.94	7307.2	
514.14	6929.6	
514.33	5880.4	
514.53	5603.2	
514.73	6978.8	
514.92	6950.8	
515.12	5225.7	
515.32	5245.5	
515.51	7136.5	
515.71	7282.6	
515.91	6311.8	
516.11	5244.2	
516.3	8154.3	
516.5	6815	
516.7	5638.7	
516.89	5976.7	
517.09	6951.5	
517.29	6894.8	
517.48	5870.8	
517.68	5448.3	
517.88	6647	
518.07	7171.3	
518.27	5808.7	
518.47	5213.4	
518.66	7528.3	
518.86	6670.2	
519.06	5098.1	
519.25	5299.5	
519.45	6886	
519.65	7716.1	
519.84	5788.2	
520.04	6118	
520.24	7985	
520.43	7223.9	
520.63	5663.3	
520.83	5477.6	
521.02	6901.7	
521.22	7260	
521.42	5741.8	
521.61	6059.9	
521.81	6953.5	
522.01	7139.2	
522.2	5564.3	
522.4	5494	
522.6	7371.3	
522.79	6477.7	
522.99	5478.3	
523.18	5062.6	
523.38	7193.8	
523.58	7125.6	
523.77	6266.1	
523.97	5053.7	
524.17	8292.2	
524.36	7855.3	
524.56	5967.8	
524.76	5746.6	
524.95	7129.7	
525.15	7049.1	
525.34	5661.3	
525.54	5676.3	
525.74	7527.7	
525.93	6810.2	
526.13	6505	
526.33	5672.9	
526.52	7730.4	
526.72	7316.7	
526.91	6504.3	
527.11	5941.2	
527.31	7591.8	
527.5	8008.9	
527.7	5978.7	
527.89	5373.9	
528.09	7101	
528.29	7362.4	
528.48	6141.2	
528.68	5840.8	
528.87	7707.2	
529.07	7709.9	
529.27	5954.8	
529.46	5728.2	
529.66	7494.2	
529.85	7803.4	
530.05	5641.5	
530.25	6217.6	
530.44	8341.4	
530.64	7476.5	
530.83	5864	
531.03	6054.5	
531.23	7920.2	
531.42	7562.5	
531.62	6432.7	
531.81	5900.9	
532.01	7776.8	
532.21	7954.3	
532.4	5750.7	
532.6	6021.7	
532.79	8464.3	
532.99	7781.6	
533.18	6110.5	
533.38	6647	
533.58	7656	
533.77	8153	
533.97	6142.5	
534.16	6578.8	
534.36	8258.8	
534.55	7580.9	
534.75	6688	
534.95	6129.6	
535.14	8207.6	
535.34	7552.2	
535.53	5995.8	
535.73	7200.7	
535.92	8597.4	
536.12	7656	
536.31	6085.2	
536.51	6844.3	
536.71	7948.2	
536.9	7607.5	
537.1	6180.1	
537.29	6195.8	
537.49	8283.4	
537.68	7644.4	
537.88	6524.1	
538.07	5861.3	
538.27	7729	
538.46	8478.6	
538.66	5877.7	
538.86	6142.5	
539.05	7901.7	
539.25	8009.6	
539.44	6440.2	
539.64	6160.3	
539.83	7767.3	
540.03	8294.3	
540.22	5990.3	
540.42	6163	
540.61	7955	
540.81	8032.1	
541	6417.7	
541.2	6817	
541.39	7562.5	
541.59	7752.9	
541.78	6666.8	
541.98	5983.5	
542.18	7384.3	
542.37	7322.2	
542.57	6283.2	
542.76	6537.1	
542.96	7479.2	
543.15	7839.6	
543.35	6327.5	
543.54	5904.3	
543.74	7847.8	
543.93	7762.5	
544.13	6286.6	
544.32	6997.9	
544.52	8009.6	
544.71	7514	
544.91	5678.3	
545.1	6380.8	
545.3	7502.4	
545.49	7793.9	
545.69	5750	
545.88	6111.1	
546.08	8581	
546.27	8152.3	
546.47	6270.2	
546.66	5922	
546.86	8077.9	
547.05	8389.2	
547.24	5983.5	
547.44	5924.1	
547.63	7438.9	
547.83	7982.3	
548.02	6173.3	
548.22	6347.3	
548.41	7231.4	
548.61	8131.8	
548.8	5939.1	
549	5961.6	
549.19	7749.5	
549.39	7932.5	
549.58	5763.7	
549.78	6078.4	
549.97	7945.4	
550.17	7570.7	
550.36	6637.5	
550.55	7247.8	
550.75	7604.1	
550.94	8180.3	
551.14	5882.4	
551.33	6029.2	
551.53	7154.2	
551.72	7774.1	
551.92	6070.9	
552.11	5976.7	
552.31	7882.6	
552.5	7763.8	
552.69	7006.1	
552.89	5732.3	
553.08	7857.4	
553.28	7634.8	
553.47	5903.6	
553.67	6645	
553.86	8198.7	
554.06	7009.5	
554.25	5489.2	
554.44	5788.9	
554.64	8705.9	
554.83	8374.1	
555.03	5791.7	
555.22	6063.4	
555.42	7907.9	
555.61	7745.4	
555.8	5868.8	
556	6005.3	
556.19	7162.4	
556.39	7794.6	
556.58	5896.1	
556.78	5939.8	
556.97	7675.8	
557.16	7431.4	
557.36	6724.8	
557.55	5720.7	
557.75	7004.7	
557.94	8168.7	
558.13	5803.9	
558.33	5696.1	
558.52	7950.2	
558.72	7221.8	
558.91	5693.4	
559.1	5823.1	
559.3	7064.1	
559.49	6909.2	
559.69	5605.3	
559.88	6034	
560.07	7612.3	
560.27	7879.2	
560.46	6085.2	
560.66	6193.1	
560.85	7479.9	
561.04	6917.4	
561.24	5614.8	
561.43	5711.8	
561.63	7087.3	
561.82	7319.4	
562.01	6464.8	
562.21	5968.5	
562.4	7581.6	
562.59	8115.4	
562.79	5898.8	
562.98	5616.2	
563.18	7567.2	
563.37	8440.4	
563.56	6131.6	
563.76	5625.8	
563.95	7187	
564.14	7174	
564.34	5924.1	
564.53	5732.3	
564.73	7547.4	
564.92	7673.1	
565.11	5957.5	
565.31	5616.9	
565.5	7929.7	
565.69	7177.4	
565.89	5761.6	
566.08	5943.2	
566.27	7758.4	
566.47	8048.5	
566.66	6371.2	
566.85	5530.9	
567.05	7616.4	
567.24	7290.1	
567.44	5717.9	
567.63	6599.2	
567.82	7787.1	
568.02	7522.9	
568.21	5748	
568.4	5993	
568.6	7544.7	
568.79	7349.5	
568.98	5634	
569.18	5657.2	
569.37	7548.8	
569.56	8783.1	
569.76	5969.8	
569.95	6636.8	
570.14	7762.5	
570.34	7621.9	
570.53	5724.1	
570.72	5640.8	
570.91	8099.7	
571.11	7444.4	
571.3	6062	
571.49	6608.8	
571.69	7572.7	
571.88	7179.5	
572.07	6233.3	
572.27	6341.2	
572.46	7181.5	
572.65	7803.4	
572.85	5890.6	
573.04	6059.9	
573.23	8129.8	
573.43	7610.9	
573.62	5702.2	
573.81	6092.7	
574	7701	
574.2	7412.3	
574.39	5953.4	
574.58	6046.3	
574.78	8079.9	
574.97	7601.4	
575.16	6266.1	
575.36	6343.2	
575.55	8040.3	
575.74	8006.9	
575.93	5715.2	
576.13	6507.8	
576.32	7552.2	
576.51	8011	
576.71	6135.7	
576.9	6895.5	
577.09	8214.4	
577.28	7828	
577.48	6304.3	
577.67	5696.8	
577.86	7619.1	
578.05	7821.2	
578.25	6066.1	
578.44	6176.7	
578.63	7599.3	
578.83	8482	
579.02	5796.4	
579.21	6770.6	
579.4	7844.4	
579.6	7630	
579.79	6298.9	
579.98	7694.2	
580.17	8028	
580.37	8190.5	
580.56	5801.9	
580.75	6362.4	
580.94	8292.9	
581.14	8344.8	
581.33	6726.2	
581.52	6002.6	
581.71	7956.4	
581.91	8377.6	
582.1	5859.2	
582.29	6193.7	
582.48	7742	
582.68	7763.2	
582.87	6476.4	
583.06	6278.4	
583.25	8048.5	
583.45	7830.7	
583.64	6729.6	
583.83	7081.2	
584.02	7755	
584.21	8040.3	
584.41	6647.7	
584.6	6244.9	
584.79	7824.6	
584.98	8201.4	
585.18	5905.7	
585.37	5900.9	
585.56	7625.3	
585.75	7987.8	
585.94	6060.6	
586.14	6518.7	
586.33	8461.5	
586.52	7699	
586.71	6445	
586.91	6166.4	
587.1	7372.7	
587.29	8102.4	
587.48	6085.9	
587.67	6092	
587.87	8034.2	
588.06	7875.1	
588.25	6898.9	
588.44	6535.8	
588.63	7767.9	
588.83	8101.8	
589.02	6109.8	
589.21	5998.5	
589.4	7720.8	
589.59	7598	
589.78	5615.5	
589.98	5739.8	
590.17	7300.3	
590.36	7592.5	
590.55	5328.8	
590.74	5803.9	
590.94	8270.4	
591.13	7333.1	
591.32	5710.4	
591.51	5302.2	
591.7	7604.1	
591.89	7355.6	
592.09	5345.9	
592.28	5669.5	
592.47	6793.1	
592.66	8121.6	
592.85	5528.2	
593.05	5511.1	
593.24	7288.7	
593.43	7909.9	
593.62	5653.8	
593.81	5866.1	
594	7440.3	
594.19	7403.4	
594.39	5584.8	
594.58	5510.4	
594.77	7611.6	
594.96	7849.2	
595.15	5556.8	
595.34	5905	
595.54	7418.4	
595.73	6931.7	
595.92	5174.5	
596.11	5786.2	
596.3	7823.9	
596.49	7064.1	
596.68	5659.2	
596.88	5866.7	
597.07	7593.2	
597.26	6843.6	
597.45	5381.4	
597.64	6085.9	
597.83	7139.2	
598.02	7411.6	
598.22	5406	
598.41	5890.6	
598.6	7402	
598.79	6951.5	
598.98	5425.8	
599.17	5986.2	
599.36	7426.6	
599.55	7980.3	
599.74	6722.1	
599.94	6567.8	
600.13	7673.7	
600.32	6872.3	
600.51	5342.5	
600.7	5322	
600.89	7938.6	
601.08	8078.6	
601.27	5220.3	
601.47	5754.1	
601.66	7545.4	
601.85	7843	
602.04	5637.4	
602.23	5807.4	
602.42	6965.8	
602.61	7381.6	
602.8	5565	
602.99	5426.4	
603.18	7200	
603.37	7307.2	
603.57	5815.5	
603.76	6221.7	
603.95	7893.6	
604.14	7475.8	
604.33	5477	
604.52	5589.6	
604.71	7321.5	
604.9	7004.1	
605.09	6031.3	
605.28	5900.2	
605.47	7811.6	
605.66	7440.3	
605.86	5892	
606.05	5472.9	
606.24	7822.6	
606.43	6729.6	
606.62	5756.8	
606.81	6056.5	
607	7613.7	
607.19	7154.9	
607.38	5283.8	
607.57	5400.5	
607.76	7004.1	
607.95	6576.7	
608.14	5764.3	
608.33	6122.7	
608.52	7007.5	
608.72	7613.7	
608.91	5260.5	
609.1	5284.4	
609.29	7103.7	
609.48	6701	
609.67	5890.6	
609.86	5226.4	
610.05	6845.7	
610.24	7003.4	
610.43	5167.7	
610.62	4883	
610.81	7767.9	
611	7651.2	
611.19	5244.8	
611.38	5754.8	
611.57	7244.3	
611.76	7963.9	
611.95	5117.9	
612.14	5010	
612.33	7028.6	
612.52	6778.8	
612.71	5375.2	
612.9	4952	
613.09	6532.3	
613.28	8039	
613.47	5361.6	
613.66	5879.7	
613.85	7122.8	
614.04	6782.9	
614.24	5341.8	
614.43	4835.9	
614.62	7268.2	
614.81	7135.1	
615	5637.4	
615.19	5632.6	
615.38	6774	
615.57	6983.6	
615.76	5594.4	
615.95	6180.1	
616.14	7333.1	
616.33	7045.7	
616.52	5804.6	
616.71	5862	
616.9	7167.9	
617.09	7105.8	
617.28	5414.8	
617.47	6126.8	
617.66	6697.5	
617.85	6655.2	
618.04	5926.8	
618.22	5613.5	
618.41	6853.2	
618.6	7530.4	
618.79	5499.5	
618.98	5322.7	
619.17	7623.2	
619.36	6550.1	
619.55	5468.8	
619.74	5521.3	
619.93	7195.2	
620.12	6834.8	
620.31	5828.5	
620.5	5970.5	
620.69	7601.4	
620.88	7871	
621.07	6382.2	
621.26	5821.7	
621.45	7359	
621.64	7339.2	
621.83	5939.1	
622.02	5362.3	
622.21	7403.4	
622.4	7262.8	
622.59	6211.5	
622.78	6094.1	
622.97	7008.1	
623.16	7630	
623.35	5904.3	
623.54	5227.1	
623.72	7012.9	
623.91	7161.1	
624.1	6104.3	
624.29	5248.9	
624.48	8017.1	
624.67	7474.4	
624.86	5969.8	
625.05	5357.5	
625.24	8010.3	
625.43	6994.5	
625.62	7053.2	
625.81	5466	
626	7547.4	
626.19	7105.8	
626.38	5960.3	
626.56	5714.5	
626.75	7019.8	
626.94	7550.2	
627.13	6072.2	
627.32	5204.6	
627.51	7544	
627.7	8210.3	
627.89	5367.7	
628.08	6095.4	
628.27	6873.7	
628.46	7150.8	
628.65	5412.8	
628.83	5159.5	
629.02	7460.8	
629.21	6898.2	
629.4	5644.2	
629.59	5770.5	
629.78	6877.8	
629.97	7508.5	
630.16	5950.7	
630.35	5536.3	
630.54	7889.5	
630.72	7629.4	
630.91	5634.6	
631.1	5915.2	
631.29	7355.6	
631.48	7269.6	
631.67	5975.3	
631.86	5549.3	
632.05	7197.9	
632.24	7079.8	
632.42	5377.3	
632.61	5816.9	
632.8	7107.8	
632.99	6804.7	
633.18	5802.6	
633.37	5978.7	
633.56	7373.4	
633.75	7245.7	
633.93	5860.6	
634.12	5605.3	
634.31	7879.9	
634.5	7550.9	
634.69	5625.8	
634.88	5900.9	
635.07	7155.6	
635.25	7602.1	
635.44	6287.3	
635.63	6311.2	
635.82	7133.8	
636.01	6647.7	
636.2	6171.9	
636.39	5818.3	
636.57	7840.3	
636.76	7442.3	
636.95	5487.2	
637.14	6317.3	
637.33	7379.5	
637.52	7899.7	
637.7	5403.9	
637.89	6044.9	
638.08	7112.6	
638.27	8020.5	
638.46	6130.9	
638.65	6270.2	
638.83	8000.7	
639.02	7010.2	
639.21	6013.5	
639.4	6281.8	
639.59	7294.9	
639.78	7042.3	
639.96	5454.4	
640.15	5515.9	
640.34	7225.2	
640.53	7277.1	
640.72	5362.9	
640.91	5571.2	
641.09	6780.8	
641.28	7690.8	
641.47	5532.9	
641.66	5995.1	
641.85	7225.9	
642.03	7359.7	
642.22	5825.1	
642.41	5546.6	
642.6	6866.2	
642.79	6490.7	
642.97	5389.6	
643.16	5824.4	
643.35	6890.7	
643.54	6711.2	
643.73	5332.2	
643.91	5760.9	
644.1	6657.9	
644.29	7091.4	
644.48	5379.3	
644.67	5382.1	
644.85	6685.3	
645.04	7033.4	
645.23	5218.2	
645.42	5395	
645.6	6727.6	
645.79	7404.1	
645.98	5313.8	
646.17	4717.2	
646.36	6503.7	
646.54	6839.5	
646.73	5817.6	
646.92	5081.7	
647.11	6580.1	
647.29	7220.5	
647.48	5098.1	
647.67	4924	
647.86	7404.1	
648.05	7359.7	
648.23	5240.1	
648.42	6085.2	
648.61	7030	
648.8	6793.8	
648.98	5006.6	
649.17	5154.7	
649.36	6503	
649.55	6189.6	
649.73	5083.1	
649.92	5560.2	
650.11	6457.2	
650.3	6657.9	
650.48	5147.9	
650.67	5055.1	
650.86	6859.3	
651.05	6135	
651.23	5118.6	
651.42	4991.6	
651.61	6519.4	
651.79	6485.2	
651.98	5223.7	
652.17	4937.7	
652.36	6793.1	
652.54	6150.1	
652.73	4982	
652.92	4943.8	
653.11	6827.9	
653.29	6864.1	
653.48	4564.9	
653.67	5190.2	
653.85	6615.6	
654.04	7302.4	
654.23	5373.9	
654.42	5043.5	
654.6	6365.8	
654.79	6739.9	
654.98	4681.7	
655.16	5029.8	
655.35	6075.6	
655.54	5917.9	
655.73	4614.1	
655.91	4559.5	
656.1	6683.2	
656.29	5798.5	
656.47	4228.4	
656.66	5419.6	
656.85	6150.7	
657.03	6034.7	
657.22	4676.2	
657.41	4765.6	
657.59	6178	
657.78	6075	
657.97	4523.3	
658.16	4956.8	
658.34	6651.1	
658.53	6954.2	
658.72	5584.8	
658.9	5894.7	
659.09	6378.1	
659.28	6315.9	
659.46	4794.3	
659.65	4734.9	
659.84	6117.3	
660.02	6591.7	
660.21	4858.5	
660.4	4629.8	
660.58	6763.8	
660.77	6326.2	
660.96	5069.4	
661.14	4474.1	
661.33	7118.7	
661.52	7034.8	
661.7	4474.1	
661.89	6744	
662.08	6130.3	
662.26	5691.3	
662.45	4614.1	
662.64	4697.4	
662.82	6663.4	
663.01	5993.7	
663.2	4690.5	
663.38	5182.7	
663.57	6540.5	
663.75	6436.1	
663.94	4943.8	
664.13	5683.8	
664.31	6096.1	
664.5	6561.7	
664.69	5051	
664.87	5441.5	
665.06	5932.3	
665.25	6364.4	
665.43	5591	
665.62	5542.5	
665.8	6542.6	
665.99	6157.6	
666.18	4995	
666.36	4966.3	
666.55	6555.5	
666.74	6475	
666.92	4676.2	
667.11	5761.6	
667.29	6228.6	
667.48	6519.4	
667.67	5425.1	
667.85	4769	
668.04	6130.9	
668.22	6105	
668.41	4937	
668.6	5088.5	
668.78	5950.7	
668.97	6171.9	
669.15	5167	
669.34	4440	
669.53	6005.3	
669.71	6189	
669.9	4614.1	
670.08	4886.5	
670.27	5955.5	
670.46	6446.3	
670.64	5142.4	
670.83	5309	
671.01	5836.7	
671.2	6195.8	
671.38	4700.1	
671.57	4554.7	
671.76	6756.9	
671.94	6995.9	
672.13	4502.8	
672.31	5170.4	
672.5	6550.8	
672.69	5975.3	
672.87	4655	
673.06	4810	
673.24	6414.2	
673.43	6097.5	
673.61	5131.5	
673.8	4770.4	
673.98	6390.3	
674.17	6501.6	
674.36	5234.6	
674.54	5077.6	
674.73	6195.1	
674.91	6490	
675.1	4855.1	
675.28	4630.5	
675.47	6130.9	
675.65	6461.3	
675.84	4851.6	
676.03	4955.4	
676.21	6062	
676.4	5659.9	
676.58	5330.2	
676.77	5205.9	
676.95	7046.4	
677.14	6024.4	
677.32	4557.4	
677.51	4465.9	
677.69	6593.8	
677.88	5821.7	
678.06	4499.4	
678.25	4612.7	
678.44	6166.4	
678.62	5919.3	
678.81	4467.3	
678.99	5053.7	
679.18	6668.2	
679.36	6420.4	
679.55	4745.8	
679.73	5136.3	
679.92	6353.5	
680.1	6023.8	
680.29	5593	
680.47	4782	
680.66	6041.5	
680.84	6495.5	
681.03	4408.6	
681.21	5042.8	
681.4	5963	
681.58	5899.5	
681.77	4666.6	
681.95	4576.5	
682.14	6543.9	
682.32	6769.9	
682.51	5203.9	
682.69	4438.6	
682.88	5933.6	
683.06	6285.2	
683.25	4963.6	
683.43	5236.7	
683.62	6187.6	
683.8	6343.2	
683.99	5353.4	
684.17	4879.6	
684.36	6946.7	
684.54	6085.2	
684.73	4397	
684.91	4528.1	
685.1	6266.8	
685.28	5837.4	
685.46	4858.5	
685.65	4861.2	
685.83	6300.9	
686.02	5956.2	
686.2	4499.4	
686.39	4498.7	
686.57	5739.8	
686.76	6629.3	
686.94	4466.6	
687.13	4514.4	
687.31	6147.3	
687.5	5959.6	
687.68	4242	
687.86	4883.7	
688.05	7050.5	
688.23	5489.2	
688.42	5031.9	
688.6	4554.7	
688.79	5863.3	
688.97	5898.2	
689.16	4777.2	
689.34	4100	
689.52	6286.6	
689.71	6489.3	
689.89	4997	
690.08	4530.1	
690.26	6137.1	
690.45	5940.5	
690.63	5107	
690.81	4645.5	
691	6004	
691.18	5784.8	
691.37	4731.5	
691.55	6083.1	
691.74	5823.1	
691.92	7105.8	
692.1	4665.3	
692.29	4388.8	
692.47	5969.8	
692.66	5556.8	
692.84	4448.9	
693.02	4724.7	
693.21	5505.6	
693.39	5967.8	
693.58	4848.9	
693.76	4424.3	
693.94	6664.1	
694.13	6501.6	
694.31	4496	
694.5	5184.8	
694.68	5743.9	
694.86	6127.5	
695.05	4758.8	
695.23	4765.6	
695.42	6210.1	
695.6	7680.6	
695.78	5110.4	
695.97	4501.4	
696.15	6414.2	
696.34	5882.4	
696.52	4414.1	
696.7	4903.5	
696.89	6217	
697.07	5730.2	
697.25	4872.1	
697.44	5808.7	
697.62	6139.1	
697.81	6272.9	
697.99	4653.7	
698.17	4996.4	
698.36	5786.2	
698.54	6174.6	
698.72	4872.1	
698.91	4208.6	
699.09	5876.3	
699.28	5655.1	
699.46	4713.1	
699.64	4524	
699.83	5729.5	
700.01	6405.4	
700.19	5094	
700.38	4046.1	
700.56	6459.3	
700.74	5709.7	
700.93	4308.2	
701.11	4809.3	
701.29	6150.7	
701.48	6783.6	
701.66	4411.3	
701.84	4510.3	
702.03	5869.5	
702.21	6372.6	
702.39	4177.9	
702.58	4599.7	
702.76	6210.1	
702.94	6221	
703.13	4186.7	
703.31	5670.8	
703.49	5679	
703.68	6542.6	
703.86	4300.7	
704.04	4968.4	
704.23	5997.8	
704.41	6192.4	
704.59	4468	
704.78	5173.2	
704.96	7096.9	
705.14	6166.4	
705.33	4329.4	
705.51	4844.1	
705.69	5872.9	
705.87	6468.9	
706.06	4895.3	
706.24	4263.2	
706.42	6077.7	
706.61	6189	
706.79	4971.8	
706.97	4214.7	
707.16	5705.6	
707.34	6041.5	
707.52	4879.6	
707.7	4410	
707.89	5692	
708.07	5618.9	
708.25	4941.1	
708.44	5026.4	
708.62	5677.7	
708.8	6457.9	
708.98	5075.5	
709.17	4376.5	
709.35	5932.3	
709.53	5978.7	
709.72	4242.7	
709.9	4308.9	
710.08	6177.4	
710.26	6158.2	
710.45	5285.8	
710.63	4440.7	
710.81	5850.4	
710.99	5862.7	
711.18	4840	
711.36	4461.8	
711.54	5790.3	
711.72	6242.9	
711.91	4534.2	
712.09	4187.4	
712.27	5937.1	
712.45	6204	
712.64	4656.4	
712.82	4035.9	
713	5552	
713.18	5616.9	
713.37	4138.9	
713.55	5009.3	
713.73	6221	
713.91	5276.9	
714.1	4300.1	
714.28	3950.5	
714.46	5917.3	
714.64	5469.4	
714.83	3628.3	
715.01	4147.1	
715.19	5475.6	
715.37	4962.2	
715.55	3819.5	
715.74	4048.8	
715.92	5922	
716.1	4596.3	
716.28	4806.6	
716.47	4187.4	
716.65	5240.1	
716.83	5182.7	
717.01	4051.6	
717.19	3987.4	
717.38	6475	
717.56	4974.5	
717.74	4188.1	
717.92	3614.7	
718.1	5732.3	
718.29	5127.4	
718.47	3337.5	
718.65	3791.5	
718.83	5637.4	
719.01	5603.9	
719.2	3329.3	
719.38	4050.9	
719.56	5425.8	
719.74	6455.2	
719.92	3825.6	
720.11	4515.1	
720.29	5530.9	
720.47	4960.2	
720.65	3517.7	
720.83	4036.5	
721.02	5172.5	
721.2	5040.1	
721.38	4085.7	
721.56	3592.1	
721.74	4700.1	
721.92	4742.4	
722.11	4316.4	
722.29	4197	
722.47	5589.6	
722.65	5046.2	
722.83	3586.7	
723.01	4146.5	
723.2	5001.1	
723.38	5298.1	
723.56	3235.8	
723.74	3928	
723.92	4701.5	
724.1	5450.3	
724.29	3497.9	
724.47	4247.5	
724.65	4861.9	
724.83	4725.3	
725.01	3452.9	
725.19	3969	
725.37	4744.5	
725.56	4758.8	
725.74	3376.4	
725.92	3486.3	
726.1	4741	
726.28	5010	
726.46	3752.6	
726.64	3577.8	
726.83	4947.2	
727.01	5079	
727.19	3349.8	
727.37	3861.1	
727.55	5042.1	
727.73	5344.5	
727.91	3287	
728.09	3299.3	
728.28	5377.3	
728.46	5479	
728.64	3885	
728.82	3870	
729	6017.6	
729.18	5532.9	
729.36	3300.6	
729.54	4756.7	
729.72	6087.2	
729.91	5032.5	
730.09	4556.7	
730.27	3800.3	
730.45	4986.1	
730.63	5388.2	
730.81	4115.7	
730.99	3552.5	
731.17	5796.4	
731.35	4825	
731.53	3874.8	
731.71	3689.8	
731.9	5555.5	
732.08	5558.9	
732.26	3836.5	
732.44	3553.2	
732.62	5673.6	
732.8	5316.5	
732.98	4084.3	
733.16	3479.5	
733.34	5358.9	
733.52	4487.8	
733.7	3800.3	
733.88	3889.8	
734.07	5236	
734.25	5088.5	
734.43	3419.4	
734.61	4371.7	
734.79	6058.6	
734.97	5044.1	
735.15	3519.1	
735.33	3725.3	
735.51	5293.3	
735.69	5046.9	
735.87	4328.7	
736.05	3788.1	
736.23	5063.3	
736.41	4926.7	
736.59	3768.3	
736.77	3771.7	
736.95	5442.1	
737.13	4973.2	
737.32	3517	
737.5	3607.2	
737.68	5784.8	
737.86	4927.4	
738.04	3414.6	
738.22	4564.9	
738.4	4931.5	
738.58	5124	
738.76	3784	
738.94	3154.6	
739.12	4919.9	
739.3	4818.9	
739.48	4142.4	
739.66	3919.1	
739.84	5057.1	
740.02	5015.5	
740.2	3206.4	
740.38	3314.3	
740.56	5310.4	
740.74	4535.6	
740.92	3814	
741.1	3723.9	
741.28	4930.8	
741.46	4742.4	
741.64	3543	
741.82	3916.4	
742	5017.5	
742.18	4847.5	
742.36	3622.9	
742.54	3414	
742.72	5383.4	
742.9	4500.1	
743.08	3874.1	
743.26	3154.6	
743.44	5380.7	
743.62	5330.2	
743.8	4019.5	
743.98	3392.8	
744.16	5145.9	
744.34	4904.2	
744.52	3925.3	
744.7	3885	
744.88	5218.9	
745.06	4913.8	
745.24	3904.8	
745.42	4034.5	
745.6	5302.9	
745.78	5169.8	
745.96	3247.4	
746.14	3391.4	
746.32	5743.2	
746.5	5254.4	
746.68	3702	
746.86	3405.8	
747.03	5460.6	
747.21	4498	
747.39	3694.5	
747.57	3366.9	
747.75	4982	
747.93	5264.6	
748.11	3339.6	
748.29	3315	
748.47	6049.7	
748.65	4754.7	
748.83	3747.8	
749.01	3624.2	
749.19	5079.6	
749.37	4573.8	
749.55	3620.8	
749.73	3634.5	
749.91	5009.3	
750.09	4831.8	
750.26	3626.3	
750.44	3277.4	
750.62	4934.9	
750.8	4834.6	
750.98	3201	
751.16	3363.4	
751.34	5079	
751.52	4606.6	
751.7	3986.7	
751.88	3142.9	
752.06	5338.4	
752.24	5146.5	
752.42	3162.7	
752.59	3416	
752.77	4934.2	
752.95	5721.3	
753.13	3893.2	
753.31	3488.4	
753.49	4695.3	
753.67	5000.5	
753.85	3681.6	
754.03	3345	
754.21	5185.5	
754.38	5395	
754.56	3469.3	
754.74	2922.5	
754.92	4696	
755.1	5068	
755.28	2914.3	
755.46	2959.3	
755.64	5662	
755.82	5769.1	
755.99	3216.7	
756.17	3261	
756.35	4161.5	
756.53	5104.2	
756.71	2504	
756.89	3422.2	
757.07	4853	
757.25	4329.4	
757.42	3474	
757.6	3985.3	
757.78	4911	
757.96	4272.7	
758.14	3272	
758.32	2908.1	
758.5	4003.1	
758.67	4500.1	
758.85	3121.1	
759.03	3268.6	
759.21	4659.8	
759.39	4264.6	
759.57	2867.8	
759.75	3593.5	
759.92	5156.1	
760.1	4715.1	
760.28	3780.6	
760.46	3979.2	
760.64	4474.1	
760.82	4369.7	
760.99	3713	
761.17	3154.6	
761.35	4990.9	
761.53	4281.6	
761.71	3325.2	
761.89	3667.2	
762.06	4805.9	
762.24	4577.9	
762.42	3294.5	
762.6	3116.3	
762.78	4534.9	
762.96	4971.8	
763.13	3549.8	
763.31	3327.9	
763.49	4963.6	
763.67	4524.6	
763.85	3883.6	
764.02	4182.6	
764.2	5252.4	
764.38	4590.9	
764.56	3319.1	
764.74	3816	
764.91	5273.5	
765.09	4506.9	
765.27	3094.5	
765.45	2921.8	
765.63	5440.1	
765.8	5184.8	
765.98	2805.7	
766.16	3049.4	
766.34	4319.8	
766.52	4118.5	
766.69	3614.7	
766.87	2876	
767.05	4614.1	
767.23	5164.3	
767.41	3135.4	
767.58	3248.8	
767.76	4945.8	
767.94	5010	
768.12	3175.7	
768.29	3579.8	
768.47	4588.1	
768.65	5068.7	
768.83	2880.8	
769	3577.1	
769.18	4328.7	
769.36	4767	
769.54	3635.8	
769.72	2932	
769.89	5070.1	
770.07	5033.2	
770.25	3165.5	
770.43	3958	
770.6	5479	
770.78	5720.7	
770.96	3298.6	
771.14	3657	
771.31	4982	
771.49	4523.3	
771.67	2723.8	
771.85	2810.5	
772.02	4052.2	
772.2	4529.4	
772.38	3388	
772.55	3025.5	
772.73	4742.4	
772.91	4557.4	
773.09	3231.7	
773.26	3375.1	
773.44	4743.1	
773.62	4515.8	
773.8	3032.4	
773.97	2846	
774.15	4757.4	
774.33	4471.4	
774.5	2946.3	
774.68	3127.2	
774.86	4726.7	
775.04	4505.5	
775.21	3018	
775.39	2908.8	
775.57	4682.3	
775.74	4886.5	
775.92	2879.4	
776.1	2783.2	
776.27	4658.4	
776.45	5420.3	
776.63	3022.8	
776.81	2755.2	
776.98	4467.3	
777.16	5117.2	
777.34	3068.5	
777.51	3274.7	
777.69	4500.8	
777.87	4281.6	
778.04	3145	
778.22	3495.9	
778.4	4315.1	
778.57	4784.7	
778.75	2660.3	
778.93	2846.7	
779.1	4242	
779.28	4074.1	
779.46	2619.4	
779.64	2942.2	
779.81	4889.2	
779.99	5387.5	
780.17	3480.9	
780.34	3523.9	
780.52	4522.6	
780.69	4588.1	
780.87	3229.6	
781.05	2907.4	
781.22	4574.5	
781.4	4542.4	
781.58	2984.6	
781.75	2499.9	
781.93	4562.2	
782.11	4101.4	
782.28	3558.7	
782.46	3028.9	
782.64	4042.7	
782.81	4700.8	
782.99	3106.1	
783.17	2974.3	
783.34	4626.4	
783.52	4191.5	
783.69	3103.4	
783.87	3674.1	
784.05	4226.3	
784.22	4160.1	
784.4	3618.1	
784.58	3212.6	
784.75	4872.8	
784.93	4281.6	
785.1	2962.7	
785.28	3368.2	
785.46	4674.1	
785.63	4126.7	
785.81	3018.7	
785.99	2876.7	
786.16	4321.2	
786.34	4486.4	
786.51	2968.2	
786.69	3203	
786.87	4055	
787.04	4369	
787.22	2831	
787.39	3412.6	
787.57	4219.5	
787.75	4878.9	
787.92	3646.1	
788.1	3532.7	
788.27	4177.9	
788.45	3924.6	
788.63	3368.9	
788.8	2508.8	
788.98	4537.6	
789.15	3910.3	
789.33	2658.3	
789.5	2974.3	
789.68	4815.5	
789.86	4868	
790.03	3216.7	
790.21	2919.7	
790.38	4824.3	
790.56	4318.5	
790.73	2818.7	
790.91	2869.9	
791.09	4248.2	
791.26	4652.3	
791.44	3050.8	
791.61	2646.7	
791.79	4207.2	
791.96	4162.2	
792.14	2732.7	
792.32	2487.6	
792.49	4177.2	
792.67	4313.7	
792.84	2807.1	
793.02	2675.3	
793.19	4554.7	
793.37	4965.6	
793.54	2456.2	
793.72	2742.9	
793.89	5018.2	
794.07	4154	
794.25	3066.5	
794.42	2562.7	
794.6	4936.3	
794.77	4588.8	
794.95	3255.6	
795.12	2850.1	
795.3	4278.9	
795.47	4581.3	
795.65	3178.4	
795.82	3050.1	
796	4130.8	
796.17	5309.7	
796.35	3003	
796.52	3446	
796.7	4548.5	
796.87	4659.8	
797.05	3017.3	
797.22	3496.6	
797.4	4613.4	
797.57	5223.7	
797.75	3066.5	
797.92	2913.6	
798.1	4854.4	
798.27	4079.6	
798.45	2557.9	
798.62	2702	
798.8	4440	
798.97	4736.3	
799.15	3195.5	
799.32	3065.8	
799.5	3946.4	
799.67	4416.8	
799.85	3329.3	
800.02	2509.4	
800.2	4170.3	
800.37	4291.9	
800.55	3388	
800.72	2914.3	
800.9	4678.2	
801.07	4986.8	
801.25	3742.3	
801.42	3184.6	
801.6	4763.6	
801.77	4403.8	
801.95	3001	
802.12	2822.1	
802.29	4554.7	
802.47	4464.6	
802.64	3175	
802.82	2484.9	
802.99	4197.7	
803.17	4792.2	
803.34	3059.7	
803.52	2810.5	
803.69	5239.4	
803.87	4018.1	
804.04	3076	
804.21	3076	
804.39	4915.8	
804.56	4324.6	
804.74	2678.7	
804.91	3112.2	
805.09	4230.4	
805.26	4272.1	
805.44	2704	
805.61	2992.8	
805.78	4719.9	
805.96	4642.1	
806.13	3136.1	
806.31	3337.5	
806.48	3874.1	
806.66	4253.6	
806.83	3134.1	
807	3101.3	
807.18	4249.5	
807.35	4407.2	
807.53	3080.8	
807.7	2554.5	
807.87	4964.3	
808.05	4228.4	
808.22	3272.7	
808.4	2553.1	
808.57	4119.1	
808.74	3968.3	
808.92	2843.9	
809.09	3474	
809.27	4177.9	
809.44	4502.8	
809.61	2545.6	
809.79	2787.3	
809.96	5053	
810.14	4661.2	
810.31	2512.9	
810.48	3018	
810.66	4341	
810.83	4653.7	
811.01	2897.2	
811.18	3123.2	
811.35	4736.3	
811.53	3778.5	
811.7	3328.6	
811.87	3136.1	
812.05	4340.3	
812.22	4176.5	
812.39	2848.7	
812.57	2653.5	
812.74	4314.4	
812.92	5288.5	
813.09	3011.2	
813.26	3188	
813.44	5151.3	
813.61	4147.1	
813.78	2536.1	
813.96	3188	
814.13	4248.2	
814.3	4103.4	
814.48	3491.8	
814.65	2976.4	
814.82	5082.4	
815	3981.9	
815.17	3005.1	
815.34	3629	
815.52	4147.8	
815.69	4138.9	
815.87	2968.9	
816.04	2931.3	
816.21	4220.2	
816.38	3885	
816.56	2949.1	
816.73	2786.6	
816.9	5163.6	
817.08	4662.5	
817.25	2788.7	
817.42	3383.2	
817.6	3961.5	
817.77	4185.4	
817.94	3028.9	
818.12	2702.6	
818.29	4056.3	
818.46	5703.6	
818.64	2896.5	
818.81	2670.6	
818.98	4065.2	
819.16	5398.4	
819.33	3234.4	
819.5	3064.4	
819.67	4416.1	
819.85	4880.3	
820.02	3023.5	
820.19	3161.4	
820.37	4378.6	
820.54	4101.4	
820.71	3054.9	
820.88	3745.7	
821.06	4431.1	
821.23	3993.5	
821.4	3083.6	
821.58	3086.3	
821.75	4650.9	
821.92	4296	
822.09	2525.8	
822.27	2735.4	
822.44	4228.4	
822.61	4143	
822.79	2577	
822.96	4541.7	
823.13	4417.5	
823.3	3970.3	
823.48	2919.7	
823.65	2667.8	
823.82	4773.8	
823.99	3992.2	
824.17	3634.5	
824.34	2725.2	
824.51	5279.7	
824.68	4313.7	
824.86	2799.6	
825.03	3044	
825.2	4241.3	
825.37	4874.2	
825.55	2813.2	
825.72	3003	
825.89	5239.4	
826.06	4939	
826.24	2957.3	
826.41	3058.3	
826.58	4988.9	
826.75	4410.6	
826.92	2515.6	
827.1	2661	
827.27	6419	
827.44	5201.8	
827.61	2803.7	
827.79	3360.7	
827.96	4103.4	
828.13	4235.9	
828.3	2950.4	
828.47	2620	
828.65	4504.2	
828.82	4406.5	
828.99	3620.8	
829.16	3240.6	
829.34	4701.5	
829.51	4593.6	
829.68	3028.9	
829.85	3102	
830.02	4987.5	
830.2	4706.2	
830.37	2444.6	
830.54	3538.2	
830.71	5201.8	
830.88	4324.6	
831.05	2405	
831.23	2747	
831.4	5124	
831.57	5455.1	
831.74	2820.7	
831.91	2512.9	
832.09	4530.8	
832.26	4728.8	
832.43	2863.1	
832.6	3207.8	
832.77	4500.8	
832.94	4974.5	
833.12	2404.3	
833.29	2847.4	
833.46	4194.9	
833.63	5621	
833.8	3099.3	
833.97	2898.6	
834.15	4762.2	
834.32	4633.9	
834.49	3041.2	
834.66	3084.2	
834.83	4757.4	
835	4173.1	
835.17	2813.2	
835.35	2784.6	
835.52	4681	
835.69	4572.4	
835.86	2948.4	
836.03	2461	
836.2	4730.1	
836.37	4449.6	
836.55	2865.8	
836.72	2765.4	
836.89	4450.9	
837.06	4760.2	
837.23	2981.8	
837.4	3129.3	
837.57	5326.1	
837.75	5570.5	
837.92	2688.3	
838.09	2865.1	
838.26	4418.2	
838.43	4836.6	
838.6	2995.5	
838.77	2799.6	
838.94	5344.5	
839.11	5264.6	
839.29	2962.7	
839.46	2339.5	
839.63	4750.6	
839.8	4470	
839.97	2835.1	
840.14	2790	
840.31	4596.3	
840.48	4739.7	
840.65	2434.4	
840.82	2796.8	
841	4689.2	
841.17	4552.6	
841.34	2570.2	
841.51	2717.7	
841.68	4689.8	
841.85	4444.8	
842.02	2686.3	
842.19	2316.3	
842.36	4573.1	
842.53	4577.2	
842.7	2628.9	
842.87	3091.8	
843.05	5671.5	
843.22	4470.7	
843.39	2555.2	
843.56	2658.3	
843.73	4395.6	
843.9	4807.9	
844.07	3990.8	
844.24	3329.3	
844.41	6186.9	
844.58	4134.2	
844.75	2544.3	
844.92	2741.5	
845.09	4670.7	
845.26	4666	
845.43	2637.8	
845.6	2736.8	
845.77	4722.6	
845.94	4508.3	
846.12	2868.5	
846.29	3026.2	
846.46	4931.5	
846.63	4640	
846.8	2646.7	
846.97	3074	
847.14	4990.9	
847.31	4659.8	
847.48	2887.6	
847.65	3125.2	
847.82	4758.1	
847.99	4794.3	
848.16	3310.9	
848.33	3106.1	
848.5	4378.6	
848.67	4973.2	
848.84	2580.4	
849.01	2742.9	
849.18	4332.8	
849.35	4130.8	
849.52	3199.6	
849.69	2547	
849.86	4854.4	
850.03	4886.5	
850.2	2631	
850.37	3066.5	
850.54	4872.1	
850.71	4463.2	
850.88	3039.9	
851.05	2570.9	
851.22	4627	
851.39	5048.9	
851.56	2458.2	
851.73	2906.1	
851.9	4187.4	
852.07	4815.5	
852.24	2921.8	
852.41	2580.4	
852.58	4670.1	
852.75	4283	
852.92	2891.7	
853.09	2599.6	
853.26	4329.4	
853.43	4907.6	
853.6	2639.1	
853.77	2258.2	
853.94	5073.5	
854.11	4203.8	
854.28	3678.2	
854.44	2768.9	
854.61	5292.6	
854.78	4876.9	
854.95	2597.5	
855.12	3120.4	
855.29	3887.7	
855.46	5108.3	
855.63	2612.5	
855.8	3401.7	
855.97	4332.8	
856.14	4883.7	
856.31	3504.8	
856.48	2818	
856.65	4449.6	
856.82	4211.3	
856.99	2507.4	
857.16	2803.7	
857.33	5461.9	
857.49	4475.5	
857.66	2797.5	
857.83	2926.5	
858	4476.2	
858.17	4642.7	
858.34	2490.3	
858.51	2615.3	
858.68	5087.2	
858.85	5051	
859.02	2938.8	
859.19	3155.2	
859.36	4227	
859.52	4177.2	
859.69	2606.4	
859.86	2992.1	
860.03	4244.1	
860.2	5022.3	
860.37	2446	
860.54	2600.2	
860.71	4851	
860.88	5051	
861.05	2914.9	
861.21	3237.8	
861.38	5074.9	
861.55	4081.6	
861.72	2422.7	
861.89	2835.1	
862.06	4846.2	
862.23	5106.3	
862.4	2553.1	
862.56	2720.4	
862.73	4735.6	
862.9	4497.3	
863.07	2955.9	
863.24	2386.6	
863.41	4149.2	
863.58	4222.2	
863.75	2658.9	
863.91	2990	
864.08	4937	
864.25	4762.2	
864.42	3176.4	
864.59	3522.5	
864.76	5264.6	
864.93	4199.7	
865.09	2538.8	
865.26	2808.4	
865.43	4996.4	
865.6	5235.3	
865.77	2359.9	
865.94	2562.7	
866.1	5016.8	
866.27	4697.4	
866.44	3663.1	
866.61	2538.1	
866.78	4502.1	
866.95	4802.5	
867.11	2504.7	
867.28	2394.1	
867.45	4992.9	
867.62	4188.1	
867.79	2918.4	
867.96	2542.2	
868.12	4185.4	
868.29	4789.5	
868.46	2596.1	
868.63	3315.7	
868.8	4830.5	
868.97	4745.1	
869.13	2755.2	
869.3	2755.2	
869.47	4689.2	
869.64	4855.1	
869.81	2596.1	
869.97	2605	
870.14	4582.7	
870.31	5096.7	
870.48	2557.9	
870.65	3188	
870.81	4554.7	
870.98	4463.2	
871.15	2878.8	
871.32	2686.9	
871.48	4691.2	
871.65	5151.3	
871.82	2572.2	
871.99	2836.4	
872.16	5378	
872.32	4970.4	
872.49	2679.4	
872.66	2645.3	
872.83	4805.2	
872.99	4304.8	
873.16	2888.3	
873.33	2602.3	
873.5	4562.2	
873.67	4594.3	
873.83	2676	
874	3346.4	
874.17	4723.3	
874.34	5286.5	
874.5	3304.1	
874.67	3194.8	
874.84	4998.4	
875.01	4098.7	
875.17	3523.2	
875.34	2627.5	
875.51	4655	
875.68	5395.7	
875.84	3083.6	
876.01	3635.8	
876.18	4782	
876.34	4760.8	
876.51	2586.6	
876.68	2489	
876.85	4407.9	
877.01	5035.3	
877.18	3552.5	
877.35	2561.3	
877.52	4635.9	
877.68	4179.9	
877.85	2581.1	
878.02	2583.9	
878.18	4369.7	
878.35	4327.4	
878.52	2179	
878.69	2994.8	
878.85	4917.2	
879.02	4711	
879.19	3588.7	
879.35	2807.1	
879.52	4768.4	
879.69	4842.8	
879.86	2338.1	
880.02	2850.1	
880.19	4536.3	
880.36	5350.7	
880.52	2942.2	
880.69	3077.4	
880.86	4835.9	
881.02	4863.9	
881.19	2859.6	
881.36	2765.4	
881.52	4720.6	
881.69	4257	
881.86	2783.2	
882.02	2723.1	
882.19	4952.7	
882.36	5572.5	
882.52	2659.6	
882.69	3515	
882.86	4646.8	
883.02	4624.3	
883.19	3035.1	
883.36	2906.1	
883.52	4851	
883.69	5381.4	
883.86	2648	
884.02	2417.3	
884.19	4829.1	
884.36	4545.1	
884.52	2880.8	
884.69	2794.1	
884.86	4399	
885.02	5142.4	
885.19	2885.6	
885.36	2927.2	
885.52	4472.8	
885.69	4677.6	
885.86	3596.2	
886.02	3212.6	
886.19	4853	
886.35	4397	
886.52	2835.8	
886.69	3524.6	
886.85	4270	
887.02	4989.5	
887.19	4989.5	
887.35	4989.5	
887.52	4989.5	
887.68	4989.5	
887.85	4989.5	
888.02	4989.5	
888.18	4989.5	
888.35	4989.5	
888.51	4989.5	
888.68	4989.5	
888.85	4989.5	
889.01	4989.5	
889.18	4989.5	
889.35	4989.5	
889.51	4989.5	
889.68	4989.5	
889.84	4989.5	
890.01	4989.5	
890.17	4989.5	
890.34	4989.5	
890.51	4989.5	
890.67	4989.5	
890.84	4989.5	
891	4989.5	
891.17	4989.5	
891.34	4989.5	
891.5	4989.5	
891.67	4989.5	
891.83	4989.5	
892	4989.5	
892.16	4989.5	
892.33	4989.5	
892.5	4989.5	
892.66	4989.5	
892.83	4989.5	
892.99	4989.5	
893.16	4989.5	
893.32	4989.5	
893.49	4989.5	
893.65	4989.5	
893.82	4989.5	
893.99	4989.5	
894.15	4989.5	
894.32	4989.5	
894.48	4989.5	
894.65	4989.5	
894.81	4989.5	
894.98	4989.5	
895.14	4989.5	
895.31	4989.5	
895.47	4989.5	
895.64	4989.5	
895.81	4989.5	
895.97	4989.5	
896.14	4989.5	
896.3	4989.5	
896.47	4989.5	
896.63	4989.5	
896.8	4989.5	
896.96	4989.5	
897.13	4989.5	
897.29	4989.5	
897.46	4989.5	
897.62	4989.5	
897.79	4989.5	
897.95	4989.5	
898.12	4989.5	
898.28	4989.5	
898.45	4989.5	
898.61	4989.5	
898.78	4989.5	
898.94	4989.5	
899.11	4989.5	
899.27	4989.5	
899.44	4989.5	
899.6	4989.5	
899.77	4989.5	
899.93	4989.5	
900.1	4989.5	
900.26	4989.5	
900.43	4989.5	
900.59	4989.5	
900.76	4989.5	
900.92	4989.5	
901.09	4989.5	
901.25	4989.5	
901.42	4989.5	
901.58	4989.5	
901.75	4989.5	
901.91	4989.5	
902.07	4989.5	
902.24	4989.5	
902.4	4989.5	
902.57	4989.5	
902.73	4989.5	
902.9	4989.5	
903.06	4989.5	
903.23	4989.5	
903.39	4989.5	
903.56	4989.5	
903.72	4989.5	
903.88	4989.5	
904.05	4989.5	
904.21	4989.5	
904.38	4989.5	
904.54	4989.5	
904.71	4989.5	
904.87	4989.5	
905.03	4989.5	
905.2	4989.5	
905.36	4989.5	
905.53	4989.5	
905.69	4989.5	
905.86	4989.5	
906.02	4989.5	
906.18	4989.5	
906.35	4989.5	
906.51	4989.5	
906.68	4989.5	
906.84	4989.5	
907.01	4989.5	
907.17	4989.5	
907.33	4989.5	
907.5	4989.5	
907.66	4989.5	
907.83	4989.5	
907.99	4989.5	
908.15	4989.5	
908.32	4989.5	
908.48	4989.5	
908.65	4989.5	
908.81	4989.5	
908.97	4989.5	
909.14	4989.5	
909.3	4989.5	
909.47	4989.5	
909.63	4989.5	
909.79	4989.5	
909.96	4989.5	
910.12	4989.5	
910.28	4989.5	
910.45	4989.5	
910.61	4989.5	
910.78	4989.5	
910.94	4989.5	
911.1	4989.5	
911.27	4989.5	
911.43	4989.5	
911.59	4989.5	
911.76	4989.5	
911.92	4989.5	
912.08	4989.5	
912.25	4989.5	
912.41	4989.5	
912.57	4989.5	
912.74	4989.5	
912.9	4989.5	
913.07	4989.5	
913.23	4989.5	
913.39	4989.5	
913.56	4989.5	
913.72	4989.5	
913.88	4989.5	
914.05	4989.5	
914.21	4989.5	
914.37	4989.5	
914.54	4989.5	
914.7	4989.5	
914.86	4989.5	
915.03	4989.5	
915.19	4989.5	
