Wavelength	Intensities	
nm	a.u.	
179.22	1904.6	
179.44	1907.3	
179.65	1901.9	
179.86	1912.8	
180.08	1920.3	
180.29	4831.2	
180.51	3481.5	
180.72	5632.6	
180.94	6490	
181.15	3199.6	
181.37	3130	
181.58	5425.8	
181.79	5752.1	
182.01	3323.9	
182.22	3534.1	
182.44	5752.1	
182.65	4808.6	
182.87	4515.8	
183.08	3947.8	
183.29	5973.2	
183.51	4958.8	
183.72	3653.6	
183.94	5283.8	
184.15	5380.7	
184.37	5368.4	
184.58	3216.7	
184.79	4432.5	
185.01	4972.5	
185.22	5703.6	
185.44	4619.5	
185.65	3882.3	
185.86	5289.2	
186.08	4811.4	
186.29	3075.4	
186.51	3369.6	
186.72	5038	
186.94	5863.3	
187.15	3854.3	
187.36	3937.6	
187.58	7652.6	
187.79	5443.5	
188.01	4113.7	
188.22	6394.4	
188.43	6535.8	
188.65	5645.6	
188.86	3235.1	
189.08	4001.7	
189.29	5171.8	
189.5	5216.9	
189.72	3701.4	
189.93	3766.2	
190.15	5943.9	
190.36	7082.6	
190.57	4033.8	
190.79	3945.1	
191	6016.2	
191.22	5948.7	
191.43	4073.4	
191.64	3304.7	
191.86	6247	
192.07	5930.9	
192.29	3429.7	
192.5	3704.8	
192.71	5907	
192.93	5100.1	
193.14	3670	
193.35	3809.9	
193.57	5125.4	
193.78	5858.6	
194	2964.8	
194.21	3641.3	
194.42	4885.8	
194.64	5373.2	
194.85	4022.2	
195.07	4643.4	
195.28	5543.2	
195.49	4702.1	
195.71	4922.6	
195.92	3459	
196.13	5621.7	
196.35	5656.5	
196.56	5292	
196.78	4013.3	
196.99	6986.3	
197.2	6542.6	
197.42	4539	
197.63	3982.6	
197.84	4770.4	
198.06	5487.2	
198.27	3674.1	
198.48	4893.3	
198.7	5105.6	
198.91	5296	
199.13	4031.1	
199.34	3981.9	
199.55	5841.5	
199.77	4648.2	
199.98	3557.3	
200.19	4073.4	
200.41	5199.1	
200.62	5020.9	
200.83	4180.6	
201.05	4498	
201.26	5287.9	
201.47	5025	
201.69	3580.5	
201.9	3470.6	
202.11	5378	
202.33	6384.9	
202.54	3781.9	
202.76	4254.3	
202.97	5481	
203.18	5502.9	
203.4	4221.5	
203.61	4140.3	
203.82	5484.5	
204.04	5049.6	
204.25	4087.1	
204.46	4009.9	
204.68	5386.2	
204.89	5595.7	
205.1	3979.9	
205.32	3466.5	
205.53	5757.5	
205.74	5928.9	
205.96	2903.3	
206.17	4070.7	
206.38	5752.7	
206.6	5896.1	
206.81	4554	
207.02	3745.7	
207.24	5636	
207.45	6021.7	
207.66	3848.8	
207.88	3284.3	
208.09	5580.7	
208.3	5367	
208.52	3488.4	
208.73	3850.2	
208.94	5342.5	
209.15	6129.6	
209.37	3832.4	
209.58	4024.3	
209.79	5911.1	
210.01	5143.8	
210.22	3076	
210.43	3186	
210.65	5350.7	
210.86	5803.3	
211.07	3838.6	
211.29	3494.5	
211.5	5753.4	
211.71	5360.9	
211.93	3533.4	
212.14	3515.7	
212.35	5324	
212.56	5527.5	
212.78	4075.5	
212.99	3325.9	
213.2	6369.9	
213.42	5127.4	
213.63	3655.6	
213.84	3905.5	
214.06	4826.4	
214.27	4896	
214.48	3807.9	
214.69	4097.3	
214.91	6059.9	
215.12	6089.3	
215.33	4104.8	
215.55	4601.1	
215.76	6648.4	
215.97	5763.7	
216.18	3967.6	
216.4	3897.3	
216.61	5072.8	
216.82	5844.2	
217.04	3578.5	
217.25	3639.9	
217.46	6101.6	
217.67	5793	
217.89	3183.2	
218.1	3279.5	
218.31	5468.1	
218.53	5543.9	
218.74	3721.8	
218.95	3570.3	
219.16	5333.6	
219.38	6277.7	
219.59	3571.7	
219.8	4296.6	
220.01	6927.6	
220.23	5393.7	
220.44	4744.5	
220.65	3473.4	
220.87	5465.3	
221.08	5927.5	
221.29	3281.5	
221.5	4370.4	
221.72	7325.6	
221.93	5094	
222.14	4043.4	
222.35	4728.1	
222.57	5364.3	
222.78	5762.3	
222.99	3890.5	
223.2	4128.7	
223.42	5685.2	
223.63	5795.8	
223.84	2955.9	
224.05	2921.8	
224.27	6886	
224.48	6272.9	
224.69	4810.7	
224.9	4033.1	
225.12	5610.1	
225.33	5317.9	
225.54	3181.9	
225.75	3581.2	
225.97	4911	
226.18	5219.6	
226.39	3935.5	
226.6	3624.9	
226.82	5163.6	
227.03	4977.9	
227.24	4009.9	
227.45	3325.2	
227.67	5737.7	
227.88	6368.5	
228.09	4477.5	
228.3	4524.6	
228.52	5786.9	
228.73	5339.1	
228.94	3753.9	
229.15	3349.1	
229.36	5281	
229.58	5182	
229.79	3719.8	
230	4337.6	
230.21	6404.7	
230.43	5582.1	
230.64	4052.9	
230.85	4180.6	
231.06	5774.6	
231.28	5776	
231.49	3315	
231.7	3904.8	
231.91	5691.3	
232.12	5438	
232.34	3445.4	
232.55	3912.3	
232.76	5993	
232.97	5552	
233.18	3556	
233.4	3913.7	
233.61	5590.3	
233.82	5132.2	
234.03	3706.8	
234.25	3674.7	
234.46	7477.8	
234.67	5431.9	
234.88	4129.4	
235.09	3555.3	
235.31	5667.4	
235.52	5260.5	
235.73	4068.6	
235.94	3374.4	
236.15	5086.5	
236.37	6522.1	
236.58	3533.4	
236.79	3873.4	
237	5655.1	
237.21	4919.9	
237.43	4127.3	
237.64	3253.5	
237.85	9687.6	
238.06	4995.7	
238.27	4217.5	
238.48	3383.9	
238.7	5670.8	
238.91	5264.6	
239.12	3832.4	
239.33	3874.8	
239.54	4978.6	
239.76	5319.9	
239.97	3829.7	
240.18	3812	
240.39	6718	
240.6	5602.6	
240.82	4040.6	
241.03	3248.8	
241.24	5397.8	
241.45	6305.7	
241.66	3506.8	
241.87	4136.9	
242.09	6057.2	
242.3	6477.7	
242.51	4259.1	
242.72	3893.2	
242.93	5821	
243.14	5348.6	
243.36	4473.4	
243.57	4812.7	
243.78	6188.3	
243.99	5747.3	
244.2	3858.4	
244.41	3512.3	
244.63	4960.9	
244.84	5694	
245.05	4101.4	
245.26	3904.1	
245.47	5683.8	
245.68	5910.4	
245.9	5074.2	
246.11	4018.8	
246.32	5227.1	
246.53	5653.1	
246.74	6270.2	
246.95	3240.6	
247.16	4883.7	
247.38	5387.5	
247.59	3276.1	
247.8	3892.5	
248.01	5084.4	
248.22	5367.7	
248.43	3515.7	
248.64	3766.2	
248.86	4788.2	
249.07	5128.8	
249.28	3369.6	
249.49	4009.9	
249.7	5946.6	
249.91	6089.3	
250.12	3265.1	
250.34	3261.7	
250.55	5488.6	
250.76	5388.2	
250.97	4001	
251.18	4076.1	
251.39	6036.7	
251.6	5544.5	
251.81	4052.9	
252.03	4031.8	
252.24	5102.9	
252.45	5894.1	
252.66	3377.1	
252.87	4305.5	
253.08	5448.3	
253.29	7116.7	
253.5	3344.3	
253.72	4638	
253.93	5262.6	
254.14	6407.4	
254.35	3652.9	
254.56	3736.9	
254.77	5605.3	
254.98	5027.8	
255.19	3635.1	
255.41	4743.1	
255.62	5456.5	
255.83	6040.1	
256.04	4198.3	
256.25	4016.7	
256.46	6617.7	
256.67	5053	
256.88	4023.6	
257.09	4462.5	
257.31	5037.3	
257.52	5065.3	
257.73	5004.6	
257.94	3631.7	
258.15	5238	
258.36	5347.9	
258.57	4668.7	
258.78	2910.8	
258.99	5912.5	
259.2	5190.9	
259.41	3706.1	
259.63	3768.9	
259.84	6260	
260.05	6720.8	
260.26	4867.3	
260.47	3616.7	
260.68	5950	
260.89	5296	
261.1	4437.3	
261.31	3524.6	
261.52	5945.9	
261.73	6341.2	
261.95	4758.8	
262.16	4151.2	
262.37	6075	
262.58	6221.7	
262.79	4746.5	
263	3805.8	
263.21	5445.5	
263.42	4895.3	
263.63	3820.1	
263.84	3732.1	
264.05	5942.5	
264.26	6298.2	
264.47	4533.5	
264.69	4228.4	
264.9	6100.9	
265.11	5622.4	
265.32	3537.5	
265.53	3665.2	
265.74	5515.2	
265.95	4834.6	
266.16	3958	
266.37	4392.2	
266.58	5436	
266.79	5190.9	
267	3685	
267.21	3360	
267.42	4922.6	
267.63	5331.5	
267.84	3846.8	
268.06	3314.3	
268.27	5788.2	
268.48	6075	
268.69	3799.7	
268.9	4447.5	
269.11	6109.1	
269.32	4878.9	
269.53	3884.3	
269.74	3527.3	
269.95	5705.6	
270.16	4756.7	
270.37	3875.4	
270.58	4434.5	
270.79	5236	
271	6003.3	
271.21	4188.8	
271.42	3900.7	
271.63	5530.2	
271.84	5049.6	
272.05	3125.2	
272.26	3515	
272.47	5455.1	
272.68	5581.4	
272.89	3682.2	
273.11	4291.2	
273.32	5176.6	
273.53	6334.4	
273.74	4203.8	
273.95	4039.3	
274.16	6083.8	
274.37	5483.1	
274.58	4212	
274.79	3394.8	
275	5541.8	
275.21	6038.1	
275.42	5163.6	
275.63	4356.7	
275.84	5567.1	
276.05	7107.1	
276.26	4104.1	
276.47	3828.3	
276.68	5227.1	
276.89	6393.1	
277.1	4370.4	
277.31	3389.4	
277.52	5677.7	
277.73	5760.3	
277.94	3345.7	
278.15	3713	
278.36	5602.6	
278.57	5039.4	
278.78	3701.4	
278.99	4183.3	
279.2	5017.5	
279.41	4973.2	
279.62	4878.3	
279.83	3448.1	
280.04	6574.7	
280.25	4919.9	
280.46	4816.8	
280.67	3847.5	
280.88	4955.4	
281.09	6081.8	
281.3	4070.7	
281.51	5144.5	
281.72	5136.3	
281.93	5934.3	
282.14	3564.8	
282.35	3889.1	
282.56	5853.1	
282.77	5833.3	
282.98	3728.7	
283.19	4563.6	
283.4	7228.6	
283.61	5330.9	
283.82	3388.7	
284.03	4789.5	
284.24	5474.9	
284.45	6008.7	
284.66	4805.9	
284.87	4619.5	
285.08	5975.3	
285.29	6059.3	
285.5	3348.4	
285.71	3801.7	
285.92	6019	
286.12	6661.4	
286.33	4759.5	
286.54	3691.1	
286.75	5860.6	
286.96	5279.7	
287.17	3551.9	
287.38	4666	
287.59	5057.1	
287.8	5014.8	
288.01	3788.1	
288.22	4369.7	
288.43	5919.3	
288.64	4954	
288.85	4514.4	
289.06	4331.5	
289.27	5797.1	
289.48	6353.5	
289.69	4799.8	
289.9	4307.6	
290.11	6051.7	
290.32	5150	
290.53	4557.4	
290.74	4207.2	
290.94	5823.1	
291.15	6010.8	
291.36	3657.7	
291.57	4272.7	
291.78	5109	
291.99	4777.9	
292.2	3451.5	
292.41	4280.9	
292.62	5975.3	
292.83	5709.7	
293.04	5112.4	
293.25	3543	
293.46	5209.3	
293.67	5945.9	
293.88	3635.1	
294.09	3409.9	
294.29	4920.6	
294.5	5472.2	
294.71	3870.7	
294.92	3696.6	
295.13	5145.9	
295.34	6519.4	
295.55	3260.4	
295.76	3337.5	
295.97	5828.5	
296.18	6599.2	
296.39	3459.7	
296.6	3670.6	
296.81	5520.6	
297.01	5803.9	
297.22	3803.8	
297.43	3610.6	
297.64	5053	
297.85	5061.2	
298.06	3023.5	
298.27	3315.7	
298.48	5441.5	
298.69	5143.1	
298.9	3939.6	
299.11	3540.9	
299.31	4921.3	
299.52	4896.7	
299.73	4246.1	
299.94	4155.3	
300.15	5370.5	
300.36	5039.4	
300.57	4144.4	
300.78	4149.9	
300.99	5246.9	
301.2	5550.7	
301.4	3604.4	
301.61	3915	
301.82	5677	
302.03	5864.7	
302.24	4450.2	
302.45	3440.6	
302.66	5670.8	
302.87	6199.9	
303.08	3642.7	
303.29	5000.5	
303.49	5120.6	
303.7	5441.5	
303.91	3214.6	
304.12	4723.3	
304.33	4883	
304.54	5459.9	
304.75	3648.1	
304.96	3457.7	
305.16	5751.4	
305.37	6487.3	
305.58	3128.6	
305.79	3351.2	
306	5711.1	
306.21	4848.9	
306.42	3636.5	
306.63	5616.2	
306.83	5238.7	
307.04	6009.4	
307.25	4028.4	
307.46	3964.9	
307.67	4638	
307.88	5862.7	
308.09	3524.6	
308.29	3683.6	
308.5	5466.7	
308.71	5930.2	
308.92	3896.6	
309.13	3538.2	
309.34	5283.1	
309.55	5289.2	
309.75	4587.4	
309.96	4128.7	
310.17	5788.2	
310.38	5134.3	
310.59	4348.5	
310.8	4123.2	
311.01	5245.5	
311.21	5238	
311.42	3455.6	
311.63	3593.5	
311.84	5169.8	
312.05	5513.8	
312.26	4071.4	
312.46	4452.3	
312.67	5239.4	
312.88	4965.6	
313.09	3518.4	
313.3	3428.3	
313.51	6196.5	
313.71	6584.2	
313.92	3501.3	
314.13	3691.1	
314.34	5513.8	
314.55	5279.7	
314.76	4504.8	
314.96	3919.8	
315.17	5454.4	
315.38	5808.7	
315.59	3525.2	
315.8	3357.3	
316.01	6228.6	
316.21	6335	
316.42	3362.8	
316.63	3866.6	
316.84	5291.3	
317.05	6072.2	
317.26	4106.9	
317.46	3803.8	
317.67	5306.3	
317.88	5739.1	
318.09	4429.8	
318.3	3272	
318.5	5142.4	
318.71	5769.1	
318.92	5645.6	
319.13	4123.2	
319.34	5863.3	
319.54	5991.7	
319.75	3272	
319.96	3063.8	
320.17	5750	
320.38	5961.6	
320.58	3187.3	
320.79	3859.7	
321	5967.1	
321.21	6120	
321.42	3878.9	
321.62	3187.3	
321.83	4999.8	
322.04	5458.5	
322.25	3715	
322.46	3554.6	
322.66	5473.5	
322.87	5676.3	
323.08	4390.2	
323.29	3442	
323.5	6445	
323.7	4999.8	
323.91	4780.6	
324.12	4336.2	
324.33	5431.2	
324.53	5715.2	
324.74	4150.6	
324.95	4382	
325.16	4776.5	
325.37	5248.9	
325.57	3542.3	
325.78	3617.4	
325.99	5464.7	
326.2	4932.2	
326.4	5023.7	
326.61	3286.3	
326.82	5355.4	
327.03	5504.9	
327.24	5023	
327.44	4754.7	
327.65	5618.3	
327.86	4559.5	
328.07	4154.6	
328.27	3384.6	
328.48	6126.8	
328.69	5012.1	
328.9	5064.6	
329.1	3768.3	
329.31	5295.4	
329.52	6163	
329.73	3546.4	
329.93	3947.1	
330.14	5408	
330.35	5668.1	
330.56	5775.3	
330.76	4367	
330.97	5231.9	
331.18	5590.3	
331.39	3902.7	
331.59	3161.4	
331.8	5997.8	
332.01	6113.9	
332.22	3604.4	
332.42	4168.3	
332.63	5517.2	
332.84	5093.3	
333.05	3969	
333.25	3578.5	
333.46	5160.9	
333.67	5408	
333.88	3648.1	
334.08	4102.1	
334.29	7174.7	
334.5	6113.2	
334.7	3439.9	
334.91	5036.6	
335.12	4945.2	
335.33	5845.6	
335.53	3899.3	
335.74	5829.2	
335.95	5156.1	
336.16	5039.4	
336.36	3985.3	
336.57	4515.1	
336.78	4913.8	
336.98	5997.1	
337.19	4752	
337.4	3802.4	
337.61	6561	
337.81	4997.7	
338.02	3639.9	
338.23	4650.9	
338.43	6226.5	
338.64	5042.8	
338.85	3534.8	
339.05	4617.5	
339.26	6195.8	
339.47	4828.4	
339.68	3574.4	
339.88	5221	
340.09	5627.8	
340.3	5972.6	
340.5	4105.5	
340.71	3197.6	
340.92	4903.5	
341.13	6101.6	
341.33	3415.3	
341.54	4142.4	
341.75	5574.6	
341.95	5255.8	
342.16	3943.7	
342.37	4282.3	
342.57	4965.6	
342.78	5375.9	
342.99	4353.3	
343.19	3138.2	
343.4	5853.8	
343.61	5653.8	
343.81	3770.3	
344.02	3482.9	
344.23	5766.4	
344.43	6261.3	
344.64	4309.6	
344.85	4279.6	
345.06	5711.8	
345.26	5994.4	
345.47	4027.7	
345.68	4737	
345.88	4827.7	
346.09	5871.5	
346.3	4153.3	
346.5	3121.8	
346.71	5385.5	
346.92	5146.5	
347.12	3192.8	
347.33	4038.6	
347.54	5987.6	
347.74	6380.8	
347.95	4067.3	
348.16	3003.7	
348.36	5234.6	
348.57	4905.6	
348.78	3953.3	
348.98	4334.2	
349.19	5379.3	
349.39	4839.4	
349.6	3235.1	
349.81	3582.6	
350.01	5608.7	
350.22	5064.6	
350.43	3906.2	
350.63	4708.3	
350.84	5413.5	
351.05	5171.8	
351.25	3596.9	
351.46	3215.3	
351.67	5991.7	
351.87	5085.1	
352.08	3790.1	
352.29	4310.3	
352.49	5901.6	
352.7	5969.8	
352.9	3420.8	
353.11	4304.8	
353.32	6517.3	
353.52	5214.8	
353.73	3392.1	
353.94	4356.7	
354.14	5722.7	
354.35	5488.6	
354.55	3479.5	
354.76	3889.1	
354.97	5661.3	
355.17	5424.4	
355.38	3285.6	
355.59	4559.5	
355.79	5043.5	
356	5492	
356.2	3859.1	
356.41	3305.4	
356.62	4839.4	
356.82	5248.9	
357.03	4123.2	
357.24	3713.7	
357.44	5115.1	
357.65	5204.6	
357.85	4924.7	
358.06	3916.4	
358.27	4790.9	
358.47	5028.4	
358.68	3263.1	
358.88	4091.2	
359.09	5567.7	
359.3	5945.3	
359.5	4820.9	
359.71	4216.8	
359.91	6436.1	
360.12	5725.4	
360.33	4065.9	
360.53	4585.4	
360.74	5029.8	
360.94	5125.4	
361.15	4292.5	
361.36	3517.7	
361.56	5851.7	
361.77	5286.5	
361.97	4754	
362.18	3725.3	
362.38	5854.5	
362.59	4914.4	
362.8	3405.1	
363	3293.1	
363.21	4698	
363.41	5382.1	
363.62	3990.8	
363.83	5053.7	
364.03	5487.9	
364.24	6504.3	
364.44	5098.8	
364.65	5108.3	
364.85	5239.4	
365.06	5076.2	
365.27	3633.1	
365.47	3632.4	
365.68	6199.9	
365.88	5201.2	
366.09	4035.9	
366.29	3693.9	
366.5	5445.5	
366.71	5900.2	
366.91	5018.9	
367.12	4168.3	
367.32	6522.1	
367.53	5745.2	
367.73	4126.7	
367.94	5057.8	
368.14	5682.4	
368.35	6618.4	
368.56	4061.1	
368.76	3484.3	
368.97	5803.3	
369.17	7558.4	
369.38	3598.3	
369.58	3841.3	
369.79	4815.5	
369.99	6137.1	
370.2	4938.3	
370.4	4011.3	
370.61	5481.7	
370.82	6666.1	
371.02	3861.1	
371.23	3226.9	
371.43	4719.2	
371.64	6121.4	
371.84	3882.3	
372.05	5194.3	
372.25	7324.9	
372.46	5793	
372.66	3926	
372.87	3833.8	
373.07	5844.9	
373.28	7478.5	
373.48	4866	
373.69	4621.6	
373.9	5288.5	
374.1	5273.5	
374.31	4795	
374.51	4302.1	
374.72	6111.8	
374.92	4970.4	
375.13	4965.6	
375.33	4194.9	
375.54	5721.3	
375.74	5102.2	
375.95	4233.8	
376.15	5444.9	
376.36	5687.2	
376.56	5476.3	
376.77	4255	
376.97	4722.6	
377.18	6741.2	
377.38	5792.3	
377.59	5055.1	
377.79	3739.6	
378	5548.6	
378.2	6015.6	
378.41	3827.7	
378.61	3732.1	
378.82	6019	
379.02	5141.8	
379.23	3941	
379.43	5029.1	
379.64	6066.1	
379.84	5715.9	
380.05	3827	
380.25	3766.2	
380.46	5821.7	
380.66	5399.1	
380.87	5156.1	
381.07	5524.7	
381.28	6440.2	
381.48	5784.1	
381.69	3835.8	
381.89	3887.7	
382.1	4780.6	
382.3	6064.7	
382.51	4920.6	
382.71	5814.2	
382.91	5874.9	
383.12	6381.5	
383.32	4201.1	
383.53	4409.3	
383.73	5683.1	
383.94	5507.7	
384.14	4289.1	
384.35	3489.1	
384.55	5411.4	
384.76	5948	
384.96	4194.9	
385.17	4537.6	
385.37	5857.9	
385.58	5086.5	
385.78	4593.6	
385.98	3411.9	
386.19	5342.5	
386.39	5716.6	
386.6	3997.6	
386.8	4210.6	
387.01	5858.6	
387.21	5842.9	
387.42	4615.4	
387.62	5196.4	
387.83	5180	
388.03	5889.3	
388.23	4250.9	
388.44	5115.8	
388.64	4871.4	
388.85	4984.8	
389.05	4595	
389.26	5198.4	
389.46	6909.8	
389.67	6196.5	
389.87	4575.8	
390.07	4638.6	
390.28	5496.7	
390.48	5073.5	
390.69	3889.8	
390.89	4152.6	
391.1	5282.4	
391.3	6223.8	
391.5	5376.6	
391.71	5922	
391.91	5894.1	
392.12	6936.5	
392.32	5439.4	
392.53	4631.1	
392.73	5365.7	
392.93	5522	
393.14	4308.9	
393.34	5082.4	
393.55	6065.4	
393.75	5495.4	
393.95	4319.8	
394.16	4261.8	
394.36	5252.4	
394.57	6009.4	
394.77	3828.3	
394.98	4264.6	
395.18	5249.6	
395.38	5486.5	
395.59	5158.2	
395.79	4045.4	
396	5326.1	
396.2	5883.8	
396.4	4900.8	
396.61	4835.3	
396.81	6095.4	
397.02	5294.7	
397.22	5117.9	
397.42	5171.8	
397.63	5973.9	
397.83	5271.5	
398.04	3953.9	
398.24	4545.1	
398.44	5843.5	
398.65	4846.9	
398.85	3865.2	
399.05	4007.9	
399.26	5170.4	
399.46	6974.7	
399.67	4276.8	
399.87	4136.9	
400.07	5608.7	
400.28	5966.4	
400.48	4240.7	
400.69	5178.6	
400.89	6247	
401.09	6621.8	
401.3	4045.4	
401.5	5229.1	
401.7	6890.7	
401.91	7127.6	
402.11	4384	
402.32	4646.2	
402.52	6224.5	
402.72	6124.1	
402.93	4856.4	
403.13	3565.5	
403.33	6914.6	
403.54	5653.8	
403.74	4493.9	
403.94	5411.4	
404.15	5767.8	
404.35	6923.5	
404.56	4362.2	
404.76	6129.6	
404.96	6200.6	
405.17	6029.2	
405.37	5645.6	
405.57	4806.6	
405.78	6253.1	
405.98	5741.8	
406.18	4303.5	
406.39	5218.2	
406.59	6167.1	
406.79	5857.2	
407	4136.2	
407.2	4306.2	
407.4	6343.2	
407.61	6430.6	
407.81	4313.7	
408.01	6154.1	
408.22	5215.5	
408.42	7286.7	
408.62	5364.3	
408.83	4745.8	
409.03	5885.9	
409.23	5714.5	
409.44	4987.5	
409.64	5298.1	
409.84	6813.6	
410.05	6720.8	
410.25	5053.7	
410.45	4827.7	
410.66	6193.7	
410.86	8756.4	
411.06	5319.3	
411.27	5139	
411.47	8486.1	
411.67	6358.9	
411.88	5395	
412.08	5623.7	
412.28	7074.4	
412.49	7507.2	
412.69	5150	
412.89	5171.8	
413.09	7299	
413.3	7150.8	
413.5	5261.9	
413.7	4846.9	
413.91	6458.6	
414.11	7281.9	
414.31	5028.4	
414.52	5481	
414.72	7049.8	
414.92	6963.8	
415.12	5107	
415.33	5666	
415.53	7249.1	
415.73	7475.1	
415.94	6019	
416.14	5433.9	
416.34	6345.3	
416.55	6048.3	
416.75	6651.1	
416.95	6056.5	
417.15	7342.7	
417.36	8071	
417.56	6877.1	
417.76	5948.7	
417.97	7763.2	
418.17	7461.4	
418.37	5475.6	
418.57	5567.1	
418.78	7185.6	
418.98	6793.1	
419.18	6475.7	
419.38	6378.1	
419.59	6874.3	
419.79	6490.7	
419.99	5463.3	
420.2	5908.4	
420.4	7415.7	
420.6	7533.1	
420.8	5391.6	
421.01	5210	
421.21	7176.1	
421.41	7456.7	
421.61	5776.6	
421.82	5490.6	
422.02	6753.5	
422.22	7730.4	
422.42	6292.7	
422.63	5956.2	
422.83	6954.9	
423.03	8056.7	
423.23	5965.7	
423.44	4961.5	
423.64	6875.7	
423.84	6731	
424.04	5390.3	
424.25	5104.9	
424.45	7963.9	
424.65	7783.6	
424.85	4834.6	
425.06	5477	
425.26	7837.6	
425.46	6838.9	
425.66	5859.2	
425.87	5562.3	
426.07	7635.5	
426.27	7456	
426.47	5688.6	
426.67	5155.4	
426.88	7933.8	
427.08	7438.9	
427.28	5978	
427.48	5094.7	
427.69	6398.5	
427.89	6983.6	
428.09	6027.2	
428.29	5190.2	
428.5	7691.5	
428.7	7106.5	
428.9	5100.1	
429.1	5654.4	
429.3	7176.1	
429.51	7560.4	
429.71	5365.7	
429.91	6178.7	
430.11	7455.3	
430.31	7684	
430.52	5716.6	
430.72	5969.1	
430.92	8073.1	
431.12	7510.6	
431.32	5371.8	
431.53	5812.1	
431.73	6391	
431.93	8176.2	
432.13	5289.9	
432.33	5218.2	
432.54	6964.5	
432.74	7328.3	
432.94	5148.6	
433.14	6218.3	
433.34	7463.5	
433.55	6987	
433.75	6198.5	
433.95	7958.4	
434.15	7340.6	
434.35	7006.1	
434.56	5473.5	
434.76	4976.6	
434.96	7274.4	
435.16	7548.1	
435.36	5273.5	
435.56	6346	
435.77	6913.9	
435.97	7102.4	
436.17	7138.5	
436.37	6440.2	
436.57	6962.4	
436.78	6892.1	
436.98	8139.3	
437.18	6981.5	
437.38	7612.3	
437.58	7167.2	
437.78	6963.1	
437.99	5659.9	
438.19	7501	
438.39	8387.1	
438.59	5591	
438.79	5206.6	
438.99	8388.5	
439.2	7117.4	
439.4	5397.1	
439.6	5382.1	
439.8	7578.2	
440	8690.9	
440.2	6410.8	
440.4	6575.3	
440.61	8036.2	
440.81	8634.2	
441.01	5651.7	
441.21	6538.5	
441.41	8317.5	
441.61	7961.8	
441.81	6839.5	
442.02	7808.2	
442.22	8936.7	
442.42	8163.2	
442.62	5702.9	
442.82	5831.9	
443.02	8372.1	
443.22	7638.2	
443.43	6255.9	
443.63	5767.8	
443.83	7299.6	
444.03	7408.2	
444.23	7098.3	
444.43	6573.3	
444.63	7709.9	
444.83	8873.2	
445.04	5851.7	
445.24	7159	
445.44	7961.8	
445.64	8106.5	
445.84	6673.6	
446.04	6627.9	
446.24	7376.1	
446.44	8462.2	
446.65	5886.5	
446.85	6304.3	
447.05	7766.6	
447.25	8362.5	
447.45	6358.3	
447.65	5743.9	
447.85	7785	
448.05	7391.1	
448.25	6810.2	
448.46	6557.6	
448.66	7733.8	
448.86	7532.4	
449.06	5610.8	
449.26	6836.1	
449.46	8165.9	
449.66	7153.6	
449.86	6400.6	
450.06	6327.5	
450.26	7401.4	
450.47	8051.2	
450.67	6580.1	
450.87	6935.8	
451.07	8075.8	
451.27	7925.6	
451.47	5904.3	
451.67	6476.4	
451.87	7537.9	
452.07	8704.5	
452.27	6150.7	
452.47	6076.3	
452.67	7839.6	
452.88	8523	
453.08	5507.7	
453.28	7565.2	
453.48	9110.7	
453.68	7868.3	
453.88	6081.8	
454.08	6337.1	
454.28	8320.9	
454.48	7900.4	
454.68	6920.1	
454.88	7514.7	
455.08	8455.4	
455.28	8206.2	
455.48	6080.4	
455.68	6704.4	
455.89	8987.2	
456.09	8568.7	
456.29	6375.3	
456.49	6501.6	
456.69	8873.8	
456.89	8077.2	
457.09	7049.1	
457.29	7459.4	
457.49	8452.6	
457.69	8639	
457.89	7017	
458.09	6293.4	
458.29	8340.7	
458.49	8946.2	
458.69	7335.1	
458.89	6763.8	
459.09	9209.7	
459.29	9250.7	
459.49	6740.5	
459.69	7599.3	
459.9	8826.7	
460.1	8333.9	
460.3	6761	
460.5	6574	
460.7	8874.5	
460.9	8460.2	
461.1	6201.2	
461.3	7619.8	
461.5	9506.7	
461.7	9092.3	
461.9	6834.1	
462.1	7163.1	
462.3	8667	
462.5	9284.8	
462.7	6810.2	
462.9	7034.1	
463.1	10417	
463.3	10134	
463.5	7239.6	
463.7	8239.7	
463.9	9031.5	
464.1	9330.5	
464.3	7477.1	
464.5	7654.6	
464.7	9613.8	
464.9	9286.2	
465.1	9008.3	
465.3	7966.6	
465.5	10000	
465.7	9985.2	
465.9	8387.1	
466.1	8114.1	
466.3	9901.2	
466.5	9667.8	
466.7	9086.8	
466.9	7873.1	
467.1	9671.2	
467.3	10589	
467.5	9186.5	
467.7	7931.1	
467.9	10777	
468.1	11820	
468.3	8832.9	
468.5	9204.3	
468.7	9685.5	
468.9	9661	
469.1	8338	
469.3	9076.6	
469.5	11729	
469.7	9362.6	
469.9	8742.8	
470.1	8045.8	
470.3	9692.4	
470.5	9751.1	
470.7	9385.8	
470.9	8136.6	
471.1	9521.7	
471.3	9846.6	
471.5	7910.6	
471.69	9859.6	
471.89	9308	
472.09	8869.1	
472.29	8756.4	
472.49	9008.3	
472.69	9136	
472.89	9920.4	
473.09	7837.6	
473.29	7952.9	
473.49	9284.8	
473.69	9469.1	
473.89	9007	
474.09	8168.7	
474.29	10744	
474.49	10473	
474.69	9039.7	
474.89	8274.5	
475.09	9500.5	
475.29	9518.3	
475.49	7711.3	
475.69	8030.1	
475.88	11056	
476.08	9791.3	
476.28	7685.3	
476.48	8101.1	
476.68	10205	
476.88	9994.8	
477.08	7968.6	
477.28	8283.4	
477.48	9602.2	
477.68	10244	
477.88	7740	
478.08	8167.3	
478.28	10484	
478.48	9750.4	
478.67	8170.7	
478.87	7553.6	
479.07	10484	
479.27	9749.7	
479.47	8349.6	
479.67	8409	
479.87	10317	
480.07	10841	
480.27	7586.4	
480.47	9306.7	
480.67	9941.5	
480.87	10585	
481.06	8015.7	
481.26	8855.4	
481.46	9800.2	
481.66	9765.4	
481.86	8500.4	
482.06	9519.6	
482.26	9599.5	
482.46	10541	
482.66	8396.7	
482.86	8037.6	
483.05	10116	
483.25	9465.7	
483.45	10935	
483.65	8489.5	
483.85	9596.8	
484.05	9998.2	
484.25	9019.9	
484.45	9524.4	
484.65	10839	
484.84	10904	
485.04	8492.9	
485.24	8417.2	
485.44	11237	
485.64	9465.7	
485.84	7890.1	
486.04	9283.4	
486.24	9813.2	
486.44	10316	
486.63	7776.8	
486.83	8581.7	
487.03	9918.3	
487.23	10148	
487.43	7957	
487.63	10417	
487.83	10065	
488.02	11232	
488.22	9021.3	
488.42	9639.8	
488.62	11019	
488.82	9899.2	
489.02	8608.3	
489.22	8760.5	
489.41	10871	
489.61	10482	
489.81	8378.9	
490.01	8420.6	
490.21	10880	
490.41	11415	
490.61	8314.8	
490.8	8416.5	
491	10252	
491.2	9613.8	
491.4	9110.7	
491.6	8252.6	
491.8	10292	
491.99	10434	
492.19	8135.9	
492.39	8531.8	
492.59	11039	
492.79	11071	
492.99	9491.7	
493.18	8690.9	
493.38	11142	
493.58	12133	
493.78	9450.7	
493.98	9066.4	
494.18	11032	
494.37	10430	
494.57	9809.1	
494.77	9704	
494.97	11355	
495.17	11702	
495.37	9338.1	
495.56	9572.9	
495.76	11843	
495.96	11524	
496.16	10626	
496.36	9465.7	
496.55	11604	
496.75	11211	
496.95	9762	
497.15	9700.5	
497.35	11670	
497.54	11693	
497.74	9650.7	
497.94	11374	
498.14	12423	
498.34	12267	
498.53	9385.8	
498.73	10224	
498.93	11212	
499.13	11794	
499.33	10172	
499.52	10489	
499.72	11817	
499.92	12095	
500.12	9714.2	
500.32	9998.9	
500.51	11966	
500.71	11819	
500.91	10826	
501.11	10442	
501.31	12035	
501.5	12411	
501.7	11101	
501.9	10041	
502.1	11748	
502.29	12070	
502.49	10521	
502.69	10911	
502.89	11988	
503.09	11909	
503.28	9449.3	
503.48	9619.3	
503.68	11161	
503.88	11243	
504.07	10510	
504.27	9985.9	
504.47	11592	
504.67	11661	
504.86	10449	
505.06	10157	
505.26	11194	
505.46	12928	
505.65	9878.7	
505.85	10142	
506.05	11046	
506.25	11647	
506.44	9295	
506.64	10211	
506.84	11063	
507.04	11951	
507.23	9536	
507.43	10058	
507.63	12982	
507.83	11237	
508.02	10077	
508.22	9633	
508.42	13291	
508.62	11015	
508.81	9968.8	
509.01	10596	
509.21	10877	
509.4	11311	
509.6	10165	
509.8	9630.2	
510	11237	
510.19	12764	
510.39	9508	
510.59	9666.4	
510.79	11096	
510.98	12368	
511.18	9656.2	
511.38	9720.3	
511.57	11759	
511.77	11723	
511.97	10359	
512.17	9319.6	
512.36	11839	
512.56	11794	
512.76	9480.7	
512.95	9273.2	
513.15	12042	
513.35	10724	
513.55	10487	
513.74	9592.7	
513.94	11872	
514.14	11298	
514.33	10617	
514.53	10385	
514.73	11283	
514.92	11495	
515.12	9913.5	
515.32	9645.3	
515.51	11658	
515.71	12273	
515.91	11532	
516.11	9700.5	
516.3	13396	
516.5	11204	
516.7	10348	
516.89	10840	
517.09	11356	
517.29	11341	
517.48	10546	
517.68	10021	
517.88	11085	
518.07	11712	
518.27	10589	
518.47	9538.1	
518.66	12370	
518.86	10994	
519.06	9357.2	
519.25	9904.7	
519.45	11255	
519.65	12816	
519.84	10544	
520.04	11173	
520.24	13112	
520.43	11813	
520.63	10091	
520.83	9911.5	
521.02	11049	
521.22	11638	
521.42	10513	
521.61	11078	
521.81	11299	
522.01	11682	
522.2	10402	
522.4	10159	
522.6	12239	
522.79	11058	
522.99	10340	
523.18	9748.3	
523.38	12054	
523.58	12145	
523.77	11834	
523.97	9881.4	
524.17	14070	
524.36	13187	
524.56	11330	
524.76	10933	
524.95	12267	
525.15	11948	
525.34	10785	
525.54	10727	
525.74	12754	
525.93	11624	
526.13	11916	
526.33	10899	
526.52	13037	
526.72	12655	
526.91	12117	
527.11	11413	
527.31	13106	
527.5	13484	
527.7	11409	
527.89	10444	
528.09	12320	
528.29	12854	
528.48	11783	
528.68	11495	
528.87	13130	
529.07	13054	
529.27	11231	
529.46	10670	
529.66	12468	
529.85	12906	
530.05	10455	
530.25	11299	
530.44	14050	
530.64	12606	
530.83	11151	
531.03	11467	
531.23	13291	
531.42	13118	
531.62	12438	
531.81	11527	
532.01	13545	
532.21	14080	
532.4	11355	
532.6	11759	
532.79	14436	
532.99	13704	
533.18	11860	
533.38	12888	
533.58	13325	
533.77	14048	
533.97	11860	
534.16	12695	
534.36	14293	
534.55	13371	
534.75	12768	
534.95	12006	
535.14	14117	
535.34	13269	
535.53	11437	
535.73	13452	
535.92	14706	
536.12	13388	
536.31	11639	
536.51	12868	
536.71	13661	
536.9	13332	
537.1	11809	
537.29	12052	
537.49	14219	
537.68	13275	
537.88	12508	
538.07	11792	
538.27	13542	
538.46	14560	
538.66	11574	
538.86	12065	
539.05	13551	
539.25	13899	
539.44	12308	
539.64	11748	
539.83	13353	
540.03	14313	
540.22	11688	
540.42	11680	
540.61	13583	
540.81	13773	
541	12195	
541.2	12962	
541.39	13122	
541.59	13620	
541.78	12547	
541.98	11535	
542.18	12710	
542.37	12653	
542.57	11875	
542.76	12464	
542.96	12697	
543.15	13448	
543.35	11858	
543.54	11090	
543.74	13722	
543.93	13170	
544.13	11840	
544.32	13069	
544.52	13546	
544.71	12729	
544.91	10770	
545.1	12148	
545.3	12764	
545.49	13440	
545.69	10830	
545.88	11441	
546.08	14397	
546.27	13973	
546.47	11981	
546.66	11273	
546.86	13627	
547.05	14347	
547.24	11503	
547.44	11460	
547.63	12629	
547.83	13627	
548.02	11670	
548.22	11916	
548.41	12326	
548.61	13697	
548.8	11178	
549	11223	
549.19	12949	
549.39	13272	
549.58	10808	
549.78	11475	
549.97	13401	
550.17	12843	
550.36	12119	
550.55	13353	
550.75	12885	
550.94	13758	
551.14	10993	
551.33	11491	
551.53	12237	
551.72	13138	
551.92	11417	
552.11	11337	
552.31	13211	
552.5	13192	
552.69	12884	
552.89	10789	
553.08	13135	
553.28	12915	
553.47	11187	
553.67	12370	
553.86	13770	
554.06	12044	
554.25	10396	
554.44	11015	
554.64	14439	
554.83	13971	
555.03	10894	
555.22	11342	
555.42	13312	
555.61	12994	
555.8	11152	
556	11460	
556.19	12128	
556.39	13398	
556.58	11204	
556.78	11260	
556.97	12930	
557.16	12617	
557.36	12373	
557.55	10843	
557.75	11923	
557.94	13708	
558.13	10808	
558.33	10621	
558.52	13404	
558.72	12158	
558.91	10716	
559.1	10862	
559.3	11936	
559.49	11657	
559.69	10325	
559.88	11216	
560.07	12738	
560.27	13241	
560.46	11485	
560.66	11533	
560.85	12581	
561.04	11678	
561.24	10675	
561.43	10684	
561.63	12016	
561.82	12321	
562.01	12211	
562.21	11272	
562.4	12747	
562.59	13741	
562.79	11130	
562.98	10767	
563.18	12661	
563.37	14228	
563.56	11548	
563.76	10718	
563.95	12145	
564.14	12204	
564.34	11124	
564.53	10888	
564.73	12729	
564.92	13151	
565.11	11333	
565.31	10739	
565.5	13404	
565.69	12394	
565.89	10899	
566.08	11247	
566.27	13203	
566.47	13755	
566.66	11839	
566.85	10529	
567.05	12911	
567.24	12202	
567.44	10908	
567.63	12380	
567.82	13145	
568.02	12920	
568.21	10957	
568.4	11334	
568.6	12813	
568.79	12824	
568.98	10740	
569.18	11034	
569.37	12908	
569.56	14769	
569.76	11357	
569.95	12257	
570.14	13061	
570.34	13011	
570.53	10856	
570.72	10766	
570.91	13564	
571.11	12697	
571.3	11337	
571.49	12225	
571.69	12749	
571.88	12404	
572.07	11895	
572.27	11869	
572.46	12344	
572.65	13457	
572.85	11226	
573.04	11460	
573.23	13648	
573.43	13054	
573.62	11054	
573.81	11761	
574	13110	
574.2	12985	
574.39	11488	
574.58	11709	
574.78	14107	
574.97	13341	
575.16	12041	
575.36	12258	
575.55	13689	
575.74	13842	
575.93	11013	
576.13	12275	
576.32	13102	
576.51	13601	
576.71	11630	
576.9	12865	
577.09	13937	
577.28	13501	
577.48	12147	
577.67	11034	
577.86	13182	
578.05	13599	
578.25	11785	
578.44	11941	
578.63	13286	
578.83	14489	
579.02	11188	
579.21	12740	
579.4	13539	
579.6	13284	
579.79	11936	
579.98	14149	
580.17	13962	
580.37	14047	
580.56	11482	
580.75	12320	
580.94	14536	
581.14	14252	
581.33	12826	
581.52	11610	
581.71	13944	
581.91	14496	
582.1	11353	
582.29	12041	
582.48	13523	
582.68	13349	
582.87	12495	
583.06	12110	
583.25	13850	
583.45	13163	
583.64	12811	
583.83	13560	
584.02	13337	
584.21	13795	
584.41	12710	
584.6	12100	
584.79	13509	
584.98	14257	
585.18	11534	
585.37	11515	
585.56	12962	
585.75	13893	
585.94	11604	
586.14	12290	
586.33	14318	
586.52	13374	
586.71	11984	
586.91	11870	
587.1	12626	
587.29	13702	
587.48	11583	
587.67	11524	
587.87	13451	
588.06	13525	
588.25	12803	
588.44	12033	
588.63	12908	
588.83	13545	
589.02	11194	
589.21	11004	
589.4	12498	
589.59	12199	
589.78	9975.7	
589.98	10301	
590.17	11822	
590.36	12339	
590.55	9749.7	
590.74	10429	
590.94	13738	
591.13	12333	
591.32	10436	
591.51	9922.4	
591.7	12900	
591.89	12403	
592.09	10047	
592.28	10576	
592.47	11492	
592.66	13536	
592.85	10171	
593.05	10317	
593.24	12074	
593.43	12849	
593.62	10458	
593.81	10992	
594	12231	
594.19	12439	
594.39	10378	
594.58	10238	
594.77	12428	
594.96	12988	
595.15	10126	
595.34	10797	
595.54	12482	
595.73	11548	
595.92	9474.6	
596.11	10632	
596.3	12908	
596.49	11721	
596.68	10460	
596.88	10839	
597.07	12742	
597.26	11507	
597.45	9938.1	
597.64	11222	
597.83	11802	
598.02	12478	
598.22	10008	
598.41	10823	
598.6	12187	
598.79	11569	
598.98	10093	
599.17	11044	
599.36	12205	
599.55	13388	
599.74	12178	
599.94	11970	
600.13	12809	
600.32	11489	
600.51	9889	
600.7	10032	
600.89	13321	
601.08	13430	
601.27	9742.9	
601.47	10829	
601.66	12605	
601.85	13276	
602.04	10510	
602.23	10729	
602.42	11707	
602.61	12379	
602.8	10345	
602.99	10200	
603.18	12145	
603.37	12343	
603.57	10920	
603.76	11362	
603.95	13046	
604.14	12602	
604.33	10266	
604.52	10578	
604.71	12473	
604.9	11900	
605.09	11161	
605.28	10977	
605.47	12846	
605.66	12437	
605.86	10819	
606.05	10264	
606.24	12896	
606.43	11441	
606.62	10593	
606.81	11374	
607	12646	
607.19	11933	
607.38	10008	
607.57	10278	
607.76	11720	
607.95	11176	
608.14	10564	
608.33	11198	
608.52	11682	
608.72	12634	
608.91	9843.9	
609.1	9775	
609.29	11843	
609.48	11298	
609.67	10817	
609.86	9800.9	
610.05	11318	
610.24	11724	
610.43	9587.2	
610.62	9243.2	
610.81	12872	
611	12702	
611.19	9789.3	
611.38	10520	
611.57	12095	
611.76	13411	
611.95	9530.6	
612.14	9423.4	
612.33	11930	
612.52	11372	
612.71	10186	
612.9	9213.8	
613.09	11037	
613.28	13306	
613.47	9682.8	
613.66	10871	
613.85	11921	
614.04	11484	
614.24	9934.7	
614.43	9045.9	
614.62	12138	
614.81	12076	
615	10578	
615.19	10555	
615.38	11271	
615.57	11669	
615.76	10374	
615.95	11328	
616.14	12160	
616.33	11804	
616.52	10636	
616.71	10972	
616.9	12151	
617.09	12005	
617.28	10028	
617.47	11381	
617.66	11292	
617.85	11411	
618.04	11163	
618.22	10479	
618.41	11704	
618.6	12661	
618.79	10446	
618.98	10195	
619.17	13013	
619.36	11332	
619.55	10397	
619.74	10329	
619.93	12288	
620.12	11769	
620.31	10993	
620.5	11407	
620.69	12989	
620.88	13301	
621.07	11977	
621.26	11019	
621.45	12580	
621.64	12594	
621.83	11199	
622.02	10348	
622.21	12644	
622.4	12234	
622.59	11667	
622.78	11581	
622.97	11997	
623.16	12976	
623.35	10939	
623.54	10161	
623.72	12274	
623.91	12477	
624.1	11379	
624.29	10109	
624.48	13472	
624.67	12618	
624.86	11451	
625.05	10411	
625.24	13526	
625.43	11945	
625.62	13061	
625.81	10615	
626	13031	
626.19	12342	
626.38	11484	
626.56	10760	
626.75	12048	
626.94	12883	
627.13	11240	
627.32	10075	
627.51	12669	
627.7	13939	
627.89	9941.5	
628.08	11312	
628.27	11907	
628.46	12198	
628.65	10471	
628.83	10170	
629.02	12730	
629.21	11993	
629.4	10899	
629.59	11183	
629.78	11927	
629.97	12809	
630.16	11271	
630.35	10727	
630.54	13280	
630.72	13079	
630.91	10634	
631.1	11255	
631.29	12465	
631.48	12824	
631.67	11318	
631.86	10709	
632.05	12172	
632.24	12264	
632.42	10381	
632.61	11088	
632.8	12320	
632.99	11940	
633.18	10991	
633.37	11400	
633.56	12506	
633.75	12417	
633.93	11070	
634.12	10690	
634.31	13427	
634.5	13128	
634.69	10780	
634.88	11146	
635.07	12222	
635.25	12837	
635.44	11581	
635.63	11866	
635.82	12232	
636.01	11794	
636.2	11522	
636.39	11071	
636.57	13372	
636.76	13030	
636.95	10445	
637.14	11945	
637.33	12650	
637.52	13596	
637.7	10301	
637.89	11273	
638.08	12123	
638.27	13615	
638.46	11297	
638.65	11672	
638.83	13515	
639.02	11972	
639.21	11083	
639.4	11641	
639.59	12385	
639.78	11862	
639.96	10434	
640.15	10397	
640.34	12299	
640.53	12344	
640.72	10031	
640.91	10449	
641.09	11619	
641.28	12994	
641.47	10649	
641.66	11299	
641.85	12207	
642.03	12495	
642.22	10961	
642.41	10471	
642.6	11713	
642.79	11048	
642.97	10161	
643.16	10978	
643.35	11660	
643.54	11302	
643.73	10015	
643.91	10840	
644.1	11039	
644.29	11717	
644.48	10008	
644.67	10008	
644.85	11076	
645.04	11388	
645.23	9416.6	
645.42	9813.2	
645.6	10940	
645.79	12088	
645.98	9678.7	
646.17	8648.6	
646.36	10649	
646.54	11172	
646.73	10217	
646.92	9021.3	
647.11	10641	
647.29	11708	
647.48	9094.3	
647.67	8863.6	
647.86	11947	
648.05	12077	
648.23	9442.5	
648.42	10770	
648.61	11443	
648.8	11262	
648.98	9222.7	
649.17	9540.8	
649.36	10836	
649.55	10320	
649.73	9157.8	
649.92	9950.4	
650.11	10599	
650.3	10841	
650.48	9249.3	
650.67	9068.4	
650.86	11161	
651.05	10006	
651.23	9300.5	
651.42	9201.5	
651.61	10628	
651.79	10711	
651.98	9438.4	
652.17	9035	
652.36	11069	
652.54	10084	
652.73	9045.2	
652.92	8788.5	
653.11	10950	
653.29	10972	
653.48	8136.6	
653.67	9198.8	
653.85	10556	
654.04	11569	
654.23	9148.3	
654.42	8613.1	
654.6	9926.5	
654.79	10482	
654.98	8105.2	
655.16	8673.8	
655.35	9460.3	
655.54	9471.9	
655.73	8263.6	
655.91	8268.3	
656.1	10853	
656.29	9617.9	
656.47	7957	
656.66	9717.6	
656.85	9934	
657.03	10023	
657.22	8531.8	
657.41	8661.5	
657.59	10021	
657.78	9891	
657.97	8202.1	
658.16	9038.4	
658.34	10727	
658.53	11144	
658.72	9934.7	
658.9	10357	
659.09	10066	
659.28	10317	
659.46	8791.2	
659.65	8639	
659.84	10104	
660.02	10592	
660.21	8497	
660.4	8534.6	
660.58	11054	
660.77	10305	
660.96	9148.3	
661.14	8213.7	
661.33	11402	
661.52	11342	
661.7	8099.7	
661.89	11860	
662.08	9880.1	
662.26	9388.6	
662.45	8284.7	
662.64	8495.7	
662.82	10486	
663.01	9861.7	
663.2	8437.6	
663.38	9320.3	
663.57	10412	
663.75	10312	
663.94	8834.3	
664.13	10013	
664.31	9787.2	
664.5	10475	
664.69	9172.2	
664.87	9535.3	
665.06	9573.6	
665.25	10329	
665.43	9800.9	
665.62	9838.4	
665.8	10535	
665.99	9820	
666.18	8706.6	
666.36	8872.5	
666.55	10561	
666.74	10454	
666.92	8220.5	
667.11	9929.9	
667.29	9806.4	
667.48	10460	
667.67	9555.1	
667.85	8841.8	
668.04	9924.5	
668.22	9936.7	
668.41	8729.8	
668.6	8854.1	
668.78	9853.5	
668.97	9889.6	
669.15	9157.8	
669.34	8004.8	
669.53	9684.2	
669.71	10008	
669.9	8286.8	
670.08	8867	
670.27	9777	
670.46	10262	
670.64	9082.1	
670.83	9422	
671.01	9510.8	
671.2	10152	
671.38	8333.9	
671.57	8217.1	
671.76	10772	
671.94	11410	
672.13	8116.1	
672.31	9201.5	
672.5	10389	
672.69	9661	
672.87	8323.6	
673.06	8695	
673.24	10274	
673.43	9731.3	
673.61	9022.7	
673.8	8592.6	
673.98	10342	
674.17	10579	
674.36	9208.4	
674.54	9052.7	
674.73	10120	
674.91	10365	
675.1	8779	
675.28	8394.6	
675.47	9944.3	
675.65	10542	
675.84	8536.6	
676.03	9086.8	
676.21	9667.1	
676.4	9237	
676.58	9377	
676.77	9159.9	
676.95	11138	
677.14	9577	
677.32	8249.2	
677.51	8085.4	
677.69	10455	
677.88	9354.4	
678.06	8213.7	
678.25	8260.8	
678.44	9923.8	
678.62	9651.4	
678.81	7918.8	
678.99	9052	
679.18	10724	
679.36	10350	
679.55	8533.9	
679.73	9232.2	
679.92	10323	
680.1	9658.9	
680.29	9854.1	
680.47	8613.1	
680.66	9674.6	
680.84	10451	
681.03	7835.5	
681.21	8864.3	
681.4	9679.4	
681.58	9566.7	
681.77	8372.1	
681.95	8239	
682.14	10526	
682.32	10874	
682.51	9167.4	
682.69	7877.2	
682.88	9581.8	
683.06	10246	
683.25	8792.6	
683.43	9318.3	
683.62	9805.7	
683.8	10254	
683.99	9226.8	
684.17	8446.5	
684.36	10727	
684.54	9287.5	
684.73	7315.3	
684.91	7499.7	
685.1	9456.2	
685.28	8867.7	
685.46	8099.7	
685.65	8264.2	
685.83	9895.1	
686.02	9245.2	
686.2	7802.8	
686.39	7993.2	
686.57	8945.5	
686.76	10617	
686.94	7821.2	
687.13	8021.2	
687.31	9862.3	
687.5	9342.2	
687.68	7468.9	
687.86	8800.8	
688.05	11137	
688.23	8912.1	
688.42	8865.7	
688.6	8021.9	
688.79	9364	
688.97	9390.6	
689.16	8489.5	
689.34	7413.6	
689.52	10211	
689.71	10350	
689.89	8710	
690.08	7970	
690.26	9677.3	
690.45	9515.5	
690.63	8850.6	
690.81	8064.2	
691	9252.7	
691.18	9247.9	
691.37	8124.3	
691.55	10439	
691.74	9113.5	
691.92	11209	
692.1	8249.9	
692.29	7552.2	
692.47	9465	
692.66	8827.4	
692.84	7967.3	
693.02	8634.9	
693.21	9009	
693.39	9424.1	
693.58	8710.7	
693.76	8151.6	
693.94	10850	
694.13	10646	
694.31	8200.1	
694.5	9275.3	
694.68	9511.4	
694.86	9832.3	
695.05	8546.9	
695.23	8722.3	
695.42	10143	
695.6	12446	
695.78	9164.7	
695.97	8254	
696.15	10107	
696.34	9531.9	
696.52	7974.1	
696.7	8681.3	
696.89	9773.6	
697.07	9224.7	
697.25	8633.6	
697.44	10237	
697.62	9733.3	
697.81	10122	
697.99	8310	
698.17	8749.6	
698.36	9084.8	
698.54	9807.7	
698.72	8728.4	
698.91	7599.3	
699.09	9344.9	
699.28	9237.7	
699.46	8336.6	
699.64	8174.8	
699.83	9222	
700.01	10395	
700.19	8963.3	
700.38	7494.2	
700.56	10503	
700.74	9385.8	
700.93	7896.3	
701.11	8681.3	
701.29	10050	
701.48	11074	
701.66	8135.9	
701.84	8209.6	
702.03	9531.9	
702.21	10254	
702.39	7703.1	
702.58	8399.4	
702.76	9931.3	
702.94	10053	
703.13	7746.1	
703.31	10219	
703.49	9355.8	
703.68	10148	
703.86	7990.5	
704.04	8932.6	
704.23	9833	
704.41	10292	
704.59	8163.9	
704.78	9357.9	
704.96	10899	
705.14	10313	
705.33	7888.1	
705.51	8706.6	
705.69	9573.6	
705.87	10500	
706.06	8982.4	
706.24	7774.8	
706.42	9935.4	
706.61	10233	
706.79	9037	
706.97	7851.2	
707.16	9426.1	
707.34	10015	
707.52	9024	
707.7	8157.7	
707.89	9503.3	
708.07	9234.3	
708.25	9022.7	
708.44	9108.7	
708.62	9493	
708.8	10464	
708.98	9262.3	
709.17	8264.2	
709.35	9766.8	
709.53	9893.1	
709.72	7912	
709.9	8013	
710.08	10003	
710.26	10136	
710.45	9529.2	
710.63	8178.2	
710.81	9714.9	
710.99	9784.5	
711.18	8787.8	
711.36	8251.3	
711.54	9480.7	
711.72	10148	
711.91	8205.5	
712.09	7595.9	
712.27	9555.8	
712.45	10109	
712.64	8426	
712.82	7301	
713	8792.6	
713.18	8863.6	
713.37	7239.6	
713.55	8428.8	
713.73	9438.4	
713.91	7913.4	
714.1	7283.9	
714.28	6681.8	
714.46	8845.2	
714.64	7985	
714.83	5945.9	
715.01	6795.8	
715.19	7955	
715.37	7366.5	
715.55	6404	
715.74	6651.1	
715.92	8826.7	
716.1	6882.5	
716.28	7888.8	
716.47	6875.7	
716.65	7557.7	
716.83	7621.2	
717.01	6711.9	
717.19	6782.2	
717.38	9845.3	
717.56	7499.7	
717.74	7194.5	
717.92	6368.5	
718.1	8918.2	
718.29	8085.4	
718.47	6161.7	
718.65	6810.2	
718.83	8843.8	
719.01	8820.6	
719.2	6083.1	
719.38	7137.2	
719.56	8490.2	
719.74	10029	
719.92	6587	
720.11	7573.4	
720.29	8329.1	
720.47	7422.5	
720.65	5997.1	
720.83	6789.7	
721.02	7744.7	
721.2	7516.7	
721.38	6883.9	
721.56	6105	
721.74	6875.7	
721.92	7191.8	
722.11	7348.8	
722.29	7035.5	
722.47	8361.9	
722.65	7572	
722.83	6106.4	
723.01	6995.2	
723.2	7634.1	
723.38	7915.4	
723.56	5596.4	
723.74	6707.1	
723.92	7159.7	
724.1	8375.5	
724.29	5951.4	
724.47	7215.7	
724.65	7216.4	
724.83	7165.8	
725.01	5886.5	
725.19	6883.2	
725.37	7273.7	
725.56	7247.8	
725.74	5735	
725.92	6029.9	
726.1	7171.3	
726.28	7464.2	
726.46	6502.3	
726.64	6219	
726.83	7353.6	
727.01	7674.4	
727.19	5795.8	
727.37	6642.2	
727.55	7516.7	
727.73	8134.5	
727.91	5797.8	
728.09	5704.3	
728.28	8188.5	
728.46	8811	
728.64	6883.9	
728.82	6849.1	
729	9478	
729.18	8699.1	
729.36	6144.6	
729.54	8388.5	
729.72	9788.6	
729.91	8010.3	
730.09	8172.8	
730.27	6950.1	
730.45	7957	
730.63	8611	
730.81	7549.5	
730.99	6576.7	
731.17	9174.2	
731.35	7576.8	
731.53	7107.8	
731.71	6707.8	
731.9	8828.8	
732.08	8984.4	
732.26	7009.5	
732.44	6580.1	
732.62	8958.5	
732.8	8525	
732.98	7443.7	
733.16	6425.2	
733.34	8518.9	
733.52	7254.6	
733.7	6918	
733.88	7189.7	
734.07	8383	
734.25	8159.1	
734.43	6427.2	
734.61	8087.4	
734.79	9717.6	
734.97	8047.2	
735.15	6587.6	
735.33	6847.7	
735.51	8329.8	
735.69	8083.3	
735.87	8056	
736.05	7075.7	
736.23	8289.5	
736.41	8007.6	
736.59	6913.3	
736.77	7006.1	
736.95	8786.5	
737.13	8085.4	
737.32	6665.5	
737.5	6868.2	
737.68	9317.6	
737.86	8017.8	
738.04	6429.3	
738.22	8286.8	
738.4	7847.8	
738.58	8157.1	
738.76	7048.4	
738.94	5882.4	
739.12	7942.7	
739.3	7912.7	
739.48	7734.5	
739.66	7456	
739.84	8270.4	
740.02	8227.4	
740.2	6186.2	
740.38	6450.4	
740.56	8667	
740.74	7522.2	
740.92	7152.9	
741.1	7071.6	
741.28	8058.1	
741.46	7878.5	
741.64	6653.2	
741.82	7170.6	
742	8040.3	
742.18	8060.1	
742.36	6926.2	
742.54	6399.2	
742.72	8568	
742.9	7361.8	
743.08	7325.6	
743.26	6035.4	
743.44	8905.3	
743.62	8612.4	
743.8	7457.3	
743.98	6412.9	
744.16	8373.5	
744.34	8004.8	
744.52	7288.7	
744.7	7178.1	
744.88	8466.3	
745.06	7979.6	
745.24	7235.5	
745.42	7459.4	
745.6	8473.8	
745.78	8146.8	
745.96	6044.2	
746.14	6361	
746.32	9270.5	
746.5	8502.5	
746.68	7010.9	
746.86	6421.1	
747.03	8949.6	
747.21	7225.9	
747.39	6952.2	
747.57	6378.1	
747.75	8110	
747.93	8492.9	
748.11	6390.3	
748.29	6265.4	
748.47	9708.7	
748.65	7736.5	
748.83	7185.6	
749.01	6918	
749.19	8240.3	
749.37	7435.5	
749.55	6691.4	
749.73	6673	
749.91	7946.1	
750.09	7706.5	
750.26	6861.4	
750.44	6227.9	
750.62	8040.3	
750.8	7928.4	
750.98	6038.1	
751.16	6443.6	
751.34	8072.4	
751.52	7378.8	
751.7	7279.2	
751.88	6086.6	
752.06	8559.8	
752.24	8364.6	
752.42	5993	
752.59	6367.1	
752.77	7956.4	
752.95	9298.5	
753.13	7161.7	
753.31	6559	
753.49	7634.1	
753.67	8115.4	
753.85	6765.8	
754.03	6328.9	
754.21	8309.3	
754.38	8630.8	
754.56	6429.3	
754.74	5369.1	
754.92	7482.6	
755.1	8028	
755.28	5175.9	
755.46	5013.4	
755.64	8245.8	
755.82	8236.9	
755.99	4866	
756.17	4866.7	
756.35	5328.8	
756.53	6903	
756.71	3654.9	
756.89	4624.3	
757.07	6619.7	
757.25	5674.2	
757.42	5401.9	
757.6	6336.4	
757.78	6983.6	
757.96	6032.6	
758.14	5311.7	
758.32	4707.6	
758.5	5513.8	
758.67	6305.7	
758.85	4984.8	
759.03	5058.5	
759.21	6437.4	
759.39	5847	
759.57	4529.4	
759.75	5743.2	
759.92	7177.4	
760.1	6457.2	
760.28	6174.6	
760.46	6550.8	
760.64	6313.9	
760.82	6054.5	
760.99	6254.5	
761.17	5437.4	
761.35	7353.6	
761.53	6311.8	
761.71	5603.2	
761.89	6335.1	
762.06	7311.9	
762.24	6834.8	
762.42	5773.9	
762.6	5601.2	
762.78	6957.6	
762.96	7643.7	
763.13	6281.8	
763.31	5967.8	
763.49	7800.7	
763.67	6871.6	
763.85	6840.2	
764.02	7448.5	
764.2	8112.7	
764.38	7283.9	
764.56	5806	
764.74	6633.4	
764.91	8190.5	
765.09	7034.8	
765.27	5522	
765.45	5339.7	
765.63	8211	
765.8	8066.3	
765.98	4998.4	
766.16	5410.7	
766.34	6597.9	
766.52	6277	
766.69	6336.4	
766.87	5089.2	
767.05	7002.7	
767.23	7707.9	
767.41	5406	
767.58	5655.1	
767.76	7487.4	
767.94	7593.2	
768.12	5512.4	
768.29	6298.2	
768.47	6954.2	
768.65	7740.6	
768.83	5082.4	
769	6290	
769.18	6482.5	
769.36	7211.6	
769.54	6266.1	
769.72	5083.1	
769.89	7416.4	
770.07	7541.3	
770.25	5388.2	
770.43	6637.5	
770.6	8147.5	
770.78	8686.8	
770.96	5527.5	
771.14	6146.6	
771.31	7258.7	
771.49	6531.7	
771.67	4696	
771.85	4965.6	
772.02	5790.3	
772.2	6529.6	
772.38	5560.9	
772.55	5146.5	
772.73	6803.4	
772.91	6609.5	
773.09	5421.7	
773.26	5555.5	
773.44	6680.5	
773.62	6370.5	
773.8	4939	
773.97	4633.9	
774.15	6776.7	
774.33	6287.3	
774.5	4753.3	
774.68	5108.3	
774.86	6954.2	
775.04	6375.3	
775.21	4763.6	
775.39	4773.8	
775.57	6618.4	
775.74	7035.5	
775.92	4631.1	
776.1	4528.1	
776.27	6479.1	
776.45	7832.8	
776.63	4724	
776.81	4261.1	
776.98	6184.9	
777.16	7248.4	
777.34	4860.5	
777.51	4881	
777.69	6097.5	
777.87	5906.3	
778.04	4826.4	
778.22	5534.3	
778.4	5900.2	
778.57	6585.6	
778.75	4100.7	
778.93	4350.6	
779.1	5678.3	
779.28	5491.3	
779.46	4089.1	
779.64	4617.5	
779.81	6670.9	
779.99	7536.5	
780.17	5376.6	
780.34	5475.6	
780.52	6072.9	
780.69	6260.6	
780.87	4869.4	
781.05	4407.2	
781.22	6154.1	
781.4	6151.4	
781.58	4536.3	
781.75	3675.4	
781.93	6093.4	
782.11	5462.6	
782.28	5343.8	
782.46	4429.8	
782.64	5315.2	
782.81	6315.3	
782.99	4553.3	
783.17	4540.3	
783.34	6106.4	
783.52	5323.4	
783.69	4698	
783.87	5524.7	
784.05	5445.5	
784.22	5445.5	
784.4	5479.7	
784.58	4736.3	
784.75	6336.4	
784.93	5397.1	
785.1	4440	
785.28	5075.5	
785.46	6009.4	
785.63	5326.8	
785.81	4322.6	
785.99	4250.2	
786.16	5533.6	
786.34	5913.9	
786.51	4193.6	
786.69	4662.5	
786.87	5103.5	
787.04	5618.9	
787.22	4079.6	
787.39	5052.3	
787.57	5274.9	
787.75	6438.1	
787.92	5180.7	
788.1	5014.1	
788.27	5356.8	
788.45	5134.9	
788.63	4851.6	
788.8	3502	
788.98	5635.3	
789.15	5022.3	
789.33	3704.8	
789.5	4260.5	
789.68	6223.8	
789.86	6376.7	
790.03	4772.4	
790.21	4176.5	
790.38	6274.3	
790.56	5431.9	
790.73	3991.5	
790.91	3999.7	
791.09	5324	
791.26	6051.1	
791.44	4268.6	
791.61	3704.1	
791.79	5204.6	
791.96	5304.2	
792.14	3810.6	
792.32	3348.4	
792.49	5298.1	
792.67	5346.6	
792.84	3836.5	
793.02	3642	
793.19	5663.3	
793.37	6429.9	
793.54	3364.1	
793.72	3792.8	
793.89	6516	
794.07	5232.6	
794.25	4352.6	
794.42	3426.3	
794.6	6246.3	
794.77	5976.7	
794.95	4597.7	
795.12	4006.5	
795.3	5195.7	
795.47	5853.1	
795.65	4405.2	
795.82	4244.1	
796	5051	
796.17	6931.7	
796.35	4160.1	
796.52	4805.9	
796.7	5722.7	
796.87	5813.5	
797.05	5086.5	
797.22	4982	
797.4	5761.6	
797.57	6848.4	
797.75	4217.5	
797.92	4003.1	
798.1	6035.4	
798.27	5137	
798.45	3443.3	
798.62	3694.5	
798.8	5472.9	
798.97	6038.1	
799.15	4474.8	
799.32	4250.2	
799.5	4724	
799.67	5604.6	
799.85	4624.3	
800.02	3344.3	
800.2	5063.3	
800.37	5493.3	
800.55	4740.4	
800.72	3981.9	
800.9	5945.9	
801.07	6363	
801.25	5287.2	
801.42	4318.5	
801.6	5984.8	
801.77	5641.5	
801.95	4012.7	
802.12	3850.2	
802.29	5699.5	
802.47	5646.9	
802.64	4286.4	
802.82	3220.1	
802.99	5060.5	
803.17	6128.2	
803.34	4176.5	
803.52	3759.4	
803.69	6779.5	
803.87	4856.4	
804.04	4123.9	
804.21	4304.1	
804.39	6199.2	
804.56	5326.8	
804.74	3525.2	
804.91	4380.6	
805.09	5051	
805.26	5235.3	
805.44	3601.7	
805.61	3996.3	
805.78	5780.7	
805.96	5866.1	
806.13	4313.7	
806.31	4648.2	
806.48	4655.7	
806.66	5206.6	
806.83	4288.4	
807	4199	
807.18	5109.7	
807.35	5488.6	
807.53	4149.9	
807.7	3352.5	
807.87	6268.8	
808.05	5160.9	
808.22	4621.6	
808.4	3347.1	
808.57	5138.4	
808.74	4821.6	
808.92	3819.5	
809.09	4842.8	
809.27	5032.5	
809.44	5657.2	
809.61	3343	
809.79	3787.4	
809.96	6304.3	
810.14	5853.1	
810.31	3289.7	
810.48	4001.7	
810.66	5225.7	
810.83	5975.3	
811.01	3813.3	
811.18	4317.1	
811.35	5822.4	
811.53	4530.1	
811.7	4624.3	
811.87	4350.6	
812.05	5132.2	
812.22	5048.9	
812.39	3715	
812.57	3600.3	
812.74	5147.9	
812.92	6823.8	
813.09	3994.2	
813.26	4373.1	
813.44	6485.9	
813.61	5015.5	
813.78	3368.2	
813.96	4447.5	
814.13	5146.5	
814.3	4843.4	
814.48	4851.6	
814.65	4053.6	
814.82	6386.2	
815	4901.5	
815.17	4154	
815.34	5031.9	
815.52	5034.6	
815.69	5037.3	
815.87	4067.9	
816.04	3491.1	
816.21	5189.6	
816.38	4531.5	
816.56	3958	
816.73	3652.9	
816.9	6425.2	
817.08	5913.9	
817.25	3724.6	
817.42	4692.6	
817.6	4676.9	
817.77	5150	
817.94	4200.4	
818.12	3650.2	
818.29	4858.5	
818.46	7592.5	
818.64	3802.4	
818.81	3650.2	
818.98	4756.7	
819.16	7011.6	
819.33	4358.1	
819.5	4075.5	
819.67	5476.3	
819.85	6154.8	
820.02	4002.4	
820.19	4276.8	
820.37	5387.5	
820.54	4924	
820.71	4158.7	
820.88	5222.3	
821.06	5331.5	
821.23	4874.2	
821.4	4226.3	
821.58	4126.7	
821.75	5847.6	
821.92	5285.1	
822.09	3345.7	
822.27	3659	
822.44	5136.3	
822.61	5053	
822.79	3390.1	
822.96	6464.1	
823.13	5654.4	
823.3	4859.1	
823.48	3988.1	
823.65	3515	
823.82	5809.4	
823.99	4661.2	
824.17	4975.2	
824.34	3633.1	
824.51	6747.4	
824.68	5203.9	
824.86	3750.5	
825.03	4184.7	
825.2	5117.9	
825.37	6217.6	
825.55	3758.7	
825.72	4070	
825.89	6752.8	
826.06	6297.5	
826.24	4087.1	
826.41	4038.6	
826.58	6302.3	
826.75	5412.8	
826.92	3186.6	
827.1	3521.8	
827.27	8510.7	
827.44	6799.3	
827.61	3794.2	
827.79	4681	
827.96	4872.1	
828.13	5215.5	
828.3	3947.8	
828.47	3375.7	
828.65	5337.7	
828.82	5292.6	
828.99	5195.7	
829.16	4504.8	
829.34	5741.8	
829.51	5509.7	
829.68	4115.1	
829.85	4287.8	
830.02	6070.2	
830.2	5761.6	
830.37	3185.3	
830.54	5031.9	
830.71	6526.2	
830.88	5133.6	
831.05	3281.5	
831.23	3792.2	
831.4	6236.7	
831.57	7034.8	
831.74	3795.6	
831.91	3438.5	
832.09	5360.2	
832.26	5748	
832.43	3964.9	
832.6	4452.3	
832.77	5343.8	
832.94	6118.6	
833.12	3183.9	
833.29	3975.8	
833.46	4997	
833.63	7292.1	
833.8	4353.3	
833.97	3989.4	
834.15	5726.1	
834.32	5525.4	
834.49	4082.3	
834.66	4184.7	
834.83	5991	
835	4847.5	
835.17	3874.1	
835.35	3863.2	
835.52	5619.6	
835.69	5571.8	
835.86	4030.4	
836.03	3336.8	
836.2	5678.3	
836.37	5330.2	
836.55	3949.8	
836.72	3704.1	
836.89	5252.4	
837.06	5707	
837.23	4047.5	
837.4	4422.2	
837.57	6547.4	
837.75	7273	
837.92	3616.7	
838.09	3857	
838.26	5328.1	
838.43	6019	
838.6	4141.7	
838.77	3719.8	
838.94	6915.3	
839.11	6602	
839.29	3934.8	
839.46	3100.6	
839.63	5670.8	
839.8	5431.9	
839.97	3842.7	
840.14	3831.7	
840.31	5459.2	
840.48	5731.6	
840.65	3161.4	
840.82	3788.1	
841	5744.6	
841.17	5680.4	
841.34	3580.5	
841.51	3573.7	
841.68	5614.8	
841.85	5423.7	
842.02	3660.4	
842.19	3069.9	
842.36	5482.4	
842.53	5450.3	
842.7	3521.1	
842.87	4360.1	
843.05	7221.8	
843.22	5411.4	
843.39	3343	
843.56	3616.7	
843.73	5152	
843.9	5821	
844.07	5781.4	
844.24	4814.1	
844.41	8291.5	
844.58	4941.1	
844.75	3422.8	
844.92	3747.8	
845.09	5704.3	
845.26	5730.9	
845.43	3512.3	
845.6	3724.6	
845.77	5725.4	
845.94	5424.4	
846.12	3873.4	
846.29	4160.1	
846.46	5962.3	
846.63	5722	
846.8	3558.7	
846.97	4144.4	
847.14	6161	
847.31	5578	
847.48	3966.2	
847.65	4371.7	
847.82	5978.7	
847.99	5900.2	
848.16	4696.7	
848.33	4371.7	
848.5	5283.1	
848.67	6193.7	
848.84	3478.8	
849.01	3688.4	
849.18	5116.5	
849.35	4843.4	
849.52	4376.5	
849.69	3426.3	
849.86	5834	
850.03	6175.3	
850.2	3505.4	
850.37	4317.8	
850.54	6059.9	
850.71	5435.3	
850.88	4207.9	
851.05	3446.7	
851.22	5614.8	
851.39	6192.4	
851.56	3349.8	
851.73	4046.1	
851.9	5014.8	
852.07	5957.5	
852.24	3872	
852.41	3498.6	
852.58	5520.6	
852.75	5085.1	
852.92	3956	
853.09	3413.3	
853.26	5283.1	
853.43	6068.1	
853.6	3480.2	
853.77	3032.4	
853.94	6309.8	
854.11	5664	
854.28	5229.8	
854.44	3771	
854.61	6668.2	
854.78	5735.7	
854.95	3448.1	
855.12	4412	
855.29	4629.1	
855.46	6290	
855.63	3497.2	
855.8	4799.8	
855.97	5209.3	
856.14	5981.4	
856.31	4924	
856.48	3790.8	
856.65	5179.3	
856.82	4975.2	
856.99	3347.1	
857.16	3837.2	
857.33	6974.7	
857.49	5302.2	
857.66	3785.3	
857.83	4123.2	
858	5311.1	
858.17	5510.4	
858.34	3323.2	
858.51	3500	
858.68	6389.7	
858.85	6453.8	
859.02	4014.7	
859.19	4342.4	
859.36	4993.6	
859.52	5018.2	
859.69	3502.7	
859.86	4099.4	
860.03	5111.7	
860.2	6196.5	
860.37	3181.9	
860.54	3535.5	
860.71	5901.6	
860.88	6316.6	
861.05	3948.5	
861.21	4411.3	
861.38	6356.9	
861.55	4858.5	
861.72	3163.4	
861.89	3919.1	
862.06	6012.8	
862.23	6464.8	
862.4	3422.2	
862.56	3621.5	
862.73	5784.1	
862.9	5476.3	
863.07	4158.7	
863.24	3188	
863.41	4906.9	
863.58	5008	
863.75	3539.6	
863.91	4105.5	
864.08	6352.1	
864.25	5819	
864.42	4330.8	
864.59	4920.6	
864.76	6657.9	
864.93	4995	
865.09	3415.3	
865.26	3779.2	
865.43	6185.5	
865.6	6656.6	
865.77	3049.4	
865.94	3487	
866.1	6264.7	
866.27	5973.9	
866.44	5270.1	
866.61	3319.1	
866.78	5395	
866.95	5816.2	
867.11	3395.5	
867.28	3142.3	
867.45	6007.4	
867.62	5148.6	
867.79	4057.7	
867.96	3467.2	
868.12	4968.4	
868.29	5963.7	
868.46	3473.4	
868.63	4630.5	
868.8	6177.4	
868.97	5874.3	
869.13	3657.7	
869.3	3678.2	
869.47	5769.8	
869.64	5967.8	
869.81	3506.1	
869.97	3509.5	
870.14	5670.8	
870.31	6322.1	
870.48	3414.6	
870.65	4489.1	
870.81	5266.7	
870.98	5330.2	
871.15	3936.2	
871.32	3649.5	
871.48	5794.4	
871.65	6404.7	
871.82	3466.5	
871.99	3847.5	
872.16	6851.8	
872.32	6204.7	
872.49	3525.2	
872.66	3491.1	
872.83	5913.2	
872.99	5137.7	
873.16	4022.2	
873.33	3477.5	
873.5	5477	
873.67	5610.8	
873.83	3743.7	
874	4618.9	
874.17	5685.2	
874.34	6734.4	
874.5	4511.7	
874.67	4321.2	
874.84	6359.6	
875.01	4957.4	
875.17	4913.1	
875.34	3476.8	
875.51	5638.1	
875.68	6767.9	
875.84	4265.9	
876.01	5155.4	
876.18	5826.5	
876.34	5806.7	
876.51	3470.6	
876.68	3453.6	
876.85	5386.2	
877.01	6135	
877.18	4971.1	
877.35	3517	
877.52	5461.2	
877.68	4940.4	
877.85	3409.9	
878.02	3412.6	
878.18	5475.6	
878.35	5171.8	
878.52	2787.3	
878.69	3922.5	
878.85	5896.8	
879.02	5899.5	
879.19	5044.8	
879.35	3763.5	
879.52	5780.7	
879.69	6031.3	
879.86	2990	
880.02	3934.1	
880.19	5473.5	
880.36	6675	
880.52	4031.8	
880.69	4124.6	
880.86	5891.3	
881.02	6059.3	
881.19	3821.5	
881.36	3822.2	
881.52	5796.4	
881.69	5158.2	
881.86	3835.2	
882.02	3650.8	
882.19	6122.1	
882.36	7157	
882.52	3624.9	
882.69	4965.6	
882.86	5709.1	
883.02	5546.6	
883.19	4272.1	
883.36	4019.5	
883.52	5937.7	
883.69	6784.2	
883.86	3517.7	
884.02	3175.7	
884.19	5910.4	
884.36	5492	
884.52	3957.4	
884.69	3745.7	
884.86	5259.2	
885.02	6511.9	
885.19	3934.1	
885.36	4092.5	
885.52	5446.2	
885.69	5667.4	
885.86	5073.5	
886.02	4498	
886.19	5941.2	
886.35	5382.7	
886.52	3852.9	
886.69	4924.7	
886.85	5069.4	
887.02	6296.8	
887.19	6296.8	
887.35	6296.8	
887.52	6296.8	
887.68	6296.8	
887.85	6296.8	
888.02	6296.8	
888.18	6296.8	
888.35	6296.8	
888.51	6296.8	
888.68	6296.8	
888.85	6296.8	
889.01	6296.8	
889.18	6296.8	
889.35	6296.8	
889.51	6296.8	
889.68	6296.8	
889.84	6296.8	
890.01	6296.8	
890.17	6296.8	
890.34	6296.8	
890.51	6296.8	
890.67	6296.8	
890.84	6296.8	
891	6296.8	
891.17	6296.8	
891.34	6296.8	
891.5	6296.8	
891.67	6296.8	
891.83	6296.8	
892	6296.8	
892.16	6296.8	
892.33	6296.8	
892.5	6296.8	
892.66	6296.8	
892.83	6296.8	
892.99	6296.8	
893.16	6296.8	
893.32	6296.8	
893.49	6296.8	
893.65	6296.8	
893.82	6296.8	
893.99	6296.8	
894.15	6296.8	
894.32	6296.8	
894.48	6296.8	
894.65	6296.8	
894.81	6296.8	
894.98	6296.8	
895.14	6296.8	
895.31	6296.8	
895.47	6296.8	
895.64	6296.8	
895.81	6296.8	
895.97	6296.8	
896.14	6296.8	
896.3	6296.8	
896.47	6296.8	
896.63	6296.8	
896.8	6296.8	
896.96	6296.8	
897.13	6296.8	
897.29	6296.8	
897.46	6296.8	
897.62	6296.8	
897.79	6296.8	
897.95	6296.8	
898.12	6296.8	
898.28	6296.8	
898.45	6296.8	
898.61	6296.8	
898.78	6296.8	
898.94	6296.8	
899.11	6296.8	
899.27	6296.8	
899.44	6296.8	
899.6	6296.8	
899.77	6296.8	
899.93	6296.8	
900.1	6296.8	
900.26	6296.8	
900.43	6296.8	
900.59	6296.8	
900.76	6296.8	
900.92	6296.8	
901.09	6296.8	
901.25	6296.8	
901.42	6296.8	
901.58	6296.8	
901.75	6296.8	
901.91	6296.8	
902.07	6296.8	
902.24	6296.8	
902.4	6296.8	
902.57	6296.8	
902.73	6296.8	
902.9	6296.8	
903.06	6296.8	
903.23	6296.8	
903.39	6296.8	
903.56	6296.8	
903.72	6296.8	
903.88	6296.8	
904.05	6296.8	
904.21	6296.8	
904.38	6296.8	
904.54	6296.8	
904.71	6296.8	
904.87	6296.8	
905.03	6296.8	
905.2	6296.8	
905.36	6296.8	
905.53	6296.8	
905.69	6296.8	
905.86	6296.8	
906.02	6296.8	
906.18	6296.8	
906.35	6296.8	
906.51	6296.8	
906.68	6296.8	
906.84	6296.8	
907.01	6296.8	
907.17	6296.8	
907.33	6296.8	
907.5	6296.8	
907.66	6296.8	
907.83	6296.8	
907.99	6296.8	
908.15	6296.8	
908.32	6296.8	
908.48	6296.8	
908.65	6296.8	
908.81	6296.8	
908.97	6296.8	
909.14	6296.8	
909.3	6296.8	
909.47	6296.8	
909.63	6296.8	
909.79	6296.8	
909.96	6296.8	
910.12	6296.8	
910.28	6296.8	
910.45	6296.8	
910.61	6296.8	
910.78	6296.8	
910.94	6296.8	
911.1	6296.8	
911.27	6296.8	
911.43	6296.8	
911.59	6296.8	
911.76	6296.8	
911.92	6296.8	
912.08	6296.8	
912.25	6296.8	
912.41	6296.8	
912.57	6296.8	
912.74	6296.8	
912.9	6296.8	
913.07	6296.8	
913.23	6296.8	
913.39	6296.8	
913.56	6296.8	
913.72	6296.8	
913.88	6296.8	
914.05	6296.8	
914.21	6296.8	
914.37	6296.8	
914.54	6296.8	
914.7	6296.8	
914.86	6296.8	
915.03	6296.8	
915.19	6296.8	
