Wavelength	Intensities	
nm	a.u.	
179.22	1896.1	
179.44	1892.3	
179.65	1899.8	
179.86	1884.8	
180.08	1902.6	
180.29	4834.6	
180.51	3488.4	
180.72	5639.4	
180.94	6560.3	
181.15	3252.9	
181.37	3144.3	
181.58	5474.9	
181.79	5775.3	
182.01	3361.4	
182.22	3622.9	
182.44	5782.1	
182.65	4762.2	
182.87	4484.4	
183.08	3923.9	
183.29	6030.6	
183.51	4978.6	
183.72	3634.5	
183.94	5335	
184.15	5395	
184.37	5399.1	
184.58	3185.3	
184.79	4372.4	
185.01	5023	
185.22	5735	
185.44	4672.1	
185.65	3917.8	
185.86	5282.4	
186.08	4891.2	
186.29	3108.8	
186.51	3347.7	
186.72	4997	
186.94	5965.7	
187.15	3869.3	
187.36	4011.3	
187.58	7749.5	
187.79	5518.6	
188.01	4210.6	
188.22	6586.3	
188.43	6583.5	
188.65	5707.7	
188.86	3351.8	
189.08	4024.9	
189.29	5237.3	
189.5	5240.1	
189.72	3756	
189.93	3790.1	
190.15	5945.9	
190.36	7162.4	
190.57	4130.1	
190.79	3958	
191	6059.9	
191.22	5930.9	
191.43	4096.6	
191.64	3379.8	
191.86	6194.4	
192.07	6029.2	
192.29	3517	
192.5	3738.9	
192.71	5943.2	
192.93	5112.4	
193.14	3667.2	
193.35	3768.9	
193.57	5160.2	
193.78	5983.5	
194	2994.1	
194.21	3696.6	
194.42	4977.2	
194.64	5449.6	
194.85	4003.8	
195.07	4715.8	
195.28	5483.1	
195.49	4657.8	
195.71	4913.8	
195.92	3459	
196.13	5621.7	
196.35	5662.6	
196.56	5285.8	
196.78	4015.4	
196.99	7052.5	
197.2	6591.7	
197.42	4596.3	
197.63	4057.7	
197.84	4840	
198.06	5579.3	
198.27	3773	
198.48	4963.6	
198.7	5153.4	
198.91	5326.1	
199.13	4043.4	
199.34	4098.7	
199.55	5812.8	
199.77	4755.4	
199.98	3599	
200.19	4095.9	
200.41	5262.6	
200.62	4975.9	
200.83	4237.9	
201.05	4548.5	
201.26	5302.9	
201.47	5029.1	
201.69	3602.4	
201.9	3412.6	
202.11	5419.6	
202.33	6406.7	
202.54	3868.6	
202.76	4221.5	
202.97	5455.1	
203.18	5524.1	
203.4	4241.3	
203.61	4128.7	
203.82	5513.1	
204.04	5031.9	
204.25	4041.3	
204.46	4040	
204.68	5435.3	
204.89	5614.8	
205.1	3931.4	
205.32	3422.2	
205.53	5829.2	
205.74	5926.8	
205.96	2946.3	
206.17	4156.7	
206.38	5788.9	
206.6	5942.5	
206.81	4600.4	
207.02	3760.1	
207.24	5600.5	
207.45	6094.8	
207.66	3820.1	
207.88	3326.6	
208.09	5560.9	
208.3	5380.7	
208.52	3610.6	
208.73	3947.1	
208.94	5382.1	
209.15	6131.6	
209.37	3867.2	
209.58	4114.4	
209.79	5976.7	
210.01	5180.7	
210.22	3039.9	
210.43	3222.1	
210.65	5380.7	
210.86	5796.4	
211.07	3891.1	
211.29	3530.7	
211.5	5735	
211.71	5309	
211.93	3538.2	
212.14	3559.4	
212.35	5331.5	
212.56	5563.6	
212.78	4096.6	
212.99	3407.8	
213.2	6328.2	
213.42	5134.3	
213.63	3680.9	
213.84	3954.6	
214.06	4813.4	
214.27	4885.8	
214.48	3817.4	
214.69	4131.4	
214.91	6125.5	
215.12	6180.1	
215.33	4164.9	
215.55	4618.2	
215.76	6554.9	
215.97	5782.1	
216.18	3968.3	
216.4	3905.5	
216.61	5078.3	
216.82	5949.3	
217.04	3557.3	
217.25	3736.2	
217.46	6054.5	
217.67	5857.2	
217.89	3184.6	
218.1	3305.4	
218.31	5496.7	
218.53	5637.4	
218.74	3738.2	
218.95	3634.5	
219.16	5347.9	
219.38	6348	
219.59	3633.8	
219.8	4292.5	
220.01	6941.9	
220.23	5390.9	
220.44	4751.3	
220.65	3521.8	
220.87	5500.8	
221.08	6066.1	
221.29	3273.3	
221.5	4433.9	
221.72	7435.5	
221.93	5125.4	
222.14	4118.5	
222.35	4847.5	
222.57	5418.2	
222.78	5773.9	
222.99	3909.6	
223.2	4157.4	
223.42	5683.8	
223.63	5925.5	
223.84	2965.5	
224.05	2957.3	
224.27	6946	
224.48	6285.9	
224.69	4813.4	
224.9	4119.8	
225.12	5650.3	
225.33	5384.1	
225.54	3259	
225.75	3650.8	
225.97	5010	
226.18	5257.1	
226.39	3916.4	
226.6	3680.9	
226.82	5140.4	
227.03	5020.3	
227.24	4087.7	
227.45	3390.8	
227.67	5782.8	
227.88	6340.5	
228.09	4540.3	
228.3	4550.6	
228.52	5852.4	
228.73	5346.6	
228.94	3777.1	
229.15	3410.6	
229.36	5280.3	
229.58	5260.5	
229.79	3771	
230	4392.2	
230.21	6508.4	
230.43	5520	
230.64	4034.5	
230.85	4168.3	
231.06	5837.4	
231.28	5806.7	
231.49	3366.9	
231.7	3947.8	
231.91	5758.9	
232.12	5436	
232.34	3420.8	
232.55	3939.6	
232.76	6044.9	
232.97	5634	
233.18	3558	
233.4	4055	
233.61	5673.6	
233.82	5186.8	
234.03	3714.3	
234.25	3635.1	
234.46	7529.7	
234.67	5471.5	
234.88	4153.3	
235.09	3614.7	
235.31	5760.9	
235.52	5270.8	
235.73	3993.5	
235.94	3379.1	
236.15	5103.5	
236.37	6627.2	
236.58	3631	
236.79	3888.4	
237	5776.6	
237.21	4930.1	
237.43	4156.7	
237.64	3299.3	
237.85	9813.9	
238.06	5014.8	
238.27	4208.6	
238.48	3401	
238.7	5745.9	
238.91	5263.3	
239.12	3874.8	
239.33	3891.8	
239.54	5046.2	
239.76	5330.9	
239.97	3851.5	
240.18	3860.4	
240.39	6724.8	
240.6	5671.5	
240.82	3986	
241.03	3295.2	
241.24	5433.3	
241.45	6328.9	
241.66	3517.7	
241.87	4157.4	
242.09	6152.8	
242.3	6471.6	
242.51	4238.6	
242.72	3838.6	
242.93	5875.6	
243.14	5375.9	
243.36	4482.3	
243.57	4874.2	
243.78	6295.5	
243.99	5756.8	
244.2	3909.6	
244.41	3574.4	
244.63	4927.4	
244.84	5738.4	
245.05	4216.1	
245.26	3913.7	
245.47	5669.5	
245.68	5948.7	
245.9	5188.9	
246.11	4132.8	
246.32	5218.9	
246.53	5640.8	
246.74	6275.7	
246.95	3254.2	
247.16	4937	
247.38	5405.3	
247.59	3216	
247.8	3882.3	
248.01	5103.5	
248.22	5332.9	
248.43	3511.6	
248.64	3821.5	
248.86	4825	
249.07	5208.7	
249.28	3424.2	
249.49	4022.9	
249.7	5937.1	
249.91	6107	
250.12	3276.1	
250.34	3315.7	
250.55	5477.6	
250.76	5367	
250.97	4078.9	
251.18	4082.3	
251.39	6152.8	
251.6	5604.6	
251.81	4131.4	
252.03	4052.9	
252.24	5139.7	
252.45	5965.7	
252.66	3383.2	
252.87	4301.4	
253.08	5414.8	
253.29	7139.9	
253.5	3418.7	
253.72	4726.7	
253.93	5308.3	
254.14	6402	
254.35	3717.1	
254.56	3851.5	
254.77	5649.7	
254.98	5025.7	
255.19	3640.6	
255.41	4665.3	
255.62	5567.1	
255.83	6063.4	
256.04	4169	
256.25	4088.4	
256.46	6685.9	
256.67	5102.9	
256.88	4015.4	
257.09	4490.5	
257.31	5102.9	
257.52	5115.1	
257.73	5031.2	
257.94	3665.2	
258.15	5282.4	
258.36	5386.2	
258.57	4622.3	
258.78	2952.5	
258.99	5943.2	
259.2	5294	
259.41	3743.7	
259.63	3812.6	
259.84	6272.9	
260.05	6736.5	
260.26	4976.6	
260.47	3594.2	
260.68	6001.2	
260.89	5346.6	
261.1	4500.8	
261.31	3546.4	
261.52	5978.7	
261.73	6387.6	
261.95	4804.5	
262.16	4193.6	
262.37	6122.1	
262.58	6225.1	
262.79	4833.9	
263	3788.1	
263.21	5441.5	
263.42	4970.4	
263.63	3773.7	
263.84	3722.5	
264.05	5978	
264.26	6392.4	
264.47	4724.7	
264.69	4202.4	
264.9	6136.4	
265.11	5640.8	
265.32	3646.7	
265.53	3617.4	
265.74	5513.1	
265.95	4795.7	
266.16	4016.1	
266.37	4406.5	
266.58	5596.4	
266.79	5235.3	
267	3718.4	
267.21	3403	
267.42	5005.2	
267.63	5372.5	
267.84	3830.4	
268.06	3358	
268.27	5808	
268.48	6174.6	
268.69	3788.1	
268.9	4545.1	
269.11	6135.7	
269.32	4864.6	
269.53	3863.2	
269.74	3603.7	
269.95	5815.5	
270.16	4767.7	
270.37	3907.5	
270.58	4489.1	
270.79	5241.4	
271	5887.9	
271.21	4126	
271.42	3997	
271.63	5535	
271.84	5037.3	
272.05	3108.1	
272.26	3457.7	
272.47	5466	
272.68	5640.8	
272.89	3730	
273.11	4323.3	
273.32	5206.6	
273.53	6425.2	
273.74	4235.9	
273.95	4091.8	
274.16	6052.4	
274.37	5494.7	
274.58	4252.9	
274.79	3366.9	
275	5530.2	
275.21	6038.1	
275.42	5097.4	
275.63	4354.7	
275.84	5688.6	
276.05	7150.8	
276.26	4113.7	
276.47	3840.6	
276.68	5328.8	
276.89	6460	
277.1	4388.1	
277.31	3413.3	
277.52	5674.2	
277.73	5831.2	
277.94	3368.2	
278.15	3790.8	
278.36	5619.6	
278.57	5088.5	
278.78	3730.7	
278.99	4230.4	
279.2	5045.5	
279.41	4995.7	
279.62	4931.5	
279.83	3441.3	
280.04	6677.1	
280.25	4977.2	
280.46	4953.4	
280.67	3909.6	
280.88	5037.3	
281.09	6111.8	
281.3	4087.7	
281.51	5181.4	
281.72	5966.4	
281.93	5905	
282.14	3594.2	
282.35	3949.2	
282.56	5904.3	
282.77	5881.1	
282.98	3765.5	
283.19	4644.8	
283.4	7244.3	
283.61	5400.5	
283.82	3499.3	
284.03	4799.1	
284.24	5587.5	
284.45	6064.7	
284.66	4857.1	
284.87	4635.9	
285.08	5935.7	
285.29	6096.8	
285.5	3332	
285.71	3801	
285.92	6102.3	
286.12	6671.6	
286.33	4801.8	
286.54	3809.2	
286.75	5897.5	
286.96	5268.7	
287.17	3504.8	
287.38	4687.1	
287.59	5038.7	
287.8	4987.5	
288.01	3884.3	
288.22	4416.8	
288.43	5988.9	
288.64	4971.1	
288.85	4509.6	
289.06	4354.7	
289.27	5915.9	
289.48	6327.5	
289.69	4798.4	
289.9	4390.2	
290.11	6053.1	
290.32	5137.7	
290.53	4633.9	
290.74	4224.3	
290.94	5918.6	
291.15	5922.7	
291.36	3627	
291.57	4347.2	
291.78	5143.1	
291.99	4850.3	
292.2	3512.3	
292.41	4262.5	
292.62	6014.9	
292.83	5810.8	
293.04	5210	
293.25	3496.6	
293.46	5225.7	
293.67	5977.3	
293.88	3687.7	
294.09	3505.4	
294.29	4985.4	
294.5	5591.6	
294.71	3971	
294.92	3751.9	
295.13	5176.6	
295.34	6516.6	
295.55	3283.6	
295.76	3396.9	
295.97	5913.9	
296.18	6627.2	
296.39	3476.8	
296.6	3673.4	
296.81	5481	
297.01	5842.9	
297.22	3847.5	
297.43	3655.6	
297.64	5044.8	
297.85	5151.3	
298.06	3023.5	
298.27	3321.1	
298.48	5520	
298.69	5158.2	
298.9	4050.2	
299.11	3627.6	
299.31	4958.8	
299.52	4930.8	
299.73	4243.4	
299.94	4190.8	
300.15	5404.6	
300.36	5038.7	
300.57	4175.8	
300.78	4186.7	
300.99	5329.5	
301.2	5560.9	
301.4	3607.2	
301.61	4065.9	
301.82	5842.2	
302.03	5834.7	
302.24	4490.5	
302.45	3454.9	
302.66	5741.1	
302.87	6204.7	
303.08	3670.6	
303.29	5027.1	
303.49	5173.9	
303.7	5457.8	
303.91	3200.3	
304.12	4770.4	
304.33	4933.6	
304.54	5491.3	
304.75	3736.9	
304.96	3532.1	
305.16	5837.4	
305.37	6500.9	
305.58	3152.5	
305.79	3338.2	
306	5760.9	
306.21	4836.6	
306.42	3669.3	
306.63	5665.4	
306.83	5296	
307.04	6032.6	
307.25	4063.2	
307.46	3962.1	
307.67	4670.1	
307.88	5866.1	
308.09	3601.7	
308.29	3745.1	
308.5	5526.8	
308.71	6047.7	
308.92	3891.8	
309.13	3552.5	
309.34	5286.5	
309.55	5399.1	
309.75	4569	
309.96	4207.9	
310.17	5810.1	
310.38	5169.1	
310.59	4388.1	
310.8	3460.4	
311.01	5266	
311.21	5274.2	
311.42	3453.6	
311.63	3575.1	
311.84	5186.1	
312.05	5669.5	
312.26	4118.5	
312.46	4551.3	
312.67	5259.9	
312.88	4986.8	
313.09	3515	
313.3	3477.5	
313.51	6189.6	
313.71	6662	
313.92	3510.2	
314.13	3811.3	
314.34	5676.3	
314.55	5349.3	
314.76	4590.9	
314.96	3933.5	
315.17	5547.9	
315.38	5851	
315.59	3550.5	
315.8	3388	
316.01	6328.2	
316.21	6333.7	
316.42	3457.7	
316.63	3877.5	
316.84	5347.2	
317.05	6183.5	
317.26	4189.5	
317.46	3743.7	
317.67	5334.3	
317.88	5842.2	
318.09	4504.8	
318.3	3259.7	
318.5	5185.5	
318.71	5719.3	
318.92	5803.9	
319.13	4171	
319.34	5922.7	
319.54	6066.8	
319.75	3300.6	
319.96	3158.7	
320.17	5754.1	
320.38	5989.6	
320.58	3242.6	
320.79	3882.3	
321	5957.5	
321.21	6076.3	
321.42	3880.9	
321.62	3211.9	
321.83	5031.9	
322.04	5457.2	
322.25	3745.7	
322.46	3611.3	
322.66	5539.8	
322.87	5734.3	
323.08	4308.2	
323.29	3517.7	
323.5	6528.9	
323.7	5033.9	
323.91	4817.5	
324.12	4336.9	
324.33	5529.5	
324.53	5755.5	
324.74	4132.1	
324.95	4427	
325.16	4886.5	
325.37	5240.8	
325.57	3545.7	
325.78	3640.6	
325.99	5514.5	
326.2	4894.6	
326.4	5056.4	
326.61	3262.4	
326.82	5434.6	
327.03	5558.2	
327.24	5105.6	
327.44	4783.4	
327.65	5699.5	
327.86	4660.5	
328.07	4149.2	
328.27	3441.3	
328.48	6109.8	
328.69	4995.7	
328.9	5137.7	
329.1	3795.6	
329.31	5340.4	
329.52	6290.7	
329.73	3544.4	
329.93	4018.8	
330.14	5412.1	
330.35	5674.9	
330.56	5848.3	
330.76	4439.3	
330.97	5243.5	
331.18	5580	
331.39	3961.5	
331.59	3202.3	
331.8	6065.4	
332.01	6173.9	
332.22	3603.7	
332.42	4208.6	
332.63	5550.7	
332.84	5184.1	
333.05	3932.8	
333.25	3679.5	
333.46	5212.1	
333.67	5464	
333.88	3734.8	
334.08	4132.8	
334.29	7271	
334.5	6121.4	
334.7	3516.4	
334.91	5058.5	
335.12	4962.2	
335.33	5810.8	
335.53	3978.5	
335.74	5854.5	
335.95	5215.5	
336.16	5087.2	
336.36	3918.4	
336.57	4485.7	
336.78	4952	
336.98	6014.2	
337.19	4848.9	
337.4	3882.3	
337.61	6565.1	
337.81	4984.1	
338.02	3644.7	
338.23	4729.4	
338.43	6241.5	
338.64	5044.1	
338.85	3603.1	
339.05	4689.8	
339.26	6311.8	
339.47	4904.2	
339.68	3581.9	
339.88	5296	
340.09	5692	
340.3	5954.1	
340.5	4180.6	
340.71	3168.2	
340.92	4930.8	
341.13	6208.1	
341.33	3431	
341.54	4268	
341.75	5644.9	
341.95	5378	
342.16	4035.9	
342.37	4354.7	
342.57	5009.3	
342.78	5434.6	
342.99	4443.4	
343.19	3202.3	
343.4	5906.3	
343.61	5702.2	
343.81	3789.4	
344.02	3507.5	
344.23	5907	
344.43	6333.7	
344.64	4467.3	
344.85	4343.1	
345.06	5706.3	
345.26	6059.3	
345.47	4095.9	
345.68	4844.8	
345.88	4842.8	
346.09	5996.5	
346.3	4216.8	
346.5	3165.5	
346.71	5408	
346.92	5160.9	
347.12	3280.8	
347.33	4115.7	
347.54	5969.8	
347.74	6423.1	
347.95	4059.8	
348.16	3124.5	
348.36	5270.8	
348.57	4962.9	
348.78	4070	
348.98	4416.1	
349.19	5396.4	
349.39	4896	
349.6	3291.8	
349.81	3616	
350.01	5708.4	
350.22	5172.5	
350.43	3922.5	
350.63	4780	
350.84	5532.9	
351.05	5272.2	
351.25	3606.5	
351.46	3230.3	
351.67	6032	
351.87	5152.7	
352.08	3844.7	
352.29	4437.9	
352.49	5920.7	
352.7	6032.6	
352.9	3497.2	
353.11	4358.8	
353.32	6588.3	
353.52	5261.2	
353.73	3472	
353.94	4433.2	
354.14	5719.3	
354.35	5627.8	
354.55	3592.1	
354.76	3920.5	
354.97	5756.2	
355.17	5467.4	
355.38	3390.8	
355.59	4691.9	
355.79	5152.7	
356	5522.7	
356.2	3979.9	
356.41	3445.4	
356.62	4917.2	
356.82	5408.7	
357.03	4247.5	
357.24	3856.3	
357.44	5182	
357.65	5254.4	
357.85	5107	
358.06	4077.5	
358.27	4913.1	
358.47	5220.3	
358.68	3346.4	
358.88	4215.4	
359.09	5685.8	
359.3	6066.8	
359.5	4921.3	
359.71	4358.1	
359.91	6632	
360.12	5909.1	
360.33	4237.2	
360.53	4742.4	
360.74	5173.2	
360.94	5268.7	
361.15	4433.9	
361.36	3702	
361.56	5995.8	
361.77	5485.1	
361.97	4941.1	
362.18	3914.4	
362.38	5967.1	
362.59	5089.2	
362.8	3688.4	
363	3457.7	
363.21	4932.2	
363.41	5556.1	
363.62	4165.6	
363.83	5248.9	
364.03	5634.6	
364.24	6572.6	
364.44	5281	
364.65	5158.2	
364.85	5436.7	
365.06	5096.7	
365.27	3835.8	
365.47	3858.4	
365.68	6460	
365.88	5410.7	
366.09	4229.7	
366.29	3962.1	
366.5	5674.2	
366.71	6128.9	
366.91	5183.4	
367.12	4408.6	
367.32	6666.1	
367.53	5954.1	
367.73	4341	
367.94	5201.2	
368.14	5905	
368.35	6832	
368.56	4364.2	
368.76	3955.3	
368.97	5961	
369.17	7753.6	
369.38	3834.5	
369.58	4100	
369.79	5087.8	
369.99	6361.7	
370.2	5096	
370.4	4235.9	
370.61	5694	
370.82	6896.2	
371.02	4121.9	
371.23	3496.6	
371.43	4964.3	
371.64	6311.8	
371.84	4151.9	
372.05	5355.4	
372.25	7627.3	
372.46	6075	
372.66	4150.6	
372.87	4114.4	
373.07	6063.4	
373.28	7745.4	
373.48	5180	
373.69	4902.8	
373.9	5604.6	
374.1	5612.8	
374.31	5119.2	
374.51	4644.8	
374.72	6449.1	
374.92	5315.2	
375.13	5324	
375.33	4503.5	
375.54	5996.5	
375.74	5444.9	
375.95	4567	
376.15	5808.7	
376.36	6049.7	
376.56	5885.9	
376.77	4575.2	
376.97	5061.2	
377.18	7105.1	
377.38	6139.8	
377.59	5431.9	
377.79	4169.7	
378	5993.7	
378.2	6394.4	
378.41	4248.2	
378.61	4151.2	
378.82	6389	
379.02	5588.2	
379.23	4326.7	
379.43	5435.3	
379.64	6504.3	
379.84	6143.9	
380.05	4276.8	
380.25	4136.9	
380.46	6346	
380.66	5769.1	
380.87	5487.2	
381.07	5887.9	
381.28	6861.4	
381.48	6198.5	
381.69	4212.7	
381.89	4352.6	
382.1	5162.9	
382.3	6372.6	
382.51	5342.5	
382.71	6269.5	
382.91	6230.6	
383.12	6800.6	
383.32	4551.3	
383.53	4777.9	
383.73	6078.4	
383.94	5879	
384.14	4767	
384.35	3880.2	
384.55	5733.6	
384.76	6259.3	
384.96	4532.8	
385.17	4891.9	
385.37	6197.8	
385.58	5523.4	
385.78	4954	
385.98	3845.4	
386.19	5720.7	
386.39	6122.1	
386.6	4279.6	
386.8	4635.9	
387.01	6202.6	
387.21	6244.9	
387.42	4993.6	
387.62	5636.7	
387.83	5556.1	
388.03	6158.2	
388.23	4702.8	
388.44	5403.9	
388.64	5312.4	
388.85	5436.7	
389.05	5053	
389.26	5600.5	
389.46	7027.9	
389.67	6698.2	
389.87	4995.7	
390.07	5045.5	
390.28	5905	
390.48	5485.8	
390.69	4323.9	
390.89	4508.3	
391.1	5643.5	
391.3	6646.3	
391.5	5768.4	
391.71	6393.8	
391.91	6371.2	
392.12	7413.6	
392.32	5842.2	
392.53	5085.1	
392.73	5742.5	
392.93	6003.3	
393.14	4691.9	
393.34	5537	
393.55	6427.9	
393.75	5853.1	
393.95	4727.4	
394.16	4623.6	
394.36	5662.6	
394.57	6328.9	
394.77	4198.3	
394.98	4659.8	
395.18	5712.5	
395.38	5775.3	
395.59	5586.2	
395.79	4477.5	
396	5872.9	
396.2	6330.3	
396.4	5298.8	
396.61	5264.6	
396.81	6539.8	
397.02	5803.3	
397.22	5590.3	
397.42	5600.5	
397.63	6473.6	
397.83	5745.9	
398.04	4398.4	
398.24	5015.5	
398.44	6270.9	
398.65	5382.1	
398.85	4340.3	
399.05	4481	
399.26	5724.1	
399.46	7484	
399.67	4900.1	
399.87	4631.1	
400.07	6107.7	
400.28	6500.9	
400.48	4700.8	
400.69	5773.2	
400.89	6766.5	
401.09	7152.2	
401.3	4605.9	
401.5	5711.8	
401.7	7437.5	
401.91	7647.1	
402.11	4948.6	
402.32	5122	
402.52	6736.5	
402.72	6615.6	
402.93	5349.3	
403.13	4173.1	
403.33	7408.2	
403.54	6138.4	
403.74	5025.7	
403.94	5821.7	
404.15	6259.3	
404.35	7387	
404.56	4831.2	
404.76	6692.1	
404.96	6748.1	
405.17	6544.6	
405.37	6139.1	
405.57	5370.5	
405.78	6759	
405.98	6182.1	
406.18	4864.6	
406.39	5804.6	
406.59	6649.8	
406.79	6270.2	
407	4624.3	
407.2	4696	
407.4	6702.3	
407.61	6948.8	
407.81	4783.4	
408.01	6874.3	
408.22	5807.4	
408.42	7798	
408.62	5967.1	
408.83	5425.1	
409.03	6509.1	
409.23	6350.8	
409.44	5580	
409.64	5852.4	
409.84	7495.6	
410.05	7314.7	
410.25	5670.8	
410.45	5498.8	
410.66	6810.9	
410.86	9306.7	
411.06	5999.2	
411.27	5821.7	
411.47	9140.8	
411.67	7071	
411.88	6166.4	
412.08	6378.1	
412.28	7798.7	
412.49	8249.9	
412.69	5882.4	
412.89	5961.6	
413.09	8087.4	
413.3	7985.7	
413.5	6064	
413.7	5552	
413.91	7292.1	
414.11	8122.9	
414.31	5907	
414.52	6326.2	
414.72	7833.5	
414.92	7818.5	
415.12	5941.8	
415.33	6382.8	
415.53	8158.4	
415.73	8292.9	
415.94	6860.7	
416.14	6182.8	
416.34	7126.9	
416.55	6888	
416.75	7490.8	
416.95	6849.8	
417.15	8164.6	
417.36	8802.9	
417.56	7660.8	
417.76	6769.9	
417.97	8536.6	
418.17	8204.8	
418.37	6288.6	
418.57	6358.9	
418.78	7856.7	
418.98	7640.3	
419.18	7253.9	
419.38	7146	
419.59	7637.6	
419.79	7205.4	
419.99	6126.8	
420.2	6560.3	
420.4	8210.3	
420.6	8314.8	
420.8	6178.7	
421.01	5948	
421.21	8004.8	
421.41	8230.8	
421.61	6598.6	
421.82	6246.3	
422.02	7603.4	
422.22	8498.4	
422.42	7075	
422.63	6670.2	
422.83	7765.9	
423.03	8872.5	
423.23	6757.6	
423.44	5732.3	
423.64	7808.2	
423.84	7446.4	
424.04	6079.1	
424.25	5808.7	
424.45	8546.2	
424.65	8567.3	
424.85	5611.4	
425.06	6270.9	
425.26	8565.3	
425.46	7061.4	
425.66	6670.9	
425.87	6318	
426.07	8360.5	
426.27	8150.2	
426.47	6471.6	
426.67	5852.4	
426.88	8654	
427.08	8110	
427.28	6761	
427.48	5810.8	
427.69	6997.9	
427.89	7737.9	
428.09	6724.2	
428.29	5863.3	
428.5	8404.9	
428.7	7888.1	
428.9	5700.2	
429.1	6332.3	
429.3	7867.6	
429.51	8259.5	
429.71	6064.7	
429.91	6829.3	
430.11	8153.6	
430.31	8420.6	
430.52	6464.8	
430.72	6765.1	
430.92	8791.9	
431.12	8215.8	
431.32	6055.2	
431.53	6449.1	
431.73	7067.5	
431.93	8828.1	
432.13	6036	
432.33	5894.1	
432.54	7621.9	
432.74	8013	
432.94	5826.5	
433.14	6873	
433.34	8109.3	
433.55	7691.5	
433.75	6870.9	
433.95	8714.1	
434.15	7963.2	
434.35	7679.9	
434.56	6183.5	
434.76	5595.1	
434.96	7931.1	
435.16	8266.3	
435.36	5965.1	
435.56	7138.5	
435.77	7652.6	
435.97	7879.9	
436.17	7929.1	
436.37	7150.1	
436.57	7582.3	
436.78	7673.7	
436.98	8888.9	
437.18	7692.2	
437.38	8333.9	
437.58	7763.8	
437.78	7764.5	
437.99	6466.1	
438.19	8294.3	
438.39	9117.6	
438.59	6385.6	
438.79	5793.7	
438.99	9024.7	
439.2	7798	
439.4	5958.2	
439.6	5956.2	
439.8	8207.6	
440	9296.4	
440.2	7078.5	
440.4	7187	
440.61	8645.2	
440.81	9243.8	
441.01	6242.9	
441.21	7178.1	
441.41	9048.6	
441.61	8633.6	
441.81	7494.9	
442.02	8480	
442.22	9617.9	
442.42	8805.6	
442.62	6367.8	
442.82	6441.5	
443.02	9121	
443.22	8322.3	
443.43	6926.9	
443.63	6444.3	
443.83	8040.3	
444.03	7967.3	
444.23	7750.9	
444.43	7290.8	
444.63	8489.5	
444.83	9569.5	
445.04	6634.1	
445.24	7856	
445.44	8800.1	
445.64	8959.2	
445.84	7324.9	
446.04	7323.5	
446.24	8122.2	
446.44	9094.3	
446.65	6469.5	
446.85	6876.4	
447.05	8468.4	
447.25	9036.3	
447.45	7006.8	
447.65	6383.5	
447.85	8425.3	
448.05	7971.4	
448.25	7479.2	
448.46	7265.5	
448.66	8441	
448.86	8127	
449.06	6262	
449.26	7410.2	
449.46	8849.3	
449.66	7751.6	
449.86	7012.9	
450.06	6973.3	
450.26	8029.4	
450.47	8634.9	
450.67	7144.7	
450.87	7507.2	
451.07	8695.7	
451.27	8488.1	
451.47	6475.7	
451.67	7111.2	
451.87	8221.9	
452.07	9301.9	
452.27	6876.4	
452.47	6728.3	
452.67	8304.5	
452.88	8961.9	
453.08	6150.7	
453.28	8146.8	
453.48	9799.5	
453.68	8376.9	
453.88	6788.3	
454.08	6943.3	
454.28	8857.5	
454.48	8510.7	
454.68	7505.1	
454.88	8011.7	
455.08	8972.2	
455.28	8809.7	
455.48	6590.4	
455.68	7292.8	
455.89	9534	
456.09	9149.6	
456.29	6952.9	
456.49	7060	
456.69	9449.3	
456.89	8826.7	
457.09	7616.4	
457.29	8034.2	
457.49	9119.6	
457.69	9196.7	
457.89	7451.2	
458.09	6895.5	
458.29	8888.2	
458.49	9565.4	
458.69	7886.7	
458.89	7315.3	
459.09	9912.9	
459.29	9916.3	
459.49	7511.9	
459.69	8227.4	
459.9	9464.3	
460.1	8972.2	
460.3	7259.4	
460.5	7021.1	
460.7	9402.9	
460.9	9116.2	
461.1	6839.5	
461.3	8225.3	
461.5	10215	
461.7	9835	
461.9	7476.5	
462.1	7830.1	
462.3	9246.6	
462.5	9927.2	
462.7	7453.2	
462.9	7554.3	
463.1	10917	
463.3	10671	
463.5	7727.7	
463.7	8877.3	
463.9	9456.2	
464.1	9950.4	
464.3	8036.9	
464.5	8183.7	
464.7	10202	
464.9	9977.7	
465.1	9580.4	
465.3	8793.3	
465.5	10537	
465.7	10656	
465.9	8866.3	
466.1	8750.3	
466.3	10503	
466.5	10275	
466.7	9729.2	
466.9	8455.4	
467.1	10236	
467.3	11140	
467.5	9664.4	
467.7	8585.1	
467.9	11407	
468.1	12341	
468.3	9394	
468.5	9673.9	
468.7	10327	
468.9	10256	
469.1	8811.7	
469.3	9594.1	
469.5	12223	
469.7	9897.8	
469.9	9254.8	
470.1	8596.7	
470.3	10297	
470.5	10280	
470.7	9891.7	
470.9	8643.8	
471.1	10109	
471.3	10451	
471.5	8523	
471.69	10426	
471.89	10015	
472.09	9521.7	
472.29	9356.5	
472.49	9748.3	
472.69	9721.7	
472.89	10595	
473.09	8434.9	
473.29	8416.5	
473.49	9889.6	
473.69	9956.5	
473.89	9463.7	
474.09	8580.3	
474.29	11327	
474.49	10882	
474.69	9457.5	
474.89	8791.9	
475.09	10041	
475.29	9987.9	
475.49	8193.2	
475.69	8419.9	
475.88	11580	
476.08	10206	
476.28	8127	
476.48	8568.7	
476.68	10666	
476.88	10565	
477.08	8362.5	
477.28	8757.1	
477.48	9981.1	
477.68	10626	
477.88	8285.4	
478.08	8510.7	
478.28	11103	
478.48	10118	
478.67	8591.2	
478.87	8047.8	
479.07	10852	
479.27	10255	
479.47	8830.8	
479.67	8842.4	
479.87	10572	
480.07	11200	
480.27	8088.1	
480.47	9629.5	
480.67	10379	
480.87	11052	
481.06	8372.1	
481.26	9152.4	
481.46	10307	
481.66	10283	
481.86	8847.2	
482.06	9889.6	
482.26	9901.2	
482.46	10766	
482.66	8737.3	
482.86	8458.1	
483.05	10356	
483.25	9830.2	
483.45	11331	
483.65	8893	
483.85	10020	
484.05	10277	
484.25	9202.9	
484.45	9810.5	
484.65	11282	
484.84	11131	
485.04	8796.7	
485.24	8769.4	
485.44	11505	
485.64	9818	
485.84	8161.2	
486.04	9514.2	
486.24	10222	
486.44	10625	
486.63	8055.3	
486.83	8992.6	
487.03	10204	
487.23	10360	
487.43	8187.8	
487.63	10772	
487.83	10442	
488.02	11393	
488.22	9381.7	
488.42	9967.5	
488.62	11259	
488.82	10265	
489.02	8976.2	
489.22	9087.5	
489.41	11141	
489.61	10856	
489.81	8722.3	
490.01	8767.4	
490.21	11159	
490.41	11877	
490.61	8710	
490.8	8822.6	
491	10694	
491.2	9948.3	
491.4	9425.4	
491.6	8497.7	
491.8	10585	
491.99	10735	
492.19	8306.6	
492.39	8781	
492.59	11316	
492.79	11333	
492.99	9652.8	
493.18	8871.1	
493.38	11274	
493.58	12245	
493.78	9646.6	
493.98	9195.4	
494.18	11130	
494.37	10700	
494.57	10008	
494.77	9696.4	
494.97	11504	
495.17	11736	
495.37	9480	
495.56	9825.5	
495.76	12051	
495.96	11590	
496.16	10778	
496.36	9592	
496.55	11798	
496.75	11338	
496.95	10093	
497.15	9979.1	
497.35	11850	
497.54	11962	
497.74	9688.9	
497.94	11488	
498.14	12651	
498.34	12537	
498.53	9407	
498.73	10349	
498.93	11282	
499.13	11883	
499.33	10186	
499.52	10678	
499.72	12035	
499.92	12208	
500.12	9800.9	
500.32	10151	
500.51	12278	
500.71	12048	
500.91	10948	
501.11	10464	
501.31	12098	
501.5	12476	
501.7	11272	
501.9	10180	
502.1	11901	
502.29	12329	
502.49	10660	
502.69	11141	
502.89	12088	
503.09	12179	
503.28	9539.4	
503.48	9768.1	
503.68	11273	
503.88	11419	
504.07	10703	
504.27	10180	
504.47	11780	
504.67	11878	
504.86	10665	
505.06	10236	
505.26	11332	
505.46	13155	
505.65	10019	
505.85	10300	
506.05	11165	
506.25	11762	
506.44	9381.7	
506.64	10304	
506.84	11076	
507.04	12080	
507.23	9609.1	
507.43	10229	
507.63	13091	
507.83	11290	
508.02	10232	
508.22	9712.8	
508.42	13443	
508.62	11135	
508.81	9987.3	
509.01	10591	
509.21	10944	
509.4	11162	
509.6	10141	
509.8	9524.4	
510	11163	
510.19	12790	
510.39	9506	
510.59	9685.5	
510.79	11059	
510.98	12549	
511.18	9712.8	
511.38	9829.6	
511.57	11800	
511.77	11671	
511.97	10518	
512.17	9398.8	
512.36	11823	
512.56	11746	
512.76	9465	
512.95	9306	
513.15	11909	
513.35	10582	
513.55	10376	
513.74	9602.9	
513.94	11914	
514.14	11238	
514.33	10539	
514.53	10227	
514.73	11288	
514.92	11426	
515.12	9681.4	
515.32	9597.5	
515.51	11548	
515.71	12126	
515.91	11299	
516.11	9777.7	
516.3	13392	
516.5	11126	
516.7	10252	
516.89	10899	
517.09	11336	
517.29	11091	
517.48	10400	
517.68	9953.8	
517.88	11036	
518.07	11710	
518.27	10482	
518.47	9361.3	
518.66	12250	
518.86	10806	
519.06	9280	
519.25	9822.7	
519.45	11178	
519.65	12702	
519.84	10347	
520.04	11184	
520.24	13082	
520.43	11861	
520.63	10129	
520.83	9817.3	
521.02	10940	
521.22	11621	
521.42	10337	
521.61	10852	
521.81	11312	
522.01	11493	
522.2	10277	
522.4	10036	
522.6	11968	
522.79	10658	
522.99	10093	
523.18	9462.3	
523.38	11798	
523.58	11903	
523.77	11588	
523.97	9531.9	
524.17	13683	
524.36	12814	
524.56	11066	
524.76	10557	
524.95	11981	
525.15	11501	
525.34	10426	
525.54	10591	
525.74	12377	
525.93	11477	
526.13	11734	
526.33	10658	
526.52	12840	
526.72	12248	
526.91	11851	
527.11	11105	
527.31	12779	
527.5	13321	
527.7	11075	
527.89	10099	
528.09	11828	
528.29	12398	
528.48	11504	
528.68	10998	
528.87	12748	
529.07	12839	
529.27	10997	
529.46	10465	
529.66	12326	
529.85	12804	
530.05	10359	
530.25	11133	
530.44	13754	
530.64	12301	
530.83	10689	
531.03	11004	
531.23	12820	
531.42	12737	
531.62	11800	
531.81	11131	
532.01	13071	
532.21	13593	
532.4	10855	
532.6	11398	
532.79	13814	
532.99	13280	
533.18	11428	
533.38	12439	
533.58	12820	
533.77	13578	
533.97	11484	
534.16	12339	
534.36	13874	
534.55	12915	
534.75	12412	
534.95	11374	
535.14	13827	
535.34	12945	
535.53	11092	
535.73	13110	
535.92	14244	
536.12	12959	
536.31	11228	
536.51	12399	
536.71	13266	
536.9	12982	
537.1	11321	
537.29	11669	
537.49	13777	
537.68	12740	
537.88	12022	
538.07	11099	
538.27	13094	
538.46	14070	
538.66	11064	
538.86	11509	
539.05	13043	
539.25	13630	
539.44	11783	
539.64	11270	
539.83	12818	
540.03	13937	
540.22	11239	
540.42	11340	
540.61	13085	
540.81	13257	
541	11721	
541.2	12423	
541.39	12585	
541.59	13164	
541.78	12057	
541.98	11047	
542.18	12350	
542.37	12123	
542.57	11429	
542.76	12036	
542.96	12241	
543.15	13012	
543.35	11320	
543.54	10803	
543.74	13239	
543.93	12794	
544.13	11331	
544.32	12455	
544.52	13059	
544.71	12206	
544.91	10361	
545.1	11649	
545.3	12261	
545.49	13050	
545.69	10354	
545.88	10937	
546.08	13859	
546.27	13510	
546.47	11453	
546.66	10811	
546.86	13103	
547.05	13738	
547.24	10964	
547.44	10839	
547.63	11996	
547.83	13223	
548.02	11228	
548.22	11363	
548.41	11802	
548.61	13252	
548.8	10727	
549	10642	
549.19	12422	
549.39	12792	
549.58	10323	
549.78	10875	
549.97	12875	
550.17	12260	
550.36	11711	
550.55	12841	
550.75	12372	
550.94	13231	
551.14	10455	
551.33	10869	
551.53	11602	
551.72	12708	
551.92	10918	
552.11	10657	
552.31	12641	
552.5	12693	
552.69	12301	
552.89	10252	
553.08	12586	
553.28	12271	
553.47	10682	
553.67	11801	
553.86	13248	
554.06	11567	
554.25	9815.2	
554.44	10361	
554.64	13926	
554.83	13508	
555.03	10316	
555.22	10737	
555.42	12715	
555.61	12375	
555.8	10530	
556	10693	
556.19	11536	
556.39	12920	
556.58	10545	
556.78	10562	
556.97	12225	
557.16	12017	
557.36	11843	
557.55	10226	
557.75	11187	
557.94	13057	
558.13	10183	
558.33	10060	
558.52	12830	
558.72	11574	
558.91	10077	
559.1	10318	
559.3	11371	
559.49	11003	
559.69	9657.5	
559.88	10709	
560.07	12213	
560.27	12639	
560.46	10854	
560.66	11056	
560.85	11869	
561.04	11091	
561.24	10084	
561.43	10193	
561.63	11492	
561.82	11687	
562.01	11514	
562.21	10521	
562.4	12278	
562.59	13091	
562.79	10486	
562.98	10100	
563.18	12007	
563.37	13545	
563.56	10938	
563.76	10001	
563.95	11542	
564.14	11457	
564.34	10377	
564.53	10252	
564.73	12111	
564.92	12477	
565.11	10623	
565.31	10027	
565.5	12654	
565.69	11635	
565.89	10178	
566.08	10551	
566.27	12416	
566.47	13060	
566.66	11150	
566.85	9826.2	
567.05	12154	
567.24	11629	
567.44	10159	
567.63	11640	
567.82	12506	
568.02	12155	
568.21	10213	
568.4	10690	
568.6	12009	
568.79	12110	
568.98	9987.3	
569.18	10309	
569.37	12112	
569.56	14126	
569.76	10657	
569.95	11538	
570.14	12482	
570.34	12454	
570.53	10135	
570.72	10145	
570.91	13011	
571.11	12102	
571.3	10648	
571.49	11570	
571.69	12159	
571.88	11627	
572.07	11230	
572.27	11084	
572.46	11685	
572.65	12732	
572.85	10404	
573.04	10922	
573.23	12996	
573.43	12247	
573.62	10266	
573.81	10944	
574	12352	
574.2	12218	
574.39	10656	
574.58	10782	
574.78	13305	
574.97	12604	
575.16	11198	
575.36	11429	
575.55	13009	
575.74	13089	
575.93	10383	
576.13	11505	
576.32	12377	
576.51	12879	
576.71	10820	
576.9	12188	
577.09	13264	
577.28	12779	
577.48	11289	
577.67	10337	
577.86	12443	
578.05	12704	
578.25	10957	
578.44	11158	
578.63	12555	
578.83	13752	
579.02	10344	
579.21	11938	
579.4	12816	
579.6	12530	
579.79	11168	
579.98	13396	
580.17	13040	
580.37	13039	
580.56	10592	
580.75	11359	
580.94	13603	
581.14	13527	
581.33	11980	
581.52	10638	
581.71	12930	
581.91	13678	
582.1	10449	
582.29	11120	
582.48	12618	
582.68	12590	
582.87	11634	
583.06	11277	
583.25	12950	
583.45	12372	
583.64	11874	
583.83	12675	
584.02	12403	
584.21	12924	
584.41	11847	
584.6	11052	
584.79	12654	
584.98	13515	
585.18	10642	
585.37	10532	
585.56	12196	
585.75	12966	
585.94	10723	
586.14	11484	
586.33	13449	
586.52	12488	
586.71	11211	
586.91	10960	
587.1	11895	
587.29	12864	
587.48	10766	
587.67	10716	
587.87	12725	
588.06	12813	
588.25	12071	
588.44	11361	
588.63	12322	
588.83	12934	
589.02	10589	
589.21	10533	
589.4	12097	
589.59	11749	
589.78	9478	
589.98	9870.5	
590.17	11338	
590.36	11813	
590.55	9129.8	
590.74	9921	
590.94	13141	
591.13	11639	
591.32	9766.8	
591.51	9377	
591.7	12204	
591.89	11718	
592.09	9411.1	
592.28	10041	
592.47	10856	
592.66	13015	
592.85	9467.8	
593.05	9703.3	
593.24	11507	
593.43	12352	
593.62	9834.3	
593.81	10299	
594	11550	
594.19	11764	
594.39	9656.9	
594.58	9619.3	
594.77	11762	
594.96	12382	
595.15	9557.2	
595.34	10175	
595.54	11827	
595.73	10889	
595.92	8893.6	
596.11	10045	
596.3	12294	
596.49	11059	
596.68	9773.6	
596.88	10298	
597.07	12010	
597.26	10825	
597.45	9308	
597.64	10679	
597.83	11121	
598.02	11708	
598.22	9349	
598.41	10146	
598.6	11354	
598.79	10853	
598.98	9372.2	
599.17	10378	
599.36	11538	
599.55	12524	
599.74	11424	
599.94	11236	
600.13	12014	
600.32	10817	
600.51	9082.7	
600.7	9230.2	
600.89	12631	
601.08	12638	
601.27	9000.1	
601.47	10054	
601.66	11860	
601.85	12611	
602.04	9579.7	
602.23	9879.4	
602.42	10957	
602.61	11583	
602.8	9583.8	
602.99	9340.8	
603.18	11235	
603.37	11506	
603.57	9981.8	
603.76	10504	
603.95	12273	
604.14	11813	
604.33	9476.6	
604.52	9748.3	
604.71	11425	
604.9	11135	
605.09	10374	
605.28	10245	
605.47	12105	
605.66	11773	
605.86	9926.5	
606.05	9451.4	
606.24	12017	
606.43	10581	
606.62	9658.2	
606.81	10471	
607	11797	
607.19	11161	
607.38	9095.7	
607.57	9376.3	
607.76	10855	
607.95	10333	
608.14	9734	
608.33	10425	
608.52	10827	
608.72	11869	
608.91	9004.9	
609.1	8979.7	
609.29	10920	
609.48	10470	
609.67	9996.1	
609.86	8940.1	
610.05	10508	
610.24	10892	
610.43	8708	
610.62	8417.8	
610.81	11998	
611	11711	
611.19	8933.2	
611.38	9674.6	
611.57	11199	
611.76	12620	
611.95	8821.3	
612.14	8505.9	
612.33	10991	
612.52	10426	
612.71	9243.8	
612.9	8430.1	
613.09	10049	
613.28	12464	
613.47	8981	
613.66	9825.5	
613.85	11041	
614.04	10592	
614.24	9052.7	
614.43	8287.4	
614.62	11258	
614.81	11133	
615	9501.2	
615.19	9624.1	
615.38	10364	
615.57	10867	
615.76	9458.2	
615.95	10439	
616.14	11271	
616.33	10946	
616.52	9707.4	
616.71	10068	
616.9	11160	
617.09	11037	
617.28	9112.1	
617.47	10464	
617.66	10276	
617.85	10426	
618.04	10163	
618.22	9610.4	
618.41	10659	
618.6	11654	
618.79	9464.3	
618.98	9245.9	
619.17	12032	
619.36	10153	
619.55	9335.3	
619.74	9368.1	
619.93	11406	
620.12	10799	
620.31	9949	
620.5	10184	
620.69	11817	
620.88	12202	
621.07	10890	
621.26	9968.8	
621.45	11496	
621.64	11523	
621.83	10164	
622.02	9256.8	
622.21	11501	
622.4	11344	
622.59	10658	
622.78	10352	
622.97	10853	
623.16	11838	
623.35	10013	
623.54	9155.1	
623.72	11160	
623.91	11362	
624.1	10281	
624.29	8868.4	
624.48	12384	
624.67	11625	
624.86	10245	
625.05	9246.6	
625.24	12433	
625.43	10835	
625.62	11910	
625.81	9522.4	
626	11856	
626.19	11206	
626.38	10407	
626.56	9748.3	
626.75	10996	
626.94	11876	
627.13	10187	
627.32	9029.5	
627.51	11638	
627.7	12980	
627.89	9090.3	
628.08	10332	
628.27	10808	
628.46	11088	
628.65	9423.4	
628.83	9140.1	
629.02	11651	
629.21	10889	
629.4	9955.2	
629.59	10086	
629.78	10823	
629.97	11832	
630.16	10120	
630.35	9645.9	
630.54	12267	
630.72	11918	
630.91	9650.7	
631.1	10105	
631.29	11417	
631.48	11588	
631.67	10121	
631.86	9656.9	
632.05	11052	
632.24	11153	
632.42	9241.8	
632.61	10015	
632.8	11160	
632.99	10785	
633.18	9904	
633.37	10378	
633.56	11308	
633.75	11236	
633.93	9875.3	
634.12	9642.5	
634.31	12183	
634.5	11940	
634.69	9655.5	
634.88	10080	
635.07	11112	
635.25	11837	
635.44	10548	
635.63	10834	
635.82	11093	
636.01	10572	
636.2	10430	
636.39	9940.8	
636.57	12148	
636.76	11904	
636.95	9385.2	
637.14	10875	
637.33	11447	
637.52	12517	
637.7	9179.7	
637.89	10073	
638.08	11129	
638.27	12477	
638.46	10143	
638.65	10578	
638.83	12446	
639.02	10795	
639.21	10101	
639.4	10538	
639.59	11272	
639.78	10826	
639.96	9256.8	
640.15	9314.8	
640.34	11082	
640.53	11265	
640.72	8925	
640.91	9416.6	
641.09	10465	
641.28	11732	
641.47	9258.2	
641.66	10124	
641.85	11198	
642.03	11479	
642.22	9896.5	
642.41	9441.1	
642.6	10551	
642.79	9880.8	
642.97	9070.5	
643.16	9826.8	
643.35	10441	
643.54	10383	
643.73	8896.4	
643.91	9811.1	
644.1	10079	
644.29	10673	
644.48	9112.1	
644.67	9067.7	
644.85	10247	
645.04	10623	
645.23	8452	
645.42	8865.7	
645.6	9999.5	
645.79	11120	
645.98	8825.4	
646.17	7733.8	
646.36	9650	
646.54	10296	
646.73	9527.2	
646.92	8230.8	
647.11	9919.7	
647.29	10957	
647.48	8435.6	
647.67	8077.2	
647.86	11098	
648.05	11239	
648.23	8649.9	
648.42	9943.6	
648.61	10466	
648.8	10322	
648.98	8228.7	
649.17	8671.1	
649.36	9772.2	
649.55	9413.1	
649.73	8329.1	
649.92	9131.9	
650.11	9775	
650.3	10099	
650.48	8383.7	
650.67	8114.1	
650.86	10340	
651.05	9213.8	
651.23	8458.1	
651.42	8333.2	
651.61	9762.7	
651.79	9867.8	
651.98	8508.6	
652.17	8127	
652.36	10134	
652.54	9265	
652.73	8210.3	
652.92	7935.2	
653.11	10125	
653.29	10185	
653.48	7382.2	
653.67	8423.3	
653.85	9839.1	
654.04	10906	
654.23	8521.6	
654.42	8011.7	
654.6	9258.9	
654.79	9985.2	
654.98	7449.8	
655.16	7934.5	
655.35	8813.8	
655.54	8779	
655.73	7613	
655.91	7331	
656.1	9921	
656.29	8770.1	
656.47	7044.3	
656.66	8732.5	
656.85	9153.1	
657.03	9134.6	
657.22	7705.8	
657.41	7744.7	
657.59	9256.1	
657.78	9025.4	
657.97	7305.8	
658.16	8082.7	
658.34	9837.1	
658.53	10277	
658.72	8994	
658.9	9564.7	
659.09	9158.5	
659.28	9382.4	
659.46	7770	
659.65	7795.3	
659.84	9053.4	
660.02	9669.8	
660.21	7572	
660.4	7571.3	
660.58	10005	
660.77	9329.2	
660.96	8278.6	
661.14	7335.8	
661.33	10466	
661.52	10381	
661.7	7121.5	
661.89	10975	
662.08	9001.5	
662.26	8531.8	
662.45	7453.2	
662.64	7522.9	
662.82	9699.9	
663.01	8859.5	
663.2	7614.3	
663.38	8322.9	
663.57	9611.1	
663.75	9398.1	
663.94	7953.6	
664.13	9104.6	
664.31	8891.6	
664.5	9613.8	
664.69	8217.1	
664.87	8737.3	
665.06	8712.7	
665.25	9449.3	
665.43	8841.8	
665.62	9004.9	
665.8	9732.6	
665.99	9037	
666.18	7886.7	
666.36	7981.6	
666.55	9696.4	
666.74	9598.8	
666.92	7563.1	
667.11	9048.6	
667.29	9002.9	
667.48	9663	
667.67	8765.3	
667.85	7759.1	
668.04	9061.6	
668.22	9080.7	
668.41	7912	
668.6	7942.7	
668.78	8817.2	
668.97	9056.8	
669.15	8259.5	
669.34	7065.5	
669.53	8753.7	
669.71	9201.5	
669.9	7452.6	
670.08	8103.8	
670.27	8798.8	
670.46	9340.8	
670.64	8248.5	
670.83	8425.3	
671.01	8712.1	
671.2	9247.3	
671.38	7415	
671.57	7307.2	
671.76	10006	
671.94	10526	
672.13	7251.9	
672.31	8331.1	
672.5	9475.3	
672.69	8811	
672.87	7477.8	
673.06	7797.3	
673.24	9375.6	
673.43	8850.6	
673.61	8187.8	
673.8	7772	
673.98	9479.4	
674.17	9757.9	
674.36	8352.3	
674.54	8118.8	
674.73	9290.3	
674.91	9449.3	
675.1	7887.4	
675.28	7453.9	
675.47	9009.7	
675.65	9566.1	
675.84	7709.2	
676.03	8076.5	
676.21	8824	
676.4	8348.2	
676.58	8425.3	
676.77	8287.4	
676.95	10300	
677.14	8744.1	
677.32	7322.2	
677.51	7196.6	
677.69	9486.9	
677.88	8348.9	
678.06	7192.5	
678.25	7389.1	
678.44	9047.2	
678.62	8772.8	
678.81	7109.9	
678.99	8150.2	
679.18	9865.7	
679.36	9395.4	
679.55	7658.7	
679.73	8361.2	
679.92	9362.6	
680.1	8770.1	
680.29	8851.3	
680.47	7657.4	
680.66	8675.2	
680.84	9655.5	
681.03	6934.4	
681.21	8060.8	
681.4	8823.3	
681.58	8612.4	
681.77	7363.1	
681.95	7299.6	
682.14	9592.7	
682.32	9914.9	
682.51	8189.8	
682.69	7122.8	
682.88	8576.9	
683.06	9271.2	
683.25	7897.7	
683.43	8389.2	
683.62	8972.2	
683.8	9306.7	
683.99	8486.8	
684.17	7823.2	
684.36	10193	
684.54	8778.3	
684.73	6823.1	
684.91	7024.5	
685.1	8991.9	
685.28	8452.6	
685.46	7578.2	
685.65	7660.8	
685.83	9283.4	
686.02	8558.5	
686.2	7137.9	
686.39	7154.9	
686.57	8234.2	
686.76	9939.5	
686.94	7118.1	
687.13	7239.6	
687.31	9068.4	
687.5	8650.6	
687.68	6690	
687.86	8069	
688.05	10411	
688.23	8154.3	
688.42	8060.1	
688.6	7213.6	
688.79	8531.2	
688.97	8566.7	
689.16	7650.5	
689.34	6559	
689.52	9326.4	
689.71	9648.7	
689.89	7916.8	
690.08	7234.8	
690.26	8858.1	
690.45	8703.9	
690.63	8120.9	
690.81	7329.7	
691	8566	
691.18	8495.7	
691.37	7460.8	
691.55	9727.2	
691.74	8463.6	
691.92	10647	
692.1	7539.3	
692.29	6890	
692.47	8694.3	
692.66	7964.6	
692.84	7116.7	
693.02	7688.1	
693.21	8101.1	
693.39	8624.7	
693.58	7756.3	
693.76	7221.1	
693.94	9808.4	
694.13	9710.1	
694.31	7264.1	
694.5	8391.2	
694.68	8484.7	
694.86	8856.1	
695.05	7639.6	
695.23	7781.6	
695.42	9256.1	
695.6	11570	
695.78	8293.6	
695.97	7266.9	
696.15	9276.6	
696.34	8634.2	
696.52	6960.4	
696.7	7976.2	
696.89	9014.5	
697.07	8351.6	
697.25	7869.7	
697.44	9284.8	
697.62	8976.9	
697.81	9264.3	
697.99	7471	
698.17	7976.8	
698.36	8194.6	
698.54	8977.6	
698.72	7812.3	
698.91	6866.2	
699.09	8512	
699.28	8415.8	
699.46	7402.7	
699.64	7244.3	
699.83	8216.5	
700.01	9447.3	
700.19	8100.4	
700.38	6580.1	
700.56	9620	
700.74	8432.9	
700.93	6916	
701.11	7771.4	
701.29	8987.9	
701.48	10082	
701.66	7215.7	
701.84	7174.7	
702.03	8534.6	
702.21	9256.1	
702.39	6716.7	
702.58	7389.1	
702.76	8859.5	
702.94	9131.9	
703.13	6666.8	
703.31	9157.2	
703.49	8211	
703.68	9231.6	
703.86	6954.9	
704.04	7979.6	
704.23	8776.9	
704.41	9095	
704.59	7019.1	
704.78	8381.7	
704.96	9834.3	
705.14	9252.7	
705.33	6883.9	
705.51	7624.6	
705.69	8524.3	
705.87	9482.1	
706.06	7974.1	
706.24	6775.4	
706.42	8779.6	
706.61	9207	
706.79	7974.1	
706.97	6780.1	
707.16	8327	
707.34	8970.8	
707.52	7933.1	
707.7	7048.4	
707.89	8490.9	
708.07	8106.5	
708.25	7879.2	
708.44	8353.7	
708.62	8305.2	
708.8	9442.5	
708.98	8101.1	
709.17	7141.3	
709.35	8760.5	
709.53	8763.9	
709.72	6768.5	
709.9	7275.1	
710.08	9079.3	
710.26	8918.2	
710.45	8382.3	
710.63	7019.8	
710.81	8634.2	
710.99	8674.5	
711.18	7617.1	
711.36	7178.1	
711.54	8457.4	
711.72	9144.2	
711.91	7180.9	
712.09	6639.5	
712.27	8433.5	
712.45	9155.8	
712.64	7449.8	
712.82	6470.2	
713	7869.7	
713.18	8060.8	
713.37	6457.9	
713.55	7843.7	
713.73	8818.6	
713.91	7366.5	
714.1	6703	
714.28	6139.1	
714.46	8316.8	
714.64	7531.1	
714.83	5524.7	
715.01	6324.1	
715.19	7594.6	
715.37	6915.3	
715.55	5897.5	
715.74	6384.2	
715.92	8538.7	
716.1	6473.6	
716.28	7377.5	
716.47	6455.2	
716.65	7105.8	
716.83	7188.4	
717.01	6216.3	
717.19	6255.2	
717.38	9297.1	
717.56	6963.8	
717.74	6667.5	
717.92	5612.8	
718.1	8163.9	
718.29	7410.2	
718.47	5400.5	
718.65	6088.6	
718.83	8168	
719.01	8036.9	
719.2	5278.3	
719.38	6403.3	
719.56	7741.3	
719.74	9351.7	
719.92	5917.3	
720.11	7010.2	
720.29	7718.1	
720.47	6917.4	
720.65	5479	
720.83	6365.1	
721.02	7086.7	
721.2	6965.1	
721.38	6368.5	
721.56	5571.8	
721.74	6389	
721.92	6673.6	
722.11	6811.5	
722.29	6539.2	
722.47	7830.7	
722.65	7001.3	
722.83	5565.7	
723.01	6453.1	
723.2	7102.4	
723.38	7363.8	
723.56	5036.6	
723.74	6264.1	
723.92	6608.1	
724.1	7804.8	
724.29	5449.6	
724.47	6689.3	
724.65	6693.4	
724.83	6595.1	
725.01	5327.4	
725.19	6363.7	
725.37	6700.3	
725.56	6735.8	
725.74	5273.5	
725.92	5424.4	
726.1	6498.2	
726.28	6843.6	
726.46	5988.3	
726.64	5618.9	
726.83	6903	
727.01	7116	
727.19	5214.8	
727.37	6065.4	
727.55	7003.4	
727.73	7547.4	
727.91	5154.1	
728.09	5042.8	
728.28	7531.1	
728.46	8103.8	
728.64	6224.5	
728.82	6126.2	
729	8715.5	
729.18	7963.2	
729.36	5367	
729.54	7693.5	
729.72	9009	
729.91	7233.4	
730.09	7300.3	
730.27	6057.2	
730.45	7154.2	
730.63	7813.7	
730.81	6738.5	
730.99	5654.4	
731.17	8264.2	
731.35	6868.9	
731.53	6241.5	
731.71	5941.8	
731.9	8054.7	
732.08	8234.9	
732.26	6097.5	
732.44	5778	
732.62	8168.7	
732.8	7699	
732.98	6565.8	
733.16	5553.4	
733.34	7761.8	
733.52	6440.9	
733.7	6152.8	
733.88	6412.9	
734.07	7492.8	
734.25	7350.2	
734.43	5581.4	
734.61	7101	
734.79	8842.4	
734.97	7224.6	
735.15	5600.5	
735.33	5994.4	
735.51	7516.7	
735.69	7165.2	
735.87	7223.9	
736.05	6203.3	
736.23	7302.4	
736.41	7141.9	
736.59	6037.4	
736.77	6164.4	
736.95	7843.7	
737.13	7199.3	
737.32	5707	
737.5	5822.4	
737.68	8373.5	
737.86	7029.3	
738.04	5539.1	
738.22	7329.7	
738.4	6913.9	
738.58	7245.7	
738.76	6079.7	
738.94	5175.2	
739.12	7066.9	
739.3	6939.2	
739.48	6765.1	
739.66	6571.2	
739.84	7267.6	
740.02	7305.1	
740.2	5115.1	
740.38	5525.4	
740.56	7613	
740.74	6518	
740.92	6194.4	
741.1	6090	
741.28	7083.9	
741.46	6996.5	
741.64	5728.2	
741.82	6246.3	
742	7161.1	
742.18	7133.8	
742.36	5988.3	
742.54	5472.2	
742.72	7665.5	
742.9	6386.2	
743.08	6294.1	
743.26	5001.8	
743.44	7920.2	
743.62	7775.5	
743.8	6453.1	
743.98	5540.4	
744.16	7415.7	
744.34	7133.1	
744.52	6423.1	
744.7	6304.3	
744.88	7566.6	
745.06	7107.8	
745.24	6373.3	
745.42	6490.7	
745.6	7629.4	
745.78	7372	
745.96	5149.3	
746.14	5461.2	
746.32	8381	
746.5	7602.1	
746.68	6083.8	
746.86	5496.7	
747.03	8077.2	
747.21	6313.9	
747.39	6104.3	
747.57	5560.9	
747.75	7284.6	
747.93	7660.1	
748.11	5422.3	
748.29	5361.6	
748.47	8884.8	
748.65	6973.3	
748.83	6270.2	
749.01	5918.6	
749.19	7464.2	
749.37	6556.9	
749.55	5833.3	
749.73	5901.6	
749.91	7021.1	
750.09	6843.6	
750.26	6008.1	
750.44	5337.7	
750.62	7101.7	
750.8	7067.5	
750.98	5212.1	
751.16	5558.2	
751.34	7190.4	
751.52	6520	
751.7	6374	
751.88	5226.4	
752.06	7571.3	
752.24	7419.1	
752.42	5057.1	
752.59	5542.5	
752.77	7056.6	
752.95	8312	
753.13	6242.9	
753.31	5705	
753.49	6642.2	
753.67	7197.2	
753.85	5917.9	
754.03	5531.6	
754.21	7408.2	
754.38	7854.6	
754.56	5598.5	
754.74	4650.9	
754.92	6599.2	
755.1	7303.7	
755.28	4640	
755.46	4566.3	
755.64	7914	
755.82	8000.7	
755.99	4766.3	
756.17	4709.6	
756.35	5261.2	
756.53	6827.9	
756.71	3483.6	
756.89	4484.4	
757.07	6453.8	
757.25	5558.2	
757.42	5152	
757.6	6100.9	
757.78	6662.7	
757.96	5629.2	
758.14	5007.3	
758.32	4409.3	
758.5	5190.2	
758.67	5986.2	
758.85	4691.2	
759.03	4865.3	
759.21	6223.1	
759.39	5588.2	
759.57	4356.7	
759.75	5496.1	
759.92	6931	
760.1	6138.4	
760.28	5900.2	
760.46	6152.8	
760.64	5930.9	
760.82	5695.4	
760.99	5744.6	
761.17	4929.5	
761.35	6800.6	
761.53	5868.8	
761.71	5083.7	
761.89	5795.1	
762.06	6807.4	
762.24	6218.3	
762.42	5164.3	
762.6	4926	
762.78	6226.5	
762.96	6932.4	
763.13	5612.1	
763.31	5303.6	
763.49	7183.6	
763.67	6243.6	
763.85	6068.8	
764.02	6690	
764.2	7365.9	
764.38	6625.2	
764.56	5092.6	
764.74	6025.1	
764.91	7529.7	
765.09	6325.5	
765.27	4810	
765.45	4670.1	
765.63	7529.7	
765.8	7344	
765.98	4357.4	
766.16	4626.4	
766.34	5963	
766.52	5668.8	
766.69	5619.6	
766.87	4486.4	
767.05	6344.6	
767.23	7072.3	
767.41	4757.4	
767.58	5078.3	
767.76	6830	
767.94	6871.6	
768.12	4855.7	
768.29	5614.2	
768.47	6369.9	
768.65	7019.8	
768.83	4442.7	
769	5632.6	
769.18	5877	
769.36	6619.7	
769.54	5634	
769.72	4496	
769.89	6867.5	
770.07	7040.2	
770.25	4810.7	
770.43	6120	
770.6	7673.7	
770.78	8069	
770.96	4938.3	
771.14	4823	
771.31	6727.6	
771.49	6057.2	
771.67	4103.4	
771.85	4402.5	
772.02	5241.4	
772.2	6113.2	
772.38	5151.3	
772.55	4584	
772.73	6320.7	
772.91	6167.1	
773.09	4957.4	
773.26	4983.4	
773.44	6220.4	
773.62	5879	
773.8	4423.6	
773.97	4138.3	
774.15	6353.5	
774.33	5923.4	
774.5	4317.1	
774.68	4706.2	
774.86	6497.5	
775.04	5920	
775.21	4385.4	
775.39	4368.3	
775.57	6193.7	
775.74	6553.5	
775.92	4306.2	
776.1	4057	
776.27	6215.6	
776.45	7363.1	
776.63	4400.4	
776.81	3877.5	
776.98	5746.6	
777.16	6916	
777.34	4524	
777.51	4819.6	
777.69	5715.9	
777.87	5573.9	
778.04	4549.9	
778.22	5183.4	
778.4	5531.6	
778.57	6178	
778.75	3805.8	
778.93	4042.7	
779.1	5319.3	
779.28	5158.2	
779.46	3761.4	
779.64	4272.7	
779.81	6320	
779.99	7228	
780.17	5091.9	
780.34	5199.8	
780.52	5845.6	
780.69	5938.4	
780.87	4576.5	
781.05	4072.7	
781.22	5806.7	
781.4	5887.2	
781.58	4268	
781.75	3416	
781.93	5872.2	
782.11	5240.8	
782.28	5205.3	
782.46	4226.3	
782.64	5068.7	
782.81	5967.1	
782.99	4363.5	
783.17	4315.8	
783.34	5948	
783.52	5087.2	
783.69	4565.6	
783.87	5338.4	
784.05	5194.3	
784.22	5220.3	
784.4	5307	
784.58	4539.7	
784.75	6141.9	
784.93	5167	
785.1	4209.3	
785.28	4877.6	
785.46	5859.9	
785.63	5193.6	
785.81	4186.7	
785.99	4007.9	
786.16	5342.5	
786.34	5767.8	
786.51	4085.7	
786.69	4479.6	
786.87	4906.3	
787.04	5446.2	
787.22	3887	
787.39	4917.9	
787.57	5139.7	
787.75	6296.8	
787.92	5063.3	
788.1	5007.3	
788.27	5215.5	
788.45	4938.3	
788.63	4665.3	
788.8	3416	
788.98	5593.7	
789.15	4835.3	
789.33	3544.4	
789.5	4177.2	
789.68	6107	
789.86	6205.3	
790.03	4611.3	
790.21	4062.5	
790.38	6110.5	
790.56	5352.7	
790.73	3892.5	
790.91	3916.4	
791.09	5150.6	
791.26	5904.3	
791.44	4112.3	
791.61	3581.9	
791.79	5093.3	
791.96	5180	
792.14	3682.2	
792.32	3280.2	
792.49	5169.1	
792.67	5251	
792.84	3726.6	
793.02	3561.4	
793.19	5549.3	
793.37	6326.9	
793.54	3288.4	
793.72	3661.8	
793.89	6479.1	
794.07	5158.2	
794.25	4303.5	
794.42	3324.5	
794.6	6234	
794.77	5774.6	
794.95	4535.6	
795.12	3873.4	
795.3	5104.9	
795.47	5779.4	
795.65	4333.5	
795.82	4147.8	
796	4897.4	
796.17	6902.3	
796.35	4047.5	
796.52	4746.5	
796.7	5679	
796.87	5814.9	
797.05	4994.3	
797.22	4988.2	
797.4	5715.2	
797.57	6780.8	
797.75	4202.4	
797.92	3936.2	
798.1	6015.6	
798.27	5083.1	
798.45	3407.8	
798.62	3598.3	
798.8	5458.5	
798.97	5910.4	
799.15	4398.4	
799.32	4205.2	
799.5	4696.7	
799.67	5489.9	
799.85	4557.4	
800.02	3279.5	
800.2	5056.4	
800.37	5405.3	
800.55	4725.3	
800.72	3895.2	
800.9	5859.2	
801.07	6376.7	
801.25	5299.5	
801.42	4317.1	
801.6	5920	
801.77	5622.4	
801.95	4026.3	
802.12	3829	
802.29	5645.6	
802.47	5571.8	
802.64	4268	
802.82	3214.6	
802.99	5089.9	
803.17	6122.1	
803.34	4217.5	
803.52	3733.4	
803.69	6730.3	
803.87	4873.5	
804.04	4117.8	
804.21	4271.4	
804.39	6269.5	
804.56	5332.2	
804.74	3524.6	
804.91	4250.9	
805.09	5145.2	
805.26	5215.5	
805.44	3589.4	
805.61	3910.3	
805.78	5758.9	
805.96	5815.5	
806.13	4298	
806.31	4653	
806.48	4651.6	
806.66	5184.8	
806.83	4293.9	
807	4201.1	
807.18	5076.9	
807.35	5481.7	
807.53	4143.7	
807.7	3326.6	
807.87	6322.8	
808.05	5181.4	
808.22	4657.1	
808.4	3322.5	
808.57	5066.7	
808.74	4748.6	
808.92	3749.8	
809.09	4843.4	
809.27	4999.8	
809.44	5652.4	
809.61	3414.6	
809.79	3768.3	
809.96	6287.3	
810.14	5864.7	
810.31	3243.3	
810.48	4024.3	
810.66	5186.8	
810.83	5986.9	
811.01	3774.4	
811.18	4238.6	
811.35	5905	
811.53	4567	
811.7	4664.6	
811.87	4341	
812.05	5107	
812.22	5057.8	
812.39	3644.7	
812.57	3618.8	
812.74	5110.4	
812.92	6897.6	
813.09	3995.6	
813.26	4422.9	
813.44	6632	
813.61	5070.1	
813.78	3334.8	
813.96	4526.7	
814.13	5140.4	
814.3	4854.4	
814.48	4879.6	
814.65	4025.6	
814.82	6374.6	
815	4933.6	
815.17	4120.5	
815.34	5074.2	
815.52	5003.2	
815.69	5042.1	
815.87	4105.5	
816.04	3595.6	
816.21	5188.9	
816.38	4525.3	
816.56	3943.7	
816.73	3725.3	
816.9	6477.7	
817.08	5906.3	
817.25	3687	
817.42	4724.7	
817.6	4708.3	
817.77	5141.8	
817.94	4225.6	
818.12	3661.8	
818.29	4830.5	
818.46	7622.5	
818.64	3866.6	
818.81	3588	
818.98	4762.9	
819.16	7014.3	
819.33	4414.1	
819.5	4131.4	
819.67	5503.6	
819.85	6162.3	
820.02	4032.5	
820.19	4285.7	
820.37	5348.6	
820.54	4940.4	
820.71	4214	
820.88	5231.9	
821.06	5337	
821.23	4858.5	
821.4	4201.1	
821.58	4182.6	
821.75	5856.5	
821.92	5248.3	
822.09	3361.4	
822.27	3469.9	
822.44	5146.5	
822.61	5056.4	
822.79	3412.6	
822.96	6621.1	
823.13	5641.5	
823.3	4821.6	
823.48	3960.8	
823.65	3557.3	
823.82	5851.7	
823.99	4638.6	
824.17	4902.8	
824.34	3592.1	
824.51	6816.3	
824.68	5109	
824.86	3781.9	
825.03	4167.6	
825.2	5161.6	
825.37	6220.4	
825.55	3725.3	
825.72	4141	
825.89	6861.4	
826.06	6304.3	
826.24	4057	
826.41	4007.2	
826.58	6223.1	
826.75	5406.6	
826.92	3145.7	
827.1	3500	
827.27	8480	
827.44	6774.7	
827.61	3833.8	
827.79	4679.6	
827.96	4892.6	
828.13	5188.9	
828.3	3943	
828.47	3390.1	
828.65	5337.7	
828.82	5294	
828.99	5171.8	
829.16	4582.7	
829.34	5745.2	
829.51	5567.7	
829.68	4149.9	
829.85	4308.2	
830.02	6059.3	
830.2	5752.1	
830.37	3244.7	
830.54	4999.1	
830.71	6580.1	
830.88	5113.8	
831.05	3261.7	
831.23	3756.7	
831.4	6250.4	
831.57	7075	
831.74	3866.6	
831.91	3413.3	
832.09	5382.1	
832.26	5745.9	
832.43	3956	
832.6	4462.5	
832.77	5357.5	
832.94	6187.6	
833.12	3113.6	
833.29	3904.1	
833.46	5527.5	
833.63	7253.9	
833.8	4305.5	
833.97	3964.9	
834.15	5733.6	
834.32	5533.6	
834.49	4115.7	
834.66	4203.1	
834.83	5973.2	
835	4805.2	
835.17	3847.5	
835.35	3833.8	
835.52	5632.6	
835.69	5524.7	
835.86	4065.9	
836.03	3285.6	
836.2	5731.6	
836.37	5348.6	
836.55	3966.9	
836.72	3720.5	
836.89	5311.7	
837.06	5788.9	
837.23	4029.7	
837.4	4414.7	
837.57	6564.4	
837.75	7301	
837.92	3652.9	
838.09	3854.3	
838.26	5296	
838.43	6030.6	
838.6	4207.2	
838.77	3750.5	
838.94	6888.7	
839.11	6623.1	
839.29	3951.9	
839.46	3125.2	
839.63	5674.9	
839.8	5460.6	
839.97	3935.5	
840.14	3880.2	
840.31	5487.2	
840.48	5723.4	
840.65	3156.6	
840.82	3961.5	
841	5756.8	
841.17	5664.7	
841.34	3488.4	
841.51	3606.5	
841.68	5647.6	
841.85	5368.4	
842.02	3667.9	
842.19	3076.7	
842.36	5487.9	
842.53	5461.2	
842.7	3446.7	
842.87	4375.1	
843.05	7194.5	
843.22	5442.8	
843.39	3362.8	
843.56	3649.5	
843.73	5235.3	
843.9	5787.6	
844.07	5823.7	
844.24	4838	
844.41	8434.9	
844.58	4974.5	
844.75	3420.8	
844.92	3702.7	
845.09	5700.9	
845.26	5694	
845.43	3518.4	
845.6	3733.4	
845.77	5746.6	
845.94	5452.4	
846.12	3889.8	
846.29	4156.7	
846.46	5887.9	
846.63	5715.9	
846.8	3509.5	
846.97	4199.7	
847.14	6212.9	
847.31	5657.9	
847.48	3986.7	
847.65	4362.2	
847.82	5916.6	
847.99	5979.4	
848.16	4743.8	
848.33	4330.8	
848.5	5259.2	
848.67	6255.2	
848.84	3459.7	
849.01	3673.4	
849.18	5123.3	
849.35	4769	
849.52	4440.7	
849.69	3419.4	
849.86	5897.5	
850.03	6154.8	
850.2	3560.1	
850.37	4379.2	
850.54	6082.5	
850.71	5360.2	
850.88	4239.3	
851.05	3459.7	
851.22	5601.2	
851.39	6337.8	
851.56	3353.9	
851.73	4069.3	
851.9	5022.3	
852.07	5952.8	
852.24	3902.1	
852.41	3449.5	
852.58	5547.3	
852.75	5049.6	
852.92	3978.5	
853.09	3445.4	
853.26	5297.4	
853.43	6105	
853.6	3445.4	
853.77	3006.4	
853.94	6221.7	
854.11	5644.9	
854.28	5339.7	
854.44	3756	
854.61	6683.2	
854.78	6066.8	
854.95	3476.1	
855.12	4413.4	
855.29	4634.6	
855.46	6297.5	
855.63	3538.2	
855.8	4873.5	
855.97	5266	
856.14	6077	
856.31	4978.6	
856.48	3831.7	
856.65	5293.3	
856.82	4974.5	
856.99	3367.5	
857.16	3835.2	
857.33	6923.5	
857.49	5342.5	
857.66	3803.8	
857.83	4087.1	
858	5248.3	
858.17	5528.8	
858.34	3285.6	
858.51	3506.8	
858.68	6378.7	
858.85	6453.1	
859.02	4110.3	
859.19	4342.4	
859.36	4952	
859.52	5089.9	
859.69	3519.1	
859.86	4141	
860.03	5068.7	
860.2	6324.1	
860.37	3190.1	
860.54	3574.4	
860.71	5885.2	
860.88	6353.5	
861.05	3950.5	
861.21	4399.7	
861.38	6344.6	
861.55	4885.1	
861.72	3207.1	
861.89	3915.7	
862.06	5988.3	
862.23	6416.3	
862.4	3442.6	
862.56	3623.5	
862.73	5839.4	
862.9	5490.6	
863.07	4159.4	
863.24	3168.2	
863.41	4874.2	
863.58	4990.9	
863.75	3613.3	
863.91	4038.6	
864.08	6316.6	
864.25	5840.1	
864.42	4436.6	
864.59	4905.6	
864.76	6653.2	
864.93	5003.9	
865.09	3437.2	
865.26	3762.8	
865.43	6190.3	
865.6	6593.1	
865.77	3074.7	
865.94	3514.3	
866.1	6287.3	
866.27	5960.3	
866.44	5262.6	
866.61	3307.5	
866.78	5412.1	
866.95	5851	
867.11	3377.8	
867.28	3162.7	
867.45	6057.2	
867.62	5029.8	
867.79	4095.9	
867.96	3506.8	
868.12	4972.5	
868.29	5997.1	
868.46	2993.4	
868.63	4710.3	
868.8	6126.8	
868.97	5919.3	
869.13	3704.1	
869.3	3708.9	
869.47	5803.9	
869.64	6036	
869.81	3464.5	
869.97	3556	
870.14	5715.2	
870.31	6408.8	
870.48	3469.3	
870.65	4387.4	
870.81	5362.3	
870.98	5265.3	
871.15	4022.2	
871.32	3693.9	
871.48	5844.9	
871.65	6413.6	
871.82	3544.4	
871.99	3887	
872.16	6892.1	
872.32	6186.2	
872.49	3512.3	
872.66	3623.5	
872.83	5925.5	
872.99	5207.3	
873.16	4051.6	
873.33	3429.7	
873.5	5520	
873.67	5620.3	
873.83	3711.6	
874	4668	
874.17	5717.2	
874.34	6797.2	
874.5	4557.4	
874.67	4410.6	
874.84	6315.9	
875.01	5004.6	
875.17	4965.6	
875.34	3487	
875.51	5640.8	
875.68	6744.6	
875.84	4314.4	
876.01	5117.2	
876.18	5927.5	
876.34	5830.6	
876.51	3563.5	
876.68	3415.3	
876.85	5443.5	
877.01	6161	
877.18	5029.1	
877.35	3454.2	
877.52	5519.3	
877.68	4930.1	
877.85	3463.8	
878.02	3461.7	
878.18	5470.1	
878.35	5154.7	
878.52	2835.8	
878.69	3909.6	
878.85	5986.2	
879.02	5879	
879.19	5010	
879.35	3784.6	
879.52	5849	
879.69	6081.1	
879.86	2978.4	
880.02	3956.7	
880.19	5372.5	
880.36	6698.2	
880.52	4067.9	
880.69	4169.7	
880.86	5906.3	
881.02	6032.6	
881.19	3895.9	
881.36	3828.3	
881.52	5829.9	
881.69	5169.1	
881.86	3724.6	
882.02	3707.5	
882.19	6140.5	
882.36	7276.4	
882.52	3577.1	
882.69	4987.5	
882.86	5722	
883.02	5555.5	
883.19	4349.9	
883.36	4029.7	
883.52	6011.5	
883.69	6854.6	
883.86	3593.5	
884.02	3146.4	
884.19	5949.3	
884.36	5517.9	
884.52	3925.3	
884.69	3728	
884.86	5191.6	
885.02	6555.5	
885.19	3958	
885.36	4086.4	
885.52	5453.1	
885.69	5642.2	
885.86	5089.9	
886.02	4521.9	
886.19	5928.2	
886.35	5322	
886.52	3859.7	
886.69	4946.5	
886.85	5040.1	
887.02	6311.2	
887.19	6311.2	
887.35	6311.2	
887.52	6311.2	
887.68	6311.2	
887.85	6311.2	
888.02	6311.2	
888.18	6311.2	
888.35	6311.2	
888.51	6311.2	
888.68	6311.2	
888.85	6311.2	
889.01	6311.2	
889.18	6311.2	
889.35	6311.2	
889.51	6311.2	
889.68	6311.2	
889.84	6311.2	
890.01	6311.2	
890.17	6311.2	
890.34	6311.2	
890.51	6311.2	
890.67	6311.2	
890.84	6311.2	
891	6311.2	
891.17	6311.2	
891.34	6311.2	
891.5	6311.2	
891.67	6311.2	
891.83	6311.2	
892	6311.2	
892.16	6311.2	
892.33	6311.2	
892.5	6311.2	
892.66	6311.2	
892.83	6311.2	
892.99	6311.2	
893.16	6311.2	
893.32	6311.2	
893.49	6311.2	
893.65	6311.2	
893.82	6311.2	
893.99	6311.2	
894.15	6311.2	
894.32	6311.2	
894.48	6311.2	
894.65	6311.2	
894.81	6311.2	
894.98	6311.2	
895.14	6311.2	
895.31	6311.2	
895.47	6311.2	
895.64	6311.2	
895.81	6311.2	
895.97	6311.2	
896.14	6311.2	
896.3	6311.2	
896.47	6311.2	
896.63	6311.2	
896.8	6311.2	
896.96	6311.2	
897.13	6311.2	
897.29	6311.2	
897.46	6311.2	
897.62	6311.2	
897.79	6311.2	
897.95	6311.2	
898.12	6311.2	
898.28	6311.2	
898.45	6311.2	
898.61	6311.2	
898.78	6311.2	
898.94	6311.2	
899.11	6311.2	
899.27	6311.2	
899.44	6311.2	
899.6	6311.2	
899.77	6311.2	
899.93	6311.2	
900.1	6311.2	
900.26	6311.2	
900.43	6311.2	
900.59	6311.2	
900.76	6311.2	
900.92	6311.2	
901.09	6311.2	
901.25	6311.2	
901.42	6311.2	
901.58	6311.2	
901.75	6311.2	
901.91	6311.2	
902.07	6311.2	
902.24	6311.2	
902.4	6311.2	
902.57	6311.2	
902.73	6311.2	
902.9	6311.2	
903.06	6311.2	
903.23	6311.2	
903.39	6311.2	
903.56	6311.2	
903.72	6311.2	
903.88	6311.2	
904.05	6311.2	
904.21	6311.2	
904.38	6311.2	
904.54	6311.2	
904.71	6311.2	
904.87	6311.2	
905.03	6311.2	
905.2	6311.2	
905.36	6311.2	
905.53	6311.2	
905.69	6311.2	
905.86	6311.2	
906.02	6311.2	
906.18	6311.2	
906.35	6311.2	
906.51	6311.2	
906.68	6311.2	
906.84	6311.2	
907.01	6311.2	
907.17	6311.2	
907.33	6311.2	
907.5	6311.2	
907.66	6311.2	
907.83	6311.2	
907.99	6311.2	
908.15	6311.2	
908.32	6311.2	
908.48	6311.2	
908.65	6311.2	
908.81	6311.2	
908.97	6311.2	
909.14	6311.2	
909.3	6311.2	
909.47	6311.2	
909.63	6311.2	
909.79	6311.2	
909.96	6311.2	
910.12	6311.2	
910.28	6311.2	
910.45	6311.2	
910.61	6311.2	
910.78	6311.2	
910.94	6311.2	
911.1	6311.2	
911.27	6311.2	
911.43	6311.2	
911.59	6311.2	
911.76	6311.2	
911.92	6311.2	
912.08	6311.2	
912.25	6311.2	
912.41	6311.2	
912.57	6311.2	
912.74	6311.2	
912.9	6311.2	
913.07	6311.2	
913.23	6311.2	
913.39	6311.2	
913.56	6311.2	
913.72	6311.2	
913.88	6311.2	
914.05	6311.2	
914.21	6311.2	
914.37	6311.2	
914.54	6311.2	
914.7	6311.2	
914.86	6311.2	
915.03	6311.2	
915.19	6311.2	
