Wavelength	Intensities	
nm	a.u.	
179.22	1903.4	
179.44	1898.1	
179.65	1908.7	
179.86	1887.5	
180.08	1893.7	
180.29	4937.7	
180.51	3480.2	
180.72	5694	
180.94	6646.3	
181.15	3257	
181.37	3169.6	
181.58	5530.2	
181.79	5812.8	
182.01	3383.9	
182.22	3670	
182.44	5791	
182.65	4809.3	
182.87	4536.3	
183.08	4059.1	
183.29	6054.5	
183.51	5008	
183.72	3730	
183.94	5412.1	
184.15	5445.5	
184.37	5489.9	
184.58	3244.7	
184.79	4452.3	
185.01	5004.6	
185.22	5780.7	
185.44	4683	
185.65	3928.7	
185.86	5331.5	
186.08	4919.9	
186.29	3174.4	
186.51	3372.3	
186.72	5088.5	
186.94	6002.6	
187.15	3944.4	
187.36	4065.9	
187.58	7795.9	
187.79	5514.5	
188.01	4268.6	
188.22	6635.4	
188.43	6677.1	
188.65	5788.9	
188.86	3378.5	
189.08	4116.4	
189.29	5238.7	
189.5	5270.1	
189.72	3757.3	
189.93	3842.7	
190.15	6010.8	
190.36	7191.1	
190.57	4173.8	
190.79	4025.6	
191	6120	
191.22	6029.2	
191.43	4168.3	
191.64	3448.1	
191.86	6272.9	
192.07	6017.6	
192.29	3551.2	
192.5	3815.4	
192.71	5999.2	
192.93	5154.1	
193.14	3712.3	
193.35	3774.4	
193.57	5251.7	
193.78	5978.7	
194	3016	
194.21	3680.2	
194.42	4941.7	
194.64	5451.7	
194.85	4085	
195.07	4768.4	
195.28	5532.2	
195.49	4726	
195.71	5040.1	
195.92	3534.8	
196.13	5617.6	
196.35	5802.6	
196.56	5356.1	
196.78	4027.7	
196.99	7111.9	
197.2	6593.1	
197.42	4674.8	
197.63	4121.2	
197.84	4858.5	
198.06	5643.5	
198.27	3728.7	
198.48	4972.5	
198.7	5219.6	
198.91	5336.3	
199.13	4108.2	
199.34	4102.8	
199.55	5848.3	
199.77	4753.3	
199.98	3643.3	
200.19	4226.3	
200.41	5336.3	
200.62	4987.5	
200.83	4239.3	
201.05	4615.4	
201.26	5350	
201.47	5109	
201.69	3670.6	
201.9	3450.1	
202.11	5395.7	
202.33	6457.2	
202.54	3874.8	
202.76	4284.4	
202.97	5597.1	
203.18	5556.1	
203.4	4326	
203.61	4184	
203.82	5520.6	
204.04	5107.6	
204.25	4146.5	
204.46	4067.3	
204.68	5472.2	
204.89	5754.1	
205.1	3992.2	
205.32	3493.8	
205.53	5877	
205.74	6063.4	
205.96	2997.5	
206.17	4189.5	
206.38	5842.9	
206.6	5903.6	
206.81	4701.5	
207.02	3845.4	
207.24	5685.8	
207.45	6097.5	
207.66	3924.6	
207.88	3300.6	
208.09	5601.2	
208.3	5438.7	
208.52	3554.6	
208.73	3888.4	
208.94	5467.4	
209.15	6219	
209.37	3910.3	
209.58	4080.2	
209.79	5971.2	
210.01	5234.6	
210.22	3151.1	
210.43	3296.5	
210.65	5509	
210.86	5879.7	
211.07	3902.7	
211.29	3570.3	
211.5	5823.7	
211.71	5380	
211.93	3548.4	
212.14	3566.2	
212.35	5392.3	
212.56	5639.4	
212.78	4148.5	
212.99	3401.7	
213.2	6363.7	
213.42	5213.4	
213.63	3689.8	
213.84	3953.9	
214.06	4797	
214.27	4932.9	
214.48	3953.3	
214.69	4204.5	
214.91	6120	
215.12	6217.6	
215.33	4231.1	
215.55	4681.7	
215.76	6784.9	
215.97	5904.3	
216.18	4056.3	
216.4	3960.8	
216.61	5091.9	
216.82	5909.1	
217.04	3572.3	
217.25	3784.6	
217.46	6066.8	
217.67	5846.3	
217.89	3226.9	
218.1	3334.1	
218.31	5580	
218.53	5662	
218.74	3816	
218.95	3739.6	
219.16	5391.6	
219.38	6421.7	
219.59	3659.7	
219.8	4343.1	
220.01	7123.5	
220.23	5430.5	
220.44	4775.9	
220.65	3548.4	
220.87	5494	
221.08	6145.3	
221.29	3302.7	
221.5	4476.9	
221.72	7450.5	
221.93	5145.9	
222.14	4123.2	
222.35	4839.4	
222.57	5486.5	
222.78	5821	
222.99	3910.3	
223.2	4240.7	
223.42	5775.3	
223.63	5900.9	
223.84	3032.4	
224.05	3016.7	
224.27	6980.8	
224.48	6400.6	
224.69	4793.6	
224.9	4162.2	
225.12	5682.4	
225.33	5438.7	
225.54	3283.6	
225.75	3635.1	
225.97	5030.5	
226.18	5216.2	
226.39	3954.6	
226.6	3677.5	
226.82	5245.5	
227.03	4982	
227.24	4145.8	
227.45	3437.2	
227.67	5816.2	
227.88	6433.4	
228.09	4545.8	
228.3	4556.7	
228.52	5846.3	
228.73	5418.9	
228.94	3779.9	
229.15	3410.6	
229.36	5355.4	
229.58	5315.2	
229.79	3871.3	
230	4532.2	
230.21	6489.3	
230.43	5554.1	
230.64	4091.8	
230.85	4218.8	
231.06	5915.9	
231.28	5895.4	
231.49	3440.6	
231.7	3979.9	
231.91	5758.9	
232.12	5467.4	
232.34	3491.8	
232.55	3954.6	
232.76	6109.8	
232.97	5606	
233.18	3547.1	
233.4	4033.1	
233.61	5720.7	
233.82	5215.5	
234.03	3779.9	
234.25	3687	
234.46	7488.7	
234.67	5459.2	
234.88	4222.2	
235.09	3688.4	
235.31	5770.5	
235.52	5365.7	
235.73	4072.7	
235.94	3432.4	
236.15	5141.1	
236.37	6623.1	
236.58	3623.5	
236.79	3918.4	
237	5746.6	
237.21	4941.1	
237.43	4225.6	
237.64	3301.3	
237.85	10029	
238.06	5014.1	
238.27	4302.1	
238.48	3422.8	
238.7	5774.6	
238.91	5322.7	
239.12	3930.7	
239.33	3981.9	
239.54	5023.7	
239.76	5354.8	
239.97	3856.3	
240.18	3915	
240.39	6802	
240.6	5748.6	
240.82	4082.3	
241.03	3312.2	
241.24	5431.2	
241.45	6345.3	
241.66	3581.2	
241.87	4253.6	
242.09	6192.4	
242.3	6579.4	
242.51	4313.7	
242.72	3936.2	
242.93	5913.9	
243.14	5400.5	
243.36	4578.6	
243.57	4943.1	
243.78	6289.3	
243.99	5694.7	
244.2	3984.7	
244.41	3611.3	
244.63	5014.1	
244.84	5748	
245.05	4207.2	
245.26	3962.8	
245.47	5722	
245.68	5996.5	
245.9	5320.6	
246.11	4065.9	
246.32	5304.2	
246.53	5743.9	
246.74	6389	
246.95	3356.6	
247.16	4930.1	
247.38	5387.5	
247.59	3267.2	
247.8	3914.4	
248.01	5165	
248.22	5388.9	
248.43	3579.8	
248.64	3855	
248.86	4804.5	
249.07	5201.2	
249.28	3517	
249.49	4040.6	
249.7	6015.6	
249.91	6131.6	
250.12	3277.4	
250.34	3309.5	
250.55	5582.1	
250.76	5499.5	
250.97	4078.2	
251.18	4138.3	
251.39	6148	
251.6	5586.2	
251.81	4214.7	
252.03	4114.4	
252.24	5203.9	
252.45	5941.8	
252.66	3411.2	
252.87	4382.7	
253.08	5474.9	
253.29	7225.9	
253.5	3433.1	
253.72	4755.4	
253.93	5276.3	
254.14	6491.4	
254.35	3773	
254.56	3848.1	
254.77	5736.4	
254.98	5104.9	
255.19	3694.5	
255.41	4773.1	
255.62	5553.4	
255.83	6121.4	
256.04	4143.7	
256.25	4090.5	
256.46	6515.3	
256.67	5143.1	
256.88	4042.7	
257.09	4524	
257.31	5156.1	
257.52	5154.7	
257.73	5066	
257.94	3736.9	
258.15	5302.9	
258.36	5485.1	
258.57	4742.4	
258.78	2988.7	
258.99	5962.3	
259.2	5244.2	
259.41	3769.6	
259.63	3868.6	
259.84	6347.3	
260.05	6790.4	
260.26	4928.1	
260.47	3634.5	
260.68	6019	
260.89	5321.3	
261.1	4552.6	
261.31	3556	
261.52	6115.9	
261.73	6455.2	
261.95	4854.4	
262.16	4256.4	
262.37	6208.1	
262.58	6268.8	
262.79	4868.7	
263	3834.5	
263.21	5546.6	
263.42	5015.5	
263.63	3843.4	
263.84	3805.8	
264.05	6057.2	
264.26	6432	
264.47	4702.8	
264.69	4280.3	
264.9	6170.5	
265.11	5653.8	
265.32	3704.1	
265.53	3716.4	
265.74	5610.1	
265.95	4865.3	
266.16	3975.1	
266.37	4453	
266.58	5599.1	
266.79	5304.2	
267	3736.9	
267.21	3507.5	
267.42	5036	
267.63	5447.6	
267.84	3941	
268.06	3355.3	
268.27	5829.9	
268.48	6247.7	
268.69	3805.8	
268.9	4576.5	
269.11	6218.3	
269.32	4950.6	
269.53	3946.4	
269.74	3652.2	
269.95	5802.6	
270.16	4817.5	
270.37	3932.1	
270.58	4568.3	
270.79	5259.9	
271	5981.4	
271.21	4237.2	
271.42	3994.9	
271.63	5621	
271.84	5112.4	
272.05	3118.4	
272.26	3571.7	
272.47	5455.1	
272.68	5691.3	
272.89	3724.6	
273.11	4380.6	
273.32	5238	
273.53	6395.8	
273.74	4290.5	
273.95	4148.5	
274.16	6155.5	
274.37	5549.3	
274.58	4319.8	
274.79	3452.9	
275	5578	
275.21	6181.5	
275.42	5212.8	
275.63	4448.2	
275.84	5692.7	
276.05	7223.2	
276.26	4177.2	
276.47	3905.5	
276.68	5292.6	
276.89	6478.4	
277.1	4463.9	
277.31	3471.3	
277.52	5795.1	
277.73	5887.9	
277.94	3384.6	
278.15	3844.7	
278.36	5671.5	
278.57	5102.9	
278.78	3769.6	
278.99	4295.3	
279.2	5078.3	
279.41	5072.1	
279.62	4962.2	
279.83	3503.4	
280.04	6736.5	
280.25	4952.7	
280.46	4969.1	
280.67	3938.2	
280.88	5090.6	
281.09	6126.8	
281.3	4146.5	
281.51	5264	
281.72	5186.1	
281.93	5999.2	
282.14	3662.5	
282.35	3964.9	
282.56	6009.4	
282.77	5915.9	
282.98	3741	
283.19	4675.5	
283.4	7346.7	
283.61	5406	
283.82	3383.9	
284.03	4888.5	
284.24	5595.1	
284.45	6096.8	
284.66	4885.8	
284.87	4731.5	
285.08	6040.8	
285.29	6166.4	
285.5	3342.3	
285.71	3844	
285.92	6139.8	
286.12	6759.7	
286.33	4868	
286.54	3833.8	
286.75	5909.1	
286.96	5365	
287.17	3489.1	
287.38	4773.1	
287.59	5100.8	
287.8	5016.8	
288.01	3893.2	
288.22	4506.2	
288.43	5914.5	
288.64	4961.5	
288.85	4660.5	
289.06	4417.5	
289.27	5898.2	
289.48	6412.2	
289.69	4934.2	
289.9	4428.4	
290.11	6072.9	
290.32	5172.5	
290.53	4655	
290.74	4356.7	
290.94	5909.8	
291.15	5981.4	
291.36	3623.5	
291.57	4444.1	
291.78	5204.6	
291.99	4924	
292.2	3540.3	
292.41	4311.7	
292.62	5987.6	
292.83	5804.6	
293.04	5274.9	
293.25	3547.1	
293.46	5270.8	
293.67	6131.6	
293.88	3664.5	
294.09	3567.6	
294.29	5010	
294.5	5591	
294.71	3967.6	
294.92	3801.7	
295.13	5198.4	
295.34	6606.7	
295.55	3325.2	
295.76	3422.8	
295.97	5919.3	
296.18	6673	
296.39	3490.4	
296.6	3744.4	
296.81	5569.8	
297.01	5921.4	
297.22	3861.1	
297.43	3639.9	
297.64	5068.7	
297.85	5102.9	
298.06	3049.4	
298.27	3351.8	
298.48	5507.7	
298.69	5200.5	
298.9	4020.2	
299.11	3616.7	
299.31	4988.9	
299.52	5030.5	
299.73	4348.5	
299.94	4256.4	
300.15	5483.8	
300.36	5124.7	
300.57	4231.1	
300.78	4182.6	
300.99	5354.8	
301.2	5567.1	
301.4	3634.5	
301.61	3993.5	
301.82	5762.3	
302.03	5897.5	
302.24	4523.3	
302.45	3506.8	
302.66	5776.6	
302.87	6233.3	
303.08	3738.9	
303.29	5024.3	
303.49	5215.5	
303.7	5512.4	
303.91	3312.2	
304.12	4835.9	
304.33	4992.9	
304.54	5526.8	
304.75	3756.7	
304.96	3577.1	
305.16	5780.7	
305.37	6576	
305.58	3209.2	
305.79	3381.2	
306	5848.3	
306.21	4896.7	
306.42	3719.1	
306.63	5640.8	
306.83	5313.8	
307.04	6005.3	
307.25	4115.7	
307.46	4083	
307.67	4662.5	
307.88	6027.9	
308.09	3586	
308.29	3818.8	
308.5	5584.8	
308.71	6090.7	
308.92	3961.5	
309.13	3559.4	
309.34	5460.6	
309.55	5423.7	
309.75	4575.2	
309.96	4265.9	
310.17	5896.8	
310.38	5171.1	
310.59	4486.4	
310.8	3459.7	
311.01	5607.3	
311.21	5312.4	
311.42	3487	
311.63	3672	
311.84	5206.6	
312.05	5607.3	
312.26	4100.7	
312.46	4534.2	
312.67	5268.1	
312.88	5012.7	
313.09	3586.7	
313.3	3549.8	
313.51	6262	
313.71	6654.5	
313.92	3534.8	
314.13	3760.1	
314.34	5593.7	
314.55	5361.6	
314.76	4605.9	
314.96	4035.9	
315.17	5522.7	
315.38	6064	
315.59	3642	
315.8	3459	
316.01	6404	
316.21	6505.7	
316.42	3449.5	
316.63	3961.5	
316.84	5372.5	
317.05	6255.2	
317.26	4271.4	
317.46	3793.5	
317.67	5418.9	
317.88	5908.4	
318.09	4560.8	
318.3	3339.6	
318.5	5206.6	
318.71	5859.9	
318.92	5808	
319.13	4240.7	
319.34	5987.6	
319.54	6172.6	
319.75	3374.4	
319.96	3209.8	
320.17	5909.1	
320.38	6062	
320.58	3262.4	
320.79	3969.6	
321	6044.9	
321.21	6240.8	
321.42	3992.2	
321.62	3214.6	
321.83	5069.4	
322.04	5474.2	
322.25	3810.6	
322.46	3578.5	
322.66	5651	
322.87	5756.8	
323.08	4463.2	
323.29	3540.3	
323.5	6608.8	
323.7	5035.3	
323.91	4859.1	
324.12	4401.1	
324.33	5553.4	
324.53	5799.2	
324.74	4220.9	
324.95	4496	
325.16	4837.3	
325.37	5265.3	
325.57	3603.1	
325.78	3646.7	
325.99	5546.6	
326.2	4962.2	
326.4	5085.8	
326.61	3320.4	
326.82	5424.4	
327.03	5608	
327.24	5125.4	
327.44	4863.2	
327.65	5801.2	
327.86	4621.6	
328.07	4190.1	
328.27	3501.3	
328.48	6194.4	
328.69	5083.7	
328.9	5229.1	
329.1	3844	
329.31	5361.6	
329.52	6322.1	
329.73	3575.8	
329.93	4023.6	
330.14	5493.3	
330.35	5715.9	
330.56	5890	
330.76	4444.1	
330.97	5293.3	
331.18	5715.2	
331.39	4063.9	
331.59	3250.1	
331.8	6091.3	
332.01	6187.6	
332.22	3685	
332.42	4188.1	
332.63	5621.7	
332.84	5221	
333.05	3994.9	
333.25	3634.5	
333.46	5281.7	
333.67	5522	
333.88	3730	
334.08	4158.1	
334.29	7234.8	
334.5	6204.7	
334.7	3502.7	
334.91	5141.1	
335.12	5057.1	
335.33	5933.6	
335.53	3992.9	
335.74	5890	
335.95	5246.2	
336.16	5099.4	
336.36	4007.9	
336.57	4638	
336.78	4993.6	
336.98	6109.8	
337.19	4961.5	
337.4	3943	
337.61	6679.8	
337.81	5029.8	
338.02	3642	
338.23	4754	
338.43	6317.3	
338.64	5134.9	
338.85	3654.9	
339.05	4717.8	
339.26	6311.2	
339.47	4942.4	
339.68	3596.9	
339.88	5343.8	
340.09	5754.8	
340.3	5960.3	
340.5	4205.8	
340.71	3205.8	
340.92	5001.1	
341.13	6278.4	
341.33	3485	
341.54	4244.1	
341.75	5742.5	
341.95	5358.2	
342.16	4075.5	
342.37	4407.2	
342.57	5087.8	
342.78	5464.7	
342.99	4472.1	
343.19	3231	
343.4	5961.6	
343.61	5743.9	
343.81	3818.1	
344.02	3562.1	
344.23	5859.2	
344.43	6374.6	
344.64	4459.1	
344.85	4334.2	
345.06	5752.1	
345.26	6147.3	
345.47	4203.8	
345.68	4915.8	
345.88	4857.8	
346.09	5955.5	
346.3	4272.7	
346.5	3174.4	
346.71	5491.3	
346.92	5214.1	
347.12	3270.6	
347.33	4147.1	
347.54	6066.1	
347.74	6482.5	
347.95	4123.2	
348.16	3087	
348.36	5255.1	
348.57	5017.5	
348.78	4166.3	
348.98	4429.1	
349.19	5429.8	
349.39	4962.2	
349.6	3337.5	
349.81	3661.8	
350.01	5735	
350.22	5152.7	
350.43	3977.2	
350.63	4832.5	
350.84	5553.4	
351.05	5285.8	
351.25	3668.6	
351.46	3286.3	
351.67	6121.4	
351.87	5262.6	
352.08	3859.1	
352.29	4465.9	
352.49	5988.3	
352.7	6066.1	
352.9	3533.4	
353.11	4379.2	
353.32	6602	
353.52	5242.1	
353.73	3485.6	
353.94	4456.4	
354.14	5796.4	
354.35	5671.5	
354.55	3596.2	
354.76	4060.4	
354.97	5803.3	
355.17	5532.2	
355.38	3417.4	
355.59	4757.4	
355.79	5155.4	
356	5688.6	
356.2	4011.3	
356.41	3490.4	
356.62	4897.4	
356.82	5420.3	
357.03	4310.3	
357.24	3843.4	
357.44	5208	
357.65	5356.1	
357.85	5143.1	
358.06	4024.3	
358.27	4947.9	
358.47	5156.8	
358.68	3355.9	
358.88	4278.2	
359.09	5760.9	
359.3	6167.1	
359.5	4975.9	
359.71	4485.1	
359.91	6623.8	
360.12	5913.2	
360.33	4258.4	
360.53	4676.9	
360.74	5203.9	
360.94	5315.8	
361.15	4425	
361.36	3621.5	
361.56	6100.9	
361.77	5402.5	
361.97	4992.3	
362.18	3937.6	
362.38	5984.2	
362.59	5086.5	
362.8	3615.3	
363	3401.7	
363.21	4859.8	
363.41	5549.3	
363.62	4149.2	
363.83	5295.4	
364.03	5634	
364.24	6635.4	
364.44	5277.6	
364.65	5310.4	
364.85	5403.9	
365.06	5305.6	
365.27	3831.1	
365.47	3830.4	
365.68	6405.4	
365.88	5380	
366.09	4218.8	
366.29	3883.6	
366.5	5636	
366.71	6130.3	
366.91	5267.4	
367.12	4420.2	
367.32	6675.7	
367.53	5982.1	
367.73	4364.2	
367.94	5362.9	
368.14	5881.1	
368.35	6880.5	
368.56	4302.8	
368.76	4114.4	
368.97	5999.2	
369.17	7750.2	
369.38	3838.6	
369.58	4084.3	
369.79	5085.1	
369.99	6385.6	
370.2	5182.7	
370.4	4222.2	
370.61	5756.2	
370.82	6904.4	
371.02	4063.2	
371.23	3429	
371.43	4949.9	
371.64	6362.4	
371.84	4145.1	
372.05	5339.7	
372.25	7724.3	
372.46	6065.4	
372.66	4158.1	
372.87	4129.4	
373.07	6217	
373.28	7769.3	
373.48	5158.2	
373.69	4917.2	
373.9	5556.1	
374.1	5645.6	
374.31	5195.7	
374.51	4700.1	
374.72	6490	
374.92	5274.9	
375.13	5318.6	
375.33	4467.3	
375.54	6156.2	
375.74	5496.7	
375.95	4596.3	
376.15	5862	
376.36	6041.5	
376.56	5902.2	
376.77	4711.7	
376.97	5135.6	
377.18	7126.9	
377.38	6163.7	
377.59	5469.4	
377.79	4152.6	
378	5966.4	
378.2	6357.6	
378.41	4242	
378.61	4204.5	
378.82	6453.1	
379.02	5530.2	
379.23	4388.8	
379.43	5566.4	
379.64	6596.5	
379.84	6124.8	
380.05	4219.5	
380.25	4205.2	
380.46	6285.2	
380.66	5848.3	
380.87	5563.6	
381.07	5979.4	
381.28	6926.9	
381.48	6321.4	
381.69	4254.3	
381.89	4339.6	
382.1	5209.3	
382.3	6423.8	
382.51	5469.4	
382.71	6328.9	
382.91	6317.3	
383.12	6827.2	
383.32	4610.7	
383.53	4818.9	
383.73	6096.8	
383.94	5941.8	
384.14	4708.3	
384.35	3885.7	
384.55	5756.8	
384.76	6256.5	
384.96	4664.6	
385.17	4965.6	
385.37	6287.3	
385.58	5538.4	
385.78	4943.8	
385.98	3899.3	
386.19	5740.5	
386.39	6197.8	
386.6	4409.3	
386.8	4689.8	
387.01	6272.2	
387.21	6355.5	
387.42	5128.1	
387.62	5743.9	
387.83	5608.7	
388.03	6340.5	
388.23	4738.3	
388.44	5590.3	
388.64	5273.5	
388.85	5513.1	
389.05	5180.7	
389.26	5718.6	
389.46	7445	
389.67	6798.6	
389.87	5151.3	
390.07	5235.3	
390.28	5991	
390.48	5568.4	
390.69	4376.5	
390.89	4725.3	
391.1	5801.2	
391.3	6710.5	
391.5	5879.7	
391.71	6539.8	
391.91	6468.2	
392.12	7636.9	
392.32	5893.4	
392.53	5190.2	
392.73	5861.3	
392.93	5988.3	
393.14	4784.1	
393.34	5641.5	
393.55	6565.1	
393.75	5959.6	
393.95	4823.6	
394.16	4743.1	
394.36	5853.1	
394.57	6497.5	
394.77	4365.6	
394.98	4824.3	
395.18	5786.9	
395.38	5910.4	
395.59	5757.5	
395.79	4674.8	
396	6001.2	
396.2	6527.6	
396.4	5502.2	
396.61	5393	
396.81	6761.7	
397.02	5943.9	
397.22	5815.5	
397.42	5840.1	
397.63	6692.8	
397.83	5936.4	
398.04	4640.7	
398.24	5249.6	
398.44	6432	
398.65	5629.9	
398.85	4569.7	
399.05	4715.8	
399.26	5967.1	
399.46	7732.4	
399.67	5145.9	
399.87	4750.6	
400.07	6385.6	
400.28	6741.2	
400.48	4926	
400.69	6126.8	
400.89	7484.6	
401.09	7450.5	
401.3	4840.7	
401.5	6007.4	
401.7	7696.9	
401.91	7916.1	
402.11	5100.8	
402.32	5328.8	
402.52	7000.6	
402.72	6838.9	
402.93	5586.2	
403.13	4362.2	
403.33	7670.3	
403.54	6352.8	
403.74	5217.5	
403.94	6188.3	
404.15	6511.2	
404.35	7663.5	
404.56	5064.6	
404.76	6944.7	
404.96	6987.7	
405.17	6782.2	
405.37	6584.2	
405.57	5604.6	
405.78	7059.3	
405.98	6436.1	
406.18	5126.1	
406.39	6050.4	
406.59	6971.3	
406.79	6627.9	
407	4986.8	
407.2	5123.3	
407.4	7075	
407.61	7367.9	
407.81	5177.9	
408.01	7475.8	
408.22	6173.9	
408.42	8286.8	
408.62	6477	
408.83	5920	
409.03	6927.6	
409.23	6790.4	
409.44	6066.1	
409.64	6309.1	
409.84	8003.5	
410.05	7885.4	
410.25	6233.3	
410.45	6036.7	
410.66	7511.3	
410.86	9920.4	
411.06	6685.9	
411.27	6417.7	
411.47	9823.4	
411.67	7753.6	
411.88	6716.7	
412.08	6982.2	
412.28	8493.6	
412.49	8975.6	
412.69	6596.5	
412.89	6587.6	
413.09	8761.9	
413.3	8695.7	
413.5	6750.1	
413.7	6281.1	
413.91	7857.4	
414.11	8906.6	
414.31	6663.4	
414.52	7163.8	
414.72	8502.5	
414.92	8492.9	
415.12	6620.4	
415.33	7141.3	
415.53	8877.9	
415.73	9126.4	
415.94	7586.4	
416.14	7013.6	
416.34	7908.6	
416.55	7551.5	
416.75	8366	
416.95	7743.4	
417.15	9127.1	
417.36	9766.8	
417.56	8653.4	
417.76	7664.2	
417.97	9566.7	
418.17	9139.4	
418.37	7162.4	
418.57	7342.7	
418.78	8784.4	
418.98	8477.9	
419.18	8222.6	
419.38	8051.9	
419.59	8617.9	
419.79	8199.4	
419.99	7129.7	
420.2	7511.3	
420.4	9086.8	
420.6	9349	
420.8	7264.8	
421.01	6922.8	
421.21	9057.5	
421.41	9208.4	
421.61	7501	
421.82	7235.5	
422.02	8505.2	
422.22	9392	
422.42	8026.7	
422.63	7560.4	
422.83	8604.9	
423.03	9902.6	
423.23	7665.5	
423.44	6553.5	
423.64	8742.8	
423.84	8338.6	
424.04	7068.9	
424.25	6838.9	
424.45	9587.9	
424.65	9503.3	
424.85	6524.8	
425.06	7176.1	
425.26	9532.6	
425.46	8586.5	
425.66	7648.5	
425.87	7296.2	
426.07	9295.7	
426.27	9140.8	
426.47	7484	
426.67	6792.4	
426.88	9588.6	
427.08	9087.5	
427.28	7708.6	
427.48	6721.4	
427.69	7988.4	
427.89	8647.2	
428.09	7778.2	
428.29	6818.4	
428.5	9460.3	
428.7	8987.9	
428.9	6805.4	
429.1	7429.3	
429.3	8928.5	
429.51	9377.6	
429.71	7017	
429.91	7933.8	
430.11	9223.4	
430.31	9518.3	
430.52	7468.9	
430.72	7920.9	
430.92	9837.1	
431.12	9395.4	
431.32	7251.2	
431.53	7615.7	
431.73	8234.2	
431.93	10092	
432.13	7106.5	
432.33	7138.5	
432.54	8878.6	
432.74	9199.5	
432.94	7078.5	
433.14	8056.7	
433.34	9318.9	
433.55	8998.8	
433.75	8127.7	
433.95	10041	
434.15	9306.7	
434.35	8971.5	
434.56	7352.2	
434.76	6903.7	
434.96	9350.3	
435.16	9691.7	
435.36	7258.7	
435.56	8561.2	
435.77	9041.1	
435.97	9289.6	
436.17	9329.9	
436.37	8545.5	
436.57	9086.8	
436.78	8968.1	
436.98	8302.5	
437.18	9088.2	
437.38	9849.4	
437.58	9142.8	
437.78	9166.7	
437.99	7722.9	
438.19	9714.9	
438.39	11200	
438.59	7730.4	
438.79	7193.1	
438.99	10522	
439.2	9330.5	
439.4	7466.2	
439.6	7481.9	
439.8	9895.8	
440	10891	
440.2	8725.7	
440.4	8816.5	
440.61	10316	
440.81	10916	
441.01	7998	
441.21	8979	
441.41	10885	
441.61	10327	
441.81	9337.4	
442.02	10292	
442.22	11322	
442.42	10494	
442.62	8255.4	
442.82	8141.4	
443.02	10984	
443.22	10113	
443.43	8774.2	
443.63	8299.7	
443.83	9805.7	
444.03	9935.4	
444.23	9645.3	
444.43	9189.9	
444.63	10320	
444.83	11427	
445.04	8439.7	
445.24	9804.3	
445.44	10441	
445.64	10701	
445.84	9022.7	
446.04	9182.4	
446.24	9753.1	
446.44	10987	
446.65	8342.1	
446.85	8710.7	
447.05	9810.5	
447.25	10957	
447.45	8798.1	
447.65	8251.3	
447.85	10228	
448.05	9838.4	
448.25	9331.2	
448.46	9213.1	
448.66	10377	
448.86	10040	
449.06	8185.7	
449.26	9422.7	
449.46	10759	
449.66	9802.3	
449.86	8925	
450.06	8918.9	
450.26	9986.6	
450.47	10654	
450.67	9151	
450.87	9512.8	
451.07	10692	
451.27	10665	
451.47	8545.5	
451.67	9207	
451.87	10256	
452.07	11269	
452.27	8915.5	
452.47	8777.6	
452.67	10426	
452.88	11142	
453.08	8056.7	
453.28	10318	
453.48	12002	
453.68	10479	
453.88	8847.2	
454.08	9111.4	
454.28	11130	
454.48	10747	
454.68	9724.4	
454.88	10222	
455.08	11101	
455.28	11120	
455.48	8738.7	
455.68	9626.1	
455.89	11938	
456.09	11579	
456.29	9297.8	
456.49	9512.1	
456.69	11962	
456.89	11103	
457.09	10212	
457.29	10619	
457.49	11547	
457.69	11815	
457.89	10162	
458.09	9424.8	
458.29	11503	
458.49	12097	
458.69	10592	
458.89	10034	
459.09	12652	
459.29	12664	
459.49	10148	
459.69	10946	
459.9	12121	
460.1	11815	
460.3	9967.5	
460.5	9822.7	
460.7	12228	
460.9	12099	
461.1	9600.9	
461.3	11017	
461.5	13081	
461.7	12613	
461.9	10467	
462.1	10725	
462.3	12365	
462.5	12979	
462.7	10445	
462.9	10731	
463.1	14095	
463.3	13956	
463.5	10948	
463.7	12225	
463.9	12855	
464.1	13183	
464.3	11589	
464.5	11450	
464.7	13455	
464.9	13482	
465.1	13021	
465.3	12095	
465.5	13921	
465.7	14074	
465.9	12478	
466.1	12043	
466.3	14072	
466.5	13562	
466.7	13450	
466.9	12063	
467.1	13874	
467.3	14967	
467.5	13513	
467.7	12364	
467.9	15142	
468.1	16114	
468.3	13081	
468.5	13585	
468.7	14091	
468.9	14112	
469.1	12749	
469.3	13585	
469.5	16126	
469.7	13784	
469.9	12934	
470.1	12588	
470.3	14074	
470.5	14113	
470.7	13749	
470.9	12464	
471.1	13977	
471.3	14168	
471.5	12320	
471.69	14306	
471.89	13706	
472.09	13304	
472.29	13171	
472.49	13299	
472.69	13447	
472.89	14418	
473.09	12256	
473.29	12256	
473.49	13667	
473.69	13699	
473.89	13244	
474.09	12482	
474.29	15081	
474.49	14614	
474.69	13424	
474.89	12537	
475.09	13886	
475.29	13864	
475.49	12011	
475.69	12336	
475.88	15453	
476.08	14035	
476.28	11923	
476.48	12228	
476.68	14507	
476.88	14308	
477.08	12067	
477.28	12643	
477.48	13614	
477.68	14440	
477.88	12041	
478.08	12456	
478.28	14899	
478.48	13801	
478.67	12493	
478.87	11624	
479.07	14774	
479.27	14020	
479.47	12720	
479.67	12750	
479.87	14609	
480.07	15271	
480.27	12036	
480.47	13786	
480.67	14129	
480.87	14865	
481.06	12271	
481.26	13037	
481.46	14220	
481.66	14240	
481.86	12856	
482.06	14010	
482.26	13977	
482.46	14776	
482.66	12827	
482.86	12331	
483.05	14513	
483.25	13904	
483.45	15411	
483.65	12899	
483.85	14049	
484.05	14436	
484.25	13330	
484.45	14074	
484.65	15440	
484.84	15625	
485.04	12951	
485.24	13061	
485.44	15883	
485.64	14058	
485.84	12542	
486.04	13916	
486.24	14589	
486.44	15081	
486.63	12537	
486.83	13491	
487.03	14618	
487.23	14969	
487.43	12693	
487.63	15250	
487.83	15062	
488.02	16096	
488.22	14030	
488.42	14628	
488.62	15888	
488.82	14901	
489.02	13580	
489.22	13860	
489.41	15824	
489.61	15449	
489.81	13437	
490.01	13272	
490.21	15771	
490.41	16403	
490.61	13188	
490.8	13307	
491	15228	
491.2	14374	
491.4	13887	
491.6	13180	
491.8	15293	
491.99	15388	
492.19	13061	
492.39	13446	
492.59	16142	
492.79	16226	
492.99	14582	
493.18	13814	
493.38	16447	
493.58	17401	
493.78	14778	
493.98	14251	
494.18	16285	
494.37	16111	
494.57	15451	
494.77	15330	
494.97	17064	
495.17	17383	
495.37	15017	
495.56	15341	
495.76	17609	
495.96	17262	
496.16	16213	
496.36	15259	
496.55	17429	
496.75	17120	
496.95	15827	
497.15	15612	
497.35	17544	
497.54	17694	
497.74	15513	
497.94	17390	
498.14	18402	
498.34	18357	
498.53	15511	
498.73	16360	
498.93	17294	
499.13	18010	
499.33	16210	
499.52	16630	
499.72	18105	
499.92	18215	
500.12	15847	
500.32	16173	
500.51	18288	
500.71	18284	
500.91	17083	
501.11	16869	
501.31	18432	
501.5	18661	
501.7	17283	
501.9	16291	
502.1	17978	
502.29	18289	
502.49	16789	
502.69	17042	
502.89	18088	
503.09	18091	
503.28	15485	
503.48	15570	
503.68	17097	
503.88	17303	
504.07	16673	
504.27	15867	
504.47	17494	
504.67	17473	
504.86	16499	
505.06	16005	
505.26	17009	
505.46	18819	
505.65	15739	
505.85	16041	
506.05	16808	
506.25	17234	
506.44	14988	
506.64	15922	
506.84	16787	
507.04	17613	
507.23	15193	
507.43	15723	
507.63	18636	
507.83	16893	
508.02	15674	
508.22	15328	
508.42	19002	
508.62	16603	
508.81	15423	
509.01	16436	
509.21	16481	
509.4	16909	
509.6	15954	
509.8	15459	
510	16797	
510.19	18531	
510.39	15109	
510.59	15354	
510.79	16649	
510.98	18204	
511.18	15373	
511.38	15597	
511.57	17564	
511.77	17373	
511.97	16169	
512.17	15059	
512.36	17531	
512.56	17387	
512.76	15201	
512.95	15017	
513.15	17704	
513.35	16245	
513.55	16264	
513.74	15336	
513.94	17613	
514.14	17099	
514.33	16485	
514.53	16109	
514.73	17046	
514.92	17144	
515.12	15746	
515.32	15482	
515.51	17591	
515.71	18113	
515.91	17414	
516.11	15691	
516.3	19337	
516.5	17091	
516.7	16193	
516.89	16862	
517.09	17259	
517.29	17024	
517.48	16509	
517.68	15823	
517.88	16995	
518.07	17698	
518.27	16567	
518.47	15498	
518.66	18221	
518.86	16920	
519.06	15212	
519.25	15770	
519.45	17274	
519.65	18953	
519.84	16339	
520.04	17076	
520.24	18914	
520.43	17600	
520.63	15992	
520.83	15581	
521.02	16793	
521.22	17552	
521.42	16238	
521.61	16886	
521.81	17120	
522.01	17450	
522.2	16217	
522.4	16074	
522.6	18186	
522.79	17058	
522.99	16410	
523.18	15917	
523.38	18189	
523.58	18322	
523.77	18112	
523.97	15954	
524.17	20394	
524.36	19545	
524.56	17878	
524.76	17401	
524.95	18882	
525.15	18282	
525.34	17366	
525.54	17384	
525.74	19249	
525.93	18292	
526.13	18630	
526.33	17578	
526.52	19707	
526.72	19268	
526.91	19058	
527.11	18420	
527.31	19949	
527.5	20473	
527.7	18247	
527.89	17294	
528.09	19074	
528.29	19967	
528.48	18770	
528.68	18515	
528.87	20201	
529.07	19985	
529.27	18106	
529.46	17610	
529.66	19254	
529.85	19824	
530.05	17213	
530.25	18008	
530.44	21007	
530.64	19384	
530.83	18120	
531.03	18415	
531.23	20222	
531.42	20125	
531.62	19510	
531.81	18558	
532.01	20738	
532.21	21366	
532.4	18622	
532.6	19174	
532.79	21796	
532.99	21010	
533.18	19285	
533.38	20194	
533.58	20811	
533.77	21547	
533.97	19439	
534.16	20338	
534.36	21872	
534.55	21005	
534.75	20379	
534.95	19561	
535.14	21751	
535.34	20668	
535.53	18862	
535.73	21018	
535.92	22109	
536.12	20751	
536.31	19037	
536.51	20467	
536.71	21001	
536.9	20719	
537.1	19153	
537.29	19418	
537.49	21628	
537.68	20748	
537.88	19932	
538.07	19146	
538.27	21074	
538.46	22282	
538.66	19157	
538.86	19646	
539.05	21165	
539.25	21549	
539.44	19929	
539.64	19127	
539.83	20710	
540.03	21807	
540.22	19075	
540.42	19088	
540.61	21012	
540.81	21192	
541	19465	
541.2	20372	
541.39	20278	
541.59	20882	
541.78	19966	
541.98	18634	
542.18	19991	
542.37	19906	
542.57	18969	
542.76	19828	
542.96	19581	
543.15	20582	
543.35	18796	
543.54	18239	
543.74	20583	
543.93	20203	
544.13	18660	
544.32	19856	
544.52	20510	
544.71	19620	
544.91	17748	
545.1	19021	
545.3	19650	
545.49	20422	
545.69	17638	
545.88	18223	
546.08	21337	
546.27	20891	
546.47	18881	
546.66	18088	
546.86	20439	
547.05	21157	
547.24	18269	
547.44	18193	
547.63	19307	
547.83	20553	
548.02	18498	
548.22	18699	
548.41	19142	
548.61	20422	
548.8	17932	
549	17774	
549.19	19491	
549.39	19854	
549.58	17509	
549.78	18072	
549.97	19945	
550.17	19551	
550.36	18787	
550.55	19994	
550.75	19308	
550.94	20162	
551.14	17552	
551.33	17874	
551.53	18816	
551.72	19883	
551.92	17927	
552.11	17584	
552.31	19630	
552.5	19731	
552.69	19366	
552.89	17072	
553.08	19491	
553.28	19166	
553.47	17694	
553.67	18943	
553.86	20144	
554.06	18480	
554.25	16731	
554.44	17378	
554.64	20847	
554.83	20474	
555.03	17230	
555.22	17647	
555.42	19489	
555.61	19268	
555.8	17242	
556	17671	
556.19	18380	
556.39	19579	
556.58	17520	
556.78	17451	
556.97	19347	
557.16	18964	
557.36	18687	
557.55	17067	
557.75	17949	
557.94	19971	
558.13	17129	
558.33	16855	
558.52	19648	
558.72	18404	
558.91	16860	
559.1	17070	
559.3	18306	
559.49	17668	
559.69	16480	
559.88	17441	
560.07	18755	
560.27	19221	
560.46	17689	
560.66	17697	
560.85	18621	
561.04	17749	
561.24	16665	
561.43	16683	
561.63	18054	
561.82	18279	
562.01	18295	
562.21	17343	
562.4	18855	
562.59	20011	
562.79	17165	
562.98	16789	
563.18	18852	
563.37	20566	
563.56	17645	
563.76	16876	
563.95	18344	
564.14	18284	
564.34	17408	
564.53	17091	
564.73	18970	
564.92	19338	
565.11	17497	
565.31	16930	
565.5	19729	
565.69	18684	
565.89	17159	
566.08	17492	
566.27	19692	
566.47	20155	
566.66	18188	
566.85	16779	
567.05	19211	
567.24	18518	
567.44	17174	
567.63	18502	
567.82	19465	
568.02	19174	
568.21	17318	
568.4	17782	
568.6	19244	
568.79	19305	
568.98	17077	
569.18	17492	
569.37	19262	
569.56	21141	
569.76	17694	
569.95	18634	
570.14	19563	
570.34	19572	
570.53	17082	
570.72	17209	
570.91	20021	
571.11	18933	
571.3	17712	
571.49	18532	
571.69	19258	
571.88	18568	
572.07	18241	
572.27	18256	
572.46	18847	
572.65	19899	
572.85	17576	
573.04	18032	
573.23	20360	
573.43	19460	
573.62	17677	
573.81	18186	
574	19882	
574.2	19516	
574.39	18079	
574.58	18336	
574.78	20797	
574.97	20074	
575.16	18733	
575.36	18911	
575.55	20502	
575.74	20462	
575.93	17817	
576.13	19174	
576.32	19837	
576.51	20491	
576.71	18333	
576.9	20224	
577.09	20923	
577.28	20282	
577.48	18930	
577.67	17793	
577.86	19809	
578.05	20484	
578.25	18695	
578.44	18703	
578.63	20150	
578.83	21431	
579.02	18075	
579.21	19756	
579.4	20390	
579.6	20308	
579.79	18830	
579.98	21051	
580.17	20928	
580.37	21043	
580.56	18516	
580.75	19308	
580.94	21479	
581.14	21220	
581.33	19920	
581.52	18723	
581.71	20843	
581.91	21577	
582.1	18284	
582.29	18976	
582.48	20599	
582.68	20578	
582.87	19648	
583.06	19310	
583.25	20876	
583.45	20373	
583.64	19975	
583.83	20838	
584.02	20297	
584.21	21174	
584.41	19907	
584.6	19207	
584.79	20753	
584.98	21589	
585.18	18688	
585.37	18635	
585.56	20145	
585.75	20977	
585.94	18709	
586.14	19435	
586.33	21285	
586.52	20457	
586.71	19149	
586.91	18625	
587.1	19497	
587.29	20731	
587.48	18413	
587.67	18400	
587.87	20272	
588.06	20338	
588.25	19505	
588.44	18674	
588.63	19410	
588.83	19998	
589.02	17555	
589.21	17311	
589.4	18539	
589.59	18364	
589.78	15898	
589.98	16158	
590.17	17455	
590.36	18118	
590.55	15166	
590.74	15999	
590.94	19348	
591.13	17924	
591.32	15914	
591.51	15580	
591.7	18368	
591.89	17881	
592.09	15517	
592.28	16130	
592.47	17225	
592.66	19263	
592.85	15738	
593.05	16021	
593.24	17696	
593.43	18796	
593.62	16293	
593.81	16806	
594	17863	
594.19	18302	
594.39	15933	
594.58	15925	
594.77	18135	
594.96	18676	
595.15	15638	
595.34	16405	
595.54	18060	
595.73	17083	
595.92	15068	
596.11	16274	
596.3	18479	
596.49	17166	
596.68	15994	
596.88	16586	
597.07	18276	
597.26	17195	
597.45	15550	
597.64	16776	
597.83	17315	
598.02	18067	
598.22	15546	
598.41	16518	
598.6	17886	
598.79	17209	
598.98	15694	
599.17	16692	
599.36	17793	
599.55	19004	
599.74	17959	
599.94	17682	
600.13	18331	
600.32	17216	
600.51	15634	
600.7	15681	
600.89	19013	
601.08	19101	
601.27	15483	
601.47	16580	
601.66	18194	
601.85	18993	
602.04	16245	
602.23	16378	
602.42	17357	
602.61	18040	
602.8	16089	
602.99	15860	
603.18	17701	
603.37	18092	
603.57	16503	
603.76	16983	
603.95	18642	
604.14	18370	
604.33	15911	
604.52	16352	
604.71	18071	
604.9	17570	
605.09	16813	
605.28	16809	
605.47	18577	
605.66	18165	
605.86	16533	
606.05	16024	
606.24	18529	
606.43	17036	
606.62	16272	
606.81	17016	
607	18391	
607.19	17677	
607.38	15612	
607.57	15787	
607.76	17461	
607.95	16739	
608.14	16085	
608.33	16821	
608.52	17313	
608.72	18431	
608.91	15321	
609.1	15353	
609.29	17322	
609.48	16714	
609.67	16293	
609.86	15247	
610.05	16816	
610.24	17127	
610.43	15292	
610.62	14696	
610.81	18254	
611	18196	
611.19	15309	
611.38	16066	
611.57	17472	
611.76	18928	
611.95	15023	
612.14	14777	
612.33	17306	
612.52	16817	
612.71	15710	
612.9	14756	
613.09	16384	
613.28	18852	
613.47	15216	
613.66	16375	
613.85	17426	
614.04	17032	
614.24	15418	
614.43	14575	
614.62	17513	
614.81	17589	
615	15860	
615.19	16080	
615.38	16748	
615.57	17195	
615.76	15763	
615.95	16858	
616.14	17597	
616.33	17365	
616.52	16238	
616.71	16630	
616.9	17620	
617.09	17686	
617.28	15781	
617.47	16932	
617.66	16984	
617.85	16933	
618.04	16887	
618.22	16232	
618.41	17331	
618.6	18473	
618.79	16294	
618.98	16109	
619.17	19050	
619.36	17103	
619.55	16184	
619.74	16361	
619.93	18248	
620.12	17766	
620.31	17137	
620.5	17230	
620.69	18934	
620.88	19250	
621.07	17939	
621.26	17068	
621.45	18648	
621.64	18680	
621.83	17075	
622.02	16208	
622.21	18593	
622.4	18486	
622.59	17746	
622.78	17497	
622.97	18182	
623.16	19273	
623.35	17091	
623.54	16244	
623.72	18347	
623.91	18339	
624.1	17477	
624.29	16074	
624.48	19800	
624.67	18753	
624.86	17446	
625.05	16471	
625.24	19818	
625.43	18082	
625.62	19012	
625.81	16872	
626	19080	
626.19	18410	
626.38	17675	
626.56	16718	
626.75	18181	
626.94	18943	
627.13	17265	
627.32	15985	
627.51	18660	
627.7	20172	
627.89	16128	
628.08	17430	
628.27	17762	
628.46	18038	
628.65	16344	
628.83	15959	
629.02	18563	
629.21	17904	
629.4	17001	
629.59	17167	
629.78	17935	
629.97	18864	
630.16	17349	
630.35	16636	
630.54	19303	
630.72	18991	
630.91	16481	
631.1	17116	
631.29	18582	
631.48	18746	
631.67	17352	
631.86	16686	
632.05	18217	
632.24	18303	
632.42	16356	
632.61	17075	
632.8	18308	
632.99	17868	
633.18	17098	
633.37	17394	
633.56	18559	
633.75	18439	
633.93	16987	
634.12	16748	
634.31	19361	
634.5	19014	
634.69	16670	
634.88	17120	
635.07	18286	
635.25	18950	
635.44	17621	
635.63	18018	
635.82	18102	
636.01	17600	
636.2	17477	
636.39	17169	
636.57	19283	
636.76	18961	
636.95	16530	
637.14	17926	
637.33	18521	
637.52	19617	
637.7	16272	
637.89	17163	
638.08	18227	
638.27	19516	
638.46	17370	
638.65	17512	
638.83	19356	
639.02	17880	
639.21	17022	
639.4	17418	
639.59	18285	
639.78	17770	
639.96	16133	
640.15	16065	
640.34	17948	
640.53	18119	
640.72	15776	
640.91	16174	
641.09	17259	
641.28	18654	
641.47	16156	
641.66	16987	
641.85	18133	
642.03	18022	
642.22	16697	
642.41	16128	
642.6	17363	
642.79	16545	
642.97	15622	
643.16	16595	
643.35	17101	
643.54	16912	
643.73	15466	
643.91	16170	
644.1	16409	
644.29	17242	
644.48	15238	
644.67	15259	
644.85	16426	
645.04	16691	
645.23	14401	
645.42	14887	
645.6	15883	
645.79	17081	
645.98	14554	
646.17	13508	
646.36	15411	
646.54	15937	
646.73	15001	
646.92	13717	
647.11	15265	
647.29	16411	
647.48	13796	
647.67	13390	
647.86	16578	
648.05	16678	
648.23	14189	
648.42	15554	
648.61	16208	
648.8	15881	
648.98	13890	
649.17	14293	
649.36	15414	
649.55	14967	
649.73	13728	
649.92	14584	
650.11	15207	
650.3	15568	
650.48	13868	
650.67	13671	
650.86	15852	
651.05	14657	
651.23	13766	
651.42	13741	
651.61	15135	
651.79	15276	
651.98	14072	
652.17	13565	
652.36	15537	
652.54	14644	
652.73	13420	
652.92	13233	
653.11	15468	
653.29	15499	
653.48	12539	
653.67	13555	
653.85	14950	
654.04	16039	
654.23	13432	
654.42	12800	
654.6	14021	
654.79	14560	
654.98	12155	
655.16	12732	
655.35	13428	
655.54	13532	
655.73	12349	
655.91	12316	
656.1	14837	
656.29	13754	
656.47	12045	
656.66	13857	
656.85	14147	
657.03	14207	
657.22	12649	
657.41	12949	
657.59	14426	
657.78	14185	
657.97	12645	
658.16	13313	
658.34	15037	
658.53	15558	
658.72	14397	
658.9	14779	
659.09	14508	
659.28	14647	
659.46	13119	
659.65	13038	
659.84	14350	
660.02	14990	
660.21	12858	
660.4	12808	
660.58	15357	
660.77	14610	
660.96	13530	
661.14	12452	
661.33	15844	
661.52	15736	
661.7	12424	
661.89	16188	
662.08	14203	
662.26	13824	
662.45	12630	
662.64	12751	
662.82	14907	
663.01	14059	
663.2	12740	
663.38	13667	
663.57	14661	
663.75	14614	
663.94	13065	
664.13	14386	
664.31	14012	
664.5	14906	
664.69	13457	
664.87	13834	
665.06	13748	
665.25	14511	
665.43	14046	
665.62	14117	
665.8	14863	
665.99	14080	
666.18	12923	
666.36	13109	
666.55	14792	
666.74	14693	
666.92	12508	
667.11	14178	
667.29	14128	
667.48	14658	
667.67	13755	
667.85	12948	
668.04	14231	
668.22	14233	
668.41	12981	
668.6	13168	
668.78	13822	
668.97	14163	
669.15	13327	
669.34	12155	
669.53	13777	
669.71	14191	
669.9	12418	
670.08	13069	
670.27	13831	
670.46	14444	
670.64	13273	
670.83	13482	
671.01	13640	
671.2	14384	
671.38	12443	
671.57	12273	
671.76	14887	
671.94	15545	
672.13	12228	
672.31	13245	
672.5	14543	
672.69	13777	
672.87	12444	
673.06	12823	
673.24	14411	
673.43	13936	
673.61	13141	
673.8	12637	
673.98	14508	
674.17	14708	
674.36	13240	
674.54	13035	
674.73	14182	
674.91	14420	
675.1	12891	
675.28	12396	
675.47	14067	
675.65	14661	
675.84	12718	
676.03	13061	
676.21	13669	
676.4	13275	
676.58	13502	
676.77	13293	
676.95	15238	
677.14	13626	
677.32	12342	
677.51	12038	
677.69	14575	
677.88	13257	
678.06	12144	
678.25	12308	
678.44	14086	
678.62	13713	
678.81	11772	
678.99	13053	
679.18	14846	
679.36	14362	
679.55	12512	
679.73	13175	
679.92	14285	
680.1	13715	
680.29	13941	
680.47	12500	
680.66	13600	
680.84	14551	
681.03	11898	
681.21	12902	
681.4	13809	
681.58	13480	
681.77	12141	
681.95	12140	
682.14	14440	
682.32	14678	
682.51	13216	
682.69	11815	
682.88	13414	
683.06	14020	
683.25	12693	
683.43	13104	
683.62	13481	
683.8	14031	
683.99	12902	
684.17	11972	
684.36	14246	
684.54	12703	
684.73	10639	
684.91	10783	
685.1	12730	
685.28	12028	
685.46	11241	
685.65	11282	
685.83	12857	
686.02	12251	
686.2	10785	
686.39	10999	
686.57	12173	
686.76	13824	
686.94	10880	
687.13	11163	
687.31	12957	
687.5	12575	
687.68	10602	
687.86	12158	
688.05	14265	
688.23	12088	
688.42	12016	
688.6	11498	
688.79	12747	
688.97	12661	
689.16	11763	
689.34	10626	
689.52	13499	
689.71	13751	
689.89	12111	
690.08	11305	
690.26	12936	
690.45	12713	
690.63	12015	
690.81	11412	
691	12468	
691.18	12420	
691.37	11429	
691.55	13515	
691.74	12270	
691.92	14496	
692.1	11385	
692.29	10761	
692.47	12527	
692.66	11873	
692.84	11049	
693.02	11832	
693.21	12293	
693.39	12590	
693.58	11907	
693.76	11516	
693.94	14142	
694.13	14080	
694.31	11499	
694.5	12759	
694.68	12828	
694.86	13372	
695.05	12163	
695.23	12560	
695.42	13764	
695.6	16194	
695.78	12736	
695.97	11656	
696.15	13639	
696.34	12795	
696.52	11253	
696.7	12098	
696.89	13117	
697.07	12453	
697.25	11802	
697.44	13504	
697.62	13070	
697.81	13304	
697.99	11439	
698.17	11989	
698.36	12169	
698.54	12914	
698.72	11924	
698.91	10820	
699.09	12371	
699.28	12388	
699.46	11433	
699.64	11267	
699.83	12248	
700.01	13457	
700.19	12240	
700.38	10643	
700.56	13743	
700.74	12430	
700.93	11033	
701.11	11946	
701.29	13190	
701.48	14340	
701.66	11471	
701.84	11474	
702.03	12682	
702.21	13575	
702.39	10910	
702.58	11658	
702.76	13153	
702.94	13377	
703.13	10993	
703.31	13520	
703.49	12513	
703.68	13946	
703.86	11185	
704.04	12195	
704.23	13029	
704.41	13472	
704.59	11323	
704.78	12487	
704.96	14061	
705.14	13407	
705.33	11122	
705.51	11785	
705.69	12748	
705.87	13549	
706.06	12181	
706.24	10950	
706.42	13128	
706.61	13401	
706.79	12164	
706.97	11053	
707.16	12428	
707.34	13000	
707.52	12019	
707.7	11188	
707.89	12628	
708.07	12309	
708.25	12047	
708.44	12225	
708.62	12430	
708.8	13575	
708.98	12315	
709.17	11323	
709.35	12837	
709.53	12808	
709.72	10848	
709.9	10980	
710.08	12987	
710.26	13028	
710.45	12412	
710.63	11208	
710.81	12667	
710.99	12534	
711.18	11588	
711.36	11134	
711.54	12166	
711.72	12917	
711.91	10815	
712.09	10256	
712.27	12208	
712.45	12671	
712.64	10855	
712.82	9723.8	
713	11138	
713.18	11174	
713.37	9396.1	
713.55	10539	
713.73	11604	
713.91	9931.3	
714.1	9146.9	
714.28	8518.9	
714.46	10580	
714.64	9617.9	
714.83	7567.2	
715.01	8232.2	
715.19	9436.4	
715.37	8710	
715.55	7841.7	
715.74	8047.8	
715.92	10224	
716.1	8196	
716.28	9095	
716.47	8120.9	
716.65	8748.2	
716.83	8981.7	
717.01	8034.2	
717.19	8013	
717.38	11297	
717.56	8787.2	
717.74	8530.5	
717.92	7931.8	
718.1	10297	
718.29	9572.2	
718.47	7761.1	
718.65	8402.1	
718.83	10638	
719.01	10629	
719.2	7734.5	
719.38	8834.3	
719.56	10133	
719.74	11852	
719.92	8195.3	
720.11	9197.4	
720.29	9886.2	
720.47	8949.6	
720.65	7411.6	
720.83	8250.6	
721.02	9054.8	
721.2	8715.5	
721.38	8171.4	
721.56	7330.4	
721.74	8239.7	
721.92	8392.6	
722.11	8624.7	
722.29	8292.9	
722.47	9679.4	
722.65	8726.4	
722.83	7316	
723.01	8295.6	
723.2	8880	
723.38	9308	
723.56	6758.3	
723.74	7944.1	
723.92	8259.5	
724.1	9540.1	
724.29	7201.3	
724.47	8375.5	
724.65	8371.4	
724.83	8300.4	
725.01	7172	
725.19	8047.8	
725.37	8370.7	
725.56	8378.2	
725.74	6965.1	
725.92	7178.8	
726.1	8373.5	
726.28	8610.3	
726.46	7632.1	
726.64	7353.6	
726.83	8574.8	
727.01	8780.3	
727.19	6888	
727.37	7712.7	
727.55	8746.9	
727.73	9280	
727.91	6945.3	
728.09	6743.3	
728.28	9433.6	
728.46	10091	
728.64	8091.5	
728.82	8047.2	
729	10701	
729.18	10004	
729.36	7424.6	
729.54	9873.3	
729.72	11026	
729.91	9411.1	
730.09	9570.8	
730.27	8299.1	
730.45	9308.7	
730.63	10028	
730.81	9078.6	
730.99	7987.8	
731.17	10616	
731.35	9055.4	
731.53	8433.5	
731.71	8175.5	
731.9	10226	
732.08	10447	
732.26	8295.6	
732.44	7978.2	
732.62	10403	
732.8	9972.2	
732.98	8701.1	
733.16	7741.3	
733.34	9881.4	
733.52	8687.5	
733.7	8213.7	
733.88	8503.8	
734.07	9736.7	
734.25	9482.1	
734.43	7640.3	
734.61	9413.8	
734.79	11034	
734.97	9328.5	
735.15	7815.7	
735.33	8120.2	
735.51	9685.5	
735.69	9354.4	
735.87	9426.1	
736.05	8435.6	
736.23	9570.2	
736.41	9422	
736.59	8233.5	
736.77	8405.5	
736.95	10130	
737.13	9529.9	
737.32	7909.9	
737.5	8196.7	
737.68	10611	
737.86	9430.2	
738.04	7701	
738.22	9663	
738.4	9103.9	
738.58	9417.2	
738.76	8322.3	
738.94	7157.7	
739.12	9205.6	
739.3	9043.8	
739.48	9074.5	
739.66	8831.5	
739.84	9540.8	
740.02	9696.4	
740.2	7388.4	
740.38	7729.7	
740.56	9989.3	
740.74	8714.8	
740.92	8487.5	
741.1	8265.6	
741.28	9326.4	
741.46	9139.4	
741.64	7884	
741.82	8396	
742	9249.3	
742.18	9217.2	
742.36	8189.1	
742.54	7573.4	
742.72	9895.8	
742.9	8574.8	
743.08	8469.7	
743.26	7168.6	
743.44	9974.3	
743.62	9806.4	
743.8	8561.2	
743.98	7643.7	
744.16	9559.9	
744.34	9144.2	
744.52	8520.2	
744.7	8411	
744.88	9596.8	
745.06	9065	
745.24	8529.1	
745.42	8516.8	
745.6	9637.7	
745.78	9303.9	
745.96	7113.3	
746.14	7426.6	
746.32	10383	
746.5	9459.6	
746.68	8061.5	
746.86	7296.2	
747.03	10058	
747.21	8202.8	
747.39	7948.2	
747.57	7372	
747.75	9077.3	
747.93	9581.1	
748.11	7489.4	
748.29	7334.5	
748.47	10717	
748.65	8742.8	
748.83	8118.8	
749.01	7883.3	
749.19	9316.9	
749.37	8502.5	
749.55	7724.9	
749.73	7748.8	
749.91	8957.1	
750.09	8681.3	
750.26	7828	
750.44	7152.2	
750.62	8990.6	
750.8	8882.7	
750.98	7047.7	
751.16	7421.2	
751.34	9070.5	
751.52	8359.1	
751.7	8176.2	
751.88	7062.1	
752.06	9599.5	
752.24	9339.4	
752.42	6961.7	
752.59	7344.7	
752.77	8841.8	
752.95	10126	
753.13	8095.6	
753.31	7518.8	
753.49	8566.7	
753.67	9069.8	
753.85	7757	
754.03	7257.3	
754.21	9207.7	
754.38	9525.8	
754.56	7347.4	
754.74	6167.8	
754.92	8101.8	
755.1	8708.6	
755.28	5795.1	
755.46	5522	
755.64	8626	
755.82	8698.4	
755.99	5160.2	
756.17	5336.3	
756.35	5517.2	
756.53	7090.1	
756.71	3780.6	
756.89	4735.6	
757.07	6756.9	
757.25	5927.5	
757.42	5670.8	
757.6	6754.2	
757.78	7365.2	
757.96	6321.4	
758.14	5589.6	
758.32	4988.9	
758.5	5728.9	
758.67	6537.1	
758.85	5186.1	
759.03	5279	
759.21	6691.4	
759.39	6101.6	
759.57	4795	
759.75	6003.3	
759.92	7466.9	
760.1	6703	
760.28	6591.7	
760.46	6860	
760.64	6717.3	
760.82	6527.6	
760.99	6379.4	
761.17	5825.1	
761.35	7763.8	
761.53	6822.5	
761.71	6127.5	
761.89	6913.3	
762.06	7871.7	
762.24	7342	
762.42	6419.7	
762.6	6229.9	
762.78	7548.1	
762.96	8286.1	
763.13	6983.6	
763.31	6605.4	
763.49	8398.7	
763.67	7638.2	
763.85	7625.3	
764.02	8189.8	
764.2	8790.6	
764.38	7909.9	
764.56	6541.9	
764.74	7295.5	
764.91	8914.1	
765.09	7703.1	
765.27	6249.7	
765.45	6044.2	
765.63	8917.5	
765.8	8797.4	
765.98	5601.2	
766.16	6012.8	
766.34	7301	
766.52	7155.6	
766.69	6932.4	
766.87	5839.4	
767.05	7660.8	
767.23	8397.4	
767.41	6053.8	
767.58	6354.8	
767.76	8142	
767.94	8168	
768.12	6137.8	
768.29	6916.7	
768.47	7560.4	
768.65	8326.4	
768.83	5775.3	
769	6824.5	
769.18	7060.7	
769.36	7825.3	
769.54	6515.3	
769.72	5623	
769.89	8004.8	
770.07	8068.3	
770.25	5890.6	
770.43	7264.1	
770.6	8757.1	
770.78	9242.5	
770.96	6120	
771.14	6764.4	
771.31	7873.1	
771.49	7238.9	
771.67	5165	
771.85	5516.5	
772.02	6292.7	
772.2	7133.8	
772.38	6110.5	
772.55	5669.5	
772.73	7405.5	
772.91	7149.5	
773.09	5949.3	
773.26	6014.2	
773.44	7146	
773.62	6866.8	
773.8	5371.1	
773.97	5155.4	
774.15	7262.1	
774.33	6770.6	
774.5	5210.7	
774.68	5609.4	
774.86	7392.5	
775.04	6799.9	
775.21	5310.4	
775.39	5225.1	
775.57	7087.3	
775.74	7484.6	
775.92	5078.3	
776.1	4986.8	
776.27	7020.4	
776.45	8225.3	
776.63	5143.1	
776.81	4646.2	
776.98	6542.6	
777.16	7704.5	
777.34	5340.4	
777.51	5237.3	
777.69	6470.2	
777.87	6273.6	
778.04	5280.3	
778.22	5948.7	
778.4	6257.2	
778.57	6959	
778.75	4522.6	
778.93	4746.5	
779.1	5979.4	
779.28	5819	
779.46	4439.3	
779.64	4932.2	
779.81	7024.5	
779.99	7914	
780.17	5732.3	
780.34	5928.9	
780.52	6394.4	
780.69	6591	
780.87	5212.1	
781.05	4707.6	
781.22	6434.7	
781.4	6497.5	
781.58	4837.3	
781.75	3942.3	
781.93	6389	
782.11	5724.1	
782.28	5730.9	
782.46	4846.9	
782.64	5604.6	
782.81	6597.2	
782.99	4846.9	
783.17	4835.3	
783.34	6435.4	
783.52	5692	
783.69	4997	
783.87	5808.7	
784.05	5552.7	
784.22	5598.5	
784.4	5748	
784.58	5014.1	
784.75	6571.2	
784.93	5626.5	
785.1	4701.5	
785.28	5345.2	
785.46	6281.8	
785.63	5614.2	
785.81	4670.1	
785.99	4417.5	
786.16	5743.9	
786.34	6143.2	
786.51	4465.9	
786.69	4881	
786.87	5298.1	
787.04	5831.9	
787.22	4289.8	
787.39	5245.5	
787.57	5550	
787.75	6702.3	
787.92	5442.1	
788.1	5446.2	
788.27	5556.8	
788.45	5317.2	
788.63	5143.1	
788.8	3792.2	
788.98	5962.3	
789.15	5236.7	
789.33	3878.9	
789.5	4524	
789.68	6505	
789.86	6632.7	
790.03	5000.5	
790.21	4350.6	
790.38	6362.4	
790.56	5589.6	
790.73	4192.9	
790.91	4231.8	
791.09	5420.3	
791.26	6218.3	
791.44	4430.4	
791.61	3840.6	
791.79	5423.7	
791.96	5509.7	
792.14	3981.9	
792.32	3493.2	
792.49	5388.2	
792.67	5620.3	
792.84	4006.5	
793.02	3800.3	
793.19	5883.1	
793.37	6696.9	
793.54	3601.7	
793.72	3947.1	
793.89	6760.3	
794.07	5450.3	
794.25	4520.5	
794.42	3566.2	
794.6	6483.9	
794.77	6023.8	
794.95	4777.9	
795.12	4248.9	
795.3	5364.3	
795.47	5979.4	
795.65	4597.7	
795.82	4451.6	
796	5188.9	
796.17	7122.8	
796.35	4275.5	
796.52	5065.3	
796.7	5929.6	
796.87	5991.7	
797.05	5215.5	
797.22	5156.8	
797.4	5909.8	
797.57	7009.5	
797.75	4404.5	
797.92	4139.6	
798.1	6221	
798.27	5334.3	
798.45	3509.5	
798.62	3808.5	
798.8	5639.4	
798.97	6161.7	
799.15	4579.9	
799.32	4394.9	
799.5	4835.3	
799.67	5710.4	
799.85	4753.3	
800.02	3502.7	
800.2	5280.3	
800.37	5608.7	
800.55	4900.8	
800.72	4029	
800.9	6087.9	
801.07	6500.3	
801.25	5545.2	
801.42	4458.4	
801.6	6105.7	
801.77	5819.6	
801.95	3988.8	
802.12	3982.6	
802.29	5813.5	
802.47	5815.5	
802.64	4448.2	
802.82	3317.7	
802.99	5223.7	
803.17	6233.3	
803.34	4248.2	
803.52	3868.6	
803.69	6890	
803.87	4977.2	
804.04	4227.7	
804.21	4373.1	
804.39	6288.6	
804.56	5455.1	
804.74	3665.2	
804.91	4430.4	
805.09	5214.1	
805.26	5338.4	
805.44	3720.5	
805.61	4026.3	
805.78	5860.6	
805.96	5937.7	
806.13	4465.3	
806.31	4788.8	
806.48	4717.8	
806.66	5354.8	
806.83	4385.4	
807	4354.7	
807.18	5121.3	
807.35	5575.3	
807.53	4270.7	
807.7	3416	
807.87	6418.3	
808.05	5182.7	
808.22	4694.6	
808.4	3375.7	
808.57	5208.7	
808.74	4835.9	
808.92	3909.6	
809.09	4946.5	
809.27	5049.6	
809.44	5760.9	
809.61	3442	
809.79	3899.3	
809.96	6365.1	
810.14	5941.8	
810.31	3358.7	
810.48	4100	
810.66	5246.2	
810.83	6091.3	
811.01	3978.5	
811.18	4637.3	
811.35	5944.6	
811.53	4649.6	
811.7	4719.2	
811.87	4402.5	
812.05	5158.2	
812.22	5071.5	
812.39	3767.6	
812.57	3664.5	
812.74	5188.9	
812.92	6980.8	
813.09	4085.7	
813.26	4478.9	
813.44	6640.2	
813.61	5139.7	
813.78	3373.7	
813.96	4578.6	
814.13	5245.5	
814.3	4904.9	
814.48	4941.1	
814.65	4132.8	
814.82	6541.9	
815	5016.8	
815.17	4230.4	
815.34	5127.4	
815.52	5130.2	
815.69	5096.7	
815.87	4212	
816.04	3588	
816.21	5258.5	
816.38	4578.6	
816.56	4061.8	
816.73	3762.1	
816.9	6556.2	
817.08	5958.9	
817.25	3788.1	
817.42	4797	
817.6	4737.6	
817.77	5240.1	
817.94	4317.8	
818.12	3695.2	
818.29	4820.2	
818.46	7688.1	
818.64	3904.1	
818.81	3700.7	
818.98	4826.4	
819.16	7025.2	
819.33	4562.2	
819.5	4220.9	
819.67	5615.5	
819.85	6285.9	
820.02	4143	
820.19	4368.3	
820.37	5444.2	
820.54	5008.6	
820.71	4281.6	
820.88	5351.3	
821.06	5403.9	
821.23	4988.9	
821.4	4315.8	
821.58	4253.6	
821.75	5960.3	
821.92	5334.3	
822.09	3428.3	
822.27	3560.1	
822.44	5233.2	
822.61	5097.4	
822.79	3478.1	
822.96	6556.9	
823.13	5728.9	
823.3	4916.5	
823.48	3990.1	
823.65	3616	
823.82	5859.9	
823.99	4741.7	
824.17	5055.8	
824.34	3648.8	
824.51	6794.5	
824.68	5240.1	
824.86	3798.3	
825.03	4291.2	
825.2	5141.8	
825.37	6344.6	
825.55	3758.7	
825.72	4197	
825.89	6894.8	
826.06	6436.1	
826.24	4115.7	
826.41	4083	
826.58	6301.6	
826.75	5556.1	
826.92	3226.9	
827.1	3584.6	
827.27	8564.6	
827.44	6892.1	
827.61	3934.1	
827.79	4742.4	
827.96	4946.5	
828.13	5322.7	
828.3	4086.4	
828.47	3431.7	
828.65	5408.7	
828.82	5372.5	
828.99	5309	
829.16	4612.7	
829.34	5836.7	
829.51	5591	
829.68	4254.3	
829.85	4393.6	
830.02	6120.7	
830.2	5889.3	
830.37	3266.5	
830.54	5098.8	
830.71	6649.1	
830.88	5141.1	
831.05	3347.1	
831.23	3844.7	
831.4	6304.3	
831.57	7160.4	
831.74	3956	
831.91	3455.6	
832.09	5368.4	
832.26	5773.9	
832.43	4030.4	
832.6	4565.6	
832.77	5468.8	
832.94	6242.9	
833.12	3243.3	
833.29	3990.8	
833.46	5075.5	
833.63	7395.9	
833.8	4416.8	
833.97	4102.8	
834.15	5827.2	
834.32	5614.2	
834.49	4222.9	
834.66	4321.2	
834.83	6053.1	
835	4894.6	
835.17	3925.3	
835.35	3966.9	
835.52	5719.3	
835.69	5625.1	
835.86	4083.6	
836.03	3394.8	
836.2	5772.5	
836.37	5337.7	
836.55	4061.8	
836.72	3737.5	
836.89	5315.2	
837.06	5817.6	
837.23	4147.1	
837.4	4511	
837.57	6621.8	
837.75	7446.4	
837.92	3709.6	
838.09	4021.5	
838.26	5320.6	
838.43	6090	
838.6	4276.8	
838.77	3786.7	
838.94	7030	
839.11	6695.5	
839.29	4022.9	
839.46	3162.7	
839.63	5735	
839.8	5522	
839.97	3925.3	
840.14	3964.2	
840.31	5608	
840.48	5783.5	
840.65	3239.9	
840.82	3821.5	
841	5788.9	
841.17	5754.1	
841.34	3605.8	
841.51	3596.9	
841.68	5698.1	
841.85	5509	
842.02	3810.6	
842.19	3140.9	
842.36	5491.3	
842.53	5543.2	
842.7	3559.4	
842.87	4478.9	
843.05	7271.7	
843.22	5406	
843.39	3398.3	
843.56	3713	
843.73	5211.4	
843.9	5851	
844.07	5887.9	
844.24	4872.8	
844.41	8580.3	
844.58	4987.5	
844.75	3482.2	
844.92	3811.3	
845.09	5743.2	
845.26	5784.1	
845.43	3557.3	
845.6	3777.8	
845.77	5787.6	
845.94	5533.6	
846.12	3973.7	
846.29	4178.5	
846.46	6044.2	
846.63	5813.5	
846.8	3589.4	
846.97	4238.6	
847.14	6217.6	
847.31	5715.2	
847.48	4140.3	
847.65	4360.8	
847.82	6074.3	
847.99	6028.5	
848.16	4760.8	
848.33	4389.5	
848.5	5304.2	
848.67	6274.3	
848.84	3576.4	
849.01	3710.9	
849.18	5189.6	
849.35	4816.8	
849.52	4506.2	
849.69	3515.7	
849.86	5961.6	
850.03	6158.9	
850.2	3661.1	
850.37	4438.6	
850.54	6121.4	
850.71	5498.1	
850.88	4312.3	
851.05	3586	
851.22	5738.4	
851.39	6319.3	
851.56	3377.1	
851.73	4088.4	
851.9	5076.2	
852.07	6035.4	
852.24	3994.2	
852.41	3568.2	
852.58	5663.3	
852.75	5184.1	
852.92	4042.7	
853.09	3546.4	
853.26	5401.9	
853.43	6223.1	
853.6	3571	
853.77	3017.3	
853.94	6317.3	
854.11	5071.5	
854.28	5353.4	
854.44	3839.9	
854.61	6794.5	
854.78	5851	
854.95	3595.6	
855.12	4545.1	
855.29	4638.6	
855.46	6531	
855.63	3526.6	
855.8	4965.6	
855.97	5317.2	
856.14	6150.7	
856.31	5082.4	
856.48	3874.1	
856.65	5271.5	
856.82	5076.9	
856.99	3465.8	
857.16	3877.5	
857.33	7062.1	
857.49	5444.9	
857.66	3859.1	
857.83	4143.7	
858	5367.7	
858.17	5558.9	
858.34	3396.2	
858.51	3553.2	
858.68	6567.8	
858.85	6509.8	
859.02	4155.3	
859.19	4429.1	
859.36	5034.6	
859.52	5115.1	
859.69	3570.3	
859.86	4254.3	
860.03	5083.7	
860.2	6360.3	
860.37	3196.2	
860.54	3646.1	
860.71	5978.7	
860.88	6423.8	
861.05	4036.5	
861.21	4448.2	
861.38	6391	
861.55	4880.3	
861.72	3208.5	
861.89	4012.7	
862.06	6018.3	
862.23	6606.1	
862.4	3511.6	
862.56	3709.6	
862.73	5885.9	
862.9	5507	
863.07	4229.1	
863.24	3188	
863.41	4973.8	
863.58	5079	
863.75	3663.8	
863.91	4127.3	
864.08	6387.6	
864.25	5940.5	
864.42	4431.8	
864.59	5034.6	
864.76	6773.3	
864.93	5027.1	
865.09	3509.5	
865.26	3764.8	
865.43	6309.8	
865.6	6603.3	
865.77	3127.9	
865.94	3486.3	
866.1	6347.3	
866.27	6066.8	
866.44	5368.4	
866.61	3336.1	
866.78	5500.2	
866.95	5888.6	
867.11	3385.3	
867.28	3134.1	
867.45	6111.8	
867.62	5156.1	
867.79	4156	
867.96	3586	
868.12	5015.5	
868.29	6096.1	
868.46	3061	
868.63	4825.7	
868.8	6231.3	
868.97	5946.6	
869.13	3790.8	
869.3	3697.9	
869.47	5909.8	
869.64	6115.9	
869.81	3575.8	
869.97	3608.5	
870.14	5750.7	
870.31	6475	
870.48	3478.8	
870.65	4492.6	
870.81	5384.1	
870.98	5362.9	
871.15	4037.9	
871.32	3738.2	
871.48	5818.3	
871.65	6459.3	
871.82	3592.8	
871.99	3936.9	
872.16	6981.5	
872.32	6296.8	
872.49	3583.3	
872.66	3620.1	
872.83	6012.8	
872.99	5261.2	
873.16	4121.9	
873.33	3523.9	
873.5	5625.8	
873.67	5669.5	
873.83	3749.1	
874	4756.1	
874.17	5772.5	
874.34	6861.4	
874.5	4615.4	
874.67	4411.3	
874.84	6431.3	
875.01	5048.2	
875.17	5040.1	
875.34	3547.8	
875.51	5681.7	
875.68	6870.3	
875.84	4280.9	
876.01	5311.1	
876.18	5926.1	
876.34	5844.9	
876.51	3577.8	
876.68	3492.5	
876.85	5455.1	
877.01	6264.7	
877.18	5085.1	
877.35	3521.1	
877.52	5575.3	
877.68	4965.6	
877.85	3457	
878.02	3488.4	
878.18	5479	
878.35	5221	
878.52	2843.9	
878.69	3970.3	
878.85	5986.9	
879.02	5946.6	
879.19	5026.4	
879.35	3825.6	
879.52	5856.5	
879.69	6220.4	
879.86	3106.1	
880.02	3993.5	
880.19	5520.6	
880.36	6690	
880.52	4077.5	
880.69	4250.2	
880.86	6058.6	
881.02	6171.9	
881.19	3917.1	
881.36	3863.8	
881.52	5945.3	
881.69	5226.4	
881.86	3834.5	
882.02	3801.7	
882.19	6280.4	
882.36	7346.7	
882.52	3631	
882.69	4988.2	
882.86	5730.2	
883.02	5580	
883.19	4392.9	
883.36	4047.5	
883.52	6047.7	
883.69	6967.9	
883.86	3644	
884.02	3208.5	
884.19	6027.2	
884.36	5587.5	
884.52	4007.9	
884.69	3726.6	
884.86	5279.7	
885.02	6581.5	
885.19	4017.4	
885.36	4089.1	
885.52	5554.1	
885.69	5696.8	
885.86	5066	
886.02	4571.7	
886.19	6051.7	
886.35	5326.8	
886.52	3945.1	
886.69	5001.1	
886.85	5155.4	
887.02	6418.3	
887.19	6418.3	
887.35	6418.3	
887.52	6418.3	
887.68	6418.3	
887.85	6418.3	
888.02	6418.3	
888.18	6418.3	
888.35	6418.3	
888.51	6418.3	
888.68	6418.3	
888.85	6418.3	
889.01	6418.3	
889.18	6418.3	
889.35	6418.3	
889.51	6418.3	
889.68	6418.3	
889.84	6418.3	
890.01	6418.3	
890.17	6418.3	
890.34	6418.3	
890.51	6418.3	
890.67	6418.3	
890.84	6418.3	
891	6418.3	
891.17	6418.3	
891.34	6418.3	
891.5	6418.3	
891.67	6418.3	
891.83	6418.3	
892	6418.3	
892.16	6418.3	
892.33	6418.3	
892.5	6418.3	
892.66	6418.3	
892.83	6418.3	
892.99	6418.3	
893.16	6418.3	
893.32	6418.3	
893.49	6418.3	
893.65	6418.3	
893.82	6418.3	
893.99	6418.3	
894.15	6418.3	
894.32	6418.3	
894.48	6418.3	
894.65	6418.3	
894.81	6418.3	
894.98	6418.3	
895.14	6418.3	
895.31	6418.3	
895.47	6418.3	
895.64	6418.3	
895.81	6418.3	
895.97	6418.3	
896.14	6418.3	
896.3	6418.3	
896.47	6418.3	
896.63	6418.3	
896.8	6418.3	
896.96	6418.3	
897.13	6418.3	
897.29	6418.3	
897.46	6418.3	
897.62	6418.3	
897.79	6418.3	
897.95	6418.3	
898.12	6418.3	
898.28	6418.3	
898.45	6418.3	
898.61	6418.3	
898.78	6418.3	
898.94	6418.3	
899.11	6418.3	
899.27	6418.3	
899.44	6418.3	
899.6	6418.3	
899.77	6418.3	
899.93	6418.3	
900.1	6418.3	
900.26	6418.3	
900.43	6418.3	
900.59	6418.3	
900.76	6418.3	
900.92	6418.3	
901.09	6418.3	
901.25	6418.3	
901.42	6418.3	
901.58	6418.3	
901.75	6418.3	
901.91	6418.3	
902.07	6418.3	
902.24	6418.3	
902.4	6418.3	
902.57	6418.3	
902.73	6418.3	
902.9	6418.3	
903.06	6418.3	
903.23	6418.3	
903.39	6418.3	
903.56	6418.3	
903.72	6418.3	
903.88	6418.3	
904.05	6418.3	
904.21	6418.3	
904.38	6418.3	
904.54	6418.3	
904.71	6418.3	
904.87	6418.3	
905.03	6418.3	
905.2	6418.3	
905.36	6418.3	
905.53	6418.3	
905.69	6418.3	
905.86	6418.3	
906.02	6418.3	
906.18	6418.3	
906.35	6418.3	
906.51	6418.3	
906.68	6418.3	
906.84	6418.3	
907.01	6418.3	
907.17	6418.3	
907.33	6418.3	
907.5	6418.3	
907.66	6418.3	
907.83	6418.3	
907.99	6418.3	
908.15	6418.3	
908.32	6418.3	
908.48	6418.3	
908.65	6418.3	
908.81	6418.3	
908.97	6418.3	
909.14	6418.3	
909.3	6418.3	
909.47	6418.3	
909.63	6418.3	
909.79	6418.3	
909.96	6418.3	
910.12	6418.3	
910.28	6418.3	
910.45	6418.3	
910.61	6418.3	
910.78	6418.3	
910.94	6418.3	
911.1	6418.3	
911.27	6418.3	
911.43	6418.3	
911.59	6418.3	
911.76	6418.3	
911.92	6418.3	
912.08	6418.3	
912.25	6418.3	
912.41	6418.3	
912.57	6418.3	
912.74	6418.3	
912.9	6418.3	
913.07	6418.3	
913.23	6418.3	
913.39	6418.3	
913.56	6418.3	
913.72	6418.3	
913.88	6418.3	
914.05	6418.3	
914.21	6418.3	
914.37	6418.3	
914.54	6418.3	
914.7	6418.3	
914.86	6418.3	
915.03	6418.3	
915.19	6418.3	
