Wavelength	Intensities	
nm	a.u.	
179.22	1557.1	
179.44	1568.1	
179.65	1546.2	
179.86	1589.9	
180.08	1564.6	
180.29	3439.2	
180.51	2770.9	
180.72	4614.1	
180.94	5002.5	
181.15	2456.2	
181.37	2435	
181.58	4444.1	
181.79	4562.2	
182.01	2503.3	
182.22	2621.4	
182.44	4584.7	
182.65	4070.7	
182.87	3149.1	
183.08	2850.1	
183.29	4825.7	
183.51	4034.5	
183.72	2607.7	
183.94	3509.5	
184.15	4361.5	
184.37	4223.6	
184.58	2396.1	
184.79	2987.3	
185.01	4205.8	
185.22	4675.5	
185.44	3118.4	
185.65	2783.9	
185.86	4418.2	
186.08	4029.7	
186.29	2366.8	
186.51	2502.6	
186.72	4190.1	
186.94	4640.7	
187.15	2781.1	
187.36	2902	
187.58	5674.9	
187.79	4435.2	
188.01	2842.6	
188.22	4182.6	
188.43	5008	
188.65	4601.8	
188.86	2473.3	
189.08	2870.6	
189.29	4205.8	
189.5	4165.6	
189.72	2614.6	
189.93	2639.8	
190.15	4715.8	
190.36	5298.8	
190.57	2848.7	
190.79	2773.6	
191	4666.6	
191.22	4696	
191.43	2906.8	
191.64	2557.9	
191.86	4784.1	
192.07	4694.6	
192.29	2615.9	
192.5	2675.3	
192.71	4712.4	
192.93	4209.3	
193.14	2634.4	
193.35	2690.3	
193.57	4227.7	
193.78	4689.2	
194	2228.2	
194.21	2588.6	
194.42	4079.6	
194.64	4362.9	
194.85	2794.8	
195.07	3179.1	
195.28	4339.6	
195.49	3926.6	
195.71	3351.2	
195.92	2499.9	
196.13	4522.6	
196.35	4483.7	
196.56	3493.2	
196.78	2814.6	
196.99	5258.5	
197.2	4979.3	
197.42	3111.5	
197.63	2857.6	
197.84	4009.9	
198.06	4500.8	
198.27	2666.5	
198.48	3266.5	
198.7	4238.6	
198.91	4393.6	
199.13	2882.2	
199.34	2829.6	
199.55	4717.2	
199.77	3863.8	
199.98	2567.5	
200.19	2892.4	
200.41	4410	
200.62	4121.2	
200.83	2900.6	
201.05	3114.3	
201.26	4381.3	
201.47	4203.8	
201.69	2576.3	
201.9	2551.8	
202.11	4389.5	
202.33	4954	
202.54	2680.1	
202.76	2993.4	
202.97	4334.2	
203.18	4479.6	
203.4	2917.7	
203.61	3020.1	
203.82	4399.7	
204.04	4177.9	
204.25	2865.1	
204.46	2849.4	
204.68	4358.1	
204.89	4487.8	
205.1	2805	
205.32	2525.1	
205.53	4639.3	
205.74	4693.3	
205.96	2251.4	
206.17	2879.4	
206.38	4539	
206.6	4646.2	
206.81	3117	
207.02	2721.8	
207.24	4517.8	
207.45	4760.2	
207.66	2772.3	
207.88	2455.5	
208.09	4474.8	
208.3	4321.2	
208.52	2592	
208.73	2798.2	
208.94	4358.8	
209.15	4780	
209.37	2744.3	
209.58	2802.3	
209.79	4681.7	
210.01	4258.4	
210.22	2336	
210.43	2419.3	
210.65	4289.8	
210.86	4526	
211.07	2701.3	
211.29	2570.2	
211.5	4546.5	
211.71	4296.6	
211.93	2570.2	
212.14	2598.2	
212.35	4300.1	
212.56	4370.4	
212.78	2875.3	
212.99	2439.1	
213.2	4878.3	
213.42	4229.1	
213.63	2638.5	
213.84	2777	
214.06	4023.6	
214.27	4033.1	
214.48	2717	
214.69	2925.9	
214.91	4813.4	
215.12	4767.7	
215.33	2876	
215.55	2992.8	
215.76	5053.7	
215.97	4492.6	
216.18	2779.8	
216.4	2867.2	
216.61	4133.5	
216.82	4599.7	
217.04	2612.5	
217.25	2668.5	
217.46	4687.8	
217.67	4543.8	
217.89	2379.7	
218.1	2433	
218.31	4411.3	
218.53	4487.1	
218.74	2739.5	
218.95	2630.3	
219.16	4371.7	
219.38	4894	
219.59	2579.8	
219.8	2999.6	
220.01	5148.6	
220.23	4376.5	
220.44	3183.2	
220.65	2497.2	
220.87	4427	
221.08	4747.2	
221.29	2499.9	
221.5	3027.6	
221.72	5399.1	
221.93	4161.5	
222.14	2925.9	
222.35	3285.6	
222.57	4296.6	
222.78	4635.2	
222.99	2809.8	
223.2	2905.4	
223.42	4522.6	
223.63	4545.1	
223.84	2242.5	
224.05	2279.4	
224.27	5081	
224.48	4782.7	
224.69	3289	
224.9	2851.5	
225.12	4467.3	
225.33	4316.4	
225.54	2416.6	
225.75	2602.3	
225.97	4135.5	
226.18	4317.1	
226.39	2726.5	
226.6	2603	
226.82	4237.2	
227.03	4032.5	
227.24	2830.3	
227.45	2452.8	
227.67	4646.8	
227.88	4797.7	
228.09	3136.1	
228.3	3110.2	
228.52	4543.1	
228.73	4326.7	
228.94	2690.3	
229.15	2449.4	
229.36	4354	
229.58	4340.3	
229.79	2732.7	
230	3034.4	
230.21	5026.4	
230.43	4365.6	
230.64	2816	
230.85	2934.7	
231.06	4664.6	
231.28	4640	
231.49	2467.8	
231.7	2820.1	
231.91	4595.6	
232.12	4314.4	
232.34	2568.2	
232.55	2731.3	
232.76	4685.8	
232.97	4401.1	
233.18	2609.1	
233.4	2835.1	
233.61	4407.2	
233.82	4203.8	
234.03	2723.8	
234.25	2649.4	
234.46	5534.3	
234.67	4397	
234.88	2923.8	
235.09	2633	
235.31	4388.1	
235.52	4214.7	
235.73	2793.4	
235.94	2519	
236.15	4169	
236.37	4992.9	
236.58	2578.4	
236.79	2693.1	
237	4498.7	
237.21	4044.1	
237.43	2899.2	
237.64	2437.8	
237.85	6655.2	
238.06	4119.1	
238.27	2899.2	
238.48	2482.8	
238.7	4598.4	
238.91	4306.2	
239.12	2674.6	
239.33	2869.2	
239.54	4229.1	
239.76	4269.3	
239.97	2782.5	
240.18	2733.4	
240.39	5033.2	
240.6	4406.5	
240.82	2936.8	
241.03	2472.6	
241.24	4287.8	
241.45	4801.1	
241.66	2554.5	
241.87	2989.4	
242.09	4801.8	
242.3	4967	
242.51	3000.3	
242.72	2734	
242.93	4559.5	
243.14	4319.8	
243.36	3079.5	
243.57	3257	
243.78	4840	
243.99	4474.1	
244.2	2723.8	
244.41	2550.4	
244.63	4049.5	
244.84	4432.5	
245.05	2912.2	
245.26	2691.7	
245.47	4553.3	
245.68	4573.1	
245.9	3416	
246.11	2879.4	
246.32	4216.1	
246.53	4448.2	
246.74	4140.3	
246.95	2418.7	
247.16	4182.6	
247.38	4323.9	
247.59	2486.2	
247.8	2808.4	
248.01	4065.9	
248.22	4337.6	
248.43	2558.6	
248.64	2732.7	
248.86	4041.3	
249.07	4217.5	
249.28	2581.1	
249.49	2844.6	
249.7	4642.1	
249.91	4676.9	
250.12	2443.2	
250.34	2458.2	
250.55	4417.5	
250.76	4390.2	
250.97	2844.6	
251.18	2827.6	
251.39	4678.9	
251.6	4444.1	
251.81	2867.8	
252.03	2835.8	
252.24	4214	
252.45	4553.3	
252.66	2499.9	
252.87	2934.7	
253.08	4351.3	
253.29	5344.5	
253.5	2539.5	
253.72	3217.4	
253.93	4335.5	
254.14	4949.9	
254.35	2665.8	
254.56	2713.6	
254.77	4500.8	
254.98	4070	
255.19	2674	
255.41	3181.2	
255.62	4491.2	
255.83	4713.7	
256.04	2975	
256.25	2791.4	
256.46	5068	
256.67	4149.2	
256.88	2816.6	
257.09	3059	
257.31	4007.9	
257.52	4120.5	
257.73	3465.8	
257.94	2668.5	
258.15	4336.9	
258.36	4301.4	
258.57	3142.9	
258.78	2244.6	
258.99	4651.6	
259.2	4209.3	
259.41	2650.8	
259.63	2760.7	
259.84	4827.1	
260.05	4980.7	
260.26	3227.6	
260.47	2598.2	
260.68	4696	
260.89	4248.2	
261.1	3098.6	
261.31	2525.1	
261.52	4797.7	
261.73	4839.4	
261.95	3294.5	
262.16	2936.1	
262.37	4700.8	
262.58	4766.3	
262.79	3261	
263	2629.6	
263.21	4388.8	
263.42	4166.3	
263.63	2871.9	
263.84	2716.3	
264.05	4612	
264.26	4840.7	
264.47	3151.8	
264.69	2897.2	
264.9	4848.2	
265.11	4413.4	
265.32	2597.5	
265.53	2616.6	
265.74	4425.7	
265.95	3992.9	
266.16	2772.9	
266.37	2971.6	
266.58	4455.7	
266.79	4182.6	
267	2688.3	
267.21	2471.2	
267.42	4021.5	
267.63	4393.6	
267.84	2734.7	
268.06	2465.8	
268.27	4668	
268.48	4642.7	
268.69	2691	
268.9	3059	
269.11	4700.8	
269.32	3965.6	
269.53	2742.2	
269.74	2615.3	
269.95	4429.1	
270.16	3958.7	
270.37	2761.3	
270.58	3108.8	
270.79	4205.2	
271	4648.2	
271.21	2843.3	
271.42	2813.9	
271.63	4496.7	
271.84	4029	
272.05	2371.5	
272.26	2554.5	
272.47	4352.6	
272.68	4443.4	
272.89	2733.4	
273.11	2946.3	
273.32	4198.3	
273.53	4831.8	
273.74	2945.7	
273.95	2928.6	
274.16	4521.9	
274.37	4373.8	
274.58	3007.1	
274.79	2468.5	
275	4487.8	
275.21	4623.6	
275.42	3504.1	
275.63	3001.6	
275.84	4530.8	
276.05	5339.7	
276.26	2872.6	
276.47	2691	
276.68	4349.9	
276.89	4981.3	
277.1	2980.5	
277.31	2443.2	
277.52	4451.6	
277.73	4760.2	
277.94	2465.1	
278.15	2665.8	
278.36	4477.5	
278.57	4163.5	
278.78	2727.2	
278.99	2921.1	
279.2	4192.9	
279.41	4133.5	
279.62	3405.8	
279.83	2497.2	
280.04	5086.5	
280.25	4087.1	
280.46	3311.6	
280.67	2775.7	
280.88	4190.8	
281.09	4749.9	
281.3	2845.3	
281.51	3432.4	
281.72	4169	
281.93	4544.4	
282.14	2639.8	
282.35	2855.6	
282.56	4702.1	
282.77	4576.5	
282.98	2750.4	
283.19	3158	
283.4	5442.8	
283.61	4324.6	
283.82	2535.4	
284.03	3257.6	
284.24	4498.7	
284.45	4636.6	
284.66	3338.2	
284.87	3135.4	
285.08	4683	
285.29	4752	
285.5	2436.4	
285.71	2680.8	
285.92	4631.8	
286.12	5068.7	
286.33	3330	
286.54	2747.7	
286.75	4617.5	
286.96	4289.8	
287.17	2560.6	
287.38	3171.6	
287.59	4246.1	
287.8	4225	
288.01	2751.1	
288.22	3000.3	
288.43	4475.5	
288.64	3921.2	
288.85	3185.3	
289.06	3016.7	
289.27	4604.5	
289.48	4848.2	
289.69	3303.4	
289.9	3059	
290.11	4767	
290.32	4230.4	
290.53	3102	
290.74	2877.4	
290.94	4567	
291.15	4626.4	
291.36	2618.7	
291.57	3000.3	
291.78	4297.3	
291.99	3929.4	
292.2	2562.7	
292.41	2949.8	
292.62	4618.9	
292.83	4510.3	
293.04	3531.4	
293.25	2652.1	
293.46	4270.7	
293.67	4668.7	
293.88	2572.9	
294.09	2555.9	
294.29	4117.8	
294.5	4423.6	
294.71	2758.6	
294.92	2691.7	
295.13	4235.2	
295.34	5029.8	
295.55	2428.2	
295.76	2441.9	
295.97	4555.4	
296.18	4985.4	
296.39	2489.6	
296.6	2593.4	
296.81	4373.1	
297.01	4605.2	
297.22	2726.5	
297.43	2647.3	
297.64	4267.3	
297.85	4035.9	
298.06	2299.9	
298.27	2405	
298.48	4332.1	
298.69	4136.9	
298.9	2810.5	
299.11	2609.1	
299.31	4113.7	
299.52	4083.6	
299.73	2996.2	
299.94	2908.8	
300.15	4367.6	
300.36	4190.1	
300.57	2888.3	
300.78	2906.8	
300.99	4253.6	
301.2	4402.5	
301.4	2650.8	
301.61	2778.4	
301.82	4458.4	
302.03	4640.7	
302.24	3076.7	
302.45	2531.3	
302.66	4536.3	
302.87	4646.8	
303.08	2693.1	
303.29	3340.2	
303.49	4256.4	
303.7	4246.1	
303.91	2420	
304.12	3222.1	
304.33	3986	
304.54	4433.9	
304.75	2643.9	
304.96	2621.4	
305.16	4597.7	
305.37	4924.7	
305.58	2410.5	
305.79	2408.4	
306	4543.8	
306.21	3987.4	
306.42	2615.3	
306.63	3705.5	
306.83	4198.3	
307.04	4568.3	
307.25	2818	
307.46	2807.1	
307.67	3988.8	
307.88	4497.3	
308.09	2658.3	
308.29	2609.1	
308.5	4369	
308.71	4679.6	
308.92	2793.4	
309.13	2560	
309.34	4424.3	
309.55	4272.1	
309.75	3153.9	
309.96	2940.2	
310.17	4633.2	
310.38	4172.4	
310.59	2985.9	
310.8	2817.3	
311.01	4973.2	
311.21	4321.2	
311.42	2614.6	
311.63	2616.6	
311.84	4204.5	
312.05	4341	
312.26	2923.1	
312.46	3065.1	
312.67	4268	
312.88	4049.5	
313.09	2514.9	
313.3	2503.3	
313.51	4801.8	
313.71	5041.4	
313.92	2560	
314.13	2644.6	
314.34	4500.1	
314.55	4402.5	
314.76	3130.7	
314.96	2735.4	
315.17	4489.1	
315.38	4517.8	
315.59	2598.2	
315.8	2501.9	
316.01	4825.7	
316.21	4918.5	
316.42	2544.9	
316.63	2759.3	
316.84	4276.8	
317.05	4689.8	
317.26	2967.5	
317.46	2654.2	
317.67	4358.8	
317.88	4609.3	
318.09	3099.3	
318.3	2453.5	
318.5	4231.1	
318.71	4441.4	
318.92	3756	
319.13	2930.6	
319.34	4677.6	
319.54	4776.5	
319.75	2415.2	
319.96	2350.4	
320.17	4502.8	
320.38	4672.8	
320.58	2401.6	
320.79	2747.7	
321	4694.6	
321.21	4747.9	
321.42	2814.6	
321.62	2394.8	
321.83	4214.7	
322.04	4384.7	
322.25	2725.2	
322.46	2586.6	
322.66	4438.6	
322.87	4579.9	
323.08	3046	
323.29	2473.3	
323.5	4993.6	
323.7	3984	
323.91	3244	
324.12	2945.7	
324.33	4487.8	
324.53	4530.1	
324.74	2904.7	
324.95	3001	
325.16	4064.5	
325.37	4278.2	
325.57	2572.2	
325.78	2586.6	
325.99	4515.8	
326.2	3996.3	
326.4	3345.7	
326.61	2428.9	
326.82	4321.9	
327.03	4415.4	
327.24	3409.9	
327.44	3170.3	
327.65	4531.5	
327.86	3827	
328.07	2927.2	
328.27	2545.6	
328.48	4814.1	
328.69	4079.6	
328.9	3429.7	
329.1	2626.9	
329.31	4289.1	
329.52	4746.5	
329.73	2630.3	
329.93	2790	
330.14	4450.2	
330.35	4445.5	
330.56	3815.4	
330.76	3010.5	
330.97	4250.9	
331.18	4397.7	
331.39	2798.2	
331.59	2348.3	
331.8	4744.5	
332.01	4699.4	
332.22	2690.3	
332.42	2861	
332.63	4421.6	
332.84	4061.1	
333.05	2806.4	
333.25	2645.3	
333.46	4158.1	
333.67	4311	
333.88	2711.5	
334.08	2822.1	
334.29	5492	
334.5	4645.5	
334.7	2535.4	
334.91	3362.8	
335.12	4012.7	
335.33	4555.4	
335.53	2814.6	
335.74	3747.1	
335.95	4270.7	
336.16	4038.6	
336.36	2742.9	
336.57	3110.2	
336.78	4047.5	
336.98	4642.7	
337.19	3300	
337.4	2704	
337.61	5042.1	
337.81	4035.9	
338.02	2673.3	
338.23	3167.5	
338.43	4814.1	
338.64	4150.6	
338.85	2605.7	
339.05	3252.2	
339.26	4902.8	
339.47	3981.3	
339.68	2581.1	
339.88	3459.7	
340.09	4536.3	
340.3	4581.3	
340.5	2866.5	
340.71	2374.3	
340.92	4091.8	
341.13	4734.2	
341.33	2463	
341.54	2901.3	
341.75	4483	
341.95	4216.8	
342.16	2854.2	
342.37	3013.9	
342.57	4091.2	
342.78	4252.3	
342.99	3066.5	
343.19	2414.6	
343.4	4608.6	
343.61	4457.1	
343.81	2699.9	
344.02	2506.7	
344.23	4585.4	
344.43	4710.3	
344.64	3056.9	
344.85	2979.8	
345.06	4504.2	
345.26	4705.5	
345.47	2934.7	
345.68	3272.7	
345.88	3986	
346.09	4616.1	
346.3	2945.7	
346.5	2326.5	
346.71	4286.4	
346.92	4191.5	
347.12	2467.1	
347.33	2871.3	
347.54	4596.3	
347.74	4789.5	
347.95	2872.6	
348.16	2312.8	
348.36	4231.8	
348.57	4027.7	
348.78	2960.7	
348.98	2991.4	
349.19	4317.8	
349.39	3953.3	
349.6	2406.4	
349.81	2626.9	
350.01	4502.1	
350.22	4169	
350.43	2854.2	
350.63	3209.8	
350.84	4296	
351.05	4108.9	
351.25	2545.6	
351.46	2405.7	
351.67	4605.9	
351.87	4079.6	
352.08	2757.9	
352.29	2942.2	
352.49	4579.9	
352.7	4386.7	
352.9	2542.9	
353.11	2962	
353.32	4932.9	
353.52	4155.3	
353.73	2532.7	
353.94	3025.5	
354.14	4498.7	
354.35	4272.1	
354.55	2590.7	
354.76	2764.1	
354.97	4511	
355.17	4257	
355.38	2525.1	
355.59	3177.1	
355.79	4126	
356	4229.7	
356.2	2760	
356.41	2550.4	
356.62	4018.1	
356.82	4260.5	
357.03	2952.5	
357.24	2653.5	
357.44	4098	
357.65	4194.9	
357.85	3422.8	
358.06	2867.8	
358.27	3926	
358.47	4021.5	
358.68	2452.1	
358.88	2882.9	
359.09	4437.9	
359.3	4480.3	
359.5	3283.6	
359.71	3010.5	
359.91	4828.4	
360.12	4375.1	
360.33	2923.8	
360.53	3161.4	
360.74	4119.8	
360.94	4167.6	
361.15	3056.3	
361.36	2585.9	
361.56	4555.4	
361.77	4233.2	
361.97	3293.8	
362.18	2704	
362.38	4576.5	
362.59	4018.1	
362.8	2584.5	
363	2488.3	
363.21	3959.4	
363.41	4256.4	
363.62	2816	
363.83	3385.3	
364.03	4481	
364.24	4820.9	
364.44	3513.6	
364.65	3450.8	
364.85	4217.5	
365.06	4047.5	
365.27	2650.8	
365.47	2727.2	
365.68	4780.6	
365.88	4250.2	
366.09	2839.8	
366.29	2720.4	
366.5	4300.7	
366.71	4562.2	
366.91	3416.7	
367.12	3009.8	
367.32	4905.6	
367.53	4446.1	
367.73	2995.5	
367.94	3550.5	
368.14	4506.9	
368.35	4850.3	
368.56	2915.6	
368.76	2583.2	
368.97	4586.8	
369.17	5438.7	
369.38	2708.1	
369.58	2868.5	
369.79	3930.7	
369.99	4799.8	
370.2	3403.7	
370.4	2850.8	
370.61	4381.3	
370.82	5122.7	
371.02	2871.3	
371.23	2469.2	
371.43	3993.5	
371.64	4801.8	
371.84	2858.3	
372.05	3431	
372.25	5288.5	
372.46	4346.5	
372.66	2798.2	
372.87	2849.4	
373.07	4448.9	
373.28	5425.8	
373.48	3330	
373.69	3147	
373.9	4271.4	
374.1	4242	
374.31	3349.8	
374.51	2970.9	
374.72	4648.2	
374.92	4077.5	
375.13	3383.9	
375.33	2947	
375.54	4345.8	
375.74	4126	
375.95	3082.2	
376.15	3688.4	
376.36	4526	
376.56	4377.9	
376.77	2964.8	
376.97	3229.6	
377.18	5059.2	
377.38	4498	
377.59	3343.7	
377.79	2767.5	
378	4345.8	
378.2	4524.6	
378.41	2753.8	
378.61	2725.8	
378.82	4672.8	
379.02	4173.8	
379.23	2795.5	
379.43	3407.1	
379.64	4790.2	
379.84	4446.1	
380.05	2798.9	
380.25	2687.6	
380.46	4480.3	
380.66	4250.2	
380.87	3501.3	
381.07	3697.3	
381.28	4886.5	
381.48	4503.5	
381.69	2719	
381.89	2822.1	
382.1	4001.7	
382.3	4564.9	
382.51	3354.6	
382.71	3830.4	
382.91	4425	
383.12	4805.2	
383.32	2957.3	
383.53	3121.8	
383.73	4399	
383.94	4334.2	
384.14	3036.5	
384.35	2590.7	
384.55	4146.5	
384.76	4489.8	
384.96	3015.3	
385.17	3192.1	
385.37	4488.5	
385.58	4061.8	
385.78	3123.2	
385.98	2612.5	
386.19	4247.5	
386.39	4487.8	
386.6	2845.3	
386.8	2953.9	
387.01	4545.8	
387.21	4548.5	
387.42	3175	
387.62	3491.1	
387.83	4270	
388.03	4289.8	
388.23	3028.3	
388.44	3420.1	
388.64	4031.1	
388.85	4041.3	
389.05	3130	
389.26	3541.6	
389.46	5228.5	
389.67	4832.5	
389.87	3158.7	
390.07	3177.1	
390.28	4280.9	
390.48	4042.7	
390.69	2707.4	
390.89	2878.1	
391.1	4259.8	
391.3	4700.8	
391.5	3566.2	
391.71	3857.7	
391.91	4633.9	
392.12	4976.6	
392.32	3639.2	
392.53	3190.7	
392.73	4276.8	
392.93	4356	
393.14	3028.9	
393.34	3429	
393.55	4652.3	
393.75	4265.2	
393.95	3054.2	
394.16	2960.7	
394.36	4253.6	
394.57	4619.5	
394.77	2781.1	
394.98	2928.6	
395.18	4185.4	
395.38	4181.3	
395.59	3435.8	
395.79	2835.1	
396	4310.3	
396.2	4510.3	
396.4	3337.5	
396.61	3263.1	
396.81	4508.9	
397.02	4174.4	
397.22	3452.2	
397.42	3402.4	
397.63	4615.4	
397.83	4188.1	
398.04	2811.9	
398.24	3095.8	
398.44	4475.5	
398.65	3910.9	
398.85	2751.8	
399.05	2746.3	
399.26	4220.9	
399.46	5090.6	
399.67	3028.9	
399.87	2845.3	
400.07	4429.1	
400.28	4504.8	
400.48	2898.6	
400.69	3446.7	
400.89	4838.7	
401.09	4922	
401.3	2853.5	
401.5	3438.5	
401.7	4903.5	
401.91	5101.5	
402.11	3110.2	
402.32	3145	
402.52	4729.4	
402.72	4614.1	
402.93	3295.2	
403.13	2623.4	
403.33	5144.5	
403.54	4405.9	
403.74	3136.8	
403.94	3612.6	
404.15	4461.2	
404.35	5160.9	
404.56	3053.5	
404.76	3945.8	
404.96	4693.3	
405.17	4492.6	
405.37	3768.9	
405.57	3264.5	
405.78	4715.1	
405.98	4347.8	
406.18	3022.1	
406.39	3392.1	
406.59	4691.9	
406.79	4391.5	
407	2965.5	
407.2	2923.1	
407.4	4936.3	
407.61	4815.5	
407.81	2913.6	
408.01	4074.1	
408.22	4031.1	
408.42	5053	
408.62	3496.6	
408.83	3237.2	
409.03	4499.4	
409.23	4305.5	
409.44	3191.4	
409.64	3351.8	
409.84	4903.5	
410.05	4881	
410.25	3367.5	
410.45	3209.2	
410.66	4614.8	
410.86	5978.7	
411.06	3428.3	
411.27	3349.1	
411.47	5767.1	
411.67	4673.5	
411.88	3442.6	
412.08	3536.8	
412.28	5003.9	
412.49	5328.1	
412.69	3340.2	
412.89	3347.1	
413.09	5211.4	
413.3	5147.2	
413.5	3451.5	
413.7	3193.5	
413.91	4684.4	
414.11	5231.9	
414.31	3265.8	
414.52	3528.7	
414.72	5077.6	
414.92	4913.8	
415.12	3297.2	
415.33	3584.6	
415.53	5118.6	
415.73	5283.1	
415.94	3760.1	
416.14	3395.5	
416.34	4669.4	
416.55	4450.2	
416.75	4124.6	
416.95	3751.2	
417.15	5240.8	
417.36	5560.2	
417.56	4291.9	
417.76	3686.3	
417.97	5304.2	
418.17	5108.3	
418.37	3564.8	
418.57	3553.9	
418.78	5132.2	
418.98	4937	
419.18	4061.8	
419.38	3991.5	
419.59	4914.4	
419.79	4737.6	
419.99	3461.7	
420.2	3610.6	
420.4	5261.2	
420.6	5250.3	
420.8	3365.5	
421.01	3311.6	
421.21	5165	
421.41	5160.9	
421.61	3543.7	
421.82	3474	
422.02	4897.4	
422.22	5442.8	
422.42	3868.6	
422.63	3699.3	
422.83	4885.8	
423.03	5661.3	
423.23	3743	
423.44	3141.6	
423.64	4923.3	
423.84	4712.4	
424.04	3524.6	
424.25	3252.9	
424.45	5454.4	
424.65	5466.7	
424.85	3151.1	
425.06	3472	
425.26	5665.4	
425.46	4903.5	
425.66	3733.4	
425.87	3570.3	
426.07	5244.2	
426.27	5200.5	
426.47	3603.7	
426.67	3232.4	
426.88	5596.4	
427.08	5228.5	
427.28	3827.7	
427.48	3251.5	
427.69	4686.4	
427.89	4943.8	
428.09	3684.3	
428.29	3287.7	
428.5	5267.4	
428.7	5119.9	
428.9	3222.8	
429.1	3500.7	
429.3	5091.3	
429.51	5217.5	
429.71	3444	
429.91	3838.6	
430.11	5298.1	
430.31	5601.9	
430.52	3592.1	
430.72	3700	
430.92	5527.5	
431.12	5225.1	
431.32	3388.7	
431.53	3682.2	
431.73	4647.5	
431.93	5535.7	
432.13	3349.8	
432.33	3295.2	
432.54	4945.8	
432.74	5049.6	
432.94	3256.3	
433.14	3842.7	
433.34	5378	
433.55	5023	
433.75	3768.3	
433.95	4746.5	
434.15	5126.1	
434.35	4873.5	
434.56	3418.7	
434.76	3123.2	
434.96	5029.1	
435.16	5217.5	
435.36	3364.1	
435.56	3938.2	
435.77	4941.1	
435.97	4995	
436.17	4275.5	
436.37	3811.3	
436.57	4925.4	
436.78	4810	
436.98	4939	
437.18	4258.4	
437.38	5160.9	
437.58	4919.9	
437.78	4261.1	
437.99	3564.8	
438.19	5343.2	
438.39	5797.1	
438.59	3568.9	
438.79	3272	
438.99	5737.7	
439.2	4953.4	
439.4	3288.4	
439.6	3211.9	
439.8	4995	
440	5702.2	
440.2	3807.2	
440.4	3900	
440.61	5444.2	
440.81	5629.2	
441.01	3381.9	
441.21	3857	
441.41	5663.3	
441.61	5430.5	
441.81	4128	
442.02	4592.9	
442.22	5933	
442.42	5543.2	
442.62	3482.9	
442.82	3562.1	
443.02	5803.9	
443.22	5205.3	
443.43	3678.8	
443.63	3425.6	
443.83	5073.5	
444.03	5027.1	
444.23	4080.9	
444.43	3938.2	
444.63	5303.6	
444.83	5885.2	
445.04	3607.2	
445.24	4250.2	
445.44	5588.9	
445.64	5520	
445.84	4037.2	
446.04	4086.4	
446.24	5107.6	
446.44	5699.5	
446.65	3536.2	
446.85	3747.1	
447.05	5337.7	
447.25	5652.4	
447.45	3838.6	
447.65	3450.8	
447.85	5384.1	
448.05	5072.1	
448.25	3988.8	
448.46	3906.8	
448.66	5391.6	
448.86	5126.7	
449.06	3439.2	
449.26	4007.2	
449.46	5502.9	
449.66	4977.9	
449.86	3751.9	
450.06	3743	
450.26	5076.2	
450.47	5475.6	
450.67	3984.7	
450.87	4108.9	
451.07	5738.4	
451.27	5323.4	
451.47	3551.9	
451.67	4091.8	
451.87	5184.8	
452.07	5898.8	
452.27	3658.4	
452.47	3661.1	
452.67	5359.5	
452.88	5554.1	
453.08	3345.7	
453.28	4428.4	
453.48	6075.6	
453.68	5309.7	
453.88	3644	
454.08	3722.5	
454.28	5590.3	
454.48	5361.6	
454.68	4063.9	
454.88	4305.5	
455.08	5729.5	
455.28	5444.9	
455.48	3583.3	
455.68	3987.4	
455.89	6011.5	
456.09	5675.6	
456.29	3785.3	
456.49	3837.9	
456.69	5873.6	
456.89	5317.9	
457.09	4039.3	
457.29	4362.9	
457.49	5601.2	
457.69	5638.7	
457.89	4045.4	
458.09	3666.5	
458.29	5458.5	
458.49	5917.9	
458.69	4222.9	
458.89	3904.1	
459.09	5957.5	
459.29	6137.8	
459.49	3921.2	
459.69	4453	
459.9	5773.2	
460.1	5495.4	
460.3	3921.9	
460.5	3825.6	
460.7	5772.5	
460.9	5360.2	
461.1	3609.9	
461.3	4292.5	
461.5	6158.2	
461.7	5863.3	
461.9	3887.7	
462.1	4125.3	
462.3	5673.6	
462.5	5950	
462.7	3932.1	
462.9	3920.5	
463.1	6569.2	
463.3	6256.5	
463.5	4131.4	
463.7	4602.5	
463.9	5816.9	
464.1	5948.7	
464.3	4131.4	
464.5	4356.7	
464.7	6049.7	
464.9	5887.2	
465.1	5043.5	
465.3	4513	
465.5	6312.5	
465.7	6363.7	
465.9	4637.3	
466.1	4492.6	
466.3	6122.1	
466.5	6109.1	
466.7	5034.6	
466.9	4452.3	
467.1	6228.6	
467.3	6650.4	
467.5	5038.7	
467.7	4329.4	
467.9	6839.5	
468.1	7176.1	
468.3	4825	
468.5	5036.6	
468.7	6028.5	
468.9	6055.2	
469.1	4616.1	
469.3	4969.7	
469.5	7215	
469.7	5868.8	
469.9	4896	
470.1	4399.7	
470.3	6222.4	
470.5	6225.8	
470.7	5208.7	
470.9	4532.2	
471.1	6023.8	
471.3	6333	
471.5	4468.7	
471.69	5406.6	
471.89	6073.6	
472.09	5603.9	
472.29	4803.2	
472.49	5081.7	
472.69	5862.7	
472.89	6211.5	
473.09	4315.8	
473.29	4498.7	
473.49	6036	
473.69	5948.7	
473.89	4993.6	
474.09	4484.4	
474.29	6810.9	
474.49	6516.6	
474.69	4944.5	
474.89	4613.4	
475.09	6057.2	
475.29	5995.8	
475.49	4328.7	
475.69	4443.4	
475.88	6966.5	
476.08	6303	
476.28	4265.9	
476.48	4461.2	
476.68	6548	
476.88	6332.3	
477.08	4607.9	
477.28	4590.2	
477.48	6184.9	
477.68	6371.2	
477.88	4358.8	
478.08	4445.5	
478.28	6673.6	
478.48	6114.6	
478.67	4585.4	
478.87	4214.7	
479.07	6457.9	
479.27	6197.8	
479.47	4679.6	
479.67	4689.2	
479.87	6456.6	
480.07	6683.9	
480.27	4289.1	
480.47	5120.6	
480.67	6152.8	
480.87	6690	
481.06	4476.2	
481.26	4945.2	
481.46	6300.2	
481.66	6179.4	
481.86	4771.8	
482.06	5208.7	
482.26	6074.3	
482.46	6534.4	
482.66	4739	
482.86	4461.2	
483.05	6431.3	
483.25	5902.9	
483.45	6124.1	
483.65	4685.1	
483.85	6005.3	
484.05	6193.1	
484.25	4958.1	
484.45	5195	
484.65	6534.4	
484.84	6692.1	
485.04	4665.3	
485.24	4729.4	
485.44	7006.1	
485.64	6006	
485.84	4326	
486.04	5017.5	
486.24	6189.6	
486.44	6286.6	
486.63	4265.9	
486.83	4803.2	
487.03	6195.1	
487.23	6298.9	
487.43	4336.9	
487.63	5659.9	
487.83	6334.4	
488.02	6548.7	
488.22	4902.2	
488.42	5301.5	
488.62	6797.2	
488.82	6093.4	
489.02	4773.8	
489.22	4745.1	
489.41	6628.6	
489.61	6595.1	
489.81	4490.5	
490.01	4595.6	
490.21	6780.1	
490.41	7170.6	
490.61	4658.4	
490.8	4655.7	
491	6419.7	
491.2	6136.4	
491.4	5085.8	
491.6	4524.6	
491.8	6589.7	
491.99	6489.3	
492.19	4470.7	
492.39	4635.2	
492.59	6698.9	
492.79	6713.9	
492.99	5109	
493.18	4557.4	
493.38	6862.1	
493.58	7185.6	
493.78	5014.8	
493.98	4787.5	
494.18	6626.5	
494.37	6240.2	
494.57	5193	
494.77	5040.7	
494.97	6788.3	
495.17	6959	
495.37	4919.9	
495.56	5089.9	
495.76	6963.8	
495.96	6920.1	
496.16	5707.7	
496.36	5055.1	
496.55	7002.7	
496.75	6709.1	
496.95	5246.9	
497.15	5224.4	
497.35	7092.8	
497.54	6931.7	
497.74	5144.5	
497.94	6114.6	
498.14	7394.5	
498.34	7249.1	
498.53	4913.1	
498.73	5333.6	
498.93	6524.8	
499.13	6923.5	
499.33	5313.1	
499.52	5552.7	
499.72	7163.1	
499.92	7109.9	
500.12	5146.5	
500.32	5262.6	
500.51	7121.5	
500.71	6950.1	
500.91	5786.9	
501.11	5531.6	
501.31	7141.9	
501.5	7469.6	
501.7	5961	
501.9	5327.4	
502.1	7081.2	
502.29	7265.5	
502.49	5586.2	
502.69	5845.6	
502.89	7146.7	
503.09	7202.7	
503.28	5126.1	
503.48	5138.4	
503.68	6796.5	
503.88	6784.2	
504.07	5651.7	
504.27	5347.2	
504.47	7004.1	
504.67	7005.4	
504.86	5585.5	
505.06	5442.8	
505.26	6861.4	
505.46	7796.6	
505.65	5286.5	
505.85	5522	
506.05	6827.2	
506.25	7099.6	
506.44	4997.7	
506.64	5510.4	
506.84	6679.1	
507.04	7134.4	
507.23	5091.9	
507.43	5386.8	
507.63	7653.9	
507.83	6726.2	
508.02	5392.3	
508.22	5132.2	
508.42	7937.9	
508.62	6652.5	
508.81	5524.1	
509.01	5706.3	
509.21	6703	
509.4	6852.5	
509.6	5505.6	
509.8	5091.9	
510	6832.7	
510.19	7422.5	
510.39	5013.4	
510.59	5134.9	
510.79	6689.3	
510.98	7408.9	
511.18	5273.5	
511.38	5162.9	
511.57	7336.5	
511.77	7001.3	
511.97	5696.1	
512.17	5173.9	
512.36	7314.7	
512.56	7086	
512.76	5102.9	
512.95	4943.8	
513.15	7382.2	
513.35	6371.9	
513.55	5582.8	
513.74	5120.6	
513.94	7265.5	
514.14	6778.8	
514.33	5636.7	
514.53	5489.9	
514.73	6884.6	
514.92	6990.4	
515.12	5173.2	
515.32	5057.1	
515.51	7012.2	
515.71	7087.3	
515.91	6031.3	
516.11	5163.6	
516.3	7894.2	
516.5	6812.9	
516.7	5486.5	
516.89	5815.5	
517.09	6865.5	
517.29	6852.5	
517.48	5767.8	
517.68	5324	
517.88	6548	
518.07	7126.2	
518.27	5634.6	
518.47	5087.2	
518.66	7443	
518.86	6602.7	
519.06	4966.3	
519.25	5233.2	
519.45	6802	
519.65	7567.9	
519.84	5603.2	
520.04	6020.3	
520.24	8015.1	
520.43	7165.8	
520.63	5589.6	
520.83	5408	
521.02	6802	
521.22	7148.8	
521.42	5626.5	
521.61	5928.2	
521.81	6848.4	
522.01	7063.4	
522.2	5527.5	
522.4	5349.3	
522.6	7243.7	
522.79	6398.5	
522.99	5453.1	
523.18	5049.6	
523.38	7112.6	
523.58	7035.5	
523.77	6098.2	
523.97	5068	
524.17	8156.4	
524.36	7636.2	
524.56	5928.9	
524.76	5698.1	
524.95	7144	
525.15	6909.8	
525.34	5581.4	
525.54	5612.1	
525.74	7437.5	
525.93	6752.2	
526.13	6287.3	
526.33	5601.9	
526.52	7686.7	
526.72	7299	
526.91	6303	
527.11	5890	
527.31	7625.3	
527.5	7822.6	
527.7	5909.8	
527.89	5287.9	
528.09	6984.3	
528.29	7378.1	
528.48	6090	
528.68	5865.4	
528.87	7656	
529.07	7601.4	
529.27	5911.8	
529.46	5647.6	
529.66	7549.5	
529.85	7707.9	
530.05	5644.2	
530.25	5969.1	
530.44	8286.8	
530.64	7408.2	
530.83	5776	
531.03	5926.1	
531.23	7754.3	
531.42	7497.6	
531.62	6291.4	
531.81	5791.7	
532.01	7793.9	
532.21	7862.2	
532.4	5785.5	
532.6	5971.2	
532.79	8143.4	
532.99	7815.7	
533.18	6074.3	
533.38	6630	
533.58	7643.7	
533.77	7988.4	
533.97	6001.9	
534.16	6561	
534.36	8228.7	
534.55	7555.6	
534.75	6630.6	
534.95	6140.5	
535.14	8112.7	
535.34	7507.2	
535.53	5903.6	
535.73	7004.7	
535.92	8447.2	
536.12	7672.4	
536.31	6016.9	
536.51	6617	
536.71	7974.8	
536.9	7585	
537.1	6056.5	
537.29	6178.7	
537.49	8163.2	
537.68	7549.5	
537.88	6319.3	
538.07	5795.1	
538.27	7781.6	
538.46	8325	
538.66	5847	
538.86	6134.3	
539.05	7780.9	
539.25	8002.8	
539.44	6438.8	
539.64	6105	
539.83	7777.5	
540.03	8255.4	
540.22	6055.8	
540.42	6059.9	
540.61	7931.1	
540.81	7915.4	
541	6325.5	
541.2	6709.1	
541.39	7557	
541.59	7665.5	
541.78	6511.2	
541.98	6005.3	
542.18	7386.3	
542.37	7384.3	
542.57	6189.6	
542.76	6488	
542.96	7503.8	
543.15	7722.2	
543.35	6307.1	
543.54	5916.6	
543.74	7642.3	
543.93	7642.3	
544.13	6177.4	
544.32	6705	
544.52	7883.3	
544.71	7470.3	
544.91	5602.6	
545.1	6226.5	
545.3	7441.6	
545.49	7729.7	
545.69	5543.9	
545.88	5946.6	
546.08	8370.7	
546.27	8084	
546.47	6269.5	
546.66	5811.5	
546.86	7847.8	
547.05	8196.7	
547.24	5968.5	
547.44	5857.9	
547.63	7400.7	
547.83	7956.4	
548.02	6084.5	
548.22	6201.2	
548.41	7187.7	
548.61	7904.5	
548.8	5786.9	
549	5814.2	
549.19	7692.2	
549.39	7727	
549.58	5622.4	
549.78	5964.4	
549.97	7807.5	
550.17	7467.6	
550.36	6526.2	
550.55	7002.7	
550.75	7508.5	
550.94	8064.2	
551.14	5734.3	
551.33	5894.7	
551.53	7064.1	
551.72	7663.5	
551.92	5945.9	
552.11	5862.7	
552.31	7797.3	
552.5	7666.2	
552.69	6878.4	
552.89	5633.3	
553.08	7704.5	
553.28	7415	
553.47	5881.8	
553.67	6544.6	
553.86	8056.7	
554.06	6967.9	
554.25	5495.4	
554.44	5681.1	
554.64	8474.5	
554.83	8171.4	
555.03	5714.5	
555.22	5920.7	
555.42	7911.3	
555.61	7639.6	
555.8	5859.9	
556	5946.6	
556.19	7096.2	
556.39	7680.6	
556.58	5885.2	
556.78	5896.8	
556.97	7587	
557.16	7361.1	
557.36	6531.7	
557.55	5602.6	
557.75	6966.5	
557.94	7984.3	
558.13	5709.1	
558.33	5487.2	
558.52	7907.9	
558.72	7032	
558.91	5606.7	
559.1	5753.4	
559.3	7074.4	
559.49	6863.4	
559.69	5572.5	
559.88	5926.1	
560.07	7468.3	
560.27	7804.1	
560.46	5981.4	
560.66	6191	
560.85	7422.5	
561.04	6928.3	
561.24	5579.3	
561.43	5662	
561.63	7044.3	
561.82	7329	
562.01	6314.6	
562.21	5862.7	
562.4	7385	
562.59	7973.4	
562.79	5743.9	
562.98	5555.5	
563.18	7387	
563.37	8136.6	
563.56	6002.6	
563.76	5600.5	
563.95	7043.6	
564.14	7091.4	
564.34	5882.4	
564.53	5594.4	
564.73	7555.6	
564.92	7575.4	
565.11	5938.4	
565.31	5546.6	
565.5	7772.7	
565.69	7076.4	
565.89	5771.9	
566.08	5791	
566.27	7668.3	
566.47	7948.8	
566.66	6298.9	
566.85	5546.6	
567.05	7556.3	
567.24	7252.5	
567.44	5650.3	
567.63	6393.8	
567.82	7696.9	
568.02	7385	
568.21	5679	
568.4	5855.8	
568.6	7438.2	
568.79	7305.8	
568.98	5673.6	
569.18	5591.6	
569.37	7426.6	
569.56	8490.2	
569.76	5850.4	
569.95	6404	
570.14	7656	
570.34	7517.4	
570.53	5698.1	
570.72	5692	
570.91	7980.3	
571.11	7490.1	
571.3	5990.3	
571.49	6464.8	
571.69	7473	
571.88	7088	
572.07	6154.1	
572.27	6131.6	
572.46	7133.8	
572.65	7722.2	
572.85	5738.4	
573.04	5952.8	
573.23	7912	
573.43	7503.1	
573.62	5665.4	
573.81	5995.1	
574	7643	
574.2	7340.6	
574.39	5913.2	
574.58	5959.6	
574.78	8069.7	
574.97	7567.9	
575.16	6273.6	
575.36	6294.8	
575.55	7940	
575.74	7990.5	
575.93	5651.7	
576.13	6331	
576.32	7486.7	
576.51	7829.4	
576.71	5991.7	
576.9	6744.6	
577.09	8140.7	
577.28	7752.2	
577.48	6225.1	
577.67	5617.6	
577.86	7636.9	
578.05	7683.3	
578.25	6077	
578.44	6124.1	
578.63	7569.3	
578.83	8316.1	
579.02	5737	
579.21	6640.2	
579.4	7757	
579.6	7619.8	
579.79	6095.4	
579.98	7310.6	
580.17	7925	
580.37	8010.3	
580.56	5978	
580.75	6173.3	
580.94	8073.1	
581.14	8261.5	
581.33	6554.9	
581.52	6010.8	
581.71	7862.8	
581.91	8264.9	
582.1	5842.9	
582.29	6034	
582.48	7701	
582.68	7679.9	
582.87	6389.7	
583.06	6187.6	
583.25	7979.6	
583.45	7506.5	
583.64	6687.3	
583.83	6976.7	
584.02	7825.3	
584.21	7922.2	
584.41	6535.1	
584.6	6201.9	
584.79	7787.7	
584.98	8046.5	
585.18	5882.4	
585.37	5946.6	
585.56	7642.3	
585.75	7944.1	
585.94	6000.5	
586.14	6433.4	
586.33	8303.1	
586.52	7648.5	
586.71	6384.2	
586.91	6111.8	
587.1	7372.7	
587.29	7950.9	
587.48	6118	
587.67	6023.8	
587.87	7849.2	
588.06	7728.4	
588.25	6737.8	
588.44	6274.3	
588.63	7656.7	
588.83	7940	
589.02	6193.7	
589.21	5974.6	
589.4	7611.6	
589.59	7512.6	
589.78	5537.7	
589.98	5714.5	
590.17	7180.9	
590.36	7533.1	
590.55	5190.9	
590.74	5779.4	
590.94	8119.5	
591.13	7367.9	
591.32	5457.8	
591.51	5309.7	
591.7	7424.6	
591.89	7161.7	
592.09	5361.6	
592.28	5557.5	
592.47	6707.1	
592.66	7912.7	
592.85	5412.1	
593.05	5468.1	
593.24	7231.4	
593.43	7823.9	
593.62	5578	
593.81	5822.4	
594	7287.4	
594.19	7374.1	
594.39	5501.5	
594.58	5399.8	
594.77	7424.6	
594.96	7685.3	
595.15	5487.2	
595.34	5832.6	
595.54	7241.6	
595.73	6851.8	
595.92	5039.4	
596.11	5681.7	
596.3	7658	
596.49	6980.2	
596.68	5582.8	
596.88	5808	
597.07	7369.3	
597.26	6808.8	
597.45	5283.8	
597.64	6004	
597.83	7010.9	
598.02	7336.5	
598.22	5407.3	
598.41	5720	
598.6	7227.3	
598.79	6859.3	
598.98	5416.2	
599.17	5853.8	
599.36	7245.7	
599.55	7845.1	
599.74	6492.7	
599.94	6361	
600.13	7529.7	
600.32	6839.5	
600.51	5214.8	
600.7	5300.1	
600.89	7905.2	
601.08	7916.8	
601.27	5139.7	
601.47	5659.2	
601.66	7466.2	
601.85	7785	
602.04	5615.5	
602.23	5663.3	
602.42	6939.9	
602.61	7259.4	
602.8	5461.2	
602.99	5356.8	
603.18	7204.1	
603.37	7233.4	
603.57	5733.6	
603.76	5966.4	
603.95	7629.4	
604.14	7214.3	
604.33	5489.2	
604.52	5527.5	
604.71	7223.2	
604.9	6907.8	
605.09	5857.2	
605.28	5766.4	
605.47	7559.7	
605.66	7204.1	
605.86	5765	
606.05	5372.5	
606.24	7599.3	
606.43	6662.7	
606.62	5599.8	
606.81	6015.6	
607	7470.3	
607.19	6959.7	
607.38	5229.8	
607.57	5325.4	
607.76	6873.7	
607.95	6496.8	
608.14	5695.4	
608.33	5967.8	
608.52	6891.4	
608.72	7398.6	
608.91	5205.9	
609.1	5152.7	
609.29	7030.7	
609.48	6685.3	
609.67	5663.3	
609.86	5096	
610.05	6795.8	
610.24	6898.9	
610.43	5170.4	
610.62	4882.4	
610.81	7606.2	
611	7431.4	
611.19	5240.1	
611.38	5593	
611.57	7139.2	
611.76	7665.5	
611.95	5050.3	
612.14	4961.5	
612.33	7015.7	
612.52	6680.5	
612.71	5352.7	
612.9	4856.4	
613.09	6543.9	
613.28	7914	
613.47	5272.2	
613.66	5736.4	
613.85	7038.9	
614.04	6759.7	
614.24	5249.6	
614.43	4807.9	
614.62	7152.9	
614.81	6999.3	
615	5517.2	
615.19	5499.5	
615.38	6712.6	
615.57	6875	
615.76	5531.6	
615.95	5945.3	
616.14	7193.8	
616.33	6989	
616.52	5719.3	
616.71	5729.5	
616.9	7108.5	
617.09	6939.9	
617.28	5262.6	
617.47	5869.5	
617.66	6666.8	
617.85	6610.8	
618.04	5784.8	
618.22	5463.3	
618.41	6800.6	
618.6	7385.7	
618.79	5502.9	
618.98	5309.7	
619.17	7572	
619.36	6508.4	
619.55	5388.2	
619.74	5448.3	
619.93	7100.3	
620.12	6754.2	
620.31	5784.8	
620.5	5797.8	
620.69	7368.6	
620.88	7684	
621.07	6173.3	
621.26	5712.5	
621.45	7264.1	
621.64	7298.3	
621.83	5815.5	
622.02	5315.8	
622.21	7292.8	
622.4	7215.7	
622.59	6135.7	
622.78	6004.6	
622.97	7063.4	
623.16	7539.3	
623.35	5808	
623.54	5313.1	
623.72	7072.3	
623.91	7129.7	
624.1	5955.5	
624.29	5196.4	
624.48	7762.5	
624.67	7441.6	
624.86	5861.3	
625.05	5302.2	
625.24	7886.7	
625.43	7024.5	
625.62	6746	
625.81	5530.2	
626	7466.2	
626.19	7102.4	
626.38	5854.5	
626.56	5618.3	
626.75	6971.3	
626.94	7409.6	
627.13	5967.8	
627.32	5211.4	
627.51	7464.8	
627.7	7981.6	
627.89	5242.1	
628.08	5982.8	
628.27	6862.1	
628.46	7032	
628.65	5458.5	
628.83	5171.8	
629.02	7327.6	
629.21	6866.2	
629.4	5554.1	
629.59	5754.1	
629.78	6883.9	
629.97	7475.1	
630.16	5784.1	
630.35	5521.3	
630.54	7884.7	
630.72	7651.9	
630.91	5568.4	
631.1	5781.4	
631.29	7150.8	
631.48	7202	
631.67	5917.3	
631.86	5515.9	
632.05	7140.6	
632.24	7051.2	
632.42	5348.6	
632.61	5699.5	
632.8	7055.3	
632.99	6821.1	
633.18	5720.7	
633.37	5874.9	
633.56	7335.1	
633.75	7210.9	
633.93	5763	
634.12	5552	
634.31	7759.8	
634.5	7382.9	
634.69	5590.3	
634.88	5812.1	
635.07	7116.7	
635.25	7470.3	
635.44	6059.9	
635.63	6086.6	
635.82	7074.4	
636.01	6445	
636.2	6001.2	
636.39	5740.5	
636.57	7757	
636.76	7346.7	
636.95	5436	
637.14	6125.5	
637.33	7247.8	
637.52	7708.6	
637.7	5288.5	
637.89	5938.4	
638.08	7081.9	
638.27	7879.9	
638.46	5890	
638.65	6090	
638.83	7868.3	
639.02	6983.6	
639.21	5854.5	
639.4	6061.3	
639.59	7237.5	
639.78	6905.1	
639.96	5382.1	
640.15	5414.1	
640.34	7194.5	
640.53	7171.3	
640.72	5351.3	
640.91	5489.2	
641.09	6789	
641.28	7477.1	
641.47	5635.3	
641.66	5971.2	
641.85	7163.1	
642.03	7250.5	
642.22	5646.9	
642.41	5463.3	
642.6	6783.6	
642.79	6453.1	
642.97	5362.9	
643.16	5620.3	
643.35	6776	
643.54	6665.5	
643.73	5347.2	
643.91	5713.8	
644.1	6679.1	
644.29	6976.7	
644.48	5328.1	
644.67	5404.6	
644.85	6489.3	
645.04	6918.7	
645.23	5107.6	
645.42	5378.6	
645.6	6635.4	
645.79	7291.5	
645.98	5224.4	
646.17	4618.9	
646.36	6419	
646.54	6662.7	
646.73	5626.5	
646.92	4971.8	
647.11	6499.6	
647.29	7057.3	
647.48	4902.8	
647.67	4848.9	
647.86	7214.3	
648.05	7180.2	
648.23	5090.6	
648.42	5900.9	
648.61	6851.8	
648.8	6726.2	
648.98	4855.7	
649.17	5143.8	
649.36	6433.4	
649.55	6139.1	
649.73	4919.9	
649.92	5335	
650.11	6337.8	
650.3	6596.5	
650.48	5031.2	
650.67	4971.8	
650.86	6776	
651.05	6074.3	
651.23	4975.2	
651.42	4899.4	
651.61	6490.7	
651.79	6350.8	
651.98	5154.1	
652.17	4821.6	
652.36	6694.8	
652.54	6047	
652.73	4995	
652.92	4827.1	
653.11	6687.3	
653.29	6766.5	
653.48	4568.3	
653.67	5031.9	
653.85	6455.2	
654.04	7064.8	
654.23	5139.7	
654.42	4902.8	
654.6	6278.4	
654.79	6642.9	
654.98	4572.4	
655.16	4914.4	
655.35	6057.9	
655.54	5811.5	
655.73	4532.2	
655.91	4535.6	
656.1	6388.3	
656.29	5670.1	
656.47	4244.1	
656.66	5207.3	
656.85	6075.6	
657.03	5988.9	
657.22	4592.2	
657.41	4617.5	
657.59	6112.5	
657.78	5927.5	
657.97	4450.2	
658.16	4772.4	
658.34	6605.4	
658.53	6745.3	
658.72	5442.1	
658.9	5623.7	
659.09	6352.1	
659.28	6280.4	
659.46	4787.5	
659.65	4630.5	
659.84	6061.3	
660.02	6504.3	
660.21	4706.9	
660.4	4626.4	
660.58	6593.8	
660.77	6205.3	
660.96	5035.3	
661.14	4421.6	
661.33	6958.3	
661.52	6876.4	
661.7	4407.2	
661.89	6321.4	
662.08	6025.1	
662.26	5709.1	
662.45	4634.6	
662.64	4675.5	
662.82	6563.1	
663.01	5944.6	
663.2	4610	
663.38	5068.7	
663.57	6350.1	
663.75	6300.2	
663.94	4773.1	
664.13	5512.4	
664.31	6065.4	
664.5	6477	
664.69	4986.1	
664.87	5216.2	
665.06	5872.2	
665.25	6203.3	
665.43	5502.9	
665.62	5376.6	
665.8	6442.2	
665.99	6096.1	
666.18	4778.6	
666.36	4809.3	
666.55	6390.3	
666.74	6314.6	
666.92	4638.6	
667.11	5479.7	
667.29	6170.5	
667.48	6436.8	
667.67	5197.7	
667.85	4661.2	
668.04	6054.5	
668.22	5954.8	
668.41	4792.9	
668.6	5119.2	
668.78	5939.1	
668.97	6113.2	
669.15	5048.9	
669.34	4369	
669.53	5969.8	
669.71	6204.7	
669.9	4516.5	
670.08	4886.5	
670.27	5911.8	
670.46	6289.3	
670.64	5043.5	
670.83	5174.5	
671.01	5829.2	
671.2	6135.7	
671.38	4630.5	
671.57	4521.2	
671.76	6646.3	
671.94	6840.2	
672.13	4433.2	
672.31	5025.7	
672.5	6451.1	
672.69	5846.3	
672.87	4525.3	
673.06	4718.5	
673.24	6284.5	
673.43	6049.7	
673.61	4932.9	
673.8	4736.3	
673.98	6328.9	
674.17	6356.2	
674.36	5116.5	
674.54	5009.3	
674.73	5973.2	
674.91	6297.5	
675.1	4871.4	
675.28	4496	
675.47	6115.9	
675.65	6373.3	
675.84	4779.3	
676.03	4891.9	
676.21	5979.4	
676.4	5565.7	
676.58	5146.5	
676.77	4990.9	
676.95	6866.2	
677.14	5900.2	
677.32	4456.4	
677.51	4421.6	
677.69	6462	
677.88	5743.9	
678.06	4534.2	
678.25	4558.8	
678.44	6090.7	
678.62	5863.3	
678.81	4354.7	
678.99	4885.1	
679.18	6522.8	
679.36	6182.1	
679.55	4790.9	
679.73	5042.1	
679.92	6229.2	
680.1	5909.8	
680.29	5267.4	
680.47	4658.4	
680.66	5937.7	
680.84	6369.2	
681.03	4306.9	
681.21	4956.8	
681.4	5928.2	
681.58	5874.9	
681.77	4485.7	
681.95	4537.6	
682.14	6410.1	
682.32	6549.4	
682.51	5069.4	
682.69	4345.8	
682.88	5872.2	
683.06	6106.4	
683.25	4827.7	
683.43	5091.9	
683.62	6081.1	
683.8	6293.4	
683.99	5225.1	
684.17	4777.2	
684.36	6732.4	
684.54	5921.4	
684.73	4367.6	
684.91	4374.5	
685.1	6221	
685.28	5733.6	
685.46	4699.4	
685.65	4679.6	
685.83	6147.3	
686.02	5711.8	
686.2	4344.4	
686.39	4302.8	
686.57	5428.5	
686.76	6423.1	
686.94	4338.3	
687.13	4450.2	
687.31	6026.5	
687.5	5812.8	
687.68	4172.4	
687.86	4690.5	
688.05	6909.8	
688.23	5504.9	
688.42	4852.3	
688.6	4399	
688.79	5639.4	
688.97	5752.7	
689.16	4648.9	
689.34	3993.5	
689.52	6063.4	
689.71	6363.7	
689.89	4693.9	
690.08	4373.1	
690.26	5971.2	
690.45	5743.9	
690.63	4874.8	
690.81	4474.8	
691	5945.3	
691.18	5703.6	
691.37	4622.3	
691.55	5768.4	
691.74	5683.8	
691.92	6801.3	
692.1	4561.5	
692.29	4252.3	
692.47	5943.9	
692.66	5397.1	
692.84	4283	
693.02	4595	
693.21	5406.6	
693.39	5791	
693.58	4727.4	
693.76	4276.2	
693.94	6436.1	
694.13	6261.3	
694.31	4366.3	
694.5	4969.1	
694.68	5649	
694.86	5926.8	
695.05	4586.1	
695.23	4821.6	
695.42	6152.1	
695.6	7401.4	
695.78	5015.5	
695.97	4498.7	
696.15	6214.9	
696.34	5786.2	
696.52	4320.5	
696.7	4831.8	
696.89	6053.1	
697.07	5619.6	
697.25	4723.3	
697.44	5530.9	
697.62	6008.7	
697.81	6104.3	
697.99	4562.9	
698.17	4779.3	
698.36	5662.6	
698.54	5948	
698.72	4717.8	
698.91	4119.8	
699.09	5853.8	
699.28	5545.9	
699.46	4552	
699.64	4379.9	
699.83	5645.6	
700.01	6198.5	
700.19	4993.6	
700.38	3970.3	
700.56	6128.2	
700.74	5673.6	
700.93	4190.8	
701.11	4691.2	
701.29	5969.1	
701.48	6574.7	
701.66	4302.8	
701.84	4391.5	
702.03	5773.9	
702.21	6173.3	
702.39	4158.7	
702.58	4427	
702.76	6066.8	
702.94	6045.6	
703.13	4113	
703.31	5530.9	
703.49	5591	
703.68	6191.7	
703.86	4239.3	
704.04	4801.8	
704.23	5943.9	
704.41	6084.5	
704.59	4358.1	
704.78	4985.4	
704.96	6917.4	
705.14	6114.6	
705.33	4239.3	
705.51	4613.4	
705.69	5709.7	
705.87	6268.8	
706.06	4751.3	
706.24	4151.9	
706.42	5942.5	
706.61	6005.3	
706.79	4874.8	
706.97	4119.1	
707.16	5592.3	
707.34	5898.1	
707.52	4726	
707.7	4323.9	
707.89	5575.3	
708.07	5481	
708.25	4805.9	
708.44	4790.2	
708.62	5462.6	
708.8	6281.1	
708.98	4896.7	
709.17	4316.4	
709.35	5806.7	
709.53	5803.9	
709.72	4100.7	
709.9	4150.6	
710.08	6045.6	
710.26	6026.5	
710.45	5045.5	
710.63	4302.8	
710.81	5748	
710.99	5784.1	
711.18	4697.4	
711.36	4308.2	
711.54	5631.2	
711.72	6138.4	
711.91	4406.5	
712.09	4085.7	
712.27	5791.7	
712.45	5984.2	
712.64	4519.2	
712.82	3908.9	
713	5421.7	
713.18	5514.5	
713.37	4015.4	
713.55	4653	
713.73	6024.4	
713.91	5238.7	
714.1	4158.1	
714.28	3814	
714.46	5714.5	
714.64	5243.5	
714.83	3541.6	
715.01	3952.6	
715.19	5331.5	
715.37	4822.3	
715.55	3704.8	
715.74	3904.8	
715.92	5675.6	
716.1	4495.3	
716.28	4497.3	
716.47	3926	
716.65	5050.3	
716.83	5031.2	
717.01	3794.9	
717.19	3793.5	
717.38	6121.4	
717.56	4808.6	
717.74	3979.9	
717.92	3422.2	
718.1	5553.4	
718.29	5031.2	
718.47	3214.6	
718.65	3619.4	
718.83	5511.1	
719.01	5427.8	
719.2	3159.3	
719.38	3805.8	
719.56	5283.8	
719.74	6144.6	
719.92	3712.3	
720.11	4209.3	
720.29	5375.2	
720.47	4838.7	
720.65	3407.1	
720.83	3883.6	
721.02	5066	
721.2	4924	
721.38	3879.5	
721.56	3452.9	
721.74	4560.8	
721.92	4610.7	
722.11	4107.5	
722.29	3991.5	
722.47	5369.1	
722.65	4904.2	
722.83	3459.7	
723.01	3881.6	
723.2	4851.6	
723.38	5091.3	
723.56	3110.2	
723.74	3807.9	
723.92	4614.8	
724.1	5237.3	
724.29	3368.2	
724.47	3990.1	
724.65	4734.2	
724.83	4517.8	
725.01	3351.2	
725.19	3744.4	
725.37	4603.2	
725.56	4564.2	
725.74	3243.3	
725.92	3409.2	
726.1	4596.3	
726.28	4794.3	
726.46	3593.5	
726.64	3394.2	
726.83	4858.5	
727.01	4901.5	
727.19	3247.4	
727.37	3710.2	
727.55	4876.2	
727.73	5197.7	
727.91	3183.2	
728.09	3123.2	
728.28	5175.2	
728.46	5239.4	
728.64	3726.6	
728.82	3654.9	
729	5726.1	
729.18	5326.8	
729.36	3205.1	
729.54	4504.2	
729.72	5879.7	
729.91	4847.5	
730.09	4389.5	
730.27	3568.2	
730.45	4875.5	
730.63	5213.4	
730.81	3934.1	
730.99	3399.6	
731.17	5571.8	
731.35	4687.8	
731.53	3650.8	
731.71	3487	
731.9	5352.7	
732.08	5399.8	
732.26	3585.3	
732.44	3407.1	
732.62	5505.6	
732.8	5151.3	
732.98	3879.5	
733.16	3296.5	
733.34	5218.9	
733.52	4407.2	
733.7	3644	
733.88	3702.7	
734.07	5023	
734.25	4932.2	
734.43	3338.9	
734.61	4133.5	
734.79	5779.4	
734.97	4860.5	
735.15	3381.2	
735.33	3564.8	
735.51	5073.5	
735.69	4885.1	
735.87	4061.8	
736.05	3609.2	
736.23	5005.2	
736.41	4801.8	
736.59	3593.5	
736.77	3596.9	
736.95	5216.2	
737.13	4831.8	
737.32	3325.2	
737.5	3482.2	
737.68	5523.4	
737.86	4733.5	
738.04	3292.5	
738.22	4292.5	
738.4	4728.8	
738.58	4962.9	
738.76	3551.2	
738.94	2985.3	
739.12	4842.1	
739.3	4731.5	
739.48	3939.6	
739.66	3720.5	
739.84	4938.3	
740.02	4824.3	
740.2	3093.8	
740.38	3126.6	
740.56	5032.5	
740.74	4347.2	
740.92	3680.9	
741.1	3535.5	
741.28	4850.3	
741.46	4572.4	
741.64	3359.4	
741.82	3686.3	
742	4814.1	
742.18	4750.6	
742.36	3432.4	
742.54	3279.5	
742.72	5179.3	
742.9	4389.5	
743.08	3682.2	
743.26	3013.9	
743.44	5127.4	
743.62	5102.2	
743.8	3769.6	
743.98	3221.5	
744.16	4945.2	
744.34	4745.8	
744.52	3663.1	
744.7	3788.1	
744.88	5074.9	
745.06	4769.7	
745.24	3670.6	
745.42	3753.9	
745.6	5104.9	
745.78	5017.5	
745.96	3056.3	
746.14	3219.4	
746.32	5535	
746.5	4965.6	
746.68	3545.7	
746.86	3205.8	
747.03	5219.6	
747.21	4411.3	
747.39	3602.4	
747.57	3199.6	
747.75	4867.3	
747.93	5057.1	
748.11	3146.4	
748.29	3183.9	
748.47	5827.8	
748.65	4671.4	
748.83	3637.9	
749.01	3463.8	
749.19	4947.9	
749.37	4422.2	
749.55	3483.6	
749.73	3440.6	
749.91	4833.9	
750.09	4712.4	
750.26	3493.8	
750.44	3108.8	
750.62	4792.2	
750.8	4712.4	
750.98	3127.2	
751.16	3252.2	
751.34	4937	
751.52	4509.6	
751.7	3717.1	
751.88	3030.3	
752.06	5121.3	
752.24	4974.5	
752.42	3116.3	
752.59	3212.6	
752.77	4758.8	
752.95	5448.3	
753.13	3680.2	
753.31	3305.4	
753.49	4623.6	
753.67	4764.9	
753.85	3426.9	
754.03	3196.2	
754.21	5025	
754.38	5215.5	
754.56	3306.8	
754.74	2779.1	
754.92	4524	
755.1	4846.9	
755.28	2776.4	
755.46	2798.9	
755.64	5468.1	
755.82	5485.1	
755.99	2998.9	
756.17	2996.9	
756.35	4005.1	
756.53	4837.3	
756.71	2402.3	
756.89	3147.7	
757.07	4605.2	
757.25	4132.1	
757.42	3190.1	
757.6	3737.5	
757.78	4736.3	
757.96	4141.7	
758.14	3032.4	
758.32	2774.3	
758.5	3860.4	
758.67	4346.5	
758.85	2921.1	
759.03	2955.9	
759.21	4527.4	
759.39	4091.8	
759.57	2706.7	
759.75	3321.1	
759.92	4883.7	
760.1	4507.6	
760.28	3553.9	
760.46	3687.7	
760.64	4353.3	
760.82	4247.5	
760.99	3341.6	
761.17	2997.5	
761.35	4830.5	
761.53	4121.2	
761.71	3141.6	
761.89	3384.6	
762.06	4646.2	
762.24	4405.9	
762.42	3153.9	
762.6	2973	
762.78	4364.2	
762.96	4722.6	
763.13	3368.9	
763.31	3108.1	
763.49	4775.9	
763.67	4381.3	
763.85	3609.9	
764.02	3861.8	
764.2	5029.1	
764.38	4374.5	
764.56	3074	
764.74	3594.9	
764.91	5033.2	
765.09	4337.6	
765.27	2984.6	
765.45	2762.7	
765.63	5152	
765.8	4975.2	
765.98	2688.3	
766.16	2893.8	
766.34	4130.8	
766.52	3985.3	
766.69	3381.2	
766.87	2742.2	
767.05	4465.9	
767.23	4882.4	
767.41	2908.1	
767.58	3112.9	
767.76	4790.9	
767.94	4838.7	
768.12	2949.1	
768.29	3386.7	
768.47	4388.8	
768.65	4837.3	
768.83	2718.3	
769	3393.5	
769.18	4222.9	
769.36	4597	
769.54	3403	
769.72	2685.6	
769.89	4877.6	
770.07	4764.3	
770.25	3056.9	
770.43	3732.1	
770.6	5248.3	
770.78	5381.4	
770.96	3108.8	
771.14	3397.6	
771.31	4766.3	
771.49	4373.1	
771.67	2645.3	
771.85	2690.3	
772.02	3953.9	
772.2	4311.7	
772.38	3178.4	
772.55	2850.8	
772.73	4572.4	
772.91	4397.7	
773.09	3093.1	
773.26	3114.3	
773.44	4535.6	
773.62	4358.1	
773.8	2844.6	
773.97	2736.1	
774.15	4567	
774.33	4330.1	
774.5	2756.6	
774.68	2914.9	
774.86	4616.8	
775.04	4368.3	
775.21	2870.6	
775.39	2747	
775.57	4493.2	
775.74	4639.3	
775.92	2676	
776.1	2617.3	
776.27	4440	
776.45	5267.4	
776.63	2841.9	
776.81	2531.3	
776.98	4329.4	
777.16	4864.6	
777.34	2897.9	
777.51	3055.6	
777.69	4323.3	
777.87	4138.3	
778.04	2970.9	
778.22	3242.6	
778.4	4212.7	
778.57	4567	
778.75	2532.7	
778.93	2689	
779.1	4147.1	
779.28	3956.7	
779.46	2518.3	
779.64	2716.3	
779.81	4700.8	
779.99	5102.9	
780.17	3199.6	
780.34	3314.3	
780.52	4336.9	
780.69	4372.4	
780.87	3017.3	
781.05	2695.8	
781.22	4439.3	
781.4	4398.4	
781.58	2824.1	
781.75	2350.4	
781.93	4472.1	
782.11	3970.3	
782.28	3329.3	
782.46	2817.3	
782.64	3954.6	
782.81	4541	
782.99	2902.7	
783.17	2791.4	
783.34	4414.7	
783.52	4069.3	
783.69	2904.7	
783.87	3385.3	
784.05	4147.8	
784.22	4059.1	
784.4	3409.9	
784.58	3016.7	
784.75	4650.3	
784.93	4191.5	
785.1	2817.3	
785.28	3224.9	
785.46	4553.3	
785.63	4003.8	
785.81	2859.6	
785.99	2797.5	
786.16	4246.1	
786.34	4373.8	
786.51	2747	
786.69	3014.6	
786.87	3904.1	
787.04	4190.8	
787.22	2682.2	
787.39	3203.7	
787.57	4102.1	
787.75	4674.8	
787.92	3358.7	
788.1	3226.2	
788.27	4010.6	
788.45	3802.4	
788.63	3121.1	
788.8	2407	
788.98	4409.3	
789.15	3737.5	
789.33	2530.6	
789.5	2750.4	
789.68	4599.7	
789.86	4659.8	
790.03	3048.1	
790.21	2723.8	
790.38	4689.2	
790.56	4181.3	
790.73	2674	
790.91	2710.8	
791.09	4078.2	
791.26	4462.5	
791.44	2842.6	
791.61	2484.9	
791.79	4034.5	
791.96	4033.1	
792.14	2581.8	
792.32	2355.2	
792.49	4065.2	
792.67	4184	
792.84	2694.4	
793.02	2503.3	
793.19	4378.6	
793.37	4694.6	
793.54	2317.6	
793.72	2523.8	
793.89	4796.3	
794.07	4020.8	
794.25	2885.6	
794.42	2396.8	
794.6	4638	
794.77	4371.7	
794.95	2996.2	
795.12	2712.9	
795.3	4104.1	
795.47	4365.6	
795.65	2968.9	
795.82	2879.4	
796	3939.6	
796.17	4961.5	
796.35	2830.3	
796.52	3140.2	
796.7	4408.6	
796.87	4445.5	
797.05	2764.1	
797.22	3312.2	
797.4	4515.8	
797.57	4969.1	
797.75	2893.8	
797.92	2732.7	
798.1	4659.1	
798.27	3937.6	
798.45	2387.2	
798.62	2541.5	
798.8	4225.6	
798.97	4539.7	
799.15	2960	
799.32	2887.6	
799.5	3745.1	
799.67	4196.3	
799.85	3051.5	
800.02	2359.3	
800.2	4078.9	
800.37	4175.1	
800.55	3160	
800.72	2751.1	
800.9	4519.9	
801.07	4677.6	
801.25	3489.1	
801.42	2957.9	
801.6	4541.7	
801.77	4149.2	
801.95	2790.7	
802.12	2634.4	
802.29	4387.4	
802.47	4224.3	
802.64	2986.6	
802.82	2404.3	
802.99	4100	
803.17	4569.7	
803.34	2826.9	
803.52	2627.5	
803.69	4949.3	
803.87	3845.4	
804.04	2858.3	
804.21	2880.1	
804.39	4752	
804.56	4160.1	
804.74	2507.4	
804.91	2938.2	
805.09	4059.8	
805.26	4056.3	
805.44	2564.1	
805.61	2747	
805.78	4415.4	
805.96	4468.7	
806.13	2957.9	
806.31	3093.8	
806.48	3742.3	
806.66	4077.5	
806.83	2984.6	
807	2851.5	
807.18	4100.7	
807.35	4268	
807.53	2823.5	
807.7	2465.1	
807.87	4761.5	
808.05	4050.2	
808.22	3085.6	
808.4	2413.9	
808.57	3951.2	
808.74	3792.2	
808.92	2707.4	
809.09	3254.9	
809.27	4062.5	
809.44	4348.5	
809.61	2452.8	
809.79	2542.9	
809.96	4858.5	
810.14	4406.5	
810.31	2323.1	
810.48	3078.1	
810.66	4066.6	
810.83	4515.8	
811.01	2687.6	
811.18	2934.1	
811.35	4496	
811.53	3596.9	
811.7	3154.6	
811.87	2966.8	
812.05	4181.3	
812.22	4056.3	
812.39	2661.7	
812.57	2539.5	
812.74	4145.8	
812.92	4957.4	
813.09	2825.5	
813.26	2926.5	
813.44	4831.2	
813.61	3973.7	
813.78	2390.7	
813.96	3033.7	
814.13	4106.9	
814.3	3955.3	
814.48	3214.6	
814.65	2745.6	
814.82	4792.2	
815	3857.7	
815.17	2865.8	
815.34	3301.3	
815.52	3969	
815.69	3967.6	
815.87	2807.1	
816.04	2782.5	
816.21	3988.1	
816.38	3754.6	
816.56	2801.6	
816.73	2656.2	
816.9	4939.7	
817.08	4439.3	
817.25	2630.3	
817.42	3125.2	
817.6	3770.3	
817.77	3981.9	
817.94	2908.1	
818.12	2556.5	
818.29	3936.2	
818.46	5310.4	
818.64	2724.5	
818.81	2531.3	
818.98	3915	
819.16	5105.6	
819.33	3025.5	
819.5	2888.3	
819.67	4342.4	
819.85	4659.8	
820.02	2805.7	
820.19	2956.6	
820.37	4192.2	
820.54	4007.2	
820.71	2908.8	
820.88	3401.7	
821.06	4154.6	
821.23	3940.3	
821.4	2927.9	
821.58	2886.3	
821.75	4452.3	
821.92	4166.9	
822.09	2480.8	
822.27	2491.7	
822.44	4051.6	
822.61	3996.3	
822.79	2430.9	
822.96	4144.4	
823.13	4245.4	
823.3	3799	
823.48	2708.1	
823.65	2485.6	
823.82	4524.6	
823.99	3808.5	
824.17	3302.7	
824.34	2519	
824.51	5023	
824.68	4070	
824.86	2695.8	
825.03	2888.3	
825.2	4064.5	
825.37	4648.9	
825.55	2603	
825.72	2826.9	
825.89	4964.3	
826.06	4706.9	
826.24	2755.2	
826.41	2764.8	
826.58	4784.7	
826.75	4227.7	
826.92	2377.7	
827.1	2516.3	
827.27	6041.5	
827.44	4894	
827.61	2687.6	
827.79	3070.6	
827.96	3964.9	
828.13	3999	
828.3	2778.4	
828.47	2372.2	
828.65	4341	
828.82	4266.6	
828.99	3347.1	
829.16	2923.8	
829.34	4536.3	
829.51	4443.4	
829.68	2822.1	
829.85	2853.5	
830.02	4857.8	
830.2	4506.9	
830.37	2310.8	
830.54	3280.8	
830.71	4972.5	
830.88	4162.2	
831.05	2250.7	
831.23	2549.7	
831.4	4930.1	
831.57	5165	
831.74	2721.8	
831.91	2389.3	
832.09	4458.4	
832.26	4511	
832.43	2630.3	
832.6	2938.8	
832.77	4328.7	
832.94	4768.4	
833.12	2261	
833.29	2644.6	
833.46	4345.8	
833.63	5302.9	
833.8	2880.1	
833.97	2695.1	
834.15	4621.6	
834.32	4505.5	
834.49	2749.7	
834.66	2876	
834.83	4557.4	
835	4040.6	
835.17	2638.5	
835.35	2671.2	
835.52	4481.6	
835.69	4369.7	
835.86	2706	
836.03	2295.1	
836.2	4534.9	
836.37	4234.5	
836.55	2669.2	
836.72	2600.9	
836.89	4316.4	
837.06	4599.1	
837.23	2752.5	
837.4	2904.7	
837.57	5058.5	
837.75	5369.8	
837.92	2482.1	
838.09	2651.4	
838.26	4311	
838.43	4622.9	
838.6	2794.1	
838.77	2514.2	
838.94	5131.5	
839.11	4995.7	
839.29	2739.5	
839.46	2245.9	
839.63	4616.8	
839.8	4310.3	
839.97	2665.8	
840.14	2590.7	
840.31	4471.4	
840.48	4499.4	
840.65	2313.5	
840.82	2621.4	
841	4533.5	
841.17	4355.3	
841.34	2435	
841.51	2590	
841.68	4463.9	
841.85	4341	
842.02	2575	
842.19	2199.5	
842.36	4375.1	
842.53	4397.7	
842.7	2465.8	
842.87	2824.1	
843.05	5364.3	
843.22	4301.4	
843.39	2351.8	
843.56	2560.6	
843.73	4280.9	
843.9	4605.2	
844.07	3662.5	
844.24	3087	
844.41	5804.6	
844.58	4095.3	
844.75	2355.2	
844.92	2540.2	
845.09	4431.1	
845.26	4480.3	
845.43	2495.1	
845.6	2611.2	
845.77	4518.5	
845.94	4358.1	
846.12	2682.8	
846.29	2779.8	
846.46	4701.5	
846.63	4496.7	
846.8	2443.9	
846.97	2828.2	
847.14	4783.4	
847.31	4508.9	
847.48	2683.5	
847.65	2938.2	
847.82	4500.8	
847.99	4589.5	
848.16	3122.5	
848.33	2875.3	
848.5	4201.1	
848.67	4822.3	
848.84	2397.5	
849.01	2504	
849.18	4225	
849.35	3999.7	
849.52	2900.6	
849.69	2405.7	
849.86	4671.4	
850.03	4635.9	
850.2	2478	
850.37	2826.2	
850.54	4702.1	
850.71	4227.7	
850.88	2868.5	
851.05	2353.8	
851.22	4378.6	
851.39	4797.7	
851.56	2336	
851.73	2739.5	
851.9	4030.4	
852.07	4605.9	
852.24	2688.3	
852.41	2416.6	
852.58	4515.1	
852.75	4113	
852.92	2688.3	
853.09	2364.7	
853.26	4135.5	
853.43	4715.8	
853.6	2480.8	
853.77	2130.6	
853.94	4799.1	
854.11	4041.3	
854.28	3365.5	
854.44	2612.5	
854.61	5116.5	
854.78	4641.4	
854.95	2437.8	
855.12	2959.3	
855.29	3799.7	
855.46	4793.6	
855.63	2481.5	
855.8	3189.4	
855.97	4209.9	
856.14	4715.8	
856.31	3246.7	
856.48	2650.8	
856.65	4287.8	
856.82	4061.8	
856.99	2355.8	
857.16	2624.1	
857.33	5136.3	
857.49	4264.6	
857.66	2562.7	
857.83	2720.4	
858	4304.8	
858.17	4425	
858.34	2306.7	
858.51	2450.1	
858.68	4868.7	
858.85	4788.2	
859.02	2745.6	
859.19	2910.2	
859.36	4108.9	
859.52	4052.9	
859.69	2461.7	
859.86	2828.9	
860.03	3981.9	
860.2	4820.2	
860.37	2278	
860.54	2484.2	
860.71	4624.3	
860.88	4834.6	
861.05	2646.7	
861.21	2993.4	
861.38	4800.4	
861.55	3894.6	
861.72	2252.8	
861.89	2639.1	
862.06	4660.5	
862.23	4882.4	
862.4	2358.6	
862.56	2495.1	
862.73	4545.1	
862.9	4321.2	
863.07	2739.5	
863.24	2281.4	
863.41	4016.7	
863.58	4087.7	
863.75	2482.8	
863.91	2772.3	
864.08	4658.4	
864.25	4554	
864.42	2968.2	
864.59	3233.1	
864.76	4969.1	
864.93	4052.2	
865.09	2351.1	
865.26	2606.4	
865.43	4827.1	
865.6	4935.6	
865.77	2232.3	
865.94	2385.2	
866.1	4724.7	
866.27	4519.9	
866.44	3449.5	
866.61	2364.7	
866.78	4312.3	
866.95	4543.1	
867.11	2418.7	
867.28	2267.1	
867.45	4786.8	
867.62	4073.4	
867.79	2775.7	
867.96	2430.9	
868.12	4034.5	
868.29	4605.2	
868.46	2489.6	
868.63	3130.7	
868.8	4633.2	
868.97	4545.8	
869.13	2514.9	
869.3	2537.4	
869.47	4448.2	
869.64	4644.8	
869.81	2455.5	
869.97	2476.7	
870.14	4387.4	
870.31	4825	
870.48	2362.7	
870.65	2934.7	
870.81	4353.3	
870.98	4352.6	
871.15	2692.4	
871.32	2529.2	
871.48	4569.7	
871.65	4889.2	
871.82	2407	
871.99	2658.3	
872.16	5152	
872.32	4770.4	
872.49	2495.1	
872.66	2467.1	
872.83	4610	
872.99	4163.5	
873.16	2724.5	
873.33	2418	
873.5	4373.1	
873.67	4371	
873.83	2517	
874	3115.6	
874.17	4511	
874.34	4958.8	
874.5	3087.7	
874.67	2895.8	
874.84	4798.4	
875.01	3944.4	
875.17	3250.8	
875.34	2463	
875.51	4425.7	
875.68	5186.8	
875.84	2820.1	
876.01	3379.8	
876.18	4530.8	
876.34	4575.2	
876.51	2431.6	
876.68	2432.3	
876.85	4237.2	
877.01	4798.4	
877.18	3291.1	
877.35	2415.2	
877.52	4549.9	
877.68	4060.4	
877.85	2420.7	
878.02	2414.6	
878.18	4134.8	
878.35	4204.5	
878.52	2074.6	
878.69	2796.8	
878.85	4721.9	
879.02	4580.6	
879.19	3301.3	
879.35	2591.4	
879.52	4593.6	
879.69	4585.4	
879.86	2187.2	
880.02	2710.8	
880.19	4277.5	
880.36	5004.6	
880.52	2738.8	
880.69	2782.5	
880.86	4633.2	
881.02	4672.1	
881.19	2646.7	
881.36	2590	
881.52	4582	
881.69	4136.2	
881.86	2624.8	
882.02	2553.8	
882.19	4760.2	
882.36	5379.3	
882.52	2533.3	
882.69	3284.3	
882.86	4409.3	
883.02	4497.3	
883.19	2807.1	
883.36	2699.2	
883.52	4657.1	
883.69	5079.6	
883.86	2458.2	
884.02	2269.1	
884.19	4560.1	
884.36	4369.7	
884.52	2705.4	
884.69	2599.6	
884.86	4252.9	
885.02	4852.3	
885.19	2659.6	
885.36	2772.3	
885.52	4276.8	
885.69	4511	
885.86	3381.9	
886.02	3003.7	
886.19	4615.4	
886.35	4223.6	
886.52	2646.7	
886.69	3160.7	
886.85	4072.7	
887.02	4738.3	
887.19	4738.3	
887.35	4738.3	
887.52	4738.3	
887.68	4738.3	
887.85	4738.3	
888.02	4738.3	
888.18	4738.3	
888.35	4738.3	
888.51	4738.3	
888.68	4738.3	
888.85	4738.3	
889.01	4738.3	
889.18	4738.3	
889.35	4738.3	
889.51	4738.3	
889.68	4738.3	
889.84	4738.3	
890.01	4738.3	
890.17	4738.3	
890.34	4738.3	
890.51	4738.3	
890.67	4738.3	
890.84	4738.3	
891	4738.3	
891.17	4738.3	
891.34	4738.3	
891.5	4738.3	
891.67	4738.3	
891.83	4738.3	
892	4738.3	
892.16	4738.3	
892.33	4738.3	
892.5	4738.3	
892.66	4738.3	
892.83	4738.3	
892.99	4738.3	
893.16	4738.3	
893.32	4738.3	
893.49	4738.3	
893.65	4738.3	
893.82	4738.3	
893.99	4738.3	
894.15	4738.3	
894.32	4738.3	
894.48	4738.3	
894.65	4738.3	
894.81	4738.3	
894.98	4738.3	
895.14	4738.3	
895.31	4738.3	
895.47	4738.3	
895.64	4738.3	
895.81	4738.3	
895.97	4738.3	
896.14	4738.3	
896.3	4738.3	
896.47	4738.3	
896.63	4738.3	
896.8	4738.3	
896.96	4738.3	
897.13	4738.3	
897.29	4738.3	
897.46	4738.3	
897.62	4738.3	
897.79	4738.3	
897.95	4738.3	
898.12	4738.3	
898.28	4738.3	
898.45	4738.3	
898.61	4738.3	
898.78	4738.3	
898.94	4738.3	
899.11	4738.3	
899.27	4738.3	
899.44	4738.3	
899.6	4738.3	
899.77	4738.3	
899.93	4738.3	
900.1	4738.3	
900.26	4738.3	
900.43	4738.3	
900.59	4738.3	
900.76	4738.3	
900.92	4738.3	
901.09	4738.3	
901.25	4738.3	
901.42	4738.3	
901.58	4738.3	
901.75	4738.3	
901.91	4738.3	
902.07	4738.3	
902.24	4738.3	
902.4	4738.3	
902.57	4738.3	
902.73	4738.3	
902.9	4738.3	
903.06	4738.3	
903.23	4738.3	
903.39	4738.3	
903.56	4738.3	
903.72	4738.3	
903.88	4738.3	
904.05	4738.3	
904.21	4738.3	
904.38	4738.3	
904.54	4738.3	
904.71	4738.3	
904.87	4738.3	
905.03	4738.3	
905.2	4738.3	
905.36	4738.3	
905.53	4738.3	
905.69	4738.3	
905.86	4738.3	
906.02	4738.3	
906.18	4738.3	
906.35	4738.3	
906.51	4738.3	
906.68	4738.3	
906.84	4738.3	
907.01	4738.3	
907.17	4738.3	
907.33	4738.3	
907.5	4738.3	
907.66	4738.3	
907.83	4738.3	
907.99	4738.3	
908.15	4738.3	
908.32	4738.3	
908.48	4738.3	
908.65	4738.3	
908.81	4738.3	
908.97	4738.3	
909.14	4738.3	
909.3	4738.3	
909.47	4738.3	
909.63	4738.3	
909.79	4738.3	
909.96	4738.3	
910.12	4738.3	
910.28	4738.3	
910.45	4738.3	
910.61	4738.3	
910.78	4738.3	
910.94	4738.3	
911.1	4738.3	
911.27	4738.3	
911.43	4738.3	
911.59	4738.3	
911.76	4738.3	
911.92	4738.3	
912.08	4738.3	
912.25	4738.3	
912.41	4738.3	
912.57	4738.3	
912.74	4738.3	
912.9	4738.3	
913.07	4738.3	
913.23	4738.3	
913.39	4738.3	
913.56	4738.3	
913.72	4738.3	
913.88	4738.3	
914.05	4738.3	
914.21	4738.3	
914.37	4738.3	
914.54	4738.3	
914.7	4738.3	
914.86	4738.3	
915.03	4738.3	
915.19	4738.3	
