Wavelength	Intensities	
nm	a.u.	
179.22	1939.3	
179.44	1933.6	
179.65	1944.9	
179.86	1922.4	
180.08	1948.3	
180.29	5088.5	
180.51	3608.5	
180.72	5724.8	
180.94	6698.9	
181.15	3307.5	
181.37	3209.8	
181.58	5527.5	
181.79	5915.9	
182.01	3454.2	
182.22	3697.3	
182.44	5831.9	
182.65	4890.5	
182.87	4605.9	
183.08	4113	
183.29	6236.7	
183.51	5076.2	
183.72	3737.5	
183.94	5513.1	
184.15	5507.7	
184.37	5483.8	
184.58	3264.5	
184.79	4553.3	
185.01	5070.1	
185.22	5892.7	
185.44	4787.5	
185.65	4017.4	
185.86	5361.6	
186.08	4920.6	
186.29	3130	
186.51	3432.4	
186.72	5105.6	
186.94	6067.4	
187.15	3991.5	
187.36	4131.4	
187.58	7887.4	
187.79	5530.9	
188.01	4275.5	
188.22	6638.1	
188.43	6731.7	
188.65	5839.4	
188.86	3421.5	
189.08	4067.3	
189.29	5324.7	
189.5	5328.1	
189.72	3802.4	
189.93	3925.3	
190.15	6030.6	
190.36	7247.1	
190.57	4215.4	
190.79	4024.9	
191	6197.8	
191.22	6130.9	
191.43	4234.5	
191.64	3415.3	
191.86	6402	
192.07	6056.5	
192.29	3622.2	
192.5	3859.7	
192.71	6092	
192.93	5199.8	
193.14	3815.4	
193.35	3913.7	
193.57	5257.1	
193.78	6060.6	
194	3068.5	
194.21	3729.4	
194.42	4982.7	
194.64	5498.8	
194.85	4098	
195.07	4752.7	
195.28	5543.2	
195.49	4733.5	
195.71	5066.7	
195.92	3505.4	
196.13	5644.2	
196.35	5837.4	
196.56	5494.7	
196.78	4078.2	
196.99	7206.8	
197.2	6737.1	
197.42	4729.4	
197.63	4203.1	
197.84	4932.9	
198.06	5689.9	
198.27	3797.6	
198.48	5174.5	
198.7	5261.9	
198.91	5358.9	
199.13	4160.1	
199.34	4164.9	
199.55	5926.1	
199.77	4774.5	
199.98	3621.5	
200.19	4255.7	
200.41	5408	
200.62	5087.8	
200.83	4316.4	
201.05	4666.6	
201.26	5390.9	
201.47	5114.5	
201.69	3720.5	
201.9	3539.6	
202.11	5446.2	
202.33	6520	
202.54	3966.9	
202.76	4375.8	
202.97	5620.3	
203.18	5607.3	
203.4	4345.1	
203.61	4250.2	
203.82	5574.6	
204.04	5132.2	
204.25	4235.2	
204.46	4121.9	
204.68	5516.5	
204.89	5744.6	
205.1	4077.5	
205.32	3542.3	
205.53	5954.8	
205.74	6081.1	
205.96	2981.2	
206.17	4263.2	
206.38	5939.8	
206.6	6058.6	
206.81	4773.8	
207.02	3839.3	
207.24	5752.1	
207.45	6174.6	
207.66	3972.4	
207.88	3331.4	
208.09	5712.5	
208.3	5532.9	
208.52	3680.9	
208.73	4061.8	
208.94	5500.8	
209.15	6240.8	
209.37	3981.9	
209.58	4098	
209.79	6036.7	
210.01	5278.3	
210.22	3145	
210.43	3287	
210.65	5472.2	
210.86	5941.2	
211.07	3973.1	
211.29	3602.4	
211.5	5898.1	
211.71	5465.3	
211.93	3662.5	
212.14	3614	
212.35	5418.9	
212.56	5631.2	
212.78	4208.6	
212.99	3414	
213.2	6520	
213.42	5281.7	
213.63	3710.2	
213.84	4068.6	
214.06	4873.5	
214.27	4988.9	
214.48	3980.6	
214.69	4247.5	
214.91	6210.8	
215.12	6260	
215.33	4296.6	
215.55	4777.2	
215.76	6842.9	
215.97	5902.9	
216.18	4085.7	
216.4	4044.7	
216.61	5208.7	
216.82	5995.8	
217.04	3632.4	
217.25	3819.5	
217.46	6184.9	
217.67	5932.3	
217.89	3263.8	
218.1	3408.5	
218.31	5572.5	
218.53	5674.2	
218.74	3785.3	
218.95	3685.7	
219.16	5454.4	
219.38	6429.9	
219.59	3717.7	
219.8	4444.1	
220.01	7146.7	
220.23	5530.9	
220.44	4859.8	
220.65	3609.2	
220.87	5508.4	
221.08	6094.1	
221.29	3392.1	
221.5	4509.6	
221.72	7592.5	
221.93	5186.1	
222.14	4220.2	
222.35	4939	
222.57	5490.6	
222.78	5847.6	
222.99	3954.6	
223.2	4252.3	
223.42	5835.3	
223.63	5959.6	
223.84	3059	
224.05	3087.7	
224.27	7012.2	
224.48	6428.6	
224.69	4942.4	
224.9	4142.4	
225.12	5750.7	
225.33	5420.3	
225.54	3352.5	
225.75	3706.8	
225.97	5036.6	
226.18	5408	
226.39	4076.1	
226.6	3763.5	
226.82	5237.3	
227.03	5094.7	
227.24	4204.5	
227.45	3486.3	
227.67	5847	
227.88	6443.6	
228.09	4687.8	
228.3	4681	
228.52	5894.7	
228.73	5470.8	
228.94	3850.2	
229.15	3388	
229.36	5379.3	
229.58	5339.7	
229.79	3903.4	
230	4600.4	
230.21	6555.5	
230.43	5602.6	
230.64	4151.2	
230.85	4306.9	
231.06	5914.5	
231.28	5976	
231.49	3443.3	
231.7	4055	
231.91	5836.7	
232.12	5515.2	
232.34	3548.4	
232.55	4061.8	
232.76	6114.6	
232.97	5655.8	
233.18	3708.9	
233.4	4117.1	
233.61	5681.7	
233.82	5198.4	
234.03	3814	
234.25	3782.6	
234.46	7671	
234.67	5548.6	
234.88	4236.6	
235.09	3682.2	
235.31	5846.3	
235.52	5416.2	
235.73	4173.1	
235.94	3504.8	
236.15	5229.1	
236.37	6698.2	
236.58	3650.2	
236.79	4022.9	
237	5791	
237.21	5017.5	
237.43	4293.2	
237.64	3377.1	
237.85	10133	
238.06	5024.3	
238.27	4276.8	
238.48	3444.7	
238.7	5827.2	
238.91	5316.5	
239.12	3968.3	
239.33	4028.4	
239.54	5135.6	
239.76	5417.6	
239.97	3973.7	
240.18	3989.4	
240.39	6928.3	
240.6	5763.7	
240.82	4158.1	
241.03	3345	
241.24	5451	
241.45	6457.9	
241.66	3601	
241.87	4287.8	
242.09	6214.2	
242.3	6673	
242.51	4326	
242.72	4011.3	
242.93	6002.6	
243.14	5459.9	
243.36	4602.5	
243.57	5005.9	
243.78	6404.7	
243.99	5859.9	
244.2	3992.2	
244.41	3590.1	
244.63	5038.7	
244.84	5797.8	
245.05	4271.4	
245.26	4023.6	
245.47	5753.4	
245.68	6128.2	
245.9	5347.2	
246.11	4199.7	
246.32	5328.8	
246.53	5794.4	
246.74	6544.6	
246.95	3390.8	
247.16	4967	
247.38	5468.8	
247.59	3307.5	
247.8	4036.5	
248.01	5139.7	
248.22	5449.6	
248.43	3616.7	
248.64	3832.4	
248.86	4883.7	
249.07	5231.9	
249.28	3518.4	
249.49	4052.9	
249.7	6023.1	
249.91	6245.6	
250.12	3334.1	
250.34	3348.4	
250.55	5558.9	
250.76	5517.9	
250.97	4091.2	
251.18	4216.8	
251.39	6195.1	
251.6	5689.3	
251.81	4233.8	
252.03	4237.2	
252.24	5201.8	
252.45	6077	
252.66	3461.1	
252.87	4494.6	
253.08	5537.7	
253.29	7289.4	
253.5	3511.6	
253.72	4855.7	
253.93	5374.6	
254.14	6593.8	
254.35	3841.3	
254.56	3928	
254.77	5757.5	
254.98	5078.3	
255.19	3732.1	
255.41	4887.8	
255.62	5624.4	
255.83	6223.8	
256.04	4340.3	
256.25	4205.2	
256.46	6797.9	
256.67	5117.9	
256.88	4108.2	
257.09	4657.8	
257.31	5178.6	
257.52	5216.9	
257.73	5286.5	
257.94	3785.3	
258.15	5328.8	
258.36	5576.6	
258.57	4811.4	
258.78	3071.3	
258.99	6029.2	
259.2	5373.2	
259.41	3848.1	
259.63	3921.2	
259.84	6346	
260.05	6914.6	
260.26	5055.1	
260.47	3679.5	
260.68	6112.5	
260.89	5439.4	
261.1	4631.1	
261.31	3570.3	
261.52	6044.9	
261.73	6552.1	
261.95	4952.7	
262.16	4252.9	
262.37	6210.8	
262.58	6275	
262.79	4864.6	
263	3897.3	
263.21	5554.8	
263.42	5026.4	
263.63	3941	
263.84	3768.3	
264.05	6052.4	
264.26	6466.8	
264.47	4820.2	
264.69	4272.7	
264.9	6279.1	
265.11	5739.1	
265.32	3676.8	
265.53	3803.1	
265.74	5632.6	
265.95	4888.5	
266.16	4115.1	
266.37	4558.8	
266.58	5698.8	
266.79	5314.5	
267	3745.1	
267.21	3476.8	
267.42	5091.9	
267.63	5481	
267.84	3963.5	
268.06	3377.1	
268.27	5974.6	
268.48	6311.2	
268.69	3877.5	
268.9	4600.4	
269.11	6240.8	
269.32	5003.2	
269.53	3999.7	
269.74	3707.5	
269.95	5844.9	
270.16	4831.2	
270.37	4000.4	
270.58	4699.4	
270.79	5308.3	
271	6041.5	
271.21	4273.4	
271.42	3987.4	
271.63	5638.1	
271.84	5128.8	
272.05	3139.5	
272.26	3610.6	
272.47	5503.6	
272.68	5749.3	
272.89	3794.2	
273.11	4409.3	
273.32	5279.7	
273.53	6497.5	
273.74	4319.2	
273.95	4242	
274.16	6208.8	
274.37	5601.9	
274.58	4414.7	
274.79	3465.8	
275	5588.2	
275.21	6232.7	
275.42	5374.6	
275.63	4476.2	
275.84	5795.1	
276.05	7292.8	
276.26	4201.1	
276.47	3960.1	
276.68	5345.9	
276.89	6531.7	
277.1	4560.1	
277.31	3533.4	
277.52	5763.7	
277.73	5951.4	
277.94	3472.7	
278.15	3852.9	
278.36	5724.1	
278.57	5169.1	
278.78	3795.6	
278.99	4342.4	
279.2	5070.1	
279.41	5089.9	
279.62	5105.6	
279.83	3525.9	
280.04	6756.2	
280.25	5003.9	
280.46	5027.8	
280.67	3994.2	
280.88	5197.7	
281.09	6248.4	
281.3	4201.7	
281.51	5375.2	
281.72	5223.7	
281.93	6106.4	
282.14	3692.5	
282.35	4033.8	
282.56	6000.5	
282.77	5925.5	
282.98	3855.6	
283.19	4752	
283.4	7455.3	
283.61	5440.1	
283.82	3550.5	
284.03	4988.2	
284.24	5621.7	
284.45	6186.9	
284.66	4973.2	
284.87	4784.1	
285.08	6096.8	
285.29	6244.9	
285.5	3407.8	
285.71	3923.2	
285.92	6141.9	
286.12	6824.5	
286.33	4950.6	
286.54	3837.9	
286.75	6027.2	
286.96	5369.1	
287.17	3556	
287.38	4904.9	
287.59	5167	
287.8	5059.8	
288.01	3896.6	
288.22	4489.1	
288.43	6131.6	
288.64	5054.4	
288.85	4650.3	
289.06	4428.4	
289.27	5961.6	
289.48	6508.4	
289.69	5057.8	
289.9	4517.1	
290.11	6176.7	
290.32	5251	
290.53	4698.7	
290.74	4293.9	
290.94	5913.2	
291.15	6011.5	
291.36	3785.3	
291.57	4431.1	
291.78	5312.4	
291.99	4898.7	
292.2	3545	
292.41	4378.6	
292.62	6102.3	
292.83	5887.2	
293.04	5376.6	
293.25	3638.6	
293.46	5250.3	
293.67	6144.6	
293.88	3753.9	
294.09	3616	
294.29	5068	
294.5	5589.6	
294.71	4008.6	
294.92	3833.8	
295.13	5317.2	
295.34	6666.8	
295.55	3345	
295.76	3662.5	
295.97	5957.5	
296.18	6782.9	
296.39	3562.1	
296.6	3766.9	
296.81	5667.4	
297.01	5906.3	
297.22	3911.6	
297.43	3719.8	
297.64	5105.6	
297.85	5120.6	
298.06	3054.9	
298.27	3358.7	
298.48	5603.2	
298.69	5223.7	
298.9	4080.9	
299.11	3691.8	
299.31	5038.7	
299.52	5023.7	
299.73	4323.9	
299.94	4294.6	
300.15	5511.1	
300.36	5117.9	
300.57	4275.5	
300.78	4269.3	
300.99	5386.8	
301.2	5705	
301.4	3695.9	
301.61	4040.6	
301.82	5874.3	
302.03	5970.5	
302.24	4614.8	
302.45	3540.3	
302.66	5853.1	
302.87	6335.7	
303.08	3751.9	
303.29	5126.1	
303.49	5242.1	
303.7	5562.3	
303.91	3311.6	
304.12	4866	
304.33	5057.8	
304.54	5641.5	
304.75	3776.5	
304.96	3627	
305.16	5856.5	
305.37	6644.3	
305.58	3338.2	
305.79	3420.1	
306	5827.8	
306.21	4855.7	
306.42	3783.3	
306.63	5770.5	
306.83	5375.2	
307.04	6141.9	
307.25	4125.3	
307.46	4145.1	
307.67	4680.3	
307.88	5969.1	
308.09	3659.7	
308.29	3844	
308.5	5624.4	
308.71	6130.3	
308.92	4003.8	
309.13	3642.7	
309.34	5350	
309.55	5417.6	
309.75	4702.8	
309.96	4251.6	
310.17	5950.7	
310.38	5203.2	
310.59	4552	
310.8	4313.7	
311.01	5345.9	
311.21	5383.4	
311.42	3559.4	
311.63	3693.9	
311.84	5221.6	
312.05	5658.5	
312.26	4164.2	
312.46	4622.9	
312.67	5365	
312.88	5042.8	
313.09	3626.3	
313.3	3492.5	
313.51	6305.7	
313.71	6707.8	
313.92	3558	
314.13	3798.3	
314.34	5723.4	
314.55	5463.3	
314.76	4709	
314.96	4080.9	
315.17	5642.2	
315.38	5970.5	
315.59	3633.1	
315.8	3433.1	
316.01	6444.3	
316.21	6490.7	
316.42	3506.8	
316.63	4002.4	
316.84	5371.1	
317.05	6291.4	
317.26	4295.3	
317.46	3835.8	
317.67	5433.9	
317.88	5924.8	
318.09	4674.8	
318.3	3341.6	
318.5	5228.5	
318.71	5876.3	
318.92	5950	
319.13	4279.6	
319.34	5984.8	
319.54	6202.6	
319.75	3338.9	
319.96	3193.5	
320.17	5937.1	
320.38	6131.6	
320.58	3289	
320.79	3935.5	
321	6131.6	
321.21	6179.4	
321.42	4067.9	
321.62	3289	
321.83	5136.3	
322.04	5513.8	
322.25	3781.2	
322.46	3678.8	
322.66	5647.6	
322.87	5805.3	
323.08	4474.1	
323.29	3596.2	
323.5	6649.8	
323.7	5090.6	
323.91	4938.3	
324.12	4454.3	
324.33	5572.5	
324.53	5825.8	
324.74	4274.8	
324.95	4513	
325.16	4860.5	
325.37	5379.3	
325.57	3681.6	
325.78	3719.8	
325.99	5569.8	
326.2	5027.1	
326.4	5331.5	
326.61	3328.6	
326.82	5446.9	
327.03	5619.6	
327.24	5180.7	
327.44	4916.5	
327.65	5824.4	
327.86	4665.3	
328.07	4291.9	
328.27	3478.1	
328.48	6199.2	
328.69	5076.9	
328.9	5274.9	
329.1	3876.1	
329.31	5484.5	
329.52	6423.1	
329.73	3631	
329.93	4096.6	
330.14	5531.6	
330.35	5771.9	
330.56	6027.2	
330.76	4516.5	
330.97	5325.4	
331.18	5770.5	
331.39	4036.5	
331.59	3255.6	
331.8	6139.8	
332.01	6318.7	
332.22	3740.3	
332.42	4296	
332.63	5695.4	
332.84	5232.6	
333.05	4078.9	
333.25	3717.1	
333.46	5284.4	
333.67	5522.7	
333.88	3784.6	
334.08	4268	
334.29	7694.2	
334.5	6251.8	
334.7	3513.6	
334.91	5226.4	
335.12	5056.4	
335.33	5977.3	
335.53	4070.7	
335.74	6017.6	
335.95	5326.1	
336.16	5111.7	
336.36	4046.8	
336.57	4609.3	
336.78	4986.8	
336.98	6208.8	
337.19	5005.9	
337.4	3947.8	
337.61	6713.2	
337.81	5009.3	
338.02	3738.9	
338.23	4854.4	
338.43	6334.4	
338.64	5168.4	
338.85	3649.5	
339.05	4786.8	
339.26	6380.1	
339.47	4995.7	
339.68	3635.1	
339.88	5392.3	
340.09	5783.5	
340.3	6016.9	
340.5	4331.5	
340.71	3296.5	
340.92	4987.5	
341.13	6298.9	
341.33	3536.2	
341.54	4317.1	
341.75	5753.4	
341.95	5372.5	
342.16	4098	
342.37	4447.5	
342.57	5110.4	
342.78	5544.5	
342.99	4558.1	
343.19	3250.1	
343.4	5990.3	
343.61	5801.2	
343.81	3859.7	
344.02	3594.2	
344.23	5988.9	
344.43	6451.8	
344.64	4541.7	
344.85	4404.5	
345.06	5819.6	
345.26	6187.6	
345.47	4194.9	
345.68	4935.6	
345.88	4843.4	
346.09	6059.9	
346.3	4334.2	
346.5	3224.9	
346.71	5571.8	
346.92	5281.7	
347.12	3363.4	
347.33	4251.6	
347.54	6197.8	
347.74	6535.8	
347.95	4145.8	
348.16	3070.6	
348.36	5322.7	
348.57	5126.7	
348.78	4089.8	
348.98	4523.3	
349.19	5453.7	
349.39	5010.7	
349.6	3338.9	
349.81	3745.7	
350.01	5780.1	
350.22	5236.7	
350.43	4028.4	
350.63	4899.4	
350.84	5621	
351.05	5292.6	
351.25	3654.9	
351.46	3282.9	
351.67	6139.8	
351.87	5182.7	
352.08	3884.3	
352.29	4526.7	
352.49	6020.3	
352.7	5737	
352.9	3542.3	
353.11	4411.3	
353.32	6746	
353.52	5283.1	
353.73	3502	
353.94	4530.1	
354.14	5870.8	
354.35	5665.4	
354.55	3655.6	
354.76	4057	
354.97	5814.2	
355.17	5627.8	
355.38	3390.1	
355.59	4818.9	
355.79	5255.1	
356	5687.2	
356.2	4069.3	
356.41	3467.2	
356.62	4939.7	
356.82	5445.5	
357.03	4350.6	
357.24	3831.7	
357.44	5249.6	
357.65	5360.2	
357.85	5214.8	
358.06	4126.7	
358.27	4956.8	
358.47	5190.9	
358.68	3366.2	
358.88	4362.9	
359.09	5802.6	
359.3	6213.5	
359.5	5051.7	
359.71	4470	
359.91	6681.2	
360.12	6019.7	
360.33	4235.2	
360.53	4846.9	
360.74	5182	
360.94	5272.2	
361.15	4524	
361.36	3712.3	
361.56	6050.4	
361.77	5408.7	
361.97	5064.6	
362.18	3988.1	
362.38	6072.2	
362.59	5108.3	
362.8	3594.2	
363	3467.2	
363.21	4870.8	
363.41	5575.3	
363.62	4173.8	
363.83	5265.3	
364.03	5718.6	
364.24	6789.7	
364.44	5402.5	
364.65	5255.8	
364.85	5492	
365.06	5057.8	
365.27	3847.5	
365.47	3865.9	
365.68	6434.7	
365.88	5461.9	
366.09	4244.8	
366.29	3934.8	
366.5	5710.4	
366.71	6113.9	
366.91	5299.5	
367.12	4414.7	
367.32	6819.7	
367.53	6006.7	
367.73	4391.5	
367.94	5362.3	
368.14	5993.7	
368.35	6911.9	
368.56	4468	
368.76	4128	
368.97	6067.4	
369.17	7811	
369.38	3864.5	
369.58	4138.3	
369.79	5054.4	
369.99	6445	
370.2	5208	
370.4	4196.3	
370.61	5768.4	
370.82	6982.2	
371.02	4095.9	
371.23	3414.6	
371.43	4986.8	
371.64	6374.6	
371.84	4163.5	
372.05	5386.2	
372.25	7703.1	
372.46	6121.4	
372.66	4177.2	
372.87	4049.5	
373.07	6157.6	
373.28	7849.9	
373.48	5183.4	
373.69	4902.2	
373.9	5619.6	
374.1	5640.8	
374.31	5187.5	
374.51	4691.2	
374.72	6462.7	
374.92	5307	
375.13	5304.2	
375.33	4508.9	
375.54	6036.7	
375.74	5464.7	
375.95	4518.5	
376.15	5876.3	
376.36	5995.8	
376.56	5855.8	
376.77	4635.9	
376.97	5110.4	
377.18	7121.5	
377.38	6133.7	
377.59	5414.1	
377.79	4106.9	
378	5936.4	
378.2	6445	
378.41	4223.6	
378.61	4135.5	
378.82	6417	
379.02	5507	
379.23	4390.8	
379.43	5580	
379.64	6529.6	
379.84	6151.4	
380.05	4179.2	
380.25	4132.8	
380.46	6299.6	
380.66	5806.7	
380.87	5599.1	
381.07	5885.9	
381.28	6894.1	
381.48	6272.9	
381.69	4216.1	
381.89	4287.1	
382.1	5112.4	
382.3	6448.4	
382.51	5467.4	
382.71	6374.6	
382.91	6305.7	
383.12	6763.8	
383.32	4622.3	
383.53	4814.1	
383.73	6104.3	
383.94	5866.1	
384.14	4721.9	
384.35	3867.9	
384.55	5820.3	
384.76	6344.6	
384.96	4624.3	
385.17	4905.6	
385.37	6222.4	
385.58	5546.6	
385.78	4965	
385.98	3775.1	
386.19	5706.3	
386.39	6099.5	
386.6	4358.8	
386.8	4674.1	
387.01	6227.9	
387.21	6267.5	
387.42	5080.3	
387.62	5733.6	
387.83	5553.4	
388.03	6279.1	
388.23	4702.8	
388.44	5503.6	
388.64	5188.9	
388.85	5355.4	
389.05	5098.1	
389.26	5792.3	
389.46	7031.4	
389.67	6738.5	
389.87	4980.7	
390.07	5081	
390.28	5935.7	
390.48	5423.7	
390.69	4321.2	
390.89	4552	
391.1	5681.7	
391.3	6665.5	
391.5	5879	
391.71	6504.3	
391.91	6352.8	
392.12	7458	
392.32	5922	
392.53	5151.3	
392.73	5709.1	
392.93	5943.9	
393.14	4792.9	
393.34	5599.1	
393.55	6494.8	
393.75	5964.4	
393.95	4752.7	
394.16	4693.9	
394.36	5616.2	
394.57	6447	
394.77	4191.5	
394.98	4635.9	
395.18	5674.9	
395.38	5870.2	
395.59	5615.5	
395.79	4437.3	
396	5782.8	
396.2	6295.5	
396.4	5369.1	
396.61	5280.3	
396.81	6548	
397.02	5831.9	
397.22	5603.2	
397.42	5713.2	
397.63	6546.7	
397.83	5695.4	
398.04	4491.9	
398.24	4997.7	
398.44	6304.3	
398.65	5372.5	
398.85	4257	
399.05	4484.4	
399.26	5760.3	
399.46	7485.3	
399.67	4885.1	
399.87	4544.4	
400.07	6179.4	
400.28	6490	
400.48	4689.2	
400.69	5779.4	
400.89	6789.7	
401.09	7208.2	
401.3	4469.4	
401.5	5795.8	
401.7	7546.1	
401.91	7772	
402.11	4987.5	
402.32	5250.3	
402.52	6784.9	
402.72	6722.8	
402.93	5414.8	
403.13	4203.8	
403.33	7529	
403.54	6129.6	
403.74	5104.2	
403.94	5952.8	
404.15	6217.6	
404.35	7431.4	
404.56	4762.2	
404.76	6774	
404.96	6660	
405.17	6464.1	
405.37	6170.5	
405.57	5405.3	
405.78	6909.8	
405.98	6199.9	
406.18	4847.5	
406.39	5846.3	
406.59	6781.5	
406.79	6448.4	
407	4626.4	
407.2	4788.8	
407.4	6715.3	
407.61	6974.7	
407.81	4724.7	
408.01	6825.2	
408.22	5690.6	
408.42	7817.8	
408.62	5980.1	
408.83	5412.1	
409.03	6440.2	
409.23	6253.8	
409.44	5549.3	
409.64	5931.6	
409.84	7434.8	
410.05	7430.7	
410.25	5810.8	
410.45	5481.7	
410.66	6886.6	
410.86	9448	
411.06	5992.4	
411.27	5881.8	
411.47	9342.2	
411.67	7158.3	
411.88	6187.6	
412.08	6492.1	
412.28	7807.5	
412.49	8423.3	
412.69	5947.3	
412.89	5957.5	
413.09	8202.8	
413.3	8036.9	
413.5	6079.1	
413.7	5689.9	
413.91	7225.9	
414.11	8168	
414.31	5905	
414.52	6472.9	
414.72	7889.5	
414.92	7823.9	
415.12	5988.3	
415.33	6447	
415.53	8159.1	
415.73	8428.8	
415.94	6962.4	
416.14	6204	
416.34	7197.9	
416.55	6901.7	
416.75	7613.7	
416.95	6993.8	
417.15	8249.9	
417.36	8949.6	
417.56	7832.8	
417.76	6808.1	
417.97	8638.3	
418.17	8301.8	
418.37	6344.6	
418.57	6571.9	
418.78	8088.1	
418.98	7797.3	
419.18	7445	
419.38	7310.6	
419.59	7789.1	
419.79	7372.7	
419.99	6389	
420.2	6819.7	
420.4	8345.5	
420.6	8458.1	
420.8	6232.7	
421.01	6051.1	
421.21	8170	
421.41	8432.2	
421.61	6735.1	
421.82	6391.7	
422.02	7620.5	
422.22	8577.6	
422.42	7279.8	
422.63	6835.4	
422.83	7797.3	
423.03	9088.2	
423.23	6875.7	
423.44	5771.2	
423.64	7840.3	
423.84	7571.3	
424.04	6298.2	
424.25	5937.7	
424.45	8805.6	
424.65	8686.8	
424.85	5651.7	
425.06	6349.4	
425.26	8738.7	
425.46	7294.2	
425.66	6855.9	
425.87	6526.2	
426.07	8535.9	
426.27	8355	
426.47	6686.6	
426.67	5911.8	
426.88	8834.3	
427.08	8202.1	
427.28	6937.8	
427.48	5857.2	
427.69	7006.8	
427.89	7805.5	
428.09	6974	
428.29	5995.8	
428.5	8510.7	
428.7	7990.5	
428.9	5819	
429.1	6477.7	
429.3	7937.9	
429.51	8506.6	
429.71	6138.4	
429.91	7058	
430.11	8274.5	
430.31	8639.7	
430.52	6567.2	
430.72	6907.1	
430.92	8931.9	
431.12	8419.9	
431.32	6257.9	
431.53	6638.1	
431.73	7292.8	
431.93	9058.8	
432.13	6102.9	
432.33	6059.9	
432.54	7769.3	
432.74	8202.8	
432.94	5967.1	
433.14	7014.3	
433.34	8378.2	
433.55	7828.7	
433.75	7062.8	
433.95	8961.9	
434.15	8169.3	
434.35	7883.3	
434.56	6206.7	
434.76	5799.8	
434.96	8134.5	
435.16	8426	
435.36	6138.4	
435.56	7306.5	
435.77	7818.5	
435.97	8056.7	
436.17	8044.4	
436.37	7274.4	
436.57	7806.9	
436.78	7834.2	
436.98	8351.6	
437.18	7899	
437.38	8618.5	
437.58	8048.5	
437.78	8131.8	
437.99	6670.9	
438.19	8538	
438.39	9358.5	
438.59	6522.1	
438.79	5927.5	
438.99	9232.9	
439.2	7890.1	
439.4	6081.8	
439.6	6100.2	
439.8	8398.7	
440	9390.6	
440.2	7205.4	
440.4	7374.1	
440.61	8789.9	
440.81	9448.6	
441.01	6464.8	
441.21	7552.9	
441.41	9418.6	
441.61	8950.3	
441.81	7787.1	
442.02	8906.6	
442.22	9895.8	
442.42	9042.5	
442.62	6583.5	
442.82	6666.1	
443.02	9401.5	
443.22	8396	
443.43	7105.1	
443.63	6658.6	
443.83	8215.1	
444.03	8326.4	
444.23	7989.1	
444.43	7527.7	
444.63	8650.6	
444.83	9960	
445.04	6832.7	
445.24	8135.9	
445.44	9060.9	
445.64	9123	
445.84	7599.3	
446.04	7716.7	
446.24	8384.4	
446.44	9471.9	
446.65	6782.2	
446.85	7182.2	
447.05	8681.3	
447.25	9377	
447.45	7159	
447.65	6571.9	
447.85	8617.2	
448.05	8254	
448.25	7644.4	
448.46	7540.6	
448.66	8688.8	
448.86	8316.8	
449.06	6421.7	
449.26	7687.4	
449.46	9124.4	
449.66	7963.2	
449.86	7266.2	
450.06	7231.4	
450.26	8305.9	
450.47	8878.6	
450.67	7445.7	
450.87	7973.4	
451.07	9009	
451.27	8813.1	
451.47	6760.3	
451.67	7471	
451.87	8483.4	
452.07	9663	
452.27	7137.9	
452.47	6996.5	
452.67	8743.5	
452.88	9387.9	
453.08	6296.8	
453.28	8537.3	
453.48	10008	
453.68	8614.4	
453.88	6923.5	
454.08	7162.4	
454.28	9098.4	
454.48	8748.2	
454.68	7772	
454.88	8311.3	
455.08	9222.7	
455.28	8952.4	
455.48	6856.6	
455.68	7569.3	
455.89	9846	
456.09	9566.7	
456.29	7235.5	
456.49	7357.7	
456.69	9743.6	
456.89	8911.4	
457.09	7905.8	
457.29	8252.6	
457.49	9332.6	
457.69	9491.7	
457.89	7768.6	
458.09	7198.6	
458.29	9158.5	
458.49	9979.8	
458.69	8280.6	
458.89	7660.1	
459.09	10204	
459.29	10410	
459.49	7830.1	
459.69	8675.2	
459.9	9735.4	
460.1	9291	
460.3	7613.7	
460.5	7461.4	
460.7	9700.5	
460.9	9457.5	
461.1	7107.8	
461.3	8570.1	
461.5	10556	
461.7	10056	
461.9	7695.6	
462.1	8162.5	
462.3	9521	
462.5	10307	
462.7	7797.3	
462.9	7925	
463.1	11441	
463.3	11084	
463.5	8204.8	
463.7	9222	
463.9	9911.5	
464.1	10377	
464.3	8522.3	
464.5	8673.8	
464.7	10638	
464.9	10423	
465.1	10115	
465.3	9078.6	
465.5	11071	
465.7	11026	
465.9	9388.6	
466.1	9093	
466.3	10912	
466.5	10598	
466.7	10199	
466.9	8956.4	
467.1	10645	
467.3	11658	
467.5	10073	
467.7	8934.6	
467.9	11940	
468.1	12899	
468.3	9798.8	
468.5	10299	
468.7	10778	
468.9	10692	
469.1	9424.8	
469.3	10046	
469.5	12875	
469.7	10266	
469.9	9720.3	
470.1	9066.4	
470.3	10753	
470.5	10813	
470.7	10510	
470.9	9185.8	
471.1	10660	
471.3	10867	
471.5	9029.5	
471.69	11017	
471.89	10394	
472.09	9957.2	
472.29	9781.8	
472.49	10116	
472.69	10102	
472.89	11097	
473.09	8938.7	
473.29	8987.9	
473.49	10244	
473.69	10488	
473.89	9865.1	
474.09	9156.5	
474.29	11785	
474.49	11413	
474.69	10002	
474.89	9283.4	
475.09	10501	
475.29	10434	
475.49	8566	
475.69	8925	
475.88	12107	
476.08	10751	
476.28	8628.8	
476.48	9021.3	
476.68	11163	
476.88	11068	
477.08	8962.6	
477.28	9250.7	
477.48	10352	
477.68	11167	
477.88	8592.6	
478.08	9000.1	
478.28	11594	
478.48	10606	
478.67	9038.4	
478.87	8408.3	
479.07	11417	
479.27	10693	
479.47	9261.6	
479.67	9277.3	
479.87	11088	
480.07	11706	
480.27	8558.5	
480.47	10275	
480.67	10776	
480.87	11476	
481.06	8887.5	
481.26	9756.5	
481.46	10829	
481.66	10690	
481.86	9374.2	
482.06	10480	
482.26	10426	
482.46	11422	
482.66	9256.8	
482.86	8845.9	
483.05	10873	
483.25	10208	
483.45	11939	
483.65	9303.9	
483.85	10457	
484.05	10774	
484.25	9733.3	
484.45	10309	
484.65	11652	
484.84	11751	
485.04	9247.3	
485.24	9233.6	
485.44	11993	
485.64	10264	
485.84	8629.5	
486.04	10064	
486.24	10675	
486.44	11151	
486.63	8566	
486.83	9451.4	
487.03	10581	
487.23	10857	
487.43	8794.7	
487.63	11243	
487.83	10892	
488.02	12007	
488.22	9879.4	
488.42	10555	
488.62	11894	
488.82	10816	
489.02	9417.2	
489.22	9585.2	
489.41	11817	
489.61	11407	
489.81	9289.6	
490.01	9239.8	
490.21	11671	
490.41	12476	
490.61	9203.6	
490.8	9387.9	
491	11182	
491.2	10364	
491.4	9975	
491.6	9040.4	
491.8	11073	
491.99	11252	
492.19	8829.5	
492.39	9282.1	
492.59	11647	
492.79	11742	
492.99	10196	
493.18	9265	
493.38	11904	
493.58	12813	
493.78	10213	
493.98	9708.7	
494.18	11662	
494.37	11147	
494.57	10553	
494.77	10301	
494.97	12144	
495.17	12355	
495.37	10011	
495.56	10387	
495.76	12749	
495.96	12266	
496.16	11454	
496.36	10375	
496.55	12569	
496.75	12091	
496.95	10791	
497.15	10549	
497.35	12443	
497.54	12562	
497.74	10422	
497.94	12153	
498.14	13283	
498.34	13078	
498.53	10148	
498.73	11047	
498.93	11847	
499.13	12502	
499.33	10850	
499.52	11170	
499.72	12628	
499.92	12875	
500.12	10647	
500.32	10858	
500.51	12940	
500.71	12749	
500.91	11678	
501.11	11194	
501.31	12811	
501.5	13338	
501.7	11948	
501.9	10912	
502.1	12613	
502.29	12932	
502.49	11427	
502.69	11787	
502.89	12885	
503.09	12728	
503.28	10251	
503.48	10381	
503.68	11910	
503.88	12043	
504.07	11445	
504.27	10787	
504.47	12314	
504.67	12395	
504.86	11271	
505.06	10929	
505.26	11888	
505.46	13953	
505.65	10761	
505.85	10968	
506.05	11723	
506.25	12399	
506.44	10019	
506.64	10993	
506.84	11686	
507.04	12712	
507.23	10109	
507.43	10771	
507.63	13739	
507.83	11931	
508.02	10691	
508.22	10302	
508.42	14015	
508.62	11630	
508.81	10591	
509.01	11229	
509.21	11439	
509.4	11683	
509.6	10815	
509.8	10056	
510	11830	
510.19	13394	
510.39	10109	
510.59	10281	
510.79	11611	
510.98	13092	
511.18	10326	
511.38	10477	
511.57	12411	
511.77	12344	
511.97	11077	
512.17	9934.7	
512.36	12382	
512.56	12364	
512.76	10075	
512.95	9792.7	
513.15	12512	
513.35	11071	
513.55	11016	
513.74	10134	
513.94	12523	
514.14	11911	
514.33	11178	
514.53	10920	
514.73	11809	
514.92	12045	
515.12	10368	
515.32	10151	
515.51	12155	
515.71	12695	
515.91	12035	
516.11	10318	
516.3	14037	
516.5	11751	
516.7	10938	
516.89	11459	
517.09	11771	
517.29	11795	
517.48	11121	
517.68	10479	
517.88	11636	
518.07	12329	
518.27	11109	
518.47	10082	
518.66	12852	
518.86	11477	
519.06	9878	
519.25	10408	
519.45	11722	
519.65	13500	
519.84	11183	
520.04	11888	
520.24	13785	
520.43	12398	
520.63	10576	
520.83	10396	
521.02	11611	
521.22	12248	
521.42	11040	
521.61	11630	
521.81	11779	
522.01	11985	
522.2	10858	
522.4	10566	
522.6	12400	
522.79	11276	
522.99	10648	
523.18	10032	
523.38	12256	
523.58	12415	
523.77	12276	
523.97	10185	
524.17	14381	
524.36	13480	
524.56	11680	
524.76	11355	
524.95	12566	
525.15	12187	
525.34	11110	
525.54	11286	
525.74	13123	
525.93	12046	
526.13	12482	
526.33	11288	
526.52	13498	
526.72	12930	
526.91	12695	
527.11	11814	
527.31	13412	
527.5	14169	
527.7	11666	
527.89	10800	
528.09	12568	
528.29	13123	
528.48	12336	
528.68	11740	
528.87	13562	
529.07	13467	
529.27	11666	
529.46	11269	
529.66	13200	
529.85	13528	
530.05	11146	
530.25	11942	
530.44	14584	
530.64	12953	
530.83	11649	
531.03	11805	
531.23	13454	
531.42	13377	
531.62	12698	
531.81	11740	
532.01	13706	
532.21	14281	
532.4	11529	
532.6	12084	
532.79	14704	
532.99	14059	
533.18	12196	
533.38	13239	
533.58	13625	
533.77	14381	
533.97	12176	
534.16	13166	
534.36	14697	
534.55	13782	
534.75	13178	
534.95	12286	
535.14	14562	
535.34	13766	
535.53	12012	
535.73	14157	
535.92	15044	
536.12	13768	
536.31	11989	
536.51	13183	
536.71	14043	
536.9	13588	
537.1	12144	
537.29	12415	
537.49	14531	
537.68	13594	
537.88	12706	
538.07	11941	
538.27	13889	
538.46	14901	
538.66	11815	
538.86	12261	
539.05	13865	
539.25	14413	
539.44	12659	
539.64	12169	
539.83	13700	
540.03	14932	
540.22	12222	
540.42	12101	
540.61	13824	
540.81	14004	
541	12537	
541.2	13287	
541.39	13340	
541.59	13779	
541.78	12845	
541.98	11893	
542.18	13028	
542.37	13090	
542.57	12158	
542.76	13011	
542.96	13072	
543.15	13709	
543.35	12170	
543.54	11475	
543.74	14009	
543.93	13581	
544.13	12043	
544.32	13219	
544.52	13746	
544.71	12875	
544.91	11128	
545.1	12321	
545.3	13010	
545.49	13723	
545.69	10978	
545.88	11667	
546.08	14627	
546.27	14310	
546.47	12206	
546.66	11444	
546.86	13835	
547.05	14551	
547.24	11598	
547.44	11562	
547.63	12713	
547.83	14036	
548.02	11962	
548.22	12003	
548.41	12493	
548.61	14040	
548.8	11358	
549	11316	
549.19	13130	
549.39	13579	
549.58	10991	
549.78	11714	
549.97	13657	
550.17	12985	
550.36	12527	
550.55	13600	
550.75	13035	
550.94	13943	
551.14	11161	
551.33	11559	
551.53	12286	
551.72	13413	
551.92	11600	
552.11	11322	
552.31	13478	
552.5	13368	
552.69	13086	
552.89	10962	
553.08	13315	
553.28	13001	
553.47	11440	
553.67	12549	
553.86	14048	
554.06	12194	
554.25	10426	
554.44	11170	
554.64	14619	
554.83	14170	
555.03	10977	
555.22	11447	
555.42	13368	
555.61	13046	
555.8	11217	
556	11462	
556.19	12230	
556.39	13463	
556.58	11335	
556.78	11071	
556.97	12940	
557.16	12624	
557.36	12612	
557.55	10846	
557.75	11833	
557.94	13807	
558.13	11041	
558.33	10758	
558.52	13593	
558.72	12321	
558.91	10829	
559.1	11099	
559.3	12093	
559.49	11635	
559.69	10350	
559.88	11388	
560.07	12819	
560.27	13287	
560.46	11422	
560.66	11771	
560.85	12658	
561.04	11846	
561.24	10664	
561.43	10787	
561.63	11918	
561.82	12299	
562.01	12228	
562.21	11166	
562.4	12656	
562.59	13874	
562.79	10977	
562.98	10742	
563.18	12605	
563.37	14290	
563.56	11746	
563.76	10598	
563.95	12250	
564.14	12126	
564.34	11096	
564.53	10718	
564.73	12751	
564.92	13183	
565.11	11361	
565.31	10668	
565.5	13413	
565.69	12295	
565.89	10887	
566.08	11205	
566.27	13243	
566.47	13739	
566.66	11780	
566.85	10492	
567.05	12846	
567.24	12175	
567.44	10796	
567.63	12259	
567.82	13093	
568.02	12772	
568.21	10785	
568.4	11208	
568.6	12699	
568.79	12737	
568.98	10729	
569.18	10988	
569.37	12768	
569.56	14965	
569.76	11209	
569.95	12377	
570.14	13188	
570.34	13069	
570.53	10701	
570.72	10709	
570.91	13680	
571.11	12596	
571.3	11155	
571.49	12245	
571.69	12691	
571.88	12153	
572.07	11825	
572.27	11753	
572.46	12174	
572.65	13255	
572.85	10931	
573.04	11441	
573.23	13527	
573.43	12838	
573.62	10726	
573.81	11501	
574	12893	
574.2	12646	
574.39	11209	
574.58	11460	
574.78	13905	
574.97	13214	
575.16	11814	
575.36	12130	
575.55	13571	
575.74	13789	
575.93	10861	
576.13	12129	
576.32	12908	
576.51	13575	
576.71	11428	
576.9	12906	
577.09	13820	
577.28	13278	
577.48	12066	
577.67	10877	
577.86	13004	
578.05	13308	
578.25	11566	
578.44	11719	
578.63	13131	
578.83	14455	
579.02	10979	
579.21	12561	
579.4	13326	
579.6	13097	
579.79	11809	
579.98	14076	
580.17	13691	
580.37	13834	
580.56	11236	
580.75	12049	
580.94	14259	
581.14	14083	
581.33	12482	
581.52	11361	
581.71	13627	
581.91	14296	
582.1	11122	
582.29	11757	
582.48	13119	
582.68	13145	
582.87	12183	
583.06	11873	
583.25	13596	
583.45	13380	
583.64	12557	
583.83	13378	
584.02	13039	
584.21	13674	
584.41	12598	
584.6	11777	
584.79	13296	
584.98	14175	
585.18	11301	
585.37	11257	
585.56	12736	
585.75	13629	
585.94	11450	
586.14	12221	
586.33	14085	
586.52	13300	
586.71	11921	
586.91	11584	
587.1	12478	
587.29	13575	
587.48	11330	
587.67	11302	
587.87	13253	
588.06	13370	
588.25	12607	
588.44	11909	
588.63	12913	
588.83	13552	
589.02	11224	
589.21	11161	
589.4	12457	
589.59	12353	
589.78	10008	
589.98	10357	
590.17	11721	
590.36	12321	
590.55	9482.1	
590.74	10202	
590.94	13450	
591.13	11933	
591.32	9996.8	
591.51	9525.8	
591.7	12402	
591.89	11970	
592.09	9606.3	
592.28	10256	
592.47	11175	
592.66	13205	
592.85	9854.8	
593.05	10001	
593.24	11753	
593.43	12596	
593.62	10055	
593.81	10605	
594	11824	
594.19	12043	
594.39	9991.4	
594.58	9994.1	
594.77	12245	
594.96	12836	
595.15	9796.8	
595.34	10493	
595.54	12201	
595.73	11238	
595.92	9142.8	
596.11	10318	
596.3	12763	
596.49	11199	
596.68	10142	
596.88	10587	
597.07	12411	
597.26	11181	
597.45	9572.9	
597.64	10933	
597.83	11418	
598.02	12124	
598.22	9693	
598.41	10525	
598.6	11878	
598.79	11139	
598.98	9777.7	
599.17	10766	
599.36	11799	
599.55	13132	
599.74	11991	
599.94	11704	
600.13	12501	
600.32	11168	
600.51	9587.9	
600.7	9644.6	
600.89	13073	
601.08	13166	
601.27	9452.1	
601.47	10486	
601.66	12367	
601.85	13178	
602.04	10134	
602.23	10449	
602.42	11314	
602.61	12153	
602.8	10090	
602.99	9901.2	
603.18	11725	
603.37	12049	
603.57	10514	
603.76	11128	
603.95	12768	
604.14	12325	
604.33	9975.7	
604.52	10359	
604.71	12016	
604.9	11712	
605.09	10928	
605.28	10753	
605.47	12600	
605.66	12336	
605.86	10567	
606.05	9970.2	
606.24	12620	
606.43	11141	
606.62	10275	
606.81	11124	
607	12353	
607.19	11787	
607.38	9600.2	
607.57	10017	
607.76	11464	
607.95	10883	
608.14	10301	
608.33	10981	
608.52	11447	
608.72	12493	
608.91	9519.6	
609.1	9514.9	
609.29	11486	
609.48	10899	
609.67	10398	
609.86	9453.4	
610.05	11037	
610.24	11391	
610.43	9300.5	
610.62	8903.9	
610.81	12538	
611	12407	
611.19	9457.5	
611.38	10133	
611.57	11718	
611.76	13067	
611.95	9159.9	
612.14	9138.7	
612.33	11447	
612.52	11024	
612.71	9839.8	
612.9	8958.5	
613.09	10616	
613.28	12936	
613.47	9369.5	
613.66	10361	
613.85	11637	
614.04	11067	
614.24	9553.8	
614.43	8844.5	
614.62	11756	
614.81	11701	
615	10214	
615.19	10216	
615.38	10960	
615.57	11309	
615.76	10006	
615.95	11043	
616.14	11831	
616.33	11475	
616.52	10194	
616.71	10632	
616.9	11666	
617.09	11500	
617.28	9604.3	
617.47	11052	
617.66	10891	
617.85	10945	
618.04	10725	
618.22	10142	
618.41	11163	
618.6	12261	
618.79	10023	
618.98	9853.5	
619.17	12593	
619.36	10869	
619.55	10003	
619.74	10075	
619.93	11787	
620.12	11321	
620.31	10665	
620.5	10757	
620.69	12496	
620.88	12921	
621.07	11559	
621.26	10638	
621.45	12120	
621.64	12157	
621.83	10692	
622.02	9824.8	
622.21	12127	
622.4	12050	
622.59	11293	
622.78	11069	
622.97	11583	
623.16	12573	
623.35	10619	
623.54	9692.4	
623.72	11684	
623.91	11886	
624.1	10933	
624.29	9485.5	
624.48	13208	
624.67	12237	
624.86	10785	
625.05	9803.6	
625.24	13129	
625.43	11434	
625.62	12588	
625.81	9936.7	
626	12458	
626.19	11757	
626.38	10907	
626.56	10235	
626.75	11641	
626.94	12353	
627.13	10720	
627.32	9458.2	
627.51	12079	
627.7	13663	
627.89	9494.4	
628.08	10777	
628.27	11271	
628.46	11452	
628.65	9862.3	
628.83	9371.5	
629.02	12096	
629.21	11437	
629.4	10308	
629.59	10482	
629.78	11327	
629.97	12283	
630.16	10623	
630.35	9956.5	
630.54	12704	
630.72	12482	
630.91	9993.4	
631.1	10512	
631.29	11945	
631.48	12100	
631.67	10651	
631.86	10159	
632.05	11439	
632.24	11626	
632.42	9659.6	
632.61	10503	
632.8	11660	
632.99	11243	
633.18	10363	
633.37	10816	
633.56	11972	
633.75	11826	
633.93	10294	
634.12	10034	
634.31	12664	
634.5	12373	
634.69	10096	
634.88	10530	
635.07	11689	
635.25	12263	
635.44	11082	
635.63	11212	
635.82	11481	
636.01	10976	
636.2	10870	
636.39	10528	
636.57	12757	
636.76	12321	
636.95	9975.7	
637.14	11267	
637.33	12024	
637.52	12975	
637.7	9584.5	
637.89	10655	
638.08	11560	
638.27	13044	
638.46	10777	
638.65	11265	
638.83	12938	
639.02	11333	
639.21	10469	
639.4	11016	
639.59	11716	
639.78	11376	
639.96	9762	
640.15	9728.5	
640.34	11548	
640.53	11744	
640.72	9377.6	
640.91	9747	
641.09	10880	
641.28	12359	
641.47	9725.8	
641.66	10640	
641.85	11618	
642.03	11904	
642.22	10314	
642.41	9808.4	
642.6	10986	
642.79	10398	
642.97	9501.9	
643.16	10304	
643.35	10901	
643.54	10686	
643.73	9293	
643.91	10240	
644.1	10446	
644.29	11203	
644.48	9381.7	
644.67	9407.7	
644.85	10613	
645.04	10914	
645.23	8828.8	
645.42	9213.8	
645.6	10353	
645.79	11494	
645.98	9075.2	
646.17	8028.7	
646.36	9947.7	
646.54	10565	
646.73	9788.6	
646.92	8510.7	
647.11	10077	
647.29	11201	
647.48	8561.2	
647.67	8274.5	
647.86	11511	
648.05	11410	
648.23	8869.1	
648.42	10234	
648.61	10805	
648.8	10484	
648.98	8488.1	
649.17	8772.8	
649.36	10032	
649.55	9550.4	
649.73	8614.4	
649.92	9460.9	
650.11	10003	
650.3	10286	
650.48	8711.4	
650.67	8507.9	
650.86	10537	
651.05	9374.9	
651.23	8600.1	
651.42	8512.7	
651.61	9929.2	
651.79	9990.7	
651.98	8792.6	
652.17	8312	
652.36	10426	
652.54	9555.8	
652.73	8488.8	
652.92	8265.6	
653.11	10535	
653.29	10486	
653.48	7602.7	
653.67	8691.6	
653.85	10138	
654.04	11282	
654.23	8884.1	
654.42	8204.8	
654.6	9430.9	
654.79	10140	
654.98	7697.6	
655.16	8178.2	
655.35	9004.2	
655.54	8922.3	
655.73	7741.3	
655.91	7636.9	
656.1	10142	
656.29	9004.9	
656.47	7216.4	
656.66	9034.3	
656.85	9328.5	
657.03	9330.5	
657.22	7817.1	
657.41	7944.8	
657.59	9438.4	
657.78	9272.5	
657.97	7688.8	
658.16	8492.9	
658.34	10150	
658.53	10571	
658.72	9356.5	
658.9	9897.8	
659.09	9637.1	
659.28	9738.8	
659.46	8136.6	
659.65	8011.7	
659.84	9339.4	
660.02	9921	
660.21	8002.1	
660.4	8011	
660.58	10383	
660.77	9769.5	
660.96	8602.2	
661.14	7578.8	
661.33	10840	
661.52	10785	
661.7	7515.4	
661.89	11407	
662.08	9294.4	
662.26	8913.4	
662.45	7681.9	
662.64	7849.2	
662.82	10020	
663.01	9175.6	
663.2	7993.2	
663.38	8775.5	
663.57	9869.2	
663.75	9855.5	
663.94	8249.2	
664.13	9594.7	
664.31	9260.2	
664.5	9956.5	
664.69	8727.1	
664.87	9114.1	
665.06	8985.8	
665.25	9796.8	
665.43	9272.5	
665.62	9418.6	
665.8	10181	
665.99	9378.3	
666.18	8159.8	
666.36	8308.6	
666.55	10060	
666.74	9996.8	
666.92	7830.7	
667.11	9579.7	
667.29	9329.2	
667.48	10002	
667.67	9232.9	
667.85	8158.4	
668.04	9374.2	
668.22	9346.9	
668.41	8247.2	
668.6	8404.9	
668.78	9210.4	
668.97	9385.8	
669.15	8675.9	
669.34	7481.9	
669.53	9151.7	
669.71	9617.9	
669.9	7747.5	
670.08	8426.7	
670.27	9171.5	
670.46	9729.9	
670.64	8629.5	
670.83	8888.2	
671.01	8993.3	
671.2	9712.8	
671.38	7748.1	
671.57	7597.3	
671.76	10322	
671.94	11040	
672.13	7577.5	
672.31	8702.5	
672.5	9910.1	
672.69	9178.3	
672.87	7722.9	
673.06	8150.9	
673.24	9745.6	
673.43	9204.9	
673.61	8553.7	
673.8	8108.6	
673.98	9990.7	
674.17	10039	
674.36	8722.3	
674.54	8523	
674.73	9724.4	
674.91	10006	
675.1	8269.7	
675.28	7865.6	
675.47	9501.2	
675.65	10064	
675.84	8140	
676.03	8398.7	
676.21	9099.8	
676.4	8700.5	
676.58	8954.4	
676.77	8692.3	
676.95	10683	
677.14	9084.8	
677.32	7761.8	
677.51	7507.2	
677.69	9909.4	
677.88	8825.4	
678.06	7627.3	
678.25	7704.5	
678.44	9378.3	
678.62	9209	
678.81	7367.2	
678.99	8547.5	
679.18	10277	
679.36	9796.8	
679.55	7994.6	
679.73	8739.4	
679.92	9706.7	
680.1	9054.8	
680.29	9308	
680.47	8008.2	
680.66	9059.5	
680.84	9981.1	
681.03	7319.4	
681.21	8344.8	
681.4	9186.5	
681.58	9003.6	
681.77	7724.9	
681.95	7636.9	
682.14	9944.9	
682.32	10183	
682.51	8692.9	
682.69	7487.4	
682.88	9026.1	
683.06	9736.7	
683.25	8286.8	
683.43	8888.9	
683.62	9318.9	
683.8	9727.9	
683.99	8802.9	
684.17	8132.5	
684.36	10520	
684.54	9037	
684.73	7155.6	
684.91	7365.9	
685.1	9276.6	
685.28	8600.8	
685.46	7788.4	
685.65	7817.1	
685.83	9331.9	
686.02	8663.6	
686.2	7186.3	
686.39	7357.7	
686.57	8589.9	
686.76	10118	
686.94	7291.5	
687.13	7532.4	
687.31	9291	
687.5	8837.7	
687.68	6821.1	
687.86	8242.4	
688.05	10582	
688.23	8284.7	
688.42	8284	
688.6	7453.9	
688.79	8686.1	
688.97	8794.7	
689.16	7873.8	
689.34	6764.4	
689.52	9650.7	
689.71	9738.8	
689.89	8239	
690.08	7552.9	
690.26	9039.7	
690.45	8968.7	
690.63	8324.3	
690.81	7589.8	
691	8649.9	
691.18	8675.9	
691.37	7709.9	
691.55	9953.8	
691.74	8536.6	
691.92	10676	
692.1	7702.4	
692.29	7003.4	
692.47	8842.4	
692.66	7970	
692.84	7227.3	
693.02	7872.4	
693.21	8181	
693.39	8746.9	
693.58	8039	
693.76	7402.7	
693.94	10093	
694.13	9882.1	
694.31	7348.8	
694.5	8517.5	
694.68	8693.6	
694.86	9107.3	
695.05	7888.8	
695.23	7973.4	
695.42	9505.3	
695.6	12037	
695.78	8589.9	
695.97	7574.8	
696.15	9553.1	
696.34	8979	
696.52	7311.9	
696.7	8143.4	
696.89	9243.2	
697.07	8603.5	
697.25	7937.9	
697.44	9685.5	
697.62	9058.2	
697.81	9401.5	
697.99	7649.8	
698.17	8167.3	
698.36	8354.3	
698.54	9015.8	
698.72	7954.3	
698.91	6883.2	
699.09	8609.7	
699.28	8590.5	
699.46	7576.8	
699.64	7420.5	
699.83	8418.5	
700.01	9691.7	
700.19	8344.8	
700.38	6732.4	
700.56	9796.1	
700.74	8616.5	
700.93	7165.8	
701.11	8098.4	
701.29	9232.9	
701.48	10369	
701.66	7454.6	
701.84	7552.9	
702.03	8763.9	
702.21	9583.8	
702.39	6974	
702.58	7653.9	
702.76	9176.9	
702.94	9389.3	
703.13	7075.7	
703.31	9477.3	
703.49	8418.5	
703.68	9794.8	
703.86	7273	
704.04	8305.2	
704.23	9049.3	
704.41	9463	
704.59	7302.4	
704.78	8698.4	
704.96	10206	
705.14	9474.6	
705.33	7106.5	
705.51	7993.9	
705.69	8842.4	
705.87	9671.2	
706.06	8239	
706.24	7026.6	
706.42	9153.1	
706.61	9480	
706.79	8360.5	
706.97	7171.3	
707.16	8600.1	
707.34	9165.3	
707.52	8328.4	
707.7	7361.8	
707.89	8733.9	
708.07	8452	
708.25	8243.8	
708.44	8465.6	
708.62	8613.8	
708.8	9945.6	
708.98	8615.8	
709.17	7388.4	
709.35	9212.4	
709.53	9140.8	
709.72	7133.8	
709.9	7271	
710.08	9388.6	
710.26	9291.6	
710.45	8880.7	
710.63	7676.5	
710.81	8944.8	
710.99	8890.9	
711.18	8132.5	
711.36	7553.6	
711.54	8781	
711.72	9476	
711.91	7525.6	
712.09	6886	
712.27	8884.8	
712.45	9678	
712.64	7797.3	
712.82	6614.9	
713	8249.2	
713.18	8334.6	
713.37	6685.9	
713.55	7899.7	
713.73	9182.4	
713.91	7536.5	
714.1	6971.3	
714.28	6305	
714.46	8501.1	
714.64	7647.8	
714.83	5535	
715.01	6337.8	
715.19	7570	
715.37	6964.5	
715.55	5986.9	
715.74	6331.6	
715.92	8517.5	
716.1	6442.9	
716.28	7486.7	
716.47	6403.3	
716.65	7081.2	
716.83	7198.6	
717.01	6314.6	
717.19	6396.5	
717.38	9489.6	
717.56	6866.8	
717.74	6602	
717.92	5632.6	
718.1	8125	
718.29	7368.6	
718.47	5431.2	
718.65	6139.1	
718.83	8305.9	
719.01	8245.8	
719.2	5352	
719.38	6595.8	
719.56	7906.5	
719.74	9551	
719.92	6042.9	
720.11	7147.4	
720.29	7865.6	
720.47	6922.8	
720.65	5556.1	
720.83	6388.3	
721.02	7208.8	
721.2	6947.4	
721.38	6282.5	
721.56	5629.2	
721.74	6419.7	
721.92	6620.4	
722.11	6924.2	
722.29	6541.2	
722.47	7935.9	
722.65	7030.7	
722.83	5600.5	
723.01	6675	
723.2	7191.8	
723.38	7453.9	
723.56	5038.7	
723.74	6256.5	
723.92	6565.8	
724.1	7813.7	
724.29	5483.1	
724.47	6782.2	
724.65	6685.3	
724.83	6577.4	
725.01	5363.6	
725.19	6393.8	
725.37	6636.1	
725.56	6724.2	
725.74	5257.1	
725.92	5563	
726.1	6573.3	
726.28	6983.6	
726.46	6016.9	
726.64	5673.6	
726.83	6878.4	
727.01	7208.8	
727.19	5246.9	
727.37	6144.6	
727.55	7055.9	
727.73	7608.2	
727.91	5226.4	
728.09	5044.1	
728.28	7598.6	
728.46	8224	
728.64	6216.3	
728.82	6238.8	
729	8787.8	
729.18	7983.7	
729.36	5467.4	
729.54	7883.3	
729.72	9233.6	
729.91	7413.6	
730.09	7571.3	
730.27	6197.2	
730.45	7275.8	
730.63	7975.5	
730.81	6911.9	
730.99	5960.3	
731.17	8563.2	
731.35	7025.2	
731.53	6500.9	
731.71	6055.2	
731.9	8297	
732.08	8427.4	
732.26	6406.7	
732.44	5966.4	
732.62	8481.3	
732.8	7953.6	
732.98	6744.6	
733.16	5646.9	
733.34	7822.6	
733.52	6612.2	
733.7	6247	
733.88	6555.5	
734.07	7707.9	
734.25	7488.7	
734.43	5681.7	
734.61	7398.6	
734.79	9021.3	
734.97	7344	
735.15	5814.2	
735.33	6095.4	
735.51	7643.7	
735.69	7296.2	
735.87	7387	
736.05	6428.6	
736.23	7548.8	
736.41	7281.9	
736.59	6227.2	
736.77	6409.5	
736.95	8127	
737.13	7494.2	
737.32	5881.1	
737.5	6173.3	
737.68	8681.3	
737.86	7303.1	
738.04	5597.8	
738.22	7707.9	
738.4	7016.3	
738.58	7361.8	
738.76	6362.4	
738.94	5205.3	
739.12	7258	
739.3	7167.9	
739.48	7015	
739.66	6708.5	
739.84	7479.2	
740.02	7575.4	
740.2	5295.4	
740.38	5768.4	
740.56	7992.5	
740.74	6722.8	
740.92	6432	
741.1	6266.1	
741.28	7295.5	
741.46	7128.3	
741.64	5900.9	
741.82	6511.9	
742	7406.8	
742.18	7288.7	
742.36	6175.3	
742.54	5654.4	
742.72	7894.9	
742.9	6587.6	
743.08	6540.5	
743.26	5272.2	
743.44	8200.7	
743.62	7991.2	
743.8	6783.6	
743.98	5612.8	
744.16	7648.5	
744.34	7296.9	
744.52	6503.7	
744.7	6497.5	
744.88	7678.5	
745.06	7206.8	
745.24	6622.4	
745.42	6742.6	
745.6	7766.6	
745.78	7542	
745.96	5259.2	
746.14	5705.6	
746.32	8604.9	
746.5	7803.4	
746.68	6270.2	
746.86	5744.6	
747.03	8269.7	
747.21	6393.8	
747.39	6238.8	
747.57	5682.4	
747.75	7312.6	
747.93	7756.3	
748.11	5677	
748.29	5593	
748.47	8957.8	
748.65	7053.2	
748.83	6354.2	
749.01	6197.8	
749.19	7598.6	
749.37	6692.1	
749.55	6028.5	
749.73	6062	
749.91	7132.4	
750.09	6908.5	
750.26	6105.7	
750.44	5484.5	
750.62	7179.5	
750.8	7235.5	
750.98	5315.8	
751.16	5678.3	
751.34	7258.7	
751.52	6562.4	
751.7	6522.8	
751.88	5290.6	
752.06	7720.8	
752.24	7501	
752.42	5130.2	
752.59	5541.1	
752.77	7101	
752.95	8566	
753.13	6321.4	
753.31	5690.6	
753.49	6844.3	
753.67	7313.3	
753.85	5963.7	
754.03	5558.2	
754.21	7517.4	
754.38	7922.9	
754.56	5679.7	
754.74	4604.5	
754.92	6701.6	
755.1	7436.9	
755.28	4651.6	
755.46	4617.5	
755.64	8024.6	
755.82	8095.6	
755.99	4672.8	
756.17	4728.8	
756.35	5216.9	
756.53	6938.5	
756.71	3536.2	
756.89	4508.9	
757.07	6441.5	
757.25	5537	
757.42	5174.5	
757.6	6115.2	
757.78	6665.5	
757.96	5540.4	
758.14	4975.2	
758.32	4337.6	
758.5	5123.3	
758.67	5998.5	
758.85	4642.1	
759.03	4786.8	
759.21	6105	
759.39	5535	
759.57	4197.7	
759.75	5456.5	
759.92	6780.8	
760.1	6050.4	
760.28	5920.7	
760.46	6176	
760.64	5866.7	
760.82	5711.8	
760.99	5784.8	
761.17	4889.9	
761.35	6810.9	
761.53	5741.1	
761.71	5039.4	
761.89	5792.3	
762.06	6724.2	
762.24	6167.1	
762.42	5156.1	
762.6	4922.6	
762.78	6252.4	
762.96	6970.6	
763.13	5591	
763.31	5256.5	
763.49	7163.1	
763.67	6216.3	
763.85	6223.1	
764.02	6806.8	
764.2	7320.1	
764.38	6558.3	
764.56	5145.9	
764.74	6068.1	
764.91	7610.3	
765.09	6362.4	
765.27	4766.3	
765.45	4605.9	
765.63	7475.8	
765.8	7398.6	
765.98	4274.1	
766.16	4622.9	
766.34	5810.1	
766.52	5659.2	
766.69	5657.9	
766.87	4496	
767.05	6309.8	
767.23	7124.9	
767.41	4780.6	
767.58	4962.2	
767.76	6913.3	
767.94	6925.5	
768.12	4868	
768.29	5702.9	
768.47	6330.3	
768.65	7090.8	
768.83	4474.8	
769	5702.2	
769.18	5817.6	
769.36	6611.5	
769.54	5654.4	
769.72	4431.8	
769.89	6877.8	
770.07	6975.4	
770.25	4786.1	
770.43	6178.7	
770.6	7653.9	
770.78	8108.6	
770.96	5058.5	
771.14	5735	
771.31	6737.8	
771.49	6096.8	
771.67	4052.9	
771.85	4403.1	
772.02	5238.7	
772.2	6070.9	
772.38	5145.2	
772.55	4564.2	
772.73	6399.2	
772.91	6091.3	
773.09	4963.6	
773.26	5104.9	
773.44	6237.4	
773.62	5935.7	
773.8	4432.5	
773.97	4149.9	
774.15	6329.6	
774.33	5880.4	
774.5	4335.5	
774.68	4725.3	
774.86	6324.1	
775.04	5960.3	
775.21	4394.9	
775.39	4433.9	
775.57	6278.4	
775.74	6681.8	
775.92	4212	
776.1	4171	
776.27	6205.3	
776.45	7494.2	
776.63	4403.1	
776.81	3828.3	
776.98	5809.4	
777.16	6967.9	
777.34	4489.1	
777.51	4510.3	
777.69	5777.3	
777.87	5497.4	
778.04	4516.5	
778.22	5287.9	
778.4	5483.1	
778.57	6290	
778.75	3752.6	
778.93	4061.8	
779.1	5290.6	
779.28	5213.4	
779.46	3792.8	
779.64	4259.1	
779.81	6426.5	
779.99	7266.2	
780.17	5139.7	
780.34	5324	
780.52	5737	
780.69	6030.6	
780.87	4594.3	
781.05	4225	
781.22	5808	
781.4	5933.6	
781.58	4274.8	
781.75	3390.1	
781.93	5911.1	
782.11	5248.9	
782.28	5216.2	
782.46	4297.3	
782.64	5075.5	
782.81	6132.3	
782.99	4359.4	
783.17	4392.9	
783.34	5999.9	
783.52	5119.9	
783.69	4498.7	
783.87	5509	
784.05	5171.1	
784.22	5213.4	
784.4	5365	
784.58	4668	
784.75	6229.2	
784.93	5253.7	
785.1	4272.7	
785.28	4913.1	
785.46	5857.2	
785.63	5206.6	
785.81	4193.6	
785.99	4117.8	
786.16	5339.1	
786.34	5819.6	
786.51	4123.9	
786.69	4517.1	
786.87	4953.4	
787.04	5553.4	
787.22	3975.8	
787.39	5040.1	
787.57	5206.6	
787.75	6404.7	
787.92	5125.4	
788.1	5162.2	
788.27	5266.7	
788.45	4965	
788.63	4836.6	
788.8	3403	
788.98	5575.3	
789.15	4895.3	
789.33	3542.3	
789.5	4235.9	
789.68	6186.9	
789.86	6305	
790.03	4777.2	
790.21	4116.4	
790.38	6122.1	
790.56	5332.9	
790.73	3979.9	
790.91	3928	
791.09	5235.3	
791.26	5995.8	
791.44	4225.6	
791.61	3617.4	
791.79	5171.1	
791.96	5261.2	
792.14	3757.3	
792.32	3324.5	
792.49	5199.8	
792.67	5367.7	
792.84	3837.2	
793.02	3647.4	
793.19	5664.7	
793.37	6461.3	
793.54	3325.2	
793.72	3689.8	
793.89	6576.7	
794.07	5176.6	
794.25	4402.5	
794.42	3394.8	
794.6	6313.9	
794.77	5923.4	
794.95	4634.6	
795.12	4025.6	
795.3	5177.3	
795.47	5838.8	
795.65	4510.3	
795.82	4208.6	
796	5001.1	
796.17	7131.7	
796.35	4108.9	
796.52	4912.4	
796.7	5754.8	
796.87	5897.5	
797.05	5108.3	
797.22	5086.5	
797.4	5800.5	
797.57	6842.3	
797.75	4239.3	
797.92	4042	
798.1	6141.9	
798.27	5162.2	
798.45	3434.4	
798.62	3695.9	
798.8	5526.8	
798.97	6077	
799.15	4507.6	
799.32	4330.1	
799.5	4747.9	
799.67	5622.4	
799.85	4653.7	
800.02	3366.2	
800.2	5115.1	
800.37	5504.3	
800.55	4855.1	
800.72	4012.7	
800.9	5950	
801.07	6475	
801.25	5444.9	
801.42	4413.4	
801.6	5984.8	
801.77	5761.6	
801.95	4081.6	
802.12	3878.9	
802.29	5663.3	
802.47	5644.2	
802.64	4395.6	
802.82	3276.8	
802.99	5128.1	
803.17	6217.6	
803.34	4287.1	
803.52	3837.2	
803.69	6881.9	
803.87	4931.5	
804.04	4177.9	
804.21	4356.7	
804.39	6345.3	
804.56	5381.4	
804.74	3610.6	
804.91	4417.5	
805.09	5182.7	
805.26	5307	
805.44	3636.5	
805.61	4057	
805.78	5841.5	
805.96	5870.8	
806.13	4463.2	
806.31	4760.2	
806.48	4666.6	
806.66	5293.3	
806.83	4357.4	
807	4338.3	
807.18	5133.6	
807.35	5561.6	
807.53	4252.9	
807.7	3430.3	
807.87	6397.9	
808.05	5169.8	
808.22	4720.6	
808.4	3383.2	
808.57	5208	
808.74	4813.4	
808.92	3889.1	
809.09	5016.8	
809.27	5044.8	
809.44	5701.5	
809.61	3456.3	
809.79	3834.5	
809.96	6361	
810.14	6002.6	
810.31	3324.5	
810.48	4129.4	
810.66	5241.4	
810.83	6115.9	
811.01	3870.7	
811.18	4347.2	
811.35	6020.3	
811.53	4581.3	
811.7	4828.4	
811.87	4406.5	
812.05	5175.2	
812.22	5082.4	
812.39	3701.4	
812.57	3704.8	
812.74	5167	
812.92	7004.7	
813.09	4124.6	
813.26	4465.9	
813.44	6660.7	
813.61	5150.6	
813.78	3352.5	
813.96	4642.7	
814.13	5214.1	
814.3	4832.5	
814.48	4945.2	
814.65	4110.3	
814.82	6524.8	
815	4956.8	
815.17	4254.3	
815.34	5161.6	
815.52	5138.4	
815.69	5108.3	
815.87	4244.8	
816.04	3588	
816.21	5197.7	
816.38	4597.7	
816.56	4009.9	
816.73	3739.6	
816.9	6594.5	
817.08	6040.1	
817.25	3809.2	
817.42	4823	
817.6	4751.3	
817.77	5234.6	
817.94	4379.2	
818.12	3760.1	
818.29	4871.4	
818.46	7937.2	
818.64	3953.9	
818.81	3658.4	
818.98	4844.8	
819.16	7118.1	
819.33	4544.4	
819.5	4246.1	
819.67	5554.8	
819.85	6270.9	
820.02	4115.1	
820.19	4385.4	
820.37	5371.1	
820.54	4971.8	
820.71	4248.9	
820.88	5407.3	
821.06	5390.9	
821.23	4926.7	
821.4	4330.8	
821.58	4263.2	
821.75	5971.2	
821.92	5315.2	
822.09	3422.8	
822.27	3516.4	
822.44	5220.3	
822.61	5072.1	
822.79	3485.6	
822.96	6721.4	
823.13	5700.9	
823.3	4888.5	
823.48	4020.8	
823.65	3638.6	
823.82	5947.3	
823.99	4680.3	
824.17	5096	
824.34	3695.9	
824.51	6960.4	
824.68	5267.4	
824.86	3847.5	
825.03	4237.2	
825.2	5155.4	
825.37	6369.2	
825.55	3801	
825.72	4216.8	
825.89	7015	
826.06	6460.7	
826.24	4147.1	
826.41	4179.2	
826.58	6347.3	
826.75	5532.9	
826.92	3239.9	
827.1	3594.2	
827.27	8761.9	
827.44	6998.6	
827.61	3865.2	
827.79	4683	
827.96	4887.8	
828.13	5319.3	
828.3	4065.2	
828.47	3461.1	
828.65	5424.4	
828.82	5338.4	
828.99	5272.8	
829.16	4669.4	
829.34	5853.1	
829.51	5594.4	
829.68	4182.6	
829.85	4425.7	
830.02	6108.4	
830.2	5881.8	
830.37	3241.3	
830.54	5195	
830.71	6767.2	
830.88	5171.8	
831.05	3327.9	
831.23	3912.3	
831.4	6376.7	
831.57	7178.1	
831.74	3923.2	
831.91	3446.7	
832.09	5448.3	
832.26	5805.3	
832.43	4073.4	
832.6	4580.6	
832.77	5453.7	
832.94	6282.5	
833.12	3206.4	
833.29	4046.8	
833.46	5562.3	
833.63	7458.7	
833.8	4437.9	
833.97	4108.2	
834.15	5829.2	
834.32	5571.2	
834.49	4223.6	
834.66	4345.8	
834.83	6067.4	
835	4911.7	
835.17	3943	
835.35	3921.9	
835.52	5745.2	
835.69	5576.6	
835.86	4222.9	
836.03	3405.1	
836.2	5741.8	
836.37	5371.8	
836.55	4011.3	
836.72	3822.2	
836.89	5360.2	
837.06	5968.5	
837.23	4104.8	
837.4	4495.3	
837.57	6740.5	
837.75	7443.7	
837.92	3689.8	
838.09	3935.5	
838.26	5340.4	
838.43	6125.5	
838.6	4302.8	
838.77	3857.7	
838.94	7032	
839.11	6691.4	
839.29	4028.4	
839.46	3181.9	
839.63	5773.9	
839.8	5550.7	
839.97	3984	
840.14	3976.5	
840.31	5583.4	
840.48	5855.8	
840.65	3253.5	
840.82	3878.2	
841	5806.7	
841.17	5799.8	
841.34	3622.2	
841.51	3637.9	
841.68	5698.8	
841.85	5496.7	
842.02	3787.4	
842.19	3112.2	
842.36	5550.7	
842.53	5512.4	
842.7	3672	
842.87	4492.6	
843.05	7386.3	
843.22	5417.6	
843.39	3431	
843.56	3730.7	
843.73	5257.1	
843.9	5898.2	
844.07	5941.8	
844.24	4937	
844.41	8617.9	
844.58	5011.4	
844.75	3537.5	
844.92	3801.7	
845.09	5831.2	
845.26	5794.4	
845.43	3526.6	
845.6	3814.7	
845.77	5784.8	
845.94	5511.1	
846.12	3982.6	
846.29	4320.5	
846.46	6040.8	
846.63	5778	
846.8	3644	
846.97	4281.6	
847.14	6235.4	
847.31	5801.2	
847.48	4049.5	
847.65	4480.3	
847.82	6104.3	
847.99	6085.2	
848.16	4868.7	
848.33	4488.5	
848.5	5330.2	
848.67	6359.6	
848.84	3587.4	
849.01	3785.3	
849.18	5143.1	
849.35	4870.1	
849.52	4511.7	
849.69	3500.7	
849.86	5986.2	
850.03	6298.2	
850.2	3630.4	
850.37	4465.9	
850.54	6171.9	
850.71	5496.1	
850.88	4351.3	
851.05	3479.5	
851.22	5692	
851.39	6407.4	
851.56	3385.3	
851.73	4106.9	
851.9	5089.2	
852.07	6108.4	
852.24	4023.6	
852.41	3585.3	
852.58	5658.5	
852.75	5161.6	
852.92	4031.1	
853.09	3523.9	
853.26	5375.2	
853.43	6292	
853.6	3575.1	
853.77	3063.8	
853.94	6415.6	
854.11	5720	
854.28	5378.6	
854.44	3837.9	
854.61	6814.3	
854.78	6133	
854.95	3562.8	
855.12	4535.6	
855.29	4650.9	
855.46	6563.1	
855.63	3540.3	
855.8	5073.5	
855.97	5314.5	
856.14	6138.4	
856.31	5169.8	
856.48	3904.8	
856.65	5303.6	
856.82	5020.3	
856.99	3433.8	
857.16	3925.3	
857.33	7129.7	
857.49	5401.9	
857.66	3865.2	
857.83	4159.4	
858	5406	
858.17	5662	
858.34	3388.7	
858.51	3631	
858.68	6537.8	
858.85	6579.4	
859.02	4208.6	
859.19	4453	
859.36	5083.7	
859.52	5173.9	
859.69	3607.8	
859.86	4285	
860.03	5162.9	
860.2	6422.4	
860.37	3302.7	
860.54	3681.6	
860.71	6064	
860.88	6556.2	
861.05	4111	
861.21	4538.3	
861.38	6563.1	
861.55	4941.1	
861.72	3331.4	
861.89	4102.8	
862.06	6169.8	
862.23	6655.2	
862.4	3525.9	
862.56	3720.5	
862.73	5932.3	
862.9	5621.7	
863.07	4235.9	
863.24	3243.3	
863.41	4932.9	
863.58	5053	
863.75	3650.2	
863.91	4152.6	
864.08	6470.2	
864.25	5947.3	
864.42	4517.8	
864.59	5111.7	
864.76	6715.3	
864.93	5108.3	
865.09	3481.5	
865.26	3820.8	
865.43	6287.9	
865.6	6789	
865.77	3140.9	
865.94	3593.5	
866.1	6422.4	
866.27	6112.5	
866.44	5468.1	
866.61	3411.9	
866.78	5514.5	
866.95	5950.7	
867.11	3447.4	
867.28	3186.6	
867.45	6237.4	
867.62	5188.9	
867.79	4237.2	
867.96	3586.7	
868.12	5093.3	
868.29	6124.8	
868.46	3614.7	
868.63	4876.2	
868.8	6232	
868.97	6011.5	
869.13	3768.9	
869.3	3736.9	
869.47	5978.7	
869.64	6204	
869.81	3687	
869.97	3641.3	
870.14	5800.5	
870.31	6535.8	
870.48	3527.3	
870.65	4644.1	
870.81	5325.4	
870.98	5344.5	
871.15	4108.9	
871.32	3791.5	
871.48	5911.8	
871.65	6531.7	
871.82	3638.6	
871.99	3978.5	
872.16	7000	
872.32	6470.9	
872.49	3620.1	
872.66	3622.9	
872.83	6084.5	
872.99	5251.7	
873.16	4125.3	
873.33	3583.9	
873.5	5665.4	
873.67	5688.6	
873.83	3784.6	
874	4926.7	
874.17	5816.2	
874.34	6962.4	
874.5	4692.6	
874.67	4561.5	
874.84	6539.2	
875.01	5074.2	
875.17	5104.9	
875.34	3557.3	
875.51	5720.7	
875.68	6935.1	
875.84	4399.7	
876.01	5443.5	
876.18	6008.7	
876.34	5969.8	
876.51	3667.9	
876.68	3524.6	
876.85	5526.1	
877.01	6316.6	
877.18	5178.6	
877.35	3596.9	
877.52	5586.9	
877.68	4964.3	
877.85	3506.8	
878.02	3556.6	
878.18	5564.3	
878.35	5233.2	
878.52	2878.1	
878.69	4045.4	
878.85	5978	
879.02	6018.3	
879.19	5138.4	
879.35	3905.5	
879.52	5978.7	
879.69	6227.2	
879.86	3114.3	
880.02	4015.4	
880.19	5528.2	
880.36	6866.8	
880.52	4164.2	
880.69	4301.4	
880.86	6134.3	
881.02	6135	
881.19	3948.5	
881.36	3981.9	
881.52	5939.1	
881.69	5267.4	
881.86	3870	
882.02	3809.9	
882.19	6274.3	
882.36	7453.2	
882.52	3639.9	
882.69	5084.4	
882.86	5829.2	
883.02	5662	
883.19	4457.7	
883.36	4130.1	
883.52	6061.3	
883.69	7014.3	
883.86	3642	
884.02	3242.6	
884.19	6126.8	
884.36	5572.5	
884.52	4077.5	
884.69	3837.9	
884.86	5299.5	
885.02	6749.4	
885.19	4073.4	
885.36	4139.6	
885.52	5569.8	
885.69	5785.5	
885.86	5315.2	
886.02	4603.2	
886.19	6002.6	
886.35	5520	
886.52	3967.6	
886.69	5165	
886.85	5068.7	
887.02	6419.7	
887.19	6419.7	
887.35	6419.7	
887.52	6419.7	
887.68	6419.7	
887.85	6419.7	
888.02	6419.7	
888.18	6419.7	
888.35	6419.7	
888.51	6419.7	
888.68	6419.7	
888.85	6419.7	
889.01	6419.7	
889.18	6419.7	
889.35	6419.7	
889.51	6419.7	
889.68	6419.7	
889.84	6419.7	
890.01	6419.7	
890.17	6419.7	
890.34	6419.7	
890.51	6419.7	
890.67	6419.7	
890.84	6419.7	
891	6419.7	
891.17	6419.7	
891.34	6419.7	
891.5	6419.7	
891.67	6419.7	
891.83	6419.7	
892	6419.7	
892.16	6419.7	
892.33	6419.7	
892.5	6419.7	
892.66	6419.7	
892.83	6419.7	
892.99	6419.7	
893.16	6419.7	
893.32	6419.7	
893.49	6419.7	
893.65	6419.7	
893.82	6419.7	
893.99	6419.7	
894.15	6419.7	
894.32	6419.7	
894.48	6419.7	
894.65	6419.7	
894.81	6419.7	
894.98	6419.7	
895.14	6419.7	
895.31	6419.7	
895.47	6419.7	
895.64	6419.7	
895.81	6419.7	
895.97	6419.7	
896.14	6419.7	
896.3	6419.7	
896.47	6419.7	
896.63	6419.7	
896.8	6419.7	
896.96	6419.7	
897.13	6419.7	
897.29	6419.7	
897.46	6419.7	
897.62	6419.7	
897.79	6419.7	
897.95	6419.7	
898.12	6419.7	
898.28	6419.7	
898.45	6419.7	
898.61	6419.7	
898.78	6419.7	
898.94	6419.7	
899.11	6419.7	
899.27	6419.7	
899.44	6419.7	
899.6	6419.7	
899.77	6419.7	
899.93	6419.7	
900.1	6419.7	
900.26	6419.7	
900.43	6419.7	
900.59	6419.7	
900.76	6419.7	
900.92	6419.7	
901.09	6419.7	
901.25	6419.7	
901.42	6419.7	
901.58	6419.7	
901.75	6419.7	
901.91	6419.7	
902.07	6419.7	
902.24	6419.7	
902.4	6419.7	
902.57	6419.7	
902.73	6419.7	
902.9	6419.7	
903.06	6419.7	
903.23	6419.7	
903.39	6419.7	
903.56	6419.7	
903.72	6419.7	
903.88	6419.7	
904.05	6419.7	
904.21	6419.7	
904.38	6419.7	
904.54	6419.7	
904.71	6419.7	
904.87	6419.7	
905.03	6419.7	
905.2	6419.7	
905.36	6419.7	
905.53	6419.7	
905.69	6419.7	
905.86	6419.7	
906.02	6419.7	
906.18	6419.7	
906.35	6419.7	
906.51	6419.7	
906.68	6419.7	
906.84	6419.7	
907.01	6419.7	
907.17	6419.7	
907.33	6419.7	
907.5	6419.7	
907.66	6419.7	
907.83	6419.7	
907.99	6419.7	
908.15	6419.7	
908.32	6419.7	
908.48	6419.7	
908.65	6419.7	
908.81	6419.7	
908.97	6419.7	
909.14	6419.7	
909.3	6419.7	
909.47	6419.7	
909.63	6419.7	
909.79	6419.7	
909.96	6419.7	
910.12	6419.7	
910.28	6419.7	
910.45	6419.7	
910.61	6419.7	
910.78	6419.7	
910.94	6419.7	
911.1	6419.7	
911.27	6419.7	
911.43	6419.7	
911.59	6419.7	
911.76	6419.7	
911.92	6419.7	
912.08	6419.7	
912.25	6419.7	
912.41	6419.7	
912.57	6419.7	
912.74	6419.7	
912.9	6419.7	
913.07	6419.7	
913.23	6419.7	
913.39	6419.7	
913.56	6419.7	
913.72	6419.7	
913.88	6419.7	
914.05	6419.7	
914.21	6419.7	
914.37	6419.7	
914.54	6419.7	
914.7	6419.7	
914.86	6419.7	
915.03	6419.7	
915.19	6419.7	
