Wavelength	Intensities	
nm	a.u.	
179.22	1920.8	
179.44	1913.1	
179.65	1928.5	
179.86	1897.8	
180.08	1930.6	
180.29	4971.8	
180.51	3532.1	
180.72	5658.5	
180.94	6628.6	
181.15	3290.4	
181.37	3205.8	
181.58	5499.5	
181.79	5765	
182.01	3388	
182.22	3639.9	
182.44	5739.8	
182.65	4829.1	
182.87	4611.3	
183.08	4042.7	
183.29	6111.1	
183.51	5013.4	
183.72	3713.7	
183.94	5371.8	
184.15	5423	
184.37	5490.6	
184.58	3211.9	
184.79	4461.8	
185.01	5035.3	
185.22	5782.8	
185.44	4768.4	
185.65	3922.5	
185.86	5343.2	
186.08	4899.4	
186.29	3161.4	
186.51	3439.2	
186.72	5084.4	
186.94	5993.7	
187.15	3943.7	
187.36	4094.6	
187.58	7828	
187.79	5571.2	
188.01	4293.2	
188.22	6630.6	
188.43	6660.7	
188.65	5801.9	
188.86	3364.1	
189.08	4092.5	
189.29	5283.1	
189.5	5265.3	
189.72	3812.6	
189.93	3890.5	
190.15	6002.6	
190.36	7242.3	
190.57	4199.7	
190.79	4000.4	
191	6122.1	
191.22	6064	
191.43	4170.3	
191.64	3454.9	
191.86	6268.1	
192.07	6161.7	
192.29	3587.4	
192.5	3779.9	
192.71	6031.3	
192.93	5126.7	
193.14	3745.1	
193.35	3850.9	
193.57	5215.5	
193.78	6112.5	
194	3031	
194.21	3682.9	
194.42	4999.1	
194.64	5536.3	
194.85	4037.9	
195.07	4780	
195.28	5492	
195.49	4742.4	
195.71	5012.1	
195.92	3542.3	
196.13	5649	
196.35	5781.4	
196.56	5356.8	
196.78	4082.3	
196.99	7111.9	
197.2	6667.5	
197.42	4744.5	
197.63	4130.8	
197.84	4866	
198.06	5639.4	
198.27	3786	
198.48	5059.2	
198.7	5296	
198.91	5357.5	
199.13	4085	
199.34	4125.3	
199.55	5862.7	
199.77	4711	
199.98	3596.9	
200.19	4210.6	
200.41	5294	
200.62	5026.4	
200.83	4242.7	
201.05	4651.6	
201.26	5345.9	
201.47	5104.2	
201.69	3706.1	
201.9	3502	
202.11	5401.9	
202.33	6470.2	
202.54	3889.8	
202.76	4308.9	
202.97	5561.6	
203.18	5571.2	
203.4	4267.3	
203.61	4165.6	
203.82	5484.5	
204.04	5117.9	
204.25	4153.3	
204.46	4094.6	
204.68	5481	
204.89	5759.6	
205.1	3955.3	
205.32	3472.7	
205.53	5893.4	
205.74	6035.4	
205.96	2891.7	
206.17	4241.3	
206.38	5791.7	
206.6	5917.3	
206.81	4753.3	
207.02	3847.5	
207.24	5696.8	
207.45	6129.6	
207.66	3865.9	
207.88	3378.5	
208.09	5639.4	
208.3	5414.8	
208.52	3575.1	
208.73	3882.3	
208.94	5412.8	
209.15	6137.1	
209.37	3943	
209.58	4160.8	
209.79	5993	
210.01	5284.4	
210.22	3143.6	
210.43	3265.1	
210.65	5417.6	
210.86	5875.6	
211.07	3949.2	
211.29	3618.1	
211.5	5811.5	
211.71	5399.1	
211.93	3593.5	
212.14	3583.3	
212.35	5380.7	
212.56	5700.2	
212.78	4151.9	
212.99	3405.8	
213.2	6461.3	
213.42	5239.4	
213.63	3704.8	
213.84	3958	
214.06	4865.3	
214.27	4925.4	
214.48	3910.9	
214.69	4186	
214.91	6165.8	
215.12	6283.2	
215.33	4276.2	
215.55	4618.9	
215.76	6748.1	
215.97	5848.3	
216.18	4074.8	
216.4	3969.6	
216.61	5132.9	
216.82	5952.8	
217.04	3611.9	
217.25	3737.5	
217.46	6184.9	
217.67	5919.3	
217.89	3194.8	
218.1	3355.9	
218.31	5555.5	
218.53	5634.6	
218.74	3794.9	
218.95	3680.9	
219.16	5425.8	
219.38	6385.6	
219.59	3709.6	
219.8	4415.4	
220.01	7105.1	
220.23	5489.9	
220.44	4803.2	
220.65	3547.8	
220.87	5538.4	
221.08	6079.1	
221.29	3377.1	
221.5	4457.7	
221.72	7436.9	
221.93	5134.9	
222.14	4115.1	
222.35	4884.4	
222.57	5455.1	
222.78	5831.9	
222.99	3888.4	
223.2	4273.4	
223.42	5784.1	
223.63	5905	
223.84	2995.5	
224.05	3025.5	
224.27	7018.4	
224.48	6378.7	
224.69	4937.7	
224.9	4128	
225.12	5692.7	
225.33	5481.7	
225.54	3268.6	
225.75	3693.9	
225.97	5020.9	
226.18	5320.6	
226.39	4007.2	
226.6	3666.5	
226.82	5236	
227.03	5102.9	
227.24	4159.4	
227.45	3412.6	
227.67	5825.8	
227.88	6458.6	
228.09	4586.1	
228.3	4643.4	
228.52	5883.8	
228.73	5414.8	
228.94	3845.4	
229.15	3442.6	
229.36	5379.3	
229.58	5249.6	
229.79	3844.7	
230	4496	
230.21	6459.3	
230.43	5601.2	
230.64	4079.6	
230.85	4280.3	
231.06	5877.7	
231.28	5870.8	
231.49	3391.4	
231.7	4046.8	
231.91	5832.6	
232.12	5513.1	
232.34	3481.5	
232.55	3984.7	
232.76	6148	
232.97	5666	
233.18	3592.1	
233.4	4061.8	
233.61	5692	
233.82	5248.9	
234.03	3777.1	
234.25	3742.3	
234.46	7636.9	
234.67	5524.1	
234.88	4227.7	
235.09	3629	
235.31	5827.2	
235.52	5346.6	
235.73	4076.1	
235.94	3508.9	
236.15	5186.1	
236.37	6610.2	
236.58	3635.8	
236.79	3962.1	
237	5730.9	
237.21	4945.8	
237.43	4205.8	
237.64	3352.5	
237.85	9902.6	
238.06	5040.1	
238.27	4355.3	
238.48	3405.1	
238.7	5821	
238.91	5350	
239.12	3991.5	
239.33	4007.2	
239.54	5067.4	
239.76	5424.4	
239.97	3829	
240.18	3936.2	
240.39	6929	
240.6	5706.3	
240.82	4055.7	
241.03	3349.8	
241.24	5442.8	
241.45	6342.6	
241.66	3603.7	
241.87	4250.9	
242.09	6184.2	
242.3	6603.3	
242.51	4273.4	
242.72	3980.6	
242.93	5962.3	
243.14	5416.9	
243.36	4573.8	
243.57	4974.5	
243.78	6311.8	
243.99	5701.5	
244.2	3900.7	
244.41	3621.5	
244.63	4986.8	
244.84	5763	
245.05	4221.5	
245.26	3981.9	
245.47	5771.2	
245.68	6094.8	
245.9	5288.5	
246.11	4162.2	
246.32	5315.8	
246.53	5714.5	
246.74	6394.4	
246.95	3327.9	
247.16	4900.8	
247.38	5429.8	
247.59	3265.8	
247.8	3980.6	
248.01	5126.7	
248.22	5392.3	
248.43	3599.6	
248.64	3868.6	
248.86	4809.3	
249.07	5236.7	
249.28	3460.4	
249.49	4045.4	
249.7	6030.6	
249.91	6212.9	
250.12	3334.1	
250.34	3401	
250.55	5623.7	
250.76	5501.5	
250.97	4069.3	
251.18	4127.3	
251.39	6192.4	
251.6	5657.2	
251.81	4174.4	
252.03	4172.4	
252.24	5278.3	
252.45	6036	
252.66	3444.7	
252.87	4413.4	
253.08	5496.1	
253.29	7220.5	
253.5	3504.1	
253.72	4787.5	
253.93	5283.1	
254.14	6512.5	
254.35	3777.1	
254.56	3885.7	
254.77	5693.4	
254.98	5061.9	
255.19	3675.4	
255.41	4760.8	
255.62	5599.8	
255.83	6167.1	
256.04	4259.1	
256.25	4174.4	
256.46	6557.6	
256.67	5143.1	
256.88	4076.8	
257.09	4526	
257.31	5155.4	
257.52	5145.2	
257.73	5162.9	
257.94	3745.1	
258.15	5285.8	
258.36	5446.9	
258.57	4733.5	
258.78	3005.7	
258.99	5987.6	
259.2	5335	
259.41	3802.4	
259.63	3905.5	
259.84	6339.1	
260.05	6815	
260.26	5048.9	
260.47	3662.5	
260.68	6088.6	
260.89	5359.5	
261.1	4640.7	
261.31	3605.8	
261.52	6079.7	
261.73	6414.9	
261.95	4904.2	
262.16	4276.2	
262.37	6204.7	
262.58	6288.6	
262.79	4837.3	
263	3839.9	
263.21	5544.5	
263.42	4968.4	
263.63	3895.9	
263.84	3786.7	
264.05	6086.6	
264.26	6432.7	
264.47	4754.7	
264.69	4270.7	
264.9	6222.4	
265.11	5648.3	
265.32	3617.4	
265.53	3749.1	
265.74	5605.3	
265.95	4901.5	
266.16	4027.7	
266.37	4496.7	
266.58	5568.4	
266.79	5278.3	
267	3753.9	
267.21	3467.2	
267.42	5074.9	
267.63	5462.6	
267.84	3926.6	
268.06	3362.8	
268.27	5943.9	
268.48	6217	
268.69	3877.5	
268.9	4577.2	
269.11	6152.8	
269.32	4924	
269.53	3993.5	
269.74	3666.5	
269.95	5801.9	
270.16	4835.3	
270.37	3947.1	
270.58	4577.9	
270.79	5307.7	
271	6038.8	
271.21	4244.8	
271.42	3999.7	
271.63	5638.7	
271.84	5076.2	
272.05	3164.1	
272.26	3538.2	
272.47	5552.7	
272.68	5649	
272.89	3834.5	
273.11	4396.3	
273.32	5313.1	
273.53	6444.3	
273.74	4276.2	
273.95	4182	
274.16	6090.7	
274.37	5513.8	
274.58	4372.4	
274.79	3489.7	
275	5670.8	
275.21	6152.8	
275.42	5169.1	
275.63	4476.9	
275.84	5788.9	
276.05	7194.5	
276.26	4190.1	
276.47	3953.3	
276.68	5309.7	
276.89	6507.1	
277.1	4510.3	
277.31	3517.7	
277.52	5789.6	
277.73	5871.5	
277.94	3442	
278.15	3777.8	
278.36	5719.3	
278.57	5125.4	
278.78	3788.7	
278.99	4307.6	
279.2	5111.7	
279.41	5050.3	
279.62	4941.1	
279.83	3553.2	
280.04	6718.7	
280.25	4959.5	
280.46	4952	
280.67	3961.5	
280.88	5099.4	
281.09	6156.2	
281.3	4192.2	
281.51	5268.7	
281.72	5175.2	
281.93	6001.9	
282.14	3695.9	
282.35	4008.6	
282.56	6010.1	
282.77	5917.9	
282.98	3778.5	
283.19	4740.4	
283.4	7335.8	
283.61	5406	
283.82	3413.3	
284.03	4864.6	
284.24	5620.3	
284.45	6146.6	
284.66	4903.5	
284.87	4737	
285.08	6043.6	
285.29	6216.3	
285.5	3360	
285.71	3894.6	
285.92	6131.6	
286.12	6781.5	
286.33	4898.7	
286.54	3785.3	
286.75	5993.7	
286.96	5408	
287.17	3512.9	
287.38	4784.1	
287.59	5133.6	
287.8	5080.3	
288.01	3903.4	
288.22	4547.2	
288.43	5948	
288.64	5008	
288.85	4623.6	
289.06	4370.4	
289.27	6116.6	
289.48	6460.7	
289.69	4945.8	
289.9	4508.3	
290.11	6190.3	
290.32	5163.6	
290.53	4683.7	
290.74	4292.5	
290.94	5925.5	
291.15	6017.6	
291.36	3656.3	
291.57	4457.1	
291.78	5182.7	
291.99	4853	
292.2	3596.9	
292.41	4274.1	
292.62	6027.9	
292.83	5782.8	
293.04	5371.8	
293.25	3556	
293.46	5272.2	
293.67	6136.4	
293.88	3702	
294.09	3565.5	
294.29	5021.6	
294.5	5600.5	
294.71	3951.9	
294.92	3806.5	
295.13	5287.9	
295.34	6558.3	
295.55	3340.9	
295.76	3448.1	
295.97	5895.4	
296.18	6728.9	
296.39	3497.2	
296.6	3713.7	
296.81	5577.3	
297.01	5913.2	
297.22	3797.6	
297.43	3698.6	
297.64	5143.8	
297.85	5131.5	
298.06	3054.2	
298.27	3390.8	
298.48	5571.2	
298.69	5238.7	
298.9	4035.9	
299.11	3635.1	
299.31	4976.6	
299.52	5009.3	
299.73	4324.6	
299.94	4196.3	
300.15	5438.7	
300.36	5115.1	
300.57	4258.4	
300.78	4174.4	
300.99	5386.8	
301.2	5636.7	
301.4	3680.9	
301.61	4020.8	
301.82	5802.6	
302.03	5954.1	
302.24	4513.7	
302.45	3565.5	
302.66	5812.8	
302.87	6225.8	
303.08	3670	
303.29	5063.3	
303.49	5218.9	
303.7	5478.3	
303.91	3270.6	
304.12	4866.7	
304.33	4965.6	
304.54	5558.2	
304.75	3718.4	
304.96	3571	
305.16	5864	
305.37	6613.6	
305.58	3250.1	
305.79	3420.1	
306	5783.5	
306.21	4894.6	
306.42	3696.6	
306.63	5724.8	
306.83	5431.9	
307.04	6105.7	
307.25	4131.4	
307.46	4126.7	
307.67	4676.2	
307.88	5971.9	
308.09	3649.5	
308.29	3839.3	
308.5	5564.3	
308.71	6066.1	
308.92	4016.7	
309.13	3562.8	
309.34	5431.2	
309.55	5384.1	
309.75	4637.3	
309.96	4223.6	
310.17	5907.7	
310.38	5173.9	
310.59	4579.9	
310.8	4225	
311.01	6034.7	
311.21	5350	
311.42	3552.5	
311.63	3648.8	
311.84	5255.1	
312.05	5689.9	
312.26	4199.7	
312.46	4558.8	
312.67	5292	
312.88	5003.9	
313.09	3650.2	
313.3	3506.8	
313.51	6354.2	
313.71	6619	
313.92	3635.8	
314.13	3782.6	
314.34	5674.9	
314.55	5440.1	
314.76	4628.4	
314.96	3988.1	
315.17	5539.8	
315.38	5928.2	
315.59	3639.2	
315.8	3456.3	
316.01	6402.6	
316.21	6432.7	
316.42	3487	
316.63	3986.7	
316.84	5426.4	
317.05	6225.8	
317.26	4221.5	
317.46	3794.9	
317.67	5394.3	
317.88	5863.3	
318.09	4584	
318.3	3343	
318.5	5230.5	
318.71	5815.5	
318.92	5841.5	
319.13	4235.9	
319.34	6024.4	
319.54	6129.6	
319.75	3351.8	
319.96	3209.8	
320.17	5882.4	
320.38	6107.7	
320.58	3269.9	
320.79	3964.9	
321	6120	
321.21	6283.9	
321.42	3900	
321.62	3263.1	
321.83	5104.2	
322.04	5552.7	
322.25	3820.8	
322.46	3623.5	
322.66	5646.9	
322.87	5776	
323.08	4474.1	
323.29	3515	
323.5	6604.7	
323.7	5079	
323.91	4939	
324.12	4373.1	
324.33	5593.7	
324.53	5820.3	
324.74	4255	
324.95	4510.3	
325.16	4876.2	
325.37	5335.6	
325.57	3582.6	
325.78	3745.1	
325.99	5582.1	
326.2	4983.4	
326.4	5206.6	
326.61	3359.4	
326.82	5497.4	
327.03	5584.8	
327.24	5145.9	
327.44	4836.6	
327.65	5764.3	
327.86	4657.8	
328.07	4270.7	
328.27	3490.4	
328.48	6251.8	
328.69	5104.2	
328.9	5188.9	
329.1	3883.6	
329.31	5368.4	
329.52	6352.8	
329.73	3628.3	
329.93	4054.3	
330.14	5543.2	
330.35	5767.8	
330.56	5982.8	
330.76	4390.2	
330.97	5295.4	
331.18	5706.3	
331.39	4026.3	
331.59	3243.3	
331.8	6066.8	
332.01	6186.2	
332.22	3700.7	
332.42	4287.8	
332.63	5658.5	
332.84	5173.2	
333.05	4059.1	
333.25	3675.4	
333.46	5299.5	
333.67	5533.6	
333.88	3752.6	
334.08	4167.6	
334.29	7374.7	
334.5	6201.9	
334.7	3520.5	
334.91	5214.8	
335.12	5055.8	
335.33	5887.2	
335.53	3974.4	
335.74	5948	
335.95	5236.7	
336.16	5107.6	
336.36	4117.8	
336.57	4646.8	
336.78	5068	
336.98	6079.1	
337.19	4926.7	
337.4	3975.8	
337.61	6664.1	
337.81	5118.6	
338.02	3719.8	
338.23	4814.8	
338.43	6260.6	
338.64	5156.1	
338.85	3614	
339.05	4771.8	
339.26	6422.4	
339.47	4972.5	
339.68	3681.6	
339.88	5384.8	
340.09	5830.6	
340.3	6019.7	
340.5	4316.4	
340.71	3253.5	
340.92	5003.9	
341.13	6243.6	
341.33	3533.4	
341.54	4341	
341.75	5756.2	
341.95	5382.1	
342.16	4074.8	
342.37	4476.9	
342.57	5115.8	
342.78	5457.2	
342.99	4486.4	
343.19	3239.9	
343.4	5917.9	
343.61	5780.7	
343.81	3878.9	
344.02	3532.1	
344.23	5950.7	
344.43	6343.9	
344.64	4435.9	
344.85	4402.5	
345.06	5759.6	
345.26	6141.2	
345.47	4184.7	
345.68	4991.6	
345.88	4894	
346.09	6031.3	
346.3	4345.8	
346.5	3179.8	
346.71	5523.4	
346.92	5242.8	
347.12	3304.7	
347.33	4177.9	
347.54	6054.5	
347.74	6541.2	
347.95	4199.7	
348.16	3099.3	
348.36	5340.4	
348.57	4999.1	
348.78	4154	
348.98	4489.8	
349.19	5482.4	
349.39	4977.9	
349.6	3353.9	
349.81	3744.4	
350.01	5791.7	
350.22	5275.6	
350.43	3993.5	
350.63	4825.7	
350.84	5631.9	
351.05	5333.6	
351.25	3673.4	
351.46	3353.9	
351.67	6133	
351.87	5213.4	
352.08	3921.9	
352.29	4475.5	
352.49	6021.7	
352.7	5786.9	
352.9	3586.7	
353.11	4493.2	
353.32	6739.2	
353.52	5330.2	
353.73	3518.4	
353.94	4524.6	
354.14	5872.2	
354.35	5673.6	
354.55	3663.1	
354.76	4072	
354.97	5859.9	
355.17	5649	
355.38	3454.9	
355.59	4821.6	
355.79	5308.3	
356	5747.3	
356.2	4104.8	
356.41	3577.1	
356.62	5007.3	
356.82	5469.4	
357.03	4359.4	
357.24	3927.3	
357.44	5314.5	
357.65	5465.3	
357.85	5237.3	
358.06	4135.5	
358.27	5000.5	
358.47	5287.2	
358.68	3418.7	
358.88	4373.8	
359.09	5924.8	
359.3	6257.9	
359.5	5107	
359.71	4570.4	
359.91	6790.4	
360.12	6139.1	
360.33	4434.5	
360.53	4979.3	
360.74	5432.6	
360.94	5456.5	
361.15	4696	
361.36	3839.3	
361.56	6275.7	
361.77	5619.6	
361.97	5233.2	
362.18	4170.3	
362.38	6265.4	
362.59	5321.3	
362.8	3857.7	
363	3631	
363.21	5126.1	
363.41	5871.5	
363.62	4476.9	
363.83	5530.2	
364.03	5905	
364.24	7021.1	
364.44	5609.4	
364.65	5517.9	
364.85	5655.1	
365.06	5498.1	
365.27	4165.6	
365.47	4186.7	
365.68	6783.6	
365.88	5671.5	
366.09	4596.3	
366.29	4296	
366.5	6066.8	
366.71	6550.8	
366.91	5691.3	
367.12	4767.7	
367.32	7060	
367.53	6359.6	
367.73	4724.7	
367.94	5815.5	
368.14	6333	
368.35	7337.2	
368.56	4804.5	
368.76	4482.3	
368.97	6476.4	
369.17	8207.6	
369.38	4230.4	
369.58	4505.5	
369.79	5498.1	
369.99	6776	
370.2	5571.2	
370.4	4635.9	
370.61	6184.9	
370.82	7425.3	
371.02	4576.5	
371.23	3841.3	
371.43	5399.1	
371.64	6930.3	
371.84	4683.7	
372.05	5930.2	
372.25	8292.9	
372.46	6689.3	
372.66	4844.1	
372.87	4782	
373.07	6810.2	
373.28	8409.6	
373.48	5874.9	
373.69	5605.3	
373.9	6331	
374.1	6366.5	
374.31	5924.8	
374.51	5470.8	
374.72	7260	
374.92	6002.6	
375.13	6152.8	
375.33	5292	
375.54	6944.7	
375.74	6352.8	
375.95	5496.7	
376.15	6812.9	
376.36	6973.3	
376.56	6860	
376.77	5751.4	
376.97	6184.2	
377.18	8268.3	
377.38	7260	
377.59	6598.6	
377.79	5273.5	
378	7139.9	
378.2	7639.6	
378.41	5339.7	
378.61	5348.6	
378.82	7576.8	
379.02	6791.1	
379.23	5599.1	
379.43	6826.6	
379.64	7737.2	
379.84	7378.8	
380.05	5358.9	
380.25	5302.2	
380.46	7484	
380.66	7063.4	
380.87	6836.1	
381.07	7167.2	
381.28	8124.3	
381.48	7384.3	
381.69	5438.7	
381.89	5433.3	
382.1	6350.1	
382.3	7559.1	
382.51	6585.6	
382.71	7546.1	
382.91	7403.4	
383.12	7958.4	
383.32	5725.4	
383.53	5894.7	
383.73	7111.9	
383.94	6931	
384.14	5796.4	
384.35	4935.6	
384.55	6823.1	
384.76	7345.4	
384.96	5664	
385.17	6013.5	
385.37	7305.8	
385.58	6553.5	
385.78	6074.3	
385.98	4770.4	
386.19	6810.9	
386.39	7288.7	
386.6	5618.3	
386.8	5760.3	
387.01	7392.5	
387.21	7481.9	
387.42	6322.1	
387.62	6987.7	
387.83	6843.6	
388.03	7593.2	
388.23	6087.2	
388.44	6991.1	
388.64	6789	
388.85	6897.6	
389.05	6498.2	
389.26	7223.9	
389.46	8777.6	
389.67	8249.2	
389.87	6657.9	
390.07	6600.6	
390.28	7514	
390.48	7008.1	
390.69	5912.5	
390.89	6153.5	
391.1	7185	
391.3	8224.6	
391.5	7369.3	
391.71	7992.5	
391.91	7954.3	
392.12	9030.2	
392.32	7449.8	
392.53	6544.6	
392.73	7267.6	
392.93	7499.7	
393.14	6240.8	
393.34	6982.9	
393.55	7923.6	
393.75	7416.4	
393.95	6217	
394.16	6171.9	
394.36	7292.8	
394.57	7948.8	
394.77	5870.2	
394.98	6361.7	
395.18	7504.4	
395.38	7557.7	
395.59	7444.4	
395.79	6468.9	
396	7806.2	
396.2	8305.9	
396.4	7522.2	
396.61	7428.7	
396.81	8773.5	
397.02	8006.9	
397.22	7852.6	
397.42	8030.1	
397.63	8768	
397.83	8075.8	
398.04	6623.8	
398.24	7454.6	
398.44	8468.4	
398.65	7813	
398.85	6717.3	
399.05	6919.4	
399.26	8354.3	
399.46	10162	
399.67	7459.4	
399.87	7175.4	
400.07	8828.8	
400.28	9267.1	
400.48	7495.6	
400.69	8611.7	
400.89	9767.4	
401.09	9937.4	
401.3	7493.5	
401.5	8588.5	
401.7	10469	
401.91	10555	
402.11	7759.1	
402.32	7830.7	
402.52	9358.5	
402.72	9168.1	
402.93	7905.8	
403.13	6432	
403.33	9851.4	
403.54	8306.6	
403.74	7359	
403.94	8217.8	
404.15	8634.9	
404.35	9934	
404.56	7413.6	
404.76	9358.5	
404.96	9471.9	
405.17	9210.4	
405.37	8921	
405.57	8083.3	
405.78	9645.3	
405.98	8783.1	
406.18	7602.7	
406.39	8609	
406.59	9544.9	
406.79	9164	
407	7490.8	
407.2	7644.4	
407.4	9871.9	
407.61	10186	
407.81	8055.3	
408.01	10444	
408.22	9327.1	
408.42	11746	
408.62	10067	
408.83	9579	
409.03	10648	
409.23	10640	
409.44	9999.5	
409.64	10298	
409.84	12157	
410.05	12265	
410.25	10677	
410.45	10237	
410.66	12225	
410.86	14539	
411.06	11469	
411.27	11064	
411.47	14885	
411.67	12643	
411.88	11429	
412.08	12233	
412.28	13366	
412.49	13940	
412.69	11762	
412.89	11805	
413.09	13856	
413.3	13919	
413.5	12030	
413.7	11683	
413.91	13069	
414.11	14220	
414.31	12054	
414.52	12896	
414.72	13838	
414.92	14064	
415.12	12058	
415.33	12739	
415.53	14560	
415.73	14743	
415.94	13130	
416.14	12672	
416.34	13784	
416.55	13351	
416.75	14062	
416.95	13709	
417.15	15017	
417.36	15461	
417.56	14811	
417.76	13870	
417.97	15573	
418.17	15339	
418.37	13124	
418.57	13325	
418.78	14834	
418.98	14483	
419.18	14280	
419.38	13846	
419.59	14732	
419.79	14060	
419.99	13125	
420.2	13601	
420.4	15152	
420.6	15304	
420.8	13280	
421.01	13076	
421.21	15326	
421.41	15315	
421.61	13588	
421.82	13178	
422.02	14693	
422.22	15298	
422.42	14200	
422.63	13374	
422.83	14751	
423.03	16034	
423.23	13497	
423.44	12640	
423.64	14819	
423.84	14110	
424.04	12974	
424.25	12626	
424.45	15415	
424.65	15263	
424.85	12327	
425.06	12998	
425.26	15415	
425.46	14326	
425.66	13366	
425.87	12925	
426.07	15103	
426.27	14761	
426.47	13211	
426.67	12390	
426.88	15196	
427.08	14668	
427.28	13581	
427.48	12418	
427.69	13609	
427.89	14287	
428.09	13424	
428.29	12527	
428.5	15147	
428.7	14866	
428.9	12700	
429.1	13263	
429.3	14808	
429.51	15356	
429.71	12864	
429.91	14035	
430.11	15247	
430.31	15706	
430.52	13518	
430.72	14018	
430.92	15988	
431.12	15442	
431.32	13431	
431.53	13628	
431.73	14535	
431.93	16301	
432.13	13323	
432.33	13405	
432.54	15128	
432.74	15591	
432.94	13614	
433.14	14457	
433.34	15763	
433.55	15773	
433.75	14477	
433.95	16915	
434.15	15732	
434.35	15806	
434.56	13806	
434.76	13812	
434.96	16044	
435.16	16761	
435.36	13994	
435.56	15637	
435.77	16213	
435.97	16454	
436.17	16531	
436.37	15750	
436.57	16191	
436.78	16434	
436.98	15335	
437.18	16182	
437.38	17303	
437.58	16125	
437.78	16064	
437.99	14532	
438.19	16344	
438.39	17318	
438.59	14579	
438.79	13887	
438.99	17487	
439.2	16548	
439.4	14412	
439.6	14547	
439.8	17352	
440	18462	
440.2	16312	
440.4	16468	
440.61	18151	
440.81	18828	
441.01	15844	
441.21	17051	
441.41	19075	
441.61	18262	
441.81	17396	
442.02	18475	
442.22	19615	
442.42	18510	
442.62	16528	
442.82	16143	
443.02	19145	
443.22	18540	
443.43	17096	
443.63	16617	
443.83	18152	
444.03	18414	
444.23	18437	
444.43	17718	
444.63	18953	
444.83	19832	
445.04	16987	
445.24	18378	
445.44	18695	
445.64	19110	
445.84	16910	
446.04	17378	
446.24	17929	
446.44	19021	
446.65	16184	
446.85	17025	
447.05	17875	
447.25	18987	
447.45	16806	
447.65	16305	
447.85	18337	
448.05	17480	
448.25	17763	
448.46	17462	
448.66	18673	
448.86	17963	
449.06	16453	
449.26	17484	
449.46	19217	
449.66	17834	
449.86	17658	
450.06	17307	
450.26	18421	
450.47	19133	
450.67	17237	
450.87	17954	
451.07	19105	
451.27	19260	
451.47	16805	
451.67	17983	
451.87	19013	
452.07	19497	
452.27	17585	
452.47	17125	
452.67	18779	
452.88	19798	
453.08	16313	
453.28	18946	
453.48	20672	
453.68	18925	
453.88	17788	
454.08	17802	
454.28	20275	
454.48	19757	
454.68	18598	
454.88	19219	
455.08	20200	
455.28	20703	
455.48	17645	
455.68	19035	
455.89	21316	
456.09	21080	
456.29	18640	
456.49	19511	
456.69	21768	
456.89	20785	
457.09	20197	
457.29	20768	
457.49	21663	
457.69	22072	
457.89	20703	
458.09	19794	
458.29	21977	
458.49	22794	
458.69	20975	
458.89	20577	
459.09	23313	
459.29	23140	
459.49	20390	
459.69	21465	
459.9	22382	
460.1	22810	
460.3	20511	
460.5	20508	
460.7	23060	
460.9	22880	
461.1	20416	
461.3	22136	
461.5	24416	
461.7	23961	
461.9	22059	
462.1	21982	
462.3	24141	
462.5	24673	
462.7	22475	
462.9	22793	
463.1	25987	
463.3	26243	
463.5	23042	
463.7	25047	
463.9	25155	
464.1	25544	
464.3	24438	
464.5	23943	
464.7	26274	
464.9	26565	
465.1	25832	
465.3	25123	
465.5	26495	
465.7	27188	
465.9	25717	
466.1	24649	
466.3	27680	
466.5	26445	
466.7	27255	
466.9	25395	
467.1	27440	
467.3	28326	
467.5	27554	
467.7	26127	
467.9	28597	
468.1	30001	
468.3	26647	
468.5	27630	
468.7	28007	
468.9	27654	
469.1	26937	
469.3	27779	
469.5	30348	
469.7	28029	
469.9	26630	
470.1	26844	
470.3	28377	
470.5	28262	
470.7	27757	
470.9	26359	
471.1	28289	
471.3	27519	
471.5	26617	
471.69	28223	
471.89	27611	
472.09	26725	
472.29	27194	
472.49	26627	
472.69	27471	
472.89	28029	
473.09	26200	
473.29	25518	
473.49	27235	
473.69	27093	
473.89	26886	
474.09	25828	
474.29	28473	
474.49	28154	
474.69	27056	
474.89	26041	
475.09	27337	
475.29	27201	
475.49	25228	
475.69	25827	
475.88	28280	
476.08	27258	
476.28	25455	
476.48	25309	
476.68	27325	
476.88	27255	
477.08	25180	
477.28	25798	
477.48	26467	
477.68	27136	
477.88	25272	
478.08	25466	
478.28	28040	
478.48	26888	
478.67	25735	
478.87	24418	
479.07	28107	
479.27	26962	
479.47	25714	
479.67	25989	
479.87	27907	
480.07	28355	
480.27	25079	
480.47	26730	
480.67	27112	
480.87	28134	
481.06	25449	
481.26	26404	
481.46	27258	
481.66	27095	
481.86	25839	
482.06	27109	
482.26	26951	
482.46	27811	
482.66	25810	
482.86	25697	
483.05	27667	
483.25	27059	
483.45	28655	
483.65	26311	
483.85	27546	
484.05	28055	
484.25	26820	
484.45	28016	
484.65	28725	
484.84	29579	
485.04	26705	
485.24	26744	
485.44	29515	
485.64	28031	
485.84	26704	
486.04	28229	
486.24	28685	
486.44	28987	
486.63	26867	
486.83	27910	
487.03	29090	
487.23	29861	
487.43	27351	
487.63	29829	
487.83	29795	
488.02	30952	
488.22	29196	
488.42	29845	
488.62	30750	
488.82	29758	
489.02	28125	
489.22	29055	
489.41	30522	
489.61	30703	
489.81	28344	
490.01	28398	
490.21	30610	
490.41	31172	
490.61	28182	
490.8	28135	
491	30060	
491.2	28818	
491.4	28518	
491.6	27708	
491.8	29764	
491.99	29764	
492.19	27824	
492.39	28280	
492.59	31110	
492.79	31406	
492.99	29993	
493.18	29207	
493.38	31666	
493.58	33434	
493.78	30684	
493.98	30360	
494.18	32346	
494.37	32564	
494.57	32367	
494.77	31864	
494.97	33875	
495.17	34460	
495.37	32159	
495.56	32436	
495.76	34947	
495.96	34624	
496.16	33464	
496.36	32897	
496.55	34886	
496.75	34589	
496.95	33219	
497.15	33500	
497.35	34951	
497.54	35565	
497.74	33079	
497.94	34992	
498.14	36289	
498.34	36056	
498.53	33537	
498.73	34377	
498.93	35644	
499.13	36024	
499.33	34651	
499.52	34605	
499.72	36591	
499.92	36456	
500.12	34470	
500.32	34700	
500.51	36526	
500.71	36826	
500.91	35686	
501.11	35183	
501.31	36658	
501.5	36760	
501.7	35795	
501.9	34698	
502.1	36042	
502.29	36477	
502.49	35307	
502.69	34977	
502.89	35987	
503.09	36298	
503.28	33338	
503.48	33520	
503.68	34996	
503.88	35060	
504.07	34451	
504.27	33468	
504.47	35316	
504.67	34802	
504.86	34114	
505.06	33184	
505.26	34143	
505.46	35898	
505.65	32887	
505.85	32774	
506.05	33495	
506.25	33944	
506.44	31513	
506.64	32107	
506.84	33161	
507.04	33668	
507.23	31234	
507.43	31603	
507.63	34395	
507.83	32863	
508.02	31296	
508.22	30737	
508.42	34507	
508.62	32319	
508.81	30712	
509.01	31967	
509.21	31791	
509.4	32398	
509.6	31468	
509.8	31108	
510	32399	
510.19	34058	
510.39	30906	
510.59	31300	
510.79	32728	
510.98	34139	
511.18	31217	
511.38	31559	
511.57	33115	
511.77	33020	
511.97	31642	
512.17	30605	
512.36	33378	
512.56	32909	
512.76	30867	
512.95	30696	
513.15	33528	
513.35	32174	
513.55	32066	
513.74	31251	
513.94	33659	
514.14	32921	
514.33	32473	
514.53	32095	
514.73	33128	
514.92	33626	
515.12	31967	
515.32	32070	
515.51	34001	
515.71	34619	
515.91	33782	
516.11	32187	
516.3	36047	
516.5	33635	
516.7	32746	
516.89	33502	
517.09	33538	
517.29	33817	
517.48	33153	
517.68	32320	
517.88	33682	
518.07	34263	
518.27	32948	
518.47	32075	
518.66	34855	
518.86	33644	
519.06	32092	
519.25	32572	
519.45	33966	
519.65	35609	
519.84	32877	
520.04	33759	
520.24	35420	
520.43	33998	
520.63	32105	
520.83	31904	
521.02	32989	
521.22	33708	
521.42	32093	
521.61	33118	
521.81	33444	
522.01	33429	
522.2	32762	
522.4	32430	
522.6	34649	
522.79	33811	
522.99	32828	
523.18	33017	
523.38	35220	
523.58	35626	
523.77	35570	
523.97	33775	
524.17	37924	
524.36	37296	
524.56	35551	
524.76	35366	
524.95	36833	
525.15	36382	
525.34	35454	
525.54	35547	
525.74	37629	
525.93	36471	
526.13	36866	
526.33	36174	
526.52	38342	
526.72	38053	
526.91	37900	
527.11	37239	
527.31	38652	
527.5	39202	
527.7	37236	
527.89	36536	
528.09	38015	
528.29	39202	
528.48	37670	
528.68	37439	
528.87	39152	
529.07	38439	
529.27	36845	
529.46	35973	
529.66	38064	
529.85	38267	
530.05	35900	
530.25	36493	
530.44	39852	
530.64	38008	
530.83	36861	
531.03	37629	
531.23	39153	
531.42	39202	
531.62	38656	
531.81	38047	
532.01	40214	
532.21	40816	
532.4	38634	
532.6	39235	
532.79	41514	
532.99	41163	
533.18	39370	
533.38	40372	
533.58	41070	
533.77	41430	
533.97	40037	
534.16	40784	
534.36	42224	
534.55	41303	
534.75	40629	
534.95	39955	
535.14	42101	
535.34	40852	
535.53	39202	
535.73	41007	
535.92	42302	
536.12	40770	
536.31	39137	
536.51	40616	
536.71	41115	
536.9	40641	
537.1	39219	
537.29	39884	
537.49	41463	
537.68	40722	
537.88	40583	
538.07	39511	
538.27	41576	
538.46	42394	
538.66	39516	
538.86	40084	
539.05	41336	
539.25	41543	
539.44	40303	
539.64	39223	
539.83	40777	
540.03	41863	
540.22	39235	
540.42	38859	
540.61	40546	
540.81	40980	
541	38912	
541.2	39929	
541.39	39844	
541.59	40362	
541.78	39745	
541.98	38023	
542.18	39182	
542.37	38905	
542.57	37902	
542.76	38963	
542.96	38362	
543.15	38927	
543.35	37227	
543.54	36612	
543.74	38454	
543.93	38311	
544.13	36568	
544.32	37673	
544.52	38282	
544.71	37496	
544.91	35489	
545.1	36856	
545.3	37359	
545.49	38021	
545.69	35408	
545.88	35917	
546.08	39119	
546.27	38259	
546.47	36255	
546.66	35672	
546.86	37758	
547.05	38369	
547.24	35719	
547.44	35815	
547.63	36568	
547.83	38081	
548.02	36009	
548.22	35836	
548.41	36331	
548.61	37575	
548.8	34997	
549	34882	
549.19	36349	
549.39	37096	
549.58	34329	
549.78	35071	
549.97	36646	
550.17	36115	
550.36	35481	
550.55	36645	
550.75	36153	
550.94	36995	
551.14	34429	
551.33	34330	
551.53	35616	
551.72	36633	
551.92	34517	
552.11	34632	
552.31	36440	
552.5	36315	
552.69	35947	
552.89	33944	
553.08	36172	
553.28	35704	
553.47	34372	
553.67	35557	
553.86	36551	
554.06	34899	
554.25	33073	
554.44	33935	
554.64	37124	
554.83	36859	
555.03	34017	
555.22	34352	
555.42	36031	
555.61	35740	
555.8	33609	
556	33766	
556.19	34797	
556.39	35960	
556.58	33615	
556.78	33689	
556.97	35564	
557.16	35297	
557.36	34899	
557.55	33454	
557.75	34043	
557.94	36110	
558.13	33121	
558.33	33140	
558.52	35835	
558.72	34617	
558.91	32819	
559.1	33033	
559.3	34101	
559.49	33407	
559.69	32487	
559.88	33249	
560.07	34583	
560.27	35078	
560.46	33178	
560.66	33284	
560.85	34212	
561.04	33110	
561.24	32333	
561.43	32122	
561.63	33437	
561.82	33951	
562.01	33849	
562.21	32987	
562.4	34190	
562.59	35620	
562.79	32793	
562.98	32627	
563.18	34354	
563.37	36015	
563.56	33391	
563.76	32726	
563.95	33911	
564.14	34126	
564.34	33287	
564.53	32710	
564.73	34639	
564.92	35409	
565.11	33473	
565.31	32771	
565.5	35319	
565.69	34224	
565.89	32905	
566.08	33322	
566.27	35078	
566.47	35880	
566.66	34088	
566.85	32609	
567.05	34753	
567.24	34089	
567.44	32855	
567.63	34265	
567.82	34867	
568.02	34605	
568.21	32905	
568.4	33174	
568.6	34792	
568.79	34710	
568.98	32651	
569.18	33170	
569.37	34547	
569.56	36300	
569.76	33030	
569.95	34019	
570.14	34224	
570.34	34432	
570.53	31897	
570.72	32049	
570.91	34736	
571.11	33481	
571.3	32288	
571.49	33113	
571.69	33755	
571.88	33217	
572.07	32851	
572.27	32701	
572.46	33197	
572.65	34406	
572.85	32261	
573.04	32721	
573.23	35189	
573.43	34078	
573.62	32674	
573.81	32981	
574	34648	
574.2	34432	
574.39	33071	
574.58	33240	
574.78	35902	
574.97	35022	
575.16	33850	
575.36	34081	
575.55	35541	
575.74	35401	
575.93	32653	
576.13	34352	
576.32	34769	
576.51	35434	
576.71	33280	
576.9	34725	
577.09	35752	
577.28	35234	
577.48	33916	
577.67	33001	
577.86	35007	
578.05	35528	
578.25	33671	
578.44	33727	
578.63	35405	
578.83	36657	
579.02	33247	
579.21	35099	
579.4	35586	
579.6	35564	
579.79	34126	
579.98	36551	
580.17	36300	
580.37	36641	
580.56	33727	
580.75	35048	
580.94	37158	
581.14	37024	
581.33	35699	
581.52	34574	
581.71	36975	
581.91	37442	
582.1	34596	
582.29	34936	
582.48	36607	
582.68	36821	
582.87	35758	
583.06	35524	
583.25	37022	
583.45	36790	
583.64	36491	
583.83	37135	
584.02	36715	
584.21	37334	
584.41	36157	
584.6	35537	
584.79	37034	
584.98	37909	
585.18	34979	
585.37	34921	
585.56	36440	
585.75	37293	
585.94	34678	
586.14	35580	
586.33	37129	
586.52	36403	
586.71	34509	
586.91	34256	
587.1	34578	
587.29	35960	
587.48	33113	
587.67	33224	
587.87	34757	
588.06	34590	
588.25	33472	
588.44	32414	
588.63	32550	
588.83	32959	
589.02	29986	
589.21	29438	
589.4	30005	
589.59	29668	
589.78	26439	
589.98	26346	
590.17	27303	
590.36	27978	
590.55	24726	
590.74	24993	
590.94	28626	
591.13	26864	
591.32	25135	
591.51	24684	
591.7	27949	
591.89	27303	
592.09	25192	
592.28	25484	
592.47	26609	
592.66	28949	
592.85	25471	
593.05	25691	
593.24	27633	
593.43	28775	
593.62	26471	
593.81	27086	
594	28030	
594.19	28431	
594.39	26316	
594.58	26045	
594.77	28138	
594.96	28595	
595.15	25692	
595.34	26223	
595.54	27918	
595.73	27035	
595.92	24937	
596.11	26170	
596.3	28640	
596.49	27283	
596.68	25919	
596.88	26757	
597.07	28609	
597.26	27489	
597.45	25864	
597.64	27223	
597.83	27970	
598.02	28749	
598.22	26308	
598.41	26908	
598.6	28564	
598.79	27818	
598.98	26264	
599.17	27654	
599.36	28854	
599.55	29991	
599.74	28943	
599.94	28893	
600.13	29659	
600.32	28454	
600.51	26798	
600.7	27100	
600.89	30470	
601.08	30625	
601.27	27185	
601.47	28332	
601.66	30083	
601.85	30870	
602.04	28234	
602.23	28163	
602.42	29514	
602.61	30148	
602.8	28018	
602.99	27867	
603.18	29831	
603.37	30215	
603.57	28519	
603.76	29291	
603.95	31098	
604.14	30700	
604.33	28474	
604.52	28825	
604.71	30655	
604.9	29957	
605.09	29166	
605.28	29172	
605.47	31125	
605.66	30689	
605.86	29055	
606.05	28386	
606.24	30887	
606.43	29212	
606.62	28695	
606.81	29465	
607	30702	
607.19	30071	
607.38	27861	
607.57	28070	
607.76	29520	
607.95	29188	
608.14	28327	
608.33	28900	
608.52	29409	
608.72	30403	
608.91	27450	
609.1	27383	
609.29	29416	
609.48	28819	
609.67	28061	
609.86	27181	
610.05	28777	
610.24	28992	
610.43	27305	
610.62	26558	
610.81	30050	
611	30123	
611.19	27278	
611.38	27910	
611.57	29545	
611.76	30791	
611.95	26748	
612.14	26522	
612.33	28977	
612.52	28478	
612.71	27437	
612.9	26650	
613.09	28089	
613.28	30540	
613.47	26891	
613.66	28118	
613.85	29020	
614.04	28549	
614.24	27152	
614.43	26233	
614.62	29153	
614.81	29146	
615	27696	
615.19	27824	
615.38	28485	
615.57	28824	
615.76	27484	
615.95	28405	
616.14	29219	
616.33	28809	
616.52	27724	
616.71	28099	
616.9	29171	
617.09	29313	
617.28	27429	
617.47	28703	
617.66	28592	
617.85	28809	
618.04	28850	
618.22	27970	
618.41	29613	
618.6	30510	
618.79	28134	
618.98	28241	
619.17	30967	
619.36	29080	
619.55	28654	
619.74	28485	
619.93	30364	
620.12	30010	
620.31	29257	
620.5	29556	
620.69	31113	
620.88	31701	
621.07	30219	
621.26	29207	
621.45	30888	
621.64	30954	
621.83	29524	
622.02	28764	
622.21	30772	
622.4	30616	
622.59	30121	
622.78	29888	
622.97	30502	
623.16	31563	
623.35	29472	
623.54	28510	
623.72	30589	
623.91	30603	
624.1	29591	
624.29	28090	
624.48	31695	
624.67	30653	
624.86	29461	
625.05	28409	
625.24	31627	
625.43	29982	
625.62	31071	
625.81	28497	
626	30547	
626.19	30098	
626.38	29223	
626.56	28049	
626.75	29357	
626.94	30230	
627.13	28194	
627.32	26815	
627.51	29566	
627.7	30846	
627.89	26372	
628.08	27799	
628.27	28263	
628.46	28478	
628.65	26725	
628.83	26721	
629.02	29033	
629.21	28376	
629.4	27493	
629.59	27813	
629.78	28840	
629.97	29646	
630.16	28243	
630.35	27619	
630.54	30256	
630.72	29773	
630.91	27383	
631.1	27918	
631.29	29194	
631.48	29637	
631.67	28135	
631.86	27341	
632.05	29162	
632.24	29206	
632.42	27142	
632.61	27904	
632.8	29157	
632.99	28949	
633.18	28328	
633.37	28300	
633.56	29706	
633.75	29616	
633.93	28037	
634.12	27943	
634.31	30391	
634.5	30380	
634.69	27906	
634.88	28213	
635.07	29457	
635.25	29956	
635.44	28798	
635.63	29339	
635.82	29212	
636.01	28728	
636.2	28616	
636.39	28429	
636.57	30526	
636.76	29915	
636.95	27756	
637.14	29029	
637.33	29929	
637.52	30858	
637.7	27408	
637.89	28401	
638.08	29422	
638.27	30653	
638.46	28330	
638.65	28478	
638.83	30261	
639.02	28774	
639.21	27802	
639.4	28366	
639.59	29093	
639.78	28749	
639.96	26794	
640.15	26862	
640.34	28799	
640.53	28695	
640.72	26440	
640.91	26835	
641.09	27856	
641.28	29393	
641.47	26688	
641.66	27647	
641.85	28596	
642.03	28487	
642.22	27013	
642.41	26318	
642.6	27548	
642.79	26735	
642.97	25719	
643.16	26536	
643.35	27151	
643.54	26612	
643.73	25206	
643.91	25815	
644.1	25791	
644.29	26641	
644.48	24426	
644.67	24179	
644.85	25236	
645.04	25143	
645.23	22770	
645.42	22930	
645.6	23685	
645.79	24660	
645.98	21883	
646.17	20545	
646.36	22245	
646.54	22704	
646.73	21512	
646.92	20253	
647.11	21837	
647.29	22860	
647.48	20428	
647.67	19947	
647.86	23237	
648.05	23548	
648.23	20905	
648.42	22410	
648.61	22926	
648.8	23044	
648.98	20979	
649.17	21629	
649.36	22743	
649.55	22343	
649.73	20960	
649.92	21932	
650.11	22664	
650.3	22769	
650.48	20770	
650.67	20577	
650.86	22875	
651.05	21708	
651.23	20802	
651.42	20889	
651.61	22279	
651.79	22424	
651.98	21277	
652.17	20757	
652.36	22612	
652.54	21809	
652.73	20623	
652.92	20403	
653.11	22390	
653.29	22376	
653.48	19374	
653.67	20323	
653.85	21679	
654.04	22600	
654.23	19901	
654.42	19278	
654.6	20224	
654.79	20906	
654.98	18304	
655.16	18818	
655.35	19665	
655.54	19697	
655.73	18562	
655.91	18384	
656.1	21245	
656.29	20230	
656.47	18585	
656.66	20479	
656.85	20816	
657.03	21106	
657.22	19587	
657.41	19878	
657.59	21364	
657.78	21438	
657.97	19591	
658.16	20514	
658.34	22260	
658.53	22735	
658.72	21470	
658.9	21963	
659.09	21827	
659.28	22016	
659.46	20631	
659.65	20443	
659.84	21823	
660.02	22470	
660.21	20360	
660.4	20439	
660.58	22960	
660.77	22128	
660.96	21179	
661.14	20071	
661.33	23228	
661.52	23203	
661.7	19872	
661.89	23860	
662.08	21605	
662.26	21237	
662.45	20260	
662.64	20005	
662.82	22326	
663.01	21631	
663.2	20185	
663.38	21178	
663.57	22027	
663.75	21995	
663.94	20510	
664.13	21614	
664.31	21471	
664.5	22006	
664.69	20618	
664.87	21239	
665.06	21149	
665.25	21954	
665.43	21457	
665.62	21275	
665.8	22214	
665.99	21328	
666.18	20213	
666.36	20276	
666.55	21926	
666.74	22053	
666.92	19637	
667.11	21229	
667.29	21238	
667.48	21986	
667.67	20949	
667.85	20152	
668.04	21343	
668.22	21365	
668.41	20078	
668.6	20270	
668.78	20913	
668.97	21153	
669.15	20306	
669.34	19181	
669.53	21035	
669.71	21191	
669.9	19317	
670.08	19987	
670.27	20908	
670.46	21289	
670.64	20117	
670.83	20644	
671.01	20718	
671.2	21221	
671.38	19392	
671.57	19342	
671.76	21922	
671.94	22666	
672.13	19220	
672.31	20178	
672.5	21547	
672.69	20848	
672.87	19377	
673.06	19753	
673.24	21263	
673.43	20835	
673.61	20003	
673.8	19681	
673.98	21320	
674.17	21532	
674.36	20191	
674.54	19754	
674.73	21004	
674.91	21173	
675.1	19618	
675.28	19162	
675.47	20840	
675.65	21448	
675.84	19384	
676.03	19704	
676.21	20569	
676.4	19927	
676.58	20108	
676.77	20005	
676.95	22029	
677.14	20442	
677.32	18987	
677.51	18895	
677.69	21330	
677.88	20000	
678.06	18871	
678.25	18937	
678.44	20618	
678.62	20348	
678.81	18404	
678.99	19791	
679.18	21331	
679.36	20975	
679.55	19308	
679.73	19626	
679.92	20725	
680.1	20319	
680.29	20383	
680.47	18940	
680.66	20130	
680.84	20881	
681.03	18340	
681.21	19192	
681.4	20080	
681.58	19892	
681.77	18466	
681.95	18559	
682.14	20611	
682.32	20923	
682.51	19344	
682.69	17905	
682.88	19626	
683.06	19911	
683.25	18639	
683.43	19126	
683.62	19505	
683.8	19809	
683.99	18619	
684.17	17498	
684.36	19581	
684.54	17531	
684.73	15261	
684.91	15169	
685.1	16791	
685.28	15947	
685.46	15001	
685.65	15053	
685.83	16550	
686.02	16084	
686.2	14429	
686.39	14814	
686.57	16090	
686.76	17799	
686.94	14901	
687.13	15101	
687.31	16845	
687.5	16574	
687.68	14550	
687.86	15919	
688.05	18535	
688.23	16256	
688.42	16208	
688.6	15448	
688.79	16840	
688.97	16683	
689.16	15982	
689.34	14733	
689.52	17567	
689.71	17492	
689.89	15971	
690.08	14990	
690.26	16607	
690.45	16351	
690.63	15401	
690.81	14722	
691	15548	
691.18	15553	
691.37	14345	
691.55	16619	
691.74	15113	
691.92	17365	
692.1	14228	
692.29	13705	
692.47	15640	
692.66	14917	
692.84	14117	
693.02	14949	
693.21	15532	
693.39	15836	
693.58	15544	
693.76	14978	
693.94	17736	
694.13	17894	
694.31	15616	
694.5	16774	
694.68	17092	
694.86	17567	
695.05	16330	
695.23	16773	
695.42	17969	
695.6	20146	
695.78	16832	
695.97	15614	
696.15	17491	
696.34	16843	
696.52	15005	
696.7	15580	
696.89	16587	
697.07	15885	
697.25	14958	
697.44	16723	
697.62	16118	
697.81	16441	
697.99	14410	
698.17	15048	
698.36	15156	
698.54	15707	
698.72	14782	
698.91	13635	
699.09	15488	
699.28	15143	
699.46	14326	
699.64	14152	
699.83	15272	
700.01	16594	
700.19	15297	
700.38	13839	
700.56	17074	
700.74	15996	
700.93	14593	
701.11	15567	
701.29	16711	
701.48	18034	
701.66	15064	
701.84	15117	
702.03	16399	
702.21	17170	
702.39	14417	
702.58	15121	
702.76	16755	
702.94	16713	
703.13	14375	
703.31	16824	
703.49	15913	
703.68	17353	
703.86	14517	
704.04	15722	
704.23	16453	
704.41	16974	
704.59	14694	
704.78	15827	
704.96	17618	
705.14	17010	
705.33	14650	
705.51	15420	
705.69	16375	
705.87	17281	
706.06	15846	
706.24	14541	
706.42	16635	
706.61	17077	
706.79	15711	
706.97	14679	
707.16	16169	
707.34	16621	
707.52	15623	
707.7	14834	
707.89	16263	
708.07	15871	
708.25	15535	
708.44	16050	
708.62	16173	
708.8	17277	
708.98	15975	
709.17	14896	
709.35	16650	
709.53	16421	
709.72	14531	
709.9	14547	
710.08	16583	
710.26	16672	
710.45	15919	
710.63	14668	
710.81	16025	
710.99	16005	
711.18	14971	
711.36	14302	
711.54	15399	
711.72	15968	
711.91	13893	
712.09	13104	
712.27	14868	
712.45	15898	
712.64	13346	
712.82	12216	
713	13435	
713.18	13228	
713.37	11383	
713.55	12241	
713.73	13164	
713.91	11215	
714.1	10190	
714.28	9513.5	
714.46	11283	
714.64	10196	
714.83	7886.7	
715.01	8589.9	
715.19	9631.6	
715.37	8957.1	
715.55	7959.1	
715.74	8234.9	
715.92	10386	
716.1	8285.4	
716.28	9256.8	
716.47	8253.3	
716.65	8868.4	
716.83	9009	
717.01	8091.5	
717.19	8146.8	
717.38	11434	
717.56	8926.4	
717.74	8787.2	
717.92	8164.6	
718.1	10847	
718.29	10197	
718.47	8436.9	
718.65	9199.5	
718.83	11621	
719.01	11675	
719.2	8773.5	
719.38	10030	
719.56	11272	
719.74	12900	
719.92	9267.7	
720.11	10137	
720.29	10774	
720.47	9552.4	
720.65	7986.4	
720.83	8779.6	
721.02	9489.6	
721.2	9093	
721.38	8456.1	
721.56	7721.5	
721.74	8558.5	
721.92	8629.5	
722.11	8887.5	
722.29	8631.5	
722.47	9975	
722.65	9070.5	
722.83	7638.9	
723.01	8518.2	
723.2	9181.7	
723.38	9439.8	
723.56	7031.4	
723.74	8295	
723.92	8582.4	
724.1	9914.2	
724.29	7546.8	
724.47	8856.8	
724.65	8781	
724.83	8677.9	
725.01	7511.3	
725.19	8467	
725.37	8793.3	
725.56	8978.3	
725.74	7370	
725.92	7712	
726.1	8783.7	
726.28	9047.2	
726.46	7954.3	
726.64	7625.3	
726.83	8840.4	
727.01	9153.7	
727.19	7346.7	
727.37	8172.1	
727.55	9109.4	
727.73	9553.8	
727.91	7262.8	
728.09	7184.3	
728.28	9855.5	
728.46	10522	
728.64	8753	
728.82	8789.9	
729	11573	
729.18	10848	
729.36	8447.2	
729.54	10877	
729.72	12386	
729.91	10623	
730.09	10802	
730.27	9636.4	
730.45	10623	
730.63	11500	
730.81	10598	
730.99	9484.1	
731.17	12118	
731.35	10548	
731.53	10081	
731.71	9501.2	
731.9	11640	
732.08	11727	
732.26	9542.9	
732.44	9356.5	
732.62	11725	
732.8	11271	
732.98	10085	
733.16	9015.2	
733.34	11119	
733.52	9807	
733.7	9418.6	
733.88	9843.9	
734.07	11077	
734.25	10862	
734.43	9073.9	
734.61	10846	
734.79	12630	
734.97	10768	
735.15	9256.1	
735.33	9688.3	
735.51	11194	
735.69	10792	
735.87	10954	
736.05	9929.2	
736.23	11286	
736.41	10920	
736.59	9944.3	
736.77	10057	
736.95	11832	
737.13	11262	
737.32	9727.2	
737.5	9990	
737.68	12375	
737.86	11166	
738.04	9542.2	
738.22	11300	
738.4	10921	
738.58	11159	
738.76	10216	
738.94	9104.6	
739.12	11156	
739.3	11091	
739.48	10993	
739.66	10692	
739.84	11583	
740.02	11572	
740.2	9440.5	
740.38	9676	
740.56	11832	
740.74	10751	
740.92	10387	
741.1	10245	
741.28	11191	
741.46	10946	
741.64	9869.8	
741.82	10356	
742	11250	
742.18	11181	
742.36	10051	
742.54	9493	
742.72	11701	
742.9	10403	
743.08	10382	
743.26	9078.6	
743.44	11921	
743.62	11668	
743.8	10522	
743.98	9577	
744.16	11359	
744.34	11032	
744.52	10335	
744.7	10157	
744.88	11422	
745.06	10874	
745.24	10076	
745.42	10228	
745.6	11408	
745.78	11032	
745.96	8776.2	
746.14	9194	
746.32	12065	
746.5	11216	
746.68	9694.4	
746.86	9081.4	
747.03	11654	
747.21	9749.7	
747.39	9453.4	
747.57	9131.9	
747.75	10722	
747.93	11191	
748.11	9044.5	
748.29	8943.5	
748.47	12407	
748.65	10395	
748.83	9774.3	
749.01	9525.8	
749.19	10895	
749.37	10079	
749.55	9281.4	
749.73	9466.4	
749.91	10501	
750.09	10372	
750.26	9411.8	
750.44	8880.7	
750.62	10571	
750.8	10490	
750.98	8499.8	
751.16	9039.7	
751.34	10522	
751.52	9867.1	
751.7	9693.7	
751.88	8484.7	
752.06	10989	
752.24	10842	
752.42	8388.5	
752.59	8752.3	
752.77	10294	
752.95	11724	
753.13	9630.9	
753.31	8969.4	
753.49	9989.3	
753.67	10461	
753.85	9063.6	
754.03	8669.1	
754.21	10501	
754.38	10835	
754.56	8505.9	
754.74	7395.2	
754.92	9191.3	
755.1	9742.9	
755.28	6655.9	
755.46	6237.4	
755.64	9219.3	
755.82	8926.4	
755.99	5360.2	
756.17	5261.9	
756.35	5587.5	
756.53	7162.4	
756.71	3764.2	
756.89	4827.1	
757.07	6759.7	
757.25	5883.8	
757.42	5699.5	
757.6	6787	
757.78	7374.1	
757.96	6375.3	
758.14	5745.9	
758.32	4997.7	
758.5	5642.2	
758.67	6496.2	
758.85	5221.6	
759.03	5254.4	
759.21	6711.2	
759.39	6111.8	
759.57	4792.2	
759.75	5995.1	
759.92	7524.2	
760.1	6755.6	
760.28	6650.4	
760.46	6954.2	
760.64	6788.3	
760.82	6692.8	
760.99	6864.1	
761.17	5999.2	
761.35	8040.3	
761.53	7072.3	
761.71	6526.2	
761.89	7269.6	
762.06	8307.9	
762.24	7804.1	
762.42	6939.2	
762.6	6806.8	
762.78	8115.4	
762.96	8899.8	
763.13	7652.6	
763.31	7351.5	
763.49	9242.5	
763.67	8459.5	
763.85	8267.6	
764.02	8979	
764.2	9611.1	
764.38	8756.4	
764.56	7352.2	
764.74	8133.8	
764.91	9732.6	
765.09	8618.5	
765.27	6988.4	
765.45	6870.9	
765.63	9775.6	
765.8	9679.4	
765.98	6451.8	
766.16	6887.3	
766.34	8051.2	
766.52	7852.6	
766.69	7838.9	
766.87	6630.6	
767.05	8383.7	
767.23	9259.5	
767.41	6931.7	
767.58	7161.1	
767.76	8924.4	
767.94	8994.7	
768.12	6863.4	
768.29	7654.6	
768.47	8356.4	
768.65	9134.6	
768.83	6365.8	
769	7656.7	
769.18	7773.4	
769.36	8567.3	
769.54	7380.2	
769.72	6331.6	
769.89	8672.5	
770.07	8910	
770.25	6543.3	
770.43	7954.3	
770.6	9491	
770.78	9962.7	
770.96	6726.2	
771.14	7418.4	
771.31	8505.2	
771.49	7753.6	
771.67	5770.5	
771.85	5993	
772.02	6923.5	
772.2	7651.9	
772.38	6695.5	
772.55	6150.7	
772.73	7961.1	
772.91	7598	
773.09	6492.1	
773.26	6621.1	
773.44	7761.1	
773.62	7425.9	
773.8	5890.6	
773.97	5628.5	
774.15	7800.7	
774.33	7359	
774.5	5734.3	
774.68	6104.3	
774.86	7946.8	
775.04	7336.5	
775.21	5705.6	
775.39	5727.5	
775.57	7493.5	
775.74	7968.6	
775.92	5565	
776.1	5407.3	
776.27	7384.3	
776.45	8665.6	
776.63	5566.4	
776.81	5022.3	
776.98	6894.1	
777.16	8127.7	
777.34	5663.3	
777.51	6009.4	
777.69	6879.8	
777.87	6698.9	
778.04	5612.1	
778.22	6354.8	
778.4	6611.5	
778.57	7191.8	
778.75	4782	
778.93	5084.4	
779.1	6260	
779.28	6115.2	
779.46	4678.9	
779.64	5251.7	
779.81	7328.3	
779.99	8249.2	
780.17	6101.6	
780.34	6196.5	
780.52	6683.2	
780.69	6915.3	
780.87	5387.5	
781.05	5008	
781.22	6647	
781.4	6777.4	
781.58	5076.9	
781.75	4113	
781.93	6605.4	
782.11	5955.5	
782.28	5909.1	
782.46	4975.2	
782.64	5720	
782.81	6707.1	
782.99	4978.6	
783.17	4919.9	
783.34	6571.2	
783.52	5727.5	
783.69	5171.1	
783.87	5871.5	
784.05	5755.5	
784.22	5722.7	
784.4	5884.5	
784.58	5096	
784.75	6709.1	
784.93	5700.2	
785.1	4759.5	
785.28	5492	
785.46	6298.2	
785.63	5690.6	
785.81	4670.7	
785.99	4588.8	
786.16	5765.7	
786.34	6225.1	
786.51	4572.4	
786.69	4956.1	
786.87	5370.5	
787.04	5911.1	
787.22	4280.3	
787.39	5359.5	
787.57	5582.8	
787.75	6778.8	
787.92	5532.9	
788.1	5438	
788.27	5661.3	
788.45	5407.3	
788.63	5208	
788.8	3804.4	
788.98	6189.6	
789.15	5271.5	
789.33	4010.6	
789.5	4650.9	
789.68	6545.3	
789.86	6654.5	
790.03	5115.1	
790.21	4403.8	
790.38	6450.4	
790.56	5625.1	
790.73	4166.9	
790.91	4336.9	
791.09	5494.7	
791.26	6277	
791.44	4467.3	
791.61	3876.1	
791.79	5449	
791.96	5520.6	
792.14	4048.2	
792.32	3563.5	
792.49	5510.4	
792.67	5545.9	
792.84	4029	
793.02	3824.2	
793.19	5905.7	
793.37	6666.8	
793.54	3531.4	
793.72	3910.9	
793.89	6883.9	
794.07	5453.7	
794.25	4521.9	
794.42	3579.8	
794.6	6509.8	
794.77	6133.7	
794.95	4821.6	
795.12	4184	
795.3	5372.5	
795.47	6000.5	
795.65	4650.9	
795.82	4453.6	
796	5124.7	
796.17	7247.1	
796.35	4273.4	
796.52	5052.3	
796.7	5899.5	
796.87	5994.4	
797.05	5199.1	
797.22	5164.3	
797.4	5957.5	
797.57	6958.3	
797.75	4420.9	
797.92	4131.4	
798.1	6328.2	
798.27	5350	
798.45	3540.9	
798.62	3839.3	
798.8	5664	
798.97	6152.1	
799.15	4635.2	
799.32	4412	
799.5	4839.4	
799.67	5683.8	
799.85	4790.2	
800.02	3486.3	
800.2	5324.7	
800.37	5642.2	
800.55	4954.7	
800.72	4157.4	
800.9	6129.6	
801.07	6608.8	
801.25	5512.4	
801.42	4471.4	
801.6	6147.3	
801.77	5860.6	
801.95	4010.6	
802.12	3997.6	
802.29	5883.1	
802.47	5806.7	
802.64	4435.2	
802.82	3374.4	
802.99	5238	
803.17	6278.4	
803.34	4354.7	
803.52	3931.4	
803.69	6892.8	
803.87	4956.1	
804.04	4242.7	
804.21	4364.9	
804.39	6454.5	
804.56	5459.2	
804.74	3679.5	
804.91	4496.7	
805.09	5243.5	
805.26	5294.7	
805.44	3628.3	
805.61	4082.3	
805.78	5891.3	
805.96	5963	
806.13	4431.1	
806.31	4795	
806.48	4719.9	
806.66	5320.6	
806.83	4400.4	
807	4319.8	
807.18	5176.6	
807.35	5584.8	
807.53	4317.8	
807.7	3466.5	
807.87	6411.5	
808.05	5211.4	
808.22	4700.1	
808.4	3406.5	
808.57	5237.3	
808.74	4827.1	
808.92	3906.2	
809.09	4991.6	
809.27	5059.8	
809.44	5702.2	
809.61	3474	
809.79	3850.9	
809.96	6401.3	
810.14	5972.6	
810.31	3364.1	
810.48	4120.5	
810.66	5302.2	
810.83	6075	
811.01	3961.5	
811.18	4597.7	
811.35	5977.3	
811.53	4639.3	
811.7	4739	
811.87	4472.8	
812.05	5216.2	
812.22	5123.3	
812.39	3717.1	
812.57	3639.9	
812.74	5177.9	
812.92	7007.5	
813.09	4117.1	
813.26	4561.5	
813.44	6675.7	
813.61	5151.3	
813.78	3408.5	
813.96	4610	
814.13	5156.1	
814.3	4842.8	
814.48	4943.8	
814.65	4125.3	
814.82	6539.8	
815	4952.7	
815.17	4237.9	
815.34	5124	
815.52	5149.3	
815.69	5167	
815.87	4190.8	
816.04	3626.3	
816.21	5229.8	
816.38	4520.5	
816.56	4026.3	
816.73	3778.5	
816.9	6581.5	
817.08	5979.4	
817.25	3756	
817.42	4843.4	
817.6	4766.3	
817.77	5210.7	
817.94	4244.1	
818.12	3768.3	
818.29	4898.7	
818.46	7701	
818.64	3930.1	
818.81	3684.3	
818.98	4870.1	
819.16	7120.1	
819.33	4551.3	
819.5	4185.4	
819.67	5569.1	
819.85	6244.9	
820.02	4098.7	
820.19	4382.7	
820.37	5436.7	
820.54	5010	
820.71	4278.9	
820.88	5314.5	
821.06	5461.9	
821.23	4933.6	
821.4	4347.8	
821.58	4283	
821.75	5991.7	
821.92	5321.3	
822.09	3416	
822.27	3762.8	
822.44	5183.4	
822.61	5122	
822.79	3416	
822.96	6653.2	
823.13	5716.6	
823.3	4864.6	
823.48	3971	
823.65	3624.9	
823.82	5888.6	
823.99	4741.7	
824.17	5096	
824.34	3648.1	
824.51	6899.6	
824.68	5274.2	
824.86	3873.4	
825.03	4297.3	
825.2	5180.7	
825.37	6296.8	
825.55	3757.3	
825.72	4211.3	
825.89	6916.7	
826.06	6478.4	
826.24	4088.4	
826.41	4174.4	
826.58	6352.8	
826.75	5501.5	
826.92	3190.1	
827.1	3605.8	
827.27	8639.7	
827.44	6886	
827.61	3850.2	
827.79	4784.1	
827.96	4930.8	
828.13	5370.5	
828.3	4087.1	
828.47	3373.7	
828.65	5401.9	
828.82	5381.4	
828.99	5282.4	
829.16	4643.4	
829.34	5844.2	
829.51	5658.5	
829.68	4253.6	
829.85	4426.3	
830.02	6055.8	
830.2	5784.8	
830.37	3272	
830.54	5139.7	
830.71	6682.5	
830.88	5189.6	
831.05	3320.4	
831.23	3823.6	
831.4	6337.1	
831.57	7154.9	
831.74	3906.8	
831.91	3457.7	
832.09	5416.9	
832.26	5803.9	
832.43	4065.9	
832.6	4571.1	
832.77	5420.3	
832.94	6244.9	
833.12	3242.6	
833.29	4029.7	
833.46	5029.8	
833.63	7415.7	
833.8	4414.1	
833.97	4043.4	
834.15	5820.3	
834.32	5575.3	
834.49	4210.6	
834.66	4335.5	
834.83	6083.1	
835	4887.8	
835.17	3884.3	
835.35	3932.8	
835.52	5771.9	
835.69	5603.2	
835.86	4167.6	
836.03	3403.7	
836.2	5796.4	
836.37	5475.6	
836.55	4056.3	
836.72	3784.6	
836.89	5360.9	
837.06	5806.7	
837.23	4106.9	
837.4	4553.3	
837.57	6604	
837.75	7363.8	
837.92	3691.1	
838.09	3957.4	
838.26	5347.2	
838.43	6171.9	
838.6	4254.3	
838.77	3818.1	
838.94	7010.9	
839.11	6754.9	
839.29	4063.2	
839.46	3186	
839.63	5786.2	
839.8	5515.9	
839.97	3892.5	
840.14	3925.3	
840.31	5541.1	
840.48	5829.2	
840.65	3263.8	
840.82	3845.4	
841	5838.8	
841.17	5776.6	
841.34	3619.4	
841.51	3684.3	
841.68	5681.7	
841.85	5491.3	
842.02	3737.5	
842.19	3104	
842.36	5520	
842.53	5519.3	
842.7	3591.5	
842.87	4450.9	
843.05	7382.9	
843.22	5519.3	
843.39	3452.2	
843.56	3712.3	
843.73	5234.6	
843.9	5838.1	
844.07	5910.4	
844.24	4870.8	
844.41	8594	
844.58	5023.7	
844.75	3512.3	
844.92	3792.8	
845.09	5785.5	
845.26	5799.8	
845.43	3571.7	
845.6	3725.9	
845.77	5810.1	
845.94	5507	
846.12	4013.3	
846.29	4225	
846.46	6040.1	
846.63	5750	
846.8	3614.7	
846.97	4290.5	
847.14	6230.6	
847.31	5744.6	
847.48	4044.7	
847.65	4468.7	
847.82	6078.4	
847.99	6029.9	
848.16	4794.3	
848.33	4465.9	
848.5	5356.8	
848.67	6322.8	
848.84	3601	
849.01	3809.2	
849.18	5261.9	
849.35	4831.2	
849.52	4530.1	
849.69	3565.5	
849.86	5966.4	
850.03	6204.7	
850.2	3567.6	
850.37	4414.7	
850.54	6122.1	
850.71	5504.3	
850.88	4373.1	
851.05	3527.3	
851.22	5670.8	
851.39	6350.1	
851.56	3370.3	
851.73	4088.4	
851.9	5070.8	
852.07	6006	
852.24	4014	
852.41	3552.5	
852.58	5722.7	
852.75	5169.1	
852.92	4061.1	
853.09	3478.1	
853.26	5403.2	
853.43	6265.4	
853.6	3644.7	
853.77	3012.6	
853.94	6326.9	
854.11	5038	
854.28	5387.5	
854.44	3887.7	
854.61	6808.8	
854.78	5881.8	
854.95	3551.9	
855.12	4498.7	
855.29	4665.3	
855.46	6370.5	
855.63	3551.2	
855.8	4958.8	
855.97	5350.7	
856.14	6144.6	
856.31	5052.3	
856.48	3928.7	
856.65	5339.1	
856.82	5053.7	
856.99	3411.2	
857.16	3855.6	
857.33	7060.7	
857.49	5453.1	
857.66	3891.8	
857.83	4232.5	
858	5393.7	
858.17	5564.3	
858.34	3406.5	
858.51	3615.3	
858.68	6494.1	
858.85	6456.6	
859.02	4186.7	
859.19	4434.5	
859.36	5044.1	
859.52	5142.4	
859.69	3577.8	
859.86	4207.2	
860.03	5128.1	
860.2	6416.3	
860.37	3241.3	
860.54	3616.7	
860.71	6027.2	
860.88	6423.1	
861.05	4043.4	
861.21	4467.3	
861.38	6426.5	
861.55	4945.2	
861.72	3246	
861.89	3953.3	
862.06	6090.7	
862.23	6643.6	
862.4	3493.2	
862.56	3693.2	
862.73	5943.2	
862.9	5595.7	
863.07	4205.2	
863.24	3237.2	
863.41	4975.9	
863.58	5051.7	
863.75	3704.8	
863.91	4145.1	
864.08	6391	
864.25	5961	
864.42	4479.6	
864.59	5017.5	
864.76	6772.6	
864.93	5111.7	
865.09	3506.1	
865.26	3833.1	
865.43	6286.6	
865.6	6690	
865.77	3162.7	
865.94	3536.8	
866.1	6437.4	
866.27	6083.8	
866.44	5398.4	
866.61	3388	
866.78	5503.6	
866.95	5936.4	
867.11	3469.9	
867.28	3142.9	
867.45	6126.2	
867.62	5217.5	
867.79	4155.3	
867.96	3590.8	
868.12	5076.2	
868.29	6076.3	
868.46	3156.6	
868.63	4733.5	
868.8	6261.3	
868.97	5998.5	
869.13	3790.8	
869.3	3737.5	
869.47	5944.6	
869.64	6116.6	
869.81	3625.6	
869.97	3541.6	
870.14	5762.3	
870.31	6477	
870.48	3512.3	
870.65	4491.9	
870.81	5406	
870.98	5317.9	
871.15	4080.9	
871.32	3688.4	
871.48	5838.8	
871.65	6521.4	
871.82	3566.9	
871.99	3917.1	
872.16	6926.9	
872.32	6339.8	
872.49	3604.4	
872.66	3670.6	
872.83	5997.8	
872.99	5266	
873.16	4037.2	
873.33	3560.1	
873.5	5598.5	
873.67	5646.9	
873.83	3748.5	
874	4795.7	
874.17	5759.6	
874.34	6812.2	
874.5	4661.9	
874.67	4425	
874.84	6507.1	
875.01	5038.7	
875.17	5047.6	
875.34	3604.4	
875.51	5722.7	
875.68	6894.8	
875.84	4318.5	
876.01	5271.5	
876.18	5904.3	
876.34	5920	
876.51	3593.5	
876.68	3502	
876.85	5451	
877.01	6234.7	
877.18	5154.1	
877.35	3566.9	
877.52	5560.2	
877.68	5021.6	
877.85	3489.1	
878.02	3515.7	
878.18	5537.7	
878.35	5224.4	
878.52	2887.6	
878.69	4035.2	
878.85	6041.5	
879.02	5967.8	
879.19	5117.2	
879.35	3859.7	
879.52	5920	
879.69	6261.3	
879.86	3109.5	
880.02	4021.5	
880.19	5509	
880.36	6748.1	
880.52	4095.9	
880.69	4279.6	
880.86	6079.7	
881.02	6134.3	
881.19	3945.1	
881.36	3925.3	
881.52	5953.4	
881.69	5268.1	
881.86	3865.2	
882.02	3772.4	
882.19	6289.3	
882.36	7396.6	
882.52	3660.4	
882.69	5048.2	
882.86	5697.4	
883.02	5649.7	
883.19	4285	
883.36	4085	
883.52	6062	
883.69	6901	
883.86	3604.4	
884.02	3237.8	
884.19	6095.4	
884.36	5524.1	
884.52	4072.7	
884.69	3755.3	
884.86	5268.1	
885.02	6657.3	
885.19	3988.8	
885.36	4121.2	
885.52	5524.7	
885.69	5731.6	
885.86	5238	
886.02	4573.8	
886.19	6051.1	
886.35	5436	
886.52	3949.2	
886.69	5023.7	
886.85	5101.5	
887.02	6431.3	
887.19	6431.3	
887.35	6431.3	
887.52	6431.3	
887.68	6431.3	
887.85	6431.3	
888.02	6431.3	
888.18	6431.3	
888.35	6431.3	
888.51	6431.3	
888.68	6431.3	
888.85	6431.3	
889.01	6431.3	
889.18	6431.3	
889.35	6431.3	
889.51	6431.3	
889.68	6431.3	
889.84	6431.3	
890.01	6431.3	
890.17	6431.3	
890.34	6431.3	
890.51	6431.3	
890.67	6431.3	
890.84	6431.3	
891	6431.3	
891.17	6431.3	
891.34	6431.3	
891.5	6431.3	
891.67	6431.3	
891.83	6431.3	
892	6431.3	
892.16	6431.3	
892.33	6431.3	
892.5	6431.3	
892.66	6431.3	
892.83	6431.3	
892.99	6431.3	
893.16	6431.3	
893.32	6431.3	
893.49	6431.3	
893.65	6431.3	
893.82	6431.3	
893.99	6431.3	
894.15	6431.3	
894.32	6431.3	
894.48	6431.3	
894.65	6431.3	
894.81	6431.3	
894.98	6431.3	
895.14	6431.3	
895.31	6431.3	
895.47	6431.3	
895.64	6431.3	
895.81	6431.3	
895.97	6431.3	
896.14	6431.3	
896.3	6431.3	
896.47	6431.3	
896.63	6431.3	
896.8	6431.3	
896.96	6431.3	
897.13	6431.3	
897.29	6431.3	
897.46	6431.3	
897.62	6431.3	
897.79	6431.3	
897.95	6431.3	
898.12	6431.3	
898.28	6431.3	
898.45	6431.3	
898.61	6431.3	
898.78	6431.3	
898.94	6431.3	
899.11	6431.3	
899.27	6431.3	
899.44	6431.3	
899.6	6431.3	
899.77	6431.3	
899.93	6431.3	
900.1	6431.3	
900.26	6431.3	
900.43	6431.3	
900.59	6431.3	
900.76	6431.3	
900.92	6431.3	
901.09	6431.3	
901.25	6431.3	
901.42	6431.3	
901.58	6431.3	
901.75	6431.3	
901.91	6431.3	
902.07	6431.3	
902.24	6431.3	
902.4	6431.3	
902.57	6431.3	
902.73	6431.3	
902.9	6431.3	
903.06	6431.3	
903.23	6431.3	
903.39	6431.3	
903.56	6431.3	
903.72	6431.3	
903.88	6431.3	
904.05	6431.3	
904.21	6431.3	
904.38	6431.3	
904.54	6431.3	
904.71	6431.3	
904.87	6431.3	
905.03	6431.3	
905.2	6431.3	
905.36	6431.3	
905.53	6431.3	
905.69	6431.3	
905.86	6431.3	
906.02	6431.3	
906.18	6431.3	
906.35	6431.3	
906.51	6431.3	
906.68	6431.3	
906.84	6431.3	
907.01	6431.3	
907.17	6431.3	
907.33	6431.3	
907.5	6431.3	
907.66	6431.3	
907.83	6431.3	
907.99	6431.3	
908.15	6431.3	
908.32	6431.3	
908.48	6431.3	
908.65	6431.3	
908.81	6431.3	
908.97	6431.3	
909.14	6431.3	
909.3	6431.3	
909.47	6431.3	
909.63	6431.3	
909.79	6431.3	
909.96	6431.3	
910.12	6431.3	
910.28	6431.3	
910.45	6431.3	
910.61	6431.3	
910.78	6431.3	
910.94	6431.3	
911.1	6431.3	
911.27	6431.3	
911.43	6431.3	
911.59	6431.3	
911.76	6431.3	
911.92	6431.3	
912.08	6431.3	
912.25	6431.3	
912.41	6431.3	
912.57	6431.3	
912.74	6431.3	
912.9	6431.3	
913.07	6431.3	
913.23	6431.3	
913.39	6431.3	
913.56	6431.3	
913.72	6431.3	
913.88	6431.3	
914.05	6431.3	
914.21	6431.3	
914.37	6431.3	
914.54	6431.3	
914.7	6431.3	
914.86	6431.3	
915.03	6431.3	
915.19	6431.3	
