Wavelength	Intensities	
nm	a.u.	
179.22	1858.4	
179.44	1861.9	
179.65	1854.8	
179.86	1869.1	
180.08	1882.1	
180.29	4704.9	
180.51	3406.5	
180.72	5492.7	
180.94	6421.1	
181.15	3144.3	
181.37	3082.9	
181.58	5383.4	
181.79	5705.6	
182.01	3267.2	
182.22	3501.3	
182.44	5573.2	
182.65	4726.7	
182.87	4401.1	
183.08	3856.3	
183.29	5887.2	
183.51	4845.5	
183.72	3530	
183.94	5097.4	
184.15	5272.2	
184.37	5272.2	
184.58	3124.5	
184.79	4245.4	
185.01	4906.9	
185.22	5560.2	
185.44	4504.2	
185.65	3793.5	
185.86	5135.6	
186.08	4815.5	
186.29	3048.7	
186.51	3261	
186.72	4906.3	
186.94	5763.7	
187.15	3749.1	
187.36	3836.5	
187.58	7484	
187.79	5352.7	
188.01	3985.3	
188.22	6242.9	
188.43	6414.9	
188.65	5569.1	
188.86	3227.6	
189.08	3882.9	
189.29	5095.3	
189.5	5083.7	
189.72	3552.5	
189.93	3656.3	
190.15	5767.8	
190.36	6875	
190.57	3956	
190.79	3829.7	
191	5874.9	
191.22	5831.9	
191.43	3927.3	
191.64	3294.5	
191.86	6152.1	
192.07	5815.5	
192.29	3390.1	
192.5	3615.3	
192.71	5823.7	
192.93	5006.6	
193.14	3548.4	
193.35	3648.1	
193.57	5076.2	
193.78	5739.8	
194	2914.3	
194.21	3525.2	
194.42	4803.9	
194.64	5286.5	
194.85	3905.5	
195.07	4560.1	
195.28	5361.6	
195.49	4602.5	
195.71	4781.3	
195.92	3373	
196.13	5482.4	
196.35	5621	
196.56	5075.5	
196.78	3880.2	
196.99	6767.2	
197.2	6388.3	
197.42	4433.2	
197.63	3887.7	
197.84	4734.9	
198.06	5460.6	
198.27	3589.4	
198.48	4704.9	
198.7	5041.4	
198.91	5201.2	
199.13	3882.9	
199.34	3972.4	
199.55	5641.5	
199.77	4634.6	
199.98	3431	
200.19	3983.3	
200.41	5086.5	
200.62	4956.8	
200.83	4062.5	
201.05	4341.7	
201.26	5187.5	
201.47	4928.8	
201.69	3476.8	
201.9	3302	
202.11	5311.1	
202.33	6219	
202.54	3728.7	
202.76	4143.7	
202.97	5367	
203.18	5360.9	
203.4	4053.6	
203.61	3986	
203.82	5352	
204.04	4970.4	
204.25	3895.2	
204.46	3809.9	
204.68	5249.6	
204.89	5532.9	
205.1	3815.4	
205.32	3338.2	
205.53	5664	
205.74	5836.7	
205.96	2864.4	
206.17	3983.3	
206.38	5651.7	
206.6	5760.9	
206.81	4492.6	
207.02	3631.7	
207.24	5502.9	
207.45	5903.6	
207.66	3744.4	
207.88	3162.1	
208.09	5423.7	
208.3	5242.8	
208.52	3465.2	
208.73	3766.9	
208.94	5242.8	
209.15	5902.2	
209.37	3744.4	
209.58	3944.4	
209.79	5779.4	
210.01	5087.8	
210.22	2973.7	
210.43	3117.7	
210.65	5315.8	
210.86	5646.9	
211.07	3732.8	
211.29	3435.8	
211.5	5627.8	
211.71	5192.3	
211.93	3422.2	
212.14	3386	
212.35	5235.3	
212.56	5407.3	
212.78	3917.1	
212.99	3253.5	
213.2	6225.1	
213.42	5030.5	
213.63	3563.5	
213.84	3751.2	
214.06	4722.6	
214.27	4823.6	
214.48	3770.3	
214.69	3951.9	
214.91	5906.3	
215.12	6049.7	
215.33	4029.7	
215.55	4409.3	
215.76	6442.9	
215.97	5606	
216.18	3811.3	
216.4	3795.6	
216.61	4973.8	
216.82	5776	
217.04	3448.1	
217.25	3583.9	
217.46	5909.8	
217.67	5692.7	
217.89	3131.3	
218.1	3240.6	
218.31	5337.7	
218.53	5433.9	
218.74	3651.5	
218.95	3483.6	
219.16	5227.8	
219.38	6120	
219.59	3524.6	
219.8	4146.5	
220.01	6736.5	
220.23	5310.4	
220.44	4575.8	
220.65	3410.6	
220.87	5371.8	
221.08	5908.4	
221.29	3203	
221.5	4266.6	
221.72	7080.5	
221.93	5033.2	
222.14	3990.8	
222.35	4615.4	
222.57	5314.5	
222.78	5597.1	
222.99	3751.2	
223.2	3981.3	
223.42	5629.9	
223.63	5689.9	
223.84	2841.2	
224.05	2891	
224.27	6679.8	
224.48	6148	
224.69	4677.6	
224.9	3949.8	
225.12	5429.2	
225.33	5221.6	
225.54	3166.8	
225.75	3465.8	
225.97	4876.9	
226.18	5102.2	
226.39	3788.7	
226.6	3551.9	
226.82	5076.2	
227.03	4883	
227.24	3885.7	
227.45	3299.3	
227.67	5649	
227.88	6150.1	
228.09	4419.5	
228.3	4335.5	
228.52	5687.9	
228.73	5199.1	
228.94	3592.8	
229.15	3234.4	
229.36	5197.7	
229.58	5153.4	
229.79	3717.7	
230	4257	
230.21	6289.3	
230.43	5386.8	
230.64	3897.3	
230.85	4060.4	
231.06	5622.4	
231.28	5682.4	
231.49	3256.3	
231.7	3801	
231.91	5575.3	
232.12	5314.5	
232.34	3362.8	
232.55	3779.9	
232.76	5870.2	
232.97	5426.4	
233.18	3398.3	
233.4	3900.7	
233.61	5507.7	
233.82	5065.3	
234.03	3676.8	
234.25	3591.5	
234.46	7226.6	
234.67	5372.5	
234.88	3986	
235.09	3521.1	
235.31	5563.6	
235.52	5158.8	
235.73	3861.1	
235.94	3291.8	
236.15	5005.2	
236.37	6328.9	
236.58	3478.1	
236.79	3724.6	
237	5612.8	
237.21	4790.2	
237.43	3977.8	
237.64	3171.6	
237.85	9397.4	
238.06	4855.7	
238.27	4040	
238.48	3287	
238.7	5594.4	
238.91	5145.9	
239.12	3729.4	
239.33	3795.6	
239.54	4926	
239.76	5203.9	
239.97	3696.6	
240.18	3727.3	
240.39	6582.2	
240.6	5567.1	
240.82	3874.1	
241.03	3178.4	
241.24	5236.7	
241.45	6094.1	
241.66	3385.3	
241.87	4018.1	
242.09	5976.7	
242.3	6348	
242.51	4045.4	
242.72	3721.2	
242.93	5758.9	
243.14	5245.5	
243.36	4262.5	
243.57	4669.4	
243.78	6164.4	
243.99	5598.5	
244.2	3771	
244.41	3449.5	
244.63	4863.2	
244.84	5618.9	
245.05	4012.7	
245.26	3772.4	
245.47	5515.2	
245.68	5760.3	
245.9	4968.4	
246.11	3916.4	
246.32	5086.5	
246.53	5483.1	
246.74	6038.8	
246.95	3217.4	
247.16	4808.6	
247.38	5331.5	
247.59	3099.3	
247.8	3734.1	
248.01	4930.8	
248.22	5276.9	
248.43	3411.2	
248.64	3721.2	
248.86	4712.4	
249.07	5054.4	
249.28	3282.9	
249.49	3846.8	
249.7	5772.5	
249.91	5973.9	
250.12	3132.7	
250.34	3200.3	
250.55	5397.1	
250.76	5324.7	
250.97	3823.6	
251.18	3932.1	
251.39	5952.1	
251.6	5418.9	
251.81	4054.3	
252.03	3946.4	
252.24	5023.7	
252.45	5804.6	
252.66	3285.6	
252.87	4176.5	
253.08	5289.2	
253.29	6858.6	
253.5	3264.5	
253.72	4590.9	
253.93	5131.5	
254.14	6216.3	
254.35	3563.5	
254.56	3706.1	
254.77	5544.5	
254.98	4926.7	
255.19	3553.9	
255.41	4560.8	
255.62	5388.9	
255.83	5864.7	
256.04	4091.8	
256.25	3955.3	
256.46	6509.8	
256.67	5025.7	
256.88	3837.9	
257.09	4301.4	
257.31	4977.9	
257.52	4981.3	
257.73	4820.2	
257.94	3553.2	
258.15	5186.1	
258.36	5330.9	
258.57	4435.2	
258.78	2848	
258.99	5717.9	
259.2	5092.6	
259.41	3596.2	
259.63	3719.8	
259.84	6168.5	
260.05	6508.4	
260.26	4693.9	
260.47	3478.1	
260.68	5862.7	
260.89	5223.7	
261.1	4356.7	
261.31	3397.6	
261.52	5788.2	
261.73	6238.8	
261.95	4606.6	
262.16	3994.9	
262.37	5946.6	
262.58	6078.4	
262.79	4576.5	
263	3652.2	
263.21	5266	
263.42	5197.7	
263.63	3762.8	
263.84	3665.2	
264.05	5817.6	
264.26	6198.5	
264.47	4510.3	
264.69	4051.6	
264.9	5948.7	
265.11	5496.7	
265.32	3511.6	
265.53	3528.7	
265.74	5427.1	
265.95	4777.9	
266.16	3816.7	
266.37	4226.3	
266.58	5427.1	
266.79	5029.1	
267	3560.1	
267.21	3354.6	
267.42	4884.4	
267.63	5250.3	
267.84	3743.7	
268.06	3206.4	
268.27	5730.2	
268.48	5924.1	
268.69	3650.2	
268.9	4355.3	
269.11	5948	
269.32	4773.1	
269.53	3777.8	
269.74	3477.5	
269.95	5618.9	
270.16	4678.2	
270.37	3785.3	
270.58	4316.4	
270.79	5187.5	
271	5748.6	
271.21	3952.6	
271.42	3802.4	
271.63	5384.1	
271.84	4896	
272.05	3000.3	
272.26	3396.9	
272.47	5310.4	
272.68	5474.9	
272.89	3598.3	
273.11	4164.2	
273.32	5132.2	
273.53	6126.8	
273.74	4043.4	
273.95	3942.3	
274.16	5866.7	
274.37	5354.1	
274.58	4183.3	
274.79	3271.3	
275	5456.5	
275.21	5916.6	
275.42	4963.6	
275.63	4218.8	
275.84	5548.6	
276.05	6941.9	
276.26	3973.7	
276.47	3737.5	
276.68	5170.4	
276.89	6276.3	
277.1	4230.4	
277.31	3323.9	
277.52	5532.9	
277.73	5699.5	
277.94	3242.6	
278.15	3657.7	
278.36	5477	
278.57	4969.1	
278.78	3623.5	
278.99	4068.6	
279.2	4973.8	
279.41	4884.4	
279.62	4771.1	
279.83	3351.2	
280.04	6413.6	
280.25	4915.8	
280.46	4736.3	
280.67	3753.2	
280.88	4906.9	
281.09	5914.5	
281.3	3991.5	
281.51	4983.4	
281.72	5033.2	
281.93	5770.5	
282.14	3568.9	
282.35	3769.6	
282.56	5750.7	
282.77	5699.5	
282.98	3631	
283.19	4417.5	
283.4	6986.3	
283.61	5223	
283.82	3283.6	
284.03	4650.3	
284.24	5374.6	
284.45	5843.5	
284.66	4742.4	
284.87	4496	
285.08	5837.4	
285.29	6008.1	
285.5	3205.1	
285.71	3680.9	
285.92	5874.9	
286.12	6531.7	
286.33	4590.2	
286.54	3657	
286.75	5778	
286.96	5158.2	
287.17	3371.6	
287.38	4524.6	
287.59	4947.9	
287.8	4909	
288.01	3737.5	
288.22	4205.8	
288.43	5801.9	
288.64	4840.7	
288.85	4362.2	
289.06	4158.7	
289.27	5651	
289.48	6163	
289.69	4685.8	
289.9	4263.9	
290.11	5945.3	
290.32	5081	
290.53	4437.9	
290.74	4037.9	
290.94	5735	
291.15	5833.3	
291.36	3586	
291.57	4180.6	
291.78	5012.7	
291.99	4746.5	
292.2	3371.6	
292.41	4061.1	
292.62	5807.4	
292.83	5584.1	
293.04	5047.6	
293.25	3424.9	
293.46	5134.3	
293.67	5879.7	
293.88	3493.2	
294.09	3377.1	
294.29	4879.6	
294.5	5434.6	
294.71	3806.5	
294.92	3639.2	
295.13	5087.8	
295.34	6358.9	
295.55	3210.5	
295.76	3275.4	
295.97	5675.6	
296.18	6401.3	
296.39	3374.4	
296.6	3506.1	
296.81	5395	
297.01	5716.6	
297.22	3736.9	
297.43	3540.3	
297.64	5004.6	
297.85	4910.3	
298.06	2957.3	
298.27	3190.1	
298.48	5322	
298.69	5042.8	
298.9	3793.5	
299.11	3418.1	
299.31	4845.5	
299.52	4861.2	
299.73	4031.1	
299.94	4006.5	
300.15	5268.1	
300.36	4952	
300.57	4040.6	
300.78	3956	
300.99	5185.5	
301.2	5401.2	
301.4	3482.9	
301.61	3811.3	
301.82	5602.6	
302.03	5672.9	
302.24	4264.6	
302.45	3390.8	
302.66	5582.8	
302.87	6024.4	
303.08	3514.3	
303.29	4736.3	
303.49	5073.5	
303.7	5345.2	
303.91	3155.2	
304.12	4562.9	
304.33	4795.7	
304.54	5470.8	
304.75	3571.7	
304.96	3371	
305.16	5629.2	
305.37	6282.5	
305.58	3093.1	
305.79	3197.6	
306	5578.7	
306.21	4736.3	
306.42	3553.2	
306.63	5381.4	
306.83	5135.6	
307.04	5820.3	
307.25	3900	
307.46	3885.7	
307.67	4575.8	
307.88	5717.2	
308.09	3464.5	
308.29	3579.2	
308.5	5322.7	
308.71	5866.7	
308.92	3760.1	
309.13	3395.5	
309.34	5162.9	
309.55	5207.3	
309.75	4407.9	
309.96	4051.6	
310.17	5694	
310.38	5011.4	
310.59	4184.7	
310.8	3309.5	
311.01	5188.9	
311.21	5159.5	
311.42	3347.1	
311.63	3516.4	
311.84	5111.7	
312.05	5408	
312.26	3928.7	
312.46	4262.5	
312.67	5126.7	
312.88	4814.8	
313.09	3412.6	
313.3	3362.1	
313.51	6075	
313.71	6416.3	
313.92	3391.4	
314.13	3638.6	
314.34	5535.7	
314.55	5243.5	
314.76	4336.2	
314.96	3807.2	
315.17	5372.5	
315.38	5600.5	
315.59	3446.7	
315.8	3280.8	
316.01	6099.5	
316.21	6165.8	
316.42	3272	
316.63	3810.6	
316.84	5147.9	
317.05	5969.8	
317.26	4004.5	
317.46	3635.8	
317.67	5274.2	
317.88	5692	
318.09	4318.5	
318.3	3203.7	
318.5	5048.2	
318.71	5608.7	
318.92	5516.5	
319.13	3999.7	
319.34	5750.7	
319.54	5943.9	
319.75	3230.3	
319.96	3056.9	
320.17	5593	
320.38	5799.8	
320.58	3154.6	
320.79	3697.9	
321	5835.3	
321.21	5933	
321.42	3803.8	
321.62	3149.8	
321.83	4928.8	
322.04	5330.9	
322.25	3651.5	
322.46	3446.7	
322.66	5458.5	
322.87	5579.3	
323.08	4231.1	
323.29	3390.8	
323.5	6323.4	
323.7	4903.5	
323.91	4676.2	
324.12	4202.4	
324.33	5410.7	
324.53	5586.9	
324.74	4031.1	
324.95	4259.1	
325.16	4717.2	
325.37	5114.5	
325.57	3456.3	
325.78	3519.8	
325.99	5384.1	
326.2	4821.6	
326.4	4814.1	
326.61	3175	
326.82	5226.4	
327.03	5455.8	
327.24	4843.4	
327.44	4556	
327.65	5587.5	
327.86	4484.4	
328.07	4044.7	
328.27	3347.1	
328.48	5980.1	
328.69	4887.1	
328.9	4924	
329.1	3695.2	
329.31	5197.7	
329.52	6079.1	
329.73	3474.7	
329.93	3866.6	
330.14	5346.6	
330.35	5534.3	
330.56	5588.2	
330.76	4203.1	
330.97	5156.8	
331.18	5522.7	
331.39	3842	
331.59	3081.5	
331.8	5922.7	
332.01	6034	
332.22	3553.9	
332.42	4070.7	
332.63	5459.9	
332.84	5012.1	
333.05	3855	
333.25	3463.8	
333.46	5097.4	
333.67	5330.9	
333.88	3622.9	
334.08	3986.7	
334.29	6997.9	
334.5	5954.1	
334.7	3356.6	
334.91	4859.1	
335.12	4900.1	
335.33	5700.2	
335.53	3828.3	
335.74	5580.7	
335.95	5121.3	
336.16	4947.2	
336.36	3791.5	
336.57	4363.5	
336.78	4861.9	
336.98	5945.3	
337.19	4721.9	
337.4	3733.4	
337.61	6427.2	
337.81	4839.4	
338.02	3493.8	
338.23	4503.5	
338.43	6036.7	
338.64	4978.6	
338.85	3468.6	
339.05	4472.1	
339.26	6163.7	
339.47	4782.7	
339.68	3473.4	
339.88	5063.9	
340.09	5476.3	
340.3	5728.2	
340.5	4053.6	
340.71	3109.5	
340.92	4831.8	
341.13	6008.7	
341.33	3384.6	
341.54	4034.5	
341.75	5585.5	
341.95	5208	
342.16	3842.7	
342.37	4196.3	
342.57	4962.9	
342.78	5261.9	
342.99	4295.3	
343.19	3140.9	
343.4	5712.5	
343.61	5568.4	
343.81	3717.1	
344.02	3377.8	
344.23	5742.5	
344.43	6072.9	
344.64	4301.4	
344.85	4151.9	
345.06	5560.2	
345.26	5871.5	
345.47	3990.8	
345.68	4645.5	
345.88	4746.5	
346.09	5778.7	
346.3	4102.1	
346.5	3147.7	
346.71	5355.4	
346.92	5048.9	
347.12	3162.1	
347.33	4007.9	
347.54	5868.1	
347.74	6256.5	
347.95	3980.6	
348.16	3016	
348.36	5174.5	
348.57	4997	
348.78	3956	
348.98	4252.9	
349.19	5319.3	
349.39	4891.2	
349.6	3188	
349.81	3597.6	
350.01	5586.9	
350.22	5081.7	
350.43	3897.3	
350.63	4622.9	
350.84	5463.3	
351.05	5170.4	
351.25	3491.1	
351.46	3230.3	
351.67	5912.5	
351.87	5094.7	
352.08	3728.7	
352.29	4262.5	
352.49	5819.6	
352.7	5511.1	
352.9	3500.7	
353.11	4257	
353.32	6412.9	
353.52	5249.6	
353.73	3443.3	
353.94	4340.3	
354.14	5730.9	
354.35	5547.3	
354.55	3536.2	
354.76	3940.3	
354.97	5693.4	
355.17	5446.9	
355.38	3351.8	
355.59	4623.6	
355.79	5141.1	
356	5552.7	
356.2	3921.2	
356.41	3502.7	
356.62	4959.5	
356.82	5402.5	
357.03	4264.6	
357.24	3826.3	
357.44	5265.3	
357.65	5354.8	
357.85	5099.4	
358.06	4100	
358.27	4946.5	
358.47	5242.1	
358.68	3494.5	
358.88	4284.4	
359.09	5791.7	
359.3	6221	
359.5	5009.3	
359.71	4528.1	
359.91	6655.9	
360.12	6040.8	
360.33	4324.6	
360.53	4924	
360.74	5354.1	
360.94	5412.1	
361.15	4603.2	
361.36	3879.5	
361.56	6155.5	
361.77	5662	
361.97	5175.9	
362.18	4139.6	
362.38	6270.9	
362.59	5356.8	
362.8	3865.2	
363	3789.4	
363.21	5238	
363.41	5939.8	
363.62	4461.2	
363.83	5492	
364.03	6005.3	
364.24	6901.7	
364.44	5567.1	
364.65	5633.3	
364.85	5750.7	
365.06	5484.5	
365.27	4203.8	
365.47	4221.5	
365.68	6782.2	
365.88	5835.3	
366.09	4648.2	
366.29	4341.7	
366.5	6182.1	
366.71	6488.6	
366.91	5677	
367.12	4902.2	
367.32	7189.1	
367.53	6425.8	
367.73	4922	
367.94	5825.1	
368.14	6378.7	
368.35	7233.4	
368.56	4857.8	
368.76	4290.5	
368.97	6491.4	
369.17	8139.3	
369.38	4339.6	
369.58	4641.4	
369.79	5661.3	
369.99	6822.5	
370.2	5592.3	
370.4	4732.9	
370.61	6266.1	
370.82	7378.1	
371.02	4643.4	
371.23	4071.4	
371.43	5608.7	
371.64	6834.8	
371.84	4799.1	
372.05	5898.1	
372.25	8261.5	
372.46	6747.4	
372.66	4906.9	
372.87	4890.5	
373.07	6876.4	
373.28	8425.3	
373.48	5980.1	
373.69	5683.1	
373.9	6483.2	
374.1	6542.6	
374.31	6025.1	
374.51	5546.6	
374.72	7406.8	
374.92	6314.6	
375.13	6298.9	
375.33	5511.8	
375.54	7112.6	
375.74	6611.5	
375.95	5667.4	
376.15	6858	
376.36	7230.7	
376.56	7094.8	
376.77	5837.4	
376.97	6328.2	
377.18	8320.9	
377.38	7467.6	
377.59	6790.4	
377.79	5648.3	
378	7438.2	
378.2	7847.8	
378.41	5732.3	
378.61	5698.8	
378.82	7915.4	
379.02	7225.2	
379.23	5970.5	
379.43	7028.6	
379.64	8088.1	
379.84	7836.2	
380.05	5788.2	
380.25	5713.2	
380.46	7808.9	
380.66	7364.5	
380.87	6990.4	
381.07	7267.6	
381.28	8290.9	
381.48	7714.7	
381.69	5760.3	
381.89	5806.7	
382.1	6672.3	
382.3	7840.3	
382.51	6754.9	
382.71	7735.9	
382.91	7610.3	
383.12	8200.7	
383.32	6032.6	
383.53	6180.1	
383.73	7433.4	
383.94	7307.8	
384.14	6058.6	
384.35	5186.1	
384.55	7034.1	
384.76	7622.5	
384.96	5955.5	
385.17	6105	
385.37	7550.2	
385.58	6778.1	
385.78	6121.4	
385.98	5094.7	
386.19	6880.5	
386.39	7391.1	
386.6	5689.9	
386.8	5847.6	
387.01	7584.3	
387.21	7543.4	
387.42	6320.7	
387.62	6924.2	
387.83	6966.5	
388.03	7690.8	
388.23	6149.4	
388.44	6936.5	
388.64	6815.6	
388.85	7121.5	
389.05	6612.9	
389.26	7248.4	
389.46	8951.7	
389.67	8479.3	
389.87	6699.6	
390.07	6801.3	
390.28	7626	
390.48	7223.2	
390.69	6060.6	
390.89	6317.3	
391.1	7406.8	
391.3	8350.3	
391.5	7492.2	
391.71	8125	
391.91	8197.3	
392.12	9052	
392.32	7557.7	
392.53	6782.9	
392.73	7500.3	
392.93	7728.4	
393.14	6476.4	
393.34	7208.2	
393.55	7976.8	
393.75	7533.1	
393.95	6258.6	
394.16	6151.4	
394.36	7352.2	
394.57	7899	
394.77	5839.4	
394.98	6218.3	
395.18	7414.3	
395.38	7676.5	
395.59	7395.2	
395.79	6337.8	
396	7828.7	
396.2	8363.9	
396.4	7393.8	
396.61	7363.1	
396.81	8615.1	
397.02	8049.9	
397.22	7818.5	
397.42	7841.7	
397.63	8818.6	
397.83	8144.1	
398.04	6641.6	
398.24	7432.1	
398.44	8572.1	
398.65	7854.6	
398.85	6821.8	
399.05	6987	
399.26	8317.5	
399.46	9960.6	
399.67	7247.8	
399.87	7128.3	
400.07	8798.8	
400.28	9106	
400.48	7387.7	
400.69	8467.7	
400.89	9572.2	
401.09	9929.9	
401.3	7503.8	
401.5	8502.5	
401.7	10423	
401.91	10505	
402.11	7788.4	
402.32	7922.2	
402.52	9600.2	
402.72	9385.8	
402.93	8040.3	
403.13	6805.4	
403.33	9968.8	
403.54	8445.8	
403.74	7337.2	
403.94	8051.2	
404.15	8504.5	
404.35	9590	
404.56	7032.7	
404.76	8802.2	
404.96	8955.1	
405.17	8801.5	
405.37	8698.4	
405.57	7892.9	
405.78	9361.3	
405.98	8639	
406.18	7545.4	
406.39	8330.5	
406.59	9248.6	
406.79	8925	
407	7208.2	
407.2	7348.8	
407.4	9354.4	
407.61	9549.7	
407.81	7567.9	
408.01	9553.1	
408.22	8641.7	
408.42	10801	
408.62	9204.9	
408.83	8818.6	
409.03	10017	
409.23	9930.6	
409.44	9318.9	
409.64	9710.8	
409.84	11463	
410.05	11499	
410.25	9957.9	
410.45	9691	
410.66	11488	
410.86	13510	
411.06	10772	
411.27	10365	
411.47	13941	
411.67	11970	
411.88	10793	
412.08	11434	
412.28	12808	
412.49	13236	
412.69	11095	
412.89	11182	
413.09	13166	
413.3	13177	
413.5	11282	
413.7	10989	
413.91	12482	
414.11	13482	
414.31	11280	
414.52	12004	
414.72	12996	
414.92	13235	
415.12	11401	
415.33	11964	
415.53	13604	
415.73	13747	
415.94	12278	
416.14	11736	
416.34	12882	
416.55	12403	
416.75	12995	
416.95	12602	
417.15	14061	
417.36	14380	
417.56	13478	
417.76	12633	
417.97	14332	
418.17	14212	
418.37	12076	
418.57	12310	
418.78	13984	
418.98	13433	
419.18	13159	
419.38	12955	
419.59	13614	
419.79	13003	
419.99	12047	
420.2	12295	
420.4	13988	
420.6	13891	
420.8	11971	
421.01	11873	
421.21	14057	
421.41	14038	
421.61	12228	
421.82	12087	
422.02	13553	
422.22	14200	
422.42	12973	
422.63	12044	
422.83	13474	
423.03	14702	
423.23	12187	
423.44	11402	
423.64	13489	
423.84	12932	
424.04	11617	
424.25	11336	
424.45	13929	
424.65	13852	
424.85	11062	
425.06	11701	
425.26	14115	
425.46	12603	
425.66	12020	
425.87	11657	
426.07	13725	
426.27	13439	
426.47	11741	
426.67	11043	
426.88	13837	
427.08	13376	
427.28	12151	
427.48	10910	
427.69	12192	
427.89	12884	
428.09	11931	
428.29	11017	
428.5	13461	
428.7	13070	
428.9	10965	
429.1	11432	
429.3	13084	
429.51	13553	
429.71	11087	
429.91	12206	
430.11	13639	
430.31	13931	
430.52	11839	
430.72	12300	
430.92	14263	
431.12	13745	
431.32	11682	
431.53	11833	
431.73	12654	
431.93	14231	
432.13	11371	
432.33	11381	
432.54	13087	
432.74	13584	
432.94	11645	
433.14	12546	
433.34	13601	
433.55	13567	
433.75	12470	
433.95	14453	
434.15	13762	
434.35	13580	
434.56	11688	
434.76	11745	
434.96	13910	
435.16	14431	
435.36	11863	
435.56	13066	
435.77	13880	
435.97	14024	
436.17	14208	
436.37	13237	
436.57	13788	
436.78	14057	
436.98	14730	
437.18	13755	
437.38	14982	
437.58	14029	
437.78	13786	
437.99	12512	
438.19	14246	
438.39	15087	
438.59	12349	
438.79	11701	
438.99	14673	
439.2	13753	
439.4	11535	
439.6	11797	
439.8	14202	
440	15397	
440.2	13141	
440.4	13319	
440.61	14888	
440.81	15552	
441.01	12792	
441.21	14000	
441.41	16027	
441.61	15203	
441.81	14504	
442.02	15324	
442.22	16308	
442.42	15546	
442.62	13274	
442.82	13112	
443.02	16036	
443.22	15210	
443.43	13805	
443.63	13377	
443.83	14892	
444.03	14980	
444.23	14938	
444.43	14308	
444.63	15692	
444.83	16569	
445.04	13917	
445.24	15012	
445.44	15548	
445.64	15776	
445.84	13824	
446.04	14233	
446.24	14767	
446.44	15806	
446.65	12976	
446.85	13695	
447.05	14343	
447.25	15534	
447.45	13383	
447.65	12923	
447.85	14990	
448.05	14219	
448.25	14033	
448.46	13827	
448.66	14941	
448.86	14527	
449.06	12735	
449.26	13925	
449.46	15555	
449.66	14320	
449.86	13667	
450.06	13540	
450.26	14589	
450.47	15332	
450.67	13563	
450.87	14193	
451.07	15410	
451.27	15309	
451.47	12962	
451.67	14021	
451.87	15083	
452.07	15825	
452.27	13669	
452.47	13396	
452.67	15183	
452.88	15786	
453.08	12588	
453.28	14816	
453.48	16634	
453.68	14874	
453.88	13635	
454.08	13631	
454.28	15769	
454.48	15322	
454.68	14292	
454.88	14678	
455.08	15747	
455.28	16100	
455.48	13295	
455.68	14446	
455.89	16664	
456.09	16478	
456.29	14219	
456.49	14504	
456.69	16812	
456.89	16019	
457.09	15013	
457.29	15498	
457.49	16645	
457.69	17081	
457.89	15376	
458.09	14548	
458.29	16664	
458.49	17495	
458.69	15885	
458.89	15488	
459.09	17963	
459.29	18009	
459.49	15286	
459.69	16319	
459.9	17309	
460.1	17329	
460.3	15085	
460.5	15091	
460.7	17403	
460.9	17055	
461.1	14788	
461.3	16333	
461.5	18330	
461.7	17999	
461.9	16010	
462.1	16072	
462.3	17762	
462.5	18435	
462.7	16108	
462.9	16368	
463.1	19593	
463.3	19626	
463.5	16584	
463.7	18118	
463.9	18607	
464.1	19075	
464.3	17471	
464.5	17354	
464.7	19329	
464.9	19693	
465.1	19093	
465.3	18095	
465.5	19742	
465.7	20199	
465.9	18566	
466.1	17834	
466.3	20295	
466.5	19427	
466.7	19607	
466.9	18157	
467.1	20102	
467.3	20862	
467.5	19770	
467.7	18542	
467.9	21118	
468.1	22157	
468.3	19071	
468.5	19860	
468.7	20330	
468.9	20041	
469.1	19011	
469.3	19933	
469.5	22365	
469.7	20081	
469.9	19133	
470.1	18999	
470.3	20591	
470.5	20479	
470.7	20033	
470.9	18736	
471.1	20512	
471.3	20087	
471.5	18813	
471.69	20428	
471.89	19757	
472.09	19420	
472.29	19377	
472.49	19113	
472.69	19778	
472.89	20268	
473.09	18401	
473.29	18054	
473.49	19716	
473.69	19358	
473.89	19071	
474.09	18144	
474.29	20824	
474.49	20406	
474.69	19084	
474.89	18320	
475.09	19442	
475.29	19451	
475.49	17565	
475.69	17976	
475.88	20637	
476.08	19668	
476.28	17630	
476.48	17647	
476.68	19739	
476.88	19415	
477.08	17393	
477.28	17821	
477.48	18807	
477.68	19430	
477.88	17335	
478.08	17434	
478.28	20002	
478.48	19041	
478.67	17662	
478.87	16847	
479.07	20134	
479.27	19050	
479.47	17730	
479.67	17859	
479.87	19639	
480.07	20007	
480.27	17082	
480.47	18559	
480.67	19037	
480.87	19944	
481.06	17193	
481.26	18097	
481.46	19229	
481.66	19108	
481.86	17619	
482.06	18758	
482.26	18757	
482.46	19526	
482.66	17675	
482.86	17432	
483.05	19237	
483.25	18481	
483.45	19843	
483.65	17703	
483.85	18768	
484.05	19112	
484.25	18006	
484.45	18887	
484.65	20050	
484.84	20277	
485.04	17674	
485.24	17869	
485.44	20565	
485.64	18883	
485.84	17605	
486.04	18791	
486.24	19341	
486.44	19837	
486.63	17450	
486.83	18544	
487.03	19692	
487.23	20084	
487.43	17566	
487.63	20357	
487.83	20205	
488.02	21078	
488.22	19258	
488.42	19904	
488.62	20990	
488.82	20101	
489.02	18642	
489.22	19086	
489.41	20639	
489.61	20833	
489.81	18400	
490.01	18489	
490.21	20922	
490.41	21721	
490.61	18471	
490.8	18652	
491	20532	
491.2	19674	
491.4	18969	
491.6	18168	
491.8	20027	
491.99	19927	
492.19	17827	
492.39	18045	
492.59	20626	
492.79	20704	
492.99	19207	
493.18	18393	
493.38	20926	
493.58	22115	
493.78	19481	
493.98	18989	
494.18	21177	
494.37	20954	
494.57	20425	
494.77	20173	
494.97	22041	
495.17	22377	
495.37	20258	
495.56	20619	
495.76	22867	
495.96	22612	
496.16	21722	
496.36	20729	
496.55	23031	
496.75	22657	
496.95	21269	
497.15	21018	
497.35	22868	
497.54	23066	
497.74	20818	
497.94	22541	
498.14	23788	
498.34	23493	
498.53	20827	
498.73	21458	
498.93	22683	
499.13	23302	
499.33	21723	
499.52	21693	
499.72	23713	
499.92	23420	
500.12	21304	
500.32	21682	
500.51	23675	
500.71	23722	
500.91	22395	
501.11	22097	
501.31	23638	
501.5	23868	
501.7	22802	
501.9	21699	
502.1	23163	
502.29	23558	
502.49	22266	
502.69	22358	
502.89	23393	
503.09	23590	
503.28	20680	
503.48	20888	
503.68	22278	
503.88	22419	
504.07	21621	
504.27	20942	
504.47	22650	
504.67	22501	
504.86	21423	
505.06	20798	
505.26	22038	
505.46	23683	
505.65	20686	
505.85	20673	
506.05	21614	
506.25	21913	
506.44	19549	
506.64	20176	
506.84	21091	
507.04	21769	
507.23	19428	
507.43	19838	
507.63	22747	
507.83	20993	
508.02	19719	
508.22	19227	
508.42	22932	
508.62	20609	
508.81	19218	
509.01	20138	
509.21	20219	
509.4	20552	
509.6	19382	
509.8	18971	
510	20435	
510.19	22053	
510.39	18936	
510.59	19145	
510.79	20546	
510.98	21868	
511.18	19383	
511.38	19439	
511.57	21238	
511.77	21203	
511.97	19794	
512.17	18817	
512.36	21366	
512.56	21121	
512.76	18905	
512.95	18577	
513.15	21297	
513.35	19944	
513.55	19902	
513.74	18895	
513.94	21233	
514.14	20685	
514.33	19998	
514.53	19719	
514.73	20667	
514.92	20968	
515.12	19368	
515.32	19266	
515.51	21067	
515.71	21771	
515.91	20990	
516.11	19415	
516.3	22993	
516.5	20792	
516.7	19964	
516.89	20594	
517.09	21054	
517.29	21035	
517.48	20164	
517.68	19441	
517.88	20779	
518.07	21448	
518.27	20263	
518.47	19149	
518.66	21822	
518.86	20519	
519.06	18923	
519.25	19316	
519.45	20809	
519.65	22461	
519.84	20063	
520.04	20881	
520.24	22685	
520.43	21264	
520.63	19598	
520.83	19426	
521.02	20573	
521.22	20914	
521.42	19564	
521.61	20232	
521.81	20576	
522.01	20622	
522.2	19554	
522.4	19133	
522.6	21188	
522.79	20146	
522.99	19533	
523.18	19237	
523.38	21147	
523.58	21489	
523.77	21351	
523.97	19473	
524.17	23598	
524.36	22857	
524.56	21040	
524.76	20903	
524.95	22113	
525.15	21812	
525.34	20689	
525.54	21013	
525.74	22795	
525.93	21921	
526.13	22285	
526.33	21163	
526.52	23388	
526.72	23059	
526.91	22488	
527.11	21846	
527.31	23544	
527.5	24080	
527.7	21979	
527.89	21104	
528.09	22734	
528.29	23468	
528.48	22121	
528.68	21829	
528.87	23515	
529.07	23264	
529.27	21842	
529.46	21376	
529.66	23367	
529.85	23782	
530.05	21145	
530.25	21861	
530.44	24845	
530.64	23118	
530.83	21545	
531.03	22007	
531.23	23702	
531.42	23513	
531.62	22547	
531.81	21758	
532.01	23941	
532.21	24483	
532.4	22022	
532.6	22739	
532.79	25202	
532.99	24621	
533.18	22856	
533.38	23699	
533.58	24309	
533.77	24996	
533.97	23157	
534.16	23795	
534.36	25303	
534.55	24526	
534.75	23971	
534.95	23181	
535.14	25393	
535.34	24649	
535.53	22702	
535.73	24626	
535.92	25988	
536.12	24432	
536.31	22708	
536.51	23915	
536.71	24574	
536.9	24206	
537.1	22623	
537.29	22980	
537.49	24825	
537.68	24137	
537.88	23310	
538.07	22262	
538.27	24561	
538.46	25374	
538.66	22389	
538.86	23008	
539.05	24493	
539.25	24760	
539.44	23361	
539.64	22735	
539.83	24244	
540.03	25089	
540.22	22653	
540.42	22384	
540.61	24099	
540.81	24266	
541	22577	
541.2	23442	
541.39	23422	
541.59	23963	
541.78	23089	
541.98	21943	
542.18	23002	
542.37	22959	
542.57	22106	
542.76	22911	
542.96	22830	
543.15	23414	
543.35	21766	
543.54	20979	
543.74	23212	
543.93	22829	
544.13	21242	
544.32	22315	
544.52	22814	
544.71	22066	
544.91	20125	
545.1	21325	
545.3	22106	
545.49	22653	
545.69	19964	
545.88	20575	
546.08	23633	
546.27	23029	
546.47	21072	
546.66	20211	
546.86	22539	
547.05	23205	
547.24	20482	
547.44	20444	
547.63	21520	
547.83	22831	
548.02	20678	
548.22	20714	
548.41	21257	
548.61	22503	
548.8	20003	
549	19872	
549.19	21617	
549.39	22250	
549.58	19479	
549.78	20198	
549.97	22083	
550.17	21457	
550.36	20692	
550.55	21666	
550.75	21419	
550.94	22205	
551.14	19531	
551.33	19679	
551.53	20682	
551.72	21738	
551.92	19888	
552.11	19693	
552.31	21796	
552.5	21522	
552.69	21265	
552.89	19142	
553.08	21437	
553.28	20902	
553.47	19518	
553.67	20520	
553.86	21881	
554.06	20247	
554.25	18556	
554.44	19286	
554.64	22387	
554.83	22100	
555.03	19095	
555.22	19306	
555.42	21386	
555.61	21071	
555.8	19073	
556	19344	
556.19	20259	
556.39	21205	
556.58	18972	
556.78	19043	
556.97	20790	
557.16	20426	
557.36	20404	
557.55	18785	
557.75	19662	
557.94	21603	
558.13	18724	
558.33	18395	
558.52	21147	
558.72	20127	
558.91	18325	
559.1	18613	
559.3	19670	
559.49	19415	
559.69	18039	
559.88	18934	
560.07	20256	
560.27	20702	
560.46	18886	
560.66	19019	
560.85	19990	
561.04	19268	
561.24	18191	
561.43	18117	
561.63	19411	
561.82	19521	
562.01	19318	
562.21	18649	
562.4	19854	
562.59	20968	
562.79	18165	
562.98	18163	
563.18	19870	
563.37	21466	
563.56	18738	
563.76	18131	
563.95	19451	
564.14	19532	
564.34	18527	
564.53	18105	
564.73	20132	
564.92	20553	
565.11	18568	
565.31	17975	
565.5	20633	
565.69	19583	
565.89	18254	
566.08	18544	
566.27	20531	
566.47	20986	
566.66	19128	
566.85	17890	
567.05	20043	
567.24	19500	
567.44	18031	
567.63	19420	
567.82	20151	
568.02	19954	
568.21	18020	
568.4	18392	
568.6	19925	
568.79	19866	
568.98	17712	
569.18	18084	
569.37	19864	
569.56	21738	
569.76	18348	
569.95	19138	
570.14	20020	
570.34	19914	
570.53	17645	
570.72	17444	
570.91	20252	
571.11	19256	
571.3	17843	
571.49	18623	
571.69	19366	
571.88	18801	
572.07	18271	
572.27	18116	
572.46	18951	
572.65	19818	
572.85	17546	
573.04	17980	
573.23	20102	
573.43	19413	
573.62	17466	
573.81	18075	
574	19594	
574.2	19342	
574.39	17888	
574.58	18026	
574.78	20471	
574.97	19781	
575.16	18542	
575.36	18644	
575.55	20127	
575.74	20232	
575.93	17440	
576.13	18908	
576.32	19476	
576.51	20296	
576.71	17899	
576.9	19409	
577.09	20413	
577.28	19985	
577.48	18391	
577.67	17493	
577.86	19411	
578.05	19992	
578.25	18181	
578.44	18329	
578.63	19621	
578.83	20822	
579.02	17547	
579.21	19188	
579.4	20039	
579.6	19738	
579.79	18414	
579.98	20441	
580.17	20290	
580.37	20553	
580.56	17892	
580.75	18830	
580.94	20882	
581.14	20786	
581.33	19234	
581.52	18293	
581.71	20347	
581.91	20976	
582.1	18116	
582.29	18516	
582.48	20201	
582.68	20150	
582.87	19114	
583.06	18770	
583.25	20560	
583.45	19962	
583.64	19708	
583.83	20265	
584.02	20151	
584.21	20516	
584.41	19559	
584.6	18888	
584.79	20398	
584.98	21171	
585.18	18298	
585.37	18267	
585.56	19850	
585.75	20621	
585.94	18372	
586.14	19103	
586.33	20810	
586.52	20069	
586.71	18665	
586.91	18295	
587.1	19183	
587.29	20019	
587.48	17887	
587.67	17767	
587.87	19665	
588.06	19490	
588.25	18880	
588.44	18031	
588.63	18929	
588.83	19381	
589.02	16854	
589.21	16599	
589.4	17859	
589.59	17534	
589.78	15167	
589.98	15265	
590.17	16296	
590.36	16664	
590.55	13846	
590.74	14270	
590.94	17331	
591.13	15754	
591.32	13895	
591.51	13463	
591.7	16336	
591.89	15784	
592.09	13715	
592.28	14233	
592.47	15071	
592.66	17190	
592.85	13892	
593.05	14072	
593.24	15930	
593.43	16660	
593.62	14277	
593.81	14724	
594	15988	
594.19	16277	
594.39	14283	
594.58	14230	
594.77	16514	
594.96	16748	
595.15	14150	
595.34	14747	
595.54	16307	
595.73	15427	
595.92	13463	
596.11	14351	
596.3	16638	
596.49	15420	
596.68	14108	
596.88	14638	
597.07	16395	
597.26	15399	
597.45	13814	
597.64	15137	
597.83	15727	
598.02	16411	
598.22	14033	
598.41	14859	
598.6	16193	
598.79	15758	
598.98	14203	
599.17	15083	
599.36	16307	
599.55	17463	
599.74	16174	
599.94	16016	
600.13	16839	
600.32	15772	
600.51	14078	
600.7	14334	
600.89	17534	
601.08	17713	
601.27	14173	
601.47	15212	
601.66	16996	
601.85	17608	
602.04	14909	
602.23	15166	
602.42	16077	
602.61	16767	
602.8	14824	
602.99	14570	
603.18	16596	
603.37	16778	
603.57	15144	
603.76	15955	
603.95	17410	
604.14	17143	
604.33	14791	
604.52	15251	
604.71	16852	
604.9	16406	
605.09	15964	
605.28	15559	
605.47	17487	
605.66	17014	
605.86	15454	
606.05	14817	
606.24	17337	
606.43	15828	
606.62	15119	
606.81	15832	
607	17111	
607.19	16458	
607.38	14416	
607.57	14798	
607.76	16183	
607.95	15588	
608.14	14904	
608.33	15557	
608.52	16180	
608.72	17098	
608.91	14163	
609.1	14165	
609.29	16158	
609.48	15556	
609.67	14881	
609.86	14029	
610.05	15689	
610.24	15947	
610.43	13869	
610.62	13530	
610.81	16946	
611	16774	
611.19	14063	
611.38	14607	
611.57	16107	
611.76	17395	
611.95	13788	
612.14	13472	
612.33	15801	
612.52	15438	
612.71	14253	
612.9	13421	
613.09	15072	
613.28	17380	
613.47	13979	
613.66	14792	
613.85	15897	
614.04	15416	
614.24	13907	
614.43	13090	
614.62	15944	
614.81	15930	
615	14300	
615.19	14649	
615.38	15279	
615.57	15752	
615.76	14371	
615.95	15195	
616.14	16055	
616.33	15622	
616.52	14684	
616.71	14768	
616.9	15954	
617.09	15879	
617.28	13956	
617.47	15182	
617.66	15126	
617.85	15275	
618.04	14945	
618.22	14268	
618.41	15622	
618.6	16614	
618.79	14420	
618.98	14248	
619.17	16764	
619.36	15258	
619.55	14356	
619.74	14376	
619.93	16226	
620.12	15762	
620.31	14902	
620.5	15143	
620.69	16856	
620.88	17133	
621.07	15946	
621.26	14903	
621.45	16550	
621.64	16597	
621.83	15107	
622.02	14246	
622.21	16432	
622.4	16371	
622.59	15642	
622.78	15295	
622.97	15955	
623.16	16903	
623.35	14823	
623.54	14059	
623.72	16067	
623.91	16251	
624.1	15222	
624.29	13835	
624.48	17197	
624.67	16431	
624.86	15108	
625.05	14171	
625.24	17316	
625.43	15872	
625.62	16565	
625.81	14387	
626	16579	
626.19	16118	
626.38	14986	
626.56	14289	
626.75	15720	
626.94	16458	
627.13	14692	
627.32	13517	
627.51	16083	
627.7	17189	
627.89	13344	
628.08	14402	
628.27	15072	
628.46	15233	
628.65	13498	
628.83	13250	
629.02	15666	
629.21	15051	
629.4	14048	
629.59	14205	
629.78	15150	
629.97	15920	
630.16	14239	
630.35	13835	
630.54	16490	
630.72	16146	
630.91	13767	
631.1	14296	
631.29	15768	
631.48	15842	
631.67	14456	
631.86	13752	
632.05	15310	
632.24	15340	
632.42	13334	
632.61	14134	
632.8	15266	
632.99	15083	
633.18	14392	
633.37	14494	
633.56	15679	
633.75	15618	
633.93	14155	
634.12	13946	
634.31	16480	
634.5	16160	
634.69	13954	
634.88	14326	
635.07	15475	
635.25	16092	
635.44	14740	
635.63	14995	
635.82	15197	
636.01	14851	
636.2	14592	
636.39	14332	
636.57	16274	
636.76	15903	
636.95	13505	
637.14	14993	
637.33	15763	
637.52	16496	
637.7	13423	
637.89	14347	
638.08	15272	
638.27	16669	
638.46	14378	
638.65	14704	
638.83	16507	
639.02	15108	
639.21	14076	
639.4	14672	
639.59	15421	
639.78	15098	
639.96	13338	
640.15	13353	
640.34	15098	
640.53	15355	
640.72	12976	
640.91	13190	
641.09	14541	
641.28	15798	
641.47	13225	
641.66	14124	
641.85	15106	
642.03	15274	
642.22	13694	
642.41	13143	
642.6	14476	
642.79	13774	
642.97	12843	
643.16	13720	
643.35	14343	
643.54	14012	
643.73	12636	
643.91	13429	
644.1	13590	
644.29	14474	
644.48	12474	
644.67	12446	
644.85	13658	
645.04	13779	
645.23	11710	
645.42	12107	
645.6	13246	
645.79	14115	
645.98	11678	
646.17	10562	
646.36	12364	
646.54	12989	
646.73	11916	
646.92	10781	
647.11	12330	
647.29	13263	
647.48	10766	
647.67	10436	
647.86	13433	
648.05	13587	
648.23	10863	
648.42	12246	
648.61	12923	
648.8	12674	
648.98	10702	
649.17	10983	
649.36	12408	
649.55	12076	
649.73	10900	
649.92	11701	
650.11	12402	
650.3	12704	
650.48	10982	
650.67	10731	
650.86	12891	
651.05	11703	
651.23	10812	
651.42	10694	
651.61	12200	
651.79	12249	
651.98	11084	
652.17	10685	
652.36	12613	
652.54	11782	
652.73	10682	
652.92	10417	
653.11	12637	
653.29	12722	
653.48	9927.9	
653.67	10897	
653.85	12314	
654.04	13328	
654.23	10905	
654.42	10443	
654.6	11557	
654.79	12177	
654.98	9796.1	
655.16	10188	
655.35	10883	
655.54	10968	
655.73	9653.4	
655.91	9435	
656.1	11901	
656.29	10893	
656.47	9196.1	
656.66	10922	
656.85	11246	
657.03	11424	
657.22	9911.5	
657.41	10135	
657.59	11494	
657.78	11491	
657.97	9911.5	
658.16	10634	
658.34	12336	
658.53	12719	
658.72	11381	
658.9	11903	
659.09	11865	
659.28	11841	
659.46	10413	
659.65	10377	
659.84	11681	
660.02	12179	
660.21	10329	
660.4	10322	
660.58	12590	
660.77	12028	
660.96	10849	
661.14	9944.9	
661.33	13142	
661.52	13044	
661.7	9775.6	
661.89	13453	
662.08	11539	
662.26	11270	
662.45	10079	
662.64	10221	
662.82	12254	
663.01	11542	
663.2	10196	
663.38	10860	
663.57	12082	
663.75	12043	
663.94	10414	
664.13	11535	
664.31	11480	
664.5	12151	
664.69	10508	
664.87	11174	
665.06	11301	
665.25	12054	
665.43	11366	
665.62	11442	
665.8	12276	
665.99	11540	
666.18	10347	
666.36	10488	
666.55	12099	
666.74	12174	
666.92	9890.3	
667.11	11479	
667.29	11525	
667.48	12050	
667.67	11147	
667.85	10176	
668.04	11551	
668.22	11598	
668.41	10227	
668.6	10434	
668.78	11265	
668.97	11473	
669.15	10542	
669.34	9617.9	
669.53	11372	
669.71	11558	
669.9	9774.3	
670.08	10374	
670.27	11118	
670.46	11789	
670.64	10532	
670.83	10835	
671.01	11020	
671.2	11558	
671.38	9806.4	
671.57	9667.8	
671.76	12224	
671.94	12835	
672.13	9621.4	
672.31	10694	
672.5	11882	
672.69	11261	
672.87	9762	
673.06	9998.2	
673.24	11695	
673.43	11130	
673.61	10387	
673.8	9893.1	
673.98	11772	
674.17	11865	
674.36	10603	
674.54	10404	
674.73	11490	
674.91	11740	
675.1	10105	
675.28	9673.2	
675.47	11280	
675.65	11889	
675.84	9895.8	
676.03	10299	
676.21	11011	
676.4	10549	
676.58	10703	
676.77	10512	
676.95	12413	
677.14	10953	
677.32	9529.2	
677.51	9387.2	
677.69	11689	
677.88	10652	
678.06	9428.8	
678.25	9604.3	
678.44	11253	
678.62	10928	
678.81	9166	
678.99	10156	
679.18	11927	
679.36	11441	
679.55	9747.6	
679.73	10452	
679.92	11424	
680.1	10871	
680.29	10957	
680.47	9779.7	
680.66	10895	
680.84	11625	
681.03	9087.5	
681.21	10004	
681.4	10909	
681.58	10752	
681.77	9486.9	
681.95	9325.1	
682.14	11524	
682.32	11977	
682.51	10309	
682.69	9161.9	
682.88	10536	
683.06	11228	
683.25	9797.5	
683.43	10331	
683.62	10840	
683.8	11077	
683.99	10288	
684.17	9581.1	
684.36	11849	
684.54	10542	
684.73	8650.6	
684.91	8663.6	
685.1	10393	
685.28	9742.9	
685.46	8789.9	
685.65	8701.1	
685.83	10115	
686.02	9515.5	
686.2	8008.2	
686.39	8177.5	
686.57	9171.5	
686.76	10877	
686.94	8106.5	
687.13	8246.5	
687.31	10140	
687.5	9701.9	
687.68	7840.3	
687.86	9060.9	
688.05	11499	
688.23	9245.9	
688.42	9139.4	
688.6	8355	
688.79	9811.8	
688.97	9794.8	
689.16	8787.8	
689.34	7824.6	
689.52	10496	
689.71	10608	
689.89	9028.8	
690.08	8426.7	
690.26	9957.2	
690.45	9732.6	
690.63	9017.2	
690.81	8445.1	
691	9550.4	
691.18	9512.1	
691.37	8426	
691.55	10499	
691.74	9301.9	
691.92	11249	
692.1	8300.4	
692.29	7756.3	
692.47	9444.5	
692.66	8850	
692.84	7929.7	
693.02	8462.9	
693.21	9039.1	
693.39	9476.6	
693.58	8795.3	
693.76	8188.5	
693.94	10749	
694.13	10614	
694.31	8262.9	
694.5	9422.7	
694.68	9609.8	
694.86	10118	
695.05	8910.7	
695.23	9000.8	
695.42	10654	
695.6	12758	
695.78	9651.4	
695.97	8681.3	
696.15	10626	
696.34	9907.4	
696.52	8385.7	
696.7	9096.4	
696.89	10287	
697.07	9667.1	
697.25	8888.2	
697.44	10249	
697.62	10011	
697.81	10338	
697.99	8474.5	
698.17	8936.7	
698.36	9238.4	
698.54	9894.4	
698.72	8776.9	
698.91	7696.9	
699.09	9389.9	
699.28	9324.4	
699.46	8291.5	
699.64	8264.2	
699.83	9235	
700.01	10441	
700.19	8981.7	
700.38	7503.8	
700.56	10465	
700.74	9480	
700.93	8005.5	
701.11	8954.4	
701.29	10054	
701.48	11198	
701.66	8434.2	
701.84	8504.5	
702.03	9849.4	
702.21	10468	
702.39	7985	
702.58	8677.9	
702.76	10178	
702.94	10289	
703.13	7984.3	
703.31	10193	
703.49	9478.7	
703.68	10464	
703.86	8062.2	
704.04	9090.9	
704.23	9919.7	
704.41	10298	
704.59	8335.2	
704.78	9488.2	
704.96	11017	
705.14	10405	
705.33	8112.7	
705.51	8911.4	
705.69	9832.3	
705.87	10689	
706.06	9202.9	
706.24	8144.8	
706.42	10170	
706.61	10451	
706.79	9255.5	
706.97	8172.1	
707.16	9639.1	
707.34	10174	
707.52	9086.2	
707.7	8304.5	
707.89	9695.8	
708.07	9473.9	
708.25	9158.5	
708.44	9358.5	
708.62	9638.4	
708.8	10716	
708.98	9435.7	
709.17	8509.3	
709.35	10111	
709.53	10110	
709.72	8169.3	
709.9	8610.3	
710.08	10299	
710.26	10327	
710.45	9753.1	
710.63	8361.2	
710.81	9882.1	
710.99	9944.3	
711.18	8892.3	
711.36	8341.4	
711.54	9654.8	
711.72	10236	
711.91	8457.4	
712.09	7795.3	
712.27	9644.6	
712.45	10174	
712.64	8437.6	
712.82	7397.3	
713	8906.6	
713.18	8936.7	
713.37	7344.7	
713.55	8432.9	
713.73	9493.7	
713.91	8093.6	
714.1	7314	
714.28	6683.9	
714.46	8730.5	
714.64	7792.5	
714.83	5790.3	
715.01	6409.5	
715.19	7524.9	
715.37	6886	
715.55	5913.2	
715.74	6148.7	
715.92	8271.1	
716.1	6415.6	
716.28	7271	
716.47	6298.2	
716.65	7045	
716.83	7170.6	
717.01	6135.7	
717.19	6213.5	
717.38	9062.3	
717.56	6787	
717.74	6376.7	
717.92	5577.3	
718.1	8015.7	
718.29	7350.2	
718.47	5376.6	
718.65	6118	
718.83	8139.3	
719.01	8233.5	
719.2	5602.6	
719.38	6733	
719.56	8064.9	
719.74	9701.9	
719.92	6368.5	
720.11	7320.8	
720.29	8078.6	
720.47	7134.4	
720.65	5755.5	
720.83	6427.9	
721.02	7276.4	
721.2	6984.9	
721.38	6344.6	
721.56	5610.1	
721.74	6462	
721.92	6605.4	
722.11	6710.5	
722.29	6461.3	
722.47	7803.4	
722.65	6926.2	
722.83	5512.4	
723.01	6372.6	
723.2	7055.3	
723.38	7336.5	
723.56	4981.3	
723.74	6074.3	
723.92	6584.9	
724.1	7686	
724.29	5487.9	
724.47	6640.9	
724.65	6682.5	
724.83	6602.7	
725.01	5307.7	
725.19	6218.3	
725.37	6609.5	
725.56	6749.4	
725.74	5175.9	
725.92	5457.8	
726.1	6597.9	
726.28	6918.7	
726.46	5823.7	
726.64	5693.4	
726.83	6844.3	
727.01	7095.5	
727.19	5167	
727.37	5966.4	
727.55	6947.4	
727.73	7465.5	
727.91	5188.9	
728.09	4947.9	
728.28	7517.4	
728.46	8050.6	
728.64	6184.2	
728.82	6069.5	
729	8570.7	
729.18	7957	
729.36	5457.2	
729.54	7814.4	
729.72	9103.9	
729.91	7474.4	
730.09	7524.2	
730.27	6346	
730.45	7334.5	
730.63	7961.8	
730.81	6977.4	
730.99	6100.9	
731.17	8616.5	
731.35	7224.6	
731.53	6613.6	
731.71	6181.5	
731.9	8272.4	
732.08	8454.7	
732.26	6373.3	
732.44	6072.2	
732.62	8447.9	
732.8	7937.9	
732.98	6752.8	
733.16	5794.4	
733.34	7952.9	
733.52	6648.4	
733.7	6206.7	
733.88	6519.4	
734.07	7718.8	
734.25	7535.8	
734.43	5836.7	
734.61	7335.8	
734.79	9102.5	
734.97	7414.3	
735.15	6007.4	
735.33	6311.8	
735.51	7802.1	
735.69	7459.4	
735.87	7425.3	
736.05	6503	
736.23	7662.8	
736.41	7299	
736.59	6358.9	
736.77	6457.9	
736.95	8144.1	
737.13	7494.9	
737.32	6027.9	
737.5	6172.6	
737.68	8606.2	
737.86	7408.9	
738.04	5845.6	
738.22	7626.6	
738.4	7223.9	
738.58	7538.6	
738.76	6438.8	
738.94	5440.8	
739.12	7347.4	
739.3	7303.7	
739.48	7082.6	
739.66	6790.4	
739.84	7685.3	
740.02	7705.8	
740.2	5478.3	
740.38	5834.7	
740.56	8039	
740.74	6808.1	
740.92	6503.7	
741.1	6341.9	
741.28	7344	
741.46	7249.1	
741.64	5999.2	
741.82	6516	
742	7357.7	
742.18	7388.4	
742.36	6234.7	
742.54	5788.2	
742.72	7913.4	
742.9	6674.3	
743.08	6606.1	
743.26	5453.7	
743.44	8054.7	
743.62	7902.4	
743.8	6668.2	
743.98	5746.6	
744.16	7610.3	
744.34	7362.4	
744.52	6475	
744.7	6448.4	
744.88	7650.5	
745.06	7190.4	
745.24	6545.3	
745.42	6587.6	
745.6	7753.6	
745.78	7494.9	
745.96	5408	
746.14	5694	
746.32	8472.4	
746.5	7735.2	
746.68	6135.7	
746.86	5678.3	
747.03	8047.2	
747.21	6488	
747.39	6148.7	
747.57	5674.2	
747.75	7243.7	
747.93	7705.1	
748.11	5544.5	
748.29	5454.4	
748.47	8785.8	
748.65	7071.6	
748.83	6272.2	
749.01	5956.2	
749.19	7458	
749.37	6577.4	
749.55	5850.4	
749.73	5945.3	
749.91	7129.7	
750.09	6877.8	
750.26	6001.9	
750.44	5426.4	
750.62	7092.1	
750.8	7110.5	
750.98	5210	
751.16	5501.5	
751.34	7150.1	
751.52	6517.3	
751.7	6310.5	
751.88	5167.7	
752.06	7566.6	
752.24	7386.3	
752.42	5093.3	
752.59	5450.3	
752.77	7008.1	
752.95	8239	
753.13	6165.1	
753.31	5571.8	
753.49	6728.3	
753.67	7089.4	
753.85	5792.3	
754.03	5449.6	
754.21	7344	
754.38	7604.8	
754.56	5440.8	
754.74	4571.1	
754.92	6486.6	
755.1	7090.1	
755.28	4420.2	
755.46	4402.5	
755.64	7610.9	
755.82	7715.4	
755.99	4468.7	
756.17	4519.2	
756.35	5096	
756.53	6534.4	
756.71	3342.3	
756.89	4276.8	
757.07	6118	
757.25	5288.5	
757.42	4780.6	
757.6	5687.2	
757.78	6300.9	
757.96	5258.5	
758.14	4524	
758.32	4048.8	
758.5	4843.4	
758.67	5709.7	
758.85	4328	
759.03	4442.7	
759.21	5786.2	
759.39	5288.5	
759.57	3962.8	
759.75	5046.9	
759.92	6476.4	
760.1	5809.4	
760.28	5433.9	
760.46	5726.8	
760.64	5642.2	
760.82	5378	
760.99	5381.4	
761.17	4586.1	
761.35	6446.3	
761.53	5514.5	
761.71	4683	
761.89	5347.2	
762.06	6381.5	
762.24	5855.8	
762.42	4834.6	
762.6	4667.3	
762.78	5967.1	
762.96	6656.6	
763.13	5287.9	
763.31	5003.2	
763.49	6873.7	
763.67	5995.1	
763.85	5780.1	
764.02	6310.5	
764.2	7094.8	
764.38	6251.1	
764.56	4909.7	
764.74	5691.3	
764.91	7217.7	
765.09	6104.3	
765.27	4542.4	
765.45	4354.7	
765.63	7191.1	
765.8	7050.5	
765.98	4035.2	
766.16	4486.4	
766.34	5665.4	
766.52	5403.2	
766.69	5283.8	
766.87	4287.8	
767.05	6079.7	
767.23	6790.4	
767.41	4586.8	
767.58	4801.8	
767.76	6611.5	
767.94	6738.5	
768.12	4607.9	
768.29	5268.7	
768.47	6085.2	
768.65	6825.2	
768.83	4235.2	
769	5393	
769.18	5630.5	
769.36	6379.4	
769.54	5369.8	
769.72	4266.6	
769.89	6550.8	
770.07	6634.1	
770.25	4520.5	
770.43	5816.2	
770.6	7298.3	
770.78	7740.6	
770.96	4748.6	
771.14	5343.8	
771.31	6515.3	
771.49	5876.3	
771.67	3876.8	
771.85	4128	
772.02	5100.1	
772.2	5823.7	
772.38	4860.5	
772.55	4356.7	
772.73	6049.7	
772.91	5822.4	
773.09	4745.8	
773.26	4829.1	
773.44	6034	
773.62	5621	
773.8	4217.5	
773.97	3941.7	
774.15	6053.8	
774.33	5674.9	
774.5	4113.7	
774.68	4509.6	
774.86	6277.7	
775.04	5706.3	
775.21	4149.9	
775.39	4177.9	
775.57	5941.2	
775.74	6388.3	
775.92	4012.7	
776.1	3915	
776.27	5914.5	
776.45	7184.3	
776.63	4143.7	
776.81	3708.9	
776.98	5607.3	
777.16	6622.4	
777.34	4240	
777.51	4587.4	
777.69	5557.5	
777.87	5388.2	
778.04	4274.1	
778.22	4926	
778.4	5384.1	
778.57	6003.3	
778.75	3580.5	
778.93	3854.3	
779.1	5169.8	
779.28	4954.7	
779.46	3613.3	
779.64	4058.4	
779.81	6158.9	
779.99	6939.2	
780.17	4840	
780.34	4948.6	
780.52	5614.2	
780.69	5752.7	
780.87	4342.4	
781.05	3973.7	
781.22	5647.6	
781.4	5642.2	
781.58	4100.7	
781.75	3255.6	
781.93	5690.6	
782.11	5050.3	
782.28	4943.1	
782.46	4054.3	
782.64	4929.5	
782.81	5742.5	
782.99	4096.6	
783.17	4050.9	
783.34	5762.3	
783.52	4936.3	
783.69	4279.6	
783.87	5130.8	
784.05	5036	
784.22	5036.6	
784.4	5030.5	
784.58	4417.5	
784.75	5956.9	
784.93	5078.3	
785.1	4035.9	
785.28	4683.7	
785.46	5748	
785.63	5041.4	
785.81	4027.7	
785.99	3902.7	
786.16	5230.5	
786.34	5573.2	
786.51	3878.9	
786.69	4256.4	
786.87	4827.7	
787.04	5324	
787.22	3717.7	
787.39	4670.7	
787.57	5048.9	
787.75	6052.4	
787.92	4821.6	
788.1	4796.3	
788.27	5035.3	
788.45	4796.3	
788.63	4477.5	
788.8	3267.9	
788.98	5419.6	
789.15	4689.8	
789.33	3461.1	
789.5	4085.7	
789.68	5885.9	
789.86	6016.9	
790.03	4438.6	
790.21	3882.9	
790.38	5920	
790.56	5089.9	
790.73	3739.6	
790.91	3818.1	
791.09	4975.2	
791.26	5771.2	
791.44	4003.1	
791.61	3388	
791.79	5048.9	
791.96	5050.3	
792.14	3525.2	
792.32	3163.4	
792.49	5035.3	
792.67	5130.8	
792.84	3642	
793.02	3426.3	
793.19	5623.7	
793.37	6129.6	
793.54	3215.3	
793.72	3482.9	
793.89	6233.3	
794.07	5005.2	
794.25	4086.4	
794.42	3264.5	
794.6	6057.9	
794.77	5623	
794.95	4353.3	
795.12	3807.2	
795.3	5013.4	
795.47	5584.1	
795.65	4164.2	
795.82	3988.8	
796	4812	
796.17	6694.8	
796.35	3877.5	
796.52	4602.5	
796.7	5513.1	
796.87	5575.3	
797.05	4791.6	
797.22	4713.1	
797.4	5550	
797.57	6534.4	
797.75	4009.2	
797.92	3766.9	
798.1	5872.2	
798.27	4972.5	
798.45	3218	
798.62	3515.7	
798.8	5307.7	
798.97	5769.8	
799.15	4243.4	
799.32	4050.9	
799.5	4586.8	
799.67	5347.9	
799.85	4351.9	
800.02	3181.9	
800.2	4964.3	
800.37	5258.5	
800.55	4464.6	
800.72	3791.5	
800.9	5737	
801.07	6174.6	
801.25	4985.4	
801.42	4186.7	
801.6	5781.4	
801.77	5457.2	
801.95	3858.4	
802.12	3687	
802.29	5475.6	
802.47	5414.1	
802.64	4093.2	
802.82	3187.3	
802.99	4948.6	
803.17	5957.5	
803.34	4035.9	
803.52	3613.3	
803.69	6488.6	
803.87	4695.3	
804.04	3984	
804.21	4065.9	
804.39	6032	
804.56	5156.1	
804.74	3377.8	
804.91	4218.1	
805.09	4954.7	
805.26	5049.6	
805.44	3429	
805.61	3783.3	
805.78	5580	
805.96	5677	
806.13	4115.1	
806.31	4432.5	
806.48	4507.6	
806.66	5045.5	
806.83	4116.4	
807	4067.3	
807.18	4941.1	
807.35	5339.7	
807.53	3986.7	
807.7	3207.1	
807.87	6091.3	
808.05	4975.9	
808.22	4340.3	
808.4	3147	
808.57	4925.4	
808.74	4625.7	
808.92	3618.8	
809.09	4681.7	
809.27	4858.5	
809.44	5457.2	
809.61	3284.3	
809.79	3642	
809.96	6079.7	
810.14	5741.8	
810.31	3150.5	
810.48	3882.3	
810.66	5064.6	
810.83	5796.4	
811.01	3663.1	
811.18	4113.7	
811.35	5708.4	
811.53	4430.4	
811.7	4401.8	
811.87	4109.6	
812.05	5029.8	
812.22	4899.4	
812.39	3637.2	
812.57	3479.5	
812.74	4976.6	
812.92	6642.2	
813.09	3866.6	
813.26	4231.8	
813.44	6357.6	
813.61	4909.7	
813.78	3155.9	
813.96	4351.9	
814.13	4938.3	
814.3	4676.2	
814.48	4645.5	
814.65	3846.1	
814.82	6148	
815	4711	
815.17	3964.2	
815.34	4799.8	
815.52	4903.5	
815.69	4903.5	
815.87	3902.1	
816.04	3412.6	
816.21	4992.9	
816.38	4433.2	
816.56	3795.6	
816.73	3551.9	
816.9	6311.2	
817.08	5754.1	
817.25	3552.5	
817.42	4457.7	
817.6	4564.9	
817.77	5021.6	
817.94	3976.5	
818.12	3540.3	
818.29	4680.3	
818.46	7371.3	
818.64	3736.9	
818.81	3472.7	
818.98	4620.2	
819.16	6713.9	
819.33	4169.7	
819.5	3988.8	
819.67	5322.7	
819.85	5889.3	
820.02	3870.7	
820.19	4136.2	
820.37	5169.8	
820.54	4788.8	
820.71	4046.8	
820.88	4904.9	
821.06	5212.8	
821.23	4741.7	
821.4	4070	
821.58	3968.3	
821.75	5634.6	
821.92	5113.8	
822.09	3260.4	
822.27	3332	
822.44	4984.8	
822.61	4827.7	
822.79	3264.5	
822.96	6244.9	
823.13	5449.6	
823.3	4691.9	
823.48	3797.6	
823.65	3352.5	
823.82	5649.7	
823.99	4566.3	
824.17	4756.7	
824.34	3487.7	
824.51	6589.7	
824.68	5068	
824.86	3616	
825.03	4069.3	
825.2	4939	
825.37	6034	
825.55	3561.4	
825.72	3965.6	
825.89	6685.3	
826.06	6129.6	
826.24	3902.1	
826.41	3849.5	
826.58	6029.9	
826.75	5275.6	
826.92	3041.9	
827.1	3381.2	
827.27	8185	
827.44	6515.3	
827.61	3706.1	
827.79	4420.2	
827.96	4745.1	
828.13	5034.6	
828.3	3803.1	
828.47	3260.4	
828.65	5221	
828.82	5128.8	
828.99	4943.8	
829.16	4336.2	
829.34	5677	
829.51	5372.5	
829.68	3981.9	
829.85	4085.7	
830.02	5815.5	
830.2	5541.8	
830.37	3087	
830.54	4768.4	
830.71	6431.3	
830.88	4969.7	
831.05	3138.2	
831.23	3634.5	
831.4	6079.7	
831.57	6786.3	
831.74	3680.9	
831.91	3237.2	
832.09	5230.5	
832.26	5618.3	
832.43	3813.3	
832.6	4283.7	
832.77	5224.4	
832.94	5948	
833.12	2987.3	
833.29	3773.7	
833.46	4814.8	
833.63	7054.6	
833.8	4133.5	
833.97	3823.6	
834.15	5603.9	
834.32	5325.4	
834.49	3972.4	
834.66	4010.6	
834.83	5841.5	
835	4735.6	
835.17	3659	
835.35	3670.6	
835.52	5522.7	
835.69	5341.1	
835.86	3922.5	
836.03	3214.6	
836.2	5567.7	
836.37	5186.1	
836.55	3842.7	
836.72	3528.7	
836.89	5180	
837.06	5713.8	
837.23	3870	
837.4	4289.8	
837.57	6288.6	
837.75	6998.6	
837.92	3510.9	
838.09	3759.4	
838.26	5147.9	
838.43	5812.1	
838.6	4003.8	
838.77	3562.8	
838.94	6657.3	
839.11	6438.1	
839.29	3861.1	
839.46	2990	
839.63	5523.4	
839.8	5292	
839.97	3699.3	
840.14	3682.9	
840.31	5330.9	
840.48	5561.6	
840.65	3097.2	
840.82	3764.8	
841	5554.1	
841.17	5513.1	
841.34	3429.7	
841.51	3437.9	
841.68	5472.2	
841.85	5231.2	
842.02	3536.2	
842.19	2934.7	
842.36	5329.5	
842.53	5327.4	
842.7	3381.2	
842.87	4129.4	
843.05	6969.2	
843.22	5328.1	
843.39	3252.2	
843.56	3504.1	
843.73	5044.8	
843.9	5625.1	
844.07	5520.6	
844.24	4573.8	
844.41	8118.1	
844.58	4805.2	
844.75	3278.8	
844.92	3581.2	
845.09	5592.3	
845.26	5561.6	
845.43	3413.3	
845.6	3593.5	
845.77	5571.2	
845.94	5270.1	
846.12	3775.8	
846.29	3937.6	
846.46	5808.7	
846.63	5587.5	
846.8	3374.4	
846.97	3978.5	
847.14	5997.8	
847.31	5450.3	
847.48	3791.5	
847.65	4203.8	
847.82	5805.3	
847.99	5776.6	
848.16	4508.9	
848.33	4165.6	
848.5	5098.1	
848.67	6022.4	
848.84	3392.1	
849.01	3505.4	
849.18	5012.7	
849.35	4680.3	
849.52	4208.6	
849.69	3382.6	
849.86	5715.9	
850.03	5952.1	
850.2	3418.1	
850.37	4126.7	
850.54	5915.2	
850.71	5221	
850.88	4066.6	
851.05	3379.8	
851.22	5467.4	
851.39	6068.8	
851.56	3189.4	
851.73	3909.6	
851.9	4918.5	
852.07	5771.2	
852.24	3729.4	
852.41	3361.4	
852.58	5399.1	
852.75	4975.2	
852.92	3752.6	
853.09	3284.9	
853.26	5119.9	
853.43	5988.3	
853.6	3362.1	
853.77	2911.5	
853.94	6104.3	
854.11	4863.9	
854.28	4991.6	
854.44	3659	
854.61	6457.9	
854.78	5859.9	
854.95	3286.3	
855.12	4254.3	
855.29	4459.1	
855.46	6133.7	
855.63	3381.2	
855.8	4695.3	
855.97	5158.2	
856.14	5855.8	
856.31	4717.8	
856.48	3615.3	
856.65	5063.3	
856.82	4837.3	
856.99	3205.1	
857.16	3595.6	
857.33	6774.7	
857.49	5190.9	
857.66	3626.3	
857.83	3887	
858	5197.1	
858.17	5385.5	
858.34	3165.5	
858.51	3323.2	
858.68	6200.6	
858.85	6226.5	
859.02	3857.7	
859.19	4201.7	
859.36	4894	
859.52	4904.9	
859.69	3414	
859.86	3970.3	
860.03	4980.7	
860.2	6070.9	
860.37	3062.4	
860.54	3432.4	
860.71	5745.2	
860.88	6143.9	
861.05	3702.7	
861.21	4251.6	
861.38	6206.7	
861.55	4786.8	
861.72	3070.6	
861.89	3784	
862.06	5825.1	
862.23	6324.8	
862.4	3284.9	
862.56	3454.2	
862.73	5645.6	
862.9	5337.7	
863.07	3966.9	
863.24	3057.6	
863.41	4773.8	
863.58	4931.5	
863.75	3447.4	
863.91	3911.6	
864.08	6089.3	
864.25	5668.8	
864.42	4212	
864.59	4739	
864.76	6479.8	
864.93	4912.4	
865.09	3337.5	
865.26	3571	
865.43	6002.6	
865.6	6415.6	
865.77	2921.1	
865.94	3323.9	
866.1	6010.8	
866.27	5842.9	
866.44	5023	
866.61	3204.4	
866.78	5330.9	
866.95	5712.5	
867.11	3263.8	
867.28	3043.3	
867.45	5881.1	
867.62	4914.4	
867.79	3941	
867.96	3367.5	
868.12	4880.3	
868.29	5797.1	
868.46	2976.4	
868.63	4472.8	
868.8	5965.7	
868.97	5724.1	
869.13	3521.1	
869.3	3576.4	
869.47	5652.4	
869.64	5882.4	
869.81	3420.8	
869.97	3433.1	
870.14	5563	
870.31	6201.9	
870.48	3324.5	
870.65	4240.7	
870.81	5203.2	
870.98	5279	
871.15	3832.4	
871.32	3465.8	
871.48	5673.6	
871.65	6227.2	
871.82	3327.3	
871.99	3701.4	
872.16	6554.2	
872.32	6034.7	
872.49	3399.6	
872.66	3429	
872.83	5723.4	
872.99	5036	
873.16	3874.8	
873.33	3398.9	
873.5	5390.9	
873.67	5406	
873.83	3550.5	
874	4500.1	
874.17	5571.2	
874.34	6567.8	
874.5	4332.1	
874.67	4229.1	
874.84	6134.3	
875.01	4852.3	
875.17	4769	
875.34	3344.3	
875.51	5475.6	
875.68	6620.4	
875.84	4080.9	
876.01	4958.8	
876.18	5733.6	
876.34	5650.3	
876.51	3405.8	
876.68	3321.1	
876.85	5253.7	
877.01	6024.4	
877.18	4825	
877.35	3360.7	
877.52	5397.8	
877.68	4789.5	
877.85	3252.9	
878.02	3311.6	
878.18	5353.4	
878.35	5022.3	
878.52	2707.4	
878.69	3768.9	
878.85	5773.9	
879.02	5698.8	
879.19	4752	
879.35	3639.2	
879.52	5752.1	
879.69	5956.9	
879.86	2911.5	
880.02	3850.2	
880.19	5343.8	
880.36	6537.8	
880.52	3855.6	
880.69	4001.7	
880.86	5838.1	
881.02	5924.8	
881.19	3727.3	
881.36	3695.2	
881.52	5655.1	
881.69	5054.4	
881.86	3587.4	
882.02	3525.2	
882.19	5967.1	
882.36	6990.4	
882.52	3447.4	
882.69	4797.7	
882.86	5524.7	
883.02	5421	
883.19	4092.5	
883.36	3867.9	
883.52	5827.8	
883.69	6592.4	
883.86	3433.8	
884.02	3046	
884.19	5792.3	
884.36	5403.2	
884.52	3821.5	
884.69	3552.5	
884.86	5099.4	
885.02	6377.4	
885.19	3775.8	
885.36	3865.2	
885.52	5390.9	
885.69	5524.1	
885.86	4850.3	
886.02	4257.7	
886.19	5796.4	
886.35	5252.4	
886.52	3676.1	
886.69	4640	
886.85	4884.4	
887.02	6128.2	
887.19	6128.2	
887.35	6128.2	
887.52	6128.2	
887.68	6128.2	
887.85	6128.2	
888.02	6128.2	
888.18	6128.2	
888.35	6128.2	
888.51	6128.2	
888.68	6128.2	
888.85	6128.2	
889.01	6128.2	
889.18	6128.2	
889.35	6128.2	
889.51	6128.2	
889.68	6128.2	
889.84	6128.2	
890.01	6128.2	
890.17	6128.2	
890.34	6128.2	
890.51	6128.2	
890.67	6128.2	
890.84	6128.2	
891	6128.2	
891.17	6128.2	
891.34	6128.2	
891.5	6128.2	
891.67	6128.2	
891.83	6128.2	
892	6128.2	
892.16	6128.2	
892.33	6128.2	
892.5	6128.2	
892.66	6128.2	
892.83	6128.2	
892.99	6128.2	
893.16	6128.2	
893.32	6128.2	
893.49	6128.2	
893.65	6128.2	
893.82	6128.2	
893.99	6128.2	
894.15	6128.2	
894.32	6128.2	
894.48	6128.2	
894.65	6128.2	
894.81	6128.2	
894.98	6128.2	
895.14	6128.2	
895.31	6128.2	
895.47	6128.2	
895.64	6128.2	
895.81	6128.2	
895.97	6128.2	
896.14	6128.2	
896.3	6128.2	
896.47	6128.2	
896.63	6128.2	
896.8	6128.2	
896.96	6128.2	
897.13	6128.2	
897.29	6128.2	
897.46	6128.2	
897.62	6128.2	
897.79	6128.2	
897.95	6128.2	
898.12	6128.2	
898.28	6128.2	
898.45	6128.2	
898.61	6128.2	
898.78	6128.2	
898.94	6128.2	
899.11	6128.2	
899.27	6128.2	
899.44	6128.2	
899.6	6128.2	
899.77	6128.2	
899.93	6128.2	
900.1	6128.2	
900.26	6128.2	
900.43	6128.2	
900.59	6128.2	
900.76	6128.2	
900.92	6128.2	
901.09	6128.2	
901.25	6128.2	
901.42	6128.2	
901.58	6128.2	
901.75	6128.2	
901.91	6128.2	
902.07	6128.2	
902.24	6128.2	
902.4	6128.2	
902.57	6128.2	
902.73	6128.2	
902.9	6128.2	
903.06	6128.2	
903.23	6128.2	
903.39	6128.2	
903.56	6128.2	
903.72	6128.2	
903.88	6128.2	
904.05	6128.2	
904.21	6128.2	
904.38	6128.2	
904.54	6128.2	
904.71	6128.2	
904.87	6128.2	
905.03	6128.2	
905.2	6128.2	
905.36	6128.2	
905.53	6128.2	
905.69	6128.2	
905.86	6128.2	
906.02	6128.2	
906.18	6128.2	
906.35	6128.2	
906.51	6128.2	
906.68	6128.2	
906.84	6128.2	
907.01	6128.2	
907.17	6128.2	
907.33	6128.2	
907.5	6128.2	
907.66	6128.2	
907.83	6128.2	
907.99	6128.2	
908.15	6128.2	
908.32	6128.2	
908.48	6128.2	
908.65	6128.2	
908.81	6128.2	
908.97	6128.2	
909.14	6128.2	
909.3	6128.2	
909.47	6128.2	
909.63	6128.2	
909.79	6128.2	
909.96	6128.2	
910.12	6128.2	
910.28	6128.2	
910.45	6128.2	
910.61	6128.2	
910.78	6128.2	
910.94	6128.2	
911.1	6128.2	
911.27	6128.2	
911.43	6128.2	
911.59	6128.2	
911.76	6128.2	
911.92	6128.2	
912.08	6128.2	
912.25	6128.2	
912.41	6128.2	
912.57	6128.2	
912.74	6128.2	
912.9	6128.2	
913.07	6128.2	
913.23	6128.2	
913.39	6128.2	
913.56	6128.2	
913.72	6128.2	
913.88	6128.2	
914.05	6128.2	
914.21	6128.2	
914.37	6128.2	
914.54	6128.2	
914.7	6128.2	
914.86	6128.2	
915.03	6128.2	
915.19	6128.2	
