Wavelength	Intensities	
nm	a.u.	
179.22	1718.1	
179.44	1720.6	
179.65	1715.5	
179.86	1725.8	
180.08	1687.5	
180.29	4001	
180.51	3061	
180.72	5000.5	
180.94	5597.1	
181.15	2751.8	
181.37	2732	
181.58	4829.8	
181.79	5081.7	
182.01	2834.4	
182.22	3022.1	
182.44	5033.2	
182.65	4347.2	
182.87	3727.3	
183.08	3308.8	
183.29	5354.1	
183.51	4435.9	
183.72	3011.2	
183.94	4235.2	
184.15	4740.4	
184.37	4772.4	
184.58	2735.4	
184.79	3545.7	
185.01	4472.8	
185.22	5090.6	
185.44	3748.5	
185.65	3203	
185.86	4763.6	
186.08	4445.5	
186.29	2661.7	
186.51	2848.7	
186.72	4542.4	
186.94	5206.6	
187.15	3242.6	
187.36	3340.9	
187.58	6425.8	
187.79	4899.4	
188.01	3378.5	
188.22	5130.2	
188.43	5655.1	
188.65	5052.3	
188.86	2858.3	
189.08	3314.3	
189.29	4598.4	
189.5	4597	
189.72	3115.6	
189.93	3135.4	
190.15	5152	
190.36	5970.5	
190.57	3376.4	
190.79	3228.3	
191	5240.8	
191.22	5212.8	
191.43	3405.1	
191.64	2902.7	
191.86	5377.3	
192.07	5225.7	
192.29	2960	
192.5	3031.7	
192.71	5227.8	
192.93	4601.8	
193.14	3033.7	
193.35	3131.3	
193.57	4578.6	
193.78	5229.1	
194	2582.5	
194.21	3002.3	
194.42	4406.5	
194.64	4761.5	
194.85	3318.4	
195.07	3798.3	
195.28	4830.5	
195.49	4202.4	
195.71	3991.5	
195.92	2914.3	
196.13	4962.9	
196.35	4990.9	
196.56	4233.2	
196.78	3293.8	
196.99	5958.9	
197.2	5592.3	
197.42	3708.9	
197.63	3323.2	
197.84	4317.8	
198.06	4999.8	
198.27	3085.6	
198.48	3900	
198.7	4607.2	
198.91	4758.8	
199.13	3360	
199.34	3332	
199.55	5158.8	
199.77	4143.7	
199.98	2982.5	
200.19	3334.8	
200.41	4730.1	
200.62	4453.6	
200.83	3434.4	
201.05	3672	
201.26	4750.6	
201.47	4545.1	
201.69	2980.5	
201.9	2917.7	
202.11	4782.7	
202.33	5500.8	
202.54	3095.8	
202.76	3507.5	
202.97	4804.5	
203.18	4891.9	
203.4	3473.4	
203.61	3453.6	
203.82	4863.2	
204.04	4541	
204.25	3336.8	
204.46	3313.6	
204.68	4787.5	
204.89	4952.7	
205.1	3265.8	
205.32	2852.8	
205.53	5042.1	
205.74	5145.2	
205.96	2513.5	
206.17	3430.3	
206.38	5020.9	
206.6	5158.2	
206.81	3835.8	
207.02	3099.9	
207.24	4977.9	
207.45	5230.5	
207.66	3188	
207.88	2780.5	
208.09	4992.9	
208.3	4754	
208.52	2973.7	
208.73	3251.5	
208.94	4813.4	
209.15	5309	
209.37	3168.2	
209.58	3580.5	
209.79	5137	
210.01	4646.2	
210.22	2653.5	
210.43	2752.5	
210.65	4739.7	
210.86	5016.8	
211.07	3197.6	
211.29	2987.3	
211.5	4945.2	
211.71	4711.7	
211.93	3015.3	
212.14	2979.1	
212.35	4711	
212.56	4851.6	
212.78	3336.8	
212.99	2797.5	
213.2	5416.9	
213.42	4643.4	
213.63	3119.7	
213.84	3235.8	
214.06	4308.9	
214.27	4379.2	
214.48	3262.4	
214.69	3383.2	
214.91	5271.5	
215.12	5337.7	
215.33	3323.2	
215.55	3685	
215.76	5703.6	
215.97	5025	
216.18	3306.1	
216.4	3233.1	
216.61	4526	
216.82	5128.8	
217.04	3011.9	
217.25	3105.4	
217.46	5271.5	
217.67	5044.8	
217.89	2721.8	
218.1	2759.3	
218.31	4853.7	
218.53	4897.4	
218.74	3124.5	
218.95	3017.3	
219.16	4737	
219.38	5526.1	
219.59	3062.4	
219.8	3532.1	
220.01	5864.7	
220.23	4786.1	
220.44	3794.2	
220.65	2923.8	
220.87	4839.4	
221.08	5248.3	
221.29	2871.9	
221.5	3505.4	
221.72	6249.7	
221.93	4537.6	
222.14	3355.3	
222.35	3892.5	
222.57	4772.4	
222.78	5096	
222.99	3218.7	
223.2	3396.9	
223.42	4994.3	
223.63	5105.6	
223.84	2560	
224.05	2552.5	
224.27	5860.6	
224.48	5403.9	
224.69	3870.7	
224.9	3338.9	
225.12	4941.1	
225.33	4756.1	
225.54	2751.8	
225.75	2993.4	
225.97	4496	
226.18	4696	
226.39	3175.7	
226.6	3039.2	
226.82	4657.8	
227.03	4468.7	
227.24	3299.3	
227.45	2839.8	
227.67	5094	
227.88	5431.2	
228.09	3678.8	
228.3	3629.7	
228.52	5037.3	
228.73	4724.7	
228.94	3136.8	
229.15	2766.8	
229.36	4732.9	
229.58	4693.3	
229.79	3194.1	
230	3600.3	
230.21	5571.8	
230.43	4819.6	
230.64	3263.8	
230.85	3428.3	
231.06	5175.2	
231.28	5100.8	
231.49	2835.8	
231.7	3293.1	
231.91	5027.8	
232.12	4752.7	
232.34	2878.1	
232.55	3235.1	
232.76	5212.1	
232.97	4875.5	
233.18	3024.8	
233.4	3323.9	
233.61	4853.7	
233.82	4610.7	
234.03	3153.9	
234.25	3053.5	
234.46	6299.6	
234.67	4832.5	
234.88	3393.5	
235.09	3048.7	
235.31	4993.6	
235.52	4663.2	
235.73	3279.5	
235.94	2861	
236.15	4530.1	
236.37	5618.9	
236.58	3028.3	
236.79	3224.2	
237	4962.9	
237.21	4319.2	
237.43	3415.3	
237.64	2819.4	
237.85	7856	
238.06	4445.5	
238.27	3438.5	
238.48	2862.4	
238.7	5063.9	
238.91	4659.1	
239.12	3199.6	
239.33	3278.8	
239.54	4504.8	
239.76	4678.9	
239.97	3208.5	
240.18	3216	
240.39	5716.6	
240.6	4928.1	
240.82	3342.3	
241.03	2785.9	
241.24	4719.9	
241.45	5404.6	
241.66	2967.5	
241.87	3444	
242.09	5312.4	
242.3	5544.5	
242.51	3464.5	
242.72	3182.5	
242.93	5068.7	
243.14	4724	
243.36	3705.5	
243.57	3922.5	
243.78	5424.4	
243.99	5048.9	
244.2	3183.9	
244.41	2949.8	
244.63	4440	
244.84	4952	
245.05	3417.4	
245.26	3226.9	
245.47	5051.7	
245.68	5149.3	
245.9	4054.3	
246.11	3306.1	
246.32	4633.2	
246.53	4952.7	
246.74	4977.9	
246.95	2702.6	
247.16	4458.4	
247.38	4784.1	
247.59	2796.8	
247.8	3248.1	
248.01	4413.4	
248.22	4727.4	
248.43	2998.2	
248.64	3170.3	
248.86	4339.6	
249.07	4635.2	
249.28	2896.5	
249.49	3318.4	
249.7	5143.8	
249.91	5222.3	
250.12	2758.6	
250.34	2845.3	
250.55	4904.2	
250.76	4761.5	
250.97	3307.5	
251.18	3334.1	
251.39	5215.5	
251.6	4891.9	
251.81	3414	
252.03	3338.2	
252.24	4587.4	
252.45	5115.1	
252.66	2897.9	
252.87	3554.6	
253.08	4810	
253.29	5943.2	
253.5	2858.3	
253.72	3835.2	
253.93	4706.2	
254.14	5490.6	
254.35	3098.6	
254.56	3140.2	
254.77	4952	
254.98	4468	
255.19	3065.1	
255.41	3819.5	
255.62	4904.9	
255.83	5305.6	
256.04	3459.7	
256.25	3300.6	
256.46	5746.6	
256.67	4532.8	
256.88	3315	
257.09	3674.1	
257.31	4491.2	
257.52	4506.9	
257.73	4076.1	
257.94	3097.2	
258.15	4653	
258.36	4782	
258.57	3773	
258.78	2520.4	
258.99	5136.3	
259.2	4614.8	
259.41	3068.5	
259.63	3138.2	
259.84	5381.4	
260.05	5674.9	
260.26	3918.4	
260.47	2992.8	
260.68	5248.3	
260.89	4692.6	
261.1	3649.5	
261.31	2930	
261.52	5294.7	
261.73	5518.6	
261.95	3865.9	
262.16	3405.1	
262.37	5308.3	
262.58	5374.6	
262.79	3900.7	
263	3132	
263.21	4789.5	
263.42	4702.8	
263.63	3375.7	
263.84	3112.9	
264.05	5238	
264.26	5409.4	
264.47	3769.6	
264.69	3330	
264.9	5378.6	
265.11	4922	
265.32	3020.8	
265.53	3026.2	
265.74	4876.2	
265.95	4277.5	
266.16	3254.9	
266.37	3562.1	
266.58	4860.5	
266.79	4605.9	
267	3032.4	
267.21	2879.4	
267.42	4455.7	
267.63	4771.1	
267.84	3186	
268.06	2770.9	
268.27	5153.4	
268.48	5327.4	
268.69	3160.7	
268.9	3659	
269.11	5335	
269.32	4297.3	
269.53	3242.6	
269.74	3009.8	
269.95	4977.9	
270.16	4274.8	
270.37	3235.1	
270.58	3655.6	
270.79	4697.4	
271	5202.5	
271.21	3375.1	
271.42	3257	
271.63	4960.2	
271.84	4481	
272.05	2667.8	
272.26	2908.1	
272.47	4769	
272.68	4896	
272.89	3162.7	
273.11	3525.9	
273.32	4668	
273.53	5400.5	
273.74	3422.2	
273.95	3362.8	
274.16	5201.2	
274.37	4760.2	
274.58	3568.9	
274.79	2895.8	
275	4932.9	
275.21	5152.7	
275.42	4116.4	
275.63	3547.1	
275.84	4982	
276.05	6116.6	
276.26	3358.7	
276.47	3146.4	
276.68	4737.6	
276.89	5477.6	
277.1	3599	
277.31	2850.1	
277.52	4911.7	
277.73	5194.3	
277.94	2854.9	
278.15	3097.2	
278.36	5005.2	
278.57	4531.5	
278.78	3115.6	
278.99	3409.9	
279.2	4530.8	
279.41	4489.1	
279.62	3932.1	
279.83	2889	
280.04	5662.6	
280.25	4471.4	
280.46	3961.5	
280.67	3210.5	
280.88	4570.4	
281.09	5257.8	
281.3	3347.1	
281.51	4170.3	
281.72	5145.2	
281.93	5184.8	
282.14	3080.1	
282.35	3280.8	
282.56	5195	
282.77	5081	
282.98	3147	
283.19	3721.2	
283.4	6118.6	
283.61	4719.2	
283.82	2960	
284.03	3862.5	
284.24	4902.2	
284.45	5162.9	
284.66	3883.6	
284.87	3647.4	
285.08	5223.7	
285.29	5300.8	
285.5	2854.2	
285.71	3161.4	
285.92	5172.5	
286.12	5663.3	
286.33	3913	
286.54	3212.6	
286.75	5182.7	
286.96	4681.7	
287.17	2939.5	
287.38	3718.4	
287.59	4586.1	
287.8	4532.2	
288.01	3153.9	
288.22	3502	
288.43	5072.1	
288.64	4384.7	
288.85	3705.5	
289.06	3530.7	
289.27	5121.3	
289.48	5405.3	
289.69	3932.8	
289.9	3563.5	
290.11	5324	
290.32	4633.9	
290.53	3726.6	
290.74	3422.2	
290.94	5091.3	
291.15	5139	
291.36	3037.1	
291.57	3529.3	
291.78	4625.7	
291.99	4304.1	
292.2	2949.8	
292.41	3416	
292.62	5190.9	
292.83	5020.3	
293.04	4147.8	
293.25	3034.4	
293.46	4650.3	
293.67	5223.7	
293.88	3015.3	
294.09	2999.6	
294.29	4486.4	
294.5	4886.5	
294.71	3250.1	
294.92	3091.1	
295.13	4647.5	
295.34	5636	
295.55	2764.8	
295.76	2740.9	
295.97	5083.1	
296.18	5601.2	
296.39	2915.6	
296.6	3018	
296.81	4832.5	
297.01	5096	
297.22	3175.7	
297.43	3076.7	
297.64	4615.4	
297.85	4487.1	
298.06	2569.5	
298.27	2770.9	
298.48	4804.5	
298.69	4579.3	
298.9	3279.5	
299.11	2984.6	
299.31	4468.7	
299.52	4472.1	
299.73	3526.6	
299.94	3377.8	
300.15	4877.6	
300.36	4595	
300.57	3463.1	
300.78	3381.2	
300.99	4738.3	
301.2	4838	
301.4	2968.2	
301.61	3239.9	
301.82	5037.3	
302.03	5093.3	
302.24	3647.4	
302.45	2921.8	
302.66	5002.5	
302.87	5283.8	
303.08	3034.4	
303.29	4005.8	
303.49	4661.2	
303.7	4777.2	
303.91	2800.9	
304.12	3864.5	
304.33	4409.3	
304.54	4905.6	
304.75	2996.2	
304.96	2910.8	
305.16	5062.6	
305.37	5544.5	
305.58	2742.9	
305.79	2783.9	
306	5057.1	
306.21	4326.7	
306.42	3002.3	
306.63	4493.9	
306.83	4622.9	
307.04	5143.1	
307.25	3339.6	
307.46	3289	
307.67	4267.3	
307.88	5063.9	
308.09	3050.1	
308.29	3045.3	
308.5	4799.8	
308.71	5196.4	
308.92	3287	
309.13	2917	
309.34	4760.8	
309.55	4728.1	
309.75	3771.7	
309.96	3390.1	
310.17	5095.3	
310.38	4552.6	
310.59	3545	
310.8	3422.2	
311.01	4715.1	
311.21	4741	
311.42	2949.8	
311.63	3020.8	
311.84	4641.4	
312.05	4870.8	
312.26	3424.2	
312.46	3674.7	
312.67	4647.5	
312.88	4437.9	
313.09	2959.3	
313.3	2920.4	
313.51	5313.1	
313.71	5633.3	
313.92	2953.2	
314.13	3099.3	
314.34	4992.9	
314.55	4753.3	
314.76	3641.3	
314.96	3331.4	
315.17	4936.3	
315.38	5061.2	
315.59	2962	
315.8	2918.4	
316.01	5380	
316.21	5467.4	
316.42	2911.5	
316.63	3264.5	
316.84	4717.8	
317.05	5251	
317.26	3426.9	
317.46	3130	
317.67	4707.6	
317.88	5091.9	
318.09	3635.8	
318.3	2796.8	
318.5	4597	
318.71	5006.6	
318.92	4623.6	
319.13	3403.7	
319.34	5162.2	
319.54	5262.6	
319.75	2816.6	
319.96	2666.5	
320.17	5016.2	
320.38	5171.8	
320.58	2766.1	
320.79	3195.5	
321	5275.6	
321.21	5345.9	
321.42	3330.7	
321.62	2738.1	
321.83	4551.3	
322.04	4795	
322.25	3153.2	
322.46	2968.9	
322.66	4857.8	
322.87	5020.9	
323.08	3587.4	
323.29	2904	
323.5	5659.2	
323.7	4398.4	
323.91	3894.6	
324.12	3536.8	
324.33	4858.5	
324.53	5079.6	
324.74	3432.4	
324.95	3550.5	
325.16	4364.9	
325.37	4669.4	
325.57	3017.3	
325.78	3016	
325.99	4928.1	
326.2	4400.4	
326.4	4171	
326.61	2794.8	
326.82	4723.3	
327.03	4833.2	
327.24	4082.3	
327.44	3742.3	
327.65	5008.6	
327.86	4174.4	
328.07	3445.4	
328.27	2854.9	
328.48	5302.2	
328.69	4398.4	
328.9	4106.9	
329.1	3205.8	
329.31	4715.8	
329.52	5355.4	
329.73	3005.1	
329.93	3304.1	
330.14	4832.5	
330.35	4955.4	
330.56	4660.5	
330.76	3658.4	
330.97	4666.6	
331.18	4843.4	
331.39	3212.6	
331.59	2725.8	
331.8	5230.5	
332.01	5344.5	
332.22	3101.3	
332.42	3394.8	
332.63	4922.6	
332.84	4519.2	
333.05	3321.8	
333.25	2997.5	
333.46	4608.6	
333.67	4832.5	
333.88	3111.5	
334.08	3367.5	
334.29	6377.4	
334.5	5232.6	
334.7	2924.5	
334.91	4031.1	
335.12	4417.5	
335.33	5070.1	
335.53	3282.9	
335.74	4524.6	
335.95	4692.6	
336.16	4513	
336.36	3188.7	
336.57	3638.6	
336.78	4470	
336.98	5224.4	
337.19	3942.3	
337.4	3191.4	
337.61	5675.6	
337.81	4443.4	
338.02	3033	
338.23	3778.5	
338.43	5417.6	
338.64	4609.3	
338.85	2996.9	
339.05	3809.2	
339.26	5458.5	
339.47	4359.4	
339.68	3014.6	
339.88	4226.3	
340.09	5057.8	
340.3	5156.8	
340.5	3423.5	
340.71	2772.3	
340.92	4421.6	
341.13	5337	
341.33	2891	
341.54	3422.8	
341.75	4976.6	
341.95	4627	
342.16	3314.3	
342.37	3566.9	
342.57	4441.4	
342.78	4754	
342.99	3587.4	
343.19	2735.4	
343.4	5161.6	
343.61	4962.9	
343.81	3192.1	
344.02	2909.5	
344.23	5056.4	
344.43	5325.4	
344.64	3667.9	
344.85	3531.4	
345.06	5035.3	
345.26	5264.6	
345.47	3431	
345.68	3895.9	
345.88	4397.7	
346.09	5112.4	
346.3	3445.4	
346.5	2739.5	
346.71	4760.2	
346.92	4612	
347.12	2824.8	
347.33	3390.1	
347.54	5169.8	
347.74	5498.8	
347.95	3337.5	
348.16	2639.1	
348.36	4710.3	
348.57	4485.1	
348.78	3430.3	
348.98	3571	
349.19	4766.3	
349.39	4334.9	
349.6	2814.6	
349.81	2994.8	
350.01	5019.6	
350.22	4541	
350.43	3301.3	
350.63	3855.6	
350.84	4764.9	
351.05	4590.9	
351.25	2962	
351.46	2811.2	
351.67	5180	
351.87	4506.2	
352.08	3209.8	
352.29	3589.4	
352.49	5169.8	
352.7	4941.1	
352.9	2985.3	
353.11	3567.6	
353.32	5618.3	
353.52	4657.8	
353.73	2913.6	
353.94	3601	
354.14	5041.4	
354.35	4842.8	
354.55	3041.9	
354.76	3309.5	
354.97	4990.2	
355.17	4764.3	
355.38	2839.8	
355.59	3755.3	
355.79	4558.1	
356	4790.9	
356.2	3264.5	
356.41	2943.6	
356.62	4407.9	
356.82	4729.4	
357.03	3513.6	
357.24	3164.8	
357.44	4585.4	
357.65	4657.1	
357.85	4093.9	
358.06	3330	
358.27	4378.6	
358.47	4492.6	
358.68	2841.2	
358.88	3553.9	
359.09	5003.9	
359.3	5197.7	
359.5	3974.4	
359.71	3553.2	
359.91	5543.2	
360.12	4969.1	
360.33	3464.5	
360.53	3844	
360.74	4563.6	
360.94	4664.6	
361.15	3670.6	
361.36	3107.5	
361.56	5247.6	
361.77	4753.3	
361.97	4019.5	
362.18	3285.6	
362.38	5287.9	
362.59	4496	
362.8	3026.9	
363	2928.6	
363.21	4388.8	
363.41	4818.9	
363.62	3430.3	
363.83	4167.6	
364.03	5021.6	
364.24	5586.2	
364.44	4199	
364.65	4237.2	
364.85	4775.9	
365.06	4574.5	
365.27	3190.1	
365.47	3264.5	
365.68	5545.9	
365.88	4827.1	
366.09	3525.2	
366.29	3299.3	
366.5	4934.9	
366.71	5203.9	
366.91	4178.5	
367.12	3648.8	
367.32	5777.3	
367.53	5204.6	
367.73	3714.3	
367.94	4343.7	
368.14	5218.9	
368.35	5731.6	
368.56	3569.6	
368.76	3104	
368.97	5294	
369.17	6387.6	
369.38	3249.4	
369.58	3424.2	
369.79	4528.1	
369.99	5546.6	
370.2	4251.6	
370.4	3556	
370.61	5076.2	
370.82	5945.3	
371.02	3471.3	
371.23	2975.7	
371.43	4491.9	
371.64	5499.5	
371.84	3511.6	
372.05	4386.1	
372.25	6449.7	
372.46	5168.4	
372.66	3519.8	
372.87	3462.4	
373.07	5244.2	
373.28	6541.2	
373.48	4218.1	
373.69	4004.5	
373.9	4932.9	
374.1	4990.2	
374.31	4242.7	
374.51	3938.9	
374.72	5569.8	
374.92	4746.5	
375.13	4411.3	
375.33	3785.3	
375.54	5256.5	
375.74	4909	
375.95	3833.1	
376.15	4758.8	
376.36	5362.9	
376.56	5195.7	
376.77	3947.1	
376.97	4220.2	
377.18	6111.1	
377.38	5368.4	
377.59	4407.2	
377.79	3604.4	
378	5283.8	
378.2	5500.2	
378.41	3592.8	
378.61	3561.4	
378.82	5655.8	
379.02	5016.2	
379.23	3735.5	
379.43	4487.8	
379.64	5766.4	
379.84	5393.7	
380.05	3657	
380.25	3612.6	
380.46	5543.2	
380.66	5206.6	
380.87	4616.8	
381.07	4787.5	
381.28	5952.1	
381.48	5446.9	
381.69	3639.9	
381.89	3730	
382.1	4745.1	
382.3	5500.8	
382.51	4408.6	
382.71	5094	
382.91	5412.1	
383.12	5873.6	
383.32	3900	
383.53	4092.5	
383.73	5365	
383.94	5256.5	
384.14	4035.2	
384.35	3386	
384.55	5130.8	
384.76	5474.9	
384.96	3934.8	
385.17	4155.3	
385.37	5496.1	
385.58	4901.5	
385.78	4126.7	
385.98	3306.8	
386.19	5124.7	
386.39	5429.2	
386.6	3778.5	
386.8	3947.8	
387.01	5523.4	
387.21	5569.8	
387.42	4155.3	
387.62	4588.8	
387.83	5069.4	
388.03	5394.3	
388.23	4078.2	
388.44	4541	
388.64	4802.5	
388.85	4917.9	
389.05	4231.8	
389.26	4616.1	
389.46	6460.7	
389.67	5915.9	
389.87	4298	
390.07	4328	
390.28	5282.4	
390.48	5055.8	
390.69	3727.3	
390.89	3931.4	
391.1	5247.6	
391.3	5791.7	
391.5	4856.4	
391.71	5294	
391.91	5738.4	
392.12	6255.2	
392.32	4909.7	
392.53	4321.9	
392.73	5238.7	
392.93	5397.1	
393.14	4104.8	
393.34	4630.5	
393.55	5715.2	
393.75	5369.1	
393.95	4119.1	
394.16	3967.6	
394.36	5298.1	
394.57	5681.7	
394.77	3798.3	
394.98	4033.1	
395.18	5214.8	
395.38	5326.8	
395.59	4796.3	
395.79	3958	
396	5337.7	
396.2	5659.9	
396.4	4633.9	
396.61	4581.3	
396.81	5810.8	
397.02	5342.5	
397.22	4817.5	
397.42	4868	
397.63	5978.7	
397.83	5348.6	
398.04	4026.3	
398.24	4493.2	
398.44	5748.6	
398.65	5100.8	
398.85	3908.9	
399.05	3963.5	
399.26	5388.9	
399.46	6625.2	
399.67	4312.3	
399.87	4120.5	
400.07	5634.6	
400.28	5943.9	
400.48	4222.9	
400.69	4918.5	
400.89	6057.9	
401.09	6432.7	
401.3	4144.4	
401.5	5044.8	
401.7	6662.7	
401.91	6799.3	
402.11	4523.3	
402.32	4597.7	
402.52	6255.9	
402.72	6127.5	
402.93	4835.3	
403.13	3907.5	
403.33	6702.3	
403.54	5653.8	
403.74	4493.9	
403.94	5175.2	
404.15	5825.1	
404.35	6640.2	
404.56	4319.8	
404.76	5745.2	
404.96	6214.2	
405.17	5948.7	
405.37	5048.9	
405.57	4773.8	
405.78	6267.5	
405.98	5770.5	
406.18	4502.1	
406.39	5113.8	
406.59	6195.8	
406.79	5885.2	
407	4262.5	
407.2	4398.4	
407.4	6323.4	
407.61	6382.8	
407.81	4435.9	
408.01	6029.2	
408.22	5541.8	
408.42	7067.5	
408.62	5444.9	
408.83	5031.9	
409.03	6121.4	
409.23	6143.9	
409.44	5145.2	
409.64	5326.1	
409.84	6998.6	
410.05	6967.9	
410.25	5390.3	
410.45	5182.7	
410.66	6685.3	
410.86	8495.7	
411.06	5646.2	
411.27	5533.6	
411.47	8432.2	
411.67	6870.9	
411.88	5785.5	
412.08	6109.8	
412.28	7411.6	
412.49	7791.8	
412.69	5674.2	
412.89	5808	
413.09	7755	
413.3	7598	
413.5	5818.3	
413.7	5569.1	
413.91	7090.8	
414.11	7684.7	
414.31	5795.1	
414.52	6132.3	
414.72	7512.6	
414.92	7514.7	
415.12	5835.3	
415.33	6274.3	
415.53	7860.1	
415.73	8021.9	
415.94	6497.5	
416.14	6075.6	
416.34	7215.7	
416.55	7017	
416.75	7010.2	
416.95	6588.3	
417.15	7978.9	
417.36	8371.4	
417.56	7232.1	
417.76	6483.2	
417.97	8226	
418.17	8045.8	
418.37	6215.6	
418.57	6270.9	
418.78	7976.8	
418.98	7648.5	
419.18	6909.2	
419.38	6853.9	
419.59	7658.7	
419.79	7239.6	
419.99	6173.3	
420.2	6436.8	
420.4	8118.1	
420.6	8170.7	
420.8	6095.4	
421.01	5989.6	
421.21	7988.4	
421.41	8011	
421.61	6362.4	
421.82	6268.1	
422.02	7621.2	
422.22	8217.1	
422.42	6838.2	
422.63	6408.8	
422.83	7582.3	
423.03	8559.8	
423.23	6511.9	
423.44	5780.1	
423.64	7683.3	
423.84	7288.7	
424.04	6155.5	
424.25	5829.2	
424.45	8269	
424.65	8219.9	
424.85	5793.7	
425.06	6221	
425.26	8505.2	
425.46	7619.1	
425.66	6498.9	
425.87	6261.3	
426.07	8151.6	
426.27	7999.4	
426.47	6368.5	
426.67	5838.8	
426.88	8348.2	
427.08	7987.1	
427.28	6696.9	
427.48	5858.6	
427.69	7234.8	
427.89	7673.7	
428.09	6563.7	
428.29	5880.4	
428.5	8179.6	
428.7	7925.6	
428.9	5902.9	
429.1	6247	
429.3	7896.3	
429.51	8087.4	
429.71	6177.4	
429.91	6784.9	
430.11	8105.2	
430.31	8658.1	
430.52	6492.7	
430.72	6724.2	
430.92	8621.3	
431.12	8159.1	
431.32	6275	
431.53	6509.1	
431.73	7359	
431.93	8647.2	
432.13	6172.6	
432.33	6135	
432.54	7825.3	
432.74	8061.5	
432.94	6228.6	
433.14	6799.9	
433.34	8318.8	
433.55	8053.3	
433.75	6862.1	
433.95	8305.2	
434.15	8239.7	
434.35	8057.4	
434.56	6357.6	
434.76	6105	
434.96	8209.6	
435.16	8611	
435.36	6300.2	
435.56	7294.2	
435.77	7997.3	
435.97	8196	
436.17	7819.1	
436.37	7206.8	
436.57	8052.6	
436.78	8208.9	
436.98	8453.3	
437.18	7635.5	
437.38	8655.4	
437.58	8205.5	
437.78	7822.6	
437.99	6680.5	
438.19	8613.8	
438.39	9215.9	
438.59	6747.4	
438.79	6328.2	
438.99	9044.5	
439.2	8140.7	
439.4	6376	
439.6	6402	
439.8	8425.3	
440	9298.5	
440.2	7330.4	
440.4	7400.7	
440.61	8882.7	
440.81	9282.8	
441.01	6883.9	
441.21	7502.4	
441.41	9360.6	
441.61	8928.5	
441.81	7825.3	
442.02	8497.7	
442.22	9753.1	
442.42	9110	
442.62	7015.7	
442.82	7011.6	
443.02	9557.2	
443.22	8877.3	
443.43	7473.7	
443.63	7101	
443.83	8650.6	
444.03	8669.1	
444.23	8170.7	
444.43	7774.1	
444.63	9121	
444.83	9990.7	
445.04	7379.5	
445.24	8271.7	
445.44	9245.9	
445.64	9384.5	
445.84	7716.1	
446.04	7775.5	
446.24	8753.7	
446.44	9452.7	
446.65	7161.1	
446.85	7503.8	
447.05	8929.8	
447.25	9450.7	
447.45	7641.7	
447.65	7133.8	
447.85	9038.4	
448.05	8591.9	
448.25	7861.5	
448.46	7731.8	
448.66	9057.5	
448.86	8731.2	
449.06	7098.3	
449.26	7905.2	
449.46	9349.7	
449.66	8641.7	
449.86	7712.7	
450.06	7571.3	
450.26	8912.1	
450.47	9346.2	
450.67	7703.8	
450.87	8030.1	
451.07	9529.2	
451.27	9262.3	
451.47	7355.6	
451.67	7850.5	
451.87	9089.6	
452.07	9755.8	
452.27	7851.9	
452.47	7536.5	
452.67	9350.3	
452.88	9672.6	
453.08	6959.7	
453.28	8671.1	
453.48	10419	
453.68	9242.5	
453.88	7733.8	
454.08	7721.5	
454.28	9846.6	
454.48	9422.7	
454.68	8269	
454.88	8550.3	
455.08	9917.6	
455.28	9730.6	
455.48	7567.9	
455.68	8172.8	
455.89	10340	
456.09	10088	
456.29	7992.5	
456.49	8176.9	
456.69	10515	
456.89	9655.5	
457.09	8566	
457.29	8927.1	
457.49	10075	
457.69	10271	
457.89	8715.5	
458.09	8138.6	
458.29	10101	
458.49	10716	
458.69	9096.4	
458.89	8683.4	
459.09	11038	
459.29	11049	
459.49	8641.1	
459.69	9336	
459.9	10514	
460.1	10494	
460.3	8477.2	
460.5	8530.5	
460.7	10784	
460.9	10430	
461.1	8408.3	
461.3	9467.8	
461.5	11379	
461.7	11039	
461.9	9002.9	
462.1	9037	
462.3	10834	
462.5	11282	
462.7	9091.6	
462.9	9264.3	
463.1	12110	
463.3	12093	
463.5	9364.7	
463.7	10482	
463.9	11226	
464.1	11571	
464.3	9865.7	
464.5	9860.3	
464.7	11889	
464.9	11761	
465.1	11023	
465.3	10340	
465.5	12024	
465.7	12236	
465.9	10750	
466.1	10164	
466.3	12226	
466.5	11916	
466.7	11426	
466.9	10314	
467.1	12165	
467.3	12826	
467.5	11376	
467.7	10493	
467.9	13049	
468.1	13610	
468.3	11037	
468.5	11554	
468.7	12305	
468.9	12281	
469.1	10982	
469.3	11494	
469.5	13887	
469.7	12149	
469.9	11140	
470.1	10806	
470.3	12518	
470.5	12544	
470.7	11701	
470.9	10713	
471.1	12393	
471.3	12407	
471.5	10623	
471.69	12156	
471.89	12149	
472.09	11709	
472.29	11330	
472.49	11327	
472.69	12045	
472.89	12549	
473.09	10681	
473.29	10518	
473.49	12114	
473.69	11944	
473.89	11355	
474.09	10666	
474.29	13042	
474.49	12753	
474.69	11463	
474.89	10814	
475.09	12058	
475.29	12149	
475.49	10404	
475.69	10750	
475.88	13226	
476.08	12546	
476.28	10324	
476.48	10516	
476.68	12689	
476.88	12410	
477.08	10492	
477.28	10843	
477.48	12101	
477.68	12339	
477.88	10452	
478.08	10515	
478.28	12975	
478.48	12325	
478.67	10726	
478.87	10073	
479.07	12892	
479.27	12375	
479.47	10742	
479.67	10978	
479.87	12790	
480.07	13209	
480.27	10388	
480.47	11611	
480.67	12396	
480.87	13106	
481.06	10664	
481.26	11479	
481.46	12626	
481.66	12428	
481.86	11148	
482.06	11847	
482.26	12251	
482.46	13010	
482.66	10961	
482.86	10715	
483.05	12776	
483.25	12270	
483.45	13053	
483.65	11189	
483.85	12489	
484.05	12734	
484.25	11471	
484.45	12061	
484.65	13216	
484.84	13498	
485.04	11285	
485.24	11404	
485.44	13680	
485.64	12413	
485.84	10985	
486.04	11989	
486.24	12791	
486.44	13082	
486.63	10955	
486.83	11742	
487.03	13022	
487.23	13153	
487.43	11143	
487.63	13049	
487.83	13253	
488.02	13997	
488.22	12093	
488.42	12506	
488.62	13906	
488.82	13208	
489.02	11606	
489.22	12071	
489.41	13808	
489.61	13848	
489.81	11660	
490.01	11770	
490.21	13978	
490.41	14530	
490.61	11779	
490.8	11833	
491	13728	
491.2	13036	
491.4	12185	
491.6	11501	
491.8	13498	
491.99	13464	
492.19	11406	
492.39	11708	
492.59	13880	
492.79	14014	
492.99	12525	
493.18	12069	
493.38	14321	
493.58	15126	
493.78	12786	
493.98	12448	
494.18	14225	
494.37	14125	
494.57	13205	
494.77	13107	
494.97	14797	
495.17	15223	
495.37	12951	
495.56	13306	
495.76	15555	
495.96	15272	
496.16	14115	
496.36	13519	
496.55	15500	
496.75	15165	
496.95	13679	
497.15	13654	
497.35	15393	
497.54	15542	
497.74	13401	
497.94	14851	
498.14	16234	
498.34	16027	
498.53	13470	
498.73	14111	
498.93	15307	
499.13	15756	
499.33	13996	
499.52	14324	
499.72	15987	
499.92	16008	
500.12	13913	
500.32	14232	
500.51	16094	
500.71	16018	
500.91	14732	
501.11	14450	
501.31	16126	
501.5	16386	
501.7	14952	
501.9	14159	
502.1	15823	
502.29	16208	
502.49	14719	
502.69	14943	
502.89	16082	
503.09	16193	
503.28	13581	
503.48	13734	
503.68	15401	
503.88	15382	
504.07	14502	
504.27	13921	
504.47	15810	
504.67	15654	
504.86	14488	
505.06	14143	
505.26	15470	
505.46	16655	
505.65	13903	
505.85	14064	
506.05	15128	
506.25	15568	
506.44	13331	
506.64	13915	
506.84	14976	
507.04	15538	
507.23	13419	
507.43	13796	
507.63	16414	
507.83	15263	
508.02	13831	
508.22	13568	
508.42	16654	
508.62	14985	
508.81	13687	
509.01	14193	
509.21	14771	
509.4	15137	
509.6	13922	
509.8	13502	
510	15138	
510.19	16291	
510.39	13442	
510.59	13689	
510.79	15102	
510.98	16268	
511.18	13753	
511.38	13899	
511.57	15835	
511.77	15700	
511.97	14149	
512.17	13468	
512.36	15831	
512.56	15407	
512.76	13573	
512.95	13263	
513.15	15888	
513.35	14841	
513.55	14220	
513.74	13561	
513.94	15912	
514.14	15343	
514.33	14427	
514.53	14136	
514.73	15328	
514.92	15560	
515.12	13853	
515.32	13827	
515.51	15660	
515.71	15972	
515.91	15092	
516.11	13854	
516.3	17104	
516.5	15408	
516.7	14165	
516.89	14705	
517.09	15482	
517.29	15489	
517.48	14806	
517.68	14003	
517.88	15356	
518.07	15911	
518.27	14526	
518.47	13764	
518.66	16257	
518.86	15317	
519.06	13637	
519.25	13950	
519.45	15523	
519.65	16728	
519.84	14582	
520.04	15251	
520.24	17179	
520.43	16143	
520.63	14392	
520.83	14213	
521.02	15440	
521.22	15898	
521.42	14234	
521.61	14756	
521.81	15606	
522.01	15726	
522.2	14392	
522.4	14149	
522.6	16221	
522.79	15300	
522.99	14383	
523.18	14129	
523.38	16351	
523.58	16384	
523.77	15788	
523.97	14440	
524.17	17910	
524.36	17383	
524.56	15689	
524.76	15535	
524.95	17084	
525.15	16722	
525.34	15484	
525.54	15553	
525.74	17566	
525.93	16770	
526.13	16737	
526.33	15914	
526.52	18143	
526.72	17576	
526.91	16808	
527.11	16299	
527.31	18016	
527.5	18418	
527.7	16482	
527.89	15768	
528.09	17362	
528.29	17983	
528.48	16914	
528.68	16472	
528.87	18266	
529.07	18142	
529.27	16538	
529.46	16198	
529.66	18133	
529.85	18434	
530.05	16123	
530.25	16642	
530.44	19241	
530.64	18060	
530.83	16441	
531.03	16572	
531.23	18449	
531.42	18266	
531.62	17303	
531.81	16664	
532.01	18937	
532.21	19166	
532.4	16987	
532.6	17346	
532.79	19847	
532.99	19444	
533.18	17576	
533.38	18209	
533.58	19167	
533.77	19648	
533.97	17709	
534.16	18357	
534.36	20124	
534.55	19362	
534.75	18490	
534.95	17860	
535.14	20164	
535.34	19430	
535.53	17649	
535.73	19194	
535.92	20547	
536.12	19245	
536.31	17602	
536.51	18600	
536.71	19540	
536.9	19294	
537.1	17602	
537.29	17927	
537.49	19805	
537.68	19103	
537.88	18098	
538.07	17380	
538.27	19579	
538.46	20321	
538.66	17672	
538.86	17878	
539.05	19505	
539.25	19696	
539.44	18275	
539.64	17681	
539.83	19420	
540.03	20084	
540.22	17776	
540.42	17355	
540.61	19264	
540.81	19581	
541	17764	
541.2	18541	
541.39	19080	
541.59	19445	
541.78	18302	
541.98	17605	
542.18	18859	
542.37	18730	
542.57	17615	
542.76	18170	
542.96	18580	
543.15	19247	
543.35	17482	
543.54	17043	
543.74	18965	
543.93	18746	
544.13	17268	
544.32	18137	
544.52	19094	
544.71	18441	
544.91	16633	
545.1	17481	
545.3	18538	
545.49	18808	
545.69	16446	
545.88	16964	
546.08	19674	
546.27	19073	
546.47	17316	
546.66	16761	
546.86	19044	
547.05	19435	
547.24	16938	
547.44	16908	
547.63	18051	
547.83	19156	
548.02	17037	
548.22	17327	
548.41	18026	
548.61	18948	
548.8	16570	
549	16654	
549.19	18369	
549.39	18673	
549.58	16350	
549.78	16685	
549.97	18568	
550.17	18164	
550.36	17225	
550.55	18187	
550.75	18231	
550.94	18822	
551.14	16395	
551.33	16522	
551.53	17573	
551.72	18469	
551.92	16685	
552.11	16355	
552.31	18464	
552.5	18327	
552.69	17646	
552.89	16010	
553.08	18284	
553.28	17938	
553.47	16345	
553.67	17201	
553.86	18469	
554.06	17396	
554.25	15623	
554.44	16223	
554.64	19260	
554.83	18783	
555.03	16094	
555.22	16403	
555.42	18146	
555.61	17991	
555.8	16132	
556	16337	
556.19	17276	
556.39	18213	
556.58	16037	
556.78	16140	
556.97	18001	
557.16	17778	
557.36	17142	
557.55	16053	
557.75	17157	
557.94	18656	
558.13	15896	
558.33	15739	
558.52	18360	
558.72	17589	
558.91	15741	
559.1	15971	
559.3	17290	
559.49	16963	
559.69	15451	
559.88	16174	
560.07	17705	
560.27	18142	
560.46	16364	
560.66	16421	
560.85	17611	
561.04	16877	
561.24	15642	
561.43	15626	
561.63	17149	
561.82	17270	
562.01	16608	
562.21	16072	
562.4	17509	
562.59	18529	
562.79	15933	
562.98	15781	
563.18	17669	
563.37	18954	
563.56	16493	
563.76	16002	
563.95	17481	
564.14	17476	
564.34	16432	
564.53	15896	
564.73	17965	
564.92	18217	
565.11	16430	
565.31	15941	
565.5	18551	
565.69	17638	
565.89	16301	
566.08	16412	
566.27	18253	
566.47	18800	
566.66	16980	
566.85	16112	
567.05	18213	
567.24	17862	
567.44	16328	
567.63	17348	
567.82	18460	
568.02	18056	
568.21	16247	
568.4	16597	
568.6	18284	
568.79	18222	
568.98	16494	
569.18	16485	
569.37	18384	
569.56	19852	
569.76	16886	
569.95	17673	
570.14	18516	
570.34	18705	
570.53	16546	
570.72	16535	
570.91	19066	
571.11	18485	
571.3	16847	
571.49	17598	
571.69	18589	
571.88	18133	
572.07	17434	
572.27	17372	
572.46	18172	
572.65	19054	
572.85	16772	
573.04	17226	
573.23	19291	
573.43	18542	
573.62	16798	
573.81	17468	
574	19047	
574.2	18651	
574.39	17391	
574.58	17460	
574.78	19843	
574.97	19348	
575.16	17799	
575.36	18146	
575.55	19780	
575.74	19796	
575.93	17286	
576.13	18473	
576.32	19188	
576.51	19796	
576.71	17733	
576.9	19202	
577.09	19993	
577.28	19486	
577.48	18015	
577.67	17429	
577.86	19459	
578.05	19729	
578.25	17924	
578.44	17960	
578.63	19436	
578.83	20637	
579.02	17442	
579.21	18861	
579.4	19602	
579.6	19725	
579.79	17999	
579.98	19768	
580.17	19911	
580.37	20226	
580.56	17785	
580.75	18344	
580.94	20177	
581.14	20360	
581.33	18843	
581.52	17944	
581.71	20043	
581.91	20411	
582.1	17735	
582.29	18076	
582.48	19734	
582.68	19828	
582.87	18514	
583.06	18396	
583.25	20192	
583.45	19883	
583.64	18925	
583.83	19418	
584.02	19548	
584.21	20127	
584.41	18837	
584.6	18464	
584.79	19950	
584.98	20409	
585.18	18071	
585.37	18007	
585.56	19466	
585.75	20302	
585.94	18070	
586.14	18631	
586.33	20418	
586.52	19783	
586.71	18294	
586.91	18120	
587.1	19093	
587.29	19882	
587.48	17647	
587.67	17837	
587.87	19778	
588.06	19495	
588.25	18508	
588.44	17974	
588.63	19189	
588.83	19753	
589.02	17565	
589.21	17247	
589.4	18570	
589.59	18804	
589.78	16239	
589.98	16429	
590.17	17733	
590.36	18099	
590.55	15373	
590.74	15664	
590.94	18695	
591.13	17476	
591.32	15730	
591.51	15397	
591.7	17845	
591.89	17752	
592.09	15565	
592.28	16051	
592.47	17132	
592.66	18857	
592.85	15631	
593.05	16017	
593.24	17593	
593.43	18413	
593.62	16024	
593.81	16338	
594	17746	
594.19	17851	
594.39	15887	
594.58	15928	
594.77	17981	
594.96	18492	
595.15	15638	
595.34	16194	
595.54	17715	
595.73	17043	
595.92	15161	
596.11	15957	
596.3	17987	
596.49	17096	
596.68	15552	
596.88	16059	
597.07	17792	
597.26	16924	
597.45	15377	
597.64	16350	
597.83	17260	
598.02	17644	
598.22	15397	
598.41	15904	
598.6	17429	
598.79	16981	
598.98	15426	
599.17	16172	
599.36	17376	
599.55	18288	
599.74	16807	
599.94	16745	
600.13	17802	
600.32	16873	
600.51	15287	
600.7	15339	
600.89	18212	
601.08	18169	
601.27	15076	
601.47	15769	
601.66	17588	
601.85	17938	
602.04	15601	
602.23	15626	
602.42	16937	
602.61	17292	
602.8	15384	
602.99	15158	
603.18	16946	
603.37	17244	
603.57	15581	
603.76	16023	
603.95	17709	
604.14	17367	
604.33	15354	
604.52	15586	
604.71	17432	
604.9	17021	
605.09	16064	
605.28	15841	
605.47	17690	
605.66	17459	
605.86	15857	
606.05	15331	
606.24	17787	
606.43	16544	
606.62	15474	
606.81	16048	
607	17472	
607.19	17020	
607.38	14943	
607.57	15074	
607.76	16678	
607.95	16296	
608.14	15498	
608.33	16065	
608.52	16771	
608.72	17425	
608.91	14803	
609.1	14633	
609.29	16719	
609.48	16306	
609.67	15412	
609.86	14698	
610.05	16386	
610.24	16660	
610.43	14716	
610.62	14302	
610.81	17327	
611	17236	
611.19	14834	
611.38	15272	
611.57	16789	
611.76	17726	
611.95	14558	
612.14	14333	
612.33	16525	
612.52	16288	
612.71	15074	
612.9	14259	
613.09	16008	
613.28	17852	
613.47	14771	
613.66	15457	
613.85	16807	
614.04	16333	
614.24	14771	
614.43	14243	
614.62	16892	
614.81	16759	
615	15204	
615.19	15270	
615.38	16204	
615.57	16702	
615.76	15172	
615.95	15948	
616.14	17095	
616.33	16751	
616.52	15525	
616.71	15504	
616.9	16800	
617.09	16862	
617.28	15016	
617.47	15841	
617.66	16369	
617.85	16265	
618.04	15818	
618.22	15425	
618.41	16754	
618.6	17683	
618.79	15490	
618.98	15413	
619.17	18052	
619.36	16661	
619.55	15715	
619.74	15668	
619.93	17496	
620.12	17084	
620.31	16258	
620.5	16506	
620.69	18153	
620.88	18626	
621.07	16948	
621.26	16283	
621.45	17886	
621.64	17959	
621.83	16500	
622.02	15940	
622.21	17860	
622.4	17931	
622.59	16830	
622.78	16807	
622.97	17495	
623.16	18496	
623.35	16507	
623.54	15904	
623.72	17655	
623.91	17929	
624.1	16788	
624.29	15910	
624.48	18767	
624.67	18304	
624.86	16761	
625.05	16029	
625.24	18800	
625.43	17752	
625.62	17839	
625.81	16324	
626	18393	
626.19	18088	
626.38	17029	
626.56	16392	
626.75	17895	
626.94	18456	
627.13	16957	
627.32	15982	
627.51	18401	
627.7	19226	
627.89	15795	
628.08	16869	
628.27	17707	
628.46	17852	
628.65	16085	
628.83	15907	
629.02	18203	
629.21	17638	
629.4	16578	
629.59	16618	
629.78	17632	
629.97	18289	
630.16	16708	
630.35	16308	
630.54	18763	
630.72	18507	
630.91	16276	
631.1	16628	
631.29	18060	
631.48	18145	
631.67	16797	
631.86	16163	
632.05	17877	
632.24	17819	
632.42	15900	
632.61	16497	
632.8	17856	
632.99	17531	
633.18	16494	
633.37	16587	
633.56	17986	
633.75	17856	
633.93	16426	
634.12	16251	
634.31	18541	
634.5	18370	
634.69	16257	
634.88	16500	
635.07	17846	
635.25	18193	
635.44	16855	
635.63	17055	
635.82	17542	
636.01	17122	
636.2	16581	
636.39	16425	
636.57	18549	
636.76	17971	
636.95	15985	
637.14	16916	
637.33	17918	
637.52	18540	
637.7	15713	
637.89	16634	
638.08	17662	
638.27	18559	
638.46	16393	
638.65	16668	
638.83	18446	
639.02	17295	
639.21	16306	
639.4	16616	
639.59	17516	
639.78	17170	
639.96	15503	
640.15	15612	
640.34	17208	
640.53	17399	
640.72	15162	
640.91	15354	
641.09	16658	
641.28	17726	
641.47	15421	
641.66	15988	
641.85	17139	
642.03	17178	
642.22	15632	
642.41	15458	
642.6	16730	
642.79	16163	
642.97	15048	
643.16	15630	
643.35	16534	
643.54	16278	
643.73	14912	
643.91	15485	
644.1	16157	
644.29	16652	
644.48	14786	
644.67	14782	
644.85	16045	
645.04	16469	
645.23	14201	
645.42	14601	
645.6	15905	
645.79	16552	
645.98	14214	
646.17	13352	
646.36	15356	
646.54	15378	
646.73	14479	
646.92	13495	
647.11	15085	
647.29	15890	
647.48	13680	
647.67	13329	
647.86	16027	
648.05	16159	
648.23	13592	
648.42	14722	
648.61	15519	
648.8	15229	
648.98	13411	
649.17	13650	
649.36	14761	
649.55	14713	
649.73	13369	
649.92	13941	
650.11	14934	
650.3	15195	
650.48	13466	
650.67	13394	
650.86	15307	
651.05	14362	
651.23	13250	
651.42	13315	
651.61	14753	
651.79	14579	
651.98	13451	
652.17	13140	
652.36	14932	
652.54	14235	
652.73	13147	
652.92	12927	
653.11	14844	
653.29	14915	
653.48	12514	
653.67	13175	
653.85	14574	
654.04	15318	
654.23	13152	
654.42	12742	
654.6	13867	
654.79	14264	
654.98	12082	
655.16	12247	
655.35	13069	
655.54	12914	
655.73	11718	
655.91	11671	
656.1	13818	
656.29	13027	
656.47	11524	
656.66	12947	
656.85	13470	
657.03	13691	
657.22	12212	
657.41	12423	
657.59	13910	
657.78	13673	
657.97	12164	
658.16	12697	
658.34	14421	
658.53	14661	
658.72	13259	
658.9	13695	
659.09	14066	
659.28	14018	
659.46	12491	
659.65	12424	
659.84	13895	
660.02	14262	
660.21	12514	
660.4	12324	
660.58	14530	
660.77	14078	
660.96	12774	
661.14	12135	
661.33	14952	
661.52	14844	
661.7	12026	
661.89	14567	
662.08	13785	
662.26	13374	
662.45	12239	
662.64	12276	
662.82	14286	
663.01	13538	
663.2	12222	
663.38	12890	
663.57	14014	
663.75	13957	
663.94	12439	
664.13	13306	
664.31	13657	
664.5	14164	
664.69	12498	
664.87	12990	
665.06	13433	
665.25	13852	
665.43	13175	
665.62	13183	
665.8	14024	
665.99	13599	
666.18	12392	
666.36	12450	
666.55	14074	
666.74	13947	
666.92	12032	
667.11	13229	
667.29	13708	
667.48	14154	
667.67	12912	
667.85	12220	
668.04	13525	
668.22	13515	
668.41	12348	
668.6	12532	
668.78	13482	
668.97	13538	
669.15	12445	
669.34	11744	
669.53	13489	
669.71	13684	
669.9	11888	
670.08	12424	
670.27	13392	
670.46	13712	
670.64	12431	
670.83	12803	
671.01	13266	
671.2	13691	
671.38	12029	
671.57	11890	
671.76	14222	
671.94	14632	
672.13	11873	
672.31	12603	
672.5	13958	
672.69	13375	
672.87	12114	
673.06	12267	
673.24	13831	
673.43	13543	
673.61	12363	
673.8	12169	
673.98	13719	
674.17	14022	
674.36	12680	
674.54	12516	
674.73	13530	
674.91	13966	
675.1	12282	
675.28	11882	
675.47	13510	
675.65	14009	
675.84	12176	
676.03	12334	
676.21	13319	
676.4	13023	
676.58	12684	
676.77	12598	
676.95	14450	
677.14	13366	
677.32	11762	
677.51	11835	
677.69	13988	
677.88	13145	
678.06	11755	
678.25	12018	
678.44	13609	
678.62	13392	
678.81	11725	
678.99	12478	
679.18	14209	
679.36	13833	
679.55	12181	
679.73	12666	
679.92	13671	
680.1	13363	
680.29	13017	
680.47	12117	
680.66	13274	
680.84	13935	
681.03	11496	
681.21	12418	
681.4	13403	
681.58	13206	
681.77	11999	
681.95	11849	
682.14	13922	
682.32	14074	
682.51	12600	
682.69	11533	
682.88	13079	
683.06	13454	
683.25	12228	
683.43	12489	
683.62	13326	
683.8	13538	
683.99	12498	
684.17	12016	
684.36	14040	
684.54	13102	
684.73	11047	
684.91	11093	
685.1	12788	
685.28	12243	
685.46	11060	
685.65	11022	
685.83	12351	
686.02	12005	
686.2	10461	
686.39	10815	
686.57	11928	
686.76	13082	
686.94	10750	
687.13	11023	
687.31	12594	
687.5	12405	
687.68	10675	
687.86	11531	
688.05	13693	
688.23	11994	
688.42	11632	
688.6	11133	
688.79	12467	
688.97	12509	
689.16	11507	
689.34	10654	
689.52	13136	
689.71	13207	
689.89	11773	
690.08	11200	
690.26	12903	
690.45	12777	
690.63	11833	
690.81	11536	
691	12702	
691.18	12663	
691.37	11427	
691.55	12993	
691.74	12267	
691.92	13947	
692.1	11364	
692.29	10953	
692.47	12611	
692.66	11996	
692.84	11043	
693.02	11548	
693.21	12210	
693.39	12452	
693.58	11673	
693.76	11215	
693.94	13476	
694.13	13516	
694.31	11404	
694.5	12230	
694.68	12568	
694.86	12982	
695.05	11834	
695.23	11804	
695.42	13481	
695.6	15001	
695.78	12397	
695.97	11641	
696.15	13515	
696.34	12967	
696.52	11368	
696.7	12029	
696.89	13136	
697.07	12570	
697.25	11762	
697.44	12917	
697.62	12964	
697.81	13177	
697.99	11458	
698.17	11827	
698.36	12407	
698.54	12961	
698.72	11637	
698.91	10841	
699.09	12591	
699.28	12408	
699.46	11419	
699.64	11190	
699.83	12367	
700.01	13091	
700.19	11746	
700.38	10645	
700.56	13143	
700.74	12477	
700.93	11019	
701.11	11622	
701.29	13028	
701.48	13805	
701.66	11294	
701.84	11409	
702.03	12702	
702.21	13408	
702.39	10957	
702.58	11448	
702.76	13041	
702.94	13011	
703.13	10958	
703.31	12708	
703.49	12461	
703.68	13229	
703.86	11015	
704.04	11802	
704.23	12832	
704.41	13008	
704.59	11167	
704.78	12015	
704.96	14110	
705.14	13023	
705.33	11089	
705.51	11506	
705.69	12440	
705.87	13235	
706.06	11764	
706.24	10798	
706.42	12800	
706.61	13070	
706.79	11575	
706.97	10808	
707.16	12379	
707.34	12682	
707.52	11533	
707.7	10948	
707.89	12389	
708.07	12218	
708.25	11609	
708.44	11774	
708.62	12327	
708.8	12983	
708.98	11733	
709.17	10992	
709.35	12484	
709.53	12425	
709.72	10605	
709.9	10920	
710.08	12606	
710.26	12679	
710.45	11749	
710.63	10781	
710.81	12226	
710.99	12233	
711.18	11215	
711.36	10813	
711.54	12060	
711.72	12570	
711.91	10716	
712.09	10258	
712.27	11946	
712.45	12749	
712.64	10519	
712.82	9786.6	
713	11280	
713.18	11406	
713.37	9769.5	
713.55	10581	
713.73	11853	
713.91	10641	
714.1	9616.6	
714.28	9058.8	
714.46	10972	
714.64	10157	
714.83	8215.1	
715.01	8629.5	
715.19	9794.8	
715.37	9194.7	
715.55	8056	
715.74	8253.3	
715.92	10178	
716.1	8699.1	
716.28	9045.2	
716.47	8085.4	
716.65	9063.6	
716.83	9117.6	
717.01	8037.6	
717.19	7998	
717.38	10618	
717.56	8869.1	
717.74	8206.9	
717.92	7530.4	
718.1	9844.6	
718.29	9351.7	
718.47	7535.8	
718.65	8078.6	
718.83	10259	
719.01	10226	
719.2	7826.7	
719.38	8794	
719.56	10164	
719.74	11226	
719.92	8402.1	
720.11	9145.5	
720.29	10071	
720.47	9357.2	
720.65	7833.5	
720.83	8346.8	
721.02	9223.4	
721.2	8903.9	
721.38	8137.3	
721.56	7520.1	
721.74	8483.4	
721.92	8506.6	
722.11	8357.1	
722.29	8076.5	
722.47	9500.5	
722.65	8813.1	
722.83	7410.9	
723.01	8024.6	
723.2	8825.4	
723.38	9136.7	
723.56	6936.5	
723.74	7804.8	
723.92	8475.2	
724.1	9415.2	
724.29	7236.2	
724.47	8208.9	
724.65	8559.8	
724.83	8427.4	
725.01	7152.2	
725.19	7780.2	
725.37	8376.2	
725.56	8430.1	
725.74	6973.3	
725.92	7271	
726.1	8443.8	
726.28	8596.7	
726.46	7464.2	
726.64	7190.4	
726.83	8581.7	
727.01	8688.8	
727.19	6909.2	
727.37	7565.9	
727.55	8647.9	
727.73	9039.7	
727.91	6884.6	
728.09	6695.5	
728.28	9030.2	
728.46	9278	
728.64	7560.4	
728.82	7575.4	
729	9946.3	
729.18	9424.1	
729.36	7088.7	
729.54	8768.7	
729.72	10222	
729.91	8982.4	
730.09	8609.7	
730.27	7765.9	
730.45	8888.2	
730.63	9395.4	
730.81	8112.7	
730.99	7474.4	
731.17	9806.4	
731.35	8711.4	
731.53	7894.2	
731.71	7578.2	
731.9	9529.9	
732.08	9675.3	
732.26	7702.4	
732.44	7469.6	
732.62	9652.8	
732.8	9321.7	
732.98	7937.2	
733.16	7265.5	
733.34	9258.9	
733.52	8125	
733.7	7567.9	
733.88	7634.1	
734.07	8876.6	
734.25	8842.4	
734.43	7085.3	
734.61	8223.3	
734.79	9905.3	
734.97	8703.9	
735.15	7139.9	
735.33	7335.8	
735.51	8903.9	
735.69	8679.3	
735.87	8133.8	
736.05	7418.4	
736.23	8698.4	
736.41	8426.7	
736.59	7303.7	
736.77	7439.6	
736.95	9038.4	
737.13	8574.2	
737.32	6969.2	
737.5	7242.3	
737.68	9367.4	
737.86	8353	
738.04	6775.4	
738.22	8156.4	
738.4	8249.9	
738.58	8341.4	
738.76	7118.7	
738.94	6480.5	
739.12	8287.4	
739.3	8135.2	
739.48	7636.9	
739.66	7439.6	
739.84	8437.6	
740.02	8318.2	
740.2	6452.5	
740.38	6690.7	
740.56	8635.6	
740.74	7704.5	
740.92	7258	
741.1	7058.7	
741.28	8124.3	
741.46	7967.3	
741.64	6762.4	
741.82	7042.3	
742	8114.7	
742.18	8032.1	
742.36	6767.9	
742.54	6416.3	
742.72	8546.2	
742.9	7484.6	
743.08	7020.4	
743.26	6119.3	
743.44	8521.6	
743.62	8342.7	
743.8	7081.9	
743.98	6300.9	
744.16	8121.6	
744.34	7909.9	
744.52	6935.8	
744.7	6908.5	
744.88	8189.8	
745.06	7797.3	
745.24	6851.1	
745.42	6897.6	
745.6	8220.5	
745.78	7977.5	
745.96	5868.8	
746.14	6177.4	
746.32	8724.3	
746.5	7969.3	
746.68	6480.5	
746.86	6025.1	
747.03	8359.8	
747.21	7047.1	
747.39	6491.4	
747.57	5967.1	
747.75	7706.5	
747.93	7856.7	
748.11	5965.1	
748.29	5846.3	
748.47	8957.8	
748.65	7376.8	
748.83	6485.2	
749.01	6268.8	
749.19	7649.8	
749.37	7050.5	
749.55	6164.4	
749.73	6208.8	
749.91	7497.6	
750.09	7241.6	
750.26	6238.1	
750.44	5735	
750.62	7445	
750.8	7376.1	
750.98	5636.7	
751.16	5788.2	
751.34	7484.6	
751.52	6991.8	
751.7	6365.1	
751.88	5595.1	
752.06	7740	
752.24	7537.9	
752.42	5464	
752.59	5767.8	
752.77	7269.6	
752.95	8181	
753.13	6217.6	
753.31	5773.2	
753.49	7019.8	
753.67	7332.4	
753.85	5941.2	
754.03	5584.1	
754.21	7372.7	
754.38	7592.5	
754.56	5552.7	
754.74	4827.7	
754.92	6623.8	
755.1	7076.4	
755.28	4633.9	
755.46	4656.4	
755.64	7420.5	
755.82	7329.7	
755.99	4440	
756.17	4429.1	
756.35	5147.2	
756.53	6189	
756.71	3349.8	
756.89	4045.4	
757.07	5921.4	
757.25	5202.5	
757.42	4526	
757.6	5215.5	
757.78	6150.1	
757.96	5378.6	
758.14	4452.3	
758.32	4182.6	
758.5	5036.6	
758.67	5646.2	
758.85	4249.5	
759.03	4394.9	
759.21	5845.6	
759.39	5369.1	
759.57	3993.5	
759.75	4813.4	
759.92	6378.7	
760.1	5857.2	
760.28	5168.4	
760.46	5338.4	
760.64	5638.1	
760.82	5611.4	
760.99	5188.2	
761.17	4554	
761.35	6377.4	
761.53	5588.9	
761.71	4664.6	
761.89	5231.2	
762.06	6469.5	
762.24	5973.2	
762.42	4790.2	
762.6	4609.3	
762.78	5975.3	
762.96	6535.8	
763.13	5163.6	
763.31	4854.4	
763.49	6545.3	
763.67	6065.4	
763.85	5547.3	
764.02	5874.9	
764.2	6883.9	
764.38	6215.6	
764.56	4782	
764.74	5414.8	
764.91	6954.9	
765.09	5998.5	
765.27	4517.8	
765.45	4401.8	
765.63	6956.3	
765.8	6728.9	
765.98	4156.7	
766.16	4377.2	
766.34	5662	
766.52	5455.1	
766.69	5016.2	
766.87	4164.2	
767.05	5953.4	
767.23	6483.2	
767.41	4432.5	
767.58	4571.7	
767.76	6280.4	
767.94	6316.6	
768.12	4479.6	
768.29	4971.1	
768.47	5925.5	
768.65	6447.7	
768.83	4116.4	
769	4961.5	
769.18	5539.8	
769.36	6009.4	
769.54	4924	
769.72	4080.9	
769.89	6290	
770.07	6217	
770.25	4314.4	
770.43	5274.9	
770.6	6836.8	
770.78	7015	
770.96	4472.1	
771.14	4827.7	
771.31	6050.4	
771.49	5564.3	
771.67	3744.4	
771.85	3915.7	
772.02	5045.5	
772.2	5514.5	
772.38	4496.7	
772.55	4018.8	
772.73	5738.4	
772.91	5539.1	
773.09	4375.1	
773.26	4394.3	
773.44	5693.4	
773.62	5401.9	
773.8	3885.7	
773.97	3749.1	
774.15	5679	
774.33	5412.1	
774.5	3830.4	
774.68	4106.9	
774.86	5781.4	
775.04	5436	
775.21	3836.5	
775.39	3852.2	
775.57	5614.8	
775.74	5813.5	
775.92	3678.8	
776.1	3605.1	
776.27	5493.3	
776.45	6476.4	
776.63	3754.6	
776.81	3488.4	
776.98	5277.6	
777.16	6044.9	
777.34	3867.2	
777.51	4128	
777.69	5203.2	
777.87	5024.3	
778.04	3968.3	
778.22	4336.2	
778.4	5035.3	
778.57	5560.9	
778.75	3287.7	
778.93	3554.6	
779.1	4928.1	
779.28	4751.3	
779.46	3323.9	
779.64	3713.7	
779.81	5649.7	
779.99	6332.3	
780.17	4240.7	
780.34	4401.8	
780.52	5247.6	
780.69	5304.2	
780.87	3876.1	
781.05	3554.6	
781.22	5220.3	
781.4	5254.4	
781.58	3680.9	
781.75	2993.4	
781.93	5270.1	
782.11	4749.9	
782.28	4338.3	
782.46	3624.2	
782.64	4644.1	
782.81	5320.6	
782.99	3714.3	
783.17	3611.3	
783.34	5229.1	
783.52	4695.3	
783.69	3769.6	
783.87	4355.3	
784.05	4751.3	
784.22	4724	
784.4	4358.8	
784.58	3883.6	
784.75	5449	
784.93	4806.6	
785.1	3582.6	
785.28	4061.8	
785.46	5226.4	
785.63	4695.3	
785.81	3599	
785.99	3457.7	
786.16	4848.2	
786.34	5009.3	
786.51	3426.3	
786.69	3799	
786.87	4478.2	
787.04	4896.7	
787.22	3330	
787.39	4034.5	
787.57	4686.4	
787.75	5493.3	
787.92	4253.6	
788.1	4115.7	
788.27	4638	
788.45	4386.7	
788.63	3928	
788.8	2921.8	
788.98	5103.5	
789.15	4349.9	
789.33	3054.9	
789.5	3521.1	
789.68	5312.4	
789.86	5453.1	
790.03	3832.4	
790.21	3444.7	
790.38	5412.1	
790.56	4741	
790.73	3349.1	
790.91	3316.3	
791.09	4662.5	
791.26	5184.8	
791.44	3558	
791.61	3072	
791.79	4630.5	
791.96	4683	
792.14	3198.2	
792.32	2837.1	
792.49	4612	
792.67	4775.2	
792.84	3280.2	
793.02	3041.2	
793.19	4963.6	
793.37	5518.6	
793.54	2825.5	
793.72	3092.4	
793.89	5612.1	
794.07	4631.1	
794.25	3488.4	
794.42	2869.2	
794.6	5429.8	
794.77	5077.6	
794.95	3760.1	
795.12	3325.2	
795.3	4629.1	
795.47	4975.9	
795.65	3669.3	
795.82	3483.6	
796	4423.6	
796.17	5867.4	
796.35	3414	
796.52	3958.7	
796.7	5013.4	
796.87	5143.1	
797.05	3384.6	
797.22	4044.1	
797.4	5096	
797.57	5835.3	
797.75	3512.9	
797.92	3356.6	
798.1	5330.9	
798.27	4465.9	
798.45	2923.1	
798.62	3095.2	
798.8	4861.9	
798.97	5222.3	
799.15	3708.9	
799.32	3426.9	
799.5	4247.5	
799.67	4795	
799.85	3784	
800.02	2826.2	
800.2	4554	
800.37	4799.1	
800.55	3896.6	
800.72	3310.9	
800.9	5126.1	
801.07	5389.6	
801.25	4255	
801.42	3586.7	
801.6	5207.3	
801.77	4937	
801.95	3394.2	
802.12	3208.5	
802.29	4957.4	
802.47	4902.8	
802.64	3603.1	
802.82	2798.9	
802.99	4494.6	
803.17	5192.3	
803.34	3506.8	
803.52	3108.1	
803.69	5739.1	
803.87	4332.8	
804.04	3490.4	
804.21	3485.6	
804.39	5403.9	
804.56	4625.7	
804.74	3005.7	
804.91	3586.7	
805.09	4496	
805.26	4562.2	
805.44	3093.8	
805.61	3240.6	
805.78	5118.6	
805.96	5057.8	
806.13	3517.7	
806.31	3792.2	
806.48	4194.9	
806.66	4562.2	
806.83	3565.5	
807	3463.1	
807.18	4569	
807.35	4784.1	
807.53	3437.9	
807.7	2896.5	
807.87	5443.5	
808.05	4558.1	
808.22	3730	
808.4	2809.1	
808.57	4463.9	
808.74	4227.7	
808.92	3207.8	
809.09	3938.2	
809.27	4498.7	
809.44	4882.4	
809.61	2856.2	
809.79	3115	
809.96	5470.8	
810.14	4988.9	
810.31	2792.7	
810.48	3349.1	
810.66	4577.2	
810.83	5137	
811.01	3193.5	
811.18	3491.8	
811.35	5127.4	
811.53	4115.7	
811.7	3760.1	
811.87	3538.9	
812.05	4591.5	
812.22	4490.5	
812.39	3126.6	
812.57	2970.2	
812.74	4530.1	
812.92	5750	
813.09	3331.4	
813.26	3603.1	
813.44	5584.8	
813.61	4458.4	
813.78	2796.8	
813.96	3672	
814.13	4575.8	
814.3	4305.5	
814.48	3960.8	
814.65	3363.4	
814.82	5362.9	
815	4321.2	
815.17	3383.9	
815.34	4022.9	
815.52	4472.8	
815.69	4431.1	
815.87	3361.4	
816.04	3308.2	
816.21	4511	
816.38	4087.7	
816.56	3280.2	
816.73	3083.6	
816.9	5576.6	
817.08	5029.8	
817.25	3081.5	
817.42	3797.6	
817.6	4160.1	
817.77	4493.2	
817.94	3444.7	
818.12	3031.7	
818.29	4323.9	
818.46	6299.6	
818.64	3246.7	
818.81	2973.7	
818.98	4285.7	
819.16	5902.2	
819.33	3569.6	
819.5	3395.5	
819.67	4856.4	
819.85	5334.3	
820.02	3349.1	
820.19	3549.8	
820.37	4677.6	
820.54	4468	
820.71	3458.3	
820.88	4199	
821.06	4677.6	
821.23	4339.6	
821.4	3457	
821.58	3411.2	
821.75	5037.3	
821.92	4638.6	
822.09	2833	
822.27	2884.9	
822.44	4547.2	
822.61	4436.6	
822.79	2857.6	
822.96	5147.9	
823.13	4805.9	
823.3	4308.2	
823.48	3294.5	
823.65	2949.8	
823.82	5084.4	
823.99	4195.6	
824.17	4003.1	
824.34	2963.4	
824.51	5777.3	
824.68	4527.4	
824.86	3142.9	
825.03	3402.4	
825.2	4491.9	
825.37	5313.1	
825.55	3102.7	
825.72	3314.3	
825.89	5718.6	
826.06	5383.4	
826.24	3216	
826.41	3321.1	
826.58	5384.1	
826.75	4709.6	
826.92	2716.3	
827.1	2933.4	
827.27	6984.3	
827.44	5682.4	
827.61	3143.6	
827.79	3721.2	
827.96	4349.9	
828.13	4483.7	
828.3	3284.3	
828.47	2817.3	
828.65	4787.5	
828.82	4706.9	
828.99	4095.9	
829.16	3659.7	
829.34	5074.9	
829.51	4923.3	
829.68	3321.8	
829.85	3417.4	
830.02	5312.4	
830.2	5022.3	
830.37	2708.8	
830.54	3947.1	
830.71	5658.5	
830.88	4541.7	
831.05	2653.5	
831.23	3093.8	
831.4	5497.4	
831.57	5936.4	
831.74	3182.5	
831.91	2790	
832.09	4829.8	
832.26	5020.3	
832.43	3203	
832.6	3579.8	
832.77	4803.2	
832.94	5341.1	
833.12	2642.6	
833.29	3168.9	
833.46	4863.2	
833.63	6126.2	
833.8	3526.6	
833.97	3237.2	
834.15	5115.1	
834.32	4833.9	
834.49	3396.2	
834.66	3391.4	
834.83	5177.3	
835	4319.8	
835.17	3116.3	
835.35	3128.6	
835.52	5004.6	
835.69	4844.8	
835.86	3235.8	
836.03	2695.8	
836.2	4983.4	
836.37	4679.6	
836.55	3214.6	
836.72	3055.6	
836.89	4670.1	
837.06	5085.1	
837.23	3229	
837.4	3541.6	
837.57	5681.7	
837.75	6129.6	
837.92	2923.1	
838.09	3127.2	
838.26	4681	
838.43	5175.2	
838.6	3394.2	
838.77	3052.8	
838.94	5858.6	
839.11	5682.4	
839.29	3251.5	
839.46	2606.4	
839.63	5004.6	
839.8	4789.5	
839.97	3121.8	
840.14	3168.9	
840.31	4930.1	
840.48	5046.9	
840.65	2666.5	
840.82	3048.1	
841	5038	
841.17	4861.9	
841.34	2908.1	
841.51	2994.8	
841.68	4907.6	
841.85	4758.1	
842.02	3013.2	
842.19	2541.5	
842.36	4852.3	
842.53	4841.4	
842.7	2912.9	
842.87	3463.8	
843.05	6059.3	
843.22	4754	
843.39	2735.4	
843.56	3015.3	
843.73	4674.1	
843.9	5098.8	
844.07	4529.4	
844.24	3745.1	
844.41	6838.9	
844.58	4422.9	
844.75	2828.2	
844.92	3057.6	
845.09	4988.9	
845.26	4919.9	
845.43	2889	
845.6	3056.3	
845.77	4994.3	
845.94	4799.8	
846.12	3207.1	
846.29	3315.7	
846.46	5169.1	
846.63	4961.5	
846.8	2899.2	
846.97	3388	
847.14	5365.7	
847.31	4904.2	
847.48	3220.1	
847.65	3557.3	
847.82	5126.7	
847.99	5113.8	
848.16	3801.7	
848.33	3489.1	
848.5	4664.6	
848.67	5356.8	
848.84	2898.6	
849.01	3021.4	
849.18	4608.6	
849.35	4336.2	
849.52	3506.8	
849.69	2833.7	
849.86	5154.1	
850.03	5259.9	
850.2	2888.3	
850.37	3439.9	
850.54	5184.8	
850.71	4704.2	
850.88	3446.7	
851.05	2813.2	
851.22	4885.1	
851.39	5451	
851.56	2710.8	
851.73	3249.4	
851.9	4457.1	
852.07	5145.2	
852.24	3155.9	
852.41	2859.6	
852.58	4960.9	
852.75	4496	
852.92	3181.2	
853.09	2824.8	
853.26	4641.4	
853.43	5347.9	
853.6	2917.7	
853.77	2506.7	
853.94	5419.6	
854.11	4394.9	
854.28	4122.6	
854.44	3080.1	
854.61	5702.2	
854.78	5199.1	
854.95	2808.4	
855.12	3556	
855.29	4148.5	
855.46	5550	
855.63	2845.3	
855.8	3872	
855.97	4647.5	
856.14	5239.4	
856.31	3969.6	
856.48	3070.6	
856.65	4689.2	
856.82	4421.6	
856.99	2788.7	
857.16	3123.2	
857.33	5909.1	
857.49	4711.7	
857.66	3097.2	
857.83	3248.8	
858	4734.2	
858.17	4866.7	
858.34	2680.1	
858.51	2876	
858.68	5452.4	
858.85	5504.3	
859.02	3204.4	
859.19	3456.3	
859.36	4476.9	
859.52	4466.6	
859.69	2848	
859.86	3299.3	
860.03	4484.4	
860.2	5449.6	
860.37	2653.5	
860.54	2880.8	
860.71	5126.7	
860.88	5434.6	
861.05	3173	
861.21	3556	
861.38	5436	
861.55	4351.9	
861.72	2644.6	
861.89	3205.8	
862.06	5166.3	
862.23	5547.3	
862.4	2844.6	
862.56	2994.1	
862.73	5090.6	
862.9	4816.1	
863.07	3343	
863.24	2605	
863.41	4380.6	
863.58	4448.9	
863.75	2899.9	
863.91	3272	
864.08	5313.8	
864.25	5133.6	
864.42	3525.2	
864.59	3921.9	
864.76	5629.9	
864.93	4458.4	
865.09	2752.5	
865.26	3020.1	
865.43	5300.1	
865.6	5644.9	
865.77	2513.5	
865.94	2859	
866.1	5307.7	
866.27	5106.3	
866.44	4130.1	
866.61	2730.6	
866.78	4728.8	
866.95	5027.1	
867.11	2762	
867.28	2557.2	
867.45	5303.6	
867.62	4468	
867.79	3276.1	
867.96	2864.4	
868.12	4382	
868.29	5118.6	
868.46	2922.5	
868.63	3752.6	
868.8	5268.7	
868.97	5069.4	
869.13	3023.5	
869.3	3006.4	
869.47	4978.6	
869.64	5180	
869.81	2835.8	
869.97	2899.9	
870.14	4906.9	
870.31	5426.4	
870.48	2808.4	
870.65	3570.3	
870.81	4718.5	
870.98	4760.8	
871.15	3218.7	
871.32	2937.5	
871.48	5008	
871.65	5478.3	
871.82	2797.5	
871.99	3080.8	
872.16	5841.5	
872.32	5347.2	
872.49	2953.9	
872.66	2953.2	
872.83	5158.8	
872.99	4602.5	
873.16	3284.3	
873.33	2826.2	
873.5	4854.4	
873.67	4849.6	
873.83	3039.2	
874	3727.3	
874.17	4981.3	
874.34	5752.7	
874.5	3635.8	
874.67	3446.7	
874.84	5416.9	
875.01	4341.7	
875.17	3910.9	
875.34	2863.1	
875.51	4926.7	
875.68	5739.1	
875.84	3439.9	
876.01	4054.3	
876.18	5067.4	
876.34	5027.1	
876.51	2916.3	
876.68	2824.1	
876.85	4656.4	
877.01	5311.1	
877.18	4030.4	
877.35	2841.2	
877.52	4930.1	
877.68	4393.6	
877.85	2825.5	
878.02	2816.6	
878.18	4700.1	
878.35	4560.8	
878.52	2359.9	
878.69	3127.9	
878.85	5154.1	
879.02	5100.1	
879.19	3904.1	
879.35	3035.1	
879.52	5094.7	
879.69	5175.2	
879.86	2548.4	
880.02	3186.6	
880.19	4797.7	
880.36	5685.2	
880.52	3218.7	
880.69	3371.6	
880.86	5136.3	
881.02	5206.6	
881.19	3150.5	
881.36	3052.8	
881.52	5132.9	
881.69	4526	
881.86	3036.5	
882.02	3051.5	
882.19	5277.6	
882.36	6077	
882.52	2938.8	
882.69	3934.8	
882.86	4920.6	
883.02	4892.6	
883.19	3432.4	
883.36	3232.4	
883.52	5162.9	
883.69	5788.9	
883.86	2877.4	
884.02	2675.3	
884.19	5128.1	
884.36	4848.9	
884.52	3233.7	
884.69	3077.4	
884.86	4616.8	
885.02	5492.7	
885.19	3184.6	
885.36	3254.2	
885.52	4795.7	
885.69	4943.1	
885.86	4056.3	
886.02	3618.8	
886.19	5118.6	
886.35	4696.7	
886.52	3081.5	
886.69	3919.1	
886.85	4476.2	
887.02	5332.2	
887.19	5332.2	
887.35	5332.2	
887.52	5332.2	
887.68	5332.2	
887.85	5332.2	
888.02	5332.2	
888.18	5332.2	
888.35	5332.2	
888.51	5332.2	
888.68	5332.2	
888.85	5332.2	
889.01	5332.2	
889.18	5332.2	
889.35	5332.2	
889.51	5332.2	
889.68	5332.2	
889.84	5332.2	
890.01	5332.2	
890.17	5332.2	
890.34	5332.2	
890.51	5332.2	
890.67	5332.2	
890.84	5332.2	
891	5332.2	
891.17	5332.2	
891.34	5332.2	
891.5	5332.2	
891.67	5332.2	
891.83	5332.2	
892	5332.2	
892.16	5332.2	
892.33	5332.2	
892.5	5332.2	
892.66	5332.2	
892.83	5332.2	
892.99	5332.2	
893.16	5332.2	
893.32	5332.2	
893.49	5332.2	
893.65	5332.2	
893.82	5332.2	
893.99	5332.2	
894.15	5332.2	
894.32	5332.2	
894.48	5332.2	
894.65	5332.2	
894.81	5332.2	
894.98	5332.2	
895.14	5332.2	
895.31	5332.2	
895.47	5332.2	
895.64	5332.2	
895.81	5332.2	
895.97	5332.2	
896.14	5332.2	
896.3	5332.2	
896.47	5332.2	
896.63	5332.2	
896.8	5332.2	
896.96	5332.2	
897.13	5332.2	
897.29	5332.2	
897.46	5332.2	
897.62	5332.2	
897.79	5332.2	
897.95	5332.2	
898.12	5332.2	
898.28	5332.2	
898.45	5332.2	
898.61	5332.2	
898.78	5332.2	
898.94	5332.2	
899.11	5332.2	
899.27	5332.2	
899.44	5332.2	
899.6	5332.2	
899.77	5332.2	
899.93	5332.2	
900.1	5332.2	
900.26	5332.2	
900.43	5332.2	
900.59	5332.2	
900.76	5332.2	
900.92	5332.2	
901.09	5332.2	
901.25	5332.2	
901.42	5332.2	
901.58	5332.2	
901.75	5332.2	
901.91	5332.2	
902.07	5332.2	
902.24	5332.2	
902.4	5332.2	
902.57	5332.2	
902.73	5332.2	
902.9	5332.2	
903.06	5332.2	
903.23	5332.2	
903.39	5332.2	
903.56	5332.2	
903.72	5332.2	
903.88	5332.2	
904.05	5332.2	
904.21	5332.2	
904.38	5332.2	
904.54	5332.2	
904.71	5332.2	
904.87	5332.2	
905.03	5332.2	
905.2	5332.2	
905.36	5332.2	
905.53	5332.2	
905.69	5332.2	
905.86	5332.2	
906.02	5332.2	
906.18	5332.2	
906.35	5332.2	
906.51	5332.2	
906.68	5332.2	
906.84	5332.2	
907.01	5332.2	
907.17	5332.2	
907.33	5332.2	
907.5	5332.2	
907.66	5332.2	
907.83	5332.2	
907.99	5332.2	
908.15	5332.2	
908.32	5332.2	
908.48	5332.2	
908.65	5332.2	
908.81	5332.2	
908.97	5332.2	
909.14	5332.2	
909.3	5332.2	
909.47	5332.2	
909.63	5332.2	
909.79	5332.2	
909.96	5332.2	
910.12	5332.2	
910.28	5332.2	
910.45	5332.2	
910.61	5332.2	
910.78	5332.2	
910.94	5332.2	
911.1	5332.2	
911.27	5332.2	
911.43	5332.2	
911.59	5332.2	
911.76	5332.2	
911.92	5332.2	
912.08	5332.2	
912.25	5332.2	
912.41	5332.2	
912.57	5332.2	
912.74	5332.2	
912.9	5332.2	
913.07	5332.2	
913.23	5332.2	
913.39	5332.2	
913.56	5332.2	
913.72	5332.2	
913.88	5332.2	
914.05	5332.2	
914.21	5332.2	
914.37	5332.2	
914.54	5332.2	
914.7	5332.2	
914.86	5332.2	
915.03	5332.2	
915.19	5332.2	
