Wavelength	Intensities	
nm	a.u.	
179.22	1659.7	
179.44	1649	
179.65	1670.5	
179.86	1627.5	
180.08	1631.5	
180.29	3723.9	
180.51	2898.6	
180.72	4817.5	
180.94	5415.5	
181.15	2624.8	
181.37	2631.6	
181.58	4638	
181.79	4818.9	
182.01	2715.6	
182.22	2841.2	
182.44	4889.9	
182.65	4203.8	
182.87	3424.9	
183.08	3075.4	
183.29	5087.8	
183.51	4240.7	
183.72	2846	
183.94	3880.9	
184.15	4608.6	
184.37	4540.3	
184.58	2541.5	
184.79	3312.2	
185.01	4328	
185.22	4883	
185.44	3439.9	
185.65	3026.2	
185.86	4632.5	
186.08	4243.4	
186.29	2522.4	
186.51	2719	
186.72	4362.9	
186.94	4933.6	
187.15	3078.1	
187.36	3044.6	
187.58	6100.2	
187.79	4687.1	
188.01	3146.4	
188.22	4676.9	
188.43	5347.2	
188.65	4807.3	
188.86	2661	
189.08	3110.9	
189.29	4373.1	
189.5	4462.5	
189.72	2880.1	
189.93	2920.4	
190.15	4934.9	
190.36	5651.7	
190.57	3153.9	
190.79	3008.5	
191	4970.4	
191.22	4967.7	
191.43	3231.7	
191.64	2708.1	
191.86	5152	
192.07	4899.4	
192.29	2806.4	
192.5	2876.7	
192.71	4952	
192.93	4448.9	
193.14	2881.5	
193.35	2997.5	
193.57	4403.8	
193.78	4943.1	
194	2381.1	
194.21	2852.1	
194.42	4235.2	
194.64	4598.4	
194.85	3091.8	
195.07	3525.9	
195.28	4564.2	
195.49	4140.3	
195.71	3656.3	
195.92	2745.6	
196.13	4776.5	
196.35	4773.1	
196.56	3899.3	
196.78	3079.5	
196.99	5655.1	
197.2	5341.8	
197.42	3450.1	
197.63	3120.4	
197.84	4244.8	
198.06	4696.7	
198.27	2878.1	
198.48	3638.6	
198.7	4371	
198.91	4607.2	
199.13	3126.6	
199.34	3103.4	
199.55	4971.1	
199.77	3979.2	
199.98	2774.3	
200.19	3149.1	
200.41	4556.7	
200.62	4285	
200.83	3203.7	
201.05	3441.3	
201.26	4489.8	
201.47	4420.9	
201.69	2799.6	
201.9	2745	
202.11	4577.2	
202.33	5197.7	
202.54	2942.9	
202.76	3259.7	
202.97	4627	
203.18	4720.6	
203.4	3195.5	
203.61	3196.9	
203.82	4641.4	
204.04	4313.7	
204.25	3135.4	
204.46	3059.7	
204.68	4629.8	
204.89	4748.6	
205.1	3078.1	
205.32	2661.7	
205.53	4848.2	
205.74	4924	
205.96	2437.8	
206.17	3122.5	
206.38	4769.7	
206.6	4906.9	
206.81	3490.4	
207.02	2952.5	
207.24	4758.1	
207.45	5036	
207.66	2941.6	
207.88	2675.3	
208.09	4696	
208.3	4597	
208.52	2773.6	
208.73	3018	
208.94	4563.6	
209.15	5041.4	
209.37	2988	
209.58	3130.7	
209.79	4945.2	
210.01	4442	
210.22	2514.2	
210.43	2625.5	
210.65	4547.9	
210.86	4833.2	
211.07	2936.1	
211.29	2769.5	
211.5	4775.9	
211.71	4536.3	
211.93	2762.7	
212.14	2807.8	
212.35	4570.4	
212.56	4656.4	
212.78	3115	
212.99	2598.2	
213.2	5184.8	
213.42	4458.4	
213.63	2867.8	
213.84	3020.1	
214.06	4203.1	
214.27	4261.1	
214.48	2951.1	
214.69	3150.5	
214.91	5042.8	
215.12	5091.9	
215.33	3148.4	
215.55	3366.9	
215.76	5421.7	
215.97	4775.2	
216.18	3034.4	
216.4	3063.1	
216.61	4280.9	
216.82	4863.2	
217.04	2838.5	
217.25	2865.1	
217.46	5074.9	
217.67	4810	
217.89	2533.3	
218.1	2654.2	
218.31	4629.1	
218.53	4734.9	
218.74	2953.9	
218.95	2879.4	
219.16	4556.7	
219.38	5200.5	
219.59	2818.7	
219.8	3315	
220.01	5565	
220.23	4604.5	
220.44	3530	
220.65	2762	
220.87	4672.1	
221.08	5012.7	
221.29	2654.9	
221.5	3276.8	
221.72	5833.3	
221.93	4361.5	
222.14	3100.6	
222.35	3614.7	
222.57	4594.3	
222.78	4854.4	
222.99	3033.7	
223.2	3182.5	
223.42	4797.7	
223.63	4849.6	
223.84	2385.2	
224.05	2436.4	
224.27	5488.6	
224.48	5190.9	
224.69	3625.6	
224.9	3124.5	
225.12	4724.7	
225.33	4564.9	
225.54	2547.7	
225.75	2831.7	
225.97	4329.4	
226.18	4530.8	
226.39	2932	
226.6	2846.7	
226.82	4431.1	
227.03	4302.8	
227.24	3119.7	
227.45	2677.4	
227.67	4904.2	
227.88	5120.6	
228.09	3474.7	
228.3	3377.8	
228.52	4800.4	
228.73	4506.2	
228.94	2902	
229.15	2604.3	
229.36	4531.5	
229.58	4547.2	
229.79	2981.8	
230	3355.3	
230.21	5330.9	
230.43	4612	
230.64	3125.2	
230.85	3124.5	
231.06	4934.2	
231.28	4807.9	
231.49	2632.3	
231.7	3055.6	
231.91	4868.7	
232.12	4570.4	
232.34	2760	
232.55	3018	
232.76	5000.5	
232.97	4769	
233.18	2779.8	
233.4	3080.8	
233.61	4757.4	
233.82	4468.7	
234.03	2907.4	
234.25	2841.2	
234.46	5976	
234.67	4550.6	
234.88	3196.9	
235.09	2811.2	
235.31	4693.9	
235.52	4440	
235.73	3070.6	
235.94	2657.6	
236.15	4375.1	
236.37	5317.2	
236.58	2779.8	
236.79	2989.4	
237	4715.8	
237.21	4245.4	
237.43	3206.4	
237.64	2569.5	
237.85	7283.3	
238.06	4268	
238.27	3188.7	
238.48	2738.1	
238.7	4838	
238.91	4470.7	
239.12	2960	
239.33	3099.9	
239.54	4321.2	
239.76	4476.2	
239.97	2982.5	
240.18	2994.1	
240.39	5344.5	
240.6	4727.4	
240.82	3155.9	
241.03	2575.7	
241.24	4575.2	
241.45	5070.8	
241.66	2754.5	
241.87	3181.9	
242.09	5136.3	
242.3	5302.9	
242.51	3250.8	
242.72	2981.2	
242.93	4872.8	
243.14	4569.7	
243.36	3401	
243.57	3648.8	
243.78	5138.4	
243.99	4816.8	
244.2	2979.1	
244.41	2740.2	
244.63	4254.3	
244.84	4737	
245.05	3140.2	
245.26	2962	
245.47	4840	
245.68	4913.1	
245.9	3771	
246.11	3170.9	
246.32	4416.8	
246.53	4733.5	
246.74	4601.8	
246.95	2587.3	
247.16	4321.2	
247.38	4593.6	
247.59	2623.4	
247.8	3046	
248.01	4258.4	
248.22	4547.9	
248.43	2738.1	
248.64	3023.5	
248.86	4189.5	
249.07	4460.5	
249.28	2770.9	
249.49	3082.2	
249.7	4954.7	
249.91	4965.6	
250.12	2628.9	
250.34	2648.7	
250.55	4686.4	
250.76	4595	
250.97	3077.4	
251.18	3159.3	
251.39	4991.6	
251.6	4713.1	
251.81	3173.7	
252.03	3147.7	
252.24	4405.9	
252.45	4889.2	
252.66	2636.4	
252.87	3241.3	
253.08	4597	
253.29	5735	
253.5	2663	
253.72	3543	
253.93	4556.7	
254.14	5218.2	
254.35	2876	
254.56	2954.5	
254.77	4687.1	
254.98	4296.6	
255.19	2929.3	
255.41	3523.9	
255.62	4770.4	
255.83	4986.1	
256.04	3173	
256.25	3064.4	
256.46	5405.3	
256.67	4412.7	
256.88	3051.5	
257.09	3349.1	
257.31	4271.4	
257.52	4367	
257.73	3777.8	
257.94	2889	
258.15	4552	
258.36	4536.3	
258.57	3497.9	
258.78	2390	
258.99	4915.8	
259.2	4435.9	
259.41	2843.3	
259.63	3005.7	
259.84	5112.4	
260.05	5328.1	
260.26	3625.6	
260.47	2837.8	
260.68	4946.5	
260.89	4472.1	
261.1	3325.2	
261.31	2818	
261.52	5034.6	
261.73	5185.5	
261.95	3605.8	
262.16	3173	
262.37	4982.7	
262.58	5080.3	
262.79	3535.5	
263	2904	
263.21	4595	
263.42	4169	
263.63	3116.3	
263.84	2879.4	
264.05	4902.8	
264.26	5143.8	
264.47	3477.5	
264.69	3096.5	
264.9	5142.4	
265.11	4698.7	
265.32	2810.5	
265.53	2833.7	
265.74	4689.8	
265.95	4149.2	
266.16	3058.3	
266.37	3294.5	
266.58	4691.2	
266.79	4387.4	
267	2870.6	
267.21	2712.2	
267.42	4274.1	
267.63	4575.2	
267.84	2994.1	
268.06	2639.1	
268.27	4889.9	
268.48	5000.5	
268.69	2946.3	
268.9	3366.9	
269.11	5001.1	
269.32	4146.5	
269.53	2985.9	
269.74	2796.8	
269.95	4741.7	
270.16	4147.1	
270.37	3042.6	
270.58	3386	
270.79	4474.1	
271	4973.2	
271.21	3155.2	
271.42	3003.7	
271.63	4711.7	
271.84	4251.6	
272.05	2484.9	
272.26	2733.4	
272.47	4558.8	
272.68	4659.8	
272.89	2906.1	
273.11	3252.9	
273.32	4403.8	
273.53	5166.3	
273.74	3186	
273.95	3082.2	
274.16	4874.2	
274.37	4524	
274.58	3235.8	
274.79	2676.7	
275	4749.9	
275.21	4995	
275.42	3779.2	
275.63	3289	
275.84	4799.8	
276.05	5764.3	
276.26	3127.2	
276.47	3037.8	
276.68	4500.1	
276.89	5247.6	
277.1	3297.2	
277.31	2723.8	
277.52	4749.9	
277.73	4954	
277.94	2641.9	
278.15	2863.1	
278.36	4752	
278.57	4362.2	
278.78	2883.5	
278.99	3218.7	
279.2	4406.5	
279.41	4308.2	
279.62	3704.8	
279.83	2685.6	
280.04	5394.3	
280.25	4298	
280.46	3685.7	
280.67	3014.6	
280.88	4343.7	
281.09	4977.2	
281.3	3143.6	
281.51	3803.1	
281.72	4353.3	
281.93	4822.3	
282.14	2876	
282.35	3074	
282.56	4956.8	
282.77	4874.8	
282.98	2936.8	
283.19	3464.5	
283.4	5857.9	
283.61	4559.5	
283.82	2752.5	
284.03	3616	
284.24	4699.4	
284.45	4953.4	
284.66	3662.5	
284.87	3477.5	
285.08	4979.3	
285.29	5039.4	
285.5	2639.1	
285.71	2966.1	
285.92	4953.4	
286.12	5420.3	
286.33	3543.7	
286.54	2923.8	
286.75	4883	
286.96	4457.7	
287.17	2719.7	
287.38	3489.1	
287.59	4403.1	
287.8	4364.9	
288.01	2930	
288.22	3292.5	
288.43	4770.4	
288.64	4178.5	
288.85	3459	
289.06	3279.5	
289.27	4866.7	
289.48	5120.6	
289.69	3605.8	
289.9	3349.8	
290.11	5105.6	
290.32	4367.6	
290.53	3441.3	
290.74	3254.9	
290.94	4894	
291.15	4904.2	
291.36	2870.6	
291.57	3276.8	
291.78	4480.3	
291.99	4160.8	
292.2	2756.6	
292.41	3201.7	
292.62	4971.8	
292.83	4802.5	
293.04	3849.5	
293.25	2810.5	
293.46	4498.7	
293.67	4967.7	
293.88	2803	
294.09	2724.5	
294.29	4341.7	
294.5	4666	
294.71	2975.7	
294.92	2892.4	
295.13	4476.2	
295.34	5336.3	
295.55	2632.3	
295.76	2560.6	
295.97	4886.5	
296.18	5324	
296.39	2750.4	
296.6	2837.1	
296.81	4625	
297.01	4937	
297.22	2915.6	
297.43	2837.1	
297.64	4467.3	
297.85	4307.6	
298.06	2447.3	
298.27	2609.8	
298.48	4574.5	
298.69	4380.6	
298.9	3082.9	
299.11	2824.8	
299.31	4251.6	
299.52	4268.6	
299.73	3269.9	
299.94	3156.6	
300.15	4635.9	
300.36	4361.5	
300.57	3165.5	
300.78	3188	
300.99	4438.6	
301.2	4638.6	
301.4	2863.1	
301.61	3008.5	
301.82	4803.9	
302.03	4919.9	
302.24	3375.7	
302.45	2760.7	
302.66	4752	
302.87	5042.1	
303.08	2847.4	
303.29	3722.5	
303.49	4457.1	
303.7	4496.7	
303.91	2611.8	
304.12	3588.7	
304.33	4196.3	
304.54	4697.4	
304.75	2816.6	
304.96	2745	
305.16	4828.4	
305.37	5240.1	
305.58	2508.8	
305.79	2633.7	
306	4761.5	
306.21	4105.5	
306.42	2838.5	
306.63	4102.1	
306.83	4485.1	
307.04	4836.6	
307.25	3019.4	
307.46	3094.5	
307.67	4069.3	
307.88	4828.4	
308.09	2856.9	
308.29	2908.8	
308.5	4664.6	
308.71	4954	
308.92	2977.1	
309.13	2799.6	
309.34	4599.1	
309.55	4538.3	
309.75	3478.8	
309.96	3177.1	
310.17	4881	
310.38	4321.2	
310.59	3290.4	
310.8	2686.9	
311.01	4928.1	
311.21	4526.7	
311.42	2781.8	
311.63	2844.6	
311.84	4456.4	
312.05	4631.8	
312.26	3156.6	
312.46	3369.6	
312.67	4394.3	
312.88	4232.5	
313.09	2744.3	
313.3	2749.7	
313.51	5119.9	
313.71	5324	
313.92	2764.1	
314.13	2887	
314.34	4714.4	
314.55	4576.5	
314.76	3398.9	
314.96	3008.5	
315.17	4764.3	
315.38	4741.7	
315.59	2838.5	
315.8	2693.8	
316.01	5114.5	
316.21	5215.5	
316.42	2712.2	
316.63	3076	
316.84	4485.7	
317.05	5041.4	
317.26	3217.4	
317.46	2972.3	
317.67	4549.9	
317.88	4782.7	
318.09	3457.7	
318.3	2605	
318.5	4442.7	
318.71	4734.9	
318.92	4175.8	
319.13	3217.4	
319.34	4919.2	
319.54	5042.8	
319.75	2603.7	
319.96	2538.1	
320.17	4787.5	
320.38	4957.4	
320.58	2613.9	
320.79	3037.1	
321	5004.6	
321.21	5035.3	
321.42	3044	
321.62	2562	
321.83	4352.6	
322.04	4577.2	
322.25	2937.5	
322.46	2793.4	
322.66	4640	
322.87	4869.4	
323.08	3291.1	
323.29	2730.6	
323.5	5279	
323.7	4268.6	
323.91	3577.1	
324.12	3313.6	
324.33	4657.8	
324.53	4789.5	
324.74	3193.5	
324.95	3302.7	
325.16	4200.4	
325.37	4468	
325.57	2785.2	
325.78	2799.6	
325.99	4723.3	
326.2	4233.2	
326.4	3807.2	
326.61	2572.9	
326.82	4492.6	
327.03	4587.4	
327.24	3739.6	
327.44	3531.4	
327.65	4795	
327.86	4029	
328.07	3195.5	
328.27	2714.9	
328.48	5073.5	
328.69	4301.4	
328.9	3812.6	
329.1	2910.8	
329.31	4594.3	
329.52	5151.3	
329.73	2781.1	
329.93	3008.5	
330.14	4663.2	
330.35	4679.6	
330.56	4266.6	
330.76	3266.5	
330.97	4483	
331.18	4629.1	
331.39	3048.1	
331.59	2549	
331.8	4977.9	
332.01	5025.7	
332.22	2882.9	
332.42	3190.7	
332.63	4716.5	
332.84	4296.6	
333.05	3072.6	
333.25	2781.8	
333.46	4434.5	
333.67	4601.8	
333.88	2852.1	
334.08	3117	
334.29	5788.9	
334.5	4939.7	
334.7	2702	
334.91	3775.1	
335.12	4237.2	
335.33	4821.6	
335.53	3093.1	
335.74	4134.8	
335.95	4521.2	
336.16	4278.9	
336.36	3015.3	
336.57	3421.5	
336.78	4242	
336.98	4949.9	
337.19	3616	
337.4	2965.5	
337.61	5373.2	
337.81	4269.3	
338.02	2817.3	
338.23	3521.8	
338.43	5039.4	
338.64	4361.5	
338.85	2801.6	
339.05	3566.9	
339.26	5234.6	
339.47	4242	
339.68	2817.3	
339.88	3880.2	
340.09	4818.2	
340.3	4900.8	
340.5	3166.8	
340.71	2536.8	
340.92	4263.2	
341.13	5068.7	
341.33	2720.4	
341.54	3212.6	
341.75	4788.2	
341.95	4446.8	
342.16	3057.6	
342.37	3297.9	
342.57	4229.7	
342.78	4489.1	
342.99	3355.3	
343.19	2558.6	
343.4	4862.6	
343.61	4698	
343.81	2987.3	
344.02	2721.8	
344.23	4845.5	
344.43	5134.9	
344.64	3319.8	
344.85	3278.1	
345.06	4784.1	
345.26	4962.9	
345.47	3235.8	
345.68	3633.8	
345.88	4193.6	
346.09	4885.8	
346.3	3170.9	
346.5	2485.6	
346.71	4502.8	
346.92	4375.1	
347.12	2655.5	
347.33	3124.5	
347.54	4935.6	
347.74	5182	
347.95	3075.4	
348.16	2482.8	
348.36	4451.6	
348.57	4273.4	
348.78	3224.2	
348.98	3308.2	
349.19	4536.9	
349.39	4175.8	
349.6	2640.5	
349.81	2819.4	
350.01	4730.8	
350.22	4396.3	
350.43	3083.6	
350.63	3563.5	
350.84	4561.5	
351.05	4369	
351.25	2746.3	
351.46	2566.1	
351.67	4953.4	
351.87	4291.9	
352.08	2997.5	
352.29	3333.4	
352.49	4892.6	
352.7	4636.6	
352.9	2723.8	
353.11	3305.4	
353.32	5279.7	
353.52	4474.1	
353.73	2719	
353.94	3377.1	
354.14	4747.2	
354.35	4608.6	
354.55	2761.3	
354.76	3023.5	
354.97	4787.5	
355.17	4547.2	
355.38	2669.2	
355.59	3523.9	
355.79	4362.2	
356	4513.7	
356.2	3060.3	
356.41	2698.5	
356.62	4206.5	
356.82	4455.7	
357.03	3318.4	
357.24	2936.8	
357.44	4357.4	
357.65	4445.5	
357.85	3811.3	
358.06	3086.3	
358.27	4154.6	
358.47	4285	
358.68	2650.8	
358.88	3196.9	
359.09	4696.7	
359.3	4917.9	
359.5	3681.6	
359.71	3274.7	
359.91	5135.6	
360.12	4734.9	
360.33	3277.4	
360.53	3536.2	
360.74	4328	
360.94	4402.5	
361.15	3378.5	
361.36	2865.1	
361.56	4941.1	
361.77	4559.5	
361.97	3665.2	
362.18	2946.3	
362.38	4906.3	
362.59	4245.4	
362.8	2799.6	
363	2705.4	
363.21	4074.8	
363.41	4597.7	
363.62	3186.6	
363.83	3776.5	
364.03	4755.4	
364.24	5214.1	
364.44	3945.1	
364.65	3857.7	
364.85	4491.2	
365.06	4280.3	
365.27	2918.4	
365.47	2991.4	
365.68	5188.2	
365.88	4474.1	
366.09	3155.9	
366.29	2985.3	
366.5	4605.9	
366.71	4919.2	
366.91	3731.4	
367.12	3279.5	
367.32	5309.7	
367.53	4844.1	
367.73	3301.3	
367.94	3956.7	
368.14	4900.8	
368.35	5297.4	
368.56	3235.1	
368.76	2856.9	
368.97	4956.1	
369.17	5868.1	
369.38	2882.9	
369.58	3086.3	
369.79	4172.4	
369.99	5115.8	
370.2	3730	
370.4	3160.7	
370.61	4580.6	
370.82	5513.8	
371.02	3133.4	
371.23	2611.2	
371.43	4203.1	
371.64	5143.1	
371.84	3125.9	
372.05	3888.4	
372.25	5919.3	
372.46	4828.4	
372.66	3164.1	
372.87	3138.9	
373.07	4861.9	
373.28	6014.2	
373.48	3816.7	
373.69	3588.7	
373.9	4590.9	
374.1	4579.9	
374.31	3780.6	
374.51	3386.7	
374.72	5052.3	
374.92	4355.3	
375.13	3781.9	
375.33	3282.2	
375.54	4786.8	
375.74	4479.6	
375.95	3385.3	
376.15	4162.8	
376.36	4853.7	
376.56	4759.5	
376.77	3378.5	
376.97	3691.8	
377.18	5609.4	
377.38	4915.8	
377.59	3857	
377.79	3057.6	
378	4730.8	
378.2	4954.7	
378.41	3054.2	
378.61	3056.9	
378.82	5167	
379.02	4493.9	
379.23	3276.8	
379.43	3887.7	
379.64	5248.9	
379.84	4844.8	
380.05	3130	
380.25	3008.5	
380.46	4955.4	
380.66	4659.1	
380.87	4018.1	
381.07	4205.2	
381.28	5341.8	
381.48	4898.1	
381.69	3112.9	
381.89	3148.4	
382.1	4260.5	
382.3	4970.4	
382.51	3913	
382.71	4440	
382.91	4901.5	
383.12	5195.7	
383.32	3403	
383.53	3545	
383.73	4883.7	
383.94	4700.1	
384.14	3536.2	
384.35	2879.4	
384.55	4607.2	
384.76	4883	
384.96	3408.5	
385.17	3538.2	
385.37	4975.9	
385.58	4428.4	
385.78	3604.4	
385.98	2845.3	
386.19	4609.3	
386.39	4919.9	
386.6	3236.5	
386.8	3424.9	
387.01	4912.4	
387.21	5031.9	
387.42	3637.9	
387.62	4052.9	
387.83	4510.3	
388.03	4781.3	
388.23	3455.6	
388.44	3964.9	
388.64	4257.7	
388.85	4280.3	
389.05	3603.1	
389.26	4010.6	
389.46	5808	
389.67	5331.5	
389.87	3669.3	
390.07	3716.4	
390.28	4634.6	
390.48	4411.3	
390.69	3169.6	
390.89	3366.9	
391.1	4614.8	
391.3	5186.8	
391.5	4130.8	
391.71	4579.3	
391.91	5068.7	
392.12	5610.8	
392.32	4129.4	
392.53	3676.8	
392.73	4679.6	
392.93	4737.6	
393.14	3452.9	
393.34	4189.5	
393.55	5008.6	
393.75	4668.7	
393.95	3507.5	
394.16	3384.6	
394.36	4585.4	
394.57	5020.9	
394.77	3071.3	
394.98	3353.9	
395.18	4547.9	
395.38	4548.5	
395.59	3923.9	
395.79	3268.6	
396	4640	
396.2	5021.6	
396.4	3812.6	
396.61	3732.1	
396.81	5099.4	
397.02	4607.2	
397.22	3998.3	
397.42	3992.2	
397.63	5135.6	
397.83	4566.3	
398.04	3278.1	
398.24	3608.5	
398.44	4907.6	
398.65	4217.5	
398.85	3145.7	
399.05	3173	
399.26	4573.8	
399.46	5745.9	
399.67	3538.9	
399.87	3285.6	
400.07	4795	
400.28	5071.5	
400.48	3324.5	
400.69	4094.6	
400.89	5207.3	
401.09	5554.1	
401.3	3236.5	
401.5	4000.4	
401.7	5697.4	
401.91	5831.9	
402.11	3581.9	
402.32	3687.7	
402.52	5292.6	
402.72	5182	
402.93	3910.3	
403.13	3093.8	
403.33	5794.4	
403.54	4852.3	
403.74	3612.6	
403.94	4225.6	
404.15	4948.6	
404.35	5719.3	
404.56	3465.2	
404.76	4678.9	
404.96	5171.1	
405.17	5055.8	
405.37	4087.7	
405.57	3833.8	
405.78	5206.6	
405.98	4830.5	
406.18	3416	
406.39	4003.8	
406.59	5258.5	
406.79	4882.4	
407	3310.2	
407.2	3466.5	
407.4	5512.4	
407.61	5396.4	
407.81	3460.4	
408.01	4603.2	
408.22	4414.1	
408.42	5799.2	
408.62	4177.2	
408.83	3801	
409.03	4975.9	
409.23	4923.3	
409.44	3900.7	
409.64	4025.6	
409.84	5692.7	
410.05	5547.9	
410.25	4082.3	
410.45	3835.8	
410.66	5279.7	
410.86	6929	
411.06	4253.6	
411.27	4076.1	
411.47	6742.6	
411.67	5376.6	
411.88	4285	
412.08	4410.6	
412.28	5793	
412.49	6133.7	
412.69	4027	
412.89	4100	
413.09	6091.3	
413.3	5979.4	
413.5	4216.8	
413.7	3918.4	
413.91	5539.1	
414.11	6065.4	
414.31	4095.3	
414.52	4367.6	
414.72	5812.8	
414.92	5791	
415.12	4148.5	
415.33	4473.4	
415.53	6083.8	
415.73	6126.2	
415.94	4637.3	
416.14	4291.9	
416.34	5393	
416.55	5242.8	
416.75	5199.1	
416.95	4773.1	
417.15	6209.4	
417.36	6524.1	
417.56	5305.6	
417.76	4643.4	
417.97	6412.2	
418.17	6129.6	
418.37	4459.8	
418.57	4413.4	
418.78	6059.3	
418.98	5773.9	
419.18	4981.3	
419.38	5012.7	
419.59	5730.9	
419.79	5493.3	
419.99	4364.2	
420.2	4586.1	
420.4	6111.1	
420.6	6176	
420.8	4202.4	
421.01	4152.6	
421.21	6055.8	
421.41	6060.6	
421.61	4584	
421.82	4325.3	
422.02	5746.6	
422.22	6343.2	
422.42	4883	
422.63	4689.2	
422.83	5780.1	
423.03	6540.5	
423.23	4657.8	
423.44	3948.5	
423.64	5793	
423.84	5636	
424.04	4293.2	
424.25	3975.8	
424.45	6390.3	
424.65	6363	
424.85	3939.6	
425.06	4300.7	
425.26	6493.4	
425.46	5738.4	
425.66	4627	
425.87	4431.1	
426.07	6254.5	
426.27	6031.3	
426.47	4574.5	
426.67	4085	
426.88	6509.1	
427.08	6148	
427.28	4701.5	
427.48	4047.5	
427.69	5364.3	
427.89	5796.4	
428.09	4594.3	
428.29	4028.4	
428.5	6168.5	
428.7	5917.3	
428.9	4016.1	
429.1	4373.8	
429.3	5913.2	
429.51	6136.4	
429.71	4246.1	
429.91	4817.5	
430.11	6195.8	
430.31	6270.2	
430.52	4442	
430.72	4611.3	
430.92	6492.7	
431.12	6160.3	
431.32	4257	
431.53	4537.6	
431.73	5444.2	
431.93	6593.8	
432.13	4205.8	
432.33	4063.2	
432.54	5797.8	
432.74	5927.5	
432.94	4057	
433.14	4772.4	
433.34	6262	
433.55	5913.2	
433.75	4688.5	
433.95	5894.1	
434.15	6062.7	
434.35	5794.4	
434.56	4241.3	
434.76	3878.2	
434.96	6019.7	
435.16	6120.7	
435.36	4190.8	
435.56	4885.1	
435.77	5795.8	
435.97	5937.1	
436.17	5349.3	
436.37	4863.2	
436.57	5780.1	
436.78	5736.4	
436.98	6053.8	
437.18	5276.9	
437.38	6253.8	
437.58	5825.8	
437.78	5409.4	
437.99	4456.4	
438.19	6275.7	
438.39	6804	
438.59	4508.9	
438.79	4064.5	
438.99	6735.8	
439.2	5806.7	
439.4	4084.3	
439.6	4083	
439.8	6030.6	
440	6844.3	
440.2	4806.6	
440.4	4840	
440.61	6464.1	
440.81	6725.5	
441.01	4363.5	
441.21	4972.5	
441.41	6804.7	
441.61	6350.1	
441.81	5173.2	
442.02	5854.5	
442.22	7102.4	
442.42	6503.7	
442.62	4419.5	
442.82	4524.6	
443.02	6882.5	
443.22	6195.8	
443.43	4855.1	
443.63	4423.6	
443.83	6023.1	
444.03	6000.5	
444.23	5270.8	
444.43	5009.3	
444.63	6313.9	
444.83	7046.4	
445.04	4574.5	
445.24	5418.9	
445.44	6652.5	
445.64	6581.5	
445.84	5121.3	
446.04	5077.6	
446.24	6070.2	
446.44	6804	
446.65	4488.5	
446.85	4784.1	
447.05	6281.8	
447.25	6677.7	
447.45	4855.7	
447.65	4422.2	
447.85	6350.8	
448.05	6026.5	
448.25	5112.4	
448.46	4926	
448.66	6368.5	
448.86	6083.8	
449.06	4384	
449.26	5093.3	
449.46	6580.1	
449.66	5963	
449.86	4810	
450.06	4731.5	
450.26	6077.7	
450.47	6493.4	
450.67	4985.4	
450.87	5189.6	
451.07	6722.1	
451.27	6375.3	
451.47	4552	
451.67	5114.5	
451.87	6255.9	
452.07	6920.1	
452.27	4765.6	
452.47	4717.2	
452.67	6386.2	
452.88	6683.2	
453.08	4328	
453.28	5572.5	
453.48	7300.3	
453.68	6290.7	
453.88	4625.7	
454.08	4736.3	
454.28	6709.1	
454.48	6395.8	
454.68	5168.4	
454.88	5457.8	
455.08	6864.8	
455.28	6503	
455.48	4573.8	
455.68	4999.8	
455.89	7096.9	
456.09	6804	
456.29	4897.4	
456.49	4917.9	
456.69	6989.7	
456.89	6392.4	
457.09	5253.7	
457.29	5506.3	
457.49	6750.8	
457.69	6800.6	
457.89	5188.9	
458.09	4743.1	
458.29	6651.1	
458.49	7124.9	
458.69	5483.1	
458.89	5030.5	
459.09	7260.7	
459.29	7375.4	
459.49	5166.3	
459.69	5702.9	
459.9	6991.1	
460.1	6614.3	
460.3	5055.8	
460.5	4890.5	
460.7	7054.6	
460.9	6610.8	
461.1	4681.7	
461.3	5493.3	
461.5	7461.4	
461.7	7129	
461.9	5080.3	
462.1	5345.9	
462.3	6909.8	
462.5	7254.6	
462.7	5119.9	
462.9	5233.9	
463.1	7946.1	
463.3	7685.3	
463.5	5375.2	
463.7	5990.3	
463.9	7101	
464.1	7251.2	
464.3	5474.9	
464.5	5593.7	
464.7	7516.7	
464.9	7263.5	
465.1	6540.5	
465.3	5896.8	
465.5	7663.5	
465.7	7786.4	
465.9	6075	
466.1	5963	
466.3	7587	
466.5	7551.5	
466.7	6546	
466.9	5863.3	
467.1	7593.9	
467.3	8162.5	
467.5	6565.1	
467.7	5787.6	
467.9	8351.6	
468.1	8916.2	
468.3	6267.5	
468.5	6611.5	
468.7	7520.1	
468.9	7445	
469.1	6047.7	
469.3	6512.5	
469.5	8789.9	
469.7	7288.7	
469.9	6394.4	
470.1	5902.2	
470.3	7636.9	
470.5	7567.2	
470.7	6713.9	
470.9	5942.5	
471.1	7501.7	
471.3	7667.6	
471.5	5799.8	
471.69	7012.9	
471.89	7464.2	
472.09	7012.9	
472.29	6363.7	
472.49	6568.5	
472.69	7195.9	
472.89	7722.2	
473.09	5795.8	
473.29	5831.9	
473.49	7320.8	
473.69	7232.1	
473.89	6399.2	
474.09	5917.3	
474.29	8160.5	
474.49	7957.7	
474.69	6473.6	
474.89	6047	
475.09	7360.4	
475.29	7378.1	
475.49	5646.2	
475.69	5826.5	
475.88	8456.1	
476.08	7671.7	
476.28	5628.5	
476.48	5768.4	
476.68	7960.5	
476.88	7792.5	
477.08	5808	
477.28	6013.5	
477.48	7446.4	
477.68	7748.8	
477.88	5700.9	
478.08	5840.8	
478.28	8009.6	
478.48	7448.5	
478.67	5951.4	
478.87	5511.8	
479.07	7971.4	
479.27	7563.8	
479.47	6032.6	
479.67	6089.3	
479.87	7931.1	
480.07	8102.4	
480.27	5631.2	
480.47	6578.1	
480.67	7546.8	
480.87	8033.5	
481.06	5712.5	
481.26	6387.6	
481.46	7641.7	
481.66	7495.6	
481.86	6102.3	
482.06	6732.4	
482.26	7433.4	
482.46	7987.8	
482.66	5996.5	
482.86	5783.5	
483.05	7761.8	
483.25	7153.6	
483.45	7729	
483.65	6069.5	
483.85	7383.6	
484.05	7454.6	
484.25	6375.3	
484.45	6645	
484.65	8066.9	
484.84	8109.3	
485.04	6046.3	
485.24	6059.9	
485.44	8484.7	
485.64	7290.8	
485.84	5616.2	
486.04	6492.1	
486.24	7550.2	
486.44	7774.1	
486.63	5621	
486.83	6197.8	
487.03	7535.8	
487.23	7755	
487.43	5712.5	
487.63	7227.3	
487.83	7780.9	
488.02	8199.4	
488.22	6376.7	
488.42	6797.9	
488.62	8378.2	
488.82	7539.3	
489.02	6132.3	
489.22	6159.6	
489.41	8244.4	
489.61	8011.7	
489.81	6005.3	
490.01	6056.5	
490.21	8219.2	
490.41	8717.5	
490.61	6102.9	
490.8	6132.3	
491	7824.6	
491.2	7422.5	
491.4	6564.4	
491.6	5927.5	
491.8	7931.1	
491.99	7919.5	
492.19	5780.1	
492.39	5947.3	
492.59	8035.5	
492.79	8260.1	
492.99	6553.5	
493.18	6050.4	
493.38	8355	
493.58	8765.3	
493.78	6529.6	
493.98	6244.9	
494.18	8114.7	
494.37	7791.8	
494.57	6806.1	
494.77	6596.5	
494.97	8365.3	
495.17	8630.1	
495.37	6433.4	
495.56	6717.3	
495.76	8695.7	
495.96	8401.5	
496.16	7328.3	
496.36	6675	
496.55	8712.1	
496.75	8364.6	
496.95	6944	
497.15	6883.2	
497.35	8756.4	
497.54	8551.6	
497.74	6752.2	
497.94	7986.4	
498.14	9210.4	
498.34	8933.9	
498.53	6518	
498.73	7044.3	
498.93	8222.6	
499.13	8677.9	
499.33	7009.5	
499.52	7322.2	
499.72	8826.1	
499.92	8903.9	
500.12	6645.7	
500.32	6883.9	
500.51	8971.5	
500.71	8715.5	
500.91	7422.5	
501.11	7221.1	
501.31	8911.4	
501.5	9185.8	
501.7	7626	
501.9	7111.2	
502.1	8772.8	
502.29	8962.6	
502.49	7317.4	
502.69	7635.5	
502.89	8889.5	
503.09	8856.8	
503.28	6539.8	
503.48	6735.1	
503.68	8360.5	
503.88	8362.5	
504.07	7372.7	
504.27	6950.1	
504.47	8671.1	
504.67	8626.7	
504.86	7226.6	
505.06	7065.5	
505.26	8394.6	
505.46	9498.5	
505.65	6926.9	
505.85	7141.3	
506.05	8395.3	
506.25	8740	
506.44	6601.3	
506.64	6975.4	
506.84	8238.3	
507.04	8697	
507.23	6617.7	
507.43	7006.8	
507.63	9515.5	
507.83	8267	
508.02	6929	
508.22	6725.5	
508.42	9678.7	
508.62	8130.4	
508.81	6812.9	
509.01	7227.3	
509.21	8016.4	
509.4	8334.6	
509.6	6995.9	
509.8	6607.4	
510	8267	
510.19	9161.2	
510.39	6606.1	
510.59	6599.2	
510.79	8140.7	
510.98	9107.3	
511.18	6839.5	
511.38	6775.4	
511.57	8783.7	
511.77	8579.6	
511.97	7273	
512.17	6612.2	
512.36	8772.8	
512.56	8574.2	
512.76	6561	
512.95	6393.1	
513.15	8854.7	
513.35	7830.7	
513.55	7172	
513.74	6575.3	
513.94	8783.1	
514.14	8299.7	
514.33	7267.6	
514.53	7040.2	
514.73	8452.6	
514.92	8477.2	
515.12	6801.3	
515.32	6567.2	
515.51	8590.5	
515.71	8791.2	
515.91	7765.9	
516.11	6705	
516.3	9615.2	
516.5	8242.4	
516.7	7076.4	
516.89	7489.4	
517.09	8464.9	
517.29	8392.6	
517.48	7490.1	
517.68	6889.4	
517.88	8121.6	
518.07	8609.7	
518.27	7202.7	
518.47	6559.6	
518.66	9020.6	
518.86	8113.4	
519.06	6465.4	
519.25	6720.8	
519.45	8303.8	
519.65	9316.2	
519.84	7225.9	
520.04	7617.1	
520.24	9682.1	
520.43	8700.5	
520.63	7057.3	
520.83	6864.8	
521.02	8288.1	
521.22	8725	
521.42	7189.1	
521.61	7552.2	
521.81	8359.1	
522.01	8573.5	
522.2	7102.4	
522.4	6916	
522.6	8787.2	
522.79	7937.9	
522.99	7027.3	
523.18	6564.4	
523.38	8780.3	
523.58	8629.5	
523.77	7903.1	
523.97	6642.9	
524.17	9956.5	
524.36	9465.7	
524.56	7595.9	
524.76	7391.1	
524.95	8793.3	
525.15	8535.3	
525.34	7235.5	
525.54	7322.9	
525.74	9173.5	
525.93	8423.3	
526.13	8019.8	
526.33	7370	
526.52	9435.7	
526.72	9087.5	
526.91	8221.9	
527.11	7662.8	
527.31	9422.7	
527.5	9669.8	
527.7	7670.3	
527.89	7089.4	
528.09	8769.4	
528.29	9189.9	
528.48	7811	
528.68	7618.4	
528.87	9435.7	
529.07	9394.7	
529.27	7748.8	
529.46	7401.4	
529.66	9280	
529.85	9434.3	
530.05	7351.5	
530.25	7760.4	
530.44	10195	
530.64	9120.3	
530.83	7517.4	
531.03	7667.6	
531.23	9559.2	
531.42	9229.5	
531.62	8169.3	
531.81	7646.4	
532.01	9636.4	
532.21	9887.6	
532.4	7643	
532.6	7843	
532.79	10238	
532.99	9746.3	
533.18	7964.6	
533.38	8558.5	
533.58	9444.5	
533.77	9899.2	
533.97	7933.1	
534.16	8417.2	
534.36	10144	
534.55	9536.7	
534.75	8543.4	
534.95	7933.1	
535.14	10176	
535.34	9494.4	
535.53	7767.9	
535.73	9052	
535.92	10488	
536.12	9549	
536.31	7823.9	
536.51	8638.3	
536.71	9867.8	
536.9	9431.6	
537.1	7814.4	
537.29	8019.8	
537.49	10098	
537.68	9386.5	
537.88	8302.5	
538.07	7703.8	
538.27	9662.3	
538.46	10327	
538.66	7645.1	
538.86	8011	
539.05	9758.6	
539.25	9920.4	
539.44	8331.8	
539.64	7937.2	
539.83	9596.8	
540.03	10332	
540.22	7803.4	
540.42	7982.3	
540.61	9705.3	
540.81	9743.6	
541	8177.5	
541.2	8602.8	
541.39	9365.4	
541.59	9607	
541.78	8508.6	
541.98	7905.2	
542.18	9177.6	
542.37	9169.4	
542.57	8024.6	
542.76	8389.8	
542.96	9254.8	
543.15	9534	
543.35	8041	
543.54	7645.8	
543.74	9598.8	
543.93	9398.1	
544.13	8018.5	
544.32	8680	
544.52	9609.1	
544.71	9124.4	
544.91	7277.1	
545.1	8169.3	
545.3	9165.3	
545.49	9567.4	
545.69	7215	
545.88	7746.1	
546.08	10215	
546.27	9889	
546.47	7972.1	
546.66	7576.8	
546.86	9642.5	
547.05	9979.1	
547.24	7620.5	
547.44	7562.5	
547.63	9005.6	
547.83	9737.4	
548.02	7946.8	
548.22	7945.4	
548.41	8924.4	
548.61	9690.3	
548.8	7602.7	
549	7505.1	
549.19	9369.5	
549.39	9632.3	
549.58	7202	
549.78	7697.6	
549.97	9504.6	
550.17	9097.8	
550.36	8232.8	
550.55	8857.5	
550.75	9110	
550.94	9762	
551.14	7417.7	
551.33	7647.1	
551.53	8705.2	
551.72	9308.7	
551.92	7699.7	
552.11	7492.8	
552.31	9412.5	
552.5	9426.1	
552.69	8512.7	
552.89	7221.1	
553.08	9449.3	
553.28	9141.4	
553.47	7570.7	
553.67	8264.9	
553.86	9702.6	
554.06	8569.4	
554.25	6904.4	
554.44	7417.7	
554.64	10194	
554.83	9750.4	
555.03	7309.2	
555.22	7582.9	
555.42	9451.4	
555.61	9286.2	
555.8	7422.5	
556	7638.9	
556.19	8722.3	
556.39	9422	
556.58	7431.4	
556.78	7460.1	
556.97	9214.5	
557.16	8927.8	
557.36	8290.9	
557.55	7202	
557.75	8500.4	
557.94	9770.9	
558.13	7339.2	
558.33	7071.6	
558.52	9564	
558.72	8753	
558.91	7190.4	
559.1	7229.3	
559.3	8581.7	
559.49	8384.4	
559.69	7045.7	
559.88	7542	
560.07	9065	
560.27	9425.4	
560.46	7765.9	
560.66	7745.4	
560.85	9029.5	
561.04	8484.7	
561.24	7159	
561.43	7212.9	
561.63	8514.1	
561.82	8821.3	
562.01	7995.3	
562.21	7429.3	
562.4	9039.1	
562.59	9583.1	
562.79	7337.2	
562.98	7193.1	
563.18	9011.7	
563.37	9895.1	
563.56	7661.5	
563.76	7137.2	
563.95	8686.1	
564.14	8714.1	
564.34	7426.6	
564.53	7212.3	
564.73	9146.9	
564.92	9229.5	
565.11	7559.1	
565.31	7091.4	
565.5	9503.3	
565.69	8663.6	
565.89	7304.4	
566.08	7531.7	
566.27	9359.9	
566.47	9609.1	
566.66	7925.6	
566.85	7023.9	
567.05	9182.4	
567.24	8855.4	
567.44	7232.7	
567.63	8171.4	
567.82	9356.5	
568.02	9090.9	
568.21	7174.7	
568.4	7484.6	
568.6	8974.2	
568.79	8911.4	
568.98	7244.3	
569.18	7187	
569.37	9026.8	
569.56	10314	
569.76	7507.2	
569.95	8184.4	
570.14	9441.1	
570.34	9157.2	
570.53	7248.4	
570.72	7225.9	
570.91	9652.1	
571.11	9055.4	
571.3	7450.5	
571.49	8161.8	
571.69	9111.4	
571.88	8682.7	
572.07	7724.3	
572.27	7867.6	
572.46	8714.8	
572.65	9424.8	
572.85	7380.2	
573.04	7505.1	
573.23	9552.4	
573.43	9123.7	
573.62	7269.6	
573.81	7680.6	
574	9222.7	
574.2	8974.2	
574.39	7561.1	
574.58	7623.2	
574.78	9776.3	
574.97	9300.5	
575.16	7925	
575.36	7934.5	
575.55	9680.1	
575.74	9651.4	
575.93	7348.8	
576.13	8029.4	
576.32	9135.3	
576.51	9571.5	
576.71	7732.4	
576.9	8542.1	
577.09	9771.5	
577.28	9473.9	
577.48	7970	
577.67	7350.8	
577.86	9153.1	
578.05	9516.2	
578.25	7746.1	
578.44	7802.1	
578.63	9268.4	
578.83	10065	
579.02	7372.7	
579.21	8502.5	
579.4	9487.6	
579.6	9215.9	
579.79	7846.5	
579.98	9212.4	
580.17	9654.8	
580.37	9775.6	
580.56	7492.2	
580.75	7948.2	
580.94	9870.5	
581.14	9960	
581.33	8279.9	
581.52	7609.6	
581.71	9618.6	
581.91	10116	
582.1	7494.9	
582.29	7776.8	
582.48	9431.6	
582.68	9345.6	
582.87	8159.8	
583.06	7872.4	
583.25	9637.7	
583.45	9493.7	
583.64	8443.1	
583.83	8832.9	
584.02	9385.2	
584.21	9671.9	
584.41	8221.9	
584.6	7942.7	
584.79	9456.8	
584.98	9879.4	
585.18	7539.3	
585.37	7587.7	
585.56	9230.2	
585.75	9739.5	
585.94	7666.9	
586.14	8150.2	
586.33	10060	
586.52	9415.2	
586.71	8041	
586.91	7774.8	
587.1	8955.8	
587.29	9732.6	
587.48	7685.3	
587.67	7616.4	
587.87	9602.2	
588.06	9469.1	
588.25	8450.6	
588.44	7905.8	
588.63	9238.4	
588.83	9628.2	
589.02	7766.6	
589.21	7516.7	
589.4	9087.5	
589.59	8933.2	
589.78	6904.4	
589.98	7124.2	
590.17	8551.6	
590.36	8860.9	
590.55	6526.9	
590.74	7034.1	
590.94	9609.1	
591.13	8608.3	
591.32	6954.2	
591.51	6537.8	
591.7	8923.7	
591.89	8608.3	
592.09	6699.6	
592.28	6943.3	
592.47	8088.8	
592.66	9499.2	
592.85	6668.9	
593.05	6871.6	
593.24	8547.5	
593.43	9184.5	
593.62	6938.5	
593.81	7238.2	
594	8747.6	
594.19	8779	
594.39	6881.2	
594.58	6848.4	
594.77	8892.3	
594.96	9213.8	
595.15	6855.2	
595.34	7233.4	
595.54	8789.2	
595.73	8198	
595.92	6406	
596.11	7060	
596.3	9217.2	
596.49	8309.3	
596.68	6936.5	
596.88	7288	
597.07	8826.7	
597.26	8170	
597.45	6599.2	
597.64	7399.3	
597.83	8450.6	
598.02	8819.2	
598.22	6712.6	
598.41	7086.7	
598.6	8692.9	
598.79	8172.1	
598.98	6692.8	
599.17	7367.2	
599.36	8725	
599.55	9338.7	
599.74	8103.8	
599.94	7926.3	
600.13	9043.1	
600.32	8191.2	
600.51	6509.8	
600.7	6683.2	
600.89	9385.8	
601.08	9570.2	
601.27	6505	
601.47	7182.2	
601.66	8921.6	
601.85	9240.4	
602.04	6980.8	
602.23	7101	
602.42	8320.9	
602.61	8787.2	
602.8	6817	
602.99	6743.3	
603.18	8546.9	
603.37	8630.1	
603.57	7034.8	
603.76	7486.7	
603.95	9152.4	
604.14	8794	
604.33	6812.9	
604.52	7064.8	
604.71	8713.4	
604.9	8318.8	
605.09	7365.9	
605.28	7221.1	
605.47	9030.9	
605.66	8752.3	
605.86	7230.7	
606.05	6796.5	
606.24	9073.9	
606.43	8076.5	
606.62	7095.5	
606.81	7509.9	
607	8903.9	
607.19	8390.5	
607.38	6636.8	
607.57	6748.1	
607.76	8344.1	
607.95	7864.2	
608.14	7020.4	
608.33	7432.1	
608.52	8237.6	
608.72	8901.8	
608.91	6533	
609.1	6436.8	
609.29	8370.7	
609.48	7991.9	
609.67	7108.5	
609.86	6495.5	
610.05	8032.8	
610.24	8196	
610.43	6451.8	
610.62	6165.1	
610.81	9011.7	
611	8941.4	
611.19	6458.6	
611.38	6983.6	
611.57	8505.2	
611.76	9269.8	
611.95	6328.9	
612.14	6249	
612.33	8301.8	
612.52	8022.6	
612.71	6634.1	
612.9	6216.3	
613.09	7737.9	
613.28	9371.5	
613.47	6591.7	
613.66	7094.8	
613.85	8416.5	
614.04	7974.1	
614.24	6552.1	
614.43	6014.2	
614.62	8463.6	
614.81	8439	
615	6844.3	
615.19	6769.9	
615.38	8009.6	
615.57	8270.4	
615.76	6866.8	
615.95	7453.2	
616.14	8546.9	
616.33	8292.2	
616.52	7036.8	
616.71	7214.3	
616.9	8455.4	
617.09	8384.4	
617.28	6576.7	
617.47	7424.6	
617.66	7950.2	
617.85	7901.7	
618.04	7204.1	
618.22	6756.2	
618.41	8176.2	
618.6	8800.8	
618.79	6856.6	
618.98	6718	
619.17	9071.1	
619.36	7787.1	
619.55	6812.9	
619.74	6754.2	
619.93	8554.4	
620.12	8225.3	
620.31	7137.9	
620.5	7262.8	
620.69	8921.6	
620.88	9295	
621.07	7878.5	
621.26	7079.1	
621.45	8760.5	
621.64	8728.4	
621.83	7260	
622.02	6763.8	
622.21	8771.5	
622.4	8652.7	
622.59	7694.9	
622.78	7501	
622.97	8416.5	
623.16	8994	
623.35	7292.8	
623.54	6722.1	
623.72	8423.3	
623.91	8674.5	
624.1	7455.3	
624.29	6602.7	
624.48	9384.5	
624.67	8875.2	
624.86	7383.6	
625.05	6757.6	
625.24	9412.5	
625.43	8426.7	
625.62	8426.7	
625.81	6972	
626	8985.1	
626.19	8553	
626.38	7365.2	
626.56	7043	
626.75	8402.1	
626.94	8992.6	
627.13	7451.2	
627.32	6541.9	
627.51	8984.4	
627.7	9687.6	
627.89	6595.1	
628.08	7391.8	
628.27	8286.1	
628.46	8493.6	
628.65	6798.6	
628.83	6614.9	
629.02	8734.6	
629.21	8312.7	
629.4	7124.9	
629.59	7178.1	
629.78	8245.8	
629.97	8828.8	
630.16	7194.5	
630.35	6892.8	
630.54	9278.7	
630.72	9125.1	
630.91	6882.5	
631.1	7172.7	
631.29	8697	
631.48	8703.9	
631.67	7330.4	
631.86	6910.5	
632.05	8530.5	
632.24	8430.8	
632.42	6760.3	
632.61	7133.1	
632.8	8525	
632.99	8181.6	
633.18	7116.7	
633.37	7344	
633.56	8699.1	
633.75	8546.2	
633.93	7211.6	
634.12	6934.4	
634.31	9321	
634.5	8931.9	
634.69	6889.4	
634.88	7316	
635.07	8576.9	
635.25	8991.9	
635.44	7546.8	
635.63	7667.6	
635.82	8434.2	
636.01	7883.3	
636.2	7503.1	
636.39	7203.4	
636.57	9268.4	
636.76	8872.5	
636.95	6847	
637.14	7651.2	
637.33	8802.9	
637.52	9246.6	
637.7	6642.9	
637.89	7447.1	
638.08	8454	
638.27	9338.1	
638.46	7315.3	
638.65	7613	
638.83	9351	
639.02	8314.1	
639.21	7234.1	
639.4	7591.8	
639.59	8518.2	
639.78	8275.2	
639.96	6743.3	
640.15	6752.2	
640.34	8505.9	
640.53	8514.1	
640.72	6611.5	
640.91	6785.6	
641.09	8108.6	
641.28	8903.9	
641.47	6694.1	
641.66	7282.6	
641.85	8446.5	
642.03	8618.5	
642.22	7122.8	
642.41	6857.3	
642.6	8141.4	
642.79	7694.9	
642.97	6705	
643.16	7129.7	
643.35	8086.1	
643.54	7921.5	
643.73	6565.1	
643.91	7019.1	
644.1	7820.5	
644.29	8271.1	
644.48	6602	
644.67	6521.4	
644.85	7837.6	
645.04	8082.7	
645.23	6191	
645.42	6556.9	
645.6	7858.1	
645.79	8634.9	
645.98	6357.6	
646.17	5732.3	
646.36	7496.2	
646.54	7891.5	
646.73	6862.7	
646.92	6064	
647.11	7703.1	
647.29	8271.7	
647.48	6044.9	
647.67	5948	
647.86	8525.7	
648.05	8493.6	
648.23	6261.3	
648.42	7095.5	
648.61	8062.9	
648.8	7813	
648.98	6059.3	
649.17	6262	
649.36	7575.4	
649.55	7223.9	
649.73	6092.7	
649.92	6536.4	
650.11	7503.1	
650.3	7675.1	
650.48	6102.3	
650.67	5959.6	
650.86	7863.5	
651.05	7165.8	
651.23	6169.2	
651.42	6072.9	
651.61	7535.8	
651.79	7427.3	
651.98	6246.3	
652.17	5958.2	
652.36	7838.9	
652.54	7109.2	
652.73	5981.4	
652.92	5872.2	
653.11	7856.7	
653.29	7863.5	
653.48	5502.9	
653.67	6151.4	
653.85	7613	
654.04	8389.8	
654.23	6302.3	
654.42	5978.7	
654.6	7218.4	
654.79	7722.2	
654.98	5610.8	
655.16	5941.8	
655.35	6972	
655.54	6719.4	
655.73	5508.4	
655.91	5398.4	
656.1	7507.2	
656.29	6709.8	
656.47	5160.2	
656.66	6376.7	
656.85	7010.9	
657.03	7098.9	
657.22	5583.4	
657.41	5664.7	
657.59	7094.2	
657.78	7025.9	
657.97	5482.4	
658.16	5898.8	
658.34	7601.4	
658.53	7918.8	
658.72	6551.5	
658.9	6823.8	
659.09	7305.8	
659.28	7312.6	
659.46	5755.5	
659.65	5670.8	
659.84	7045.7	
660.02	7473	
660.21	5748	
660.4	5634.6	
660.58	7742	
660.77	7301	
660.96	6113.2	
661.14	5341.8	
661.33	8123.6	
661.52	7977.5	
661.7	5423.7	
661.89	7707.2	
662.08	7031.4	
662.26	6646.3	
662.45	5629.2	
662.64	5679.7	
662.82	7574.8	
663.01	7012.9	
663.2	5636	
663.38	6118.6	
663.57	7387.7	
663.75	7311.2	
663.94	5807.4	
664.13	6720.1	
664.31	7032.7	
664.5	7479.2	
664.69	5991.7	
664.87	6328.2	
665.06	6821.8	
665.25	7373.4	
665.43	6509.8	
665.62	6524.8	
665.8	7464.8	
665.99	7070.3	
666.18	5911.1	
666.36	5818.3	
666.55	7531.1	
666.74	7434.1	
666.92	5599.1	
667.11	6627.2	
667.29	7175.4	
667.48	7552.9	
667.67	6328.9	
667.85	5730.2	
668.04	7101	
668.22	7075.7	
668.41	5842.9	
668.6	6014.2	
668.78	6957.6	
668.97	7098.3	
669.15	6022.4	
669.34	5390.3	
669.53	6956.3	
669.71	7196.6	
669.9	5457.2	
670.08	5929.6	
670.27	6810.2	
670.46	7357	
670.64	6088.6	
670.83	6209.4	
671.01	6790.4	
671.2	7111.9	
671.38	5599.1	
671.57	5468.8	
671.76	7692.9	
671.94	7939.3	
672.13	5424.4	
672.31	6121.4	
672.5	7435.5	
672.69	6775.4	
672.87	5544.5	
673.06	5750.7	
673.24	7302.4	
673.43	7122.2	
673.61	6039.5	
673.8	5625.8	
673.98	7398.6	
674.17	7488.7	
674.36	6167.1	
674.54	6025.1	
674.73	7138.5	
674.91	7403.4	
675.1	5798.5	
675.28	5520.6	
675.47	7088	
675.65	7367.2	
675.84	5769.8	
676.03	5993	
676.21	6965.8	
676.4	6623.8	
676.58	6322.1	
676.77	6142.5	
676.95	7920.9	
677.14	6903.7	
677.32	5395.7	
677.51	5354.1	
677.69	7361.1	
677.88	6730.3	
678.06	5500.2	
678.25	5519.3	
678.44	7134.4	
678.62	6856.6	
678.81	5394.3	
678.99	5911.1	
679.18	7666.2	
679.36	7297.6	
679.55	5712.5	
679.73	6000.5	
679.92	7232.7	
680.1	6948.8	
680.29	6449.1	
680.47	5704.3	
680.66	6891.4	
680.84	7454.6	
681.03	5253.7	
681.21	5979.4	
681.4	6920.1	
681.58	6787.7	
681.77	5537	
681.95	5447.6	
682.14	7515.4	
682.32	7654.6	
682.51	6155.5	
682.69	5345.9	
682.88	6805.4	
683.06	7181.5	
683.25	5851.7	
683.43	6173.9	
683.62	7136.5	
683.8	7301	
683.99	6291.4	
684.17	5744.6	
684.36	7791.2	
684.54	7007.5	
684.73	5256.5	
684.91	5367	
685.1	7094.8	
685.28	6551.5	
685.46	5624.4	
685.65	5568.4	
685.83	7068.9	
686.02	6627.2	
686.2	5082.4	
686.39	5270.1	
686.57	6354.8	
686.76	7422.5	
686.94	5310.4	
687.13	5354.1	
687.31	6982.2	
687.5	6776	
687.68	5009.3	
687.86	5687.2	
688.05	7959.8	
688.23	6290	
688.42	5824.4	
688.6	5296.7	
688.79	6673.6	
688.97	6678.4	
689.16	5537	
689.34	4892.6	
689.52	7194.5	
689.71	7301	
689.89	5763	
690.08	5349.3	
690.26	6942.6	
690.45	6799.9	
690.63	5867.4	
690.81	5499.5	
691	6794.5	
691.18	6640.9	
691.37	5584.8	
691.55	7048.4	
691.74	6557.6	
691.92	7942	
692.1	5543.2	
692.29	5188.9	
692.47	6746.7	
692.66	6315.3	
692.84	5239.4	
693.02	5578	
693.21	6386.2	
693.39	6750.1	
693.58	5765.7	
693.76	5322.7	
693.94	7456	
694.13	7391.1	
694.31	5334.3	
694.5	6040.1	
694.68	6689.3	
694.86	6969.9	
695.05	5702.9	
695.23	5656.5	
695.42	7247.8	
695.6	8628.8	
695.78	6070.9	
695.97	5472.9	
696.15	7217.7	
696.34	6767.9	
696.52	5391.6	
696.7	5809.4	
696.89	7157.7	
697.07	6532.3	
697.25	5757.5	
697.44	6711.2	
697.62	7075.7	
697.81	7111.9	
697.99	5518.6	
698.17	5895.4	
698.36	6642.9	
698.54	7010.9	
698.72	5835.3	
698.91	5127.4	
699.09	6828.6	
699.28	6597.9	
699.46	5536.3	
699.64	5396.4	
699.83	6589.7	
700.01	7245	
700.19	6093.4	
700.38	4893.3	
700.56	7281.9	
700.74	6667.5	
700.93	5166.3	
701.11	5737	
701.29	7051.8	
701.48	7742	
701.66	5337	
701.84	5421.7	
702.03	6754.2	
702.21	7297.6	
702.39	5072.8	
702.58	5543.2	
702.76	7165.8	
702.94	7167.9	
703.13	5063.9	
703.31	6698.2	
703.49	6657.9	
703.68	7193.1	
703.86	5294	
704.04	5838.8	
704.23	6970.6	
704.41	7188.4	
704.59	5429.8	
704.78	6135	
704.96	7955	
705.14	7141.3	
705.33	5205.3	
705.51	5794.4	
705.69	6815	
705.87	7338.6	
706.06	5917.3	
706.24	5219.6	
706.42	6974	
706.61	7235.5	
706.79	5945.3	
706.97	5174.5	
707.16	6692.8	
707.34	7027.9	
707.52	5856.5	
707.7	5346.6	
707.89	6737.1	
708.07	6473.6	
708.25	5892.7	
708.44	6015.6	
708.62	6616.3	
708.8	7423.2	
708.98	6148	
709.17	5462.6	
709.35	6921.5	
709.53	6959	
709.72	5187.5	
709.9	5223	
710.08	7115.3	
710.26	7096.2	
710.45	6148	
710.63	5386.2	
710.81	6783.6	
710.99	6858	
711.18	5771.2	
711.36	5364.3	
711.54	6765.1	
711.72	7180.9	
711.91	5479.7	
712.09	5141.8	
712.27	6805.4	
712.45	7155.6	
712.64	5524.1	
712.82	4875.5	
713	6425.2	
713.18	6459.3	
713.37	4982.7	
713.55	5769.8	
713.73	7028.6	
713.91	6077	
714.1	5133.6	
714.28	4730.1	
714.46	6715.3	
714.64	6111.1	
714.83	4328	
715.01	4821.6	
715.19	6146	
715.37	5575.3	
715.55	4491.9	
715.74	4648.9	
715.92	6627.2	
716.1	5226.4	
716.28	5417.6	
716.47	4734.2	
716.65	5758.2	
716.83	5827.2	
717.01	4619.5	
717.19	4619.5	
717.38	7129	
717.56	5523.4	
717.74	4794.3	
717.92	4264.6	
718.1	6375.3	
718.29	5763	
718.47	4031.1	
718.65	4447.5	
718.83	6362.4	
719.01	6326.2	
719.2	4110.3	
719.38	4781.3	
719.56	6239.5	
719.74	7167.9	
719.92	4552	
720.11	5225.1	
720.29	6311.2	
720.47	5666.7	
720.65	4247.5	
720.83	4739.7	
721.02	5877	
721.2	5659.2	
721.38	4704.2	
721.56	4212.7	
721.74	5246.9	
721.92	5331.5	
722.11	5044.1	
722.29	4788.8	
722.47	6279.1	
722.65	5663.3	
722.83	4209.9	
723.01	4788.8	
723.2	5683.8	
723.38	5959.6	
723.56	3816.7	
723.74	4593.6	
723.92	5363.6	
724.1	6128.9	
724.29	4091.2	
724.47	4946.5	
724.65	5515.2	
724.83	5360.2	
725.01	4081.6	
725.19	4619.5	
725.37	5366.4	
725.56	5360.2	
725.74	3999.7	
725.92	4149.9	
726.1	5401.9	
726.28	5562.3	
726.46	4401.1	
726.64	4231.8	
726.83	5614.2	
727.01	5655.1	
727.19	3945.1	
727.37	4512.4	
727.55	5719.3	
727.73	5987.6	
727.91	3943	
728.09	3803.1	
728.28	5993.7	
728.46	6108.4	
728.64	4568.3	
728.82	4452.3	
729	6665.5	
729.18	6192.4	
729.36	3965.6	
729.54	5552.7	
729.72	6885.3	
729.91	5780.1	
730.09	5354.8	
730.27	4481.6	
730.45	5665.4	
730.63	6092	
730.81	4870.1	
730.99	4278.9	
731.17	6505.7	
731.35	5531.6	
731.53	4577.2	
731.71	4462.5	
731.9	6282.5	
732.08	6350.8	
732.26	4582	
732.44	4227.7	
732.62	6370.5	
732.8	5985.5	
732.98	4769	
733.16	4137.6	
733.34	6118.6	
733.52	5195.7	
733.7	4460.5	
733.88	4626.4	
734.07	5972.6	
734.25	5796.4	
734.43	4053.6	
734.61	5114.5	
734.79	6759.7	
734.97	5677.7	
735.15	4244.8	
735.33	4394.9	
735.51	5892.7	
735.69	5735.7	
735.87	5070.8	
736.05	4516.5	
736.23	5849	
736.41	5569.8	
736.59	4427	
736.77	4518.5	
736.95	6049	
737.13	5710.4	
737.32	4152.6	
737.5	4323.3	
737.68	6492.7	
737.86	5562.3	
738.04	4119.1	
738.22	5274.2	
738.4	5549.3	
738.58	5731.6	
738.76	4419.5	
738.94	3750.5	
739.12	5540.4	
739.3	5550.7	
739.48	4851	
739.66	4618.2	
739.84	5722	
740.02	5681.7	
740.2	3832.4	
740.38	4020.8	
740.56	5964.4	
740.74	5162.2	
740.92	4487.8	
741.1	4376.5	
741.28	5612.1	
741.46	5406.6	
741.64	4194.2	
741.82	4517.8	
742	5593.7	
742.18	5486.5	
742.36	4207.2	
742.54	4052.9	
742.72	5999.9	
742.9	5041.4	
743.08	4474.8	
743.26	3721.2	
743.44	6005.3	
743.62	5890	
743.8	4649.6	
743.98	3989.4	
744.16	5757.5	
744.34	5504.3	
744.52	4544.4	
744.7	4462.5	
744.88	5811.5	
745.06	5459.9	
745.24	4534.9	
745.42	4634.6	
745.6	5896.1	
745.78	5790.3	
745.96	3716.4	
746.14	3949.2	
746.32	6324.8	
746.5	5792.3	
746.68	4273.4	
746.86	3941.7	
747.03	5996.5	
747.21	4981.3	
747.39	4304.1	
747.57	3904.1	
747.75	5529.5	
747.93	5810.1	
748.11	3870.7	
748.29	3838.6	
748.47	6627.9	
748.65	5329.5	
748.83	4332.1	
749.01	4215.4	
749.19	5634.6	
749.37	4986.8	
749.55	4154	
749.73	4149.9	
749.91	5511.8	
750.09	5289.9	
750.26	4189.5	
750.44	3707.5	
750.62	5508.4	
750.8	5413.5	
750.98	3731.4	
751.16	3859.1	
751.34	5552.7	
751.52	5033.2	
751.7	4450.2	
751.88	3695.2	
752.06	5796.4	
752.24	5636	
752.42	3564.1	
752.59	3915.7	
752.77	5371.8	
752.95	6232.7	
753.13	4353.3	
753.31	3923.9	
753.49	5148.6	
753.67	5483.1	
753.85	4154.6	
754.03	3805.1	
754.21	5678.3	
754.38	5850.4	
754.56	3898.6	
754.74	3261.7	
754.92	5107.6	
755.1	5483.1	
755.28	3263.8	
755.46	3228.3	
755.64	6102.9	
755.82	6085.2	
755.99	3452.2	
756.17	3438.5	
756.35	4301.4	
756.53	5304.9	
756.71	2671.2	
756.89	3289.7	
757.07	5035.3	
757.25	4405.2	
757.42	3619.4	
757.6	4218.8	
757.78	5175.9	
757.96	4465.3	
758.14	3446	
758.32	3146.4	
758.5	4137.6	
758.67	4834.6	
758.85	3377.1	
759.03	3377.8	
759.21	4888.5	
759.39	4478.2	
759.57	3029.6	
759.75	3822.9	
759.92	5321.3	
760.1	4915.8	
760.28	4051.6	
760.46	4260.5	
760.64	4722.6	
760.82	4554	
760.99	4042.7	
761.17	3453.6	
761.35	5277.6	
761.53	4521.9	
761.71	3638.6	
761.89	3930.7	
762.06	5158.8	
762.24	4786.1	
762.42	3664.5	
762.6	3411.9	
762.78	4827.1	
762.96	5066	
763.13	3886.4	
763.31	3611.9	
763.49	5339.7	
763.67	4779.3	
763.85	4182	
764.02	4601.1	
764.2	5543.9	
764.38	4913.1	
764.56	3569.6	
764.74	4190.1	
764.91	5666.7	
765.09	4813.4	
765.27	3366.2	
765.45	3188.7	
765.63	5749.3	
765.8	5443.5	
765.98	3039.2	
766.16	3254.9	
766.34	4545.8	
766.52	4382	
766.69	3863.2	
766.87	3149.8	
767.05	4732.2	
767.23	5382.1	
767.41	3339.6	
767.58	3522.5	
767.76	5228.5	
767.94	5230.5	
768.12	3424.9	
768.29	3847.5	
768.47	4831.8	
768.65	5390.3	
768.83	3117.7	
769	3953.9	
769.18	4551.3	
769.36	5044.1	
769.54	3900.7	
769.72	3122.5	
769.89	5278.3	
770.07	5276.3	
770.25	3446	
770.43	4286.4	
770.6	5845.6	
770.78	6012.8	
770.96	3512.3	
771.14	3908.2	
771.31	5251.7	
771.49	4732.9	
771.67	2945.7	
771.85	3135.4	
772.02	4217.5	
772.2	4756.1	
772.38	3616.7	
772.55	3248.8	
772.73	4990.9	
772.91	4790.9	
773.09	3514.3	
773.26	3593.5	
773.44	4951.3	
773.62	4737	
773.8	3177.1	
773.97	2989.4	
774.15	4937.7	
774.33	4703.5	
774.5	3107.5	
774.68	3327.9	
774.86	4874.2	
775.04	4718.5	
775.21	3177.8	
775.39	3115.6	
775.57	4909.7	
775.74	5112.4	
775.92	3067.2	
776.1	2953.9	
776.27	4869.4	
776.45	5655.1	
776.63	3134.1	
776.81	2862.4	
776.98	4600.4	
777.16	5351.3	
777.34	3248.8	
777.51	3452.9	
777.69	4613.4	
777.87	4457.1	
778.04	3321.8	
778.22	3632.4	
778.4	4422.2	
778.57	4928.8	
778.75	2807.8	
778.93	2948.4	
779.1	4373.1	
779.28	4190.8	
779.46	2822.8	
779.64	3115	
779.81	5048.9	
779.99	5598.5	
780.17	3607.2	
780.34	3726.6	
780.52	4646.2	
780.69	4754	
780.87	3347.7	
781.05	3053.5	
781.22	4757.4	
781.4	4749.9	
781.58	3177.1	
781.75	2528.6	
781.93	4775.2	
782.11	4242	
782.28	3736.2	
782.46	3103.4	
782.64	4147.1	
782.81	4854.4	
782.99	3216.7	
783.17	3136.1	
783.34	4726	
783.52	4339	
783.69	3329.3	
783.87	3822.2	
784.05	4284.4	
784.22	4272.1	
784.4	3791.5	
784.58	3396.2	
784.75	4939	
784.93	4405.2	
785.1	3110.2	
785.28	3523.2	
785.46	4799.8	
785.63	4245.4	
785.81	3095.8	
785.99	3015.3	
786.16	4413.4	
786.34	4660.5	
786.51	3028.3	
786.69	3345	
786.87	4114.4	
787.04	4520.5	
787.22	2964.8	
787.39	3614	
787.57	4295.3	
787.75	5065.3	
787.92	3762.1	
788.1	3646.7	
788.27	4235.9	
788.45	4067.9	
788.63	3426.9	
788.8	2648.7	
788.98	4611.3	
789.15	3981.3	
789.33	2663.7	
789.5	3106.1	
789.68	4894.6	
789.86	5044.1	
790.03	3403	
790.21	3035.8	
790.38	4975.9	
790.56	4404.5	
790.73	2949.1	
790.91	2932	
791.09	4340.3	
791.26	4836.6	
791.44	3133.4	
791.61	2770.2	
791.79	4350.6	
791.96	4288.4	
792.14	2793.4	
792.32	2504.7	
792.49	4268	
792.67	4437.3	
792.84	2899.9	
793.02	2772.9	
793.19	4653.7	
793.37	5033.9	
793.54	2600.2	
793.72	2813.2	
793.89	5104.2	
794.07	4316.4	
794.25	3194.1	
794.42	2654.2	
794.6	4990.2	
794.77	4756.1	
794.95	3386.7	
795.12	3027.6	
795.3	4303.5	
795.47	4726	
795.65	3267.2	
795.82	3125.9	
796	4169.7	
796.17	5395	
796.35	3042.6	
796.52	3519.1	
796.7	4689.8	
796.87	4775.9	
797.05	3045.3	
797.22	3642	
797.4	4782	
797.57	5351.3	
797.75	3142.3	
797.92	2961.4	
798.1	4959.5	
798.27	4146.5	
798.45	2639.8	
798.62	2807.8	
798.8	4543.8	
798.97	4825.7	
799.15	3327.9	
799.32	3153.2	
799.5	3995.6	
799.67	4494.6	
799.85	3408.5	
800.02	2557.9	
800.2	4298	
800.37	4414.1	
800.55	3495.2	
800.72	3031	
800.9	4804.5	
801.07	5070.1	
801.25	3855	
801.42	3241.9	
801.6	4885.1	
801.77	4492.6	
801.95	3074	
802.12	2951.8	
802.29	4683	
802.47	4594.3	
802.64	3252.2	
802.82	2515.6	
802.99	4303.5	
803.17	4924.7	
803.34	3190.7	
803.52	2890.4	
803.69	5326.8	
803.87	4119.8	
804.04	3143.6	
804.21	3196.9	
804.39	5090.6	
804.56	4367.6	
804.74	2719.7	
804.91	3205.1	
805.09	4237.2	
805.26	4354.7	
805.44	2827.6	
805.61	2983.9	
805.78	4794.3	
805.96	4704.9	
806.13	3248.1	
806.31	3452.2	
806.48	3962.1	
806.66	4321.9	
806.83	3220.1	
807	3181.2	
807.18	4296.6	
807.35	4495.3	
807.53	2985.9	
807.7	2633	
807.87	5124	
808.05	4250.9	
808.22	3387.3	
808.4	2606.4	
808.57	4265.9	
808.74	4067.9	
808.92	2998.2	
809.09	3583.9	
809.27	4330.1	
809.44	4613.4	
809.61	2637.8	
809.79	2888.3	
809.96	5162.2	
810.14	4767.7	
810.31	2575	
810.48	3124.5	
810.66	4307.6	
810.83	4829.1	
811.01	2932	
811.18	3213.3	
811.35	4779.3	
811.53	3827	
811.7	3500.7	
811.87	3245.3	
812.05	4402.5	
812.22	4237.9	
812.39	2863.7	
812.57	2809.1	
812.74	4342.4	
812.92	5418.9	
813.09	3074	
813.26	3252.9	
813.44	5199.8	
813.61	4180.6	
813.78	2624.8	
813.96	3343	
814.13	4338.3	
814.3	4104.8	
814.48	3583.3	
814.65	3066.5	
814.82	5022.3	
815	4048.2	
815.17	3192.1	
815.34	3788.1	
815.52	4209.9	
815.69	4215.4	
815.87	3052.2	
816.04	3028.9	
816.21	4274.8	
816.38	3925.3	
816.56	3029.6	
816.73	2849.4	
816.9	5267.4	
817.08	4789.5	
817.25	2850.1	
817.42	3472	
817.6	4025.6	
817.77	4240	
817.94	3148.4	
818.12	2820.7	
818.29	4120.5	
818.46	5840.1	
818.64	2984.6	
818.81	2799.6	
818.98	4095.3	
819.16	5535	
819.33	3325.9	
819.5	3175.7	
819.67	4534.9	
819.85	4997	
820.02	3087	
820.19	3249.4	
820.37	4437.3	
820.54	4201.7	
820.71	3123.2	
820.88	3865.2	
821.06	4426.3	
821.23	4153.3	
821.4	3127.2	
821.58	3166.2	
821.75	4695.3	
821.92	4367	
822.09	2607.7	
822.27	2700.6	
822.44	4323.3	
822.61	4242.7	
822.79	2629.6	
822.96	4693.9	
823.13	4555.4	
823.3	4066.6	
823.48	2991.4	
823.65	2735.4	
823.82	4844.8	
823.99	4036.5	
824.17	3676.8	
824.34	2750.4	
824.51	5404.6	
824.68	4323.9	
824.86	2889	
825.03	3147	
825.2	4329.4	
825.37	5001.1	
825.55	2854.9	
825.72	3054.9	
825.89	5413.5	
826.06	5023.7	
826.24	3094.5	
826.41	3037.8	
826.58	5016.2	
826.75	4519.2	
826.92	2523.8	
827.1	2750.4	
827.27	6513.2	
827.44	5296	
827.61	2924.5	
827.79	3394.2	
827.96	4178.5	
828.13	4263.9	
828.3	3020.8	
828.47	2592.7	
828.65	4628.4	
828.82	4452.3	
828.99	3687.7	
829.16	3320.4	
829.34	4812	
829.51	4689.2	
829.68	3080.1	
829.85	3167.5	
830.02	5122	
830.2	4797.7	
830.37	2449.4	
830.54	3633.8	
830.71	5361.6	
830.88	4347.2	
831.05	2460.3	
831.23	2849.4	
831.4	5221	
831.57	5558.2	
831.74	2903.3	
831.91	2625.5	
832.09	4635.2	
832.26	4811.4	
832.43	2930.6	
832.6	3320.4	
832.77	4491.9	
832.94	5104.2	
833.12	2466.4	
833.29	2930.6	
833.46	4604.5	
833.63	5692.7	
833.8	3182.5	
833.97	2994.1	
834.15	4870.1	
834.32	4713.7	
834.49	3087	
834.66	3127.2	
834.83	4883.7	
835	4221.5	
835.17	2888.3	
835.35	2914.9	
835.52	4732.2	
835.69	4599.1	
835.86	3069.9	
836.03	2517.6	
836.2	4831.8	
836.37	4480.3	
836.55	2934.1	
836.72	2820.1	
836.89	4526	
837.06	4913.8	
837.23	2988.7	
837.4	3207.8	
837.57	5328.1	
837.75	5771.9	
837.92	2773.6	
838.09	2925.2	
838.26	4489.8	
838.43	4930.8	
838.6	3072	
838.77	2818	
838.94	5502.9	
839.11	5360.9	
839.29	3027.6	
839.46	2400.2	
839.63	4840	
839.8	4537.6	
839.97	2883.5	
840.14	2863.1	
840.31	4663.2	
840.48	4795.7	
840.65	2475.3	
840.82	2837.8	
841	4801.1	
841.17	4604.5	
841.34	2699.9	
841.51	2775	
841.68	4780.6	
841.85	4577.9	
842.02	2779.8	
842.19	2335.4	
842.36	4719.2	
842.53	4622.3	
842.7	2641.9	
842.87	3141.6	
843.05	5724.8	
843.22	4541.7	
843.39	2534.7	
843.56	2866.5	
843.73	4478.2	
843.9	4884.4	
844.07	4136.2	
844.24	3455.6	
844.41	6342.6	
844.58	4274.1	
844.75	2604.3	
844.92	2870.6	
845.09	4746.5	
845.26	4687.8	
845.43	2714.9	
845.6	2856.2	
845.77	4793.6	
845.94	4589.5	
846.12	2979.8	
846.29	3072	
846.46	4945.2	
846.63	4742.4	
846.8	2716.3	
846.97	3136.1	
847.14	5021.6	
847.31	4712.4	
847.48	2954.5	
847.65	3235.1	
847.82	4918.5	
847.99	4881	
848.16	3502	
848.33	3225.6	
848.5	4422.2	
848.67	5120.6	
848.84	2666.5	
849.01	2807.8	
849.18	4429.8	
849.35	4147.8	
849.52	3253.5	
849.69	2666.5	
849.86	4970.4	
850.03	4995	
850.2	2711.5	
850.37	3201	
850.54	4979.3	
850.71	4547.9	
850.88	3155.9	
851.05	2636.4	
851.22	4694.6	
851.39	5076.9	
851.56	2532.7	
851.73	3020.8	
851.9	4262.5	
852.07	4939.7	
852.24	2983.2	
852.41	2652.1	
852.58	4681	
852.75	4272.1	
852.92	2971.6	
853.09	2623.4	
853.26	4459.1	
853.43	5037.3	
853.6	2734	
853.77	2370.2	
853.94	5107	
854.11	4194.2	
854.28	3776.5	
854.44	2862.4	
854.61	5329.5	
854.78	4953.4	
854.95	2707.4	
855.12	3201	
855.29	3981.9	
855.46	5194.3	
855.63	2677.4	
855.8	3552.5	
855.97	4457.1	
856.14	5003.2	
856.31	3609.2	
856.48	2884.2	
856.65	4530.8	
856.82	4244.8	
856.99	2572.9	
857.16	2892.4	
857.33	5606	
857.49	4534.9	
857.66	2860.3	
857.83	3024.8	
858	4551.3	
858.17	4678.2	
858.34	2577	
858.51	2695.8	
858.68	5138.4	
858.85	5150	
859.02	3056.3	
859.19	3186	
859.36	4297.3	
859.52	4278.2	
859.69	2699.2	
859.86	3063.1	
860.03	4283.7	
860.2	5131.5	
860.37	2481.5	
860.54	2725.2	
860.71	4894	
860.88	5179.3	
861.05	2964.1	
861.21	3342.3	
861.38	5102.2	
861.55	4173.8	
861.72	2451.4	
861.89	2920.4	
862.06	4920.6	
862.23	5253.7	
862.4	2636.4	
862.56	2755.2	
862.73	4799.1	
862.9	4618.9	
863.07	3087	
863.24	2475.3	
863.41	4227.7	
863.58	4317.1	
863.75	2760	
863.91	3007.1	
864.08	5012.7	
864.25	4811.4	
864.42	3233.1	
864.59	3596.9	
864.76	5348.6	
864.93	4235.2	
865.09	2570.2	
865.26	2826.9	
865.43	5082.4	
865.6	5273.5	
865.77	2379.1	
865.94	2664.4	
866.1	5119.2	
866.27	4848.2	
866.44	3818.1	
866.61	2601.6	
866.78	4558.1	
866.95	4777.2	
867.11	2615.9	
867.28	2396.1	
867.45	5060.5	
867.62	4260.5	
867.79	3026.2	
867.96	2675.3	
868.12	4259.1	
868.29	4876.2	
868.46	2677.4	
868.63	3459.7	
868.8	4978.6	
868.97	4791.6	
869.13	2746.3	
869.3	2735.4	
869.47	4789.5	
869.64	4874.8	
869.81	2661	
869.97	2626.9	
870.14	4698.7	
870.31	5193	
870.48	2620.7	
870.65	3280.8	
870.81	4546.5	
870.98	4521.2	
871.15	2955.9	
871.32	2802.3	
871.48	4723.3	
871.65	5278.3	
871.82	2656.2	
871.99	2917	
872.16	5504.3	
872.32	5087.2	
872.49	2725.8	
872.66	2717.7	
872.83	4888.5	
872.99	4399	
873.16	2976.4	
873.33	2651.4	
873.5	4600.4	
873.67	4681	
873.83	2747	
874	3458.3	
874.17	4797	
874.34	5356.8	
874.5	3345.7	
874.67	3230.3	
874.84	5093.3	
875.01	4138.9	
875.17	3547.1	
875.34	2699.9	
875.51	4629.8	
875.68	5508.4	
875.84	3143.6	
876.01	3734.8	
876.18	4859.1	
876.34	4861.9	
876.51	2667.1	
876.68	2634.4	
876.85	4491.9	
877.01	5113.1	
877.18	3680.9	
877.35	2568.8	
877.52	4756.1	
877.68	4203.8	
877.85	2659.6	
878.02	2676.7	
878.18	4550.6	
878.35	4382	
878.52	2173.6	
878.69	3125.2	
878.85	4977.2	
879.02	4769.7	
879.19	3654.3	
879.35	2848	
879.52	4917.9	
879.69	4948.6	
879.86	2378.4	
880.02	2989.4	
880.19	4581.3	
880.36	5350	
880.52	2988	
880.69	3056.3	
880.86	4906.9	
881.02	4898.1	
881.19	2910.8	
881.36	2867.2	
881.52	4878.3	
881.69	4356	
881.86	2899.9	
882.02	2824.8	
882.19	5081	
882.36	5702.9	
882.52	2747.7	
882.69	3629	
882.86	4717.8	
883.02	4713.1	
883.19	3196.9	
883.36	2954.5	
883.52	4958.1	
883.69	5454.4	
883.86	2678.7	
884.02	2465.1	
884.19	4861.2	
884.36	4686.4	
884.52	2936.1	
884.69	2851.5	
884.86	4438.6	
885.02	5259.2	
885.19	2902	
885.36	3049.4	
885.52	4594.3	
885.69	4741.7	
885.86	3758.7	
886.02	3289.7	
886.19	4909.7	
886.35	4403.8	
886.52	2930.6	
886.69	3582.6	
886.85	4261.8	
887.02	5079	
887.19	5079	
887.35	5079	
887.52	5079	
887.68	5079	
887.85	5079	
888.02	5079	
888.18	5079	
888.35	5079	
888.51	5079	
888.68	5079	
888.85	5079	
889.01	5079	
889.18	5079	
889.35	5079	
889.51	5079	
889.68	5079	
889.84	5079	
890.01	5079	
890.17	5079	
890.34	5079	
890.51	5079	
890.67	5079	
890.84	5079	
891	5079	
891.17	5079	
891.34	5079	
891.5	5079	
891.67	5079	
891.83	5079	
892	5079	
892.16	5079	
892.33	5079	
892.5	5079	
892.66	5079	
892.83	5079	
892.99	5079	
893.16	5079	
893.32	5079	
893.49	5079	
893.65	5079	
893.82	5079	
893.99	5079	
894.15	5079	
894.32	5079	
894.48	5079	
894.65	5079	
894.81	5079	
894.98	5079	
895.14	5079	
895.31	5079	
895.47	5079	
895.64	5079	
895.81	5079	
895.97	5079	
896.14	5079	
896.3	5079	
896.47	5079	
896.63	5079	
896.8	5079	
896.96	5079	
897.13	5079	
897.29	5079	
897.46	5079	
897.62	5079	
897.79	5079	
897.95	5079	
898.12	5079	
898.28	5079	
898.45	5079	
898.61	5079	
898.78	5079	
898.94	5079	
899.11	5079	
899.27	5079	
899.44	5079	
899.6	5079	
899.77	5079	
899.93	5079	
900.1	5079	
900.26	5079	
900.43	5079	
900.59	5079	
900.76	5079	
900.92	5079	
901.09	5079	
901.25	5079	
901.42	5079	
901.58	5079	
901.75	5079	
901.91	5079	
902.07	5079	
902.24	5079	
902.4	5079	
902.57	5079	
902.73	5079	
902.9	5079	
903.06	5079	
903.23	5079	
903.39	5079	
903.56	5079	
903.72	5079	
903.88	5079	
904.05	5079	
904.21	5079	
904.38	5079	
904.54	5079	
904.71	5079	
904.87	5079	
905.03	5079	
905.2	5079	
905.36	5079	
905.53	5079	
905.69	5079	
905.86	5079	
906.02	5079	
906.18	5079	
906.35	5079	
906.51	5079	
906.68	5079	
906.84	5079	
907.01	5079	
907.17	5079	
907.33	5079	
907.5	5079	
907.66	5079	
907.83	5079	
907.99	5079	
908.15	5079	
908.32	5079	
908.48	5079	
908.65	5079	
908.81	5079	
908.97	5079	
909.14	5079	
909.3	5079	
909.47	5079	
909.63	5079	
909.79	5079	
909.96	5079	
910.12	5079	
910.28	5079	
910.45	5079	
910.61	5079	
910.78	5079	
910.94	5079	
911.1	5079	
911.27	5079	
911.43	5079	
911.59	5079	
911.76	5079	
911.92	5079	
912.08	5079	
912.25	5079	
912.41	5079	
912.57	5079	
912.74	5079	
912.9	5079	
913.07	5079	
913.23	5079	
913.39	5079	
913.56	5079	
913.72	5079	
913.88	5079	
914.05	5079	
914.21	5079	
914.37	5079	
914.54	5079	
914.7	5079	
914.86	5079	
915.03	5079	
915.19	5079	
