Wavelength	Intensities	
nm	a.u.	
179.22	1872.4	
179.44	1880.4	
179.65	1864.3	
179.86	1896.4	
180.08	1886.2	
180.29	4818.9	
180.51	3492.5	
180.72	5593.7	
180.94	6535.8	
181.15	3251.5	
181.37	3163.4	
181.58	5479.7	
181.79	5777.3	
182.01	3323.9	
182.22	3592.1	
182.44	5722.7	
182.65	4795	
182.87	4506.2	
183.08	3994.9	
183.29	6104.3	
183.51	5061.9	
183.72	3623.5	
183.94	5347.9	
184.15	5423.7	
184.37	5474.2	
184.58	3239.9	
184.79	4382.7	
185.01	5034.6	
185.22	5766.4	
185.44	4698	
185.65	3981.9	
185.86	5347.2	
186.08	4880.3	
186.29	3126.6	
186.51	3340.2	
186.72	5051	
186.94	5942.5	
187.15	3920.5	
187.36	4019.5	
187.58	7750.9	
187.79	5477.6	
188.01	4197.7	
188.22	6455.9	
188.43	6592.4	
188.65	5752.7	
188.86	3365.5	
189.08	4014.7	
189.29	5259.9	
189.5	5199.8	
189.72	3715.7	
189.93	3813.3	
190.15	5986.9	
190.36	7108.5	
190.57	3985.3	
190.79	3978.5	
191	6097.5	
191.22	6004.6	
191.43	4130.8	
191.64	3367.5	
191.86	6309.1	
192.07	6068.1	
192.29	3590.8	
192.5	3794.9	
192.71	6025.1	
192.93	5167	
193.14	3680.2	
193.35	3794.9	
193.57	5197.1	
193.78	5856.5	
194	3011.2	
194.21	3592.8	
194.42	4937	
194.64	5459.2	
194.85	4033.1	
195.07	4698.7	
195.28	5513.1	
195.49	4766.3	
195.71	4943.8	
195.92	3546.4	
196.13	5595.1	
196.35	5752.7	
196.56	5352	
196.78	4048.8	
196.99	7013.6	
197.2	6541.9	
197.42	4603.8	
197.63	4080.2	
197.84	4889.9	
198.06	5628.5	
198.27	3717.7	
198.48	4977.2	
198.7	5220.3	
198.91	5371.1	
199.13	4059.1	
199.34	4048.2	
199.55	5872.2	
199.77	4772.4	
199.98	3649.5	
200.19	4127.3	
200.41	5375.9	
200.62	5074.2	
200.83	4259.8	
201.05	4553.3	
201.26	5310.4	
201.47	5109.7	
201.69	3620.8	
201.9	3516.4	
202.11	5459.2	
202.33	6380.8	
202.54	3907.5	
202.76	4377.2	
202.97	5580.7	
203.18	5559.6	
203.4	4233.2	
203.61	4090.5	
203.82	5481.7	
204.04	5098.8	
204.25	4071.4	
204.46	4059.8	
204.68	5407.3	
204.89	5707	
205.1	4009.2	
205.32	3485.6	
205.53	5827.8	
205.74	5997.8	
205.96	2955.9	
206.17	4189.5	
206.38	5813.5	
206.6	5918.6	
206.81	4664.6	
207.02	3736.9	
207.24	5635.3	
207.45	6048.3	
207.66	3874.1	
207.88	3317.7	
208.09	5597.8	
208.3	5440.8	
208.52	3564.1	
208.73	3966.2	
208.94	5378.6	
209.15	6153.5	
209.37	3832.4	
209.58	4020.8	
209.79	5950	
210.01	5285.1	
210.22	3108.1	
210.43	3272	
210.65	5427.8	
210.86	5839.4	
211.07	3982.6	
211.29	3556.6	
211.5	5757.5	
211.71	5328.1	
211.93	3554.6	
212.14	3603.7	
212.35	5339.7	
212.56	5591	
212.78	4101.4	
212.99	3421.5	
213.2	6387.6	
213.42	5169.8	
213.63	3654.3	
213.84	3969	
214.06	4831.8	
214.27	4906.9	
214.48	3900	
214.69	4104.1	
214.91	6075	
215.12	6241.5	
215.33	4234.5	
215.55	4545.8	
215.76	6700.3	
215.97	5821	
216.18	4000.4	
216.4	3892.5	
216.61	5122.7	
216.82	5948	
217.04	3627	
217.25	3741.6	
217.46	6085.2	
217.67	5896.1	
217.89	3237.8	
218.1	3336.8	
218.31	5484.5	
218.53	5628.5	
218.74	3777.1	
218.95	3644	
219.16	5374.6	
219.38	6388.3	
219.59	3652.2	
219.8	4324.6	
220.01	7009.5	
220.23	5433.9	
220.44	4777.9	
220.65	3534.8	
220.87	5505.6	
221.08	6041.5	
221.29	3348.4	
221.5	4472.1	
221.72	7366.5	
221.93	5175.9	
222.14	4093.2	
222.35	4829.1	
222.57	5513.1	
222.78	5772.5	
222.99	3926.6	
223.2	4190.8	
223.42	5752.7	
223.63	5896.8	
223.84	3031.7	
224.05	2962.7	
224.27	6934.4	
224.48	6337.1	
224.69	4866	
224.9	4105.5	
225.12	5624.4	
225.33	5414.8	
225.54	3274	
225.75	3702	
225.97	5034.6	
226.18	5313.8	
226.39	3973.7	
226.6	3699.3	
226.82	5151.3	
227.03	5032.5	
227.24	4035.9	
227.45	3430.3	
227.67	5806	
227.88	6341.9	
228.09	4528.1	
228.3	4576.5	
228.52	5868.8	
228.73	5385.5	
228.94	3743.7	
229.15	3356.6	
229.36	5305.6	
229.58	5289.2	
229.79	3815.4	
230	4481	
230.21	6478.4	
230.43	5569.1	
230.64	4011.3	
230.85	4248.9	
231.06	5899.5	
231.28	5873.6	
231.49	3331.4	
231.7	3994.9	
231.91	5738.4	
232.12	5477.6	
232.34	3473.4	
232.55	3983.3	
232.76	6050.4	
232.97	5568.4	
233.18	3620.8	
233.4	4043.4	
233.61	5689.9	
233.82	5133.6	
234.03	3812	
234.25	3679.5	
234.46	7473	
234.67	5502.2	
234.88	4147.1	
235.09	3593.5	
235.31	5791	
235.52	5319.3	
235.73	4027	
235.94	3458.3	
236.15	5215.5	
236.37	6546.7	
236.58	3603.1	
236.79	3945.1	
237	5781.4	
237.21	4949.9	
237.43	4218.1	
237.64	3323.2	
237.85	9749	
238.06	5002.5	
238.27	4287.8	
238.48	3442.6	
238.7	5766.4	
238.91	5229.8	
239.12	3937.6	
239.33	3926	
239.54	5052.3	
239.76	5359.5	
239.97	3824.2	
240.18	3876.1	
240.39	6785.6	
240.6	5674.9	
240.82	4071.4	
241.03	3327.3	
241.24	5367	
241.45	6315.9	
241.66	3635.1	
241.87	4246.8	
242.09	6183.5	
242.3	6524.1	
242.51	4218.1	
242.72	3926.6	
242.93	5862	
243.14	5395	
243.36	4575.8	
243.57	4880.3	
243.78	6288.6	
243.99	5833.3	
244.2	3930.7	
244.41	3592.8	
244.63	4997	
244.84	5767.1	
245.05	4195.6	
245.26	3924.6	
245.47	5706.3	
245.68	5983.5	
245.9	5206.6	
246.11	4178.5	
246.32	5298.1	
246.53	5707.7	
246.74	6328.2	
246.95	3283.6	
247.16	4999.1	
247.38	5416.9	
247.59	3261	
247.8	3959.4	
248.01	5145.2	
248.22	5410.1	
248.43	3552.5	
248.64	3830.4	
248.86	4848.9	
249.07	5152	
249.28	3447.4	
249.49	4026.3	
249.7	5971.2	
249.91	6211.5	
250.12	3260.4	
250.34	3386.7	
250.55	5537.7	
250.76	5416.9	
250.97	4113	
251.18	4082.3	
251.39	6114.6	
251.6	5601.9	
251.81	4148.5	
252.03	4097.3	
252.24	5156.1	
252.45	5945.3	
252.66	3396.2	
252.87	4370.4	
253.08	5476.3	
253.29	7182.9	
253.5	3395.5	
253.72	4768.4	
253.93	5276.3	
254.14	6467.5	
254.35	3725.9	
254.56	3875.4	
254.77	5728.2	
254.98	5032.5	
255.19	3714.3	
255.41	4759.5	
255.62	5512.4	
255.83	6055.8	
256.04	4212	
256.25	4175.8	
256.46	6703	
256.67	5139	
256.88	4065.9	
257.09	4537.6	
257.31	5087.2	
257.52	5176.6	
257.73	5066.7	
257.94	3730.7	
258.15	5261.9	
258.36	5473.5	
258.57	4668	
258.78	2965.5	
258.99	5933	
259.2	5290.6	
259.41	3779.2	
259.63	3840.6	
259.84	6301.6	
260.05	6767.9	
260.26	4922	
260.47	3637.2	
260.68	6051.1	
260.89	5403.2	
261.1	4498.7	
261.31	3603.7	
261.52	6043.6	
261.73	6468.2	
261.95	4842.8	
262.16	4220.2	
262.37	6152.1	
262.58	6260	
262.79	4892.6	
263	3802.4	
263.21	5414.8	
263.42	4987.5	
263.63	3917.1	
263.84	3846.8	
264.05	6003.3	
264.26	6325.5	
264.47	4628.4	
264.69	4223.6	
264.9	6158.2	
265.11	5592.3	
265.32	3671.3	
265.53	3747.8	
265.74	5552	
265.95	4846.9	
266.16	3992.9	
266.37	4384.7	
266.58	5601.2	
266.79	5285.1	
267	3719.1	
267.21	3470.6	
267.42	5069.4	
267.63	5444.2	
267.84	3922.5	
268.06	3335.5	
268.27	5887.9	
268.48	6148.7	
268.69	3794.9	
268.9	4520.5	
269.11	6126.8	
269.32	4945.8	
269.53	3951.9	
269.74	3685.7	
269.95	5756.8	
270.16	4769	
270.37	3956	
270.58	4575.2	
270.79	5237.3	
271	6032.6	
271.21	4298.7	
271.42	3957.4	
271.63	5612.1	
271.84	5061.9	
272.05	3121.8	
272.26	3531.4	
272.47	5478.3	
272.68	5610.1	
272.89	3775.1	
273.11	4394.3	
273.32	5258.5	
273.53	6414.9	
273.74	4237.9	
273.95	4151.9	
274.16	6113.9	
274.37	5498.8	
274.58	4276.8	
274.79	3427.6	
275	5554.8	
275.21	6070.2	
275.42	5134.3	
275.63	4403.8	
275.84	5702.2	
276.05	7178.1	
276.26	4103.4	
276.47	3891.1	
276.68	5280.3	
276.89	6455.2	
277.1	4405.2	
277.31	3485.6	
277.52	5749.3	
277.73	5905	
277.94	3390.1	
278.15	3795.6	
278.36	5683.1	
278.57	5088.5	
278.78	3775.1	
278.99	4231.8	
279.2	5113.1	
279.41	5046.9	
279.62	4944.5	
279.83	3475.4	
280.04	6696.9	
280.25	5005.9	
280.46	4902.8	
280.67	3939.6	
280.88	5117.2	
281.09	6085.2	
281.3	4149.2	
281.51	5245.5	
281.72	5974.6	
281.93	5988.3	
282.14	3674.7	
282.35	3981.3	
282.56	5931.6	
282.77	5951.4	
282.98	3759.4	
283.19	4704.2	
283.4	7243	
283.61	5389.6	
283.82	3480.9	
284.03	4811.4	
284.24	5541.1	
284.45	6066.1	
284.66	4871.4	
284.87	4673.5	
285.08	5982.1	
285.29	6186.9	
285.5	3354.6	
285.71	3884.3	
285.92	6051.1	
286.12	6716	
286.33	4840.7	
286.54	3808.5	
286.75	5901.6	
286.96	5302.9	
287.17	3527.3	
287.38	4764.9	
287.59	5059.2	
287.8	5013.4	
288.01	3932.1	
288.22	4408.6	
288.43	6050.4	
288.64	4985.4	
288.85	4561.5	
289.06	4363.5	
289.27	5841.5	
289.48	6393.8	
289.69	4844.8	
289.9	4433.9	
290.11	6108.4	
290.32	5170.4	
290.53	4613.4	
290.74	4248.9	
290.94	5950.7	
291.15	5913.2	
291.36	3727.3	
291.57	4356.7	
291.78	5239.4	
291.99	4861.9	
292.2	3551.2	
292.41	4315.8	
292.62	5952.1	
292.83	5861.3	
293.04	5197.7	
293.25	3591.5	
293.46	5263.3	
293.67	6081.8	
293.88	3695.2	
294.09	3601.7	
294.29	5033.9	
294.5	5608.7	
294.71	3928.7	
294.92	3713	
295.13	5238	
295.34	6552.8	
295.55	3311.6	
295.76	3446	
295.97	5888.6	
296.18	6664.1	
296.39	3512.3	
296.6	3741.6	
296.81	5518.6	
297.01	5868.1	
297.22	3863.2	
297.43	3635.1	
297.64	5160.2	
297.85	5125.4	
298.06	3070.6	
298.27	3339.6	
298.48	5473.5	
298.69	5179.3	
298.9	4008.6	
299.11	3609.9	
299.31	4909.7	
299.52	4965	
299.73	4317.8	
299.94	4152.6	
300.15	5465.3	
300.36	5098.8	
300.57	4149.2	
300.78	4157.4	
300.99	5352	
301.2	5548.6	
301.4	3663.1	
301.61	3981.9	
301.82	5802.6	
302.03	5894.7	
302.24	4455.7	
302.45	3495.9	
302.66	5760.3	
302.87	6277.7	
303.08	3722.5	
303.29	5014.8	
303.49	5216.9	
303.7	5535.7	
303.91	3267.2	
304.12	4758.8	
304.33	5016.8	
304.54	5620.3	
304.75	3711.6	
304.96	3560.7	
305.16	5771.2	
305.37	6499.6	
305.58	3209.8	
305.79	3377.8	
306	5850.4	
306.21	4877.6	
306.42	3708.2	
306.63	5622.4	
306.83	5357.5	
307.04	6093.4	
307.25	4092.5	
307.46	4052.2	
307.67	4709.6	
307.88	5913.9	
308.09	3606.5	
308.29	3762.8	
308.5	5543.9	
308.71	6078.4	
308.92	3945.1	
309.13	3569.6	
309.34	5300.1	
309.55	5455.1	
309.75	4542.4	
309.96	4258.4	
310.17	5891.3	
310.38	5166.3	
310.59	4422.9	
310.8	3507.5	
311.01	6213.5	
311.21	5312.4	
311.42	3520.5	
311.63	3661.8	
311.84	5241.4	
312.05	5602.6	
312.26	4083.6	
312.46	4463.9	
312.67	5287.9	
312.88	5012.1	
313.09	3549.8	
313.3	3462.4	
313.51	6253.8	
313.71	6611.5	
313.92	3551.9	
314.13	3816.7	
314.34	5623	
314.55	5343.2	
314.76	4526.7	
314.96	3958	
315.17	5499.5	
315.38	5836	
315.59	3552.5	
315.8	3416	
316.01	6336.4	
316.21	6359.6	
316.42	3444	
316.63	3997.6	
316.84	5375.2	
317.05	6163.7	
317.26	4270	
317.46	3785.3	
317.67	5434.6	
317.88	5838.1	
318.09	4524	
318.3	3366.2	
318.5	5219.6	
318.71	5788.2	
318.92	5749.3	
319.13	4194.9	
319.34	5976	
319.54	6122.7	
319.75	3296.5	
319.96	3237.2	
320.17	5843.5	
320.38	6006.7	
320.58	3238.5	
320.79	3902.7	
321	6107	
321.21	6133	
321.42	3928.7	
321.62	3244.7	
321.83	5110.4	
322.04	5522.7	
322.25	3750.5	
322.46	3595.6	
322.66	5572.5	
322.87	5709.1	
323.08	4396.3	
323.29	3497.9	
323.5	6573.3	
323.7	5038.7	
323.91	4879.6	
324.12	4389.5	
324.33	5547.9	
324.53	5793	
324.74	4210.6	
324.95	4401.1	
325.16	4849.6	
325.37	5316.5	
325.57	3650.8	
325.78	3693.2	
325.99	5558.2	
326.2	4983.4	
326.4	5193	
326.61	3300	
326.82	5395.7	
327.03	5536.3	
327.24	5108.3	
327.44	4747.9	
327.65	5728.9	
327.86	4659.8	
328.07	4240.7	
328.27	3411.9	
328.48	6161.7	
328.69	5054.4	
328.9	5145.2	
329.1	3850.2	
329.31	5383.4	
329.52	6284.5	
329.73	3560.1	
329.93	4061.8	
330.14	5490.6	
330.35	5778	
330.56	5863.3	
330.76	4425	
330.97	5286.5	
331.18	5699.5	
331.39	4005.8	
331.59	3201.7	
331.8	6047	
332.01	6148.7	
332.22	3694.5	
332.42	4227.7	
332.63	5575.3	
332.84	5226.4	
333.05	3993.5	
333.25	3627	
333.46	5210.7	
333.67	5500.2	
333.88	3782.6	
334.08	4197	
334.29	7237.5	
334.5	6096.8	
334.7	3489.7	
334.91	5145.9	
335.12	5066	
335.33	5996.5	
335.53	3939.6	
335.74	5816.9	
335.95	5240.1	
336.16	5139.7	
336.36	3990.8	
336.57	4604.5	
336.78	5008	
336.98	6071.5	
337.19	4928.8	
337.4	3888.4	
337.61	6578.8	
337.81	5029.1	
338.02	3647.4	
338.23	4810	
338.43	6292.7	
338.64	5147.2	
338.85	3652.9	
339.05	4716.5	
339.26	6312.5	
339.47	4922	
339.68	3660.4	
339.88	5336.3	
340.09	5755.5	
340.3	5953.4	
340.5	4229.7	
340.71	3208.5	
340.92	4965	
341.13	6150.7	
341.33	3491.8	
341.54	4290.5	
341.75	5771.2	
341.95	5347.2	
342.16	4016.1	
342.37	4457.1	
342.57	5083.1	
342.78	5448.3	
342.99	4445.5	
343.19	3246.7	
343.4	5949.3	
343.61	5745.9	
343.81	3871.3	
344.02	3558.7	
344.23	5920	
344.43	6353.5	
344.64	4498	
344.85	4437.3	
345.06	5772.5	
345.26	6118.6	
345.47	4159.4	
345.68	4895.3	
345.88	4885.1	
346.09	5958.9	
346.3	4270.7	
346.5	3223.5	
346.71	5487.9	
346.92	5279	
347.12	3302.7	
347.33	4162.2	
347.54	6062	
347.74	6470.2	
347.95	4115.7	
348.16	3119.1	
348.36	5300.8	
348.57	5150.6	
348.78	4188.1	
348.98	4494.6	
349.19	5448.3	
349.39	4999.8	
349.6	3379.1	
349.81	3727.3	
350.01	5741.8	
350.22	5313.1	
350.43	4048.2	
350.63	4932.2	
350.84	5593.7	
351.05	5362.9	
351.25	3707.5	
351.46	3377.1	
351.67	6111.1	
351.87	5292.6	
352.08	3891.1	
352.29	4500.1	
352.49	5978	
352.7	6077	
352.9	3583.9	
353.11	4453.6	
353.32	6646.3	
353.52	5410.7	
353.73	3602.4	
353.94	4600.4	
354.14	5898.1	
354.35	5704.3	
354.55	3706.8	
354.76	4105.5	
354.97	5884.5	
355.17	5622.4	
355.38	3573.7	
355.59	4807.9	
355.79	5379.3	
356	5768.4	
356.2	4108.2	
356.41	3581.9	
356.62	5059.2	
356.82	5624.4	
357.03	4393.6	
357.24	3983.3	
357.44	5395.7	
357.65	5535.7	
357.85	5309	
358.06	4219.5	
358.27	5195.7	
358.47	5461.9	
358.68	3603.1	
358.88	4461.8	
359.09	6001.9	
359.3	6419.7	
359.5	5173.2	
359.71	4683	
359.91	6935.8	
360.12	6189	
360.33	4559.5	
360.53	5068	
360.74	5544.5	
360.94	5589.6	
361.15	4771.1	
361.36	4065.9	
361.56	6399.9	
361.77	5748.6	
361.97	5274.2	
362.18	4311.7	
362.38	6342.6	
362.59	5452.4	
362.8	4073.4	
363	3887	
363.21	5302.9	
363.41	6034	
363.62	4566.3	
363.83	5602.6	
364.03	6093.4	
364.24	7112.6	
364.44	5673.6	
364.65	5653.1	
364.85	5853.8	
365.06	5550.7	
365.27	4302.1	
365.47	4305.5	
365.68	6944.7	
365.88	5842.9	
366.09	4739	
366.29	4451.6	
366.5	6180.1	
366.71	6660.7	
366.91	5847	
367.12	5020.3	
367.32	7249.1	
367.53	6510.5	
367.73	4917.9	
367.94	5930.2	
368.14	6431.3	
368.35	7421.8	
368.56	4959.5	
368.76	4675.5	
368.97	6550.8	
369.17	8387.1	
369.38	4373.8	
369.58	4745.8	
369.79	5654.4	
369.99	7010.9	
370.2	5662.6	
370.4	4706.9	
370.61	6328.9	
370.82	7477.8	
371.02	4748.6	
371.23	4042.7	
371.43	5639.4	
371.64	6924.9	
371.84	4848.9	
372.05	6113.2	
372.25	8398	
372.46	6841.6	
372.66	4942.4	
372.87	4941.1	
373.07	6936.5	
373.28	8526.4	
373.48	5950.7	
373.69	5726.1	
373.9	6501.6	
374.1	6570.6	
374.31	6016.9	
374.51	5593.7	
374.72	7418.4	
374.92	6244.9	
375.13	6303.6	
375.33	5455.8	
375.54	7095.5	
375.74	6493.4	
375.95	5627.8	
376.15	6912.6	
376.36	7206.1	
376.56	7015.7	
376.77	5860.6	
376.97	6283.9	
377.18	8374.8	
377.38	7445	
377.59	6720.8	
377.79	5522	
378	7335.8	
378.2	7851.2	
378.41	5663.3	
378.61	5569.1	
378.82	7840.3	
379.02	7072.3	
379.23	5827.2	
379.43	7069.6	
379.64	7994.6	
379.84	7679.9	
380.05	5626.5	
380.25	5513.8	
380.46	7761.1	
380.66	7221.8	
380.87	6941.9	
381.07	7377.5	
381.28	8327	
381.48	7720.2	
381.69	5704.3	
381.89	5772.5	
382.1	6576	
382.3	7857.4	
382.51	6858.6	
382.71	7787.1	
382.91	7634.1	
383.12	8231.5	
383.32	6017.6	
383.53	6247	
383.73	7404.1	
383.94	7348.1	
384.14	6100.9	
384.35	5271.5	
384.55	7157	
384.76	7653.9	
384.96	5995.8	
385.17	6238.8	
385.37	7613.7	
385.58	6865.5	
385.78	6267.5	
385.98	5113.8	
386.19	7034.8	
386.39	7429.3	
386.6	5750	
386.8	5944.6	
387.01	7703.1	
387.21	7758.4	
387.42	6474.3	
387.62	7131	
387.83	7121.5	
388.03	7841.7	
388.23	6314.6	
388.44	7135.8	
388.64	6827.9	
388.85	7290.8	
389.05	6721.4	
389.26	7489.4	
389.46	9163.3	
389.67	8585.1	
389.87	6890	
390.07	7023.2	
390.28	7879.9	
390.48	7382.9	
390.69	6307.7	
390.89	6524.1	
391.1	7594.6	
391.3	8591.9	
391.5	7827.3	
391.71	8307.2	
391.91	8460.8	
392.12	9444.5	
392.32	7827.3	
392.53	7016.3	
392.73	7847.1	
392.93	8034.9	
393.14	6753.5	
393.34	7578.8	
393.55	8385.7	
393.75	7867.6	
393.95	6584.9	
394.16	6548.7	
394.36	7682.6	
394.57	8225.3	
394.77	6137.1	
394.98	6570.6	
395.18	7727	
395.38	8064.2	
395.59	7713.3	
395.79	6630	
396	8085.4	
396.2	8606.9	
396.4	7692.9	
396.61	7744.7	
396.81	9032.2	
397.02	8489.5	
397.22	8256	
397.42	8268.3	
397.63	9245.9	
397.83	8575.5	
398.04	7093.5	
398.24	7808.2	
398.44	8976.2	
398.65	8304.5	
398.85	7118.7	
399.05	7301	
399.26	8613.1	
399.46	10400	
399.67	7802.1	
399.87	7516.7	
400.07	9183.8	
400.28	9563.3	
400.48	7748.8	
400.69	9007.6	
400.89	10016	
401.09	10395	
401.3	7893.6	
401.5	9040.4	
401.7	10974	
401.91	11029	
402.11	8378.9	
402.32	8370.7	
402.52	10137	
402.72	9875.3	
402.93	8662.2	
403.13	7321.5	
403.33	10497	
403.54	8937.3	
403.74	7830.1	
403.94	8602.2	
404.15	8966.7	
404.35	10127	
404.56	7537.9	
404.76	9489.6	
404.96	9537.4	
405.17	9374.2	
405.37	9131.2	
405.57	8339.3	
405.78	10093	
405.98	9324.4	
406.18	8193.9	
406.39	9214.5	
406.59	9942.9	
406.79	9583.8	
407	7914.7	
407.2	7838.9	
407.4	10014	
407.61	10316	
407.81	8175.5	
408.01	10479	
408.22	9405.6	
408.42	11617	
408.62	9949	
408.83	9752.4	
409.03	10897	
409.23	10920	
409.44	10201	
409.64	10634	
409.84	12580	
410.05	12639	
410.25	11009	
410.45	10709	
410.66	12650	
410.86	14870	
411.06	11911	
411.27	11514	
411.47	15413	
411.67	13263	
411.88	11985	
412.08	12811	
412.28	14147	
412.49	14685	
412.69	12534	
412.89	12530	
413.09	14534	
413.3	14691	
413.5	12824	
413.7	12579	
413.91	13979	
414.11	14965	
414.31	12902	
414.52	13817	
414.72	14717	
414.92	15047	
415.12	13205	
415.33	13673	
415.53	15445	
415.73	15713	
415.94	14023	
416.14	13656	
416.34	14684	
416.55	14310	
416.75	14949	
416.95	14474	
417.15	15869	
417.36	16423	
417.56	15677	
417.76	14788	
417.97	16547	
418.17	16410	
418.37	14198	
418.57	14663	
418.78	16078	
418.98	15795	
419.18	15667	
419.38	15108	
419.59	15743	
419.79	15061	
419.99	14416	
420.2	14681	
420.4	16333	
420.6	16322	
420.8	14383	
421.01	14047	
421.21	16505	
421.41	16602	
421.61	14902	
421.82	14457	
422.02	16024	
422.22	16764	
422.42	15532	
422.63	14559	
422.83	16165	
423.03	17350	
423.23	14751	
423.44	13842	
423.64	15951	
423.84	15378	
424.04	14267	
424.25	13909	
424.45	16528	
424.65	16562	
424.85	13642	
425.06	14355	
425.26	16732	
425.46	15193	
425.66	14782	
425.87	14443	
426.07	16395	
426.27	16187	
426.47	14504	
426.67	13752	
426.88	16617	
427.08	16195	
427.28	14997	
427.48	13699	
427.69	14848	
427.89	15679	
428.09	14857	
428.29	13941	
428.5	16518	
428.7	16008	
428.9	13898	
429.1	14333	
429.3	16012	
429.51	16653	
429.71	14058	
429.91	15364	
430.11	16616	
430.31	17327	
430.52	14934	
430.72	15611	
430.92	17550	
431.12	17028	
431.32	15053	
431.53	15238	
431.73	16113	
431.93	17641	
432.13	14753	
432.33	14870	
432.54	16598	
432.74	17294	
432.94	15249	
433.14	15982	
433.34	17303	
433.55	17489	
433.75	16281	
433.95	18682	
434.15	17463	
434.35	17519	
434.56	15544	
434.76	15668	
434.96	17940	
435.16	18568	
435.36	15999	
435.56	17505	
435.77	18043	
435.97	18209	
436.17	18490	
436.37	17615	
436.57	18275	
436.78	18534	
436.98	18916	
437.18	18025	
437.38	19620	
437.58	18510	
437.78	18301	
437.99	16806	
438.19	18585	
438.39	19454	
438.59	16703	
438.79	15842	
438.99	19019	
439.2	17998	
439.4	15664	
439.6	15967	
439.8	18611	
440	19787	
440.2	17744	
440.4	18054	
440.61	19944	
440.81	20585	
441.01	17822	
441.21	19341	
441.41	21582	
441.61	20538	
441.81	19896	
442.02	20762	
442.22	21578	
442.42	20895	
442.62	18615	
442.82	18097	
443.02	21490	
443.22	20769	
443.43	19310	
443.63	18775	
443.83	20173	
444.03	20484	
444.23	20923	
444.43	20241	
444.63	21478	
444.83	22509	
445.04	19900	
445.24	21168	
445.44	21343	
445.64	21926	
445.84	19798	
446.04	20129	
446.24	20579	
446.44	21596	
446.65	18644	
446.85	19633	
447.05	19883	
447.25	21285	
447.45	19208	
447.65	18642	
447.85	20743	
448.05	19854	
448.25	19874	
448.46	19802	
448.66	21017	
448.86	20413	
449.06	18894	
449.26	20043	
449.46	21659	
449.66	20431	
449.86	20200	
450.06	19954	
450.26	21235	
450.47	21762	
450.67	19839	
450.87	20638	
451.07	21779	
451.27	22066	
451.47	19488	
451.67	20816	
451.87	21913	
452.07	22229	
452.27	20508	
452.47	20029	
452.67	21831	
452.88	22653	
453.08	19198	
453.28	21818	
453.48	23569	
453.68	21490	
453.88	20745	
454.08	20428	
454.28	22868	
454.48	22405	
454.68	21275	
454.88	21779	
455.08	22799	
455.28	23556	
455.48	20356	
455.68	21984	
455.89	24114	
456.09	24137	
456.29	21613	
456.49	22422	
456.69	24622	
456.89	23485	
457.09	22951	
457.29	23829	
457.49	24453	
457.69	25137	
457.89	23763	
458.09	22743	
458.29	25092	
458.49	26037	
458.69	24622	
458.89	24176	
459.09	26850	
459.29	26837	
459.49	24205	
459.69	24974	
459.9	26006	
460.1	26473	
460.3	23507	
460.5	23583	
460.7	26329	
460.9	26146	
461.1	23635	
461.3	25679	
461.5	27784	
461.7	27506	
461.9	25440	
462.1	25164	
462.3	27531	
462.5	28134	
462.7	25745	
462.9	26450	
463.1	29586	
463.3	30105	
463.5	26616	
463.7	29002	
463.9	29076	
464.1	29561	
464.3	28748	
464.5	28080	
464.7	30354	
464.9	31049	
465.1	30122	
465.3	29133	
465.5	30733	
465.7	31429	
465.9	29940	
466.1	28627	
466.3	31961	
466.5	30926	
466.7	31610	
466.9	29597	
467.1	31667	
467.3	32504	
467.5	31879	
467.7	30800	
467.9	32991	
468.1	34376	
468.3	31075	
468.5	32314	
468.7	32604	
468.9	32375	
469.1	31631	
469.3	32583	
469.5	35187	
469.7	33152	
469.9	31509	
470.1	31840	
470.3	33178	
470.5	33208	
470.7	33005	
470.9	31464	
471.1	33639	
471.3	32514	
471.5	31695	
471.69	33128	
471.89	32502	
472.09	31853	
472.29	32451	
472.49	31591	
472.69	32784	
472.89	32869	
473.09	31601	
473.29	30450	
473.49	32360	
473.69	32208	
473.89	31799	
474.09	30950	
474.29	33269	
474.49	32783	
474.69	32299	
474.89	31029	
475.09	32352	
475.29	32482	
475.49	30295	
475.69	31308	
475.88	33331	
476.08	32498	
476.28	30593	
476.48	30216	
476.68	32249	
476.88	32068	
477.08	29994	
477.28	31033	
477.48	31055	
477.68	31807	
477.88	30185	
478.08	30316	
478.28	32947	
478.48	31779	
478.67	30803	
478.87	29392	
479.07	33571	
479.27	32163	
479.47	30919	
479.67	31104	
479.87	33007	
480.07	33661	
480.27	30369	
480.47	31914	
480.67	32174	
480.87	33531	
481.06	30728	
481.26	31772	
481.46	32724	
481.66	32692	
481.86	31440	
482.06	32546	
482.26	32425	
482.46	33103	
482.66	31434	
482.86	31323	
483.05	33215	
483.25	32338	
483.45	33941	
483.65	31860	
483.85	33034	
484.05	33397	
484.25	32219	
484.45	33415	
484.65	34368	
484.84	35116	
485.04	32241	
485.24	32351	
485.44	35263	
485.64	33595	
485.84	32374	
486.04	33707	
486.24	34268	
486.44	34597	
486.63	32537	
486.83	33720	
487.03	34944	
487.23	35663	
487.43	32804	
487.63	35722	
487.83	35619	
488.02	36521	
488.22	35206	
488.42	35965	
488.62	36666	
488.82	35878	
489.02	34160	
489.22	35176	
489.41	36343	
489.61	37074	
489.81	34448	
490.01	34843	
490.21	37166	
490.41	37767	
490.61	34835	
490.8	34908	
491	37003	
491.2	35484	
491.4	35097	
491.6	34141	
491.8	35753	
491.99	35680	
492.19	33647	
492.39	33619	
492.59	36505	
492.79	36686	
492.99	35522	
493.18	34865	
493.38	37308	
493.58	39235	
493.78	36714	
493.98	36371	
494.18	38214	
494.37	39049	
494.57	38537	
494.77	38348	
494.97	40399	
495.17	41202	
495.37	39057	
495.56	39379	
495.76	42046	
495.96	41641	
496.16	40953	
496.36	40613	
496.55	42775	
496.75	42443	
496.95	40673	
497.15	40557	
497.35	42181	
497.54	43041	
497.74	40404	
497.94	42432	
498.14	43627	
498.34	43605	
498.53	41008	
498.73	41839	
498.93	42932	
499.13	43713	
499.33	42228	
499.52	42293	
499.72	44618	
499.92	44071	
500.12	42490	
500.32	42742	
500.51	44557	
500.71	45186	
500.91	43779	
501.11	43142	
501.31	44897	
501.5	45017	
501.7	44096	
501.9	43162	
502.1	44453	
502.29	44856	
502.49	43633	
502.69	43385	
502.89	44428	
503.09	44950	
503.28	41796	
503.48	41658	
503.68	42864	
503.88	43371	
504.07	42686	
504.27	41531	
504.47	43830	
504.67	43246	
504.86	42254	
505.06	41734	
505.26	42628	
505.46	44401	
505.65	41337	
505.85	41217	
506.05	41913	
506.25	42325	
506.44	39544	
506.64	40309	
506.84	41389	
507.04	41972	
507.23	39749	
507.43	40283	
507.63	43112	
507.83	41721	
508.02	40178	
508.22	40211	
508.42	43658	
508.62	41370	
508.81	40408	
509.01	41167	
509.21	40778	
509.4	41447	
509.6	40243	
509.8	40175	
510	41271	
510.19	43134	
510.39	39788	
510.59	40384	
510.79	41533	
510.98	43308	
511.18	40417	
511.38	40916	
511.57	42185	
511.77	42441	
511.97	40819	
512.17	39690	
512.36	42295	
512.56	41734	
512.76	39858	
512.95	39513	
513.15	42067	
513.35	41041	
513.55	40606	
513.74	39791	
513.94	42177	
514.14	41718	
514.33	41083	
514.53	40860	
514.73	41737	
514.92	42220	
515.12	40522	
515.32	40378	
515.51	42591	
515.71	42770	
515.91	41938	
516.11	40860	
516.3	44718	
516.5	42283	
516.7	41331	
516.89	41910	
517.09	42337	
517.29	42463	
517.48	41832	
517.68	40909	
517.88	42291	
518.07	42877	
518.27	41639	
518.47	40330	
518.66	42987	
518.86	41746	
519.06	40219	
519.25	40778	
519.45	42319	
519.65	44505	
519.84	41553	
520.04	42950	
520.24	44569	
520.43	42918	
520.63	40953	
520.83	40923	
521.02	41775	
521.22	42036	
521.42	40518	
521.61	41306	
521.81	41480	
522.01	41338	
522.2	40586	
522.4	40159	
522.6	42525	
522.79	41738	
522.99	41008	
523.18	41341	
523.38	43609	
523.58	43793	
523.77	44210	
523.97	42556	
524.17	46843	
524.36	46161	
524.56	44706	
524.76	44390	
524.95	46244	
525.15	45619	
525.34	44904	
525.54	45287	
525.74	47241	
525.93	46631	
526.13	46974	
526.33	46337	
526.52	48273	
526.72	47933	
526.91	47863	
527.11	47387	
527.31	48830	
527.5	49391	
527.7	47583	
527.89	46866	
528.09	48510	
528.29	49611	
528.48	48058	
528.68	47601	
528.87	49605	
529.07	49151	
529.27	47601	
529.46	47401	
529.66	49424	
529.85	50046	
530.05	47592	
530.25	48085	
530.44	51017	
530.64	48822	
530.83	47628	
531.03	48187	
531.23	49671	
531.42	49438	
531.62	48854	
531.81	48509	
532.01	50878	
532.21	51585	
532.4	49744	
532.6	50379	
532.79	52693	
532.99	53038	
533.18	51459	
533.38	51916	
533.58	53161	
533.77	53238	
533.97	52141	
534.16	52970	
534.36	54308	
534.55	53623	
534.75	53078	
534.95	52463	
535.14	54891	
535.34	53797	
535.53	51893	
535.73	53623	
535.92	54816	
536.12	53382	
536.31	51685	
536.51	52752	
536.71	53014	
536.9	52945	
537.1	51189	
537.29	51736	
537.49	53593	
537.68	52764	
537.88	52308	
538.07	51445	
538.27	53490	
538.46	54428	
538.66	51652	
538.86	52536	
539.05	53593	
539.25	54241	
539.44	53274	
539.64	52126	
539.83	53570	
540.03	54162	
540.22	52135	
540.42	51270	
540.61	52639	
540.81	53386	
541	51098	
541.2	52602	
541.39	52231	
541.59	52967	
541.78	52504	
541.98	50635	
542.18	51853	
542.37	51626	
542.57	50560	
542.76	51906	
542.96	51160	
543.15	51801	
543.35	49865	
543.54	49254	
543.74	50943	
543.93	50861	
544.13	48931	
544.32	50145	
544.52	50266	
544.71	49682	
544.91	48032	
545.1	49105	
545.3	50170	
545.49	50661	
545.69	47913	
545.88	48305	
546.08	51723	
546.27	50764	
546.47	48937	
546.66	48055	
546.86	50222	
547.05	50734	
547.24	48089	
547.44	48253	
547.63	48947	
547.83	50650	
548.02	48790	
548.22	48421	
548.41	48811	
548.61	49934	
548.8	47398	
549	47380	
549.19	48783	
549.39	49450	
549.58	46829	
549.78	47500	
549.97	49069	
550.17	48462	
550.36	47276	
550.55	48598	
550.75	47956	
550.94	48927	
551.14	46396	
551.33	45983	
551.53	47414	
551.72	48419	
551.92	46293	
552.11	46195	
552.31	47959	
552.5	47920	
552.69	47664	
552.89	45309	
553.08	48221	
553.28	47284	
553.47	45939	
553.67	46963	
553.86	47933	
554.06	46413	
554.25	44651	
554.44	45328	
554.64	48430	
554.83	48094	
555.03	45322	
555.22	45652	
555.42	47318	
555.61	46888	
555.8	44728	
556	45151	
556.19	46100	
556.39	47109	
556.58	44926	
556.78	44990	
556.97	46720	
557.16	46638	
557.36	46279	
557.55	44900	
557.75	45463	
557.94	47662	
558.13	44778	
558.33	44661	
558.52	47157	
558.72	45999	
558.91	44305	
559.1	44179	
559.3	45416	
559.49	44603	
559.69	43730	
559.88	44468	
560.07	45796	
560.27	46298	
560.46	44351	
560.66	44653	
560.85	45736	
561.04	44448	
561.24	43667	
561.43	43248	
561.63	44737	
561.82	44833	
562.01	45039	
562.21	43956	
562.4	44995	
562.59	46566	
562.79	44002	
562.98	43910	
563.18	45823	
563.37	47372	
563.56	44649	
563.76	44537	
563.95	45690	
564.14	45809	
564.34	45144	
564.53	44373	
564.73	46273	
564.92	47275	
565.11	45298	
565.31	44705	
565.5	47238	
565.69	46283	
565.89	44863	
566.08	45489	
566.27	46950	
566.47	48051	
566.66	45991	
566.85	45234	
567.05	47200	
567.24	46724	
567.44	45477	
567.63	46649	
567.82	47638	
568.02	47070	
568.21	45436	
568.4	45665	
568.6	47560	
568.79	47657	
568.98	45723	
569.18	46224	
569.37	48139	
569.56	49769	
569.76	46666	
569.95	48105	
570.14	48201	
570.34	48769	
570.53	46264	
570.72	46244	
570.91	48985	
571.11	48245	
571.3	46735	
571.49	47535	
571.69	48237	
571.88	47653	
572.07	47834	
572.27	47076	
572.46	48039	
572.65	48857	
572.85	47147	
573.04	47492	
573.23	49660	
573.43	48798	
573.62	47068	
573.81	47873	
574	49800	
574.2	49151	
574.39	48449	
574.58	48615	
574.78	51397	
574.97	50626	
575.16	49551	
575.36	49947	
575.55	51810	
575.74	51270	
575.93	48729	
576.13	50783	
576.32	50613	
576.51	51740	
576.71	49296	
576.9	51007	
577.09	51862	
577.28	51242	
577.48	50022	
577.67	49084	
577.86	51091	
578.05	51934	
578.25	49985	
578.44	49972	
578.63	51337	
578.83	52912	
579.02	49473	
579.21	51334	
579.4	51815	
579.6	51899	
579.79	50048	
579.98	52577	
580.17	52267	
580.37	52468	
580.56	49555	
580.75	50833	
580.94	52824	
581.14	52284	
581.33	51380	
581.52	50173	
581.71	52543	
581.91	52816	
582.1	50213	
582.29	50439	
582.48	51817	
582.68	52339	
582.87	51052	
583.06	50894	
583.25	52418	
583.45	51947	
583.64	51897	
583.83	52687	
584.02	51926	
584.21	52750	
584.41	51404	
584.6	51334	
584.79	52768	
584.98	53490	
585.18	50610	
585.37	50470	
585.56	51908	
585.75	53100	
585.94	50161	
586.14	51052	
586.33	52216	
586.52	51914	
586.71	50177	
586.91	49919	
587.1	50150	
587.29	51570	
587.48	48783	
587.67	49426	
587.87	50744	
588.06	50610	
588.25	49950	
588.44	49301	
588.63	49645	
588.83	50337	
589.02	47901	
589.21	47499	
589.4	48438	
589.59	48289	
589.78	45120	
589.98	45158	
590.17	45840	
590.36	46602	
590.55	42852	
590.74	42840	
590.94	46361	
591.13	44357	
591.32	42575	
591.51	42189	
591.7	45322	
591.89	44984	
592.09	42719	
592.28	43517	
592.47	44400	
592.66	46941	
592.85	43644	
593.05	43798	
593.24	44984	
593.43	46139	
593.62	43706	
593.81	44207	
594	45367	
594.19	45461	
594.39	43461	
594.58	43501	
594.77	45545	
594.96	45967	
595.15	43115	
595.34	43654	
595.54	44932	
595.73	43982	
595.92	41820	
596.11	43054	
596.3	44982	
596.49	43729	
596.68	42319	
596.88	43049	
597.07	44713	
597.26	43605	
597.45	41821	
597.64	43443	
597.83	43708	
598.02	44395	
598.22	41848	
598.41	42437	
598.6	44308	
598.79	43505	
598.98	41641	
599.17	42937	
599.36	44017	
599.55	44644	
599.74	43985	
599.94	43588	
600.13	44033	
600.32	42716	
600.51	41276	
600.7	41519	
600.89	44578	
601.08	44939	
601.27	41101	
601.47	42081	
601.66	43649	
601.85	44422	
602.04	41874	
602.23	41591	
602.42	42851	
602.61	43253	
602.8	41133	
602.99	40913	
603.18	42585	
603.37	43237	
603.57	41024	
603.76	41763	
603.95	43678	
604.14	43190	
604.33	41151	
604.52	41532	
604.71	43347	
604.9	42714	
605.09	41830	
605.28	41731	
605.47	43807	
605.66	42946	
605.86	41877	
606.05	40978	
606.24	43384	
606.43	41891	
606.62	41378	
606.81	41769	
607	43052	
607.19	42547	
607.38	40104	
607.57	40448	
607.76	42075	
607.95	41358	
608.14	40593	
608.33	41338	
608.52	41876	
608.72	42852	
608.91	39749	
609.1	39645	
609.29	41785	
609.48	40884	
609.67	40266	
609.86	39273	
610.05	40990	
610.24	41091	
610.43	39229	
610.62	38944	
610.81	42163	
611	41922	
611.19	39331	
611.38	39739	
611.57	41379	
611.76	42656	
611.95	38956	
612.14	38589	
612.33	41052	
612.52	40748	
612.71	39415	
612.9	38770	
613.09	40260	
613.28	42614	
613.47	38739	
613.66	40129	
613.85	41015	
614.04	40312	
614.24	38990	
614.43	38311	
614.62	41265	
614.81	41072	
615	39490	
615.19	40139	
615.38	40400	
615.57	41290	
615.76	39572	
615.95	40780	
616.14	41566	
616.33	40905	
616.52	40119	
616.71	40175	
616.9	41129	
617.09	41594	
617.28	39335	
617.47	40510	
617.66	40695	
617.85	41160	
618.04	40983	
618.22	40152	
618.41	41836	
618.6	43280	
618.79	40873	
618.98	40997	
619.17	43857	
619.36	42162	
619.55	41474	
619.74	41319	
619.93	43415	
620.12	43126	
620.31	42357	
620.5	42620	
620.69	44493	
620.88	45016	
621.07	43530	
621.26	42849	
621.45	44619	
621.64	44671	
621.83	42968	
622.02	42557	
622.21	44456	
622.4	44525	
622.59	43788	
622.78	43897	
622.97	44250	
623.16	45507	
623.35	43474	
623.54	42570	
623.72	44632	
623.91	44658	
624.1	43984	
624.29	42413	
624.48	45823	
624.67	45021	
624.86	43749	
625.05	42776	
625.24	46128	
625.43	44521	
625.62	45530	
625.81	43335	
626	45199	
626.19	45168	
626.38	44141	
626.56	43563	
626.75	44799	
626.94	45993	
627.13	44160	
627.32	42992	
627.51	45688	
627.7	46976	
627.89	42695	
628.08	44149	
628.27	44422	
628.46	44625	
628.65	42868	
628.83	42637	
629.02	44824	
629.21	44377	
629.4	43359	
629.59	43446	
629.78	44469	
629.97	45139	
630.16	43644	
630.35	43027	
630.54	45631	
630.72	45310	
630.91	43102	
631.1	43478	
631.29	44792	
631.48	44957	
631.67	43403	
631.86	42396	
632.05	44648	
632.24	44421	
632.42	42372	
632.61	43190	
632.8	44166	
632.99	44199	
633.18	43490	
633.37	43238	
633.56	44684	
633.75	44417	
633.93	43044	
634.12	42910	
634.31	45027	
634.5	45086	
634.69	42738	
634.88	42750	
635.07	44285	
635.25	44816	
635.44	43308	
635.63	43975	
635.82	43738	
636.01	43192	
636.2	42929	
636.39	42750	
636.57	44586	
636.76	43950	
636.95	41806	
637.14	43158	
637.33	43918	
637.52	45069	
637.7	41639	
637.89	42512	
638.08	44039	
638.27	44904	
638.46	42631	
638.65	42628	
638.83	44070	
639.02	42940	
639.21	41834	
639.4	42489	
639.59	42963	
639.78	42438	
639.96	40406	
640.15	40255	
640.34	42340	
640.53	42344	
640.72	39985	
640.91	40296	
641.09	41384	
641.28	42537	
641.47	40120	
641.66	41171	
641.85	42105	
642.03	41814	
642.22	40473	
642.41	39780	
642.6	41254	
642.79	40385	
642.97	39025	
643.16	40221	
643.35	40885	
643.54	40391	
643.73	38946	
643.91	39660	
644.1	39453	
644.29	40755	
644.48	38102	
644.67	38240	
644.85	39389	
645.04	39616	
645.23	36883	
645.42	37443	
645.6	38296	
645.79	39070	
645.98	36418	
646.17	35394	
646.36	36876	
646.54	37301	
646.73	36080	
646.92	34988	
647.11	36443	
647.29	37479	
647.48	35115	
647.67	34581	
647.86	37212	
648.05	37885	
648.23	34691	
648.42	36202	
648.61	36587	
648.8	36646	
648.98	34194	
649.17	34608	
649.36	35778	
649.55	35518	
649.73	34149	
649.92	35258	
650.11	36113	
650.3	36178	
650.48	34418	
650.67	34101	
650.86	36037	
651.05	34935	
651.23	33952	
651.42	33607	
651.61	35387	
651.79	34679	
651.98	33798	
652.17	33221	
652.36	35136	
652.54	34331	
652.73	33167	
652.92	32849	
653.11	34766	
653.29	35055	
653.48	32021	
653.67	32917	
653.85	34364	
654.04	35162	
654.23	32494	
654.42	31603	
654.6	32204	
654.79	32808	
654.98	29952	
655.16	30225	
655.35	30695	
655.54	30569	
655.73	29135	
655.91	28911	
656.1	31294	
656.29	30642	
656.47	29080	
656.66	31004	
656.85	31499	
657.03	32013	
657.22	30492	
657.41	31075	
657.59	32324	
657.78	32430	
657.97	30777	
658.16	31500	
658.34	33129	
658.53	33656	
658.72	32303	
658.9	32772	
659.09	32782	
659.28	32782	
659.46	31260	
659.65	31243	
659.84	32606	
660.02	33189	
660.21	31113	
660.4	31032	
660.58	33332	
660.77	32766	
660.96	31605	
661.14	30577	
661.33	33847	
661.52	33582	
661.7	30408	
661.89	34189	
662.08	32135	
662.26	31804	
662.45	30511	
662.64	30428	
662.82	32722	
663.01	32017	
663.2	30342	
663.38	31442	
663.57	32151	
663.75	32206	
663.94	30912	
664.13	31807	
664.31	31576	
664.5	32213	
664.69	30585	
664.87	31376	
665.06	31312	
665.25	32080	
665.43	31625	
665.62	31340	
665.8	32157	
665.99	31365	
666.18	30279	
666.36	30438	
666.55	31868	
666.74	32028	
666.92	29915	
667.11	30978	
667.29	31257	
667.48	31751	
667.67	30878	
667.85	29873	
668.04	31309	
668.22	31511	
668.41	30042	
668.6	30043	
668.78	30932	
668.97	31060	
669.15	30131	
669.34	29253	
669.53	30970	
669.71	31105	
669.9	29167	
670.08	29803	
670.27	30820	
670.46	31287	
670.64	29714	
670.83	30444	
671.01	30498	
671.2	30922	
671.38	29473	
671.57	28938	
671.76	31706	
671.94	32589	
672.13	28996	
672.31	29859	
672.5	31612	
672.69	30981	
672.87	29488	
673.06	29733	
673.24	31187	
673.43	30933	
673.61	29862	
673.8	29476	
673.98	30990	
674.17	31496	
674.36	29898	
674.54	29645	
674.73	30712	
674.91	31124	
675.1	29579	
675.28	28998	
675.47	30729	
675.65	31391	
675.84	29279	
676.03	29556	
676.21	30245	
676.4	30218	
676.58	29827	
676.77	29869	
676.95	31917	
677.14	30281	
677.32	28807	
677.51	28618	
677.69	31107	
677.88	30049	
678.06	28829	
678.25	28916	
678.44	30740	
678.62	30116	
678.81	28334	
678.99	29560	
679.18	31172	
679.36	30942	
679.55	29037	
679.73	29668	
679.92	30701	
680.1	30245	
680.29	30464	
680.47	28999	
680.66	29980	
680.84	30919	
681.03	28295	
681.21	29358	
681.4	30166	
681.58	30035	
681.77	28564	
681.95	28571	
682.14	30746	
682.32	31153	
682.51	29289	
682.69	28091	
682.88	29666	
683.06	29904	
683.25	28786	
683.43	29296	
683.62	29997	
683.8	30264	
683.99	29313	
684.17	28460	
684.36	30693	
684.54	28958	
684.73	26470	
684.91	26382	
685.1	27956	
685.28	26970	
685.46	25696	
685.65	25672	
685.83	26972	
686.02	26204	
686.2	24870	
686.39	25073	
686.57	26516	
686.76	28208	
686.94	25469	
687.13	25915	
687.31	27580	
687.5	27433	
687.68	25479	
687.86	26770	
688.05	29160	
688.23	27123	
688.42	26926	
688.6	26475	
688.79	27804	
688.97	27694	
689.16	27083	
689.34	25855	
689.52	28879	
689.71	28807	
689.89	27620	
690.08	26823	
690.26	28416	
690.45	28382	
690.63	27394	
690.81	27064	
691	27684	
691.18	28061	
691.37	26822	
691.55	28677	
691.74	27538	
691.92	29448	
692.1	26342	
692.29	25796	
692.47	27560	
692.66	26791	
692.84	26060	
693.02	26488	
693.21	27339	
693.39	27387	
693.58	27162	
693.76	26413	
693.94	29255	
694.13	29445	
694.31	27008	
694.5	28091	
694.68	28394	
694.86	28883	
695.05	27871	
695.23	27839	
695.42	29549	
695.6	31892	
695.78	28583	
695.97	27405	
696.15	29521	
696.34	28831	
696.52	26938	
696.7	27661	
696.89	28698	
697.07	27990	
697.25	27248	
697.44	28851	
697.62	28272	
697.81	28350	
697.99	26524	
698.17	27282	
698.36	27228	
698.54	28048	
698.72	27101	
698.91	25563	
699.09	27357	
699.28	27399	
699.46	26219	
699.64	26061	
699.83	26972	
700.01	27913	
700.19	26820	
700.38	25477	
700.56	28350	
700.74	27537	
700.93	25757	
701.11	26749	
701.29	27783	
701.48	29495	
701.66	26354	
701.84	26635	
702.03	27813	
702.21	28829	
702.39	25775	
702.58	26957	
702.76	28107	
702.94	28162	
703.13	25731	
703.31	28502	
703.49	27517	
703.68	28355	
703.86	25875	
704.04	27075	
704.23	27461	
704.41	28050	
704.59	25929	
704.78	26924	
704.96	28807	
705.14	27996	
705.33	25963	
705.51	26192	
705.69	27461	
705.87	28257	
706.06	26574	
706.24	25447	
706.42	27588	
706.61	27815	
706.79	26495	
706.97	25356	
707.16	26667	
707.34	27101	
707.52	25966	
707.7	25495	
707.89	26845	
708.07	26429	
708.25	26004	
708.44	26658	
708.62	26449	
708.8	27456	
708.98	26154	
709.17	25148	
709.35	26707	
709.53	26367	
709.72	24563	
709.9	24755	
710.08	26611	
710.26	26497	
710.45	25876	
710.63	24525	
710.81	26114	
710.99	25800	
711.18	24985	
711.36	24210	
711.54	25615	
711.72	26062	
711.91	23795	
712.09	23307	
712.27	25072	
712.45	25464	
712.64	23535	
712.82	22582	
713	23632	
713.18	23518	
713.37	21864	
713.55	22675	
713.73	23833	
713.91	21709	
714.1	20672	
714.28	19714	
714.46	21486	
714.64	20056	
714.83	17618	
715.01	17930	
715.19	18877	
715.37	18013	
715.55	16810	
715.74	17036	
715.92	19215	
716.1	17034	
716.28	17862	
716.47	16684	
716.65	17383	
716.83	17478	
717.01	16412	
717.19	16248	
717.38	19527	
717.56	17072	
717.74	16845	
717.92	16158	
718.1	18567	
718.29	18057	
718.47	16214	
718.65	17256	
718.83	19742	
719.01	20084	
719.2	17219	
719.38	18593	
719.56	19885	
719.74	21379	
719.92	17821	
720.11	18649	
720.29	19276	
720.47	18161	
720.65	16490	
720.83	17034	
721.02	17681	
721.2	17126	
721.38	16401	
721.56	15529	
721.74	16282	
721.92	16322	
722.11	16606	
722.29	16365	
722.47	17608	
722.65	16656	
722.83	15333	
723.01	16069	
723.2	16752	
723.38	17193	
723.56	14674	
723.74	15652	
723.92	16071	
724.1	17356	
724.29	15026	
724.47	16078	
724.65	16131	
724.83	15887	
725.01	14539	
725.19	15546	
725.37	15898	
725.56	15856	
725.74	14498	
725.92	14685	
726.1	15786	
726.28	15999	
726.46	14917	
726.64	14441	
726.83	15739	
727.01	16006	
727.19	14204	
727.37	15075	
727.55	15954	
727.73	16425	
727.91	14175	
728.09	14038	
728.28	16571	
728.46	16935	
728.64	15171	
728.82	15212	
729	17863	
729.18	17112	
729.36	14600	
729.54	16771	
729.72	18538	
729.91	16796	
730.09	16772	
730.27	15878	
730.45	16824	
730.63	17414	
730.81	16354	
730.99	15496	
731.17	18135	
731.35	16554	
731.53	15907	
731.71	15472	
731.9	17647	
732.08	17716	
732.26	15421	
732.44	15198	
732.62	17656	
732.8	17111	
732.98	15819	
733.16	14859	
733.34	16741	
733.52	15488	
733.7	14946	
733.88	15279	
734.07	16395	
734.25	16389	
734.43	14468	
734.61	16081	
734.79	17830	
734.97	16083	
735.15	14554	
735.33	14806	
735.51	16210	
735.69	15857	
735.87	15862	
736.05	14837	
736.23	16081	
736.41	15763	
736.59	14606	
736.77	14706	
736.95	16477	
737.13	15801	
737.32	14135	
737.5	14489	
737.68	16963	
737.86	15418	
738.04	13820	
738.22	15613	
738.4	14978	
738.58	15283	
738.76	14334	
738.94	13260	
739.12	15275	
739.3	15300	
739.48	14721	
739.66	14795	
739.84	15414	
740.02	15435	
740.2	13194	
740.38	13449	
740.56	15852	
740.74	14418	
740.92	14112	
741.1	13836	
741.28	14760	
741.46	14627	
741.64	13291	
741.82	13866	
742	14677	
742.18	14493	
742.36	13430	
742.54	12805	
742.72	15121	
742.9	13631	
743.08	13610	
743.26	12366	
743.44	15050	
743.62	14939	
743.8	13503	
743.98	12643	
744.16	14512	
744.34	14143	
744.52	13341	
744.7	13190	
744.88	14428	
745.06	13748	
745.24	13047	
745.42	13105	
745.6	14212	
745.78	13915	
745.96	11667	
746.14	11945	
746.32	14674	
746.5	13901	
746.68	12377	
746.86	11757	
747.03	14349	
747.21	12527	
747.39	12095	
747.57	11600	
747.75	13257	
747.93	13749	
748.11	11609	
748.29	11459	
748.47	14817	
748.65	12865	
748.83	12304	
749.01	11853	
749.19	13345	
749.37	12468	
749.55	11614	
749.73	11721	
749.91	12895	
750.09	12647	
750.26	11694	
750.44	11004	
750.62	12892	
750.8	12755	
750.98	10853	
751.16	11139	
751.34	12912	
751.52	12154	
751.7	11992	
751.88	10831	
752.06	13310	
752.24	13042	
752.42	10546	
752.59	10992	
752.77	12439	
752.95	13890	
753.13	11749	
753.31	11037	
753.49	12148	
753.67	12586	
753.85	11156	
754.03	10662	
754.21	12478	
754.38	12818	
754.56	10464	
754.74	9269.1	
754.92	11266	
755.1	11787	
755.28	8771.5	
755.46	8301.8	
755.64	11368	
755.82	10912	
755.99	7335.1	
756.17	7073.7	
756.35	7365.9	
756.53	8744.8	
756.71	5350	
756.89	6354.8	
757.07	8432.2	
757.25	7545.4	
757.42	7385.7	
757.6	8461.5	
757.78	9301.2	
757.96	8321.6	
758.14	7746.1	
758.32	7249.8	
758.5	7847.8	
758.67	8644.5	
758.85	7198.6	
759.03	7385.7	
759.21	8582.4	
759.39	8123.6	
759.57	6810.2	
759.75	7991.2	
759.92	9528.5	
760.1	8875.2	
760.28	8620.6	
760.46	8944.2	
760.64	8798.8	
760.82	8503.8	
760.99	8775.5	
761.17	7976.8	
761.35	9954.5	
761.53	9019.3	
761.71	8243.8	
761.89	9057.5	
762.06	9985.2	
762.24	9491	
762.42	8561.9	
762.6	8392.6	
762.78	9746.3	
762.96	10445	
763.13	9082.1	
763.31	8943.5	
763.49	10777	
763.67	9797.5	
763.85	9680.1	
764.02	10220	
764.2	11021	
764.38	10066	
764.56	8528.4	
764.74	9385.8	
764.91	10970	
765.09	9732.6	
765.27	8211.7	
765.45	7875.1	
765.63	10878	
765.8	10891	
765.98	7570.7	
766.16	7959.8	
766.34	9091.6	
766.52	8828.1	
766.69	8866.3	
766.87	7565.9	
767.05	9350.3	
767.23	10121	
767.41	7826	
767.58	7961.8	
767.76	9801.6	
767.94	9906.7	
768.12	7675.8	
768.29	8446.5	
768.47	9230.2	
768.65	9899.2	
768.83	7228	
769	8395.3	
769.18	8604.9	
769.36	9327.1	
769.54	8247.9	
769.72	7045.7	
769.89	9364.7	
770.07	9605.7	
770.25	7317.4	
770.43	8618.5	
770.6	10087	
770.78	10483	
770.96	7380.9	
771.14	7937.9	
771.31	9079.3	
771.49	8390.5	
771.67	6410.8	
771.85	6610.8	
772.02	7514	
772.2	8275.2	
772.38	7281.2	
772.55	6686.6	
772.73	8542.8	
772.91	8193.9	
773.09	7035.5	
773.26	7103	
773.44	8295.6	
773.62	7903.1	
773.8	6468.2	
773.97	6134.3	
774.15	8233.5	
774.33	7833.5	
774.5	6250.4	
774.68	6469.5	
774.86	8351.6	
775.04	7723.6	
775.21	6247	
775.39	6151.4	
775.57	7975.5	
775.74	8323.6	
775.92	5965.7	
776.1	5784.8	
776.27	7828	
776.45	9014.5	
776.63	5954.8	
776.81	5488.6	
776.98	7316	
777.16	8506.6	
777.34	5971.9	
777.51	6253.8	
777.69	7279.8	
777.87	7044.3	
778.04	5919.3	
778.22	6609.5	
778.4	6937.2	
778.57	7701	
778.75	5107	
778.93	5457.2	
779.1	6688	
779.28	6537.8	
779.46	5100.8	
779.64	5582.1	
779.81	7623.9	
779.99	8551	
780.17	6298.2	
780.34	6399.9	
780.52	7010.9	
780.69	7205.4	
780.87	5803.3	
781.05	5328.1	
781.22	7032.7	
781.4	7007.5	
781.58	5381.4	
781.75	4453.6	
781.93	6982.2	
782.11	6328.2	
782.28	6195.8	
782.46	5254.4	
782.64	6053.8	
782.81	7036.1	
782.99	5349.3	
783.17	5283.8	
783.34	6899.6	
783.52	6070.2	
783.69	5441.5	
783.87	6302.3	
784.05	6184.2	
784.22	6152.1	
784.4	6076.3	
784.58	5427.1	
784.75	7027.3	
784.93	6053.1	
785.1	5096	
785.28	5644.2	
785.46	6718	
785.63	5939.1	
785.81	4973.8	
785.99	4818.2	
786.16	6117.3	
786.34	6473.6	
786.51	4889.2	
786.69	5268.1	
786.87	5709.7	
787.04	6199.2	
787.22	4688.5	
787.39	5594.4	
787.57	5831.2	
787.75	7021.1	
787.92	5799.2	
788.1	5744.6	
788.27	5860.6	
788.45	5619.6	
788.63	5304.2	
788.8	3978.5	
788.98	6206.7	
789.15	5518.6	
789.33	4204.5	
789.5	4891.9	
789.68	6825.2	
789.86	6868.2	
790.03	5292	
790.21	4593.6	
790.38	6711.2	
790.56	5824.4	
790.73	4424.3	
790.91	4487.1	
791.09	5706.3	
791.26	6488.6	
791.44	4706.9	
791.61	4102.8	
791.79	5647.6	
791.96	5774.6	
792.14	4255	
792.32	3784.6	
792.49	5591.6	
792.67	5785.5	
792.84	4259.8	
793.02	4102.8	
793.19	6086.6	
793.37	6854.6	
793.54	3801.7	
793.72	4156	
793.89	7019.1	
794.07	5577.3	
794.25	4786.8	
794.42	3796.9	
794.6	6673.6	
794.77	6248.4	
794.95	4990.2	
795.12	4422.9	
795.3	5522	
795.47	6200.6	
795.65	4765.6	
795.82	4693.9	
796	5408.7	
796.17	7249.8	
796.35	4416.8	
796.52	5193	
796.7	6082.5	
796.87	6180.8	
797.05	5418.2	
797.22	5296	
797.4	6156.2	
797.57	7190.4	
797.75	4592.2	
797.92	4344.4	
798.1	6445	
798.27	5462.6	
798.45	3700.7	
798.62	3958.7	
798.8	5819	
798.97	6300.9	
799.15	4702.8	
799.32	4581.3	
799.5	5048.9	
799.67	5856.5	
799.85	4901.5	
800.02	3674.1	
800.2	5421.7	
800.37	5791	
800.55	5011.4	
800.72	4311.7	
800.9	6236.1	
801.07	6690	
801.25	5665.4	
801.42	4624.3	
801.6	6303	
801.77	5964.4	
801.95	4276.8	
802.12	4151.9	
802.29	5942.5	
802.47	5929.6	
802.64	4552.6	
802.82	3532.1	
802.99	5343.2	
803.17	6383.5	
803.34	4437.9	
803.52	4033.1	
803.69	7049.8	
803.87	5144.5	
804.04	4418.8	
804.21	4506.9	
804.39	6492.7	
804.56	5593.7	
804.74	3788.7	
804.91	4547.2	
805.09	5347.9	
805.26	5473.5	
805.44	3813.3	
805.61	4194.2	
805.78	6029.9	
805.96	6109.1	
806.13	4529.4	
806.31	4906.3	
806.48	4879.6	
806.66	5413.5	
806.83	4532.2	
807	4448.9	
807.18	5243.5	
807.35	5723.4	
807.53	4377.9	
807.7	3546.4	
807.87	6519.4	
808.05	5344.5	
808.22	4836.6	
808.4	3500	
808.57	5356.8	
808.74	4909	
808.92	3957.4	
809.09	5005.9	
809.27	5160.2	
809.44	5819.6	
809.61	3542.3	
809.79	3900.7	
809.96	6486.6	
810.14	6011.5	
810.31	3446.7	
810.48	4156	
810.66	5369.8	
810.83	6071.5	
811.01	3934.8	
811.18	4412.7	
811.35	6016.9	
811.53	4711	
811.7	4775.9	
811.87	4429.1	
812.05	5229.1	
812.22	5244.2	
812.39	3857	
812.57	3747.1	
812.74	5268.1	
812.92	7048.4	
813.09	4132.8	
813.26	4509.6	
813.44	6693.4	
813.61	5222.3	
813.78	3465.2	
813.96	4629.1	
814.13	5222.3	
814.3	4959.5	
814.48	5046.2	
814.65	4173.1	
814.82	6531.7	
815	5056.4	
815.17	4251.6	
815.34	5243.5	
815.52	5203.2	
815.69	5202.5	
815.87	4252.9	
816.04	3722.5	
816.21	5343.8	
816.38	4643.4	
816.56	4121.2	
816.73	3832.4	
816.9	6570.6	
817.08	5982.8	
817.25	3857.7	
817.42	4833.9	
817.6	4779.3	
817.77	5244.2	
817.94	4397.7	
818.12	3823.6	
818.29	4954.7	
818.46	7834.2	
818.64	4021.5	
818.81	3731.4	
818.98	4958.1	
819.16	7124.2	
819.33	4570.4	
819.5	4284.4	
819.67	5616.2	
819.85	6226.5	
820.02	4204.5	
820.19	4450.9	
820.37	5447.6	
820.54	5026.4	
820.71	4309.6	
820.88	5331.5	
821.06	5492.7	
821.23	5012.7	
821.4	4379.2	
821.58	4261.8	
821.75	5966.4	
821.92	5371.1	
822.09	3454.2	
822.27	3612.6	
822.44	5263.3	
822.61	5143.1	
822.79	3540.9	
822.96	6660	
823.13	5725.4	
823.3	4958.1	
823.48	4080.9	
823.65	3666.5	
823.82	6003.3	
823.99	4786.8	
824.17	5072.8	
824.34	3636.5	
824.51	6856.6	
824.68	5294.7	
824.86	3844.7	
825.03	4325.3	
825.2	5212.8	
825.37	6328.9	
825.55	3823.6	
825.72	4224.3	
825.89	7026.6	
826.06	6396.5	
826.24	4177.2	
826.41	4133.5	
826.58	6356.2	
826.75	5500.2	
826.92	3277.4	
827.1	3644.7	
827.27	8671.8	
827.44	6883.2	
827.61	3919.1	
827.79	4777.9	
827.96	4954	
828.13	5315.2	
828.3	4095.9	
828.47	3505.4	
828.65	5428.5	
828.82	5413.5	
828.99	5294.7	
829.16	4590.9	
829.34	5872.2	
829.51	5621	
829.68	4237.9	
829.85	4461.2	
830.02	6129.6	
830.2	5824.4	
830.37	3354.6	
830.54	5070.1	
830.71	6631.3	
830.88	5222.3	
831.05	3386	
831.23	3913.7	
831.4	6382.8	
831.57	7181.5	
831.74	3919.1	
831.91	3500	
832.09	5465.3	
832.26	5837.4	
832.43	4085	
832.6	4560.8	
832.77	5456.5	
832.94	6233.3	
833.12	3248.1	
833.29	4029	
833.46	5667.4	
833.63	7376.8	
833.8	4452.3	
833.97	4097.3	
834.15	5866.7	
834.32	5682.4	
834.49	4237.2	
834.66	4300.1	
834.83	6061.3	
835	4907.6	
835.17	3928	
835.35	3909.6	
835.52	5745.9	
835.69	5629.2	
835.86	4138.9	
836.03	3450.1	
836.2	5790.3	
836.37	5404.6	
836.55	4066.6	
836.72	3847.5	
836.89	5371.8	
837.06	5898.1	
837.23	4233.8	
837.4	4500.8	
837.57	6634.7	
837.75	7366.5	
837.92	3671.3	
838.09	3954.6	
838.26	5358.9	
838.43	6134.3	
838.6	4190.8	
838.77	3813.3	
838.94	6956.3	
839.11	6689.3	
839.29	4036.5	
839.46	3155.9	
839.63	5795.8	
839.8	5537	
839.97	3954.6	
840.14	3917.1	
840.31	5558.9	
840.48	5821.7	
840.65	3281.5	
840.82	4057.7	
841	5841.5	
841.17	5766.4	
841.34	3623.5	
841.51	3639.2	
841.68	5705	
841.85	5446.9	
842.02	3786.7	
842.19	3140.9	
842.36	5521.3	
842.53	5515.9	
842.7	3610.6	
842.87	4420.2	
843.05	7297.6	
843.22	5455.8	
843.39	3476.8	
843.56	3700	
843.73	5278.3	
843.9	5862	
844.07	5809.4	
844.24	4863.2	
844.41	8501.1	
844.58	5051	
844.75	3452.2	
844.92	3785.3	
845.09	5802.6	
845.26	5752.7	
845.43	3584.6	
845.6	3776.5	
845.77	5825.8	
845.94	5547.3	
846.12	3981.9	
846.29	4217.5	
846.46	6047	
846.63	5855.1	
846.8	3575.1	
846.97	4253.6	
847.14	6266.8	
847.31	5748	
847.48	4050.2	
847.65	4468.7	
847.82	6058.6	
847.99	6031.3	
848.16	4823	
848.33	4473.4	
848.5	5332.2	
848.67	6300.9	
848.84	3538.2	
849.01	3705.5	
849.18	5164.3	
849.35	4872.1	
849.52	4475.5	
849.69	3463.8	
849.86	6019.7	
850.03	6195.8	
850.2	3656.3	
850.37	4405.2	
850.54	6175.3	
850.71	5425.8	
850.88	4293.2	
851.05	3530.7	
851.22	5719.3	
851.39	6280.4	
851.56	3349.1	
851.73	4128.7	
851.9	5042.8	
852.07	6031.3	
852.24	3977.2	
852.41	3519.8	
852.58	5607.3	
852.75	5093.3	
852.92	3929.4	
853.09	3519.8	
853.26	5349.3	
853.43	6180.1	
853.6	3535.5	
853.77	3067.9	
853.94	6286.6	
854.11	5066.7	
854.28	5272.2	
854.44	3845.4	
854.61	6818.4	
854.78	6093.4	
854.95	3547.8	
855.12	4403.8	
855.29	4658.4	
855.46	6579.4	
855.63	3510.2	
855.8	4930.1	
855.97	5276.9	
856.14	6060.6	
856.31	5053.7	
856.48	3893.9	
856.65	5291.3	
856.82	5029.1	
856.99	3453.6	
857.16	3864.5	
857.33	7045.7	
857.49	5468.8	
857.66	3848.8	
857.83	4136.9	
858	5281.7	
858.17	5666	
858.34	3353.9	
858.51	3496.6	
858.68	6427.9	
858.85	6515.3	
859.02	4173.1	
859.19	4406.5	
859.36	5044.1	
859.52	5099.4	
859.69	3553.9	
859.86	4212	
860.03	5053	
860.2	6280.4	
860.37	3228.3	
860.54	3592.8	
860.71	6019.7	
860.88	6406.7	
861.05	4036.5	
861.21	4455	
861.38	6486.6	
861.55	4929.5	
861.72	3297.9	
861.89	4012	
862.06	6006	
862.23	6571.9	
862.4	3442.6	
862.56	3697.3	
862.73	5811.5	
862.9	5507	
863.07	4132.8	
863.24	3206.4	
863.41	4921.3	
863.58	5034.6	
863.75	3635.8	
863.91	4117.8	
864.08	6404.7	
864.25	5856.5	
864.42	4481	
864.59	4977.2	
864.76	6631.3	
864.93	5102.2	
865.09	3444	
865.26	3771	
865.43	6240.2	
865.6	6694.1	
865.77	3073.3	
865.94	3551.2	
866.1	6256.5	
866.27	6021.7	
866.44	5385.5	
866.61	3397.6	
866.78	5436	
866.95	5817.6	
867.11	3409.9	
867.28	3121.8	
867.45	6043.6	
867.62	5105.6	
867.79	4102.8	
867.96	3473.4	
868.12	5073.5	
868.29	6035.4	
868.46	3100.6	
868.63	4752.7	
868.8	6133	
868.97	5941.2	
869.13	3735.5	
869.3	3736.9	
869.47	5839.4	
869.64	6097.5	
869.81	3560.7	
869.97	3593.5	
870.14	5743.2	
870.31	6367.8	
870.48	3515.7	
870.65	4395.6	
870.81	5387.5	
870.98	5265.3	
871.15	3960.8	
871.32	3630.4	
871.48	5847	
871.65	6428.6	
871.82	3492.5	
871.99	3907.5	
872.16	6890	
872.32	6185.5	
872.49	3588.7	
872.66	3534.8	
872.83	5898.2	
872.99	5230.5	
873.16	4109.6	
873.33	3468.6	
873.5	5558.9	
873.67	5582.1	
873.83	3678.8	
874	4734.2	
874.17	5747.3	
874.34	6792.4	
874.5	4581.3	
874.67	4431.1	
874.84	6382.2	
875.01	4947.9	
875.17	4926.7	
875.34	3538.2	
875.51	5638.1	
875.68	6827.9	
875.84	4244.1	
876.01	5198.4	
876.18	5884.5	
876.34	5805.3	
876.51	3603.1	
876.68	3450.8	
876.85	5370.5	
877.01	6217	
877.18	5119.2	
877.35	3494.5	
877.52	5485.1	
877.68	4988.9	
877.85	3424.2	
878.02	3466.5	
878.18	5466	
878.35	5231.2	
878.52	2848	
878.69	3996.3	
878.85	5969.8	
879.02	5899.5	
879.19	5018.2	
879.35	3812.6	
879.52	5906.3	
879.69	6134.3	
879.86	3058.3	
880.02	3926	
880.19	5468.1	
880.36	6735.8	
880.52	4051.6	
880.69	4186	
880.86	5969.1	
881.02	6047.7	
881.19	3865.9	
881.36	3863.2	
881.52	5814.9	
881.69	5263.3	
881.86	3764.8	
882.02	3726.6	
882.19	6156.2	
882.36	7235.5	
882.52	3584.6	
882.69	4924	
882.86	5675.6	
883.02	5607.3	
883.19	4278.2	
883.36	4029	
883.52	5978.7	
883.69	6871.6	
883.86	3619.4	
884.02	3136.1	
884.19	5985.5	
884.36	5503.6	
884.52	4011.3	
884.69	3677.5	
884.86	5257.8	
885.02	6590.4	
885.19	3943.7	
885.36	4123.9	
885.52	5513.1	
885.69	5654.4	
885.86	5086.5	
886.02	4560.8	
886.19	5923.4	
886.35	5388.2	
886.52	3873.4	
886.69	4932.9	
886.85	5070.8	
887.02	6288.6	
887.19	6288.6	
887.35	6288.6	
887.52	6288.6	
887.68	6288.6	
887.85	6288.6	
888.02	6288.6	
888.18	6288.6	
888.35	6288.6	
888.51	6288.6	
888.68	6288.6	
888.85	6288.6	
889.01	6288.6	
889.18	6288.6	
889.35	6288.6	
889.51	6288.6	
889.68	6288.6	
889.84	6288.6	
890.01	6288.6	
890.17	6288.6	
890.34	6288.6	
890.51	6288.6	
890.67	6288.6	
890.84	6288.6	
891	6288.6	
891.17	6288.6	
891.34	6288.6	
891.5	6288.6	
891.67	6288.6	
891.83	6288.6	
892	6288.6	
892.16	6288.6	
892.33	6288.6	
892.5	6288.6	
892.66	6288.6	
892.83	6288.6	
892.99	6288.6	
893.16	6288.6	
893.32	6288.6	
893.49	6288.6	
893.65	6288.6	
893.82	6288.6	
893.99	6288.6	
894.15	6288.6	
894.32	6288.6	
894.48	6288.6	
894.65	6288.6	
894.81	6288.6	
894.98	6288.6	
895.14	6288.6	
895.31	6288.6	
895.47	6288.6	
895.64	6288.6	
895.81	6288.6	
895.97	6288.6	
896.14	6288.6	
896.3	6288.6	
896.47	6288.6	
896.63	6288.6	
896.8	6288.6	
896.96	6288.6	
897.13	6288.6	
897.29	6288.6	
897.46	6288.6	
897.62	6288.6	
897.79	6288.6	
897.95	6288.6	
898.12	6288.6	
898.28	6288.6	
898.45	6288.6	
898.61	6288.6	
898.78	6288.6	
898.94	6288.6	
899.11	6288.6	
899.27	6288.6	
899.44	6288.6	
899.6	6288.6	
899.77	6288.6	
899.93	6288.6	
900.1	6288.6	
900.26	6288.6	
900.43	6288.6	
900.59	6288.6	
900.76	6288.6	
900.92	6288.6	
901.09	6288.6	
901.25	6288.6	
901.42	6288.6	
901.58	6288.6	
901.75	6288.6	
901.91	6288.6	
902.07	6288.6	
902.24	6288.6	
902.4	6288.6	
902.57	6288.6	
902.73	6288.6	
902.9	6288.6	
903.06	6288.6	
903.23	6288.6	
903.39	6288.6	
903.56	6288.6	
903.72	6288.6	
903.88	6288.6	
904.05	6288.6	
904.21	6288.6	
904.38	6288.6	
904.54	6288.6	
904.71	6288.6	
904.87	6288.6	
905.03	6288.6	
905.2	6288.6	
905.36	6288.6	
905.53	6288.6	
905.69	6288.6	
905.86	6288.6	
906.02	6288.6	
906.18	6288.6	
906.35	6288.6	
906.51	6288.6	
906.68	6288.6	
906.84	6288.6	
907.01	6288.6	
907.17	6288.6	
907.33	6288.6	
907.5	6288.6	
907.66	6288.6	
907.83	6288.6	
907.99	6288.6	
908.15	6288.6	
908.32	6288.6	
908.48	6288.6	
908.65	6288.6	
908.81	6288.6	
908.97	6288.6	
909.14	6288.6	
909.3	6288.6	
909.47	6288.6	
909.63	6288.6	
909.79	6288.6	
909.96	6288.6	
910.12	6288.6	
910.28	6288.6	
910.45	6288.6	
910.61	6288.6	
910.78	6288.6	
910.94	6288.6	
911.1	6288.6	
911.27	6288.6	
911.43	6288.6	
911.59	6288.6	
911.76	6288.6	
911.92	6288.6	
912.08	6288.6	
912.25	6288.6	
912.41	6288.6	
912.57	6288.6	
912.74	6288.6	
912.9	6288.6	
913.07	6288.6	
913.23	6288.6	
913.39	6288.6	
913.56	6288.6	
913.72	6288.6	
913.88	6288.6	
914.05	6288.6	
914.21	6288.6	
914.37	6288.6	
914.54	6288.6	
914.7	6288.6	
914.86	6288.6	
915.03	6288.6	
915.19	6288.6	
