Wavelength	Intensities	
nm	a.u.	
179.22	1896.9	
179.44	1902.2	
179.65	1891.6	
179.86	1912.8	
180.08	1890.3	
180.29	4944.5	
180.51	3413.3	
180.72	5622.4	
180.94	6563.1	
181.15	3239.9	
181.37	3207.1	
181.58	5492	
181.79	5812.1	
182.01	3327.9	
182.22	3640.6	
182.44	5761.6	
182.65	4841.4	
182.87	4544.4	
183.08	3974.4	
183.29	6049	
183.51	4988.9	
183.72	3676.8	
183.94	5387.5	
184.15	5418.9	
184.37	5406.6	
184.58	3267.9	
184.79	4448.9	
185.01	5005.9	
185.22	5995.8	
185.44	4734.9	
185.65	3949.2	
185.86	5373.2	
186.08	4900.8	
186.29	3138.2	
186.51	3453.6	
186.72	5047.6	
186.94	5933.6	
187.15	3889.1	
187.36	4035.9	
187.58	7737.9	
187.79	5493.3	
188.01	4210.6	
188.22	6528.9	
188.43	6660	
188.65	5728.2	
188.86	3435.1	
189.08	4086.4	
189.29	5206.6	
189.5	5225.7	
189.72	3715	
189.93	3825.6	
190.15	5982.1	
190.36	7157	
190.57	4070.7	
190.79	3947.8	
191	6081.8	
191.22	6006.7	
191.43	4151.9	
191.64	3420.8	
191.86	6318.7	
192.07	6021.7	
192.29	3558.7	
192.5	3772.4	
192.71	6012.8	
192.93	5150.6	
193.14	3724.6	
193.35	3800.3	
193.57	5177.9	
193.78	6011.5	
194	3037.1	
194.21	3678.8	
194.42	4971.8	
194.64	5456.5	
194.85	4043.4	
195.07	4766.3	
195.28	5453.7	
195.49	4713.1	
195.71	5025.7	
195.92	3506.1	
196.13	5590.3	
196.35	5730.2	
196.56	5295.4	
196.78	4042.7	
196.99	7078.5	
197.2	6604.7	
197.42	4636.6	
197.63	4099.4	
197.84	4874.8	
198.06	5614.8	
198.27	3716.4	
198.48	5010	
198.7	5226.4	
198.91	5330.2	
199.13	4075.5	
199.34	4065.2	
199.55	5795.8	
199.77	4744.5	
199.98	3621.5	
200.19	4127.3	
200.41	5272.2	
200.62	4990.9	
200.83	4286.4	
201.05	4567.7	
201.26	5360.2	
201.47	5089.9	
201.69	3636.5	
201.9	3448.8	
202.11	5403.2	
202.33	6418.3	
202.54	3846.1	
202.76	4367	
202.97	5563.6	
203.18	5601.9	
203.4	4230.4	
203.61	4219.5	
203.82	5501.5	
204.04	5133.6	
204.25	4069.3	
204.46	4050.2	
204.68	5452.4	
204.89	5651.7	
205.1	3950.5	
205.32	3448.8	
205.53	5887.9	
205.74	5927.5	
205.96	2950.4	
206.17	4220.2	
206.38	5787.6	
206.6	5917.9	
206.81	4664.6	
207.02	3836.5	
207.24	5662.6	
207.45	6054.5	
207.66	3869.3	
207.88	3315	
208.09	5662	
208.3	5405.3	
208.52	3551.2	
208.73	3929.4	
208.94	5468.8	
209.15	6232	
209.37	3880.2	
209.58	4029	
209.79	5986.2	
210.01	5256.5	
210.22	3078.8	
210.43	3270.6	
210.65	5459.9	
210.86	5911.8	
211.07	3891.8	
211.29	3564.8	
211.5	5739.1	
211.71	5356.1	
211.93	3536.2	
212.14	3605.1	
212.35	5297.4	
212.56	5659.9	
212.78	4126.7	
212.99	3375.7	
213.2	6453.1	
213.42	5184.8	
213.63	3710.2	
213.84	3973.7	
214.06	4823.6	
214.27	4943.1	
214.48	3897.3	
214.69	4182.6	
214.91	6120.7	
215.12	6214.9	
215.33	4205.8	
215.55	4648.2	
215.76	6761	
215.97	5806.7	
216.18	4057	
216.4	3984	
216.61	5107	
216.82	5922	
217.04	3622.2	
217.25	3778.5	
217.46	6106.4	
217.67	5794.4	
217.89	3188	
218.1	3336.8	
218.31	5553.4	
218.53	5606.7	
218.74	3732.1	
218.95	3691.1	
219.16	5382.1	
219.38	6419.7	
219.59	3721.2	
219.8	4386.7	
220.01	7094.8	
220.23	5528.8	
220.44	4764.3	
220.65	3532.1	
220.87	5514.5	
221.08	6108.4	
221.29	3327.3	
221.5	4452.3	
221.72	7456.7	
221.93	5100.1	
222.14	4166.3	
222.35	4821.6	
222.57	5440.8	
222.78	5866.1	
222.99	3908.9	
223.2	4210.6	
223.42	5771.2	
223.63	5875.6	
223.84	2979.8	
224.05	3006.4	
224.27	6959	
224.48	6345.3	
224.69	4807.9	
224.9	4132.1	
225.12	5666.7	
225.33	5405.3	
225.54	3314.3	
225.75	3634.5	
225.97	5023.7	
226.18	5313.1	
226.39	3974.4	
226.6	3642.7	
226.82	5238	
227.03	5035.3	
227.24	4091.8	
227.45	3385.3	
227.67	5836.7	
227.88	6395.8	
228.09	4586.1	
228.3	4600.4	
228.52	5831.9	
228.73	5384.1	
228.94	3836.5	
229.15	3381.9	
229.36	5345.2	
229.58	5264	
229.79	3822.2	
230	4435.9	
230.21	6499.6	
230.43	5541.1	
230.64	4028.4	
230.85	4265.9	
231.06	5866.7	
231.28	5856.5	
231.49	3376.4	
231.7	4042	
231.91	5758.9	
232.12	5492	
232.34	3471.3	
232.55	3938.2	
232.76	6085.9	
232.97	5635.3	
233.18	3653.6	
233.4	4091.8	
233.61	5695.4	
233.82	5170.4	
234.03	3753.2	
234.25	3743	
234.46	7531.1	
234.67	5483.1	
234.88	4182	
235.09	3629	
235.31	5752.1	
235.52	5282.4	
235.73	4038.6	
235.94	3422.2	
236.15	5215.5	
236.37	6635.4	
236.58	3577.1	
236.79	3969.6	
237	5820.3	
237.21	4986.1	
237.43	4233.2	
237.64	3304.1	
237.85	9813.2	
238.06	5005.9	
238.27	4235.9	
238.48	3432.4	
238.7	5819.6	
238.91	5300.1	
239.12	3879.5	
239.33	3917.8	
239.54	5077.6	
239.76	5384.8	
239.97	3897.3	
240.18	3941.7	
240.39	6895.5	
240.6	5702.9	
240.82	4015.4	
241.03	3312.9	
241.24	5468.1	
241.45	6341.9	
241.66	3545	
241.87	4182.6	
242.09	6146	
242.3	6593.8	
242.51	4261.8	
242.72	4006.5	
242.93	5917.3	
243.14	5362.3	
243.36	4584	
243.57	4949.3	
243.78	6349.4	
243.99	5700.9	
244.2	3964.2	
244.41	3578.5	
244.63	5039.4	
244.84	5791.7	
245.05	4201.1	
245.26	3961.5	
245.47	5756.2	
245.68	6029.9	
245.9	5295.4	
246.11	4141	
246.32	5290.6	
246.53	5735	
246.74	6290.7	
246.95	3362.1	
247.16	4949.9	
247.38	5499.5	
247.59	3302	
247.8	3942.3	
248.01	5164.3	
248.22	5422.3	
248.43	3549.1	
248.64	3829	
248.86	4857.8	
249.07	5189.6	
249.28	3465.8	
249.49	4069.3	
249.7	5958.9	
249.91	6097.5	
250.12	3269.9	
250.34	3358.7	
250.55	5588.2	
250.76	5441.5	
250.97	4019.5	
251.18	4142.4	
251.39	6134.3	
251.6	5685.8	
251.81	4144.4	
252.03	4094.6	
252.24	5206.6	
252.45	5954.8	
252.66	3444	
252.87	4365.6	
253.08	5499.5	
253.29	7122.8	
253.5	3403.7	
253.72	4767.7	
253.93	5285.8	
254.14	6468.2	
254.35	3727.3	
254.56	3836.5	
254.77	5709.1	
254.98	5070.8	
255.19	3698.6	
255.41	4772.4	
255.62	5558.9	
255.83	6113.2	
256.04	4192.9	
256.25	4149.2	
256.46	6657.3	
256.67	5112.4	
256.88	4037.9	
257.09	4481.6	
257.31	5158.2	
257.52	5104.9	
257.73	5063.9	
257.94	3717.7	
258.15	5383.4	
258.36	5440.8	
258.57	4659.8	
258.78	2984.6	
258.99	5958.9	
259.2	5255.8	
259.41	3741	
259.63	3873.4	
259.84	6371.9	
260.05	6746	
260.26	4954	
260.47	3668.6	
260.68	6011.5	
260.89	5399.8	
261.1	4584	
261.31	3585.3	
261.52	5991	
261.73	6470.2	
261.95	4857.1	
262.16	4275.5	
262.37	6120.7	
262.58	6234.7	
262.79	4894.6	
263	3808.5	
263.21	5442.8	
263.42	5020.3	
263.63	3878.9	
263.84	3767.6	
264.05	6038.8	
264.26	6362.4	
264.47	4718.5	
264.69	4246.8	
264.9	6110.5	
265.11	5661.3	
265.32	3594.2	
265.53	3709.6	
265.74	5599.8	
265.95	4882.4	
266.16	4010.6	
266.37	4434.5	
266.58	5629.9	
266.79	5250.3	
267	3701.4	
267.21	3493.2	
267.42	5014.8	
267.63	5412.1	
267.84	3969	
268.06	3306.8	
268.27	5880.4	
268.48	6255.9	
268.69	3825.6	
268.9	4521.2	
269.11	6186.2	
269.32	4922	
269.53	3970.3	
269.74	3622.2	
269.95	5847	
270.16	4818.9	
270.37	3944.4	
270.58	4539.7	
270.79	5319.3	
271	5978	
271.21	4251.6	
271.42	3964.2	
271.63	5562.3	
271.84	5070.8	
272.05	3168.9	
272.26	3521.8	
272.47	5539.1	
272.68	5677.7	
272.89	3763.5	
273.11	4394.9	
273.32	5276.9	
273.53	6443.6	
273.74	4226.3	
273.95	4176.5	
274.16	6074.3	
274.37	5552	
274.58	4304.8	
274.79	3412.6	
275	5612.1	
275.21	6146	
275.42	5186.1	
275.63	4429.8	
275.84	5740.5	
276.05	7192.5	
276.26	4156	
276.47	3916.4	
276.68	5329.5	
276.89	6424.5	
277.1	4475.5	
277.31	3489.1	
277.52	5744.6	
277.73	5868.8	
277.94	3405.8	
278.15	3818.8	
278.36	5672.9	
278.57	5114.5	
278.78	3754.6	
278.99	4202.4	
279.2	5138.4	
279.41	5010	
279.62	4956.1	
279.83	3507.5	
280.04	6728.9	
280.25	5045.5	
280.46	4948.6	
280.67	4000.4	
280.88	5040.1	
281.09	6161	
281.3	4157.4	
281.51	5244.8	
281.72	5991.7	
281.93	6004	
282.14	3627.6	
282.35	4000.4	
282.56	6019.7	
282.77	5936.4	
282.98	3796.3	
283.19	4687.1	
283.4	7291.5	
283.61	5451	
283.82	3510.2	
284.03	4855.7	
284.24	5600.5	
284.45	6107.7	
284.66	4864.6	
284.87	4668	
285.08	6085.2	
285.29	6173.9	
285.5	3351.2	
285.71	3890.5	
285.92	6082.5	
286.12	6815.6	
286.33	4842.1	
286.54	3812	
286.75	5947.3	
286.96	5306.3	
287.17	3549.8	
287.38	4792.2	
287.59	5082.4	
287.8	5016.2	
288.01	3910.9	
288.22	4378.6	
288.43	6003.3	
288.64	5012.1	
288.85	4620.9	
289.06	4384	
289.27	5875.6	
289.48	6435.4	
289.69	4894	
289.9	4403.8	
290.11	6158.9	
290.32	5177.9	
290.53	4636.6	
290.74	4259.8	
290.94	5858.6	
291.15	5907	
291.36	3723.9	
291.57	4428.4	
291.78	5199.1	
291.99	4899.4	
292.2	3566.9	
292.41	4192.9	
292.62	5990.3	
292.83	5810.8	
293.04	5175.9	
293.25	3585.3	
293.46	5270.1	
293.67	6083.1	
293.88	3695.9	
294.09	3546.4	
294.29	4992.9	
294.5	5624.4	
294.71	4030.4	
294.92	3773.7	
295.13	5240.1	
295.34	6515.3	
295.55	3355.3	
295.76	3429.7	
295.97	5872.2	
296.18	6696.9	
296.39	3515	
296.6	3722.5	
296.81	5607.3	
297.01	5956.2	
297.22	3864.5	
297.43	3669.3	
297.64	5091.3	
297.85	5112.4	
298.06	3015.3	
298.27	3343.7	
298.48	5521.3	
298.69	5195.7	
298.9	3986	
299.11	3620.8	
299.31	4941.7	
299.52	4986.8	
299.73	4280.3	
299.94	4229.7	
300.15	5395	
300.36	5100.8	
300.57	4184.7	
300.78	4208.6	
300.99	5390.3	
301.2	5556.8	
301.4	3624.9	
301.61	4036.5	
301.82	5797.8	
302.03	5938.4	
302.24	4443.4	
302.45	3549.1	
302.66	5756.8	
302.87	6180.8	
303.08	3645.4	
303.29	4994.3	
303.49	5196.4	
303.7	5520.6	
303.91	3281.5	
304.12	4820.2	
304.33	4965.6	
304.54	5582.8	
304.75	3715	
304.96	3521.8	
305.16	5804.6	
305.37	6611.5	
305.58	3206.4	
305.79	3375.7	
306	5825.8	
306.21	4851	
306.42	3652.9	
306.63	5636	
306.83	5372.5	
307.04	6027.2	
307.25	4088.4	
307.46	4072	
307.67	4661.2	
307.88	5969.8	
308.09	3614.7	
308.29	3797.6	
308.5	5552.7	
308.71	6106.4	
308.92	3948.5	
309.13	3543	
309.34	5361.6	
309.55	5366.4	
309.75	4644.8	
309.96	4235.9	
310.17	5942.5	
310.38	5189.6	
310.59	4457.1	
310.8	3476.8	
311.01	5698.8	
311.21	5416.2	
311.42	3578.5	
311.63	3680.9	
311.84	5204.6	
312.05	5569.1	
312.26	4102.8	
312.46	4608.6	
312.67	5265.3	
312.88	5009.3	
313.09	3527.3	
313.3	3476.1	
313.51	6210.8	
313.71	6643.6	
313.92	3545.7	
314.13	3753.2	
314.34	5681.7	
314.55	5384.8	
314.76	4613.4	
314.96	3997	
315.17	5562.3	
315.38	5877	
315.59	3532.7	
315.8	3418.7	
316.01	6338.5	
316.21	6405.4	
316.42	3424.2	
316.63	3959.4	
316.84	5326.1	
317.05	6214.9	
317.26	4260.5	
317.46	3793.5	
317.67	5381.4	
317.88	5883.1	
318.09	4599.7	
318.3	3358	
318.5	5156.1	
318.71	5787.6	
318.92	5821.7	
319.13	4233.2	
319.34	6020.3	
319.54	6155.5	
319.75	3321.8	
319.96	3177.1	
320.17	5892.7	
320.38	6045.6	
320.58	3285.6	
320.79	3926	
321	6032.6	
321.21	6185.5	
321.42	3966.2	
321.62	3289.7	
321.83	5108.3	
322.04	5489.2	
322.25	3805.1	
322.46	3609.2	
322.66	5660.6	
322.87	5759.6	
323.08	4412	
323.29	3535.5	
323.5	6580.8	
323.7	5038.7	
323.91	4937	
324.12	4323.3	
324.33	5550	
324.53	5794.4	
324.74	4289.8	
324.95	4451.6	
325.16	4861.9	
325.37	5313.1	
325.57	3597.6	
325.78	3654.9	
325.99	5547.3	
326.2	4971.1	
326.4	5244.8	
326.61	3282.2	
326.82	5417.6	
327.03	5557.5	
327.24	5081.7	
327.44	4780.6	
327.65	5700.2	
327.86	4635.2	
328.07	4196.3	
328.27	3466.5	
328.48	6125.5	
328.69	5046.9	
328.9	5128.8	
329.1	3875.4	
329.31	5336.3	
329.52	6320.7	
329.73	3610.6	
329.93	4091.8	
330.14	5410.7	
330.35	5733.6	
330.56	5890	
330.76	4407.9	
330.97	5304.9	
331.18	5729.5	
331.39	4014	
331.59	3271.3	
331.8	6092.7	
332.01	6225.1	
332.22	3771.7	
332.42	4195.6	
332.63	5606	
332.84	5191.6	
333.05	4015.4	
333.25	3650.2	
333.46	5281.7	
333.67	5476.3	
333.88	3728.7	
334.08	4207.2	
334.29	7337.9	
334.5	6206	
334.7	3458.3	
334.91	5136.3	
335.12	5067.4	
335.33	5891.3	
335.53	3895.9	
335.74	5859.2	
335.95	5312.4	
336.16	5134.9	
336.36	4014	
336.57	4586.1	
336.78	5060.5	
336.98	6176	
337.19	4884.4	
337.4	3999.7	
337.61	6617	
337.81	5025	
338.02	3693.9	
338.23	4714.4	
338.43	6250.4	
338.64	5166.3	
338.85	3597.6	
339.05	4709.6	
339.26	6289.3	
339.47	4948.6	
339.68	3708.2	
339.88	5357.5	
340.09	5739.1	
340.3	5980.1	
340.5	4234.5	
340.71	3244	
340.92	4971.8	
341.13	6303.6	
341.33	3502.7	
341.54	4280.9	
341.75	5737.7	
341.95	5399.1	
342.16	4127.3	
342.37	4405.2	
342.57	5048.2	
342.78	5453.1	
342.99	4493.9	
343.19	3272	
343.4	5900.9	
343.61	5792.3	
343.81	3816	
344.02	3507.5	
344.23	5969.8	
344.43	6346.7	
344.64	4481.6	
344.85	4385.4	
345.06	5806.7	
345.26	6109.1	
345.47	4189.5	
345.68	4906.3	
345.88	4817.5	
346.09	5933	
346.3	4274.8	
346.5	3221.5	
346.71	5508.4	
346.92	5219.6	
347.12	3304.1	
347.33	4134.2	
347.54	6111.8	
347.74	6451.1	
347.95	4195.6	
348.16	3136.1	
348.36	5346.6	
348.57	5004.6	
348.78	4223.6	
348.98	4459.8	
349.19	5468.8	
349.39	4966.3	
349.6	3349.8	
349.81	3743.7	
350.01	5776	
350.22	5279	
350.43	3975.8	
350.63	4872.8	
350.84	5604.6	
351.05	5343.8	
351.25	3733.4	
351.46	3321.1	
351.67	6088.6	
351.87	5237.3	
352.08	3981.9	
352.29	4531.5	
352.49	6043.6	
352.7	6111.1	
352.9	3564.8	
353.11	4443.4	
353.32	6692.1	
353.52	5367.7	
353.73	3594.9	
353.94	4559.5	
354.14	5861.3	
354.35	5730.9	
354.55	3685	
354.76	4084.3	
354.97	5870.2	
355.17	5631.2	
355.38	3467.2	
355.59	4819.6	
355.79	5324	
356	5740.5	
356.2	4128	
356.41	3616	
356.62	5024.3	
356.82	5553.4	
357.03	4382	
357.24	3969.6	
357.44	5393.7	
357.65	5509.7	
357.85	5270.8	
358.06	4214.7	
358.27	5085.8	
358.47	5378	
358.68	3558.7	
358.88	4452.3	
359.09	5978.7	
359.3	6335	
359.5	5212.1	
359.71	4650.3	
359.91	6886.6	
360.12	6182.8	
360.33	4480.3	
360.53	5003.2	
360.74	5490.6	
360.94	5526.8	
361.15	4745.1	
361.36	3926	
361.56	6351.4	
361.77	5765	
361.97	5279	
362.18	4247.5	
362.38	6375.3	
362.59	5474.2	
362.8	3955.3	
363	3747.8	
363.21	5281	
363.41	5936.4	
363.62	4554	
363.83	5599.8	
364.03	6061.3	
364.24	7030	
364.44	5732.3	
364.65	5565	
364.85	5838.8	
365.06	5429.8	
365.27	4233.8	
365.47	4267.3	
365.68	6899.6	
365.88	5807.4	
366.09	4595.6	
366.29	4348.5	
366.5	6158.2	
366.71	6594.5	
366.91	5753.4	
367.12	4902.8	
367.32	7255.3	
367.53	6455.2	
367.73	4879.6	
367.94	5856.5	
368.14	6437.4	
368.35	7304.4	
368.56	4900.8	
368.76	4199.7	
368.97	6554.9	
369.17	8197.3	
369.38	4334.2	
369.58	4636.6	
369.79	5624.4	
369.99	6875	
370.2	5717.2	
370.4	4736.3	
370.61	6253.8	
370.82	7461.4	
371.02	4627	
371.23	3942.3	
371.43	5489.9	
371.64	6897.6	
371.84	4752	
372.05	6010.8	
372.25	8358.4	
372.46	6761.7	
372.66	4913.8	
372.87	4793.6	
373.07	6931	
373.28	8572.8	
373.48	5862.7	
373.69	5663.3	
373.9	6333	
374.1	6429.3	
374.31	5948.7	
374.51	5542.5	
374.72	7329.7	
374.92	6192.4	
375.13	6279.1	
375.33	5367	
375.54	6977.4	
375.74	6417	
375.95	5593	
376.15	6879.1	
376.36	7076.4	
376.56	6838.9	
376.77	5728.9	
376.97	6106.4	
377.18	8266.3	
377.38	7324.2	
377.59	6610.2	
377.79	5308.3	
378	7193.8	
378.2	7645.8	
378.41	5490.6	
378.61	5404.6	
378.82	7777.5	
379.02	6880.5	
379.23	5706.3	
379.43	6944	
379.64	7775.5	
379.84	7598	
380.05	5534.3	
380.25	5468.1	
380.46	7601.4	
380.66	7088.7	
380.87	6916.7	
381.07	7154.9	
381.28	8187.1	
381.48	7529	
381.69	5560.2	
381.89	5563	
382.1	6503.7	
382.3	7662.8	
382.51	6697.5	
382.71	7606.2	
382.91	7534.5	
383.12	8048.5	
383.32	5888.6	
383.53	6116.6	
383.73	7315.3	
383.94	7178.1	
384.14	5944.6	
384.35	5064.6	
384.55	7011.6	
384.76	7611.6	
384.96	5744.6	
385.17	6098.9	
385.37	7488.1	
385.58	6668.2	
385.78	6124.8	
385.98	5006.6	
386.19	6823.1	
386.39	7356.3	
386.6	5571.8	
386.8	5793.7	
387.01	7511.3	
387.21	7524.9	
387.42	6265.4	
387.62	6964.5	
387.83	6861.4	
388.03	7621.2	
388.23	6102.3	
388.44	6956.9	
388.64	6717.3	
388.85	7010.2	
389.05	6574	
389.26	7273	
389.46	8981.7	
389.67	8456.1	
389.87	6755.6	
390.07	6830	
390.28	7604.1	
390.48	7172	
390.69	6055.2	
390.89	6298.9	
391.1	7360.4	
391.3	8350.9	
391.5	7598.6	
391.71	8192.6	
391.91	8125.7	
392.12	9254.1	
392.32	7633.5	
392.53	6802.7	
392.73	7615.7	
392.93	7722.2	
393.14	6516	
393.34	7224.6	
393.55	7983	
393.75	7556.3	
393.95	6324.8	
394.16	6240.2	
394.36	7359.7	
394.57	7960.5	
394.77	5822.4	
394.98	6298.9	
395.18	7487.4	
395.38	7696.3	
395.59	7482.6	
395.79	6527.6	
396	7929.1	
396.2	8398.7	
396.4	7498.3	
396.61	7503.8	
396.81	8776.9	
397.02	8156.4	
397.22	7970	
397.42	8082.6	
397.63	8931.9	
397.83	8247.2	
398.04	6808.8	
398.24	7592.5	
398.44	8711.4	
398.65	7863.5	
398.85	6775.4	
399.05	6963.1	
399.26	8287.4	
399.46	10091	
399.67	7361.1	
399.87	7169.3	
400.07	8899.8	
400.28	9281.4	
400.48	7441	
400.69	8658.8	
400.89	9627.5	
401.09	10033	
401.3	7578.2	
401.5	8643.1	
401.7	10607	
401.91	10735	
402.11	7981.6	
402.32	8133.8	
402.52	9864.4	
402.72	9562	
402.93	8265.6	
403.13	6916	
403.33	10216	
403.54	8526.4	
403.74	7402.7	
403.94	8234.9	
404.15	8512.7	
404.35	9742.9	
404.56	7093.5	
404.76	9056.8	
404.96	9173.5	
405.17	9013.1	
405.37	8920.3	
405.57	8144.8	
405.78	9775.6	
405.98	9006.3	
406.18	7890.8	
406.39	8910.7	
406.59	9562.6	
406.79	9159.2	
407	7415	
407.2	7492.2	
407.4	9439.1	
407.61	9779.7	
407.81	7588.4	
408.01	10071	
408.22	8899.1	
408.42	11147	
408.62	9691	
408.83	9319.6	
409.03	10415	
409.23	10427	
409.44	9742.9	
409.64	10228	
409.84	11983	
410.05	12058	
410.25	10389	
410.45	10108	
410.66	11959	
410.86	14285	
411.06	11266	
411.27	11001	
411.47	14601	
411.67	12519	
411.88	11344	
412.08	12136	
412.28	13314	
412.49	13913	
412.69	11594	
412.89	11858	
413.09	13829	
413.3	13857	
413.5	12044	
413.7	11732	
413.91	13020	
414.11	14300	
414.31	12048	
414.52	12902	
414.72	13947	
414.92	14186	
415.12	12166	
415.33	12868	
415.53	14620	
415.73	14897	
415.94	13312	
416.14	12719	
416.34	13763	
416.55	13433	
416.75	14035	
416.95	13594	
417.15	15080	
417.36	15468	
417.56	14767	
417.76	13817	
417.97	15658	
418.17	15518	
418.37	13319	
418.57	13668	
418.78	15177	
418.98	14837	
419.18	14604	
419.38	14294	
419.59	14956	
419.79	14262	
419.99	13390	
420.2	13597	
420.4	15277	
420.6	15388	
420.8	13361	
421.01	13291	
421.21	15496	
421.41	15666	
421.61	13923	
421.82	13495	
422.02	15087	
422.22	15722	
422.42	14492	
422.63	13485	
422.83	15051	
423.03	16353	
423.23	13794	
423.44	12873	
423.64	15067	
423.84	14536	
424.04	13327	
424.25	13020	
424.45	15590	
424.65	15649	
424.85	12706	
425.06	13453	
425.26	15703	
425.46	14119	
425.66	13695	
425.87	13445	
426.07	15481	
426.27	15128	
426.47	13602	
426.67	12809	
426.88	15582	
427.08	14922	
427.28	14031	
427.48	12627	
427.69	13874	
427.89	14713	
428.09	13699	
428.29	12850	
428.5	15565	
428.7	14901	
428.9	12920	
429.1	13356	
429.3	15018	
429.51	15418	
429.71	13024	
429.91	14171	
430.11	15597	
430.31	16055	
430.52	13848	
430.72	14584	
430.92	16298	
431.12	15872	
431.32	13940	
431.53	13959	
431.73	14973	
431.93	16567	
432.13	13513	
432.33	13704	
432.54	15392	
432.74	15998	
432.94	13908	
433.14	14847	
433.34	16088	
433.55	16174	
433.75	15009	
433.95	17279	
434.15	16307	
434.35	16234	
434.56	14429	
434.76	14286	
434.96	16622	
435.16	17166	
435.36	14588	
435.56	16080	
435.77	16766	
435.97	16896	
436.17	16892	
436.37	16247	
436.57	16799	
436.78	17157	
436.98	17613	
437.18	16688	
437.38	18110	
437.58	16976	
437.78	16832	
437.99	15139	
438.19	17069	
438.39	18024	
438.59	15155	
438.79	14404	
438.99	17607	
439.2	16523	
439.4	14170	
439.6	14441	
439.8	17058	
440	18286	
440.2	16345	
440.4	16584	
440.61	18441	
440.81	19301	
441.01	16350	
441.21	17874	
441.41	19823	
441.61	19084	
441.81	18114	
442.02	19050	
442.22	20022	
442.42	19012	
442.62	16913	
442.82	16718	
443.02	19741	
443.22	19102	
443.43	17680	
443.63	17126	
443.83	18573	
444.03	18898	
444.23	19024	
444.43	18407	
444.63	19792	
444.83	20732	
445.04	18105	
445.24	19214	
445.44	19547	
445.64	19977	
445.84	17866	
446.04	18244	
446.24	18634	
446.44	19616	
446.65	16737	
446.85	17601	
447.05	17955	
447.25	19453	
447.45	17281	
447.65	16852	
447.85	18850	
448.05	18155	
448.25	18229	
448.46	18051	
448.66	19155	
448.86	18520	
449.06	16913	
449.26	18103	
449.46	19935	
449.66	18569	
449.86	18250	
450.06	18099	
450.26	19056	
450.47	20030	
450.67	18168	
450.87	19009	
451.07	19933	
451.27	20005	
451.47	17573	
451.67	18748	
451.87	19899	
452.07	20270	
452.27	18516	
452.47	18063	
452.67	19697	
452.88	20607	
453.08	17094	
453.28	19826	
453.48	21581	
453.68	19593	
453.88	18425	
454.08	18370	
454.28	20700	
454.48	20331	
454.68	19377	
454.88	19712	
455.08	20719	
455.28	21427	
455.48	18256	
455.68	19721	
455.89	22022	
456.09	21797	
456.29	19368	
456.49	19956	
456.69	22347	
456.89	21364	
457.09	20505	
457.29	21279	
457.49	22246	
457.69	22633	
457.89	21263	
458.09	20362	
458.29	22810	
458.49	23464	
458.69	22100	
458.89	21529	
459.09	24268	
459.29	24175	
459.49	21457	
459.69	22442	
459.9	23379	
460.1	23670	
460.3	20922	
460.5	21080	
460.7	23623	
460.9	23424	
461.1	21057	
461.3	22811	
461.5	25010	
461.7	24397	
461.9	22888	
462.1	22610	
462.3	24524	
462.5	25389	
462.7	22932	
462.9	23481	
463.1	26653	
463.3	27022	
463.5	23796	
463.7	25740	
463.9	26082	
464.1	26521	
464.3	25475	
464.5	25067	
464.7	27289	
464.9	27618	
465.1	27043	
465.3	26027	
465.5	27411	
465.7	28093	
465.9	26735	
466.1	25464	
466.3	28493	
466.5	27452	
466.7	28067	
466.9	26200	
467.1	28304	
467.3	29090	
467.5	28353	
467.7	27226	
467.9	29588	
468.1	30754	
468.3	27725	
468.5	28622	
468.7	29127	
468.9	28832	
469.1	28106	
469.3	28994	
469.5	31378	
469.7	29448	
469.9	28043	
470.1	28054	
470.3	29604	
470.5	29656	
470.7	29354	
470.9	27898	
471.1	29617	
471.3	28880	
471.5	27788	
471.69	29597	
471.89	28690	
472.09	28263	
472.29	28777	
472.49	27909	
472.69	28945	
472.89	29323	
473.09	27708	
473.29	26846	
473.49	28741	
473.69	28450	
473.89	28241	
474.09	27201	
474.29	29657	
474.49	29290	
474.69	28190	
474.89	27343	
475.09	28750	
475.29	28794	
475.49	26701	
475.69	27387	
475.88	29954	
476.08	28794	
476.28	26869	
476.48	26834	
476.68	28606	
476.88	28599	
477.08	26165	
477.28	27198	
477.48	27614	
477.68	28251	
477.88	26454	
478.08	26690	
478.28	29405	
478.48	28211	
478.67	27245	
478.87	25802	
479.07	29947	
479.27	28342	
479.47	27051	
479.67	27477	
479.87	29217	
480.07	29704	
480.27	26666	
480.47	28080	
480.67	28582	
480.87	29711	
481.06	26929	
481.26	28013	
481.46	29042	
481.66	28782	
481.86	27616	
482.06	28619	
482.26	28476	
482.46	29238	
482.66	27462	
482.86	27093	
483.05	29255	
483.25	28642	
483.45	29941	
483.65	27925	
483.85	29291	
484.05	29596	
484.25	28418	
484.45	29517	
484.65	30406	
484.84	31239	
485.04	28218	
485.24	28355	
485.44	31034	
485.64	29623	
485.84	28269	
486.04	29757	
486.24	30128	
486.44	30587	
486.63	28373	
486.83	29610	
487.03	30666	
487.23	31280	
487.43	28555	
487.63	31438	
487.83	31305	
488.02	32362	
488.22	30677	
488.42	31309	
488.62	32314	
488.82	31647	
489.02	29832	
489.22	30696	
489.41	32002	
489.61	32436	
489.81	29980	
490.01	30190	
490.21	32673	
490.41	33233	
490.61	30367	
490.8	30224	
491	32386	
491.2	30943	
491.4	30341	
491.6	29457	
491.8	31144	
491.99	30884	
492.19	28991	
492.39	29164	
492.59	31873	
492.79	32215	
492.99	30819	
493.18	30442	
493.38	32882	
493.58	34667	
493.78	32048	
493.98	31769	
494.18	33715	
494.37	33974	
494.57	33714	
494.77	33415	
494.97	35450	
495.17	36090	
495.37	33958	
495.56	34209	
495.76	36988	
495.96	36525	
496.16	35848	
496.36	35026	
496.55	37105	
496.75	36977	
496.95	35269	
497.15	35302	
497.35	36863	
497.54	37364	
497.74	34944	
497.94	36500	
498.14	38039	
498.34	37826	
498.53	35305	
498.73	36214	
498.93	37621	
499.13	38073	
499.33	36491	
499.52	36819	
499.72	38720	
499.92	38470	
500.12	36714	
500.32	37138	
500.51	38982	
500.71	39143	
500.91	37749	
501.11	37428	
501.31	39029	
501.5	39091	
501.7	38221	
501.9	37167	
502.1	38455	
502.29	39051	
502.49	37872	
502.69	37712	
502.89	38655	
503.09	38948	
503.28	35915	
503.48	35757	
503.68	37197	
503.88	37448	
504.07	36818	
504.27	35875	
504.47	37927	
504.67	37575	
504.86	36491	
505.06	36082	
505.26	37054	
505.46	38845	
505.65	35682	
505.85	35408	
506.05	36256	
506.25	36607	
506.44	34093	
506.64	34682	
506.84	35798	
507.04	36467	
507.23	33914	
507.43	34685	
507.63	37757	
507.83	36127	
508.02	34781	
508.22	34523	
508.42	38209	
508.62	35860	
508.81	34357	
509.01	35381	
509.21	35172	
509.4	35775	
509.6	34691	
509.8	34379	
510	35578	
510.19	37698	
510.39	34140	
510.59	34620	
510.79	36076	
510.98	37778	
511.18	34673	
511.38	35239	
511.57	36668	
511.77	36919	
511.97	35181	
512.17	33947	
512.36	36666	
512.56	36179	
512.76	34164	
512.95	33790	
513.15	36470	
513.35	35134	
513.55	35132	
513.74	34346	
513.94	36706	
514.14	36073	
514.33	35262	
514.53	35189	
514.73	35936	
514.92	36272	
515.12	34690	
515.32	34697	
515.51	36653	
515.71	37217	
515.91	36289	
516.11	35151	
516.3	38795	
516.5	36606	
516.7	35508	
516.89	36168	
517.09	36560	
517.29	36556	
517.48	35972	
517.68	34951	
517.88	36220	
518.07	36986	
518.27	35755	
518.47	34442	
518.66	37152	
518.86	36100	
519.06	34405	
519.25	34984	
519.45	36378	
519.65	38455	
519.84	35867	
520.04	36875	
520.24	38495	
520.43	37073	
520.63	34944	
520.83	34813	
521.02	35745	
521.22	36335	
521.42	34553	
521.61	35469	
521.81	35595	
522.01	35766	
522.2	34975	
522.4	34487	
522.6	36963	
522.79	36048	
522.99	35256	
523.18	35148	
523.38	37640	
523.58	37995	
523.77	38116	
523.97	36238	
524.17	40794	
524.36	39885	
524.56	38385	
524.76	38267	
524.95	39643	
525.15	39139	
525.34	38381	
525.54	38736	
525.74	40690	
525.93	39888	
526.13	40449	
526.33	39473	
526.52	41643	
526.72	41111	
526.91	40981	
527.11	40368	
527.31	42065	
527.5	42668	
527.7	40619	
527.89	39776	
528.09	41718	
528.29	42670	
528.48	41241	
528.68	40820	
528.87	42733	
529.07	42095	
529.27	40603	
529.46	40140	
529.66	42149	
529.85	42772	
530.05	40314	
530.25	40821	
530.44	43871	
530.64	41742	
530.83	40482	
531.03	40902	
531.23	42399	
531.42	42186	
531.62	42092	
531.81	41181	
532.01	43710	
532.21	44420	
532.4	42238	
532.6	43045	
532.79	45512	
532.99	45195	
533.18	43835	
533.38	44580	
533.58	45446	
533.77	45771	
533.97	44165	
534.16	44828	
534.36	46296	
534.55	45885	
534.75	45581	
534.95	44558	
535.14	47191	
535.34	46035	
535.53	43988	
535.73	45892	
535.92	47169	
536.12	45332	
536.31	43571	
536.51	44883	
536.71	45240	
536.9	44993	
537.1	43317	
537.29	43852	
537.49	45787	
537.68	44993	
537.88	44483	
538.07	43611	
538.27	45745	
538.46	46870	
538.66	43626	
538.86	44803	
539.05	45834	
539.25	46243	
539.44	45118	
539.64	44108	
539.83	45543	
540.03	46404	
540.22	44029	
540.42	43497	
540.61	44929	
540.81	45544	
541	43378	
541.2	44778	
541.39	44190	
541.59	45254	
541.78	44721	
541.98	42912	
542.18	44242	
542.37	43875	
542.57	42608	
542.76	43950	
542.96	43170	
543.15	43874	
543.35	42351	
543.54	41623	
543.74	43409	
543.93	43303	
544.13	41381	
544.32	42570	
544.52	43082	
544.71	42494	
544.91	40544	
545.1	41568	
545.3	42518	
545.49	43364	
545.69	40421	
545.88	40955	
546.08	44070	
546.27	43375	
546.47	41514	
546.66	40651	
546.86	42807	
547.05	43407	
547.24	40615	
547.44	41069	
547.63	41571	
547.83	43188	
548.02	41086	
548.22	40935	
548.41	41241	
548.61	42905	
548.8	39965	
549	40196	
549.19	41357	
549.39	41962	
549.58	39531	
549.78	40357	
549.97	41787	
550.17	41062	
550.36	40454	
550.55	41604	
550.75	40644	
550.94	41657	
551.14	39166	
551.33	39107	
551.53	40440	
551.72	41309	
551.92	39247	
552.11	39234	
552.31	40897	
552.5	40776	
552.69	40528	
552.89	38446	
553.08	40946	
553.28	40297	
553.47	39034	
553.67	39991	
553.86	40935	
554.06	39416	
554.25	37629	
554.44	38556	
554.64	41611	
554.83	41160	
555.03	38371	
555.22	38851	
555.42	40471	
555.61	39955	
555.8	38069	
556	38145	
556.19	39329	
556.39	40153	
556.58	38072	
556.78	38138	
556.97	39746	
557.16	39692	
557.36	39400	
557.55	38028	
557.75	38657	
557.94	40719	
558.13	37891	
558.33	37623	
558.52	40277	
558.72	38971	
558.91	37489	
559.1	37564	
559.3	38510	
559.49	37895	
559.69	36756	
559.88	37709	
560.07	39116	
560.27	39673	
560.46	37829	
560.66	38000	
560.85	38957	
561.04	37732	
561.24	36979	
561.43	36773	
561.63	38043	
561.82	38292	
562.01	38416	
562.21	37107	
562.4	38462	
562.59	40096	
562.79	37068	
562.98	37157	
563.18	38943	
563.37	40792	
563.56	38079	
563.76	37560	
563.95	38872	
564.14	38973	
564.34	37892	
564.53	37390	
564.73	39394	
564.92	40027	
565.11	38401	
565.31	37780	
565.5	40181	
565.69	39221	
565.89	38023	
566.08	38227	
566.27	40234	
566.47	41062	
566.66	38905	
566.85	38198	
567.05	40506	
567.24	39634	
567.44	38270	
567.63	39692	
567.82	40362	
568.02	40128	
568.21	38325	
568.4	38672	
568.6	40179	
568.79	40213	
568.98	38388	
569.18	38783	
569.37	40920	
569.56	42774	
569.76	39440	
569.95	40582	
570.14	40870	
570.34	41372	
570.53	39006	
570.72	38948	
570.91	41523	
571.11	40625	
571.3	39223	
571.49	40017	
571.69	41028	
571.88	40279	
572.07	39929	
572.27	39958	
572.46	40613	
572.65	41477	
572.85	39527	
573.04	39876	
573.23	42134	
573.43	41241	
573.62	39884	
573.81	40468	
574	42002	
574.2	41663	
574.39	40807	
574.58	40748	
574.78	43694	
574.97	42945	
575.16	41748	
575.36	42080	
575.55	43689	
575.74	43480	
575.93	40784	
576.13	42368	
576.32	42780	
576.51	43497	
576.71	41275	
576.9	43069	
577.09	43880	
577.28	43134	
577.48	41990	
577.67	40868	
577.86	43005	
578.05	43775	
578.25	41818	
578.44	42038	
578.63	43446	
578.83	44693	
579.02	41257	
579.21	43308	
579.4	43712	
579.6	43728	
579.79	42069	
579.98	44347	
580.17	44070	
580.37	44120	
580.56	41457	
580.75	42522	
580.94	44556	
581.14	44093	
581.33	43261	
581.52	41889	
581.71	44205	
581.91	44833	
582.1	42101	
582.29	42343	
582.48	43746	
582.68	44044	
582.87	42849	
583.06	42615	
583.25	44178	
583.45	44065	
583.64	43734	
583.83	44285	
584.02	43975	
584.21	44576	
584.41	43240	
584.6	42610	
584.79	44357	
584.98	45199	
585.18	42231	
585.37	42012	
585.56	43676	
585.75	44707	
585.94	41872	
586.14	42876	
586.33	44145	
586.52	43588	
586.71	41991	
586.91	41643	
587.1	42217	
587.29	43303	
587.48	40826	
587.67	40800	
587.87	42714	
588.06	42695	
588.25	42019	
588.44	41206	
588.63	41944	
588.83	42636	
589.02	39813	
589.21	39550	
589.4	40434	
589.59	40570	
589.78	37321	
589.98	37457	
590.17	38212	
590.36	38756	
590.55	35485	
590.74	35396	
590.94	38946	
591.13	37334	
591.32	35368	
591.51	34897	
591.7	38025	
591.89	37823	
592.09	35568	
592.28	36341	
592.47	37173	
592.66	39609	
592.85	35895	
593.05	36368	
593.24	37799	
593.43	38883	
593.62	36507	
593.81	37033	
594	38131	
594.19	38165	
594.39	36036	
594.58	36065	
594.77	38302	
594.96	38683	
595.15	35565	
595.34	36527	
595.54	37696	
595.73	36558	
595.92	34600	
596.11	35616	
596.3	37806	
596.49	36467	
596.68	35319	
596.88	36033	
597.07	37595	
597.26	36493	
597.45	34703	
597.64	36218	
597.83	36671	
598.02	37393	
598.22	34856	
598.41	35620	
598.6	36928	
598.79	36183	
598.98	34726	
599.17	35718	
599.36	36726	
599.55	37623	
599.74	36513	
599.94	36415	
600.13	36934	
600.32	35844	
600.51	34216	
600.7	34362	
600.89	37638	
601.08	37750	
601.27	34211	
601.47	35093	
601.66	36564	
601.85	37388	
602.04	34867	
602.23	34753	
602.42	35707	
602.61	36366	
602.8	34306	
602.99	33737	
603.18	35703	
603.37	36332	
603.57	34590	
603.76	35182	
603.95	36961	
604.14	36446	
604.33	34433	
604.52	34638	
604.71	36524	
604.9	35771	
605.09	35046	
605.28	34951	
605.47	36676	
605.66	36462	
605.86	34785	
606.05	34140	
606.24	36442	
606.43	35106	
606.62	34493	
606.81	35033	
607	36313	
607.19	35602	
607.38	33300	
607.57	33834	
607.76	35332	
607.95	34530	
608.14	33999	
608.33	34569	
608.52	35084	
608.72	36138	
608.91	33029	
609.1	32971	
609.29	35160	
609.48	34151	
609.67	33479	
609.86	32844	
610.05	34310	
610.24	34620	
610.43	32706	
610.62	32033	
610.81	35480	
611	35575	
611.19	32706	
611.38	33334	
611.57	34779	
611.76	36232	
611.95	32150	
612.14	32076	
612.33	34525	
612.52	34107	
612.71	32993	
612.9	32150	
613.09	33527	
613.28	35923	
613.47	32384	
613.66	33619	
613.85	34736	
614.04	34090	
614.24	32445	
614.43	31607	
614.62	34837	
614.81	34565	
615	33021	
615.19	33392	
615.38	33813	
615.57	34591	
615.76	33139	
615.95	34041	
616.14	34813	
616.33	34398	
616.52	33453	
616.71	33553	
616.9	34757	
617.09	34729	
617.28	32774	
617.47	34196	
617.66	34173	
617.85	34318	
618.04	34427	
618.22	33774	
618.41	35188	
618.6	36390	
618.79	34059	
618.98	34306	
619.17	36752	
619.36	35005	
619.55	34445	
619.74	34312	
619.93	36480	
620.12	36071	
620.31	35230	
620.5	35627	
620.69	37470	
620.88	38117	
621.07	36489	
621.26	35789	
621.45	37267	
621.64	37462	
621.83	35700	
622.02	35106	
622.21	37487	
622.4	37431	
622.59	36649	
622.78	36270	
622.97	36945	
623.16	38277	
623.35	36187	
623.54	35398	
623.72	37348	
623.91	37364	
624.1	36355	
624.29	35232	
624.48	38891	
624.67	37540	
624.86	36474	
625.05	35504	
625.24	38780	
625.43	37012	
625.62	37930	
625.81	35906	
626	37950	
626.19	37622	
626.38	37111	
626.56	36089	
626.75	37646	
626.94	38477	
627.13	36691	
627.32	35304	
627.51	37982	
627.7	39392	
627.89	35140	
628.08	36677	
628.27	36906	
628.46	37199	
628.65	35414	
628.83	35278	
629.02	37653	
629.21	37073	
629.4	35900	
629.59	35980	
629.78	37164	
629.97	37680	
630.16	36293	
630.35	35566	
630.54	38135	
630.72	37874	
630.91	35597	
631.1	35956	
631.29	37312	
631.48	37664	
631.67	35990	
631.86	35241	
632.05	37108	
632.24	37324	
632.42	34940	
632.61	35646	
632.8	36880	
632.99	36685	
633.18	35951	
633.37	36067	
633.56	37074	
633.75	37077	
633.93	35633	
634.12	35482	
634.31	37788	
634.5	37715	
634.69	35449	
634.88	35602	
635.07	36969	
635.25	37463	
635.44	36159	
635.63	36338	
635.82	36487	
636.01	35996	
636.2	35450	
636.39	35441	
636.57	37565	
636.76	36922	
636.95	34781	
637.14	36230	
637.33	36835	
637.52	37872	
637.7	34303	
637.89	35476	
638.08	36568	
638.27	37457	
638.46	35263	
638.65	35550	
638.83	37057	
639.02	35850	
639.21	34619	
639.4	35111	
639.59	35846	
639.78	35323	
639.96	33456	
640.15	33641	
640.34	35322	
640.53	35361	
640.72	32852	
640.91	33208	
641.09	34271	
641.28	35469	
641.47	33109	
641.66	34067	
641.85	35015	
642.03	34883	
642.22	33471	
642.41	32925	
642.6	34339	
642.79	33569	
642.97	32115	
643.16	33338	
643.35	33995	
643.54	33252	
643.73	32041	
643.91	32594	
644.1	32895	
644.29	33679	
644.48	31437	
644.67	31518	
644.85	32599	
645.04	32681	
645.23	30397	
645.42	30926	
645.6	31672	
645.79	32617	
645.98	29985	
646.17	28885	
646.36	30538	
646.54	30727	
646.73	29614	
646.92	28889	
647.11	29985	
647.29	31056	
647.48	28592	
647.67	28210	
647.86	31208	
648.05	31715	
648.23	28706	
648.42	29772	
648.61	30302	
648.8	30358	
648.98	28150	
649.17	28470	
649.36	29644	
649.55	29527	
649.73	28042	
649.92	29158	
650.11	29847	
650.3	30042	
650.48	28042	
650.67	27809	
650.86	29937	
651.05	28835	
651.23	27731	
651.42	27851	
651.61	29148	
651.79	28879	
651.98	27977	
652.17	27215	
652.36	29179	
652.54	28193	
652.73	27112	
652.92	26920	
653.11	29051	
653.29	29064	
653.48	26009	
653.67	27069	
653.85	28302	
654.04	29353	
654.23	26529	
654.42	25758	
654.6	26554	
654.79	27141	
654.98	24460	
655.16	24584	
655.35	25061	
655.54	25204	
655.73	23798	
655.91	23754	
656.1	26431	
656.29	25604	
656.47	23992	
656.66	25836	
656.85	26286	
657.03	26546	
657.22	24922	
657.41	25402	
657.59	26958	
657.78	26879	
657.97	25228	
658.16	25887	
658.34	27483	
658.53	28164	
658.72	26717	
658.9	27304	
659.09	27158	
659.28	27110	
659.46	25660	
659.65	25577	
659.84	26881	
660.02	27556	
660.21	25393	
660.4	25384	
660.58	27820	
660.77	27293	
660.96	25901	
661.14	24933	
661.33	28420	
661.52	28013	
661.7	24967	
661.89	28570	
662.08	26456	
662.26	26077	
662.45	24856	
662.64	24839	
662.82	26977	
663.01	26405	
663.2	24860	
663.38	25802	
663.57	26824	
663.75	26741	
663.94	25238	
664.13	26316	
664.31	26161	
664.5	26755	
664.69	25318	
664.87	25894	
665.06	25880	
665.25	26729	
665.43	26214	
665.62	25993	
665.8	26863	
665.99	25991	
666.18	24854	
666.36	24830	
666.55	26665	
666.74	26628	
666.92	24384	
667.11	25812	
667.29	26000	
667.48	26557	
667.67	25452	
667.85	24474	
668.04	25925	
668.22	26004	
668.41	24660	
668.6	24668	
668.78	25639	
668.97	25772	
669.15	24851	
669.34	23737	
669.53	25690	
669.71	25927	
669.9	23821	
670.08	24643	
670.27	25648	
670.46	25815	
670.64	24692	
670.83	25078	
671.01	25303	
671.2	25761	
671.38	24171	
671.57	23895	
671.76	26584	
671.94	27185	
672.13	23842	
672.31	24703	
672.5	26232	
672.69	25447	
672.87	24127	
673.06	24259	
673.24	25900	
673.43	25431	
673.61	24613	
673.8	24195	
673.98	25715	
674.17	26159	
674.36	24759	
674.54	24648	
674.73	25526	
674.91	25816	
675.1	24329	
675.28	23887	
675.47	25550	
675.65	26146	
675.84	24165	
676.03	24367	
676.21	25099	
676.4	24779	
676.58	24807	
676.77	24826	
676.95	26702	
677.14	25101	
677.32	23632	
677.51	23677	
677.69	25973	
677.88	24939	
678.06	23605	
678.25	23598	
678.44	25475	
678.62	25125	
678.81	23249	
678.99	24498	
679.18	26088	
679.36	25958	
679.55	24111	
679.73	24731	
679.92	25658	
680.1	25041	
680.29	25191	
680.47	23931	
680.66	24724	
680.84	25718	
681.03	23089	
681.21	24182	
681.4	25032	
681.58	24817	
681.77	23445	
681.95	23315	
682.14	25714	
682.32	25885	
682.51	24348	
682.69	23021	
682.88	24533	
683.06	25038	
683.25	23687	
683.43	24334	
683.62	24959	
683.8	25323	
683.99	24146	
684.17	23386	
684.36	25617	
684.54	23845	
684.73	21475	
684.91	21526	
685.1	22999	
685.28	22022	
685.46	21007	
685.65	20958	
685.83	22575	
686.02	22006	
686.2	20469	
686.39	20653	
686.57	21908	
686.76	23924	
686.94	21154	
687.13	21325	
687.31	22950	
687.5	22827	
687.68	20822	
687.86	22246	
688.05	24638	
688.23	22554	
688.42	22466	
688.6	21724	
688.79	23249	
688.97	23018	
689.16	22495	
689.34	21219	
689.52	24226	
689.71	24247	
689.89	22679	
690.08	21982	
690.26	23656	
690.45	23569	
690.63	22597	
690.81	22264	
691	22986	
691.18	23009	
691.37	21887	
691.55	23925	
691.74	22718	
691.92	24683	
692.1	21637	
692.29	20986	
692.47	22837	
692.66	22098	
692.84	21416	
693.02	21818	
693.21	22605	
693.39	22773	
693.58	22326	
693.76	21855	
693.94	24442	
694.13	24569	
694.31	22216	
694.5	23500	
694.68	23506	
694.86	24093	
695.05	22999	
695.23	22903	
695.42	24599	
695.6	26876	
695.78	23598	
695.97	22487	
696.15	24561	
696.34	23720	
696.52	22113	
696.7	22732	
696.89	23806	
697.07	23064	
697.25	22311	
697.44	23922	
697.62	23673	
697.81	23717	
697.99	21787	
698.17	22434	
698.36	22445	
698.54	23201	
698.72	22257	
698.91	20973	
699.09	22679	
699.28	22627	
699.46	21625	
699.64	21470	
699.83	22426	
700.01	23584	
700.19	22040	
700.38	20903	
700.56	23788	
700.74	22549	
700.93	21156	
701.11	22244	
701.29	23302	
701.48	24606	
701.66	21585	
701.84	21786	
702.03	23268	
702.21	24057	
702.39	21172	
702.58	22063	
702.76	23683	
702.94	23656	
703.13	21108	
703.31	23803	
703.49	22721	
703.68	23931	
703.86	21144	
704.04	22475	
704.23	23107	
704.41	23360	
704.59	21298	
704.78	22470	
704.96	24189	
705.14	23528	
705.33	21378	
705.51	21681	
705.69	22856	
705.87	23528	
706.06	22053	
706.24	21020	
706.42	23018	
706.61	23324	
706.79	21943	
706.97	20914	
707.16	22377	
707.34	22779	
707.52	21596	
707.7	21068	
707.89	22590	
708.07	21986	
708.25	21662	
708.44	22109	
708.62	22201	
708.8	23208	
708.98	21945	
709.17	20812	
709.35	22455	
709.53	22358	
709.72	20306	
709.9	20708	
710.08	22451	
710.26	22352	
710.45	21840	
710.63	20451	
710.81	21816	
710.99	21904	
711.18	20971	
711.36	20187	
711.54	21485	
711.72	21950	
711.91	20022	
712.09	19376	
712.27	21237	
712.45	21649	
712.64	19798	
712.82	18765	
713	19968	
713.18	19935	
713.37	18244	
713.55	18972	
713.73	20070	
713.91	18078	
714.1	17329	
714.28	16177	
714.46	18133	
714.64	16823	
714.83	14616	
715.01	15026	
715.19	16080	
715.37	15281	
715.55	14194	
715.74	14505	
715.92	16475	
716.1	14300	
716.28	15343	
716.47	14141	
716.65	14838	
716.83	14974	
717.01	13812	
717.19	13856	
717.38	17176	
717.56	14855	
717.74	14319	
717.92	13668	
718.1	16248	
718.29	15803	
718.47	13928	
718.65	14911	
718.83	17210	
719.01	17391	
719.2	14570	
719.38	15797	
719.56	17045	
719.74	18716	
719.92	15148	
720.11	16011	
720.29	16550	
720.47	15502	
720.65	13853	
720.83	14429	
721.02	15113	
721.2	14722	
721.38	14023	
721.56	13255	
721.74	14073	
721.92	14100	
722.11	14370	
722.29	14022	
722.47	15427	
722.65	14597	
722.83	13003	
723.01	13822	
723.2	14632	
723.38	14872	
723.56	12480	
723.74	13621	
723.92	14050	
724.1	15283	
724.29	12877	
724.47	14121	
724.65	14099	
724.83	13886	
725.01	12473	
725.19	13493	
725.37	13835	
725.56	13969	
725.74	12383	
725.92	12793	
726.1	13848	
726.28	14002	
726.46	13021	
726.64	12605	
726.83	13945	
727.01	14330	
727.19	12357	
727.37	13173	
727.55	14113	
727.73	14588	
727.91	12172	
728.09	11987	
728.28	14684	
728.46	15244	
728.64	13300	
728.82	13265	
729	15981	
729.18	15316	
729.36	12905	
729.54	15148	
729.72	16591	
729.91	14910	
730.09	14973	
730.27	13880	
730.45	14919	
730.63	15672	
730.81	14601	
730.99	13674	
731.17	16300	
731.35	14678	
731.53	14141	
731.71	13812	
731.9	15730	
732.08	15753	
732.26	13777	
732.44	13343	
732.62	15755	
732.8	15457	
732.98	14017	
733.16	13039	
733.34	15029	
733.52	13848	
733.7	13379	
733.88	13573	
734.07	14724	
734.25	14665	
734.43	12865	
734.61	14493	
734.79	16244	
734.97	14503	
735.15	12995	
735.33	13259	
735.51	14690	
735.69	14460	
735.87	14452	
736.05	13226	
736.23	14543	
736.41	14302	
736.59	13105	
736.77	13246	
736.95	14997	
737.13	14423	
737.32	12674	
737.5	13110	
737.68	15563	
737.86	14111	
738.04	12381	
738.22	14212	
738.4	13770	
738.58	13934	
738.76	12993	
738.94	11844	
739.12	13878	
739.3	13750	
739.48	13639	
739.66	13442	
739.84	14070	
740.02	14160	
740.2	11876	
740.38	12377	
740.56	14504	
740.74	13199	
740.92	12863	
741.1	12605	
741.28	13497	
741.46	13512	
741.64	12109	
741.82	12620	
742	13477	
742.18	13405	
742.36	12340	
742.54	11875	
742.72	13981	
742.9	12685	
743.08	12489	
743.26	11259	
743.44	14022	
743.62	13829	
743.8	12501	
743.98	11571	
744.16	13483	
744.34	13078	
744.52	12312	
744.7	12202	
744.88	13413	
745.06	12789	
745.24	12172	
745.42	12191	
745.6	13346	
745.78	12964	
745.96	10801	
746.14	10855	
746.32	13842	
746.5	13033	
746.68	11414	
746.86	10824	
747.03	13431	
747.21	11641	
747.39	11370	
747.57	10647	
747.75	12429	
747.93	12841	
748.11	10799	
748.29	10657	
748.47	14218	
748.65	12049	
748.83	11450	
749.01	11127	
749.19	12699	
749.37	11697	
749.55	10847	
749.73	11036	
749.91	12088	
750.09	11736	
750.26	10860	
750.44	10404	
750.62	12114	
750.8	12041	
750.98	10122	
751.16	10461	
751.34	12048	
751.52	11325	
751.7	11290	
751.88	10051	
752.06	12566	
752.24	12364	
752.42	9892.4	
752.59	10217	
752.77	11773	
752.95	13179	
753.13	10993	
753.31	10279	
753.49	11445	
753.67	11856	
753.85	10542	
754.03	10131	
754.21	11930	
754.38	12185	
754.56	9903.3	
754.74	8760.5	
754.92	10674	
755.1	11280	
755.28	8259.5	
755.46	7980.3	
755.64	10970	
755.82	10608	
755.99	6901.7	
756.17	6778.1	
756.35	7006.8	
756.53	8537.3	
756.71	5005.9	
756.89	6019.7	
757.07	8099	
757.25	7203.4	
757.42	7076.4	
757.6	8170.7	
757.78	8909.3	
757.96	8003.5	
758.14	7339.9	
758.32	6824.5	
758.5	7489.4	
758.67	8260.8	
758.85	6882.5	
759.03	7039.6	
759.21	8412.4	
759.39	7824.6	
759.57	6537.1	
759.75	7702.4	
759.92	9157.2	
760.1	8467.7	
760.28	8232.2	
760.46	8690.2	
760.64	8439	
760.82	8320.9	
760.99	8374.8	
761.17	7632.8	
761.35	9657.5	
761.53	8492.2	
761.71	7868.3	
761.89	8678.6	
762.06	9644.6	
762.24	9143.5	
762.42	8238.3	
762.6	7968.6	
762.78	9364	
762.96	10041	
763.13	8742.1	
763.31	8418.5	
763.49	10178	
763.67	9321.7	
763.85	9256.1	
764.02	9857.6	
764.2	10546	
764.38	9650.7	
764.56	8154.3	
764.74	8969.4	
764.91	10538	
765.09	9300.5	
765.27	7806.9	
765.45	7561.8	
765.63	10445	
765.8	10375	
765.98	7163.8	
766.16	7436.9	
766.34	8651.3	
766.52	8449.2	
766.69	8512.7	
766.87	7234.8	
767.05	9093	
767.23	9635	
767.41	7428	
767.58	7662.8	
767.76	9363.3	
767.94	9524.4	
768.12	7388.4	
768.29	8104.5	
768.47	8797.4	
768.65	9622	
768.83	6870.3	
769	8085.4	
769.18	8267	
769.36	8933.2	
769.54	7989.1	
769.72	6720.8	
769.89	9121.7	
770.07	9297.8	
770.25	7024.5	
770.43	8307.9	
770.6	9787.2	
770.78	10342	
770.96	7073	
771.14	7301.7	
771.31	8806.3	
771.49	8120.9	
771.67	6072.2	
771.85	6350.8	
772.02	7183.6	
772.2	8019.2	
772.38	7100.3	
772.55	6466.8	
772.73	8172.8	
772.91	7934.5	
773.09	6736.5	
773.26	6793.8	
773.44	7957.7	
773.62	7618.4	
773.8	6107.7	
773.97	5821.7	
774.15	7944.1	
774.33	7547.4	
774.5	5959.6	
774.68	6291.4	
774.86	8030.8	
775.04	7491.5	
775.21	5890.6	
775.39	5857.9	
775.57	7677.2	
775.74	8149.6	
775.92	5677	
776.1	5556.8	
776.27	7532.4	
776.45	8811.7	
776.63	5674.2	
776.81	5272.8	
776.98	7095.5	
777.16	8310.7	
777.34	5720	
777.51	6039.5	
777.69	6969.2	
777.87	6698.9	
778.04	5795.8	
778.22	6404	
778.4	6707.8	
778.57	7398.6	
778.75	4908.3	
778.93	5230.5	
779.1	6463.4	
779.28	6271.6	
779.46	4923.3	
779.64	5387.5	
779.81	7405.5	
779.99	8301.8	
780.17	6145.3	
780.34	6282.5	
780.52	6848.4	
780.69	6984.3	
780.87	5552	
781.05	5098.1	
781.22	6837.5	
781.4	6866.8	
781.58	5178.6	
781.75	4265.2	
781.93	6747.4	
782.11	6113.9	
782.28	6021.7	
782.46	5065.3	
782.64	5872.9	
782.81	6897.6	
782.99	5150.6	
783.17	5123.3	
783.34	6711.2	
783.52	5860.6	
783.69	5212.8	
783.87	6155.5	
784.05	6025.1	
784.22	5948	
784.4	6015.6	
784.58	5261.9	
784.75	6834.1	
784.93	5811.5	
785.1	4900.8	
785.28	5601.9	
785.46	6526.2	
785.63	5857.2	
785.81	4827.1	
785.99	4655	
786.16	5954.1	
786.34	6336.4	
786.51	4674.1	
786.69	5158.8	
786.87	5497.4	
787.04	6059.9	
787.22	4435.9	
787.39	5474.9	
787.57	5706.3	
787.75	6890.7	
787.92	5652.4	
788.1	5591	
788.27	5787.6	
788.45	5476.3	
788.63	5246.9	
788.8	3871.3	
788.98	6229.2	
789.15	5449	
789.33	4016.1	
789.5	4693.9	
789.68	6640.9	
789.86	6727.6	
790.03	5133.6	
790.21	4549.9	
790.38	6589	
790.56	5772.5	
790.73	4361.5	
790.91	4311	
791.09	5629.2	
791.26	6376	
791.44	4610	
791.61	4017.4	
791.79	5526.8	
791.96	5634	
792.14	4119.8	
792.32	3655.6	
792.49	5535	
792.67	5674.9	
792.84	4206.5	
793.02	3934.1	
793.19	5999.9	
793.37	6749.4	
793.54	3677.5	
793.72	4010.6	
793.89	6918	
794.07	5492.7	
794.25	4679.6	
794.42	3737.5	
794.6	6619.7	
794.77	6188.3	
794.95	4922	
795.12	4362.9	
795.3	5464	
795.47	6078.4	
795.65	4739	
795.82	4557.4	
796	5261.9	
796.17	7223.2	
796.35	4318.5	
796.52	5144.5	
796.7	6029.2	
796.87	6097.5	
797.05	5392.3	
797.22	5293.3	
797.4	6019	
797.57	7044.3	
797.75	4485.7	
797.92	4291.2	
798.1	6384.9	
798.27	5380.7	
798.45	3692.5	
798.62	3906.2	
798.8	5653.8	
798.97	6253.1	
799.15	4687.1	
799.32	4420.2	
799.5	4948.6	
799.67	5823.7	
799.85	4824.3	
800.02	3569.6	
800.2	5364.3	
800.37	5691.3	
800.55	4996.4	
800.72	4178.5	
800.9	6225.1	
801.07	6631.3	
801.25	5554.1	
801.42	4633.2	
801.6	6184.2	
801.77	5901.6	
801.95	4209.3	
802.12	4111.6	
802.29	5863.3	
802.47	5895.4	
802.64	4547.9	
802.82	3478.1	
802.99	5272.8	
803.17	6294.1	
803.34	4409.3	
803.52	3979.9	
803.69	7000.6	
803.87	5074.9	
804.04	4360.1	
804.21	4501.4	
804.39	6409.5	
804.56	5510.4	
804.74	3750.5	
804.91	4542.4	
805.09	5347.2	
805.26	5397.8	
805.44	3848.8	
805.61	4171	
805.78	5981.4	
805.96	6004.6	
806.13	4493.2	
806.31	4876.2	
806.48	4832.5	
806.66	5377.3	
806.83	4526.7	
807	4357.4	
807.18	5210.7	
807.35	5624.4	
807.53	4331.5	
807.7	3538.9	
807.87	6424.5	
808.05	5250.3	
808.22	4776.5	
808.4	3456.3	
808.57	5257.1	
808.74	4879.6	
808.92	3943.7	
809.09	4995.7	
809.27	5109.7	
809.44	5756.2	
809.61	3534.8	
809.79	3856.3	
809.96	6419	
810.14	6023.8	
810.31	3377.1	
810.48	4147.8	
810.66	5324	
810.83	6044.2	
811.01	3994.9	
811.18	4451.6	
811.35	6004.6	
811.53	4713.1	
811.7	4775.2	
811.87	4461.8	
812.05	5216.9	
812.22	5146.5	
812.39	3751.9	
812.57	3708.9	
812.74	5300.1	
812.92	6969.9	
813.09	4108.9	
813.26	4435.9	
813.44	6622.4	
813.61	5198.4	
813.78	3406.5	
813.96	4635.9	
814.13	5220.3	
814.3	4920.6	
814.48	4980	
814.65	4165.6	
814.82	6500.9	
815	5046.2	
815.17	4213.4	
815.34	5192.3	
815.52	5148.6	
815.69	5112.4	
815.87	4257	
816.04	3704.1	
816.21	5266	
816.38	4577.9	
816.56	4037.9	
816.73	3852.2	
816.9	6616.3	
817.08	5990.3	
817.25	3801	
817.42	4775.2	
817.6	4726	
817.77	5190.9	
817.94	4338.3	
818.12	3733.4	
818.29	4991.6	
818.46	7782.3	
818.64	3969	
818.81	3713	
818.98	4868	
819.16	7154.2	
819.33	4583.4	
819.5	4197.7	
819.67	5640.1	
819.85	6287.3	
820.02	4172.4	
820.19	4429.1	
820.37	5438	
820.54	5029.1	
820.71	4321.9	
820.88	5373.9	
821.06	5543.2	
821.23	5043.5	
821.4	4313	
821.58	4218.8	
821.75	5952.1	
821.92	5387.5	
822.09	3444.7	
822.27	3781.9	
822.44	5199.1	
822.61	5132.9	
822.79	3494.5	
822.96	6630	
823.13	5806	
823.3	4975.9	
823.48	4005.1	
823.65	3651.5	
823.82	5976	
823.99	4795.7	
824.17	5074.9	
824.34	3652.9	
824.51	6843.6	
824.68	5307.7	
824.86	3801.7	
825.03	4333.5	
825.2	5210.7	
825.37	6303	
825.55	3772.4	
825.72	4223.6	
825.89	6922.1	
826.06	6414.9	
826.24	4125.3	
826.41	4145.1	
826.58	6316.6	
826.75	5499.5	
826.92	3278.1	
827.1	3561.4	
827.27	8602.8	
827.44	6899.6	
827.61	3889.1	
827.79	4719.2	
827.96	4921.3	
828.13	5309	
828.3	4063.9	
828.47	3444	
828.65	5449	
828.82	5383.4	
828.99	5264.6	
829.16	4604.5	
829.34	5865.4	
829.51	5591	
829.68	4203.1	
829.85	4412	
830.02	6146	
830.2	5823.1	
830.37	3304.1	
830.54	5135.6	
830.71	6658.6	
830.88	5150	
831.05	3358.7	
831.23	3803.8	
831.4	6331.6	
831.57	7172.7	
831.74	3932.8	
831.91	3412.6	
832.09	5428.5	
832.26	5743.9	
832.43	4071.4	
832.6	4547.9	
832.77	5404.6	
832.94	6235.4	
833.12	3272.7	
833.29	4021.5	
833.46	5655.8	
833.63	7357	
833.8	4399.7	
833.97	4060.4	
834.15	5827.2	
834.32	5614.8	
834.49	4234.5	
834.66	4360.8	
834.83	6111.8	
835	4932.2	
835.17	3879.5	
835.35	3932.8	
835.52	5768.4	
835.69	5677	
835.86	4154.6	
836.03	3376.4	
836.2	5769.8	
836.37	5410.1	
836.55	4059.1	
836.72	3753.9	
836.89	5324	
837.06	5866.1	
837.23	4102.1	
837.4	4478.2	
837.57	6714.6	
837.75	7332.4	
837.92	3730	
838.09	3979.9	
838.26	5362.9	
838.43	6107.7	
838.6	4272.7	
838.77	3787.4	
838.94	6935.1	
839.11	6697.5	
839.29	4047.5	
839.46	3240.6	
839.63	5780.7	
839.8	5500.8	
839.97	4018.1	
840.14	3911.6	
840.31	5545.9	
840.48	5812.8	
840.65	3323.9	
840.82	4038.6	
841	5767.8	
841.17	5722	
841.34	3641.3	
841.51	3684.3	
841.68	5698.8	
841.85	5494	
842.02	3740.3	
842.19	3084.2	
842.36	5521.3	
842.53	5477	
842.7	3596.2	
842.87	4475.5	
843.05	7326.3	
843.22	5484.5	
843.39	3424.9	
843.56	3759.4	
843.73	5229.1	
843.9	5881.1	
844.07	5849.7	
844.24	4852.3	
844.41	8550.3	
844.58	5064.6	
844.75	3472.7	
844.92	3857.7	
845.09	5772.5	
845.26	5792.3	
845.43	3611.3	
845.6	3747.1	
845.77	5812.8	
845.94	5467.4	
846.12	3926	
846.29	4182.6	
846.46	5953.4	
846.63	5722.7	
846.8	3589.4	
846.97	4293.2	
847.14	6220.4	
847.31	5762.3	
847.48	4004.5	
847.65	4408.6	
847.82	6051.1	
847.99	5949.3	
848.16	4770.4	
848.33	4418.2	
848.5	5340.4	
848.67	6272.9	
848.84	3516.4	
849.01	3670	
849.18	5147.2	
849.35	4825.7	
849.52	4526.7	
849.69	3480.9	
849.86	5919.3	
850.03	6175.3	
850.2	3546.4	
850.37	4370.4	
850.54	6154.8	
850.71	5437.4	
850.88	4332.1	
851.05	3539.6	
851.22	5636.7	
851.39	6365.1	
851.56	3388	
851.73	4134.2	
851.9	5078.3	
852.07	5956.9	
852.24	4001	
852.41	3567.6	
852.58	5606.7	
852.75	5153.4	
852.92	4059.1	
853.09	3490.4	
853.26	5373.2	
853.43	6167.1	
853.6	3582.6	
853.77	3064.4	
853.94	6296.8	
854.11	5702.9	
854.28	5266	
854.44	3886.4	
854.61	6744.6	
854.78	6061.3	
854.95	3538.9	
855.12	4477.5	
855.29	4646.2	
855.46	6374	
855.63	3577.1	
855.8	4909	
855.97	5289.9	
856.14	6081.1	
856.31	5005.9	
856.48	3878.9	
856.65	5264	
856.82	4997.7	
856.99	3424.9	
857.16	3901.4	
857.33	7034.1	
857.49	5385.5	
857.66	3837.2	
857.83	4087.1	
858	5317.2	
858.17	5604.6	
858.34	3405.1	
858.51	3573.7	
858.68	6413.6	
858.85	6515.3	
859.02	4117.8	
859.19	4432.5	
859.36	5057.1	
859.52	5111	
859.69	3573	
859.86	4210.6	
860.03	5124.7	
860.2	6402.6	
860.37	3237.2	
860.54	3568.9	
860.71	5930.9	
860.88	6425.2	
861.05	3994.9	
861.21	4508.9	
861.38	6489.3	
861.55	4947.9	
861.72	3217.4	
861.89	4014.7	
862.06	6047	
862.23	6580.8	
862.4	3495.9	
862.56	3725.3	
862.73	5889.3	
862.9	5540.4	
863.07	4180.6	
863.24	3200.3	
863.41	4980	
863.58	5127.4	
863.75	3636.5	
863.91	4064.5	
864.08	6406	
864.25	5934.3	
864.42	4435.9	
864.59	4966.3	
864.76	6694.8	
864.93	5053	
865.09	3453.6	
865.26	3752.6	
865.43	6199.9	
865.6	6633.4	
865.77	3103.4	
865.94	3525.9	
866.1	6272.2	
866.27	6016.2	
866.44	5386.2	
866.61	3331.4	
866.78	5421	
866.95	5816.9	
867.11	3441.3	
867.28	3149.1	
867.45	6088.6	
867.62	5130.8	
867.79	4173.1	
867.96	3542.3	
868.12	5067.4	
868.29	5997.8	
868.46	3101.3	
868.63	4771.8	
868.8	6186.2	
868.97	5922.7	
869.13	3691.1	
869.3	3676.1	
869.47	5894.1	
869.64	6072.9	
869.81	3556	
869.97	3545	
870.14	5722.7	
870.31	6431.3	
870.48	3524.6	
870.65	4552	
870.81	5373.9	
870.98	5322.7	
871.15	4062.5	
871.32	3646.1	
871.48	5883.1	
871.65	6503	
871.82	3489.1	
871.99	3935.5	
872.16	6948.8	
872.32	6221	
872.49	3592.8	
872.66	3623.5	
872.83	5959.6	
872.99	5238	
873.16	4037.2	
873.33	3504.1	
873.5	5619.6	
873.67	5591	
873.83	3696.6	
874	4750.6	
874.17	5720	
874.34	6843.6	
874.5	4569.7	
874.67	4416.1	
874.84	6302.3	
875.01	5013.4	
875.17	5006.6	
875.34	3531.4	
875.51	5667.4	
875.68	6809.5	
875.84	4286.4	
876.01	5213.4	
876.18	5924.8	
876.34	5825.1	
876.51	3553.2	
876.68	3508.2	
876.85	5374.6	
877.01	6236.7	
877.18	5030.5	
877.35	3531.4	
877.52	5489.2	
877.68	4946.5	
877.85	3436.5	
878.02	3455.6	
878.18	5471.5	
878.35	5240.1	
878.52	2828.2	
878.69	3956	
878.85	5886.5	
879.02	5892.7	
879.19	5057.8	
879.35	3781.9	
879.52	5859.9	
879.69	6124.1	
879.86	3046.7	
880.02	3980.6	
880.19	5485.8	
880.36	6768.5	
880.52	4040.6	
880.69	4215.4	
880.86	6034	
881.02	6063.4	
881.19	3936.2	
881.36	3855.6	
881.52	5887.2	
881.69	5198.4	
881.86	3801	
882.02	3766.9	
882.19	6205.3	
882.36	7278.5	
882.52	3654.9	
882.69	4984.1	
882.86	5638.7	
883.02	5646.9	
883.19	4269.3	
883.36	4087.7	
883.52	6009.4	
883.69	6950.1	
883.86	3580.5	
884.02	3189.4	
884.19	5997.1	
884.36	5517.9	
884.52	3966.2	
884.69	3754.6	
884.86	5233.9	
885.02	6594.5	
885.19	3930.7	
885.36	4103.4	
885.52	5492.7	
885.69	5667.4	
885.86	5175.9	
886.02	4561.5	
886.19	6003.3	
886.35	5407.3	
886.52	3901.4	
886.69	4990.2	
886.85	5041.4	
887.02	6412.2	
887.19	6412.2	
887.35	6412.2	
887.52	6412.2	
887.68	6412.2	
887.85	6412.2	
888.02	6412.2	
888.18	6412.2	
888.35	6412.2	
888.51	6412.2	
888.68	6412.2	
888.85	6412.2	
889.01	6412.2	
889.18	6412.2	
889.35	6412.2	
889.51	6412.2	
889.68	6412.2	
889.84	6412.2	
890.01	6412.2	
890.17	6412.2	
890.34	6412.2	
890.51	6412.2	
890.67	6412.2	
890.84	6412.2	
891	6412.2	
891.17	6412.2	
891.34	6412.2	
891.5	6412.2	
891.67	6412.2	
891.83	6412.2	
892	6412.2	
892.16	6412.2	
892.33	6412.2	
892.5	6412.2	
892.66	6412.2	
892.83	6412.2	
892.99	6412.2	
893.16	6412.2	
893.32	6412.2	
893.49	6412.2	
893.65	6412.2	
893.82	6412.2	
893.99	6412.2	
894.15	6412.2	
894.32	6412.2	
894.48	6412.2	
894.65	6412.2	
894.81	6412.2	
894.98	6412.2	
895.14	6412.2	
895.31	6412.2	
895.47	6412.2	
895.64	6412.2	
895.81	6412.2	
895.97	6412.2	
896.14	6412.2	
896.3	6412.2	
896.47	6412.2	
896.63	6412.2	
896.8	6412.2	
896.96	6412.2	
897.13	6412.2	
897.29	6412.2	
897.46	6412.2	
897.62	6412.2	
897.79	6412.2	
897.95	6412.2	
898.12	6412.2	
898.28	6412.2	
898.45	6412.2	
898.61	6412.2	
898.78	6412.2	
898.94	6412.2	
899.11	6412.2	
899.27	6412.2	
899.44	6412.2	
899.6	6412.2	
899.77	6412.2	
899.93	6412.2	
900.1	6412.2	
900.26	6412.2	
900.43	6412.2	
900.59	6412.2	
900.76	6412.2	
900.92	6412.2	
901.09	6412.2	
901.25	6412.2	
901.42	6412.2	
901.58	6412.2	
901.75	6412.2	
901.91	6412.2	
902.07	6412.2	
902.24	6412.2	
902.4	6412.2	
902.57	6412.2	
902.73	6412.2	
902.9	6412.2	
903.06	6412.2	
903.23	6412.2	
903.39	6412.2	
903.56	6412.2	
903.72	6412.2	
903.88	6412.2	
904.05	6412.2	
904.21	6412.2	
904.38	6412.2	
904.54	6412.2	
904.71	6412.2	
904.87	6412.2	
905.03	6412.2	
905.2	6412.2	
905.36	6412.2	
905.53	6412.2	
905.69	6412.2	
905.86	6412.2	
906.02	6412.2	
906.18	6412.2	
906.35	6412.2	
906.51	6412.2	
906.68	6412.2	
906.84	6412.2	
907.01	6412.2	
907.17	6412.2	
907.33	6412.2	
907.5	6412.2	
907.66	6412.2	
907.83	6412.2	
907.99	6412.2	
908.15	6412.2	
908.32	6412.2	
908.48	6412.2	
908.65	6412.2	
908.81	6412.2	
908.97	6412.2	
909.14	6412.2	
909.3	6412.2	
909.47	6412.2	
909.63	6412.2	
909.79	6412.2	
909.96	6412.2	
910.12	6412.2	
910.28	6412.2	
910.45	6412.2	
910.61	6412.2	
910.78	6412.2	
910.94	6412.2	
911.1	6412.2	
911.27	6412.2	
911.43	6412.2	
911.59	6412.2	
911.76	6412.2	
911.92	6412.2	
912.08	6412.2	
912.25	6412.2	
912.41	6412.2	
912.57	6412.2	
912.74	6412.2	
912.9	6412.2	
913.07	6412.2	
913.23	6412.2	
913.39	6412.2	
913.56	6412.2	
913.72	6412.2	
913.88	6412.2	
914.05	6412.2	
914.21	6412.2	
914.37	6412.2	
914.54	6412.2	
914.7	6412.2	
914.86	6412.2	
915.03	6412.2	
915.19	6412.2	
