Wavelength	Intensities	
nm	a.u.	
179.22	1941.6	
179.44	1936.4	
179.65	1946.9	
179.86	1925.8	
180.08	1926.5	
180.29	5045.5	
180.51	3566.9	
180.72	5759.6	
180.94	6796.5	
181.15	3321.8	
181.37	3246.7	
181.58	5590.3	
181.79	5877	
182.01	3452.9	
182.22	3700	
182.44	5891.3	
182.65	4880.3	
182.87	4724.7	
183.08	4095.9	
183.29	6172.6	
183.51	5070.8	
183.72	3796.3	
183.94	5517.9	
184.15	5499.5	
184.37	5582.1	
184.58	3277.4	
184.79	4591.5	
185.01	5090.6	
185.22	5860.6	
185.44	4817.5	
185.65	3956.7	
185.86	5401.9	
186.08	4952	
186.29	3158.7	
186.51	3424.2	
186.72	5102.9	
186.94	6018.3	
187.15	4025.6	
187.36	4162.2	
187.58	7987.8	
187.79	5653.1	
188.01	4351.3	
188.22	6767.9	
188.43	6802.7	
188.65	5867.4	
188.86	3450.8	
189.08	4107.5	
189.29	5331.5	
189.5	5266	
189.72	3840.6	
189.93	3912.3	
190.15	6077	
190.36	7304.4	
190.57	4285.7	
190.79	4087.1	
191	6155.5	
191.22	6136.4	
191.43	4187.4	
191.64	3418.1	
191.86	6421.1	
192.07	6169.8	
192.29	3645.4	
192.5	3884.3	
192.71	6135.7	
192.93	5150	
193.14	3736.9	
193.35	3852.2	
193.57	5256.5	
193.78	6068.8	
194	3041.2	
194.21	3717.7	
194.42	5029.8	
194.64	5550.7	
194.85	4143.7	
195.07	4888.5	
195.28	5529.5	
195.49	4775.2	
195.71	5193	
195.92	3562.8	
196.13	5709.7	
196.35	5828.5	
196.56	5496.7	
196.78	4126	
196.99	7234.8	
197.2	6765.8	
197.42	4747.9	
197.63	4221.5	
197.84	4925.4	
198.06	5711.1	
198.27	3857	
198.48	5162.9	
198.7	5225.7	
198.91	5357.5	
199.13	4145.8	
199.34	4194.2	
199.55	5912.5	
199.77	4766.3	
199.98	3624.9	
200.19	4233.8	
200.41	5433.9	
200.62	5127.4	
200.83	4301.4	
201.05	4695.3	
201.26	5407.3	
201.47	5171.8	
201.69	3705.5	
201.9	3546.4	
202.11	5489.9	
202.33	6545.3	
202.54	3957.4	
202.76	4368.3	
202.97	5592.3	
203.18	5584.1	
203.4	4325.3	
203.61	4291.2	
203.82	5580	
204.04	5128.8	
204.25	4212	
204.46	4130.1	
204.68	5507	
204.89	5724.8	
205.1	4116.4	
205.32	3565.5	
205.53	5970.5	
205.74	6108.4	
205.96	3009.1	
206.17	4257.7	
206.38	5916.6	
206.6	6054.5	
206.81	4804.5	
207.02	3891.8	
207.24	5778	
207.45	6172.6	
207.66	4003.1	
207.88	3326.6	
208.09	5707	
208.3	5549.3	
208.52	3663.1	
208.73	3930.7	
208.94	5483.1	
209.15	6202.6	
209.37	3960.1	
209.58	4192.9	
209.79	6090.7	
210.01	5258.5	
210.22	3164.1	
210.43	3337.5	
210.65	5581.4	
210.86	5982.8	
211.07	4018.8	
211.29	3624.2	
211.5	5967.1	
211.71	5449	
211.93	3646.7	
212.14	3583.9	
212.35	5431.9	
212.56	5725.4	
212.78	4198.3	
212.99	3480.9	
213.2	6577.4	
213.42	5246.2	
213.63	3689.1	
213.84	4093.2	
214.06	4873.5	
214.27	4985.4	
214.48	3978.5	
214.69	4238.6	
214.91	6204	
215.12	6346	
215.33	4291.2	
215.55	4714.4	
215.76	6874.3	
215.97	5924.1	
216.18	4151.9	
216.4	4032.5	
216.61	5205.3	
216.82	6090.7	
217.04	3656.3	
217.25	3825.6	
217.46	6217	
217.67	5952.8	
217.89	3244.7	
218.1	3467.9	
218.31	5596.4	
218.53	5707	
218.74	3807.9	
218.95	3697.3	
219.16	5465.3	
219.38	6492.1	
219.59	3764.2	
219.8	4556.7	
220.01	7219.1	
220.23	5520.6	
220.44	4915.8	
220.65	3628.3	
220.87	5569.8	
221.08	6186.9	
221.29	3326.6	
221.5	4571.7	
221.72	7641	
221.93	5257.1	
222.14	4212	
222.35	5042.1	
222.57	5683.8	
222.78	5920.7	
222.99	3979.9	
223.2	4325.3	
223.42	5862.7	
223.63	6001.9	
223.84	3022.1	
224.05	2999.6	
224.27	7100.3	
224.48	6531	
224.69	4949.3	
224.9	4187.4	
225.12	5717.2	
225.33	5459.2	
225.54	3332	
225.75	3730.7	
225.97	5038	
226.18	5357.5	
226.39	3975.1	
226.6	3730	
226.82	5263.3	
227.03	5104.2	
227.24	4196.3	
227.45	3484.3	
227.67	5868.8	
227.88	6471.6	
228.09	4638	
228.3	4696	
228.52	5980.8	
228.73	5472.2	
228.94	3852.2	
229.15	3403	
229.36	5403.2	
229.58	5420.3	
229.79	3932.1	
230	4657.8	
230.21	6582.9	
230.43	5614.2	
230.64	4104.1	
230.85	4394.9	
231.06	5909.8	
231.28	5945.9	
231.49	3454.2	
231.7	4023.6	
231.91	5894.7	
232.12	5571.2	
232.34	3523.9	
232.55	4100.7	
232.76	6158.9	
232.97	5710.4	
233.18	3644	
233.4	4117.1	
233.61	5758.2	
233.82	5208	
234.03	3822.9	
234.25	3823.6	
234.46	7744.7	
234.67	5560.9	
234.88	4262.5	
235.09	3680.9	
235.31	5842.9	
235.52	5412.8	
235.73	4124.6	
235.94	3472	
236.15	5175.2	
236.37	6735.1	
236.58	3659	
236.79	4006.5	
237	5810.1	
237.21	5000.5	
237.43	4269.3	
237.64	3342.3	
237.85	10230	
238.06	5094.7	
238.27	4396.3	
238.48	3444	
238.7	5885.9	
238.91	5339.1	
239.12	3945.1	
239.33	4018.1	
239.54	5109.7	
239.76	5472.9	
239.97	3971.7	
240.18	3966.2	
240.39	6972.7	
240.6	5823.7	
240.82	4171	
241.03	3360	
241.24	5490.6	
241.45	6401.3	
241.66	3620.1	
241.87	4289.8	
242.09	6272.9	
242.3	6716	
242.51	4456.4	
242.72	4029	
242.93	6058.6	
243.14	5410.7	
243.36	4629.8	
243.57	5066.7	
243.78	6474.3	
243.99	5795.8	
244.2	3969	
244.41	3646.1	
244.63	5073.5	
244.84	5802.6	
245.05	4265.9	
245.26	4012	
245.47	5822.4	
245.68	6149.4	
245.9	5413.5	
246.11	4237.9	
246.32	5356.8	
246.53	5810.8	
246.74	6552.8	
246.95	3398.3	
247.16	4941.7	
247.38	5523.4	
247.59	3336.8	
247.8	4033.8	
248.01	5201.8	
248.22	5428.5	
248.43	3590.1	
248.64	3977.8	
248.86	4857.8	
249.07	5307.7	
249.28	3524.6	
249.49	4108.2	
249.7	6057.9	
249.91	6219	
250.12	3355.9	
250.34	3363.4	
250.55	5661.3	
250.76	5518.6	
250.97	4237.9	
251.18	4188.8	
251.39	6268.1	
251.6	5690.6	
251.81	4260.5	
252.03	4244.8	
252.24	5197.1	
252.45	6081.1	
252.66	3482.9	
252.87	4484.4	
253.08	5578.7	
253.29	7341.3	
253.5	3532.7	
253.72	4892.6	
253.93	5377.3	
254.14	6638.8	
254.35	3789.4	
254.56	3961.5	
254.77	5760.3	
254.98	5114.5	
255.19	3769.6	
255.41	4916.5	
255.62	5593.7	
255.83	6208.1	
256.04	4359.4	
256.25	4246.8	
256.46	6617	
256.67	5137	
256.88	4126.7	
257.09	4700.1	
257.31	5218.9	
257.52	5237.3	
257.73	5241.4	
257.94	3776.5	
258.15	5380	
258.36	5493.3	
258.57	4820.9	
258.78	3044	
258.99	5988.9	
259.2	5414.1	
259.41	3839.9	
259.63	3967.6	
259.84	6395.8	
260.05	6902.3	
260.26	5100.8	
260.47	3691.8	
260.68	6129.6	
260.89	5433.9	
261.1	4592.2	
261.31	3644.7	
261.52	6146.6	
261.73	6512.5	
261.95	4968.4	
262.16	4369.7	
262.37	6298.2	
262.58	6401.3	
262.79	4910.3	
263	3926	
263.21	5623.7	
263.42	5061.9	
263.63	3956	
263.84	3859.1	
264.05	6088.6	
264.26	6505	
264.47	4741	
264.69	4163.5	
264.9	6242.2	
265.11	5710.4	
265.32	3706.8	
265.53	3775.1	
265.74	5677	
265.95	4887.8	
266.16	4058.4	
266.37	4518.5	
266.58	5680.4	
266.79	5314.5	
267	3793.5	
267.21	3471.3	
267.42	5113.1	
267.63	5510.4	
267.84	3980.6	
268.06	3403	
268.27	5994.4	
268.48	6267.5	
268.69	3914.4	
268.9	4633.9	
269.11	6311.2	
269.32	4971.8	
269.53	4007.9	
269.74	3723.2	
269.95	5874.9	
270.16	4803.2	
270.37	4031.8	
270.58	4713.1	
270.79	5339.1	
271	6070.9	
271.21	4354	
271.42	4095.3	
271.63	5670.8	
271.84	5190.2	
272.05	3185.3	
272.26	3588.7	
272.47	5524.1	
272.68	5764.3	
272.89	3849.5	
273.11	4496.7	
273.32	5352.7	
273.53	6504.3	
273.74	4443.4	
273.95	4256.4	
274.16	6229.9	
274.37	5568.4	
274.58	4415.4	
274.79	3456.3	
275	5586.9	
275.21	6269.5	
275.42	5319.3	
275.63	4562.9	
275.84	5764.3	
276.05	7301.7	
276.26	4283.7	
276.47	3934.8	
276.68	5307.7	
276.89	6578.1	
277.1	4591.5	
277.31	3486.3	
277.52	5781.4	
277.73	5973.2	
277.94	3444.7	
278.15	3809.2	
278.36	5754.1	
278.57	5157.5	
278.78	3836.5	
278.99	4365.6	
279.2	5150.6	
279.41	5068.7	
279.62	5148.6	
279.83	3538.2	
280.04	6832.7	
280.25	4997.7	
280.46	5081.7	
280.67	4014	
280.88	5126.7	
281.09	6206	
281.3	4162.8	
281.51	5372.5	
281.72	5274.9	
281.93	6047.7	
282.14	3701.4	
282.35	4063.2	
282.56	6043.6	
282.77	6009.4	
282.98	3907.5	
283.19	4750.6	
283.4	7447.8	
283.61	5436	
283.82	3517	
284.03	5058.5	
284.24	5627.8	
284.45	6219.7	
284.66	5008.6	
284.87	4881.7	
285.08	6098.9	
285.29	6300.9	
285.5	3375.1	
285.71	3954.6	
285.92	6180.1	
286.12	6957.6	
286.33	5028.4	
286.54	3867.2	
286.75	6016.2	
286.96	5367.7	
287.17	3573.7	
287.38	4874.8	
287.59	5117.2	
287.8	5057.8	
288.01	3975.8	
288.22	4543.1	
288.43	6102.9	
288.64	5100.8	
288.85	4687.1	
289.06	4475.5	
289.27	5995.1	
289.48	6515.3	
289.69	5002.5	
289.9	4471.4	
290.11	6202.6	
290.32	5208.7	
290.53	4792.2	
290.74	4324.6	
290.94	6038.8	
291.15	6118	
291.36	3777.8	
291.57	4535.6	
291.78	5237.3	
291.99	4923.3	
292.2	3606.5	
292.41	4395.6	
292.62	6125.5	
292.83	5907.7	
293.04	5386.2	
293.25	3633.8	
293.46	5279	
293.67	6204.7	
293.88	3751.9	
294.09	3627.6	
294.29	5012.7	
294.5	5692.7	
294.71	4030.4	
294.92	3833.1	
295.13	5274.9	
295.34	6693.4	
295.55	3361.4	
295.76	3471.3	
295.97	5997.8	
296.18	6799.9	
296.39	3514.3	
296.6	3761.4	
296.81	5616.9	
297.01	6008.1	
297.22	3904.8	
297.43	3703.4	
297.64	5167	
297.85	5213.4	
298.06	3133.4	
298.27	3371	
298.48	5587.5	
298.69	5226.4	
298.9	4119.1	
299.11	3688.4	
299.31	5022.3	
299.52	5044.1	
299.73	4433.9	
299.94	4324.6	
300.15	5543.2	
300.36	5139.7	
300.57	4299.4	
300.78	4296	
300.99	5425.1	
301.2	5696.1	
301.4	3732.8	
301.61	4070	
301.82	5864	
302.03	5961.6	
302.24	4560.1	
302.45	3612.6	
302.66	5874.9	
302.87	6335.1	
303.08	3719.1	
303.29	5193.6	
303.49	5255.1	
303.7	5542.5	
303.91	3300	
304.12	4942.4	
304.33	4984.8	
304.54	5677.7	
304.75	3776.5	
304.96	3569.6	
305.16	5885.9	
305.37	6736.5	
305.58	3261.7	
305.79	3414.6	
306	5896.1	
306.21	4908.3	
306.42	3609.9	
306.63	5836.7	
306.83	5398.4	
307.04	6217.6	
307.25	4183.3	
307.46	4113.7	
307.67	4715.1	
307.88	6001.9	
308.09	3650.2	
308.29	3872	
308.5	5596.4	
308.71	6127.5	
308.92	4058.4	
309.13	3610.6	
309.34	5480.4	
309.55	5437.4	
309.75	4698.7	
309.96	4307.6	
310.17	5975.3	
310.38	5210	
310.59	4474.1	
310.8	4217.5	
311.01	5365.7	
311.21	5388.2	
311.42	3583.3	
311.63	3635.1	
311.84	5279	
312.05	5702.2	
312.26	4163.5	
312.46	4629.8	
312.67	5374.6	
312.88	5078.3	
313.09	3621.5	
313.3	3558.7	
313.51	6389.7	
313.71	6770.6	
313.92	3605.1	
314.13	3817.4	
314.34	5765.7	
314.55	5482.4	
314.76	4709	
314.96	4107.5	
315.17	5603.9	
315.38	5973.2	
315.59	3668.6	
315.8	3446.7	
316.01	6490.7	
316.21	6470.9	
316.42	3507.5	
316.63	4013.3	
316.84	5369.1	
317.05	6305.7	
317.26	4272.1	
317.46	3830.4	
317.67	5499.5	
317.88	5967.8	
318.09	4659.8	
318.3	3381.2	
318.5	5237.3	
318.71	5915.2	
318.92	5926.1	
319.13	4285	
319.34	6064.7	
319.54	6179.4	
319.75	3332	
319.96	3235.1	
320.17	5884.5	
320.38	6230.6	
320.58	3321.1	
320.79	4023.6	
321	6148	
321.21	6292	
321.42	3981.9	
321.62	3345.7	
321.83	5138.4	
322.04	5541.8	
322.25	3871.3	
322.46	3678.8	
322.66	5723.4	
322.87	5838.1	
323.08	4572.4	
323.29	3568.2	
323.5	6655.2	
323.7	5044.1	
323.91	4974.5	
324.12	4431.1	
324.33	5558.2	
324.53	5873.6	
324.74	4291.9	
324.95	4520.5	
325.16	4887.8	
325.37	5331.5	
325.57	3697.3	
325.78	3699.3	
325.99	5588.9	
326.2	5020.3	
326.4	5193.6	
326.61	3356.6	
326.82	5489.9	
327.03	5652.4	
327.24	5214.1	
327.44	5008.6	
327.65	5838.8	
327.86	4689.8	
328.07	4283.7	
328.27	3533.4	
328.48	6208.8	
328.69	5150.6	
328.9	5317.2	
329.1	3945.8	
329.31	5415.5	
329.52	6376	
329.73	3629.7	
329.93	4121.2	
330.14	5528.8	
330.35	5859.2	
330.56	6165.1	
330.76	4592.9	
330.97	5335.6	
331.18	5790.3	
331.39	4123.2	
331.59	3226.2	
331.8	6251.1	
332.01	6274.3	
332.22	3717.7	
332.42	4304.8	
332.63	5671.5	
332.84	5298.8	
333.05	4130.8	
333.25	3713.6	
333.46	5342.5	
333.67	5560.2	
333.88	3825.6	
334.08	4279.6	
334.29	7678.5	
334.5	6270.9	
334.7	3558.7	
334.91	5240.1	
335.12	5046.2	
335.33	5969.8	
335.53	4067.9	
335.74	6015.6	
335.95	5371.1	
336.16	5164.3	
336.36	4058.4	
336.57	4704.9	
336.78	5025	
336.98	6162.3	
337.19	4987.5	
337.4	3931.4	
337.61	6707.8	
337.81	5068.7	
338.02	3695.2	
338.23	4840	
338.43	6369.2	
338.64	5184.1	
338.85	3654.9	
339.05	4836.6	
339.26	6409.5	
339.47	4972.5	
339.68	3629.7	
339.88	5464.7	
340.09	5818.3	
340.3	6063.4	
340.5	4341	
340.71	3258.3	
340.92	5018.9	
341.13	6283.2	
341.33	3491.1	
341.54	4265.2	
341.75	5803.3	
341.95	5373.2	
342.16	4114.4	
342.37	4485.1	
342.57	5083.7	
342.78	5474.2	
342.99	4595.6	
343.19	3187.3	
343.4	5955.5	
343.61	5845.6	
343.81	3928	
344.02	3561.4	
344.23	5995.8	
344.43	6338.5	
344.64	4556.7	
344.85	4443.4	
345.06	5852.4	
345.26	6173.9	
345.47	4212.7	
345.68	4992.3	
345.88	4867.3	
346.09	6083.8	
346.3	4394.9	
346.5	3225.6	
346.71	5580	
346.92	5236.7	
347.12	3361.4	
347.33	4221.5	
347.54	6085.9	
347.74	6566.5	
347.95	4206.5	
348.16	3056.9	
348.36	5345.9	
348.57	5022.3	
348.78	4160.8	
348.98	4469.4	
349.19	5481	
349.39	4964.3	
349.6	3333.4	
349.81	3675.4	
350.01	5798.5	
350.22	5256.5	
350.43	4003.1	
350.63	4913.8	
350.84	5596.4	
351.05	5335.6	
351.25	3691.8	
351.46	3283.6	
351.67	6105	
351.87	5249.6	
352.08	3915	
352.29	4444.8	
352.49	6051.1	
352.7	5724.8	
352.9	3599.6	
353.11	4429.1	
353.32	6750.8	
353.52	5331.5	
353.73	3474.7	
353.94	4545.8	
354.14	5780.1	
354.35	5666.7	
354.55	3591.5	
354.76	4042	
354.97	5791.7	
355.17	5554.8	
355.38	3426.3	
355.59	4811.4	
355.79	5276.3	
356	5636.7	
356.2	4043.4	
356.41	3497.9	
356.62	4906.9	
356.82	5449	
357.03	4377.9	
357.24	3864.5	
357.44	5286.5	
357.65	5334.3	
357.85	5190.2	
358.06	4077.5	
358.27	4904.2	
358.47	5201.8	
358.68	3354.6	
358.88	4302.8	
359.09	5768.4	
359.3	6154.1	
359.5	4996.4	
359.71	4418.8	
359.91	6604	
360.12	5956.2	
360.33	4215.4	
360.53	4732.9	
360.74	5163.6	
360.94	5238.7	
361.15	4455.7	
361.36	3671.3	
361.56	6025.1	
361.77	5468.8	
361.97	4956.1	
362.18	3840.6	
362.38	6100.9	
362.59	5002.5	
362.8	3566.2	
363	3347.1	
363.21	4905.6	
363.41	5621.7	
363.62	4123.2	
363.83	5232.6	
364.03	5660.6	
364.24	6634.7	
364.44	5221.6	
364.65	5246.2	
364.85	5379.3	
365.06	5227.8	
365.27	3756.7	
365.47	3746.4	
365.68	6415.6	
365.88	5316.5	
366.09	4136.9	
366.29	3842	
366.5	5609.4	
366.71	6131.6	
366.91	5186.8	
367.12	4364.2	
367.32	6640.2	
367.53	5870.2	
367.73	4281.6	
367.94	5261.9	
368.14	5878.4	
368.35	6813.6	
368.56	4372.4	
368.76	3562.8	
368.97	6010.8	
369.17	7748.8	
369.38	3771.7	
369.58	3977.8	
369.79	4936.3	
369.99	6305.7	
370.2	5093.3	
370.4	4128.7	
370.61	5620.3	
370.82	6855.9	
371.02	4009.2	
371.23	3295.9	
371.43	4844.8	
371.64	6287.9	
371.84	4046.8	
372.05	5330.9	
372.25	7645.1	
372.46	5986.2	
372.66	3972.4	
372.87	3953.3	
373.07	6032	
373.28	7701.7	
373.48	5124	
373.69	4752	
373.9	5430.5	
374.1	5472.9	
374.31	4973.2	
374.51	4554.7	
374.72	6356.2	
374.92	5091.9	
375.13	5195	
375.33	4309.6	
375.54	5861.3	
375.74	5242.1	
375.95	4349.9	
376.15	5706.3	
376.36	5850.4	
376.56	5649	
376.77	4450.2	
376.97	4929.5	
377.18	6946	
377.38	5930.2	
377.59	5317.2	
377.79	3876.1	
378	5683.1	
378.2	6185.5	
378.41	3976.5	
378.61	3872.7	
378.82	6167.8	
379.02	5242.8	
379.23	4091.2	
379.43	5310.4	
379.64	6262	
379.84	5850.4	
380.05	3930.1	
380.25	3891.1	
380.46	6003.3	
380.66	5591.6	
380.87	5336.3	
381.07	5736.4	
381.28	6608.1	
381.48	6009.4	
381.69	3985.3	
381.89	4028.4	
382.1	4892.6	
382.3	6223.8	
382.51	5164.3	
382.71	6090.7	
382.91	6034.7	
383.12	6561.7	
383.32	4306.9	
383.53	4582	
383.73	5810.8	
383.94	5599.8	
384.14	4499.4	
384.35	3562.1	
384.55	5555.5	
384.76	6044.9	
384.96	4340.3	
385.17	4693.9	
385.37	6017.6	
385.58	5307.7	
385.78	4764.3	
385.98	3466.5	
386.19	5505.6	
386.39	5893.4	
386.6	4061.8	
386.8	4363.5	
387.01	5966.4	
387.21	6013.5	
387.42	4812	
387.62	5376.6	
387.83	5244.2	
388.03	5967.1	
388.23	4373.8	
388.44	5276.9	
388.64	4880.3	
388.85	5128.1	
389.05	4740.4	
389.26	5386.2	
389.46	7037.5	
389.67	6399.2	
389.87	4723.3	
390.07	4792.2	
390.28	5621.7	
390.48	5195.7	
390.69	3927.3	
390.89	4308.2	
391.1	5337	
391.3	6324.8	
391.5	5469.4	
391.71	6191	
391.91	6044.9	
392.12	7043	
392.32	5653.8	
392.53	4728.8	
392.73	5383.4	
392.93	5630.5	
393.14	4416.8	
393.34	5209.3	
393.55	6189	
393.75	5412.1	
393.95	4433.2	
394.16	4319.2	
394.36	5352	
394.57	6076.3	
394.77	3850.2	
394.98	4321.9	
395.18	5354.1	
395.38	5511.8	
395.59	5225.1	
395.79	4075.5	
396	5496.1	
396.2	5877	
396.4	5031.9	
396.61	4876.2	
396.81	6189.6	
397.02	5362.3	
397.22	5229.8	
397.42	5283.8	
397.63	6082.5	
397.83	5212.8	
398.04	4016.1	
398.24	4598.4	
398.44	5851	
398.65	4855.7	
398.85	3827	
399.05	3981.9	
399.26	5196.4	
399.46	7101	
399.67	4392.9	
399.87	4053.6	
400.07	5555.5	
400.28	6033.3	
400.48	4213.4	
400.69	5248.9	
400.89	6233.3	
401.09	6659.3	
401.3	4029	
401.5	5289.9	
401.7	6947.4	
401.91	7154.2	
402.11	4395.6	
402.32	4689.8	
402.52	6206	
402.72	6158.2	
402.93	4825	
403.13	3661.1	
403.33	7042.3	
403.54	5702.2	
403.74	4520.5	
403.94	5467.4	
404.15	5758.9	
404.35	6983.6	
404.56	4397	
404.76	6394.4	
404.96	6191.7	
405.17	6011.5	
405.37	5752.7	
405.57	4825.7	
405.78	6222.4	
405.98	5610.1	
406.18	4317.1	
406.39	5322.7	
406.59	6216.3	
406.79	5844.9	
407	4126.7	
407.2	4366.3	
407.4	6216.3	
407.61	6500.3	
407.81	4223.6	
408.01	6478.4	
408.22	5218.9	
408.42	7382.9	
408.62	5438.7	
408.83	4784.1	
409.03	5817.6	
409.23	5565	
409.44	4875.5	
409.64	5167.7	
409.84	6762.4	
410.05	6531.7	
410.25	4976.6	
410.45	4715.1	
410.66	5998.5	
410.86	8656.1	
411.06	5118.6	
411.27	4977.9	
411.47	8331.1	
411.67	6194.4	
411.88	5319.9	
412.08	5468.8	
412.28	6855.9	
412.49	7425.3	
412.69	4965.6	
412.89	4968.4	
413.09	7187.7	
413.3	6955.6	
413.5	5020.3	
413.7	4616.8	
413.91	6251.1	
414.11	7184.3	
414.31	4857.8	
414.52	5292.6	
414.72	6769.9	
414.92	6683.9	
415.12	4844.1	
415.33	5330.9	
415.53	6991.8	
415.73	7301	
415.94	5810.8	
416.14	5145.2	
416.34	6021.7	
416.55	5779.4	
416.75	6438.1	
416.95	5755.5	
417.15	7006.8	
417.36	7915.4	
417.56	6619	
417.76	5610.8	
417.97	7476.5	
418.17	7062.1	
418.37	5154.7	
418.57	5256.5	
418.78	6797.9	
418.98	6480.5	
419.18	6139.8	
419.38	6087.2	
419.59	6522.1	
419.79	6132.3	
419.99	5126.7	
420.2	5522	
420.4	7120.1	
420.6	7298.3	
420.8	5038.7	
421.01	4838.7	
421.21	6834.8	
421.41	7096.2	
421.61	5406.6	
421.82	5102.2	
422.02	6348	
422.22	7381.6	
422.42	5978.7	
422.63	5593	
422.83	6548	
423.03	7752.2	
423.23	5595.1	
423.44	4521.2	
423.64	6660	
423.84	6315.3	
424.04	5031.2	
424.25	4647.5	
424.45	7623.9	
424.65	7530.4	
424.85	4458.4	
425.06	5137	
425.26	7502.4	
425.46	6379.4	
425.66	5597.8	
425.87	5218.2	
426.07	7243	
426.27	7159.7	
426.47	5427.8	
426.67	4763.6	
426.88	7621.9	
427.08	7001.3	
427.28	5698.8	
427.48	4655.7	
427.69	5894.1	
427.89	6541.9	
428.09	5618.3	
428.29	4770.4	
428.5	7410.9	
428.7	6807.4	
428.9	4636.6	
429.1	5188.9	
429.3	6708.5	
429.51	7150.1	
429.71	4960.2	
429.91	5777.3	
430.11	7020.4	
430.31	7191.8	
430.52	5248.9	
430.72	5633.3	
430.92	7664.2	
431.12	7070.3	
431.32	4904.2	
431.53	5386.2	
431.73	5879.7	
431.93	7754.3	
432.13	4844.8	
432.33	4708.3	
432.54	6391.7	
432.74	6892.8	
432.94	4607.9	
433.14	5810.8	
433.34	6967.2	
433.55	6437.4	
433.75	5680.4	
433.95	7615	
434.15	6776.7	
434.35	6422.4	
434.56	4831.2	
434.76	4259.8	
434.96	6694.1	
435.16	7020.4	
435.36	4665.3	
435.56	5850.4	
435.77	6320	
435.97	6513.9	
436.17	6580.8	
436.37	5791.7	
436.57	6287.9	
436.78	6131.6	
436.98	5763	
437.18	6415.6	
437.38	7024.5	
437.58	6544.6	
437.78	6539.8	
437.99	5145.2	
438.19	7053.2	
438.39	8589.9	
438.59	5012.7	
438.79	4543.8	
438.99	7770.7	
439.2	6546.7	
439.4	4704.2	
439.6	4624.3	
439.8	6866.8	
440	8023.3	
440.2	5783.5	
440.4	5881.8	
440.61	7239.6	
440.81	7944.8	
441.01	4864.6	
441.21	5764.3	
441.41	7573.4	
441.61	7254.6	
441.81	6138.4	
442.02	7226.6	
442.22	8155	
442.42	7320.8	
442.62	4866	
442.82	4958.8	
443.02	7617.8	
443.22	6675.7	
443.43	5388.9	
443.63	4933.6	
443.83	6509.1	
444.03	6598.6	
444.23	6197.8	
444.43	5750	
444.63	6779.5	
444.83	8064.9	
445.04	4975.2	
445.24	6361.7	
445.44	7242.3	
445.64	7389.1	
445.84	5905	
446.04	5812.1	
446.24	6582.9	
446.44	7636.9	
446.65	4986.8	
446.85	5421	
447.05	6999.3	
447.25	7582.9	
447.45	5521.3	
447.65	4799.8	
447.85	6898.2	
448.05	6416.3	
448.25	5978	
448.46	5760.3	
448.66	6970.6	
448.86	6604	
449.06	4622.3	
449.26	5975.3	
449.46	7297.6	
449.66	6184.2	
449.86	5398.4	
450.06	5429.2	
450.26	6445.6	
450.47	7119.4	
450.67	5773.9	
450.87	5997.8	
451.07	7096.9	
451.27	6928.3	
451.47	4896.7	
451.67	5539.8	
451.87	6533.7	
452.07	7761.1	
452.27	5156.1	
452.47	5152	
452.67	6863.4	
452.88	7502.4	
453.08	4489.8	
453.28	6589.7	
453.48	8175.5	
453.68	6850.5	
453.88	4992.9	
454.08	5279.7	
454.28	7180.2	
454.48	6817.7	
454.68	5837.4	
454.88	6479.1	
455.08	7322.2	
455.28	7055.9	
455.48	4885.1	
455.68	5513.1	
455.89	7823.9	
456.09	7497.6	
456.29	5318.6	
456.49	5332.9	
456.69	7690.8	
456.89	6932.4	
457.09	5808.7	
457.29	6160.3	
457.49	7228.6	
457.69	7397.3	
457.89	5608.7	
458.09	4923.3	
458.29	7008.8	
458.49	7703.8	
458.69	6062.7	
458.89	5393	
459.09	7925.6	
459.29	8045.8	
459.49	5532.9	
459.69	6390.3	
459.9	7510.6	
460.1	6905.8	
460.3	5411.4	
460.5	5259.9	
460.7	7457.3	
460.9	7107.1	
461.1	4811.4	
461.3	6221.7	
461.5	8023.3	
461.7	7639.6	
461.9	5224.4	
462.1	5736.4	
462.3	7090.8	
462.5	7866.9	
462.7	5349.3	
462.9	5470.1	
463.1	8802.9	
463.3	8454	
463.5	5655.8	
463.7	6610.8	
463.9	7279.8	
464.1	7691.5	
464.3	5725.4	
464.5	5971.2	
464.7	7958.4	
464.9	7575.4	
465.1	7417.7	
465.3	6229.2	
465.5	8368.7	
465.7	8241	
465.9	6488	
466.1	6391	
466.3	8047.2	
466.5	7878.5	
466.7	7281.2	
466.9	6117.3	
467.1	7783	
467.3	8813.8	
467.5	7206.1	
467.7	5973.2	
467.9	9060.9	
468.1	9942.2	
468.3	6924.9	
468.5	7256.6	
468.7	7748.8	
468.9	7753.6	
469.1	6276.3	
469.3	6995.2	
469.5	9844.6	
469.7	7234.1	
469.9	6815.6	
470.1	6033.3	
470.3	7678.5	
470.5	7676.5	
470.7	7385	
470.9	6077	
471.1	7494.2	
471.3	7968.6	
471.5	5902.9	
471.69	7952.9	
471.89	7303.1	
472.09	6836.8	
472.29	6770.6	
472.49	7220.5	
472.69	7049.8	
472.89	8058.1	
473.09	5722.7	
473.29	6016.9	
473.49	7256.6	
473.69	7552.2	
473.89	7002.7	
474.09	6096.8	
474.29	8834.3	
474.49	8425.3	
474.69	6943.3	
474.89	6257.2	
475.09	7494.9	
475.29	7449.8	
475.49	5674.2	
475.69	5849.7	
475.88	9209.7	
476.08	7793.9	
476.28	5580	
476.48	6072.9	
476.68	8292.9	
476.88	8116.1	
477.08	6004.6	
477.28	6199.9	
477.48	7621.9	
477.68	8334.6	
477.88	5750	
478.08	6108.4	
478.28	8590.5	
478.48	7660.8	
478.67	6040.1	
478.87	5563	
479.07	8350.3	
479.27	7853.3	
479.47	6345.3	
479.67	6293.4	
479.87	8129.1	
480.07	8738.7	
480.27	5464.7	
480.47	7271	
480.67	7859.4	
480.87	8497	
481.06	5847.6	
481.26	6790.4	
481.46	7679.9	
481.66	7693.5	
481.86	6298.9	
482.06	7494.2	
482.26	7393.2	
482.46	8602.2	
482.66	6251.8	
482.86	5807.4	
483.05	7752.2	
483.25	7227.3	
483.45	8875.9	
483.65	6237.4	
483.85	7336.5	
484.05	7700.4	
484.25	6713.2	
484.45	7164.5	
484.65	8602.2	
484.84	8487.5	
485.04	6085.9	
485.24	6139.8	
485.44	8913.4	
485.64	7124.9	
485.84	5388.2	
486.04	6909.8	
486.24	7439.6	
486.44	7907.9	
486.63	5343.8	
486.83	6222.4	
487.03	7377.5	
487.23	7518.8	
487.43	5455.8	
487.63	8092.2	
487.83	7578.2	
488.02	8738.7	
488.22	6405.4	
488.42	7042.3	
488.62	8501.8	
488.82	7430	
489.02	6042.2	
489.22	6207.4	
489.41	8356.4	
489.61	7911.3	
489.81	5909.1	
490.01	5923.4	
490.21	8240.3	
490.41	8931.9	
490.61	5767.8	
490.8	5922	
491	7671.7	
491.2	6926.9	
491.4	6553.5	
491.6	5573.9	
491.8	7755.7	
491.99	7988.4	
492.19	5509.7	
492.39	5920	
492.59	8354.3	
492.79	8360.5	
492.99	6830.7	
493.18	5859.9	
493.38	8472.4	
493.58	9232.9	
493.78	6612.9	
493.98	6183.5	
494.18	8160.5	
494.37	7496.2	
494.57	6703.7	
494.77	6636.1	
494.97	8299.1	
495.17	8520.9	
495.37	6186.2	
495.56	6548	
495.76	8701.8	
495.96	8308.6	
496.16	7406.8	
496.36	6223.8	
496.55	8492.2	
496.75	7977.5	
496.95	6668.9	
497.15	6528.9	
497.35	8455.4	
497.54	8471.1	
497.74	6358.3	
497.94	8262.2	
498.14	9112.8	
498.34	8964	
498.53	6060.6	
498.73	6881.9	
498.93	7778.2	
499.13	8453.3	
499.33	6581.5	
499.52	7229.3	
499.72	8419.2	
499.92	8864.3	
500.12	6309.8	
500.32	6535.8	
500.51	8642.4	
500.71	8396	
500.91	7421.2	
501.11	6965.1	
501.31	8618.5	
501.5	8989.9	
501.7	7669	
501.9	6560.3	
502.1	8279.9	
502.29	8687.5	
502.49	6993.8	
502.69	7472.4	
502.89	8531.2	
503.09	8485.4	
503.28	6032	
503.48	6197.8	
503.68	7684.7	
503.88	7723.6	
504.07	7243.7	
504.27	6667.5	
504.47	8103.8	
504.67	8314.8	
504.86	7103.7	
505.06	6782.9	
505.26	7791.2	
505.46	9748.3	
505.65	6664.1	
505.85	6887.3	
506.05	7735.2	
506.25	8128.4	
506.44	5924.8	
506.64	6988.4	
506.84	7671	
507.04	8602.8	
507.23	6141.9	
507.43	6754.2	
507.63	9736.7	
507.83	7964.6	
508.02	6692.8	
508.22	6154.1	
508.42	9963.4	
508.62	7563.1	
508.81	6631.3	
509.01	7250.5	
509.21	7509.2	
509.4	7746.1	
509.6	6767.2	
509.8	6186.2	
510	7826.7	
510.19	9306.7	
510.39	6211.5	
510.59	6171.9	
510.79	7464.2	
510.98	9003.6	
511.18	6279.1	
511.38	6390.3	
511.57	8345.5	
511.77	8348.9	
511.97	7017	
512.17	6016.2	
512.36	8364.6	
512.56	8453.3	
512.76	6188.3	
512.95	5847	
513.15	8496.3	
513.35	7140.6	
513.55	6966.5	
513.74	6132.3	
513.94	8492.9	
514.14	7814.4	
514.33	7210.2	
514.53	6812.9	
514.73	7836.9	
514.92	8053.3	
515.12	6346.7	
515.32	6204.7	
515.51	8069	
515.71	8651.3	
515.91	8095.6	
516.11	6171.9	
516.3	9945.6	
516.5	7651.9	
516.7	6871.6	
516.89	7468.9	
517.09	7873.8	
517.29	7742.7	
517.48	7172.7	
517.68	6433.4	
517.88	7516.7	
518.07	8120.9	
518.27	7008.8	
518.47	5998.5	
518.66	8867.7	
518.86	7348.8	
519.06	5872.2	
519.25	6361	
519.45	7780.2	
519.65	9250.7	
519.84	6973.3	
520.04	7655.3	
520.24	9598.1	
520.43	8318.8	
520.63	6710.5	
520.83	6440.9	
521.02	7486	
521.22	8254	
521.42	6995.9	
521.61	7566.6	
521.81	7756.3	
522.01	8037.6	
522.2	6828.6	
522.4	6599.2	
522.6	8530.5	
522.79	7238.2	
522.99	6662.7	
523.18	5926.1	
523.38	8176.2	
523.58	8190.5	
523.77	7989.1	
523.97	5869.5	
524.17	10191	
524.36	9232.2	
524.56	7318.1	
524.76	6865.5	
524.95	8146.1	
525.15	7767.3	
525.34	6657.3	
525.54	6542.6	
525.74	8393.9	
525.93	7416.4	
526.13	7921.5	
526.33	6486.6	
526.52	8852	
526.72	8294.3	
526.91	7860.1	
527.11	7052.5	
527.31	8825.4	
527.5	9276.6	
527.7	6970.6	
527.89	5919.3	
528.09	7640.3	
528.29	8225.3	
528.48	7456.7	
528.68	6991.8	
528.87	8641.1	
529.07	8740	
529.27	6833.4	
529.46	6330.3	
529.66	8218.5	
529.85	8672.5	
530.05	6117.3	
530.25	6968.6	
530.44	9676	
530.64	8159.1	
530.83	6684.6	
531.03	6896.9	
531.23	8584.4	
531.42	8529.1	
531.62	7761.8	
531.81	6748.1	
532.01	8716.2	
532.21	9239.1	
532.4	6540.5	
532.6	6877.8	
532.79	9802.9	
532.99	8708.6	
533.18	6836.8	
533.38	7958.4	
533.58	8213	
533.77	9053.4	
533.97	6873.7	
534.16	7673.7	
534.36	9176.3	
534.55	8161.8	
534.75	7836.9	
534.95	6781.5	
535.14	9048.6	
535.34	8238.3	
535.53	6532.3	
535.73	8661.5	
535.92	9602.2	
536.12	8394.6	
536.31	6713.9	
536.51	7890.8	
536.71	8746.2	
536.9	8275.8	
537.1	6832	
537.29	7058.7	
537.49	9227.5	
537.68	8148.2	
537.88	7367.9	
538.07	6511.2	
538.27	8389.8	
538.46	9508	
538.66	6398.5	
538.86	6774	
539.05	8396	
539.25	8871.8	
539.44	7149.5	
539.64	6718.7	
539.83	8303.8	
540.03	9340.1	
540.22	6622.4	
540.42	6806.1	
540.61	8548.2	
540.81	8703.2	
541	7225.9	
541.2	7913.4	
541.39	8082.6	
541.59	8419.9	
541.78	7582.3	
541.98	6595.8	
542.18	7742.7	
542.37	7706.5	
542.57	7026.6	
542.76	7510.6	
542.96	7782.3	
543.15	8563.2	
543.35	6972	
543.54	6313.9	
543.74	8870.4	
543.93	8410.3	
544.13	7033.4	
544.32	8178.2	
544.52	8716.2	
544.71	7871.7	
544.91	6006	
545.1	7354.3	
545.3	8002.1	
545.49	8694.3	
545.69	5969.8	
545.88	6652.5	
546.08	9629.5	
546.27	9290.3	
546.47	7261.4	
546.66	6404.7	
546.86	8970.8	
547.05	9510.8	
547.24	6756.9	
547.44	6537.8	
547.63	7747.5	
547.83	9007.6	
548.02	6974	
548.22	7141.3	
548.41	7596.6	
548.61	9005.6	
548.8	6436.8	
549	6387.6	
549.19	8249.2	
549.39	8563.9	
549.58	6106.4	
549.78	6692.1	
549.97	8701.8	
550.17	8180.3	
550.36	7701.7	
550.55	8845.9	
550.75	8200.1	
550.94	9074.5	
551.14	6316.6	
551.33	6879.8	
551.53	7458	
551.72	8616.5	
551.92	6875.7	
552.11	6551.5	
552.31	8535.3	
552.5	8680.7	
552.69	8439.7	
552.89	6270.9	
553.08	8591.9	
553.28	8247.2	
553.47	6668.9	
553.67	7862.8	
553.86	9296.4	
554.06	7366.5	
554.25	5786.9	
554.44	6412.9	
554.64	10069	
554.83	9562	
555.03	6397.9	
555.22	6873	
555.42	8736	
555.61	8495.7	
555.8	6602	
556	6991.1	
556.19	7616.4	
556.39	8903.9	
556.58	6711.2	
556.78	6625.9	
556.97	8373.5	
557.16	8079.9	
557.36	7915.4	
557.55	6240.8	
557.75	7290.1	
557.94	9161.9	
558.13	6380.1	
558.33	6117.3	
558.52	8974.9	
558.72	7795.9	
558.91	6180.1	
559.1	6470.2	
559.3	7450.5	
559.49	7146.7	
559.69	5782.1	
559.88	6848.4	
560.07	8383	
560.27	8795.3	
560.46	7055.9	
560.66	7165.2	
560.85	8127.7	
561.04	7277.1	
561.24	6229.9	
561.43	6419.7	
561.63	7467.6	
561.82	7841.7	
562.01	7791.2	
562.21	6748.1	
562.4	8248.5	
562.59	9339.4	
562.79	6585.6	
562.98	6211.5	
563.18	8214.4	
563.37	9798.8	
563.56	7129	
563.76	6118.6	
563.95	7646.4	
564.14	7533.8	
564.34	6533.7	
564.53	6254.5	
564.73	8149.6	
564.92	8471.1	
565.11	6673	
565.31	5982.8	
565.5	8653.4	
565.69	7598	
565.89	6208.1	
566.08	6541.9	
566.27	8634.2	
566.47	9035	
566.66	7163.1	
566.85	5774.6	
567.05	8097.7	
567.24	7447.1	
567.44	6085.9	
567.63	7690.1	
567.82	8433.5	
568.02	8106.5	
568.21	6060.6	
568.4	6527.6	
568.6	7837.6	
568.79	7920.9	
568.98	5853.1	
569.18	6024.4	
569.37	7742	
569.56	9955.9	
569.76	6395.8	
569.95	7417.7	
570.14	8226.7	
570.34	8049.9	
570.53	5801.9	
570.72	5780.1	
570.91	8626.7	
571.11	7647.1	
571.3	6339.8	
571.49	7304.4	
571.69	7776.8	
571.88	7313.3	
572.07	6808.8	
572.27	6919.4	
572.46	7277.8	
572.65	8409	
572.85	6085.2	
573.04	6397.2	
573.23	8660.2	
573.43	7928.4	
573.62	5752.7	
573.81	6498.9	
574	7832.8	
574.2	7602.1	
574.39	6109.8	
574.58	6320	
574.78	8669.1	
574.97	7894.2	
575.16	6620.4	
575.36	6846.4	
575.55	8207.6	
575.74	8478.6	
575.93	5675.6	
576.13	6757.6	
576.32	7669.6	
576.51	8141.4	
576.71	6188.3	
576.9	7566.6	
577.09	8569.4	
577.28	8064.9	
577.48	6683.2	
577.67	5506.3	
577.86	7709.9	
578.05	7976.2	
578.25	6226.5	
578.44	6434	
578.63	7841.7	
578.83	9095	
579.02	5655.8	
579.21	7262.1	
579.4	8011	
579.6	7665.5	
579.79	6525.5	
579.98	8796.7	
580.17	8374.1	
580.37	8478.6	
580.56	5995.1	
580.75	6713.2	
580.94	9036.3	
581.14	8736.6	
581.33	7197.2	
581.52	6068.8	
581.71	8301.8	
581.91	9052.7	
582.1	5788.9	
582.29	6471.6	
582.48	7937.9	
582.68	7755	
582.87	6997.2	
583.06	6531	
583.25	8165.3	
583.45	8061.5	
583.64	7201.3	
583.83	7998.7	
584.02	7739.3	
584.21	8240.3	
584.41	7299	
584.6	6505	
584.79	7918.1	
584.98	8728.4	
585.18	5855.8	
585.37	5901.6	
585.56	7432.8	
585.75	8222.6	
585.94	6112.5	
586.14	6821.1	
586.33	8952.4	
586.52	7837.6	
586.71	6709.1	
586.91	6435.4	
587.1	7264.8	
587.29	8377.6	
587.48	6307.1	
587.67	6124.1	
587.87	8194.6	
588.06	8185.7	
588.25	7589.8	
588.44	6726.9	
588.63	7735.9	
588.83	8310.7	
589.02	6071.5	
589.21	5972.6	
589.4	7490.1	
589.59	7269.6	
589.78	5196.4	
589.98	5556.8	
590.17	7013.6	
590.36	7552.9	
590.55	4898.1	
590.74	5866.7	
590.94	8968.7	
591.13	7413.6	
591.32	5577.3	
591.51	5108.3	
591.7	8008.2	
591.89	7493.5	
592.09	5147.9	
592.28	5735	
592.47	6605.4	
592.66	8635.6	
592.85	5205.3	
593.05	5447.6	
593.24	7235.5	
593.43	8054.7	
593.62	5531.6	
593.81	6053.1	
594	7247.8	
594.19	7503.8	
594.39	5432.6	
594.58	5335	
594.77	7573.4	
594.96	8251.9	
595.15	5289.2	
595.34	6047.7	
595.54	7672.4	
595.73	6705	
595.92	4774.5	
596.11	6064	
596.3	8265.6	
596.49	6872.3	
596.68	5768.4	
596.88	6230.6	
597.07	8009.6	
597.26	6763.1	
597.45	5253.7	
597.64	6571.2	
597.83	7064.8	
598.02	7714.7	
598.22	5470.1	
598.41	6088.6	
598.6	7488.7	
598.79	6888.7	
598.98	5479	
599.17	6509.8	
599.36	7513.3	
599.55	8829.5	
599.74	7615	
599.94	7354.9	
600.13	8194.6	
600.32	6931	
600.51	5294	
600.7	5401.9	
600.89	8916.2	
601.08	8866.3	
601.27	5190.2	
601.47	6262.7	
601.66	8137.3	
601.85	8874.5	
602.04	5970.5	
602.23	6290	
602.42	7180.9	
602.61	7892.9	
602.8	5914.5	
602.99	5681.7	
603.18	7479.9	
603.37	7817.8	
603.57	6404	
603.76	6955.6	
603.95	8535.9	
604.14	8150.2	
604.33	5767.1	
604.52	6103.6	
604.71	7700.4	
604.9	7378.8	
605.09	6770.6	
605.28	6526.2	
605.47	8418.5	
605.66	8129.1	
605.86	6336.4	
606.05	5791.7	
606.24	8451.3	
606.43	6919.4	
606.62	6090	
606.81	6926.2	
607	8286.1	
607.19	7505.1	
607.38	5560.2	
607.57	5879	
607.76	7212.3	
607.95	6727.6	
608.14	6217.6	
608.33	6803.4	
608.52	7268.9	
608.72	8247.9	
608.91	5487.9	
609.1	5339.1	
609.29	7464.8	
609.48	6906.4	
609.67	6453.1	
609.86	5462.6	
610.05	7011.6	
610.24	7371.3	
610.43	5298.8	
610.62	4855.7	
610.81	8597.4	
611	8359.8	
611.19	5418.9	
611.38	6258.6	
611.57	7712	
611.76	9151	
611.95	5179.3	
612.14	5112.4	
612.33	7473	
612.52	6951.5	
612.71	5742.5	
612.9	4989.5	
613.09	6638.8	
613.28	8977.6	
613.47	5507.7	
613.66	6532.3	
613.85	7636.9	
614.04	7126.2	
614.24	5614.2	
614.43	4800.4	
614.62	7729.7	
614.81	7698.3	
615	6238.1	
615.19	6238.1	
615.38	6996.5	
615.57	7359.7	
615.76	6018.3	
615.95	7085.3	
616.14	7793.9	
616.33	7320.1	
616.52	6358.9	
616.71	6649.8	
616.9	7641	
617.09	7549.5	
617.28	5679	
617.47	7006.8	
617.66	6737.8	
617.85	6827.2	
618.04	6631.3	
618.22	6044.9	
618.41	7091.4	
618.6	7920.9	
618.79	5926.8	
618.98	5455.1	
619.17	8331.8	
619.36	6521.4	
619.55	5700.9	
619.74	5783.5	
619.93	7597.3	
620.12	6930.3	
620.31	6313.2	
620.5	6548.7	
620.69	8142.7	
620.88	8489.5	
621.07	7301.7	
621.26	6156.9	
621.45	7740.6	
621.64	7660.8	
621.83	6283.9	
622.02	5392.3	
622.21	7776.8	
622.4	7453.9	
622.59	6794.5	
622.78	6581.5	
622.97	7044.3	
623.16	8071.7	
623.35	6092	
623.54	5288.5	
623.72	7294.9	
623.91	7434.1	
624.1	6503.7	
624.29	5028.4	
624.48	8486.8	
624.67	7681.2	
624.86	6352.1	
625.05	5377.3	
625.24	8615.8	
625.43	6782.2	
625.62	8161.8	
625.81	5515.2	
626	8065.6	
626.19	7221.1	
626.38	6298.9	
626.56	5611.4	
626.75	7009.5	
626.94	7763.8	
627.13	6234.7	
627.32	4933.6	
627.51	7630.7	
627.7	9176.9	
627.89	5080.3	
628.08	6266.8	
628.27	6750.8	
628.46	7045.7	
628.65	5282.4	
628.83	4970.4	
629.02	7605.5	
629.21	6951.5	
629.4	5829.9	
629.59	6085.2	
629.78	6873.7	
629.97	7885.4	
630.16	6105	
630.35	5526.1	
630.54	8230.8	
630.72	7932.5	
630.91	5532.9	
631.1	6073.6	
631.29	7422.5	
631.48	7569.3	
631.67	6229.9	
631.86	5674.2	
632.05	7007.5	
632.24	7136.5	
632.42	5264	
632.61	5961.6	
632.8	7208.8	
632.99	6832.7	
633.18	5977.3	
633.37	6470.2	
633.56	7473.7	
633.75	7299.6	
633.93	5970.5	
634.12	5577.3	
634.31	8315.4	
634.5	7821.2	
634.69	5631.9	
634.88	6249.7	
635.07	7194.5	
635.25	7832.8	
635.44	6679.1	
635.63	6834.8	
635.82	7059.3	
636.01	6591	
636.2	6648.4	
636.39	6032	
636.57	8393.9	
636.76	7920.2	
636.95	5457.8	
637.14	7037.5	
637.33	7577.5	
637.52	8568.7	
637.7	5268.7	
637.89	6275	
638.08	7137.9	
638.27	8699.1	
638.46	6373.3	
638.65	6827.2	
638.83	8807.6	
639.02	7006.1	
639.21	6376.7	
639.4	6890	
639.59	7555.6	
639.78	7176.8	
639.96	5623	
640.15	5569.8	
640.34	7386.3	
640.53	7526.3	
640.72	5321.3	
640.91	5713.8	
641.09	6815.6	
641.28	8202.8	
641.47	5662.6	
641.66	6489.3	
641.85	7477.8	
642.03	7820.5	
642.22	6383.5	
642.41	5699.5	
642.6	6909.2	
642.79	6232.7	
642.97	5507.7	
643.16	6322.1	
643.35	6852.5	
643.54	6705	
643.73	5423.7	
643.91	6250.4	
644.1	6569.2	
644.29	7243	
644.48	5513.1	
644.67	5552.7	
644.85	6787.7	
645.04	7045	
645.23	5087.8	
645.42	5296	
645.6	6569.9	
645.79	7771.4	
645.98	5336.3	
646.17	4375.8	
646.36	6283.2	
646.54	7012.9	
646.73	6238.1	
646.92	5020.9	
647.11	6554.9	
647.29	7755	
647.48	4981.3	
647.67	4896	
647.86	8041.7	
648.05	7985	
648.23	5468.1	
648.42	6830	
648.61	7416.4	
648.8	7023.2	
648.98	5130.8	
649.17	5390.3	
649.36	6597.2	
649.55	6073.6	
649.73	5166.3	
649.92	5901.6	
650.11	6520.7	
650.3	6855.9	
650.48	5300.1	
650.67	4996.4	
650.86	7228.6	
651.05	6050.4	
651.23	5279.7	
651.42	5231.2	
651.61	6544.6	
651.79	6845	
651.98	5416.2	
652.17	5078.3	
652.36	7075.7	
652.54	6170.5	
652.73	5119.9	
652.92	4909	
653.11	7180.9	
653.29	7206.8	
653.48	4416.8	
653.67	5470.8	
653.85	6962.4	
654.04	8068.3	
654.23	5696.8	
654.42	5171.8	
654.6	6434	
654.79	7161.1	
654.98	4716.5	
655.16	5341.8	
655.35	6113.2	
655.54	6068.1	
655.73	4770.4	
655.91	4807.9	
656.1	7324.2	
656.29	6021.7	
656.47	4358.1	
656.66	6150.7	
656.85	6369.2	
657.03	6359.6	
657.22	4866	
657.41	4976.6	
657.59	6459.3	
657.78	6218.3	
657.97	4509.6	
658.16	5399.8	
658.34	7096.2	
658.53	7554.3	
658.72	6267.5	
658.9	6875.7	
659.09	6533	
659.28	6621.8	
659.46	5025.7	
659.65	5021.6	
659.84	6322.8	
660.02	6870.9	
660.21	4903.5	
660.4	4840.7	
660.58	7291.5	
660.77	6691.4	
660.96	5537.7	
661.14	4455	
661.33	7973.4	
661.52	7737.2	
661.7	4440.7	
661.89	8482	
662.08	6294.8	
662.26	5891.3	
662.45	4758.8	
662.64	4898.1	
662.82	7021.1	
663.01	6154.8	
663.2	4972.5	
663.38	5706.3	
663.57	7006.1	
663.75	6820.4	
663.94	5257.1	
664.13	6609.5	
664.31	6310.5	
664.5	7053.9	
664.69	5448.3	
664.87	6180.8	
665.06	6040.8	
665.25	6808.8	
665.43	6374.6	
665.62	6485.9	
665.8	7169.3	
665.99	6397.9	
666.18	5292	
666.36	5354.1	
666.55	7096.2	
666.74	6997.2	
666.92	4932.9	
667.11	6643.6	
667.29	6412.9	
667.48	7012.2	
667.67	6170.5	
667.85	5319.9	
668.04	6513.9	
668.22	6461.3	
668.41	5322.7	
668.6	5467.4	
668.78	6272.2	
668.97	6540.5	
669.15	5747.3	
669.34	4640.7	
669.53	6244.9	
669.71	6647.7	
669.9	4883	
670.08	5586.2	
670.27	6307.1	
670.46	6881.2	
670.64	5757.5	
670.83	6054.5	
671.01	6172.6	
671.2	6848.4	
671.38	4939	
671.57	4812.7	
671.76	7567.2	
671.94	8082.6	
672.13	4795.7	
672.31	5933	
672.5	6994.5	
672.69	6219.7	
672.87	4885.8	
673.06	5235.3	
673.24	6828.6	
673.43	6296.8	
673.61	5786.2	
673.8	5199.8	
673.98	7017.7	
674.17	7152.9	
674.36	5850.4	
674.54	5608.7	
674.73	6767.2	
674.91	7012.9	
675.1	5351.3	
675.28	4980	
675.47	6579.4	
675.65	7142.6	
675.84	5187.5	
676.03	5583.4	
676.21	6274.3	
676.4	5766.4	
676.58	6099.5	
676.77	5806.7	
676.95	7859.4	
677.14	6221.7	
677.32	4915.8	
677.51	4627.7	
677.69	7011.6	
677.88	5901.6	
678.06	4715.8	
678.25	4941.7	
678.44	6570.6	
678.62	6223.8	
678.81	4536.9	
678.99	5522	
679.18	7380.9	
679.36	6909.8	
679.55	5177.9	
679.73	5793.7	
679.92	6866.2	
680.1	6264.7	
680.29	6489.3	
680.47	5200.5	
680.66	6235.4	
680.84	7119.4	
681.03	4424.3	
681.21	5628.5	
681.4	6289.3	
681.58	6126.2	
681.77	4853.7	
681.95	4853.7	
682.14	7104.4	
682.32	7522.2	
682.51	5834	
682.69	4600.4	
682.88	6148.7	
683.06	6952.2	
683.25	5530.9	
683.43	6019	
683.62	6441.5	
683.8	6853.2	
683.99	6090	
684.17	5332.2	
684.36	7700.4	
684.54	6342.6	
684.73	4377.9	
684.91	4713.7	
685.1	6690.7	
685.28	6083.1	
685.46	5322.7	
685.65	5468.1	
685.83	7027.9	
686.02	6316.6	
686.2	4799.8	
686.39	4961.5	
686.57	6030.6	
686.76	7612.3	
686.94	4815.5	
687.13	4978.6	
687.31	6816.3	
687.5	6253.8	
687.68	4355.3	
687.86	5692	
688.05	7873.1	
688.23	5651.7	
688.42	5755.5	
688.6	4753.3	
688.79	6129.6	
688.97	6153.5	
689.16	5277.6	
689.34	4096.6	
689.52	6894.8	
689.71	7222.5	
689.89	5498.8	
690.08	4724.7	
690.26	6362.4	
690.45	6276.3	
690.63	5692.7	
690.81	4860.5	
691	6053.1	
691.18	6001.9	
691.37	5059.8	
691.55	7395.9	
691.74	5987.6	
691.92	8248.5	
692.1	5075.5	
692.29	4394.9	
692.47	6193.1	
692.66	5470.8	
692.84	4610	
693.02	5387.5	
693.21	5625.8	
693.39	6143.2	
693.58	5356.8	
693.76	4769	
693.94	7438.2	
694.13	7160.4	
694.31	4724	
694.5	5899.5	
694.68	6005.3	
694.86	6306.4	
695.05	5100.1	
695.23	5258.5	
695.42	6732.4	
695.6	9188.6	
695.78	5721.3	
695.97	4773.1	
696.15	6688.7	
696.34	6127.5	
696.52	4459.1	
696.7	5486.5	
696.89	6505	
697.07	5846.3	
697.25	5311.1	
697.44	7029.3	
697.62	6440.9	
697.81	6845	
697.99	5042.8	
698.17	5537.7	
698.36	5696.1	
698.54	6496.2	
698.72	5292.6	
698.91	4314.4	
699.09	5974.6	
699.28	5890	
699.46	5022.3	
699.64	4902.8	
699.83	5791	
700.01	7208.2	
700.19	5732.9	
700.38	4054.3	
700.56	7135.8	
700.74	5906.3	
700.93	4465.3	
701.11	5353.4	
701.29	6572.6	
701.48	7665.5	
701.66	4697.4	
701.84	4719.2	
702.03	6032	
702.21	6708.5	
702.39	4317.8	
702.58	4913.1	
702.76	6464.1	
702.94	6546.7	
703.13	4274.1	
703.31	6840.9	
703.49	5729.5	
703.68	6954.9	
703.86	4455.7	
704.04	5664	
704.23	6283.9	
704.41	6725.5	
704.59	4654.4	
704.78	5971.9	
704.96	7448.5	
705.14	6827.9	
705.33	4446.8	
705.51	5320.6	
705.69	6168.5	
705.87	6986.3	
706.06	5581.4	
706.24	4370.4	
706.42	6455.9	
706.61	6698.9	
706.79	5629.9	
706.97	4444.8	
707.16	5947.3	
707.34	6611.5	
707.52	5621.7	
707.7	4695.3	
707.89	6097.5	
708.07	5765.7	
708.25	5648.3	
708.44	5703.6	
708.62	6025.1	
708.8	7165.2	
708.98	5933	
709.17	4808.6	
709.35	6492.1	
709.53	6452.5	
709.72	4413.4	
709.9	4702.1	
710.08	6693.4	
710.26	6769.9	
710.45	6189	
710.63	4809.3	
710.81	6409.5	
710.99	6378.7	
711.18	5537.7	
711.36	4965	
711.54	6213.5	
711.72	6961.7	
711.91	5029.8	
712.09	4366.3	
712.27	6331.6	
712.45	7038.2	
712.64	5381.4	
712.82	4220.2	
713	5762.3	
713.18	5947.3	
713.37	4419.5	
713.55	5717.2	
713.73	6918.7	
713.91	5445.5	
714.1	4868.7	
714.28	4278.9	
714.46	6670.9	
714.64	5754.8	
714.83	3796.3	
715.01	4780.6	
715.19	5961	
715.37	5424.4	
715.55	4484.4	
715.74	4843.4	
715.92	6987	
716.1	4909.7	
716.28	6015.6	
716.47	4915.8	
716.65	5610.8	
716.83	5824.4	
717.01	4830.5	
717.19	4939	
717.38	7909.9	
717.56	5368.4	
717.74	5104.2	
717.92	4182	
718.1	6711.2	
718.29	5836.7	
718.47	3782.6	
718.65	4447.5	
718.83	6522.8	
719.01	6371.2	
719.2	3586	
719.38	4704.9	
719.56	6105	
719.74	7754.3	
719.92	4291.2	
720.11	5425.1	
720.29	6112.5	
720.47	5234.6	
720.65	3803.8	
720.83	4706.9	
721.02	5699.5	
721.2	5397.8	
721.38	4855.7	
721.56	4026.3	
721.74	4838.7	
721.92	5163.6	
722.11	5513.1	
722.29	5110.4	
722.47	6496.2	
722.65	5608.7	
722.83	4122.6	
723.01	5132.9	
723.2	5666.7	
723.38	5936.4	
723.56	3521.1	
723.74	4827.7	
723.92	5094	
724.1	6398.5	
724.29	4060.4	
724.47	5390.9	
724.65	5220.3	
724.83	5130.2	
725.01	3907.5	
725.19	4966.3	
725.37	5278.3	
725.56	5345.2	
725.74	3771	
725.92	4070.7	
726.1	5118.6	
726.28	5505.6	
726.46	4623.6	
726.64	4287.8	
726.83	5440.1	
727.01	5786.2	
727.19	3848.1	
727.37	4711	
727.55	5612.8	
727.73	6144.6	
727.91	3766.2	
728.09	3603.7	
728.28	6180.8	
728.46	6859.3	
728.64	4824.3	
728.82	4791.6	
729	7400	
729.18	6513.2	
729.36	3902.7	
729.54	6429.9	
729.72	7630.7	
729.91	5795.1	
730.09	6052.4	
730.27	4613.4	
730.45	5600.5	
730.63	6346.7	
730.81	5352	
730.99	4300.7	
731.17	6881.2	
731.35	5361.6	
731.53	4870.8	
731.71	4343.7	
731.9	6549.4	
732.08	6821.8	
732.26	4697.4	
732.44	4323.9	
732.62	6820.4	
732.8	6290.7	
732.98	5150	
733.16	4132.8	
733.34	6282.5	
733.52	5001.1	
733.7	4683.7	
733.88	5049.6	
734.07	6154.8	
734.25	5931.6	
734.43	4128.7	
734.61	5854.5	
734.79	7578.2	
734.97	5808	
735.15	4292.5	
735.33	4686.4	
735.51	6214.2	
735.69	5781.4	
735.87	5897.5	
736.05	4900.8	
736.23	6066.8	
736.41	5765	
736.59	4670.7	
736.77	4820.9	
736.95	6557.6	
737.13	5897.5	
737.32	4414.1	
737.5	4607.2	
737.68	7053.2	
737.86	5819.6	
738.04	4176.5	
738.22	6269.5	
738.4	5583.4	
738.58	5946.6	
738.76	4899.4	
738.94	3760.1	
739.12	5745.2	
739.3	5616.9	
739.48	5596.4	
739.66	5282.4	
739.84	6059.9	
740.02	6064.7	
740.2	3894.6	
740.38	4284.4	
740.56	6477.7	
740.74	5245.5	
740.92	4964.3	
741.1	4951.3	
741.28	5825.8	
741.46	5704.3	
741.64	4563.6	
741.82	5110.4	
742	5936.4	
742.18	5967.8	
742.36	4788.8	
742.54	4349.2	
742.72	6567.2	
742.9	5234.6	
743.08	5212.8	
743.26	3917.1	
743.44	6835.4	
743.62	6701.6	
743.8	5471.5	
743.98	4375.8	
744.16	6391.7	
744.34	5950.7	
744.52	5262.6	
744.7	5203.9	
744.88	6507.8	
745.06	6027.2	
745.24	5317.9	
745.42	5492.7	
745.6	6569.9	
745.78	6282.5	
745.96	4104.8	
746.14	4497.3	
746.32	7434.1	
746.5	6625.2	
746.68	5150	
746.86	4569	
747.03	7190.4	
747.21	5267.4	
747.39	5050.3	
747.57	4584	
747.75	6232	
747.93	6693.4	
748.11	4554.7	
748.29	4397.7	
748.47	7931.1	
748.65	5925.5	
748.83	5305.6	
749.01	5040.7	
749.19	6552.8	
749.37	5517.9	
749.55	4879.6	
749.73	4992.9	
749.91	6097.5	
750.09	5840.8	
750.26	5037.3	
750.44	4348.5	
750.62	6156.2	
750.8	6119.3	
750.98	4293.2	
751.16	4587.4	
751.34	6227.2	
751.52	5524.7	
751.7	5469.4	
751.88	4218.1	
752.06	6790.4	
752.24	6511.2	
752.42	4160.1	
752.59	4587.4	
752.77	6118.6	
752.95	7428.7	
753.13	5356.8	
753.31	4734.9	
753.49	5783.5	
753.67	6282.5	
753.85	5070.1	
754.03	4579.3	
754.21	6576	
754.38	6962.4	
754.56	4771.8	
754.74	3692.5	
754.92	5836	
755.1	6587.6	
755.28	3818.1	
755.46	3872	
755.64	7376.8	
755.82	7500.3	
755.99	4248.2	
756.17	4334.2	
756.35	4871.4	
756.53	6598.6	
756.71	3202.3	
756.89	4206.5	
757.07	6225.8	
757.25	5153.4	
757.42	4783.4	
757.6	5746.6	
757.78	6165.8	
757.96	5062.6	
758.14	4380.6	
758.32	3816	
758.5	4612	
758.67	5494	
758.85	4246.1	
759.03	4378.6	
759.21	5731.6	
759.39	5081.7	
759.57	3704.1	
759.75	5024.3	
759.92	6391	
760.1	5560.9	
760.28	5384.8	
760.46	5542.5	
760.64	5324.7	
760.82	5028.4	
760.99	5218.2	
761.17	4274.8	
761.35	6273.6	
761.53	5175.2	
761.71	4438.6	
761.89	5210.7	
762.06	6186.2	
762.24	5576.6	
762.42	4515.1	
762.6	4310.3	
762.78	5582.1	
762.96	6290.7	
763.13	4915.1	
763.31	4628.4	
763.49	6528.9	
763.67	5509	
763.85	5555.5	
764.02	6205.3	
764.2	6709.1	
764.38	5907	
764.56	4483	
764.74	5489.9	
764.91	6969.2	
765.09	5783.5	
765.27	4131.4	
765.45	3973.7	
765.63	6963.8	
765.8	6808.8	
765.98	3640.6	
766.16	4066.6	
766.34	5306.3	
766.52	5063.9	
766.69	5107	
766.87	3905.5	
767.05	5773.2	
767.23	6492.7	
767.41	4229.7	
767.58	4528.7	
767.76	6409.5	
767.94	6431.3	
768.12	4356.7	
768.29	5274.2	
768.47	5823.1	
768.65	6599.9	
768.83	3930.1	
769	5141.8	
769.18	5344.5	
769.36	6147.3	
769.54	5017.5	
769.72	3995.6	
769.89	6402	
770.07	6593.8	
770.25	4319.8	
770.43	5759.6	
770.6	7299.6	
770.78	7667.6	
770.96	4575.2	
771.14	5324	
771.31	6374	
771.49	5681.7	
771.67	3651.5	
771.85	3979.2	
772.02	4926.7	
772.2	5715.9	
772.38	4726	
772.55	4207.2	
772.73	6032.6	
772.91	5756.2	
773.09	4632.5	
773.26	4754.7	
773.44	5956.2	
773.62	5679.7	
773.8	4122.6	
773.97	3838.6	
774.15	6040.1	
774.33	5644.2	
774.5	3997	
774.68	4461.8	
774.86	6053.1	
775.04	5600.5	
775.21	4072.7	
775.39	4147.8	
775.57	5915.9	
775.74	6409.5	
775.92	3912.3	
776.1	3882.3	
776.27	5902.9	
776.45	7349.5	
776.63	4121.9	
776.81	3652.9	
776.98	5509	
777.16	6696.2	
777.34	4308.9	
777.51	4614.1	
777.69	5517.2	
777.87	5305.6	
778.04	4284.4	
778.22	4986.1	
778.4	5291.3	
778.57	5984.2	
778.75	3481.5	
778.93	3836.5	
779.1	5137.7	
779.28	4989.5	
779.46	3513.6	
779.64	4120.5	
779.81	6169.2	
779.99	7178.8	
780.17	4898.7	
780.34	5122	
780.52	5611.4	
780.69	5866.7	
780.87	4444.8	
781.05	3966.9	
781.22	5677.7	
781.4	5810.8	
781.58	4073.4	
781.75	3229	
781.93	5698.8	
782.11	5075.5	
782.28	5066	
782.46	4119.1	
782.64	4891.9	
782.81	5896.8	
782.99	4200.4	
783.17	4185.4	
783.34	5848.3	
783.52	4980	
783.69	4400.4	
783.87	5298.1	
784.05	4997.7	
784.22	5046.2	
784.4	5248.9	
784.58	4523.3	
784.75	6083.8	
784.93	5087.2	
785.1	4134.8	
785.28	4859.8	
785.46	5734.3	
785.63	5096	
785.81	4061.8	
785.99	3983.3	
786.16	5251.7	
786.34	5640.1	
786.51	4066.6	
786.69	4419.5	
786.87	4829.1	
787.04	5423	
787.22	3405.1	
787.39	4895.3	
787.57	5086.5	
787.75	6257.2	
787.92	5018.2	
788.1	5031.9	
788.27	5121.3	
788.45	4910.3	
788.63	4780.6	
788.8	3358	
788.98	5733.6	
789.15	4809.3	
789.33	3442	
789.5	4221.5	
789.68	6090.7	
789.86	6208.1	
790.03	4448.2	
790.21	4015.4	
790.38	6052.4	
790.56	5264.6	
790.73	3877.5	
790.91	3918.4	
791.09	5159.5	
791.26	5938.4	
791.44	4129.4	
791.61	3520.5	
791.79	5104.9	
791.96	5213.4	
792.14	3671.3	
792.32	3196.2	
792.49	5079.6	
792.67	5196.4	
792.84	3777.1	
793.02	3558.7	
793.19	5900.9	
793.37	6415.6	
793.54	3359.4	
793.72	3610.6	
793.89	6610.8	
794.07	5174.5	
794.25	4371	
794.42	3388	
794.6	6290	
794.77	5865.4	
794.95	4570.4	
795.12	3960.1	
795.3	5109.7	
795.47	5829.2	
795.65	4386.1	
795.82	4233.2	
796	4971.8	
796.17	7002	
796.35	4033.8	
796.52	4805.2	
796.7	5682.4	
796.87	5855.8	
797.05	5040.1	
797.22	4982.7	
797.4	5729.5	
797.57	6892.1	
797.75	4217.5	
797.92	3977.8	
798.1	6115.9	
798.27	5226.4	
798.45	3388.7	
798.62	3653.6	
798.8	5489.2	
798.97	6012.2	
799.15	4472.1	
799.32	4249.5	
799.5	4655.7	
799.67	5587.5	
799.85	4660.5	
800.02	3308.8	
800.2	5147.9	
800.37	5442.8	
800.55	4800.4	
800.72	3968.3	
800.9	5923.4	
801.07	6421.1	
801.25	5385.5	
801.42	4418.8	
801.6	5972.6	
801.77	5729.5	
801.95	3861.8	
802.12	3882.3	
802.29	5627.1	
802.47	5688.6	
802.64	4291.2	
802.82	3275.4	
802.99	5060.5	
803.17	6173.3	
803.34	4260.5	
803.52	3852.9	
803.69	6898.2	
803.87	4903.5	
804.04	4233.2	
804.21	4270.7	
804.39	6280.4	
804.56	5328.1	
804.74	3588.7	
804.91	4393.6	
805.09	5140.4	
805.26	5275.6	
805.44	3652.9	
805.61	4003.1	
805.78	5877.7	
805.96	6043.6	
806.13	4379.9	
806.31	4754	
806.48	4653.7	
806.66	5230.5	
806.83	4329.4	
807	4272.7	
807.18	5074.2	
807.35	5545.9	
807.53	4270.7	
807.7	3411.9	
807.87	6361.7	
808.05	5225.1	
808.22	4739.7	
808.4	3373	
808.57	5201.8	
808.74	4791.6	
808.92	3833.1	
809.09	4909	
809.27	5019.6	
809.44	5667.4	
809.61	3420.1	
809.79	3834.5	
809.96	6413.6	
810.14	5986.2	
810.31	3320.4	
810.48	4035.9	
810.66	5254.4	
810.83	6096.1	
811.01	3953.3	
811.18	4678.2	
811.35	5980.8	
811.53	4610	
811.7	4721.3	
811.87	4390.2	
812.05	5164.3	
812.22	5122.7	
812.39	3756.7	
812.57	3627	
812.74	5192.3	
812.92	7010.9	
813.09	4068.6	
813.26	4489.8	
813.44	6654.5	
813.61	5112.4	
813.78	3401	
813.96	4603.8	
814.13	5228.5	
814.3	4818.9	
814.48	5006.6	
814.65	4154.6	
814.82	6470.2	
815	5001.1	
815.17	4214	
815.34	5132.9	
815.52	5089.9	
815.69	5124	
815.87	4148.5	
816.04	3638.6	
816.21	5220.3	
816.38	4562.2	
816.56	4096.6	
816.73	3771	
816.9	6578.1	
817.08	6013.5	
817.25	3796.9	
817.42	4845.5	
817.6	4700.8	
817.77	5246.9	
817.94	4315.1	
818.12	3713	
818.29	4897.4	
818.46	7832.1	
818.64	3906.8	
818.81	3666.5	
818.98	4806.6	
819.16	7231.4	
819.33	4532.2	
819.5	4235.2	
819.67	5616.9	
819.85	6285.2	
820.02	4128	
820.19	4401.1	
820.37	5426.4	
820.54	5043.5	
820.71	4359.4	
820.88	5343.8	
821.06	5382.7	
821.23	4956.8	
821.4	4298.7	
821.58	4207.9	
821.75	5997.1	
821.92	5354.8	
822.09	3355.9	
822.27	3762.1	
822.44	5214.8	
822.61	5125.4	
822.79	3464.5	
822.96	6737.1	
823.13	5750.7	
823.3	4934.9	
823.48	4044.7	
823.65	3624.9	
823.82	5966.4	
823.99	4698.7	
824.17	5188.9	
824.34	3665.2	
824.51	6896.9	
824.68	5255.8	
824.86	3845.4	
825.03	4313.7	
825.2	5186.1	
825.37	6429.3	
825.55	3752.6	
825.72	4242	
825.89	7017	
826.06	6484.6	
826.24	4134.8	
826.41	4137.6	
826.58	6311.2	
826.75	5485.1	
826.92	3201	
827.1	3597.6	
827.27	8841.8	
827.44	6993.1	
827.61	3885	
827.79	4835.9	
827.96	4903.5	
828.13	5286.5	
828.3	4072	
828.47	3432.4	
828.65	5378	
828.82	5357.5	
828.99	5362.3	
829.16	4716.5	
829.34	5791.7	
829.51	5606.7	
829.68	4270.7	
829.85	4508.9	
830.02	6144.6	
830.2	5861.3	
830.37	3241.9	
830.54	5173.9	
830.71	6707.1	
830.88	5147.9	
831.05	3340.2	
831.23	3848.8	
831.4	6401.3	
831.57	7248.4	
831.74	3910.3	
831.91	3451.5	
832.09	5403.9	
832.26	5829.9	
832.43	4042	
832.6	4611.3	
832.77	5493.3	
832.94	6299.6	
833.12	3218.7	
833.29	4031.8	
833.46	5304.9	
833.63	7505.1	
833.8	4455	
833.97	4062.5	
834.15	5864.7	
834.32	5664	
834.49	4247.5	
834.66	4317.1	
834.83	6088.6	
835	4863.9	
835.17	3914.4	
835.35	3939.6	
835.52	5732.9	
835.69	5642.2	
835.86	4196.3	
836.03	3404.4	
836.2	5747.3	
836.37	5340.4	
836.55	4074.8	
836.72	3833.8	
836.89	5416.2	
837.06	5833.3	
837.23	4146.5	
837.4	4587.4	
837.57	6701	
837.75	7585.7	
837.92	3730.7	
838.09	3973.7	
838.26	5387.5	
838.43	6137.1	
838.6	4262.5	
838.77	3796.3	
838.94	6983.6	
839.11	6804	
839.29	4105.5	
839.46	3252.9	
839.63	5727.5	
839.8	5567.7	
839.97	3926	
840.14	3988.1	
840.31	5569.8	
840.48	5869.5	
840.65	3216.7	
840.82	3859.1	
841	5763	
841.17	5778	
841.34	3650.2	
841.51	3693.2	
841.68	5692.7	
841.85	5446.2	
842.02	3789.4	
842.19	3104.7	
842.36	5560.9	
842.53	5540.4	
842.7	3641.3	
842.87	4458.4	
843.05	7370	
843.22	5493.3	
843.39	3450.1	
843.56	3741	
843.73	5255.1	
843.9	5887.2	
844.07	6049	
844.24	4928.1	
844.41	8725.7	
844.58	5064.6	
844.75	3498.6	
844.92	3725.3	
845.09	5877.7	
845.26	5834	
845.43	3575.1	
845.6	3832.4	
845.77	5828.5	
845.94	5532.9	
846.12	4044.1	
846.29	4227	
846.46	5980.1	
846.63	5862	
846.8	3617.4	
846.97	4355.3	
847.14	6310.5	
847.31	5778	
847.48	4100	
847.65	4560.1	
847.82	6084.5	
847.99	6083.1	
848.16	4915.1	
848.33	4532.2	
848.5	5348.6	
848.67	6328.2	
848.84	3621.5	
849.01	3824.9	
849.18	5197.1	
849.35	4853.7	
849.52	4618.9	
849.69	3560.1	
849.86	5985.5	
850.03	6282.5	
850.2	3648.1	
850.37	4423.6	
850.54	6203.3	
850.71	5511.8	
850.88	4298.7	
851.05	3589.4	
851.22	5745.2	
851.39	6343.9	
851.56	3407.1	
851.73	4162.2	
851.9	5102.9	
852.07	6102.3	
852.24	4055.7	
852.41	3551.2	
852.58	5646.2	
852.75	5151.3	
852.92	4058.4	
853.09	3539.6	
853.26	5378	
853.43	6299.6	
853.6	3631	
853.77	3063.8	
853.94	6464.8	
854.11	5063.3	
854.28	5365.7	
854.44	3886.4	
854.61	6855.9	
854.78	5926.8	
854.95	3572.3	
855.12	4535.6	
855.29	4700.8	
855.46	6675	
855.63	3595.6	
855.8	5087.8	
855.97	5369.1	
856.14	6156.2	
856.31	5202.5	
856.48	3946.4	
856.65	5370.5	
856.82	5068.7	
856.99	3457.7	
857.16	3908.9	
857.33	7206.8	
857.49	5479.7	
857.66	3916.4	
857.83	4194.2	
858	5371.8	
858.17	5589.6	
858.34	3422.2	
858.51	3571	
858.68	6611.5	
858.85	6610.2	
859.02	4196.3	
859.19	4481.6	
859.36	5030.5	
859.52	5165	
859.69	3600.3	
859.86	4288.4	
860.03	5097.4	
860.2	6447.7	
860.37	3324.5	
860.54	3652.2	
860.71	6027.9	
860.88	6481.1	
861.05	4104.8	
861.21	4590.9	
861.38	6552.1	
861.55	4959.5	
861.72	3289.7	
861.89	4054.3	
862.06	6130.3	
862.23	6623.1	
862.4	3530.7	
862.56	3742.3	
862.73	5948.7	
862.9	5591	
863.07	4327.4	
863.24	3278.8	
863.41	4950.6	
863.58	5083.7	
863.75	3698.6	
863.91	4199.7	
864.08	6473.6	
864.25	5968.5	
864.42	4522.6	
864.59	5141.1	
864.76	6863.4	
864.93	5078.3	
865.09	3502.7	
865.26	3908.9	
865.43	6290	
865.6	6831.3	
865.77	3133.4	
865.94	3644	
866.1	6449.1	
866.27	6135	
866.44	5503.6	
866.61	3392.1	
866.78	5486.5	
866.95	5991	
867.11	3459	
867.28	3235.1	
867.45	6235.4	
867.62	5122.7	
867.79	4180.6	
867.96	3616.7	
868.12	5109.7	
868.29	6094.1	
868.46	3621.5	
868.63	4831.2	
868.8	6370.5	
868.97	6016.9	
869.13	3807.2	
869.3	3797.6	
869.47	5997.1	
869.64	6214.9	
869.81	3627	
869.97	3625.6	
870.14	5855.8	
870.31	6576.7	
870.48	3530.7	
870.65	4640	
870.81	5432.6	
870.98	5417.6	
871.15	4115.7	
871.32	3768.9	
871.48	5948.7	
871.65	6556.9	
871.82	3598.3	
871.99	3976.5	
872.16	7122.8	
872.32	6400.6	
872.49	3659.7	
872.66	3717.1	
872.83	6092	
872.99	5264.6	
873.16	4145.1	
873.33	3566.2	
873.5	5721.3	
873.67	5692.7	
873.83	3824.9	
874	4876.9	
874.17	5879	
874.34	6971.3	
874.5	4689.2	
874.67	4483.7	
874.84	6503.7	
875.01	5087.8	
875.17	5158.8	
875.34	3611.9	
875.51	5750	
875.68	7002	
875.84	4370.4	
876.01	5410.7	
876.18	6005.3	
876.34	5965.1	
876.51	3692.5	
876.68	3520.5	
876.85	5489.2	
877.01	6302.3	
877.18	5214.8	
877.35	3611.9	
877.52	5608	
877.68	4998.4	
877.85	3557.3	
878.02	3586.7	
878.18	5608.7	
878.35	5251.7	
878.52	2858.3	
878.69	4093.9	
878.85	6053.1	
879.02	5988.3	
879.19	5158.8	
879.35	3873.4	
879.52	5973.2	
879.69	6296.8	
879.86	3038.5	
880.02	4072	
880.19	5627.8	
880.36	6833.4	
880.52	4220.2	
880.69	4353.3	
880.86	6180.8	
881.02	6217.6	
881.19	4003.8	
881.36	3937.6	
881.52	6006	
881.69	5302.9	
881.86	3937.6	
882.02	3807.9	
882.19	6312.5	
882.36	7444.4	
882.52	3705.5	
882.69	5180.7	
882.86	5760.9	
883.02	5668.1	
883.19	4432.5	
883.36	4199	
883.52	6171.9	
883.69	6965.1	
883.86	3636.5	
884.02	3271.3	
884.19	6101.6	
884.36	5630.5	
884.52	4130.8	
884.69	3874.1	
884.86	5297.4	
885.02	6731.7	
885.19	4031.8	
885.36	4154.6	
885.52	5603.2	
885.69	5771.9	
885.86	5223.7	
886.02	4665.3	
886.19	6121.4	
886.35	5481	
886.52	3990.1	
886.69	5142.4	
886.85	5136.3	
887.02	6463.4	
887.19	6463.4	
887.35	6463.4	
887.52	6463.4	
887.68	6463.4	
887.85	6463.4	
888.02	6463.4	
888.18	6463.4	
888.35	6463.4	
888.51	6463.4	
888.68	6463.4	
888.85	6463.4	
889.01	6463.4	
889.18	6463.4	
889.35	6463.4	
889.51	6463.4	
889.68	6463.4	
889.84	6463.4	
890.01	6463.4	
890.17	6463.4	
890.34	6463.4	
890.51	6463.4	
890.67	6463.4	
890.84	6463.4	
891	6463.4	
891.17	6463.4	
891.34	6463.4	
891.5	6463.4	
891.67	6463.4	
891.83	6463.4	
892	6463.4	
892.16	6463.4	
892.33	6463.4	
892.5	6463.4	
892.66	6463.4	
892.83	6463.4	
892.99	6463.4	
893.16	6463.4	
893.32	6463.4	
893.49	6463.4	
893.65	6463.4	
893.82	6463.4	
893.99	6463.4	
894.15	6463.4	
894.32	6463.4	
894.48	6463.4	
894.65	6463.4	
894.81	6463.4	
894.98	6463.4	
895.14	6463.4	
895.31	6463.4	
895.47	6463.4	
895.64	6463.4	
895.81	6463.4	
895.97	6463.4	
896.14	6463.4	
896.3	6463.4	
896.47	6463.4	
896.63	6463.4	
896.8	6463.4	
896.96	6463.4	
897.13	6463.4	
897.29	6463.4	
897.46	6463.4	
897.62	6463.4	
897.79	6463.4	
897.95	6463.4	
898.12	6463.4	
898.28	6463.4	
898.45	6463.4	
898.61	6463.4	
898.78	6463.4	
898.94	6463.4	
899.11	6463.4	
899.27	6463.4	
899.44	6463.4	
899.6	6463.4	
899.77	6463.4	
899.93	6463.4	
900.1	6463.4	
900.26	6463.4	
900.43	6463.4	
900.59	6463.4	
900.76	6463.4	
900.92	6463.4	
901.09	6463.4	
901.25	6463.4	
901.42	6463.4	
901.58	6463.4	
901.75	6463.4	
901.91	6463.4	
902.07	6463.4	
902.24	6463.4	
902.4	6463.4	
902.57	6463.4	
902.73	6463.4	
902.9	6463.4	
903.06	6463.4	
903.23	6463.4	
903.39	6463.4	
903.56	6463.4	
903.72	6463.4	
903.88	6463.4	
904.05	6463.4	
904.21	6463.4	
904.38	6463.4	
904.54	6463.4	
904.71	6463.4	
904.87	6463.4	
905.03	6463.4	
905.2	6463.4	
905.36	6463.4	
905.53	6463.4	
905.69	6463.4	
905.86	6463.4	
906.02	6463.4	
906.18	6463.4	
906.35	6463.4	
906.51	6463.4	
906.68	6463.4	
906.84	6463.4	
907.01	6463.4	
907.17	6463.4	
907.33	6463.4	
907.5	6463.4	
907.66	6463.4	
907.83	6463.4	
907.99	6463.4	
908.15	6463.4	
908.32	6463.4	
908.48	6463.4	
908.65	6463.4	
908.81	6463.4	
908.97	6463.4	
909.14	6463.4	
909.3	6463.4	
909.47	6463.4	
909.63	6463.4	
909.79	6463.4	
909.96	6463.4	
910.12	6463.4	
910.28	6463.4	
910.45	6463.4	
910.61	6463.4	
910.78	6463.4	
910.94	6463.4	
911.1	6463.4	
911.27	6463.4	
911.43	6463.4	
911.59	6463.4	
911.76	6463.4	
911.92	6463.4	
912.08	6463.4	
912.25	6463.4	
912.41	6463.4	
912.57	6463.4	
912.74	6463.4	
912.9	6463.4	
913.07	6463.4	
913.23	6463.4	
913.39	6463.4	
913.56	6463.4	
913.72	6463.4	
913.88	6463.4	
914.05	6463.4	
914.21	6463.4	
914.37	6463.4	
914.54	6463.4	
914.7	6463.4	
914.86	6463.4	
915.03	6463.4	
915.19	6463.4	
