Wavelength	Intensities	
nm	a.u.	
179.22	1896.4	
179.44	1884.1	
179.65	1908.7	
179.86	1859.6	
180.08	1905.3	
180.29	4947.2	
180.51	3514.3	
180.72	5629.2	
180.94	6643.6	
181.15	3215.3	
181.37	3165.5	
181.58	5480.4	
181.79	5815.5	
182.01	3342.3	
182.22	3610.6	
182.44	5798.5	
182.65	4872.1	
182.87	4582.7	
183.08	3995.6	
183.29	6158.9	
183.51	4971.1	
183.72	3628.3	
183.94	5339.7	
184.15	5328.8	
184.37	5393	
184.58	3190.7	
184.79	4433.2	
185.01	5053.7	
185.22	5796.4	
185.44	4698.7	
185.65	3888.4	
185.86	5276.9	
186.08	4867.3	
186.29	3095.8	
186.51	3375.1	
186.72	5057.8	
186.94	5956.9	
187.15	3888.4	
187.36	4046.1	
187.58	7772	
187.79	5509	
188.01	4183.3	
188.22	6632.7	
188.43	6584.2	
188.65	5750	
188.86	3403.7	
189.08	4018.8	
189.29	5232.6	
189.5	5183.4	
189.72	3737.5	
189.93	3754.6	
190.15	6035.4	
190.36	7146	
190.57	4083.6	
190.79	3946.4	
191	6070.2	
191.22	6036	
191.43	4070	
191.64	3319.1	
191.86	6229.9	
192.07	6058.6	
192.29	3525.2	
192.5	3752.6	
192.71	6047.7	
192.93	5146.5	
193.14	3691.8	
193.35	3821.5	
193.57	5160.2	
193.78	5963	
194	2973	
194.21	3687.7	
194.42	4947.9	
194.64	5457.8	
194.85	4052.2	
195.07	4744.5	
195.28	5480.4	
195.49	4713.7	
195.71	4973.2	
195.92	3457.7	
196.13	5614.8	
196.35	5678.3	
196.56	5361.6	
196.78	4030.4	
196.99	7018.4	
197.2	6596.5	
197.42	4559.5	
197.63	4059.8	
197.84	4840.7	
198.06	5595.1	
198.27	3721.2	
198.48	5068.7	
198.7	5213.4	
198.91	5317.9	
199.13	4005.8	
199.34	4042.7	
199.55	5863.3	
199.77	4724	
199.98	3594.2	
200.19	4091.2	
200.41	5318.6	
200.62	5023	
200.83	4265.9	
201.05	4513.7	
201.26	5358.2	
201.47	5007.3	
201.69	3590.1	
201.9	3472	
202.11	5386.2	
202.33	6434.7	
202.54	3920.5	
202.76	4326.7	
202.97	5525.4	
203.18	5478.3	
203.4	4229.1	
203.61	4136.2	
203.82	5511.1	
204.04	5085.8	
204.25	4108.2	
204.46	3984	
204.68	5481	
204.89	5684.5	
205.1	4009.2	
205.32	3399.6	
205.53	5811.5	
205.74	5939.1	
205.96	2955.9	
206.17	4121.2	
206.38	5757.5	
206.6	5993	
206.81	4590.9	
207.02	3807.9	
207.24	5617.6	
207.45	6088.6	
207.66	3821.5	
207.88	3300	
208.09	5566.4	
208.3	5431.2	
208.52	3514.3	
208.73	3891.8	
208.94	5424.4	
209.15	6116.6	
209.37	3876.1	
209.58	4021.5	
209.79	5985.5	
210.01	5178.6	
210.22	3107.5	
210.43	3229	
210.65	5469.4	
210.86	5824.4	
211.07	3880.2	
211.29	3547.8	
211.5	5811.5	
211.71	5308.3	
211.93	3508.2	
212.14	3546.4	
212.35	5307	
212.56	5575.9	
212.78	4117.8	
212.99	3409.2	
213.2	6339.1	
213.42	5126.1	
213.63	3668.6	
213.84	3962.8	
214.06	4838	
214.27	4841.4	
214.48	3885.7	
214.69	4141.7	
214.91	6120.7	
215.12	6142.5	
215.33	4157.4	
215.55	4622.3	
215.76	6655.9	
215.97	5743.2	
216.18	3976.5	
216.4	3899.3	
216.61	5063.9	
216.82	5866.7	
217.04	3586.7	
217.25	3749.8	
217.46	6102.3	
217.67	5859.2	
217.89	3175.7	
218.1	3222.1	
218.31	5484.5	
218.53	5610.8	
218.74	3778.5	
218.95	3641.3	
219.16	5326.8	
219.38	6356.2	
219.59	3620.8	
219.8	4399.7	
220.01	6977.4	
220.23	5405.3	
220.44	4762.2	
220.65	3521.8	
220.87	5513.8	
221.08	6064.7	
221.29	3308.8	
221.5	4377.2	
221.72	7412.3	
221.93	5166.3	
222.14	4166.9	
222.35	4825	
222.57	5438	
222.78	5780.7	
222.99	3874.1	
223.2	4238.6	
223.42	5715.9	
223.63	5866.7	
223.84	2968.9	
224.05	2902.7	
224.27	6925.5	
224.48	6350.8	
224.69	4787.5	
224.9	4100	
225.12	5696.8	
225.33	5347.9	
225.54	3224.2	
225.75	3638.6	
225.97	4960.9	
226.18	5240.8	
226.39	3888.4	
226.6	3646.7	
226.82	5199.1	
227.03	5036	
227.24	4108.2	
227.45	3379.8	
227.67	5837.4	
227.88	6331	
228.09	4508.3	
228.3	4579.3	
228.52	5846.3	
228.73	5378.6	
228.94	3775.8	
229.15	3366.2	
229.36	5290.6	
229.58	5282.4	
229.79	3774.4	
230	4446.8	
230.21	6484.6	
230.43	5518.6	
230.64	4031.1	
230.85	4242.7	
231.06	5819.6	
231.28	5862.7	
231.49	3318.4	
231.7	3971.7	
231.91	5754.8	
232.12	5492	
232.34	3422.2	
232.55	3962.8	
232.76	6030.6	
232.97	5569.8	
233.18	3557.3	
233.4	4023.6	
233.61	5644.2	
233.82	5175.2	
234.03	3738.2	
234.25	3631	
234.46	7523.6	
234.67	5477.6	
234.88	4125.3	
235.09	3601.7	
235.31	5736.4	
235.52	5273.5	
235.73	4069.3	
235.94	3373.7	
236.15	5145.2	
236.37	6562.4	
236.58	3543.7	
236.79	3874.8	
237	5756.8	
237.21	4902.8	
237.43	4132.8	
237.64	3278.1	
237.85	9856.9	
238.06	4982	
238.27	4303.5	
238.48	3383.9	
238.7	5759.6	
238.91	5301.5	
239.12	3876.1	
239.33	3911.6	
239.54	5184.8	
239.76	5320.6	
239.97	3835.8	
240.18	3891.8	
240.39	6836.8	
240.6	5702.9	
240.82	4029	
241.03	3284.3	
241.24	5394.3	
241.45	6285.2	
241.66	3564.8	
241.87	4247.5	
242.09	6171.9	
242.3	6541.9	
242.51	4250.2	
242.72	3889.1	
242.93	5825.1	
243.14	5405.3	
243.36	4502.1	
243.57	4872.1	
243.78	6287.9	
243.99	5794.4	
244.2	3931.4	
244.41	3538.9	
244.63	4943.1	
244.84	5740.5	
245.05	4189.5	
245.26	3898.6	
245.47	5644.9	
245.68	5977.3	
245.9	5238.7	
246.11	4078.2	
246.32	5287.2	
246.53	5682.4	
246.74	6391	
246.95	3255.6	
247.16	4906.3	
247.38	5423	
247.59	3261	
247.8	3908.9	
248.01	5139.7	
248.22	5337.7	
248.43	3480.9	
248.64	3777.1	
248.86	4870.1	
249.07	5202.5	
249.28	3428.3	
249.49	4020.2	
249.7	6012.2	
249.91	6103.6	
250.12	3222.8	
250.34	3278.1	
250.55	5518.6	
250.76	5474.9	
250.97	4026.3	
251.18	4058.4	
251.39	6161.7	
251.6	5568.4	
251.81	4154.6	
252.03	4116.4	
252.24	5124.7	
252.45	5909.1	
252.66	3339.6	
252.87	4337.6	
253.08	5499.5	
253.29	7101	
253.5	3391.4	
253.72	4780.6	
253.93	5199.1	
254.14	6453.1	
254.35	3747.1	
254.56	3833.1	
254.77	5702.2	
254.98	5037.3	
255.19	3646.1	
255.41	4759.5	
255.62	5532.9	
255.83	6105.7	
256.04	4185.4	
256.25	4110.3	
256.46	6657.3	
256.67	5092.6	
256.88	4021.5	
257.09	4493.2	
257.31	5077.6	
257.52	5087.2	
257.73	5074.9	
257.94	3664.5	
258.15	5264	
258.36	5445.5	
258.57	4732.2	
258.78	2953.9	
258.99	5881.1	
259.2	5253	
259.41	3758	
259.63	3824.9	
259.84	6303.6	
260.05	6797.2	
260.26	4889.9	
260.47	3603.1	
260.68	6015.6	
260.89	5390.3	
261.1	4499.4	
261.31	3546.4	
261.52	6038.8	
261.73	6344.6	
261.95	4811.4	
262.16	4173.1	
262.37	6139.8	
262.58	6189	
262.79	4759.5	
263	3773.7	
263.21	5404.6	
263.42	4960.2	
263.63	3847.5	
263.84	3788.7	
264.05	6001.9	
264.26	6357.6	
264.47	4661.9	
264.69	4199	
264.9	6115.9	
265.11	5628.5	
265.32	3633.8	
265.53	3724.6	
265.74	5554.1	
265.95	4855.7	
266.16	3911.6	
266.37	4399.7	
266.58	5560.9	
266.79	5206.6	
267	3694.5	
267.21	3391.4	
267.42	5036	
267.63	5414.1	
267.84	3902.7	
268.06	3301.3	
268.27	5806.7	
268.48	6178	
268.69	3777.1	
268.9	4464.6	
269.11	6113.9	
269.32	4884.4	
269.53	3909.6	
269.74	3631.7	
269.95	5773.9	
270.16	4698.7	
270.37	3905.5	
270.58	4540.3	
270.79	5258.5	
271	5899.5	
271.21	4171.7	
271.42	3946.4	
271.63	5541.1	
271.84	5046.2	
272.05	3102.7	
272.26	3500.7	
272.47	5450.3	
272.68	5636	
272.89	3759.4	
273.11	4331.5	
273.32	5274.9	
273.53	6404	
273.74	4248.9	
273.95	4147.8	
274.16	6023.8	
274.37	5435.3	
274.58	4291.2	
274.79	3402.4	
275	5565.7	
275.21	6136.4	
275.42	5087.2	
275.63	4446.1	
275.84	5666	
276.05	7208.8	
276.26	4111	
276.47	3812.6	
276.68	5233.2	
276.89	6449.7	
277.1	4371	
277.31	3444	
277.52	5722	
277.73	5822.4	
277.94	3364.8	
278.15	3807.2	
278.36	5612.8	
278.57	5123.3	
278.78	3745.1	
278.99	4242.7	
279.2	5020.3	
279.41	5018.2	
279.62	4903.5	
279.83	3510.2	
280.04	6720.8	
280.25	4964.3	
280.46	4911	
280.67	3886.4	
280.88	4987.5	
281.09	6054.5	
281.3	4115.1	
281.51	5171.1	
281.72	5169.1	
281.93	6013.5	
282.14	3644.7	
282.35	3919.1	
282.56	5927.5	
282.77	5905.7	
282.98	3734.1	
283.19	4614.1	
283.4	7214.3	
283.61	5343.8	
283.82	3414	
284.03	4894	
284.24	5483.1	
284.45	6079.7	
284.66	4894.6	
284.87	4648.9	
285.08	5967.8	
285.29	6182.8	
285.5	3248.1	
285.71	3839.3	
285.92	6087.2	
286.12	6722.8	
286.33	4807.9	
286.54	3771.7	
286.75	5906.3	
286.96	5257.8	
287.17	3529.3	
287.38	4721.9	
287.59	5098.1	
287.8	4975.9	
288.01	3828.3	
288.22	4435.2	
288.43	5976	
288.64	4964.3	
288.85	4572.4	
289.06	4349.9	
289.27	6163.7	
289.48	6341.2	
289.69	4906.3	
289.9	4416.8	
290.11	6049	
290.32	5101.5	
290.53	4666	
290.74	4204.5	
290.94	5902.9	
291.15	5888.6	
291.36	3706.1	
291.57	4345.1	
291.78	5166.3	
291.99	4855.1	
292.2	3531.4	
292.41	4231.8	
292.62	5998.5	
292.83	5748	
293.04	5235.3	
293.25	3495.2	
293.46	5183.4	
293.67	6045.6	
293.88	3701.4	
294.09	3493.2	
294.29	4984.8	
294.5	5567.1	
294.71	3913.7	
294.92	3692.5	
295.13	5200.5	
295.34	6537.8	
295.55	3230.3	
295.76	3360	
295.97	5901.6	
296.18	6629.3	
296.39	3461.1	
296.6	3715	
296.81	5537	
297.01	5912.5	
297.22	3803.8	
297.43	3632.4	
297.64	5066	
297.85	5088.5	
298.06	2988	
298.27	3241.9	
298.48	5532.9	
298.69	5136.3	
298.9	4017.4	
299.11	3579.8	
299.31	4910.3	
299.52	4986.8	
299.73	4225.6	
299.94	4145.8	
300.15	5406	
300.36	5067.4	
300.57	4184.7	
300.78	4162.2	
300.99	5279	
301.2	5573.2	
301.4	3620.1	
301.61	4016.7	
301.82	5747.3	
302.03	5841.5	
302.24	4461.2	
302.45	3481.5	
302.66	5750.7	
302.87	6183.5	
303.08	3635.1	
303.29	5030.5	
303.49	5196.4	
303.7	5411.4	
303.91	3271.3	
304.12	4739.7	
304.33	4939.7	
304.54	5601.9	
304.75	3691.8	
304.96	3526.6	
305.16	5790.3	
305.37	6521.4	
305.58	3159.3	
305.79	3280.8	
306	5797.1	
306.21	4818.9	
306.42	3629	
306.63	5629.9	
306.83	5308.3	
307.04	6079.1	
307.25	4011.3	
307.46	4001	
307.67	4680.3	
307.88	5922	
308.09	3580.5	
308.29	3741.6	
308.5	5471.5	
308.71	6034	
308.92	3893.9	
309.13	3532.7	
309.34	5414.8	
309.55	5357.5	
309.75	4601.1	
309.96	4185.4	
310.17	5877	
310.38	5104.9	
310.59	4434.5	
310.8	4137.6	
311.01	5251	
311.21	5350.7	
311.42	3467.9	
311.63	3620.8	
311.84	5155.4	
312.05	5582.1	
312.26	4083	
312.46	4411.3	
312.67	5280.3	
312.88	4952.7	
313.09	3551.9	
313.3	3496.6	
313.51	6290.7	
313.71	6638.1	
313.92	3515.7	
314.13	3772.4	
314.34	5589.6	
314.55	5356.8	
314.76	4574.5	
314.96	4005.8	
315.17	5526.8	
315.38	5856.5	
315.59	3545	
315.8	3405.8	
316.01	6334.4	
316.21	6375.3	
316.42	3390.1	
316.63	3909.6	
316.84	5264	
317.05	6213.5	
317.26	4154	
317.46	3806.5	
317.67	5363.6	
317.88	5853.8	
318.09	4533.5	
318.3	3300.6	
318.5	5137.7	
318.71	5750.7	
318.92	5778.7	
319.13	4154.6	
319.34	5990.3	
319.54	6057.2	
319.75	3302.7	
319.96	3122.5	
320.17	5830.6	
320.38	6055.8	
320.58	3232.4	
320.79	3866.6	
321	6039.5	
321.21	6178.7	
321.42	3893.9	
321.62	3231	
321.83	5066.7	
322.04	5466.7	
322.25	3753.2	
322.46	3590.1	
322.66	5550.7	
322.87	5668.1	
323.08	4416.8	
323.29	3500.7	
323.5	6526.9	
323.7	4997	
323.91	4877.6	
324.12	4411.3	
324.33	5517.9	
324.53	5738.4	
324.74	4170.3	
324.95	4385.4	
325.16	4848.9	
325.37	5226.4	
325.57	3512.9	
325.78	3639.9	
325.99	5510.4	
326.2	4886.5	
326.4	5229.8	
326.61	3307.5	
326.82	5416.9	
327.03	5591.6	
327.24	5094.7	
327.44	4791.6	
327.65	5678.3	
327.86	4594.3	
328.07	4124.6	
328.27	3421.5	
328.48	6113.9	
328.69	5042.8	
328.9	5173.9	
329.1	3809.2	
329.31	5305.6	
329.52	6268.8	
329.73	3496.6	
329.93	4027	
330.14	5435.3	
330.35	5668.8	
330.56	5937.7	
330.76	4422.2	
330.97	5327.4	
331.18	5668.8	
331.39	3902.1	
331.59	3168.9	
331.8	6090	
332.01	6176	
332.22	3615.3	
332.42	4183.3	
332.63	5593	
332.84	5151.3	
333.05	3986.7	
333.25	3621.5	
333.46	5255.1	
333.67	5450.3	
333.88	3683.6	
334.08	4098	
334.29	7289.4	
334.5	6101.6	
334.7	3440.6	
334.91	5131.5	
335.12	4967.7	
335.33	5838.1	
335.53	3909.6	
335.74	5834	
335.95	5233.2	
336.16	5070.1	
336.36	3949.2	
336.57	4536.9	
336.78	4954	
336.98	6049.7	
337.19	4841.4	
337.4	3853.6	
337.61	6540.5	
337.81	4960.2	
338.02	3578.5	
338.23	4719.9	
338.43	6269.5	
338.64	5102.2	
338.85	3595.6	
339.05	4708.3	
339.26	6324.8	
339.47	4886.5	
339.68	3585.3	
339.88	5289.2	
340.09	5706.3	
340.3	5905.7	
340.5	4199	
340.71	3145	
340.92	4915.1	
341.13	6201.9	
341.33	3456.3	
341.54	4212	
341.75	5647.6	
341.95	5278.3	
342.16	4021.5	
342.37	4264.6	
342.57	5053	
342.78	5442.1	
342.99	4428.4	
343.19	3160.7	
343.4	5866.1	
343.61	5680.4	
343.81	3744.4	
344.02	3490.4	
344.23	5894.7	
344.43	6286.6	
344.64	4419.5	
344.85	4300.7	
345.06	5726.8	
345.26	6029.9	
345.47	4093.2	
345.68	4817.5	
345.88	4760.2	
346.09	5939.1	
346.3	4201.7	
346.5	3158	
346.71	5463.3	
346.92	5178.6	
347.12	3210.5	
347.33	4050.9	
347.54	6059.3	
347.74	6370.5	
347.95	4062.5	
348.16	3060.3	
348.36	5229.1	
348.57	4906.3	
348.78	4065.2	
348.98	4368.3	
349.19	5433.9	
349.39	4906.3	
349.6	3231.7	
349.81	3596.9	
350.01	5711.8	
350.22	5130.2	
350.43	3969.6	
350.63	4704.9	
350.84	5498.8	
351.05	5217.5	
351.25	3556	
351.46	3251.5	
351.67	6036.7	
351.87	5116.5	
352.08	3822.9	
352.29	4321.9	
352.49	5890.6	
352.7	5996.5	
352.9	3415.3	
353.11	4287.1	
353.32	6578.8	
353.52	5235.3	
353.73	3386	
353.94	4394.3	
354.14	5726.1	
354.35	5535.7	
354.55	3497.2	
354.76	3907.5	
354.97	5715.2	
355.17	5474.2	
355.38	3288.4	
355.59	4628.4	
355.79	5064.6	
356	5593.7	
356.2	3879.5	
356.41	3390.1	
356.62	4795.7	
356.82	5268.1	
357.03	4147.8	
357.24	3749.1	
357.44	5101.5	
357.65	5259.2	
357.85	5046.2	
358.06	3919.1	
358.27	4827.7	
358.47	5058.5	
358.68	3231.7	
358.88	4153.3	
359.09	5612.1	
359.3	6007.4	
359.5	4819.6	
359.71	4292.5	
359.91	6486.6	
360.12	5855.8	
360.33	4078.2	
360.53	4595.6	
360.74	5036	
360.94	5147.2	
361.15	4263.9	
361.36	3508.9	
361.56	5868.8	
361.77	5284.4	
361.97	4801.1	
362.18	3767.6	
362.38	5913.9	
362.59	4886.5	
362.8	3409.2	
363	3261.7	
363.21	4643.4	
363.41	5360.2	
363.62	4000.4	
363.83	5045.5	
364.03	5415.5	
364.24	6458.6	
364.44	5112.4	
364.65	5088.5	
364.85	5215.5	
365.06	5102.2	
365.27	3575.8	
365.47	3638.6	
365.68	6254.5	
365.88	5167	
366.09	4004.5	
366.29	3692.5	
366.5	5502.2	
366.71	5884.5	
366.91	4966.3	
367.12	4203.1	
367.32	6485.2	
367.53	5744.6	
367.73	4156.7	
367.94	5118.6	
368.14	5656.5	
368.35	6563.7	
368.56	4126.7	
368.76	3463.8	
368.97	5819	
369.17	7593.2	
369.38	3530	
369.58	3930.7	
369.79	4805.2	
369.99	6165.1	
370.2	4909	
370.4	3973.7	
370.61	5477	
370.82	6714.6	
371.02	3827.7	
371.23	3181.9	
371.43	4702.1	
371.64	6056.5	
371.84	3918.4	
372.05	5087.8	
372.25	7408.9	
372.46	5792.3	
372.66	3805.1	
372.87	3799.7	
373.07	5831.2	
373.28	7477.1	
373.48	4866.7	
373.69	4558.8	
373.9	5268.1	
374.1	5302.2	
374.31	4781.3	
374.51	4334.9	
374.72	6129.6	
374.92	4984.1	
375.13	4928.8	
375.33	4121.2	
375.54	5707.7	
375.74	5096.7	
375.95	4153.3	
376.15	5455.1	
376.36	5582.8	
376.56	5470.8	
376.77	4199.7	
376.97	4693.9	
377.18	6690.7	
377.38	5762.3	
377.59	4997	
377.79	3674.1	
378	5477.6	
378.2	6023.1	
378.41	3765.5	
378.61	3665.2	
378.82	6001.2	
379.02	5064.6	
379.23	3886.4	
379.43	5144.5	
379.64	6106.4	
379.84	5732.9	
380.05	3769.6	
380.25	3702.7	
380.46	5793.7	
380.66	5338.4	
380.87	5075.5	
381.07	5498.8	
381.28	6425.8	
381.48	5781.4	
381.69	3816	
381.89	3809.2	
382.1	4677.6	
382.3	5961	
382.51	4964.3	
382.71	5835.3	
382.91	5826.5	
383.12	6365.8	
383.32	4132.8	
383.53	4395.6	
383.73	5677.7	
383.94	5483.1	
384.14	4327.4	
384.35	3443.3	
384.55	5384.8	
384.76	5856.5	
384.96	4222.2	
385.17	4571.7	
385.37	5825.1	
385.58	5109	
385.78	4552	
385.98	3392.8	
386.19	5283.8	
386.39	5658.5	
386.6	3934.8	
386.8	4132.8	
387.01	5755.5	
387.21	5763.7	
387.42	4612	
387.62	5134.9	
387.83	5077.6	
388.03	5793.7	
388.23	4192.2	
388.44	5020.9	
388.64	4698	
388.85	4842.1	
389.05	4549.9	
389.26	5181.4	
389.46	6815.6	
389.67	6195.1	
389.87	4544.4	
390.07	4576.5	
390.28	5475.6	
390.48	4977.2	
390.69	3801.7	
390.89	4052.9	
391.1	5098.1	
391.3	6124.1	
391.5	5334.3	
391.71	5887.9	
391.91	5769.8	
392.12	6963.8	
392.32	5359.5	
392.53	4578.6	
392.73	5228.5	
392.93	5444.2	
393.14	4212	
393.34	5037.3	
393.55	5877.7	
393.75	5411.4	
393.95	4204.5	
394.16	4140.3	
394.36	5185.5	
394.57	5863.3	
394.77	3640.6	
394.98	4096.6	
395.18	5061.9	
395.38	5330.9	
395.59	4900.1	
395.79	3876.1	
396	5198.4	
396.2	5758.2	
396.4	4920.6	
396.61	4699.4	
396.81	5907	
397.02	5110.4	
397.22	4951.3	
397.42	5078.3	
397.63	5841.5	
397.83	5066	
398.04	3819.5	
398.24	4341	
398.44	5715.9	
398.65	4671.4	
398.85	3663.8	
399.05	3791.5	
399.26	5052.3	
399.46	6825.2	
399.67	4143.7	
399.87	3819.5	
400.07	5377.3	
400.28	5759.6	
400.48	3911.6	
400.69	5051	
400.89	6025.8	
401.09	6423.8	
401.3	3756.7	
401.5	5023.7	
401.7	6698.2	
401.91	6868.9	
402.11	4187.4	
402.32	4485.7	
402.52	6057.2	
402.72	5930.9	
402.93	4707.6	
403.13	3581.2	
403.33	6839.5	
403.54	5536.3	
403.74	4367	
403.94	5315.2	
404.15	5556.8	
404.35	6703.7	
404.56	4115.7	
404.76	5988.9	
404.96	5985.5	
405.17	5773.2	
405.37	5380	
405.57	4591.5	
405.78	6084.5	
405.98	5493.3	
406.18	4126.7	
406.39	5130.8	
406.59	6070.9	
406.79	5673.6	
407	3925.3	
407.2	4009.2	
407.4	6010.1	
407.61	6234	
407.81	3965.6	
408.01	6109.8	
408.22	4934.2	
408.42	7004.1	
408.62	4975.9	
408.83	4418.8	
409.03	5538.4	
409.23	5229.8	
409.44	4499.4	
409.64	4856.4	
409.84	6405.4	
410.05	6318	
410.25	4606.6	
410.45	4429.8	
410.66	5686.5	
410.86	8226.7	
411.06	4857.8	
411.27	4704.9	
411.47	7920.2	
411.67	5882.4	
411.88	4935.6	
412.08	5167.7	
412.28	6487.3	
412.49	7006.1	
412.69	4627.7	
412.89	4644.1	
413.09	6851.1	
413.3	6724.2	
413.5	4734.2	
413.7	4301.4	
413.91	5940.5	
414.11	6817	
414.31	4469.4	
414.52	4945.8	
414.72	6470.2	
414.92	6364.4	
415.12	4562.9	
415.33	5077.6	
415.53	6754.2	
415.73	6882.5	
415.94	5426.4	
416.14	4890.5	
416.34	5670.8	
416.55	5469.4	
416.75	6103.6	
416.95	5450.3	
417.15	6667.5	
417.36	7519.5	
417.56	6291.4	
417.76	5223	
417.97	7098.9	
418.17	6778.1	
418.37	4844.8	
418.57	4914.4	
418.78	6478.4	
418.98	6120.7	
419.18	5878.4	
419.38	5844.9	
419.59	6254.5	
419.79	5848.3	
419.99	4870.1	
420.2	5255.1	
420.4	6821.8	
420.6	6916.7	
420.8	4693.9	
421.01	4543.1	
421.21	6522.1	
421.41	6721.4	
421.61	5158.2	
421.82	4838.7	
422.02	6062	
422.22	7176.8	
422.42	5705.6	
422.63	5354.1	
422.83	6246.3	
423.03	7406.1	
423.23	5276.9	
423.44	4230.4	
423.64	6264.1	
423.84	6070.2	
424.04	4771.1	
424.25	4378.6	
424.45	7283.9	
424.65	7260.7	
424.85	4194.2	
425.06	4810.7	
425.26	7135.1	
425.46	6162.3	
425.66	5276.3	
425.87	4915.1	
426.07	7017	
426.27	6846.4	
426.47	5091.3	
426.67	4500.8	
426.88	7419.8	
427.08	6816.3	
427.28	5345.2	
427.48	4397.7	
427.69	5611.4	
427.89	6370.5	
428.09	5332.2	
428.29	4492.6	
428.5	7049.1	
428.7	6548	
428.9	4346.5	
429.1	4928.1	
429.3	6436.1	
429.51	6907.1	
429.71	4648.9	
429.91	5455.1	
430.11	6662	
430.31	6892.8	
430.52	4943.1	
430.72	5200.5	
430.92	7318.8	
431.12	6759.7	
431.32	4599.7	
431.53	5081.7	
431.73	5601.2	
431.93	7361.8	
432.13	4516.5	
432.33	4356	
432.54	6169.2	
432.74	6451.8	
432.94	4284.4	
433.14	5421	
433.34	6617.7	
433.55	6093.4	
433.75	5258.5	
433.95	7105.8	
434.15	6410.8	
434.35	6096.1	
434.56	4515.1	
434.76	3953.9	
434.96	6417.7	
435.16	6632.7	
435.36	4383.3	
435.56	5520	
435.77	5935	
435.97	6164.4	
436.17	6202.6	
436.37	5430.5	
436.57	5968.5	
436.78	5865.4	
436.98	5510.4	
437.18	6006	
437.38	6653.2	
437.58	6156.2	
437.78	6289.3	
437.99	4792.2	
438.19	6739.9	
438.39	7618.4	
438.59	4758.8	
438.79	4258.4	
438.99	7454.6	
439.2	6204	
439.4	4375.8	
439.6	4300.7	
439.8	6419.7	
440	7574.1	
440.2	5250.3	
440.4	5429.8	
440.61	6847	
440.81	7357.7	
441.01	4437.9	
441.21	5390.3	
441.41	7207.5	
441.61	6853.2	
441.81	5730.9	
442.02	6788.3	
442.22	7821.2	
442.42	6952.2	
442.62	4657.1	
442.82	4635.2	
443.02	7225.9	
443.22	6380.8	
443.43	4983.4	
443.63	4547.9	
443.83	6144.6	
444.03	6212.2	
444.23	5852.4	
444.43	5411.4	
444.63	6429.9	
444.83	7760.4	
445.04	4681.7	
445.24	5967.1	
445.44	6901.7	
445.64	7053.2	
445.84	5601.9	
446.04	5569.8	
446.24	6227.2	
446.44	7324.9	
446.65	4678.9	
446.85	5102.2	
447.05	6636.8	
447.25	7157	
447.45	5152.7	
447.65	4513	
447.85	6595.1	
448.05	6191	
448.25	5544.5	
448.46	5340.4	
448.66	6506.4	
448.86	6311.8	
449.06	4341	
449.26	5584.8	
449.46	6898.9	
449.66	5978	
449.86	5010	
450.06	5003.2	
450.26	6130.3	
450.47	6768.5	
450.67	5345.2	
450.87	5722.7	
451.07	6847.7	
451.27	6561	
451.47	4655	
451.67	5163.6	
451.87	6118	
452.07	7391.1	
452.27	4763.6	
452.47	4849.6	
452.67	6570.6	
452.88	7223.9	
453.08	4171	
453.28	6262	
453.48	7823.2	
453.68	6511.9	
453.88	4698	
454.08	4959.5	
454.28	6883.9	
454.48	6464.1	
454.68	5498.1	
454.88	6066.1	
455.08	7023.2	
455.28	6659.3	
455.48	4567	
455.68	5152.7	
455.89	7381.6	
456.09	7062.8	
456.29	4928.1	
456.49	4901.5	
456.69	7264.8	
456.89	6537.1	
457.09	5443.5	
457.29	5803.3	
457.49	6831.3	
457.69	6929	
457.89	5212.1	
458.09	4657.1	
458.29	6551.5	
458.49	7320.8	
458.69	5604.6	
458.89	5003.2	
459.09	7499	
459.29	7752.2	
459.49	5104.9	
459.69	5951.4	
459.9	7160.4	
460.1	6528.9	
460.3	5011.4	
460.5	4793.6	
460.7	7075	
460.9	6753.5	
461.1	4476.9	
461.3	5790.3	
461.5	7621.2	
461.7	7221.8	
461.9	4827.1	
462.1	5424.4	
462.3	6690.7	
462.5	7324.2	
462.7	4875.5	
462.9	4988.9	
463.1	8356.4	
463.3	7907.2	
463.5	5143.8	
463.7	6115.2	
463.9	6850.5	
464.1	7212.9	
464.3	5258.5	
464.5	5565	
464.7	7517.4	
464.9	7111.2	
465.1	6932.4	
465.3	5827.8	
465.5	7804.8	
465.7	7760.4	
465.9	6093.4	
466.1	5995.1	
466.3	7594.6	
466.5	7449.1	
466.7	6763.8	
466.9	5724.1	
467.1	7271	
467.3	8350.3	
467.5	6697.5	
467.7	5560.2	
467.9	8555	
468.1	9387.9	
468.3	6341.2	
468.5	6776.7	
468.7	7236.2	
468.9	7247.1	
469.1	5838.1	
469.3	6565.1	
469.5	9321.7	
469.7	6831.3	
469.9	6381.5	
470.1	5632.6	
470.3	7305.8	
470.5	7350.8	
470.7	6869.6	
470.9	5741.8	
471.1	7043.6	
471.3	7641	
471.5	5599.8	
471.69	7436.9	
471.89	7023.9	
472.09	6466.1	
472.29	6333.7	
472.49	6790.4	
472.69	6705	
472.89	7680.6	
473.09	5459.9	
473.29	5606.7	
473.49	6860.7	
473.69	7184.3	
473.89	6619	
474.09	5769.8	
474.29	8375.5	
474.49	8146.8	
474.69	6548	
474.89	5955.5	
475.09	7120.8	
475.29	7159.7	
475.49	5316.5	
475.69	5649.7	
475.88	8819.9	
476.08	7430.7	
476.28	5251.7	
476.48	5743.2	
476.68	7965.9	
476.88	7799.3	
477.08	5560.2	
477.28	6016.9	
477.48	7189.7	
477.68	7894.2	
477.88	5319.9	
478.08	5692.7	
478.28	8171.4	
478.48	7299.6	
478.67	5811.5	
478.87	5266	
479.07	8030.8	
479.27	7438.2	
479.47	6029.2	
479.67	6042.9	
479.87	7890.1	
480.07	8377.6	
480.27	5253	
480.47	6910.5	
480.67	7455.3	
480.87	8102.4	
481.06	5500.8	
481.26	6359.6	
481.46	7431.4	
481.66	7338.6	
481.86	5993	
482.06	7077.1	
482.26	7121.5	
482.46	8110.6	
482.66	5922	
482.86	5513.1	
483.05	7427.3	
483.25	6808.8	
483.45	8236.2	
483.65	5915.2	
483.85	6974.7	
484.05	7324.9	
484.25	6376	
484.45	6786.3	
484.65	8247.2	
484.84	8166.6	
485.04	5805.3	
485.24	5784.1	
485.44	8469	
485.64	6839.5	
485.84	5058.5	
486.04	6482.5	
486.24	7061.4	
486.44	7531.7	
486.63	4982.7	
486.83	5707.7	
487.03	6935.8	
487.23	7121.5	
487.43	5057.8	
487.63	7504.4	
487.83	7239.6	
488.02	8277.9	
488.22	6124.1	
488.42	6724.8	
488.62	8144.1	
488.82	6993.8	
489.02	5779.4	
489.22	5716.6	
489.41	8013.7	
489.61	7618.4	
489.81	5536.3	
490.01	5487.9	
490.21	7792.5	
490.41	8561.9	
490.61	5403.2	
490.8	5583.4	
491	7391.8	
491.2	6701	
491.4	6268.1	
491.6	5352	
491.8	7486	
491.99	7643	
492.19	5227.1	
492.39	5578.7	
492.59	7917.4	
492.79	7952.9	
492.99	6406.7	
493.18	5346.6	
493.38	7944.1	
493.58	8646.5	
493.78	6154.1	
493.98	5656.5	
494.18	7620.5	
494.37	7014.3	
494.57	6402	
494.77	6265.4	
494.97	7825.3	
495.17	7975.5	
495.37	5801.9	
495.56	6050.4	
495.76	8279.3	
495.96	7871.7	
496.16	6974.7	
496.36	5869.5	
496.55	8105.2	
496.75	7530.4	
496.95	6326.9	
497.15	6148.7	
497.35	8114.1	
497.54	8023.9	
497.74	6024.4	
497.94	7677.8	
498.14	8704.5	
498.34	8490.9	
498.53	5616.9	
498.73	6399.2	
498.93	7378.8	
499.13	7957.7	
499.33	6214.9	
499.52	6822.5	
499.72	7877.9	
499.92	8196.7	
500.12	5807.4	
500.32	6111.1	
500.51	8200.1	
500.71	8007.6	
500.91	6935.1	
501.11	6561	
501.31	8148.2	
501.5	8585.1	
501.7	7266.2	
501.9	6109.1	
502.1	7978.9	
502.29	8155.7	
502.49	6669.6	
502.69	7125.6	
502.89	8251.3	
503.09	8114.1	
503.28	5668.1	
503.48	5793.7	
503.68	7337.9	
503.88	7422.5	
504.07	6779.5	
504.27	6358.9	
504.47	7728.4	
504.67	7993.9	
504.86	6731.7	
505.06	6496.8	
505.26	7524.2	
505.46	9430.9	
505.65	6300.9	
505.85	6594.5	
506.05	7483.3	
506.25	7983	
506.44	5683.8	
506.64	6705.7	
506.84	7377.5	
507.04	8285.4	
507.23	5859.2	
507.43	6490	
507.63	9437	
507.83	7619.8	
508.02	6511.9	
508.22	6068.1	
508.42	9654.8	
508.62	7419.8	
508.81	6349.4	
509.01	6886	
509.21	7288.7	
509.4	7548.8	
509.6	6582.2	
509.8	5848.3	
510	7491.5	
510.19	8974.9	
510.39	5868.8	
510.59	5884.5	
510.79	7309.9	
510.98	8781	
511.18	5991	
511.38	6163	
511.57	8100.4	
511.77	8075.8	
511.97	6786.3	
512.17	5775.3	
512.36	8157.7	
512.56	8084.7	
512.76	5887.9	
512.95	5586.2	
513.15	8329.8	
513.35	6857.3	
513.55	6692.8	
513.74	5843.5	
513.94	8127	
514.14	7474.4	
514.33	6799.9	
514.53	6645.7	
514.73	7509.2	
514.92	7763.8	
515.12	6025.1	
515.32	5843.5	
515.51	7803.4	
515.71	8387.8	
515.91	7576.1	
516.11	5868.8	
516.3	9562.6	
516.5	7347.4	
516.7	6450.4	
516.89	7182.2	
517.09	7564.5	
517.29	7373.4	
517.48	6872.3	
517.68	6157.6	
517.88	7257.3	
518.07	7671	
518.27	6674.3	
518.47	5636.7	
518.66	8499.1	
518.86	6937.8	
519.06	5503.6	
519.25	5991.7	
519.45	7323.5	
519.65	8781	
519.84	6675	
520.04	7321.5	
520.24	9347.6	
520.43	8083.3	
520.63	6339.8	
520.83	6158.2	
521.02	7324.9	
521.22	7960.5	
521.42	6685.3	
521.61	7250.5	
521.81	7491.5	
522.01	7743.4	
522.2	6414.2	
522.4	6245.6	
522.6	8094.9	
522.79	6869.6	
522.99	6311.2	
523.18	5477.6	
523.38	7826.7	
523.58	7775.5	
523.77	7460.1	
523.97	5456.5	
524.17	9680.1	
524.36	8734.6	
524.56	7010.2	
524.76	6520.7	
524.95	7700.4	
525.15	7379.5	
525.34	6232	
525.54	6293.4	
525.74	8070.4	
525.93	7036.8	
526.13	7475.8	
526.33	6272.2	
526.52	8394.6	
526.72	7965.2	
526.91	7475.8	
527.11	6709.1	
527.31	8469.7	
527.5	8824	
527.7	6509.8	
527.89	5584.8	
528.09	7206.8	
528.29	7821.2	
528.48	6973.3	
528.68	6595.8	
528.87	8177.5	
529.07	8361.2	
529.27	6594.5	
529.46	5978.7	
529.66	7955	
529.85	8289.5	
530.05	5910.4	
530.25	6700.3	
530.44	9359.2	
530.64	7890.8	
530.83	6232.7	
531.03	6563.7	
531.23	8210.3	
531.42	8157.7	
531.62	7223.2	
531.81	6389	
532.01	8288.8	
532.21	8805.6	
532.4	6110.5	
532.6	6517.3	
532.79	9174.9	
532.99	8390.5	
533.18	6472.9	
533.38	7535.8	
533.58	7829.4	
533.77	8649.9	
533.97	6380.1	
534.16	7245	
534.36	8764.6	
534.55	7912	
534.75	7425.3	
534.95	6541.9	
535.14	8647.2	
535.34	7909.3	
535.53	6152.8	
535.73	8229.4	
535.92	9308	
536.12	8041.7	
536.31	6328.9	
536.51	7444.4	
536.71	8424	
536.9	7901.1	
537.1	6516	
537.29	6581.5	
537.49	8798.1	
537.68	7811.6	
537.88	7040.9	
538.07	6174.6	
538.27	8021.2	
538.46	9111.4	
538.66	6039.5	
538.86	6441.5	
539.05	8100.4	
539.25	8604.9	
539.44	6801.3	
539.64	6503.7	
539.83	7987.1	
540.03	9059.5	
540.22	6204	
540.42	6434.7	
540.61	8322.9	
540.81	8341.4	
541	6935.8	
541.2	7484	
541.39	7712	
541.59	8181	
541.78	7209.5	
541.98	6264.7	
542.18	7456	
542.37	7412.3	
542.57	6785.6	
542.76	7215.7	
542.96	7552.9	
543.15	8289.5	
543.35	6810.2	
543.54	6081.1	
543.74	8617.2	
543.93	8155	
544.13	6744	
544.32	7876.5	
544.52	8486.1	
544.71	7712	
544.91	5790.3	
545.1	7135.1	
545.3	7658	
545.49	8367.3	
545.69	5810.8	
545.88	6449.1	
546.08	9370.1	
546.27	9010.4	
546.47	7004.1	
546.66	6221.7	
546.86	8645.8	
547.05	9323.7	
547.24	6435.4	
547.44	6185.5	
547.63	7553.6	
547.83	8741.4	
548.02	6683.9	
548.22	6887.3	
548.41	7402.7	
548.61	8813.8	
548.8	6183.5	
549	6157.6	
549.19	8081.3	
549.39	8313.4	
549.58	5905	
549.78	6526.9	
549.97	8471.8	
550.17	8017.1	
550.36	7470.3	
550.55	8480	
550.75	7983	
550.94	8911.4	
551.14	6178	
551.33	6652.5	
551.53	7197.9	
551.72	8301.8	
551.92	6560.3	
552.11	6399.9	
552.31	8302.5	
552.5	8409.6	
552.69	8021.9	
552.89	5998.5	
553.08	8301.1	
553.28	8011.7	
553.47	6444.3	
553.67	7494.9	
553.86	9021.3	
554.06	7270.3	
554.25	5554.1	
554.44	6169.8	
554.64	9744.2	
554.83	9219.3	
555.03	6103.6	
555.22	6483.2	
555.42	8509.3	
555.61	8120.9	
555.8	6397.2	
556	6709.8	
556.19	7248.4	
556.39	8609	
556.58	6451.1	
556.78	6354.8	
556.97	8061.5	
557.16	7808.2	
557.36	7582.9	
557.55	6006	
557.75	7093.5	
557.94	8888.9	
558.13	6108.4	
558.33	5872.9	
558.52	8656.8	
558.72	7543.4	
558.91	6037.4	
559.1	6260.6	
559.3	7298.3	
559.49	6957.6	
559.69	5601.9	
559.88	6637.5	
560.07	8135.2	
560.27	8476.5	
560.46	6805.4	
560.66	6983.6	
560.85	7828	
561.04	7099.6	
561.24	5993	
561.43	6219.7	
561.63	7338.6	
561.82	7645.1	
562.01	7508.5	
562.21	6460.7	
562.4	8125	
562.59	8955.1	
562.79	6225.1	
562.98	5990.3	
563.18	7916.1	
563.37	9389.9	
563.56	6827.9	
563.76	5915.2	
563.95	7313.3	
564.14	7343.3	
564.34	6341.9	
564.53	6040.1	
564.73	7913.4	
564.92	8279.3	
565.11	6498.9	
565.31	5827.2	
565.5	8514.8	
565.69	7422.5	
565.89	6018.3	
566.08	6219.7	
566.27	8409.6	
566.47	8732.5	
566.66	6970.6	
566.85	5574.6	
567.05	7881.9	
567.24	7324.2	
567.44	5965.7	
567.63	7329.7	
567.82	8193.9	
568.02	7981.6	
568.21	5955.5	
568.4	6343.9	
568.6	7750.9	
568.79	7795.9	
568.98	5674.2	
569.18	5917.9	
569.37	7741.3	
569.56	9734	
569.76	6279.8	
569.95	7226.6	
570.14	8203.5	
570.34	8059.4	
570.53	5793	
570.72	5737.7	
570.91	8588.5	
571.11	7617.1	
571.3	6264.1	
571.49	7249.8	
571.69	7712	
571.88	7317.4	
572.07	6790.4	
572.27	6771.9	
572.46	7235.5	
572.65	8336.6	
572.85	5997.8	
573.04	6376	
573.23	8562.6	
573.43	7742.7	
573.62	5751.4	
573.81	6414.2	
574	7780.9	
574.2	7552.2	
574.39	6093.4	
574.58	6305.7	
574.78	8602.2	
574.97	7901.1	
575.16	6669.6	
575.36	6767.2	
575.55	8142	
575.74	8432.9	
575.93	5766.4	
576.13	6786.3	
576.32	7598.6	
576.51	8148.2	
576.71	6193.1	
576.9	8053.3	
577.09	8705.9	
577.28	8113.4	
577.48	6728.3	
577.67	5644.9	
577.86	7701	
578.05	8018.5	
578.25	6307.7	
578.44	6382.8	
578.63	7785	
578.83	8929.8	
579.02	5700.2	
579.21	7284.6	
579.4	8035.5	
579.6	7659.4	
579.79	6412.2	
579.98	8700.5	
580.17	8449.2	
580.37	8371.4	
580.56	5911.1	
580.75	6703.7	
580.94	8852.7	
581.14	8755.7	
581.33	7056.6	
581.52	6038.1	
581.71	8201.4	
581.91	8907.3	
582.1	5745.2	
582.29	6397.9	
582.48	7833.5	
582.68	7723.6	
582.87	6930.3	
583.06	6345.3	
583.25	8228.7	
583.45	7507.2	
583.64	7068.2	
583.83	7771.4	
584.02	7688.8	
584.21	8101.1	
584.41	7030.7	
584.6	6357.6	
584.79	7861.5	
584.98	8609	
585.18	5881.8	
585.37	5802.6	
585.56	7416.4	
585.75	8183.7	
585.94	6105	
586.14	6781.5	
586.33	8870.4	
586.52	7901.1	
586.71	6596.5	
586.91	6421.7	
587.1	7288.7	
587.29	8333.9	
587.48	6253.8	
587.67	6159.6	
587.87	8234.2	
588.06	8282.7	
588.25	7534.5	
588.44	6817.7	
588.63	7845.8	
588.83	8398	
589.02	6251.1	
589.21	6133	
589.4	7632.1	
589.59	7508.5	
589.78	5485.8	
589.98	5749.3	
590.17	7278.5	
590.36	7821.2	
590.55	5152.7	
590.74	6105.7	
590.94	9214.5	
591.13	7778.2	
591.32	5756.2	
591.51	5366.4	
591.7	8243.8	
591.89	7619.8	
592.09	5389.6	
592.28	5935.7	
592.47	6814.3	
592.66	8766.7	
592.85	5432.6	
593.05	5716.6	
593.24	7486	
593.43	8234.2	
593.62	5612.1	
593.81	6249.7	
594	7483.3	
594.19	7666.2	
594.39	5669.5	
594.58	5587.5	
594.77	7838.3	
594.96	8420.6	
595.15	5539.1	
595.34	6258.6	
595.54	7866.9	
595.73	6898.9	
595.92	4946.5	
596.11	6080.4	
596.3	8338	
596.49	7048.4	
596.68	5857.9	
596.88	6310.5	
597.07	8103.1	
597.26	6838.9	
597.45	5369.8	
597.64	6638.1	
597.83	7079.1	
598.02	7774.8	
598.22	5530.2	
598.41	6283.9	
598.6	7576.1	
598.79	7040.9	
598.98	5584.1	
599.17	6507.8	
599.36	7576.8	
599.55	8843.8	
599.74	7675.1	
599.94	7371.3	
600.13	8198	
600.32	7006.8	
600.51	5265.3	
600.7	5464.7	
600.89	8865	
601.08	8843.8	
601.27	5305.6	
601.47	6296.1	
601.66	8125	
601.85	8732.5	
602.04	5903.6	
602.23	6049	
602.42	7126.2	
602.61	7783.6	
602.8	5800.5	
602.99	5644.9	
603.18	7449.8	
603.37	7774.8	
603.57	6326.9	
603.76	6807.4	
603.95	8445.1	
604.14	8062.9	
604.33	5623	
604.52	6008.1	
604.71	7691.5	
604.9	7363.1	
605.09	6704.4	
605.28	6583.5	
605.47	8279.3	
605.66	8054	
605.86	6322.8	
606.05	5739.8	
606.24	8376.2	
606.43	6780.8	
606.62	6025.1	
606.81	6804	
607	8204.2	
607.19	7411.6	
607.38	5442.8	
607.57	5766.4	
607.76	7279.8	
607.95	6750.1	
608.14	6151.4	
608.33	6737.8	
608.52	7305.1	
608.72	8143.4	
608.91	5370.5	
609.1	5253.7	
609.29	7397.3	
609.48	6870.9	
609.67	6369.9	
609.86	5379.3	
610.05	6933.7	
610.24	7272.3	
610.43	5231.9	
610.62	4969.7	
610.81	8508.6	
611	8192.6	
611.19	5371.1	
611.38	6073.6	
611.57	7657.4	
611.76	8969.4	
611.95	5220.3	
612.14	5014.8	
612.33	7409.6	
612.52	6985.6	
612.71	5843.5	
612.9	4997	
613.09	6541.2	
613.28	8899.8	
613.47	5461.2	
613.66	6392.4	
613.85	7532.4	
614.04	7038.9	
614.24	5575.3	
614.43	4714.4	
614.62	7591.1	
614.81	7675.8	
615	6132.3	
615.19	6136.4	
615.38	6989.7	
615.57	7309.9	
615.76	5963	
615.95	6911.9	
616.14	7714	
616.33	7367.2	
616.52	6391	
616.71	6617	
616.9	7665.5	
617.09	7481.9	
617.28	5626.5	
617.47	6886	
617.66	6722.1	
617.85	6767.2	
618.04	6554.9	
618.22	5930.2	
618.41	7094.2	
618.6	7916.8	
618.79	5791.7	
618.98	5524.1	
619.17	8231.5	
619.36	6591.7	
619.55	5705.6	
619.74	5752.7	
619.93	7580.9	
620.12	6940.6	
620.31	6196.5	
620.5	6449.7	
620.69	8117.5	
620.88	8529.1	
621.07	7193.8	
621.26	6141.2	
621.45	7689.4	
621.64	7712	
621.83	6277.7	
622.02	5467.4	
622.21	7715.4	
622.4	7486	
622.59	6883.2	
622.78	6582.9	
622.97	7051.2	
623.16	8054	
623.35	6201.9	
623.54	5423.7	
623.72	7370	
623.91	7453.9	
624.1	6488	
624.29	5153.4	
624.48	8484.1	
624.67	7818.5	
624.86	6389	
625.05	5348.6	
625.24	8711.4	
625.43	6970.6	
625.62	8103.8	
625.81	5558.9	
626	8035.5	
626.19	7253.2	
626.38	6426.5	
626.56	5815.5	
626.75	7138.5	
626.94	7825.3	
627.13	6343.2	
627.32	5142.4	
627.51	7761.8	
627.7	9103.9	
627.89	5271.5	
628.08	6461.3	
628.27	6952.2	
628.46	7166.5	
628.65	5486.5	
628.83	5156.1	
629.02	7778.9	
629.21	7049.8	
629.4	5952.8	
629.59	6229.9	
629.78	7001.3	
629.97	7948.2	
630.16	6252.4	
630.35	5611.4	
630.54	8379.6	
630.72	8069	
630.91	5649	
631.1	6287.3	
631.29	7559.7	
631.48	7684	
631.67	6292	
631.86	5857.2	
632.05	7125.6	
632.24	7208.2	
632.42	5455.8	
632.61	6100.2	
632.8	7279.8	
632.99	6948.1	
633.18	6049.7	
633.37	6501.6	
633.56	7567.9	
633.75	7426.6	
633.93	5965.7	
634.12	5701.5	
634.31	8353.7	
634.5	7997.3	
634.69	5768.4	
634.88	6274.3	
635.07	7372.7	
635.25	7942.7	
635.44	6739.9	
635.63	6926.2	
635.82	7178.8	
636.01	6721.4	
636.2	6720.1	
636.39	6165.1	
636.57	8347.5	
636.76	8053.3	
636.95	5565.7	
637.14	7013.6	
637.33	7649.2	
637.52	8672.5	
637.7	5351.3	
637.89	6367.8	
638.08	7254.6	
638.27	8779	
638.46	6434	
638.65	6926.2	
638.83	8786.5	
639.02	7098.9	
639.21	6385.6	
639.4	6885.3	
639.59	7587	
639.78	7189.1	
639.96	5721.3	
640.15	5595.7	
640.34	7486.7	
640.53	7560.4	
640.72	5388.9	
640.91	5748.6	
641.09	6875.7	
641.28	8295.6	
641.47	5758.9	
641.66	6663.4	
641.85	7537.2	
642.03	7877.9	
642.22	6322.8	
642.41	5837.4	
642.6	7034.8	
642.79	6414.9	
642.97	5598.5	
643.16	6425.8	
643.35	7084.6	
643.54	6819.7	
643.73	5509	
643.91	6376	
644.1	6694.1	
644.29	7315.3	
644.48	5691.3	
644.67	5762.3	
644.85	6919.4	
645.04	7209.5	
645.23	5264.6	
645.42	5512.4	
645.6	6767.9	
645.79	8026.7	
645.98	5543.9	
646.17	4667.3	
646.36	6580.8	
646.54	7266.2	
646.73	6460.7	
646.92	5194.3	
647.11	6770.6	
647.29	7938.6	
647.48	5277.6	
647.67	5134.3	
647.86	8112.7	
648.05	8107.2	
648.23	5702.9	
648.42	7011.6	
648.61	7539.3	
648.8	7223.9	
648.98	5298.1	
649.17	5649	
649.36	6829.3	
649.55	6261.3	
649.73	5365.7	
649.92	6161.7	
650.11	6735.8	
650.3	7062.8	
650.48	5502.2	
650.67	5206.6	
650.86	7391.1	
651.05	6242.2	
651.23	5412.8	
651.42	5422.3	
651.61	6817	
651.79	6985.6	
651.98	5595.1	
652.17	5292	
652.36	7312.6	
652.54	6309.8	
652.73	5235.3	
652.92	5078.3	
653.11	7292.8	
653.29	7451.2	
653.48	4599.1	
653.67	5576.6	
653.85	7113.3	
654.04	8153	
654.23	5872.9	
654.42	5382.1	
654.6	6634.1	
654.79	7366.5	
654.98	4895.3	
655.16	5446.2	
655.35	6322.1	
655.54	6251.1	
655.73	4930.8	
655.91	4916.5	
656.1	7438.2	
656.29	6234.7	
656.47	4442.7	
656.66	6222.4	
656.85	6556.9	
657.03	6502.3	
657.22	5037.3	
657.41	5072.8	
657.59	6576	
657.78	6365.1	
657.97	4697.4	
658.16	5496.7	
658.34	7193.1	
658.53	7589.1	
658.72	6420.4	
658.9	6887.3	
659.09	6619	
659.28	6707.8	
659.46	5197.7	
659.65	5152.7	
659.84	6468.9	
660.02	7000.6	
660.21	5109.7	
660.4	4972.5	
660.58	7409.6	
660.77	6752.2	
660.96	5611.4	
661.14	4628.4	
661.33	7962.5	
661.52	7867.6	
661.7	4589.5	
661.89	8374.1	
662.08	6463.4	
662.26	6001.9	
662.45	4954	
662.64	5018.9	
662.82	7068.2	
663.01	6313.9	
663.2	5075.5	
663.38	5915.2	
663.57	7116	
663.75	6885.3	
663.94	5370.5	
664.13	6625.2	
664.31	6365.8	
664.5	7120.8	
664.69	5874.3	
664.87	6223.8	
665.06	6234	
665.25	6972	
665.43	6472.9	
665.62	6499.6	
665.8	7212.9	
665.99	6537.8	
666.18	5307	
666.36	5525.4	
666.55	7244.3	
666.74	7114	
666.92	5036	
667.11	6731	
667.29	6554.2	
667.48	7171.3	
667.67	6367.8	
667.85	5459.9	
668.04	6658.6	
668.22	6614.9	
668.41	5496.7	
668.6	5659.9	
668.78	6416.3	
668.97	6617	
669.15	5853.1	
669.34	4749.2	
669.53	6382.2	
669.71	6775.4	
669.9	4960.2	
670.08	5649	
670.27	6446.3	
670.46	6984.3	
670.64	5779.4	
670.83	6081.1	
671.01	6324.1	
671.2	6903	
671.38	5057.8	
671.57	4977.2	
671.76	7497.6	
671.94	8117.5	
672.13	4887.8	
672.31	5997.1	
672.5	7208.8	
672.69	6338.5	
672.87	5017.5	
673.06	5366.4	
673.24	6935.1	
673.43	6446.3	
673.61	5803.3	
673.8	5317.2	
673.98	7122.8	
674.17	7314.7	
674.36	5940.5	
674.54	5831.9	
674.73	6879.8	
674.91	7238.2	
675.1	5482.4	
675.28	5134.3	
675.47	6665.5	
675.65	7268.2	
675.84	5314.5	
676.03	5669.5	
676.21	6431.3	
676.4	5894.1	
676.58	6177.4	
676.77	5866.7	
676.95	7955	
677.14	6379.4	
677.32	5047.6	
677.51	4775.2	
677.69	7138.5	
677.88	6032	
678.06	4833.2	
678.25	4973.2	
678.44	6690	
678.62	6362.4	
678.81	4749.9	
678.99	5704.3	
679.18	7505.8	
679.36	7077.1	
679.55	5299.5	
679.73	5998.5	
679.92	7069.6	
680.1	6432	
680.29	6589.7	
680.47	5369.8	
680.66	6333.7	
680.84	7223.2	
681.03	4618.2	
681.21	5684.5	
681.4	6379.4	
681.58	6308.4	
681.77	5012.7	
681.95	4963.6	
682.14	7269.6	
682.32	7628	
682.51	5948.7	
682.69	4790.9	
682.88	6378.7	
683.06	7040.9	
683.25	5688.6	
683.43	6190.3	
683.62	6614.9	
683.8	7025.2	
683.99	6216.3	
684.17	5507.7	
684.36	7891.5	
684.54	6550.8	
684.73	4682.3	
684.91	4915.8	
685.1	6904.4	
685.28	6308.4	
685.46	5575.3	
685.65	5631.9	
685.83	7163.1	
686.02	6539.8	
686.2	5063.3	
686.39	5203.9	
686.57	6272.2	
686.76	7823.2	
686.94	5040.7	
687.13	5134.9	
687.31	7022.5	
687.5	6535.1	
687.68	4584	
687.86	5866.7	
688.05	8091.5	
688.23	6006.7	
688.42	5879.7	
688.6	5070.8	
688.79	6365.8	
688.97	6344.6	
689.16	5530.9	
689.34	4347.8	
689.52	7134.4	
689.71	7327.6	
689.89	5674.9	
690.08	4957.4	
690.26	6604	
690.45	6471.6	
690.63	5894.1	
690.81	5139.7	
691	6397.9	
691.18	6257.2	
691.37	5326.8	
691.55	7488.1	
691.74	6305	
691.92	8361.9	
692.1	5363.6	
692.29	4670.1	
692.47	6522.8	
692.66	5762.3	
692.84	4983.4	
693.02	5622.4	
693.21	5918.6	
693.39	6439.5	
693.58	5584.1	
693.76	5016.8	
693.94	7688.8	
694.13	7343.3	
694.31	5029.1	
694.5	6072.2	
694.68	6195.8	
694.86	6550.1	
695.05	5367	
695.23	5756.2	
695.42	7044.3	
695.6	9268.4	
695.78	5976	
695.97	5042.8	
696.15	6941.2	
696.34	6320	
696.52	4782	
696.7	5637.4	
696.89	6736.5	
697.07	6148	
697.25	5595.7	
697.44	7187	
697.62	6682.5	
697.81	7059.3	
697.99	5234.6	
698.17	5784.8	
698.36	5937.1	
698.54	6730.3	
698.72	5564.3	
698.91	4564.9	
699.09	6248.4	
699.28	6160.3	
699.46	5241.4	
699.64	5076.9	
699.83	6083.8	
700.01	7402	
700.19	5974.6	
700.38	4341	
700.56	7380.9	
700.74	6187.6	
700.93	4728.1	
701.11	5618.9	
701.29	6724.8	
701.48	7829.4	
701.66	4922.6	
701.84	5004.6	
702.03	6255.2	
702.21	6956.3	
702.39	4545.1	
702.58	5123.3	
702.76	6720.8	
702.94	6816.3	
703.13	4499.4	
703.31	7035.5	
703.49	5995.1	
703.68	6965.1	
703.86	4692.6	
704.04	5803.3	
704.23	6541.2	
704.41	6934.4	
704.59	4838	
704.78	6135	
704.96	7636.9	
705.14	7058	
705.33	4659.8	
705.51	5542.5	
705.69	6378.7	
705.87	7215	
706.06	5795.8	
706.24	4572.4	
706.42	6657.3	
706.61	6941.2	
706.79	5819.6	
706.97	4635.9	
707.16	6071.5	
707.34	6729.6	
707.52	5800.5	
707.7	4949.3	
707.89	6303.6	
708.07	5982.1	
708.25	5788.9	
708.44	5852.4	
708.62	6206	
708.8	7451.9	
708.98	6089.3	
709.17	5016.8	
709.35	6683.9	
709.53	6617	
709.72	4685.1	
709.9	4893.3	
710.08	6882.5	
710.26	6946.7	
710.45	6339.1	
710.63	5134.3	
710.81	6568.5	
710.99	6523.5	
711.18	5619.6	
711.36	5139	
711.54	6391	
711.72	7135.1	
711.91	5216.9	
712.09	4633.2	
712.27	6475.7	
712.45	7191.1	
712.64	5535.7	
712.82	4478.2	
713	6047.7	
713.18	6193.7	
713.37	4560.8	
713.55	5889.3	
713.73	7065.5	
713.91	5632.6	
714.1	5059.8	
714.28	4465.9	
714.46	6705	
714.64	6001.2	
714.83	3995.6	
715.01	4876.9	
715.19	6126.2	
715.37	5491.3	
715.55	4579.3	
715.74	4885.1	
715.92	7041.6	
716.1	5036	
716.28	6063.4	
716.47	5019.6	
716.65	5748.6	
716.83	5820.3	
717.01	4902.2	
717.19	4960.2	
717.38	8043.1	
717.56	5516.5	
717.74	5240.1	
717.92	4286.4	
718.1	6771.3	
718.29	5986.2	
718.47	3966.9	
718.65	4605.9	
718.83	6606.7	
719.01	6531.7	
719.2	3702	
719.38	4855.7	
719.56	6180.1	
719.74	7841.7	
719.92	4379.2	
720.11	5504.9	
720.29	6251.1	
720.47	5356.1	
720.65	3967.6	
720.83	4911.7	
721.02	5812.8	
721.2	5535.7	
721.38	4988.9	
721.56	4293.9	
721.74	5057.8	
721.92	5287.2	
722.11	5523.4	
722.29	5221.6	
722.47	6576	
722.65	5741.8	
722.83	4225.6	
723.01	5200.5	
723.2	5780.1	
723.38	6068.1	
723.56	3694.5	
723.74	4876.9	
723.92	5247.6	
724.1	6497.5	
724.29	4164.9	
724.47	5442.1	
724.65	5334.3	
724.83	5287.9	
725.01	4068.6	
725.19	4970.4	
725.37	5307.7	
725.56	5430.5	
725.74	3943	
725.92	4173.1	
726.1	5300.1	
726.28	5569.1	
726.46	4666.6	
726.64	4322.6	
726.83	5586.2	
727.01	5796.4	
727.19	3925.3	
727.37	4792.2	
727.55	5688.6	
727.73	6215.6	
727.91	3854.3	
728.09	3719.8	
728.28	6280.4	
728.46	6918.7	
728.64	4870.8	
728.82	4879.6	
729	7393.2	
729.18	6608.8	
729.36	4049.5	
729.54	6479.8	
729.72	7548.8	
729.91	5854.5	
730.09	5998.5	
730.27	4747.9	
730.45	5745.9	
730.63	6393.1	
730.81	5289.9	
730.99	4364.9	
731.17	6901.7	
731.35	5419.6	
731.53	4894.6	
731.71	4491.9	
731.9	6617.7	
732.08	6851.1	
732.26	4747.2	
732.44	4369.7	
732.62	6834.1	
732.8	6352.8	
732.98	5211.4	
733.16	4183.3	
733.34	6320	
733.52	5112.4	
733.7	4791.6	
733.88	5074.9	
734.07	6229.2	
734.25	5979.4	
734.43	4190.8	
734.61	5842.2	
734.79	7483.3	
734.97	5824.4	
735.15	4385.4	
735.33	4717.2	
735.51	6193.1	
735.69	5849.7	
735.87	5930.2	
736.05	4929.5	
736.23	6029.2	
736.41	5731.6	
736.59	4722.6	
736.77	4855.1	
736.95	6473.6	
737.13	5952.8	
737.32	4353.3	
737.5	4616.8	
737.68	6990.4	
737.86	5854.5	
738.04	4154	
738.22	6143.2	
738.4	5674.2	
738.58	5991.7	
738.76	4911	
738.94	3758.7	
739.12	5758.2	
739.3	5615.5	
739.48	5466	
739.66	5238	
739.84	6047.7	
740.02	5999.9	
740.2	3888.4	
740.38	4298.7	
740.56	6457.2	
740.74	5280.3	
740.92	5027.1	
741.1	4925.4	
741.28	5839.4	
741.46	5672.2	
741.64	4489.8	
741.82	5056.4	
742	5941.2	
742.18	5881.1	
742.36	4652.3	
742.54	4276.8	
742.72	6446.3	
742.9	5163.6	
743.08	5173.2	
743.26	3955.3	
743.44	6698.2	
743.62	6570.6	
743.8	5287.9	
743.98	4332.8	
744.16	6279.1	
744.34	5943.9	
744.52	5255.1	
744.7	5192.3	
744.88	6407.4	
745.06	5935	
745.24	5261.9	
745.42	5453.7	
745.6	6477	
745.78	6341.9	
745.96	4056.3	
746.14	4422.2	
746.32	7305.8	
746.5	6565.8	
746.68	5079	
746.86	4501.4	
747.03	7036.8	
747.21	5257.8	
747.39	4971.8	
747.57	4478.2	
747.75	6135	
747.93	6573.3	
748.11	4556	
748.29	4388.1	
748.47	7775.5	
748.65	5937.1	
748.83	5233.2	
749.01	4949.3	
749.19	6398.5	
749.37	5551.4	
749.55	4810.7	
749.73	4831.2	
749.91	6052.4	
750.09	5725.4	
750.26	4901.5	
750.44	4263.2	
750.62	6126.2	
750.8	6092.7	
750.98	4188.1	
751.16	4532.8	
751.34	6115.2	
751.52	5433.3	
751.7	5354.8	
751.88	4148.5	
752.06	6550.8	
752.24	6495.5	
752.42	4112.3	
752.59	4471.4	
752.77	5992.4	
752.95	7333.8	
753.13	5210.7	
753.31	4639.3	
753.49	5693.4	
753.67	6219.7	
753.85	4882.4	
754.03	4496	
754.21	6468.9	
754.38	6870.9	
754.56	4747.9	
754.74	3720.5	
754.92	5778.7	
755.1	6438.8	
755.28	3810.6	
755.46	3817.4	
755.64	7206.1	
755.82	7404.1	
755.99	4173.8	
756.17	4256.4	
756.35	4833.9	
756.53	6503.7	
756.71	3148.4	
756.89	4122.6	
757.07	6081.8	
757.25	5094	
757.42	4702.8	
757.6	5590.3	
757.78	6134.3	
757.96	5126.7	
758.14	4447.5	
758.32	3826.3	
758.5	4569	
758.67	5546.6	
758.85	4137.6	
759.03	4270.7	
759.21	5637.4	
759.39	5047.6	
759.57	3683.6	
759.75	4969.7	
759.92	6286.6	
760.1	5547.9	
760.28	5317.9	
760.46	5550	
760.64	5289.9	
760.82	5046.2	
760.99	5113.1	
761.17	4312.3	
761.35	6164.4	
761.53	5097.4	
761.71	4370.4	
761.89	5156.8	
762.06	6014.2	
762.24	5552.7	
762.42	4461.2	
762.6	4197	
762.78	5476.3	
762.96	6225.8	
763.13	4866.7	
763.31	4562.2	
763.49	6424.5	
763.67	5510.4	
763.85	5365	
764.02	5968.5	
764.2	6709.8	
764.38	5753.4	
764.56	4373.1	
764.74	5344.5	
764.91	6771.9	
765.09	5663.3	
765.27	4136.2	
765.45	3900.7	
765.63	6822.5	
765.8	6653.9	
765.98	3550.5	
766.16	3968.3	
766.34	5232.6	
766.52	4996.4	
766.69	4954.7	
766.87	3822.2	
767.05	5651	
767.23	6417	
767.41	4085	
767.58	4448.9	
767.76	6314.6	
767.94	6285.9	
768.12	4268.6	
768.29	5080.3	
768.47	5730.2	
768.65	6480.5	
768.83	3894.6	
769	5042.8	
769.18	5301.5	
769.36	6006	
769.54	5033.2	
769.72	3931.4	
769.89	6293.4	
770.07	6447.7	
770.25	4273.4	
770.43	5529.5	
770.6	7136.5	
770.78	7582.3	
770.96	4480.3	
771.14	4234.5	
771.31	6184.9	
771.49	5552.7	
771.67	3636.5	
771.85	3829.7	
772.02	4825.7	
772.2	5596.4	
772.38	4619.5	
772.55	4175.8	
772.73	5825.1	
772.91	5618.3	
773.09	4468.7	
773.26	4612	
773.44	5874.9	
773.62	5507	
773.8	3986	
773.97	3701.4	
774.15	5914.5	
774.33	5469.4	
774.5	3913.7	
774.68	4275.5	
774.86	6122.1	
775.04	5546.6	
775.21	3979.9	
775.39	3998.3	
775.57	5764.3	
775.74	6247.7	
775.92	3814.7	
776.1	3766.2	
776.27	5757.5	
776.45	7091.4	
776.63	3939.6	
776.81	3487	
776.98	5394.3	
777.16	6539.8	
777.34	4123.2	
777.51	4089.1	
777.69	5382.1	
777.87	5165.7	
778.04	4156	
778.22	4881.7	
778.4	5205.3	
778.57	5911.1	
778.75	3439.9	
778.93	3813.3	
779.1	4970.4	
779.28	4896.7	
779.46	3502.7	
779.64	4003.8	
779.81	6075.6	
779.99	6979.5	
780.17	4831.8	
780.34	4972.5	
780.52	5462.6	
780.69	5708.4	
780.87	4366.3	
781.05	3819.5	
781.22	5552	
781.4	5643.5	
781.58	4066.6	
781.75	3080.1	
781.93	5639.4	
782.11	5038	
782.28	4969.7	
782.46	3990.1	
782.64	4823	
782.81	5848.3	
782.99	4123.9	
783.17	4063.2	
783.34	5646.9	
783.52	4892.6	
783.69	4299.4	
783.87	5106.3	
784.05	4995	
784.22	5028.4	
784.4	5109	
784.58	4418.2	
784.75	5943.9	
784.93	5005.2	
785.1	4018.1	
785.28	4719.9	
785.46	5611.4	
785.63	4986.8	
785.81	3998.3	
785.99	3872	
786.16	5132.2	
786.34	5634	
786.51	3932.8	
786.69	4329.4	
786.87	4773.1	
787.04	5311.1	
787.22	3732.1	
787.39	4760.8	
787.57	4971.8	
787.75	6156.9	
787.92	4887.1	
788.1	4900.8	
788.27	5087.2	
788.45	4764.3	
788.63	4552	
788.8	3248.1	
788.98	5530.2	
789.15	4759.5	
789.33	3390.1	
789.5	4053.6	
789.68	5948	
789.86	6107.7	
790.03	4511	
790.21	3914.4	
790.38	5980.1	
790.56	5130.8	
790.73	3807.9	
790.91	3838.6	
791.09	5044.1	
791.26	5829.9	
791.44	4022.9	
791.61	3472.7	
791.79	4945.8	
791.96	5107.6	
792.14	3609.9	
792.32	3170.3	
792.49	5070.8	
792.67	5147.2	
792.84	3644.7	
793.02	3463.8	
793.19	5479.7	
793.37	6249.7	
793.54	3164.8	
793.72	3507.5	
793.89	6386.2	
794.07	5071.5	
794.25	4175.8	
794.42	3271.3	
794.6	6104.3	
794.77	5745.9	
794.95	4444.1	
795.12	3855.6	
795.3	5011.4	
795.47	5685.2	
795.65	4246.1	
795.82	4099.4	
796	4833.2	
796.17	6868.2	
796.35	3975.1	
796.52	4665.3	
796.7	5612.1	
796.87	5702.9	
797.05	4911	
797.22	4779.3	
797.4	5676.3	
797.57	6656.6	
797.75	4127.3	
797.92	3860.4	
798.1	6036.7	
798.27	5086.5	
798.45	3302.7	
798.62	3512.9	
798.8	5369.1	
798.97	5857.9	
799.15	4312.3	
799.32	4113.7	
799.5	4588.8	
799.67	5402.5	
799.85	4508.3	
800.02	3238.5	
800.2	4982.7	
800.37	5326.1	
800.55	4629.8	
800.72	3810.6	
800.9	5762.3	
801.07	6288.6	
801.25	5221	
801.42	4294.6	
801.6	5862	
801.77	5653.1	
801.95	3944.4	
802.12	3754.6	
802.29	5551.4	
802.47	5586.9	
802.64	4233.8	
802.82	3160.7	
802.99	5016.2	
803.17	6024.4	
803.34	4124.6	
803.52	3685	
803.69	6754.9	
803.87	4739.7	
804.04	4085.7	
804.21	4186.7	
804.39	6231.3	
804.56	5214.1	
804.74	3467.2	
804.91	4331.5	
805.09	4986.1	
805.26	5165.7	
805.44	3540.3	
805.61	3938.2	
805.78	5713.2	
805.96	5814.9	
806.13	4276.8	
806.31	4640	
806.48	4593.6	
806.66	5148.6	
806.83	4186.7	
807	4111	
807.18	5007.3	
807.35	5466	
807.53	4182.6	
807.7	3301.3	
807.87	6249.7	
808.05	5109.7	
808.22	4652.3	
808.4	3295.9	
808.57	5159.5	
808.74	4676.9	
808.92	3826.3	
809.09	4876.2	
809.27	4956.8	
809.44	5628.5	
809.61	3340.2	
809.79	3721.8	
809.96	6249	
810.14	5885.2	
810.31	3211.2	
810.48	3962.1	
810.66	5185.5	
810.83	5968.5	
811.01	3857.7	
811.18	4250.9	
811.35	5861.3	
811.53	4536.3	
811.7	4680.3	
811.87	4332.8	
812.05	5083.7	
812.22	5042.1	
812.39	3701.4	
812.57	3587.4	
812.74	5042.8	
812.92	6847	
813.09	3962.1	
813.26	4373.8	
813.44	6563.1	
813.61	4996.4	
813.78	3303.4	
813.96	4500.1	
814.13	5111.7	
814.3	4745.8	
814.48	4797	
814.65	3970.3	
814.82	6356.2	
815	4868	
815.17	4076.8	
815.34	5052.3	
815.52	5016.8	
815.69	5038	
815.87	4106.9	
816.04	3429	
816.21	5123.3	
816.38	4481	
816.56	3943.7	
816.73	3630.4	
816.9	6456.6	
817.08	5920	
817.25	3714.3	
817.42	4688.5	
817.6	4640.7	
817.77	5165.7	
817.94	4243.4	
818.12	3677.5	
818.29	4805.2	
818.46	7628.7	
818.64	3855	
818.81	3576.4	
818.98	4742.4	
819.16	6984.9	
819.33	4454.3	
819.5	4126	
819.67	5501.5	
819.85	6181.5	
820.02	4044.7	
820.19	4269.3	
820.37	5372.5	
820.54	4887.8	
820.71	4220.2	
820.88	5187.5	
821.06	5325.4	
821.23	4891.2	
821.4	4252.9	
821.58	4117.1	
821.75	5869.5	
821.92	5229.1	
822.09	3356.6	
822.27	3477.5	
822.44	5173.9	
822.61	4928.8	
822.79	3317.7	
822.96	6526.9	
823.13	5653.8	
823.3	4805.2	
823.48	3882.9	
823.65	3530.7	
823.82	5825.1	
823.99	4664.6	
824.17	4975.2	
824.34	3577.1	
824.51	6806.8	
824.68	5216.2	
824.86	3719.8	
825.03	4189.5	
825.2	5079	
825.37	6204	
825.55	3685.7	
825.72	4099.4	
825.89	6838.9	
826.06	6341.2	
826.24	3987.4	
826.41	4037.9	
826.58	6222.4	
826.75	5455.8	
826.92	3171.6	
827.1	3550.5	
827.27	8559.1	
827.44	6761	
827.61	3794.2	
827.79	4677.6	
827.96	4844.1	
828.13	5266	
828.3	3965.6	
828.47	3349.8	
828.65	5332.9	
828.82	5332.9	
828.99	5169.1	
829.16	4554.7	
829.34	5771.2	
829.51	5489.2	
829.68	4209.9	
829.85	4296	
830.02	6071.5	
830.2	5756.8	
830.37	3148.4	
830.54	5023	
830.71	6587.6	
830.88	5103.5	
831.05	3236.5	
831.23	3743.7	
831.4	6277.7	
831.57	7098.9	
831.74	3867.2	
831.91	3308.8	
832.09	5345.9	
832.26	5655.1	
832.43	3998.3	
832.6	4493.9	
832.77	5356.1	
832.94	6120.7	
833.12	3136.8	
833.29	3901.4	
833.46	4967	
833.63	7279.2	
833.8	4275.5	
833.97	3977.8	
834.15	5763	
834.32	5520.6	
834.49	4093.2	
834.66	4239.3	
834.83	5952.8	
835	4821.6	
835.17	3806.5	
835.35	3839.9	
835.52	5610.8	
835.69	5537	
835.86	4080.9	
836.03	3343.7	
836.2	5638.1	
836.37	5226.4	
836.55	3936.2	
836.72	3728.7	
836.89	5244.2	
837.06	5775.3	
837.23	4036.5	
837.4	4415.4	
837.57	6632	
837.75	7319.4	
837.92	3622.2	
838.09	3860.4	
838.26	5279.7	
838.43	6051.7	
838.6	4192.9	
838.77	3702	
838.94	6870.9	
839.11	6622.4	
839.29	4006.5	
839.46	3131.3	
839.63	5680.4	
839.8	5370.5	
839.97	3805.1	
840.14	3831.7	
840.31	5492	
840.48	5724.1	
840.65	3147.7	
840.82	3726.6	
841	5738.4	
841.17	5642.8	
841.34	3551.2	
841.51	3659.7	
841.68	5646.9	
841.85	5486.5	
842.02	3657.7	
842.19	3044	
842.36	5466	
842.53	5422.3	
842.7	3527.3	
842.87	4376.5	
843.05	7208.8	
843.22	5399.1	
843.39	3312.2	
843.56	3586.7	
843.73	5156.1	
843.9	5776	
844.07	5844.2	
844.24	4780	
844.41	8452	
844.58	4956.1	
844.75	3417.4	
844.92	3705.5	
845.09	5693.4	
845.26	5713.8	
845.43	3526.6	
845.6	3682.9	
845.77	5745.2	
845.94	5412.8	
846.12	3921.2	
846.29	4198.3	
846.46	5932.3	
846.63	5735.7	
846.8	3544.4	
846.97	4201.7	
847.14	6202.6	
847.31	5668.1	
847.48	3947.8	
847.65	4428.4	
847.82	5967.1	
847.99	5917.9	
848.16	4691.9	
848.33	4394.3	
848.5	5208	
848.67	6195.8	
848.84	3534.8	
849.01	3624.9	
849.18	5129.5	
849.35	4777.2	
849.52	4473.4	
849.69	3442.6	
849.86	5917.3	
850.03	6210.1	
850.2	3530	
850.37	4354.7	
850.54	6085.9	
850.71	5366.4	
850.88	4250.9	
851.05	3465.8	
851.22	5625.8	
851.39	6264.7	
851.56	3348.4	
851.73	4077.5	
851.9	5036.6	
852.07	5922	
852.24	3966.2	
852.41	3479.5	
852.58	5586.2	
852.75	5015.5	
852.92	3952.6	
853.09	3429	
853.26	5304.9	
853.43	6139.1	
853.6	3523.9	
853.77	3010.5	
853.94	6248.4	
854.11	5707	
854.28	5203.9	
854.44	3837.9	
854.61	6724.2	
854.78	5803.3	
854.95	3532.7	
855.12	4481.6	
855.29	4614.1	
855.46	6492.1	
855.63	3470.6	
855.8	4993.6	
855.97	5210	
856.14	6034	
856.31	5016.2	
856.48	3827.7	
856.65	5230.5	
856.82	4958.1	
856.99	3296.5	
857.16	3820.1	
857.33	6976.1	
857.49	5347.2	
857.66	3773	
857.83	4084.3	
858	5318.6	
858.17	5457.8	
858.34	3277.4	
858.51	3538.2	
858.68	6381.5	
858.85	6425.2	
859.02	4112.3	
859.19	4369.7	
859.36	4926	
859.52	5028.4	
859.69	3549.8	
859.86	4209.9	
860.03	5025	
860.2	6318	
860.37	3147	
860.54	3571.7	
860.71	5933	
860.88	6389.7	
861.05	4031.1	
861.21	4414.1	
861.38	6374	
861.55	4853.7	
861.72	3209.8	
861.89	3932.1	
862.06	5902.2	
862.23	6601.3	
862.4	3433.8	
862.56	3643.3	
862.73	5807.4	
862.9	5463.3	
863.07	4102.1	
863.24	3175.7	
863.41	4865.3	
863.58	5035.3	
863.75	3582.6	
863.91	4045.4	
864.08	6371.9	
864.25	5896.8	
864.42	4441.4	
864.59	4943.8	
864.76	6733	
864.93	5009.3	
865.09	3450.8	
865.26	3760.8	
865.43	6231.3	
865.6	6603.3	
865.77	2992.8	
865.94	3458.3	
866.1	6246.3	
866.27	6037.4	
866.44	5320.6	
866.61	3346.4	
866.78	5352.7	
866.95	5819.6	
867.11	3362.8	
867.28	3074.7	
867.45	6110.5	
867.62	5017.5	
867.79	4096.6	
867.96	3530	
868.12	5003.2	
868.29	5989.6	
868.46	3487.7	
868.63	4767	
868.8	6138.4	
868.97	5839.4	
869.13	3636.5	
869.3	3681.6	
869.47	5897.5	
869.64	6024.4	
869.81	3575.8	
869.97	3543	
870.14	5681.1	
870.31	6397.2	
870.48	3462.4	
870.65	4420.2	
870.81	5314.5	
870.98	5243.5	
871.15	4022.9	
871.32	3632.4	
871.48	5793.7	
871.65	6466.8	
871.82	3480.2	
871.99	3915	
872.16	6883.9	
872.32	6240.2	
872.49	3520.5	
872.66	3551.9	
872.83	5913.2	
872.99	5160.2	
873.16	4065.9	
873.33	3479.5	
873.5	5538.4	
873.67	5624.4	
873.83	3677.5	
874	4756.7	
874.17	5698.1	
874.34	6799.3	
874.5	4580.6	
874.67	4341	
874.84	6374	
875.01	4935.6	
875.17	4968.4	
875.34	3537.5	
875.51	5629.9	
875.68	6741.9	
875.84	4268.6	
876.01	5228.5	
876.18	5937.1	
876.34	5894.7	
876.51	3537.5	
876.68	3400.3	
876.85	5379.3	
877.01	6212.9	
877.18	5072.8	
877.35	3466.5	
877.52	5512.4	
877.68	4906.3	
877.85	3439.9	
878.02	3448.8	
878.18	5424.4	
878.35	5203.2	
878.52	2834.4	
878.69	4005.8	
878.85	5976.7	
879.02	5902.2	
879.19	5054.4	
879.35	3836.5	
879.52	5842.2	
879.69	6135	
879.86	3059.7	
880.02	3957.4	
880.19	5442.8	
880.36	6637.5	
880.52	4049.5	
880.69	4207.2	
880.86	6016.2	
881.02	6046.3	
881.19	3886.4	
881.36	3830.4	
881.52	5894.1	
881.69	5236.7	
881.86	3775.1	
882.02	3670.6	
882.19	6203.3	
882.36	7260.7	
882.52	3583.3	
882.69	5029.1	
882.86	5694.7	
883.02	5604.6	
883.19	4260.5	
883.36	4079.6	
883.52	6055.8	
883.69	6894.1	
883.86	3490.4	
884.02	3181.9	
884.19	5955.5	
884.36	5532.2	
884.52	3947.8	
884.69	3695.2	
884.86	5229.8	
885.02	6586.3	
885.19	3974.4	
885.36	4061.1	
885.52	5522	
885.69	5616.9	
885.86	5102.2	
886.02	4549.9	
886.19	5963.7	
886.35	5328.1	
886.52	3895.9	
886.69	4932.9	
886.85	5018.2	
887.02	6350.1	
887.19	6350.1	
887.35	6350.1	
887.52	6350.1	
887.68	6350.1	
887.85	6350.1	
888.02	6350.1	
888.18	6350.1	
888.35	6350.1	
888.51	6350.1	
888.68	6350.1	
888.85	6350.1	
889.01	6350.1	
889.18	6350.1	
889.35	6350.1	
889.51	6350.1	
889.68	6350.1	
889.84	6350.1	
890.01	6350.1	
890.17	6350.1	
890.34	6350.1	
890.51	6350.1	
890.67	6350.1	
890.84	6350.1	
891	6350.1	
891.17	6350.1	
891.34	6350.1	
891.5	6350.1	
891.67	6350.1	
891.83	6350.1	
892	6350.1	
892.16	6350.1	
892.33	6350.1	
892.5	6350.1	
892.66	6350.1	
892.83	6350.1	
892.99	6350.1	
893.16	6350.1	
893.32	6350.1	
893.49	6350.1	
893.65	6350.1	
893.82	6350.1	
893.99	6350.1	
894.15	6350.1	
894.32	6350.1	
894.48	6350.1	
894.65	6350.1	
894.81	6350.1	
894.98	6350.1	
895.14	6350.1	
895.31	6350.1	
895.47	6350.1	
895.64	6350.1	
895.81	6350.1	
895.97	6350.1	
896.14	6350.1	
896.3	6350.1	
896.47	6350.1	
896.63	6350.1	
896.8	6350.1	
896.96	6350.1	
897.13	6350.1	
897.29	6350.1	
897.46	6350.1	
897.62	6350.1	
897.79	6350.1	
897.95	6350.1	
898.12	6350.1	
898.28	6350.1	
898.45	6350.1	
898.61	6350.1	
898.78	6350.1	
898.94	6350.1	
899.11	6350.1	
899.27	6350.1	
899.44	6350.1	
899.6	6350.1	
899.77	6350.1	
899.93	6350.1	
900.1	6350.1	
900.26	6350.1	
900.43	6350.1	
900.59	6350.1	
900.76	6350.1	
900.92	6350.1	
901.09	6350.1	
901.25	6350.1	
901.42	6350.1	
901.58	6350.1	
901.75	6350.1	
901.91	6350.1	
902.07	6350.1	
902.24	6350.1	
902.4	6350.1	
902.57	6350.1	
902.73	6350.1	
902.9	6350.1	
903.06	6350.1	
903.23	6350.1	
903.39	6350.1	
903.56	6350.1	
903.72	6350.1	
903.88	6350.1	
904.05	6350.1	
904.21	6350.1	
904.38	6350.1	
904.54	6350.1	
904.71	6350.1	
904.87	6350.1	
905.03	6350.1	
905.2	6350.1	
905.36	6350.1	
905.53	6350.1	
905.69	6350.1	
905.86	6350.1	
906.02	6350.1	
906.18	6350.1	
906.35	6350.1	
906.51	6350.1	
906.68	6350.1	
906.84	6350.1	
907.01	6350.1	
907.17	6350.1	
907.33	6350.1	
907.5	6350.1	
907.66	6350.1	
907.83	6350.1	
907.99	6350.1	
908.15	6350.1	
908.32	6350.1	
908.48	6350.1	
908.65	6350.1	
908.81	6350.1	
908.97	6350.1	
909.14	6350.1	
909.3	6350.1	
909.47	6350.1	
909.63	6350.1	
909.79	6350.1	
909.96	6350.1	
910.12	6350.1	
910.28	6350.1	
910.45	6350.1	
910.61	6350.1	
910.78	6350.1	
910.94	6350.1	
911.1	6350.1	
911.27	6350.1	
911.43	6350.1	
911.59	6350.1	
911.76	6350.1	
911.92	6350.1	
912.08	6350.1	
912.25	6350.1	
912.41	6350.1	
912.57	6350.1	
912.74	6350.1	
912.9	6350.1	
913.07	6350.1	
913.23	6350.1	
913.39	6350.1	
913.56	6350.1	
913.72	6350.1	
913.88	6350.1	
914.05	6350.1	
914.21	6350.1	
914.37	6350.1	
914.54	6350.1	
914.7	6350.1	
914.86	6350.1	
915.03	6350.1	
915.19	6350.1	
