Wavelength	Intensities	
nm	a.u.	
179.22	1939.9	
179.44	1939.1	
179.65	1940.8	
179.86	1937.4	
180.08	1886.9	
180.29	4922.6	
180.51	3583.9	
180.72	5681.1	
180.94	6711.9	
181.15	3280.2	
181.37	3235.8	
181.58	5569.8	
181.79	5887.2	
182.01	3435.8	
182.22	3743.7	
182.44	5859.2	
182.65	4804.5	
182.87	4646.2	
183.08	4083	
183.29	6116.6	
183.51	5076.2	
183.72	3706.8	
183.94	5498.1	
184.15	5412.1	
184.37	5455.1	
184.58	3304.1	
184.79	4491.9	
185.01	5047.6	
185.22	5784.8	
185.44	4789.5	
185.65	3969	
185.86	5332.2	
186.08	4982	
186.29	3220.1	
186.51	3444	
186.72	5061.2	
186.94	6003.3	
187.15	3953.9	
187.36	4192.9	
187.58	7868.3	
187.79	5543.9	
188.01	4231.8	
188.22	6657.9	
188.43	6744.6	
188.65	5841.5	
188.86	3373.7	
189.08	4104.1	
189.29	5311.1	
189.5	5283.1	
189.72	3768.3	
189.93	3905.5	
190.15	6083.1	
190.36	7256	
190.57	4208.6	
190.79	4002.4	
191	6158.9	
191.22	6102.9	
191.43	4229.7	
191.64	3386.7	
191.86	6317.3	
192.07	6064.7	
192.29	3559.4	
192.5	3833.8	
192.71	6044.9	
192.93	5188.2	
193.14	3717.1	
193.35	3872.7	
193.57	5220.3	
193.78	6108.4	
194	3026.9	
194.21	3728	
194.42	5018.9	
194.64	5586.9	
194.85	4117.8	
195.07	4850.3	
195.28	5545.2	
195.49	4745.1	
195.71	5081.7	
195.92	3538.2	
196.13	5722.7	
196.35	5831.9	
196.56	5506.3	
196.78	4149.2	
196.99	7163.1	
197.2	6755.6	
197.42	4706.9	
197.63	4197	
197.84	4872.1	
198.06	5689.3	
198.27	3788.1	
198.48	5121.3	
198.7	5188.9	
198.91	5344.5	
199.13	4072	
199.34	4127.3	
199.55	5892	
199.77	4767	
199.98	3628.3	
200.19	4215.4	
200.41	5301.5	
200.62	5145.9	
200.83	4332.8	
201.05	4691.9	
201.26	5383.4	
201.47	5071.5	
201.69	3713.6	
201.9	3540.3	
202.11	5513.1	
202.33	6563.1	
202.54	3992.9	
202.76	4417.5	
202.97	5621	
203.18	5552	
203.4	4333.5	
203.61	4202.4	
203.82	5550.7	
204.04	5173.9	
204.25	4227	
204.46	4037.2	
204.68	5565.7	
204.89	5782.8	
205.1	4024.3	
205.32	3505.4	
205.53	5933	
205.74	6081.8	
205.96	2980.5	
206.17	4237.2	
206.38	5847	
206.6	5982.8	
206.81	4753.3	
207.02	3902.1	
207.24	5764.3	
207.45	6163	
207.66	3984	
207.88	3360	
208.09	5758.2	
208.3	5436.7	
208.52	3635.8	
208.73	4012.7	
208.94	5469.4	
209.15	6201.2	
209.37	3992.2	
209.58	4131.4	
209.79	6093.4	
210.01	5287.2	
210.22	3142.3	
210.43	3319.1	
210.65	5536.3	
210.86	5946.6	
211.07	4004.5	
211.29	3597.6	
211.5	5890.6	
211.71	5421	
211.93	3629	
212.14	3623.5	
212.35	5358.2	
212.56	5681.1	
212.78	4150.6	
212.99	3392.8	
213.2	6552.8	
213.42	5243.5	
213.63	3697.3	
213.84	4028.4	
214.06	4823	
214.27	4999.1	
214.48	3907.5	
214.69	4242	
214.91	6173.3	
215.12	6256.5	
215.33	4261.1	
215.55	4706.2	
215.76	6824.5	
215.97	5858.6	
216.18	4062.5	
216.4	3939.6	
216.61	5204.6	
216.82	6041.5	
217.04	3609.9	
217.25	3744.4	
217.46	6153.5	
217.67	5916.6	
217.89	3271.3	
218.1	3368.9	
218.31	5582.1	
218.53	5654.4	
218.74	3820.8	
218.95	3708.9	
219.16	5446.9	
219.38	6424.5	
219.59	3760.8	
219.8	4444.1	
220.01	7132.4	
220.23	5500.2	
220.44	4889.9	
220.65	3564.1	
220.87	5531.6	
221.08	6142.5	
221.29	3381.2	
221.5	4545.8	
221.72	7533.8	
221.93	5209.3	
222.14	4185.4	
222.35	4911	
222.57	5497.4	
222.78	5885.9	
222.99	3954.6	
223.2	4280.3	
223.42	5818.3	
223.63	5966.4	
223.84	3035.8	
224.05	3099.9	
224.27	7025.9	
224.48	6399.9	
224.69	5021.6	
224.9	4154.6	
225.12	5685.8	
225.33	5440.1	
225.54	3308.8	
225.75	3766.2	
225.97	5015.5	
226.18	5367.7	
226.39	4020.2	
226.6	3728.7	
226.82	5243.5	
227.03	5089.2	
227.24	4128.7	
227.45	3393.5	
227.67	5841.5	
227.88	6443.6	
228.09	4674.1	
228.3	4662.5	
228.52	5944.6	
228.73	5461.2	
228.94	3861.8	
229.15	3479.5	
229.36	5421.7	
229.58	5296.7	
229.79	3882.3	
230	4487.1	
230.21	6610.8	
230.43	5624.4	
230.64	4158.1	
230.85	4307.6	
231.06	5913.2	
231.28	5916.6	
231.49	3384.6	
231.7	4026.3	
231.91	5810.1	
232.12	5520	
232.34	3578.5	
232.55	4061.1	
232.76	6152.1	
232.97	5666.7	
233.18	3622.2	
233.4	4164.2	
233.61	5733.6	
233.82	5241.4	
234.03	3779.9	
234.25	3792.2	
234.46	7712	
234.67	5541.1	
234.88	4287.1	
235.09	3648.1	
235.31	5857.9	
235.52	5395	
235.73	4106.2	
235.94	3498.6	
236.15	5189.6	
236.37	6707.1	
236.58	3700	
236.79	4055	
237	5819	
237.21	5021.6	
237.43	4293.9	
237.64	3368.2	
237.85	10079	
238.06	5036.6	
238.27	4361.5	
238.48	3438.5	
238.7	5848.3	
238.91	5358.9	
239.12	3944.4	
239.33	3971	
239.54	5081.7	
239.76	5374.6	
239.97	3964.2	
240.18	3959.4	
240.39	6983.6	
240.6	5820.3	
240.82	4126.7	
241.03	3385.3	
241.24	5461.2	
241.45	6352.8	
241.66	3615.3	
241.87	4274.1	
242.09	6244.9	
242.3	6676.4	
242.51	4296	
242.72	4035.2	
242.93	5902.2	
243.14	5403.9	
243.36	4603.2	
243.57	4990.2	
243.78	6405.4	
243.99	5855.1	
244.2	4025.6	
244.41	3650.8	
244.63	5032.5	
244.84	5881.8	
245.05	4211.3	
245.26	3990.1	
245.47	5782.8	
245.68	6099.5	
245.9	5307	
246.11	4265.2	
246.32	5339.1	
246.53	5760.9	
246.74	6514.6	
246.95	3312.9	
247.16	4941.7	
247.38	5470.8	
247.59	3278.1	
247.8	4007.2	
248.01	5210	
248.22	5408	
248.43	3619.4	
248.64	3889.1	
248.86	4889.9	
249.07	5239.4	
249.28	3484.3	
249.49	4087.7	
249.7	6052.4	
249.91	6245.6	
250.12	3276.8	
250.34	3348.4	
250.55	5588.2	
250.76	5563.6	
250.97	4100.7	
251.18	4135.5	
251.39	6272.9	
251.6	5679.7	
251.81	4300.7	
252.03	4190.1	
252.24	5232.6	
252.45	6072.9	
252.66	3477.5	
252.87	4415.4	
253.08	5479	
253.29	7299.6	
253.5	3466.5	
253.72	4904.2	
253.93	5307	
254.14	6584.9	
254.35	3792.2	
254.56	3907.5	
254.77	5784.8	
254.98	5076.9	
255.19	3756.7	
255.41	4818.9	
255.62	5597.1	
255.83	6216.3	
256.04	4315.8	
256.25	4197.7	
256.46	6786.3	
256.67	5203.9	
256.88	4139.6	
257.09	4618.2	
257.31	5136.3	
257.52	5203.9	
257.73	5158.8	
257.94	3775.1	
258.15	5317.2	
258.36	5528.2	
258.57	4732.9	
258.78	2987.3	
258.99	5937.1	
259.2	5314.5	
259.41	3812	
259.63	3891.8	
259.84	6351.4	
260.05	6888.7	
260.26	5016.2	
260.47	3687	
260.68	6121.4	
260.89	5398.4	
261.1	4550.6	
261.31	3643.3	
261.52	6100.2	
261.73	6385.6	
261.95	4946.5	
262.16	4306.2	
262.37	6240.2	
262.58	6283.2	
262.79	4885.1	
263	3874.1	
263.21	5492.7	
263.42	5005.2	
263.63	3902.1	
263.84	3872.7	
264.05	6113.2	
264.26	6474.3	
264.47	4793.6	
264.69	4331.5	
264.9	6217.6	
265.11	5717.2	
265.32	3679.5	
265.53	3801.7	
265.74	5674.2	
265.95	4866	
266.16	4055	
266.37	4563.6	
266.58	5588.2	
266.79	5313.8	
267	3762.8	
267.21	3497.9	
267.42	5038	
267.63	5470.1	
267.84	3937.6	
268.06	3418.1	
268.27	5946.6	
268.48	6270.9	
268.69	3855	
268.9	4624.3	
269.11	6264.1	
269.32	5010	
269.53	3979.2	
269.74	3664.5	
269.95	5865.4	
270.16	4861.2	
270.37	4003.1	
270.58	4592.9	
270.79	5283.1	
271	6039.5	
271.21	4257.7	
271.42	4055	
271.63	5667.4	
271.84	5163.6	
272.05	3170.9	
272.26	3561.4	
272.47	5481.7	
272.68	5709.7	
272.89	3804.4	
273.11	4414.7	
273.32	5355.4	
273.53	6488.6	
273.74	4294.6	
273.95	4229.1	
274.16	6156.9	
274.37	5617.6	
274.58	4317.8	
274.79	3483.6	
275	5672.9	
275.21	6283.9	
275.42	5259.2	
275.63	4529.4	
275.84	5784.1	
276.05	7296.9	
276.26	4230.4	
276.47	3953.3	
276.68	5345.2	
276.89	6574.7	
277.1	4497.3	
277.31	3540.9	
277.52	5788.9	
277.73	5965.7	
277.94	3419.4	
278.15	3819.5	
278.36	5762.3	
278.57	5130.8	
278.78	3808.5	
278.99	4300.7	
279.2	5163.6	
279.41	5056.4	
279.62	5020.3	
279.83	3530.7	
280.04	6770.6	
280.25	5036	
280.46	5087.8	
280.67	4006.5	
280.88	5107.6	
281.09	6197.2	
281.3	4186.7	
281.51	5354.8	
281.72	5235.3	
281.93	6076.3	
282.14	3715	
282.35	4022.2	
282.56	6012.2	
282.77	5993.7	
282.98	3829	
283.19	4730.8	
283.4	7451.9	
283.61	5502.2	
283.82	3554.6	
284.03	4995.7	
284.24	5602.6	
284.45	6192.4	
284.66	4926.7	
284.87	4725.3	
285.08	6126.8	
285.29	6319.3	
285.5	3360.7	
285.71	3922.5	
285.92	6151.4	
286.12	6851.1	
286.33	4902.2	
286.54	3900.7	
286.75	6047	
286.96	5423	
287.17	3562.8	
287.38	4861.9	
287.59	5099.4	
287.8	5045.5	
288.01	3891.1	
288.22	4508.3	
288.43	6100.2	
288.64	5033.2	
288.85	4670.7	
289.06	4478.2	
289.27	5918.6	
289.48	6509.8	
289.69	4971.8	
289.9	4469.4	
290.11	6206	
290.32	5177.9	
290.53	4734.9	
290.74	4319.2	
290.94	5940.5	
291.15	6001.9	
291.36	3770.3	
291.57	4508.3	
291.78	5240.1	
291.99	4903.5	
292.2	3605.8	
292.41	4287.8	
292.62	6088.6	
292.83	5892.7	
293.04	5374.6	
293.25	3605.1	
293.46	5308.3	
293.67	6141.2	
293.88	3766.2	
294.09	3561.4	
294.29	5001.8	
294.5	5681.7	
294.71	3998.3	
294.92	3799	
295.13	5296.7	
295.34	6696.2	
295.55	3369.6	
295.76	3431.7	
295.97	5917.9	
296.18	6701.6	
296.39	3533.4	
296.6	3752.6	
296.81	5608	
297.01	5936.4	
297.22	3883.6	
297.43	3706.1	
297.64	5141.8	
297.85	5160.2	
298.06	3082.9	
298.27	3373.7	
298.48	5566.4	
298.69	5227.8	
298.9	4057.7	
299.11	3644.7	
299.31	5023.7	
299.52	5010.7	
299.73	4254.3	
299.94	4246.8	
300.15	5454.4	
300.36	5147.2	
300.57	4257	
300.78	4248.2	
300.99	5371.8	
301.2	5657.9	
301.4	3697.3	
301.61	4078.2	
301.82	5862	
302.03	5980.1	
302.24	4642.1	
302.45	3504.8	
302.66	5818.3	
302.87	6298.9	
303.08	3771	
303.29	5113.1	
303.49	5266.7	
303.7	5535	
303.91	3329.3	
304.12	4831.2	
304.33	5027.1	
304.54	5625.1	
304.75	3768.3	
304.96	3542.3	
305.16	5855.8	
305.37	6670.2	
305.58	3227.6	
305.79	3411.2	
306	5825.1	
306.21	4911.7	
306.42	3728.7	
306.63	5792.3	
306.83	5388.9	
307.04	6175.3	
307.25	4173.8	
307.46	4091.2	
307.67	4704.9	
307.88	5980.1	
308.09	3652.2	
308.29	3843.4	
308.5	5569.8	
308.71	6208.8	
308.92	4028.4	
309.13	3649.5	
309.34	5343.2	
309.55	5497.4	
309.75	4701.5	
309.96	4317.1	
310.17	6000.5	
310.38	5204.6	
310.59	4498.7	
310.8	3560.7	
311.01	6720.8	
311.21	5378	
311.42	3579.8	
311.63	3692.5	
311.84	5265.3	
312.05	5705	
312.26	4152.6	
312.46	4549.9	
312.67	5360.2	
312.88	5012.1	
313.09	3596.9	
313.3	3522.5	
313.51	6337.8	
313.71	6770.6	
313.92	3642	
314.13	3751.2	
314.34	5685.2	
314.55	5390.3	
314.76	4744.5	
314.96	4050.9	
315.17	5608	
315.38	5939.1	
315.59	3610.6	
315.8	3471.3	
316.01	6423.1	
316.21	6456.6	
316.42	3480.2	
316.63	3986.7	
316.84	5353.4	
317.05	6292	
317.26	4266.6	
317.46	3836.5	
317.67	5403.9	
317.88	5948	
318.09	4688.5	
318.3	3381.9	
318.5	5236	
318.71	5813.5	
318.92	5909.8	
319.13	4298	
319.34	6064	
319.54	6175.3	
319.75	3326.6	
319.96	3236.5	
320.17	5928.9	
320.38	6105	
320.58	3233.7	
320.79	4008.6	
321	6121.4	
321.21	6218.3	
321.42	3979.9	
321.62	3295.9	
321.83	5107	
322.04	5573.9	
322.25	3889.8	
322.46	3611.9	
322.66	5658.5	
322.87	5788.2	
323.08	4483	
323.29	3592.1	
323.5	6582.2	
323.7	5056.4	
323.91	4956.8	
324.12	4472.1	
324.33	5552.7	
324.53	5918.6	
324.74	4272.7	
324.95	4450.2	
325.16	4867.3	
325.37	5287.9	
325.57	3671.3	
325.78	3725.9	
325.99	5570.5	
326.2	5029.1	
326.4	5310.4	
326.61	3331.4	
326.82	5425.1	
327.03	5571.2	
327.24	5154.7	
327.44	4881	
327.65	5723.4	
327.86	4685.8	
328.07	4238.6	
328.27	3454.9	
328.48	6222.4	
328.69	5143.8	
328.9	5240.1	
329.1	3837.9	
329.31	5438	
329.52	6399.9	
329.73	3583.3	
329.93	4104.8	
330.14	5494.7	
330.35	5802.6	
330.56	6005.3	
330.76	4533.5	
330.97	5358.9	
331.18	5730.2	
331.39	4090.5	
331.59	3225.6	
331.8	6135	
332.01	6318.7	
332.22	3772.4	
332.42	4323.3	
332.63	5614.2	
332.84	5244.8	
333.05	4052.2	
333.25	3694.5	
333.46	5298.1	
333.67	5582.1	
333.88	3830.4	
334.08	4220.9	
334.29	7414.3	
334.5	6239.5	
334.7	3563.5	
334.91	5187.5	
335.12	5091.9	
335.33	5949.3	
335.53	4049.5	
335.74	6024.4	
335.95	5270.8	
336.16	5111.7	
336.36	3973.7	
336.57	4640	
336.78	5027.1	
336.98	6140.5	
337.19	5023.7	
337.4	3970.3	
337.61	6752.8	
337.81	5053	
338.02	3721.2	
338.23	4867.3	
338.43	6300.2	
338.64	5129.5	
338.85	3674.1	
339.05	4820.2	
339.26	6420.4	
339.47	4948.6	
339.68	3678.2	
339.88	5380.7	
340.09	5730.9	
340.3	6025.8	
340.5	4325.3	
340.71	3244	
340.92	5000.5	
341.13	6292.7	
341.33	3544.4	
341.54	4329.4	
341.75	5758.9	
341.95	5360.9	
342.16	4120.5	
342.37	4438.6	
342.57	5069.4	
342.78	5467.4	
342.99	4518.5	
343.19	3249.4	
343.4	5941.8	
343.61	5776	
343.81	3902.1	
344.02	3534.1	
344.23	6004.6	
344.43	6352.8	
344.64	4517.8	
344.85	4403.1	
345.06	5795.8	
345.26	6147.3	
345.47	4239.3	
345.68	4965	
345.88	4882.4	
346.09	5999.9	
346.3	4298.7	
346.5	3216.7	
346.71	5538.4	
346.92	5215.5	
347.12	3244	
347.33	4173.8	
347.54	6100.9	
347.74	6484.6	
347.95	4177.9	
348.16	3099.3	
348.36	5299.5	
348.57	5108.3	
348.78	4090.5	
348.98	4414.1	
349.19	5470.1	
349.39	4997	
349.6	3296.5	
349.81	3705.5	
350.01	5767.1	
350.22	5207.3	
350.43	3967.6	
350.63	4854.4	
350.84	5640.8	
351.05	5304.9	
351.25	3674.1	
351.46	3304.7	
351.67	6076.3	
351.87	5203.9	
352.08	3841.3	
352.29	4456.4	
352.49	5973.2	
352.7	6120	
352.9	3485	
353.11	4518.5	
353.32	6733.7	
353.52	5327.4	
353.73	3482.2	
353.94	4548.5	
354.14	5788.2	
354.35	5618.3	
354.55	3631	
354.76	3990.8	
354.97	5806	
355.17	5607.3	
355.38	3371	
355.59	4716.5	
355.79	5146.5	
356	5597.8	
356.2	3988.1	
356.41	3479.5	
356.62	4873.5	
356.82	5399.1	
357.03	4317.8	
357.24	3873.4	
357.44	5210.7	
357.65	5370.5	
357.85	5130.2	
358.06	4005.1	
358.27	4898.1	
358.47	5167.7	
358.68	3379.1	
358.88	4292.5	
359.09	5722.7	
359.3	6188.3	
359.5	4964.3	
359.71	4441.4	
359.91	6691.4	
360.12	5962.3	
360.33	4253.6	
360.53	4696.7	
360.74	5236.7	
360.94	5254.4	
361.15	4435.9	
361.36	3650.2	
361.56	6023.1	
361.77	5429.2	
361.97	5027.1	
362.18	3855	
362.38	5993.7	
362.59	5059.2	
362.8	3567.6	
363	3399.6	
363.21	4858.5	
363.41	5563	
363.62	4155.3	
363.83	5222.3	
364.03	5603.2	
364.24	6660	
364.44	5210	
364.65	5221	
364.85	5325.4	
365.06	5012.1	
365.27	3800.3	
365.47	3763.5	
365.68	6412.2	
365.88	5319.9	
366.09	4138.9	
366.29	3825.6	
366.5	5633.3	
366.71	6096.8	
366.91	5175.2	
367.12	4289.1	
367.32	6690	
367.53	5929.6	
367.73	4321.2	
367.94	5327.4	
368.14	5823.1	
368.35	6817.7	
368.56	4287.1	
368.76	3641.3	
368.97	5935.7	
369.17	7704.5	
369.38	3797.6	
369.58	4058.4	
369.79	5012.1	
369.99	6356.2	
370.2	5096	
370.4	4084.3	
370.61	5689.9	
370.82	6926.9	
371.02	4003.1	
371.23	3343.7	
371.43	4867.3	
371.64	6205.3	
371.84	4030.4	
372.05	5248.9	
372.25	7644.4	
372.46	5992.4	
372.66	3985.3	
372.87	3962.1	
373.07	6028.5	
373.28	7647.1	
373.48	5128.8	
373.69	4784.7	
373.9	5446.9	
374.1	5528.2	
374.31	4982.7	
374.51	4526	
374.72	6366.5	
374.92	5113.8	
375.13	5195	
375.33	4388.8	
375.54	5818.3	
375.74	5280.3	
375.95	4388.1	
376.15	5707.7	
376.36	5831.2	
376.56	5711.1	
376.77	4442.7	
376.97	4919.9	
377.18	6909.2	
377.38	5881.8	
377.59	5271.5	
377.79	3895.9	
378	5756.8	
378.2	6262	
378.41	4046.1	
378.61	3923.9	
378.82	6191	
379.02	5278.3	
379.23	4130.8	
379.43	5326.1	
379.64	6330.3	
379.84	5903.6	
380.05	3897.3	
380.25	3919.8	
380.46	6018.3	
380.66	5545.9	
380.87	5382.7	
381.07	5741.1	
381.28	6702.3	
381.48	6008.1	
381.69	4033.1	
381.89	4076.8	
382.1	4941.7	
382.3	6226.5	
382.51	5241.4	
382.71	6065.4	
382.91	6031.3	
383.12	6577.4	
383.32	4342.4	
383.53	4600.4	
383.73	5881.8	
383.94	5602.6	
384.14	4537.6	
384.35	3648.1	
384.55	5628.5	
384.76	6092	
384.96	4373.8	
385.17	4734.9	
385.37	6034	
385.58	5269.4	
385.78	4726	
385.98	3540.3	
386.19	5537	
386.39	5908.4	
386.6	4132.8	
386.8	4377.9	
387.01	6026.5	
387.21	6064.7	
387.42	4812	
387.62	5440.8	
387.83	5340.4	
388.03	6033.3	
388.23	4404.5	
388.44	5298.8	
388.64	5002.5	
388.85	5104.2	
389.05	4845.5	
389.26	5397.8	
389.46	7002.7	
389.67	6447.7	
389.87	4825	
390.07	4823	
390.28	5642.8	
390.48	5214.8	
390.69	4001	
390.89	4273.4	
391.1	5414.8	
391.3	6414.9	
391.5	5513.1	
391.71	6132.3	
391.91	6075.6	
392.12	7172.7	
392.32	5640.1	
392.53	4823.6	
392.73	5528.2	
392.93	5724.1	
393.14	4513	
393.34	5267.4	
393.55	6157.6	
393.75	5685.2	
393.95	4473.4	
394.16	4394.3	
394.36	5367	
394.57	6118	
394.77	3944.4	
394.98	4343.7	
395.18	5335.6	
395.38	5576.6	
395.59	5284.4	
395.79	4190.1	
396	5501.5	
396.2	5965.1	
396.4	5026.4	
396.61	4902.2	
396.81	6227.2	
397.02	5380	
397.22	5264.6	
397.42	5274.2	
397.63	6167.1	
397.83	5293.3	
398.04	4065.2	
398.24	4647.5	
398.44	5865.4	
398.65	4947.2	
398.85	3910.9	
399.05	4071.4	
399.26	5302.9	
399.46	7109.2	
399.67	4422.9	
399.87	4152.6	
400.07	5653.8	
400.28	6049.7	
400.48	4242.7	
400.69	5322	
400.89	6253.1	
401.09	6744	
401.3	4102.1	
401.5	5363.6	
401.7	7006.8	
401.91	7297.6	
402.11	4448.2	
402.32	4797	
402.52	6354.8	
402.72	6272.2	
402.93	4973.8	
403.13	3793.5	
403.33	7107.1	
403.54	5810.8	
403.74	4739	
403.94	5593.7	
404.15	5872.2	
404.35	7108.5	
404.56	4436.6	
404.76	6399.9	
404.96	6323.4	
405.17	6057.2	
405.37	5391.6	
405.57	4922	
405.78	6306.4	
405.98	5836	
406.18	4395.6	
406.39	5403.9	
406.59	6355.5	
406.79	5939.1	
407	4222.2	
407.2	4361.5	
407.4	6352.1	
407.61	6525.5	
407.81	4351.9	
408.01	6793.8	
408.22	5180.7	
408.42	7272.3	
408.62	5446.9	
408.83	4769	
409.03	5860.6	
409.23	5642.2	
409.44	4967	
409.64	5225.7	
409.84	6806.8	
410.05	6673.6	
410.25	5051	
410.45	4868.7	
410.66	6129.6	
410.86	8719.6	
411.06	5259.9	
411.27	5044.8	
411.47	8389.2	
411.67	6292	
411.88	5395.7	
412.08	5593.7	
412.28	7005.4	
412.49	7557	
412.69	5117.9	
412.89	5176.6	
413.09	7288.7	
413.3	7144	
413.5	5208.7	
413.7	4769	
413.91	6392.4	
414.11	7321.5	
414.31	5115.8	
414.52	5484.5	
414.72	6900.3	
414.92	6916	
415.12	5072.8	
415.33	5587.5	
415.53	7310.6	
415.73	7530.4	
415.94	5960.3	
416.14	5412.8	
416.34	6206.7	
416.55	5916.6	
416.75	6660	
416.95	6058.6	
417.15	7350.2	
417.36	8056	
417.56	6860	
417.76	5896.8	
417.97	7598	
418.17	7351.5	
418.37	5467.4	
418.57	5481.7	
418.78	7084.6	
418.98	6769.2	
419.18	6427.2	
419.38	6397.2	
419.59	6868.9	
419.79	6400.6	
419.99	5368.4	
420.2	5828.5	
420.4	7288.7	
420.6	7572	
420.8	5291.3	
421.01	5146.5	
421.21	7185.6	
421.41	7398.6	
421.61	5756.2	
421.82	5459.9	
422.02	6696.9	
422.22	7656	
422.42	6363.7	
422.63	5863.3	
422.83	6864.8	
423.03	8171.4	
423.23	5903.6	
423.44	4780	
423.64	6965.8	
423.84	6642.2	
424.04	5376.6	
424.25	4962.2	
424.45	7924.3	
424.65	7867.6	
424.85	4706.2	
425.06	5379.3	
425.26	7804.1	
425.46	6193.1	
425.66	5950.7	
425.87	5573.9	
426.07	7657.4	
426.27	7529	
426.47	5812.1	
426.67	5076.9	
426.88	7944.1	
427.08	7453.9	
427.28	5974.6	
427.48	5023	
427.69	6287.3	
427.89	6947.4	
428.09	6034	
428.29	5105.6	
428.5	7726.3	
428.7	7184.3	
428.9	4971.1	
429.1	5571.2	
429.3	7028.6	
429.51	7592.5	
429.71	5271.5	
429.91	6098.2	
430.11	7436.2	
430.31	7665.5	
430.52	5677	
430.72	5851.7	
430.92	8077.2	
431.12	7518.8	
431.32	5229.1	
431.53	5721.3	
431.73	6346.7	
431.93	8119.5	
432.13	5272.8	
432.33	5056.4	
432.54	6788.3	
432.74	7217	
432.94	4997.7	
433.14	6118.6	
433.34	7355.6	
433.55	6741.2	
433.75	6080.4	
433.95	7901.7	
434.15	7073.7	
434.35	6879.8	
434.56	5259.2	
434.76	4765.6	
434.96	7132.4	
435.16	7447.8	
435.36	5122.7	
435.56	6288.6	
435.77	6748.7	
435.97	6929	
436.17	7068.9	
436.37	6247	
436.57	6764.4	
436.78	6662	
436.98	6208.1	
437.18	6945.3	
437.38	7602.1	
437.58	7043.6	
437.78	7088	
437.99	5608	
438.19	7527.7	
438.39	8435.6	
438.59	5604.6	
438.79	5014.1	
438.99	8254.7	
439.2	6928.3	
439.4	5173.2	
439.6	5070.8	
439.8	7225.2	
440	8426	
440.2	6178	
440.4	6312.5	
440.61	7727	
440.81	8318.8	
441.01	5380	
441.21	6339.1	
441.41	8159.1	
441.61	7813.7	
441.81	6690.7	
442.02	7716.1	
442.22	8738.7	
442.42	7901.1	
442.62	5495.4	
442.82	5514.5	
443.02	8196	
443.22	7224.6	
443.43	5968.5	
443.63	5498.8	
443.83	7017.7	
444.03	7119.4	
444.23	6879.8	
444.43	6413.6	
444.63	7502.4	
444.83	8774.2	
445.04	5597.1	
445.24	7047.1	
445.44	7882.6	
445.64	7990.5	
445.84	6528.2	
446.04	6485.2	
446.24	7198.6	
446.44	8342.7	
446.65	5694.7	
446.85	6055.2	
447.05	7665.5	
447.25	8345.5	
447.45	6102.9	
447.65	5494	
447.85	7524.2	
448.05	7172.7	
448.25	6614.9	
448.46	6404	
448.66	7558.4	
448.86	7318.1	
449.06	5378	
449.26	6656.6	
449.46	7980.9	
449.66	6924.2	
449.86	6089.3	
450.06	6076.3	
450.26	7214.3	
450.47	7792.5	
450.67	6389	
450.87	6802	
451.07	7892.2	
451.27	7602.1	
451.47	5695.4	
451.67	6300.2	
451.87	7391.1	
452.07	8555	
452.27	5892	
452.47	5928.2	
452.67	7696.9	
452.88	8231.5	
453.08	5249.6	
453.28	7460.1	
453.48	8871.8	
453.68	7557.7	
453.88	5764.3	
454.08	6176.7	
454.28	7990.5	
454.48	7630.7	
454.68	6683.2	
454.88	7177.4	
455.08	8149.6	
455.28	7854.6	
455.48	5670.8	
455.68	6362.4	
455.89	8628.1	
456.09	8198	
456.29	5980.1	
456.49	6102.3	
456.69	8512.7	
456.89	7975.5	
457.09	6741.9	
457.29	7043	
457.49	8002.1	
457.69	8315.4	
457.89	6546	
458.09	5933.6	
458.29	7853.3	
458.49	8666.3	
458.69	6972.7	
458.89	6409.5	
459.09	9008.3	
459.29	9109.4	
459.49	6574.7	
459.69	7355.6	
459.9	8518.9	
460.1	8053.3	
460.3	6404	
460.5	6167.1	
460.7	8445.1	
460.9	8184.4	
461.1	5812.1	
461.3	7221.1	
461.5	9113.5	
461.7	8730.5	
461.9	6343.9	
462.1	6785.6	
462.3	8140	
462.5	8825.4	
462.7	6361	
462.9	6544.6	
463.1	9972.2	
463.3	9568.1	
463.5	6666.8	
463.7	7787.7	
463.9	8415.1	
464.1	8830.8	
464.3	6843.6	
464.5	7206.8	
464.7	9176.3	
464.9	8770.8	
465.1	8617.9	
465.3	7708.6	
465.5	9605.7	
465.7	9509.4	
465.9	7872.4	
466.1	7626.6	
466.3	9375.6	
466.5	9181	
466.7	8734.6	
466.9	7418.4	
467.1	9116.9	
467.3	10186	
467.5	8583	
467.7	7437.5	
467.9	10321	
468.1	11286	
468.3	8209.6	
468.5	8683.4	
468.7	9187.9	
468.9	9103.9	
469.1	7770	
469.3	8478.6	
469.5	11219	
469.7	8661.5	
469.9	8165.3	
470.1	7492.2	
470.3	9162.6	
470.5	9295	
470.7	8971.5	
470.9	7684	
471.1	9000.8	
471.3	9523.7	
471.5	7464.2	
471.69	9480.7	
471.89	8845.9	
472.09	8445.1	
472.29	8333.9	
472.49	8625.4	
472.69	8640.4	
472.89	9544.2	
473.09	7368.6	
473.29	7524.9	
473.49	8753.7	
473.69	8991.3	
473.89	8551.6	
474.09	7692.9	
474.29	10284	
474.49	9971.6	
474.69	8520.9	
474.89	7823.2	
475.09	9097.1	
475.29	9022	
475.49	7225.2	
475.69	7515.4	
475.88	10739	
476.08	9361.9	
476.28	7207.5	
476.48	7703.1	
476.68	9858.9	
476.88	9714.9	
477.08	7443.7	
477.28	7845.1	
477.48	9138	
477.68	9825.5	
477.88	7358.4	
478.08	7623.2	
478.28	10137	
478.48	9207	
478.67	7766.6	
478.87	7132.4	
479.07	10036	
479.27	9346.2	
479.47	7982.3	
479.67	8012.3	
479.87	9846	
480.07	10401	
480.27	7178.8	
480.47	8983.8	
480.67	9590.6	
480.87	10165	
481.06	7395.2	
481.26	8477.2	
481.46	9435	
481.66	9428.2	
481.86	8071	
482.06	9183.8	
482.26	9271.8	
482.46	10281	
482.66	7983.7	
482.86	7529	
483.05	9489.6	
483.25	8931.2	
483.45	10559	
483.65	8011	
483.85	9095	
484.05	9463	
484.25	8557.1	
484.45	9064.3	
484.65	10361	
484.84	10522	
485.04	7961.8	
485.24	7985	
485.44	10679	
485.64	8889.5	
485.84	7277.8	
486.04	8759.8	
486.24	9348.3	
486.44	9781.1	
486.63	7321.5	
486.83	8176.2	
487.03	9254.1	
487.23	9538.1	
487.43	7367.9	
487.63	9908.8	
487.83	9568.1	
488.02	10564	
488.22	8571.4	
488.42	9180.4	
488.62	10587	
488.82	9368.8	
489.02	8238.3	
489.22	8254	
489.41	10477	
489.61	10067	
489.81	7875.1	
490.01	8012.3	
490.21	10411	
490.41	11124	
490.61	7894.9	
490.8	8155.7	
491	9973.6	
491.2	9194.7	
491.4	8742.1	
491.6	7798	
491.8	10019	
491.99	10025	
492.19	7650.5	
492.39	7961.8	
492.59	10385	
492.79	10361	
492.99	8726.4	
493.18	7910.6	
493.38	10383	
493.58	11444	
493.78	8875.9	
493.98	8290.9	
494.18	10245	
494.37	9820	
494.57	9109.4	
494.77	8961.9	
494.97	10658	
495.17	10925	
495.37	8600.1	
495.56	8891.6	
495.76	11097	
495.96	10907	
496.16	10025	
496.36	8880	
496.55	11159	
496.75	10621	
496.95	9904.7	
497.15	9200.8	
497.35	11095	
497.54	11109	
497.74	9002.9	
497.94	10604	
498.14	11818	
498.34	11560	
498.53	8584.4	
498.73	9490.3	
498.93	10555	
499.13	11019	
499.33	9284.8	
499.52	9964.7	
499.72	11110	
499.92	11448	
500.12	8996.7	
500.32	9488.2	
500.51	11416	
500.71	11292	
500.91	10308	
501.11	9927.9	
501.31	11426	
501.5	11845	
501.7	10504	
501.9	9479.4	
502.1	11210	
502.29	11656	
502.49	9984.5	
502.69	10542	
502.89	11469	
503.09	11572	
503.28	8968.7	
503.48	9079.3	
503.68	10546	
503.88	10682	
504.07	10124	
504.27	9513.5	
504.47	11060	
504.67	11236	
504.86	10050	
505.06	9730.6	
505.26	10683	
505.46	12729	
505.65	9570.8	
505.85	9915.6	
506.05	10651	
506.25	11213	
506.44	8894.3	
506.64	9878	
506.84	10555	
507.04	11615	
507.23	9058.8	
507.43	9625.5	
507.63	12724	
507.83	10900	
508.02	9694.4	
508.22	9348.3	
508.42	13010	
508.62	10733	
508.81	9605	
509.01	10235	
509.21	10473	
509.4	10761	
509.6	9775.6	
509.8	9174.2	
510	10787	
510.19	12345	
510.39	9096.4	
510.59	9218.6	
510.79	10536	
510.98	12073	
511.18	9334.6	
511.38	9463.7	
511.57	11566	
511.77	11352	
511.97	10114	
512.17	9108.7	
512.36	11588	
512.56	11344	
512.76	9130.5	
512.95	8974.9	
513.15	11610	
513.35	10159	
513.55	10109	
513.74	9182.4	
513.94	11667	
514.14	10843	
514.33	10200	
514.53	9945.6	
514.73	10825	
514.92	11119	
515.12	9443.2	
515.32	9273.9	
515.51	11241	
515.71	11822	
515.91	11023	
516.11	9324.4	
516.3	13074	
516.5	10857	
516.7	9973.6	
516.89	10613	
517.09	10987	
517.29	10919	
517.48	10258	
517.68	9658.2	
517.88	10773	
518.07	11432	
518.27	10292	
518.47	9233.6	
518.66	11985	
518.86	10600	
519.06	8985.8	
519.25	9487.6	
519.45	10953	
519.65	12557	
519.84	10170	
520.04	10934	
520.24	12932	
520.43	11725	
520.63	10045	
520.83	9848	
521.02	10899	
521.22	11581	
521.42	10269	
521.61	10798	
521.81	10918	
522.01	11215	
522.2	10069	
522.4	9739.5	
522.6	11753	
522.79	10574	
522.99	9950.4	
523.18	9326.4	
523.38	11503	
523.58	11597	
523.77	11366	
523.97	9383.1	
524.17	13570	
524.36	12701	
524.56	10765	
524.76	10634	
524.95	11737	
525.15	11462	
525.34	10327	
525.54	10428	
525.74	12336	
525.93	11337	
526.13	11759	
526.33	10544	
526.52	12724	
526.72	12213	
526.91	11859	
527.11	11182	
527.31	12826	
527.5	13322	
527.7	11043	
527.89	10026	
528.09	11654	
528.29	12463	
528.48	11526	
528.68	11159	
528.87	12795	
529.07	12820	
529.27	11090	
529.46	10608	
529.66	12572	
529.85	13168	
530.05	10503	
530.25	11443	
530.44	14168	
530.64	12572	
530.83	10979	
531.03	11222	
531.23	12792	
531.42	12686	
531.62	11878	
531.81	11060	
532.01	13036	
532.21	13596	
532.4	10849	
532.6	11441	
532.79	14174	
532.99	13422	
533.18	11557	
533.38	12599	
533.58	13069	
533.77	13835	
533.97	11625	
534.16	12439	
534.36	14102	
534.55	13132	
534.75	12726	
534.95	11727	
535.14	14108	
535.34	13224	
535.53	11452	
535.73	13614	
535.92	14747	
536.12	13395	
536.31	11686	
536.51	12833	
536.71	13542	
536.9	13144	
537.1	11601	
537.29	12006	
537.49	14093	
537.68	13023	
537.88	12282	
538.07	11546	
538.27	13415	
538.46	14489	
538.66	11412	
538.86	11820	
539.05	13433	
539.25	13936	
539.44	12254	
539.64	11787	
539.83	13379	
540.03	14540	
540.22	11785	
540.42	11797	
540.61	13603	
540.81	13763	
541	12274	
541.2	12975	
541.39	13022	
541.59	13530	
541.78	12704	
541.98	11629	
542.18	12809	
542.37	12897	
542.57	12056	
542.76	12812	
542.96	12951	
543.15	13658	
543.35	12020	
543.54	11399	
543.74	13741	
543.93	13367	
544.13	11946	
544.32	13044	
544.52	13693	
544.71	12770	
544.91	11011	
545.1	12306	
545.3	12929	
545.49	13493	
545.69	10955	
545.88	11619	
546.08	14738	
546.27	14197	
546.47	12238	
546.66	11402	
546.86	13786	
547.05	14474	
547.24	11614	
547.44	11580	
547.63	12665	
547.83	13969	
548.02	11977	
548.22	12117	
548.41	12529	
548.61	14023	
548.8	11357	
549	11408	
549.19	13118	
549.39	13627	
549.58	11068	
549.78	11755	
549.97	13713	
550.17	13024	
550.36	13325	
550.55	13654	
550.75	13110	
550.94	13937	
551.14	11205	
551.33	11626	
551.53	12325	
551.72	13435	
551.92	11784	
552.11	11452	
552.31	13480	
552.5	13437	
552.69	13361	
552.89	11185	
553.08	13402	
553.28	13110	
553.47	11421	
553.67	12683	
553.86	14086	
554.06	12405	
554.25	10509	
554.44	11251	
554.64	14827	
554.83	14425	
555.03	11260	
555.22	11600	
555.42	13659	
555.61	13272	
555.8	11420	
556	11820	
556.19	12455	
556.39	13756	
556.58	11375	
556.78	11439	
556.97	13147	
557.16	12850	
557.36	12823	
557.55	11140	
557.75	12110	
557.94	14067	
558.13	11333	
558.33	11037	
558.52	13765	
558.72	12744	
558.91	11118	
559.1	11417	
559.3	12347	
559.49	11998	
559.69	10608	
559.88	11735	
560.07	13267	
560.27	13594	
560.46	11904	
560.66	12035	
560.85	12970	
561.04	12074	
561.24	11113	
561.43	11240	
561.63	12377	
561.82	12674	
562.01	12562	
562.21	11632	
562.4	13064	
562.59	14259	
562.79	11310	
562.98	11103	
563.18	13087	
563.37	14631	
563.56	11942	
563.76	11122	
563.95	12605	
564.14	12547	
564.34	11523	
564.53	11336	
564.73	13181	
564.92	13545	
565.11	11764	
565.31	11179	
565.5	13812	
565.69	12806	
565.89	11456	
566.08	11721	
566.27	13816	
566.47	14216	
566.66	12415	
566.85	11042	
567.05	13409	
567.24	12771	
567.44	11447	
567.63	12929	
567.82	13582	
568.02	13472	
568.21	11426	
568.4	11850	
568.6	13307	
568.79	13231	
568.98	11310	
569.18	11512	
569.37	13275	
569.56	15537	
569.76	11932	
569.95	13018	
570.14	13845	
570.34	13815	
570.53	11511	
570.72	11516	
570.91	14333	
571.11	13338	
571.3	11961	
571.49	12951	
571.69	13579	
571.88	13125	
572.07	12561	
572.27	12583	
572.46	13073	
572.65	14149	
572.85	11889	
573.04	12248	
573.23	14460	
573.43	13669	
573.62	11686	
573.81	12323	
574	13760	
574.2	13607	
574.39	12041	
574.58	12230	
574.78	14786	
574.97	14157	
575.16	12734	
575.36	13004	
575.55	14557	
575.74	14805	
575.93	11846	
576.13	13121	
576.32	13871	
576.51	14491	
576.71	12396	
576.9	13791	
577.09	14893	
577.28	14387	
577.48	12966	
577.67	11865	
577.86	14040	
578.05	14377	
578.25	12608	
578.44	12667	
578.63	14150	
578.83	15444	
579.02	11913	
579.21	13713	
579.4	14442	
579.6	14134	
579.79	12899	
579.98	15205	
580.17	14836	
580.37	15005	
580.56	12317	
580.75	13080	
580.94	15344	
581.14	15235	
581.33	13592	
581.52	12384	
581.71	14684	
581.91	15468	
582.1	12192	
582.29	12753	
582.48	14267	
582.68	14412	
582.87	13359	
583.06	12947	
583.25	14584	
583.45	13981	
583.64	13711	
583.83	14560	
584.02	14197	
584.21	14759	
584.41	13729	
584.6	13109	
584.79	14522	
584.98	15324	
585.18	12418	
585.37	12472	
585.56	14014	
585.75	15057	
585.94	12709	
586.14	13383	
586.33	15323	
586.52	14330	
586.71	13140	
586.91	12879	
587.1	13722	
587.29	14945	
587.48	12669	
587.67	12583	
587.87	14424	
588.06	14506	
588.25	13945	
588.44	13276	
588.63	14207	
588.83	14951	
589.02	12704	
589.21	12499	
589.4	13990	
589.59	13871	
589.78	11767	
589.98	11892	
590.17	13452	
590.36	13986	
590.55	11091	
590.74	11821	
590.94	15095	
591.13	13358	
591.32	11409	
591.51	10888	
591.7	13732	
591.89	13316	
592.09	11191	
592.28	11733	
592.47	12620	
592.66	14719	
592.85	11327	
593.05	11561	
593.24	13268	
593.43	14164	
593.62	11604	
593.81	12110	
594	13338	
594.19	13611	
594.39	11627	
594.58	11469	
594.77	13768	
594.96	14326	
595.15	11540	
595.34	12113	
595.54	13749	
595.73	12814	
595.92	10694	
596.11	11941	
596.3	14270	
596.49	12807	
596.68	11649	
596.88	12120	
597.07	13872	
597.26	12619	
597.45	10981	
597.64	12437	
597.83	13018	
598.02	13645	
598.22	11193	
598.41	12057	
598.6	13274	
598.79	12812	
598.98	11214	
599.17	12295	
599.36	13394	
599.55	14694	
599.74	13536	
599.94	13082	
600.13	14022	
600.32	12594	
600.51	10976	
600.7	11166	
600.89	14448	
601.08	14645	
601.27	10916	
601.47	12006	
601.66	13787	
601.85	14453	
602.04	11678	
602.23	11839	
602.42	12731	
602.61	13601	
602.8	11584	
602.99	11239	
603.18	13018	
603.37	13457	
603.57	11824	
603.76	12505	
603.95	14189	
604.14	13647	
604.33	11308	
604.52	11815	
604.71	13395	
604.9	13008	
605.09	12267	
605.28	12254	
605.47	14084	
605.66	13696	
605.86	12050	
606.05	11389	
606.24	13971	
606.43	12433	
606.62	11641	
606.81	12583	
607	13839	
607.19	13171	
607.38	11123	
607.57	11377	
607.76	12908	
607.95	12392	
608.14	11752	
608.33	12439	
608.52	12919	
608.72	14003	
608.91	11034	
609.1	11002	
609.29	13067	
609.48	12499	
609.67	11916	
609.86	10972	
610.05	12531	
610.24	13039	
610.43	10815	
610.62	10406	
610.81	13979	
611	13870	
611.19	10928	
611.38	11624	
611.57	13129	
611.76	14627	
611.95	10779	
612.14	10550	
612.33	12973	
612.52	12495	
612.71	11259	
612.9	10550	
613.09	12241	
613.28	14573	
613.47	11045	
613.66	12153	
613.85	13049	
614.04	12661	
614.24	11095	
614.43	10299	
614.62	13265	
614.81	13155	
615	11742	
615.19	11720	
615.38	12420	
615.57	13023	
615.76	11564	
615.95	12644	
616.14	13477	
616.33	13131	
616.52	11943	
616.71	12282	
616.9	13218	
617.09	13147	
617.28	11248	
617.47	12853	
617.66	12365	
617.85	12385	
618.04	12286	
618.22	11766	
618.41	12943	
618.6	13864	
618.79	11630	
618.98	11471	
619.17	14280	
619.36	12559	
619.55	11669	
619.74	11636	
619.93	13520	
620.12	12977	
620.31	12399	
620.5	12510	
620.69	14268	
620.88	14711	
621.07	13349	
621.26	12325	
621.45	13978	
621.64	13973	
621.83	12481	
622.02	11687	
622.21	13992	
622.4	13743	
622.59	13078	
622.78	12845	
622.97	13397	
623.16	14489	
623.35	12499	
623.54	11606	
623.72	13628	
623.91	13837	
624.1	12840	
624.29	11487	
624.48	14856	
624.67	14080	
624.86	12837	
625.05	11802	
625.24	15126	
625.43	13370	
625.62	14570	
625.81	12081	
626	14362	
626.19	13757	
626.38	13067	
626.56	12311	
626.75	13556	
626.94	14520	
627.13	12861	
627.32	11584	
627.51	14440	
627.7	15859	
627.89	11651	
628.08	12913	
628.27	13375	
628.46	13511	
628.65	11907	
628.83	11718	
629.02	14205	
629.21	13578	
629.4	12497	
629.59	12631	
629.78	13401	
629.97	14358	
630.16	12702	
630.35	12196	
630.54	14949	
630.72	14580	
630.91	12195	
631.1	12717	
631.29	14038	
631.48	14291	
631.67	12859	
631.86	12104	
632.05	13567	
632.24	13723	
632.42	11716	
632.61	12585	
632.8	13842	
632.99	13335	
633.18	12485	
633.37	12909	
633.56	14070	
633.75	13801	
633.93	12460	
634.12	12221	
634.31	14745	
634.5	14558	
634.69	12324	
634.88	12678	
635.07	13819	
635.25	14445	
635.44	13216	
635.63	13521	
635.82	13572	
636.01	13136	
636.2	13028	
636.39	12606	
636.57	14835	
636.76	14356	
636.95	11905	
637.14	13321	
637.33	14104	
637.52	15166	
637.7	11690	
637.89	12830	
638.08	13682	
638.27	15129	
638.46	12804	
638.65	13289	
638.83	15051	
639.02	13394	
639.21	12650	
639.4	13275	
639.59	13761	
639.78	13424	
639.96	11787	
640.15	11901	
640.34	13685	
640.53	13676	
640.72	11422	
640.91	11805	
641.09	13000	
641.28	14462	
641.47	11701	
641.66	12628	
641.85	13672	
642.03	13943	
642.22	12340	
642.41	11899	
642.6	13229	
642.79	12416	
642.97	11489	
643.16	12465	
643.35	13059	
643.54	12850	
643.73	11356	
643.91	12342	
644.1	12529	
644.29	13345	
644.48	11445	
644.67	11591	
644.85	12710	
645.04	13166	
645.23	10913	
645.42	11390	
645.6	12494	
645.79	13704	
645.98	11121	
646.17	10093	
646.36	11917	
646.54	12625	
646.73	11722	
646.92	10678	
647.11	12198	
647.29	13448	
647.48	10758	
647.67	10433	
647.86	13511	
648.05	13659	
648.23	10953	
648.42	12372	
648.61	12903	
648.8	12557	
648.98	10531	
649.17	10839	
649.36	12060	
649.55	11652	
649.73	10466	
649.92	11484	
650.11	12019	
650.3	12465	
650.48	10762	
650.67	10652	
650.86	12709	
651.05	11602	
651.23	10743	
651.42	10718	
651.61	12145	
651.79	12047	
651.98	10819	
652.17	10507	
652.36	12462	
652.54	11539	
652.73	10458	
652.92	10330	
653.11	12529	
653.29	12613	
653.48	9796.8	
653.67	10817	
653.85	12240	
654.04	13352	
654.23	10940	
654.42	10460	
654.6	11477	
654.79	12355	
654.98	9737.4	
655.16	10292	
655.35	11024	
655.54	10895	
655.73	9478.7	
655.91	9360.6	
656.1	11899	
656.29	10634	
656.47	8942.1	
656.66	10789	
656.85	11110	
657.03	11207	
657.22	9829.6	
657.41	10015	
657.59	11494	
657.78	11303	
657.97	9667.1	
658.16	10428	
658.34	12155	
658.53	12598	
658.72	11332	
658.9	11804	
659.09	11546	
659.28	11605	
659.46	10167	
659.65	10115	
659.84	11429	
660.02	11994	
660.21	9876	
660.4	10020	
660.58	12521	
660.77	11868	
660.96	10580	
661.14	9594.1	
661.33	12970	
661.52	12839	
661.7	9630.2	
661.89	13552	
662.08	11406	
662.26	11060	
662.45	9794.8	
662.64	9906.7	
662.82	12072	
663.01	11182	
663.2	9905.3	
663.38	10826	
663.57	11882	
663.75	11673	
663.94	10263	
664.13	11557	
664.31	11211	
664.5	12070	
664.69	10432	
664.87	11136	
665.06	10934	
665.25	11777	
665.43	11326	
665.62	11611	
665.8	12168	
665.99	11349	
666.18	10174	
666.36	10368	
666.55	12021	
666.74	12010	
666.92	9894.4	
667.11	11571	
667.29	11406	
667.48	12064	
667.67	11122	
667.85	10157	
668.04	11415	
668.22	11515	
668.41	10316	
668.6	10383	
668.78	11163	
668.97	11417	
669.15	10659	
669.34	9496.4	
669.53	11281	
669.71	11671	
669.9	9766.1	
670.08	10492	
670.27	11212	
670.46	11801	
670.64	10589	
670.83	10966	
671.01	10990	
671.2	11729	
671.38	9854.8	
671.57	9694.4	
671.76	12540	
671.94	13059	
672.13	9607.7	
672.31	10735	
672.5	12096	
672.69	11203	
672.87	9880.8	
673.06	10216	
673.24	11872	
673.43	11301	
673.61	10467	
673.8	10098	
673.98	11944	
674.17	12131	
674.36	10733	
674.54	10585	
674.73	11719	
674.91	11900	
675.1	10289	
675.28	9817.3	
675.47	11463	
675.65	12054	
675.84	10091	
676.03	10462	
676.21	11155	
676.4	10667	
676.58	10984	
676.77	10758	
676.95	12693	
677.14	11101	
677.32	9773.6	
677.51	9572.2	
677.69	11996	
677.88	10892	
678.06	9665.7	
678.25	9821.4	
678.44	11555	
678.62	11162	
678.81	9477.3	
678.99	10592	
679.18	12401	
679.36	11964	
679.55	10102	
679.73	10675	
679.92	11917	
680.1	11212	
680.29	11292	
680.47	10185	
680.66	11151	
680.84	11949	
681.03	9336	
681.21	10456	
681.4	11222	
681.58	11125	
681.77	9825.5	
681.95	9785.9	
682.14	12107	
682.32	12369	
682.51	10722	
682.69	9562.6	
682.88	11154	
683.06	11759	
683.25	10413	
683.43	10920	
683.62	11394	
683.8	11846	
683.99	10946	
684.17	10294	
684.36	12732	
684.54	11267	
684.73	9330.5	
684.91	9513.5	
685.1	11598	
685.28	10783	
685.46	9874.6	
685.65	9882.8	
685.83	11232	
686.02	10572	
686.2	8980.3	
686.39	9258.9	
686.57	10357	
686.76	12157	
686.94	9274.6	
687.13	9561.3	
687.31	11255	
687.5	10884	
687.68	8913.4	
687.86	10348	
688.05	12760	
688.23	10407	
688.42	10317	
688.6	9537.4	
688.79	10877	
688.97	10907	
689.16	10072	
689.34	8774.2	
689.52	11724	
689.71	12011	
689.89	10310	
690.08	9511.4	
690.26	11275	
690.45	11183	
690.63	10600	
690.81	9919	
691	10993	
691.18	11013	
691.37	9955.2	
691.55	12200	
691.74	10957	
691.92	13003	
692.1	9996.8	
692.29	9161.9	
692.47	11025	
692.66	10347	
692.84	9408.4	
693.02	10110	
693.21	10451	
693.39	10852	
693.58	10214	
693.76	9631.6	
693.94	12258	
694.13	12174	
694.31	9670.5	
694.5	10831	
694.68	10991	
694.86	11311	
695.05	10172	
695.23	10694	
695.42	11898	
695.6	14355	
695.78	10980	
695.97	10063	
696.15	11946	
696.34	11297	
696.52	9755.8	
696.7	10539	
696.89	11674	
697.07	10961	
697.25	10411	
697.44	12061	
697.62	11481	
697.81	11904	
697.99	9974.3	
698.17	10479	
698.36	10768	
698.54	11521	
698.72	10479	
698.91	9280.7	
699.09	11071	
699.28	10944	
699.46	9965.4	
699.64	9817.3	
699.83	10744	
700.01	12123	
700.19	10642	
700.38	9058.8	
700.56	12039	
700.74	10918	
700.93	9386.5	
701.11	10366	
701.29	11559	
701.48	12635	
701.66	9727.2	
701.84	9813.2	
702.03	11235	
702.21	11966	
702.39	9346.9	
702.58	10088	
702.76	11583	
702.94	11798	
703.13	9307.3	
703.31	12099	
703.49	10817	
703.68	11858	
703.86	9533.3	
704.04	10628	
704.23	11290	
704.41	11712	
704.59	9707.4	
704.78	10940	
704.96	12564	
705.14	11887	
705.33	9433.6	
705.51	10358	
705.69	11190	
705.87	12067	
706.06	10761	
706.24	9377.6	
706.42	11432	
706.61	11835	
706.79	10673	
706.97	9417.2	
707.16	10879	
707.34	11442	
707.52	10529	
707.7	9644.6	
707.89	11017	
708.07	10839	
708.25	10552	
708.44	10725	
708.62	10843	
708.8	12107	
708.98	10811	
709.17	9784.5	
709.35	11219	
709.53	11308	
709.72	9398.1	
709.9	9773.6	
710.08	11501	
710.26	11650	
710.45	11103	
710.63	9627.5	
710.81	11147	
710.99	11168	
711.18	10130	
711.36	9696.4	
711.54	10975	
711.72	11684	
711.91	9699.9	
712.09	9112.8	
712.27	11021	
712.45	11736	
712.64	9827.5	
712.82	8753	
713	10315	
713.18	10380	
713.37	8890.2	
713.55	10149	
713.73	11439	
713.91	9757.2	
714.1	9114.1	
714.28	8424	
714.46	10692	
714.64	9768.8	
714.83	7544	
715.01	8219.2	
715.19	9300.5	
715.37	8755.7	
715.55	7758.4	
715.74	7989.1	
715.92	10193	
716.1	8113.4	
716.28	9130.5	
716.47	8035.5	
716.65	8684.8	
716.83	8844.5	
717.01	7775.5	
717.19	7905.2	
717.38	10892	
717.56	8395.3	
717.74	8086.7	
717.92	7159.7	
718.1	9644.6	
718.29	8879.3	
718.47	6801.3	
718.65	7523.6	
718.83	9805	
719.01	9735.4	
719.2	6997.9	
719.38	8233.5	
719.56	9624.8	
719.74	11310	
719.92	7760.4	
720.11	8996.7	
720.29	9641.8	
720.47	8669.7	
720.65	7301.7	
720.83	8046.5	
721.02	8813.1	
721.2	8441.7	
721.38	7844.4	
721.56	7031.4	
721.74	7908.6	
721.92	8111.3	
722.11	8303.1	
722.29	8051.2	
722.47	9352.4	
722.65	8515.5	
722.83	6922.1	
723.01	7937.2	
723.2	8515.5	
723.38	8905.3	
723.56	6357.6	
723.74	7590.5	
723.92	7985	
724.1	9263.6	
724.29	6979.5	
724.47	8162.5	
724.65	8114.1	
724.83	8029.4	
725.01	6701.6	
725.19	7638.9	
725.37	7935.2	
725.56	8029.4	
725.74	6623.1	
725.92	6885.3	
726.1	7897	
726.28	8233.5	
726.46	7220.5	
726.64	6965.8	
726.83	8071.7	
727.01	8476.5	
727.19	6411.5	
727.37	7437.5	
727.55	8244.4	
727.73	8785.1	
727.91	6313.2	
728.09	6227.9	
728.28	8876.6	
728.46	9435.7	
728.64	7507.2	
728.82	7339.2	
729	9980.4	
729.18	9190.6	
729.36	6617	
729.54	9009	
729.72	10346	
729.91	8512.7	
730.09	8613.1	
730.27	7359	
730.45	8355	
730.63	9088.2	
730.81	7927.7	
730.99	7032.7	
731.17	9641.8	
731.35	8103.8	
731.53	7564.5	
731.71	7231.4	
731.9	9374.9	
732.08	9530.6	
732.26	7247.1	
732.44	7013.6	
732.62	9454.1	
732.8	8908.7	
732.98	7759.1	
733.16	6733	
733.34	8901.2	
733.52	7489.4	
733.7	7177.4	
733.88	7485.3	
734.07	8551.6	
734.25	8340.7	
734.43	6542.6	
734.61	8307.9	
734.79	9992	
734.97	8260.1	
735.15	6794.5	
735.33	7032.7	
735.51	8507.3	
735.69	8133.2	
735.87	8231.5	
736.05	7302.4	
736.23	8343.4	
736.41	8094.3	
736.59	7032	
736.77	7093.5	
736.95	8820.6	
737.13	8204.2	
737.32	6609.5	
737.5	6803.4	
737.68	9293	
737.86	8030.8	
738.04	6291.4	
738.22	8334.6	
738.4	7730.4	
738.58	8041.7	
738.76	7070.3	
738.94	5885.2	
739.12	7850.5	
739.3	7646.4	
739.48	7482.6	
739.66	7262.1	
739.84	8063.5	
740.02	8092.9	
740.2	5930.2	
740.38	6245.6	
740.56	8529.8	
740.74	7296.9	
740.92	6860.7	
741.1	6797.9	
741.28	7783	
741.46	7632.1	
741.64	6341.9	
741.82	6922.1	
742	7734.5	
742.18	7692.2	
742.36	6561.7	
742.54	6144.6	
742.72	8312.7	
742.9	6922.8	
743.08	6953.5	
743.26	5604.6	
743.44	8441.7	
743.62	8314.1	
743.8	7020.4	
743.98	6019	
744.16	8008.2	
744.34	7625.3	
744.52	6896.2	
744.7	6821.1	
744.88	8071	
745.06	7533.1	
745.24	6892.1	
745.42	6997.2	
745.6	8021.9	
745.78	7806.9	
745.96	5556.8	
746.14	5934.3	
746.32	8862.2	
746.5	8067.6	
746.68	6527.6	
746.86	5934.3	
747.03	8503.8	
747.21	6590.4	
747.39	6434.7	
747.57	5847	
747.75	7509.2	
747.93	7955.7	
748.11	5776	
748.29	5732.3	
748.47	9098.4	
748.65	7220.5	
748.83	6566.5	
749.01	6254.5	
749.19	7707.2	
749.37	6746	
749.55	6113.2	
749.73	6070.9	
749.91	7283.9	
750.09	6954.9	
750.26	6142.5	
750.44	5560.2	
750.62	7311.9	
750.8	7260	
750.98	5384.1	
751.16	5726.1	
751.34	7363.1	
751.52	6587.6	
751.7	6557.6	
751.88	5270.8	
752.06	7869	
752.24	7581.6	
752.42	5202.5	
752.59	5631.2	
752.77	7124.9	
752.95	8469.7	
753.13	6369.9	
753.31	5687.2	
753.49	6797.9	
753.67	7286	
753.85	5966.4	
754.03	5545.9	
754.21	7492.2	
754.38	7875.1	
754.56	5699.5	
754.74	4573.8	
754.92	6670.9	
755.1	7320.1	
755.28	4571.1	
755.46	4582.7	
755.64	8097.7	
755.82	8090.2	
755.99	4836.6	
756.17	4863.2	
756.35	5439.4	
756.53	7129	
756.71	3622.9	
756.89	4668	
757.07	6610.8	
757.25	5563	
757.42	5235.3	
757.6	6152.1	
757.78	6716	
757.96	5586.2	
758.14	4928.1	
758.32	4400.4	
758.5	5135.6	
758.67	6073.6	
758.85	4758.8	
759.03	4942.4	
759.21	6330.3	
759.39	5685.2	
759.57	4276.2	
759.75	5518.6	
759.92	6937.8	
760.1	6150.1	
760.28	5928.2	
760.46	6207.4	
760.64	5940.5	
760.82	5597.8	
760.99	5774.6	
761.17	4901.5	
761.35	6802	
761.53	5760.9	
761.71	4982.7	
761.89	5726.8	
762.06	6695.5	
762.24	6068.1	
762.42	5087.8	
762.6	4927.4	
762.78	6126.8	
762.96	6838.9	
763.13	5496.1	
763.31	5129.5	
763.49	6984.9	
763.67	5992.4	
763.85	6027.2	
764.02	6624.5	
764.2	7262.1	
764.38	6454.5	
764.56	5010	
764.74	5920	
764.91	7411.6	
765.09	6207.4	
765.27	4595.6	
765.45	4422.2	
765.63	7387	
765.8	7300.3	
765.98	4047.5	
766.16	4469.4	
766.34	5720.7	
766.52	5464	
766.69	5533.6	
766.87	4285	
767.05	6136.4	
767.23	7038.9	
767.41	4656.4	
767.58	4924	
767.76	6691.4	
767.94	6825.9	
768.12	4717.2	
768.29	5458.5	
768.47	6169.2	
768.65	6953.5	
768.83	4262.5	
769	5625.8	
769.18	5704.3	
769.36	6441.5	
769.54	5511.8	
769.72	4353.3	
769.89	6690	
770.07	6906.4	
770.25	4603.2	
770.43	6062	
770.6	7525.6	
770.78	7906.5	
770.96	4920.6	
771.14	5508.4	
771.31	6630	
771.49	5969.8	
771.67	3928.7	
771.85	4282.3	
772.02	5111.7	
772.2	5959.6	
772.38	5051	
772.55	4469.4	
772.73	6211.5	
772.91	6014.9	
773.09	4805.2	
773.26	4960.2	
773.44	6163	
773.62	5773.2	
773.8	4345.1	
773.97	4066.6	
774.15	6262	
774.33	5815.5	
774.5	4201.1	
774.68	4691.2	
774.86	6441.5	
775.04	5868.1	
775.21	4285.7	
775.39	4334.2	
775.57	6124.8	
775.74	6619	
775.92	4127.3	
776.1	4066.6	
776.27	6075	
776.45	7360.4	
776.63	4334.2	
776.81	3807.9	
776.98	5694.7	
777.16	6883.9	
777.34	4464.6	
777.51	4744.5	
777.69	5688.6	
777.87	5425.1	
778.04	4435.9	
778.22	5203.9	
778.4	5451.7	
778.57	6221	
778.75	3673.4	
778.93	4022.2	
779.1	5192.3	
779.28	5158.8	
779.46	3689.8	
779.64	4302.8	
779.81	6328.2	
779.99	7326.9	
780.17	5125.4	
780.34	5335	
780.52	5763	
780.69	6039.5	
780.87	4538.3	
781.05	4079.6	
781.22	5847	
781.4	5916.6	
781.58	4275.5	
781.75	3398.9	
781.93	5759.6	
782.11	5200.5	
782.28	5197.1	
782.46	4294.6	
782.64	5028.4	
782.81	6065.4	
782.99	4387.4	
783.17	4297.3	
783.34	5903.6	
783.52	5076.2	
783.69	4604.5	
783.87	5372.5	
784.05	5197.1	
784.22	5183.4	
784.4	5367	
784.58	4619.5	
784.75	6209.4	
784.93	5213.4	
785.1	4273.4	
785.28	4930.1	
785.46	6019	
785.63	5229.8	
785.81	4182	
785.99	4049.5	
786.16	5352.7	
786.34	5797.8	
786.51	4112.3	
786.69	4560.8	
786.87	4933.6	
787.04	5474.2	
787.22	3929.4	
787.39	5014.1	
787.57	5153.4	
787.75	6376.7	
787.92	5147.2	
788.1	5214.1	
788.27	5326.8	
788.45	4939.7	
788.63	4872.1	
788.8	3437.2	
788.98	5614.8	
789.15	4929.5	
789.33	3665.9	
789.5	4304.1	
789.68	6165.8	
789.86	6296.8	
790.03	4738.3	
790.21	4182.6	
790.38	6194.4	
790.56	5364.3	
790.73	3982.6	
790.91	4020.2	
791.09	5208	
791.26	6001.2	
791.44	4255	
791.61	3618.1	
791.79	5194.3	
791.96	5251	
792.14	3761.4	
792.32	3315.7	
792.49	5181.4	
792.67	5360.2	
792.84	3912.3	
793.02	3649.5	
793.19	5988.9	
793.37	6485.9	
793.54	3334.1	
793.72	3768.9	
793.89	6585.6	
794.07	5225.7	
794.25	4427	
794.42	3404.4	
794.6	6298.2	
794.77	5870.2	
794.95	4722.6	
795.12	4086.4	
795.3	5210	
795.47	5898.8	
795.65	4431.8	
795.82	4327.4	
796	5032.5	
796.17	7104.4	
796.35	4132.1	
796.52	4935.6	
796.7	5764.3	
796.87	5873.6	
797.05	5157.5	
797.22	5134.3	
797.4	5833.3	
797.57	6937.2	
797.75	4197	
797.92	4071.4	
798.1	6153.5	
798.27	5214.1	
798.45	3422.2	
798.62	3714.3	
798.8	5584.8	
798.97	6092.7	
799.15	4612	
799.32	4350.6	
799.5	4732.2	
799.67	5567.1	
799.85	4637.3	
800.02	3371	
800.2	5152.7	
800.37	5503.6	
800.55	4874.2	
800.72	4039.3	
800.9	5958.2	
801.07	6472.9	
801.25	5469.4	
801.42	4413.4	
801.6	6075	
801.77	5776.6	
801.95	4072	
802.12	3919.1	
802.29	5744.6	
802.47	5699.5	
802.64	4403.8	
802.82	3284.9	
802.99	5147.2	
803.17	6200.6	
803.34	4248.2	
803.52	3851.5	
803.69	6960.4	
803.87	4914.4	
804.04	4252.3	
804.21	4377.2	
804.39	6329.6	
804.56	5373.2	
804.74	3620.1	
804.91	4430.4	
805.09	5151.3	
805.26	5313.8	
805.44	3680.2	
805.61	4005.1	
805.78	5839.4	
805.96	5923.4	
806.13	4445.5	
806.31	4826.4	
806.48	4694.6	
806.66	5270.1	
806.83	4362.2	
807	4364.9	
807.18	5174.5	
807.35	5566.4	
807.53	4246.8	
807.7	3402.4	
807.87	6452.5	
808.05	5207.3	
808.22	4735.6	
808.4	3408.5	
808.57	5162.2	
808.74	4878.3	
808.92	3902.1	
809.09	4999.8	
809.27	5023.7	
809.44	5780.1	
809.61	3527.3	
809.79	3880.9	
809.96	6420.4	
810.14	6047.7	
810.31	3354.6	
810.48	4081.6	
810.66	5323.4	
810.83	6117.3	
811.01	4186	
811.18	4415.4	
811.35	5996.5	
811.53	4699.4	
811.7	4750.6	
811.87	4379.2	
812.05	5171.1	
812.22	5119.9	
812.39	3801.7	
812.57	3699.3	
812.74	5250.3	
812.92	7030	
813.09	4119.8	
813.26	4479.6	
813.44	6720.8	
813.61	5111	
813.78	3502.7	
813.96	4653.7	
814.13	5255.8	
814.3	4814.8	
814.48	4974.5	
814.65	4137.6	
814.82	6547.4	
815	5003.2	
815.17	4218.1	
815.34	5184.1	
815.52	5158.2	
815.69	5137.7	
815.87	4175.8	
816.04	3629	
816.21	5217.5	
816.38	4534.2	
816.56	4067.9	
816.73	3779.9	
816.9	6661.4	
817.08	5982.8	
817.25	3840.6	
817.42	4869.4	
817.6	4770.4	
817.77	5244.8	
817.94	4371	
818.12	3736.2	
818.29	4973.8	
818.46	7815	
818.64	4016.1	
818.81	3709.6	
818.98	4851.6	
819.16	7114.6	
819.33	4592.2	
819.5	4216.8	
819.67	5590.3	
819.85	6276.3	
820.02	4108.2	
820.19	4431.8	
820.37	5455.8	
820.54	4962.2	
820.71	4309.6	
820.88	5374.6	
821.06	5457.2	
821.23	4943.8	
821.4	4302.8	
821.58	4214.7	
821.75	5941.8	
821.92	5332.9	
822.09	3379.8	
822.27	3654.3	
822.44	5214.8	
822.61	5067.4	
822.79	3508.2	
822.96	6743.3	
823.13	5736.4	
823.3	4944.5	
823.48	3999	
823.65	3653.6	
823.82	5961.6	
823.99	4707.6	
824.17	5131.5	
824.34	3696.6	
824.51	6881.9	
824.68	5233.2	
824.86	3811.3	
825.03	4350.6	
825.2	5162.9	
825.37	6455.2	
825.55	3858.4	
825.72	4242	
825.89	6992.4	
826.06	6494.1	
826.24	4142.4	
826.41	4134.8	
826.58	6378.1	
826.75	5579.3	
826.92	3232.4	
827.1	3641.3	
827.27	8741.4	
827.44	6986.3	
827.61	3932.1	
827.79	4776.5	
827.96	4932.2	
828.13	5330.9	
828.3	4108.2	
828.47	3488.4	
828.65	5395.7	
828.82	5431.2	
828.99	5306.3	
829.16	4693.9	
829.34	5898.2	
829.51	5566.4	
829.68	4302.1	
829.85	4474.1	
830.02	6108.4	
830.2	5840.1	
830.37	3257.6	
830.54	5135.6	
830.71	6705	
830.88	5115.8	
831.05	3321.1	
831.23	3878.2	
831.4	6423.1	
831.57	7181.5	
831.74	3951.9	
831.91	3445.4	
832.09	5399.1	
832.26	5758.2	
832.43	4053.6	
832.6	4607.2	
832.77	5446.9	
832.94	6283.9	
833.12	3170.3	
833.29	4005.1	
833.46	5612.8	
833.63	7445	
833.8	4407.9	
833.97	4084.3	
834.15	5894.1	
834.32	5618.9	
834.49	4267.3	
834.66	4369	
834.83	6087.9	
835	4926	
835.17	3909.6	
835.35	3983.3	
835.52	5698.1	
835.69	5560.2	
835.86	4224.3	
836.03	3394.2	
836.2	5793	
836.37	5396.4	
836.55	4007.9	
836.72	3839.9	
836.89	5373.2	
837.06	5897.5	
837.23	4154	
837.4	4530.1	
837.57	6711.2	
837.75	7471.7	
837.92	3753.2	
838.09	4014.7	
838.26	5384.1	
838.43	6146	
838.6	4248.9	
838.77	3842.7	
838.94	7088	
839.11	6771.3	
839.29	4047.5	
839.46	3194.8	
839.63	5781.4	
839.8	5497.4	
839.97	3887.7	
840.14	3943.7	
840.31	5574.6	
840.48	5788.2	
840.65	3214.6	
840.82	4031.8	
841	5802.6	
841.17	5801.9	
841.34	3624.9	
841.51	3665.9	
841.68	5730.2	
841.85	5406.6	
842.02	3775.8	
842.19	3076.7	
842.36	5522.7	
842.53	5524.1	
842.7	3629.7	
842.87	4519.2	
843.05	7353.6	
843.22	5489.9	
843.39	3422.2	
843.56	3691.8	
843.73	5202.5	
843.9	5916.6	
844.07	5957.5	
844.24	4960.9	
844.41	8634.9	
844.58	5081.7	
844.75	3525.2	
844.92	3835.2	
845.09	5834.7	
845.26	5819	
845.43	3635.8	
845.6	3839.9	
845.77	5851.7	
845.94	5484.5	
846.12	4055.7	
846.29	4285.7	
846.46	5949.3	
846.63	5828.5	
846.8	3607.8	
846.97	4272.1	
847.14	6369.9	
847.31	5758.9	
847.48	4083	
847.65	4521.2	
847.82	6085.9	
847.99	6077	
848.16	4880.3	
848.33	4478.2	
848.5	5316.5	
848.67	6347.3	
848.84	3586	
849.01	3791.5	
849.18	5167.7	
849.35	4838	
849.52	4529.4	
849.69	3508.9	
849.86	5973.9	
850.03	6297.5	
850.2	3666.5	
850.37	4509.6	
850.54	6214.2	
850.71	5456.5	
850.88	4345.1	
851.05	3585.3	
851.22	5717.9	
851.39	6412.9	
851.56	3362.8	
851.73	4166.3	
851.9	5037.3	
852.07	6061.3	
852.24	4005.8	
852.41	3544.4	
852.58	5600.5	
852.75	5141.1	
852.92	4031.1	
853.09	3511.6	
853.26	5412.8	
853.43	6238.1	
853.6	3618.8	
853.77	3097.9	
853.94	6404.7	
854.11	5728.2	
854.28	5439.4	
854.44	3932.1	
854.61	6763.8	
854.78	6145.3	
854.95	3585.3	
855.12	4576.5	
855.29	4646.8	
855.46	6411.5	
855.63	3645.4	
855.8	5029.8	
855.97	5311.1	
856.14	6150.1	
856.31	5076.9	
856.48	3949.8	
856.65	5271.5	
856.82	5048.9	
856.99	3478.8	
857.16	3880.9	
857.33	7115.3	
857.49	5445.5	
857.66	3908.9	
857.83	4147.8	
858	5408.7	
858.17	5665.4	
858.34	3390.8	
858.51	3624.2	
858.68	6543.9	
858.85	6536.4	
859.02	4225.6	
859.19	4507.6	
859.36	5084.4	
859.52	5142.4	
859.69	3573	
859.86	4205.8	
860.03	5124.7	
860.2	6377.4	
860.37	3274	
860.54	3656.3	
860.71	6049.7	
860.88	6506.4	
861.05	4019.5	
861.21	4591.5	
861.38	6537.1	
861.55	4937	
861.72	3252.9	
861.89	4078.2	
862.06	6090.7	
862.23	6621.1	
862.4	3510.2	
862.56	3720.5	
862.73	5881.1	
862.9	5582.1	
863.07	4250.9	
863.24	3237.8	
863.41	4940.4	
863.58	5111.7	
863.75	3714.3	
863.91	4149.9	
864.08	6475.7	
864.25	5982.1	
864.42	4541	
864.59	5078.3	
864.76	6774	
864.93	5042.8	
865.09	3499.3	
865.26	3829.7	
865.43	6319.3	
865.6	6726.2	
865.77	3179.1	
865.94	3557.3	
866.1	6442.9	
866.27	6066.1	
866.44	5494	
866.61	3414.6	
866.78	5468.1	
866.95	5945.3	
867.11	3536.2	
867.28	3169.6	
867.45	6146	
867.62	5122	
867.79	4148.5	
867.96	3565.5	
868.12	5140.4	
868.29	6108.4	
868.46	3078.8	
868.63	4831.8	
868.8	6229.2	
868.97	5992.4	
869.13	3749.8	
869.3	3755.3	
869.47	5937.1	
869.64	6181.5	
869.81	3586	
869.97	3659	
870.14	5808.7	
870.31	6505	
870.48	3599	
870.65	4587.4	
870.81	5414.8	
870.98	5347.9	
871.15	4057	
871.32	3746.4	
871.48	5931.6	
871.65	6481.8	
871.82	3558.7	
871.99	3956	
872.16	6984.9	
872.32	6380.1	
872.49	3589.4	
872.66	3642.7	
872.83	6017.6	
872.99	5261.2	
873.16	4169.7	
873.33	3551.2	
873.5	5677.7	
873.67	5671.5	
873.83	3775.1	
874	4883	
874.17	5814.2	
874.34	6978.8	
874.5	4610	
874.67	4506.2	
874.84	6488.6	
875.01	5048.9	
875.17	5096	
875.34	3519.8	
875.51	5677.7	
875.68	6897.6	
875.84	4375.8	
876.01	5307	
876.18	6030.6	
876.34	5900.2	
876.51	3631	
876.68	3514.3	
876.85	5468.1	
877.01	6337.1	
877.18	5190.2	
877.35	3544.4	
877.52	5528.8	
877.68	4978.6	
877.85	3484.3	
878.02	3535.5	
878.18	5544.5	
878.35	5255.1	
878.52	2850.8	
878.69	4063.9	
878.85	6045.6	
879.02	6013.5	
879.19	5075.5	
879.35	3860.4	
879.52	6045.6	
879.69	6227.2	
879.86	3099.9	
880.02	4001	
880.19	5494	
880.36	6836.8	
880.52	4159.4	
880.69	4306.9	
880.86	6058.6	
881.02	6219.7	
881.19	3928	
881.36	3890.5	
881.52	5927.5	
881.69	5322.7	
881.86	3863.2	
882.02	3749.1	
882.19	6234	
882.36	7374.1	
882.52	3646.1	
882.69	5038.7	
882.86	5737	
883.02	5595.7	
883.19	4427.7	
883.36	4118.5	
883.52	6081.8	
883.69	7026.6	
883.86	3613.3	
884.02	3253.5	
884.19	6083.1	
884.36	5552.7	
884.52	4057.7	
884.69	3808.5	
884.86	5323.4	
885.02	6703.7	
885.19	4048.2	
885.36	4211.3	
885.52	5546.6	
885.69	5750.7	
885.86	5250.3	
886.02	4648.9	
886.19	6133	
886.35	5551.4	
886.52	3923.9	
886.69	5108.3	
886.85	5102.9	
887.02	6457.2	
887.19	6457.2	
887.35	6457.2	
887.52	6457.2	
887.68	6457.2	
887.85	6457.2	
888.02	6457.2	
888.18	6457.2	
888.35	6457.2	
888.51	6457.2	
888.68	6457.2	
888.85	6457.2	
889.01	6457.2	
889.18	6457.2	
889.35	6457.2	
889.51	6457.2	
889.68	6457.2	
889.84	6457.2	
890.01	6457.2	
890.17	6457.2	
890.34	6457.2	
890.51	6457.2	
890.67	6457.2	
890.84	6457.2	
891	6457.2	
891.17	6457.2	
891.34	6457.2	
891.5	6457.2	
891.67	6457.2	
891.83	6457.2	
892	6457.2	
892.16	6457.2	
892.33	6457.2	
892.5	6457.2	
892.66	6457.2	
892.83	6457.2	
892.99	6457.2	
893.16	6457.2	
893.32	6457.2	
893.49	6457.2	
893.65	6457.2	
893.82	6457.2	
893.99	6457.2	
894.15	6457.2	
894.32	6457.2	
894.48	6457.2	
894.65	6457.2	
894.81	6457.2	
894.98	6457.2	
895.14	6457.2	
895.31	6457.2	
895.47	6457.2	
895.64	6457.2	
895.81	6457.2	
895.97	6457.2	
896.14	6457.2	
896.3	6457.2	
896.47	6457.2	
896.63	6457.2	
896.8	6457.2	
896.96	6457.2	
897.13	6457.2	
897.29	6457.2	
897.46	6457.2	
897.62	6457.2	
897.79	6457.2	
897.95	6457.2	
898.12	6457.2	
898.28	6457.2	
898.45	6457.2	
898.61	6457.2	
898.78	6457.2	
898.94	6457.2	
899.11	6457.2	
899.27	6457.2	
899.44	6457.2	
899.6	6457.2	
899.77	6457.2	
899.93	6457.2	
900.1	6457.2	
900.26	6457.2	
900.43	6457.2	
900.59	6457.2	
900.76	6457.2	
900.92	6457.2	
901.09	6457.2	
901.25	6457.2	
901.42	6457.2	
901.58	6457.2	
901.75	6457.2	
901.91	6457.2	
902.07	6457.2	
902.24	6457.2	
902.4	6457.2	
902.57	6457.2	
902.73	6457.2	
902.9	6457.2	
903.06	6457.2	
903.23	6457.2	
903.39	6457.2	
903.56	6457.2	
903.72	6457.2	
903.88	6457.2	
904.05	6457.2	
904.21	6457.2	
904.38	6457.2	
904.54	6457.2	
904.71	6457.2	
904.87	6457.2	
905.03	6457.2	
905.2	6457.2	
905.36	6457.2	
905.53	6457.2	
905.69	6457.2	
905.86	6457.2	
906.02	6457.2	
906.18	6457.2	
906.35	6457.2	
906.51	6457.2	
906.68	6457.2	
906.84	6457.2	
907.01	6457.2	
907.17	6457.2	
907.33	6457.2	
907.5	6457.2	
907.66	6457.2	
907.83	6457.2	
907.99	6457.2	
908.15	6457.2	
908.32	6457.2	
908.48	6457.2	
908.65	6457.2	
908.81	6457.2	
908.97	6457.2	
909.14	6457.2	
909.3	6457.2	
909.47	6457.2	
909.63	6457.2	
909.79	6457.2	
909.96	6457.2	
910.12	6457.2	
910.28	6457.2	
910.45	6457.2	
910.61	6457.2	
910.78	6457.2	
910.94	6457.2	
911.1	6457.2	
911.27	6457.2	
911.43	6457.2	
911.59	6457.2	
911.76	6457.2	
911.92	6457.2	
912.08	6457.2	
912.25	6457.2	
912.41	6457.2	
912.57	6457.2	
912.74	6457.2	
912.9	6457.2	
913.07	6457.2	
913.23	6457.2	
913.39	6457.2	
913.56	6457.2	
913.72	6457.2	
913.88	6457.2	
914.05	6457.2	
914.21	6457.2	
914.37	6457.2	
914.54	6457.2	
914.7	6457.2	
914.86	6457.2	
915.03	6457.2	
915.19	6457.2	
