Wavelength	Intensities	
nm	a.u.	
179.22	1682.6	
179.44	1679.7	
179.65	1685.5	
179.86	1673.9	
180.08	1668.4	
180.29	3808.5	
180.51	2996.9	
180.72	4889.2	
180.94	5483.1	
181.15	2637.8	
181.37	2626.9	
181.58	4760.2	
181.79	4932.9	
182.01	2788	
182.22	2884.9	
182.44	4958.1	
182.65	4256.4	
182.87	3537.5	
183.08	3170.3	
183.29	5203.2	
183.51	4347.8	
183.72	2872.6	
183.94	4018.1	
184.15	4610.7	
184.37	4556.7	
184.58	2637.8	
184.79	3340.2	
185.01	4388.1	
185.22	4937	
185.44	3555.3	
185.65	3078.1	
185.86	4620.9	
186.08	4294.6	
186.29	2559.3	
186.51	2702.6	
186.72	4442	
186.94	5003.2	
187.15	3108.8	
187.36	3143.6	
187.58	6219	
187.79	4675.5	
188.01	3266.5	
188.22	4882.4	
188.43	5474.9	
188.65	4896	
188.86	2738.8	
189.08	3189.4	
189.29	4494.6	
189.5	4474.8	
189.72	2977.7	
189.93	2981.2	
190.15	5018.9	
190.36	5765	
190.57	3205.1	
190.79	3063.1	
191	5055.8	
191.22	5080.3	
191.43	3293.8	
191.64	2788.7	
191.86	5247.6	
192.07	5073.5	
192.29	2867.8	
192.5	2930	
192.71	5063.9	
192.93	4510.3	
193.14	2932	
193.35	2960	
193.57	4478.9	
193.78	5037.3	
194	2440.5	
194.21	2921.8	
194.42	4325.3	
194.64	4633.9	
194.85	3145	
195.07	3603.1	
195.28	4618.2	
195.49	4173.8	
195.71	3719.1	
195.92	2796.8	
196.13	4823	
196.35	4824.3	
196.56	4041.3	
196.78	3141.6	
196.99	5828.5	
197.2	5396.4	
197.42	3567.6	
197.63	3167.5	
197.84	4268	
198.06	4841.4	
198.27	2965.5	
198.48	3813.3	
198.7	4496	
198.91	4666.6	
199.13	3241.9	
199.34	3220.1	
199.55	5010.7	
199.77	4042	
199.98	2874	
200.19	3264.5	
200.41	4603.8	
200.62	4384	
200.83	3262.4	
201.05	3555.3	
201.26	4603.2	
201.47	4449.6	
201.69	2883.5	
201.9	2809.1	
202.11	4696.7	
202.33	5340.4	
202.54	2989.4	
202.76	3355.3	
202.97	4690.5	
203.18	4704.9	
203.4	3304.1	
203.61	3316.3	
203.82	4700.1	
204.04	4399.7	
204.25	3195.5	
204.46	3125.2	
204.68	4670.7	
204.89	4803.2	
205.1	3144.3	
205.32	2761.3	
205.53	4900.1	
205.74	5015.5	
205.96	2423.4	
206.17	3248.1	
206.38	4894.6	
206.6	5044.8	
206.81	3610.6	
207.02	2990	
207.24	4833.2	
207.45	5106.3	
207.66	3074.7	
207.88	2698.5	
208.09	4853	
208.3	4661.2	
208.52	2878.8	
208.73	3108.1	
208.94	4689.8	
209.15	5104.9	
209.37	3028.9	
209.58	3140.2	
209.79	5031.9	
210.01	4520.5	
210.22	2553.8	
210.43	2674	
210.65	4635.2	
210.86	4923.3	
211.07	3037.8	
211.29	2787.3	
211.5	4838.7	
211.71	4616.1	
211.93	2861.7	
212.14	2861.7	
212.35	4592.2	
212.56	4689.2	
212.78	3193.5	
212.99	2702	
213.2	5298.1	
213.42	4528.7	
213.63	2866.5	
213.84	3127.9	
214.06	4193.6	
214.27	4265.9	
214.48	3061.7	
214.69	3222.8	
214.91	5177.9	
215.12	5205.9	
215.33	3230.3	
215.55	3515.7	
215.76	5513.8	
215.97	4924	
216.18	3096.5	
216.4	3118.4	
216.61	4416.1	
216.82	4958.8	
217.04	2880.1	
217.25	3018.7	
217.46	5074.9	
217.67	4885.8	
217.89	2620	
218.1	2753.8	
218.31	4726.7	
218.53	4764.3	
218.74	2996.9	
218.95	2874	
219.16	4579.9	
219.38	5328.8	
219.59	2876	
219.8	3317.7	
220.01	5698.1	
220.23	4679.6	
220.44	3658.4	
220.65	2795.5	
220.87	4724	
221.08	5046.2	
221.29	2693.1	
221.5	3411.9	
221.72	5987.6	
221.93	4427	
222.14	3228.3	
222.35	3669.3	
222.57	4610	
222.78	4949.3	
222.99	3044	
223.2	3260.4	
223.42	4868.7	
223.63	4956.8	
223.84	2395.4	
224.05	2452.1	
224.27	5604.6	
224.48	5225.1	
224.69	3777.8	
224.9	3184.6	
225.12	4818.9	
225.33	4643.4	
225.54	2639.8	
225.75	2880.8	
225.97	4358.1	
226.18	4587.4	
226.39	3022.1	
226.6	2886.3	
226.82	4491.9	
227.03	4404.5	
227.24	3155.9	
227.45	2719	
227.67	4958.1	
227.88	5261.9	
228.09	3542.3	
228.3	3534.1	
228.52	4867.3	
228.73	4623.6	
228.94	2986.6	
229.15	2684.2	
229.36	4629.1	
229.58	4614.8	
229.79	3036.5	
230	3418.7	
230.21	5450.3	
230.43	4653	
230.64	3154.6	
230.85	3300	
231.06	5040.7	
231.28	4944.5	
231.49	2689	
231.7	3134.8	
231.91	4927.4	
232.12	4611.3	
232.34	2776.4	
232.55	3127.2	
232.76	5111	
232.97	4743.8	
233.18	2845.3	
233.4	3209.2	
233.61	4814.1	
233.82	4467.3	
234.03	3001.6	
234.25	2951.1	
234.46	6109.1	
234.67	4647.5	
234.88	3222.8	
235.09	2891.7	
235.31	4765.6	
235.52	4519.2	
235.73	3172.3	
235.94	2705.4	
236.15	4460.5	
236.37	5414.1	
236.58	2797.5	
236.79	3056.3	
237	4816.1	
237.21	4260.5	
237.43	3283.6	
237.64	2656.2	
237.85	7557	
238.06	4361.5	
238.27	3267.9	
238.48	2758.6	
238.7	4941.1	
238.91	4545.1	
239.12	3005.1	
239.33	3154.6	
239.54	4420.2	
239.76	4554	
239.97	3061	
240.18	3067.9	
240.39	5531.6	
240.6	4808.6	
240.82	3237.8	
241.03	2698.5	
241.24	4661.2	
241.45	5198.4	
241.66	2812.5	
241.87	3338.2	
242.09	5223.7	
242.3	5419.6	
242.51	3317	
242.72	3121.1	
242.93	4942.4	
243.14	4594.3	
243.36	3456.3	
243.57	3775.8	
243.78	5268.7	
243.99	4859.1	
244.2	3028.3	
244.41	2770.2	
244.63	4302.8	
244.84	4815.5	
245.05	3220.1	
245.26	3040.6	
245.47	4902.8	
245.68	4980.7	
245.9	3890.5	
246.11	3264.5	
246.32	4524	
246.53	4802.5	
246.74	4801.8	
246.95	2672.6	
247.16	4360.1	
247.38	4653.7	
247.59	2674.6	
247.8	3091.8	
248.01	4355.3	
248.22	4629.8	
248.43	2871.9	
248.64	3018.7	
248.86	4259.1	
249.07	4468.7	
249.28	2803.7	
249.49	3165.5	
249.7	5010	
249.91	5043.5	
250.12	2668.5	
250.34	2652.1	
250.55	4751.3	
250.76	4655	
250.97	3147	
251.18	3205.8	
251.39	5004.6	
251.6	4702.1	
251.81	3196.9	
252.03	3213.3	
252.24	4489.1	
252.45	4939.7	
252.66	2734.7	
252.87	3335.5	
253.08	4700.1	
253.29	5668.8	
253.5	2772.3	
253.72	3680.2	
253.93	4581.3	
254.14	5326.1	
254.35	2949.1	
254.56	3041.2	
254.77	4788.2	
254.98	4371	
255.19	2945.7	
255.41	3628.3	
255.62	4805.9	
255.83	5089.9	
256.04	3257	
256.25	3192.1	
256.46	5551.4	
256.67	4404.5	
256.88	3164.1	
257.09	3489.7	
257.31	4387.4	
257.52	4352.6	
257.73	3863.8	
257.94	2946.3	
258.15	4588.8	
258.36	4635.2	
258.57	3609.2	
258.78	2417.3	
258.99	5007.3	
259.2	4484.4	
259.41	2960.7	
259.63	3051.5	
259.84	5270.1	
260.05	5496.7	
260.26	3749.1	
260.47	2897.2	
260.68	4997	
260.89	4538.3	
261.1	3527.3	
261.31	2854.2	
261.52	5164.3	
261.73	5258.5	
261.95	3713.7	
262.16	3222.8	
262.37	5139	
262.58	5206.6	
262.79	3693.2	
263	2977.7	
263.21	4732.2	
263.42	4240.7	
263.63	3201.7	
263.84	2912.9	
264.05	4994.3	
264.26	5282.4	
264.47	3609.2	
264.69	3151.8	
264.9	5275.6	
265.11	4782	
265.32	2877.4	
265.53	2914.9	
265.74	4742.4	
265.95	4201.1	
266.16	3125.2	
266.37	3377.8	
266.58	4737.6	
266.79	4478.2	
267	2949.1	
267.21	2777	
267.42	4356	
267.63	4641.4	
267.84	3046.7	
268.06	2719	
268.27	4995	
268.48	5180.7	
268.69	2981.8	
268.9	3478.8	
269.11	5132.9	
269.32	4131.4	
269.53	3072	
269.74	2891.7	
269.95	4858.5	
270.16	4196.3	
270.37	3126.6	
270.58	3518.4	
270.79	4578.6	
271	4974.5	
271.21	3233.7	
271.42	3102.7	
271.63	4801.8	
271.84	4334.9	
272.05	2553.1	
272.26	2776.4	
272.47	4625.7	
272.68	4756.1	
272.89	2988.7	
273.11	3340.9	
273.32	4420.9	
273.53	5289.2	
273.74	3272	
273.95	3211.9	
274.16	4996.4	
274.37	4632.5	
274.58	3361.4	
274.79	2768.2	
275	4788.2	
275.21	5072.8	
275.42	3977.8	
275.63	3373	
275.84	4852.3	
276.05	5861.3	
276.26	3204.4	
276.47	3018.7	
276.68	4666.6	
276.89	5319.3	
277.1	3400.3	
277.31	2745.6	
277.52	4802.5	
277.73	5083.1	
277.94	2719.7	
278.15	2987.3	
278.36	4777.2	
278.57	4385.4	
278.78	3001	
278.99	3265.1	
279.2	4484.4	
279.41	4388.1	
279.62	3767.6	
279.83	2775	
280.04	5522	
280.25	4382.7	
280.46	3775.8	
280.67	3073.3	
280.88	4409.3	
281.09	5063.9	
281.3	3211.9	
281.51	3932.1	
281.72	4486.4	
281.93	4942.4	
282.14	2960	
282.35	3136.8	
282.56	5058.5	
282.77	4973.2	
282.98	3040.6	
283.19	3590.1	
283.4	5956.2	
283.61	4524.6	
283.82	2809.8	
284.03	3747.1	
284.24	4818.2	
284.45	5080.3	
284.66	3804.4	
284.87	3521.1	
285.08	5097.4	
285.29	5145.2	
285.5	2716.3	
285.71	2971.6	
285.92	5051.7	
286.12	5472.9	
286.33	3727.3	
286.54	3023.5	
286.75	4960.2	
286.96	4549.9	
287.17	2813.9	
287.38	3558	
287.59	4462.5	
287.8	4430.4	
288.01	3035.8	
288.22	3411.9	
288.43	4909	
288.64	4241.3	
288.85	3504.8	
289.06	3339.6	
289.27	5144.5	
289.48	5283.8	
289.69	3763.5	
289.9	3414.6	
290.11	5148.6	
290.32	4511.7	
290.53	3583.9	
290.74	3288.4	
290.94	4925.4	
291.15	5018.2	
291.36	2958.6	
291.57	3352.5	
291.78	4534.2	
291.99	4234.5	
292.2	2856.9	
292.41	3247.4	
292.62	5052.3	
292.83	4933.6	
293.04	3895.2	
293.25	2899.2	
293.46	4496	
293.67	5037.3	
293.88	2889	
294.09	2829.6	
294.29	4334.2	
294.5	4773.1	
294.71	3084.9	
294.92	2933.4	
295.13	4513	
295.34	5501.5	
295.55	2634.4	
295.76	2762.7	
295.97	4942.4	
296.18	5397.1	
296.39	2764.1	
296.6	2887.6	
296.81	4686.4	
297.01	4964.3	
297.22	3016	
297.43	2949.1	
297.64	4481	
297.85	4343.1	
298.06	2575	
298.27	2650.8	
298.48	4669.4	
298.69	4487.1	
298.9	3173	
299.11	2869.9	
299.31	4351.9	
299.52	4311.7	
299.73	3405.1	
299.94	3290.4	
300.15	4704.9	
300.36	4469.4	
300.57	3301.3	
300.78	3211.2	
300.99	4556.7	
301.2	4735.6	
301.4	2978.4	
301.61	3116.3	
301.82	4884.4	
302.03	4971.1	
302.24	3430.3	
302.45	2805.7	
302.66	4878.9	
302.87	5124	
303.08	2903.3	
303.29	3812.6	
303.49	4511.7	
303.7	4603.2	
303.91	2671.9	
304.12	3616.7	
304.33	4258.4	
304.54	4706.9	
304.75	2966.1	
304.96	2832.3	
305.16	4868.7	
305.37	5343.8	
305.58	2600.2	
305.79	2695.8	
306	4901.5	
306.21	4224.3	
306.42	2902	
306.63	4225.6	
306.83	4526	
307.04	4937	
307.25	3123.2	
307.46	3136.1	
307.67	4127.3	
307.88	4868	
308.09	2939.5	
308.29	2956.6	
308.5	4666	
308.71	5059.2	
308.92	3149.1	
309.13	2818.7	
309.34	4627	
309.55	4566.3	
309.75	3566.9	
309.96	3210.5	
310.17	4924	
310.38	4435.2	
310.59	3389.4	
310.8	2782.5	
311.01	5111.7	
311.21	4545.8	
311.42	2832.3	
311.63	2912.2	
311.84	4445.5	
312.05	4743.8	
312.26	3223.5	
312.46	3491.8	
312.67	4528.1	
312.88	4317.8	
313.09	2846.7	
313.3	2764.8	
313.51	5205.3	
313.71	5443.5	
313.92	2839.2	
314.13	2919.7	
314.34	4820.9	
314.55	4622.3	
314.76	3487	
314.96	3143.6	
315.17	4820.9	
315.38	4869.4	
315.59	2835.8	
315.8	2767.5	
316.01	5203.9	
316.21	5276.3	
316.42	2775.7	
316.63	3164.1	
316.84	4527.4	
317.05	5055.1	
317.26	3247.4	
317.46	2980.5	
317.67	4649.6	
317.88	4947.9	
318.09	3469.3	
318.3	2683.5	
318.5	4549.9	
318.71	4857.1	
318.92	4300.7	
319.13	3252.9	
319.34	5022.3	
319.54	5128.8	
319.75	2683.5	
319.96	2570.9	
320.17	4875.5	
320.38	4976.6	
320.58	2622.8	
320.79	3091.1	
321	5063.9	
321.21	5109.7	
321.42	3118.4	
321.62	2634.4	
321.83	4448.2	
322.04	4660.5	
322.25	3005.1	
322.46	2869.9	
322.66	4706.2	
322.87	4944.5	
323.08	3366.9	
323.29	2777	
323.5	5359.5	
323.7	4341	
323.91	3743.7	
324.12	3364.1	
324.33	4750.6	
324.53	4850.3	
324.74	3192.8	
324.95	3396.9	
325.16	4280.3	
325.37	4547.2	
325.57	2880.1	
325.78	2871.3	
325.99	4772.4	
326.2	4255.7	
326.4	3973.7	
326.61	2696.5	
326.82	4640.7	
327.03	4742.4	
327.24	3852.9	
327.44	3605.1	
327.65	4846.9	
327.86	4073.4	
328.07	3244.7	
328.27	2722.4	
328.48	5102.2	
328.69	4287.8	
328.9	3872	
329.1	3022.8	
329.31	4618.9	
329.52	5169.8	
329.73	2868.5	
329.93	3091.1	
330.14	4682.3	
330.35	4747.2	
330.56	4402.5	
330.76	3363.4	
330.97	4520.5	
331.18	4734.2	
331.39	3122.5	
331.59	2582.5	
331.8	5034.6	
332.01	5117.2	
332.22	2941.6	
332.42	3287.7	
332.63	4777.9	
332.84	4385.4	
333.05	3177.1	
333.25	2912.2	
333.46	4449.6	
333.67	4631.8	
333.88	3019.4	
334.08	3207.8	
334.29	5882.4	
334.5	5028.4	
334.7	2740.9	
334.91	3854.3	
335.12	4283.7	
335.33	4865.3	
335.53	3168.2	
335.74	4330.8	
335.95	4558.8	
336.16	4404.5	
336.36	3203.7	
336.57	3518.4	
336.78	4312.3	
336.98	5017.5	
337.19	3764.2	
337.4	3024.8	
337.61	5505.6	
337.81	4329.4	
338.02	2910.2	
338.23	3623.5	
338.43	5221.6	
338.64	4389.5	
338.85	2847.4	
339.05	3605.8	
339.26	5270.8	
339.47	4251.6	
339.68	2843.3	
339.88	3954.6	
340.09	4894	
340.3	5014.1	
340.5	3230.3	
340.71	2599.6	
340.92	4256.4	
341.13	5128.8	
341.33	2710.1	
341.54	3295.9	
341.75	4805.2	
341.95	4464.6	
342.16	3173	
342.37	3340.2	
342.57	4308.2	
342.78	4653	
342.99	3426.3	
343.19	2676	
343.4	4976.6	
343.61	4797	
343.81	3024.8	
344.02	2773.6	
344.23	4930.8	
344.43	5177.9	
344.64	3420.8	
344.85	3384.6	
345.06	4814.8	
345.26	5067.4	
345.47	3268.6	
345.68	3709.6	
345.88	4227	
346.09	4982	
346.3	3348.4	
346.5	2547.7	
346.71	4581.3	
346.92	4408.6	
347.12	2674.6	
347.33	3206.4	
347.54	5012.1	
347.74	5294.7	
347.95	3205.8	
348.16	2463	
348.36	4533.5	
348.57	4390.8	
348.78	3251.5	
348.98	3444.7	
349.19	4555.4	
349.39	4250.9	
349.6	2713.6	
349.81	2920.4	
350.01	4852.3	
350.22	4435.9	
350.43	3124.5	
350.63	3670.6	
350.84	4605.9	
351.05	4410.6	
351.25	2866.5	
351.46	2672.6	
351.67	4986.8	
351.87	4383.3	
352.08	2980.5	
352.29	3377.1	
352.49	4947.2	
352.7	4908.3	
352.9	2735.4	
353.11	3361.4	
353.32	5442.8	
353.52	4510.3	
353.73	2781.1	
353.94	3411.2	
354.14	4797	
354.35	4618.2	
354.55	2859	
354.76	3040.6	
354.97	4846.9	
355.17	4588.8	
355.38	2760.7	
355.59	3539.6	
355.79	4334.9	
356	4611.3	
356.2	3054.2	
356.41	2741.5	
356.62	4218.1	
356.82	4497.3	
357.03	3285.6	
357.24	2929.3	
357.44	4407.9	
357.65	4425.7	
357.85	3809.2	
358.06	3086.3	
358.27	4155.3	
358.47	4342.4	
358.68	2682.8	
358.88	3224.9	
359.09	4781.3	
359.3	4958.1	
359.5	3676.8	
359.71	3358.7	
359.91	5238.7	
360.12	4758.1	
360.33	3262.4	
360.53	3565.5	
360.74	4388.8	
360.94	4381.3	
361.15	3388	
361.36	2834.4	
361.56	4846.9	
361.77	4508.9	
361.97	3639.2	
362.18	3024.8	
362.38	4988.9	
362.59	4257	
362.8	2774.3	
363	2699.9	
363.21	4070	
363.41	4564.2	
363.62	3133.4	
363.83	3745.7	
364.03	4725.3	
364.24	5241.4	
364.44	3931.4	
364.65	3835.2	
364.85	4435.2	
365.06	4291.9	
365.27	2891	
365.47	2953.9	
365.68	5182	
365.88	4431.1	
366.09	3164.8	
366.29	2949.8	
366.5	4601.1	
366.71	4904.2	
366.91	3801.7	
367.12	3275.4	
367.32	5340.4	
367.53	4829.1	
367.73	3300	
367.94	3902.7	
368.14	4790.2	
368.35	5309	
368.56	3229	
368.76	2865.8	
368.97	4960.9	
369.17	5961.6	
369.38	2861	
369.58	3106.1	
369.79	4188.8	
369.99	5101.5	
370.2	3800.3	
370.4	3162.1	
370.61	4627	
370.82	5509	
371.02	3069.9	
371.23	2624.8	
371.43	4179.9	
371.64	5070.1	
371.84	3147.7	
372.05	3794.2	
372.25	5900.9	
372.46	4774.5	
372.66	3065.1	
372.87	3085.6	
373.07	4823.6	
373.28	5915.9	
373.48	3712.3	
373.69	3553.9	
373.9	4521.2	
374.1	4455.7	
374.31	3715	
374.51	3345	
374.72	5028.4	
374.92	4315.1	
375.13	3790.1	
375.33	3269.9	
375.54	4685.1	
375.74	4442	
375.95	3282.2	
376.15	4101.4	
376.36	4807.3	
376.56	4644.8	
376.77	3292.5	
376.97	3587.4	
377.18	5470.1	
377.38	4794.3	
377.59	3786.7	
377.79	2947.7	
378	4594.3	
378.2	4864.6	
378.41	2992.1	
378.61	2925.2	
378.82	5003.9	
379.02	4387.4	
379.23	3089.7	
379.43	3818.8	
379.64	5141.8	
379.84	4767.7	
380.05	2970.2	
380.25	2907.4	
380.46	4823	
380.66	4536.9	
380.87	3943.7	
381.07	4147.8	
381.28	5193	
381.48	4821.6	
381.69	2988	
381.89	3048.7	
382.1	4091.8	
382.3	4916.5	
382.51	3796.9	
382.71	4426.3	
382.91	4735.6	
383.12	5149.3	
383.32	3280.2	
383.53	3387.3	
383.73	4684.4	
383.94	4574.5	
384.14	3420.1	
384.35	2813.2	
384.55	4535.6	
384.76	4790.9	
384.96	3297.9	
385.17	3492.5	
385.37	4885.1	
385.58	4288.4	
385.78	3493.2	
385.98	2697.9	
386.19	4463.9	
386.39	4818.9	
386.6	3136.8	
386.8	3279.5	
387.01	4835.3	
387.21	4874.2	
387.42	3558	
387.62	3948.5	
387.83	4426.3	
388.03	4669.4	
388.23	3284.3	
388.44	3782.6	
388.64	4107.5	
388.85	4192.9	
389.05	3504.1	
389.26	3854.3	
389.46	5580	
389.67	5117.2	
389.87	3488.4	
390.07	3573	
390.28	4546.5	
390.48	4272.7	
390.69	2982.5	
390.89	3183.9	
391.1	4393.6	
391.3	5044.1	
391.5	3964.2	
391.71	4397	
391.91	4909.7	
392.12	5408	
392.32	4094.6	
392.53	3470.6	
392.73	4459.1	
392.93	4650.9	
393.14	3340.9	
393.34	3833.1	
393.55	4948.6	
393.75	4573.8	
393.95	3364.8	
394.16	3244.7	
394.36	4446.1	
394.57	4936.3	
394.77	2968.9	
394.98	3205.8	
395.18	4317.1	
395.38	4403.8	
395.59	3827.7	
395.79	3118.4	
396	4471.4	
396.2	4830.5	
396.4	3652.9	
396.61	3597.6	
396.81	4846.9	
397.02	4340.3	
397.22	3749.8	
397.42	3846.1	
397.63	4903.5	
397.83	4343.7	
398.04	3023.5	
398.24	3335.5	
398.44	4766.3	
398.65	4025.6	
398.85	2945	
399.05	2979.1	
399.26	4391.5	
399.46	5526.8	
399.67	3239.9	
399.87	3067.9	
400.07	4589.5	
400.28	4720.6	
400.48	3083.6	
400.69	3802.4	
400.89	4855.7	
401.09	5255.8	
401.3	3080.1	
401.5	3781.9	
401.7	5334.3	
401.91	5543.9	
402.11	3346.4	
402.32	3522.5	
402.52	4988.2	
402.72	4919.9	
402.93	3637.9	
403.13	2835.8	
403.33	5549.3	
403.54	4682.3	
403.74	3414.6	
403.94	4107.5	
404.15	4746.5	
404.35	5486.5	
404.56	3254.9	
404.76	4524	
404.96	5045.5	
405.17	4819.6	
405.37	4252.3	
405.57	3551.2	
405.78	4982	
405.98	4649.6	
406.18	3304.1	
406.39	3810.6	
406.59	4972.5	
406.79	4635.2	
407	3139.5	
407.2	3191.4	
407.4	5224.4	
407.61	5111	
407.81	3174.4	
408.01	4468.7	
408.22	4199	
408.42	5554.1	
408.62	3852.2	
408.83	3398.9	
409.03	4565.6	
409.23	4511	
409.44	3517.7	
409.64	3594.2	
409.84	5246.2	
410.05	5122	
410.25	3589.4	
410.45	3442	
410.66	4804.5	
410.86	6560.3	
411.06	3702.7	
411.27	3665.9	
411.47	6308.4	
411.67	4901.5	
411.88	3767.6	
412.08	3885	
412.28	5254.4	
412.49	5649.7	
412.69	3612.6	
412.89	3563.5	
413.09	5582.8	
413.3	5472.9	
413.5	3685.7	
413.7	3394.2	
413.91	5000.5	
414.11	5540.4	
414.31	3505.4	
414.52	3771	
414.72	5288.5	
414.92	5171.8	
415.12	3582.6	
415.33	3887.7	
415.53	5517.2	
415.73	5608.7	
415.94	4098.7	
416.14	3709.6	
416.34	4775.2	
416.55	4668	
416.75	4539.7	
416.95	4076.8	
417.15	5560.9	
417.36	5959.6	
417.56	4756.7	
417.76	4016.7	
417.97	5693.4	
418.17	5484.5	
418.37	3777.1	
418.57	3777.1	
418.78	5466.7	
418.98	5189.6	
419.18	4346.5	
419.38	4363.5	
419.59	5154.1	
419.79	4935.6	
419.99	3712.3	
420.2	3964.2	
420.4	5633.3	
420.6	5636.7	
420.8	3628.3	
421.01	3614	
421.21	5445.5	
421.41	5448.3	
421.61	3922.5	
421.82	3751.2	
422.02	5117.9	
422.22	5799.8	
422.42	4202.4	
422.63	4104.8	
422.83	5161.6	
423.03	6066.8	
423.23	4074.8	
423.44	3347.7	
423.64	5236.7	
423.84	5016.8	
424.04	3720.5	
424.25	3474	
424.45	5909.8	
424.65	5826.5	
424.85	3364.8	
425.06	3708.9	
425.26	5985.5	
425.46	5186.8	
425.66	4098	
425.87	3884.3	
426.07	5668.1	
426.27	5516.5	
426.47	3981.9	
426.67	3558.7	
426.88	5926.1	
427.08	5558.2	
427.28	4145.1	
427.48	3446.7	
427.69	4800.4	
427.89	5315.2	
428.09	4087.7	
428.29	3487.7	
428.5	5657.9	
428.7	5416.9	
428.9	3447.4	
429.1	3847.5	
429.3	5439.4	
429.51	5639.4	
429.71	3672	
429.91	4249.5	
430.11	5601.9	
430.31	5664.7	
430.52	3857.7	
430.72	4046.1	
430.92	5921.4	
431.12	5528.8	
431.32	3667.2	
431.53	4019.5	
431.73	4828.4	
431.93	6003.3	
432.13	3599	
432.33	3472	
432.54	5239.4	
432.74	5302.9	
432.94	3408.5	
433.14	4216.1	
433.34	5636	
433.55	5236	
433.75	4108.2	
433.95	5210.7	
434.15	5468.1	
434.35	5137	
434.56	3601.7	
434.76	3248.8	
434.96	5329.5	
435.16	5558.2	
435.36	3496.6	
435.56	4368.3	
435.77	5093.3	
435.97	5221.6	
436.17	4734.9	
436.37	4232.5	
436.57	5074.2	
436.78	5099.4	
436.98	4172.4	
437.18	4683	
437.38	5529.5	
437.58	5191.6	
437.78	4756.1	
437.99	3859.1	
438.19	5667.4	
438.39	6657.9	
438.59	3805.1	
438.79	3460.4	
438.99	6143.9	
439.2	5186.1	
439.4	3494.5	
439.6	3459	
439.8	5395.7	
440	6157.6	
440.2	4207.2	
440.4	4240.7	
440.61	5754.8	
440.81	5999.2	
441.01	3629.7	
441.21	4255	
441.41	6057.9	
441.61	5720.7	
441.81	4449.6	
442.02	5075.5	
442.22	6393.1	
442.42	5804.6	
442.62	3726.6	
442.82	3766.2	
443.02	6034	
443.22	5475.6	
443.43	3976.5	
443.63	3667.2	
443.83	5282.4	
444.03	5246.2	
444.23	4453.6	
444.43	4205.8	
444.63	5535.7	
444.83	6326.2	
445.04	3818.1	
445.24	4646.2	
445.44	5803.3	
445.64	5832.6	
445.84	4356.7	
446.04	4418.8	
446.24	5352.7	
446.44	6093.4	
446.65	3821.5	
446.85	4070.7	
447.05	5605.3	
447.25	6105	
447.45	4182.6	
447.65	3667.2	
447.85	5649	
448.05	5280.3	
448.25	4444.1	
448.46	4248.9	
448.66	5582.8	
448.86	5401.2	
449.06	3594.9	
449.26	4391.5	
449.46	5769.1	
449.66	5210.7	
449.86	4108.2	
450.06	4089.1	
450.26	5317.9	
450.47	5702.2	
450.67	4255	
450.87	4472.1	
451.07	5961	
451.27	5666.7	
451.47	3848.8	
451.67	4422.9	
451.87	5448.3	
452.07	6257.2	
452.27	4029.7	
452.47	3975.1	
452.67	5589.6	
452.88	5937.7	
453.08	3516.4	
453.28	4909.7	
453.48	6408.8	
453.68	5609.4	
453.88	3953.3	
454.08	4040	
454.28	5889.3	
454.48	5621.7	
454.68	4377.2	
454.88	4749.9	
455.08	6006	
455.28	5712.5	
455.48	3787.4	
455.68	4237.9	
455.89	6288.6	
456.09	5948.7	
456.29	4095.3	
456.49	4123.9	
456.69	6224.5	
456.89	5657.9	
457.09	4401.1	
457.29	4641.4	
457.49	5857.2	
457.69	5969.8	
457.89	4351.3	
458.09	3876.8	
458.29	5764.3	
458.49	6305	
458.69	4551.3	
458.89	4113.7	
459.09	6413.6	
459.29	6442.2	
459.49	4287.1	
459.69	4787.5	
459.9	6109.8	
460.1	5680.4	
460.3	4219.5	
460.5	4055	
460.7	6161.7	
460.9	5822.4	
461.1	3861.1	
461.3	4671.4	
461.5	6489.3	
461.7	6258.6	
461.9	4123.2	
462.1	4441.4	
462.3	5974.6	
462.5	6301.6	
462.7	4120.5	
462.9	4203.1	
463.1	7000	
463.3	6735.1	
463.5	4384.7	
463.7	4999.8	
463.9	6059.9	
464.1	6253.1	
464.3	4452.3	
464.5	4618.9	
464.7	6460	
464.9	6167.1	
465.1	5513.1	
465.3	4874.2	
465.5	6657.9	
465.7	6678.4	
465.9	5055.1	
466.1	4844.8	
466.3	6494.1	
466.5	6436.1	
466.7	5511.8	
466.9	4714.4	
467.1	6471.6	
467.3	7105.1	
467.5	5428.5	
467.7	4681	
467.9	7311.9	
468.1	7877.9	
468.3	5216.9	
468.5	5504.9	
468.7	6371.2	
468.9	6367.1	
469.1	4918.5	
469.3	5352.7	
469.5	7711.3	
469.7	6074.3	
469.9	5317.2	
470.1	4758.8	
470.3	6517.3	
470.5	6537.1	
470.7	5694.7	
470.9	4831.2	
471.1	6258.6	
471.3	6714.6	
471.5	4667.3	
471.69	5951.4	
471.89	6385.6	
472.09	5879.7	
472.29	5267.4	
472.49	5510.4	
472.69	6085.9	
472.89	6637.5	
473.09	4631.8	
473.29	4834.6	
473.49	6232	
473.69	6285.2	
473.89	5373.9	
474.09	4891.2	
474.29	7190.4	
474.49	6958.3	
474.69	5388.9	
474.89	4933.6	
475.09	6407.4	
475.29	6348	
475.49	4557.4	
475.69	4713.1	
475.88	7418.4	
476.08	6681.8	
476.28	4539.7	
476.48	4863.2	
476.68	6967.9	
476.88	6667.5	
477.08	4834.6	
477.28	4998.4	
477.48	6421.7	
477.68	6826.6	
477.88	4575.8	
478.08	4896	
478.28	7133.8	
478.48	6479.1	
478.67	4887.1	
478.87	4517.1	
479.07	6862.7	
479.27	6581.5	
479.47	5042.1	
479.67	5067.4	
479.87	6888.7	
480.07	7161.7	
480.27	4532.8	
480.47	5634	
480.67	6596.5	
480.87	6993.8	
481.06	4828.4	
481.26	5414.8	
481.46	6703	
481.66	6514.6	
481.86	5138.4	
482.06	5745.2	
482.26	6382.2	
482.46	7031.4	
482.66	5027.8	
482.86	4754	
483.05	6761	
483.25	6178.7	
483.45	6773.3	
483.65	5003.2	
483.85	6257.2	
484.05	6574	
484.25	5378	
484.45	5647.6	
484.65	7126.2	
484.84	7090.8	
485.04	5005.9	
485.24	5078.3	
485.44	7459.4	
485.64	6191	
485.84	4523.3	
486.04	5450.3	
486.24	6407.4	
486.44	6694.8	
486.63	4528.7	
486.83	5109	
487.03	6447.7	
487.23	6596.5	
487.43	4683.7	
487.63	6207.4	
487.83	6566.5	
488.02	7193.1	
488.22	5214.8	
488.42	5670.1	
488.62	7247.8	
488.82	6427.2	
489.02	5050.3	
489.22	5096	
489.41	7151.5	
489.61	6920.8	
489.81	4941.1	
490.01	4883.7	
490.21	7160.4	
490.41	7643	
490.61	4977.2	
490.8	4963.6	
491	6851.8	
491.2	6354.8	
491.4	5423	
491.6	4822.3	
491.8	6854.6	
491.99	6778.8	
492.19	4741	
492.39	4891.9	
492.59	7045	
492.79	7206.8	
492.99	5418.2	
493.18	4790.9	
493.38	7189.1	
493.58	7559.1	
493.78	5367	
493.98	5129.5	
494.18	6918	
494.37	6551.5	
494.57	5507.7	
494.77	5423	
494.97	7148.8	
495.17	7232.1	
495.37	5279.7	
495.56	5518.6	
495.76	7439.6	
495.96	7202.7	
496.16	6189.6	
496.36	5406	
496.55	7498.3	
496.75	7028.6	
496.95	5637.4	
497.15	5644.2	
497.35	7404.1	
497.54	7304.4	
497.74	5500.8	
497.94	6518	
498.14	7920.9	
498.34	7669	
498.53	5222.3	
498.73	5702.2	
498.93	6882.5	
499.13	7390.4	
499.33	5644.9	
499.52	5961	
499.72	7391.1	
499.92	7486.7	
500.12	5369.1	
500.32	5570.5	
500.51	7549.5	
500.71	7385.7	
500.91	6202.6	
501.11	5934.3	
501.31	7449.8	
501.5	7877.9	
501.7	6458.6	
501.9	5641.5	
502.1	7365.9	
502.29	7615.7	
502.49	6053.8	
502.69	6362.4	
502.89	7555.6	
503.09	7607.5	
503.28	5219.6	
503.48	5562.3	
503.68	7071	
503.88	7087.3	
504.07	6150.1	
504.27	5715.2	
504.47	7384.3	
504.67	7408.9	
504.86	6092	
505.06	5851.7	
505.26	7222.5	
505.46	8390.5	
505.65	5736.4	
505.85	5993.7	
506.05	7076.4	
506.25	7478.5	
506.44	5401.9	
506.64	5881.1	
506.84	7060.7	
507.04	7570.7	
507.23	5518.6	
507.43	5838.1	
507.63	8340.7	
507.83	7092.8	
508.02	5907	
508.22	5602.6	
508.42	8570.1	
508.62	7011.6	
508.81	5753.4	
509.01	6118	
509.21	6961	
509.4	7210.9	
509.6	5887.9	
509.8	5399.8	
510	7112.6	
510.19	8001.4	
510.39	5412.1	
510.59	5509.7	
510.79	7005.4	
510.98	8026	
511.18	5681.1	
511.38	5596.4	
511.57	7688.1	
511.77	7419.1	
511.97	6166.4	
512.17	5485.1	
512.36	7626.6	
512.56	7584.3	
512.76	5520	
512.95	5283.8	
513.15	7739.3	
513.35	6677.1	
513.55	6022.4	
513.74	5415.5	
513.94	7666.9	
514.14	7167.9	
514.33	6163	
514.53	5989.6	
514.73	7197.9	
514.92	7275.1	
515.12	5571.2	
515.32	5386.2	
515.51	7404.1	
515.71	7653.9	
515.91	6695.5	
516.11	5494	
516.3	8490.2	
516.5	7107.1	
516.7	5924.8	
516.89	6328.9	
517.09	7296.9	
517.29	7244.3	
517.48	6231.3	
517.68	5748	
517.88	7022.5	
518.07	7559.7	
518.27	6108.4	
518.47	5400.5	
518.66	7812.3	
518.86	6957.6	
519.06	5203.9	
519.25	5653.8	
519.45	7173.4	
519.65	8066.9	
519.84	6059.9	
520.04	6562.4	
520.24	8529.1	
520.43	7540.6	
520.63	5928.2	
520.83	5816.9	
521.02	7143.3	
521.22	7571.3	
521.42	6099.5	
521.61	6493.4	
521.81	7221.8	
522.01	7412.3	
522.2	5952.1	
522.4	5779.4	
522.6	7666.9	
522.79	6763.1	
522.99	5791.7	
523.18	5350.7	
523.38	7453.9	
523.58	7464.8	
523.77	6636.8	
523.97	5384.1	
524.17	8658.1	
524.36	8157.7	
524.56	6273.6	
524.76	6066.8	
524.95	7527	
525.15	7305.1	
525.34	5971.2	
525.54	5941.2	
525.74	7743.4	
525.93	7084.6	
526.13	6863.4	
526.33	5990.3	
526.52	8083.3	
526.72	7626	
526.91	6889.4	
527.11	6281.8	
527.31	8065.6	
527.5	8249.2	
527.7	6307.7	
527.89	5647.6	
528.09	7325.6	
528.29	7669.6	
528.48	6525.5	
528.68	6180.8	
528.87	8019.8	
529.07	8044.4	
529.27	6341.9	
529.46	6030.6	
529.66	7893.6	
529.85	8188.5	
530.05	5952.8	
530.25	6523.5	
530.44	8935.3	
530.64	7785	
530.83	6182.1	
531.03	6388.3	
531.23	8178.2	
531.42	7933.1	
531.62	6765.8	
531.81	6255.2	
532.01	8198.7	
532.21	8364.6	
532.4	6119.3	
532.6	6361	
532.79	8777.6	
532.99	8163.2	
533.18	6465.4	
533.38	7181.5	
533.58	7919.5	
533.77	8428.8	
533.97	6509.1	
534.16	6993.8	
534.36	8630.1	
534.55	7987.8	
534.75	7148.1	
534.95	6481.8	
535.14	8650.6	
535.34	7933.1	
535.53	6304.3	
535.73	7681.9	
535.92	8987.2	
536.12	8114.1	
536.31	6382.2	
536.51	7237.5	
536.71	8436.9	
536.9	8008.9	
537.1	6422.4	
537.29	6561	
537.49	8591.9	
537.68	7925	
537.88	6878.4	
538.07	6175.3	
538.27	8191.9	
538.46	8787.8	
538.66	6169.2	
538.86	6578.8	
539.05	8098.4	
539.25	8412.4	
539.44	6757.6	
539.64	6385.6	
539.83	8133.8	
540.03	8754.4	
540.22	6408.8	
540.42	6522.1	
540.61	8335.9	
540.81	8320.9	
541	6724.2	
541.2	7294.2	
541.39	7922.2	
541.59	8164.6	
541.78	7059.3	
541.98	6378.7	
542.18	7658.7	
542.37	7718.1	
542.57	6735.8	
542.76	7069.6	
542.96	7760.4	
543.15	8286.1	
543.35	6728.3	
543.54	6287.9	
543.74	8328.4	
543.93	8181.6	
544.13	6685.3	
544.32	7372.7	
544.52	8389.2	
544.71	7826	
544.91	6013.5	
545.1	6861.4	
545.3	7819.1	
545.49	8144.8	
545.69	6003.3	
545.88	6505.7	
546.08	8930.5	
546.27	8612.4	
546.47	6698.9	
546.66	6244.9	
546.86	8422.6	
547.05	8747.6	
547.24	6377.4	
547.44	6249.7	
547.63	7740	
547.83	8488.8	
548.02	6612.9	
548.22	6632.7	
548.41	7587	
548.61	8495.7	
548.8	6244.3	
549	6301.6	
549.19	8102.4	
549.39	8328.4	
549.58	6027.9	
549.78	6439.5	
549.97	8263.6	
550.17	7906.5	
550.36	7003.4	
550.55	7761.1	
550.75	7868.3	
550.94	8606.2	
551.14	6192.4	
551.33	6452.5	
551.53	7550.9	
551.72	8183.7	
551.92	6363	
552.11	6305.7	
552.31	8203.5	
552.5	8169.3	
552.69	7488.1	
552.89	6041.5	
553.08	8126.3	
553.28	7993.2	
553.47	6324.8	
553.67	7045	
553.86	8581.7	
554.06	7341.3	
554.25	5812.1	
554.44	6156.2	
554.64	9131.9	
554.83	8736	
555.03	6105	
555.22	6378.7	
555.42	8362.5	
555.61	8202.8	
555.8	6206	
556	6491.4	
556.19	7518.8	
556.39	8316.8	
556.58	6289.3	
556.78	6338.5	
556.97	7985	
557.16	7760.4	
557.36	7167.9	
557.55	6064.7	
557.75	7226.6	
557.94	8624.7	
558.13	6105.7	
558.33	5967.8	
558.52	8429.4	
558.72	7571.3	
558.91	6014.9	
559.1	6111.8	
559.3	7425.3	
559.49	7278.5	
559.69	5789.6	
559.88	6430.6	
560.07	7953.6	
560.27	8388.5	
560.46	6567.8	
560.66	6720.8	
560.85	7907.9	
561.04	7285.3	
561.24	6092.7	
561.43	6123.4	
561.63	7420.5	
561.82	7699	
562.01	7007.5	
562.21	6287.9	
562.4	7922.9	
562.59	8643.1	
562.79	6287.9	
562.98	5967.1	
563.18	7876.5	
563.37	8794	
563.56	6582.9	
563.76	6026.5	
563.95	7576.8	
564.14	7508.5	
564.34	6331	
564.53	6029.9	
564.73	8041	
564.92	8062.9	
565.11	6341.9	
565.31	5860.6	
565.5	8366.6	
565.69	7518.1	
565.89	6133.7	
566.08	6275.7	
566.27	8157.1	
566.47	8505.9	
566.66	6789	
566.85	5886.5	
567.05	7995.3	
567.24	7582.3	
567.44	6070.9	
567.63	6976.1	
567.82	8211.7	
568.02	7945.4	
568.21	6044.9	
568.4	6352.1	
568.6	7906.5	
568.79	7864.2	
568.98	6010.1	
569.18	6079.1	
569.37	7915.4	
569.56	9222	
569.76	6369.2	
569.95	6959.7	
570.14	8161.2	
570.34	8037.6	
570.53	6111.8	
570.72	6035.4	
570.91	8483.4	
571.11	7863.5	
571.3	6431.3	
571.49	7070.3	
571.69	7983	
571.88	7530.4	
572.07	6690.7	
572.27	6695.5	
572.46	7541.3	
572.65	8284	
572.85	6214.9	
573.04	6354.2	
573.23	8514.1	
573.43	8039	
573.62	6109.1	
573.81	6483.2	
574	8112.7	
574.2	7807.5	
574.39	6318.7	
574.58	6436.1	
574.78	8559.8	
574.97	8118.1	
575.16	6657.3	
575.36	6814.3	
575.55	8461.5	
575.74	8473.8	
575.93	6066.1	
576.13	6873.7	
576.32	8039.6	
576.51	8313.4	
576.71	6508.4	
576.9	7393.2	
577.09	8683.4	
577.28	8233.5	
577.48	6739.9	
577.67	6206	
577.86	8139.3	
578.05	8204.8	
578.25	6563.7	
578.44	6612.9	
578.63	8074.5	
578.83	8940.7	
579.02	6203.3	
579.21	7243.7	
579.4	8224	
579.6	8090.8	
579.79	6657.3	
579.98	8112	
580.17	8578.3	
580.37	8615.8	
580.56	6311.8	
580.75	6774.7	
580.94	8751	
581.14	8869.8	
581.33	7208.2	
581.52	6419	
581.71	8365.3	
581.91	8937.3	
582.1	6177.4	
582.29	6597.9	
582.48	8168.7	
582.68	8235.6	
582.87	6937.2	
583.06	6684.6	
583.25	8492.2	
583.45	7989.8	
583.64	7193.1	
583.83	7595.9	
584.02	8088.1	
584.21	8456.7	
584.41	7083.2	
584.6	6744	
584.79	8280.6	
584.98	8710	
585.18	6333.7	
585.37	6358.3	
585.56	8017.8	
585.75	8528.4	
585.94	6461.3	
586.14	6979.5	
586.33	8897.1	
586.52	8157.7	
586.71	6779.5	
586.91	6647	
587.1	7796.6	
587.29	8538.7	
587.48	6520	
587.67	6509.8	
587.87	8473.8	
588.06	8425.3	
588.25	7479.2	
588.44	6919.4	
588.63	8150.9	
588.83	8615.1	
589.02	6621.8	
589.21	6428.6	
589.4	8193.2	
589.59	8045.1	
589.78	6055.2	
589.98	6239.5	
590.17	7662.1	
590.36	8060.8	
590.55	5685.8	
590.74	6273.6	
590.94	8861.6	
591.13	7845.1	
591.32	6087.2	
591.51	5650.3	
591.7	8070.4	
591.89	7808.2	
592.09	5746.6	
592.28	6141.9	
592.47	7226.6	
592.66	8636.3	
592.85	5825.8	
593.05	6007.4	
593.24	7749.5	
593.43	8282.7	
593.62	6075.6	
593.81	6333	
594	7783.6	
594.19	7950.9	
594.39	6043.6	
594.58	5932.3	
594.77	7923.6	
594.96	8307.9	
595.15	5997.8	
595.34	6333.7	
595.54	7984.3	
595.73	7367.9	
595.92	5568.4	
596.11	6274.3	
596.3	8270.4	
596.49	7417.7	
596.68	6136.4	
596.88	6296.1	
597.07	8035.5	
597.26	7243.7	
597.45	5814.2	
597.64	6639.5	
597.83	7482.6	
598.02	7897.7	
598.22	5762.3	
598.41	6267.5	
598.6	7733.8	
598.79	7308.5	
598.98	5838.8	
599.17	6487.3	
599.36	7802.8	
599.55	8482	
599.74	7233.4	
599.94	7073.7	
600.13	8125	
600.32	7349.5	
600.51	5666.7	
600.7	5734.3	
600.89	8548.9	
601.08	8621.3	
601.27	5579.3	
601.47	6271.6	
601.66	8032.1	
601.85	8445.8	
602.04	6083.8	
602.23	6075.6	
602.42	7346.7	
602.61	7815.7	
602.8	5944.6	
602.99	5814.2	
603.18	7563.8	
603.37	7724.3	
603.57	6208.8	
603.76	6655.9	
603.95	8251.3	
604.14	7890.1	
604.33	5914.5	
604.52	6097.5	
604.71	7724.9	
604.9	7497.6	
605.09	6465.4	
605.28	6398.5	
605.47	8204.8	
605.66	7853.3	
605.86	6338.5	
606.05	5875.6	
606.24	8195.3	
606.43	7075	
606.62	6109.1	
606.81	6584.2	
607	8015.1	
607.19	7578.8	
607.38	5700.2	
607.57	5868.1	
607.76	7392.5	
607.95	6987.7	
608.14	6250.4	
608.33	6569.2	
608.52	7329.7	
608.72	8078.6	
608.91	5693.4	
609.1	5488.6	
609.29	7443	
609.48	7140.6	
609.67	6233.3	
609.86	5674.9	
610.05	7161.1	
610.24	7447.8	
610.43	5539.1	
610.62	5242.8	
610.81	8222.6	
611	8051.2	
611.19	5613.5	
611.38	6156.9	
611.57	7668.3	
611.76	8447.2	
611.95	5391.6	
612.14	5292	
612.33	7476.5	
612.52	7096.2	
612.71	5872.9	
612.9	5354.1	
613.09	6852.5	
613.28	8478.6	
613.47	5707	
613.66	6274.3	
613.85	7585	
614.04	7166.5	
614.24	5679.7	
614.43	5198.4	
614.62	7667.6	
614.81	7630	
615	6007.4	
615.19	5965.1	
615.38	7185.6	
615.57	7431.4	
615.76	6038.8	
615.95	6673.6	
616.14	7729.7	
616.33	7457.3	
616.52	6186.9	
616.71	6266.1	
616.9	7707.2	
617.09	7496.2	
617.28	5804.6	
617.47	6584.9	
617.66	7040.9	
617.85	7057.3	
618.04	6450.4	
618.22	5930.9	
618.41	7267.6	
618.6	7890.8	
618.79	5970.5	
618.98	5737.7	
619.17	8116.8	
619.36	6890	
619.55	5859.9	
619.74	5852.4	
619.93	7668.3	
620.12	7228	
620.31	6214.2	
620.5	6382.8	
620.69	7961.1	
620.88	8292.2	
621.07	6853.9	
621.26	6279.8	
621.45	7792.5	
621.64	7755.7	
621.83	6330.3	
622.02	5776	
622.21	7864.2	
622.4	7716.7	
622.59	6725.5	
622.78	6542.6	
622.97	7430.7	
623.16	8086.1	
623.35	6341.9	
623.54	5673.6	
623.72	7533.8	
623.91	7660.1	
624.1	6505	
624.29	5618.3	
624.48	8395.3	
624.67	7905.2	
624.86	6466.8	
625.05	5672.9	
625.24	8507.9	
625.43	7424.6	
625.62	7664.2	
625.81	5950	
626	8017.8	
626.19	7619.8	
626.38	6446.3	
626.56	6115.9	
626.75	7410.9	
626.94	8060.1	
627.13	6493.4	
627.32	5657.9	
627.51	7983.7	
627.7	8789.2	
627.89	5660.6	
628.08	6518.7	
628.27	7297.6	
628.46	7440.3	
628.65	5912.5	
628.83	5688.6	
629.02	7850.5	
629.21	7344	
629.4	6175.3	
629.59	6397.9	
629.78	7315.3	
629.97	7955.7	
630.16	6327.5	
630.35	5976	
630.54	8372.8	
630.72	8170	
630.91	5989.6	
631.1	6275.7	
631.29	7796.6	
631.48	7788.4	
631.67	6481.1	
631.86	6025.8	
632.05	7548.8	
632.24	7496.2	
632.42	5719.3	
632.61	6251.8	
632.8	7552.9	
632.99	7229.3	
633.18	6193.1	
633.37	6464.8	
633.56	7793.9	
633.75	7656.7	
633.93	6282.5	
634.12	6027.2	
634.31	8340	
634.5	7981.6	
634.69	6036	
634.88	6397.9	
635.07	7684.7	
635.25	8028.7	
635.44	6673.6	
635.63	6827.2	
635.82	7597.3	
636.01	7009.5	
636.2	6559.6	
636.39	6264.1	
636.57	8370	
636.76	7950.9	
636.95	5912.5	
637.14	6859.3	
637.33	7828	
637.52	8335.2	
637.7	5742.5	
637.89	6481.1	
638.08	7647.1	
638.27	8530.5	
638.46	6541.9	
638.65	6769.2	
638.83	8516.1	
639.02	7496.9	
639.21	6460.7	
639.4	6774.7	
639.59	7776.1	
639.78	7522.2	
639.96	5872.2	
640.15	5979.4	
640.34	7641	
640.53	7707.2	
640.72	5768.4	
640.91	5903.6	
641.09	7172	
641.28	8119.5	
641.47	5932.3	
641.66	6460.7	
641.85	7684.7	
642.03	7873.1	
642.22	6221.7	
642.41	5962.3	
642.6	7302.4	
642.79	6832.7	
642.97	5898.8	
643.16	6307.7	
643.35	7238.2	
643.54	7044.3	
643.73	5745.2	
643.91	6324.8	
644.1	7098.3	
644.29	7474.4	
644.48	5795.1	
644.67	5795.8	
644.85	7130.3	
645.04	7474.4	
645.23	5554.8	
645.42	5758.9	
645.6	7116.7	
645.79	7860.8	
645.98	5752.1	
646.17	5062.6	
646.36	6866.2	
646.54	7264.8	
646.73	6260	
646.92	5464	
647.11	7019.1	
647.29	7694.9	
647.48	5519.3	
647.67	5282.4	
647.86	7892.9	
648.05	7824.6	
648.23	5733.6	
648.42	6569.2	
648.61	7376.8	
648.8	7217.7	
648.98	5368.4	
649.17	5671.5	
649.36	6864.1	
649.55	6631.3	
649.73	5444.2	
649.92	6007.4	
650.11	6821.8	
650.3	7071.6	
650.48	5468.8	
650.67	5324	
650.86	7294.2	
651.05	6538.5	
651.23	5493.3	
651.42	5475.6	
651.61	6833.4	
651.79	6849.8	
651.98	5663.3	
652.17	5356.1	
652.36	7159	
652.54	6477.7	
652.73	5419.6	
652.92	5340.4	
653.11	7209.5	
653.29	7275.8	
653.48	4918.5	
653.67	5569.8	
653.85	7001.3	
654.04	7723.6	
654.23	5742.5	
654.42	5467.4	
654.6	6722.1	
654.79	7193.1	
654.98	5057.8	
655.16	5433.3	
655.35	6462	
655.54	6314.6	
655.73	5054.4	
655.91	4914.4	
656.1	7054.6	
656.29	6225.8	
656.47	4635.9	
656.66	5831.9	
656.85	6447	
657.03	6438.1	
657.22	5011.4	
657.41	5042.8	
657.59	6567.8	
657.78	6414.9	
657.97	4866	
658.16	5350	
658.34	7064.1	
658.53	7312.6	
658.72	5964.4	
658.9	6382.8	
659.09	6770.6	
659.28	6703	
659.46	5180.7	
659.65	5111.7	
659.84	6508.4	
660.02	6967.9	
660.21	5176.6	
660.4	5054.4	
660.58	7203.4	
660.77	6733.7	
660.96	5494	
661.14	4789.5	
661.33	7554.3	
661.52	7453.9	
661.7	4798.4	
661.89	7204.1	
662.08	6481.1	
662.26	6092.7	
662.45	5040.1	
662.64	5117.9	
662.82	6996.5	
663.01	6334.4	
663.2	5023.7	
663.38	5595.1	
663.57	6855.2	
663.75	6788.3	
663.94	5325.4	
664.13	6199.2	
664.31	6410.8	
664.5	6909.2	
664.69	5601.2	
664.87	5771.2	
665.06	6307.1	
665.25	6744	
665.43	5958.9	
665.62	6001.2	
665.8	6950.1	
665.99	6532.3	
666.18	5312.4	
666.36	5331.5	
666.55	6930.3	
666.74	6890.7	
666.92	5039.4	
667.11	6145.3	
667.29	6601.3	
667.48	6924.2	
667.67	5796.4	
667.85	5173.2	
668.04	6519.4	
668.22	6448.4	
668.41	5378	
668.6	5592.3	
668.78	6307.1	
668.97	6539.8	
669.15	5562.3	
669.34	4836.6	
669.53	6379.4	
669.71	6611.5	
669.9	4958.8	
670.08	5367	
670.27	6357.6	
670.46	6769.2	
670.64	5609.4	
670.83	5735.7	
671.01	6206.7	
671.2	6588.3	
671.38	5048.2	
671.57	4899.4	
671.76	7089.4	
671.94	7504.4	
672.13	4868	
672.31	5649	
672.5	6841.6	
672.69	6324.8	
672.87	4959.5	
673.06	5240.8	
673.24	6748.7	
673.43	6418.3	
673.61	5442.8	
673.8	5182.7	
673.98	6805.4	
674.17	6952.9	
674.36	5597.1	
674.54	5549.3	
674.73	6625.9	
674.91	6869.6	
675.1	5216.2	
675.28	4930.1	
675.47	6505.7	
675.65	6900.3	
675.84	5220.3	
676.03	5430.5	
676.21	6453.8	
676.4	5971.9	
676.58	5696.8	
676.77	5578.7	
676.95	7473	
677.14	6378.7	
677.32	4904.9	
677.51	4863.2	
677.69	6926.2	
677.88	6227.9	
678.06	4844.1	
678.25	5003.9	
678.44	6495.5	
678.62	6308.4	
678.81	4739	
678.99	5431.9	
679.18	7126.9	
679.36	6728.9	
679.55	5157.5	
679.73	5481	
679.92	6793.1	
680.1	6427.2	
680.29	5935.7	
680.47	5116.5	
680.66	6321.4	
680.84	6931.7	
681.03	4725.3	
681.21	5350	
681.4	6382.8	
681.58	6207.4	
681.77	5030.5	
681.95	4960.2	
682.14	6982.2	
682.32	7217	
682.51	5558.9	
682.69	4797.7	
682.88	6292.7	
683.06	6683.9	
683.25	5375.2	
683.43	5623.7	
683.62	6576	
683.8	6793.8	
683.99	5812.1	
684.17	5258.5	
684.36	7322.9	
684.54	6434.7	
684.73	4804.5	
684.91	4883.7	
685.1	6731	
685.28	6262	
685.46	5281	
685.65	5225.7	
685.83	6703.7	
686.02	6266.8	
686.2	4733.5	
686.39	4879.6	
686.57	6072.2	
686.76	7030.7	
686.94	4778.6	
687.13	4901.5	
687.31	6465.4	
687.5	6256.5	
687.68	4519.9	
687.86	5280.3	
688.05	7507.9	
688.23	5896.8	
688.42	5406	
688.6	4871.4	
688.79	6154.8	
688.97	6176	
689.16	5160.9	
689.34	4403.8	
689.52	6692.1	
689.71	6898.2	
689.89	5366.4	
690.08	4917.9	
690.26	6421.1	
690.45	6307.7	
690.63	5456.5	
690.81	4981.3	
691	6406.7	
691.18	6164.4	
691.37	5183.4	
691.55	6614.9	
691.74	6158.2	
691.92	7570.7	
692.1	5026.4	
692.29	4707.6	
692.47	6287.9	
692.66	5833.3	
692.84	4841.4	
693.02	5210.7	
693.21	5897.5	
693.39	6318.7	
693.58	5281	
693.76	4807.9	
693.94	7017	
694.13	6906.4	
694.31	4842.1	
694.5	5558.9	
694.68	6053.8	
694.86	6439.5	
695.05	5087.8	
695.23	5204.6	
695.42	6603.3	
695.6	8127	
695.78	5522	
695.97	4917.9	
696.15	6690	
696.34	6218.3	
696.52	4762.9	
696.7	5373.9	
696.89	6539.2	
697.07	6087.2	
697.25	5325.4	
697.44	6238.8	
697.62	6442.2	
697.81	6679.1	
697.99	5104.9	
698.17	5350	
698.36	6125.5	
698.54	6534.4	
698.72	5297.4	
698.91	4653	
699.09	6281.1	
699.28	5985.5	
699.46	5052.3	
699.64	4957.4	
699.83	6093.4	
700.01	6732.4	
700.19	5453.1	
700.38	4412.7	
700.56	6839.5	
700.74	5986.9	
700.93	4630.5	
701.11	5281.7	
701.29	6481.8	
701.48	7200.7	
701.66	4781.3	
701.84	4805.2	
702.03	6141.9	
702.21	6693.4	
702.39	4548.5	
702.58	4909	
702.76	6480.5	
702.94	6484.6	
703.13	4509.6	
703.31	6218.3	
703.49	5983.5	
703.68	7058.7	
703.86	4638.6	
704.04	5302.9	
704.23	6346.7	
704.41	6516.6	
704.59	4761.5	
704.78	5533.6	
704.96	7439.6	
705.14	6587.6	
705.33	4530.8	
705.51	5147.2	
705.69	6118.6	
705.87	6780.8	
706.06	5304.2	
706.24	4510.3	
706.42	6348.7	
706.61	6500.3	
706.79	5390.3	
706.97	4516.5	
707.16	5997.8	
707.34	6313.2	
707.52	5278.3	
707.7	4721.3	
707.89	5990.3	
708.07	5931.6	
708.25	5270.1	
708.44	5361.6	
708.62	6001.2	
708.8	6746.7	
708.98	5502.9	
709.17	4735.6	
709.35	6271.6	
709.53	6261.3	
709.72	4461.8	
709.9	4692.6	
710.08	6498.9	
710.26	6531	
710.45	5588.9	
710.63	4672.1	
710.81	6161	
710.99	6113.9	
711.18	5141.1	
711.36	4708.3	
711.54	6053.8	
711.72	6572.6	
711.91	4838	
712.09	4500.1	
712.27	6206.7	
712.45	6599.2	
712.64	4959.5	
712.82	4289.1	
713	5743.2	
713.18	5865.4	
713.37	4356	
713.55	5205.3	
713.73	6449.1	
713.91	5584.1	
714.1	4611.3	
714.28	4322.6	
714.46	6226.5	
714.64	5696.1	
714.83	3940.3	
715.01	4453	
715.19	5758.9	
715.37	5186.8	
715.55	4100.7	
715.74	4343.1	
715.92	6255.9	
716.1	4879.6	
716.28	5099.4	
716.47	4444.1	
716.65	5416.2	
716.83	5387.5	
717.01	4366.3	
717.19	4294.6	
717.38	6841.6	
717.56	5078.3	
717.74	4436.6	
717.92	3820.1	
718.1	6032	
718.29	5416.2	
718.47	3538.2	
718.65	4017.4	
718.83	5976	
719.01	5853.8	
719.2	3478.1	
719.38	4246.1	
719.56	5658.5	
719.74	6683.9	
719.92	4057	
720.11	4712.4	
720.29	5741.1	
720.47	5160.2	
720.65	3718.4	
720.83	4375.8	
721.02	5454.4	
721.2	5173.2	
721.38	4310.3	
721.56	3801.7	
721.74	4813.4	
721.92	4932.9	
722.11	4612	
722.29	4430.4	
722.47	5840.8	
722.65	5189.6	
722.83	3807.2	
723.01	4384.7	
723.2	5308.3	
723.38	5461.9	
723.56	3364.1	
723.74	4186.7	
723.92	4927.4	
724.1	5683.8	
724.29	3781.2	
724.47	4493.2	
724.65	5018.9	
724.83	4896	
725.01	3661.8	
725.19	4254.3	
725.37	4955.4	
725.56	4939.7	
725.74	3564.8	
725.92	3689.1	
726.1	4887.1	
726.28	5128.1	
726.46	3974.4	
726.64	3749.8	
726.83	5208	
727.01	5222.3	
727.19	3512.3	
727.37	3986	
727.55	5221.6	
727.73	5496.7	
727.91	3426.3	
728.09	3345	
728.28	5563	
728.46	5642.2	
728.64	4078.2	
728.82	4031.8	
729	6244.9	
729.18	5801.2	
729.36	3482.2	
729.54	5098.8	
729.72	6418.3	
729.91	5231.2	
730.09	4893.3	
730.27	3945.8	
730.45	5158.2	
730.63	5605.3	
730.81	4322.6	
730.99	3712.3	
731.17	5958.2	
731.35	4979.3	
731.53	4019.5	
731.71	3824.2	
731.9	5782.1	
732.08	5827.2	
732.26	3975.8	
732.44	3777.8	
732.62	5909.1	
732.8	5510.4	
732.98	4209.3	
733.16	3536.8	
733.34	5553.4	
733.52	4597.7	
733.7	3939.6	
733.88	4128.7	
734.07	5393	
734.25	5205.3	
734.43	3555.3	
734.61	4595.6	
734.79	6309.1	
734.97	5206.6	
735.15	3624.9	
735.33	3847.5	
735.51	5401.2	
735.69	5119.9	
735.87	4576.5	
736.05	3949.8	
736.23	5309	
736.41	5023	
736.59	3935.5	
736.77	3903.4	
736.95	5502.2	
737.13	5100.1	
737.32	3611.9	
737.5	3784	
737.68	5930.9	
737.86	5040.1	
738.04	3538.2	
738.22	4826.4	
738.4	4984.8	
738.58	5209.3	
738.76	3900.7	
738.94	3202.3	
739.12	5133.6	
739.3	4928.1	
739.48	4280.3	
739.66	4143	
739.84	5259.2	
740.02	5112.4	
740.2	3277.4	
740.38	3454.2	
740.56	5413.5	
740.74	4618.9	
740.92	3956.7	
741.1	3885.7	
741.28	5008	
741.46	4877.6	
741.64	3662.5	
741.82	4049.5	
742	5125.4	
742.18	5032.5	
742.36	3760.8	
742.54	3506.8	
742.72	5545.2	
742.9	4533.5	
743.08	4049.5	
743.26	3203.7	
743.44	5548.6	
743.62	5504.3	
743.8	4192.2	
743.98	3480.2	
744.16	5246.9	
744.34	5057.1	
744.52	4087.1	
744.7	4020.8	
744.88	5416.2	
745.06	5066	
745.24	4068.6	
745.42	4144.4	
745.6	5448.3	
745.78	5370.5	
745.96	3318.4	
746.14	3501.3	
746.32	5988.3	
746.5	5421	
746.68	3845.4	
746.86	3535.5	
747.03	5659.2	
747.21	4572.4	
747.39	3897.3	
747.57	3480.9	
747.75	5128.8	
747.93	5371.1	
748.11	3497.9	
748.29	3485.6	
748.47	6292.7	
748.65	4906.3	
748.83	4024.9	
749.01	3786	
749.19	5331.5	
749.37	4658.4	
749.55	3786	
749.73	3724.6	
749.91	5113.1	
750.09	4956.1	
750.26	3800.3	
750.44	3414.6	
750.62	5076.2	
750.8	5008.6	
750.98	3314.3	
751.16	3536.2	
751.34	5153.4	
751.52	4698.7	
751.7	4110.3	
751.88	3192.1	
752.06	5475.6	
752.24	5267.4	
752.42	3234.4	
752.59	3500	
752.77	5014.8	
752.95	5948	
753.13	4019.5	
753.31	3601	
753.49	4798.4	
753.67	5098.8	
753.85	3862.5	
754.03	3465.2	
754.21	5355.4	
754.38	5586.9	
754.56	3546.4	
754.74	2954.5	
754.92	4823	
755.1	5235.3	
755.28	3017.3	
755.46	3040.6	
755.64	5979.4	
755.82	6047	
755.99	3291.1	
756.17	3401	
756.35	4240.7	
756.53	5362.3	
756.71	2611.8	
756.89	3267.2	
757.07	5015.5	
757.25	4360.1	
757.42	3638.6	
757.6	4160.8	
757.78	5096	
757.96	4342.4	
758.14	3394.8	
758.32	3043.3	
758.5	4033.1	
758.67	4723.3	
758.85	3230.3	
759.03	3348.4	
759.21	4820.2	
759.39	4361.5	
759.57	2970.2	
759.75	3760.1	
759.92	5303.6	
760.1	4813.4	
760.28	3991.5	
760.46	4174.4	
760.64	4556	
760.82	4446.8	
760.99	3873.4	
761.17	3308.8	
761.35	5092.6	
761.53	4353.3	
761.71	3351.8	
761.89	3903.4	
762.06	5003.2	
762.24	4663.9	
762.42	3433.1	
762.6	3287.7	
762.78	4660.5	
762.96	5090.6	
763.13	3718.4	
763.31	3463.8	
763.49	5133.6	
763.67	4647.5	
763.85	3975.8	
764.02	4379.2	
764.2	5454.4	
764.38	4760.2	
764.56	3341.6	
764.74	4020.2	
764.91	5402.5	
765.09	4627.7	
765.27	3170.3	
765.45	3038.5	
765.63	5543.9	
765.8	5398.4	
765.98	2869.9	
766.16	3065.8	
766.34	4407.9	
766.52	4199	
766.69	3744.4	
766.87	2938.8	
767.05	4678.9	
767.23	5168.4	
767.41	3181.2	
767.58	3395.5	
767.76	5137.7	
767.94	5162.9	
768.12	3273.3	
768.29	3793.5	
768.47	4724	
768.65	5244.8	
768.83	2972.3	
769	3775.8	
769.18	4438.6	
769.36	4916.5	
769.54	3773.7	
769.72	2990.7	
769.89	5223.7	
770.07	5239.4	
770.25	3295.2	
770.43	4171.7	
770.6	5756.2	
770.78	5956.9	
770.96	3446.7	
771.14	3297.9	
771.31	5138.4	
771.49	4653.7	
771.67	2862.4	
771.85	2992.8	
772.02	4052.9	
772.2	4621.6	
772.38	3550.5	
772.55	3147	
772.73	4906.3	
772.91	4676.2	
773.09	3459	
773.26	3562.1	
773.44	4842.8	
773.62	4602.5	
773.8	3119.1	
773.97	2948.4	
774.15	4883.7	
774.33	4645.5	
774.5	3018.7	
774.68	3239.9	
774.86	5057.1	
775.04	4602.5	
775.21	3130.7	
775.39	3084.2	
775.57	4822.3	
775.74	5023.7	
775.92	2964.8	
776.1	2869.2	
776.27	4793.6	
776.45	5679	
776.63	3127.2	
776.81	2798.2	
776.98	4625	
777.16	5296.7	
777.34	3223.5	
777.51	3418.1	
777.69	4626.4	
777.87	4391.5	
778.04	3274	
778.22	3664.5	
778.4	4414.7	
778.57	4898.7	
778.75	2729.3	
778.93	2925.9	
779.1	4367	
779.28	4142.4	
779.46	2754.5	
779.64	3094.5	
779.81	5060.5	
779.99	5589.6	
780.17	3598.3	
780.34	3661.8	
780.52	4585.4	
780.69	4756.7	
780.87	3354.6	
781.05	3020.8	
781.22	4704.9	
781.4	4737	
781.58	3084.9	
781.75	2540.2	
781.93	4784.7	
782.11	4214	
782.28	3773.7	
782.46	3146.4	
782.64	4179.2	
782.81	4840	
782.99	3228.3	
783.17	3099.9	
783.34	4741	
783.52	4348.5	
783.69	3217.4	
783.87	3913.7	
784.05	4377.9	
784.22	4259.8	
784.4	3900.7	
784.58	3382.6	
784.75	5078.3	
784.93	4442.7	
785.1	3056.9	
785.28	3607.8	
785.46	4863.2	
785.63	4269.3	
785.81	3125.9	
785.99	3016	
786.16	4507.6	
786.34	4696.7	
786.51	3046	
786.69	3375.1	
786.87	4111	
787.04	4481	
787.22	3030.3	
787.39	3618.1	
787.57	4303.5	
787.75	5124	
787.92	3810.6	
788.1	3701.4	
788.27	4323.3	
788.45	4104.8	
788.63	3534.1	
788.8	2596.8	
788.98	4743.1	
789.15	4024.3	
789.33	2707.4	
789.5	3157.3	
789.68	4978.6	
789.86	5053	
790.03	3411.9	
790.21	3045.3	
790.38	5060.5	
790.56	4420.2	
790.73	2992.8	
790.91	2969.6	
791.09	4300.7	
791.26	4848.9	
791.44	3153.9	
791.61	2742.9	
791.79	4347.8	
791.96	4330.1	
792.14	2835.1	
792.32	2603	
792.49	4302.8	
792.67	4481.6	
792.84	2925.9	
793.02	2756.6	
793.19	4683.7	
793.37	5116.5	
793.54	2571.6	
793.72	2817.3	
793.89	5180	
794.07	4275.5	
794.25	3113.6	
794.42	2648.7	
794.6	5087.8	
794.77	4793.6	
794.95	3420.1	
795.12	2996.9	
795.3	4341	
795.47	4709.6	
795.65	3353.2	
795.82	3196.9	
796	4242.7	
796.17	5556.1	
796.35	3121.8	
796.52	3638.6	
796.7	4738.3	
796.87	4821.6	
797.05	3087.7	
797.22	3695.9	
797.4	4758.1	
797.57	5421	
797.75	3224.2	
797.92	3060.3	
798.1	5000.5	
798.27	4186	
798.45	2682.2	
798.62	2802.3	
798.8	4557.4	
798.97	4864.6	
799.15	3317	
799.32	3192.1	
799.5	4059.8	
799.67	4578.6	
799.85	3478.8	
800.02	2532.7	
800.2	4319.8	
800.37	4491.2	
800.55	3519.8	
800.72	3054.2	
800.9	4869.4	
801.07	5134.9	
801.25	4006.5	
801.42	3311.6	
801.6	4932.2	
801.77	4562.9	
801.95	3129.3	
802.12	2988.7	
802.29	4638.6	
802.47	4618.2	
802.64	3293.8	
802.82	2596.8	
802.99	4302.8	
803.17	4951.3	
803.34	3192.1	
803.52	2907.4	
803.69	5446.9	
803.87	4136.9	
804.04	3187.3	
804.21	3228.3	
804.39	5181.4	
804.56	4447.5	
804.74	2820.1	
804.91	3300.6	
805.09	4319.2	
805.26	4354.7	
805.44	2834.4	
805.61	3056.9	
805.78	4852.3	
805.96	4777.2	
806.13	3302	
806.31	3528.7	
806.48	4009.9	
806.66	4351.9	
806.83	3275.4	
807	3240.6	
807.18	4339	
807.35	4629.8	
807.53	3057.6	
807.7	2650.8	
807.87	5142.4	
808.05	4347.2	
808.22	3529.3	
808.4	2651.4	
808.57	4294.6	
808.74	4077.5	
808.92	2972.3	
809.09	3690.4	
809.27	4351.9	
809.44	4689.8	
809.61	2683.5	
809.79	2928.6	
809.96	5283.8	
810.14	4812	
810.31	2629.6	
810.48	3211.9	
810.66	4412.7	
810.83	4876.2	
811.01	2988	
811.18	3247.4	
811.35	4851.6	
811.53	3911.6	
811.7	3542.3	
811.87	3317	
812.05	4414.1	
812.22	4296	
812.39	2935.4	
812.57	2878.1	
812.74	4390.2	
812.92	5485.8	
813.09	3137.5	
813.26	3353.2	
813.44	5362.3	
813.61	4242	
813.78	2658.9	
813.96	3455.6	
814.13	4415.4	
814.3	4152.6	
814.48	3688.4	
814.65	3082.9	
814.82	5165	
815	4120.5	
815.17	3249.4	
815.34	3826.3	
815.52	4303.5	
815.69	4278.9	
815.87	3136.8	
816.04	3097.2	
816.21	4330.8	
816.38	3983.3	
816.56	3140.9	
816.73	2922.5	
816.9	5365	
817.08	4853.7	
817.25	2936.1	
817.42	3551.9	
817.6	4082.3	
817.77	4329.4	
817.94	3265.8	
818.12	2866.5	
818.29	4180.6	
818.46	5946.6	
818.64	3059.7	
818.81	2794.1	
818.98	4165.6	
819.16	5600.5	
819.33	3374.4	
819.5	3224.9	
819.67	4620.2	
819.85	5132.9	
820.02	3184.6	
820.19	3282.9	
820.37	4523.3	
820.54	4225	
820.71	3258.3	
820.88	3950.5	
821.06	4526.7	
821.23	4203.8	
821.4	3263.1	
821.58	3234.4	
821.75	4778.6	
821.92	4448.2	
822.09	2651.4	
822.27	2755.2	
822.44	4383.3	
822.61	4283	
822.79	2719.7	
822.96	4855.7	
823.13	4603.2	
823.3	4100	
823.48	3039.2	
823.65	2758.6	
823.82	4864.6	
823.99	4097.3	
824.17	3832.4	
824.34	2850.1	
824.51	5575.3	
824.68	4423.6	
824.86	2950.4	
825.03	3222.1	
825.2	4424.3	
825.37	5077.6	
825.55	2949.8	
825.72	3197.6	
825.89	5528.8	
826.06	5169.8	
826.24	3159.3	
826.41	3137.5	
826.58	5233.2	
826.75	4578.6	
826.92	2587.3	
827.1	2767.5	
827.27	6685.3	
827.44	5388.2	
827.61	2955.2	
827.79	3546.4	
827.96	4224.3	
828.13	4363.5	
828.3	3107.5	
828.47	2652.8	
828.65	4666	
828.82	4530.8	
828.99	3829.7	
829.16	3410.6	
829.34	4910.3	
829.51	4754	
829.68	3190.7	
829.85	3261	
830.02	5143.1	
830.2	4890.5	
830.37	2550.4	
830.54	3735.5	
830.71	5441.5	
830.88	4375.1	
831.05	2504.7	
831.23	2910.2	
831.4	5310.4	
831.57	5602.6	
831.74	3048.7	
831.91	2632.3	
832.09	4698.7	
832.26	4851	
832.43	3005.1	
832.6	3419.4	
832.77	4648.9	
832.94	5121.3	
833.12	2504.7	
833.29	2990	
833.46	4676.9	
833.63	5900.9	
833.8	3297.2	
833.97	3009.1	
834.15	4922	
834.32	4702.1	
834.49	3186	
834.66	3237.2	
834.83	4967.7	
835	4209.9	
835.17	2931.3	
835.35	2992.1	
835.52	4797	
835.69	4707.6	
835.86	3140.2	
836.03	2607.1	
836.2	4874.2	
836.37	4569	
836.55	3029.6	
836.72	2906.8	
836.89	4575.8	
837.06	4990.9	
837.23	3075.4	
837.4	3353.2	
837.57	5410.7	
837.75	5838.8	
837.92	2837.8	
838.09	2973.7	
838.26	4538.3	
838.43	4999.1	
838.6	3181.9	
838.77	2821.4	
838.94	5560.9	
839.11	5479	
839.29	3061	
839.46	2450.1	
839.63	4875.5	
839.8	4651.6	
839.97	2962.7	
840.14	2930.6	
840.31	4753.3	
840.48	4877.6	
840.65	2540.2	
840.82	2953.2	
841	4897.4	
841.17	4689.8	
841.34	2745	
841.51	2809.8	
841.68	4835.3	
841.85	4607.2	
842.02	2861.7	
842.19	2390.7	
842.36	4739.7	
842.53	4699.4	
842.7	2804.4	
842.87	3282.2	
843.05	5819	
843.22	4582	
843.39	2654.2	
843.56	2854.2	
843.73	4525.3	
843.9	4937.7	
844.07	4234.5	
844.24	3601	
844.41	6500.3	
844.58	4296.6	
844.75	2634.4	
844.92	2859	
845.09	4815.5	
845.26	4856.4	
845.43	2803.7	
845.6	2876	
845.77	4866	
845.94	4645.5	
846.12	2990	
846.29	3130.7	
846.46	5085.8	
846.63	4792.9	
846.8	2762.7	
846.97	3194.8	
847.14	5111	
847.31	4814.8	
847.48	2992.1	
847.65	3272	
847.82	5018.9	
847.99	4924.7	
848.16	3622.2	
848.33	3334.8	
848.5	4502.1	
848.67	5176.6	
848.84	2710.1	
849.01	2863.1	
849.18	4467.3	
849.35	4246.1	
849.52	3338.2	
849.69	2693.8	
849.86	5005.9	
850.03	5078.3	
850.2	2811.2	
850.37	3257	
850.54	5114.5	
850.71	4588.1	
850.88	3274	
851.05	2712.2	
851.22	4684.4	
851.39	5203.2	
851.56	2585.2	
851.73	3097.2	
851.9	4344.4	
852.07	5025.7	
852.24	3013.9	
852.41	2685.6	
852.58	4780.6	
852.75	4372.4	
852.92	3046	
853.09	2695.8	
853.26	4523.3	
853.43	5117.2	
853.6	2742.2	
853.77	2380.4	
853.94	5203.2	
854.11	4320.5	
854.28	3915.7	
854.44	2942.9	
854.61	5488.6	
854.78	5048.2	
854.95	2750.4	
855.12	3315.7	
855.29	4029	
855.46	5165	
855.63	2743.6	
855.8	3624.9	
855.97	4498.7	
856.14	5073.5	
856.31	3717.7	
856.48	2891	
856.65	4554	
856.82	4255	
856.99	2624.8	
857.16	2938.8	
857.33	5696.1	
857.49	4597.7	
857.66	2932.7	
857.83	3099.3	
858	4607.9	
858.17	4760.2	
858.34	2655.5	
858.51	2811.9	
858.68	5245.5	
858.85	5282.4	
859.02	3171.6	
859.19	3272	
859.36	4338.3	
859.52	4302.1	
859.69	2770.9	
859.86	3196.2	
860.03	4336.2	
860.2	5258.5	
860.37	2515.6	
860.54	2805	
860.71	4965	
860.88	5264.6	
861.05	3007.1	
861.21	3355.3	
861.38	5262.6	
861.55	4184.7	
861.72	2510.1	
861.89	3024.2	
862.06	5024.3	
862.23	5399.1	
862.4	2618.7	
862.56	2841.2	
862.73	4910.3	
862.9	4692.6	
863.07	3148.4	
863.24	2508.8	
863.41	4289.1	
863.58	4333.5	
863.75	2818.7	
863.91	3145	
864.08	5181.4	
864.25	4909.7	
864.42	3375.1	
864.59	3702.7	
864.76	5419.6	
864.93	4326	
865.09	2665.8	
865.26	2936.1	
865.43	5128.1	
865.6	5404.6	
865.77	2454.1	
865.94	2711.5	
866.1	5163.6	
866.27	4916.5	
866.44	3956.7	
866.61	2635.7	
866.78	4626.4	
866.95	4931.5	
867.11	2676	
867.28	2442.5	
867.45	5104.9	
867.62	4365.6	
867.79	3115.6	
867.96	2690.3	
868.12	4258.4	
868.29	4928.1	
868.46	2732	
868.63	3504.8	
868.8	5024.3	
868.97	4919.9	
869.13	2863.7	
869.3	2903.3	
869.47	4806.6	
869.64	4992.9	
869.81	2768.2	
869.97	2756.6	
870.14	4777.9	
870.31	5242.1	
870.48	2683.5	
870.65	3394.2	
870.81	4569.7	
870.98	4554.7	
871.15	3089	
871.32	2896.5	
871.48	4810.7	
871.65	5251	
871.82	2702	
871.99	2971.6	
872.16	5575.3	
872.32	5128.1	
872.49	2814.6	
872.66	2764.1	
872.83	4967.7	
872.99	4446.8	
873.16	3108.8	
873.33	2706.7	
873.5	4693.3	
873.67	4758.1	
873.83	2862.4	
874	3517	
874.17	4778.6	
874.34	5472.9	
874.5	3500	
874.67	3348.4	
874.84	5216.2	
875.01	4256.4	
875.17	3717.1	
875.34	2741.5	
875.51	4734.2	
875.68	5623	
875.84	3231.7	
876.01	3833.1	
876.18	5027.1	
876.34	4902.2	
876.51	2769.5	
876.68	2736.8	
876.85	4532.8	
877.01	5195	
877.18	3788.7	
877.35	2704.7	
877.52	4806.6	
877.68	4304.8	
877.85	2713.6	
878.02	2664.4	
878.18	4521.9	
878.35	4489.1	
878.52	2281.4	
878.69	3001	
878.85	5027.1	
879.02	4914.4	
879.19	3685.7	
879.35	2932.7	
879.52	4947.9	
879.69	5060.5	
879.86	2401.6	
880.02	3039.2	
880.19	4664.6	
880.36	5504.3	
880.52	3093.8	
880.69	3124.5	
880.86	5053	
881.02	5038.7	
881.19	3020.1	
881.36	2897.2	
881.52	4945.2	
881.69	4416.1	
881.86	2956.6	
882.02	2878.1	
882.19	5112.4	
882.36	5839.4	
882.52	2806.4	
882.69	3740.3	
882.86	4767.7	
883.02	4774.5	
883.19	3265.1	
883.36	3067.9	
883.52	4990.9	
883.69	5573.9	
883.86	2803.7	
884.02	2512.9	
884.19	4967.7	
884.36	4736.3	
884.52	3047.4	
884.69	2931.3	
884.86	4462.5	
885.02	5359.5	
885.19	3025.5	
885.36	3090.4	
885.52	4653.7	
885.69	4786.8	
885.86	3763.5	
886.02	3422.2	
886.19	4980	
886.35	4517.8	
886.52	3013.2	
886.69	3704.1	
886.85	4329.4	
887.02	5166.3	
887.19	5166.3	
887.35	5166.3	
887.52	5166.3	
887.68	5166.3	
887.85	5166.3	
888.02	5166.3	
888.18	5166.3	
888.35	5166.3	
888.51	5166.3	
888.68	5166.3	
888.85	5166.3	
889.01	5166.3	
889.18	5166.3	
889.35	5166.3	
889.51	5166.3	
889.68	5166.3	
889.84	5166.3	
890.01	5166.3	
890.17	5166.3	
890.34	5166.3	
890.51	5166.3	
890.67	5166.3	
890.84	5166.3	
891	5166.3	
891.17	5166.3	
891.34	5166.3	
891.5	5166.3	
891.67	5166.3	
891.83	5166.3	
892	5166.3	
892.16	5166.3	
892.33	5166.3	
892.5	5166.3	
892.66	5166.3	
892.83	5166.3	
892.99	5166.3	
893.16	5166.3	
893.32	5166.3	
893.49	5166.3	
893.65	5166.3	
893.82	5166.3	
893.99	5166.3	
894.15	5166.3	
894.32	5166.3	
894.48	5166.3	
894.65	5166.3	
894.81	5166.3	
894.98	5166.3	
895.14	5166.3	
895.31	5166.3	
895.47	5166.3	
895.64	5166.3	
895.81	5166.3	
895.97	5166.3	
896.14	5166.3	
896.3	5166.3	
896.47	5166.3	
896.63	5166.3	
896.8	5166.3	
896.96	5166.3	
897.13	5166.3	
897.29	5166.3	
897.46	5166.3	
897.62	5166.3	
897.79	5166.3	
897.95	5166.3	
898.12	5166.3	
898.28	5166.3	
898.45	5166.3	
898.61	5166.3	
898.78	5166.3	
898.94	5166.3	
899.11	5166.3	
899.27	5166.3	
899.44	5166.3	
899.6	5166.3	
899.77	5166.3	
899.93	5166.3	
900.1	5166.3	
900.26	5166.3	
900.43	5166.3	
900.59	5166.3	
900.76	5166.3	
900.92	5166.3	
901.09	5166.3	
901.25	5166.3	
901.42	5166.3	
901.58	5166.3	
901.75	5166.3	
901.91	5166.3	
902.07	5166.3	
902.24	5166.3	
902.4	5166.3	
902.57	5166.3	
902.73	5166.3	
902.9	5166.3	
903.06	5166.3	
903.23	5166.3	
903.39	5166.3	
903.56	5166.3	
903.72	5166.3	
903.88	5166.3	
904.05	5166.3	
904.21	5166.3	
904.38	5166.3	
904.54	5166.3	
904.71	5166.3	
904.87	5166.3	
905.03	5166.3	
905.2	5166.3	
905.36	5166.3	
905.53	5166.3	
905.69	5166.3	
905.86	5166.3	
906.02	5166.3	
906.18	5166.3	
906.35	5166.3	
906.51	5166.3	
906.68	5166.3	
906.84	5166.3	
907.01	5166.3	
907.17	5166.3	
907.33	5166.3	
907.5	5166.3	
907.66	5166.3	
907.83	5166.3	
907.99	5166.3	
908.15	5166.3	
908.32	5166.3	
908.48	5166.3	
908.65	5166.3	
908.81	5166.3	
908.97	5166.3	
909.14	5166.3	
909.3	5166.3	
909.47	5166.3	
909.63	5166.3	
909.79	5166.3	
909.96	5166.3	
910.12	5166.3	
910.28	5166.3	
910.45	5166.3	
910.61	5166.3	
910.78	5166.3	
910.94	5166.3	
911.1	5166.3	
911.27	5166.3	
911.43	5166.3	
911.59	5166.3	
911.76	5166.3	
911.92	5166.3	
912.08	5166.3	
912.25	5166.3	
912.41	5166.3	
912.57	5166.3	
912.74	5166.3	
912.9	5166.3	
913.07	5166.3	
913.23	5166.3	
913.39	5166.3	
913.56	5166.3	
913.72	5166.3	
913.88	5166.3	
914.05	5166.3	
914.21	5166.3	
914.37	5166.3	
914.54	5166.3	
914.7	5166.3	
914.86	5166.3	
915.03	5166.3	
915.19	5166.3	
