Wavelength	Intensities	
nm	a.u.	
179.22	1913.1	
179.44	1910.8	
179.65	1915.5	
179.86	1906	
180.08	1899.8	
180.29	4975.9	
180.51	3553.9	
180.72	5690.6	
180.94	6763.1	
181.15	3284.9	
181.37	3266.5	
181.58	5577.3	
181.79	5846.3	
182.01	3416	
182.22	3697.3	
182.44	5896.8	
182.65	4881	
182.87	4647.5	
183.08	4029	
183.29	6147.3	
183.51	5031.2	
183.72	3758	
183.94	5464.7	
184.15	5473.5	
184.37	5462.6	
184.58	3246	
184.79	4504.2	
185.01	5001.1	
185.22	5849	
185.44	4744.5	
185.65	3945.1	
185.86	5309.7	
186.08	4936.3	
186.29	3137.5	
186.51	3424.9	
186.72	5085.1	
186.94	6062	
187.15	3951.2	
187.36	4080.9	
187.58	7748.1	
187.79	5593.7	
188.01	4282.3	
188.22	6718.7	
188.43	6775.4	
188.65	5813.5	
188.86	3445.4	
189.08	4095.9	
189.29	5269.4	
189.5	5248.3	
189.72	3794.9	
189.93	3912.3	
190.15	6036.7	
190.36	7263.5	
190.57	4166.3	
190.79	4102.8	
191	6174.6	
191.22	6128.9	
191.43	4183.3	
191.64	3347.1	
191.86	6151.4	
192.07	6067.4	
192.29	3548.4	
192.5	3842	
192.71	6080.4	
192.93	5179.3	
193.14	3713	
193.35	3844.7	
193.57	5216.2	
193.78	6070.2	
194	2983.9	
194.21	3692.5	
194.42	4997.7	
194.64	5528.8	
194.85	4105.5	
195.07	4842.8	
195.28	5529.5	
195.49	4734.2	
195.71	5018.2	
195.92	3497.9	
196.13	5674.2	
196.35	5774.6	
196.56	5373.2	
196.78	4134.8	
196.99	7117.4	
197.2	6656.6	
197.42	4717.8	
197.63	4179.9	
197.84	4884.4	
198.06	5569.8	
198.27	3812	
198.48	5079.6	
198.7	5210	
198.91	5382.7	
199.13	4154	
199.34	4141.7	
199.55	5911.1	
199.77	4733.5	
199.98	3623.5	
200.19	4228.4	
200.41	5402.5	
200.62	5090.6	
200.83	4322.6	
201.05	4588.1	
201.26	5354.1	
201.47	5104.2	
201.69	3691.8	
201.9	3442	
202.11	5439.4	
202.33	6451.1	
202.54	3891.8	
202.76	4371	
202.97	5558.9	
203.18	5554.1	
203.4	4308.9	
203.61	4224.3	
203.82	5539.1	
204.04	5092.6	
204.25	4158.7	
204.46	4087.7	
204.68	5513.1	
204.89	5808	
205.1	4069.3	
205.32	3501.3	
205.53	5916.6	
205.74	5976	
205.96	2977.7	
206.17	4290.5	
206.38	5856.5	
206.6	6010.1	
206.81	4767.7	
207.02	3852.2	
207.24	5663.3	
207.45	6189	
207.66	3887.7	
207.88	3351.2	
208.09	5629.2	
208.3	5458.5	
208.52	3639.2	
208.73	3944.4	
208.94	5466	
209.15	6268.8	
209.37	3915.7	
209.58	4145.1	
209.79	6007.4	
210.01	5299.5	
210.22	3121.1	
210.43	3238.5	
210.65	5442.8	
210.86	5883.8	
211.07	3986	
211.29	3626.3	
211.5	5799.8	
211.71	5459.9	
211.93	3614.7	
212.14	3609.9	
212.35	5365.7	
212.56	5622.4	
212.78	4190.1	
212.99	3393.5	
213.2	6475	
213.42	5260.5	
213.63	3722.5	
213.84	3947.1	
214.06	4855.1	
214.27	4940.4	
214.48	3905.5	
214.69	4194.9	
214.91	6168.5	
215.12	6258.6	
215.33	4261.8	
215.55	4727.4	
215.76	6844.3	
215.97	5905	
216.18	4059.8	
216.4	4002.4	
216.61	5113.1	
216.82	5990.3	
217.04	3646.7	
217.25	3800.3	
217.46	6113.2	
217.67	5915.9	
217.89	3181.9	
218.1	3360	
218.31	5552	
218.53	5656.5	
218.74	3780.6	
218.95	3627.6	
219.16	5441.5	
219.38	6411.5	
219.59	3708.9	
219.8	4459.8	
220.01	7077.1	
220.23	5507.7	
220.44	4887.1	
220.65	3599	
220.87	5509	
221.08	6120.7	
221.29	3334.1	
221.5	4505.5	
221.72	7520.1	
221.93	5237.3	
222.14	4185.4	
222.35	4911.7	
222.57	5480.4	
222.78	5872.9	
222.99	3959.4	
223.2	4245.4	
223.42	5814.2	
223.63	5948	
223.84	3011.9	
224.05	2992.8	
224.27	7082.6	
224.48	6496.2	
224.69	4965	
224.9	4128	
225.12	5686.5	
225.33	5441.5	
225.54	3286.3	
225.75	3716.4	
225.97	5012.7	
226.18	5336.3	
226.39	4003.1	
226.6	3704.8	
226.82	5223.7	
227.03	5075.5	
227.24	4130.1	
227.45	3422.8	
227.67	5834.7	
227.88	6374.6	
228.09	4588.1	
228.3	4557.4	
228.52	5879	
228.73	5452.4	
228.94	3848.1	
229.15	3435.8	
229.36	5417.6	
229.58	5335.6	
229.79	3897.3	
230	4530.1	
230.21	6502.3	
230.43	5588.9	
230.64	4099.4	
230.85	4327.4	
231.06	5941.2	
231.28	5913.2	
231.49	3403	
231.7	4037.9	
231.91	5816.9	
232.12	5528.8	
232.34	3455.6	
232.55	4061.1	
232.76	6167.8	
232.97	5703.6	
233.18	3583.9	
233.4	4093.9	
233.61	5756.2	
233.82	5214.8	
234.03	3765.5	
234.25	3751.9	
234.46	7647.1	
234.67	5497.4	
234.88	4236.6	
235.09	3614.7	
235.31	5830.6	
235.52	5372.5	
235.73	4115.7	
235.94	3473.4	
236.15	5154.1	
236.37	6651.8	
236.58	3603.7	
236.79	3987.4	
237	5814.9	
237.21	4987.5	
237.43	4320.5	
237.64	3325.2	
237.85	10056	
238.06	5043.5	
238.27	4336.9	
238.48	3472.7	
238.7	5801.9	
238.91	5287.9	
239.12	3902.1	
239.33	3993.5	
239.54	5039.4	
239.76	5431.9	
239.97	3929.4	
240.18	3917.8	
240.39	6918.7	
240.6	5770.5	
240.82	4052.9	
241.03	3360.7	
241.24	5453.1	
241.45	6399.2	
241.66	3619.4	
241.87	4337.6	
242.09	6210.8	
242.3	6580.1	
242.51	4278.2	
242.72	4000.4	
242.93	5981.4	
243.14	5397.8	
243.36	4592.2	
243.57	4965	
243.78	6339.8	
243.99	5838.8	
244.2	3948.5	
244.41	3646.7	
244.63	5023.7	
244.84	5840.1	
245.05	4193.6	
245.26	4053.6	
245.47	5741.1	
245.68	6071.5	
245.9	5257.8	
246.11	4172.4	
246.32	5332.9	
246.53	5781.4	
246.74	6483.2	
246.95	3308.2	
247.16	4960.9	
247.38	5521.3	
247.59	3302	
247.8	3944.4	
248.01	5124.7	
248.22	5418.9	
248.43	3572.3	
248.64	3875.4	
248.86	4807.9	
249.07	5210.7	
249.28	3480.9	
249.49	4115.7	
249.7	6112.5	
249.91	6174.6	
250.12	3284.9	
250.34	3379.1	
250.55	5617.6	
250.76	5487.2	
250.97	4063.9	
251.18	4207.2	
251.39	6223.1	
251.6	5629.2	
251.81	4189.5	
252.03	4240.7	
252.24	5198.4	
252.45	6027.9	
252.66	3424.9	
252.87	4437.3	
253.08	5507.7	
253.29	7259.4	
253.5	3468.6	
253.72	4863.2	
253.93	5264.6	
254.14	6553.5	
254.35	3769.6	
254.56	3891.1	
254.77	5711.8	
254.98	5089.9	
255.19	3732.1	
255.41	4797	
255.62	5610.8	
255.83	6152.8	
256.04	4302.8	
256.25	4186	
256.46	6509.1	
256.67	5129.5	
256.88	4074.8	
257.09	4532.8	
257.31	5051.7	
257.52	5187.5	
257.73	5154.1	
257.94	3766.9	
258.15	5300.8	
258.36	5543.2	
258.57	4793.6	
258.78	3018.7	
258.99	6016.9	
259.2	5359.5	
259.41	3794.9	
259.63	3919.1	
259.84	6381.5	
260.05	6863.4	
260.26	4995	
260.47	3708.9	
260.68	6110.5	
260.89	5375.9	
261.1	4562.2	
261.31	3622.9	
261.52	6035.4	
261.73	6496.2	
261.95	4920.6	
262.16	4321.2	
262.37	6290.7	
262.58	6296.8	
262.79	4915.1	
263	3867.2	
263.21	5508.4	
263.42	4960.2	
263.63	3900	
263.84	3823.6	
264.05	6087.9	
264.26	6446.3	
264.47	4726.7	
264.69	4147.8	
264.9	6231.3	
265.11	5764.3	
265.32	3637.9	
265.53	3762.8	
265.74	5632.6	
265.95	4842.1	
266.16	4062.5	
266.37	4478.9	
266.58	5600.5	
266.79	5303.6	
267	3703.4	
267.21	3457.7	
267.42	5109.7	
267.63	5464.7	
267.84	3920.5	
268.06	3370.3	
268.27	5906.3	
268.48	6204.7	
268.69	3830.4	
268.9	4587.4	
269.11	6212.9	
269.32	4932.9	
269.53	3989.4	
269.74	3644.7	
269.95	5854.5	
270.16	4857.1	
270.37	3971	
270.58	4579.3	
270.79	5319.9	
271	6036.7	
271.21	4337.6	
271.42	4024.9	
271.63	5641.5	
271.84	5141.8	
272.05	3166.2	
272.26	3599.6	
272.47	5560.9	
272.68	5720	
272.89	3788.7	
273.11	4465.9	
273.32	5278.3	
273.53	6518	
273.74	4274.1	
273.95	4221.5	
274.16	6149.4	
274.37	5489.2	
274.58	4333.5	
274.79	3463.8	
275	5569.8	
275.21	6206.7	
275.42	5261.9	
275.63	4502.8	
275.84	5721.3	
276.05	7303.7	
276.26	4194.2	
276.47	3904.8	
276.68	5339.1	
276.89	6512.5	
277.1	4593.6	
277.31	3537.5	
277.52	5755.5	
277.73	5892.7	
277.94	3426.3	
278.15	3814	
278.36	5717.2	
278.57	5124	
278.78	3773	
278.99	4324.6	
279.2	5091.9	
279.41	5005.2	
279.62	5063.9	
279.83	3517	
280.04	6780.1	
280.25	4998.4	
280.46	4947.9	
280.67	3974.4	
280.88	5070.1	
281.09	6179.4	
281.3	4170.3	
281.51	5319.3	
281.72	5203.2	
281.93	6030.6	
282.14	3676.1	
282.35	3979.2	
282.56	5988.3	
282.77	6006	
282.98	3846.1	
283.19	4803.9	
283.4	7399.3	
283.61	5408.7	
283.82	3424.2	
284.03	4947.2	
284.24	5575.3	
284.45	6141.9	
284.66	4932.9	
284.87	4722.6	
285.08	6084.5	
285.29	6216.3	
285.5	3377.8	
285.71	3921.9	
285.92	6150.1	
286.12	6820.4	
286.33	4840	
286.54	3882.9	
286.75	5974.6	
286.96	5344.5	
287.17	3534.1	
287.38	4893.3	
287.59	5086.5	
287.8	5059.8	
288.01	3904.1	
288.22	4428.4	
288.43	6040.1	
288.64	5046.2	
288.85	4585.4	
289.06	4401.1	
289.27	6004	
289.48	6436.1	
289.69	4951.3	
289.9	4449.6	
290.11	6109.1	
290.32	5171.8	
290.53	4689.2	
290.74	4296.6	
290.94	5885.2	
291.15	6002.6	
291.36	3733.4	
291.57	4468.7	
291.78	5243.5	
291.99	4893.3	
292.2	3538.9	
292.41	4296	
292.62	6084.5	
292.83	5877.7	
293.04	5315.8	
293.25	3575.8	
293.46	5274.2	
293.67	6114.6	
293.88	3733.4	
294.09	3558	
294.29	5016.2	
294.5	5651.7	
294.71	3994.2	
294.92	3809.2	
295.13	5276.3	
295.34	6594.5	
295.55	3343	
295.76	3432.4	
295.97	5917.3	
296.18	6720.8	
296.39	3554.6	
296.6	3782.6	
296.81	5620.3	
297.01	5902.9	
297.22	3910.3	
297.43	3684.3	
297.64	5076.9	
297.85	5169.1	
298.06	3076.7	
298.27	3467.2	
298.48	5556.1	
298.69	5147.9	
298.9	4066.6	
299.11	3620.1	
299.31	4965.6	
299.52	4999.8	
299.73	4330.8	
299.94	4232.5	
300.15	5438.7	
300.36	5112.4	
300.57	4252.3	
300.78	4249.5	
300.99	5358.9	
301.2	5608	
301.4	3636.5	
301.61	3993.5	
301.82	5806	
302.03	5909.1	
302.24	4557.4	
302.45	3505.4	
302.66	5855.8	
302.87	6304.3	
303.08	3747.8	
303.29	5177.9	
303.49	5196.4	
303.7	5542.5	
303.91	3315.7	
304.12	4889.2	
304.33	5005.9	
304.54	5615.5	
304.75	3733.4	
304.96	3607.2	
305.16	5794.4	
305.37	6612.2	
305.58	3244	
305.79	3422.2	
306	5806	
306.21	4909.7	
306.42	3676.1	
306.63	5715.9	
306.83	5330.2	
307.04	6133.7	
307.25	4182.6	
307.46	4080.9	
307.67	4672.1	
307.88	5933.6	
308.09	3631	
308.29	3839.3	
308.5	5535	
308.71	6068.8	
308.92	3949.8	
309.13	3631	
309.34	5422.3	
309.55	5423.7	
309.75	4590.9	
309.96	4270	
310.17	5937.1	
310.38	5242.1	
310.59	4494.6	
310.8	3504.1	
311.01	5291.3	
311.21	5350	
311.42	3543	
311.63	3662.5	
311.84	5242.8	
312.05	5629.2	
312.26	4164.2	
312.46	4566.3	
312.67	5296	
312.88	5003.9	
313.09	3598.3	
313.3	3543.7	
313.51	6259.3	
313.71	6705	
313.92	3532.1	
314.13	3762.1	
314.34	5703.6	
314.55	5439.4	
314.76	4646.8	
314.96	4046.1	
315.17	5610.8	
315.38	6050.4	
315.59	3594.9	
315.8	3419.4	
316.01	6389	
316.21	6460.7	
316.42	3457.7	
316.63	3915	
316.84	5376.6	
317.05	6171.9	
317.26	4220.9	
317.46	3825.6	
317.67	5481	
317.88	5947.3	
318.09	4597	
318.3	3323.9	
318.5	5229.8	
318.71	5836	
318.92	5864	
319.13	4259.8	
319.34	6006.7	
319.54	6199.9	
319.75	3316.3	
319.96	3216	
320.17	5924.8	
320.38	6072.9	
320.58	3266.5	
320.79	3971	
321	6095.4	
321.21	6286.6	
321.42	3989.4	
321.62	3279.5	
321.83	5104.9	
322.04	5520	
322.25	3812	
322.46	3611.3	
322.66	5603.9	
322.87	5754.1	
323.08	4494.6	
323.29	3530	
323.5	6622.4	
323.7	5048.2	
323.91	4945.2	
324.12	4465.3	
324.33	5608	
324.53	5739.1	
324.74	4298	
324.95	4463.9	
325.16	4898.7	
325.37	5319.3	
325.57	3624.2	
325.78	3641.3	
325.99	5513.1	
326.2	5010	
326.4	5147.2	
326.61	3334.1	
326.82	5455.1	
327.03	5650.3	
327.24	5059.2	
327.44	4970.4	
327.65	5780.7	
327.86	4635.9	
328.07	4246.8	
328.27	3463.8	
328.48	6258.6	
328.69	5134.3	
328.9	5248.9	
329.1	3932.1	
329.31	5343.8	
329.52	6397.9	
329.73	3579.8	
329.93	4070	
330.14	5494.7	
330.35	5780.7	
330.56	6030.6	
330.76	4459.8	
330.97	5304.9	
331.18	5795.1	
331.39	4042.7	
331.59	3234.4	
331.8	6113.9	
332.01	6303	
332.22	3697.3	
332.42	4361.5	
332.63	5649	
332.84	5182.7	
333.05	4046.1	
333.25	3706.8	
333.46	5283.8	
333.67	5486.5	
333.88	3728	
334.08	4191.5	
334.29	7479.2	
334.5	6233.3	
334.7	3505.4	
334.91	5181.4	
335.12	5087.2	
335.33	5959.6	
335.53	3997	
335.74	6008.1	
335.95	5241.4	
336.16	5095.3	
336.36	4046.1	
336.57	4607.9	
336.78	5031.2	
336.98	6115.2	
337.19	4975.9	
337.4	3938.2	
337.61	6737.1	
337.81	5070.1	
338.02	3670	
338.23	4806.6	
338.43	6285.2	
338.64	5132.2	
338.85	3630.4	
339.05	4789.5	
339.26	6327.5	
339.47	4966.3	
339.68	3583.9	
339.88	5378	
340.09	5760.9	
340.3	5980.1	
340.5	4291.2	
340.71	3257	
340.92	4958.1	
341.13	6260.6	
341.33	3548.4	
341.54	4275.5	
341.75	5765.7	
341.95	5380	
342.16	4046.8	
342.37	4418.2	
342.57	5092.6	
342.78	5453.1	
342.99	4556	
343.19	3238.5	
343.4	5914.5	
343.61	5783.5	
343.81	3888.4	
344.02	3590.8	
344.23	5926.1	
344.43	6324.8	
344.64	4490.5	
344.85	4411.3	
345.06	5793	
345.26	6144.6	
345.47	4113.7	
345.68	4916.5	
345.88	4843.4	
346.09	6003.3	
346.3	4371	
346.5	3274.7	
346.71	5512.4	
346.92	5146.5	
347.12	3271.3	
347.33	4164.2	
347.54	6079.7	
347.74	6482.5	
347.95	4155.3	
348.16	3074	
348.36	5286.5	
348.57	4942.4	
348.78	4123.2	
348.98	4446.1	
349.19	5419.6	
349.39	4998.4	
349.6	3372.3	
349.81	3728	
350.01	5730.2	
350.22	5252.4	
350.43	4027.7	
350.63	4902.2	
350.84	5509	
351.05	5304.2	
351.25	3610.6	
351.46	3278.8	
351.67	6111.1	
351.87	5221	
352.08	3888.4	
352.29	4464.6	
352.49	5998.5	
352.7	5676.3	
352.9	3562.1	
353.11	4381.3	
353.32	6656.6	
353.52	5303.6	
353.73	3472.7	
353.94	4481	
354.14	5778.7	
354.35	5648.3	
354.55	3590.8	
354.76	4007.2	
354.97	5761.6	
355.17	5524.1	
355.38	3381.2	
355.59	4750.6	
355.79	5130.8	
356	5662	
356.2	4005.8	
356.41	3414.6	
356.62	4876.2	
356.82	5398.4	
357.03	4290.5	
357.24	3760.8	
357.44	5157.5	
357.65	5213.4	
357.85	5174.5	
358.06	3986.7	
358.27	4864.6	
358.47	5127.4	
358.68	3249.4	
358.88	4276.8	
359.09	5701.5	
359.3	6056.5	
359.5	4919.2	
359.71	4302.1	
359.91	6612.9	
360.12	5907.7	
360.33	4182.6	
360.53	4667.3	
360.74	5120.6	
360.94	5128.1	
361.15	4390.8	
361.36	3637.9	
361.56	5958.2	
361.77	5344.5	
361.97	4928.1	
362.18	3878.2	
362.38	5990.3	
362.59	4976.6	
362.8	3533.4	
363	3373.7	
363.21	4762.9	
363.41	5508.4	
363.62	4073.4	
363.83	5142.4	
364.03	5550	
364.24	6634.1	
364.44	5230.5	
364.65	5221	
364.85	5274.9	
365.06	5205.3	
365.27	3728.7	
365.47	3730.7	
365.68	6375.3	
365.88	5240.1	
366.09	4128	
366.29	3875.4	
366.5	5567.1	
366.71	6070.2	
366.91	5167.7	
367.12	4327.4	
367.32	6560.3	
367.53	5870.2	
367.73	4210.6	
367.94	5255.8	
368.14	5761.6	
368.35	6739.2	
368.56	4199.7	
368.76	3609.9	
368.97	5927.5	
369.17	7643	
369.38	3705.5	
369.58	3930.1	
369.79	4950.6	
369.99	6280.4	
370.2	5079	
370.4	4066.6	
370.61	5610.1	
370.82	6887.3	
371.02	3960.1	
371.23	3307.5	
371.43	4801.1	
371.64	6182.1	
371.84	3994.9	
372.05	5254.4	
372.25	7608.2	
372.46	5955.5	
372.66	3979.9	
372.87	3932.1	
373.07	5953.4	
373.28	7606.8	
373.48	5020.9	
373.69	4711	
373.9	5422.3	
374.1	5469.4	
374.31	4973.8	
374.51	4545.1	
374.72	6264.7	
374.92	5142.4	
375.13	5141.8	
375.33	4289.1	
375.54	5782.1	
375.74	5229.1	
375.95	4343.1	
376.15	5655.1	
376.36	5818.3	
376.56	5547.3	
376.77	4345.8	
376.97	4906.9	
377.18	6929.6	
377.38	5871.5	
377.59	5266.7	
377.79	3863.8	
378	5652.4	
378.2	6192.4	
378.41	3969.6	
378.61	3792.8	
378.82	6169.8	
379.02	5256.5	
379.23	4042	
379.43	5254.4	
379.64	6259.3	
379.84	5847.6	
380.05	3920.5	
380.25	3844.7	
380.46	5977.3	
380.66	5524.1	
380.87	5345.9	
381.07	5647.6	
381.28	6597.2	
381.48	5940.5	
381.69	3966.9	
381.89	4000.4	
382.1	4838	
382.3	6135.7	
382.51	5163.6	
382.71	6043.6	
382.91	5958.2	
383.12	6522.8	
383.32	4302.1	
383.53	4543.8	
383.73	5767.1	
383.94	5623	
384.14	4450.2	
384.35	3557.3	
384.55	5507.7	
384.76	5997.1	
384.96	4313.7	
385.17	4644.1	
385.37	5937.7	
385.58	5241.4	
385.78	4674.1	
385.98	3536.8	
386.19	5465.3	
386.39	5795.8	
386.6	4091.2	
386.8	4332.8	
387.01	5968.5	
387.21	5955.5	
387.42	4749.2	
387.62	5344.5	
387.83	5259.9	
388.03	5969.8	
388.23	4379.2	
388.44	5273.5	
388.64	4909.7	
388.85	5018.9	
389.05	4717.8	
389.26	5360.2	
389.46	7040.2	
389.67	6466.8	
389.87	4720.6	
390.07	4761.5	
390.28	5608.7	
390.48	5200.5	
390.69	3921.9	
390.89	4224.3	
391.1	5339.7	
391.3	6338.5	
391.5	5464.7	
391.71	6072.2	
391.91	5976.7	
392.12	7134.4	
392.32	5509	
392.53	4696.7	
392.73	5384.1	
392.93	5644.9	
393.14	4374.5	
393.34	5197.1	
393.55	5986.2	
393.75	5579.3	
393.95	4379.2	
394.16	4328	
394.36	5345.2	
394.57	5991.7	
394.77	3910.9	
394.98	4298.7	
395.18	5256.5	
395.38	5408	
395.59	5236.7	
395.79	4057	
396	5423.7	
396.2	5938.4	
396.4	4905.6	
396.61	4891.2	
396.81	6156.2	
397.02	5349.3	
397.22	5228.5	
397.42	5222.3	
397.63	6102.9	
397.83	5266	
398.04	4054.3	
398.24	4471.4	
398.44	5902.2	
398.65	4911.7	
398.85	3902.7	
399.05	4042.7	
399.26	5278.3	
399.46	7062.8	
399.67	4367.6	
399.87	4084.3	
400.07	5571.8	
400.28	5966.4	
400.48	4218.8	
400.69	5306.3	
400.89	6255.9	
401.09	6649.8	
401.3	4011.3	
401.5	5282.4	
401.7	6958.3	
401.91	7137.2	
402.11	4432.5	
402.32	4674.8	
402.52	6246.3	
402.72	6161	
402.93	4872.8	
403.13	3721.2	
403.33	6968.6	
403.54	5694	
403.74	4552.6	
403.94	5470.8	
404.15	5771.9	
404.35	6938.5	
404.56	4353.3	
404.76	6290.7	
404.96	6247	
405.17	5988.3	
405.37	5621.7	
405.57	4874.2	
405.78	6181.5	
405.98	5675.6	
406.18	4298	
406.39	5264.6	
406.59	6307.7	
406.79	5821	
407	4178.5	
407.2	4369	
407.4	6244.3	
407.61	6487.3	
407.81	4283	
408.01	6294.1	
408.22	5253.7	
408.42	7303.1	
408.62	5322.7	
408.83	4760.2	
409.03	5752.1	
409.23	5573.2	
409.44	4886.5	
409.64	5211.4	
409.84	6720.8	
410.05	6632	
410.25	4982	
410.45	4759.5	
410.66	6054.5	
410.86	8651.3	
411.06	5158.2	
411.27	5025	
411.47	8340.7	
411.67	6213.5	
411.88	5341.1	
412.08	5491.3	
412.28	6905.1	
412.49	7385.7	
412.69	4985.4	
412.89	4928.1	
413.09	7268.2	
413.3	7057.3	
413.5	5057.8	
413.7	4667.3	
413.91	6244.3	
414.11	7187	
414.31	4866.7	
414.52	5364.3	
414.72	6815.6	
414.92	6660	
415.12	4917.9	
415.33	5482.4	
415.53	7055.9	
415.73	7359.7	
415.94	5806.7	
416.14	5167	
416.34	6099.5	
416.55	5810.8	
416.75	6387.6	
416.95	5869.5	
417.15	7147.4	
417.36	7859.4	
417.56	6592.4	
417.76	5682.4	
417.97	7512.6	
418.17	7141.3	
418.37	5229.1	
418.57	5248.3	
418.78	6849.8	
418.98	6517.3	
419.18	6275.7	
419.38	6143.9	
419.59	6629.3	
419.79	6216.3	
419.99	5184.8	
420.2	5529.5	
420.4	7111.2	
420.6	7272.3	
420.8	5081.7	
421.01	4961.5	
421.21	6879.8	
421.41	7152.9	
421.61	5491.3	
421.82	5168.4	
422.02	6392.4	
422.22	7460.1	
422.42	6035.4	
422.63	5657.9	
422.83	6636.8	
423.03	7825.3	
423.23	5636	
423.44	4576.5	
423.64	6682.5	
423.84	6405.4	
424.04	5047.6	
424.25	4705.5	
424.45	7616.4	
424.65	7533.1	
424.85	4549.2	
425.06	5129.5	
425.26	7548.8	
425.46	6447	
425.66	5610.1	
425.87	5224.4	
426.07	7294.2	
426.27	7149.5	
426.47	5472.9	
426.67	4842.8	
426.88	7675.8	
427.08	7053.2	
427.28	5684.5	
427.48	4754	
427.69	5978.7	
427.89	6667.5	
428.09	5761.6	
428.29	4772.4	
428.5	7348.1	
428.7	6939.9	
428.9	4713.1	
429.1	5315.8	
429.3	6735.8	
429.51	7243	
429.71	5018.2	
429.91	5832.6	
430.11	7058.7	
430.31	7299	
430.52	5319.3	
430.72	5568.4	
430.92	7785	
431.12	7116.7	
431.32	4951.3	
431.53	5439.4	
431.73	5931.6	
431.93	7771.4	
432.13	4941.1	
432.33	4709.6	
432.54	6522.8	
432.74	6840.9	
432.94	4680.3	
433.14	5807.4	
433.34	7030.7	
433.55	6559	
433.75	5730.9	
433.95	7548.8	
434.15	6813.6	
434.35	6488	
434.56	4889.2	
434.76	4321.2	
434.96	6729.6	
435.16	7038.2	
435.36	4744.5	
435.56	5927.5	
435.77	6393.8	
435.97	6613.6	
436.17	6652.5	
436.37	5851.7	
436.57	6401.3	
436.78	6290	
436.98	7123.5	
437.18	6425.8	
437.38	7036.8	
437.58	6582.2	
437.78	6543.9	
437.99	5160.9	
438.19	7094.8	
438.39	7931.8	
438.59	5089.2	
438.79	4577.9	
438.99	7854.6	
439.2	6520	
439.4	4726.7	
439.6	4756.7	
439.8	6970.6	
440	8013	
440.2	5790.3	
440.4	5890	
440.61	7230	
440.81	7834.8	
441.01	4904.2	
441.21	5900.9	
441.41	7711.3	
441.61	7260.7	
441.81	6154.8	
442.02	7197.2	
442.22	8234.2	
442.42	7390.4	
442.62	4947.2	
442.82	5057.8	
443.02	7656.7	
443.22	6729.6	
443.43	5446.2	
443.63	4979.3	
443.83	6610.2	
444.03	6630.6	
444.23	6359.6	
444.43	5872.9	
444.63	6956.3	
444.83	8271.7	
445.04	5079	
445.24	6395.1	
445.44	7268.9	
445.64	7361.8	
445.84	5890.6	
446.04	5950	
446.24	6677.7	
446.44	7725.6	
446.65	5031.2	
446.85	5527.5	
447.05	7118.1	
447.25	7632.8	
447.45	5624.4	
447.65	4931.5	
447.85	6920.8	
448.05	6654.5	
448.25	5989.6	
448.46	5775.3	
448.66	7044.3	
448.86	6670.2	
449.06	4689.2	
449.26	6027.2	
449.46	7359	
449.66	6308.4	
449.86	5496.1	
450.06	5416.2	
450.26	6534.4	
450.47	7174.7	
450.67	5752.7	
450.87	6102.9	
451.07	7230.7	
451.27	7014.3	
451.47	5053	
451.67	5599.8	
451.87	6657.3	
452.07	7959.8	
452.27	5294.7	
452.47	5226.4	
452.67	6966.5	
452.88	7574.1	
453.08	4614.1	
453.28	6660.7	
453.48	8292.2	
453.68	6931.7	
453.88	5089.2	
454.08	5394.3	
454.28	7352.9	
454.48	6922.1	
454.68	5978	
454.88	6503.7	
455.08	7452.6	
455.28	7163.8	
455.48	5073.5	
455.68	5641.5	
455.89	7879.9	
456.09	7592.5	
456.29	5294.7	
456.49	5382.1	
456.69	7724.3	
456.89	6967.2	
457.09	5950	
457.29	6298.9	
457.49	7387	
457.69	7469.6	
457.89	5730.2	
458.09	5130.2	
458.29	7128.3	
458.49	7746.1	
458.69	6102.9	
458.89	5579.3	
459.09	8099	
459.29	8202.1	
459.49	5724.1	
459.69	6539.8	
459.9	7570	
460.1	7039.6	
460.3	5608	
460.5	5374.6	
460.7	7603.4	
460.9	7280.5	
461.1	4958.8	
461.3	6344.6	
461.5	8220.5	
461.7	7886.7	
461.9	5475.6	
462.1	5941.2	
462.3	7293.5	
462.5	7843	
462.7	5397.1	
462.9	5532.2	
463.1	9009.7	
463.3	8563.2	
463.5	5707	
463.7	6689.3	
463.9	7476.5	
464.1	7851.2	
464.3	5840.1	
464.5	6127.5	
464.7	8095.6	
464.9	7716.1	
465.1	7529	
465.3	6520.7	
465.5	8459.5	
465.7	8473.8	
465.9	6660	
466.1	6599.2	
466.3	8139.3	
466.5	8051.2	
466.7	7428	
466.9	6275.7	
467.1	7926.3	
467.3	8929.1	
467.5	7358.4	
467.7	6167.8	
467.9	9151	
468.1	10075	
468.3	6983.6	
468.5	7449.8	
468.7	7928.4	
468.9	7881.9	
469.1	6549.4	
469.3	7177.4	
469.5	10011	
469.7	7460.1	
469.9	6944.7	
470.1	6193.7	
470.3	7869.7	
470.5	7923.6	
470.7	7525.6	
470.9	6312.5	
471.1	7623.9	
471.3	8229.4	
471.5	6124.8	
471.69	8111.3	
471.89	7551.5	
472.09	7065.5	
472.29	6953.5	
472.49	7350.2	
472.69	7279.2	
472.89	8165.9	
473.09	6043.6	
473.29	6195.8	
473.49	7486	
473.69	7651.9	
473.89	7178.1	
474.09	6347.3	
474.29	8927.8	
474.49	8602.2	
474.69	7109.9	
474.89	6410.1	
475.09	7646.4	
475.29	7666.9	
475.49	5807.4	
475.69	6047.7	
475.88	9332.6	
476.08	7992.5	
476.28	5723.4	
476.48	6291.4	
476.68	8449.2	
476.88	8321.6	
477.08	6092.7	
477.28	6437.4	
477.48	7741.3	
477.68	8526.4	
477.88	5936.4	
478.08	6292.7	
478.28	8734.6	
478.48	7858.7	
478.67	6297.5	
478.87	5771.9	
479.07	8516.8	
479.27	7978.2	
479.47	6587.6	
479.67	6519.4	
479.87	8354.3	
480.07	8998.8	
480.27	5700.9	
480.47	7457.3	
480.67	8075.1	
480.87	8632.2	
481.06	6000.5	
481.26	7034.1	
481.46	7948.2	
481.66	7843	
481.86	6431.3	
482.06	7606.8	
482.26	7658	
482.46	8807.6	
482.66	6454.5	
482.86	5995.1	
483.05	8000.7	
483.25	7374.1	
483.45	8988.5	
483.65	6427.2	
483.85	7578.2	
484.05	7844.4	
484.25	6952.9	
484.45	7413.6	
484.65	8782.4	
484.84	8744.8	
485.04	6315.9	
485.24	6391.7	
485.44	9030.2	
485.64	7343.3	
485.84	5637.4	
486.04	7075.7	
486.24	7742.7	
486.44	8094.9	
486.63	5557.5	
486.83	6453.1	
487.03	7641	
487.23	7815	
487.43	5696.1	
487.63	8156.4	
487.83	7869.7	
488.02	8933.9	
488.22	6652.5	
488.42	7419.1	
488.62	8742.1	
488.82	7697.6	
489.02	6365.8	
489.22	6370.5	
489.41	8648.6	
489.61	8198.7	
489.81	6023.8	
490.01	6098.2	
490.21	8510	
490.41	9176.9	
490.61	6037.4	
490.8	6195.1	
491	7969.3	
491.2	7315.3	
491.4	6830	
491.6	5892.7	
491.8	7982.3	
491.99	8145.5	
492.19	5749.3	
492.39	6242.9	
492.59	8549.6	
492.79	8637.6	
492.99	7023.9	
493.18	6155.5	
493.38	8689.5	
493.58	9382.4	
493.78	6886.6	
493.98	6418.3	
494.18	8309.3	
494.37	7748.1	
494.57	7012.9	
494.77	6890.7	
494.97	8563.9	
495.17	8842.4	
495.37	6513.2	
495.56	6788.3	
495.76	9052.7	
495.96	8574.8	
496.16	7717.4	
496.36	6625.9	
496.55	8819.2	
496.75	8305.2	
496.95	6977.4	
497.15	6875	
497.35	8737.3	
497.54	8814.5	
497.74	6602.7	
497.94	8524.3	
498.14	9478.7	
498.34	9323.7	
498.53	6375.3	
498.73	7215.7	
498.93	8176.2	
499.13	8827.4	
499.33	7004.7	
499.52	7575.4	
499.72	8714.1	
499.92	9031.5	
500.12	6671.6	
500.32	6893.5	
500.51	8994	
500.71	8746.9	
500.91	7666.2	
501.11	7329.7	
501.31	8825.4	
501.5	9265	
501.7	7990.5	
501.9	6909.2	
502.1	8671.1	
502.29	8983.1	
502.49	7410.2	
502.69	7866.2	
502.89	8899.8	
503.09	8850.6	
503.28	6397.2	
503.48	6525.5	
503.68	8091.5	
503.88	8215.8	
504.07	7586.4	
504.27	7022.5	
504.47	8484.7	
504.67	8695.7	
504.86	7427.3	
505.06	7104.4	
505.26	8191.9	
505.46	10106	
505.65	7006.1	
505.85	7298.3	
506.05	8116.1	
506.25	8632.9	
506.44	6361.7	
506.64	7360.4	
506.84	8008.9	
507.04	9035.6	
507.23	6526.9	
507.43	7214.3	
507.63	10109	
507.83	8312	
508.02	7088.7	
508.22	6685.3	
508.42	10283	
508.62	7983.7	
508.81	7020.4	
509.01	7602.1	
509.21	7892.2	
509.4	8152.3	
509.6	7165.2	
509.8	6526.9	
510	8162.5	
510.19	9652.8	
510.39	6552.8	
510.59	6554.9	
510.79	7935.2	
510.98	9365.4	
511.18	6627.9	
511.38	6774.7	
511.57	8832.2	
511.77	8735.3	
511.97	7524.2	
512.17	6418.3	
512.36	8867	
512.56	8732.5	
512.76	6500.9	
512.95	6223.1	
513.15	8996.7	
513.35	7505.8	
513.55	7482.6	
513.74	6579.4	
513.94	8963.3	
514.14	8275.8	
514.33	7496.2	
514.53	7375.4	
514.73	8216.5	
514.92	8487.5	
515.12	6782.2	
515.32	6627.2	
515.51	8481.3	
515.71	9109.4	
515.91	8297.7	
516.11	6692.8	
516.3	10429	
516.5	8099	
516.7	7192.5	
516.89	7828	
517.09	8278.6	
517.29	8109.3	
517.48	7518.1	
517.68	6996.5	
517.88	7975.5	
518.07	8615.1	
518.27	7514.7	
518.47	6498.2	
518.66	9273.9	
518.86	7796.6	
519.06	6305.7	
519.25	6751.5	
519.45	8126.3	
519.65	9720.3	
519.84	7407.5	
520.04	8202.8	
520.24	10130	
520.43	8877.3	
520.63	7234.1	
520.83	6929.6	
521.02	7980.3	
521.22	8731.2	
521.42	7479.9	
521.61	8036.2	
521.81	8275.8	
522.01	8550.3	
522.2	7342	
522.4	7002.7	
522.6	9012.4	
522.79	7767.9	
522.99	7146	
523.18	6462.7	
523.38	8710.7	
523.58	8748.2	
523.77	8529.8	
523.97	6414.2	
524.17	10759	
524.36	9861.7	
524.56	7893.6	
524.76	7567.2	
524.95	8751.7	
525.15	8428.8	
525.34	7221.1	
525.54	7250.5	
525.74	9179	
525.93	8103.8	
526.13	8587.1	
526.33	7205.4	
526.52	9596.8	
526.72	8931.2	
526.91	8487.5	
527.11	7699	
527.31	9486.9	
527.5	9983.2	
527.7	7615.7	
527.89	6688.7	
528.09	8443.8	
528.29	9000.1	
528.48	8126.3	
528.68	7802.1	
528.87	9353.8	
529.07	9306	
529.27	7614.3	
529.46	7131.7	
529.66	8987.2	
529.85	9443.9	
530.05	6933.1	
530.25	7800	
530.44	10555	
530.64	8988.5	
530.83	7359	
531.03	7686.7	
531.23	9366.7	
531.42	9308.7	
531.62	8529.8	
531.81	7651.2	
532.01	9636.4	
532.21	10238	
532.4	7419.8	
532.6	7799.3	
532.79	10445	
532.99	9624.1	
533.18	7796.6	
533.38	8887.5	
533.58	9129.8	
533.77	9997.5	
533.97	7798	
534.16	8570.1	
534.36	10198	
534.55	9226.8	
534.75	8804.2	
534.95	7771.4	
535.14	10036	
535.34	9204.9	
535.53	7445	
535.73	9600.2	
535.92	10635	
536.12	9339.4	
536.31	7606.2	
536.51	8921.6	
536.71	9726.5	
536.9	9342.2	
537.1	7761.8	
537.29	8011.7	
537.49	10198	
537.68	9228.8	
537.88	8320.2	
538.07	7509.9	
538.27	9426.1	
538.46	10515	
538.66	7404.1	
538.86	7880.6	
539.05	9520.3	
539.25	9882.8	
539.44	8122.2	
539.64	7803.4	
539.83	9414.5	
540.03	10460	
540.22	7677.2	
540.42	7798	
540.61	9600.9	
540.81	9716.9	
541	8327.7	
541.2	8877.3	
541.39	9059.5	
541.59	9592	
541.78	8567.3	
541.98	7592.5	
542.18	8863.6	
542.37	8705.2	
542.57	8014.4	
542.76	8613.8	
542.96	8776.2	
543.15	9647.3	
543.35	8112.7	
543.54	7397.9	
543.74	9939.5	
543.93	9532.6	
544.13	8026.7	
544.32	9265.7	
544.52	9755.8	
544.71	8865.7	
544.91	7081.9	
545.1	8464.3	
545.3	8974.2	
545.49	9708.1	
545.69	7136.5	
545.88	7677.8	
546.08	10700	
546.27	10291	
546.47	8265.6	
546.66	7423.9	
546.86	9987.3	
547.05	10615	
547.24	7759.1	
547.44	7591.1	
547.63	8841.8	
547.83	10008	
548.02	7942.7	
548.22	8137.3	
548.41	8626	
548.61	10058	
548.8	7488.1	
549	7363.8	
549.19	9325.1	
549.39	9609.1	
549.58	7212.9	
549.78	7740.6	
549.97	9734	
550.17	9169.4	
550.36	8705.2	
550.55	9781.8	
550.75	9209	
550.94	10191	
551.14	7393.2	
551.33	7870.3	
551.53	8577.6	
551.72	9568.1	
551.92	7948.8	
552.11	7623.2	
552.31	9588.6	
552.5	9749	
552.69	9318.3	
552.89	7276.4	
553.08	9554.5	
553.28	9171.5	
553.47	7659.4	
553.67	8888.9	
553.86	10318	
554.06	8540	
554.25	6892.8	
554.44	7455.3	
554.64	11062	
554.83	10503	
555.03	7415	
555.22	7791.2	
555.42	9826.2	
555.61	9478	
555.8	7618.4	
556	7899	
556.19	8507.3	
556.39	9850	
556.58	7736.5	
556.78	7708.6	
556.97	9404.3	
557.16	8994	
557.36	8987.9	
557.55	7240.3	
557.75	8361.2	
557.94	10283	
558.13	7402.7	
558.33	7190.4	
558.52	9944.9	
558.72	8742.8	
558.91	7187	
559.1	7479.2	
559.3	8486.8	
559.49	8167.3	
559.69	6879.1	
559.88	7865.6	
560.07	9319.6	
560.27	9744.9	
560.46	8048.5	
560.66	8230.1	
560.85	9129.2	
561.04	8273.8	
561.24	7238.9	
561.43	7553.6	
561.63	8544.8	
561.82	8824	
562.01	8750.3	
562.21	7719.5	
562.4	9313.5	
562.59	10314	
562.79	7606.8	
562.98	7228	
563.18	9228.1	
563.37	10753	
563.56	8084	
563.76	7077.8	
563.95	8653.4	
564.14	8522.3	
564.34	7548.8	
564.53	7343.3	
564.73	9241.8	
564.92	9482.8	
565.11	7711.3	
565.31	7134.4	
565.5	9817.3	
565.69	8684.8	
565.89	7285.3	
566.08	7486.7	
566.27	9656.2	
566.47	10133	
566.66	8238.3	
566.85	6778.8	
567.05	9191.3	
567.24	8523.6	
567.44	7129.7	
567.63	8620.6	
567.82	9439.8	
568.02	9170.8	
568.21	7210.9	
568.4	7511.9	
568.6	8994	
568.79	8927.8	
568.98	6934.4	
569.18	7161.7	
569.37	8969.4	
569.56	11062	
569.76	7419.1	
569.95	8450.6	
570.14	9317.6	
570.34	9175.6	
570.53	6874.3	
570.72	6879.8	
570.91	9646.6	
571.11	8774.9	
571.3	7350.8	
571.49	8404.9	
571.69	8903.9	
571.88	8428.1	
572.07	8043.7	
572.27	7943.4	
572.46	8436.3	
572.65	9478.7	
572.85	7206.1	
573.04	7531.7	
573.23	9694.4	
573.43	8901.8	
573.62	6829.3	
573.81	7496.9	
574	8940.7	
574.2	8631.5	
574.39	7299	
574.58	7352.2	
574.78	9798.2	
574.97	9017.2	
575.16	7665.5	
575.36	7953.6	
575.55	9402.2	
575.74	9546.9	
575.93	6804	
576.13	7988.4	
576.32	8748.9	
576.51	9349.7	
576.71	7186.3	
576.9	8606.9	
577.09	9740.1	
577.28	9119.6	
577.48	7805.5	
577.67	6741.2	
577.86	8868.4	
578.05	9043.8	
578.25	7424.6	
578.44	7479.2	
578.63	8939.4	
578.83	10176	
579.02	6723.5	
579.21	8408.3	
579.4	9129.8	
579.6	8754.4	
579.79	7549.5	
579.98	9972.2	
580.17	9550.4	
580.37	9529.2	
580.56	7073	
580.75	7856	
580.94	10120	
581.14	9882.8	
581.33	8330.5	
581.52	7214.3	
581.71	9437	
581.91	10089	
582.1	6861.4	
582.29	7569.3	
582.48	9080	
582.68	8943.5	
582.87	8060.1	
583.06	7564.5	
583.25	9259.5	
583.45	8731.9	
583.64	8340.7	
583.83	9029.5	
584.02	8783.7	
584.21	9407	
584.41	8265.6	
584.6	7478.5	
584.79	8947.6	
584.98	9818.6	
585.18	6982.9	
585.37	6965.1	
585.56	8514.8	
585.75	9426.8	
585.94	7162.4	
586.14	7847.8	
586.33	9963.4	
586.52	9013.1	
586.71	7690.8	
586.91	7419.8	
587.1	8341.4	
587.29	9456.2	
587.48	7316	
587.67	7202.7	
587.87	9103.2	
588.06	9239.8	
588.25	8616.5	
588.44	7755	
588.63	8740	
588.83	9420.7	
589.02	7101	
589.21	6913.3	
589.4	8442.4	
589.59	8191.2	
589.78	6169.8	
589.98	6449.1	
590.17	7948.2	
590.36	8555	
590.55	5776.6	
590.74	6732.4	
590.94	9867.8	
591.13	8417.2	
591.32	6455.9	
591.51	6025.8	
591.7	8996	
591.89	8303.8	
592.09	6106.4	
592.28	6668.9	
592.47	7483.3	
592.66	9522.4	
592.85	6144.6	
593.05	6371.9	
593.24	8099	
593.43	9007	
593.62	6415.6	
593.81	6956.9	
594	8185.7	
594.19	8507.9	
594.39	6354.8	
594.58	6289.3	
594.77	8517.5	
594.96	9204.3	
595.15	6210.1	
595.34	6932.4	
595.54	8583.7	
595.73	7649.8	
595.92	5602.6	
596.11	6877.1	
596.3	9116.2	
596.49	7774.1	
596.68	6608.1	
596.88	7129	
597.07	8895.7	
597.26	7566.6	
597.45	6133.7	
597.64	7466.2	
597.83	7947.5	
598.02	8549.6	
598.22	6275.7	
598.41	7064.8	
598.6	8335.9	
598.79	7791.8	
598.98	6274.3	
599.17	7285.3	
599.36	8357.8	
599.55	9710.8	
599.74	8500.4	
599.94	8241	
600.13	9046.6	
600.32	7743.4	
600.51	6202.6	
600.7	6210.8	
600.89	9682.1	
601.08	9745.6	
601.27	6064	
601.47	7010.2	
601.66	8948.9	
601.85	9680.7	
602.04	6749.4	
602.23	7089.4	
602.42	8023.3	
602.61	8707.3	
602.8	6720.1	
602.99	6523.5	
603.18	8303.8	
603.37	8656.1	
603.57	7150.1	
603.76	7714.7	
603.95	9400.9	
604.14	8963.3	
604.33	6580.8	
604.52	6930.3	
604.71	8518.9	
604.9	8176.9	
605.09	7598.6	
605.28	7349.5	
605.47	9250.7	
605.66	8923.7	
605.86	7175.4	
606.05	6547.4	
606.24	9196.1	
606.43	7707.2	
606.62	6942.6	
606.81	7723.6	
607	9082.1	
607.19	8325	
607.38	6255.2	
607.57	6641.6	
607.76	8112	
607.95	7503.1	
608.14	7016.3	
608.33	7683.3	
608.52	8031.5	
608.72	9018.6	
608.91	6267.5	
609.1	6112.5	
609.29	8264.2	
609.48	7690.8	
609.67	7279.8	
609.86	6250.4	
610.05	7748.8	
610.24	8141.4	
610.43	6083.8	
610.62	5702.2	
610.81	9309.4	
611	9114.1	
611.19	6217.6	
611.38	7012.2	
611.57	8446.5	
611.76	9841.9	
611.95	5962.3	
612.14	5848.3	
612.33	8235.6	
612.52	7743.4	
612.71	6630.6	
612.9	5720	
613.09	7359	
613.28	9843.2	
613.47	6215.6	
613.66	7283.3	
613.85	8312	
614.04	7901.1	
614.24	6421.1	
614.43	5537.7	
614.62	8474.5	
614.81	8463.6	
615	6979.5	
615.19	6911.2	
615.38	7735.2	
615.57	8114.1	
615.76	6759	
615.95	7762.5	
616.14	8472.4	
616.33	8174.1	
616.52	7169.9	
616.71	7387.7	
616.9	8462.9	
617.09	8365.3	
617.28	6372.6	
617.47	7765.9	
617.66	7537.9	
617.85	7550.2	
618.04	7383.6	
618.22	6821.1	
618.41	7881.9	
618.6	8806.3	
618.79	6746	
618.98	6324.8	
619.17	9224.7	
619.36	7351.5	
619.55	6479.8	
619.74	6640.9	
619.93	8457.4	
620.12	7788.4	
620.31	7151.5	
620.5	7320.8	
620.69	8988.5	
620.88	9403.6	
621.07	8006.9	
621.26	7015	
621.45	8577.6	
621.64	8475.9	
621.83	7160.4	
622.02	6146.6	
622.21	8554.4	
622.4	8305.2	
622.59	7716.7	
622.78	7426.6	
622.97	7866.9	
623.16	8865	
623.35	6978.8	
623.54	6161	
623.72	8086.1	
623.91	8296.3	
624.1	7298.3	
624.29	5947.3	
624.48	9322.4	
624.67	8481.3	
624.86	7174.7	
625.05	6165.8	
625.24	9498.5	
625.43	7727.7	
625.62	9019.9	
625.81	6377.4	
626	8911.4	
626.19	8039	
626.38	7174	
626.56	6528.9	
626.75	7903.1	
626.94	8681.3	
627.13	7100.3	
627.32	5782.1	
627.51	8525	
627.7	10016	
627.89	5941.2	
628.08	7094.8	
628.27	7693.5	
628.46	7873.1	
628.65	6253.1	
628.83	5840.8	
629.02	8482.7	
629.21	7774.8	
629.4	6674.3	
629.59	6929	
629.78	7712.7	
629.97	8687.5	
630.16	7035.5	
630.35	6428.6	
630.54	9145.5	
630.72	8850	
630.91	6340.5	
631.1	6991.1	
631.29	8329.8	
631.48	8581.7	
631.67	7122.2	
631.86	6502.3	
632.05	7795.9	
632.24	7950.9	
632.42	6193.7	
632.61	6803.4	
632.8	8047.8	
632.99	7727	
633.18	6784.9	
633.37	7308.5	
633.56	8234.2	
633.75	8084.7	
633.93	6862.7	
634.12	6491.4	
634.31	9146.2	
634.5	8743.5	
634.69	6569.2	
634.88	7120.8	
635.07	8113.4	
635.25	8817.9	
635.44	7466.2	
635.63	7722.9	
635.82	7977.5	
636.01	7387	
636.2	7419.8	
636.39	6959	
636.57	9067	
636.76	8880	
636.95	6388.3	
637.14	7847.1	
637.33	8486.8	
637.52	9505.3	
637.7	6090.7	
637.89	7075.7	
638.08	7972.1	
638.27	9524.4	
638.46	7170.6	
638.65	7685.3	
638.83	9544.9	
639.02	7827.3	
639.21	7183.6	
639.4	7632.1	
639.59	8353.7	
639.78	7850.5	
639.96	6421.7	
640.15	6390.3	
640.34	8251.3	
640.53	8345.5	
640.72	6146.6	
640.91	6478.4	
641.09	7613	
641.28	8926.4	
641.47	6453.8	
641.66	7349.5	
641.85	8352.3	
642.03	8594.6	
642.22	7029.3	
642.41	6467.5	
642.6	7673.1	
642.79	7073	
642.97	6269.5	
643.16	7064.1	
643.35	7632.8	
643.54	7447.1	
643.73	6147.3	
643.91	6942.6	
644.1	7233.4	
644.29	7903.8	
644.48	6235.4	
644.67	6290.7	
644.85	7473	
645.04	7723.6	
645.23	5745.9	
645.42	6079.7	
645.6	7271	
645.79	8463.6	
645.98	5993.7	
646.17	4988.2	
646.36	7005.4	
646.54	7631.4	
646.73	6941.2	
646.92	5599.1	
647.11	7207.5	
647.29	8358.4	
647.48	5713.2	
647.67	5478.3	
647.86	8563.2	
648.05	8604.9	
648.23	6061.3	
648.42	7367.9	
648.61	7940.7	
648.8	7658	
648.98	5715.2	
649.17	6030.6	
649.36	7228.6	
649.55	6833.4	
649.73	5831.2	
649.92	6574.7	
650.11	7193.1	
650.3	7443.7	
650.48	5941.2	
650.67	5692	
650.86	7763.2	
651.05	6665.5	
651.23	5902.9	
651.42	5865.4	
651.61	7136.5	
651.79	7434.8	
651.98	6064.7	
652.17	5700.2	
652.36	7731.1	
652.54	6810.9	
652.73	5742.5	
652.92	5516.5	
653.11	7728.4	
653.29	7856	
653.48	4937	
653.67	5990.3	
653.85	7525.6	
654.04	8577.6	
654.23	6233.3	
654.42	5714.5	
654.6	7060	
654.79	7726.3	
654.98	5254.4	
655.16	5802.6	
655.35	6692.1	
655.54	6614.9	
655.73	5323.4	
655.91	5266	
656.1	7868.3	
656.29	6629.3	
656.47	4849.6	
656.66	6658.6	
656.85	6913.3	
657.03	6890.7	
657.22	5423	
657.41	5470.1	
657.59	6991.8	
657.78	6754.2	
657.97	5117.2	
658.16	5864.7	
658.34	7652.6	
658.53	8058.1	
658.72	6830.7	
658.9	7367.9	
659.09	7051.2	
659.28	7115.3	
659.46	5580	
659.65	5520	
659.84	6851.1	
660.02	7431.4	
660.21	5447.6	
660.4	5371.1	
660.58	7896.3	
660.77	7217.7	
660.96	6060.6	
661.14	5003.2	
661.33	8340.7	
661.52	8267	
661.7	5011.4	
661.89	8905.9	
662.08	6788.3	
662.26	6380.8	
662.45	5254.4	
662.64	5400.5	
662.82	7550.9	
663.01	6683.9	
663.2	5451	
663.38	6254.5	
663.57	7347.4	
663.75	7231.4	
663.94	5780.7	
664.13	7180.2	
664.31	6713.9	
664.5	7450.5	
664.69	5963	
664.87	6604	
665.06	6491.4	
665.25	7283.9	
665.43	6867.5	
665.62	6988.4	
665.8	7544.7	
665.99	6858.6	
666.18	5711.1	
666.36	5848.3	
666.55	7539.9	
666.74	7484.6	
666.92	5384.8	
667.11	7105.8	
667.29	6936.5	
667.48	7590.5	
667.67	6671.6	
667.85	5828.5	
668.04	6957.6	
668.22	6984.3	
668.41	5827.2	
668.6	6042.9	
668.78	6738.5	
668.97	6881.2	
669.15	6204.7	
669.34	5094.7	
669.53	6711.2	
669.71	7077.8	
669.9	5325.4	
670.08	6030.6	
670.27	6777.4	
670.46	7369.3	
670.64	6167.1	
670.83	6419	
671.01	6639.5	
671.2	7267.6	
671.38	5347.2	
671.57	5212.8	
671.76	7947.5	
671.94	8598.1	
672.13	5190.9	
672.31	6406.7	
672.5	7532.4	
672.69	6728.9	
672.87	5386.2	
673.06	5673.6	
673.24	7284.6	
673.43	6763.1	
673.61	6191	
673.8	5687.2	
673.98	7406.8	
674.17	7622.5	
674.36	6211.5	
674.54	6053.1	
674.73	7211.6	
674.91	7440.3	
675.1	5872.2	
675.28	5433.9	
675.47	6967.2	
675.65	7544.7	
675.84	5670.1	
676.03	6010.8	
676.21	6793.8	
676.4	6260.6	
676.58	6559.6	
676.77	6265.4	
676.95	8322.3	
677.14	6718	
677.32	5392.3	
677.51	5132.2	
677.69	7498.3	
677.88	6384.2	
678.06	5214.1	
678.25	5324	
678.44	7015.7	
678.62	6667.5	
678.81	4997	
678.99	6011.5	
679.18	7921.5	
679.36	7372	
679.55	5606	
679.73	6290	
679.92	7352.9	
680.1	6808.8	
680.29	6911.9	
680.47	5573.9	
680.66	6637.5	
680.84	7561.8	
681.03	4920.6	
681.21	6065.4	
681.4	6696.2	
681.58	6576.7	
681.77	5444.9	
681.95	5351.3	
682.14	7642.3	
682.32	8016.4	
682.51	6300.9	
682.69	5133.6	
682.88	6604	
683.06	7441	
683.25	6008.1	
683.43	6408.8	
683.62	6951.5	
683.8	7425.3	
683.99	6571.9	
684.17	5797.1	
684.36	8281.3	
684.54	6855.2	
684.73	4921.3	
684.91	5122	
685.1	7080.5	
685.28	6460	
685.46	5684.5	
685.65	5815.5	
685.83	7432.1	
686.02	6741.2	
686.2	5213.4	
686.39	5377.3	
686.57	6395.1	
686.76	8100.4	
686.94	5244.8	
687.13	5537	
687.31	7350.2	
687.5	6801.3	
687.68	4866	
687.86	6268.1	
688.05	8680.7	
688.23	6231.3	
688.42	6253.1	
688.6	5446.2	
688.79	6830	
688.97	6720.1	
689.16	5847.6	
689.34	4705.5	
689.52	7499	
689.71	7764.5	
689.89	6120.7	
690.08	5300.8	
690.26	6971.3	
690.45	6898.9	
690.63	6311.8	
690.81	5515.2	
691	6630	
691.18	6635.4	
691.37	5698.1	
691.55	7990.5	
691.74	6536.4	
691.92	8726.4	
692.1	5780.1	
692.29	5124.7	
692.47	6908.5	
692.66	6146	
692.84	5396.4	
693.02	6073.6	
693.21	6367.8	
693.39	6953.5	
693.58	6022.4	
693.76	5554.1	
693.94	8202.8	
694.13	8019.8	
694.31	5514.5	
694.5	6647.7	
694.68	6786.3	
694.86	7126.9	
695.05	5939.1	
695.23	6374.6	
695.42	7571.3	
695.6	9953.8	
695.78	6671.6	
695.97	5630.5	
696.15	7516.7	
696.34	6996.5	
696.52	5355.4	
696.7	6324.8	
696.89	7277.1	
697.07	6739.2	
697.25	6219.7	
697.44	7893.6	
697.62	7219.8	
697.81	7694.9	
697.99	5865.4	
698.17	6412.9	
698.36	6614.9	
698.54	7372	
698.72	6264.1	
698.91	5198.4	
699.09	6988.4	
699.28	6859.3	
699.46	5947.3	
699.64	5891.3	
699.83	6846.4	
700.01	8120.2	
700.19	6741.9	
700.38	5023	
700.56	8148.9	
700.74	6969.9	
700.93	5532.9	
701.11	6441.5	
701.29	7679.9	
701.48	8767.4	
701.66	5816.2	
701.84	5848.3	
702.03	7161.1	
702.21	7817.1	
702.39	5412.8	
702.58	6044.2	
702.76	7610.9	
702.94	7794.6	
703.13	5434.6	
703.31	8032.8	
703.49	6875.7	
703.68	8592.6	
703.86	5656.5	
704.04	6745.3	
704.23	7552.9	
704.41	7966.6	
704.59	5882.4	
704.78	7242.3	
704.96	8735.3	
705.14	8009.6	
705.33	5694.7	
705.51	6612.9	
705.69	7466.9	
705.87	8327.7	
706.06	6968.6	
706.24	5739.8	
706.42	7854	
706.61	8060.8	
706.79	7066.9	
706.97	5796.4	
707.16	7322.9	
707.34	7927	
707.52	7023.9	
707.7	6054.5	
707.89	7506.5	
708.07	7119.4	
708.25	7040.9	
708.44	7180.9	
708.62	7475.8	
708.8	8671.1	
708.98	7362.4	
709.17	6265.4	
709.35	7958.4	
709.53	8013	
709.72	5961.6	
709.9	6184.2	
710.08	8170.7	
710.26	8271.7	
710.45	7691.5	
710.63	6379.4	
710.81	7831.4	
710.99	7873.8	
711.18	6947.4	
711.36	6455.2	
711.54	7630.7	
711.72	8447.2	
711.91	6522.8	
712.09	5892.7	
712.27	7791.2	
712.45	8495.7	
712.64	6759.7	
712.82	5595.1	
713	7176.1	
713.18	7253.9	
713.37	5685.2	
713.55	6993.8	
713.73	8086.7	
713.91	6612.2	
714.1	5999.9	
714.28	5304.2	
714.46	7579.5	
714.64	6759	
714.83	4773.1	
715.01	5616.9	
715.19	6691.4	
715.37	6133	
715.55	5259.2	
715.74	5577.3	
715.92	7754.3	
716.1	5713.2	
716.28	6703	
716.47	5696.8	
716.65	6390.3	
716.83	6567.8	
717.01	5591.6	
717.19	5721.3	
717.38	8762.6	
717.56	6236.7	
717.74	5965.7	
717.92	5065.3	
718.1	7673.1	
718.29	6838.9	
718.47	4870.8	
718.65	5573.9	
718.83	7623.9	
719.01	7574.1	
719.2	4775.9	
719.38	5897.5	
719.56	7220.5	
719.74	8852	
719.92	5474.9	
720.11	6580.8	
720.29	7277.8	
720.47	6286.6	
720.65	4928.8	
720.83	5872.9	
721.02	6655.2	
721.2	6390.3	
721.38	5832.6	
721.56	5065.3	
721.74	5890	
721.92	6080.4	
722.11	6375.3	
722.29	6051.1	
722.47	7385.7	
722.65	6548	
722.83	5145.2	
723.01	6019.7	
723.2	6705	
723.38	6942.6	
723.56	4489.1	
723.74	5857.2	
723.92	6109.1	
724.1	7451.2	
724.29	5096	
724.47	6309.1	
724.65	6216.3	
724.83	6127.5	
725.01	4952	
725.19	5907.7	
725.37	6243.6	
725.56	6406.7	
725.74	4812	
725.92	5150.6	
726.1	6178.7	
726.28	6519.4	
726.46	5568.4	
726.64	5217.5	
726.83	6461.3	
727.01	6736.5	
727.19	4845.5	
727.37	5760.3	
727.55	6640.2	
727.73	7260	
727.91	4833.9	
728.09	4696	
728.28	7285.3	
728.46	7942.7	
728.64	5982.1	
728.82	5944.6	
729	8594.6	
729.18	7765.2	
729.36	5268.1	
729.54	7688.8	
729.72	8981	
729.91	7185.6	
730.09	7409.6	
730.27	6156.2	
730.45	7146	
730.63	7851.2	
730.81	6834.1	
730.99	5755.5	
731.17	8406.9	
731.35	6870.3	
731.53	6334.4	
731.71	5852.4	
731.9	8128.4	
732.08	8329.1	
732.26	6170.5	
732.44	5937.7	
732.62	8280.6	
732.8	7849.2	
732.98	6662	
733.16	5625.1	
733.34	7817.1	
733.52	6544.6	
733.7	6147.3	
733.88	6504.3	
734.07	7609.6	
734.25	7400	
734.43	5720	
734.61	7376.1	
734.79	9032.2	
734.97	7308.5	
735.15	5913.2	
735.33	6208.1	
735.51	7828.7	
735.69	7304.4	
735.87	7410.9	
736.05	6494.1	
736.23	7642.3	
736.41	7324.2	
736.59	6329.6	
736.77	6450.4	
736.95	8105.9	
737.13	7651.9	
737.32	5999.2	
737.5	6308.4	
737.68	8744.1	
737.86	7418.4	
738.04	5850.4	
738.22	7765.2	
738.4	7190.4	
738.58	7557	
738.76	6528.9	
738.94	5389.6	
739.12	7408.2	
739.3	7243	
739.48	7167.2	
739.66	6974.7	
739.84	7787.7	
740.02	7752.2	
740.2	5679.7	
740.38	6023.8	
740.56	8198	
740.74	6911.2	
740.92	6724.8	
741.1	6592.4	
741.28	7479.2	
741.46	7372	
741.64	6212.2	
741.82	6715.3	
742	7568.6	
742.18	7508.5	
742.36	6350.8	
742.54	5984.8	
742.72	8194.6	
742.9	6873.7	
743.08	6866.8	
743.26	5517.2	
743.44	8445.8	
743.62	8231.5	
743.8	7038.2	
743.98	5963.7	
744.16	7894.2	
744.34	7589.8	
744.52	6840.2	
744.7	6829.3	
744.88	8000.7	
745.06	7575.4	
745.24	6911.2	
745.42	7009.5	
745.6	8129.1	
745.78	7808.9	
745.96	5618.3	
746.14	5892	
746.32	8881.4	
746.5	8101.8	
746.68	6520	
746.86	5934.3	
747.03	8530.5	
747.21	6763.1	
747.39	6548	
747.57	5971.9	
747.75	7650.5	
747.93	8026.7	
748.11	5977.3	
748.29	5878.4	
748.47	9269.8	
748.65	7301.7	
748.83	6695.5	
749.01	6481.1	
749.19	7862.2	
749.37	6974.7	
749.55	6271.6	
749.73	6377.4	
749.91	7471	
750.09	7271.7	
750.26	6367.8	
750.44	5779.4	
750.62	7608.9	
750.8	7531.7	
750.98	5674.9	
751.16	6004	
751.34	7661.5	
751.52	6870.3	
751.7	6855.9	
751.88	5581.4	
752.06	8067.6	
752.24	7812.3	
752.42	5509.7	
752.59	5945.3	
752.77	7423.2	
752.95	8752.3	
753.13	6711.9	
753.31	6000.5	
753.49	7131	
753.67	7641	
753.85	6283.9	
754.03	5882.4	
754.21	7790.5	
754.38	8165.9	
754.56	6000.5	
754.74	4982	
754.92	6924.2	
755.1	7556.3	
755.28	4663.9	
755.46	4641.4	
755.64	7974.8	
755.82	8030.1	
755.99	4605.9	
756.17	4719.2	
756.35	5173.2	
756.53	6800.6	
756.71	3409.9	
756.89	4397	
757.07	6373.3	
757.25	5451	
757.42	5141.1	
757.6	6082.5	
757.78	6618.4	
757.96	5556.1	
758.14	4831.8	
758.32	4358.8	
758.5	5039.4	
758.67	5897.5	
758.85	4620.2	
759.03	4703.5	
759.21	6072.2	
759.39	5457.8	
759.57	4201.1	
759.75	5428.5	
759.92	6812.2	
760.1	6021	
760.28	5840.8	
760.46	6133	
760.64	5868.1	
760.82	5612.8	
760.99	5817.6	
761.17	4885.8	
761.35	6841.6	
761.53	5844.9	
761.71	5210.7	
761.89	5957.5	
762.06	6857.3	
762.24	6374	
762.42	5396.4	
762.6	5212.1	
762.78	6487.3	
762.96	7187	
763.13	5829.9	
763.31	5519.3	
763.49	7445.7	
763.67	6459.3	
763.85	6500.9	
764.02	6972.7	
764.2	7712.7	
764.38	6782.9	
764.56	5451	
764.74	6295.5	
764.91	7824.6	
765.09	6599.9	
765.27	5085.8	
765.45	4905.6	
765.63	7886	
765.8	7769.3	
765.98	4596.3	
766.16	4970.4	
766.34	6062	
766.52	5976	
766.69	5995.8	
766.87	4807.3	
767.05	6651.8	
767.23	7395.2	
767.41	5089.9	
767.58	5376.6	
767.76	7172	
767.94	7314.7	
768.12	5141.1	
768.29	6012.2	
768.47	6642.2	
768.65	7421.8	
768.83	4717.8	
769	5977.3	
769.18	6168.5	
769.36	6882.5	
769.54	5779.4	
769.72	4724.7	
769.89	7147.4	
770.07	7252.5	
770.25	5089.9	
770.43	6402.6	
770.6	7955	
770.78	8359.8	
770.96	5271.5	
771.14	5954.1	
771.31	7008.8	
771.49	6294.8	
771.67	4328.7	
771.85	4627.7	
772.02	5482.4	
772.2	6315.3	
772.38	5390.3	
772.55	4826.4	
772.73	6638.8	
772.91	6378.1	
773.09	5148.6	
773.26	5306.3	
773.44	6440.9	
773.62	6227.9	
773.8	4729.4	
773.97	4412	
774.15	6529.6	
774.33	6098.9	
774.5	4534.2	
774.68	4931.5	
774.86	6660.7	
775.04	6151.4	
775.21	4589.5	
775.39	4606.6	
775.57	6378.7	
775.74	6893.5	
775.92	4502.1	
776.1	4322.6	
776.27	6412.2	
776.45	7673.1	
776.63	4616.1	
776.81	4117.1	
776.98	5960.3	
777.16	7204.8	
777.34	4723.3	
777.51	5066	
777.69	5948	
777.87	5672.2	
778.04	4725.3	
778.22	5431.9	
778.4	5782.8	
778.57	6399.2	
778.75	3941.7	
778.93	4287.1	
779.1	5501.5	
779.28	5342.5	
779.46	3921.9	
779.64	4397	
779.81	6525.5	
779.99	7506.5	
780.17	5293.3	
780.34	5426.4	
780.52	5978.7	
780.69	6190.3	
780.87	4750.6	
781.05	4283.7	
781.22	6039.5	
781.4	6057.2	
781.58	4388.1	
781.75	3575.1	
781.93	6017.6	
782.11	5399.8	
782.28	5426.4	
782.46	4448.2	
782.64	5182	
782.81	6146	
782.99	4407.9	
783.17	4467.3	
783.34	6047.7	
783.52	5239.4	
783.69	4756.7	
783.87	5511.8	
784.05	5429.8	
784.22	5330.9	
784.4	5517.2	
784.58	4745.8	
784.75	6254.5	
784.93	5335	
785.1	4359.4	
785.28	5046.2	
785.46	5964.4	
785.63	5298.1	
785.81	4369.7	
785.99	4163.5	
786.16	5440.8	
786.34	5885.9	
786.51	4196.3	
786.69	4610.7	
786.87	5003.9	
787.04	5593.7	
787.22	3609.9	
787.39	5055.8	
787.57	5204.6	
787.75	6432.7	
787.92	5268.1	
788.1	5139	
788.27	5304.2	
788.45	5071.5	
788.63	4915.8	
788.8	3543.7	
788.98	5650.3	
789.15	4958.8	
789.33	3721.2	
789.5	4312.3	
789.68	6262.7	
789.86	6313.2	
790.03	4804.5	
790.21	4136.9	
790.38	6256.5	
790.56	5345.2	
790.73	3966.9	
790.91	4052.9	
791.09	5281	
791.26	6016.9	
791.44	4271.4	
791.61	3698.6	
791.79	5214.1	
791.96	5376.6	
792.14	3760.1	
792.32	3337.5	
792.49	5300.8	
792.67	5382.7	
792.84	3874.1	
793.02	3652.9	
793.19	5670.8	
793.37	6507.8	
793.54	3485.6	
793.72	3697.9	
793.89	6639.5	
794.07	5225.7	
794.25	4397	
794.42	3442.6	
794.6	6363	
794.77	5923.4	
794.95	4675.5	
795.12	4101.4	
795.3	5190.2	
795.47	5860.6	
795.65	4452.3	
795.82	4346.5	
796	4988.9	
796.17	7035.5	
796.35	4161.5	
796.52	4962.2	
796.7	5743.9	
796.87	5923.4	
797.05	5109	
797.22	5079.6	
797.4	5857.2	
797.57	6909.8	
797.75	4285	
797.92	3975.8	
798.1	6135.7	
798.27	5193.6	
798.45	3454.2	
798.62	3738.9	
798.8	5488.6	
798.97	5988.3	
799.15	4488.5	
799.32	4327.4	
799.5	4753.3	
799.67	5538.4	
799.85	4656.4	
800.02	3391.4	
800.2	5141.8	
800.37	5515.2	
800.55	4820.9	
800.72	4083	
800.9	6000.5	
801.07	6496.8	
801.25	5386.8	
801.42	4432.5	
801.6	6074.3	
801.77	5732.9	
801.95	3950.5	
802.12	3925.3	
802.29	5674.2	
802.47	5718.6	
802.64	4388.1	
802.82	3270.6	
802.99	5088.5	
803.17	6238.8	
803.34	4282.3	
803.52	3873.4	
803.69	6911.2	
803.87	4862.6	
804.04	4255.7	
804.21	4382	
804.39	6270.2	
804.56	5366.4	
804.74	3541.6	
804.91	4397.7	
805.09	5157.5	
805.26	5276.9	
805.44	3671.3	
805.61	4014.7	
805.78	5848.3	
805.96	5911.1	
806.13	4383.3	
806.31	4752	
806.48	4706.2	
806.66	5286.5	
806.83	4371.7	
807	4273.4	
807.18	5096	
807.35	5558.2	
807.53	4241.3	
807.7	3364.8	
807.87	6411.5	
808.05	5198.4	
808.22	4716.5	
808.4	3390.8	
808.57	5239.4	
808.74	4797	
808.92	3867.9	
809.09	4920.6	
809.27	5044.1	
809.44	5671.5	
809.61	3462.4	
809.79	3799.7	
809.96	6369.2	
810.14	5957.5	
810.31	3339.6	
810.48	4123.9	
810.66	5316.5	
810.83	6042.2	
811.01	3861.1	
811.18	4597	
811.35	5962.3	
811.53	4574.5	
811.7	4749.2	
811.87	4442.7	
812.05	5182	
812.22	5026.4	
812.39	3768.9	
812.57	3648.8	
812.74	5235.3	
812.92	7050.5	
813.09	4126.7	
813.26	4452.3	
813.44	6703.7	
813.61	5102.9	
813.78	3398.9	
813.96	4587.4	
814.13	5164.3	
814.3	4831.8	
814.48	4954	
814.65	4116.4	
814.82	6503.7	
815	5030.5	
815.17	4165.6	
815.34	5138.4	
815.52	5124.7	
815.69	5104.9	
815.87	4188.1	
816.04	3624.9	
816.21	5157.5	
816.38	4577.9	
816.56	4076.1	
816.73	3713.6	
816.9	6587	
817.08	5980.8	
817.25	3751.2	
817.42	4771.8	
817.6	4687.1	
817.77	5157.5	
817.94	4343.7	
818.12	3703.4	
818.29	4929.5	
818.46	7795.9	
818.64	3889.8	
818.81	3693.2	
818.98	4854.4	
819.16	7154.9	
819.33	4532.2	
819.5	4174.4	
819.67	5519.3	
819.85	6340.5	
820.02	4117.1	
820.19	4429.1	
820.37	5404.6	
820.54	4971.8	
820.71	4266.6	
820.88	5304.9	
821.06	5464	
821.23	4936.3	
821.4	4315.8	
821.58	4222.9	
821.75	5956.2	
821.92	5338.4	
822.09	3414.6	
822.27	3514.3	
822.44	5214.1	
822.61	5084.4	
822.79	3476.8	
822.96	6632.7	
823.13	5681.1	
823.3	4884.4	
823.48	3990.8	
823.65	3568.9	
823.82	5901.6	
823.99	4674.1	
824.17	5095.3	
824.34	3612.6	
824.51	6922.1	
824.68	5252.4	
824.86	3794.2	
825.03	4273.4	
825.2	5177.9	
825.37	6305	
825.55	3760.8	
825.72	4221.5	
825.89	6943.3	
826.06	6481.1	
826.24	4101.4	
826.41	4144.4	
826.58	6316.6	
826.75	5525.4	
826.92	3220.8	
827.1	3615.3	
827.27	8752.3	
827.44	6964.5	
827.61	3956.7	
827.79	4768.4	
827.96	4900.8	
828.13	5240.8	
828.3	4036.5	
828.47	3404.4	
828.65	5433.3	
828.82	5385.5	
828.99	5248.9	
829.16	4622.3	
829.34	5864	
829.51	5569.8	
829.68	4242.7	
829.85	4449.6	
830.02	6145.3	
830.2	5862	
830.37	3244.7	
830.54	5116.5	
830.71	6732.4	
830.88	5147.2	
831.05	3312.9	
831.23	3824.2	
831.4	6344.6	
831.57	7258	
831.74	3931.4	
831.91	3425.6	
832.09	5399.8	
832.26	5857.2	
832.43	4085.7	
832.6	4601.1	
832.77	5463.3	
832.94	6214.2	
833.12	3224.2	
833.29	3977.2	
833.46	5627.8	
833.63	7501	
833.8	4417.5	
833.97	4087.1	
834.15	5868.1	
834.32	5669.5	
834.49	4259.8	
834.66	4323.9	
834.83	6081.1	
835	4894.6	
835.17	3899.3	
835.35	3939.6	
835.52	5722	
835.69	5599.8	
835.86	4147.1	
836.03	3394.2	
836.2	5771.2	
836.37	5352	
836.55	4104.8	
836.72	3766.2	
836.89	5357.5	
837.06	5834	
837.23	4134.8	
837.4	4597	
837.57	6668.2	
837.75	7449.8	
837.92	3735.5	
838.09	3906.2	
838.26	5384.1	
838.43	6120	
838.6	4244.1	
838.77	3824.2	
838.94	7043	
839.11	6683.2	
839.29	4035.2	
839.46	3201.7	
839.63	5729.5	
839.8	5491.3	
839.97	3965.6	
840.14	3922.5	
840.31	5567.7	
840.48	5808.7	
840.65	3186.6	
840.82	3896.6	
841	5794.4	
841.17	5744.6	
841.34	3660.4	
841.51	3709.6	
841.68	5662.6	
841.85	5496.1	
842.02	3808.5	
842.19	3058.3	
842.36	5534.3	
842.53	5557.5	
842.7	3633.1	
842.87	4477.5	
843.05	7321.5	
843.22	5508.4	
843.39	3443.3	
843.56	3691.8	
843.73	5253	
843.9	5889.3	
844.07	5911.8	
844.24	4863.2	
844.41	8654	
844.58	4960.9	
844.75	3482.2	
844.92	3745.1	
845.09	5776.6	
845.26	5800.5	
845.43	3576.4	
845.6	3810.6	
845.77	5855.1	
845.94	5540.4	
846.12	4004.5	
846.29	4256.4	
846.46	5997.8	
846.63	5779.4	
846.8	3581.2	
846.97	4278.9	
847.14	6376	
847.31	5713.2	
847.48	4095.3	
847.65	4414.7	
847.82	6131.6	
847.99	6006.7	
848.16	4816.8	
848.33	4455.7	
848.5	5330.9	
848.67	6322.8	
848.84	3601.7	
849.01	3768.9	
849.18	5194.3	
849.35	4847.5	
849.52	4560.8	
849.69	3508.2	
849.86	6012.8	
850.03	6238.1	
850.2	3600.3	
850.37	4412.7	
850.54	6197.2	
850.71	5434.6	
850.88	4319.8	
851.05	3537.5	
851.22	5713.8	
851.39	6296.8	
851.56	3371	
851.73	4141	
851.9	5057.1	
852.07	6014.9	
852.24	3990.1	
852.41	3628.3	
852.58	5667.4	
852.75	5124.7	
852.92	4055	
853.09	3517	
853.26	5335.6	
853.43	6235.4	
853.6	3523.9	
853.77	3062.4	
853.94	6395.1	
854.11	5072.8	
854.28	5406.6	
854.44	3871.3	
854.61	6907.1	
854.78	5894.7	
854.95	3573	
855.12	4509.6	
855.29	4582	
855.46	6481.1	
855.63	3539.6	
855.8	5020.9	
855.97	5317.9	
856.14	6118	
856.31	5113.1	
856.48	3900	
856.65	5274.9	
856.82	5027.8	
856.99	3433.8	
857.16	3875.4	
857.33	7189.1	
857.49	5415.5	
857.66	3889.8	
857.83	4233.8	
858	5413.5	
858.17	5550	
858.34	3396.2	
858.51	3537.5	
858.68	6569.9	
858.85	6541.2	
859.02	4117.8	
859.19	4466.6	
859.36	5046.9	
859.52	5098.8	
859.69	3567.6	
859.86	4289.1	
860.03	5152.7	
860.2	6350.8	
860.37	3244	
860.54	3658.4	
860.71	6016.2	
860.88	6481.8	
861.05	4021.5	
861.21	4549.2	
861.38	6485.2	
861.55	4982	
861.72	3299.3	
861.89	4003.1	
862.06	6103.6	
862.23	6644.3	
862.4	3457	
862.56	3794.9	
862.73	5893.4	
862.9	5563.6	
863.07	4225	
863.24	3293.8	
863.41	4960.9	
863.58	5109	
863.75	3658.4	
863.91	4071.4	
864.08	6465.4	
864.25	5939.8	
864.42	4577.9	
864.59	5092.6	
864.76	6754.9	
864.93	5060.5	
865.09	3474.7	
865.26	3829.7	
865.43	6249.7	
865.6	6742.6	
865.77	3124.5	
865.94	3554.6	
866.1	6309.1	
866.27	6051.1	
866.44	5410.7	
866.61	3353.9	
866.78	5460.6	
866.95	5935.7	
867.11	3503.4	
867.28	3154.6	
867.45	6104.3	
867.62	5200.5	
867.79	4131.4	
867.96	3593.5	
868.12	5036.6	
868.29	6128.9	
868.46	3084.9	
868.63	4810	
868.8	6272.2	
868.97	5942.5	
869.13	3736.2	
869.3	3747.8	
869.47	5885.9	
869.64	6120	
869.81	3619.4	
869.97	3579.2	
870.14	5789.6	
870.31	6485.9	
870.48	3417.4	
870.65	4524	
870.81	5403.2	
870.98	5413.5	
871.15	4035.2	
871.32	3654.9	
871.48	5873.6	
871.65	6566.5	
871.82	3553.9	
871.99	3939.6	
872.16	7039.6	
872.32	6372.6	
872.49	3585.3	
872.66	3624.2	
872.83	6007.4	
872.99	5256.5	
873.16	4154	
873.33	3559.4	
873.5	5664.7	
873.67	5586.2	
873.83	3762.8	
874	4846.2	
874.17	5822.4	
874.34	6961	
874.5	4635.2	
874.67	4485.1	
874.84	6466.8	
875.01	5072.1	
875.17	5154.7	
875.34	3550.5	
875.51	5677	
875.68	6911.9	
875.84	4323.3	
876.01	5335.6	
876.18	6019	
876.34	5899.5	
876.51	3564.8	
876.68	3474	
876.85	5424.4	
877.01	6307.7	
877.18	5157.5	
877.35	3553.2	
877.52	5532.9	
877.68	4975.2	
877.85	3535.5	
878.02	3469.9	
878.18	5537.7	
878.35	5191.6	
878.52	2835.8	
878.69	4001	
878.85	6010.1	
879.02	5975.3	
879.19	5146.5	
879.35	3859.7	
879.52	6019.7	
879.69	6172.6	
879.86	3076.7	
880.02	3999	
880.19	5494.7	
880.36	6778.1	
880.52	4156.7	
880.69	4255	
880.86	6068.1	
881.02	6234.7	
881.19	3909.6	
881.36	3890.5	
881.52	5968.5	
881.69	5304.9	
881.86	3896.6	
882.02	3727.3	
882.19	6338.5	
882.36	7361.8	
882.52	3640.6	
882.69	4982	
882.86	5777.3	
883.02	5651.7	
883.19	4394.3	
883.36	4121.2	
883.52	6143.2	
883.69	7019.1	
883.86	3604.4	
884.02	3244	
884.19	6004	
884.36	5554.8	
884.52	4085	
884.69	3818.8	
884.86	5255.1	
885.02	6639.5	
885.19	3997	
885.36	4197	
885.52	5588.9	
885.69	5808.7	
885.86	5269.4	
886.02	4628.4	
886.19	6019	
886.35	5445.5	
886.52	4012.7	
886.69	5076.9	
886.85	5118.6	
887.02	6473.6	
887.19	6473.6	
887.35	6473.6	
887.52	6473.6	
887.68	6473.6	
887.85	6473.6	
888.02	6473.6	
888.18	6473.6	
888.35	6473.6	
888.51	6473.6	
888.68	6473.6	
888.85	6473.6	
889.01	6473.6	
889.18	6473.6	
889.35	6473.6	
889.51	6473.6	
889.68	6473.6	
889.84	6473.6	
890.01	6473.6	
890.17	6473.6	
890.34	6473.6	
890.51	6473.6	
890.67	6473.6	
890.84	6473.6	
891	6473.6	
891.17	6473.6	
891.34	6473.6	
891.5	6473.6	
891.67	6473.6	
891.83	6473.6	
892	6473.6	
892.16	6473.6	
892.33	6473.6	
892.5	6473.6	
892.66	6473.6	
892.83	6473.6	
892.99	6473.6	
893.16	6473.6	
893.32	6473.6	
893.49	6473.6	
893.65	6473.6	
893.82	6473.6	
893.99	6473.6	
894.15	6473.6	
894.32	6473.6	
894.48	6473.6	
894.65	6473.6	
894.81	6473.6	
894.98	6473.6	
895.14	6473.6	
895.31	6473.6	
895.47	6473.6	
895.64	6473.6	
895.81	6473.6	
895.97	6473.6	
896.14	6473.6	
896.3	6473.6	
896.47	6473.6	
896.63	6473.6	
896.8	6473.6	
896.96	6473.6	
897.13	6473.6	
897.29	6473.6	
897.46	6473.6	
897.62	6473.6	
897.79	6473.6	
897.95	6473.6	
898.12	6473.6	
898.28	6473.6	
898.45	6473.6	
898.61	6473.6	
898.78	6473.6	
898.94	6473.6	
899.11	6473.6	
899.27	6473.6	
899.44	6473.6	
899.6	6473.6	
899.77	6473.6	
899.93	6473.6	
900.1	6473.6	
900.26	6473.6	
900.43	6473.6	
900.59	6473.6	
900.76	6473.6	
900.92	6473.6	
901.09	6473.6	
901.25	6473.6	
901.42	6473.6	
901.58	6473.6	
901.75	6473.6	
901.91	6473.6	
902.07	6473.6	
902.24	6473.6	
902.4	6473.6	
902.57	6473.6	
902.73	6473.6	
902.9	6473.6	
903.06	6473.6	
903.23	6473.6	
903.39	6473.6	
903.56	6473.6	
903.72	6473.6	
903.88	6473.6	
904.05	6473.6	
904.21	6473.6	
904.38	6473.6	
904.54	6473.6	
904.71	6473.6	
904.87	6473.6	
905.03	6473.6	
905.2	6473.6	
905.36	6473.6	
905.53	6473.6	
905.69	6473.6	
905.86	6473.6	
906.02	6473.6	
906.18	6473.6	
906.35	6473.6	
906.51	6473.6	
906.68	6473.6	
906.84	6473.6	
907.01	6473.6	
907.17	6473.6	
907.33	6473.6	
907.5	6473.6	
907.66	6473.6	
907.83	6473.6	
907.99	6473.6	
908.15	6473.6	
908.32	6473.6	
908.48	6473.6	
908.65	6473.6	
908.81	6473.6	
908.97	6473.6	
909.14	6473.6	
909.3	6473.6	
909.47	6473.6	
909.63	6473.6	
909.79	6473.6	
909.96	6473.6	
910.12	6473.6	
910.28	6473.6	
910.45	6473.6	
910.61	6473.6	
910.78	6473.6	
910.94	6473.6	
911.1	6473.6	
911.27	6473.6	
911.43	6473.6	
911.59	6473.6	
911.76	6473.6	
911.92	6473.6	
912.08	6473.6	
912.25	6473.6	
912.41	6473.6	
912.57	6473.6	
912.74	6473.6	
912.9	6473.6	
913.07	6473.6	
913.23	6473.6	
913.39	6473.6	
913.56	6473.6	
913.72	6473.6	
913.88	6473.6	
914.05	6473.6	
914.21	6473.6	
914.37	6473.6	
914.54	6473.6	
914.7	6473.6	
914.86	6473.6	
915.03	6473.6	
915.19	6473.6	
