Wavelength	Intensities	
nm	a.u.	
179.22	1686.3	
179.44	1689.2	
179.65	1683.4	
179.86	1695	
180.08	1664.3	
180.29	3917.1	
180.51	2963.4	
180.72	4926	
180.94	5580.7	
181.15	2723.1	
181.37	2686.3	
181.58	4779.3	
181.79	5027.8	
182.01	2781.1	
182.22	3024.2	
182.44	5033.2	
182.65	4332.1	
182.87	3596.2	
183.08	3255.6	
183.29	5305.6	
183.51	4440.7	
183.72	2966.1	
183.94	4143	
184.15	4743.1	
184.37	4698	
184.58	2676	
184.79	3504.8	
185.01	4487.8	
185.22	5026.4	
185.44	3637.9	
185.65	3235.1	
185.86	4618.2	
186.08	4362.2	
186.29	2585.2	
186.51	2794.1	
186.72	4453.6	
186.94	5091.9	
187.15	3143.6	
187.36	3263.8	
187.58	6345.3	
187.79	4791.6	
188.01	3313.6	
188.22	4974.5	
188.43	5649	
188.65	4983.4	
188.86	2795.5	
189.08	3247.4	
189.29	4541	
189.5	4558.8	
189.72	2988.7	
189.93	3124.5	
190.15	5137.7	
190.36	5901.6	
190.57	3297.9	
190.79	3192.1	
191	5160.9	
191.22	5140.4	
191.43	3280.8	
191.64	2849.4	
191.86	5309	
192.07	5134.3	
192.29	2933.4	
192.5	3013.9	
192.71	5145.2	
192.93	4575.8	
193.14	3000.3	
193.35	3078.1	
193.57	4528.1	
193.78	5081	
194	2485.6	
194.21	2953.2	
194.42	4369.7	
194.64	4713.7	
194.85	3231	
195.07	3689.1	
195.28	4711.7	
195.49	4222.2	
195.71	3889.8	
195.92	2822.1	
196.13	4891.2	
196.35	4924	
196.56	4083	
196.78	3278.1	
196.99	5885.2	
197.2	5496.7	
197.42	3575.8	
197.63	3278.8	
197.84	4334.2	
198.06	4946.5	
198.27	2998.9	
198.48	3842	
198.7	4559.5	
198.91	4755.4	
199.13	3250.8	
199.34	3280.8	
199.55	5087.8	
199.77	4119.8	
199.98	2937.5	
200.19	3244.7	
200.41	4702.1	
200.62	4393.6	
200.83	3385.3	
201.05	3637.2	
201.26	4728.8	
201.47	4489.8	
201.69	2971.6	
201.9	2893.8	
202.11	4780.6	
202.33	5458.5	
202.54	3067.2	
202.76	3399.6	
202.97	4799.8	
203.18	4814.8	
203.4	3375.7	
203.61	3399.6	
203.82	4774.5	
204.04	4465.3	
204.25	3270.6	
204.46	3216.7	
204.68	4730.8	
204.89	4890.5	
205.1	3147.7	
205.32	2836.4	
205.53	5023	
205.74	5090.6	
205.96	2483.5	
206.17	3306.1	
206.38	4950.6	
206.6	5114.5	
206.81	3723.9	
207.02	3048.1	
207.24	4932.2	
207.45	5193	
207.66	3121.8	
207.88	2766.1	
208.09	4814.8	
208.3	4702.8	
208.52	2924.5	
208.73	3165.5	
208.94	4735.6	
209.15	5212.8	
209.37	3159.3	
209.58	3231	
209.79	5134.3	
210.01	4582.7	
210.22	2622.1	
210.43	2691.7	
210.65	4665.3	
210.86	5014.8	
211.07	3114.3	
211.29	2851.5	
211.5	4901.5	
211.71	4689.8	
211.93	2907.4	
212.14	2899.2	
212.35	4688.5	
212.56	4772.4	
212.78	3263.8	
212.99	2762.7	
213.2	5412.8	
213.42	4581.3	
213.63	2973.7	
213.84	3161.4	
214.06	4326.7	
214.27	4335.5	
214.48	3131.3	
214.69	3302	
214.91	5228.5	
215.12	5284.4	
215.33	3342.3	
215.55	3601	
215.76	5607.3	
215.97	4941.7	
216.18	3210.5	
216.4	3194.8	
216.61	4431.8	
216.82	5081.7	
217.04	2950.4	
217.25	3054.9	
217.46	5185.5	
217.67	4991.6	
217.89	2658.3	
218.1	2721.8	
218.31	4797	
218.53	4893.3	
218.74	3064.4	
218.95	2926.5	
219.16	4775.9	
219.38	5377.3	
219.59	2988	
219.8	3469.3	
220.01	5827.2	
220.23	4728.8	
220.44	3695.9	
220.65	2907.4	
220.87	4837.3	
221.08	5183.4	
221.29	2743.6	
221.5	3482.2	
221.72	6076.3	
221.93	4505.5	
222.14	3293.8	
222.35	3793.5	
222.57	4713.7	
222.78	5059.8	
222.99	3166.2	
223.2	3336.8	
223.42	4913.1	
223.63	5038.7	
223.84	2501.3	
224.05	2467.1	
224.27	5777.3	
224.48	5372.5	
224.69	3817.4	
224.9	3293.8	
225.12	4866	
225.33	4674.8	
225.54	2737.5	
225.75	2976.4	
225.97	4428.4	
226.18	4684.4	
226.39	3130	
226.6	2972.3	
226.82	4516.5	
227.03	4472.8	
227.24	3218.7	
227.45	2791.4	
227.67	5034.6	
227.88	5308.3	
228.09	3676.8	
228.3	3659	
228.52	4988.9	
228.73	4685.1	
228.94	3039.2	
229.15	2768.2	
229.36	4669.4	
229.58	4666.6	
229.79	3080.8	
230	3493.8	
230.21	5533.6	
230.43	4804.5	
230.64	3254.2	
230.85	3391.4	
231.06	5056.4	
231.28	5106.3	
231.49	2796.2	
231.7	3201.7	
231.91	5006.6	
232.12	4726	
232.34	2828.9	
232.55	3119.1	
232.76	5162.9	
232.97	4805.2	
233.18	2937.5	
233.4	3220.1	
233.61	4858.5	
233.82	4537.6	
234.03	3018	
234.25	3022.8	
234.46	6154.1	
234.67	4766.3	
234.88	3359.4	
235.09	2974.3	
235.31	4843.4	
235.52	4639.3	
235.73	3248.8	
235.94	2786.6	
236.15	4553.3	
236.37	5569.8	
236.58	2953.2	
236.79	3134.8	
237	4945.8	
237.21	4347.8	
237.43	3405.1	
237.64	2719	
237.85	7716.7	
238.06	4404.5	
238.27	3341.6	
238.48	2818	
238.7	4980	
238.91	4625.7	
239.12	3109.5	
239.33	3205.1	
239.54	4468.7	
239.76	4675.5	
239.97	3194.8	
240.18	3123.8	
240.39	5627.1	
240.6	4845.5	
240.82	3265.1	
241.03	2782.5	
241.24	4711.7	
241.45	5327.4	
241.66	2865.8	
241.87	3446.7	
242.09	5284.4	
242.3	5458.5	
242.51	3360.7	
242.72	3158.7	
242.93	5016.8	
243.14	4663.9	
243.36	3611.3	
243.57	3844	
243.78	5310.4	
243.99	4984.1	
244.2	3157.3	
244.41	2898.6	
244.63	4384	
244.84	4927.4	
245.05	3371.6	
245.26	3184.6	
245.47	4957.4	
245.68	5040.1	
245.9	4058.4	
246.11	3355.9	
246.32	4522.6	
246.53	4905.6	
246.74	4900.8	
246.95	2759.3	
247.16	4442.7	
247.38	4709.6	
247.59	2727.2	
247.8	3229	
248.01	4483.7	
248.22	4669.4	
248.43	2908.1	
248.64	3083.6	
248.86	4308.9	
249.07	4594.3	
249.28	2850.8	
249.49	3237.2	
249.7	5108.3	
249.91	5138.4	
250.12	2699.2	
250.34	2786.6	
250.55	4828.4	
250.76	4687.8	
250.97	3224.2	
251.18	3299.3	
251.39	5147.9	
251.6	4781.3	
251.81	3312.9	
252.03	3318.4	
252.24	4558.8	
252.45	5085.8	
252.66	2833.7	
252.87	3493.2	
253.08	4730.1	
253.29	5865.4	
253.5	2855.6	
253.72	3764.8	
253.93	4617.5	
254.14	5437.4	
254.35	3084.2	
254.56	3109.5	
254.77	4917.9	
254.98	4455.7	
255.19	2995.5	
255.41	3757.3	
255.62	4880.3	
255.83	5205.9	
256.04	3396.9	
256.25	3240.6	
256.46	5657.9	
256.67	4540.3	
256.88	3248.1	
257.09	3605.1	
257.31	4472.8	
257.52	4487.1	
257.73	3977.8	
257.94	3041.2	
258.15	4644.1	
258.36	4688.5	
258.57	3694.5	
258.78	2467.1	
258.99	5100.1	
259.2	4606.6	
259.41	2998.2	
259.63	3112.2	
259.84	5354.1	
260.05	5599.1	
260.26	3770.3	
260.47	2974.3	
260.68	5170.4	
260.89	4644.8	
261.1	3569.6	
261.31	2875.3	
261.52	5204.6	
261.73	5465.3	
261.95	3767.6	
262.16	3319.8	
262.37	5235.3	
262.58	5257.8	
262.79	3827	
263	3056.3	
263.21	4705.5	
263.42	4281.6	
263.63	3294.5	
263.84	3066.5	
264.05	5089.2	
264.26	5369.1	
264.47	3685	
264.69	3271.3	
264.9	5333.6	
265.11	4872.8	
265.32	2955.9	
265.53	3020.8	
265.74	4792.2	
265.95	4217.5	
266.16	3237.2	
266.37	3534.1	
266.58	4829.1	
266.79	4567	
267	3007.8	
267.21	2792.1	
267.42	4353.3	
267.63	4668.7	
267.84	3119.1	
268.06	2741.5	
268.27	5126.7	
268.48	5196.4	
268.69	3097.2	
268.9	3592.1	
269.11	5255.1	
269.32	4277.5	
269.53	3088.3	
269.74	2934.1	
269.95	4908.3	
270.16	4250.9	
270.37	3156.6	
270.58	3606.5	
270.79	4653	
271	5069.4	
271.21	3322.5	
271.42	3167.5	
271.63	4930.1	
271.84	4368.3	
272.05	2608.4	
272.26	2910.8	
272.47	4712.4	
272.68	4866.7	
272.89	3099.9	
273.11	3459.7	
273.32	4520.5	
273.53	5368.4	
273.74	3349.1	
273.95	3289	
274.16	5090.6	
274.37	4748.6	
274.58	3442.6	
274.79	2807.1	
275	4921.3	
275.21	5162.2	
275.42	4097.3	
275.63	3482.2	
275.84	4952.7	
276.05	5947.3	
276.26	3271.3	
276.47	3165.5	
276.68	4683.7	
276.89	5393.7	
277.1	3425.6	
277.31	2809.8	
277.52	4898.1	
277.73	5143.8	
277.94	2794.8	
278.15	3061	
278.36	4845.5	
278.57	4426.3	
278.78	3026.2	
278.99	3368.2	
279.2	4495.3	
279.41	4420.9	
279.62	3976.5	
279.83	2854.2	
280.04	5638.7	
280.25	4446.1	
280.46	3841.3	
280.67	3121.8	
280.88	4503.5	
281.09	5205.9	
281.3	3301.3	
281.51	4059.1	
281.72	4618.9	
281.93	5050.3	
282.14	2993.4	
282.35	3250.1	
282.56	5142.4	
282.77	5070.8	
282.98	3059	
283.19	3659	
283.4	6062	
283.61	4654.4	
283.82	2868.5	
284.03	3761.4	
284.24	4848.9	
284.45	5161.6	
284.66	3860.4	
284.87	3616.7	
285.08	5173.2	
285.29	5272.2	
285.5	2772.3	
285.71	3052.8	
285.92	5133.6	
286.12	5668.8	
286.33	3800.3	
286.54	3108.8	
286.75	5061.2	
286.96	4625	
287.17	2876.7	
287.38	3686.3	
287.59	4493.9	
287.8	4514.4	
288.01	3119.1	
288.22	3536.8	
288.43	4963.6	
288.64	4309.6	
288.85	3621.5	
289.06	3429	
289.27	5056.4	
289.48	5393.7	
289.69	3849.5	
289.9	3518.4	
290.11	5253	
290.32	4549.2	
290.53	3637.9	
290.74	3388	
290.94	5041.4	
291.15	5055.8	
291.36	3035.1	
291.57	3439.2	
291.78	4607.9	
291.99	4311	
292.2	2884.2	
292.41	3347.7	
292.62	5104.2	
292.83	4931.5	
293.04	4079.6	
293.25	2949.8	
293.46	4622.9	
293.67	5141.1	
293.88	2990	
294.09	2932	
294.29	4412.7	
294.5	4765.6	
294.71	3180.5	
294.92	3012.6	
295.13	4627.7	
295.34	5549.3	
295.55	2689.7	
295.76	2691	
295.97	5010	
296.18	5511.8	
296.39	2876.7	
296.6	2983.9	
296.81	4740.4	
297.01	5057.1	
297.22	3120.4	
297.43	2982.5	
297.64	4588.8	
297.85	4373.8	
298.06	2551.8	
298.27	2714.9	
298.48	4713.1	
298.69	4490.5	
298.9	3202.3	
299.11	2941.6	
299.31	4401.1	
299.52	4399	
299.73	3422.8	
299.94	3359.4	
300.15	4733.5	
300.36	4474.1	
300.57	3374.4	
300.78	3353.2	
300.99	4592.9	
301.2	4773.1	
301.4	3002.3	
301.61	3179.1	
301.82	4987.5	
302.03	5096.7	
302.24	3556.6	
302.45	2824.8	
302.66	4971.8	
302.87	5237.3	
303.08	3016	
303.29	3927.3	
303.49	4575.8	
303.7	4690.5	
303.91	2717	
304.12	3694.5	
304.33	4316.4	
304.54	4874.8	
304.75	2963.4	
304.96	2877.4	
305.16	4963.6	
305.37	5510.4	
305.58	2723.1	
305.79	2747	
306	4954	
306.21	4296	
306.42	3020.8	
306.63	4341.7	
306.83	4692.6	
307.04	5120.6	
307.25	3304.1	
307.46	3181.9	
307.67	4162.2	
307.88	4982	
308.09	2991.4	
308.29	3037.1	
308.5	4764.9	
308.71	5176.6	
308.92	3203	
309.13	2889.7	
309.34	4670.1	
309.55	4657.1	
309.75	3702	
309.96	3351.2	
310.17	5014.1	
310.38	4457.7	
310.59	3448.8	
310.8	2850.8	
311.01	4633.9	
311.21	4681.7	
311.42	2920.4	
311.63	2961.4	
311.84	4577.2	
312.05	4727.4	
312.26	3335.5	
312.46	3566.2	
312.67	4602.5	
312.88	4367.6	
313.09	2848.7	
313.3	2861.7	
313.51	5279.7	
313.71	5574.6	
313.92	2902.7	
314.13	3028.9	
314.34	4908.3	
314.55	4703.5	
314.76	3602.4	
314.96	3267.9	
315.17	4901.5	
315.38	4883	
315.59	2916.3	
315.8	2848	
316.01	5287.9	
316.21	5444.9	
316.42	2832.3	
316.63	3184.6	
316.84	4591.5	
317.05	5188.2	
317.26	3343	
317.46	3089.7	
317.67	4727.4	
317.88	5049.6	
318.09	3563.5	
318.3	2703.3	
318.5	4524	
318.71	4898.1	
318.92	4483	
319.13	3347.1	
319.34	5115.8	
319.54	5249.6	
319.75	2814.6	
319.96	2639.1	
320.17	4938.3	
320.38	5132.2	
320.58	2709.5	
320.79	3149.8	
321	5224.4	
321.21	5280.3	
321.42	3190.1	
321.62	2686.3	
321.83	4504.2	
322.04	4735.6	
322.25	3089	
322.46	2932.7	
322.66	4809.3	
322.87	4918.5	
323.08	3508.2	
323.29	2797.5	
323.5	5487.9	
323.7	4392.2	
323.91	3770.3	
324.12	3431.7	
324.33	4848.9	
324.53	4972.5	
324.74	3381.9	
324.95	3446.7	
325.16	4392.9	
325.37	4632.5	
325.57	2931.3	
325.78	2952.5	
325.99	4846.2	
326.2	4319.8	
326.4	3979.9	
326.61	2776.4	
326.82	4700.8	
327.03	4837.3	
327.24	4019.5	
327.44	3698.6	
327.65	4958.1	
327.86	4086.4	
328.07	3368.2	
328.27	2841.2	
328.48	5302.2	
328.69	4362.9	
328.9	4004.5	
329.1	3024.8	
329.31	4701.5	
329.52	5292.6	
329.73	2943.6	
329.93	3188.7	
330.14	4842.8	
330.35	4961.5	
330.56	4499.4	
330.76	3511.6	
330.97	4657.8	
331.18	4856.4	
331.39	3218	
331.59	2637.8	
331.8	5146.5	
332.01	5256.5	
332.22	3033.7	
332.42	3336.8	
332.63	4903.5	
332.84	4498	
333.05	3250.1	
333.25	3012.6	
333.46	4545.8	
333.67	4718.5	
333.88	3063.1	
334.08	3309.5	
334.29	5995.1	
334.5	5169.1	
334.7	2887	
334.91	3979.2	
335.12	4405.2	
335.33	4978.6	
335.53	3202.3	
335.74	4472.8	
335.95	4631.8	
336.16	4419.5	
336.36	3145.7	
336.57	3606.5	
336.78	4356.7	
336.98	5137	
337.19	3850.2	
337.4	3143.6	
337.61	5607.3	
337.81	4432.5	
338.02	3012.6	
338.23	3738.2	
338.43	5303.6	
338.64	4490.5	
338.85	2951.1	
339.05	3730	
339.26	5365.7	
339.47	4296.6	
339.68	2914.3	
339.88	4085	
340.09	4967.7	
340.3	5089.2	
340.5	3349.8	
340.71	2667.1	
340.92	4371	
341.13	5283.1	
341.33	2842.6	
341.54	3372.3	
341.75	4904.2	
341.95	4624.3	
342.16	3247.4	
342.37	3476.8	
342.57	4404.5	
342.78	4680.3	
342.99	3525.9	
343.19	2712.2	
343.4	5034.6	
343.61	4900.8	
343.81	3128.6	
344.02	2814.6	
344.23	5060.5	
344.43	5282.4	
344.64	3564.1	
344.85	3476.8	
345.06	4924	
345.26	5171.1	
345.47	3353.9	
345.68	3856.3	
345.88	4280.3	
346.09	4997.7	
346.3	3453.6	
346.5	2658.3	
346.71	4689.8	
346.92	4523.3	
347.12	2816	
347.33	3318.4	
347.54	5084.4	
347.74	5398.4	
347.95	3272	
348.16	2624.1	
348.36	4593.6	
348.57	4406.5	
348.78	3363.4	
348.98	3533.4	
349.19	4747.9	
349.39	4349.9	
349.6	2763.4	
349.81	2994.8	
350.01	4980	
350.22	4528.7	
350.43	3258.3	
350.63	3741	
350.84	4749.2	
351.05	4517.8	
351.25	2933.4	
351.46	2728.6	
351.67	5130.2	
351.87	4485.1	
352.08	3134.8	
352.29	3533.4	
352.49	5070.8	
352.7	5102.9	
352.9	2822.1	
353.11	3487.7	
353.32	5479	
353.52	4598.4	
353.73	2874	
353.94	3562.1	
354.14	4952.7	
354.35	4802.5	
354.55	2971.6	
354.76	3220.1	
354.97	4902.2	
355.17	4688.5	
355.38	2858.3	
355.59	3732.1	
355.79	4487.8	
356	4732.2	
356.2	3237.8	
356.41	2937.5	
356.62	4343.1	
356.82	4672.8	
357.03	3447.4	
357.24	3149.1	
357.44	4500.1	
357.65	4594.3	
357.85	4025.6	
358.06	3254.9	
358.27	4310.3	
358.47	4472.8	
358.68	2805.7	
358.88	3377.8	
359.09	4903.5	
359.3	5141.8	
359.5	3897.3	
359.71	3515.7	
359.91	5442.8	
360.12	4957.4	
360.33	3399.6	
360.53	3773	
360.74	4547.2	
360.94	4558.1	
361.15	3540.3	
361.36	3036.5	
361.56	5111	
361.77	4758.8	
361.97	3882.9	
362.18	3158.7	
362.38	5190.9	
362.59	4453	
362.8	3031.7	
363	2906.8	
363.21	4281.6	
363.41	4781.3	
363.62	3358.7	
363.83	3992.2	
364.03	4965	
364.24	5501.5	
364.44	4132.1	
364.65	4157.4	
364.85	4700.1	
365.06	4477.5	
365.27	3125.2	
365.47	3160	
365.68	5411.4	
365.88	4696.7	
366.09	3436.5	
366.29	3225.6	
366.5	4844.1	
366.71	5167	
366.91	4048.8	
367.12	3530	
367.32	5654.4	
367.53	5029.8	
367.73	3540.3	
367.94	4209.9	
368.14	5091.9	
368.35	5632.6	
368.56	3472.7	
368.76	3282.9	
368.97	5205.3	
369.17	6260	
369.38	3099.9	
369.58	3369.6	
369.79	4411.3	
369.99	5434.6	
370.2	4108.2	
370.4	3407.1	
370.61	4967.7	
370.82	5886.5	
371.02	3355.9	
371.23	2892.4	
371.43	4451.6	
371.64	5397.8	
371.84	3433.8	
372.05	4192.9	
372.25	6248.4	
372.46	5089.9	
372.66	3400.3	
372.87	3386.7	
373.07	5251	
373.28	6370.5	
373.48	4119.1	
373.69	3951.2	
373.9	4857.1	
374.1	4859.1	
374.31	4085.7	
374.51	3712.3	
374.72	5369.8	
374.92	4667.3	
375.13	4220.9	
375.33	3681.6	
375.54	5126.7	
375.74	4800.4	
375.95	3726.6	
376.15	4575.2	
376.36	5202.5	
376.56	5008.6	
376.77	3737.5	
376.97	4059.1	
377.18	5925.5	
377.38	5284.4	
377.59	4237.9	
377.79	3450.8	
378	5123.3	
378.2	5355.4	
378.41	3504.8	
378.61	3375.1	
378.82	5494	
379.02	4896	
379.23	3588.7	
379.43	4341	
379.64	5606.7	
379.84	5251	
380.05	3493.8	
380.25	3338.2	
380.46	5296.7	
380.66	4996.4	
380.87	4422.9	
381.07	4642.1	
381.28	5751.4	
381.48	5284.4	
381.69	3396.9	
381.89	3521.1	
382.1	4607.2	
382.3	5349.3	
382.51	4284.4	
382.71	4953.4	
382.91	5322.7	
383.12	5610.1	
383.32	3804.4	
383.53	3889.8	
383.73	5236	
383.94	5132.2	
384.14	3892.5	
384.35	3252.2	
384.55	5036.6	
384.76	5287.9	
384.96	3785.3	
385.17	4006.5	
385.37	5345.2	
385.58	4761.5	
385.78	4031.1	
385.98	3192.8	
386.19	4956.8	
386.39	5303.6	
386.6	3618.8	
386.8	3815.4	
387.01	5365.7	
387.21	5373.9	
387.42	4037.9	
387.62	4398.4	
387.83	4941.7	
388.03	5206.6	
388.23	3857.7	
388.44	4386.1	
388.64	4652.3	
388.85	4739	
389.05	4079.6	
389.26	4472.8	
389.46	6206	
389.67	5754.8	
389.87	4092.5	
390.07	4124.6	
390.28	5109	
390.48	4877.6	
390.69	3575.8	
390.89	3773.7	
391.1	5023.7	
391.3	5648.3	
391.5	4648.2	
391.71	5055.8	
391.91	5499.5	
392.12	6139.1	
392.32	4756.7	
392.53	4098	
392.73	5107	
392.93	5165.7	
393.14	3884.3	
393.34	4459.8	
393.55	5504.9	
393.75	5185.5	
393.95	3930.1	
394.16	3873.4	
394.36	5102.2	
394.57	5582.8	
394.77	3556	
394.98	3803.1	
395.18	4954	
395.38	5175.2	
395.59	4481.6	
395.79	3685	
396	5178.6	
396.2	5475.6	
396.4	4352.6	
396.61	4358.8	
396.81	5597.1	
397.02	5120.6	
397.22	4608.6	
397.42	4577.9	
397.63	5671.5	
397.83	5111.7	
398.04	3753.9	
398.24	4207.9	
398.44	5547.3	
398.65	4840.7	
398.85	3709.6	
399.05	3743	
399.26	5167.7	
399.46	6372.6	
399.67	4078.9	
399.87	3943	
400.07	5453.7	
400.28	5665.4	
400.48	4014.7	
400.69	4715.8	
400.89	5837.4	
401.09	6136.4	
401.3	3932.1	
401.5	4693.3	
401.7	6411.5	
401.91	6479.1	
402.11	4219.5	
402.32	4354.7	
402.52	5972.6	
402.72	5814.9	
402.93	4548.5	
403.13	3712.3	
403.33	6444.3	
403.54	5407.3	
403.74	4328	
403.94	4917.9	
404.15	5575.3	
404.35	6451.8	
404.56	4117.1	
404.76	5412.1	
404.96	5963	
405.17	5671.5	
405.37	5194.3	
405.57	4528.1	
405.78	5957.5	
405.98	5561.6	
406.18	4377.2	
406.39	4846.9	
406.59	5952.8	
406.79	5608	
407	4038.6	
407.2	4111.6	
407.4	6269.5	
407.61	6147.3	
407.81	4213.4	
408.01	5705	
408.22	5326.8	
408.42	6717.3	
408.62	5108.3	
408.83	4699.4	
409.03	5804.6	
409.23	5782.1	
409.44	4780.6	
409.64	4911.7	
409.84	6649.1	
410.05	6546	
410.25	5040.1	
410.45	4835.3	
410.66	6298.9	
410.86	8014.4	
411.06	5265.3	
411.27	5143.8	
411.47	7935.9	
411.67	6471.6	
411.88	5294	
412.08	5623.7	
412.28	6980.8	
412.49	7342.7	
412.69	5268.1	
412.89	5276.3	
413.09	7224.6	
413.3	7170.6	
413.5	5357.5	
413.7	5097.4	
413.91	6633.4	
414.11	7275.1	
414.31	5361.6	
414.52	5585.5	
414.72	7085.3	
414.92	7071.6	
415.12	5296.7	
415.33	5752.7	
415.53	7307.8	
415.73	7413	
415.94	6019	
416.14	5627.8	
416.34	6750.1	
416.55	6399.2	
416.75	6425.8	
416.95	6099.5	
417.15	7451.2	
417.36	7909.3	
417.56	6700.3	
417.76	6057.9	
417.97	7649.2	
418.17	7580.2	
418.37	5747.3	
418.57	5795.8	
418.78	7417.7	
418.98	7142.6	
419.18	6498.2	
419.38	6344.6	
419.59	7147.4	
419.79	6844.3	
419.99	5681.7	
420.2	5890	
420.4	7503.1	
420.6	7557.7	
420.8	5597.1	
421.01	5571.2	
421.21	7427.3	
421.41	7468.9	
421.61	5823.7	
421.82	5659.2	
422.02	7155.6	
422.22	7776.1	
422.42	6293.4	
422.63	5944.6	
422.83	7144	
423.03	8017.8	
423.23	5998.5	
423.44	5239.4	
423.64	7152.2	
423.84	6920.1	
424.04	5700.2	
424.25	5278.3	
424.45	7795.3	
424.65	7695.6	
424.85	5272.2	
425.06	5649.7	
425.26	7992.5	
425.46	7080.5	
425.66	6030.6	
425.87	5797.1	
426.07	7652.6	
426.27	7526.3	
426.47	5954.8	
426.67	5449.6	
426.88	7918.1	
427.08	7540.6	
427.28	6209.4	
427.48	5366.4	
427.69	6788.3	
427.89	7161.1	
428.09	5995.1	
428.29	5462.6	
428.5	7641	
428.7	7358.4	
428.9	5446.9	
429.1	5677.7	
429.3	7293.5	
429.51	7599.3	
429.71	5587.5	
429.91	6260.6	
430.11	7630.7	
430.31	7824.6	
430.52	5816.9	
430.72	6197.2	
430.92	8047.8	
431.12	7614.3	
431.32	5705	
431.53	6046.3	
431.73	6876.4	
431.93	8132.5	
432.13	5623	
432.33	5648.3	
432.54	7309.9	
432.74	7505.1	
432.94	5614.2	
433.14	6347.3	
433.34	7746.1	
433.55	7510.6	
433.75	6338.5	
433.95	7689.4	
434.15	7630.7	
434.35	7473.7	
434.56	5780.1	
434.76	5601.2	
434.96	7690.8	
435.16	7881.3	
435.36	5715.2	
435.56	6636.8	
435.77	7460.1	
435.97	7658	
436.17	7169.3	
436.37	6616.3	
436.57	7511.3	
436.78	7477.1	
436.98	6569.9	
437.18	7019.1	
437.38	8004.1	
437.58	7615.7	
437.78	7177.4	
437.99	6124.1	
438.19	7962.5	
438.39	8624	
438.59	6152.1	
438.79	5662.6	
438.99	8467	
439.2	7542	
439.4	5817.6	
439.6	5790.3	
439.8	7768.6	
440	8709.3	
440.2	6705	
440.4	6785.6	
440.61	8199.4	
440.81	8661.5	
441.01	6236.1	
441.21	6922.8	
441.41	8753.7	
441.61	8308.6	
441.81	7123.5	
442.02	7787.7	
442.22	9077.3	
442.42	8480.6	
442.62	6317.3	
442.82	6328.9	
443.02	8802.9	
443.22	8269	
443.43	6779.5	
443.63	6408.8	
443.83	7980.3	
444.03	7905.2	
444.23	7345.4	
444.43	7022.5	
444.63	8421.2	
444.83	9215.9	
445.04	6641.6	
445.24	7499	
445.44	8595.3	
445.64	8681.3	
445.84	7061.4	
446.04	7158.3	
446.24	7999.4	
446.44	8756.4	
446.65	6410.1	
446.85	6749.4	
447.05	8271.7	
447.25	8781	
447.45	6860	
447.65	6393.8	
447.85	8362.5	
448.05	8030.1	
448.25	7216.4	
448.46	7026.6	
448.66	8387.8	
448.86	8018.5	
449.06	6403.3	
449.26	7084.6	
449.46	8665	
449.66	7954.3	
449.86	6991.8	
450.06	6881.2	
450.26	8194.6	
450.47	8635.6	
450.67	7055.9	
450.87	7283.9	
451.07	8710	
451.27	8611	
451.47	6595.8	
451.67	7356.3	
451.87	8328.4	
452.07	9062.9	
452.27	6981.5	
452.47	6936.5	
452.67	8614.4	
452.88	8834.9	
453.08	6318	
453.28	7822.6	
453.48	9699.9	
453.68	8390.5	
453.88	6962.4	
454.08	7022.5	
454.28	9047.2	
454.48	8701.1	
454.68	7492.8	
454.88	7824.6	
455.08	9058.8	
455.28	9000.1	
455.48	6912.6	
455.68	7478.5	
455.89	9485.5	
456.09	9298.5	
456.29	7256.6	
456.49	7372.7	
456.69	9626.8	
456.89	9001.5	
457.09	7686	
457.29	8174.1	
457.49	9259.5	
457.69	9449.3	
457.89	7860.8	
458.09	7247.1	
458.29	9298.5	
458.49	9783.1	
458.69	8183	
458.89	7733.8	
459.09	10087	
459.29	10067	
459.49	7765.2	
459.69	8434.2	
459.9	9573.6	
460.1	9463.7	
460.3	7614.3	
460.5	7596.6	
460.7	9766.8	
460.9	9507.4	
461.1	7538.6	
461.3	8533.9	
461.5	10425	
461.7	10158	
461.9	8073.8	
462.1	8166.6	
462.3	9825.5	
462.5	10305	
462.7	8067.6	
462.9	8176.2	
463.1	11064	
463.3	10937	
463.5	8441	
463.7	9297.1	
463.9	10159	
464.1	10466	
464.3	8811.7	
464.5	8815.8	
464.7	10835	
464.9	10757	
465.1	9858.9	
465.3	9211.8	
465.5	10875	
465.7	11238	
465.9	9620.7	
466.1	9158.5	
466.3	11180	
466.5	10841	
466.7	10185	
466.9	9125.7	
467.1	11227	
467.3	11674	
467.5	10167	
467.7	9432.9	
467.9	11870	
468.1	12439	
468.3	9749	
468.5	10235	
468.7	11118	
468.9	11062	
469.1	9659.6	
469.3	10343	
469.5	12653	
469.7	10891	
469.9	9944.9	
470.1	9536	
470.3	11326	
470.5	11286	
470.7	10492	
470.9	9592	
471.1	11087	
471.3	11264	
471.5	9590	
471.69	10808	
471.89	11107	
472.09	10499	
472.29	10129	
472.49	10186	
472.69	10849	
472.89	11323	
473.09	9512.1	
473.29	9357.2	
473.49	10815	
473.69	10811	
473.89	10053	
474.09	9556.5	
474.29	11901	
474.49	11553	
474.69	10062	
474.89	9650.7	
475.09	11031	
475.29	11124	
475.49	9174.2	
475.69	9566.1	
475.88	12030	
476.08	11314	
476.28	9233.6	
476.48	9381.7	
476.68	11606	
476.88	11343	
477.08	9391.3	
477.28	9693	
477.48	10925	
477.68	11290	
477.88	9305.3	
478.08	9488.9	
478.28	11825	
478.48	11157	
478.67	9718.3	
478.87	8983.8	
479.07	11710	
479.27	11233	
479.47	9645.3	
479.67	9808.4	
479.87	11549	
480.07	12007	
480.27	9299.1	
480.47	10428	
480.67	11274	
480.87	11895	
481.06	9575.6	
481.26	10180	
481.46	11379	
481.66	11241	
481.86	9916.9	
482.06	10590	
482.26	11264	
482.46	11841	
482.66	9837.8	
482.86	9590.6	
483.05	11570	
483.25	11117	
483.45	11749	
483.65	9932.6	
483.85	11273	
484.05	11483	
484.25	10444	
484.45	10756	
484.65	12028	
484.84	12157	
485.04	9910.8	
485.24	9965.4	
485.44	12560	
485.64	11189	
485.84	9633.6	
486.04	10744	
486.24	11533	
486.44	11878	
486.63	9634.3	
486.83	10480	
487.03	11784	
487.23	11894	
487.43	9878	
487.63	11604	
487.83	12026	
488.02	12679	
488.22	10735	
488.42	11213	
488.62	12626	
488.82	11770	
489.02	10342	
489.22	10705	
489.41	12583	
489.61	12441	
489.81	10368	
490.01	10344	
490.21	12721	
490.41	13162	
490.61	10357	
490.8	10558	
491	12369	
491.2	11772	
491.4	10899	
491.6	10200	
491.8	12282	
491.99	12126	
492.19	10043	
492.39	10348	
492.59	12587	
492.79	12631	
492.99	11156	
493.18	10573	
493.38	13028	
493.58	13667	
493.78	11236	
493.98	10903	
494.18	12837	
494.37	12600	
494.57	11612	
494.77	11619	
494.97	13340	
495.17	13747	
495.37	11351	
495.56	11804	
495.76	13966	
495.96	13560	
496.16	12587	
496.36	11882	
496.55	13945	
496.75	13525	
496.95	12126	
497.15	12002	
497.35	13748	
497.54	13853	
497.74	11915	
497.94	13123	
498.14	14601	
498.34	14414	
498.53	11944	
498.73	12529	
498.93	13575	
499.13	14168	
499.33	12422	
499.52	12805	
499.72	14412	
499.92	14242	
500.12	12208	
500.32	12446	
500.51	14486	
500.71	14316	
500.91	13097	
501.11	12826	
501.31	14442	
501.5	14731	
501.7	13371	
501.9	12738	
502.1	14222	
502.29	14547	
502.49	13099	
502.69	13140	
502.89	14332	
503.09	14512	
503.28	11856	
503.48	12091	
503.68	13736	
503.88	13728	
504.07	12911	
504.27	12254	
504.47	14138	
504.67	14172	
504.86	12807	
505.06	12528	
505.26	13785	
505.46	14945	
505.65	12220	
505.85	12441	
506.05	13584	
506.25	13893	
506.44	11826	
506.64	12287	
506.84	13426	
507.04	13938	
507.23	11912	
507.43	12336	
507.63	14902	
507.83	13670	
508.02	12224	
508.22	11958	
508.42	15262	
508.62	13563	
508.81	12127	
509.01	12646	
509.21	13306	
509.4	13583	
509.6	12350	
509.8	11946	
510	13543	
510.19	14676	
510.39	11838	
510.59	12018	
510.79	13609	
510.98	14652	
511.18	12148	
511.38	12168	
511.57	14312	
511.77	13895	
511.97	12539	
512.17	11934	
512.36	14220	
512.56	13835	
512.76	11808	
512.95	11731	
513.15	14272	
513.35	13223	
513.55	12720	
513.74	12028	
513.94	14283	
514.14	13732	
514.33	12827	
514.53	12557	
514.73	13880	
514.92	13934	
515.12	12259	
515.32	12226	
515.51	14131	
515.71	14369	
515.91	13439	
516.11	12262	
516.3	15410	
516.5	14008	
516.7	12666	
516.89	13057	
517.09	13982	
517.29	13995	
517.48	13025	
517.68	12461	
517.88	13885	
518.07	14119	
518.27	12876	
518.47	12144	
518.66	14641	
518.86	13696	
519.06	12102	
519.25	12375	
519.45	14041	
519.65	15138	
519.84	12876	
520.04	13441	
520.24	15392	
520.43	14463	
520.63	12574	
520.83	12529	
521.02	13805	
521.22	14205	
521.42	12664	
521.61	13186	
521.81	13917	
522.01	14218	
522.2	12757	
522.4	12516	
522.6	14580	
522.79	13786	
522.99	12760	
523.18	12390	
523.38	14766	
523.58	14590	
523.77	14055	
523.97	12748	
524.17	16331	
524.36	15743	
524.56	13870	
524.76	13711	
524.95	15203	
525.15	14976	
525.34	13556	
525.54	13833	
525.74	15727	
525.93	14958	
526.13	14707	
526.33	13896	
526.52	16016	
526.72	15683	
526.91	14969	
527.11	14487	
527.31	16170	
527.5	16434	
527.7	14461	
527.89	13896	
528.09	15517	
528.29	16154	
528.48	14937	
528.68	14642	
528.87	16450	
529.07	16159	
529.27	14573	
529.46	14235	
529.66	16143	
529.85	16420	
530.05	14200	
530.25	14663	
530.44	17152	
530.64	16060	
530.83	14493	
531.03	14702	
531.23	16603	
531.42	16353	
531.62	15242	
531.81	14779	
532.01	16931	
532.21	17143	
532.4	15054	
532.6	15281	
532.79	17446	
532.99	17307	
533.18	15539	
533.38	16115	
533.58	17118	
533.77	17507	
533.97	15724	
534.16	16127	
534.36	17996	
534.55	17095	
534.75	16356	
534.95	15849	
535.14	18195	
535.34	17290	
535.53	15468	
535.73	16878	
535.92	18277	
536.12	17169	
536.31	15513	
536.51	16248	
536.71	17423	
536.9	17086	
537.1	15509	
537.29	15851	
537.49	17712	
537.68	17104	
537.88	16125	
538.07	15320	
538.27	17509	
538.46	18089	
538.66	15454	
538.86	15823	
539.05	17484	
539.25	17881	
539.44	16321	
539.64	15651	
539.83	17213	
540.03	18008	
540.22	15504	
540.42	15371	
540.61	17330	
540.81	17421	
541	15782	
541.2	16377	
541.39	16831	
541.59	17250	
541.78	16169	
541.98	15368	
542.18	16649	
542.37	16701	
542.57	15584	
542.76	16146	
542.96	16597	
543.15	17075	
543.35	15475	
543.54	14986	
543.74	16954	
543.93	16961	
544.13	15344	
544.32	16049	
544.52	16986	
544.71	16323	
544.91	14663	
545.1	15444	
545.3	16455	
545.49	16953	
545.69	14599	
545.88	14923	
546.08	17648	
546.27	17273	
546.47	15348	
546.66	14876	
546.86	16955	
547.05	17316	
547.24	14984	
547.44	14997	
547.63	16086	
547.83	17031	
548.02	15200	
548.22	15126	
548.41	15957	
548.61	16820	
548.8	14657	
549	14812	
549.19	16466	
549.39	16803	
549.58	14355	
549.78	14853	
549.97	16720	
550.17	16302	
550.36	15206	
550.55	16128	
550.75	16044	
550.94	16906	
551.14	14399	
551.33	14663	
551.53	15730	
551.72	16543	
551.92	14552	
552.11	14506	
552.31	16501	
552.5	16381	
552.69	15701	
552.89	14213	
553.08	16417	
553.28	16126	
553.47	14474	
553.67	15242	
553.86	16765	
554.06	15543	
554.25	13637	
554.44	14280	
554.64	17296	
554.83	16930	
555.03	14243	
555.22	14556	
555.42	16398	
555.61	16110	
555.8	14268	
556	14463	
556.19	15610	
556.39	16311	
556.58	14236	
556.78	14455	
556.97	16113	
557.16	15832	
557.36	15229	
557.55	14170	
557.75	15324	
557.94	16773	
558.13	14138	
558.33	13967	
558.52	16440	
558.72	15638	
558.91	14047	
559.1	14114	
559.3	15489	
559.49	15096	
559.69	13756	
559.88	14443	
560.07	15898	
560.27	16329	
560.46	14492	
560.66	14655	
560.85	15758	
561.04	15145	
561.24	13758	
561.43	13969	
561.63	15435	
561.82	15507	
562.01	14834	
562.21	14238	
562.4	15837	
562.59	16556	
562.79	14270	
562.98	14050	
563.18	16017	
563.37	16983	
563.56	14681	
563.76	14082	
563.95	15684	
564.14	15702	
564.34	14536	
564.53	14139	
564.73	16096	
564.92	16299	
565.11	14601	
565.31	14336	
565.5	16525	
565.69	15738	
565.89	14447	
566.08	14597	
566.27	16362	
566.47	16945	
566.66	15025	
566.85	14176	
567.05	16352	
567.24	15948	
567.44	14531	
567.63	15335	
567.82	16472	
568.02	16098	
568.21	14476	
568.4	14838	
568.6	16333	
568.79	16343	
568.98	14505	
569.18	14623	
569.37	16569	
569.56	17890	
569.76	15076	
569.95	15652	
570.14	16751	
570.34	16593	
570.53	14556	
570.72	14625	
570.91	17098	
571.11	16491	
571.3	14887	
571.49	15689	
571.69	16575	
571.88	16257	
572.07	15431	
572.27	15301	
572.46	16212	
572.65	16896	
572.85	14869	
573.04	15171	
573.23	17284	
573.43	16710	
573.62	14848	
573.81	15436	
574	16944	
574.2	16814	
574.39	15347	
574.58	15409	
574.78	17813	
574.97	17200	
575.16	15894	
575.36	15947	
575.55	17688	
575.74	17754	
575.93	15153	
576.13	16069	
576.32	17099	
576.51	17636	
576.71	15560	
576.9	16691	
577.09	17952	
577.28	17476	
577.48	15948	
577.67	15281	
577.86	17366	
578.05	17595	
578.25	15846	
578.44	15898	
578.63	17339	
578.83	18356	
579.02	15465	
579.21	16790	
579.4	17608	
579.6	17467	
579.79	15876	
579.98	17608	
580.17	17700	
580.37	18017	
580.56	15476	
580.75	16248	
580.94	18252	
581.14	18118	
581.33	16696	
581.52	15742	
581.71	17864	
581.91	18240	
582.1	15793	
582.29	15922	
582.48	17636	
582.68	17675	
582.87	16413	
583.06	16211	
583.25	17932	
583.45	17425	
583.64	16821	
583.83	17201	
584.02	17610	
584.21	18103	
584.41	16567	
584.6	16177	
584.79	17803	
584.98	18372	
585.18	15779	
585.37	15795	
585.56	17517	
585.75	18155	
585.94	15925	
586.14	16380	
586.33	18288	
586.52	17708	
586.71	16183	
586.91	15836	
587.1	16941	
587.29	17789	
587.48	15621	
587.67	15580	
587.87	17639	
588.06	17462	
588.25	16442	
588.44	16008	
588.63	17063	
588.83	17617	
589.02	15436	
589.21	15228	
589.4	16649	
589.59	16680	
589.78	14345	
589.98	14365	
590.17	15784	
590.36	16118	
590.55	13586	
590.74	13911	
590.94	16694	
591.13	15632	
591.32	13932	
591.51	13581	
591.7	16164	
591.89	15829	
592.09	13752	
592.28	14265	
592.47	15218	
592.66	16872	
592.85	13913	
593.05	14097	
593.24	15612	
593.43	16439	
593.62	14198	
593.81	14513	
594	15898	
594.19	15948	
594.39	14154	
594.58	14026	
594.77	16102	
594.96	16396	
595.15	13817	
595.34	14339	
595.54	15867	
595.73	15324	
595.92	13343	
596.11	14048	
596.3	16126	
596.49	15236	
596.68	13885	
596.88	14262	
597.07	15945	
597.26	15212	
597.45	13486	
597.64	14381	
597.83	15472	
598.02	15865	
598.22	13642	
598.41	14138	
598.6	15597	
598.79	15059	
598.98	13688	
599.17	14377	
599.36	15726	
599.55	16266	
599.74	15123	
599.94	15059	
600.13	15951	
600.32	14996	
600.51	13342	
600.7	13520	
600.89	16240	
601.08	16486	
601.27	13315	
601.47	14055	
601.66	15808	
601.85	16255	
602.04	13882	
602.23	13873	
602.42	15122	
602.61	15620	
602.8	13497	
602.99	13476	
603.18	15445	
603.37	15458	
603.57	13786	
603.76	14313	
603.95	16053	
604.14	15676	
604.33	13618	
604.52	13783	
604.71	15597	
604.9	15293	
605.09	14184	
605.28	14062	
605.47	16035	
605.66	15526	
605.86	14010	
606.05	13639	
606.24	15827	
606.43	14680	
606.62	13844	
606.81	14285	
607	15723	
607.19	15275	
607.38	13241	
607.57	13439	
607.76	15072	
607.95	14550	
608.14	13651	
608.33	14203	
608.52	14855	
608.72	15671	
608.91	13127	
609.1	13044	
609.29	14927	
609.48	14647	
609.67	13805	
609.86	13087	
610.05	14764	
610.24	14837	
610.43	12927	
610.62	12832	
610.81	15631	
611	15459	
611.19	12983	
611.38	13528	
611.57	15173	
611.76	16192	
611.95	12852	
612.14	12811	
612.33	14919	
612.52	14562	
612.71	13175	
612.9	12618	
613.09	14385	
613.28	16184	
613.47	13151	
613.66	13702	
613.85	15038	
614.04	14655	
614.24	13151	
614.43	12498	
614.62	15060	
614.81	14988	
615	13659	
615.19	13594	
615.38	14556	
615.57	15065	
615.76	13472	
615.95	14274	
616.14	15268	
616.33	14973	
616.52	13792	
616.71	13828	
616.9	15165	
617.09	15140	
617.28	13329	
617.47	14080	
617.66	14722	
617.85	14717	
618.04	14133	
618.22	13705	
618.41	15105	
618.6	15888	
618.79	13773	
618.98	13599	
619.17	16057	
619.36	14813	
619.55	13837	
619.74	13852	
619.93	15680	
620.12	15284	
620.31	14448	
620.5	14466	
620.69	16612	
620.88	16561	
621.07	15066	
621.26	14395	
621.45	16239	
621.64	16004	
621.83	14539	
622.02	14053	
622.21	16185	
622.4	15989	
622.59	15147	
622.78	14937	
622.97	15666	
623.16	16399	
623.35	14676	
623.54	13999	
623.72	15971	
623.91	16029	
624.1	14846	
624.29	13975	
624.48	16820	
624.67	16293	
624.86	14855	
625.05	14139	
625.24	16963	
625.43	15952	
625.62	15976	
625.81	14313	
626	16532	
626.19	16087	
626.38	14960	
626.56	14574	
626.75	16005	
626.94	16596	
627.13	14999	
627.32	14024	
627.51	16546	
627.7	17250	
627.89	13887	
628.08	14906	
628.27	15713	
628.46	16025	
628.65	14267	
628.83	14022	
629.02	16354	
629.21	15732	
629.4	14671	
629.59	14749	
629.78	15772	
629.97	16485	
630.16	14801	
630.35	14442	
630.54	16978	
630.72	16511	
630.91	14470	
631.1	14740	
631.29	16275	
631.48	16270	
631.67	14868	
631.86	14267	
632.05	16003	
632.24	15998	
632.42	14266	
632.61	14582	
632.8	15897	
632.99	15678	
633.18	14689	
633.37	14750	
633.56	16126	
633.75	16132	
633.93	14542	
634.12	14383	
634.31	16738	
634.5	16574	
634.69	14566	
634.88	14739	
635.07	16094	
635.25	16369	
635.44	15033	
635.63	15268	
635.82	15821	
636.01	15418	
636.2	14857	
636.39	14551	
636.57	16668	
636.76	16233	
636.95	14252	
637.14	14979	
637.33	16068	
637.52	16788	
637.7	13857	
637.89	14636	
638.08	15794	
638.27	16724	
638.46	14674	
638.65	14857	
638.83	16550	
639.02	15449	
639.21	14334	
639.4	14785	
639.59	15736	
639.78	15472	
639.96	13820	
640.15	13929	
640.34	15558	
640.53	15657	
640.72	13514	
640.91	13702	
641.09	14937	
641.28	16007	
641.47	13696	
641.66	14397	
641.85	15654	
642.03	15500	
642.22	14022	
642.41	13697	
642.6	15048	
642.79	14585	
642.97	13405	
643.16	13961	
643.35	14975	
643.54	14745	
643.73	13401	
643.91	13952	
644.1	14481	
644.29	15081	
644.48	12920	
644.67	13168	
644.85	14473	
645.04	14744	
645.23	12652	
645.42	13046	
645.6	14217	
645.79	15025	
645.98	12719	
646.17	11909	
646.36	13733	
646.54	13912	
646.73	12714	
646.92	12123	
647.11	13582	
647.29	14463	
647.48	12163	
647.67	11961	
647.86	14592	
648.05	14614	
648.23	12385	
648.42	13099	
648.61	14051	
648.8	13891	
648.98	11863	
649.17	12190	
649.36	13499	
649.55	13209	
649.73	11963	
649.92	12538	
650.11	13545	
650.3	13727	
650.48	12069	
650.67	11934	
650.86	13786	
651.05	13051	
651.23	11981	
651.42	11822	
651.61	13238	
651.79	13274	
651.98	11953	
652.17	11745	
652.36	13552	
652.54	12920	
652.73	11727	
652.92	11596	
653.11	13600	
653.29	13548	
653.48	11170	
653.67	11767	
653.85	13297	
654.04	13891	
654.23	11729	
654.42	11305	
654.6	12524	
654.79	12940	
654.98	10635	
655.16	11112	
655.35	11915	
655.54	11871	
655.73	10494	
655.91	10399	
656.1	12633	
656.29	11935	
656.47	10275	
656.66	11518	
656.85	12297	
657.03	12349	
657.22	10985	
657.41	11034	
657.59	12557	
657.78	12400	
657.97	10797	
658.16	11345	
658.34	12956	
658.53	13246	
658.72	12101	
658.9	12325	
659.09	12708	
659.28	12683	
659.46	11209	
659.65	11067	
659.84	12504	
660.02	13084	
660.21	11237	
660.4	11108	
660.58	13414	
660.77	12821	
660.96	11447	
661.14	10793	
661.33	13635	
661.52	13541	
661.7	10821	
661.89	13198	
662.08	12347	
662.26	12015	
662.45	10922	
662.64	10908	
662.82	12976	
663.01	12336	
663.2	10951	
663.38	11594	
663.57	12642	
663.75	12656	
663.94	10963	
664.13	12104	
664.31	12372	
664.5	12756	
664.69	11449	
664.87	11731	
665.06	12263	
665.25	12601	
665.43	11841	
665.62	11838	
665.8	12787	
665.99	12332	
666.18	11025	
666.36	11183	
666.55	12787	
666.74	12620	
666.92	10779	
667.11	11918	
667.29	12349	
667.48	12752	
667.67	11720	
667.85	10977	
668.04	12260	
668.22	12285	
668.41	11077	
668.6	11191	
668.78	12095	
668.97	12274	
669.15	11361	
669.34	10585	
669.53	12175	
669.71	12405	
669.9	10595	
670.08	11157	
670.27	12165	
670.46	12560	
670.64	11210	
670.83	11512	
671.01	12001	
671.2	12382	
671.38	10813	
671.57	10612	
671.76	12958	
671.94	13272	
672.13	10596	
672.31	11240	
672.5	12692	
672.69	12087	
672.87	10717	
673.06	10892	
673.24	12603	
673.43	12238	
673.61	11120	
673.8	10805	
673.98	12648	
674.17	12691	
674.36	11284	
674.54	11207	
674.73	12358	
674.91	12555	
675.1	11047	
675.28	10637	
675.47	12253	
675.65	12631	
675.84	10910	
676.03	11181	
676.21	12185	
676.4	11693	
676.58	11399	
676.77	11308	
676.95	13112	
677.14	11967	
677.32	10618	
677.51	10560	
677.69	12579	
677.88	11770	
678.06	10632	
678.25	10699	
678.44	12341	
678.62	12065	
678.81	10560	
678.99	11138	
679.18	12845	
679.36	12544	
679.55	10845	
679.73	11308	
679.92	12404	
680.1	12084	
680.29	11792	
680.47	10772	
680.66	12122	
680.84	12648	
681.03	10310	
681.21	11210	
681.4	12046	
681.58	11981	
681.77	10589	
681.95	10539	
682.14	12611	
682.32	12822	
682.51	11194	
682.69	10269	
682.88	11993	
683.06	12299	
683.25	11176	
683.43	11232	
683.62	12121	
683.8	12310	
683.99	11411	
684.17	10793	
684.36	12871	
684.54	11890	
684.73	9960	
684.91	9889.6	
685.1	11688	
685.28	11192	
685.46	9953.8	
685.65	9893.7	
685.83	11279	
686.02	10951	
686.2	9428.8	
686.39	9631.6	
686.57	10932	
686.76	12063	
686.94	9767.4	
687.13	9882.1	
687.31	11519	
687.5	11351	
687.68	9471.2	
687.86	10318	
688.05	12526	
688.23	10961	
688.42	10501	
688.6	10061	
688.79	11315	
688.97	11374	
689.16	10376	
689.34	9565.4	
689.52	11992	
689.71	12288	
689.89	10701	
690.08	10153	
690.26	11723	
690.45	11658	
690.63	10664	
690.81	10353	
691	11566	
691.18	11509	
691.37	10392	
691.55	11856	
691.74	11317	
691.92	12828	
692.1	10218	
692.29	9833.7	
692.47	11516	
692.66	11069	
692.84	9985.2	
693.02	10264	
693.21	11231	
693.39	11477	
693.58	10586	
693.76	10116	
693.94	12402	
694.13	12358	
694.31	10242	
694.5	11028	
694.68	11521	
694.86	11868	
695.05	10630	
695.23	10747	
695.42	12293	
695.6	13915	
695.78	11164	
695.97	10405	
696.15	12291	
696.34	11787	
696.52	10252	
696.7	10806	
696.89	12071	
697.07	11525	
697.25	10655	
697.44	11700	
697.62	11863	
697.81	11912	
697.99	10273	
698.17	10724	
698.36	11296	
698.54	11837	
698.72	10643	
698.91	9790	
699.09	11529	
699.28	11303	
699.46	10311	
699.64	10142	
699.83	11267	
700.01	11912	
700.19	10706	
700.38	9613.2	
700.56	12087	
700.74	11413	
700.93	9909.4	
701.11	10533	
701.29	11838	
701.48	12656	
701.66	10081	
701.84	10254	
702.03	11553	
702.21	12188	
702.39	9833	
702.58	10423	
702.76	11985	
702.94	12121	
703.13	9927.9	
703.31	11674	
703.49	11504	
703.68	12167	
703.86	9935.4	
704.04	10814	
704.23	11675	
704.41	11996	
704.59	10129	
704.78	10811	
704.96	12962	
705.14	11952	
705.33	10006	
705.51	10491	
705.69	11587	
705.87	12141	
706.06	10714	
706.24	9839.8	
706.42	11717	
706.61	11997	
706.79	10647	
706.97	9912.2	
707.16	11260	
707.34	11746	
707.52	10514	
707.7	9868.5	
707.89	11318	
708.07	11096	
708.25	10512	
708.44	10628	
708.62	11269	
708.8	12022	
708.98	10685	
709.17	9897.8	
709.35	11543	
709.53	11392	
709.72	9697.8	
709.9	9640.5	
710.08	11693	
710.26	11675	
710.45	10705	
710.63	9809.8	
710.81	11260	
710.99	11324	
711.18	10195	
711.36	9763.3	
711.54	11170	
711.72	11559	
711.91	9770.2	
712.09	9258.2	
712.27	10966	
712.45	11632	
712.64	9657.5	
712.82	8971.5	
713	10494	
713.18	10510	
713.37	8867.7	
713.55	9714.9	
713.73	10961	
713.91	9818.6	
714.1	8800.8	
714.28	8277.9	
714.46	10099	
714.64	9467.1	
714.83	7441.6	
715.01	7871.7	
715.19	9142.1	
715.37	8498.4	
715.55	7465.5	
715.74	7593.2	
715.92	9617.9	
716.1	8045.1	
716.28	8310	
716.47	7472.4	
716.65	8419.9	
716.83	8488.1	
717.01	7442.3	
717.19	7255.3	
717.38	9919	
717.56	8269	
717.74	7559.1	
717.92	7014.3	
718.1	9164	
718.29	8643.8	
718.47	6866.2	
718.65	7492.2	
718.83	9400.2	
719.01	9514.2	
719.2	7150.8	
719.38	7952.9	
719.56	9409.7	
719.74	10456	
719.92	7734.5	
720.11	8378.2	
720.29	9328.5	
720.47	8644.5	
720.65	7169.3	
720.83	7602.1	
721.02	8639	
721.2	8354.3	
721.38	7473.7	
721.56	6887.3	
721.74	7871	
721.92	7969.3	
722.11	7729.7	
722.29	7519.5	
722.47	8934.6	
722.65	8303.1	
722.83	6825.9	
723.01	7324.9	
723.2	8322.3	
723.38	8534.6	
723.56	6357.6	
723.74	7236.2	
723.92	7951.6	
724.1	8755.1	
724.29	6765.8	
724.47	7538.6	
724.65	7965.2	
724.83	7903.1	
725.01	6687.3	
725.19	7180.9	
725.37	7761.8	
725.56	7854	
725.74	6460.7	
725.92	6693.4	
726.1	7862.8	
726.28	8034.9	
726.46	6812.2	
726.64	6619	
726.83	7951.6	
727.01	8163.9	
727.19	6408.1	
727.37	6973.3	
727.55	8211	
727.73	8419.9	
727.91	6404	
728.09	6243.6	
728.28	8451.3	
728.46	8655.4	
728.64	7160.4	
728.82	7081.9	
729	9258.9	
729.18	8809.7	
729.36	6551.5	
729.54	8149.6	
729.72	9656.9	
729.91	8285.4	
730.09	8013	
730.27	7092.8	
730.45	8387.8	
730.63	8772.1	
730.81	7583.6	
730.99	6989	
731.17	9306.7	
731.35	8150.9	
731.53	7326.3	
731.71	6956.3	
731.9	9007	
732.08	8962.6	
732.26	7179.5	
732.44	6766.5	
732.62	8933.2	
732.8	8668.4	
732.98	7402	
733.16	6662	
733.34	8589.9	
733.52	7576.1	
733.7	6950.1	
733.88	7110.5	
734.07	8411.7	
734.25	8214.4	
734.43	6540.5	
734.61	7675.1	
734.79	9308.7	
734.97	8196.7	
735.15	6685.3	
735.33	6909.8	
735.51	8332.5	
735.69	8154.3	
735.87	7593.2	
736.05	6927.6	
736.23	8248.5	
736.41	7993.9	
736.59	6806.8	
736.77	6825.2	
736.95	8449.2	
737.13	8133.2	
737.32	6414.2	
737.5	6669.6	
737.68	8880.7	
737.86	7867.6	
738.04	6359.6	
738.22	7593.9	
738.4	7735.2	
738.58	7959.8	
738.76	6741.9	
738.94	6004.6	
739.12	7783.6	
739.3	7731.1	
739.48	7146	
739.66	6888	
739.84	7930.4	
740.02	7880.6	
740.2	6054.5	
740.38	6309.1	
740.56	8258.8	
740.74	7262.8	
740.92	6728.9	
741.1	6561.7	
741.28	7697.6	
741.46	7552.9	
741.64	6291.4	
741.82	6683.2	
742	7742	
742.18	7617.1	
742.36	6358.9	
742.54	6124.1	
742.72	8060.1	
742.9	6984.9	
743.08	6498.2	
743.26	5685.2	
743.44	8080.6	
743.62	7883.3	
743.8	6669.6	
743.98	5921.4	
744.16	7718.8	
744.34	7474.4	
744.52	6445.6	
744.7	6423.1	
744.88	7812.3	
745.06	7431.4	
745.24	6432	
745.42	6612.2	
745.6	7835.5	
745.78	7597.3	
745.96	5541.8	
746.14	5689.9	
746.32	8195.3	
746.5	7582.3	
746.68	6117.3	
746.86	5685.8	
747.03	7909.3	
747.21	6692.1	
747.39	6084.5	
747.57	5607.3	
747.75	7235.5	
747.93	7450.5	
748.11	5628.5	
748.29	5517.9	
748.47	8518.2	
748.65	7081.9	
748.83	6159.6	
749.01	5865.4	
749.19	7397.9	
749.37	6727.6	
749.55	5836.7	
749.73	5842.9	
749.91	7219.1	
750.09	6882.5	
750.26	5954.8	
750.44	5390.9	
750.62	7144	
750.8	7030.7	
750.98	5256.5	
751.16	5497.4	
751.34	7202.7	
751.52	6597.2	
751.7	6098.2	
751.88	5218.2	
752.06	7532.4	
752.24	7168.6	
752.42	5186.8	
752.59	5490.6	
752.77	6939.9	
752.95	7880.6	
753.13	5989.6	
753.31	5554.8	
753.49	6735.1	
753.67	6989	
753.85	5689.9	
754.03	5332.2	
754.21	7137.2	
754.38	7385	
754.56	5307.7	
754.74	4618.2	
754.92	6373.3	
755.1	6827.9	
755.28	4450.9	
755.46	4332.8	
755.64	7210.9	
755.82	7089.4	
755.99	4273.4	
756.17	4188.1	
756.35	4900.1	
756.53	6022.4	
756.71	3175	
756.89	3887.7	
757.07	5640.8	
757.25	5054.4	
757.42	4398.4	
757.6	5049.6	
757.78	5872.2	
757.96	5256.5	
758.14	4272.7	
758.32	3962.1	
758.5	4817.5	
758.67	5501.5	
758.85	4126.7	
759.03	4177.9	
759.21	5604.6	
759.39	5132.2	
759.57	3804.4	
759.75	4601.8	
759.92	6138.4	
760.1	5612.8	
760.28	4911	
760.46	5220.3	
760.64	5518.6	
760.82	5365	
760.99	4868	
761.17	4322.6	
761.35	6183.5	
761.53	5332.2	
761.71	4506.2	
761.89	4990.2	
762.06	6107.7	
762.24	5762.3	
762.42	4652.3	
762.6	4430.4	
762.78	5780.1	
762.96	6275	
763.13	4953.4	
763.31	4652.3	
763.49	6354.8	
763.67	5752.7	
763.85	5240.8	
764.02	5691.3	
764.2	6647	
764.38	5921.4	
764.56	4657.1	
764.74	5189.6	
764.91	6742.6	
765.09	5825.8	
765.27	4369.7	
765.45	4151.2	
765.63	6682.5	
765.8	6503	
765.98	3939.6	
766.16	4189.5	
766.34	5458.5	
766.52	5289.9	
766.69	4840.7	
766.87	4031.8	
767.05	5741.1	
767.23	6328.9	
767.41	4258.4	
767.58	4425	
767.76	6143.2	
767.94	6214.9	
768.12	4299.4	
768.29	4719.9	
768.47	5649.7	
768.65	6208.8	
768.83	3975.8	
769	4762.2	
769.18	5373.2	
769.36	5876.3	
769.54	4717.2	
769.72	3908.2	
769.89	6103.6	
770.07	6117.3	
770.25	4159.4	
770.43	5078.3	
770.6	6651.8	
770.78	6884.6	
770.96	4317.1	
771.14	4164.9	
771.31	5951.4	
771.49	5431.2	
771.67	3647.4	
771.85	3777.1	
772.02	4844.1	
772.2	5410.7	
772.38	4308.9	
772.55	3902.7	
772.73	5630.5	
772.91	5426.4	
773.09	4177.9	
773.26	4263.9	
773.44	5593	
773.62	5290.6	
773.8	3862.5	
773.97	3611.3	
774.15	5572.5	
774.33	5293.3	
774.5	3736.2	
774.68	3913.7	
774.86	5454.4	
775.04	5228.5	
775.21	3779.9	
775.39	3704.1	
775.57	5438	
775.74	5756.2	
775.92	3553.2	
776.1	3478.1	
776.27	5416.2	
776.45	6383.5	
776.63	3664.5	
776.81	3370.3	
776.98	5134.3	
777.16	5952.1	
777.34	3809.9	
777.51	3919.1	
777.69	5153.4	
777.87	4904.9	
778.04	3875.4	
778.22	4188.8	
778.4	4975.9	
778.57	5412.1	
778.75	3189.4	
778.93	3460.4	
779.1	4822.3	
779.28	4676.9	
779.46	3229	
779.64	3516.4	
779.81	5500.8	
779.99	6110.5	
780.17	4149.2	
780.34	4211.3	
780.52	5046.9	
780.69	5217.5	
780.87	3853.6	
781.05	3452.2	
781.22	5102.2	
781.4	5152	
781.58	3571	
781.75	2873.3	
781.93	5091.3	
782.11	4592.2	
782.28	4191.5	
782.46	3534.1	
782.64	4547.2	
782.81	5223.7	
782.99	3618.1	
783.17	3546.4	
783.34	5171.1	
783.52	4592.2	
783.69	3668.6	
783.87	4323.3	
784.05	4713.1	
784.22	4618.2	
784.4	4300.7	
784.58	3762.8	
784.75	5350.7	
784.93	4672.8	
785.1	3510.2	
785.28	3975.8	
785.46	5097.4	
785.63	4589.5	
785.81	3505.4	
785.99	3344.3	
786.16	4761.5	
786.34	5051	
786.51	3330	
786.69	3680.2	
786.87	4399	
787.04	4816.1	
787.22	3212.6	
787.39	3941	
787.57	4560.1	
787.75	5414.8	
787.92	4166.3	
788.1	4041.3	
788.27	4553.3	
788.45	4350.6	
788.63	3868.6	
788.8	2896.5	
788.98	4930.1	
789.15	4299.4	
789.33	3008.5	
789.5	3466.5	
789.68	5262.6	
789.86	5354.8	
790.03	3734.1	
790.21	3312.9	
790.38	5304.2	
790.56	4663.9	
790.73	3259	
790.91	3238.5	
791.09	4571.1	
791.26	5104.9	
791.44	3466.5	
791.61	3025.5	
791.79	4584.7	
791.96	4554	
792.14	3094.5	
792.32	2820.7	
792.49	4554	
792.67	4691.9	
792.84	3105.4	
793.02	3046	
793.19	4919.2	
793.37	5464	
793.54	2780.5	
793.72	3010.5	
793.89	5461.9	
794.07	4542.4	
794.25	3436.5	
794.42	2854.2	
794.6	5266	
794.77	5008	
794.95	3736.9	
795.12	3190.7	
795.3	4564.2	
795.47	4984.1	
795.65	3568.9	
795.82	3407.1	
796	4412.7	
796.17	5746.6	
796.35	3354.6	
796.52	3830.4	
796.7	4969.1	
796.87	5025	
797.05	3284.9	
797.22	3945.8	
797.4	5022.3	
797.57	5689.9	
797.75	3419.4	
797.92	3250.8	
798.1	5257.1	
798.27	4421.6	
798.45	2837.1	
798.62	3060.3	
798.8	4752.7	
798.97	5166.3	
799.15	3558	
799.32	3417.4	
799.5	4200.4	
799.67	4724.7	
799.85	3650.8	
800.02	2777	
800.2	4515.1	
800.37	4643.4	
800.55	3751.9	
800.72	3216	
800.9	5117.2	
801.07	5372.5	
801.25	4171	
801.42	3487.7	
801.6	5156.8	
801.77	4791.6	
801.95	3267.2	
802.12	3113.6	
802.29	4848.9	
802.47	4724.7	
802.64	3480.9	
802.82	2751.8	
802.99	4472.8	
803.17	5137	
803.34	3386	
803.52	3043.3	
803.69	5687.9	
803.87	4270.7	
804.04	3386.7	
804.21	3431	
804.39	5293.3	
804.56	4567	
804.74	2945.7	
804.91	3479.5	
805.09	4498	
805.26	4481	
805.44	2996.2	
805.61	3209.2	
805.78	5029.1	
805.96	4902.8	
806.13	3448.1	
806.31	3652.2	
806.48	4111.6	
806.66	4493.2	
806.83	3469.9	
807	3362.8	
807.18	4514.4	
807.35	4765.6	
807.53	3369.6	
807.7	2796.2	
807.87	5329.5	
808.05	4525.3	
808.22	3621.5	
808.4	2751.8	
808.57	4443.4	
808.74	4234.5	
808.92	3127.2	
809.09	3864.5	
809.27	4463.2	
809.44	4831.2	
809.61	2801.6	
809.79	3045.3	
809.96	5387.5	
810.14	4990.2	
810.31	2740.9	
810.48	3276.1	
810.66	4505.5	
810.83	5020.9	
811.01	3151.1	
811.18	3426.3	
811.35	5031.2	
811.53	3997	
811.7	3698.6	
811.87	3431.7	
812.05	4562.9	
812.22	4393.6	
812.39	2981.8	
812.57	2983.2	
812.74	4503.5	
812.92	5631.9	
813.09	3296.5	
813.26	3466.5	
813.44	5476.3	
813.61	4361.5	
813.78	2801.6	
813.96	3568.2	
814.13	4502.8	
814.3	4279.6	
814.48	3915.7	
814.65	3229.6	
814.82	5301.5	
815	4267.3	
815.17	3293.8	
815.34	3966.9	
815.52	4420.2	
815.69	4384.7	
815.87	3250.1	
816.04	3219.4	
816.21	4468.7	
816.38	4046.8	
816.56	3166.8	
816.73	2985.9	
816.9	5525.4	
817.08	5023	
817.25	3067.2	
817.42	3665.2	
817.6	4136.2	
817.77	4417.5	
817.94	3386	
818.12	3033.7	
818.29	4293.2	
818.46	6176.7	
818.64	3151.1	
818.81	2936.1	
818.98	4320.5	
819.16	5800.5	
819.33	3534.1	
819.5	3304.1	
819.67	4728.8	
819.85	5257.8	
820.02	3283.6	
820.19	3422.8	
820.37	4665.3	
820.54	4370.4	
820.71	3369.6	
820.88	4103.4	
821.06	4627.7	
821.23	4273.4	
821.4	3370.3	
821.58	3339.6	
821.75	4971.8	
821.92	4567.7	
822.09	2791.4	
822.27	2989.4	
822.44	4492.6	
822.61	4420.9	
822.79	2799.6	
822.96	4990.2	
823.13	4762.2	
823.3	4240.7	
823.48	3218.7	
823.65	2878.8	
823.82	4986.8	
823.99	4126.7	
824.17	3885	
824.34	2959.3	
824.51	5613.5	
824.68	4484.4	
824.86	3033	
825.03	3358	
825.2	4484.4	
825.37	5163.6	
825.55	3063.8	
825.72	3271.3	
825.89	5638.7	
826.06	5283.8	
826.24	3257.6	
826.41	3233.7	
826.58	5302.9	
826.75	4631.1	
826.92	2671.9	
827.1	2871.9	
827.27	6898.9	
827.44	5630.5	
827.61	3108.8	
827.79	3672.7	
827.96	4331.5	
828.13	4496.7	
828.3	3229.6	
828.47	2764.1	
828.65	4696	
828.82	4659.8	
828.99	3986.7	
829.16	3547.8	
829.34	4997	
829.51	4832.5	
829.68	3289	
829.85	3405.8	
830.02	5245.5	
830.2	5013.4	
830.37	2671.2	
830.54	3905.5	
830.71	5485.8	
830.88	4480.3	
831.05	2628.9	
831.23	2995.5	
831.4	5381.4	
831.57	5813.5	
831.74	3062.4	
831.91	2716.3	
832.09	4809.3	
832.26	4972.5	
832.43	3081.5	
832.6	3519.8	
832.77	4738.3	
832.94	5241.4	
833.12	2555.9	
833.29	3080.8	
833.46	4778.6	
833.63	5961.6	
833.8	3465.8	
833.97	3157.3	
834.15	5025.7	
834.32	4867.3	
834.49	3320.4	
834.66	3310.2	
834.83	5115.8	
835	4297.3	
835.17	3028.9	
835.35	3000.3	
835.52	4922	
835.69	4820.9	
835.86	3214.6	
836.03	2718.3	
836.2	4978.6	
836.37	4666	
836.55	3136.8	
836.72	2913.6	
836.89	4629.1	
837.06	5009.3	
837.23	3211.2	
837.4	3468.6	
837.57	5575.9	
837.75	5991.7	
837.92	2895.1	
838.09	3065.8	
838.26	4642.7	
838.43	5115.8	
838.6	3319.1	
838.77	2982.5	
838.94	5775.3	
839.11	5569.8	
839.29	3197.6	
839.46	2563.4	
839.63	5048.9	
839.8	4674.1	
839.97	3068.5	
840.14	3046.7	
840.31	4816.1	
840.48	5008	
840.65	2632.3	
840.82	3032.4	
841	4962.2	
841.17	4816.1	
841.34	2799.6	
841.51	2907.4	
841.68	4891.9	
841.85	4674.1	
842.02	2935.4	
842.19	2506.7	
842.36	4797.7	
842.53	4784.7	
842.7	2803.7	
842.87	3332	
843.05	5971.2	
843.22	4697.4	
843.39	2721.1	
843.56	2992.8	
843.73	4569	
843.9	5023	
844.07	4353.3	
844.24	3674.7	
844.41	6705	
844.58	4365.6	
844.75	2792.1	
844.92	2987.3	
845.09	4913.1	
845.26	4955.4	
845.43	2823.5	
845.6	3003	
845.77	4946.5	
845.94	4745.1	
846.12	3138.9	
846.29	3227.6	
846.46	5123.3	
846.63	4876.2	
846.8	2807.8	
846.97	3269.2	
847.14	5301.5	
847.31	4902.8	
847.48	3122.5	
847.65	3415.3	
847.82	5064.6	
847.99	5032.5	
848.16	3633.1	
848.33	3429.7	
848.5	4538.3	
848.67	5242.8	
848.84	2787.3	
849.01	2962.7	
849.18	4575.2	
849.35	4293.2	
849.52	3489.1	
849.69	2738.8	
849.86	5128.8	
850.03	5178.6	
850.2	2823.5	
850.37	3404.4	
850.54	5096	
850.71	4726.7	
850.88	3371	
851.05	2760	
851.22	4827.1	
851.39	5261.9	
851.56	2649.4	
851.73	3228.3	
851.9	4460.5	
852.07	5010	
852.24	3125.2	
852.41	2809.1	
852.58	4864.6	
852.75	4534.9	
852.92	3147	
853.09	2772.3	
853.26	4548.5	
853.43	5204.6	
853.6	2826.9	
853.77	2473.9	
853.94	5377.3	
854.11	4424.3	
854.28	4033.1	
854.44	3018	
854.61	5586.9	
854.78	5171.8	
854.95	2789.3	
855.12	3406.5	
855.29	4103.4	
855.46	5557.5	
855.63	2858.3	
855.8	3738.9	
855.97	4603.8	
856.14	5151.3	
856.31	3865.9	
856.48	3072	
856.65	4605.2	
856.82	4380.6	
856.99	2751.1	
857.16	3018	
857.33	5786.9	
857.49	4670.7	
857.66	2970.9	
857.83	3134.8	
858	4644.8	
858.17	4801.1	
858.34	2696.5	
858.51	2833.7	
858.68	5448.3	
858.85	5369.1	
859.02	3226.9	
859.19	3375.1	
859.36	4445.5	
859.52	4354.7	
859.69	2837.1	
859.86	3226.2	
860.03	4426.3	
860.2	5328.1	
860.37	2675.3	
860.54	2843.3	
860.71	5091.3	
860.88	5347.9	
861.05	3097.2	
861.21	3509.5	
861.38	5344.5	
861.55	4245.4	
861.72	2587.9	
861.89	3175	
862.06	5130.2	
862.23	5437.4	
862.4	2710.1	
862.56	2912.9	
862.73	4992.3	
862.9	4745.8	
863.07	3243.3	
863.24	2572.2	
863.41	4351.3	
863.58	4421.6	
863.75	2892.4	
863.91	3244.7	
864.08	5265.3	
864.25	5003.2	
864.42	3462.4	
864.59	3862.5	
864.76	5541.1	
864.93	4425	
865.09	2778.4	
865.26	3039.2	
865.43	5254.4	
865.6	5550.7	
865.77	2487.6	
865.94	2761.3	
866.1	5229.1	
866.27	5040.7	
866.44	4067.3	
866.61	2789.3	
866.78	4682.3	
866.95	5023.7	
867.11	2744.3	
867.28	2500.6	
867.45	5209.3	
867.62	4397.7	
867.79	3166.2	
867.96	2809.8	
868.12	4339.6	
868.29	5119.2	
868.46	2775	
868.63	3678.8	
868.8	5162.2	
868.97	5011.4	
869.13	2956.6	
869.3	2920.4	
869.47	4931.5	
869.64	5184.1	
869.81	2806.4	
869.97	2824.8	
870.14	4873.5	
870.31	5329.5	
870.48	2719.7	
870.65	3440.6	
870.81	4635.2	
870.98	4648.2	
871.15	3154.6	
871.32	2967.5	
871.48	4934.9	
871.65	5466.7	
871.82	2751.1	
871.99	3065.8	
872.16	5689.9	
872.32	5183.4	
872.49	2842.6	
872.66	2850.8	
872.83	5068	
872.99	4506.2	
873.16	3137.5	
873.33	2775	
873.5	4743.1	
873.67	4805.2	
873.83	2955.9	
874	3636.5	
874.17	4893.3	
874.34	5579.3	
874.5	3566.2	
874.67	3478.8	
874.84	5302.2	
875.01	4280.3	
875.17	3827	
875.34	2777.7	
875.51	4838.7	
875.68	5737.7	
875.84	3299.3	
876.01	3936.9	
876.18	5033.9	
876.34	4973.8	
876.51	2759.3	
876.68	2756.6	
876.85	4605.2	
877.01	5294.7	
877.18	3844.7	
877.35	2755.9	
877.52	4827.1	
877.68	4339	
877.85	2803	
878.02	2743.6	
878.18	4629.8	
878.35	4529.4	
878.52	2267.8	
878.69	3077.4	
878.85	5128.1	
879.02	5004.6	
879.19	3921.2	
879.35	3010.5	
879.52	5044.1	
879.69	5156.1	
879.86	2488.3	
880.02	3166.2	
880.19	4693.3	
880.36	5550.7	
880.52	3143.6	
880.69	3306.1	
880.86	5102.9	
881.02	5165	
881.19	3069.9	
881.36	3051.5	
881.52	5008.6	
881.69	4505.5	
881.86	3001.6	
882.02	2979.8	
882.19	5186.1	
882.36	5976	
882.52	2908.1	
882.69	3824.2	
882.86	4825	
883.02	4805.9	
883.19	3345	
883.36	3161.4	
883.52	5115.1	
883.69	5735	
883.86	2854.2	
884.02	2617.3	
884.19	5015.5	
884.36	4829.8	
884.52	3144.3	
884.69	2990.7	
884.86	4554.7	
885.02	5449.6	
885.19	3072.6	
885.36	3216.7	
885.52	4679.6	
885.69	4863.9	
885.86	3926.6	
886.02	3539.6	
886.19	5127.4	
886.35	4589.5	
886.52	3080.1	
886.69	3796.3	
886.85	4407.2	
887.02	5298.1	
887.19	5298.1	
887.35	5298.1	
887.52	5298.1	
887.68	5298.1	
887.85	5298.1	
888.02	5298.1	
888.18	5298.1	
888.35	5298.1	
888.51	5298.1	
888.68	5298.1	
888.85	5298.1	
889.01	5298.1	
889.18	5298.1	
889.35	5298.1	
889.51	5298.1	
889.68	5298.1	
889.84	5298.1	
890.01	5298.1	
890.17	5298.1	
890.34	5298.1	
890.51	5298.1	
890.67	5298.1	
890.84	5298.1	
891	5298.1	
891.17	5298.1	
891.34	5298.1	
891.5	5298.1	
891.67	5298.1	
891.83	5298.1	
892	5298.1	
892.16	5298.1	
892.33	5298.1	
892.5	5298.1	
892.66	5298.1	
892.83	5298.1	
892.99	5298.1	
893.16	5298.1	
893.32	5298.1	
893.49	5298.1	
893.65	5298.1	
893.82	5298.1	
893.99	5298.1	
894.15	5298.1	
894.32	5298.1	
894.48	5298.1	
894.65	5298.1	
894.81	5298.1	
894.98	5298.1	
895.14	5298.1	
895.31	5298.1	
895.47	5298.1	
895.64	5298.1	
895.81	5298.1	
895.97	5298.1	
896.14	5298.1	
896.3	5298.1	
896.47	5298.1	
896.63	5298.1	
896.8	5298.1	
896.96	5298.1	
897.13	5298.1	
897.29	5298.1	
897.46	5298.1	
897.62	5298.1	
897.79	5298.1	
897.95	5298.1	
898.12	5298.1	
898.28	5298.1	
898.45	5298.1	
898.61	5298.1	
898.78	5298.1	
898.94	5298.1	
899.11	5298.1	
899.27	5298.1	
899.44	5298.1	
899.6	5298.1	
899.77	5298.1	
899.93	5298.1	
900.1	5298.1	
900.26	5298.1	
900.43	5298.1	
900.59	5298.1	
900.76	5298.1	
900.92	5298.1	
901.09	5298.1	
901.25	5298.1	
901.42	5298.1	
901.58	5298.1	
901.75	5298.1	
901.91	5298.1	
902.07	5298.1	
902.24	5298.1	
902.4	5298.1	
902.57	5298.1	
902.73	5298.1	
902.9	5298.1	
903.06	5298.1	
903.23	5298.1	
903.39	5298.1	
903.56	5298.1	
903.72	5298.1	
903.88	5298.1	
904.05	5298.1	
904.21	5298.1	
904.38	5298.1	
904.54	5298.1	
904.71	5298.1	
904.87	5298.1	
905.03	5298.1	
905.2	5298.1	
905.36	5298.1	
905.53	5298.1	
905.69	5298.1	
905.86	5298.1	
906.02	5298.1	
906.18	5298.1	
906.35	5298.1	
906.51	5298.1	
906.68	5298.1	
906.84	5298.1	
907.01	5298.1	
907.17	5298.1	
907.33	5298.1	
907.5	5298.1	
907.66	5298.1	
907.83	5298.1	
907.99	5298.1	
908.15	5298.1	
908.32	5298.1	
908.48	5298.1	
908.65	5298.1	
908.81	5298.1	
908.97	5298.1	
909.14	5298.1	
909.3	5298.1	
909.47	5298.1	
909.63	5298.1	
909.79	5298.1	
909.96	5298.1	
910.12	5298.1	
910.28	5298.1	
910.45	5298.1	
910.61	5298.1	
910.78	5298.1	
910.94	5298.1	
911.1	5298.1	
911.27	5298.1	
911.43	5298.1	
911.59	5298.1	
911.76	5298.1	
911.92	5298.1	
912.08	5298.1	
912.25	5298.1	
912.41	5298.1	
912.57	5298.1	
912.74	5298.1	
912.9	5298.1	
913.07	5298.1	
913.23	5298.1	
913.39	5298.1	
913.56	5298.1	
913.72	5298.1	
913.88	5298.1	
914.05	5298.1	
914.21	5298.1	
914.37	5298.1	
914.54	5298.1	
914.7	5298.1	
914.86	5298.1	
915.03	5298.1	
915.19	5298.1	
