Wavelength	Intensities	
nm	a.u.	
179.22	1936.2	
179.44	1944.5	
179.65	1927.8	
179.86	1961.3	
180.08	1927.8	
180.29	5111	
180.51	3599	
180.72	5771.2	
180.94	6746.7	
181.15	3308.8	
181.37	3287	
181.58	5668.8	
181.79	5925.5	
182.01	3476.1	
182.22	3773.7	
182.44	5969.8	
182.65	4937.7	
182.87	4691.2	
183.08	4141.7	
183.29	6206.7	
183.51	5102.9	
183.72	3840.6	
183.94	5543.2	
184.15	5500.2	
184.37	5551.4	
184.58	3293.8	
184.79	4613.4	
185.01	5160.9	
185.22	5984.8	
185.44	4911	
185.65	4033.8	
185.86	5380	
186.08	5051	
186.29	3235.1	
186.51	3450.8	
186.72	5150.6	
186.94	6157.6	
187.15	4016.7	
187.36	4168.3	
187.58	8002.1	
187.79	5614.8	
188.01	4387.4	
188.22	6771.3	
188.43	6799.3	
188.65	5920.7	
188.86	3435.1	
189.08	4136.2	
189.29	5328.1	
189.5	5323.4	
189.72	3853.6	
189.93	3921.2	
190.15	6107	
190.36	7380.9	
190.57	4251.6	
190.79	4162.2	
191	6264.7	
191.22	6139.8	
191.43	4287.1	
191.64	3489.7	
191.86	6446.3	
192.07	6171.2	
192.29	3670.6	
192.5	3882.9	
192.71	6161.7	
192.93	5211.4	
193.14	3785.3	
193.35	3971.7	
193.57	5328.1	
193.78	6146	
194	3093.1	
194.21	3728	
194.42	5076.2	
194.64	5577.3	
194.85	4130.8	
195.07	4896	
195.28	5660.6	
195.49	4831.8	
195.71	5212.1	
195.92	3603.7	
196.13	5745.2	
196.35	5904.3	
196.56	5496.1	
196.78	4166.9	
196.99	7298.3	
197.2	6842.9	
197.42	4848.2	
197.63	4249.5	
197.84	4958.8	
198.06	5735	
198.27	3874.1	
198.48	5215.5	
198.7	5282.4	
198.91	5511.1	
199.13	4171	
199.34	4218.1	
199.55	5976.7	
199.77	4838	
199.98	3719.8	
200.19	4272.7	
200.41	5373.9	
200.62	5147.9	
200.83	4351.9	
201.05	4694.6	
201.26	5439.4	
201.47	5114.5	
201.69	3702	
201.9	3557.3	
202.11	5543.9	
202.33	6597.9	
202.54	3981.9	
202.76	4467.3	
202.97	5700.9	
203.18	5612.8	
203.4	4407.9	
203.61	4257	
203.82	5573.2	
204.04	5205.9	
204.25	4259.1	
204.46	4195.6	
204.68	5586.2	
204.89	5838.1	
205.1	4128.7	
205.32	3544.4	
205.53	5962.3	
205.74	6148	
205.96	3012.6	
206.17	4336.2	
206.38	5927.5	
206.6	6135	
206.81	4802.5	
207.02	3962.1	
207.24	5783.5	
207.45	6249.7	
207.66	4045.4	
207.88	3408.5	
208.09	5779.4	
208.3	5580	
208.52	3659.7	
208.73	4037.2	
208.94	5522	
209.15	6300.2	
209.37	3962.1	
209.58	4259.8	
209.79	6088.6	
210.01	5309.7	
210.22	3201.7	
210.43	3354.6	
210.65	5538.4	
210.86	5985.5	
211.07	4015.4	
211.29	3672	
211.5	5966.4	
211.71	5511.8	
211.93	3660.4	
212.14	3692.5	
212.35	5472.9	
212.56	5767.1	
212.78	4254.3	
212.99	3461.7	
213.2	6573.3	
213.42	5268.1	
213.63	3766.2	
213.84	4128	
214.06	4935.6	
214.27	5044.8	
214.48	4039.3	
214.69	4322.6	
214.91	6236.1	
215.12	6386.9	
215.33	4317.1	
215.55	4816.8	
215.76	6817.7	
215.97	5950.7	
216.18	4176.5	
216.4	4050.2	
216.61	5248.3	
216.82	6085.9	
217.04	3702	
217.25	3837.2	
217.46	6224.5	
217.67	5976	
217.89	3270.6	
218.1	3413.3	
218.31	5565.7	
218.53	5694	
218.74	3826.3	
218.95	3761.4	
219.16	5496.7	
219.38	6426.5	
219.59	3772.4	
219.8	4541	
220.01	7238.2	
220.23	5554.8	
220.44	5033.9	
220.65	3690.4	
220.87	5619.6	
221.08	6169.8	
221.29	3386	
221.5	4612.7	
221.72	7685.3	
221.93	5241.4	
222.14	4235.2	
222.35	5030.5	
222.57	5550	
222.78	5946.6	
222.99	4010.6	
223.2	4325.3	
223.42	5917.9	
223.63	6020.3	
223.84	3046	
224.05	3087.7	
224.27	7167.2	
224.48	6509.8	
224.69	5009.3	
224.9	4231.1	
225.12	5769.8	
225.33	5502.2	
225.54	3381.9	
225.75	3724.6	
225.97	5110.4	
226.18	5442.1	
226.39	4083.6	
226.6	3771	
226.82	5266	
227.03	5140.4	
227.24	4220.9	
227.45	3457.7	
227.67	5890	
227.88	6556.2	
228.09	4711	
228.3	4764.3	
228.52	6021.7	
228.73	5550.7	
228.94	3926.6	
229.15	3504.1	
229.36	5476.3	
229.58	5395	
229.79	3964.2	
230	4604.5	
230.21	6595.1	
230.43	5715.9	
230.64	4133.5	
230.85	4430.4	
231.06	6076.3	
231.28	6013.5	
231.49	3536.2	
231.7	4085	
231.91	5922.7	
232.12	5606.7	
232.34	3514.3	
232.55	4084.3	
232.76	6208.1	
232.97	5720	
233.18	3672	
233.4	4156.7	
233.61	5754.1	
233.82	5243.5	
234.03	3856.3	
234.25	3845.4	
234.46	7853.3	
234.67	5543.9	
234.88	4343.7	
235.09	3708.9	
235.31	5917.3	
235.52	5436	
235.73	4166.3	
235.94	3511.6	
236.15	5265.3	
236.37	6769.9	
236.58	3728.7	
236.79	4089.1	
237	5902.2	
237.21	5077.6	
237.43	4420.2	
237.64	3358	
237.85	10215	
238.06	5085.8	
238.27	4462.5	
238.48	3483.6	
238.7	5903.6	
238.91	5373.9	
239.12	4047.5	
239.33	4098	
239.54	5248.9	
239.76	5529.5	
239.97	4003.8	
240.18	4055	
240.39	7017	
240.6	5803.3	
240.82	4168.3	
241.03	3379.8	
241.24	5545.9	
241.45	6471.6	
241.66	3657.7	
241.87	4354	
242.09	6316.6	
242.3	6724.8	
242.51	4402.5	
242.72	4094.6	
242.93	5982.8	
243.14	5455.8	
243.36	4727.4	
243.57	5056.4	
243.78	6465.4	
243.99	5929.6	
244.2	4083	
244.41	3623.5	
244.63	5136.3	
244.84	5870.2	
245.05	4350.6	
245.26	4083	
245.47	5849.7	
245.68	6186.9	
245.9	5446.9	
246.11	4227.7	
246.32	5442.1	
246.53	5825.1	
246.74	6627.2	
246.95	3417.4	
247.16	4969.1	
247.38	5502.9	
247.59	3339.6	
247.8	4037.9	
248.01	5221	
248.22	5499.5	
248.43	3686.3	
248.64	3898	
248.86	4851.6	
249.07	5272.8	
249.28	3553.2	
249.49	4151.9	
249.7	6139.1	
249.91	6331.6	
250.12	3353.2	
250.34	3405.8	
250.55	5683.1	
250.76	5543.9	
250.97	4213.4	
251.18	4213.4	
251.39	6347.3	
251.6	5730.2	
251.81	4351.3	
252.03	4218.1	
252.24	5244.8	
252.45	6122.7	
252.66	3497.2	
252.87	4459.1	
253.08	5598.5	
253.29	7496.9	
253.5	3461.7	
253.72	4934.9	
253.93	5375.9	
254.14	6632	
254.35	3874.1	
254.56	3996.3	
254.77	5828.5	
254.98	5128.8	
255.19	3748.5	
255.41	4885.1	
255.62	5674.9	
255.83	6250.4	
256.04	4322.6	
256.25	4248.2	
256.46	6820.4	
256.67	5219.6	
256.88	4189.5	
257.09	4702.8	
257.31	5229.1	
257.52	5247.6	
257.73	5244.8	
257.94	3839.3	
258.15	5343.8	
258.36	5615.5	
258.57	4836.6	
258.78	3054.2	
258.99	6153.5	
259.2	5401.2	
259.41	3899.3	
259.63	4050.9	
259.84	6424.5	
260.05	7004.1	
260.26	5119.9	
260.47	3803.1	
260.68	6135.7	
260.89	5500.2	
261.1	4653.7	
261.31	3646.1	
261.52	6055.2	
261.73	6597.9	
261.95	5001.1	
262.16	4407.9	
262.37	6387.6	
262.58	6438.1	
262.79	4985.4	
263	3926.6	
263.21	5673.6	
263.42	5066	
263.63	4026.3	
263.84	3957.4	
264.05	6160.3	
264.26	6581.5	
264.47	4796.3	
264.69	4385.4	
264.9	6350.8	
265.11	5767.1	
265.32	3747.1	
265.53	3856.3	
265.74	5675.6	
265.95	4954	
266.16	4169	
266.37	4522.6	
266.58	5698.1	
266.79	5357.5	
267	3828.3	
267.21	3546.4	
267.42	5128.1	
267.63	5524.7	
267.84	3999.7	
268.06	3426.9	
268.27	5991	
268.48	6340.5	
268.69	3895.2	
268.9	4653.7	
269.11	6263.4	
269.32	5017.5	
269.53	4036.5	
269.74	3773.7	
269.95	5893.4	
270.16	4861.9	
270.37	4031.1	
270.58	4676.2	
270.79	5368.4	
271	6080.4	
271.21	4372.4	
271.42	4128.7	
271.63	5750	
271.84	5184.8	
272.05	3250.8	
272.26	3657.7	
272.47	5604.6	
272.68	5741.8	
272.89	3861.8	
273.11	4474.8	
273.32	5349.3	
273.53	6637.5	
273.74	4435.9	
273.95	4267.3	
274.16	6215.6	
274.37	5655.1	
274.58	4427	
274.79	3524.6	
275	5683.8	
275.21	6285.2	
275.42	5347.9	
275.63	4597.7	
275.84	5861.3	
276.05	7355.6	
276.26	4306.9	
276.47	4022.2	
276.68	5412.8	
276.89	6652.5	
277.1	4665.3	
277.31	3485	
277.52	5902.9	
277.73	6019.7	
277.94	3448.1	
278.15	3937.6	
278.36	5828.5	
278.57	5203.2	
278.78	3882.3	
278.99	4400.4	
279.2	5151.3	
279.41	5109.7	
279.62	5144.5	
279.83	3592.1	
280.04	6765.1	
280.25	5072.1	
280.46	5106.3	
280.67	4080.2	
280.88	5167.7	
281.09	6285.9	
281.3	4249.5	
281.51	5476.3	
281.72	5311.1	
281.93	6122.7	
282.14	3765.5	
282.35	4066.6	
282.56	6048.3	
282.77	6072.2	
282.98	3839.3	
283.19	4810.7	
283.4	7538.6	
283.61	5502.9	
283.82	3639.2	
284.03	5055.8	
284.24	5643.5	
284.45	6261.3	
284.66	5048.2	
284.87	4848.9	
285.08	6209.4	
285.29	6333.7	
285.5	3419.4	
285.71	3906.2	
285.92	6199.9	
286.12	6918	
286.33	4984.8	
286.54	3983.3	
286.75	6052.4	
286.96	5422.3	
287.17	3556.6	
287.38	4914.4	
287.59	5199.8	
287.8	5131.5	
288.01	3985.3	
288.22	4623.6	
288.43	6115.9	
288.64	5061.2	
288.85	4730.8	
289.06	4477.5	
289.27	6061.3	
289.48	6540.5	
289.69	5055.1	
289.9	4567	
290.11	6321.4	
290.32	5214.8	
290.53	4887.8	
290.74	4393.6	
290.94	6107.7	
291.15	6135.7	
291.36	3827.7	
291.57	4528.1	
291.78	5309	
291.99	4999.8	
292.2	3643.3	
292.41	4452.3	
292.62	6158.2	
292.83	5896.1	
293.04	5498.1	
293.25	3638.6	
293.46	5307	
293.67	6239.5	
293.88	3815.4	
294.09	3714.3	
294.29	5059.2	
294.5	5722	
294.71	4089.8	
294.92	3858.4	
295.13	5356.8	
295.34	6671.6	
295.55	3394.2	
295.76	3485	
295.97	6000.5	
296.18	6802.7	
296.39	3520.5	
296.6	3849.5	
296.81	5722	
297.01	5979.4	
297.22	3938.2	
297.43	3762.1	
297.64	5185.5	
297.85	5203.2	
298.06	3064.4	
298.27	3373.7	
298.48	5655.1	
298.69	5213.4	
298.9	4124.6	
299.11	3676.8	
299.31	5019.6	
299.52	5049.6	
299.73	4422.2	
299.94	4324.6	
300.15	5597.1	
300.36	5185.5	
300.57	4306.2	
300.78	4345.1	
300.99	5425.8	
301.2	5704.3	
301.4	3738.2	
301.61	4160.1	
301.82	5938.4	
302.03	6016.2	
302.24	4619.5	
302.45	3573	
302.66	5863.3	
302.87	6371.9	
303.08	3808.5	
303.29	5190.9	
303.49	5319.9	
303.7	5602.6	
303.91	3378.5	
304.12	4947.9	
304.33	5076.9	
304.54	5653.1	
304.75	3824.2	
304.96	3649.5	
305.16	5908.4	
305.37	6743.3	
305.58	3291.8	
305.79	3506.1	
306	5874.3	
306.21	4966.3	
306.42	3801.7	
306.63	5777.3	
306.83	5457.2	
307.04	6254.5	
307.25	4198.3	
307.46	4109.6	
307.67	4755.4	
307.88	6051.1	
308.09	3735.5	
308.29	3927.3	
308.5	5674.9	
308.71	6240.8	
308.92	4067.9	
309.13	3681.6	
309.34	5407.3	
309.55	5461.9	
309.75	4747.2	
309.96	4317.8	
310.17	6024.4	
310.38	5265.3	
310.59	4593.6	
310.8	4306.2	
311.01	6805.4	
311.21	5449.6	
311.42	3587.4	
311.63	3759.4	
311.84	5312.4	
312.05	5753.4	
312.26	4229.1	
312.46	4668	
312.67	5371.8	
312.88	5093.3	
313.09	3660.4	
313.3	3581.2	
313.51	6387.6	
313.71	6818.4	
313.92	3635.1	
314.13	3913.7	
314.34	5776.6	
314.55	5524.1	
314.76	4762.9	
314.96	4117.8	
315.17	5609.4	
315.38	6032.6	
315.59	3703.4	
315.8	3524.6	
316.01	6556.2	
316.21	6528.2	
316.42	3538.9	
316.63	4030.4	
316.84	5432.6	
317.05	6392.4	
317.26	4384.7	
317.46	3872	
317.67	5465.3	
317.88	5988.9	
318.09	4681	
318.3	3453.6	
318.5	5258.5	
318.71	5962.3	
318.92	5973.9	
319.13	4362.2	
319.34	6151.4	
319.54	6186.9	
319.75	3401.7	
319.96	3281.5	
320.17	5955.5	
320.38	6208.1	
320.58	3347.1	
320.79	4090.5	
321	6143.9	
321.21	6309.1	
321.42	4072	
321.62	3321.1	
321.83	5176.6	
322.04	5570.5	
322.25	3894.6	
322.46	3693.2	
322.66	5718.6	
322.87	5900.9	
323.08	4571.1	
323.29	3586	
323.5	6673.6	
323.7	5093.3	
323.91	5060.5	
324.12	4557.4	
324.33	5623.7	
324.53	5902.9	
324.74	4328	
324.95	4556	
325.16	4943.8	
325.37	5431.2	
325.57	3727.3	
325.78	3797.6	
325.99	5664	
326.2	5042.8	
326.4	5279	
326.61	3362.8	
326.82	5567.1	
327.03	5689.3	
327.24	5323.4	
327.44	5028.4	
327.65	5845.6	
327.86	4709.6	
328.07	4348.5	
328.27	3516.4	
328.48	6293.4	
328.69	5128.1	
328.9	5378	
329.1	3926	
329.31	5501.5	
329.52	6427.2	
329.73	3673.4	
329.93	4190.1	
330.14	5642.2	
330.35	5832.6	
330.56	6119.3	
330.76	4535.6	
330.97	5423.7	
331.18	5767.1	
331.39	4087.7	
331.59	3284.3	
331.8	6204.7	
332.01	6363	
332.22	3790.8	
332.42	4392.2	
332.63	5770.5	
332.84	5314.5	
333.05	4146.5	
333.25	3716.4	
333.46	5329.5	
333.67	5557.5	
333.88	3793.5	
334.08	4268.6	
334.29	7552.2	
334.5	6335	
334.7	3563.5	
334.91	5303.6	
335.12	5068.7	
335.33	5948	
335.53	4044.1	
335.74	6180.1	
335.95	5320.6	
336.16	5204.6	
336.36	4036.5	
336.57	4714.4	
336.78	5053	
336.98	6155.5	
337.19	5058.5	
337.4	3987.4	
337.61	6754.2	
337.81	5113.8	
338.02	3746.4	
338.23	4904.9	
338.43	6406	
338.64	5207.3	
338.85	3690.4	
339.05	4832.5	
339.26	6492.7	
339.47	4982	
339.68	3700	
339.88	5491.3	
340.09	5844.9	
340.3	6154.8	
340.5	4315.1	
340.71	3259	
340.92	5042.1	
341.13	6372.6	
341.33	3564.8	
341.54	4411.3	
341.75	5859.9	
341.95	5406	
342.16	4227	
342.37	4475.5	
342.57	5145.2	
342.78	5509	
342.99	4662.5	
343.19	3304.1	
343.4	6004.6	
343.61	5857.2	
343.81	3900.7	
344.02	3591.5	
344.23	6025.1	
344.43	6483.2	
344.64	4539	
344.85	4502.8	
345.06	5859.2	
345.26	6203.3	
345.47	4231.1	
345.68	5036	
345.88	4840	
346.09	6143.9	
346.3	4364.9	
346.5	3288.4	
346.71	5598.5	
346.92	5195	
347.12	3358.7	
347.33	4312.3	
347.54	6098.9	
347.74	6595.1	
347.95	4274.1	
348.16	3086.3	
348.36	5433.9	
348.57	5151.3	
348.78	4142.4	
348.98	4571.1	
349.19	5543.9	
349.39	4971.1	
349.6	3326.6	
349.81	3772.4	
350.01	5824.4	
350.22	5280.3	
350.43	4057.7	
350.63	4954.7	
350.84	5615.5	
351.05	5390.3	
351.25	3712.3	
351.46	3309.5	
351.67	6199.9	
351.87	5242.1	
352.08	3962.8	
352.29	4522.6	
352.49	6047.7	
352.7	5758.2	
352.9	3590.8	
353.11	4460.5	
353.32	6744	
353.52	5368.4	
353.73	3489.7	
353.94	4527.4	
354.14	5886.5	
354.35	5732.3	
354.55	3652.2	
354.76	4052.9	
354.97	5872.2	
355.17	5633.3	
355.38	3390.8	
355.59	4900.1	
355.79	5261.9	
356	5692.7	
356.2	4069.3	
356.41	3532.7	
356.62	4965	
356.82	5504.9	
357.03	4353.3	
357.24	3891.1	
357.44	5279.7	
357.65	5381.4	
357.85	5216.9	
358.06	4091.8	
358.27	4954.7	
358.47	5255.1	
358.68	3401	
358.88	4389.5	
359.09	5817.6	
359.3	6206.7	
359.5	5096.7	
359.71	4508.3	
359.91	6735.8	
360.12	6035.4	
360.33	4330.1	
360.53	4894	
360.74	5253.7	
360.94	5354.8	
361.15	4489.1	
361.36	3706.8	
361.56	6113.2	
361.77	5490.6	
361.97	5042.1	
362.18	3943	
362.38	6099.5	
362.59	5165	
362.8	3630.4	
363	3485.6	
363.21	4868.7	
363.41	5593	
363.62	4270.7	
363.83	5305.6	
364.03	5646.9	
364.24	6744.6	
364.44	5369.8	
364.65	5458.5	
364.85	5486.5	
365.06	5142.4	
365.27	3894.6	
365.47	3859.1	
365.68	6493.4	
365.88	5383.4	
366.09	4301.4	
366.29	3999	
366.5	5745.2	
366.71	6181.5	
366.91	5358.2	
367.12	4442	
367.32	6801.3	
367.53	6004	
367.73	4355.3	
367.94	5362.9	
368.14	5915.2	
368.35	6982.9	
368.56	4421.6	
368.76	3614	
368.97	6048.3	
369.17	7848.5	
369.38	3856.3	
369.58	4138.9	
369.79	5034.6	
369.99	6427.9	
370.2	5200.5	
370.4	4186.7	
370.61	5760.9	
370.82	7012.9	
371.02	4058.4	
371.23	3427.6	
371.43	4930.1	
371.64	6320.7	
371.84	4098	
372.05	5440.8	
372.25	7834.8	
372.46	6093.4	
372.66	4093.9	
372.87	4102.8	
373.07	6165.8	
373.28	7835.5	
373.48	5225.7	
373.69	4900.8	
373.9	5568.4	
374.1	5602.6	
374.31	5184.8	
374.51	4614.1	
374.72	6447	
374.92	5171.1	
375.13	5354.1	
375.33	4453.6	
375.54	6001.9	
375.74	5413.5	
375.95	4506.2	
376.15	5844.9	
376.36	6006	
376.56	5787.6	
376.77	4584	
376.97	5071.5	
377.18	7058	
377.38	6081.1	
377.59	5374.6	
377.79	4044.1	
378	5880.4	
378.2	6398.5	
378.41	4044.7	
378.61	3985.3	
378.82	6407.4	
379.02	5425.1	
379.23	4268.6	
379.43	5478.3	
379.64	6378.1	
379.84	6071.5	
380.05	4093.2	
380.25	4018.8	
380.46	6164.4	
380.66	5726.8	
380.87	5562.3	
381.07	5945.9	
381.28	6895.5	
381.48	6148	
381.69	4203.8	
381.89	4152.6	
382.1	5046.9	
382.3	6379.4	
382.51	5350	
382.71	6340.5	
382.91	6207.4	
383.12	6718.7	
383.32	4495.3	
383.53	4739.7	
383.73	6025.1	
383.94	5813.5	
384.14	4633.2	
384.35	3741.6	
384.55	5694.7	
384.76	6197.2	
384.96	4495.3	
385.17	4881	
385.37	6204.7	
385.58	5361.6	
385.78	4914.4	
385.98	3671.3	
386.19	5617.6	
386.39	6044.9	
386.6	4265.9	
386.8	4501.4	
387.01	6200.6	
387.21	6133.7	
387.42	4963.6	
387.62	5595.7	
387.83	5416.2	
388.03	6180.8	
388.23	4515.1	
388.44	5420.3	
388.64	5040.1	
388.85	5203.2	
389.05	4905.6	
389.26	5552	
389.46	7273.7	
389.67	6589.7	
389.87	4960.9	
390.07	4973.2	
390.28	5795.8	
390.48	5351.3	
390.69	4149.9	
390.89	4377.9	
391.1	5517.2	
391.3	6531.7	
391.5	5717.9	
391.71	6404	
391.91	6202.6	
392.12	7376.8	
392.32	5869.5	
392.53	4912.4	
392.73	5631.9	
392.93	5805.3	
393.14	4561.5	
393.34	5431.9	
393.55	6384.9	
393.75	5793.7	
393.95	4547.9	
394.16	4549.2	
394.36	5504.9	
394.57	6269.5	
394.77	3995.6	
394.98	4478.9	
395.18	5468.1	
395.38	5639.4	
395.59	5461.2	
395.79	4266.6	
396	5563.6	
396.2	6130.3	
396.4	5216.2	
396.61	5058.5	
396.81	6391	
397.02	5562.3	
397.22	5461.2	
397.42	5464	
397.63	6371.9	
397.83	5488.6	
398.04	4250.9	
398.24	4800.4	
398.44	6118	
398.65	5081.7	
398.85	4052.2	
399.05	4212	
399.26	5429.2	
399.46	7264.1	
399.67	4565.6	
399.87	4321.9	
400.07	5803.9	
400.28	6213.5	
400.48	4374.5	
400.69	5612.1	
400.89	6538.5	
401.09	6965.1	
401.3	4305.5	
401.5	5524.7	
401.7	7235.5	
401.91	7463.5	
402.11	4665.3	
402.32	4931.5	
402.52	6515.3	
402.72	6432.7	
402.93	5145.2	
403.13	3819.5	
403.33	7203.4	
403.54	5943.2	
403.74	4820.9	
403.94	5689.3	
404.15	6034	
404.35	7236.8	
404.56	4532.8	
404.76	6550.1	
404.96	6496.2	
405.17	6244.3	
405.37	5998.5	
405.57	5142.4	
405.78	6518	
405.98	5872.9	
406.18	4511	
406.39	5567.1	
406.59	6470.2	
406.79	6053.8	
407	4351.3	
407.2	4484.4	
407.4	6448.4	
407.61	6741.2	
407.81	4468.7	
408.01	6668.2	
408.22	5414.1	
408.42	7517.4	
408.62	5575.3	
408.83	4958.1	
409.03	6012.2	
409.23	5792.3	
409.44	5083.7	
409.64	5447.6	
409.84	6980.8	
410.05	6883.9	
410.25	5276.3	
410.45	5029.8	
410.66	6388.3	
410.86	9062.9	
411.06	5517.9	
411.27	5350	
411.47	8763.9	
411.67	6630.6	
411.88	5680.4	
412.08	5884.5	
412.28	7284.6	
412.49	7826.7	
412.69	5321.3	
412.89	5388.2	
413.09	7610.9	
413.3	7471.7	
413.5	5508.4	
413.7	4986.8	
413.91	6705.7	
414.11	7555	
414.31	5262.6	
414.52	5771.2	
414.72	7201.3	
414.92	7126.9	
415.12	5237.3	
415.33	5905	
415.53	7529.7	
415.73	7728.4	
415.94	6175.3	
416.14	5595.1	
416.34	6482.5	
416.55	6047.7	
416.75	6949.4	
416.95	6291.4	
417.15	7543.4	
417.36	8307.2	
417.56	7115.3	
417.76	6041.5	
417.97	7957.7	
418.17	7608.9	
418.37	5649.7	
418.57	5778	
418.78	7333.1	
418.98	6914.6	
419.18	6686.6	
419.38	6599.2	
419.59	7058.7	
419.79	6596.5	
419.99	5545.9	
420.2	5999.9	
420.4	7570.7	
420.6	7746.8	
420.8	5514.5	
421.01	5326.1	
421.21	7404.8	
421.41	7507.9	
421.61	5899.5	
421.82	5583.4	
422.02	6907.1	
422.22	7903.1	
422.42	6419	
422.63	6098.2	
422.83	6970.6	
423.03	8266.3	
423.23	6070.2	
423.44	4992.3	
423.64	7086	
423.84	6714.6	
424.04	5515.9	
424.25	5169.8	
424.45	8156.4	
424.65	7925.6	
424.85	4911.7	
425.06	5541.1	
425.26	8015.1	
425.46	6523.5	
425.66	6102.3	
425.87	5751.4	
426.07	7675.8	
426.27	7688.1	
426.47	5857.2	
426.67	5145.9	
426.88	8057.4	
427.08	7503.1	
427.28	6158.2	
427.48	5113.8	
427.69	6322.1	
427.89	7057.3	
428.09	6085.9	
428.29	5190.9	
428.5	7794.6	
428.7	7340.6	
428.9	4986.1	
429.1	5722.7	
429.3	7118.7	
429.51	7618.4	
429.71	5392.3	
429.91	6270.9	
430.11	7434.8	
430.31	7729	
430.52	5673.6	
430.72	6066.8	
430.92	8158.4	
431.12	7520.1	
431.32	5373.9	
431.53	5825.8	
431.73	6356.9	
431.93	8228.7	
432.13	5261.2	
432.33	5101.5	
432.54	6883.9	
432.74	7305.1	
432.94	5137	
433.14	6210.8	
433.34	7449.8	
433.55	6913.3	
433.75	6172.6	
433.95	8005.5	
434.15	7221.1	
434.35	6901	
434.56	5286.5	
434.76	4802.5	
434.96	7262.1	
435.16	7483.3	
435.36	5136.3	
435.56	6365.1	
435.77	6818.4	
435.97	7070.3	
436.17	7142.6	
436.37	6277.7	
436.57	6810.2	
436.78	6713.9	
436.98	6309.1	
437.18	6893.5	
437.38	7558.4	
437.58	7084.6	
437.78	7090.1	
437.99	5610.1	
438.19	7590.5	
438.39	8439.7	
438.59	5502.2	
438.79	5063.9	
438.99	8335.9	
439.2	6993.8	
439.4	5200.5	
439.6	5170.4	
439.8	7401.4	
440	8600.8	
440.2	6284.5	
440.4	6376.7	
440.61	7692.9	
440.81	8325.7	
441.01	5361.6	
441.21	6399.9	
441.41	8166.6	
441.61	7895.6	
441.81	6722.8	
442.02	7791.8	
442.22	8716.2	
442.42	7802.1	
442.62	5494.7	
442.82	5498.8	
443.02	8272.4	
443.22	7255.3	
443.43	5926.1	
443.63	5507.7	
443.83	6947.4	
444.03	7106.5	
444.23	6811.5	
444.43	6369.9	
444.63	7406.1	
444.83	8744.1	
445.04	5621	
445.24	6984.9	
445.44	7855.3	
445.64	7976.2	
445.84	6489.3	
446.04	6372.6	
446.24	7106.5	
446.44	8221.9	
446.65	5584.1	
446.85	5956.2	
447.05	7412.3	
447.25	8226.7	
447.45	6081.1	
447.65	5361.6	
447.85	7410.9	
448.05	7060.7	
448.25	6538.5	
448.46	6264.7	
448.66	7477.8	
448.86	7122.2	
449.06	5162.9	
449.26	6513.2	
449.46	7808.2	
449.66	6812.9	
449.86	6022.4	
450.06	5984.2	
450.26	6969.2	
450.47	7602.7	
450.67	6281.1	
450.87	6635.4	
451.07	7645.1	
451.27	7449.8	
451.47	5458.5	
451.67	6122.7	
451.87	7140.6	
452.07	8406.9	
452.27	5741.1	
452.47	5688.6	
452.67	7473.7	
452.88	8060.1	
453.08	5098.8	
453.28	7238.2	
453.48	8768	
453.68	7421.2	
453.88	5631.2	
454.08	5900.2	
454.28	7788.4	
454.48	7448.5	
454.68	6435.4	
454.88	7022.5	
455.08	7952.9	
455.28	7683.3	
455.48	5488.6	
455.68	6120	
455.89	8447.9	
456.09	8064.9	
456.29	5854.5	
456.49	5872.2	
456.69	8334.6	
456.89	7502.4	
457.09	6391	
457.29	6802.7	
457.49	7821.2	
457.69	8043.7	
457.89	6322.1	
458.09	5641.5	
458.29	7541.3	
458.49	8393.9	
458.69	6701.6	
458.89	6141.9	
459.09	8684.1	
459.29	8731.2	
459.49	6183.5	
459.69	7049.8	
459.9	8206.2	
460.1	7607.5	
460.3	6113.2	
460.5	5812.8	
460.7	8095.6	
460.9	7865.6	
461.1	5492	
461.3	6926.2	
461.5	8847.9	
461.7	8321.6	
461.9	5956.2	
462.1	6448.4	
462.3	7809.6	
462.5	8489.5	
462.7	6066.8	
462.9	6120	
463.1	9592	
463.3	9182.4	
463.5	6276.3	
463.7	7303.7	
463.9	8024.6	
464.1	8460.8	
464.3	6429.3	
464.5	6729.6	
464.7	8761.9	
464.9	8319.5	
465.1	8213	
465.3	7150.1	
465.5	9032.2	
465.7	9069.8	
465.9	7308.5	
466.1	7174.7	
466.3	8899.8	
466.5	8594	
466.7	8078.6	
466.9	6929.6	
467.1	8533.9	
467.3	9713.5	
467.5	8053.3	
467.7	6799.3	
467.9	9903.3	
468.1	10728	
468.3	7712.7	
468.5	8153	
468.7	8563.2	
468.9	8624	
469.1	7109.2	
469.3	7910.6	
469.5	10703	
469.7	8032.1	
469.9	7673.7	
470.1	6787	
470.3	8548.9	
470.5	8673.8	
470.7	8269.7	
470.9	7040.2	
471.1	8319.5	
471.3	8834.9	
471.5	6845	
471.69	8856.8	
471.89	8219.9	
472.09	7705.8	
472.29	7595.2	
472.49	8037.6	
472.69	7983	
472.89	8934.6	
473.09	6655.2	
473.29	6796.5	
473.49	8176.9	
473.69	8340.7	
473.89	7795.9	
474.09	7002	
474.29	9641.2	
474.49	9377.6	
474.69	7836.2	
474.89	7104.4	
475.09	8259.5	
475.29	8266.3	
475.49	6512.5	
475.69	6696.2	
475.88	10027	
476.08	8600.1	
476.28	6427.2	
476.48	6889.4	
476.68	9028.1	
476.88	8998.8	
477.08	6665.5	
477.28	7058.7	
477.48	8310	
477.68	9101.9	
477.88	6589	
478.08	6983.6	
478.28	9378.3	
478.48	8523.6	
478.67	7000	
478.87	6341.9	
479.07	9266.4	
479.27	8555	
479.47	7111.2	
479.67	7160.4	
479.87	8983.8	
480.07	9546.9	
480.27	6414.2	
480.47	8198.7	
480.67	8688.2	
480.87	9364.7	
481.06	6709.8	
481.26	7578.8	
481.46	8552.3	
481.66	8524.3	
481.86	7168.6	
482.06	8283.4	
482.26	8247.2	
482.46	9247.9	
482.66	7071.6	
482.86	6649.1	
483.05	8639	
483.25	7937.2	
483.45	9637.7	
483.65	7101	
483.85	8143.4	
484.05	8495.7	
484.25	7516.7	
484.45	8036.2	
484.65	9456.2	
484.84	9440.5	
485.04	7039.6	
485.24	6999.3	
485.44	9680.1	
485.64	7909.3	
485.84	6193.7	
486.04	7789.1	
486.24	8274.5	
486.44	8810.4	
486.63	6199.2	
486.83	7079.1	
487.03	8243.8	
487.23	8456.1	
487.43	6260	
487.63	8908	
487.83	8494.3	
488.02	9521.7	
488.22	7387	
488.42	8003.5	
488.62	9470.5	
488.82	8262.2	
489.02	7001.3	
489.22	7125.6	
489.41	9218.6	
489.61	8847.9	
489.81	6734.4	
490.01	6705.7	
490.21	9176.9	
490.41	9842.5	
490.61	6649.1	
490.8	6842.9	
491	8572.8	
491.2	7843	
491.4	7539.9	
491.6	6505	
491.8	8566.7	
491.99	8782.4	
492.19	6395.1	
492.39	6782.2	
492.59	9155.8	
492.79	9219.3	
492.99	7724.3	
493.18	6635.4	
493.38	9231.6	
493.58	10139	
493.78	7466.2	
493.98	7008.1	
494.18	8970.1	
494.37	8379.6	
494.57	7683.3	
494.77	7677.2	
494.97	9258.9	
495.17	9492.3	
495.37	7104.4	
495.56	7461.4	
495.76	9679.4	
495.96	9299.1	
496.16	8527.1	
496.36	7269.6	
496.55	9516.2	
496.75	9034.3	
496.95	7749.5	
497.15	7558.4	
497.35	9467.8	
497.54	9439.8	
497.74	7312.6	
497.94	9151	
498.14	10167	
498.34	10010	
498.53	6988.4	
498.73	7904.5	
498.93	8712.1	
499.13	9508	
499.33	7678.5	
499.52	8285.4	
499.72	9325.1	
499.92	9796.1	
500.12	7298.3	
500.32	7561.8	
500.51	9673.2	
500.71	9450	
500.91	8510.7	
501.11	8082	
501.31	9521	
501.5	10154	
501.7	8745.5	
501.9	7656.7	
502.1	9437	
502.29	9781.1	
502.49	8246.5	
502.69	8668.4	
502.89	9714.2	
503.09	9596.8	
503.28	7165.8	
503.48	7264.8	
503.68	8765.3	
503.88	8889.5	
504.07	8271.7	
504.27	7748.8	
504.47	9286.2	
504.67	9428.2	
504.86	8185	
505.06	7886.7	
505.26	8929.8	
505.46	10842	
505.65	7749.5	
505.85	7972.7	
506.05	8771.5	
506.25	9254.1	
506.44	7017.7	
506.64	8094.9	
506.84	8740	
507.04	9832.3	
507.23	7215.7	
507.43	7937.2	
507.63	10909	
507.83	8943.5	
508.02	7819.1	
508.22	7432.1	
508.42	11047	
508.62	8727.8	
508.81	7714.7	
509.01	8329.1	
509.21	8565.3	
509.4	8899.1	
509.6	7885.4	
509.8	7210.9	
510	8839.7	
510.19	10515	
510.39	7246.4	
510.59	7310.6	
510.79	8677.2	
510.98	10219	
511.18	7347.4	
511.38	7526.3	
511.57	9542.2	
511.77	9475.3	
511.97	8257.4	
512.17	7124.2	
512.36	9626.8	
512.56	9557.9	
512.76	7348.1	
512.95	6983.6	
513.15	9645.3	
513.35	8289.5	
513.55	8203.5	
513.74	7277.8	
513.94	9651.4	
514.14	8978.3	
514.33	8404.2	
514.53	8086.7	
514.73	8931.2	
514.92	9181.7	
515.12	7424.6	
515.32	7286.7	
515.51	9216.5	
515.71	9871.2	
515.91	9086.2	
516.11	7389.8	
516.3	11096	
516.5	8889.5	
516.7	8048.5	
516.89	8609.7	
517.09	8999.5	
517.29	8851.3	
517.48	8318.2	
517.68	7677.2	
517.88	8713.4	
518.07	9359.9	
518.27	8148.9	
518.47	7182.9	
518.66	10084	
518.86	8585.8	
519.06	6974.7	
519.25	7573.4	
519.45	8939.4	
519.65	10642	
519.84	8294.3	
520.04	9066.4	
520.24	10927	
520.43	9640.5	
520.63	7978.9	
520.83	7647.8	
521.02	8767.4	
521.22	9397.4	
521.42	8223.3	
521.61	8786.5	
521.81	8984.4	
522.01	9222.7	
522.2	8019.8	
522.4	7830.1	
522.6	9725.8	
522.79	8481.3	
522.99	7925	
523.18	7182.2	
523.38	9548.3	
523.58	9545.6	
523.77	9414.5	
523.97	7246.4	
524.17	11572	
524.36	10657	
524.56	8613.1	
524.76	8346.8	
524.95	9600.9	
525.15	9254.8	
525.34	8197.3	
525.54	8243.8	
525.74	10034	
525.93	8908	
526.13	9471.2	
526.33	8202.8	
526.52	10471	
526.72	9805.7	
526.91	9480.7	
527.11	8729.8	
527.31	10502	
527.5	11082	
527.7	8649.3	
527.89	7577.5	
528.09	9415.9	
528.29	10021	
528.48	9159.9	
528.68	8728.4	
528.87	10448	
529.07	10390	
529.27	8652	
529.46	8292.9	
529.66	9994.8	
529.85	10557	
530.05	7962.5	
530.25	8953	
530.44	11555	
530.64	9993.4	
530.83	8454	
531.03	8740.7	
531.23	10423	
531.42	10417	
531.62	9643.9	
531.81	8637.6	
532.01	10710	
532.21	11142	
532.4	8496.3	
532.6	8885.5	
532.79	11834	
532.99	10840	
533.18	8957.1	
533.38	10159	
533.58	10273	
533.77	11249	
533.97	8898.4	
534.16	9973.6	
534.36	11456	
534.55	10518	
534.75	10036	
534.95	9072.5	
535.14	11265	
535.34	10473	
535.53	8785.8	
535.73	10914	
535.92	11926	
536.12	10669	
536.31	8867	
536.51	10297	
536.71	10932	
536.9	10381	
537.1	9078.6	
537.29	9246.6	
537.49	11575	
537.68	10418	
537.88	9637.1	
538.07	8845.2	
538.27	10628	
538.46	11906	
538.66	8645.2	
538.86	9219.3	
539.05	10882	
539.25	11220	
539.44	9567.4	
539.64	9022.7	
539.83	10593	
540.03	11754	
540.22	9014.5	
540.42	9128.5	
540.61	10829	
540.81	11113	
541	9641.8	
541.2	10303	
541.39	10413	
541.59	10873	
541.78	9880.8	
541.98	8912.8	
542.18	10102	
542.37	10041	
542.57	9347.6	
542.76	9921	
542.96	10107	
543.15	10931	
543.35	9452.1	
543.54	8717.5	
543.74	11239	
543.93	10786	
544.13	9372.9	
544.32	10493	
544.52	11135	
544.71	10170	
544.91	8342.1	
545.1	9783.8	
545.3	10206	
545.49	11082	
545.69	8202.1	
545.88	8961.9	
546.08	12032	
546.27	11606	
546.47	9513.5	
546.66	8843.1	
546.86	11233	
547.05	11845	
547.24	8939.4	
547.44	8898.4	
547.63	10149	
547.83	11365	
548.02	9350.3	
548.22	9459.6	
548.41	9886.9	
548.61	11397	
548.8	8729.1	
549	8660.9	
549.19	10580	
549.39	10912	
549.58	8447.2	
549.78	8994	
549.97	11019	
550.17	10463	
550.36	9931.3	
550.55	11092	
550.75	10391	
550.94	11422	
551.14	8645.8	
551.33	9115.5	
551.53	9764.7	
551.72	10903	
551.92	9139.4	
552.11	8926.4	
552.31	10842	
552.5	10910	
552.69	10722	
552.89	8500.4	
553.08	10785	
553.28	10458	
553.47	8939.4	
553.67	10103	
553.86	11615	
554.06	9678.7	
554.25	7999.4	
554.44	8680.7	
554.64	12296	
554.83	11736	
555.03	8589.9	
555.22	8951.7	
555.42	10953	
555.61	10693	
555.8	8763.3	
556	9094.3	
556.19	9759.3	
556.39	11226	
556.58	8831.5	
556.78	8723.7	
556.97	10582	
557.16	10207	
557.36	10133	
557.55	8480	
557.75	9465	
557.94	11444	
558.13	8516.8	
558.33	8262.9	
558.52	11158	
558.72	9900.6	
558.91	8443.1	
559.1	8633.6	
559.3	9575.6	
559.49	9263	
559.69	7888.8	
559.88	8960.5	
560.07	10572	
560.27	10933	
560.46	9125.1	
560.66	9295.7	
560.85	10337	
561.04	9366.7	
561.24	8268.3	
561.43	8473.1	
561.63	9703.3	
561.82	9910.8	
562.01	9889	
562.21	8804.2	
562.4	10387	
562.59	11379	
562.79	8718.2	
562.98	8307.2	
563.18	10393	
563.37	11954	
563.56	9218.6	
563.76	8206.9	
563.95	9706.7	
564.14	9701.2	
564.34	8565.3	
564.53	8445.8	
564.73	10282	
564.92	10693	
565.11	8787.8	
565.31	8160.5	
565.5	10858	
565.69	9669.8	
565.89	8298.4	
566.08	8684.1	
566.27	10694	
566.47	11183	
566.66	9353.1	
566.85	7919.5	
567.05	10208	
567.24	9611.8	
567.44	8266.3	
567.63	9757.2	
567.82	10479	
568.02	10289	
568.21	8243.1	
568.4	8690.2	
568.6	10056	
568.79	10124	
568.98	7980.9	
569.18	8265.6	
569.37	10077	
569.56	12222	
569.76	8636.3	
569.95	9660.3	
570.14	10434	
570.34	10340	
570.53	8115.4	
570.72	8019.2	
570.91	10910	
571.11	9949	
571.3	8549.6	
571.49	9561.3	
571.69	9948.3	
571.88	9589.3	
572.07	9106.6	
572.27	9102.5	
572.46	9491.7	
572.65	10546	
572.85	8306.6	
573.04	8665.6	
573.23	10783	
573.43	10113	
573.62	7945.4	
573.81	8684.8	
574	10062	
574.2	9876.7	
574.39	8344.8	
574.58	8579.6	
574.78	11045	
574.97	10208	
575.16	8908	
575.36	9086.2	
575.55	10641	
575.74	10789	
575.93	7978.2	
576.13	9227.5	
576.32	9961.3	
576.51	10477	
576.71	8380.3	
576.9	9836.4	
577.09	10907	
577.28	10263	
577.48	8880	
577.67	7789.8	
577.86	9936.1	
578.05	10213	
578.25	8515.5	
578.44	8643.1	
578.63	10028	
578.83	11333	
579.02	7815.7	
579.21	9557.2	
579.4	10307	
579.6	9852.8	
579.79	8714.1	
579.98	10980	
580.17	10611	
580.37	10675	
580.56	8107.2	
580.75	8832.9	
580.94	11149	
581.14	10947	
581.33	9360.6	
581.52	8200.1	
581.71	10454	
581.91	11147	
582.1	7929.7	
582.29	8435.6	
582.48	10051	
582.68	10015	
582.87	9013.1	
583.06	8623.3	
583.25	10306	
583.45	10191	
583.64	9282.8	
583.83	10083	
584.02	9841.2	
584.21	10314	
584.41	9276.6	
584.6	8469	
584.79	9929.2	
584.98	10852	
585.18	7894.9	
585.37	7865.6	
585.56	9486.2	
585.75	10381	
585.94	8129.8	
586.14	8900.5	
586.33	10921	
586.52	9822.7	
586.71	8632.2	
586.91	8460.8	
587.1	9218.6	
587.29	10410	
587.48	8286.8	
587.67	8172.8	
587.87	10170	
588.06	10256	
588.25	9563.3	
588.44	8761.9	
588.63	9768.8	
588.83	10392	
589.02	8180.3	
589.21	7978.2	
589.4	9482.1	
589.59	9334.6	
589.78	7185.6	
589.98	7480.5	
590.17	8953	
590.36	9543.5	
590.55	6819.7	
590.74	7681.2	
590.94	10968	
591.13	9417.2	
591.32	7457.3	
591.51	6981.5	
591.7	9850	
591.89	9398.1	
592.09	7108.5	
592.28	7595.2	
592.47	8492.2	
592.66	10603	
592.85	7095.5	
593.05	7343.3	
593.24	9097.8	
593.43	9863	
593.62	7318.8	
593.81	7899.7	
594	9157.2	
594.19	9468.4	
594.39	7221.8	
594.58	7232.7	
594.77	9519	
594.96	10155	
595.15	7189.1	
595.34	7800	
595.54	9630.2	
595.73	8535.3	
595.92	6459.3	
596.11	7801.4	
596.3	10095	
596.49	8631.5	
596.68	7559.1	
596.88	7978.2	
597.07	9842.5	
597.26	8414.4	
597.45	6915.3	
597.64	8268.3	
597.83	8647.9	
598.02	9368.8	
598.22	7053.9	
598.41	7834.2	
598.6	9165.3	
598.79	8591.2	
598.98	7028.6	
599.17	8094.9	
599.36	9189.2	
599.55	10585	
599.74	9446.6	
599.94	8972.8	
600.13	9730.6	
600.32	8473.8	
600.51	6848.4	
600.7	7012.9	
600.89	10394	
601.08	10441	
601.27	6751.5	
601.47	7806.2	
601.66	9768.1	
601.85	10380	
602.04	7454.6	
602.23	7996.6	
602.42	8671.8	
602.61	9321	
602.8	7482.6	
602.99	7147.4	
603.18	8929.1	
603.37	9222	
603.57	7844.4	
603.76	8421.9	
603.95	10164	
604.14	9595.4	
604.33	7254.6	
604.52	7561.8	
604.71	9202.2	
604.9	8804.9	
605.09	8111.3	
605.28	8032.8	
605.47	9808.4	
605.66	9539.4	
605.86	7811	
606.05	7152.9	
606.24	9791.3	
606.43	8298.4	
606.62	7558.4	
606.81	8290.9	
607	9706	
607.19	8931.2	
607.38	6840.2	
607.57	7238.2	
607.76	8647.9	
607.95	8097.7	
608.14	7585	
608.33	8209.6	
608.52	8730.5	
608.72	9641.8	
608.91	6769.9	
609.1	6655.9	
609.29	8802.2	
609.48	8211.7	
609.67	7779.6	
609.86	6736.5	
610.05	8338.6	
610.24	8712.7	
610.43	6540.5	
610.62	6257.9	
610.81	9932.6	
611	9580.4	
611.19	6726.9	
611.38	7520.1	
611.57	9037.7	
611.76	10497	
611.95	6488	
612.14	6303.6	
612.33	8822	
612.52	8213	
612.71	7156.3	
612.9	6270.2	
613.09	7942	
613.28	10247	
613.47	6703	
613.66	7789.1	
613.85	8883.4	
614.04	8384.4	
614.24	6733	
614.43	6063.4	
614.62	9024	
614.81	8912.1	
615	7468.3	
615.19	7434.8	
615.38	8145.5	
615.57	8542.8	
615.76	7256.6	
615.95	8290.2	
616.14	9047.9	
616.33	8609	
616.52	7605.5	
616.71	7909.9	
616.9	8911.4	
617.09	8769.4	
617.28	6903.7	
617.47	8511.4	
617.66	8053.3	
617.85	7993.2	
618.04	7953.6	
618.22	7295.5	
618.41	8314.8	
618.6	9249.3	
618.79	7163.1	
618.98	6824.5	
619.17	9618.6	
619.36	7827.3	
619.55	6931.7	
619.74	6989	
619.93	8826.1	
620.12	8200.1	
620.31	7683.3	
620.5	7831.4	
620.69	9491	
620.88	9808.4	
621.07	8529.8	
621.26	7499.7	
621.45	8971.5	
621.64	9154.4	
621.83	7589.1	
622.02	6739.2	
622.21	9062.9	
622.4	8731.9	
622.59	8092.2	
622.78	7832.8	
622.97	8433.5	
623.16	9422.7	
623.35	7416.4	
623.54	6661.4	
623.72	8629.5	
623.91	8740	
624.1	7785.7	
624.29	6343.2	
624.48	9963.4	
624.67	9029.5	
624.86	7671.7	
625.05	6636.8	
625.24	9972.9	
625.43	8265.6	
625.62	9537.4	
625.81	6877.1	
626	9379	
626.19	8594	
626.38	7686	
626.56	7057.3	
626.75	8439	
626.94	8983.1	
627.13	7752.9	
627.32	6315.9	
627.51	9146.2	
627.7	10472	
627.89	6516.6	
628.08	7722.2	
628.27	8220.5	
628.46	8432.9	
628.65	6785.6	
628.83	6509.8	
629.02	9018.6	
629.21	8368	
629.4	7182.2	
629.59	7439.6	
629.78	8190.5	
629.97	9231.6	
630.16	7487.4	
630.35	6898.2	
630.54	9741.5	
630.72	9361.3	
630.91	6941.9	
631.1	7481.2	
631.29	8779.6	
631.48	9025.4	
631.67	7634.8	
631.86	7160.4	
632.05	8436.3	
632.24	8497	
632.42	6629.3	
632.61	7329.7	
632.8	8561.9	
632.99	8163.9	
633.18	7246.4	
633.37	7782.3	
633.56	8819.9	
633.75	8578.9	
633.93	7314	
634.12	6881.9	
634.31	9686.2	
634.5	9198.1	
634.69	7026.6	
634.88	7552.2	
635.07	8585.8	
635.25	9137.4	
635.44	7945.4	
635.63	8245.1	
635.82	8477.9	
636.01	7920.9	
636.2	7890.8	
636.39	7408.9	
636.57	9607	
636.76	9318.9	
636.95	6765.8	
637.14	8367.3	
637.33	8911.4	
637.52	9855.5	
637.7	6507.8	
637.89	7507.2	
638.08	8368.7	
638.27	10013	
638.46	7610.3	
638.65	8063.5	
638.83	10065	
639.02	8258.1	
639.21	7497.6	
639.4	8045.8	
639.59	8767.4	
639.78	8290.2	
639.96	6802	
640.15	6743.3	
640.34	8559.1	
640.53	8757.1	
640.72	6377.4	
640.91	6767.2	
641.09	7968.6	
641.28	9344.2	
641.47	6819.7	
641.66	7592.5	
641.85	8707.3	
642.03	8970.8	
642.22	7441	
642.41	6901	
642.6	8057.4	
642.79	7417.7	
642.97	6640.9	
643.16	7391.8	
643.35	8019.8	
643.54	7832.1	
643.73	6571.2	
643.91	7452.6	
644.1	7557.7	
644.29	8347.5	
644.48	6634.7	
644.67	6624.5	
644.85	7806.9	
645.04	8189.1	
645.23	6184.9	
645.42	6581.5	
645.6	7705.1	
645.79	8905.9	
645.98	6439.5	
646.17	5473.5	
646.36	7387	
646.54	8119.5	
646.73	7306.5	
646.92	6016.2	
647.11	7671	
647.29	8819.2	
647.48	6176.7	
647.67	5931.6	
647.86	9000.8	
648.05	9085.5	
648.23	6444.3	
648.42	7840.3	
648.61	8372.1	
648.8	7995.3	
648.98	6102.9	
649.17	6346.7	
649.36	7538.6	
649.55	7040.2	
649.73	6127.5	
649.92	6988.4	
650.11	7551.5	
650.3	7868.3	
650.48	6311.8	
650.67	5995.1	
650.86	8174.8	
651.05	7032.7	
651.23	6212.2	
651.42	6170.5	
651.61	7526.3	
651.79	7681.2	
651.98	6375.3	
652.17	5991	
652.36	7970.7	
652.54	7077.8	
652.73	6020.3	
652.92	5845.6	
653.11	8164.6	
653.29	8122.2	
653.48	5281	
653.67	6316.6	
653.85	7828	
654.04	8972.8	
654.23	6617	
654.42	6068.8	
654.6	7322.2	
654.79	8060.8	
654.98	5554.1	
655.16	6207.4	
655.35	6958.3	
655.54	6864.1	
655.73	5638.1	
655.91	5489.2	
656.1	8120.9	
656.29	6832	
656.47	5127.4	
656.66	6975.4	
656.85	7180.2	
657.03	7178.8	
657.22	5616.2	
657.41	5743.9	
657.59	7256	
657.78	7040.9	
657.97	5344.5	
658.16	6094.8	
658.34	7906.5	
658.53	8258.1	
658.72	7065.5	
658.9	7635.5	
659.09	7250.5	
659.28	7421.8	
659.46	5839.4	
659.65	5724.8	
659.84	7043	
660.02	7638.9	
660.21	5640.8	
660.4	5582.8	
660.58	8135.2	
660.77	7433.4	
660.96	6317.3	
661.14	5231.2	
661.33	8655.4	
661.52	8517.5	
661.7	5116.5	
661.89	9189.9	
662.08	7002	
662.26	6638.1	
662.45	5421.7	
662.64	5594.4	
662.82	7656.7	
663.01	6855.2	
663.2	5569.8	
663.38	6437.4	
663.57	7548.1	
663.75	7468.9	
663.94	5976.7	
664.13	7402.7	
664.31	6902.3	
664.5	7669.6	
664.69	6083.8	
664.87	6735.8	
665.06	6619	
665.25	7516	
665.43	7032	
665.62	7103.7	
665.8	7875.1	
665.99	7085.3	
666.18	5952.1	
666.36	6047	
666.55	7783	
666.74	7655.3	
666.92	5540.4	
667.11	7294.9	
667.29	7028.6	
667.48	7737.9	
667.67	6854.6	
667.85	6020.3	
668.04	7055.9	
668.22	7120.1	
668.41	5950.7	
668.6	6238.8	
668.78	6976.7	
668.97	7137.9	
669.15	6339.1	
669.34	5203.2	
669.53	6931.7	
669.71	7235.5	
669.9	5492.7	
670.08	6152.8	
670.27	6929	
670.46	7493.5	
670.64	6443.6	
670.83	6593.8	
671.01	6707.1	
671.2	7424.6	
671.38	5435.3	
671.57	5389.6	
671.76	8086.1	
671.94	8752.3	
672.13	5300.8	
672.31	6506.4	
672.5	7655.3	
672.69	6954.2	
672.87	5547.3	
673.06	5878.4	
673.24	7395.2	
673.43	6913.3	
673.61	6410.1	
673.8	5820.3	
673.98	7589.8	
674.17	7809.6	
674.36	6418.3	
674.54	6324.1	
674.73	7505.1	
674.91	7619.1	
675.1	5984.8	
675.28	5571.2	
675.47	7131.7	
675.65	7799.3	
675.84	5813.5	
676.03	6245.6	
676.21	6922.1	
676.4	6319.3	
676.58	6764.4	
676.77	6405.4	
676.95	8469	
677.14	6850.5	
677.32	5586.2	
677.51	5257.1	
677.69	7674.4	
677.88	6516	
678.06	5373.2	
678.25	5472.9	
678.44	7199.3	
678.62	6869.6	
678.81	5183.4	
678.99	6164.4	
679.18	8010.3	
679.36	7510.6	
679.55	5728.2	
679.73	6475.7	
679.92	7536.5	
680.1	6924.2	
680.29	7156.3	
680.47	5767.1	
680.66	6868.9	
680.84	7765.2	
681.03	5009.3	
681.21	6350.8	
681.4	6922.1	
681.58	6758.3	
681.77	5539.1	
681.95	5456.5	
682.14	7788.4	
682.32	8223.3	
682.51	6522.1	
682.69	5266.7	
682.88	6814.3	
683.06	7572	
683.25	6253.8	
683.43	6713.2	
683.62	7159.7	
683.8	7552.2	
683.99	6817.7	
684.17	5960.3	
684.36	8555	
684.54	7085.3	
684.73	5197.7	
684.91	5414.1	
685.1	7429.3	
685.28	6844.3	
685.46	6085.9	
685.65	6183.5	
685.83	7737.9	
686.02	7080.5	
686.2	5506.3	
686.39	5643.5	
686.57	6699.6	
686.76	8445.1	
686.94	5485.8	
687.13	5763.7	
687.31	7550.2	
687.5	7103.7	
687.68	5152	
687.86	6518.7	
688.05	8966	
688.23	6490	
688.42	6546	
688.6	5683.1	
688.79	6926.9	
688.97	7017	
689.16	6141.2	
689.34	4986.8	
689.52	7830.1	
689.71	8086.1	
689.89	6424.5	
690.08	5668.1	
690.26	7283.3	
690.45	7217.7	
690.63	6686.6	
690.81	5815.5	
691	6959	
691.18	6948.1	
691.37	6065.4	
691.55	8419.9	
691.74	7032	
691.92	9121.7	
692.1	6133	
692.29	5483.8	
692.47	7229.3	
692.66	6551.5	
692.84	5760.3	
693.02	6434.7	
693.21	6692.1	
693.39	7219.1	
693.58	6520.7	
693.76	5848.3	
693.94	8514.1	
694.13	8304.5	
694.31	5933	
694.5	7094.2	
694.68	7063.4	
694.86	7555	
695.05	6303	
695.23	6637.5	
695.42	8001.4	
695.6	10471	
695.78	6963.1	
695.97	5999.2	
696.15	8067.6	
696.34	7389.1	
696.52	5847.6	
696.7	6737.1	
696.89	7851.9	
697.07	7223.2	
697.25	6673.6	
697.44	8432.9	
697.62	7784.3	
697.81	8189.1	
697.99	6390.3	
698.17	7012.2	
698.36	7165.8	
698.54	7925	
698.72	6862.1	
698.91	5685.8	
699.09	7478.5	
699.28	7424.6	
699.46	6525.5	
699.64	6359.6	
699.83	7340.6	
700.01	8680	
700.19	7238.2	
700.38	5555.5	
700.56	8657.4	
700.74	7496.2	
700.93	6063.4	
701.11	7025.2	
701.29	8191.9	
701.48	9285.5	
701.66	6412.9	
701.84	6348	
702.03	7742.7	
702.21	8448.6	
702.39	5932.3	
702.58	6690	
702.76	8219.9	
702.94	8448.6	
703.13	6089.3	
703.31	8649.3	
703.49	7524.2	
703.68	9256.1	
703.86	6343.2	
704.04	7368.6	
704.23	8124.3	
704.41	8637	
704.59	6472.3	
704.78	7955.7	
704.96	9382.4	
705.14	8722.3	
705.33	6317.3	
705.51	7234.1	
705.69	8062.9	
705.87	9052	
706.06	7627.3	
706.24	6416.3	
706.42	8429.4	
706.61	8677.9	
706.79	7706.5	
706.97	6395.1	
707.16	7815.7	
707.34	8555.7	
707.52	7654.6	
707.7	6733.7	
707.89	8230.8	
708.07	7814.4	
708.25	7694.9	
708.44	7868.3	
708.62	8015.1	
708.8	9367.4	
708.98	7970	
709.17	6922.8	
709.35	8566	
709.53	8652.7	
709.72	6552.1	
709.9	6830.7	
710.08	8813.8	
710.26	8966	
710.45	8413.7	
710.63	7009.5	
710.81	8540.7	
710.99	8588.5	
711.18	7704.5	
711.36	7138.5	
711.54	8333.9	
711.72	9243.2	
711.91	7189.7	
712.09	6727.6	
712.27	8625.4	
712.45	9344.9	
712.64	7615	
712.82	6427.2	
713	7957.7	
713.18	8078.6	
713.37	6594.5	
713.55	7813	
713.73	9084.1	
713.91	7521.5	
714.1	7019.1	
714.28	6328.2	
714.46	8565.3	
714.64	7731.1	
714.83	5656.5	
715.01	6453.1	
715.19	7681.9	
715.37	7056.6	
715.55	6184.9	
715.74	6472.3	
715.92	8628.8	
716.1	6561.7	
716.28	7652.6	
716.47	6654.5	
716.65	7217	
716.83	7357	
717.01	6423.8	
717.19	6544.6	
717.38	9646.6	
717.56	7033.4	
717.74	6724.8	
717.92	5892	
718.1	8389.8	
718.29	7619.1	
718.47	5541.8	
718.65	6294.1	
718.83	8411	
719.01	8365.3	
719.2	5534.3	
719.38	6789.7	
719.56	8099	
719.74	9866.4	
719.92	6324.1	
720.11	7467.6	
720.29	8095.6	
720.47	7263.5	
720.65	5833.3	
720.83	6703.7	
721.02	7520.1	
721.2	7236.8	
721.38	6728.3	
721.56	5921.4	
721.74	6776	
721.92	6959.7	
722.11	7306.5	
722.29	6884.6	
722.47	8310	
722.65	7413.6	
722.83	5887.2	
723.01	6980.2	
723.2	7565.9	
723.38	7735.2	
723.56	5224.4	
723.74	6565.8	
723.92	6941.9	
724.1	8252.6	
724.29	5928.9	
724.47	7208.2	
724.65	7026.6	
724.83	6969.2	
725.01	5696.1	
725.19	6758.3	
725.37	7028.6	
725.56	7153.6	
725.74	5653.1	
725.92	5997.8	
726.1	6952.9	
726.28	7310.6	
726.46	6345.3	
726.64	5991	
726.83	7222.5	
727.01	7548.1	
727.19	5569.1	
727.37	6500.3	
727.55	7815	
727.73	8062.2	
727.91	5649.7	
728.09	5421.7	
728.28	8006.9	
728.46	8731.2	
728.64	6649.1	
728.82	6552.8	
729	9246.6	
729.18	8396.7	
729.36	5847	
729.54	8373.5	
729.72	9598.8	
729.91	7778.2	
730.09	7930.4	
730.27	6666.1	
730.45	7667.6	
730.63	8420.6	
730.81	7324.9	
730.99	6286.6	
731.17	8961.9	
731.35	7463.5	
731.53	6894.8	
731.71	6497.5	
731.9	8671.1	
732.08	8934.6	
732.26	6720.8	
732.44	6374	
732.62	8888.9	
732.8	8398	
732.98	7208.8	
733.16	6163.7	
733.34	8279.9	
733.52	6957.6	
733.7	6687.3	
733.88	7052.5	
734.07	8099	
734.25	7982.3	
734.43	6080.4	
734.61	7772.7	
734.79	9527.8	
734.97	7761.8	
735.15	6231.3	
735.33	6651.8	
735.51	8126.3	
735.69	7721.5	
735.87	8040.3	
736.05	6853.9	
736.23	7948.2	
736.41	7692.2	
736.59	6644.3	
736.77	6816.3	
736.95	8405.5	
737.13	7822.6	
737.32	6286.6	
737.5	6508.4	
737.68	8979	
737.86	7724.3	
738.04	6030.6	
738.22	8176.9	
738.4	7439.6	
738.58	7806.9	
738.76	6806.8	
738.94	5571.8	
739.12	7580.2	
739.3	7443	
739.48	7437.5	
739.66	7066.9	
739.84	7934.5	
740.02	7869.7	
740.2	5660.6	
740.38	6188.3	
740.56	8257.4	
740.74	7080.5	
740.92	6877.8	
741.1	6722.8	
741.28	7666.2	
741.46	7488.7	
741.64	6263.4	
741.82	6878.4	
742	7579.5	
742.18	7569.3	
742.36	6402.6	
742.54	5983.5	
742.72	8297	
742.9	6862.7	
743.08	6973.3	
743.26	5655.8	
743.44	8428.1	
743.62	8286.1	
743.8	6948.8	
743.98	5971.9	
744.16	7935.2	
744.34	7584.3	
744.52	6940.6	
744.7	6807.4	
744.88	8051.9	
745.06	7550.9	
745.24	6836.8	
745.42	6905.8	
745.6	8118.1	
745.78	7855.3	
745.96	5580	
746.14	5969.8	
746.32	8800.8	
746.5	8101.1	
746.68	6587.6	
746.86	5973.2	
747.03	8573.5	
747.21	6657.9	
747.39	6592.4	
747.57	5890.6	
747.75	7619.1	
747.93	8097	
748.11	5959.6	
748.29	5850.4	
748.47	9289.6	
748.65	7239.6	
748.83	6703	
749.01	6341.9	
749.19	7897.7	
749.37	6941.9	
749.55	6201.2	
749.73	6346.7	
749.91	7412.3	
750.09	7118.1	
750.26	6303	
750.44	5655.1	
750.62	7535.2	
750.8	7422.5	
750.98	5525.4	
751.16	5825.1	
751.34	7476.5	
751.52	6789	
751.7	6758.3	
751.88	5505.6	
752.06	8008.9	
752.24	7858.1	
752.42	5423.7	
752.59	5863.3	
752.77	7332.4	
752.95	8710.7	
753.13	6627.2	
753.31	5962.3	
753.49	7004.1	
753.67	7496.2	
753.85	6195.8	
754.03	5866.7	
754.21	7763.8	
754.38	8114.1	
754.56	5907	
754.74	4760.8	
754.92	6807.4	
755.1	7606.2	
755.28	4849.6	
755.46	4898.7	
755.64	8216.5	
755.82	8344.8	
755.99	4880.3	
756.17	5077.6	
756.35	5456.5	
756.53	7116.7	
756.71	3719.1	
756.89	4671.4	
757.07	6710.5	
757.25	5754.1	
757.42	5324.7	
757.6	6270.2	
757.78	6784.2	
757.96	5743.2	
758.14	5096	
758.32	4610	
758.5	5281.7	
758.67	6207.4	
758.85	4860.5	
759.03	5015.5	
759.21	6393.1	
759.39	5783.5	
759.57	4412	
759.75	5692	
759.92	6994.5	
760.1	6321.4	
760.28	6075	
760.46	6336.4	
760.64	6054.5	
760.82	5883.1	
760.99	6023.1	
761.17	5046.9	
761.35	7096.2	
761.53	5942.5	
761.71	5253	
761.89	5985.5	
762.06	6922.1	
762.24	6427.9	
762.42	5322	
762.6	5102.9	
762.78	6383.5	
762.96	7105.1	
763.13	5736.4	
763.31	5410.7	
763.49	7318.1	
763.67	6365.1	
763.85	6414.9	
764.02	6976.1	
764.2	7544	
764.38	6696.2	
764.56	5325.4	
764.74	6255.9	
764.91	7713.3	
765.09	6519.4	
765.27	4949.9	
765.45	4717.2	
765.63	7669	
765.8	7622.5	
765.98	4488.5	
766.16	4808.6	
766.34	6019.7	
766.52	5717.9	
766.69	5803.9	
766.87	4566.3	
767.05	6466.8	
767.23	7348.8	
767.41	4974.5	
767.58	5161.6	
767.76	6996.5	
767.94	7135.1	
768.12	4949.3	
768.29	5870.8	
768.47	6485.9	
768.65	7259.4	
768.83	4530.8	
769	5849.7	
769.18	5991.7	
769.36	6735.8	
769.54	5850.4	
769.72	4597	
769.89	7007.5	
770.07	7184.3	
770.25	4889.9	
770.43	6393.8	
770.6	7891.5	
770.78	8314.8	
770.96	5093.3	
771.14	5778	
771.31	6869.6	
771.49	6167.1	
771.67	4241.3	
771.85	4476.2	
772.02	5385.5	
772.2	6157.6	
772.38	5262.6	
772.55	4739	
772.73	6470.2	
772.91	6254.5	
773.09	5111	
773.26	5238.7	
773.44	6419	
773.62	6044.9	
773.8	4522.6	
773.97	4315.1	
774.15	6412.9	
774.33	6059.3	
774.5	4420.9	
774.68	4786.8	
774.86	6632.7	
775.04	6111.1	
775.21	4585.4	
775.39	4485.1	
775.57	6313.2	
775.74	6859.3	
775.92	4359.4	
776.1	4259.8	
776.27	6276.3	
776.45	7684	
776.63	4509.6	
776.81	4007.2	
776.98	5891.3	
777.16	7156.3	
777.34	4687.8	
777.51	4980.7	
777.69	5885.2	
777.87	5679	
778.04	4708.3	
778.22	5341.1	
778.4	5686.5	
778.57	6421.1	
778.75	3876.8	
778.93	4237.9	
779.1	5407.3	
779.28	5318.6	
779.46	3864.5	
779.64	4405.2	
779.81	6518.7	
779.99	7524.2	
780.17	5346.6	
780.34	5474.9	
780.52	5943.2	
780.69	6161.7	
780.87	4755.4	
781.05	4349.9	
781.22	5950.7	
781.4	6042.9	
781.58	4399	
781.75	3486.3	
781.93	6035.4	
782.11	5360.2	
782.28	5354.1	
782.46	4441.4	
782.64	5145.2	
782.81	6227.2	
782.99	4488.5	
783.17	4449.6	
783.34	6102.3	
783.52	5225.7	
783.69	4668.7	
783.87	5580.7	
784.05	5319.9	
784.22	5331.5	
784.4	5523.4	
784.58	4772.4	
784.75	6360.3	
784.93	5347.2	
785.1	4388.8	
785.28	5018.9	
785.46	6019.7	
785.63	5343.8	
785.81	4376.5	
785.99	4209.9	
786.16	5469.4	
786.34	5899.5	
786.51	4294.6	
786.69	4651.6	
786.87	5070.1	
787.04	5640.1	
787.22	4036.5	
787.39	5077.6	
787.57	5264	
787.75	6412.2	
787.92	5292	
788.1	5212.8	
788.27	5302.2	
788.45	5121.3	
788.63	4896	
788.8	3500	
788.98	5695.4	
789.15	4973.2	
789.33	3634.5	
789.5	4364.2	
789.68	6298.2	
789.86	6446.3	
790.03	4823	
790.21	4201.7	
790.38	6244.9	
790.56	5445.5	
790.73	4072	
790.91	4110.3	
791.09	5242.1	
791.26	6146.6	
791.44	4358.8	
791.61	3783.3	
791.79	5285.8	
791.96	5416.9	
792.14	3834.5	
792.32	3405.8	
792.49	5316.5	
792.67	5401.2	
792.84	3945.8	
793.02	3753.2	
793.19	5809.4	
793.37	6584.9	
793.54	3403.7	
793.72	3801	
793.89	6761	
794.07	5335.6	
794.25	4464.6	
794.42	3523.2	
794.6	6460.7	
794.77	6111.1	
794.95	4693.9	
795.12	4177.2	
795.3	5271.5	
795.47	5965.1	
795.65	4541	
795.82	4302.1	
796	5091.9	
796.17	7141.3	
796.35	4199	
796.52	5067.4	
796.7	5814.9	
796.87	5967.1	
797.05	5246.9	
797.22	5154.7	
797.4	5944.6	
797.57	7063.4	
797.75	4321.9	
797.92	4112.3	
798.1	6269.5	
798.27	5232.6	
798.45	3482.2	
798.62	3781.9	
798.8	5613.5	
798.97	6139.8	
799.15	4608.6	
799.32	4362.9	
799.5	4851.6	
799.67	5651.7	
799.85	4795	
800.02	3403.7	
800.2	5253.7	
800.37	5685.2	
800.55	4982	
800.72	4108.2	
800.9	6113.2	
801.07	6596.5	
801.25	5566.4	
801.42	4489.8	
801.6	6139.1	
801.77	5834.7	
801.95	4162.8	
802.12	3949.2	
802.29	5748.6	
802.47	5797.1	
802.64	4463.9	
802.82	3388.7	
802.99	5245.5	
803.17	6293.4	
803.34	4364.2	
803.52	3896.6	
803.69	7052.5	
803.87	4999.8	
804.04	4290.5	
804.21	4483.7	
804.39	6414.9	
804.56	5431.2	
804.74	3728.7	
804.91	4527.4	
805.09	5199.8	
805.26	5390.9	
805.44	3795.6	
805.61	4115.7	
805.78	5950.7	
805.96	6059.9	
806.13	4519.2	
806.31	4857.1	
806.48	4762.9	
806.66	5378	
806.83	4488.5	
807	4371	
807.18	5192.3	
807.35	5634.6	
807.53	4359.4	
807.7	3472.7	
807.87	6531	
808.05	5323.4	
808.22	4823.6	
808.4	3482.2	
808.57	5287.2	
808.74	4876.2	
808.92	3935.5	
809.09	5126.7	
809.27	5104.2	
809.44	5830.6	
809.61	3551.2	
809.79	3920.5	
809.96	6468.9	
810.14	6125.5	
810.31	3301.3	
810.48	4184	
810.66	5319.3	
810.83	6165.8	
811.01	3983.3	
811.18	4435.9	
811.35	6103.6	
811.53	4693.3	
811.7	4830.5	
811.87	4449.6	
812.05	5240.8	
812.22	5257.8	
812.39	3882.9	
812.57	3719.8	
812.74	5316.5	
812.92	7105.1	
813.09	4177.2	
813.26	4582	
813.44	6782.9	
813.61	5194.3	
813.78	3471.3	
813.96	4724.7	
814.13	5317.9	
814.3	4896.7	
814.48	5061.2	
814.65	4164.2	
814.82	6616.3	
815	5076.2	
815.17	4340.3	
815.34	5294.7	
815.52	5145.2	
815.69	5169.8	
815.87	4287.1	
816.04	4254.3	
816.21	5300.1	
816.38	4575.8	
816.56	4147.8	
816.73	3916.4	
816.9	6690.7	
817.08	6044.2	
817.25	3872	
817.42	4976.6	
817.6	4822.3	
817.77	5296	
817.94	4399	
818.12	3856.3	
818.29	4935.6	
818.46	7999.4	
818.64	4035.2	
818.81	3736.9	
818.98	4896.7	
819.16	7309.2	
819.33	4626.4	
819.5	4272.1	
819.67	5687.2	
819.85	6396.5	
820.02	4186.7	
820.19	4504.2	
820.37	5556.1	
820.54	5030.5	
820.71	4380.6	
820.88	5514.5	
821.06	5441.5	
821.23	5003.2	
821.4	4433.9	
821.58	4352.6	
821.75	6084.5	
821.92	5418.2	
822.09	3485	
822.27	3573	
822.44	5282.4	
822.61	5163.6	
822.79	3473.4	
822.96	6915.3	
823.13	5796.4	
823.3	5002.5	
823.48	4079.6	
823.65	3652.2	
823.82	6055.2	
823.99	4782.7	
824.17	5152	
824.34	3803.1	
824.51	6888.7	
824.68	5378	
824.86	3889.1	
825.03	4375.8	
825.2	5281	
825.37	6446.3	
825.55	3814.7	
825.72	4272.7	
825.89	7053.9	
826.06	6582.2	
826.24	4179.2	
826.41	4310.3	
826.58	6468.9	
826.75	5677	
826.92	3313.6	
827.1	3636.5	
827.27	8936.7	
827.44	7066.2	
827.61	3986.7	
827.79	4844.1	
827.96	4953.4	
828.13	5363.6	
828.3	4139.6	
828.47	3519.8	
828.65	5521.3	
828.82	5479.7	
828.99	5392.3	
829.16	4766.3	
829.34	5909.1	
829.51	5707	
829.68	4328	
829.85	4561.5	
830.02	6223.1	
830.2	5948.7	
830.37	3295.2	
830.54	5238.7	
830.71	6785.6	
830.88	5196.4	
831.05	3412.6	
831.23	3916.4	
831.4	6467.5	
831.57	7284.6	
831.74	3965.6	
831.91	3491.8	
832.09	5457.2	
832.26	5898.8	
832.43	4166.3	
832.6	4696.7	
832.77	5473.5	
832.94	6325.5	
833.12	3360.7	
833.29	4117.8	
833.46	5166.3	
833.63	7618.4	
833.8	4550.6	
833.97	4158.1	
834.15	5964.4	
834.32	5651	
834.49	4330.1	
834.66	4433.2	
834.83	6192.4	
835	4956.1	
835.17	3973.7	
835.35	4055	
835.52	5806.7	
835.69	5679.7	
835.86	4268	
836.03	3463.1	
836.2	5860.6	
836.37	5445.5	
836.55	4119.8	
836.72	3900.7	
836.89	5400.5	
837.06	6017.6	
837.23	4259.1	
837.4	4642.1	
837.57	6768.5	
837.75	7573.4	
837.92	3740.3	
838.09	4113.7	
838.26	5451.7	
838.43	6202.6	
838.6	4374.5	
838.77	3896.6	
838.94	7246.4	
839.11	6774	
839.29	4155.3	
839.46	3311.6	
839.63	5839.4	
839.8	5578.7	
839.97	4065.2	
840.14	4008.6	
840.31	5638.1	
840.48	5881.1	
840.65	3336.1	
840.82	3988.1	
841	5857.2	
841.17	5838.8	
841.34	3726.6	
841.51	3722.5	
841.68	5752.1	
841.85	5546.6	
842.02	3873.4	
842.19	3198.9	
842.36	5569.1	
842.53	5621	
842.7	3677.5	
842.87	4607.2	
843.05	7458	
843.22	5534.3	
843.39	3523.2	
843.56	3903.4	
843.73	5330.2	
843.9	5925.5	
844.07	6210.8	
844.24	5033.2	
844.41	8815.1	
844.58	5050.3	
844.75	3517	
844.92	3872.7	
845.09	5851	
845.26	5896.1	
845.43	3678.8	
845.6	3846.8	
845.77	5890.6	
845.94	5578.7	
846.12	4159.4	
846.29	4295.3	
846.46	6105	
846.63	5842.2	
846.8	3711.6	
846.97	4407.9	
847.14	6423.1	
847.31	5819.6	
847.48	4180.6	
847.65	4575.8	
847.82	6214.9	
847.99	6179.4	
848.16	4963.6	
848.33	4602.5	
848.5	5399.1	
848.67	6429.9	
848.84	3650.2	
849.01	3885	
849.18	5257.8	
849.35	4883.7	
849.52	4605.2	
849.69	3607.2	
849.86	6057.2	
850.03	6348.7	
850.2	3670.6	
850.37	4530.1	
850.54	6290.7	
850.71	5564.3	
850.88	4464.6	
851.05	3631.7	
851.22	5834.7	
851.39	6493.4	
851.56	3442	
851.73	4235.2	
851.9	5161.6	
852.07	6087.2	
852.24	4126	
852.41	3649.5	
852.58	5679	
852.75	5165	
852.92	4155.3	
853.09	3607.8	
853.26	5454.4	
853.43	6274.3	
853.6	3687.7	
853.77	3158.7	
853.94	6484.6	
854.11	5791.7	
854.28	5527.5	
854.44	4033.8	
854.61	6950.8	
854.78	6217.6	
854.95	3638.6	
855.12	4672.8	
855.29	4692.6	
855.46	6660	
855.63	3624.9	
855.8	5150	
855.97	5410.7	
856.14	6197.8	
856.31	5229.1	
856.48	3994.9	
856.65	5406	
856.82	5088.5	
856.99	3470.6	
857.16	3984.7	
857.33	7149.5	
857.49	5507	
857.66	3947.8	
857.83	4301.4	
858	5440.1	
858.17	5684.5	
858.34	3434.4	
858.51	3678.8	
858.68	6632	
858.85	6688.7	
859.02	4284.4	
859.19	4526.7	
859.36	5104.9	
859.52	5146.5	
859.69	3713.6	
859.86	4317.1	
860.03	5257.8	
860.2	6496.8	
860.37	3300	
860.54	3669.3	
860.71	6126.2	
860.88	6534.4	
861.05	4120.5	
861.21	4633.9	
861.38	6662	
861.55	5021.6	
861.72	3319.1	
861.89	4160.8	
862.06	6173.9	
862.23	6756.9	
862.4	3538.2	
862.56	3876.1	
862.73	6057.9	
862.9	5655.8	
863.07	4336.2	
863.24	3293.8	
863.41	5006.6	
863.58	5154.1	
863.75	3733.4	
863.91	4232.5	
864.08	6534.4	
864.25	6037.4	
864.42	4690.5	
864.59	5225.1	
864.76	6868.9	
864.93	5145.2	
865.09	3599	
865.26	3919.8	
865.43	6401.3	
865.6	6868.2	
865.77	3176.4	
865.94	3634.5	
866.1	6478.4	
866.27	6227.2	
866.44	5590.3	
866.61	3464.5	
866.78	5561.6	
866.95	6019	
867.11	3461.7	
867.28	3220.1	
867.45	6262.7	
867.62	5281	
867.79	4230.4	
867.96	3599	
868.12	5137.7	
868.29	6184.2	
868.46	3696.6	
868.63	4975.2	
868.8	6365.8	
868.97	6068.1	
869.13	3897.3	
869.3	3835.2	
869.47	5961	
869.64	6230.6	
869.81	3743.7	
869.97	3708.9	
870.14	5886.5	
870.31	6628.6	
870.48	3528.7	
870.65	4686.4	
870.81	5479.7	
870.98	5416.9	
871.15	4160.8	
871.32	3801	
871.48	5936.4	
871.65	6642.9	
871.82	3637.2	
871.99	4069.3	
872.16	7150.8	
872.32	6612.2	
872.49	3680.9	
872.66	3713	
872.83	6093.4	
872.99	5369.8	
873.16	4183.3	
873.33	3625.6	
873.5	5707.7	
873.67	5713.8	
873.83	3895.9	
874	4960.9	
874.17	5884.5	
874.34	7040.9	
874.5	4797.7	
874.67	4636.6	
874.84	6569.2	
875.01	5196.4	
875.17	5221.6	
875.34	3627	
875.51	5821.7	
875.68	6995.9	
875.84	4488.5	
876.01	5500.8	
876.18	6066.1	
876.34	5986.2	
876.51	3704.8	
876.68	3624.2	
876.85	5506.3	
877.01	6393.8	
877.18	5297.4	
877.35	3600.3	
877.52	5588.9	
877.68	5039.4	
877.85	3571.7	
878.02	3568.9	
878.18	5670.8	
878.35	5323.4	
878.52	2897.2	
878.69	4091.8	
878.85	6104.3	
879.02	6093.4	
879.19	5217.5	
879.35	3979.2	
879.52	6071.5	
879.69	6350.1	
879.86	3145	
880.02	4112.3	
880.19	5651.7	
880.36	6955.6	
880.52	4225	
880.69	4373.8	
880.86	6193.7	
881.02	6326.9	
881.19	3961.5	
881.36	3995.6	
881.52	6053.1	
881.69	5340.4	
881.86	3936.2	
882.02	3841.3	
882.19	6376	
882.36	7500.3	
882.52	3708.2	
882.69	5236	
882.86	5852.4	
883.02	5793	
883.19	4560.8	
883.36	4219.5	
883.52	6242.9	
883.69	7112.6	
883.86	3688.4	
884.02	3280.8	
884.19	6132.3	
884.36	5647.6	
884.52	4137.6	
884.69	3915	
884.86	5390.3	
885.02	6784.2	
885.19	4136.9	
885.36	4257	
885.52	5656.5	
885.69	5793	
885.86	5307	
886.02	4677.6	
886.19	6092.7	
886.35	5583.4	
886.52	4049.5	
886.69	5243.5	
886.85	5144.5	
887.02	6550.1	
887.19	6550.1	
887.35	6550.1	
887.52	6550.1	
887.68	6550.1	
887.85	6550.1	
888.02	6550.1	
888.18	6550.1	
888.35	6550.1	
888.51	6550.1	
888.68	6550.1	
888.85	6550.1	
889.01	6550.1	
889.18	6550.1	
889.35	6550.1	
889.51	6550.1	
889.68	6550.1	
889.84	6550.1	
890.01	6550.1	
890.17	6550.1	
890.34	6550.1	
890.51	6550.1	
890.67	6550.1	
890.84	6550.1	
891	6550.1	
891.17	6550.1	
891.34	6550.1	
891.5	6550.1	
891.67	6550.1	
891.83	6550.1	
892	6550.1	
892.16	6550.1	
892.33	6550.1	
892.5	6550.1	
892.66	6550.1	
892.83	6550.1	
892.99	6550.1	
893.16	6550.1	
893.32	6550.1	
893.49	6550.1	
893.65	6550.1	
893.82	6550.1	
893.99	6550.1	
894.15	6550.1	
894.32	6550.1	
894.48	6550.1	
894.65	6550.1	
894.81	6550.1	
894.98	6550.1	
895.14	6550.1	
895.31	6550.1	
895.47	6550.1	
895.64	6550.1	
895.81	6550.1	
895.97	6550.1	
896.14	6550.1	
896.3	6550.1	
896.47	6550.1	
896.63	6550.1	
896.8	6550.1	
896.96	6550.1	
897.13	6550.1	
897.29	6550.1	
897.46	6550.1	
897.62	6550.1	
897.79	6550.1	
897.95	6550.1	
898.12	6550.1	
898.28	6550.1	
898.45	6550.1	
898.61	6550.1	
898.78	6550.1	
898.94	6550.1	
899.11	6550.1	
899.27	6550.1	
899.44	6550.1	
899.6	6550.1	
899.77	6550.1	
899.93	6550.1	
900.1	6550.1	
900.26	6550.1	
900.43	6550.1	
900.59	6550.1	
900.76	6550.1	
900.92	6550.1	
901.09	6550.1	
901.25	6550.1	
901.42	6550.1	
901.58	6550.1	
901.75	6550.1	
901.91	6550.1	
902.07	6550.1	
902.24	6550.1	
902.4	6550.1	
902.57	6550.1	
902.73	6550.1	
902.9	6550.1	
903.06	6550.1	
903.23	6550.1	
903.39	6550.1	
903.56	6550.1	
903.72	6550.1	
903.88	6550.1	
904.05	6550.1	
904.21	6550.1	
904.38	6550.1	
904.54	6550.1	
904.71	6550.1	
904.87	6550.1	
905.03	6550.1	
905.2	6550.1	
905.36	6550.1	
905.53	6550.1	
905.69	6550.1	
905.86	6550.1	
906.02	6550.1	
906.18	6550.1	
906.35	6550.1	
906.51	6550.1	
906.68	6550.1	
906.84	6550.1	
907.01	6550.1	
907.17	6550.1	
907.33	6550.1	
907.5	6550.1	
907.66	6550.1	
907.83	6550.1	
907.99	6550.1	
908.15	6550.1	
908.32	6550.1	
908.48	6550.1	
908.65	6550.1	
908.81	6550.1	
908.97	6550.1	
909.14	6550.1	
909.3	6550.1	
909.47	6550.1	
909.63	6550.1	
909.79	6550.1	
909.96	6550.1	
910.12	6550.1	
910.28	6550.1	
910.45	6550.1	
910.61	6550.1	
910.78	6550.1	
910.94	6550.1	
911.1	6550.1	
911.27	6550.1	
911.43	6550.1	
911.59	6550.1	
911.76	6550.1	
911.92	6550.1	
912.08	6550.1	
912.25	6550.1	
912.41	6550.1	
912.57	6550.1	
912.74	6550.1	
912.9	6550.1	
913.07	6550.1	
913.23	6550.1	
913.39	6550.1	
913.56	6550.1	
913.72	6550.1	
913.88	6550.1	
914.05	6550.1	
914.21	6550.1	
914.37	6550.1	
914.54	6550.1	
914.7	6550.1	
914.86	6550.1	
915.03	6550.1	
915.19	6550.1	
