Wavelength	Intensities	
nm	a.u.	
179.22	1753.7	
179.44	1753.1	
179.65	1754.4	
179.86	1751.7	
180.08	1721	
180.29	4114.4	
180.51	3058.3	
180.72	5090.6	
180.94	5754.1	
181.15	2848	
181.37	2816	
181.58	4885.8	
181.79	5154.1	
182.01	2886.3	
182.22	3119.7	
182.44	5115.8	
182.65	4400.4	
182.87	3817.4	
183.08	3382.6	
183.29	5416.9	
183.51	4519.2	
183.72	3126.6	
183.94	4281.6	
184.15	4857.1	
184.37	4799.8	
184.58	2805	
184.79	3607.2	
185.01	4538.3	
185.22	5177.9	
185.44	3831.7	
185.65	3245.3	
185.86	4792.9	
186.08	4418.2	
186.29	2670.6	
186.51	2923.1	
186.72	4567.7	
186.94	5194.3	
187.15	3284.3	
187.36	3381.2	
187.58	6621.1	
187.79	4966.3	
188.01	3455.6	
188.22	5265.3	
188.43	5744.6	
188.65	5139	
188.86	2931.3	
189.08	3339.6	
189.29	4659.1	
189.5	4651.6	
189.72	3076	
189.93	3179.1	
190.15	5234.6	
190.36	6126.2	
190.57	3448.1	
190.79	3293.1	
191	5289.9	
191.22	5275.6	
191.43	3446.7	
191.64	2921.1	
191.86	5459.9	
192.07	5237.3	
192.29	3013.2	
192.5	3127.9	
192.71	5261.2	
192.93	4657.8	
193.14	3157.3	
193.35	3230.3	
193.57	4599.1	
193.78	5319.9	
194	2575.7	
194.21	3061	
194.42	4471.4	
194.64	4854.4	
194.85	3304.1	
195.07	3881.6	
195.28	4846.2	
195.49	4334.9	
195.71	4076.1	
195.92	2917	
196.13	5027.1	
196.35	5042.1	
196.56	4386.1	
196.78	3395.5	
196.99	6152.1	
197.2	5752.7	
197.42	3796.9	
197.63	3391.4	
197.84	4396.3	
198.06	5012.7	
198.27	3151.1	
198.48	4071.4	
198.7	4645.5	
198.91	4801.8	
199.13	3419.4	
199.34	3379.8	
199.55	5221	
199.77	4236.6	
199.98	3031	
200.19	3451.5	
200.41	4777.2	
200.62	4507.6	
200.83	3493.2	
201.05	3802.4	
201.26	4831.8	
201.47	4586.1	
201.69	3056.3	
201.9	2994.1	
202.11	4835.3	
202.33	5537.7	
202.54	3260.4	
202.76	3602.4	
202.97	4872.1	
203.18	4981.3	
203.4	3543	
203.61	3502	
203.82	4949.3	
204.04	4599.7	
204.25	3496.6	
204.46	3345	
204.68	4827.1	
204.89	4974.5	
205.1	3332.7	
205.32	2901.3	
205.53	5120.6	
205.74	5279	
205.96	2579.8	
206.17	3481.5	
206.38	5071.5	
206.6	5207.3	
206.81	3874.8	
207.02	3179.1	
207.24	5021.6	
207.45	5322	
207.66	3263.1	
207.88	2826.2	
208.09	5036	
208.3	4805.2	
208.52	3041.2	
208.73	3298.6	
208.94	4807.9	
209.15	5448.3	
209.37	3235.8	
209.58	3683.6	
209.79	5263.3	
210.01	4669.4	
210.22	2673.3	
210.43	2821.4	
210.65	4853.7	
210.86	5190.2	
211.07	3227.6	
211.29	3021.4	
211.5	5061.2	
211.71	4737	
211.93	3026.2	
212.14	3059	
212.35	4764.3	
212.56	4954.7	
212.78	3377.8	
212.99	2824.8	
213.2	5629.2	
213.42	4692.6	
213.63	3129.3	
213.84	3349.8	
214.06	4369	
214.27	4435.2	
214.48	3240.6	
214.69	3444.7	
214.91	5382.1	
215.12	5424.4	
215.33	3469.9	
215.55	3749.1	
215.76	5838.8	
215.97	5106.3	
216.18	3328.6	
216.4	3344.3	
216.61	4547.9	
216.82	5124	
217.04	3000.3	
217.25	3157.3	
217.46	5319.9	
217.67	5145.2	
217.89	2756.6	
218.1	2841.9	
218.31	4878.3	
218.53	5025	
218.74	3183.9	
218.95	3058.3	
219.16	4797.7	
219.38	5579.3	
219.59	3122.5	
219.8	3595.6	
220.01	6056.5	
220.23	4882.4	
220.44	3902.7	
220.65	2969.6	
220.87	4921.3	
221.08	5313.8	
221.29	2880.1	
221.5	3678.2	
221.72	6359.6	
221.93	4599.7	
222.14	3449.5	
222.35	4007.2	
222.57	4853.7	
222.78	5167.7	
222.99	3284.9	
223.2	3480.9	
223.42	5097.4	
223.63	5144.5	
223.84	2596.8	
224.05	2622.1	
224.27	5938.4	
224.48	5530.9	
224.69	3987.4	
224.9	3375.7	
225.12	5015.5	
225.33	4814.1	
225.54	2794.1	
225.75	3063.8	
225.97	4522.6	
226.18	4786.1	
226.39	3277.4	
226.6	3078.8	
226.82	4655	
227.03	4541	
227.24	3396.9	
227.45	2880.1	
227.67	5190.9	
227.88	5481	
228.09	3795.6	
228.3	3752.6	
228.52	5100.1	
228.73	4736.3	
228.94	3135.4	
229.15	2893.8	
229.36	4799.8	
229.58	4724	
229.79	3265.8	
230	3659	
230.21	5679.7	
230.43	4855.7	
230.64	3397.6	
230.85	3490.4	
231.06	5185.5	
231.28	5211.4	
231.49	2836.4	
231.7	3345.7	
231.91	5158.8	
232.12	4875.5	
232.34	2973	
232.55	3295.2	
232.76	5311.7	
232.97	4959.5	
233.18	3037.1	
233.4	3401.7	
233.61	5024.3	
233.82	4623.6	
234.03	3181.9	
234.25	3172.3	
234.46	6490	
234.67	4848.2	
234.88	3486.3	
235.09	3075.4	
235.31	5051.7	
235.52	4741.7	
235.73	3386.7	
235.94	2911.5	
236.15	4614.1	
236.37	5649.7	
236.58	2988.7	
236.79	3273.3	
237	5037.3	
237.21	4435.9	
237.43	3476.8	
237.64	2819.4	
237.85	8151.6	
238.06	4531.5	
238.27	3480.2	
238.48	2903.3	
238.7	5117.9	
238.91	4753.3	
239.12	3277.4	
239.33	3396.9	
239.54	4566.3	
239.76	4745.1	
239.97	3241.3	
240.18	3305.4	
240.39	5838.1	
240.6	5011.4	
240.82	3401.7	
241.03	2837.8	
241.24	4792.9	
241.45	5429.2	
241.66	3029.6	
241.87	3562.8	
242.09	5449	
242.3	5638.1	
242.51	3549.8	
242.72	3290.4	
242.93	5175.2	
243.14	4775.9	
243.36	3745.1	
243.57	4037.9	
243.78	5527.5	
243.99	5126.7	
244.2	3275.4	
244.41	3007.1	
244.63	4475.5	
244.84	5074.9	
245.05	3436.5	
245.26	3229.6	
245.47	5057.8	
245.68	5215.5	
245.9	4258.4	
246.11	3472	
246.32	4693.3	
246.53	5052.3	
246.74	5152.7	
246.95	2818.7	
247.16	4489.1	
247.38	4865.3	
247.59	2809.8	
247.8	3280.2	
248.01	4539.7	
248.22	4790.9	
248.43	3072.6	
248.64	3183.2	
248.86	4427	
249.07	4646.2	
249.28	2948.4	
249.49	3380.5	
249.7	5311.1	
249.91	5324.7	
250.12	2803	
250.34	2824.8	
250.55	4959.5	
250.76	4855.1	
250.97	3363.4	
251.18	3420.1	
251.39	5343.2	
251.6	4975.9	
251.81	3415.3	
252.03	3439.2	
252.24	4627.7	
252.45	5192.3	
252.66	2919.7	
252.87	3616.7	
253.08	4877.6	
253.29	6100.9	
253.5	2914.3	
253.72	3912.3	
253.93	4734.9	
254.14	5637.4	
254.35	3088.3	
254.56	3239.2	
254.77	4962.2	
254.98	4567.7	
255.19	3089	
255.41	3914.4	
255.62	4933.6	
255.83	5316.5	
256.04	3501.3	
256.25	3420.1	
256.46	5834	
256.67	4602.5	
256.88	3351.8	
257.09	3749.8	
257.31	4514.4	
257.52	4568.3	
257.73	4216.8	
257.94	3130.7	
258.15	4753.3	
258.36	4816.8	
258.57	3840.6	
258.78	2513.5	
258.99	5253	
259.2	4704.2	
259.41	3133.4	
259.63	3218.7	
259.84	5510.4	
260.05	5827.2	
260.26	3982.6	
260.47	3089.7	
260.68	5268.7	
260.89	4738.3	
261.1	3728	
261.31	3074	
261.52	5336.3	
261.73	5548.6	
261.95	3996.3	
262.16	3514.3	
262.37	5423	
262.58	5421.7	
262.79	3951.9	
263	3188.7	
263.21	4881.7	
263.42	4727.4	
263.63	3439.9	
263.84	3185.3	
264.05	5231.9	
264.26	5552	
264.47	3773.7	
264.69	3499.3	
264.9	5426.4	
265.11	4972.5	
265.32	3046.7	
265.53	3116.3	
265.74	4898.7	
265.95	4319.2	
266.16	3323.9	
266.37	3608.5	
266.58	4945.2	
266.79	4681	
267	3159.3	
267.21	2899.2	
267.42	4463.2	
267.63	4816.1	
267.84	3289	
268.06	2831	
268.27	5195	
268.48	5312.4	
268.69	3223.5	
268.9	3703.4	
269.11	5392.3	
269.32	4360.1	
269.53	3278.1	
269.74	2999.6	
269.95	4993.6	
270.16	4347.2	
270.37	3301.3	
270.58	3705.5	
270.79	4731.5	
271	5235.3	
271.21	3455.6	
271.42	3300.6	
271.63	5006.6	
271.84	4464.6	
272.05	2702.6	
272.26	3000.3	
272.47	4848.2	
272.68	4927.4	
272.89	3144.3	
273.11	3579.2	
273.32	4668	
273.53	5541.1	
273.74	3476.8	
273.95	3465.8	
274.16	5248.3	
274.37	4827.7	
274.58	3559.4	
274.79	2941.6	
275	4988.9	
275.21	5339.1	
275.42	4280.3	
275.63	3634.5	
275.84	5069.4	
276.05	6169.2	
276.26	3421.5	
276.47	3205.1	
276.68	4784.7	
276.89	5646.2	
277.1	3597.6	
277.31	2953.9	
277.52	5031.9	
277.73	5221.6	
277.94	2875.3	
278.15	3180.5	
278.36	4985.4	
278.57	4647.5	
278.78	3130	
278.99	3502	
279.2	4610	
279.41	4473.4	
279.62	4037.2	
279.83	2951.1	
280.04	5747.3	
280.25	4460.5	
280.46	4079.6	
280.67	3312.2	
280.88	4577.2	
281.09	5384.1	
281.3	3420.1	
281.51	4253.6	
281.72	4610.7	
281.93	5236.7	
282.14	3095.8	
282.35	3386.7	
282.56	5293.3	
282.77	5190.2	
282.98	3186	
283.19	3806.5	
283.4	6221	
283.61	4769.7	
283.82	2945	
284.03	4001.7	
284.24	5005.2	
284.45	5380	
284.66	3999	
284.87	3826.3	
285.08	5287.9	
285.29	5402.5	
285.5	2882.9	
285.71	3220.8	
285.92	5283.8	
286.12	5752.7	
286.33	3963.5	
286.54	3227.6	
286.75	5203.2	
286.96	4760.8	
287.17	2962.7	
287.38	3876.1	
287.59	4601.8	
287.8	4605.2	
288.01	3224.9	
288.22	3584.6	
288.43	5185.5	
288.64	4412	
288.85	3822.9	
289.06	3638.6	
289.27	5192.3	
289.48	5520	
289.69	4024.9	
289.9	3609.2	
290.11	5399.8	
290.32	4603.8	
290.53	3780.6	
290.74	3490.4	
290.94	5150.6	
291.15	5197.1	
291.36	3098.6	
291.57	3611.9	
291.78	4743.8	
291.99	4358.8	
292.2	3039.9	
292.41	3530	
292.62	5243.5	
292.83	5098.8	
293.04	4268	
293.25	3033	
293.46	4723.3	
293.67	5286.5	
293.88	3068.5	
294.09	2966.8	
294.29	4495.3	
294.5	4917.9	
294.71	3343	
294.92	3140.2	
295.13	4719.2	
295.34	5687.2	
295.55	2816	
295.76	2802.3	
295.97	5180	
296.18	5666	
296.39	2929.3	
296.6	3102.7	
296.81	4868	
297.01	5189.6	
297.22	3235.1	
297.43	3117.7	
297.64	4682.3	
297.85	4534.2	
298.06	2633	
298.27	2794.8	
298.48	4828.4	
298.69	4593.6	
298.9	3348.4	
299.11	3048.1	
299.31	4439.3	
299.52	4502.8	
299.73	3553.2	
299.94	3472	
300.15	4869.4	
300.36	4583.4	
300.57	3517.7	
300.78	3476.1	
300.99	4709.6	
301.2	4894.6	
301.4	3126.6	
301.61	3309.5	
301.82	5180.7	
302.03	5147.2	
302.24	3728.7	
302.45	2922.5	
302.66	5090.6	
302.87	5337	
303.08	3107.5	
303.29	4140.3	
303.49	4696.7	
303.7	4831.8	
303.91	2789.3	
304.12	3951.9	
304.33	4410.6	
304.54	4956.8	
304.75	3102	
304.96	3033	
305.16	5153.4	
305.37	5651	
305.58	2774.3	
305.79	2857.6	
306	5090.6	
306.21	4374.5	
306.42	3101.3	
306.63	4584.7	
306.83	4754	
307.04	5191.6	
307.25	3418.1	
307.46	3315.7	
307.67	4260.5	
307.88	5143.8	
308.09	3128.6	
308.29	3155.2	
308.5	4891.2	
308.71	5316.5	
308.92	3220.1	
309.13	3038.5	
309.34	4780	
309.55	4780.6	
309.75	3838.6	
309.96	3496.6	
310.17	5159.5	
310.38	4592.2	
310.59	3627	
310.8	2936.8	
311.01	5043.5	
311.21	4762.2	
311.42	2987.3	
311.63	3060.3	
311.84	4673.5	
312.05	4930.1	
312.26	3452.9	
312.46	3676.1	
312.67	4672.1	
312.88	4491.2	
313.09	2983.9	
313.3	2932.7	
313.51	5435.3	
313.71	5700.9	
313.92	3040.6	
314.13	3180.5	
314.34	4998.4	
314.55	4809.3	
314.76	3691.1	
314.96	3328.6	
315.17	4965	
315.38	5165	
315.59	3037.8	
315.8	2891	
316.01	5449	
316.21	5554.1	
316.42	2969.6	
316.63	3230.3	
316.84	4739	
317.05	5325.4	
317.26	3557.3	
317.46	3221.5	
317.67	4797.7	
317.88	5180	
318.09	3712.3	
318.3	2809.1	
318.5	4653	
318.71	5027.8	
318.92	4754	
319.13	3472.7	
319.34	5179.3	
319.54	5338.4	
319.75	2828.9	
319.96	2719	
320.17	5105.6	
320.38	5246.2	
320.58	2787.3	
320.79	3251.5	
321	5319.9	
321.21	5400.5	
321.42	3341.6	
321.62	2754.5	
321.83	4539.7	
322.04	4837.3	
322.25	3227.6	
322.46	3004.4	
322.66	4951.3	
322.87	5118.6	
323.08	3628.3	
323.29	2926.5	
323.5	5670.8	
323.7	4511.7	
323.91	4014	
324.12	3642.7	
324.33	4956.8	
324.53	5102.9	
324.74	3532.1	
324.95	3649.5	
325.16	4442	
325.37	4695.3	
325.57	3005.1	
325.78	3030.3	
325.99	4941.1	
326.2	4463.2	
326.4	4159.4	
326.61	2817.3	
326.82	4818.2	
327.03	4924.7	
327.24	4148.5	
327.44	3913.7	
327.65	5045.5	
327.86	4205.8	
328.07	3496.6	
328.27	2884.9	
328.48	5384.1	
328.69	4488.5	
328.9	4195.6	
329.1	3179.8	
329.31	4750.6	
329.52	5470.8	
329.73	3016	
329.93	3338.9	
330.14	4852.3	
330.35	4956.1	
330.56	4715.8	
330.76	3636.5	
330.97	4732.9	
331.18	4902.8	
331.39	3325.2	
331.59	2757.9	
331.8	5278.3	
332.01	5445.5	
332.22	3173	
332.42	3511.6	
332.63	4902.2	
332.84	4567	
333.05	3318.4	
333.25	3054.2	
333.46	4633.9	
333.67	4868.7	
333.88	3169.6	
334.08	3371	
334.29	6229.2	
334.5	5343.2	
334.7	2922.5	
334.91	4150.6	
335.12	4465.3	
335.33	5160.2	
335.53	3337.5	
335.74	4735.6	
335.95	4704.9	
336.16	4484.4	
336.36	3371.6	
336.57	3743.7	
336.78	4446.8	
336.98	5273.5	
337.19	4033.8	
337.4	3174.4	
337.61	5760.3	
337.81	4494.6	
338.02	3072	
338.23	3863.2	
338.43	5465.3	
338.64	4567	
338.85	3007.1	
339.05	3878.9	
339.26	5517.2	
339.47	4411.3	
339.68	3027.6	
339.88	4304.8	
340.09	5103.5	
340.3	5178.6	
340.5	3504.8	
340.71	2750.4	
340.92	4484.4	
341.13	5409.4	
341.33	2913.6	
341.54	3512.9	
341.75	5009.3	
341.95	4670.1	
342.16	3339.6	
342.37	3608.5	
342.57	4504.8	
342.78	4819.6	
342.99	3644	
343.19	2775	
343.4	5143.1	
343.61	5111.7	
343.81	3249.4	
344.02	2949.8	
344.23	5168.4	
344.43	5451	
344.64	3712.3	
344.85	3628.3	
345.06	5126.1	
345.26	5259.2	
345.47	3483.6	
345.68	3965.6	
345.88	4318.5	
346.09	5175.9	
346.3	3541.6	
346.5	2661.7	
346.71	4801.1	
346.92	4652.3	
347.12	2844.6	
347.33	3401.7	
347.54	5224.4	
347.74	5599.1	
347.95	3390.8	
348.16	2642.6	
348.36	4705.5	
348.57	4549.2	
348.78	3454.2	
348.98	3657.7	
349.19	4801.8	
349.39	4396.3	
349.6	2814.6	
349.81	3065.1	
350.01	5059.2	
350.22	4556	
350.43	3334.8	
350.63	3875.4	
350.84	4812.7	
351.05	4626.4	
351.25	3052.8	
351.46	2809.1	
351.67	5231.2	
351.87	4560.8	
352.08	3233.7	
352.29	3628.3	
352.49	5139.7	
352.7	5221.6	
352.9	2973	
353.11	3624.9	
353.32	5616.9	
353.52	4656.4	
353.73	2952.5	
353.94	3666.5	
354.14	5079	
354.35	4879.6	
354.55	2992.8	
354.76	3301.3	
354.97	5046.9	
355.17	4832.5	
355.38	2913.6	
355.59	3781.9	
355.79	4567	
356	4798.4	
356.2	3250.1	
356.41	2947.7	
356.62	4414.7	
356.82	4730.8	
357.03	3484.3	
357.24	3153.2	
357.44	4572.4	
357.65	4696	
357.85	4168.3	
358.06	3358	
358.27	4364.2	
358.47	4526.7	
358.68	2895.1	
358.88	3534.1	
359.09	4999.1	
359.3	5238.7	
359.5	3995.6	
359.71	3626.3	
359.91	5660.6	
360.12	5074.9	
360.33	3471.3	
360.53	3851.5	
360.74	4590.9	
360.94	4612	
361.15	3654.3	
361.36	3108.1	
361.56	5233.2	
361.77	4766.3	
361.97	4012.7	
362.18	3188.7	
362.38	5232.6	
362.59	4411.3	
362.8	3010.5	
363	2940.2	
363.21	4300.7	
363.41	4832.5	
363.62	3398.9	
363.83	4164.9	
364.03	4993.6	
364.24	5614.8	
364.44	4317.8	
364.65	4233.2	
364.85	4730.8	
365.06	4455	
365.27	3120.4	
365.47	3198.9	
365.68	5488.6	
365.88	4728.1	
366.09	3470.6	
366.29	3177.1	
366.5	4845.5	
366.71	5257.1	
366.91	4177.9	
367.12	3612.6	
367.32	5730.9	
367.53	5136.3	
367.73	3594.9	
367.94	4271.4	
368.14	5094	
368.35	5752.1	
368.56	3448.8	
368.76	3346.4	
368.97	5200.5	
369.17	6409.5	
369.38	3137.5	
369.58	3363.4	
369.79	4397	
369.99	5507.7	
370.2	4193.6	
370.4	3476.8	
370.61	4960.2	
370.82	5859.2	
371.02	3360	
371.23	2865.1	
371.43	4371.7	
371.64	5415.5	
371.84	3433.1	
372.05	4302.1	
372.25	6372.6	
372.46	5134.3	
372.66	3380.5	
372.87	3346.4	
373.07	5199.8	
373.28	6472.3	
373.48	4184	
373.69	3926	
373.9	4814.8	
374.1	4803.2	
374.31	4072	
374.51	3713	
374.72	5453.7	
374.92	4562.9	
375.13	4175.8	
375.33	3579.8	
375.54	5054.4	
375.74	4746.5	
375.95	3659	
376.15	4601.1	
376.36	5131.5	
376.56	4977.2	
376.77	3722.5	
376.97	3994.9	
377.18	5954.8	
377.38	5242.1	
377.59	4236.6	
377.79	3331.4	
378	4970.4	
378.2	5341.8	
378.41	3385.3	
378.61	3291.8	
378.82	5382.7	
379.02	4773.1	
379.23	3437.9	
379.43	4336.2	
379.64	5476.3	
379.84	5150	
380.05	3364.1	
380.25	3284.9	
380.46	5260.5	
380.66	4937	
380.87	4379.9	
381.07	4616.8	
381.28	5672.2	
381.48	5276.9	
381.69	3358.7	
381.89	3418.7	
382.1	4451.6	
382.3	5352	
382.51	4216.1	
382.71	4916.5	
382.91	5208	
383.12	5575.3	
383.32	3565.5	
383.53	3772.4	
383.73	5106.3	
383.94	4961.5	
384.14	3827	
384.35	3098.6	
384.55	4827.7	
384.76	5195	
384.96	3635.1	
385.17	3858.4	
385.37	5210	
385.58	4642.7	
385.78	3923.2	
385.98	3039.2	
386.19	4852.3	
386.39	5206.6	
386.6	3501.3	
386.8	3622.2	
387.01	5209.3	
387.21	5214.1	
387.42	3907.5	
387.62	4334.9	
387.83	4692.6	
388.03	5089.9	
388.23	3690.4	
388.44	4206.5	
388.64	4480.3	
388.85	4572.4	
389.05	3842.7	
389.26	4316.4	
389.46	6012.2	
389.67	5503.6	
389.87	3869.3	
390.07	3938.2	
390.28	4893.3	
390.48	4574.5	
390.69	3284.9	
390.89	3519.8	
391.1	4769.7	
391.3	5407.3	
391.5	4512.4	
391.71	4943.1	
391.91	5228.5	
392.12	5941.8	
392.32	4488.5	
392.53	3892.5	
392.73	4778.6	
392.93	4928.1	
393.14	3651.5	
393.34	4524.6	
393.55	5253.7	
393.75	4896	
393.95	3654.3	
394.16	3670.6	
394.36	4716.5	
394.57	5243.5	
394.77	3265.1	
394.98	3567.6	
395.18	4726	
395.38	4801.1	
395.59	4249.5	
395.79	3444.7	
396	4841.4	
396.2	5175.9	
396.4	4072.7	
396.61	4020.8	
396.81	5266	
397.02	4709.6	
397.22	4142.4	
397.42	4232.5	
397.63	5303.6	
397.83	4732.9	
398.04	3406.5	
398.24	3775.1	
398.44	5165.7	
398.65	4431.8	
398.85	3278.8	
399.05	3336.8	
399.26	4739.7	
399.46	5937.7	
399.67	3624.2	
399.87	3431.7	
400.07	4952.7	
400.28	5178.6	
400.48	3531.4	
400.69	4323.3	
400.89	5294	
401.09	5700.9	
401.3	3433.1	
401.5	4250.2	
401.7	5852.4	
401.91	6111.1	
402.11	3737.5	
402.32	3904.1	
402.52	5395.7	
402.72	5377.3	
402.93	3986.7	
403.13	3203.7	
403.33	6008.1	
403.54	4967.7	
403.74	3800.3	
403.94	4477.5	
404.15	5108.3	
404.35	5974.6	
404.56	3630.4	
404.76	4967	
404.96	5344.5	
405.17	5189.6	
405.37	4422.2	
405.57	3989.4	
405.78	5388.9	
405.98	5038	
406.18	3592.8	
406.39	4240	
406.59	5434.6	
406.79	5033.9	
407	3463.1	
407.2	3544.4	
407.4	5484.5	
407.61	5541.1	
407.81	3560.7	
408.01	4930.8	
408.22	4534.2	
408.42	5937.7	
408.62	4304.8	
408.83	3878.2	
409.03	4966.3	
409.23	4939.7	
409.44	3949.8	
409.64	4082.3	
409.84	5675.6	
410.05	5589.6	
410.25	4021.5	
410.45	3891.8	
410.66	5197.7	
410.86	7150.8	
411.06	4169	
411.27	4049.5	
411.47	6811.5	
411.67	5356.8	
411.88	4231.1	
412.08	4315.1	
412.28	5750	
412.49	6145.3	
412.69	4037.2	
412.89	4080.2	
413.09	6027.2	
413.3	5948.7	
413.5	4122.6	
413.7	3818.1	
413.91	5370.5	
414.11	6015.6	
414.31	3934.8	
414.52	4291.9	
414.72	5767.1	
414.92	5696.8	
415.12	3986	
415.33	4377.2	
415.53	5993	
415.73	6107	
415.94	4624.3	
416.14	4145.1	
416.34	5245.5	
416.55	4997.7	
416.75	5113.1	
416.95	4649.6	
417.15	5954.8	
417.36	6496.8	
417.56	5217.5	
417.76	4474.8	
417.97	6237.4	
418.17	5903.6	
418.37	4248.2	
418.57	4206.5	
418.78	5862.7	
418.98	5602.6	
419.18	4894	
419.38	4888.5	
419.59	5519.3	
419.79	5341.8	
419.99	4177.9	
420.2	4380.6	
420.4	6010.1	
420.6	6086.6	
420.8	4126	
421.01	3962.1	
421.21	5864	
421.41	5941.2	
421.61	4315.8	
421.82	4122.6	
422.02	5525.4	
422.22	6148.7	
422.42	4720.6	
422.63	4481	
422.83	5535	
423.03	6487.3	
423.23	4476.2	
423.44	3755.3	
423.64	5530.2	
423.84	5383.4	
424.04	4142.4	
424.25	3825.6	
424.45	6314.6	
424.65	6193.7	
424.85	3650.8	
425.06	4098	
425.26	6348	
425.46	5451.7	
425.66	4448.2	
425.87	4211.3	
426.07	6061.3	
426.27	5988.9	
426.47	4347.2	
426.67	3860.4	
426.88	6449.7	
427.08	5900.9	
427.28	4604.5	
427.48	3769.6	
427.69	5168.4	
427.89	5598.5	
428.09	4442	
428.29	3837.9	
428.5	6100.2	
428.7	5731.6	
428.9	3720.5	
429.1	4186	
429.3	5653.8	
429.51	5953.4	
429.71	4020.2	
429.91	4587.4	
430.11	5910.4	
430.31	6290.7	
430.52	4231.1	
430.72	4263.2	
430.92	6323.4	
431.12	5952.1	
431.32	3906.2	
431.53	4257.7	
431.73	5089.2	
431.93	6406.7	
432.13	3913	
432.33	3783.3	
432.54	5474.9	
432.74	5664	
432.94	3695.2	
433.14	4542.4	
433.34	5942.5	
433.55	5461.9	
433.75	4441.4	
433.95	5758.2	
434.15	5769.1	
434.35	5392.3	
434.56	3887	
434.76	3552.5	
434.96	5689.3	
435.16	5823.1	
435.36	3775.8	
435.56	4609.3	
435.77	5350	
435.97	5464.7	
436.17	5096	
436.37	4536.3	
436.57	5334.3	
436.78	5277.6	
436.98	4500.1	
437.18	5005.2	
437.38	5831.9	
437.58	5513.1	
437.78	5031.9	
437.99	4091.2	
438.19	5930.2	
438.39	6551.5	
438.59	4043.4	
438.79	3736.2	
438.99	6402	
439.2	5421	
439.4	3765.5	
439.6	3719.1	
439.8	5626.5	
440	6475	
440.2	4450.9	
440.4	4501.4	
440.61	6025.8	
440.81	6361.7	
441.01	3758	
441.21	4547.2	
441.41	6260	
441.61	5977.3	
441.81	4683.7	
442.02	5468.1	
442.22	6682.5	
442.42	5993	
442.62	3891.1	
442.82	3947.8	
443.02	6287.3	
443.22	5629.2	
443.43	4233.8	
443.63	3815.4	
443.83	5483.1	
444.03	5462.6	
444.23	4773.8	
444.43	4418.8	
444.63	5718.6	
444.83	6673.6	
445.04	3964.2	
445.24	4909.7	
445.44	6029.9	
445.64	6029.9	
445.84	4554	
446.04	4567	
446.24	5492	
446.44	6307.7	
446.65	3865.2	
446.85	4199.7	
447.05	5851.7	
447.25	6267.5	
447.45	4252.9	
447.65	3758	
447.85	5873.6	
448.05	5474.2	
448.25	4597.7	
448.46	4420.9	
448.66	5807.4	
448.86	5486.5	
449.06	3741.6	
449.26	4564.2	
449.46	6018.3	
449.66	5258.5	
449.86	4231.1	
450.06	4195.6	
450.26	5406.6	
450.47	5853.8	
450.67	4378.6	
450.87	4663.9	
451.07	5984.8	
451.27	5737.7	
451.47	3867.9	
451.67	4306.9	
451.87	5476.3	
452.07	6399.9	
452.27	4043.4	
452.47	4073.4	
452.67	5766.4	
452.88	6098.2	
453.08	3599.6	
453.28	5007.3	
453.48	6706.4	
453.68	5778	
453.88	3878.2	
454.08	4132.8	
454.28	6014.2	
454.48	5694.7	
454.68	4566.3	
454.88	4879.6	
455.08	6212.2	
455.28	5783.5	
455.48	3893.9	
455.68	4334.9	
455.89	6496.8	
456.09	6138.4	
456.29	4038.6	
456.49	4150.6	
456.69	6258.6	
456.89	5705.6	
457.09	4468	
457.29	4795	
457.49	5904.3	
457.69	5925.5	
457.89	4298.7	
458.09	3873.4	
458.29	5743.9	
458.49	6333.7	
458.69	4609.3	
458.89	4124.6	
459.09	6445.6	
459.29	6509.8	
459.49	4310.3	
459.69	4823	
459.9	6122.7	
460.1	5720	
460.3	4203.1	
460.5	4007.9	
460.7	6089.3	
460.9	5806	
461.1	3761.4	
461.3	4670.1	
461.5	6580.1	
461.7	6235.4	
461.9	4007.2	
462.1	4385.4	
462.3	5853.8	
462.5	6219.7	
462.7	4014.7	
462.9	4145.1	
463.1	7062.1	
463.3	6737.1	
463.5	4321.9	
463.7	4952	
463.9	5952.1	
464.1	6186.2	
464.3	4298.7	
464.5	4463.9	
464.7	6387.6	
464.9	6032.6	
465.1	5481	
465.3	4782	
465.5	6761.7	
465.7	6636.1	
465.9	4926	
466.1	4835.9	
466.3	6415.6	
466.5	6389	
466.7	5434.6	
466.9	4609.3	
467.1	6339.8	
467.3	6950.8	
467.5	5418.9	
467.7	4506.2	
467.9	7191.1	
468.1	7869.7	
468.3	5175.9	
468.5	5494.7	
468.7	6199.9	
468.9	6202.6	
469.1	4740.4	
469.3	5227.8	
469.5	7687.4	
469.7	5930.2	
469.9	5126.7	
470.1	4551.3	
470.3	6346	
470.5	6307.7	
470.7	5599.8	
470.9	4601.8	
471.1	6044.9	
471.3	6476.4	
471.5	4495.3	
471.69	5977.3	
471.89	6097.5	
472.09	5599.8	
472.29	5087.2	
472.49	5413.5	
472.69	5829.9	
472.89	6458.6	
473.09	4433.9	
473.29	4644.1	
473.49	6014.9	
473.69	6074.3	
473.89	5236	
474.09	4633.9	
474.29	7058	
474.49	6792.4	
474.69	5261.2	
474.89	4801.8	
475.09	6072.9	
475.29	6057.9	
475.49	4347.8	
475.69	4526	
475.88	7292.8	
476.08	6465.4	
476.28	4299.4	
476.48	4603.8	
476.68	6775.4	
476.88	6573.3	
477.08	4628.4	
477.28	4820.2	
477.48	6255.9	
477.68	6640.9	
477.88	4425	
478.08	4676.9	
478.28	6952.2	
478.48	6257.2	
478.67	4690.5	
478.87	4259.8	
479.07	6735.1	
479.27	6383.5	
479.47	4772.4	
479.67	4905.6	
479.87	6591.7	
480.07	6987.7	
480.27	4236.6	
480.47	5474.9	
480.67	6294.8	
480.87	6874.3	
481.06	4474.8	
481.26	5175.2	
481.46	6303.6	
481.66	6231.3	
481.86	4840	
482.06	5626.5	
482.26	6127.5	
482.46	6836.1	
482.66	4795	
482.86	4471.4	
483.05	6451.1	
483.25	5902.9	
483.45	6696.9	
483.65	4783.4	
483.85	5953.4	
484.05	6254.5	
484.25	5130.8	
484.45	5427.1	
484.65	6815	
484.84	6836.8	
485.04	4724	
485.24	4715.8	
485.44	7134.4	
485.64	5836.7	
485.84	4160.1	
486.04	5178.6	
486.24	6086.6	
486.44	6414.2	
486.63	4085	
486.83	4773.8	
487.03	6014.2	
487.23	6171.9	
487.43	4292.5	
487.63	5988.9	
487.83	6231.3	
488.02	6833.4	
488.22	4855.7	
488.42	5367.7	
488.62	6838.9	
488.82	5966.4	
489.02	4690.5	
489.22	4611.3	
489.41	6765.1	
489.61	6481.1	
489.81	4537.6	
490.01	4425	
490.21	6698.2	
490.41	7260.7	
490.61	4461.2	
490.8	4493.9	
491	6287.9	
491.2	5851.7	
491.4	4998.4	
491.6	4397.7	
491.8	6374.6	
491.99	6411.5	
492.19	4243.4	
492.39	4440	
492.59	6771.9	
492.79	6726.9	
492.99	5128.1	
493.18	4427.7	
493.38	6876.4	
493.58	7297.6	
493.78	4883	
493.98	4566.3	
494.18	6492.7	
494.37	6062.7	
494.57	5040.1	
494.77	4925.4	
494.97	6634.7	
495.17	6762.4	
495.37	4635.2	
495.56	4891.2	
495.76	6976.7	
495.96	6666.8	
496.16	5595.1	
496.36	4711.7	
496.55	6890.7	
496.75	6376	
496.95	5019.6	
497.15	4915.8	
497.35	6851.1	
497.54	6681.8	
497.74	4805.9	
497.94	6319.3	
498.14	7309.9	
498.34	7122.8	
498.53	4549.9	
498.73	5128.8	
498.93	6160.3	
499.13	6765.8	
499.33	4967	
499.52	5415.5	
499.72	6727.6	
499.92	6862.1	
500.12	4765.6	
500.32	4973.2	
500.51	6860.7	
500.71	6603.3	
500.91	5487.2	
501.11	5250.3	
501.31	6778.1	
501.5	7245	
501.7	5805.3	
501.9	4954.7	
502.1	6728.9	
502.29	6950.1	
502.49	5302.9	
502.69	5689.9	
502.89	6825.9	
503.09	6806.8	
503.28	4596.3	
503.48	4744.5	
503.68	6319.3	
503.88	6262.7	
504.07	5452.4	
504.27	5102.2	
504.47	6637.5	
504.67	6735.8	
504.86	5412.8	
505.06	5232.6	
505.26	6460.7	
505.46	7684.7	
505.65	5080.3	
505.85	5300.8	
506.05	6389.7	
506.25	6736.5	
506.44	4606.6	
506.64	5337	
506.84	6348.7	
507.04	7039.6	
507.23	4763.6	
507.43	5310.4	
507.63	7843.7	
507.83	6468.9	
508.02	5213.4	
508.22	4904.2	
508.42	8069	
508.62	6287.3	
508.81	5048.2	
509.01	5556.8	
509.21	6312.5	
509.4	6451.1	
509.6	5254.4	
509.8	4813.4	
510	6383.5	
510.19	7483.3	
510.39	4711	
510.59	4870.1	
510.79	6300.9	
510.98	7374.7	
511.18	4929.5	
511.38	4959.5	
511.57	6936.5	
511.77	6702.3	
511.97	5473.5	
512.17	4836.6	
512.36	6951.5	
512.56	6848.4	
512.76	4802.5	
512.95	4578.6	
513.15	7032.7	
513.35	5890	
513.55	5413.5	
513.74	4759.5	
513.94	6931.7	
514.14	6438.1	
514.33	5477.6	
514.53	5332.9	
514.73	6446.3	
514.92	6593.1	
515.12	4851	
515.32	4758.8	
515.51	6677.1	
515.71	6921.5	
515.91	6157.6	
516.11	4828.4	
516.3	7882.6	
516.5	6418.3	
516.7	5245.5	
516.89	5625.1	
517.09	6464.1	
517.29	6479.1	
517.48	5591.6	
517.68	4956.8	
517.88	6220.4	
518.07	6810.2	
518.27	5433.9	
518.47	4660.5	
518.66	7189.1	
518.86	6094.1	
519.06	4579.3	
519.25	4827.1	
519.45	6414.2	
519.65	7509.2	
519.84	5356.8	
520.04	5920	
520.24	7821.9	
520.43	6890.7	
520.63	5198.4	
520.83	4997.7	
521.02	6317.3	
521.22	6838.9	
521.42	5463.3	
521.61	5784.1	
521.81	6566.5	
522.01	6744.6	
522.2	5328.8	
522.4	5189.6	
522.6	6975.4	
522.79	6007.4	
522.99	5145.9	
523.18	4588.8	
523.38	6732.4	
523.58	6685.9	
523.77	6066.1	
523.97	4561.5	
524.17	8134.5	
524.36	7453.2	
524.56	5597.1	
524.76	5328.1	
524.95	6643.6	
525.15	6352.1	
525.34	5147.9	
525.54	5105.6	
525.74	6928.3	
525.93	6116.6	
526.13	6075.6	
526.33	5051.7	
526.52	7279.2	
526.72	6709.1	
526.91	6075.6	
527.11	5460.6	
527.31	7172	
527.5	7447.1	
527.7	5433.3	
527.89	4648.9	
528.09	6404.7	
528.29	6779.5	
528.48	5725.4	
528.68	5459.2	
528.87	7157	
529.07	7169.3	
529.27	5424.4	
529.46	4973.2	
529.66	6833.4	
529.85	7126.9	
530.05	4869.4	
530.25	5537.7	
530.44	7882.6	
530.64	6772.6	
530.83	5248.9	
531.03	5400.5	
531.23	7200	
531.42	6990.4	
531.62	5966.4	
531.81	5289.9	
532.01	7273	
532.21	7435.5	
532.4	5095.3	
532.6	5317.2	
532.79	7947.5	
532.99	7164.5	
533.18	5429.8	
533.38	6122.1	
533.58	6826.6	
533.77	7342	
533.97	5332.2	
534.16	5980.8	
534.36	7574.1	
534.55	6855.9	
534.75	6139.1	
534.95	5476.3	
535.14	7531.7	
535.34	6874.3	
535.53	5104.9	
535.73	6640.2	
535.92	7940	
536.12	6990.4	
536.31	5339.1	
536.51	6192.4	
536.71	7215.7	
536.9	6932.4	
537.1	5365.7	
537.29	5557.5	
537.49	7561.1	
537.68	6795.2	
537.88	5705	
538.07	5091.3	
538.27	7020.4	
538.46	7762.5	
538.66	5057.8	
538.86	5432.6	
539.05	7090.8	
539.25	7461.4	
539.44	5655.1	
539.64	5404.6	
539.83	6854.6	
540.03	7675.8	
540.22	5196.4	
540.42	5354.1	
540.61	7194.5	
540.81	7251.2	
541	5739.8	
541.2	6260	
541.39	6823.1	
541.59	6987	
541.78	5944.6	
541.98	5295.4	
542.18	6584.9	
542.37	6521.4	
542.57	5593	
542.76	5971.9	
542.96	6681.2	
543.15	7196.6	
543.35	5645.6	
543.54	5152.7	
543.74	7402.7	
543.93	7090.1	
544.13	5659.9	
544.32	6442.9	
544.52	7289.4	
544.71	6714.6	
544.91	4946.5	
545.1	5945.9	
545.3	6789	
545.49	7204.1	
545.69	4958.8	
545.88	5410.1	
546.08	8047.8	
546.27	7578.2	
546.47	5780.7	
546.66	5245.5	
546.86	7434.1	
547.05	7879.2	
547.24	5347.9	
547.44	5306.3	
547.63	6667.5	
547.83	7443.7	
548.02	5593.7	
548.22	5752.1	
548.41	6499.6	
548.61	7487.4	
548.8	5256.5	
549	5185.5	
549.19	7076.4	
549.39	7376.8	
549.58	5016.2	
549.78	5513.8	
549.97	7393.2	
550.17	6916.7	
550.36	6178	
550.55	6924.9	
550.75	7002	
550.94	7726.3	
551.14	5226.4	
551.33	5477	
551.53	6457.2	
551.72	7135.1	
551.92	5560.2	
552.11	5400.5	
552.31	7334.5	
552.5	7237.5	
552.69	6664.1	
552.89	5086.5	
553.08	7170.6	
553.28	6951.5	
553.47	5374.6	
553.67	6227.2	
553.86	7719.5	
554.06	6417	
554.25	4773.1	
554.44	5192.3	
554.64	8359.8	
554.83	7916.8	
555.03	5159.5	
555.22	5550.7	
555.42	7429.3	
555.61	7180.2	
555.8	5327.4	
556	5510.4	
556.19	6533	
556.39	7479.2	
556.58	5377.3	
556.78	5373.9	
556.97	7182.2	
557.16	6885.3	
557.36	6359.6	
557.55	5153.4	
557.75	6313.9	
557.94	7757.7	
558.13	5251.7	
558.33	4988.2	
558.52	7591.8	
558.72	6644.3	
558.91	5199.8	
559.1	5344.5	
559.3	6518	
559.49	6296.1	
559.69	4856.4	
559.88	5554.8	
560.07	7099.6	
560.27	7464.8	
560.46	5712.5	
560.66	5849	
560.85	6940.6	
561.04	6361	
561.24	5098.8	
561.43	5253	
561.63	6526.2	
561.82	6817	
562.01	6130.3	
562.21	5464	
562.4	7047.7	
562.59	7772	
562.79	5397.1	
562.98	5108.3	
563.18	6991.8	
563.37	8042.4	
563.56	5728.9	
563.76	5088.5	
563.95	6596.5	
564.14	6559	
564.34	5389.6	
564.53	5149.3	
564.73	7060	
564.92	7180.9	
565.11	5462.6	
565.31	4994.3	
565.5	7456.7	
565.69	6604.7	
565.89	5242.8	
566.08	5357.5	
566.27	7370.6	
566.47	7565.9	
566.66	5917.9	
566.85	4835.3	
567.05	7051.2	
567.24	6601.3	
567.44	5021.6	
567.63	6095.4	
567.82	7205.4	
568.02	6878.4	
568.21	5105.6	
568.4	5370.5	
568.6	6906.4	
568.79	6853.2	
568.98	5035.3	
569.18	5073.5	
569.37	6870.9	
569.56	8464.9	
569.76	5444.2	
569.95	6113.2	
570.14	7257.3	
570.34	7065.5	
570.53	4988.9	
570.72	5000.5	
570.91	7540.6	
571.11	6868.9	
571.3	5496.7	
571.49	6098.9	
571.69	6956.9	
571.88	6529.6	
572.07	5779.4	
572.27	5814.2	
572.46	6565.8	
572.65	7383.6	
572.85	5124	
573.04	5473.5	
573.23	7514.7	
573.43	7002.7	
573.62	5037.3	
573.81	5507	
574	7107.1	
574.2	6750.1	
574.39	5302.2	
574.58	5397.1	
574.78	7562.5	
574.97	7049.8	
575.16	5649	
575.36	5684.5	
575.55	7320.1	
575.74	7391.1	
575.93	4969.7	
576.13	5767.1	
576.32	6867.5	
576.51	7305.1	
576.71	5415.5	
576.9	6406	
577.09	7589.1	
577.28	7163.1	
577.48	5670.8	
577.67	4926	
577.86	6899.6	
578.05	7099.6	
578.25	5462.6	
578.44	5499.5	
578.63	6970.6	
578.83	7920.9	
579.02	5005.9	
579.21	6201.2	
579.4	7107.1	
579.6	6925.5	
579.79	5549.3	
579.98	7257.3	
580.17	7358.4	
580.37	7468.9	
580.56	5125.4	
580.75	5642.8	
580.94	7760.4	
581.14	7624.6	
581.33	6042.2	
581.52	5240.1	
581.71	7238.2	
581.91	7844.4	
582.1	5005.9	
582.29	5446.9	
582.48	7038.2	
582.68	7012.2	
582.87	5841.5	
583.06	5502.9	
583.25	7327.6	
583.45	6806.8	
583.64	6029.2	
583.83	6521.4	
584.02	7082.6	
584.21	7282.6	
584.41	6023.8	
584.6	5515.2	
584.79	6984.9	
584.98	7513.3	
585.18	5098.8	
585.37	5089.2	
585.56	6739.2	
585.75	7271.7	
585.94	5277.6	
586.14	5749.3	
586.33	7861.5	
586.52	7012.2	
586.71	5686.5	
586.91	5478.3	
587.1	6588.3	
587.29	7380.2	
587.48	5517.2	
587.67	5352	
587.87	7252.5	
588.06	7379.5	
588.25	6387.6	
588.44	5833.3	
588.63	7027.3	
588.83	7468.9	
589.02	5479.7	
589.21	5427.1	
589.4	7017.7	
589.59	6864.8	
589.78	4840.7	
589.98	5084.4	
590.17	6578.8	
590.36	6893.5	
590.55	4582	
590.74	5321.3	
590.94	8006.9	
591.13	6968.6	
591.32	5066	
591.51	4691.9	
591.7	7311.9	
591.89	6782.2	
592.09	4842.1	
592.28	5185.5	
592.47	6208.1	
592.66	7775.5	
592.85	4831.2	
593.05	4987.5	
593.24	6703.7	
593.43	7309.2	
593.62	5070.8	
593.81	5414.8	
594	6806.1	
594.19	6974.7	
594.39	4995.7	
594.58	4885.8	
594.77	7033.4	
594.96	7435.5	
595.15	4975.9	
595.34	5460.6	
595.54	7013.6	
595.73	6365.1	
595.92	4488.5	
596.11	5373.2	
596.3	7443	
596.49	6450.4	
596.68	5192.3	
596.88	5531.6	
597.07	7213.6	
597.26	6345.3	
597.45	4847.5	
597.64	5726.8	
597.83	6511.9	
598.02	6991.8	
598.22	4790.9	
598.41	5463.3	
598.6	6937.2	
598.79	6350.8	
598.98	4908.3	
599.17	5582.1	
599.36	6935.1	
599.55	7707.2	
599.74	6448.4	
599.94	6281.8	
600.13	7300.3	
600.32	6370.5	
600.51	4687.8	
600.7	4786.8	
600.89	7694.2	
601.08	7854	
601.27	4687.8	
601.47	5406.6	
601.66	7210.9	
601.85	7703.8	
602.04	5238	
602.23	5389.6	
602.42	6544.6	
602.61	7041.6	
602.8	5153.4	
602.99	5002.5	
603.18	6737.8	
603.37	6928.3	
603.57	5498.8	
603.76	5872.9	
603.95	7510.6	
604.14	7206.1	
604.33	5028.4	
604.52	5298.1	
604.71	7007.5	
604.9	6603.3	
605.09	5713.2	
605.28	5551.4	
605.47	7368.6	
605.66	7030	
605.86	5488.6	
606.05	5006.6	
606.24	7356.3	
606.43	6214.9	
606.62	5301.5	
606.81	5902.2	
607	7266.2	
607.19	6693.4	
607.38	4749.9	
607.57	5071.5	
607.76	6601.3	
607.95	6091.3	
608.14	5382.1	
608.33	5833.3	
608.52	6519.4	
608.72	7295.5	
608.91	4818.9	
609.1	4732.2	
609.29	6648.4	
609.48	6310.5	
609.67	5520	
609.86	4804.5	
610.05	6346	
610.24	6645	
610.43	4661.9	
610.62	4459.8	
610.81	7499	
611	7316.7	
611.19	4812.7	
611.38	5345.2	
611.57	6870.3	
611.76	7702.4	
611.95	4590.2	
612.14	4512.4	
612.33	6663.4	
612.52	6374	
612.71	5054.4	
612.9	4455.7	
613.09	6026.5	
613.28	7772	
613.47	4981.3	
613.66	5591.6	
613.85	6838.2	
614.04	6380.1	
614.24	4961.5	
614.43	4377.2	
614.62	6856.6	
614.81	6875.7	
615	5356.1	
615.19	5253.7	
615.38	6339.8	
615.57	6567.2	
615.76	5252.4	
615.95	5946.6	
616.14	7008.1	
616.33	6707.1	
616.52	5539.1	
616.71	5614.8	
616.9	6914.6	
617.09	6747.4	
617.28	5008	
617.47	5872.2	
617.66	6224.5	
617.85	6204	
618.04	5600.5	
618.22	5224.4	
618.41	6445	
618.6	7182.2	
618.79	5152	
618.98	4928.1	
619.17	7303.1	
619.36	6068.8	
619.55	5102.2	
619.74	5173.9	
619.93	6808.1	
620.12	6370.5	
620.31	5455.8	
620.5	5598.5	
620.69	7239.6	
620.88	7566.6	
621.07	6118	
621.26	5400.5	
621.45	6920.1	
621.64	6962.4	
621.83	5471.5	
622.02	4892.6	
622.21	7023.9	
622.4	6838.9	
622.59	5933.6	
622.78	5708.4	
622.97	6492.1	
623.16	7257.3	
623.35	5436	
623.54	4813.4	
623.72	6653.2	
623.91	6769.9	
624.1	5679	
624.29	4704.2	
624.48	7618.4	
624.67	7096.9	
624.86	5527.5	
625.05	4873.5	
625.24	7748.8	
625.43	6533.7	
625.62	6883.9	
625.81	5042.1	
626	7234.8	
626.19	6688	
626.38	5581.4	
626.56	5183.4	
626.75	6540.5	
626.94	7152.9	
627.13	5608	
627.32	4738.3	
627.51	7090.8	
627.7	7940.7	
627.89	4808.6	
628.08	5642.8	
628.27	6427.9	
628.46	6642.9	
628.65	5098.8	
628.83	4726	
629.02	7079.1	
629.21	6445	
629.4	5341.1	
629.59	5474.9	
629.78	6489.3	
629.97	7161.1	
630.16	5479.7	
630.35	5141.8	
630.54	7548.8	
630.72	7362.4	
630.91	5117.9	
631.1	5552	
631.29	6878.4	
631.48	7020.4	
631.67	5652.4	
631.86	5216.9	
632.05	6691.4	
632.24	6662	
632.42	4901.5	
632.61	5375.9	
632.8	6744	
632.99	6388.3	
633.18	5367.7	
633.37	5652.4	
633.56	6944.7	
633.75	6806.8	
633.93	5408	
634.12	5160.9	
634.31	7597.3	
634.5	7255.3	
634.69	5190.2	
634.88	5627.8	
635.07	6712.6	
635.25	7176.8	
635.44	5960.3	
635.63	5992.4	
635.82	6614.3	
636.01	6164.4	
636.2	5868.8	
636.39	5546.6	
636.57	7606.2	
636.76	7292.8	
636.95	5117.2	
637.14	6083.8	
637.33	7038.9	
637.52	7684.7	
637.7	4975.9	
637.89	5668.1	
638.08	6682.5	
638.27	7752.9	
638.46	5693.4	
638.65	6011.5	
638.83	7820.5	
639.02	6556.2	
639.21	5613.5	
639.4	5952.8	
639.59	6949.4	
639.78	6639.5	
639.96	5012.7	
640.15	5177.9	
640.34	6819.1	
640.53	6913.3	
640.72	4872.1	
640.91	5217.5	
641.09	6380.8	
641.28	7446.4	
641.47	5137	
641.66	5753.4	
641.85	6891.4	
642.03	7126.9	
642.22	5557.5	
642.41	5257.8	
642.6	6530.3	
642.79	6117.3	
642.97	5106.3	
643.16	5594.4	
643.35	6444.3	
643.54	6287.3	
643.73	4964.3	
643.91	5650.3	
644.1	6310.5	
644.29	6759.7	
644.48	5068.7	
644.67	5123.3	
644.85	6335.7	
645.04	6643.6	
645.23	4777.9	
645.42	5028.4	
645.6	6290.7	
645.79	7166.5	
645.98	4986.1	
646.17	4296.6	
646.36	6106.4	
646.54	6592.4	
646.73	5633.3	
646.92	4764.9	
647.11	6277.7	
647.29	7097.6	
647.48	4812.7	
647.67	4591.5	
647.86	7369.3	
648.05	7223.9	
648.23	5013.4	
648.42	6081.1	
648.61	6813.6	
648.8	6608.1	
648.98	4724	
649.17	5011.4	
649.36	6366.5	
649.55	5852.4	
649.73	4760.2	
649.92	5415.5	
650.11	6107	
650.3	6414.9	
650.48	4939.7	
650.67	4765.6	
650.86	6692.1	
651.05	5862.7	
651.23	4875.5	
651.42	4885.8	
651.61	6213.5	
651.79	6260	
651.98	5012.7	
652.17	4659.8	
652.36	6634.1	
652.54	5894.1	
652.73	4832.5	
652.92	4655.7	
653.11	6595.1	
653.29	6737.8	
653.48	4257.7	
653.67	4947.2	
653.85	6440.2	
654.04	7247.8	
654.23	5185.5	
654.42	4859.1	
654.6	6153.5	
654.79	6640.2	
654.98	4434.5	
655.16	4874.2	
655.35	5885.2	
655.54	5692.7	
655.73	4502.8	
655.91	4407.2	
656.1	6603.3	
656.29	5610.1	
656.47	4084.3	
656.66	5395	
656.85	5977.3	
657.03	5952.1	
657.22	4556	
657.41	4536.3	
657.59	6013.5	
657.78	5853.1	
657.97	4293.9	
658.16	4846.9	
658.34	6593.1	
658.53	6856.6	
658.72	5480.4	
658.9	5975.3	
659.09	6207.4	
659.28	6176.7	
659.46	4591.5	
659.65	4565.6	
659.84	5937.7	
660.02	6401.3	
660.21	4623.6	
660.4	4513.7	
660.58	6733	
660.77	6219.7	
660.96	4963.6	
661.14	4184.7	
661.33	7093.5	
661.52	7025.9	
661.7	4244.1	
661.89	6978.1	
662.08	5879.7	
662.26	5511.8	
662.45	4453.6	
662.64	4513	
662.82	6489.3	
663.01	5827.2	
663.2	4575.2	
663.38	5089.2	
663.57	6385.6	
663.75	6212.2	
663.94	4756.1	
664.13	5751.4	
664.31	5956.9	
664.5	6455.2	
664.69	4938.3	
664.87	5363.6	
665.06	5726.8	
665.25	6264.7	
665.43	5604.6	
665.62	5535.7	
665.8	6456.6	
665.99	5965.7	
666.18	4848.2	
666.36	4861.2	
666.55	6535.1	
666.74	6450.4	
666.92	4519.9	
667.11	5850.4	
667.29	6055.8	
667.48	6471.6	
667.67	5397.8	
667.85	4707.6	
668.04	5995.8	
668.22	5991.7	
668.41	4850.3	
668.6	4982	
668.78	5810.8	
668.97	6140.5	
669.15	5079.6	
669.34	4365.6	
669.53	5879.7	
669.71	6172.6	
669.9	4513	
670.08	4872.1	
670.27	5838.1	
670.46	6408.8	
670.64	5161.6	
670.83	5310.4	
671.01	5765	
671.2	6259.3	
671.38	4508.3	
671.57	4448.9	
671.76	6810.2	
671.94	7176.8	
672.13	4377.9	
672.31	5289.9	
672.5	6407.4	
672.69	5932.3	
672.87	4529.4	
673.06	4787.5	
673.24	6313.2	
673.43	5969.1	
673.61	5091.3	
673.8	4697.4	
673.98	6475	
674.17	6505.7	
674.36	5203.9	
674.54	5143.1	
674.73	6229.9	
674.91	6472.9	
675.1	4815.5	
675.28	4541	
675.47	6133.7	
675.65	6525.5	
675.84	4805.9	
676.03	5016.2	
676.21	5981.4	
676.4	5527.5	
676.58	5418.2	
676.77	5183.4	
676.95	7117.4	
677.14	5952.8	
677.32	4513	
677.51	4412	
677.69	6546.7	
677.88	5732.9	
678.06	4379.2	
678.25	4515.1	
678.44	6118	
678.62	5791.7	
678.81	4318.5	
678.99	5036	
679.18	6802	
679.36	6386.2	
679.55	4741.7	
679.73	5272.2	
679.92	6342.6	
680.1	5926.1	
680.29	5691.3	
680.47	4751.3	
680.66	5802.6	
680.84	6615.6	
681.03	4216.8	
681.21	5027.8	
681.4	5907	
681.58	5854.5	
681.77	4562.2	
681.95	4503.5	
682.14	6602.7	
682.32	6817.7	
682.51	5246.2	
682.69	4400.4	
682.88	5907.7	
683.06	6344.6	
683.25	5028.4	
683.43	5415.5	
683.62	6206	
683.8	6440.9	
683.99	5451	
684.17	4944.5	
684.36	7106.5	
684.54	6059.3	
684.73	4336.2	
684.91	4489.8	
685.1	6302.3	
685.28	5849	
685.46	4937	
685.65	4985.4	
685.83	6454.5	
686.02	6020.3	
686.2	4515.1	
686.39	4643.4	
686.57	5738.4	
686.76	6916.7	
686.94	4471.4	
687.13	4608.6	
687.31	6412.9	
687.5	6012.2	
687.68	4182.6	
687.86	5147.2	
688.05	7385	
688.23	5577.3	
688.42	5147.2	
688.6	4543.8	
688.79	5991	
688.97	5915.9	
689.16	4866.7	
689.34	4169.7	
689.52	6555.5	
689.71	6640.2	
689.89	5005.9	
690.08	4592.2	
690.26	6066.1	
690.45	5999.2	
690.63	5223	
690.81	4705.5	
691	6039.5	
691.18	5836.7	
691.37	4821.6	
691.55	6489.3	
691.74	5855.8	
691.92	7432.8	
692.1	4814.1	
692.29	4403.8	
692.47	6075.6	
692.66	5534.3	
692.84	4575.8	
693.02	4945.8	
693.21	5547.3	
693.39	6036.7	
693.58	5059.8	
693.76	4550.6	
693.94	6881.9	
694.13	6714.6	
694.31	4567.7	
694.5	5366.4	
694.68	5788.9	
694.86	6055.8	
695.05	4843.4	
695.23	4921.3	
695.42	6391.7	
695.6	8077.2	
695.78	5310.4	
695.97	4620.9	
696.15	6398.5	
696.34	5937.7	
696.52	4476.9	
696.7	5143.8	
696.89	6322.1	
697.07	5705	
697.25	5040.1	
697.44	6154.8	
697.62	6284.5	
697.81	6374	
697.99	4887.1	
698.17	5128.1	
698.36	5739.8	
698.54	6321.4	
698.72	5027.8	
698.91	4312.3	
699.09	5929.6	
699.28	5847.6	
699.46	4829.1	
699.64	4638	
699.83	5780.7	
700.01	6741.2	
700.19	5330.9	
700.38	4116.4	
700.56	6679.8	
700.74	5836.7	
700.93	4375.1	
701.11	5134.9	
701.29	6361	
701.48	7049.1	
701.66	4577.9	
701.84	4677.6	
702.03	5926.8	
702.21	6424.5	
702.39	4306.9	
702.58	4721.3	
702.76	6320.7	
702.94	6364.4	
703.13	4267.3	
703.31	6109.1	
703.49	5795.8	
703.68	6627.2	
703.86	4451.6	
704.04	5199.1	
704.23	6171.9	
704.41	6376	
704.59	4579.9	
704.78	5453.1	
704.96	7073	
705.14	6476.4	
705.33	4364.2	
705.51	5055.1	
705.69	6007.4	
705.87	6632	
706.06	5218.9	
706.24	4293.2	
706.42	6263.4	
706.61	6439.5	
706.79	5333.6	
706.97	4307.6	
707.16	5903.6	
707.34	6319.3	
707.52	5199.8	
707.7	4567.7	
707.89	5876.3	
708.07	5646.2	
708.25	5230.5	
708.44	5358.2	
708.62	5922.7	
708.8	6796.5	
708.98	5483.8	
709.17	4651.6	
709.35	6170.5	
709.53	6190.3	
709.72	4419.5	
709.9	4758.8	
710.08	6460	
710.26	6472.3	
710.45	5720.7	
710.63	4613.4	
710.81	6081.1	
710.99	6100.2	
711.18	5158.8	
711.36	4758.8	
711.54	5992.4	
711.72	6551.5	
711.91	4863.9	
712.09	4445.5	
712.27	6203.3	
712.45	6896.2	
712.64	5019.6	
712.82	4255.7	
713	5769.8	
713.18	5894.7	
713.37	4308.9	
713.55	5261.9	
713.73	6552.1	
713.91	5517.9	
714.1	4665.3	
714.28	4283	
714.46	6294.8	
714.64	5651	
714.83	3921.9	
715.01	4406.5	
715.19	5794.4	
715.37	5264	
715.55	4205.2	
715.74	4437.9	
715.92	6383.5	
716.1	4879.6	
716.28	5283.8	
716.47	4552.6	
716.65	5478.3	
716.83	5474.9	
717.01	4447.5	
717.19	4509.6	
717.38	7166.5	
717.56	5232.6	
717.74	4556	
717.92	3943	
718.1	6177.4	
718.29	5558.9	
718.47	3659.7	
718.65	4115.7	
718.83	6118	
719.01	5984.2	
719.2	3607.8	
719.38	4399	
719.56	5864.7	
719.74	6960.4	
719.92	4134.8	
720.11	4958.8	
720.29	5904.3	
720.47	5252.4	
720.65	3864.5	
720.83	4445.5	
721.02	5505.6	
721.2	5274.2	
721.38	4461.2	
721.56	3893.2	
721.74	4930.8	
721.92	5042.1	
722.11	4932.2	
722.29	4650.9	
722.47	6042.2	
722.65	5393	
722.83	3954.6	
723.01	4551.3	
723.2	5418.9	
723.38	5694	
723.56	3456.3	
723.74	4379.9	
723.92	5032.5	
724.1	5885.2	
724.29	3850.9	
724.47	4773.1	
724.65	5175.9	
724.83	5025	
725.01	3803.8	
725.19	4487.8	
725.37	5046.9	
725.56	5050.3	
725.74	3737.5	
725.92	3829	
726.1	5058.5	
726.28	5281	
726.46	4184.7	
726.64	3915.7	
726.83	5261.9	
727.01	5429.8	
727.19	3677.5	
727.37	4236.6	
727.55	5377.3	
727.73	5734.3	
727.91	3641.3	
728.09	3534.8	
728.28	5818.3	
728.46	6040.1	
728.64	4341	
728.82	4309.6	
729	6531	
729.18	6090	
729.36	3621.5	
729.54	5533.6	
729.72	6749.4	
729.91	5380.7	
730.09	5241.4	
730.27	4217.5	
730.45	5317.2	
730.63	5924.8	
730.81	4668.7	
730.99	3951.2	
731.17	6285.9	
731.35	5159.5	
731.53	4320.5	
731.71	4016.1	
731.9	6032.6	
732.08	6180.1	
732.26	4292.5	
732.44	3976.5	
732.62	6180.1	
732.8	5852.4	
732.98	4508.9	
733.16	3805.1	
733.34	5854.5	
733.52	4801.1	
733.7	4194.2	
733.88	4413.4	
734.07	5658.5	
734.25	5493.3	
734.43	3813.3	
734.61	4887.8	
734.79	6705.7	
734.97	5377.3	
735.15	3816	
735.33	4115.1	
735.51	5700.9	
735.69	5434.6	
735.87	5240.8	
736.05	4255	
736.23	5492	
736.41	5251	
736.59	4130.8	
736.77	4270	
736.95	5894.7	
737.13	5384.8	
737.32	3871.3	
737.5	3984.7	
737.68	6287.9	
737.86	5354.1	
738.04	3728	
738.22	5147.2	
738.4	5236	
738.58	5477.6	
738.76	4195.6	
738.94	3377.8	
739.12	5275.6	
739.3	5225.7	
739.48	4725.3	
739.66	4483	
739.84	5478.3	
740.02	5428.5	
740.2	3474.7	
740.38	3791.5	
740.56	5751.4	
740.74	4847.5	
740.92	4317.1	
741.1	4206.5	
741.28	5295.4	
741.46	5177.9	
741.64	3885.7	
741.82	4333.5	
742	5455.1	
742.18	5274.2	
742.36	4069.3	
742.54	3832.4	
742.72	5751.4	
742.9	4807.9	
743.08	4401.1	
743.26	3406.5	
743.44	5887.9	
743.62	5783.5	
743.8	4495.3	
743.98	3728	
744.16	5585.5	
744.34	5317.2	
744.52	4386.1	
744.7	4452.3	
744.88	5670.8	
745.06	5293.3	
745.24	4474.1	
745.42	4539.7	
745.6	5814.2	
745.78	5558.9	
745.96	3547.1	
746.14	3787.4	
746.32	6346.7	
746.5	5689.3	
746.68	4224.3	
746.86	3801.7	
747.03	6029.2	
747.21	4838.7	
747.39	4204.5	
747.57	3796.9	
747.75	5487.9	
747.93	5761.6	
748.11	3816	
748.29	3676.1	
748.47	6773.3	
748.65	5193.6	
748.83	4395.6	
749.01	4120.5	
749.19	5650.3	
749.37	4908.3	
749.55	4076.1	
749.73	4110.3	
749.91	5354.8	
750.09	5100.1	
750.26	4121.9	
750.44	3672	
750.62	5332.9	
750.8	5283.8	
750.98	3562.1	
751.16	3849.5	
751.34	5444.9	
751.52	4911	
751.7	4379.9	
751.88	3514.3	
752.06	5772.5	
752.24	5555.5	
752.42	3519.1	
752.59	3822.2	
752.77	5311.1	
752.95	6340.5	
753.13	4393.6	
753.31	3839.9	
753.49	5081.7	
753.67	5419.6	
753.85	4120.5	
754.03	3786.7	
754.21	5637.4	
754.38	5958.2	
754.56	3923.2	
754.74	3228.3	
754.92	5084.4	
755.1	5573.9	
755.28	3300.6	
755.46	3277.4	
755.64	6300.9	
755.82	6346.7	
755.99	3512.3	
756.17	3609.2	
756.35	4466.6	
756.53	5636	
756.71	2766.8	
756.89	3492.5	
757.07	5322	
757.25	4587.4	
757.42	3942.3	
757.6	4620.9	
757.78	5341.1	
757.96	4569	
758.14	3640.6	
758.32	3255.6	
758.5	4172.4	
758.67	4880.3	
758.85	3553.2	
759.03	3619.4	
759.21	5030.5	
759.39	4558.1	
759.57	3166.2	
759.75	4085.7	
759.92	5598.5	
760.1	5079	
760.28	4352.6	
760.46	4566.3	
760.64	4789.5	
760.82	4605.2	
760.99	4096.6	
761.17	3536.8	
761.35	5431.9	
761.53	4535.6	
761.71	3685	
761.89	4187.4	
762.06	5307	
762.24	4846.9	
762.42	3673.4	
762.6	3524.6	
762.78	4889.2	
762.96	5436.7	
763.13	4020.8	
763.31	3710.9	
763.49	5480.4	
763.67	4798.4	
763.85	4443.4	
764.02	4847.5	
764.2	5782.8	
764.38	5046.9	
764.56	3676.1	
764.74	4354.7	
764.91	5791	
765.09	4856.4	
765.27	3458.3	
765.45	3261	
765.63	5801.9	
765.8	5610.1	
765.98	3063.1	
766.16	3293.8	
766.34	4622.3	
766.52	4453	
766.69	4046.8	
766.87	3183.9	
767.05	4926	
767.23	5571.2	
767.41	3429.7	
767.58	3637.2	
767.76	5453.7	
767.94	5408	
768.12	3505.4	
768.29	4093.9	
768.47	5060.5	
768.65	5550	
768.83	3218	
769	4123.2	
769.18	4696	
769.36	5212.8	
769.54	4054.3	
769.72	3186	
769.89	5470.1	
770.07	5546.6	
770.25	3571	
770.43	4543.1	
770.6	6111.1	
770.78	6446.3	
770.96	3741.6	
771.14	4156	
771.31	5453.1	
771.49	4899.4	
771.67	3069.2	
771.85	3211.2	
772.02	4334.2	
772.2	4837.3	
772.38	3793.5	
772.55	3373.7	
772.73	5112.4	
772.91	4875.5	
773.09	3726.6	
773.26	3769.6	
773.44	5091.9	
773.62	4834.6	
773.8	3344.3	
773.97	3130	
774.15	5151.3	
774.33	4849.6	
774.5	3220.1	
774.68	3516.4	
774.86	5272.2	
775.04	4872.1	
775.21	3360.7	
775.39	3259	
775.57	5100.8	
775.74	5335	
775.92	3226.9	
776.1	3122.5	
776.27	5068	
776.45	5976	
776.63	3380.5	
776.81	2998.9	
776.98	4788.8	
777.16	5659.2	
777.34	3467.9	
777.51	3685	
777.69	4805.2	
777.87	4629.1	
778.04	3517	
778.22	3979.2	
778.4	4637.3	
778.57	5183.4	
778.75	2947.7	
778.93	3194.8	
779.1	4527.4	
779.28	4377.9	
779.46	2967.5	
779.64	3326.6	
779.81	5227.8	
779.99	5940.5	
780.17	3929.4	
780.34	4058.4	
780.52	4871.4	
780.69	5003.2	
780.87	3594.9	
781.05	3278.8	
781.22	4962.9	
781.4	5002.5	
781.58	3308.2	
781.75	2697.9	
781.93	4980	
782.11	4416.8	
782.28	4089.8	
782.46	3381.9	
782.64	4405.9	
782.81	5071.5	
782.99	3465.2	
783.17	3362.1	
783.34	4960.2	
783.52	4373.8	
783.69	3541.6	
783.87	4190.8	
784.05	4556	
784.22	4498	
784.4	4187.4	
784.58	3669.3	
784.75	5233.9	
784.93	4595.6	
785.1	3307.5	
785.28	3828.3	
785.46	5044.1	
785.63	4475.5	
785.81	3374.4	
785.99	3260.4	
786.16	4648.9	
786.34	4901.5	
786.51	3260.4	
786.69	3596.9	
786.87	4243.4	
787.04	4755.4	
787.22	3158	
787.39	3912.3	
787.57	4493.2	
787.75	5322	
787.92	4038.6	
788.1	4049.5	
788.27	4473.4	
788.45	4233.2	
788.63	3756	
788.8	2813.9	
788.98	4818.2	
789.15	4237.9	
789.33	2895.1	
789.5	3364.1	
789.68	5227.8	
789.86	5326.1	
790.03	3751.9	
790.21	3289	
790.38	5284.4	
790.56	4627	
790.73	3229.6	
790.91	3186	
791.09	4495.3	
791.26	5089.2	
791.44	3398.3	
791.61	2961.4	
791.79	4496.7	
791.96	4572.4	
792.14	3052.2	
792.32	2675.3	
792.49	4470	
792.67	4571.1	
792.84	3147	
793.02	2955.9	
793.19	4888.5	
793.37	5405.3	
793.54	2766.8	
793.72	3016.7	
793.89	5429.2	
794.07	4493.2	
794.25	3355.9	
794.42	2777.7	
794.6	5283.8	
794.77	4980.7	
794.95	3689.1	
795.12	3222.8	
795.3	4487.8	
795.47	4988.2	
795.65	3579.8	
795.82	3439.9	
796	4377.2	
796.17	5871.5	
796.35	3342.3	
796.52	3903.4	
796.7	4956.8	
796.87	4983.4	
797.05	3342.3	
797.22	3978.5	
797.4	5041.4	
797.57	5797.8	
797.75	3461.7	
797.92	3219.4	
798.1	5283.8	
798.27	4422.2	
798.45	2852.8	
798.62	3028.3	
798.8	4800.4	
798.97	5156.8	
799.15	3594.9	
799.32	3431.7	
799.5	4192.9	
799.67	4786.1	
799.85	3678.8	
800.02	2772.9	
800.2	4484.4	
800.37	4689.2	
800.55	3882.3	
800.72	3223.5	
800.9	5147.2	
801.07	5534.3	
801.25	4289.8	
801.42	3535.5	
801.6	5158.8	
801.77	4872.1	
801.95	3369.6	
802.12	3216.7	
802.29	4914.4	
802.47	4852.3	
802.64	3520.5	
802.82	2742.2	
802.99	4498.7	
803.17	5257.8	
803.34	3444	
803.52	3106.1	
803.69	5801.9	
803.87	4258.4	
804.04	3456.3	
804.21	3485	
804.39	5387.5	
804.56	4648.2	
804.74	2960	
804.91	3568.9	
805.09	4481.6	
805.26	4570.4	
805.44	3007.1	
805.61	3241.9	
805.78	5079.6	
805.96	4983.4	
806.13	3570.3	
806.31	3835.8	
806.48	4156.7	
806.66	4543.1	
806.83	3573	
807	3473.4	
807.18	4530.1	
807.35	4789.5	
807.53	3472.7	
807.7	2816.6	
807.87	5460.6	
808.05	4545.8	
808.22	3774.4	
808.4	2814.6	
808.57	4481	
808.74	4237.2	
808.92	3166.2	
809.09	3980.6	
809.27	4503.5	
809.44	4949.9	
809.61	2880.1	
809.79	3136.8	
809.96	5472.2	
810.14	5113.1	
810.31	2788	
810.48	3338.9	
810.66	4586.1	
810.83	5207.3	
811.01	3235.8	
811.18	3532.7	
811.35	5159.5	
811.53	4086.4	
811.7	3822.9	
811.87	3613.3	
812.05	4552	
812.22	4519.9	
812.39	3050.8	
812.57	3031.7	
812.74	4614.1	
812.92	5835.3	
813.09	3418.1	
813.26	3601	
813.44	5645.6	
813.61	4425.7	
813.78	2847.4	
813.96	3698.6	
814.13	4560.1	
814.3	4356.7	
814.48	3933.5	
814.65	3327.9	
814.82	5436.7	
815	4298	
815.17	3397.6	
815.34	4121.9	
815.52	4506.2	
815.69	4473.4	
815.87	3360	
816.04	3361.4	
816.21	4521.9	
816.38	4089.8	
816.56	3310.2	
816.73	3066.5	
816.9	5674.2	
817.08	5089.9	
817.25	3160.7	
817.42	3867.9	
817.6	4155.3	
817.77	4543.8	
817.94	3493.2	
818.12	3096.5	
818.29	4299.4	
818.46	6358.3	
818.64	3221.5	
818.81	3030.3	
818.98	4301.4	
819.16	5976.7	
819.33	3677.5	
819.5	3384.6	
819.67	4817.5	
819.85	5359.5	
820.02	3384.6	
820.19	3532.1	
820.37	4707.6	
820.54	4435.9	
820.71	3502	
820.88	4308.9	
821.06	4693.3	
821.23	4374.5	
821.4	3485	
821.58	3405.8	
821.75	5113.1	
821.92	4711.7	
822.09	2824.1	
822.27	3011.9	
822.44	4620.2	
822.61	4477.5	
822.79	2877.4	
822.96	5274.2	
823.13	4857.1	
823.3	4311.7	
823.48	3297.2	
823.65	2966.1	
823.82	5122	
823.99	4186	
824.17	4085.7	
824.34	3042.6	
824.51	5849.7	
824.68	4579.9	
824.86	3161.4	
825.03	3463.8	
825.2	4572.4	
825.37	5342.5	
825.55	3108.8	
825.72	3422.2	
825.89	5804.6	
826.06	5408.7	
826.24	3377.1	
826.41	3379.8	
826.58	5381.4	
826.75	4806.6	
826.92	2725.2	
827.1	2979.8	
827.27	7211.6	
827.44	5738.4	
827.61	3239.9	
827.79	3815.4	
827.96	4363.5	
828.13	4593.6	
828.3	3337.5	
828.47	2833	
828.65	4835.9	
828.82	4704.2	
828.99	4157.4	
829.16	3680.2	
829.34	5121.3	
829.51	4900.8	
829.68	3394.8	
829.85	3507.5	
830.02	5338.4	
830.2	5091.3	
830.37	2726.5	
830.54	3992.2	
830.71	5679.7	
830.88	4552	
831.05	2682.2	
831.23	3159.3	
831.4	5513.8	
831.57	6051.7	
831.74	3204.4	
831.91	2861	
832.09	4841.4	
832.26	5103.5	
832.43	3239.9	
832.6	3665.2	
832.77	4781.3	
832.94	5372.5	
833.12	2663.7	
833.29	3216.7	
833.46	4922	
833.63	6163	
833.8	3520.5	
833.97	3297.9	
834.15	5107.6	
834.32	4902.2	
834.49	3388.7	
834.66	3442	
834.83	5207.3	
835	4414.7	
835.17	3199.6	
835.35	3188.7	
835.52	5001.8	
835.69	4863.9	
835.86	3338.9	
836.03	2751.8	
836.2	5111.7	
836.37	4778.6	
836.55	3287.7	
836.72	3073.3	
836.89	4694.6	
837.06	5181.4	
837.23	3354.6	
837.4	3568.2	
837.57	5738.4	
837.75	6217.6	
837.92	2998.9	
838.09	3174.4	
838.26	4813.4	
838.43	5227.1	
838.6	3467.2	
838.77	3103.4	
838.94	5905	
839.11	5722.7	
839.29	3310.2	
839.46	2601.6	
839.63	5089.9	
839.8	4865.3	
839.97	3150.5	
840.14	3193.5	
840.31	4904.2	
840.48	5113.1	
840.65	2702.6	
840.82	3162.1	
841	5037.3	
841.17	4971.8	
841.34	2879.4	
841.51	2972.3	
841.68	5020.9	
841.85	4782.7	
842.02	3023.5	
842.19	2577.7	
842.36	4890.5	
842.53	4886.5	
842.7	2928.6	
842.87	3536.2	
843.05	6180.1	
843.22	4790.2	
843.39	2783.9	
843.56	3116.3	
843.73	4697.4	
843.9	5110.4	
844.07	4636.6	
844.24	3868.6	
844.41	6980.8	
844.58	4454.3	
844.75	2885.6	
844.92	3145	
845.09	4992.3	
845.26	5038	
845.43	2934.7	
845.6	3090.4	
845.77	5065.3	
845.94	4820.2	
846.12	3190.7	
846.29	3416.7	
846.46	5225.1	
846.63	5050.3	
846.8	2974.3	
846.97	3448.8	
847.14	5404.6	
847.31	5044.1	
847.48	3294.5	
847.65	3635.8	
847.82	5290.6	
847.99	5186.1	
848.16	3839.3	
848.33	3530.7	
848.5	4689.8	
848.67	5403.2	
848.84	2885.6	
849.01	2992.1	
849.18	4588.1	
849.35	4288.4	
849.52	3596.2	
849.69	2882.2	
849.86	5228.5	
850.03	5283.1	
850.2	2933.4	
850.37	3529.3	
850.54	5311.1	
850.71	4758.8	
850.88	3493.2	
851.05	2859.6	
851.22	4949.9	
851.39	5482.4	
851.56	2778.4	
851.73	3327.3	
851.9	4498	
852.07	5208.7	
852.24	3230.3	
852.41	2914.9	
852.58	5008.6	
852.75	4531.5	
852.92	3270.6	
853.09	2844.6	
853.26	4661.9	
853.43	5347.9	
853.6	2943.6	
853.77	2538.1	
853.94	5464	
854.11	4487.1	
854.28	4277.5	
854.44	3124.5	
854.61	5791.7	
854.78	5266.7	
854.95	2884.2	
855.12	3526.6	
855.29	4148.5	
855.46	5623	
855.63	2901.3	
855.8	3883.6	
855.97	4681.7	
856.14	5311.7	
856.31	4012	
856.48	3166.2	
856.65	4736.3	
856.82	4458.4	
856.99	2826.9	
857.16	3124.5	
857.33	6023.1	
857.49	4789.5	
857.66	3175	
857.83	3390.1	
858	4761.5	
858.17	4975.2	
858.34	2778.4	
858.51	2941.6	
858.68	5494	
858.85	5551.4	
859.02	3386	
859.19	3572.3	
859.36	4526.7	
859.52	4493.9	
859.69	2932	
859.86	3431	
860.03	4549.9	
860.2	5438	
860.37	2732	
860.54	2933.4	
860.71	5144.5	
860.88	5517.9	
861.05	3227.6	
861.21	3695.9	
861.38	5524.1	
861.55	4345.1	
861.72	2699.2	
861.89	3252.9	
862.06	5260.5	
862.23	5661.3	
862.4	2845.3	
862.56	2992.8	
862.73	5167.7	
862.9	4853	
863.07	3366.2	
863.24	2764.8	
863.41	4411.3	
863.58	4548.5	
863.75	2988.7	
863.91	3332	
864.08	5407.3	
864.25	5147.9	
864.42	3605.8	
864.59	4048.2	
864.76	5711.1	
864.93	4468	
865.09	2843.9	
865.26	3142.9	
865.43	5467.4	
865.6	5741.1	
865.77	2578.4	
865.94	2915.6	
866.1	5450.3	
866.27	5179.3	
866.44	4302.1	
866.61	2839.8	
866.78	4822.3	
866.95	5165.7	
867.11	2876.7	
867.28	2666.5	
867.45	5314.5	
867.62	4492.6	
867.79	3401	
867.96	2887	
868.12	4502.8	
868.29	5238.7	
868.46	2939.5	
868.63	3835.2	
868.8	5440.8	
868.97	5143.8	
869.13	3087.7	
869.3	3020.1	
869.47	5107.6	
869.64	5260.5	
869.81	2948.4	
869.97	2932.7	
870.14	4986.8	
870.31	5558.9	
870.48	2835.1	
870.65	3646.7	
870.81	4777.2	
870.98	4811.4	
871.15	3308.2	
871.32	2981.2	
871.48	5075.5	
871.65	5584.8	
871.82	2911.5	
871.99	3157.3	
872.16	5877	
872.32	5392.3	
872.49	2949.1	
872.66	3018.7	
872.83	5190.9	
872.99	4668.7	
873.16	3346.4	
873.33	2924.5	
873.5	4905.6	
873.67	4997	
873.83	3073.3	
874	3848.1	
874.17	5041.4	
874.34	5810.8	
874.5	3697.3	
874.67	3551.2	
874.84	5435.3	
875.01	4374.5	
875.17	3958.7	
875.34	2920.4	
875.51	4966.3	
875.68	5973.9	
875.84	3470.6	
876.01	4172.4	
876.18	5221	
876.34	5078.3	
876.51	3009.8	
876.68	2893.1	
876.85	4758.8	
877.01	5400.5	
877.18	4113	
877.35	2839.8	
877.52	4956.8	
877.68	4459.1	
877.85	2894.5	
878.02	2919	
878.18	4805.2	
878.35	4636.6	
878.52	2385.9	
878.69	3286.3	
878.85	5283.8	
879.02	5160.2	
879.19	4070.7	
879.35	3163.4	
879.52	5214.1	
879.69	5269.4	
879.86	2573.6	
880.02	3225.6	
880.19	4882.4	
880.36	5870.8	
880.52	3310.2	
880.69	3442.6	
880.86	5216.9	
881.02	5305.6	
881.19	3237.8	
881.36	3161.4	
881.52	5184.8	
881.69	4621.6	
881.86	3164.1	
882.02	3072	
882.19	5365.7	
882.36	6253.1	
882.52	2991.4	
882.69	4059.8	
882.86	5065.3	
883.02	4931.5	
883.19	3538.2	
883.36	3361.4	
883.52	5251.7	
883.69	5911.8	
883.86	2982.5	
884.02	2680.8	
884.19	5250.3	
884.36	4853.7	
884.52	3293.1	
884.69	3190.1	
884.86	4672.1	
885.02	5636.7	
885.19	3280.2	
885.36	3327.3	
885.52	4814.8	
885.69	4942.4	
885.86	4160.8	
886.02	3664.5	
886.19	5281	
886.35	4733.5	
886.52	3305.4	
886.69	3994.2	
886.85	4513.7	
887.02	5466	
887.19	5466	
887.35	5466	
887.52	5466	
887.68	5466	
887.85	5466	
888.02	5466	
888.18	5466	
888.35	5466	
888.51	5466	
888.68	5466	
888.85	5466	
889.01	5466	
889.18	5466	
889.35	5466	
889.51	5466	
889.68	5466	
889.84	5466	
890.01	5466	
890.17	5466	
890.34	5466	
890.51	5466	
890.67	5466	
890.84	5466	
891	5466	
891.17	5466	
891.34	5466	
891.5	5466	
891.67	5466	
891.83	5466	
892	5466	
892.16	5466	
892.33	5466	
892.5	5466	
892.66	5466	
892.83	5466	
892.99	5466	
893.16	5466	
893.32	5466	
893.49	5466	
893.65	5466	
893.82	5466	
893.99	5466	
894.15	5466	
894.32	5466	
894.48	5466	
894.65	5466	
894.81	5466	
894.98	5466	
895.14	5466	
895.31	5466	
895.47	5466	
895.64	5466	
895.81	5466	
895.97	5466	
896.14	5466	
896.3	5466	
896.47	5466	
896.63	5466	
896.8	5466	
896.96	5466	
897.13	5466	
897.29	5466	
897.46	5466	
897.62	5466	
897.79	5466	
897.95	5466	
898.12	5466	
898.28	5466	
898.45	5466	
898.61	5466	
898.78	5466	
898.94	5466	
899.11	5466	
899.27	5466	
899.44	5466	
899.6	5466	
899.77	5466	
899.93	5466	
900.1	5466	
900.26	5466	
900.43	5466	
900.59	5466	
900.76	5466	
900.92	5466	
901.09	5466	
901.25	5466	
901.42	5466	
901.58	5466	
901.75	5466	
901.91	5466	
902.07	5466	
902.24	5466	
902.4	5466	
902.57	5466	
902.73	5466	
902.9	5466	
903.06	5466	
903.23	5466	
903.39	5466	
903.56	5466	
903.72	5466	
903.88	5466	
904.05	5466	
904.21	5466	
904.38	5466	
904.54	5466	
904.71	5466	
904.87	5466	
905.03	5466	
905.2	5466	
905.36	5466	
905.53	5466	
905.69	5466	
905.86	5466	
906.02	5466	
906.18	5466	
906.35	5466	
906.51	5466	
906.68	5466	
906.84	5466	
907.01	5466	
907.17	5466	
907.33	5466	
907.5	5466	
907.66	5466	
907.83	5466	
907.99	5466	
908.15	5466	
908.32	5466	
908.48	5466	
908.65	5466	
908.81	5466	
908.97	5466	
909.14	5466	
909.3	5466	
909.47	5466	
909.63	5466	
909.79	5466	
909.96	5466	
910.12	5466	
910.28	5466	
910.45	5466	
910.61	5466	
910.78	5466	
910.94	5466	
911.1	5466	
911.27	5466	
911.43	5466	
911.59	5466	
911.76	5466	
911.92	5466	
912.08	5466	
912.25	5466	
912.41	5466	
912.57	5466	
912.74	5466	
912.9	5466	
913.07	5466	
913.23	5466	
913.39	5466	
913.56	5466	
913.72	5466	
913.88	5466	
914.05	5466	
914.21	5466	
914.37	5466	
914.54	5466	
914.7	5466	
914.86	5466	
915.03	5466	
915.19	5466	
