Wavelength	Intensities	
nm	a.u.	
179.22	1877.1	
179.44	1889.9	
179.65	1864.3	
179.86	1915.5	
180.08	1869.8	
180.29	4851	
180.51	3485.6	
180.72	5711.8	
180.94	6583.5	
181.15	3226.9	
181.37	3191.4	
181.58	5503.6	
181.79	5788.2	
182.01	3373.7	
182.22	3591.5	
182.44	5735	
182.65	4817.5	
182.87	4512.4	
183.08	3972.4	
183.29	6025.1	
183.51	4973.2	
183.72	3611.9	
183.94	5266.7	
184.15	5365.7	
184.37	5421	
184.58	3151.8	
184.79	4396.3	
185.01	4986.8	
185.22	5701.5	
185.44	4673.5	
185.65	3908.9	
185.86	5298.1	
186.08	4919.9	
186.29	3127.9	
186.51	3373.7	
186.72	5035.3	
186.94	5961.6	
187.15	3848.1	
187.36	4024.9	
187.58	7699	
187.79	5547.3	
188.01	4136.2	
188.22	6528.9	
188.43	6647	
188.65	5719.3	
188.86	3353.9	
189.08	3990.8	
189.29	5160.9	
189.5	5165	
189.72	3687.7	
189.93	3725.9	
190.15	5915.9	
190.36	7116.7	
190.57	4153.3	
190.79	3959.4	
191	6066.1	
191.22	5950.7	
191.43	4082.3	
191.64	3333.4	
191.86	6128.2	
192.07	5917.9	
192.29	3461.1	
192.5	3748.5	
192.71	6010.1	
192.93	5094	
193.14	3681.6	
193.35	3740.3	
193.57	5094.7	
193.78	5862.7	
194	2932.7	
194.21	3594.9	
194.42	4947.2	
194.64	5410.1	
194.85	4028.4	
195.07	4706.2	
195.28	5452.4	
195.49	4706.9	
195.71	5005.9	
195.92	3418.1	
196.13	5523.4	
196.35	5682.4	
196.56	5257.1	
196.78	4074.1	
196.99	7014.3	
197.2	6590.4	
197.42	4560.1	
197.63	4052.2	
197.84	4798.4	
198.06	5583.4	
198.27	3689.1	
198.48	4875.5	
198.7	5156.1	
198.91	5283.8	
199.13	4018.8	
199.34	4032.5	
199.55	5810.1	
199.77	4689.2	
199.98	3586	
200.19	4138.3	
200.41	5343.8	
200.62	4977.9	
200.83	4230.4	
201.05	4495.3	
201.26	5283.8	
201.47	5040.1	
201.69	3563.5	
201.9	3422.2	
202.11	5321.3	
202.33	6410.1	
202.54	3843.4	
202.76	4272.1	
202.97	5562.3	
203.18	5546.6	
203.4	4252.3	
203.61	4085	
203.82	5474.2	
204.04	5108.3	
204.25	4057.7	
204.46	4050.9	
204.68	5406	
204.89	5634	
205.1	3945.8	
205.32	3371.6	
205.53	5823.7	
205.74	5903.6	
205.96	2890.4	
206.17	4087.7	
206.38	5735.7	
206.6	5880.4	
206.81	4635.2	
207.02	3748.5	
207.24	5581.4	
207.45	6064	
207.66	3809.9	
207.88	3284.9	
208.09	5577.3	
208.3	5406	
208.52	3533.4	
208.73	3893.9	
208.94	5395	
209.15	6127.5	
209.37	3876.8	
209.58	4055.7	
209.79	5948	
210.01	5147.9	
210.22	3072	
210.43	3279.5	
210.65	5331.5	
210.86	5792.3	
211.07	3887	
211.29	3536.8	
211.5	5764.3	
211.71	5287.2	
211.93	3502.7	
212.14	3531.4	
212.35	5316.5	
212.56	5535	
212.78	4096.6	
212.99	3330	
213.2	6373.3	
213.42	5152.7	
213.63	3715	
213.84	3899.3	
214.06	4826.4	
214.27	4901.5	
214.48	3809.9	
214.69	4138.3	
214.91	6147.3	
215.12	6142.5	
215.33	4142.4	
215.55	4523.3	
215.76	6578.8	
215.97	5752.1	
216.18	4020.8	
216.4	3857	
216.61	5039.4	
216.82	5816.2	
217.04	3602.4	
217.25	3726.6	
217.46	6006	
217.67	5773.2	
217.89	3186	
218.1	3267.2	
218.31	5490.6	
218.53	5524.1	
218.74	3736.9	
218.95	3601	
219.16	5365	
219.38	6329.6	
219.59	3614	
219.8	4317.8	
220.01	7043.6	
220.23	5458.5	
220.44	4699.4	
220.65	3473.4	
220.87	5489.9	
221.08	6039.5	
221.29	3302	
221.5	4379.2	
221.72	7402	
221.93	5107	
222.14	4132.1	
222.35	4794.3	
222.57	5365	
222.78	5783.5	
222.99	3803.8	
223.2	4111	
223.42	5738.4	
223.63	5846.3	
223.84	2921.1	
224.05	2944.3	
224.27	6911.2	
224.48	6244.9	
224.69	4782	
224.9	4057	
225.12	5593.7	
225.33	5362.3	
225.54	3209.2	
225.75	3597.6	
225.97	4976.6	
226.18	5202.5	
226.39	3849.5	
226.6	3611.9	
226.82	5193.6	
227.03	5011.4	
227.24	4079.6	
227.45	3350.5	
227.67	5760.9	
227.88	6348.7	
228.09	4547.2	
228.3	4548.5	
228.52	5838.1	
228.73	5331.5	
228.94	3764.2	
229.15	3362.8	
229.36	5326.8	
229.58	5180.7	
229.79	3769.6	
230	4385.4	
230.21	6468.2	
230.43	5436.7	
230.64	4002.4	
230.85	4209.9	
231.06	5844.9	
231.28	5764.3	
231.49	3388	
231.7	3943	
231.91	5698.8	
232.12	5407.3	
232.34	3463.1	
232.55	3943.7	
232.76	5997.1	
232.97	5520	
233.18	3518.4	
233.4	4076.1	
233.61	5655.1	
233.82	5132.9	
234.03	3722.5	
234.25	3670.6	
234.46	7434.8	
234.67	5423.7	
234.88	4128	
235.09	3635.8	
235.31	5721.3	
235.52	5259.9	
235.73	3990.8	
235.94	3373	
236.15	5111	
236.37	6567.2	
236.58	3538.9	
236.79	3824.2	
237	5698.8	
237.21	4928.1	
237.43	4197	
237.64	3270.6	
237.85	9849.4	
238.06	4977.9	
238.27	4302.1	
238.48	3373.7	
238.7	5732.9	
238.91	5279	
239.12	3839.3	
239.33	3913.7	
239.54	5085.8	
239.76	5315.8	
239.97	3796.9	
240.18	3853.6	
240.39	6791.1	
240.6	5717.9	
240.82	4007.2	
241.03	3250.1	
241.24	5341.1	
241.45	6176	
241.66	3465.2	
241.87	4173.1	
242.09	6080.4	
242.3	6559	
242.51	4193.6	
242.72	3883.6	
242.93	5838.8	
243.14	5338.4	
243.36	4485.7	
243.57	4818.2	
243.78	6255.2	
243.99	5763.7	
244.2	3902.1	
244.41	3510.9	
244.63	5026.4	
244.84	5741.8	
245.05	4149.9	
245.26	3888.4	
245.47	5659.9	
245.68	5933.6	
245.9	5213.4	
246.11	4075.5	
246.32	5188.2	
246.53	5618.9	
246.74	6291.4	
246.95	3261.7	
247.16	4899.4	
247.38	5438.7	
247.59	3222.8	
247.8	3890.5	
248.01	5126.7	
248.22	5365.7	
248.43	3516.4	
248.64	3799.7	
248.86	4801.8	
249.07	5204.6	
249.28	3403.7	
249.49	3976.5	
249.7	5909.1	
249.91	6073.6	
250.12	3213.3	
250.34	3277.4	
250.55	5580	
250.76	5399.8	
250.97	4008.6	
251.18	4058.4	
251.39	6125.5	
251.6	5574.6	
251.81	4176.5	
252.03	4087.7	
252.24	5052.3	
252.45	5966.4	
252.66	3343	
252.87	4272.7	
253.08	5427.8	
253.29	7084.6	
253.5	3361.4	
253.72	4752	
253.93	5212.1	
254.14	6463.4	
254.35	3661.8	
254.56	3812.6	
254.77	5674.9	
254.98	5029.8	
255.19	3654.9	
255.41	4717.8	
255.62	5509.7	
255.83	6000.5	
256.04	4169	
256.25	4121.2	
256.46	6588.3	
256.67	5060.5	
256.88	4012.7	
257.09	4453.6	
257.31	5070.1	
257.52	5066	
257.73	5031.9	
257.94	3657.7	
258.15	5235.3	
258.36	5397.8	
258.57	4651.6	
258.78	2933.4	
258.99	5864	
259.2	5186.1	
259.41	3669.3	
259.63	3769.6	
259.84	6265.4	
260.05	6660	
260.26	4865.3	
260.47	3566.9	
260.68	5993.7	
260.89	5300.8	
261.1	4461.8	
261.31	3478.8	
261.52	5947.3	
261.73	6337.1	
261.95	4769.7	
262.16	4177.9	
262.37	6024.4	
262.58	6214.9	
262.79	4775.2	
263	3749.1	
263.21	5319.9	
263.42	4926	
263.63	3801.7	
263.84	3751.9	
264.05	6060.6	
264.26	6320.7	
264.47	4648.9	
264.69	4175.8	
264.9	6093.4	
265.11	5593.7	
265.32	3596.2	
265.53	3694.5	
265.74	5513.1	
265.95	4831.8	
266.16	3966.2	
266.37	4321.9	
266.58	5556.8	
266.79	5162.9	
267	3637.2	
267.21	3374.4	
267.42	4952	
267.63	5365	
267.84	3846.1	
268.06	3340.2	
268.27	5868.1	
268.48	6183.5	
268.69	3721.8	
268.9	4495.3	
269.11	6127.5	
269.32	4831.2	
269.53	3858.4	
269.74	3570.3	
269.95	5748.6	
270.16	4790.2	
270.37	3866.6	
270.58	4458.4	
270.79	5232.6	
271	5936.4	
271.21	4171.7	
271.42	3895.2	
271.63	5526.8	
271.84	5018.9	
272.05	3050.8	
272.26	3435.1	
272.47	5388.2	
272.68	5589.6	
272.89	3693.2	
273.11	4351.9	
273.32	5205.3	
273.53	6356.9	
273.74	4195.6	
273.95	4073.4	
274.16	6069.5	
274.37	5459.2	
274.58	4199	
274.79	3377.1	
275	5532.9	
275.21	6077.7	
275.42	5038	
275.63	4437.3	
275.84	5636.7	
276.05	7134.4	
276.26	4128.7	
276.47	3777.1	
276.68	5247.6	
276.89	6426.5	
277.1	4409.3	
277.31	3424.9	
277.52	5670.8	
277.73	5853.1	
277.94	3381.9	
278.15	3755.3	
278.36	5618.3	
278.57	5101.5	
278.78	3726.6	
278.99	4247.5	
279.2	4976.6	
279.41	4971.8	
279.62	4871.4	
279.83	3414.6	
280.04	6668.9	
280.25	4949.9	
280.46	4939	
280.67	3861.1	
280.88	5031.2	
281.09	6032	
281.3	4059.1	
281.51	5179.3	
281.72	5141.1	
281.93	5915.2	
282.14	3626.3	
282.35	3897.3	
282.56	5880.4	
282.77	5926.8	
282.98	3771.7	
283.19	4623.6	
283.4	7153.6	
283.61	5368.4	
283.82	3376.4	
284.03	4834.6	
284.24	5543.9	
284.45	6041.5	
284.66	4818.9	
284.87	4687.8	
285.08	6019.7	
285.29	6139.1	
285.5	3284.3	
285.71	3854.3	
285.92	6089.3	
286.12	6713.9	
286.33	4773.1	
286.54	3715.7	
286.75	5955.5	
286.96	5249.6	
287.17	3429	
287.38	4722.6	
287.59	5076.9	
287.8	4954.7	
288.01	3829	
288.22	4358.1	
288.43	5978.7	
288.64	4927.4	
288.85	4486.4	
289.06	4297.3	
289.27	6014.9	
289.48	6376.7	
289.69	4821.6	
289.9	4369.7	
290.11	6025.1	
290.32	5175.9	
290.53	4564.2	
290.74	4245.4	
290.94	5846.3	
291.15	5902.9	
291.36	3667.2	
291.57	4305.5	
291.78	5146.5	
291.99	4888.5	
292.2	3500	
292.41	4167.6	
292.62	5984.8	
292.83	5724.8	
293.04	5225.1	
293.25	3476.8	
293.46	5177.3	
293.67	5988.3	
293.88	3683.6	
294.09	3476.8	
294.29	4936.3	
294.5	5550	
294.71	3861.8	
294.92	3743	
295.13	5221.6	
295.34	6472.3	
295.55	3286.3	
295.76	3389.4	
295.97	5759.6	
296.18	6571.9	
296.39	3372.3	
296.6	3607.8	
296.81	5457.8	
297.01	5858.6	
297.22	3832.4	
297.43	3631.7	
297.64	5046.9	
297.85	5111.7	
298.06	3007.1	
298.27	3276.1	
298.48	5429.8	
298.69	5117.2	
298.9	3908.9	
299.11	3556.6	
299.31	4931.5	
299.52	4950.6	
299.73	4229.1	
299.94	4092.5	
300.15	5395	
300.36	5053.7	
300.57	4137.6	
300.78	4108.9	
300.99	5249.6	
301.2	5548.6	
301.4	3577.8	
301.61	3947.1	
301.82	5785.5	
302.03	5890.6	
302.24	4422.9	
302.45	3469.9	
302.66	5719.3	
302.87	6139.8	
303.08	3637.9	
303.29	4968.4	
303.49	5119.2	
303.7	5462.6	
303.91	3221.5	
304.12	4739.7	
304.33	4936.3	
304.54	5470.1	
304.75	3701.4	
304.96	3487.7	
305.16	5766.4	
305.37	6543.3	
305.58	3112.9	
305.79	3327.3	
306	5769.1	
306.21	4842.1	
306.42	3682.2	
306.63	5604.6	
306.83	5285.1	
307.04	5937.1	
307.25	4047.5	
307.46	4003.1	
307.67	4614.8	
307.88	5888.6	
308.09	3605.1	
308.29	3723.9	
308.5	5535	
308.71	5982.1	
308.92	3914.4	
309.13	3518.4	
309.34	5358.9	
309.55	5347.9	
309.75	4481.6	
309.96	4074.8	
310.17	5770.5	
310.38	5122.7	
310.59	4373.1	
310.8	3429.7	
311.01	6083.8	
311.21	5250.3	
311.42	3381.9	
311.63	3582.6	
311.84	5162.2	
312.05	5583.4	
312.26	4031.8	
312.46	4409.3	
312.67	5253.7	
312.88	4937	
313.09	3523.2	
313.3	3447.4	
313.51	6165.8	
313.71	6522.8	
313.92	3479.5	
314.13	3702.7	
314.34	5608.7	
314.55	5358.2	
314.76	4543.8	
314.96	3979.2	
315.17	5457.2	
315.38	5817.6	
315.59	3567.6	
315.8	3364.8	
316.01	6279.1	
316.21	6357.6	
316.42	3375.1	
316.63	3880.9	
316.84	5264	
317.05	6079.1	
317.26	4190.1	
317.46	3719.1	
317.67	5340.4	
317.88	5769.1	
318.09	4498.7	
318.3	3273.3	
318.5	5145.9	
318.71	5691.3	
318.92	5725.4	
319.13	4139.6	
319.34	5907.7	
319.54	6051.1	
319.75	3223.5	
319.96	3139.5	
320.17	5798.5	
320.38	5990.3	
320.58	3227.6	
320.79	3872.7	
321	6007.4	
321.21	6154.1	
321.42	3839.3	
321.62	3220.8	
321.83	5057.8	
322.04	5401.9	
322.25	3716.4	
322.46	3446	
322.66	5583.4	
322.87	5708.4	
323.08	4354	
323.29	3428.3	
323.5	6477	
323.7	4941.7	
323.91	4798.4	
324.12	4291.2	
324.33	5448.3	
324.53	5775.3	
324.74	4148.5	
324.95	4374.5	
325.16	4799.1	
325.37	5254.4	
325.57	3504.1	
325.78	3601	
325.99	5495.4	
326.2	4887.8	
326.4	5039.4	
326.61	3249.4	
326.82	5367.7	
327.03	5540.4	
327.24	4987.5	
327.44	4760.8	
327.65	5693.4	
327.86	4603.2	
328.07	4121.9	
328.27	3431.7	
328.48	6117.3	
328.69	5001.8	
328.9	5066	
329.1	3713	
329.31	5290.6	
329.52	6215.6	
329.73	3521.1	
329.93	3975.1	
330.14	5371.1	
330.35	5708.4	
330.56	5823.7	
330.76	4390.2	
330.97	5189.6	
331.18	5632.6	
331.39	3951.9	
331.59	3195.5	
331.8	6042.9	
332.01	6184.2	
332.22	3638.6	
332.42	4134.8	
332.63	5519.3	
332.84	5131.5	
333.05	3952.6	
333.25	3596.9	
333.46	5199.8	
333.67	5389.6	
333.88	3661.8	
334.08	4111.6	
334.29	8165.3	
334.5	6136.4	
334.7	3445.4	
334.91	5067.4	
335.12	4969.1	
335.33	5876.3	
335.53	3891.1	
335.74	5724.8	
335.95	5184.8	
336.16	5094.7	
336.36	3871.3	
336.57	4552.6	
336.78	4929.5	
336.98	6039.5	
337.19	4877.6	
337.4	3786.7	
337.61	6562.4	
337.81	4926	
338.02	3616	
338.23	4651.6	
338.43	6218.3	
338.64	5042.1	
338.85	3530.7	
339.05	4648.2	
339.26	6270.9	
339.47	4829.8	
339.68	3515.7	
339.88	5242.1	
340.09	5648.3	
340.3	5917.3	
340.5	4160.1	
340.71	3181.2	
340.92	4884.4	
341.13	6159.6	
341.33	3444	
341.54	4208.6	
341.75	5699.5	
341.95	5242.1	
342.16	3992.2	
342.37	4353.3	
342.57	4997	
342.78	5402.5	
342.99	4412	
343.19	3167.5	
343.4	5842.2	
343.61	5697.4	
343.81	3796.9	
344.02	3456.3	
344.23	5806.7	
344.43	6266.8	
344.64	4387.4	
344.85	4336.2	
345.06	5689.9	
345.26	6065.4	
345.47	4051.6	
345.68	4884.4	
345.88	4763.6	
346.09	5945.9	
346.3	4148.5	
346.5	3179.8	
346.71	5409.4	
346.92	5154.1	
347.12	3251.5	
347.33	4047.5	
347.54	6006	
347.74	6453.8	
347.95	4054.3	
348.16	3062.4	
348.36	5170.4	
348.57	4944.5	
348.78	4061.8	
348.98	4371	
349.19	5360.9	
349.39	4886.5	
349.6	3308.8	
349.81	3607.2	
350.01	5685.2	
350.22	5084.4	
350.43	3904.8	
350.63	4743.1	
350.84	5439.4	
351.05	5236	
351.25	3618.1	
351.46	3166.2	
351.67	6084.5	
351.87	5165	
352.08	3789.4	
352.29	4306.2	
352.49	5820.3	
352.7	5975.3	
352.9	3442	
353.11	4353.3	
353.32	6593.8	
353.52	5218.9	
353.73	3420.8	
353.94	4397	
354.14	5672.2	
354.35	5553.4	
354.55	3504.8	
354.76	3892.5	
354.97	5678.3	
355.17	5464	
355.38	3295.2	
355.59	4625.7	
355.79	5100.8	
356	5502.9	
356.2	3881.6	
356.41	3375.7	
356.62	4860.5	
356.82	5351.3	
357.03	4205.2	
357.24	3776.5	
357.44	5117.2	
357.65	5228.5	
357.85	4999.1	
358.06	3926.6	
358.27	4857.8	
358.47	5074.2	
358.68	3260.4	
358.88	4131.4	
359.09	5628.5	
359.3	6032.6	
359.5	4807.9	
359.71	4341	
359.91	6485.2	
360.12	5825.1	
360.33	4160.8	
360.53	4584	
360.74	5119.2	
360.94	5187.5	
361.15	4358.1	
361.36	3561.4	
361.56	5890.6	
361.77	5399.1	
361.97	4874.8	
362.18	3846.8	
362.38	5918.6	
362.59	4981.3	
362.8	3502	
363	3338.9	
363.21	4833.9	
363.41	5426.4	
363.62	4061.1	
363.83	5077.6	
364.03	5511.8	
364.24	6543.3	
364.44	5188.9	
364.65	5118.6	
364.85	5272.2	
365.06	5156.1	
365.27	3680.9	
365.47	3762.1	
365.68	6341.9	
365.88	5300.1	
366.09	4132.8	
366.29	3754.6	
366.5	5637.4	
366.71	6044.9	
366.91	5148.6	
367.12	4325.3	
367.32	6633.4	
367.53	5870.2	
367.73	4165.6	
367.94	5249.6	
368.14	5748.6	
368.35	6691.4	
368.56	4230.4	
368.76	3727.3	
368.97	5859.9	
369.17	7567.9	
369.38	3716.4	
369.58	3931.4	
369.79	4960.2	
369.99	6213.5	
370.2	4959.5	
370.4	4040	
370.61	5673.6	
370.82	6860	
371.02	4023.6	
371.23	3328.6	
371.43	4821.6	
371.64	6162.3	
371.84	4005.8	
372.05	5260.5	
372.25	7566.6	
372.46	5972.6	
372.66	4042.7	
372.87	3934.8	
373.07	5967.8	
373.28	7638.9	
373.48	5044.1	
373.69	4760.8	
373.9	5413.5	
374.1	5476.3	
374.31	5010	
374.51	4489.1	
374.72	6303	
374.92	5223	
375.13	5173.2	
375.33	4305.5	
375.54	5887.2	
375.74	5300.8	
375.95	4425.7	
376.15	5677.7	
376.36	5864	
376.56	5678.3	
376.77	4488.5	
376.97	4949.3	
377.18	6998.6	
377.38	6002.6	
377.59	5335.6	
377.79	4007.2	
378	5789.6	
378.2	6221	
378.41	4091.2	
378.61	3958	
378.82	6267.5	
379.02	5453.1	
379.23	4156	
379.43	5237.3	
379.64	6382.8	
379.84	5940.5	
380.05	4005.8	
380.25	3962.8	
380.46	6025.8	
380.66	5648.3	
380.87	5350	
381.07	5704.3	
381.28	6670.2	
381.48	6107.7	
381.69	4055.7	
381.89	4138.3	
382.1	5031.9	
382.3	6262.7	
382.51	5177.9	
382.71	6053.1	
382.91	6099.5	
383.12	6636.1	
383.32	4431.8	
383.53	4671.4	
383.73	5868.1	
383.94	5726.8	
384.14	4549.2	
384.35	3669.3	
384.55	5616.2	
384.76	6185.5	
384.96	4446.8	
385.17	4756.7	
385.37	5991.7	
385.58	5334.3	
385.78	4779.3	
385.98	3640.6	
386.19	5523.4	
386.39	5924.8	
386.6	4167.6	
386.8	4413.4	
387.01	6073.6	
387.21	6062.7	
387.42	4852.3	
387.62	5400.5	
387.83	5380.7	
388.03	6055.2	
388.23	4502.8	
388.44	5348.6	
388.64	5076.2	
388.85	5234.6	
389.05	4889.2	
389.26	5427.1	
389.46	7120.8	
389.67	6496.2	
389.87	4758.1	
390.07	4868	
390.28	5753.4	
390.48	5341.8	
390.69	4057	
390.89	4339.6	
391.1	5489.9	
391.3	6481.8	
391.5	5543.9	
391.71	6149.4	
391.91	6171.2	
392.12	7209.5	
392.32	5700.9	
392.53	4806.6	
392.73	5535	
392.93	5741.1	
393.14	4510.3	
393.34	5288.5	
393.55	6219.7	
393.75	5676.3	
393.95	4547.2	
394.16	4500.8	
394.36	5511.1	
394.57	6168.5	
394.77	4018.1	
394.98	4457.7	
395.18	5497.4	
395.38	5735.7	
395.59	5396.4	
395.79	4244.8	
396	5669.5	
396.2	6136.4	
396.4	5143.8	
396.61	5023.7	
396.81	6335.7	
397.02	5564.3	
397.22	5373.2	
397.42	5421	
397.63	6346.7	
397.83	5486.5	
398.04	4209.3	
398.24	4818.9	
398.44	6106.4	
398.65	5154.7	
398.85	4123.2	
399.05	4261.1	
399.26	5522	
399.46	7245.7	
399.67	4629.8	
399.87	4349.2	
400.07	5907	
400.28	6273.6	
400.48	4448.2	
400.69	5544.5	
400.89	6489.3	
401.09	6918	
401.3	4377.2	
401.5	5421.7	
401.7	7149.5	
401.91	7424.6	
402.11	4660.5	
402.32	4847.5	
402.52	6475.7	
402.72	6326.2	
402.93	5066	
403.13	3885.7	
403.33	7121.5	
403.54	5825.1	
403.74	4787.5	
403.94	5729.5	
404.15	5988.3	
404.35	7148.1	
404.56	4594.3	
404.76	6392.4	
404.96	6514.6	
405.17	6238.8	
405.37	6171.9	
405.57	5177.3	
405.78	6537.8	
405.98	5973.2	
406.18	4617.5	
406.39	5525.4	
406.59	6433.4	
406.79	6105.7	
407	4388.8	
407.2	4597.7	
407.4	6518	
407.61	6696.9	
407.81	4586.1	
408.01	6756.2	
408.22	5494.7	
408.42	7578.2	
408.62	5738.4	
408.83	5204.6	
409.03	6217.6	
409.23	6034	
409.44	5281.7	
409.64	5586.2	
409.84	7062.8	
410.05	7077.8	
410.25	5478.3	
410.45	5211.4	
410.66	6551.5	
410.86	9004.2	
411.06	5599.1	
411.27	5465.3	
411.47	8791.2	
411.67	6761	
411.88	5765	
412.08	6045.6	
412.28	7404.8	
412.49	7887.4	
412.69	5545.2	
412.89	5557.5	
413.09	7729.7	
413.3	7604.8	
413.5	5611.4	
413.7	5248.9	
413.91	6788.3	
414.11	7706.5	
414.31	5416.9	
414.52	5930.9	
414.72	7314	
414.92	7292.8	
415.12	5414.1	
415.33	5968.5	
415.53	7666.9	
415.73	7793.9	
415.94	6419.7	
416.14	5790.3	
416.34	6667.5	
416.55	6483.9	
416.75	6998.6	
416.95	6442.9	
417.15	7609.6	
417.36	8401.5	
417.56	7273.7	
417.76	6262	
417.97	8061.5	
418.17	7703.8	
418.37	5810.8	
418.57	5904.3	
418.78	7474.4	
418.98	7158.3	
419.18	6793.8	
419.38	6650.4	
419.59	7204.8	
419.79	6744.6	
419.99	5730.9	
420.2	6154.1	
420.4	7703.8	
420.6	7900.4	
420.8	5691.3	
421.01	5495.4	
421.21	7463.5	
421.41	7709.9	
421.61	6150.1	
421.82	5745.9	
422.02	7070.3	
422.22	7975.5	
422.42	6561.7	
422.63	6109.1	
422.83	7122.2	
423.03	8413.7	
423.23	6203.3	
423.44	5124	
423.64	7253.9	
423.84	6937.8	
424.04	5650.3	
424.25	5328.8	
424.45	8094.9	
424.65	8033.5	
424.85	5137	
425.06	5737	
425.26	8091.5	
425.46	7074.4	
425.66	6173.9	
425.87	5725.4	
426.07	7856.7	
426.27	7703.1	
426.47	5980.1	
426.67	5334.3	
426.88	8198.7	
427.08	7623.2	
427.28	6242.9	
427.48	5244.8	
427.69	6583.5	
427.89	7192.5	
428.09	6180.8	
428.29	5359.5	
428.5	7922.9	
428.7	7395.9	
428.9	5259.9	
429.1	5821.7	
429.3	7326.9	
429.51	7669.6	
429.71	5561.6	
429.91	6301.6	
430.11	7550.9	
430.31	8230.1	
430.52	5909.1	
430.72	6113.9	
430.92	8191.2	
431.12	7681.9	
431.32	5557.5	
431.53	5935	
431.73	6641.6	
431.93	8282.7	
432.13	5459.9	
432.33	5304.2	
432.54	7069.6	
432.74	7456.7	
432.94	5229.1	
433.14	6293.4	
433.34	7569.3	
433.55	7167.2	
433.75	6285.9	
433.95	8065.6	
434.15	7337.9	
434.35	7089.4	
434.56	5456.5	
434.76	4968.4	
434.96	7322.2	
435.16	7683.3	
435.36	5321.3	
435.56	6494.1	
435.77	7055.9	
435.97	7211.6	
436.17	7201.3	
436.37	6421.7	
436.57	7032	
436.78	6921.5	
436.98	8158.4	
437.18	7088	
437.38	7735.2	
437.58	7212.9	
437.78	7165.8	
437.99	5777.3	
438.19	7677.8	
438.39	9170.8	
438.59	5728.2	
438.79	5223	
438.99	8314.8	
439.2	7164.5	
439.4	5278.3	
439.6	5239.4	
439.8	7557.7	
440	8639	
440.2	6457.9	
440.4	6525.5	
440.61	7993.9	
440.81	8560.5	
441.01	5598.5	
441.21	6523.5	
441.41	8325.7	
441.61	7992.5	
441.81	6833.4	
442.02	7841.7	
442.22	8809.7	
442.42	8084	
442.62	5631.9	
442.82	5771.9	
443.02	8352.3	
443.22	7520.1	
443.43	6185.5	
443.63	5656.5	
443.83	7280.5	
444.03	7264.8	
444.23	6939.2	
444.43	6563.7	
444.63	7617.1	
444.83	8915.5	
445.04	5733.6	
445.24	7070.3	
445.44	7886	
445.64	8075.8	
445.84	6550.8	
446.04	6571.2	
446.24	7285.3	
446.44	8305.9	
446.65	5696.8	
446.85	6158.2	
447.05	7585	
447.25	8307.2	
447.45	6219.7	
447.65	5530.2	
447.85	7662.1	
448.05	7348.1	
448.25	6673.6	
448.46	6411.5	
448.66	7637.6	
448.86	7365.2	
449.06	5546.6	
449.26	6639.5	
449.46	8067.6	
449.66	7019.1	
449.86	6224.5	
450.06	6084.5	
450.26	7264.1	
450.47	7854.6	
450.67	6406	
450.87	6735.1	
451.07	7937.2	
451.27	7710.6	
451.47	5685.8	
451.67	6299.6	
451.87	7299	
452.07	8524.3	
452.27	5924.1	
452.47	5885.2	
452.67	7672.4	
452.88	8218.5	
453.08	5233.9	
453.28	7238.2	
453.48	8798.1	
453.68	7555.6	
453.88	5866.1	
454.08	6111.8	
454.28	7983	
454.48	7692.2	
454.68	6625.9	
454.88	7148.8	
455.08	8126.3	
455.28	7909.3	
455.48	5692.7	
455.68	6328.2	
455.89	8703.2	
456.09	8224.6	
456.29	6046.3	
456.49	6107	
456.69	8493.6	
456.89	7740	
457.09	6720.1	
457.29	6998.6	
457.49	8056	
457.69	8304.5	
457.89	6509.1	
458.09	5902.2	
458.29	7877.9	
458.49	8618.5	
458.69	6961	
458.89	6380.8	
459.09	8867.7	
459.29	8941.4	
459.49	6435.4	
459.69	7318.8	
459.9	8413.1	
460.1	7892.9	
460.3	6369.9	
460.5	6137.8	
460.7	8398.7	
460.9	8055.3	
461.1	5864.7	
461.3	7131.7	
461.5	8975.6	
461.7	8630.1	
461.9	6272.9	
462.1	6752.8	
462.3	8170	
462.5	8810.4	
462.7	6365.8	
462.9	6497.5	
463.1	9747.6	
463.3	9546.9	
463.5	6709.1	
463.7	7607.5	
463.9	8389.2	
464.1	8855.4	
464.3	6804	
464.5	7180.9	
464.7	8990.6	
464.9	8746.2	
465.1	8420.6	
465.3	7415.7	
465.5	9379.7	
465.7	9295	
465.9	7639.6	
466.1	7443	
466.3	9242.5	
466.5	9004.2	
466.7	8368.7	
466.9	7283.3	
467.1	8895.7	
467.3	9909.4	
467.5	8350.9	
467.7	7166.5	
467.9	10155	
468.1	10897	
468.3	8038.3	
468.5	8462.2	
468.7	8907.3	
468.9	8886.8	
469.1	7539.3	
469.3	8227.4	
469.5	11008	
469.7	8505.2	
469.9	7936.6	
470.1	7223.2	
470.3	8981	
470.5	8922.3	
470.7	8578.9	
470.9	7344	
471.1	8712.1	
471.3	9100.5	
471.5	7030.7	
471.69	9026.1	
471.89	8505.2	
472.09	8104.5	
472.29	7921.5	
472.49	8331.1	
472.69	8309.3	
472.89	9067	
473.09	7023.2	
473.29	7124.2	
473.49	8431.5	
473.69	8676.6	
473.89	8077.2	
474.09	7209.5	
474.29	9834.3	
474.49	9513.5	
474.69	8066.3	
474.89	7346.1	
475.09	8607.6	
475.29	8596	
475.49	6800.6	
475.69	7056.6	
475.88	10178	
476.08	8836.3	
476.28	6636.1	
476.48	7163.1	
476.68	9325.1	
476.88	9149.6	
477.08	6997.2	
477.28	7354.9	
477.48	8705.9	
477.68	9320.3	
477.88	6883.9	
478.08	7116	
478.28	9488.2	
478.48	8783.7	
478.67	7240.9	
478.87	6653.9	
479.07	9495.1	
479.27	8804.9	
479.47	7373.4	
479.67	7350.2	
479.87	9194.7	
480.07	9776.3	
480.27	6623.8	
480.47	8353.7	
480.67	8872.5	
480.87	9536	
481.06	6884.6	
481.26	7727	
481.46	8746.9	
481.66	8742.1	
481.86	7311.9	
482.06	8342.1	
482.26	8487.5	
482.46	9430.9	
482.66	7368.6	
482.86	6896.2	
483.05	8829.5	
483.25	8305.2	
483.45	9748.3	
483.65	7404.1	
483.85	8442.4	
484.05	8763.3	
484.25	7815.7	
484.45	8221.2	
484.65	9681.4	
484.84	9621.4	
485.04	7234.1	
485.24	7269.6	
485.44	9862.3	
485.64	8285.4	
485.84	6612.9	
486.04	7966.6	
486.24	8633.6	
486.44	9002.9	
486.63	6528.9	
486.83	7371.3	
487.03	8520.9	
487.23	8737.3	
487.43	6685.9	
487.63	9155.1	
487.83	8800.8	
488.02	9930.6	
488.22	7721.5	
488.42	8295.6	
488.62	9740.1	
488.82	8656.1	
489.02	7360.4	
489.22	7372.7	
489.41	9583.8	
489.61	9190.6	
489.81	7042.3	
490.01	7026.6	
490.21	9445.9	
490.41	10150	
490.61	7067.5	
490.8	7180.9	
491	8906.6	
491.2	8300.4	
491.4	7761.8	
491.6	6812.9	
491.8	8910.7	
491.99	9045.2	
492.19	6731.7	
492.39	7170.6	
492.59	9499.2	
492.79	9570.8	
492.99	7970	
493.18	7082.6	
493.38	9614.5	
493.58	10486	
493.78	7864.2	
493.98	7474.4	
494.18	9411.8	
494.37	8736	
494.57	8098.4	
494.77	8045.1	
494.97	9557.9	
495.17	9928.6	
495.37	7593.2	
495.56	7875.8	
495.76	10086	
495.96	9707.4	
496.16	8824.7	
496.36	7700.4	
496.55	9902.6	
496.75	9441.1	
496.95	8078.6	
497.15	7938.6	
497.35	9858.2	
497.54	9859.6	
497.74	7734.5	
497.94	9527.2	
498.14	10576	
498.34	10355	
498.53	7531.1	
498.73	8311.3	
498.93	9204.3	
499.13	9836.4	
499.33	8028.7	
499.52	8696.4	
499.72	9790.7	
499.92	10164	
500.12	7691.5	
500.32	8069	
500.51	10135	
500.71	9845.3	
500.91	8841.1	
501.11	8497	
501.31	10017	
501.5	10452	
501.7	9023.4	
501.9	8017.1	
502.1	9783.8	
502.29	10097	
502.49	8513.4	
502.69	8872.5	
502.89	9938.1	
503.09	9917.6	
503.28	7438.2	
503.48	7672.4	
503.68	9163.3	
503.88	9225.4	
504.07	8634.9	
504.27	8054	
504.47	9533.3	
504.67	9671.2	
504.86	8442.4	
505.06	8158.4	
505.26	9280.7	
505.46	11021	
505.65	8002.1	
505.85	8253.3	
506.05	9067	
506.25	9523.7	
506.44	7237.5	
506.64	8205.5	
506.84	8937.3	
507.04	9846.6	
507.23	7491.5	
507.43	8060.1	
507.63	10984	
507.83	9256.8	
508.02	7936.6	
508.22	7524.9	
508.42	11102	
508.62	8906.6	
508.81	7796.6	
509.01	8423.3	
509.21	8695	
509.4	9043.1	
509.6	7987.1	
509.8	7425.9	
510	9084.1	
510.19	10502	
510.39	7336.5	
510.59	7470.3	
510.79	8823.3	
510.98	10234	
511.18	7548.1	
511.38	7617.8	
511.57	9701.2	
511.77	9433.6	
511.97	8355.7	
512.17	7266.9	
512.36	9684.2	
512.56	9590	
512.76	7356.3	
512.95	7030	
513.15	9824.8	
513.35	8448.6	
513.55	8224.6	
513.74	7412.3	
513.94	9774.3	
514.14	9185.8	
514.33	8302.5	
514.53	8206.9	
514.73	9096.4	
514.92	9264.3	
515.12	7604.8	
515.32	7454.6	
515.51	9312.1	
515.71	10005	
515.91	9106	
516.11	7481.2	
516.3	11032	
516.5	8982.4	
516.7	8099.7	
516.89	8672.5	
517.09	9216.5	
517.29	9055.4	
517.48	8382.3	
517.68	7798.7	
517.88	8882	
518.07	9484.1	
518.27	8427.4	
518.47	7390.4	
518.66	10198	
518.86	8705.9	
519.06	7240.9	
519.25	7620.5	
519.45	9027.4	
519.65	10527	
519.84	8316.1	
520.04	9039.7	
520.24	10905	
520.43	9720.3	
520.63	7912.7	
520.83	7745.4	
521.02	8888.2	
521.22	9682.8	
521.42	8304.5	
521.61	8777.6	
521.81	9146.2	
522.01	9343.5	
522.2	8125.7	
522.4	7855.3	
522.6	9866.4	
522.79	8631.5	
522.99	8088.8	
523.18	7310.6	
523.38	9689.6	
523.58	9652.8	
523.77	9263	
523.97	7316	
524.17	11521	
524.36	10721	
524.56	8856.1	
524.76	8438.3	
524.95	9645.3	
525.15	9325.8	
525.34	8178.9	
525.54	8264.9	
525.74	10075	
525.93	9083.4	
526.13	9380.4	
526.33	8199.4	
526.52	10385	
526.72	9867.1	
526.91	9434.3	
527.11	8708	
527.31	10424	
527.5	10890	
527.7	8624.7	
527.89	7635.5	
528.09	9383.8	
528.29	9973.6	
528.48	9056.8	
528.68	8655.4	
528.87	10310	
529.07	10363	
529.27	8512.7	
529.46	8056.7	
529.66	9880.8	
529.85	10361	
530.05	7976.8	
530.25	8734.6	
530.44	11308	
530.64	9842.5	
530.83	8321.6	
531.03	8625.4	
531.23	10351	
531.42	10285	
531.62	9426.1	
531.81	8554.4	
532.01	10478	
532.21	10906	
532.4	8348.9	
532.6	8675.2	
532.79	11237	
532.99	10613	
533.18	8845.9	
533.38	9807	
533.58	10162	
533.77	10823	
533.97	8714.8	
534.16	9537.4	
534.36	11052	
534.55	10219	
534.75	9664.4	
534.95	8797.4	
535.14	11021	
535.34	10206	
535.53	8511.4	
535.73	10401	
535.92	11626	
536.12	10325	
536.31	8447.2	
536.51	9786.6	
536.71	10609	
536.9	10158	
537.1	8639	
537.29	8903.9	
537.49	11103	
537.68	10086	
537.88	9377.6	
538.07	8454.7	
538.27	10394	
538.46	11415	
538.66	8350.9	
538.86	8838.4	
539.05	10426	
539.25	10817	
539.44	9005.6	
539.64	8765.3	
539.83	10299	
540.03	11262	
540.22	8559.1	
540.42	8543.4	
540.61	10419	
540.81	10745	
541	9059.5	
541.2	9814.5	
541.39	9982.5	
541.59	10295	
541.78	9445.2	
541.98	8500.4	
542.18	9678.7	
542.37	9619.3	
542.57	8841.1	
542.76	9441.8	
542.96	9751.1	
543.15	10415	
543.35	8819.9	
543.54	8107.2	
543.74	10707	
543.93	10215	
544.13	8700.5	
544.32	9791.3	
544.52	10464	
544.71	9602.2	
544.91	7806.2	
545.1	9087.5	
545.3	9688.3	
545.49	10354	
545.69	7761.8	
545.88	8391.9	
546.08	11354	
546.27	10995	
546.47	8896.4	
546.66	8214.4	
546.86	10468	
547.05	11163	
547.24	8469.7	
547.44	8312.7	
547.63	9478.7	
547.83	10682	
548.02	8647.9	
548.22	8843.1	
548.41	9344.2	
548.61	10617	
548.8	8231.5	
549	8112.7	
549.19	10006	
549.39	10301	
549.58	7841.7	
549.78	8457.4	
549.97	10445	
550.17	9919	
550.36	9342.8	
550.55	10413	
550.75	9759.3	
550.94	10873	
551.14	8171.4	
551.33	8619.9	
551.53	9184.5	
551.72	10249	
551.92	8538	
552.11	8274.5	
552.31	10286	
552.5	10343	
552.69	9996.1	
552.89	7882.6	
553.08	10260	
553.28	9912.9	
553.47	8269.7	
553.67	9401.5	
553.86	10905	
554.06	9157.8	
554.25	7395.2	
554.44	8123.6	
554.64	11590	
554.83	11211	
555.03	8056.7	
555.22	8394.6	
555.42	10398	
555.61	10045	
555.8	8168	
556	8528.4	
556.19	9310.7	
556.39	10484	
556.58	8226	
556.78	8308.6	
556.97	9971.6	
557.16	9728.5	
557.36	9549.7	
557.55	7892.9	
557.75	8955.1	
557.94	10818	
558.13	8049.9	
558.33	7753.6	
558.52	10525	
558.72	9418.6	
558.91	7871.7	
559.1	8114.1	
559.3	9056.1	
559.49	8803.5	
559.69	7361.8	
559.88	8382.3	
560.07	9995.5	
560.27	10323	
560.46	8559.8	
560.66	8691.6	
560.85	9714.9	
561.04	8865.7	
561.24	7822.6	
561.43	7968.6	
561.63	9164	
561.82	9419.3	
562.01	9245.9	
562.21	8305.2	
562.4	9939.5	
562.59	10862	
562.79	8110	
562.98	7763.8	
563.18	9799.5	
563.37	11199	
563.56	8643.8	
563.76	7673.7	
563.95	9231.6	
564.14	9146.2	
564.34	8097	
564.53	7880.6	
564.73	9758.6	
564.92	9966.8	
565.11	8276.5	
565.31	7716.7	
565.5	10281	
565.69	9283.4	
565.89	7937.9	
566.08	8131.8	
566.27	10175	
566.47	10552	
566.66	8742.8	
566.85	7380.2	
567.05	9743.6	
567.24	9161.9	
567.44	7720.2	
567.63	9055.4	
567.82	9948.3	
568.02	9727.2	
568.21	7779.6	
568.4	8053.3	
568.6	9504.6	
568.79	9484.1	
568.98	7543.4	
569.18	7670.3	
569.37	9457.5	
569.56	11507	
569.76	8082.6	
569.95	9066.4	
570.14	9740.1	
570.34	9686.2	
570.53	7455.3	
570.72	7377.5	
570.91	10269	
571.11	9276.6	
571.3	7800	
571.49	8822.6	
571.69	9312.8	
571.88	8865.7	
572.07	8380.3	
572.27	8447.2	
572.46	8781	
572.65	9923.1	
572.85	7716.1	
573.04	8048.5	
573.23	10143	
573.43	9471.9	
573.62	7300.3	
573.81	8064.9	
574	9400.9	
574.2	9267.1	
574.39	7678.5	
574.58	7821.9	
574.78	10300	
574.97	9491	
575.16	8211.7	
575.36	8353.7	
575.55	9944.3	
575.74	10038	
575.93	7325.6	
576.13	8429.4	
576.32	9123	
576.51	9824.1	
576.71	7727	
576.9	9051.3	
577.09	10139	
577.28	9723.1	
577.48	8270.4	
577.67	7223.9	
577.86	9321.7	
578.05	9630.2	
578.25	7921.5	
578.44	7944.8	
578.63	9424.8	
578.83	10667	
579.02	7290.8	
579.21	8839.7	
579.4	9686.9	
579.6	9300.5	
579.79	8097.7	
579.98	10210	
580.17	10006	
580.37	10037	
580.56	7535.8	
580.75	8330.5	
580.94	10540	
581.14	10404	
581.33	8774.9	
581.52	7679.9	
581.71	9936.1	
581.91	10658	
582.1	7436.9	
582.29	8018.5	
582.48	9630.9	
582.68	9480.7	
582.87	8548.2	
583.06	8116.1	
583.25	9903.3	
583.45	9224.7	
583.64	8826.7	
583.83	9516.2	
584.02	9316.2	
584.21	9828.2	
584.41	8779.6	
584.6	8066.3	
584.79	9670.5	
584.98	10263	
585.18	7503.1	
585.37	7511.9	
585.56	9143.5	
585.75	9828.2	
585.94	7696.9	
586.14	8430.8	
586.33	10411	
586.52	9493.7	
586.71	8214.4	
586.91	7886	
587.1	8863.6	
587.29	9917.6	
587.48	7814.4	
587.67	7677.2	
587.87	9715.6	
588.06	9653.4	
588.25	8960.5	
588.44	8135.9	
588.63	9241.1	
588.83	9676.7	
589.02	7521.5	
589.21	7360.4	
589.4	8754.4	
589.59	8654.7	
589.78	6412.9	
589.98	6616.3	
590.17	8051.9	
590.36	8700.5	
590.55	6017.6	
590.74	6809.5	
590.94	9943.6	
591.13	8443.1	
591.32	6548	
591.51	6059.9	
591.7	8954.4	
591.89	8441.7	
592.09	6281.8	
592.28	6815.6	
592.47	7736.5	
592.66	9704.6	
592.85	6275.7	
593.05	6604.7	
593.24	8320.9	
593.43	9046.6	
593.62	6565.8	
593.81	7085.3	
594	8387.8	
594.19	8578.3	
594.39	6516.6	
594.58	6550.8	
594.77	8747.6	
594.96	9349.7	
595.15	6482.5	
595.34	7214.3	
595.54	8772.1	
595.73	7879.2	
595.92	5887.9	
596.11	7014.3	
596.3	9247.3	
596.49	7946.8	
596.68	6820.4	
596.88	7262.1	
597.07	9086.8	
597.26	7785.7	
597.45	6322.1	
597.64	7632.1	
597.83	8157.7	
598.02	8791.9	
598.22	6516.6	
598.41	7213.6	
598.6	8661.5	
598.79	8091.5	
598.98	6580.8	
599.17	7477.8	
599.36	8661.5	
599.55	9891	
599.74	8639	
599.94	8430.8	
600.13	9256.1	
600.32	8117.5	
600.51	6402.6	
600.7	6546	
600.89	9914.9	
601.08	9969.5	
601.27	6403.3	
601.47	7389.8	
601.66	9226.8	
601.85	9968.8	
602.04	7107.8	
602.23	7187	
602.42	8338.6	
602.61	9054.8	
602.8	7032	
602.99	6840.9	
603.18	8721.6	
603.37	9024.7	
603.57	7517.4	
603.76	8115.4	
603.95	9807.7	
604.14	9303.2	
604.33	6971.3	
604.52	7390.4	
604.71	8845.9	
604.9	8507.3	
605.09	7831.4	
605.28	7733.8	
605.47	9579.7	
605.66	9254.1	
605.86	7561.1	
606.05	6897.6	
606.24	9534.7	
606.43	8049.2	
606.62	7341.3	
606.81	8103.8	
607	9425.4	
607.19	8691.6	
607.38	6728.3	
607.57	6981.5	
607.76	8429.4	
607.95	7983.7	
608.14	7455.3	
608.33	7999.4	
608.52	8432.9	
608.72	9334.6	
608.91	6629.3	
609.1	6524.8	
609.29	8596	
609.48	8051.2	
609.67	7548.1	
609.86	6574	
610.05	8159.1	
610.24	8458.8	
610.43	6455.2	
610.62	6028.5	
610.81	9587.2	
611	9370.8	
611.19	6567.2	
611.38	7306.5	
611.57	8811	
611.76	10096	
611.95	6389	
612.14	6223.8	
612.33	8612.4	
612.52	8135.2	
612.71	6991.1	
612.9	6102.9	
613.09	7770.7	
613.28	10128	
613.47	6569.2	
613.66	7684.7	
613.85	8677.9	
614.04	8195.3	
614.24	6707.8	
614.43	5881.1	
614.62	8776.9	
614.81	8763.9	
615	7307.2	
615.19	7366.5	
615.38	8023.9	
615.57	8449.2	
615.76	7096.2	
615.95	8046.5	
616.14	8858.1	
616.33	8471.8	
616.52	7442.3	
616.71	7684	
616.9	8766	
617.09	8590.5	
617.28	6797.9	
617.47	8044.4	
617.66	7854	
617.85	7884	
618.04	7666.9	
618.22	7060	
618.41	8191.2	
618.6	9159.2	
618.79	7051.2	
618.98	6747.4	
619.17	9417.2	
619.36	7760.4	
619.55	6869.6	
619.74	6932.4	
619.93	8671.1	
620.12	8129.1	
620.31	7452.6	
620.5	7701	
620.69	9323	
620.88	9623.4	
621.07	8314.8	
621.26	7331	
621.45	8890.2	
621.64	8853.4	
621.83	7499	
622.02	6556.2	
622.21	8875.2	
622.4	8611	
622.59	7985.7	
622.78	7799.3	
622.97	8148.2	
623.16	9230.9	
623.35	7337.2	
623.54	6511.2	
623.72	8443.8	
623.91	8535.3	
624.1	7633.5	
624.29	6229.9	
624.48	9697.1	
624.67	8877.9	
624.86	7460.1	
625.05	6576.7	
625.24	9766.8	
625.43	8076.5	
625.62	9211.1	
625.81	6767.9	
626	9118.2	
626.19	8375.5	
626.38	7462.1	
626.56	6840.2	
626.75	8120.2	
626.94	8977.6	
627.13	7455.3	
627.32	6132.3	
627.51	8749.6	
627.7	10029	
627.89	6177.4	
628.08	7251.9	
628.27	7946.1	
628.46	8125.7	
628.65	6461.3	
628.83	6069.5	
629.02	8727.8	
629.21	7959.1	
629.4	6892.8	
629.59	7198.6	
629.78	7989.1	
629.97	8929.8	
630.16	7299.6	
630.35	6735.8	
630.54	9432.3	
630.72	9068.4	
630.91	6570.6	
631.1	7245	
631.29	8518.9	
631.48	8742.1	
631.67	7271	
631.86	6764.4	
632.05	8168	
632.24	8178.2	
632.42	6494.8	
632.61	7051.2	
632.8	8401.5	
632.99	7928.4	
633.18	6991.1	
633.37	7470.3	
633.56	8642.4	
633.75	8411.7	
633.93	7083.9	
634.12	6682.5	
634.31	9407.7	
634.5	9026.1	
634.69	6752.2	
634.88	7322.2	
635.07	8359.1	
635.25	8933.9	
635.44	7700.4	
635.63	7944.8	
635.82	8272.4	
636.01	7746.8	
636.2	7587	
636.39	7208.8	
636.57	9352.4	
636.76	9030.9	
636.95	6549.4	
637.14	7989.8	
637.33	8634.2	
637.52	9646.6	
637.7	6390.3	
637.89	7402.7	
638.08	8247.9	
638.27	9685.5	
638.46	7442.3	
638.65	7871	
638.83	9695.1	
639.02	8013.7	
639.21	7275.8	
639.4	7884	
639.59	8596.7	
639.78	8105.2	
639.96	6608.1	
640.15	6647	
640.34	8429.4	
640.53	8507.9	
640.72	6261.3	
640.91	6745.3	
641.09	7795.3	
641.28	9155.8	
641.47	6836.8	
641.66	7451.9	
641.85	8476.5	
642.03	8773.5	
642.22	7193.1	
642.41	6759.7	
642.6	7866.2	
642.79	7325.6	
642.97	6404	
643.16	7217	
643.35	7800	
643.54	7628.7	
643.73	6433.4	
643.91	7166.5	
644.1	7454.6	
644.29	8062.9	
644.48	6361.7	
644.67	6414.9	
644.85	7627.3	
645.04	7819.8	
645.23	5870.2	
645.42	6224.5	
645.6	7335.1	
645.79	8558.5	
645.98	6161.7	
646.17	5140.4	
646.36	6995.9	
646.54	7692.9	
646.73	6796.5	
646.92	5617.6	
647.11	7238.9	
647.29	8311.3	
647.48	5741.1	
647.67	5505.6	
647.86	8670.4	
648.05	8565.3	
648.23	6096.8	
648.42	7407.5	
648.61	7959.1	
648.8	7699	
648.98	5784.1	
649.17	6068.8	
649.36	7301	
649.55	6853.9	
649.73	5757.5	
649.92	6610.2	
650.11	7230	
650.3	7595.9	
650.48	5925.5	
650.67	5727.5	
650.86	7819.1	
651.05	6642.2	
651.23	5901.6	
651.42	5821	
651.61	7283.3	
651.79	7359.7	
651.98	6083.1	
652.17	5756.8	
652.36	7770	
652.54	6815.6	
652.73	5756.2	
652.92	5625.1	
653.11	7863.5	
653.29	7897.7	
653.48	5065.3	
653.67	6098.2	
653.85	7543.4	
654.04	8626.7	
654.23	6291.4	
654.42	5750	
654.6	7043	
654.79	7675.8	
654.98	5317.2	
655.16	5829.2	
655.35	6670.2	
655.54	6620.4	
655.73	5392.3	
655.91	5316.5	
656.1	7778.2	
656.29	6672.3	
656.47	4953.4	
656.66	6666.8	
656.85	6941.2	
657.03	6996.5	
657.22	5508.4	
657.41	5516.5	
657.59	7098.9	
657.78	6891.4	
657.97	5177.9	
658.16	5893.4	
658.34	7777.5	
658.53	8137.3	
658.72	6903.7	
658.9	7364.5	
659.09	7191.1	
659.28	7271	
659.46	5658.5	
659.65	5636.7	
659.84	6926.9	
660.02	7506.5	
660.21	5561.6	
660.4	5530.9	
660.58	8016.4	
660.77	7343.3	
660.96	6159.6	
661.14	5177.3	
661.33	8428.1	
661.52	8286.8	
661.7	5126.7	
661.89	8908	
662.08	6932.4	
662.26	6492.1	
662.45	5483.1	
662.64	5541.1	
662.82	7661.5	
663.01	6804	
663.2	5593	
663.38	6339.8	
663.57	7577.5	
663.75	7399.3	
663.94	5866.7	
664.13	7130.3	
664.31	6961.7	
664.5	7619.8	
664.69	6290	
664.87	6693.4	
665.06	6638.8	
665.25	7501	
665.43	6968.6	
665.62	7035.5	
665.8	7783	
665.99	7055.9	
666.18	5878.4	
666.36	6040.8	
666.55	7731.8	
666.74	7596.6	
666.92	5506.3	
667.11	7192.5	
667.29	7064.1	
667.48	7757.7	
667.67	6771.3	
667.85	5921.4	
668.04	7068.2	
668.22	7109.2	
668.41	5963	
668.6	6097.5	
668.78	6814.3	
668.97	7153.6	
669.15	6291.4	
669.34	5238	
669.53	6884.6	
669.71	7226.6	
669.9	5458.5	
670.08	6087.9	
670.27	6967.9	
670.46	7510.6	
670.64	6287.9	
670.83	6503	
671.01	6793.1	
671.2	7348.8	
671.38	5599.8	
671.57	5414.1	
671.76	7993.9	
671.94	8574.2	
672.13	5377.3	
672.31	6537.1	
672.5	7533.8	
672.69	6941.9	
672.87	5550	
673.06	5788.9	
673.24	7404.8	
673.43	6913.3	
673.61	6248.4	
673.8	5823.7	
673.98	7630.7	
674.17	7767.3	
674.36	6436.1	
674.54	6219.7	
674.73	7312.6	
674.91	7587.7	
675.1	5953.4	
675.28	5590.3	
675.47	7087.3	
675.65	7598.6	
675.84	5730.9	
676.03	6163	
676.21	6918.7	
676.4	6490	
676.58	6621.8	
676.77	6282.5	
676.95	8391.2	
677.14	6793.8	
677.32	5455.1	
677.51	5190.9	
677.69	7714.7	
677.88	6444.3	
678.06	5383.4	
678.25	5455.1	
678.44	7023.9	
678.62	6837.5	
678.81	5062.6	
678.99	6152.8	
679.18	7934.5	
679.36	7466.2	
679.55	5739.1	
679.73	6358.3	
679.92	7419.8	
680.1	6862.7	
680.29	7001.3	
680.47	5844.9	
680.66	6772.6	
680.84	7673.1	
681.03	5003.9	
681.21	6131.6	
681.4	6851.8	
681.58	6776	
681.77	5400.5	
681.95	5401.9	
682.14	7673.1	
682.32	8066.3	
682.51	6367.8	
682.69	5259.9	
682.88	6690	
683.06	7449.1	
683.25	6027.9	
683.43	6587.6	
683.62	7058	
683.8	7422.5	
683.99	6617.7	
684.17	5935	
684.36	8305.2	
684.54	6885.3	
684.73	4995.7	
684.91	5205.3	
685.1	7148.8	
685.28	6521.4	
685.46	5662.6	
685.65	5732.9	
685.83	7286.7	
686.02	6677.7	
686.2	5139	
686.39	5339.1	
686.57	6408.1	
686.76	8071.7	
686.94	5187.5	
687.13	5433.9	
687.31	7191.1	
687.5	6740.5	
687.68	4880.3	
687.86	6200.6	
688.05	8512.7	
688.23	6200.6	
688.42	6169.8	
688.6	5302.9	
688.79	6647	
688.97	6673	
689.16	5776.6	
689.34	4650.9	
689.52	7350.8	
689.71	7651.2	
689.89	5940.5	
690.08	5251	
690.26	6849.1	
690.45	6725.5	
690.63	6160.3	
690.81	5397.8	
691	6580.1	
691.18	6443.6	
691.37	5445.5	
691.55	7718.1	
691.74	6441.5	
691.92	8411	
692.1	5529.5	
692.29	4854.4	
692.47	6591	
692.66	5986.9	
692.84	5155.4	
693.02	5781.4	
693.21	6101.6	
693.39	6638.8	
693.58	5866.7	
693.76	5296	
693.94	7922.2	
694.13	7718.1	
694.31	5370.5	
694.5	6413.6	
694.68	6620.4	
694.86	7076.4	
695.05	5733.6	
695.23	5887.9	
695.42	7279.8	
695.6	9713.5	
695.78	6395.8	
695.97	5544.5	
696.15	7489.4	
696.34	6794.5	
696.52	5170.4	
696.7	6013.5	
696.89	7071.6	
697.07	6410.1	
697.25	5945.9	
697.44	7402.7	
697.62	6999.3	
697.81	7397.3	
697.99	5618.3	
698.17	6098.9	
698.36	6346.7	
698.54	7085.3	
698.72	5905	
698.91	4902.2	
699.09	6599.9	
699.28	6504.3	
699.46	5550.7	
699.64	5504.3	
699.83	6516	
700.01	7776.8	
700.19	6343.9	
700.38	4774.5	
700.56	7737.9	
700.74	6662.7	
700.93	5260.5	
701.11	6109.1	
701.29	7298.3	
701.48	8417.8	
701.66	5525.4	
701.84	5541.1	
702.03	6898.2	
702.21	7610.3	
702.39	5059.2	
702.58	5702.2	
702.76	7245	
702.94	7498.3	
703.13	5159.5	
703.31	7537.9	
703.49	6617	
703.68	7565.2	
703.86	5357.5	
704.04	6315.9	
704.23	7141.9	
704.41	7481.9	
704.59	5549.3	
704.78	6806.8	
704.96	8294.3	
705.14	7675.8	
705.33	5335	
705.51	6289.3	
705.69	7056.6	
705.87	7929.7	
706.06	6510.5	
706.24	5354.8	
706.42	7377.5	
706.61	7716.7	
706.79	6599.9	
706.97	5412.1	
707.16	6889.4	
707.34	7492.8	
707.52	6554.2	
707.7	5662	
707.89	7030.7	
708.07	6737.8	
708.25	6559.6	
708.44	6669.6	
708.62	7003.4	
708.8	8196.7	
708.98	6837.5	
709.17	5831.9	
709.35	7420.5	
709.53	7509.2	
709.72	5526.8	
709.9	5696.8	
710.08	7696.9	
710.26	7819.8	
710.45	7186.3	
710.63	5881.8	
710.81	7417.1	
710.99	7420.5	
711.18	6429.9	
711.36	5967.8	
711.54	7223.9	
711.72	7910.6	
711.91	5942.5	
712.09	5488.6	
712.27	7281.9	
712.45	7985.7	
712.64	6219	
712.82	5126.7	
713	6623.1	
713.18	6782.2	
713.37	5237.3	
713.55	6457.9	
713.73	7585.7	
713.91	6120	
714.1	5453.1	
714.28	4866	
714.46	7056.6	
714.64	6279.1	
714.83	4188.8	
715.01	5019.6	
715.19	6254.5	
715.37	5693.4	
715.55	4659.8	
715.74	5045.5	
715.92	7159.7	
716.1	5242.1	
716.28	6201.9	
716.47	5261.2	
716.65	5862.7	
716.83	6111.8	
717.01	5090.6	
717.19	5178.6	
717.38	8105.9	
717.56	5702.9	
717.74	5449.6	
717.92	4596.3	
718.1	7043	
718.29	6286.6	
718.47	4265.9	
718.65	4935.6	
718.83	7081.2	
719.01	7000	
719.2	4227.7	
719.38	5382.7	
719.56	6655.9	
719.74	8251.3	
719.92	4908.3	
720.11	6029.2	
720.29	6692.1	
720.47	5871.5	
720.65	4370.4	
720.83	5228.5	
721.02	6069.5	
721.2	5844.2	
721.38	5292	
721.56	4508.3	
721.74	5309.7	
721.92	5615.5	
722.11	5762.3	
722.29	5459.2	
722.47	6825.9	
722.65	5978.7	
722.83	4584.7	
723.01	5487.2	
723.2	6124.1	
723.38	6360.3	
723.56	3943	
723.74	5145.9	
723.92	5511.1	
724.1	6790.4	
724.29	4484.4	
724.47	5724.1	
724.65	5655.8	
724.83	5542.5	
725.01	4421.6	
725.19	5257.1	
725.37	5710.4	
725.56	5761.6	
725.74	4343.1	
725.92	4555.4	
726.1	5655.8	
726.28	5915.2	
726.46	4986.1	
726.64	4700.1	
726.83	5958.2	
727.01	6232	
727.19	4225.6	
727.37	5177.3	
727.55	6078.4	
727.73	6584.2	
727.91	4268	
728.09	4133.5	
728.28	6730.3	
728.46	7349.5	
728.64	5317.9	
728.82	5329.5	
729	7887.4	
729.18	7103.7	
729.36	4577.9	
729.54	7019.1	
729.72	8296.3	
729.91	6503	
730.09	6728.9	
730.27	5395	
730.45	6438.8	
730.63	7188.4	
730.81	6085.9	
730.99	5124.7	
731.17	7742	
731.35	6329.6	
731.53	5686.5	
731.71	5287.2	
731.9	7369.3	
732.08	7575.4	
732.26	5543.2	
732.44	5188.9	
732.62	7622.5	
732.8	7111.2	
732.98	5925.5	
733.16	4959.5	
733.34	7086	
733.52	5882.4	
733.7	5448.3	
733.88	5799.8	
734.07	6970.6	
734.25	6818.4	
734.43	5045.5	
734.61	6657.3	
734.79	8299.7	
734.97	6728.3	
735.15	5251	
735.33	5533.6	
735.51	7086	
735.69	6768.5	
735.87	7066.2	
736.05	5831.2	
736.23	7004.1	
736.41	6788.3	
736.59	5674.9	
736.77	5745.9	
736.95	7575.4	
737.13	6877.8	
737.32	5411.4	
737.5	5618.9	
737.68	8168	
737.86	6795.2	
738.04	5283.8	
738.22	7077.8	
738.4	6705.7	
738.58	6970.6	
738.76	5950	
738.94	4805.9	
739.12	6771.9	
739.3	6761.7	
739.48	6582.9	
739.66	6266.8	
739.84	7206.1	
740.02	7092.1	
740.2	4986.1	
740.38	5366.4	
740.56	7513.3	
740.74	6371.2	
740.92	6088.6	
741.1	5933.6	
741.28	6934.4	
741.46	6799.9	
741.64	5659.9	
741.82	6113.9	
742	6993.1	
742.18	6944.7	
742.36	5833.3	
742.54	5375.9	
742.72	7582.9	
742.9	6354.8	
743.08	6195.8	
743.26	5009.3	
743.44	7851.2	
743.62	7628	
743.8	6378.7	
743.98	5357.5	
744.16	7386.3	
744.34	7030.7	
744.52	6280.4	
744.7	6272.2	
744.88	7485.3	
745.06	6932.4	
745.24	6318	
745.42	6377.4	
745.6	7513.3	
745.78	7282.6	
745.96	5102.2	
746.14	5414.1	
746.32	8316.8	
746.5	7520.8	
746.68	5961.6	
746.86	5384.1	
747.03	8019.2	
747.21	6275	
747.39	5971.2	
747.57	5455.1	
747.75	7029.3	
747.93	7552.2	
748.11	5384.8	
748.29	5380.7	
748.47	8791.9	
748.65	6845	
748.83	6171.9	
749.01	5847.6	
749.19	7314.7	
749.37	6474.3	
749.55	5768.4	
749.73	5764.3	
749.91	7017.7	
750.09	6676.4	
750.26	5898.8	
750.44	5210.7	
750.62	7071	
750.8	7056.6	
750.98	5092.6	
751.16	5496.7	
751.34	7098.3	
751.52	6413.6	
751.7	6290	
751.88	5131.5	
752.06	7546.1	
752.24	7363.1	
752.42	5021.6	
752.59	5429.2	
752.77	6906.4	
752.95	8246.5	
753.13	6163.7	
753.31	5569.1	
753.49	6676.4	
753.67	7087.3	
753.85	5864	
754.03	5367.7	
754.21	7305.8	
754.38	7684	
754.56	5536.3	
754.74	4533.5	
754.92	6417.7	
755.1	7096.9	
755.28	4416.1	
755.46	4279.6	
755.64	7595.2	
755.82	7670.3	
755.99	4361.5	
756.17	4470	
756.35	5007.3	
756.53	6581.5	
756.71	3288.4	
756.89	4214	
757.07	6126.8	
757.25	5237.3	
757.42	4786.1	
757.6	5766.4	
757.78	6255.2	
757.96	5257.8	
758.14	4563.6	
758.32	3966.9	
758.5	4807.3	
758.67	5698.1	
758.85	4303.5	
759.03	4441.4	
759.21	5898.2	
759.39	5281.7	
759.57	3914.4	
759.75	5040.1	
759.92	6545.3	
760.1	5698.8	
760.28	5517.2	
760.46	5788.9	
760.64	5551.4	
760.82	5362.3	
760.99	5212.1	
761.17	4575.2	
761.35	6492.1	
761.53	5440.1	
761.71	4827.7	
761.89	5591.6	
762.06	6494.1	
762.24	5901.6	
762.42	4906.9	
762.6	4729.4	
762.78	6028.5	
762.96	6796.5	
763.13	5400.5	
763.31	5181.4	
763.49	6916.7	
763.67	6077	
763.85	5959.6	
764.02	6523.5	
764.2	7273.7	
764.38	6378.1	
764.56	4973.8	
764.74	5853.8	
764.91	7372	
765.09	6191.7	
765.27	4684.4	
765.45	4524.6	
765.63	7385	
765.8	7235.5	
765.98	4191.5	
766.16	4504.8	
766.34	5729.5	
766.52	5504.3	
766.69	5574.6	
766.87	4402.5	
767.05	6194.4	
767.23	7012.2	
767.41	4687.8	
767.58	4967.7	
767.76	6739.9	
767.94	6844.3	
768.12	4800.4	
768.29	5608.7	
768.47	6280.4	
768.65	7070.3	
768.83	4362.2	
769	5488.6	
769.18	5845.6	
769.36	6563.7	
769.54	5539.8	
769.72	4464.6	
769.89	6811.5	
770.07	6908.5	
770.25	4748.6	
770.43	6029.2	
770.6	7627.3	
770.78	8006.9	
770.96	4903.5	
771.14	5530.9	
771.31	6602	
771.49	5995.1	
771.67	4056.3	
771.85	4312.3	
772.02	5214.1	
772.2	6083.1	
772.38	5089.2	
772.55	4503.5	
772.73	6367.1	
772.91	6055.2	
773.09	4921.3	
773.26	4984.8	
773.44	6274.3	
773.62	5924.1	
773.8	4379.9	
773.97	4131.4	
774.15	6266.8	
774.33	5885.9	
774.5	4255.7	
774.68	4678.9	
774.86	6492.1	
775.04	5922	
775.21	4394.3	
775.39	4369	
775.57	6142.5	
775.74	6566.5	
775.92	4174.4	
776.1	4102.8	
776.27	6080.4	
776.45	7383.6	
776.63	4300.1	
776.81	3856.3	
776.98	5782.8	
777.16	6862.1	
777.34	4483	
777.51	4431.8	
777.69	5655.8	
777.87	5503.6	
778.04	4459.8	
778.22	5039.4	
778.4	5483.1	
778.57	6110.5	
778.75	3753.9	
778.93	4034.5	
779.1	5268.7	
779.28	5160.2	
779.46	3718.4	
779.64	4173.1	
779.81	6325.5	
779.99	7220.5	
780.17	5075.5	
780.34	5256.5	
780.52	5758.9	
780.69	5939.1	
780.87	4593.6	
781.05	4078.2	
781.22	5768.4	
781.4	5887.2	
781.58	4193.6	
781.75	3360.7	
781.93	5778	
782.11	5217.5	
782.28	5089.2	
782.46	4207.9	
782.64	5057.1	
782.81	6027.2	
782.99	4266.6	
783.17	4203.1	
783.34	5838.8	
783.52	5034.6	
783.69	4451.6	
783.87	5265.3	
784.05	5068	
784.22	5139.7	
784.4	5294	
784.58	4482.3	
784.75	6132.3	
784.93	5156.8	
785.1	4180.6	
785.28	4807.3	
785.46	5786.2	
785.63	5122	
785.81	4111.6	
785.99	3952.6	
786.16	5281	
786.34	5645.6	
786.51	4039.3	
786.69	4443.4	
786.87	4903.5	
787.04	5367.7	
787.22	3834.5	
787.39	4840.7	
787.57	5053.7	
787.75	6305	
787.92	5025.7	
788.1	5039.4	
788.27	5236.7	
788.45	4960.9	
788.63	4679.6	
788.8	3333.4	
788.98	5659.9	
789.15	4845.5	
789.33	3422.2	
789.5	4144.4	
789.68	6062.7	
789.86	6208.8	
790.03	4579.9	
790.21	4044.1	
790.38	6047.7	
790.56	5247.6	
790.73	3850.9	
790.91	3887.7	
791.09	5068	
791.26	5883.1	
791.44	4117.8	
791.61	3521.8	
791.79	5073.5	
791.96	5133.6	
792.14	3673.4	
792.32	3207.8	
792.49	5112.4	
792.67	5200.5	
792.84	3738.9	
793.02	3522.5	
793.19	5547.3	
793.37	6335.7	
793.54	3258.3	
793.72	3627.6	
793.89	6500.3	
794.07	5102.2	
794.25	4243.4	
794.42	3317	
794.6	6193.7	
794.77	5829.9	
794.95	4471.4	
795.12	3900.7	
795.3	5081	
795.47	5745.2	
795.65	4309.6	
795.82	4172.4	
796	4880.3	
796.17	6836.8	
796.35	3996.3	
796.52	4709	
796.7	5596.4	
796.87	5770.5	
797.05	4971.1	
797.22	4825	
797.4	5702.9	
797.57	6739.2	
797.75	4116.4	
797.92	3883.6	
798.1	5966.4	
798.27	5092.6	
798.45	3343	
798.62	3633.1	
798.8	5396.4	
798.97	5924.1	
799.15	4362.9	
799.32	4080.9	
799.5	4626.4	
799.67	5494.7	
799.85	4465.9	
800.02	3274	
800.2	5024.3	
800.37	5361.6	
800.55	4632.5	
800.72	3863.8	
800.9	5816.2	
801.07	6287.3	
801.25	5257.1	
801.42	4333.5	
801.6	5905.7	
801.77	5610.8	
801.95	4017.4	
802.12	3824.2	
802.29	5628.5	
802.47	5574.6	
802.64	4222.2	
802.82	3195.5	
802.99	4939	
803.17	6070.2	
803.34	4132.1	
803.52	3716.4	
803.69	6737.1	
803.87	4796.3	
804.04	4111	
804.21	4159.4	
804.39	6156.9	
804.56	5195	
804.74	3523.2	
804.91	4239.3	
805.09	5051.7	
805.26	5152	
805.44	3523.2	
805.61	3928	
805.78	5738.4	
805.96	5722.7	
806.13	4302.8	
806.31	4582.7	
806.48	4599.1	
806.66	5106.3	
806.83	4236.6	
807	4147.8	
807.18	5023	
807.35	5455.1	
807.53	4115.7	
807.7	3300.6	
807.87	6221.7	
808.05	5115.8	
808.22	4610.7	
808.4	3327.3	
808.57	5089.2	
808.74	4706.2	
808.92	3770.3	
809.09	4889.9	
809.27	4976.6	
809.44	5607.3	
809.61	3323.2	
809.79	3727.3	
809.96	6224.5	
810.14	5846.3	
810.31	3237.2	
810.48	3989.4	
810.66	5182	
810.83	5965.7	
811.01	3784.6	
811.18	4212	
811.35	5836.7	
811.53	4518.5	
811.7	4550.6	
811.87	4227	
812.05	5034.6	
812.22	4936.3	
812.39	3629	
812.57	3536.2	
812.74	5118.6	
812.92	6828.6	
813.09	4059.1	
813.26	4306.2	
813.44	6532.3	
813.61	5023	
813.78	3336.1	
813.96	4498	
814.13	5129.5	
814.3	4715.8	
814.48	4835.9	
814.65	4003.1	
814.82	6379.4	
815	4851	
815.17	4068.6	
815.34	4978.6	
815.52	4962.9	
815.69	5009.3	
815.87	4060.4	
816.04	3507.5	
816.21	5126.7	
816.38	4453	
816.56	3973.7	
816.73	3629	
816.9	6403.3	
817.08	5868.8	
817.25	3722.5	
817.42	4722.6	
817.6	4625	
817.77	5162.2	
817.94	4177.2	
818.12	3626.3	
818.29	4810.7	
818.46	7684	
818.64	3807.2	
818.81	3562.8	
818.98	4772.4	
819.16	6968.6	
819.33	4397	
819.5	4074.1	
819.67	5447.6	
819.85	6135.7	
820.02	3960.8	
820.19	4315.8	
820.37	5308.3	
820.54	4846.2	
820.71	4173.8	
820.88	5128.8	
821.06	5350	
821.23	4885.8	
821.4	4147.8	
821.58	4164.2	
821.75	5792.3	
821.92	5236.7	
822.09	3311.6	
822.27	3458.3	
822.44	5137	
822.61	4962.9	
822.79	3325.9	
822.96	6481.1	
823.13	5616.9	
823.3	4827.1	
823.48	3861.1	
823.65	3480.2	
823.82	5773.2	
823.99	4608.6	
824.17	4921.3	
824.34	3531.4	
824.51	6668.2	
824.68	5134.3	
824.86	3719.8	
825.03	4140.3	
825.2	5070.1	
825.37	6193.7	
825.55	3705.5	
825.72	4047.5	
825.89	6799.3	
826.06	6253.8	
826.24	3952.6	
826.41	3984	
826.58	6191	
826.75	5397.8	
826.92	3100.6	
827.1	3464.5	
827.27	8527.7	
827.44	6791.7	
827.61	3743.7	
827.79	4628.4	
827.96	4805.9	
828.13	5215.5	
828.3	3976.5	
828.47	3326.6	
828.65	5318.6	
828.82	5257.8	
828.99	5086.5	
829.16	4555.4	
829.34	5769.8	
829.51	5502.9	
829.68	4065.2	
829.85	4255.7	
830.02	5973.2	
830.2	5769.8	
830.37	3216	
830.54	4975.9	
830.71	6483.9	
830.88	5020.3	
831.05	3170.9	
831.23	3730.7	
831.4	6206	
831.57	7062.1	
831.74	3778.5	
831.91	3313.6	
832.09	5250.3	
832.26	5680.4	
832.43	3938.2	
832.6	4413.4	
832.77	5351.3	
832.94	6114.6	
833.12	3091.1	
833.29	3926	
833.46	4965	
833.63	7275.1	
833.8	4293.2	
833.97	4001	
834.15	5707.7	
834.32	5470.8	
834.49	4073.4	
834.66	4138.3	
834.83	5907.7	
835	4822.3	
835.17	3772.4	
835.35	3790.8	
835.52	5603.9	
835.69	5499.5	
835.86	4028.4	
836.03	3272.7	
836.2	5684.5	
836.37	5300.1	
836.55	3868.6	
836.72	3675.4	
836.89	5238	
837.06	5739.8	
837.23	4013.3	
837.4	4436.6	
837.57	6528.9	
837.75	7305.1	
837.92	3617.4	
838.09	3855	
838.26	5263.3	
838.43	5930.2	
838.6	4091.8	
838.77	3702	
838.94	6840.2	
839.11	6567.8	
839.29	3897.3	
839.46	3039.9	
839.63	5668.8	
839.8	5433.9	
839.97	3831.7	
840.14	3847.5	
840.31	5420.3	
840.48	5696.1	
840.65	3178.4	
840.82	3724.6	
841	5659.2	
841.17	5634.6	
841.34	3524.6	
841.51	3546.4	
841.68	5651	
841.85	5380	
842.02	3639.2	
842.19	2952.5	
842.36	5453.7	
842.53	5455.8	
842.7	3558.7	
842.87	4329.4	
843.05	7231.4	
843.22	5353.4	
843.39	3330	
843.56	3707.5	
843.73	5104.9	
843.9	5722.7	
844.07	5760.9	
844.24	4791.6	
844.41	8438.3	
844.58	4924	
844.75	3418.7	
844.92	3674.1	
845.09	5702.2	
845.26	5657.2	
845.43	3438.5	
845.6	3682.2	
845.77	5692.7	
845.94	5412.8	
846.12	3873.4	
846.29	4197	
846.46	5908.4	
846.63	5685.2	
846.8	3523.2	
846.97	4216.1	
847.14	6121.4	
847.31	5583.4	
847.48	3950.5	
847.65	4431.1	
847.82	5970.5	
847.99	5915.9	
848.16	4695.3	
848.33	4383.3	
848.5	5288.5	
848.67	6191	
848.84	3426.9	
849.01	3666.5	
849.18	5119.9	
849.35	4726	
849.52	4447.5	
849.69	3422.8	
849.86	5884.5	
850.03	6085.9	
850.2	3521.1	
850.37	4280.3	
850.54	6090.7	
850.71	5339.1	
850.88	4273.4	
851.05	3456.3	
851.22	5517.2	
851.39	6161	
851.56	3252.9	
851.73	3986.7	
851.9	5003.2	
852.07	5983.5	
852.24	3902.1	
852.41	3439.9	
852.58	5566.4	
852.75	5086.5	
852.92	3904.8	
853.09	3423.5	
853.26	5281	
853.43	6101.6	
853.6	3494.5	
853.77	2966.1	
853.94	6232.7	
854.11	5626.5	
854.28	5229.8	
854.44	3776.5	
854.61	6649.8	
854.78	5771.9	
854.95	3480.2	
855.12	4381.3	
855.29	4568.3	
855.46	6378.1	
855.63	3456.3	
855.8	4849.6	
855.97	5216.9	
856.14	6056.5	
856.31	4949.3	
856.48	3781.2	
856.65	5211.4	
856.82	5018.2	
856.99	3373	
857.16	3832.4	
857.33	6892.8	
857.49	5330.9	
857.66	3743	
857.83	4066.6	
858	5284.4	
858.17	5530.2	
858.34	3246.7	
858.51	3531.4	
858.68	6352.8	
858.85	6468.2	
859.02	4090.5	
859.19	4289.1	
859.36	4973.8	
859.52	5056.4	
859.69	3515	
859.86	4096.6	
860.03	5063.3	
860.2	6191.7	
860.37	3155.9	
860.54	3508.9	
860.71	5888.6	
860.88	6324.8	
861.05	3946.4	
861.21	4420.9	
861.38	6327.5	
861.55	4929.5	
861.72	3174.4	
861.89	4012.7	
862.06	6003.3	
862.23	6474.3	
862.4	3383.9	
862.56	3646.1	
862.73	5808.7	
862.9	5401.9	
863.07	4130.8	
863.24	3164.8	
863.41	4895.3	
863.58	4992.9	
863.75	3566.9	
863.91	4032.5	
864.08	6290.7	
864.25	5812.1	
864.42	4427	
864.59	4890.5	
864.76	6656.6	
864.93	5003.9	
865.09	3422.8	
865.26	3740.3	
865.43	6181.5	
865.6	6608.1	
865.77	3037.8	
865.94	3473.4	
866.1	6238.1	
866.27	5978	
866.44	5247.6	
866.61	3306.8	
866.78	5367	
866.95	5805.3	
867.11	3378.5	
867.28	3095.8	
867.45	6004	
867.62	5041.4	
867.79	4074.8	
867.96	3412.6	
868.12	4958.8	
868.29	5954.8	
868.46	3513.6	
868.63	4660.5	
868.8	6152.8	
868.97	5851	
869.13	3673.4	
869.3	3652.9	
869.47	5793	
869.64	5981.4	
869.81	3514.3	
869.97	3525.2	
870.14	5692	
870.31	6363	
870.48	3359.4	
870.65	4438.6	
870.81	5300.1	
870.98	5236	
871.15	3988.1	
871.32	3617.4	
871.48	5752.7	
871.65	6392.4	
871.82	3476.8	
871.99	3868.6	
872.16	6875.7	
872.32	6197.8	
872.49	3522.5	
872.66	3564.1	
872.83	5937.7	
872.99	5148.6	
873.16	4121.9	
873.33	3465.8	
873.5	5535	
873.67	5614.8	
873.83	3684.3	
874	4617.5	
874.17	5699.5	
874.34	6774	
874.5	4552	
874.67	4399.7	
874.84	6381.5	
875.01	4928.8	
875.17	4933.6	
875.34	3456.3	
875.51	5619.6	
875.68	6793.1	
875.84	4230.4	
876.01	5203.2	
876.18	5858.6	
876.34	5814.9	
876.51	3489.1	
876.68	3403	
876.85	5369.8	
877.01	6150.7	
877.18	5012.1	
877.35	3476.8	
877.52	5455.8	
877.68	4900.1	
877.85	3394.2	
878.02	3454.9	
878.18	5457.2	
878.35	5171.1	
878.52	2792.1	
878.69	3927.3	
878.85	5954.1	
879.02	5812.1	
879.19	5003.2	
879.35	3835.2	
879.52	5855.1	
879.69	6075.6	
879.86	3028.3	
880.02	3904.1	
880.19	5436	
880.36	6644.3	
880.52	4006.5	
880.69	4179.2	
880.86	5982.8	
881.02	6029.2	
881.19	3852.2	
881.36	3784	
881.52	5849.7	
881.69	5241.4	
881.86	3808.5	
882.02	3636.5	
882.19	6165.1	
882.36	7294.9	
882.52	3566.9	
882.69	4945.2	
882.86	5614.2	
883.02	5539.8	
883.19	4287.1	
883.36	3977.2	
883.52	5933	
883.69	6859.3	
883.86	3569.6	
884.02	3171.6	
884.19	5949.3	
884.36	5440.8	
884.52	3964.9	
884.69	3716.4	
884.86	5204.6	
885.02	6502.3	
885.19	3902.7	
885.36	4057.7	
885.52	5486.5	
885.69	5702.9	
885.86	5085.1	
886.02	4532.8	
886.19	5950.7	
886.35	5385.5	
886.52	3861.8	
886.69	4872.8	
886.85	5051	
887.02	6286.6	
887.19	6286.6	
887.35	6286.6	
887.52	6286.6	
887.68	6286.6	
887.85	6286.6	
888.02	6286.6	
888.18	6286.6	
888.35	6286.6	
888.51	6286.6	
888.68	6286.6	
888.85	6286.6	
889.01	6286.6	
889.18	6286.6	
889.35	6286.6	
889.51	6286.6	
889.68	6286.6	
889.84	6286.6	
890.01	6286.6	
890.17	6286.6	
890.34	6286.6	
890.51	6286.6	
890.67	6286.6	
890.84	6286.6	
891	6286.6	
891.17	6286.6	
891.34	6286.6	
891.5	6286.6	
891.67	6286.6	
891.83	6286.6	
892	6286.6	
892.16	6286.6	
892.33	6286.6	
892.5	6286.6	
892.66	6286.6	
892.83	6286.6	
892.99	6286.6	
893.16	6286.6	
893.32	6286.6	
893.49	6286.6	
893.65	6286.6	
893.82	6286.6	
893.99	6286.6	
894.15	6286.6	
894.32	6286.6	
894.48	6286.6	
894.65	6286.6	
894.81	6286.6	
894.98	6286.6	
895.14	6286.6	
895.31	6286.6	
895.47	6286.6	
895.64	6286.6	
895.81	6286.6	
895.97	6286.6	
896.14	6286.6	
896.3	6286.6	
896.47	6286.6	
896.63	6286.6	
896.8	6286.6	
896.96	6286.6	
897.13	6286.6	
897.29	6286.6	
897.46	6286.6	
897.62	6286.6	
897.79	6286.6	
897.95	6286.6	
898.12	6286.6	
898.28	6286.6	
898.45	6286.6	
898.61	6286.6	
898.78	6286.6	
898.94	6286.6	
899.11	6286.6	
899.27	6286.6	
899.44	6286.6	
899.6	6286.6	
899.77	6286.6	
899.93	6286.6	
900.1	6286.6	
900.26	6286.6	
900.43	6286.6	
900.59	6286.6	
900.76	6286.6	
900.92	6286.6	
901.09	6286.6	
901.25	6286.6	
901.42	6286.6	
901.58	6286.6	
901.75	6286.6	
901.91	6286.6	
902.07	6286.6	
902.24	6286.6	
902.4	6286.6	
902.57	6286.6	
902.73	6286.6	
902.9	6286.6	
903.06	6286.6	
903.23	6286.6	
903.39	6286.6	
903.56	6286.6	
903.72	6286.6	
903.88	6286.6	
904.05	6286.6	
904.21	6286.6	
904.38	6286.6	
904.54	6286.6	
904.71	6286.6	
904.87	6286.6	
905.03	6286.6	
905.2	6286.6	
905.36	6286.6	
905.53	6286.6	
905.69	6286.6	
905.86	6286.6	
906.02	6286.6	
906.18	6286.6	
906.35	6286.6	
906.51	6286.6	
906.68	6286.6	
906.84	6286.6	
907.01	6286.6	
907.17	6286.6	
907.33	6286.6	
907.5	6286.6	
907.66	6286.6	
907.83	6286.6	
907.99	6286.6	
908.15	6286.6	
908.32	6286.6	
908.48	6286.6	
908.65	6286.6	
908.81	6286.6	
908.97	6286.6	
909.14	6286.6	
909.3	6286.6	
909.47	6286.6	
909.63	6286.6	
909.79	6286.6	
909.96	6286.6	
910.12	6286.6	
910.28	6286.6	
910.45	6286.6	
910.61	6286.6	
910.78	6286.6	
910.94	6286.6	
911.1	6286.6	
911.27	6286.6	
911.43	6286.6	
911.59	6286.6	
911.76	6286.6	
911.92	6286.6	
912.08	6286.6	
912.25	6286.6	
912.41	6286.6	
912.57	6286.6	
912.74	6286.6	
912.9	6286.6	
913.07	6286.6	
913.23	6286.6	
913.39	6286.6	
913.56	6286.6	
913.72	6286.6	
913.88	6286.6	
914.05	6286.6	
914.21	6286.6	
914.37	6286.6	
914.54	6286.6	
914.7	6286.6	
914.86	6286.6	
915.03	6286.6	
915.19	6286.6	
