Wavelength	Intensities	
nm	a.u.	
179.22	1887.2	
179.44	1880	
179.65	1894.4	
179.86	1865.7	
180.08	1884.8	
180.29	4882.4	
180.51	3509.5	
180.72	5632.6	
180.94	6612.9	
181.15	3223.5	
181.37	3203.7	
181.58	5468.8	
181.79	5739.8	
182.01	3339.6	
182.22	3582.6	
182.44	5780.7	
182.65	4836.6	
182.87	4565.6	
183.08	4001.7	
183.29	6023.1	
183.51	4976.6	
183.72	3575.1	
183.94	5296	
184.15	5403.2	
184.37	5400.5	
184.58	3163.4	
184.79	4377.2	
185.01	4967.7	
185.22	5770.5	
185.44	4605.9	
185.65	3894.6	
185.86	5223	
186.08	4945.2	
186.29	3096.5	
186.51	3391.4	
186.72	4996.4	
186.94	5900.9	
187.15	3839.9	
187.36	3960.8	
187.58	7679.9	
187.79	5509	
188.01	4231.1	
188.22	6533.7	
188.43	6573.3	
188.65	5773.2	
188.86	3345.7	
189.08	3963.5	
189.29	5187.5	
189.5	5202.5	
189.72	3695.9	
189.93	3763.5	
190.15	5923.4	
190.36	7107.8	
190.57	4137.6	
190.79	3971.7	
191	5989.6	
191.22	5939.1	
191.43	4106.9	
191.64	3329.3	
191.86	6264.1	
192.07	5961	
192.29	3579.8	
192.5	3720.5	
192.71	5985.5	
192.93	5128.8	
193.14	3579.2	
193.35	3779.9	
193.57	5149.3	
193.78	5959.6	
194	2917	
194.21	3640.6	
194.42	4926	
194.64	5449.6	
194.85	3966.9	
195.07	4709	
195.28	5522.7	
195.49	4662.5	
195.71	4922.6	
195.92	3463.1	
196.13	5558.2	
196.35	5696.1	
196.56	5298.1	
196.78	4018.8	
196.99	7032.7	
197.2	6584.9	
197.42	4595	
197.63	4035.2	
197.84	4852.3	
198.06	5545.9	
198.27	3652.9	
198.48	4958.1	
198.7	5195	
198.91	5280.3	
199.13	3994.2	
199.34	4040	
199.55	5823.7	
199.77	4699.4	
199.98	3594.9	
200.19	4016.1	
200.41	5218.2	
200.62	4979.3	
200.83	4190.8	
201.05	4502.1	
201.26	5301.5	
201.47	5015.5	
201.69	3599.6	
201.9	3472.7	
202.11	5362.9	
202.33	6334.4	
202.54	3811.3	
202.76	4244.8	
202.97	5535.7	
203.18	5501.5	
203.4	4164.9	
203.61	4087.1	
203.82	5466	
204.04	5097.4	
204.25	4096.6	
204.46	3984	
204.68	5297.4	
204.89	5646.9	
205.1	3906.8	
205.32	3361.4	
205.53	5772.5	
205.74	5892	
205.96	2928.6	
206.17	4190.8	
206.38	5735.7	
206.6	5889.3	
206.81	4653.7	
207.02	3796.3	
207.24	5629.2	
207.45	6021.7	
207.66	3872.7	
207.88	3247.4	
208.09	5606	
208.3	5367.7	
208.52	3525.9	
208.73	3800.3	
208.94	5441.5	
209.15	6068.1	
209.37	3844.7	
209.58	4005.1	
209.79	5917.3	
210.01	5226.4	
210.22	3092.4	
210.43	3253.5	
210.65	5332.2	
210.86	5763	
211.07	3793.5	
211.29	3578.5	
211.5	5715.2	
211.71	5316.5	
211.93	3564.1	
212.14	3516.4	
212.35	5350.7	
212.56	5568.4	
212.78	4070	
212.99	3320.4	
213.2	6411.5	
213.42	5171.1	
213.63	3666.5	
213.84	3873.4	
214.06	4796.3	
214.27	4887.1	
214.48	3826.3	
214.69	4134.8	
214.91	6103.6	
215.12	6170.5	
215.33	4112.3	
215.55	4596.3	
215.76	6562.4	
215.97	5709.1	
216.18	3975.8	
216.4	3876.8	
216.61	5071.5	
216.82	5842.2	
217.04	3605.8	
217.25	3706.1	
217.46	6035.4	
217.67	5742.5	
217.89	3138.9	
218.1	3276.1	
218.31	5444.2	
218.53	5543.2	
218.74	3687	
218.95	3600.3	
219.16	5328.1	
219.38	6260	
219.59	3592.8	
219.8	4296.6	
220.01	6978.1	
220.23	5393	
220.44	4733.5	
220.65	3512.9	
220.87	5486.5	
221.08	5971.2	
221.29	3228.3	
221.5	4357.4	
221.72	7384.3	
221.93	5094.7	
222.14	4083	
222.35	4846.2	
222.57	5427.1	
222.78	5762.3	
222.99	3818.8	
223.2	4094.6	
223.42	5734.3	
223.63	5808	
223.84	2994.8	
224.05	2945	
224.27	6882.5	
224.48	6282.5	
224.69	4754	
224.9	4063.2	
225.12	5591	
225.33	5399.8	
225.54	3193.5	
225.75	3619.4	
225.97	4956.1	
226.18	5261.9	
226.39	3884.3	
226.6	3576.4	
226.82	5169.1	
227.03	4997.7	
227.24	4035.2	
227.45	3367.5	
227.67	5763.7	
227.88	6388.3	
228.09	4533.5	
228.3	4537.6	
228.52	5776.6	
228.73	5345.9	
228.94	3753.2	
229.15	3310.2	
229.36	5312.4	
229.58	5218.2	
229.79	3764.8	
230	4427.7	
230.21	6401.3	
230.43	5484.5	
230.64	4090.5	
230.85	4133.5	
231.06	5816.2	
231.28	5894.7	
231.49	3313.6	
231.7	3910.9	
231.91	5672.9	
232.12	5341.1	
232.34	3422.2	
232.55	3910.3	
232.76	5999.9	
232.97	5567.1	
233.18	3566.9	
233.4	3953.9	
233.61	5670.1	
233.82	5117.2	
234.03	3695.9	
234.25	3623.5	
234.46	7447.8	
234.67	5430.5	
234.88	4122.6	
235.09	3571.7	
235.31	5713.2	
235.52	5300.1	
235.73	3997.6	
235.94	3433.8	
236.15	5134.9	
236.37	6549.4	
236.58	3540.9	
236.79	3833.1	
237	5670.8	
237.21	4876.9	
237.43	4130.8	
237.64	3254.2	
237.85	9785.9	
238.06	4954	
238.27	4203.1	
238.48	3383.2	
238.7	5716.6	
238.91	5233.2	
239.12	3870.7	
239.33	3932.1	
239.54	4961.5	
239.76	5304.2	
239.97	3803.8	
240.18	3857.7	
240.39	6732.4	
240.6	5628.5	
240.82	4007.2	
241.03	3281.5	
241.24	5354.1	
241.45	6212.2	
241.66	3515	
241.87	4171	
242.09	6125.5	
242.3	6464.8	
242.51	4218.8	
242.72	3865.2	
242.93	5827.2	
243.14	5348.6	
243.36	4465.9	
243.57	4901.5	
243.78	6270.9	
243.99	5727.5	
244.2	3882.9	
244.41	3517.7	
244.63	5036	
244.84	5681.7	
245.05	4112.3	
245.26	3890.5	
245.47	5638.7	
245.68	5907	
245.9	5231.9	
246.11	4056.3	
246.32	5246.2	
246.53	5595.7	
246.74	6382.2	
246.95	3250.1	
247.16	4860.5	
247.38	5429.8	
247.59	3222.1	
247.8	3974.4	
248.01	5072.1	
248.22	5298.1	
248.43	3520.5	
248.64	3749.8	
248.86	4826.4	
249.07	5119.9	
249.28	3401.7	
249.49	3965.6	
249.7	5920	
249.91	6059.9	
250.12	3237.2	
250.34	3326.6	
250.55	5498.8	
250.76	5425.1	
250.97	3995.6	
251.18	4064.5	
251.39	6057.9	
251.6	5597.1	
251.81	4127.3	
252.03	4143.7	
252.24	5059.8	
252.45	5933.6	
252.66	3385.3	
252.87	4333.5	
253.08	5417.6	
253.29	7114.6	
253.5	3404.4	
253.72	4740.4	
253.93	5228.5	
254.14	6387.6	
254.35	3704.8	
254.56	3788.1	
254.77	5642.8	
254.98	5031.2	
255.19	3596.2	
255.41	4710.3	
255.62	5536.3	
255.83	5960.3	
256.04	4220.9	
256.25	4072	
256.46	6641.6	
256.67	5078.3	
256.88	3964.2	
257.09	4454.3	
257.31	5005.9	
257.52	5122.7	
257.73	5001.1	
257.94	3700.7	
258.15	5189.6	
258.36	5442.8	
258.57	4637.3	
258.78	2884.9	
258.99	5892	
259.2	5223	
259.41	3706.8	
259.63	3783.3	
259.84	6209.4	
260.05	6714.6	
260.26	4884.4	
260.47	3582.6	
260.68	5954.8	
260.89	5302.2	
261.1	4486.4	
261.31	3535.5	
261.52	5884.5	
261.73	6290.7	
261.95	4775.2	
262.16	4250.9	
262.37	6122.1	
262.58	6202.6	
262.79	4728.1	
263	3799	
263.21	5490.6	
263.42	4909	
263.63	3850.9	
263.84	3727.3	
264.05	5991	
264.26	6340.5	
264.47	4616.1	
264.69	4235.9	
264.9	6115.2	
265.11	5614.8	
265.32	3592.8	
265.53	3652.9	
265.74	5489.9	
265.95	4803.2	
266.16	3965.6	
266.37	4364.2	
266.58	5497.4	
266.79	5250.3	
267	3706.1	
267.21	3447.4	
267.42	4952	
267.63	5413.5	
267.84	3892.5	
268.06	3354.6	
268.27	5866.1	
268.48	6149.4	
268.69	3752.6	
268.9	4485.7	
269.11	6063.4	
269.32	4851.6	
269.53	3842.7	
269.74	3590.1	
269.95	5798.5	
270.16	4771.1	
270.37	3936.9	
270.58	4483.7	
270.79	5220.3	
271	5938.4	
271.21	4173.8	
271.42	3940.3	
271.63	5541.1	
271.84	5047.6	
272.05	3093.1	
272.26	3446.7	
272.47	5396.4	
272.68	5629.2	
272.89	3636.5	
273.11	4319.2	
273.32	5213.4	
273.53	6365.8	
273.74	4179.9	
273.95	4076.1	
274.16	6065.4	
274.37	5450.3	
274.58	4219.5	
274.79	3406.5	
275	5601.9	
275.21	6117.3	
275.42	5002.5	
275.63	4404.5	
275.84	5603.2	
276.05	7105.1	
276.26	4088.4	
276.47	3771	
276.68	5279.7	
276.89	6470.9	
277.1	4412	
277.31	3452.9	
277.52	5668.8	
277.73	5881.8	
277.94	3343.7	
278.15	3732.1	
278.36	5537	
278.57	5062.6	
278.78	3676.1	
278.99	4211.3	
279.2	5059.8	
279.41	4996.4	
279.62	4928.1	
279.83	3427.6	
280.04	6651.1	
280.25	4919.9	
280.46	4848.2	
280.67	3908.2	
280.88	4953.4	
281.09	6063.4	
281.3	4110.3	
281.51	5134.3	
281.72	5153.4	
281.93	5903.6	
282.14	3638.6	
282.35	3902.7	
282.56	5966.4	
282.77	5844.2	
282.98	3725.9	
283.19	4589.5	
283.4	7303.7	
283.61	5326.1	
283.82	3351.2	
284.03	4725.3	
284.24	5509	
284.45	6015.6	
284.66	4805.2	
284.87	4609.3	
285.08	5917.3	
285.29	6133.7	
285.5	3327.3	
285.71	3839.3	
285.92	6067.4	
286.12	6710.5	
286.33	4853.7	
286.54	3739.6	
286.75	5879	
286.96	5259.9	
287.17	3429.7	
287.38	4683.7	
287.59	5042.8	
287.8	4949.9	
288.01	3810.6	
288.22	4394.9	
288.43	5977.3	
288.64	4904.9	
288.85	4493.9	
289.06	4326.7	
289.27	5786.9	
289.48	6430.6	
289.69	4826.4	
289.9	4328.7	
290.11	6068.1	
290.32	5083.1	
290.53	4541	
290.74	4209.3	
290.94	5834.7	
291.15	5917.3	
291.36	3639.2	
291.57	4273.4	
291.78	5165.7	
291.99	4807.3	
292.2	3472	
292.41	4204.5	
292.62	5960.3	
292.83	5734.3	
293.04	5255.1	
293.25	3529.3	
293.46	5221.6	
293.67	5995.1	
293.88	3648.8	
294.09	3514.3	
294.29	4909.7	
294.5	5585.5	
294.71	3891.1	
294.92	3678.2	
295.13	5227.1	
295.34	6500.3	
295.55	3245.3	
295.76	3385.3	
295.97	5832.6	
296.18	6649.1	
296.39	3444	
296.6	3659	
296.81	5518.6	
297.01	5817.6	
297.22	3836.5	
297.43	3623.5	
297.64	5053	
297.85	4995.7	
298.06	3009.8	
298.27	3257	
298.48	5485.8	
298.69	5160.9	
298.9	3929.4	
299.11	3573.7	
299.31	4913.8	
299.52	4966.3	
299.73	4268	
299.94	4205.8	
300.15	5400.5	
300.36	5005.9	
300.57	4136.9	
300.78	4119.1	
300.99	5289.2	
301.2	5543.2	
301.4	3640.6	
301.61	3970.3	
301.82	5757.5	
302.03	5807.4	
302.24	4481.6	
302.45	3482.2	
302.66	5695.4	
302.87	6158.2	
303.08	3651.5	
303.29	4945.2	
303.49	5165	
303.7	5437.4	
303.91	3206.4	
304.12	4699.4	
304.33	4929.5	
304.54	5562.3	
304.75	3648.8	
304.96	3446	
305.16	5772.5	
305.37	6456.6	
305.58	3170.3	
305.79	3340.9	
306	5705	
306.21	4808.6	
306.42	3622.9	
306.63	5580	
306.83	5225.1	
307.04	5941.2	
307.25	4009.9	
307.46	3988.8	
307.67	4643.4	
307.88	5872.9	
308.09	3571.7	
308.29	3758.7	
308.5	5500.2	
308.71	5946.6	
308.92	3870.7	
309.13	3448.8	
309.34	5338.4	
309.55	5394.3	
309.75	4496.7	
309.96	4162.8	
310.17	5855.1	
310.38	5081.7	
310.59	4337.6	
310.8	3394.8	
311.01	5297.4	
311.21	5246.9	
311.42	3495.9	
311.63	3579.8	
311.84	5175.9	
312.05	5520	
312.26	4067.9	
312.46	4457.1	
312.67	5229.1	
312.88	4912.4	
313.09	3474.7	
313.3	3452.9	
313.51	6181.5	
313.71	6556.2	
313.92	3508.9	
314.13	3683.6	
314.34	5520	
314.55	5293.3	
314.76	4485.1	
314.96	3926	
315.17	5507	
315.38	5842.9	
315.59	3548.4	
315.8	3358	
316.01	6290	
316.21	6340.5	
316.42	3365.5	
316.63	3870.7	
316.84	5274.2	
317.05	5999.9	
317.26	4104.8	
317.46	3722.5	
317.67	5358.2	
317.88	5794.4	
318.09	4444.1	
318.3	3260.4	
318.5	5197.1	
318.71	5700.9	
318.92	5687.9	
319.13	4132.8	
319.34	5934.3	
319.54	5999.9	
319.75	3248.8	
319.96	3095.2	
320.17	5764.3	
320.38	5992.4	
320.58	3197.6	
320.79	3880.9	
321	5951.4	
321.21	6146.6	
321.42	3912.3	
321.62	3226.9	
321.83	4984.8	
322.04	5385.5	
322.25	3692.5	
322.46	3532.7	
322.66	5483.8	
322.87	5668.1	
323.08	4388.1	
323.29	3448.1	
323.5	6531	
323.7	4981.3	
323.91	4887.8	
324.12	4292.5	
324.33	5496.7	
324.53	5745.9	
324.74	4134.8	
324.95	4385.4	
325.16	4829.1	
325.37	5188.2	
325.57	3621.5	
325.78	3580.5	
325.99	5492.7	
326.2	4906.9	
326.4	5029.1	
326.61	3239.2	
326.82	5341.1	
327.03	5535.7	
327.24	5077.6	
327.44	4780	
327.65	5692	
327.86	4585.4	
328.07	4121.2	
328.27	3351.2	
328.48	6110.5	
328.69	5015.5	
328.9	5077.6	
329.1	3792.2	
329.31	5307	
329.52	6291.4	
329.73	3530.7	
329.93	3983.3	
330.14	5456.5	
330.35	5668.8	
330.56	5834.7	
330.76	4338.3	
330.97	5231.2	
331.18	5619.6	
331.39	3936.9	
331.59	3193.5	
331.8	6029.2	
332.01	6146	
332.22	3601	
332.42	4128.7	
332.63	5583.4	
332.84	5139	
333.05	3989.4	
333.25	3616	
333.46	5248.9	
333.67	5450.3	
333.88	3686.3	
334.08	4109.6	
334.29	7271	
334.5	6130.9	
334.7	3437.9	
334.91	5099.4	
335.12	4994.3	
335.33	5812.8	
335.53	3904.1	
335.74	5864	
335.95	5265.3	
336.16	5016.2	
336.36	3932.8	
336.57	4539.7	
336.78	4906.9	
336.98	6004.6	
337.19	4843.4	
337.4	3884.3	
337.61	6533	
337.81	4924	
338.02	3666.5	
338.23	4728.8	
338.43	6213.5	
338.64	5061.9	
338.85	3564.8	
339.05	4677.6	
339.26	6315.9	
339.47	4868	
339.68	3546.4	
339.88	5247.6	
340.09	5642.8	
340.3	5847.6	
340.5	4184	
340.71	3173	
340.92	4906.3	
341.13	6144.6	
341.33	3402.4	
341.54	4160.1	
341.75	5671.5	
341.95	5316.5	
342.16	4037.2	
342.37	4316.4	
342.57	4984.8	
342.78	5351.3	
342.99	4417.5	
343.19	3192.1	
343.4	5840.8	
343.61	5694	
343.81	3838.6	
344.02	3450.1	
344.23	5790.3	
344.43	6317.3	
344.64	4412	
344.85	4270.7	
345.06	5664	
345.26	6047.7	
345.47	4068.6	
345.68	4780	
345.88	4768.4	
346.09	5903.6	
346.3	4206.5	
346.5	3137.5	
346.71	5416.2	
346.92	5183.4	
347.12	3252.2	
347.33	4074.1	
347.54	5984.8	
347.74	6421.1	
347.95	4111	
348.16	3029.6	
348.36	5207.3	
348.57	4934.9	
348.78	3992.2	
348.98	4364.9	
349.19	5382.7	
349.39	4855.7	
349.6	3301.3	
349.81	3633.1	
350.01	5675.6	
350.22	5150	
350.43	3902.7	
350.63	4710.3	
350.84	5455.1	
351.05	5214.1	
351.25	3548.4	
351.46	3272	
351.67	5958.9	
351.87	5083.1	
352.08	3799.7	
352.29	4343.1	
352.49	5854.5	
352.7	5986.2	
352.9	3457.7	
353.11	4356.7	
353.32	6570.6	
353.52	5249.6	
353.73	3427.6	
353.94	4340.3	
354.14	5739.8	
354.35	5561.6	
354.55	3551.2	
354.76	3891.8	
354.97	5664.7	
355.17	5433.9	
355.38	3258.3	
355.59	4654.4	
355.79	5108.3	
356	5510.4	
356.2	3903.4	
356.41	3380.5	
356.62	4855.7	
356.82	5295.4	
357.03	4235.9	
357.24	3788.7	
357.44	5111	
357.65	5264.6	
357.85	5103.5	
358.06	3947.1	
358.27	4859.1	
358.47	5080.3	
358.68	3267.9	
358.88	4192.2	
359.09	5650.3	
359.3	6097.5	
359.5	4853	
359.71	4306.9	
359.91	6492.7	
360.12	5871.5	
360.33	4088.4	
360.53	4668	
360.74	5128.1	
360.94	5201.2	
361.15	4412.7	
361.36	3568.9	
361.56	5907	
361.77	5388.2	
361.97	4850.3	
362.18	3841.3	
362.38	5974.6	
362.59	5027.8	
362.8	3527.3	
363	3338.9	
363.21	4835.3	
363.41	5478.3	
363.62	4083.6	
363.83	5170.4	
364.03	5547.9	
364.24	6509.8	
364.44	5199.8	
364.65	5154.7	
364.85	5349.3	
365.06	5266	
365.27	3761.4	
365.47	3718.4	
365.68	6307.1	
365.88	5270.8	
366.09	4176.5	
366.29	3835.2	
366.5	5562.3	
366.71	6052.4	
366.91	5117.9	
367.12	4321.2	
367.32	6630.6	
367.53	5821.7	
367.73	4199.7	
367.94	5175.2	
368.14	5802.6	
368.35	6701	
368.56	4206.5	
368.76	3586	
368.97	5889.3	
369.17	7635.5	
369.38	3743	
369.58	3986	
369.79	4996.4	
369.99	6268.1	
370.2	5012.1	
370.4	4142.4	
370.61	5730.2	
370.82	6840.2	
371.02	4039.3	
371.23	3344.3	
371.43	4919.2	
371.64	6247	
371.84	4034.5	
372.05	5242.8	
372.25	7588.4	
372.46	5976.7	
372.66	4009.9	
372.87	4043.4	
373.07	6055.2	
373.28	7621.2	
373.48	5079.6	
373.69	4841.4	
373.9	5520.6	
374.1	5643.5	
374.31	5021.6	
374.51	4523.3	
374.72	6324.1	
374.92	5198.4	
375.13	5195	
375.33	4416.8	
375.54	5905.7	
375.74	5334.3	
375.95	4453.6	
376.15	5629.2	
376.36	5971.2	
376.56	5809.4	
376.77	4516.5	
376.97	5050.3	
377.18	6994.5	
377.38	6046.3	
377.59	5382.1	
377.79	4073.4	
378	5836.7	
378.2	6294.8	
378.41	4164.2	
378.61	4055	
378.82	6363	
379.02	5469.4	
379.23	4243.4	
379.43	5381.4	
379.64	6450.4	
379.84	6027.9	
380.05	4117.1	
380.25	4036.5	
380.46	6143.9	
380.66	5724.1	
380.87	5446.9	
381.07	5842.2	
381.28	6761.7	
381.48	6135	
381.69	4166.3	
381.89	4207.2	
382.1	5083.1	
382.3	6279.8	
382.51	5279.7	
382.71	6181.5	
382.91	6182.8	
383.12	6642.2	
383.32	4448.2	
383.53	4757.4	
383.73	5921.4	
383.94	5784.8	
384.14	4629.1	
384.35	3784	
384.55	5666	
384.76	6175.3	
384.96	4437.3	
385.17	4846.2	
385.37	6104.3	
385.58	5412.8	
385.78	4833.2	
385.98	3695.9	
386.19	5616.2	
386.39	5997.8	
386.6	4292.5	
386.8	4500.1	
387.01	6085.9	
387.21	6124.8	
387.42	4990.9	
387.62	5546.6	
387.83	5445.5	
388.03	6164.4	
388.23	4589.5	
388.44	5350	
388.64	5251.7	
388.85	5309.7	
389.05	4924.7	
389.26	5543.2	
389.46	7007.5	
389.67	6674.3	
389.87	4915.1	
390.07	4987.5	
390.28	5866.1	
390.48	5441.5	
390.69	4229.1	
390.89	4486.4	
391.1	5588.2	
391.3	6559	
391.5	5681.7	
391.71	6275	
391.91	6313.9	
392.12	7287.4	
392.32	5769.1	
392.53	5138.4	
392.73	5679	
392.93	5795.1	
393.14	4636.6	
393.34	5370.5	
393.55	6337.1	
393.75	5829.9	
393.95	4685.8	
394.16	4586.8	
394.36	5610.8	
394.57	6311.2	
394.77	4158.1	
394.98	4545.8	
395.18	5625.1	
395.38	5857.9	
395.59	5514.5	
395.79	4350.6	
396	5826.5	
396.2	6258.6	
396.4	5301.5	
396.61	5242.8	
396.81	6509.1	
397.02	5770.5	
397.22	5558.2	
397.42	5657.2	
397.63	6492.1	
397.83	5653.8	
398.04	4399	
398.24	4954	
398.44	6236.7	
398.65	5362.3	
398.85	4262.5	
399.05	4414.1	
399.26	5715.2	
399.46	7415.7	
399.67	4855.7	
399.87	4508.9	
400.07	6176	
400.28	6461.3	
400.48	4670.1	
400.69	5684.5	
400.89	6678.4	
401.09	7198.6	
401.3	4614.8	
401.5	5701.5	
401.7	7340.6	
401.91	7683.3	
402.11	4874.2	
402.32	5111	
402.52	6656.6	
402.72	6541.2	
402.93	5251.7	
403.13	4067.9	
403.33	7375.4	
403.54	6044.9	
403.74	4905.6	
403.94	5828.5	
404.15	6255.2	
404.35	7423.9	
404.56	4754	
404.76	6598.6	
404.96	6734.4	
405.17	6465.4	
405.37	6191.7	
405.57	5316.5	
405.78	6845	
405.98	6118	
406.18	4846.2	
406.39	5773.2	
406.59	6684.6	
406.79	6394.4	
407	4606.6	
407.2	4782	
407.4	6728.3	
407.61	7004.7	
407.81	4850.3	
408.01	7015	
408.22	5830.6	
408.42	7943.4	
408.62	6038.1	
408.83	5586.9	
409.03	6614.3	
409.23	6436.1	
409.44	5674.9	
409.64	6011.5	
409.84	7520.8	
410.05	7402.7	
410.25	5892	
410.45	5580.7	
410.66	6955.6	
410.86	9443.2	
411.06	6133.7	
411.27	5945.9	
411.47	9253.4	
411.67	7172	
411.88	6280.4	
412.08	6467.5	
412.28	7805.5	
412.49	8436.3	
412.69	6016.9	
412.89	6037.4	
413.09	8214.4	
413.3	8170	
413.5	6124.1	
413.7	5728.2	
413.91	7341.3	
414.11	8312	
414.31	6013.5	
414.52	6473.6	
414.72	7841.7	
414.92	7823.2	
415.12	6016.9	
415.33	6518.7	
415.53	8269	
415.73	8468.4	
415.94	6963.1	
416.14	6377.4	
416.34	7277.8	
416.55	6956.3	
416.75	7546.8	
416.95	7105.8	
417.15	8273.8	
417.36	9024.7	
417.56	7834.2	
417.76	6836.1	
417.97	8661.5	
418.17	8414.4	
418.37	6407.4	
418.57	6524.8	
418.78	8043.7	
418.98	7753.6	
419.18	7343.3	
419.38	7313.3	
419.59	7828	
419.79	7324.9	
419.99	6293.4	
420.2	6765.1	
420.4	8323.6	
420.6	8480	
420.8	6307.7	
421.01	6147.3	
421.21	8161.8	
421.41	8373.5	
421.61	6757.6	
421.82	6398.5	
422.02	7649.8	
422.22	8572.1	
422.42	7124.9	
422.63	6740.5	
422.83	7714.7	
423.03	8997.4	
423.23	6790.4	
423.44	5752.1	
423.64	7750.2	
423.84	7471.7	
424.04	6270.2	
424.25	5924.1	
424.45	8692.9	
424.65	8652	
424.85	5750	
425.06	6356.2	
425.26	8736.6	
425.46	7700.4	
425.66	6769.2	
425.87	6399.9	
426.07	8503.2	
426.27	8314.1	
426.47	6602	
426.67	5951.4	
426.88	8733.2	
427.08	8173.4	
427.28	6888.7	
427.48	5866.7	
427.69	7060	
427.89	7755.7	
428.09	6892.8	
428.29	6018.3	
428.5	8542.1	
428.7	8000.7	
428.9	5838.1	
429.1	6414.9	
429.3	7937.2	
429.51	8365.3	
429.71	6109.1	
429.91	7007.5	
430.11	8273.8	
430.31	8600.1	
430.52	6557.6	
430.72	6808.8	
430.92	8954.4	
431.12	8355.7	
431.32	6193.1	
431.53	6574.7	
431.73	7289.4	
431.93	8967.4	
432.13	6094.8	
432.33	6023.1	
432.54	7688.1	
432.74	8125.7	
432.94	5972.6	
433.14	7062.1	
433.34	8342.1	
433.55	7918.1	
433.75	7052.5	
433.95	8825.4	
434.15	8172.1	
434.35	7832.1	
434.56	6196.5	
434.76	5829.2	
434.96	8117.5	
435.16	8404.9	
435.36	6115.9	
435.56	7397.9	
435.77	7850.5	
435.97	8064.9	
436.17	8039.6	
436.37	7273	
436.57	7866.9	
436.78	7739.3	
436.98	7721.5	
437.18	7752.9	
437.38	8505.2	
437.58	8021.9	
437.78	7980.9	
437.99	6563.1	
438.19	8473.1	
438.39	9951.8	
438.59	6531	
438.79	5972.6	
438.99	9204.3	
439.2	8066.3	
439.4	6202.6	
439.6	6212.2	
439.8	8382.3	
440	9538.1	
440.2	7245.7	
440.4	7481.2	
440.61	8889.5	
440.81	9417.9	
441.01	6643.6	
441.21	7494.9	
441.41	9273.2	
441.61	8847.2	
441.81	7701.7	
442.02	8779.6	
442.22	9820	
442.42	8991.9	
442.62	6696.9	
442.82	6615.6	
443.02	9398.8	
443.22	8527.7	
443.43	7180.2	
443.63	6669.6	
443.83	8250.6	
444.03	8399.4	
444.23	8049.9	
444.43	7518.1	
444.63	8661.5	
444.83	9839.8	
445.04	6880.5	
445.24	8062.9	
445.44	8940.7	
445.64	9044.5	
445.84	7515.4	
446.04	7483.3	
446.24	8175.5	
446.44	9260.2	
446.65	6665.5	
446.85	7034.8	
447.05	8585.1	
447.25	9271.2	
447.45	7107.8	
447.65	6542.6	
447.85	8607.6	
448.05	8143.4	
448.25	7673.7	
448.46	7475.1	
448.66	8616.5	
448.86	8293.6	
449.06	6445.6	
449.26	7677.2	
449.46	9012.4	
449.66	8039	
449.86	7197.9	
450.06	7178.1	
450.26	8237.6	
450.47	8871.8	
450.67	7415.7	
450.87	7798	
451.07	8877.9	
451.27	8807.6	
451.47	6689.3	
451.67	7376.8	
451.87	8428.1	
452.07	9573.6	
452.27	7051.8	
452.47	6987	
452.67	8696.4	
452.88	9347.6	
453.08	6275.7	
453.28	8399.4	
453.48	10017	
453.68	8679.3	
453.88	6945.3	
454.08	7234.8	
454.28	9174.9	
454.48	8830.2	
454.68	7728.4	
454.88	8370.7	
455.08	9310.7	
455.28	9089.6	
455.48	6923.5	
455.68	7533.8	
455.89	9820.7	
456.09	9470.5	
456.29	7307.2	
456.49	7447.8	
456.69	9805	
456.89	8901.8	
457.09	7907.9	
457.29	8342.7	
457.49	9316.2	
457.69	9615.9	
457.89	7838.9	
458.09	7245	
458.29	9188.6	
458.49	9967.5	
458.69	8353.7	
458.89	7686	
459.09	10178	
459.29	10277	
459.49	7789.8	
459.69	8634.9	
459.9	9737.4	
460.1	9360.6	
460.3	7651.9	
460.5	7565.9	
460.7	9765.4	
460.9	9557.9	
461.1	7191.1	
461.3	8607.6	
461.5	10611	
461.7	10171	
461.9	7802.1	
462.1	8208.9	
462.3	9716.2	
462.5	10292	
462.7	7851.2	
462.9	8013	
463.1	11495	
463.3	11064	
463.5	8271.1	
463.7	9368.8	
463.9	10049	
464.1	10376	
464.3	8525.7	
464.5	8736	
464.7	10688	
464.9	10458	
465.1	10083	
465.3	9017.2	
465.5	11085	
465.7	11070	
465.9	9474.6	
466.1	9180.4	
466.3	10953	
466.5	10664	
466.7	10221	
466.9	9087.5	
467.1	10754	
467.3	11833	
467.5	10280	
467.7	8993.3	
467.9	11977	
468.1	12810	
468.3	9815.9	
468.5	10307	
468.7	10736	
468.9	10788	
469.1	9440.5	
469.3	10094	
469.5	12850	
469.7	10403	
469.9	9695.1	
470.1	9043.1	
470.3	10813	
470.5	10815	
470.7	10357	
470.9	9198.8	
471.1	10620	
471.3	10938	
471.5	9053.4	
471.69	10940	
471.89	10386	
472.09	9923.1	
472.29	9815.9	
472.49	10079	
472.69	10147	
472.89	11068	
473.09	8850.6	
473.29	8882.7	
473.49	10320	
473.69	10415	
473.89	9964.7	
474.09	9099.1	
474.29	11718	
474.49	11352	
474.69	9898.5	
474.89	9299.8	
475.09	10441	
475.29	10356	
475.49	8609.7	
475.69	8936.7	
475.88	11981	
476.08	10687	
476.28	8598.1	
476.48	8957.8	
476.68	11074	
476.88	10927	
477.08	8880	
477.28	9228.8	
477.48	10350	
477.68	11185	
477.88	8619.2	
478.08	8997.4	
478.28	11505	
478.48	10623	
478.67	9119.6	
478.87	8417.2	
479.07	11389	
479.27	10679	
479.47	9183.8	
479.67	9224.1	
479.87	11159	
480.07	11643	
480.27	8598.7	
480.47	10146	
480.67	10751	
480.87	11377	
481.06	8772.1	
481.26	9687.6	
481.46	10674	
481.66	10650	
481.86	9317.6	
482.06	10305	
482.26	10461	
482.46	11260	
482.66	9237.7	
482.86	8944.8	
483.05	10931	
483.25	10271	
483.45	11744	
483.65	9375.6	
483.85	10430	
484.05	10743	
484.25	9798.8	
484.45	10340	
484.65	11667	
484.84	11749	
485.04	9271.8	
485.24	9263.6	
485.44	11938	
485.64	10151	
485.84	8713.4	
486.04	10115	
486.24	10673	
486.44	11071	
486.63	8674.5	
486.83	9440.5	
487.03	10662	
487.23	10992	
487.43	8856.1	
487.63	11261	
487.83	11000	
488.02	12091	
488.22	9937.4	
488.42	10600	
488.62	11858	
488.82	10851	
489.02	9407	
489.22	9656.9	
489.41	11807	
489.61	11449	
489.81	9239.8	
490.01	9339.4	
490.21	11680	
490.41	12312	
490.61	9200.2	
490.8	9327.8	
491	11183	
491.2	10408	
491.4	9818	
491.6	9020.6	
491.8	11070	
491.99	11249	
492.19	8811	
492.39	9413.8	
492.59	11746	
492.79	11807	
492.99	10404	
493.18	9432.3	
493.38	11962	
493.58	12902	
493.78	10168	
493.98	9867.1	
494.18	11909	
494.37	11435	
494.57	10608	
494.77	10493	
494.97	12184	
495.17	12495	
495.37	10186	
495.56	10452	
495.76	12684	
495.96	12439	
496.16	11464	
496.36	10295	
496.55	12568	
496.75	12142	
496.95	10722	
497.15	10645	
497.35	12493	
497.54	12609	
497.74	10494	
497.94	12213	
498.14	13342	
498.34	13105	
498.53	10244	
498.73	11050	
498.93	12091	
499.13	12639	
499.33	11006	
499.52	11341	
499.72	12711	
499.92	12837	
500.12	10604	
500.32	11002	
500.51	13031	
500.71	12847	
500.91	11733	
501.11	11314	
501.31	12862	
501.5	13338	
501.7	11912	
501.9	10918	
502.1	12678	
502.29	12910	
502.49	11345	
502.69	11710	
502.89	12760	
503.09	12860	
503.28	10192	
503.48	10309	
503.68	11860	
503.88	12017	
504.07	11227	
504.27	10809	
504.47	12288	
504.67	12368	
504.86	11240	
505.06	10901	
505.26	11846	
505.46	13715	
505.65	10717	
505.85	10870	
506.05	11731	
506.25	12241	
506.44	9925.1	
506.64	10832	
506.84	11622	
507.04	12518	
507.23	10073	
507.43	10673	
507.63	13657	
507.83	11779	
508.02	10658	
508.22	10216	
508.42	13833	
508.62	11610	
508.81	10736	
509.01	11144	
509.21	11401	
509.4	11779	
509.6	10803	
509.8	10152	
510	11745	
510.19	13262	
510.39	10058	
510.59	10133	
510.79	11445	
510.98	13019	
511.18	10194	
511.38	10421	
511.57	12350	
511.77	12163	
511.97	10859	
512.17	9818	
512.36	12392	
512.56	12296	
512.76	10077	
512.95	9818.6	
513.15	12409	
513.35	11101	
513.55	10970	
513.74	10165	
513.94	12484	
514.14	11895	
514.33	11059	
514.53	10773	
514.73	11799	
514.92	11996	
515.12	10395	
515.32	10290	
515.51	12209	
515.71	12714	
515.91	11949	
516.11	10262	
516.3	13953	
516.5	11740	
516.7	10849	
516.89	11498	
517.09	11874	
517.29	11697	
517.48	11028	
517.68	10538	
517.88	11578	
518.07	12246	
518.27	11047	
518.47	10045	
518.66	12836	
518.86	11486	
519.06	9909.4	
519.25	10376	
519.45	11784	
519.65	13304	
519.84	10869	
520.04	11773	
520.24	13717	
520.43	12239	
520.63	10573	
520.83	10380	
521.02	11553	
521.22	12190	
521.42	10752	
521.61	11461	
521.81	11764	
522.01	11997	
522.2	10829	
522.4	10570	
522.6	12591	
522.79	11381	
522.99	10738	
523.18	10127	
523.38	12511	
523.58	12454	
523.77	12259	
523.97	10315	
524.17	14575	
524.36	13682	
524.56	11847	
524.76	11371	
524.95	12663	
525.15	12269	
525.34	11046	
525.54	11192	
525.74	13070	
525.93	11973	
526.13	12432	
526.33	11198	
526.52	13430	
526.72	13097	
526.91	12425	
527.11	11802	
527.31	13624	
527.5	13997	
527.7	11683	
527.89	10760	
528.09	12398	
528.29	13269	
528.48	12166	
528.68	11772	
528.87	13642	
529.07	13410	
529.27	11638	
529.46	11020	
529.66	13011	
529.85	13370	
530.05	10849	
530.25	11740	
530.44	14457	
530.64	12966	
530.83	11479	
531.03	11652	
531.23	13538	
531.42	13486	
531.62	12669	
531.81	11768	
532.01	13789	
532.21	14260	
532.4	11727	
532.6	12100	
532.79	14719	
532.99	13926	
533.18	12146	
533.38	13091	
533.58	13575	
533.77	14418	
533.97	12162	
534.16	12890	
534.36	14484	
534.55	13644	
534.75	13181	
534.95	12259	
535.14	14467	
535.34	13606	
535.53	11824	
535.73	13784	
535.92	14844	
536.12	13655	
536.31	11869	
536.51	13106	
536.71	13966	
536.9	13506	
537.1	12016	
537.29	12315	
537.49	14461	
537.68	13467	
537.88	12575	
538.07	11778	
538.27	13768	
538.46	14749	
538.66	11831	
538.86	12329	
539.05	13812	
539.25	14235	
539.44	12603	
539.64	11929	
539.83	13560	
540.03	14631	
540.22	11899	
540.42	11933	
540.61	13809	
540.81	13932	
541	12415	
541.2	13097	
541.39	13267	
541.59	13687	
541.78	12781	
541.98	11723	
542.18	12856	
542.37	12938	
542.57	12131	
542.76	12544	
542.96	12800	
543.15	13562	
543.35	11932	
543.54	11189	
543.74	13675	
543.93	13358	
544.13	11802	
544.32	12974	
544.52	13523	
544.71	12718	
544.91	10949	
545.1	12262	
545.3	12874	
545.49	13490	
545.69	10784	
545.88	11451	
546.08	14618	
546.27	14032	
546.47	12078	
546.66	11281	
546.86	13653	
547.05	14341	
547.24	11458	
547.44	11293	
547.63	12613	
547.83	13779	
548.02	11646	
548.22	11975	
548.41	12372	
548.61	13719	
548.8	11277	
549	11202	
549.19	13083	
549.39	13436	
549.58	10796	
549.78	11472	
549.97	13400	
550.17	12801	
550.36	12199	
550.55	13214	
550.75	12835	
550.94	13611	
551.14	11092	
551.33	11287	
551.53	12129	
551.72	13214	
551.92	11412	
552.11	11246	
552.31	13265	
552.5	13192	
552.69	12837	
552.89	10694	
553.08	13177	
553.28	12838	
553.47	11163	
553.67	12420	
553.86	13735	
554.06	11959	
554.25	10268	
554.44	10909	
554.64	14401	
554.83	13912	
555.03	10892	
555.22	11250	
555.42	13196	
555.61	13029	
555.8	11052	
556	11369	
556.19	12084	
556.39	13233	
556.58	11088	
556.78	11107	
556.97	12712	
557.16	12609	
557.36	12282	
557.55	10712	
557.75	11731	
557.94	13631	
558.13	10905	
558.33	10566	
558.52	13325	
558.72	12116	
558.91	10617	
559.1	10877	
559.3	11856	
559.49	11481	
559.69	10177	
559.88	11115	
560.07	12710	
560.27	13024	
560.46	11368	
560.66	11505	
560.85	12385	
561.04	11526	
561.24	10463	
561.43	10590	
561.63	11925	
561.82	12035	
562.01	11963	
562.21	11014	
562.4	12596	
562.59	13714	
562.79	10994	
562.98	10535	
563.18	12550	
563.37	13992	
563.56	11428	
563.76	10512	
563.95	12011	
564.14	11945	
564.34	10990	
564.53	10627	
564.73	12594	
564.92	12990	
565.11	11053	
565.31	10464	
565.5	13166	
565.69	12163	
565.89	10772	
566.08	10964	
566.27	13063	
566.47	13495	
566.66	11533	
566.85	10306	
567.05	12594	
567.24	11981	
567.44	10579	
567.63	12010	
567.82	12857	
568.02	12624	
568.21	10716	
568.4	11075	
568.6	12484	
568.79	12575	
568.98	10471	
569.18	10683	
569.37	12420	
569.56	14560	
569.76	10972	
569.95	11956	
570.14	12876	
570.34	12807	
570.53	10433	
570.72	10443	
570.91	13127	
571.11	12311	
571.3	10840	
571.49	11849	
571.69	12479	
571.88	12011	
572.07	11508	
572.27	11295	
572.46	12002	
572.65	12937	
572.85	10814	
573.04	11090	
573.23	13323	
573.43	12534	
573.62	10580	
573.81	11169	
574	12627	
574.2	12453	
574.39	10963	
574.58	11159	
574.78	13580	
574.97	12781	
575.16	11606	
575.36	11609	
575.55	13056	
575.74	13276	
575.93	10608	
576.13	11802	
576.32	12496	
576.51	13200	
576.71	11064	
576.9	12467	
577.09	13507	
577.28	12880	
577.48	11581	
577.67	10604	
577.86	12700	
578.05	13009	
578.25	11204	
578.44	11417	
578.63	12764	
578.83	14039	
579.02	10677	
579.21	12257	
579.4	12998	
579.6	12728	
579.79	11359	
579.98	13511	
580.17	13359	
580.37	13497	
580.56	10922	
580.75	11742	
580.94	14003	
581.14	13816	
581.33	12186	
581.52	10960	
581.71	13317	
581.91	13902	
582.1	10892	
582.29	11479	
582.48	12957	
582.68	13039	
582.87	11930	
583.06	11530	
583.25	13330	
583.45	12893	
583.64	12370	
583.83	13008	
584.02	12787	
584.21	13256	
584.41	12207	
584.6	11511	
584.79	13105	
584.98	13845	
585.18	10939	
585.37	10959	
585.56	12540	
585.75	13287	
585.94	11007	
586.14	11743	
586.33	13874	
586.52	12765	
586.71	11469	
586.91	11276	
587.1	12099	
587.29	13145	
587.48	11054	
587.67	10880	
587.87	12917	
588.06	12916	
588.25	12226	
588.44	11439	
588.63	12316	
588.83	12911	
589.02	10597	
589.21	10327	
589.4	11823	
589.59	11639	
589.78	9329.2	
589.98	9611.8	
590.17	11056	
590.36	11516	
590.55	8907.3	
590.74	9693.7	
590.94	12807	
591.13	11350	
591.32	9454.1	
591.51	9021.3	
591.7	11929	
591.89	11486	
592.09	9238.4	
592.28	9742.9	
592.47	10685	
592.66	12674	
592.85	9259.5	
593.05	9536	
593.24	11265	
593.43	12058	
593.62	9656.9	
593.81	10118	
594	11421	
594.19	11609	
594.39	9534.7	
594.58	9508	
594.77	11748	
594.96	12376	
595.15	9244.5	
595.34	10000	
595.54	11621	
595.73	10729	
595.92	8838.4	
596.11	9834.3	
596.3	12185	
596.49	10921	
596.68	9671.9	
596.88	10217	
597.07	11986	
597.26	10710	
597.45	9234.3	
597.64	10391	
597.83	10995	
598.02	11738	
598.22	9354.4	
598.41	10054	
598.6	11510	
598.79	10928	
598.98	9299.8	
599.17	10363	
599.36	11540	
599.55	12720	
599.74	11511	
599.94	11170	
600.13	12094	
600.32	10909	
600.51	9250.7	
600.7	9314.8	
600.89	12658	
601.08	12739	
601.27	9287.5	
601.47	10127	
601.66	12069	
601.85	12618	
602.04	9860.3	
602.23	10117	
602.42	11095	
602.61	11836	
602.8	9751.1	
602.99	9588.6	
603.18	11499	
603.37	11714	
603.57	10247	
603.76	10806	
603.95	12497	
604.14	12039	
604.33	9595.4	
604.52	10056	
604.71	11684	
604.9	11260	
605.09	10532	
605.28	10438	
605.47	12257	
605.66	11972	
605.86	10183	
606.05	9620	
606.24	12217	
606.43	10711	
606.62	9947.7	
606.81	10757	
607	12115	
607.19	11419	
607.38	9357.2	
607.57	9581.1	
607.76	11194	
607.95	10486	
608.14	10045	
608.33	10562	
608.52	11091	
608.72	12103	
608.91	9265.7	
609.1	9140.1	
609.29	11178	
609.48	10640	
609.67	10139	
609.86	9140.8	
610.05	10839	
610.24	11143	
610.43	8949.6	
610.62	8690.2	
610.81	12207	
611	12018	
611.19	9166	
611.38	9886.9	
611.57	11486	
611.76	12764	
611.95	8862.9	
612.14	8758.5	
612.33	11193	
612.52	10830	
612.71	9467.8	
612.9	8668.4	
613.09	10273	
613.28	12786	
613.47	9174.9	
613.66	10122	
613.85	11303	
614.04	10836	
614.24	9280.7	
614.43	8450.6	
614.62	11517	
614.81	11343	
615	9874.6	
615.19	9867.1	
615.38	10611	
615.57	11052	
615.76	9762	
615.95	10783	
616.14	11534	
616.33	11009	
616.52	10088	
616.71	10320	
616.9	11348	
617.09	11274	
617.28	9454.8	
617.47	10675	
617.66	10630	
617.85	10597	
618.04	10428	
618.22	9869.2	
618.41	10910	
618.6	12004	
618.79	9716.9	
618.98	9472.5	
619.17	12227	
619.36	10439	
619.55	9729.9	
619.74	9633.6	
619.93	11568	
620.12	10931	
620.31	10350	
620.5	10550	
620.69	12123	
620.88	12529	
621.07	11182	
621.26	10314	
621.45	11643	
621.64	11871	
621.83	10233	
622.02	9581.8	
622.21	11734	
622.4	11583	
622.59	10914	
622.78	10641	
622.97	11153	
623.16	12179	
623.35	10217	
623.54	9357.2	
623.72	11348	
623.91	11514	
624.1	10494	
624.29	9175.6	
624.48	12671	
624.67	11711	
624.86	10447	
625.05	9462.3	
625.24	12631	
625.43	11036	
625.62	12090	
625.81	9721	
626	12112	
626.19	11391	
626.38	10378	
626.56	9777	
626.75	11173	
626.94	11890	
627.13	10320	
627.32	9022	
627.51	11724	
627.7	12937	
627.89	9093.7	
628.08	10383	
628.27	10911	
628.46	10989	
628.65	9466.4	
628.83	9077.3	
629.02	11702	
629.21	10955	
629.4	9970.9	
629.59	10144	
629.78	10867	
629.97	11951	
630.16	10290	
630.35	9703.3	
630.54	12368	
630.72	12045	
630.91	9627.5	
631.1	10173	
631.29	11460	
631.48	11811	
631.67	10282	
631.86	9722.4	
632.05	11109	
632.24	11265	
632.42	9340.1	
632.61	10015	
632.8	11320	
632.99	10922	
633.18	10071	
633.37	10453	
633.56	11544	
633.75	11358	
633.93	9979.8	
634.12	9623.4	
634.31	12386	
634.5	12007	
634.69	9818.6	
634.88	10051	
635.07	11234	
635.25	11922	
635.44	10652	
635.63	10922	
635.82	11187	
636.01	10694	
636.2	10589	
636.39	10220	
636.57	12329	
636.76	11882	
636.95	9482.1	
637.14	10982	
637.33	11630	
637.52	12470	
637.7	9318.3	
637.89	10264	
638.08	11215	
638.27	12686	
638.46	10336	
638.65	10685	
638.83	12620	
639.02	10879	
639.21	10176	
639.4	10581	
639.59	11387	
639.78	10927	
639.96	9392.7	
640.15	9432.3	
640.34	11120	
640.53	11366	
640.72	9091.6	
640.91	9437	
641.09	10660	
641.28	11986	
641.47	9695.1	
641.66	10260	
641.85	11217	
642.03	11484	
642.22	9914.9	
642.41	9359.2	
642.6	10684	
642.79	10086	
642.97	9164.7	
643.16	9916.9	
643.35	10594	
643.54	10404	
643.73	8955.1	
643.91	9756.5	
644.1	10090	
644.29	10770	
644.48	8901.2	
644.67	9006.3	
644.85	10183	
645.04	10445	
645.23	8449.9	
645.42	8757.1	
645.6	9848	
645.79	11027	
645.98	8538.7	
646.17	7590.5	
646.36	9506	
646.54	10115	
646.73	9270.5	
646.92	8008.2	
647.11	9647.3	
647.29	10725	
647.48	8053.3	
647.67	7788.4	
647.86	10927	
648.05	11025	
648.23	8452.6	
648.42	9818.6	
648.61	10374	
648.8	10210	
648.98	8172.8	
649.17	8538	
649.36	9742.9	
649.55	9232.9	
649.73	8096.3	
649.92	8940.1	
650.11	9571.5	
650.3	9919.7	
650.48	8288.8	
650.67	7980.9	
650.86	10240	
651.05	8994.7	
651.23	8302.5	
651.42	8208.9	
651.61	9553.1	
651.79	9742.9	
651.98	8438.3	
652.17	7996	
652.36	10072	
652.54	9116.9	
652.73	8080.6	
652.92	7803.4	
653.11	10038	
653.29	10049	
653.48	7236.8	
653.67	8242.4	
653.85	9700.5	
654.04	10839	
654.23	8271.1	
654.42	7863.5	
654.6	9058.8	
654.79	9731.9	
654.98	7217.7	
655.16	7834.2	
655.35	8579.6	
655.54	8674.5	
655.73	7458	
655.91	7371.3	
656.1	9913.5	
656.29	8705.9	
656.47	7048.4	
656.66	8753	
656.85	9062.9	
657.03	9224.7	
657.22	7576.8	
657.41	7642.3	
657.59	9171.5	
657.78	8996.7	
657.97	7209.5	
658.16	8045.1	
658.34	9864.4	
658.53	10318	
658.72	9030.9	
658.9	9473.9	
659.09	9282.1	
659.28	9405.6	
659.46	7820.5	
659.65	7841	
659.84	9140.1	
660.02	9714.9	
660.21	7679.2	
660.4	7682.6	
660.58	10106	
660.77	9312.1	
660.96	8298.4	
661.14	7363.1	
661.33	10606	
661.52	10353	
661.7	7229.3	
661.89	10980	
662.08	9065.7	
662.26	8589.9	
662.45	7458.7	
662.64	7681.2	
662.82	9781.1	
663.01	8889.5	
663.2	7578.2	
663.38	8428.1	
663.57	9611.8	
663.75	9545.6	
663.94	7856	
664.13	9181	
664.31	8987.2	
664.5	9717.6	
664.69	8297.7	
664.87	8764.6	
665.06	8688.2	
665.25	9514.2	
665.43	9002.2	
665.62	9010.4	
665.8	9771.5	
665.99	9061.6	
666.18	7884.7	
666.36	8042.4	
666.55	9725.1	
666.74	9623.4	
666.92	7562.5	
667.11	9142.8	
667.29	9066.4	
667.48	9624.8	
667.67	8785.8	
667.85	7918.8	
668.04	9089.6	
668.22	9010.4	
668.41	7886.7	
668.6	8108.6	
668.78	8905.9	
668.97	9157.8	
669.15	8227.4	
669.34	7164.5	
669.53	8905.9	
669.71	9314.2	
669.9	7387.7	
670.08	8061.5	
670.27	8991.9	
670.46	9397.4	
670.64	8333.2	
670.83	8576.9	
671.01	8662.2	
671.2	9313.5	
671.38	7564.5	
671.57	7432.8	
671.76	10046	
671.94	10581	
672.13	7368.6	
672.31	8310	
672.5	9522.4	
672.69	8857.5	
672.87	7479.9	
673.06	7763.8	
673.24	9386.5	
673.43	8936	
673.61	8225.3	
673.8	7773.4	
673.98	9536.7	
674.17	9775.6	
674.36	8380.3	
674.54	8217.8	
674.73	9288.2	
674.91	9422	
675.1	7910.6	
675.28	7502.4	
675.47	9106.6	
675.65	9664.4	
675.84	7755	
676.03	8128.4	
676.21	8880.7	
676.4	8397.4	
676.58	8531.8	
676.77	8349.6	
676.95	10450	
677.14	8785.1	
677.32	7299	
677.51	7241.6	
677.69	9593.4	
677.88	8419.9	
678.06	7299	
678.25	7328.3	
678.44	9094.3	
678.62	8783.7	
678.81	7086	
678.99	8079.9	
679.18	9923.1	
679.36	9466.4	
679.55	7657.4	
679.73	8283.4	
679.92	9438.4	
680.1	8883.4	
680.29	8956.4	
680.47	7740	
680.66	8714.8	
680.84	9603.6	
681.03	7027.9	
681.21	8153.6	
681.4	8803.5	
681.58	8669.7	
681.77	7423.2	
681.95	7371.3	
682.14	9643.2	
682.32	9972.9	
682.51	8260.1	
682.69	7078.5	
682.88	8610.3	
683.06	9299.1	
683.25	7913.4	
683.43	8281.3	
683.62	8942.8	
683.8	9335.3	
683.99	8393.9	
684.17	7637.6	
684.36	10002	
684.54	8590.5	
684.73	6542.6	
684.91	6834.8	
685.1	8690.9	
685.28	8068.3	
685.46	7262.1	
685.65	7404.1	
685.83	8974.2	
686.02	8317.5	
686.2	6834.8	
686.39	6958.3	
686.57	8075.8	
686.76	9693.7	
686.94	6954.2	
687.13	7009.5	
687.31	8972.8	
687.5	8383	
687.68	6513.2	
687.86	7800	
688.05	10205	
688.23	7905.2	
688.42	7879.2	
688.6	7044.3	
688.79	8293.6	
688.97	8453.3	
689.16	7507.2	
689.34	6444.3	
689.52	9149.6	
689.71	9264.3	
689.89	7664.9	
690.08	6982.2	
690.26	8610.3	
690.45	8488.1	
690.63	7806.9	
690.81	7101	
691	8221.2	
691.18	8190.5	
691.37	7129	
691.55	9387.9	
691.74	8090.2	
691.92	10214	
692.1	7161.1	
692.29	6572.6	
692.47	8389.2	
692.66	7626	
692.84	6825.2	
693.02	7567.2	
693.21	7863.5	
693.39	8408.3	
693.58	7572	
693.76	7052.5	
693.94	9653.4	
694.13	9524.4	
694.31	7172	
694.5	8117.5	
694.68	8359.8	
694.86	8715.5	
695.05	7400.7	
695.23	7641	
695.42	9146.9	
695.6	11400	
695.78	8054.7	
695.97	7021.8	
696.15	9066.4	
696.34	8334.6	
696.52	6856.6	
696.7	7598	
696.89	8769.4	
697.07	8108.6	
697.25	7591.8	
697.44	9101.9	
697.62	8597.4	
697.81	8972.8	
697.99	7122.8	
698.17	7750.2	
698.36	7882.6	
698.54	8654	
698.72	7516	
698.91	6562.4	
699.09	8192.6	
699.28	8127.7	
699.46	7144	
699.64	7017	
699.83	8033.5	
700.01	9284.1	
700.19	7879.9	
700.38	6358.9	
700.56	9314.8	
700.74	8201.4	
700.93	6746.7	
701.11	7707.2	
701.29	8766	
701.48	9898.5	
701.66	7053.2	
701.84	7040.2	
702.03	8364.6	
702.21	9065	
702.39	6541.2	
702.58	7204.8	
702.76	8815.1	
702.94	8993.3	
703.13	6552.8	
703.31	9075.2	
703.49	7985.7	
703.68	9630.9	
703.86	6855.9	
704.04	7876.5	
704.23	8628.8	
704.41	9011.1	
704.59	7071	
704.78	8281.3	
704.96	9769.5	
705.14	9093	
705.33	6825.2	
705.51	7667.6	
705.69	8344.8	
705.87	9382.4	
706.06	7858.7	
706.24	6695.5	
706.42	8837	
706.61	9088.9	
706.79	7889.5	
706.97	6746	
707.16	8256	
707.34	8833.6	
707.52	7872.4	
707.7	6998.6	
707.89	8306.6	
708.07	8045.1	
708.25	7836.9	
708.44	8016.4	
708.62	8328.4	
708.8	9490.3	
708.98	8065.6	
709.17	7079.1	
709.35	8740.7	
709.53	8645.2	
709.72	6731	
709.9	6913.3	
710.08	8908.7	
710.26	8909.3	
710.45	8396	
710.63	7054.6	
710.81	8654	
710.99	8547.5	
711.18	7591.1	
711.36	7069.6	
711.54	8349.6	
711.72	9054.8	
711.91	7135.1	
712.09	6506.4	
712.27	8403.5	
712.45	8997.4	
712.64	7286	
712.82	6292	
713	7724.9	
713.18	7814.4	
713.37	6188.3	
713.55	7385	
713.73	8514.8	
713.91	7047.7	
714.1	6348.7	
714.28	5763.7	
714.46	7913.4	
714.64	7081.9	
714.83	5128.8	
715.01	5898.1	
715.19	7111.9	
715.37	6497.5	
715.55	5587.5	
715.74	5867.4	
715.92	8082.6	
716.1	6042.2	
716.28	6986.3	
716.47	5948.7	
716.65	6701.6	
716.83	6815.6	
717.01	5867.4	
717.19	5965.1	
717.38	8982.4	
717.56	6524.1	
717.74	6260	
717.92	5369.1	
718.1	7869	
718.29	7125.6	
718.47	5156.1	
718.65	5821.7	
718.83	7913.4	
719.01	7796.6	
719.2	5091.3	
719.38	6250.4	
719.56	7576.8	
719.74	9140.8	
719.92	5727.5	
720.11	6738.5	
720.29	7418.4	
720.47	6522.1	
720.65	5125.4	
720.83	5955.5	
721.02	6766.5	
721.2	6588.3	
721.38	6079.1	
721.56	5158.8	
721.74	6102.3	
721.92	6249	
722.11	6583.5	
722.29	6180.8	
722.47	7535.8	
722.65	6705.7	
722.83	5282.4	
723.01	6098.9	
723.2	6762.4	
723.38	7069.6	
723.56	4677.6	
723.74	5875.6	
723.92	6276.3	
724.1	7484.6	
724.29	5137	
724.47	6411.5	
724.65	6304.3	
724.83	6324.8	
725.01	5014.8	
725.19	5999.9	
725.37	6386.2	
725.56	6447	
725.74	4926	
725.92	5207.3	
726.1	6238.8	
726.28	6607.4	
726.46	5628.5	
726.64	5386.8	
726.83	6576.7	
727.01	6849.1	
727.19	4898.1	
727.37	5730.9	
727.55	6748.7	
727.73	7183.6	
727.91	4907.6	
728.09	4774.5	
728.28	7230.7	
728.46	8015.7	
728.64	6011.5	
728.82	5990.3	
729	8542.8	
729.18	7688.8	
729.36	5195.7	
729.54	7571.3	
729.72	8903.9	
729.91	7157.7	
730.09	7320.1	
730.27	6014.9	
730.45	7038.9	
730.63	7689.4	
730.81	6655.9	
730.99	5684.5	
731.17	8221.9	
731.35	6794.5	
731.53	6295.5	
731.71	5767.8	
731.9	7997.3	
732.08	8129.1	
732.26	6068.1	
732.44	5647.6	
732.62	8110.6	
732.8	7595.2	
732.98	6423.1	
733.16	5455.1	
733.34	7592.5	
733.52	6370.5	
733.7	6017.6	
733.88	6275	
734.07	7531.1	
734.25	7314.7	
734.43	5460.6	
734.61	7135.8	
734.79	8759.8	
734.97	7075.7	
735.15	5589.6	
735.33	6012.8	
735.51	7496.2	
735.69	7101	
735.87	7109.9	
736.05	6261.3	
736.23	7408.2	
736.41	7171.3	
736.59	6075.6	
736.77	6143.9	
736.95	7842.4	
737.13	7316.7	
737.32	5752.7	
737.5	5965.1	
737.68	8400.8	
737.86	7069.6	
738.04	5543.9	
738.22	7404.1	
738.4	6954.9	
738.58	7307.8	
738.76	6201.2	
738.94	5128.8	
739.12	7109.2	
739.3	7026.6	
739.48	6875	
739.66	6572.6	
739.84	7360.4	
740.02	7437.5	
740.2	5189.6	
740.38	5659.9	
740.56	7763.2	
740.74	6651.8	
740.92	6356.9	
741.1	6165.8	
741.28	7218.4	
741.46	7048.4	
741.64	5812.1	
741.82	6349.4	
742	7244.3	
742.18	7187.7	
742.36	6021	
742.54	5640.1	
742.72	7750.9	
742.9	6523.5	
743.08	6468.2	
743.26	5222.3	
743.44	8051.2	
743.62	7836.2	
743.8	6645.7	
743.98	5627.8	
744.16	7507.9	
744.34	7191.1	
744.52	6462.7	
744.7	6451.8	
744.88	7703.8	
745.06	7154.2	
745.24	6439.5	
745.42	6617.7	
745.6	7696.3	
745.78	7475.1	
745.96	5315.8	
746.14	5547.3	
746.32	8497.7	
746.5	7714.7	
746.68	6176.7	
746.86	5660.6	
747.03	8184.4	
747.21	6435.4	
747.39	6124.8	
747.57	5637.4	
747.75	7333.1	
747.93	7675.8	
748.11	5674.9	
748.29	5519.3	
748.47	8841.1	
748.65	6977.4	
748.83	6393.8	
749.01	6130.9	
749.19	7539.3	
749.37	6692.8	
749.55	5915.9	
749.73	5988.9	
749.91	7182.9	
750.09	6895.5	
750.26	6053.1	
750.44	5436	
750.62	7256.6	
750.8	7148.1	
750.98	5177.3	
751.16	5651	
751.34	7204.1	
751.52	6538.5	
751.7	6450.4	
751.88	5231.2	
752.06	7684.7	
752.24	7573.4	
752.42	5211.4	
752.59	5599.8	
752.77	7094.8	
752.95	8309.3	
753.13	6342.6	
753.31	5717.2	
753.49	6820.4	
753.67	7238.2	
753.85	6024.4	
754.03	5575.3	
754.21	7481.9	
754.38	7892.2	
754.56	5608	
754.74	4637.3	
754.92	6591	
755.1	7281.9	
755.28	4558.8	
755.46	4450.9	
755.64	7771.4	
755.82	7782.3	
755.99	4476.9	
756.17	4593.6	
756.35	5080.3	
756.53	6720.1	
756.71	3347.7	
756.89	4351.9	
757.07	6270.9	
757.25	5371.1	
757.42	4991.6	
757.6	5803.3	
757.78	6448.4	
757.96	5467.4	
758.14	4723.3	
758.32	4191.5	
758.5	4973.2	
758.67	5832.6	
758.85	4466.6	
759.03	4552.6	
759.21	5962.3	
759.39	5387.5	
759.57	4121.9	
759.75	5184.8	
759.92	6700.3	
760.1	5911.1	
760.28	5695.4	
760.46	6000.5	
760.64	5775.3	
760.82	5549.3	
760.99	5356.1	
761.17	4819.6	
761.35	6701.6	
761.53	5651.7	
761.71	5003.9	
761.89	5769.8	
762.06	6625.2	
762.24	6104.3	
762.42	5133.6	
762.6	4971.1	
762.78	6202.6	
762.96	6848.4	
763.13	5621.7	
763.31	5212.1	
763.49	7109.9	
763.67	6270.9	
763.85	6161	
764.02	6700.3	
764.2	7391.8	
764.38	6586.3	
764.56	5137	
764.74	6051.1	
764.91	7543.4	
765.09	6346.7	
765.27	4828.4	
765.45	4640	
765.63	7532.4	
765.8	7391.8	
765.98	4303.5	
766.16	4702.8	
766.34	5905	
766.52	5670.1	
766.69	5618.9	
766.87	4536.9	
767.05	6356.9	
767.23	7026.6	
767.41	4834.6	
767.58	5064.6	
767.76	6915.3	
767.94	6995.9	
768.12	4831.8	
768.29	5668.1	
768.47	6328.9	
768.65	7130.3	
768.83	4463.2	
769	5738.4	
769.18	5887.2	
769.36	6673.6	
769.54	5653.8	
769.72	4562.2	
769.89	6890	
770.07	7077.1	
770.25	4821.6	
770.43	6198.5	
770.6	7667.6	
770.78	8141.4	
770.96	5046.2	
771.14	5625.1	
771.31	6752.2	
771.49	6045.6	
771.67	4074.1	
771.85	4405.9	
772.02	5339.1	
772.2	6120	
772.38	5192.3	
772.55	4670.1	
772.73	6307.7	
772.91	6107	
773.09	4946.5	
773.26	5110.4	
773.44	6386.9	
773.62	5973.2	
773.8	4491.9	
773.97	4167.6	
774.15	6376	
774.33	5974.6	
774.5	4336.9	
774.68	4730.1	
774.86	6510.5	
775.04	5934.3	
775.21	4363.5	
775.39	4405.2	
775.57	6242.2	
775.74	6605.4	
775.92	4240	
776.1	4186.7	
776.27	6154.1	
776.45	7449.8	
776.63	4398.4	
776.81	3917.8	
776.98	5734.3	
777.16	6931	
777.34	4538.3	
777.51	4506.9	
777.69	5741.8	
777.87	5539.8	
778.04	4536.3	
778.22	5131.5	
778.4	5532.9	
778.57	6222.4	
778.75	3785.3	
778.93	4061.8	
779.1	5352.7	
779.28	5147.9	
779.46	3719.8	
779.64	4245.4	
779.81	6373.3	
779.99	7228	
780.17	5051	
780.34	5293.3	
780.52	5736.4	
780.69	6006.7	
780.87	4542.4	
781.05	4176.5	
781.22	5820.3	
781.4	5842.2	
781.58	4232.5	
781.75	3407.1	
781.93	5841.5	
782.11	5229.1	
782.28	5193	
782.46	4263.9	
782.64	5096.7	
782.81	6083.1	
782.99	4323.3	
783.17	4255.7	
783.34	5879	
783.52	5117.2	
783.69	4414.7	
783.87	5323.4	
784.05	5129.5	
784.22	5145.2	
784.4	5219.6	
784.58	4499.4	
784.75	6145.3	
784.93	5218.9	
785.1	4173.1	
785.28	4828.4	
785.46	5786.2	
785.63	5186.8	
785.81	4116.4	
785.99	4024.3	
786.16	5288.5	
786.34	5722.7	
786.51	4052.2	
786.69	4500.1	
786.87	4893.3	
787.04	5440.8	
787.22	3894.6	
787.39	4889.2	
787.57	5113.1	
787.75	6293.4	
787.92	5038	
788.1	5025	
788.27	5199.8	
788.45	4922	
788.63	4619.5	
788.8	3355.3	
788.98	5551.4	
789.15	4896.7	
789.33	3586.7	
789.5	4169.7	
789.68	6080.4	
789.86	6244.3	
790.03	4578.6	
790.21	4040.6	
790.38	6042.2	
790.56	5299.5	
790.73	3845.4	
790.91	3887	
791.09	5152.7	
791.26	5971.2	
791.44	4108.9	
791.61	3515	
791.79	5079.6	
791.96	5162.2	
792.14	3688.4	
792.32	3259	
792.49	5094.7	
792.67	5224.4	
792.84	3732.1	
793.02	3573	
793.19	5627.1	
793.37	6368.5	
793.54	3213.9	
793.72	3572.3	
793.89	6545.3	
794.07	5051.7	
794.25	4276.2	
794.42	3315.7	
794.6	6240.8	
794.77	5868.1	
794.95	4481.6	
795.12	3991.5	
795.3	5145.9	
795.47	5827.8	
795.65	4329.4	
795.82	4185.4	
796	4942.4	
796.17	6868.9	
796.35	3996.3	
796.52	4726.7	
796.7	5641.5	
796.87	5753.4	
797.05	4997	
797.22	4878.9	
797.4	5732.9	
797.57	6758.3	
797.75	4193.6	
797.92	3875.4	
798.1	5969.1	
798.27	5091.9	
798.45	3330	
798.62	3570.3	
798.8	5451.7	
798.97	5917.9	
799.15	4369	
799.32	4162.2	
799.5	4650.9	
799.67	5427.1	
799.85	4531.5	
800.02	3267.2	
800.2	5091.9	
800.37	5403.9	
800.55	4626.4	
800.72	3919.8	
800.9	5778	
801.07	6322.1	
801.25	5310.4	
801.42	4230.4	
801.6	5942.5	
801.77	5684.5	
801.95	3938.2	
802.12	3794.2	
802.29	5586.9	
802.47	5569.1	
802.64	4227.7	
802.82	3190.7	
802.99	5068	
803.17	6105.7	
803.34	4127.3	
803.52	3714.3	
803.69	6732.4	
803.87	4800.4	
804.04	4085	
804.21	4275.5	
804.39	6238.8	
804.56	5261.9	
804.74	3491.1	
804.91	4306.9	
805.09	5034.6	
805.26	5125.4	
805.44	3543	
805.61	3953.3	
805.78	5782.8	
805.96	5797.1	
806.13	4278.9	
806.31	4539.7	
806.48	4575.2	
806.66	5154.1	
806.83	4275.5	
807	4157.4	
807.18	5032.5	
807.35	5466	
807.53	4119.8	
807.7	3257	
807.87	6277	
808.05	5124	
808.22	4567	
808.4	3290.4	
808.57	5118.6	
808.74	4720.6	
808.92	3775.8	
809.09	4853	
809.27	4955.4	
809.44	5633.3	
809.61	3330	
809.79	3729.4	
809.96	6170.5	
810.14	5802.6	
810.31	3240.6	
810.48	3977.2	
810.66	5193	
810.83	5931.6	
811.01	3756	
811.18	4195.6	
811.35	5851.7	
811.53	4530.8	
811.7	4547.2	
811.87	4235.2	
812.05	5076.2	
812.22	4965.6	
812.39	3674.1	
812.57	3551.9	
812.74	5063.9	
812.92	6749.4	
813.09	3946.4	
813.26	4304.8	
813.44	6524.1	
813.61	5031.2	
813.78	3341.6	
813.96	4449.6	
814.13	5121.3	
814.3	4754	
814.48	4792.9	
814.65	3939.6	
814.82	6337.8	
815	4846.2	
815.17	4077.5	
815.34	4988.9	
815.52	5016.2	
815.69	5074.2	
815.87	4033.8	
816.04	3489.1	
816.21	5129.5	
816.38	4435.2	
816.56	3919.1	
816.73	3653.6	
816.9	6468.9	
817.08	5862.7	
817.25	3749.8	
817.42	4659.1	
817.6	4672.8	
817.77	5071.5	
817.94	4154.6	
818.12	3614	
818.29	4847.5	
818.46	7518.8	
818.64	3777.8	
818.81	3601.7	
818.98	4764.9	
819.16	7007.5	
819.33	4390.8	
819.5	4139.6	
819.67	5576.6	
819.85	6077	
820.02	3999	
820.19	4254.3	
820.37	5298.8	
820.54	4840.7	
820.71	4154.6	
820.88	5193	
821.06	5263.3	
821.23	4908.3	
821.4	4230.4	
821.58	4168.3	
821.75	5904.3	
821.92	5207.3	
822.09	3375.7	
822.27	3534.8	
822.44	5104.9	
822.61	4967.7	
822.79	3353.2	
822.96	6483.9	
823.13	5606.7	
823.3	4811.4	
823.48	3857	
823.65	3538.9	
823.82	5775.3	
823.99	4632.5	
824.17	4893.3	
824.34	3565.5	
824.51	6716	
824.68	5173.9	
824.86	3688.4	
825.03	4149.9	
825.2	5068.7	
825.37	6203.3	
825.55	3670.6	
825.72	4077.5	
825.89	6801.3	
826.06	6259.3	
826.24	3998.3	
826.41	4001	
826.58	6212.9	
826.75	5436.7	
826.92	3175	
827.1	3469.3	
827.27	8509.3	
827.44	6731	
827.61	3837.2	
827.79	4607.9	
827.96	4818.9	
828.13	5170.4	
828.3	3924.6	
828.47	3315	
828.65	5289.9	
828.82	5287.2	
828.99	5119.9	
829.16	4477.5	
829.34	5717.2	
829.51	5479.7	
829.68	4194.9	
829.85	4302.1	
830.02	6015.6	
830.2	5754.1	
830.37	3157.3	
830.54	4932.9	
830.71	6530.3	
830.88	5022.3	
831.05	3252.2	
831.23	3780.6	
831.4	6208.1	
831.57	7032	
831.74	3802.4	
831.91	3363.4	
832.09	5330.2	
832.26	5640.1	
832.43	3943	
832.6	4437.3	
832.77	5330.9	
832.94	6142.5	
833.12	3170.9	
833.29	3881.6	
833.46	5292	
833.63	7203.4	
833.8	4285.7	
833.97	4005.1	
834.15	5727.5	
834.32	5507.7	
834.49	4042.7	
834.66	4203.8	
834.83	5956.9	
835	4843.4	
835.17	3760.8	
835.35	3814.7	
835.52	5533.6	
835.69	5479	
835.86	4087.1	
836.03	3332.7	
836.2	5586.2	
836.37	5324.7	
836.55	3872.7	
836.72	3664.5	
836.89	5248.3	
837.06	5793	
837.23	3960.1	
837.4	4386.1	
837.57	6495.5	
837.75	7247.8	
837.92	3584.6	
838.09	3827.7	
838.26	5259.2	
838.43	6037.4	
838.6	4172.4	
838.77	3676.8	
838.94	6976.1	
839.11	6597.9	
839.29	3920.5	
839.46	3050.1	
839.63	5653.8	
839.8	5415.5	
839.97	3807.9	
840.14	3855	
840.31	5460.6	
840.48	5763	
840.65	3143.6	
840.82	3756.7	
841	5771.9	
841.17	5633.3	
841.34	3559.4	
841.51	3599	
841.68	5626.5	
841.85	5343.8	
842.02	3676.8	
842.19	2988.7	
842.36	5425.8	
842.53	5440.8	
842.7	3512.9	
842.87	4351.9	
843.05	7245	
843.22	5364.3	
843.39	3315.7	
843.56	3702	
843.73	5117.2	
843.9	5765	
844.07	5722.7	
844.24	4750.6	
844.41	8480.6	
844.58	4932.9	
844.75	3401	
844.92	3689.1	
845.09	5700.9	
845.26	5650.3	
845.43	3462.4	
845.6	3642	
845.77	5690.6	
845.94	5429.8	
846.12	3891.1	
846.29	4095.3	
846.46	5920.7	
846.63	5657.2	
846.8	3538.2	
846.97	4199.7	
847.14	6101.6	
847.31	5595.1	
847.48	3959.4	
847.65	4388.1	
847.82	5986.2	
847.99	5870.2	
848.16	4693.9	
848.33	4323.3	
848.5	5212.1	
848.67	6236.1	
848.84	3468.6	
849.01	3689.1	
849.18	5113.1	
849.35	4747.9	
849.52	4331.5	
849.69	3406.5	
849.86	5853.8	
850.03	6139.8	
850.2	3568.9	
850.37	4278.2	
850.54	6111.8	
850.71	5311.1	
850.88	4233.8	
851.05	3445.4	
851.22	5587.5	
851.39	6208.1	
851.56	3311.6	
851.73	3956.7	
851.9	4999.1	
852.07	5922.7	
852.24	3905.5	
852.41	3459.7	
852.58	5558.2	
852.75	5034.6	
852.92	3900.7	
853.09	3386	
853.26	5356.8	
853.43	6141.2	
853.6	3525.2	
853.77	2981.2	
853.94	6268.1	
854.11	5644.9	
854.28	5228.5	
854.44	3742.3	
854.61	6700.3	
854.78	5758.9	
854.95	3466.5	
855.12	4384.7	
855.29	4572.4	
855.46	6453.8	
855.63	3449.5	
855.8	4825.7	
855.97	5259.9	
856.14	6022.4	
856.31	4873.5	
856.48	3771	
856.65	5233.9	
856.82	4951.3	
856.99	3315.7	
857.16	3763.5	
857.33	6962.4	
857.49	5340.4	
857.66	3798.3	
857.83	4130.1	
858	5323.4	
858.17	5494	
858.34	3281.5	
858.51	3480.9	
858.68	6369.2	
858.85	6427.9	
859.02	4059.1	
859.19	4362.2	
859.36	4942.4	
859.52	5035.3	
859.69	3516.4	
859.86	4143	
860.03	5079	
860.2	6327.5	
860.37	3145	
860.54	3493.2	
860.71	5904.3	
860.88	6279.1	
861.05	3880.9	
861.21	4354.7	
861.38	6413.6	
861.55	4885.1	
861.72	3188.7	
861.89	3935.5	
862.06	5979.4	
862.23	6476.4	
862.4	3409.2	
862.56	3620.1	
862.73	5847.6	
862.9	5471.5	
863.07	4147.1	
863.24	3151.8	
863.41	4885.1	
863.58	4982.7	
863.75	3569.6	
863.91	4059.8	
864.08	6273.6	
864.25	5816.9	
864.42	4469.4	
864.59	4958.1	
864.76	6582.2	
864.93	4994.3	
865.09	3428.3	
865.26	3734.8	
865.43	6201.9	
865.6	6495.5	
865.77	3086.3	
865.94	3443.3	
866.1	6173.3	
866.27	6014.9	
866.44	5272.8	
866.61	3293.1	
866.78	5381.4	
866.95	5843.5	
867.11	3335.5	
867.28	3093.1	
867.45	6086.6	
867.62	5090.6	
867.79	4014.7	
867.96	3484.3	
868.12	4979.3	
868.29	5995.8	
868.46	3496.6	
868.63	4689.8	
868.8	6193.1	
868.97	5851	
869.13	3630.4	
869.3	3617.4	
869.47	5800.5	
869.64	5954.1	
869.81	3552.5	
869.97	3522.5	
870.14	5618.3	
870.31	6373.3	
870.48	3386	
870.65	4371.7	
870.81	5267.4	
870.98	5221	
871.15	3951.9	
871.32	3662.5	
871.48	5782.8	
871.65	6335	
871.82	3465.8	
871.99	3812	
872.16	6868.2	
872.32	6210.1	
872.49	3557.3	
872.66	3562.1	
872.83	5878.4	
872.99	5231.9	
873.16	3998.3	
873.33	3462.4	
873.5	5524.1	
873.67	5516.5	
873.83	3665.9	
874	4691.2	
874.17	5688.6	
874.34	6767.2	
874.5	4497.3	
874.67	4360.1	
874.84	6361.7	
875.01	4969.1	
875.17	4917.9	
875.34	3433.1	
875.51	5601.2	
875.68	6738.5	
875.84	4254.3	
876.01	5042.8	
876.18	5856.5	
876.34	5766.4	
876.51	3500.7	
876.68	3400.3	
876.85	5367	
877.01	6174.6	
877.18	5028.4	
877.35	3439.2	
877.52	5445.5	
877.68	4926	
877.85	3409.2	
878.02	3371	
878.18	5411.4	
878.35	5131.5	
878.52	2803	
878.69	3890.5	
878.85	5917.3	
879.02	5838.1	
879.19	4973.2	
879.35	3766.2	
879.52	5883.8	
879.69	6066.8	
879.86	2954.5	
880.02	3876.1	
880.19	5442.1	
880.36	6622.4	
880.52	4001.7	
880.69	4206.5	
880.86	5911.1	
881.02	6045.6	
881.19	3820.1	
881.36	3869.3	
881.52	5868.1	
881.69	5186.1	
881.86	3866.6	
882.02	3706.8	
882.19	6117.3	
882.36	7211.6	
882.52	3539.6	
882.69	4907.6	
882.86	5662	
883.02	5598.5	
883.19	4246.1	
883.36	3984.7	
883.52	5985.5	
883.69	6811.5	
883.86	3573	
884.02	3162.1	
884.19	5912.5	
884.36	5394.3	
884.52	3947.8	
884.69	3711.6	
884.86	5186.1	
885.02	6550.8	
885.19	3918.4	
885.36	4040.6	
885.52	5479	
885.69	5718.6	
885.86	5120.6	
886.02	4495.3	
886.19	5892.7	
886.35	5360.2	
886.52	3825.6	
886.69	4923.3	
886.85	5036	
887.02	6279.1	
887.19	6279.1	
887.35	6279.1	
887.52	6279.1	
887.68	6279.1	
887.85	6279.1	
888.02	6279.1	
888.18	6279.1	
888.35	6279.1	
888.51	6279.1	
888.68	6279.1	
888.85	6279.1	
889.01	6279.1	
889.18	6279.1	
889.35	6279.1	
889.51	6279.1	
889.68	6279.1	
889.84	6279.1	
890.01	6279.1	
890.17	6279.1	
890.34	6279.1	
890.51	6279.1	
890.67	6279.1	
890.84	6279.1	
891	6279.1	
891.17	6279.1	
891.34	6279.1	
891.5	6279.1	
891.67	6279.1	
891.83	6279.1	
892	6279.1	
892.16	6279.1	
892.33	6279.1	
892.5	6279.1	
892.66	6279.1	
892.83	6279.1	
892.99	6279.1	
893.16	6279.1	
893.32	6279.1	
893.49	6279.1	
893.65	6279.1	
893.82	6279.1	
893.99	6279.1	
894.15	6279.1	
894.32	6279.1	
894.48	6279.1	
894.65	6279.1	
894.81	6279.1	
894.98	6279.1	
895.14	6279.1	
895.31	6279.1	
895.47	6279.1	
895.64	6279.1	
895.81	6279.1	
895.97	6279.1	
896.14	6279.1	
896.3	6279.1	
896.47	6279.1	
896.63	6279.1	
896.8	6279.1	
896.96	6279.1	
897.13	6279.1	
897.29	6279.1	
897.46	6279.1	
897.62	6279.1	
897.79	6279.1	
897.95	6279.1	
898.12	6279.1	
898.28	6279.1	
898.45	6279.1	
898.61	6279.1	
898.78	6279.1	
898.94	6279.1	
899.11	6279.1	
899.27	6279.1	
899.44	6279.1	
899.6	6279.1	
899.77	6279.1	
899.93	6279.1	
900.1	6279.1	
900.26	6279.1	
900.43	6279.1	
900.59	6279.1	
900.76	6279.1	
900.92	6279.1	
901.09	6279.1	
901.25	6279.1	
901.42	6279.1	
901.58	6279.1	
901.75	6279.1	
901.91	6279.1	
902.07	6279.1	
902.24	6279.1	
902.4	6279.1	
902.57	6279.1	
902.73	6279.1	
902.9	6279.1	
903.06	6279.1	
903.23	6279.1	
903.39	6279.1	
903.56	6279.1	
903.72	6279.1	
903.88	6279.1	
904.05	6279.1	
904.21	6279.1	
904.38	6279.1	
904.54	6279.1	
904.71	6279.1	
904.87	6279.1	
905.03	6279.1	
905.2	6279.1	
905.36	6279.1	
905.53	6279.1	
905.69	6279.1	
905.86	6279.1	
906.02	6279.1	
906.18	6279.1	
906.35	6279.1	
906.51	6279.1	
906.68	6279.1	
906.84	6279.1	
907.01	6279.1	
907.17	6279.1	
907.33	6279.1	
907.5	6279.1	
907.66	6279.1	
907.83	6279.1	
907.99	6279.1	
908.15	6279.1	
908.32	6279.1	
908.48	6279.1	
908.65	6279.1	
908.81	6279.1	
908.97	6279.1	
909.14	6279.1	
909.3	6279.1	
909.47	6279.1	
909.63	6279.1	
909.79	6279.1	
909.96	6279.1	
910.12	6279.1	
910.28	6279.1	
910.45	6279.1	
910.61	6279.1	
910.78	6279.1	
910.94	6279.1	
911.1	6279.1	
911.27	6279.1	
911.43	6279.1	
911.59	6279.1	
911.76	6279.1	
911.92	6279.1	
912.08	6279.1	
912.25	6279.1	
912.41	6279.1	
912.57	6279.1	
912.74	6279.1	
912.9	6279.1	
913.07	6279.1	
913.23	6279.1	
913.39	6279.1	
913.56	6279.1	
913.72	6279.1	
913.88	6279.1	
914.05	6279.1	
914.21	6279.1	
914.37	6279.1	
914.54	6279.1	
914.7	6279.1	
914.86	6279.1	
915.03	6279.1	
915.19	6279.1	
