Wavelength	Intensities	
nm	a.u.	
179.22	1674	
179.44	1667.4	
179.65	1680.7	
179.86	1654.1	
180.08	1682.1	
180.29	3888.4	
180.51	3032.4	
180.72	4952.7	
180.94	5561.6	
181.15	2688.3	
181.37	2723.1	
181.58	4719.2	
181.79	4965	
182.01	2852.8	
182.22	2964.1	
182.44	4980.7	
182.65	4360.1	
182.87	3636.5	
183.08	3313.6	
183.29	5318.6	
183.51	4394.9	
183.72	3027.6	
183.94	4148.5	
184.15	4717.8	
184.37	4715.1	
184.58	2702	
184.79	3562.1	
185.01	4496.7	
185.22	5085.8	
185.44	3653.6	
185.65	3196.2	
185.86	4732.9	
186.08	4359.4	
186.29	2673.3	
186.51	2790	
186.72	4510.3	
186.94	5077.6	
187.15	3226.2	
187.36	3239.9	
187.58	6357.6	
187.79	4869.4	
188.01	3380.5	
188.22	5050.3	
188.43	5628.5	
188.65	4962.2	
188.86	2831.7	
189.08	3325.9	
189.29	4608.6	
189.5	4533.5	
189.72	3032.4	
189.93	3123.8	
190.15	5132.9	
190.36	5920.7	
190.57	3310.2	
190.79	3223.5	
191	5170.4	
191.22	5156.1	
191.43	3364.1	
191.64	2903.3	
191.86	5312.4	
192.07	5201.8	
192.29	2928.6	
192.5	3024.8	
192.71	5150	
192.93	4530.1	
193.14	3086.3	
193.35	3121.8	
193.57	4552.6	
193.78	5121.3	
194	2565.4	
194.21	3009.1	
194.42	4360.1	
194.64	4773.1	
194.85	3252.9	
195.07	3765.5	
195.28	4759.5	
195.49	4228.4	
195.71	3890.5	
195.92	2878.8	
196.13	4917.9	
196.35	4983.4	
196.56	4151.9	
196.78	3292.5	
196.99	5939.1	
197.2	5524.1	
197.42	3721.2	
197.63	3297.9	
197.84	4302.8	
198.06	4982.7	
198.27	3044.6	
198.48	3889.1	
198.7	4572.4	
198.91	4743.8	
199.13	3274	
199.34	3267.2	
199.55	5103.5	
199.77	4152.6	
199.98	2920.4	
200.19	3373	
200.41	4678.2	
200.62	4456.4	
200.83	3402.4	
201.05	3633.1	
201.26	4737	
201.47	4560.1	
201.69	2960	
201.9	2979.1	
202.11	4745.8	
202.33	5425.1	
202.54	3073.3	
202.76	3504.8	
202.97	4797.7	
203.18	4889.9	
203.4	3415.3	
203.61	3442	
203.82	4767	
204.04	4489.1	
204.25	3336.1	
204.46	3225.6	
204.68	4803.2	
204.89	4924.7	
205.1	3222.8	
205.32	2843.9	
205.53	5068	
205.74	5157.5	
205.96	2493.1	
206.17	3390.1	
206.38	5024.3	
206.6	5081.7	
206.81	3735.5	
207.02	3068.5	
207.24	4900.8	
207.45	5223	
207.66	3147.7	
207.88	2799.6	
208.09	4917.9	
208.3	4741	
208.52	2967.5	
208.73	3181.2	
208.94	4717.2	
209.15	5253	
209.37	3132.7	
209.58	3276.1	
209.79	5121.3	
210.01	4627.7	
210.22	2686.3	
210.43	2700.6	
210.65	4687.8	
210.86	5005.2	
211.07	3132	
211.29	2913.6	
211.5	4942.4	
211.71	4721.3	
211.93	2932	
212.14	2934.7	
212.35	4700.8	
212.56	4792.9	
212.78	3294.5	
212.99	2745	
213.2	5466	
213.42	4564.9	
213.63	3052.2	
213.84	3199.6	
214.06	4300.7	
214.27	4398.4	
214.48	3131.3	
214.69	3340.9	
214.91	5249.6	
215.12	5250.3	
215.33	3310.9	
215.55	3568.9	
215.76	5664	
215.97	4986.1	
216.18	3229	
216.4	3231	
216.61	4451.6	
216.82	5073.5	
217.04	2959.3	
217.25	3052.2	
217.46	5179.3	
217.67	5040.7	
217.89	2716.3	
218.1	2778.4	
218.31	4766.3	
218.53	4885.1	
218.74	3072.6	
218.95	2981.2	
219.16	4726.7	
219.38	5506.3	
219.59	2993.4	
219.8	3528.7	
220.01	5853.1	
220.23	4747.2	
220.44	3772.4	
220.65	2933.4	
220.87	4810	
221.08	5220.3	
221.29	2835.8	
221.5	3547.8	
221.72	6087.9	
221.93	4466.6	
222.14	3340.9	
222.35	3805.1	
222.57	4786.8	
222.78	5070.8	
222.99	3177.1	
223.2	3356.6	
223.42	4982	
223.63	5070.1	
223.84	2499.2	
224.05	2560.6	
224.27	5784.8	
224.48	5380	
224.69	3809.9	
224.9	3295.2	
225.12	4902.2	
225.33	4731.5	
225.54	2706.7	
225.75	2979.1	
225.97	4451.6	
226.18	4656.4	
226.39	3188.7	
226.6	3012.6	
226.82	4552.6	
227.03	4457.1	
227.24	3321.8	
227.45	2833.7	
227.67	5066.7	
227.88	5326.1	
228.09	3652.2	
228.3	3594.9	
228.52	5014.8	
228.73	4725.3	
228.94	3136.8	
229.15	2771.6	
229.36	4737	
229.58	4677.6	
229.79	3110.9	
230	3504.1	
230.21	5567.1	
230.43	4751.3	
230.64	3260.4	
230.85	3386.7	
231.06	5066	
231.28	5107.6	
231.49	2781.8	
231.7	3253.5	
231.91	4984.1	
232.12	4758.1	
232.34	2902	
232.55	3268.6	
232.76	5266.7	
232.97	4798.4	
233.18	2938.8	
233.4	3284.9	
233.61	4813.4	
233.82	4592.9	
234.03	3089.7	
234.25	3082.9	
234.46	6238.1	
234.67	4792.9	
234.88	3344.3	
235.09	2967.5	
235.31	4924.7	
235.52	4699.4	
235.73	3240.6	
235.94	2826.2	
236.15	4520.5	
236.37	5580	
236.58	2955.2	
236.79	3215.3	
237	4973.8	
237.21	4330.8	
237.43	3430.3	
237.64	2716.3	
237.85	7713.3	
238.06	4427.7	
238.27	3375.7	
238.48	2854.2	
238.7	5044.8	
238.91	4659.1	
239.12	3143.6	
239.33	3246	
239.54	4499.4	
239.76	4678.9	
239.97	3199.6	
240.18	3190.1	
240.39	5663.3	
240.6	4891.2	
240.82	3335.5	
241.03	2775.7	
241.24	4780	
241.45	5342.5	
241.66	2928.6	
241.87	3443.3	
242.09	5304.9	
242.3	5543.9	
242.51	3458.3	
242.72	3149.1	
242.93	5079.6	
243.14	4714.4	
243.36	3642.7	
243.57	3915	
243.78	5350.7	
243.99	4949.3	
244.2	3165.5	
244.41	2895.8	
244.63	4411.3	
244.84	4891.9	
245.05	3385.3	
245.26	3160	
245.47	4980	
245.68	5091.9	
245.9	4077.5	
246.11	3324.5	
246.32	4614.8	
246.53	4965	
246.74	4932.2	
246.95	2735.4	
247.16	4460.5	
247.38	4746.5	
247.59	2785.2	
247.8	3231	
248.01	4474.1	
248.22	4732.2	
248.43	2959.3	
248.64	3095.8	
248.86	4345.1	
249.07	4573.1	
249.28	2841.9	
249.49	3267.9	
249.7	5156.8	
249.91	5194.3	
250.12	2743.6	
250.34	2764.1	
250.55	4882.4	
250.76	4770.4	
250.97	3295.2	
251.18	3319.1	
251.39	5254.4	
251.6	4902.2	
251.81	3323.9	
252.03	3334.8	
252.24	4592.9	
252.45	5092.6	
252.66	2798.2	
252.87	3414	
253.08	4799.8	
253.29	5881.8	
253.5	2883.5	
253.72	3786	
253.93	4635.2	
254.14	5532.9	
254.35	3066.5	
254.56	3174.4	
254.77	4904.2	
254.98	4496	
255.19	3074.7	
255.41	3757.3	
255.62	4872.1	
255.83	5203.9	
256.04	3338.2	
256.25	3287	
256.46	5664	
256.67	4536.3	
256.88	3330	
257.09	3581.2	
257.31	4416.8	
257.52	4478.2	
257.73	4009.2	
257.94	3035.1	
258.15	4620.2	
258.36	4693.3	
258.57	3733.4	
258.78	2543.6	
258.99	5161.6	
259.2	4614.1	
259.41	3065.1	
259.63	3141.6	
259.84	5335	
260.05	5578	
260.26	3857	
260.47	2996.9	
260.68	5174.5	
260.89	4667.3	
261.1	3621.5	
261.31	2918.4	
261.52	5224.4	
261.73	5456.5	
261.95	3850.2	
262.16	3364.1	
262.37	5288.5	
262.58	5345.9	
262.79	3815.4	
263	3126.6	
263.21	4844.8	
263.42	4362.9	
263.63	3282.2	
263.84	3063.8	
264.05	5157.5	
264.26	5427.8	
264.47	3717.7	
264.69	3308.2	
264.9	5355.4	
265.11	4863.9	
265.32	2951.1	
265.53	3091.8	
265.74	4876.9	
265.95	4293.9	
266.16	3242.6	
266.37	3506.1	
266.58	4857.1	
266.79	4576.5	
267	3023.5	
267.21	2871.3	
267.42	4380.6	
267.63	4784.7	
267.84	3182.5	
268.06	2803	
268.27	5136.3	
268.48	5289.2	
268.69	3148.4	
268.9	3582.6	
269.11	5315.8	
269.32	4315.8	
269.53	3165.5	
269.74	2946.3	
269.95	4936.3	
270.16	4279.6	
270.37	3198.2	
270.58	3646.1	
270.79	4611.3	
271	5143.8	
271.21	3362.1	
271.42	3220.8	
271.63	4903.5	
271.84	4433.2	
272.05	2681.5	
272.26	2902.7	
272.47	4747.2	
272.68	4905.6	
272.89	3105.4	
273.11	3472	
273.32	4578.6	
273.53	5356.8	
273.74	3398.9	
273.95	3309.5	
274.16	5104.2	
274.37	4775.9	
274.58	3493.8	
274.79	2871.9	
275	4881	
275.21	5169.8	
275.42	4109.6	
275.63	3492.5	
275.84	4956.1	
276.05	6016.2	
276.26	3318.4	
276.47	3100.6	
276.68	4647.5	
276.89	5511.1	
277.1	3547.1	
277.31	2880.8	
277.52	4938.3	
277.73	5149.3	
277.94	2774.3	
278.15	3094.5	
278.36	4958.8	
278.57	4543.8	
278.78	3087.7	
278.99	3410.6	
279.2	4555.4	
279.41	4420.9	
279.62	3941.7	
279.83	2885.6	
280.04	5639.4	
280.25	4455	
280.46	3954.6	
280.67	3136.1	
280.88	4521.2	
281.09	5192.3	
281.3	3363.4	
281.51	4089.8	
281.72	4522.6	
281.93	5155.4	
282.14	3024.2	
282.35	3291.1	
282.56	5184.8	
282.77	5119.9	
282.98	3072.6	
283.19	3649.5	
283.4	6136.4	
283.61	4736.3	
283.82	2895.1	
284.03	3850.9	
284.24	4935.6	
284.45	5166.3	
284.66	3878.2	
284.87	3711.6	
285.08	5131.5	
285.29	5271.5	
285.5	2783.2	
285.71	3135.4	
285.92	5130.8	
286.12	5670.1	
286.33	3855.6	
286.54	3153.9	
286.75	5075.5	
286.96	4636.6	
287.17	2901.3	
287.38	3748.5	
287.59	4536.3	
287.8	4516.5	
288.01	3140.9	
288.22	3507.5	
288.43	5075.5	
288.64	4326	
288.85	3627	
289.06	3489.1	
289.27	5096	
289.48	5337.7	
289.69	3847.5	
289.9	3535.5	
290.11	5273.5	
290.32	4555.4	
290.53	3689.1	
290.74	3355.9	
290.94	5057.1	
291.15	5073.5	
291.36	3033.7	
291.57	3449.5	
291.78	4596.3	
291.99	4276.8	
292.2	2909.5	
292.41	3439.9	
292.62	5171.8	
292.83	5020.3	
293.04	4134.2	
293.25	3013.2	
293.46	4595.6	
293.67	5141.1	
293.88	2992.1	
294.09	2941.6	
294.29	4437.3	
294.5	4838.7	
294.71	3229.6	
294.92	3089.7	
295.13	4581.3	
295.34	5549.3	
295.55	2775.7	
295.76	2747	
295.97	5069.4	
296.18	5606	
296.39	2870.6	
296.6	2998.9	
296.81	4790.9	
297.01	5049.6	
297.22	3172.3	
297.43	3039.9	
297.64	4617.5	
297.85	4471.4	
298.06	2625.5	
298.27	2783.9	
298.48	4781.3	
298.69	4545.8	
298.9	3248.1	
299.11	3016	
299.31	4418.8	
299.52	4414.1	
299.73	3469.9	
299.94	3386.7	
300.15	4812.7	
300.36	4471.4	
300.57	3413.3	
300.78	3343	
300.99	4608.6	
301.2	4829.1	
301.4	3031	
301.61	3254.2	
301.82	5033.2	
302.03	5057.1	
302.24	3587.4	
302.45	2883.5	
302.66	4970.4	
302.87	5227.8	
303.08	3006.4	
303.29	3942.3	
303.49	4631.1	
303.7	4732.9	
303.91	2785.2	
304.12	3760.8	
304.33	4407.9	
304.54	4885.8	
304.75	3016	
304.96	2938.2	
305.16	5046.9	
305.37	5505.6	
305.58	2706.7	
305.79	2748.4	
306	4963.6	
306.21	4283	
306.42	3020.8	
306.63	4373.8	
306.83	4623.6	
307.04	5087.8	
307.25	3293.1	
307.46	3312.2	
307.67	4225	
307.88	5042.1	
308.09	3062.4	
308.29	3029.6	
308.5	4833.9	
308.71	5181.4	
308.92	3218	
309.13	2908.8	
309.34	4743.8	
309.55	4741	
309.75	3630.4	
309.96	3338.9	
310.17	5013.4	
310.38	4505.5	
310.59	3473.4	
310.8	2904	
311.01	5283.1	
311.21	4663.2	
311.42	2922.5	
311.63	2994.8	
311.84	4549.9	
312.05	4826.4	
312.26	3336.1	
312.46	3579.2	
312.67	4620.9	
312.88	4409.3	
313.09	2947.7	
313.3	2864.4	
313.51	5365	
313.71	5532.9	
313.92	2951.1	
314.13	3067.2	
314.34	4874.2	
314.55	4747.2	
314.76	3657	
314.96	3224.9	
315.17	4868	
315.38	5050.3	
315.59	3018	
315.8	2798.9	
316.01	5309.7	
316.21	5420.3	
316.42	2889.7	
316.63	3200.3	
316.84	4627.7	
317.05	5211.4	
317.26	3375.7	
317.46	3104.7	
317.67	4648.9	
317.88	5012.7	
318.09	3624.9	
318.3	2837.1	
318.5	4608.6	
318.71	4931.5	
318.92	4433.9	
319.13	3373.7	
319.34	5117.9	
319.54	5266	
319.75	2760	
319.96	2622.1	
320.17	5033.2	
320.38	5134.9	
320.58	2741.5	
320.79	3153.9	
321	5220.3	
321.21	5324.7	
321.42	3201.7	
321.62	2773.6	
321.83	4509.6	
322.04	4783.4	
322.25	3140.9	
322.46	2990.7	
322.66	4848.2	
322.87	4960.9	
323.08	3476.8	
323.29	2900.6	
323.5	5608.7	
323.7	4404.5	
323.91	3837.9	
324.12	3515.7	
324.33	4874.8	
324.53	4953.4	
324.74	3375.1	
324.95	3580.5	
325.16	4363.5	
325.37	4633.9	
325.57	2940.2	
325.78	3027.6	
325.99	4872.1	
326.2	4371.7	
326.4	3987.4	
326.61	2774.3	
326.82	4752	
327.03	4881.7	
327.24	4029	
327.44	3804.4	
327.65	4994.3	
327.86	4147.8	
328.07	3359.4	
328.27	2863.7	
328.48	5314.5	
328.69	4440.7	
328.9	4046.1	
329.1	3076	
329.31	4715.8	
329.52	5347.9	
329.73	2992.1	
329.93	3215.3	
330.14	4823	
330.35	4900.1	
330.56	4524.6	
330.76	3562.1	
330.97	4609.3	
331.18	4832.5	
331.39	3280.8	
331.59	2679.4	
331.8	5185.5	
332.01	5318.6	
332.22	3082.9	
332.42	3406.5	
332.63	4862.6	
332.84	4519.2	
333.05	3250.1	
333.25	3010.5	
333.46	4575.8	
333.67	4739.7	
333.88	3121.1	
334.08	3386	
334.29	6038.8	
334.5	5247.6	
334.7	2902	
334.91	4013.3	
335.12	4391.5	
335.33	5045.5	
335.53	3233.1	
335.74	4472.1	
335.95	4691.9	
336.16	4452.3	
336.36	3213.3	
336.57	3663.1	
336.78	4414.1	
336.98	5193	
337.19	3874.1	
337.4	3175	
337.61	5596.4	
337.81	4427	
338.02	3029.6	
338.23	3743	
338.43	5326.1	
338.64	4558.8	
338.85	3007.8	
339.05	3826.3	
339.26	5390.9	
339.47	4382	
339.68	2978.4	
339.88	4156	
340.09	4986.8	
340.3	5087.2	
340.5	3376.4	
340.71	2721.1	
340.92	4452.3	
341.13	5236	
341.33	2854.2	
341.54	3393.5	
341.75	4980.7	
341.95	4637.3	
342.16	3279.5	
342.37	3465.2	
342.57	4488.5	
342.78	4708.3	
342.99	3571	
343.19	2730.6	
343.4	5085.8	
343.61	4945.2	
343.81	3118.4	
344.02	2877.4	
344.23	5053.7	
344.43	5350	
344.64	3596.2	
344.85	3535.5	
345.06	4984.1	
345.26	5191.6	
345.47	3386	
345.68	3868.6	
345.88	4401.8	
346.09	5069.4	
346.3	3485.6	
346.5	2650.8	
346.71	4717.8	
346.92	4541	
347.12	2841.2	
347.33	3351.2	
347.54	5152.7	
347.74	5419.6	
347.95	3390.8	
348.16	2627.5	
348.36	4621.6	
348.57	4508.9	
348.78	3412.6	
348.98	3561.4	
349.19	4789.5	
349.39	4345.8	
349.6	2805	
349.81	3030.3	
350.01	5057.1	
350.22	4590.9	
350.43	3332.7	
350.63	3807.2	
350.84	4825.7	
351.05	4579.9	
351.25	2996.2	
351.46	2781.8	
351.67	5130.2	
351.87	4531.5	
352.08	3170.9	
352.29	3548.4	
352.49	5118.6	
352.7	5195.7	
352.9	2915.6	
353.11	3564.1	
353.32	5608	
353.52	4690.5	
353.73	2907.4	
353.94	3588	
354.14	5003.9	
354.35	4803.2	
354.55	3037.1	
354.76	3240.6	
354.97	5002.5	
355.17	4777.2	
355.38	2931.3	
355.59	3805.1	
355.79	4573.1	
356	4790.9	
356.2	3257.6	
356.41	2943.6	
356.62	4409.3	
356.82	4793.6	
357.03	3552.5	
357.24	3171.6	
357.44	4580.6	
357.65	4642.7	
357.85	4068.6	
358.06	3371.6	
358.27	4450.2	
358.47	4541.7	
358.68	2857.6	
358.88	3547.8	
359.09	5042.8	
359.3	5268.1	
359.5	3973.7	
359.71	3577.8	
359.91	5567.1	
360.12	5092.6	
360.33	3517	
360.53	3951.2	
360.74	4672.1	
360.94	4688.5	
361.15	3745.7	
361.36	3181.9	
361.56	5257.1	
361.77	4872.8	
361.97	4063.9	
362.18	3303.4	
362.38	5280.3	
362.59	4610.7	
362.8	3157.3	
363	3043.3	
363.21	4446.8	
363.41	4986.8	
363.62	3545.7	
363.83	4173.8	
364.03	5102.2	
364.24	5669.5	
364.44	4366.3	
364.65	4371	
364.85	4919.9	
365.06	4683.7	
365.27	3330.7	
365.47	3408.5	
365.68	5559.6	
365.88	4934.9	
366.09	3631	
366.29	3406.5	
366.5	5083.7	
366.71	5305.6	
366.91	4329.4	
367.12	3780.6	
367.32	5911.8	
367.53	5283.1	
367.73	3839.9	
367.94	4463.2	
368.14	5310.4	
368.35	5877	
368.56	3768.3	
368.76	3293.8	
368.97	5504.3	
369.17	6548.7	
369.38	3367.5	
369.58	3568.2	
369.79	4655	
369.99	5645.6	
370.2	4315.1	
370.4	3675.4	
370.61	5159.5	
370.82	6109.8	
371.02	3665.2	
371.23	3097.9	
371.43	4628.4	
371.64	5651	
371.84	3693.9	
372.05	4451.6	
372.25	6526.2	
372.46	5403.2	
372.66	3704.8	
372.87	3638.6	
373.07	5499.5	
373.28	6713.9	
373.48	4435.2	
373.69	4257.7	
373.9	5161.6	
374.1	5209.3	
374.31	4446.1	
374.51	4048.8	
374.72	5769.1	
374.92	5021.6	
375.13	4513	
375.33	3980.6	
375.54	5489.9	
375.74	5069.4	
375.95	4144.4	
376.15	4977.9	
376.36	5598.5	
376.56	5440.1	
376.77	4190.8	
376.97	4455	
377.18	6399.9	
377.38	5763.7	
377.59	4698	
377.79	3931.4	
378	5552	
378.2	5848.3	
378.41	4018.1	
378.61	3913	
378.82	6006.7	
379.02	5360.2	
379.23	4108.9	
379.43	4918.5	
379.64	6188.3	
379.84	5791.7	
380.05	3962.1	
380.25	3926.6	
380.46	5891.3	
380.66	5517.9	
380.87	4975.9	
381.07	5137	
381.28	6318	
381.48	5795.1	
381.69	4005.1	
381.89	4078.9	
382.1	5137	
382.3	5854.5	
382.51	4792.9	
382.71	5419.6	
382.91	5765	
383.12	6182.8	
383.32	4250.9	
383.53	4373.8	
383.73	5707	
383.94	5674.2	
384.14	4392.2	
384.35	3775.8	
384.55	5410.1	
384.76	5822.4	
384.96	4261.8	
385.17	4422.2	
385.37	5834.7	
385.58	5267.4	
385.78	4459.1	
385.98	3689.1	
386.19	5453.1	
386.39	5722.7	
386.6	4091.8	
386.8	4305.5	
387.01	5811.5	
387.21	5803.3	
387.42	4443.4	
387.62	4950.6	
387.83	5467.4	
388.03	5625.1	
388.23	4354	
388.44	4855.1	
388.64	5247.6	
388.85	5331.5	
389.05	4596.3	
389.26	5059.8	
389.46	6759.7	
389.67	6391	
389.87	4676.2	
390.07	4687.8	
390.28	5774.6	
390.48	5407.3	
390.69	4140.3	
390.89	4399.7	
391.1	5620.3	
391.3	6276.3	
391.5	5227.1	
391.71	5697.4	
391.91	6127.5	
392.12	6772.6	
392.32	5295.4	
392.53	4719.9	
392.73	5728.9	
392.93	5887.9	
393.14	4577.2	
393.34	5110.4	
393.55	6064.7	
393.75	5806.7	
393.95	4550.6	
394.16	4431.8	
394.36	5618.9	
394.57	6098.2	
394.77	4079.6	
394.98	4375.1	
395.18	5632.6	
395.38	5699.5	
395.59	5186.8	
395.79	4450.9	
396	5850.4	
396.2	6197.2	
396.4	5145.2	
396.61	5042.1	
396.81	6306.4	
397.02	5902.9	
397.22	5337.7	
397.42	5357.5	
397.63	6485.9	
397.83	6002.6	
398.04	4583.4	
398.24	5059.8	
398.44	6350.1	
398.65	5710.4	
398.85	4543.1	
399.05	4613.4	
399.26	6034.7	
399.46	7204.8	
399.67	4935.6	
399.87	4688.5	
400.07	6305	
400.28	6580.1	
400.48	4862.6	
400.69	5653.1	
400.89	6779.5	
401.09	7130.3	
401.3	4889.9	
401.5	5698.8	
401.7	7418.4	
401.91	7559.1	
402.11	5249.6	
402.32	5303.6	
402.52	7025.9	
402.72	6869.6	
402.93	5575.9	
403.13	4663.2	
403.33	7408.9	
403.54	6279.1	
403.74	5150	
403.94	5737	
404.15	6353.5	
404.35	7174.7	
404.56	4940.4	
404.76	6127.5	
404.96	6696.9	
405.17	6536.4	
405.37	5771.2	
405.57	5388.9	
405.78	6882.5	
405.98	6452.5	
406.18	5201.2	
406.39	5829.2	
406.59	6896.9	
406.79	6522.8	
407	4897.4	
407.2	5044.8	
407.4	7064.8	
407.61	6982.9	
407.81	5088.5	
408.01	6576.7	
408.22	6189.6	
408.42	7570.7	
408.62	6062.7	
408.83	5811.5	
409.03	6924.9	
409.23	6892.1	
409.44	6027.9	
409.64	6168.5	
409.84	7987.8	
410.05	7925.6	
410.25	6333	
410.45	6171.2	
410.66	7772	
410.86	9643.2	
411.06	6776	
411.27	6628.6	
411.47	9616.6	
411.67	8004.1	
411.88	6868.9	
412.08	7168.6	
412.28	8548.9	
412.49	8996.7	
412.69	7027.9	
412.89	7040.9	
413.09	9032.9	
413.3	8904.6	
413.5	7146.7	
413.7	6917.4	
413.91	8434.2	
414.11	9122.3	
414.31	7144	
414.52	7561.8	
414.72	8932.6	
414.92	8954.4	
415.12	7160.4	
415.33	7717.4	
415.53	9338.7	
415.73	9480	
415.94	7931.8	
416.14	7518.8	
416.34	8746.2	
416.55	8350.9	
416.75	8409	
416.95	8092.9	
417.15	9454.8	
417.36	9893.1	
417.56	8806.3	
417.76	8081.3	
417.97	9714.9	
418.17	9595.4	
418.37	7751.6	
418.57	7894.9	
418.78	9570.8	
418.98	9221.3	
419.18	8668.4	
419.38	8396.7	
419.59	9302.6	
419.79	8893.6	
419.99	7748.1	
420.2	8000	
420.4	9578.3	
420.6	9612.5	
420.8	7632.1	
421.01	7600	
421.21	9585.2	
421.41	9667.1	
421.61	8091.5	
421.82	7881.3	
422.02	9387.2	
422.22	9860.3	
422.42	8458.8	
422.63	8042.4	
422.83	9395.4	
423.03	10234	
423.23	8122.2	
423.44	7343.3	
423.64	9379	
423.84	8971.5	
424.04	7729.7	
424.25	7425.3	
424.45	9836.4	
424.65	9818.6	
424.85	7292.8	
425.06	7748.8	
425.26	9929.2	
425.46	9168.1	
425.66	8079.9	
425.87	7755	
426.07	9701.2	
426.27	9476	
426.47	7918.8	
426.67	7350.2	
426.88	9852.8	
427.08	9506.7	
427.28	8213.7	
427.48	7421.2	
427.69	8711.4	
427.89	9144.9	
428.09	8096.3	
428.29	7460.8	
428.5	9745.6	
428.7	9461.6	
428.9	7473.7	
429.1	7712.7	
429.3	9342.2	
429.51	9666.4	
429.71	7546.1	
429.91	8258.1	
430.11	9770.9	
430.31	10271	
430.52	7984.3	
430.72	8322.9	
430.92	10198	
431.12	9775	
431.32	7972.7	
431.53	8185.7	
431.73	9089.6	
431.93	10213	
432.13	7867.6	
432.33	7819.8	
432.54	9396.1	
432.74	9752.4	
432.94	7852.6	
433.14	8417.8	
433.34	9910.8	
433.55	9754.5	
433.75	8587.1	
433.95	10008	
434.15	9897.2	
434.35	9698.5	
434.56	8067.6	
434.76	8038.3	
434.96	10059	
435.16	10333	
435.36	8157.1	
435.56	9127.8	
435.77	10005	
435.97	10081	
436.17	9668.5	
436.37	9116.2	
436.57	10013	
436.78	10175	
436.98	9430.9	
437.18	9534.7	
437.38	10729	
437.58	10228	
437.78	9658.2	
437.99	8659.5	
438.19	10479	
438.39	11117	
438.59	8621.3	
438.79	8188.5	
438.99	10945	
439.2	9984.5	
439.4	8094.3	
439.6	8185	
439.8	10234	
440	10931	
440.2	9040.4	
440.4	9226.1	
440.61	10836	
440.81	11274	
441.01	8908.7	
441.21	9638.4	
441.41	11615	
441.61	11043	
441.81	9927.9	
442.02	10613	
442.22	11852	
442.42	11417	
442.62	9251.4	
442.82	9154.4	
443.02	11650	
443.22	11037	
443.43	9639.1	
443.63	9125.7	
443.83	10820	
444.03	10816	
444.23	10310	
444.43	9923.8	
444.63	11347	
444.83	12099	
445.04	9731.3	
445.24	10515	
445.44	11507	
445.64	11695	
445.84	9971.6	
446.04	10182	
446.24	10986	
446.44	11781	
446.65	9271.8	
446.85	9796.8	
447.05	10857	
447.25	11600	
447.45	9648.7	
447.65	9193.3	
447.85	11218	
448.05	10626	
448.25	10044	
448.46	9766.1	
448.66	11282	
448.86	10792	
449.06	9245.2	
449.26	10131	
449.46	11578	
449.66	10806	
449.86	9923.1	
450.06	9633	
450.26	11075	
450.47	11582	
450.67	9848	
450.87	10313	
451.07	11680	
451.27	11613	
451.47	9582.4	
451.67	10179	
451.87	11443	
452.07	12050	
452.27	10060	
452.47	9820	
452.67	11551	
452.88	11910	
453.08	9269.8	
453.28	10903	
453.48	12781	
453.68	11355	
453.88	9943.6	
454.08	10096	
454.28	12003	
454.48	11731	
454.68	10400	
454.88	10864	
455.08	12067	
455.28	12103	
455.48	9708.1	
455.68	10576	
455.89	12757	
456.09	12478	
456.29	10362	
456.49	10704	
456.69	12844	
456.89	11929	
457.09	11123	
457.29	11417	
457.49	12643	
457.69	12848	
457.89	11282	
458.09	10663	
458.29	12768	
458.49	13374	
458.69	11805	
458.89	11441	
459.09	13758	
459.29	13614	
459.49	11354	
459.69	12121	
459.9	13291	
460.1	13308	
460.3	11138	
460.5	11213	
460.7	13388	
460.9	13182	
461.1	10981	
461.3	12086	
461.5	14188	
461.7	13851	
461.9	11986	
462.1	11961	
462.3	13769	
462.5	14151	
462.7	11878	
462.9	12178	
463.1	15064	
463.3	15010	
463.5	12346	
463.7	13539	
463.9	14426	
464.1	14634	
464.3	13236	
464.5	13012	
464.7	15016	
464.9	15120	
465.1	14190	
465.3	13577	
465.5	15234	
465.7	15547	
465.9	13976	
466.1	13289	
466.3	15712	
466.5	15171	
466.7	14770	
466.9	13774	
467.1	15591	
467.3	16173	
467.5	14885	
467.7	13980	
467.9	16426	
468.1	17211	
468.3	14380	
468.5	14990	
468.7	15840	
468.9	15711	
469.1	14515	
469.3	15067	
469.5	17401	
469.7	15870	
469.9	14664	
470.1	14537	
470.3	16226	
470.5	16069	
470.7	15489	
470.9	14431	
471.1	16161	
471.3	16013	
471.5	14480	
471.69	15775	
471.89	15787	
472.09	15319	
472.29	15063	
472.49	14845	
472.69	15684	
472.89	16184	
473.09	14359	
473.29	14040	
473.49	15838	
473.69	15640	
473.89	14839	
474.09	14180	
474.29	16496	
474.49	16317	
474.69	14982	
474.89	14336	
475.09	15820	
475.29	15870	
475.49	13881	
475.69	14326	
475.88	16733	
476.08	16018	
476.28	14009	
476.48	13880	
476.68	16167	
476.88	15825	
477.08	13882	
477.28	14252	
477.48	15436	
477.68	15794	
477.88	13811	
478.08	13905	
478.28	16448	
478.48	15478	
478.67	14222	
478.87	13345	
479.07	16427	
479.27	15562	
479.47	14302	
479.67	14361	
479.87	16123	
480.07	16533	
480.27	13827	
480.47	14858	
480.67	15657	
480.87	16438	
481.06	14060	
481.26	14756	
481.46	16007	
481.66	15844	
481.86	14463	
482.06	15228	
482.26	15834	
482.46	16513	
482.66	14478	
482.86	14151	
483.05	16238	
483.25	15593	
483.45	16238	
483.65	14634	
483.85	15837	
484.05	16070	
484.25	14898	
484.45	15464	
484.65	16774	
484.84	17174	
485.04	14725	
485.24	14736	
485.44	17393	
485.64	16057	
485.84	14591	
486.04	15578	
486.24	16380	
486.44	16824	
486.63	14619	
486.83	15348	
487.03	16604	
487.23	16944	
487.43	14754	
487.63	16604	
487.83	16905	
488.02	17518	
488.22	15960	
488.42	16346	
488.62	17724	
488.82	17042	
489.02	15449	
489.22	15808	
489.41	17556	
489.61	17705	
489.81	15494	
490.01	15423	
490.21	17786	
490.41	18337	
490.61	15750	
490.8	15810	
491	17736	
491.2	17054	
491.4	16095	
491.6	15513	
491.8	17428	
491.99	17320	
492.19	15214	
492.39	15360	
492.59	17674	
492.79	17799	
492.99	16135	
493.18	15593	
493.38	17899	
493.58	18965	
493.78	16542	
493.98	16191	
494.18	18144	
494.37	18041	
494.57	17182	
494.77	17057	
494.97	19062	
495.17	19540	
495.37	17179	
495.56	17571	
495.76	19729	
495.96	19671	
496.16	18494	
496.36	17961	
496.55	20084	
496.75	19733	
496.95	18262	
497.15	18228	
497.35	19912	
497.54	20145	
497.74	17970	
497.94	19249	
498.14	20529	
498.34	20368	
498.53	18007	
498.73	18642	
498.93	19817	
499.13	20357	
499.33	18598	
499.52	18882	
499.72	20843	
499.92	20543	
500.12	18561	
500.32	18839	
500.51	20689	
500.71	20749	
500.91	19522	
501.11	19241	
501.31	21103	
501.5	21013	
501.7	19828	
501.9	19139	
502.1	20612	
502.29	21003	
502.49	19552	
502.69	19645	
502.89	20753	
503.09	20952	
503.28	18308	
503.48	18420	
503.68	20215	
503.88	20185	
504.07	19085	
504.27	18591	
504.47	20360	
504.67	20212	
504.86	19106	
505.06	18863	
505.26	20050	
505.46	21302	
505.65	18448	
505.85	18617	
506.05	19655	
506.25	19944	
506.44	17681	
506.64	18150	
506.84	19364	
507.04	19782	
507.23	17619	
507.43	18064	
507.63	20611	
507.83	19344	
508.02	18024	
508.22	17675	
508.42	20948	
508.62	19412	
508.81	17835	
509.01	18548	
509.21	18993	
509.4	19405	
509.6	18112	
509.8	17683	
510	19054	
510.19	20487	
510.39	17481	
510.59	17722	
510.79	19383	
510.98	20525	
511.18	18010	
511.38	18078	
511.57	20197	
511.77	19836	
511.97	18374	
512.17	17864	
512.36	19986	
512.56	19640	
512.76	17696	
512.95	17505	
513.15	19936	
513.35	18903	
513.55	18323	
513.74	17730	
513.94	19923	
514.14	19490	
514.33	18462	
514.53	18313	
514.73	19515	
514.92	19736	
515.12	17965	
515.32	17950	
515.51	19754	
515.71	20192	
515.91	19147	
516.11	17960	
516.3	21265	
516.5	19833	
516.7	18489	
516.89	18901	
517.09	19710	
517.29	19862	
517.48	18831	
517.68	18170	
517.88	19567	
518.07	20093	
518.27	18669	
518.47	17968	
518.66	20360	
518.86	19457	
519.06	17569	
519.25	18149	
519.45	19653	
519.65	21133	
519.84	18777	
520.04	19392	
520.24	21332	
520.43	20371	
520.63	18494	
520.83	18374	
521.02	19647	
521.22	20011	
521.42	18275	
521.61	18914	
521.81	19562	
522.01	19754	
522.2	18340	
522.4	17918	
522.6	20180	
522.79	19305	
522.99	18260	
523.18	18116	
523.38	20439	
523.58	20552	
523.77	19802	
523.97	18564	
524.17	22100	
524.36	21586	
524.56	19928	
524.76	19689	
524.95	21242	
525.15	21035	
525.34	19839	
525.54	19981	
525.74	22031	
525.93	21305	
526.13	21222	
526.33	20373	
526.52	22487	
526.72	22157	
526.91	21434	
527.11	20966	
527.31	22588	
527.5	22886	
527.7	20893	
527.89	20457	
528.09	22005	
528.29	22661	
528.48	21226	
528.68	20954	
528.87	22854	
529.07	22834	
529.27	21286	
529.46	21040	
529.66	22940	
529.85	23243	
530.05	20993	
530.25	21451	
530.44	24016	
530.64	22537	
530.83	21067	
531.03	21516	
531.23	23206	
531.42	22937	
531.62	21807	
531.81	21315	
532.01	23632	
532.21	23851	
532.4	21727	
532.6	22313	
532.79	24418	
532.99	24350	
533.18	22664	
533.38	23273	
533.58	24195	
533.77	24696	
533.97	23018	
534.16	23380	
534.36	25167	
534.55	24452	
534.75	23463	
534.95	23087	
535.14	25522	
535.34	24640	
535.53	22735	
535.73	24303	
535.92	25583	
536.12	24443	
536.31	22950	
536.51	23733	
536.71	24653	
536.9	24294	
537.1	22513	
537.29	23067	
537.49	24743	
537.68	24273	
537.88	23284	
538.07	22639	
538.27	24706	
538.46	25397	
538.66	22623	
538.86	23126	
539.05	24724	
539.25	25061	
539.44	23663	
539.64	22969	
539.83	24677	
540.03	25340	
540.22	23059	
540.42	22759	
540.61	24432	
540.81	24769	
541	22738	
541.2	23621	
541.39	23986	
541.59	24492	
541.78	23310	
541.98	22511	
542.18	23853	
542.37	23746	
542.57	22666	
542.76	23416	
542.96	23686	
543.15	24130	
543.35	22399	
543.54	21929	
543.74	23821	
543.93	23823	
544.13	22031	
544.32	22676	
544.52	23652	
544.71	23045	
544.91	21259	
545.1	22076	
545.3	23244	
545.49	23591	
545.69	21331	
545.88	21658	
546.08	24382	
546.27	23772	
546.47	21950	
546.66	21290	
546.86	23571	
547.05	23937	
547.24	21478	
547.44	21686	
547.63	22698	
547.83	23712	
548.02	21827	
548.22	21787	
548.41	22588	
548.61	23676	
548.8	21327	
549	21353	
549.19	22936	
549.39	23367	
549.58	20830	
549.78	21351	
549.97	23045	
550.17	22560	
550.36	21667	
550.55	22420	
550.75	22446	
550.94	23353	
551.14	20807	
551.33	20755	
551.53	22147	
551.72	22758	
551.92	20964	
552.11	20753	
552.31	22810	
552.5	22728	
552.69	22006	
552.89	20458	
553.08	22646	
553.28	22391	
553.47	20697	
553.67	21552	
553.86	22813	
554.06	21758	
554.25	20000	
554.44	20470	
554.64	23328	
554.83	23098	
555.03	20501	
555.22	20651	
555.42	22691	
555.61	22411	
555.8	20419	
556	20390	
556.19	21648	
556.39	22347	
556.58	20310	
556.78	20372	
556.97	22139	
557.16	21996	
557.36	21207	
557.55	20273	
557.75	21238	
557.94	22813	
558.13	20086	
558.33	20030	
558.52	22668	
558.72	21521	
558.91	20012	
559.1	20186	
559.3	21467	
559.49	21052	
559.69	19626	
559.88	20308	
560.07	21818	
560.27	22136	
560.46	20422	
560.66	20631	
560.85	21771	
561.04	20999	
561.24	19738	
561.43	19722	
561.63	21205	
561.82	21315	
562.01	20607	
562.21	19951	
562.4	21562	
562.59	22592	
562.79	19986	
562.98	19837	
563.18	21801	
563.37	22876	
563.56	20724	
563.76	20155	
563.95	21724	
564.14	21686	
564.34	20519	
564.53	20109	
564.73	22028	
564.92	22324	
565.11	20535	
565.31	20058	
565.5	22640	
565.69	21908	
565.89	20194	
566.08	20726	
566.27	22560	
566.47	23003	
566.66	21257	
566.85	20371	
567.05	22474	
567.24	22012	
567.44	20513	
567.63	21427	
567.82	22794	
568.02	22373	
568.21	20637	
568.4	20785	
568.6	22463	
568.79	22327	
568.98	20429	
569.18	20812	
569.37	22664	
569.56	23916	
569.76	21073	
569.95	21835	
570.14	22672	
570.34	22911	
570.53	20889	
570.72	20826	
570.91	23390	
571.11	22648	
571.3	21219	
571.49	21722	
571.69	22807	
571.88	22303	
572.07	21771	
572.27	21476	
572.46	22421	
572.65	23006	
572.85	21072	
573.04	21425	
573.23	23561	
573.43	22900	
573.62	21142	
573.81	21431	
574	23341	
574.2	23036	
574.39	21656	
574.58	21835	
574.78	24262	
574.97	23576	
575.16	22211	
575.36	22496	
575.55	24245	
575.74	24351	
575.93	21687	
576.13	22863	
576.32	23653	
576.51	24176	
576.71	22255	
576.9	23313	
577.09	24380	
577.28	23950	
577.48	22502	
577.67	21904	
577.86	23912	
578.05	24085	
578.25	22331	
578.44	22448	
578.63	23877	
578.83	24832	
579.02	22055	
579.21	23476	
579.4	24242	
579.6	24311	
579.79	22415	
579.98	24321	
580.17	24318	
580.37	24685	
580.56	22164	
580.75	22899	
580.94	24787	
581.14	24796	
581.33	23324	
581.52	22532	
581.71	24461	
581.91	24960	
582.1	22480	
582.29	22732	
582.48	24199	
582.68	24533	
582.87	23212	
583.06	22909	
583.25	24582	
583.45	24475	
583.64	23595	
583.83	24083	
584.02	24320	
584.21	24851	
584.41	23412	
584.6	23072	
584.79	24470	
584.98	25208	
585.18	22773	
585.37	22712	
585.56	24313	
585.75	24980	
585.94	22658	
586.14	23253	
586.33	25119	
586.52	24446	
586.71	22872	
586.91	22751	
587.1	23569	
587.29	24561	
587.48	22132	
587.67	22386	
587.87	24068	
588.06	24003	
588.25	23098	
588.44	22375	
588.63	23560	
588.83	23978	
589.02	21978	
589.21	21535	
589.4	22894	
589.59	23000	
589.78	20560	
589.98	20504	
590.17	21916	
590.36	22119	
590.55	19416	
590.74	19491	
590.94	22375	
591.13	21175	
591.32	19320	
591.51	18881	
591.7	21414	
591.89	21311	
592.09	19022	
592.28	19717	
592.47	20695	
592.66	22437	
592.85	19458	
593.05	19790	
593.24	21285	
593.43	22057	
593.62	19636	
593.81	20145	
594	21469	
594.19	21624	
594.39	19648	
594.58	19489	
594.77	21752	
594.96	21965	
595.15	19528	
595.34	19981	
595.54	21422	
595.73	20753	
595.92	18959	
596.11	19494	
596.3	21648	
596.49	20749	
596.68	19208	
596.88	19693	
597.07	21399	
597.26	20557	
597.45	18980	
597.64	19947	
597.83	20783	
598.02	21369	
598.22	19060	
598.41	19466	
598.6	21147	
598.79	20471	
598.98	19015	
599.17	19654	
599.36	21098	
599.55	21644	
599.74	20594	
599.94	20476	
600.13	21463	
600.32	20456	
600.51	18763	
600.7	19035	
600.89	21731	
601.08	21910	
601.27	18769	
601.47	19455	
601.66	21116	
601.85	21611	
602.04	19354	
602.23	19314	
602.42	20680	
602.61	20967	
602.8	19015	
602.99	18908	
603.18	20625	
603.37	20896	
603.57	19066	
603.76	19721	
603.95	21255	
604.14	20951	
604.33	19011	
604.52	19235	
604.71	21093	
604.9	20545	
605.09	19580	
605.28	19445	
605.47	21461	
605.66	21016	
605.86	19427	
606.05	18974	
606.24	21248	
606.43	20174	
606.62	19299	
606.81	19742	
607	21214	
607.19	20602	
607.38	18620	
607.57	18753	
607.76	20286	
607.95	19950	
608.14	19170	
608.33	19527	
608.52	20308	
608.72	21096	
608.91	18431	
609.1	18412	
609.29	20368	
609.48	19914	
609.67	18834	
609.86	18331	
610.05	19850	
610.24	20101	
610.43	18159	
610.62	17826	
610.81	20862	
611	20751	
611.19	18311	
611.38	18683	
611.57	20274	
611.76	21175	
611.95	18055	
612.14	17856	
612.33	20069	
612.52	19610	
612.71	18338	
612.9	17946	
613.09	19491	
613.28	21215	
613.47	18272	
613.66	18873	
613.85	20238	
614.04	19772	
614.24	18281	
614.43	17584	
614.62	20131	
614.81	20076	
615	18484	
615.19	18639	
615.38	19533	
615.57	19978	
615.76	18573	
615.95	19260	
616.14	20512	
616.33	20126	
616.52	18882	
616.71	18993	
616.9	20233	
617.09	20373	
617.28	18405	
617.47	19235	
617.66	19734	
617.85	19676	
618.04	19013	
618.22	18708	
618.41	20376	
618.6	21145	
618.79	18883	
618.98	18987	
619.17	21443	
619.36	20255	
619.55	19170	
619.74	19145	
619.93	20973	
620.12	20578	
620.31	19908	
620.5	20038	
620.69	21747	
620.88	22159	
621.07	20576	
621.26	19984	
621.45	21644	
621.64	21643	
621.83	20114	
622.02	19444	
622.21	21586	
622.4	21618	
622.59	20568	
622.78	20350	
622.97	21183	
623.16	22032	
623.35	20278	
623.54	19512	
623.72	21519	
623.91	21620	
624.1	20469	
624.29	19516	
624.48	22472	
624.67	21866	
624.86	20319	
625.05	19647	
625.24	22606	
625.43	21399	
625.62	21658	
625.81	19834	
626	21895	
626.19	21725	
626.38	20522	
626.56	20003	
626.75	21507	
626.94	22200	
627.13	20540	
627.32	19611	
627.51	22037	
627.7	22885	
627.89	19355	
628.08	20519	
628.27	21160	
628.46	21261	
628.65	19670	
628.83	19343	
629.02	21586	
629.21	21128	
629.4	20040	
629.59	20169	
629.78	21130	
629.97	21819	
630.16	20356	
630.35	19745	
630.54	22143	
630.72	22000	
630.91	19873	
631.1	20116	
631.29	21574	
631.48	21688	
631.67	20099	
631.86	19675	
632.05	21518	
632.24	21474	
632.42	19356	
632.61	19965	
632.8	21303	
632.99	21131	
633.18	20161	
633.37	20117	
633.56	21530	
633.75	21525	
633.93	20004	
634.12	19887	
634.31	22180	
634.5	21847	
634.69	19808	
634.88	20037	
635.07	21438	
635.25	21805	
635.44	20472	
635.63	20754	
635.82	21237	
636.01	20733	
636.2	20164	
636.39	19962	
636.57	21995	
636.76	21499	
636.95	19501	
637.14	20480	
637.33	21617	
637.52	22121	
637.7	19367	
637.89	20026	
638.08	21258	
638.27	22231	
638.46	20113	
638.65	20269	
638.83	21916	
639.02	21000	
639.21	19703	
639.4	20054	
639.59	21115	
639.78	20762	
639.96	19050	
640.15	19121	
640.34	20900	
640.53	20833	
640.72	18624	
640.91	18854	
641.09	20269	
641.28	21132	
641.47	18988	
641.66	19338	
641.85	20763	
642.03	20546	
642.22	19280	
642.41	18779	
642.6	20239	
642.79	19624	
642.97	18411	
643.16	19045	
643.35	19996	
643.54	19676	
643.73	18338	
643.91	18746	
644.1	19418	
644.29	19974	
644.48	17954	
644.67	18077	
644.85	19408	
645.04	19614	
645.23	17581	
645.42	17877	
645.6	18864	
645.79	19697	
645.98	17312	
646.17	16501	
646.36	18109	
646.54	18388	
646.73	17260	
646.92	16511	
647.11	18118	
647.29	18729	
647.48	16687	
647.67	16340	
647.86	18788	
648.05	19206	
648.23	16649	
648.42	17392	
648.61	18271	
648.8	18260	
648.98	16133	
649.17	16397	
649.36	17628	
649.55	17577	
649.73	16113	
649.92	16818	
650.11	17826	
650.3	17963	
650.48	16364	
650.67	16157	
650.86	18170	
651.05	17285	
651.23	16064	
651.42	16023	
651.61	17413	
651.79	17404	
651.98	16218	
652.17	15885	
652.36	17792	
652.54	17019	
652.73	15834	
652.92	15751	
653.11	17561	
653.29	17762	
653.48	15251	
653.67	15882	
653.85	17432	
654.04	18100	
654.23	15802	
654.42	15483	
654.6	16500	
654.79	16957	
654.98	14607	
655.16	14836	
655.35	15785	
655.54	15433	
655.73	14157	
655.91	13985	
656.1	16176	
656.29	15424	
656.47	13805	
656.66	15266	
656.85	15866	
657.03	16184	
657.22	14701	
657.41	14853	
657.59	16252	
657.78	16357	
657.97	14784	
658.16	15206	
658.34	17064	
658.53	17264	
658.72	15906	
658.9	16322	
659.09	16711	
659.28	16740	
659.46	15316	
659.65	14992	
659.84	16489	
660.02	16999	
660.21	15105	
660.4	14952	
660.58	17210	
660.77	16704	
660.96	15474	
661.14	14736	
661.33	17681	
661.52	17514	
661.7	14810	
661.89	17205	
662.08	16394	
662.26	16037	
662.45	14874	
662.64	14973	
662.82	16943	
663.01	16355	
663.2	14838	
663.38	15445	
663.57	16653	
663.75	16537	
663.94	15119	
664.13	15950	
664.31	16122	
664.5	16838	
664.69	15194	
664.87	15527	
665.06	15954	
665.25	16685	
665.43	15828	
665.62	15747	
665.8	16699	
665.99	16232	
666.18	15007	
666.36	15071	
666.55	16599	
666.74	16537	
666.92	14536	
667.11	15586	
667.29	16254	
667.48	16488	
667.67	15406	
667.85	14700	
668.04	16102	
668.22	16233	
668.41	14883	
668.6	15055	
668.78	15915	
668.97	16161	
669.15	15074	
669.34	14414	
669.53	16079	
669.71	16303	
669.9	14476	
670.08	14979	
670.27	15896	
670.46	16187	
670.64	14975	
670.83	15235	
671.01	15778	
671.2	16238	
671.38	14555	
671.57	14343	
671.76	16758	
671.94	17228	
672.13	14422	
672.31	15012	
672.5	16533	
672.69	15817	
672.87	14650	
673.06	14808	
673.24	16365	
673.43	15986	
673.61	14814	
673.8	14620	
673.98	16283	
674.17	16428	
674.36	15099	
674.54	14953	
674.73	16093	
674.91	16411	
675.1	14795	
675.28	14320	
675.47	15975	
675.65	16468	
675.84	14719	
676.03	14861	
676.21	15791	
676.4	15554	
676.58	15116	
676.77	15038	
676.95	16979	
677.14	15770	
677.32	14307	
677.51	14296	
677.69	16337	
677.88	15591	
678.06	14200	
678.25	14289	
678.44	16006	
678.62	15737	
678.81	13932	
678.99	14935	
679.18	16425	
679.36	16276	
679.55	14532	
679.73	14933	
679.92	16075	
680.1	15800	
680.29	15372	
680.47	14521	
680.66	15665	
680.84	16397	
681.03	13954	
681.21	14696	
681.4	15741	
681.58	15586	
681.77	14167	
681.95	14261	
682.14	16173	
682.32	16378	
682.51	14878	
682.69	13945	
682.88	15362	
683.06	15609	
683.25	14567	
683.43	14873	
683.62	15717	
683.8	15919	
683.99	14895	
684.17	14345	
684.36	16352	
684.54	15296	
684.73	13439	
684.91	13490	
685.1	15126	
685.28	14272	
685.46	12982	
685.65	13001	
685.83	14332	
686.02	13846	
686.2	12293	
686.39	12448	
686.57	13887	
686.76	14997	
686.94	12587	
687.13	12947	
687.31	14550	
687.5	14340	
687.68	12485	
687.86	13390	
688.05	15702	
688.23	13985	
688.42	13467	
688.6	13045	
688.79	14370	
688.97	14444	
689.16	13599	
689.34	12686	
689.52	15084	
689.71	15311	
689.89	13759	
690.08	13394	
690.26	15002	
690.45	14768	
690.63	13790	
690.81	13504	
691	14764	
691.18	14689	
691.37	13454	
691.55	14964	
691.74	14378	
691.92	15872	
692.1	13302	
692.29	12768	
692.47	14427	
692.66	13976	
692.84	12972	
693.02	13360	
693.21	14081	
693.39	14503	
693.58	13627	
693.76	13167	
693.94	15515	
694.13	15474	
694.31	13285	
694.5	14240	
694.68	14697	
694.86	15178	
695.05	13968	
695.23	13959	
695.42	15608	
695.6	17171	
695.78	14530	
695.97	13792	
696.15	15757	
696.34	15091	
696.52	13534	
696.7	14024	
696.89	15139	
697.07	14670	
697.25	13716	
697.44	14737	
697.62	15050	
697.81	15137	
697.99	13346	
698.17	13877	
698.36	14392	
698.54	14772	
698.72	13700	
698.91	12759	
699.09	14433	
699.28	14318	
699.46	13224	
699.64	13131	
699.83	14218	
700.01	14872	
700.19	13664	
700.38	12639	
700.56	15068	
700.74	14409	
700.93	12948	
701.11	13467	
701.29	14855	
701.48	15694	
701.66	13061	
701.84	13296	
702.03	14597	
702.21	15335	
702.39	12897	
702.58	13511	
702.76	15098	
702.94	15099	
703.13	12861	
703.31	14644	
703.49	14537	
703.68	15588	
703.86	12969	
704.04	13680	
704.23	14619	
704.41	15034	
704.59	13176	
704.78	13732	
704.96	15924	
705.14	14942	
705.33	12969	
705.51	13366	
705.69	14425	
705.87	15072	
706.06	13596	
706.24	12830	
706.42	14619	
706.61	14975	
706.79	13553	
706.97	12659	
707.16	14182	
707.34	14550	
707.52	13340	
707.7	12949	
707.89	14283	
708.07	14019	
708.25	13480	
708.44	13589	
708.62	14029	
708.8	14810	
708.98	13506	
709.17	12766	
709.35	14273	
709.53	14220	
709.72	12555	
709.9	12767	
710.08	14438	
710.26	14399	
710.45	13483	
710.63	12652	
710.81	14027	
710.99	14022	
711.18	12810	
711.36	12454	
711.54	13860	
711.72	14139	
711.91	12439	
712.09	11899	
712.27	13685	
712.45	13988	
712.64	12206	
712.82	11524	
713	12852	
713.18	12988	
713.37	11197	
713.55	11956	
713.73	13280	
713.91	12030	
714.1	10850	
714.28	10378	
714.46	12116	
714.64	11418	
714.83	9392.7	
715.01	9671.9	
715.19	10918	
715.37	10120	
715.55	8921	
715.74	9084.8	
715.92	11090	
716.1	9493.7	
716.28	9889	
716.47	8974.2	
716.65	9902.6	
716.83	9973.6	
717.01	8770.8	
717.19	8728.4	
717.38	11510	
717.56	9682.8	
717.74	9087.5	
717.92	8452.6	
718.1	10544	
718.29	10243	
718.47	8376.9	
718.65	8955.1	
718.83	11233	
719.01	11120	
719.2	8865.7	
719.38	9765.4	
719.56	11177	
719.74	12366	
719.92	9405.6	
720.11	10230	
720.29	11088	
720.47	10320	
720.65	8759.2	
720.83	9256.8	
721.02	10148	
721.2	9769.5	
721.38	8939.4	
721.56	8353	
721.74	9252.7	
721.92	9271.2	
722.11	9108.7	
722.29	8757.1	
722.47	10274	
722.65	9610.4	
722.83	8262.2	
723.01	8696.4	
723.2	9605	
723.38	9880.8	
723.56	7747.5	
723.74	8543.4	
723.92	9322.4	
724.1	10062	
724.29	8064.9	
724.47	8873.8	
724.65	9428.8	
724.83	9260.9	
725.01	7822.6	
725.19	8475.9	
725.37	9160.6	
725.56	9114.8	
725.74	7696.9	
725.92	7875.1	
726.1	9127.1	
726.28	9316.9	
726.46	8142	
726.64	7901.1	
726.83	9193.3	
727.01	9310.7	
727.19	7680.6	
727.37	8296.3	
727.55	9466.4	
727.73	9604.3	
727.91	7577.5	
728.09	7438.2	
728.28	9738.1	
728.46	9824.1	
728.64	8251.9	
728.82	8203.5	
729	10426	
729.18	10035	
729.36	7755	
729.54	9442.5	
729.72	10944	
729.91	9704	
730.09	9313.5	
730.27	8447.9	
730.45	9663.7	
730.63	10125	
730.81	8864.3	
730.99	8284	
731.17	10612	
731.35	9552.4	
731.53	8669.1	
731.71	8405.5	
731.9	10322	
732.08	10346	
732.26	8521.6	
732.44	8161.8	
732.62	10400	
732.8	10066	
732.98	8699.1	
733.16	7962.5	
733.34	9887.6	
733.52	8931.9	
733.7	8240.3	
733.88	8425.3	
734.07	9638.4	
734.25	9520.3	
734.43	7825.3	
734.61	8895.7	
734.79	10584	
734.97	9397.4	
735.15	7951.6	
735.33	8060.8	
735.51	9636.4	
735.69	9392	
735.87	8781	
736.05	8200.7	
736.23	9320.3	
736.41	9165.3	
736.59	8030.8	
736.77	8086.1	
736.95	9757.2	
737.13	9200.2	
737.32	7690.1	
737.5	7810.3	
737.68	10088	
737.86	9123.7	
738.04	7368.6	
738.22	8804.2	
738.4	8854.1	
738.58	9062.9	
738.76	7819.8	
738.94	7134.4	
739.12	8959.2	
739.3	8878.6	
739.48	8262.9	
739.66	8096.3	
739.84	9033.6	
740.02	9096.4	
740.2	7194.5	
740.38	7298.3	
740.56	9283.4	
740.74	8309.3	
740.92	7871	
741.1	7634.1	
741.28	8737.3	
741.46	8520.9	
741.64	7307.2	
741.82	7684	
742	8768.7	
742.18	8591.2	
742.36	7312.6	
742.54	7111.2	
742.72	9137.4	
742.9	8033.5	
743.08	7524.2	
743.26	6649.8	
743.44	9013.8	
743.62	8933.2	
743.8	7559.1	
743.98	6967.2	
744.16	8682.7	
744.34	8447.2	
744.52	7412.3	
744.7	7356.3	
744.88	8708.6	
745.06	8230.8	
745.24	7335.1	
745.42	7393.2	
745.6	8655.4	
745.78	8545.5	
745.96	6449.7	
746.14	6629.3	
746.32	9097.8	
746.5	8477.9	
746.68	6884.6	
746.86	6534.4	
747.03	8721.6	
747.21	7528.3	
747.39	6898.9	
747.57	6406	
747.75	8154.3	
747.93	8319.5	
748.11	6462.7	
748.29	6348.7	
748.47	9266.4	
748.65	7789.8	
748.83	6881.2	
749.01	6699.6	
749.19	8171.4	
749.37	7456	
749.55	6567.8	
749.73	6643.6	
749.91	7905.2	
750.09	7589.1	
750.26	6630	
750.44	6073.6	
750.62	7862.8	
750.8	7729	
750.98	6047	
751.16	6184.2	
751.34	7881.3	
751.52	7288	
751.7	6795.2	
751.88	5920.7	
752.06	8171.4	
752.24	7803.4	
752.42	5838.1	
752.59	6185.5	
752.77	7701	
752.95	8523	
753.13	6651.1	
753.31	6166.4	
753.49	7384.3	
753.67	7642.3	
753.85	6314.6	
754.03	5943.9	
754.21	7816.4	
754.38	7996.6	
754.56	5913.2	
754.74	5178.6	
754.92	7021.1	
755.1	7369.3	
755.28	4967.7	
755.46	4844.8	
755.64	7570	
755.82	7496.9	
755.99	4530.1	
756.17	4486.4	
756.35	5239.4	
756.53	6253.8	
756.71	3495.2	
756.89	4132.1	
757.07	5859.2	
757.25	5316.5	
757.42	4602.5	
757.6	5356.8	
757.78	6199.9	
757.96	5558.2	
758.14	4571.7	
758.32	4271.4	
758.5	5185.5	
758.67	5828.5	
758.85	4383.3	
759.03	4519.2	
759.21	5907.7	
759.39	5477	
759.57	4153.3	
759.75	4889.9	
759.92	6406.7	
760.1	5991	
760.28	5240.8	
760.46	5442.8	
760.64	5900.9	
760.82	5719.3	
760.99	5261.9	
761.17	4736.3	
761.35	6531	
761.53	5862.7	
761.71	4871.4	
761.89	5335	
762.06	6539.2	
762.24	6156.2	
762.42	5014.1	
762.6	4848.9	
762.78	6195.8	
762.96	6677.7	
763.13	5326.8	
763.31	5096	
763.49	6744	
763.67	6192.4	
763.85	5689.3	
764.02	6032	
764.2	7075.7	
764.38	6419	
764.56	4969.7	
764.74	5556.8	
764.91	7082.6	
765.09	6234.7	
765.27	4749.9	
765.45	4598.4	
765.63	7103	
765.8	6962.4	
765.98	4413.4	
766.16	4629.8	
766.34	5871.5	
766.52	5686.5	
766.69	5200.5	
766.87	4378.6	
767.05	6098.9	
767.23	6691.4	
767.41	4601.8	
767.58	4782.7	
767.76	6527.6	
767.94	6564.4	
768.12	4612.7	
768.29	5141.1	
768.47	5999.2	
768.65	6518.7	
768.83	4334.9	
769	5063.9	
769.18	5700.2	
769.36	6223.1	
769.54	5113.8	
769.72	4329.4	
769.89	6447	
770.07	6445.6	
770.25	4468.7	
770.43	5286.5	
770.6	6960.4	
770.78	7107.8	
770.96	4606.6	
771.14	4375.8	
771.31	6235.4	
771.49	5781.4	
771.67	3872.7	
771.85	4108.9	
772.02	5190.2	
772.2	5654.4	
772.38	4610.7	
772.55	4190.1	
772.73	5879.7	
772.91	5658.5	
773.09	4418.8	
773.26	4483	
773.44	5810.1	
773.62	5586.2	
773.8	4037.2	
773.97	3919.1	
774.15	5830.6	
774.33	5537.7	
774.5	3965.6	
774.68	4249.5	
774.86	5707	
775.04	5515.9	
775.21	4061.1	
775.39	3904.8	
775.57	5677.7	
775.74	5879	
775.92	3771	
776.1	3749.1	
776.27	5644.9	
776.45	6486.6	
776.63	3898.6	
776.81	3549.1	
776.98	5380	
777.16	6144.6	
777.34	4005.1	
777.51	4188.8	
777.69	5328.1	
777.87	5107.6	
778.04	4048.8	
778.22	4398.4	
778.4	5152	
778.57	5633.3	
778.75	3372.3	
778.93	3605.8	
779.1	4982.7	
779.28	4851.6	
779.46	3462.4	
779.64	3734.8	
779.81	5709.1	
779.99	6303	
780.17	4265.2	
780.34	4406.5	
780.52	5310.4	
780.69	5380	
780.87	3918.4	
781.05	3641.3	
781.22	5308.3	
781.4	5303.6	
781.58	3670.6	
781.75	3099.3	
781.93	5358.2	
782.11	4771.1	
782.28	4308.2	
782.46	3659.7	
782.64	4696.7	
782.81	5358.9	
782.99	3796.3	
783.17	3685.7	
783.34	5286.5	
783.52	4776.5	
783.69	3801.7	
783.87	4347.8	
784.05	4811.4	
784.22	4723.3	
784.4	4407.2	
784.58	3880.9	
784.75	5485.8	
784.93	4853.7	
785.1	3619.4	
785.28	4095.9	
785.46	5243.5	
785.63	4706.9	
785.81	3594.2	
785.99	3517	
786.16	4911.7	
786.34	5121.3	
786.51	3519.1	
786.69	3815.4	
786.87	4530.8	
787.04	4936.3	
787.22	3397.6	
787.39	4042	
787.57	4689.8	
787.75	5502.9	
787.92	4197	
788.1	4073.4	
788.27	4666.6	
788.45	4414.1	
788.63	3931.4	
788.8	3013.2	
788.98	5057.1	
789.15	4423.6	
789.33	3056.9	
789.5	3540.9	
789.68	5384.8	
789.86	5447.6	
790.03	3846.1	
790.21	3408.5	
790.38	5398.4	
790.56	4787.5	
790.73	3350.5	
790.91	3407.8	
791.09	4647.5	
791.26	5221	
791.44	3527.3	
791.61	3068.5	
791.79	4668.7	
791.96	4700.8	
792.14	3224.9	
792.32	2899.2	
792.49	4600.4	
792.67	4777.9	
792.84	3289.7	
793.02	3133.4	
793.19	5286.5	
793.37	5465.3	
793.54	2880.1	
793.72	3120.4	
793.89	5531.6	
794.07	4591.5	
794.25	3508.9	
794.42	2932	
794.6	5475.6	
794.77	5134.9	
794.95	3776.5	
795.12	3312.9	
795.3	4641.4	
795.47	5021.6	
795.65	3639.9	
795.82	3515.7	
796	4463.2	
796.17	5866.7	
796.35	3424.9	
796.52	3906.2	
796.7	5046.9	
796.87	5090.6	
797.05	3398.9	
797.22	3982.6	
797.4	5099.4	
797.57	5788.9	
797.75	3501.3	
797.92	3279.5	
798.1	5356.1	
798.27	4466.6	
798.45	2940.2	
798.62	3084.2	
798.8	4842.8	
798.97	5165	
799.15	3596.9	
799.32	3459	
799.5	4317.8	
799.67	4805.2	
799.85	3756.7	
800.02	2865.8	
800.2	4576.5	
800.37	4741	
800.55	3849.5	
800.72	3262.4	
800.9	5107.6	
801.07	5409.4	
801.25	4251.6	
801.42	3572.3	
801.6	5204.6	
801.77	4854.4	
801.95	3323.9	
802.12	3247.4	
802.29	4962.2	
802.47	4912.4	
802.64	3589.4	
802.82	2785.2	
802.99	4536.3	
803.17	5166.3	
803.34	3468.6	
803.52	3164.8	
803.69	5731.6	
803.87	4324.6	
804.04	3470.6	
804.21	3463.1	
804.39	5457.8	
804.56	4662.5	
804.74	2973	
804.91	3532.1	
805.09	4549.9	
805.26	4598.4	
805.44	3056.9	
805.61	3270.6	
805.78	5020.9	
805.96	5008.6	
806.13	3510.2	
806.31	3761.4	
806.48	4153.3	
806.66	4552	
806.83	3506.8	
807	3461.1	
807.18	4506.9	
807.35	4758.8	
807.53	3476.8	
807.7	2864.4	
807.87	5388.2	
808.05	4530.8	
808.22	3721.2	
808.4	2874.7	
808.57	4457.7	
808.74	4233.2	
808.92	3166.8	
809.09	3971.7	
809.27	4508.9	
809.44	4898.1	
809.61	2784.6	
809.79	3085.6	
809.96	5424.4	
810.14	5022.3	
810.31	2800.3	
810.48	3306.8	
810.66	4583.4	
810.83	5099.4	
811.01	3158.7	
811.18	3468.6	
811.35	5005.2	
811.53	4016.7	
811.7	3688.4	
811.87	3549.8	
812.05	4601.1	
812.22	4456.4	
812.39	3029.6	
812.57	3009.8	
812.74	4513.7	
812.92	5707.7	
813.09	3305.4	
813.26	3539.6	
813.44	5556.8	
813.61	4385.4	
813.78	2794.8	
813.96	3610.6	
814.13	4546.5	
814.3	4309.6	
814.48	3850.2	
814.65	3244	
814.82	5376.6	
815	4342.4	
815.17	3364.1	
815.34	3997.6	
815.52	4467.3	
815.69	4410	
815.87	3320.4	
816.04	3274	
816.21	4528.1	
816.38	4073.4	
816.56	3263.1	
816.73	3044.6	
816.9	5502.2	
817.08	5046.2	
817.25	3093.1	
817.42	3718.4	
817.6	4154	
817.77	4507.6	
817.94	3395.5	
818.12	2990.7	
818.29	4360.8	
818.46	6261.3	
818.64	3186.6	
818.81	3005.7	
818.98	4269.3	
819.16	5829.2	
819.33	3597.6	
819.5	3356.6	
819.67	4790.9	
819.85	5264.6	
820.02	3304.7	
820.19	3510.2	
820.37	4680.3	
820.54	4399.7	
820.71	3418.1	
820.88	4155.3	
821.06	4653	
821.23	4320.5	
821.4	3411.9	
821.58	3373.7	
821.75	4959.5	
821.92	4607.9	
822.09	2783.9	
822.27	3031.7	
822.44	4479.6	
822.61	4463.2	
822.79	2827.6	
822.96	5112.4	
823.13	4768.4	
823.3	4264.6	
823.48	3127.2	
823.65	2942.9	
823.82	5041.4	
823.99	4174.4	
824.17	3983.3	
824.34	2929.3	
824.51	5675.6	
824.68	4536.3	
824.86	3071.3	
825.03	3373	
825.2	4506.2	
825.37	5237.3	
825.55	3071.3	
825.72	3323.9	
825.89	5663.3	
826.06	5309	
826.24	3284.9	
826.41	3303.4	
826.58	5319.3	
826.75	4731.5	
826.92	2694.4	
827.1	2934.7	
827.27	6947.4	
827.44	5594.4	
827.61	3147	
827.79	3677.5	
827.96	4296	
828.13	4493.2	
828.3	3280.2	
828.47	2715.6	
828.65	4726	
828.82	4670.7	
828.99	4042	
829.16	3541.6	
829.34	5005.2	
829.51	4860.5	
829.68	3314.3	
829.85	3381.2	
830.02	5382.1	
830.2	5001.1	
830.37	2667.1	
830.54	3941.7	
830.71	5629.2	
830.88	4540.3	
831.05	2643.2	
831.23	3067.2	
831.4	5387.5	
831.57	5840.1	
831.74	3125.2	
831.91	2745.6	
832.09	4818.9	
832.26	4995.7	
832.43	3132.7	
832.6	3530	
832.77	4737.6	
832.94	5330.9	
833.12	2624.8	
833.29	3149.8	
833.46	4863.9	
833.63	6081.8	
833.8	3473.4	
833.97	3157.3	
834.15	5042.8	
834.32	4838.7	
834.49	3308.8	
834.66	3370.3	
834.83	5128.8	
835	4339.6	
835.17	3100.6	
835.35	3099.3	
835.52	4926	
835.69	4805.2	
835.86	3201.7	
836.03	2728.6	
836.2	4983.4	
836.37	4666	
836.55	3207.8	
836.72	3005.1	
836.89	4655.7	
837.06	5019.6	
837.23	3252.9	
837.4	3450.8	
837.57	5614.2	
837.75	5988.9	
837.92	2964.8	
838.09	3109.5	
838.26	4642.7	
838.43	5162.9	
838.6	3349.1	
838.77	3033	
838.94	5723.4	
839.11	5640.1	
839.29	3177.1	
839.46	2599.6	
839.63	5049.6	
839.8	4764.3	
839.97	3112.9	
840.14	3054.2	
840.31	4888.5	
840.48	4973.8	
840.65	2672.6	
840.82	3048.1	
841	5023	
841.17	4886.5	
841.34	2796.2	
841.51	2914.3	
841.68	4919.9	
841.85	4748.6	
842.02	3024.2	
842.19	2486.9	
842.36	4808.6	
842.53	4823	
842.7	2885.6	
842.87	3386.7	
843.05	6029.2	
843.22	4784.7	
843.39	2717.7	
843.56	2941.6	
843.73	4633.2	
843.9	5035.3	
844.07	4428.4	
844.24	3737.5	
844.41	6845	
844.58	4379.9	
844.75	2803.7	
844.92	3024.8	
845.09	4956.1	
845.26	4960.2	
845.43	2846.7	
845.6	2984.6	
845.77	4962.9	
845.94	4744.5	
846.12	3144.3	
846.29	3262.4	
846.46	5221.6	
846.63	4915.8	
846.8	2868.5	
846.97	3410.6	
847.14	5270.8	
847.31	4893.3	
847.48	3183.9	
847.65	3453.6	
847.82	5138.4	
847.99	5175.9	
848.16	3676.1	
848.33	3414.6	
848.5	4584.7	
848.67	5326.8	
848.84	2800.3	
849.01	2951.1	
849.18	4518.5	
849.35	4278.9	
849.52	3501.3	
849.69	2810.5	
849.86	5169.1	
850.03	5208	
850.2	2888.3	
850.37	3336.8	
850.54	5176.6	
850.71	4744.5	
850.88	3333.4	
851.05	2762	
851.22	4867.3	
851.39	5301.5	
851.56	2652.1	
851.73	3281.5	
851.9	4438.6	
852.07	5137.7	
852.24	3099.3	
852.41	2875.3	
852.58	4908.3	
852.75	4477.5	
852.92	3175.7	
853.09	2809.1	
853.26	4552.6	
853.43	5244.8	
853.6	2867.2	
853.77	2450.7	
853.94	5395	
854.11	4415.4	
854.28	4089.1	
854.44	3095.2	
854.61	5664	
854.78	5232.6	
854.95	2837.8	
855.12	3450.1	
855.29	4124.6	
855.46	5458.5	
855.63	2897.2	
855.8	3807.2	
855.97	4593.6	
856.14	5188.9	
856.31	3900.7	
856.48	3050.8	
856.65	4650.9	
856.82	4334.9	
856.99	2803.7	
857.16	3015.3	
857.33	5828.5	
857.49	4691.2	
857.66	3006.4	
857.83	3259	
858	4728.8	
858.17	4874.2	
858.34	2700.6	
858.51	2833	
858.68	5425.8	
858.85	5357.5	
859.02	3261	
859.19	3406.5	
859.36	4447.5	
859.52	4417.5	
859.69	2879.4	
859.86	3291.1	
860.03	4459.8	
860.2	5358.9	
860.37	2596.8	
860.54	2892.4	
860.71	5043.5	
860.88	5388.9	
861.05	3147.7	
861.21	3502.7	
861.38	5393	
861.55	4263.2	
861.72	2647.3	
861.89	3183.9	
862.06	5140.4	
862.23	5494.7	
862.4	2740.9	
862.56	2917	
862.73	5015.5	
862.9	4756.1	
863.07	3291.1	
863.24	2601.6	
863.41	4405.2	
863.58	4421.6	
863.75	2899.2	
863.91	3317.7	
864.08	5251	
864.25	5057.8	
864.42	3485	
864.59	3888.4	
864.76	5591.6	
864.93	4384	
865.09	2744.3	
865.26	2962	
865.43	5294	
865.6	5580.7	
865.77	2491	
865.94	2839.8	
866.1	5245.5	
866.27	5031.9	
866.44	4113	
866.61	2754.5	
866.78	4708.3	
866.95	5021.6	
867.11	2779.1	
867.28	2583.2	
867.45	5175.2	
867.62	4382	
867.79	3218.7	
867.96	2863.1	
868.12	4355.3	
868.29	5091.3	
868.46	2819.4	
868.63	3680.9	
868.8	5207.3	
868.97	5059.8	
869.13	2966.1	
869.3	2906.8	
869.47	4988.9	
869.64	5081	
869.81	2865.1	
869.97	2826.9	
870.14	4908.3	
870.31	5369.8	
870.48	2781.8	
870.65	3495.2	
870.81	4624.3	
870.98	4681.7	
871.15	3196.9	
871.32	2923.1	
871.48	4954	
871.65	5365.7	
871.82	2802.3	
871.99	3112.9	
872.16	5768.4	
872.32	5261.9	
872.49	2867.2	
872.66	2878.1	
872.83	5088.5	
872.99	4524.6	
873.16	3173.7	
873.33	2827.6	
873.5	4807.3	
873.67	4874.8	
873.83	2985.3	
874	3691.1	
874.17	4881	
874.34	5650.3	
874.5	3566.2	
874.67	3452.9	
874.84	5352	
875.01	4287.1	
875.17	3835.8	
875.34	2793.4	
875.51	4840.7	
875.68	5751.4	
875.84	3396.2	
876.01	3989.4	
876.18	5029.8	
876.34	5021.6	
876.51	2887.6	
876.68	2800.9	
876.85	4672.1	
877.01	5284.4	
877.18	3861.1	
877.35	2832.3	
877.52	4876.2	
877.68	4428.4	
877.85	2765.4	
878.02	2792.1	
878.18	4736.3	
878.35	4532.8	
878.52	2328.5	
878.69	3110.2	
878.85	5156.8	
879.02	5038.7	
879.19	3846.8	
879.35	3043.3	
879.52	5039.4	
879.69	5156.8	
879.86	2502.6	
880.02	3152.5	
880.19	4732.2	
880.36	5607.3	
880.52	3224.2	
880.69	3287.7	
880.86	5099.4	
881.02	5135.6	
881.19	3099.9	
881.36	3006.4	
881.52	5056.4	
881.69	4500.1	
881.86	3056.9	
882.02	2951.1	
882.19	5218.9	
882.36	6009.4	
882.52	2838.5	
882.69	3853.6	
882.86	4838.7	
883.02	4913.8	
883.19	3387.3	
883.36	3167.5	
883.52	5128.1	
883.69	5771.2	
883.86	2824.1	
884.02	2625.5	
884.19	5089.9	
884.36	4778.6	
884.52	3155.2	
884.69	3025.5	
884.86	4573.1	
885.02	5471.5	
885.19	3112.2	
885.36	3179.1	
885.52	4726.7	
885.69	4902.8	
885.86	3958.7	
886.02	3500.7	
886.19	5061.2	
886.35	4638	
886.52	3046	
886.69	3813.3	
886.85	4407.9	
887.02	5330.9	
887.19	5330.9	
887.35	5330.9	
887.52	5330.9	
887.68	5330.9	
887.85	5330.9	
888.02	5330.9	
888.18	5330.9	
888.35	5330.9	
888.51	5330.9	
888.68	5330.9	
888.85	5330.9	
889.01	5330.9	
889.18	5330.9	
889.35	5330.9	
889.51	5330.9	
889.68	5330.9	
889.84	5330.9	
890.01	5330.9	
890.17	5330.9	
890.34	5330.9	
890.51	5330.9	
890.67	5330.9	
890.84	5330.9	
891	5330.9	
891.17	5330.9	
891.34	5330.9	
891.5	5330.9	
891.67	5330.9	
891.83	5330.9	
892	5330.9	
892.16	5330.9	
892.33	5330.9	
892.5	5330.9	
892.66	5330.9	
892.83	5330.9	
892.99	5330.9	
893.16	5330.9	
893.32	5330.9	
893.49	5330.9	
893.65	5330.9	
893.82	5330.9	
893.99	5330.9	
894.15	5330.9	
894.32	5330.9	
894.48	5330.9	
894.65	5330.9	
894.81	5330.9	
894.98	5330.9	
895.14	5330.9	
895.31	5330.9	
895.47	5330.9	
895.64	5330.9	
895.81	5330.9	
895.97	5330.9	
896.14	5330.9	
896.3	5330.9	
896.47	5330.9	
896.63	5330.9	
896.8	5330.9	
896.96	5330.9	
897.13	5330.9	
897.29	5330.9	
897.46	5330.9	
897.62	5330.9	
897.79	5330.9	
897.95	5330.9	
898.12	5330.9	
898.28	5330.9	
898.45	5330.9	
898.61	5330.9	
898.78	5330.9	
898.94	5330.9	
899.11	5330.9	
899.27	5330.9	
899.44	5330.9	
899.6	5330.9	
899.77	5330.9	
899.93	5330.9	
900.1	5330.9	
900.26	5330.9	
900.43	5330.9	
900.59	5330.9	
900.76	5330.9	
900.92	5330.9	
901.09	5330.9	
901.25	5330.9	
901.42	5330.9	
901.58	5330.9	
901.75	5330.9	
901.91	5330.9	
902.07	5330.9	
902.24	5330.9	
902.4	5330.9	
902.57	5330.9	
902.73	5330.9	
902.9	5330.9	
903.06	5330.9	
903.23	5330.9	
903.39	5330.9	
903.56	5330.9	
903.72	5330.9	
903.88	5330.9	
904.05	5330.9	
904.21	5330.9	
904.38	5330.9	
904.54	5330.9	
904.71	5330.9	
904.87	5330.9	
905.03	5330.9	
905.2	5330.9	
905.36	5330.9	
905.53	5330.9	
905.69	5330.9	
905.86	5330.9	
906.02	5330.9	
906.18	5330.9	
906.35	5330.9	
906.51	5330.9	
906.68	5330.9	
906.84	5330.9	
907.01	5330.9	
907.17	5330.9	
907.33	5330.9	
907.5	5330.9	
907.66	5330.9	
907.83	5330.9	
907.99	5330.9	
908.15	5330.9	
908.32	5330.9	
908.48	5330.9	
908.65	5330.9	
908.81	5330.9	
908.97	5330.9	
909.14	5330.9	
909.3	5330.9	
909.47	5330.9	
909.63	5330.9	
909.79	5330.9	
909.96	5330.9	
910.12	5330.9	
910.28	5330.9	
910.45	5330.9	
910.61	5330.9	
910.78	5330.9	
910.94	5330.9	
911.1	5330.9	
911.27	5330.9	
911.43	5330.9	
911.59	5330.9	
911.76	5330.9	
911.92	5330.9	
912.08	5330.9	
912.25	5330.9	
912.41	5330.9	
912.57	5330.9	
912.74	5330.9	
912.9	5330.9	
913.07	5330.9	
913.23	5330.9	
913.39	5330.9	
913.56	5330.9	
913.72	5330.9	
913.88	5330.9	
914.05	5330.9	
914.21	5330.9	
914.37	5330.9	
914.54	5330.9	
914.7	5330.9	
914.86	5330.9	
915.03	5330.9	
915.19	5330.9	
