Wavelength	Intensities	
nm	a.u.	
179.22	1669.8	
179.44	1656.8	
179.65	1682.7	
179.86	1630.9	
180.08	1685.5	
180.29	3854.3	
180.51	3016	
180.72	4934.9	
180.94	5489.9	
181.15	2734	
181.37	2715.6	
181.58	4770.4	
181.79	4954.7	
182.01	2808.4	
182.22	2967.5	
182.44	5040.1	
182.65	4249.5	
182.87	3621.5	
183.08	3189.4	
183.29	5222.3	
183.51	4394.9	
183.72	2914.3	
183.94	4104.8	
184.15	4709.6	
184.37	4578.6	
184.58	2647.3	
184.79	3459.7	
185.01	4435.9	
185.22	5017.5	
185.44	3615.3	
185.65	3081.5	
185.86	4693.9	
186.08	4323.3	
186.29	2626.2	
186.51	2804.4	
186.72	4416.1	
186.94	5100.1	
187.15	3173	
187.36	3197.6	
187.58	6292	
187.79	4817.5	
188.01	3338.9	
188.22	4904.9	
188.43	5563	
188.65	4913.1	
188.86	2779.8	
189.08	3259.7	
189.29	4573.8	
189.5	4487.8	
189.72	2978.4	
189.93	3022.1	
190.15	5061.2	
190.36	5868.1	
190.57	3257	
190.79	3121.8	
191	5060.5	
191.22	5044.8	
191.43	3234.4	
191.64	2822.8	
191.86	5287.9	
192.07	5087.8	
192.29	2862.4	
192.5	2987.3	
192.71	5104.2	
192.93	4470	
193.14	2942.2	
193.35	3079.5	
193.57	4515.8	
193.78	5168.4	
194	2501.3	
194.21	3000.3	
194.42	4384	
194.64	4707.6	
194.85	3177.1	
195.07	3666.5	
195.28	4667.3	
195.49	4151.2	
195.71	3915.7	
195.92	2816.6	
196.13	4824.3	
196.35	4870.8	
196.56	4055.7	
196.78	3229	
196.99	5840.1	
197.2	5515.9	
197.42	3557.3	
197.63	3250.8	
197.84	4283.7	
198.06	4878.3	
198.27	2988	
198.48	3856.3	
198.7	4506.2	
198.91	4719.2	
199.13	3228.3	
199.34	3255.6	
199.55	5079	
199.77	4119.8	
199.98	2916.3	
200.19	3281.5	
200.41	4696	
200.62	4412	
200.83	3334.8	
201.05	3559.4	
201.26	4649.6	
201.47	4486.4	
201.69	2917.7	
201.9	2876.7	
202.11	4710.3	
202.33	5402.5	
202.54	3104.7	
202.76	3444	
202.97	4752	
203.18	4833.9	
203.4	3308.2	
203.61	3385.3	
203.82	4741.7	
204.04	4490.5	
204.25	3247.4	
204.46	3263.1	
204.68	4710.3	
204.89	4859.1	
205.1	3105.4	
205.32	2767.5	
205.53	4938.3	
205.74	5059.8	
205.96	2473.3	
206.17	3300	
206.38	4919.2	
206.6	5090.6	
206.81	3658.4	
207.02	2994.1	
207.24	4853	
207.45	5170.4	
207.66	3160.7	
207.88	2755.2	
208.09	4822.3	
208.3	4689.2	
208.52	2914.3	
208.73	3119.1	
208.94	4707.6	
209.15	5237.3	
209.37	3115	
209.58	3246.7	
209.79	5051	
210.01	4549.2	
210.22	2530.6	
210.43	2648.7	
210.65	4721.3	
210.86	4924.7	
211.07	3074	
211.29	2867.2	
211.5	4912.4	
211.71	4635.2	
211.93	2953.2	
212.14	2896.5	
212.35	4616.1	
212.56	4754.7	
212.78	3258.3	
212.99	2738.1	
213.2	5332.2	
213.42	4584.7	
213.63	2962	
213.84	3117	
214.06	4287.1	
214.27	4319.8	
214.48	3096.5	
214.69	3231.7	
214.91	5154.7	
215.12	5233.2	
215.33	3262.4	
215.55	3509.5	
215.76	5591.6	
215.97	4878.9	
216.18	3142.3	
216.4	3181.2	
216.61	4430.4	
216.82	5091.9	
217.04	2928.6	
217.25	3002.3	
217.46	5151.3	
217.67	4980.7	
217.89	2625.5	
218.1	2688.3	
218.31	4758.1	
218.53	4851	
218.74	3039.2	
218.95	2932	
219.16	4673.5	
219.38	5356.8	
219.59	2909.5	
219.8	3420.1	
220.01	5791	
220.23	4679.6	
220.44	3654.9	
220.65	2824.1	
220.87	4823.6	
221.08	5139.7	
221.29	2769.5	
221.5	3485	
221.72	6005.3	
221.93	4414.1	
222.14	3247.4	
222.35	3733.4	
222.57	4693.9	
222.78	4994.3	
222.99	3178.4	
223.2	3285.6	
223.42	4885.1	
223.63	5012.7	
223.84	2518.3	
224.05	2493.1	
224.27	5686.5	
224.48	5309.7	
224.69	3785.3	
224.9	3233.7	
225.12	4849.6	
225.33	4659.1	
225.54	2684.9	
225.75	2934.7	
225.97	4372.4	
226.18	4602.5	
226.39	3112.2	
226.6	2920.4	
226.82	4552.6	
227.03	4356.7	
227.24	3201	
227.45	2760.7	
227.67	5021.6	
227.88	5322.7	
228.09	3620.8	
228.3	3578.5	
228.52	4961.5	
228.73	4626.4	
228.94	3037.1	
229.15	2759.3	
229.36	4621.6	
229.58	4618.9	
229.79	3102	
230	3443.3	
230.21	5436.7	
230.43	4737.6	
230.64	3192.8	
230.85	3342.3	
231.06	4966.3	
231.28	5016.8	
231.49	2747	
231.7	3168.9	
231.91	4960.2	
232.12	4702.8	
232.34	2863.1	
232.55	3134.1	
232.76	5178.6	
232.97	4683.7	
233.18	2908.1	
233.4	3213.3	
233.61	4820.9	
233.82	4482.3	
234.03	3067.2	
234.25	2993.4	
234.46	6195.1	
234.67	4691.9	
234.88	3293.1	
235.09	2929.3	
235.31	4842.1	
235.52	4573.8	
235.73	3150.5	
235.94	2764.1	
236.15	4500.8	
236.37	5498.1	
236.58	2898.6	
236.79	3095.2	
237	4907.6	
237.21	4346.5	
237.43	3337.5	
237.64	2710.8	
237.85	7709.9	
238.06	4365.6	
238.27	3291.1	
238.48	2849.4	
238.7	4962.2	
238.91	4552.6	
239.12	3102	
239.33	3186.6	
239.54	4399	
239.76	4601.1	
239.97	3110.2	
240.18	3147	
240.39	5564.3	
240.6	4796.3	
240.82	3252.2	
241.03	2702.6	
241.24	4662.5	
241.45	5245.5	
241.66	2827.6	
241.87	3352.5	
242.09	5251	
242.3	5434.6	
242.51	3388.7	
242.72	3102.7	
242.93	5019.6	
243.14	4668	
243.36	3517	
243.57	3748.5	
243.78	5240.1	
243.99	4915.1	
244.2	3113.6	
244.41	2826.9	
244.63	4382.7	
244.84	4877.6	
245.05	3327.9	
245.26	3147.7	
245.47	4911.7	
245.68	5020.3	
245.9	3931.4	
246.11	3252.2	
246.32	4538.3	
246.53	4896.7	
246.74	4854.4	
246.95	2719.7	
247.16	4364.2	
247.38	4659.1	
247.59	2691	
247.8	3163.4	
248.01	4376.5	
248.22	4803.9	
248.43	2876.7	
248.64	3110.9	
248.86	4280.3	
249.07	4513.7	
249.28	2820.1	
249.49	3174.4	
249.7	5066	
249.91	5115.1	
250.12	2697.2	
250.34	2752.5	
250.55	4803.9	
250.76	4702.1	
250.97	3233.7	
251.18	3240.6	
251.39	5126.7	
251.6	4779.3	
251.81	3265.1	
252.03	3215.3	
252.24	4496	
252.45	4961.5	
252.66	2788	
252.87	3390.1	
253.08	4709.6	
253.29	5735.7	
253.5	2843.9	
253.72	3700.7	
253.93	4629.8	
254.14	5384.8	
254.35	3001.6	
254.56	3080.8	
254.77	4809.3	
254.98	4382.7	
255.19	2997.5	
255.41	3607.8	
255.62	4788.8	
255.83	5114.5	
256.04	3268.6	
256.25	3245.3	
256.46	5537	
256.67	4512.4	
256.88	3148.4	
257.09	3525.9	
257.31	4330.1	
257.52	4441.4	
257.73	3992.9	
257.94	2962.7	
258.15	4591.5	
258.36	4663.9	
258.57	3612.6	
258.78	2439.8	
258.99	5012.7	
259.2	4526	
259.41	2973	
259.63	3078.1	
259.84	5268.1	
260.05	5522	
260.26	3792.8	
260.47	2929.3	
260.68	5098.1	
260.89	4640.7	
261.1	3540.9	
261.31	2897.9	
261.52	5177.3	
261.73	5422.3	
261.95	3713.6	
262.16	3302	
262.37	5169.8	
262.58	5257.8	
262.79	3732.8	
263	3024.8	
263.21	4698.7	
263.42	4275.5	
263.63	3323.2	
263.84	3058.3	
264.05	5010.7	
264.26	5300.8	
264.47	3612.6	
264.69	3209.8	
264.9	5292	
265.11	4825	
265.32	2900.6	
265.53	2941.6	
265.74	4759.5	
265.95	4205.8	
266.16	3175.7	
266.37	3426.9	
266.58	4807.3	
266.79	4504.8	
267	2994.8	
267.21	2782.5	
267.42	4342.4	
267.63	4709	
267.84	3092.4	
268.06	2727.2	
268.27	5014.1	
268.48	5195.7	
268.69	3095.8	
268.9	3468.6	
269.11	5188.9	
269.32	4247.5	
269.53	3144.3	
269.74	2913.6	
269.95	4814.8	
270.16	4272.1	
270.37	3155.2	
270.58	3566.9	
270.79	4585.4	
271	5034.6	
271.21	3325.2	
271.42	3118.4	
271.63	4831.2	
271.84	4369.7	
272.05	2617.3	
272.26	2865.8	
272.47	4698	
272.68	4797.7	
272.89	3024.2	
273.11	3368.2	
273.32	4521.2	
273.53	5316.5	
273.74	3293.1	
273.95	3168.9	
274.16	5083.1	
274.37	4698	
274.58	3419.4	
274.79	2814.6	
275	4797.7	
275.21	5111	
275.42	3992.9	
275.63	3472.7	
275.84	4899.4	
276.05	5861.3	
276.26	3302	
276.47	3076.7	
276.68	4673.5	
276.89	5433.9	
277.1	3428.3	
277.31	2769.5	
277.52	4861.9	
277.73	5104.2	
277.94	2723.8	
278.15	3053.5	
278.36	4842.1	
278.57	4459.1	
278.78	2995.5	
278.99	3339.6	
279.2	4529.4	
279.41	4432.5	
279.62	3891.1	
279.83	2844.6	
280.04	5543.9	
280.25	4362.9	
280.46	3835.8	
280.67	3080.8	
280.88	4425	
281.09	5173.9	
281.3	3260.4	
281.51	3992.2	
281.72	4463.2	
281.93	5006.6	
282.14	2970.2	
282.35	3181.2	
282.56	5039.4	
282.77	5019.6	
282.98	3070.6	
283.19	3605.1	
283.4	5939.1	
283.61	4677.6	
283.82	2816.6	
284.03	3837.9	
284.24	4867.3	
284.45	5068	
284.66	3873.4	
284.87	3610.6	
285.08	5108.3	
285.29	5175.9	
285.5	2725.8	
285.71	3071.3	
285.92	5107.6	
286.12	5558.2	
286.33	3736.2	
286.54	3104.7	
286.75	5013.4	
286.96	4583.4	
287.17	2850.1	
287.38	3648.8	
287.59	4486.4	
287.8	4463.2	
288.01	3059.7	
288.22	3452.9	
288.43	4917.9	
288.64	4270	
288.85	3553.2	
289.06	3393.5	
289.27	5055.1	
289.48	5275.6	
289.69	3816.7	
289.9	3465.2	
290.11	5189.6	
290.32	4530.1	
290.53	3588.7	
290.74	3342.3	
290.94	5014.8	
291.15	5036.6	
291.36	3003.7	
291.57	3389.4	
291.78	4574.5	
291.99	4280.9	
292.2	2916.3	
292.41	3351.8	
292.62	5083.7	
292.83	4945.2	
293.04	3997.6	
293.25	2902	
293.46	4611.3	
293.67	5056.4	
293.88	2916.3	
294.09	2883.5	
294.29	4382	
294.5	4832.5	
294.71	3124.5	
294.92	3002.3	
295.13	4557.4	
295.34	5518.6	
295.55	2706	
295.76	2676	
295.97	4975.9	
296.18	5464	
296.39	2813.2	
296.6	2930	
296.81	4734.9	
297.01	4958.8	
297.22	3056.9	
297.43	2983.2	
297.64	4549.2	
297.85	4432.5	
298.06	2603.7	
298.27	2705.4	
298.48	4663.2	
298.69	4477.5	
298.9	3235.8	
299.11	2934.7	
299.31	4353.3	
299.52	4392.9	
299.73	3424.2	
299.94	3293.1	
300.15	4724.7	
300.36	4455.7	
300.57	3305.4	
300.78	3251.5	
300.99	4620.9	
301.2	4726	
301.4	2982.5	
301.61	3164.1	
301.82	4868	
302.03	5033.9	
302.24	3502.7	
302.45	2807.8	
302.66	4863.9	
302.87	5143.1	
303.08	2994.1	
303.29	3867.9	
303.49	4560.1	
303.7	4643.4	
303.91	2678.1	
304.12	3747.8	
304.33	4270	
304.54	4840	
304.75	2952.5	
304.96	2873.3	
305.16	4921.3	
305.37	5371.1	
305.58	2660.3	
305.79	2685.6	
306	4913.8	
306.21	4224.3	
306.42	2930	
306.63	4294.6	
306.83	4590.2	
307.04	4994.3	
307.25	3231	
307.46	3189.4	
307.67	4164.9	
307.88	4967	
308.09	2983.2	
308.29	3024.2	
308.5	4737.6	
308.71	5076.9	
308.92	3112.9	
309.13	2839.8	
309.34	4634.6	
309.55	4652.3	
309.75	3631.7	
309.96	3297.2	
310.17	5010.7	
310.38	4507.6	
310.59	3438.5	
310.8	2762.7	
311.01	5384.8	
311.21	4621.6	
311.42	2871.3	
311.63	2927.2	
311.84	4493.9	
312.05	4717.2	
312.26	3280.8	
312.46	3518.4	
312.67	4582.7	
312.88	4315.1	
313.09	2841.9	
313.3	2844.6	
313.51	5239.4	
313.71	5496.7	
313.92	2856.9	
314.13	2964.1	
314.34	4817.5	
314.55	4667.3	
314.76	3518.4	
314.96	3149.1	
315.17	4821.6	
315.38	4900.8	
315.59	2934.7	
315.8	2790	
316.01	5251.7	
316.21	5345.2	
316.42	2807.1	
316.63	3121.8	
316.84	4578.6	
317.05	5130.8	
317.26	3363.4	
317.46	3044	
317.67	4657.1	
317.88	4969.7	
318.09	3545	
318.3	2706.7	
318.5	4513.7	
318.71	4885.1	
318.92	4445.5	
319.13	3296.5	
319.34	5043.5	
319.54	5146.5	
319.75	2690.3	
319.96	2587.9	
320.17	4942.4	
320.38	5113.1	
320.58	2685.6	
320.79	3131.3	
321	5122	
321.21	5171.8	
321.42	3183.2	
321.62	2684.2	
321.83	4455	
322.04	4747.9	
322.25	3087	
322.46	2879.4	
322.66	4770.4	
322.87	4930.1	
323.08	3492.5	
323.29	2761.3	
323.5	5483.8	
323.7	4372.4	
323.91	3801.7	
324.12	3444	
324.33	4806.6	
324.53	4958.8	
324.74	3276.1	
324.95	3431.7	
325.16	4336.2	
325.37	4545.1	
325.57	2869.2	
325.78	2927.2	
325.99	4836.6	
326.2	4309.6	
326.4	3963.5	
326.61	2725.2	
326.82	4628.4	
327.03	4789.5	
327.24	3934.8	
327.44	3684.3	
327.65	4868	
327.86	4082.3	
328.07	3303.4	
328.27	2812.5	
328.48	5160.9	
328.69	4363.5	
328.9	3979.2	
329.1	2972.3	
329.31	4642.1	
329.52	5227.1	
329.73	2861	
329.93	3166.2	
330.14	4726	
330.35	4833.2	
330.56	4497.3	
330.76	3474.7	
330.97	4550.6	
331.18	4848.2	
331.39	3140.9	
331.59	2643.9	
331.8	5120.6	
332.01	5178.6	
332.22	2966.8	
332.42	3292.5	
332.63	4792.9	
332.84	4457.1	
333.05	3207.8	
333.25	2895.1	
333.46	4476.2	
333.67	4665.3	
333.88	3007.1	
334.08	3284.3	
334.29	6058.6	
334.5	5086.5	
334.7	2817.3	
334.91	3936.2	
335.12	4330.1	
335.33	5012.1	
335.53	3142.9	
335.74	4435.9	
335.95	4587.4	
336.16	4344.4	
336.36	3142.3	
336.57	3491.1	
336.78	4371	
336.98	5098.8	
337.19	3823.6	
337.4	3091.1	
337.61	5552.7	
337.81	4345.8	
338.02	2983.9	
338.23	3646.1	
338.43	5230.5	
338.64	4446.8	
338.85	2911.5	
339.05	3719.8	
339.26	5312.4	
339.47	4259.1	
339.68	2865.1	
339.88	4064.5	
340.09	4968.4	
340.3	4999.1	
340.5	3324.5	
340.71	2635.7	
340.92	4345.8	
341.13	5196.4	
341.33	2805	
341.54	3362.1	
341.75	4872.1	
341.95	4554.7	
342.16	3168.2	
342.37	3455.6	
342.57	4347.8	
342.78	4599.7	
342.99	3510.2	
343.19	2667.8	
343.4	5016.8	
343.61	4883.7	
343.81	3061.7	
344.02	2799.6	
344.23	4972.5	
344.43	5262.6	
344.64	3527.3	
344.85	3388	
345.06	4913.1	
345.26	5081.7	
345.47	3304.7	
345.68	3716.4	
345.88	4268	
346.09	5069.4	
346.3	3363.4	
346.5	2551.1	
346.71	4625	
346.92	4491.9	
347.12	2723.1	
347.33	3246	
347.54	5071.5	
347.74	5336.3	
347.95	3254.2	
348.16	2514.9	
348.36	4615.4	
348.57	4415.4	
348.78	3332.7	
348.98	3454.2	
349.19	4622.9	
349.39	4248.2	
349.6	2714.2	
349.81	2927.2	
350.01	4894.6	
350.22	4491.9	
350.43	3216.7	
350.63	3723.2	
350.84	4713.1	
351.05	4407.2	
351.25	2888.3	
351.46	2686.9	
351.67	5053	
351.87	4465.3	
352.08	3082.9	
352.29	3420.1	
352.49	5015.5	
352.7	5094.7	
352.9	2813.9	
353.11	3433.1	
353.32	5442.8	
353.52	4524	
353.73	2863.1	
353.94	3549.1	
354.14	4896.7	
354.35	4726	
354.55	2942.2	
354.76	3181.2	
354.97	4885.8	
355.17	4614.1	
355.38	2745	
355.59	3584.6	
355.79	4435.9	
356	4662.5	
356.2	3199.6	
356.41	2809.1	
356.62	4276.8	
356.82	4634.6	
357.03	3438.5	
357.24	3060.3	
357.44	4423.6	
357.65	4515.8	
357.85	3910.9	
358.06	3208.5	
358.27	4242.7	
358.47	4442	
358.68	2768.9	
358.88	3363.4	
359.09	4847.5	
359.3	5097.4	
359.5	3844.7	
359.71	3476.8	
359.91	5389.6	
360.12	4887.8	
360.33	3446.7	
360.53	3722.5	
360.74	4469.4	
360.94	4554.7	
361.15	3500	
361.36	2974.3	
361.56	5067.4	
361.77	4663.9	
361.97	3816	
362.18	3102	
362.38	5127.4	
362.59	4390.2	
362.8	2925.2	
363	2817.3	
363.21	4213.4	
363.41	4731.5	
363.62	3332	
363.83	3889.8	
364.03	4896	
364.24	5390.9	
364.44	4128.7	
364.65	4065.9	
364.85	4595	
365.06	4372.4	
365.27	3026.9	
365.47	3115.6	
365.68	5352	
365.88	4602.5	
366.09	3310.2	
366.29	3097.9	
366.5	4760.2	
366.71	5023	
366.91	4016.7	
367.12	3440.6	
367.32	5553.4	
367.53	4985.4	
367.73	3457.7	
367.94	4120.5	
368.14	5001.8	
368.35	5545.9	
368.56	3417.4	
368.76	3265.1	
368.97	5070.8	
369.17	6105	
369.38	3101.3	
369.58	3274	
369.79	4340.3	
369.99	5330.2	
370.2	3964.2	
370.4	3333.4	
370.61	4786.8	
370.82	5799.8	
371.02	3260.4	
371.23	2821.4	
371.43	4334.2	
371.64	5304.9	
371.84	3290.4	
372.05	4109.6	
372.25	6148.7	
372.46	5079.6	
372.66	3255.6	
372.87	3280.8	
373.07	5079.6	
373.28	6184.2	
373.48	3989.4	
373.69	3794.2	
373.9	4765.6	
374.1	4759.5	
374.31	3977.8	
374.51	3590.8	
374.72	5294.7	
374.92	4546.5	
375.13	4072.7	
375.33	3476.8	
375.54	5027.1	
375.74	4707.6	
375.95	3641.3	
376.15	4420.9	
376.36	5086.5	
376.56	4906.3	
376.77	3613.3	
376.97	3887.7	
377.18	5831.2	
377.38	5117.2	
377.59	4108.9	
377.79	3370.3	
378	4967.7	
378.2	5238	
378.41	3337.5	
378.61	3252.2	
378.82	5341.1	
379.02	4739.7	
379.23	3451.5	
379.43	4179.2	
379.64	5485.1	
379.84	5072.8	
380.05	3340.2	
380.25	3287	
380.46	5168.4	
380.66	4922.6	
380.87	4246.8	
381.07	4470	
381.28	5645.6	
381.48	5225.1	
381.69	3334.1	
381.89	3360.7	
382.1	4468	
382.3	5244.8	
382.51	4121.9	
382.71	4759.5	
382.91	5134.9	
383.12	5469.4	
383.32	3592.8	
383.53	3824.9	
383.73	5103.5	
383.94	4993.6	
384.14	3761.4	
384.35	3119.1	
384.55	4807.9	
384.76	5119.9	
384.96	3657	
385.17	3754.6	
385.37	5131.5	
385.58	4620.9	
385.78	3809.9	
385.98	3069.2	
386.19	4794.3	
386.39	5143.8	
386.6	3467.9	
386.8	3575.8	
387.01	5177.9	
387.21	5233.9	
387.42	3874.1	
387.62	4304.1	
387.83	4783.4	
388.03	5018.9	
388.23	3746.4	
388.44	4242	
388.64	4569	
388.85	4591.5	
389.05	3930.1	
389.26	4366.3	
389.46	6036.7	
389.67	5554.8	
389.87	3951.2	
390.07	3874.1	
390.28	4937.7	
390.48	4655	
390.69	3388.7	
390.89	3605.1	
391.1	4825.7	
391.3	5480.4	
391.5	4411.3	
391.71	4855.1	
391.91	5344.5	
392.12	5912.5	
392.32	4478.9	
392.53	4011.3	
392.73	4916.5	
392.93	4976.6	
393.14	3747.8	
393.34	4496.7	
393.55	5368.4	
393.75	4909	
393.95	3697.9	
394.16	3591.5	
394.36	4835.9	
394.57	5287.2	
394.77	3317	
394.98	3600.3	
395.18	4868.7	
395.38	4986.1	
395.59	4297.3	
395.79	3546.4	
396	4951.3	
396.2	5271.5	
396.4	4191.5	
396.61	4117.1	
396.81	5398.4	
397.02	4934.2	
397.22	4249.5	
397.42	4399.7	
397.63	5487.9	
397.83	4812	
398.04	3573	
398.24	3953.9	
398.44	5221.6	
398.65	4554	
398.85	3465.2	
399.05	3511.6	
399.26	4954.7	
399.46	6104.3	
399.67	3860.4	
399.87	3644.7	
400.07	5245.5	
400.28	5381.4	
400.48	3730.7	
400.69	4458.4	
400.89	5583.4	
401.09	5900.9	
401.3	3717.7	
401.5	4405.2	
401.7	6002.6	
401.91	6249	
402.11	3984	
402.32	4120.5	
402.52	5658.5	
402.72	5497.4	
402.93	4232.5	
403.13	3340.2	
403.33	6102.3	
403.54	5111	
403.74	3973.1	
403.94	4565.6	
404.15	5279.7	
404.35	6091.3	
404.56	3830.4	
404.76	5091.3	
404.96	5712.5	
405.17	5408.7	
405.37	4624.3	
405.57	4261.1	
405.78	5640.1	
405.98	5229.8	
406.18	3851.5	
406.39	4414.7	
406.59	5598.5	
406.79	5266	
407	3694.5	
407.2	3816.7	
407.4	5813.5	
407.61	5731.6	
407.81	3873.4	
408.01	5221.6	
408.22	4900.1	
408.42	6302.3	
408.62	4622.9	
408.83	4323.9	
409.03	5482.4	
409.23	5352	
409.44	4392.9	
409.64	4557.4	
409.84	6186.9	
410.05	6084.5	
410.25	4537.6	
410.45	4302.8	
410.66	5866.1	
410.86	7550.2	
411.06	4676.9	
411.27	4596.3	
411.47	7347.4	
411.67	6008.1	
411.88	4781.3	
412.08	5015.5	
412.28	6355.5	
412.49	6758.3	
412.69	4676.9	
412.89	4687.8	
413.09	6644.3	
413.3	6533	
413.5	4855.7	
413.7	4565.6	
413.91	6097.5	
414.11	6738.5	
414.31	4696	
414.52	5048.9	
414.72	6522.8	
414.92	6333.7	
415.12	4734.9	
415.33	5062.6	
415.53	6653.9	
415.73	6834.8	
415.94	5340.4	
416.14	4879.6	
416.34	6070.2	
416.55	5755.5	
416.75	5823.1	
416.95	5378.6	
417.15	6827.2	
417.36	7268.9	
417.56	5989.6	
417.76	5373.2	
417.97	7024.5	
418.17	6797.9	
418.37	5096.7	
418.57	5108.3	
418.78	6716	
418.98	6509.8	
419.18	5756.8	
419.38	5544.5	
419.59	6430.6	
419.79	6184.2	
419.99	5020.9	
420.2	5198.4	
420.4	6803.4	
420.6	6886	
420.8	4905.6	
421.01	4817.5	
421.21	6754.2	
421.41	6767.2	
421.61	5231.9	
421.82	5004.6	
422.02	6421.7	
422.22	6996.5	
422.42	5599.8	
422.63	5300.1	
422.83	6418.3	
423.03	7377.5	
423.23	5324.7	
423.44	4555.4	
423.64	6448.4	
423.84	6154.1	
424.04	4912.4	
424.25	4749.9	
424.45	7038.2	
424.65	7001.3	
424.85	4549.9	
425.06	4929.5	
425.26	7190.4	
425.46	6368.5	
425.66	5244.2	
425.87	5068.7	
426.07	6888.7	
426.27	6806.1	
426.47	5212.8	
426.67	4756.7	
426.88	7178.8	
427.08	6810.9	
427.28	5394.3	
427.48	4678.9	
427.69	6040.8	
427.89	6513.9	
428.09	5298.1	
428.29	4668	
428.5	6888	
428.7	6602.7	
428.9	4682.3	
429.1	5027.8	
429.3	6619	
429.51	6790.4	
429.71	4926.7	
429.91	5545.9	
430.11	6888	
430.31	7074.4	
430.52	5075.5	
430.72	5285.1	
430.92	7161.1	
431.12	6832.7	
431.32	4924.7	
431.53	5156.8	
431.73	6079.1	
431.93	7221.1	
432.13	4826.4	
432.33	4796.3	
432.54	6404.7	
432.74	6679.1	
432.94	4775.9	
433.14	5484.5	
433.34	6941.2	
433.55	6591.7	
433.75	5425.8	
433.95	6748.1	
434.15	6779.5	
434.35	6474.3	
434.56	4910.3	
434.76	4677.6	
434.96	6716	
435.16	6937.8	
435.36	4870.8	
435.56	5611.4	
435.77	6494.8	
435.97	6681.8	
436.17	6225.1	
436.37	5662	
436.57	6546	
436.78	6488.6	
436.98	6910.5	
437.18	6098.9	
437.38	6995.9	
437.58	6584.9	
437.78	6176.7	
437.99	5202.5	
438.19	7081.9	
438.39	7577.5	
438.59	5166.3	
438.79	4786.1	
438.99	7449.8	
439.2	6552.1	
439.4	4846.2	
439.6	4902.2	
439.8	6889.4	
440	7701	
440.2	5689.3	
440.4	5679	
440.61	7331	
440.81	7608.9	
441.01	5119.2	
441.21	5885.2	
441.41	7668.3	
441.61	7292.1	
441.81	6098.2	
442.02	6790.4	
442.22	7965.9	
442.42	7453.2	
442.62	5218.2	
442.82	5392.3	
443.02	7759.8	
443.22	7064.8	
443.43	5637.4	
443.63	5301.5	
443.83	6847	
444.03	7006.8	
444.23	6208.1	
444.43	5894.1	
444.63	7152.2	
444.83	8032.8	
445.04	5468.8	
445.24	6395.1	
445.44	7406.8	
445.64	7474.4	
445.84	5953.4	
446.04	5982.1	
446.24	6927.6	
446.44	7722.2	
446.65	5293.3	
446.85	5664.7	
447.05	7062.8	
447.25	7634.1	
447.45	5726.8	
447.65	5203.2	
447.85	7103.7	
448.05	6783.6	
448.25	6000.5	
448.46	5853.1	
448.66	7163.8	
448.86	6920.8	
449.06	5315.2	
449.26	5987.6	
449.46	7447.8	
449.66	6791.7	
449.86	5879	
450.06	5601.2	
450.26	6916.7	
450.47	7357.7	
450.67	5892.7	
450.87	6117.3	
451.07	7589.1	
451.27	7341.3	
451.47	5399.1	
451.67	6070.9	
451.87	7015.7	
452.07	7871	
452.27	5604.6	
452.47	5512.4	
452.67	7296.9	
452.88	7606.8	
453.08	5181.4	
453.28	6522.8	
453.48	8201.4	
453.68	7238.9	
453.88	5627.1	
454.08	5682.4	
454.28	7577.5	
454.48	7333.1	
454.68	6070.9	
454.88	6491.4	
455.08	7635.5	
455.28	7514.7	
455.48	5483.8	
455.68	6086.6	
455.89	8114.7	
456.09	7821.2	
456.29	5823.7	
456.49	5981.4	
456.69	7968	
456.89	7433.4	
457.09	6207.4	
457.29	6561.7	
457.49	7740	
457.69	7832.1	
457.89	6135.7	
458.09	5735.7	
458.29	7667.6	
458.49	8199.4	
458.69	6517.3	
458.89	6005.3	
459.09	8372.8	
459.29	8456.1	
459.49	6211.5	
459.69	6776	
459.9	8013.7	
460.1	7746.8	
460.3	6103.6	
460.5	5976.7	
460.7	8014.4	
460.9	7755.7	
461.1	5783.5	
461.3	6652.5	
461.5	8675.9	
461.7	8215.8	
461.9	6152.1	
462.1	6379.4	
462.3	7965.9	
462.5	8360.5	
462.7	6160.3	
462.9	6300.9	
463.1	9196.1	
463.3	8901.2	
463.5	6444.3	
463.7	7122.2	
463.9	8232.8	
464.1	8496.3	
464.3	6727.6	
464.5	6841.6	
464.7	8686.1	
464.9	8507.3	
465.1	7863.5	
465.3	7114	
465.5	9016.5	
465.7	9098.4	
465.9	7496.9	
466.1	7087.3	
466.3	8869.8	
466.5	8736.6	
466.7	8029.4	
466.9	7007.5	
467.1	8972.2	
467.3	9530.6	
467.5	7912	
467.7	7183.6	
467.9	9721	
468.1	10337	
468.3	7769.3	
468.5	8006.9	
468.7	8869.8	
468.9	8788.5	
469.1	7361.1	
469.3	7901.1	
469.5	10420	
469.7	8647.9	
469.9	7763.8	
470.1	7283.3	
470.3	8978.3	
470.5	9042.5	
470.7	8216.5	
470.9	7377.5	
471.1	8867	
471.3	9060.9	
471.5	7260.7	
471.69	8512.7	
471.89	8746.2	
472.09	8327.7	
472.29	7798.7	
472.49	7916.1	
472.69	8531.2	
472.89	8997.4	
473.09	7126.2	
473.29	7240.9	
473.49	8595.3	
473.69	8635.6	
473.89	7765.2	
474.09	7210.9	
474.29	9672.6	
474.49	9306.7	
474.69	7763.2	
474.89	7401.4	
475.09	8716.2	
475.29	8713.4	
475.49	7017	
475.69	7214.3	
475.88	9796.8	
476.08	8995.4	
476.28	6929.6	
476.48	7139.9	
476.68	9301.2	
476.88	9079.3	
477.08	7136.5	
477.28	7354.9	
477.48	8716.2	
477.68	9100.5	
477.88	7000	
478.08	7160.4	
478.28	9495.1	
478.48	8860.2	
478.67	7336.5	
478.87	6808.1	
479.07	9366.7	
479.27	8893.6	
479.47	7438.2	
479.67	7389.8	
479.87	9164.7	
480.07	9555.1	
480.27	6956.9	
480.47	8062.2	
480.67	8855.4	
480.87	9453.4	
481.06	7105.1	
481.26	7874.4	
481.46	8940.7	
481.66	8924.4	
481.86	7481.9	
482.06	8174.1	
482.26	8812.4	
482.46	9449.3	
482.66	7417.7	
482.86	7223.2	
483.05	9183.8	
483.25	8622.6	
483.45	9323.7	
483.65	7466.9	
483.85	8725	
484.05	8944.8	
484.25	7780.9	
484.45	8194.6	
484.65	9465	
484.84	9656.9	
485.04	7387	
485.24	7476.5	
485.44	9954.5	
485.64	8659.5	
485.84	7055.9	
486.04	7885.4	
486.24	8917.5	
486.44	9116.9	
486.63	6996.5	
486.83	7548.1	
487.03	8960.5	
487.23	9084.1	
487.43	7157	
487.63	8772.1	
487.83	9185.8	
488.02	9796.1	
488.22	7856.7	
488.42	8348.9	
488.62	9828.9	
488.82	9016.5	
489.02	7716.1	
489.22	7787.7	
489.41	9704.6	
489.61	9633	
489.81	7438.2	
490.01	7453.9	
490.21	9817.3	
490.41	10200	
490.61	7570	
490.8	7592.5	
491	9454.1	
491.2	8943.5	
491.4	7972.7	
491.6	7485.3	
491.8	9413.8	
491.99	9374.2	
492.19	7350.8	
492.39	7500.3	
492.59	9661	
492.79	9770.9	
492.99	8099	
493.18	7520.8	
493.38	9955.2	
493.58	10395	
493.78	7994.6	
493.98	7775.5	
494.18	9727.2	
494.37	9357.9	
494.57	8480.6	
494.77	8335.2	
494.97	10065	
495.17	10340	
495.37	8264.9	
495.56	8453.3	
495.76	10561	
495.96	10269	
496.16	9181.7	
496.36	8464.9	
496.55	10610	
496.75	10182	
496.95	8766	
497.15	8664.3	
497.35	10511	
497.54	10438	
497.74	8522.3	
497.94	9731.3	
498.14	11013	
498.34	10773	
498.53	8341.4	
498.73	8834.3	
498.93	10060	
499.13	10541	
499.33	8811	
499.52	9095	
499.72	10711	
499.92	10797	
500.12	8615.8	
500.32	8791.9	
500.51	10714	
500.71	10577	
500.91	9306.7	
501.11	9137.4	
501.31	10725	
501.5	11107	
501.7	9611.1	
501.9	8873.2	
502.1	10540	
502.29	10789	
502.49	9223.4	
502.69	9325.1	
502.89	10725	
503.09	10716	
503.28	8370	
503.48	8484.1	
503.68	10210	
503.88	10018	
504.07	9081.4	
504.27	8722.3	
504.47	10505	
504.67	10454	
504.86	9118.2	
505.06	8790.6	
505.26	10168	
505.46	11308	
505.65	8727.1	
505.85	8936.7	
506.05	10116	
506.25	10380	
506.44	8251.3	
506.64	8891.6	
506.84	9909.4	
507.04	10426	
507.23	8279.9	
507.43	8782.4	
507.63	11249	
507.83	10037	
508.02	8796.7	
508.22	8473.8	
508.42	11480	
508.62	9909.4	
508.81	8612.4	
509.01	9142.8	
509.21	9878.7	
509.4	10040	
509.6	8794.7	
509.8	8312.7	
510	10075	
510.19	11026	
510.39	8303.8	
510.59	8358.4	
510.79	9866.4	
510.98	10887	
511.18	8600.1	
511.38	8649.9	
511.57	10571	
511.77	10307	
511.97	8953.7	
512.17	8341.4	
512.36	10525	
512.56	10268	
512.76	8260.8	
512.95	8150.2	
513.15	10629	
513.35	9570.8	
513.55	8920.3	
513.74	8268.3	
513.94	10519	
514.14	10043	
514.33	9056.1	
514.53	8801.5	
514.73	10050	
514.92	10207	
515.12	8449.2	
515.32	8316.1	
515.51	10327	
515.71	10509	
515.91	9724.4	
516.11	8398.7	
516.3	11501	
516.5	10047	
516.7	8815.1	
516.89	9182.4	
517.09	10159	
517.29	10048	
517.48	9127.8	
517.68	8572.8	
517.88	9794.8	
518.07	10374	
518.27	9067	
518.47	8302.5	
518.66	10738	
518.86	9753.8	
519.06	8201.4	
519.25	8458.1	
519.45	10058	
519.65	11039	
519.84	8983.1	
520.04	9488.2	
520.24	11487	
520.43	10561	
520.63	8761.2	
520.83	8630.8	
521.02	10007	
521.22	10464	
521.42	8904.6	
521.61	9484.8	
521.81	10138	
522.01	10297	
522.2	8890.2	
522.4	8652	
522.6	10734	
522.79	9668.5	
522.99	8781.7	
523.18	8456.7	
523.38	10486	
523.58	10555	
523.77	9711.5	
523.97	8473.8	
524.17	11992	
524.36	11415	
524.56	9484.8	
524.76	9256.8	
524.95	10619	
525.15	10388	
525.34	9241.8	
525.54	9247.9	
525.74	11045	
525.93	10404	
526.13	10125	
526.33	9303.2	
526.52	11356	
526.72	10943	
526.91	10180	
527.11	9685.5	
527.31	11431	
527.5	11746	
527.7	9730.6	
527.89	9043.1	
528.09	10743	
528.29	11206	
528.48	9977	
528.68	9783.1	
528.87	11436	
529.07	11503	
529.27	9755.2	
529.46	9498.5	
529.66	11356	
529.85	11755	
530.05	9325.1	
530.25	9962.7	
530.44	12382	
530.64	11225	
530.83	9660.3	
531.03	9858.9	
531.23	11619	
531.42	11411	
531.62	10324	
531.81	9737.4	
532.01	11805	
532.21	12054	
532.4	9764	
532.6	10144	
532.79	12402	
532.99	12021	
533.18	10179	
533.38	10912	
533.58	11766	
533.77	12206	
533.97	10280	
534.16	10901	
534.36	12555	
534.55	11702	
534.75	10873	
534.95	10312	
535.14	12488	
535.34	11686	
535.53	10004	
535.73	11479	
535.92	12743	
536.12	11804	
536.31	10041	
536.51	10993	
536.71	11975	
536.9	11685	
537.1	10106	
537.29	10352	
537.49	12353	
537.68	11710	
537.88	10675	
538.07	9891	
538.27	11851	
538.46	12601	
538.66	9942.9	
538.86	10332	
539.05	11999	
539.25	12225	
539.44	10589	
539.64	10215	
539.83	11865	
540.03	12587	
540.22	10189	
540.42	10240	
540.61	12004	
540.81	12215	
541	10506	
541.2	11075	
541.39	11688	
541.59	11867	
541.78	10850	
541.98	9960	
542.18	11346	
542.37	11329	
542.57	10230	
542.76	10709	
542.96	11345	
543.15	11746	
543.35	10195	
543.54	9790	
543.74	11722	
543.93	11617	
544.13	10015	
544.32	10746	
544.52	11774	
544.71	11157	
544.91	9368.1	
545.1	10238	
545.3	11204	
545.49	11559	
545.69	9204.3	
545.88	9671.2	
546.08	12299	
546.27	11933	
546.47	9997.5	
546.66	9449.3	
546.86	11677	
547.05	12095	
547.24	9599.5	
547.44	9596.8	
547.63	10946	
547.83	11618	
548.02	9912.9	
548.22	9951.8	
548.41	10744	
548.61	11770	
548.8	9343.5	
549	9519	
549.19	11237	
549.39	11564	
549.58	9289.6	
549.78	9640.5	
549.97	11469	
550.17	11059	
550.36	10226	
550.55	11048	
550.75	11030	
550.94	11741	
551.14	9374.9	
551.33	9509.4	
551.53	10674	
551.72	11252	
551.92	9568.8	
552.11	9405	
552.31	11383	
552.5	11295	
552.69	10647	
552.89	9215.2	
553.08	11397	
553.28	11152	
553.47	9456.2	
553.67	10231	
553.86	11773	
554.06	10525	
554.25	8901.8	
554.44	9317.6	
554.64	12258	
554.83	11889	
555.03	9178.3	
555.22	9510.8	
555.42	11318	
555.61	11131	
555.8	9332.6	
556	9467.8	
556.19	10496	
556.39	11358	
556.58	9324.4	
556.78	9327.1	
556.97	11077	
557.16	10931	
557.36	10268	
557.55	9048.6	
557.75	10269	
557.94	11771	
558.13	9136.7	
558.33	8976.9	
558.52	11651	
558.72	10568	
558.91	9072.5	
559.1	9193.3	
559.3	10478	
559.49	10247	
559.69	8768	
559.88	9480.7	
560.07	10924	
560.27	11287	
560.46	9598.8	
560.66	9635	
560.85	10897	
561.04	10260	
561.24	8990.6	
561.43	9073.2	
561.63	10389	
561.82	10606	
562.01	9911.5	
562.21	9282.8	
562.4	10864	
562.59	11468	
562.79	9164.7	
562.98	8929.1	
563.18	10818	
563.37	11925	
563.56	9512.1	
563.76	9043.8	
563.95	10544	
564.14	10470	
564.34	9378.3	
564.53	9202.2	
564.73	11034	
564.92	11251	
565.11	9544.2	
565.31	8996	
565.5	11467	
565.69	10512	
565.89	9294.4	
566.08	9460.9	
566.27	11266	
566.47	11742	
566.66	9973.6	
566.85	9073.2	
567.05	11038	
567.24	10651	
567.44	9178.3	
567.63	10150	
567.82	11275	
568.02	10958	
568.21	9214.5	
568.4	9465	
568.6	11073	
568.79	11067	
568.98	9099.1	
569.18	9291	
569.37	11026	
569.56	12547	
569.76	9494.4	
569.95	10248	
570.14	11331	
570.34	11300	
570.53	9274.6	
570.72	9246.6	
570.91	11755	
571.11	11113	
571.3	9531.2	
571.49	10234	
571.69	11192	
571.88	10675	
572.07	10010	
572.27	9915.6	
572.46	10631	
572.65	11541	
572.85	9413.1	
573.04	9644.6	
573.23	11847	
573.43	11236	
573.62	9290.3	
573.81	9714.9	
574	11332	
574.2	11069	
574.39	9693	
574.58	9620.7	
574.78	11947	
574.97	11404	
575.16	10070	
575.36	10111	
575.55	11873	
575.74	11708	
575.93	9333.3	
576.13	10269	
576.32	11292	
576.51	11748	
576.71	9797.5	
576.9	10787	
577.09	12005	
577.28	11643	
577.48	10157	
577.67	9334	
577.86	11394	
578.05	11538	
578.25	9867.8	
578.44	9884.9	
578.63	11428	
578.83	12267	
579.02	9393.3	
579.21	10448	
579.4	11569	
579.6	11427	
579.79	10008	
579.98	11546	
580.17	11937	
580.37	12044	
580.56	9621.4	
580.75	10079	
580.94	12202	
581.14	12166	
581.33	10487	
581.52	9799.5	
581.71	11799	
581.91	12333	
582.1	9690.3	
582.29	10030	
582.48	11687	
582.68	11574	
582.87	10441	
583.06	10240	
583.25	11856	
583.45	11450	
583.64	10759	
583.83	11151	
584.02	11635	
584.21	11914	
584.41	10739	
584.6	10227	
584.79	11825	
584.98	12236	
585.18	9889	
585.37	9766.1	
585.56	11411	
585.75	12005	
585.94	9936.7	
586.14	10494	
586.33	12271	
586.52	11707	
586.71	10199	
586.91	10054	
587.1	11176	
587.29	11859	
587.48	9781.1	
587.67	9835	
587.87	11701	
588.06	11608	
588.25	10609	
588.44	10113	
588.63	11405	
588.83	11769	
589.02	9753.8	
589.21	9683.5	
589.4	11213	
589.59	11004	
589.78	8993.3	
589.98	9118.2	
590.17	10660	
590.36	10961	
590.55	8594.6	
590.74	8993.3	
590.94	11693	
591.13	10731	
591.32	8783.7	
591.51	8461.5	
591.7	10924	
591.89	10641	
592.09	8561.2	
592.28	8816.5	
592.47	9912.9	
592.66	11462	
592.85	8530.5	
593.05	8800.8	
593.24	10465	
593.43	11137	
593.62	8902.5	
593.81	9245.2	
594	10641	
594.19	10643	
594.39	8706.6	
594.58	8601.5	
594.77	10772	
594.96	11168	
595.15	8704.5	
595.34	9052.7	
595.54	10625	
595.73	9983.2	
595.92	8152.3	
596.11	8857.5	
596.3	10966	
596.49	10064	
596.68	8744.1	
596.88	9077.3	
597.07	10740	
597.26	9906.7	
597.45	8396.7	
597.64	9286.2	
597.83	10183	
598.02	10619	
598.22	8531.2	
598.41	8890.9	
598.6	10420	
598.79	9991.4	
598.98	8394.6	
599.17	9092.3	
599.36	10471	
599.55	11183	
599.74	9979.1	
599.94	9816.6	
600.13	10787	
600.32	9878	
600.51	8299.7	
600.7	8388.5	
600.89	11169	
601.08	11264	
601.27	8146.8	
601.47	8927.1	
601.66	10591	
601.85	11108	
602.04	8673.8	
602.23	8827.4	
602.42	9981.8	
602.61	10420	
602.8	8574.2	
602.99	8328.4	
603.18	10177	
603.37	10315	
603.57	8740	
603.76	9127.1	
603.95	10918	
604.14	10464	
604.33	8461.5	
604.52	8686.1	
604.71	10318	
604.9	10067	
605.09	9153.1	
605.28	9065	
605.47	10880	
605.66	10491	
605.86	8911.4	
606.05	8488.1	
606.24	10877	
606.43	9754.5	
606.62	8748.9	
606.81	9305.3	
607	10742	
607.19	10135	
607.38	8314.1	
607.57	8337.3	
607.76	10049	
607.95	9555.1	
608.14	8781.7	
608.33	9226.1	
608.52	10028	
608.72	10705	
608.91	8238.3	
609.1	8192.6	
609.29	10111	
609.48	9727.9	
609.67	8903.9	
609.86	8212.4	
610.05	9818	
610.24	9912.9	
610.43	8159.8	
610.62	7841.7	
610.81	10938	
611	10680	
611.19	8216.5	
611.38	8647.9	
611.57	10241	
611.76	11116	
611.95	8077.2	
612.14	7887.4	
612.33	10000	
612.52	9828.2	
612.71	8444.5	
612.9	7922.2	
613.09	9521	
613.28	11120	
613.47	8346.2	
613.66	8909.3	
613.85	10183	
614.04	9836.4	
614.24	8385.7	
614.43	7770	
614.62	10234	
614.81	10172	
615	8615.1	
615.19	8682	
615.38	9726.5	
615.57	9979.8	
615.76	8495	
615.95	9185.8	
616.14	10251	
616.33	10013	
616.52	8799.4	
616.71	8894.3	
616.9	10253	
617.09	10077	
617.28	8417.2	
617.47	9192	
617.66	9689.6	
617.85	9651.4	
618.04	9031.5	
618.22	8536.6	
618.41	9942.2	
618.6	10676	
618.79	8605.6	
618.98	8482	
619.17	10873	
619.36	9577	
619.55	8757.1	
619.74	8577.6	
619.93	10391	
620.12	9976.3	
620.31	9099.8	
620.5	9164.7	
620.69	10864	
620.88	11096	
621.07	9648	
621.26	9022	
621.45	10529	
621.64	10520	
621.83	9071.1	
622.02	8489.5	
622.21	10613	
622.4	10556	
622.59	9469.8	
622.78	9334	
622.97	10181	
623.16	10958	
623.35	9189.9	
623.54	8501.8	
623.72	10408	
623.91	10463	
624.1	9268.4	
624.29	8355	
624.48	11256	
624.67	10658	
624.86	9213.1	
625.05	8596.7	
625.24	11438	
625.43	10240	
625.62	10473	
625.81	8744.1	
626	10775	
626.19	10323	
626.38	9211.8	
626.56	8738.7	
626.75	10270	
626.94	10764	
627.13	9146.9	
627.32	8339.3	
627.51	10661	
627.7	11411	
627.89	8383.7	
628.08	9220	
628.27	10018	
628.46	10226	
628.65	8520.2	
628.83	8235.6	
629.02	10550	
629.21	10061	
629.4	8896.4	
629.59	8961.9	
629.78	10009	
629.97	10641	
630.16	9056.1	
630.35	8642.4	
630.54	11135	
630.72	10941	
630.91	8744.1	
631.1	9060.9	
631.29	10462	
631.48	10540	
631.67	9182.4	
631.86	8681.3	
632.05	10297	
632.24	10281	
632.42	8504.5	
632.61	8928.5	
632.8	10281	
632.99	10066	
633.18	8945.5	
633.37	9252	
633.56	10489	
633.75	10400	
633.93	8957.8	
634.12	8662.2	
634.31	11026	
634.5	10597	
634.69	8696.4	
634.88	9028.1	
635.07	10249	
635.25	10649	
635.44	9240.4	
635.63	9526.5	
635.82	10079	
636.01	9676.7	
636.2	9292.3	
636.39	8975.6	
636.57	11051	
636.76	10628	
636.95	8531.2	
637.14	9451.4	
637.33	10523	
637.52	11134	
637.7	8509.3	
637.89	9178.3	
638.08	10320	
638.27	11301	
638.46	9181	
638.65	9387.2	
638.83	11196	
639.02	10071	
639.21	9062.3	
639.4	9353.1	
639.59	10358	
639.78	10117	
639.96	8584.4	
640.15	8497.7	
640.34	10306	
640.53	10219	
640.72	8282	
640.91	8511.4	
641.09	9906.7	
641.28	10735	
641.47	8492.9	
641.66	9121	
641.85	10376	
642.03	10450	
642.22	8860.2	
642.41	8549.6	
642.6	9972.9	
642.79	9448.6	
642.97	8428.1	
643.16	8857.5	
643.35	9755.8	
643.54	9665.7	
643.73	8188.5	
643.91	8797.4	
644.1	9592.7	
644.29	9994.1	
644.48	8212.4	
644.67	8257.4	
644.85	9600.2	
645.04	9857.6	
645.23	7819.1	
645.42	8141.4	
645.6	9439.1	
645.79	10152	
645.98	8015.1	
646.17	7314	
646.36	9082.7	
646.54	9434.3	
646.73	8525	
646.92	7600.7	
647.11	9170.8	
647.29	9893.1	
647.48	7667.6	
647.67	7431.4	
647.86	10107	
648.05	10008	
648.23	7915.4	
648.42	8670.4	
648.61	9566.1	
648.8	9495.7	
648.98	7531.7	
649.17	7816.4	
649.36	9031.5	
649.55	8704.5	
649.73	7517.4	
649.92	8060.1	
650.11	8957.8	
650.3	9263.6	
650.48	7645.8	
650.67	7518.1	
650.86	9340.8	
651.05	8591.9	
651.23	7537.2	
651.42	7531.1	
651.61	9032.2	
651.79	8857.5	
651.98	7592.5	
652.17	7195.9	
652.36	9255.5	
652.54	8557.1	
652.73	7363.1	
652.92	7251.9	
653.11	9172.9	
653.29	9226.1	
653.48	6760.3	
653.67	7524.9	
653.85	8998.1	
654.04	9742.2	
654.23	7643.7	
654.42	7418.4	
654.6	8576.9	
654.79	9058.8	
654.98	6875	
655.16	7295.5	
655.35	8206.2	
655.54	8071	
655.73	6916.7	
655.91	6692.1	
656.1	8868.4	
656.29	7968	
656.47	6423.8	
656.66	7635.5	
656.85	8223.3	
657.03	8240.3	
657.22	6883.2	
657.41	6967.2	
657.59	8445.1	
657.78	8346.2	
657.97	6707.1	
658.16	7271	
658.34	9016.5	
658.53	9356.5	
658.72	7888.1	
658.9	8247.9	
659.09	8694.3	
659.28	8634.9	
659.46	7082.6	
659.65	6964.5	
659.84	8427.4	
660.02	8888.9	
660.21	7106.5	
660.4	6844.3	
660.58	9140.1	
660.77	8554.4	
660.96	7419.8	
661.14	6704.4	
661.33	9482.8	
661.52	9370.1	
661.7	6631.3	
661.89	9252.7	
662.08	8435.6	
662.26	7937.2	
662.45	6944.7	
662.64	6942.6	
662.82	8923.7	
663.01	8313.4	
663.2	6939.2	
663.38	7518.1	
663.57	8736.6	
663.75	8690.2	
663.94	7172	
664.13	8011.7	
664.31	8402.8	
664.5	8825.4	
664.69	7345.4	
664.87	7774.8	
665.06	8208.3	
665.25	8722.3	
665.43	7912.7	
665.62	7946.1	
665.8	8882.7	
665.99	8419.2	
666.18	7207.5	
666.36	7206.8	
666.55	8964	
666.74	8826.7	
666.92	6807.4	
667.11	8062.9	
667.29	8428.1	
667.48	8886.8	
667.67	7770	
667.85	7043.6	
668.04	8397.4	
668.22	8364.6	
668.41	7111.9	
668.6	7332.4	
668.78	8267.6	
668.97	8366.6	
669.15	7363.8	
669.34	6645.7	
669.53	8273.8	
669.71	8479.3	
669.9	6746.7	
670.08	7274.4	
670.27	8239	
670.46	8617.2	
670.64	7316	
670.83	7537.2	
671.01	8029.4	
671.2	8515.5	
671.38	6852.5	
671.57	6709.8	
671.76	8973.5	
671.94	9366.7	
672.13	6744	
672.31	7434.1	
672.5	8794	
672.69	8219.9	
672.87	6870.3	
673.06	7084.6	
673.24	8610.3	
673.43	8366	
673.61	7451.2	
673.8	6987.7	
673.98	8714.8	
674.17	8832.2	
674.36	7443.7	
674.54	7390.4	
674.73	8442.4	
674.91	8891.6	
675.1	7218.4	
675.28	6855.2	
675.47	8415.1	
675.65	8813.1	
675.84	7068.9	
676.03	7260.7	
676.21	8318.8	
676.4	7911.3	
676.58	7527	
676.77	7505.8	
676.95	9421.3	
677.14	8220.5	
677.32	6794.5	
677.51	6691.4	
677.69	8732.5	
677.88	8004.8	
678.06	6707.8	
678.25	6764.4	
678.44	8269	
678.62	8077.2	
678.81	6536.4	
678.99	7152.2	
679.18	8856.8	
679.36	8527.1	
679.55	6883.2	
679.73	7236.8	
679.92	8542.1	
680.1	8030.1	
680.29	7731.1	
680.47	6871.6	
680.66	8095.6	
680.84	8694.3	
681.03	6427.2	
681.21	7208.2	
681.4	8067.6	
681.58	8006.2	
681.77	6713.2	
681.95	6621.1	
682.14	8853.4	
682.32	8963.3	
682.51	7356.3	
682.69	6591	
682.88	8041	
683.06	8419.2	
683.25	7110.5	
683.43	7478.5	
683.62	8417.2	
683.8	8493.6	
683.99	7505.8	
684.17	7086	
684.36	9129.8	
684.54	8176.9	
684.73	6432	
684.91	6467.5	
685.1	8366	
685.28	7866.2	
685.46	6902.3	
685.65	6922.1	
685.83	8333.9	
686.02	7741.3	
686.2	6292	
686.39	6352.1	
686.57	7430.7	
686.76	8665.6	
686.94	6262.7	
687.13	6450.4	
687.31	8064.9	
687.5	7798.7	
687.68	5981.4	
687.86	6778.1	
688.05	9098.4	
688.23	7452.6	
688.42	6862.1	
688.6	6430.6	
688.79	7774.8	
688.97	7767.9	
689.16	6713.9	
689.34	5993.7	
689.52	8254.7	
689.71	8580.3	
689.89	6935.1	
690.08	6426.5	
690.26	8061.5	
690.45	7937.9	
690.63	7096.2	
690.81	6558.3	
691	7959.8	
691.18	7855.3	
691.37	6684.6	
691.55	8239.7	
691.74	7796.6	
691.92	9160.6	
692.1	6556.9	
692.29	6296.1	
692.47	7855.3	
692.66	7300.3	
692.84	6365.8	
693.02	6589	
693.21	7257.3	
693.39	7724.3	
693.58	6739.2	
693.76	6332.3	
693.94	8546.9	
694.13	8415.1	
694.31	6402.6	
694.5	7098.3	
694.68	7662.1	
694.86	7931.1	
695.05	6595.8	
695.23	6739.2	
695.42	8243.8	
695.6	9837.1	
695.78	7149.5	
695.97	6477	
696.15	8363.9	
696.34	7795.3	
696.52	6355.5	
696.7	6894.1	
696.89	8069.7	
697.07	7649.2	
697.25	6836.8	
697.44	7920.9	
697.62	8097.7	
697.81	8172.1	
697.99	6553.5	
698.17	6903	
698.36	7586.4	
698.54	7987.8	
698.72	6834.1	
698.91	6033.3	
699.09	7737.9	
699.28	7513.3	
699.46	6571.2	
699.64	6389	
699.83	7608.2	
700.01	8275.2	
700.19	7039.6	
700.38	5823.7	
700.56	8434.9	
700.74	7565.9	
700.93	6136.4	
701.11	6700.3	
701.29	7940.7	
701.48	8690.9	
701.66	6262.7	
701.84	6361.7	
702.03	7731.1	
702.21	8252.6	
702.39	5978	
702.58	6466.8	
702.76	8023.3	
702.94	8069.7	
703.13	6007.4	
703.31	7775.5	
703.49	7577.5	
703.68	8625.4	
703.86	6154.8	
704.04	6881.9	
704.23	7927	
704.41	8170.7	
704.59	6258.6	
704.78	7083.2	
704.96	9037	
705.14	8117.5	
705.33	6190.3	
705.51	6569.9	
705.69	7550.9	
705.87	8318.8	
706.06	6851.1	
706.24	6036	
706.42	7842.4	
706.61	8044.4	
706.79	6849.8	
706.97	6023.8	
707.16	7529.7	
707.34	7851.2	
707.52	6778.1	
707.7	6105	
707.89	7552.2	
708.07	7323.5	
708.25	6732.4	
708.44	6883.9	
708.62	7391.8	
708.8	8220.5	
708.98	6901	
709.17	6144.6	
709.35	7690.8	
709.53	7744.1	
709.72	5862	
709.9	6076.3	
710.08	7879.2	
710.26	7873.1	
710.45	6931.7	
710.63	6071.5	
710.81	7550.9	
710.99	7490.1	
711.18	6505.7	
711.36	6125.5	
711.54	7422.5	
711.72	7884.7	
711.91	6150.1	
712.09	5736.4	
712.27	7420.5	
712.45	8193.9	
712.64	6261.3	
712.82	5576.6	
713	7051.2	
713.18	7154.9	
713.37	5599.1	
713.55	6397.9	
713.73	7633.5	
713.91	6660.7	
714.1	5829.2	
714.28	5440.8	
714.46	7307.8	
714.64	6681.8	
714.83	4857.8	
715.01	5343.8	
715.19	6650.4	
715.37	6144.6	
715.55	5066.7	
715.74	5258.5	
715.92	7064.8	
716.1	5652.4	
716.28	5963	
716.47	5263.3	
716.65	6248.4	
716.83	6289.3	
717.01	5072.8	
717.19	5085.1	
717.38	7696.9	
717.56	5963	
717.74	5310.4	
717.92	4630.5	
718.1	6829.3	
718.29	6162.3	
718.47	4332.1	
718.65	4839.4	
718.83	6771.9	
719.01	6724.8	
719.2	4437.9	
719.38	5145.2	
719.56	6627.9	
719.74	7638.9	
719.92	4958.1	
720.11	5674.9	
720.29	6696.9	
720.47	6028.5	
720.65	4556.7	
720.83	5091.9	
721.02	6184.2	
721.2	5986.9	
721.38	5096.7	
721.56	4543.8	
721.74	5562.3	
721.92	5664	
722.11	5414.1	
722.29	5210.7	
722.47	6518.7	
722.65	5935	
722.83	4567.7	
723.01	5191.6	
723.2	6025.8	
723.38	6264.7	
723.56	4121.9	
723.74	4959.5	
723.92	5672.9	
724.1	6414.9	
724.29	4426.3	
724.47	5303.6	
724.65	5767.8	
724.83	5631.2	
725.01	4386.1	
725.19	4975.2	
725.37	5666	
725.56	5556.8	
725.74	4223.6	
725.92	4387.4	
726.1	5548.6	
726.28	5839.4	
726.46	4691.2	
726.64	4448.2	
726.83	5797.8	
727.01	5963	
727.19	4182	
727.37	4767	
727.55	5867.4	
727.73	6222.4	
727.91	4117.8	
728.09	4018.1	
728.28	6235.4	
728.46	6347.3	
728.64	4807.3	
728.82	4780.6	
729	6963.1	
729.18	6465.4	
729.36	4150.6	
729.54	5763.7	
729.72	7094.8	
729.91	5905.7	
730.09	5601.9	
730.27	4657.1	
730.45	5862.7	
730.63	6371.2	
730.81	5044.8	
730.99	4356.7	
731.17	6700.3	
731.35	5568.4	
731.53	4816.8	
731.71	4494.6	
731.9	6453.8	
732.08	6559	
732.26	4716.5	
732.44	4389.5	
732.62	6591	
732.8	6201.9	
732.98	4982	
733.16	4255	
733.34	6213.5	
733.52	5229.8	
733.7	4668	
733.88	4767.7	
734.07	6064	
734.25	5899.5	
734.43	4141.7	
734.61	5259.9	
734.79	6911.2	
734.97	5777.3	
735.15	4242	
735.33	4508.3	
735.51	6059.3	
735.69	5698.8	
735.87	5225.1	
736.05	4607.2	
736.23	5879	
736.41	5674.9	
736.59	4519.2	
736.77	4529.4	
736.95	6198.5	
737.13	5694.7	
737.32	4184	
737.5	4316.4	
737.68	6554.9	
737.86	5577.3	
738.04	4007.2	
738.22	5391.6	
738.4	5513.8	
738.58	5705	
738.76	4463.9	
738.94	3756	
739.12	5577.3	
739.3	5411.4	
739.48	4882.4	
739.66	4732.9	
739.84	5743.2	
740.02	5679.7	
740.2	3780.6	
740.38	4024.3	
740.56	5986.2	
740.74	5116.5	
740.92	4451.6	
741.1	4316.4	
741.28	5550	
741.46	5346.6	
741.64	4093.2	
741.82	4554.7	
742	5588.9	
742.18	5440.1	
742.36	4308.2	
742.54	3976.5	
742.72	6021.7	
742.9	4980	
743.08	4487.1	
743.26	3693.9	
743.44	6038.1	
743.62	5849.7	
743.8	4635.9	
743.98	3949.8	
744.16	5749.3	
744.34	5530.2	
744.52	4440	
744.7	4491.9	
744.88	5866.7	
745.06	5433.3	
745.24	4515.8	
745.42	4636.6	
745.6	5886.5	
745.78	5765	
745.96	3687.7	
746.14	3944.4	
746.32	6496.2	
746.5	5802.6	
746.68	4302.1	
746.86	3894.6	
747.03	6138.4	
747.21	4954	
747.39	4326	
747.57	3915.7	
747.75	5513.1	
747.93	5834	
748.11	3854.3	
748.29	3826.3	
748.47	6712.6	
748.65	5314.5	
748.83	4408.6	
749.01	4202.4	
749.19	5686.5	
749.37	5017.5	
749.55	4119.8	
749.73	4138.3	
749.91	5485.8	
750.09	5263.3	
750.26	4172.4	
750.44	3721.8	
750.62	5453.1	
750.8	5377.3	
750.98	3648.8	
751.16	3872.7	
751.34	5539.8	
751.52	4987.5	
751.7	4498.7	
751.88	3654.9	
752.06	5827.8	
752.24	5638.1	
752.42	3636.5	
752.59	3881.6	
752.77	5408.7	
752.95	6239.5	
753.13	4369.7	
753.31	3944.4	
753.49	5146.5	
753.67	5532.2	
753.85	4159.4	
754.03	3837.9	
754.21	5689.9	
754.38	5942.5	
754.56	3934.8	
754.74	3269.9	
754.92	5123.3	
755.1	5522	
755.28	3231	
755.46	3278.8	
755.64	6148	
755.82	6275	
755.99	3440.6	
756.17	3581.9	
756.35	4418.2	
756.53	5485.1	
756.71	2767.5	
756.89	3414	
757.07	5171.8	
757.25	4538.3	
757.42	3871.3	
757.6	4450.9	
757.78	5242.1	
757.96	4569.7	
758.14	3607.8	
758.32	3207.8	
758.5	4267.3	
758.67	4842.8	
758.85	3493.2	
759.03	3508.2	
759.21	4975.2	
759.39	4566.3	
759.57	3157.3	
759.75	3949.8	
759.92	5523.4	
760.1	4992.3	
760.28	4229.7	
760.46	4371	
760.64	4817.5	
760.82	4645.5	
760.99	4106.2	
761.17	3498.6	
761.35	5416.2	
761.53	4569.7	
761.71	3613.3	
761.89	4104.1	
762.06	5203.2	
762.24	4900.8	
762.42	3664.5	
762.6	3525.2	
762.78	4932.9	
762.96	5377.3	
763.13	3970.3	
763.31	3687.7	
763.49	5429.2	
763.67	4856.4	
763.85	4321.9	
764.02	4715.8	
764.2	5671.5	
764.38	5020.9	
764.56	3628.3	
764.74	4276.8	
764.91	5713.2	
765.09	4878.9	
765.27	3469.3	
765.45	3275.4	
765.63	5847.6	
765.8	5563.6	
765.98	3120.4	
766.16	3330	
766.34	4642.1	
766.52	4412.7	
766.69	3980.6	
766.87	3207.1	
767.05	4951.3	
767.23	5453.1	
767.41	3494.5	
767.58	3633.8	
767.76	5378.6	
767.94	5406.6	
768.12	3524.6	
768.29	3994.2	
768.47	4909	
768.65	5515.9	
768.83	3196.2	
769	4044.1	
769.18	4685.1	
769.36	5177.3	
769.54	4016.7	
769.72	3263.8	
769.89	5464	
770.07	5464.7	
770.25	3571.7	
770.43	4342.4	
770.6	5950.7	
770.78	6229.2	
770.96	3607.2	
771.14	4118.5	
771.31	5360.2	
771.49	4833.9	
771.67	3056.9	
771.85	3208.5	
772.02	4320.5	
772.2	4861.2	
772.38	3793.5	
772.55	3367.5	
772.73	5079.6	
772.91	4896.7	
773.09	3570.3	
773.26	3717.7	
773.44	5001.1	
773.62	4820.9	
773.8	3263.1	
773.97	3145	
774.15	5111.7	
774.33	4803.9	
774.5	3187.3	
774.68	3469.3	
774.86	5161.6	
775.04	4830.5	
775.21	3252.2	
775.39	3190.1	
775.57	4967.7	
775.74	5251	
775.92	3132.7	
776.1	3054.2	
776.27	4969.1	
776.45	5825.1	
776.63	3246.7	
776.81	3041.2	
776.98	4756.1	
777.16	5478.3	
777.34	3388	
777.51	3539.6	
777.69	4769	
777.87	4533.5	
778.04	3425.6	
778.22	3810.6	
778.4	4584	
778.57	5071.5	
778.75	2917	
778.93	3133.4	
779.1	4485.7	
779.28	4316.4	
779.46	2933.4	
779.64	3201.7	
779.81	5227.8	
779.99	5773.2	
780.17	3821.5	
780.34	3878.9	
780.52	4804.5	
780.69	4900.8	
780.87	3463.8	
781.05	3140.2	
781.22	4835.3	
781.4	4887.1	
781.58	3246.7	
781.75	2661	
781.93	4871.4	
782.11	4384.7	
782.28	3913	
782.46	3226.2	
782.64	4316.4	
782.81	4928.8	
782.99	3351.2	
783.17	3251.5	
783.34	4901.5	
783.52	4447.5	
783.69	3384.6	
783.87	4023.6	
784.05	4423.6	
784.22	4394.9	
784.4	4000.4	
784.58	3480.2	
784.75	5137	
784.93	4533.5	
785.1	3259	
785.28	3707.5	
785.46	4934.9	
785.63	4402.5	
785.81	3248.8	
785.99	3151.8	
786.16	4569	
786.34	4832.5	
786.51	3116.3	
786.69	3490.4	
786.87	4187.4	
787.04	4640.7	
787.22	3089.7	
787.39	3732.1	
787.57	4431.1	
787.75	5197.7	
787.92	3913	
788.1	3824.2	
788.27	4380.6	
788.45	4188.1	
788.63	3640.6	
788.8	2695.8	
788.98	4835.9	
789.15	4099.4	
789.33	2839.8	
789.5	3217.4	
789.68	5083.1	
789.86	5169.8	
790.03	3558	
790.21	3143.6	
790.38	5161.6	
790.56	4518.5	
790.73	3063.1	
790.91	3046	
791.09	4450.9	
791.26	4911.7	
791.44	3306.8	
791.61	2880.8	
791.79	4386.1	
791.96	4418.2	
792.14	2953.9	
792.32	2635.1	
792.49	4380.6	
792.67	4498	
792.84	3053.5	
793.02	2874.7	
793.19	4782	
793.37	5239.4	
793.54	2623.4	
793.72	2919	
793.89	5294	
794.07	4362.9	
794.25	3287.7	
794.42	2753.8	
794.6	5150.6	
794.77	4831.2	
794.95	3563.5	
795.12	3126.6	
795.3	4463.2	
795.47	4849.6	
795.65	3386	
795.82	3297.9	
796	4286.4	
796.17	5634.6	
796.35	3166.8	
796.52	3680.2	
796.7	4796.3	
796.87	4847.5	
797.05	3186	
797.22	3764.2	
797.4	4899.4	
797.57	5529.5	
797.75	3290.4	
797.92	3158.7	
798.1	5074.9	
798.27	4319.2	
798.45	2725.8	
798.62	2885.6	
798.8	4623.6	
798.97	5070.1	
799.15	3398.3	
799.32	3358	
799.5	4078.9	
799.67	4597.7	
799.85	3554.6	
800.02	2686.3	
800.2	4392.9	
800.37	4558.1	
800.55	3663.8	
800.72	3112.2	
800.9	4943.8	
801.07	5260.5	
801.25	4062.5	
801.42	3351.2	
801.6	5042.8	
801.77	4631.1	
801.95	3201	
802.12	2995.5	
802.29	4760.8	
802.47	4694.6	
802.64	3401	
802.82	2651.4	
802.99	4347.8	
803.17	5059.2	
803.34	3286.3	
803.52	2958.6	
803.69	5494.7	
803.87	4207.9	
804.04	3211.9	
804.21	3355.3	
804.39	5235.3	
804.56	4483	
804.74	2835.1	
804.91	3371	
805.09	4387.4	
805.26	4458.4	
805.44	2944.3	
805.61	3125.2	
805.78	4891.9	
805.96	4809.3	
806.13	3358.7	
806.31	3550.5	
806.48	4074.8	
806.66	4406.5	
806.83	3363.4	
807	3274.7	
807.18	4328.7	
807.35	4623.6	
807.53	3254.9	
807.7	2713.6	
807.87	5250.3	
808.05	4407.2	
808.22	3607.2	
808.4	2727.9	
808.57	4341.7	
808.74	4114.4	
808.92	3099.3	
809.09	3812	
809.27	4437.3	
809.44	4730.1	
809.61	2693.1	
809.79	2999.6	
809.96	5304.2	
810.14	4904.9	
810.31	2652.1	
810.48	3192.8	
810.66	4436.6	
810.83	4983.4	
811.01	3011.9	
811.18	3347.1	
811.35	4932.9	
811.53	3993.5	
811.7	3573.7	
811.87	3360.7	
812.05	4480.3	
812.22	4335.5	
812.39	2944.3	
812.57	2835.1	
812.74	4436.6	
812.92	5547.9	
813.09	3164.8	
813.26	3420.1	
813.44	5386.2	
813.61	4301.4	
813.78	2702.6	
813.96	3508.2	
814.13	4441.4	
814.3	4214.7	
814.48	3760.8	
814.65	3181.9	
814.82	5193.6	
815	4263.2	
815.17	3188.7	
815.34	3840.6	
815.52	4321.9	
815.69	4340.3	
815.87	3216	
816.04	3174.4	
816.21	4407.9	
816.38	3979.2	
816.56	3084.2	
816.73	2974.3	
816.9	5454.4	
817.08	4896.7	
817.25	2992.8	
817.42	3616.7	
817.6	4054.3	
817.77	4374.5	
817.94	3304.1	
818.12	2907.4	
818.29	4238.6	
818.46	6066.1	
818.64	3108.1	
818.81	2872.6	
818.98	4206.5	
819.16	5643.5	
819.33	3424.9	
819.5	3305.4	
819.67	4627.7	
819.85	5120.6	
820.02	3234.4	
820.19	3391.4	
820.37	4568.3	
820.54	4306.2	
820.71	3311.6	
820.88	4037.9	
821.06	4535.6	
821.23	4222.2	
821.4	3300.6	
821.58	3322.5	
821.75	4889.9	
821.92	4506.2	
822.09	2745.6	
822.27	2864.4	
822.44	4448.2	
822.61	4345.1	
822.79	2785.9	
822.96	4939	
823.13	4733.5	
823.3	4141	
823.48	3067.2	
823.65	2841.9	
823.82	4982	
823.99	4090.5	
824.17	3889.8	
824.34	2881.5	
824.51	5573.9	
824.68	4431.1	
824.86	3040.6	
825.03	3250.1	
825.2	4444.8	
825.37	5128.8	
825.55	2984.6	
825.72	3227.6	
825.89	5549.3	
826.06	5191.6	
826.24	3179.8	
826.41	3168.9	
826.58	5263.3	
826.75	4566.3	
826.92	2646	
827.1	2867.8	
827.27	6842.3	
827.44	5472.9	
827.61	3056.9	
827.79	3573.7	
827.96	4300.7	
828.13	4415.4	
828.3	3217.4	
828.47	2725.8	
828.65	4670.1	
828.82	4617.5	
828.99	3902.7	
829.16	3422.2	
829.34	4899.4	
829.51	4752	
829.68	3251.5	
829.85	3281.5	
830.02	5216.9	
830.2	4934.2	
830.37	2572.9	
830.54	3785.3	
830.71	5441.5	
830.88	4446.1	
831.05	2581.8	
831.23	2917.7	
831.4	5344.5	
831.57	5750	
831.74	3008.5	
831.91	2689	
832.09	4698	
832.26	4906.3	
832.43	3107.5	
832.6	3454.9	
832.77	4641.4	
832.94	5232.6	
833.12	2559.3	
833.29	3050.8	
833.46	4367.6	
833.63	5874.3	
833.8	3359.4	
833.97	3077.4	
834.15	5018.2	
834.32	4812	
834.49	3276.1	
834.66	3289	
834.83	5023	
835	4248.9	
835.17	3046	
835.35	2962.7	
835.52	4886.5	
835.69	4733.5	
835.86	3145	
836.03	2651.4	
836.2	4924	
836.37	4650.3	
836.55	3066.5	
836.72	2909.5	
836.89	4638.6	
837.06	5007.3	
837.23	3119.7	
837.4	3463.1	
837.57	5579.3	
837.75	5902.2	
837.92	2871.9	
838.09	3035.8	
838.26	4615.4	
838.43	5063.3	
838.6	3238.5	
838.77	2870.6	
838.94	5687.2	
839.11	5523.4	
839.29	3131.3	
839.46	2523.1	
839.63	4930.1	
839.8	4688.5	
839.97	3040.6	
840.14	2985.3	
840.31	4799.8	
840.48	4909	
840.65	2589.3	
840.82	2923.8	
841	4828.4	
841.17	4775.2	
841.34	2796.2	
841.51	2889.7	
841.68	4821.6	
841.85	4650.3	
842.02	2886.3	
842.19	2411.8	
842.36	4803.2	
842.53	4758.8	
842.7	2825.5	
842.87	3302.7	
843.05	5939.1	
843.22	4645.5	
843.39	2719	
843.56	2925.2	
843.73	4560.8	
843.9	4998.4	
844.07	4303.5	
844.24	3649.5	
844.41	6559.6	
844.58	4320.5	
844.75	2725.8	
844.92	2947	
845.09	4843.4	
845.26	4868	
845.43	2755.9	
845.6	2959.3	
845.77	4901.5	
845.94	4709.6	
846.12	3044.6	
846.29	3236.5	
846.46	5094	
846.63	4900.8	
846.8	2826.9	
846.97	3354.6	
847.14	5246.9	
847.31	4854.4	
847.48	3048.1	
847.65	3390.8	
847.82	5061.2	
847.99	4977.9	
848.16	3653.6	
848.33	3359.4	
848.5	4502.8	
848.67	5216.9	
848.84	2719.7	
849.01	2861	
849.18	4521.9	
849.35	4264.6	
849.52	3379.8	
849.69	2708.8	
849.86	5100.8	
850.03	5174.5	
850.2	2817.3	
850.37	3332	
850.54	5071.5	
850.71	4640.7	
850.88	3289.7	
851.05	2757.2	
851.22	4787.5	
851.39	5228.5	
851.56	2654.9	
851.73	3175	
851.9	4362.2	
852.07	5012.7	
852.24	3063.8	
852.41	2810.5	
852.58	4806.6	
852.75	4384.7	
852.92	3109.5	
853.09	2708.1	
853.26	4565.6	
853.43	5198.4	
853.6	2806.4	
853.77	2415.2	
853.94	5253.7	
854.11	4376.5	
854.28	3968.3	
854.44	3034.4	
854.61	5535	
854.78	5083.1	
854.95	2758.6	
855.12	3405.8	
855.29	4091.2	
855.46	5319.3	
855.63	2791.4	
855.8	3677.5	
855.97	4526	
856.14	5170.4	
856.31	3749.1	
856.48	2964.8	
856.65	4633.9	
856.82	4319.2	
856.99	2725.2	
857.16	2964.1	
857.33	5695.4	
857.49	4642.7	
857.66	2974.3	
857.83	3162.1	
858	4657.8	
858.17	4791.6	
858.34	2697.2	
858.51	2755.9	
858.68	5337	
858.85	5333.6	
859.02	3153.2	
859.19	3363.4	
859.36	4410	
859.52	4370.4	
859.69	2759.3	
859.86	3205.1	
860.03	4413.4	
860.2	5280.3	
860.37	2568.2	
860.54	2837.1	
860.71	4997.7	
860.88	5337	
861.05	3117	
861.21	3476.8	
861.38	5325.4	
861.55	4264.6	
861.72	2555.9	
861.89	3101.3	
862.06	5098.8	
862.23	5359.5	
862.4	2728.6	
862.56	2882.2	
862.73	4965	
862.9	4717.2	
863.07	3198.9	
863.24	2555.9	
863.41	4306.9	
863.58	4351.3	
863.75	2786.6	
863.91	3177.1	
864.08	5231.9	
864.25	5010.7	
864.42	3375.1	
864.59	3833.8	
864.76	5498.8	
864.93	4347.2	
865.09	2717	
865.26	2947	
865.43	5218.2	
865.6	5446.2	
865.77	2489.6	
865.94	2761.3	
866.1	5204.6	
866.27	5012.7	
866.44	4056.3	
866.61	2698.5	
866.78	4630.5	
866.95	4904.2	
867.11	2703.3	
867.28	2515.6	
867.45	5171.1	
867.62	4360.1	
867.79	3148.4	
867.96	2748.4	
868.12	4354	
868.29	5003.9	
868.46	2779.8	
868.63	3553.2	
868.8	5173.2	
868.97	4923.3	
869.13	2902	
869.3	2911.5	
869.47	4874.2	
869.64	5091.3	
869.81	2803	
869.97	2819.4	
870.14	4810.7	
870.31	5316.5	
870.48	2712.2	
870.65	3460.4	
870.81	4628.4	
870.98	4672.1	
871.15	3124.5	
871.32	2898.6	
871.48	4917.2	
871.65	5358.2	
871.82	2757.2	
871.99	3033.7	
872.16	5619.6	
872.32	5167.7	
872.49	2849.4	
872.66	2750.4	
872.83	5023.7	
872.99	4463.2	
873.16	3120.4	
873.33	2705.4	
873.5	4676.9	
873.67	4789.5	
873.83	2938.8	
874	3637.2	
874.17	4886.5	
874.34	5532.2	
874.5	3500.7	
874.67	3370.3	
874.84	5307.7	
875.01	4274.8	
875.17	3788.1	
875.34	2763.4	
875.51	4828.4	
875.68	5661.3	
875.84	3299.3	
876.01	3936.2	
876.18	5021.6	
876.34	4919.2	
876.51	2833	
876.68	2709.5	
876.85	4560.1	
877.01	5216.2	
877.18	3877.5	
877.35	2770.9	
877.52	4792.9	
877.68	4347.2	
877.85	2711.5	
878.02	2749.7	
878.18	4587.4	
878.35	4495.3	
878.52	2277.3	
878.69	3062.4	
878.85	5078.3	
879.02	4956.1	
879.19	3805.8	
879.35	2975.7	
879.52	4971.8	
879.69	5035.3	
879.86	2444.6	
880.02	3052.2	
880.19	4760.2	
880.36	5593.7	
880.52	3160.7	
880.69	3258.3	
880.86	5061.9	
881.02	5096	
881.19	3017.3	
881.36	2957.9	
881.52	5005.9	
881.69	4487.1	
881.86	2962	
882.02	2921.8	
882.19	5182.7	
882.36	5943.9	
882.52	2803	
882.69	3857.7	
882.86	4788.2	
883.02	4827.7	
883.19	3288.4	
883.36	3112.2	
883.52	5044.1	
883.69	5638.1	
883.86	2840.5	
884.02	2564.7	
884.19	5035.3	
884.36	4731.5	
884.52	3091.1	
884.69	2904	
884.86	4537.6	
885.02	5458.5	
885.19	3039.2	
885.36	3157.3	
885.52	4629.1	
885.69	4911.7	
885.86	3909.6	
886.02	3478.1	
886.19	5042.1	
886.35	4595	
886.52	3059.7	
886.69	3734.8	
886.85	4370.4	
887.02	5278.3	
887.19	5278.3	
887.35	5278.3	
887.52	5278.3	
887.68	5278.3	
887.85	5278.3	
888.02	5278.3	
888.18	5278.3	
888.35	5278.3	
888.51	5278.3	
888.68	5278.3	
888.85	5278.3	
889.01	5278.3	
889.18	5278.3	
889.35	5278.3	
889.51	5278.3	
889.68	5278.3	
889.84	5278.3	
890.01	5278.3	
890.17	5278.3	
890.34	5278.3	
890.51	5278.3	
890.67	5278.3	
890.84	5278.3	
891	5278.3	
891.17	5278.3	
891.34	5278.3	
891.5	5278.3	
891.67	5278.3	
891.83	5278.3	
892	5278.3	
892.16	5278.3	
892.33	5278.3	
892.5	5278.3	
892.66	5278.3	
892.83	5278.3	
892.99	5278.3	
893.16	5278.3	
893.32	5278.3	
893.49	5278.3	
893.65	5278.3	
893.82	5278.3	
893.99	5278.3	
894.15	5278.3	
894.32	5278.3	
894.48	5278.3	
894.65	5278.3	
894.81	5278.3	
894.98	5278.3	
895.14	5278.3	
895.31	5278.3	
895.47	5278.3	
895.64	5278.3	
895.81	5278.3	
895.97	5278.3	
896.14	5278.3	
896.3	5278.3	
896.47	5278.3	
896.63	5278.3	
896.8	5278.3	
896.96	5278.3	
897.13	5278.3	
897.29	5278.3	
897.46	5278.3	
897.62	5278.3	
897.79	5278.3	
897.95	5278.3	
898.12	5278.3	
898.28	5278.3	
898.45	5278.3	
898.61	5278.3	
898.78	5278.3	
898.94	5278.3	
899.11	5278.3	
899.27	5278.3	
899.44	5278.3	
899.6	5278.3	
899.77	5278.3	
899.93	5278.3	
900.1	5278.3	
900.26	5278.3	
900.43	5278.3	
900.59	5278.3	
900.76	5278.3	
900.92	5278.3	
901.09	5278.3	
901.25	5278.3	
901.42	5278.3	
901.58	5278.3	
901.75	5278.3	
901.91	5278.3	
902.07	5278.3	
902.24	5278.3	
902.4	5278.3	
902.57	5278.3	
902.73	5278.3	
902.9	5278.3	
903.06	5278.3	
903.23	5278.3	
903.39	5278.3	
903.56	5278.3	
903.72	5278.3	
903.88	5278.3	
904.05	5278.3	
904.21	5278.3	
904.38	5278.3	
904.54	5278.3	
904.71	5278.3	
904.87	5278.3	
905.03	5278.3	
905.2	5278.3	
905.36	5278.3	
905.53	5278.3	
905.69	5278.3	
905.86	5278.3	
906.02	5278.3	
906.18	5278.3	
906.35	5278.3	
906.51	5278.3	
906.68	5278.3	
906.84	5278.3	
907.01	5278.3	
907.17	5278.3	
907.33	5278.3	
907.5	5278.3	
907.66	5278.3	
907.83	5278.3	
907.99	5278.3	
908.15	5278.3	
908.32	5278.3	
908.48	5278.3	
908.65	5278.3	
908.81	5278.3	
908.97	5278.3	
909.14	5278.3	
909.3	5278.3	
909.47	5278.3	
909.63	5278.3	
909.79	5278.3	
909.96	5278.3	
910.12	5278.3	
910.28	5278.3	
910.45	5278.3	
910.61	5278.3	
910.78	5278.3	
910.94	5278.3	
911.1	5278.3	
911.27	5278.3	
911.43	5278.3	
911.59	5278.3	
911.76	5278.3	
911.92	5278.3	
912.08	5278.3	
912.25	5278.3	
912.41	5278.3	
912.57	5278.3	
912.74	5278.3	
912.9	5278.3	
913.07	5278.3	
913.23	5278.3	
913.39	5278.3	
913.56	5278.3	
913.72	5278.3	
913.88	5278.3	
914.05	5278.3	
914.21	5278.3	
914.37	5278.3	
914.54	5278.3	
914.7	5278.3	
914.86	5278.3	
915.03	5278.3	
915.19	5278.3	
