Wavelength	Intensities	
nm	a.u.	
179.22	1740.4	
179.44	1744.2	
179.65	1736.7	
179.86	1751.7	
180.08	1761.3	
180.29	4019.5	
180.51	3123.2	
180.72	5076.9	
180.94	5713.2	
181.15	2826.9	
181.37	2839.8	
181.58	4945.2	
181.79	5116.5	
182.01	2938.2	
182.22	3102.7	
182.44	5143.8	
182.65	4409.3	
182.87	3777.8	
183.08	3343.7	
183.29	5413.5	
183.51	4521.9	
183.72	3104.7	
183.94	4317.8	
184.15	4820.2	
184.37	4790.2	
184.58	2768.2	
184.79	3675.4	
185.01	4526.7	
185.22	5190.2	
185.44	3842.7	
185.65	3310.2	
185.86	4848.2	
186.08	4421.6	
186.29	2740.2	
186.51	2888.3	
186.72	4528.1	
186.94	5322	
187.15	3300.6	
187.36	3355.9	
187.58	6605.4	
187.79	4900.8	
188.01	3444	
188.22	5283.1	
188.43	5720.7	
188.65	5089.9	
188.86	2926.5	
189.08	3410.6	
189.29	4670.7	
189.5	4646.2	
189.72	3144.3	
189.93	3201.7	
190.15	5281	
190.36	6156.2	
190.57	3381.2	
190.79	3333.4	
191	5316.5	
191.22	5259.2	
191.43	3507.5	
191.64	2910.2	
191.86	5526.8	
192.07	5310.4	
192.29	3075.4	
192.5	3145	
192.71	5259.9	
192.93	4665.3	
193.14	3075.4	
193.35	3244.7	
193.57	4661.9	
193.78	5240.1	
194	2566.1	
194.21	3071.3	
194.42	4508.3	
194.64	4857.1	
194.85	3327.3	
195.07	3889.1	
195.28	4842.1	
195.49	4271.4	
195.71	4085	
195.92	2997.5	
196.13	5024.3	
196.35	5057.8	
196.56	4313.7	
196.78	3370.3	
196.99	6069.5	
197.2	5714.5	
197.42	3806.5	
197.63	3431	
197.84	4390.8	
198.06	4988.2	
198.27	3103.4	
198.48	4035.2	
198.7	4658.4	
198.91	4854.4	
199.13	3387.3	
199.34	3381.2	
199.55	5235.3	
199.77	4224.3	
199.98	3009.1	
200.19	3453.6	
200.41	4771.1	
200.62	4496.7	
200.83	3485	
201.05	3779.9	
201.26	4778.6	
201.47	4571.7	
201.69	3051.5	
201.9	2961.4	
202.11	4816.8	
202.33	5608	
202.54	3217.4	
202.76	3556.6	
202.97	4910.3	
203.18	4975.9	
203.4	3509.5	
203.61	3495.9	
203.82	4870.8	
204.04	4558.1	
204.25	3422.2	
204.46	3357.3	
204.68	4811.4	
204.89	5030.5	
205.1	3276.8	
205.32	2882.9	
205.53	5165.7	
205.74	5281	
205.96	2553.1	
206.17	3453.6	
206.38	5074.9	
206.6	5153.4	
206.81	3912.3	
207.02	3210.5	
207.24	5071.5	
207.45	5343.8	
207.66	3261	
207.88	2813.9	
208.09	4996.4	
208.3	4891.9	
208.52	3026.2	
208.73	3301.3	
208.94	4851.6	
209.15	5386.8	
209.37	3272	
209.58	3708.9	
209.79	5271.5	
210.01	4666	
210.22	2682.2	
210.43	2781.1	
210.65	4841.4	
210.86	5120.6	
211.07	3291.8	
211.29	3001.6	
211.5	5058.5	
211.71	4777.9	
211.93	3041.9	
212.14	3006.4	
212.35	4812	
212.56	4919.2	
212.78	3410.6	
212.99	2887.6	
213.2	5571.2	
213.42	4674.8	
213.63	3127.2	
213.84	3246	
214.06	4371.7	
214.27	4431.8	
214.48	3239.2	
214.69	3454.2	
214.91	5436.7	
215.12	5363.6	
215.33	3439.9	
215.55	3726.6	
215.76	5812.8	
215.97	5079	
216.18	3315	
216.4	3304.7	
216.61	4585.4	
216.82	5158.8	
217.04	3040.6	
217.25	3149.1	
217.46	5324	
217.67	5182.7	
217.89	2783.2	
218.1	2818.7	
218.31	4851	
218.53	5018.2	
218.74	3213.9	
218.95	3093.1	
219.16	4849.6	
219.38	5510.4	
219.59	3080.1	
219.8	3663.8	
220.01	6004.6	
220.23	4822.3	
220.44	3930.1	
220.65	2984.6	
220.87	4888.5	
221.08	5363.6	
221.29	2859.6	
221.5	3631	
221.72	6339.8	
221.93	4619.5	
222.14	3412.6	
222.35	4024.3	
222.57	4819.6	
222.78	5160.9	
222.99	3291.1	
223.2	3438.5	
223.42	5100.1	
223.63	5118.6	
223.84	2585.9	
224.05	2572.2	
224.27	5922.7	
224.48	5561.6	
224.69	4000.4	
224.9	3457.7	
225.12	5025.7	
225.33	4726	
225.54	2776.4	
225.75	3085.6	
225.97	4504.8	
226.18	4775.2	
226.39	3261.7	
226.6	3035.8	
226.82	4698	
227.03	4560.8	
227.24	3396.9	
227.45	2878.1	
227.67	5102.2	
227.88	5558.2	
228.09	3773	
228.3	3723.9	
228.52	5126.7	
228.73	4802.5	
228.94	3170.3	
229.15	2924.5	
229.36	4803.9	
229.58	4804.5	
229.79	3209.2	
230	3676.8	
230.21	5652.4	
230.43	4833.9	
230.64	3360	
230.85	3499.3	
231.06	5189.6	
231.28	5169.8	
231.49	2892.4	
231.7	3375.1	
231.91	5151.3	
232.12	4835.9	
232.34	3002.3	
232.55	3278.8	
232.76	5321.3	
232.97	4952.7	
233.18	3016.7	
233.4	3350.5	
233.61	4993.6	
233.82	4773.8	
234.03	3160.7	
234.25	3095.8	
234.46	6459.3	
234.67	4885.8	
234.88	3470.6	
235.09	3107.5	
235.31	5056.4	
235.52	4696.7	
235.73	3363.4	
235.94	2887	
236.15	4654.4	
236.37	5698.8	
236.58	3005.7	
236.79	3304.1	
237	5074.2	
237.21	4429.8	
237.43	3499.3	
237.64	2763.4	
237.85	8097	
238.06	4498.7	
238.27	3465.2	
238.48	2913.6	
238.7	5119.2	
238.91	4709	
239.12	3256.3	
239.33	3341.6	
239.54	4509.6	
239.76	4747.2	
239.97	3295.9	
240.18	3300.6	
240.39	5814.2	
240.6	4970.4	
240.82	3433.8	
241.03	2868.5	
241.24	4822.3	
241.45	5450.3	
241.66	3009.1	
241.87	3551.2	
242.09	5426.4	
242.3	5664.7	
242.51	3543.7	
242.72	3282.2	
242.93	5132.2	
243.14	4789.5	
243.36	3738.2	
243.57	4021.5	
243.78	5499.5	
243.99	5109	
244.2	3250.1	
244.41	3026.9	
244.63	4489.1	
244.84	5001.1	
245.05	3467.2	
245.26	3265.8	
245.47	5095.3	
245.68	5190.9	
245.9	4204.5	
246.11	3451.5	
246.32	4671.4	
246.53	5063.3	
246.74	5178.6	
246.95	2822.1	
247.16	4525.3	
247.38	4849.6	
247.59	2818	
247.8	3304.7	
248.01	4588.1	
248.22	4785.4	
248.43	3001.6	
248.64	3238.5	
248.86	4398.4	
249.07	4678.2	
249.28	2949.1	
249.49	3370.3	
249.7	5257.1	
249.91	5315.8	
250.12	2805.7	
250.34	2831	
250.55	4944.5	
250.76	4883.7	
250.97	3378.5	
251.18	3377.1	
251.39	5279	
251.6	4927.4	
251.81	3417.4	
252.03	3465.8	
252.24	4646.2	
252.45	5206.6	
252.66	2894.5	
252.87	3562.1	
253.08	4841.4	
253.29	6080.4	
253.5	2926.5	
253.72	4012	
253.93	4774.5	
254.14	5597.1	
254.35	3111.5	
254.56	3205.1	
254.77	5019.6	
254.98	4586.8	
255.19	3128.6	
255.41	3852.2	
255.62	4960.9	
255.83	5332.9	
256.04	3504.8	
256.25	3414	
256.46	5835.3	
256.67	4605.2	
256.88	3423.5	
257.09	3697.9	
257.31	4487.8	
257.52	4564.2	
257.73	4171.7	
257.94	3130	
258.15	4764.3	
258.36	4827.1	
258.57	3833.1	
258.78	2522.4	
258.99	5287.9	
259.2	4730.8	
259.41	3129.3	
259.63	3250.1	
259.84	5530.2	
260.05	5795.1	
260.26	4057	
260.47	3074.7	
260.68	5239.4	
260.89	4763.6	
261.1	3757.3	
261.31	3016	
261.52	5373.2	
261.73	5592.3	
261.95	3979.2	
262.16	3458.3	
262.37	5367.7	
262.58	5425.8	
262.79	4011.3	
263	3178.4	
263.21	4866.7	
263.42	4693.3	
263.63	3480.9	
263.84	3196.9	
264.05	5197.7	
264.26	5538.4	
264.47	3876.8	
264.69	3490.4	
264.9	5410.1	
265.11	4946.5	
265.32	3106.1	
265.53	3131.3	
265.74	4944.5	
265.95	4380.6	
266.16	3293.1	
266.37	3635.8	
266.58	4984.1	
266.79	4645.5	
267	3149.8	
267.21	2890.4	
267.42	4487.8	
267.63	4816.1	
267.84	3265.1	
268.06	2887	
268.27	5223	
268.48	5352.7	
268.69	3191.4	
268.9	3758.7	
269.11	5359.5	
269.32	4371	
269.53	3272	
269.74	3040.6	
269.95	5012.1	
270.16	4322.6	
270.37	3340.9	
270.58	3725.9	
270.79	4728.1	
271	5194.3	
271.21	3434.4	
271.42	3377.8	
271.63	5005.2	
271.84	4474.1	
272.05	2702.6	
272.26	2980.5	
272.47	4818.9	
272.68	4992.9	
272.89	3239.9	
273.11	3618.8	
273.32	4631.8	
273.53	5541.1	
273.74	3508.9	
273.95	3392.8	
274.16	5225.1	
274.37	4890.5	
274.58	3611.3	
274.79	2913.6	
275	4961.5	
275.21	5282.4	
275.42	4236.6	
275.63	3653.6	
275.84	5119.2	
276.05	6164.4	
276.26	3473.4	
276.47	3235.8	
276.68	4726.7	
276.89	5608	
277.1	3681.6	
277.31	2922.5	
277.52	5022.3	
277.73	5248.9	
277.94	2927.2	
278.15	3194.8	
278.36	5056.4	
278.57	4589.5	
278.78	3175.7	
278.99	3504.1	
279.2	4636.6	
279.41	4552	
279.62	4046.8	
279.83	2964.8	
280.04	5784.8	
280.25	4532.2	
280.46	4057.7	
280.67	3312.2	
280.88	4605.2	
281.09	5295.4	
281.3	3452.9	
281.51	4195.6	
281.72	4628.4	
281.93	5246.2	
282.14	3074.7	
282.35	3359.4	
282.56	5182.7	
282.77	5227.1	
282.98	3158.7	
283.19	3855.6	
283.4	6185.5	
283.61	4782	
283.82	3013.9	
284.03	3973.1	
284.24	4975.9	
284.45	5248.9	
284.66	4014.7	
284.87	3831.7	
285.08	5266	
285.29	5356.8	
285.5	2841.2	
285.71	3254.2	
285.92	5281	
286.12	5831.2	
286.33	3976.5	
286.54	3205.1	
286.75	5184.1	
286.96	4742.4	
287.17	3024.2	
287.38	3883.6	
287.59	4580.6	
287.8	4541	
288.01	3225.6	
288.22	3672.7	
288.43	5114.5	
288.64	4422.2	
288.85	3745.7	
289.06	3601.7	
289.27	5403.9	
289.48	5479	
289.69	4067.9	
289.9	3650.8	
290.11	5372.5	
290.32	4657.8	
290.53	3826.3	
290.74	3530.7	
290.94	5161.6	
291.15	5219.6	
291.36	3097.2	
291.57	3589.4	
291.78	4678.9	
291.99	4399	
292.2	3015.3	
292.41	3516.4	
292.62	5250.3	
292.83	5088.5	
293.04	4295.3	
293.25	3034.4	
293.46	4725.3	
293.67	5286.5	
293.88	3063.1	
294.09	2998.9	
294.29	4511	
294.5	5023.7	
294.71	3329.3	
294.92	3188	
295.13	4633.2	
295.34	5725.4	
295.55	2839.2	
295.76	2797.5	
295.97	5235.3	
296.18	5695.4	
296.39	2949.8	
296.6	3119.7	
296.81	4902.8	
297.01	5148.6	
297.22	3209.8	
297.43	3121.1	
297.64	4635.9	
297.85	4539.7	
298.06	2664.4	
298.27	2814.6	
298.48	4785.4	
298.69	4605.2	
298.9	3351.2	
299.11	3041.2	
299.31	4494.6	
299.52	4520.5	
299.73	3624.9	
299.94	3461.1	
300.15	4904.9	
300.36	4579.3	
300.57	3480.9	
300.78	3489.7	
300.99	4723.3	
301.2	4900.8	
301.4	3127.2	
301.61	3345.7	
301.82	5128.1	
302.03	5210	
302.24	3663.1	
302.45	2959.3	
302.66	5044.1	
302.87	5383.4	
303.08	3158.7	
303.29	4165.6	
303.49	4730.8	
303.7	4820.2	
303.91	2815.3	
304.12	3946.4	
304.33	4418.2	
304.54	4944.5	
304.75	3130.7	
304.96	3001	
305.16	5065.3	
305.37	5690.6	
305.58	2777	
305.79	2852.8	
306	5114.5	
306.21	4368.3	
306.42	3119.7	
306.63	4586.1	
306.83	4713.1	
307.04	5193.6	
307.25	3398.9	
307.46	3328.6	
307.67	4314.4	
307.88	5162.2	
308.09	3041.9	
308.29	3154.6	
308.5	4916.5	
308.71	5246.2	
308.92	3332.7	
309.13	3011.2	
309.34	4826.4	
309.55	4737	
309.75	3838.6	
309.96	3441.3	
310.17	5212.8	
310.38	4621.6	
310.59	3609.9	
310.8	2951.1	
311.01	4713.7	
311.21	4762.9	
311.42	3007.1	
311.63	3070.6	
311.84	4638.6	
312.05	4946.5	
312.26	3430.3	
312.46	3676.1	
312.67	4695.3	
312.88	4444.8	
313.09	3010.5	
313.3	2984.6	
313.51	5439.4	
313.71	5738.4	
313.92	3040.6	
314.13	3144.3	
314.34	5010.7	
314.55	4787.5	
314.76	3706.1	
314.96	3338.2	
315.17	4922	
315.38	5113.8	
315.59	3041.2	
315.8	2880.1	
316.01	5414.1	
316.21	5580.7	
316.42	2910.8	
316.63	3330.7	
316.84	4789.5	
317.05	5344.5	
317.26	3501.3	
317.46	3219.4	
317.67	4872.8	
317.88	5145.2	
318.09	3700.7	
318.3	2818.7	
318.5	4687.1	
318.71	5073.5	
318.92	4698.7	
319.13	3497.9	
319.34	5197.1	
319.54	5322.7	
319.75	2856.2	
319.96	2727.9	
320.17	5156.8	
320.38	5304.9	
320.58	2755.9	
320.79	3317	
321	5372.5	
321.21	5335.6	
321.42	3331.4	
321.62	2768.9	
321.83	4599.1	
322.04	4880.3	
322.25	3173.7	
322.46	3036.5	
322.66	4938.3	
322.87	5117.9	
323.08	3633.8	
323.29	2970.9	
323.5	5662	
323.7	4444.8	
323.91	3988.1	
324.12	3605.8	
324.33	4982	
324.53	5128.8	
324.74	3468.6	
324.95	3637.9	
325.16	4395.6	
325.37	4726.7	
325.57	3035.1	
325.78	3069.9	
325.99	4921.3	
326.2	4392.2	
326.4	4263.9	
326.61	2836.4	
326.82	4765.6	
327.03	4912.4	
327.24	4179.9	
327.44	3936.9	
327.65	5097.4	
327.86	4192.2	
328.07	3461.1	
328.27	2957.3	
328.48	5368.4	
328.69	4517.1	
328.9	4160.1	
329.1	3206.4	
329.31	4809.3	
329.52	5450.3	
329.73	3039.2	
329.93	3280.8	
330.14	4869.4	
330.35	5003.9	
330.56	4778.6	
330.76	3674.7	
330.97	4750.6	
331.18	4948.6	
331.39	3327.3	
331.59	2801.6	
331.8	5328.1	
332.01	5424.4	
332.22	3132.7	
332.42	3510.2	
332.63	4911	
332.84	4607.9	
333.05	3349.1	
333.25	3064.4	
333.46	4667.3	
333.67	4831.2	
333.88	3158	
334.08	3400.3	
334.29	6270.2	
334.5	5281	
334.7	2954.5	
334.91	4158.7	
335.12	4455	
335.33	5088.5	
335.53	3290.4	
335.74	4762.9	
335.95	4718.5	
336.16	4491.2	
336.36	3250.8	
336.57	3752.6	
336.78	4446.8	
336.98	5312.4	
337.19	4033.8	
337.4	3227.6	
337.61	5754.1	
337.81	4459.8	
338.02	3085.6	
338.23	3880.9	
338.43	5471.5	
338.64	4567	
338.85	3056.9	
339.05	3911.6	
339.26	5495.4	
339.47	4390.8	
339.68	3034.4	
339.88	4298	
340.09	5104.9	
340.3	5238	
340.5	3508.2	
340.71	2757.9	
340.92	4465.9	
341.13	5403.2	
341.33	2923.1	
341.54	3502	
341.75	5049.6	
341.95	4717.2	
342.16	3327.3	
342.37	3631.7	
342.57	4520.5	
342.78	4786.1	
342.99	3660.4	
343.19	2749.1	
343.4	5167.7	
343.61	5041.4	
343.81	3246	
344.02	2915.6	
344.23	5152	
344.43	5451	
344.64	3648.8	
344.85	3636.5	
345.06	5039.4	
345.26	5345.9	
345.47	3508.9	
345.68	4026.3	
345.88	4425.7	
346.09	5264	
346.3	3493.2	
346.5	2730.6	
346.71	4824.3	
346.92	4668.7	
347.12	2846.7	
347.33	3377.1	
347.54	5208	
347.74	5510.4	
347.95	3424.2	
348.16	2640.5	
348.36	4728.1	
348.57	4536.3	
348.78	3435.1	
348.98	3675.4	
349.19	4789.5	
349.39	4429.1	
349.6	2842.6	
349.81	3066.5	
350.01	5061.9	
350.22	4571.7	
350.43	3338.9	
350.63	3904.8	
350.84	4873.5	
351.05	4628.4	
351.25	3043.3	
351.46	2785.9	
351.67	5189.6	
351.87	4543.8	
352.08	3291.8	
352.29	3634.5	
352.49	5206.6	
352.7	5246.9	
352.9	2941.6	
353.11	3581.9	
353.32	5688.6	
353.52	4653.7	
353.73	2955.9	
353.94	3687.7	
354.14	5043.5	
354.35	4902.2	
354.55	3018	
354.76	3300.6	
354.97	4986.1	
355.17	4867.3	
355.38	2902	
355.59	3829	
355.79	4549.9	
356	4806.6	
356.2	3359.4	
356.41	2914.9	
356.62	4411.3	
356.82	4789.5	
357.03	3515.7	
357.24	3176.4	
357.44	4557.4	
357.65	4734.9	
357.85	4168.3	
358.06	3369.6	
358.27	4397.7	
358.47	4547.2	
358.68	2877.4	
358.88	3501.3	
359.09	4992.3	
359.3	5262.6	
359.5	4029	
359.71	3643.3	
359.91	5593.7	
360.12	5100.1	
360.33	3493.2	
360.53	3917.1	
360.74	4603.2	
360.94	4681	
361.15	3674.1	
361.36	3109.5	
361.56	5204.6	
361.77	4773.1	
361.97	4073.4	
362.18	3250.1	
362.38	5242.8	
362.59	4488.5	
362.8	3014.6	
363	2905.4	
363.21	4367.6	
363.41	4871.4	
363.62	3398.3	
363.83	4151.9	
364.03	5004.6	
364.24	5611.4	
364.44	4297.3	
364.65	4232.5	
364.85	4737	
365.06	4529.4	
365.27	3153.2	
365.47	3225.6	
365.68	5484.5	
365.88	4747.2	
366.09	3462.4	
366.29	3287	
366.5	4926.7	
366.71	5244.2	
366.91	4182.6	
367.12	3578.5	
367.32	5769.1	
367.53	5144.5	
367.73	3574.4	
367.94	4363.5	
368.14	5197.1	
368.35	5756.8	
368.56	3582.6	
368.76	3394.2	
368.97	5242.8	
369.17	6408.1	
369.38	3131.3	
369.58	3405.1	
369.79	4461.8	
369.99	5504.3	
370.2	4166.3	
370.4	3478.8	
370.61	5027.8	
370.82	5861.3	
371.02	3409.2	
371.23	2879.4	
371.43	4442	
371.64	5436	
371.84	3409.2	
372.05	4286.4	
372.25	6417.7	
372.46	5154.1	
372.66	3392.1	
372.87	3407.1	
373.07	5208.7	
373.28	6512.5	
373.48	4149.2	
373.69	3981.3	
373.9	4879.6	
374.1	4809.3	
374.31	4156	
374.51	3753.9	
374.72	5414.1	
374.92	4629.8	
375.13	4205.8	
375.33	3639.2	
375.54	5112.4	
375.74	4734.2	
375.95	3721.8	
376.15	4631.1	
376.36	5181.4	
376.56	5017.5	
376.77	3735.5	
376.97	4042	
377.18	5957.5	
377.38	5257.1	
377.59	4270.7	
377.79	3356.6	
378	5058.5	
378.2	5298.1	
378.41	3426.3	
378.61	3319.8	
378.82	5413.5	
379.02	4805.9	
379.23	3590.8	
379.43	4340.3	
379.64	5618.3	
379.84	5168.4	
380.05	3410.6	
380.25	3372.3	
380.46	5231.2	
380.66	4985.4	
380.87	4465.9	
381.07	4691.2	
381.28	5751.4	
381.48	5232.6	
381.69	3379.8	
381.89	3513.6	
382.1	4471.4	
382.3	5362.3	
382.51	4248.2	
382.71	4986.8	
382.91	5273.5	
383.12	5630.5	
383.32	3682.9	
383.53	3878.2	
383.73	5137.7	
383.94	5042.8	
384.14	3890.5	
384.35	3186	
384.55	4898.7	
384.76	5286.5	
384.96	3723.2	
385.17	3981.3	
385.37	5307	
385.58	4712.4	
385.78	3960.1	
385.98	3095.8	
386.19	4908.3	
386.39	5178.6	
386.6	3491.8	
386.8	3708.2	
387.01	5281	
387.21	5283.8	
387.42	3979.2	
387.62	4379.9	
387.83	4805.9	
388.03	5139.7	
388.23	3763.5	
388.44	4380.6	
388.64	4491.9	
388.85	4616.8	
389.05	4010.6	
389.26	4395.6	
389.46	6158.2	
389.67	5650.3	
389.87	3973.7	
390.07	4013.3	
390.28	4986.8	
390.48	4709	
390.69	3450.8	
390.89	3649.5	
391.1	4853	
391.3	5530.9	
391.5	4525.3	
391.71	5006.6	
391.91	5400.5	
392.12	5971.2	
392.32	4590.9	
392.53	4002.4	
392.73	4912.4	
392.93	5062.6	
393.14	3741	
393.34	4589.5	
393.55	5380.7	
393.75	5031.2	
393.95	3823.6	
394.16	3684.3	
394.36	4894	
394.57	5404.6	
394.77	3386	
394.98	3661.8	
395.18	4880.3	
395.38	4949.9	
395.59	4343.1	
395.79	3550.5	
396	4977.2	
396.2	5255.1	
396.4	4137.6	
396.61	4148.5	
396.81	5386.2	
397.02	4876.2	
397.22	4399.7	
397.42	4444.8	
397.63	5434.6	
397.83	4851	
398.04	3500.7	
398.24	3938.9	
398.44	5220.3	
398.65	4592.2	
398.85	3448.8	
399.05	3485.6	
399.26	4853	
399.46	6158.2	
399.67	3820.8	
399.87	3646.1	
400.07	5113.1	
400.28	5339.7	
400.48	3604.4	
400.69	4417.5	
400.89	5479	
401.09	5876.3	
401.3	3542.3	
401.5	4479.6	
401.7	6046.3	
401.91	6268.8	
402.11	3896.6	
402.32	4026.3	
402.52	5648.3	
402.72	5528.8	
402.93	4254.3	
403.13	3324.5	
403.33	6161	
403.54	5184.1	
403.74	4008.6	
403.94	4617.5	
404.15	5244.2	
404.35	6156.9	
404.56	3796.9	
404.76	5171.1	
404.96	5545.9	
405.17	5359.5	
405.37	4420.9	
405.57	4188.8	
405.78	5563	
405.98	5141.8	
406.18	3776.5	
406.39	4539	
406.59	5543.2	
406.79	5223	
407	3657	
407.2	3768.9	
407.4	5655.8	
407.61	5747.3	
407.81	3734.1	
408.01	5440.1	
408.22	4753.3	
408.42	6221	
408.62	4493.9	
408.83	4108.2	
409.03	5221.6	
409.23	5111.7	
409.44	4183.3	
409.64	4318.5	
409.84	5948	
410.05	5947.3	
410.25	4319.2	
410.45	4198.3	
410.66	5524.1	
410.86	7399.3	
411.06	4479.6	
411.27	4356.7	
411.47	7163.1	
411.67	5642.8	
411.88	4511	
412.08	4681	
412.28	6139.1	
412.49	6494.1	
412.69	4362.9	
412.89	4369	
413.09	6390.3	
413.3	6318.7	
413.5	4502.8	
413.7	4213.4	
413.91	5804.6	
414.11	6429.3	
414.31	4412	
414.52	4672.1	
414.72	6139.1	
414.92	6083.1	
415.12	4350.6	
415.33	4758.8	
415.53	6399.2	
415.73	6472.3	
415.94	5109.7	
416.14	4630.5	
416.34	5666	
416.55	5503.6	
416.75	5483.1	
416.95	5120.6	
417.15	6423.1	
417.36	6918.7	
417.56	5743.2	
417.76	4937	
417.97	6640.2	
418.17	6426.5	
418.37	4737	
418.57	4674.8	
418.78	6320.7	
418.98	6057.9	
419.18	5429.2	
419.38	5388.2	
419.59	6034	
419.79	5806	
419.99	4585.4	
420.2	4912.4	
420.4	6470.2	
420.6	6544.6	
420.8	4575.8	
421.01	4420.9	
421.21	6354.2	
421.41	6445	
421.61	4866	
421.82	4677.6	
422.02	6006	
422.22	6766.5	
422.42	5162.9	
422.63	5006.6	
422.83	6098.9	
423.03	6910.5	
423.23	4958.1	
423.44	4258.4	
423.64	6075.6	
423.84	5881.8	
424.04	4656.4	
424.25	4304.8	
424.45	6761	
424.65	6781.5	
424.85	4220.2	
425.06	4673.5	
425.26	6883.9	
425.46	5955.5	
425.66	4934.9	
425.87	4730.8	
426.07	6601.3	
426.27	6433.4	
426.47	4867.3	
426.67	4376.5	
426.88	6893.5	
427.08	6462	
427.28	5040.1	
427.48	4313	
427.69	5618.3	
427.89	6069.5	
428.09	4987.5	
428.29	4359.4	
428.5	6627.2	
428.7	6356.9	
428.9	4245.4	
429.1	4681.7	
429.3	6278.4	
429.51	6436.8	
429.71	4544.4	
429.91	5168.4	
430.11	6466.1	
430.31	6703	
430.52	4728.1	
430.72	4969.7	
430.92	6877.8	
431.12	6469.5	
431.32	4454.3	
431.53	4914.4	
431.73	5719.3	
431.93	6880.5	
432.13	4446.8	
432.33	4326.7	
432.54	6001.9	
432.74	6222.4	
432.94	4322.6	
433.14	5159.5	
433.34	6572.6	
433.55	6147.3	
433.75	5074.9	
433.95	6457.2	
434.15	6339.8	
434.35	6087.9	
434.56	4484.4	
434.76	4133.5	
434.96	6279.8	
435.16	6503.7	
435.36	4366.3	
435.56	5374.6	
435.77	6092	
435.97	6221	
436.17	5771.9	
436.37	5281	
436.57	6092	
436.78	5981.4	
436.98	5180	
437.18	5720	
437.38	6491.4	
437.58	6105	
437.78	5786.9	
437.99	4805.2	
438.19	6579.4	
438.39	7308.5	
438.59	4755.4	
438.79	4339.6	
438.99	7090.1	
439.2	6180.8	
439.4	4360.8	
439.6	4350.6	
439.8	6340.5	
440	7209.5	
440.2	5240.1	
440.4	5237.3	
440.61	6704.4	
440.81	7077.8	
441.01	4603.8	
441.21	5340.4	
441.41	6992.4	
441.61	6735.8	
441.81	5473.5	
442.02	6249.7	
442.22	7425.3	
442.42	6873.7	
442.62	4689.2	
442.82	4728.8	
443.02	7180.9	
443.22	6468.2	
443.43	5055.8	
443.63	4722.6	
443.83	6307.1	
444.03	6234	
444.23	5636.7	
444.43	5309	
444.63	6573.3	
444.83	7534.5	
445.04	4904.2	
445.24	5753.4	
445.44	6861.4	
445.64	6888	
445.84	5409.4	
446.04	5477.6	
446.24	6357.6	
446.44	7150.8	
446.65	4845.5	
446.85	5061.2	
447.05	6664.1	
447.25	7085.3	
447.45	5203.9	
447.65	4605.9	
447.85	6670.9	
448.05	6252.4	
448.25	5494.7	
448.46	5296.7	
448.66	6711.9	
448.86	6347.3	
449.06	4579.9	
449.26	5418.2	
449.46	6874.3	
449.66	6193.1	
449.86	5125.4	
450.06	5075.5	
450.26	6337.1	
450.47	6754.2	
450.67	5322.7	
450.87	5555.5	
451.07	6935.8	
451.27	6688.7	
451.47	4786.1	
451.67	5218.9	
451.87	6456.6	
452.07	7279.8	
452.27	4928.1	
452.47	4973.8	
452.67	6711.2	
452.88	7008.1	
453.08	4515.1	
453.28	6058.6	
453.48	7699.7	
453.68	6596.5	
453.88	4892.6	
454.08	5095.3	
454.28	6882.5	
454.48	6652.5	
454.68	5553.4	
454.88	5895.4	
455.08	7106.5	
455.28	6896.9	
455.48	4863.9	
455.68	5398.4	
455.89	7474.4	
456.09	7103	
456.29	5102.9	
456.49	5206.6	
456.69	7355.6	
456.89	6749.4	
457.09	5567.7	
457.29	5823.7	
457.49	7060.7	
457.69	7169.9	
457.89	5522	
458.09	4975.2	
458.29	6890.7	
458.49	7486	
458.69	5781.4	
458.89	5301.5	
459.09	7558.4	
459.29	7760.4	
459.49	5480.4	
459.69	6128.9	
459.9	7314	
460.1	6955.6	
460.3	5378.6	
460.5	5227.8	
460.7	7341.3	
460.9	6905.8	
461.1	4977.2	
461.3	5939.8	
461.5	7772	
461.7	7409.6	
461.9	5313.1	
462.1	5718.6	
462.3	7083.2	
462.5	7550.2	
462.7	5403.2	
462.9	5433.9	
463.1	8400.1	
463.3	8090.2	
463.5	5593	
463.7	6272.9	
463.9	7332.4	
464.1	7598	
464.3	5765.7	
464.5	5967.1	
464.7	7830.7	
464.9	7591.8	
465.1	6927.6	
465.3	6299.6	
465.5	8017.1	
465.7	8057.4	
465.9	6460	
466.1	6195.1	
466.3	7890.8	
466.5	7799.3	
466.7	6941.2	
466.9	6136.4	
467.1	7969.3	
467.3	8541.4	
467.5	6923.5	
467.7	6164.4	
467.9	8745.5	
468.1	9270.5	
468.3	6668.2	
468.5	7036.1	
468.7	7830.1	
468.9	7854.6	
469.1	6308.4	
469.3	6851.1	
469.5	9411.1	
469.7	7534.5	
469.9	6731	
470.1	6178	
470.3	7968.6	
470.5	7955	
470.7	7202.7	
470.9	6289.3	
471.1	7671.7	
471.3	8148.9	
471.5	6114.6	
471.69	7593.9	
471.89	7673.1	
472.09	7243	
472.29	6800.6	
472.49	7033.4	
472.69	7497.6	
472.89	8127.7	
473.09	6077	
473.29	6215.6	
473.49	7669	
473.69	7620.5	
473.89	6952.9	
474.09	6300.2	
474.29	8703.9	
474.49	8360.5	
474.69	6906.4	
474.89	6311.8	
475.09	7823.2	
475.29	7637.6	
475.49	5961.6	
475.69	6204.7	
475.88	8936.7	
476.08	8072.4	
476.28	5907.7	
476.48	6246.3	
476.68	8310	
476.88	8128.4	
477.08	6121.4	
477.28	6343.2	
477.48	7761.1	
477.68	8264.2	
477.88	6022.4	
478.08	6244.3	
478.28	8533.2	
478.48	7841	
478.67	6263.4	
478.87	5793.7	
479.07	8335.2	
479.27	7919.5	
479.47	6424.5	
479.67	6491.4	
479.87	8298.4	
480.07	8669.1	
480.27	5952.8	
480.47	7040.9	
480.67	8014.4	
480.87	8415.1	
481.06	6208.1	
481.26	6759	
481.46	8036.9	
481.66	7856	
481.86	6583.5	
482.06	7309.2	
482.26	7723.6	
482.46	8538	
482.66	6465.4	
482.86	6118.6	
483.05	8149.6	
483.25	7597.3	
483.45	8405.5	
483.65	6397.2	
483.85	7662.8	
484.05	7915.4	
484.25	6890.7	
484.45	7187	
484.65	8581.7	
484.84	8656.8	
485.04	6419.7	
485.24	6539.2	
485.44	8845.9	
485.64	7593.2	
485.84	5956.9	
486.04	7046.4	
486.24	7910.6	
486.44	8157.1	
486.63	5857.9	
486.83	6609.5	
487.03	7905.2	
487.23	8061.5	
487.43	6088.6	
487.63	7858.1	
487.83	8088.1	
488.02	8663.6	
488.22	6709.8	
488.42	7319.4	
488.62	8753	
488.82	7858.7	
489.02	6533	
489.22	6601.3	
489.41	8762.6	
489.61	8487.5	
489.81	6309.1	
490.01	6447	
490.21	8616.5	
490.41	9156.5	
490.61	6341.9	
490.8	6473.6	
491	8346.8	
491.2	7861.5	
491.4	7018.4	
491.6	6310.5	
491.8	8386.4	
491.99	8420.6	
492.19	6144.6	
492.39	6477	
492.59	8591.9	
492.79	8671.1	
492.99	6974	
493.18	6344.6	
493.38	8764.6	
493.58	9299.8	
493.78	6994.5	
493.98	6602.7	
494.18	8561.2	
494.37	8208.9	
494.57	7250.5	
494.77	7066.2	
494.97	8765.3	
495.17	8966.7	
495.37	6761	
495.56	7078.5	
495.76	9127.8	
495.96	8901.8	
496.16	7859.4	
496.36	7062.8	
496.55	9197.4	
496.75	8754.4	
496.95	7457.3	
497.15	7268.2	
497.35	9180.4	
497.54	9123.7	
497.74	7118.7	
497.94	8575.5	
498.14	9625.5	
498.34	9463.7	
498.53	6955.6	
498.73	7473.7	
498.93	8611	
499.13	9065.7	
499.33	7421.2	
499.52	7806.9	
499.72	9176.9	
499.92	9314.8	
500.12	7134.4	
500.32	7391.8	
500.51	9379	
500.71	9168.8	
500.91	8118.1	
501.11	7703.1	
501.31	9370.1	
501.5	9771.5	
501.7	8280.6	
501.9	7504.4	
502.1	9301.2	
502.29	9493	
502.49	7851.9	
502.69	8178.2	
502.89	9365.4	
503.09	9294.4	
503.28	7053.2	
503.48	7240.9	
503.68	8910.7	
503.88	8880	
504.07	7937.2	
504.27	7484.6	
504.47	9112.1	
504.67	9201.5	
504.86	7857.4	
505.06	7553.6	
505.26	8974.2	
505.46	10164	
505.65	7593.2	
505.85	7726.3	
506.05	8841.8	
506.25	9226.1	
506.44	7006.8	
506.64	7639.6	
506.84	8726.4	
507.04	9478.7	
507.23	7133.1	
507.43	7577.5	
507.63	10154	
507.83	8834.3	
508.02	7587.7	
508.22	7260.7	
508.42	10413	
508.62	8699.8	
508.81	7465.5	
509.01	7860.8	
509.21	8648.6	
509.4	8833.6	
509.6	7585	
509.8	7171.3	
510	8713.4	
510.19	9785.9	
510.39	7067.5	
510.59	7178.8	
510.79	8546.9	
510.98	9756.5	
511.18	7354.3	
511.38	7404.1	
511.57	9356.5	
511.77	9263	
511.97	7886	
512.17	7136.5	
512.36	9322.4	
512.56	9226.1	
512.76	7111.2	
512.95	6909.8	
513.15	9476.6	
513.35	8340.7	
513.55	7802.1	
513.74	7128.3	
513.94	9331.9	
514.14	8756.4	
514.33	7970.7	
514.53	7660.1	
514.73	8913.4	
514.92	9015.8	
515.12	7340.6	
515.32	7181.5	
515.51	9113.5	
515.71	9378.3	
515.91	8541.4	
516.11	7165.2	
516.3	10327	
516.5	8884.1	
516.7	7696.3	
516.89	8120.9	
517.09	8968.1	
517.29	9026.8	
517.48	8064.2	
517.68	7501	
517.88	8618.5	
518.07	9200.8	
518.27	7867.6	
518.47	7189.7	
518.66	9626.1	
518.86	8615.1	
519.06	7023.9	
519.25	7370	
519.45	8815.8	
519.65	9962	
519.84	7933.8	
520.04	8404.9	
520.24	10297	
520.43	9314.8	
520.63	7716.7	
520.83	7559.7	
521.02	8901.8	
521.22	9383.8	
521.42	7903.1	
521.61	8359.1	
521.81	8962.6	
522.01	9018.6	
522.2	7656	
522.4	7481.2	
522.6	9402.9	
522.79	8495	
522.99	7585	
523.18	7032.7	
523.38	9257.5	
523.58	9286.9	
523.77	8578.9	
523.97	7056.6	
524.17	10664	
524.36	10107	
524.56	8407.6	
524.76	7993.9	
524.95	9340.1	
525.15	9134.6	
525.34	7858.1	
525.54	7929.1	
525.74	9688.9	
525.93	8966	
526.13	8974.2	
526.33	7996	
526.52	10102	
526.72	9749	
526.91	8972.2	
527.11	8359.8	
527.31	10122	
527.5	10502	
527.7	8304.5	
527.89	7658	
528.09	9240.4	
528.29	9699.9	
528.48	8599.4	
528.68	8350.9	
528.87	10032	
529.07	10079	
529.27	8439	
529.46	8098.4	
529.66	9985.9	
529.85	10251	
530.05	8049.9	
530.25	8582.4	
530.44	11073	
530.64	9908.1	
530.83	8381	
531.03	8524.3	
531.23	10311	
531.42	10039	
531.62	8961.9	
531.81	8346.8	
532.01	10367	
532.21	10655	
532.4	8346.8	
532.6	8564.6	
532.79	11184	
532.99	10434	
533.18	8652	
533.38	9501.2	
533.58	10205	
533.77	10716	
533.97	8825.4	
534.16	9295.7	
534.36	10990	
534.55	10351	
534.75	9478.7	
534.95	8876.6	
535.14	10927	
535.34	10275	
535.53	8692.3	
535.73	10174	
535.92	11551	
536.12	10428	
536.31	8759.2	
536.51	9672.6	
536.71	10720	
536.9	10314	
537.1	8732.5	
537.29	8924.4	
537.49	10987	
537.68	10283	
537.88	9216.5	
538.07	8551	
538.27	10529	
538.46	11206	
538.66	8545.5	
538.86	8936.7	
539.05	10507	
539.25	10917	
539.44	9220.6	
539.64	8821.3	
539.83	10406	
540.03	11249	
540.22	8806.3	
540.42	8872.5	
540.61	10667	
540.81	10778	
541	9191.3	
541.2	9704.6	
541.39	10249	
541.59	10537	
541.78	9400.2	
541.98	8727.1	
542.18	10036	
542.37	10090	
542.57	9057.5	
542.76	9369.5	
542.96	10177	
543.15	10671	
543.35	9065	
543.54	8559.1	
543.74	10708	
543.93	10482	
544.13	8927.1	
544.32	9778.4	
544.52	10697	
544.71	10074	
544.91	8217.1	
545.1	9260.9	
545.3	10142	
545.49	10583	
545.69	8210.3	
545.88	8652.7	
546.08	11448	
546.27	10991	
546.47	9127.8	
546.66	8488.8	
546.86	10770	
547.05	11115	
547.24	8630.1	
547.44	8551	
547.63	9909.4	
547.83	10792	
548.02	8894.3	
548.22	9017.2	
548.41	9766.1	
548.61	10860	
548.8	8560.5	
549	8553	
549.19	10331	
549.39	10682	
549.58	8296.3	
549.78	8804.9	
549.97	10574	
550.17	10248	
550.36	9352.4	
550.55	10032	
550.75	10060	
550.94	10955	
551.14	8487.5	
551.33	8674.5	
551.53	9617.3	
551.72	10404	
551.92	8669.7	
552.11	8535.9	
552.31	10417	
552.5	10391	
552.69	9818	
552.89	8244.4	
553.08	10442	
553.28	10228	
553.47	8548.9	
553.67	9462.3	
553.86	10895	
554.06	9500.5	
554.25	7884.7	
554.44	8410.3	
554.64	11547	
554.83	11106	
555.03	8255.4	
555.22	8677.2	
555.42	10484	
555.61	10374	
555.8	8482	
556	8627.4	
556.19	9613.2	
556.39	10568	
556.58	8388.5	
556.78	8563.9	
556.97	10241	
557.16	10021	
557.36	9522.4	
557.55	8175.5	
557.75	9431.6	
557.94	10889	
558.13	8396	
558.33	8125	
558.52	10696	
558.72	9716.9	
558.91	8209.6	
559.1	8372.1	
559.3	9596.8	
559.49	9374.9	
559.69	7884.7	
559.88	8684.8	
560.07	10220	
560.27	10527	
560.46	8788.5	
560.66	8958.5	
560.85	10006	
561.04	9387.2	
561.24	8179.6	
561.43	8323.6	
561.63	9601.6	
561.82	9837.8	
562.01	9229.5	
562.21	8497	
562.4	10162	
562.59	10776	
562.79	8437.6	
562.98	8216.5	
563.18	10077	
563.37	11232	
563.56	8798.8	
563.76	8128.4	
563.95	9706.7	
564.14	9757.2	
564.34	8525.7	
564.53	8292.9	
564.73	10256	
564.92	10378	
565.11	8649.3	
565.31	8125.7	
565.5	10578	
565.69	9861	
565.89	8401.5	
566.08	8505.9	
566.27	10552	
566.47	10901	
566.66	9108.7	
566.85	8064.9	
567.05	10243	
567.24	9849.4	
567.44	8387.1	
567.63	9426.8	
567.82	10474	
568.02	10300	
568.21	8361.9	
568.4	8702.5	
568.6	10240	
568.79	10144	
568.98	8174.1	
569.18	8412.4	
569.37	10178	
569.56	11754	
569.76	8705.2	
569.95	9516.2	
570.14	10557	
570.34	10437	
570.53	8381	
570.72	8413.1	
570.91	10933	
571.11	10231	
571.3	8761.9	
571.49	9499.2	
571.69	10364	
571.88	9790	
572.07	9211.1	
572.27	9171.5	
572.46	9852.1	
572.65	10712	
572.85	8645.8	
573.04	8953.7	
573.23	10990	
573.43	10389	
573.62	8457.4	
573.81	8823.3	
574	10501	
574.2	10182	
574.39	8777.6	
574.58	8853.4	
574.78	11078	
574.97	10537	
575.16	9261.6	
575.36	9384.5	
575.55	10910	
575.74	11039	
575.93	8591.9	
576.13	9363.3	
576.32	10548	
576.51	10972	
576.71	9008.3	
576.9	10036	
577.09	11235	
577.28	10804	
577.48	9311.4	
577.67	8673.8	
577.86	10545	
578.05	10891	
578.25	9093.7	
578.44	9096.4	
578.63	10706	
578.83	11540	
579.02	8628.1	
579.21	9904.7	
579.4	10927	
579.6	10673	
579.79	9319.6	
579.98	11040	
580.17	11120	
580.37	11271	
580.56	8848.6	
580.75	9439.1	
580.94	11357	
581.14	11388	
581.33	9833.7	
581.52	8893.6	
581.71	10939	
581.91	11549	
582.1	8795.3	
582.29	9157.8	
582.48	10712	
582.68	10780	
582.87	9562	
583.06	9303.9	
583.25	11075	
583.45	10494	
583.64	9848	
583.83	10305	
584.02	10757	
584.21	11105	
584.41	9770.9	
584.6	9294.4	
584.79	10909	
584.98	11434	
585.18	8982.4	
585.37	8884.1	
585.56	10535	
585.75	11082	
585.94	9004.9	
586.14	9516.9	
586.33	11572	
586.52	10884	
586.71	9455.5	
586.91	9241.8	
587.1	10378	
587.29	11204	
587.48	9091.6	
587.67	9023.4	
587.87	11009	
588.06	10938	
588.25	9996.8	
588.44	9405	
588.63	10628	
588.83	11106	
589.02	9097.8	
589.21	8987.9	
589.4	10606	
589.59	10519	
589.78	8409.6	
589.98	8555.7	
590.17	10038	
590.36	10583	
590.55	8004.8	
590.74	8561.9	
590.94	11277	
591.13	10101	
591.32	8267	
591.51	7888.1	
591.7	10339	
591.89	10074	
592.09	7961.8	
592.28	8290.2	
592.47	9467.1	
592.66	10998	
592.85	8137.9	
593.05	8317.5	
593.24	10072	
593.43	10750	
593.62	8376.9	
593.81	8751.7	
594	10096	
594.19	10146	
594.39	8267.6	
594.58	8143.4	
594.77	10370	
594.96	10781	
595.15	8324.3	
595.34	8757.1	
595.54	10357	
595.73	9675.3	
595.92	7679.9	
596.11	8512.7	
596.3	10645	
596.49	9686.9	
596.68	8310.7	
596.88	8680.7	
597.07	10299	
597.26	9516.2	
597.45	7932.5	
597.64	8935.3	
597.83	9777.7	
598.02	10253	
598.22	7912.7	
598.41	8570.7	
598.6	9968.8	
598.79	9640.5	
598.98	8049.9	
599.17	8832.9	
599.36	10121	
599.55	10933	
599.74	9592	
599.94	9409.1	
600.13	10441	
600.32	9481.4	
600.51	7817.8	
600.7	7947.5	
600.89	10961	
601.08	10900	
601.27	7838.3	
601.47	8531.2	
601.66	10337	
601.85	10859	
602.04	8367.3	
602.23	8498.4	
602.42	9594.1	
602.61	10130	
602.8	8318.8	
602.99	8081.3	
603.18	9867.1	
603.37	10051	
603.57	8525	
603.76	8955.1	
603.95	10575	
604.14	10269	
604.33	8165.9	
604.52	8277.9	
604.71	10161	
604.9	9640.5	
605.09	8824	
605.28	8720.3	
605.47	10565	
605.66	10264	
605.86	8607.6	
606.05	8186.4	
606.24	10531	
606.43	9327.8	
606.62	8420.6	
606.81	8969.4	
607	10393	
607.19	9870.5	
607.38	7937.9	
607.57	8015.7	
607.76	9609.1	
607.95	9146.9	
608.14	8530.5	
608.33	8881.4	
608.52	9634.3	
608.72	10398	
608.91	7823.2	
609.1	7763.8	
609.29	9782.5	
609.48	9303.2	
609.67	8468.4	
609.86	7868.3	
610.05	9381.1	
610.24	9664.4	
610.43	7692.2	
610.62	7462.1	
610.81	10535	
611	10413	
611.19	7852.6	
611.38	8386.4	
611.57	9912.9	
611.76	10817	
611.95	7681.2	
612.14	7542.7	
612.33	9673.2	
612.52	9403.6	
612.71	8015.7	
612.9	7632.8	
613.09	9116.9	
613.28	10787	
613.47	8078.6	
613.66	8641.1	
613.85	9854.1	
614.04	9451.4	
614.24	7968	
614.43	7295.5	
614.62	9981.8	
614.81	9779.7	
615	8297.7	
615.19	8371.4	
615.38	9316.2	
615.57	9658.2	
615.76	8268.3	
615.95	9047.2	
616.14	10143	
616.33	9833.7	
616.52	8512.7	
616.71	8663.6	
616.9	9985.9	
617.09	9889	
617.28	8004.1	
617.47	8957.8	
617.66	9268.4	
617.85	9265.7	
618.04	8751	
618.22	8258.8	
618.41	9501.9	
618.6	10352	
618.79	8367.3	
618.98	8176.2	
619.17	10610	
619.36	9229.5	
619.55	8352.3	
619.74	8264.2	
619.93	9909.4	
620.12	9534.7	
620.31	8714.1	
620.5	8861.6	
620.69	10791	
620.88	10900	
621.07	9505.3	
621.26	8649.9	
621.45	10303	
621.64	10291	
621.83	8882	
622.02	8122.9	
622.21	10325	
622.4	10120	
622.59	9281.4	
622.78	9044.5	
622.97	9794.8	
623.16	10639	
623.35	8807.6	
623.54	8110.6	
623.72	10051	
623.91	10081	
624.1	9035.6	
624.29	8163.2	
624.48	10974	
624.67	10370	
624.86	9002.2	
625.05	8278.6	
625.24	11088	
625.43	9846.6	
625.62	10152	
625.81	8393.9	
626	10606	
626.19	10010	
626.38	8957.1	
626.56	8631.5	
626.75	9899.9	
626.94	10606	
627.13	9074.5	
627.32	8041.7	
627.51	10556	
627.7	11536	
627.89	8162.5	
628.08	9189.2	
628.27	9843.2	
628.46	10056	
628.65	8300.4	
628.83	8062.2	
629.02	10442	
629.21	9772.2	
629.4	8684.8	
629.59	8837	
629.78	9886.9	
629.97	10554	
630.16	8837.7	
630.35	8398	
630.54	10997	
630.72	10781	
630.91	8586.5	
631.1	8946.9	
631.29	10318	
631.48	10314	
631.67	9062.3	
631.86	8481.3	
632.05	10090	
632.24	10101	
632.42	8264.9	
632.61	8740.7	
632.8	10047	
632.99	9841.2	
633.18	8773.5	
633.37	9031.5	
633.56	10253	
633.75	10309	
633.93	8779	
634.12	8527.7	
634.31	10895	
634.5	10597	
634.69	8622.6	
634.88	8947.6	
635.07	10137	
635.25	10590	
635.44	9278	
635.63	9413.1	
635.82	9975	
636.01	9569.5	
636.2	9163.3	
636.39	8895	
636.57	10862	
636.76	10501	
636.95	8401.5	
637.14	9318.9	
637.33	10296	
637.52	10966	
637.7	8253.3	
637.89	9040.4	
638.08	10043	
638.27	11127	
638.46	8957.1	
638.65	9321	
638.83	11123	
639.02	9901.2	
639.21	8923.7	
639.4	9344.2	
639.59	10253	
639.78	9932.6	
639.96	8357.1	
640.15	8404.2	
640.34	10102	
640.53	10227	
640.72	8198.7	
640.91	8320.9	
641.09	9527.8	
641.28	10662	
641.47	8318.2	
641.66	8862.9	
641.85	10150	
642.03	10301	
642.22	8834.9	
642.41	8517.5	
642.6	9721.7	
642.79	9175.6	
642.97	8157.1	
643.16	8785.1	
643.35	9664.4	
643.54	9468.4	
643.73	8157.1	
643.91	8711.4	
644.1	9478	
644.29	9896.5	
644.48	8143.4	
644.67	8170	
644.85	9456.8	
645.04	9851.4	
645.23	7822.6	
645.42	8141.4	
645.6	9382.4	
645.79	10184	
645.98	7897	
646.17	7131	
646.36	9069.8	
646.54	9513.5	
646.73	8484.7	
646.92	7634.8	
647.11	9114.1	
647.29	10036	
647.48	7693.5	
647.67	7418.4	
647.86	10217	
648.05	10140	
648.23	7808.9	
648.42	8856.8	
648.61	9587.9	
648.8	9468.4	
648.98	7591.8	
649.17	7817.8	
649.36	9037.7	
649.55	8739.4	
649.73	7567.2	
649.92	8176.9	
650.11	8952.4	
650.3	9254.8	
650.48	7693.5	
650.67	7587.7	
650.86	9517.6	
651.05	8701.1	
651.23	7660.1	
651.42	7606.8	
651.61	9047.9	
651.79	8981	
651.98	7791.2	
652.17	7415	
652.36	9416.6	
652.54	8660.9	
652.73	7466.2	
652.92	7424.6	
653.11	9358.5	
653.29	9474.6	
653.48	6984.9	
653.67	7649.2	
653.85	9176.3	
654.04	10046	
654.23	7872.4	
654.42	7593.9	
654.6	8719.6	
654.79	9344.9	
654.98	7096.9	
655.16	7457.3	
655.35	8346.2	
655.54	8164.6	
655.73	6946	
655.91	6774.7	
656.1	8931.2	
656.29	8045.1	
656.47	6419.7	
656.66	7826.7	
656.85	8394.6	
657.03	8340	
657.22	6974.7	
657.41	7107.1	
657.59	8591.9	
657.78	8462.9	
657.97	6853.9	
658.16	7441.6	
658.34	9113.5	
658.53	9465.7	
658.72	8013	
658.9	8440.4	
659.09	8724.3	
659.28	8850	
659.46	7188.4	
659.65	7212.9	
659.84	8560.5	
660.02	8985.8	
660.21	7234.1	
660.4	7087.3	
660.58	9376.3	
660.77	8785.8	
660.96	7586.4	
661.14	6885.3	
661.33	9722.4	
661.52	9581.1	
661.7	6819.7	
661.89	9484.1	
662.08	8538	
662.26	8183	
662.45	7035.5	
662.64	7105.8	
662.82	9074.5	
663.01	8514.1	
663.2	7103.7	
663.38	7736.5	
663.57	8917.5	
663.75	8847.2	
663.94	7344.7	
664.13	8294.3	
664.31	8490.9	
664.5	8989.9	
664.69	7549.5	
664.87	7980.3	
665.06	8415.1	
665.25	8784.4	
665.43	8145.5	
665.62	8151.6	
665.8	8985.8	
665.99	8551.6	
666.18	7342	
666.36	7425.9	
666.55	9094.3	
666.74	9005.6	
666.92	7114	
667.11	8269	
667.29	8568	
667.48	8967.4	
667.67	7980.9	
667.85	7197.2	
668.04	8598.7	
668.22	8532.5	
668.41	7342	
668.6	7582.3	
668.78	8399.4	
668.97	8518.9	
669.15	7613.7	
669.34	6753.5	
669.53	8458.8	
669.71	8680	
669.9	6960.4	
670.08	7520.8	
670.27	8376.2	
670.46	8830.2	
670.64	7525.6	
670.83	7811	
671.01	8326.4	
671.2	8746.9	
671.38	7101	
671.57	6907.1	
671.76	9301.9	
671.94	9721.7	
672.13	6892.8	
672.31	7793.9	
672.5	8953.7	
672.69	8432.2	
672.87	7027.3	
673.06	7314.7	
673.24	8899.8	
673.43	8466.3	
673.61	7511.9	
673.8	7202	
673.98	9004.2	
674.17	8940.7	
674.36	7711.3	
674.54	7576.8	
674.73	8710.7	
674.91	8962.6	
675.1	7239.6	
675.28	6992.4	
675.47	8598.7	
675.65	9041.8	
675.84	7321.5	
676.03	7453.2	
676.21	8441	
676.4	7999.4	
676.58	7849.2	
676.77	7614.3	
676.95	9613.2	
677.14	8316.8	
677.32	6920.8	
677.51	6918	
677.69	9057.5	
677.88	8196.7	
678.06	6851.8	
678.25	7004.1	
678.44	8610.3	
678.62	8391.9	
678.81	6793.1	
678.99	7570	
679.18	9242.5	
679.36	8857.5	
679.55	7204.1	
679.73	7599.3	
679.92	8810.4	
680.1	8352.3	
680.29	8099.7	
680.47	7129	
680.66	8418.5	
680.84	9029.5	
681.03	6729.6	
681.21	7509.9	
681.4	8426	
681.58	8281.3	
681.77	7064.1	
681.95	6989.7	
682.14	8983.1	
682.32	9182.4	
682.51	7706.5	
682.69	6814.3	
682.88	8314.8	
683.06	8734.6	
683.25	7467.6	
683.43	7835.5	
683.62	8625.4	
683.8	8892.3	
683.99	7918.8	
684.17	7337.2	
684.36	9511.4	
684.54	8494.3	
684.73	6717.3	
684.91	6946	
685.1	8785.8	
685.28	8190.5	
685.46	7177.4	
685.65	7208.8	
685.83	8587.1	
686.02	8088.1	
686.2	6558.3	
686.39	6655.2	
686.57	7703.8	
686.76	8948.3	
686.94	6598.6	
687.13	6793.1	
687.31	8489.5	
687.5	8137.9	
687.68	6365.1	
687.86	7421.2	
688.05	9467.1	
688.23	7710.6	
688.42	7358.4	
688.6	6809.5	
688.79	8243.8	
688.97	8040.3	
689.16	7103.7	
689.34	6337.8	
689.52	8596	
689.71	8865.7	
689.89	7352.2	
690.08	6785.6	
690.26	8402.8	
690.45	8312.7	
690.63	7546.1	
690.81	7057.3	
691	8342.7	
691.18	8149.6	
691.37	7174.7	
691.55	8709.3	
691.74	8119.5	
691.92	9731.9	
692.1	7108.5	
692.29	6666.1	
692.47	8301.8	
692.66	7799.3	
692.84	6708.5	
693.02	7161.7	
693.21	7934.5	
693.39	8243.8	
693.58	7258	
693.76	6842.9	
693.94	9157.8	
694.13	9020.6	
694.31	6862.1	
694.5	7578.8	
694.68	8121.6	
694.86	8368	
695.05	7207.5	
695.23	7299.6	
695.42	8822	
695.6	10570	
695.78	7744.1	
695.97	7049.8	
696.15	8876.6	
696.34	8481.3	
696.52	6865.5	
696.7	7543.4	
696.89	8662.2	
697.07	8135.2	
697.25	7314.7	
697.44	8559.1	
697.62	8719.6	
697.81	8837	
697.99	7150.1	
698.17	7543.4	
698.36	8078.6	
698.54	8638.3	
698.72	7357.7	
698.91	6641.6	
699.09	8226	
699.28	8035.5	
699.46	7189.1	
699.64	7006.1	
699.83	8098.4	
700.01	8907.3	
700.19	7576.1	
700.38	6396.5	
700.56	9024	
700.74	8193.2	
700.93	6632.7	
701.11	7322.2	
701.29	8487.5	
701.48	9465.7	
701.66	6858	
701.84	6892.1	
702.03	8288.8	
702.21	8839.7	
702.39	6583.5	
702.58	7050.5	
702.76	8647.2	
702.94	8680	
703.13	6602.7	
703.31	8502.5	
703.49	8192.6	
703.68	9321	
703.86	6756.9	
704.04	7485.3	
704.23	8445.8	
704.41	8787.2	
704.59	6864.8	
704.78	7699	
704.96	9404.3	
705.14	8739.4	
705.33	6639.5	
705.51	7309.9	
705.69	8322.3	
705.87	8995.4	
706.06	7518.1	
706.24	6655.9	
706.42	8581	
706.61	8751	
706.79	7441	
706.97	6606.7	
707.16	8158.4	
707.34	8465.6	
707.52	7467.6	
707.7	6804	
707.89	8139.3	
708.07	7893.6	
708.25	7456.7	
708.44	7510.6	
708.62	8131.8	
708.8	8958.5	
708.98	7543.4	
709.17	6810.2	
709.35	8396	
709.53	8404.2	
709.72	6609.5	
709.9	6902.3	
710.08	8630.1	
710.26	8570.1	
710.45	7787.7	
710.63	6766.5	
710.81	8258.1	
710.99	8288.1	
711.18	7232.7	
711.36	6823.1	
711.54	8093.6	
711.72	8606.9	
711.91	6927.6	
712.09	6455.2	
712.27	8198.7	
712.45	9095.7	
712.64	6997.2	
712.82	6262.7	
713	7717.4	
713.18	7854.6	
713.37	6316.6	
713.55	7304.4	
713.73	8516.1	
713.91	7433.4	
714.1	6463.4	
714.28	6041.5	
714.46	8202.8	
714.64	7385.7	
714.83	5470.8	
715.01	6097.5	
715.19	7243	
715.37	6677.7	
715.55	5649	
715.74	5894.1	
715.92	7686	
716.1	6270.2	
716.28	6686.6	
716.47	5877	
716.65	6703	
716.83	6815	
717.01	5679	
717.19	5634	
717.38	8383	
717.56	6483.9	
717.74	5888.6	
717.92	5139.7	
718.1	7421.8	
718.29	6747.4	
718.47	4842.8	
718.65	5352	
718.83	7477.8	
719.01	7301.7	
719.2	4965	
719.38	5917.9	
719.56	7203.4	
719.74	8441	
719.92	5593.7	
720.11	6328.9	
720.29	7465.5	
720.47	6645.7	
720.65	5213.4	
720.83	5812.1	
721.02	6829.3	
721.2	6561	
721.38	5703.6	
721.56	5111.7	
721.74	6128.9	
721.92	6173.3	
722.11	5997.1	
722.29	5791	
722.47	7205.4	
722.65	6540.5	
722.83	5014.1	
723.01	5723.4	
723.2	6554.2	
723.38	6831.3	
723.56	4645.5	
723.74	5474.2	
723.92	6152.8	
724.1	6965.1	
724.29	5043.5	
724.47	5881.8	
724.65	6305.7	
724.83	6131.6	
725.01	4894	
725.19	5537.7	
725.37	6112.5	
725.56	6141.2	
725.74	4705.5	
725.92	4922	
726.1	6189	
726.28	6315.9	
726.46	5227.1	
726.64	5013.4	
726.83	6344.6	
727.01	6493.4	
727.19	4657.8	
727.37	5345.2	
727.55	6437.4	
727.73	6811.5	
727.91	4653.7	
728.09	4545.8	
728.28	6843.6	
728.46	7016.3	
728.64	5356.8	
728.82	5251	
729	7608.2	
729.18	7017	
729.36	4691.2	
729.54	6531	
729.72	7794.6	
729.91	6457.2	
730.09	6244.3	
730.27	5296.7	
730.45	6365.1	
730.63	6863.4	
730.81	5689.3	
730.99	4937.7	
731.17	7328.3	
731.35	6186.2	
731.53	5401.2	
731.71	5079.6	
731.9	7124.2	
732.08	7230	
732.26	5236	
732.44	4973.2	
732.62	7215	
732.8	6854.6	
732.98	5547.3	
733.16	4803.9	
733.34	6829.3	
733.52	5797.8	
733.7	5147.9	
733.88	5339.7	
734.07	6619	
734.25	6402.6	
734.43	4771.1	
734.61	5903.6	
734.79	7572	
734.97	6336.4	
735.15	4805.9	
735.33	5071.5	
735.51	6554.2	
735.69	6315.3	
735.87	5921.4	
736.05	5140.4	
736.23	6411.5	
736.41	6143.9	
736.59	5053	
736.77	5130.2	
736.95	6732.4	
737.13	6182.8	
737.32	4798.4	
737.5	4870.8	
737.68	7165.8	
737.86	6107.7	
738.04	4559.5	
738.22	5981.4	
738.4	5999.9	
738.58	6189.6	
738.76	5038	
738.94	4212.7	
739.12	6087.2	
739.3	5999.9	
739.48	5410.7	
739.66	5166.3	
739.84	6223.8	
740.02	6165.8	
740.2	4276.2	
740.38	4517.1	
740.56	6528.9	
740.74	5580	
740.92	5017.5	
741.1	4917.2	
741.28	6032.6	
741.46	5848.3	
741.64	4601.1	
741.82	5042.8	
742	6068.1	
742.18	5975.3	
742.36	4771.1	
742.54	4446.1	
742.72	6466.8	
742.9	5412.1	
743.08	5010	
743.26	4062.5	
743.44	6573.3	
743.62	6355.5	
743.8	5150.6	
743.98	4427	
744.16	6188.3	
744.34	5868.1	
744.52	4985.4	
744.7	4933.6	
744.88	6295.5	
745.06	5854.5	
745.24	4966.3	
745.42	5094.7	
745.6	6262	
745.78	6125.5	
745.96	4092.5	
746.14	4283	
746.32	6901	
746.5	6205.3	
746.68	4720.6	
746.86	4300.7	
747.03	6543.9	
747.21	5238	
747.39	4687.1	
747.57	4253.6	
747.75	5952.1	
747.93	6142.5	
748.11	4216.1	
748.29	4184	
748.47	7127.6	
748.65	5631.9	
748.83	4830.5	
749.01	4600.4	
749.19	6076.3	
749.37	5328.1	
749.55	4485.7	
749.73	4556.7	
749.91	5791.7	
750.09	5568.4	
750.26	4515.1	
750.44	4083	
750.62	5692.7	
750.8	5711.1	
750.98	3913	
751.16	4193.6	
751.34	5852.4	
751.52	5286.5	
751.7	4851.6	
751.88	3906.2	
752.06	6163	
752.24	5900.9	
752.42	3866.6	
752.59	4100	
752.77	5701.5	
752.95	6631.3	
753.13	4727.4	
753.31	4229.1	
753.49	5397.1	
753.67	5750	
753.85	4483.7	
754.03	4132.1	
754.21	5938.4	
754.38	6227.2	
754.56	4216.1	
754.74	3458.3	
754.92	5285.1	
755.1	5750.7	
755.28	3534.8	
755.46	3513.6	
755.64	6443.6	
755.82	6567.8	
755.99	3720.5	
756.17	3800.3	
756.35	4612.7	
756.53	5809.4	
756.71	2956.6	
756.89	3670.6	
757.07	5401.9	
757.25	4718.5	
757.42	4022.2	
757.6	4669.4	
757.78	5489.2	
757.96	4698	
758.14	3762.8	
758.32	3409.9	
758.5	4347.8	
758.67	5078.3	
758.85	3667.9	
759.03	3751.2	
759.21	5244.2	
759.39	4770.4	
759.57	3299.3	
759.75	4197.7	
759.92	5720.7	
760.1	5177.3	
760.28	4474.8	
760.46	4706.2	
760.64	5021.6	
760.82	4780	
760.99	4206.5	
761.17	3717.1	
761.35	5638.1	
761.53	4739	
761.71	3824.2	
761.89	4393.6	
762.06	5478.3	
762.24	5050.3	
762.42	3941	
762.6	3744.4	
762.78	5059.2	
762.96	5488.6	
763.13	4180.6	
763.31	3942.3	
763.49	5642.2	
763.67	5024.3	
763.85	4554	
764.02	5037.3	
764.2	5907	
764.38	5221	
764.56	3794.9	
764.74	4499.4	
764.91	5929.6	
765.09	5056.4	
765.27	3618.8	
765.45	3406.5	
765.63	6042.9	
765.8	5822.4	
765.98	3270.6	
766.16	3455.6	
766.34	4751.3	
766.52	4597.7	
766.69	4154.6	
766.87	3342.3	
767.05	5072.1	
767.23	5634	
767.41	3588.7	
767.58	3822.9	
767.76	5535	
767.94	5593.7	
768.12	3660.4	
768.29	4233.8	
768.47	5111	
768.65	5662	
768.83	3358	
769	4258.4	
769.18	4797	
769.36	5347.2	
769.54	4233.2	
769.72	3394.2	
769.89	5573.2	
770.07	5645.6	
770.25	3659	
770.43	4646.2	
770.6	6271.6	
770.78	6429.9	
770.96	3773	
771.14	4229.1	
771.31	5568.4	
771.49	5021.6	
771.67	3136.1	
771.85	3310.9	
772.02	4453.6	
772.2	4992.3	
772.38	3951.2	
772.55	3553.9	
772.73	5252.4	
772.91	5003.2	
773.09	3822.2	
773.26	3934.8	
773.44	5257.8	
773.62	4946.5	
773.8	3500	
773.97	3268.6	
774.15	5246.2	
774.33	4991.6	
774.5	3401	
774.68	3623.5	
774.86	5414.8	
775.04	4933.6	
775.21	3476.1	
775.39	3411.9	
775.57	5204.6	
775.74	5471.5	
775.92	3315	
776.1	3245.3	
776.27	5171.1	
776.45	6109.1	
776.63	3478.8	
776.81	3098.6	
776.98	4901.5	
777.16	5684.5	
777.34	3532.7	
777.51	3792.2	
777.69	4911	
777.87	4760.2	
778.04	3620.8	
778.22	4034.5	
778.4	4752	
778.57	5252.4	
778.75	2992.1	
778.93	3285.6	
779.1	4633.2	
779.28	4431.8	
779.46	3046.7	
779.64	3432.4	
779.81	5341.8	
779.99	6028.5	
780.17	3993.5	
780.34	4089.8	
780.52	4945.8	
780.69	5095.3	
780.87	3729.4	
781.05	3330.7	
781.22	4998.4	
781.4	5020.9	
781.58	3408.5	
781.75	2765.4	
781.93	4976.6	
782.11	4568.3	
782.28	4083.6	
782.46	3457	
782.64	4394.9	
782.81	5165.7	
782.99	3568.2	
783.17	3495.9	
783.34	5015.5	
783.52	4457.7	
783.69	3645.4	
783.87	4244.1	
784.05	4670.1	
784.22	4563.6	
784.4	4277.5	
784.58	3702.7	
784.75	5322.7	
784.93	4617.5	
785.1	3438.5	
785.28	3885	
785.46	5093.3	
785.63	4532.2	
785.81	3472.7	
785.99	3294.5	
786.16	4747.9	
786.34	5098.8	
786.51	3322.5	
786.69	3656.3	
786.87	4394.3	
787.04	4782	
787.22	3218	
787.39	4048.2	
787.57	4564.9	
787.75	5470.8	
787.92	4095.3	
788.1	4011.3	
788.27	4559.5	
788.45	4340.3	
788.63	3808.5	
788.8	2850.1	
788.98	5034.6	
789.15	4260.5	
789.33	2982.5	
789.5	3471.3	
789.68	5336.3	
789.86	5363.6	
790.03	3779.9	
790.21	3298.6	
790.38	5335.6	
790.56	4661.9	
790.73	3244.7	
790.91	3224.2	
791.09	4612	
791.26	5125.4	
791.44	3446	
791.61	3014.6	
791.79	4566.3	
791.96	4628.4	
792.14	3120.4	
792.32	2799.6	
792.49	4558.8	
792.67	4648.2	
792.84	3152.5	
793.02	2993.4	
793.19	4954.7	
793.37	5493.3	
793.54	2852.1	
793.72	3050.1	
793.89	5506.3	
794.07	4533.5	
794.25	3540.9	
794.42	2876	
794.6	5400.5	
794.77	5119.9	
794.95	3667.2	
795.12	3333.4	
795.3	4574.5	
795.47	4979.3	
795.65	3586.7	
795.82	3452.9	
796	4437.9	
796.17	5908.4	
796.35	3358	
796.52	3983.3	
796.7	4949.9	
796.87	5070.1	
797.05	3364.1	
797.22	3994.9	
797.4	5031.2	
797.57	5808.7	
797.75	3493.2	
797.92	3276.8	
798.1	5350.7	
798.27	4500.1	
798.45	2874	
798.62	3078.8	
798.8	4828.4	
798.97	5197.7	
799.15	3616	
799.32	3462.4	
799.5	4220.2	
799.67	4809.3	
799.85	3786	
800.02	2781.8	
800.2	4508.3	
800.37	4689.8	
800.55	3867.2	
800.72	3287.7	
800.9	5145.2	
801.07	5464.7	
801.25	4327.4	
801.42	3560.7	
801.6	5223	
801.77	4853	
801.95	3334.1	
802.12	3198.2	
802.29	4927.4	
802.47	4900.8	
802.64	3584.6	
802.82	2767.5	
802.99	4563.6	
803.17	5289.9	
803.34	3427.6	
803.52	3116.3	
803.69	5770.5	
803.87	4336.2	
804.04	3422.2	
804.21	3529.3	
804.39	5453.1	
804.56	4668.7	
804.74	2966.1	
804.91	3590.1	
805.09	4543.1	
805.26	4575.2	
805.44	3028.3	
805.61	3284.9	
805.78	5074.9	
805.96	5027.1	
806.13	3512.9	
806.31	3816.7	
806.48	4175.8	
806.66	4538.3	
806.83	3547.1	
807	3513.6	
807.18	4575.2	
807.35	4818.9	
807.53	3469.9	
807.7	2887.6	
807.87	5469.4	
808.05	4568.3	
808.22	3807.9	
808.4	2859.6	
808.57	4513.7	
808.74	4257.7	
808.92	3199.6	
809.09	4005.1	
809.27	4526.7	
809.44	4938.3	
809.61	2867.8	
809.79	3166.2	
809.96	5512.4	
810.14	5094.7	
810.31	2833.7	
810.48	3386	
810.66	4581.3	
810.83	5169.1	
811.01	3168.9	
811.18	3543.7	
811.35	5160.2	
811.53	4089.1	
811.7	3792.2	
811.87	3532.7	
812.05	4618.2	
812.22	4528.1	
812.39	3128.6	
812.57	3029.6	
812.74	4575.2	
812.92	5829.9	
813.09	3366.2	
813.26	3577.1	
813.44	5634	
813.61	4442.7	
813.78	2856.2	
813.96	3719.1	
814.13	4591.5	
814.3	4345.1	
814.48	4015.4	
814.65	3358	
814.82	5442.8	
815	4371.7	
815.17	3444	
815.34	4111.6	
815.52	4504.8	
815.69	4500.1	
815.87	3393.5	
816.04	3405.1	
816.21	4515.1	
816.38	4104.8	
816.56	3337.5	
816.73	3123.8	
816.9	5668.1	
817.08	5091.9	
817.25	3128.6	
817.42	3900	
817.6	4216.1	
817.77	4545.1	
817.94	3505.4	
818.12	3063.8	
818.29	4402.5	
818.46	6389	
818.64	3239.2	
818.81	3085.6	
818.98	4347.8	
819.16	5937.7	
819.33	3687.7	
819.5	3451.5	
819.67	4842.1	
819.85	5311.7	
820.02	3362.1	
820.19	3536.8	
820.37	4718.5	
820.54	4467.3	
820.71	3543.7	
820.88	4225	
821.06	4702.8	
821.23	4399	
821.4	3480.9	
821.58	3487.7	
821.75	5055.8	
821.92	4717.2	
822.09	2876.7	
822.27	2937.5	
822.44	4599.1	
822.61	4499.4	
822.79	2827.6	
822.96	5256.5	
823.13	4861.2	
823.3	4278.9	
823.48	3261	
823.65	2985.9	
823.82	5126.1	
823.99	4229.1	
824.17	4031.8	
824.34	2992.1	
824.51	5831.2	
824.68	4648.9	
824.86	3160.7	
825.03	3495.9	
825.2	4549.2	
825.37	5359.5	
825.55	3117.7	
825.72	3390.8	
825.89	5886.5	
826.06	5443.5	
826.24	3356.6	
826.41	3376.4	
826.58	5446.2	
826.75	4720.6	
826.92	2742.9	
827.1	2980.5	
827.27	7124.9	
827.44	5808.7	
827.61	3175.7	
827.79	3762.8	
827.96	4390.2	
828.13	4580.6	
828.3	3360.7	
828.47	2827.6	
828.65	4829.1	
828.82	4712.4	
828.99	4214	
829.16	3670	
829.34	5082.4	
829.51	4902.2	
829.68	3397.6	
829.85	3474.7	
830.02	5367	
830.2	5100.1	
830.37	2707.4	
830.54	4132.1	
830.71	5726.1	
830.88	4596.3	
831.05	2712.2	
831.23	3087	
831.4	5492	
831.57	6029.9	
831.74	3179.1	
831.91	2848	
832.09	4833.2	
832.26	5136.3	
832.43	3274	
832.6	3690.4	
832.77	4777.2	
832.94	5425.1	
833.12	2626.9	
833.29	3212.6	
833.46	4915.8	
833.63	6148.7	
833.8	3533.4	
833.97	3253.5	
834.15	5128.1	
834.32	4926.7	
834.49	3401	
834.66	3464.5	
834.83	5195	
835	4403.1	
835.17	3181.9	
835.35	3169.6	
835.52	5002.5	
835.69	4871.4	
835.86	3322.5	
836.03	2742.2	
836.2	5063.3	
836.37	4709	
836.55	3246	
836.72	3064.4	
836.89	4724.7	
837.06	5180	
837.23	3330	
837.4	3581.2	
837.57	5703.6	
837.75	6133	
837.92	3006.4	
838.09	3204.4	
838.26	4756.7	
838.43	5323.4	
838.6	3423.5	
838.77	3059.7	
838.94	5884.5	
839.11	5711.8	
839.29	3297.2	
839.46	2609.8	
839.63	5102.9	
839.8	4814.1	
839.97	3173	
840.14	3124.5	
840.31	4949.3	
840.48	5098.1	
840.65	2711.5	
840.82	3129.3	
841	5052.3	
841.17	4983.4	
841.34	2985.9	
841.51	2986.6	
841.68	5003.9	
841.85	4752.7	
842.02	3054.2	
842.19	2561.3	
842.36	4895.3	
842.53	4844.8	
842.7	2936.1	
842.87	3596.2	
843.05	6178	
843.22	4799.1	
843.39	2848	
843.56	3105.4	
843.73	4666.6	
843.9	5177.9	
844.07	4511	
844.24	3881.6	
844.41	7002.7	
844.58	4484.4	
844.75	2861.7	
844.92	3099.3	
845.09	5062.6	
845.26	5081.7	
845.43	3001	
845.6	3094.5	
845.77	5047.6	
845.94	4840	
846.12	3216.7	
846.29	3377.8	
846.46	5268.7	
846.63	5038.7	
846.8	2927.2	
846.97	3426.3	
847.14	5473.5	
847.31	5069.4	
847.48	3283.6	
847.65	3600.3	
847.82	5304.2	
847.99	5208.7	
848.16	3788.1	
848.33	3583.9	
848.5	4657.8	
848.67	5426.4	
848.84	2902.7	
849.01	3047.4	
849.18	4635.9	
849.35	4370.4	
849.52	3635.1	
849.69	2878.8	
849.86	5218.2	
850.03	5352.7	
850.2	2878.1	
850.37	3474	
850.54	5311.1	
850.71	4760.8	
850.88	3547.8	
851.05	2917	
851.22	4927.4	
851.39	5505.6	
851.56	2760.7	
851.73	3349.8	
851.9	4474.8	
852.07	5255.8	
852.24	3220.8	
852.41	2899.2	
852.58	5008	
852.75	4536.3	
852.92	3250.8	
853.09	2836.4	
853.26	4675.5	
853.43	5352.7	
853.6	2882.2	
853.77	2542.2	
853.94	5453.7	
854.11	4477.5	
854.28	4226.3	
854.44	3126.6	
854.61	5819	
854.78	5267.4	
854.95	2923.8	
855.12	3618.8	
855.29	4186.7	
855.46	5713.8	
855.63	2962.7	
855.8	3908.9	
855.97	4729.4	
856.14	5294.7	
856.31	4000.4	
856.48	3158.7	
856.65	4757.4	
856.82	4469.4	
856.99	2867.2	
857.16	3159.3	
857.33	5917.3	
857.49	4792.9	
857.66	3171.6	
857.83	3360	
858	4805.9	
858.17	4944.5	
858.34	2790	
858.51	2949.8	
858.68	5459.9	
858.85	5578	
859.02	3373	
859.19	3549.8	
859.36	4539.7	
859.52	4548.5	
859.69	2922.5	
859.86	3375.1	
860.03	4550.6	
860.2	5470.1	
860.37	2712.9	
860.54	2975.7	
860.71	5221	
860.88	5567.7	
861.05	3228.3	
861.21	3614.7	
861.38	5522.7	
861.55	4360.8	
861.72	2703.3	
861.89	3269.2	
862.06	5264.6	
862.23	5612.1	
862.4	2824.8	
862.56	3005.7	
862.73	5149.3	
862.9	4832.5	
863.07	3373.7	
863.24	2661.7	
863.41	4390.8	
863.58	4487.1	
863.75	2990.7	
863.91	3334.8	
864.08	5455.8	
864.25	5168.4	
864.42	3624.9	
864.59	4050.2	
864.76	5791.7	
864.93	4503.5	
865.09	2843.9	
865.26	3121.8	
865.43	5350.7	
865.6	5730.2	
865.77	2635.7	
865.94	2938.2	
866.1	5431.2	
866.27	5165.7	
866.44	4312.3	
866.61	2807.1	
866.78	4774.5	
866.95	5156.8	
867.11	2871.3	
867.28	2639.1	
867.45	5340.4	
867.62	4493.9	
867.79	3326.6	
867.96	2927.9	
868.12	4453	
868.29	5221.6	
868.46	2903.3	
868.63	3829	
868.8	5334.3	
868.97	5188.2	
869.13	3076.7	
869.3	3041.9	
869.47	5081	
869.64	5273.5	
869.81	2892.4	
869.97	2994.1	
870.14	5004.6	
870.31	5496.7	
870.48	2872.6	
870.65	3610.6	
870.81	4775.2	
870.98	4766.3	
871.15	3302.7	
871.32	3053.5	
871.48	5094	
871.65	5531.6	
871.82	2960	
871.99	3190.1	
872.16	5901.6	
872.32	5384.1	
872.49	2925.9	
872.66	2987.3	
872.83	5238	
872.99	4643.4	
873.16	3284.9	
873.33	2945	
873.5	4861.9	
873.67	4983.4	
873.83	3114.3	
874	3906.2	
874.17	5055.8	
874.34	5705.6	
874.5	3703.4	
874.67	3573.7	
874.84	5518.6	
875.01	4415.4	
875.17	4037.9	
875.34	2922.5	
875.51	5033.2	
875.68	5893.4	
875.84	3540.9	
876.01	4184.7	
876.18	5223	
876.34	5154.1	
876.51	2973	
876.68	2865.8	
876.85	4786.1	
877.01	5437.4	
877.18	4115.1	
877.35	2884.9	
877.52	4923.3	
877.68	4470.7	
877.85	2874.7	
878.02	2901.3	
878.18	4807.3	
878.35	4595.6	
878.52	2370.2	
878.69	3272.7	
878.85	5219.6	
879.02	5137	
879.19	4042	
879.35	3137.5	
879.52	5181.4	
879.69	5292.6	
879.86	2589.3	
880.02	3265.8	
880.19	4856.4	
880.36	5812.8	
880.52	3295.2	
880.69	3399.6	
880.86	5238.7	
881.02	5272.2	
881.19	3237.8	
881.36	3163.4	
881.52	5164.3	
881.69	4582.7	
881.86	3108.8	
882.02	3074.7	
882.19	5369.1	
882.36	6100.2	
882.52	2999.6	
882.69	4054.3	
882.86	5008	
883.02	4954	
883.19	3500	
883.36	3343	
883.52	5270.8	
883.69	5919.3	
883.86	3001	
884.02	2657.6	
884.19	5218.9	
884.36	4871.4	
884.52	3278.1	
884.69	3130	
884.86	4683.7	
885.02	5651	
885.19	3280.2	
885.36	3332	
885.52	4813.4	
885.69	5002.5	
885.86	4066.6	
886.02	3652.2	
886.19	5210	
886.35	4730.8	
886.52	3222.1	
886.69	4049.5	
886.85	4478.2	
887.02	5403.9	
887.19	5403.9	
887.35	5403.9	
887.52	5403.9	
887.68	5403.9	
887.85	5403.9	
888.02	5403.9	
888.18	5403.9	
888.35	5403.9	
888.51	5403.9	
888.68	5403.9	
888.85	5403.9	
889.01	5403.9	
889.18	5403.9	
889.35	5403.9	
889.51	5403.9	
889.68	5403.9	
889.84	5403.9	
890.01	5403.9	
890.17	5403.9	
890.34	5403.9	
890.51	5403.9	
890.67	5403.9	
890.84	5403.9	
891	5403.9	
891.17	5403.9	
891.34	5403.9	
891.5	5403.9	
891.67	5403.9	
891.83	5403.9	
892	5403.9	
892.16	5403.9	
892.33	5403.9	
892.5	5403.9	
892.66	5403.9	
892.83	5403.9	
892.99	5403.9	
893.16	5403.9	
893.32	5403.9	
893.49	5403.9	
893.65	5403.9	
893.82	5403.9	
893.99	5403.9	
894.15	5403.9	
894.32	5403.9	
894.48	5403.9	
894.65	5403.9	
894.81	5403.9	
894.98	5403.9	
895.14	5403.9	
895.31	5403.9	
895.47	5403.9	
895.64	5403.9	
895.81	5403.9	
895.97	5403.9	
896.14	5403.9	
896.3	5403.9	
896.47	5403.9	
896.63	5403.9	
896.8	5403.9	
896.96	5403.9	
897.13	5403.9	
897.29	5403.9	
897.46	5403.9	
897.62	5403.9	
897.79	5403.9	
897.95	5403.9	
898.12	5403.9	
898.28	5403.9	
898.45	5403.9	
898.61	5403.9	
898.78	5403.9	
898.94	5403.9	
899.11	5403.9	
899.27	5403.9	
899.44	5403.9	
899.6	5403.9	
899.77	5403.9	
899.93	5403.9	
900.1	5403.9	
900.26	5403.9	
900.43	5403.9	
900.59	5403.9	
900.76	5403.9	
900.92	5403.9	
901.09	5403.9	
901.25	5403.9	
901.42	5403.9	
901.58	5403.9	
901.75	5403.9	
901.91	5403.9	
902.07	5403.9	
902.24	5403.9	
902.4	5403.9	
902.57	5403.9	
902.73	5403.9	
902.9	5403.9	
903.06	5403.9	
903.23	5403.9	
903.39	5403.9	
903.56	5403.9	
903.72	5403.9	
903.88	5403.9	
904.05	5403.9	
904.21	5403.9	
904.38	5403.9	
904.54	5403.9	
904.71	5403.9	
904.87	5403.9	
905.03	5403.9	
905.2	5403.9	
905.36	5403.9	
905.53	5403.9	
905.69	5403.9	
905.86	5403.9	
906.02	5403.9	
906.18	5403.9	
906.35	5403.9	
906.51	5403.9	
906.68	5403.9	
906.84	5403.9	
907.01	5403.9	
907.17	5403.9	
907.33	5403.9	
907.5	5403.9	
907.66	5403.9	
907.83	5403.9	
907.99	5403.9	
908.15	5403.9	
908.32	5403.9	
908.48	5403.9	
908.65	5403.9	
908.81	5403.9	
908.97	5403.9	
909.14	5403.9	
909.3	5403.9	
909.47	5403.9	
909.63	5403.9	
909.79	5403.9	
909.96	5403.9	
910.12	5403.9	
910.28	5403.9	
910.45	5403.9	
910.61	5403.9	
910.78	5403.9	
910.94	5403.9	
911.1	5403.9	
911.27	5403.9	
911.43	5403.9	
911.59	5403.9	
911.76	5403.9	
911.92	5403.9	
912.08	5403.9	
912.25	5403.9	
912.41	5403.9	
912.57	5403.9	
912.74	5403.9	
912.9	5403.9	
913.07	5403.9	
913.23	5403.9	
913.39	5403.9	
913.56	5403.9	
913.72	5403.9	
913.88	5403.9	
914.05	5403.9	
914.21	5403.9	
914.37	5403.9	
914.54	5403.9	
914.7	5403.9	
914.86	5403.9	
915.03	5403.9	
915.19	5403.9	
