Wavelength	Intensities	
nm	a.u.	
179.22	1659.7	
179.44	1669.4	
179.65	1650	
179.86	1688.9	
180.08	1704.6	
180.29	3841.3	
180.51	2988	
180.72	4981.3	
180.94	5502.2	
181.15	2719	
181.37	2681.5	
181.58	4752	
181.79	4966.3	
182.01	2786.6	
182.22	2929.3	
182.44	4985.4	
182.65	4334.2	
182.87	3603.7	
183.08	3229.6	
183.29	5247.6	
183.51	4332.8	
183.72	2880.8	
183.94	4066.6	
184.15	4630.5	
184.37	4586.8	
184.58	2633.7	
184.79	3437.2	
185.01	4407.2	
185.22	5000.5	
185.44	3552.5	
185.65	3149.8	
185.86	4644.8	
186.08	4309.6	
186.29	2621.4	
186.51	2767.5	
186.72	4442	
186.94	5051.7	
187.15	3133.4	
187.36	3240.6	
187.58	6282.5	
187.79	4786.8	
188.01	3259.7	
188.22	4927.4	
188.43	5569.8	
188.65	4932.2	
188.86	2772.9	
189.08	3216.7	
189.29	4541	
189.5	4481	
189.72	2940.2	
189.93	2993.4	
190.15	5089.9	
190.36	5832.6	
190.57	3240.6	
190.79	3138.2	
191	5163.6	
191.22	5074.2	
191.43	3283.6	
191.64	2777	
191.86	5259.2	
192.07	5019.6	
192.29	2846	
192.5	3011.9	
192.71	5119.2	
192.93	4522.6	
193.14	2906.1	
193.35	3003.7	
193.57	4489.8	
193.78	5083.7	
194	2480.1	
194.21	2905.4	
194.42	4330.1	
194.64	4649.6	
194.85	3155.2	
195.07	3629	
195.28	4719.2	
195.49	4156	
195.71	3786	
195.92	2795.5	
196.13	4855.7	
196.35	4872.1	
196.56	4057.7	
196.78	3180.5	
196.99	5853.8	
197.2	5431.2	
197.42	3572.3	
197.63	3246.7	
197.84	4238.6	
198.06	4845.5	
198.27	2994.8	
198.48	3855	
198.7	4470	
198.91	4687.1	
199.13	3187.3	
199.34	3148.4	
199.55	5011.4	
199.77	4123.2	
199.98	2899.2	
200.19	3289	
200.41	4717.8	
200.62	4388.1	
200.83	3308.8	
201.05	3579.2	
201.26	4654.4	
201.47	4469.4	
201.69	2859.6	
201.9	2859	
202.11	4694.6	
202.33	5369.1	
202.54	3044.6	
202.76	3424.9	
202.97	4700.1	
203.18	4822.3	
203.4	3358.7	
203.61	3328.6	
203.82	4709	
204.04	4415.4	
204.25	3194.8	
204.46	3169.6	
204.68	4708.3	
204.89	4826.4	
205.1	3128.6	
205.32	2754.5	
205.53	4959.5	
205.74	5063.9	
205.96	2460.3	
206.17	3277.4	
206.38	4930.1	
206.6	4997.7	
206.81	3687	
207.02	2989.4	
207.24	4851.6	
207.45	5225.7	
207.66	3132.7	
207.88	2682.2	
208.09	4812	
208.3	4641.4	
208.52	2835.1	
208.73	3179.8	
208.94	4658.4	
209.15	5168.4	
209.37	3076	
209.58	3186	
209.79	5029.8	
210.01	4603.2	
210.22	2557.2	
210.43	2643.9	
210.65	4628.4	
210.86	4956.8	
211.07	3074	
211.29	2815.3	
211.5	4838.7	
211.71	4666	
211.93	2868.5	
212.14	2841.9	
212.35	4640.7	
212.56	4700.1	
212.78	3269.9	
212.99	2685.6	
213.2	5279	
213.42	4530.8	
213.63	2932.7	
213.84	3061.7	
214.06	4278.2	
214.27	4324.6	
214.48	3051.5	
214.69	3249.4	
214.91	5213.4	
215.12	5196.4	
215.33	3250.8	
215.55	3504.8	
215.76	5511.8	
215.97	4932.2	
216.18	3179.1	
216.4	3149.1	
216.61	4419.5	
216.82	4981.3	
217.04	2880.8	
217.25	2970.2	
217.46	5148.6	
217.67	4950.6	
217.89	2600.2	
218.1	2706	
218.31	4720.6	
218.53	4806.6	
218.74	3032.4	
218.95	2947.7	
219.16	4693.3	
219.38	5345.9	
219.59	2911.5	
219.8	3459.7	
220.01	5733.6	
220.23	4696.7	
220.44	3676.1	
220.65	2828.9	
220.87	4749.9	
221.08	5105.6	
221.29	2741.5	
221.5	3407.1	
221.72	6003.3	
221.93	4473.4	
222.14	3241.9	
222.35	3764.2	
222.57	4683.7	
222.78	4944.5	
222.99	3132.7	
223.2	3294.5	
223.42	4836.6	
223.63	4930.1	
223.84	2435.7	
224.05	2451.4	
224.27	5670.1	
224.48	5229.1	
224.69	3778.5	
224.9	3263.1	
225.12	4818.2	
225.33	4646.2	
225.54	2631	
225.75	2929.3	
225.97	4389.5	
226.18	4604.5	
226.39	3063.8	
226.6	2939.5	
226.82	4519.2	
227.03	4384.7	
227.24	3193.5	
227.45	2735.4	
227.67	4979.3	
227.88	5257.8	
228.09	3556	
228.3	3509.5	
228.52	4948.6	
228.73	4619.5	
228.94	2997.5	
229.15	2720.4	
229.36	4619.5	
229.58	4610	
229.79	3035.1	
230	3477.5	
230.21	5429.8	
230.43	4672.1	
230.64	3246.7	
230.85	3301.3	
231.06	5038.7	
231.28	5070.1	
231.49	2732	
231.7	3167.5	
231.91	4937.7	
232.12	4646.8	
232.34	2799.6	
232.55	3123.8	
232.76	5113.1	
232.97	4767	
233.18	2878.8	
233.4	3261.7	
233.61	4830.5	
233.82	4542.4	
234.03	3034.4	
234.25	2940.2	
234.46	6135	
234.67	4689.2	
234.88	3266.5	
235.09	2902	
235.31	4809.3	
235.52	4555.4	
235.73	3158.7	
235.94	2712.2	
236.15	4521.2	
236.37	5479.7	
236.58	2865.8	
236.79	3089	
237	4881	
237.21	4258.4	
237.43	3309.5	
237.64	2661.7	
237.85	7558.4	
238.06	4364.2	
238.27	3327.3	
238.48	2742.9	
238.7	4976.6	
238.91	4560.8	
239.12	3054.9	
239.33	3186	
239.54	4435.9	
239.76	4554.7	
239.97	3065.8	
240.18	3108.1	
240.39	5452.4	
240.6	4806.6	
240.82	3216	
241.03	2718.3	
241.24	4629.1	
241.45	5254.4	
241.66	2880.8	
241.87	3323.9	
242.09	5207.3	
242.3	5488.6	
242.51	3381.2	
242.72	3034.4	
242.93	4986.1	
243.14	4614.1	
243.36	3506.1	
243.57	3795.6	
243.78	5259.9	
243.99	4930.8	
244.2	3092.4	
244.41	2848	
244.63	4357.4	
244.84	4857.1	
245.05	3278.1	
245.26	3092.4	
245.47	4877.6	
245.68	4988.2	
245.9	3950.5	
246.11	3242.6	
246.32	4456.4	
246.53	4871.4	
246.74	4792.2	
246.95	2717.7	
247.16	4386.7	
247.38	4658.4	
247.59	2716.3	
247.8	3111.5	
248.01	4380.6	
248.22	4647.5	
248.43	2833.7	
248.64	3036.5	
248.86	4332.8	
249.07	4496.7	
249.28	2834.4	
249.49	3184.6	
249.7	5042.1	
249.91	5040.7	
250.12	2695.8	
250.34	2694.4	
250.55	4723.3	
250.76	4659.8	
250.97	3174.4	
251.18	3217.4	
251.39	5063.3	
251.6	4754	
251.81	3252.9	
252.03	3202.3	
252.24	4491.2	
252.45	5003.9	
252.66	2727.2	
252.87	3357.3	
253.08	4674.1	
253.29	5734.3	
253.5	2761.3	
253.72	3717.7	
253.93	4616.8	
254.14	5319.3	
254.35	2999.6	
254.56	3063.1	
254.77	4773.8	
254.98	4390.8	
255.19	2934.1	
255.41	3690.4	
255.62	4797.7	
255.83	5107.6	
256.04	3304.7	
256.25	3186.6	
256.46	5517.2	
256.67	4422.2	
256.88	3194.8	
257.09	3513.6	
257.31	4322.6	
257.52	4442.7	
257.73	3911.6	
257.94	2995.5	
258.15	4632.5	
258.36	4666	
258.57	3571	
258.78	2448.7	
258.99	5048.9	
259.2	4577.9	
259.41	2968.2	
259.63	3076	
259.84	5241.4	
260.05	5501.5	
260.26	3723.2	
260.47	2902	
260.68	5074.2	
260.89	4545.1	
261.1	3504.1	
261.31	2875.3	
261.52	5167.7	
261.73	5347.9	
261.95	3767.6	
262.16	3252.2	
262.37	5190.2	
262.58	5238.7	
262.79	3719.8	
263	3009.1	
263.21	4717.8	
263.42	4261.8	
263.63	3262.4	
263.84	3020.8	
264.05	5053	
264.26	5286.5	
264.47	3638.6	
264.69	3216.7	
264.9	5270.8	
265.11	4799.8	
265.32	2876	
265.53	2985.3	
265.74	4758.8	
265.95	4241.3	
266.16	3188	
266.37	3439.2	
266.58	4809.3	
266.79	4513.7	
267	2953.2	
267.21	2804.4	
267.42	4368.3	
267.63	4612.7	
267.84	3085.6	
268.06	2723.8	
268.27	4990.9	
268.48	5122	
268.69	2999.6	
268.9	3565.5	
269.11	5185.5	
269.32	4239.3	
269.53	3062.4	
269.74	2863.7	
269.95	4866.7	
270.16	4242	
270.37	3181.9	
270.58	3491.1	
270.79	4586.1	
271	5110.4	
271.21	3255.6	
271.42	3156.6	
271.63	4826.4	
271.84	4323.3	
272.05	2598.2	
272.26	2869.9	
272.47	4693.9	
272.68	4792.9	
272.89	2996.2	
273.11	3386	
273.32	4471.4	
273.53	5304.2	
273.74	3291.1	
273.95	3207.1	
274.16	4992.3	
274.37	4682.3	
274.58	3399.6	
274.79	2831	
275	4788.8	
275.21	5096.7	
275.42	3951.2	
275.63	3438.5	
275.84	4945.8	
276.05	5923.4	
276.26	3229	
276.47	3061.7	
276.68	4601.1	
276.89	5411.4	
277.1	3457.7	
277.31	2750.4	
277.52	4838	
277.73	5103.5	
277.94	2736.8	
278.15	3022.8	
278.36	4842.1	
278.57	4432.5	
278.78	3009.8	
278.99	3300.6	
279.2	4474.1	
279.41	4354.7	
279.62	3822.2	
279.83	2786.6	
280.04	5558.9	
280.25	4358.1	
280.46	3805.8	
280.67	3112.9	
280.88	4473.4	
281.09	5122	
281.3	3249.4	
281.51	3981.3	
281.72	4481	
281.93	5010	
282.14	2955.9	
282.35	3174.4	
282.56	5061.2	
282.77	4943.8	
282.98	3048.7	
283.19	3564.1	
283.4	5923.4	
283.61	4666.6	
283.82	2856.2	
284.03	3740.3	
284.24	4848.2	
284.45	5100.1	
284.66	3775.1	
284.87	3616	
285.08	5113.8	
285.29	5230.5	
285.5	2774.3	
285.71	3049.4	
285.92	5073.5	
286.12	5557.5	
286.33	3735.5	
286.54	3080.1	
286.75	5000.5	
286.96	4560.1	
287.17	2859.6	
287.38	3597.6	
287.59	4455	
287.8	4457.1	
288.01	3036.5	
288.22	3442	
288.43	4903.5	
288.64	4219.5	
288.85	3550.5	
289.06	3435.8	
289.27	5005.2	
289.48	5241.4	
289.69	3760.8	
289.9	3437.2	
290.11	5182	
290.32	4514.4	
290.53	3613.3	
290.74	3272	
290.94	4943.1	
291.15	5044.1	
291.36	2954.5	
291.57	3357.3	
291.78	4577.9	
291.99	4222.9	
292.2	2884.9	
292.41	3324.5	
292.62	5016.2	
292.83	4863.2	
293.04	3982.6	
293.25	2869.2	
293.46	4584	
293.67	5081	
293.88	2910.8	
294.09	2863.7	
294.29	4447.5	
294.5	4805.2	
294.71	3134.1	
294.92	2983.9	
295.13	4526	
295.34	5429.8	
295.55	2714.9	
295.76	2700.6	
295.97	4965	
296.18	5460.6	
296.39	2769.5	
296.6	2904	
296.81	4715.8	
297.01	4930.1	
297.22	3080.1	
297.43	2977.7	
297.64	4468	
297.85	4349.2	
298.06	2512.9	
298.27	2656.9	
298.48	4674.1	
298.69	4468.7	
298.9	3198.2	
299.11	2920.4	
299.31	4367.6	
299.52	4325.3	
299.73	3417.4	
299.94	3277.4	
300.15	4719.2	
300.36	4440	
300.57	3257.6	
300.78	3246.7	
300.99	4547.9	
301.2	4746.5	
301.4	2903.3	
301.61	3138.2	
301.82	4937	
302.03	4930.1	
302.24	3460.4	
302.45	2805.7	
302.66	4945.8	
302.87	5102.9	
303.08	2901.3	
303.29	3903.4	
303.49	4563.6	
303.7	4696	
303.91	2704.7	
304.12	3675.4	
304.33	4302.8	
304.54	4772.4	
304.75	2974.3	
304.96	2876.7	
305.16	4914.4	
305.37	5410.1	
305.58	2637.1	
305.79	2661	
306	4889.2	
306.21	4237.9	
306.42	2925.9	
306.63	4253.6	
306.83	4579.3	
307.04	5029.1	
307.25	3156.6	
307.46	3123.2	
307.67	4119.8	
307.88	4952	
308.09	2899.9	
308.29	2942.9	
308.5	4738.3	
308.71	5081.7	
308.92	3053.5	
309.13	2826.9	
309.34	4670.7	
309.55	4561.5	
309.75	3582.6	
309.96	3281.5	
310.17	4949.9	
310.38	4455.7	
310.59	3403	
310.8	2815.3	
311.01	4527.4	
311.21	4628.4	
311.42	2842.6	
311.63	2888.3	
311.84	4543.8	
312.05	4682.3	
312.26	3266.5	
312.46	3505.4	
312.67	4592.2	
312.88	4293.2	
313.09	2821.4	
313.3	2779.8	
313.51	5197.7	
313.71	5472.9	
313.92	2878.8	
314.13	2970.9	
314.34	4844.1	
314.55	4605.9	
314.76	3508.9	
314.96	3097.9	
315.17	4856.4	
315.38	4852.3	
315.59	2883.5	
315.8	2766.8	
316.01	5239.4	
316.21	5272.8	
316.42	2800.3	
316.63	3101.3	
316.84	4575.2	
317.05	5117.2	
317.26	3288.4	
317.46	3026.2	
317.67	4659.1	
317.88	4918.5	
318.09	3540.3	
318.3	2739.5	
318.5	4478.9	
318.71	4834.6	
318.92	4390.8	
319.13	3325.9	
319.34	5018.2	
319.54	5037.3	
319.75	2686.9	
319.96	2596.8	
320.17	4936.3	
320.38	5036.6	
320.58	2629.6	
320.79	3087.7	
321	5063.3	
321.21	5170.4	
321.42	3141.6	
321.62	2639.8	
321.83	4496	
322.04	4732.2	
322.25	3041.2	
322.46	2854.9	
322.66	4769	
322.87	4890.5	
323.08	3409.9	
323.29	2830.3	
323.5	5424.4	
323.7	4328	
323.91	3696.6	
324.12	3388.7	
324.33	4780	
324.53	4868	
324.74	3273.3	
324.95	3477.5	
325.16	4333.5	
325.37	4573.8	
325.57	2900.6	
325.78	2867.8	
325.99	4844.1	
326.2	4330.8	
326.4	3913.7	
326.61	2706	
326.82	4634.6	
327.03	4743.8	
327.24	3879.5	
327.44	3647.4	
327.65	4856.4	
327.86	4102.8	
328.07	3275.4	
328.27	2812.5	
328.48	5206.6	
328.69	4382	
328.9	3966.2	
329.1	2955.2	
329.31	4625.7	
329.52	5221.6	
329.73	2904	
329.93	3153.2	
330.14	4712.4	
330.35	4777.9	
330.56	4432.5	
330.76	3476.8	
330.97	4554	
331.18	4866.7	
331.39	3130.7	
331.59	2668.5	
331.8	5113.8	
332.01	5195	
332.22	2962	
332.42	3291.8	
332.63	4794.3	
332.84	4429.1	
333.05	3196.2	
333.25	2886.3	
333.46	4468.7	
333.67	4655	
333.88	3013.9	
334.08	3268.6	
334.29	5963.7	
334.5	5115.1	
334.7	2793.4	
334.91	3841.3	
335.12	4304.8	
335.33	4906.3	
335.53	3129.3	
335.74	4410	
335.95	4569	
336.16	4321.9	
336.36	3158	
336.57	3536.2	
336.78	4311.7	
336.98	5074.9	
337.19	3748.5	
337.4	3059.7	
337.61	5544.5	
337.81	4319.8	
338.02	2970.9	
338.23	3627.6	
338.43	5261.2	
338.64	4422.9	
338.85	2902	
339.05	3704.8	
339.26	5276.3	
339.47	4276.8	
339.68	2896.5	
339.88	4069.3	
340.09	4911.7	
340.3	5063.3	
340.5	3295.9	
340.71	2658.3	
340.92	4343.7	
341.13	5174.5	
341.33	2749.1	
341.54	3326.6	
341.75	4867.3	
341.95	4536.9	
342.16	3192.1	
342.37	3358	
342.57	4354	
342.78	4622.3	
342.99	3512.3	
343.19	2634.4	
343.4	4922	
343.61	4823.6	
343.81	3041.2	
344.02	2841.2	
344.23	4958.1	
344.43	5253	
344.64	3521.8	
344.85	3437.9	
345.06	4851.6	
345.26	5075.5	
345.47	3282.2	
345.68	3745.1	
345.88	4227.7	
346.09	4982.7	
346.3	3316.3	
346.5	2567.5	
346.71	4630.5	
346.92	4429.1	
347.12	2737.5	
347.33	3237.2	
347.54	5016.2	
347.74	5309.7	
347.95	3221.5	
348.16	2543.6	
348.36	4499.4	
348.57	4377.9	
348.78	3307.5	
348.98	3433.1	
349.19	4648.2	
349.39	4229.7	
349.6	2733.4	
349.81	2930	
350.01	4905.6	
350.22	4435.9	
350.43	3173.7	
350.63	3738.9	
350.84	4674.8	
351.05	4440.7	
351.25	2908.1	
351.46	2652.1	
351.67	5029.1	
351.87	4394.9	
352.08	3039.9	
352.29	3434.4	
352.49	5018.2	
352.7	5019.6	
352.9	2795.5	
353.11	3398.9	
353.32	5481.7	
353.52	4543.1	
353.73	2821.4	
353.94	3414	
354.14	4874.8	
354.35	4721.3	
354.55	2855.6	
354.76	3160	
354.97	4827.1	
355.17	4650.3	
355.38	2726.5	
355.59	3637.9	
355.79	4453	
356	4692.6	
356.2	3192.8	
356.41	2766.8	
356.62	4260.5	
356.82	4627	
357.03	3377.1	
357.24	3030.3	
357.44	4424.3	
357.65	4496	
357.85	3908.9	
358.06	3222.8	
358.27	4218.1	
358.47	4373.8	
358.68	2731.3	
358.88	3331.4	
359.09	4885.8	
359.3	5055.8	
359.5	3889.1	
359.71	3420.8	
359.91	5388.2	
360.12	4855.7	
360.33	3371	
360.53	3727.3	
360.74	4480.3	
360.94	4498.7	
361.15	3538.9	
361.36	2910.2	
361.56	5077.6	
361.77	4653	
361.97	3794.9	
362.18	3107.5	
362.38	5053.7	
362.59	4298	
362.8	2893.8	
363	2836.4	
363.21	4163.5	
363.41	4728.8	
363.62	3263.1	
363.83	3986	
364.03	4844.1	
364.24	5424.4	
364.44	4066.6	
364.65	4141.7	
364.85	4670.1	
365.06	4388.1	
365.27	3033	
365.47	3091.8	
365.68	5319.9	
365.88	4570.4	
366.09	3340.9	
366.29	3104.7	
366.5	4777.9	
366.71	5122.7	
366.91	3989.4	
367.12	3424.2	
367.32	5580.7	
367.53	4954.7	
367.73	3444.7	
367.94	4147.8	
368.14	5007.3	
368.35	5532.2	
368.56	3398.3	
368.76	2950.4	
368.97	5045.5	
369.17	6163	
369.38	3041.9	
369.58	3220.1	
369.79	4379.2	
369.99	5339.1	
370.2	3955.3	
370.4	3285.6	
370.61	4810.7	
370.82	5717.2	
371.02	3259	
371.23	2742.9	
371.43	4313	
371.64	5275.6	
371.84	3318.4	
372.05	4160.8	
372.25	6116.6	
372.46	4995.7	
372.66	3312.9	
372.87	3281.5	
373.07	5108.3	
373.28	6291.4	
373.48	4093.9	
373.69	3803.1	
373.9	4758.1	
374.1	4775.2	
374.31	3990.8	
374.51	3579.2	
374.72	5347.9	
374.92	4409.3	
375.13	4119.1	
375.33	3494.5	
375.54	5063.3	
375.74	4648.9	
375.95	3592.1	
376.15	4474.1	
376.36	5089.2	
376.56	4956.1	
376.77	3688.4	
376.97	3940.3	
377.18	5816.9	
377.38	5154.7	
377.59	4098.7	
377.79	3298.6	
378	5008.6	
378.2	5223.7	
378.41	3382.6	
378.61	3250.8	
378.82	5371.8	
379.02	4685.1	
379.23	3443.3	
379.43	4231.8	
379.64	5472.9	
379.84	5138.4	
380.05	3340.2	
380.25	3291.8	
380.46	5212.1	
380.66	4852.3	
380.87	4347.8	
381.07	4572.4	
381.28	5621	
381.48	5174.5	
381.69	3366.9	
381.89	3391.4	
382.1	4450.9	
382.3	5274.2	
382.51	4152.6	
382.71	4799.1	
382.91	5215.5	
383.12	5571.2	
383.32	3641.3	
383.53	3798.3	
383.73	5022.3	
383.94	4960.9	
384.14	3758.7	
384.35	3076.7	
384.55	4835.9	
384.76	5182	
384.96	3652.9	
385.17	3812.6	
385.37	5214.1	
385.58	4569.7	
385.78	3837.9	
385.98	3011.2	
386.19	4810.7	
386.39	5100.1	
386.6	3405.1	
386.8	3581.9	
387.01	5152.7	
387.21	5182.7	
387.42	3840.6	
387.62	4290.5	
387.83	4689.8	
388.03	5056.4	
388.23	3738.9	
388.44	4210.6	
388.64	4448.9	
388.85	4556.7	
389.05	3901.4	
389.26	4336.2	
389.46	6119.3	
389.67	5563.6	
389.87	4000.4	
390.07	3995.6	
390.28	4930.1	
390.48	4660.5	
390.69	3413.3	
390.89	3618.1	
391.1	4761.5	
391.3	5456.5	
391.5	4434.5	
391.71	4913.1	
391.91	5317.2	
392.12	5946.6	
392.32	4628.4	
392.53	3999	
392.73	4941.1	
392.93	5032.5	
393.14	3766.2	
393.34	4339	
393.55	5394.3	
393.75	4999.8	
393.95	3788.1	
394.16	3715.7	
394.36	4870.8	
394.57	5337.7	
394.77	3331.4	
394.98	3631.7	
395.18	4797.7	
395.38	4949.3	
395.59	4363.5	
395.79	3543	
396	4976.6	
396.2	5338.4	
396.4	4229.7	
396.61	4106.9	
396.81	5401.9	
397.02	4906.3	
397.22	4468.7	
397.42	4425.7	
397.63	5495.4	
397.83	4889.9	
398.04	3584.6	
398.24	3994.9	
398.44	5339.7	
398.65	4575.2	
398.85	3568.9	
399.05	3550.5	
399.26	4930.8	
399.46	6201.9	
399.67	3812	
399.87	3638.6	
400.07	5182.7	
400.28	5431.9	
400.48	3766.2	
400.69	4541.7	
400.89	5584.8	
401.09	5874.3	
401.3	3737.5	
401.5	4547.2	
401.7	6156.9	
401.91	6369.9	
402.11	4042	
402.32	4213.4	
402.52	5780.1	
402.72	5603.9	
402.93	4340.3	
403.13	3386	
403.33	6220.4	
403.54	5192.3	
403.74	4029	
403.94	4627	
404.15	5285.1	
404.35	6026.5	
404.56	3806.5	
404.76	5109	
404.96	5545.9	
405.17	5403.2	
405.37	4655	
405.57	4240.7	
405.78	5646.9	
405.98	5276.3	
406.18	3984	
406.39	4552.6	
406.59	5671.5	
406.79	5292	
407	3734.1	
407.2	3804.4	
407.4	5842.2	
407.61	5749.3	
407.81	3829	
408.01	5032.5	
408.22	4895.3	
408.42	6346	
408.62	4665.3	
408.83	4389.5	
409.03	5417.6	
409.23	5461.2	
409.44	4468.7	
409.64	4638.6	
409.84	6291.4	
410.05	6215.6	
410.25	4651.6	
410.45	4456.4	
410.66	5928.2	
410.86	7623.9	
411.06	4801.1	
411.27	4726	
411.47	7572.7	
411.67	5986.2	
411.88	4925.4	
412.08	5146.5	
412.28	6574.7	
412.49	6971.3	
412.69	4878.3	
412.89	4905.6	
413.09	6819.7	
413.3	6701	
413.5	4940.4	
413.7	4736.3	
413.91	6175.3	
414.11	6907.8	
414.31	4785.4	
414.52	5184.1	
414.72	6671.6	
414.92	6598.6	
415.12	4885.1	
415.33	5322.7	
415.53	6900.3	
415.73	7055.3	
415.94	5509	
416.14	5104.9	
416.34	6244.9	
416.55	5945.9	
416.75	5992.4	
416.95	5565	
417.15	6955.6	
417.36	7395.9	
417.56	6167.8	
417.76	5470.8	
417.97	7184.3	
418.17	6935.8	
418.37	5235.3	
418.57	5271.5	
418.78	6943.3	
418.98	6637.5	
419.18	5888.6	
419.38	5813.5	
419.59	6636.1	
419.79	6342.6	
419.99	5149.3	
420.2	5395	
420.4	7025.9	
420.6	6999.3	
420.8	5122	
421.01	5034.6	
421.21	6919.4	
421.41	6980.8	
421.61	5359.5	
421.82	5218.9	
422.02	6582.2	
422.22	7234.1	
422.42	5806	
422.63	5451.7	
422.83	6535.8	
423.03	7500.3	
423.23	5500.8	
423.44	4799.1	
423.64	6662	
423.84	6309.1	
424.04	5097.4	
424.25	4842.8	
424.45	7218.4	
424.65	7273.7	
424.85	4687.8	
425.06	5089.2	
425.26	7372	
425.46	6493.4	
425.66	5433.3	
425.87	5215.5	
426.07	7104.4	
426.27	6873	
426.47	5268.1	
426.67	4846.2	
426.88	7359	
427.08	6904.4	
427.28	5558.2	
427.48	4742.4	
427.69	6126.8	
427.89	6663.4	
428.09	5461.9	
428.29	4778.6	
428.5	7098.9	
428.7	6775.4	
428.9	4844.8	
429.1	5161.6	
429.3	6731.7	
429.51	7011.6	
429.71	5069.4	
429.91	5648.3	
430.11	7071	
430.31	7204.8	
430.52	5337.7	
430.72	5573.2	
430.92	7428.7	
431.12	6978.1	
431.32	5122	
431.53	5274.2	
431.73	6233.3	
431.93	7454.6	
432.13	5031.2	
432.33	4864.6	
432.54	6655.2	
432.74	6753.5	
432.94	4998.4	
433.14	5659.9	
433.34	7164.5	
433.55	6838.2	
433.75	5700.2	
433.95	6969.2	
434.15	6999.3	
434.35	6748.1	
434.56	5150.6	
434.76	4861.9	
434.96	6932.4	
435.16	7190.4	
435.36	5102.2	
435.56	5948	
435.77	6765.1	
435.97	6925.5	
436.17	6427.9	
436.37	5906.3	
436.57	6734.4	
436.78	6738.5	
436.98	6958.3	
437.18	6396.5	
437.38	7253.2	
437.58	6952.9	
437.78	6449.7	
437.99	5540.4	
438.19	7278.5	
438.39	7877.2	
438.59	5438	
438.79	4956.1	
438.99	7621.9	
439.2	6807.4	
439.4	4973.8	
439.6	4987.5	
439.8	6953.5	
440	7795.9	
440.2	5874.9	
440.4	5951.4	
440.61	7482.6	
440.81	7822.6	
441.01	5512.4	
441.21	6102.3	
441.41	7907.9	
441.61	7602.1	
441.81	6328.2	
442.02	7057.3	
442.22	8267.6	
442.42	7750.2	
442.62	5592.3	
442.82	5549.3	
443.02	7987.1	
443.22	7381.6	
443.43	5991	
443.63	5523.4	
443.83	7230	
444.03	7176.1	
444.23	6533.7	
444.43	6249.7	
444.63	7505.8	
444.83	8338	
445.04	5796.4	
445.24	6660.7	
445.44	7806.2	
445.64	7768.6	
445.84	6206.7	
446.04	6301.6	
446.24	7221.1	
446.44	7905.2	
446.65	5534.3	
446.85	5934.3	
447.05	7283.3	
447.25	7921.5	
447.45	6025.8	
447.65	5448.3	
447.85	7415.7	
448.05	7152.2	
448.25	6275	
448.46	6090	
448.66	7458	
448.86	7181.5	
449.06	5514.5	
449.26	6280.4	
449.46	7763.8	
449.66	6972	
449.86	6044.9	
450.06	5924.8	
450.26	7204.8	
450.47	7659.4	
450.67	6028.5	
450.87	6402	
451.07	7853.3	
451.27	7566.6	
451.47	5667.4	
451.67	6419	
451.87	7428.7	
452.07	8193.2	
452.27	5959.6	
452.47	5948.7	
452.67	7580.9	
452.88	7927	
453.08	5427.8	
453.28	6941.2	
453.48	8496.3	
453.68	7454.6	
453.88	5844.9	
454.08	5978	
454.28	7828	
454.48	7568.6	
454.68	6380.1	
454.88	6722.1	
455.08	8000	
455.28	7817.1	
455.48	5810.1	
455.68	6377.4	
455.89	8448.6	
456.09	8132.5	
456.29	6152.1	
456.49	6299.6	
456.69	8358.4	
456.89	7696.3	
457.09	6650.4	
457.29	6840.9	
457.49	8071	
457.69	8176.2	
457.89	6569.9	
458.09	6076.3	
458.29	8086.7	
458.49	8505.9	
458.69	6893.5	
458.89	6484.6	
459.09	8847.9	
459.29	8888.9	
459.49	6619	
459.69	7115.3	
459.9	8424	
460.1	8184.4	
460.3	6399.2	
460.5	6349.4	
460.7	8343.4	
460.9	8042.4	
461.1	6127.5	
461.3	7055.9	
461.5	9050.7	
461.7	8621.3	
461.9	6599.2	
462.1	6883.2	
462.3	8473.1	
462.5	8744.1	
462.7	6554.2	
462.9	6778.1	
463.1	9515.5	
463.3	9407	
463.5	6901	
463.7	7732.4	
463.9	8714.1	
464.1	9075.2	
464.3	7135.8	
464.5	7252.5	
464.7	9260.9	
464.9	9168.1	
465.1	8354.3	
465.3	7660.1	
465.5	9448.6	
465.7	9536.7	
465.9	7916.1	
466.1	7622.5	
466.3	9444.5	
466.5	9291	
466.7	8451.3	
466.9	7532.4	
467.1	9330.5	
467.3	9966.8	
467.5	8369.4	
467.7	7656	
467.9	10145	
468.1	10927	
468.3	8185	
468.5	8559.8	
468.7	9417.9	
468.9	9316.9	
469.1	7907.2	
469.3	8441.7	
469.5	10741	
469.7	9277.3	
469.9	8288.8	
470.1	7816.4	
470.3	9514.9	
470.5	9592	
470.7	8744.8	
470.9	7901.1	
471.1	9349	
471.3	9563.3	
471.5	7742.7	
471.69	9101.2	
471.89	9276.6	
472.09	8829.5	
472.29	8330.5	
472.49	8503.2	
472.69	9108	
472.89	9613.2	
473.09	7729	
473.29	7692.2	
473.49	9189.2	
473.69	9202.2	
473.89	8307.9	
474.09	7733.1	
474.29	10073	
474.49	9757.2	
474.69	8342.1	
474.89	7832.1	
475.09	9310.7	
475.29	9147.6	
475.49	7465.5	
475.69	7672.4	
475.88	10307	
476.08	9508	
476.28	7534.5	
476.48	7603.4	
476.68	9757.2	
476.88	9482.1	
477.08	7610.3	
477.28	7724.3	
477.48	9180.4	
477.68	9510.1	
477.88	7407.5	
478.08	7636.9	
478.28	9843.2	
478.48	9200.8	
478.67	7787.7	
478.87	7181.5	
479.07	9812.5	
479.27	9240.4	
479.47	7816.4	
479.67	7933.8	
479.87	9742.9	
480.07	10008	
480.27	7368.6	
480.47	8486.8	
480.67	9325.1	
480.87	9867.8	
481.06	7576.1	
481.26	8251.3	
481.46	9497.8	
481.66	9374.9	
481.86	7960.5	
482.06	8572.1	
482.26	9288.2	
482.46	9854.1	
482.66	7830.7	
482.86	7486.7	
483.05	9576.3	
483.25	9003.6	
483.45	9595.4	
483.65	7937.9	
483.85	9177.6	
484.05	9327.1	
484.25	8137.9	
484.45	8646.5	
484.65	10000	
484.84	10037	
485.04	7894.9	
485.24	7933.1	
485.44	10359	
485.64	9086.8	
485.84	7569.3	
486.04	8531.8	
486.24	9422	
486.44	9626.8	
486.63	7468.9	
486.83	8135.9	
487.03	9503.9	
487.23	9593.4	
487.43	7623.9	
487.63	9291	
487.83	9724.4	
488.02	10313	
488.22	8408.3	
488.42	8850	
488.62	10258	
488.82	9579	
489.02	8165.3	
489.22	8240.3	
489.41	10214	
489.61	10048	
489.81	7942.7	
490.01	7948.2	
490.21	10297	
490.41	10713	
490.61	8177.5	
490.8	8212.4	
491	9972.2	
491.2	9444.5	
491.4	8553.7	
491.6	7933.1	
491.8	9894.4	
491.99	9812.5	
492.19	7621.9	
492.39	7918.1	
492.59	10060	
492.79	10045	
492.99	8577.6	
493.18	8017.1	
493.38	10407	
493.58	10922	
493.78	8627.4	
493.98	8286.1	
494.18	10195	
494.37	9833	
494.57	8957.8	
494.77	8752.3	
494.97	10594	
495.17	10835	
495.37	8649.3	
495.56	8898.4	
495.76	11050	
495.96	10841	
496.16	9656.2	
496.36	8983.1	
496.55	11036	
496.75	10743	
496.95	9319.6	
497.15	9099.1	
497.35	10981	
497.54	11062	
497.74	9010.4	
497.94	10292	
498.14	11507	
498.34	11407	
498.53	8836.3	
498.73	9331.2	
498.93	10641	
499.13	11037	
499.33	9314.8	
499.52	9641.8	
499.72	11200	
499.92	11292	
500.12	9159.2	
500.32	9449.3	
500.51	11337	
500.71	11170	
500.91	9950.4	
501.11	9660.3	
501.31	11301	
501.5	11577	
501.7	10297	
501.9	9534	
502.1	11172	
502.29	11413	
502.49	9826.8	
502.69	9889.6	
502.89	11310	
503.09	11243	
503.28	9016.5	
503.48	9090.3	
503.68	10743	
503.88	10710	
504.07	9752.4	
504.27	9312.8	
504.47	10933	
504.67	11017	
504.86	9657.5	
505.06	9478.7	
505.26	10694	
505.46	11865	
505.65	9305.3	
505.85	9387.9	
506.05	10643	
506.25	10969	
506.44	8701.8	
506.64	9267.1	
506.84	10428	
507.04	10986	
507.23	8769.4	
507.43	9188.6	
507.63	11700	
507.83	10518	
508.02	9278.7	
508.22	8914.8	
508.42	12017	
508.62	10371	
508.81	9017.9	
509.01	9552.4	
509.21	10296	
509.4	10423	
509.6	9177.6	
509.8	8787.8	
510	10432	
510.19	11458	
510.39	8748.9	
510.59	8888.9	
510.79	10404	
510.98	11360	
511.18	9003.6	
511.38	9058.2	
511.57	11146	
511.77	10799	
511.97	9463.7	
512.17	8802.9	
512.36	10983	
512.56	10772	
512.76	8743.5	
512.95	8428.8	
513.15	11046	
513.35	10010	
513.55	9260.2	
513.74	8823.3	
513.94	11026	
514.14	10479	
514.33	9478.7	
514.53	9349.7	
514.73	10595	
514.92	10631	
515.12	8917.5	
515.32	8779.6	
515.51	10867	
515.71	10952	
515.91	10044	
516.11	8853.4	
516.3	11934	
516.5	10535	
516.7	9389.9	
516.89	9744.2	
517.09	10507	
517.29	10548	
517.48	9525.8	
517.68	9083.4	
517.88	10342	
518.07	10790	
518.27	9434.3	
518.47	8846.5	
518.66	11220	
518.86	10274	
519.06	8633.6	
519.25	8922.3	
519.45	10439	
519.65	11643	
519.84	9475.3	
520.04	9985.2	
520.24	11927	
520.43	11056	
520.63	9304.6	
520.83	9142.8	
521.02	10468	
521.22	10808	
521.42	9392.7	
521.61	9719.7	
521.81	10520	
522.01	10715	
522.2	9152.4	
522.4	9092.3	
522.6	11011	
522.79	10057	
522.99	9223.4	
523.18	8770.8	
523.38	10978	
523.58	10876	
523.77	10206	
523.97	8970.8	
524.17	12308	
524.36	11938	
524.56	10085	
524.76	9697.8	
524.95	11140	
525.15	10975	
525.34	9770.2	
525.54	9690.3	
525.74	11499	
525.93	10857	
526.13	10585	
526.33	9833.7	
526.52	11951	
526.72	11447	
526.91	10741	
527.11	10187	
527.31	11915	
527.5	12153	
527.7	10101	
527.89	9554.5	
528.09	11246	
528.29	11710	
528.48	10495	
528.68	10211	
528.87	11959	
529.07	11856	
529.27	10221	
529.46	10013	
529.66	11799	
529.85	12031	
530.05	9895.8	
530.25	10426	
530.44	12774	
530.64	11626	
530.83	9996.1	
531.03	10198	
531.23	11935	
531.42	11701	
531.62	10642	
531.81	10103	
532.01	12134	
532.21	12395	
532.4	10168	
532.6	10483	
532.79	12807	
532.99	12400	
533.18	10710	
533.38	11318	
533.58	12091	
533.77	12590	
533.97	10779	
534.16	11170	
534.36	12889	
534.55	12215	
534.75	11521	
534.95	10769	
535.14	13035	
535.34	12333	
535.53	10450	
535.73	11992	
535.92	13289	
536.12	12324	
536.31	10621	
536.51	11414	
536.71	12442	
536.9	12237	
537.1	10454	
537.29	10601	
537.49	12727	
537.68	12082	
537.88	11058	
538.07	10370	
538.27	12375	
538.46	12945	
538.66	10314	
538.86	10776	
539.05	12352	
539.25	12661	
539.44	11026	
539.64	10602	
539.83	12381	
540.03	12986	
540.22	10478	
540.42	10578	
540.61	12415	
540.81	12387	
541	10729	
541.2	11340	
541.39	11899	
541.59	12265	
541.78	11153	
541.98	10320	
542.18	11787	
542.37	11695	
542.57	10613	
542.76	11041	
542.96	11787	
543.15	12163	
543.35	10687	
543.54	10106	
543.74	12189	
543.93	12013	
544.13	10404	
544.32	11155	
544.52	12069	
544.71	11564	
544.91	9764.7	
545.1	10509	
545.3	11615	
545.49	11981	
545.69	9648.7	
545.88	10185	
546.08	12798	
546.27	12351	
546.47	10486	
546.66	9909.4	
546.86	12153	
547.05	12512	
547.24	10104	
547.44	10009	
547.63	11340	
547.83	12241	
548.02	10268	
548.22	10324	
548.41	11171	
548.61	12138	
548.8	9888.3	
549	9938.8	
549.19	11671	
549.39	11958	
549.58	9635	
549.78	10042	
549.97	12023	
550.17	11474	
550.36	10549	
550.55	11261	
550.75	11430	
550.94	12023	
551.14	9604.3	
551.33	9896.5	
551.53	11004	
551.72	11701	
551.92	9972.9	
552.11	9751.7	
552.31	11845	
552.5	11625	
552.69	10998	
552.89	9417.9	
553.08	11749	
553.28	11316	
553.47	9802.9	
553.67	10515	
553.86	11993	
554.06	10849	
554.25	9137.4	
554.44	9482.1	
554.64	12506	
554.83	12173	
555.03	9573.6	
555.22	9766.8	
555.42	11753	
555.61	11525	
555.8	9637.7	
556	9843.2	
556.19	10841	
556.39	11751	
556.58	9539.4	
556.78	9583.1	
556.97	11435	
557.16	11179	
557.36	10522	
557.55	9410.4	
557.75	10670	
557.94	11923	
558.13	9502.6	
558.33	9254.8	
558.52	11829	
558.72	10824	
558.91	9278.7	
559.1	9448	
559.3	10779	
559.49	10499	
559.69	9095	
559.88	9613.2	
560.07	11292	
560.27	11615	
560.46	9843.2	
560.66	9843.9	
560.85	11123	
561.04	10459	
561.24	9209	
561.43	9208.4	
561.63	10632	
561.82	10920	
562.01	10195	
562.21	9405	
562.4	11127	
562.59	11839	
562.79	9427.5	
562.98	9179.7	
563.18	11075	
563.37	12162	
563.56	9771.5	
563.76	9194	
563.95	10709	
564.14	10889	
564.34	9675.3	
564.53	9327.8	
564.73	11305	
564.92	11357	
565.11	9648	
565.31	9164.7	
565.5	11552	
565.69	10759	
565.89	9488.2	
566.08	9531.9	
566.27	11433	
566.47	11872	
566.66	9994.8	
566.85	9076.6	
567.05	11339	
567.24	10896	
567.44	9410.4	
567.63	10332	
567.82	11545	
568.02	11241	
568.21	9401.5	
568.4	9623.4	
568.6	11200	
568.79	11170	
568.98	9238.4	
569.18	9351.7	
569.37	11090	
569.56	12628	
569.76	9858.9	
569.95	10516	
570.14	11482	
570.34	11404	
570.53	9361.9	
570.72	9336.7	
570.91	11835	
571.11	11182	
571.3	9678.7	
571.49	10349	
571.69	11337	
571.88	10856	
572.07	10104	
572.27	9948.3	
572.46	10883	
572.65	11642	
572.85	9573.6	
573.04	9777	
573.23	11841	
573.43	11430	
573.62	9374.2	
573.81	9844.6	
574	11553	
574.2	11249	
574.39	9768.8	
574.58	9807.7	
574.78	12076	
574.97	11564	
575.16	10191	
575.36	10297	
575.55	11996	
575.74	11953	
575.93	9506.7	
576.13	10395	
576.32	11434	
576.51	11824	
576.71	9845.3	
576.9	10779	
577.09	12166	
577.28	11811	
577.48	10258	
577.67	9533.3	
577.86	11519	
578.05	11718	
578.25	9965.4	
578.44	10101	
578.63	11610	
578.83	12549	
579.02	9630.9	
579.21	10753	
579.4	11751	
579.6	11613	
579.79	10185	
579.98	11729	
580.17	11949	
580.37	12092	
580.56	9753.1	
580.75	10266	
580.94	12191	
581.14	12248	
581.33	10780	
581.52	9889	
581.71	11946	
581.91	12518	
582.1	9759.3	
582.29	10038	
582.48	11585	
582.68	11742	
582.87	10531	
583.06	10208	
583.25	11992	
583.45	11415	
583.64	10681	
583.83	11169	
584.02	11716	
584.21	12121	
584.41	10647	
584.6	10215	
584.79	11769	
584.98	12257	
585.18	9979.1	
585.37	9879.4	
585.56	11521	
585.75	12000	
585.94	9893.7	
586.14	10443	
586.33	12347	
586.52	11750	
586.71	10297	
586.91	10004	
587.1	11215	
587.29	11837	
587.48	9891	
587.67	9909.4	
587.87	11765	
588.06	11667	
588.25	10760	
588.44	10149	
588.63	11306	
588.83	11786	
589.02	9879.4	
589.21	9663	
589.4	11284	
589.59	11180	
589.78	9013.8	
589.98	9200.2	
590.17	10672	
590.36	11004	
590.55	8597.4	
590.74	8972.8	
590.94	11680	
591.13	10544	
591.32	8854.7	
591.51	8466.3	
591.7	10783	
591.89	10530	
592.09	8500.4	
592.28	8913.4	
592.47	10144	
592.66	11531	
592.85	8774.9	
593.05	8815.1	
593.24	10640	
593.43	11123	
593.62	8916.2	
593.81	9201.5	
594	10673	
594.19	10680	
594.39	8783.1	
594.58	8741.4	
594.77	10824	
594.96	11232	
595.15	8815.1	
595.34	9131.9	
595.54	10692	
595.73	10108	
595.92	8216.5	
596.11	9002.2	
596.3	11013	
596.49	10183	
596.68	8768.7	
596.88	9063.6	
597.07	10718	
597.26	9965.4	
597.45	8505.2	
597.64	9327.1	
597.83	10304	
598.02	10712	
598.22	8538.7	
598.41	8930.5	
598.6	10567	
598.79	9994.1	
598.98	8531.8	
599.17	9264.3	
599.36	10464	
599.55	11137	
599.74	9922.4	
599.94	9713.5	
600.13	10822	
600.32	10011	
600.51	8299.7	
600.7	8442.4	
600.89	11173	
601.08	11327	
601.27	8273.1	
601.47	8869.1	
601.66	10647	
601.85	11068	
602.04	8827.4	
602.23	8734.6	
602.42	10175	
602.61	10417	
602.8	8635.6	
602.99	8446.5	
603.18	10256	
603.37	10449	
603.57	8842.4	
603.76	9159.2	
603.95	10900	
604.14	10641	
604.33	8507.3	
604.52	8766	
604.71	10400	
604.9	10081	
605.09	9258.9	
605.28	9094.3	
605.47	10985	
605.66	10527	
605.86	8975.6	
606.05	8561.9	
606.24	10840	
606.43	9761.3	
606.62	8725	
606.81	9230.9	
607	10651	
607.19	10224	
607.38	8251.9	
607.57	8374.8	
607.76	9950.4	
607.95	9567.4	
608.14	8888.9	
608.33	9088.2	
608.52	9921.7	
608.72	10627	
608.91	8286.8	
609.1	8108.6	
609.29	10096	
609.48	9645.9	
609.67	8798.8	
609.86	8171.4	
610.05	9735.4	
610.24	9914.9	
610.43	8078.6	
610.62	7782.3	
610.81	10746	
611	10568	
611.19	8051.2	
611.38	8653.4	
611.57	10146	
611.76	10930	
611.95	7954.3	
612.14	7772	
612.33	9917.6	
612.52	9696.4	
612.71	8366.6	
612.9	7718.8	
613.09	9478.7	
613.28	10983	
613.47	8241	
613.66	8890.9	
613.85	10026	
614.04	9629.5	
614.24	8189.8	
614.43	7628	
614.62	10099	
614.81	10016	
615	8449.2	
615.19	8667	
615.38	9574.3	
615.57	9951.1	
615.76	8499.1	
615.95	9169.4	
616.14	10241	
616.33	9978.4	
616.52	8723.7	
616.71	8756.4	
616.9	10112	
617.09	9990	
617.28	8244.4	
617.47	9012.4	
617.66	9577.7	
617.85	9523.1	
618.04	8827.4	
618.22	8490.9	
618.41	9858.2	
618.6	10536	
618.79	8477.9	
618.98	8427.4	
619.17	10722	
619.36	9494.4	
619.55	8553	
619.74	8613.8	
619.93	10326	
620.12	9882.8	
620.31	8970.1	
620.5	8998.8	
620.69	10746	
620.88	11073	
621.07	9641.8	
621.26	8972.2	
621.45	10501	
621.64	10509	
621.83	9088.2	
622.02	8503.2	
622.21	10577	
622.4	10442	
622.59	9447.3	
622.78	9311.4	
622.97	10129	
623.16	10844	
623.35	8981	
623.54	8449.2	
623.72	10369	
623.91	10352	
624.1	9236.3	
624.29	8410.3	
624.48	11211	
624.67	10572	
624.86	9198.8	
625.05	8464.9	
625.24	11307	
625.43	10124	
625.62	10424	
625.81	8602.8	
626	10794	
626.19	10402	
626.38	9142.8	
626.56	8819.2	
626.75	10193	
626.94	10793	
627.13	9203.6	
627.32	8306.6	
627.51	10656	
627.7	11560	
627.89	8432.9	
628.08	9226.8	
628.27	9941.5	
628.46	10176	
628.65	8553	
628.83	8335.9	
629.02	10566	
629.21	9993.4	
629.4	8845.2	
629.59	8950.3	
629.78	10077	
629.97	10616	
630.16	8997.4	
630.35	8544.8	
630.54	11133	
630.72	10791	
630.91	8671.8	
631.1	8961.2	
631.29	10430	
631.48	10500	
631.67	9125.7	
631.86	8642.4	
632.05	10163	
632.24	10208	
632.42	8333.2	
632.61	8859.5	
632.8	10193	
632.99	9968.8	
633.18	8819.2	
633.37	9116.9	
633.56	10417	
633.75	10357	
633.93	8831.5	
634.12	8619.9	
634.31	11005	
634.5	10585	
634.69	8609	
634.88	9019.9	
635.07	10217	
635.25	10617	
635.44	9316.2	
635.63	9448.6	
635.82	10148	
636.01	9636.4	
636.2	9191.3	
636.39	8835.6	
636.57	10873	
636.76	10542	
636.95	8458.8	
637.14	9402.2	
637.33	10307	
637.52	10998	
637.7	8320.9	
637.89	9084.8	
638.08	10167	
638.27	11078	
638.46	8980.3	
638.65	9346.2	
638.83	11011	
639.02	9826.2	
639.21	8998.8	
639.4	9227.5	
639.59	10267	
639.78	9977	
639.96	8294.3	
640.15	8243.8	
640.34	10146	
640.53	10061	
640.72	8118.1	
640.91	8310	
641.09	9590.6	
641.28	10576	
641.47	8242.4	
641.66	8906.6	
641.85	10183	
642.03	10131	
642.22	8586.5	
642.41	8331.1	
642.6	9737.4	
642.79	9301.2	
642.97	8114.7	
643.16	8616.5	
643.35	9566.1	
643.54	9415.2	
643.73	8041.7	
643.91	8501.1	
644.1	9313.5	
644.29	9774.3	
644.48	8008.2	
644.67	8099	
644.85	9313.5	
645.04	9751.1	
645.23	7649.2	
645.42	7881.3	
645.6	9232.2	
645.79	9988.6	
645.98	7843	
646.17	7097.6	
646.36	8920.3	
646.54	9302.6	
646.73	8284.7	
646.92	7439.6	
647.11	8922.3	
647.29	9687.6	
647.48	7478.5	
647.67	7213.6	
647.86	9809.8	
648.05	9866.4	
648.23	7580.2	
648.42	8488.1	
648.61	9405	
648.8	9185.8	
648.98	7350.8	
649.17	7546.1	
649.36	8775.5	
649.55	8544.8	
649.73	7337.2	
649.92	7857.4	
650.11	8742.8	
650.3	9005.6	
650.48	7602.1	
650.67	7319.4	
650.86	9228.8	
651.05	8449.2	
651.23	7410.9	
651.42	7348.8	
651.61	8763.9	
651.79	8749.6	
651.98	7516	
652.17	7167.9	
652.36	9087.5	
652.54	8381.7	
652.73	7225.9	
652.92	7068.2	
653.11	9143.5	
653.29	9157.8	
653.48	6784.2	
653.67	7430.7	
653.85	8824.7	
654.04	9687.6	
654.23	7510.6	
654.42	7185	
654.6	8452.6	
654.79	8922.3	
654.98	6750.8	
655.16	7027.3	
655.35	8016.4	
655.54	7862.2	
655.73	6598.6	
655.91	6415.6	
656.1	8624.7	
656.29	7786.4	
656.47	6226.5	
656.66	7420.5	
656.85	8232.8	
657.03	8108.6	
657.22	6724.8	
657.41	6850.5	
657.59	8302.5	
657.78	8058.8	
657.97	6660.7	
658.16	7109.2	
658.34	8826.1	
658.53	9127.1	
658.72	7737.2	
658.9	8086.1	
659.09	8495	
659.28	8483.4	
659.46	6941.9	
659.65	6912.6	
659.84	8243.8	
660.02	8773.5	
660.21	6947.4	
660.4	6713.9	
660.58	8958.5	
660.77	8475.2	
660.96	7230	
661.14	6572.6	
661.33	9273.9	
661.52	9259.5	
661.7	6480.5	
661.89	8951.7	
662.08	8200.1	
662.26	7849.2	
662.45	6662	
662.64	6756.2	
662.82	8639.7	
663.01	8095.6	
663.2	6802	
663.38	7284.6	
663.57	8561.2	
663.75	8535.3	
663.94	7023.2	
664.13	7815.7	
664.31	8172.8	
664.5	8578.9	
664.69	7305.1	
664.87	7533.8	
665.06	8002.8	
665.25	8456.7	
665.43	7619.8	
665.62	7669	
665.8	8624	
665.99	8144.8	
666.18	6928.3	
666.36	6939.9	
666.55	8578.3	
666.74	8542.8	
666.92	6741.2	
667.11	7857.4	
667.29	8227.4	
667.48	8624	
667.67	7508.5	
667.85	6771.9	
668.04	8129.1	
668.22	8069.7	
668.41	6905.1	
668.6	7245	
668.78	8085.4	
668.97	8182.3	
669.15	7184.3	
669.34	6412.2	
669.53	8062.2	
669.71	8286.1	
669.9	6552.8	
670.08	6954.9	
670.27	7953.6	
670.46	8464.9	
670.64	7111.9	
670.83	7361.1	
671.01	7895.6	
671.2	8303.8	
671.38	6648.4	
671.57	6520.7	
671.76	8813.1	
671.94	9150.3	
672.13	6535.1	
672.31	7228	
672.5	8510	
672.69	8012.3	
672.87	6562.4	
673.06	6827.9	
673.24	8369.4	
673.43	8117.5	
673.61	7074.4	
673.8	6812.2	
673.98	8415.1	
674.17	8598.1	
674.36	7191.8	
674.54	7134.4	
674.73	8224	
674.91	8588.5	
675.1	6864.8	
675.28	6521.4	
675.47	8055.3	
675.65	8475.2	
675.84	6771.9	
676.03	6979.5	
676.21	8038.3	
676.4	7523.6	
676.58	7284.6	
676.77	7157	
676.95	9065	
677.14	8038.3	
677.32	6522.8	
677.51	6390.3	
677.69	8527.1	
677.88	7746.8	
678.06	6494.8	
678.25	6518.7	
678.44	8198.7	
678.62	7903.1	
678.81	6410.1	
678.99	7060	
679.18	8706.6	
679.36	8363.9	
679.55	6784.2	
679.73	7115.3	
679.92	8318.2	
680.1	7913.4	
680.29	7706.5	
680.47	6746.7	
680.66	7918.8	
680.84	8515.5	
681.03	6215.6	
681.21	6991.1	
681.4	7877.9	
681.58	7793.2	
681.77	6571.9	
681.95	6520	
682.14	8531.2	
682.32	8720.9	
682.51	7195.2	
682.69	6319.3	
682.88	7847.1	
683.06	8248.5	
683.25	6890.7	
683.43	7180.2	
683.62	8041.7	
683.8	8301.8	
683.99	7230.7	
684.17	6801.3	
684.36	8893	
684.54	7933.1	
684.73	6171.9	
684.91	6301.6	
685.1	7963.2	
685.28	7513.3	
685.46	6549.4	
685.65	6479.8	
685.83	7935.9	
686.02	7446.4	
686.2	6075	
686.39	6090.7	
686.57	7193.8	
686.76	8364.6	
686.94	6084.5	
687.13	6277	
687.31	7849.9	
687.5	7651.2	
687.68	5913.9	
687.86	6670.2	
688.05	8828.8	
688.23	7290.8	
688.42	6784.2	
688.6	6275.7	
688.79	7641.7	
688.97	7646.4	
689.16	6567.8	
689.34	5778	
689.52	8115.4	
689.71	8357.1	
689.89	6784.2	
690.08	6293.4	
690.26	7886	
690.45	7701.7	
690.63	6922.8	
690.81	6477.7	
691	7843	
691.18	7620.5	
691.37	6510.5	
691.55	8036.2	
691.74	7518.8	
691.92	8904.6	
692.1	6498.9	
692.29	6001.9	
692.47	7689.4	
692.66	7144.7	
692.84	6235.4	
693.02	6518	
693.21	7296.2	
693.39	7689.4	
693.58	6673.6	
693.76	6256.5	
693.94	8485.4	
694.13	8358.4	
694.31	6271.6	
694.5	7058	
694.68	7595.2	
694.86	7970	
695.05	6540.5	
695.23	6656.6	
695.42	8241.7	
695.6	9651.4	
695.78	7035.5	
695.97	6471.6	
696.15	8258.8	
696.34	7742	
696.52	6299.6	
696.7	6847	
696.89	8051.9	
697.07	7583.6	
697.25	6733	
697.44	7766.6	
697.62	7987.1	
697.81	8145.5	
697.99	6485.2	
698.17	6899.6	
698.36	7550.2	
698.54	7983	
698.72	6767.9	
698.91	5976.7	
699.09	7677.2	
699.28	7497.6	
699.46	6466.1	
699.64	6348.7	
699.83	7504.4	
700.01	8252.6	
700.19	6925.5	
700.38	5892	
700.56	8227.4	
700.74	7597.3	
700.93	6047.7	
701.11	6660.7	
701.29	7916.1	
701.48	8642.4	
701.66	6255.9	
701.84	6328.9	
702.03	7705.8	
702.21	8200.1	
702.39	5997.1	
702.58	6479.1	
702.76	8031.5	
702.94	8017.8	
703.13	5967.1	
703.31	7678.5	
703.49	7531.7	
703.68	8113.4	
703.86	6055.8	
704.04	6864.1	
704.23	7873.1	
704.41	8196	
704.59	6232	
704.78	7081.9	
704.96	8987.2	
705.14	8058.1	
705.33	6143.9	
705.51	6621.1	
705.69	7703.1	
705.87	8361.9	
706.06	6858	
706.24	6053.8	
706.42	7995.3	
706.61	8075.8	
706.79	6961.7	
706.97	5963	
707.16	7540.6	
707.34	7984.3	
707.52	6711.9	
707.7	6208.1	
707.89	7505.1	
708.07	7410.2	
708.25	6764.4	
708.44	6948.1	
708.62	7467.6	
708.8	8265.6	
708.98	6931	
709.17	6192.4	
709.35	7776.1	
709.53	7718.1	
709.72	6020.3	
709.9	6102.9	
710.08	7989.1	
710.26	8065.6	
710.45	7144	
710.63	6219	
710.81	7659.4	
710.99	7722.9	
711.18	6679.8	
711.36	6154.8	
711.54	7520.8	
711.72	8063.5	
711.91	6333	
712.09	5864	
712.27	7641.7	
712.45	8193.9	
712.64	6386.2	
712.82	5634	
713	7129	
713.18	7284.6	
713.37	5656.5	
713.55	6638.1	
713.73	7866.9	
713.91	6846.4	
714.1	5904.3	
714.28	5410.1	
714.46	7464.8	
714.64	6767.9	
714.83	4919.9	
715.01	5368.4	
715.19	6761.7	
715.37	6135.7	
715.55	5046.2	
715.74	5387.5	
715.92	7207.5	
716.1	5760.9	
716.28	6142.5	
716.47	5343.2	
716.65	6303	
716.83	6236.1	
717.01	5253	
717.19	5171.1	
717.38	7696.9	
717.56	6004	
717.74	5397.1	
717.92	4746.5	
718.1	6955.6	
718.29	6380.1	
718.47	4545.1	
718.65	5069.4	
718.83	7006.8	
719.01	6909.2	
719.2	4664.6	
719.38	5408.7	
719.56	6787.7	
719.74	7808.9	
719.92	5208.7	
720.11	5858.6	
720.29	6890	
720.47	6242.9	
720.65	4803.9	
720.83	5268.7	
721.02	6397.9	
721.2	6201.2	
721.38	5294.7	
721.56	4728.1	
721.74	5814.9	
721.92	5814.9	
722.11	5584.8	
722.29	5429.8	
722.47	6751.5	
722.65	6152.1	
722.83	4715.8	
723.01	5317.2	
723.2	6197.2	
723.38	6351.4	
723.56	4336.2	
723.74	5154.1	
723.92	5930.9	
724.1	6680.5	
724.29	4608.6	
724.47	5390.3	
724.65	5932.3	
724.83	5793	
725.01	4508.9	
725.19	5099.4	
725.37	5831.9	
725.56	5866.1	
725.74	4461.8	
725.92	4640	
726.1	5847.6	
726.28	6091.3	
726.46	4905.6	
726.64	4696	
726.83	6023.8	
727.01	6154.8	
727.19	4428.4	
727.37	4978.6	
727.55	6134.3	
727.73	6468.2	
727.91	4321.2	
728.09	4378.6	
728.28	6533	
728.46	6627.9	
728.64	5081	
728.82	4980.7	
729	7177.4	
729.18	6735.1	
729.36	4427	
729.54	6121.4	
729.72	7379.5	
729.91	6214.9	
730.09	5808.7	
730.27	4981.3	
730.45	6176.7	
730.63	6661.4	
730.81	5418.9	
730.99	4785.4	
731.17	7049.8	
731.35	6073.6	
731.53	5085.8	
731.71	4838.7	
731.9	6822.5	
732.08	6819.7	
732.26	5044.8	
732.44	4776.5	
732.62	6892.1	
732.8	6596.5	
732.98	5330.9	
733.16	4618.2	
733.34	6645.7	
733.52	5558.2	
733.7	4959.5	
733.88	5085.8	
734.07	6359.6	
734.25	6270.9	
734.43	4582	
734.61	5658.5	
734.79	7233.4	
734.97	6188.3	
735.15	4601.8	
735.33	4882.4	
735.51	6375.3	
735.69	6143.2	
735.87	5674.2	
736.05	5000.5	
736.23	6294.8	
736.41	5984.8	
736.59	4836.6	
736.77	4967.7	
736.95	6556.2	
737.13	6059.9	
737.32	4637.3	
737.5	4769	
737.68	6993.8	
737.86	5982.1	
738.04	4515.1	
738.22	5740.5	
738.4	5911.1	
738.58	6113.9	
738.76	4854.4	
738.94	4161.5	
739.12	5993.7	
739.3	5874.9	
739.48	5313.1	
739.66	5104.2	
739.84	6146	
740.02	6059.9	
740.2	4212.7	
740.38	4459.8	
740.56	6376	
740.74	5496.7	
740.92	4908.3	
741.1	4810.7	
741.28	5995.8	
741.46	5809.4	
741.64	4510.3	
741.82	4959.5	
742	5985.5	
742.18	5868.8	
742.36	4646.8	
742.54	4375.8	
742.72	6365.1	
742.9	5437.4	
743.08	4906.9	
743.26	3966.9	
743.44	6446.3	
743.62	6305.7	
743.8	5003.2	
743.98	4371.7	
744.16	6158.9	
744.34	5902.9	
744.52	4962.9	
744.7	4932.2	
744.88	6189.6	
745.06	5787.6	
745.24	4964.3	
745.42	4967.7	
745.6	6267.5	
745.78	6121.4	
745.96	4120.5	
746.14	4293.9	
746.32	6752.8	
746.5	6155.5	
746.68	4647.5	
746.86	4248.9	
747.03	6498.2	
747.21	5302.9	
747.39	4607.2	
747.57	4235.9	
747.75	5887.2	
747.93	6082.5	
748.11	4308.2	
748.29	4191.5	
748.47	7088	
748.65	5629.9	
748.83	4747.2	
749.01	4532.8	
749.19	6021	
749.37	5392.3	
749.55	4491.2	
749.73	4505.5	
749.91	5776	
750.09	5547.9	
750.26	4519.9	
750.44	4090.5	
750.62	5754.1	
750.8	5693.4	
750.98	4013.3	
751.16	4182	
751.34	5893.4	
751.52	5291.3	
751.7	4764.3	
751.88	3942.3	
752.06	6232.7	
752.24	5872.9	
752.42	3885.7	
752.59	4173.8	
752.77	5712.5	
752.95	6554.2	
753.13	4733.5	
753.31	4238.6	
753.49	5468.8	
753.67	5778	
753.85	4472.8	
754.03	4119.1	
754.21	5952.8	
754.38	6130.9	
754.56	4267.3	
754.74	3489.7	
754.92	5322.7	
755.1	5839.4	
755.28	3497.9	
755.46	3450.8	
755.64	6361	
755.82	6403.3	
755.99	3639.2	
756.17	3635.1	
756.35	4465.9	
756.53	5573.9	
756.71	2784.6	
756.89	3475.4	
757.07	5260.5	
757.25	4601.1	
757.42	3910.3	
757.6	4556.7	
757.78	5314.5	
757.96	4594.3	
758.14	3719.1	
758.32	3375.7	
758.5	4319.2	
758.67	4980.7	
758.85	3609.2	
759.03	3597.6	
759.21	5150	
759.39	4617.5	
759.57	3267.2	
759.75	4035.9	
759.92	5571.2	
760.1	5119.2	
760.28	4302.8	
760.46	4541.7	
760.64	4890.5	
760.82	4728.8	
760.99	4258.4	
761.17	3715	
761.35	5487.2	
761.53	4713.1	
761.71	3732.1	
761.89	4187.4	
762.06	5377.3	
762.24	5041.4	
762.42	3867.2	
762.6	3645.4	
762.78	5029.8	
762.96	5485.8	
763.13	4095.3	
763.31	3855	
763.49	5655.1	
763.67	4968.4	
763.85	4526.7	
764.02	4851.6	
764.2	5829.9	
764.38	5159.5	
764.56	3790.8	
764.74	4382	
764.91	5930.2	
765.09	4995	
765.27	3571.7	
765.45	3384.6	
765.63	5952.1	
765.8	5709.1	
765.98	3265.1	
766.16	3525.9	
766.34	4760.8	
766.52	4564.2	
766.69	4104.8	
766.87	3296.5	
767.05	5090.6	
767.23	5630.5	
767.41	3530	
767.58	3697.9	
767.76	5505.6	
767.94	5489.2	
768.12	3643.3	
768.29	4095.3	
768.47	5029.8	
768.65	5549.3	
768.83	3280.2	
769	4157.4	
769.18	4743.8	
769.36	5238	
769.54	4096.6	
769.72	3316.3	
769.89	5543.9	
770.07	5482.4	
770.25	3624.2	
770.43	4483	
770.6	6046.3	
770.78	6243.6	
770.96	3758.7	
771.14	4095.3	
771.31	5387.5	
771.49	4905.6	
771.67	3112.2	
771.85	3237.8	
772.02	4377.9	
772.2	4848.9	
772.38	3807.9	
772.55	3457	
772.73	5172.5	
772.91	4924.7	
773.09	3708.9	
773.26	3760.8	
773.44	5042.1	
773.62	4861.9	
773.8	3335.5	
773.97	3149.8	
774.15	5108.3	
774.33	4868.7	
774.5	3244.7	
774.68	3528.7	
774.86	5238	
775.04	4859.1	
775.21	3304.7	
775.39	3276.1	
775.57	5018.2	
775.74	5229.8	
775.92	3161.4	
776.1	3095.8	
776.27	5044.8	
776.45	5909.1	
776.63	3248.8	
776.81	2985.9	
776.98	4812	
777.16	5500.8	
777.34	3463.1	
777.51	3578.5	
777.69	4835.3	
777.87	4556.7	
778.04	3479.5	
778.22	3848.8	
778.4	4584	
778.57	5109.7	
778.75	2908.1	
778.93	3132	
779.1	4459.8	
779.28	4312.3	
779.46	2885.6	
779.64	3209.2	
779.81	5259.9	
779.99	5720.7	
780.17	3823.6	
780.34	3901.4	
780.52	4825	
780.69	4851.6	
780.87	3469.9	
781.05	3148.4	
781.22	4825	
781.4	4820.9	
781.58	3269.9	
781.75	2674.6	
781.93	4881.7	
782.11	4302.8	
782.28	3902.1	
782.46	3260.4	
782.64	4231.8	
782.81	4982.7	
782.99	3384.6	
783.17	3265.8	
783.34	4878.9	
783.52	4426.3	
783.69	3369.6	
783.87	4027.7	
784.05	4471.4	
784.22	4405.2	
784.4	4048.8	
784.58	3505.4	
784.75	5120.6	
784.93	4481.6	
785.1	3223.5	
785.28	3726.6	
785.46	4888.5	
785.63	4327.4	
785.81	3248.8	
785.99	3123.8	
786.16	4541.7	
786.34	4731.5	
786.51	3147.7	
786.69	3452.9	
786.87	4220.2	
787.04	4562.9	
787.22	3089	
787.39	3784	
787.57	4404.5	
787.75	5158.2	
787.92	3905.5	
788.1	3837.9	
788.27	4382	
788.45	4201.1	
788.63	3633.1	
788.8	2689	
788.98	4855.7	
789.15	4108.2	
789.33	2811.9	
789.5	3276.1	
789.68	5055.1	
789.86	5137	
790.03	3532.7	
790.21	3132	
790.38	5145.2	
790.56	4517.1	
790.73	3066.5	
790.91	3033.7	
791.09	4398.4	
791.26	4907.6	
791.44	3274	
791.61	2834.4	
791.79	4412.7	
791.96	4413.4	
792.14	2940.9	
792.32	2638.5	
792.49	4388.1	
792.67	4491.9	
792.84	2985.9	
793.02	2873.3	
793.19	4801.1	
793.37	5186.1	
793.54	2624.1	
793.72	2897.9	
793.89	5300.8	
794.07	4356	
794.25	3207.8	
794.42	2651.4	
794.6	5156.1	
794.77	4825.7	
794.95	3497.9	
795.12	3075.4	
795.3	4392.2	
795.47	4787.5	
795.65	3411.2	
795.82	3265.8	
796	4249.5	
796.17	5683.1	
796.35	3211.2	
796.52	3678.8	
796.7	4848.9	
796.87	4852.3	
797.05	3149.8	
797.22	3764.8	
797.4	4891.2	
797.57	5526.8	
797.75	3327.9	
797.92	3127.2	
798.1	5025	
798.27	4274.8	
798.45	2691.7	
798.62	2868.5	
798.8	4624.3	
798.97	4955.4	
799.15	3375.1	
799.32	3334.8	
799.5	4129.4	
799.67	4589.5	
799.85	3535.5	
800.02	2667.8	
800.2	4433.2	
800.37	4510.3	
800.55	3588.7	
800.72	3096.5	
800.9	4945.2	
801.07	5289.9	
801.25	4042	
801.42	3366.9	
801.6	5006.6	
801.77	4650.9	
801.95	3218.7	
802.12	3011.9	
802.29	4783.4	
802.47	4686.4	
802.64	3341.6	
802.82	2618.7	
802.99	4339.6	
803.17	5093.3	
803.34	3297.2	
803.52	2974.3	
803.69	5511.1	
803.87	4121.9	
804.04	3239.9	
804.21	3340.9	
804.39	5180	
804.56	4462.5	
804.74	2834.4	
804.91	3422.8	
805.09	4388.1	
805.26	4419.5	
805.44	2863.7	
805.61	3082.2	
805.78	4937.7	
805.96	4857.8	
806.13	3336.1	
806.31	3538.2	
806.48	4026.3	
806.66	4405.9	
806.83	3393.5	
807	3250.1	
807.18	4406.5	
807.35	4615.4	
807.53	3231	
807.7	2708.8	
807.87	5182	
808.05	4384.7	
808.22	3531.4	
808.4	2688.3	
808.57	4285	
808.74	4108.9	
808.92	3080.8	
809.09	3749.8	
809.27	4367	
809.44	4744.5	
809.61	2714.9	
809.79	2988	
809.96	5320.6	
810.14	4897.4	
810.31	2682.2	
810.48	3171.6	
810.66	4485.1	
810.83	4923.3	
811.01	3024.8	
811.18	3377.8	
811.35	4858.5	
811.53	3939.6	
811.7	3614.7	
811.87	3402.4	
812.05	4434.5	
812.22	4360.8	
812.39	2969.6	
812.57	2887.6	
812.74	4461.8	
812.92	5585.5	
813.09	3211.9	
813.26	3420.1	
813.44	5418.2	
813.61	4302.1	
813.78	2697.2	
813.96	3469.3	
814.13	4433.9	
814.3	4192.9	
814.48	3756.7	
814.65	3181.9	
814.82	5217.5	
815	4094.6	
815.17	3262.4	
815.34	3840.6	
815.52	4332.8	
815.69	4343.7	
815.87	3190.1	
816.04	3089.7	
816.21	4381.3	
816.38	3986	
816.56	3118.4	
816.73	2969.6	
816.9	5393.7	
817.08	4855.1	
817.25	3011.2	
817.42	3656.3	
817.6	4098.7	
817.77	4368.3	
817.94	3288.4	
818.12	2906.1	
818.29	4255	
818.46	6082.5	
818.64	3045.3	
818.81	2906.8	
818.98	4164.9	
819.16	5606.7	
819.33	3421.5	
819.5	3297.9	
819.67	4622.9	
819.85	5126.1	
820.02	3196.9	
820.19	3334.8	
820.37	4589.5	
820.54	4353.3	
820.71	3253.5	
820.88	3991.5	
821.06	4525.3	
821.23	4233.8	
821.4	3309.5	
821.58	3296.5	
821.75	4848.9	
821.92	4504.2	
822.09	2725.8	
822.27	2828.9	
822.44	4403.1	
822.61	4301.4	
822.79	2756.6	
822.96	4863.9	
823.13	4648.2	
823.3	4111.6	
823.48	3082.2	
823.65	2799.6	
823.82	4900.8	
823.99	4054.3	
824.17	3827.7	
824.34	2886.3	
824.51	5525.4	
824.68	4453.6	
824.86	2988	
825.03	3239.2	
825.2	4377.9	
825.37	5109.7	
825.55	2983.9	
825.72	3206.4	
825.89	5497.4	
826.06	5197.1	
826.24	3181.9	
826.41	3160	
826.58	5215.5	
826.75	4539	
826.92	2635.1	
827.1	2841.9	
827.27	6792.4	
827.44	5472.9	
827.61	2987.3	
827.79	3553.2	
827.96	4252.9	
828.13	4399.7	
828.3	3134.1	
828.47	2712.2	
828.65	4653	
828.82	4560.1	
828.99	3873.4	
829.16	3500	
829.34	4855.7	
829.51	4758.8	
829.68	3253.5	
829.85	3297.2	
830.02	5233.2	
830.2	4894.6	
830.37	2545.6	
830.54	3794.2	
830.71	5466	
830.88	4442	
831.05	2564.1	
831.23	2921.8	
831.4	5324	
831.57	5748	
831.74	3072.6	
831.91	2749.1	
832.09	4709	
832.26	4870.8	
832.43	3065.1	
832.6	3391.4	
832.77	4635.2	
832.94	5153.4	
833.12	2525.8	
833.29	3030.3	
833.46	4376.5	
833.63	5954.1	
833.8	3338.9	
833.97	3083.6	
834.15	4924.7	
834.32	4762.2	
834.49	3235.8	
834.66	3291.1	
834.83	5012.7	
835	4238.6	
835.17	2986.6	
835.35	2938.8	
835.52	4848.9	
835.69	4702.8	
835.86	3114.3	
836.03	2615.9	
836.2	4908.3	
836.37	4631.8	
836.55	3096.5	
836.72	2892.4	
836.89	4607.2	
837.06	4980	
837.23	3158	
837.4	3380.5	
837.57	5525.4	
837.75	5890.6	
837.92	2807.8	
838.09	2977.7	
838.26	4622.3	
838.43	5023	
838.6	3220.8	
838.77	2948.4	
838.94	5646.2	
839.11	5512.4	
839.29	3139.5	
839.46	2508.1	
839.63	4876.9	
839.8	4663.9	
839.97	3027.6	
840.14	2964.1	
840.31	4759.5	
840.48	4845.5	
840.65	2565.4	
840.82	2968.2	
841	4900.8	
841.17	4785.4	
841.34	2751.1	
841.51	2818.7	
841.68	4865.3	
841.85	4635.2	
842.02	2897.2	
842.19	2464.4	
842.36	4705.5	
842.53	4696	
842.7	2648	
842.87	3287	
843.05	5956.9	
843.22	4612	
843.39	2661.7	
843.56	2880.8	
843.73	4542.4	
843.9	4935.6	
844.07	4303.5	
844.24	3584.6	
844.41	6589.7	
844.58	4324.6	
844.75	2674.6	
844.92	2933.4	
845.09	4862.6	
845.26	4878.9	
845.43	2747.7	
845.6	2957.9	
845.77	4886.5	
845.94	4677.6	
846.12	3024.8	
846.29	3179.1	
846.46	5048.2	
846.63	4871.4	
846.8	2772.9	
846.97	3209.8	
847.14	5193.6	
847.31	4836.6	
847.48	3080.1	
847.65	3374.4	
847.82	5003.9	
847.99	4975.9	
848.16	3633.1	
848.33	3403	
848.5	4475.5	
848.67	5182.7	
848.84	2744.3	
849.01	2874	
849.18	4476.2	
849.35	4232.5	
849.52	3392.8	
849.69	2738.8	
849.86	5046.9	
850.03	5083.7	
850.2	2794.8	
850.37	3327.3	
850.54	5064.6	
850.71	4582	
850.88	3300.6	
851.05	2722.4	
851.22	4768.4	
851.39	5257.1	
851.56	2607.7	
851.73	3201	
851.9	4367	
852.07	5059.8	
852.24	3054.9	
852.41	2818.7	
852.58	4812	
852.75	4411.3	
852.92	3081.5	
853.09	2747.7	
853.26	4513.7	
853.43	5126.1	
853.6	2723.8	
853.77	2400.2	
853.94	5254.4	
854.11	4305.5	
854.28	3938.9	
854.44	2990.7	
854.61	5509.7	
854.78	5069.4	
854.95	2751.1	
855.12	3398.3	
855.29	4059.8	
855.46	5315.8	
855.63	2738.8	
855.8	3729.4	
855.97	4474.8	
856.14	5123.3	
856.31	3749.8	
856.48	2982.5	
856.65	4591.5	
856.82	4288.4	
856.99	2661.7	
857.16	2996.9	
857.33	5705.6	
857.49	4636.6	
857.66	2889.7	
857.83	3185.3	
858	4627.7	
858.17	4729.4	
858.34	2643.2	
858.51	2809.8	
858.68	5302.2	
858.85	5331.5	
859.02	3139.5	
859.19	3320.4	
859.36	4387.4	
859.52	4355.3	
859.69	2735.4	
859.86	3203.7	
860.03	4332.8	
860.2	5239.4	
860.37	2569.5	
860.54	2788.7	
860.71	5043.5	
860.88	5275.6	
861.05	3080.8	
861.21	3392.8	
861.38	5241.4	
861.55	4214.7	
861.72	2579.1	
861.89	3057.6	
862.06	5066.7	
862.23	5399.1	
862.4	2656.9	
862.56	2868.5	
862.73	4919.9	
862.9	4689.2	
863.07	3135.4	
863.24	2532.7	
863.41	4282.3	
863.58	4378.6	
863.75	2842.6	
863.91	3174.4	
864.08	5253	
864.25	4994.3	
864.42	3368.2	
864.59	3762.8	
864.76	5442.8	
864.93	4339.6	
865.09	2666.5	
865.26	2937.5	
865.43	5204.6	
865.6	5484.5	
865.77	2494.4	
865.94	2748.4	
866.1	5182.7	
866.27	5033.2	
866.44	4002.4	
866.61	2648.7	
866.78	4626.4	
866.95	4931.5	
867.11	2682.2	
867.28	2504	
867.45	5106.3	
867.62	4326	
867.79	3102	
867.96	2734.7	
868.12	4296	
868.29	4999.1	
868.46	2792.7	
868.63	3560.7	
868.8	5080.3	
868.97	4963.6	
869.13	2861.7	
869.3	2879.4	
869.47	4859.1	
869.64	5075.5	
869.81	2787.3	
869.97	2763.4	
870.14	4814.1	
870.31	5253.7	
870.48	2687.6	
870.65	3420.8	
870.81	4625	
870.98	4656.4	
871.15	3072	
871.32	2904	
871.48	4889.9	
871.65	5297.4	
871.82	2768.2	
871.99	3026.2	
872.16	5662.6	
872.32	5124.7	
872.49	2744.3	
872.66	2822.8	
872.83	5031.9	
872.99	4478.2	
873.16	3118.4	
873.33	2788.7	
873.5	4707.6	
873.67	4784.7	
873.83	2907.4	
874	3635.8	
874.17	4824.3	
874.34	5535	
874.5	3497.2	
874.67	3367.5	
874.84	5259.2	
875.01	4196.3	
875.17	3728.7	
875.34	2752.5	
875.51	4866.7	
875.68	5658.5	
875.84	3243.3	
876.01	3908.9	
876.18	4993.6	
876.34	4904.9	
876.51	2748.4	
876.68	2735.4	
876.85	4518.5	
877.01	5214.1	
877.18	3780.6	
877.35	2744.3	
877.52	4759.5	
877.68	4333.5	
877.85	2736.8	
878.02	2736.8	
878.18	4602.5	
878.35	4556	
878.52	2237.1	
878.69	3045.3	
878.85	5114.5	
879.02	4952	
879.19	3820.1	
879.35	2951.8	
879.52	4995.7	
879.69	5066.7	
879.86	2468.5	
880.02	3041.9	
880.19	4739.7	
880.36	5534.3	
880.52	3130.7	
880.69	3251.5	
880.86	5102.9	
881.02	5024.3	
881.19	3065.8	
881.36	2974.3	
881.52	4919.9	
881.69	4474.1	
881.86	2981.2	
882.02	2955.9	
882.19	5126.7	
882.36	5909.8	
882.52	2813.2	
882.69	3799	
882.86	4815.5	
883.02	4763.6	
883.19	3317.7	
883.36	3121.1	
883.52	5053	
883.69	5659.9	
883.86	2807.1	
884.02	2555.9	
884.19	5030.5	
884.36	4717.2	
884.52	3037.1	
884.69	2917.7	
884.86	4508.3	
885.02	5397.1	
885.19	3039.9	
885.36	3066.5	
885.52	4667.3	
885.69	4867.3	
885.86	3844	
886.02	3457	
886.19	5036.6	
886.35	4543.1	
886.52	3021.4	
886.69	3751.2	
886.85	4354.7	
887.02	5272.2	
887.19	5272.2	
887.35	5272.2	
887.52	5272.2	
887.68	5272.2	
887.85	5272.2	
888.02	5272.2	
888.18	5272.2	
888.35	5272.2	
888.51	5272.2	
888.68	5272.2	
888.85	5272.2	
889.01	5272.2	
889.18	5272.2	
889.35	5272.2	
889.51	5272.2	
889.68	5272.2	
889.84	5272.2	
890.01	5272.2	
890.17	5272.2	
890.34	5272.2	
890.51	5272.2	
890.67	5272.2	
890.84	5272.2	
891	5272.2	
891.17	5272.2	
891.34	5272.2	
891.5	5272.2	
891.67	5272.2	
891.83	5272.2	
892	5272.2	
892.16	5272.2	
892.33	5272.2	
892.5	5272.2	
892.66	5272.2	
892.83	5272.2	
892.99	5272.2	
893.16	5272.2	
893.32	5272.2	
893.49	5272.2	
893.65	5272.2	
893.82	5272.2	
893.99	5272.2	
894.15	5272.2	
894.32	5272.2	
894.48	5272.2	
894.65	5272.2	
894.81	5272.2	
894.98	5272.2	
895.14	5272.2	
895.31	5272.2	
895.47	5272.2	
895.64	5272.2	
895.81	5272.2	
895.97	5272.2	
896.14	5272.2	
896.3	5272.2	
896.47	5272.2	
896.63	5272.2	
896.8	5272.2	
896.96	5272.2	
897.13	5272.2	
897.29	5272.2	
897.46	5272.2	
897.62	5272.2	
897.79	5272.2	
897.95	5272.2	
898.12	5272.2	
898.28	5272.2	
898.45	5272.2	
898.61	5272.2	
898.78	5272.2	
898.94	5272.2	
899.11	5272.2	
899.27	5272.2	
899.44	5272.2	
899.6	5272.2	
899.77	5272.2	
899.93	5272.2	
900.1	5272.2	
900.26	5272.2	
900.43	5272.2	
900.59	5272.2	
900.76	5272.2	
900.92	5272.2	
901.09	5272.2	
901.25	5272.2	
901.42	5272.2	
901.58	5272.2	
901.75	5272.2	
901.91	5272.2	
902.07	5272.2	
902.24	5272.2	
902.4	5272.2	
902.57	5272.2	
902.73	5272.2	
902.9	5272.2	
903.06	5272.2	
903.23	5272.2	
903.39	5272.2	
903.56	5272.2	
903.72	5272.2	
903.88	5272.2	
904.05	5272.2	
904.21	5272.2	
904.38	5272.2	
904.54	5272.2	
904.71	5272.2	
904.87	5272.2	
905.03	5272.2	
905.2	5272.2	
905.36	5272.2	
905.53	5272.2	
905.69	5272.2	
905.86	5272.2	
906.02	5272.2	
906.18	5272.2	
906.35	5272.2	
906.51	5272.2	
906.68	5272.2	
906.84	5272.2	
907.01	5272.2	
907.17	5272.2	
907.33	5272.2	
907.5	5272.2	
907.66	5272.2	
907.83	5272.2	
907.99	5272.2	
908.15	5272.2	
908.32	5272.2	
908.48	5272.2	
908.65	5272.2	
908.81	5272.2	
908.97	5272.2	
909.14	5272.2	
909.3	5272.2	
909.47	5272.2	
909.63	5272.2	
909.79	5272.2	
909.96	5272.2	
910.12	5272.2	
910.28	5272.2	
910.45	5272.2	
910.61	5272.2	
910.78	5272.2	
910.94	5272.2	
911.1	5272.2	
911.27	5272.2	
911.43	5272.2	
911.59	5272.2	
911.76	5272.2	
911.92	5272.2	
912.08	5272.2	
912.25	5272.2	
912.41	5272.2	
912.57	5272.2	
912.74	5272.2	
912.9	5272.2	
913.07	5272.2	
913.23	5272.2	
913.39	5272.2	
913.56	5272.2	
913.72	5272.2	
913.88	5272.2	
914.05	5272.2	
914.21	5272.2	
914.37	5272.2	
914.54	5272.2	
914.7	5272.2	
914.86	5272.2	
915.03	5272.2	
915.19	5272.2	
