Wavelength	Intensities	
nm	a.u.	
179.22	1921.5	
179.44	1916.6	
179.65	1926.5	
179.86	1906.7	
180.08	1904.6	
180.29	4846.2	
180.51	3520.5	
180.72	5584.8	
180.94	6581.5	
181.15	3159.3	
181.37	3127.2	
181.58	5506.3	
181.79	5767.8	
182.01	3308.8	
182.22	3610.6	
182.44	5806.7	
182.65	4823	
182.87	4509.6	
183.08	3981.9	
183.29	6040.1	
183.51	4974.5	
183.72	3596.9	
183.94	5249.6	
184.15	5330.2	
184.37	5416.2	
184.58	3179.1	
184.79	4354	
185.01	4946.5	
185.22	5721.3	
185.44	4625.7	
185.65	3827.7	
185.86	5245.5	
186.08	4817.5	
186.29	3051.5	
186.51	3358.7	
186.72	4994.3	
186.94	5819	
187.15	3808.5	
187.36	3919.8	
187.58	7712	
187.79	5440.1	
188.01	4103.4	
188.22	6531	
188.43	6548.7	
188.65	5702.2	
188.86	3343.7	
189.08	3972.4	
189.29	5134.3	
189.5	5190.2	
189.72	3676.1	
189.93	3763.5	
190.15	5951.4	
190.36	7051.8	
190.57	4048.2	
190.79	3941	
191	5986.9	
191.22	6021	
191.43	4081.6	
191.64	3327.9	
191.86	6244.3	
192.07	5978	
192.29	3449.5	
192.5	3715.7	
192.71	5927.5	
192.93	5021.6	
193.14	3668.6	
193.35	3763.5	
193.57	5085.8	
193.78	5955.5	
194	2977.7	
194.21	3581.2	
194.42	4932.9	
194.64	5392.3	
194.85	4000.4	
195.07	4648.9	
195.28	5451	
195.49	4645.5	
195.71	4901.5	
195.92	3431	
196.13	5573.2	
196.35	5655.8	
196.56	5186.8	
196.78	3929.4	
196.99	6950.8	
197.2	6511.2	
197.42	4518.5	
197.63	3982.6	
197.84	4829.8	
198.06	5562.3	
198.27	3695.2	
198.48	4883.7	
198.7	5154.7	
198.91	5292	
199.13	4031.8	
199.34	4009.9	
199.55	5795.1	
199.77	4659.1	
199.98	3553.9	
200.19	4000.4	
200.41	5285.1	
200.62	4977.2	
200.83	4250.2	
201.05	4515.1	
201.26	5251	
201.47	5052.3	
201.69	3540.9	
201.9	3444	
202.11	5421	
202.33	6375.3	
202.54	3773.7	
202.76	4225.6	
202.97	5461.2	
203.18	5498.8	
203.4	4136.9	
203.61	4022.9	
203.82	5436.7	
204.04	5057.1	
204.25	4098	
204.46	3928	
204.68	5398.4	
204.89	5574.6	
205.1	3910.3	
205.32	3389.4	
205.53	5763	
205.74	5916.6	
205.96	2919	
206.17	4061.1	
206.38	5730.2	
206.6	5920	
206.81	4630.5	
207.02	3753.9	
207.24	5668.1	
207.45	6004	
207.66	3837.2	
207.88	3266.5	
208.09	5547.3	
208.3	5344.5	
208.52	3510.9	
208.73	3854.3	
208.94	5369.1	
209.15	6055.2	
209.37	3834.5	
209.58	4007.2	
209.79	5911.8	
210.01	5148.6	
210.22	3054.9	
210.43	3220.1	
210.65	5346.6	
210.86	5784.1	
211.07	3820.1	
211.29	3519.8	
211.5	5693.4	
211.71	5292	
211.93	3508.9	
212.14	3514.3	
212.35	5288.5	
212.56	5553.4	
212.78	4020.2	
212.99	3343.7	
213.2	6335.7	
213.42	5143.8	
213.63	3614.7	
213.84	3848.8	
214.06	4775.9	
214.27	4911.7	
214.48	3801	
214.69	4128	
214.91	6010.8	
215.12	6137.1	
215.33	4026.3	
215.55	4549.2	
215.76	6609.5	
215.97	5700.2	
216.18	3936.2	
216.4	3852.9	
216.61	5059.8	
216.82	5918.6	
217.04	3580.5	
217.25	3673.4	
217.46	6032	
217.67	5778.7	
217.89	3165.5	
218.1	3272	
218.31	5465.3	
218.53	5538.4	
218.74	3742.3	
218.95	3531.4	
219.16	5320.6	
219.38	6236.7	
219.59	3566.2	
219.8	4275.5	
220.01	6936.5	
220.23	5436	
220.44	4694.6	
220.65	3519.8	
220.87	5494.7	
221.08	5982.1	
221.29	3231	
221.5	4346.5	
221.72	7304.4	
221.93	5094	
222.14	4077.5	
222.35	4751.3	
222.57	5378	
222.78	5735.7	
222.99	3820.8	
223.2	4151.9	
223.42	5629.9	
223.63	5810.8	
223.84	2908.8	
224.05	2925.2	
224.27	6838.9	
224.48	6246.3	
224.69	4727.4	
224.9	4014	
225.12	5566.4	
225.33	5330.2	
225.54	3243.3	
225.75	3588.7	
225.97	4965	
226.18	5201.2	
226.39	3880.9	
226.6	3659	
226.82	5137.7	
227.03	4992.9	
227.24	3971	
227.45	3353.9	
227.67	5719.3	
227.88	6331	
228.09	4519.2	
228.3	4504.8	
228.52	5741.8	
228.73	5357.5	
228.94	3772.4	
229.15	3359.4	
229.36	5259.2	
229.58	5244.2	
229.79	3745.1	
230	4413.4	
230.21	6353.5	
230.43	5507	
230.64	3996.3	
230.85	4072	
231.06	5786.9	
231.28	5769.1	
231.49	3315	
231.7	3894.6	
231.91	5662	
232.12	5411.4	
232.34	3373	
232.55	3863.2	
232.76	5947.3	
232.97	5567.7	
233.18	3517	
233.4	3958	
233.61	5642.2	
233.82	5077.6	
234.03	3716.4	
234.25	3639.2	
234.46	7453.2	
234.67	5436	
234.88	4104.1	
235.09	3571	
235.31	5724.8	
235.52	5279.7	
235.73	3992.2	
235.94	3360	
236.15	5060.5	
236.37	6509.1	
236.58	3532.7	
236.79	3839.3	
237	5649.7	
237.21	4887.1	
237.43	4159.4	
237.64	3209.8	
237.85	9713.5	
238.06	4925.4	
238.27	4241.3	
238.48	3353.2	
238.7	5697.4	
238.91	5162.2	
239.12	3788.7	
239.33	3970.3	
239.54	4980	
239.76	5330.2	
239.97	3814.7	
240.18	3835.2	
240.39	6724.2	
240.6	5662.6	
240.82	3971.7	
241.03	3249.4	
241.24	5329.5	
241.45	6228.6	
241.66	3500.7	
241.87	4172.4	
242.09	6104.3	
242.3	6504.3	
242.51	4136.9	
242.72	3866.6	
242.93	5849.7	
243.14	5286.5	
243.36	4483.7	
243.57	4847.5	
243.78	6178	
243.99	5719.3	
244.2	3926	
244.41	3485	
244.63	4968.4	
244.84	5693.4	
245.05	4171.7	
245.26	3838.6	
245.47	5630.5	
245.68	5898.1	
245.9	5122.7	
246.11	4042	
246.32	5229.1	
246.53	5618.9	
246.74	6207.4	
246.95	3263.1	
247.16	4865.3	
247.38	5373.9	
247.59	3228.3	
247.8	3874.8	
248.01	5068	
248.22	5264.6	
248.43	3534.8	
248.64	3788.1	
248.86	4760.8	
249.07	5153.4	
249.28	3407.1	
249.49	3902.1	
249.7	5961.6	
249.91	6095.4	
250.12	3168.2	
250.34	3286.3	
250.55	5499.5	
250.76	5340.4	
250.97	4011.3	
251.18	4044.1	
251.39	6082.5	
251.6	5510.4	
251.81	4084.3	
252.03	4015.4	
252.24	5066.7	
252.45	5892	
252.66	3369.6	
252.87	4256.4	
253.08	5358.9	
253.29	7094.2	
253.5	3402.4	
253.72	4661.2	
253.93	5214.8	
254.14	6402	
254.35	3721.8	
254.56	3745.7	
254.77	5687.9	
254.98	4976.6	
255.19	3633.1	
255.41	4564.2	
255.62	5439.4	
255.83	6081.1	
256.04	4091.8	
256.25	4089.1	
256.46	6634.1	
256.67	5030.5	
256.88	3938.2	
257.09	4381.3	
257.31	5072.1	
257.52	5023.7	
257.73	4977.9	
257.94	3638.6	
258.15	5223	
258.36	5356.8	
258.57	4589.5	
258.78	2912.9	
258.99	5796.4	
259.2	5176.6	
259.41	3705.5	
259.63	3762.8	
259.84	6192.4	
260.05	6618.4	
260.26	4848.2	
260.47	3549.8	
260.68	5971.9	
260.89	5264.6	
261.1	4407.9	
261.31	3516.4	
261.52	5953.4	
261.73	6385.6	
261.95	4723.3	
262.16	4139.6	
262.37	6089.3	
262.58	6137.8	
262.79	4718.5	
263	3762.1	
263.21	5371.8	
263.42	4868.7	
263.63	3766.2	
263.84	3717.7	
264.05	5954.1	
264.26	6292.7	
264.47	4583.4	
264.69	4115.7	
264.9	6067.4	
265.11	5630.5	
265.32	3526.6	
265.53	3622.9	
265.74	5494.7	
265.95	4805.2	
266.16	3932.1	
266.37	4347.2	
266.58	5496.1	
266.79	5178.6	
267	3637.2	
267.21	3357.3	
267.42	4943.8	
267.63	5364.3	
267.84	3843.4	
268.06	3257.6	
268.27	5795.1	
268.48	6086.6	
268.69	3780.6	
268.9	4442	
269.11	6015.6	
269.32	4901.5	
269.53	3878.2	
269.74	3538.2	
269.95	5737	
270.16	4751.3	
270.37	3844.7	
270.58	4410.6	
270.79	5214.1	
271	5915.9	
271.21	4146.5	
271.42	3925.3	
271.63	5541.1	
271.84	4967.7	
272.05	3056.3	
272.26	3495.9	
272.47	5365.7	
272.68	5608	
272.89	3674.1	
273.11	4272.1	
273.32	5199.8	
273.53	6314.6	
273.74	4125.3	
273.95	4100	
274.16	5958.9	
274.37	5487.2	
274.58	4261.8	
274.79	3411.9	
275	5495.4	
275.21	6081.1	
275.42	5069.4	
275.63	4383.3	
275.84	5688.6	
276.05	7058	
276.26	4074.8	
276.47	3797.6	
276.68	5265.3	
276.89	6436.1	
277.1	4342.4	
277.31	3409.2	
277.52	5639.4	
277.73	5812.1	
277.94	3314.3	
278.15	3734.1	
278.36	5610.1	
278.57	5016.2	
278.78	3677.5	
278.99	4147.8	
279.2	5048.2	
279.41	4939	
279.62	4887.8	
279.83	3468.6	
280.04	6617.7	
280.25	4903.5	
280.46	4854.4	
280.67	3847.5	
280.88	4978.6	
281.09	6152.1	
281.3	3971.7	
281.51	5132.2	
281.72	5908.4	
281.93	5922	
282.14	3603.7	
282.35	3964.9	
282.56	5897.5	
282.77	5923.4	
282.98	3747.8	
283.19	4606.6	
283.4	7218.4	
283.61	5299.5	
283.82	3432.4	
284.03	4788.8	
284.24	5522.7	
284.45	5992.4	
284.66	4835.9	
284.87	4618.9	
285.08	5935	
285.29	6098.2	
285.5	3245.3	
285.71	3807.9	
285.92	5993	
286.12	6670.2	
286.33	4794.3	
286.54	3759.4	
286.75	5923.4	
286.96	5255.1	
287.17	3445.4	
287.38	4670.7	
287.59	5031.2	
287.8	4964.3	
288.01	3799	
288.22	4345.1	
288.43	5933.6	
288.64	4907.6	
288.85	4463.2	
289.06	4309.6	
289.27	5821.7	
289.48	6296.8	
289.69	4835.3	
289.9	4270	
290.11	6055.2	
290.32	5075.5	
290.53	4543.1	
290.74	4126	
290.94	5813.5	
291.15	5882.4	
291.36	3675.4	
291.57	4292.5	
291.78	5134.9	
291.99	4872.8	
292.2	3478.1	
292.41	4222.2	
292.62	5995.8	
292.83	5724.8	
293.04	5182.7	
293.25	3493.2	
293.46	5186.1	
293.67	6003.3	
293.88	3619.4	
294.09	3456.3	
294.29	4898.7	
294.5	5518.6	
294.71	3881.6	
294.92	3700.7	
295.13	5171.8	
295.34	6471.6	
295.55	3214.6	
295.76	3371	
295.97	5806.7	
296.18	6528.2	
296.39	3393.5	
296.6	3601.7	
296.81	5459.2	
297.01	5859.9	
297.22	3781.9	
297.43	3605.8	
297.64	5070.1	
297.85	4971.8	
298.06	3035.1	
298.27	3252.2	
298.48	5479	
298.69	5025.7	
298.9	3929.4	
299.11	3536.8	
299.31	4940.4	
299.52	4945.8	
299.73	4147.1	
299.94	4132.8	
300.15	5399.1	
300.36	5013.4	
300.57	4160.1	
300.78	4139.6	
300.99	5289.2	
301.2	5476.3	
301.4	3575.1	
301.61	3871.3	
301.82	5744.6	
302.03	5848.3	
302.24	4444.8	
302.45	3456.3	
302.66	5684.5	
302.87	6123.4	
303.08	3633.8	
303.29	4926	
303.49	5162.2	
303.7	5423.7	
303.91	3203.7	
304.12	4714.4	
304.33	4877.6	
304.54	5487.2	
304.75	3627	
304.96	3435.8	
305.16	5733.6	
305.37	6513.9	
305.58	3157.3	
305.79	3287.7	
306	5713.8	
306.21	4831.2	
306.42	3635.1	
306.63	5494.7	
306.83	5298.8	
307.04	5960.3	
307.25	3999	
307.46	3948.5	
307.67	4605.2	
307.88	5844.2	
308.09	3551.9	
308.29	3682.2	
308.5	5471.5	
308.71	5922	
308.92	3877.5	
309.13	3500	
309.34	5271.5	
309.55	5355.4	
309.75	4481	
309.96	4141.7	
310.17	5760.3	
310.38	5066.7	
310.59	4331.5	
310.8	3405.8	
311.01	5230.5	
311.21	5305.6	
311.42	3385.3	
311.63	3616	
311.84	5104.2	
312.05	5530.9	
312.26	4007.2	
312.46	4379.2	
312.67	5239.4	
312.88	4955.4	
313.09	3499.3	
313.3	3425.6	
313.51	6180.8	
313.71	6554.9	
313.92	3475.4	
314.13	3734.1	
314.34	5596.4	
314.55	5317.2	
314.76	4482.3	
314.96	3861.8	
315.17	5453.1	
315.38	5762.3	
315.59	3542.3	
315.8	3317	
316.01	6249	
316.21	6300.9	
316.42	3349.8	
316.63	3857.7	
316.84	5264	
317.05	6062	
317.26	4144.4	
317.46	3719.8	
317.67	5296.7	
317.88	5795.8	
318.09	4478.9	
318.3	3261	
318.5	5129.5	
318.71	5752.1	
318.92	5749.3	
319.13	4048.2	
319.34	5922.7	
319.54	6027.2	
319.75	3272.7	
319.96	3112.2	
320.17	5763	
320.38	5908.4	
320.58	3190.7	
320.79	3829.7	
321	5922	
321.21	6057.2	
321.42	3863.2	
321.62	3142.9	
321.83	5013.4	
322.04	5407.3	
322.25	3646.7	
322.46	3542.3	
322.66	5500.2	
322.87	5659.9	
323.08	4351.9	
323.29	3487.7	
323.5	6453.1	
323.7	4960.2	
323.91	4822.3	
324.12	4255	
324.33	5433.3	
324.53	5745.9	
324.74	4099.4	
324.95	4380.6	
325.16	4792.9	
325.37	5219.6	
325.57	3483.6	
325.78	3583.3	
325.99	5446.9	
326.2	4843.4	
326.4	5133.6	
326.61	3299.3	
326.82	5376.6	
327.03	5526.8	
327.24	4909	
327.44	4708.3	
327.65	5658.5	
327.86	4570.4	
328.07	4115.1	
328.27	3381.2	
328.48	6058.6	
328.69	4968.4	
328.9	5105.6	
329.1	3753.9	
329.31	5315.8	
329.52	6150.1	
329.73	3446.7	
329.93	3964.2	
330.14	5401.9	
330.35	5667.4	
330.56	5796.4	
330.76	4370.4	
330.97	5270.1	
331.18	5593.7	
331.39	3939.6	
331.59	3175	
331.8	5972.6	
332.01	6141.9	
332.22	3668.6	
332.42	4119.1	
332.63	5571.8	
332.84	5089.2	
333.05	3953.3	
333.25	3562.8	
333.46	5141.8	
333.67	5360.2	
333.88	3673.4	
334.08	4056.3	
334.29	7182.9	
334.5	6025.1	
334.7	3397.6	
334.91	5003.2	
335.12	4918.5	
335.33	5808	
335.53	3930.1	
335.74	5736.4	
335.95	5162.2	
336.16	5001.8	
336.36	3932.8	
336.57	4478.9	
336.78	4954.7	
336.98	5991	
337.19	4794.3	
337.4	3812.6	
337.61	6539.8	
337.81	4945.8	
338.02	3617.4	
338.23	4617.5	
338.43	6152.8	
338.64	4999.1	
338.85	3515	
339.05	4589.5	
339.26	6252.4	
339.47	4816.1	
339.68	3483.6	
339.88	5190.2	
340.09	5672.9	
340.3	5871.5	
340.5	4127.3	
340.71	3140.9	
340.92	4911	
341.13	6124.1	
341.33	3450.1	
341.54	4161.5	
341.75	5634	
341.95	5268.7	
342.16	3925.3	
342.37	4291.9	
342.57	4985.4	
342.78	5374.6	
342.99	4477.5	
343.19	3192.1	
343.4	5840.8	
343.61	5650.3	
343.81	3725.3	
344.02	3454.2	
344.23	5833.3	
344.43	6234	
344.64	4355.3	
344.85	4266.6	
345.06	5624.4	
345.26	5981.4	
345.47	4035.2	
345.68	4807.9	
345.88	4759.5	
346.09	5845.6	
346.3	4130.1	
346.5	3106.1	
346.71	5388.2	
346.92	5127.4	
347.12	3213.9	
347.33	4071.4	
347.54	5978	
347.74	6353.5	
347.95	4033.1	
348.16	3005.1	
348.36	5216.9	
348.57	4988.2	
348.78	3987.4	
348.98	4326.7	
349.19	5244.2	
349.39	4860.5	
349.6	3269.9	
349.81	3579.8	
350.01	5674.2	
350.22	5104.2	
350.43	3899.3	
350.63	4663.2	
350.84	5410.1	
351.05	5193.6	
351.25	3508.2	
351.46	3234.4	
351.67	5914.5	
351.87	5096	
352.08	3747.8	
352.29	4309.6	
352.49	5851	
352.7	5861.3	
352.9	3383.2	
353.11	4326.7	
353.32	6484.6	
353.52	5173.9	
353.73	3395.5	
353.94	4304.8	
354.14	5670.1	
354.35	5497.4	
354.55	3491.8	
354.76	3848.8	
354.97	5645.6	
355.17	5396.4	
355.38	3278.8	
355.59	4618.9	
355.79	5085.1	
356	5432.6	
356.2	3859.7	
356.41	3357.3	
356.62	4809.3	
356.82	5351.3	
357.03	4132.1	
357.24	3706.1	
357.44	5071.5	
357.65	5249.6	
357.85	4998.4	
358.06	3945.1	
358.27	4793.6	
358.47	5038	
358.68	3264.5	
358.88	4084.3	
359.09	5664	
359.3	5958.9	
359.5	4774.5	
359.71	4250.9	
359.91	6447.7	
360.12	5776	
360.33	4070.7	
360.53	4586.1	
360.74	5079.6	
360.94	5143.8	
361.15	4319.8	
361.36	3577.1	
361.56	5887.9	
361.77	5292.6	
361.97	4767.7	
362.18	3771.7	
362.38	5910.4	
362.59	4982	
362.8	3506.8	
363	3331.4	
363.21	4739.7	
363.41	5429.2	
363.62	3968.3	
363.83	5049.6	
364.03	5474.9	
364.24	6410.8	
364.44	5091.9	
364.65	4981.3	
364.85	5285.1	
365.06	4967	
365.27	3654.3	
365.47	3676.1	
365.68	6256.5	
365.88	5194.3	
366.09	4089.8	
366.29	3730	
366.5	5547.9	
366.71	5958.9	
366.91	5035.3	
367.12	4242.7	
367.32	6522.1	
367.53	5841.5	
367.73	4130.8	
367.94	5099.4	
368.14	5726.1	
368.35	6588.3	
368.56	4173.1	
368.76	3806.5	
368.97	5827.2	
369.17	7507.2	
369.38	3682.9	
369.58	3910.3	
369.79	4869.4	
369.99	6148.7	
370.2	4858.5	
370.4	4006.5	
370.61	5466	
370.82	6785.6	
371.02	3976.5	
371.23	3279.5	
371.43	4833.2	
371.64	6157.6	
371.84	3970.3	
372.05	5190.9	
372.25	7374.1	
372.46	5887.2	
372.66	3993.5	
372.87	3843.4	
373.07	5907	
373.28	7481.9	
373.48	4922.6	
373.69	4622.3	
373.9	5378.6	
374.1	5434.6	
374.31	4898.7	
374.51	4442.7	
374.72	6305	
374.92	5106.3	
375.13	5099.4	
375.33	4265.2	
375.54	5735.7	
375.74	5259.2	
375.95	4314.4	
376.15	5526.8	
376.36	5766.4	
376.56	5641.5	
376.77	4358.1	
376.97	4784.7	
377.18	6741.2	
377.38	5877	
377.59	5150.6	
377.79	3845.4	
378	5695.4	
378.2	6079.1	
378.41	3943.7	
378.61	3788.7	
378.82	6126.8	
379.02	5301.5	
379.23	4058.4	
379.43	5197.1	
379.64	6191	
379.84	5810.1	
380.05	3895.9	
380.25	3855	
380.46	5874.9	
380.66	5517.2	
380.87	5240.8	
381.07	5566.4	
381.28	6518.7	
381.48	5942.5	
381.69	3887.7	
381.89	3969	
382.1	4917.2	
382.3	6055.2	
382.51	5064.6	
382.71	5885.9	
382.91	5984.2	
383.12	6368.5	
383.32	4278.9	
383.53	4468.7	
383.73	5698.1	
383.94	5575.9	
384.14	4405.2	
384.35	3587.4	
384.55	5487.2	
384.76	5947.3	
384.96	4237.9	
385.17	4596.3	
385.37	5913.2	
385.58	5192.3	
385.78	4610	
385.98	3545	
386.19	5399.1	
386.39	5874.9	
386.6	4011.3	
386.8	4287.8	
387.01	5898.8	
387.21	5951.4	
387.42	4659.1	
387.62	5269.4	
387.83	5227.1	
388.03	5888.6	
388.23	4367	
388.44	5169.8	
388.64	4996.4	
388.85	5102.2	
389.05	4638.6	
389.26	5300.1	
389.46	6886.6	
389.67	6337.8	
389.87	4657.1	
390.07	4711	
390.28	5590.3	
390.48	5147.2	
390.69	3885	
390.89	4247.5	
391.1	5325.4	
391.3	6244.9	
391.5	5373.2	
391.71	5949.3	
391.91	5965.7	
392.12	6975.4	
392.32	5480.4	
392.53	4644.8	
392.73	5418.9	
392.93	5517.2	
393.14	4314.4	
393.34	5159.5	
393.55	6022.4	
393.75	5558.9	
393.95	4310.3	
394.16	4248.9	
394.36	5322	
394.57	5940.5	
394.77	3843.4	
394.98	4266.6	
395.18	5349.3	
395.38	5558.9	
395.59	5132.2	
395.79	4110.3	
396	5368.4	
396.2	5876.3	
396.4	4908.3	
396.61	4777.9	
396.81	6104.3	
397.02	5384.8	
397.22	5127.4	
397.42	5105.6	
397.63	6128.2	
397.83	5354.8	
398.04	4006.5	
398.24	4578.6	
398.44	5874.3	
398.65	4954	
398.85	3908.9	
399.05	4018.8	
399.26	5379.3	
399.46	7025.2	
399.67	4380.6	
399.87	4113.7	
400.07	5636	
400.28	6048.3	
400.48	4255	
400.69	5212.1	
400.89	6258.6	
401.09	6664.8	
401.3	4128.7	
401.5	5153.4	
401.7	6795.8	
401.91	7092.1	
402.11	4377.9	
402.32	4583.4	
402.52	6175.3	
402.72	6102.9	
402.93	4804.5	
403.13	3634.5	
403.33	6906.4	
403.54	5659.9	
403.74	4459.8	
403.94	5370.5	
404.15	5738.4	
404.35	6901	
404.56	4391.5	
404.76	6205.3	
404.96	6167.1	
405.17	6023.8	
405.37	5625.8	
405.57	4810.7	
405.78	6277.7	
405.98	5685.2	
406.18	4367	
406.39	5201.8	
406.59	6090.7	
406.79	5816.9	
407	4174.4	
407.2	4232.5	
407.4	6245.6	
407.61	6474.3	
407.81	4296	
408.01	6516.6	
408.22	5296.7	
408.42	7255.3	
408.62	5291.3	
408.83	4825	
409.03	5829.9	
409.23	5711.8	
409.44	4870.8	
409.64	5234.6	
409.84	6766.5	
410.05	6640.2	
410.25	4971.8	
410.45	4814.8	
410.66	6091.3	
410.86	8583.7	
411.06	5161.6	
411.27	5081.7	
411.47	8337.3	
411.67	6294.8	
411.88	5254.4	
412.08	5515.9	
412.28	6865.5	
412.49	7309.9	
412.69	4998.4	
412.89	5001.1	
413.09	7200	
413.3	7062.8	
413.5	5114.5	
413.7	4706.9	
413.91	6299.6	
414.11	7150.8	
414.31	4858.5	
414.52	5345.2	
414.72	6814.3	
414.92	6635.4	
415.12	4913.1	
415.33	5428.5	
415.53	7071	
415.73	7307.2	
415.94	5771.9	
416.14	5158.8	
416.34	6136.4	
416.55	5844.9	
416.75	6421.7	
416.95	5792.3	
417.15	7066.9	
417.36	7817.1	
417.56	6649.8	
417.76	5734.3	
417.97	7504.4	
418.17	7116.7	
418.37	5207.3	
418.57	5273.5	
418.78	6882.5	
418.98	6539.2	
419.18	6041.5	
419.38	6113.9	
419.59	6613.6	
419.79	6216.3	
419.99	5189.6	
420.2	5528.8	
420.4	7131	
420.6	7268.9	
420.8	5089.2	
421.01	4910.3	
421.21	6947.4	
421.41	7139.2	
421.61	5453.1	
421.82	5205.9	
422.02	6376.7	
422.22	7355.6	
422.42	5840.1	
422.63	5528.8	
422.83	6513.9	
423.03	7642.3	
423.23	5638.1	
423.44	4643.4	
423.64	6543.9	
423.84	6317.3	
424.04	4998.4	
424.25	4762.9	
424.45	7574.8	
424.65	7494.9	
424.85	4552.6	
425.06	5090.6	
425.26	7448.5	
425.46	6094.1	
425.66	5546.6	
425.87	5227.1	
426.07	7244.3	
426.27	7134.4	
426.47	5434.6	
426.67	4752	
426.88	7554.3	
427.08	6995.2	
427.28	5653.8	
427.48	4774.5	
427.69	5925.5	
427.89	6571.2	
428.09	5565.7	
428.29	4773.8	
428.5	7230.7	
428.7	6840.9	
428.9	4649.6	
429.1	5238	
429.3	6703.7	
429.51	7160.4	
429.71	5023.7	
429.91	5726.1	
430.11	6973.3	
430.31	7462.8	
430.52	5301.5	
430.72	5510.4	
430.92	7564.5	
431.12	7044.3	
431.32	4909.7	
431.53	5378.6	
431.73	5967.1	
431.93	7720.8	
432.13	4875.5	
432.33	4704.9	
432.54	6468.9	
432.74	6759.7	
432.94	4612.7	
433.14	5697.4	
433.34	6960.4	
433.55	6440.2	
433.75	5660.6	
433.95	7325.6	
434.15	6808.1	
434.35	6454.5	
434.56	4837.3	
434.76	4317.8	
434.96	6649.1	
435.16	6993.1	
435.36	4732.9	
435.56	5782.8	
435.77	6335.1	
435.97	6552.8	
436.17	6485.2	
436.37	5758.9	
436.57	6341.9	
436.78	6258.6	
436.98	7539.9	
437.18	6369.2	
437.38	6975.4	
437.58	6516	
437.78	6405.4	
437.99	5088.5	
438.19	6984.9	
438.39	7698.3	
438.59	4997	
438.79	4508.9	
438.99	7636.2	
439.2	6513.9	
439.4	4737	
439.6	4685.8	
439.8	6887.3	
440	7952.3	
440.2	5700.2	
440.4	5836.7	
440.61	7219.1	
440.81	7734.5	
441.01	4885.8	
441.21	5766.4	
441.41	7539.3	
441.61	7180.2	
441.81	6046.3	
442.02	6990.4	
442.22	8106.5	
442.42	7276.4	
442.62	4879.6	
442.82	4994.3	
443.02	7533.1	
443.22	6653.2	
443.43	5343.8	
443.63	4927.4	
443.83	6527.6	
444.03	6554.9	
444.23	6139.1	
444.43	5768.4	
444.63	6825.9	
444.83	8036.9	
445.04	5070.8	
445.24	6274.3	
445.44	7208.2	
445.64	7359	
445.84	5780.1	
446.04	5779.4	
446.24	6496.8	
446.44	7592.5	
446.65	5007.3	
446.85	5418.9	
447.05	6625.2	
447.25	7603.4	
447.45	5401.2	
447.65	4840.7	
447.85	6919.4	
448.05	6510.5	
448.25	5948	
448.46	5681.7	
448.66	6873	
448.86	6567.8	
449.06	4713.7	
449.26	6006.7	
449.46	7213.6	
449.66	6281.1	
449.86	5401.9	
450.06	5332.2	
450.26	6459.3	
450.47	7093.5	
450.67	5599.1	
450.87	5996.5	
451.07	7139.9	
451.27	6922.8	
451.47	4954.7	
451.67	5480.4	
451.87	6569.2	
452.07	7763.2	
452.27	5142.4	
452.47	5144.5	
452.67	6848.4	
452.88	7338.6	
453.08	4538.3	
453.28	6568.5	
453.48	8022.6	
453.68	6821.1	
453.88	5051	
454.08	5313.1	
454.28	7212.3	
454.48	6850.5	
454.68	5826.5	
454.88	6399.2	
455.08	7386.3	
455.28	7076.4	
455.48	4936.3	
455.68	5537.7	
455.89	7802.8	
456.09	7455.3	
456.29	5265.3	
456.49	5292	
456.69	7626	
456.89	6875	
457.09	5791	
457.29	6140.5	
457.49	7193.1	
457.69	7377.5	
457.89	5614.2	
458.09	5018.9	
458.29	6908.5	
458.49	7649.2	
458.69	5959.6	
458.89	5441.5	
459.09	7849.9	
459.29	7975.5	
459.49	5543.2	
459.69	6386.9	
459.9	7448.5	
460.1	6862.1	
460.3	5417.6	
460.5	5158.8	
460.7	7455.3	
460.9	7189.1	
461.1	4904.2	
461.3	6165.1	
461.5	8040.3	
461.7	7508.5	
461.9	5270.8	
462.1	5778	
462.3	7049.1	
462.5	7688.1	
462.7	5251	
462.9	5401.2	
463.1	8728.4	
463.3	8359.8	
463.5	5619.6	
463.7	6541.2	
463.9	7289.4	
464.1	7651.9	
464.3	5710.4	
464.5	5959.6	
464.7	7957.7	
464.9	7510.6	
465.1	7213.6	
465.3	6226.5	
465.5	8258.8	
465.7	8185.7	
465.9	6478.4	
466.1	6297.5	
466.3	7993.2	
466.5	7854	
466.7	7182.2	
466.9	6139.8	
467.1	7736.5	
467.3	8737.3	
467.5	7217.7	
467.7	6064	
467.9	8897.7	
468.1	9754.5	
468.3	6815	
468.5	7206.1	
468.7	7808.2	
468.9	7746.8	
469.1	6228.6	
469.3	6900.3	
469.5	9706	
469.7	7281.9	
469.9	6734.4	
470.1	6007.4	
470.3	7742.7	
470.5	7688.8	
470.7	7184.3	
470.9	6178	
471.1	7437.5	
471.3	7936.6	
471.5	5905.7	
471.69	7793.9	
471.89	7358.4	
472.09	6920.8	
472.29	6707.8	
472.49	7101	
472.69	7103	
472.89	7998.7	
473.09	5778	
473.29	5953.4	
473.49	7342	
473.69	7417.7	
473.89	7003.4	
474.09	6087.9	
474.29	8698.4	
474.49	8406.2	
474.69	6904.4	
474.89	6269.5	
475.09	7531.7	
475.29	7457.3	
475.49	5651	
475.69	5897.5	
475.88	9071.1	
476.08	7752.2	
476.28	5598.5	
476.48	6054.5	
476.68	8203.5	
476.88	8028	
477.08	5942.5	
477.28	6205.3	
477.48	7611.6	
477.68	8253.3	
477.88	5743.9	
478.08	6124.8	
478.28	8604.2	
478.48	7742	
478.67	6190.3	
478.87	5559.6	
479.07	8271.7	
479.27	7823.9	
479.47	6407.4	
479.67	6400.6	
479.87	8155	
480.07	8709.3	
480.27	5612.8	
480.47	7238.9	
480.67	7856.7	
480.87	8409	
481.06	5886.5	
481.26	6711.9	
481.46	7731.1	
481.66	7731.1	
481.86	6282.5	
482.06	7331.7	
482.26	7442.3	
482.46	8383.7	
482.66	6271.6	
482.86	5914.5	
483.05	7860.1	
483.25	7221.8	
483.45	8772.1	
483.65	6274.3	
483.85	7410.2	
484.05	7709.9	
484.25	6745.3	
484.45	7139.2	
484.65	8589.9	
484.84	8512	
485.04	6171.9	
485.24	6180.1	
485.44	8818.6	
485.64	7077.8	
485.84	5427.8	
486.04	6913.3	
486.24	7491.5	
486.44	7890.8	
486.63	5382.7	
486.83	6274.3	
487.03	7414.3	
487.23	7610.3	
487.43	5545.9	
487.63	7909.9	
487.83	7578.8	
488.02	8632.2	
488.22	6452.5	
488.42	7101.7	
488.62	8561.2	
488.82	7492.2	
489.02	6135	
489.22	6180.1	
489.41	8346.8	
489.61	7970.7	
489.81	5853.1	
490.01	5880.4	
490.21	8291.5	
490.41	8897.1	
490.61	5847	
490.8	5964.4	
491	7735.9	
491.2	6982.2	
491.4	6535.1	
491.6	5707.7	
491.8	7841	
491.99	7909.9	
492.19	5629.2	
492.39	6015.6	
492.59	8394.6	
492.79	8421.2	
492.99	6830	
493.18	5884.5	
493.38	8529.1	
493.58	9200.8	
493.78	6580.8	
493.98	6189	
494.18	8155	
494.37	7693.5	
494.57	6831.3	
494.77	6718	
494.97	8295.6	
495.17	8592.6	
495.37	6283.2	
495.56	6526.9	
495.76	8719.6	
495.96	8413.1	
496.16	7462.1	
496.36	6361	
496.55	8503.8	
496.75	7970.7	
496.95	6765.8	
497.15	6607.4	
497.35	8529.1	
497.54	8506.6	
497.74	6401.3	
497.94	8149.6	
498.14	9189.2	
498.34	8981.7	
498.53	6114.6	
498.73	6898.2	
498.93	7826	
499.13	8525	
499.33	6738.5	
499.52	7148.1	
499.72	8409.6	
499.92	8759.8	
500.12	6409.5	
500.32	6567.8	
500.51	8712.1	
500.71	8474.5	
500.91	7425.9	
501.11	6962.4	
501.31	8656.8	
501.5	9073.2	
501.7	7684.7	
501.9	6731	
502.1	8410.3	
502.29	8771.5	
502.49	7066.2	
502.69	7570.7	
502.89	8566.7	
503.09	8528.4	
503.28	6120	
503.48	6262.7	
503.68	7880.6	
503.88	7894.9	
504.07	7273.7	
504.27	6767.9	
504.47	8217.1	
504.67	8374.8	
504.86	7221.8	
505.06	6882.5	
505.26	7909.9	
505.46	9716.9	
505.65	6681.2	
505.85	7010.2	
506.05	7808.9	
506.25	8287.4	
506.44	6078.4	
506.64	6979.5	
506.84	7751.6	
507.04	8738.7	
507.23	6326.9	
507.43	6982.2	
507.63	9834.3	
507.83	7986.4	
508.02	6887.3	
508.22	6508.4	
508.42	10059	
508.62	7814.4	
508.81	6827.9	
509.01	7331	
509.21	7807.5	
509.4	7950.9	
509.6	6939.2	
509.8	6325.5	
510	7976.8	
510.19	9429.5	
510.39	6339.8	
510.59	6352.8	
510.79	7694.9	
510.98	9134.6	
511.18	6321.4	
511.38	6593.1	
511.57	8540	
511.77	8486.8	
511.97	7197.2	
512.17	6194.4	
512.36	8632.2	
512.56	8535.9	
512.76	6281.1	
512.95	6028.5	
513.15	8786.5	
513.35	7308.5	
513.55	7111.9	
513.74	6271.6	
513.94	8648.6	
514.14	7980.9	
514.33	7199.3	
514.53	6926.2	
514.73	7881.9	
514.92	8099	
515.12	6467.5	
515.32	6298.9	
515.51	8258.8	
515.71	8806.9	
515.91	7959.1	
516.11	6287.9	
516.3	9850	
516.5	7841.7	
516.7	6939.9	
516.89	7473.7	
517.09	7952.3	
517.29	7783.6	
517.48	7150.1	
517.68	6535.8	
517.88	7686	
518.07	8236.2	
518.27	7010.9	
518.47	6116.6	
518.66	8852.7	
518.86	7444.4	
519.06	5942.5	
519.25	6509.1	
519.45	7882.6	
519.65	9348.3	
519.84	7027.9	
520.04	7591.1	
520.24	9655.5	
520.43	8399.4	
520.63	6742.6	
520.83	6464.8	
521.02	7600	
521.22	8361.2	
521.42	7038.9	
521.61	7643	
521.81	7848.5	
522.01	8161.8	
522.2	6848.4	
522.4	6734.4	
522.6	8594.6	
522.79	7417.7	
522.99	6781.5	
523.18	5984.2	
523.38	8260.8	
523.58	8316.8	
523.77	7950.9	
523.97	6034.7	
524.17	10183	
524.36	9285.5	
524.56	7359	
524.76	6950.1	
524.95	8164.6	
525.15	7911.3	
525.34	6778.1	
525.54	6787	
525.74	8564.6	
525.93	7542.7	
526.13	7899	
526.33	6638.8	
526.52	8895	
526.72	8355.7	
526.91	8017.1	
527.11	7274.4	
527.31	8998.8	
527.5	9374.2	
527.7	7092.1	
527.89	6151.4	
528.09	7883.3	
528.29	8420.6	
528.48	7483.3	
528.68	7175.4	
528.87	8789.9	
529.07	8804.2	
529.27	6959.7	
529.46	6541.9	
529.66	8357.1	
529.85	8731.2	
530.05	6324.8	
530.25	7135.1	
530.44	9735.4	
530.64	8337.3	
530.83	6763.8	
531.03	7094.8	
531.23	8873.8	
531.42	8755.7	
531.62	7874.4	
531.81	7005.4	
532.01	8970.1	
532.21	9398.8	
532.4	6733.7	
532.6	7079.8	
532.79	9736.7	
532.99	8916.2	
533.18	7088	
533.38	8089.5	
533.58	8439	
533.77	9288.2	
533.97	7063.4	
534.16	7923.6	
534.36	9477.3	
534.55	8487.5	
534.75	8018.5	
534.95	7060	
535.14	9314.8	
535.34	8476.5	
535.53	6688	
535.73	8738	
535.92	9734.7	
536.12	8688.8	
536.31	6966.5	
536.51	8083.3	
536.71	8952.4	
536.9	8529.8	
537.1	7034.8	
537.29	7186.3	
537.49	9396.8	
537.68	8430.8	
537.88	7578.2	
538.07	6734.4	
538.27	8661.5	
538.46	9696.4	
538.66	6632.7	
538.86	7117.4	
539.05	8657.4	
539.25	9112.1	
539.44	7376.8	
539.64	6935.8	
539.83	8550.3	
540.03	9579	
540.22	6921.5	
540.42	7034.8	
540.61	8826.7	
540.81	8935.3	
541	7538.6	
541.2	8122.2	
541.39	8304.5	
541.59	8787.8	
541.78	7757.7	
541.98	6916	
542.18	7948.2	
542.37	7940	
542.57	7263.5	
542.76	7690.8	
542.96	8079.2	
543.15	8806.9	
543.35	7321.5	
543.54	6577.4	
543.74	9112.1	
543.93	8680.7	
544.13	7281.9	
544.32	8376.2	
544.52	9061.6	
544.71	8232.8	
544.91	6368.5	
545.1	7722.9	
545.3	8270.4	
545.49	8954.4	
545.69	6331	
545.88	6961.7	
546.08	9878.7	
546.27	9479.4	
546.47	7487.4	
546.66	6807.4	
546.86	9220.6	
547.05	9779.7	
547.24	7021.8	
547.44	6832	
547.63	8143.4	
547.83	9290.3	
548.02	7296.2	
548.22	7441	
548.41	7948.8	
548.61	9329.2	
548.8	6722.1	
549	6727.6	
549.19	8632.2	
549.39	8923	
549.58	6427.9	
549.78	7031.4	
549.97	8895.7	
550.17	8478.6	
550.36	7940	
550.55	8971.5	
550.75	8487.5	
550.94	9406.3	
551.14	6671.6	
551.33	7082.6	
551.53	7805.5	
551.72	8972.8	
551.92	7082.6	
552.11	6866.8	
552.31	8895	
552.5	8897.1	
552.69	8438.3	
552.89	6481.8	
553.08	8768	
553.28	8553	
553.47	6907.1	
553.67	8076.5	
553.86	9485.5	
554.06	7790.5	
554.25	6139.8	
554.44	6657.3	
554.64	10184	
554.83	9731.3	
555.03	6626.5	
555.22	7085.3	
555.42	8970.1	
555.61	8703.2	
555.8	6877.1	
556	7098.3	
556.19	7826	
556.39	9164.7	
556.58	6924.9	
556.78	6853.9	
556.97	8617.9	
557.16	8265.6	
557.36	8099.7	
557.55	6528.2	
557.75	7615	
557.94	9342.8	
558.13	6636.1	
558.33	6349.4	
558.52	9158.5	
558.72	7996.6	
558.91	6557.6	
559.1	6759.7	
559.3	7755	
559.49	7507.9	
559.69	6093.4	
559.88	7135.1	
560.07	8521.6	
560.27	8961.9	
560.46	7313.3	
560.66	7331	
560.85	8338.6	
561.04	7530.4	
561.24	6504.3	
561.43	6625.9	
561.63	7811.6	
561.82	8097	
562.01	7890.1	
562.21	6943.3	
562.4	8540	
562.59	9503.9	
562.79	6881.9	
562.98	6535.8	
563.18	8464.9	
563.37	9972.2	
563.56	7305.1	
563.76	6380.1	
563.95	7923.6	
564.14	7866.2	
564.34	6812.2	
564.53	6538.5	
564.73	8437.6	
564.92	8816.5	
565.11	6929	
565.31	6356.2	
565.5	8996.7	
565.69	7973.4	
565.89	6526.2	
566.08	6869.6	
566.27	8874.5	
566.47	9295.7	
566.66	7452.6	
566.85	6120	
567.05	8537.3	
567.24	7897.7	
567.44	6534.4	
567.63	7832.8	
567.82	8662.9	
568.02	8479.3	
568.21	6444.3	
568.4	6905.1	
568.6	8305.2	
568.79	8385.1	
568.98	6324.8	
569.18	6497.5	
569.37	8256	
569.56	10315	
569.76	6886.6	
569.95	7783	
570.14	8707.3	
570.34	8583	
570.53	6429.9	
570.72	6419	
570.91	9058.2	
571.11	8282.7	
571.3	6886	
571.49	7732.4	
571.69	8340.7	
571.88	7912	
572.07	7405.5	
572.27	7410.2	
572.46	7822.6	
572.65	8910.7	
572.85	6659.3	
573.04	6945.3	
573.23	9208.4	
573.43	8449.9	
573.62	6403.3	
573.81	7014.3	
574	8413.1	
574.2	8296.3	
574.39	6750.1	
574.58	6987.7	
574.78	9270.5	
574.97	8443.1	
575.16	7196.6	
575.36	7397.9	
575.55	8873.2	
575.74	9142.1	
575.93	6354.8	
576.13	7442.3	
576.32	8264.9	
576.51	8839	
576.71	6763.1	
576.9	8137.3	
577.09	9236.3	
577.28	8644.5	
577.48	7234.8	
577.67	6315.3	
577.86	8380.3	
578.05	8699.8	
578.25	6911.2	
578.44	7027.3	
578.63	8452.6	
578.83	9623.4	
579.02	6346.7	
579.21	7852.6	
579.4	8626.7	
579.6	8372.8	
579.79	7092.1	
579.98	9251.4	
580.17	9015.8	
580.37	9007	
580.56	6640.2	
580.75	7359	
580.94	9478	
581.14	9322.4	
581.33	7810.3	
581.52	6679.8	
581.71	8892.3	
581.91	9426.1	
582.1	6354.8	
582.29	7000.6	
582.48	8460.8	
582.68	8501.1	
582.87	7548.1	
583.06	7043.6	
583.25	8803.5	
583.45	8166.6	
583.64	7708.6	
583.83	8458.1	
584.02	8275.2	
584.21	8751	
584.41	7659.4	
584.6	6894.1	
584.79	8499.1	
584.98	9200.2	
585.18	6415.6	
585.37	6479.8	
585.56	8007.6	
585.75	8794	
585.94	6724.2	
586.14	7339.2	
586.33	9466.4	
586.52	8461.5	
586.71	7154.9	
586.91	6861.4	
587.1	7857.4	
587.29	8843.1	
587.48	6919.4	
587.67	6737.1	
587.87	8754.4	
588.06	8817.2	
588.25	8050.6	
588.44	7418.4	
588.63	8421.9	
588.83	9047.9	
589.02	6894.1	
589.21	6705.7	
589.4	8253.3	
589.59	8084	
589.78	6010.8	
589.98	6318.7	
590.17	7776.1	
590.36	8359.1	
590.55	5765	
590.74	6679.1	
590.94	9796.1	
591.13	8286.1	
591.32	6389.7	
591.51	6029.9	
591.7	8686.8	
591.89	8193.2	
592.09	6034.7	
592.28	6568.5	
592.47	7461.4	
592.66	9282.1	
592.85	6036	
593.05	6266.1	
593.24	8081.3	
593.43	8851.3	
593.62	6326.2	
593.81	6805.4	
594	8085.4	
594.19	8332.5	
594.39	6264.1	
594.58	6225.8	
594.77	8505.9	
594.96	8996.7	
595.15	6113.2	
595.34	6770.6	
595.54	8441	
595.73	7549.5	
595.92	5454.4	
596.11	6738.5	
596.3	8944.2	
596.49	7632.1	
596.68	6524.1	
596.88	7006.8	
597.07	8697.7	
597.26	7453.2	
597.45	5971.9	
597.64	7223.9	
597.83	7706.5	
598.02	8327.7	
598.22	6035.4	
598.41	6754.9	
598.6	8142.7	
598.79	7528.3	
598.98	6119.3	
599.17	7036.1	
599.36	8139.3	
599.55	9317.6	
599.74	8140.7	
599.94	7808.2	
600.13	8752.3	
600.32	7548.8	
600.51	5801.2	
600.7	6019	
600.89	9295.7	
601.08	9362.6	
601.27	5698.1	
601.47	6750.8	
601.66	8667.7	
601.85	9132.6	
602.04	6462	
602.23	6724.8	
602.42	7663.5	
602.61	8241.7	
602.8	6317.3	
602.99	6148	
603.18	8041.7	
603.37	8284.7	
603.57	6769.2	
603.76	7344	
603.95	8925.7	
604.14	8538	
604.33	6137.8	
604.52	6524.1	
604.71	8132.5	
604.9	7849.9	
605.09	7076.4	
605.28	6890	
605.47	8772.8	
605.66	8388.5	
605.86	6753.5	
606.05	6171.2	
606.24	8786.5	
606.43	7342	
606.62	6449.1	
606.81	7275.1	
607	8557.1	
607.19	7920.2	
607.38	5900.9	
607.57	6210.1	
607.76	7659.4	
607.95	7111.9	
608.14	6550.1	
608.33	7145.4	
608.52	7677.8	
608.72	8498.4	
608.91	5856.5	
609.1	5726.1	
609.29	7785.7	
609.48	7291.5	
609.67	6837.5	
609.86	5803.3	
610.05	7423.9	
610.24	7755	
610.43	5689.9	
610.62	5346.6	
610.81	8794	
611	8634.9	
611.19	5842.2	
611.38	6504.3	
611.57	8049.9	
611.76	9301.9	
611.95	5574.6	
612.14	5390.3	
612.33	7867.6	
612.52	7308.5	
612.71	6136.4	
612.9	5372.5	
613.09	7023.2	
613.28	9321.7	
613.47	5900.2	
613.66	6845.7	
613.85	7948.8	
614.04	7481.9	
614.24	6032	
614.43	5167.7	
614.62	8062.9	
614.81	8049.9	
615	6541.9	
615.19	6547.4	
615.38	7380.9	
615.57	7709.9	
615.76	6374.6	
615.95	7337.9	
616.14	8075.1	
616.33	7780.2	
616.52	6671.6	
616.71	6965.1	
616.9	8110.6	
617.09	7831.4	
617.28	6003.3	
617.47	7281.2	
617.66	7133.8	
617.85	7181.5	
618.04	6969.9	
618.22	6356.2	
618.41	7501	
618.6	8326.4	
618.79	6339.8	
618.98	5923.4	
619.17	8650.6	
619.36	7026.6	
619.55	6135	
619.74	6174.6	
619.93	8002.8	
620.12	7409.6	
620.31	6781.5	
620.5	6897.6	
620.69	8463.6	
620.88	8877.9	
621.07	7544.7	
621.26	6603.3	
621.45	8131.8	
621.64	8092.2	
621.83	6792.4	
622.02	5842.9	
622.21	8177.5	
622.4	7884.7	
622.59	7249.8	
622.78	6993.1	
622.97	7630.7	
623.16	8523.6	
623.35	6582.2	
623.54	5849.7	
623.72	7774.1	
623.91	7849.2	
624.1	6827.2	
624.29	5567.7	
624.48	8936.7	
624.67	8149.6	
624.86	6807.4	
625.05	5840.1	
625.24	8983.8	
625.43	7389.1	
625.62	8542.1	
625.81	6101.6	
626	8485.4	
626.19	7736.5	
626.38	6852.5	
626.56	6283.9	
626.75	7626.6	
626.94	8342.7	
627.13	6787	
627.32	5559.6	
627.51	8248.5	
627.7	9539.4	
627.89	5776	
628.08	6873.7	
628.27	7543.4	
628.46	7738.6	
628.65	5986.9	
628.83	5679	
629.02	8284	
629.21	7573.4	
629.4	6465.4	
629.59	6688	
629.78	7466.9	
629.97	8441	
630.16	6696.2	
630.35	6125.5	
630.54	8961.2	
630.72	8581	
630.91	6172.6	
631.1	6706.4	
631.29	8029.4	
631.48	8256	
631.67	6891.4	
631.86	6294.8	
632.05	7668.3	
632.24	7802.8	
632.42	5890.6	
632.61	6468.2	
632.8	7833.5	
632.99	7430	
633.18	6488.6	
633.37	6933.7	
633.56	8018.5	
633.75	7912	
633.93	6531	
634.12	6170.5	
634.31	8817.2	
634.5	8477.9	
634.69	6223.1	
634.88	6804.7	
635.07	7793.2	
635.25	8357.1	
635.44	7103.7	
635.63	7368.6	
635.82	7677.8	
636.01	7115.3	
636.2	7079.8	
636.39	6604.7	
636.57	8864.3	
636.76	8490.9	
636.95	6137.1	
637.14	7548.1	
637.33	8118.8	
637.52	9107.3	
637.7	5815.5	
637.89	6814.3	
638.08	7694.2	
638.27	9083.4	
638.46	6827.2	
638.65	7290.1	
638.83	9141.4	
639.02	7505.8	
639.21	6760.3	
639.4	7299.6	
639.59	8015.7	
639.78	7604.1	
639.96	6150.7	
640.15	6082.5	
640.34	7859.4	
640.53	8081.3	
640.72	5793	
640.91	6161.7	
641.09	7394.5	
641.28	8667.7	
641.47	6133.7	
641.66	6947.4	
641.85	8032.1	
642.03	8256.7	
642.22	6740.5	
642.41	6305	
642.6	7385	
642.79	6855.2	
642.97	6026.5	
643.16	6646.3	
643.35	7368.6	
643.54	7202.7	
643.73	5982.8	
643.91	6787.7	
644.1	7120.1	
644.29	7665.5	
644.48	6095.4	
644.67	6125.5	
644.85	7397.3	
645.04	7635.5	
645.23	5720	
645.42	5984.2	
645.6	7208.8	
645.79	8357.1	
645.98	5927.5	
646.17	5130.8	
646.36	7007.5	
646.54	7564.5	
646.73	6819.1	
646.92	5618.3	
647.11	7294.2	
647.29	8269	
647.48	5725.4	
647.67	5493.3	
647.86	8532.5	
648.05	8503.8	
648.23	5970.5	
648.42	7357	
648.61	7924.3	
648.8	7572	
648.98	5642.8	
649.17	5945.9	
649.36	7216.4	
649.55	6626.5	
649.73	5700.2	
649.92	6511.2	
650.11	7101	
650.3	7430	
650.48	5784.8	
650.67	5627.1	
650.86	7620.5	
651.05	6691.4	
651.23	5746.6	
651.42	5754.8	
651.61	7175.4	
651.79	7241.6	
651.98	5980.8	
652.17	5582.1	
652.36	7665.5	
652.54	6685.9	
652.73	5694.7	
652.92	5414.1	
653.11	7679.9	
653.29	7752.2	
653.48	4973.8	
653.67	5971.2	
653.85	7346.1	
654.04	8389.2	
654.23	6133.7	
654.42	5634	
654.6	6887.3	
654.79	7599.3	
654.98	5167.7	
655.16	5715.9	
655.35	6580.1	
655.54	6550.1	
655.73	5300.8	
655.91	5188.9	
656.1	7699	
656.29	6515.3	
656.47	4827.7	
656.66	6500.9	
656.85	6797.2	
657.03	6718	
657.22	5321.3	
657.41	5360.2	
657.59	6836.1	
657.78	6617	
657.97	4986.8	
658.16	5728.9	
658.34	7499	
658.53	7875.1	
658.72	6642.9	
658.9	7180.2	
659.09	6888.7	
659.28	6993.1	
659.46	5461.9	
659.65	5365	
659.84	6743.3	
660.02	7223.9	
660.21	5244.8	
660.4	5221.6	
660.58	7643.7	
660.77	6993.8	
660.96	5869.5	
661.14	4932.9	
661.33	8212.4	
661.52	8014.4	
661.7	4839.4	
661.89	8425.3	
662.08	6622.4	
662.26	6281.1	
662.45	5134.3	
662.64	5288.5	
662.82	7321.5	
663.01	6561.7	
663.2	5332.2	
663.38	6051.1	
663.57	7106.5	
663.75	7116.7	
663.94	5577.3	
664.13	6890	
664.31	6584.9	
664.5	7353.6	
664.69	5826.5	
664.87	6383.5	
665.06	6377.4	
665.25	7095.5	
665.43	6584.9	
665.62	6701.6	
665.8	7420.5	
665.99	6706.4	
666.18	5488.6	
666.36	5669.5	
666.55	7461.4	
666.74	7296.2	
666.92	5162.2	
667.11	6809.5	
667.29	6729.6	
667.48	7372	
667.67	6505	
667.85	5514.5	
668.04	6837.5	
668.22	6760.3	
668.41	5673.6	
668.6	5843.5	
668.78	6638.1	
668.97	6785.6	
669.15	6016.2	
669.34	4969.1	
669.53	6636.8	
669.71	6861.4	
669.9	5107.6	
670.08	5823.1	
670.27	6609.5	
670.46	7149.5	
670.64	5993	
670.83	6268.1	
671.01	6488	
671.2	7174.7	
671.38	5175.2	
671.57	5136.3	
671.76	7755	
671.94	8260.8	
672.13	5087.8	
672.31	6232.7	
672.5	7320.1	
672.69	6632	
672.87	5202.5	
673.06	5544.5	
673.24	7127.6	
673.43	6670.9	
673.61	6007.4	
673.8	5492.7	
673.98	7325.6	
674.17	7486.7	
674.36	6150.1	
674.54	5986.2	
674.73	7048.4	
674.91	7237.5	
675.1	5664.7	
675.28	5389.6	
675.47	6867.5	
675.65	7379.5	
675.84	5552.7	
676.03	5809.4	
676.21	6638.8	
676.4	6102.3	
676.58	6352.1	
676.77	6010.1	
676.95	8107.2	
677.14	6612.9	
677.32	5240.1	
677.51	5040.7	
677.69	7268.9	
677.88	6268.8	
678.06	5137.7	
678.25	5178.6	
678.44	6889.4	
678.62	6569.9	
678.81	4904.2	
678.99	5820.3	
679.18	7714.7	
679.36	7260	
679.55	5381.4	
679.73	6122.7	
679.92	7223.2	
680.1	6604.7	
680.29	6681.2	
680.47	5537	
680.66	6579.4	
680.84	7421.2	
681.03	4824.3	
681.21	5959.6	
681.4	6650.4	
681.58	6419	
681.77	5203.2	
681.95	5203.2	
682.14	7491.5	
682.32	7798.7	
682.51	6147.3	
682.69	4971.8	
682.88	6481.8	
683.06	7232.7	
683.25	5930.9	
683.43	6368.5	
683.62	6807.4	
683.8	7269.6	
683.99	6427.9	
684.17	5679.7	
684.36	8058.1	
684.54	6780.8	
684.73	4894.6	
684.91	5167.7	
685.1	7136.5	
685.28	6515.3	
685.46	5760.3	
685.65	5821.7	
685.83	7437.5	
686.02	6784.2	
686.2	5313.8	
686.39	5396.4	
686.57	6623.8	
686.76	7996.6	
686.94	5264.6	
687.13	5389.6	
687.31	7171.3	
687.5	6759.7	
687.68	4887.1	
687.86	6134.3	
688.05	8508.6	
688.23	6179.4	
688.42	6039.5	
688.6	5307	
688.79	6637.5	
688.97	6643.6	
689.16	5669.5	
689.34	4646.8	
689.52	7448.5	
689.71	7608.2	
689.89	5900.2	
690.08	5264	
690.26	6901	
690.45	6793.8	
690.63	6193.7	
690.81	5424.4	
691	6597.2	
691.18	6587.6	
691.37	5600.5	
691.55	7834.8	
691.74	6545.3	
691.92	8668.4	
692.1	5597.8	
692.29	4976.6	
692.47	6771.9	
692.66	6054.5	
692.84	5238	
693.02	5808.7	
693.21	6249.7	
693.39	6747.4	
693.58	5868.8	
693.76	5336.3	
693.94	7912	
694.13	7647.1	
694.31	5261.9	
694.5	6267.5	
694.68	6476.4	
694.86	6869.6	
695.05	5638.7	
695.23	5978.7	
695.42	7227.3	
695.6	9527.8	
695.78	6272.2	
695.97	5261.2	
696.15	7249.1	
696.34	6703	
696.52	5074.2	
696.7	5909.1	
696.89	7088	
697.07	6462.7	
697.25	5878.4	
697.44	7460.1	
697.62	7027.9	
697.81	7385.7	
697.99	5591	
698.17	6050.4	
698.36	6340.5	
698.54	7091.4	
698.72	5932.3	
698.91	4927.4	
699.09	6623.1	
699.28	6464.8	
699.46	5540.4	
699.64	5439.4	
699.83	6406	
700.01	7675.1	
700.19	6172.6	
700.38	4648.9	
700.56	7651.2	
700.74	6454.5	
700.93	5044.1	
701.11	5807.4	
701.29	7064.8	
701.48	8114.1	
701.66	5275.6	
701.84	5287.9	
702.03	6607.4	
702.21	7265.5	
702.39	4794.3	
702.58	5492.7	
702.76	6971.3	
702.94	7148.1	
703.13	4885.1	
703.31	7266.9	
703.49	6247.7	
703.68	7676.5	
703.86	5066.7	
704.04	6066.8	
704.23	6881.9	
704.41	7238.9	
704.59	5154.7	
704.78	6466.1	
704.96	8005.5	
705.14	7275.1	
705.33	5019.6	
705.51	5835.3	
705.69	6608.1	
705.87	7481.9	
706.06	6057.2	
706.24	4927.4	
706.42	6952.2	
706.61	7203.4	
706.79	6051.7	
706.97	5029.1	
707.16	6388.3	
707.34	7060.7	
707.52	6035.4	
707.7	5183.4	
707.89	6567.2	
708.07	6271.6	
708.25	6169.8	
708.44	6331	
708.62	6476.4	
708.8	7604.8	
708.98	6305	
709.17	5228.5	
709.35	6897.6	
709.53	6926.9	
709.72	4917.2	
709.9	5368.4	
710.08	7141.3	
710.26	7212.3	
710.45	6627.2	
710.63	5340.4	
710.81	6863.4	
710.99	6852.5	
711.18	5890.6	
711.36	5438	
711.54	6619.7	
711.72	7387	
711.91	5503.6	
712.09	4969.1	
712.27	6793.1	
712.45	7444.4	
712.64	5784.1	
712.82	4795.7	
713	6251.8	
713.18	6525.5	
713.37	4878.9	
713.55	6193.7	
713.73	7398.6	
713.91	6041.5	
714.1	5403.9	
714.28	4877.6	
714.46	7160.4	
714.64	6372.6	
714.83	4412	
715.01	5257.1	
715.19	6465.4	
715.37	5851.7	
715.55	4919.9	
715.74	5199.8	
715.92	7383.6	
716.1	5342.5	
716.28	6326.2	
716.47	5368.4	
716.65	6059.3	
716.83	6135.7	
717.01	5177.3	
717.19	5311.1	
717.38	8273.1	
717.56	5758.2	
717.74	5457.2	
717.92	4567.7	
718.1	6980.8	
718.29	6169.2	
718.47	4229.7	
718.65	4805.2	
718.83	6839.5	
719.01	6788.3	
719.2	4032.5	
719.38	5136.3	
719.56	6427.2	
719.74	8091.5	
719.92	4619.5	
720.11	5801.2	
720.29	6569.2	
720.47	5597.8	
720.65	4302.8	
720.83	5207.3	
721.02	6012.8	
721.2	5846.3	
721.38	5229.8	
721.56	4475.5	
721.74	5324.7	
721.92	5524.1	
722.11	5758.2	
722.29	5414.1	
722.47	6847	
722.65	6000.5	
722.83	4512.4	
723.01	5503.6	
723.2	6041.5	
723.38	6336.4	
723.56	3954.6	
723.74	5132.2	
723.92	5543.2	
724.1	6784.9	
724.29	4463.9	
724.47	5602.6	
724.65	5547.3	
724.83	5547.9	
725.01	4406.5	
725.19	5224.4	
725.37	5609.4	
725.56	5691.3	
725.74	4188.8	
725.92	4431.1	
726.1	5485.1	
726.28	5789.6	
726.46	4886.5	
726.64	4655.7	
726.83	5812.8	
727.01	6127.5	
727.19	4136.9	
727.37	5031.2	
727.55	5992.4	
727.73	6467.5	
727.91	4158.1	
728.09	3960.8	
728.28	6449.1	
728.46	7002	
728.64	5101.5	
728.82	5037.3	
729	7531.7	
729.18	6716.7	
729.36	4148.5	
729.54	6531	
729.72	7803.4	
729.91	5993.7	
730.09	6135	
730.27	4824.3	
730.45	5971.9	
730.63	6567.2	
730.81	5498.8	
730.99	4448.2	
731.17	7092.1	
731.35	5646.2	
731.53	5053.7	
731.71	4575.2	
731.9	6751.5	
732.08	6984.9	
732.26	4909.7	
732.44	4551.3	
732.62	6992.4	
732.8	6442.9	
732.98	5283.1	
733.16	4394.9	
733.34	6483.2	
733.52	5270.1	
733.7	4933.6	
733.88	5110.4	
734.07	6318	
734.25	6142.5	
734.43	4272.7	
734.61	5936.4	
734.79	7569.3	
734.97	6011.5	
735.15	4433.2	
735.33	4736.3	
735.51	6302.3	
735.69	5976	
735.87	6401.3	
736.05	5017.5	
736.23	6208.1	
736.41	5892.7	
736.59	4833.9	
736.77	4949.3	
736.95	6540.5	
737.13	6010.8	
737.32	4530.1	
737.5	4768.4	
737.68	7124.2	
737.86	5938.4	
738.04	4311.7	
738.22	6196.5	
738.4	5714.5	
738.58	6014.9	
738.76	4928.8	
738.94	3880.9	
739.12	5823.1	
739.3	5704.3	
739.48	5582.8	
739.66	5294	
739.84	6137.8	
740.02	6081.8	
740.2	3983.3	
740.38	4308.2	
740.56	6477.7	
740.74	5302.9	
740.92	4954.7	
741.1	4934.2	
741.28	5959.6	
741.46	5726.8	
741.64	4532.2	
741.82	5061.9	
742	5931.6	
742.18	5922.7	
742.36	4766.3	
742.54	4280.3	
742.72	6520.7	
742.9	5293.3	
743.08	5188.9	
743.26	3943	
743.44	6799.9	
743.62	6511.2	
743.8	5314.5	
743.98	4361.5	
744.16	6315.9	
744.34	5942.5	
744.52	5232.6	
744.7	5127.4	
744.88	6421.1	
745.06	5940.5	
745.24	5276.9	
745.42	5349.3	
745.6	6509.1	
745.78	6288.6	
745.96	4082.3	
746.14	4377.9	
746.32	7263.5	
746.5	6457.9	
746.68	5053	
746.86	4478.2	
747.03	6946	
747.21	5298.8	
747.39	4953.4	
747.57	4500.1	
747.75	6154.1	
747.93	6544.6	
748.11	4501.4	
748.29	4354.7	
748.47	7763.2	
748.65	5851	
748.83	5152.7	
749.01	4923.3	
749.19	6320	
749.37	5551.4	
749.55	4782.7	
749.73	4838	
749.91	5963	
750.09	5748.6	
750.26	4872.8	
750.44	4334.9	
750.62	6018.3	
750.8	5995.1	
750.98	4137.6	
751.16	4470.7	
751.34	6073.6	
751.52	5399.1	
751.7	5358.2	
751.88	4122.6	
752.06	6594.5	
752.24	6356.2	
752.42	4037.2	
752.59	4459.1	
752.77	6049.7	
752.95	7238.2	
753.13	5179.3	
753.31	4588.1	
753.49	5680.4	
753.67	6144.6	
753.85	4881.7	
754.03	4449.6	
754.21	6393.8	
754.38	6850.5	
754.56	4670.1	
754.74	3675.4	
754.92	5728.2	
755.1	6501.6	
755.28	3831.7	
755.46	3871.3	
755.64	7218.4	
755.82	7367.9	
755.99	4141.7	
756.17	4314.4	
756.35	4911.7	
756.53	6528.9	
756.71	3237.8	
756.89	4183.3	
757.07	6109.1	
757.25	5165.7	
757.42	4735.6	
757.6	5558.2	
757.78	6119.3	
757.96	5117.9	
758.14	4352.6	
758.32	3845.4	
758.5	4664.6	
758.67	5602.6	
758.85	4184	
759.03	4354	
759.21	5729.5	
759.39	5152.7	
759.57	3773	
759.75	4974.5	
759.92	6367.1	
760.1	5581.4	
760.28	5334.3	
760.46	5620.3	
760.64	5397.8	
760.82	5120.6	
760.99	5156.8	
761.17	4294.6	
761.35	6158.2	
761.53	5102.2	
761.71	4422.9	
761.89	5076.9	
762.06	6032.6	
762.24	5560.2	
762.42	4382.7	
762.6	4204.5	
762.78	5516.5	
762.96	6188.3	
763.13	4858.5	
763.31	4492.6	
763.49	6388.3	
763.67	5399.1	
763.85	5347.2	
764.02	5930.9	
764.2	6607.4	
764.38	5752.1	
764.56	4385.4	
764.74	5284.4	
764.91	6673.6	
765.09	5577.3	
765.27	4044.7	
765.45	3811.3	
765.63	6706.4	
765.8	6596.5	
765.98	3589.4	
766.16	3881.6	
766.34	5181.4	
766.52	5008.6	
766.69	4865.3	
766.87	3788.7	
767.05	5573.2	
767.23	6313.9	
767.41	4158.1	
767.58	4397	
767.76	6124.1	
767.94	6313.9	
768.12	4244.1	
768.29	4940.4	
768.47	5708.4	
768.65	6449.1	
768.83	3844.7	
769	5008	
769.18	5221.6	
769.36	5920.7	
769.54	4995	
769.72	3888.4	
769.89	6273.6	
770.07	6374.6	
770.25	4159.4	
770.43	5514.5	
770.6	7027.3	
770.78	7406.1	
770.96	4364.2	
771.14	5067.4	
771.31	6204	
771.49	5574.6	
771.67	3612.6	
771.85	3805.8	
772.02	4767	
772.2	5522	
772.38	4620.2	
772.55	4046.1	
772.73	5878.4	
772.91	5567.1	
773.09	4449.6	
773.26	4521.9	
773.44	5745.9	
773.62	5391.6	
773.8	3962.8	
773.97	3659	
774.15	5909.8	
774.33	5448.3	
774.5	3928	
774.68	4266.6	
774.86	6027.9	
775.04	5481.7	
775.21	3947.8	
775.39	3961.5	
775.57	5766.4	
775.74	6178	
775.92	3805.8	
776.1	3700.7	
776.27	5797.8	
776.45	6999.3	
776.63	3990.8	
776.81	3464.5	
776.98	5369.1	
777.16	6488.6	
777.34	4127.3	
777.51	4481.6	
777.69	5390.3	
777.87	5164.3	
778.04	4149.9	
778.22	4735.6	
778.4	5214.8	
778.57	5877	
778.75	3357.3	
778.93	3717.7	
779.1	5027.1	
779.28	4883.7	
779.46	3433.1	
779.64	3921.9	
779.81	6002.6	
779.99	6902.3	
780.17	4821.6	
780.34	4895.3	
780.52	5466	
780.69	5687.2	
780.87	4334.2	
781.05	3839.9	
781.22	5542.5	
781.4	5603.2	
781.58	4001	
781.75	3144.3	
781.93	5605.3	
782.11	4912.4	
782.28	4906.9	
782.46	4016.7	
782.64	4816.1	
782.81	5742.5	
782.99	4037.9	
783.17	4048.2	
783.34	5651	
783.52	4903.5	
783.69	4263.2	
783.87	5057.8	
784.05	5066	
784.22	4985.4	
784.4	5102.9	
784.58	4332.8	
784.75	5915.2	
784.93	5038.7	
785.1	3985.3	
785.28	4622.3	
785.46	5743.2	
785.63	4922.6	
785.81	3973.7	
785.99	3848.1	
786.16	5148.6	
786.34	5589.6	
786.51	3879.5	
786.69	4317.8	
786.87	4763.6	
787.04	5290.6	
787.22	3687	
787.39	4797.7	
787.57	4967.7	
787.75	6124.8	
787.92	4873.5	
788.1	4850.3	
788.27	4958.8	
788.45	4782	
788.63	4559.5	
788.8	3266.5	
788.98	5548.6	
789.15	4724	
789.33	3342.3	
789.5	4052.2	
789.68	5917.3	
789.86	6019.7	
790.03	4483	
790.21	3837.2	
790.38	6002.6	
790.56	5213.4	
790.73	3806.5	
790.91	3776.5	
791.09	5003.9	
791.26	5754.1	
791.44	4056.3	
791.61	3437.9	
791.79	5031.2	
791.96	5099.4	
792.14	3575.1	
792.32	3151.1	
792.49	5039.4	
792.67	5154.1	
792.84	3678.8	
793.02	3420.1	
793.19	5471.5	
793.37	6204	
793.54	3172.3	
793.72	3472.7	
793.89	6342.6	
794.07	5042.8	
794.25	4205.2	
794.42	3259.7	
794.6	6065.4	
794.77	5652.4	
794.95	4386.7	
795.12	3820.1	
795.3	4960.9	
795.47	5668.1	
795.65	4240.7	
795.82	3989.4	
796	4795.7	
796.17	6864.1	
796.35	3967.6	
796.52	4648.2	
796.7	5560.9	
796.87	5708.4	
797.05	4927.4	
797.22	4825.7	
797.4	5627.8	
797.57	6697.5	
797.75	4029	
797.92	3874.1	
798.1	5980.1	
798.27	5026.4	
798.45	3258.3	
798.62	3520.5	
798.8	5352	
798.97	5845.6	
799.15	4303.5	
799.32	4100	
799.5	4610.7	
799.67	5395.7	
799.85	4520.5	
800.02	3213.3	
800.2	4964.3	
800.37	5293.3	
800.55	4616.1	
800.72	3820.8	
800.9	5758.2	
801.07	6210.1	
801.25	5209.3	
801.42	4227	
801.6	5867.4	
801.77	5554.8	
801.95	3898	
802.12	3799.7	
802.29	5552.7	
802.47	5560.9	
802.64	4193.6	
802.82	3168.2	
802.99	4927.4	
803.17	5945.3	
803.34	4076.1	
803.52	3605.8	
803.69	6602	
803.87	4807.9	
804.04	4072	
804.21	4175.1	
804.39	6120.7	
804.56	5252.4	
804.74	3432.4	
804.91	4241.3	
805.09	5006.6	
805.26	5165	
805.44	3499.3	
805.61	3874.8	
805.78	5683.8	
805.96	5737	
806.13	4247.5	
806.31	4591.5	
806.48	4558.1	
806.66	5081.7	
806.83	4259.8	
807	4120.5	
807.18	4992.9	
807.35	5374.6	
807.53	4115.1	
807.7	3283.6	
807.87	6193.7	
808.05	5070.8	
808.22	4549.9	
808.4	3272.7	
808.57	5065.3	
808.74	4681	
808.92	3777.8	
809.09	4825	
809.27	4904.2	
809.44	5580.7	
809.61	3293.1	
809.79	3715	
809.96	6195.1	
810.14	5836	
810.31	3236.5	
810.48	3952.6	
810.66	5158.2	
810.83	5906.3	
811.01	3739.6	
811.18	4126	
811.35	5742.5	
811.53	4549.9	
811.7	4633.9	
811.87	4210.6	
812.05	5024.3	
812.22	4987.5	
812.39	3646.7	
812.57	3533.4	
812.74	5066.7	
812.92	6740.5	
813.09	3876.8	
813.26	4296	
813.44	6540.5	
813.61	5031.9	
813.78	3265.8	
813.96	4472.1	
814.13	5061.9	
814.3	4719.2	
814.48	4762.2	
814.65	3998.3	
814.82	6291.4	
815	4838.7	
815.17	4052.2	
815.34	4987.5	
815.52	5005.9	
815.69	4998.4	
815.87	4050.9	
816.04	3424.9	
816.21	5066.7	
816.38	4391.5	
816.56	3936.2	
816.73	3633.8	
816.9	6471.6	
817.08	5908.4	
817.25	3702	
817.42	4648.2	
817.6	4631.8	
817.77	5089.9	
817.94	4165.6	
818.12	3568.9	
818.29	4788.8	
818.46	7626	
818.64	3774.4	
818.81	3587.4	
818.98	4739.7	
819.16	6916	
819.33	4365.6	
819.5	4087.1	
819.67	5449.6	
819.85	6104.3	
820.02	3971	
820.19	4283	
820.37	5292.6	
820.54	4868.7	
820.71	4140.3	
820.88	5120.6	
821.06	5310.4	
821.23	4812.7	
821.4	4162.8	
821.58	4155.3	
821.75	5853.1	
821.92	5233.2	
822.09	3361.4	
822.27	3450.1	
822.44	5077.6	
822.61	4917.2	
822.79	3342.3	
822.96	6486.6	
823.13	5586.9	
823.3	4841.4	
823.48	3908.9	
823.65	3497.9	
823.82	5776.6	
823.99	4639.3	
824.17	4870.8	
824.34	3598.3	
824.51	6692.1	
824.68	5126.7	
824.86	3638.6	
825.03	4162.2	
825.2	5011.4	
825.37	6161.7	
825.55	3607.2	
825.72	4040.6	
825.89	6799.9	
826.06	6349.4	
826.24	3945.8	
826.41	4010.6	
826.58	6138.4	
826.75	5347.2	
826.92	3130	
827.1	3498.6	
827.27	8403.5	
827.44	6711.9	
827.61	3813.3	
827.79	4605.9	
827.96	4788.2	
828.13	5148.6	
828.3	3960.1	
828.47	3323.2	
828.65	5322	
828.82	5272.8	
828.99	5079	
829.16	4444.1	
829.34	5713.2	
829.51	5454.4	
829.68	4152.6	
829.85	4259.8	
830.02	5956.9	
830.2	5716.6	
830.37	3166.2	
830.54	4954	
830.71	6470.9	
830.88	5097.4	
831.05	3211.9	
831.23	3663.1	
831.4	6185.5	
831.57	7019.1	
831.74	3793.5	
831.91	3330.7	
832.09	5324	
832.26	5656.5	
832.43	3960.8	
832.6	4417.5	
832.77	5306.3	
832.94	6142.5	
833.12	3091.8	
833.29	3908.9	
833.46	5441.5	
833.63	7217.7	
833.8	4338.3	
833.97	3978.5	
834.15	5681.7	
834.32	5483.8	
834.49	4151.2	
834.66	4151.2	
834.83	5881.8	
835	4795	
835.17	3815.4	
835.35	3835.2	
835.52	5603.2	
835.69	5569.8	
835.86	4033.8	
836.03	3273.3	
836.2	5649.7	
836.37	5271.5	
836.55	3855	
836.72	3765.5	
836.89	5261.2	
837.06	5846.3	
837.23	3990.8	
837.4	4317.1	
837.57	6511.9	
837.75	7228	
837.92	3570.3	
838.09	3840.6	
838.26	5232.6	
838.43	5972.6	
838.6	4111.6	
838.77	3681.6	
838.94	6900.3	
839.11	6525.5	
839.29	3894.6	
839.46	3103.4	
839.63	5646.2	
839.8	5369.1	
839.97	3824.9	
840.14	3831.1	
840.31	5433.9	
840.48	5726.8	
840.65	3164.8	
840.82	3866.6	
841	5650.3	
841.17	5658.5	
841.34	3474	
841.51	3556.6	
841.68	5603.2	
841.85	5337.7	
842.02	3646.7	
842.19	3015.3	
842.36	5440.8	
842.53	5440.8	
842.7	3461.7	
842.87	4346.5	
843.05	7141.3	
843.22	5387.5	
843.39	3286.3	
843.56	3581.9	
843.73	5184.1	
843.9	5779.4	
844.07	5693.4	
844.24	4728.8	
844.41	8359.1	
844.58	4907.6	
844.75	3369.6	
844.92	3674.1	
845.09	5681.1	
845.26	5670.8	
845.43	3456.3	
845.6	3689.1	
845.77	5659.9	
845.94	5378.6	
846.12	3884.3	
846.29	4123.2	
846.46	5855.1	
846.63	5596.4	
846.8	3500	
846.97	4176.5	
847.14	6188.3	
847.31	5568.4	
847.48	3880.9	
847.65	4330.8	
847.82	5951.4	
847.99	5899.5	
848.16	4746.5	
848.33	4290.5	
848.5	5262.6	
848.67	6208.1	
848.84	3463.8	
849.01	3604.4	
849.18	5104.2	
849.35	4779.3	
849.52	4412.7	
849.69	3334.1	
849.86	5907	
850.03	6100.2	
850.2	3510.2	
850.37	4306.9	
850.54	6036.7	
850.71	5295.4	
850.88	4182	
851.05	3401	
851.22	5572.5	
851.39	6227.9	
851.56	3287	
851.73	3957.4	
851.9	4988.9	
852.07	5975.3	
852.24	3838.6	
852.41	3424.9	
852.58	5504.9	
852.75	5029.8	
852.92	3966.9	
853.09	3369.6	
853.26	5298.8	
853.43	6145.3	
853.6	3480.9	
853.77	2949.1	
853.94	6236.1	
854.11	4973.2	
854.28	5231.9	
854.44	3743.7	
854.61	6688.7	
854.78	5934.3	
854.95	3481.5	
855.12	4372.4	
855.29	4581.3	
855.46	6416.3	
855.63	3420.1	
855.8	4829.1	
855.97	5169.1	
856.14	5953.4	
856.31	4851	
856.48	3791.5	
856.65	5225.7	
856.82	4914.4	
856.99	3364.8	
857.16	3732.8	
857.33	6937.8	
857.49	5364.3	
857.66	3770.3	
857.83	4102.8	
858	5271.5	
858.17	5534.3	
858.34	3274	
858.51	3552.5	
858.68	6397.2	
858.85	6390.3	
859.02	4024.3	
859.19	4346.5	
859.36	4956.8	
859.52	4995	
859.69	3499.3	
859.86	4117.8	
860.03	5018.2	
860.2	6197.8	
860.37	3167.5	
860.54	3506.8	
860.71	5892.7	
860.88	6350.8	
861.05	3921.2	
861.21	4317.1	
861.38	6309.8	
861.55	4894	
861.72	3182.5	
861.89	3870	
862.06	5955.5	
862.23	6448.4	
862.4	3336.8	
862.56	3649.5	
862.73	5836.7	
862.9	5390.3	
863.07	4063.2	
863.24	3104	
863.41	4863.9	
863.58	5048.9	
863.75	3548.4	
863.91	4044.7	
864.08	6243.6	
864.25	5798.5	
864.42	4386.7	
864.59	4863.2	
864.76	6629.3	
864.93	4972.5	
865.09	3410.6	
865.26	3688.4	
865.43	6156.2	
865.6	6607.4	
865.77	2981.8	
865.94	3450.8	
866.1	6189.6	
866.27	5880.4	
866.44	5235.3	
866.61	3334.1	
866.78	5378.6	
866.95	5791	
867.11	3381.2	
867.28	3088.3	
867.45	5982.1	
867.62	5055.1	
867.79	4016.7	
867.96	3389.4	
868.12	4991.6	
868.29	5961.6	
868.46	2975	
868.63	4711	
868.8	6057.2	
868.97	5875.6	
869.13	3661.8	
869.3	3605.8	
869.47	5772.5	
869.64	6016.9	
869.81	3502	
869.97	3514.3	
870.14	5624.4	
870.31	6339.1	
870.48	3497.9	
870.65	4310.3	
870.81	5257.8	
870.98	5277.6	
871.15	3956	
871.32	3591.5	
871.48	5826.5	
871.65	6346	
871.82	3441.3	
871.99	3810.6	
872.16	6845	
872.32	6216.3	
872.49	3546.4	
872.66	3519.1	
872.83	5952.8	
872.99	5089.2	
873.16	4012.7	
873.33	3500.7	
873.5	5515.9	
873.67	5510.4	
873.83	3624.2	
874	4699.4	
874.17	5659.2	
874.34	6735.1	
874.5	4502.8	
874.67	4314.4	
874.84	6311.2	
875.01	4927.4	
875.17	4956.8	
875.34	3410.6	
875.51	5587.5	
875.68	6761	
875.84	4198.3	
876.01	5171.1	
876.18	5875.6	
876.34	5765	
876.51	3504.8	
876.68	3439.9	
876.85	5315.2	
877.01	6161.7	
877.18	4935.6	
877.35	3422.2	
877.52	5474.9	
877.68	4896.7	
877.85	3375.1	
878.02	3418.7	
878.18	5451	
878.35	5128.1	
878.52	2767.5	
878.69	3876.8	
878.85	5856.5	
879.02	5868.1	
879.19	4976.6	
879.35	3748.5	
879.52	5812.1	
879.69	6063.4	
879.86	2987.3	
880.02	3910.3	
880.19	5386.8	
880.36	6722.8	
880.52	4059.1	
880.69	4160.1	
880.86	5961.6	
881.02	6047.7	
881.19	3780.6	
881.36	3769.6	
881.52	5842.2	
881.69	5194.3	
881.86	3722.5	
882.02	3680.2	
882.19	6108.4	
882.36	7251.9	
882.52	3562.1	
882.69	4933.6	
882.86	5591.6	
883.02	5529.5	
883.19	4248.2	
883.36	4010.6	
883.52	5890.6	
883.69	6806.1	
883.86	3521.8	
884.02	3121.8	
884.19	5949.3	
884.36	5463.3	
884.52	3908.2	
884.69	3670.6	
884.86	5186.8	
885.02	6547.4	
885.19	3903.4	
885.36	4018.8	
885.52	5408	
885.69	5616.2	
885.86	5012.7	
886.02	4480.3	
886.19	5890.6	
886.35	5416.2	
886.52	3863.2	
886.69	4947.9	
886.85	5019.6	
887.02	6276.3	
887.19	6276.3	
887.35	6276.3	
887.52	6276.3	
887.68	6276.3	
887.85	6276.3	
888.02	6276.3	
888.18	6276.3	
888.35	6276.3	
888.51	6276.3	
888.68	6276.3	
888.85	6276.3	
889.01	6276.3	
889.18	6276.3	
889.35	6276.3	
889.51	6276.3	
889.68	6276.3	
889.84	6276.3	
890.01	6276.3	
890.17	6276.3	
890.34	6276.3	
890.51	6276.3	
890.67	6276.3	
890.84	6276.3	
891	6276.3	
891.17	6276.3	
891.34	6276.3	
891.5	6276.3	
891.67	6276.3	
891.83	6276.3	
892	6276.3	
892.16	6276.3	
892.33	6276.3	
892.5	6276.3	
892.66	6276.3	
892.83	6276.3	
892.99	6276.3	
893.16	6276.3	
893.32	6276.3	
893.49	6276.3	
893.65	6276.3	
893.82	6276.3	
893.99	6276.3	
894.15	6276.3	
894.32	6276.3	
894.48	6276.3	
894.65	6276.3	
894.81	6276.3	
894.98	6276.3	
895.14	6276.3	
895.31	6276.3	
895.47	6276.3	
895.64	6276.3	
895.81	6276.3	
895.97	6276.3	
896.14	6276.3	
896.3	6276.3	
896.47	6276.3	
896.63	6276.3	
896.8	6276.3	
896.96	6276.3	
897.13	6276.3	
897.29	6276.3	
897.46	6276.3	
897.62	6276.3	
897.79	6276.3	
897.95	6276.3	
898.12	6276.3	
898.28	6276.3	
898.45	6276.3	
898.61	6276.3	
898.78	6276.3	
898.94	6276.3	
899.11	6276.3	
899.27	6276.3	
899.44	6276.3	
899.6	6276.3	
899.77	6276.3	
899.93	6276.3	
900.1	6276.3	
900.26	6276.3	
900.43	6276.3	
900.59	6276.3	
900.76	6276.3	
900.92	6276.3	
901.09	6276.3	
901.25	6276.3	
901.42	6276.3	
901.58	6276.3	
901.75	6276.3	
901.91	6276.3	
902.07	6276.3	
902.24	6276.3	
902.4	6276.3	
902.57	6276.3	
902.73	6276.3	
902.9	6276.3	
903.06	6276.3	
903.23	6276.3	
903.39	6276.3	
903.56	6276.3	
903.72	6276.3	
903.88	6276.3	
904.05	6276.3	
904.21	6276.3	
904.38	6276.3	
904.54	6276.3	
904.71	6276.3	
904.87	6276.3	
905.03	6276.3	
905.2	6276.3	
905.36	6276.3	
905.53	6276.3	
905.69	6276.3	
905.86	6276.3	
906.02	6276.3	
906.18	6276.3	
906.35	6276.3	
906.51	6276.3	
906.68	6276.3	
906.84	6276.3	
907.01	6276.3	
907.17	6276.3	
907.33	6276.3	
907.5	6276.3	
907.66	6276.3	
907.83	6276.3	
907.99	6276.3	
908.15	6276.3	
908.32	6276.3	
908.48	6276.3	
908.65	6276.3	
908.81	6276.3	
908.97	6276.3	
909.14	6276.3	
909.3	6276.3	
909.47	6276.3	
909.63	6276.3	
909.79	6276.3	
909.96	6276.3	
910.12	6276.3	
910.28	6276.3	
910.45	6276.3	
910.61	6276.3	
910.78	6276.3	
910.94	6276.3	
911.1	6276.3	
911.27	6276.3	
911.43	6276.3	
911.59	6276.3	
911.76	6276.3	
911.92	6276.3	
912.08	6276.3	
912.25	6276.3	
912.41	6276.3	
912.57	6276.3	
912.74	6276.3	
912.9	6276.3	
913.07	6276.3	
913.23	6276.3	
913.39	6276.3	
913.56	6276.3	
913.72	6276.3	
913.88	6276.3	
914.05	6276.3	
914.21	6276.3	
914.37	6276.3	
914.54	6276.3	
914.7	6276.3	
914.86	6276.3	
915.03	6276.3	
915.19	6276.3	
