Wavelength	Intensities	
nm	a.u.	
179.22	1970.7	
179.44	1967.1	
179.65	1974.2	
179.86	1959.9	
180.08	1894.4	
180.29	5091.3	
180.51	3596.2	
180.72	5750	
180.94	6785.6	
181.15	3317	
181.37	3259	
181.58	5601.2	
181.79	5956.2	
182.01	3399.6	
182.22	3757.3	
182.44	5908.4	
182.65	4900.1	
182.87	4682.3	
183.08	4128.7	
183.29	6195.8	
183.51	5066.7	
183.72	3742.3	
183.94	5552	
184.15	5477	
184.37	5531.6	
184.58	3319.1	
184.79	4611.3	
185.01	5098.1	
185.22	5896.1	
185.44	4801.1	
185.65	4038.6	
185.86	5417.6	
186.08	4991.6	
186.29	3206.4	
186.51	3468.6	
186.72	5087.8	
186.94	6040.1	
187.15	4028.4	
187.36	4188.1	
187.58	7987.8	
187.79	5644.9	
188.01	4356	
188.22	6830.7	
188.43	6827.9	
188.65	5853.8	
188.86	3431	
189.08	4158.7	
189.29	5343.2	
189.5	5311.7	
189.72	3858.4	
189.93	3942.3	
190.15	6099.5	
190.36	7364.5	
190.57	4235.2	
190.79	4117.1	
191	6221	
191.22	6121.4	
191.43	4279.6	
191.64	3491.1	
191.86	6447	
192.07	6118	
192.29	3604.4	
192.5	3882.3	
192.71	6122.1	
192.93	5234.6	
193.14	3859.7	
193.35	3931.4	
193.57	5229.8	
193.78	6122.1	
194	3095.8	
194.21	3729.4	
194.42	5079	
194.64	5526.1	
194.85	4134.2	
195.07	4917.9	
195.28	5554.1	
195.49	4777.9	
195.71	5186.1	
195.92	3611.3	
196.13	5718.6	
196.35	5911.1	
196.56	5517.2	
196.78	4148.5	
196.99	7221.8	
197.2	6795.8	
197.42	4747.9	
197.63	4275.5	
197.84	4950.6	
198.06	5701.5	
198.27	3820.8	
198.48	5224.4	
198.7	5283.8	
198.91	5414.1	
199.13	4175.1	
199.34	4186	
199.55	5973.9	
199.77	4816.8	
199.98	3645.4	
200.19	4296	
200.41	5458.5	
200.62	5100.1	
200.83	4425.7	
201.05	4691.2	
201.26	5447.6	
201.47	5103.5	
201.69	3744.4	
201.9	3577.1	
202.11	5472.9	
202.33	6574.7	
202.54	3962.1	
202.76	4421.6	
202.97	5679.7	
203.18	5605.3	
203.4	4348.5	
203.61	4257.7	
203.82	5562.3	
204.04	5214.1	
204.25	4252.9	
204.46	4156.7	
204.68	5552.7	
204.89	5798.5	
205.1	4126	
205.32	3555.3	
205.53	5926.1	
205.74	6122.1	
205.96	2961.4	
206.17	4306.9	
206.38	5856.5	
206.6	6075	
206.81	4818.9	
207.02	3958.7	
207.24	5812.1	
207.45	6205.3	
207.66	3967.6	
207.88	3361.4	
208.09	5676.3	
208.3	5515.2	
208.52	3765.5	
208.73	4058.4	
208.94	5485.8	
209.15	6307.1	
209.37	3979.9	
209.58	4210.6	
209.79	6074.3	
210.01	5315.8	
210.22	3164.8	
210.43	3340.2	
210.65	5541.1	
210.86	5975.3	
211.07	4063.9	
211.29	3689.8	
211.5	5963.7	
211.71	5461.2	
211.93	3636.5	
212.14	3644.7	
212.35	5454.4	
212.56	5763.7	
212.78	4209.3	
212.99	3418.7	
213.2	6545.3	
213.42	5250.3	
213.63	3794.9	
213.84	4080.9	
214.06	4909.7	
214.27	5079.6	
214.48	3990.8	
214.69	4251.6	
214.91	6226.5	
215.12	6297.5	
215.33	4336.2	
215.55	4786.1	
215.76	6878.4	
215.97	5939.8	
216.18	4120.5	
216.4	4072.7	
216.61	5186.1	
216.82	6068.8	
217.04	3707.5	
217.25	3857	
217.46	6238.8	
217.67	5983.5	
217.89	3235.8	
218.1	3405.1	
218.31	5576.6	
218.53	5701.5	
218.74	3877.5	
218.95	3684.3	
219.16	5515.9	
219.38	6520	
219.59	3778.5	
219.8	4488.5	
220.01	7203.4	
220.23	5537.7	
220.44	4995	
220.65	3632.4	
220.87	5547.9	
221.08	6239.5	
221.29	3357.3	
221.5	4528.7	
221.72	7608.9	
221.93	5251	
222.14	4254.3	
222.35	4982	
222.57	5572.5	
222.78	5870.2	
222.99	3987.4	
223.2	4300.7	
223.42	5924.8	
223.63	6011.5	
223.84	3099.9	
224.05	3061	
224.27	7111.2	
224.48	6487.3	
224.69	5298.8	
224.9	4207.2	
225.12	5731.6	
225.33	5480.4	
225.54	3313.6	
225.75	3719.1	
225.97	5017.5	
226.18	5404.6	
226.39	4092.5	
226.6	3786	
226.82	5261.2	
227.03	5156.1	
227.24	4265.9	
227.45	3443.3	
227.67	5897.5	
227.88	6550.1	
228.09	4689.8	
228.3	4626.4	
228.52	5973.2	
228.73	5519.3	
228.94	3897.3	
229.15	3495.9	
229.36	5427.1	
229.58	5315.2	
229.79	3895.2	
230	4612.7	
230.21	6683.2	
230.43	5651	
230.64	4133.5	
230.85	4376.5	
231.06	5945.9	
231.28	6034	
231.49	3461.7	
231.7	4141.7	
231.91	5856.5	
232.12	5556.8	
232.34	3551.2	
232.55	4074.8	
232.76	6229.9	
232.97	5705.6	
233.18	3662.5	
233.4	4165.6	
233.61	5730.9	
233.82	5273.5	
234.03	3885	
234.25	3855.6	
234.46	7793.9	
234.67	5626.5	
234.88	4267.3	
235.09	3723.2	
235.31	5853.8	
235.52	5437.4	
235.73	4101.4	
235.94	3467.2	
236.15	5231.2	
236.37	6726.9	
236.58	3657	
236.79	4043.4	
237	5868.1	
237.21	5008.6	
237.43	4360.1	
237.64	3391.4	
237.85	10262	
238.06	5055.1	
238.27	4506.2	
238.48	3500.7	
238.7	5900.2	
238.91	5375.2	
239.12	4007.2	
239.33	4018.8	
239.54	5065.3	
239.76	5452.4	
239.97	3979.2	
240.18	3989.4	
240.39	6997.9	
240.6	5857.9	
240.82	4153.3	
241.03	3441.3	
241.24	5479.7	
241.45	6473.6	
241.66	3633.1	
241.87	4358.8	
242.09	6247.7	
242.3	6676.4	
242.51	4405.9	
242.72	4057.7	
242.93	6021.7	
243.14	5476.3	
243.36	4660.5	
243.57	5068	
243.78	6446.3	
243.99	5925.5	
244.2	4070	
244.41	3660.4	
244.63	5068	
244.84	5917.3	
245.05	4308.2	
245.26	4002.4	
245.47	5829.2	
245.68	6102.3	
245.9	5418.9	
246.11	4238.6	
246.32	5343.2	
246.53	5840.1	
246.74	6602.7	
246.95	3352.5	
247.16	5023	
247.38	5524.1	
247.59	3285.6	
247.8	4116.4	
248.01	5225.1	
248.22	5474.9	
248.43	3625.6	
248.64	3919.1	
248.86	4840.7	
249.07	5263.3	
249.28	3450.8	
249.49	4080.2	
249.7	6090	
249.91	6334.4	
250.12	3340.9	
250.34	3386	
250.55	5684.5	
250.76	5544.5	
250.97	4133.5	
251.18	4233.2	
251.39	6313.9	
251.6	5762.3	
251.81	4278.2	
252.03	4234.5	
252.24	5265.3	
252.45	6076.3	
252.66	3478.8	
252.87	4538.3	
253.08	5540.4	
253.29	7379.5	
253.5	3513.6	
253.72	4894.6	
253.93	5375.2	
254.14	6598.6	
254.35	3812	
254.56	3991.5	
254.77	5809.4	
254.98	5107	
255.19	3741.6	
255.41	4889.9	
255.62	5612.1	
255.83	6203.3	
256.04	4372.4	
256.25	4229.7	
256.46	6823.1	
256.67	5212.8	
256.88	4171	
257.09	4685.8	
257.31	5192.3	
257.52	5223	
257.73	5257.1	
257.94	3834.5	
258.15	5304.2	
258.36	5591	
258.57	4813.4	
258.78	3032.4	
258.99	6113.2	
259.2	5356.1	
259.41	3879.5	
259.63	3934.1	
259.84	6421.7	
260.05	6881.2	
260.26	5109	
260.47	3790.1	
260.68	6203.3	
260.89	5383.4	
261.1	4696	
261.31	3685	
261.52	6133	
261.73	6584.9	
261.95	4992.3	
262.16	4315.1	
262.37	6257.9	
262.58	6369.9	
262.79	4950.6	
263	3954.6	
263.21	5653.8	
263.42	5004.6	
263.63	3945.8	
263.84	3846.8	
264.05	6178.7	
264.26	6515.3	
264.47	4866	
264.69	4354	
264.9	6314.6	
265.11	5741.8	
265.32	3701.4	
265.53	3809.2	
265.74	5692	
265.95	4889.9	
266.16	4117.8	
266.37	4574.5	
266.58	5613.5	
266.79	5346.6	
267	3788.7	
267.21	3512.3	
267.42	5084.4	
267.63	5556.1	
267.84	4026.3	
268.06	3458.3	
268.27	5973.2	
268.48	6308.4	
268.69	3895.2	
268.9	4680.3	
269.11	6283.2	
269.32	4962.2	
269.53	4035.9	
269.74	3725.3	
269.95	5912.5	
270.16	4848.9	
270.37	3997	
270.58	4692.6	
270.79	5382.1	
271	6097.5	
271.21	4369	
271.42	4062.5	
271.63	5673.6	
271.84	5165	
272.05	3209.8	
272.26	3679.5	
272.47	5581.4	
272.68	5815.5	
272.89	3856.3	
273.11	4497.3	
273.32	5363.6	
273.53	6520.7	
273.74	4346.5	
273.95	4285	
274.16	6234	
274.37	5633.3	
274.58	4465.3	
274.79	3577.1	
275	5599.8	
275.21	6282.5	
275.42	5324.7	
275.63	4563.6	
275.84	5814.9	
276.05	7407.5	
276.26	4265.9	
276.47	3997.6	
276.68	5383.4	
276.89	6604	
277.1	4582.7	
277.31	3538.2	
277.52	5778.7	
277.73	5986.2	
277.94	3516.4	
278.15	3856.3	
278.36	5803.9	
278.57	5195.7	
278.78	3833.8	
278.99	4347.2	
279.2	5117.9	
279.41	5141.1	
279.62	5109	
279.83	3571	
280.04	6807.4	
280.25	5027.1	
280.46	5071.5	
280.67	4043.4	
280.88	5132.2	
281.09	6257.2	
281.3	4265.2	
281.51	5442.1	
281.72	6070.9	
281.93	6124.1	
282.14	3746.4	
282.35	4095.3	
282.56	6039.5	
282.77	5995.8	
282.98	3915	
283.19	4852.3	
283.4	7457.3	
283.61	5493.3	
283.82	3532.1	
284.03	5058.5	
284.24	5679.7	
284.45	6234	
284.66	4999.1	
284.87	4824.3	
285.08	6126.2	
285.29	6337.8	
285.5	3408.5	
285.71	4014	
285.92	6255.2	
286.12	6901.7	
286.33	5005.2	
286.54	3928.7	
286.75	6087.9	
286.96	5404.6	
287.17	3588	
287.38	4956.8	
287.59	5199.1	
287.8	5053.7	
288.01	3953.3	
288.22	4517.8	
288.43	6138.4	
288.64	5055.8	
288.85	4728.1	
289.06	4428.4	
289.27	6016.9	
289.48	6556.9	
289.69	5043.5	
289.9	4530.8	
290.11	6228.6	
290.32	5259.9	
290.53	4753.3	
290.74	4390.2	
290.94	5998.5	
291.15	6077.7	
291.36	3805.1	
291.57	4558.8	
291.78	5292.6	
291.99	4951.3	
292.2	3607.2	
292.41	4334.9	
292.62	6152.8	
292.83	5884.5	
293.04	5485.1	
293.25	3640.6	
293.46	5304.2	
293.67	6176	
293.88	3787.4	
294.09	3581.9	
294.29	5061.2	
294.5	5687.9	
294.71	4067.3	
294.92	3863.2	
295.13	5357.5	
295.34	6683.2	
295.55	3364.8	
295.76	3466.5	
295.97	5971.2	
296.18	6794.5	
296.39	3560.7	
296.6	3792.8	
296.81	5650.3	
297.01	6025.8	
297.22	3969.6	
297.43	3788.1	
297.64	5174.5	
297.85	5151.3	
298.06	3104	
298.27	3366.9	
298.48	5649.7	
298.69	5257.1	
298.9	4085.7	
299.11	3712.3	
299.31	5056.4	
299.52	5056.4	
299.73	4416.8	
299.94	4334.9	
300.15	5523.4	
300.36	5154.7	
300.57	4329.4	
300.78	4304.1	
300.99	5368.4	
301.2	5696.8	
301.4	3666.5	
301.61	4117.8	
301.82	5900.9	
302.03	6019.7	
302.24	4588.1	
302.45	3595.6	
302.66	5870.2	
302.87	6294.8	
303.08	3715	
303.29	5197.7	
303.49	5208.7	
303.7	5585.5	
303.91	3373	
304.12	4890.5	
304.33	5058.5	
304.54	5749.3	
304.75	3845.4	
304.96	3535.5	
305.16	5876.3	
305.37	6696.2	
305.58	3290.4	
305.79	3459.7	
306	5862.7	
306.21	4904.2	
306.42	3776.5	
306.63	5801.9	
306.83	5418.9	
307.04	6195.8	
307.25	4188.1	
307.46	4115.7	
307.67	4748.6	
307.88	6049	
308.09	3630.4	
308.29	3859.1	
308.5	5680.4	
308.71	6161	
308.92	4078.2	
309.13	3685	
309.34	5367.7	
309.55	5502.2	
309.75	4650.9	
309.96	4334.2	
310.17	6005.3	
310.38	5226.4	
310.59	4602.5	
310.8	4240.7	
311.01	6768.5	
311.21	5430.5	
311.42	3542.3	
311.63	3728	
311.84	5277.6	
312.05	5687.9	
312.26	4241.3	
312.46	4603.8	
312.67	5345.2	
312.88	5107.6	
313.09	3662.5	
313.3	3554.6	
313.51	6391.7	
313.71	6745.3	
313.92	3607.2	
314.13	3863.2	
314.34	5722.7	
314.55	5362.3	
314.76	4754.7	
314.96	4100.7	
315.17	5636.7	
315.38	5991	
315.59	3701.4	
315.8	3525.9	
316.01	6475	
316.21	6471.6	
316.42	3497.2	
316.63	4042	
316.84	5423.7	
317.05	6330.3	
317.26	4364.2	
317.46	3913.7	
317.67	5436.7	
317.88	5952.1	
318.09	4754.7	
318.3	3364.1	
318.5	5229.8	
318.71	5937.7	
318.92	5978.7	
319.13	4301.4	
319.34	6102.9	
319.54	6235.4	
319.75	3371	
319.96	3257.6	
320.17	5954.8	
320.38	6190.3	
320.58	3263.1	
320.79	4014	
321	6148.7	
321.21	6210.8	
321.42	4046.1	
321.62	3297.2	
321.83	5097.4	
322.04	5603.9	
322.25	3837.9	
322.46	3641.3	
322.66	5660.6	
322.87	5864	
323.08	4579.9	
323.29	3588.7	
323.5	6655.2	
323.7	5147.2	
323.91	5006.6	
324.12	4484.4	
324.33	5608.7	
324.53	5922	
324.74	4316.4	
324.95	4560.8	
325.16	4939.7	
325.37	5354.1	
325.57	3622.2	
325.78	3733.4	
325.99	5622.4	
326.2	5040.7	
326.4	5397.1	
326.61	3396.2	
326.82	5487.2	
327.03	5732.3	
327.24	5236	
327.44	4988.2	
327.65	5856.5	
327.86	4691.2	
328.07	4317.1	
328.27	3503.4	
328.48	6237.4	
328.69	5107.6	
328.9	5386.2	
329.1	3971	
329.31	5472.2	
329.52	6432.7	
329.73	3688.4	
329.93	4120.5	
330.14	5591.6	
330.35	5799.8	
330.56	6084.5	
330.76	4489.1	
330.97	5345.2	
331.18	5777.3	
331.39	4100	
331.59	3295.9	
331.8	6157.6	
332.01	6318	
332.22	3775.8	
332.42	4348.5	
332.63	5651	
332.84	5205.3	
333.05	4111	
333.25	3693.9	
333.46	5332.2	
333.67	5583.4	
333.88	3799	
334.08	4272.7	
334.29	7511.9	
334.5	6306.4	
334.7	3565.5	
334.91	5322	
335.12	5057.1	
335.33	6028.5	
335.53	4122.6	
335.74	6111.1	
335.95	5305.6	
336.16	5206.6	
336.36	4031.8	
336.57	4683	
336.78	5088.5	
336.98	6144.6	
337.19	5103.5	
337.4	3984	
337.61	6745.3	
337.81	5080.3	
338.02	3784.6	
338.23	4867.3	
338.43	6391.7	
338.64	5147.2	
338.85	3697.9	
339.05	4863.2	
339.26	6377.4	
339.47	4979.3	
339.68	3698.6	
339.88	5458.5	
340.09	5840.1	
340.3	6082.5	
340.5	4326	
340.71	3261.7	
340.92	5002.5	
341.13	6373.3	
341.33	3525.9	
341.54	4276.2	
341.75	5812.1	
341.95	5412.1	
342.16	4158.7	
342.37	4442	
342.57	5101.5	
342.78	5506.3	
342.99	4626.4	
343.19	3296.5	
343.4	5989.6	
343.61	5808	
343.81	3890.5	
344.02	3646.7	
344.23	5996.5	
344.43	6450.4	
344.64	4568.3	
344.85	4506.2	
345.06	5808.7	
345.26	6189.6	
345.47	4304.8	
345.68	4988.2	
345.88	4882.4	
346.09	6029.2	
346.3	4392.9	
346.5	3237.8	
346.71	5586.9	
346.92	5278.3	
347.12	3284.9	
347.33	4212.7	
347.54	6180.1	
347.74	6612.9	
347.95	4200.4	
348.16	3093.1	
348.36	5380	
348.57	5193.6	
348.78	4153.3	
348.98	4569.7	
349.19	5518.6	
349.39	5029.1	
349.6	3335.5	
349.81	3713	
350.01	5801.2	
350.22	5230.5	
350.43	4046.1	
350.63	4928.8	
350.84	5557.5	
351.05	5255.1	
351.25	3717.7	
351.46	3266.5	
351.67	6207.4	
351.87	5187.5	
352.08	3895.9	
352.29	4477.5	
352.49	6029.2	
352.7	6181.5	
352.9	3588	
353.11	4469.4	
353.32	6789.7	
353.52	5344.5	
353.73	3479.5	
353.94	4532.8	
354.14	5885.2	
354.35	5723.4	
354.55	3624.2	
354.76	4031.8	
354.97	5858.6	
355.17	5595.1	
355.38	3364.1	
355.59	4823	
355.79	5171.1	
356	5724.8	
356.2	4025.6	
356.41	3461.1	
356.62	4888.5	
356.82	5416.2	
357.03	4277.5	
357.24	3868.6	
357.44	5257.8	
357.65	5382.1	
357.85	5208.7	
358.06	4084.3	
358.27	4936.3	
358.47	5214.8	
358.68	3305.4	
358.88	4317.8	
359.09	5824.4	
359.3	6222.4	
359.5	4997.7	
359.71	4412	
359.91	6726.9	
360.12	5977.3	
360.33	4244.1	
360.53	4758.1	
360.74	5192.3	
360.94	5234.6	
361.15	4504.8	
361.36	3665.9	
361.56	6029.2	
361.77	5442.8	
361.97	4997	
362.18	3928.7	
362.38	6040.1	
362.59	5020.9	
362.8	3607.8	
363	3463.8	
363.21	4886.5	
363.41	5593	
363.62	4118.5	
363.83	5283.8	
364.03	5636	
364.24	6710.5	
364.44	5352.7	
364.65	5353.4	
364.85	5386.2	
365.06	5035.3	
365.27	3764.8	
365.47	3810.6	
365.68	6378.7	
365.88	5345.9	
366.09	4197.7	
366.29	3898.6	
366.5	5659.9	
366.71	6141.2	
366.91	5338.4	
367.12	4405.2	
367.32	6744	
367.53	5957.5	
367.73	4332.1	
367.94	5286.5	
368.14	5872.9	
368.35	6888.7	
368.56	4343.7	
368.76	3689.1	
368.97	5984.2	
369.17	7866.9	
369.38	3760.1	
369.58	4052.2	
369.79	5022.3	
369.99	6358.3	
370.2	5164.3	
370.4	4144.4	
370.61	5700.9	
370.82	7015.7	
371.02	3994.9	
371.23	3381.2	
371.43	4879.6	
371.64	6311.2	
371.84	4085.7	
372.05	5427.1	
372.25	7660.1	
372.46	6020.3	
372.66	4048.8	
372.87	4065.9	
373.07	6060.6	
373.28	7756.3	
373.48	5184.1	
373.69	4827.7	
373.9	5505.6	
374.1	5524.7	
374.31	5082.4	
374.51	4552.6	
374.72	6409.5	
374.92	5152.7	
375.13	5186.1	
375.33	4398.4	
375.54	5969.1	
375.74	5313.8	
375.95	4452.3	
376.15	5818.3	
376.36	5962.3	
376.56	5703.6	
376.77	4567	
376.97	4982	
377.18	6999.3	
377.38	6023.8	
377.59	5438.7	
377.79	3903.4	
378	5762.3	
378.2	6269.5	
378.41	4091.8	
378.61	3986.7	
378.82	6282.5	
379.02	5313.8	
379.23	4194.2	
379.43	5446.2	
379.64	6386.9	
379.84	5904.3	
380.05	4006.5	
380.25	3987.4	
380.46	6126.2	
380.66	5594.4	
380.87	5352	
381.07	5830.6	
381.28	6737.1	
381.48	6120.7	
381.69	4085	
381.89	4103.4	
382.1	4928.1	
382.3	6256.5	
382.51	5260.5	
382.71	6167.1	
382.91	6149.4	
383.12	6616.3	
383.32	4409.3	
383.53	4692.6	
383.73	5910.4	
383.94	5694	
384.14	4503.5	
384.35	3686.3	
384.55	5603.2	
384.76	6163	
384.96	4367	
385.17	4721.9	
385.37	6118	
385.58	5293.3	
385.78	4821.6	
385.98	3578.5	
386.19	5575.9	
386.39	5907.7	
386.6	4135.5	
386.8	4414.7	
387.01	6050.4	
387.21	6052.4	
387.42	4885.8	
387.62	5498.8	
387.83	5326.1	
388.03	6055.8	
388.23	4411.3	
388.44	5267.4	
388.64	5026.4	
388.85	5111	
389.05	4843.4	
389.26	5538.4	
389.46	7129.7	
389.67	6455.9	
389.87	4754.7	
390.07	4900.1	
390.28	5717.2	
390.48	5292	
390.69	4045.4	
390.89	4308.2	
391.1	5352.7	
391.3	6412.2	
391.5	5622.4	
391.71	6307.7	
391.91	6138.4	
392.12	7185	
392.32	5674.9	
392.53	4849.6	
392.73	5474.2	
392.93	5751.4	
393.14	4458.4	
393.34	5217.5	
393.55	6229.9	
393.75	5661.3	
393.95	4483	
394.16	4467.3	
394.36	5357.5	
394.57	6146	
394.77	3849.5	
394.98	4354	
395.18	5300.1	
395.38	5511.8	
395.59	5324	
395.79	4160.8	
396	5497.4	
396.2	5933	
396.4	5005.9	
396.61	4955.4	
396.81	6211.5	
397.02	5456.5	
397.22	5306.3	
397.42	5363.6	
397.63	6148.7	
397.83	5357.5	
398.04	4078.9	
398.24	4653	
398.44	5942.5	
398.65	4947.2	
398.85	3870	
399.05	4108.2	
399.26	5239.4	
399.46	7224.6	
399.67	4401.1	
399.87	4152.6	
400.07	5725.4	
400.28	6102.3	
400.48	4189.5	
400.69	5399.8	
400.89	6346.7	
401.09	6812.2	
401.3	4089.8	
401.5	5389.6	
401.7	7058.7	
401.91	7350.2	
402.11	4528.1	
402.32	4737	
402.52	6261.3	
402.72	6163.7	
402.93	4928.1	
403.13	3726.6	
403.33	7077.8	
403.54	5726.1	
403.74	4616.8	
403.94	5571.2	
404.15	5880.4	
404.35	6986.3	
404.56	4386.7	
404.76	6363.7	
404.96	6328.9	
405.17	6057.2	
405.37	5816.9	
405.57	4907.6	
405.78	6314.6	
405.98	5748	
406.18	4349.9	
406.39	5374.6	
406.59	6268.1	
406.79	5864.7	
407	4145.8	
407.2	4300.7	
407.4	6302.3	
407.61	6466.1	
407.81	4308.2	
408.01	6636.1	
408.22	5164.3	
408.42	7292.1	
408.62	5385.5	
408.83	4747.9	
409.03	5793	
409.23	5490.6	
409.44	4860.5	
409.64	5209.3	
409.84	6812.2	
410.05	6710.5	
410.25	5061.9	
410.45	4762.2	
410.66	6053.8	
410.86	8701.8	
411.06	5158.8	
411.27	5061.2	
411.47	8459.5	
411.67	6226.5	
411.88	5273.5	
412.08	5477	
412.28	6967.9	
412.49	7434.8	
412.69	4965	
412.89	4987.5	
413.09	7222.5	
413.3	7029.3	
413.5	5122	
413.7	4608.6	
413.91	6283.2	
414.11	7200.7	
414.31	4879.6	
414.52	5311.1	
414.72	6787.7	
414.92	6744	
415.12	4920.6	
415.33	5429.2	
415.53	7127.6	
415.73	7341.3	
415.94	5783.5	
416.14	5229.1	
416.34	5980.1	
416.55	5771.9	
416.75	6470.9	
416.95	5780.1	
417.15	7089.4	
417.36	7903.1	
417.56	6593.8	
417.76	5665.4	
417.97	7439.6	
418.17	7099.6	
418.37	5117.9	
418.57	5274.2	
418.78	6848.4	
418.98	6446.3	
419.18	6107.7	
419.38	6112.5	
419.59	6537.1	
419.79	6157.6	
419.99	5154.7	
420.2	5533.6	
420.4	7097.6	
420.6	7316.7	
420.8	5072.1	
421.01	4815.5	
421.21	6835.4	
421.41	7141.9	
421.61	5444.9	
421.82	5115.1	
422.02	6300.2	
422.22	7357	
422.42	5900.9	
422.63	5662.6	
422.83	6464.8	
423.03	7770.7	
423.23	5644.9	
423.44	4457.7	
423.64	6571.2	
423.84	6316.6	
424.04	4978.6	
424.25	4622.9	
424.45	7599.3	
424.65	7513.3	
424.85	4465.3	
425.06	5025	
425.26	7451.9	
425.46	5971.2	
425.66	5569.8	
425.87	5197.1	
426.07	7311.9	
426.27	7092.8	
426.47	5317.9	
426.67	4689.2	
426.88	7620.5	
427.08	6985.6	
427.28	5620.3	
427.48	4628.4	
427.69	5902.2	
427.89	6552.8	
428.09	5603.9	
428.29	4665.3	
428.5	7255.3	
428.7	6725.5	
428.9	4571.1	
429.1	5237.3	
429.3	6578.8	
429.51	7103	
429.71	4922.6	
429.91	5756.8	
430.11	6969.2	
430.31	7156.3	
430.52	5210	
430.72	5451.7	
430.92	7589.8	
431.12	7025.9	
431.32	4762.9	
431.53	5216.9	
431.73	5769.1	
431.93	7626	
432.13	4677.6	
432.33	4562.9	
432.54	6283.9	
432.74	6689.3	
432.94	4443.4	
433.14	5663.3	
433.34	6859.3	
433.55	6257.2	
433.75	5546.6	
433.95	7391.1	
434.15	6554.2	
434.35	6262	
434.56	4752.7	
434.76	4091.8	
434.96	6579.4	
435.16	6863.4	
435.36	4513	
435.56	5743.2	
435.77	6210.1	
435.97	6384.2	
436.17	6382.8	
436.37	5573.9	
436.57	6188.3	
436.78	5988.3	
436.98	6526.2	
437.18	6247.7	
437.38	6813.6	
437.58	6387.6	
437.78	6440.9	
437.99	4949.3	
438.19	6963.8	
438.39	7724.9	
438.59	4817.5	
438.79	4351.3	
438.99	7570	
439.2	6341.9	
439.4	4519.2	
439.6	4443.4	
439.8	6687.3	
440	7836.9	
440.2	5532.9	
440.4	5690.6	
440.61	7001.3	
440.81	7591.1	
441.01	4657.1	
441.21	5545.9	
441.41	7331.7	
441.61	7066.9	
441.81	5819	
442.02	6990.4	
442.22	7914	
442.42	7027.9	
442.62	4562.9	
442.82	4772.4	
443.02	7389.8	
443.22	6474.3	
443.43	5137.7	
443.63	4655.7	
443.83	6206	
444.03	6322.8	
444.23	5894.7	
444.43	5575.9	
444.63	6575.3	
444.83	7863.5	
445.04	4684.4	
445.24	6129.6	
445.44	6949.4	
445.64	7068.9	
445.84	5638.1	
446.04	5606.7	
446.24	6391	
446.44	7475.8	
446.65	4738.3	
446.85	5184.1	
447.05	6416.3	
447.25	7367.9	
447.45	5242.8	
447.65	4596.3	
447.85	6606.1	
448.05	6318.7	
448.25	5688.6	
448.46	5413.5	
448.66	6543.3	
448.86	6387.6	
449.06	4403.8	
449.26	5753.4	
449.46	7022.5	
449.66	5975.3	
449.86	5124.7	
450.06	5048.9	
450.26	6152.8	
450.47	6824.5	
450.67	5369.8	
450.87	5666	
451.07	6873.7	
451.27	6621.1	
451.47	4620.9	
451.67	5102.9	
451.87	6236.1	
452.07	7515.4	
452.27	4892.6	
452.47	4826.4	
452.67	6549.4	
452.88	7109.9	
453.08	4238.6	
453.28	6350.1	
453.48	7791.2	
453.68	6560.3	
453.88	4711.7	
454.08	5016.2	
454.28	6935.1	
454.48	6525.5	
454.68	5547.3	
454.88	6070.2	
455.08	7036.1	
455.28	6713.9	
455.48	4580.6	
455.68	5229.1	
455.89	7451.9	
456.09	7076.4	
456.29	4896	
456.49	4898.7	
456.69	7299	
456.89	6676.4	
457.09	5470.8	
457.29	5793.7	
457.49	6821.8	
457.69	6922.8	
457.89	5182	
458.09	4609.3	
458.29	6575.3	
458.49	7281.9	
458.69	5636.7	
458.89	5002.5	
459.09	7503.8	
459.29	7663.5	
459.49	5076.2	
459.69	5979.4	
459.9	7036.8	
460.1	6468.2	
460.3	4969.1	
460.5	4816.8	
460.7	7025.9	
460.9	6646.3	
461.1	4354.7	
461.3	5783.5	
461.5	7631.4	
461.7	7105.1	
461.9	4767	
462.1	5320.6	
462.3	6610.2	
462.5	7185	
462.7	4746.5	
462.9	4862.6	
463.1	8301.1	
463.3	7931.8	
463.5	5118.6	
463.7	5945.9	
463.9	6708.5	
464.1	7116.7	
464.3	5109	
464.5	5471.5	
464.7	7358.4	
464.9	6954.2	
465.1	6851.8	
465.3	5718.6	
465.5	7757	
465.7	7596.6	
465.9	5989.6	
466.1	5921.4	
466.3	7449.1	
466.5	7323.5	
466.7	6668.2	
466.9	5477	
467.1	7194.5	
467.3	8233.5	
467.5	6642.9	
467.7	5360.9	
467.9	8389.8	
468.1	9342.2	
468.3	6343.9	
468.5	6639.5	
468.7	7094.2	
468.9	7107.1	
469.1	5631.2	
469.3	6427.9	
469.5	9250.7	
469.7	6625.2	
469.9	6276.3	
470.1	5393	
470.3	7100.3	
470.5	7130.3	
470.7	6795.2	
470.9	5381.4	
471.1	6883.2	
471.3	7445	
471.5	5231.2	
471.69	7407.5	
471.89	6718	
472.09	6237.4	
472.29	6188.3	
472.49	6608.8	
472.69	6488	
472.89	7397.9	
473.09	5154.1	
473.29	5459.2	
473.49	6599.2	
473.69	6865.5	
473.89	6384.9	
474.09	5499.5	
474.29	8219.9	
474.49	7921.5	
474.69	6362.4	
474.89	5681.7	
475.09	6911.9	
475.29	6789.7	
475.49	5152.7	
475.69	5328.1	
475.88	8631.5	
476.08	7133.1	
476.28	4967	
476.48	5533.6	
476.68	7733.1	
476.88	7572.7	
477.08	5344.5	
477.28	5615.5	
477.48	6944.7	
477.68	7799.3	
477.88	5079	
478.08	5537	
478.28	7977.5	
478.48	7117.4	
478.67	5485.1	
478.87	4980.7	
479.07	7750.9	
479.27	7195.2	
479.47	5776.6	
479.67	5745.9	
479.87	7593.2	
480.07	8211.7	
480.27	4965.6	
480.47	6716	
480.67	7258	
480.87	7884	
481.06	5218.9	
481.26	6147.3	
481.46	7161.1	
481.66	6942.6	
481.86	5688.6	
482.06	6853.9	
482.26	6859.3	
482.46	7961.8	
482.66	5673.6	
482.86	5226.4	
483.05	7179.5	
483.25	6555.5	
483.45	8331.1	
483.65	5622.4	
483.85	6712.6	
484.05	7014.3	
484.25	6071.5	
484.45	6606.7	
484.65	7919.5	
484.84	7913.4	
485.04	5467.4	
485.24	5480.4	
485.44	8178.2	
485.64	6429.3	
485.84	4709.6	
486.04	6193.1	
486.24	6747.4	
486.44	7263.5	
486.63	4714.4	
486.83	5530.9	
487.03	6583.5	
487.23	6801.3	
487.43	4770.4	
487.63	7286.7	
487.83	6875.7	
488.02	7932.5	
488.22	5727.5	
488.42	6391.7	
488.62	7819.1	
488.82	6647	
489.02	5343.2	
489.22	5347.2	
489.41	7675.8	
489.61	7179.5	
489.81	5030.5	
490.01	5151.3	
490.21	7522.2	
490.41	8196	
490.61	4853	
490.8	5171.8	
491	6999.3	
491.2	6288.6	
491.4	5870.8	
491.6	4904.2	
491.8	6953.5	
491.99	7236.8	
492.19	4668	
492.39	5124	
492.59	7572.7	
492.79	7570.7	
492.99	6051.1	
493.18	5042.8	
493.38	7632.1	
493.58	8303.1	
493.78	5809.4	
493.98	5289.9	
494.18	7257.3	
494.37	6689.3	
494.57	5915.2	
494.77	5740.5	
494.97	7406.8	
495.17	7565.2	
495.37	5197.7	
495.56	5634.6	
495.76	7807.5	
495.96	7458	
496.16	6592.4	
496.36	5388.9	
496.55	7597.3	
496.75	7023.2	
496.95	5782.1	
497.15	5598.5	
497.35	7545.4	
497.54	7474.4	
497.74	5416.9	
497.94	7086.7	
498.14	8211.7	
498.34	8037.6	
498.53	5031.2	
498.73	5866.7	
498.93	6746.7	
499.13	7423.2	
499.33	5633.3	
499.52	6227.2	
499.72	7251.2	
499.92	7666.2	
500.12	5242.8	
500.32	5600.5	
500.51	7677.8	
500.71	7346.7	
500.91	6408.8	
501.11	5950	
501.31	7511.3	
501.5	8078.6	
501.7	6634.7	
501.9	5505.6	
502.1	7414.3	
502.29	7610.3	
502.49	6021.7	
502.69	6612.2	
502.89	7573.4	
503.09	7498.3	
503.28	5081.7	
503.48	5283.8	
503.68	6750.8	
503.88	6748.1	
504.07	6304.3	
504.27	5771.9	
504.47	7144.7	
504.67	7386.3	
504.86	6199.9	
505.06	5797.8	
505.26	6877.8	
505.46	8864.3	
505.65	5787.6	
505.85	5982.1	
506.05	6889.4	
506.25	7372	
506.44	5067.4	
506.64	6166.4	
506.84	6790.4	
507.04	7876.5	
507.23	5329.5	
507.43	6012.8	
507.63	8875.9	
507.83	6969.2	
508.02	5993.7	
508.22	5464.7	
508.42	9216.5	
508.62	6827.9	
508.81	6124.8	
509.01	6395.8	
509.21	6736.5	
509.4	6914.6	
509.6	6025.8	
509.8	5291.3	
510	6982.9	
510.19	8455.4	
510.39	5355.4	
510.59	5328.1	
510.79	6725.5	
510.98	8210.3	
511.18	5352.7	
511.38	5586.2	
511.57	7649.8	
511.77	7479.2	
511.97	6257.2	
512.17	5167.7	
512.36	7643.7	
512.56	7599.3	
512.76	5227.8	
512.95	4980.7	
513.15	7679.2	
513.35	6174.6	
513.55	6186.2	
513.74	5270.8	
513.94	7623.9	
514.14	6983.6	
514.33	6299.6	
514.53	5973.2	
514.73	6871.6	
514.92	7114.6	
515.12	5441.5	
515.32	5202.5	
515.51	7169.3	
515.71	7866.2	
515.91	7040.9	
516.11	5266	
516.3	8998.1	
516.5	6685.3	
516.7	5913.2	
516.89	6520.7	
517.09	6991.1	
517.29	6761.7	
517.48	6137.8	
517.68	5609.4	
517.88	6608.8	
518.07	7238.9	
518.27	6052.4	
518.47	5010.7	
518.66	7847.8	
518.86	6408.8	
519.06	4829.8	
519.25	5446.9	
519.45	6759	
519.65	8256.7	
519.84	6032.6	
520.04	6845.7	
520.24	8737.3	
520.43	7404.1	
520.63	5784.1	
520.83	5459.9	
521.02	6533.7	
521.22	7303.1	
521.42	6066.8	
521.61	6664.8	
521.81	6919.4	
522.01	7054.6	
522.2	5864	
522.4	5671.5	
522.6	7529	
522.79	6236.7	
522.99	5754.1	
523.18	4816.1	
523.38	7135.1	
523.58	7121.5	
523.77	6844.3	
523.97	4846.2	
524.17	9053.4	
524.36	8183	
524.56	6266.8	
524.76	5849.7	
524.95	7020.4	
525.15	6636.8	
525.34	5630.5	
525.54	5549.3	
525.74	7406.8	
525.93	6257.2	
526.13	6701	
526.33	5410.1	
526.52	7640.3	
526.72	7111.9	
526.91	6768.5	
527.11	5880.4	
527.31	7686	
527.5	8144.8	
527.7	5847.6	
527.89	4726.7	
528.09	6496.8	
528.29	7058.7	
528.48	6251.8	
528.68	5907	
528.87	7522.9	
529.07	7556.3	
529.27	5736.4	
529.46	5252.4	
529.66	7045	
529.85	7512.6	
530.05	5066.7	
530.25	5913.9	
530.44	8513.4	
530.64	7060.7	
530.83	5477	
531.03	5703.6	
531.23	7458	
531.42	7296.9	
531.62	6542.6	
531.81	5692	
532.01	7423.2	
532.21	8028	
532.4	5338.4	
532.6	5675.6	
532.79	8476.5	
532.99	7496.9	
533.18	5643.5	
533.38	6722.1	
533.58	6974	
533.77	7823.9	
533.97	5611.4	
534.16	6484.6	
534.36	7961.8	
534.55	7003.4	
534.75	6578.8	
534.95	5575.3	
535.14	7728.4	
535.34	6942.6	
535.53	5289.2	
535.73	7418.4	
535.92	8389.2	
536.12	7230.7	
536.31	5411.4	
536.51	6614.9	
536.71	7633.5	
536.9	6969.2	
537.1	5597.8	
537.29	5688.6	
537.49	8027.4	
537.68	6827.9	
537.88	6056.5	
538.07	5233.2	
538.27	7090.8	
538.46	8230.1	
538.66	5101.5	
538.86	5603.2	
539.05	7197.9	
539.25	7555.6	
539.44	5836	
539.64	5527.5	
539.83	7043.6	
540.03	8119.5	
540.22	5369.1	
540.42	5567.7	
540.61	7374.7	
540.81	7382.2	
541	6126.8	
541.2	6697.5	
541.39	6873	
541.59	7187	
541.78	6363	
541.98	5387.5	
542.18	6515.3	
542.37	6548	
542.57	5836	
542.76	6348	
542.96	6653.2	
543.15	7472.4	
543.35	5892	
543.54	5268.1	
543.74	7805.5	
543.93	7293.5	
544.13	5953.4	
544.32	7152.2	
544.52	7729	
544.71	6759	
544.91	4939	
545.1	6348.7	
545.3	6851.8	
545.49	7576.1	
545.69	4947.2	
545.88	5636	
546.08	8557.8	
546.27	8125	
546.47	6107.7	
546.66	5465.3	
546.86	7855.3	
547.05	8583	
547.24	5738.4	
547.44	5380.7	
547.63	6699.6	
547.83	7896.3	
548.02	5862	
548.22	6100.2	
548.41	6583.5	
548.61	8003.5	
548.8	5498.1	
549	5309	
549.19	7230.7	
549.39	7560.4	
549.58	5079.6	
549.78	5743.9	
549.97	7632.1	
550.17	7165.2	
550.36	6714.6	
550.55	7709.9	
550.75	7159	
550.94	8092.9	
551.14	5401.9	
551.33	5850.4	
551.53	6444.3	
551.72	7559.1	
551.92	5854.5	
552.11	5560.9	
552.31	7529	
552.5	7600	
552.69	7316	
552.89	5186.8	
553.08	7488.1	
553.28	7286	
553.47	5577.3	
553.67	6870.9	
553.86	8344.8	
554.06	6470.9	
554.25	4754	
554.44	5377.3	
554.64	9040.4	
554.83	8522.3	
555.03	5393.7	
555.22	5817.6	
555.42	7658.7	
555.61	7424.6	
555.8	5517.2	
556	5911.1	
556.19	6519.4	
556.39	7924.3	
556.58	5586.2	
556.78	5589.6	
556.97	7353.6	
557.16	6950.8	
557.36	6972.7	
557.55	5236	
557.75	6315.9	
557.94	8150.2	
558.13	5414.8	
558.33	5102.9	
558.52	7935.2	
558.72	6771.3	
558.91	5284.4	
559.1	5511.1	
559.3	6455.9	
559.49	6211.5	
559.69	4776.5	
559.88	5862.7	
560.07	7404.8	
560.27	7822.6	
560.46	6117.3	
560.66	6246.3	
560.85	7088.7	
561.04	6268.8	
561.24	5213.4	
561.43	5546.6	
561.63	6475	
561.82	6855.9	
562.01	6825.9	
562.21	5799.8	
562.4	7278.5	
562.59	8282.7	
562.79	5554.1	
562.98	5244.2	
563.18	7215.7	
563.37	8736.6	
563.56	6105.7	
563.76	5035.3	
563.95	6598.6	
564.14	6499.6	
564.34	5481.7	
564.53	5352	
564.73	7115.3	
564.92	7506.5	
565.11	5745.2	
565.31	5035.3	
565.5	7658	
565.69	6605.4	
565.89	5205.3	
566.08	5545.2	
566.27	7624.6	
566.47	8030.1	
566.66	6211.5	
566.85	4734.2	
567.05	7079.8	
567.24	6539.2	
567.44	5178.6	
567.63	6619	
567.82	7423.9	
568.02	7110.5	
568.21	5174.5	
568.4	5604.6	
568.6	6939.9	
568.79	7010.2	
568.98	4891.2	
569.18	5102.2	
569.37	6909.2	
569.56	9082.1	
569.76	5455.1	
569.95	6389.7	
570.14	7359.7	
570.34	7237.5	
570.53	4973.2	
570.72	4951.3	
570.91	7819.8	
571.11	6935.1	
571.3	5470.8	
571.49	6410.1	
571.69	6897.6	
571.88	6470.2	
572.07	6063.4	
572.27	6066.1	
572.46	6462.7	
572.65	7621.9	
572.85	5130.2	
573.04	5519.3	
573.23	7771.4	
573.43	6989.7	
573.62	4849.6	
573.81	5601.9	
574	6915.3	
574.2	6825.9	
574.39	5221.6	
574.58	5368.4	
574.78	7796.6	
574.97	7086.7	
575.16	5795.1	
575.36	5998.5	
575.55	7420.5	
575.74	7540.6	
575.93	4869.4	
576.13	5952.8	
576.32	6787	
576.51	7376.8	
576.71	5323.4	
576.9	6797.9	
577.09	7720.8	
577.28	7206.1	
577.48	5777.3	
577.67	4689.2	
577.86	6868.9	
578.05	7180.9	
578.25	5395.7	
578.44	5539.8	
578.63	6982.9	
578.83	8170.7	
579.02	4767	
579.21	6366.5	
579.4	7108.5	
579.6	6744	
579.79	5572.5	
579.98	7922.2	
580.17	7465.5	
580.37	7572.7	
580.56	5076.9	
580.75	5843.5	
580.94	8091.5	
581.14	7890.8	
581.33	6221.7	
581.52	5113.8	
581.71	7376.8	
581.91	8062.9	
582.1	4682.3	
582.29	5453.7	
582.48	6920.1	
582.68	6823.8	
582.87	5925.5	
583.06	5496.1	
583.25	7253.2	
583.45	6516	
583.64	6150.1	
583.83	6967.9	
584.02	6691.4	
584.21	7128.3	
584.41	6230.6	
584.6	5433.3	
584.79	6896.9	
584.98	7672.4	
585.18	4891.2	
585.37	4846.9	
585.56	6412.2	
585.75	7293.5	
585.94	5179.3	
586.14	5823.1	
586.33	7956.4	
586.52	6877.8	
586.71	5735	
586.91	5337	
587.1	6309.8	
587.29	7428.7	
587.48	5335.6	
587.67	5230.5	
587.87	7299.6	
588.06	7546.8	
588.25	6703	
588.44	6005.3	
588.63	7068.2	
588.83	7600.7	
589.02	5418.2	
589.21	5356.1	
589.4	6886	
589.59	6686.6	
589.78	4664.6	
589.98	4994.3	
590.17	6445.6	
590.36	7061.4	
590.55	4456.4	
590.74	5388.2	
590.94	8609.7	
591.13	7064.8	
591.32	5130.8	
591.51	4687.8	
591.7	7578.8	
591.89	6960.4	
592.09	4716.5	
592.28	5313.1	
592.47	6146.6	
592.66	8155	
592.85	4712.4	
593.05	4955.4	
593.24	6747.4	
593.43	7553.6	
593.62	4969.1	
593.81	5524.7	
594	6773.3	
594.19	7026.6	
594.39	4911	
594.58	4814.1	
594.77	7111.2	
594.96	7782.3	
595.15	4848.2	
595.34	5561.6	
595.54	7192.5	
595.73	6238.1	
595.92	4202.4	
596.11	5494.7	
596.3	7728.4	
596.49	6338.5	
596.68	5180	
596.88	5732.3	
597.07	7494.9	
597.26	6158.2	
597.45	4713.1	
597.64	5969.8	
597.83	6451.1	
598.02	7114.6	
598.22	4813.4	
598.41	5461.9	
598.6	6858	
598.79	6300.2	
598.98	4840.7	
599.17	5801.9	
599.36	6889.4	
599.55	8177.5	
599.74	7034.1	
599.94	6707.8	
600.13	7474.4	
600.32	6239.5	
600.51	4547.9	
600.7	4683.7	
600.89	8087.4	
601.08	8178.2	
601.27	4475.5	
601.47	5535.7	
601.66	7379.5	
601.85	8098.4	
602.04	5171.8	
602.23	5476.3	
602.42	6352.1	
602.61	7068.2	
602.8	5197.1	
602.99	4912.4	
603.18	6772.6	
603.37	7073.7	
603.57	5581.4	
603.76	6146.6	
603.95	7826.7	
604.14	7372	
604.33	4894.6	
604.52	5307	
604.71	6916.7	
604.9	6515.3	
605.09	5917.3	
605.28	5743.9	
605.47	7503.1	
605.66	7282.6	
605.86	5636	
606.05	4925.4	
606.24	7555	
606.43	5991	
606.62	5276.3	
606.81	6204	
607	7456	
607.19	6670.9	
607.38	4683	
607.57	5005.9	
607.76	6554.9	
607.95	5934.3	
608.14	5386.2	
608.33	6116.6	
608.52	6464.8	
608.72	7305.1	
608.91	4677.6	
609.1	4535.6	
609.29	6643.6	
609.48	6126.8	
609.67	5640.8	
609.86	4660.5	
610.05	6130.9	
610.24	6632.7	
610.43	4435.2	
610.62	4080.2	
610.81	7733.1	
611	7538.6	
611.19	4661.9	
611.38	5360.9	
611.57	6853.9	
611.76	8280.6	
611.95	4337.6	
612.14	4307.6	
612.33	6658.6	
612.52	6129.6	
612.71	4986.1	
612.9	4096.6	
613.09	5753.4	
613.28	8251.9	
613.47	4691.2	
613.66	5759.6	
613.85	6813.6	
614.04	6306.4	
614.24	4756.1	
614.43	3947.8	
614.62	6982.9	
614.81	6844.3	
615	5368.4	
615.19	5416.9	
615.38	6165.1	
615.57	6503.7	
615.76	5309.7	
615.95	6246.3	
616.14	6923.5	
616.33	6567.2	
616.52	5563.6	
616.71	5819	
616.9	6879.1	
617.09	6731.7	
617.28	4932.9	
617.47	6398.5	
617.66	5923.4	
617.85	5965.1	
618.04	5803.3	
618.22	5228.5	
618.41	6240.2	
618.6	7180.9	
618.79	5071.5	
618.98	4737.6	
619.17	7497.6	
619.36	5773.9	
619.55	4913.8	
619.74	4936.3	
619.93	6634.7	
620.12	6091.3	
620.31	5503.6	
620.5	5700.9	
620.69	7661.5	
620.88	7727	
621.07	6405.4	
621.26	5317.9	
621.45	6821.1	
621.64	6825.9	
621.83	5496.7	
622.02	4498.7	
622.21	6896.2	
622.4	6535.1	
622.59	5937.1	
622.78	5732.9	
622.97	6229.9	
623.16	7290.8	
623.35	5354.1	
623.54	4450.9	
623.72	6429.9	
623.91	6559	
624.1	5612.8	
624.29	4206.5	
624.48	7733.1	
624.67	6947.4	
624.86	5498.8	
625.05	4475.5	
625.24	7834.8	
625.43	6095.4	
625.62	7363.1	
625.81	4732.2	
626	7236.2	
626.19	6362.4	
626.38	5551.4	
626.56	4984.8	
626.75	6210.8	
626.94	6779.5	
627.13	5599.8	
627.32	4203.8	
627.51	6918	
627.7	8415.1	
627.89	4305.5	
628.08	5499.5	
628.27	6126.2	
628.46	6324.8	
628.65	4749.9	
628.83	4347.2	
629.02	6923.5	
629.21	6166.4	
629.4	5144.5	
629.59	5324	
629.78	6043.6	
629.97	7176.8	
630.16	5444.2	
630.35	4794.3	
630.54	7563.1	
630.72	7298.3	
630.91	4862.6	
631.1	5457.2	
631.29	6731	
631.48	6918.7	
631.67	5507	
631.86	4972.5	
632.05	6292	
632.24	6341.2	
632.42	4547.2	
632.61	5190.9	
632.8	6496.8	
632.99	5981.4	
633.18	5151.3	
633.37	5672.9	
633.56	6739.9	
633.75	6481.1	
633.93	5180.7	
634.12	4866	
634.31	7595.2	
634.5	7063.4	
634.69	4901.5	
634.88	5443.5	
635.07	6436.8	
635.25	7168.6	
635.44	5923.4	
635.63	6096.1	
635.82	6311.8	
636.01	5780.7	
636.2	5789.6	
636.39	5366.4	
636.57	7514.7	
636.76	7233.4	
636.95	4753.3	
637.14	6231.3	
637.33	6844.3	
637.52	7795.3	
637.7	4496.7	
637.89	5480.4	
638.08	6350.8	
638.27	7948.8	
638.46	5614.2	
638.65	6139.8	
638.83	7888.8	
639.02	6176	
639.21	5528.8	
639.4	6029.2	
639.59	6777.4	
639.78	6301.6	
639.96	4870.8	
640.15	4799.1	
640.34	6610.2	
640.53	6806.8	
640.72	4535.6	
640.91	4878.3	
641.09	6040.1	
641.28	7492.8	
641.47	4875.5	
641.66	5786.9	
641.85	6779.5	
642.03	7017	
642.22	5578.7	
642.41	5020.9	
642.6	6183.5	
642.79	5564.3	
642.97	4807.3	
643.16	5635.3	
643.35	6118.6	
643.54	5905.7	
643.73	4734.9	
643.91	5694.7	
644.1	5879	
644.29	6537.1	
644.48	4897.4	
644.67	4933.6	
644.85	6137.8	
645.04	6477	
645.23	4508.9	
645.42	4859.1	
645.6	6042.9	
645.79	7320.8	
645.98	4916.5	
646.17	3848.8	
646.36	5856.5	
646.54	6571.2	
646.73	5857.9	
646.92	4541	
647.11	6136.4	
647.29	7287.4	
647.48	4586.1	
647.67	4412	
647.86	7596.6	
648.05	7488.7	
648.23	5043.5	
648.42	6374.6	
648.61	6924.9	
648.8	6500.9	
648.98	4619.5	
649.17	4952.7	
649.36	6078.4	
649.55	5568.4	
649.73	4677.6	
649.92	5475.6	
650.11	6022.4	
650.3	6391	
650.48	4851.6	
650.67	4491.9	
650.86	6755.6	
651.05	5501.5	
651.23	4758.1	
651.42	4790.2	
651.61	6118	
651.79	6335.7	
651.98	5023.7	
652.17	4580.6	
652.36	6645.7	
652.54	5677	
652.73	4599.7	
652.92	4453.6	
653.11	6731	
653.29	6695.5	
653.48	3904.8	
653.67	4999.1	
653.85	6498.9	
654.04	7638.2	
654.23	5317.9	
654.42	4809.3	
654.6	6077	
654.79	6736.5	
654.98	4268.6	
655.16	4863.9	
655.35	5637.4	
655.54	5691.3	
655.73	4405.2	
655.91	4328.7	
656.1	6869.6	
656.29	5524.1	
656.47	3799.7	
656.66	5730.2	
656.85	5894.1	
657.03	5879	
657.22	4403.8	
657.41	4409.3	
657.59	6029.9	
657.78	5694	
657.97	4082.3	
658.16	4869.4	
658.34	6602.7	
658.53	7038.2	
658.72	5737.7	
658.9	6376	
659.09	5967.1	
659.28	6127.5	
659.46	4484.4	
659.65	4345.8	
659.84	5806.7	
660.02	6320	
660.21	4239.3	
660.4	4336.2	
660.58	6786.3	
660.77	6100.9	
660.96	4956.1	
661.14	3889.1	
661.33	7412.3	
661.52	7217.7	
661.7	3859.1	
661.89	7910.6	
662.08	5724.8	
662.26	5345.2	
662.45	4214.7	
662.64	4385.4	
662.82	6505	
663.01	5660.6	
663.2	4351.3	
663.38	5186.8	
663.57	6417	
663.75	6264.7	
663.94	4762.2	
664.13	6105.7	
664.31	5694	
664.5	6483.2	
664.69	4918.5	
664.87	5679	
665.06	5425.8	
665.25	6284.5	
665.43	5838.1	
665.62	5898.1	
665.8	6669.6	
665.99	5872.9	
666.18	4759.5	
666.36	4884.4	
666.55	6614.9	
666.74	6513.2	
666.92	4323.3	
667.11	6173.9	
667.29	5836.7	
667.48	6541.2	
667.67	5702.2	
667.85	4790.2	
668.04	5991	
668.22	5939.8	
668.41	4825	
668.6	4949.3	
668.78	5733.6	
668.97	6012.2	
669.15	5173.2	
669.34	4104.8	
669.53	5732.3	
669.71	6072.9	
669.9	4323.9	
670.08	5012.7	
670.27	5674.9	
670.46	6405.4	
670.64	5203.2	
670.83	5534.3	
671.01	5590.3	
671.2	6335	
671.38	4335.5	
671.57	4219.5	
671.76	6976.7	
671.94	7533.1	
672.13	4212	
672.31	5408.7	
672.5	6483.9	
672.69	5774.6	
672.87	4360.8	
673.06	4693.9	
673.24	6315.3	
673.43	5767.1	
673.61	5141.8	
673.8	4662.5	
673.98	6518.7	
674.17	6697.5	
674.36	5270.1	
674.54	5156.1	
674.73	6281.1	
674.91	6494.1	
675.1	4855.7	
675.28	4540.3	
675.47	6010.8	
675.65	6603.3	
675.84	4733.5	
676.03	5014.8	
676.21	5779.4	
676.4	5270.1	
676.58	5620.3	
676.77	5289.9	
676.95	7354.9	
677.14	5752.1	
677.32	4469.4	
677.51	4158.1	
677.69	6602.7	
677.88	5367.7	
678.06	4286.4	
678.25	4324.6	
678.44	6011.5	
678.62	5812.1	
678.81	4119.1	
678.99	5064.6	
679.18	6875	
679.36	6483.9	
679.55	4678.2	
679.73	5369.8	
679.92	6407.4	
680.1	5795.8	
680.29	5952.8	
680.47	4687.8	
680.66	5741.1	
680.84	6630	
681.03	3921.2	
681.21	4977.2	
681.4	5808.7	
681.58	5670.1	
681.77	4433.2	
681.95	4348.5	
682.14	6714.6	
682.32	7060	
682.51	5390.3	
682.69	4124.6	
682.88	5664	
683.06	6451.8	
683.25	5129.5	
683.43	5606	
683.62	5983.5	
683.8	6428.6	
683.99	5698.1	
684.17	4962.2	
684.36	7381.6	
684.54	6032.6	
684.73	4171.7	
684.91	4486.4	
685.1	6459.3	
685.28	5829.2	
685.46	5144.5	
685.65	5219.6	
685.83	6847.7	
686.02	6053.8	
686.2	4543.8	
686.39	4699.4	
686.57	5937.7	
686.76	7384.3	
686.94	4480.3	
687.13	4715.8	
687.31	6609.5	
687.5	6004.6	
687.68	4064.5	
687.86	5526.1	
688.05	7703.8	
688.23	5466	
688.42	5477	
688.6	4536.3	
688.79	5853.1	
688.97	5920.7	
689.16	4989.5	
689.34	3867.9	
689.52	6706.4	
689.71	6881.9	
689.89	5254.4	
690.08	4514.4	
690.26	6163	
690.45	6067.4	
690.63	5569.1	
690.81	4690.5	
691	5902.2	
691.18	5876.3	
691.37	4909	
691.55	7226.6	
691.74	5854.5	
691.92	8021.2	
692.1	4958.1	
692.29	4296.6	
692.47	6069.5	
692.66	5282.4	
692.84	4522.6	
693.02	5078.3	
693.21	5425.8	
693.39	6007.4	
693.58	5089.2	
693.76	4543.8	
693.94	7281.9	
694.13	6917.4	
694.31	4440.7	
694.5	5690.6	
694.68	5717.2	
694.86	6043.6	
695.05	4801.1	
695.23	5236.7	
695.42	6471.6	
695.6	8949.6	
695.78	5492	
695.97	4529.4	
696.15	6411.5	
696.34	5827.2	
696.52	4238.6	
696.7	5199.8	
696.89	6306.4	
697.07	5605.3	
697.25	5199.1	
697.44	6778.8	
697.62	6215.6	
697.81	6673.6	
697.99	4890.5	
698.17	5375.9	
698.36	5565	
698.54	6335.7	
698.72	5182.7	
698.91	4071.4	
699.09	5899.5	
699.28	5788.2	
699.46	4889.9	
699.64	4728.1	
699.83	5621.7	
700.01	7058.7	
700.19	5554.1	
700.38	3876.1	
700.56	6924.9	
700.74	5709.7	
700.93	4273.4	
701.11	5169.8	
701.29	6331.6	
701.48	7441.6	
701.66	4457.7	
701.84	4589.5	
702.03	5795.1	
702.21	6496.2	
702.39	4084.3	
702.58	4620.2	
702.76	6299.6	
702.94	6471.6	
703.13	4100.7	
703.31	6642.2	
703.49	5474.9	
703.68	7131.7	
703.86	4278.2	
704.04	5343.2	
704.23	6120.7	
704.41	6522.8	
704.59	4387.4	
704.78	5767.8	
704.96	7251.2	
705.14	6614.3	
705.33	4214	
705.51	5108.3	
705.69	5874.3	
705.87	6771.3	
706.06	5429.2	
706.24	4156.7	
706.42	6271.6	
706.61	6563.7	
706.79	5501.5	
706.97	4194.2	
707.16	5696.8	
707.34	6345.3	
707.52	5478.3	
707.7	4468	
707.89	5825.8	
708.07	5549.3	
708.25	5428.5	
708.44	5481	
708.62	5838.8	
708.8	7018.4	
708.98	5701.5	
709.17	4553.3	
709.35	6262.7	
709.53	6294.1	
709.72	4241.3	
709.9	4468	
710.08	6516	
710.26	6485.2	
710.45	6010.8	
710.63	4638.6	
710.81	6154.8	
710.99	6176.7	
711.18	5367.7	
711.36	4839.4	
711.54	6058.6	
711.72	6778.8	
711.91	4932.9	
712.09	4235.9	
712.27	6227.9	
712.45	6944.7	
712.64	5307	
712.82	4217.5	
713	5729.5	
713.18	5941.8	
713.37	4424.3	
713.55	5721.3	
713.73	6944.7	
713.91	5453.7	
714.1	5031.2	
714.28	4346.5	
714.46	6780.1	
714.64	5849.7	
714.83	3904.8	
715.01	4819.6	
715.19	6017.6	
715.37	5424.4	
715.55	4525.3	
715.74	4887.8	
715.92	7087.3	
716.1	4995	
716.28	6087.2	
716.47	5098.8	
716.65	5739.1	
716.83	5883.8	
717.01	4921.3	
717.19	5029.1	
717.38	8024.6	
717.56	5456.5	
717.74	5119.2	
717.92	4218.8	
718.1	6722.8	
718.29	5876.3	
718.47	3730.7	
718.65	4468	
718.83	6513.9	
719.01	6391	
719.2	3558.7	
719.38	4705.5	
719.56	6098.9	
719.74	7858.7	
719.92	4287.8	
720.11	5494.7	
720.29	6205.3	
720.47	5236	
720.65	3898.6	
720.83	4924.7	
721.02	5790.3	
721.2	5482.4	
721.38	4942.4	
721.56	4170.3	
721.74	4922	
721.92	5253	
722.11	5508.4	
722.29	5203.9	
722.47	6561.7	
722.65	5666.7	
722.83	4190.1	
723.01	5257.8	
723.2	5760.3	
723.38	6042.2	
723.56	3581.2	
723.74	4872.8	
723.92	5166.3	
724.1	6468.2	
724.29	4126	
724.47	5502.9	
724.65	5308.3	
724.83	5178.6	
725.01	4029.7	
725.19	5033.2	
725.37	5301.5	
725.56	5408.7	
725.74	3878.2	
725.92	4132.1	
726.1	5261.2	
726.28	5558.9	
726.46	4698	
726.64	4377.2	
726.83	5513.8	
727.01	5833.3	
727.19	3867.9	
727.37	4768.4	
727.55	5614.2	
727.73	6178.7	
727.91	3822.2	
728.09	3642	
728.28	6270.2	
728.46	6932.4	
728.64	4917.9	
728.82	4863.9	
729	7414.3	
729.18	6513.9	
729.36	3911.6	
729.54	6559.6	
729.72	7595.9	
729.91	5726.8	
730.09	5980.8	
730.27	4590.2	
730.45	5582.1	
730.63	6295.5	
730.81	5255.1	
730.99	4188.1	
731.17	6842.9	
731.35	5286.5	
731.53	4761.5	
731.71	4400.4	
731.9	6574	
732.08	6856.6	
732.26	4693.9	
732.44	4296	
732.62	6814.3	
732.8	6320.7	
732.98	5111	
733.16	4144.4	
733.34	6287.3	
733.52	5016.8	
733.7	4702.1	
733.88	4963.6	
734.07	6119.3	
734.25	5885.2	
734.43	4099.4	
734.61	5770.5	
734.79	7415	
734.97	5687.2	
735.15	4292.5	
735.33	4588.1	
735.51	6104.3	
735.69	5653.1	
735.87	5976.7	
736.05	4858.5	
736.23	5921.4	
736.41	5722	
736.59	4741.7	
736.77	4720.6	
736.95	6366.5	
737.13	5795.1	
737.32	4305.5	
737.5	4509.6	
737.68	6939.9	
737.86	5681.7	
738.04	4020.8	
738.22	6111.8	
738.4	5467.4	
738.58	5819.6	
738.76	4802.5	
738.94	3576.4	
739.12	5606	
739.3	5441.5	
739.48	5452.4	
739.66	5126.1	
739.84	5875.6	
740.02	5891.3	
740.2	3695.2	
740.38	4169.7	
740.56	6277	
740.74	5089.9	
740.92	4844.1	
741.1	4780	
741.28	5710.4	
741.46	5538.4	
741.64	4402.5	
741.82	4940.4	
742	5729.5	
742.18	5732.3	
742.36	4631.1	
742.54	4083	
742.72	6406.7	
742.9	5018.2	
743.08	5034.6	
743.26	3733.4	
743.44	6563.7	
743.62	6484.6	
743.8	5193	
743.98	4229.7	
744.16	6167.8	
744.34	5853.8	
744.52	5127.4	
744.7	5096	
744.88	6290	
745.06	5814.2	
745.24	5183.4	
745.42	5345.9	
745.6	6346	
745.78	6159.6	
745.96	3958.7	
746.14	4293.9	
746.32	7244.3	
746.5	6460.7	
746.68	4934.2	
746.86	4356.7	
747.03	6954.2	
747.21	5057.1	
747.39	4943.8	
747.57	4461.8	
747.75	6023.1	
747.93	6497.5	
748.11	4336.2	
748.29	4231.8	
748.47	7731.1	
748.65	5759.6	
748.83	5160.2	
749.01	4803.9	
749.19	6266.1	
749.37	5343.2	
749.55	4630.5	
749.73	4861.9	
749.91	5896.1	
750.09	5621	
750.26	4862.6	
750.44	4197.7	
750.62	5923.4	
750.8	5894.7	
750.98	3989.4	
751.16	4368.3	
751.34	6020.3	
751.52	5244.2	
751.7	5264	
751.88	3999	
752.06	6550.1	
752.24	6362.4	
752.42	3981.9	
752.59	4400.4	
752.77	5912.5	
752.95	7251.2	
753.13	5179.3	
753.31	4552.6	
753.49	5569.1	
753.67	6126.8	
753.85	4868.7	
754.03	4351.3	
754.21	6396.5	
754.38	6851.8	
754.56	4658.4	
754.74	3600.3	
754.92	5640.1	
755.1	6472.3	
755.28	3721.2	
755.46	3852.2	
755.64	7273.7	
755.82	7602.7	
755.99	4249.5	
756.17	4406.5	
756.35	4947.9	
756.53	6665.5	
756.71	3267.2	
756.89	4226.3	
757.07	6273.6	
757.25	5210.7	
757.42	4818.2	
757.6	5773.2	
757.78	6173.9	
757.96	5027.1	
758.14	4434.5	
758.32	3863.2	
758.5	4614.8	
758.67	5527.5	
758.85	4252.9	
759.03	4408.6	
759.21	5756.8	
759.39	5121.3	
759.57	3827	
759.75	4995	
759.92	6379.4	
760.1	5548.6	
760.28	5384.1	
760.46	5685.8	
760.64	5304.2	
760.82	5009.3	
760.99	5223	
761.17	4315.8	
761.35	6218.3	
761.53	5133.6	
761.71	4422.9	
761.89	5171.1	
762.06	6054.5	
762.24	5487.2	
762.42	4397	
762.6	4186	
762.78	5418.2	
762.96	6217.6	
763.13	4807.9	
763.31	4469.4	
763.49	6396.5	
763.67	5430.5	
763.85	5446.9	
764.02	5930.9	
764.2	6561	
764.38	5713.2	
764.56	4304.8	
764.74	5324.7	
764.91	6703.7	
765.09	5571.2	
765.27	4005.8	
765.45	3801	
765.63	6765.1	
765.8	6694.8	
765.98	3459	
766.16	3887.7	
766.34	5137.7	
766.52	4909.7	
766.69	4914.4	
766.87	3711.6	
767.05	5590.3	
767.23	6435.4	
767.41	4076.1	
767.58	4382	
767.76	6137.1	
767.94	6299.6	
768.12	4167.6	
768.29	5050.3	
768.47	5705.6	
768.65	6458.6	
768.83	3770.3	
769	5045.5	
769.18	5225.7	
769.36	5973.2	
769.54	5018.9	
769.72	3852.2	
769.89	6313.9	
770.07	6498.9	
770.25	4182	
770.43	5612.1	
770.6	7161.1	
770.78	7689.4	
770.96	4442	
771.14	5173.2	
771.31	6240.2	
771.49	5549.3	
771.67	3519.1	
771.85	3842.7	
772.02	4738.3	
772.2	5636	
772.38	4721.3	
772.55	4092.5	
772.73	5893.4	
772.91	5629.9	
773.09	4562.2	
773.26	4564.9	
773.44	5851	
773.62	5492	
773.8	3969.6	
773.97	3685	
774.15	5961	
774.33	5472.9	
774.5	3946.4	
774.68	4264.6	
774.86	6067.4	
775.04	5545.2	
775.21	3953.9	
775.39	3909.6	
775.57	5823.1	
775.74	6289.3	
775.92	3892.5	
776.1	3723.9	
776.27	5804.6	
776.45	7203.4	
776.63	3990.1	
776.81	3502.7	
776.98	5374.6	
777.16	6694.1	
777.34	4199.7	
777.51	4521.9	
777.69	5386.2	
777.87	5162.2	
778.04	4269.3	
778.22	4957.4	
778.4	5194.3	
778.57	5986.9	
778.75	3463.1	
778.93	3771.7	
779.1	5020.3	
779.28	4928.8	
779.46	3450.8	
779.64	4027.7	
779.81	6185.5	
779.99	7187.7	
780.17	4948.6	
780.34	5059.2	
780.52	5571.8	
780.69	5765.7	
780.87	4400.4	
781.05	3922.5	
781.22	5577.3	
781.4	5726.1	
781.58	4104.8	
781.75	3156.6	
781.93	5707.7	
782.11	5071.5	
782.28	5043.5	
782.46	4072.7	
782.64	4890.5	
782.81	5911.8	
782.99	4154	
783.17	4130.1	
783.34	5874.9	
783.52	4919.2	
783.69	4420.9	
783.87	5369.8	
784.05	4939.7	
784.22	5081.7	
784.4	5248.9	
784.58	4485.7	
784.75	6094.1	
784.93	5127.4	
785.1	4106.2	
785.28	4813.4	
785.46	5849.7	
785.63	5085.8	
785.81	4042.7	
785.99	3915.7	
786.16	5253.7	
786.34	5694	
786.51	3975.1	
786.69	4409.3	
786.87	4749.2	
787.04	5421.7	
787.22	3828.3	
787.39	4920.6	
787.57	5021.6	
787.75	6341.2	
787.92	5112.4	
788.1	5016.8	
788.27	5106.3	
788.45	4879.6	
788.63	4706.2	
788.8	3297.9	
788.98	5684.5	
789.15	4836.6	
789.33	3498.6	
789.5	4180.6	
789.68	6100.2	
789.86	6217	
790.03	4586.8	
790.21	4021.5	
790.38	6110.5	
790.56	5221	
790.73	3919.1	
790.91	3953.3	
791.09	5107	
791.26	5975.3	
791.44	4119.8	
791.61	3607.2	
791.79	5114.5	
791.96	5197.1	
792.14	3671.3	
792.32	3203.7	
792.49	5134.3	
792.67	5277.6	
792.84	3766.9	
793.02	3544.4	
793.19	5614.8	
793.37	6420.4	
793.54	3259	
793.72	3657	
793.89	6580.8	
794.07	5214.8	
794.25	4285.7	
794.42	3325.2	
794.6	6344.6	
794.77	5871.5	
794.95	4643.4	
795.12	3980.6	
795.3	5104.2	
795.47	5885.2	
795.65	4414.1	
795.82	4218.8	
796	4936.3	
796.17	7065.5	
796.35	4070.7	
796.52	4840	
796.7	5644.9	
796.87	5781.4	
797.05	5143.1	
797.22	5055.8	
797.4	5757.5	
797.57	6861.4	
797.75	4192.2	
797.92	3919.1	
798.1	6138.4	
798.27	5152.7	
798.45	3336.1	
798.62	3669.3	
798.8	5472.9	
798.97	6051.7	
799.15	4523.3	
799.32	4269.3	
799.5	4732.2	
799.67	5575.3	
799.85	4617.5	
800.02	3329.3	
800.2	5129.5	
800.37	5460.6	
800.55	4808.6	
800.72	4012	
800.9	5958.2	
801.07	6498.9	
801.25	5404.6	
801.42	4397.7	
801.6	5997.1	
801.77	5783.5	
801.95	4046.8	
802.12	3910.3	
802.29	5601.9	
802.47	5685.8	
802.64	4400.4	
802.82	3197.6	
802.99	5095.3	
803.17	6208.8	
803.34	4222.9	
803.52	3846.8	
803.69	6974.7	
803.87	4885.1	
804.04	4195.6	
804.21	4341.7	
804.39	6314.6	
804.56	5343.2	
804.74	3558.7	
804.91	4431.1	
805.09	5122	
805.26	5273.5	
805.44	3652.9	
805.61	4029.7	
805.78	5918.6	
805.96	5907.7	
806.13	4450.2	
806.31	4781.3	
806.48	4691.9	
806.66	5259.2	
806.83	4367.6	
807	4268.6	
807.18	5136.3	
807.35	5577.3	
807.53	4314.4	
807.7	3403.7	
807.87	6422.4	
808.05	5274.9	
808.22	4797	
808.4	3392.8	
808.57	5295.4	
808.74	4823.6	
808.92	3889.8	
809.09	5055.1	
809.27	5070.8	
809.44	5679.7	
809.61	3433.1	
809.79	3839.3	
809.96	6382.8	
810.14	5991	
810.31	3284.9	
810.48	4119.8	
810.66	5279	
810.83	6190.3	
811.01	3872.7	
811.18	4435.2	
811.35	6027.9	
811.53	4616.1	
811.7	4732.9	
811.87	4472.1	
812.05	5207.3	
812.22	5125.4	
812.39	3796.3	
812.57	3710.2	
812.74	5223.7	
812.92	7058	
813.09	4068.6	
813.26	4547.2	
813.44	6758.3	
813.61	5166.3	
813.78	3461.1	
813.96	4620.2	
814.13	5214.1	
814.3	4840.7	
814.48	4974.5	
814.65	4158.1	
814.82	6551.5	
815	4977.2	
815.17	4280.3	
815.34	5150	
815.52	5151.3	
815.69	5130.8	
815.87	4242.7	
816.04	4203.1	
816.21	5211.4	
816.38	4547.9	
816.56	4076.8	
816.73	3833.1	
816.9	6606.7	
817.08	6038.1	
817.25	3837.9	
817.42	4862.6	
817.6	4760.2	
817.77	5265.3	
817.94	4423.6	
818.12	3775.8	
818.29	4928.1	
818.46	7969.3	
818.64	3956	
818.81	3678.2	
818.98	4807.3	
819.16	7157.7	
819.33	4539.7	
819.5	4270.7	
819.67	5582.8	
819.85	6346.7	
820.02	4110.3	
820.19	4403.1	
820.37	5438.7	
820.54	5013.4	
820.71	4367.6	
820.88	5339.1	
821.06	5447.6	
821.23	4986.8	
821.4	4349.2	
821.58	4299.4	
821.75	5986.9	
821.92	5388.9	
822.09	3462.4	
822.27	3566.9	
822.44	5214.8	
822.61	5074.9	
822.79	3464.5	
822.96	6754.9	
823.13	5779.4	
823.3	4924.7	
823.48	4048.8	
823.65	3674.1	
823.82	5982.1	
823.99	4743.8	
824.17	5149.3	
824.34	3699.3	
824.51	6963.8	
824.68	5260.5	
824.86	3854.3	
825.03	4358.1	
825.2	5203.9	
825.37	6365.1	
825.55	3852.9	
825.72	4250.2	
825.89	7049.1	
826.06	6520	
826.24	4173.1	
826.41	4216.1	
826.58	6378.1	
826.75	5459.2	
826.92	3218.7	
827.1	3632.4	
827.27	8814.5	
827.44	6958.3	
827.61	3949.8	
827.79	4827.7	
827.96	4936.3	
828.13	5358.2	
828.3	4100	
828.47	3444	
828.65	5528.8	
828.82	5378	
828.99	5367.7	
829.16	4719.9	
829.34	5877	
829.51	5585.5	
829.68	4251.6	
829.85	4445.5	
830.02	6083.8	
830.2	5924.8	
830.37	3318.4	
830.54	5215.5	
830.71	6771.3	
830.88	5241.4	
831.05	3345	
831.23	3891.1	
831.4	6376	
831.57	7264.8	
831.74	3936.2	
831.91	3414.6	
832.09	5438	
832.26	5834.7	
832.43	4076.8	
832.6	4641.4	
832.77	5494	
832.94	6277	
833.12	3278.8	
833.29	4057	
833.46	5061.9	
833.63	7456.7	
833.8	4519.2	
833.97	4117.1	
834.15	5916.6	
834.32	5621	
834.49	4278.9	
834.66	4373.1	
834.83	6130.9	
835	4967.7	
835.17	3895.2	
835.35	3981.9	
835.52	5776	
835.69	5657.2	
835.86	4229.1	
836.03	3419.4	
836.2	5776	
836.37	5434.6	
836.55	4129.4	
836.72	3823.6	
836.89	5413.5	
837.06	5988.9	
837.23	4240	
837.4	4608.6	
837.57	6709.1	
837.75	7512.6	
837.92	3751.9	
838.09	3990.1	
838.26	5367.7	
838.43	6176	
838.6	4319.8	
838.77	3837.2	
838.94	7094.2	
839.11	6814.3	
839.29	4072.7	
839.46	3205.8	
839.63	5822.4	
839.8	5591.6	
839.97	3958.7	
840.14	3973.1	
840.31	5618.9	
840.48	5892.7	
840.65	3320.4	
840.82	3921.2	
841	5861.3	
841.17	5779.4	
841.34	3654.9	
841.51	3760.1	
841.68	5751.4	
841.85	5438	
842.02	3803.1	
842.19	3150.5	
842.36	5595.1	
842.53	5555.5	
842.7	3456.3	
842.87	4548.5	
843.05	7493.5	
843.22	5512.4	
843.39	3466.5	
843.56	3777.1	
843.73	5274.2	
843.9	5900.9	
844.07	6033.3	
844.24	4939.7	
844.41	8796	
844.58	5031.9	
844.75	3558.7	
844.92	3884.3	
845.09	5881.1	
845.26	5862	
845.43	3657.7	
845.6	3868.6	
845.77	5887.9	
845.94	5483.8	
846.12	4061.1	
846.29	4274.1	
846.46	6017.6	
846.63	5838.1	
846.8	3632.4	
846.97	4375.8	
847.14	6366.5	
847.31	5760.3	
847.48	4098.7	
847.65	4549.2	
847.82	6104.3	
847.99	6107	
848.16	4835.9	
848.33	4563.6	
848.5	5360.9	
848.67	6338.5	
848.84	3607.2	
849.01	3800.3	
849.18	5179.3	
849.35	4847.5	
849.52	4600.4	
849.69	3641.3	
849.86	6050.4	
850.03	6293.4	
850.2	3704.1	
850.37	4519.9	
850.54	6214.2	
850.71	5474.2	
850.88	4428.4	
851.05	3609.9	
851.22	5708.4	
851.39	6451.8	
851.56	3379.1	
851.73	4179.2	
851.9	5081	
852.07	6094.1	
852.24	4043.4	
852.41	3596.9	
852.58	5740.5	
852.75	5203.9	
852.92	4133.5	
853.09	3528.7	
853.26	5384.8	
853.43	6331	
853.6	3545.7	
853.77	3082.9	
853.94	6462	
854.11	5742.5	
854.28	5488.6	
854.44	3917.8	
854.61	6936.5	
854.78	6250.4	
854.95	3631	
855.12	4597.7	
855.29	4679.6	
855.46	6514.6	
855.63	3543.7	
855.8	5072.8	
855.97	5345.9	
856.14	6202.6	
856.31	5216.9	
856.48	3925.3	
856.65	5367.7	
856.82	5110.4	
856.99	3433.8	
857.16	3916.4	
857.33	7229.3	
857.49	5490.6	
857.66	3910.3	
857.83	4235.2	
858	5457.8	
858.17	5698.8	
858.34	3408.5	
858.51	3605.8	
858.68	6675.7	
858.85	6655.2	
859.02	4212.7	
859.19	4493.2	
859.36	5049.6	
859.52	5156.1	
859.69	3648.8	
859.86	4284.4	
860.03	5207.3	
860.2	6445	
860.37	3302.7	
860.54	3719.1	
860.71	6090	
860.88	6522.8	
861.05	4089.8	
861.21	4605.2	
861.38	6594.5	
861.55	4990.9	
861.72	3288.4	
861.89	4110.3	
862.06	6199.9	
862.23	6734.4	
862.4	3539.6	
862.56	3758	
862.73	5935	
862.9	5583.4	
863.07	4285.7	
863.24	3619.4	
863.41	5011.4	
863.58	5167	
863.75	3700.7	
863.91	4218.8	
864.08	6516.6	
864.25	6039.5	
864.42	4589.5	
864.59	5162.2	
864.76	6888.7	
864.93	5107.6	
865.09	3559.4	
865.26	3841.3	
865.43	6384.9	
865.6	6814.3	
865.77	3196.2	
865.94	3589.4	
866.1	6427.2	
866.27	6166.4	
866.44	5500.2	
866.61	3450.1	
866.78	5498.8	
866.95	5948	
867.11	3495.2	
867.28	3223.5	
867.45	6178.7	
867.62	5189.6	
867.79	4249.5	
867.96	3607.2	
868.12	5145.9	
868.29	6165.8	
868.46	3633.8	
868.63	4842.1	
868.8	6335.7	
868.97	6077	
869.13	3812.6	
869.3	3747.1	
869.47	5993	
869.64	6175.3	
869.81	3594.9	
869.97	3655.6	
870.14	5926.1	
870.31	6576.7	
870.48	3532.1	
870.65	4718.5	
870.81	5389.6	
870.98	5371.1	
871.15	4173.8	
871.32	3787.4	
871.48	5931.6	
871.65	6620.4	
871.82	3618.1	
871.99	4011.3	
872.16	6959	
872.32	6520.7	
872.49	3665.2	
872.66	3722.5	
872.83	6141.9	
872.99	5330.2	
873.16	4177.9	
873.33	3620.1	
873.5	5702.2	
873.67	5737.7	
873.83	3846.1	
874	4898.7	
874.17	5818.3	
874.34	7077.8	
874.5	4783.4	
874.67	4535.6	
874.84	6578.1	
875.01	5073.5	
875.17	5182.7	
875.34	3614	
875.51	5776	
875.68	6981.5	
875.84	4388.1	
876.01	5348.6	
876.18	6021	
876.34	5973.2	
876.51	3664.5	
876.68	3549.1	
876.85	5461.2	
877.01	6352.8	
877.18	5257.8	
877.35	3558	
877.52	5592.3	
877.68	5008	
877.85	3558	
878.02	3553.9	
878.18	5634	
878.35	5283.8	
878.52	2873.3	
878.69	4118.5	
878.85	6137.8	
879.02	6025.8	
879.19	5263.3	
879.35	3960.1	
879.52	6000.5	
879.69	6324.1	
879.86	3131.3	
880.02	4104.8	
880.19	5552.7	
880.36	6875	
880.52	4204.5	
880.69	4313	
880.86	6194.4	
881.02	6217	
881.19	3999	
881.36	4027	
881.52	5988.9	
881.69	5356.8	
881.86	3957.4	
882.02	3815.4	
882.19	6367.8	
882.36	7449.8	
882.52	3759.4	
882.69	5160.2	
882.86	5803.3	
883.02	5759.6	
883.19	4474.1	
883.36	4146.5	
883.52	6223.1	
883.69	7033.4	
883.86	3643.3	
884.02	3282.9	
884.19	6074.3	
884.36	5616.2	
884.52	4157.4	
884.69	3861.8	
884.86	5356.1	
885.02	6804.7	
885.19	4111	
885.36	4241.3	
885.52	5675.6	
885.69	5786.2	
885.86	5301.5	
886.02	4718.5	
886.19	6087.2	
886.35	5570.5	
886.52	4031.1	
886.69	5184.8	
886.85	5174.5	
887.02	6453.1	
887.19	6453.1	
887.35	6453.1	
887.52	6453.1	
887.68	6453.1	
887.85	6453.1	
888.02	6453.1	
888.18	6453.1	
888.35	6453.1	
888.51	6453.1	
888.68	6453.1	
888.85	6453.1	
889.01	6453.1	
889.18	6453.1	
889.35	6453.1	
889.51	6453.1	
889.68	6453.1	
889.84	6453.1	
890.01	6453.1	
890.17	6453.1	
890.34	6453.1	
890.51	6453.1	
890.67	6453.1	
890.84	6453.1	
891	6453.1	
891.17	6453.1	
891.34	6453.1	
891.5	6453.1	
891.67	6453.1	
891.83	6453.1	
892	6453.1	
892.16	6453.1	
892.33	6453.1	
892.5	6453.1	
892.66	6453.1	
892.83	6453.1	
892.99	6453.1	
893.16	6453.1	
893.32	6453.1	
893.49	6453.1	
893.65	6453.1	
893.82	6453.1	
893.99	6453.1	
894.15	6453.1	
894.32	6453.1	
894.48	6453.1	
894.65	6453.1	
894.81	6453.1	
894.98	6453.1	
895.14	6453.1	
895.31	6453.1	
895.47	6453.1	
895.64	6453.1	
895.81	6453.1	
895.97	6453.1	
896.14	6453.1	
896.3	6453.1	
896.47	6453.1	
896.63	6453.1	
896.8	6453.1	
896.96	6453.1	
897.13	6453.1	
897.29	6453.1	
897.46	6453.1	
897.62	6453.1	
897.79	6453.1	
897.95	6453.1	
898.12	6453.1	
898.28	6453.1	
898.45	6453.1	
898.61	6453.1	
898.78	6453.1	
898.94	6453.1	
899.11	6453.1	
899.27	6453.1	
899.44	6453.1	
899.6	6453.1	
899.77	6453.1	
899.93	6453.1	
900.1	6453.1	
900.26	6453.1	
900.43	6453.1	
900.59	6453.1	
900.76	6453.1	
900.92	6453.1	
901.09	6453.1	
901.25	6453.1	
901.42	6453.1	
901.58	6453.1	
901.75	6453.1	
901.91	6453.1	
902.07	6453.1	
902.24	6453.1	
902.4	6453.1	
902.57	6453.1	
902.73	6453.1	
902.9	6453.1	
903.06	6453.1	
903.23	6453.1	
903.39	6453.1	
903.56	6453.1	
903.72	6453.1	
903.88	6453.1	
904.05	6453.1	
904.21	6453.1	
904.38	6453.1	
904.54	6453.1	
904.71	6453.1	
904.87	6453.1	
905.03	6453.1	
905.2	6453.1	
905.36	6453.1	
905.53	6453.1	
905.69	6453.1	
905.86	6453.1	
906.02	6453.1	
906.18	6453.1	
906.35	6453.1	
906.51	6453.1	
906.68	6453.1	
906.84	6453.1	
907.01	6453.1	
907.17	6453.1	
907.33	6453.1	
907.5	6453.1	
907.66	6453.1	
907.83	6453.1	
907.99	6453.1	
908.15	6453.1	
908.32	6453.1	
908.48	6453.1	
908.65	6453.1	
908.81	6453.1	
908.97	6453.1	
909.14	6453.1	
909.3	6453.1	
909.47	6453.1	
909.63	6453.1	
909.79	6453.1	
909.96	6453.1	
910.12	6453.1	
910.28	6453.1	
910.45	6453.1	
910.61	6453.1	
910.78	6453.1	
910.94	6453.1	
911.1	6453.1	
911.27	6453.1	
911.43	6453.1	
911.59	6453.1	
911.76	6453.1	
911.92	6453.1	
912.08	6453.1	
912.25	6453.1	
912.41	6453.1	
912.57	6453.1	
912.74	6453.1	
912.9	6453.1	
913.07	6453.1	
913.23	6453.1	
913.39	6453.1	
913.56	6453.1	
913.72	6453.1	
913.88	6453.1	
914.05	6453.1	
914.21	6453.1	
914.37	6453.1	
914.54	6453.1	
914.7	6453.1	
914.86	6453.1	
915.03	6453.1	
915.19	6453.1	
