Wavelength	Intensities	
nm	a.u.	
179.22	1911.3	
179.44	1905	
179.65	1917.6	
179.86	1892.3	
180.08	1912.1	
180.29	4939	
180.51	3525.2	
180.72	5629.9	
180.94	6677.1	
181.15	3269.2	
181.37	3223.5	
181.58	5499.5	
181.79	5854.5	
182.01	3415.3	
182.22	3644	
182.44	5741.8	
182.65	4819.6	
182.87	4556	
183.08	3979.2	
183.29	6100.2	
183.51	5053	
183.72	3693.9	
183.94	5379.3	
184.15	5390.9	
184.37	5400.5	
184.58	3209.2	
184.79	4463.9	
185.01	5024.3	
185.22	5740.5	
185.44	4680.3	
185.65	3936.9	
185.86	5292	
186.08	4876.2	
186.29	3142.9	
186.51	3412.6	
186.72	5059.8	
186.94	5965.1	
187.15	3963.5	
187.36	4062.5	
187.58	7809.6	
187.79	5550	
188.01	4231.8	
188.22	6554.9	
188.43	6708.5	
188.65	5776	
188.86	3371	
189.08	3997.6	
189.29	5242.8	
189.5	5270.8	
189.72	3739.6	
189.93	3843.4	
190.15	5948	
190.36	7125.6	
190.57	4173.1	
190.79	4001.7	
191	6119.3	
191.22	6045.6	
191.43	4194.2	
191.64	3357.3	
191.86	6357.6	
192.07	5994.4	
192.29	3514.3	
192.5	3749.8	
192.71	6036.7	
192.93	5162.2	
193.14	3708.9	
193.35	3799	
193.57	5237.3	
193.78	6038.8	
194	2990.7	
194.21	3719.8	
194.42	4957.4	
194.64	5397.1	
194.85	4049.5	
195.07	4786.1	
195.28	5533.6	
195.49	4707.6	
195.71	4998.4	
195.92	3515	
196.13	5690.6	
196.35	5675.6	
196.56	5386.8	
196.78	4049.5	
196.99	7089.4	
197.2	6616.3	
197.42	4574.5	
197.63	4128	
197.84	4805.9	
198.06	5541.8	
198.27	3779.2	
198.48	5003.9	
198.7	5139	
198.91	5279.7	
199.13	4052.2	
199.34	4061.8	
199.55	5844.9	
199.77	4720.6	
199.98	3589.4	
200.19	4123.2	
200.41	5356.8	
200.62	5038.7	
200.83	4236.6	
201.05	4560.8	
201.26	5319.9	
201.47	4982	
201.69	3622.9	
201.9	3470.6	
202.11	5411.4	
202.33	6423.1	
202.54	3901.4	
202.76	4320.5	
202.97	5547.9	
203.18	5503.6	
203.4	4255.7	
203.61	4164.2	
203.82	5442.8	
204.04	5088.5	
204.25	4102.8	
204.46	3995.6	
204.68	5398.4	
204.89	5640.1	
205.1	3945.8	
205.32	3466.5	
205.53	5888.6	
205.74	5965.1	
205.96	2943.6	
206.17	4207.9	
206.38	5813.5	
206.6	5958.9	
206.81	4647.5	
207.02	3852.9	
207.24	5658.5	
207.45	6087.9	
207.66	3927.3	
207.88	3278.1	
208.09	5577.3	
208.3	5425.8	
208.52	3562.1	
208.73	3867.2	
208.94	5478.3	
209.15	6101.6	
209.37	3908.9	
209.58	4125.3	
209.79	5982.8	
210.01	5236.7	
210.22	3055.6	
210.43	3201.7	
210.65	5459.2	
210.86	5823.7	
211.07	3848.8	
211.29	3512.9	
211.5	5752.7	
211.71	5354.1	
211.93	3532.1	
212.14	3529.3	
212.35	5322	
212.56	5582.1	
212.78	4067.9	
212.99	3331.4	
213.2	6383.5	
213.42	5166.3	
213.63	3688.4	
213.84	3917.8	
214.06	4776.5	
214.27	4967.7	
214.48	3934.1	
214.69	4136.2	
214.91	6110.5	
215.12	6234.7	
215.33	4164.2	
215.55	4674.1	
215.76	6710.5	
215.97	5797.8	
216.18	3972.4	
216.4	3934.1	
216.61	5132.9	
216.82	5945.9	
217.04	3610.6	
217.25	3769.6	
217.46	6059.3	
217.67	5838.1	
217.89	3166.8	
218.1	3330	
218.31	5472.9	
218.53	5624.4	
218.74	3728.7	
218.95	3619.4	
219.16	5329.5	
219.38	6350.8	
219.59	3670	
219.8	4313	
220.01	7050.5	
220.23	5457.2	
220.44	4784.7	
220.65	3526.6	
220.87	5410.1	
221.08	6011.5	
221.29	3347.7	
221.5	4442	
221.72	7516	
221.93	5165	
222.14	4121.9	
222.35	4890.5	
222.57	5440.8	
222.78	5820.3	
222.99	3876.1	
223.2	4213.4	
223.42	5729.5	
223.63	5865.4	
223.84	3007.8	
224.05	2989.4	
224.27	6922.8	
224.48	6344.6	
224.69	4885.8	
224.9	4063.9	
225.12	5681.7	
225.33	5378.6	
225.54	3267.9	
225.75	3665.9	
225.97	4972.5	
226.18	5273.5	
226.39	3921.2	
226.6	3646.1	
226.82	5132.9	
227.03	5036.6	
227.24	4106.9	
227.45	3389.4	
227.67	5786.2	
227.88	6379.4	
228.09	4530.8	
228.3	4622.3	
228.52	5857.9	
228.73	5380.7	
228.94	3812.6	
229.15	3344.3	
229.36	5339.1	
229.58	5255.1	
229.79	3889.1	
230	4448.2	
230.21	6481.8	
230.43	5526.8	
230.64	4032.5	
230.85	4263.9	
231.06	5858.6	
231.28	5848.3	
231.49	3366.2	
231.7	4020.8	
231.91	5734.3	
232.12	5419.6	
232.34	3461.1	
232.55	3954.6	
232.76	6035.4	
232.97	5655.8	
233.18	3543.7	
233.4	4006.5	
233.61	5689.9	
233.82	5205.9	
234.03	3774.4	
234.25	3671.3	
234.46	7611.6	
234.67	5466.7	
234.88	4223.6	
235.09	3633.8	
235.31	5703.6	
235.52	5257.1	
235.73	3977.2	
235.94	3414.6	
236.15	5150.6	
236.37	6539.2	
236.58	3581.9	
236.79	3882.9	
237	5775.3	
237.21	4963.6	
237.43	4180.6	
237.64	3290.4	
237.85	9927.2	
238.06	4977.9	
238.27	4273.4	
238.48	3411.9	
238.7	5774.6	
238.91	5291.3	
239.12	3904.8	
239.33	3911.6	
239.54	5150	
239.76	5369.1	
239.97	3837.9	
240.18	3949.2	
240.39	6863.4	
240.6	5807.4	
240.82	4080.2	
241.03	3343	
241.24	5393.7	
241.45	6352.1	
241.66	3611.3	
241.87	4222.2	
242.09	6098.2	
242.3	6560.3	
242.51	4260.5	
242.72	3941.7	
242.93	5887.9	
243.14	5440.1	
243.36	4538.3	
243.57	4825.7	
243.78	6279.1	
243.99	5766.4	
244.2	3966.9	
244.41	3559.4	
244.63	4978.6	
244.84	5799.2	
245.05	4207.2	
245.26	3900.7	
245.47	5696.8	
245.68	5937.7	
245.9	5265.3	
246.11	4146.5	
246.32	5256.5	
246.53	5674.9	
246.74	6349.4	
246.95	3263.8	
247.16	4872.8	
247.38	5456.5	
247.59	3231.7	
247.8	3928	
248.01	5128.1	
248.22	5352	
248.43	3529.3	
248.64	3777.1	
248.86	4805.9	
249.07	5223.7	
249.28	3429.7	
249.49	4060.4	
249.7	6019	
249.91	6162.3	
250.12	3257.6	
250.34	3312.2	
250.55	5578	
250.76	5435.3	
250.97	4018.1	
251.18	4053.6	
251.39	6158.9	
251.6	5627.8	
251.81	4140.3	
252.03	4148.5	
252.24	5123.3	
252.45	5963	
252.66	3381.9	
252.87	4291.9	
253.08	5563	
253.29	7179.5	
253.5	3397.6	
253.72	4809.3	
253.93	5227.1	
254.14	6451.1	
254.35	3702.7	
254.56	3894.6	
254.77	5689.3	
254.98	5005.2	
255.19	3671.3	
255.41	4754	
255.62	5521.3	
255.83	6119.3	
256.04	4208.6	
256.25	4061.1	
256.46	6709.1	
256.67	5107.6	
256.88	4005.1	
257.09	4532.8	
257.31	5055.8	
257.52	5166.3	
257.73	5077.6	
257.94	3635.1	
258.15	5254.4	
258.36	5455.8	
258.57	4636.6	
258.78	3008.5	
258.99	5948.7	
259.2	5335	
259.41	3754.6	
259.63	3818.8	
259.84	6334.4	
260.05	6757.6	
260.26	4962.9	
260.47	3645.4	
260.68	5977.3	
260.89	5369.1	
261.1	4496	
261.31	3545.7	
261.52	6038.8	
261.73	6424.5	
261.95	4863.2	
262.16	4260.5	
262.37	6171.2	
262.58	6269.5	
262.79	4754	
263	3814	
263.21	5424.4	
263.42	5008	
263.63	3832.4	
263.84	3792.8	
264.05	6015.6	
264.26	6450.4	
264.47	4686.4	
264.69	4235.2	
264.9	6160.3	
265.11	5599.1	
265.32	3671.3	
265.53	3741.6	
265.74	5594.4	
265.95	4859.8	
266.16	3992.2	
266.37	4437.9	
266.58	5556.8	
266.79	5233.2	
267	3645.4	
267.21	3428.3	
267.42	4995	
267.63	5427.1	
267.84	3869.3	
268.06	3373	
268.27	5838.8	
268.48	6210.8	
268.69	3818.8	
268.9	4536.9	
269.11	6118.6	
269.32	4878.3	
269.53	3877.5	
269.74	3668.6	
269.95	5759.6	
270.16	4720.6	
270.37	3893.2	
270.58	4564.2	
270.79	5283.1	
271	5945.3	
271.21	4156.7	
271.42	3930.7	
271.63	5530.9	
271.84	5127.4	
272.05	3109.5	
272.26	3568.2	
272.47	5474.9	
272.68	5638.1	
272.89	3726.6	
273.11	4394.9	
273.32	5272.2	
273.53	6450.4	
273.74	4275.5	
273.95	4121.9	
274.16	6033.3	
274.37	5578.7	
274.58	4300.1	
274.79	3435.8	
275	5545.2	
275.21	6148	
275.42	5217.5	
275.63	4390.2	
275.84	5644.9	
276.05	7197.2	
276.26	4136.9	
276.47	3879.5	
276.68	5335.6	
276.89	6462.7	
277.1	4451.6	
277.31	3414.6	
277.52	5681.1	
277.73	5804.6	
277.94	3406.5	
278.15	3787.4	
278.36	5631.9	
278.57	5066.7	
278.78	3720.5	
278.99	4238.6	
279.2	5034.6	
279.41	4990.2	
279.62	4904.2	
279.83	3459	
280.04	6725.5	
280.25	4939	
280.46	4894	
280.67	3928.7	
280.88	5044.1	
281.09	6126.8	
281.3	4090.5	
281.51	5232.6	
281.72	5181.4	
281.93	5980.1	
282.14	3609.2	
282.35	3985.3	
282.56	5974.6	
282.77	5905.7	
282.98	3792.8	
283.19	4668.7	
283.4	7251.2	
283.61	5409.4	
283.82	3389.4	
284.03	4832.5	
284.24	5551.4	
284.45	6095.4	
284.66	4870.8	
284.87	4629.1	
285.08	5995.8	
285.29	6170.5	
285.5	3312.2	
285.71	3815.4	
285.92	6066.8	
286.12	6728.9	
286.33	4787.5	
286.54	3817.4	
286.75	5973.9	
286.96	5330.9	
287.17	3518.4	
287.38	4743.8	
287.59	5113.8	
287.8	5031.9	
288.01	3826.3	
288.22	4433.9	
288.43	5969.8	
288.64	4954.7	
288.85	4582	
289.06	4330.8	
289.27	6195.8	
289.48	6383.5	
289.69	4845.5	
289.9	4411.3	
290.11	6115.2	
290.32	5139.7	
290.53	4644.1	
290.74	4261.8	
290.94	5927.5	
291.15	5937.7	
291.36	3701.4	
291.57	4390.8	
291.78	5162.2	
291.99	4872.8	
292.2	3515.7	
292.41	4271.4	
292.62	6008.7	
292.83	5848.3	
293.04	5175.2	
293.25	3521.8	
293.46	5220.3	
293.67	6029.9	
293.88	3647.4	
294.09	3563.5	
294.29	4977.2	
294.5	5628.5	
294.71	3890.5	
294.92	3771.7	
295.13	5248.3	
295.34	6544.6	
295.55	3279.5	
295.76	3397.6	
295.97	5843.5	
296.18	6655.2	
296.39	3472	
296.6	3700	
296.81	5562.3	
297.01	5905.7	
297.22	3848.8	
297.43	3654.9	
297.64	5095.3	
297.85	5099.4	
298.06	3021.4	
298.27	3272	
298.48	5522.7	
298.69	5153.4	
298.9	3959.4	
299.11	3579.8	
299.31	4930.1	
299.52	4945.2	
299.73	4283	
299.94	4199	
300.15	5418.2	
300.36	5079.6	
300.57	4171.7	
300.78	4148.5	
300.99	5283.8	
301.2	5578	
301.4	3605.8	
301.61	4025.6	
301.82	5798.5	
302.03	5937.1	
302.24	4476.9	
302.45	3461.7	
302.66	5713.2	
302.87	6264.7	
303.08	3711.6	
303.29	5036.6	
303.49	5143.1	
303.7	5531.6	
303.91	3312.2	
304.12	4821.6	
304.33	4948.6	
304.54	5580	
304.75	3710.2	
304.96	3511.6	
305.16	5786.2	
305.37	6520.7	
305.58	3196.9	
305.79	3378.5	
306	5823.7	
306.21	4851.6	
306.42	3691.8	
306.63	5633.3	
306.83	5292.6	
307.04	6092.7	
307.25	4029	
307.46	4003.1	
307.67	4678.2	
307.88	5885.9	
308.09	3614	
308.29	3778.5	
308.5	5532.2	
308.71	6047	
308.92	3926	
309.13	3575.8	
309.34	5375.2	
309.55	5405.3	
309.75	4541.7	
309.96	4235.2	
310.17	5948	
310.38	5152	
310.59	4397.7	
310.8	4171.7	
311.01	5276.9	
311.21	5336.3	
311.42	3506.1	
311.63	3633.8	
311.84	5141.8	
312.05	5646.9	
312.26	4113.7	
312.46	4497.3	
312.67	5309	
312.88	4967.7	
313.09	3597.6	
313.3	3480.2	
313.51	6210.8	
313.71	6594.5	
313.92	3521.1	
314.13	3723.2	
314.34	5599.1	
314.55	5403.2	
314.76	4641.4	
314.96	4003.8	
315.17	5565.7	
315.38	5949.3	
315.59	3546.4	
315.8	3444.7	
316.01	6369.9	
316.21	6433.4	
316.42	3447.4	
316.63	3926	
316.84	5343.2	
317.05	6166.4	
317.26	4222.2	
317.46	3766.2	
317.67	5382.1	
317.88	5807.4	
318.09	4534.2	
318.3	3327.3	
318.5	5170.4	
318.71	5791	
318.92	5755.5	
319.13	4179.9	
319.34	5976.7	
319.54	6094.1	
319.75	3309.5	
319.96	3129.3	
320.17	5810.8	
320.38	6055.2	
320.58	3207.1	
320.79	3906.2	
321	6009.4	
321.21	6216.3	
321.42	3962.1	
321.62	3218.7	
321.83	5063.9	
322.04	5436	
322.25	3735.5	
322.46	3629	
322.66	5550.7	
322.87	5734.3	
323.08	4431.1	
323.29	3519.1	
323.5	6565.1	
323.7	4995.7	
323.91	4851	
324.12	4394.3	
324.33	5534.3	
324.53	5789.6	
324.74	4177.9	
324.95	4466.6	
325.16	4795.7	
325.37	5210	
325.57	3600.3	
325.78	3643.3	
325.99	5496.1	
326.2	4905.6	
326.4	5186.1	
326.61	3270.6	
326.82	5384.8	
327.03	5610.8	
327.24	5132.9	
327.44	4791.6	
327.65	5664	
327.86	4630.5	
328.07	4185.4	
328.27	3422.2	
328.48	6178	
328.69	5020.9	
328.9	5191.6	
329.1	3822.9	
329.31	5354.1	
329.52	6251.1	
329.73	3515.7	
329.93	4091.2	
330.14	5446.2	
330.35	5701.5	
330.56	5880.4	
330.76	4416.8	
330.97	5255.1	
331.18	5653.8	
331.39	4002.4	
331.59	3185.3	
331.8	6024.4	
332.01	6182.8	
332.22	3719.1	
332.42	4188.1	
332.63	5608.7	
332.84	5128.8	
333.05	4032.5	
333.25	3586	
333.46	5177.9	
333.67	5484.5	
333.88	3717.1	
334.08	4175.8	
334.29	7293.5	
334.5	6122.7	
334.7	3441.3	
334.91	5195	
335.12	4976.6	
335.33	5877	
335.53	3984	
335.74	5932.3	
335.95	5247.6	
336.16	5038.7	
336.36	4007.9	
336.57	4573.1	
336.78	4968.4	
336.98	6034.7	
337.19	4874.2	
337.4	3791.5	
337.61	6629.3	
337.81	5006.6	
338.02	3580.5	
338.23	4748.6	
338.43	6262.7	
338.64	5104.2	
338.85	3608.5	
339.05	4715.8	
339.26	6301.6	
339.47	4915.8	
339.68	3554.6	
339.88	5330.2	
340.09	5742.5	
340.3	5919.3	
340.5	4216.1	
340.71	3198.9	
340.92	4945.2	
341.13	6162.3	
341.33	3450.1	
341.54	4236.6	
341.75	5687.2	
341.95	5315.8	
342.16	4069.3	
342.37	4427	
342.57	5048.9	
342.78	5464.7	
342.99	4468	
343.19	3193.5	
343.4	5888.6	
343.61	5696.1	
343.81	3807.2	
344.02	3542.3	
344.23	5822.4	
344.43	6326.9	
344.64	4390.2	
344.85	4395.6	
345.06	5701.5	
345.26	6077	
345.47	4169.7	
345.68	4788.8	
345.88	4845.5	
346.09	5971.9	
346.3	4222.2	
346.5	3160.7	
346.71	5539.1	
346.92	5181.4	
347.12	3280.8	
347.33	4117.1	
347.54	5973.2	
347.74	6410.1	
347.95	4111.6	
348.16	3050.8	
348.36	5248.3	
348.57	5029.1	
348.78	4089.1	
348.98	4350.6	
349.19	5436.7	
349.39	4941.1	
349.6	3248.8	
349.81	3665.2	
350.01	5716.6	
350.22	5213.4	
350.43	3913.7	
350.63	4771.8	
350.84	5528.8	
351.05	5226.4	
351.25	3636.5	
351.46	3277.4	
351.67	6033.3	
351.87	5111.7	
352.08	3876.1	
352.29	4434.5	
352.49	5947.3	
352.7	5591.6	
352.9	3489.7	
353.11	4387.4	
353.32	6692.8	
353.52	5278.3	
353.73	3414	
353.94	4399.7	
354.14	5819	
354.35	5556.8	
354.55	3589.4	
354.76	3953.9	
354.97	5713.2	
355.17	5500.2	
355.38	3348.4	
355.59	4683.7	
355.79	5138.4	
356	5549.3	
356.2	3967.6	
356.41	3466.5	
356.62	4894	
356.82	5424.4	
357.03	4268	
357.24	3818.8	
357.44	5188.9	
357.65	5335	
357.85	5096.7	
358.06	4006.5	
358.27	4889.2	
358.47	5126.7	
358.68	3352.5	
358.88	4252.9	
359.09	5666	
359.3	6096.1	
359.5	4939	
359.71	4301.4	
359.91	6568.5	
360.12	5914.5	
360.33	4223.6	
360.53	4754.7	
360.74	5177.9	
360.94	5298.1	
361.15	4414.7	
361.36	3700.7	
361.56	6030.6	
361.77	5409.4	
361.97	4940.4	
362.18	3887.7	
362.38	5994.4	
362.59	5080.3	
362.8	3566.9	
363	3441.3	
363.21	4833.9	
363.41	5548.6	
363.62	4110.3	
363.83	5125.4	
364.03	5622.4	
364.24	6698.2	
364.44	5281.7	
364.65	5255.8	
364.85	5406	
365.06	5310.4	
365.27	3750.5	
365.47	3812	
365.68	6430.6	
365.88	5418.9	
366.09	4166.9	
366.29	3899.3	
366.5	5638.7	
366.71	6163.7	
366.91	5271.5	
367.12	4392.9	
367.32	6734.4	
367.53	5959.6	
367.73	4297.3	
367.94	5307.7	
368.14	5877	
368.35	6813.6	
368.56	4366.3	
368.76	3680.2	
368.97	6023.8	
369.17	7802.8	
369.38	3805.8	
369.58	4091.2	
369.79	5018.2	
369.99	6455.9	
370.2	5180	
370.4	4196.3	
370.61	5769.8	
370.82	6991.8	
371.02	4084.3	
371.23	3420.1	
371.43	4995.7	
371.64	6378.1	
371.84	4149.9	
372.05	5391.6	
372.25	7688.1	
372.46	6075.6	
372.66	4181.3	
372.87	4107.5	
373.07	6115.2	
373.28	7724.9	
373.48	5182	
373.69	4940.4	
373.9	5616.2	
374.1	5679	
374.31	5177.9	
374.51	4698	
374.72	6451.1	
374.92	5357.5	
375.13	5401.2	
375.33	4498.7	
375.54	6029.2	
375.74	5522	
375.95	4590.2	
376.15	5810.1	
376.36	6032.6	
376.56	5881.8	
376.77	4676.9	
376.97	5117.9	
377.18	7225.2	
377.38	6158.9	
377.59	5467.4	
377.79	4236.6	
378	6005.3	
378.2	6466.1	
378.41	4242.7	
378.61	4113	
378.82	6472.9	
379.02	5585.5	
379.23	4417.5	
379.43	5578.7	
379.64	6533.7	
379.84	6175.3	
380.05	4240	
380.25	4171.7	
380.46	6310.5	
380.66	5801.2	
380.87	5626.5	
381.07	5977.3	
381.28	6876.4	
381.48	6272.9	
381.69	4268	
381.89	4328.7	
382.1	5139	
382.3	6471.6	
382.51	5410.1	
382.71	6310.5	
382.91	6241.5	
383.12	6797.9	
383.32	4575.8	
383.53	4804.5	
383.73	6092.7	
383.94	5885.2	
384.14	4689.8	
384.35	3857	
384.55	5756.8	
384.76	6292.7	
384.96	4610.7	
385.17	4904.2	
385.37	6214.9	
385.58	5498.8	
385.78	4965	
385.98	3818.8	
386.19	5753.4	
386.39	6145.3	
386.6	4402.5	
386.8	4627	
387.01	6227.2	
387.21	6280.4	
387.42	5073.5	
387.62	5633.3	
387.83	5576.6	
388.03	6219.7	
388.23	4696	
388.44	5535.7	
388.64	5279	
388.85	5442.1	
389.05	5046.2	
389.26	5776	
389.46	7002.7	
389.67	6731	
389.87	5104.2	
390.07	5117.9	
390.28	5909.1	
390.48	5526.1	
390.69	4259.1	
390.89	4547.9	
391.1	5696.1	
391.3	6627.9	
391.5	5797.1	
391.71	6435.4	
391.91	6397.2	
392.12	7447.8	
392.32	5881.8	
392.53	5079	
392.73	5786.2	
392.93	5972.6	
393.14	4691.9	
393.34	5474.9	
393.55	6324.1	
393.75	5936.4	
393.95	4702.1	
394.16	4711	
394.36	5710.4	
394.57	6434.7	
394.77	4179.9	
394.98	4676.9	
395.18	5728.2	
395.38	5890	
395.59	5581.4	
395.79	4504.2	
396	5873.6	
396.2	6358.3	
396.4	5395	
396.61	5292.6	
396.81	6525.5	
397.02	5801.2	
397.22	5640.8	
397.42	5743.2	
397.63	6552.1	
397.83	5797.1	
398.04	4528.7	
398.24	5106.3	
398.44	6357.6	
398.65	5419.6	
398.85	4354	
399.05	4537.6	
399.26	5755.5	
399.46	7507.2	
399.67	4914.4	
399.87	4670.1	
400.07	6161.7	
400.28	6482.5	
400.48	4709.6	
400.69	5839.4	
400.89	6843.6	
401.09	7167.2	
401.3	4580.6	
401.5	5782.8	
401.7	7501	
401.91	7664.9	
402.11	4958.8	
402.32	5137	
402.52	6782.9	
402.72	6563.1	
402.93	5380.7	
403.13	4237.9	
403.33	7508.5	
403.54	6130.9	
403.74	4981.3	
403.94	5963.7	
404.15	6266.1	
404.35	7507.9	
404.56	4833.2	
404.76	6731	
404.96	6711.9	
405.17	6512.5	
405.37	6167.1	
405.57	5345.2	
405.78	6782.9	
405.98	6175.3	
406.18	4907.6	
406.39	5831.2	
406.59	6732.4	
406.79	6419	
407	4710.3	
407.2	4850.3	
407.4	6885.3	
407.61	7018.4	
407.81	4879.6	
408.01	7075.7	
408.22	5967.8	
408.42	8056	
408.62	6105	
408.83	5564.3	
409.03	6649.1	
409.23	6449.7	
409.44	5728.2	
409.64	5977.3	
409.84	7611.6	
410.05	7486.7	
410.25	5900.9	
410.45	5602.6	
410.66	7032.7	
410.86	9533.3	
411.06	6098.9	
411.27	5970.5	
411.47	9365.4	
411.67	7207.5	
411.88	6219	
412.08	6574.7	
412.28	7876.5	
412.49	8488.8	
412.69	5996.5	
412.89	6087.9	
413.09	8260.8	
413.3	8174.8	
413.5	6240.2	
413.7	5810.8	
413.91	7343.3	
414.11	8279.3	
414.31	6058.6	
414.52	6489.3	
414.72	7886.7	
414.92	7838.9	
415.12	6016.9	
415.33	6593.8	
415.53	8264.2	
415.73	8464.9	
415.94	6871.6	
416.14	6267.5	
416.34	7327.6	
416.55	6938.5	
416.75	7580.2	
416.95	7019.1	
417.15	8299.1	
417.36	8998.8	
417.56	7907.2	
417.76	6899.6	
417.97	8754.4	
418.17	8357.1	
418.37	6487.3	
418.57	6511.9	
418.78	8045.8	
418.98	7699	
419.18	7433.4	
419.38	7328.3	
419.59	7845.8	
419.79	7328.3	
419.99	6338.5	
420.2	6711.2	
420.4	8343.4	
420.6	8374.8	
420.8	6297.5	
421.01	6096.8	
421.21	8148.2	
421.41	8335.2	
421.61	6623.8	
421.82	6304.3	
422.02	7690.1	
422.22	8531.2	
422.42	7137.2	
422.63	6737.1	
422.83	7718.1	
423.03	8994	
423.23	6806.1	
423.44	5707	
423.64	7785	
423.84	7471	
424.04	6121.4	
424.25	5821	
424.45	8712.1	
424.65	8606.9	
424.85	5675.6	
425.06	6305	
425.26	8584.4	
425.46	7626	
425.66	6665.5	
425.87	6289.3	
426.07	8378.2	
426.27	8220.5	
426.47	6517.3	
426.67	5945.9	
426.88	8697	
427.08	8140	
427.28	6790.4	
427.48	5803.9	
427.69	7017	
427.89	7657.4	
428.09	6753.5	
428.29	5901.6	
428.5	8475.9	
428.7	7922.2	
428.9	5829.2	
429.1	6421.7	
429.3	7905.8	
429.51	8289.5	
429.71	6048.3	
429.91	6935.8	
430.11	8168	
430.31	8424	
430.52	6388.3	
430.72	6707.8	
430.92	8753	
431.12	8213.7	
431.32	6173.3	
431.53	6608.1	
431.73	7169.9	
431.93	8867	
432.13	6008.7	
432.33	5950.7	
432.54	7611.6	
432.74	8028	
432.94	5859.9	
433.14	6959.7	
433.34	8186.4	
433.55	7716.7	
433.75	6838.2	
433.95	8669.7	
434.15	8011	
434.35	7713.3	
434.56	6102.9	
434.76	5635.3	
434.96	7979.6	
435.16	8254	
435.36	6021	
435.56	7158.3	
435.77	7633.5	
435.97	7774.8	
436.17	7825.3	
436.37	7118.7	
436.57	7611.6	
436.78	7572.7	
436.98	7052.5	
437.18	7708.6	
437.38	8387.8	
437.58	7777.5	
437.78	7819.8	
437.99	6417	
438.19	8290.2	
438.39	9882.1	
438.59	6304.3	
438.79	5813.5	
438.99	8989.2	
439.2	7804.8	
439.4	5984.2	
439.6	5984.8	
439.8	8176.2	
440	9234.3	
440.2	7146.7	
440.4	7227.3	
440.61	8628.8	
440.81	9288.2	
441.01	6280.4	
441.21	7229.3	
441.41	9095.7	
441.61	8604.9	
441.81	7547.4	
442.02	8517.5	
442.22	9550.4	
442.42	8794.7	
442.62	6344.6	
442.82	6350.1	
443.02	9052	
443.22	8171.4	
443.43	6912.6	
443.63	6371.9	
443.83	7964.6	
444.03	7915.4	
444.23	7669.6	
444.43	7205.4	
444.63	8397.4	
444.83	9597.5	
445.04	6481.1	
445.24	7798	
445.44	8652.7	
445.64	8830.2	
445.84	7246.4	
446.04	7320.8	
446.24	8034.9	
446.44	9035	
446.65	6373.3	
446.85	6840.2	
447.05	8195.3	
447.25	9022.7	
447.45	6817	
447.65	6278.4	
447.85	8329.8	
448.05	7912	
448.25	7387	
448.46	7192.5	
448.66	8357.8	
448.86	7996	
449.06	6079.1	
449.26	7396.6	
449.46	8674.5	
449.66	7699.7	
449.86	6861.4	
450.06	6791.1	
450.26	7960.5	
450.47	8560.5	
450.67	7068.2	
450.87	7479.9	
451.07	8648.6	
451.27	8458.1	
451.47	6385.6	
451.67	6948.8	
451.87	8122.2	
452.07	9252.7	
452.27	6623.1	
452.47	6588.3	
452.67	8116.1	
452.88	9017.9	
453.08	5984.2	
453.28	8045.1	
453.48	9586.5	
453.68	8307.9	
453.88	6612.9	
454.08	6810.2	
454.28	8713.4	
454.48	8423.3	
454.68	7317.4	
454.88	7935.2	
455.08	8941.4	
455.28	8699.8	
455.48	6423.1	
455.68	7159.7	
455.89	9384.5	
456.09	9129.2	
456.29	6838.2	
456.49	6924.2	
456.69	9293	
456.89	8533.9	
457.09	7584.3	
457.29	7869	
457.49	8936	
457.69	9052.7	
457.89	7268.2	
458.09	6677.7	
458.29	8686.8	
458.49	9480.7	
458.69	7705.1	
458.89	7215	
459.09	9649.3	
459.29	9789.3	
459.49	7290.1	
459.69	8132.5	
459.9	9254.8	
460.1	8745.5	
460.3	7170.6	
460.5	7035.5	
460.7	9189.9	
460.9	8921	
461.1	6634.7	
461.3	8062.2	
461.5	9950.4	
461.7	9560.6	
461.9	7205.4	
462.1	7621.2	
462.3	9019.9	
462.5	9710.8	
462.7	7329.7	
462.9	7481.9	
463.1	10832	
463.3	10522	
463.5	7579.5	
463.7	8667	
463.9	9336	
464.1	9656.2	
464.3	7838.9	
464.5	8094.3	
464.7	10032	
464.9	9738.8	
465.1	9498.5	
465.3	8415.1	
465.5	10385	
465.7	10413	
465.9	8681.3	
466.1	8434.2	
466.3	10273	
466.5	9894.4	
466.7	9439.8	
466.9	8322.9	
467.1	9887.6	
467.3	10903	
467.5	9575.6	
467.7	8213.7	
467.9	11234	
468.1	12191	
468.3	9076.6	
468.5	9515.5	
468.7	9964.1	
468.9	9860.3	
469.1	8570.1	
469.3	9351.7	
469.5	11953	
469.7	9619.3	
469.9	9039.1	
470.1	8307.9	
470.3	10007	
470.5	9983.2	
470.7	9652.1	
470.9	8369.4	
471.1	9747.6	
471.3	10230	
471.5	8212.4	
471.69	10173	
471.89	9596.1	
472.09	9168.1	
472.29	9018.6	
472.49	9239.8	
472.69	9284.8	
472.89	10155	
473.09	8030.8	
473.29	8084	
473.49	9499.2	
473.69	9594.7	
473.89	9249.3	
474.09	8305.9	
474.29	10989	
474.49	10551	
474.69	9192.6	
474.89	8476.5	
475.09	9692.4	
475.29	9585.2	
475.49	7798.7	
475.69	8168.7	
475.88	11104	
476.08	9923.1	
476.28	7760.4	
476.48	8172.1	
476.68	10375	
476.88	10173	
477.08	7965.2	
477.28	8299.7	
477.48	9574.3	
477.68	10372	
477.88	7777.5	
478.08	8122.9	
478.28	10561	
478.48	9704.6	
478.67	8220.5	
478.87	7582.3	
479.07	10443	
479.27	9779.1	
479.47	8354.3	
479.67	8383	
479.87	10269	
480.07	10755	
480.27	7550.2	
480.47	9280.7	
480.67	9833.7	
480.87	10575	
481.06	7871.7	
481.26	8751.7	
481.46	9847.3	
481.66	9725.1	
481.86	8363.9	
482.06	9396.1	
482.26	9467.8	
482.46	10450	
482.66	8232.8	
482.86	7879.2	
483.05	9896.5	
483.25	9187.9	
483.45	10768	
483.65	8299.7	
483.85	9420.7	
484.05	9806.4	
484.25	8750.3	
484.45	9359.9	
484.65	10714	
484.84	10718	
485.04	8291.5	
485.24	8296.3	
485.44	10946	
485.64	9295	
485.84	7582.9	
486.04	9086.8	
486.24	9592	
486.44	10087	
486.63	7600	
486.83	8407.6	
487.03	9527.2	
487.23	9893.7	
487.43	7674.4	
487.63	10143	
487.83	9979.1	
488.02	10956	
488.22	8788.5	
488.42	9439.8	
488.62	10811	
488.82	9705.3	
489.02	8415.1	
489.22	8496.3	
489.41	10669	
489.61	10348	
489.81	8056.7	
490.01	8215.1	
490.21	10597	
490.41	11258	
490.61	8155	
490.8	8228.7	
491	10080	
491.2	9309.4	
491.4	8770.8	
491.6	7927	
491.8	9989.3	
491.99	10150	
492.19	7754.3	
492.39	8240.3	
492.59	10556	
492.79	10602	
492.99	9124.4	
493.18	8192.6	
493.38	10755	
493.58	11566	
493.78	8949.6	
493.98	8592.6	
494.18	10529	
494.37	9990	
494.57	9305.3	
494.77	9247.9	
494.97	10759	
495.17	11107	
495.37	8733.9	
495.56	9050.7	
495.76	11288	
495.96	10895	
496.16	10110	
496.36	8998.1	
496.55	11120	
496.75	10719	
496.95	9422	
497.15	9164.7	
497.35	11199	
497.54	11112	
497.74	9097.8	
497.94	10815	
498.14	11864	
498.34	11540	
498.53	8647.2	
498.73	9538.1	
498.93	10545	
499.13	11153	
499.33	9456.2	
499.52	9835.7	
499.72	11257	
499.92	11461	
500.12	9151.7	
500.32	9293.7	
500.51	11492	
500.71	11146	
500.91	10187	
501.11	9837.8	
501.31	11318	
501.5	11723	
501.7	10404	
501.9	9322.4	
502.1	11209	
502.29	11396	
502.49	9857.6	
502.69	10250	
502.89	11302	
503.09	11329	
503.28	8727.1	
503.48	8837	
503.68	10414	
503.88	10576	
504.07	9776.3	
504.27	9322.4	
504.47	10879	
504.67	11010	
504.86	9679.4	
505.06	9382.4	
505.26	10473	
505.46	12253	
505.65	9172.9	
505.85	9465	
506.05	10266	
506.25	10892	
506.44	8394.6	
506.64	9440.5	
506.84	10144	
507.04	11014	
507.23	8523.6	
507.43	9136	
507.63	12074	
507.83	10355	
508.02	9141.4	
508.22	8690.2	
508.42	12249	
508.62	9955.2	
508.81	8916.2	
509.01	9645.9	
509.21	9795.4	
509.4	10103	
509.6	9170.8	
509.8	8449.2	
510	10171	
510.19	11752	
510.39	8492.2	
510.59	8594	
510.79	9916.3	
510.98	11388	
511.18	8660.2	
511.38	8762.6	
511.57	10815	
511.77	10606	
511.97	9377	
512.17	8366.6	
512.36	10842	
512.56	10697	
512.76	8568	
512.95	8292.9	
513.15	10930	
513.35	9562.6	
513.55	9326.4	
513.74	8557.1	
513.94	10993	
514.14	10354	
514.33	9557.9	
514.53	9327.8	
514.73	10320	
514.92	10410	
515.12	8860.2	
515.32	8617.9	
515.51	10586	
515.71	11176	
515.91	10434	
516.11	8813.1	
516.3	12387	
516.5	10204	
516.7	9319.6	
516.89	10004	
517.09	10449	
517.29	10352	
517.48	9566.1	
517.68	8966.7	
517.88	10061	
518.07	10812	
518.27	9577	
518.47	8557.8	
518.66	11399	
518.86	9861.7	
519.06	8354.3	
519.25	8854.7	
519.45	10299	
519.65	11865	
519.84	9516.2	
520.04	10292	
520.24	12205	
520.43	11021	
520.63	9138.7	
520.83	8994.7	
521.02	10176	
521.22	10806	
521.42	9502.6	
521.61	10106	
521.81	10288	
522.01	10636	
522.2	9388.6	
522.4	9192.6	
522.6	11118	
522.79	9965.4	
522.99	9364	
523.18	8606.9	
523.38	10918	
523.58	10926	
523.77	10711	
523.97	8692.9	
524.17	12861	
524.36	12011	
524.56	10103	
524.76	9708.7	
524.95	10970	
525.15	10604	
525.34	9535.3	
525.54	9569.5	
525.74	11351	
525.93	10413	
526.13	10811	
526.33	9524.4	
526.52	11815	
526.72	11275	
526.91	10916	
527.11	10166	
527.31	11929	
527.5	12267	
527.7	10008	
527.89	9045.2	
528.09	10809	
528.29	11412	
528.48	10454	
528.68	10039	
528.87	11758	
529.07	11691	
529.27	9860.3	
529.46	9352.4	
529.66	11271	
529.85	11684	
530.05	9280	
530.25	10127	
530.44	12810	
530.64	11286	
530.83	9760.6	
531.03	10082	
531.23	11792	
531.42	11622	
531.62	10813	
531.81	9910.8	
532.01	11983	
532.21	12452	
532.4	9728.5	
532.6	10288	
532.79	12985	
532.99	12179	
533.18	10159	
533.38	11280	
533.58	11674	
533.77	12518	
533.97	10213	
534.16	11071	
534.36	12629	
534.55	11787	
534.75	11236	
534.95	10322	
535.14	12502	
535.34	11623	
535.53	9973.6	
535.73	12005	
535.92	13088	
536.12	11868	
536.31	10006	
536.51	11283	
536.71	12125	
536.9	11699	
537.1	10160	
537.29	10331	
537.49	12545	
537.68	11578	
537.88	10727	
538.07	9943.6	
538.27	11872	
538.46	12846	
538.66	9906	
538.86	10294	
539.05	11889	
539.25	12417	
539.44	10626	
539.64	10211	
539.83	11731	
540.03	12681	
540.22	10036	
540.42	10139	
540.61	11880	
540.81	11942	
541	10505	
541.2	11199	
541.39	11458	
541.59	11929	
541.78	10879	
541.98	9844.6	
542.18	11126	
542.37	10993	
542.57	10316	
542.76	10938	
542.96	11004	
543.15	11815	
543.35	10269	
543.54	9412.5	
543.74	11997	
543.93	11566	
544.13	10018	
544.32	11213	
544.52	11863	
544.71	10889	
544.91	9036.3	
545.1	10451	
545.3	10967	
545.49	11736	
545.69	9086.8	
545.88	9789.3	
546.08	12698	
546.27	12271	
546.47	10282	
546.66	9493	
546.86	11908	
547.05	12549	
547.24	9762	
547.44	9645.3	
547.63	10827	
547.83	12045	
548.02	9964.7	
548.22	10215	
548.41	10564	
548.61	12021	
548.8	9503.9	
549	9374.2	
549.19	11247	
549.39	11497	
549.58	9121.7	
549.78	9731.9	
549.97	11647	
550.17	11115	
550.36	10559	
550.55	11576	
550.75	11058	
550.94	12069	
551.14	9299.1	
551.33	9753.8	
551.53	10381	
551.72	11519	
551.92	9884.9	
552.11	9541.5	
552.31	11458	
552.5	11572	
552.69	11226	
552.89	9097.1	
553.08	11453	
553.28	11255	
553.47	9598.8	
553.67	10747	
553.86	12185	
554.06	10383	
554.25	8695	
554.44	9286.9	
554.64	12874	
554.83	12376	
555.03	9259.5	
555.22	9740.1	
555.42	11692	
555.61	11377	
555.8	9439.8	
556	9759.3	
556.19	10415	
556.39	11634	
556.58	9559.9	
556.78	9435	
556.97	11157	
557.16	10934	
557.36	10852	
557.55	9127.8	
557.75	10131	
557.94	11974	
558.13	9194	
558.33	8873.8	
558.52	11757	
558.72	10716	
558.91	9010.4	
559.1	9333.3	
559.3	10308	
559.49	9976.3	
559.69	8618.5	
559.88	9564	
560.07	11133	
560.27	11652	
560.46	9858.9	
560.66	9906.7	
560.85	10931	
561.04	9975	
561.24	8955.1	
561.43	9169.4	
561.63	10241	
561.82	10675	
562.01	10486	
562.21	9447.3	
562.4	11037	
562.59	11962	
562.79	9267.7	
562.98	8993.3	
563.18	10998	
563.37	12362	
563.56	9833	
563.76	8848.6	
563.95	10374	
564.14	10292	
564.34	9384.5	
564.53	9131.2	
564.73	10916	
564.92	11272	
565.11	9381.7	
565.31	8832.9	
565.5	11535	
565.69	10415	
565.89	9136.7	
566.08	9330.5	
566.27	11370	
566.47	11772	
566.66	9875.3	
566.85	8549.6	
567.05	10918	
567.24	10337	
567.44	8895.7	
567.63	10295	
567.82	11153	
568.02	10865	
568.21	8765.3	
568.4	9327.1	
568.6	10705	
568.79	10762	
568.98	8657.4	
569.18	8800.8	
569.37	10667	
569.56	12661	
569.76	9093	
569.95	10077	
570.14	10963	
570.34	10796	
570.53	8388.5	
570.72	8488.1	
570.91	11260	
571.11	10365	
571.3	8894.3	
571.49	9868.5	
571.69	10378	
571.88	9957.9	
572.07	9389.3	
572.27	9437	
572.46	9977.7	
572.65	11037	
572.85	8677.9	
573.04	9136.7	
573.23	11215	
573.43	10510	
573.62	8375.5	
573.81	9176.9	
574	10456	
574.2	10399	
574.39	8876.6	
574.58	9011.7	
574.78	11441	
574.97	10607	
575.16	9365.4	
575.36	9396.8	
575.55	10933	
575.74	11103	
575.93	8432.2	
576.13	9486.9	
576.32	10305	
576.51	10982	
576.71	8837	
576.9	10185	
577.09	11224	
577.28	10700	
577.48	9327.1	
577.67	8300.4	
577.86	10430	
578.05	10733	
578.25	9020.6	
578.44	9097.8	
578.63	10506	
578.83	11736	
579.02	8412.4	
579.21	10017	
579.4	10804	
579.6	10396	
579.79	9182.4	
579.98	11417	
580.17	11245	
580.37	11198	
580.56	8685.4	
580.75	9454.1	
580.94	11685	
581.14	11524	
581.33	9953.1	
581.52	8908.7	
581.71	11054	
581.91	11792	
582.1	8578.9	
582.29	9233.6	
582.48	10769	
582.68	10633	
582.87	9706	
583.06	9298.5	
583.25	11167	
583.45	10470	
583.64	10012	
583.83	10751	
584.02	10581	
584.21	11034	
584.41	10023	
584.6	9285.5	
584.79	10769	
584.98	11617	
585.18	8706.6	
585.37	8728.4	
585.56	10256	
585.75	11107	
585.94	8983.1	
586.14	9592	
586.33	11665	
586.52	10584	
586.71	9262.3	
586.91	8955.8	
587.1	9954.5	
587.29	10936	
587.48	8865	
587.67	8761.9	
587.87	10711	
588.06	10776	
588.25	10069	
588.44	9170.8	
588.63	10162	
588.83	10731	
589.02	8406.9	
589.21	8161.8	
589.4	9624.8	
589.59	9431.6	
589.78	7201.3	
589.98	7445.7	
590.17	8834.3	
590.36	9355.1	
590.55	6660	
590.74	7577.5	
590.94	10602	
591.13	9181	
591.32	7324.9	
591.51	6834.1	
591.7	9643.9	
591.89	9058.8	
592.09	6975.4	
592.28	7411.6	
592.47	8371.4	
592.66	10375	
592.85	6992.4	
593.05	7262.8	
593.24	8938	
593.43	9867.8	
593.62	7333.8	
593.81	7879.2	
594	9090.3	
594.19	9377.6	
594.39	7313.3	
594.58	7257.3	
594.77	9581.1	
594.96	10142	
595.15	7253.9	
595.34	7780.9	
595.54	9470.5	
595.73	8514.8	
595.92	6507.8	
596.11	7669	
596.3	10030	
596.49	8622.6	
596.68	7589.8	
596.88	8048.5	
597.07	9822.1	
597.26	8647.2	
597.45	7099.6	
597.64	8422.6	
597.83	8890.9	
598.02	9525.1	
598.22	7236.2	
598.41	7982.3	
598.6	9400.2	
598.79	8829.5	
598.98	7344	
599.17	8310	
599.36	9512.8	
599.55	10664	
599.74	9626.1	
599.94	9278	
600.13	10068	
600.32	8875.2	
600.51	7264.1	
600.7	7486	
600.89	10862	
601.08	10957	
601.27	7212.3	
601.47	8219.2	
601.66	10163	
601.85	10839	
602.04	8032.8	
602.23	8341.4	
602.42	9268.4	
602.61	9938.1	
602.8	7915.4	
602.99	7770.7	
603.18	9626.8	
603.37	9932.6	
603.57	8429.4	
603.76	8984.4	
603.95	10716	
604.14	10219	
604.33	7898.3	
604.52	8304.5	
604.71	9976.3	
604.9	9552.4	
605.09	8895	
605.28	8631.5	
605.47	10506	
605.66	10297	
605.86	8470.4	
606.05	7916.1	
606.24	10491	
606.43	9056.8	
606.62	8245.1	
606.81	9043.1	
607	10333	
607.19	9649.3	
607.38	7587.7	
607.57	7915.4	
607.76	9448	
607.95	8921.6	
608.14	8251.3	
608.33	8845.9	
608.52	9436.4	
608.72	10381	
608.91	7617.8	
609.1	7409.6	
609.29	9556.5	
609.48	8899.8	
609.67	8486.1	
609.86	7514	
610.05	9099.1	
610.24	9436.4	
610.43	7357.7	
610.62	6982.2	
610.81	10587	
611	10419	
611.19	7463.5	
611.38	8178.9	
611.57	9696.4	
611.76	11044	
611.95	7207.5	
612.14	7106.5	
612.33	9518.3	
612.52	9039.7	
612.71	7862.2	
612.9	7027.9	
613.09	8696.4	
613.28	11072	
613.47	7514	
613.66	8617.2	
613.85	9680.1	
614.04	9116.2	
614.24	7686.7	
614.43	6813.6	
614.62	9775.6	
614.81	9635.7	
615	8184.4	
615.19	8196	
615.38	8953.7	
615.57	9381.7	
615.76	7985.7	
615.95	8995.4	
616.14	9823.4	
616.33	9364	
616.52	8368	
616.71	8672.5	
616.9	9721.7	
617.09	9588.6	
617.28	7709.9	
617.47	8944.2	
617.66	8797.4	
617.85	8869.8	
618.04	8672.5	
618.22	8075.1	
618.41	9226.1	
618.6	10085	
618.79	8034.9	
618.98	7645.1	
619.17	10428	
619.36	8720.9	
619.55	7871	
619.74	7811	
619.93	9632.3	
620.12	9037.7	
620.31	8470.4	
620.5	8662.9	
620.69	10284	
620.88	10710	
621.07	9283.4	
621.26	8350.9	
621.45	9884.9	
621.64	9938.1	
621.83	8417.2	
622.02	7517.4	
622.21	9878.7	
622.4	9651.4	
622.59	8955.8	
622.78	8791.9	
622.97	9200.8	
623.16	10194	
623.35	8299.1	
623.54	7468.9	
623.72	9398.1	
623.91	9533.3	
624.1	8533.2	
624.29	7240.3	
624.48	10662	
624.67	9828.2	
624.86	8421.2	
625.05	7458	
625.24	10707	
625.43	8948.3	
625.62	10105	
625.81	7681.9	
626	9992.7	
626.19	9280.7	
626.38	8426	
626.56	7726.3	
626.75	9134.6	
626.94	9764.7	
627.13	8314.8	
627.32	6977.4	
627.51	9598.1	
627.7	11091	
627.89	6996.5	
628.08	8161.8	
628.27	8656.8	
628.46	8943.5	
628.65	7238.2	
628.83	6935.8	
629.02	9451.4	
629.21	8789.2	
629.4	7798.7	
629.59	8005.5	
629.78	8842.4	
629.97	9777.7	
630.16	8117.5	
630.35	7438.9	
630.54	10210	
630.72	9964.7	
630.91	7514.7	
631.1	8148.9	
631.29	9429.5	
631.48	9615.2	
631.67	8117.5	
631.86	7581.6	
632.05	9032.2	
632.24	9095.7	
632.42	7288.7	
632.61	7966.6	
632.8	9166	
632.99	8765.3	
633.18	7935.2	
633.37	8332.5	
633.56	9404.3	
633.75	9273.2	
633.93	7888.8	
634.12	7629.4	
634.31	10231	
634.5	9845.3	
634.69	7649.8	
634.88	8157.7	
635.07	9253.4	
635.25	9772.2	
635.44	8628.8	
635.63	8791.9	
635.82	9046.6	
636.01	8542.1	
636.2	8557.8	
636.39	8134.5	
636.57	10255	
636.76	9921	
636.95	7371.3	
637.14	8944.8	
637.33	9478	
637.52	10573	
637.7	7197.2	
637.89	8295	
638.08	9141.4	
638.27	10677	
638.46	8252.6	
638.65	8761.9	
638.83	10731	
639.02	8919.6	
639.21	8292.2	
639.4	8704.5	
639.59	9428.8	
639.78	8994.7	
639.96	7415	
640.15	7451.9	
640.34	9213.1	
640.53	9372.9	
640.72	7185	
640.91	7497.6	
641.09	8628.1	
641.28	10025	
641.47	7468.3	
641.66	8364.6	
641.85	9337.4	
642.03	9626.1	
642.22	8030.8	
642.41	7507.9	
642.6	8641.7	
642.79	8147.5	
642.97	7206.8	
643.16	8003.5	
643.35	8658.8	
643.54	8456.7	
643.73	7117.4	
643.91	7907.2	
644.1	8174.1	
644.29	8898.4	
644.48	7053.9	
644.67	7094.8	
644.85	8348.9	
645.04	8620.6	
645.23	6598.6	
645.42	6806.8	
645.6	8002.8	
645.79	9230.2	
645.98	6737.1	
646.17	5702.2	
646.36	7612.3	
646.54	8249.2	
646.73	7368.6	
646.92	6182.8	
647.11	7768.6	
647.29	8822	
647.48	6236.1	
647.67	5994.4	
647.86	9132.6	
648.05	9133.9	
648.23	6688	
648.42	7949.5	
648.61	8558.5	
648.8	8235.6	
648.98	6302.3	
649.17	6702.3	
649.36	7902.4	
649.55	7413	
649.73	6433.4	
649.92	7208.2	
650.11	7821.9	
650.3	8128.4	
650.48	6575.3	
650.67	6267.5	
650.86	8334.6	
651.05	7262.8	
651.23	6399.2	
651.42	6401.3	
651.61	7774.8	
651.79	7947.5	
651.98	6710.5	
652.17	6305.7	
652.36	8349.6	
652.54	7490.8	
652.73	6354.2	
652.92	6192.4	
653.11	8372.1	
653.29	8415.1	
653.48	5620.3	
653.67	6681.2	
653.85	8156.4	
654.04	9140.1	
654.23	6879.8	
654.42	6325.5	
654.6	7559.7	
654.79	8204.8	
654.98	5744.6	
655.16	6309.8	
655.35	7118.1	
655.54	7168.6	
655.73	5941.2	
655.91	5899.5	
656.1	8343.4	
656.29	7101.7	
656.47	5470.8	
656.66	7183.6	
656.85	7475.8	
657.03	7566.6	
657.22	6049	
657.41	6178.7	
657.59	7606.2	
657.78	7377.5	
657.97	5803.3	
658.16	6567.8	
658.34	8269.7	
658.53	8804.9	
658.72	7456.7	
658.9	8045.1	
659.09	7746.1	
659.28	7933.8	
659.46	6261.3	
659.65	6283.9	
659.84	7635.5	
660.02	8099	
660.21	6111.8	
660.4	6150.7	
660.58	8604.9	
660.77	7919.5	
660.96	6713.2	
661.14	5777.3	
661.33	9118.2	
661.52	9055.4	
661.7	5735.7	
661.89	9473.9	
662.08	7460.8	
662.26	7135.8	
662.45	5993.7	
662.64	6135	
662.82	8204.2	
663.01	7458	
663.2	6197.8	
663.38	6948.8	
663.57	8210.3	
663.75	8104.5	
663.94	6478.4	
664.13	7830.7	
664.31	7475.8	
664.5	8283.4	
664.69	6632.7	
664.87	7329.7	
665.06	7234.1	
665.25	8100.4	
665.43	7565.9	
665.62	7631.4	
665.8	8396	
665.99	7662.8	
666.18	6541.9	
666.36	6580.1	
666.55	8384.4	
666.74	8203.5	
666.92	6130.9	
667.11	7737.9	
667.29	7693.5	
667.48	8266.3	
667.67	7309.9	
667.85	6516.6	
668.04	7664.9	
668.22	7655.3	
668.41	6541.2	
668.6	6715.3	
668.78	7490.1	
668.97	7649.2	
669.15	6881.9	
669.34	5924.8	
669.53	7504.4	
669.71	7793.9	
669.9	6064	
670.08	6677.7	
670.27	7531.7	
670.46	8097	
670.64	6896.9	
670.83	7191.1	
671.01	7329	
671.2	8007.6	
671.38	6110.5	
671.57	6055.2	
671.76	8676.6	
671.94	9190.6	
672.13	5958.9	
672.31	7105.8	
672.5	8110.6	
672.69	7436.9	
672.87	6073.6	
673.06	6425.8	
673.24	8026	
673.43	7492.8	
673.61	6869.6	
673.8	6339.1	
673.98	8231.5	
674.17	8335.9	
674.36	7042.3	
674.54	6861.4	
674.73	7930.4	
674.91	8155.7	
675.1	6538.5	
675.28	6249.7	
675.47	7711.3	
675.65	8284.7	
675.84	6358.9	
676.03	6726.2	
676.21	7492.2	
676.4	7039.6	
676.58	7173.4	
676.77	6893.5	
676.95	8931.2	
677.14	7370.6	
677.32	6028.5	
677.51	5890	
677.69	8234.9	
677.88	7017.7	
678.06	5963.7	
678.25	6035.4	
678.44	7712.7	
678.62	7443	
678.81	5689.9	
678.99	6709.8	
679.18	8473.1	
679.36	8101.1	
679.55	6251.1	
679.73	6945.3	
679.92	8057.4	
680.1	7451.2	
680.29	7591.1	
680.47	6331	
680.66	7388.4	
680.84	8238.3	
681.03	5601.9	
681.21	6741.9	
681.4	7352.9	
681.58	7296.9	
681.77	6074.3	
681.95	5937.7	
682.14	8286.8	
682.32	8632.2	
682.51	6971.3	
682.69	5698.8	
682.88	7250.5	
683.06	7979.6	
683.25	6625.9	
683.43	7082.6	
683.62	7527	
683.8	8032.8	
683.99	7149.5	
684.17	6384.2	
684.36	8645.2	
684.54	7372	
684.73	5414.1	
684.91	5584.1	
685.1	7557	
685.28	6862.7	
685.46	6001.9	
685.65	6083.1	
685.83	7686.7	
686.02	6999.3	
686.2	5505.6	
686.39	5619.6	
686.57	6942.6	
686.76	8381	
686.94	5547.3	
687.13	5779.4	
687.31	7593.2	
687.5	7130.3	
687.68	5144.5	
687.86	6488.6	
688.05	8710.7	
688.23	6579.4	
688.42	6494.8	
688.6	5677.7	
688.79	7030	
688.97	6974	
689.16	6130.3	
689.34	5009.3	
689.52	7838.3	
689.71	7987.8	
689.89	6328.2	
690.08	5566.4	
690.26	7235.5	
690.45	7118.1	
690.63	6487.3	
690.81	5694	
691	6875	
691.18	6821.1	
691.37	5758.9	
691.55	7963.9	
691.74	6735.8	
691.92	8777.6	
692.1	5921.4	
692.29	5175.2	
692.47	6987	
692.66	6256.5	
692.84	5484.5	
693.02	6170.5	
693.21	6433.4	
693.39	7026.6	
693.58	6283.9	
693.76	5706.3	
693.94	8333.2	
694.13	8077.2	
694.31	5696.8	
694.5	6877.8	
694.68	6977.4	
694.86	7421.2	
695.05	6227.9	
695.23	6569.2	
695.42	7913.4	
695.6	10250	
695.78	6792.4	
695.97	5872.2	
696.15	7780.2	
696.34	7200.7	
696.52	5530.2	
696.7	6390.3	
696.89	7516	
697.07	6857.3	
697.25	6301.6	
697.44	7780.2	
697.62	7311.2	
697.81	7761.1	
697.99	5988.9	
698.17	6411.5	
698.36	6774	
698.54	7397.9	
698.72	6241.5	
698.91	5220.3	
699.09	6888.7	
699.28	6892.8	
699.46	5941.8	
699.64	5817.6	
699.83	6787.7	
700.01	8103.8	
700.19	6680.5	
700.38	5172.5	
700.56	8276.5	
700.74	6984.3	
700.93	5618.9	
701.11	6503	
701.29	7731.8	
701.48	8819.9	
701.66	5896.1	
701.84	5966.4	
702.03	7192.5	
702.21	7997.3	
702.39	5496.1	
702.58	6126.2	
702.76	7602.7	
702.94	7765.9	
703.13	5473.5	
703.31	7862.2	
703.49	6980.8	
703.68	7992.5	
703.86	5720	
704.04	6727.6	
704.23	7507.2	
704.41	7963.9	
704.59	5866.7	
704.78	7210.2	
704.96	8643.8	
705.14	8017.8	
705.33	5671.5	
705.51	6527.6	
705.69	7415	
705.87	8265.6	
706.06	6981.5	
706.24	5759.6	
706.42	7838.9	
706.61	8084.7	
706.79	7027.3	
706.97	5799.8	
707.16	7291.5	
707.34	7917.4	
707.52	6993.8	
707.7	6046.3	
707.89	7537.9	
708.07	7154.9	
708.25	6965.8	
708.44	7126.9	
708.62	7413	
708.8	8545.5	
708.98	7235.5	
709.17	6239.5	
709.35	7932.5	
709.53	7927.7	
709.72	5961.6	
709.9	6158.2	
710.08	8223.3	
710.26	8208.3	
710.45	7662.8	
710.63	6307.1	
710.81	7755	
710.99	7797.3	
711.18	6867.5	
711.36	6337.8	
711.54	7522.9	
711.72	8336.6	
711.91	6354.2	
712.09	5733.6	
712.27	7646.4	
712.45	8292.2	
712.64	6524.8	
712.82	5384.1	
713	6969.2	
713.18	7017.7	
713.37	5445.5	
713.55	6673	
713.73	7798.7	
713.91	6217.6	
714.1	5605.3	
714.28	5051.7	
714.46	7245.7	
714.64	6306.4	
714.83	4309.6	
715.01	5090.6	
715.19	6378.1	
715.37	5767.8	
715.55	4818.2	
715.74	5162.9	
715.92	7307.2	
716.1	5270.1	
716.28	6328.2	
716.47	5312.4	
716.65	5999.2	
716.83	6024.4	
717.01	5158.8	
717.19	5294	
717.38	8246.5	
717.56	5793	
717.74	5517.9	
717.92	4678.9	
718.1	7152.9	
718.29	6408.8	
718.47	4375.1	
718.65	5139	
718.83	7233.4	
719.01	7156.3	
719.2	4387.4	
719.38	5545.9	
719.56	6886	
719.74	8520.2	
719.92	5058.5	
720.11	6152.1	
720.29	6842.3	
720.47	5918.6	
720.65	4457.7	
720.83	5338.4	
721.02	6193.7	
721.2	5853.1	
721.38	5378	
721.56	4606.6	
721.74	5453.1	
721.92	5698.8	
722.11	5920	
722.29	5591	
722.47	6937.2	
722.65	6075	
722.83	4601.1	
723.01	5639.4	
723.2	6181.5	
723.38	6460	
723.56	4039.3	
723.74	5256.5	
723.92	5686.5	
724.1	6949.4	
724.29	4551.3	
724.47	5801.9	
724.65	5799.8	
724.83	5709.1	
725.01	4506.9	
725.19	5448.3	
725.37	5803.9	
725.56	5955.5	
725.74	4394.9	
725.92	4693.3	
726.1	5778.7	
726.28	6037.4	
726.46	5120.6	
726.64	4825	
726.83	6004	
727.01	6249.7	
727.19	4433.9	
727.37	5265.3	
727.55	6154.8	
727.73	6722.8	
727.91	4377.9	
728.09	4191.5	
728.28	6786.3	
728.46	7535.8	
728.64	5563.6	
728.82	5533.6	
729	8118.8	
729.18	7345.4	
729.36	4739	
729.54	7336.5	
729.72	8471.8	
729.91	6751.5	
730.09	6906.4	
730.27	5644.2	
730.45	6718	
730.63	7445	
730.81	6399.9	
730.99	5327.4	
731.17	8028	
731.35	6522.1	
731.53	5964.4	
731.71	5481	
731.9	7653.9	
732.08	7869.7	
732.26	5828.5	
732.44	5352.7	
732.62	7907.9	
732.8	7340.6	
732.98	6219.7	
733.16	5187.5	
733.34	7335.8	
733.52	6143.9	
733.7	5745.9	
733.88	6167.1	
734.07	7150.1	
734.25	7010.2	
734.43	5287.9	
734.61	6921.5	
734.79	8587.8	
734.97	6903	
735.15	5431.9	
735.33	5740.5	
735.51	7363.8	
735.69	7025.2	
735.87	7029.3	
736.05	6130.3	
736.23	7204.8	
736.41	6942.6	
736.59	5988.3	
736.77	6152.8	
736.95	7832.8	
737.13	7257.3	
737.32	5631.2	
737.5	5904.3	
737.68	8333.2	
737.86	7155.6	
738.04	5542.5	
738.22	7481.9	
738.4	6997.9	
738.58	7277.8	
738.76	6221	
738.94	5091.9	
739.12	7141.3	
739.3	6947.4	
739.48	6879.8	
739.66	6655.2	
739.84	7505.8	
740.02	7489.4	
740.2	5346.6	
740.38	5685.8	
740.56	7976.2	
740.74	6700.3	
740.92	6373.3	
741.1	6313.9	
741.28	7339.9	
741.46	7148.1	
741.64	5922	
741.82	6457.9	
742	7355.6	
742.18	7301.7	
742.36	6207.4	
742.54	5665.4	
742.72	7881.9	
742.9	6619.7	
743.08	6612.9	
743.26	5312.4	
743.44	8207.6	
743.62	8028	
743.8	6728.9	
743.98	5781.4	
744.16	7710.6	
744.34	7372.7	
744.52	6665.5	
744.7	6539.2	
744.88	7787.7	
745.06	7258.7	
745.24	6664.1	
745.42	6759	
745.6	7856.7	
745.78	7605.5	
745.96	5389.6	
746.14	5710.4	
746.32	8605.6	
746.5	7911.3	
746.68	6337.1	
746.86	5726.8	
747.03	8309.3	
747.21	6517.3	
747.39	6351.4	
747.57	5747.3	
747.75	7473.7	
747.93	7886	
748.11	5782.1	
748.29	5636	
748.47	9084.1	
748.65	7103.7	
748.83	6494.1	
749.01	6299.6	
749.19	7705.8	
749.37	6837.5	
749.55	6064.7	
749.73	6094.1	
749.91	7234.8	
750.09	7083.2	
750.26	6204.7	
750.44	5598.5	
750.62	7379.5	
750.8	7352.9	
750.98	5385.5	
751.16	5771.2	
751.34	7438.2	
751.52	6673.6	
751.7	6673	
751.88	5378	
752.06	7970	
752.24	7644.4	
752.42	5353.4	
752.59	5742.5	
752.77	7305.1	
752.95	8554.4	
753.13	6528.2	
753.31	5890.6	
753.49	6986.3	
753.67	7372	
753.85	6155.5	
754.03	5758.2	
754.21	7742	
754.38	7922.9	
754.56	5866.1	
754.74	4749.9	
754.92	6740.5	
755.1	7380.2	
755.28	4592.9	
755.46	4509.6	
755.64	7766.6	
755.82	7786.4	
755.99	4463.2	
756.17	4487.1	
756.35	5071.5	
756.53	6623.8	
756.71	3269.2	
756.89	4261.8	
757.07	6250.4	
757.25	5293.3	
757.42	4897.4	
757.6	5834	
757.78	6421.7	
757.96	5328.1	
758.14	4685.1	
758.32	4100.7	
758.5	4793.6	
758.67	5666.7	
758.85	4347.2	
759.03	4526	
759.21	5847	
759.39	5333.6	
759.57	3982.6	
759.75	5152	
759.92	6620.4	
760.1	5834.7	
760.28	5616.9	
760.46	5900.2	
760.64	5687.9	
760.82	5378.6	
760.99	5576.6	
761.17	4659.8	
761.35	6707.8	
761.53	5572.5	
761.71	4939.7	
761.89	5674.9	
762.06	6660.7	
762.24	6129.6	
762.42	5129.5	
762.6	4945.2	
762.78	6262.7	
762.96	6220.4	
763.13	5614.8	
763.31	5299.5	
763.49	7210.9	
763.67	6227.9	
763.85	6206.7	
764.02	6772.6	
764.2	7469.6	
764.38	6680.5	
764.56	5220.3	
764.74	6178.7	
764.91	7654.6	
765.09	6495.5	
765.27	4944.5	
765.45	4693.3	
765.63	7609.6	
765.8	7517.4	
765.98	4474.8	
766.16	4732.9	
766.34	6034.7	
766.52	5812.8	
766.69	5791	
766.87	4604.5	
767.05	6462	
767.23	7195.2	
767.41	4887.1	
767.58	5154.1	
767.76	7043.6	
767.94	7136.5	
768.12	4996.4	
768.29	5844.2	
768.47	6494.1	
768.65	7303.1	
768.83	4567.7	
769	5825.8	
769.18	6035.4	
769.36	6772.6	
769.54	5815.5	
769.72	4604.5	
769.89	7043.6	
770.07	7138.5	
770.25	4945.8	
770.43	6343.2	
770.6	7825.3	
770.78	8271.1	
770.96	5125.4	
771.14	5810.8	
771.31	6875	
771.49	6188.3	
771.67	4262.5	
771.85	4578.6	
772.02	5426.4	
772.2	6247.7	
772.38	5207.3	
772.55	4760.8	
772.73	6524.1	
772.91	6243.6	
773.09	5103.5	
773.26	5193.6	
773.44	6358.3	
773.62	6106.4	
773.8	4594.3	
773.97	4302.8	
774.15	6466.8	
774.33	6070.2	
774.5	4545.8	
774.68	4790.9	
774.86	6582.9	
775.04	6050.4	
775.21	4465.9	
775.39	4521.2	
775.57	6272.9	
775.74	6683.9	
775.92	4298	
776.1	4256.4	
776.27	6249.7	
776.45	7538.6	
776.63	4429.8	
776.81	3938.2	
776.98	5834.7	
777.16	7001.3	
777.34	4512.4	
777.51	4555.4	
777.69	5771.9	
777.87	5590.3	
778.04	4575.8	
778.22	5275.6	
778.4	5595.1	
778.57	6278.4	
778.75	3774.4	
778.93	4087.7	
779.1	5373.9	
779.28	5226.4	
779.46	3837.2	
779.64	4369.7	
779.81	6503	
779.99	7371.3	
780.17	5192.3	
780.34	5356.1	
780.52	5818.3	
780.69	6064.7	
780.87	4616.1	
781.05	4160.8	
781.22	5840.8	
781.4	5992.4	
781.58	4295.3	
781.75	3468.6	
781.93	5912.5	
782.11	5284.4	
782.28	5236	
782.46	4191.5	
782.64	5109.7	
782.81	6077	
782.99	4361.5	
783.17	4343.7	
783.34	5961.6	
783.52	5130.2	
783.69	4498	
783.87	5358.2	
784.05	5125.4	
784.22	5229.8	
784.4	5356.8	
784.58	4616.8	
784.75	6148.7	
784.93	5234.6	
785.1	4229.7	
785.28	4915.1	
785.46	5860.6	
785.63	5179.3	
785.81	4179.9	
785.99	4004.5	
786.16	5362.3	
786.34	5769.1	
786.51	4120.5	
786.69	4494.6	
786.87	4925.4	
787.04	5489.2	
787.22	3945.8	
787.39	4909	
787.57	5181.4	
787.75	6335	
787.92	5148.6	
788.1	5091.3	
788.27	5244.2	
788.45	4938.3	
788.63	4771.8	
788.8	3465.8	
788.98	5530.2	
789.15	4911.7	
789.33	3540.3	
789.5	4209.3	
789.68	6152.1	
789.86	6260.6	
790.03	4668.7	
790.21	4072	
790.38	6115.2	
790.56	5244.8	
790.73	3907.5	
790.91	3894.6	
791.09	5150	
791.26	5978.7	
791.44	4130.8	
791.61	3605.8	
791.79	5142.4	
791.96	5236	
792.14	3736.9	
792.32	3253.5	
792.49	5176.6	
792.67	5283.1	
792.84	3792.2	
793.02	3596.2	
793.19	5664.7	
793.37	6357.6	
793.54	3304.1	
793.72	3614.7	
793.89	6579.4	
794.07	5140.4	
794.25	4308.2	
794.42	3358	
794.6	6217.6	
794.77	5823.1	
794.95	4507.6	
795.12	3986.7	
795.3	5105.6	
795.47	5812.1	
795.65	4355.3	
795.82	4227.7	
796	4939	
796.17	6920.8	
796.35	4020.2	
796.52	4840	
796.7	5704.3	
796.87	5786.2	
797.05	5054.4	
797.22	4981.3	
797.4	5765	
797.57	6829.3	
797.75	4134.2	
797.92	3911.6	
798.1	6068.8	
798.27	5156.1	
798.45	3360	
798.62	3616	
798.8	5460.6	
798.97	5948	
799.15	4462.5	
799.32	4237.9	
799.5	4655.7	
799.67	5545.2	
799.85	4563.6	
800.02	3257	
800.2	5096.7	
800.37	5504.3	
800.55	4767.7	
800.72	3923.9	
800.9	5918.6	
801.07	6318	
801.25	5309.7	
801.42	4317.8	
801.6	5964.4	
801.77	5614.2	
801.95	3982.6	
802.12	3827.7	
802.29	5696.1	
802.47	5642.8	
802.64	4260.5	
802.82	3218.7	
802.99	5012.7	
803.17	6153.5	
803.34	4170.3	
803.52	3740.3	
803.69	6775.4	
803.87	4862.6	
804.04	4141	
804.21	4255.7	
804.39	6208.8	
804.56	5304.2	
804.74	3500	
804.91	4352.6	
805.09	5131.5	
805.26	5190.9	
805.44	3590.1	
805.61	3968.3	
805.78	5762.3	
805.96	5818.3	
806.13	4335.5	
806.31	4625.7	
806.48	4611.3	
806.66	5204.6	
806.83	4341.7	
807	4227.7	
807.18	5069.4	
807.35	5390.9	
807.53	4149.9	
807.7	3325.9	
807.87	6255.9	
808.05	5130.2	
808.22	4584.7	
808.4	3319.1	
808.57	5131.5	
808.74	4685.8	
808.92	3801.7	
809.09	4902.2	
809.27	4992.9	
809.44	5647.6	
809.61	3358	
809.79	3709.6	
809.96	6267.5	
810.14	5849.7	
810.31	3261	
810.48	3995.6	
810.66	5208.7	
810.83	5956.9	
811.01	3835.2	
811.18	4273.4	
811.35	5849.7	
811.53	4600.4	
811.7	4654.4	
811.87	4285.7	
812.05	5091.9	
812.22	5004.6	
812.39	3681.6	
812.57	3584.6	
812.74	5123.3	
812.92	6865.5	
813.09	4009.2	
813.26	4372.4	
813.44	6601.3	
813.61	5070.1	
813.78	3308.8	
813.96	4521.2	
814.13	5081	
814.3	4765.6	
814.48	4873.5	
814.65	3980.6	
814.82	6407.4	
815	4892.6	
815.17	4164.2	
815.34	5093.3	
815.52	4958.1	
815.69	5066	
815.87	4191.5	
816.04	3482.9	
816.21	5117.9	
816.38	4512.4	
816.56	3962.1	
816.73	3678.8	
816.9	6522.8	
817.08	5876.3	
817.25	3728.7	
817.42	4735.6	
817.6	4655.7	
817.77	5186.8	
817.94	4202.4	
818.12	3701.4	
818.29	4844.8	
818.46	7673.7	
818.64	3844	
818.81	3595.6	
818.98	4767.7	
819.16	6981.5	
819.33	4413.4	
819.5	4141.7	
819.67	5459.2	
819.85	6217	
820.02	4035.9	
820.19	4334.9	
820.37	5338.4	
820.54	4902.2	
820.71	4171.7	
820.88	5259.9	
821.06	5359.5	
821.23	4872.8	
821.4	4269.3	
821.58	4126.7	
821.75	5914.5	
821.92	5291.3	
822.09	3352.5	
822.27	3482.2	
822.44	5089.9	
822.61	5016.2	
822.79	3437.2	
822.96	6619.7	
823.13	5621.7	
823.3	4807.9	
823.48	3898	
823.65	3500	
823.82	5875.6	
823.99	4650.9	
824.17	4988.2	
824.34	3599	
824.51	6804.7	
824.68	5182	
824.86	3747.1	
825.03	4144.4	
825.2	5141.1	
825.37	6195.8	
825.55	3672.7	
825.72	4102.1	
825.89	6873.7	
826.06	6352.1	
826.24	4009.2	
826.41	4014.7	
826.58	6251.8	
826.75	5472.9	
826.92	3142.3	
827.1	3575.8	
827.27	8577.6	
827.44	6816.3	
827.61	3829.7	
827.79	4683.7	
827.96	4843.4	
828.13	5215.5	
828.3	4013.3	
828.47	3362.1	
828.65	5326.8	
828.82	5287.2	
828.99	5150.6	
829.16	4533.5	
829.34	5726.1	
829.51	5479.7	
829.68	4162.8	
829.85	4276.8	
830.02	6087.9	
830.2	5750	
830.37	3158.7	
830.54	5070.1	
830.71	6576.7	
830.88	5119.2	
831.05	3257.6	
831.23	3739.6	
831.4	6322.8	
831.57	7116	
831.74	3872	
831.91	3399.6	
832.09	5324.7	
832.26	5697.4	
832.43	3977.8	
832.6	4521.9	
832.77	5364.3	
832.94	6150.1	
833.12	3152.5	
833.29	3960.8	
833.46	5034.6	
833.63	7316.7	
833.8	4317.1	
833.97	4009.2	
834.15	5797.1	
834.32	5585.5	
834.49	4169.7	
834.66	4263.9	
834.83	5973.9	
835	4876.9	
835.17	3850.9	
835.35	3908.9	
835.52	5638.1	
835.69	5524.7	
835.86	4027.7	
836.03	3367.5	
836.2	5716.6	
836.37	5304.2	
836.55	4014.7	
836.72	3776.5	
836.89	5259.2	
837.06	5743.2	
837.23	4047.5	
837.4	4453.6	
837.57	6604.7	
837.75	7310.6	
837.92	3639.2	
838.09	3848.1	
838.26	5322	
838.43	6082.5	
838.6	4179.9	
838.77	3778.5	
838.94	6978.1	
839.11	6622.4	
839.29	4037.9	
839.46	3142.9	
839.63	5724.8	
839.8	5416.9	
839.97	3848.1	
840.14	3832.4	
840.31	5510.4	
840.48	5762.3	
840.65	3194.8	
840.82	3825.6	
841	5717.2	
841.17	5715.2	
841.34	3606.5	
841.51	3559.4	
841.68	5630.5	
841.85	5395.7	
842.02	3688.4	
842.19	3067.9	
842.36	5450.3	
842.53	5469.4	
842.7	3559.4	
842.87	4427	
843.05	7243	
843.22	5395.7	
843.39	3317	
843.56	3631.7	
843.73	5152.7	
843.9	5819.6	
844.07	5821	
844.24	4809.3	
844.41	8569.4	
844.58	5018.9	
844.75	3439.9	
844.92	3732.1	
845.09	5717.9	
845.26	5747.3	
845.43	3504.1	
845.6	3734.1	
845.77	5722	
845.94	5434.6	
846.12	3913.7	
846.29	4199.7	
846.46	5935	
846.63	5752.7	
846.8	3562.8	
846.97	4263.2	
847.14	6211.5	
847.31	5638.7	
847.48	3960.8	
847.65	4402.5	
847.82	6047.7	
847.99	5999.9	
848.16	4676.9	
848.33	4424.3	
848.5	5266.7	
848.67	6221	
848.84	3504.1	
849.01	3625.6	
849.18	5130.8	
849.35	4775.2	
849.52	4428.4	
849.69	3429.7	
849.86	5887.9	
850.03	6169.2	
850.2	3588.7	
850.37	4388.8	
850.54	6117.3	
850.71	5363.6	
850.88	4285.7	
851.05	3440.6	
851.22	5662.6	
851.39	6275	
851.56	3378.5	
851.73	4095.9	
851.9	5000.5	
852.07	5973.9	
852.24	3921.9	
852.41	3510.9	
852.58	5589.6	
852.75	5115.8	
852.92	3921.9	
853.09	3429.7	
853.26	5256.5	
853.43	6151.4	
853.6	3491.8	
853.77	2959.3	
853.94	6369.9	
854.11	5629.2	
854.28	5302.9	
854.44	3801	
854.61	6787	
854.78	5813.5	
854.95	3548.4	
855.12	4532.2	
855.29	4607.2	
855.46	6494.1	
855.63	3532.1	
855.8	4889.9	
855.97	5272.2	
856.14	6057.2	
856.31	5045.5	
856.48	3900.7	
856.65	5181.4	
856.82	4962.9	
856.99	3426.3	
857.16	3822.2	
857.33	6991.1	
857.49	5323.4	
857.66	3770.3	
857.83	4143.7	
858	5307.7	
858.17	5527.5	
858.34	3298.6	
858.51	3523.2	
858.68	6457.9	
858.85	6486.6	
859.02	4146.5	
859.19	4375.8	
859.36	4970.4	
859.52	5083.1	
859.69	3510.2	
859.86	4225.6	
860.03	5087.2	
860.2	6318.7	
860.37	3190.1	
860.54	3550.5	
860.71	5911.1	
860.88	6423.8	
861.05	3930.1	
861.21	4453.6	
861.38	6421.7	
861.55	4896.7	
861.72	3208.5	
861.89	3992.2	
862.06	5974.6	
862.23	6559	
862.4	3374.4	
862.56	3710.9	
862.73	5865.4	
862.9	5474.9	
863.07	4149.2	
863.24	3169.6	
863.41	4871.4	
863.58	4996.4	
863.75	3632.4	
863.91	4102.8	
864.08	6371.2	
864.25	5859.2	
864.42	4504.8	
864.59	4930.1	
864.76	6675	
864.93	5024.3	
865.09	3424.2	
865.26	3778.5	
865.43	6184.2	
865.6	6610.2	
865.77	3057.6	
865.94	3511.6	
866.1	6261.3	
866.27	5967.8	
866.44	5342.5	
866.61	3367.5	
866.78	5431.9	
866.95	5846.3	
867.11	3427.6	
867.28	3108.1	
867.45	6068.8	
867.62	5133.6	
867.79	4141	
867.96	3507.5	
868.12	4919.2	
868.29	6047.7	
868.46	3537.5	
868.63	4749.9	
868.8	6230.6	
868.97	5948	
869.13	3708.9	
869.3	3691.1	
869.47	5848.3	
869.64	6003.3	
869.81	3566.2	
869.97	3599	
870.14	5740.5	
870.31	6450.4	
870.48	3451.5	
870.65	4455.7	
870.81	5347.9	
870.98	5283.1	
871.15	3997	
871.32	3656.3	
871.48	5821.7	
871.65	6422.4	
871.82	3551.9	
871.99	3836.5	
872.16	6949.4	
872.32	6241.5	
872.49	3508.2	
872.66	3561.4	
872.83	5968.5	
872.99	5175.2	
873.16	4044.7	
873.33	3485.6	
873.5	5535.7	
873.67	5593	
873.83	3722.5	
874	4785.4	
874.17	5674.9	
874.34	6821.8	
874.5	4517.1	
874.67	4388.8	
874.84	6361	
875.01	5002.5	
875.17	4954	
875.34	3532.1	
875.51	5672.9	
875.68	6840.9	
875.84	4294.6	
876.01	5234.6	
876.18	5921.4	
876.34	5801.2	
876.51	3549.8	
876.68	3431.7	
876.85	5341.1	
877.01	6232	
877.18	5036	
877.35	3515.7	
877.52	5524.1	
877.68	4937	
877.85	3439.9	
878.02	3486.3	
878.18	5466.7	
878.35	5193.6	
878.52	2805.7	
878.69	3921.9	
878.85	5917.3	
879.02	5934.3	
879.19	5021.6	
879.35	3828.3	
879.52	5872.9	
879.69	6087.2	
879.86	3063.1	
880.02	3952.6	
880.19	5427.1	
880.36	6664.1	
880.52	4066.6	
880.69	4141	
880.86	6011.5	
881.02	6094.1	
881.19	3905.5	
881.36	3831.7	
881.52	5870.2	
881.69	5195.7	
881.86	3852.9	
882.02	3676.8	
882.19	6188.3	
882.36	7237.5	
882.52	3616.7	
882.69	5082.4	
882.86	5691.3	
883.02	5622.4	
883.19	4306.2	
883.36	4067.3	
883.52	5984.2	
883.69	6894.8	
883.86	3592.1	
884.02	3152.5	
884.19	5974.6	
884.36	5521.3	
884.52	3990.1	
884.69	3763.5	
884.86	5223.7	
885.02	6673	
885.19	3956.7	
885.36	4052.9	
885.52	5490.6	
885.69	5666.7	
885.86	5117.9	
886.02	4530.8	
886.19	5999.2	
886.35	5332.9	
886.52	3901.4	
886.69	4982	
886.85	5063.9	
887.02	6388.3	
887.19	6388.3	
887.35	6388.3	
887.52	6388.3	
887.68	6388.3	
887.85	6388.3	
888.02	6388.3	
888.18	6388.3	
888.35	6388.3	
888.51	6388.3	
888.68	6388.3	
888.85	6388.3	
889.01	6388.3	
889.18	6388.3	
889.35	6388.3	
889.51	6388.3	
889.68	6388.3	
889.84	6388.3	
890.01	6388.3	
890.17	6388.3	
890.34	6388.3	
890.51	6388.3	
890.67	6388.3	
890.84	6388.3	
891	6388.3	
891.17	6388.3	
891.34	6388.3	
891.5	6388.3	
891.67	6388.3	
891.83	6388.3	
892	6388.3	
892.16	6388.3	
892.33	6388.3	
892.5	6388.3	
892.66	6388.3	
892.83	6388.3	
892.99	6388.3	
893.16	6388.3	
893.32	6388.3	
893.49	6388.3	
893.65	6388.3	
893.82	6388.3	
893.99	6388.3	
894.15	6388.3	
894.32	6388.3	
894.48	6388.3	
894.65	6388.3	
894.81	6388.3	
894.98	6388.3	
895.14	6388.3	
895.31	6388.3	
895.47	6388.3	
895.64	6388.3	
895.81	6388.3	
895.97	6388.3	
896.14	6388.3	
896.3	6388.3	
896.47	6388.3	
896.63	6388.3	
896.8	6388.3	
896.96	6388.3	
897.13	6388.3	
897.29	6388.3	
897.46	6388.3	
897.62	6388.3	
897.79	6388.3	
897.95	6388.3	
898.12	6388.3	
898.28	6388.3	
898.45	6388.3	
898.61	6388.3	
898.78	6388.3	
898.94	6388.3	
899.11	6388.3	
899.27	6388.3	
899.44	6388.3	
899.6	6388.3	
899.77	6388.3	
899.93	6388.3	
900.1	6388.3	
900.26	6388.3	
900.43	6388.3	
900.59	6388.3	
900.76	6388.3	
900.92	6388.3	
901.09	6388.3	
901.25	6388.3	
901.42	6388.3	
901.58	6388.3	
901.75	6388.3	
901.91	6388.3	
902.07	6388.3	
902.24	6388.3	
902.4	6388.3	
902.57	6388.3	
902.73	6388.3	
902.9	6388.3	
903.06	6388.3	
903.23	6388.3	
903.39	6388.3	
903.56	6388.3	
903.72	6388.3	
903.88	6388.3	
904.05	6388.3	
904.21	6388.3	
904.38	6388.3	
904.54	6388.3	
904.71	6388.3	
904.87	6388.3	
905.03	6388.3	
905.2	6388.3	
905.36	6388.3	
905.53	6388.3	
905.69	6388.3	
905.86	6388.3	
906.02	6388.3	
906.18	6388.3	
906.35	6388.3	
906.51	6388.3	
906.68	6388.3	
906.84	6388.3	
907.01	6388.3	
907.17	6388.3	
907.33	6388.3	
907.5	6388.3	
907.66	6388.3	
907.83	6388.3	
907.99	6388.3	
908.15	6388.3	
908.32	6388.3	
908.48	6388.3	
908.65	6388.3	
908.81	6388.3	
908.97	6388.3	
909.14	6388.3	
909.3	6388.3	
909.47	6388.3	
909.63	6388.3	
909.79	6388.3	
909.96	6388.3	
910.12	6388.3	
910.28	6388.3	
910.45	6388.3	
910.61	6388.3	
910.78	6388.3	
910.94	6388.3	
911.1	6388.3	
911.27	6388.3	
911.43	6388.3	
911.59	6388.3	
911.76	6388.3	
911.92	6388.3	
912.08	6388.3	
912.25	6388.3	
912.41	6388.3	
912.57	6388.3	
912.74	6388.3	
912.9	6388.3	
913.07	6388.3	
913.23	6388.3	
913.39	6388.3	
913.56	6388.3	
913.72	6388.3	
913.88	6388.3	
914.05	6388.3	
914.21	6388.3	
914.37	6388.3	
914.54	6388.3	
914.7	6388.3	
914.86	6388.3	
915.03	6388.3	
915.19	6388.3	
