Wavelength	Intensities	
nm	a.u.	
179.22	1652.2	
179.44	1651	
179.65	1653.4	
179.86	1648.6	
180.08	1693	
180.29	3774.4	
180.51	2973	
180.72	4937.7	
180.94	5471.5	
181.15	2668.5	
181.37	2662.4	
181.58	4725.3	
181.79	4910.3	
182.01	2777.7	
182.22	2940.9	
182.44	4986.1	
182.65	4255	
182.87	3528	
183.08	3191.4	
183.29	5112.4	
183.51	4344.4	
183.72	2966.1	
183.94	4016.7	
184.15	4662.5	
184.37	4533.5	
184.58	2617.3	
184.79	3387.3	
185.01	4412	
185.22	5018.2	
185.44	3575.8	
185.65	3082.2	
185.86	4656.4	
186.08	4257	
186.29	2570.9	
186.51	2753.8	
186.72	4433.9	
186.94	4990.2	
187.15	3139.5	
187.36	3201.7	
187.58	6193.1	
187.79	4764.9	
188.01	3261	
188.22	4849.6	
188.43	5507.7	
188.65	4965.6	
188.86	2788	
189.08	3194.1	
189.29	4502.8	
189.5	4468.7	
189.72	2934.1	
189.93	2983.2	
190.15	5096	
190.36	5806.7	
190.57	3201	
190.79	3117	
191	5063.3	
191.22	5029.8	
191.43	3222.1	
191.64	2824.1	
191.86	5212.1	
192.07	5051	
192.29	2838.5	
192.5	2972.3	
192.71	5030.5	
192.93	4528.1	
193.14	2889	
193.35	3013.9	
193.57	4486.4	
193.78	5122	
194	2467.8	
194.21	2895.8	
194.42	4323.9	
194.64	4686.4	
194.85	3155.2	
195.07	3594.9	
195.28	4600.4	
195.49	4133.5	
195.71	3813.3	
195.92	2736.8	
196.13	4827.7	
196.35	4846.2	
196.56	3926	
196.78	3251.5	
196.99	5778	
197.2	5444.9	
197.42	3546.4	
197.63	3257	
197.84	4250.9	
198.06	4791.6	
198.27	2945.7	
198.48	3788.1	
198.7	4484.4	
198.91	4648.2	
199.13	3205.8	
199.34	3218	
199.55	5036.6	
199.77	4110.3	
199.98	2827.6	
200.19	3209.8	
200.41	4624.3	
200.62	4390.2	
200.83	3278.8	
201.05	3545	
201.26	4624.3	
201.47	4427	
201.69	2904	
201.9	2824.1	
202.11	4650.9	
202.33	5311.1	
202.54	3029.6	
202.76	3392.8	
202.97	4709.6	
203.18	4814.8	
203.4	3354.6	
203.61	3319.1	
203.82	4729.4	
204.04	4444.1	
204.25	3214.6	
204.46	3184.6	
204.68	4684.4	
204.89	4790.9	
205.1	3090.4	
205.32	2760.7	
205.53	4894	
205.74	5082.4	
205.96	2409.1	
206.17	3277.4	
206.38	4885.8	
206.6	4975.2	
206.81	3621.5	
207.02	2990	
207.24	4853	
207.45	5120.6	
207.66	3047.4	
207.88	2712.9	
208.09	4844.1	
208.3	4678.2	
208.52	2850.1	
208.73	3135.4	
208.94	4630.5	
209.15	5127.4	
209.37	3082.9	
209.58	3158.7	
209.79	5023.7	
210.01	4518.5	
210.22	2567.5	
210.43	2669.2	
210.65	4638.6	
210.86	4898.7	
211.07	3045.3	
211.29	2851.5	
211.5	4876.9	
211.71	4574.5	
211.93	2824.1	
212.14	2873.3	
212.35	4605.2	
212.56	4762.2	
212.78	3189.4	
212.99	2663.7	
213.2	5354.8	
213.42	4481	
213.63	2951.8	
213.84	3071.3	
214.06	4235.2	
214.27	4293.2	
214.48	3069.9	
214.69	3192.1	
214.91	5194.3	
215.12	5183.4	
215.33	3251.5	
215.55	3465.2	
215.76	5563	
215.97	4882.4	
216.18	3121.8	
216.4	3124.5	
216.61	4416.1	
216.82	4994.3	
217.04	2889.7	
217.25	2933.4	
217.46	5096.7	
217.67	4916.5	
217.89	2646.7	
218.1	2705.4	
218.31	4786.8	
218.53	4830.5	
218.74	3018	
218.95	2914.3	
219.16	4638	
219.38	5275.6	
219.59	2882.2	
219.8	3334.8	
220.01	5651	
220.23	4681	
220.44	3606.5	
220.65	2789.3	
220.87	4722.6	
221.08	5134.9	
221.29	2708.8	
221.5	3407.8	
221.72	6008.7	
221.93	4394.9	
222.14	3253.5	
222.35	3714.3	
222.57	4614.8	
222.78	4995	
222.99	3028.9	
223.2	3302.7	
223.42	4844.8	
223.63	4959.5	
223.84	2465.8	
224.05	2467.1	
224.27	5582.8	
224.48	5247.6	
224.69	3727.3	
224.9	3221.5	
225.12	4719.9	
225.33	4605.2	
225.54	2650.1	
225.75	2964.8	
225.97	4375.8	
226.18	4616.8	
226.39	3100.6	
226.6	2948.4	
226.82	4502.1	
227.03	4298.7	
227.24	3131.3	
227.45	2746.3	
227.67	4960.9	
227.88	5240.8	
228.09	3519.1	
228.3	3536.8	
228.52	4945.2	
228.73	4616.1	
228.94	2961.4	
229.15	2747	
229.36	4661.2	
229.58	4621.6	
229.79	3007.8	
230	3437.2	
230.21	5364.3	
230.43	4679.6	
230.64	3193.5	
230.85	3277.4	
231.06	5032.5	
231.28	4933.6	
231.49	2695.8	
231.7	3147	
231.91	4864.6	
232.12	4667.3	
232.34	2817.3	
232.55	3102.7	
232.76	5071.5	
232.97	4784.7	
233.18	2841.2	
233.4	3171.6	
233.61	4773.8	
233.82	4522.6	
234.03	3013.9	
234.25	2902	
234.46	6148.7	
234.67	4689.8	
234.88	3261.7	
235.09	2940.9	
235.31	4755.4	
235.52	4579.3	
235.73	3166.2	
235.94	2735.4	
236.15	4457.7	
236.37	5393	
236.58	2883.5	
236.79	3087	
237	4842.1	
237.21	4266.6	
237.43	3330.7	
237.64	2697.2	
237.85	7473.7	
238.06	4361.5	
238.27	3333.4	
238.48	2770.9	
238.7	4874.2	
238.91	4610.7	
239.12	3057.6	
239.33	3208.5	
239.54	4435.2	
239.76	4589.5	
239.97	3061.7	
240.18	3083.6	
240.39	5483.8	
240.6	4771.8	
240.82	3218.7	
241.03	2721.1	
241.24	4638	
241.45	5284.4	
241.66	2870.6	
241.87	3297.2	
242.09	5199.8	
242.3	5395.7	
242.51	3325.2	
242.72	3022.1	
242.93	4979.3	
243.14	4621.6	
243.36	3513.6	
243.57	3809.2	
243.78	5221	
243.99	4914.4	
244.2	3005.7	
244.41	2798.2	
244.63	4293.9	
244.84	4793.6	
245.05	3260.4	
245.26	3053.5	
245.47	4965	
245.68	5000.5	
245.9	3966.2	
246.11	3267.2	
246.32	4461.8	
246.53	4835.9	
246.74	4794.3	
246.95	2687.6	
247.16	4347.2	
247.38	4634.6	
247.59	2695.1	
247.8	3108.1	
248.01	4355.3	
248.22	4622.9	
248.43	2846	
248.64	3050.1	
248.86	4276.8	
249.07	4511.7	
249.28	2856.9	
249.49	3167.5	
249.7	5053	
249.91	5059.8	
250.12	2637.8	
250.34	2757.2	
250.55	4769.7	
250.76	4653.7	
250.97	3220.1	
251.18	3209.2	
251.39	5084.4	
251.6	4727.4	
251.81	3273.3	
252.03	3194.8	
252.24	4521.2	
252.45	4937	
252.66	2770.9	
252.87	3377.1	
253.08	4695.3	
253.29	5726.8	
253.5	2806.4	
253.72	3688.4	
253.93	4609.3	
254.14	5369.1	
254.35	2975	
254.56	2985.3	
254.77	4800.4	
254.98	4405.2	
255.19	3004.4	
255.41	3625.6	
255.62	4818.9	
255.83	5085.1	
256.04	3302	
256.25	3175	
256.46	5507.7	
256.67	4422.9	
256.88	3161.4	
257.09	3450.1	
257.31	4339.6	
257.52	4395.6	
257.73	3919.8	
257.94	2979.8	
258.15	4577.2	
258.36	4612.7	
258.57	3646.7	
258.78	2441.9	
258.99	5016.8	
259.2	4532.2	
259.41	2951.1	
259.63	3052.2	
259.84	5239.4	
260.05	5425.8	
260.26	3753.2	
260.47	2951.1	
260.68	5054.4	
260.89	4604.5	
261.1	3479.5	
261.31	2852.1	
261.52	5167	
261.73	5302.9	
261.95	3670	
262.16	3270.6	
262.37	5125.4	
262.58	5197.7	
262.79	3753.9	
263	3006.4	
263.21	4771.1	
263.42	4231.8	
263.63	3257	
263.84	2975	
264.05	5008	
264.26	5266	
264.47	3578.5	
264.69	3199.6	
264.9	5222.3	
265.11	4820.9	
265.32	2850.1	
265.53	2930	
265.74	4795	
265.95	4199	
266.16	3114.3	
266.37	3454.9	
266.58	4734.9	
266.79	4489.8	
267	2977.7	
267.21	2757.9	
267.42	4353.3	
267.63	4631.8	
267.84	3080.1	
268.06	2742.2	
268.27	5051.7	
268.48	5105.6	
268.69	3064.4	
268.9	3483.6	
269.11	5178.6	
269.32	4225.6	
269.53	3084.2	
269.74	2902	
269.95	4848.9	
270.16	4247.5	
270.37	3087	
270.58	3487.7	
270.79	4540.3	
271	5022.3	
271.21	3217.4	
271.42	3127.2	
271.63	4868.7	
271.84	4295.3	
272.05	2585.9	
272.26	2779.8	
272.47	4644.1	
272.68	4807.3	
272.89	2970.9	
273.11	3335.5	
273.32	4474.8	
273.53	5304.2	
273.74	3263.8	
273.95	3250.8	
274.16	4999.8	
274.37	4618.9	
274.58	3380.5	
274.79	2768.2	
275	4784.1	
275.21	5061.2	
275.42	3979.9	
275.63	3414.6	
275.84	4868.7	
276.05	5863.3	
276.26	3216	
276.47	3040.6	
276.68	4599.7	
276.89	5315.2	
277.1	3442.6	
277.31	2706	
277.52	4883	
277.73	5063.3	
277.94	2740.9	
278.15	3031.7	
278.36	4781.3	
278.57	4422.9	
278.78	2977.7	
278.99	3315	
279.2	4479.6	
279.41	4362.9	
279.62	3832.4	
279.83	2784.6	
280.04	5503.6	
280.25	4376.5	
280.46	3760.1	
280.67	3090.4	
280.88	4429.8	
281.09	5124	
281.3	3256.3	
281.51	3980.6	
281.72	4463.9	
281.93	4983.4	
282.14	2942.2	
282.35	3183.9	
282.56	5000.5	
282.77	4990.9	
282.98	2996.2	
283.19	3610.6	
283.4	5888.6	
283.61	4590.2	
283.82	2808.4	
284.03	3726.6	
284.24	4796.3	
284.45	5054.4	
284.66	3788.1	
284.87	3583.9	
285.08	5130.2	
285.29	5177.3	
285.5	2730.6	
285.71	3047.4	
285.92	5073.5	
286.12	5487.2	
286.33	3681.6	
286.54	3037.8	
286.75	4975.9	
286.96	4614.1	
287.17	2845.3	
287.38	3553.9	
287.59	4539	
287.8	4442	
288.01	3070.6	
288.22	3386.7	
288.43	4911	
288.64	4203.8	
288.85	3553.2	
289.06	3393.5	
289.27	4980	
289.48	5245.5	
289.69	3712.3	
289.9	3429.7	
290.11	5143.8	
290.32	4494.6	
290.53	3491.8	
290.74	3305.4	
290.94	4968.4	
291.15	4999.1	
291.36	2942.9	
291.57	3363.4	
291.78	4528.7	
291.99	4222.9	
292.2	2942.2	
292.41	3310.9	
292.62	5064.6	
292.83	4922	
293.04	3975.8	
293.25	2871.9	
293.46	4541	
293.67	5108.3	
293.88	2876	
294.09	2795.5	
294.29	4388.1	
294.5	4781.3	
294.71	3127.2	
294.92	3022.1	
295.13	4548.5	
295.34	5476.3	
295.55	2714.9	
295.76	2697.9	
295.97	4998.4	
296.18	5442.1	
296.39	2761.3	
296.6	2908.8	
296.81	4694.6	
297.01	4964.3	
297.22	3062.4	
297.43	2919.7	
297.64	4506.9	
297.85	4349.2	
298.06	2499.2	
298.27	2648	
298.48	4650.3	
298.69	4410	
298.9	3162.1	
299.11	2913.6	
299.31	4336.2	
299.52	4352.6	
299.73	3380.5	
299.94	3229	
300.15	4660.5	
300.36	4426.3	
300.57	3287	
300.78	3269.2	
300.99	4607.9	
301.2	4739.7	
301.4	2962.7	
301.61	3142.3	
301.82	4875.5	
302.03	4974.5	
302.24	3476.1	
302.45	2782.5	
302.66	4842.1	
302.87	5068	
303.08	2975.7	
303.29	3872	
303.49	4556.7	
303.7	4610.7	
303.91	2718.3	
304.12	3640.6	
304.33	4293.9	
304.54	4772.4	
304.75	2944.3	
304.96	2841.2	
305.16	4913.1	
305.37	5369.1	
305.58	2649.4	
305.79	2750.4	
306	4876.2	
306.21	4242	
306.42	2940.2	
306.63	4265.9	
306.83	4498.7	
307.04	4984.1	
307.25	3218	
307.46	3175.7	
307.67	4171	
307.88	4944.5	
308.09	2920.4	
308.29	2972.3	
308.5	4693.9	
308.71	5059.2	
308.92	3076	
309.13	2868.5	
309.34	4677.6	
309.55	4628.4	
309.75	3631.7	
309.96	3302.7	
310.17	4950.6	
310.38	4428.4	
310.59	3387.3	
310.8	2831	
311.01	4595	
311.21	4623.6	
311.42	2881.5	
311.63	2942.9	
311.84	4494.6	
312.05	4777.9	
312.26	3259.7	
312.46	3471.3	
312.67	4579.3	
312.88	4305.5	
313.09	2849.4	
313.3	2800.3	
313.51	5188.9	
313.71	5442.1	
313.92	2840.5	
314.13	2964.8	
314.34	4824.3	
314.55	4599.1	
314.76	3538.2	
314.96	3097.9	
315.17	4846.2	
315.38	4808.6	
315.59	2909.5	
315.8	2774.3	
316.01	5220.3	
316.21	5322.7	
316.42	2803.7	
316.63	3145	
316.84	4572.4	
317.05	5082.4	
317.26	3323.9	
317.46	2995.5	
317.67	4664.6	
317.88	4951.3	
318.09	3524.6	
318.3	2737.5	
318.5	4544.4	
318.71	4904.2	
318.92	4293.2	
319.13	3289	
319.34	5030.5	
319.54	5074.9	
319.75	2722.4	
319.96	2605	
320.17	4896.7	
320.38	5048.9	
320.58	2661	
320.79	3084.9	
321	5073.5	
321.21	5162.2	
321.42	3121.8	
321.62	2671.9	
321.83	4421.6	
322.04	4670.1	
322.25	3005.7	
322.46	2845.3	
322.66	4773.1	
322.87	4921.3	
323.08	3410.6	
323.29	2810.5	
323.5	5403.2	
323.7	4343.7	
323.91	3685.7	
324.12	3395.5	
324.33	4694.6	
324.53	4933.6	
324.74	3293.8	
324.95	3385.3	
325.16	4331.5	
325.37	4518.5	
325.57	2833	
325.78	2902.7	
325.99	4807.9	
326.2	4311	
326.4	3925.3	
326.61	2687.6	
326.82	4614.8	
327.03	4764.3	
327.24	3901.4	
327.44	3637.2	
327.65	4898.1	
327.86	4065.2	
328.07	3347.7	
328.27	2749.1	
328.48	5161.6	
328.69	4328	
328.9	3917.1	
329.1	2960.7	
329.31	4605.2	
329.52	5208.7	
329.73	2879.4	
329.93	3105.4	
330.14	4745.8	
330.35	4786.8	
330.56	4426.3	
330.76	3417.4	
330.97	4553.3	
331.18	4700.8	
331.39	3095.8	
331.59	2629.6	
331.8	5042.8	
332.01	5185.5	
332.22	2938.8	
332.42	3294.5	
332.63	4749.9	
332.84	4407.2	
333.05	3198.2	
333.25	2878.1	
333.46	4475.5	
333.67	4618.2	
333.88	3003.7	
334.08	3237.2	
334.29	5946.6	
334.5	5096	
334.7	2830.3	
334.91	3823.6	
335.12	4319.8	
335.33	4905.6	
335.53	3151.8	
335.74	4330.8	
335.95	4609.3	
336.16	4360.1	
336.36	3118.4	
336.57	3557.3	
336.78	4343.1	
336.98	5102.9	
337.19	3742.3	
337.4	3072.6	
337.61	5526.8	
337.81	4283.7	
338.02	2919.7	
338.23	3562.1	
338.43	5274.9	
338.64	4483	
338.85	2884.9	
339.05	3670	
339.26	5283.8	
339.47	4261.1	
339.68	2914.3	
339.88	3995.6	
340.09	4908.3	
340.3	4982	
340.5	3307.5	
340.71	2586.6	
340.92	4352.6	
341.13	5122	
341.33	2766.8	
341.54	3307.5	
341.75	4851.6	
341.95	4481	
342.16	3168.9	
342.37	3403	
342.57	4343.1	
342.78	4593.6	
342.99	3448.1	
343.19	2628.2	
343.4	4991.6	
343.61	4860.5	
343.81	3029.6	
344.02	2796.2	
344.23	4994.3	
344.43	5188.9	
344.64	3473.4	
344.85	3368.9	
345.06	4898.1	
345.26	5072.1	
345.47	3309.5	
345.68	3672.7	
345.88	4234.5	
346.09	5073.5	
346.3	3319.1	
346.5	2561.3	
346.71	4577.2	
346.92	4407.2	
347.12	2757.2	
347.33	3180.5	
347.54	5013.4	
347.74	5341.1	
347.95	3244	
348.16	2543.6	
348.36	4497.3	
348.57	4351.3	
348.78	3235.8	
348.98	3414.6	
349.19	4616.1	
349.39	4247.5	
349.6	2726.5	
349.81	2910.2	
350.01	4881	
350.22	4441.4	
350.43	3187.3	
350.63	3656.3	
350.84	4744.5	
351.05	4501.4	
351.25	2882.9	
351.46	2709.5	
351.67	5058.5	
351.87	4396.3	
352.08	3099.3	
352.29	3474.7	
352.49	4977.9	
352.7	4982	
352.9	2835.8	
353.11	3444	
353.32	5468.8	
353.52	4539	
353.73	2801.6	
353.94	3461.1	
354.14	4888.5	
354.35	4696	
354.55	2897.2	
354.76	3186.6	
354.97	4866	
355.17	4702.8	
355.38	2801.6	
355.59	3725.3	
355.79	4506.9	
356	4702.8	
356.2	3196.9	
356.41	2848	
356.62	4335.5	
356.82	4715.8	
357.03	3362.8	
357.24	3072.6	
357.44	4486.4	
357.65	4588.1	
357.85	3948.5	
358.06	3268.6	
358.27	4266.6	
358.47	4416.1	
358.68	2784.6	
358.88	3404.4	
359.09	4905.6	
359.3	5145.9	
359.5	3900.7	
359.71	3508.2	
359.91	5483.1	
360.12	5014.8	
360.33	3467.9	
360.53	3775.8	
360.74	4536.9	
360.94	4705.5	
361.15	3589.4	
361.36	3003.7	
361.56	5110.4	
361.77	4712.4	
361.97	3941	
362.18	3258.3	
362.38	5228.5	
362.59	4478.2	
362.8	3080.1	
363	2908.1	
363.21	4340.3	
363.41	4824.3	
363.62	3425.6	
363.83	4132.8	
364.03	5028.4	
364.24	5569.1	
364.44	4311.7	
364.65	4265.9	
364.85	4812	
365.06	4549.9	
365.27	3197.6	
365.47	3274	
365.68	5524.1	
365.88	4769.7	
366.09	3495.9	
366.29	3270.6	
366.5	4922.6	
366.71	5292.6	
366.91	4183.3	
367.12	3700	
367.32	5776.6	
367.53	5181.4	
367.73	3689.1	
367.94	4385.4	
368.14	5234.6	
368.35	5732.9	
368.56	3616.7	
368.76	3420.8	
368.97	5319.9	
369.17	6337.1	
369.38	3257.6	
369.58	3444	
369.79	4511	
369.99	5550	
370.2	4160.8	
370.4	3568.9	
370.61	5004.6	
370.82	5919.3	
371.02	3464.5	
371.23	2932	
371.43	4531.5	
371.64	5515.2	
371.84	3528.7	
372.05	4360.1	
372.25	6423.1	
372.46	5261.9	
372.66	3590.8	
372.87	3532.1	
373.07	5418.2	
373.28	6578.1	
373.48	4317.1	
373.69	4104.1	
373.9	5086.5	
374.1	5082.4	
374.31	4292.5	
374.51	3983.3	
374.72	5651	
374.92	4841.4	
375.13	4539	
375.33	3887.7	
375.54	5414.8	
375.74	5025.7	
375.95	4027.7	
376.15	4879.6	
376.36	5554.1	
376.56	5380	
376.77	4101.4	
376.97	4365.6	
377.18	6386.2	
377.38	5651.7	
377.59	4768.4	
377.79	3845.4	
378	5538.4	
378.2	5866.7	
378.41	3992.9	
378.61	3846.1	
378.82	5887.9	
379.02	5291.3	
379.23	4063.9	
379.43	4838	
379.64	6131.6	
379.84	5762.3	
380.05	3925.3	
380.25	3842.7	
380.46	5827.2	
380.66	5434.6	
380.87	4934.2	
381.07	5150.6	
381.28	6272.2	
381.48	5814.2	
381.69	3978.5	
381.89	3965.6	
382.1	5029.1	
382.3	5821	
382.51	4736.3	
382.71	5418.2	
382.91	5730.9	
383.12	6063.4	
383.32	4143	
383.53	4246.8	
383.73	5608.7	
383.94	5454.4	
384.14	4319.2	
384.35	3582.6	
384.55	5356.8	
384.76	5707	
384.96	4205.2	
385.17	4366.3	
385.37	5737.7	
385.58	5077.6	
385.78	4323.3	
385.98	3461.1	
386.19	5313.8	
386.39	5603.9	
386.6	3946.4	
386.8	4057.7	
387.01	5752.1	
387.21	5808.7	
387.42	4412.7	
387.62	4908.3	
387.83	5335.6	
388.03	5640.8	
388.23	4343.7	
388.44	4878.3	
388.64	5121.3	
388.85	5283.1	
389.05	4648.9	
389.26	5063.3	
389.46	6791.7	
389.67	6354.2	
389.87	4744.5	
390.07	4698	
390.28	5689.9	
390.48	5380.7	
390.69	4177.9	
390.89	4354.7	
391.1	5565.7	
391.3	6189	
391.5	5218.9	
391.71	5569.8	
391.91	6098.2	
392.12	6740.5	
392.32	5339.1	
392.53	4672.8	
392.73	5638.7	
392.93	5713.2	
393.14	4468.7	
393.34	5004.6	
393.55	6113.2	
393.75	5672.9	
393.95	4363.5	
394.16	4296.6	
394.36	5485.8	
394.57	5988.9	
394.77	4082.3	
394.98	4335.5	
395.18	5526.1	
395.38	5665.4	
395.59	5134.3	
395.79	4371	
396	5870.8	
396.2	6158.9	
396.4	5085.1	
396.61	5084.4	
396.81	6238.1	
397.02	5916.6	
397.22	5330.2	
397.42	5338.4	
397.63	6501.6	
397.83	5889.3	
398.04	4655	
398.24	5020.9	
398.44	6305	
398.65	5620.3	
398.85	4500.1	
399.05	4552	
399.26	6017.6	
399.46	7161.7	
399.67	4978.6	
399.87	4730.8	
400.07	6299.6	
400.28	6547.4	
400.48	4898.7	
400.69	5654.4	
400.89	6829.3	
401.09	7193.1	
401.3	4902.2	
401.5	5699.5	
401.7	7387	
401.91	7495.6	
402.11	5300.8	
402.32	5352.7	
402.52	6954.2	
402.72	6749.4	
402.93	5435.3	
403.13	4485.1	
403.33	7222.5	
403.54	6069.5	
403.74	4922.6	
403.94	5439.4	
404.15	6126.2	
404.35	6902.3	
404.56	4744.5	
404.76	6079.7	
404.96	6554.2	
405.17	6434	
405.37	6062.7	
405.57	5349.3	
405.78	6871.6	
405.98	6389.7	
406.18	5113.1	
406.39	5664	
406.59	6739.9	
406.79	6357.6	
407	4769	
407.2	4838	
407.4	6862.1	
407.61	6822.5	
407.81	4889.9	
408.01	6507.1	
408.22	6144.6	
408.42	7620.5	
408.62	6196.5	
408.83	5876.3	
409.03	7074.4	
409.23	7039.6	
409.44	6064.7	
409.64	6278.4	
409.84	8023.9	
410.05	8045.1	
410.25	6436.8	
410.45	6247	
410.66	7813.7	
410.86	9524.4	
411.06	6858	
411.27	6646.3	
411.47	9697.1	
411.67	8074.5	
411.88	6926.9	
412.08	7292.8	
412.28	8664.3	
412.49	9016.5	
412.69	7015	
412.89	7132.4	
413.09	8962.6	
413.3	8985.1	
413.5	7232.1	
413.7	6996.5	
413.91	8376.2	
414.11	9124.4	
414.31	7154.9	
414.52	7516.7	
414.72	9001.5	
414.92	8940.1	
415.12	7163.1	
415.33	7705.1	
415.53	9299.1	
415.73	9363.3	
415.94	7871.7	
416.14	7515.4	
416.34	8687.5	
416.55	8387.8	
416.75	8384.4	
416.95	8072.4	
417.15	9539.4	
417.36	9822.7	
417.56	8643.1	
417.76	8134.5	
417.97	9755.2	
418.17	9641.2	
418.37	7881.9	
418.57	7912	
418.78	9627.5	
418.98	9215.9	
419.18	8542.1	
419.38	8408.3	
419.59	9103.9	
419.79	8778.3	
419.99	7714	
420.2	7843.7	
420.4	9600.9	
420.6	9545.6	
420.8	7813.7	
421.01	7602.1	
421.21	9663	
421.41	9680.1	
421.61	7968	
421.82	7838.3	
422.02	9357.2	
422.22	9857.6	
422.42	8450.6	
422.63	7919.5	
422.83	9297.1	
423.03	10162	
423.23	8025.3	
423.44	7292.8	
423.64	9258.9	
423.84	8871.8	
424.04	7620.5	
424.25	7398.6	
424.45	9750.4	
424.65	9598.1	
424.85	7182.2	
425.06	7608.2	
425.26	9920.4	
425.46	9039.1	
425.66	7866.9	
425.87	7730.4	
426.07	9592	
426.27	9309.4	
426.47	7787.7	
426.67	7266.9	
426.88	9607	
427.08	9309.4	
427.28	8118.8	
427.48	7103.7	
427.69	8580.3	
427.89	8965.3	
428.09	7818.5	
428.29	7236.2	
428.5	9374.9	
428.7	9255.5	
428.9	7277.1	
429.1	7641	
429.3	9209	
429.51	9482.1	
429.71	7526.3	
429.91	8221.9	
430.11	9592	
430.31	9900.6	
430.52	7871.7	
430.72	8251.9	
430.92	10086	
431.12	9675.3	
431.32	7607.5	
431.53	7868.3	
431.73	8800.1	
431.93	9956.5	
432.13	7631.4	
432.33	7649.8	
432.54	9308	
432.74	9431.6	
432.94	7679.9	
433.14	8334.6	
433.34	9805.7	
433.55	9668.5	
433.75	8424	
433.95	9819.3	
434.15	9757.2	
434.35	9538.8	
434.56	7904.5	
434.76	7692.2	
434.96	9834.3	
435.16	10014	
435.36	7969.3	
435.56	8964.6	
435.77	9714.9	
435.97	9794.1	
436.17	9392.7	
436.37	8933.2	
436.57	9656.2	
436.78	9921.7	
436.98	8747.6	
437.18	9286.9	
437.38	10509	
437.58	9818.6	
437.78	9430.9	
437.99	8294.3	
438.19	10182	
438.39	11122	
438.59	8204.8	
438.79	7653.9	
438.99	10451	
439.2	9592	
439.4	7600	
439.6	7879.2	
439.8	9944.3	
440	10918	
440.2	8955.1	
440.4	9131.9	
440.61	10763	
440.81	11144	
441.01	8895	
441.21	9574.3	
441.41	11337	
441.61	10920	
441.81	9815.2	
442.02	10380	
442.22	11611	
442.42	11005	
442.62	8895	
442.82	8774.2	
443.02	11512	
443.22	10869	
443.43	9334	
443.63	9005.6	
443.83	10564	
444.03	10611	
444.23	10225	
444.43	9800.2	
444.63	11211	
444.83	11825	
445.04	9476.6	
445.24	10221	
445.44	11240	
445.64	11304	
445.84	9564	
446.04	9684.2	
446.24	10419	
446.44	11261	
446.65	8817.2	
446.85	9331.2	
447.05	10460	
447.25	11185	
447.45	9247.9	
447.65	8830.8	
447.85	10797	
448.05	10245	
448.25	9585.2	
448.46	9415.9	
448.66	10821	
448.86	10460	
449.06	8939.4	
449.26	9680.7	
449.46	11075	
449.66	10480	
449.86	9568.8	
450.06	9442.5	
450.26	10748	
450.47	11142	
450.67	9529.2	
450.87	9798.8	
451.07	11393	
451.27	11127	
451.47	9065.7	
451.67	9893.7	
451.87	10930	
452.07	11514	
452.27	9566.1	
452.47	9468.4	
452.67	11206	
452.88	11373	
453.08	8852	
453.28	10348	
453.48	12020	
453.68	10836	
453.88	9407	
454.08	9503.9	
454.28	11399	
454.48	11120	
454.68	9955.2	
454.88	10260	
455.08	11527	
455.28	11654	
455.48	9324.4	
455.68	10082	
455.89	12179	
456.09	11955	
456.29	9819.3	
456.49	10140	
456.69	12275	
456.89	11473	
457.09	10462	
457.29	10920	
457.49	12026	
457.69	12236	
457.89	10775	
458.09	10118	
458.29	12166	
458.49	12766	
458.69	11119	
458.89	10741	
459.09	13069	
459.29	13019	
459.49	10711	
459.69	11294	
459.9	12575	
460.1	12489	
460.3	10546	
460.5	10461	
460.7	12617	
460.9	12293	
461.1	10303	
461.3	11348	
461.5	13482	
461.7	13168	
461.9	11145	
462.1	11232	
462.3	12997	
462.5	13276	
462.7	11332	
462.9	11490	
463.1	14190	
463.3	14231	
463.5	11727	
463.7	12619	
463.9	13693	
464.1	13782	
464.3	12435	
464.5	12243	
464.7	14132	
464.9	14252	
465.1	13181	
465.3	12533	
465.5	14402	
465.7	14478	
465.9	13057	
466.1	12458	
466.3	14690	
466.5	14136	
466.7	13719	
466.9	12650	
467.1	14550	
467.3	15111	
467.5	13790	
467.7	13013	
467.9	15416	
468.1	16038	
468.3	13402	
468.5	14015	
468.7	14674	
468.9	14770	
469.1	13392	
469.3	13902	
469.5	16352	
469.7	14738	
469.9	13727	
470.1	13430	
470.3	15061	
470.5	15021	
470.7	14270	
470.9	13249	
471.1	14850	
471.3	14681	
471.5	13269	
471.69	14293	
471.89	14653	
472.09	14223	
472.29	13738	
472.49	13481	
472.69	14446	
472.89	14767	
473.09	13021	
473.29	12844	
473.49	14423	
473.69	14210	
473.89	13448	
474.09	12957	
474.29	15279	
474.49	14914	
474.69	13532	
474.89	13085	
475.09	14360	
475.29	14437	
475.49	12584	
475.69	12949	
475.88	15305	
476.08	14683	
476.28	12633	
476.48	12596	
476.68	14680	
476.88	14387	
477.08	12476	
477.28	12814	
477.48	13947	
477.68	14386	
477.88	12402	
478.08	12682	
478.28	15038	
478.48	14235	
478.67	12854	
478.87	12079	
479.07	14992	
479.27	14274	
479.47	12809	
479.67	12823	
479.87	14741	
480.07	14919	
480.27	12423	
480.47	13568	
480.67	14360	
480.87	15040	
481.06	12691	
481.26	13363	
481.46	14410	
481.66	14377	
481.86	12994	
482.06	13579	
482.26	14091	
482.46	14698	
482.66	12857	
482.86	12540	
483.05	14623	
483.25	14007	
483.45	14537	
483.65	13018	
483.85	14258	
484.05	14582	
484.25	13319	
484.45	13897	
484.65	15026	
484.84	15425	
485.04	12912	
485.24	13157	
485.44	15644	
485.64	14401	
485.84	12919	
486.04	13758	
486.24	14822	
486.44	14870	
486.63	12700	
486.83	13558	
487.03	14894	
487.23	15124	
487.43	12942	
487.63	14653	
487.83	15132	
488.02	15824	
488.22	13986	
488.42	14493	
488.62	15798	
488.82	15109	
489.02	13583	
489.22	13751	
489.41	15623	
489.61	15744	
489.81	13465	
490.01	13640	
490.21	15889	
490.41	16360	
490.61	13730	
490.8	13549	
491	15472	
491.2	14846	
491.4	13799	
491.6	13267	
491.8	15072	
491.99	14863	
492.19	12994	
492.39	13078	
492.59	15510	
492.79	15628	
492.99	14121	
493.18	13682	
493.38	16077	
493.58	16785	
493.78	14475	
493.98	14072	
494.18	16231	
494.37	15995	
494.57	15017	
494.77	14961	
494.97	16771	
495.17	17099	
495.37	14926	
495.56	15171	
495.76	17414	
495.96	17351	
496.16	16186	
496.36	15356	
496.55	17446	
496.75	17225	
496.95	15496	
497.15	15670	
497.35	17253	
497.54	17388	
497.74	15410	
497.94	16550	
498.14	17907	
498.34	17805	
498.53	15440	
498.73	16028	
498.93	17185	
499.13	17626	
499.33	16098	
499.52	16244	
499.72	18081	
499.92	18035	
500.12	15917	
500.32	16128	
500.51	17985	
500.71	18068	
500.91	16677	
501.11	16323	
501.31	17972	
501.5	18254	
501.7	16973	
501.9	16225	
502.1	17845	
502.29	18053	
502.49	16702	
502.69	16655	
502.89	17877	
503.09	18039	
503.28	15401	
503.48	15491	
503.68	17120	
503.88	17094	
504.07	16201	
504.27	15712	
504.47	17476	
504.67	17457	
504.86	16220	
505.06	15834	
505.26	17147	
505.46	18026	
505.65	15553	
505.85	15689	
506.05	16767	
506.25	17019	
506.44	14829	
506.64	15389	
506.84	16407	
507.04	16933	
507.23	15045	
507.43	15241	
507.63	17846	
507.83	16680	
508.02	15401	
508.22	15057	
508.42	18157	
508.62	16580	
508.81	14982	
509.01	15501	
509.21	16178	
509.4	16540	
509.6	15266	
509.8	14861	
510	16492	
510.19	17466	
510.39	14922	
510.59	14973	
510.79	16675	
510.98	17516	
511.18	15077	
511.38	15023	
511.57	17096	
511.77	17044	
511.97	15270	
512.17	14665	
512.36	16866	
512.56	16636	
512.76	14688	
512.95	14457	
513.15	17152	
513.35	15984	
513.55	15437	
513.74	14771	
513.94	16806	
514.14	16562	
514.33	15556	
514.53	15376	
514.73	16518	
514.92	16664	
515.12	14825	
515.32	14855	
515.51	16702	
515.71	16920	
515.91	16152	
516.11	14910	
516.3	18093	
516.5	16654	
516.7	15294	
516.89	15778	
517.09	16651	
517.29	16566	
517.48	15693	
517.68	15096	
517.88	16296	
518.07	16902	
518.27	15554	
518.47	14796	
518.66	17200	
518.86	16278	
519.06	14592	
519.25	14995	
519.45	16449	
519.65	17832	
519.84	15511	
520.04	16062	
520.24	18026	
520.43	16934	
520.63	15091	
520.83	14914	
521.02	16147	
521.22	16559	
521.42	14949	
521.61	15535	
521.81	16287	
522.01	16482	
522.2	15072	
522.4	14988	
522.6	16925	
522.79	16139	
522.99	15020	
523.18	14881	
523.38	17081	
523.58	17129	
523.77	16616	
523.97	15180	
524.17	18766	
524.36	18236	
524.56	16665	
524.76	16158	
524.95	17832	
525.15	17507	
525.34	16226	
525.54	16364	
525.74	18277	
525.93	17696	
526.13	17464	
526.33	16760	
526.52	18886	
526.72	18224	
526.91	17537	
527.11	17125	
527.31	18770	
527.5	19019	
527.7	17195	
527.89	16587	
528.09	18275	
528.29	18856	
528.48	17746	
528.68	17335	
528.87	19046	
529.07	18901	
529.27	17100	
529.46	16904	
529.66	18938	
529.85	19088	
530.05	16738	
530.25	17278	
530.44	19837	
530.64	18480	
530.83	16988	
531.03	17271	
531.23	19231	
531.42	18951	
531.62	17979	
531.81	17490	
532.01	19534	
532.21	20003	
532.4	17784	
532.6	18099	
532.79	20605	
532.99	20142	
533.18	18366	
533.38	19030	
533.58	20035	
533.77	20099	
533.97	18393	
534.16	19084	
534.36	20766	
534.55	20174	
534.75	19325	
534.95	18663	
535.14	21085	
535.34	20153	
535.53	18318	
535.73	19579	
535.92	21097	
536.12	20024	
536.31	18174	
536.51	19202	
536.71	20133	
536.9	19806	
537.1	18196	
537.29	18537	
537.49	20549	
537.68	19864	
537.88	18931	
538.07	18283	
538.27	20306	
538.46	20978	
538.66	18272	
538.86	18557	
539.05	20272	
539.25	20650	
539.44	19161	
539.64	18537	
539.83	20090	
540.03	20827	
540.22	18252	
540.42	18214	
540.61	19885	
540.81	20221	
541	18379	
541.2	19106	
541.39	19618	
541.59	19960	
541.78	18975	
541.98	18004	
542.18	19478	
542.37	19270	
542.57	18142	
542.76	18625	
542.96	19158	
543.15	19637	
543.35	17826	
543.54	17326	
543.74	19336	
543.93	19233	
544.13	17615	
544.32	18254	
544.52	19277	
544.71	18708	
544.91	17038	
545.1	17721	
545.3	18910	
545.49	19249	
545.69	16933	
545.88	17358	
546.08	19992	
546.27	19478	
546.47	17482	
546.66	17018	
546.86	19153	
547.05	19745	
547.24	17118	
547.44	17182	
547.63	18473	
547.83	19179	
548.02	17225	
548.22	17344	
548.41	18243	
548.61	19138	
548.8	16780	
549	16873	
549.19	18548	
549.39	18755	
549.58	16500	
549.78	16987	
549.97	18816	
550.17	18354	
550.36	17280	
550.55	17999	
550.75	18453	
550.94	18707	
551.14	16305	
551.33	16510	
551.53	17791	
551.72	18365	
551.92	16593	
552.11	16535	
552.31	18412	
552.5	18220	
552.69	17613	
552.89	16114	
553.08	18361	
553.28	17927	
553.47	16309	
553.67	17163	
553.86	18534	
554.06	17310	
554.25	15532	
554.44	16105	
554.64	18924	
554.83	18675	
555.03	16102	
555.22	16356	
555.42	18105	
555.61	17897	
555.8	16027	
556	16242	
556.19	17208	
556.39	18028	
556.58	16023	
556.78	15942	
556.97	17812	
557.16	17550	
557.36	16800	
557.55	15720	
557.75	16971	
557.94	18363	
558.13	15744	
558.33	15671	
558.52	18103	
558.72	17306	
558.91	15483	
559.1	15730	
559.3	16909	
559.49	16447	
559.69	15284	
559.88	16004	
560.07	17300	
560.27	17787	
560.46	16030	
560.66	16135	
560.85	17275	
561.04	16418	
561.24	15193	
561.43	15231	
561.63	16739	
561.82	16886	
562.01	16198	
562.21	15606	
562.4	16966	
562.59	17798	
562.79	15488	
562.98	15271	
563.18	17446	
563.37	18343	
563.56	15872	
563.76	15470	
563.95	17022	
564.14	16784	
564.34	15715	
564.53	15353	
564.73	17388	
564.92	17657	
565.11	15894	
565.31	15523	
565.5	17845	
565.69	17064	
565.89	15714	
566.08	15724	
566.27	17601	
566.47	18130	
566.66	16318	
566.85	15384	
567.05	17664	
567.24	17114	
567.44	15588	
567.63	16496	
567.82	17744	
568.02	17323	
568.21	15622	
568.4	15727	
568.6	17441	
568.79	17406	
568.98	15547	
569.18	15597	
569.37	17531	
569.56	18844	
569.76	16127	
569.95	16585	
570.14	17776	
570.34	17796	
570.53	15672	
570.72	15573	
570.91	18184	
571.11	17402	
571.3	15936	
571.49	16500	
571.69	17598	
571.88	16989	
572.07	16412	
572.27	16296	
572.46	17211	
572.65	17844	
572.85	15819	
573.04	16106	
573.23	18174	
573.43	17540	
573.62	15851	
573.81	16270	
574	17901	
574.2	17713	
574.39	16295	
574.58	16223	
574.78	18768	
574.97	18160	
575.16	16712	
575.36	16737	
575.55	18460	
575.74	18531	
575.93	16116	
576.13	17059	
576.32	17916	
576.51	18490	
576.71	16559	
576.9	17546	
577.09	18699	
577.28	18392	
577.48	16746	
577.67	16039	
577.86	18009	
578.05	18442	
578.25	16576	
578.44	16669	
578.63	18097	
578.83	18995	
579.02	16130	
579.21	17305	
579.4	18348	
579.6	18222	
579.79	16619	
579.98	18284	
580.17	18461	
580.37	18729	
580.56	16268	
580.75	16870	
580.94	18843	
581.14	18803	
581.33	17290	
581.52	16413	
581.71	18479	
581.91	19094	
582.1	16432	
582.29	16713	
582.48	18285	
582.68	18277	
582.87	17023	
583.06	16748	
583.25	18634	
583.45	18340	
583.64	17403	
583.83	17841	
584.02	18250	
584.21	18601	
584.41	17091	
584.6	16844	
584.79	18285	
584.98	18826	
585.18	16542	
585.37	16437	
585.56	18103	
585.75	18586	
585.94	16337	
586.14	16963	
586.33	18634	
586.52	18096	
586.71	16599	
586.91	16436	
587.1	17438	
587.29	18070	
587.48	16051	
587.67	16065	
587.87	17952	
588.06	17818	
588.25	16921	
588.44	16385	
588.63	17436	
588.83	17927	
589.02	15865	
589.21	15458	
589.4	17083	
589.59	16989	
589.78	14797	
589.98	14646	
590.17	16076	
590.36	16204	
590.55	13680	
590.74	14098	
590.94	16758	
591.13	15810	
591.32	13931	
591.51	13768	
591.7	16339	
591.89	15967	
592.09	14065	
592.28	14252	
592.47	15530	
592.66	16765	
592.85	13943	
593.05	14100	
593.24	15898	
593.43	16527	
593.62	14229	
593.81	14532	
594	16075	
594.19	15954	
594.39	14177	
594.58	14002	
594.77	16161	
594.96	16368	
595.15	13987	
595.34	14336	
595.54	15916	
595.73	15283	
595.92	13396	
596.11	14048	
596.3	16118	
596.49	15272	
596.68	13820	
596.88	14171	
597.07	15948	
597.26	15038	
597.45	13582	
597.64	14399	
597.83	15346	
598.02	15651	
598.22	13687	
598.41	14057	
598.6	15459	
598.79	14969	
598.98	13488	
599.17	14213	
599.36	15573	
599.55	16178	
599.74	14957	
599.94	14863	
600.13	15864	
600.32	15016	
600.51	13360	
600.7	13398	
600.89	16199	
601.08	16254	
601.27	13232	
601.47	13803	
601.66	15668	
601.85	16089	
602.04	13706	
602.23	13691	
602.42	15015	
602.61	15366	
602.8	13306	
602.99	13368	
603.18	15109	
603.37	15169	
603.57	13616	
603.76	14137	
603.95	15859	
604.14	15487	
604.33	13389	
604.52	13550	
604.71	15315	
604.9	15042	
605.09	13918	
605.28	13764	
605.47	15718	
605.66	15365	
605.86	13758	
606.05	13261	
606.24	15687	
606.43	14502	
606.62	13623	
606.81	13943	
607	15347	
607.19	14921	
607.38	12938	
607.57	13170	
607.76	14731	
607.95	14216	
608.14	13487	
608.33	13738	
608.52	14638	
608.72	15369	
608.91	12794	
609.1	12806	
609.29	14526	
609.48	14316	
609.67	13342	
609.86	12709	
610.05	14332	
610.24	14402	
610.43	12743	
610.62	12350	
610.81	15289	
611	15173	
611.19	12691	
611.38	13065	
611.57	14640	
611.76	15474	
611.95	12467	
612.14	12312	
612.33	14485	
612.52	14168	
612.71	12850	
612.9	12205	
613.09	13859	
613.28	15563	
613.47	12538	
613.66	13223	
613.85	14579	
614.04	14148	
614.24	12632	
614.43	12045	
614.62	14553	
614.81	14515	
615	12899	
615.19	12925	
615.38	14095	
615.57	14395	
615.76	13062	
615.95	13588	
616.14	14632	
616.33	14429	
616.52	13020	
616.71	13213	
616.9	14629	
617.09	14584	
617.28	12755	
617.47	13486	
617.66	14016	
617.85	14052	
618.04	13444	
618.22	13014	
618.41	14478	
618.6	15224	
618.79	13117	
618.98	13074	
619.17	15383	
619.36	14083	
619.55	13253	
619.74	13202	
619.93	15003	
620.12	14599	
620.31	13590	
620.5	13926	
620.69	15537	
620.88	15810	
621.07	14253	
621.26	13758	
621.45	15343	
621.64	15279	
621.83	13857	
622.02	13246	
622.21	15357	
622.4	15161	
622.59	14258	
622.78	14218	
622.97	15046	
623.16	15652	
623.35	13867	
623.54	13209	
623.72	15116	
623.91	15255	
624.1	14130	
624.29	13132	
624.48	16006	
624.67	15633	
624.86	14048	
625.05	13297	
625.24	16031	
625.43	15140	
625.62	15262	
625.81	13505	
626	15711	
626.19	15212	
626.38	13968	
626.56	13575	
626.75	15033	
626.94	15711	
627.13	14197	
627.32	13087	
627.51	15561	
627.7	16358	
627.89	13142	
628.08	14066	
628.27	14786	
628.46	15022	
628.65	13404	
628.83	13115	
629.02	15392	
629.21	14740	
629.4	13635	
629.59	13649	
629.78	14887	
629.97	15487	
630.16	13828	
630.35	13513	
630.54	15961	
630.72	15548	
630.91	13522	
631.1	13739	
631.29	15321	
631.48	15277	
631.67	13907	
631.86	13359	
632.05	15167	
632.24	15036	
632.42	13124	
632.61	13614	
632.8	14954	
632.99	14672	
633.18	13817	
633.37	13868	
633.56	15190	
633.75	15145	
633.93	13762	
634.12	13451	
634.31	15715	
634.5	15558	
634.69	13641	
634.88	13790	
635.07	15122	
635.25	15423	
635.44	14106	
635.63	14123	
635.82	14872	
636.01	14384	
636.2	13961	
636.39	13654	
636.57	15694	
636.76	15229	
636.95	13315	
637.14	14169	
637.33	15240	
637.52	15648	
637.7	13052	
637.89	13766	
638.08	14845	
638.27	15674	
638.46	13748	
638.65	13835	
638.83	15793	
639.02	14622	
639.21	13503	
639.4	13804	
639.59	14753	
639.78	14517	
639.96	12804	
640.15	12798	
640.34	14634	
640.53	14640	
640.72	12608	
640.91	12873	
641.09	14014	
641.28	14831	
641.47	12770	
641.66	13388	
641.85	14630	
642.03	14582	
642.22	13093	
642.41	12675	
642.6	13945	
642.79	13597	
642.97	12439	
643.16	12943	
643.35	13870	
643.54	13620	
643.73	12280	
643.91	12831	
644.1	13420	
644.29	14038	
644.48	12082	
644.67	12135	
644.85	13437	
645.04	13734	
645.23	11682	
645.42	11940	
645.6	13307	
645.79	13903	
645.98	11712	
646.17	11000	
646.36	12751	
646.54	13038	
646.73	11793	
646.92	11140	
647.11	12693	
647.29	13308	
647.48	11099	
647.67	10806	
647.86	13532	
648.05	13531	
648.23	11190	
648.42	12060	
648.61	12876	
648.8	12825	
648.98	10899	
649.17	11090	
649.36	12344	
649.55	12138	
649.73	10899	
649.92	11475	
650.11	12392	
650.3	12607	
650.48	11013	
650.67	10781	
650.86	12641	
651.05	11943	
651.23	10771	
651.42	10832	
651.61	12265	
651.79	12084	
651.98	11004	
652.17	10591	
652.36	12318	
652.54	11785	
652.73	10645	
652.92	10466	
653.11	12403	
653.29	12462	
653.48	10135	
653.67	10694	
653.85	12103	
654.04	12843	
654.23	10574	
654.42	10302	
654.6	11434	
654.79	11810	
654.98	9637.7	
655.16	9919	
655.35	10937	
655.54	10646	
655.73	9465.7	
655.91	9318.3	
656.1	11523	
656.29	10818	
656.47	9318.3	
656.66	10522	
656.85	11176	
657.03	11241	
657.22	9781.8	
657.41	9874.6	
657.59	11353	
657.78	11306	
657.97	9672.6	
658.16	10279	
658.34	11895	
658.53	12107	
658.72	10770	
658.9	11183	
659.09	11544	
659.28	11607	
659.46	9914.9	
659.65	9886.2	
659.84	11413	
660.02	11766	
660.21	10046	
660.4	9812.5	
660.58	11888	
660.77	11478	
660.96	10340	
661.14	9537.4	
661.33	12351	
661.52	12342	
661.7	9505.3	
661.89	11883	
662.08	11143	
662.26	10814	
662.45	9620.7	
662.64	9815.9	
662.82	11632	
663.01	10968	
663.2	9772.2	
663.38	10159	
663.57	11540	
663.75	11404	
663.94	9983.2	
664.13	10778	
664.31	11083	
664.5	11614	
664.69	10141	
664.87	10285	
665.06	11004	
665.25	11289	
665.43	10514	
665.62	10630	
665.8	11484	
665.99	10963	
666.18	9789.3	
666.36	9820.7	
666.55	11376	
666.74	11437	
666.92	9488.9	
667.11	10552	
667.29	11065	
667.48	11321	
667.67	10299	
667.85	9604.3	
668.04	10789	
668.22	10958	
668.41	9723.8	
668.6	9825.5	
668.78	10798	
668.97	11023	
669.15	9911.5	
669.34	9168.1	
669.53	10741	
669.71	10985	
669.9	9198.1	
670.08	9725.8	
670.27	10678	
670.46	11174	
670.64	9994.1	
670.83	10023	
671.01	10628	
671.2	10968	
671.38	9459.6	
671.57	9239.1	
671.76	11569	
671.94	11945	
672.13	9219.3	
672.31	9849.4	
672.5	11303	
672.69	10738	
672.87	9288.9	
673.06	9545.6	
673.24	11286	
673.43	10793	
673.61	9741.5	
673.8	9512.1	
673.98	11170	
674.17	11302	
674.36	9816.6	
674.54	9818	
674.73	10963	
674.91	11178	
675.1	9680.1	
675.28	9264.3	
675.47	10923	
675.65	11164	
675.84	9478.7	
676.03	9620	
676.21	10709	
676.4	10299	
676.58	9957.9	
676.77	9820	
676.95	11761	
677.14	10641	
677.32	9100.5	
677.51	9172.9	
677.69	11159	
677.88	10411	
678.06	9127.8	
678.25	9215.9	
678.44	10840	
678.62	10613	
678.81	9031.5	
678.99	9693.7	
679.18	11344	
679.36	11077	
679.55	9370.1	
679.73	9841.2	
679.92	11045	
680.1	10544	
680.29	10309	
680.47	9370.1	
680.66	10547	
680.84	11219	
681.03	8898.4	
681.21	9485.5	
681.4	10613	
681.58	10458	
681.77	9232.9	
681.95	9129.8	
682.14	11199	
682.32	11458	
682.51	9820.7	
682.69	8847.2	
682.88	10495	
683.06	10777	
683.25	9552.4	
683.43	9818.6	
683.62	10740	
683.8	10938	
683.99	9853.5	
684.17	9247.9	
684.36	11417	
684.54	10432	
684.73	8552.3	
684.91	8598.7	
685.1	10421	
685.28	9733.3	
685.46	8694.3	
685.65	8610.3	
685.83	10161	
686.02	9821.4	
686.2	8226	
686.39	8387.8	
686.57	9681.4	
686.76	10781	
686.94	8472.4	
687.13	8544.1	
687.31	10170	
687.5	10028	
687.68	8242.4	
687.86	9099.1	
688.05	11262	
688.23	9732.6	
688.42	9155.8	
688.6	8634.2	
688.79	10072	
688.97	10109	
689.16	9096.4	
689.34	8329.1	
689.52	10646	
689.71	10854	
689.89	9351	
690.08	8772.1	
690.26	10477	
690.45	10224	
690.63	9405.6	
690.81	9098.4	
691	10325	
691.18	10178	
691.37	9075.2	
691.55	10446	
691.74	10074	
691.92	11499	
692.1	8970.1	
692.29	8603.5	
692.47	10224	
692.66	9817.3	
692.84	8795.3	
693.02	9039.7	
693.21	9974.3	
693.39	10276	
693.58	9287.5	
693.76	8783.1	
693.94	11144	
694.13	11056	
694.31	9082.1	
694.5	9714.9	
694.68	10343	
694.86	10775	
695.05	9465.7	
695.23	9503.9	
695.42	11047	
695.6	12564	
695.78	9919.7	
695.97	9251.4	
696.15	11118	
696.34	10643	
696.52	9113.5	
696.7	9698.5	
696.89	10766	
697.07	10460	
697.25	9525.8	
697.44	10596	
697.62	10822	
697.81	10888	
697.99	9258.9	
698.17	9726.5	
698.36	10358	
698.54	10797	
698.72	9576.3	
698.91	8811	
699.09	10495	
699.28	10347	
699.46	9336	
699.64	9189.9	
699.83	10400	
700.01	11005	
700.19	9822.1	
700.38	8713.4	
700.56	11164	
700.74	10357	
700.93	8888.9	
701.11	9609.8	
701.29	10949	
701.48	11721	
701.66	9281.4	
701.84	9367.4	
702.03	10706	
702.21	11357	
702.39	9060.2	
702.58	9486.2	
702.76	11076	
702.94	11198	
703.13	9073.2	
703.31	10712	
703.49	10711	
703.68	11210	
703.86	9200.8	
704.04	9970.2	
704.23	10933	
704.41	11138	
704.59	9342.2	
704.78	10118	
704.96	12183	
705.14	11176	
705.33	9301.2	
705.51	9740.8	
705.69	10778	
705.87	11424	
706.06	9977.7	
706.24	9275.3	
706.42	11104	
706.61	11283	
706.79	9981.1	
706.97	9067.7	
707.16	10673	
707.34	11077	
707.52	9822.1	
707.7	9412.5	
707.89	10761	
708.07	10492	
708.25	9926.5	
708.44	10161	
708.62	10707	
708.8	11424	
708.98	10081	
709.17	9523.1	
709.35	10916	
709.53	10961	
709.72	9160.6	
709.9	9266.4	
710.08	11151	
710.26	11151	
710.45	10186	
710.63	9289.6	
710.81	10889	
710.99	10800	
711.18	9735.4	
711.36	9381.7	
711.54	10571	
711.72	11125	
711.91	9346.2	
712.09	8894.3	
712.27	10676	
712.45	10987	
712.64	9295	
712.82	8699.1	
713	10094	
713.18	10186	
713.37	8487.5	
713.55	9164.7	
713.73	10544	
713.91	9389.9	
714.1	8391.9	
714.28	7939.3	
714.46	9770.2	
714.64	8992.6	
714.83	7098.3	
715.01	7460.8	
715.19	8759.2	
715.37	8133.2	
715.55	7057.3	
715.74	7170.6	
715.92	9081.4	
716.1	7665.5	
716.28	7933.1	
716.47	7215	
716.65	8149.6	
716.83	8119.5	
717.01	7014.3	
717.19	7001.3	
717.38	9639.8	
717.56	7878.5	
717.74	7210.2	
717.92	6619.7	
718.1	8834.9	
718.29	8365.3	
718.47	6638.1	
718.65	7091.4	
718.83	9246.6	
719.01	9300.5	
719.2	6973.3	
719.38	7735.9	
719.56	9065.7	
719.74	10148	
719.92	7522.2	
720.11	8172.8	
720.29	9166.7	
720.47	8507.3	
720.65	6926.2	
720.83	7394.5	
721.02	8400.8	
721.2	8172.1	
721.38	7308.5	
721.56	6765.8	
721.74	7661.5	
721.92	7767.9	
722.11	7414.3	
722.29	7178.1	
722.47	8652	
722.65	8082	
722.83	6612.2	
723.01	7085.3	
723.2	8045.8	
723.38	8389.8	
723.56	6197.8	
723.74	6978.1	
723.92	7813	
724.1	8578.9	
724.29	6537.1	
724.47	7286.7	
724.65	7857.4	
724.83	7629.4	
725.01	6492.1	
725.19	7023.2	
725.37	7664.9	
725.56	7637.6	
725.74	6317.3	
725.92	6560.3	
726.1	7714.7	
726.28	7971.4	
726.46	6800.6	
726.64	6537.8	
726.83	7917.4	
727.01	8057.4	
727.19	6247.7	
727.37	6845.7	
727.55	8073.8	
727.73	8277.2	
727.91	6242.2	
728.09	6229.9	
728.28	8415.1	
728.46	8531.2	
728.64	6894.1	
728.82	6973.3	
729	9108	
729.18	8716.8	
729.36	6474.3	
729.54	8036.9	
729.72	9551	
729.91	8290.2	
730.09	7960.5	
730.27	7116	
730.45	8350.3	
730.63	8690.2	
730.81	7553.6	
730.99	6934.4	
731.17	9198.1	
731.35	8220.5	
731.53	7256	
731.71	7063.4	
731.9	9048.6	
732.08	9016.5	
732.26	7174.7	
732.44	6883.2	
732.62	9019.3	
732.8	8739.4	
732.98	7343.3	
733.16	6683.9	
733.34	8696.4	
733.52	7715.4	
733.7	6923.5	
733.88	7107.1	
734.07	8363.2	
734.25	8297.7	
734.43	6670.2	
734.61	7672.4	
734.79	9429.5	
734.97	8208.3	
735.15	6695.5	
735.33	6887.3	
735.51	8480.6	
735.69	8237.6	
735.87	7619.8	
736.05	6978.1	
736.23	8416.5	
736.41	8071	
736.59	6937.8	
736.77	7056.6	
736.95	8581	
737.13	8150.2	
737.32	6634.1	
737.5	6753.5	
737.68	8939.4	
737.86	7987.1	
738.04	6417	
738.22	7661.5	
738.4	7826.7	
738.58	8157.1	
738.76	6810.2	
738.94	6058.6	
739.12	7960.5	
739.3	7877.2	
739.48	7207.5	
739.66	6972	
739.84	8102.4	
740.02	7981.6	
740.2	6151.4	
740.38	6314.6	
740.56	8385.1	
740.74	7481.9	
740.92	6831.3	
741.1	6666.1	
741.28	7798	
741.46	7679.9	
741.64	6318.7	
741.82	6767.2	
742	7831.4	
742.18	7804.8	
742.36	6521.4	
742.54	6204	
742.72	8237.6	
742.9	7206.1	
743.08	6732.4	
743.26	5833.3	
743.44	8318.2	
743.62	8080.6	
743.8	6809.5	
743.98	6042.2	
744.16	7742.7	
744.34	7656.7	
744.52	6634.1	
744.7	6625.9	
744.88	7926.3	
745.06	7461.4	
745.24	6574.7	
745.42	6569.2	
745.6	7894.2	
745.78	7720.8	
745.96	5652.4	
746.14	5871.5	
746.32	8266.3	
746.5	7698.3	
746.68	6198.5	
746.86	5784.1	
747.03	7925.6	
747.21	6797.9	
747.39	6136.4	
747.57	5705.6	
747.75	7277.8	
747.93	7619.1	
748.11	5783.5	
748.29	5651	
748.47	8580.3	
748.65	7123.5	
748.83	6200.6	
749.01	6050.4	
749.19	7479.2	
749.37	6879.1	
749.55	5938.4	
749.73	6036	
749.91	7389.8	
750.09	7021.1	
750.26	5931.6	
750.44	5571.8	
750.62	7194.5	
750.8	7140.6	
750.98	5481	
751.16	5698.1	
751.34	7322.9	
751.52	6752.8	
751.7	6228.6	
751.88	5330.9	
752.06	7484.6	
752.24	7249.1	
752.42	5291.3	
752.59	5649.7	
752.77	7135.1	
752.95	7929.7	
753.13	6127.5	
753.31	5680.4	
753.49	6741.9	
753.67	7094.8	
753.85	5824.4	
754.03	5455.1	
754.21	7215.7	
754.38	7386.3	
754.56	5391.6	
754.74	4674.1	
754.92	6506.4	
755.1	6933.1	
755.28	4535.6	
755.46	4418.8	
755.64	7160.4	
755.82	7112.6	
755.99	4259.1	
756.17	4183.3	
756.35	5020.9	
756.53	5952.1	
756.71	3164.8	
756.89	3794.9	
757.07	5627.1	
757.25	5028.4	
757.42	4317.8	
757.6	4967.7	
757.78	5876.3	
757.96	5190.2	
758.14	4275.5	
758.32	3968.3	
758.5	4947.2	
758.67	5481.7	
758.85	4080.2	
759.03	4169	
759.21	5692.7	
759.39	5162.9	
759.57	3766.9	
759.75	4682.3	
759.92	6173.9	
760.1	5694	
760.28	4885.1	
760.46	5182	
760.64	5668.1	
760.82	5472.2	
760.99	4919.9	
761.17	4376.5	
761.35	6291.4	
761.53	5437.4	
761.71	4582	
761.89	5044.8	
762.06	6182.1	
762.24	5840.1	
762.42	4664.6	
762.6	4543.1	
762.78	5882.4	
762.96	6431.3	
763.13	5028.4	
763.31	4756.1	
763.49	6454.5	
763.67	5859.9	
763.85	5367.7	
764.02	5735	
764.2	6815.6	
764.38	6051.1	
764.56	4745.1	
764.74	5366.4	
764.91	6760.3	
765.09	5842.9	
765.27	4454.3	
765.45	4263.9	
765.63	6880.5	
765.8	6660	
765.98	4170.3	
766.16	4288.4	
766.34	5616.9	
766.52	5376.6	
766.69	4980.7	
766.87	4171.7	
767.05	5923.4	
767.23	6339.1	
767.41	4386.7	
767.58	4545.1	
767.76	6225.1	
767.94	6289.3	
768.12	4392.9	
768.29	4897.4	
768.47	5754.1	
768.65	6324.1	
768.83	4070	
769	4908.3	
769.18	5509	
769.36	5973.2	
769.54	4803.2	
769.72	4118.5	
769.89	6228.6	
770.07	6145.3	
770.25	4300.1	
770.43	5189.6	
770.6	6696.9	
770.78	6867.5	
770.96	4388.1	
771.14	4296	
771.31	6040.1	
771.49	5554.1	
771.67	3741	
771.85	3890.5	
772.02	4967	
772.2	5489.2	
772.38	4490.5	
772.55	4037.2	
772.73	5723.4	
772.91	5487.2	
773.09	4285	
773.26	4272.7	
773.44	5651.7	
773.62	5374.6	
773.8	3861.8	
773.97	3706.1	
774.15	5575.3	
774.33	5335.6	
774.5	3748.5	
774.68	4023.6	
774.86	5594.4	
775.04	5281.7	
775.21	3808.5	
775.39	3756	
775.57	5449	
775.74	5711.8	
775.92	3622.9	
776.1	3580.5	
776.27	5481	
776.45	6363	
776.63	3750.5	
776.81	3433.1	
776.98	5209.3	
777.16	5929.6	
777.34	3758.7	
777.51	4028.4	
777.69	5193.6	
777.87	4933.6	
778.04	3902.1	
778.22	4197.7	
778.4	5001.8	
778.57	5475.6	
778.75	3248.1	
778.93	3472.7	
779.1	4843.4	
779.28	4686.4	
779.46	3263.8	
779.64	3564.8	
779.81	5582.8	
779.99	6083.8	
780.17	4123.9	
780.34	4193.6	
780.52	5094	
780.69	5245.5	
780.87	3841.3	
781.05	3503.4	
781.22	5237.3	
781.4	5198.4	
781.58	3594.9	
781.75	3005.7	
781.93	5156.1	
782.11	4604.5	
782.28	4180.6	
782.46	3541.6	
782.64	4521.9	
782.81	5227.8	
782.99	3635.8	
783.17	3532.1	
783.34	5127.4	
783.52	4627.7	
783.69	3668.6	
783.87	4278.9	
784.05	4695.3	
784.22	4654.4	
784.4	4240	
784.58	3707.5	
784.75	5398.4	
784.93	4721.3	
785.1	3433.8	
785.28	3928.7	
785.46	5159.5	
785.63	4534.9	
785.81	3469.9	
785.99	3310.9	
786.16	4758.1	
786.34	4978.6	
786.51	3350.5	
786.69	3637.2	
786.87	4390.2	
787.04	4784.1	
787.22	3257	
787.39	3929.4	
787.57	4625	
787.75	5326.8	
787.92	4075.5	
788.1	3951.2	
788.27	4595	
788.45	4369.7	
788.63	3809.2	
788.8	2841.9	
788.98	4996.4	
789.15	4274.1	
789.33	2972.3	
789.5	3388.7	
789.68	5203.9	
789.86	5306.3	
790.03	3700.7	
790.21	3260.4	
790.38	5360.9	
790.56	4698.7	
790.73	3179.8	
790.91	3227.6	
791.09	4620.9	
791.26	5060.5	
791.44	3407.8	
791.61	2996.2	
791.79	4538.3	
791.96	4564.9	
792.14	3106.1	
792.32	2781.1	
792.49	4517.8	
792.67	4596.3	
792.84	3144.3	
793.02	2957.9	
793.19	4880.3	
793.37	5387.5	
793.54	2721.1	
793.72	3011.2	
793.89	5374.6	
794.07	4500.8	
794.25	3326.6	
794.42	2823.5	
794.6	5277.6	
794.77	4931.5	
794.95	3600.3	
795.12	3229	
795.3	4561.5	
795.47	4928.8	
795.65	3514.3	
795.82	3397.6	
796	4377.2	
796.17	5687.2	
796.35	3254.2	
796.52	3757.3	
796.7	4909	
796.87	4955.4	
797.05	3265.8	
797.22	3844	
797.4	4984.1	
797.57	5640.1	
797.75	3374.4	
797.92	3181.9	
798.1	5190.2	
798.27	4369.7	
798.45	2825.5	
798.62	2950.4	
798.8	4693.9	
798.97	5057.1	
799.15	3519.1	
799.32	3410.6	
799.5	4171.7	
799.67	4702.8	
799.85	3639.9	
800.02	2697.2	
800.2	4488.5	
800.37	4644.8	
800.55	3728.7	
800.72	3173	
800.9	5014.1	
801.07	5326.1	
801.25	4111	
801.42	3420.8	
801.6	5094	
801.77	4728.8	
801.95	3209.2	
802.12	3079.5	
802.29	4872.8	
802.47	4668.7	
802.64	3441.3	
802.82	2665.1	
802.99	4450.9	
803.17	5065.3	
803.34	3310.2	
803.52	2975.7	
803.69	5556.8	
803.87	4219.5	
804.04	3343	
804.21	3366.9	
804.39	5266.7	
804.56	4549.9	
804.74	2899.9	
804.91	3470.6	
805.09	4414.7	
805.26	4483.7	
805.44	2943.6	
805.61	3238.5	
805.78	4970.4	
805.96	4886.5	
806.13	3385.3	
806.31	3650.8	
806.48	4067.3	
806.66	4459.8	
806.83	3454.9	
807	3323.9	
807.18	4433.2	
807.35	4646.8	
807.53	3138.9	
807.7	2736.1	
807.87	5246.2	
808.05	4458.4	
808.22	3588.7	
808.4	2723.1	
808.57	4350.6	
808.74	4154	
808.92	3106.1	
809.09	3764.8	
809.27	4405.9	
809.44	4805.9	
809.61	2749.1	
809.79	3027.6	
809.96	5293.3	
810.14	4889.2	
810.31	2688.3	
810.48	3180.5	
810.66	4455.7	
810.83	4908.3	
811.01	3041.2	
811.18	3304.7	
811.35	4943.8	
811.53	3968.3	
811.7	3615.3	
811.87	3355.3	
812.05	4474.8	
812.22	4356	
812.39	2976.4	
812.57	2867.2	
812.74	4463.2	
812.92	5636	
813.09	3219.4	
813.26	3418.7	
813.44	5428.5	
813.61	4358.1	
813.78	2746.3	
813.96	3549.8	
814.13	4451.6	
814.3	4246.1	
814.48	3734.1	
814.65	3212.6	
814.82	5218.9	
815	4209.3	
815.17	3241.9	
815.34	3911.6	
815.52	4368.3	
815.69	4351.3	
815.87	3196.2	
816.04	3127.9	
816.21	4327.4	
816.38	4021.5	
816.56	3219.4	
816.73	2951.8	
816.9	5363.6	
817.08	4881.7	
817.25	3007.1	
817.42	3594.2	
817.6	4106.9	
817.77	4350.6	
817.94	3278.8	
818.12	2947.7	
818.29	4225	
818.46	6049	
818.64	3065.8	
818.81	2852.8	
818.98	4252.3	
819.16	5672.9	
819.33	3493.2	
819.5	3255.6	
819.67	4702.1	
819.85	5084.4	
820.02	3259	
820.19	3344.3	
820.37	4588.1	
820.54	4388.1	
820.71	3278.8	
820.88	4012	
821.06	4556.7	
821.23	4244.1	
821.4	3370.3	
821.58	3284.9	
821.75	4895.3	
821.92	4504.8	
822.09	2729.3	
822.27	2928.6	
822.44	4435.9	
822.61	4364.2	
822.79	2729.3	
822.96	4923.3	
823.13	4638.6	
823.3	4141.7	
823.48	3080.8	
823.65	2878.1	
823.82	4966.3	
823.99	4123.2	
824.17	3801.7	
824.34	2871.3	
824.51	5590.3	
824.68	4403.8	
824.86	3009.1	
825.03	3284.9	
825.2	4447.5	
825.37	5146.5	
825.55	2986.6	
825.72	3291.1	
825.89	5578	
826.06	5236	
826.24	3158.7	
826.41	3198.9	
826.58	5196.4	
826.75	4618.9	
826.92	2599.6	
827.1	2853.5	
827.27	6780.1	
827.44	5519.3	
827.61	3037.8	
827.79	3594.2	
827.96	4285.7	
828.13	4389.5	
828.3	3150.5	
828.47	2737.5	
828.65	4687.1	
828.82	4617.5	
828.99	3889.1	
829.16	3465.2	
829.34	4976.6	
829.51	4743.1	
829.68	3228.3	
829.85	3289	
830.02	5181.4	
830.2	4882.4	
830.37	2573.6	
830.54	3805.1	
830.71	5430.5	
830.88	4474.1	
831.05	2655.5	
831.23	2960	
831.4	5340.4	
831.57	5689.9	
831.74	2990	
831.91	2740.9	
832.09	4710.3	
832.26	4940.4	
832.43	3072.6	
832.6	3386.7	
832.77	4617.5	
832.94	5132.2	
833.12	2495.1	
833.29	3069.9	
833.46	4364.9	
833.63	5954.8	
833.8	3306.8	
833.97	3039.2	
834.15	4943.8	
834.32	4835.3	
834.49	3248.1	
834.66	3235.8	
834.83	4996.4	
835	4265.2	
835.17	2997.5	
835.35	3005.7	
835.52	4883.7	
835.69	4747.9	
835.86	3103.4	
836.03	2633	
836.2	4967	
836.37	4610.7	
836.55	3089.7	
836.72	2969.6	
836.89	4642.7	
837.06	4992.9	
837.23	3137.5	
837.4	3376.4	
837.57	5530.2	
837.75	5879.7	
837.92	2863.7	
838.09	2996.9	
838.26	4596.3	
838.43	5049.6	
838.6	3241.9	
838.77	2884.9	
838.94	5622.4	
839.11	5523.4	
839.29	3168.2	
839.46	2519	
839.63	4939	
839.8	4707.6	
839.97	3027.6	
840.14	2953.2	
840.31	4763.6	
840.48	4871.4	
840.65	2501.9	
840.82	2978.4	
841	4857.1	
841.17	4810	
841.34	2782.5	
841.51	2822.1	
841.68	4855.1	
841.85	4654.4	
842.02	2871.3	
842.19	2506	
842.36	4728.1	
842.53	4752	
842.7	2812.5	
842.87	3312.9	
843.05	5874.9	
843.22	4648.2	
843.39	2686.9	
843.56	2860.3	
843.73	4559.5	
843.9	4991.6	
844.07	4276.8	
844.24	3622.9	
844.41	6547.4	
844.58	4315.8	
844.75	2705.4	
844.92	2869.9	
845.09	4837.3	
845.26	4853	
845.43	2776.4	
845.6	2954.5	
845.77	4900.8	
845.94	4686.4	
846.12	3030.3	
846.29	3198.9	
846.46	5104.2	
846.63	4807.9	
846.8	2753.2	
846.97	3203.7	
847.14	5202.5	
847.31	4884.4	
847.48	3112.9	
847.65	3365.5	
847.82	5055.8	
847.99	5053	
848.16	3634.5	
848.33	3321.8	
848.5	4526	
848.67	5140.4	
848.84	2713.6	
849.01	2871.9	
849.18	4496	
849.35	4216.1	
849.52	3375.7	
849.69	2731.3	
849.86	5016.2	
850.03	5060.5	
850.2	2726.5	
850.37	3287.7	
850.54	5057.1	
850.71	4577.9	
850.88	3280.2	
851.05	2740.2	
851.22	4734.9	
851.39	5238	
851.56	2687.6	
851.73	3202.3	
851.9	4347.8	
852.07	4967.7	
852.24	3040.6	
852.41	2709.5	
852.58	4798.4	
852.75	4401.1	
852.92	3092.4	
853.09	2710.8	
853.26	4530.8	
853.43	5117.2	
853.6	2746.3	
853.77	2420.7	
853.94	5228.5	
854.11	4315.1	
854.28	3908.2	
854.44	2977.7	
854.61	5498.1	
854.78	5079.6	
854.95	2712.9	
855.12	3349.1	
855.29	4034.5	
855.46	5267.4	
855.63	2806.4	
855.8	3702.7	
855.97	4521.9	
856.14	5107	
856.31	3739.6	
856.48	3028.9	
856.65	4584.7	
856.82	4339.6	
856.99	2706	
857.16	2960.7	
857.33	5670.1	
857.49	4556	
857.66	2959.3	
857.83	3102	
858	4584	
858.17	4743.1	
858.34	2629.6	
858.51	2790.7	
858.68	5232.6	
858.85	5333.6	
859.02	3150.5	
859.19	3287.7	
859.36	4339	
859.52	4362.2	
859.69	2770.2	
859.86	3198.9	
860.03	4420.2	
860.2	5227.8	
860.37	2579.1	
860.54	2760.7	
860.71	4994.3	
860.88	5277.6	
861.05	3041.2	
861.21	3458.3	
861.38	5272.8	
861.55	4209.9	
861.72	2623.4	
861.89	3038.5	
862.06	5057.8	
862.23	5349.3	
862.4	2703.3	
862.56	2861.7	
862.73	4942.4	
862.9	4654.4	
863.07	3149.8	
863.24	2491.7	
863.41	4275.5	
863.58	4328.7	
863.75	2844.6	
863.91	3094.5	
864.08	5175.2	
864.25	4956.1	
864.42	3378.5	
864.59	3777.8	
864.76	5457.8	
864.93	4327.4	
865.09	2665.8	
865.26	2964.8	
865.43	5208.7	
865.6	5452.4	
865.77	2468.5	
865.94	2707.4	
866.1	5165	
866.27	4904.9	
866.44	3946.4	
866.61	2599.6	
866.78	4632.5	
866.95	4971.1	
867.11	2710.1	
867.28	2513.5	
867.45	5121.3	
867.62	4332.1	
867.79	3205.1	
867.96	2704.7	
868.12	4316.4	
868.29	5021.6	
868.46	2785.9	
868.63	3561.4	
868.8	5117.9	
868.97	4925.4	
869.13	2811.9	
869.3	2867.2	
869.47	4819.6	
869.64	5023.7	
869.81	2782.5	
869.97	2767.5	
870.14	4801.1	
870.31	5216.2	
870.48	2687.6	
870.65	3429	
870.81	4612	
870.98	4625.7	
871.15	3088.3	
871.32	2867.8	
871.48	4870.8	
871.65	5380.7	
871.82	2749.7	
871.99	2997.5	
872.16	5689.9	
872.32	5196.4	
872.49	2777.7	
872.66	2803.7	
872.83	4990.2	
872.99	4433.9	
873.16	3083.6	
873.33	2723.1	
873.5	4706.9	
873.67	4800.4	
873.83	2860.3	
874	3537.5	
874.17	4827.1	
874.34	5501.5	
874.5	3505.4	
874.67	3323.2	
874.84	5233.2	
875.01	4265.2	
875.17	3668.6	
875.34	2713.6	
875.51	4731.5	
875.68	5617.6	
875.84	3304.7	
876.01	3861.8	
876.18	4986.8	
876.34	4902.2	
876.51	2767.5	
876.68	2697.9	
876.85	4592.2	
877.01	5193	
877.18	3822.2	
877.35	2732	
877.52	4777.2	
877.68	4290.5	
877.85	2727.9	
878.02	2699.2	
878.18	4554	
878.35	4459.1	
878.52	2254.8	
878.69	3001.6	
878.85	5012.7	
879.02	4945.2	
879.19	3758.7	
879.35	2946.3	
879.52	4937	
879.69	5076.9	
879.86	2452.8	
880.02	3046.7	
880.19	4662.5	
880.36	5446.9	
880.52	3048.7	
880.69	3218.7	
880.86	5067.4	
881.02	5039.4	
881.19	2979.1	
881.36	2984.6	
881.52	4906.3	
881.69	4427.7	
881.86	2895.8	
882.02	2853.5	
882.19	5085.8	
882.36	5851	
882.52	2824.8	
882.69	3757.3	
882.86	4795	
883.02	4781.3	
883.19	3257	
883.36	3056.3	
883.52	5026.4	
883.69	5622.4	
883.86	2775	
884.02	2533.3	
884.19	4963.6	
884.36	4681	
884.52	3078.1	
884.69	2952.5	
884.86	4525.3	
885.02	5371.8	
885.19	3030.3	
885.36	3072.6	
885.52	4661.9	
885.69	4837.3	
885.86	3831.7	
886.02	3438.5	
886.19	5042.8	
886.35	4511.7	
886.52	3011.9	
886.69	3696.6	
886.85	4349.9	
887.02	5199.1	
887.19	5199.1	
887.35	5199.1	
887.52	5199.1	
887.68	5199.1	
887.85	5199.1	
888.02	5199.1	
888.18	5199.1	
888.35	5199.1	
888.51	5199.1	
888.68	5199.1	
888.85	5199.1	
889.01	5199.1	
889.18	5199.1	
889.35	5199.1	
889.51	5199.1	
889.68	5199.1	
889.84	5199.1	
890.01	5199.1	
890.17	5199.1	
890.34	5199.1	
890.51	5199.1	
890.67	5199.1	
890.84	5199.1	
891	5199.1	
891.17	5199.1	
891.34	5199.1	
891.5	5199.1	
891.67	5199.1	
891.83	5199.1	
892	5199.1	
892.16	5199.1	
892.33	5199.1	
892.5	5199.1	
892.66	5199.1	
892.83	5199.1	
892.99	5199.1	
893.16	5199.1	
893.32	5199.1	
893.49	5199.1	
893.65	5199.1	
893.82	5199.1	
893.99	5199.1	
894.15	5199.1	
894.32	5199.1	
894.48	5199.1	
894.65	5199.1	
894.81	5199.1	
894.98	5199.1	
895.14	5199.1	
895.31	5199.1	
895.47	5199.1	
895.64	5199.1	
895.81	5199.1	
895.97	5199.1	
896.14	5199.1	
896.3	5199.1	
896.47	5199.1	
896.63	5199.1	
896.8	5199.1	
896.96	5199.1	
897.13	5199.1	
897.29	5199.1	
897.46	5199.1	
897.62	5199.1	
897.79	5199.1	
897.95	5199.1	
898.12	5199.1	
898.28	5199.1	
898.45	5199.1	
898.61	5199.1	
898.78	5199.1	
898.94	5199.1	
899.11	5199.1	
899.27	5199.1	
899.44	5199.1	
899.6	5199.1	
899.77	5199.1	
899.93	5199.1	
900.1	5199.1	
900.26	5199.1	
900.43	5199.1	
900.59	5199.1	
900.76	5199.1	
900.92	5199.1	
901.09	5199.1	
901.25	5199.1	
901.42	5199.1	
901.58	5199.1	
901.75	5199.1	
901.91	5199.1	
902.07	5199.1	
902.24	5199.1	
902.4	5199.1	
902.57	5199.1	
902.73	5199.1	
902.9	5199.1	
903.06	5199.1	
903.23	5199.1	
903.39	5199.1	
903.56	5199.1	
903.72	5199.1	
903.88	5199.1	
904.05	5199.1	
904.21	5199.1	
904.38	5199.1	
904.54	5199.1	
904.71	5199.1	
904.87	5199.1	
905.03	5199.1	
905.2	5199.1	
905.36	5199.1	
905.53	5199.1	
905.69	5199.1	
905.86	5199.1	
906.02	5199.1	
906.18	5199.1	
906.35	5199.1	
906.51	5199.1	
906.68	5199.1	
906.84	5199.1	
907.01	5199.1	
907.17	5199.1	
907.33	5199.1	
907.5	5199.1	
907.66	5199.1	
907.83	5199.1	
907.99	5199.1	
908.15	5199.1	
908.32	5199.1	
908.48	5199.1	
908.65	5199.1	
908.81	5199.1	
908.97	5199.1	
909.14	5199.1	
909.3	5199.1	
909.47	5199.1	
909.63	5199.1	
909.79	5199.1	
909.96	5199.1	
910.12	5199.1	
910.28	5199.1	
910.45	5199.1	
910.61	5199.1	
910.78	5199.1	
910.94	5199.1	
911.1	5199.1	
911.27	5199.1	
911.43	5199.1	
911.59	5199.1	
911.76	5199.1	
911.92	5199.1	
912.08	5199.1	
912.25	5199.1	
912.41	5199.1	
912.57	5199.1	
912.74	5199.1	
912.9	5199.1	
913.07	5199.1	
913.23	5199.1	
913.39	5199.1	
913.56	5199.1	
913.72	5199.1	
913.88	5199.1	
914.05	5199.1	
914.21	5199.1	
914.37	5199.1	
914.54	5199.1	
914.7	5199.1	
914.86	5199.1	
915.03	5199.1	
915.19	5199.1	
