Wavelength	Intensities	
nm	a.u.	
179.22	1861.3	
179.44	1868.4	
179.65	1854.1	
179.86	1882.8	
180.08	1867.7	
180.29	4650.3	
180.51	3377.1	
180.72	5479	
180.94	6396.5	
181.15	3136.1	
181.37	3089	
181.58	5336.3	
181.79	5609.4	
182.01	3261.7	
182.22	3476.1	
182.44	5627.8	
182.65	4740.4	
182.87	4361.5	
183.08	3833.8	
183.29	5894.7	
183.51	4861.9	
183.72	3513.6	
183.94	5042.1	
184.15	5270.1	
184.37	5244.8	
184.58	3084.2	
184.79	4238.6	
185.01	4859.8	
185.22	5569.8	
185.44	4478.9	
185.65	3718.4	
185.86	5136.3	
186.08	4788.8	
186.29	3013.2	
186.51	3273.3	
186.72	4885.1	
186.94	5750	
187.15	3715.7	
187.36	3879.5	
187.58	7451.2	
187.79	5332.9	
188.01	4026.3	
188.22	6206	
188.43	6451.8	
188.65	5583.4	
188.86	3232.4	
189.08	3878.9	
189.29	5061.9	
189.5	5103.5	
189.72	3562.8	
189.93	3651.5	
190.15	5775.3	
190.36	6862.1	
190.57	3931.4	
190.79	3836.5	
191	5846.3	
191.22	5868.1	
191.43	3938.2	
191.64	3165.5	
191.86	6066.1	
192.07	5802.6	
192.29	3418.1	
192.5	3547.8	
192.71	5792.3	
192.93	4959.5	
193.14	3557.3	
193.35	3637.2	
193.57	5008	
193.78	5755.5	
194	2929.3	
194.21	3512.9	
194.42	4801.8	
194.64	5251.7	
194.85	3823.6	
195.07	4520.5	
195.28	5380	
195.49	4583.4	
195.71	4830.5	
195.92	3315	
196.13	5371.8	
196.35	5581.4	
196.56	5090.6	
196.78	3898.6	
196.99	6807.4	
197.2	6291.4	
197.42	4427.7	
197.63	3906.2	
197.84	4753.3	
198.06	5441.5	
198.27	3560.7	
198.48	4755.4	
198.7	5007.3	
198.91	5199.8	
199.13	3926	
199.34	3859.7	
199.55	5617.6	
199.77	4557.4	
199.98	3424.9	
200.19	4001.7	
200.41	5090.6	
200.62	4902.2	
200.83	4058.4	
201.05	4332.1	
201.26	5177.3	
201.47	4895.3	
201.69	3452.2	
201.9	3330	
202.11	5248.9	
202.33	6157.6	
202.54	3650.8	
202.76	4097.3	
202.97	5360.9	
203.18	5322	
203.4	4050.9	
203.61	3955.3	
203.82	5271.5	
204.04	4958.1	
204.25	3877.5	
204.46	3846.8	
204.68	5270.1	
204.89	5540.4	
205.1	3838.6	
205.32	3269.9	
205.53	5662.6	
205.74	5827.2	
205.96	2793.4	
206.17	3977.2	
206.38	5589.6	
206.6	5737.7	
206.81	4429.8	
207.02	3653.6	
207.24	5489.2	
207.45	5917.9	
207.66	3653.6	
207.88	3172.3	
208.09	5448.3	
208.3	5257.8	
208.52	3370.3	
208.73	3716.4	
208.94	5300.1	
209.15	5958.9	
209.37	3689.8	
209.58	3855	
209.79	5778	
210.01	5042.1	
210.22	2985.9	
210.43	3084.9	
210.65	5180.7	
210.86	5669.5	
211.07	3729.4	
211.29	3376.4	
211.5	5627.1	
211.71	5193.6	
211.93	3394.2	
212.14	3386.7	
212.35	5179.3	
212.56	5440.1	
212.78	3891.8	
212.99	3244.7	
213.2	6201.2	
213.42	5064.6	
213.63	3541.6	
213.84	3754.6	
214.06	4706.9	
214.27	4791.6	
214.48	3728.7	
214.69	3957.4	
214.91	5909.1	
215.12	5996.5	
215.33	4001.7	
215.55	4414.7	
215.76	6416.3	
215.97	5602.6	
216.18	3820.8	
216.4	3790.1	
216.61	4933.6	
216.82	5711.8	
217.04	3437.9	
217.25	3545.7	
217.46	5882.4	
217.67	5593.7	
217.89	3082.9	
218.1	3200.3	
218.31	5367.7	
218.53	5433.3	
218.74	3566.9	
218.95	3414.6	
219.16	5235.3	
219.38	6173.9	
219.59	3489.1	
219.8	4196.3	
220.01	6756.2	
220.23	5272.2	
220.44	4537.6	
220.65	3404.4	
220.87	5302.9	
221.08	5862	
221.29	3173	
221.5	4215.4	
221.72	7149.5	
221.93	4970.4	
222.14	3897.3	
222.35	4617.5	
222.57	5233.9	
222.78	5601.2	
222.99	3749.8	
223.2	4028.4	
223.42	5537	
223.63	5630.5	
223.84	2848	
224.05	2852.8	
224.27	6701.6	
224.48	6079.7	
224.69	4627	
224.9	3906.2	
225.12	5418.9	
225.33	5235.3	
225.54	3138.2	
225.75	3434.4	
225.97	4867.3	
226.18	5195.7	
226.39	3794.2	
226.6	3522.5	
226.82	5048.9	
227.03	4886.5	
227.24	3870	
227.45	3217.4	
227.67	5639.4	
227.88	6132.3	
228.09	4329.4	
228.3	4390.8	
228.52	5629.2	
228.73	5177.3	
228.94	3610.6	
229.15	3229	
229.36	5153.4	
229.58	5105.6	
229.79	3691.8	
230	4243.4	
230.21	6223.1	
230.43	5300.1	
230.64	3842.7	
230.85	4005.8	
231.06	5638.1	
231.28	5662.6	
231.49	3192.8	
231.7	3792.2	
231.91	5612.8	
232.12	5263.3	
232.34	3366.2	
232.55	3786.7	
232.76	5830.6	
232.97	5337.7	
233.18	3395.5	
233.4	3876.1	
233.61	5511.8	
233.82	5026.4	
234.03	3592.1	
234.25	3535.5	
234.46	7231.4	
234.67	5244.2	
234.88	3963.5	
235.09	3459.7	
235.31	5525.4	
235.52	5164.3	
235.73	3864.5	
235.94	3274	
236.15	4986.8	
236.37	6325.5	
236.58	3413.3	
236.79	3736.9	
237	5538.4	
237.21	4734.2	
237.43	4029.7	
237.64	3140.9	
237.85	9415.9	
238.06	4825.7	
238.27	4091.2	
238.48	3233.1	
238.7	5582.1	
238.91	5106.3	
239.12	3661.8	
239.33	3762.8	
239.54	4940.4	
239.76	5192.3	
239.97	3643.3	
240.18	3716.4	
240.39	6583.5	
240.6	5462.6	
240.82	3931.4	
241.03	3164.8	
241.24	5179.3	
241.45	5982.1	
241.66	3419.4	
241.87	4042.7	
242.09	5964.4	
242.3	6296.1	
242.51	4068.6	
242.72	3739.6	
242.93	5756.8	
243.14	5207.3	
243.36	4291.9	
243.57	4630.5	
243.78	6066.8	
243.99	5617.6	
244.2	3804.4	
244.41	3386.7	
244.63	4833.2	
244.84	5509	
245.05	4023.6	
245.26	3732.8	
245.47	5564.3	
245.68	5732.9	
245.9	4966.3	
246.11	3899.3	
246.32	5122.7	
246.53	5468.8	
246.74	6036.7	
246.95	3157.3	
247.16	4823	
247.38	5271.5	
247.59	3173	
247.8	3799.7	
248.01	4953.4	
248.22	5180	
248.43	3400.3	
248.64	3690.4	
248.86	4732.9	
249.07	5046.9	
249.28	3297.2	
249.49	3820.1	
249.7	5752.7	
249.91	5832.6	
250.12	3110.9	
250.34	3219.4	
250.55	5360.9	
250.76	5277.6	
250.97	3898.6	
251.18	3833.1	
251.39	5924.1	
251.6	5413.5	
251.81	3880.9	
252.03	3969.6	
252.24	5068	
252.45	5707	
252.66	3268.6	
252.87	4088.4	
253.08	5307	
253.29	6791.1	
253.5	3254.2	
253.72	4528.1	
253.93	5093.3	
254.14	6199.2	
254.35	3521.8	
254.56	3688.4	
254.77	5517.2	
254.98	4931.5	
255.19	3528	
255.41	4536.9	
255.62	5373.2	
255.83	5887.9	
256.04	3960.8	
256.25	3973.7	
256.46	6385.6	
256.67	4973.8	
256.88	3817.4	
257.09	4318.5	
257.31	4934.2	
257.52	4976.6	
257.73	4807.3	
257.94	3560.1	
258.15	5104.9	
258.36	5268.7	
258.57	4422.9	
258.78	2868.5	
258.99	5724.1	
259.2	5125.4	
259.41	3570.3	
259.63	3698.6	
259.84	6078.4	
260.05	6431.3	
260.26	4638	
260.47	3429.7	
260.68	5829.9	
260.89	5171.8	
261.1	4271.4	
261.31	3387.3	
261.52	5794.4	
261.73	6232	
261.95	4556	
262.16	3982.6	
262.37	5960.3	
262.58	6030.6	
262.79	4547.9	
263	3645.4	
263.21	5240.8	
263.42	5116.5	
263.63	3645.4	
263.84	3640.6	
264.05	5756.8	
264.26	6128.2	
264.47	4451.6	
264.69	4009.9	
264.9	5947.3	
265.11	5440.1	
265.32	3459	
265.53	3594.9	
265.74	5382.1	
265.95	4680.3	
266.16	3824.9	
266.37	4186.7	
266.58	5418.2	
266.79	5093.3	
267	3550.5	
267.21	3277.4	
267.42	4857.1	
267.63	5233.2	
267.84	3717.1	
268.06	3205.8	
268.27	5705.6	
268.48	5973.9	
268.69	3637.2	
268.9	4272.7	
269.11	5898.8	
269.32	4790.9	
269.53	3706.1	
269.74	3462.4	
269.95	5610.1	
270.16	4667.3	
270.37	3730.7	
270.58	4339.6	
270.79	5105.6	
271	5745.2	
271.21	3997.6	
271.42	3766.2	
271.63	5440.8	
271.84	4911.7	
272.05	3018	
272.26	3379.1	
272.47	5273.5	
272.68	5438	
272.89	3600.3	
273.11	4113.7	
273.32	5077.6	
273.53	6150.1	
273.74	4044.7	
273.95	3965.6	
274.16	5903.6	
274.37	5342.5	
274.58	4147.8	
274.79	3295.9	
275	5344.5	
275.21	5873.6	
275.42	4908.3	
275.63	4233.2	
275.84	5517.2	
276.05	6921.5	
276.26	3980.6	
276.47	3700	
276.68	5130.2	
276.89	6233.3	
277.1	4225.6	
277.31	3289.7	
277.52	5489.2	
277.73	5722	
277.94	3187.3	
278.15	3604.4	
278.36	5453.7	
278.57	4962.9	
278.78	3588.7	
278.99	4036.5	
279.2	4926	
279.41	4886.5	
279.62	4699.4	
279.83	3340.9	
280.04	6427.2	
280.25	4798.4	
280.46	4669.4	
280.67	3766.2	
280.88	4893.3	
281.09	5896.1	
281.3	3920.5	
281.51	4943.8	
281.72	4982.7	
281.93	5788.9	
282.14	3527.3	
282.35	3793.5	
282.56	5772.5	
282.77	5706.3	
282.98	3609.9	
283.19	4399	
283.4	6979.5	
283.61	5223	
283.82	3277.4	
284.03	4608.6	
284.24	5396.4	
284.45	5878.4	
284.66	4680.3	
284.87	4453	
285.08	5819	
285.29	5926.1	
285.5	3205.1	
285.71	3678.2	
285.92	5861.3	
286.12	6468.2	
286.33	4513.7	
286.54	3588.7	
286.75	5726.1	
286.96	5159.5	
287.17	3293.8	
287.38	4563.6	
287.59	4910.3	
287.8	4869.4	
288.01	3680.2	
288.22	4202.4	
288.43	5778.7	
288.64	4823.6	
288.85	4317.1	
289.06	4102.8	
289.27	5680.4	
289.48	6171.9	
289.69	4612.7	
289.9	4194.2	
290.11	5939.1	
290.32	5022.3	
290.53	4402.5	
290.74	4035.9	
290.94	5692.7	
291.15	5685.2	
291.36	3529.3	
291.57	4197.7	
291.78	5002.5	
291.99	4774.5	
292.2	3392.8	
292.41	4051.6	
292.62	5771.9	
292.83	5522	
293.04	4938.3	
293.25	3362.1	
293.46	5052.3	
293.67	5825.1	
293.88	3469.3	
294.09	3344.3	
294.29	4827.7	
294.5	5413.5	
294.71	3768.9	
294.92	3625.6	
295.13	5087.2	
295.34	6350.1	
295.55	3196.9	
295.76	3280.2	
295.97	5644.9	
296.18	6339.1	
296.39	3291.8	
296.6	3553.9	
296.81	5377.3	
297.01	5681.1	
297.22	3661.8	
297.43	3496.6	
297.64	4980	
297.85	4907.6	
298.06	2970.2	
298.27	3119.7	
298.48	5248.3	
298.69	4990.9	
298.9	3766.2	
299.11	3442	
299.31	4839.4	
299.52	4781.3	
299.73	4081.6	
299.94	3946.4	
300.15	5274.2	
300.36	4926.7	
300.57	4035.9	
300.78	3980.6	
300.99	5146.5	
301.2	5336.3	
301.4	3490.4	
301.61	3777.8	
301.82	5605.3	
302.03	5682.4	
302.24	4289.8	
302.45	3373.7	
302.66	5574.6	
302.87	5921.4	
303.08	3534.8	
303.29	4774.5	
303.49	5107	
303.7	5283.1	
303.91	3142.3	
304.12	4525.3	
304.33	4814.1	
304.54	5456.5	
304.75	3509.5	
304.96	3386.7	
305.16	5556.1	
305.37	6313.9	
305.58	3063.8	
305.79	3146.4	
306	5556.1	
306.21	4735.6	
306.42	3569.6	
306.63	5339.7	
306.83	5126.1	
307.04	5798.5	
307.25	3865.2	
307.46	3829.7	
307.67	4535.6	
307.88	5647.6	
308.09	3448.1	
308.29	3574.4	
308.5	5405.3	
308.71	5801.9	
308.92	3730	
309.13	3392.1	
309.34	5157.5	
309.55	5226.4	
309.75	4392.2	
309.96	3991.5	
310.17	5591	
310.38	4975.2	
310.59	4192.9	
310.8	3284.9	
311.01	5089.9	
311.21	5166.3	
311.42	3328.6	
311.63	3443.3	
311.84	5072.1	
312.05	5412.8	
312.26	3906.2	
312.46	4246.8	
312.67	5108.3	
312.88	4820.2	
313.09	3409.2	
313.3	3295.2	
313.51	5995.8	
313.71	6340.5	
313.92	3412.6	
314.13	3592.8	
314.34	5481.7	
314.55	5256.5	
314.76	4379.2	
314.96	3778.5	
315.17	5341.8	
315.38	5611.4	
315.59	3467.2	
315.8	3253.5	
316.01	6041.5	
316.21	6131.6	
316.42	3289.7	
316.63	3724.6	
316.84	5149.3	
317.05	5915.9	
317.26	4044.7	
317.46	3579.2	
317.67	5255.1	
317.88	5628.5	
318.09	4300.1	
318.3	3177.8	
318.5	5032.5	
318.71	5579.3	
318.92	5499.5	
319.13	3964.2	
319.34	5733.6	
319.54	5867.4	
319.75	3148.4	
319.96	3043.3	
320.17	5654.4	
320.38	5810.1	
320.58	3120.4	
320.79	3705.5	
321	5837.4	
321.21	5911.1	
321.42	3768.9	
321.62	3155.2	
321.83	4888.5	
322.04	5272.8	
322.25	3594.9	
322.46	3456.3	
322.66	5395.7	
322.87	5507	
323.08	4208.6	
323.29	3337.5	
323.5	6223.1	
323.7	4898.7	
323.91	4622.9	
324.12	4160.8	
324.33	5345.9	
324.53	5537	
324.74	3981.3	
324.95	4191.5	
325.16	4739.7	
325.37	5182	
325.57	3390.8	
325.78	3433.1	
325.99	5327.4	
326.2	4785.4	
326.4	4808.6	
326.61	3160	
326.82	5221.6	
327.03	5378	
327.24	4820.9	
327.44	4504.8	
327.65	5532.2	
327.86	4498	
328.07	4005.8	
328.27	3280.2	
328.48	5973.9	
328.69	4887.1	
328.9	4749.2	
329.1	3624.9	
329.31	5158.2	
329.52	6076.3	
329.73	3420.8	
329.93	3843.4	
330.14	5318.6	
330.35	5480.4	
330.56	5552.7	
330.76	4193.6	
330.97	5076.9	
331.18	5466.7	
331.39	3768.3	
331.59	3068.5	
331.8	5819	
332.01	5995.8	
332.22	3508.2	
332.42	3973.1	
332.63	5400.5	
332.84	5021.6	
333.05	3818.8	
333.25	3462.4	
333.46	5003.9	
333.67	5284.4	
333.88	3578.5	
334.08	3904.1	
334.29	6963.1	
334.5	5961	
334.7	3367.5	
334.91	4815.5	
335.12	4852.3	
335.33	5661.3	
335.53	3734.8	
335.74	5517.2	
335.95	5011.4	
336.16	4882.4	
336.36	3738.9	
336.57	4336.2	
336.78	4801.1	
336.98	5861.3	
337.19	4672.1	
337.4	3708.2	
337.61	6313.2	
337.81	4801.8	
338.02	3432.4	
338.23	4448.9	
338.43	5999.2	
338.64	5024.3	
338.85	3445.4	
339.05	4479.6	
339.26	6119.3	
339.47	4765.6	
339.68	3355.9	
339.88	5027.1	
340.09	5549.3	
340.3	5757.5	
340.5	3977.8	
340.71	3063.1	
340.92	4771.1	
341.13	5945.3	
341.33	3302	
341.54	4001	
341.75	5526.8	
341.95	5130.2	
342.16	3842	
342.37	4119.8	
342.57	4894	
342.78	5250.3	
342.99	4223.6	
343.19	3088.3	
343.4	5708.4	
343.61	5518.6	
343.81	3652.2	
344.02	3330.7	
344.23	5636.7	
344.43	6104.3	
344.64	4180.6	
344.85	4094.6	
345.06	5607.3	
345.26	5946.6	
345.47	3871.3	
345.68	4573.8	
345.88	4742.4	
346.09	5746.6	
346.3	3998.3	
346.5	3059	
346.71	5270.1	
346.92	5010.7	
347.12	3131.3	
347.33	3918.4	
347.54	5773.9	
347.74	6199.2	
347.95	3899.3	
348.16	2910.8	
348.36	5073.5	
348.57	4946.5	
348.78	3850.2	
348.98	4128	
349.19	5223	
349.39	4749.2	
349.6	3148.4	
349.81	3472.7	
350.01	5494.7	
350.22	4962.2	
350.43	3741.6	
350.63	4551.3	
350.84	5317.2	
351.05	5016.8	
351.25	3390.8	
351.46	3130	
351.67	5767.1	
351.87	4983.4	
352.08	3707.5	
352.29	4141	
352.49	5746.6	
352.7	5808.7	
352.9	3321.1	
353.11	4143.7	
353.32	6351.4	
353.52	5044.1	
353.73	3266.5	
353.94	4124.6	
354.14	5550	
354.35	5360.9	
354.55	3379.8	
354.76	3705.5	
354.97	5524.1	
355.17	5283.1	
355.38	3218.7	
355.59	4392.2	
355.79	4931.5	
356	5332.9	
356.2	3629.7	
356.41	3295.2	
356.62	4748.6	
356.82	5163.6	
357.03	4040.6	
357.24	3609.9	
357.44	4965.6	
357.65	5114.5	
357.85	4814.1	
358.06	3791.5	
358.27	4697.4	
358.47	4891.2	
358.68	3106.1	
358.88	3977.2	
359.09	5458.5	
359.3	5844.9	
359.5	4626.4	
359.71	4079.6	
359.91	6268.8	
360.12	5595.7	
360.33	3930.7	
360.53	4432.5	
360.74	4943.1	
360.94	5014.8	
361.15	4134.8	
361.36	3413.3	
361.56	5735	
361.77	5167	
361.97	4579.3	
362.18	3644	
362.38	5709.1	
362.59	4859.1	
362.8	3364.1	
363	3193.5	
363.21	4618.2	
363.41	5299.5	
363.62	3833.1	
363.83	4823.6	
364.03	5333.6	
364.24	6223.8	
364.44	4854.4	
364.65	4748.6	
364.85	5107	
365.06	4768.4	
365.27	3548.4	
365.47	3544.4	
365.68	6169.2	
365.88	5090.6	
366.09	3877.5	
366.29	3579.2	
366.5	5287.9	
366.71	5797.8	
366.91	4841.4	
367.12	3997	
367.32	6289.3	
367.53	5582.1	
367.73	4014.7	
367.94	4894.6	
368.14	5569.1	
368.35	6372.6	
368.56	3919.8	
368.76	3416.7	
368.97	5657.9	
369.17	7275.8	
369.38	3493.8	
369.58	3801	
369.79	4743.1	
369.99	6042.2	
370.2	4732.2	
370.4	3834.5	
370.61	5445.5	
370.82	6498.9	
371.02	3794.2	
371.23	3130.7	
371.43	4684.4	
371.64	5941.2	
371.84	3794.2	
372.05	4874.2	
372.25	7131.7	
372.46	5653.8	
372.66	3744.4	
372.87	3753.2	
373.07	5723.4	
373.28	7220.5	
373.48	4664.6	
373.69	4444.8	
373.9	5256.5	
374.1	5221	
374.31	4610	
374.51	4177.9	
374.72	5930.2	
374.92	4893.3	
375.13	4758.8	
375.33	4039.3	
375.54	5494.7	
375.74	5054.4	
375.95	4074.8	
376.15	5233.9	
376.36	5567.7	
376.56	5400.5	
376.77	4167.6	
376.97	4518.5	
377.18	6517.3	
377.38	5623	
377.59	4855.7	
377.79	3648.8	
378	5442.8	
378.2	5831.9	
378.41	3676.1	
378.61	3605.8	
378.82	5863.3	
379.02	5044.8	
379.23	3813.3	
379.43	4882.4	
379.64	5936.4	
379.84	5589.6	
380.05	3743	
380.25	3691.8	
380.46	5647.6	
380.66	5220.3	
380.87	4966.3	
381.07	5294.7	
381.28	6294.8	
381.48	5681.7	
381.69	3704.8	
381.89	3766.2	
382.1	4726.7	
382.3	5795.8	
382.51	4781.3	
382.71	5662.6	
382.91	5698.8	
383.12	6151.4	
383.32	4052.9	
383.53	4300.7	
383.73	5582.8	
383.94	5416.9	
384.14	4214.7	
384.35	3408.5	
384.55	5303.6	
384.76	5680.4	
384.96	4098	
385.17	4328.7	
385.37	5734.3	
385.58	5047.6	
385.78	4453	
385.98	3301.3	
386.19	5246.2	
386.39	5606	
386.6	3839.3	
386.8	4115.7	
387.01	5707	
387.21	5703.6	
387.42	4448.2	
387.62	4998.4	
387.83	5130.2	
388.03	5643.5	
388.23	4128	
388.44	4872.1	
388.64	4881	
388.85	4918.5	
389.05	4489.1	
389.26	5023	
389.46	6684.6	
389.67	6118	
389.87	4388.1	
390.07	4571.1	
390.28	5358.2	
390.48	5056.4	
390.69	3691.8	
390.89	4023.6	
391.1	5111.7	
391.3	6042.9	
391.5	5158.2	
391.71	5710.4	
391.91	5771.2	
392.12	6747.4	
392.32	5190.9	
392.53	4371.7	
392.73	5264	
392.93	5361.6	
393.14	4128	
393.34	4932.2	
393.55	5897.5	
393.75	5408.7	
393.95	4170.3	
394.16	4065.9	
394.36	5153.4	
394.57	5782.1	
394.77	3676.1	
394.98	4089.1	
395.18	5110.4	
395.38	5216.2	
395.59	4866	
395.79	3923.9	
396	5237.3	
396.2	5646.9	
396.4	4685.8	
396.61	4641.4	
396.81	5854.5	
397.02	5167.7	
397.22	4827.1	
397.42	4925.4	
397.63	5868.8	
397.83	5124.7	
398.04	3830.4	
398.24	4334.2	
398.44	5618.3	
398.65	4764.3	
398.85	3683.6	
399.05	3838.6	
399.26	5094	
399.46	6683.9	
399.67	4177.2	
399.87	3865.9	
400.07	5414.1	
400.28	5778	
400.48	3943.7	
400.69	4926	
400.89	5988.3	
401.09	6387.6	
401.3	3888.4	
401.5	4928.8	
401.7	6545.3	
401.91	6801.3	
402.11	4204.5	
402.32	4439.3	
402.52	6010.1	
402.72	5911.8	
402.93	4640.7	
403.13	3622.2	
403.33	6758.3	
403.54	5542.5	
403.74	4373.1	
403.94	5190.9	
404.15	5613.5	
404.35	6705.7	
404.56	4129.4	
404.76	5812.8	
404.96	5980.8	
405.17	5736.4	
405.37	5359.5	
405.57	4620.2	
405.78	5920.7	
405.98	5530.9	
406.18	4201.7	
406.39	5001.1	
406.59	5961.6	
406.79	5627.1	
407	3946.4	
407.2	4051.6	
407.4	6004.6	
407.61	6196.5	
407.81	4106.9	
408.01	6023.1	
408.22	5018.2	
408.42	6905.8	
408.62	5074.2	
408.83	4504.8	
409.03	5586.2	
409.23	5410.7	
409.44	4615.4	
409.64	4952.7	
409.84	6350.1	
410.05	6412.9	
410.25	4735.6	
410.45	4597	
410.66	5809.4	
410.86	8208.3	
411.06	4870.1	
411.27	4798.4	
411.47	7954.3	
411.67	6009.4	
411.88	5029.8	
412.08	5160.9	
412.28	6627.2	
412.49	7080.5	
412.69	4768.4	
412.89	4844.1	
413.09	6938.5	
413.3	6771.3	
413.5	4942.4	
413.7	4487.8	
413.91	6122.7	
414.11	6935.8	
414.31	4739.7	
414.52	5170.4	
414.72	6635.4	
414.92	6500.3	
415.12	4700.8	
415.33	5170.4	
415.53	6904.4	
415.73	7064.1	
415.94	5569.1	
416.14	4990.2	
416.34	5909.1	
416.55	5586.9	
416.75	6238.8	
416.95	5638.7	
417.15	6888	
417.36	7623.9	
417.56	6395.1	
417.76	5481.7	
417.97	7244.3	
418.17	6888.7	
418.37	5033.2	
418.57	5164.3	
418.78	6767.2	
418.98	6492.7	
419.18	5962.3	
419.38	5874.3	
419.59	6500.3	
419.79	6087.2	
419.99	5021.6	
420.2	5390.3	
420.4	6965.8	
420.6	7096.2	
420.8	4941.7	
421.01	4852.3	
421.21	6770.6	
421.41	6929	
421.61	5338.4	
421.82	5023.7	
422.02	6356.9	
422.22	7177.4	
422.42	5743.2	
422.63	5537.7	
422.83	6500.3	
423.03	7608.9	
423.23	5505.6	
423.44	4513	
423.64	6519.4	
423.84	6321.4	
424.04	4986.1	
424.25	4670.7	
424.45	7412.3	
424.65	7362.4	
424.85	4502.8	
425.06	5030.5	
425.26	7372	
425.46	5943.2	
425.66	5486.5	
425.87	5249.6	
426.07	7176.8	
426.27	7000.6	
426.47	5406	
426.67	4720.6	
426.88	7513.3	
427.08	6910.5	
427.28	5568.4	
427.48	4641.4	
427.69	5910.4	
427.89	6466.1	
428.09	5548.6	
428.29	4764.9	
428.5	7180.9	
428.7	6750.1	
428.9	4618.9	
429.1	5098.8	
429.3	6733.7	
429.51	7051.2	
429.71	4965.6	
429.91	5742.5	
430.11	6968.6	
430.31	7209.5	
430.52	5126.7	
430.72	5459.9	
430.92	7514.7	
431.12	6981.5	
431.32	4917.2	
431.53	5301.5	
431.73	5956.9	
431.93	7512.6	
432.13	4785.4	
432.33	4801.8	
432.54	6425.8	
432.74	6764.4	
432.94	4726	
433.14	5676.3	
433.34	7027.3	
433.55	6468.2	
433.75	5609.4	
433.95	7283.3	
434.15	6763.1	
434.35	6450.4	
434.56	4876.9	
434.76	4468.7	
434.96	6715.3	
435.16	6976.1	
435.36	4764.3	
435.56	5853.8	
435.77	6365.8	
435.97	6573.3	
436.17	6519.4	
436.37	5767.1	
436.57	6410.1	
436.78	6350.1	
436.98	7435.5	
437.18	6374	
437.38	7105.1	
437.58	6616.3	
437.78	6469.5	
437.99	5208.7	
438.19	7078.5	
438.39	7885.4	
438.59	5148.6	
438.79	4671.4	
438.99	7740	
439.2	6546	
439.4	4780.6	
439.6	4678.9	
439.8	6864.1	
440	7858.1	
440.2	5708.4	
440.4	5741.8	
440.61	7258	
440.81	7731.1	
441.01	5047.6	
441.21	5817.6	
441.41	7641.7	
441.61	7277.8	
441.81	6042.2	
442.02	7040.9	
442.22	8137.9	
442.42	7443.7	
442.62	5068	
442.82	5106.3	
443.02	7720.8	
443.22	6843.6	
443.43	5564.3	
443.63	5107.6	
443.83	6607.4	
444.03	6662.7	
444.23	6246.3	
444.43	5896.8	
444.63	7019.1	
444.83	8159.1	
445.04	5210	
445.24	6403.3	
445.44	7425.9	
445.64	7505.1	
445.84	6034	
446.04	5961.6	
446.24	6806.1	
446.44	7707.9	
446.65	5180	
446.85	5563.6	
447.05	6867.5	
447.25	7675.1	
447.45	5712.5	
447.65	5025	
447.85	7045	
448.05	6735.1	
448.25	6066.8	
448.46	5898.1	
448.66	7038.9	
448.86	6787	
449.06	4989.5	
449.26	6055.2	
449.46	7411.6	
449.66	6503	
449.86	5581.4	
450.06	5534.3	
450.26	6660	
450.47	7269.6	
450.67	5830.6	
450.87	6201.9	
451.07	7382.9	
451.27	7133.8	
451.47	5224.4	
451.67	5681.7	
451.87	6849.1	
452.07	7893.6	
452.27	5466	
452.47	5406.6	
452.67	7170.6	
452.88	7659.4	
453.08	4826.4	
453.28	6712.6	
453.48	8243.8	
453.68	7096.2	
453.88	5319.9	
454.08	5520	
454.28	7496.9	
454.48	7137.2	
454.68	6051.1	
454.88	6608.8	
455.08	7557	
455.28	7375.4	
455.48	5186.1	
455.68	5883.8	
455.89	8054.7	
456.09	7709.2	
456.29	5552.7	
456.49	5644.2	
456.69	7950.9	
456.89	7195.2	
457.09	6132.3	
457.29	6488.6	
457.49	7568.6	
457.69	7664.9	
457.89	6049.7	
458.09	5371.8	
458.29	7346.1	
458.49	8018.5	
458.69	6450.4	
458.89	5840.8	
459.09	8300.4	
459.29	8399.4	
459.49	5907.7	
459.69	6659.3	
459.9	7841	
460.1	7408.9	
460.3	5877.7	
460.5	5619.6	
460.7	7860.1	
460.9	7516	
461.1	5283.8	
461.3	6521.4	
461.5	8514.8	
461.7	8031.5	
461.9	5788.9	
462.1	6244.9	
462.3	7605.5	
462.5	8196	
462.7	5806.7	
462.9	5966.4	
463.1	9045.9	
463.3	8908	
463.5	6157.6	
463.7	7079.8	
463.9	7862.2	
464.1	8157.1	
464.3	6277	
464.5	6562.4	
464.7	8535.3	
464.9	8164.6	
465.1	7692.2	
465.3	6827.2	
465.5	8768.7	
465.7	8744.1	
465.9	7057.3	
466.1	6928.3	
466.3	8652.7	
466.5	8381	
466.7	7712.7	
466.9	6725.5	
467.1	8404.9	
467.3	9355.8	
467.5	7703.1	
467.7	6579.4	
467.9	9490.3	
468.1	10383	
468.3	7470.3	
468.5	7877.9	
468.7	8500.4	
468.9	8409.6	
469.1	6931.7	
469.3	7690.1	
469.5	10337	
469.7	8041.7	
469.9	7419.1	
470.1	6780.1	
470.3	8453.3	
470.5	8518.9	
470.7	7958.4	
470.9	6839.5	
471.1	8223.3	
471.3	8735.3	
471.5	6670.2	
471.69	8499.1	
471.89	8147.5	
472.09	7671	
472.29	7514.7	
472.49	7728.4	
472.69	7956.4	
472.89	8823.3	
473.09	6613.6	
473.29	6749.4	
473.49	8058.1	
473.69	8160.5	
473.89	7617.8	
474.09	6803.4	
474.29	9488.9	
474.49	9162.6	
474.69	7619.1	
474.89	6985.6	
475.09	8275.2	
475.29	8227.4	
475.49	6487.3	
475.69	6709.1	
475.88	9825.5	
476.08	8512	
476.28	6437.4	
476.48	6872.3	
476.68	8943.5	
476.88	8821.3	
477.08	6692.1	
477.28	7060.7	
477.48	8364.6	
477.68	8894.3	
477.88	6560.3	
478.08	6846.4	
478.28	9301.2	
478.48	8415.1	
478.67	6906.4	
478.87	6315.3	
479.07	9024	
479.27	8634.2	
479.47	7123.5	
479.67	7153.6	
479.87	8921	
480.07	9444.5	
480.27	6383.5	
480.47	7897.7	
480.67	8585.8	
480.87	9207	
481.06	6647.7	
481.26	7499.7	
481.46	8552.3	
481.66	8540	
481.86	7165.8	
482.06	8110	
482.26	8275.8	
482.46	9314.8	
482.66	7065.5	
482.86	6640.2	
483.05	8734.6	
483.25	8131.1	
483.45	9304.6	
483.65	7157.7	
483.85	8239.7	
484.05	8580.3	
484.25	7526.3	
484.45	8021.2	
484.65	9381.1	
484.84	9379	
485.04	6991.8	
485.24	7129	
485.44	9676	
485.64	8069	
485.84	6454.5	
486.04	7777.5	
486.24	8458.8	
486.44	8832.2	
486.63	6432	
486.83	7167.9	
487.03	8413.7	
487.23	8520.2	
487.43	6512.5	
487.63	8736.6	
487.83	8667	
488.02	9527.2	
488.22	7491.5	
488.42	8105.2	
488.62	9500.5	
488.82	8483.4	
489.02	7168.6	
489.22	7167.2	
489.41	9430.2	
489.61	9017.2	
489.81	6875.7	
490.01	7018.4	
490.21	9310.7	
490.41	9869.8	
490.61	6861.4	
490.8	7064.1	
491	8973.5	
491.2	8183	
491.4	7668.3	
491.6	6706.4	
491.8	8867.7	
491.99	8954.4	
492.19	6588.3	
492.39	6939.2	
492.59	9280.7	
492.79	9340.1	
492.99	7694.2	
493.18	6864.1	
493.38	9463.7	
493.58	10267	
493.78	7666.9	
493.98	7354.3	
494.18	9178.3	
494.37	8713.4	
494.57	7840.3	
494.77	7874.4	
494.97	9439.8	
495.17	9709.4	
495.37	7422.5	
495.56	7854	
495.76	9931.3	
495.96	9637.1	
496.16	8632.2	
496.36	7656	
496.55	9830.9	
496.75	9424.8	
496.95	8072.4	
497.15	7861.5	
497.35	9762	
497.54	9787.9	
497.74	7658.7	
497.94	9260.9	
498.14	10436	
498.34	10264	
498.53	7455.3	
498.73	8129.8	
498.93	9234.3	
499.13	9805	
499.33	7972.7	
499.52	8637	
499.72	9807	
499.92	10122	
500.12	7742	
500.32	8019.8	
500.51	10081	
500.71	9834.3	
500.91	8853.4	
501.11	8488.1	
501.31	9954.5	
501.5	10348	
501.7	9013.1	
501.9	8073.8	
502.1	9758.6	
502.29	10137	
502.49	8670.4	
502.69	9066.4	
502.89	10091	
503.09	10113	
503.28	7562.5	
503.48	7750.2	
503.68	9304.6	
503.88	9290.3	
504.07	8743.5	
504.27	8120.9	
504.47	9712.8	
504.67	9910.1	
504.86	8681.3	
505.06	8335.2	
505.26	9431.6	
505.46	11104	
505.65	8174.8	
505.85	8434.9	
506.05	9255.5	
506.25	9716.9	
506.44	7537.2	
506.64	8436.3	
506.84	9193.3	
507.04	10097	
507.23	7754.3	
507.43	8297	
507.63	11069	
507.83	9408.4	
508.02	8232.8	
508.22	7838.9	
508.42	11399	
508.62	9244.5	
508.81	8190.5	
509.01	8712.1	
509.21	9045.2	
509.4	9362.6	
509.6	8342.1	
509.8	7664.9	
510	9269.1	
510.19	10699	
510.39	7671	
510.59	7817.8	
510.79	9260.2	
510.98	10570	
511.18	7906.5	
511.38	7987.1	
511.57	10058	
511.77	9852.1	
511.97	8594.6	
512.17	7653.9	
512.36	10088	
512.56	9880.1	
512.76	7746.8	
512.95	7449.8	
513.15	10028	
513.35	8736.6	
513.55	8587.1	
513.74	7742	
513.94	10101	
514.14	9420.7	
514.33	8639.7	
514.53	8419.2	
514.73	9413.1	
514.92	9653.4	
515.12	7858.1	
515.32	7741.3	
515.51	9706.7	
515.71	10157	
515.91	9437	
516.11	7793.2	
516.3	11337	
516.5	9301.2	
516.7	8351.6	
516.89	8912.8	
517.09	9486.9	
517.29	9357.2	
517.48	8659.5	
517.68	8041	
517.88	9116.9	
518.07	9855.5	
518.27	8589.2	
518.47	7637.6	
518.66	10329	
518.86	9029.5	
519.06	7496.2	
519.25	7886	
519.45	9374.2	
519.65	10866	
519.84	8595.3	
520.04	9257.5	
520.24	11183	
520.43	9963.4	
520.63	8303.8	
520.83	8065.6	
521.02	9336	
521.22	9852.8	
521.42	8440.4	
521.61	9026.1	
521.81	9454.1	
522.01	9590.6	
522.2	8329.8	
522.4	8151.6	
522.6	10108	
522.79	8964.6	
522.99	8189.8	
523.18	7581.6	
523.38	9910.8	
523.58	9863.7	
523.77	9542.2	
523.97	7632.1	
524.17	11673	
524.36	10894	
524.56	8970.8	
524.76	8667	
524.95	9972.2	
525.15	9643.9	
525.34	8544.1	
525.54	8564.6	
525.74	10346	
525.93	9410.4	
526.13	9696.4	
526.33	8462.9	
526.52	10792	
526.72	10262	
526.91	9736	
527.11	8947.6	
527.31	10690	
527.5	11125	
527.7	9017.9	
527.89	8013	
528.09	9779.7	
528.29	10277	
528.48	9288.9	
528.68	8890.9	
528.87	10628	
529.07	10701	
529.27	9011.7	
529.46	8475.2	
529.66	10385	
529.85	10811	
530.05	8365.3	
530.25	9186.5	
530.44	11812	
530.64	10258	
530.83	8703.2	
531.03	8983.1	
531.23	10703	
531.42	10526	
531.62	9643.2	
531.81	8881.4	
532.01	10931	
532.21	11318	
532.4	8737.3	
532.6	9102.5	
532.79	11775	
532.99	11037	
533.18	9222	
533.38	10198	
533.58	10559	
533.77	11200	
533.97	9245.9	
534.16	9953.1	
534.36	11596	
534.55	10727	
534.75	10127	
534.95	9245.9	
535.14	11477	
535.34	10766	
535.53	8948.3	
535.73	10844	
535.92	11964	
536.12	10789	
536.31	9058.8	
536.51	10100	
536.71	11049	
536.9	10546	
537.1	9171.5	
537.29	9280.7	
537.49	11461	
537.68	10593	
537.88	9751.7	
538.07	8884.8	
538.27	10843	
538.46	11803	
538.66	8764.6	
538.86	9295	
539.05	10768	
539.25	11273	
539.44	9630.2	
539.64	9103.9	
539.83	10743	
540.03	11661	
540.22	9043.1	
540.42	9234.3	
540.61	10963	
540.81	11009	
541	9545.6	
541.2	10174	
541.39	10589	
541.59	10917	
541.78	9945.6	
541.98	9026.1	
542.18	10217	
542.37	10176	
542.57	9442.5	
542.76	9929.9	
542.96	10305	
543.15	10944	
543.35	9415.9	
543.54	8787.8	
543.74	11124	
543.93	10751	
544.13	9202.2	
544.32	10286	
544.52	10966	
544.71	10271	
544.91	8402.8	
545.1	9596.8	
545.3	10321	
545.49	10998	
545.69	8456.1	
545.88	9039.1	
546.08	11911	
546.27	11347	
546.47	9402.9	
546.66	8802.2	
546.86	11142	
547.05	11758	
547.24	9045.9	
547.44	8918.2	
547.63	10148	
547.83	11322	
548.02	9396.1	
548.22	9514.2	
548.41	9937.4	
548.61	11247	
548.8	8796.7	
549	8747.6	
549.19	10557	
549.39	10859	
549.58	8439.7	
549.78	9000.8	
549.97	10909	
550.17	10424	
550.36	9775	
550.55	10797	
550.75	10340	
550.94	11232	
551.14	8688.8	
551.33	8962.6	
551.53	9721	
551.72	10754	
551.92	9028.1	
552.11	8796	
552.31	10699	
552.5	10765	
552.69	10348	
552.89	8483.4	
553.08	10687	
553.28	10417	
553.47	8772.8	
553.67	9886.2	
553.86	11293	
554.06	9643.9	
554.25	8006.9	
554.44	8519.6	
554.64	11992	
554.83	11525	
555.03	8503.8	
555.22	8894.3	
555.42	10945	
555.61	10611	
555.8	8671.8	
556	8924.4	
556.19	9795.4	
556.39	11020	
556.58	8765.3	
556.78	8709.3	
556.97	10444	
557.16	10086	
557.36	9957.2	
557.55	8329.8	
557.75	9530.6	
557.94	11244	
558.13	8421.9	
558.33	8269	
558.52	10979	
558.72	9897.8	
558.91	8393.9	
559.1	8586.5	
559.3	9646.6	
559.49	9351.7	
559.69	7997.3	
559.88	8939.4	
560.07	10419	
560.27	10763	
560.46	9082.7	
560.66	9265.7	
560.85	10225	
561.04	9436.4	
561.24	8309.3	
561.43	8405.5	
561.63	9690.3	
561.82	9876.7	
562.01	9730.6	
562.21	8736.6	
562.4	10322	
562.59	11298	
562.79	8624	
562.98	8220.5	
563.18	10252	
563.37	11660	
563.56	9131.2	
563.76	8209.6	
563.95	9815.2	
564.14	9737.4	
564.34	8725	
564.53	8414.4	
564.73	10314	
564.92	10641	
565.11	8888.9	
565.31	8198	
565.5	10866	
565.69	9850	
565.89	8508.6	
566.08	8698.4	
566.27	10776	
566.47	11107	
566.66	9407.7	
566.85	8118.1	
567.05	10467	
567.24	9825.5	
567.44	8375.5	
567.63	9653.4	
567.82	10658	
568.02	10461	
568.21	8391.9	
568.4	8753.7	
568.6	10282	
568.79	10144	
568.98	8314.1	
569.18	8439.7	
569.37	10305	
569.56	12157	
569.76	8826.7	
569.95	9747.6	
570.14	10611	
570.34	10581	
570.53	8351.6	
570.72	8367.3	
570.91	11180	
571.11	10205	
571.3	8832.2	
571.49	9775.6	
571.69	10335	
571.88	9895.8	
572.07	9384.5	
572.27	9389.9	
572.46	9849.4	
572.65	10813	
572.85	8583	
573.04	8967.4	
573.23	11055	
573.43	10468	
573.62	8457.4	
573.81	9058.2	
574	10502	
574.2	10337	
574.39	8821.3	
574.58	8910	
574.78	11349	
574.97	10608	
575.16	9440.5	
575.36	9559.2	
575.55	10961	
575.74	11189	
575.93	8480.6	
576.13	9601.6	
576.32	10524	
576.51	10986	
576.71	9047.9	
576.9	10161	
577.09	11329	
577.28	10882	
577.48	9322.4	
577.67	8421.2	
577.86	10499	
578.05	10832	
578.25	9033.6	
578.44	9215.2	
578.63	10669	
578.83	11876	
579.02	8469	
579.21	9954.5	
579.4	10932	
579.6	10471	
579.79	9311.4	
579.98	11292	
580.17	11125	
580.37	11245	
580.56	8785.8	
580.75	9529.9	
580.94	11675	
581.14	11577	
581.33	9949.7	
581.52	8791.2	
581.71	10963	
581.91	11669	
582.1	8673.1	
582.29	9209.7	
582.48	10761	
582.68	10631	
582.87	9719	
583.06	9306	
583.25	11045	
583.45	10464	
583.64	9985.9	
583.83	10602	
584.02	10630	
584.21	10981	
584.41	9911.5	
584.6	9249.3	
584.79	10673	
584.98	11528	
585.18	8690.2	
585.37	8637	
585.56	10264	
585.75	11033	
585.94	8847.2	
586.14	9585.2	
586.33	11578	
586.52	10669	
586.71	9373.6	
586.91	9118.2	
587.1	9987.9	
587.29	11066	
587.48	8959.2	
587.67	8922.3	
587.87	10899	
588.06	10963	
588.25	10171	
588.44	9502.6	
588.63	10484	
588.83	11135	
589.02	8972.2	
589.21	8762.6	
589.4	10361	
589.59	10307	
589.78	8058.8	
589.98	8255.4	
590.17	9788.6	
590.36	10329	
590.55	7740	
590.74	8303.8	
590.94	11385	
591.13	10051	
591.32	8191.9	
591.51	7728.4	
591.7	10425	
591.89	10019	
592.09	7867.6	
592.28	8439	
592.47	9407.7	
592.66	11172	
592.85	8034.2	
593.05	8164.6	
593.24	9964.1	
593.43	10791	
593.62	8319.5	
593.81	8607.6	
594	9907.4	
594.19	10183	
594.39	8145.5	
594.58	8087.4	
594.77	10315	
594.96	10875	
595.15	8041	
595.34	8660.9	
595.54	10291	
595.73	9346.9	
595.92	7408.2	
596.11	8538	
596.3	10730	
596.49	9465	
596.68	8290.9	
596.88	8652	
597.07	10350	
597.26	9275.3	
597.45	7701	
597.64	8982.4	
597.83	9607	
598.02	10078	
598.22	7821.9	
598.41	8503.2	
598.6	9902.6	
598.79	9325.8	
598.98	7804.1	
599.17	8718.2	
599.36	9921.7	
599.55	11011	
599.74	9828.9	
599.94	9676	
600.13	10405	
600.32	9259.5	
600.51	7559.7	
600.7	7734.5	
600.89	10978	
601.08	11081	
601.27	7492.2	
601.47	8424.7	
601.66	10320	
601.85	10913	
602.04	8171.4	
602.23	8314.1	
602.42	9411.8	
602.61	10017	
602.8	8095.6	
602.99	7806.9	
603.18	9648	
603.37	9927.2	
603.57	8442.4	
603.76	8999.5	
603.95	10677	
604.14	10240	
604.33	7952.3	
604.52	8279.9	
604.71	9936.1	
604.9	9599.5	
605.09	8931.9	
605.28	8609	
605.47	10427	
605.66	10145	
605.86	8320.9	
606.05	7911.3	
606.24	10489	
606.43	9020.6	
606.62	8216.5	
606.81	8895.7	
607	10296	
607.19	9741.5	
607.38	7622.5	
607.57	7907.2	
607.76	9518.3	
607.95	8952.4	
608.14	8286.1	
608.33	8886.1	
608.52	9387.9	
608.72	10246	
608.91	7527.7	
609.1	7482.6	
609.29	9478.7	
609.48	9002.9	
609.67	8404.9	
609.86	7538.6	
610.05	9187.2	
610.24	9387.9	
610.43	7360.4	
610.62	7094.2	
610.81	10478	
611	10250	
611.19	7475.1	
611.38	8208.3	
611.57	9600.2	
611.76	10970	
611.95	7249.8	
612.14	7144	
612.33	9486.9	
612.52	9037.7	
612.71	7759.8	
612.9	7038.9	
613.09	8617.9	
613.28	10930	
613.47	7607.5	
613.66	8400.1	
613.85	9581.8	
614.04	9146.2	
614.24	7564.5	
614.43	6856.6	
614.62	9735.4	
614.81	9629.5	
615	8208.9	
615.19	8116.8	
615.38	8931.2	
615.57	9436.4	
615.76	7962.5	
615.95	9018.6	
616.14	9786.6	
616.33	9382.4	
616.52	8337.3	
616.71	8529.8	
616.9	9705.3	
617.09	9526.5	
617.28	7654.6	
617.47	8890.9	
617.66	8877.9	
617.85	8905.3	
618.04	8619.2	
618.22	8147.5	
618.41	9240.4	
618.6	10119	
618.79	7920.9	
618.98	7764.5	
619.17	10429	
619.36	8805.6	
619.55	7930.4	
619.74	7944.8	
619.93	9768.1	
620.12	9202.9	
620.31	8504.5	
620.5	8591.9	
620.69	10311	
620.88	10742	
621.07	9355.1	
621.26	8354.3	
621.45	9937.4	
621.64	10001	
621.83	8563.9	
622.02	7790.5	
622.21	9997.5	
622.4	9651.4	
622.59	9116.2	
622.78	8936	
622.97	9394	
623.16	10295	
623.35	8546.9	
623.54	7674.4	
623.72	9673.9	
623.91	9792.7	
624.1	8783.7	
624.29	7480.5	
624.48	10749	
624.67	10022	
624.86	8667.7	
625.05	7740	
625.24	10935	
625.43	9328.5	
625.62	10281	
625.81	7963.9	
626	10481	
626.19	9658.2	
626.38	8749.6	
626.56	8199.4	
626.75	9514.2	
626.94	10336	
627.13	8708	
627.32	7501	
627.51	10112	
627.7	11378	
627.89	7611.6	
628.08	8757.8	
628.27	9395.4	
628.46	9588.6	
628.65	7921.5	
628.83	7565.9	
629.02	10033	
629.21	9435	
629.4	8286.8	
629.59	8532.5	
629.78	9467.1	
629.97	10331	
630.16	8600.8	
630.35	8025.3	
630.54	10724	
630.72	10337	
630.91	8091.5	
631.1	8588.5	
631.29	9912.9	
631.48	10023	
631.67	8615.8	
631.86	8133.8	
632.05	9518.3	
632.24	9582.4	
632.42	7648.5	
632.61	8355	
632.8	9596.8	
632.99	9274.6	
633.18	8375.5	
633.37	8722.3	
633.56	9912.9	
633.75	9769.5	
633.93	8373.5	
634.12	8068.3	
634.31	10565	
634.5	10256	
634.69	8116.8	
634.88	8469	
635.07	9671.9	
635.25	10216	
635.44	8940.1	
635.63	9133.9	
635.82	9605.7	
636.01	9072.5	
636.2	8817.2	
636.39	8438.3	
636.57	10603	
636.76	10286	
636.95	7931.8	
637.14	9272.5	
637.33	9915.6	
637.52	10820	
637.7	7684.7	
637.89	8561.9	
638.08	9514.9	
638.27	10891	
638.46	8671.8	
638.65	9002.9	
638.83	10858	
639.02	9354.4	
639.21	8498.4	
639.4	8970.8	
639.59	9745.6	
639.78	9346.9	
639.96	7821.9	
640.15	7799.3	
640.34	9657.5	
640.53	9769.5	
640.72	7585	
640.91	7987.1	
641.09	9000.1	
641.28	10266	
641.47	7787.1	
641.66	8536.6	
641.85	9726.5	
642.03	9959.3	
642.22	8383.7	
642.41	7955	
642.6	9082.1	
642.79	8544.1	
642.97	7604.1	
643.16	8430.8	
643.35	9176.3	
643.54	8870.4	
643.73	7636.9	
643.91	8365.3	
644.1	8741.4	
644.29	9417.2	
644.48	7742.7	
644.67	7639.6	
644.85	8950.3	
645.04	9247.3	
645.23	7253.2	
645.42	7590.5	
645.6	8802.9	
645.79	9870.5	
645.98	7484	
646.17	6645	
646.36	8521.6	
646.54	9072.5	
646.73	8155	
646.92	7016.3	
647.11	8674.5	
647.29	9682.8	
647.48	7109.9	
647.67	6931.7	
647.86	9819.3	
648.05	9901.2	
648.23	7368.6	
648.42	8641.7	
648.61	9239.8	
648.8	8955.8	
648.98	7028.6	
649.17	7358.4	
649.36	8602.8	
649.55	8183	
649.73	7093.5	
649.92	7797.3	
650.11	8475.2	
650.3	8790.6	
650.48	7233.4	
650.67	6991.1	
650.86	9096.4	
651.05	8045.1	
651.23	7214.3	
651.42	7038.9	
651.61	8623.3	
651.79	8622.6	
651.98	7325.6	
652.17	6892.1	
652.36	8964.6	
652.54	8047.2	
652.73	7037.5	
652.92	6804	
653.11	8989.2	
653.29	8994.7	
653.48	6318	
653.67	7192.5	
653.85	8710.7	
654.04	9641.2	
654.23	7444.4	
654.42	6957.6	
654.6	8145.5	
654.79	8794.7	
654.98	6417	
655.16	6881.9	
655.35	7684	
655.54	7700.4	
655.73	6403.3	
655.91	6348	
656.1	8715.5	
656.29	7660.1	
656.47	5946.6	
656.66	7577.5	
656.85	7953.6	
657.03	7998	
657.22	6559.6	
657.41	6625.2	
657.59	8098.4	
657.78	8005.5	
657.97	6260	
658.16	7023.2	
658.34	8729.1	
658.53	9076.6	
658.72	7798	
658.9	8284.7	
659.09	8049.2	
659.28	8216.5	
659.46	6683.9	
659.65	6671.6	
659.84	8009.6	
660.02	8492.2	
660.21	6584.9	
660.4	6481.8	
660.58	8949.6	
660.77	8359.8	
660.96	7128.3	
661.14	6209.4	
661.33	9438.4	
661.52	9282.1	
661.7	6133.7	
661.89	9670.5	
662.08	7920.2	
662.26	7597.3	
662.45	6470.2	
662.64	6437.4	
662.82	8587.8	
663.01	7847.1	
663.2	6490.7	
663.38	7223.9	
663.57	8443.1	
663.75	8309.3	
663.94	6797.2	
664.13	7995.3	
664.31	7875.8	
664.5	8606.9	
664.69	6988.4	
664.87	7617.1	
665.06	7666.2	
665.25	8309.3	
665.43	7746.1	
665.62	7886	
665.8	8549.6	
665.99	7996.6	
666.18	6797.9	
666.36	6922.1	
666.55	8510	
666.74	8457.4	
666.92	6532.3	
667.11	8051.2	
667.29	7908.6	
667.48	8486.8	
667.67	7728.4	
667.85	6657.3	
668.04	8032.1	
668.22	8028.7	
668.41	6941.2	
668.6	6993.1	
668.78	7820.5	
668.97	7913.4	
669.15	7075.7	
669.34	6219.7	
669.53	7903.8	
669.71	8120.2	
669.9	6329.6	
670.08	6950.1	
670.27	7697.6	
670.46	8308.6	
670.64	7171.3	
670.83	7431.4	
671.01	7579.5	
671.2	8213.7	
671.38	6446.3	
671.57	6302.3	
671.76	8812.4	
671.94	9296.4	
672.13	6171.9	
672.31	7292.1	
672.5	8382.3	
672.69	7818.5	
672.87	6390.3	
673.06	6748.7	
673.24	8295.6	
673.43	7844.4	
673.61	7147.4	
673.8	6616.3	
673.98	8428.1	
674.17	8619.2	
674.36	7200	
674.54	7089.4	
674.73	8178.9	
674.91	8416.5	
675.1	6781.5	
675.28	6435.4	
675.47	7968.6	
675.65	8490.2	
675.84	6703.7	
676.03	6979.5	
676.21	7797.3	
676.4	7331	
676.58	7492.2	
676.77	7131	
676.95	9265	
677.14	7770	
677.32	6335.7	
677.51	6159.6	
677.69	8525	
677.88	7475.8	
678.06	6213.5	
678.25	6298.2	
678.44	8060.1	
678.62	7774.1	
678.81	6126.2	
678.99	6955.6	
679.18	8773.5	
679.36	8279.3	
679.55	6568.5	
679.73	7212.3	
679.92	8319.5	
680.1	7831.4	
680.29	7841	
680.47	6663.4	
680.66	7749.5	
680.84	8468.4	
681.03	5971.9	
681.21	6993.8	
681.4	7737.9	
681.58	7636.2	
681.77	6412.2	
681.95	6294.8	
682.14	8459.5	
682.32	8899.8	
682.51	7255.3	
682.69	6094.8	
682.88	7679.9	
683.06	8271.7	
683.25	6931	
683.43	7372	
683.62	7918.8	
683.8	8381	
683.99	7417.1	
684.17	6737.8	
684.36	9047.9	
684.54	7872.4	
684.73	6023.8	
684.91	6220.4	
685.1	8048.5	
685.28	7527	
685.46	6616.3	
685.65	6733	
685.83	8302.5	
686.02	7642.3	
686.2	6200.6	
686.39	6261.3	
686.57	7319.4	
686.76	8953	
686.94	6227.2	
687.13	6390.3	
687.31	8148.9	
687.5	7668.3	
687.68	5831.9	
687.86	6965.8	
688.05	9329.2	
688.23	7201.3	
688.42	7163.8	
688.6	6223.8	
688.79	7615	
688.97	7643	
689.16	6731.7	
689.34	5670.1	
689.52	8409	
689.71	8613.1	
689.89	6950.8	
690.08	6274.3	
690.26	7859.4	
690.45	7849.2	
690.63	7180.9	
690.81	6412.2	
691	7707.2	
691.18	7598	
691.37	6660	
691.55	8680	
691.74	7499.7	
691.92	9455.5	
692.1	6510.5	
692.29	5983.5	
692.47	7751.6	
692.66	7068.2	
692.84	6220.4	
693.02	6669.6	
693.21	7236.8	
693.39	7743.4	
693.58	6814.3	
693.76	6264.7	
693.94	8867	
694.13	8613.8	
694.31	6289.3	
694.5	7290.8	
694.68	7526.3	
694.86	7833.5	
695.05	6664.1	
695.23	6776.7	
695.42	8241	
695.6	10443	
695.78	7235.5	
695.97	6341.9	
696.15	8320.2	
696.34	7716.7	
696.52	6178.7	
696.7	6920.1	
696.89	8013	
697.07	7439.6	
697.25	6772.6	
697.44	8280.6	
697.62	7984.3	
697.81	8232.8	
697.99	6548.7	
698.17	6931	
698.36	7256.6	
698.54	8008.2	
698.72	6831.3	
698.91	5874.3	
699.09	7559.1	
699.28	7499	
699.46	6541.2	
699.64	6367.1	
699.83	7411.6	
700.01	8571.4	
700.19	7081.9	
700.38	5663.3	
700.56	8552.3	
700.74	7492.2	
700.93	5989.6	
701.11	6846.4	
701.29	8062.2	
701.48	8991.9	
701.66	6174.6	
701.84	6327.5	
702.03	7598.6	
702.21	8267.6	
702.39	5845.6	
702.58	6405.4	
702.76	7985.7	
702.94	8007.6	
703.13	5872.9	
703.31	8153.6	
703.49	7344	
703.68	8270.4	
703.86	6010.1	
704.04	6976.7	
704.23	7802.1	
704.41	8172.1	
704.59	6126.2	
704.78	7342	
704.96	8832.2	
705.14	8153.6	
705.33	5974.6	
705.51	6756.2	
705.69	7589.1	
705.87	8428.1	
706.06	6952.2	
706.24	5903.6	
706.42	7876.5	
706.61	8164.6	
706.79	6998.6	
706.97	5931.6	
707.16	7368.6	
707.34	7909.9	
707.52	6995.2	
707.7	6098.9	
707.89	7473	
708.07	7129	
708.25	6941.9	
708.44	7049.1	
708.62	7406.8	
708.8	8479.3	
708.98	7156.3	
709.17	6154.1	
709.35	7779.6	
709.53	7806.2	
709.72	5894.1	
709.9	6398.5	
710.08	8034.2	
710.26	8049.9	
710.45	7387.7	
710.63	6139.8	
710.81	7660.8	
710.99	7682.6	
711.18	6739.9	
711.36	6327.5	
711.54	7480.5	
711.72	8256.7	
711.91	6415.6	
712.09	5815.5	
712.27	7627.3	
712.45	8629.5	
712.64	6584.2	
712.82	5595.1	
713	7176.1	
713.18	7202	
713.37	5672.2	
713.55	6889.4	
713.73	8021.2	
713.91	6718	
714.1	6000.5	
714.28	5436	
714.46	7742.7	
714.64	6948.8	
714.83	4971.8	
715.01	5754.8	
715.19	6927.6	
715.37	6340.5	
715.55	5395	
715.74	5630.5	
715.92	7761.8	
716.1	5905	
716.28	6720.8	
716.47	5812.8	
716.65	6518.7	
716.83	6645.7	
717.01	5617.6	
717.19	5679	
717.38	8628.8	
717.56	6281.1	
717.74	5940.5	
717.92	5053	
718.1	7544	
718.29	6692.8	
718.47	4727.4	
718.65	5355.4	
718.83	7350.8	
719.01	7332.4	
719.2	4637.3	
719.38	5662	
719.56	7008.8	
719.74	8465.6	
719.92	5292.6	
720.11	6233.3	
720.29	7092.1	
720.47	6264.1	
720.65	4824.3	
720.83	5652.4	
721.02	6498.9	
721.2	6293.4	
721.38	5751.4	
721.56	4936.3	
721.74	5853.8	
721.92	6054.5	
722.11	6148	
722.29	5862.7	
722.47	7274.4	
722.65	6430.6	
722.83	4977.2	
723.01	5844.9	
723.2	6463.4	
723.38	6717.3	
723.56	4407.2	
723.74	5505.6	
723.92	5970.5	
724.1	7197.9	
724.29	4864.6	
724.47	5928.2	
724.65	6078.4	
724.83	5984.8	
725.01	4799.1	
725.19	5649.7	
725.37	6094.8	
725.56	6126.2	
725.74	4659.1	
725.92	4861.9	
726.1	5978	
726.28	6220.4	
726.46	5244.2	
726.64	5028.4	
726.83	6197.2	
727.01	6442.9	
727.19	4687.8	
727.37	5421.7	
727.55	6358.3	
727.73	6868.2	
727.91	4550.6	
728.09	4399.7	
728.28	6840.9	
728.46	7341.3	
728.64	5494	
728.82	5405.3	
729	7842.4	
729.18	7216.4	
729.36	4643.4	
729.54	6808.1	
729.72	8217.1	
729.91	6470.2	
730.09	6490	
730.27	5242.1	
730.45	6380.1	
730.63	7034.1	
730.81	5940.5	
730.99	4941.1	
731.17	7535.2	
731.35	6107.7	
731.53	5541.8	
731.71	5079	
731.9	7271	
732.08	7344.7	
732.26	5341.8	
732.44	5061.9	
732.62	7488.1	
732.8	6946	
732.98	5813.5	
733.16	4792.2	
733.34	6960.4	
733.52	5759.6	
733.7	5306.3	
733.88	5604.6	
734.07	6754.2	
734.25	6570.6	
734.43	4755.4	
734.61	6301.6	
734.79	8004.8	
734.97	6388.3	
735.15	4965	
735.33	5308.3	
735.51	6784.9	
735.69	6410.8	
735.87	6199.9	
736.05	5440.1	
736.23	6642.9	
736.41	6374.6	
736.59	5252.4	
736.77	5356.8	
736.95	6961	
737.13	6447	
737.32	4945.2	
737.5	5138.4	
737.68	7441.6	
737.86	6320	
738.04	4769.7	
738.22	6599.9	
738.4	6163.7	
738.58	6449.7	
738.76	5346.6	
738.94	4334.9	
739.12	6324.8	
739.3	6109.1	
739.48	5961	
739.66	5658.5	
739.84	6533	
740.02	6488.6	
740.2	4485.1	
740.38	4733.5	
740.56	6924.9	
740.74	5785.5	
740.92	5368.4	
741.1	5335.6	
741.28	6311.2	
741.46	6180.1	
741.64	4971.1	
741.82	5468.1	
742	6384.9	
742.18	6231.3	
742.36	5153.4	
742.54	4704.2	
742.72	6908.5	
742.9	5726.1	
743.08	5530.2	
743.26	4371	
743.44	7048.4	
743.62	6970.6	
743.8	5688.6	
743.98	4739.7	
744.16	6661.4	
744.34	6333	
744.52	5586.9	
744.7	5485.1	
744.88	6777.4	
745.06	6246.3	
745.24	5573.2	
745.42	5694	
745.6	6842.9	
745.78	6591.7	
745.96	4478.2	
746.14	4805.9	
746.32	7533.1	
746.5	6860	
746.68	5341.1	
746.86	4769.7	
747.03	7197.9	
747.21	5596.4	
747.39	5332.9	
747.57	4743.1	
747.75	6505	
747.93	6747.4	
748.11	4755.4	
748.29	4718.5	
748.47	7972.1	
748.65	6182.8	
748.83	5400.5	
749.01	5111.7	
749.19	6645	
749.37	5875.6	
749.55	5067.4	
749.73	5065.3	
749.91	6416.3	
750.09	6071.5	
750.26	5150.6	
750.44	4585.4	
750.62	6330.3	
750.8	6332.3	
750.98	4444.1	
751.16	4771.1	
751.34	6412.2	
751.52	5772.5	
751.7	5567.1	
751.88	4451.6	
752.06	6806.1	
752.24	6640.9	
752.42	4403.1	
752.59	4810	
752.77	6324.8	
752.95	7520.1	
753.13	5470.8	
753.31	4902.8	
753.49	5977.3	
753.67	6481.8	
753.85	5249.6	
754.03	4697.4	
754.21	6649.8	
754.38	6997.9	
754.56	4995	
754.74	4049.5	
754.92	5939.8	
755.1	6571.9	
755.28	4101.4	
755.46	4039.3	
755.64	7292.1	
755.82	7421.8	
755.99	4300.1	
756.17	4335.5	
756.35	4992.9	
756.53	6425.2	
756.71	3272.7	
756.89	4181.3	
757.07	6092.7	
757.25	5210	
757.42	4661.9	
757.6	5625.1	
757.78	6191	
757.96	5285.8	
758.14	4440.7	
758.32	4011.3	
758.5	4857.1	
758.67	5612.8	
758.85	4255	
759.03	4391.5	
759.21	5812.8	
759.39	5239.4	
759.57	3908.2	
759.75	4984.8	
759.92	6417.7	
760.1	5670.8	
760.28	5261.9	
760.46	5532.9	
760.64	5477.6	
760.82	5250.3	
760.99	5186.8	
761.17	4384	
761.35	6301.6	
761.53	5295.4	
761.71	4543.8	
761.89	5121.3	
762.06	6150.7	
762.24	5718.6	
762.42	4557.4	
762.6	4351.9	
762.78	5720	
762.96	6254.5	
763.13	4958.1	
763.31	4627.7	
763.49	6498.2	
763.67	5694	
763.85	5440.1	
764.02	5877.7	
764.2	6718.7	
764.38	5875.6	
764.56	4529.4	
764.74	5379.3	
764.91	6879.1	
765.09	5731.6	
765.27	4240	
765.45	4061.1	
765.63	6881.9	
765.8	6718.7	
765.98	3791.5	
766.16	4076.1	
766.34	5410.7	
766.52	5117.9	
766.69	5003.2	
766.87	3908.2	
767.05	5773.9	
767.23	6423.8	
767.41	4237.9	
767.58	4476.2	
767.76	6299.6	
767.94	6304.3	
768.12	4313	
768.29	4985.4	
768.47	5819	
768.65	6500.3	
768.83	3906.8	
769	5019.6	
769.18	5387.5	
769.36	6076.3	
769.54	5026.4	
769.72	3989.4	
769.89	6358.3	
770.07	6379.4	
770.25	4291.2	
770.43	5522	
770.6	7091.4	
770.78	7417.1	
770.96	4454.3	
771.14	5051.7	
771.31	6185.5	
771.49	5556.1	
771.67	3658.4	
771.85	3941	
772.02	4936.3	
772.2	5575.3	
772.38	4616.1	
772.55	4064.5	
772.73	5849.7	
772.91	5613.5	
773.09	4494.6	
773.26	4544.4	
773.44	5796.4	
773.62	5502.2	
773.8	4010.6	
773.97	3791.5	
774.15	5889.3	
774.33	5529.5	
774.5	3898	
774.68	4265.9	
774.86	5870.2	
775.04	5536.3	
775.21	3958	
775.39	3922.5	
775.57	5797.1	
775.74	6110.5	
775.92	3799	
776.1	3732.8	
776.27	5757.5	
776.45	6990.4	
776.63	3966.2	
776.81	3528.7	
776.98	5489.9	
777.16	6481.8	
777.34	4134.2	
777.51	4421.6	
777.69	5414.8	
777.87	5190.2	
778.04	4123.2	
778.22	4696.7	
778.4	5238.7	
778.57	5859.9	
778.75	3386.7	
778.93	3732.8	
779.1	5013.4	
779.28	4864.6	
779.46	3452.2	
779.64	3877.5	
779.81	5963.7	
779.99	6830	
780.17	4704.9	
780.34	4830.5	
780.52	5465.3	
780.69	5636	
780.87	4277.5	
781.05	3774.4	
781.22	5540.4	
781.4	5556.1	
781.58	3920.5	
781.75	3135.4	
781.93	5564.3	
782.11	4900.1	
782.28	4812	
782.46	3975.1	
782.64	4813.4	
782.81	5718.6	
782.99	3960.8	
783.17	4011.3	
783.34	5574.6	
783.52	4889.9	
783.69	4151.2	
783.87	4985.4	
784.05	4999.1	
784.22	4980	
784.4	4932.9	
784.58	4298.7	
784.75	5832.6	
784.93	5005.9	
785.1	3949.8	
785.28	4552.6	
785.46	5629.2	
785.63	4894.6	
785.81	3865.9	
785.99	3777.8	
786.16	5070.1	
786.34	5554.8	
786.51	3805.8	
786.69	4197	
786.87	4682.3	
787.04	5211.4	
787.22	3669.3	
787.39	4633.2	
787.57	4911	
787.75	5967.8	
787.92	4709.6	
788.1	4723.3	
788.27	4994.3	
788.45	4767.7	
788.63	4416.8	
788.8	3161.4	
788.98	5289.2	
789.15	4644.1	
789.33	3293.8	
789.5	3971.7	
789.68	5849	
789.86	5914.5	
790.03	4410.6	
790.21	3778.5	
790.38	5863.3	
790.56	5096	
790.73	3680.2	
790.91	3678.2	
791.09	4931.5	
791.26	5717.2	
791.44	3920.5	
791.61	3396.9	
791.79	4948.6	
791.96	4993.6	
792.14	3494.5	
792.32	3126.6	
792.49	4922	
792.67	5024.3	
792.84	3540.9	
793.02	3372.3	
793.19	5463.3	
793.37	6131.6	
793.54	3076.7	
793.72	3422.2	
793.89	6257.2	
794.07	4956.8	
794.25	4064.5	
794.42	3180.5	
794.6	5956.2	
794.77	5613.5	
794.95	4267.3	
795.12	3756.7	
795.3	4922.6	
795.47	5532.9	
795.65	4136.9	
795.82	3933.5	
796	4812.7	
796.17	6602.7	
796.35	3857	
796.52	4542.4	
796.7	5438.7	
796.87	5582.8	
797.05	4761.5	
797.22	4718.5	
797.4	5554.1	
797.57	6537.1	
797.75	3924.6	
797.92	3741	
798.1	5804.6	
798.27	4894	
798.45	3175	
798.62	3468.6	
798.8	5218.9	
798.97	5689.3	
799.15	4172.4	
799.32	3950.5	
799.5	4508.3	
799.67	5292	
799.85	4317.8	
800.02	3143.6	
800.2	4915.8	
800.37	5214.8	
800.55	4457.7	
800.72	3682.9	
800.9	5701.5	
801.07	6118	
801.25	4995.7	
801.42	4076.8	
801.6	5768.4	
801.77	5391.6	
801.95	3809.2	
802.12	3581.9	
802.29	5420.3	
802.47	5400.5	
802.64	4106.2	
802.82	3095.2	
802.99	4889.9	
803.17	5904.3	
803.34	3935.5	
803.52	3563.5	
803.69	6509.1	
803.87	4689.2	
804.04	3957.4	
804.21	3994.2	
804.39	6009.4	
804.56	5143.8	
804.74	3355.9	
804.91	4148.5	
805.09	4980.7	
805.26	5012.7	
805.44	3403	
805.61	3752.6	
805.78	5556.1	
805.96	5594.4	
806.13	4075.5	
806.31	4414.1	
806.48	4497.3	
806.66	5029.8	
806.83	4090.5	
807	3917.1	
807.18	4904.9	
807.35	5287.9	
807.53	3979.2	
807.7	3155.9	
807.87	6075	
808.05	4940.4	
808.22	4363.5	
808.4	3257.6	
808.57	4973.2	
808.74	4541.7	
808.92	3614	
809.09	4595.6	
809.27	4853	
809.44	5468.1	
809.61	3210.5	
809.79	3530	
809.96	6077	
810.14	5685.8	
810.31	3181.9	
810.48	3821.5	
810.66	5072.1	
810.83	5774.6	
811.01	3657.7	
811.18	4058.4	
811.35	5654.4	
811.53	4401.8	
811.7	4430.4	
811.87	4130.1	
812.05	4973.8	
812.22	4877.6	
812.39	3592.8	
812.57	3389.4	
812.74	4985.4	
812.92	6666.8	
813.09	3867.9	
813.26	4163.5	
813.44	6350.1	
813.61	4900.1	
813.78	3229	
813.96	4297.3	
814.13	4990.2	
814.3	4690.5	
814.48	4625	
814.65	3831.1	
814.82	6172.6	
815	4713.7	
815.17	3920.5	
815.34	4768.4	
815.52	4878.9	
815.69	4866	
815.87	3937.6	
816.04	3366.2	
816.21	5017.5	
816.38	4313.7	
816.56	3771.7	
816.73	3564.1	
816.9	6232	
817.08	5685.8	
817.25	3555.3	
817.42	4462.5	
817.6	4549.9	
817.77	4998.4	
817.94	3990.1	
818.12	3523.2	
818.29	4726.7	
818.46	7341.3	
818.64	3692.5	
818.81	3367.5	
818.98	4640.7	
819.16	6701.6	
819.33	4181.3	
819.5	3914.4	
819.67	5305.6	
819.85	5898.8	
820.02	3891.8	
820.19	4053.6	
820.37	5167	
820.54	4730.1	
820.71	4022.2	
820.88	4924	
821.06	5151.3	
821.23	4717.2	
821.4	4035.9	
821.58	3917.8	
821.75	5671.5	
821.92	5139	
822.09	3292.5	
822.27	3476.8	
822.44	5037.3	
822.61	4857.8	
822.79	3217.4	
822.96	6212.2	
823.13	5459.9	
823.3	4636.6	
823.48	3753.9	
823.65	3366.2	
823.82	5564.3	
823.99	4546.5	
824.17	4758.1	
824.34	3454.9	
824.51	6484.6	
824.68	5033.2	
824.86	3544.4	
825.03	4015.4	
825.2	4965	
825.37	5964.4	
825.55	3508.9	
825.72	3964.2	
825.89	6524.8	
826.06	6112.5	
826.24	3891.1	
826.41	3835.8	
826.58	6068.8	
826.75	5275.6	
826.92	3052.2	
827.1	3366.2	
827.27	8198	
827.44	6492.7	
827.61	3636.5	
827.79	4405.2	
827.96	4734.9	
828.13	5061.9	
828.3	3804.4	
828.47	3197.6	
828.65	5160.2	
828.82	5141.1	
828.99	4896.7	
829.16	4365.6	
829.34	5575.9	
829.51	5356.1	
829.68	3973.1	
829.85	4064.5	
830.02	5894.1	
830.2	5539.1	
830.37	3018	
830.54	4788.2	
830.71	6272.2	
830.88	4965	
831.05	3123.2	
831.23	3557.3	
831.4	6057.2	
831.57	6815	
831.74	3678.8	
831.91	3203	
832.09	5285.1	
832.26	5562.3	
832.43	3708.2	
832.6	4225	
832.77	5207.3	
832.94	5917.9	
833.12	3057.6	
833.29	3693.2	
833.46	5373.2	
833.63	7030.7	
833.8	4146.5	
833.97	3818.8	
834.15	5553.4	
834.32	5302.2	
834.49	3923.9	
834.66	3983.3	
834.83	5749.3	
835	4650.9	
835.17	3635.1	
835.35	3653.6	
835.52	5563	
835.69	5344.5	
835.86	3855.6	
836.03	3170.3	
836.2	5584.8	
836.37	5172.5	
836.55	3807.9	
836.72	3523.9	
836.89	5108.3	
837.06	5637.4	
837.23	3870	
837.4	4242.7	
837.57	6358.3	
837.75	6963.1	
837.92	3485	
838.09	3715	
838.26	5102.2	
838.43	5844.2	
838.6	3951.2	
838.77	3520.5	
838.94	6649.8	
839.11	6344.6	
839.29	3799.7	
839.46	2941.6	
839.63	5597.1	
839.8	5259.2	
839.97	3686.3	
840.14	3631	
840.31	5378	
840.48	5597.1	
840.65	2985.9	
840.82	3772.4	
841	5583.4	
841.17	5511.8	
841.34	3410.6	
841.51	3391.4	
841.68	5449.6	
841.85	5263.3	
842.02	3525.9	
842.19	2901.3	
842.36	5332.9	
842.53	5221	
842.7	3367.5	
842.87	4115.7	
843.05	6938.5	
843.22	5259.2	
843.39	3240.6	
843.56	3464.5	
843.73	5077.6	
843.9	5593	
844.07	5444.9	
844.24	4479.6	
844.41	8155	
844.58	4818.2	
844.75	3303.4	
844.92	3597.6	
845.09	5494	
845.26	5488.6	
845.43	3302	
845.6	3528.7	
845.77	5554.8	
845.94	5285.1	
846.12	3755.3	
846.29	3981.3	
846.46	5806	
846.63	5555.5	
846.8	3389.4	
846.97	4019.5	
847.14	6007.4	
847.31	5492.7	
847.48	3773.7	
847.65	4221.5	
847.82	5765.7	
847.99	5711.1	
848.16	4472.8	
848.33	4171.7	
848.5	5130.2	
848.67	5996.5	
848.84	3356.6	
849.01	3480.2	
849.18	4992.3	
849.35	4664.6	
849.52	4222.9	
849.69	3268.6	
849.86	5768.4	
850.03	5952.1	
850.2	3383.9	
850.37	4108.2	
850.54	5910.4	
850.71	5220.3	
850.88	4055.7	
851.05	3263.8	
851.22	5385.5	
851.39	6054.5	
851.56	3173.7	
851.73	3870	
851.9	4840.7	
852.07	5760.3	
852.24	3711.6	
852.41	3332.7	
852.58	5370.5	
852.75	4868	
852.92	3816	
853.09	3284.9	
853.26	5122.7	
853.43	5926.8	
853.6	3358.7	
853.77	2867.2	
853.94	6016.2	
854.11	4837.3	
854.28	4905.6	
854.44	3606.5	
854.61	6445.6	
854.78	5846.3	
854.95	3355.9	
855.12	4175.8	
855.29	4479.6	
855.46	6051.1	
855.63	3350.5	
855.8	4690.5	
855.97	5140.4	
856.14	5859.9	
856.31	4729.4	
856.48	3740.3	
856.65	5108.3	
856.82	4900.1	
856.99	3283.6	
857.16	3614	
857.33	6737.1	
857.49	5169.1	
857.66	3640.6	
857.83	3919.1	
858	5179.3	
858.17	5463.3	
858.34	3190.7	
858.51	3357.3	
858.68	6194.4	
858.85	6234.7	
859.02	3885.7	
859.19	4141.7	
859.36	4856.4	
859.52	4865.3	
859.69	3371.6	
859.86	4007.2	
860.03	4971.8	
860.2	6085.2	
860.37	3031.7	
860.54	3373.7	
860.71	5732.3	
860.88	6073.6	
861.05	3728	
861.21	4198.3	
861.38	6112.5	
861.55	4759.5	
861.72	3068.5	
861.89	3749.8	
862.06	5842.2	
862.23	6187.6	
862.4	3256.3	
862.56	3513.6	
862.73	5629.9	
862.9	5299.5	
863.07	3913.7	
863.24	3074.7	
863.41	4801.8	
863.58	4923.3	
863.75	3455.6	
863.91	3919.8	
864.08	6121.4	
864.25	5644.9	
864.42	4213.4	
864.59	4729.4	
864.76	6424.5	
864.93	4871.4	
865.09	3245.3	
865.26	3594.2	
865.43	6081.8	
865.6	6361	
865.77	2975	
865.94	3306.1	
866.1	6040.1	
866.27	5793.7	
866.44	5081.7	
866.61	3195.5	
866.78	5296.7	
866.95	5630.5	
867.11	3259	
867.28	2988.7	
867.45	5892.7	
867.62	4904.2	
867.79	3897.3	
867.96	3362.1	
868.12	4824.3	
868.29	5726.1	
868.46	2879.4	
868.63	4455.7	
868.8	5965.7	
868.97	5773.9	
869.13	3545.7	
869.3	3487.7	
869.47	5624.4	
869.64	5861.3	
869.81	3375.1	
869.97	3344.3	
870.14	5516.5	
870.31	6182.8	
870.48	3300	
870.65	4197	
870.81	5155.4	
870.98	5281.7	
871.15	3855	
871.32	3413.3	
871.48	5659.9	
871.65	6255.2	
871.82	3297.2	
871.99	3702.7	
872.16	6660	
872.32	6014.2	
872.49	3386	
872.66	3408.5	
872.83	5748.6	
872.99	5010.7	
873.16	3857.7	
873.33	3298.6	
873.5	5385.5	
873.67	5457.2	
873.83	3498.6	
874	4443.4	
874.17	5535.7	
874.34	6534.4	
874.5	4360.8	
874.67	4188.8	
874.84	6122.1	
875.01	4844.1	
875.17	4730.8	
875.34	3349.1	
875.51	5438.7	
875.68	6543.9	
875.84	4057.7	
876.01	4965.6	
876.18	5652.4	
876.34	5617.6	
876.51	3386.7	
876.68	3321.8	
876.85	5223	
877.01	5966.4	
877.18	4751.3	
877.35	3305.4	
877.52	5343.2	
877.68	4746.5	
877.85	3261.7	
878.02	3295.9	
878.18	5312.4	
878.35	5036.6	
878.52	2676.7	
878.69	3719.1	
878.85	5731.6	
879.02	5671.5	
879.19	4780	
879.35	3604.4	
879.52	5721.3	
879.69	5920	
879.86	2913.6	
880.02	3753.9	
880.19	5257.8	
880.36	6505.7	
880.52	3884.3	
880.69	3990.8	
880.86	5786.2	
881.02	5883.1	
881.19	3712.3	
881.36	3611.3	
881.52	5676.3	
881.69	4977.9	
881.86	3636.5	
882.02	3521.8	
882.19	5992.4	
882.36	6997.9	
882.52	3450.8	
882.69	4747.9	
882.86	5528.2	
883.02	5384.1	
883.19	4063.9	
883.36	3854.3	
883.52	5793.7	
883.69	6630.6	
883.86	3405.8	
884.02	3018.7	
884.19	5701.5	
884.36	5294	
884.52	3768.3	
884.69	3541.6	
884.86	5094	
885.02	6302.3	
885.19	3728	
885.36	3824.2	
885.52	5330.2	
885.69	5470.1	
885.86	4822.3	
886.02	4310.3	
886.19	5726.8	
886.35	5212.8	
886.52	3728	
886.69	4751.3	
886.85	4831.2	
887.02	6089.3	
887.19	6089.3	
887.35	6089.3	
887.52	6089.3	
887.68	6089.3	
887.85	6089.3	
888.02	6089.3	
888.18	6089.3	
888.35	6089.3	
888.51	6089.3	
888.68	6089.3	
888.85	6089.3	
889.01	6089.3	
889.18	6089.3	
889.35	6089.3	
889.51	6089.3	
889.68	6089.3	
889.84	6089.3	
890.01	6089.3	
890.17	6089.3	
890.34	6089.3	
890.51	6089.3	
890.67	6089.3	
890.84	6089.3	
891	6089.3	
891.17	6089.3	
891.34	6089.3	
891.5	6089.3	
891.67	6089.3	
891.83	6089.3	
892	6089.3	
892.16	6089.3	
892.33	6089.3	
892.5	6089.3	
892.66	6089.3	
892.83	6089.3	
892.99	6089.3	
893.16	6089.3	
893.32	6089.3	
893.49	6089.3	
893.65	6089.3	
893.82	6089.3	
893.99	6089.3	
894.15	6089.3	
894.32	6089.3	
894.48	6089.3	
894.65	6089.3	
894.81	6089.3	
894.98	6089.3	
895.14	6089.3	
895.31	6089.3	
895.47	6089.3	
895.64	6089.3	
895.81	6089.3	
895.97	6089.3	
896.14	6089.3	
896.3	6089.3	
896.47	6089.3	
896.63	6089.3	
896.8	6089.3	
896.96	6089.3	
897.13	6089.3	
897.29	6089.3	
897.46	6089.3	
897.62	6089.3	
897.79	6089.3	
897.95	6089.3	
898.12	6089.3	
898.28	6089.3	
898.45	6089.3	
898.61	6089.3	
898.78	6089.3	
898.94	6089.3	
899.11	6089.3	
899.27	6089.3	
899.44	6089.3	
899.6	6089.3	
899.77	6089.3	
899.93	6089.3	
900.1	6089.3	
900.26	6089.3	
900.43	6089.3	
900.59	6089.3	
900.76	6089.3	
900.92	6089.3	
901.09	6089.3	
901.25	6089.3	
901.42	6089.3	
901.58	6089.3	
901.75	6089.3	
901.91	6089.3	
902.07	6089.3	
902.24	6089.3	
902.4	6089.3	
902.57	6089.3	
902.73	6089.3	
902.9	6089.3	
903.06	6089.3	
903.23	6089.3	
903.39	6089.3	
903.56	6089.3	
903.72	6089.3	
903.88	6089.3	
904.05	6089.3	
904.21	6089.3	
904.38	6089.3	
904.54	6089.3	
904.71	6089.3	
904.87	6089.3	
905.03	6089.3	
905.2	6089.3	
905.36	6089.3	
905.53	6089.3	
905.69	6089.3	
905.86	6089.3	
906.02	6089.3	
906.18	6089.3	
906.35	6089.3	
906.51	6089.3	
906.68	6089.3	
906.84	6089.3	
907.01	6089.3	
907.17	6089.3	
907.33	6089.3	
907.5	6089.3	
907.66	6089.3	
907.83	6089.3	
907.99	6089.3	
908.15	6089.3	
908.32	6089.3	
908.48	6089.3	
908.65	6089.3	
908.81	6089.3	
908.97	6089.3	
909.14	6089.3	
909.3	6089.3	
909.47	6089.3	
909.63	6089.3	
909.79	6089.3	
909.96	6089.3	
910.12	6089.3	
910.28	6089.3	
910.45	6089.3	
910.61	6089.3	
910.78	6089.3	
910.94	6089.3	
911.1	6089.3	
911.27	6089.3	
911.43	6089.3	
911.59	6089.3	
911.76	6089.3	
911.92	6089.3	
912.08	6089.3	
912.25	6089.3	
912.41	6089.3	
912.57	6089.3	
912.74	6089.3	
912.9	6089.3	
913.07	6089.3	
913.23	6089.3	
913.39	6089.3	
913.56	6089.3	
913.72	6089.3	
913.88	6089.3	
914.05	6089.3	
914.21	6089.3	
914.37	6089.3	
914.54	6089.3	
914.7	6089.3	
914.86	6089.3	
915.03	6089.3	
915.19	6089.3	
