Wavelength	Intensities	
nm	a.u.	
179.22	1951.5	
179.44	1955.5	
179.65	1947.6	
179.86	1963.3	
180.08	1926.5	
180.29	5019.6	
180.51	3567.6	
180.72	5778.7	
180.94	6704.4	
181.15	3272.7	
181.37	3185.3	
181.58	5575.9	
181.79	5893.4	
182.01	3429.7	
182.22	3672.7	
182.44	5894.7	
182.65	4905.6	
182.87	4651.6	
183.08	4088.4	
183.29	6173.9	
183.51	5073.5	
183.72	3725.3	
183.94	5478.3	
184.15	5479	
184.37	5539.8	
184.58	3268.6	
184.79	4595.6	
185.01	5073.5	
185.22	5852.4	
185.44	4815.5	
185.65	3947.1	
185.86	5339.1	
186.08	5015.5	
186.29	3208.5	
186.51	3449.5	
186.72	5055.8	
186.94	6062.7	
187.15	3986	
187.36	4152.6	
187.58	7912.7	
187.79	5573.9	
188.01	4336.2	
188.22	6713.9	
188.43	6758.3	
188.65	5914.5	
188.86	3431	
189.08	4126.7	
189.29	5268.1	
189.5	5298.8	
189.72	3792.8	
189.93	3870	
190.15	6080.4	
190.36	7301	
190.57	4227	
190.79	4110.3	
191	6146	
191.22	6119.3	
191.43	4187.4	
191.64	3419.4	
191.86	6376	
192.07	6124.8	
192.29	3607.2	
192.5	3844.7	
192.71	6156.9	
192.93	5233.9	
193.14	3807.2	
193.35	3893.2	
193.57	5240.1	
193.78	6047.7	
194	3042.6	
194.21	3719.1	
194.42	5000.5	
194.64	5539.8	
194.85	4177.2	
195.07	4824.3	
195.28	5603.2	
195.49	4791.6	
195.71	5176.6	
195.92	3536.8	
196.13	5679.7	
196.35	5851.7	
196.56	5408.7	
196.78	4119.1	
196.99	7171.3	
197.2	6706.4	
197.42	4722.6	
197.63	4168.3	
197.84	4920.6	
198.06	5685.2	
198.27	3848.8	
198.48	5167.7	
198.7	5244.8	
198.91	5457.2	
199.13	4138.9	
199.34	4146.5	
199.55	5913.9	
199.77	4757.4	
199.98	3685.7	
200.19	4205.2	
200.41	5294.7	
200.62	5106.3	
200.83	4306.9	
201.05	4618.9	
201.26	5395	
201.47	5111	
201.69	3637.2	
201.9	3539.6	
202.11	5502.2	
202.33	6495.5	
202.54	3979.2	
202.76	4371.7	
202.97	5627.8	
203.18	5610.1	
203.4	4379.9	
203.61	4263.9	
203.82	5532.9	
204.04	5175.2	
204.25	4188.8	
204.46	4101.4	
204.68	5543.2	
204.89	5749.3	
205.1	4069.3	
205.32	3461.7	
205.53	5945.9	
205.74	6072.9	
205.96	2951.1	
206.17	4251.6	
206.38	5917.9	
206.6	6044.9	
206.81	4800.4	
207.02	3875.4	
207.24	5771.2	
207.45	6289.3	
207.66	3857.7	
207.88	3360.7	
208.09	5666	
208.3	5512.4	
208.52	3632.4	
208.73	4037.9	
208.94	5472.9	
209.15	6317.3	
209.37	3963.5	
209.58	4147.8	
209.79	5994.4	
210.01	5321.3	
210.22	3093.8	
210.43	3262.4	
210.65	5515.9	
210.86	5939.1	
211.07	3980.6	
211.29	3596.9	
211.5	5870.8	
211.71	5406.6	
211.93	3666.5	
212.14	3586	
212.35	5461.9	
212.56	5680.4	
212.78	4197	
212.99	3493.8	
213.2	6498.2	
213.42	5278.3	
213.63	3743.7	
213.84	4066.6	
214.06	4844.8	
214.27	4956.8	
214.48	3999.7	
214.69	4216.8	
214.91	6173.3	
215.12	6279.1	
215.33	4301.4	
215.55	4698	
215.76	6754.9	
215.97	5916.6	
216.18	4150.5	
216.4	3992.2	
216.61	5152.7	
216.82	6019.7	
217.04	3640.6	
217.25	3783.3	
217.46	6197.2	
217.67	5927.5	
217.89	3257	
218.1	3397.6	
218.31	5597.8	
218.53	5659.2	
218.74	3870.7	
218.95	3722.5	
219.16	5437.4	
219.38	6491.4	
219.59	3747.8	
219.8	4456.4	
220.01	7234.1	
220.23	5539.1	
220.44	4900.1	
220.65	3599.6	
220.87	5584.1	
221.08	6100.9	
221.29	3353.2	
221.5	4493.2	
221.72	7479.2	
221.93	5229.8	
222.14	4251.6	
222.35	4928.8	
222.57	5522	
222.78	5865.4	
222.99	3990.8	
223.2	4270.7	
223.42	5847.6	
223.63	5976	
223.84	3023.5	
224.05	3008.5	
224.27	7084.6	
224.48	6409.5	
224.69	4956.8	
224.9	4216.8	
225.12	5743.9	
225.33	5472.2	
225.54	3303.4	
225.75	3702	
225.97	5018.2	
226.18	5360.9	
226.39	4050.2	
226.6	3749.8	
226.82	5239.4	
227.03	5120.6	
227.24	4112.3	
227.45	3424.9	
227.67	5913.2	
227.88	6516	
228.09	4699.4	
228.3	4693.3	
228.52	5978.7	
228.73	5481	
228.94	3898.6	
229.15	3448.8	
229.36	5427.1	
229.58	5299.5	
229.79	3952.6	
230	4557.4	
230.21	6581.5	
230.43	5611.4	
230.64	4123.9	
230.85	4328	
231.06	5908.4	
231.28	5988.9	
231.49	3465.2	
231.7	4043.4	
231.91	5838.1	
232.12	5511.8	
232.34	3524.6	
232.55	3994.2	
232.76	6152.1	
232.97	5677.7	
233.18	3632.4	
233.4	4078.9	
233.61	5739.1	
233.82	5283.1	
234.03	3799.7	
234.25	3738.9	
234.46	7615.7	
234.67	5562.3	
234.88	4246.8	
235.09	3625.6	
235.31	5834	
235.52	5406	
235.73	4130.8	
235.94	3504.1	
236.15	5192.3	
236.37	6683.9	
236.58	3661.1	
236.79	3977.2	
237	5810.8	
237.21	5016.8	
237.43	4209.3	
237.64	3380.5	
237.85	10157	
238.06	5038.7	
238.27	4362.9	
238.48	3418.1	
238.7	5823.1	
238.91	5316.5	
239.12	4000.4	
239.33	4082.3	
239.54	5120.6	
239.76	5407.3	
239.97	3926	
240.18	3977.8	
240.39	6952.2	
240.6	5825.8	
240.82	4218.1	
241.03	3365.5	
241.24	5462.6	
241.45	6451.8	
241.66	3624.2	
241.87	4289.1	
242.09	6246.3	
242.3	6675	
242.51	4383.3	
242.72	4065.2	
242.93	6033.3	
243.14	5475.6	
243.36	4717.8	
243.57	5015.5	
243.78	6401.3	
243.99	5909.8	
244.2	4040	
244.41	3620.8	
244.63	5008.6	
244.84	5859.9	
245.05	4278.2	
245.26	4040.6	
245.47	5759.6	
245.68	6075	
245.9	5325.4	
246.11	4149.9	
246.32	5377.3	
246.53	5764.3	
246.74	6486.6	
246.95	3329.3	
247.16	4949.3	
247.38	5483.8	
247.59	3355.3	
247.8	3992.2	
248.01	5189.6	
248.22	5422.3	
248.43	3633.1	
248.64	3872	
248.86	4839.4	
249.07	5276.3	
249.28	3458.3	
249.49	4119.1	
249.7	6091.3	
249.91	6270.2	
250.12	3298.6	
250.34	3381.2	
250.55	5631.9	
250.76	5535	
250.97	4193.6	
251.18	4225	
251.39	6255.2	
251.6	5703.6	
251.81	4177.2	
252.03	4166.3	
252.24	5225.1	
252.45	6128.9	
252.66	3467.2	
252.87	4466.6	
253.08	5554.1	
253.29	7378.1	
253.5	3439.9	
253.72	4906.3	
253.93	5335	
254.14	6569.2	
254.35	3751.9	
254.56	3922.5	
254.77	5769.8	
254.98	5096.7	
255.19	3744.4	
255.41	4801.8	
255.62	5621	
255.83	6221	
256.04	4325.3	
256.25	4170.3	
256.46	6858.6	
256.67	5221	
256.88	4112.3	
257.09	4661.2	
257.31	5181.4	
257.52	5212.8	
257.73	5152.7	
257.94	3764.8	
258.15	5310.4	
258.36	5569.1	
258.57	4775.2	
258.78	2966.8	
258.99	6038.1	
259.2	5367.7	
259.41	3809.9	
259.63	3914.4	
259.84	6399.9	
260.05	6868.9	
260.26	5047.6	
260.47	3714.3	
260.68	6119.3	
260.89	5391.6	
261.1	4616.8	
261.31	3633.8	
261.52	6111.1	
261.73	6505	
261.95	4941.7	
262.16	4321.2	
262.37	6233.3	
262.58	6333.7	
262.79	4897.4	
263	3870	
263.21	5563.6	
263.42	5014.1	
263.63	3917.8	
263.84	3873.4	
264.05	6086.6	
264.26	6479.8	
264.47	4820.9	
264.69	4329.4	
264.9	6274.3	
265.11	5698.1	
265.32	3679.5	
265.53	3775.1	
265.74	5640.8	
265.95	4934.2	
266.16	4077.5	
266.37	4548.5	
266.58	5612.1	
266.79	5364.3	
267	3728.7	
267.21	3490.4	
267.42	5089.2	
267.63	5546.6	
267.84	3969.6	
268.06	3429	
268.27	5923.4	
268.48	6253.1	
268.69	3880.2	
268.9	4640	
269.11	6245.6	
269.32	4941.7	
269.53	3967.6	
269.74	3669.3	
269.95	5878.4	
270.16	4880.3	
270.37	4040.6	
270.58	4584	
270.79	5362.9	
271	6090.7	
271.21	4335.5	
271.42	4057	
271.63	5586.9	
271.84	5122.7	
272.05	3187.3	
272.26	3588.7	
272.47	5601.2	
272.68	5717.9	
272.89	3796.9	
273.11	4447.5	
273.32	5369.1	
273.53	6469.5	
273.74	4355.3	
273.95	4227	
274.16	6203.3	
274.37	5599.1	
274.58	4362.2	
274.79	3512.3	
275	5646.9	
275.21	6228.6	
275.42	5287.9	
275.63	4562.2	
275.84	5815.5	
276.05	7292.1	
276.26	4233.2	
276.47	3958.7	
276.68	5362.3	
276.89	6554.2	
277.1	4545.1	
277.31	3528.7	
277.52	5819	
277.73	5954.1	
277.94	3458.3	
278.15	3898.6	
278.36	5727.5	
278.57	5185.5	
278.78	3805.8	
278.99	4323.9	
279.2	5100.8	
279.41	5070.8	
279.62	5038	
279.83	3555.3	
280.04	6713.9	
280.25	5044.1	
280.46	5079	
280.67	4039.3	
280.88	5124.7	
281.09	6195.8	
281.3	4180.6	
281.51	5297.4	
281.72	5220.3	
281.93	6080.4	
282.14	3727.3	
282.35	4050.9	
282.56	6008.1	
282.77	6042.2	
282.98	3888.4	
283.19	4696	
283.4	7395.9	
283.61	5459.2	
283.82	3604.4	
284.03	4966.3	
284.24	5634	
284.45	6167.8	
284.66	4999.8	
284.87	4772.4	
285.08	6168.5	
285.29	6247.7	
285.5	3360	
285.71	3932.1	
285.92	6139.1	
286.12	6834.1	
286.33	4926	
286.54	3852.2	
286.75	6038.8	
286.96	5381.4	
287.17	3596.9	
287.38	4793.6	
287.59	5124	
287.8	5050.3	
288.01	3908.9	
288.22	4526.7	
288.43	6124.8	
288.64	4999.8	
288.85	4641.4	
289.06	4426.3	
289.27	5975.3	
289.48	6445.6	
289.69	4997.7	
289.9	4507.6	
290.11	6186.2	
290.32	5235.3	
290.53	4706.9	
290.74	4386.7	
290.94	5970.5	
291.15	6042.9	
291.36	3809.2	
291.57	4472.1	
291.78	5240.8	
291.99	4896	
292.2	3551.2	
292.41	4382.7	
292.62	6125.5	
292.83	5822.4	
293.04	5397.8	
293.25	3672.7	
293.46	5307	
293.67	6180.8	
293.88	3747.1	
294.09	3629	
294.29	5106.3	
294.5	5709.7	
294.71	3995.6	
294.92	3877.5	
295.13	5307	
295.34	6620.4	
295.55	3329.3	
295.76	3478.1	
295.97	6010.1	
296.18	6692.1	
296.39	3588	
296.6	3762.1	
296.81	5604.6	
297.01	5926.1	
297.22	3896.6	
297.43	3775.1	
297.64	5139.7	
297.85	5111.7	
298.06	3080.8	
298.27	3358.7	
298.48	5582.8	
298.69	5256.5	
298.9	4075.5	
299.11	3683.6	
299.31	5040.1	
299.52	5039.4	
299.73	4406.5	
299.94	4306.2	
300.15	5482.4	
300.36	5102.2	
300.57	4289.1	
300.78	4270.7	
300.99	5470.1	
301.2	5677	
301.4	3709.6	
301.61	4077.5	
301.82	5923.4	
302.03	5984.8	
302.24	4573.1	
302.45	3553.2	
302.66	5840.1	
302.87	6339.1	
303.08	3774.4	
303.29	5197.1	
303.49	5299.5	
303.7	5545.9	
303.91	3313.6	
304.12	4913.1	
304.33	5055.1	
304.54	5621	
304.75	3796.9	
304.96	3618.1	
305.16	5857.9	
305.37	6632.7	
305.58	3237.2	
305.79	3407.8	
306	5851	
306.21	4965.6	
306.42	3665.2	
306.63	5792.3	
306.83	5421	
307.04	6170.5	
307.25	4140.3	
307.46	4069.3	
307.67	4682.3	
307.88	6053.8	
308.09	3658.4	
308.29	3799	
308.5	5608.7	
308.71	6172.6	
308.92	4045.4	
309.13	3588.7	
309.34	5335.6	
309.55	5461.2	
309.75	4657.1	
309.96	4260.5	
310.17	5971.9	
310.38	5238	
310.59	4510.3	
310.8	3442	
311.01	6733.7	
311.21	5331.5	
311.42	3534.1	
311.63	3741	
311.84	5229.8	
312.05	5638.1	
312.26	4202.4	
312.46	4597	
312.67	5362.3	
312.88	5055.1	
313.09	3704.8	
313.3	3530	
313.51	6416.3	
313.71	6799.9	
313.92	3657.7	
314.13	3820.8	
314.34	5755.5	
314.55	5487.9	
314.76	4664.6	
314.96	4057.7	
315.17	5629.9	
315.38	5958.2	
315.59	3597.6	
315.8	3457	
316.01	6457.9	
316.21	6481.1	
316.42	3463.1	
316.63	4012.7	
316.84	5409.4	
317.05	6223.1	
317.26	4303.5	
317.46	3803.8	
317.67	5462.6	
317.88	5913.2	
318.09	4562.9	
318.3	3335.5	
318.5	5227.1	
318.71	5890.6	
318.92	5957.5	
319.13	4246.8	
319.34	6052.4	
319.54	6185.5	
319.75	3425.6	
319.96	3220.8	
320.17	5989.6	
320.38	6100.2	
320.58	3227.6	
320.79	4016.7	
321	6128.9	
321.21	6186.2	
321.42	4033.1	
321.62	3289	
321.83	5064.6	
322.04	5556.8	
322.25	3844.7	
322.46	3616	
322.66	5663.3	
322.87	5839.4	
323.08	4507.6	
323.29	3594.2	
323.5	6661.4	
323.7	5025	
323.91	4983.4	
324.12	4477.5	
324.33	5603.2	
324.53	5812.1	
324.74	4267.3	
324.95	4505.5	
325.16	4909	
325.37	5363.6	
325.57	3657	
325.78	3685.7	
325.99	5571.2	
326.2	4999.8	
326.4	5211.4	
326.61	3345	
326.82	5433.3	
327.03	5656.5	
327.24	5223.7	
327.44	4980.7	
327.65	5770.5	
327.86	4682.3	
328.07	4276.8	
328.27	3463.1	
328.48	6206	
328.69	5107	
328.9	5268.1	
329.1	3928.7	
329.31	5466	
329.52	6436.1	
329.73	3635.1	
329.93	4087.7	
330.14	5497.4	
330.35	5730.2	
330.56	6027.9	
330.76	4444.8	
330.97	5323.4	
331.18	5665.4	
331.39	4035.2	
331.59	3250.1	
331.8	6143.2	
332.01	6320	
332.22	3717.7	
332.42	4290.5	
332.63	5658.5	
332.84	5235.3	
333.05	4078.9	
333.25	3722.5	
333.46	5300.1	
333.67	5535.7	
333.88	3783.3	
334.08	4234.5	
334.29	7407.5	
334.5	6247.7	
334.7	3521.8	
334.91	5281.7	
335.12	5097.4	
335.33	6008.1	
335.53	4039.3	
335.74	5997.8	
335.95	5283.8	
336.16	5166.3	
336.36	4054.3	
336.57	4681	
336.78	5016.8	
336.98	6171.2	
337.19	4977.9	
337.4	3982.6	
337.61	6707.1	
337.81	5033.9	
338.02	3697.3	
338.23	4860.5	
338.43	6316.6	
338.64	5154.1	
338.85	3633.1	
339.05	4816.8	
339.26	6367.1	
339.47	4920.6	
339.68	3592.8	
339.88	5524.1	
340.09	5743.9	
340.3	6034.7	
340.5	4278.2	
340.71	3248.8	
340.92	4975.9	
341.13	6320.7	
341.33	3515.7	
341.54	4309.6	
341.75	5760.3	
341.95	5378	
342.16	4131.4	
342.37	4481.6	
342.57	5095.3	
342.78	5506.3	
342.99	4536.9	
343.19	3231	
343.4	5928.9	
343.61	5812.8	
343.81	3947.8	
344.02	3556	
344.23	5988.3	
344.43	6440.2	
344.64	4528.1	
344.85	4450.2	
345.06	5806	
345.26	6200.6	
345.47	4144.4	
345.68	4977.9	
345.88	4868	
346.09	5933	
346.3	4313	
346.5	3216.7	
346.71	5569.1	
346.92	5225.1	
347.12	3310.9	
347.33	4222.9	
347.54	6058.6	
347.74	6558.3	
347.95	4154	
348.16	3082.9	
348.36	5371.8	
348.57	5139.7	
348.78	4119.8	
348.98	4543.1	
349.19	5467.4	
349.39	4969.1	
349.6	3368.9	
349.81	3655.6	
350.01	5770.5	
350.22	5229.1	
350.43	3975.8	
350.63	4896.7	
350.84	5575.9	
351.05	5339.7	
351.25	3654.3	
351.46	3290.4	
351.67	6128.9	
351.87	5209.3	
352.08	3883.6	
352.29	4462.5	
352.49	5941.8	
352.7	5733.6	
352.9	3526.6	
353.11	4445.5	
353.32	6730.3	
353.52	5232.6	
353.73	3433.1	
353.94	4487.8	
354.14	5869.5	
354.35	5642.2	
354.55	3632.4	
354.76	3966.2	
354.97	5763	
355.17	5588.2	
355.38	3373.7	
355.59	4800.4	
355.79	5195	
356	5694	
356.2	3997	
356.41	3506.8	
356.62	4922.6	
356.82	5409.4	
357.03	4313	
357.24	3798.3	
357.44	5235.3	
357.65	5311.7	
357.85	5239.4	
358.06	4023.6	
358.27	4938.3	
358.47	5147.2	
358.68	3321.8	
358.88	4265.9	
359.09	5769.1	
359.3	6152.1	
359.5	4988.9	
359.71	4447.5	
359.91	6685.3	
360.12	5883.1	
360.33	4193.6	
360.53	4770.4	
360.74	5162.2	
360.94	5264.6	
361.15	4492.6	
361.36	3654.3	
361.56	6061.3	
361.77	5416.2	
361.97	4969.1	
362.18	3893.9	
362.38	6006	
362.59	5036.6	
362.8	3568.9	
363	3366.9	
363.21	4803.2	
363.41	5579.3	
363.62	4202.4	
363.83	5259.2	
364.03	5595.7	
364.24	6663.4	
364.44	5315.8	
364.65	5237.3	
364.85	5361.6	
365.06	4992.9	
365.27	3798.3	
365.47	3806.5	
365.68	6493.4	
365.88	5307.7	
366.09	4149.2	
366.29	3882.9	
366.5	5653.8	
366.71	6150.7	
366.91	5242.1	
367.12	4402.5	
367.32	6697.5	
367.53	5968.5	
367.73	4277.5	
367.94	5377.3	
368.14	5952.8	
368.35	6808.8	
368.56	4233.8	
368.76	3661.8	
368.97	6022.4	
369.17	7838.9	
369.38	3761.4	
369.58	4078.2	
369.79	4996.4	
369.99	6325.5	
370.2	5101.5	
370.4	4168.3	
370.61	5700.2	
370.82	6903.7	
371.02	4083.6	
371.23	3343	
371.43	4861.2	
371.64	6294.8	
371.84	4039.3	
372.05	5361.6	
372.25	7722.2	
372.46	6044.2	
372.66	4089.8	
372.87	4014	
373.07	6087.2	
373.28	7781.6	
373.48	5199.8	
373.69	4833.9	
373.9	5406.6	
374.1	5550	
374.31	5037.3	
374.51	4540.3	
374.72	6322.1	
374.92	5178.6	
375.13	5268.1	
375.33	4377.2	
375.54	5965.1	
375.74	5276.9	
375.95	4473.4	
376.15	5717.2	
376.36	5905	
376.56	5816.2	
376.77	4534.9	
376.97	5032.5	
377.18	7066.2	
377.38	6015.6	
377.59	5336.3	
377.79	3961.5	
378	5775.3	
378.2	6270.2	
378.41	4042	
378.61	3937.6	
378.82	6358.9	
379.02	5406	
379.23	4244.8	
379.43	5410.1	
379.64	6380.1	
379.84	5991	
380.05	4113.7	
380.25	3936.2	
380.46	6130.3	
380.66	5670.1	
380.87	5494.7	
381.07	5878.4	
381.28	6789	
381.48	6116.6	
381.69	4084.3	
381.89	4131.4	
382.1	4977.9	
382.3	6247.7	
382.51	5284.4	
382.71	6232.7	
382.91	6202.6	
383.12	6642.9	
383.32	4438.6	
383.53	4670.1	
383.73	5939.8	
383.94	5750	
384.14	4634.6	
384.35	3688.4	
384.55	5677.7	
384.76	6176	
384.96	4443.4	
385.17	4827.1	
385.37	6080.4	
385.58	5370.5	
385.78	4866.7	
385.98	3538.2	
386.19	5562.3	
386.39	5969.1	
386.6	4197.7	
386.8	4422.9	
387.01	6045.6	
387.21	6178.7	
387.42	4882.4	
387.62	5468.8	
387.83	5341.8	
388.03	6086.6	
388.23	4426.3	
388.44	5433.9	
388.64	5029.1	
388.85	5164.3	
389.05	4847.5	
389.26	5452.4	
389.46	7148.8	
389.67	6455.2	
389.87	4860.5	
390.07	4890.5	
390.28	5706.3	
390.48	5307	
390.69	4000.4	
390.89	4361.5	
391.1	5438.7	
391.3	6439.5	
391.5	5586.9	
391.71	6221.7	
391.91	6081.1	
392.12	7244.3	
392.32	5673.6	
392.53	4807.3	
392.73	5540.4	
392.93	5738.4	
393.14	4545.1	
393.34	5388.2	
393.55	6251.1	
393.75	5752.1	
393.95	4506.9	
394.16	4476.2	
394.36	5487.2	
394.57	6121.4	
394.77	3878.2	
394.98	4376.5	
395.18	5352.7	
395.38	5611.4	
395.59	5242.8	
395.79	4194.2	
396	5549.3	
396.2	6002.6	
396.4	5060.5	
396.61	4989.5	
396.81	6284.5	
397.02	5500.2	
397.22	5334.3	
397.42	5399.1	
397.63	6233.3	
397.83	5423.7	
398.04	4167.6	
398.24	4742.4	
398.44	5958.2	
398.65	5016.2	
398.85	3966.2	
399.05	4083	
399.26	5351.3	
399.46	7188.4	
399.67	4478.9	
399.87	4235.2	
400.07	5799.2	
400.28	6105.7	
400.48	4242.7	
400.69	5473.5	
400.89	6417.7	
401.09	6797.9	
401.3	4185.4	
401.5	5457.2	
401.7	7133.8	
401.91	7427.3	
402.11	4597	
402.32	4867.3	
402.52	6427.2	
402.72	6321.4	
402.93	5115.8	
403.13	3863.2	
403.33	7266.9	
403.54	5855.1	
403.74	4759.5	
403.94	5682.4	
404.15	5939.8	
404.35	7086.7	
404.56	4437.9	
404.76	6311.2	
404.96	6298.2	
405.17	6091.3	
405.37	5343.2	
405.57	5002.5	
405.78	6395.1	
405.98	5790.3	
406.18	4440	
406.39	5463.3	
406.59	6341.9	
406.79	6047	
407	4330.8	
407.2	4409.3	
407.4	6358.9	
407.61	6541.2	
407.81	4354	
408.01	6631.3	
408.22	5173.9	
408.42	7305.8	
408.62	5467.4	
408.83	4779.3	
409.03	5899.5	
409.23	5711.8	
409.44	4980	
409.64	5294.7	
409.84	6946	
410.05	6738.5	
410.25	5126.1	
410.45	4873.5	
410.66	6225.8	
410.86	8828.8	
411.06	5252.4	
411.27	5184.8	
411.47	8507.3	
411.67	6386.2	
411.88	5449.6	
412.08	5705.6	
412.28	7071	
412.49	7572	
412.69	5126.1	
412.89	5125.4	
413.09	7350.8	
413.3	7186.3	
413.5	5221.6	
413.7	4866	
413.91	6466.1	
414.11	7384.3	
414.31	5056.4	
414.52	5541.1	
414.72	7033.4	
414.92	6789.7	
415.12	5074.2	
415.33	5621	
415.53	7332.4	
415.73	7560.4	
415.94	6039.5	
416.14	5390.3	
416.34	6253.8	
416.55	5971.2	
416.75	6730.3	
416.95	6094.1	
417.15	7307.8	
417.36	8125	
417.56	6913.3	
417.76	5847	
417.97	7678.5	
418.17	7354.3	
418.37	5446.2	
418.57	5498.8	
418.78	7041.6	
418.98	6724.2	
419.18	6536.4	
419.38	6371.2	
419.59	6851.1	
419.79	6406	
419.99	5410.1	
420.2	5748	
420.4	7351.5	
420.6	7547.4	
420.8	5262.6	
421.01	5014.1	
421.21	7051.2	
421.41	7391.1	
421.61	5667.4	
421.82	5389.6	
422.02	6535.8	
422.22	7680.6	
422.42	6214.2	
422.63	5840.1	
422.83	6696.9	
423.03	8044.4	
423.23	5911.8	
423.44	4664.6	
423.64	6736.5	
423.84	6621.1	
424.04	5263.3	
424.25	4873.5	
424.45	7844.4	
424.65	7690.8	
424.85	4635.2	
425.06	5348.6	
425.26	7662.1	
425.46	6238.8	
425.66	5821.7	
425.87	5414.8	
426.07	7559.1	
426.27	7331	
426.47	5657.2	
426.67	4961.5	
426.88	7841	
427.08	7217.7	
427.28	5848.3	
427.48	4806.6	
427.69	6081.8	
427.89	6810.9	
428.09	5819.6	
428.29	4989.5	
428.5	7499.7	
428.7	6990.4	
428.9	4773.8	
429.1	5397.1	
429.3	6862.7	
429.51	7432.8	
429.71	5142.4	
429.91	5925.5	
430.11	7073	
430.31	7366.5	
430.52	5441.5	
430.72	5744.6	
430.92	7788.4	
431.12	7199.3	
431.32	5104.9	
431.53	5497.4	
431.73	6031.3	
431.93	7873.8	
432.13	4922	
432.33	4829.8	
432.54	6518	
432.74	6926.2	
432.94	4754	
433.14	5824.4	
433.34	7007.5	
433.55	6559.6	
433.75	5724.1	
433.95	7626	
434.15	6853.2	
434.35	6567.2	
434.56	4854.4	
434.76	4358.1	
434.96	6840.9	
435.16	7137.2	
435.36	4795	
435.56	6021.7	
435.77	6389	
435.97	6670.9	
436.17	6786.3	
436.37	5872.9	
436.57	6521.4	
436.78	6324.1	
436.98	7828	
437.18	6591	
437.38	7156.3	
437.58	6675.7	
437.78	6765.8	
437.99	5271.5	
438.19	7231.4	
438.39	8047.8	
438.59	5214.8	
438.79	4674.8	
438.99	7888.8	
439.2	6594.5	
439.4	4820.9	
439.6	4657.8	
439.8	6885.3	
440	7933.8	
440.2	5782.8	
440.4	5874.9	
440.61	7273	
440.81	7880.6	
441.01	4930.8	
441.21	5927.5	
441.41	7765.9	
441.61	7393.2	
441.81	6227.2	
442.02	7295.5	
442.22	8374.1	
442.42	7488.7	
442.62	5130.8	
442.82	5107	
443.02	7673.7	
443.22	6808.1	
443.43	5458.5	
443.63	5016.8	
443.83	6536.4	
444.03	6597.2	
444.23	6294.8	
444.43	5859.2	
444.63	6922.8	
444.83	8246.5	
445.04	5107	
445.24	6531.7	
445.44	7384.3	
445.64	7483.3	
445.84	6024.4	
446.04	6057.2	
446.24	6699.6	
446.44	7849.2	
446.65	5154.1	
446.85	5513.1	
447.05	7123.5	
447.25	7740.6	
447.45	5577.3	
447.65	4919.2	
447.85	6937.2	
448.05	6693.4	
448.25	6036	
448.46	5765	
448.66	6995.2	
448.86	6746	
449.06	4749.2	
449.26	6001.9	
449.46	7377.5	
449.66	6312.5	
449.86	5416.9	
450.06	5496.1	
450.26	6510.5	
450.47	7100.3	
450.67	5767.1	
450.87	6086.6	
451.07	7214.3	
451.27	6918	
451.47	5003.9	
451.67	5590.3	
451.87	6627.9	
452.07	7874.4	
452.27	5186.1	
452.47	5207.3	
452.67	6942.6	
452.88	7561.8	
453.08	4586.1	
453.28	6667.5	
453.48	8172.8	
453.68	6949.4	
453.88	5111.7	
454.08	5315.8	
454.28	7260.7	
454.48	6853.9	
454.68	5879	
454.88	6417	
455.08	7347.4	
455.28	7092.1	
455.48	4858.5	
455.68	5593	
455.89	7828	
456.09	7406.1	
456.29	5266	
456.49	5276.9	
456.69	7576.8	
456.89	6807.4	
457.09	5810.8	
457.29	6211.5	
457.49	7223.9	
457.69	7362.4	
457.89	5575.9	
458.09	4999.1	
458.29	6916.7	
458.49	7646.4	
458.69	5978.7	
458.89	5362.3	
459.09	7993.9	
459.29	8125	
459.49	5533.6	
459.69	6419	
459.9	7542	
460.1	6925.5	
460.3	5488.6	
460.5	5186.8	
460.7	7390.4	
460.9	7114	
461.1	4831.8	
461.3	6178	
461.5	8060.1	
461.7	7624.6	
461.9	5212.1	
462.1	5781.4	
462.3	7040.2	
462.5	7705.1	
462.7	5308.3	
462.9	5443.5	
463.1	8775.5	
463.3	8355.7	
463.5	5499.5	
463.7	6394.4	
463.9	7193.8	
464.1	7614.3	
464.3	5618.3	
464.5	5894.1	
464.7	7878.5	
464.9	7535.8	
465.1	7309.9	
465.3	6223.8	
465.5	8249.2	
465.7	8150.9	
465.9	6578.8	
466.1	6349.4	
466.3	7945.4	
466.5	7779.6	
466.7	7291.5	
466.9	6006.7	
467.1	7740.6	
467.3	8713.4	
467.5	7202.7	
467.7	5888.6	
467.9	8989.2	
468.1	9858.9	
468.3	6840.9	
468.5	7245.7	
468.7	7699.7	
468.9	7698.3	
469.1	6234	
469.3	6918.7	
469.5	9725.8	
469.7	7206.8	
469.9	6720.1	
470.1	6007.4	
470.3	7709.9	
470.5	7707.2	
470.7	7416.4	
470.9	6101.6	
471.1	7459.4	
471.3	7977.5	
471.5	5814.2	
471.69	7931.8	
471.89	7360.4	
472.09	6847.7	
472.29	6712.6	
472.49	7091.4	
472.69	7017.7	
472.89	7927.7	
473.09	5774.6	
473.29	5976	
473.49	7212.9	
473.69	7499	
473.89	7058	
474.09	6130.9	
474.29	8710.7	
474.49	8440.4	
474.69	6918.7	
474.89	6227.9	
475.09	7438.9	
475.29	7326.9	
475.49	5672.2	
475.69	5896.1	
475.88	9194	
476.08	7813.7	
476.28	5545.9	
476.48	6110.5	
476.68	8239	
476.88	8131.1	
477.08	5903.6	
477.28	6243.6	
477.48	7544	
477.68	8255.4	
477.88	5658.5	
478.08	6007.4	
478.28	8482	
478.48	7628.7	
478.67	6063.4	
478.87	5554.8	
479.07	8294.3	
479.27	7664.2	
479.47	6339.1	
479.67	6322.8	
479.87	8102.4	
480.07	8717.5	
480.27	5468.8	
480.47	7251.2	
480.67	7826.7	
480.87	8419.9	
481.06	5797.8	
481.26	6607.4	
481.46	7612.3	
481.66	7623.2	
481.86	6306.4	
482.06	7452.6	
482.26	7397.9	
482.46	8450.6	
482.66	6198.5	
482.86	5792.3	
483.05	7628	
483.25	7103.7	
483.45	8739.4	
483.65	6176.7	
483.85	7241.6	
484.05	7548.8	
484.25	6608.1	
484.45	7111.2	
484.65	8536.6	
484.84	8447.2	
485.04	5984.8	
485.24	6014.9	
485.44	8761.2	
485.64	7000.6	
485.84	5279.7	
486.04	6739.9	
486.24	7397.9	
486.44	7683.3	
486.63	5201.2	
486.83	6094.1	
487.03	7216.4	
487.23	7464.2	
487.43	5306.3	
487.63	7829.4	
487.83	7490.1	
488.02	8449.9	
488.22	6363.7	
488.42	6946	
488.62	8377.6	
488.82	7266.2	
489.02	5960.3	
489.22	6075.6	
489.41	8216.5	
489.61	7805.5	
489.81	5726.1	
490.01	5730.2	
490.21	8120.9	
490.41	8819.9	
490.61	5623.7	
490.8	5763.7	
491	7574.1	
491.2	6954.2	
491.4	6502.3	
491.6	5586.2	
491.8	7666.9	
491.99	7765.9	
492.19	5355.4	
492.39	5803.9	
492.59	8158.4	
492.79	8092.2	
492.99	6619	
493.18	5613.5	
493.38	8144.8	
493.58	8894.3	
493.78	6325.5	
493.98	5877.7	
494.18	7855.3	
494.37	7271	
494.57	6529.6	
494.77	6389	
494.97	7925.6	
495.17	8321.6	
495.37	5883.1	
495.56	6318.7	
495.76	8428.8	
495.96	8011.7	
496.16	7185.6	
496.36	6056.5	
496.55	8234.9	
496.75	7831.4	
496.95	6533	
497.15	6395.1	
497.35	8303.1	
497.54	8234.2	
497.74	6079.1	
497.94	7901.1	
498.14	8940.7	
498.34	8707.3	
498.53	5696.1	
498.73	6521.4	
498.93	7470.3	
499.13	8084.7	
499.33	6309.8	
499.52	7043.6	
499.72	8071.7	
499.92	8550.3	
500.12	6032	
500.32	6296.1	
500.51	8482.7	
500.71	8158.4	
500.91	7060	
501.11	6685.9	
501.31	8260.1	
501.5	8747.6	
501.7	7417.7	
501.9	6305	
502.1	8145.5	
502.29	8408.3	
502.49	6752.2	
502.69	7360.4	
502.89	8361.2	
503.09	8361.9	
503.28	5783.5	
503.48	5978	
503.68	7475.8	
503.88	7594.6	
504.07	7060.7	
504.27	6502.3	
504.47	7976.2	
504.67	8184.4	
504.86	6969.2	
505.06	6593.1	
505.26	7636.2	
505.46	9543.5	
505.65	6500.9	
505.85	6748.7	
506.05	7585	
506.25	8100.4	
506.44	5815.5	
506.64	6813.6	
506.84	7529	
507.04	8451.3	
507.23	6006	
507.43	6600.6	
507.63	9596.8	
507.83	7765.9	
508.02	6595.8	
508.22	6275	
508.42	9871.9	
508.62	7520.1	
508.81	6511.9	
509.01	7091.4	
509.21	7376.8	
509.4	7654.6	
509.6	6666.8	
509.8	5984.8	
510	7623.2	
510.19	9175.6	
510.39	6054.5	
510.59	6093.4	
510.79	7390.4	
510.98	8983.8	
511.18	6141.9	
511.38	6279.8	
511.57	8346.2	
511.77	8181	
511.97	7069.6	
512.17	5954.1	
512.36	8243.1	
512.56	8251.3	
512.76	6016.9	
512.95	5749.3	
513.15	8357.8	
513.35	6963.8	
513.55	6845	
513.74	5967.1	
513.94	8266.3	
514.14	7696.9	
514.33	6964.5	
514.53	6680.5	
514.73	7575.4	
514.92	7795.9	
515.12	6097.5	
515.32	5938.4	
515.51	7851.2	
515.71	8486.8	
515.91	7696.9	
516.11	5961	
516.3	9710.8	
516.5	7436.9	
516.7	6518	
516.89	7159	
517.09	7649.2	
517.29	7500.3	
517.48	6899.6	
517.68	6263.4	
517.88	7267.6	
518.07	8011.7	
518.27	6797.9	
518.47	5728.9	
518.66	8546.9	
518.86	7114	
519.06	5655.8	
519.25	6085.9	
519.45	7441.6	
519.65	9031.5	
519.84	6729.6	
520.04	7461.4	
520.24	9404.3	
520.43	8172.1	
520.63	6454.5	
520.83	6239.5	
521.02	7352.2	
521.22	8060.8	
521.42	6758.3	
521.61	7264.8	
521.81	7662.1	
522.01	7787.7	
522.2	6491.4	
522.4	6322.1	
522.6	8221.9	
522.79	7002.7	
522.99	6374.6	
523.18	5577.3	
523.38	7904.5	
523.58	7867.6	
523.77	7684.7	
523.97	5533.6	
524.17	9785.2	
524.36	8987.9	
524.56	6959	
524.76	6580.8	
524.95	7784.3	
525.15	7488.1	
525.34	6344.6	
525.54	6401.3	
525.74	8148.9	
525.93	7129.7	
526.13	7585.7	
526.33	6257.2	
526.52	8553.7	
526.72	8014.4	
526.91	7585.7	
527.11	6778.1	
527.31	8675.2	
527.5	8912.8	
527.7	6652.5	
527.89	5637.4	
528.09	7264.8	
528.29	7849.9	
528.48	7020.4	
528.68	6584.9	
528.87	8281.3	
529.07	8417.2	
529.27	6609.5	
529.46	6072.9	
529.66	8009.6	
529.85	8486.8	
530.05	5957.5	
530.25	6776.7	
530.44	9480.7	
530.64	7877.2	
530.83	6260	
531.03	6629.3	
531.23	8334.6	
531.42	8155	
531.62	7314.7	
531.81	6495.5	
532.01	8353	
532.21	8850	
532.4	6201.2	
532.6	6494.8	
532.79	9202.9	
532.99	8358.4	
533.18	6548.7	
533.38	7681.9	
533.58	7819.1	
533.77	8671.1	
533.97	6456.6	
534.16	7344	
534.36	8936.7	
534.55	7925.6	
534.75	7496.2	
534.95	6544.6	
535.14	8778.3	
535.34	7888.8	
535.53	6270.2	
535.73	8357.8	
535.92	9429.5	
536.12	8146.8	
536.31	6303.6	
536.51	7612.3	
536.71	8490.9	
536.9	7995.3	
537.1	6568.5	
537.29	6662.7	
537.49	8850.6	
537.68	7841	
537.88	7026.6	
538.07	6154.8	
538.27	8086.7	
538.46	9151.7	
538.66	6074.3	
538.86	6571.9	
539.05	8118.1	
539.25	8492.9	
539.44	6845.7	
539.64	6410.8	
539.83	7931.1	
540.03	9085.5	
540.22	6240.8	
540.42	6483.2	
540.61	8316.8	
540.81	8389.2	
541	6960.4	
541.2	7567.2	
541.39	7733.1	
541.59	8232.2	
541.78	7301.7	
541.98	6320.7	
542.18	7431.4	
542.37	7514.7	
542.57	6833.4	
542.76	7374.7	
542.96	7603.4	
543.15	8401.5	
543.35	6838.2	
543.54	6122.1	
543.74	8692.3	
543.93	8250.6	
544.13	6815	
544.32	8080.6	
544.52	8620.6	
544.71	7621.2	
544.91	5864.7	
545.1	7206.8	
545.3	7719.5	
545.49	8503.2	
545.69	5805.3	
545.88	6513.2	
546.08	9435	
546.27	9015.2	
546.47	7077.8	
546.66	6217.6	
546.86	8670.4	
547.05	9338.1	
547.24	6498.2	
547.44	6332.3	
547.63	7520.8	
547.83	8808.3	
548.02	6763.1	
548.22	6941.2	
548.41	7433.4	
548.61	8806.3	
548.8	6271.6	
549	6229.2	
549.19	8041	
549.39	8398.7	
549.58	5913.2	
549.78	6602.7	
549.97	8523	
550.17	8039	
550.36	7514.7	
550.55	8542.8	
550.75	8028	
550.94	8914.8	
551.14	6226.5	
551.33	6573.3	
551.53	7320.8	
551.72	8336.6	
551.92	6621.1	
552.11	6423.1	
552.31	8402.8	
552.5	8530.5	
552.69	8213.7	
552.89	6017.6	
553.08	8303.1	
553.28	8074.5	
553.47	6433.4	
553.67	7675.1	
553.86	9072.5	
554.06	7236.2	
554.25	5591	
554.44	6168.5	
554.64	9942.2	
554.83	9304.6	
555.03	6219	
555.22	6550.8	
555.42	8542.8	
555.61	8233.5	
555.8	6354.8	
556	6753.5	
556.19	7367.9	
556.39	8662.9	
556.58	6507.1	
556.78	6354.8	
556.97	8092.2	
557.16	7823.9	
557.36	7727.7	
557.55	6002.6	
557.75	7099.6	
557.94	8919.6	
558.13	6221	
558.33	5884.5	
558.52	8686.8	
558.72	7504.4	
558.91	6029.2	
559.1	6252.4	
559.3	7264.1	
559.49	7006.8	
559.69	5584.1	
559.88	6715.3	
560.07	8057.4	
560.27	8564.6	
560.46	6879.1	
560.66	6953.5	
560.85	7847.1	
561.04	7040.2	
561.24	5995.8	
561.43	6257.2	
561.63	7358.4	
561.82	7656.7	
562.01	7547.4	
562.21	6550.8	
562.4	8025.3	
562.59	9027.4	
562.79	6367.1	
562.98	6011.5	
563.18	7976.2	
563.37	9529.2	
563.56	6847.7	
563.76	5850.4	
563.95	7378.8	
564.14	7259.4	
564.34	6268.8	
564.53	6149.4	
564.73	7916.8	
564.92	8315.4	
565.11	6464.1	
565.31	5803.3	
565.5	8510	
565.69	7489.4	
565.89	6042.2	
566.08	6438.8	
566.27	8428.8	
566.47	8874.5	
566.66	6989.7	
566.85	5555.5	
567.05	7965.2	
567.24	7312.6	
567.44	5968.5	
567.63	7412.3	
567.82	8221.9	
568.02	7915.4	
568.21	5880.4	
568.4	6423.8	
568.6	7732.4	
568.79	7720.8	
568.98	5730.2	
569.18	5979.4	
569.37	7709.2	
569.56	9792.7	
569.76	6330.3	
569.95	7344.7	
570.14	8224.6	
570.34	8032.8	
570.53	5752.1	
570.72	5859.2	
570.91	8744.8	
571.11	7659.4	
571.3	6354.2	
571.49	7155.6	
571.69	7770.7	
571.88	7298.3	
572.07	6865.5	
572.27	6832.7	
572.46	7357.7	
572.65	8349.6	
572.85	6100.2	
573.04	6378.7	
573.23	8598.7	
573.43	7785	
573.62	5792.3	
573.81	6445	
574	7775.5	
574.2	7629.4	
574.39	6046.3	
574.58	6194.4	
574.78	8656.8	
574.97	7912.7	
575.16	6585.6	
575.36	6857.3	
575.55	8301.8	
575.74	8443.8	
575.93	5717.9	
576.13	6836.1	
576.32	7599.3	
576.51	8247.2	
576.71	6203.3	
576.9	7593.9	
577.09	8514.1	
577.28	8073.1	
577.48	6721.4	
577.67	5555.5	
577.86	7711.3	
578.05	8019.8	
578.25	6232.7	
578.44	6391.7	
578.63	7854	
578.83	9017.2	
579.02	5701.5	
579.21	7197.2	
579.4	8034.2	
579.6	7741.3	
579.79	6428.6	
579.98	8834.9	
580.17	8401.5	
580.37	8434.9	
580.56	5859.2	
580.75	6626.5	
580.94	8877.3	
581.14	8678.6	
581.33	7116	
581.52	6010.8	
581.71	8171.4	
581.91	8851.3	
582.1	5613.5	
582.29	6303	
582.48	7808.2	
582.68	7750.2	
582.87	6787.7	
583.06	6333.7	
583.25	8168	
583.45	7969.3	
583.64	7129.7	
583.83	7847.8	
584.02	7513.3	
584.21	8139.3	
584.41	7020.4	
584.6	6338.5	
584.79	7750.2	
584.98	8578.9	
585.18	5796.4	
585.37	5745.2	
585.56	7294.2	
585.75	8146.8	
585.94	6067.4	
586.14	6758.3	
586.33	8804.2	
586.52	7728.4	
586.71	6699.6	
586.91	6298.2	
587.1	7222.5	
587.29	8322.9	
587.48	6319.3	
587.67	6101.6	
587.87	8149.6	
588.06	8249.2	
588.25	7473.7	
588.44	6885.3	
588.63	7816.4	
588.83	8495	
589.02	6278.4	
589.21	6166.4	
589.4	7681.2	
589.59	7537.9	
589.78	5457.8	
589.98	5756.2	
590.17	7262.1	
590.36	7884.7	
590.55	5203.9	
590.74	6189.6	
590.94	9342.2	
591.13	7823.2	
591.32	5861.3	
591.51	5326.1	
591.7	8221.2	
591.89	7570	
592.09	5466	
592.28	5991.7	
592.47	6898.9	
592.66	8849.3	
592.85	5350.7	
593.05	5705	
593.24	7471	
593.43	8214.4	
593.62	5730.2	
593.81	6272.9	
594	7445	
594.19	7728.4	
594.39	5651	
594.58	5601.2	
594.77	7819.1	
594.96	8527.1	
595.15	5544.5	
595.34	6230.6	
595.54	7932.5	
595.73	6944.7	
595.92	4971.8	
596.11	6155.5	
596.3	8533.2	
596.49	6999.3	
596.68	5935	
596.88	6350.8	
597.07	8097.7	
597.26	6834.8	
597.45	5365.7	
597.64	6646.3	
597.83	7093.5	
598.02	7800	
598.22	5554.1	
598.41	6232	
598.6	7553.6	
598.79	7067.5	
598.98	5576.6	
599.17	6484.6	
599.36	7592.5	
599.55	8886.8	
599.74	7608.2	
599.94	7423.2	
600.13	8208.3	
600.32	6982.9	
600.51	5335.6	
600.7	5410.7	
600.89	8892.3	
601.08	8870.4	
601.27	5193	
601.47	6297.5	
601.66	8117.5	
601.85	8840.4	
602.04	5922	
602.23	6059.9	
602.42	7120.1	
602.61	7795.3	
602.8	5836	
602.99	5625.1	
603.18	7467.6	
603.37	7641	
603.57	6236.7	
603.76	6847.7	
603.95	8499.8	
604.14	8043.1	
604.33	5626.5	
604.52	5976	
604.71	7648.5	
604.9	7292.8	
605.09	6589	
605.28	6470.9	
605.47	8211.7	
605.66	8007.6	
605.86	6283.9	
606.05	5660.6	
606.24	8256.7	
606.43	6705.7	
606.62	6001.2	
606.81	6810.2	
607	8170	
607.19	7372	
607.38	5409.4	
607.57	5707.7	
607.76	7211.6	
607.95	6666.8	
608.14	6158.2	
608.33	6733.7	
608.52	7223.2	
608.72	8092.2	
608.91	5410.7	
609.1	5248.3	
609.29	7285.3	
609.48	6771.3	
609.67	6314.6	
609.86	5319.9	
610.05	6880.5	
610.24	7333.8	
610.43	5142.4	
610.62	4842.8	
610.81	8480	
611	8202.8	
611.19	5306.3	
611.38	6115.2	
611.57	7598	
611.76	9050.7	
611.95	5120.6	
612.14	4895.3	
612.33	7332.4	
612.52	6870.9	
612.71	5662.6	
612.9	4864.6	
613.09	6425.8	
613.28	8852.7	
613.47	5371.1	
613.66	6396.5	
613.85	7522.9	
614.04	7052.5	
614.24	5510.4	
614.43	4666.6	
614.62	7658.7	
614.81	7508.5	
615	6115.2	
615.19	6131.6	
615.38	6847.7	
615.57	7208.8	
615.76	6023.8	
615.95	6977.4	
616.14	7751.6	
616.33	7301.7	
616.52	6268.8	
616.71	6472.9	
616.9	7613	
617.09	7414.3	
617.28	5512.4	
617.47	6935.8	
617.66	6628.6	
617.85	6651.1	
618.04	6475	
618.22	5864.7	
618.41	7008.8	
618.6	7877.9	
618.79	5775.3	
618.98	5470.8	
619.17	8231.5	
619.36	6540.5	
619.55	5661.3	
619.74	5668.8	
619.93	7413.6	
620.12	6859.3	
620.31	6214.9	
620.5	6444.3	
620.69	8101.1	
620.88	8413.7	
621.07	7127.6	
621.26	6097.5	
621.45	7654.6	
621.64	7593.9	
621.83	6298.9	
622.02	5365	
622.21	7598	
622.4	7446.4	
622.59	6740.5	
622.78	6529.6	
622.97	7004.1	
623.16	7988.4	
623.35	6149.4	
623.54	5234.6	
623.72	7209.5	
623.91	7381.6	
624.1	6376.7	
624.29	5050.3	
624.48	8512	
624.67	7679.9	
624.86	6333	
625.05	5334.3	
625.24	8676.6	
625.43	6911.2	
625.62	8139.3	
625.81	5521.3	
626	8052.6	
626.19	7208.2	
626.38	6400.6	
626.56	5761.6	
626.75	7090.8	
626.94	7810.3	
627.13	6381.5	
627.32	5059.8	
627.51	7712	
627.7	9130.5	
627.89	5250.3	
628.08	6389.7	
628.27	6929.6	
628.46	7118.1	
628.65	5515.2	
628.83	5115.8	
629.02	7712	
629.21	6920.1	
629.4	6006.7	
629.59	6156.2	
629.78	6881.9	
629.97	7957.7	
630.16	6222.4	
630.35	5690.6	
630.54	8355.7	
630.72	8108.6	
630.91	5642.8	
631.1	6266.8	
631.29	7480.5	
631.48	7641	
631.67	6313.2	
631.86	5748	
632.05	7065.5	
632.24	7212.3	
632.42	5413.5	
632.61	5991.7	
632.8	7215.7	
632.99	6934.4	
633.18	5954.1	
633.37	6431.3	
633.56	7499.7	
633.75	7267.6	
633.93	6032.6	
634.12	5610.8	
634.31	8372.1	
634.5	7983	
634.69	5681.7	
634.88	6278.4	
635.07	7193.1	
635.25	7973.4	
635.44	6690.7	
635.63	6864.1	
635.82	7121.5	
636.01	6605.4	
636.2	6591	
636.39	6120	
636.57	8343.4	
636.76	7968	
636.95	5519.3	
637.14	7067.5	
637.33	7598.6	
637.52	8600.1	
637.7	5305.6	
637.89	6232	
638.08	7096.2	
638.27	8762.6	
638.46	6448.4	
638.65	6883.2	
638.83	8690.2	
639.02	6905.1	
639.21	6322.1	
639.4	6865.5	
639.59	7453.2	
639.78	7041.6	
639.96	5601.9	
640.15	5558.9	
640.34	7406.1	
640.53	7631.4	
640.72	5316.5	
640.91	5644.9	
641.09	6737.1	
641.28	8239	
641.47	5637.4	
641.66	6538.5	
641.85	7475.8	
642.03	7869.7	
642.22	6331	
642.41	5814.2	
642.6	6840.2	
642.79	6302.3	
642.97	5529.5	
643.16	6366.5	
643.35	6956.9	
643.54	6654.5	
643.73	5498.1	
643.91	6374	
644.1	6589	
644.29	7251.9	
644.48	5589.6	
644.67	5677.7	
644.85	6869.6	
645.04	7219.1	
645.23	5197.7	
645.42	5462.6	
645.6	6720.1	
645.79	8010.3	
645.98	5509	
646.17	4568.3	
646.36	6505	
646.54	7098.9	
646.73	6470.2	
646.92	5134.3	
647.11	6797.9	
647.29	7983.7	
647.48	5251	
647.67	5016.2	
647.86	8170.7	
648.05	8168	
648.23	5631.2	
648.42	6933.1	
648.61	7509.2	
648.8	7238.2	
648.98	5207.3	
649.17	5554.1	
649.36	6781.5	
649.55	6157.6	
649.73	5321.3	
649.92	6040.1	
650.11	6652.5	
650.3	7065.5	
650.48	5513.8	
650.67	5102.9	
650.86	7335.1	
651.05	6195.1	
651.23	5410.7	
651.42	5294	
651.61	6726.9	
651.79	6926.9	
651.98	5577.3	
652.17	5187.5	
652.36	7202	
652.54	6289.3	
652.73	5290.6	
652.92	4999.1	
653.11	7333.1	
653.29	7386.3	
653.48	4515.1	
653.67	5612.1	
653.85	7055.3	
654.04	8215.1	
654.23	5902.2	
654.42	5352	
654.6	6658.6	
654.79	7320.8	
654.98	4864.6	
655.16	5512.4	
655.35	6169.2	
655.54	6146	
655.73	4921.3	
655.91	4853.7	
656.1	7377.5	
656.29	6058.6	
656.47	4368.3	
656.66	6210.1	
656.85	6395.8	
657.03	6399.2	
657.22	4943.8	
657.41	5001.1	
657.59	6546	
657.78	6248.4	
657.97	4611.3	
658.16	5395.7	
658.34	7177.4	
658.53	7585	
658.72	6349.4	
658.9	6810.9	
659.09	6584.9	
659.28	6664.1	
659.46	5114.5	
659.65	5048.2	
659.84	6290	
660.02	6922.8	
660.21	4909	
660.4	4903.5	
660.58	7414.3	
660.77	6681.2	
660.96	5586.9	
661.14	4547.9	
661.33	7944.8	
661.52	7796.6	
661.7	4514.4	
661.89	8505.9	
662.08	6322.1	
662.26	5941.8	
662.45	4805.9	
662.64	4985.4	
662.82	7012.9	
663.01	6212.2	
663.2	4962.9	
663.38	5726.1	
663.57	6957.6	
663.75	6859.3	
663.94	5265.3	
664.13	6554.2	
664.31	6234.7	
664.5	7019.1	
664.69	5734.3	
664.87	6130.9	
665.06	6048.3	
665.25	6882.5	
665.43	6381.5	
665.62	6423.1	
665.8	7304.4	
665.99	6503	
666.18	5290.6	
666.36	5489.2	
666.55	7095.5	
666.74	7111.2	
666.92	4840	
667.11	6611.5	
667.29	6475.7	
667.48	7059.3	
667.67	6146.6	
667.85	5303.6	
668.04	6582.9	
668.22	6488.6	
668.41	5359.5	
668.6	5528.8	
668.78	6257.2	
668.97	6460.7	
669.15	5776	
669.34	4670.1	
669.53	6351.4	
669.71	6707.1	
669.9	4871.4	
670.08	5545.9	
670.27	6313.9	
670.46	6945.3	
670.64	5810.1	
670.83	6041.5	
671.01	6225.1	
671.2	6911.9	
671.38	4999.1	
671.57	4860.5	
671.76	7499.7	
671.94	8051.9	
672.13	4717.8	
672.31	5982.1	
672.5	7052.5	
672.69	6290.7	
672.87	4937.7	
673.06	5264.6	
673.24	6863.4	
673.43	6324.1	
673.61	5741.1	
673.8	5261.2	
673.98	7046.4	
674.17	7239.6	
674.36	5855.8	
674.54	5662	
674.73	6833.4	
674.91	7047.1	
675.1	5374.6	
675.28	5058.5	
675.47	6594.5	
675.65	7189.7	
675.84	5291.3	
676.03	5580	
676.21	6358.9	
676.4	5862.7	
676.58	6087.2	
676.77	5816.9	
676.95	7929.1	
677.14	6283.9	
677.32	4999.8	
677.51	4715.1	
677.69	7216.4	
677.88	5889.3	
678.06	4786.8	
678.25	4854.4	
678.44	6616.3	
678.62	6296.8	
678.81	4616.8	
678.99	5584.1	
679.18	7463.5	
679.36	7012.9	
679.55	5221	
679.73	5861.3	
679.92	6949.4	
680.1	6376	
680.29	6507.8	
680.47	5264.6	
680.66	6225.8	
680.84	7189.7	
681.03	4478.9	
681.21	5531.6	
681.4	6317.3	
681.58	6141.2	
681.77	5025	
681.95	4848.2	
682.14	7127.6	
682.32	7593.9	
682.51	6014.2	
682.69	4686.4	
682.88	6225.8	
683.06	6929	
683.25	5584.8	
683.43	6068.8	
683.62	6531.7	
683.8	7020.4	
683.99	6249.7	
684.17	5487.2	
684.36	7983.7	
684.54	6466.1	
684.73	4642.7	
684.91	4960.9	
685.1	6891.4	
685.28	6352.1	
685.46	5584.8	
685.65	5618.3	
685.83	7205.4	
686.02	6498.9	
686.2	4947.2	
686.39	5186.8	
686.57	6093.4	
686.76	7851.2	
686.94	5001.1	
687.13	5138.4	
687.31	7019.1	
687.5	6543.3	
687.68	4555.4	
687.86	5905.7	
688.05	8286.8	
688.23	5916.6	
688.42	6054.5	
688.6	4995.7	
688.79	6356.2	
688.97	6334.4	
689.16	5463.3	
689.34	4306.2	
689.52	7090.1	
689.71	7400	
689.89	5711.8	
690.08	5027.8	
690.26	6688	
690.45	6485.9	
690.63	6006	
690.81	5171.8	
691	6378.7	
691.18	6324.1	
691.37	5377.3	
691.55	7674.4	
691.74	6322.8	
691.92	8447.9	
692.1	5391.6	
692.29	4788.8	
692.47	6551.5	
692.66	5844.9	
692.84	4999.1	
693.02	5594.4	
693.21	5965.1	
693.39	6488.6	
693.58	5635.3	
693.76	5006.6	
693.94	7686.7	
694.13	7405.5	
694.31	5028.4	
694.5	6070.9	
694.68	6113.2	
694.86	6554.9	
695.05	5392.3	
695.23	5553.4	
695.42	6997.2	
695.6	9415.9	
695.78	6087.2	
695.97	5100.1	
696.15	7070.3	
696.34	6408.1	
696.52	4884.4	
696.7	5764.3	
696.89	6754.2	
697.07	6179.4	
697.25	5597.8	
697.44	7296.2	
697.62	6779.5	
697.81	7223.9	
697.99	5352	
698.17	5815.5	
698.36	6003.3	
698.54	6723.5	
698.72	5670.8	
698.91	4657.1	
699.09	6356.9	
699.28	6236.1	
699.46	5312.4	
699.64	5173.9	
699.83	6126.2	
700.01	7606.8	
700.19	6043.6	
700.38	4395.6	
700.56	7399.3	
700.74	6257.2	
700.93	4812	
701.11	5666	
701.29	6913.9	
701.48	7976.2	
701.66	5002.5	
701.84	5078.3	
702.03	6354.8	
702.21	7097.6	
702.39	4574.5	
702.58	5248.9	
702.76	6827.2	
702.94	6922.1	
703.13	4654.4	
703.31	7271	
703.49	6087.2	
703.68	7114.6	
703.86	4831.2	
704.04	5852.4	
704.23	6556.2	
704.41	7038.9	
704.59	5023	
704.78	6300.9	
704.96	7744.1	
705.14	7155.6	
705.33	4717.2	
705.51	5747.3	
705.69	6488	
705.87	7359.7	
706.06	5979.4	
706.24	4760.8	
706.42	6782.2	
706.61	7090.1	
706.79	5978	
706.97	4839.4	
707.16	6240.8	
707.34	6858	
707.52	5932.3	
707.7	5060.5	
707.89	6364.4	
708.07	6085.9	
708.25	5949.3	
708.44	5980.1	
708.62	6303	
708.8	7516	
708.98	6239.5	
709.17	5074.9	
709.35	6788.3	
709.53	6789.7	
709.72	4882.4	
709.9	4956.8	
710.08	7026.6	
710.26	7077.8	
710.45	6610.8	
710.63	5188.9	
710.81	6687.3	
710.99	6715.3	
711.18	5788.2	
711.36	5345.2	
711.54	6551.5	
711.72	7267.6	
711.91	5435.3	
712.09	4789.5	
712.27	6718.7	
712.45	7425.3	
712.64	5734.3	
712.82	4600.4	
713	6230.6	
713.18	6292	
713.37	4820.9	
713.55	6269.5	
713.73	7399.3	
713.91	5819.6	
714.1	5315.2	
714.28	4812.7	
714.46	7092.8	
714.64	6214.2	
714.83	4289.8	
715.01	5098.1	
715.19	6354.2	
715.37	5728.2	
715.55	4844.8	
715.74	5214.8	
715.92	7417.1	
716.1	5308.3	
716.28	6369.9	
716.47	5350	
716.65	5952.8	
716.83	6135	
717.01	5156.8	
717.19	5271.5	
717.38	8292.9	
717.56	5745.2	
717.74	5509.7	
717.92	4496	
718.1	7012.9	
718.29	6172.6	
718.47	4070	
718.65	4769	
718.83	6857.3	
719.01	6763.8	
719.2	3988.8	
719.38	5091.3	
719.56	6463.4	
719.74	8155	
719.92	4633.9	
720.11	5799.8	
720.29	6515.3	
720.47	5647.6	
720.65	4164.2	
720.83	5223.7	
721.02	6052.4	
721.2	5769.1	
721.38	5247.6	
721.56	4549.2	
721.74	5359.5	
721.92	5523.4	
722.11	5870.2	
722.29	5525.4	
722.47	6796.5	
722.65	5998.5	
722.83	4526.7	
723.01	5548.6	
723.2	6001.2	
723.38	6348	
723.56	3880.9	
723.74	5158.2	
723.92	5544.5	
724.1	6735.8	
724.29	4404.5	
724.47	5679	
724.65	5564.3	
724.83	5466	
725.01	4335.5	
725.19	5274.2	
725.37	5613.5	
725.56	5713.8	
725.74	4181.3	
725.92	4435.2	
726.1	5480.4	
726.28	5847.6	
726.46	4871.4	
726.64	4596.3	
726.83	5739.8	
727.01	6103.6	
727.19	4141	
727.37	5081.7	
727.55	5909.8	
727.73	6480.5	
727.91	4118.5	
728.09	3954.6	
728.28	6584.2	
728.46	7206.1	
728.64	5156.1	
728.82	5040.1	
729	7631.4	
729.18	6868.9	
729.36	4192.2	
729.54	6749.4	
729.72	7927	
729.91	6044.9	
730.09	6197.2	
730.27	4957.4	
730.45	5890.6	
730.63	6619.7	
730.81	5584.1	
730.99	4502.8	
731.17	7139.2	
731.35	5646.9	
731.53	5167.7	
731.71	4712.4	
731.9	6849.8	
732.08	7180.2	
732.26	4936.3	
732.44	4587.4	
732.62	7093.5	
732.8	6565.1	
732.98	5487.2	
733.16	4402.5	
733.34	6591.7	
733.52	5326.1	
733.7	4984.1	
733.88	5340.4	
734.07	6354.2	
734.25	6192.4	
734.43	4385.4	
734.61	6113.9	
734.79	7747.5	
734.97	6010.8	
735.15	4509.6	
735.33	4910.3	
735.51	6454.5	
735.69	6023.8	
735.87	6047	
736.05	5218.9	
736.23	6264.1	
736.41	5926.1	
736.59	4921.3	
736.77	5129.5	
736.95	6645	
737.13	6093.4	
737.32	4586.8	
737.5	4804.5	
737.68	7282.6	
737.86	5922.7	
738.04	4347.2	
738.22	6397.2	
738.4	5799.8	
738.58	6128.9	
738.76	5083.1	
738.94	3942.3	
739.12	5941.8	
739.3	5773.2	
739.48	5761.6	
739.66	5414.8	
739.84	6247.7	
740.02	6169.8	
740.2	4040	
740.38	4435.9	
740.56	6602.7	
740.74	5394.3	
740.92	5099.4	
741.1	5042.8	
741.28	6008.1	
741.46	5841.5	
741.64	4661.2	
741.82	5223	
742	6037.4	
742.18	6085.9	
742.36	4894.6	
742.54	4416.8	
742.72	6640.9	
742.9	5313.8	
743.08	5268.7	
743.26	4003.8	
743.44	6952.9	
743.62	6749.4	
743.8	5455.8	
743.98	4486.4	
744.16	6502.3	
744.34	6137.8	
744.52	5339.7	
744.7	5346.6	
744.88	6660.7	
745.06	6098.2	
745.24	5413.5	
745.42	5618.9	
745.6	6655.2	
745.78	6408.8	
745.96	4203.1	
746.14	4536.9	
746.32	7544	
746.5	6636.8	
746.68	5154.7	
746.86	4599.1	
747.03	7185	
747.21	5339.1	
747.39	5172.5	
747.57	4617.5	
747.75	6221.7	
747.93	6737.1	
748.11	4592.9	
748.29	4535.6	
748.47	7926.3	
748.65	5920.7	
748.83	5313.1	
749.01	5059.2	
749.19	6552.1	
749.37	5554.8	
749.55	4902.8	
749.73	5025.7	
749.91	6059.9	
750.09	5793	
750.26	5090.6	
750.44	4403.1	
750.62	6244.9	
750.8	6117.3	
750.98	4229.1	
751.16	4597.7	
751.34	6212.9	
751.52	5511.1	
751.7	5474.9	
751.88	4213.4	
752.06	6765.8	
752.24	6470.9	
752.42	4218.1	
752.59	4534.2	
752.77	6103.6	
752.95	7432.1	
753.13	5325.4	
753.31	4685.1	
753.49	5782.1	
753.67	6296.8	
753.85	5047.6	
754.03	4591.5	
754.21	6541.9	
754.38	6976.1	
754.56	4814.8	
754.74	3770.3	
754.92	5761.6	
755.1	6586.3	
755.28	3866.6	
755.46	3927.3	
755.64	7501	
755.82	7641.7	
755.99	4263.2	
756.17	4458.4	
756.35	5010.7	
756.53	6714.6	
756.71	3298.6	
756.89	4353.3	
757.07	6245.6	
757.25	5289.9	
757.42	4861.2	
757.6	5730.2	
757.78	6273.6	
757.96	5158.2	
758.14	4465.3	
758.32	3957.4	
758.5	4747.9	
758.67	5666.7	
758.85	4255	
759.03	4463.2	
759.21	5736.4	
759.39	5202.5	
759.57	3891.8	
759.75	5070.1	
759.92	6472.9	
760.1	5662.6	
760.28	5477.6	
760.46	5751.4	
760.64	5382.1	
760.82	5164.3	
760.99	5231.2	
761.17	4344.4	
761.35	6320	
761.53	5161.6	
761.71	4517.8	
761.89	5255.8	
762.06	6098.9	
762.24	5571.8	
762.42	4545.1	
762.6	4304.8	
762.78	5607.3	
762.96	6297.5	
763.13	4950.6	
763.31	4584	
763.49	6419	
763.67	5485.8	
763.85	5503.6	
764.02	6090	
764.2	6737.1	
764.38	5853.1	
764.56	4461.2	
764.74	5446.2	
764.91	6854.6	
765.09	5659.9	
765.27	4073.4	
765.45	3921.9	
765.63	6916.7	
765.8	6756.2	
765.98	3575.1	
766.16	3967.6	
766.34	5197.1	
766.52	4975.2	
766.69	5030.5	
766.87	3829	
767.05	5705.6	
767.23	6417	
767.41	4218.1	
767.58	4418.2	
767.76	6305.7	
767.94	6381.5	
768.12	4203.1	
768.29	5098.8	
768.47	5769.1	
768.65	6513.9	
768.83	3902.1	
769	5171.8	
769.18	5276.9	
769.36	6100.9	
769.54	5119.2	
769.72	3947.1	
769.89	6343.2	
770.07	6569.2	
770.25	4343.7	
770.43	5721.3	
770.6	7225.2	
770.78	7688.8	
770.96	4517.8	
771.14	5211.4	
771.31	6290	
771.49	5621	
771.67	3575.8	
771.85	3901.4	
772.02	4772.4	
772.2	5652.4	
772.38	4622.3	
772.55	4166.9	
772.73	5905	
772.91	5709.1	
773.09	4596.3	
773.26	4603.2	
773.44	5935.7	
773.62	5556.8	
773.8	4091.8	
773.97	3767.6	
774.15	5988.3	
774.33	5543.9	
774.5	3980.6	
774.68	4384	
774.86	6134.3	
775.04	5576.6	
775.21	4063.9	
775.39	4057	
775.57	5890.6	
775.74	6374.6	
775.92	3898	
776.1	3768.9	
776.27	5843.5	
776.45	7233.4	
776.63	4067.9	
776.81	3573	
776.98	5470.8	
777.16	6641.6	
777.34	4260.5	
777.51	4243.4	
777.69	5487.9	
777.87	5276.9	
778.04	4295.3	
778.22	4987.5	
778.4	5329.5	
778.57	5940.5	
778.75	3469.3	
778.93	3820.8	
779.1	5025	
779.28	4927.4	
779.46	3485	
779.64	4100.7	
779.81	6122.7	
779.99	7117.4	
780.17	4925.4	
780.34	5123.3	
780.52	5577.3	
780.69	5753.4	
780.87	4467.3	
781.05	3973.1	
781.22	5619.6	
781.4	5698.8	
781.58	4083.6	
781.75	3166.2	
781.93	5625.8	
782.11	5072.1	
782.28	5054.4	
782.46	4121.9	
782.64	4903.5	
782.81	5900.9	
782.99	4188.8	
783.17	4152.6	
783.34	5829.2	
783.52	4936.3	
783.69	4358.1	
783.87	5282.4	
784.05	5086.5	
784.22	5089.9	
784.4	5223.7	
784.58	4518.5	
784.75	6095.4	
784.93	5124	
785.1	4164.9	
785.28	4801.8	
785.46	5789.6	
785.63	5070.8	
785.81	4122.6	
785.99	3980.6	
786.16	5239.4	
786.34	5724.1	
786.51	3971	
786.69	4439.3	
786.87	4821.6	
787.04	5410.1	
787.22	3842.7	
787.39	4835.9	
787.57	5083.1	
787.75	6310.5	
787.92	5049.6	
788.1	5038.7	
788.27	5104.9	
788.45	4875.5	
788.63	4700.8	
788.8	3363.4	
788.98	5453.7	
789.15	4812	
789.33	3489.7	
789.5	4192.2	
789.68	6036.7	
789.86	6221	
790.03	4672.1	
790.21	3999	
790.38	6109.1	
790.56	5264.6	
790.73	3929.4	
790.91	3906.2	
791.09	5111.7	
791.26	5982.1	
791.44	4124.6	
791.61	3610.6	
791.79	5104.9	
791.96	5212.8	
792.14	3667.2	
792.32	3204.4	
792.49	5140.4	
792.67	5252.4	
792.84	3744.4	
793.02	3538.9	
793.19	5601.9	
793.37	6371.2	
793.54	3230.3	
793.72	3654.3	
793.89	6575.3	
794.07	5130.8	
794.25	4335.5	
794.42	3318.4	
794.6	6240.2	
794.77	5819	
794.95	4588.1	
795.12	3960.8	
795.3	5085.8	
795.47	5801.2	
795.65	4370.4	
795.82	4188.8	
796	4896	
796.17	6974.7	
796.35	4078.9	
796.52	4867.3	
796.7	5719.3	
796.87	5841.5	
797.05	5035.3	
797.22	4960.2	
797.4	5788.9	
797.57	6853.2	
797.75	4192.9	
797.92	3932.1	
798.1	6158.2	
798.27	5126.1	
798.45	3315.7	
798.62	3632.4	
798.8	5520.6	
798.97	5962.3	
799.15	4467.3	
799.32	4244.1	
799.5	4694.6	
799.67	5534.3	
799.85	4607.2	
800.02	3316.3	
800.2	5111.7	
800.37	5427.8	
800.55	4771.8	
800.72	4016.7	
800.9	5904.3	
801.07	6501.6	
801.25	5389.6	
801.42	4384	
801.6	5982.1	
801.77	5707.7	
801.95	3998.3	
802.12	3837.9	
802.29	5655.1	
802.47	5694.7	
802.64	4357.4	
802.82	3272	
802.99	5051.7	
803.17	6156.2	
803.34	4279.6	
803.52	3827.7	
803.69	6877.1	
803.87	4858.5	
804.04	4174.4	
804.21	4308.2	
804.39	6296.1	
804.56	5363.6	
804.74	3543.7	
804.91	4435.2	
805.09	5154.1	
805.26	5254.4	
805.44	3592.1	
805.61	4016.1	
805.78	5860.6	
805.96	5890	
806.13	4390.2	
806.31	4802.5	
806.48	4638.6	
806.66	5236	
806.83	4354.7	
807	4229.7	
807.18	5052.3	
807.35	5543.9	
807.53	4268	
807.7	3380.5	
807.87	6411.5	
808.05	5221.6	
808.22	4678.9	
808.4	3341.6	
808.57	5237.3	
808.74	4843.4	
808.92	3872	
809.09	4980	
809.27	5024.3	
809.44	5737	
809.61	3471.3	
809.79	3840.6	
809.96	6382.2	
810.14	5992.4	
810.31	3288.4	
810.48	4110.3	
810.66	5293.3	
810.83	6023.1	
811.01	3889.8	
811.18	4356.7	
811.35	5990.3	
811.53	4600.4	
811.7	4784.1	
811.87	4390.2	
812.05	5226.4	
812.22	5096.7	
812.39	3770.3	
812.57	3659.7	
812.74	5196.4	
812.92	6997.2	
813.09	4131.4	
813.26	4498.7	
813.44	6722.1	
813.61	5074.2	
813.78	3409.2	
813.96	4646.8	
814.13	5177.9	
814.3	4780.6	
814.48	4992.3	
814.65	4055.7	
814.82	6492.1	
815	4977.9	
815.17	4229.1	
815.34	5203.2	
815.52	5068	
815.69	5150.6	
815.87	4169	
816.04	3608.5	
816.21	5206.6	
816.38	4525.3	
816.56	4044.1	
816.73	3829	
816.9	6616.3	
817.08	6023.1	
817.25	3805.1	
817.42	4825.7	
817.6	4737	
817.77	5205.9	
817.94	4371	
818.12	3686.3	
818.29	4904.9	
818.46	7856	
818.64	3922.5	
818.81	3665.2	
818.98	4846.9	
819.16	7068.9	
819.33	4541	
819.5	4231.8	
819.67	5545.2	
819.85	6278.4	
820.02	4118.5	
820.19	4418.8	
820.37	5415.5	
820.54	4971.1	
820.71	4325.3	
820.88	5375.2	
821.06	5466.7	
821.23	4982.7	
821.4	4339	
821.58	4240.7	
821.75	5965.7	
821.92	5347.2	
822.09	3360.7	
822.27	3745.7	
822.44	5227.1	
822.61	5070.8	
822.79	3453.6	
822.96	6670.9	
823.13	5782.1	
823.3	4973.2	
823.48	4035.2	
823.65	3573	
823.82	5948.7	
823.99	4691.2	
824.17	5087.2	
824.34	3594.2	
824.51	6938.5	
824.68	5258.5	
824.86	3848.1	
825.03	4301.4	
825.2	5199.8	
825.37	6333	
825.55	3770.3	
825.72	4272.1	
825.89	7017.7	
826.06	6487.3	
826.24	4157.4	
826.41	4172.4	
826.58	6345.3	
826.75	5582.8	
826.92	3233.1	
827.1	3615.3	
827.27	8663.6	
827.44	6949.4	
827.61	3930.7	
827.79	4792.9	
827.96	4910.3	
828.13	5264	
828.3	4074.8	
828.47	3446.7	
828.65	5451.7	
828.82	5390.9	
828.99	5311.7	
829.16	4629.1	
829.34	5850.4	
829.51	5590.3	
829.68	4228.4	
829.85	4437.3	
830.02	6112.5	
830.2	5870.8	
830.37	3224.9	
830.54	5119.9	
830.71	6706.4	
830.88	5165.7	
831.05	3308.2	
831.23	3840.6	
831.4	6356.2	
831.57	7218.4	
831.74	3951.2	
831.91	3423.5	
832.09	5382.7	
832.26	5841.5	
832.43	4046.8	
832.6	4582	
832.77	5414.8	
832.94	6266.8	
833.12	3203	
833.29	3994.9	
833.46	5659.2	
833.63	7546.1	
833.8	4450.2	
833.97	4070	
834.15	5914.5	
834.32	5600.5	
834.49	4250.2	
834.66	4308.2	
834.83	6075	
835	4905.6	
835.17	3945.1	
835.35	3907.5	
835.52	5743.9	
835.69	5605.3	
835.86	4117.1	
836.03	3375.7	
836.2	5814.2	
836.37	5436.7	
836.55	4066.6	
836.72	3874.1	
836.89	5386.2	
837.06	5911.1	
837.23	4190.8	
837.4	4506.9	
837.57	6718.7	
837.75	7350.2	
837.92	3787.4	
838.09	3962.8	
838.26	5342.5	
838.43	6117.3	
838.6	4239.3	
838.77	3814	
838.94	7045.7	
839.11	6755.6	
839.29	4085	
839.46	3205.8	
839.63	5773.2	
839.8	5535	
839.97	3979.9	
840.14	3975.8	
840.31	5553.4	
840.48	5791	
840.65	3301.3	
840.82	3870.7	
841	5800.5	
841.17	5773.2	
841.34	3654.9	
841.51	3685.7	
841.68	5713.2	
841.85	5486.5	
842.02	3782.6	
842.19	3099.9	
842.36	5522	
842.53	5573.9	
842.7	3432.4	
842.87	4437.3	
843.05	7361.1	
843.22	5513.8	
843.39	3385.3	
843.56	3711.6	
843.73	5233.2	
843.9	5864.7	
844.07	5912.5	
844.24	4936.3	
844.41	8722.3	
844.58	5036.6	
844.75	3500.7	
844.92	3848.8	
845.09	5855.1	
845.26	5831.2	
845.43	3592.8	
845.6	3857	
845.77	5773.9	
845.94	5491.3	
846.12	4037.9	
846.29	4298	
846.46	6032.6	
846.63	5819.6	
846.8	3663.1	
846.97	4322.6	
847.14	6349.4	
847.31	5735.7	
847.48	4067.3	
847.65	4554	
847.82	6122.7	
847.99	6062.7	
848.16	4858.5	
848.33	4443.4	
848.5	5324	
848.67	6311.8	
848.84	3600.3	
849.01	3772.4	
849.18	5216.9	
849.35	4831.8	
849.52	4577.2	
849.69	3504.1	
849.86	6048.3	
850.03	6269.5	
850.2	3633.1	
850.37	4502.1	
850.54	6219	
850.71	5464	
850.88	4313	
851.05	3500	
851.22	5687.2	
851.39	6398.5	
851.56	3437.2	
851.73	4129.4	
851.9	5108.3	
852.07	6075.6	
852.24	4041.3	
852.41	3580.5	
852.58	5689.9	
852.75	5153.4	
852.92	4086.4	
853.09	3534.1	
853.26	5404.6	
853.43	6280.4	
853.6	3609.9	
853.77	3041.2	
853.94	6360.3	
854.11	5757.5	
854.28	5348.6	
854.44	3904.8	
854.61	6909.2	
854.78	6174.6	
854.95	3548.4	
855.12	4552.6	
855.29	4625	
855.46	6458.6	
855.63	3577.8	
855.8	5058.5	
855.97	5386.2	
856.14	6145.3	
856.31	5098.1	
856.48	3906.2	
856.65	5328.1	
856.82	5088.5	
856.99	3408.5	
857.16	3906.8	
857.33	7098.9	
857.49	5455.8	
857.66	3883.6	
857.83	4240	
858	5421.7	
858.17	5699.5	
858.34	3398.9	
858.51	3636.5	
858.68	6520.7	
858.85	6589.7	
859.02	4168.3	
859.19	4500.1	
859.36	5029.8	
859.52	5128.1	
859.69	3590.8	
859.86	4229.7	
860.03	5154.7	
860.2	6405.4	
860.37	3279.5	
860.54	3651.5	
860.71	6025.1	
860.88	6536.4	
861.05	4111.6	
861.21	4518.5	
861.38	6554.2	
861.55	5010.7	
861.72	3216.7	
861.89	4029	
862.06	6122.1	
862.23	6613.6	
862.4	3515.7	
862.56	3718.4	
862.73	5956.2	
862.9	5584.1	
863.07	4305.5	
863.24	3225.6	
863.41	4965	
863.58	5094	
863.75	3717.7	
863.91	4158.1	
864.08	6483.2	
864.25	5984.8	
864.42	4552.6	
864.59	5117.9	
864.76	6825.9	
864.93	5087.2	
865.09	3539.6	
865.26	3845.4	
865.43	6305	
865.6	6753.5	
865.77	3098.6	
865.94	3554.6	
866.1	6405.4	
866.27	6104.3	
866.44	5427.8	
866.61	3417.4	
866.78	5518.6	
866.95	5962.3	
867.11	3512.9	
867.28	3164.8	
867.45	6184.9	
867.62	5156.8	
867.79	4201.7	
867.96	3571.7	
868.12	5094	
868.29	6133.7	
868.46	3585.3	
868.63	4820.2	
868.8	6341.2	
868.97	6024.4	
869.13	3789.4	
869.3	3757.3	
869.47	5933.6	
869.64	6124.1	
869.81	3616	
869.97	3665.9	
870.14	5819.6	
870.31	6533.7	
870.48	3516.4	
870.65	4562.2	
870.81	5358.9	
870.98	5362.3	
871.15	4102.1	
871.32	3773	
871.48	5911.1	
871.65	6612.9	
871.82	3611.3	
871.99	3970.3	
872.16	7117.4	
872.32	6422.4	
872.49	3638.6	
872.66	3643.3	
872.83	6129.6	
872.99	5269.4	
873.16	4156	
873.33	3540.9	
873.5	5620.3	
873.67	5663.3	
873.83	3807.9	
874	4908.3	
874.17	5804.6	
874.34	6941.9	
874.5	4679.6	
874.67	4503.5	
874.84	6477	
875.01	5085.1	
875.17	5158.2	
875.34	3620.1	
875.51	5758.9	
875.68	6893.5	
875.84	4361.5	
876.01	5309	
876.18	6036	
876.34	5993	
876.51	3584.6	
876.68	3526.6	
876.85	5508.4	
877.01	6343.9	
877.18	5183.4	
877.35	3610.6	
877.52	5585.5	
877.68	4985.4	
877.85	3511.6	
878.02	3543.7	
878.18	5632.6	
878.35	5291.3	
878.52	2878.1	
878.69	4037.9	
878.85	6072.2	
879.02	6040.1	
879.19	5190.2	
879.35	3891.1	
879.52	6013.5	
879.69	6221.7	
879.86	3108.1	
880.02	4054.3	
880.19	5562.3	
880.36	6852.5	
880.52	4174.4	
880.69	4320.5	
880.86	6158.9	
881.02	6235.4	
881.19	3978.5	
881.36	3993.5	
881.52	5971.2	
881.69	5304.9	
881.86	3835.8	
882.02	3792.2	
882.19	6331	
882.36	7401.4	
882.52	3686.3	
882.69	5114.5	
882.86	5848.3	
883.02	5666	
883.19	4398.4	
883.36	4104.1	
883.52	6098.2	
883.69	7043.6	
883.86	3667.9	
884.02	3282.9	
884.19	6048.3	
884.36	5582.8	
884.52	4142.4	
884.69	3779.9	
884.86	5315.2	
885.02	6700.3	
885.19	4057	
885.36	4183.3	
885.52	5627.1	
885.69	5713.8	
885.86	5264.6	
886.02	4608.6	
886.19	6102.9	
886.35	5516.5	
886.52	3950.5	
886.69	5095.3	
886.85	5170.4	
887.02	6483.9	
887.19	6483.9	
887.35	6483.9	
887.52	6483.9	
887.68	6483.9	
887.85	6483.9	
888.02	6483.9	
888.18	6483.9	
888.35	6483.9	
888.51	6483.9	
888.68	6483.9	
888.85	6483.9	
889.01	6483.9	
889.18	6483.9	
889.35	6483.9	
889.51	6483.9	
889.68	6483.9	
889.84	6483.9	
890.01	6483.9	
890.17	6483.9	
890.34	6483.9	
890.51	6483.9	
890.67	6483.9	
890.84	6483.9	
891	6483.9	
891.17	6483.9	
891.34	6483.9	
891.5	6483.9	
891.67	6483.9	
891.83	6483.9	
892	6483.9	
892.16	6483.9	
892.33	6483.9	
892.5	6483.9	
892.66	6483.9	
892.83	6483.9	
892.99	6483.9	
893.16	6483.9	
893.32	6483.9	
893.49	6483.9	
893.65	6483.9	
893.82	6483.9	
893.99	6483.9	
894.15	6483.9	
894.32	6483.9	
894.48	6483.9	
894.65	6483.9	
894.81	6483.9	
894.98	6483.9	
895.14	6483.9	
895.31	6483.9	
895.47	6483.9	
895.64	6483.9	
895.81	6483.9	
895.97	6483.9	
896.14	6483.9	
896.3	6483.9	
896.47	6483.9	
896.63	6483.9	
896.8	6483.9	
896.96	6483.9	
897.13	6483.9	
897.29	6483.9	
897.46	6483.9	
897.62	6483.9	
897.79	6483.9	
897.95	6483.9	
898.12	6483.9	
898.28	6483.9	
898.45	6483.9	
898.61	6483.9	
898.78	6483.9	
898.94	6483.9	
899.11	6483.9	
899.27	6483.9	
899.44	6483.9	
899.6	6483.9	
899.77	6483.9	
899.93	6483.9	
900.1	6483.9	
900.26	6483.9	
900.43	6483.9	
900.59	6483.9	
900.76	6483.9	
900.92	6483.9	
901.09	6483.9	
901.25	6483.9	
901.42	6483.9	
901.58	6483.9	
901.75	6483.9	
901.91	6483.9	
902.07	6483.9	
902.24	6483.9	
902.4	6483.9	
902.57	6483.9	
902.73	6483.9	
902.9	6483.9	
903.06	6483.9	
903.23	6483.9	
903.39	6483.9	
903.56	6483.9	
903.72	6483.9	
903.88	6483.9	
904.05	6483.9	
904.21	6483.9	
904.38	6483.9	
904.54	6483.9	
904.71	6483.9	
904.87	6483.9	
905.03	6483.9	
905.2	6483.9	
905.36	6483.9	
905.53	6483.9	
905.69	6483.9	
905.86	6483.9	
906.02	6483.9	
906.18	6483.9	
906.35	6483.9	
906.51	6483.9	
906.68	6483.9	
906.84	6483.9	
907.01	6483.9	
907.17	6483.9	
907.33	6483.9	
907.5	6483.9	
907.66	6483.9	
907.83	6483.9	
907.99	6483.9	
908.15	6483.9	
908.32	6483.9	
908.48	6483.9	
908.65	6483.9	
908.81	6483.9	
908.97	6483.9	
909.14	6483.9	
909.3	6483.9	
909.47	6483.9	
909.63	6483.9	
909.79	6483.9	
909.96	6483.9	
910.12	6483.9	
910.28	6483.9	
910.45	6483.9	
910.61	6483.9	
910.78	6483.9	
910.94	6483.9	
911.1	6483.9	
911.27	6483.9	
911.43	6483.9	
911.59	6483.9	
911.76	6483.9	
911.92	6483.9	
912.08	6483.9	
912.25	6483.9	
912.41	6483.9	
912.57	6483.9	
912.74	6483.9	
912.9	6483.9	
913.07	6483.9	
913.23	6483.9	
913.39	6483.9	
913.56	6483.9	
913.72	6483.9	
913.88	6483.9	
914.05	6483.9	
914.21	6483.9	
914.37	6483.9	
914.54	6483.9	
914.7	6483.9	
914.86	6483.9	
915.03	6483.9	
915.19	6483.9	
