Wavelength	Intensities	
nm	a.u.	
179.22	1736.3	
179.44	1721.7	
179.65	1751	
179.86	1692.3	
180.08	1707.3	
180.29	3985.3	
180.51	3022.1	
180.72	5052.3	
180.94	5622.4	
181.15	2777	
181.37	2720.4	
181.58	4868.7	
181.79	5044.1	
182.01	2887	
182.22	3022.8	
182.44	5044.1	
182.65	4372.4	
182.87	3705.5	
183.08	3358	
183.29	5265.3	
183.51	4405.2	
183.72	3014.6	
183.94	4227	
184.15	4742.4	
184.37	4721.9	
184.58	2697.9	
184.79	3531.4	
185.01	4498.7	
185.22	5101.5	
185.44	3754.6	
185.65	3254.2	
185.86	4775.9	
186.08	4418.8	
186.29	2658.9	
186.51	2804.4	
186.72	4560.8	
186.94	5175.9	
187.15	3247.4	
187.36	3306.8	
187.58	6494.8	
187.79	4836.6	
188.01	3351.2	
188.22	5150	
188.43	5680.4	
188.65	5023	
188.86	2871.9	
189.08	3331.4	
189.29	4644.8	
189.5	4587.4	
189.72	3084.9	
189.93	3138.9	
190.15	5118.6	
190.36	5999.9	
190.57	3363.4	
190.79	3205.1	
191	5190.2	
191.22	5185.5	
191.43	3386.7	
191.64	2862.4	
191.86	5384.8	
192.07	5243.5	
192.29	2934.7	
192.5	3059.7	
192.71	5166.3	
192.93	4574.5	
193.14	3060.3	
193.35	3153.2	
193.57	4593.6	
193.78	5172.5	
194	2530.6	
194.21	3052.2	
194.42	4468	
194.64	4783.4	
194.85	3303.4	
195.07	3803.1	
195.28	4807.9	
195.49	4231.8	
195.71	3963.5	
195.92	2854.9	
196.13	4941.7	
196.35	4994.3	
196.56	4214.7	
196.78	3351.8	
196.99	5945.3	
197.2	5614.8	
197.42	3693.9	
197.63	3258.3	
197.84	4378.6	
198.06	4984.1	
198.27	3121.1	
198.48	3969.6	
198.7	4589.5	
198.91	4717.8	
199.13	3336.1	
199.34	3342.3	
199.55	5186.1	
199.77	4206.5	
199.98	2994.8	
200.19	3390.8	
200.41	4730.1	
200.62	4482.3	
200.83	3422.2	
201.05	3686.3	
201.26	4696	
201.47	4528.1	
201.69	2991.4	
201.9	2943.6	
202.11	4788.8	
202.33	5457.2	
202.54	3132	
202.76	3477.5	
202.97	4790.2	
203.18	4917.2	
203.4	3418.1	
203.61	3457	
203.82	4839.4	
204.04	4539.7	
204.25	3334.1	
204.46	3272.7	
204.68	4794.3	
204.89	4926	
205.1	3233.1	
205.32	2892.4	
205.53	5039.4	
205.74	5177.9	
205.96	2506	
206.17	3380.5	
206.38	5038.7	
206.6	5169.1	
206.81	3826.3	
207.02	3123.8	
207.24	4997.7	
207.45	5258.5	
207.66	3238.5	
207.88	2789.3	
208.09	4918.5	
208.3	4747.9	
208.52	2957.3	
208.73	3231.7	
208.94	4784.1	
209.15	5300.1	
209.37	3145	
209.58	3595.6	
209.79	5184.8	
210.01	4614.8	
210.22	2644.6	
210.43	2719	
210.65	4733.5	
210.86	5023	
211.07	3168.2	
211.29	2973.7	
211.5	4980	
211.71	4758.8	
211.93	2945.7	
212.14	2962	
212.35	4709	
212.56	4863.9	
212.78	3356.6	
212.99	2811.2	
213.2	5429.8	
213.42	4620.2	
213.63	3050.1	
213.84	3204.4	
214.06	4304.8	
214.27	4359.4	
214.48	3144.3	
214.69	3381.2	
214.91	5313.8	
215.12	5350.7	
215.33	3366.9	
215.55	3706.1	
215.76	5725.4	
215.97	4962.9	
216.18	3237.8	
216.4	3267.2	
216.61	4519.2	
216.82	5099.4	
217.04	3018	
217.25	3095.2	
217.46	5260.5	
217.67	5057.1	
217.89	2693.8	
218.1	2818	
218.31	4872.8	
218.53	4973.8	
218.74	3122.5	
218.95	2961.4	
219.16	4756.7	
219.38	5443.5	
219.59	3013.2	
219.8	3549.8	
220.01	5856.5	
220.23	4812.7	
220.44	3825.6	
220.65	2918.4	
220.87	4853	
221.08	5231.9	
221.29	2811.2	
221.5	3624.2	
221.72	6167.1	
221.93	4565.6	
222.14	3362.1	
222.35	3861.8	
222.57	4780.6	
222.78	5103.5	
222.99	3175.7	
223.2	3429	
223.42	4969.7	
223.63	5061.2	
223.84	2527.2	
224.05	2563.4	
224.27	5827.8	
224.48	5443.5	
224.69	3869.3	
224.9	3352.5	
225.12	4882.4	
225.33	4758.8	
225.54	2713.6	
225.75	3050.8	
225.97	4451.6	
226.18	4689.2	
226.39	3213.9	
226.6	2996.9	
226.82	4590.9	
227.03	4476.2	
227.24	3321.8	
227.45	2782.5	
227.67	5135.6	
227.88	5435.3	
228.09	3673.4	
228.3	3645.4	
228.52	5012.7	
228.73	4710.3	
228.94	3142.3	
229.15	2798.9	
229.36	4767	
229.58	4736.3	
229.79	3156.6	
230	3602.4	
230.21	5564.3	
230.43	4764.9	
230.64	3276.1	
230.85	3418.7	
231.06	5096	
231.28	5055.1	
231.49	2780.5	
231.7	3272.7	
231.91	5115.1	
232.12	4720.6	
232.34	2908.1	
232.55	3228.3	
232.76	5166.3	
232.97	4913.8	
233.18	2999.6	
233.4	3301.3	
233.61	4945.2	
233.82	4573.1	
234.03	3102	
234.25	3040.6	
234.46	6270.2	
234.67	4810	
234.88	3388.7	
235.09	3018.7	
235.31	4943.8	
235.52	4692.6	
235.73	3293.8	
235.94	2788.7	
236.15	4564.9	
236.37	5580	
236.58	2973.7	
236.79	3182.5	
237	5016.8	
237.21	4323.3	
237.43	3388	
237.64	2778.4	
237.85	7929.7	
238.06	4448.2	
238.27	3373	
238.48	2831	
238.7	5007.3	
238.91	4690.5	
239.12	3172.3	
239.33	3269.9	
239.54	4513	
239.76	4699.4	
239.97	3188	
240.18	3215.3	
240.39	5653.1	
240.6	4926	
240.82	3367.5	
241.03	2780.5	
241.24	4729.4	
241.45	5378.6	
241.66	2991.4	
241.87	3444.7	
242.09	5301.5	
242.3	5567.1	
242.51	3537.5	
242.72	3194.1	
242.93	5092.6	
243.14	4709	
243.36	3666.5	
243.57	3951.2	
243.78	5379.3	
243.99	5018.9	
244.2	3198.9	
244.41	2883.5	
244.63	4437.3	
244.84	5003.9	
245.05	3416.7	
245.26	3210.5	
245.47	5046.2	
245.68	5074.9	
245.9	4109.6	
246.11	3396.9	
246.32	4616.8	
246.53	4947.2	
246.74	5025.7	
246.95	2725.2	
247.16	4457.7	
247.38	4816.1	
247.59	2735.4	
247.8	3220.1	
248.01	4493.9	
248.22	4757.4	
248.43	2962	
248.64	3154.6	
248.86	4343.7	
249.07	4584.7	
249.28	2860.3	
249.49	3252.2	
249.7	5116.5	
249.91	5215.5	
250.12	2789.3	
250.34	2819.4	
250.55	4862.6	
250.76	4816.8	
250.97	3291.1	
251.18	3304.1	
251.39	5252.4	
251.6	4887.8	
251.81	3392.8	
252.03	3345	
252.24	4641.4	
252.45	5117.2	
252.66	2841.2	
252.87	3525.2	
253.08	4802.5	
253.29	5984.8	
253.5	2892.4	
253.72	3894.6	
253.93	4635.2	
254.14	5541.8	
254.35	3063.8	
254.56	3147	
254.77	4948.6	
254.98	4515.8	
255.19	3101.3	
255.41	3855	
255.62	4910.3	
255.83	5198.4	
256.04	3379.8	
256.25	3333.4	
256.46	5682.4	
256.67	4515.8	
256.88	3308.8	
257.09	3581.2	
257.31	4468	
257.52	4547.9	
257.73	4031.8	
257.94	3050.8	
258.15	4754.7	
258.36	4731.5	
258.57	3752.6	
258.78	2490.3	
258.99	5115.8	
259.2	4575.2	
259.41	3007.8	
259.63	3171.6	
259.84	5375.2	
260.05	5663.3	
260.26	3910.3	
260.47	3016	
260.68	5210.7	
260.89	4697.4	
261.1	3628.3	
261.31	2948.4	
261.52	5301.5	
261.73	5515.2	
261.95	3916.4	
262.16	3388.7	
262.37	5256.5	
262.58	5385.5	
262.79	3866.6	
263	3127.9	
263.21	4756.1	
263.42	4630.5	
263.63	3317.7	
263.84	3164.8	
264.05	5201.2	
264.26	5428.5	
264.47	3712.3	
264.69	3322.5	
264.9	5322.7	
265.11	4942.4	
265.32	2989.4	
265.53	3084.2	
265.74	4817.5	
265.95	4336.2	
266.16	3226.9	
266.37	3493.8	
266.58	4872.1	
266.79	4584.7	
267	3117	
267.21	2841.9	
267.42	4440.7	
267.63	4779.3	
267.84	3193.5	
268.06	2773.6	
268.27	5097.4	
268.48	5288.5	
268.69	3176.4	
268.9	3576.4	
269.11	5268.7	
269.32	4320.5	
269.53	3170.9	
269.74	2998.9	
269.95	4921.3	
270.16	4302.8	
270.37	3231	
270.58	3603.1	
270.79	4701.5	
271	5154.7	
271.21	3398.9	
271.42	3269.9	
271.63	4967	
271.84	4418.2	
272.05	2687.6	
272.26	2914.9	
272.47	4825.7	
272.68	4958.1	
272.89	3091.8	
273.11	3470.6	
273.32	4610	
273.53	5440.8	
273.74	3463.1	
273.95	3391.4	
274.16	5164.3	
274.37	4805.2	
274.58	3472	
274.79	2848.7	
275	4886.5	
275.21	5248.3	
275.42	4112.3	
275.63	3556.6	
275.84	4996.4	
276.05	6068.1	
276.26	3360.7	
276.47	3174.4	
276.68	4754.7	
276.89	5556.8	
277.1	3518.4	
277.31	2826.9	
277.52	4969.1	
277.73	5153.4	
277.94	2796.2	
278.15	3098.6	
278.36	4918.5	
278.57	4527.4	
278.78	3073.3	
278.99	3436.5	
279.2	4545.1	
279.41	4487.8	
279.62	3997.6	
279.83	2878.8	
280.04	5708.4	
280.25	4457.1	
280.46	3942.3	
280.67	3254.2	
280.88	4518.5	
281.09	5261.9	
281.3	3326.6	
281.51	4160.1	
281.72	5111.7	
281.93	5079	
282.14	2993.4	
282.35	3271.3	
282.56	5150.6	
282.77	5094.7	
282.98	3082.2	
283.19	3698.6	
283.4	6100.9	
283.61	4749.9	
283.82	2908.8	
284.03	3856.3	
284.24	4931.5	
284.45	5233.9	
284.66	3935.5	
284.87	3728.7	
285.08	5283.8	
285.29	5282.4	
285.5	2789.3	
285.71	3190.7	
285.92	5144.5	
286.12	5722.7	
286.33	3932.1	
286.54	3174.4	
286.75	5096.7	
286.96	4742.4	
287.17	2972.3	
287.38	3756	
287.59	4534.2	
287.8	4508.3	
288.01	3163.4	
288.22	3534.8	
288.43	5087.2	
288.64	4393.6	
288.85	3646.7	
289.06	3546.4	
289.27	5085.8	
289.48	5387.5	
289.69	3964.9	
289.9	3598.3	
290.11	5296	
290.32	4612.7	
290.53	3711.6	
290.74	3424.2	
290.94	5158.2	
291.15	5141.8	
291.36	3039.9	
291.57	3509.5	
291.78	4614.8	
291.99	4351.3	
292.2	2985.9	
292.41	3394.8	
292.62	5132.2	
292.83	4985.4	
293.04	4175.8	
293.25	2999.6	
293.46	4645.5	
293.67	5203.2	
293.88	3013.9	
294.09	2917.7	
294.29	4510.3	
294.5	4908.3	
294.71	3229.6	
294.92	3077.4	
295.13	4639.3	
295.34	5643.5	
295.55	2729.9	
295.76	2737.5	
295.97	5061.9	
296.18	5653.8	
296.39	2881.5	
296.6	3039.9	
296.81	4810.7	
297.01	5124.7	
297.22	3170.9	
297.43	3009.8	
297.64	4624.3	
297.85	4469.4	
298.06	2593.4	
298.27	2745.6	
298.48	4793.6	
298.69	4545.8	
298.9	3257	
299.11	2952.5	
299.31	4468	
299.52	4457.1	
299.73	3526.6	
299.94	3411.2	
300.15	4746.5	
300.36	4519.9	
300.57	3420.1	
300.78	3322.5	
300.99	4685.8	
301.2	4877.6	
301.4	3018.7	
301.61	3241.3	
301.82	5016.2	
302.03	5154.1	
302.24	3555.3	
302.45	2911.5	
302.66	5001.1	
302.87	5224.4	
303.08	3011.2	
303.29	3973.7	
303.49	4631.1	
303.7	4760.2	
303.91	2720.4	
304.12	3818.8	
304.33	4399	
304.54	4846.9	
304.75	3055.6	
304.96	2921.1	
305.16	4972.5	
305.37	5537.7	
305.58	2716.3	
305.79	2752.5	
306	5001.8	
306.21	4324.6	
306.42	3076.7	
306.63	4417.5	
306.83	4650.3	
307.04	5081.7	
307.25	3340.2	
307.46	3269.2	
307.67	4237.9	
307.88	5044.8	
308.09	3007.1	
308.29	3061.7	
308.5	4814.8	
308.71	5183.4	
308.92	3272	
309.13	2917	
309.34	4737.6	
309.55	4759.5	
309.75	3740.3	
309.96	3440.6	
310.17	5063.9	
310.38	4532.8	
310.59	3527.3	
310.8	2891.7	
311.01	4663.9	
311.21	4751.3	
311.42	2944.3	
311.63	2996.2	
311.84	4627	
312.05	4870.1	
312.26	3365.5	
312.46	3661.1	
312.67	4653	
312.88	4402.5	
313.09	2919.7	
313.3	2891.7	
313.51	5338.4	
313.71	5627.1	
313.92	2966.8	
314.13	3054.9	
314.34	4881.7	
314.55	4721.9	
314.76	3657	
314.96	3230.3	
315.17	4906.9	
315.38	5070.8	
315.59	2983.9	
315.8	2856.2	
316.01	5392.3	
316.21	5419.6	
316.42	2850.1	
316.63	3223.5	
316.84	4705.5	
317.05	5255.1	
317.26	3391.4	
317.46	3070.6	
317.67	4738.3	
317.88	5068.7	
318.09	3643.3	
318.3	2810.5	
318.5	4648.9	
318.71	4950.6	
318.92	4551.3	
319.13	3445.4	
319.34	5174.5	
319.54	5263.3	
319.75	2739.5	
319.96	2725.2	
320.17	5020.3	
320.38	5218.9	
320.58	2759.3	
320.79	3177.1	
321	5218.9	
321.21	5227.1	
321.42	3250.8	
321.62	2716.3	
321.83	4525.3	
322.04	4769	
322.25	3160	
322.46	2979.8	
322.66	4900.1	
322.87	5040.1	
323.08	3542.3	
323.29	2925.9	
323.5	5618.3	
323.7	4444.1	
323.91	3844.7	
324.12	3537.5	
324.33	4891.9	
324.53	5046.2	
324.74	3419.4	
324.95	3528	
325.16	4384	
325.37	4673.5	
325.57	2969.6	
325.78	3016.7	
325.99	4922	
326.2	4355.3	
326.4	4139.6	
326.61	2822.1	
326.82	4687.8	
327.03	4893.3	
327.24	4040	
327.44	3798.3	
327.65	5013.4	
327.86	4147.8	
328.07	3444	
328.27	2877.4	
328.48	5319.9	
328.69	4414.7	
328.9	4116.4	
329.1	3123.8	
329.31	4756.1	
329.52	5333.6	
329.73	2952.5	
329.93	3233.1	
330.14	4867.3	
330.35	4926.7	
330.56	4612.7	
330.76	3566.2	
330.97	4720.6	
331.18	4840	
331.39	3305.4	
331.59	2667.8	
331.8	5245.5	
332.01	5336.3	
332.22	3033	
332.42	3379.8	
332.63	4888.5	
332.84	4450.2	
333.05	3302	
333.25	2981.8	
333.46	4554	
333.67	4795	
333.88	3100.6	
334.08	3323.9	
334.29	6742.6	
334.5	5197.7	
334.7	2878.1	
334.91	4049.5	
335.12	4397	
335.33	5067.4	
335.53	3179.8	
335.74	4560.1	
335.95	4651.6	
336.16	4478.9	
336.36	3248.1	
336.57	3680.9	
336.78	4419.5	
336.98	5192.3	
337.19	3870	
337.4	3203	
337.61	5695.4	
337.81	4415.4	
338.02	3063.1	
338.23	3809.2	
338.43	5337.7	
338.64	4547.2	
338.85	3005.1	
339.05	3802.4	
339.26	5379.3	
339.47	4311	
339.68	2967.5	
339.88	4186	
340.09	5053.7	
340.3	5177.3	
340.5	3392.8	
340.71	2696.5	
340.92	4403.1	
341.13	5276.3	
341.33	2847.4	
341.54	3422.8	
341.75	4930.1	
341.95	4595	
342.16	3284.3	
342.37	3560.7	
342.57	4452.3	
342.78	4739.7	
342.99	3607.8	
343.19	2754.5	
343.4	5066.7	
343.61	4957.4	
343.81	3163.4	
344.02	2863.1	
344.23	5059.8	
344.43	5337.7	
344.64	3605.1	
344.85	3542.3	
345.06	5031.9	
345.26	5167	
345.47	3406.5	
345.68	3862.5	
345.88	4345.8	
346.09	5171.8	
346.3	3490.4	
346.5	2655.5	
346.71	4713.7	
346.92	4547.2	
347.12	2779.1	
347.33	3381.9	
347.54	5127.4	
347.74	5481	
347.95	3291.8	
348.16	2653.5	
348.36	4640	
348.57	4454.3	
348.78	3388.7	
348.98	3540.9	
349.19	4771.1	
349.39	4324.6	
349.6	2806.4	
349.81	3002.3	
350.01	4998.4	
350.22	4506.9	
350.43	3279.5	
350.63	3821.5	
350.84	4797	
351.05	4531.5	
351.25	2943.6	
351.46	2725.2	
351.67	5187.5	
351.87	4485.7	
352.08	3212.6	
352.29	3508.2	
352.49	5115.8	
352.7	4871.4	
352.9	2854.2	
353.11	3543	
353.32	5623	
353.52	4611.3	
353.73	2887.6	
353.94	3596.9	
354.14	4942.4	
354.35	4762.2	
354.55	2954.5	
354.76	3232.4	
354.97	4932.2	
355.17	4721.9	
355.38	2841.9	
355.59	3777.8	
355.79	4513.7	
356	4745.1	
356.2	3224.2	
356.41	2891	
356.62	4359.4	
356.82	4698.7	
357.03	3500	
357.24	3084.9	
357.44	4508.9	
357.65	4622.3	
357.85	4100.7	
358.06	3260.4	
358.27	4318.5	
358.47	4454.3	
358.68	2797.5	
358.88	3403	
359.09	4949.3	
359.3	5190.2	
359.5	3876.1	
359.71	3511.6	
359.91	5503.6	
360.12	5004.6	
360.33	3434.4	
360.53	3743	
360.74	4554	
360.94	4573.1	
361.15	3558.7	
361.36	3005.1	
361.56	5072.8	
361.77	4742.4	
361.97	3908.9	
362.18	3138.2	
362.38	5098.8	
362.59	4401.8	
362.8	2932	
363	2826.9	
363.21	4253.6	
363.41	4805.2	
363.62	3288.4	
363.83	4033.8	
364.03	4942.4	
364.24	5481	
364.44	4149.2	
364.65	4093.2	
364.85	4644.8	
365.06	4421.6	
365.27	3078.1	
365.47	3111.5	
365.68	5375.9	
365.88	4617.5	
366.09	3358.7	
366.29	3078.1	
366.5	4776.5	
366.71	5142.4	
366.91	4093.2	
367.12	3507.5	
367.32	5585.5	
367.53	5057.1	
367.73	3515.7	
367.94	4172.4	
368.14	5022.3	
368.35	5559.6	
368.56	3417.4	
368.76	3281.5	
368.97	5132.2	
369.17	6245.6	
369.38	3031.7	
369.58	3286.3	
369.79	4339	
369.99	5339.7	
370.2	4021.5	
370.4	3379.8	
370.61	4857.8	
370.82	5787.6	
371.02	3263.1	
371.23	2805.7	
371.43	4351.3	
371.64	5319.3	
371.84	3311.6	
372.05	4145.8	
372.25	6167.1	
372.46	4990.2	
372.66	3261	
372.87	3246.7	
373.07	5109.7	
373.28	6286.6	
373.48	4001	
373.69	3753.2	
373.9	4716.5	
374.1	4754.7	
374.31	3958	
374.51	3519.1	
374.72	5246.2	
374.92	4519.2	
375.13	4048.8	
375.33	3468.6	
375.54	4928.1	
375.74	4610	
375.95	3551.9	
376.15	4333.5	
376.36	5044.1	
376.56	4889.9	
376.77	3580.5	
376.97	3873.4	
377.18	5835.3	
377.38	5061.2	
377.59	4048.2	
377.79	3224.2	
378	4861.2	
378.2	5133.6	
378.41	3284.3	
378.61	3212.6	
378.82	5304.9	
379.02	4618.9	
379.23	3363.4	
379.43	4102.1	
379.64	5421.7	
379.84	5063.9	
380.05	3269.2	
380.25	3196.2	
380.46	5104.9	
380.66	4806.6	
380.87	4149.2	
381.07	4484.4	
381.28	5595.7	
381.48	5074.2	
381.69	3258.3	
381.89	3361.4	
382.1	4407.9	
382.3	5186.1	
382.51	4094.6	
382.71	4725.3	
382.91	5073.5	
383.12	5464	
383.32	3524.6	
383.53	3637.2	
383.73	5038.7	
383.94	4928.8	
384.14	3717.7	
384.35	3022.1	
384.55	4801.1	
384.76	5066.7	
384.96	3562.8	
385.17	3809.2	
385.37	5140.4	
385.58	4542.4	
385.78	3730.7	
385.98	3046	
386.19	4747.9	
386.39	5039.4	
386.6	3349.1	
386.8	3535.5	
387.01	5090.6	
387.21	5152.7	
387.42	3842	
387.62	4208.6	
387.83	4650.9	
388.03	4937.7	
388.23	3621.5	
388.44	4102.1	
388.64	4425	
388.85	4433.9	
389.05	3783.3	
389.26	4261.8	
389.46	5900.9	
389.67	5446.2	
389.87	3797.6	
390.07	3834.5	
390.28	4823	
390.48	4576.5	
390.69	3278.8	
390.89	3538.9	
391.1	4713.7	
391.3	5428.5	
391.5	4371.7	
391.71	4803.2	
391.91	5272.8	
392.12	5871.5	
392.32	4431.1	
392.53	3870.7	
392.73	4841.4	
392.93	4878.3	
393.14	3622.9	
393.34	4220.9	
393.55	5184.8	
393.75	4869.4	
393.95	3679.5	
394.16	3543.7	
394.36	4761.5	
394.57	5183.4	
394.77	3267.2	
394.98	3515.7	
395.18	4676.2	
395.38	4754.7	
395.59	4160.1	
395.79	3410.6	
396	4780	
396.2	5132.9	
396.4	4031.1	
396.61	4012.7	
396.81	5236.7	
397.02	4754.7	
397.22	4182.6	
397.42	4216.8	
397.63	5271.5	
397.83	4699.4	
398.04	3362.1	
398.24	3756	
398.44	5085.1	
398.65	4434.5	
398.85	3278.8	
399.05	3366.2	
399.26	4733.5	
399.46	5935.7	
399.67	3672.7	
399.87	3450.1	
400.07	4995	
400.28	5186.1	
400.48	3528.7	
400.69	4236.6	
400.89	5298.8	
401.09	5700.2	
401.3	3469.9	
401.5	4217.5	
401.7	5823.1	
401.91	5981.4	
402.11	3732.8	
402.32	3856.3	
402.52	5423.7	
402.72	5341.8	
402.93	4077.5	
403.13	3251.5	
403.33	5987.6	
403.54	5030.5	
403.74	3846.1	
403.94	4490.5	
404.15	5139.7	
404.35	5930.9	
404.56	3632.4	
404.76	4911	
404.96	5371.8	
405.17	5218.2	
405.37	4295.3	
405.57	3980.6	
405.78	5360.2	
405.98	5027.1	
406.18	3641.3	
406.39	4308.9	
406.59	5428.5	
406.79	5076.9	
407	3547.1	
407.2	3618.8	
407.4	5504.3	
407.61	5549.3	
407.81	3510.2	
408.01	5119.2	
408.22	4585.4	
408.42	5957.5	
408.62	4336.9	
408.83	3919.8	
409.03	5013.4	
409.23	4967.7	
409.44	3996.3	
409.64	4153.3	
409.84	5831.2	
410.05	5676.3	
410.25	4118.5	
410.45	3997	
410.66	5338.4	
410.86	7169.3	
411.06	4304.1	
411.27	4159.4	
411.47	6963.8	
411.67	5439.4	
411.88	4276.2	
412.08	4426.3	
412.28	5920	
412.49	6284.5	
412.69	4189.5	
412.89	4201.1	
413.09	6201.9	
413.3	6120	
413.5	4342.4	
413.7	4032.5	
413.91	5565	
414.11	6191.7	
414.31	4126	
414.52	4433.2	
414.72	5960.3	
414.92	5848.3	
415.12	4141.7	
415.33	4622.9	
415.53	6209.4	
415.73	6322.8	
415.94	4788.8	
416.14	4389.5	
416.34	5536.3	
416.55	5283.1	
416.75	5240.8	
416.95	4828.4	
417.15	6173.9	
417.36	6658.6	
417.56	5434.6	
417.76	4742.4	
417.97	6374.6	
418.17	6216.3	
418.37	4507.6	
418.57	4478.9	
418.78	6167.1	
418.98	5894.1	
419.18	5217.5	
419.38	5093.3	
419.59	5882.4	
419.79	5656.5	
419.99	4398.4	
420.2	4648.9	
420.4	6251.8	
420.6	6379.4	
420.8	4363.5	
421.01	4246.1	
421.21	6143.9	
421.41	6165.8	
421.61	4655.7	
421.82	4476.2	
422.02	5862	
422.22	6541.9	
422.42	5031.2	
422.63	4822.3	
422.83	5971.9	
423.03	6759	
423.23	4754	
423.44	4070	
423.64	5924.1	
423.84	5734.3	
424.04	4411.3	
424.25	4210.6	
424.45	6591.7	
424.65	6524.1	
424.85	4066.6	
425.06	4485.7	
425.26	6713.2	
425.46	5787.6	
425.66	4780	
425.87	4611.3	
426.07	6392.4	
426.27	6314.6	
426.47	4638	
426.67	4250.9	
426.88	6678.4	
427.08	6227.9	
427.28	4882.4	
427.48	4220.9	
427.69	5545.9	
427.89	5993	
428.09	4743.8	
428.29	4157.4	
428.5	6465.4	
428.7	6172.6	
428.9	4132.1	
429.1	4516.5	
429.3	6081.8	
429.51	6310.5	
429.71	4388.8	
429.91	5014.1	
430.11	6315.9	
430.31	6501.6	
430.52	4641.4	
430.72	4745.1	
430.92	6791.7	
431.12	6246.3	
431.32	4345.8	
431.53	4680.3	
431.73	5584.1	
431.93	6802	
432.13	4319.8	
432.33	4255	
432.54	5908.4	
432.74	6047.7	
432.94	4138.9	
433.14	4994.3	
433.34	6398.5	
433.55	5995.1	
433.75	4937	
433.95	6221	
434.15	6156.2	
434.35	5925.5	
434.56	4367	
434.76	4027	
434.96	6113.9	
435.16	6366.5	
435.36	4301.4	
435.56	5147.2	
435.77	5952.8	
435.97	6069.5	
436.17	5578	
436.37	5099.4	
436.57	5982.8	
436.78	5816.2	
436.98	6337.8	
437.18	5563	
437.38	6405.4	
437.58	6102.3	
437.78	5604.6	
437.99	4620.9	
438.19	6459.3	
438.39	7084.6	
438.59	4628.4	
438.79	4237.2	
438.99	6966.5	
439.2	6032.6	
439.4	4315.8	
439.6	4268	
439.8	6189	
440	6945.3	
440.2	5039.4	
440.4	5125.4	
440.61	6595.8	
440.81	6885.3	
441.01	4478.2	
441.21	5126.1	
441.41	6911.2	
441.61	6614.3	
441.81	5375.2	
442.02	5991.7	
442.22	7231.4	
442.42	6716	
442.62	4606.6	
442.82	4638.6	
443.02	7040.2	
443.22	6273.6	
443.43	4975.9	
443.63	4557.4	
443.83	6275.7	
444.03	6171.9	
444.23	5536.3	
444.43	5175.9	
444.63	6501.6	
444.83	7299.6	
445.04	4745.1	
445.24	5661.3	
445.44	6780.8	
445.64	6840.2	
445.84	5265.3	
446.04	5368.4	
446.24	6253.8	
446.44	7011.6	
446.65	4684.4	
446.85	4991.6	
447.05	6558.3	
447.25	6933.7	
447.45	5053.7	
447.65	4577.2	
447.85	6606.7	
448.05	6208.1	
448.25	5382.1	
448.46	5241.4	
448.66	6542.6	
448.86	6253.8	
449.06	4519.2	
449.26	5381.4	
449.46	6817	
449.66	6105	
449.86	5029.8	
450.06	4944.5	
450.26	6307.7	
450.47	6645.7	
450.67	5226.4	
450.87	5484.5	
451.07	6842.9	
451.27	6523.5	
451.47	4718.5	
451.67	5096.7	
451.87	6354.8	
452.07	7217	
452.27	4911.7	
452.47	4919.9	
452.67	6693.4	
452.88	6865.5	
453.08	4468	
453.28	5940.5	
453.48	7522.9	
453.68	6521.4	
453.88	4916.5	
454.08	4980	
454.28	6908.5	
454.48	6625.9	
454.68	5399.1	
454.88	5750.7	
455.08	7002	
455.28	6751.5	
455.48	4815.5	
455.68	5304.9	
455.89	7397.9	
456.09	7021.8	
456.29	5089.2	
456.49	5115.1	
456.69	7322.2	
456.89	6655.2	
457.09	5546.6	
457.29	5792.3	
457.49	6933.7	
457.69	7063.4	
457.89	5427.8	
458.09	4903.5	
458.29	6791.1	
458.49	7331.7	
458.69	5700.2	
458.89	5336.3	
459.09	7528.3	
459.29	7609.6	
459.49	5334.3	
459.69	5982.1	
459.9	7182.9	
460.1	6934.4	
460.3	5292	
460.5	5113.8	
460.7	7235.5	
460.9	6946.7	
461.1	4893.3	
461.3	5812.1	
461.5	7748.8	
461.7	7421.8	
461.9	5262.6	
462.1	5556.1	
462.3	7060.7	
462.5	7497.6	
462.7	5315.8	
462.9	5454.4	
463.1	8277.2	
463.3	8049.2	
463.5	5625.1	
463.7	6324.8	
463.9	7324.9	
464.1	7604.8	
464.3	5772.5	
464.5	5904.3	
464.7	7808.2	
464.9	7509.2	
465.1	6815	
465.3	6208.8	
465.5	8079.2	
465.7	8091.5	
465.9	6496.2	
466.1	6170.5	
466.3	7892.9	
466.5	7821.2	
466.7	6913.3	
466.9	6056.5	
467.1	7832.1	
467.3	8457.4	
467.5	6886.6	
467.7	6098.2	
467.9	8703.2	
468.1	9282.8	
468.3	6623.8	
468.5	6913.3	
468.7	7824.6	
468.9	7795.3	
469.1	6377.4	
469.3	6874.3	
469.5	9348.3	
469.7	7649.8	
469.9	6632	
470.1	6184.2	
470.3	7893.6	
470.5	7940.7	
470.7	7164.5	
470.9	6274.3	
471.1	7865.6	
471.3	8043.7	
471.5	6214.2	
471.69	7573.4	
471.89	7714	
472.09	7234.1	
472.29	6815.6	
472.49	6966.5	
472.69	7572.7	
472.89	8133.8	
473.09	6117.3	
473.29	6231.3	
473.49	7677.2	
473.69	7638.9	
473.89	6835.4	
474.09	6308.4	
474.29	8641.7	
474.49	8393.9	
474.69	6865.5	
474.89	6398.5	
475.09	7772.7	
475.29	7778.9	
475.49	5989.6	
475.69	6174.6	
475.88	8876.6	
476.08	8153	
476.28	5991	
476.48	6210.8	
476.68	8421.9	
476.88	8250.6	
477.08	6178	
477.28	6414.2	
477.48	7762.5	
477.68	8206.2	
477.88	5999.2	
478.08	6259.3	
478.28	8585.1	
478.48	7833.5	
478.67	6374	
478.87	5864	
479.07	8384.4	
479.27	7926.3	
479.47	6516.6	
479.67	6533.7	
479.87	8243.8	
480.07	8659.5	
480.27	5997.1	
480.47	7129	
480.67	7935.2	
480.87	8413.7	
481.06	6229.9	
481.26	6793.8	
481.46	8054.7	
481.66	8001.4	
481.86	6596.5	
482.06	7291.5	
482.26	7813.7	
482.46	8441	
482.66	6506.4	
482.86	6176.7	
483.05	8228.1	
483.25	7600	
483.45	8290.9	
483.65	6502.3	
483.85	7737.2	
484.05	8002.1	
484.25	6793.1	
484.45	7229.3	
484.65	8618.5	
484.84	8619.2	
485.04	6532.3	
485.24	6524.1	
485.44	8928.5	
485.64	7643.7	
485.84	6023.1	
486.04	6995.2	
486.24	7950.2	
486.44	8256.7	
486.63	6072.9	
486.83	6664.8	
487.03	7955.7	
487.23	8058.1	
487.43	6065.4	
487.63	7818.5	
487.83	8181.6	
488.02	8837.7	
488.22	6881.9	
488.42	7404.8	
488.62	8787.8	
488.82	7991.2	
489.02	6656.6	
489.22	6636.8	
489.41	8660.9	
489.61	8447.9	
489.81	6368.5	
490.01	6419.7	
490.21	8753.7	
490.41	9206.3	
490.61	6451.8	
490.8	6514.6	
491	8411	
491.2	7850.5	
491.4	6961.7	
491.6	6412.9	
491.8	8404.2	
491.99	8440.4	
492.19	6255.9	
492.39	6580.1	
492.59	8697	
492.79	8748.2	
492.99	7228.6	
493.18	6409.5	
493.38	8815.8	
493.58	9362.6	
493.78	6969.2	
493.98	6713.9	
494.18	8605.6	
494.37	8243.1	
494.57	7258	
494.77	7164.5	
494.97	8912.8	
495.17	9037	
495.37	6874.3	
495.56	7133.1	
495.76	9182.4	
495.96	9026.8	
496.16	7918.8	
496.36	7271.7	
496.55	9251.4	
496.75	8841.8	
496.95	7466.2	
497.15	7380.9	
497.35	9271.8	
497.54	9153.1	
497.74	7262.1	
497.94	8486.1	
498.14	9751.1	
498.34	9577	
498.53	7040.2	
498.73	7619.8	
498.93	8716.2	
499.13	9165.3	
499.33	7544	
499.52	7854.6	
499.72	9322.4	
499.92	9513.5	
500.12	7342	
500.32	7527	
500.51	9431.6	
500.71	9394.7	
500.91	8091.5	
501.11	7867.6	
501.31	9491.7	
501.5	9825.5	
501.7	8385.1	
501.9	7576.1	
502.1	9354.4	
502.29	9645.9	
502.49	8000.7	
502.69	8313.4	
502.89	9562	
503.09	9497.1	
503.28	7326.9	
503.48	7388.4	
503.68	9040.4	
503.88	9010.4	
504.07	7986.4	
504.27	7615	
504.47	9200.8	
504.67	9377	
504.86	8032.1	
505.06	7755.7	
505.26	9108.7	
505.46	10356	
505.65	7686.7	
505.85	7835.5	
506.05	9058.2	
506.25	9317.6	
506.44	7232.7	
506.64	7743.4	
506.84	8967.4	
507.04	9477.3	
507.23	7323.5	
507.43	7739.3	
507.63	10313	
507.83	8944.2	
508.02	7814.4	
508.22	7481.2	
508.42	10546	
508.62	8886.1	
508.81	7587.7	
509.01	8095.6	
509.21	8787.8	
509.4	9036.3	
509.6	7835.5	
509.8	7325.6	
510	8879.3	
510.19	9972.2	
510.39	7213.6	
510.59	7308.5	
510.79	8845.2	
510.98	9904	
511.18	7518.8	
511.38	7537.2	
511.57	9597.5	
511.77	9293	
511.97	8088.8	
512.17	7326.9	
512.36	9555.8	
512.56	9351	
512.76	7307.8	
512.95	7135.1	
513.15	9605.7	
513.35	8518.2	
513.55	7915.4	
513.74	7279.8	
513.94	9474.6	
514.14	9012.4	
514.33	8041	
514.53	7779.6	
514.73	9095	
514.92	9105.3	
515.12	7412.3	
515.32	7323.5	
515.51	9282.8	
515.71	9506.7	
515.91	8561.9	
516.11	7350.2	
516.3	10491	
516.5	9090.3	
516.7	7818.5	
516.89	8297	
517.09	9195.4	
517.29	9122.3	
517.48	8219.2	
517.68	7608.9	
517.88	8934.6	
518.07	9471.2	
518.27	8026.7	
518.47	7238.9	
518.66	9877.4	
518.86	8821.3	
519.06	7210.2	
519.25	7641	
519.45	9074.5	
519.65	10167	
519.84	8156.4	
520.04	8586.5	
520.24	10553	
520.43	9607	
520.63	7955.7	
520.83	7734.5	
521.02	9067.7	
521.22	9551.7	
521.42	8106.5	
521.61	8538	
521.81	9231.6	
522.01	9441.8	
522.2	7922.2	
522.4	7755.7	
522.6	9704.6	
522.79	8709.3	
522.99	7864.2	
523.18	7356.3	
523.38	9562	
523.58	9446.6	
523.77	8801.5	
523.97	7494.2	
524.17	10991	
524.36	10343	
524.56	8490.2	
524.76	8247.2	
524.95	9667.1	
525.15	9476	
525.34	8191.2	
525.54	8223.3	
525.74	10105	
525.93	9318.9	
526.13	9249.3	
526.33	8369.4	
526.52	10429	
526.72	10128	
526.91	9290.3	
527.11	8755.1	
527.31	10542	
527.5	10796	
527.7	8694.3	
527.89	8019.8	
528.09	9747.6	
528.29	10099	
528.48	8888.2	
528.68	8855.4	
528.87	10471	
529.07	10613	
529.27	8832.2	
529.46	8522.3	
529.66	10361	
529.85	10715	
530.05	8400.8	
530.25	9009.7	
530.44	11563	
530.64	10374	
530.83	8809	
531.03	8865	
531.23	10774	
531.42	10519	
531.62	9499.8	
531.81	8910	
532.01	10785	
532.21	11105	
532.4	8816.5	
532.6	9062.9	
532.79	11471	
532.99	10852	
533.18	9276.6	
533.38	9999.5	
533.58	10786	
533.77	11261	
533.97	9357.2	
534.16	9908.8	
534.36	11583	
534.55	10801	
534.75	10047	
534.95	9363.3	
535.14	11587	
535.34	10915	
535.53	9127.8	
535.73	10500	
535.92	11970	
536.12	11033	
536.31	9350.3	
536.51	10176	
536.71	11259	
536.9	10890	
537.1	9396.1	
537.29	9494.4	
537.49	11617	
537.68	10806	
537.88	9833	
538.07	9138	
538.27	11143	
538.46	11803	
538.66	9142.8	
538.86	9377	
539.05	11256	
539.25	11484	
539.44	9852.8	
539.64	9340.8	
539.83	11080	
540.03	11760	
540.22	9301.2	
540.42	9399.5	
540.61	11352	
540.81	11243	
541	9663	
541.2	10286	
541.39	10922	
541.59	11127	
541.78	9986.6	
541.98	9315.5	
542.18	10552	
542.37	10597	
542.57	9581.1	
542.76	10106	
542.96	10609	
543.15	11101	
543.35	9618.6	
543.54	9081.4	
543.74	11306	
543.93	10968	
544.13	9395.4	
544.32	10296	
544.52	11170	
544.71	10611	
544.91	8860.2	
545.1	9678.7	
545.3	10621	
545.49	11037	
545.69	8789.2	
545.88	9159.2	
546.08	11833	
546.27	11431	
546.47	9659.6	
546.66	8964	
546.86	11239	
547.05	11613	
547.24	9111.4	
547.44	9155.8	
547.63	10541	
547.83	11407	
548.02	9448.6	
548.22	9473.2	
548.41	10370	
548.61	11249	
548.8	9023.4	
549	9045.9	
549.19	10824	
549.39	11117	
549.58	8804.2	
549.78	9290.3	
549.97	11076	
550.17	10689	
550.36	9891.7	
550.55	10641	
550.75	10692	
550.94	11336	
551.14	8943.5	
551.33	9194.7	
551.53	10032	
551.72	10879	
551.92	9093	
552.11	8948.9	
552.31	11001	
552.5	10890	
552.69	10279	
552.89	8680	
553.08	10942	
553.28	10647	
553.47	8993.3	
553.67	9882.1	
553.86	11363	
554.06	10063	
554.25	8396.7	
554.44	8908.7	
554.64	11962	
554.83	11521	
555.03	8862.2	
555.22	9103.9	
555.42	11013	
555.61	10807	
555.8	8905.3	
556	9091.6	
556.19	10139	
556.39	10925	
556.58	8968.1	
556.78	8957.8	
556.97	10750	
557.16	10383	
557.36	9934.7	
557.55	8648.6	
557.75	10006	
557.94	11301	
558.13	8792.6	
558.33	8631.5	
558.52	11183	
558.72	10223	
558.91	8663.6	
559.1	8794.7	
559.3	10062	
559.49	9897.8	
559.69	8405.5	
559.88	9071.8	
560.07	10673	
560.27	10931	
560.46	9261.6	
560.66	9372.2	
560.85	10540	
561.04	9847.3	
561.24	8710	
561.43	8682.7	
561.63	10002	
561.82	10221	
562.01	9690.3	
562.21	8894.3	
562.4	10581	
562.59	11254	
562.79	8922.3	
562.98	8547.5	
563.18	10495	
563.37	11663	
563.56	9182.4	
563.76	8746.2	
563.95	10117	
564.14	10118	
564.34	9024	
564.53	8658.1	
564.73	10643	
564.92	10785	
565.11	9097.1	
565.31	8562.6	
565.5	11064	
565.69	10227	
565.89	8839	
566.08	8984.4	
566.27	10906	
566.47	11232	
566.66	9460.9	
566.85	8560.5	
567.05	10708	
567.24	10306	
567.44	8659.5	
567.63	9807.7	
567.82	10878	
568.02	10529	
568.21	8818.6	
568.4	9051.3	
568.6	10574	
568.79	10529	
568.98	8652.7	
569.18	8761.2	
569.37	10591	
569.56	12052	
569.76	9118.2	
569.95	9799.5	
570.14	10907	
570.34	10887	
570.53	8762.6	
570.72	8753	
570.91	11245	
571.11	10679	
571.3	9177.6	
571.49	9860.3	
571.69	10733	
571.88	10253	
572.07	9488.2	
572.27	9441.8	
572.46	10230	
572.65	11039	
572.85	9003.6	
573.04	9253.4	
573.23	11314	
573.43	10688	
573.62	8862.9	
573.81	9274.6	
574	10841	
574.2	10634	
574.39	9119.6	
574.58	9201.5	
574.78	11559	
574.97	10899	
575.16	9605	
575.36	9633	
575.55	11333	
575.74	11277	
575.93	8846.5	
576.13	9753.8	
576.32	10795	
576.51	11243	
576.71	9363.3	
576.9	10297	
577.09	11618	
577.28	11183	
577.48	9668.5	
577.67	8932.6	
577.86	10940	
578.05	11202	
578.25	9433.6	
578.44	9560.6	
578.63	10938	
578.83	11923	
579.02	8985.1	
579.21	10195	
579.4	11131	
579.6	10996	
579.79	9609.8	
579.98	11223	
580.17	11418	
580.37	11516	
580.56	9186.5	
580.75	9690.3	
580.94	11690	
581.14	11694	
581.33	10079	
581.52	9232.9	
581.71	11366	
581.91	11807	
582.1	9033.6	
582.29	9336	
582.48	11058	
582.68	11088	
582.87	9873.9	
583.06	9586.5	
583.25	11348	
583.45	11197	
583.64	10163	
583.83	10689	
584.02	11061	
584.21	11355	
584.41	10101	
584.6	9532.6	
584.79	11255	
584.98	11613	
585.18	9358.5	
585.37	9145.5	
585.56	10830	
585.75	11484	
585.94	9393.4	
586.14	9883.5	
586.33	11811	
586.52	11169	
586.71	9730.6	
586.91	9542.2	
587.1	10631	
587.29	11404	
587.48	9308	
587.67	9374.2	
587.87	11204	
588.06	11153	
588.25	10270	
588.44	9710.8	
588.63	10921	
588.83	11351	
589.02	9368.8	
589.21	9211.1	
589.4	10811	
589.59	10679	
589.78	8653.4	
589.98	8760.5	
590.17	10279	
590.36	10690	
590.55	8191.2	
590.74	8797.4	
590.94	11463	
591.13	10388	
591.32	8469.7	
591.51	8144.8	
591.7	10563	
591.89	10243	
592.09	8220.5	
592.28	8621.3	
592.47	9657.5	
592.66	11258	
592.85	8261.5	
593.05	8467.7	
593.24	10215	
593.43	10835	
593.62	8554.4	
593.81	8928.5	
594	10363	
594.19	10333	
594.39	8430.8	
594.58	8473.1	
594.77	10475	
594.96	10854	
595.15	8404.9	
595.34	8895	
595.54	10507	
595.73	9810.5	
595.92	7937.9	
596.11	8731.9	
596.3	10826	
596.49	9809.1	
596.68	8563.2	
596.88	8793.3	
597.07	10587	
597.26	9698.5	
597.45	8081.3	
597.64	8967.4	
597.83	9935.4	
598.02	10376	
598.22	8204.8	
598.41	8821.3	
598.6	10176	
598.79	9702.6	
598.98	8245.1	
599.17	8928.5	
599.36	10318	
599.55	10993	
599.74	9762	
599.94	9605.7	
600.13	10610	
600.32	9788.6	
600.51	8002.8	
600.7	8150.9	
600.89	10961	
601.08	11019	
601.27	8011.7	
601.47	8690.2	
601.66	10477	
601.85	10918	
602.04	8499.8	
602.23	8462.2	
602.42	9756.5	
602.61	10246	
602.8	8374.8	
602.99	8179.6	
603.18	10090	
603.37	10251	
603.57	8729.8	
603.76	9116.2	
603.95	10725	
604.14	10365	
604.33	8273.8	
604.52	8500.4	
604.71	10223	
604.9	9838.4	
605.09	8926.4	
605.28	8809.7	
605.47	10686	
605.66	10318	
605.86	8748.2	
606.05	8324.3	
606.24	10647	
606.43	9480	
606.62	8560.5	
606.81	9052	
607	10584	
607.19	9869.8	
607.38	8053.3	
607.57	8211	
607.76	9723.1	
607.95	9296.4	
608.14	8533.9	
608.33	8959.9	
608.52	9836.4	
608.72	10419	
608.91	7936.6	
609.1	7933.1	
609.29	9869.2	
609.48	9420.7	
609.67	8452.6	
609.86	7870.3	
610.05	9525.1	
610.24	9714.9	
610.43	7841.7	
610.62	7553.6	
610.81	10593	
611	10421	
611.19	7984.3	
611.38	8460.8	
611.57	9985.2	
611.76	10927	
611.95	7834.8	
612.14	7653.3	
612.33	9787.9	
612.52	9430.2	
612.71	8131.1	
612.9	7569.3	
613.09	9155.1	
613.28	10978	
613.47	8018.5	
613.66	8621.9	
613.85	9934.7	
614.04	9450.7	
614.24	8036.9	
614.43	7431.4	
614.62	10082	
614.81	9985.2	
615	8415.1	
615.19	8389.2	
615.38	9450	
615.57	9713.5	
615.76	8365.3	
615.95	9017.9	
616.14	10049	
616.33	9845.3	
616.52	8560.5	
616.71	8667	
616.9	10055	
617.09	9839.1	
617.28	8115.4	
617.47	8930.5	
617.66	9350.3	
617.85	9344.2	
618.04	8752.3	
618.22	8344.8	
618.41	9736.7	
618.6	10440	
618.79	8342.7	
618.98	8194.6	
619.17	10673	
619.36	9187.9	
619.55	8390.5	
619.74	8368	
619.93	10043	
620.12	9634.3	
620.31	8871.8	
620.5	8910	
620.69	10512	
620.88	10950	
621.07	9274.6	
621.26	8630.8	
621.45	10333	
621.64	10246	
621.83	8837.7	
622.02	8238.3	
622.21	10466	
622.4	10301	
622.59	9234.3	
622.78	9101.9	
622.97	9957.9	
623.16	10656	
623.35	8875.2	
623.54	8221.9	
623.72	10092	
623.91	10170	
624.1	9056.1	
624.29	8088.8	
624.48	11123	
624.67	10393	
624.86	9022.7	
625.05	8260.1	
625.24	11191	
625.43	10019	
625.62	10215	
625.81	8523.6	
626	10664	
626.19	10211	
626.38	9112.8	
626.56	8553.7	
626.75	10023	
626.94	10578	
627.13	9090.9	
627.32	8180.3	
627.51	10598	
627.7	11433	
627.89	8230.8	
628.08	9140.1	
628.27	10005	
628.46	10088	
628.65	8518.2	
628.83	8163.9	
629.02	10376	
629.21	9904.7	
629.4	8792.6	
629.59	8868.4	
629.78	9916.3	
629.97	10657	
630.16	8947.6	
630.35	8456.1	
630.54	11036	
630.72	10746	
630.91	8585.8	
631.1	9019.9	
631.29	10442	
631.48	10542	
631.67	9063.6	
631.86	8565.3	
632.05	10124	
632.24	10154	
632.42	8400.8	
632.61	8795.3	
632.8	10164	
632.99	9912.2	
633.18	8847.9	
633.37	9139.4	
633.56	10394	
633.75	10290	
633.93	8937.3	
634.12	8718.2	
634.31	10986	
634.5	10756	
634.69	8685.4	
634.88	9013.1	
635.07	10237	
635.25	10733	
635.44	9338.7	
635.63	9518.3	
635.82	10113	
636.01	9652.8	
636.2	9241.1	
636.39	8971.5	
636.57	11000	
636.76	10614	
636.95	8551	
637.14	9578.3	
637.33	10511	
637.52	11013	
637.7	8292.2	
637.89	9088.9	
638.08	10251	
638.27	11237	
638.46	9131.9	
638.65	9389.3	
638.83	11120	
639.02	10032	
639.21	8990.6	
639.4	9337.4	
639.59	10398	
639.78	10104	
639.96	8441.7	
640.15	8508.6	
640.34	10270	
640.53	10165	
640.72	8177.5	
640.91	8440.4	
641.09	9812.5	
641.28	10745	
641.47	8456.1	
641.66	9010.4	
641.85	10314	
642.03	10333	
642.22	8962.6	
642.41	8471.8	
642.6	9779.7	
642.79	9361.9	
642.97	8279.9	
643.16	8891.6	
643.35	9824.8	
643.54	9557.2	
643.73	8135.2	
643.91	8783.1	
644.1	9506	
644.29	9977	
644.48	8210.3	
644.67	8329.1	
644.85	9434.3	
645.04	9889.6	
645.23	7963.9	
645.42	8157.7	
645.6	9359.9	
645.79	10305	
645.98	7944.1	
646.17	7393.8	
646.36	9101.2	
646.54	9471.2	
646.73	8496.3	
646.92	7724.9	
647.11	9209.7	
647.29	9914.2	
647.48	7698.3	
647.67	7471.7	
647.86	10114	
648.05	10216	
648.23	7914	
648.42	8848.6	
648.61	9658.9	
648.8	9415.9	
648.98	7544.7	
649.17	7870.3	
649.36	9033.6	
649.55	8820.6	
649.73	7671	
649.92	8251.9	
650.11	9075.9	
650.3	9305.3	
650.48	7656	
650.67	7630.7	
650.86	9597.5	
651.05	8617.9	
651.23	7639.6	
651.42	7555	
651.61	9079.3	
651.79	8990.6	
651.98	7854	
652.17	7520.1	
652.36	9377.6	
652.54	8634.9	
652.73	7570.7	
652.92	7367.9	
653.11	9294.4	
653.29	9415.2	
653.48	6978.1	
653.67	7671	
653.85	9172.2	
654.04	9942.9	
654.23	7985	
654.42	7498.3	
654.6	8782.4	
654.79	9217.9	
654.98	6972	
655.16	7400	
655.35	8447.2	
655.54	8193.2	
655.73	6914.6	
655.91	6931	
656.1	9016.5	
656.29	7996	
656.47	6507.8	
656.66	7733.8	
656.85	8426.7	
657.03	8372.1	
657.22	6870.9	
657.41	7016.3	
657.59	8475.2	
657.78	8406.2	
657.97	6901	
658.16	7406.1	
658.34	9009	
658.53	9403.6	
658.72	8047.8	
658.9	8371.4	
659.09	8759.2	
659.28	8754.4	
659.46	7259.4	
659.65	7103.7	
659.84	8534.6	
660.02	9107.3	
660.21	7288	
660.4	7000.6	
660.58	9289.6	
660.77	8794.7	
660.96	7532.4	
661.14	6858.6	
661.33	9614.5	
661.52	9497.8	
661.7	6832.7	
661.89	9470.5	
662.08	8526.4	
662.26	8176.9	
662.45	7050.5	
662.64	7039.6	
662.82	9046.6	
663.01	8342.1	
663.2	7034.1	
663.38	7719.5	
663.57	8897.1	
663.75	8870.4	
663.94	7216.4	
664.13	8178.9	
664.31	8444.5	
664.5	8940.1	
664.69	7411.6	
664.87	7940.7	
665.06	8225.3	
665.25	8802.9	
665.43	8038.3	
665.62	8020.5	
665.8	8953.7	
665.99	8518.9	
666.18	7284.6	
666.36	7364.5	
666.55	8951.7	
666.74	8980.3	
666.92	7046.4	
667.11	8214.4	
667.29	8592.6	
667.48	8917.5	
667.67	7826.7	
667.85	7156.3	
668.04	8490.9	
668.22	8429.4	
668.41	7275.1	
668.6	7460.1	
668.78	8295	
668.97	8654	
669.15	7509.9	
669.34	6670.9	
669.53	8372.8	
669.71	8629.5	
669.9	6956.9	
670.08	7377.5	
670.27	8305.2	
670.46	8786.5	
670.64	7502.4	
670.83	7733.8	
671.01	8194.6	
671.2	8725	
671.38	6979.5	
671.57	6920.8	
671.76	9251.4	
671.94	9572.9	
672.13	6793.8	
672.31	7610.3	
672.5	8915.5	
672.69	8358.4	
672.87	6947.4	
673.06	7196.6	
673.24	8779.6	
673.43	8456.1	
673.61	7453.9	
673.8	7209.5	
673.98	8841.8	
674.17	9000.1	
674.36	7623.2	
674.54	7484	
674.73	8611	
674.91	8936.7	
675.1	7214.3	
675.28	6921.5	
675.47	8589.9	
675.65	9041.1	
675.84	7210.9	
676.03	7423.2	
676.21	8357.1	
676.4	7957.7	
676.58	7804.8	
676.77	7546.1	
676.95	9558.6	
677.14	8322.9	
677.32	6891.4	
677.51	6824.5	
677.69	8980.3	
677.88	8151.6	
678.06	6885.3	
678.25	6972.7	
678.44	8507.3	
678.62	8387.8	
678.81	6696.9	
678.99	7477.1	
679.18	9116.2	
679.36	8852.7	
679.55	7206.1	
679.73	7669.6	
679.92	8787.2	
680.1	8338	
680.29	8022.6	
680.47	7081.2	
680.66	8376.9	
680.84	8946.2	
681.03	6653.9	
681.21	7504.4	
681.4	8404.2	
681.58	8307.2	
681.77	7017.7	
681.95	6974.7	
682.14	9058.8	
682.32	9281.4	
682.51	7598.6	
682.69	6802.7	
682.88	8214.4	
683.06	8665.6	
683.25	7439.6	
683.43	7666.2	
683.62	8634.9	
683.8	8806.9	
683.99	7805.5	
684.17	7326.3	
684.36	9530.6	
684.54	8478.6	
684.73	6590.4	
684.91	6910.5	
685.1	8670.4	
685.28	8123.6	
685.46	7203.4	
685.65	7089.4	
685.83	8581	
686.02	8074.5	
686.2	6570.6	
686.39	6720.8	
686.57	7947.5	
686.76	8940.1	
686.94	6604	
687.13	6789	
687.31	8467	
687.5	8127.7	
687.68	6334.4	
687.86	7249.1	
688.05	9538.1	
688.23	7798.7	
688.42	7342	
688.6	6773.3	
688.79	8297	
688.97	8196.7	
689.16	7144	
689.34	6298.2	
689.52	8721.6	
689.71	8923	
689.89	7362.4	
690.08	6915.3	
690.26	8557.1	
690.45	8420.6	
690.63	7586.4	
690.81	7066.9	
691	8381.7	
691.18	8264.2	
691.37	7187	
691.55	8731.9	
691.74	8221.2	
691.92	9772.9	
692.1	7193.8	
692.29	6722.1	
692.47	8332.5	
692.66	7865.6	
692.84	6857.3	
693.02	7260.7	
693.21	7969.3	
693.39	8394.6	
693.58	7393.2	
693.76	6987	
693.94	9272.5	
694.13	9130.5	
694.31	7000.6	
694.5	7805.5	
694.68	8296.3	
694.86	8680	
695.05	7338.6	
695.23	7391.8	
695.42	9006.3	
695.6	10700	
695.78	7849.2	
695.97	7238.9	
696.15	9153.1	
696.34	8643.8	
696.52	7078.5	
696.7	7754.3	
696.89	8870.4	
697.07	8419.9	
697.25	7540.6	
697.44	8655.4	
697.62	8869.1	
697.81	8958.5	
697.99	7354.3	
698.17	7748.1	
698.36	8347.5	
698.54	8766	
698.72	7518.1	
698.91	6836.1	
699.09	8578.3	
699.28	8366	
699.46	7249.1	
699.64	7226.6	
699.83	8255.4	
700.01	9179	
700.19	7882.6	
700.38	6707.1	
700.56	9235.7	
700.74	8450.6	
700.93	6997.2	
701.11	7603.4	
701.29	8888.9	
701.48	9740.1	
701.66	7110.5	
701.84	7275.8	
702.03	8635.6	
702.21	9137.4	
702.39	6905.8	
702.58	7404.8	
702.76	8980.3	
702.94	9116.9	
703.13	7009.5	
703.31	8817.2	
703.49	8502.5	
703.68	9576.3	
703.86	7043	
704.04	7858.1	
704.23	8842.4	
704.41	9140.1	
704.59	7286	
704.78	8037.6	
704.96	10008	
705.14	9092.3	
705.33	7020.4	
705.51	7584.3	
705.69	8595.3	
705.87	9230.2	
706.06	7909.9	
706.24	7049.1	
706.42	8923	
706.61	9112.8	
706.79	7822.6	
706.97	6993.1	
707.16	8501.1	
707.34	8886.8	
707.52	7806.2	
707.7	7229.3	
707.89	8570.7	
708.07	8404.2	
708.25	7890.8	
708.44	8040.3	
708.62	8514.8	
708.8	9275.3	
708.98	7970	
709.17	7284.6	
709.35	8783.7	
709.53	8845.9	
709.72	7077.1	
709.9	7386.3	
710.08	8972.8	
710.26	9036.3	
710.45	8241.7	
710.63	7230	
710.81	8693.6	
710.99	8706.6	
711.18	7658	
711.36	7139.2	
711.54	8563.2	
711.72	9151	
711.91	7318.8	
712.09	6881.2	
712.27	8625.4	
712.45	9044.5	
712.64	7460.1	
712.82	6737.1	
713	8130.4	
713.18	8202.8	
713.37	6663.4	
713.55	7466.9	
713.73	8777.6	
713.91	7752.9	
714.1	6965.8	
714.28	6449.7	
714.46	8309.3	
714.64	7713.3	
714.83	5900.9	
715.01	6340.5	
715.19	7649.8	
715.37	6984.9	
715.55	5976	
715.74	6068.8	
715.92	7930.4	
716.1	6540.5	
716.28	6879.8	
716.47	6197.2	
716.65	7144.7	
716.83	7051.2	
717.01	5965.7	
717.19	6016.9	
717.38	8587.1	
717.56	6811.5	
717.74	6236.1	
717.92	5528.8	
718.1	7757	
718.29	7149.5	
718.47	5320.6	
718.65	5924.8	
718.83	7838.3	
719.01	7767.3	
719.2	5358.9	
719.38	6380.1	
719.56	7703.1	
719.74	8766	
719.92	6003.3	
720.11	6651.8	
720.29	7702.4	
720.47	7006.8	
720.65	5593	
720.83	6146.6	
721.02	7207.5	
721.2	6963.8	
721.38	6073.6	
721.56	5541.1	
721.74	6441.5	
721.92	6632.7	
722.11	6440.9	
722.29	6083.8	
722.47	7533.1	
722.65	6862.1	
722.83	5504.3	
723.01	6075	
723.2	6956.3	
723.38	7187.7	
723.56	4999.8	
723.74	5902.9	
723.92	6582.2	
724.1	7394.5	
724.29	5412.1	
724.47	6212.2	
724.65	6694.8	
724.83	6576.7	
725.01	5289.9	
725.19	5870.8	
725.37	6546.7	
725.56	6548.7	
725.74	5166.3	
725.92	5311.7	
726.1	6552.1	
726.28	6774	
726.46	5627.8	
726.64	5354.8	
726.83	6724.2	
727.01	6864.1	
727.19	5111	
727.37	5723.4	
727.55	6894.1	
727.73	7193.8	
727.91	5089.2	
728.09	4958.1	
728.28	7268.2	
728.46	7466.2	
728.64	5809.4	
728.82	5722	
729	7956.4	
729.18	7460.8	
729.36	5168.4	
729.54	6845	
729.72	8266.3	
729.91	7000.6	
730.09	6677.7	
730.27	5760.9	
730.45	6950.8	
730.63	7335.1	
730.81	6100.9	
730.99	5442.1	
731.17	7869	
731.35	6713.9	
731.53	5799.8	
731.71	5597.8	
731.9	7531.1	
732.08	7559.7	
732.26	5758.2	
732.44	5498.8	
732.62	7641.7	
732.8	7364.5	
732.98	5979.4	
733.16	5328.1	
733.34	7328.3	
733.52	6277.7	
733.7	5638.1	
733.88	5887.2	
734.07	7079.8	
734.25	6919.4	
734.43	5249.6	
734.61	6322.1	
734.79	8015.1	
734.97	6725.5	
735.15	5266	
735.33	5569.1	
735.51	7023.2	
735.69	6753.5	
735.87	6315.9	
736.05	5627.8	
736.23	6922.1	
736.41	6675	
736.59	5559.6	
736.77	5591	
736.95	7238.2	
737.13	6770.6	
737.32	5246.2	
737.5	5438.7	
737.68	7617.8	
737.86	6662.7	
738.04	5092.6	
738.22	6406	
738.4	6472.3	
738.58	6666.1	
738.76	5468.8	
738.94	4740.4	
739.12	6631.3	
739.3	6552.1	
739.48	5910.4	
739.66	5688.6	
739.84	6819.7	
740.02	6672.3	
740.2	4738.3	
740.38	5008	
740.56	7018.4	
740.74	6051.1	
740.92	5535.7	
741.1	5356.8	
741.28	6550.8	
741.46	6394.4	
741.64	5150	
741.82	5535.7	
742	6590.4	
742.18	6477.7	
742.36	5240.1	
742.54	4991.6	
742.72	6954.9	
742.9	5914.5	
743.08	5461.9	
743.26	4562.9	
743.44	6971.3	
743.62	6867.5	
743.8	5533.6	
743.98	4893.3	
744.16	6638.8	
744.34	6429.9	
744.52	5505.6	
744.7	5427.1	
744.88	6783.6	
745.06	6315.9	
745.24	5437.4	
745.42	5494	
745.6	6785.6	
745.78	6669.6	
745.96	4585.4	
746.14	4811.4	
746.32	7284.6	
746.5	6659.3	
746.68	5144.5	
746.86	4683.7	
747.03	6950.8	
747.21	5741.1	
747.39	5163.6	
747.57	4757.4	
747.75	6376	
747.93	6663.4	
748.11	4701.5	
748.29	4661.9	
748.47	7503.8	
748.65	6123.4	
748.83	5211.4	
749.01	4994.3	
749.19	6567.8	
749.37	5778	
749.55	4947.9	
749.73	4968.4	
749.91	6253.1	
750.09	6006.7	
750.26	4930.8	
750.44	4568.3	
750.62	6236.1	
750.8	6141.9	
750.98	4519.2	
751.16	4672.1	
751.34	6296.8	
751.52	5784.1	
751.7	5246.9	
751.88	4370.4	
752.06	6576	
752.24	6383.5	
752.42	4328.7	
752.59	4581.3	
752.77	6196.5	
752.95	7049.1	
753.13	5210	
753.31	4723.3	
753.49	5844.9	
753.67	6220.4	
753.85	4908.3	
754.03	4501.4	
754.21	6402.6	
754.38	6647	
754.56	4638	
754.74	3876.1	
754.92	5716.6	
755.1	6203.3	
755.28	3854.3	
755.46	3783.3	
755.64	6681.8	
755.82	6711.9	
755.99	3960.8	
756.17	3923.9	
756.35	4764.3	
756.53	5899.5	
756.71	3007.1	
756.89	3738.2	
757.07	5578.7	
757.25	4897.4	
757.42	4209.9	
757.6	4768.4	
757.78	5659.2	
757.96	4928.8	
758.14	3986	
758.32	3665.9	
758.5	4619.5	
758.67	5232.6	
758.85	3784.6	
759.03	3919.8	
759.21	5326.1	
759.39	4887.1	
759.57	3517	
759.75	4383.3	
759.92	5906.3	
760.1	5386.2	
760.28	4573.8	
760.46	4894	
760.64	5190.2	
760.82	5001.8	
760.99	4616.1	
761.17	4042.7	
761.35	5832.6	
761.53	5053.7	
761.71	4078.9	
761.89	4593.6	
762.06	5732.9	
762.24	5376.6	
762.42	4194.2	
762.6	4020.2	
762.78	5318.6	
762.96	5812.8	
763.13	4463.2	
763.31	4194.2	
763.49	5875.6	
763.67	5381.4	
763.85	4868	
764.02	5236.7	
764.2	6207.4	
764.38	5567.1	
764.56	4115.1	
764.74	4737	
764.91	6201.2	
765.09	5349.3	
765.27	3997	
765.45	3697.9	
765.63	6287.9	
765.8	6139.8	
765.98	3530.7	
766.16	3806.5	
766.34	5055.1	
766.52	4891.9	
766.69	4461.8	
766.87	3646.1	
767.05	5449.6	
767.23	5934.3	
767.41	3823.6	
767.58	4031.1	
767.76	5765.7	
767.94	5867.4	
768.12	3862.5	
768.29	4442	
768.47	5394.3	
768.65	5962.3	
768.83	3628.3	
769	4441.4	
769.18	5018.2	
769.36	5556.8	
769.54	4433.2	
769.72	3648.1	
769.89	5780.7	
770.07	5831.2	
770.25	3854.3	
770.43	4828.4	
770.6	6334.4	
770.78	6535.1	
770.96	4006.5	
771.14	4498.7	
771.31	5651.7	
771.49	5240.8	
771.67	3376.4	
771.85	3522.5	
772.02	4625.7	
772.2	5127.4	
772.38	4096.6	
772.55	3680.2	
772.73	5421.7	
772.91	5180.7	
773.09	3961.5	
773.26	4092.5	
773.44	5337.7	
773.62	5115.1	
773.8	3631.7	
773.97	3385.3	
774.15	5424.4	
774.33	5098.1	
774.5	3549.8	
774.68	3744.4	
774.86	5453.1	
775.04	5090.6	
775.21	3635.1	
775.39	3571	
775.57	5272.8	
775.74	5582.8	
775.92	3383.2	
776.1	3317.7	
776.27	5284.4	
776.45	6208.8	
776.63	3547.1	
776.81	3281.5	
776.98	4947.2	
777.16	5793.7	
777.34	3634.5	
777.51	3880.2	
777.69	4992.9	
777.87	4839.4	
778.04	3709.6	
778.22	4137.6	
778.4	4835.9	
778.57	5339.7	
778.75	3138.9	
778.93	3416	
779.1	4657.8	
779.28	4564.9	
779.46	3140.2	
779.64	3412.6	
779.81	5443.5	
779.99	6059.3	
780.17	4071.4	
780.34	4180.6	
780.52	5049.6	
780.69	5157.5	
780.87	3715.7	
781.05	3396.2	
781.22	5068.7	
781.4	5113.8	
781.58	3445.4	
781.75	2884.9	
781.93	5100.8	
782.11	4573.1	
782.28	4134.2	
782.46	3459	
782.64	4481.6	
782.81	5199.1	
782.99	3525.9	
783.17	3476.8	
783.34	5055.1	
783.52	4539.7	
783.69	3594.2	
783.87	4218.1	
784.05	4603.8	
784.22	4564.9	
784.4	4255	
784.58	3739.6	
784.75	5328.8	
784.93	4644.8	
785.1	3450.8	
785.28	3921.9	
785.46	5119.9	
785.63	4530.8	
785.81	3484.3	
785.99	3292.5	
786.16	4716.5	
786.34	4970.4	
786.51	3339.6	
786.69	3644.7	
786.87	4385.4	
787.04	4786.1	
787.22	3244	
787.39	3957.4	
787.57	4582.7	
787.75	5369.1	
787.92	4145.1	
788.1	4034.5	
788.27	4580.6	
788.45	4339	
788.63	3781.9	
788.8	2852.8	
788.98	4916.5	
789.15	4292.5	
789.33	2951.1	
789.5	3407.1	
789.68	5279	
789.86	5329.5	
790.03	3767.6	
790.21	3302	
790.38	5237.3	
790.56	4679.6	
790.73	3250.8	
790.91	3185.3	
791.09	4547.9	
791.26	5128.1	
791.44	3428.3	
791.61	2971.6	
791.79	4549.2	
791.96	4553.3	
792.14	3095.2	
792.32	2754.5	
792.49	4524	
792.67	4668.7	
792.84	3153.9	
793.02	2936.1	
793.19	5010.7	
793.37	5449	
793.54	2778.4	
793.72	3000.3	
793.89	5449.6	
794.07	4541.7	
794.25	3376.4	
794.42	2857.6	
794.6	5296.7	
794.77	5051.7	
794.95	3646.1	
795.12	3248.8	
795.3	4589.5	
795.47	4989.5	
795.65	3555.3	
795.82	3406.5	
796	4401.1	
796.17	5788.9	
796.35	3344.3	
796.52	3885.7	
796.7	4962.2	
796.87	5038.7	
797.05	3278.8	
797.22	3976.5	
797.4	5080.3	
797.57	5726.1	
797.75	3449.5	
797.92	3217.4	
798.1	5238.7	
798.27	4415.4	
798.45	2861	
798.62	3020.1	
798.8	4760.2	
798.97	5169.8	
799.15	3614.7	
799.32	3448.8	
799.5	4203.1	
799.67	4749.9	
799.85	3719.8	
800.02	2833	
800.2	4559.5	
800.37	4729.4	
800.55	3734.1	
800.72	3230.3	
800.9	5091.9	
801.07	5447.6	
801.25	4251.6	
801.42	3534.1	
801.6	5178.6	
801.77	4782	
801.95	3340.2	
802.12	3190.1	
802.29	4922	
802.47	4833.9	
802.64	3544.4	
802.82	2777	
802.99	4490.5	
803.17	5174.5	
803.34	3409.9	
803.52	3130	
803.69	5707	
803.87	4311	
804.04	3419.4	
804.21	3469.9	
804.39	5354.8	
804.56	4640	
804.74	2910.8	
804.91	3546.4	
805.09	4519.9	
805.26	4571.1	
805.44	3012.6	
805.61	3250.1	
805.78	5042.8	
805.96	4930.8	
806.13	3530.7	
806.31	3662.5	
806.48	4087.7	
806.66	4464.6	
806.83	3512.9	
807	3396.2	
807.18	4510.3	
807.35	4757.4	
807.53	3410.6	
807.7	2852.1	
807.87	5369.8	
808.05	4464.6	
808.22	3721.2	
808.4	2852.1	
808.57	4508.9	
808.74	4203.1	
808.92	3146.4	
809.09	3924.6	
809.27	4484.4	
809.44	4881	
809.61	2829.6	
809.79	3071.3	
809.96	5489.2	
810.14	5008	
810.31	2742.2	
810.48	3282.2	
810.66	4527.4	
810.83	5085.8	
811.01	3151.1	
811.18	3500	
811.35	5068.7	
811.53	3965.6	
811.7	3700.7	
811.87	3502.7	
812.05	4551.3	
812.22	4431.8	
812.39	3046	
812.57	3022.8	
812.74	4537.6	
812.92	5664	
813.09	3354.6	
813.26	3529.3	
813.44	5571.8	
813.61	4388.8	
813.78	2842.6	
813.96	3633.1	
814.13	4540.3	
814.3	4286.4	
814.48	3901.4	
814.65	3306.8	
814.82	5444.2	
815	4326	
815.17	3371.6	
815.34	4044.7	
815.52	4457.1	
815.69	4446.8	
815.87	3314.3	
816.04	3280.8	
816.21	4504.8	
816.38	4035.2	
816.56	3246	
816.73	3087	
816.9	5601.9	
817.08	5031.2	
817.25	3119.7	
817.42	3762.8	
817.6	4156.7	
817.77	4468	
817.94	3468.6	
818.12	3052.8	
818.29	4292.5	
818.46	6257.2	
818.64	3176.4	
818.81	2968.2	
818.98	4289.8	
819.16	5879.7	
819.33	3596.9	
819.5	3330	
819.67	4780	
819.85	5302.2	
820.02	3329.3	
820.19	3505.4	
820.37	4704.9	
820.54	4414.1	
820.71	3393.5	
820.88	4140.3	
821.06	4671.4	
821.23	4294.6	
821.4	3435.8	
821.58	3411.9	
821.75	5025.7	
821.92	4629.1	
822.09	2785.2	
822.27	2930.6	
822.44	4538.3	
822.61	4388.1	
822.79	2820.7	
822.96	5132.2	
823.13	4790.9	
823.3	4253.6	
823.48	3226.9	
823.65	2897.9	
823.82	5032.5	
823.99	4201.7	
824.17	4012	
824.34	2998.2	
824.51	5739.1	
824.68	4548.5	
824.86	3103.4	
825.03	3369.6	
825.2	4487.1	
825.37	5204.6	
825.55	3059	
825.72	3272.7	
825.89	5649	
826.06	5377.3	
826.24	3315	
826.41	3269.9	
826.58	5376.6	
826.75	4646.8	
826.92	2710.1	
827.1	2917.7	
827.27	7025.9	
827.44	5640.1	
827.61	3065.8	
827.79	3708.2	
827.96	4394.3	
828.13	4568.3	
828.3	3282.2	
828.47	2791.4	
828.65	4782	
828.82	4752.7	
828.99	4091.2	
829.16	3573.7	
829.34	5060.5	
829.51	4848.9	
829.68	3345.7	
829.85	3396.9	
830.02	5326.1	
830.2	5035.3	
830.37	2626.2	
830.54	3992.2	
830.71	5592.3	
830.88	4549.2	
831.05	2678.1	
831.23	3031.7	
831.4	5489.2	
831.57	5862.7	
831.74	3143.6	
831.91	2770.9	
832.09	4790.2	
832.26	4972.5	
832.43	3192.8	
832.6	3528.7	
832.77	4763.6	
832.94	5316.5	
833.12	2575	
833.29	3198.9	
833.46	4868.7	
833.63	6054.5	
833.8	3449.5	
833.97	3222.1	
834.15	5067.4	
834.32	4858.5	
834.49	3336.8	
834.66	3382.6	
834.83	5099.4	
835	4339	
835.17	3097.9	
835.35	3132	
835.52	4932.9	
835.69	4825	
835.86	3244.7	
836.03	2751.8	
836.2	5005.2	
836.37	4721.3	
836.55	3196.2	
836.72	3028.3	
836.89	4668.7	
837.06	5061.9	
837.23	3242.6	
837.4	3528	
837.57	5657.2	
837.75	6046.3	
837.92	2977.7	
838.09	3138.9	
838.26	4672.8	
838.43	5167.7	
838.6	3338.9	
838.77	3067.9	
838.94	5795.1	
839.11	5661.3	
839.29	3223.5	
839.46	2611.8	
839.63	5040.7	
839.8	4745.1	
839.97	3149.8	
840.14	3106.1	
840.31	4868.7	
840.48	5042.1	
840.65	2625.5	
840.82	3009.8	
841	4922	
841.17	4873.5	
841.34	2892.4	
841.51	2912.2	
841.68	4928.8	
841.85	4729.4	
842.02	3001.6	
842.19	2562	
842.36	4806.6	
842.53	4851	
842.7	2863.7	
842.87	3502	
843.05	6075.6	
843.22	4733.5	
843.39	2800.3	
843.56	3005.1	
843.73	4624.3	
843.9	5038	
844.07	4449.6	
844.24	3699.3	
844.41	6804.7	
844.58	4412.7	
844.75	2766.1	
844.92	3027.6	
845.09	5025.7	
845.26	4941.7	
845.43	2880.1	
845.6	3056.9	
845.77	4982	
845.94	4790.9	
846.12	3174.4	
846.29	3319.1	
846.46	5181.4	
846.63	4927.4	
846.8	2904	
846.97	3332	
847.14	5335	
847.31	5003.9	
847.48	3179.1	
847.65	3594.9	
847.82	5194.3	
847.99	5156.1	
848.16	3771	
848.33	3439.2	
848.5	4660.5	
848.67	5406.6	
848.84	2820.7	
849.01	2973.7	
849.18	4586.1	
849.35	4252.9	
849.52	3526.6	
849.69	2788.7	
849.86	5155.4	
850.03	5308.3	
850.2	2865.1	
850.37	3420.8	
850.54	5193.6	
850.71	4708.3	
850.88	3522.5	
851.05	2862.4	
851.22	4829.8	
851.39	5411.4	
851.56	2738.8	
851.73	3252.2	
851.9	4468	
852.07	5148.6	
852.24	3196.2	
852.41	2895.1	
852.58	4939.7	
852.75	4471.4	
852.92	3137.5	
853.09	2785.2	
853.26	4659.1	
853.43	5268.7	
853.6	2882.2	
853.77	2477.4	
853.94	5396.4	
854.11	4457.1	
854.28	4080.9	
854.44	3119.1	
854.61	5673.6	
854.78	5153.4	
854.95	2858.3	
855.12	3502.7	
855.29	4108.2	
855.46	5507	
855.63	2915.6	
855.8	3929.4	
855.97	4587.4	
856.14	5250.3	
856.31	3888.4	
856.48	3077.4	
856.65	4683	
856.82	4386.1	
856.99	2761.3	
857.16	3071.3	
857.33	5902.2	
857.49	4712.4	
857.66	3050.8	
857.83	3234.4	
858	4761.5	
858.17	4872.1	
858.34	2706.7	
858.51	2898.6	
858.68	5467.4	
858.85	5428.5	
859.02	3277.4	
859.19	3430.3	
859.36	4461.2	
859.52	4437.9	
859.69	2874.7	
859.86	3323.2	
860.03	4474.8	
860.2	5406	
860.37	2656.9	
860.54	2887.6	
860.71	5162.2	
860.88	5414.1	
861.05	3199.6	
861.21	3580.5	
861.38	5468.1	
861.55	4293.9	
861.72	2650.8	
861.89	3211.9	
862.06	5218.9	
862.23	5504.3	
862.4	2785.9	
862.56	2960	
862.73	5065.3	
862.9	4790.2	
863.07	3292.5	
863.24	2630.3	
863.41	4327.4	
863.58	4453.6	
863.75	2914.3	
863.91	3300.6	
864.08	5317.2	
864.25	5124	
864.42	3525.9	
864.59	3860.4	
864.76	5602.6	
864.93	4443.4	
865.09	2788	
865.26	3030.3	
865.43	5332.2	
865.6	5693.4	
865.77	2513.5	
865.94	2826.2	
866.1	5319.3	
866.27	5137.7	
866.44	4146.5	
866.61	2736.1	
866.78	4780	
866.95	5150.6	
867.11	2809.8	
867.28	2545.6	
867.45	5314.5	
867.62	4429.8	
867.79	3272.7	
867.96	2805	
868.12	4395.6	
868.29	5171.1	
868.46	2894.5	
868.63	3691.8	
868.8	5272.2	
868.97	5119.2	
869.13	2966.8	
869.3	2968.9	
869.47	4949.9	
869.64	5190.2	
869.81	2882.9	
869.97	2861	
870.14	4944.5	
870.31	5435.3	
870.48	2787.3	
870.65	3534.8	
870.81	4704.2	
870.98	4696	
871.15	3235.8	
871.32	2971.6	
871.48	4993.6	
871.65	5496.7	
871.82	2822.8	
871.99	3084.9	
872.16	5811.5	
872.32	5282.4	
872.49	2931.3	
872.66	2905.4	
872.83	5139	
872.99	4560.1	
873.16	3238.5	
873.33	2809.1	
873.5	4771.8	
873.67	4934.2	
873.83	2999.6	
874	3760.1	
874.17	4958.1	
874.34	5659.2	
874.5	3639.2	
874.67	3489.1	
874.84	5346.6	
875.01	4323.3	
875.17	3926.6	
875.34	2865.1	
875.51	4891.9	
875.68	5821	
875.84	3395.5	
876.01	4006.5	
876.18	5111.7	
876.34	5019.6	
876.51	2846.7	
876.68	2839.2	
876.85	4697.4	
877.01	5365.7	
877.18	3985.3	
877.35	2846.7	
877.52	4913.8	
877.68	4408.6	
877.85	2794.1	
878.02	2858.3	
878.18	4731.5	
878.35	4558.1	
878.52	2355.2	
878.69	3106.1	
878.85	5197.1	
879.02	5057.8	
879.19	3997.6	
879.35	3059.7	
879.52	5083.7	
879.69	5171.1	
879.86	2491	
880.02	3166.8	
880.19	4801.1	
880.36	5717.9	
880.52	3213.3	
880.69	3354.6	
880.86	5197.1	
881.02	5208	
881.19	3125.9	
881.36	3086.3	
881.52	5052.3	
881.69	4547.9	
881.86	3053.5	
882.02	2986.6	
882.19	5255.8	
882.36	6027.9	
882.52	2916.3	
882.69	3953.3	
882.86	4896.7	
883.02	4881.7	
883.19	3420.1	
883.36	3214.6	
883.52	5171.8	
883.69	5757.5	
883.86	2867.8	
884.02	2609.1	
884.19	5145.9	
884.36	4851	
884.52	3153.9	
884.69	3024.2	
884.86	4602.5	
885.02	5550	
885.19	3121.1	
885.36	3228.3	
885.52	4777.2	
885.69	4932.9	
885.86	4055	
886.02	3599.6	
886.19	5166.3	
886.35	4641.4	
886.52	3149.8	
886.69	3938.2	
886.85	4467.3	
887.02	5362.3	
887.19	5362.3	
887.35	5362.3	
887.52	5362.3	
887.68	5362.3	
887.85	5362.3	
888.02	5362.3	
888.18	5362.3	
888.35	5362.3	
888.51	5362.3	
888.68	5362.3	
888.85	5362.3	
889.01	5362.3	
889.18	5362.3	
889.35	5362.3	
889.51	5362.3	
889.68	5362.3	
889.84	5362.3	
890.01	5362.3	
890.17	5362.3	
890.34	5362.3	
890.51	5362.3	
890.67	5362.3	
890.84	5362.3	
891	5362.3	
891.17	5362.3	
891.34	5362.3	
891.5	5362.3	
891.67	5362.3	
891.83	5362.3	
892	5362.3	
892.16	5362.3	
892.33	5362.3	
892.5	5362.3	
892.66	5362.3	
892.83	5362.3	
892.99	5362.3	
893.16	5362.3	
893.32	5362.3	
893.49	5362.3	
893.65	5362.3	
893.82	5362.3	
893.99	5362.3	
894.15	5362.3	
894.32	5362.3	
894.48	5362.3	
894.65	5362.3	
894.81	5362.3	
894.98	5362.3	
895.14	5362.3	
895.31	5362.3	
895.47	5362.3	
895.64	5362.3	
895.81	5362.3	
895.97	5362.3	
896.14	5362.3	
896.3	5362.3	
896.47	5362.3	
896.63	5362.3	
896.8	5362.3	
896.96	5362.3	
897.13	5362.3	
897.29	5362.3	
897.46	5362.3	
897.62	5362.3	
897.79	5362.3	
897.95	5362.3	
898.12	5362.3	
898.28	5362.3	
898.45	5362.3	
898.61	5362.3	
898.78	5362.3	
898.94	5362.3	
899.11	5362.3	
899.27	5362.3	
899.44	5362.3	
899.6	5362.3	
899.77	5362.3	
899.93	5362.3	
900.1	5362.3	
900.26	5362.3	
900.43	5362.3	
900.59	5362.3	
900.76	5362.3	
900.92	5362.3	
901.09	5362.3	
901.25	5362.3	
901.42	5362.3	
901.58	5362.3	
901.75	5362.3	
901.91	5362.3	
902.07	5362.3	
902.24	5362.3	
902.4	5362.3	
902.57	5362.3	
902.73	5362.3	
902.9	5362.3	
903.06	5362.3	
903.23	5362.3	
903.39	5362.3	
903.56	5362.3	
903.72	5362.3	
903.88	5362.3	
904.05	5362.3	
904.21	5362.3	
904.38	5362.3	
904.54	5362.3	
904.71	5362.3	
904.87	5362.3	
905.03	5362.3	
905.2	5362.3	
905.36	5362.3	
905.53	5362.3	
905.69	5362.3	
905.86	5362.3	
906.02	5362.3	
906.18	5362.3	
906.35	5362.3	
906.51	5362.3	
906.68	5362.3	
906.84	5362.3	
907.01	5362.3	
907.17	5362.3	
907.33	5362.3	
907.5	5362.3	
907.66	5362.3	
907.83	5362.3	
907.99	5362.3	
908.15	5362.3	
908.32	5362.3	
908.48	5362.3	
908.65	5362.3	
908.81	5362.3	
908.97	5362.3	
909.14	5362.3	
909.3	5362.3	
909.47	5362.3	
909.63	5362.3	
909.79	5362.3	
909.96	5362.3	
910.12	5362.3	
910.28	5362.3	
910.45	5362.3	
910.61	5362.3	
910.78	5362.3	
910.94	5362.3	
911.1	5362.3	
911.27	5362.3	
911.43	5362.3	
911.59	5362.3	
911.76	5362.3	
911.92	5362.3	
912.08	5362.3	
912.25	5362.3	
912.41	5362.3	
912.57	5362.3	
912.74	5362.3	
912.9	5362.3	
913.07	5362.3	
913.23	5362.3	
913.39	5362.3	
913.56	5362.3	
913.72	5362.3	
913.88	5362.3	
914.05	5362.3	
914.21	5362.3	
914.37	5362.3	
914.54	5362.3	
914.7	5362.3	
914.86	5362.3	
915.03	5362.3	
915.19	5362.3	
