Wavelength	Intensities	
nm	a.u.	
179.22	1445	
179.44	1440.7	
179.65	1449.3	
179.86	1432.2	
180.08	1414.5	
180.29	3037.8	
180.51	2514.9	
180.72	4342.4	
180.94	4608.6	
181.15	2218.6	
181.37	2245.9	
181.58	4059.8	
181.79	4110.3	
182.01	2296.5	
182.22	2334.7	
182.44	4258.4	
182.65	3806.5	
182.87	2826.9	
183.08	2525.1	
183.29	4490.5	
183.51	3821.5	
183.72	2404.3	
183.94	3029.6	
184.15	4037.9	
184.37	3952.6	
184.58	2188.6	
184.79	2607.7	
185.01	3867.2	
185.22	4444.1	
185.44	2659.6	
185.65	2507.4	
185.86	4184.7	
186.08	3861.1	
186.29	2113.5	
186.51	2257.5	
186.72	3947.1	
186.94	4355.3	
187.15	2556.5	
187.36	2587.3	
187.58	5100.8	
187.79	4144.4	
188.01	2521.7	
188.22	3603.1	
188.43	4679.6	
188.65	4271.4	
188.86	2327.2	
189.08	2607.7	
189.29	3949.2	
189.5	3874.8	
189.72	2323.8	
189.93	2435	
190.15	4321.9	
190.36	4833.2	
190.57	2528.6	
190.79	2454.1	
191	4333.5	
191.22	4312.3	
191.43	2571.6	
191.64	2291.7	
191.86	4495.3	
192.07	4319.8	
192.29	2301.9	
192.5	2369.5	
192.71	4388.1	
192.93	3981.3	
193.14	2332.6	
193.35	2379.7	
193.57	3910.3	
193.78	4375.1	
194	2042.5	
194.21	2323.8	
194.42	3715	
194.64	4093.2	
194.85	2471.9	
195.07	2860.3	
195.28	4055.7	
195.49	3741	
195.71	2904	
195.92	2248.7	
196.13	4240	
196.35	4136.2	
196.56	3026.9	
196.78	2514.2	
196.99	4879.6	
197.2	4491.9	
197.42	2698.5	
197.63	2542.9	
197.84	3766.2	
198.06	4175.1	
198.27	2354.5	
198.48	2942.9	
198.7	3969	
198.91	4176.5	
199.13	2553.1	
199.34	2490.3	
199.55	4422.9	
199.77	3545.7	
199.98	2351.8	
200.19	2575	
200.41	4166.9	
200.62	3821.5	
200.83	2497.2	
201.05	2747.7	
201.26	4127.3	
201.47	3958.7	
201.69	2316.3	
201.9	2306	
202.11	4158.1	
202.33	4573.8	
202.54	2424.8	
202.76	2629.6	
202.97	4050.9	
203.18	4197.7	
203.4	2646	
203.61	2713.6	
203.82	4147.1	
204.04	3816	
204.25	2585.9	
204.46	2495.8	
204.68	4104.1	
204.89	4125.3	
205.1	2422.1	
205.32	2237.7	
205.53	4224.3	
205.74	4342.4	
205.96	2051.4	
206.17	2527.9	
206.38	4201.7	
206.6	4276.8	
206.81	2766.1	
207.02	2405.7	
207.24	4166.9	
207.45	4393.6	
207.66	2480.8	
207.88	2220	
208.09	4136.9	
208.3	4061.8	
208.52	2315.6	
208.73	2483.5	
208.94	4066.6	
209.15	4406.5	
209.37	2446.6	
209.58	2518.3	
209.79	4271.4	
210.01	4002.4	
210.22	2166.8	
210.43	2207	
210.65	3997.6	
210.86	4173.8	
211.07	2400.2	
211.29	2286.2	
211.5	4114.4	
211.71	4055.7	
211.93	2329.9	
212.14	2333.3	
212.35	4044.1	
212.56	3990.8	
212.78	2573.6	
212.99	2165.4	
213.2	4507.6	
213.42	4007.2	
213.63	2387.9	
213.84	2400.9	
214.06	3818.8	
214.27	3796.3	
214.48	2416.6	
214.69	2592.7	
214.91	4470	
215.12	4362.2	
215.33	2571.6	
215.55	2674.6	
215.76	4695.3	
215.97	4202.4	
216.18	2467.1	
216.4	2504.7	
216.61	3892.5	
216.82	4253.6	
217.04	2343.6	
217.25	2383.8	
217.46	4363.5	
217.67	4252.9	
217.89	2179	
218.1	2199.5	
218.31	4020.8	
218.53	4147.1	
218.74	2461.7	
218.95	2301.9	
219.16	4081.6	
219.38	4545.8	
219.59	2347.7	
219.8	2616.6	
220.01	4676.9	
220.23	4093.9	
220.44	2814.6	
220.65	2266.4	
220.87	4203.8	
221.08	4382.7	
221.29	2251.4	
221.5	2699.9	
221.72	4900.1	
221.93	3820.8	
222.14	2512.2	
222.35	2894.5	
222.57	4020.8	
222.78	4284.4	
222.99	2508.1	
223.2	2563.4	
223.42	4125.3	
223.63	4209.9	
223.84	2030.9	
224.05	2035.7	
224.27	4564.9	
224.48	4459.1	
224.69	2934.7	
224.9	2539.5	
225.12	4184.7	
225.33	4022.9	
225.54	2159.2	
225.75	2339.5	
225.97	3971	
226.18	4047.5	
226.39	2428.2	
226.6	2338.1	
226.82	3969	
227.03	3836.5	
227.24	2489.6	
227.45	2252.1	
227.67	4379.9	
227.88	4380.6	
228.09	2807.1	
228.3	2759.3	
228.52	4204.5	
228.73	4021.5	
228.94	2390	
229.15	2199.5	
229.36	4094.6	
229.58	4146.5	
229.79	2464.4	
230	2689	
230.21	4732.9	
230.43	4073.4	
230.64	2526.5	
230.85	2619.4	
231.06	4336.9	
231.28	4308.2	
231.49	2212.5	
231.7	2534.7	
231.91	4300.1	
232.12	4058.4	
232.34	2329.2	
232.55	2402.3	
232.76	4371	
232.97	4104.8	
233.18	2323.8	
233.4	2532	
233.61	4070.7	
233.82	3889.8	
234.03	2432.3	
234.25	2424.1	
234.46	4990.9	
234.67	4091.2	
234.88	2600.2	
235.09	2375	
235.31	4058.4	
235.52	4013.3	
235.73	2523.1	
235.94	2241.8	
236.15	3938.2	
236.37	4590.2	
236.58	2289.6	
236.79	2420	
237	4191.5	
237.21	3808.5	
237.43	2587.3	
237.64	2199.5	
237.85	5867.4	
238.06	3836.5	
238.27	2546.3	
238.48	2248.7	
238.7	4310.3	
238.91	4046.8	
239.12	2426.8	
239.33	2617.3	
239.54	3839.9	
239.76	3940.3	
239.97	2433.7	
240.18	2469.2	
240.39	4525.3	
240.6	4158.1	
240.82	2624.8	
241.03	2257.5	
241.24	4015.4	
241.45	4451.6	
241.66	2321.7	
241.87	2635.7	
242.09	4487.8	
242.3	4547.2	
242.51	2609.8	
242.72	2424.8	
242.93	4265.9	
243.14	3925.3	
243.36	2760	
243.57	2955.2	
243.78	4454.3	
243.99	4123.9	
244.2	2446	
244.41	2252.8	
244.63	3738.2	
244.84	4140.3	
245.05	2553.1	
245.26	2472.6	
245.47	4246.8	
245.68	4283.7	
245.9	2981.8	
246.11	2560	
246.32	3910.9	
246.53	4212.7	
246.74	3572.3	
246.95	2162.7	
247.16	3990.1	
247.38	4085	
247.59	2273.9	
247.8	2512.2	
248.01	3667.9	
248.22	4063.9	
248.43	2314.2	
248.64	2471.9	
248.86	3844	
249.07	3943	
249.28	2347.7	
249.49	2516.3	
249.7	4260.5	
249.91	4256.4	
250.12	2223.4	
250.34	2242.5	
250.55	4166.9	
250.76	4037.9	
250.97	2503.3	
251.18	2528.6	
251.39	4302.8	
251.6	4149.9	
251.81	2543.6	
252.03	2571.6	
252.24	3883.6	
252.45	4226.3	
252.66	2270.5	
252.87	2668.5	
253.08	4050.9	
253.29	4827.1	
253.5	2280.8	
253.72	2873.3	
253.93	4040.6	
254.14	4509.6	
254.35	2367.5	
254.56	2409.1	
254.77	4141.7	
254.98	3877.5	
255.19	2407	
255.41	2778.4	
255.62	4177.2	
255.83	4301.4	
256.04	2579.8	
256.25	2474.6	
256.46	4672.8	
256.67	3863.8	
256.88	2514.9	
257.09	2714.2	
257.31	3728.7	
257.52	3837.2	
257.73	3016	
257.94	2415.2	
258.15	4106.9	
258.36	3997.6	
258.57	2765.4	
258.78	2011.1	
258.99	4311	
259.2	3951.9	
259.41	2317.6	
259.63	2443.2	
259.84	4473.4	
260.05	4558.8	
260.26	2802.3	
260.47	2348.3	
260.68	4348.5	
260.89	3927.3	
261.1	2728.6	
261.31	2361.3	
261.52	4468.7	
261.73	4444.1	
261.95	2940.9	
262.16	2560	
262.37	4313	
262.58	4418.2	
262.79	2879.4	
263	2373.6	
263.21	4036.5	
263.42	3867.9	
263.63	2545.6	
263.84	2413.9	
264.05	4254.3	
264.26	4465.9	
264.47	2807.8	
264.69	2576.3	
264.9	4567.7	
265.11	3972.4	
265.32	2295.1	
265.53	2334	
265.74	4098.7	
265.95	3716.4	
266.16	2444.6	
266.37	2598.2	
266.58	4188.1	
266.79	3959.4	
267	2368.1	
267.21	2242.5	
267.42	3846.8	
267.63	4035.2	
267.84	2452.1	
268.06	2239.8	
268.27	4254.3	
268.48	4324.6	
268.69	2428.9	
268.9	2671.9	
269.11	4148.5	
269.32	3723.9	
269.53	2483.5	
269.74	2325.8	
269.95	4119.1	
270.16	3773	
270.37	2500.6	
270.58	2790	
270.79	4015.4	
271	4322.6	
271.21	2556.5	
271.42	2487.6	
271.63	4237.2	
271.84	3711.6	
272.05	2124.4	
272.26	2253.4	
272.47	4048.8	
272.68	4110.3	
272.89	2405	
273.11	2618.7	
273.32	3888.4	
273.53	4424.3	
273.74	2596.1	
273.95	2599.6	
274.16	4119.1	
274.37	4033.1	
274.58	2734	
274.79	2294.4	
275	4141	
275.21	4280.3	
275.42	3018	
275.63	2674.6	
275.84	4218.8	
276.05	4872.8	
276.26	2544.3	
276.47	2443.2	
276.68	4102.8	
276.89	4566.3	
277.1	2680.8	
277.31	2220.7	
277.52	4157.4	
277.73	4439.3	
277.94	2196.8	
278.15	2357.2	
278.36	4205.2	
278.57	3916.4	
278.78	2398.2	
278.99	2613.2	
279.2	3974.4	
279.41	3902.1	
279.62	2989.4	
279.83	2304.6	
280.04	4646.2	
280.25	3852.2	
280.46	2947.7	
280.67	2434.4	
280.88	3897.3	
281.09	4375.1	
281.3	2546.3	
281.51	2986.6	
281.72	3905.5	
281.93	4121.2	
282.14	2399.5	
282.35	2572.9	
282.56	4402.5	
282.77	4205.2	
282.98	2442.5	
283.19	2755.2	
283.4	4870.8	
283.61	4021.5	
283.82	2341.5	
284.03	2868.5	
284.24	4242.7	
284.45	4232.5	
284.66	2953.9	
284.87	2712.2	
285.08	4351.3	
285.29	4435.9	
285.5	2267.8	
285.71	2381.1	
285.92	4268.6	
286.12	4602.5	
286.33	2911.5	
286.54	2459.6	
286.75	4283.7	
286.96	4047.5	
287.17	2339.5	
287.38	2734	
287.59	3997	
287.8	4046.1	
288.01	2410.5	
288.22	2628.2	
288.43	4074.8	
288.64	3708.2	
288.85	2754.5	
289.06	2654.2	
289.27	4269.3	
289.48	4402.5	
289.69	2917	
289.9	2697.2	
290.11	4416.1	
290.32	4001.7	
290.53	2774.3	
290.74	2545.6	
290.94	4244.8	
291.15	4343.1	
291.36	2351.1	
291.57	2624.1	
291.78	4072	
291.99	3728.7	
292.2	2362.7	
292.41	2581.1	
292.62	4335.5	
292.83	4202.4	
293.04	3022.8	
293.25	2401.6	
293.46	3977.8	
293.67	4277.5	
293.88	2314.9	
294.09	2295.8	
294.29	3970.3	
294.5	4108.9	
294.71	2499.2	
294.92	2347.7	
295.13	3978.5	
295.34	4633.9	
295.55	2224.1	
295.76	2218.6	
295.97	4265.9	
296.18	4552	
296.39	2269.1	
296.6	2320.3	
296.81	3987.4	
297.01	4257.7	
297.22	2420	
297.43	2362	
297.64	4065.9	
297.85	3848.8	
298.06	2063.7	
298.27	2267.8	
298.48	3994.9	
298.69	3908.9	
298.9	2510.8	
299.11	2332.6	
299.31	3923.9	
299.52	3883.6	
299.73	2628.9	
299.94	2607.1	
300.15	4135.5	
300.36	3949.8	
300.57	2562.7	
300.78	2595.5	
300.99	3973.7	
301.2	4062.5	
301.4	2422.1	
301.61	2494.4	
301.82	4134.2	
302.03	4214.7	
302.24	2685.6	
302.45	2306.7	
302.66	4221.5	
302.87	4186.7	
303.08	2347.7	
303.29	2935.4	
303.49	4014	
303.7	3910.9	
303.91	2254.8	
304.12	2858.3	
304.33	3674.1	
304.54	4171.7	
304.75	2356.5	
304.96	2353.8	
305.16	4201.1	
305.37	4483.7	
305.58	2201.6	
305.79	2111.5	
306	4218.8	
306.21	3750.5	
306.42	2338.8	
306.63	3188	
306.83	3973.7	
307.04	4126	
307.25	2542.2	
307.46	2477.4	
307.67	3707.5	
307.88	4146.5	
308.09	2430.9	
308.29	2353.1	
308.5	4102.8	
308.71	4263.9	
308.92	2481.5	
309.13	2242.5	
309.34	4129.4	
309.55	4009.9	
309.75	2826.9	
309.96	2621.4	
310.17	4231.1	
310.38	3861.8	
310.59	2607.7	
310.8	2585.2	
311.01	4410.6	
311.21	4061.8	
311.42	2345.6	
311.63	2386.6	
311.84	4024.9	
312.05	4059.8	
312.26	2618	
312.46	2721.1	
312.67	4009.2	
312.88	3704.8	
313.09	2248.7	
313.3	2323.8	
313.51	4402.5	
313.71	4583.4	
313.92	2351.8	
314.13	2427.5	
314.34	4197.7	
314.55	4106.9	
314.76	2695.8	
314.96	2513.5	
315.17	4254.3	
315.38	4014.7	
315.59	2319.7	
315.8	2262.3	
316.01	4369	
316.21	4372.4	
316.42	2319	
316.63	2497.2	
316.84	3976.5	
317.05	4294.6	
317.26	2670.6	
317.46	2418	
317.67	4088.4	
317.88	4181.3	
318.09	2742.2	
318.3	2240.5	
318.5	3991.5	
318.71	4120.5	
318.92	3269.9	
319.13	2596.1	
319.34	4285	
319.54	4362.2	
319.75	2205.7	
319.96	2155.1	
320.17	4102.1	
320.38	4273.4	
320.58	2198.2	
320.79	2488.3	
321	4326	
321.21	4434.5	
321.42	2538.8	
321.62	2215.2	
321.83	3953.9	
322.04	4079.6	
322.25	2468.5	
322.46	2304.6	
322.66	4093.9	
322.87	4225.6	
323.08	2654.9	
323.29	2215.2	
323.5	4627.7	
323.7	3839.3	
323.91	2883.5	
324.12	2634.4	
324.33	4211.3	
324.53	4233.8	
324.74	2600.2	
324.95	2675.3	
325.16	3848.8	
325.37	3967.6	
325.57	2313.5	
325.78	2370.2	
325.99	4192.9	
326.2	3786.7	
326.4	3009.8	
326.61	2233.7	
326.82	4007.2	
327.03	4055.7	
327.24	2985.9	
327.44	2814.6	
327.65	4216.8	
327.86	3669.3	
328.07	2613.9	
328.27	2281.4	
328.48	4438.6	
328.69	3792.8	
328.9	2963.4	
329.1	2365.4	
329.31	4029.7	
329.52	4392.9	
329.73	2382.5	
329.93	2425.5	
330.14	4172.4	
330.35	4117.1	
330.56	3312.2	
330.76	2725.8	
330.97	3932.8	
331.18	4039.3	
331.39	2501.9	
331.59	2168.8	
331.8	4306.9	
332.01	4382.7	
332.22	2366.8	
332.42	2508.8	
332.63	4093.9	
332.84	3814.7	
333.05	2513.5	
333.25	2381.1	
333.46	3819.5	
333.67	4058.4	
333.88	2444.6	
334.08	2512.9	
334.29	4876.2	
334.5	4246.1	
334.7	2299.2	
334.91	2927.9	
335.12	3770.3	
335.33	4176.5	
335.53	2551.1	
335.74	3205.1	
335.95	4083.6	
336.16	3682.9	
336.36	2506	
336.57	2755.9	
336.78	3592.1	
336.98	4292.5	
337.19	2924.5	
337.4	2469.2	
337.61	4679.6	
337.81	3794.9	
338.02	2403	
338.23	2743.6	
338.43	4429.8	
338.64	3928	
338.85	2318.3	
339.05	2880.1	
339.26	4542.4	
339.47	3715	
339.68	2325.8	
339.88	3019.4	
340.09	4275.5	
340.3	4355.3	
340.5	2568.2	
340.71	2180.4	
340.92	3847.5	
341.13	4347.8	
341.33	2202.2	
341.54	2546.3	
341.75	4202.4	
341.95	3899.3	
342.16	2517.6	
342.37	2628.2	
342.57	3820.8	
342.78	3936.2	
342.99	2712.2	
343.19	2177	
343.4	4229.7	
343.61	4135.5	
343.81	2499.9	
344.02	2252.8	
344.23	4240.7	
344.43	4379.9	
344.64	2719	
344.85	2667.1	
345.06	4214	
345.26	4302.8	
345.47	2675.3	
345.68	2869.2	
345.88	3842	
346.09	4289.8	
346.3	2624.8	
346.5	2119	
346.71	3971	
346.92	3930.1	
347.12	2329.2	
347.33	2601.6	
347.54	4258.4	
347.74	4416.1	
347.95	2573.6	
348.16	2098.5	
348.36	3908.9	
348.57	3846.8	
348.78	2749.7	
348.98	2684.2	
349.19	4022.9	
349.39	3702.7	
349.6	2258.2	
349.81	2366.8	
350.01	4287.8	
350.22	3894.6	
350.43	2601.6	
350.63	2820.1	
350.84	3949.8	
351.05	3846.8	
351.25	2340.8	
351.46	2227.5	
351.67	4205.2	
351.87	3851.5	
352.08	2507.4	
352.29	2704	
352.49	4272.1	
352.7	4276.2	
352.9	2306.7	
353.11	2699.2	
353.32	4534.2	
353.52	3941	
353.73	2375.6	
353.94	2762	
354.14	4209.3	
354.35	3917.8	
354.55	2381.8	
354.76	2595.5	
354.97	4233.8	
355.17	3998.3	
355.38	2375.6	
355.59	2912.2	
355.79	3885.7	
356	4136.2	
356.2	2591.4	
356.41	2421.4	
356.62	3921.2	
356.82	4077.5	
357.03	2754.5	
357.24	2512.9	
357.44	3931.4	
357.65	3999.7	
357.85	3024.2	
358.06	2661	
358.27	3778.5	
358.47	3805.1	
358.68	2347	
358.88	2721.8	
359.09	4240.7	
359.3	4296	
359.5	2998.9	
359.71	2772.3	
359.91	4397	
360.12	4149.2	
360.33	2833.7	
360.53	2980.5	
360.74	4018.8	
360.94	4019.5	
361.15	2802.3	
361.36	2499.2	
361.56	4418.8	
361.77	4214	
361.97	3054.2	
362.18	2581.1	
362.38	4418.2	
362.59	4001	
362.8	2462.3	
363	2428.2	
363.21	3882.3	
363.41	4087.7	
363.62	2736.1	
363.83	3044.6	
364.03	4403.1	
364.24	4485.1	
364.44	3263.1	
364.65	3201.7	
364.85	4141.7	
365.06	4025.6	
365.27	2619.4	
365.47	2674	
365.68	4487.1	
365.88	4188.8	
366.09	2800.3	
366.29	2566.8	
366.5	4084.3	
366.71	4371.7	
366.91	3202.3	
367.12	2884.9	
367.32	4782	
367.53	4264.6	
367.73	2926.5	
367.94	3296.5	
368.14	4435.2	
368.35	4384	
368.56	2820.1	
368.76	2525.1	
368.97	4269.3	
369.17	4989.5	
369.38	2580.4	
369.58	2738.1	
369.79	3882.3	
369.99	4605.2	
370.2	3203.7	
370.4	2785.2	
370.61	4233.8	
370.82	4840.7	
371.02	2768.2	
371.23	2482.8	
371.43	4061.1	
371.64	4646.2	
371.84	2821.4	
372.05	3238.5	
372.25	4988.9	
372.46	4216.8	
372.66	2843.3	
372.87	2785.2	
373.07	4242.7	
373.28	5157.5	
373.48	3205.1	
373.69	3088.3	
373.9	4300.7	
374.1	4214.7	
374.31	3213.9	
374.51	2985.9	
374.72	4563.6	
374.92	4159.4	
375.13	3284.9	
375.33	2913.6	
375.54	4354	
375.74	4264.6	
375.95	3108.8	
376.15	3575.1	
376.36	4560.1	
376.56	4392.2	
376.77	3043.3	
376.97	3207.8	
377.18	5005.2	
377.38	4563.6	
377.59	3266.5	
377.79	2871.9	
378	4445.5	
378.2	4504.2	
378.41	2942.9	
378.61	2811.9	
378.82	4705.5	
379.02	4364.9	
379.23	2988	
379.43	3388.7	
379.64	4891.2	
379.84	4541.7	
380.05	2938.2	
380.25	2878.1	
380.46	4519.2	
380.66	4390.8	
380.87	3415.3	
381.07	3534.1	
381.28	4846.2	
381.48	4567	
381.69	2861.7	
381.89	2946.3	
382.1	4144.4	
382.3	4511	
382.51	3343	
382.71	3693.9	
382.91	4371.7	
383.12	4678.2	
383.32	3065.1	
383.53	3040.6	
383.73	4462.5	
383.94	4429.8	
384.14	3085.6	
384.35	2745	
384.55	4076.8	
384.76	4415.4	
384.96	3027.6	
385.17	3115	
385.37	4462.5	
385.58	4111	
385.78	3105.4	
385.98	2700.6	
386.19	4272.1	
386.39	4497.3	
386.6	2889.7	
386.8	2996.9	
387.01	4478.9	
387.21	4619.5	
387.42	3158.7	
387.62	3392.8	
387.83	4356	
388.03	4232.5	
388.23	3123.8	
388.44	3373	
388.64	4191.5	
388.85	4154.6	
389.05	3162.7	
389.26	3444.7	
389.46	5263.3	
389.67	4866.7	
389.87	3215.3	
390.07	3245.3	
390.28	4373.1	
390.48	4190.1	
390.69	2923.8	
390.89	3074.7	
391.1	4390.8	
391.3	4713.1	
391.5	3593.5	
391.71	3743	
391.91	4700.8	
392.12	4883.7	
392.32	3600.3	
392.53	3263.8	
392.73	4394.9	
392.93	4436.6	
393.14	3121.8	
393.34	3366.2	
393.55	4650.9	
393.75	4397	
393.95	3093.1	
394.16	3061	
394.36	4437.9	
394.57	4665.3	
394.77	2952.5	
394.98	2995.5	
395.18	4308.2	
395.38	4413.4	
395.59	3449.5	
395.79	3054.2	
396	4489.8	
396.2	4655.7	
396.4	3414.6	
396.61	3360.7	
396.81	4660.5	
397.02	4378.6	
397.22	3590.8	
397.42	3525.9	
397.63	4859.8	
397.83	4418.2	
398.04	3026.2	
398.24	3245.3	
398.44	4608.6	
398.65	4145.8	
398.85	3032.4	
399.05	2998.9	
399.26	4561.5	
399.46	5156.8	
399.67	3230.3	
399.87	3186	
400.07	4653.7	
400.28	4772.4	
400.48	3159.3	
400.69	3663.8	
400.89	4774.5	
401.09	5093.3	
401.3	3177.1	
401.5	3616.7	
401.7	5050.3	
401.91	5181.4	
402.11	3390.1	
402.32	3306.1	
402.52	4954.7	
402.72	4767	
402.93	3463.8	
403.13	2972.3	
403.33	5235.3	
403.54	4488.5	
403.74	3202.3	
403.94	3605.1	
404.15	4478.9	
404.35	5080.3	
404.56	3175.7	
404.76	3962.8	
404.96	4890.5	
405.17	4714.4	
405.37	3757.3	
405.57	3478.8	
405.78	4860.5	
405.98	4616.8	
406.18	3304.7	
406.39	3516.4	
406.59	4709.6	
406.79	4543.1	
407	3056.3	
407.2	3069.2	
407.4	5051	
407.61	4910.3	
407.81	3191.4	
408.01	3990.1	
408.22	4255.7	
408.42	5239.4	
408.62	3783.3	
408.83	3579.8	
409.03	4719.9	
409.23	4857.1	
409.44	3582.6	
409.64	3738.9	
409.84	5300.1	
410.05	5229.1	
410.25	3734.8	
410.45	3605.8	
410.66	5155.4	
410.86	6189.6	
411.06	3880.2	
411.27	3764.2	
411.47	6023.1	
411.67	5150	
411.88	3902.7	
412.08	3935.5	
412.28	5423	
412.49	5642.8	
412.69	3812	
412.89	3846.8	
413.09	5596.4	
413.3	5545.9	
413.5	3926	
413.7	3730	
413.91	5097.4	
414.11	5628.5	
414.31	3862.5	
414.52	4018.1	
414.72	5440.8	
414.92	5403.9	
415.12	3803.8	
415.33	4133.5	
415.53	5466	
415.73	5726.8	
415.94	4218.8	
416.14	3873.4	
416.34	5237.3	
416.55	5085.8	
416.75	4458.4	
416.95	4213.4	
417.15	5739.1	
417.36	5932.3	
417.56	4666.6	
417.76	4199	
417.97	5809.4	
418.17	5659.2	
418.37	4184	
418.57	4031.1	
418.78	5788.2	
418.98	5467.4	
419.18	4436.6	
419.38	4343.7	
419.59	5376.6	
419.79	5238.7	
419.99	3942.3	
420.2	4073.4	
420.4	5709.1	
420.6	5621	
420.8	3945.1	
421.01	3913	
421.21	5626.5	
421.41	5562.3	
421.61	4079.6	
421.82	4012.7	
422.02	5511.1	
422.22	5789.6	
422.42	4323.3	
422.63	4107.5	
422.83	5404.6	
423.03	5956.2	
423.23	4171.7	
423.44	3726.6	
423.64	5289.9	
423.84	5240.1	
424.04	3912.3	
424.25	3707.5	
424.45	5814.2	
424.65	5687.2	
424.85	3687.7	
425.06	3955.3	
425.26	5995.1	
425.46	5316.5	
425.66	4158.1	
425.87	3988.1	
426.07	5616.9	
426.27	5453.1	
426.47	3981.9	
426.67	3753.2	
426.88	5906.3	
427.08	5618.9	
427.28	4167.6	
427.48	3659.7	
427.69	5202.5	
427.89	5302.2	
428.09	3979.2	
428.29	3688.4	
428.5	5551.4	
428.7	5511.1	
428.9	3686.3	
429.1	3916.4	
429.3	5500.8	
429.51	5539.8	
429.71	3863.2	
429.91	4246.8	
430.11	5676.3	
430.31	5739.8	
430.52	3980.6	
430.72	4106.9	
430.92	5803.3	
431.12	5563	
431.32	3817.4	
431.53	4019.5	
431.73	5139	
431.93	5795.8	
432.13	3837.2	
432.33	3766.2	
432.54	5438.7	
432.74	5384.1	
432.94	3741.6	
433.14	4252.9	
433.34	5853.1	
433.55	5562.3	
433.75	4144.4	
433.95	4962.2	
434.15	5670.8	
434.35	5403.2	
434.56	3877.5	
434.76	3626.3	
434.96	5545.2	
435.16	5685.2	
435.36	3839.3	
435.56	4287.8	
435.77	5448.3	
435.97	5460.6	
436.17	4601.1	
436.37	4265.2	
436.57	5332.2	
436.78	5382.1	
436.98	5005.2	
437.18	4597.7	
437.38	5509.7	
437.58	5389.6	
437.78	4513	
437.99	3980.6	
438.19	5670.1	
438.39	6277	
438.59	3980.6	
438.79	3701.4	
438.99	5999.9	
439.2	5335.6	
439.4	3700	
439.6	3805.8	
439.8	5358.2	
440	6001.2	
440.2	4384	
440.4	4328	
440.61	5935	
440.81	5995.1	
441.01	3973.7	
441.21	4352.6	
441.41	6049.7	
441.61	5870.8	
441.81	4504.8	
442.02	4852.3	
442.22	6247	
442.42	5966.4	
442.62	3913.7	
442.82	4042	
443.02	6172.6	
443.22	5651.7	
443.43	4228.4	
443.63	3986	
443.83	5651.7	
444.03	5614.8	
444.23	4564.2	
444.43	4328.7	
444.63	5801.2	
444.83	6240.8	
445.04	4162.8	
445.24	4607.9	
445.44	5979.4	
445.64	5905	
445.84	4338.3	
446.04	4409.3	
446.24	5556.8	
446.44	6016.9	
446.65	3904.1	
446.85	4098	
447.05	5708.4	
447.25	5951.4	
447.45	4245.4	
447.65	3970.3	
447.85	5857.2	
448.05	5497.4	
448.25	4361.5	
448.46	4289.1	
448.66	5735	
448.86	5554.1	
449.06	4001	
449.26	4376.5	
449.46	5924.1	
449.66	5502.2	
449.86	4255.7	
450.06	4190.8	
450.26	5593.7	
450.47	5883.8	
450.67	4299.4	
450.87	4458.4	
451.07	6072.2	
451.27	5689.3	
451.47	3963.5	
451.67	4386.7	
451.87	5628.5	
452.07	6230.6	
452.27	4126	
452.47	4108.2	
452.67	5836.7	
452.88	5775.3	
453.08	3788.7	
453.28	4691.2	
453.48	6394.4	
453.68	5639.4	
453.88	4095.3	
454.08	4123.2	
454.28	5988.9	
454.48	5725.4	
454.68	4422.9	
454.88	4641.4	
455.08	6107	
455.28	5815.5	
455.48	4059.8	
455.68	4390.2	
455.89	6274.3	
456.09	6048.3	
456.29	4273.4	
456.49	4386.7	
456.69	6268.8	
456.89	5721.3	
457.09	4530.1	
457.29	4696.7	
457.49	6022.4	
457.69	6072.2	
457.89	4540.3	
458.09	4152.6	
458.29	5907	
458.49	6404.7	
458.69	4639.3	
458.89	4403.8	
459.09	6404	
459.29	6392.4	
459.49	4474.8	
459.69	4759.5	
459.9	6178	
460.1	6004	
460.3	4366.3	
460.5	4204.5	
460.7	6198.5	
460.9	5894.7	
461.1	4149.9	
461.3	4655.7	
461.5	6569.2	
461.7	6290	
461.9	4382.7	
462.1	4595.6	
462.3	6189.6	
462.5	6380.1	
462.7	4550.6	
462.9	4573.1	
463.1	6824.5	
463.3	6759	
463.5	4603.8	
463.7	5026.4	
463.9	6336.4	
464.1	6486.6	
464.3	4734.9	
464.5	4852.3	
464.7	6568.5	
464.9	6446.3	
465.1	5343.8	
465.3	4917.2	
465.5	6653.2	
465.7	6798.6	
465.9	5160.9	
466.1	4917.2	
466.3	6545.3	
466.5	6487.3	
466.7	5537	
466.9	4883.7	
467.1	6802	
467.3	7023.9	
467.5	5455.1	
467.7	4925.4	
467.9	7165.8	
468.1	7559.1	
468.3	5244.2	
468.5	5403.9	
468.7	6546	
468.9	6453.1	
469.1	5067.4	
469.3	5325.4	
469.5	7516	
469.7	6417.7	
469.9	5281	
470.1	4971.8	
470.3	6761.7	
470.5	6570.6	
470.7	5530.2	
470.9	4972.5	
471.1	6463.4	
471.3	6675	
471.5	4929.5	
471.69	5658.5	
471.89	6499.6	
472.09	6186.9	
472.29	5179.3	
472.49	5354.8	
472.69	6319.3	
472.89	6472.3	
473.09	4825	
473.29	4941.1	
473.49	6380.1	
473.69	6229.9	
473.89	5138.4	
474.09	4861.2	
474.29	6997.2	
474.49	6723.5	
474.69	5242.8	
474.89	4952	
475.09	6412.9	
475.29	6316.6	
475.49	4730.1	
475.69	4791.6	
475.88	6987	
476.08	6553.5	
476.28	4671.4	
476.48	4719.9	
476.68	6823.1	
476.88	6495.5	
477.08	4826.4	
477.28	4853.7	
477.48	6474.3	
477.68	6589	
477.88	4707.6	
478.08	4805.9	
478.28	6797.9	
478.48	6346.7	
478.67	4799.8	
478.87	4518.5	
479.07	6630	
479.27	6535.8	
479.47	4895.3	
479.67	4929.5	
479.87	6643.6	
480.07	6862.1	
480.27	4634.6	
480.47	5238	
480.67	6386.9	
480.87	6790.4	
481.06	4780	
481.26	5160.9	
481.46	6545.3	
481.66	6360.3	
481.86	4986.1	
482.06	5257.1	
482.26	6328.9	
482.46	6673	
482.66	4988.9	
482.86	4638.6	
483.05	6761.7	
483.25	6223.8	
483.45	6012.2	
483.65	4861.9	
483.85	6224.5	
484.05	6369.2	
484.25	5193.6	
484.45	5282.4	
484.65	6550.8	
484.84	6823.1	
485.04	4933.6	
485.24	4829.1	
485.44	7055.9	
485.64	6279.8	
485.84	4672.1	
486.04	5177.9	
486.24	6457.9	
486.44	6548	
486.63	4601.8	
486.83	5058.5	
487.03	6457.9	
487.23	6453.8	
487.43	4655	
487.63	5635.3	
487.83	6575.3	
488.02	6394.4	
488.22	5036.6	
488.42	5382.1	
488.62	7006.8	
488.82	6384.2	
489.02	4966.3	
489.22	4985.4	
489.41	6543.9	
489.61	6799.3	
489.81	4805.2	
490.01	4848.2	
490.21	6933.7	
490.41	7160.4	
490.61	4909	
490.8	4790.2	
491	6656.6	
491.2	6291.4	
491.4	5105.6	
491.6	4739	
491.8	6548	
491.99	6455.2	
492.19	4701.5	
492.39	4798.4	
492.59	6745.3	
492.79	6890	
492.99	5255.8	
493.18	4885.8	
493.38	7025.9	
493.58	7286	
493.78	5204.6	
493.98	4958.1	
494.18	6786.3	
494.37	6326.9	
494.57	5297.4	
494.77	5276.9	
494.97	6922.1	
495.17	7075.7	
495.37	5125.4	
495.56	5279	
495.76	7002.7	
495.96	7073	
496.16	5870.2	
496.36	5231.2	
496.55	7163.8	
496.75	6778.8	
496.95	5382.7	
497.15	5414.1	
497.35	7257.3	
497.54	7060	
497.74	5347.2	
497.94	6054.5	
498.14	7548.8	
498.34	7261.4	
498.53	5140.4	
498.73	5566.4	
498.93	6761	
499.13	7067.5	
499.33	5432.6	
499.52	5591.6	
499.72	7325.6	
499.92	7121.5	
500.12	5294	
500.32	5450.3	
500.51	7166.5	
500.71	6979.5	
500.91	5758.9	
501.11	5549.3	
501.31	7157.7	
501.5	7458.7	
501.7	5992.4	
501.9	5433.3	
502.1	7077.1	
502.29	7317.4	
502.49	5679.7	
502.69	5767.8	
502.89	7146	
503.09	7247.8	
503.28	5070.1	
503.48	5186.8	
503.68	6944	
503.88	6700.3	
504.07	5651	
504.27	5365	
504.47	7003.4	
504.67	7021.8	
504.86	5552	
505.06	5371.8	
505.26	6934.4	
505.46	7534.5	
505.65	5355.4	
505.85	5360.9	
506.05	6851.8	
506.25	7053.2	
506.44	4995.7	
506.64	5374.6	
506.84	6679.8	
507.04	7025.9	
507.23	5177.3	
507.43	5216.9	
507.63	7557	
507.83	6543.3	
508.02	5217.5	
508.22	5114.5	
508.42	7647.8	
508.62	6505.7	
508.81	5188.9	
509.01	5459.9	
509.21	6492.1	
509.4	6752.8	
509.6	5287.9	
509.8	5014.1	
510	6698.9	
510.19	7019.1	
510.39	4937	
510.59	5085.8	
510.79	6656.6	
510.98	7271	
511.18	5169.1	
511.38	5102.2	
511.57	7113.3	
511.77	6762.4	
511.97	5417.6	
512.17	4945.2	
512.36	7018.4	
512.56	6815	
512.76	4947.9	
512.95	4833.9	
513.15	7133.8	
513.35	6274.3	
513.55	5405.3	
513.74	4978.6	
513.94	6962.4	
514.14	6703	
514.33	5453.7	
514.53	5242.8	
514.73	6804.7	
514.92	6660	
515.12	5038	
515.32	4961.5	
515.51	6831.3	
515.71	6817.7	
515.91	5881.8	
516.11	5016.8	
516.3	7610.9	
516.5	6706.4	
516.7	5320.6	
516.89	5478.3	
517.09	6644.3	
517.29	6759	
517.48	5526.8	
517.68	5041.4	
517.88	6236.1	
518.07	6829.3	
518.27	5316.5	
518.47	4924.7	
518.66	7160.4	
518.86	6563.7	
519.06	4862.6	
519.25	5086.5	
519.45	6636.8	
519.65	7276.4	
519.84	5420.3	
520.04	5672.2	
520.24	7547.4	
520.43	6940.6	
520.63	5269.4	
520.83	5123.3	
521.02	6629.3	
521.22	6812.9	
521.42	5270.1	
521.61	5513.1	
521.81	6640.9	
522.01	6819.7	
522.2	5375.9	
522.4	5162.9	
522.6	7071.6	
522.79	6440.9	
522.99	5179.3	
523.18	4911	
523.38	6944.7	
523.58	6924.9	
523.77	5752.1	
523.97	4961.5	
524.17	7709.2	
524.36	7477.1	
524.56	5715.2	
524.76	5428.5	
524.95	6845	
525.15	6802	
525.34	5362.3	
525.54	5402.5	
525.74	7155.6	
525.93	6670.9	
526.13	5937.7	
526.33	5357.5	
526.52	7408.9	
526.72	7038.2	
526.91	5907	
527.11	5541.8	
527.31	7191.8	
527.5	7395.2	
527.7	5580.7	
527.89	5173.9	
528.09	6934.4	
528.29	7108.5	
528.48	5847	
528.68	5640.8	
528.87	7397.3	
529.07	7273	
529.27	5588.9	
529.46	5245.5	
529.66	7165.2	
529.85	7292.1	
530.05	5352	
530.25	5551.4	
530.44	7747.5	
530.64	6997.9	
530.83	5444.9	
531.03	5526.8	
531.23	7490.8	
531.42	7191.8	
531.62	5885.9	
531.81	5602.6	
532.01	7351.5	
532.21	7473	
532.4	5554.1	
532.6	5675.6	
532.79	7820.5	
532.99	7426.6	
533.18	5718.6	
533.38	6140.5	
533.58	7344.7	
533.77	7535.2	
533.97	5786.9	
534.16	6006	
534.36	7694.9	
534.55	7186.3	
534.75	6078.4	
534.95	5762.3	
535.14	7615.7	
535.34	7226.6	
535.53	5500.8	
535.73	6370.5	
535.92	8000.7	
536.12	7077.8	
536.31	5504.9	
536.51	6167.1	
536.71	7494.2	
536.9	7210.2	
537.1	5660.6	
537.29	5735.7	
537.49	7706.5	
537.68	7251.9	
537.88	5941.8	
538.07	5472.2	
538.27	7417.1	
538.46	7793.2	
538.66	5552	
538.86	5690.6	
539.05	7437.5	
539.25	7546.8	
539.44	5901.6	
539.64	5649.7	
539.83	7231.4	
540.03	7657.4	
540.22	5530.9	
540.42	5486.5	
540.61	7329.7	
540.81	7378.1	
541	5750.7	
541.2	6066.1	
541.39	7064.1	
541.59	7189.7	
541.78	6005.3	
541.98	5544.5	
542.18	6972.7	
542.37	6888	
542.57	5674.9	
542.76	5930.9	
542.96	6887.3	
543.15	7079.8	
543.35	5686.5	
543.54	5309.7	
543.74	6731	
543.93	7092.8	
544.13	5615.5	
544.32	6059.3	
544.52	7344.7	
544.71	6915.3	
544.91	5214.1	
545.1	5701.5	
545.3	7004.1	
545.49	7087.3	
545.69	5163.6	
545.88	5464	
546.08	7655.3	
546.27	7358.4	
546.47	5654.4	
546.66	5251	
546.86	7204.8	
547.05	7393.2	
547.24	5386.2	
547.44	5380.7	
547.63	6798.6	
547.83	7174.7	
548.02	5477	
548.22	5536.3	
548.41	6666.8	
548.61	7262.8	
548.8	5244.2	
549	5302.2	
549.19	7117.4	
549.39	7200	
549.58	5094	
549.78	5409.4	
549.97	7120.8	
550.17	6829.3	
550.36	5697.4	
550.55	6219	
550.75	6883.2	
550.94	7425.9	
551.14	5237.3	
551.33	5393.7	
551.53	6607.4	
551.72	7091.4	
551.92	5430.5	
552.11	5233.2	
552.31	7230.7	
552.5	6905.8	
552.69	6035.4	
552.89	5112.4	
553.08	7088	
553.28	6822.5	
553.47	5203.2	
553.67	5708.4	
553.86	7219.8	
554.06	6487.3	
554.25	4922.6	
554.44	5157.5	
554.64	7688.1	
554.83	7349.5	
555.03	5108.3	
555.22	5216.9	
555.42	7172	
555.61	6945.3	
555.8	5183.4	
556	5297.4	
556.19	6602.7	
556.39	6924.2	
556.58	5160.9	
556.78	5245.5	
556.97	6968.6	
557.16	6743.3	
557.36	5743.9	
557.55	5001.8	
557.75	6362.4	
557.94	7281.9	
558.13	5055.1	
558.33	4932.2	
558.52	7151.5	
558.72	6310.5	
558.91	5039.4	
559.1	5087.8	
559.3	6434.7	
559.49	6390.3	
559.69	4958.8	
559.88	5177.9	
560.07	6819.1	
560.27	7062.1	
560.46	5369.8	
560.66	5358.9	
560.85	6714.6	
561.04	6276.3	
561.24	5014.1	
561.43	4930.1	
561.63	6339.8	
561.82	6659.3	
562.01	5530.2	
562.21	5140.4	
562.4	6775.4	
562.59	7197.2	
562.79	5132.9	
562.98	4968.4	
563.18	6735.1	
563.37	7361.8	
563.56	5294.7	
563.76	4966.3	
563.95	6498.2	
564.14	6449.1	
564.34	5216.2	
564.53	5018.9	
564.73	6800.6	
564.92	6757.6	
565.11	5316.5	
565.31	4852.3	
565.5	7056.6	
565.69	6340.5	
565.89	5128.1	
566.08	5141.1	
566.27	6782.2	
566.47	7159	
566.66	5544.5	
566.85	4866	
567.05	6802.7	
567.24	6608.1	
567.44	4973.2	
567.63	5513.8	
567.82	6909.2	
568.02	6627.2	
568.21	4923.3	
568.4	5140.4	
568.6	6677.7	
568.79	6668.9	
568.98	5029.1	
569.18	4982	
569.37	6649.8	
569.56	7370	
569.76	5152.7	
569.95	5550	
570.14	6892.8	
570.34	6526.9	
570.53	4938.3	
570.72	4844.8	
570.91	7083.2	
571.11	6590.4	
571.3	5208	
571.49	5597.1	
571.69	6736.5	
571.88	6432	
572.07	5287.9	
572.27	5304.9	
572.46	6356.9	
572.65	6859.3	
572.85	5014.8	
573.04	5137	
573.23	7028.6	
573.43	6732.4	
573.62	4926	
573.81	5208.7	
574	6805.4	
574.2	6574	
574.39	5114.5	
574.58	5167.7	
574.78	7055.9	
574.97	6746.7	
575.16	5294	
575.36	5280.3	
575.55	7000	
575.74	6991.8	
575.93	4922.6	
576.13	5289.2	
576.32	6657.9	
576.51	6849.8	
576.71	5109.7	
576.9	5658.5	
577.09	7212.9	
577.28	6843.6	
577.48	5330.9	
577.67	4918.5	
577.86	6769.9	
578.05	6901	
578.25	5141.8	
578.44	5187.5	
578.63	6751.5	
578.83	7318.1	
579.02	4976.6	
579.21	5589.6	
579.4	6802.7	
579.6	6707.8	
579.79	5260.5	
579.98	6171.2	
580.17	6971.3	
580.37	7101	
580.56	5031.9	
580.75	5391.6	
580.94	6993.8	
581.14	7359	
581.33	5546.6	
581.52	5137.7	
581.71	6924.9	
581.91	7316.7	
582.1	5050.3	
582.29	5223.7	
582.48	6699.6	
582.68	6735.8	
582.87	5362.9	
583.06	5380	
583.25	7045.7	
583.45	6612.9	
583.64	5543.2	
583.83	5864.7	
584.02	6869.6	
584.21	6967.9	
584.41	5577.3	
584.6	5241.4	
584.79	6870.3	
584.98	6995.9	
585.18	5013.4	
585.37	4999.8	
585.56	6750.1	
585.75	7053.9	
585.94	5045.5	
586.14	5411.4	
586.33	7215.7	
586.52	6668.9	
586.71	5318.6	
586.91	5128.8	
587.1	6494.8	
587.29	6901	
587.48	5132.9	
587.67	5061.9	
587.87	6945.3	
588.06	6725.5	
588.25	5567.1	
588.44	5315.8	
588.63	6621.1	
588.83	6772.6	
589.02	5048.2	
589.21	4939	
589.4	6604.7	
589.59	6518.7	
589.78	4549.2	
589.98	4650.3	
590.17	6190.3	
590.36	6265.4	
590.55	4270	
590.74	4603.2	
590.94	6838.2	
591.13	6282.5	
591.32	4515.8	
591.51	4333.5	
591.7	6402	
591.89	6337.1	
592.09	4427	
592.28	4603.8	
592.47	5727.5	
592.66	6905.1	
592.85	4418.2	
593.05	4589.5	
593.24	6247.7	
593.43	6723.5	
593.62	4649.6	
593.81	4819.6	
594	6328.2	
594.19	6300.2	
594.39	4551.3	
594.58	4506.2	
594.77	6402	
594.96	6559	
595.15	4623.6	
595.34	4756.7	
595.54	6206	
595.73	5920	
595.92	4250.9	
596.11	4708.3	
596.3	6606.7	
596.49	6092	
596.68	4676.9	
596.88	4835.3	
597.07	6462	
597.26	5960.3	
597.45	4508.3	
597.64	5045.5	
597.83	6116.6	
598.02	6347.3	
598.22	4511.7	
598.41	4749.2	
598.6	6146	
598.79	5994.4	
598.98	4500.1	
599.17	4851	
599.36	6371.9	
599.55	6696.2	
599.74	5360.2	
599.94	5287.9	
600.13	6533	
600.32	6046.3	
600.51	4427.7	
600.7	4464.6	
600.89	6791.7	
601.08	6891.4	
601.27	4309.6	
601.47	4914.4	
601.66	6514.6	
601.85	6724.2	
602.04	4714.4	
602.23	4754	
602.42	6099.5	
602.61	6346	
602.8	4540.3	
602.99	4605.2	
603.18	6241.5	
603.37	6206.7	
603.57	4752	
603.76	5067.4	
603.95	6691.4	
604.14	6364.4	
604.33	4564.9	
604.52	4678.2	
604.71	6401.3	
604.9	6015.6	
605.09	5036.6	
605.28	4873.5	
605.47	6630.6	
605.66	6215.6	
605.86	4756.1	
606.05	4564.2	
606.24	6660	
606.43	5833.3	
606.62	4727.4	
606.81	4945.2	
607	6511.2	
607.19	6047.7	
607.38	4382	
607.57	4422.2	
607.76	5952.1	
607.95	5656.5	
608.14	4772.4	
608.33	4924	
608.52	6024.4	
608.72	6419	
608.91	4261.1	
609.1	4315.1	
609.29	6094.1	
609.48	5774.6	
609.67	4807.3	
609.86	4320.5	
610.05	5920	
610.24	5911.8	
610.43	4356.7	
610.62	4116.4	
610.81	6578.8	
611	6403.3	
611.19	4365.6	
611.38	4663.9	
611.57	6343.2	
611.76	6619	
611.95	4298	
612.14	4242	
612.33	6036.7	
612.52	5758.2	
612.71	4467.3	
612.9	4172.4	
613.09	5717.9	
613.28	6800.6	
613.47	4415.4	
613.66	4718.5	
613.85	6232	
614.04	5838.8	
614.24	4405.9	
614.43	4005.1	
614.62	6236.1	
614.81	6108.4	
615	4582	
615.19	4581.3	
615.38	5922	
615.57	6025.8	
615.76	4648.9	
615.95	5043.5	
616.14	6314.6	
616.33	6082.5	
616.52	4733.5	
616.71	4727.4	
616.9	6204	
617.09	6033.3	
617.28	4489.8	
617.47	4810.7	
617.66	5831.9	
617.85	5782.8	
618.04	4739	
618.22	4521.2	
618.41	5744.6	
618.6	6465.4	
618.79	4638	
618.98	4486.4	
619.17	6524.8	
619.36	5689.3	
619.55	4579.3	
619.74	4529.4	
619.93	6158.2	
620.12	5872.2	
620.31	4795	
620.5	4887.8	
620.69	6407.4	
620.88	6713.2	
621.07	5163.6	
621.26	4708.3	
621.45	6319.3	
621.64	6247.7	
621.83	4839.4	
622.02	4355.3	
622.21	6235.4	
622.4	6290.7	
622.59	5031.2	
622.78	4975.2	
622.97	6073.6	
623.16	6457.9	
623.35	4879.6	
623.54	4357.4	
623.72	6117.3	
623.91	6182.8	
624.1	4901.5	
624.29	4336.9	
624.48	6698.9	
624.67	6406.7	
624.86	4840.7	
625.05	4401.1	
625.24	6767.9	
625.43	6104.3	
625.62	5590.3	
625.81	4463.9	
626	6380.8	
626.19	6151.4	
626.38	4795	
626.56	4621.6	
626.75	5907	
626.94	6351.4	
627.13	4833.2	
627.32	4280.9	
627.51	6339.1	
627.7	6722.1	
627.89	4343.7	
628.08	4897.4	
628.27	5845.6	
628.46	6146.6	
628.65	4435.2	
628.83	4244.1	
629.02	6399.9	
629.21	5873.6	
629.4	4687.8	
629.59	4676.9	
629.78	5859.2	
629.97	6310.5	
630.16	4715.1	
630.35	4533.5	
630.54	6748.1	
630.72	6565.1	
630.91	4597	
631.1	4771.8	
631.29	6051.1	
631.48	6126.8	
631.67	4872.8	
631.86	4545.8	
632.05	6206.7	
632.24	6071.5	
632.42	4411.3	
632.61	4641.4	
632.8	6072.2	
632.99	5771.9	
633.18	4706.9	
633.37	4842.1	
633.56	6251.8	
633.75	6180.1	
633.93	4762.9	
634.12	4629.8	
634.31	6719.4	
634.5	6411.5	
634.69	4592.9	
634.88	4782	
635.07	6207.4	
635.25	6367.1	
635.44	5044.8	
635.63	5030.5	
635.82	6133	
636.01	5323.4	
636.2	4957.4	
636.39	4732.9	
636.57	6675	
636.76	6208.8	
636.95	4484.4	
637.14	5070.1	
637.33	6338.5	
637.52	6593.8	
637.7	4408.6	
637.89	4901.5	
638.08	6199.2	
638.27	6677.1	
638.46	4871.4	
638.65	5010	
638.83	6734.4	
639.02	6008.7	
639.21	4831.2	
639.4	4941.1	
639.59	6130.3	
639.78	5989.6	
639.96	4401.1	
640.15	4499.4	
640.34	6184.2	
640.53	5929.6	
640.72	4377.2	
640.91	4462.5	
641.09	5796.4	
641.28	6458.6	
641.47	4589.5	
641.66	4897.4	
641.85	6119.3	
642.03	6189.6	
642.22	4665.3	
642.41	4531.5	
642.6	5870.8	
642.79	5578	
642.97	4468.7	
643.16	4696.7	
643.35	5778	
643.54	5654.4	
643.73	4294.6	
643.91	4687.8	
644.1	5730.2	
644.29	5957.5	
644.48	4331.5	
644.67	4364.9	
644.85	5427.1	
645.04	5940.5	
645.23	4143	
645.42	4384	
645.6	5674.2	
645.79	6232	
645.98	4240.7	
646.17	3826.3	
646.36	5419.6	
646.54	5700.9	
646.73	4526.7	
646.92	3984	
647.11	5541.8	
647.29	5930.9	
647.48	3956	
647.67	3891.8	
647.86	6109.1	
648.05	6049.7	
648.23	4196.3	
648.42	4754	
648.61	5896.8	
648.8	5724.8	
648.98	3972.4	
649.17	4186.7	
649.36	5616.2	
649.55	5330.9	
649.73	4078.2	
649.92	4392.2	
650.11	5516.5	
650.3	5622.4	
650.48	4061.1	
650.67	4012.7	
650.86	5715.9	
651.05	5236	
651.23	4067.9	
651.42	4042.7	
651.61	5548.6	
651.79	5399.8	
651.98	4164.9	
652.17	3986	
652.36	5720	
652.54	5195.7	
652.73	4055	
652.92	3931.4	
653.11	5632.6	
653.29	5763	
653.48	3680.2	
653.67	4050.9	
653.85	5453.7	
654.04	5995.1	
654.23	4163.5	
654.42	3998.3	
654.6	5308.3	
654.79	5597.1	
654.98	3725.3	
655.16	3999.7	
655.35	5208	
655.54	4917.2	
655.73	3730.7	
655.91	3700	
656.1	5438.7	
656.29	4990.2	
656.47	3534.8	
656.66	4399.7	
656.85	5328.1	
657.03	5167	
657.22	3812	
657.41	3863.2	
657.59	5285.1	
657.78	5204.6	
657.97	3736.9	
658.16	4035.2	
658.34	5617.6	
658.53	5787.6	
658.72	4482.3	
658.9	4614.8	
659.09	5464.7	
659.28	5422.3	
659.46	3901.4	
659.65	3818.1	
659.84	5255.1	
660.02	5662.6	
660.21	3867.2	
660.4	3756	
660.58	5774.6	
660.77	5335.6	
660.96	4113.7	
661.14	3628.3	
661.33	5983.5	
661.52	5874.9	
661.7	3639.2	
661.89	5068.7	
662.08	5262.6	
662.26	4827.7	
662.45	3788.1	
662.64	3878.9	
662.82	5633.3	
663.01	5115.1	
663.2	3840.6	
663.38	4155.3	
663.57	5522	
663.75	5423	
663.94	3906.8	
664.13	4559.5	
664.31	5285.1	
664.5	5525.4	
664.69	4154	
664.87	4281.6	
665.06	5078.3	
665.25	5427.8	
665.43	4430.4	
665.62	4375.8	
665.8	5506.3	
665.99	5259.9	
666.18	3953.9	
666.36	3983.3	
666.55	5625.8	
666.74	5428.5	
666.92	3824.9	
667.11	4510.3	
667.29	5384.8	
667.48	5490.6	
667.67	4291.9	
667.85	3855	
668.04	5137	
668.22	5127.4	
668.41	4018.1	
668.6	4227.7	
668.78	5125.4	
668.97	5209.3	
669.15	4146.5	
669.34	3579.8	
669.53	5206.6	
669.71	5340.4	
669.9	3710.2	
670.08	3923.9	
670.27	5079	
670.46	5430.5	
670.64	4190.8	
670.83	4214	
671.01	4972.5	
671.2	5273.5	
671.38	3786	
671.57	3757.3	
671.76	5691.3	
671.94	5821	
672.13	3639.2	
672.31	4102.8	
672.5	5562.3	
672.69	5091.9	
672.87	3755.3	
673.06	3861.1	
673.24	5342.5	
673.43	5212.8	
673.61	4075.5	
673.8	3825.6	
673.98	5446.9	
674.17	5466	
674.36	4240	
674.54	4148.5	
674.73	5011.4	
674.91	5599.8	
675.1	3893.2	
675.28	3683.6	
675.47	5257.1	
675.65	5511.1	
675.84	3930.1	
676.03	4044.7	
676.21	5272.8	
676.4	4859.8	
676.58	4216.1	
676.77	4099.4	
676.95	5870.2	
677.14	5202.5	
677.32	3669.3	
677.51	3687.7	
677.69	5542.5	
677.88	5125.4	
678.06	3718.4	
678.25	3813.3	
678.44	5248.3	
678.62	5090.6	
678.81	3611.9	
678.99	4014	
679.18	5613.5	
679.36	5406.6	
679.55	3820.1	
679.73	4082.3	
679.92	5371.1	
680.1	5140.4	
680.29	4352.6	
680.47	3791.5	
680.66	5156.1	
680.84	5502.2	
681.03	3567.6	
681.21	4072	
681.4	5064.6	
681.58	5079	
681.77	3747.1	
681.95	3738.9	
682.14	5513.8	
682.32	5602.6	
682.51	4134.8	
682.69	3629	
682.88	5068.7	
683.06	5224.4	
683.25	4025.6	
683.43	4186.7	
683.62	5296	
683.8	5440.1	
683.99	4235.9	
684.17	3930.1	
684.36	5713.2	
684.54	5116.5	
684.73	3611.3	
684.91	3610.6	
685.1	5291.3	
685.28	4859.8	
685.46	3768.3	
685.65	3844.7	
685.83	5246.9	
686.02	4978.6	
686.2	3617.4	
686.39	3586.7	
686.57	4827.1	
686.76	5488.6	
686.94	3649.5	
687.13	3698.6	
687.31	5227.8	
687.5	5084.4	
687.68	3439.9	
687.86	3850.9	
688.05	5917.3	
688.23	4805.2	
688.42	3953.9	
688.6	3628.3	
688.79	4986.1	
688.97	5006.6	
689.16	3822.2	
689.34	3419.4	
689.52	5249.6	
689.71	5511.1	
689.89	3941.7	
690.08	3653.6	
690.26	5185.5	
690.45	4930.1	
690.63	3923.9	
690.81	3739.6	
691	5148.6	
691.18	5001.8	
691.37	3818.1	
691.55	4697.4	
691.74	4960.2	
691.92	5838.8	
692.1	3722.5	
692.29	3525.9	
692.47	5105.6	
692.66	4765.6	
692.84	3649.5	
693.02	3829	
693.21	4719.9	
693.39	5094.7	
693.58	3921.2	
693.76	3604.4	
693.94	5585.5	
694.13	5459.9	
694.31	3663.8	
694.5	4189.5	
694.68	4955.4	
694.86	5222.3	
695.05	3805.8	
695.23	4010.6	
695.42	5304.9	
695.6	6287.3	
695.78	4107.5	
695.97	3716.4	
696.15	5365	
696.34	4986.8	
696.52	3677.5	
696.7	4008.6	
696.89	5189.6	
697.07	4885.8	
697.25	3910.3	
697.44	4545.1	
697.62	5217.5	
697.81	5177.3	
697.99	3810.6	
698.17	3936.9	
698.36	4971.1	
698.54	5204.6	
698.72	3859.1	
698.91	3435.1	
699.09	5020.9	
699.28	4792.2	
699.46	3749.8	
699.64	3659.7	
699.83	4949.3	
700.01	5306.3	
700.19	4070.7	
700.38	3349.8	
700.56	5259.2	
700.74	5019.6	
700.93	3463.1	
701.11	3890.5	
701.29	5247.6	
701.48	5740.5	
701.66	3573.7	
701.84	3713.6	
702.03	5111.7	
702.21	5399.1	
702.39	3497.2	
702.58	3746.4	
702.76	5350.7	
702.94	5302.9	
703.13	3418.1	
703.31	4500.1	
703.49	5020.9	
703.68	5401.9	
703.86	3569.6	
704.04	3972.4	
704.23	5193	
704.41	5337.7	
704.59	3702.7	
704.78	4123.9	
704.96	6041.5	
705.14	5311.7	
705.33	3500	
705.51	3917.1	
705.69	5002.5	
705.87	5484.5	
706.06	3922.5	
706.24	3547.8	
706.42	5259.9	
706.61	5307	
706.79	4075.5	
706.97	3460.4	
707.16	4954.7	
707.34	5210.7	
707.52	4037.2	
707.7	3672	
707.89	4785.4	
708.07	4820.2	
708.25	4085.7	
708.44	4220.2	
708.62	4916.5	
708.8	5461.2	
708.98	4101.4	
709.17	3731.4	
709.35	5070.1	
709.53	5150	
709.72	3502	
709.9	3594.9	
710.08	5399.1	
710.26	5310.4	
710.45	4251.6	
710.63	3732.1	
710.81	5058.5	
710.99	5066.7	
711.18	3976.5	
711.36	3719.1	
711.54	5017.5	
711.72	5345.9	
711.91	3794.2	
712.09	3612.6	
712.27	5123.3	
712.45	5509	
712.64	3826.3	
712.82	3413.3	
713	4924	
713.18	4911	
713.37	3416.7	
713.55	3972.4	
713.73	5238.7	
713.91	4607.2	
714.1	3499.3	
714.28	3317	
714.46	4989.5	
714.64	4625	
714.83	3046.7	
715.01	3358	
715.19	4757.4	
715.37	4315.1	
715.55	3139.5	
715.74	3329.3	
715.92	5010	
716.1	4065.2	
716.28	3890.5	
716.47	3342.3	
716.65	4595	
716.83	4487.1	
717.01	3296.5	
717.19	3241.3	
717.38	5506.3	
717.56	4398.4	
717.74	3374.4	
717.92	3005.7	
718.1	4976.6	
718.29	4596.3	
718.47	2905.4	
718.65	3197.6	
718.83	4936.3	
719.01	4857.8	
719.2	2858.3	
719.38	3357.3	
719.56	4795.7	
719.74	5421.7	
719.92	3253.5	
720.11	3642.7	
720.29	4898.1	
720.47	4433.9	
720.65	2998.9	
720.83	3291.1	
721.02	4603.8	
721.2	4496.7	
721.38	3386	
721.56	3028.3	
721.74	4247.5	
721.92	4156	
722.11	3550.5	
722.29	3390.8	
722.47	4855.7	
722.65	4521.9	
722.83	3016	
723.01	3388.7	
723.2	4342.4	
723.38	4607.2	
723.56	2830.3	
723.74	3312.2	
723.92	4130.8	
724.1	4744.5	
724.29	3046	
724.47	3516.4	
724.65	4450.9	
724.83	4249.5	
725.01	2982.5	
725.19	3291.1	
725.37	4282.3	
725.56	4252.9	
725.74	2969.6	
725.92	2992.8	
726.1	4244.8	
726.28	4491.2	
726.46	3158	
726.64	3072	
726.83	4602.5	
727.01	4559.5	
727.19	2943.6	
727.37	3198.9	
727.55	4584	
727.73	4804.5	
727.91	2943.6	
728.09	2840.5	
728.28	4567.7	
728.46	4838	
728.64	3304.7	
728.82	3284.9	
729	5187.5	
729.18	5007.3	
729.36	2910.2	
729.54	3907.5	
729.72	5377.3	
729.91	4573.8	
730.09	3866.6	
730.27	3213.9	
730.45	4595.6	
730.63	4823.6	
730.81	3522.5	
730.99	3155.2	
731.17	5162.9	
731.35	4428.4	
731.53	3316.3	
731.71	3241.9	
731.9	4941.7	
732.08	5007.3	
732.26	3364.1	
732.44	3140.9	
732.62	5080.3	
732.8	4848.2	
732.98	3551.9	
733.16	3080.8	
733.34	4907.6	
733.52	4121.2	
733.7	3320.4	
733.88	3363.4	
734.07	4767	
734.25	4625.7	
734.43	3073.3	
734.61	3715.7	
734.79	5322.7	
734.97	4569.7	
735.15	3100.6	
735.33	3309.5	
735.51	4816.8	
735.69	4659.1	
735.87	3699.3	
736.05	3383.2	
736.23	4650.9	
736.41	4506.9	
736.59	3328.6	
736.77	3338.2	
736.95	4872.8	
737.13	4549.2	
737.32	3179.1	
737.5	3282.2	
737.68	5292	
737.86	4586.1	
738.04	3102.7	
738.22	3849.5	
738.4	4597.7	
738.58	4655	
738.76	3297.2	
738.94	2902	
739.12	4642.1	
739.3	4569	
739.48	3572.3	
739.66	3463.1	
739.84	4721.9	
740.02	4655.7	
740.2	2997.5	
740.38	3080.8	
740.56	4846.9	
740.74	4166.3	
740.92	3398.9	
741.1	3288.4	
741.28	4638	
741.46	4446.8	
741.64	3198.9	
741.82	3439.9	
742	4705.5	
742.18	4517.8	
742.36	3235.1	
742.54	3104.7	
742.72	4988.9	
742.9	4225	
743.08	3391.4	
743.26	2833	
743.44	4792.2	
743.62	4902.2	
743.8	3556.6	
743.98	3074	
744.16	4715.8	
744.34	4520.5	
744.52	3377.8	
744.7	3438.5	
744.88	4843.4	
745.06	4579.9	
745.24	3416	
745.42	3529.3	
745.6	4960.9	
745.78	4848.2	
745.96	2964.1	
746.14	3070.6	
746.32	5224.4	
746.5	4618.9	
746.68	3238.5	
746.86	3016	
747.03	4863.2	
747.21	4242	
747.39	3308.2	
747.57	3007.8	
747.75	4601.8	
747.93	4770.4	
748.11	2985.9	
748.29	2967.5	
748.47	5487.9	
748.65	4615.4	
748.83	3333.4	
749.01	3245.3	
749.19	4741.7	
749.37	4287.8	
749.55	3244.7	
749.73	3243.3	
749.91	4729.4	
750.09	4556	
750.26	3266.5	
750.44	2952.5	
750.62	4550.6	
750.8	4513	
750.98	2953.2	
751.16	3054.9	
751.34	4712.4	
751.52	4332.1	
751.7	3457.7	
751.88	2883.5	
752.06	4877.6	
752.24	4655.7	
752.42	2897.2	
752.59	3099.9	
752.77	4588.1	
752.95	5188.2	
753.13	3376.4	
753.31	3095.8	
753.49	4457.7	
753.67	4597	
753.85	3269.9	
754.03	2999.6	
754.21	4818.9	
754.38	4928.8	
754.56	3064.4	
754.74	2700.6	
754.92	4397	
755.1	4607.2	
755.28	2653.5	
755.46	2595.5	
755.64	5085.8	
755.82	5014.8	
755.99	2758.6	
756.17	2734.7	
756.35	3823.6	
756.53	4407.9	
756.71	2171.5	
756.89	2831.7	
757.07	4289.8	
757.25	3857	
757.42	2882.9	
757.6	3283.6	
757.78	4332.8	
757.96	3938.9	
758.14	2706.7	
758.32	2553.1	
758.5	3664.5	
758.67	4042	
758.85	2641.2	
759.03	2691	
759.21	4189.5	
759.39	3803.1	
759.57	2408.4	
759.75	2925.2	
759.92	4552	
760.1	4276.8	
760.28	3158.7	
760.46	3270.6	
760.64	4151.9	
760.82	4076.8	
760.99	3102.7	
761.17	2757.9	
761.35	4561.5	
761.53	3945.1	
761.71	2860.3	
761.89	3083.6	
762.06	4401.1	
762.24	4207.9	
762.42	2915.6	
762.6	2762.7	
762.78	4225.6	
762.96	4413.4	
763.13	3110.2	
763.31	2863.7	
763.49	4517.1	
763.67	4225	
763.85	3290.4	
764.02	3531.4	
764.2	4730.8	
764.38	4135.5	
764.56	2893.1	
764.74	3267.9	
764.91	4685.8	
765.09	4113	
765.27	2770.2	
765.45	2615.3	
765.63	4823	
765.8	4629.8	
765.98	2580.4	
766.16	2668.5	
766.34	3826.3	
766.52	3839.9	
766.69	3084.2	
766.87	2585.9	
767.05	4244.1	
767.23	4596.3	
767.41	2730.6	
767.58	2878.1	
767.76	4498.7	
767.94	4549.2	
768.12	2792.7	
768.29	3064.4	
768.47	4001	
768.65	4544.4	
768.83	2607.7	
769	3069.2	
769.18	4029	
769.36	4323.9	
769.54	3081.5	
769.72	2564.7	
769.89	4637.3	
770.07	4479.6	
770.25	2866.5	
770.43	3351.8	
770.6	4858.5	
770.78	4845.5	
770.96	2912.9	
771.14	3105.4	
771.31	4528.1	
771.49	4164.9	
771.67	2501.9	
771.85	2532	
772.02	3771	
772.2	4085	
772.38	2917	
772.55	2658.3	
772.73	4261.1	
772.91	4177.2	
773.09	2823.5	
773.26	2932	
773.44	4351.9	
773.62	4150.6	
773.8	2605.7	
773.97	2521	
774.15	4277.5	
774.33	4141	
774.5	2527.9	
774.68	2688.3	
774.86	4270	
775.04	4140.3	
775.21	2585.9	
775.39	2494.4	
775.57	4164.2	
775.74	4243.4	
775.92	2482.8	
776.1	2371.5	
776.27	4193.6	
776.45	4767	
776.63	2583.9	
776.81	2364.7	
776.98	4163.5	
777.16	4468	
777.34	2599.6	
777.51	2777	
777.69	4024.9	
777.87	3923.9	
778.04	2800.9	
778.22	2857.6	
778.4	3936.2	
778.57	4203.1	
778.75	2320.3	
778.93	2439.1	
779.1	3936.2	
779.28	3711.6	
779.46	2296.5	
779.64	2529.2	
779.81	4330.8	
779.99	4721.3	
780.17	2894.5	
780.34	2925.9	
780.52	4055.7	
780.69	4093.2	
780.87	2687.6	
781.05	2510.8	
781.22	4232.5	
781.4	4119.1	
781.58	2543.6	
781.75	2093.7	
781.93	4173.8	
782.11	3708.2	
782.28	2966.8	
782.46	2525.8	
782.64	3730	
782.81	4212.7	
782.99	2634.4	
783.17	2515.6	
783.34	3979.9	
783.52	3919.8	
783.69	2573.6	
783.87	3015.3	
784.05	3975.8	
784.22	3756	
784.4	3001	
784.58	2682.8	
784.75	4336.2	
784.93	3988.1	
785.1	2517	
785.28	2786.6	
785.46	4248.2	
785.63	3753.9	
785.81	2540.8	
785.99	2383.8	
786.16	3996.3	
786.34	4024.3	
786.51	2464.4	
786.69	2696.5	
786.87	3658.4	
787.04	3923.9	
787.22	2411.1	
787.39	2795.5	
787.57	3893.2	
787.75	4307.6	
787.92	3001	
788.1	2850.1	
788.27	3796.9	
788.45	3438.5	
788.63	2779.1	
788.8	2206.3	
788.98	4069.3	
789.15	3512.3	
789.33	2251.4	
789.5	2458.9	
789.68	4222.9	
789.86	4300.7	
790.03	2665.8	
790.21	2435	
790.38	4331.5	
790.56	3841.3	
790.73	2439.1	
790.91	2377.7	
791.09	3850.2	
791.26	4117.8	
791.44	2568.8	
791.61	2251.4	
791.79	3885	
791.96	3801.7	
792.14	2313.5	
792.32	2140.8	
792.49	3786.7	
792.67	3917.1	
792.84	2395.4	
793.02	2233	
793.19	4121.9	
793.37	4345.8	
793.54	2133.3	
793.72	2282.8	
793.89	4400.4	
794.07	3721.8	
794.25	2613.2	
794.42	2204.3	
794.6	4325.3	
794.77	4026.3	
794.95	2643.9	
795.12	2401.6	
795.3	3870	
795.47	4065.2	
795.65	2655.5	
795.82	2501.3	
796	3756	
796.17	4532.2	
796.35	2461	
796.52	2826.9	
796.7	4105.5	
796.87	4151.2	
797.05	2489.6	
797.22	2895.8	
797.4	4165.6	
797.57	4548.5	
797.75	2631.6	
797.92	2487.6	
798.1	4319.8	
798.27	3573	
798.45	2220	
798.62	2301.9	
798.8	3904.1	
798.97	4160.8	
799.15	2611.2	
799.32	2556.5	
799.5	3605.1	
799.67	3889.1	
799.85	2682.2	
800.02	2161.3	
800.2	3799	
800.37	3816.7	
800.55	2736.8	
800.72	2355.2	
800.9	4194.2	
801.07	4339	
801.25	3054.9	
801.42	2619.4	
801.6	4248.2	
801.77	3827	
801.95	2470.5	
802.12	2399.5	
802.29	4060.4	
802.47	3954.6	
802.64	2639.1	
802.82	2173.6	
802.99	3819.5	
803.17	4186	
803.34	2486.2	
803.52	2341.5	
803.69	4369.7	
803.87	3582.6	
804.04	2571.6	
804.21	2544.9	
804.39	4365.6	
804.56	3798.3	
804.74	2299.9	
804.91	2616.6	
805.09	3766.2	
805.26	3812.6	
805.44	2315.6	
805.61	2403.6	
805.78	4179.2	
805.96	4006.5	
806.13	2594.1	
806.31	2739.5	
806.48	3494.5	
806.66	3746.4	
806.83	2653.5	
807	2525.8	
807.18	3850.9	
807.35	3943.7	
807.53	2539.5	
807.7	2233	
807.87	4342.4	
808.05	3781.9	
808.22	2680.8	
808.4	2172.2	
808.57	3649.5	
808.74	3618.1	
808.92	2428.2	
809.09	2943.6	
809.27	3900.7	
809.44	3977.8	
809.61	2165.4	
809.79	2381.8	
809.96	4532.8	
810.14	4045.4	
810.31	2198.8	
810.48	2747	
810.66	3821.5	
810.83	4093.2	
811.01	2394.8	
811.18	2517.6	
811.35	4117.8	
811.53	3439.2	
811.7	2752.5	
811.87	2576.3	
812.05	3922.5	
812.22	3763.5	
812.39	2329.9	
812.57	2256.9	
812.74	3894.6	
812.92	4584	
813.09	2565.4	
813.26	2542.9	
813.44	4487.8	
813.61	3657	
813.78	2169.5	
813.96	2654.9	
814.13	3852.2	
814.3	3756	
814.48	2829.6	
814.65	2448	
814.82	4286.4	
815	3588	
815.17	2525.1	
815.34	2898.6	
815.52	3726.6	
815.69	3739.6	
815.87	2411.8	
816.04	2439.1	
816.21	3593.5	
816.38	3617.4	
816.56	2506.7	
816.73	2382.5	
816.9	4568.3	
817.08	4055.7	
817.25	2400.9	
817.42	2728.6	
817.6	3579.8	
817.77	3730.7	
817.94	2525.8	
818.12	2321	
818.29	3739.6	
818.46	4759.5	
818.64	2489	
818.81	2265.7	
818.98	3721.2	
819.16	4592.2	
819.33	2679.4	
819.5	2521	
819.67	4006.5	
819.85	4299.4	
820.02	2557.9	
820.19	2607.1	
820.37	3906.8	
820.54	3724.6	
820.71	2560	
820.88	3002.3	
821.06	3866.6	
821.23	3704.1	
821.4	2528.6	
821.58	2557.9	
821.75	4089.1	
821.92	3902.7	
822.09	2215.9	
822.27	2273.2	
822.44	3809.2	
822.61	3765.5	
822.79	2191.3	
822.96	3632.4	
823.13	3833.1	
823.3	3557.3	
823.48	2438.4	
823.65	2227.5	
823.82	4240	
823.99	3617.4	
824.17	2946.3	
824.34	2258.2	
824.51	4637.3	
824.68	3813.3	
824.86	2368.1	
825.03	2521.7	
825.2	3819.5	
825.37	4242	
825.55	2357.2	
825.72	2506	
825.89	4489.8	
826.06	4296	
826.24	2474.6	
826.41	2512.2	
826.58	4406.5	
826.75	3861.1	
826.92	2139.4	
827.1	2291	
827.27	5383.4	
827.44	4428.4	
827.61	2400.2	
827.79	2709.5	
827.96	3803.8	
828.13	3721.2	
828.3	2508.1	
828.47	2168.8	
828.65	4121.2	
828.82	3955.3	
828.99	2863.1	
829.16	2577	
829.34	4126	
829.51	4093.2	
829.68	2489.6	
829.85	2480.1	
830.02	4526	
830.2	4207.9	
830.37	2078	
830.54	2803	
830.71	4597	
830.88	3859.7	
831.05	2012.5	
831.23	2261.6	
831.4	4566.3	
831.57	4612	
831.74	2391.3	
831.91	2155.1	
832.09	4227.7	
832.26	4229.7	
832.43	2418.7	
832.6	2547	
832.77	4050.2	
832.94	4416.1	
833.12	2034.3	
833.29	2343.6	
833.46	3724.6	
833.63	4825	
833.8	2533.3	
833.97	2385.9	
834.15	4283	
834.32	4182.6	
834.49	2438.4	
834.66	2461.7	
834.83	4104.8	
835	3814	
835.17	2319.7	
835.35	2280.8	
835.52	4237.9	
835.69	4095.3	
835.86	2387.9	
836.03	2071.2	
836.2	4264.6	
836.37	4061.1	
836.55	2343.6	
836.72	2235.7	
836.89	4023.6	
837.06	4297.3	
837.23	2369.5	
837.4	2443.2	
837.57	4639.3	
837.75	4778.6	
837.92	2183.1	
838.09	2314.9	
838.26	4044.7	
838.43	4192.9	
838.6	2441.2	
838.77	2271.9	
838.94	4567	
839.11	4663.9	
839.29	2419.3	
839.46	2014.5	
839.63	4288.4	
839.8	4014.7	
839.97	2322.4	
840.14	2259.6	
840.31	4190.1	
840.48	4255	
840.65	2052.7	
840.82	2320.3	
841	4175.8	
841.17	4052.2	
841.34	2147.6	
841.51	2253.4	
841.68	4182	
841.85	3958.7	
842.02	2258.2	
842.19	2017.9	
842.36	4132.1	
842.53	4130.1	
842.7	2184.5	
842.87	2446	
843.05	4773.1	
843.22	4027	
843.39	2108	
843.56	2308.7	
843.73	3996.3	
843.9	4282.3	
844.07	3096.5	
844.24	2693.8	
844.41	5217.5	
844.58	3851.5	
844.75	2144.2	
844.92	2255.5	
845.09	4029.7	
845.26	4187.4	
845.43	2185.2	
845.6	2319.7	
845.77	4218.8	
845.94	4052.2	
846.12	2359.9	
846.29	2478	
846.46	4349.2	
846.63	4179.2	
846.8	2171.5	
846.97	2519.7	
847.14	4325.3	
847.31	4160.1	
847.48	2396.8	
847.65	2565.4	
847.82	3901.4	
847.99	4254.3	
848.16	2702	
848.33	2548.4	
848.5	3904.1	
848.67	4382.7	
848.84	2154.5	
849.01	2245.3	
849.18	3976.5	
849.35	3681.6	
849.52	2583.9	
849.69	2151.7	
849.86	4414.7	
850.03	4276.2	
850.2	2175.6	
850.37	2509.4	
850.54	4289.1	
850.71	3804.4	
850.88	2501.3	
851.05	2166.8	
851.22	4084.3	
851.39	4356	
851.56	2064.4	
851.73	2407.7	
851.9	3831.1	
852.07	4271.4	
852.24	2354.5	
852.41	2156.5	
852.58	4186	
852.75	3871.3	
852.92	2398.2	
853.09	2145.6	
853.26	3641.3	
853.43	4345.8	
853.6	2201.6	
853.77	1952.4	
853.94	4449.6	
854.11	3761.4	
854.28	2925.2	
854.44	2331.3	
854.61	4622.3	
854.78	4259.8	
854.95	2176.3	
855.12	2559.3	
855.29	3603.7	
855.46	4447.5	
855.63	2207.7	
855.8	2749.1	
855.97	3943	
856.14	4390.2	
856.31	2826.9	
856.48	2308.7	
856.65	4064.5	
856.82	3781.9	
856.99	2130.6	
857.16	2318.3	
857.33	4717.8	
857.49	3956.7	
857.66	2288.9	
857.83	2428.9	
858	4057	
858.17	4145.1	
858.34	2102.6	
858.51	2220.7	
858.68	4379.9	
858.85	4393.6	
859.02	2423.4	
859.19	2488.3	
859.36	3860.4	
859.52	3641.3	
859.69	2204.3	
859.86	2486.2	
860.03	3670.6	
860.2	4461.2	
860.37	2045.2	
860.54	2220	
860.71	4213.4	
860.88	4442	
861.05	2362.7	
861.21	2663	
861.38	4381.3	
861.55	3628.3	
861.72	1999.5	
861.89	2362.7	
862.06	4286.4	
862.23	4455	
862.4	2084.8	
862.56	2217.3	
862.73	4236.6	
862.9	4072.7	
863.07	2439.1	
863.24	2041.1	
863.41	3774.4	
863.58	3876.1	
863.75	2209.1	
863.91	2495.1	
864.08	4280.3	
864.25	4186	
864.42	2544.9	
864.59	2819.4	
864.76	4460.5	
864.93	3847.5	
865.09	2091	
865.26	2316.3	
865.43	4400.4	
865.6	4537.6	
865.77	1950.3	
865.94	2137.4	
866.1	4334.2	
866.27	4129.4	
866.44	2983.9	
866.61	2091	
866.78	4035.2	
866.95	4220.2	
867.11	2142.9	
867.28	1988.6	
867.45	4404.5	
867.62	3763.5	
867.79	2364	
867.96	2164	
868.12	3714.3	
868.29	4211.3	
868.46	2180.4	
868.63	2684.9	
868.8	4285	
868.97	4235.2	
869.13	2237.7	
869.3	2255.5	
869.47	4119.8	
869.64	4281.6	
869.81	2148.3	
869.97	2161.3	
870.14	4055.7	
870.31	4410	
870.48	2129.2	
870.65	2596.8	
870.81	4052.2	
870.98	3989.4	
871.15	2379.7	
871.32	2279.4	
871.48	4191.5	
871.65	4475.5	
871.82	2151	
871.99	2333.3	
872.16	4636.6	
872.32	4356.7	
872.49	2241.2	
872.66	2211.8	
872.83	4317.8	
872.99	3869.3	
873.16	2407.7	
873.33	2151	
873.5	4028.4	
873.67	4078.9	
873.83	2236.4	
874	2650.8	
874.17	4177.9	
874.34	4410	
874.5	2574.3	
874.67	2502.6	
874.84	4336.2	
875.01	3654.9	
875.17	2774.3	
875.34	2141.5	
875.51	4106.2	
875.68	4715.1	
875.84	2546.3	
876.01	2856.2	
876.18	4205.8	
876.34	4174.4	
876.51	2231.6	
876.68	2123.1	
876.85	3809.2	
877.01	4402.5	
877.18	2865.8	
877.35	2125.1	
877.52	4223.6	
877.68	3827.7	
877.85	2184.5	
878.02	2148.3	
878.18	3693.9	
878.35	3971.7	
878.52	1849.3	
878.69	2435.7	
878.85	4360.1	
879.02	4237.2	
879.19	2856.2	
879.35	2274.6	
879.52	4249.5	
879.69	4197.7	
879.86	1974.2	
880.02	2312.2	
880.19	4083	
880.36	4634.6	
880.52	2368.8	
880.69	2430.9	
880.86	4250.2	
881.02	4296.6	
881.19	2338.1	
881.36	2243.2	
881.52	4289.8	
881.69	3861.8	
881.86	2328.5	
882.02	2282.1	
882.19	4345.1	
882.36	4801.8	
882.52	2219.3	
882.69	2797.5	
882.86	4115.7	
883.02	4128	
883.19	2454.8	
883.36	2410.5	
883.52	4309.6	
883.69	4687.8	
883.86	2190	
884.02	2013.2	
884.19	4237.2	
884.36	4128	
884.52	2346.3	
884.69	2357.9	
884.86	3985.3	
885.02	4442	
885.19	2347.7	
885.36	2412.5	
885.52	3861.1	
885.69	4186	
885.86	2882.2	
886.02	2557.9	
886.19	4283	
886.35	3904.1	
886.52	2344.2	
886.69	2803.7	
886.85	3791.5	
887.02	4355.3	
887.19	4355.3	
887.35	4355.3	
887.52	4355.3	
887.68	4355.3	
887.85	4355.3	
888.02	4355.3	
888.18	4355.3	
888.35	4355.3	
888.51	4355.3	
888.68	4355.3	
888.85	4355.3	
889.01	4355.3	
889.18	4355.3	
889.35	4355.3	
889.51	4355.3	
889.68	4355.3	
889.84	4355.3	
890.01	4355.3	
890.17	4355.3	
890.34	4355.3	
890.51	4355.3	
890.67	4355.3	
890.84	4355.3	
891	4355.3	
891.17	4355.3	
891.34	4355.3	
891.5	4355.3	
891.67	4355.3	
891.83	4355.3	
892	4355.3	
892.16	4355.3	
892.33	4355.3	
892.5	4355.3	
892.66	4355.3	
892.83	4355.3	
892.99	4355.3	
893.16	4355.3	
893.32	4355.3	
893.49	4355.3	
893.65	4355.3	
893.82	4355.3	
893.99	4355.3	
894.15	4355.3	
894.32	4355.3	
894.48	4355.3	
894.65	4355.3	
894.81	4355.3	
894.98	4355.3	
895.14	4355.3	
895.31	4355.3	
895.47	4355.3	
895.64	4355.3	
895.81	4355.3	
895.97	4355.3	
896.14	4355.3	
896.3	4355.3	
896.47	4355.3	
896.63	4355.3	
896.8	4355.3	
896.96	4355.3	
897.13	4355.3	
897.29	4355.3	
897.46	4355.3	
897.62	4355.3	
897.79	4355.3	
897.95	4355.3	
898.12	4355.3	
898.28	4355.3	
898.45	4355.3	
898.61	4355.3	
898.78	4355.3	
898.94	4355.3	
899.11	4355.3	
899.27	4355.3	
899.44	4355.3	
899.6	4355.3	
899.77	4355.3	
899.93	4355.3	
900.1	4355.3	
900.26	4355.3	
900.43	4355.3	
900.59	4355.3	
900.76	4355.3	
900.92	4355.3	
901.09	4355.3	
901.25	4355.3	
901.42	4355.3	
901.58	4355.3	
901.75	4355.3	
901.91	4355.3	
902.07	4355.3	
902.24	4355.3	
902.4	4355.3	
902.57	4355.3	
902.73	4355.3	
902.9	4355.3	
903.06	4355.3	
903.23	4355.3	
903.39	4355.3	
903.56	4355.3	
903.72	4355.3	
903.88	4355.3	
904.05	4355.3	
904.21	4355.3	
904.38	4355.3	
904.54	4355.3	
904.71	4355.3	
904.87	4355.3	
905.03	4355.3	
905.2	4355.3	
905.36	4355.3	
905.53	4355.3	
905.69	4355.3	
905.86	4355.3	
906.02	4355.3	
906.18	4355.3	
906.35	4355.3	
906.51	4355.3	
906.68	4355.3	
906.84	4355.3	
907.01	4355.3	
907.17	4355.3	
907.33	4355.3	
907.5	4355.3	
907.66	4355.3	
907.83	4355.3	
907.99	4355.3	
908.15	4355.3	
908.32	4355.3	
908.48	4355.3	
908.65	4355.3	
908.81	4355.3	
908.97	4355.3	
909.14	4355.3	
909.3	4355.3	
909.47	4355.3	
909.63	4355.3	
909.79	4355.3	
909.96	4355.3	
910.12	4355.3	
910.28	4355.3	
910.45	4355.3	
910.61	4355.3	
910.78	4355.3	
910.94	4355.3	
911.1	4355.3	
911.27	4355.3	
911.43	4355.3	
911.59	4355.3	
911.76	4355.3	
911.92	4355.3	
912.08	4355.3	
912.25	4355.3	
912.41	4355.3	
912.57	4355.3	
912.74	4355.3	
912.9	4355.3	
913.07	4355.3	
913.23	4355.3	
913.39	4355.3	
913.56	4355.3	
913.72	4355.3	
913.88	4355.3	
914.05	4355.3	
914.21	4355.3	
914.37	4355.3	
914.54	4355.3	
914.7	4355.3	
914.86	4355.3	
915.03	4355.3	
915.19	4355.3	
