Wavelength	Intensities	
nm	a.u.	
179.22	1780	
179.44	1775.6	
179.65	1784.5	
179.86	1766.7	
180.08	1793.3	
180.29	4399	
180.51	3166.2	
180.72	5247.6	
180.94	5986.9	
181.15	2905.4	
181.37	2884.9	
181.58	5010	
181.79	5305.6	
182.01	3028.9	
182.22	3268.6	
182.44	5290.6	
182.65	4526	
182.87	3976.5	
183.08	3479.5	
183.29	5563.6	
183.51	4618.9	
183.72	3223.5	
183.94	4670.1	
184.15	4992.9	
184.37	4965.6	
184.58	2908.8	
184.79	3824.9	
185.01	4645.5	
185.22	5317.2	
185.44	4083.6	
185.65	3467.2	
185.86	4941.7	
186.08	4627	
186.29	2820.7	
186.51	3066.5	
186.72	4718.5	
186.94	5474.9	
187.15	3449.5	
187.36	3543.7	
187.58	6987	
187.79	5063.3	
188.01	3658.4	
188.22	5634	
188.43	6023.1	
188.65	5258.5	
188.86	3022.1	
189.08	3527.3	
189.29	4822.3	
189.5	4849.6	
189.72	3255.6	
189.93	3425.6	
190.15	5454.4	
190.36	6444.3	
190.57	3586	
190.79	3491.1	
191	5494	
191.22	5431.2	
191.43	3610.6	
191.64	3112.2	
191.86	5728.2	
192.07	5515.9	
192.29	3184.6	
192.5	3266.5	
192.71	5441.5	
192.93	4766.3	
193.14	3226.9	
193.35	3368.9	
193.57	4800.4	
193.78	5481.7	
194	2716.3	
194.21	3224.2	
194.42	4661.9	
194.64	4989.5	
194.85	3545	
195.07	4070	
195.28	5003.2	
195.49	4427.7	
195.71	4285.7	
195.92	3097.9	
196.13	5177.9	
196.35	5231.9	
196.56	4650.9	
196.78	3545.7	
196.99	6389.7	
197.2	5981.4	
197.42	4024.3	
197.63	3575.1	
197.84	4507.6	
198.06	5150	
198.27	3273.3	
198.48	4317.8	
198.7	4780	
198.91	4965.6	
199.13	3623.5	
199.34	3573.7	
199.55	5394.3	
199.77	4388.8	
199.98	3213.3	
200.19	3629	
200.41	4960.9	
200.62	4612	
200.83	3749.1	
201.05	3933.5	
201.26	4945.8	
201.47	4688.5	
201.69	3196.2	
201.9	3084.2	
202.11	4993.6	
202.33	5807.4	
202.54	3368.9	
202.76	3775.1	
202.97	5065.3	
203.18	5031.9	
203.4	3771.7	
203.61	3662.5	
203.82	5089.2	
204.04	4730.1	
204.25	3637.9	
204.46	3502.7	
204.68	4995	
204.89	5239.4	
205.1	3513.6	
205.32	3079.5	
205.53	5359.5	
205.74	5444.2	
205.96	2661.7	
206.17	3685	
206.38	5307.7	
206.6	5383.4	
206.81	4042.7	
207.02	3390.8	
207.24	5210	
207.45	5582.8	
207.66	3451.5	
207.88	2995.5	
208.09	5133.6	
208.3	5042.8	
208.52	3156.6	
208.73	3474.7	
208.94	5008	
209.15	5556.8	
209.37	3472.7	
209.58	3865.2	
209.79	5449.6	
210.01	4823	
210.22	2802.3	
210.43	2878.1	
210.65	4953.4	
210.86	5308.3	
211.07	3422.2	
211.29	3166.2	
211.5	5236.7	
211.71	4945.8	
211.93	3175.7	
212.14	3162.1	
212.35	4954.7	
212.56	5051	
212.78	3612.6	
212.99	3007.8	
213.2	5778.7	
213.42	4801.1	
213.63	3269.9	
213.84	3485	
214.06	4476.9	
214.27	4569.7	
214.48	3387.3	
214.69	3667.9	
214.91	5524.1	
215.12	5643.5	
215.33	3715.7	
215.55	3977.2	
215.76	6051.7	
215.97	5270.1	
216.18	3526.6	
216.4	3504.1	
216.61	4730.1	
216.82	5416.9	
217.04	3198.2	
217.25	3346.4	
217.46	5520.6	
217.67	5405.3	
217.89	2876	
218.1	2968.2	
218.31	5074.2	
218.53	5180	
218.74	3330	
218.95	3182.5	
219.16	4958.8	
219.38	5771.2	
219.59	3221.5	
219.8	3784.6	
220.01	6251.1	
220.23	5030.5	
220.44	4148.5	
220.65	3124.5	
220.87	5055.8	
221.08	5572.5	
221.29	2972.3	
221.5	3951.9	
221.72	6613.6	
221.93	4748.6	
222.14	3627	
222.35	4222.2	
222.57	4991.6	
222.78	5298.8	
222.99	3407.1	
223.2	3727.3	
223.42	5268.7	
223.63	5319.9	
223.84	2688.3	
224.05	2677.4	
224.27	6236.1	
224.48	5745.2	
224.69	4212.7	
224.9	3661.8	
225.12	5137.7	
225.33	5023.7	
225.54	2926.5	
225.75	3246	
225.97	4597	
226.18	4947.9	
226.39	3446	
226.6	3218	
226.82	4723.3	
227.03	4625	
227.24	3602.4	
227.45	2996.9	
227.67	5317.2	
227.88	5771.2	
228.09	3992.2	
228.3	3990.1	
228.52	5393.7	
228.73	4979.3	
228.94	3355.3	
229.15	2938.8	
229.36	4943.1	
229.58	4924	
229.79	3400.3	
230	3908.2	
230.21	5915.2	
230.43	5059.2	
230.64	3536.8	
230.85	3665.9	
231.06	5403.9	
231.28	5378.6	
231.49	3039.2	
231.7	3493.2	
231.91	5242.8	
232.12	5012.7	
232.34	3061	
232.55	3436.5	
232.76	5554.8	
232.97	5126.7	
233.18	3141.6	
233.4	3542.3	
233.61	5214.8	
233.82	4779.3	
234.03	3302.7	
234.25	3305.4	
234.46	6753.5	
234.67	5013.4	
234.88	3711.6	
235.09	3239.9	
235.31	5193	
235.52	4902.8	
235.73	3588.7	
235.94	3050.8	
236.15	4775.2	
236.37	5964.4	
236.58	3174.4	
236.79	3446	
237	5285.8	
237.21	4607.2	
237.43	3679.5	
237.64	2895.8	
237.85	8535.9	
238.06	4592.9	
238.27	3710.9	
238.48	3056.9	
238.7	5268.7	
238.91	4853.7	
239.12	3395.5	
239.33	3505.4	
239.54	4652.3	
239.76	4900.1	
239.97	3429	
240.18	3463.8	
240.39	6100.9	
240.6	5221.6	
240.82	3540.9	
241.03	2995.5	
241.24	5008	
241.45	5713.2	
241.66	3138.9	
241.87	3700.7	
242.09	5631.9	
242.3	5855.1	
242.51	3762.8	
242.72	3464.5	
242.93	5391.6	
243.14	4917.9	
243.36	3963.5	
243.57	4265.9	
243.78	5683.1	
243.99	5306.3	
244.2	3479.5	
244.41	3149.1	
244.63	4612	
244.84	5249.6	
245.05	3682.9	
245.26	3437.2	
245.47	5231.2	
245.68	5369.1	
245.9	4501.4	
246.11	3608.5	
246.32	4834.6	
246.53	5124	
246.74	5458.5	
246.95	2891.7	
247.16	4578.6	
247.38	5043.5	
247.59	2899.9	
247.8	3439.9	
248.01	4706.9	
248.22	4960.9	
248.43	3134.8	
248.64	3344.3	
248.86	4502.1	
249.07	4763.6	
249.28	3054.2	
249.49	3524.6	
249.7	5450.3	
249.91	5565.7	
250.12	2927.2	
250.34	2994.8	
250.55	5074.9	
250.76	4979.3	
250.97	3598.3	
251.18	3575.1	
251.39	5529.5	
251.6	5144.5	
251.81	3629.7	
252.03	3635.8	
252.24	4787.5	
252.45	5377.3	
252.66	2988	
252.87	3794.2	
253.08	4977.9	
253.29	6324.1	
253.5	3093.1	
253.72	4137.6	
253.93	4864.6	
254.14	5873.6	
254.35	3265.1	
254.56	3394.8	
254.77	5197.7	
254.98	4654.4	
255.19	3269.9	
255.41	4169	
255.62	5068.7	
255.83	5566.4	
256.04	3697.3	
256.25	3573.7	
256.46	5965.7	
256.67	4775.2	
256.88	3545.7	
257.09	3928	
257.31	4647.5	
257.52	4717.2	
257.73	4444.8	
257.94	3283.6	
258.15	4959.5	
258.36	4963.6	
258.57	4061.1	
258.78	2646.7	
258.99	5382.1	
259.2	4860.5	
259.41	3270.6	
259.63	3388.7	
259.84	5706.3	
260.05	5991	
260.26	4285	
260.47	3245.3	
260.68	5520.6	
260.89	4956.1	
261.1	3965.6	
261.31	3168.9	
261.52	5492.7	
261.73	5888.6	
261.95	4173.8	
262.16	3686.3	
262.37	5559.6	
262.58	5667.4	
262.79	4213.4	
263	3377.8	
263.21	5025	
263.42	4809.3	
263.63	3451.5	
263.84	3352.5	
264.05	5436	
264.26	5808.7	
264.47	4040	
264.69	3709.6	
264.9	5652.4	
265.11	5160.9	
265.32	3191.4	
265.53	3217.4	
265.74	5130.2	
265.95	4502.1	
266.16	3497.9	
266.37	3872.7	
266.58	5067.4	
266.79	4862.6	
267	3242.6	
267.21	3043.3	
267.42	4672.1	
267.63	5018.2	
267.84	3475.4	
268.06	2940.9	
268.27	5355.4	
268.48	5611.4	
268.69	3351.2	
268.9	3884.3	
269.11	5625.8	
269.32	4539	
269.53	3430.3	
269.74	3189.4	
269.95	5189.6	
270.16	4503.5	
270.37	3495.2	
270.58	3934.8	
270.79	4863.9	
271	5425.8	
271.21	3715	
271.42	3489.1	
271.63	5143.1	
271.84	4676.2	
272.05	2773.6	
272.26	3123.8	
272.47	5059.8	
272.68	5185.5	
272.89	3348.4	
273.11	3766.2	
273.32	4838.7	
273.53	5771.2	
273.74	3681.6	
273.95	3607.2	
274.16	5453.7	
274.37	5081	
274.58	3816	
274.79	3125.9	
275	5123.3	
275.21	5570.5	
275.42	4476.2	
275.63	3932.8	
275.84	5236	
276.05	6498.9	
276.26	3687	
276.47	3433.1	
276.68	4909	
276.89	5836.7	
277.1	3907.5	
277.31	3061	
277.52	5212.8	
277.73	5418.9	
277.94	3011.2	
278.15	3364.1	
278.36	5206.6	
278.57	4721.9	
278.78	3295.2	
278.99	3732.8	
279.2	4726.7	
279.41	4678.9	
279.62	4311.7	
279.83	3128.6	
280.04	6057.9	
280.25	4659.8	
280.46	4246.8	
280.67	3465.2	
280.88	4737.6	
281.09	5563	
281.3	3645.4	
281.51	4524.6	
281.72	4726	
281.93	5464	
282.14	3260.4	
282.35	3478.1	
282.56	5444.9	
282.77	5362.3	
282.98	3294.5	
283.19	4071.4	
283.4	6501.6	
283.61	4959.5	
283.82	3106.1	
284.03	4240	
284.24	5118.6	
284.45	5555.5	
284.66	4254.3	
284.87	4111.6	
285.08	5531.6	
285.29	5622.4	
285.5	3013.2	
285.71	3366.2	
285.92	5504.9	
286.12	6088.6	
286.33	4222.2	
286.54	3375.7	
286.75	5429.2	
286.96	4923.3	
287.17	3132	
287.38	4174.4	
287.59	4722.6	
287.8	4738.3	
288.01	3389.4	
288.22	3885.7	
288.43	5401.9	
288.64	4609.3	
288.85	4037.2	
289.06	3838.6	
289.27	5401.2	
289.48	5767.8	
289.69	4231.1	
289.9	3848.1	
290.11	5563.6	
290.32	4814.1	
290.53	4082.3	
290.74	3692.5	
290.94	5390.9	
291.15	5425.8	
291.36	3276.8	
291.57	3845.4	
291.78	4829.1	
291.99	4476.9	
292.2	3143.6	
292.41	3757.3	
292.62	5456.5	
292.83	5211.4	
293.04	4518.5	
293.25	3205.8	
293.46	4878.9	
293.67	5474.9	
293.88	3216.7	
294.09	3091.8	
294.29	4688.5	
294.5	5126.7	
294.71	3540.3	
294.92	3308.8	
295.13	4825.7	
295.34	5963	
295.55	2948.4	
295.76	2895.8	
295.97	5375.2	
296.18	5958.2	
296.39	3022.8	
296.6	3232.4	
296.81	5109	
297.01	5335	
297.22	3435.1	
297.43	3259.7	
297.64	4768.4	
297.85	4706.9	
298.06	2713.6	
298.27	2940.9	
298.48	4994.3	
298.69	4741.7	
298.9	3439.2	
299.11	3193.5	
299.31	4634.6	
299.52	4640.7	
299.73	3739.6	
299.94	3654.9	
300.15	5003.2	
300.36	4703.5	
300.57	3674.7	
300.78	3659	
300.99	4939	
301.2	5119.9	
301.4	3244	
301.61	3509.5	
301.82	5354.1	
302.03	5351.3	
302.24	3923.9	
302.45	3090.4	
302.66	5274.9	
302.87	5537	
303.08	3215.3	
303.29	4335.5	
303.49	4805.9	
303.7	4999.1	
303.91	2933.4	
304.12	4182.6	
304.33	4579.9	
304.54	5171.1	
304.75	3336.1	
304.96	3119.7	
305.16	5328.8	
305.37	5847.6	
305.58	2923.1	
305.79	2986.6	
306	5298.1	
306.21	4557.4	
306.42	3284.3	
306.63	4841.4	
306.83	4872.8	
307.04	5417.6	
307.25	3570.3	
307.46	3564.8	
307.67	4386.7	
307.88	5326.8	
308.09	3223.5	
308.29	3286.3	
308.5	5072.1	
308.71	5436.7	
308.92	3431	
309.13	3153.2	
309.34	4963.6	
309.55	4928.1	
309.75	3994.9	
309.96	3650.8	
310.17	5335.6	
310.38	4807.3	
310.59	3906.8	
310.8	3074.7	
311.01	4838.7	
311.21	4967.7	
311.42	3152.5	
311.63	3244.7	
311.84	4828.4	
312.05	5055.8	
312.26	3553.2	
312.46	3917.8	
312.67	4835.3	
312.88	4590.2	
313.09	3153.9	
313.3	3078.8	
313.51	5622.4	
313.71	5980.8	
313.92	3151.1	
314.13	3344.3	
314.34	5173.2	
314.55	4975.9	
314.76	4000.4	
314.96	3485.6	
315.17	5082.4	
315.38	5292.6	
315.59	3177.8	
315.8	3026.9	
316.01	5636	
316.21	5743.9	
316.42	3067.9	
316.63	3512.3	
316.84	4852.3	
317.05	5560.9	
317.26	3667.2	
317.46	3326.6	
317.67	4991.6	
317.88	5353.4	
318.09	3941	
318.3	2964.8	
318.5	4790.9	
318.71	5269.4	
318.92	4932.2	
319.13	3716.4	
319.34	5426.4	
319.54	5504.9	
319.75	3007.1	
319.96	2852.8	
320.17	5325.4	
320.38	5492	
320.58	2914.3	
320.79	3480.2	
321	5490.6	
321.21	5594.4	
321.42	3550.5	
321.62	2903.3	
321.83	4736.3	
322.04	5020.3	
322.25	3366.2	
322.46	3186.6	
322.66	5063.3	
322.87	5253	
323.08	3876.8	
323.29	3106.8	
323.5	5913.9	
323.7	4625.7	
323.91	4223.6	
324.12	3777.1	
324.33	5143.1	
324.53	5328.8	
324.74	3691.8	
324.95	3832.4	
325.16	4539.7	
325.37	4834.6	
325.57	3221.5	
325.78	3202.3	
325.99	5102.9	
326.2	4570.4	
326.4	4398.4	
326.61	2934.7	
326.82	4947.2	
327.03	5109	
327.24	4414.1	
327.44	4123.9	
327.65	5253	
327.86	4307.6	
328.07	3683.6	
328.27	3028.3	
328.48	5606.7	
328.69	4653.7	
328.9	4465.3	
329.1	3389.4	
329.31	4906.9	
329.52	5666	
329.73	3159.3	
329.93	3523.9	
330.14	5027.1	
330.35	5210.7	
330.56	5099.4	
330.76	3915.7	
330.97	4894	
331.18	5145.9	
331.39	3542.3	
331.59	2868.5	
331.8	5506.3	
332.01	5683.8	
332.22	3288.4	
332.42	3713.6	
332.63	5180.7	
332.84	4704.2	
333.05	3542.3	
333.25	3215.3	
333.46	4803.2	
333.67	5048.2	
333.88	3338.2	
334.08	3658.4	
334.29	6468.9	
334.5	5542.5	
334.7	3117.7	
334.91	4387.4	
335.12	4623.6	
335.33	5293.3	
335.53	3510.2	
335.74	5044.8	
335.95	4904.2	
336.16	4663.2	
336.36	3495.2	
336.57	3981.9	
336.78	4649.6	
336.98	5505.6	
337.19	4244.8	
337.4	3417.4	
337.61	5949.3	
337.81	4636.6	
338.02	3252.2	
338.23	4105.5	
338.43	5639.4	
338.64	4743.1	
338.85	3194.1	
339.05	4083	
339.26	5769.1	
339.47	4513	
339.68	3212.6	
339.88	4553.3	
340.09	5289.2	
340.3	5449	
340.5	3668.6	
340.71	2848.7	
340.92	4577.2	
341.13	5600.5	
341.33	3025.5	
341.54	3678.2	
341.75	5278.3	
341.95	4850.3	
342.16	3579.2	
342.37	3871.3	
342.57	4626.4	
342.78	4945.2	
342.99	3921.2	
343.19	2863.7	
343.4	5369.8	
343.61	5220.3	
343.81	3375.7	
344.02	3108.8	
344.23	5352.7	
344.43	5703.6	
344.64	3887	
344.85	3828.3	
345.06	5240.8	
345.26	5526.1	
345.47	3685	
345.68	4266.6	
345.88	4517.8	
346.09	5411.4	
346.3	3765.5	
346.5	2869.2	
346.71	4992.9	
346.92	4741.7	
347.12	2997.5	
347.33	3637.9	
347.54	5558.9	
347.74	5844.2	
347.95	3622.9	
348.16	2760	
348.36	4841.4	
348.57	4638.6	
348.78	3627	
348.98	3863.2	
349.19	5012.1	
349.39	4547.2	
349.6	2983.2	
349.81	3254.2	
350.01	5263.3	
350.22	4784.1	
350.43	3497.2	
350.63	4158.7	
350.84	5043.5	
351.05	4884.4	
351.25	3259	
351.46	3006.4	
351.67	5462.6	
351.87	4745.1	
352.08	3412.6	
352.29	3858.4	
352.49	5471.5	
352.7	5522.7	
352.9	3167.5	
353.11	3852.2	
353.32	5975.3	
353.52	4885.8	
353.73	3128.6	
353.94	3963.5	
354.14	5307.7	
354.35	5111	
354.55	3168.2	
354.76	3546.4	
354.97	5272.2	
355.17	5048.9	
355.38	3063.8	
355.59	4113	
355.79	4814.1	
356	5101.5	
356.2	3535.5	
356.41	3126.6	
356.62	4622.9	
356.82	4997	
357.03	3797.6	
357.24	3462.4	
357.44	4806.6	
357.65	4941.7	
357.85	4515.1	
358.06	3607.2	
358.27	4691.9	
358.47	4784.7	
358.68	3056.9	
358.88	3781.9	
359.09	5241.4	
359.3	5548.6	
359.5	4362.9	
359.71	3956	
359.91	5954.8	
360.12	5367.7	
360.33	3846.8	
360.53	4230.4	
360.74	4867.3	
360.94	4903.5	
361.15	3996.3	
361.36	3343	
361.56	5561.6	
361.77	5081.7	
361.97	4404.5	
362.18	3577.8	
362.38	5535.7	
362.59	4773.1	
362.8	3349.8	
363	3160.7	
363.21	4600.4	
363.41	5213.4	
363.62	3736.2	
363.83	4524.6	
364.03	5272.2	
364.24	5981.4	
364.44	4677.6	
364.65	4663.2	
364.85	5068.7	
365.06	4854.4	
365.27	3385.3	
365.47	3465.2	
365.68	5899.5	
365.88	5070.8	
366.09	3807.2	
366.29	3560.7	
366.5	5320.6	
366.71	5618.3	
366.91	4671.4	
367.12	3969.6	
367.32	6118.6	
367.53	5515.9	
367.73	3928	
367.94	4678.9	
368.14	5520.6	
368.35	6204.7	
368.56	3835.8	
368.76	3371	
368.97	5554.1	
369.17	6915.3	
369.38	3466.5	
369.58	3738.2	
369.79	4758.8	
369.99	5901.6	
370.2	4629.1	
370.4	3764.8	
370.61	5345.2	
370.82	6286.6	
371.02	3715.7	
371.23	3186	
371.43	4700.1	
371.64	5781.4	
371.84	3854.3	
372.05	4734.2	
372.25	6926.2	
372.46	5536.3	
372.66	3779.9	
372.87	3734.1	
373.07	5576.6	
373.28	6935.8	
373.48	4639.3	
373.69	4366.3	
373.9	5217.5	
374.1	5243.5	
374.31	4601.8	
374.51	4229.1	
374.72	5942.5	
374.92	5013.4	
375.13	4679.6	
375.33	4117.1	
375.54	5586.9	
375.74	5149.3	
375.95	4164.9	
376.15	5146.5	
376.36	5631.2	
376.56	5529.5	
376.77	4287.1	
376.97	4597	
377.18	6559	
377.38	5798.5	
377.59	4821.6	
377.79	3873.4	
378	5569.8	
378.2	5905	
378.41	3902.1	
378.61	3794.9	
378.82	6037.4	
379.02	5300.8	
379.23	4021.5	
379.43	4950.6	
379.64	6121.4	
379.84	5709.7	
380.05	3901.4	
380.25	3853.6	
380.46	5862.7	
380.66	5487.9	
380.87	4975.9	
381.07	5289.2	
381.28	6318.7	
381.48	5771.9	
381.69	3924.6	
381.89	3980.6	
382.1	4972.5	
382.3	5922	
382.51	4795	
382.71	5621	
382.91	5789.6	
383.12	6295.5	
383.32	4205.8	
383.53	4339	
383.73	5603.2	
383.94	5506.3	
384.14	4386.1	
384.35	3657	
384.55	5399.8	
384.76	5805.3	
384.96	4210.6	
385.17	4455	
385.37	5742.5	
385.58	5187.5	
385.78	4388.1	
385.98	3578.5	
386.19	5306.3	
386.39	5660.6	
386.6	3997.6	
386.8	4216.8	
387.01	5723.4	
387.21	5785.5	
387.42	4478.9	
387.62	5084.4	
387.83	5300.1	
388.03	5633.3	
388.23	4249.5	
388.44	4948.6	
388.64	5079.6	
388.85	5208.7	
389.05	4607.2	
389.26	5046.2	
389.46	6727.6	
389.67	6236.1	
389.87	4561.5	
390.07	4668	
390.28	5614.2	
390.48	5248.3	
390.69	4035.9	
390.89	4251.6	
391.1	5394.3	
391.3	6139.8	
391.5	5297.4	
391.71	5753.4	
391.91	5982.8	
392.12	6761	
392.32	5354.1	
392.53	4607.9	
392.73	5516.5	
392.93	5613.5	
393.14	4393.6	
393.34	4995.7	
393.55	6004.6	
393.75	5558.9	
393.95	4304.8	
394.16	4255.7	
394.36	5408.7	
394.57	5951.4	
394.77	4014	
394.98	4198.3	
395.18	5350.7	
395.38	5436	
395.59	5014.1	
395.79	4178.5	
396	5534.3	
396.2	5963	
396.4	4915.1	
396.61	4878.3	
396.81	6144.6	
397.02	5572.5	
397.22	5169.1	
397.42	5231.2	
397.63	6135	
397.83	5511.1	
398.04	4187.4	
398.24	4691.2	
398.44	6036.7	
398.65	5163.6	
398.85	4101.4	
399.05	4140.3	
399.26	5539.8	
399.46	6894.8	
399.67	4513.7	
399.87	4246.8	
400.07	5870.8	
400.28	6171.9	
400.48	4363.5	
400.69	5339.7	
400.89	6412.2	
401.09	6723.5	
401.3	4314.4	
401.5	5371.8	
401.7	6982.2	
401.91	7093.5	
402.11	4719.9	
402.32	4844.8	
402.52	6421.1	
402.72	6319.3	
402.93	5015.5	
403.13	4009.9	
403.33	6967.9	
403.54	5810.8	
403.74	4631.8	
403.94	5331.5	
404.15	5848.3	
404.35	6788.3	
404.56	4479.6	
404.76	5977.3	
404.96	6257.9	
405.17	6044.2	
405.37	5487.2	
405.57	4913.1	
405.78	6331	
405.98	5933.6	
406.18	4640.7	
406.39	5330.2	
406.59	6423.8	
406.79	5943.9	
407	4318.5	
407.2	4455	
407.4	6306.4	
407.61	6475.7	
407.81	4450.9	
408.01	6162.3	
408.22	5492	
408.42	7285.3	
408.62	5508.4	
408.83	5117.2	
409.03	6209.4	
409.23	6116.6	
409.44	5261.2	
409.64	5507.7	
409.84	7030	
410.05	7105.8	
410.25	5451	
410.45	5240.1	
410.66	6776	
410.86	8820.6	
411.06	5697.4	
411.27	5561.6	
411.47	8647.9	
411.67	6935.1	
411.88	5825.8	
412.08	6066.1	
412.28	7527	
412.49	7916.8	
412.69	5662	
412.89	5690.6	
413.09	7770	
413.3	7699.7	
413.5	5765.7	
413.7	5552	
413.91	7059.3	
414.11	7743.4	
414.31	5763.7	
414.52	6167.1	
414.72	7540.6	
414.92	7458	
415.12	5770.5	
415.33	6213.5	
415.53	7808.9	
415.73	8044.4	
415.94	6462.7	
416.14	5993.7	
416.34	7068.9	
416.55	6854.6	
416.75	7125.6	
416.95	6650.4	
417.15	7972.1	
417.36	8353	
417.56	7326.3	
417.76	6543.9	
417.97	8323.6	
418.17	7948.8	
418.37	6119.3	
418.57	6181.5	
418.78	7729	
418.98	7552.2	
419.18	7025.9	
419.38	6849.1	
419.59	7551.5	
419.79	7148.8	
419.99	6107.7	
420.2	6277	
420.4	7920.2	
420.6	8049.9	
420.8	5973.2	
421.01	5852.4	
421.21	7847.8	
421.41	7980.3	
421.61	6355.5	
421.82	6055.2	
422.02	7522.9	
422.22	8174.8	
422.42	6763.1	
422.63	6351.4	
422.83	7537.9	
423.03	8468.4	
423.23	6426.5	
423.44	5608.7	
423.64	7591.1	
423.84	7284.6	
424.04	6038.1	
424.25	5762.3	
424.45	8206.2	
424.65	8176.2	
424.85	5472.2	
425.06	6004	
425.26	8333.2	
425.46	7425.9	
425.66	6328.9	
425.87	6148	
426.07	8137.3	
426.27	7846.5	
426.47	6339.8	
426.67	5651	
426.88	8301.8	
427.08	7742.7	
427.28	6404.7	
427.48	5601.9	
427.69	6896.9	
427.89	7482.6	
428.09	6376.7	
428.29	5614.8	
428.5	8004.8	
428.7	7570.7	
428.9	5569.1	
429.1	6036	
429.3	7552.2	
429.51	7976.8	
429.71	5861.3	
429.91	6646.3	
430.11	7914	
430.31	8130.4	
430.52	6112.5	
430.72	6490.7	
430.92	8406.9	
431.12	7958.4	
431.32	5949.3	
431.53	6180.8	
431.73	7111.2	
431.93	8454	
432.13	5810.8	
432.33	5728.9	
432.54	7505.1	
432.74	7753.6	
432.94	5767.8	
433.14	6619	
433.34	8063.5	
433.55	7642.3	
433.75	6598.6	
433.95	8157.1	
434.15	7883.3	
434.35	7567.2	
434.56	6029.9	
434.76	5599.8	
434.96	7880.6	
435.16	8069.7	
435.36	5893.4	
435.56	6987	
435.77	7644.4	
435.97	7781.6	
436.17	7547.4	
436.37	6859.3	
436.57	7626	
436.78	7644.4	
436.98	8271.7	
437.18	7344	
437.38	8353.7	
437.58	7872.4	
437.78	7496.2	
437.99	6387.6	
438.19	8135.9	
438.39	8947.6	
438.59	6303	
438.79	5803.3	
438.99	8688.2	
439.2	7709.9	
439.4	5752.1	
439.6	5776.6	
439.8	7892.2	
440	8870.4	
440.2	6753.5	
440.4	6875	
440.61	8447.2	
440.81	8944.2	
441.01	6340.5	
441.21	7002.7	
441.41	8984.4	
441.61	8549.6	
441.81	7443.7	
442.02	8301.8	
442.22	9346.9	
442.42	8662.2	
442.62	6404	
442.82	6393.8	
443.02	8914.1	
443.22	8255.4	
443.43	6868.2	
443.63	6397.2	
443.83	8000.7	
444.03	8079.2	
444.23	7625.3	
444.43	7238.2	
444.63	8514.1	
444.83	9396.1	
445.04	6670.9	
445.24	7785.7	
445.44	8770.8	
445.64	8806.3	
445.84	7164.5	
446.04	7252.5	
446.24	8116.1	
446.44	8998.1	
446.65	6466.8	
446.85	6859.3	
447.05	8074.5	
447.25	8888.9	
447.45	6853.9	
447.65	6393.8	
447.85	8344.1	
448.05	7959.8	
448.25	7305.1	
448.46	7109.9	
448.66	8374.1	
448.86	8030.8	
449.06	6413.6	
449.26	7249.8	
449.46	8679.3	
449.66	7885.4	
449.86	6895.5	
450.06	6819.1	
450.26	8093.6	
450.47	8491.6	
450.67	7078.5	
450.87	7421.2	
451.07	8702.5	
451.27	8487.5	
451.47	6483.9	
451.67	7038.9	
451.87	8273.1	
452.07	9185.8	
452.27	6759	
452.47	6707.8	
452.67	8534.6	
452.88	8979	
453.08	6229.9	
453.28	7839.6	
453.48	9609.8	
453.68	8374.1	
453.88	6694.1	
454.08	6909.2	
454.28	8767.4	
454.48	8481.3	
454.68	7358.4	
454.88	7742.7	
455.08	8968.1	
455.28	8823.3	
455.48	6622.4	
455.68	7295.5	
455.89	9389.9	
456.09	9079.3	
456.29	7008.1	
456.49	7148.8	
456.69	9304.6	
456.89	8655.4	
457.09	7498.3	
457.29	7951.6	
457.49	9027.4	
457.69	9112.8	
457.89	7531.1	
458.09	6926.9	
458.29	8868.4	
458.49	9502.6	
458.69	7887.4	
458.89	7478.5	
459.09	9798.8	
459.29	9906.7	
459.49	7532.4	
459.69	8170.7	
459.9	9429.5	
460.1	9066.4	
460.3	7271.7	
460.5	7305.1	
460.7	9452.7	
460.9	9097.8	
461.1	7040.9	
461.3	8116.1	
461.5	10042	
461.7	9707.4	
461.9	7570	
462.1	7834.8	
462.3	9357.9	
462.5	9835	
462.7	7615	
462.9	7714	
463.1	10793	
463.3	10634	
463.5	7934.5	
463.7	8758.5	
463.9	9667.8	
464.1	9992.7	
464.3	8311.3	
464.5	8320.2	
464.7	10258	
464.9	10139	
465.1	9491	
465.3	8800.1	
465.5	10600	
465.7	10717	
465.9	8983.8	
466.1	8667.7	
466.3	10548	
466.5	10409	
466.7	9671.2	
466.9	8523.6	
467.1	10446	
467.3	11142	
467.5	9690.3	
467.7	8750.3	
467.9	11443	
468.1	12217	
468.3	9290.3	
468.5	9785.9	
468.7	10559	
468.9	10476	
469.1	9050.7	
469.3	9723.8	
469.5	12154	
469.7	10253	
469.9	9381.7	
470.1	8876.6	
470.3	10631	
470.5	10574	
470.7	9955.2	
470.9	8854.7	
471.1	10405	
471.3	10583	
471.5	8762.6	
471.69	10406	
471.89	10222	
472.09	9817.3	
472.29	9491	
472.49	9657.5	
472.69	9965.4	
472.89	10692	
473.09	8677.9	
473.29	8692.9	
473.49	10118	
473.69	10085	
473.89	9478.7	
474.09	8787.8	
474.29	11310	
474.49	11002	
474.69	9485.5	
474.89	8961.2	
475.09	10294	
475.29	10131	
475.49	8320.9	
475.69	8696.4	
475.88	11505	
476.08	10615	
476.28	8413.1	
476.48	8595.3	
476.68	10816	
476.88	10628	
477.08	8521.6	
477.28	8815.1	
477.48	10086	
477.68	10704	
477.88	8407.6	
478.08	8695.7	
478.28	11052	
478.48	10292	
478.67	8798.1	
478.87	8187.8	
479.07	10956	
479.27	10339	
479.47	8939.4	
479.67	8897.1	
479.87	10733	
480.07	11155	
480.27	8295	
480.47	9611.8	
480.67	10426	
480.87	11011	
481.06	8487.5	
481.26	9197.4	
481.46	10500	
481.66	10266	
481.86	8921.6	
482.06	9746.3	
482.26	10135	
482.46	10972	
482.66	8834.3	
482.86	8509.3	
483.05	10561	
483.25	10043	
483.45	10988	
483.65	8876.6	
483.85	10077	
484.05	10451	
484.25	9336	
484.45	9823.4	
484.65	11151	
484.84	11297	
485.04	8815.1	
485.24	8950.3	
485.44	11505	
485.64	10060	
485.84	8449.2	
486.04	9635.7	
486.24	10423	
486.44	10667	
486.63	8444.5	
486.83	9221.3	
487.03	10434	
487.23	10587	
487.43	8654	
487.63	10614	
487.83	10684	
488.02	11622	
488.22	9532.6	
488.42	10049	
488.62	11330	
488.82	10555	
489.02	9107.3	
489.22	9280.7	
489.41	11295	
489.61	11017	
489.81	8970.1	
490.01	9038.4	
490.21	11393	
490.41	11942	
490.61	9020.6	
490.8	9149	
491	10966	
491.2	10278	
491.4	9543.5	
491.6	8795.3	
491.8	10804	
491.99	10844	
492.19	8563.9	
492.39	8802.9	
492.59	11258	
492.79	11288	
492.99	9658.9	
493.18	8974.2	
493.38	11447	
493.58	12227	
493.78	9699.2	
493.98	9383.8	
494.18	11402	
494.37	10954	
494.57	10109	
494.77	9959.3	
494.97	11688	
495.17	11922	
495.37	9697.1	
495.56	10071	
495.76	12134	
495.96	11834	
496.16	10916	
496.36	10066	
496.55	12243	
496.75	11890	
496.95	10482	
497.15	10307	
497.35	12192	
497.54	12137	
497.74	10083	
497.94	11482	
498.14	12783	
498.34	12589	
498.53	9943.6	
498.73	10631	
498.93	11650	
499.13	12260	
499.33	10520	
499.52	10722	
499.72	12329	
499.92	12588	
500.12	10208	
500.32	10587	
500.51	12441	
500.71	12261	
500.91	11155	
501.11	10869	
501.31	12609	
501.5	12861	
501.7	11354	
501.9	10629	
502.1	12191	
502.29	12633	
502.49	10951	
502.69	11268	
502.89	12580	
503.09	12516	
503.28	10137	
503.48	10053	
503.68	11753	
503.88	11753	
504.07	10917	
504.27	10353	
504.47	12056	
504.67	12137	
504.86	10759	
505.06	10605	
505.26	11751	
505.46	13087	
505.65	10402	
505.85	10578	
506.05	11588	
506.25	12007	
506.44	9602.2	
506.64	10534	
506.84	11362	
507.04	12076	
507.23	9906.7	
507.43	10338	
507.63	12996	
507.83	11547	
508.02	10269	
508.22	9888.3	
508.42	13327	
508.62	11436	
508.81	10160	
509.01	10632	
509.21	11200	
509.4	11456	
509.6	10335	
509.8	9798.2	
510	11409	
510.19	12781	
510.39	9818.6	
510.59	9862.3	
510.79	11393	
510.98	12540	
511.18	9958.6	
511.38	10106	
511.57	12198	
511.77	11873	
511.97	10540	
512.17	9944.9	
512.36	12072	
512.56	11858	
512.76	9786.6	
512.95	9590	
513.15	12156	
513.35	10811	
513.55	10502	
513.74	9841.9	
513.94	12099	
514.14	11570	
514.33	10726	
514.53	10505	
514.73	11566	
514.92	11688	
515.12	9942.9	
515.32	9719.7	
515.51	11776	
515.71	12168	
515.91	11401	
516.11	9903.3	
516.3	13220	
516.5	11610	
516.7	10371	
516.89	10873	
517.09	11569	
517.29	11484	
517.48	10731	
517.68	10183	
517.88	11289	
518.07	11959	
518.27	10534	
518.47	9688.9	
518.66	12237	
518.86	11183	
519.06	9629.5	
519.25	10010	
519.45	11451	
519.65	12845	
519.84	10607	
520.04	11222	
520.24	13082	
520.43	11929	
520.63	10408	
520.83	10012	
521.02	11258	
521.22	11827	
521.42	10370	
521.61	10815	
521.81	11368	
522.01	11591	
522.2	10331	
522.4	10056	
522.6	12026	
522.79	10934	
522.99	10243	
523.18	9738.1	
523.38	11882	
523.58	11959	
523.77	11389	
523.97	9847.3	
524.17	13681	
524.36	12974	
524.56	11166	
524.76	10816	
524.95	12268	
525.15	11949	
525.34	10801	
525.54	10687	
525.74	12523	
525.93	11751	
526.13	11837	
526.33	10849	
526.52	12961	
526.72	12553	
526.91	11824	
527.11	11262	
527.31	12984	
527.5	13396	
527.7	11272	
527.89	10480	
528.09	12238	
528.29	12801	
528.48	11630	
528.68	11359	
528.87	13020	
529.07	12973	
529.27	11220	
529.46	10864	
529.66	12777	
529.85	13213	
530.05	10712	
530.25	11357	
530.44	13997	
530.64	12518	
530.83	11142	
531.03	11305	
531.23	13144	
531.42	12910	
531.62	11987	
531.81	11230	
532.01	13208	
532.21	13651	
532.4	11332	
532.6	11725	
532.79	14298	
532.99	13591	
533.18	11835	
533.38	12522	
533.58	13217	
533.77	13753	
533.97	11837	
534.16	12344	
534.36	14087	
534.55	13400	
534.75	12624	
534.95	11853	
535.14	14186	
535.34	13374	
535.53	11598	
535.73	13189	
535.92	14446	
536.12	13240	
536.31	11578	
536.51	12509	
536.71	13627	
536.9	13191	
537.1	11542	
537.29	11759	
537.49	13995	
537.68	13160	
537.88	12170	
538.07	11512	
538.27	13431	
538.46	14160	
538.66	11486	
538.86	11826	
539.05	13518	
539.25	13915	
539.44	12203	
539.64	11768	
539.83	13327	
540.03	14176	
540.22	11612	
540.42	11619	
540.61	13455	
540.81	13530	
541	12059	
541.2	12540	
541.39	12955	
541.59	13321	
541.78	12212	
541.98	11415	
542.18	12817	
542.37	12720	
542.57	11751	
542.76	12119	
542.96	12663	
543.15	13274	
543.35	11680	
543.54	10991	
543.74	13402	
543.93	12982	
544.13	11413	
544.32	12455	
544.52	13206	
544.71	12519	
544.91	10856	
545.1	11667	
545.3	12529	
545.49	13113	
545.69	10613	
545.88	11170	
546.08	13985	
546.27	13535	
546.47	11550	
546.66	10922	
546.86	13258	
547.05	13778	
547.24	11129	
547.44	11095	
547.63	12334	
547.83	13346	
548.02	11378	
548.22	11413	
548.41	12052	
548.61	13280	
548.8	10900	
549	10901	
549.19	12722	
549.39	13041	
549.58	10547	
549.78	11034	
549.97	12910	
550.17	12551	
550.36	11699	
550.55	12485	
550.75	12395	
550.94	13098	
551.14	10746	
551.33	10813	
551.53	11869	
551.72	12699	
551.92	10962	
552.11	10782	
552.31	12722	
552.5	12670	
552.69	12125	
552.89	10337	
553.08	12714	
553.28	12418	
553.47	10756	
553.67	11651	
553.86	13140	
554.06	11723	
554.25	10104	
554.44	10456	
554.64	13638	
554.83	13306	
555.03	10455	
555.22	10687	
555.42	12790	
555.61	12487	
555.8	10539	
556	10884	
556.19	11800	
556.39	12721	
556.58	10588	
556.78	10664	
556.97	12372	
557.16	12179	
557.36	11615	
557.55	10320	
557.75	11439	
557.94	13039	
558.13	10352	
558.33	10198	
558.52	12822	
558.72	11889	
558.91	10215	
559.1	10392	
559.3	11556	
559.49	11291	
559.69	9785.9	
559.88	10690	
560.07	12209	
560.27	12578	
560.46	10744	
560.66	10865	
560.85	12053	
561.04	11279	
561.24	10147	
561.43	10198	
561.63	11462	
561.82	11656	
562.01	11372	
562.21	10511	
562.4	11976	
562.59	12899	
562.79	10363	
562.98	10172	
563.18	12089	
563.37	13261	
563.56	10887	
563.76	10139	
563.95	11629	
564.14	11492	
564.34	10505	
564.53	10189	
564.73	12210	
564.92	12405	
565.11	10587	
565.31	10136	
565.5	12693	
565.69	11665	
565.89	10362	
566.08	10539	
566.27	12490	
566.47	12856	
566.66	11107	
566.85	9998.2	
567.05	12268	
567.24	11697	
567.44	10273	
567.63	11405	
567.82	12478	
568.02	12269	
568.21	10261	
568.4	10583	
568.6	12102	
568.79	12149	
568.98	10063	
569.18	10264	
569.37	12156	
569.56	13841	
569.76	10647	
569.95	11460	
570.14	12495	
570.34	12527	
570.53	10250	
570.72	10265	
570.91	12837	
571.11	12101	
571.3	10661	
571.49	11415	
571.69	12274	
571.88	11811	
572.07	11031	
572.27	11109	
572.46	11727	
572.65	12508	
572.85	10551	
573.04	10631	
573.23	12925	
573.43	12204	
573.62	10259	
573.81	10942	
574	12430	
574.2	12232	
574.39	10648	
574.58	10731	
574.78	13189	
574.97	12504	
575.16	11240	
575.36	11392	
575.55	13007	
575.74	12973	
575.93	10444	
576.13	11312	
576.32	12367	
576.51	12927	
576.71	10836	
576.9	12045	
577.09	13154	
577.28	12585	
577.48	11249	
577.67	10424	
577.86	12407	
578.05	12724	
578.25	10965	
578.44	11074	
578.63	12650	
578.83	13583	
579.02	10596	
579.21	11853	
579.4	12746	
579.6	12533	
579.79	11096	
579.98	13026	
580.17	12953	
580.37	13213	
580.56	10707	
580.75	11392	
580.94	13444	
581.14	13413	
581.33	11740	
581.52	10790	
581.71	13016	
581.91	13432	
582.1	10649	
582.29	11126	
582.48	12628	
582.68	12588	
582.87	11506	
583.06	11211	
583.25	13041	
583.45	12862	
583.64	11804	
583.83	12388	
584.02	12629	
584.21	13022	
584.41	11777	
584.6	11230	
584.79	12710	
584.98	13254	
585.18	10673	
585.37	10573	
585.56	12389	
585.75	12955	
585.94	10857	
586.14	11473	
586.33	13345	
586.52	12668	
586.71	11074	
586.91	10956	
587.1	11988	
587.29	12917	
587.48	10833	
587.67	10673	
587.87	12691	
588.06	12566	
588.25	11819	
588.44	11134	
588.63	12372	
588.83	12697	
589.02	10651	
589.21	10553	
589.4	12085	
589.59	11871	
589.78	9724.4	
589.98	9909.4	
590.17	11299	
590.36	11711	
590.55	9129.2	
590.74	9647.3	
590.94	12686	
591.13	11407	
591.32	9593.4	
591.51	9187.9	
591.7	11744	
591.89	11502	
592.09	9355.8	
592.28	9800.2	
592.47	10774	
592.66	12510	
592.85	9354.4	
593.05	9603.6	
593.24	11325	
593.43	12076	
593.62	9594.7	
593.81	10136	
594	11418	
594.19	11479	
594.39	9512.8	
594.58	9506	
594.77	11745	
594.96	12098	
595.15	9510.8	
595.34	9977	
595.54	11574	
595.73	10829	
595.92	8899.8	
596.11	9763.3	
596.3	11819	
596.49	10833	
596.68	9557.2	
596.88	9966.8	
597.07	11734	
597.26	10794	
597.45	9077.3	
597.64	10210	
597.83	10927	
598.02	11499	
598.22	9227.5	
598.41	9828.2	
598.6	11303	
598.79	10752	
598.98	9355.1	
599.17	10021	
599.36	11327	
599.55	12121	
599.74	11051	
599.94	10744	
600.13	11706	
600.32	10658	
600.51	8968.7	
600.7	9206.3	
600.89	12203	
601.08	12332	
601.27	8999.5	
601.47	9839.8	
601.66	11651	
601.85	12088	
602.04	9600.2	
602.23	9702.6	
602.42	10784	
602.61	11303	
602.8	9347.6	
602.99	9284.1	
603.18	11030	
603.37	11219	
603.57	9747	
603.76	10280	
603.95	11908	
604.14	11457	
604.33	9288.9	
604.52	9654.8	
604.71	11303	
604.9	10941	
605.09	10294	
605.28	9956.5	
605.47	11760	
605.66	11394	
605.86	9782.5	
606.05	9296.4	
606.24	11657	
606.43	10505	
606.62	9587.9	
606.81	10089	
607	11481	
607.19	10990	
607.38	8964.6	
607.57	9159.2	
607.76	10785	
607.95	10210	
608.14	9614.5	
608.33	9981.8	
608.52	10699	
608.72	11564	
608.91	8929.8	
609.1	8730.5	
609.29	10821	
609.48	10262	
609.67	9590.6	
609.86	8845.9	
610.05	10519	
610.24	10697	
610.43	8668.4	
610.62	8449.9	
610.81	11518	
611	11426	
611.19	8850	
611.38	9428.8	
611.57	10918	
611.76	12046	
611.95	8505.2	
612.14	8413.7	
612.33	10704	
612.52	10252	
612.71	9025.4	
612.9	8361.9	
613.09	10045	
613.28	12002	
613.47	9078.6	
613.66	9551	
613.85	10864	
614.04	10412	
614.24	8855.4	
614.43	8167.3	
614.62	10844	
614.81	10851	
615	9309.4	
615.19	9350.3	
615.38	10245	
615.57	10658	
615.76	9250	
615.95	10084	
616.14	11025	
616.33	10680	
616.52	9577.7	
616.71	9739.5	
616.9	10910	
617.09	10710	
617.28	8951	
617.47	10021	
617.66	10177	
617.85	10284	
618.04	9785.2	
618.22	9313.5	
618.41	10620	
618.6	11405	
618.79	9236.3	
618.98	9082.1	
619.17	11660	
619.36	10247	
619.55	9185.1	
619.74	9354.4	
619.93	11158	
620.12	10515	
620.31	9852.1	
620.5	10028	
620.69	11617	
620.88	11952	
621.07	10608	
621.26	9654.8	
621.45	11396	
621.64	11241	
621.83	9847.3	
622.02	9232.2	
622.21	11348	
622.4	11141	
622.59	10364	
622.78	10170	
622.97	10860	
623.16	11669	
623.35	9847.3	
623.54	9129.2	
623.72	10989	
623.91	11067	
624.1	10092	
624.29	8954.4	
624.48	12131	
624.67	11531	
624.86	9878	
625.05	9143.5	
625.24	12128	
625.43	10824	
625.62	11402	
625.81	9301.2	
626	11588	
626.19	11090	
626.38	10035	
626.56	9463	
626.75	10877	
626.94	11566	
627.13	10055	
627.32	8957.1	
627.51	11494	
627.7	12474	
627.89	9118.2	
628.08	9943.6	
628.27	10768	
628.46	10893	
628.65	9204.3	
628.83	8965.3	
629.02	11462	
629.21	10776	
629.4	9591.3	
629.59	9778.4	
629.78	10687	
629.97	11570	
630.16	9868.5	
630.35	9310.1	
630.54	11970	
630.72	11660	
630.91	9402.9	
631.1	9783.8	
631.29	11196	
631.48	11223	
631.67	9893.7	
631.86	9265	
632.05	10986	
632.24	10827	
632.42	9100.5	
632.61	9681.4	
632.8	10979	
632.99	10652	
633.18	9626.8	
633.37	9880.8	
633.56	11234	
633.75	11101	
633.93	9665	
634.12	9349.7	
634.31	11808	
634.5	11512	
634.69	9377	
634.88	9840.5	
635.07	11030	
635.25	11384	
635.44	10116	
635.63	10379	
635.82	10851	
636.01	10329	
636.2	10079	
636.39	9622.7	
636.57	11792	
636.76	11428	
636.95	9131.9	
637.14	10350	
637.33	11170	
637.52	11921	
637.7	8990.6	
637.89	9800.2	
638.08	10755	
638.27	11923	
638.46	9819.3	
638.65	10217	
638.83	11917	
639.02	10537	
639.21	9667.1	
639.4	10066	
639.59	11002	
639.78	10568	
639.96	8968.1	
640.15	9069.8	
640.34	10824	
640.53	10932	
640.72	8723.7	
640.91	9011.1	
641.09	10312	
641.28	11368	
641.47	8972.8	
641.66	9730.6	
641.85	10794	
642.03	10953	
642.22	9453.4	
642.41	8978.3	
642.6	10312	
642.79	9792	
642.97	8822	
643.16	9458.2	
643.35	10226	
643.54	10045	
643.73	8716.2	
643.91	9325.8	
644.1	9797.5	
644.29	10453	
644.48	8706.6	
644.67	8683.4	
644.85	9952.4	
645.04	10242	
645.23	8244.4	
645.42	8571.4	
645.6	9720.3	
645.79	10722	
645.98	8416.5	
646.17	7595.9	
646.36	9443.2	
646.54	9889	
646.73	8907.3	
646.92	7933.1	
647.11	9514.2	
647.29	10348	
647.48	7910.6	
647.67	7757.7	
647.86	10562	
648.05	10710	
648.23	8230.8	
648.42	9271.2	
648.61	10041	
648.8	9806.4	
648.98	7829.4	
649.17	8268.3	
649.36	9450.7	
649.55	9059.5	
649.73	8006.2	
649.92	8592.6	
650.11	9407	
650.3	9631.6	
650.48	8075.1	
650.67	7778.2	
650.86	9866.4	
651.05	8919.6	
651.23	7894.9	
651.42	7963.9	
651.61	9347.6	
651.79	9379	
651.98	8075.8	
652.17	7787.7	
652.36	9709.4	
652.54	8966	
652.73	7790.5	
652.92	7658.7	
653.11	9717.6	
653.29	9769.5	
653.48	7105.8	
653.67	8014.4	
653.85	9448.6	
654.04	10322	
654.23	8090.2	
654.42	7671	
654.6	9058.8	
654.79	9414.5	
654.98	7094.8	
655.16	7570	
655.35	8441	
655.54	8317.5	
655.73	7082.6	
655.91	6955.6	
656.1	9344.2	
656.29	8355.7	
656.47	6675	
656.66	8178.2	
656.85	8735.3	
657.03	8719.6	
657.22	7277.8	
657.41	7344.7	
657.59	8916.2	
657.78	8632.2	
657.97	7083.9	
658.16	7709.9	
658.34	9439.1	
658.53	9807	
658.72	8404.9	
658.9	8925	
659.09	8998.8	
659.28	8991.9	
659.46	7486	
659.65	7352.9	
659.84	8748.9	
660.02	9210.4	
660.21	7374.1	
660.4	7307.8	
660.58	9533.3	
660.77	9136	
660.96	7797.3	
661.14	7010.9	
661.33	10066	
661.52	9899.9	
661.7	6935.8	
661.89	9899.2	
662.08	8673.1	
662.26	8316.1	
662.45	7203.4	
662.64	7269.6	
662.82	9269.8	
663.01	8570.1	
663.2	7228.6	
663.38	7918.1	
663.57	9149	
663.75	9022.7	
663.94	7463.5	
664.13	8561.9	
664.31	8530.5	
664.5	9222	
664.69	7840.3	
664.87	8160.5	
665.06	8344.1	
665.25	8951	
665.43	8394.6	
665.62	8398	
665.8	9303.2	
665.99	8697	
666.18	7475.1	
666.36	7532.4	
666.55	9135.3	
666.74	9121.7	
666.92	7139.2	
667.11	8451.3	
667.29	8725	
667.48	9146.2	
667.67	8178.9	
667.85	7391.1	
668.04	8675.9	
668.22	8716.8	
668.41	7475.8	
668.6	7592.5	
668.78	8516.8	
668.97	8734.6	
669.15	7792.5	
669.34	6896.2	
669.53	8548.2	
669.71	8750.3	
669.9	7027.9	
670.08	7520.8	
670.27	8471.8	
670.46	8974.2	
670.64	7781.6	
670.83	7952.3	
671.01	8378.9	
671.2	8857.5	
671.38	7108.5	
671.57	6930.3	
671.76	9450.7	
671.94	9871.2	
672.13	6982.2	
672.31	7839.6	
672.5	9101.2	
672.69	8461.5	
672.87	7108.5	
673.06	7412.3	
673.24	8948.3	
673.43	8479.3	
673.61	7677.2	
673.8	7330.4	
673.98	9098.4	
674.17	9235.7	
674.36	7808.2	
674.54	7629.4	
674.73	8766	
674.91	9088.2	
675.1	7466.2	
675.28	7133.8	
675.47	8723	
675.65	9113.5	
675.84	7301	
676.03	7593.2	
676.21	8442.4	
676.4	8084	
676.58	7993.2	
676.77	7733.1	
676.95	9780.4	
677.14	8411	
677.32	6989	
677.51	6924.9	
677.69	9088.9	
677.88	8145.5	
678.06	6905.8	
678.25	7031.4	
678.44	8690.2	
678.62	8356.4	
678.81	6804.7	
678.99	7607.5	
679.18	9414.5	
679.36	9013.8	
679.55	7242.3	
679.73	7755.7	
679.92	8886.1	
680.1	8469.7	
680.29	8264.2	
680.47	7264.1	
680.66	8414.4	
680.84	9050	
681.03	6685.9	
681.21	7460.8	
681.4	8514.8	
681.58	8301.8	
681.77	7043	
681.95	6984.9	
682.14	9163.3	
682.32	9293	
682.51	7763.8	
682.69	6847.7	
682.88	8331.1	
683.06	8839	
683.25	7488.1	
683.43	7853.3	
683.62	8581.7	
683.8	8843.1	
683.99	7989.8	
684.17	7289.4	
684.36	9627.5	
684.54	8456.1	
684.73	6538.5	
684.91	6649.8	
685.1	8570.1	
685.28	7953.6	
685.46	7032	
685.65	7054.6	
685.83	8547.5	
686.02	7976.8	
686.2	6541.2	
686.39	6671.6	
686.57	7991.9	
686.76	9154.4	
686.94	6630.6	
687.13	6866.2	
687.31	8529.8	
687.5	8183	
687.68	6329.6	
687.86	7451.2	
688.05	9623.4	
688.23	7730.4	
688.42	7415.7	
688.6	6694.8	
688.79	8158.4	
688.97	8110.6	
689.16	7145.4	
689.34	6226.5	
689.52	8835.6	
689.71	9024.7	
689.89	7310.6	
690.08	6817	
690.26	8447.9	
690.45	8264.2	
690.63	7447.8	
690.81	6870.3	
691	8162.5	
691.18	8070.4	
691.37	6939.9	
691.55	8738	
691.74	8008.2	
691.92	9630.9	
692.1	6960.4	
692.29	6486.6	
692.47	8171.4	
692.66	7505.8	
692.84	6599.9	
693.02	7043.6	
693.21	7631.4	
693.39	8092.9	
693.58	7174	
693.76	6668.2	
693.94	9118.2	
694.13	8983.1	
694.31	6730.3	
694.5	7717.4	
694.68	8025.3	
694.86	8374.8	
695.05	7096.2	
695.23	7199.3	
695.42	8768.7	
695.6	10642	
695.78	7699.7	
695.97	6929.6	
696.15	8730.5	
696.34	8236.2	
696.52	6590.4	
696.7	7328.3	
696.89	8455.4	
697.07	7919.5	
697.25	7178.1	
697.44	8456.7	
697.62	8378.2	
697.81	8593.3	
697.99	6935.1	
698.17	7356.3	
698.36	7789.1	
698.54	8391.2	
698.72	7225.2	
698.91	6290.7	
699.09	7995.3	
699.28	7839.6	
699.46	6946	
699.64	6896.9	
699.83	7783.6	
700.01	8812.4	
700.19	7470.3	
700.38	6175.3	
700.56	8826.1	
700.74	7866.2	
700.93	6462	
701.11	7218.4	
701.29	8474.5	
701.48	9407.7	
701.66	6664.8	
701.84	6798.6	
702.03	8096.3	
702.21	8692.9	
702.39	6318	
702.58	6864.1	
702.76	8427.4	
702.94	8568	
703.13	6334.4	
703.31	8389.8	
703.49	7899	
703.68	8708	
703.86	6462.7	
704.04	7307.8	
704.23	8224.6	
704.41	8581.7	
704.59	6647.7	
704.78	7615	
704.96	9280.7	
705.14	8581	
705.33	6448.4	
705.51	7124.9	
705.69	7980.9	
705.87	8774.9	
706.06	7359.7	
706.24	6394.4	
706.42	8369.4	
706.61	8621.3	
706.79	7323.5	
706.97	6430.6	
707.16	7845.8	
707.34	8256	
707.52	7237.5	
707.7	6570.6	
707.89	8007.6	
708.07	7699	
708.25	7308.5	
708.44	7445.7	
708.62	7876.5	
708.8	8837	
708.98	7519.5	
709.17	6654.5	
709.35	8174.8	
709.53	8217.8	
709.72	6350.8	
709.9	6732.4	
710.08	8441	
710.26	8429.4	
710.45	7677.8	
710.63	6540.5	
710.81	8011.7	
710.99	8104.5	
711.18	7053.9	
711.36	6619	
711.54	7948.2	
711.72	8568	
711.91	6755.6	
712.09	6195.8	
712.27	8054	
712.45	8871.1	
712.64	6819.1	
712.82	6039.5	
713	7501.7	
713.18	7626	
713.37	5974.6	
713.55	6986.3	
713.73	8260.8	
713.91	6904.4	
714.1	6170.5	
714.28	5730.2	
714.46	7776.1	
714.64	6959	
714.83	5087.8	
715.01	5743.2	
715.19	7049.1	
715.37	6376	
715.55	5409.4	
715.74	5644.2	
715.92	7714	
716.1	5952.8	
716.28	6577.4	
716.47	5778.7	
716.65	6539.2	
716.83	6650.4	
717.01	5597.1	
717.19	5634.6	
717.38	8432.9	
717.56	6407.4	
717.74	5832.6	
717.92	5091.3	
718.1	7447.8	
718.29	6769.2	
718.47	4870.8	
718.65	5506.3	
718.83	7443.7	
719.01	7436.2	
719.2	4857.1	
719.38	5837.4	
719.56	7262.1	
719.74	8530.5	
719.92	5469.4	
720.11	6374	
720.29	7197.9	
720.47	6448.4	
720.65	5042.1	
720.83	5724.1	
721.02	6690	
721.2	6433.4	
721.38	5676.3	
721.56	5064.6	
721.74	6010.8	
721.92	6090	
722.11	6085.9	
722.29	5767.8	
722.47	7211.6	
722.65	6455.9	
722.83	5005.9	
723.01	5782.8	
723.2	6451.8	
723.38	6787	
723.56	4596.3	
723.74	5533.6	
723.92	6166.4	
724.1	7120.8	
724.29	4952.7	
724.47	5955.5	
724.65	6170.5	
724.83	6064.7	
725.01	4819.6	
725.19	5541.1	
725.37	6103.6	
725.56	6206	
725.74	4742.4	
725.92	4960.9	
726.1	6055.8	
726.28	6386.2	
726.46	5277.6	
726.64	5040.7	
726.83	6374	
727.01	6500.3	
727.19	4728.1	
727.37	5450.3	
727.55	6507.1	
727.73	6873	
727.91	4719.9	
728.09	4575.8	
728.28	6916	
728.46	7196.6	
728.64	5536.3	
728.82	5441.5	
729	7854.6	
729.18	7296.9	
729.36	4774.5	
729.54	6821.8	
729.72	8130.4	
729.91	6630	
730.09	6579.4	
730.27	5448.3	
730.45	6641.6	
730.63	7197.2	
730.81	6021.7	
730.99	5186.1	
731.17	7578.8	
731.35	6406	
731.53	5608	
731.71	5267.4	
731.9	7290.1	
732.08	7458.7	
732.26	5457.2	
732.44	5205.3	
732.62	7445	
732.8	7072.3	
732.98	5874.3	
733.16	4990.9	
733.34	7086.7	
733.52	6017.6	
733.7	5399.1	
733.88	5620.3	
734.07	6877.1	
734.25	6746.7	
734.43	5011.4	
734.61	6284.5	
734.79	7964.6	
734.97	6599.9	
735.15	5081.7	
735.33	5450.3	
735.51	6941.2	
735.69	6656.6	
735.87	6303	
736.05	5541.8	
736.23	6789.7	
736.41	6531	
736.59	5370.5	
736.77	5491.3	
736.95	7088.7	
737.13	6613.6	
737.32	5175.9	
737.5	5261.9	
737.68	7654.6	
737.86	6494.8	
738.04	4906.9	
738.22	6530.3	
738.4	6365.8	
738.58	6666.8	
738.76	5433.3	
738.94	4564.9	
739.12	6438.8	
739.3	6374	
739.48	5993.7	
739.66	5715.2	
739.84	6660.7	
740.02	6654.5	
740.2	4592.2	
740.38	4928.1	
740.56	7053.9	
740.74	5935.7	
740.92	5480.4	
741.1	5369.1	
741.28	6471.6	
741.46	6359.6	
741.64	5096	
741.82	5536.3	
742	6552.1	
742.18	6495.5	
742.36	5238	
742.54	4838.7	
742.72	7002.7	
742.9	5881.8	
743.08	5505.6	
743.26	4539.7	
743.44	7157.7	
743.62	7025.2	
743.8	5700.2	
743.98	4883	
744.16	6693.4	
744.34	6524.1	
744.52	5558.9	
744.7	5482.4	
744.88	6759.7	
745.06	6365.8	
745.24	5535	
745.42	5705.6	
745.6	6911.9	
745.78	6649.8	
745.96	4546.5	
746.14	4787.5	
746.32	7474.4	
746.5	6894.1	
746.68	5391.6	
746.86	4880.3	
747.03	7115.3	
747.21	5799.8	
747.39	5294	
747.57	4814.1	
747.75	6452.5	
747.93	6828.6	
748.11	4793.6	
748.29	4754.7	
748.47	7841	
748.65	6226.5	
748.83	5468.8	
749.01	5199.1	
749.19	6557.6	
749.37	5944.6	
749.55	5101.5	
749.73	5186.1	
749.91	6320	
750.09	6110.5	
750.26	5172.5	
750.44	4627.7	
750.62	6354.8	
750.8	6380.1	
750.98	4549.2	
751.16	4773.8	
751.34	6464.1	
751.52	5896.1	
751.7	5490.6	
751.88	4463.9	
752.06	6846.4	
752.24	6605.4	
752.42	4421.6	
752.59	4693.3	
752.77	6274.3	
752.95	7365.9	
753.13	5381.4	
753.31	4897.4	
753.49	6008.7	
753.67	6406	
753.85	5070.1	
754.03	4700.8	
754.21	6603.3	
754.38	6856.6	
754.56	4820.2	
754.74	4043.4	
754.92	5866.7	
755.1	6451.1	
755.28	4005.8	
755.46	4023.6	
755.64	7055.9	
755.82	7112.6	
755.99	4071.4	
756.17	4132.1	
756.35	4826.4	
756.53	6161	
756.71	3145	
756.89	3949.8	
757.07	5752.7	
757.25	4988.9	
757.42	4423.6	
757.6	5193	
757.78	5902.9	
757.96	5091.3	
758.14	4253.6	
758.32	3756	
758.5	4715.8	
758.67	5451	
758.85	3986.7	
759.03	4141.7	
759.21	5564.3	
759.39	5065.3	
759.57	3681.6	
759.75	4667.3	
759.92	6137.1	
760.1	5562.3	
760.28	5042.1	
760.46	5181.4	
760.64	5315.8	
760.82	5122	
760.99	4903.5	
761.17	4169.7	
761.35	6036	
761.53	5184.1	
761.71	4334.2	
761.89	4911	
762.06	6006.7	
762.24	5494.7	
762.42	4379.9	
762.6	4167.6	
762.78	5558.9	
762.96	6068.8	
763.13	4694.6	
763.31	4450.9	
763.49	6239.5	
763.67	5561.6	
763.85	5153.4	
764.02	5687.2	
764.2	6487.3	
764.38	5715.9	
764.56	4311.7	
764.74	5162.2	
764.91	6498.9	
765.09	5543.9	
765.27	4117.8	
765.45	3869.3	
765.63	6658.6	
765.8	6422.4	
765.98	3662.5	
766.16	3930.7	
766.34	5150.6	
766.52	5077.6	
766.69	4693.3	
766.87	3843.4	
767.05	5563	
767.23	6211.5	
767.41	4065.9	
767.58	4278.9	
767.76	5973.9	
767.94	6146	
768.12	4112.3	
768.29	4658.4	
768.47	5573.2	
768.65	6227.2	
768.83	3790.1	
769	4770.4	
769.18	5222.3	
769.36	5778.7	
769.54	4817.5	
769.72	3758	
769.89	6057.2	
770.07	6079.1	
770.25	4134.8	
770.43	5168.4	
770.6	6760.3	
770.78	6979.5	
770.96	4268.6	
771.14	4792.9	
771.31	5945.9	
771.49	5437.4	
771.67	3517	
771.85	3732.1	
772.02	4754.7	
772.2	5375.2	
772.38	4352.6	
772.55	3867.2	
772.73	5591.6	
772.91	5372.5	
773.09	4220.9	
773.26	4309.6	
773.44	5563	
773.62	5338.4	
773.8	3777.1	
773.97	3593.5	
774.15	5642.2	
774.33	5321.3	
774.5	3657	
774.68	4000.4	
774.86	5741.8	
775.04	5304.2	
775.21	3745.7	
775.39	3732.8	
775.57	5502.2	
775.74	5905.7	
775.92	3543	
776.1	3539.6	
776.27	5482.4	
776.45	6617	
776.63	3804.4	
776.81	3356.6	
776.98	5172.5	
777.16	6085.9	
777.34	3891.8	
777.51	4102.1	
777.69	5177.9	
777.87	4942.4	
778.04	3906.8	
778.22	4390.8	
778.4	4982	
778.57	5631.2	
778.75	3274.7	
778.93	3530.7	
779.1	4808.6	
779.28	4673.5	
779.46	3189.4	
779.64	3672.7	
779.81	5678.3	
779.99	6418.3	
780.17	4334.2	
780.34	4479.6	
780.52	5214.8	
780.69	5319.9	
780.87	3971	
781.05	3523.2	
781.22	5275.6	
781.4	5350.7	
781.58	3704.1	
781.75	2935.4	
781.93	5223.7	
782.11	4724	
782.28	4478.9	
782.46	3637.2	
782.64	4607.9	
782.81	5415.5	
782.99	3734.1	
783.17	3685	
783.34	5270.8	
783.52	4678.9	
783.69	3839.9	
783.87	4599.7	
784.05	4743.8	
784.22	4747.9	
784.4	4533.5	
784.58	3947.1	
784.75	5545.2	
784.93	4790.9	
785.1	3629.7	
785.28	4220.9	
785.46	5326.1	
785.63	4734.9	
785.81	3620.8	
785.99	3506.8	
786.16	4917.2	
786.34	5182.7	
786.51	3556	
786.69	3936.9	
786.87	4486.4	
787.04	4972.5	
787.22	3469.3	
787.39	4302.1	
787.57	4738.3	
787.75	5680.4	
787.92	4435.9	
788.1	4341.7	
788.27	4769.7	
788.45	4486.4	
788.63	4096.6	
788.8	2945	
788.98	5074.9	
789.15	4420.9	
789.33	3127.9	
789.5	3670	
789.68	5604.6	
789.86	5653.1	
790.03	4029	
790.21	3517	
790.38	5554.1	
790.56	4849.6	
790.73	3382.6	
790.91	3451.5	
791.09	4779.3	
791.26	5385.5	
791.44	3646.1	
791.61	3138.9	
791.79	4692.6	
791.96	4718.5	
792.14	3259.7	
792.32	2907.4	
792.49	4717.8	
792.67	4874.8	
792.84	3318.4	
793.02	3183.9	
793.19	5486.5	
793.37	5738.4	
793.54	2914.3	
793.72	3255.6	
793.89	5760.3	
794.07	4700.1	
794.25	3614	
794.42	3045.3	
794.6	5584.1	
794.77	5292.6	
794.95	4003.8	
795.12	3513.6	
795.3	4752.7	
795.47	5257.8	
795.65	3803.1	
795.82	3668.6	
796	4545.8	
796.17	6159.6	
796.35	3523.9	
796.52	4169	
796.7	5163.6	
796.87	5300.1	
797.05	3568.2	
797.22	4296	
797.4	5223.7	
797.57	6053.1	
797.75	3672.7	
797.92	3448.1	
798.1	5533.6	
798.27	4602.5	
798.45	2993.4	
798.62	3248.1	
798.8	5026.4	
798.97	5462.6	
799.15	3832.4	
799.32	3687.7	
799.5	4322.6	
799.67	4984.8	
799.85	3972.4	
800.02	2936.1	
800.2	4674.1	
800.37	4878.9	
800.55	4046.8	
800.72	3469.9	
800.9	5414.8	
801.07	5723.4	
801.25	4565.6	
801.42	3786	
801.6	5397.1	
801.77	5119.9	
801.95	3549.8	
802.12	3423.5	
802.29	5169.1	
802.47	5035.3	
802.64	3758.7	
802.82	2910.8	
802.99	4644.1	
803.17	5489.9	
803.34	3697.3	
803.52	3287	
803.69	6062.7	
803.87	4456.4	
804.04	3685	
804.21	3720.5	
804.39	5656.5	
804.56	4868	
804.74	3186.6	
804.91	3770.3	
805.09	4685.1	
805.26	4735.6	
805.44	3173.7	
805.61	3485.6	
805.78	5281.7	
805.96	5261.9	
806.13	3783.3	
806.31	3997	
806.48	4248.2	
806.66	4747.9	
806.83	3791.5	
807	3695.9	
807.18	4690.5	
807.35	4957.4	
807.53	3668.6	
807.7	2957.9	
807.87	5665.4	
808.05	4689.2	
808.22	3988.1	
808.4	2965.5	
808.57	4709	
808.74	4351.9	
808.92	3387.3	
809.09	4243.4	
809.27	4610	
809.44	5134.9	
809.61	2994.8	
809.79	3318.4	
809.96	5768.4	
810.14	5314.5	
810.31	2923.1	
810.48	3609.9	
810.66	4764.9	
810.83	5409.4	
811.01	3392.8	
811.18	3734.8	
811.35	5346.6	
811.53	4197	
811.7	4107.5	
811.87	3824.2	
812.05	4737	
812.22	4654.4	
812.39	3297.9	
812.57	3214.6	
812.74	4766.3	
812.92	6154.8	
813.09	3549.8	
813.26	3837.9	
813.44	5892.7	
813.61	4651.6	
813.78	3016	
813.96	3941	
814.13	4737	
814.3	4412	
814.48	4227	
814.65	3499.3	
814.82	6008.1	
815	4511	
815.17	3637.9	
815.34	4390.2	
815.52	4653	
815.69	4678.2	
815.87	3603.1	
816.04	3553.9	
816.21	4757.4	
816.38	4233.2	
816.56	3480.9	
816.73	3304.1	
816.9	5832.6	
817.08	5367.7	
817.25	3316.3	
817.42	4111.6	
817.6	4360.1	
817.77	4663.9	
817.94	3708.9	
818.12	3238.5	
818.29	4536.9	
818.46	6731.7	
818.64	3378.5	
818.81	3209.2	
818.98	4476.9	
819.16	6267.5	
819.33	3903.4	
819.5	3601.7	
819.67	5018.9	
819.85	5564.3	
820.02	3534.8	
820.19	3758.7	
820.37	4844.1	
820.54	4631.1	
820.71	3707.5	
820.88	4595.6	
821.06	4891.2	
821.23	4532.2	
821.4	3672.7	
821.58	3717.7	
821.75	5313.1	
821.92	4805.2	
822.09	3001.6	
822.27	3276.8	
822.44	4767	
822.61	4623.6	
822.79	2989.4	
822.96	5659.2	
823.13	5100.8	
823.3	4405.9	
823.48	3443.3	
823.65	3161.4	
823.82	5300.8	
823.99	4385.4	
824.17	4376.5	
824.34	3197.6	
824.51	6086.6	
824.68	4763.6	
824.86	3280.2	
825.03	3710.9	
825.2	4764.9	
825.37	5581.4	
825.55	3322.5	
825.72	3633.8	
825.89	6073.6	
826.06	5715.9	
826.24	3567.6	
826.41	3631	
826.58	5631.2	
826.75	4908.3	
826.92	2887	
827.1	3150.5	
827.27	7578.8	
827.44	6041.5	
827.61	3366.2	
827.79	4012	
827.96	4532.2	
828.13	4792.2	
828.3	3500	
828.47	2925.9	
828.65	4917.9	
828.82	4885.8	
828.99	4511	
829.16	3921.9	
829.34	5259.9	
829.51	5054.4	
829.68	3670	
829.85	3680.9	
830.02	5558.9	
830.2	5274.9	
830.37	2865.8	
830.54	4354.7	
830.71	5948.7	
830.88	4768.4	
831.05	2912.9	
831.23	3333.4	
831.4	5743.2	
831.57	6264.1	
831.74	3384.6	
831.91	3013.2	
832.09	4998.4	
832.26	5252.4	
832.43	3450.1	
832.6	3871.3	
832.77	4960.9	
832.94	5622.4	
833.12	2797.5	
833.29	3445.4	
833.46	4657.8	
833.63	6511.9	
833.8	3789.4	
833.97	3472	
834.15	5302.9	
834.32	5047.6	
834.49	3638.6	
834.66	3690.4	
834.83	5482.4	
835	4521.9	
835.17	3377.1	
835.35	3357.3	
835.52	5218.9	
835.69	5076.9	
835.86	3526.6	
836.03	2917.7	
836.2	5284.4	
836.37	4954.7	
836.55	3511.6	
836.72	3216	
836.89	4909	
837.06	5330.2	
837.23	3528	
837.4	3848.8	
837.57	5963.7	
837.75	6478.4	
837.92	3244.7	
838.09	3418.7	
838.26	4870.8	
838.43	5417.6	
838.6	3635.1	
838.77	3291.1	
838.94	6163.7	
839.11	5954.1	
839.29	3493.8	
839.46	2789.3	
839.63	5308.3	
839.8	4983.4	
839.97	3343	
840.14	3349.1	
840.31	5112.4	
840.48	5253.7	
840.65	2850.1	
840.82	3271.3	
841	5223	
841.17	5198.4	
841.34	3108.8	
841.51	3204.4	
841.68	5169.1	
841.85	4963.6	
842.02	3229.6	
842.19	2760	
842.36	5028.4	
842.53	5060.5	
842.7	3162.7	
842.87	3796.3	
843.05	6500.9	
843.22	4969.7	
843.39	3016.7	
843.56	3219.4	
843.73	4814.1	
843.9	5324.7	
844.07	4915.1	
844.24	4134.2	
844.41	7392.5	
844.58	4576.5	
844.75	3032.4	
844.92	3251.5	
845.09	5272.8	
845.26	5238	
845.43	3070.6	
845.6	3287.7	
845.77	5251	
845.94	4959.5	
846.12	3405.8	
846.29	3609.2	
846.46	5458.5	
846.63	5234.6	
846.8	3110.9	
846.97	3650.2	
847.14	5582.8	
847.31	5224.4	
847.48	3497.9	
847.65	3885.7	
847.82	5526.8	
847.99	5445.5	
848.16	4127.3	
848.33	3793.5	
848.5	4856.4	
848.67	5657.2	
848.84	3069.2	
849.01	3241.3	
849.18	4767	
849.35	4521.2	
849.52	3874.1	
849.69	3063.1	
849.86	5430.5	
850.03	5590.3	
850.2	3156.6	
850.37	3771.7	
850.54	5498.8	
850.71	4960.2	
850.88	3696.6	
851.05	3048.1	
851.22	5153.4	
851.39	5682.4	
851.56	2940.2	
851.73	3571.7	
851.9	4642.7	
852.07	5403.2	
852.24	3419.4	
852.41	3118.4	
852.58	5107	
852.75	4651.6	
852.92	3457.7	
853.09	3015.3	
853.26	4914.4	
853.43	5599.8	
853.6	3064.4	
853.77	2625.5	
853.94	5729.5	
854.11	5195	
854.28	4491.2	
854.44	3367.5	
854.61	6064	
854.78	5496.7	
854.95	3094.5	
855.12	3783.3	
855.29	4287.8	
855.46	5810.8	
855.63	3097.9	
855.8	4181.3	
855.97	4836.6	
856.14	5510.4	
856.31	4285.7	
856.48	3379.1	
856.65	4934.2	
856.82	4579.9	
856.99	2940.2	
857.16	3355.3	
857.33	6279.8	
857.49	4974.5	
857.66	3365.5	
857.83	3548.4	
858	4920.6	
858.17	5107.6	
858.34	2885.6	
858.51	3138.2	
858.68	5767.1	
858.85	5779.4	
859.02	3510.9	
859.19	3816	
859.36	4620.9	
859.52	4648.9	
859.69	3142.9	
859.86	3573.7	
860.03	4725.3	
860.2	5691.3	
860.37	2871.3	
860.54	3142.3	
860.71	5402.5	
860.88	5779.4	
861.05	3474.7	
861.21	3938.9	
861.38	5816.2	
861.55	4506.2	
861.72	2874	
861.89	3482.9	
862.06	5475.6	
862.23	5937.1	
862.4	2981.8	
862.56	3209.2	
862.73	5310.4	
862.9	5052.3	
863.07	3639.9	
863.24	2837.1	
863.41	4589.5	
863.58	4668.7	
863.75	3183.2	
863.91	3545.7	
864.08	5742.5	
864.25	5393	
864.42	3810.6	
864.59	4317.8	
864.76	6036	
864.93	4636.6	
865.09	3019.4	
865.26	3314.3	
865.43	5640.1	
865.6	5959.6	
865.77	2663	
865.94	3099.9	
866.1	5673.6	
866.27	5382.7	
866.44	4638	
866.61	2955.9	
866.78	4982.7	
866.95	5322	
867.11	2988.7	
867.28	2777	
867.45	5525.4	
867.62	4617.5	
867.79	3521.1	
867.96	3070.6	
868.12	4614.8	
868.29	5435.3	
868.46	2728.6	
868.63	4050.2	
868.8	5586.2	
868.97	5418.2	
869.13	3233.1	
869.3	3211.2	
869.47	5298.1	
869.64	5522	
869.81	3087.7	
869.97	3154.6	
870.14	5238	
870.31	5767.1	
870.48	3028.9	
870.65	3888.4	
870.81	4914.4	
870.98	4998.4	
871.15	3484.3	
871.32	3212.6	
871.48	5281.7	
871.65	5773.2	
871.82	3110.9	
871.99	3418.1	
872.16	6186.2	
872.32	5658.5	
872.49	3152.5	
872.66	3113.6	
872.83	5457.2	
872.99	4778.6	
873.16	3532.7	
873.33	3062.4	
873.5	5053.7	
873.67	5147.2	
873.83	3303.4	
874	4065.9	
874.17	5213.4	
874.34	6085.9	
874.5	3938.2	
874.67	3789.4	
874.84	5748	
875.01	4504.2	
875.17	4289.1	
875.34	3033.7	
875.51	5157.5	
875.68	6184.2	
875.84	3671.3	
876.01	4468.7	
876.18	5404.6	
876.34	5336.3	
876.51	3129.3	
876.68	3074	
876.85	4976.6	
877.01	5648.3	
877.18	4333.5	
877.35	3069.2	
877.52	5113.1	
877.68	4557.4	
877.85	3003.7	
878.02	3022.1	
878.18	4966.3	
878.35	4799.8	
878.52	2482.1	
878.69	3410.6	
878.85	5457.8	
879.02	5362.9	
879.19	4317.1	
879.35	3335.5	
879.52	5386.8	
879.69	5567.1	
879.86	2703.3	
880.02	3461.1	
880.19	5089.2	
880.36	6083.1	
880.52	3504.8	
880.69	3646.7	
880.86	5486.5	
881.02	5513.8	
881.19	3414.6	
881.36	3343	
881.52	5406.6	
881.69	4761.5	
881.86	3323.2	
882.02	3259.7	
882.19	5668.1	
882.36	6436.1	
882.52	3200.3	
882.69	4295.3	
882.86	5177.9	
883.02	5102.2	
883.19	3727.3	
883.36	3512.3	
883.52	5401.9	
883.69	6227.9	
883.86	3096.5	
884.02	2812.5	
884.19	5409.4	
884.36	5063.9	
884.52	3503.4	
884.69	3299.3	
884.86	4799.1	
885.02	5948.7	
885.19	3447.4	
885.36	3505.4	
885.52	5015.5	
885.69	5226.4	
885.86	4425.7	
886.02	3936.9	
886.19	5430.5	
886.35	4929.5	
886.52	3408.5	
886.69	4340.3	
886.85	4681.7	
887.02	5776.6	
887.19	5776.6	
887.35	5776.6	
887.52	5776.6	
887.68	5776.6	
887.85	5776.6	
888.02	5776.6	
888.18	5776.6	
888.35	5776.6	
888.51	5776.6	
888.68	5776.6	
888.85	5776.6	
889.01	5776.6	
889.18	5776.6	
889.35	5776.6	
889.51	5776.6	
889.68	5776.6	
889.84	5776.6	
890.01	5776.6	
890.17	5776.6	
890.34	5776.6	
890.51	5776.6	
890.67	5776.6	
890.84	5776.6	
891	5776.6	
891.17	5776.6	
891.34	5776.6	
891.5	5776.6	
891.67	5776.6	
891.83	5776.6	
892	5776.6	
892.16	5776.6	
892.33	5776.6	
892.5	5776.6	
892.66	5776.6	
892.83	5776.6	
892.99	5776.6	
893.16	5776.6	
893.32	5776.6	
893.49	5776.6	
893.65	5776.6	
893.82	5776.6	
893.99	5776.6	
894.15	5776.6	
894.32	5776.6	
894.48	5776.6	
894.65	5776.6	
894.81	5776.6	
894.98	5776.6	
895.14	5776.6	
895.31	5776.6	
895.47	5776.6	
895.64	5776.6	
895.81	5776.6	
895.97	5776.6	
896.14	5776.6	
896.3	5776.6	
896.47	5776.6	
896.63	5776.6	
896.8	5776.6	
896.96	5776.6	
897.13	5776.6	
897.29	5776.6	
897.46	5776.6	
897.62	5776.6	
897.79	5776.6	
897.95	5776.6	
898.12	5776.6	
898.28	5776.6	
898.45	5776.6	
898.61	5776.6	
898.78	5776.6	
898.94	5776.6	
899.11	5776.6	
899.27	5776.6	
899.44	5776.6	
899.6	5776.6	
899.77	5776.6	
899.93	5776.6	
900.1	5776.6	
900.26	5776.6	
900.43	5776.6	
900.59	5776.6	
900.76	5776.6	
900.92	5776.6	
901.09	5776.6	
901.25	5776.6	
901.42	5776.6	
901.58	5776.6	
901.75	5776.6	
901.91	5776.6	
902.07	5776.6	
902.24	5776.6	
902.4	5776.6	
902.57	5776.6	
902.73	5776.6	
902.9	5776.6	
903.06	5776.6	
903.23	5776.6	
903.39	5776.6	
903.56	5776.6	
903.72	5776.6	
903.88	5776.6	
904.05	5776.6	
904.21	5776.6	
904.38	5776.6	
904.54	5776.6	
904.71	5776.6	
904.87	5776.6	
905.03	5776.6	
905.2	5776.6	
905.36	5776.6	
905.53	5776.6	
905.69	5776.6	
905.86	5776.6	
906.02	5776.6	
906.18	5776.6	
906.35	5776.6	
906.51	5776.6	
906.68	5776.6	
906.84	5776.6	
907.01	5776.6	
907.17	5776.6	
907.33	5776.6	
907.5	5776.6	
907.66	5776.6	
907.83	5776.6	
907.99	5776.6	
908.15	5776.6	
908.32	5776.6	
908.48	5776.6	
908.65	5776.6	
908.81	5776.6	
908.97	5776.6	
909.14	5776.6	
909.3	5776.6	
909.47	5776.6	
909.63	5776.6	
909.79	5776.6	
909.96	5776.6	
910.12	5776.6	
910.28	5776.6	
910.45	5776.6	
910.61	5776.6	
910.78	5776.6	
910.94	5776.6	
911.1	5776.6	
911.27	5776.6	
911.43	5776.6	
911.59	5776.6	
911.76	5776.6	
911.92	5776.6	
912.08	5776.6	
912.25	5776.6	
912.41	5776.6	
912.57	5776.6	
912.74	5776.6	
912.9	5776.6	
913.07	5776.6	
913.23	5776.6	
913.39	5776.6	
913.56	5776.6	
913.72	5776.6	
913.88	5776.6	
914.05	5776.6	
914.21	5776.6	
914.37	5776.6	
914.54	5776.6	
914.7	5776.6	
914.86	5776.6	
915.03	5776.6	
915.19	5776.6	
