Wavelength	Intensities	
nm	a.u.	
179.22	1730.7	
179.44	1730.9	
179.65	1730.5	
179.86	1731.2	
180.08	1684.1	
180.29	3880.2	
180.51	3068.5	
180.72	5004.6	
180.94	5620.3	
181.15	2749.1	
181.37	2724.5	
181.58	4816.1	
181.79	5062.6	
182.01	2850.8	
182.22	2964.1	
182.44	5070.1	
182.65	4370.4	
182.87	3659	
183.08	3239.2	
183.29	5289.2	
183.51	4400.4	
183.72	3020.8	
183.94	4181.3	
184.15	4706.2	
184.37	4666.6	
184.58	2671.2	
184.79	3560.1	
185.01	4460.5	
185.22	5081	
185.44	3747.8	
185.65	3200.3	
185.86	4687.1	
186.08	4402.5	
186.29	2627.5	
186.51	2795.5	
186.72	4484.4	
186.94	5114.5	
187.15	3191.4	
187.36	3247.4	
187.58	6396.5	
187.79	4828.4	
188.01	3364.1	
188.22	5063.3	
188.43	5679.7	
188.65	5017.5	
188.86	2829.6	
189.08	3267.2	
189.29	4547.9	
189.5	4564.2	
189.72	3041.2	
189.93	3094.5	
190.15	5195	
190.36	5971.9	
190.57	3324.5	
190.79	3216	
191	5180	
191.22	5184.1	
191.43	3309.5	
191.64	2865.1	
191.86	5347.9	
192.07	5175.9	
192.29	2916.3	
192.5	3075.4	
192.71	5219.6	
192.93	4595	
193.14	2988.7	
193.35	3093.1	
193.57	4587.4	
193.78	5121.3	
194	2536.8	
194.21	2958.6	
194.42	4404.5	
194.64	4786.8	
194.85	3279.5	
195.07	3779.9	
195.28	4771.8	
195.49	4252.9	
195.71	3950.5	
195.92	2869.2	
196.13	4958.8	
196.35	4968.4	
196.56	4149.2	
196.78	3317.7	
196.99	5935	
197.2	5574.6	
197.42	3655.6	
197.63	3339.6	
197.84	4344.4	
198.06	4926	
198.27	3082.9	
198.48	3976.5	
198.7	4571.1	
198.91	4747.2	
199.13	3293.1	
199.34	3291.1	
199.55	5130.8	
199.77	4142.4	
199.98	2950.4	
200.19	3338.2	
200.41	4715.1	
200.62	4431.1	
200.83	3364.8	
201.05	3644	
201.26	4737.6	
201.47	4485.7	
201.69	2924.5	
201.9	2856.2	
202.11	4752	
202.33	5452.4	
202.54	3123.2	
202.76	3435.8	
202.97	4770.4	
203.18	4859.8	
203.4	3406.5	
203.61	3425.6	
203.82	4812	
204.04	4564.9	
204.25	3351.8	
204.46	3224.9	
204.68	4749.2	
204.89	4939.7	
205.1	3174.4	
205.32	2856.9	
205.53	5014.1	
205.74	5184.1	
205.96	2518.3	
206.17	3351.8	
206.38	4964.3	
206.6	5132.2	
206.81	3788.7	
207.02	3148.4	
207.24	4973.8	
207.45	5239.4	
207.66	3190.7	
207.88	2744.3	
208.09	4857.8	
208.3	4754	
208.52	2960	
208.73	3168.9	
208.94	4788.8	
209.15	5259.9	
209.37	3189.4	
209.58	3502	
209.79	5126.1	
210.01	4603.8	
210.22	2642.6	
210.43	2723.8	
210.65	4691.9	
210.86	5062.6	
211.07	3111.5	
211.29	2905.4	
211.5	4978.6	
211.71	4688.5	
211.93	2960.7	
212.14	2960.7	
212.35	4704.9	
212.56	4869.4	
212.78	3300	
212.99	2784.6	
213.2	5395	
213.42	4610	
213.63	3029.6	
213.84	3218	
214.06	4289.1	
214.27	4327.4	
214.48	3140.2	
214.69	3352.5	
214.91	5253	
215.12	5347.2	
215.33	3281.5	
215.55	3617.4	
215.76	5612.8	
215.97	4963.6	
216.18	3218.7	
216.4	3243.3	
216.61	4519.9	
216.82	5096.7	
217.04	2989.4	
217.25	3057.6	
217.46	5216.9	
217.67	5037.3	
217.89	2683.5	
218.1	2770.2	
218.31	4801.8	
218.53	4873.5	
218.74	3092.4	
218.95	2998.2	
219.16	4720.6	
219.38	5457.8	
219.59	3009.1	
219.8	3482.2	
220.01	5842.2	
220.23	4775.2	
220.44	3788.7	
220.65	2906.8	
220.87	4794.3	
221.08	5243.5	
221.29	2786.6	
221.5	3587.4	
221.72	6178.7	
221.93	4520.5	
222.14	3304.7	
222.35	3855	
222.57	4762.2	
222.78	5079.6	
222.99	3199.6	
223.2	3356.6	
223.42	4957.4	
223.63	5011.4	
223.84	2549	
224.05	2510.8	
224.27	5812.1	
224.48	5395	
224.69	3853.6	
224.9	3323.9	
225.12	4896	
225.33	4759.5	
225.54	2719	
225.75	2974.3	
225.97	4437.9	
226.18	4734.9	
226.39	3170.9	
226.6	3020.1	
226.82	4592.9	
227.03	4425	
227.24	3312.2	
227.45	2819.4	
227.67	5098.8	
227.88	5335	
228.09	3706.1	
228.3	3657	
228.52	5057.1	
228.73	4666	
228.94	3139.5	
229.15	2822.8	
229.36	4726	
229.58	4688.5	
229.79	3174.4	
230	3625.6	
230.21	5482.4	
230.43	4793.6	
230.64	3275.4	
230.85	3386.7	
231.06	5111	
231.28	5064.6	
231.49	2785.2	
231.7	3241.3	
231.91	5032.5	
232.12	4747.2	
232.34	2907.4	
232.55	3154.6	
232.76	5208	
232.97	4895.3	
233.18	2912.9	
233.4	3257.6	
233.61	4880.3	
233.82	4539.7	
234.03	3090.4	
234.25	3060.3	
234.46	6268.1	
234.67	4826.4	
234.88	3300	
235.09	2978.4	
235.31	4904.9	
235.52	4649.6	
235.73	3245.3	
235.94	2803	
236.15	4538.3	
236.37	5544.5	
236.58	2955.2	
236.79	3181.9	
237	4999.8	
237.21	4371.7	
237.43	3392.8	
237.64	2750.4	
237.85	7839.6	
238.06	4453.6	
238.27	3442	
238.48	2839.2	
238.7	5071.5	
238.91	4644.1	
239.12	3095.8	
239.33	3233.1	
239.54	4459.8	
239.76	4671.4	
239.97	3128.6	
240.18	3180.5	
240.39	5568.4	
240.6	4886.5	
240.82	3375.1	
241.03	2787.3	
241.24	4681	
241.45	5359.5	
241.66	2932.7	
241.87	3405.1	
242.09	5279	
242.3	5516.5	
242.51	3451.5	
242.72	3204.4	
242.93	5118.6	
243.14	4718.5	
243.36	3664.5	
243.57	3936.2	
243.78	5347.2	
243.99	5019.6	
244.2	3156.6	
244.41	2905.4	
244.63	4445.5	
244.84	4954.7	
245.05	3378.5	
245.26	3145	
245.47	4957.4	
245.68	5139.7	
245.9	4063.9	
246.11	3315	
246.32	4603.8	
246.53	4955.4	
246.74	5014.8	
246.95	2793.4	
247.16	4478.9	
247.38	4779.3	
247.59	2730.6	
247.8	3235.1	
248.01	4470.7	
248.22	4762.9	
248.43	2938.8	
248.64	3142.9	
248.86	4337.6	
249.07	4567	
249.28	2890.4	
249.49	3276.8	
249.7	5153.4	
249.91	5195.7	
250.12	2775	
250.34	2753.2	
250.55	4872.1	
250.76	4744.5	
250.97	3282.9	
251.18	3291.1	
251.39	5205.9	
251.6	4868	
251.81	3338.9	
252.03	3336.1	
252.24	4640	
252.45	5137	
252.66	2821.4	
252.87	3488.4	
253.08	4712.4	
253.29	5907	
253.5	2880.8	
253.72	3818.1	
253.93	4657.8	
254.14	5465.3	
254.35	3099.3	
254.56	3112.2	
254.77	4929.5	
254.98	4468	
255.19	3024.2	
255.41	3736.2	
255.62	4863.2	
255.83	5221.6	
256.04	3387.3	
256.25	3321.8	
256.46	5658.5	
256.67	4522.6	
256.88	3274.7	
257.09	3611.3	
257.31	4439.3	
257.52	4496.7	
257.73	4070	
257.94	3084.2	
258.15	4711	
258.36	4786.8	
258.57	3704.8	
258.78	2534.7	
258.99	5182	
259.2	4674.8	
259.41	3080.8	
259.63	3148.4	
259.84	5350	
260.05	5693.4	
260.26	3890.5	
260.47	2958.6	
260.68	5171.8	
260.89	4656.4	
261.1	3629.7	
261.31	2921.1	
261.52	5266.7	
261.73	5459.9	
261.95	3819.5	
262.16	3366.2	
262.37	5251	
262.58	5311.7	
262.79	3912.3	
263	3096.5	
263.21	4760.2	
263.42	4597	
263.63	3336.1	
263.84	3073.3	
264.05	5136.3	
264.26	5446.2	
264.47	3770.3	
264.69	3254.9	
264.9	5358.2	
265.11	4872.1	
265.32	2964.1	
265.53	3040.6	
265.74	4864.6	
265.95	4280.3	
266.16	3187.3	
266.37	3545.7	
266.58	4887.1	
266.79	4605.9	
267	3067.9	
267.21	2853.5	
267.42	4438.6	
267.63	4742.4	
267.84	3181.2	
268.06	2823.5	
268.27	5071.5	
268.48	5292.6	
268.69	3118.4	
268.9	3614	
269.11	5266	
269.32	4308.9	
269.53	3157.3	
269.74	2935.4	
269.95	4937.7	
270.16	4230.4	
270.37	3224.9	
270.58	3672.7	
270.79	4635.9	
271	5141.1	
271.21	3355.3	
271.42	3217.4	
271.63	4962.2	
271.84	4461.8	
272.05	2623.4	
272.26	2874	
272.47	4752	
272.68	4906.3	
272.89	3053.5	
273.11	3492.5	
273.32	4535.6	
273.53	5417.6	
273.74	3380.5	
273.95	3340.2	
274.16	5102.9	
274.37	4761.5	
274.58	3537.5	
274.79	2889	
275	4871.4	
275.21	5145.2	
275.42	4092.5	
275.63	3571	
275.84	4974.5	
276.05	5993	
276.26	3336.1	
276.47	3151.8	
276.68	4668	
276.89	5522	
277.1	3497.9	
277.31	2811.2	
277.52	4937.7	
277.73	5177.9	
277.94	2796.2	
278.15	3082.9	
278.36	4938.3	
278.57	4514.4	
278.78	3088.3	
278.99	3423.5	
279.2	4518.5	
279.41	4447.5	
279.62	3913.7	
279.83	2831.7	
280.04	5673.6	
280.25	4466.6	
280.46	3955.3	
280.67	3205.8	
280.88	4470	
281.09	5208.7	
281.3	3348.4	
281.51	4108.9	
281.72	4568.3	
281.93	5112.4	
282.14	3005.7	
282.35	3208.5	
282.56	5123.3	
282.77	5091.3	
282.98	3119.1	
283.19	3734.1	
283.4	6079.1	
283.61	4730.1	
283.82	2891	
284.03	3890.5	
284.24	4917.9	
284.45	5141.8	
284.66	3903.4	
284.87	3707.5	
285.08	5214.1	
285.29	5266.7	
285.5	2756.6	
285.71	3052.8	
285.92	5182.7	
286.12	5642.8	
286.33	3825.6	
286.54	3150.5	
286.75	5117.2	
286.96	4661.2	
287.17	2913.6	
287.38	3719.8	
287.59	4510.3	
287.8	4498	
288.01	3186	
288.22	3502	
288.43	5086.5	
288.64	4344.4	
288.85	3667.2	
289.06	3518.4	
289.27	5133.6	
289.48	5403.9	
289.69	3916.4	
289.9	3579.8	
290.11	5304.9	
290.32	4588.8	
290.53	3654.3	
290.74	3433.1	
290.94	5106.3	
291.15	5047.6	
291.36	3028.3	
291.57	3476.8	
291.78	4565.6	
291.99	4278.2	
292.2	2955.9	
292.41	3398.9	
292.62	5157.5	
292.83	5005.2	
293.04	4186.7	
293.25	2983.2	
293.46	4686.4	
293.67	5160.2	
293.88	3011.9	
294.09	2942.9	
294.29	4456.4	
294.5	4842.8	
294.71	3237.8	
294.92	3070.6	
295.13	4648.2	
295.34	5620.3	
295.55	2765.4	
295.76	2706.7	
295.97	5057.8	
296.18	5580	
296.39	2859.6	
296.6	3004.4	
296.81	4792.2	
297.01	5074.9	
297.22	3117.7	
297.43	3038.5	
297.64	4597	
297.85	4476.2	
298.06	2571.6	
298.27	2768.2	
298.48	4755.4	
298.69	4528.1	
298.9	3181.2	
299.11	2953.2	
299.31	4482.3	
299.52	4428.4	
299.73	3417.4	
299.94	3357.3	
300.15	4788.2	
300.36	4493.2	
300.57	3367.5	
300.78	3390.1	
300.99	4706.9	
301.2	4828.4	
301.4	3035.8	
301.61	3254.2	
301.82	5024.3	
302.03	5117.2	
302.24	3573	
302.45	2881.5	
302.66	4987.5	
302.87	5243.5	
303.08	3003.7	
303.29	4044.1	
303.49	4621.6	
303.7	4739	
303.91	2750.4	
304.12	3816	
304.33	4341.7	
304.54	4898.7	
304.75	3028.9	
304.96	2916.3	
305.16	4998.4	
305.37	5547.3	
305.58	2699.9	
305.79	2742.2	
306	4956.1	
306.21	4319.8	
306.42	3000.3	
306.63	4348.5	
306.83	4616.8	
307.04	5119.2	
307.25	3311.6	
307.46	3248.8	
307.67	4222.9	
307.88	4945.8	
308.09	3020.8	
308.29	3094.5	
308.5	4767	
308.71	5148.6	
308.92	3173	
309.13	2935.4	
309.34	4715.8	
309.55	4686.4	
309.75	3652.9	
309.96	3389.4	
310.17	5028.4	
310.38	4504.2	
310.59	3497.2	
310.8	2864.4	
311.01	4665.3	
311.21	4717.2	
311.42	2958.6	
311.63	2947.7	
311.84	4621.6	
312.05	4782.7	
312.26	3345	
312.46	3589.4	
312.67	4640	
312.88	4388.1	
313.09	2917	
313.3	2875.3	
313.51	5355.4	
313.71	5595.1	
313.92	2885.6	
314.13	3031	
314.34	4936.3	
314.55	4657.8	
314.76	3630.4	
314.96	3190.1	
315.17	4863.2	
315.38	4969.1	
315.59	2966.1	
315.8	2829.6	
316.01	5335	
316.21	5441.5	
316.42	2880.8	
316.63	3221.5	
316.84	4625.7	
317.05	5215.5	
317.26	3439.2	
317.46	3072.6	
317.67	4721.9	
317.88	5004.6	
318.09	3614.7	
318.3	2745.6	
318.5	4549.2	
318.71	4945.2	
318.92	4474.8	
319.13	3446	
319.34	5153.4	
319.54	5312.4	
319.75	2799.6	
319.96	2684.2	
320.17	5058.5	
320.38	5190.9	
320.58	2712.2	
320.79	3168.9	
321	5197.1	
321.21	5313.8	
321.42	3195.5	
321.62	2680.8	
321.83	4485.7	
322.04	4716.5	
322.25	3130.7	
322.46	2964.8	
322.66	4838	
322.87	4977.9	
323.08	3506.8	
323.29	2873.3	
323.5	5595.1	
323.7	4407.2	
323.91	3805.1	
324.12	3488.4	
324.33	4838	
324.53	5047.6	
324.74	3332.7	
324.95	3488.4	
325.16	4366.3	
325.37	4623.6	
325.57	2917	
325.78	2974.3	
325.99	4874.2	
326.2	4407.9	
326.4	4003.8	
326.61	2750.4	
326.82	4726.7	
327.03	4803.2	
327.24	3983.3	
327.44	3741.6	
327.65	4968.4	
327.86	4143	
328.07	3371.6	
328.27	2835.8	
328.48	5336.3	
328.69	4410.6	
328.9	4119.8	
329.1	3058.3	
329.31	4660.5	
329.52	5322	
329.73	3016	
329.93	3230.3	
330.14	4810	
330.35	4930.8	
330.56	4566.3	
330.76	3497.2	
330.97	4663.2	
331.18	4857.8	
331.39	3242.6	
331.59	2761.3	
331.8	5218.2	
332.01	5304.2	
332.22	3065.1	
332.42	3363.4	
332.63	4892.6	
332.84	4514.4	
333.05	3244	
333.25	2957.9	
333.46	4538.3	
333.67	4750.6	
333.88	3124.5	
334.08	3329.3	
334.29	6014.9	
334.5	5246.2	
334.7	2880.8	
334.91	3932.1	
335.12	4433.2	
335.33	4988.2	
335.53	3198.9	
335.74	4494.6	
335.95	4693.9	
336.16	4401.1	
336.36	3254.2	
336.57	3654.3	
336.78	4343.1	
336.98	5185.5	
337.19	3902.7	
337.4	3174.4	
337.61	5618.3	
337.81	4382	
338.02	3054.9	
338.23	3685	
338.43	5368.4	
338.64	4556	
338.85	3012.6	
339.05	3756.7	
339.26	5367.7	
339.47	4358.1	
339.68	2966.1	
339.88	4142.4	
340.09	5008.6	
340.3	5033.2	
340.5	3360	
340.71	2716.3	
340.92	4371.7	
341.13	5254.4	
341.33	2826.2	
341.54	3366.9	
341.75	4952.7	
341.95	4614.8	
342.16	3251.5	
342.37	3512.3	
342.57	4465.3	
342.78	4642.7	
342.99	3594.9	
343.19	2734.7	
343.4	4992.9	
343.61	4988.9	
343.81	3180.5	
344.02	2890.4	
344.23	5061.2	
344.43	5304.2	
344.64	3577.1	
344.85	3508.2	
345.06	4928.8	
345.26	5203.9	
345.47	3345.7	
345.68	3840.6	
345.88	4334.9	
346.09	5145.9	
346.3	3458.3	
346.5	2650.1	
346.71	4728.1	
346.92	4524.6	
347.12	2782.5	
347.33	3342.3	
347.54	5129.5	
347.74	5442.1	
347.95	3330	
348.16	2603	
348.36	4627	
348.57	4438.6	
348.78	3371	
348.98	3534.8	
349.19	4685.8	
349.39	4367	
349.6	2721.1	
349.81	2995.5	
350.01	4962.9	
350.22	4543.8	
350.43	3209.2	
350.63	3803.1	
350.84	4773.1	
351.05	4521.2	
351.25	2962.7	
351.46	2736.8	
351.67	5111.7	
351.87	4450.9	
352.08	3173.7	
352.29	3442	
352.49	5067.4	
352.7	5111.7	
352.9	2854.9	
353.11	3549.8	
353.32	5539.1	
353.52	4573.8	
353.73	2820.7	
353.94	3566.2	
354.14	4930.1	
354.35	4760.2	
354.55	2984.6	
354.76	3224.9	
354.97	4970.4	
355.17	4706.9	
355.38	2861	
355.59	3773.7	
355.79	4446.1	
356	4707.6	
356.2	3233.1	
356.41	2870.6	
356.62	4330.8	
356.82	4639.3	
357.03	3408.5	
357.24	3065.8	
357.44	4438.6	
357.65	4551.3	
357.85	3956	
358.06	3270.6	
358.27	4298.7	
358.47	4416.1	
358.68	2738.1	
358.88	3377.1	
359.09	4918.5	
359.3	5100.1	
359.5	3876.1	
359.71	3525.2	
359.91	5435.3	
360.12	4973.2	
360.33	3399.6	
360.53	3724.6	
360.74	4581.3	
360.94	4568.3	
361.15	3542.3	
361.36	2954.5	
361.56	5114.5	
361.77	4725.3	
361.97	3848.8	
362.18	3117	
362.38	5068	
362.59	4317.1	
362.8	2957.3	
363	2836.4	
363.21	4175.1	
363.41	4747.2	
363.62	3302	
363.83	4027	
364.03	4885.1	
364.24	5376.6	
364.44	4114.4	
364.65	4081.6	
364.85	4663.9	
365.06	4351.3	
365.27	3022.8	
365.47	3089	
365.68	5335	
365.88	4626.4	
366.09	3355.9	
366.29	3136.1	
366.5	4761.5	
366.71	5100.8	
366.91	4047.5	
367.12	3420.1	
367.32	5516.5	
367.53	4967.7	
367.73	3444	
367.94	4107.5	
368.14	5063.3	
368.35	5554.1	
368.56	3339.6	
368.76	3192.8	
368.97	5060.5	
369.17	6190.3	
369.38	3050.1	
369.58	3244.7	
369.79	4333.5	
369.99	5317.2	
370.2	4012.7	
370.4	3349.8	
370.61	4799.8	
370.82	5760.3	
371.02	3228.3	
371.23	2783.9	
371.43	4304.8	
371.64	5263.3	
371.84	3278.8	
372.05	4049.5	
372.25	6171.9	
372.46	5019.6	
372.66	3209.2	
372.87	3200.3	
373.07	5014.8	
373.28	6280.4	
373.48	3972.4	
373.69	3703.4	
373.9	4693.9	
374.1	4689.2	
374.31	3914.4	
374.51	3547.8	
374.72	5256.5	
374.92	4418.8	
375.13	3926.6	
375.33	3480.2	
375.54	4903.5	
375.74	4567.7	
375.95	3540.9	
376.15	4377.2	
376.36	5008.6	
376.56	4900.8	
376.77	3543.7	
376.97	3867.9	
377.18	5752.7	
377.38	5044.1	
377.59	4046.8	
377.79	3211.2	
378	4817.5	
378.2	5122.7	
378.41	3233.1	
378.61	3151.8	
378.82	5244.8	
379.02	4626.4	
379.23	3300	
379.43	4139.6	
379.64	5406	
379.84	4942.4	
380.05	3202.3	
380.25	3160.7	
380.46	5051.7	
380.66	4784.1	
380.87	4177.9	
381.07	4398.4	
381.28	5464.7	
381.48	5042.8	
381.69	3241.9	
381.89	3310.2	
382.1	4364.9	
382.3	5111	
382.51	4065.9	
382.71	4591.5	
382.91	5033.2	
383.12	5354.1	
383.32	3512.9	
383.53	3627	
383.73	4927.4	
383.94	4823.6	
384.14	3655.6	
384.35	2942.9	
384.55	4706.2	
384.76	5055.8	
384.96	3487.7	
385.17	3762.1	
385.37	5087.2	
385.58	4519.9	
385.78	3665.9	
385.98	2947.7	
386.19	4724	
386.39	5025	
386.6	3302.7	
386.8	3431	
387.01	5048.2	
387.21	5077.6	
387.42	3753.2	
387.62	4146.5	
387.83	4608.6	
388.03	4899.4	
388.23	3470.6	
388.44	4056.3	
388.64	4336.9	
388.85	4372.4	
389.05	3732.8	
389.26	4091.2	
389.46	5868.8	
389.67	5306.3	
389.87	3668.6	
390.07	3736.9	
390.28	4781.3	
390.48	4440	
390.69	3119.7	
390.89	3442	
391.1	4564.2	
391.3	5261.2	
391.5	4235.2	
391.71	4698.7	
391.91	5119.9	
392.12	5687.9	
392.32	4303.5	
392.53	3705.5	
392.73	4708.3	
392.93	4803.9	
393.14	3497.2	
393.34	4063.2	
393.55	5064.6	
393.75	4798.4	
393.95	3537.5	
394.16	3428.3	
394.36	4627	
394.57	5137.7	
394.77	3140.2	
394.98	3390.1	
395.18	4621.6	
395.38	4644.1	
395.59	4037.9	
395.79	3269.2	
396	4666	
396.2	5031.9	
396.4	3880.9	
396.61	3828.3	
396.81	5126.1	
397.02	4595	
397.22	3977.8	
397.42	4083.6	
397.63	5151.3	
397.83	4524.6	
398.04	3263.8	
398.24	3590.1	
398.44	4916.5	
398.65	4230.4	
398.85	3155.2	
399.05	3166.8	
399.26	4544.4	
399.46	5685.2	
399.67	3522.5	
399.87	3269.9	
400.07	4779.3	
400.28	5000.5	
400.48	3323.2	
400.69	4034.5	
400.89	5137	
401.09	5526.8	
401.3	3266.5	
401.5	4079.6	
401.7	5608	
401.91	5842.2	
402.11	3586.7	
402.32	3644	
402.52	5208	
402.72	5152	
402.93	3809.2	
403.13	3029.6	
403.33	5762.3	
403.54	4837.3	
403.74	3659	
403.94	4280.9	
404.15	4965.6	
404.35	5741.8	
404.56	3442.6	
404.76	4791.6	
404.96	5214.1	
405.17	4995	
405.37	4305.5	
405.57	3824.2	
405.78	5175.2	
405.98	4862.6	
406.18	3493.8	
406.39	4097.3	
406.59	5241.4	
406.79	4842.1	
407	3350.5	
407.2	3330	
407.4	5276.3	
407.61	5371.8	
407.81	3365.5	
408.01	4635.9	
408.22	4431.8	
408.42	5794.4	
408.62	4067.3	
408.83	3687.7	
409.03	4831.2	
409.23	4715.8	
409.44	3713	
409.64	3900	
409.84	5462.6	
410.05	5265.3	
410.25	3801	
410.45	3604.4	
410.66	4995.7	
410.86	6871.6	
411.06	3903.4	
411.27	3802.4	
411.47	6536.4	
411.67	5122.7	
411.88	3962.1	
412.08	4080.9	
412.28	5515.2	
412.49	5875.6	
412.69	3762.8	
412.89	3773	
413.09	5797.1	
413.3	5616.9	
413.5	3898.6	
413.7	3622.9	
413.91	5174.5	
414.11	5756.2	
414.31	3734.1	
414.52	3988.1	
414.72	5542.5	
414.92	5378	
415.12	3695.9	
415.33	4121.2	
415.53	5704.3	
415.73	5728.9	
415.94	4393.6	
416.14	3900.7	
416.34	4992.3	
416.55	4842.8	
416.75	4775.2	
416.95	4360.1	
417.15	5715.2	
417.36	6158.2	
417.56	4931.5	
417.76	4220.2	
417.97	5918.6	
418.17	5655.8	
418.37	3977.8	
418.57	3926.6	
418.78	5621.7	
418.98	5345.9	
419.18	4584	
419.38	4558.8	
419.59	5373.2	
419.79	4998.4	
419.99	3888.4	
420.2	4066.6	
420.4	5737.7	
420.6	5788.2	
420.8	3800.3	
421.01	3665.9	
421.21	5544.5	
421.41	5646.2	
421.61	4062.5	
421.82	3898	
422.02	5285.1	
422.22	5940.5	
422.42	4386.7	
422.63	4268.6	
422.83	5292	
423.03	6223.8	
423.23	4220.2	
423.44	3539.6	
423.64	5339.1	
423.84	5111.7	
424.04	3837.9	
424.25	3555.3	
424.45	5993	
424.65	6008.1	
424.85	3408.5	
425.06	3889.1	
425.26	6137.1	
425.46	5254.4	
425.66	4188.8	
425.87	3992.9	
426.07	5829.9	
426.27	5666.7	
426.47	4124.6	
426.67	3665.9	
426.88	6106.4	
427.08	5681.1	
427.28	4279.6	
427.48	3594.9	
427.69	4934.9	
427.89	5393	
428.09	4245.4	
428.29	3611.9	
428.5	5774.6	
428.7	5466	
428.9	3566.2	
429.1	3923.2	
429.3	5449.6	
429.51	5644.2	
429.71	3748.5	
429.91	4307.6	
430.11	5696.8	
430.31	5837.4	
430.52	3975.1	
430.72	4120.5	
430.92	6066.1	
431.12	5623	
431.32	3658.4	
431.53	4024.9	
431.73	4914.4	
431.93	6080.4	
432.13	3638.6	
432.33	3531.4	
432.54	5301.5	
432.74	5439.4	
432.94	3523.9	
433.14	4257.7	
433.34	5691.3	
433.55	5201.8	
433.75	4200.4	
433.95	5394.3	
434.15	5463.3	
434.35	5208	
434.56	3644	
434.76	3265.8	
434.96	5416.9	
435.16	5517.2	
435.36	3489.1	
435.56	4392.9	
435.77	5131.5	
435.97	5244.2	
436.17	4787.5	
436.37	4244.8	
436.57	5117.9	
436.78	4994.3	
436.98	4258.4	
437.18	4767.7	
437.38	5542.5	
437.58	5194.3	
437.78	4810.7	
437.99	3819.5	
438.19	5729.5	
438.39	6709.1	
438.59	3827.7	
438.79	3444.7	
438.99	6171.2	
439.2	5282.4	
439.4	3575.8	
439.6	3529.3	
439.8	5455.8	
440	6199.9	
440.2	4177.9	
440.4	4287.1	
440.61	5753.4	
440.81	6102.9	
441.01	3589.4	
441.21	4183.3	
441.41	5950.7	
441.61	5694.7	
441.81	4342.4	
442.02	5143.1	
442.22	6329.6	
442.42	5821.7	
442.62	3653.6	
442.82	3733.4	
443.02	6052.4	
443.22	5324	
443.43	3908.2	
443.63	3609.9	
443.83	5193	
444.03	5194.3	
444.23	4453	
444.43	4176.5	
444.63	5528.2	
444.83	6320.7	
445.04	3756	
445.24	4580.6	
445.44	5843.5	
445.64	5796.4	
445.84	4384.7	
446.04	4319.2	
446.24	5221	
446.44	6010.8	
446.65	3697.9	
446.85	4018.8	
447.05	5620.3	
447.25	5994.4	
447.45	4157.4	
447.65	3627.6	
447.85	5609.4	
448.05	5248.9	
448.25	4317.8	
448.46	4151.2	
448.66	5584.8	
448.86	5314.5	
449.06	3538.2	
449.26	4363.5	
449.46	5768.4	
449.66	5110.4	
449.86	3955.3	
450.06	3950.5	
450.26	5199.8	
450.47	5607.3	
450.67	4257.7	
450.87	4389.5	
451.07	5814.2	
451.27	5461.9	
451.47	3684.3	
451.67	4046.8	
451.87	5275.6	
452.07	6180.1	
452.27	3812.6	
452.47	3792.8	
452.67	5525.4	
452.88	5836	
453.08	3386	
453.28	4775.2	
453.48	6401.3	
453.68	5468.8	
453.88	3704.8	
454.08	3882.9	
454.28	5767.1	
454.48	5523.4	
454.68	4257.7	
454.88	4628.4	
455.08	5883.8	
455.28	5570.5	
455.48	3650.2	
455.68	4121.2	
455.89	6182.1	
456.09	5890	
456.29	3885.7	
456.49	3842.7	
456.69	6018.3	
456.89	5464.7	
457.09	4285.7	
457.29	4422.9	
457.49	5700.9	
457.69	5782.1	
457.89	4141	
458.09	3627	
458.29	5526.8	
458.49	6050.4	
458.69	4326.7	
458.89	3891.1	
459.09	6168.5	
459.29	6242.9	
459.49	4005.1	
459.69	4621.6	
459.9	5911.1	
460.1	5489.2	
460.3	3981.9	
460.5	3746.4	
460.7	5903.6	
460.9	5513.8	
461.1	3569.6	
461.3	4367.6	
461.5	6268.8	
461.7	5975.3	
461.9	3861.1	
462.1	4162.2	
462.3	5626.5	
462.5	5979.4	
462.7	3818.8	
462.9	3891.1	
463.1	6730.3	
463.3	6452.5	
463.5	4057	
463.7	4631.1	
463.9	5768.4	
464.1	5960.3	
464.3	4099.4	
464.5	4285.7	
464.7	6118.6	
464.9	5791	
465.1	5193	
465.3	4493.2	
465.5	6387.6	
465.7	6358.9	
465.9	4667.3	
466.1	4593.6	
466.3	6109.8	
466.5	6132.3	
466.7	5137.7	
466.9	4403.8	
467.1	6137.1	
467.3	6701	
467.5	5087.8	
467.7	4328	
467.9	6903.7	
468.1	7484	
468.3	4870.8	
468.5	5108.3	
468.7	5917.3	
468.9	5899.5	
469.1	4494.6	
469.3	4956.8	
469.5	7361.1	
469.7	5637.4	
469.9	4840	
470.1	4302.1	
470.3	6024.4	
470.5	6038.8	
470.7	5227.1	
470.9	4347.8	
471.1	5851	
471.3	6244.9	
471.5	4233.8	
471.69	5687.2	
471.89	5847.6	
472.09	5394.3	
472.29	4788.8	
472.49	5160.9	
472.69	5608	
472.89	6117.3	
473.09	4157.4	
473.29	4380.6	
473.49	5780.7	
473.69	5786.2	
473.89	4977.9	
474.09	4390.8	
474.29	6756.9	
474.49	6429.3	
474.69	4970.4	
474.89	4556.7	
475.09	5863.3	
475.29	5814.9	
475.49	4135.5	
475.69	4301.4	
475.88	7058.7	
476.08	6156.9	
476.28	4005.1	
476.48	4391.5	
476.68	6538.5	
476.88	6285.9	
477.08	4362.9	
477.28	4520.5	
477.48	6018.3	
477.68	6404	
477.88	4157.4	
478.08	4403.1	
478.28	6656.6	
478.48	6025.8	
478.67	4455.7	
478.87	4037.9	
479.07	6462.7	
479.27	6141.2	
479.47	4633.9	
479.67	4596.3	
479.87	6378.1	
480.07	6731.7	
480.27	4091.8	
480.47	5175.2	
480.67	6071.5	
480.87	6567.2	
481.06	4268	
481.26	4905.6	
481.46	6107.7	
481.66	5991	
481.86	4577.2	
482.06	5318.6	
482.26	5850.4	
482.46	6480.5	
482.66	4571.1	
482.86	4231.1	
483.05	6195.1	
483.25	5679	
483.45	6384.9	
483.65	4461.8	
483.85	5754.1	
484.05	5988.3	
484.25	4873.5	
484.45	5207.3	
484.65	6623.8	
484.84	6562.4	
485.04	4513.7	
485.24	4442	
485.44	6965.8	
485.64	5641.5	
485.84	3976.5	
486.04	4941.7	
486.24	5852.4	
486.44	6165.1	
486.63	3985.3	
486.83	4556.7	
487.03	5841.5	
487.23	5900.2	
487.43	4009.9	
487.63	5638.7	
487.83	5978	
488.02	6653.2	
488.22	4635.2	
488.42	5214.1	
488.62	6590.4	
488.82	5753.4	
489.02	4468	
489.22	4384.7	
489.41	6446.3	
489.61	6240.2	
489.81	4217.5	
490.01	4295.3	
490.21	6459.3	
490.41	6985.6	
490.61	4273.4	
490.8	4296	
491	6132.3	
491.2	5640.8	
491.4	4780	
491.6	4201.1	
491.8	6180.1	
491.99	6298.9	
492.19	4066.6	
492.39	4218.1	
492.59	6445	
492.79	6546	
492.99	4883.7	
493.18	4229.1	
493.38	6568.5	
493.58	7044.3	
493.78	4670.1	
493.98	4352.6	
494.18	6264.1	
494.37	5854.5	
494.57	4785.4	
494.77	4720.6	
494.97	6444.3	
495.17	6594.5	
495.37	4395.6	
495.56	4717.2	
495.76	6649.1	
495.96	6476.4	
496.16	5358.9	
496.36	4593.6	
496.55	6589.7	
496.75	6139.1	
496.95	4764.3	
497.15	4683.7	
497.35	6574.7	
497.54	6496.8	
497.74	4648.2	
497.94	5685.8	
498.14	7058.7	
498.34	6875	
498.53	4286.4	
498.73	4893.3	
498.93	5980.8	
499.13	6440.2	
499.33	4728.1	
499.52	5169.8	
499.72	6477	
499.92	6576	
500.12	4493.2	
500.32	4648.2	
500.51	6642.2	
500.71	6355.5	
500.91	5301.5	
501.11	4980	
501.31	6494.1	
501.5	6991.1	
501.7	5433.9	
501.9	4732.2	
502.1	6465.4	
502.29	6722.1	
502.49	5066	
502.69	5421	
502.89	6633.4	
503.09	6625.9	
503.28	4399	
503.48	4530.1	
503.68	6184.2	
503.88	6042.2	
504.07	5170.4	
504.27	4786.1	
504.47	6358.3	
504.67	6521.4	
504.86	5150.6	
505.06	4919.9	
505.26	6215.6	
505.46	7419.1	
505.65	4840.7	
505.85	5076.2	
506.05	6201.9	
506.25	6614.9	
506.44	4418.2	
506.64	5063.3	
506.84	6107	
507.04	6823.1	
507.23	4597.7	
507.43	4969.1	
507.63	7555	
507.83	6314.6	
508.02	4953.4	
508.22	4719.2	
508.42	7742.7	
508.62	6115.2	
508.81	4941.1	
509.01	5322.7	
509.21	6019.7	
509.4	6347.3	
509.6	5010	
509.8	4571.7	
510	6179.4	
510.19	7186.3	
510.39	4584.7	
510.59	4636.6	
510.79	6115.9	
510.98	7140.6	
511.18	4721.9	
511.38	4760.2	
511.57	6761.7	
511.77	6522.8	
511.97	5197.1	
512.17	4625.7	
512.36	6700.3	
512.56	6628.6	
512.76	4626.4	
512.95	4459.1	
513.15	6886	
513.35	5721.3	
513.55	5241.4	
513.74	4619.5	
513.94	6741.2	
514.14	6241.5	
514.33	5299.5	
514.53	5139	
514.73	6335.1	
514.92	6343.2	
515.12	4664.6	
515.32	4495.3	
515.51	6443.6	
515.71	6791.1	
515.91	5788.2	
516.11	4647.5	
516.3	7690.8	
516.5	6164.4	
516.7	5025.7	
516.89	5404.6	
517.09	6311.8	
517.29	6223.1	
517.48	5304.2	
517.68	4790.9	
517.88	6004.6	
518.07	6512.5	
518.27	5172.5	
518.47	4491.9	
518.66	6943.3	
518.86	5968.5	
519.06	4380.6	
519.25	4689.8	
519.45	6192.4	
519.65	7227.3	
519.84	5207.3	
520.04	5653.8	
520.24	7545.4	
520.43	6646.3	
520.63	5059.8	
520.83	4786.8	
521.02	6218.3	
521.22	6632.7	
521.42	5181.4	
521.61	5524.1	
521.81	6305	
522.01	6516	
522.2	5128.1	
522.4	4902.8	
522.6	6844.3	
522.79	5898.8	
522.99	5011.4	
523.18	4440	
523.38	6555.5	
523.58	6543.3	
523.77	5739.1	
523.97	4472.1	
524.17	7779.6	
524.36	7316	
524.56	5427.8	
524.76	5112.4	
524.95	6490	
525.15	6216.3	
525.34	4990.2	
525.54	5001.1	
525.74	6707.1	
525.93	6016.9	
526.13	5782.8	
526.33	4930.1	
526.52	7118.1	
526.72	6620.4	
526.91	5845.6	
527.11	5301.5	
527.31	6935.8	
527.5	7290.8	
527.7	5180.7	
527.89	4524	
528.09	6230.6	
528.29	6575.3	
528.48	5480.4	
528.68	5197.1	
528.87	6979.5	
529.07	7051.8	
529.27	5243.5	
529.46	4922	
529.66	6711.2	
529.85	7019.1	
530.05	4842.8	
530.25	5337	
530.44	7739.3	
530.64	6678.4	
530.83	5110.4	
531.03	5282.4	
531.23	7038.9	
531.42	6824.5	
531.62	5814.9	
531.81	5208	
532.01	7060.7	
532.21	7215.7	
532.4	4957.4	
532.6	5208.7	
532.79	7684.7	
532.99	7035.5	
533.18	5253.7	
533.38	5988.3	
533.58	6710.5	
533.77	7213.6	
533.97	5206.6	
534.16	5802.6	
534.36	7428	
534.55	6731	
534.75	5888.6	
534.95	5215.5	
535.14	7424.6	
535.34	6656.6	
535.53	5070.1	
535.73	6504.3	
535.92	7754.3	
536.12	6882.5	
536.31	5137.7	
536.51	6032	
536.71	7118.1	
536.9	6829.3	
537.1	5283.1	
537.29	5439.4	
537.49	7485.3	
537.68	6724.2	
537.88	5635.3	
538.07	5030.5	
538.27	6876.4	
538.46	7576.8	
538.66	4977.2	
538.86	5312.4	
539.05	6930.3	
539.25	7277.1	
539.44	5563	
539.64	5260.5	
539.83	6867.5	
540.03	7557	
540.22	5197.7	
540.42	5261.2	
540.61	7118.1	
540.81	7092.8	
541	5513.8	
541.2	6068.8	
541.39	6698.9	
541.59	6913.3	
541.78	5827.2	
541.98	5217.5	
542.18	6493.4	
542.37	6495.5	
542.57	5509	
542.76	5875.6	
542.96	6653.2	
543.15	7105.1	
543.35	5533.6	
543.54	5018.9	
543.74	7264.8	
543.93	6966.5	
544.13	5492	
544.32	6294.8	
544.52	7210.2	
544.71	6674.3	
544.91	4869.4	
545.1	5702.9	
545.3	6694.8	
545.49	7092.8	
545.69	4831.8	
545.88	5236	
546.08	7881.9	
546.27	7488.1	
546.47	5588.2	
546.66	5106.3	
546.86	7370	
547.05	7711.3	
547.24	5370.5	
547.44	5141.8	
547.63	6634.7	
547.83	7374.1	
548.02	5520.6	
548.22	5658.5	
548.41	6423.8	
548.61	7355.6	
548.8	5114.5	
549	5168.4	
549.19	7011.6	
549.39	7204.1	
549.58	4944.5	
549.78	5401.2	
549.97	7174	
550.17	6869.6	
550.36	6062.7	
550.55	6742.6	
550.75	6812.9	
550.94	7458.7	
551.14	5156.1	
551.33	5486.5	
551.53	6367.1	
551.72	7056.6	
551.92	5427.1	
552.11	5257.1	
552.31	7188.4	
552.5	7238.9	
552.69	6549.4	
552.89	4996.4	
553.08	7211.6	
553.28	6972.7	
553.47	5225.7	
553.67	6130.3	
553.86	7649.8	
554.06	6332.3	
554.25	4780.6	
554.44	5153.4	
554.64	8144.8	
554.83	7814.4	
555.03	5143.1	
555.22	5468.1	
555.42	7390.4	
555.61	7115.3	
555.8	5309	
556	5491.3	
556.19	6449.7	
556.39	7438.9	
556.58	5317.9	
556.78	5290.6	
556.97	7107.8	
557.16	6748.1	
557.36	6138.4	
557.55	5018.9	
557.75	6281.1	
557.94	7688.1	
558.13	5089.2	
558.33	4958.1	
558.52	7458	
558.72	6550.8	
558.91	5065.3	
559.1	5281.7	
559.3	6403.3	
559.49	6204	
559.69	4768.4	
559.88	5417.6	
560.07	6952.9	
560.27	7328.3	
560.46	5627.8	
560.66	5655.8	
560.85	6914.6	
561.04	6304.3	
561.24	4981.3	
561.43	5203.2	
561.63	6449.7	
561.82	6703	
562.01	6117.3	
562.21	5395.7	
562.4	7005.4	
562.59	7651.9	
562.79	5380	
562.98	5063.3	
563.18	6911.9	
563.37	8004.1	
563.56	5618.9	
563.76	5065.3	
563.95	6517.3	
564.14	6528.2	
564.34	5273.5	
564.53	5150	
564.73	6991.1	
564.92	7112.6	
565.11	5469.4	
565.31	4904.9	
565.5	7387	
565.69	6559.6	
565.89	5154.7	
566.08	5355.4	
566.27	7197.9	
566.47	7505.8	
566.66	5842.9	
566.85	4856.4	
567.05	7053.9	
567.24	6542.6	
567.44	5070.1	
567.63	6067.4	
567.82	7211.6	
568.02	6877.1	
568.21	5048.2	
568.4	5349.3	
568.6	6878.4	
568.79	6794.5	
568.98	4967	
569.18	5028.4	
569.37	6842.3	
569.56	8244.4	
569.76	5384.1	
569.95	6057.2	
570.14	7125.6	
570.34	6974.7	
570.53	5011.4	
570.72	4956.8	
570.91	7489.4	
571.11	6841.6	
571.3	5338.4	
571.49	6025.8	
571.69	6977.4	
571.88	6587.6	
572.07	5692	
572.27	5741.1	
572.46	6497.5	
572.65	7260.7	
572.85	5109	
573.04	5431.2	
573.23	7455.3	
573.43	6929.6	
573.62	4994.3	
573.81	5454.4	
574	6983.6	
574.2	6801.3	
574.39	5192.3	
574.58	5309	
574.78	7485.3	
574.97	6956.3	
575.16	5644.2	
575.36	5733.6	
575.55	7281.2	
575.74	7449.1	
575.93	4922	
576.13	5713.8	
576.32	6775.4	
576.51	7220.5	
576.71	5379.3	
576.9	6232	
577.09	7578.8	
577.28	7064.1	
577.48	5567.1	
577.67	4912.4	
577.86	6860.7	
578.05	7146.7	
578.25	5376.6	
578.44	5496.7	
578.63	6967.9	
578.83	7806.2	
579.02	5004.6	
579.21	6092	
579.4	7091.4	
579.6	6874.3	
579.79	5535	
579.98	7090.1	
580.17	7341.3	
580.37	7415	
580.56	5159.5	
580.75	5732.9	
580.94	7587	
581.14	7669.6	
581.33	6042.9	
581.52	5207.3	
581.71	7223.9	
581.91	7759.1	
582.1	5046.9	
582.29	5443.5	
582.48	7034.1	
582.68	6933.7	
582.87	5774.6	
583.06	5523.4	
583.25	7311.9	
583.45	7090.1	
583.64	5992.4	
583.83	6532.3	
584.02	6996.5	
584.21	7264.8	
584.41	5963	
584.6	5500.8	
584.79	7027.9	
584.98	7495.6	
585.18	5175.9	
585.37	5014.8	
585.56	6752.2	
585.75	7363.1	
585.94	5350	
586.14	5728.2	
586.33	7688.1	
586.52	6930.3	
586.71	5657.9	
586.91	5500.8	
587.1	6688	
587.29	7416.4	
587.48	5427.8	
587.67	5309	
587.87	7275.8	
588.06	7249.1	
588.25	6285.2	
588.44	5797.8	
588.63	7004.7	
588.83	7363.8	
589.02	5440.1	
589.21	5351.3	
589.4	6973.3	
589.59	6825.9	
589.78	4874.2	
589.98	5056.4	
590.17	6519.4	
590.36	6894.8	
590.55	4625	
590.74	5236	
590.94	7879.9	
591.13	6862.1	
591.32	5135.6	
591.51	4735.6	
591.7	7193.1	
591.89	6833.4	
592.09	4863.2	
592.28	5166.3	
592.47	6217.6	
592.66	7692.2	
592.85	4872.1	
593.05	4942.4	
593.24	6720.8	
593.43	7361.8	
593.62	5093.3	
593.81	5420.3	
594	6822.5	
594.19	6973.3	
594.39	4988.9	
594.58	4952.7	
594.77	6929	
594.96	7373.4	
595.15	4956.1	
595.34	5438	
595.54	6974	
595.73	6426.5	
595.92	4453.6	
596.11	5338.4	
596.3	7395.2	
596.49	6494.8	
596.68	5148.6	
596.88	5463.3	
597.07	7139.9	
597.26	6314.6	
597.45	4802.5	
597.64	5687.9	
597.83	6566.5	
598.02	7010.2	
598.22	4884.4	
598.41	5339.1	
598.6	6853.2	
598.79	6407.4	
598.98	4913.8	
599.17	5570.5	
599.36	6878.4	
599.55	7691.5	
599.74	6353.5	
599.94	6157.6	
600.13	7228.6	
600.32	6395.1	
600.51	4711	
600.7	4824.3	
600.89	7658	
601.08	7677.8	
601.27	4689.2	
601.47	5337.7	
601.66	7176.8	
601.85	7653.9	
602.04	5127.4	
602.23	5435.3	
602.42	6471.6	
602.61	7026.6	
602.8	5099.4	
602.99	4888.5	
603.18	6724.8	
603.37	6897.6	
603.57	5411.4	
603.76	5870.8	
603.95	7484	
604.14	7010.9	
604.33	5072.8	
604.52	5265.3	
604.71	7003.4	
604.9	6575.3	
605.09	5742.5	
605.28	5595.7	
605.47	7307.8	
605.66	7030	
605.86	5495.4	
606.05	5096.7	
606.24	7343.3	
606.43	6296.1	
606.62	5282.4	
606.81	5876.3	
607	7203.4	
607.19	6621.8	
607.38	4821.6	
607.57	5082.4	
607.76	6593.1	
607.95	6119.3	
608.14	5378.6	
608.33	5786.9	
608.52	6550.1	
608.72	7228.6	
608.91	4777.9	
609.1	4721.9	
609.29	6627.2	
609.48	6240.2	
609.67	5449	
609.86	4821.6	
610.05	6386.9	
610.24	6472.9	
610.43	4767.7	
610.62	4473.4	
610.81	7397.9	
611	7236.8	
611.19	4826.4	
611.38	5326.8	
611.57	6843.6	
611.76	7708.6	
611.95	4633.9	
612.14	4546.5	
612.33	6739.9	
612.52	6322.1	
612.71	5015.5	
612.9	4458.4	
613.09	6040.8	
613.28	7793.9	
613.47	4959.5	
613.66	5547.3	
613.85	6832.7	
614.04	6395.8	
614.24	4905.6	
614.43	4323.9	
614.62	6935.1	
614.81	6885.3	
615	5287.9	
615.19	5274.9	
615.38	6343.2	
615.57	6503.7	
615.76	5219.6	
615.95	5943.2	
616.14	7024.5	
616.33	6638.1	
616.52	5463.3	
616.71	5666	
616.9	6845.7	
617.09	6726.9	
617.28	5004.6	
617.47	5911.1	
617.66	6277.7	
617.85	6249.7	
618.04	5621	
618.22	5296	
618.41	6500.9	
618.6	7140.6	
618.79	5157.5	
618.98	4969.7	
619.17	7353.6	
619.36	6104.3	
619.55	5085.8	
619.74	5079	
619.93	6771.3	
620.12	6366.5	
620.31	5528.8	
620.5	5673.6	
620.69	7208.8	
620.88	7594.6	
621.07	6097.5	
621.26	5408	
621.45	6959	
621.64	7007.5	
621.83	5506.3	
622.02	4881	
622.21	6975.4	
622.4	6864.8	
622.59	5886.5	
622.78	5713.8	
622.97	6578.8	
623.16	7296.9	
623.35	5481	
623.54	4777.2	
623.72	6658.6	
623.91	6747.4	
624.1	5657.9	
624.29	4776.5	
624.48	7582.3	
624.67	7043	
624.86	5665.4	
625.05	4906.3	
625.24	7671.7	
625.43	6537.1	
625.62	6766.5	
625.81	5080.3	
626	7195.9	
626.19	6765.8	
626.38	5659.2	
626.56	5218.9	
626.75	6569.2	
626.94	7096.2	
627.13	5653.1	
627.32	4734.9	
627.51	7142.6	
627.7	7819.8	
627.89	4829.8	
628.08	5669.5	
628.27	6412.9	
628.46	6692.1	
628.65	5048.2	
628.83	4761.5	
629.02	7044.3	
629.21	6492.7	
629.4	5371.8	
629.59	5505.6	
629.78	6513.2	
629.97	7223.9	
630.16	5474.2	
630.35	5198.4	
630.54	7522.9	
630.72	7396.6	
630.91	5177.9	
631.1	5520	
631.29	6879.8	
631.48	6958.3	
631.67	5662.6	
631.86	5217.5	
632.05	6691.4	
632.24	6702.3	
632.42	4973.8	
632.61	5408.7	
632.8	6778.1	
632.99	6459.3	
633.18	5369.1	
633.37	5627.1	
633.56	6999.3	
633.75	6900.3	
633.93	5471.5	
634.12	5223.7	
634.31	7542.7	
634.5	7264.1	
634.69	5205.3	
634.88	5631.9	
635.07	6796.5	
635.25	7158.3	
635.44	5932.3	
635.63	5993.7	
635.82	6702.3	
636.01	6231.3	
636.2	5829.2	
636.39	5548.6	
636.57	7533.1	
636.76	7180.2	
636.95	5132.2	
637.14	6077	
637.33	7012.2	
637.52	7643.7	
637.7	4973.2	
637.89	5730.9	
638.08	6757.6	
638.27	7740	
638.46	5666	
638.65	6086.6	
638.83	7766.6	
639.02	6589	
639.21	5684.5	
639.4	6033.3	
639.59	6907.8	
639.78	6706.4	
639.96	5145.2	
640.15	5170.4	
640.34	6938.5	
640.53	6992.4	
640.72	5077.6	
640.91	5188.9	
641.09	6449.7	
641.28	7487.4	
641.47	5206.6	
641.66	5753.4	
641.85	6939.9	
642.03	7183.6	
642.22	5612.1	
642.41	5247.6	
642.6	6517.3	
642.79	6085.2	
642.97	5117.9	
643.16	5601.2	
643.35	6543.9	
643.54	6348	
643.73	5107	
643.91	5522.7	
644.1	6297.5	
644.29	6799.9	
644.48	5085.8	
644.67	5189.6	
644.85	6412.2	
645.04	6741.9	
645.23	4815.5	
645.42	5101.5	
645.6	6432.7	
645.79	7243	
645.98	5073.5	
646.17	4414.7	
646.36	6182.1	
646.54	6511.9	
646.73	5586.9	
646.92	4775.2	
647.11	6346.7	
647.29	7131	
647.48	4753.3	
647.67	4681	
647.86	7302.4	
648.05	7178.8	
648.23	5054.4	
648.42	5964.4	
648.61	6811.5	
648.8	6655.9	
648.98	4779.3	
649.17	5032.5	
649.36	6315.9	
649.55	5958.2	
649.73	4826.4	
649.92	5376.6	
650.11	6272.9	
650.3	6518.7	
650.48	4898.1	
650.67	4797.7	
650.86	6713.9	
651.05	5875.6	
651.23	4840.7	
651.42	4858.5	
651.61	6296.1	
651.79	6270.2	
651.98	5081	
652.17	4717.2	
652.36	6697.5	
652.54	5926.8	
652.73	4835.3	
652.92	4681	
653.11	6666.8	
653.29	6719.4	
653.48	4313	
653.67	4989.5	
653.85	6498.9	
654.04	7186.3	
654.23	5162.2	
654.42	4897.4	
654.6	6125.5	
654.79	6666.1	
654.98	4463.2	
655.16	4888.5	
655.35	5894.1	
655.54	5759.6	
655.73	4641.4	
655.91	4392.9	
656.1	6550.8	
656.29	5642.8	
656.47	4141	
656.66	5347.9	
656.85	5948	
657.03	5966.4	
657.22	4507.6	
657.41	4549.9	
657.59	6048.3	
657.78	5929.6	
657.97	4361.5	
658.16	4872.1	
658.34	6604	
658.53	6791.7	
658.72	5533.6	
658.9	5868.8	
659.09	6224.5	
659.28	6163	
659.46	4621.6	
659.65	4672.1	
659.84	6001.2	
660.02	6446.3	
660.21	4717.8	
660.4	4521.2	
660.58	6695.5	
660.77	6218.3	
660.96	4979.3	
661.14	4212	
661.33	7032.7	
661.52	6985.6	
661.7	4311	
661.89	6777.4	
662.08	5933.6	
662.26	5591	
662.45	4481	
662.64	4575.8	
662.82	6521.4	
663.01	5891.3	
663.2	4612	
663.38	5097.4	
663.57	6404.7	
663.75	6307.7	
663.94	4823	
664.13	5765	
664.31	5955.5	
664.5	6490	
664.69	4954	
664.87	5387.5	
665.06	5783.5	
665.25	6264.7	
665.43	5519.3	
665.62	5485.1	
665.8	6435.4	
665.99	5952.1	
666.18	4825	
666.36	4900.1	
666.55	6438.1	
666.74	6353.5	
666.92	4509.6	
667.11	5768.4	
667.29	6079.1	
667.48	6441.5	
667.67	5427.1	
667.85	4678.9	
668.04	6066.1	
668.22	5996.5	
668.41	4874.8	
668.6	5002.5	
668.78	5911.8	
668.97	6083.1	
669.15	5163.6	
669.34	4314.4	
669.53	5911.1	
669.71	6207.4	
669.9	4444.8	
670.08	4862.6	
670.27	5870.2	
670.46	6349.4	
670.64	5049.6	
670.83	5310.4	
671.01	5769.1	
671.2	6334.4	
671.38	4591.5	
671.57	4465.9	
671.76	6729.6	
671.94	7066.2	
672.13	4412	
672.31	5176.6	
672.5	6361.7	
672.69	5906.3	
672.87	4488.5	
673.06	4719.9	
673.24	6288.6	
673.43	5971.2	
673.61	5124.7	
673.8	4754	
673.98	6430.6	
674.17	6556.9	
674.36	5215.5	
674.54	5038.7	
674.73	6124.8	
674.91	6496.8	
675.1	4803.2	
675.28	4542.4	
675.47	6115.9	
675.65	6502.3	
675.84	4774.5	
676.03	4971.1	
676.21	6029.9	
676.4	5528.8	
676.58	5344.5	
676.77	5121.3	
676.95	7079.8	
677.14	5929.6	
677.32	4496.7	
677.51	4442	
677.69	6522.1	
677.88	5728.9	
678.06	4474.1	
678.25	4560.8	
678.44	6094.1	
678.62	5891.3	
678.81	4332.8	
678.99	5044.8	
679.18	6782.2	
679.36	6426.5	
679.55	4789.5	
679.73	5156.1	
679.92	6434.7	
680.1	5995.1	
680.29	5625.1	
680.47	4747.2	
680.66	5925.5	
680.84	6562.4	
681.03	4303.5	
681.21	5095.3	
681.4	5893.4	
681.58	5858.6	
681.77	4583.4	
681.95	4576.5	
682.14	6589	
682.32	6849.8	
682.51	5274.9	
682.69	4369	
682.88	5930.9	
683.06	6294.1	
683.25	5048.9	
683.43	5324	
683.62	6188.3	
683.8	6428.6	
683.99	5475.6	
684.17	4885.8	
684.36	7010.2	
684.54	6099.5	
684.73	4400.4	
684.91	4561.5	
685.1	6363	
685.28	5864.7	
685.46	4972.5	
685.65	4982	
685.83	6445	
686.02	6034	
686.2	4500.8	
686.39	4620.9	
686.57	5899.5	
686.76	6836.8	
686.94	4545.1	
687.13	4698.7	
687.31	6340.5	
687.5	6038.1	
687.68	4242	
687.86	5125.4	
688.05	7322.9	
688.23	5613.5	
688.42	5125.4	
688.6	4650.3	
688.79	5901.6	
688.97	5982.8	
689.16	4943.8	
689.34	4104.1	
689.52	6481.8	
689.71	6718.7	
689.89	5118.6	
690.08	4612	
690.26	6237.4	
690.45	6087.2	
690.63	5269.4	
690.81	4811.4	
691	6098.2	
691.18	5938.4	
691.37	4886.5	
691.55	6501.6	
691.74	5939.8	
691.92	7516.7	
692.1	4789.5	
692.29	4425.7	
692.47	6081.8	
692.66	5674.9	
692.84	4619.5	
693.02	4986.1	
693.21	5659.2	
693.39	6130.9	
693.58	5099.4	
693.76	4607.9	
693.94	6850.5	
694.13	6735.1	
694.31	4665.3	
694.5	5479.7	
694.68	5941.8	
694.86	6214.2	
695.05	4948.6	
695.23	5005.2	
695.42	6468.2	
695.6	8128.4	
695.78	5449	
695.97	4713.7	
696.15	6566.5	
696.34	6069.5	
696.52	4587.4	
696.7	5201.8	
696.89	6355.5	
697.07	5922	
697.25	5089.2	
697.44	6128.9	
697.62	6337.8	
697.81	6576	
697.99	4999.1	
698.17	5334.3	
698.36	5964.4	
698.54	6399.9	
698.72	5147.2	
698.91	4478.9	
699.09	6094.8	
699.28	5956.2	
699.46	4947.9	
699.64	4856.4	
699.83	5965.7	
700.01	6807.4	
700.19	5458.5	
700.38	4310.3	
700.56	6784.9	
700.74	6025.8	
700.93	4595	
701.11	5113.1	
701.29	6517.3	
701.48	7178.1	
701.66	4708.3	
701.84	4829.8	
702.03	6162.3	
702.21	6668.9	
702.39	4497.3	
702.58	4855.7	
702.76	6446.3	
702.94	6573.3	
703.13	4491.2	
703.31	6257.2	
703.49	5970.5	
703.68	7030.7	
703.86	4638	
704.04	5386.2	
704.23	6277.7	
704.41	6599.2	
704.59	4776.5	
704.78	5556.8	
704.96	7461.4	
705.14	6579.4	
705.33	4620.9	
705.51	5195	
705.69	6247	
705.87	6862.7	
706.06	5347.2	
706.24	4559.5	
706.42	6419.7	
706.61	6699.6	
706.79	5437.4	
706.97	4584.7	
707.16	6089.3	
707.34	6537.8	
707.52	5378	
707.7	4707.6	
707.89	6103.6	
708.07	5919.3	
708.25	5395	
708.44	5457.2	
708.62	6102.3	
708.8	6913.3	
708.98	5538.4	
709.17	4906.9	
709.35	6363.7	
709.53	6421.7	
709.72	4603.2	
709.9	4957.4	
710.08	6716.7	
710.26	6631.3	
710.45	5758.9	
710.63	4855.1	
710.81	6232	
710.99	6407.4	
711.18	5247.6	
711.36	4937	
711.54	6217.6	
711.72	6804.7	
711.91	5046.9	
712.09	4573.8	
712.27	6337.8	
712.45	6782.9	
712.64	5167.7	
712.82	4422.9	
713	5907	
713.18	6023.1	
713.37	4552.6	
713.55	5373.9	
713.73	6738.5	
713.91	5697.4	
714.1	4878.9	
714.28	4440.7	
714.46	6462.7	
714.64	5801.9	
714.83	4083.6	
715.01	4616.8	
715.19	5939.8	
715.37	5386.8	
715.55	4364.9	
715.74	4549.9	
715.92	6533	
716.1	5035.3	
716.28	5410.7	
716.47	4626.4	
716.65	5618.3	
716.83	5603.9	
717.01	4476.2	
717.19	4562.9	
717.38	7129	
717.56	5390.3	
717.74	4767.7	
717.92	4153.3	
718.1	6256.5	
718.29	5634.6	
718.47	3819.5	
718.65	4285.7	
718.83	6180.1	
719.01	6122.7	
719.2	3728.7	
719.38	4533.5	
719.56	5908.4	
719.74	7075	
719.92	4336.9	
720.11	5005.2	
720.29	6092.7	
720.47	5423	
720.65	4027	
720.83	4595.6	
721.02	5774.6	
721.2	5461.2	
721.38	4639.3	
721.56	4005.1	
721.74	5075.5	
721.92	5175.9	
722.11	4935.6	
722.29	4717.2	
722.47	6152.1	
722.65	5522	
722.83	4089.1	
723.01	4716.5	
723.2	5542.5	
723.38	5765.7	
723.56	3640.6	
723.74	4498.7	
723.92	5196.4	
724.1	6005.3	
724.29	3994.2	
724.47	4872.8	
724.65	5325.4	
724.83	5115.8	
725.01	3943.7	
725.19	4572.4	
725.37	5186.8	
725.56	5227.1	
725.74	3801.7	
725.92	3979.9	
726.1	5128.1	
726.28	5453.1	
726.46	4287.1	
726.64	4097.3	
726.83	5463.3	
727.01	5558.2	
727.19	3802.4	
727.37	4370.4	
727.55	5516.5	
727.73	5918.6	
727.91	3820.1	
728.09	3688.4	
728.28	5933.6	
728.46	6183.5	
728.64	4455	
728.82	4343.1	
729	6607.4	
729.18	6075.6	
729.36	3845.4	
729.54	5487.2	
729.72	6793.8	
729.91	5550	
730.09	5243.5	
730.27	4272.7	
730.45	5517.2	
730.63	5937.1	
730.81	4713.7	
730.99	4098.7	
731.17	6335	
731.35	5292.6	
731.53	4385.4	
731.71	4172.4	
731.9	6136.4	
732.08	6214.2	
732.26	4385.4	
732.44	4114.4	
732.62	6222.4	
732.8	5874.3	
732.98	4633.9	
733.16	3961.5	
733.34	5903.6	
733.52	4971.1	
733.7	4266.6	
733.88	4527.4	
734.07	5801.2	
734.25	5523.4	
734.43	3901.4	
734.61	5074.2	
734.79	6634.1	
734.97	5491.3	
735.15	3955.3	
735.33	4248.2	
735.51	5802.6	
735.69	5540.4	
735.87	5020.3	
736.05	4397	
736.23	5584.1	
736.41	5337.7	
736.59	4246.8	
736.77	4328.7	
736.95	5987.6	
737.13	5506.3	
737.32	4021.5	
737.5	4154	
737.68	6347.3	
737.86	5401.9	
738.04	3907.5	
738.22	5164.3	
738.4	5294.7	
738.58	5522	
738.76	4319.8	
738.94	3543.7	
739.12	5338.4	
739.3	5302.2	
739.48	4730.1	
739.66	4515.8	
739.84	5571.2	
740.02	5497.4	
740.2	3616	
740.38	3880.9	
740.56	5847	
740.74	4883	
740.92	4351.9	
741.1	4241.3	
741.28	5387.5	
741.46	5212.1	
741.64	4045.4	
741.82	4404.5	
742	5437.4	
742.18	5386.2	
742.36	4160.8	
742.54	3875.4	
742.72	5896.8	
742.9	4841.4	
743.08	4382.7	
743.26	3467.9	
743.44	5881.8	
743.62	5799.8	
743.8	4507.6	
743.98	3803.1	
744.16	5606.7	
744.34	5422.3	
744.52	4394.3	
744.7	4340.3	
744.88	5759.6	
745.06	5350.7	
745.24	4405.2	
745.42	4547.2	
745.6	5846.3	
745.78	5639.4	
745.96	3638.6	
746.14	3819.5	
746.32	6344.6	
746.5	5715.9	
746.68	4289.1	
746.86	3846.8	
747.03	6016.2	
747.21	4815.5	
747.39	4229.1	
747.57	3833.8	
747.75	5459.2	
747.93	5700.9	
748.11	3831.1	
748.29	3724.6	
748.47	6676.4	
748.65	5253	
748.83	4388.8	
749.01	4132.8	
749.19	5654.4	
749.37	4945.2	
749.55	4041.3	
749.73	4186.7	
749.91	5354.8	
750.09	5217.5	
750.26	4104.8	
750.44	3665.2	
750.62	5315.2	
750.8	5322	
750.98	3555.3	
751.16	3874.1	
751.34	5447.6	
751.52	4976.6	
751.7	4403.1	
751.88	3601.7	
752.06	5857.9	
752.24	5616.2	
752.42	3557.3	
752.59	3807.2	
752.77	5344.5	
752.95	6299.6	
753.13	4289.8	
753.31	3846.1	
753.49	5090.6	
753.67	5418.9	
753.85	4143.7	
754.03	3788.7	
754.21	5651.7	
754.38	5908.4	
754.56	3883.6	
754.74	3187.3	
754.92	5115.1	
755.1	5531.6	
755.28	3278.8	
755.46	3261	
755.64	6241.5	
755.82	6296.8	
755.99	3543.7	
756.17	3575.1	
756.35	4367	
756.53	5516.5	
756.71	2736.1	
756.89	3474.7	
757.07	5234.6	
757.25	4608.6	
757.42	3825.6	
757.6	4461.2	
757.78	5247.6	
757.96	4517.8	
758.14	3586	
758.32	3227.6	
758.5	4192.9	
758.67	4835.3	
758.85	3509.5	
759.03	3577.1	
759.21	5023	
759.39	4595.6	
759.57	3151.8	
759.75	3997	
759.92	5506.3	
760.1	4970.4	
760.28	4247.5	
760.46	4450.2	
760.64	4764.9	
760.82	4613.4	
760.99	4154.6	
761.17	3553.2	
761.35	5349.3	
761.53	4617.5	
761.71	3678.8	
761.89	4168.3	
762.06	5203.9	
762.24	4888.5	
762.42	3672.7	
762.6	3502	
762.78	4857.8	
762.96	5401.9	
763.13	3990.1	
763.31	3697.9	
763.49	5461.9	
763.67	4772.4	
763.85	4347.8	
764.02	4679.6	
764.2	5677	
764.38	4975.2	
764.56	3619.4	
764.74	4250.9	
764.91	5813.5	
765.09	4866.7	
765.27	3407.1	
765.45	3266.5	
765.63	5780.1	
765.8	5597.1	
765.98	3088.3	
766.16	3308.8	
766.34	4626.4	
766.52	4423.6	
766.69	3984	
766.87	3205.1	
767.05	4904.2	
767.23	5492	
767.41	3396.2	
767.58	3598.3	
767.76	5342.5	
767.94	5359.5	
768.12	3491.1	
768.29	4039.3	
768.47	4932.2	
768.65	5565.7	
768.83	3176.4	
769	4003.8	
769.18	4672.8	
769.36	5150	
769.54	4004.5	
769.72	3233.1	
769.89	5442.1	
770.07	5438	
770.25	3541.6	
770.43	4443.4	
770.6	5944.6	
770.78	6276.3	
770.96	3665.9	
771.14	4133.5	
771.31	5318.6	
771.49	4856.4	
771.67	3011.2	
771.85	3222.1	
772.02	4272.1	
772.2	4855.1	
772.38	3780.6	
772.55	3343.7	
772.73	5150.6	
772.91	4891.9	
773.09	3700.7	
773.26	3765.5	
773.44	5037.3	
773.62	4852.3	
773.8	3340.2	
773.97	3158.7	
774.15	5095.3	
774.33	4821.6	
774.5	3225.6	
774.68	3446.7	
774.86	5176.6	
775.04	4820.9	
775.21	3297.9	
775.39	3257.6	
775.57	5025.7	
775.74	5276.9	
775.92	3163.4	
776.1	3050.8	
776.27	4971.1	
776.45	5911.8	
776.63	3274	
776.81	2968.2	
776.98	4769.7	
777.16	5556.1	
777.34	3367.5	
777.51	3586	
777.69	4738.3	
777.87	4603.8	
778.04	3453.6	
778.22	3893.9	
778.4	4615.4	
778.57	5087.8	
778.75	2923.1	
778.93	3100.6	
779.1	4453	
779.28	4336.2	
779.46	2904	
779.64	3224.2	
779.81	5245.5	
779.99	5830.6	
780.17	3779.2	
780.34	3944.4	
780.52	4827.7	
780.69	4919.9	
780.87	3473.4	
781.05	3209.2	
781.22	4904.2	
781.4	4908.3	
781.58	3278.8	
781.75	2670.6	
781.93	4872.8	
782.11	4395.6	
782.28	3956	
782.46	3345	
782.64	4282.3	
782.81	5011.4	
782.99	3398.9	
783.17	3345	
783.34	4950.6	
783.52	4421.6	
783.69	3476.8	
783.87	4110.3	
784.05	4502.1	
784.22	4425.7	
784.4	4106.2	
784.58	3519.8	
784.75	5210.7	
784.93	4542.4	
785.1	3324.5	
785.28	3735.5	
785.46	4958.1	
785.63	4372.4	
785.81	3293.8	
785.99	3154.6	
786.16	4642.1	
786.34	4898.7	
786.51	3224.9	
786.69	3477.5	
786.87	4275.5	
787.04	4577.2	
787.22	3090.4	
787.39	3818.8	
787.57	4450.2	
787.75	5313.8	
787.92	4001.7	
788.1	3966.2	
788.27	4457.7	
788.45	4215.4	
788.63	3671.3	
788.8	2723.1	
788.98	4758.8	
789.15	4193.6	
789.33	2908.8	
789.5	3289	
789.68	5100.8	
789.86	5256.5	
790.03	3634.5	
790.21	3163.4	
790.38	5200.5	
790.56	4597.7	
790.73	3158.7	
790.91	3072.6	
791.09	4476.9	
791.26	4984.1	
791.44	3314.3	
791.61	2895.1	
791.79	4386.1	
791.96	4425.7	
792.14	3013.2	
792.32	2691	
792.49	4427.7	
792.67	4547.2	
792.84	3055.6	
793.02	2837.1	
793.19	4857.8	
793.37	5307	
793.54	2716.3	
793.72	2933.4	
793.89	5391.6	
794.07	4358.8	
794.25	3302	
794.42	2753.2	
794.6	5210.7	
794.77	4902.8	
794.95	3602.4	
795.12	3142.3	
795.3	4463.2	
795.47	4876.2	
795.65	3452.2	
795.82	3326.6	
796	4282.3	
796.17	5688.6	
796.35	3240.6	
796.52	3808.5	
796.7	4883	
796.87	4912.4	
797.05	3170.3	
797.22	3820.1	
797.4	4901.5	
797.57	5690.6	
797.75	3369.6	
797.92	3099.3	
798.1	5149.3	
798.27	4288.4	
798.45	2753.2	
798.62	2887	
798.8	4719.9	
798.97	5024.3	
799.15	3467.2	
799.32	3384.6	
799.5	4152.6	
799.67	4695.3	
799.85	3614	
800.02	2691.7	
800.2	4429.8	
800.37	4629.1	
800.55	3734.8	
800.72	3173	
800.9	5018.2	
801.07	5350	
801.25	4145.8	
801.42	3433.8	
801.6	5075.5	
801.77	4762.9	
801.95	3221.5	
802.12	3072	
802.29	4807.9	
802.47	4739	
802.64	3424.9	
802.82	2652.1	
802.99	4421.6	
803.17	5146.5	
803.34	3379.8	
803.52	3069.9	
803.69	5566.4	
803.87	4240.7	
804.04	3357.3	
804.21	3407.1	
804.39	5230.5	
804.56	4587.4	
804.74	2881.5	
804.91	3470.6	
805.09	4476.9	
805.26	4483	
805.44	2990.7	
805.61	3207.1	
805.78	4932.2	
805.96	4961.5	
806.13	3401.7	
806.31	3695.9	
806.48	4024.9	
806.66	4491.9	
806.83	3463.1	
807	3368.2	
807.18	4450.9	
807.35	4723.3	
807.53	3391.4	
807.7	2769.5	
807.87	5305.6	
808.05	4495.3	
808.22	3683.6	
808.4	2791.4	
808.57	4403.8	
808.74	4181.3	
808.92	3153.2	
809.09	3928	
809.27	4425.7	
809.44	4840.7	
809.61	2826.9	
809.79	3079.5	
809.96	5395	
810.14	4953.4	
810.31	2671.9	
810.48	3302	
810.66	4517.8	
810.83	5016.2	
811.01	3110.9	
811.18	3455.6	
811.35	5061.2	
811.53	4018.8	
811.7	3711.6	
811.87	3477.5	
812.05	4508.9	
812.22	4425	
812.39	3021.4	
812.57	2946.3	
812.74	4502.1	
812.92	5673.6	
813.09	3246.7	
813.26	3489.7	
813.44	5528.8	
813.61	4382.7	
813.78	2760	
813.96	3596.9	
814.13	4518.5	
814.3	4255.7	
814.48	3861.1	
814.65	3244.7	
814.82	5343.2	
815	4261.8	
815.17	3345.7	
815.34	4018.1	
815.52	4394.3	
815.69	4410	
815.87	3355.9	
816.04	3150.5	
816.21	4437.3	
816.38	4047.5	
816.56	3214.6	
816.73	2980.5	
816.9	5491.3	
817.08	5023	
817.25	3104.7	
817.42	3711.6	
817.6	4098.7	
817.77	4410	
817.94	3346.4	
818.12	3022.1	
818.29	4252.9	
818.46	6205.3	
818.64	3179.8	
818.81	2955.2	
818.98	4274.1	
819.16	5786.9	
819.33	3519.8	
819.5	3314.3	
819.67	4778.6	
819.85	5296.7	
820.02	3268.6	
820.19	3456.3	
820.37	4668.7	
820.54	4379.9	
820.71	3282.9	
820.88	4067.3	
821.06	4655.7	
821.23	4247.5	
821.4	3405.8	
821.58	3355.9	
821.75	4960.2	
821.92	4600.4	
822.09	2795.5	
822.27	2972.3	
822.44	4453	
822.61	4399	
822.79	2792.7	
822.96	5098.1	
823.13	4751.3	
823.3	4177.2	
823.48	3177.1	
823.65	2887.6	
823.82	5046.2	
823.99	4143.7	
824.17	3947.1	
824.34	2959.3	
824.51	5635.3	
824.68	4508.9	
824.86	3041.9	
825.03	3419.4	
825.2	4549.9	
825.37	5281.7	
825.55	3048.7	
825.72	3308.2	
825.89	5685.2	
826.06	5295.4	
826.24	3224.9	
826.41	3237.2	
826.58	5339.7	
826.75	4725.3	
826.92	2684.2	
827.1	2904.7	
827.27	6924.9	
827.44	5639.4	
827.61	3079.5	
827.79	3699.3	
827.96	4313.7	
828.13	4463.2	
828.3	3189.4	
828.47	2740.9	
828.65	4745.8	
828.82	4615.4	
828.99	4065.2	
829.16	3549.8	
829.34	5001.1	
829.51	4829.1	
829.68	3330	
829.85	3373.7	
830.02	5244.8	
830.2	4992.3	
830.37	2646.7	
830.54	3893.9	
830.71	5543.2	
830.88	4477.5	
831.05	2643.2	
831.23	3051.5	
831.4	5401.2	
831.57	5855.8	
831.74	3096.5	
831.91	2745.6	
832.09	4770.4	
832.26	4933.6	
832.43	3168.9	
832.6	3551.9	
832.77	4716.5	
832.94	5248.3	
833.12	2546.3	
833.29	3115	
833.46	4799.1	
833.63	6001.9	
833.8	3407.1	
833.97	3203.7	
834.15	4990.9	
834.32	4848.9	
834.49	3336.1	
834.66	3351.8	
834.83	5124.7	
835	4328.7	
835.17	3089.7	
835.35	3003	
835.52	4894.6	
835.69	4826.4	
835.86	3207.8	
836.03	2684.2	
836.2	4949.3	
836.37	4685.8	
836.55	3173.7	
836.72	2957.9	
836.89	4688.5	
837.06	5065.3	
837.23	3198.2	
837.4	3492.5	
837.57	5680.4	
837.75	6037.4	
837.92	2977.1	
838.09	3072.6	
838.26	4670.1	
838.43	5156.8	
838.6	3280.8	
838.77	3025.5	
838.94	5775.3	
839.11	5577.3	
839.29	3172.3	
839.46	2524.5	
839.63	5013.4	
839.8	4730.8	
839.97	3151.1	
840.14	3082.2	
840.31	4795.7	
840.48	5031.2	
840.65	2564.7	
840.82	3056.9	
841	4963.6	
841.17	4897.4	
841.34	2826.9	
841.51	2917.7	
841.68	4952.7	
841.85	4709	
842.02	2962.7	
842.19	2563.4	
842.36	4829.1	
842.53	4784.1	
842.7	2888.3	
842.87	3395.5	
843.05	6018.3	
843.22	4683.7	
843.39	2722.4	
843.56	2922.5	
843.73	4564.9	
843.9	5062.6	
844.07	4431.1	
844.24	3725.9	
844.41	6775.4	
844.58	4381.3	
844.75	2818.7	
844.92	2999.6	
845.09	4927.4	
845.26	4932.9	
845.43	2840.5	
845.6	3046.7	
845.77	4956.1	
845.94	4747.9	
846.12	3127.9	
846.29	3269.2	
846.46	5124	
846.63	4971.8	
846.8	2909.5	
846.97	3327.3	
847.14	5281	
847.31	4930.8	
847.48	3171.6	
847.65	3451.5	
847.82	5114.5	
847.99	5031.9	
848.16	3756	
848.33	3438.5	
848.5	4562.2	
848.67	5308.3	
848.84	2837.1	
849.01	2923.1	
849.18	4549.9	
849.35	4295.3	
849.52	3460.4	
849.69	2796.8	
849.86	5163.6	
850.03	5231.9	
850.2	2848	
850.37	3458.3	
850.54	5177.9	
850.71	4717.2	
850.88	3340.9	
851.05	2850.1	
851.22	4909.7	
851.39	5350	
851.56	2682.2	
851.73	3260.4	
851.9	4438.6	
852.07	5170.4	
852.24	3086.3	
852.41	2798.9	
852.58	4858.5	
852.75	4502.8	
852.92	3171.6	
853.09	2772.3	
853.26	4584	
853.43	5249.6	
853.6	2821.4	
853.77	2454.8	
853.94	5347.9	
854.11	4371.7	
854.28	4093.2	
854.44	3067.9	
854.61	5646.2	
854.78	5110.4	
854.95	2803	
855.12	3434.4	
855.29	4092.5	
855.46	5337.7	
855.63	2839.8	
855.8	3809.9	
855.97	4600.4	
856.14	5185.5	
856.31	3898	
856.48	3078.1	
856.65	4612	
856.82	4382	
856.99	2738.1	
857.16	3022.1	
857.33	5772.5	
857.49	4699.4	
857.66	3039.2	
857.83	3206.4	
858	4702.8	
858.17	4828.4	
858.34	2670.6	
858.51	2874.7	
858.68	5445.5	
858.85	5448.3	
859.02	3269.9	
859.19	3424.2	
859.36	4391.5	
859.52	4455.7	
859.69	2835.8	
859.86	3300.6	
860.03	4492.6	
860.2	5348.6	
860.37	2613.9	
860.54	2877.4	
860.71	5125.4	
860.88	5382.7	
861.05	3158	
861.21	3551.9	
861.38	5372.5	
861.55	4265.2	
861.72	2618	
861.89	3147	
862.06	5186.1	
862.23	5493.3	
862.4	2769.5	
862.56	2974.3	
862.73	5033.9	
862.9	4765.6	
863.07	3278.8	
863.24	2581.8	
863.41	4362.9	
863.58	4416.8	
863.75	2889	
863.91	3256.3	
864.08	5327.4	
864.25	5084.4	
864.42	3459	
864.59	3856.3	
864.76	5655.1	
864.93	4434.5	
865.09	2732	
865.26	3059.7	
865.43	5301.5	
865.6	5626.5	
865.77	2492.4	
865.94	2816.6	
866.1	5307.7	
866.27	5051.7	
866.44	4102.1	
866.61	2706.7	
866.78	4683.7	
866.95	5042.8	
867.11	2803.7	
867.28	2576.3	
867.45	5272.8	
867.62	4456.4	
867.79	3249.4	
867.96	2813.9	
868.12	4386.1	
868.29	5139	
868.46	2839.2	
868.63	3683.6	
868.8	5255.8	
868.97	5056.4	
869.13	2968.9	
869.3	2971.6	
869.47	4958.1	
869.64	5170.4	
869.81	2825.5	
869.97	2837.8	
870.14	4878.9	
870.31	5426.4	
870.48	2762	
870.65	3470.6	
870.81	4677.6	
870.98	4728.8	
871.15	3164.1	
871.32	2955.9	
871.48	5007.3	
871.65	5451	
871.82	2826.9	
871.99	3070.6	
872.16	5772.5	
872.32	5261.2	
872.49	2962	
872.66	2851.5	
872.83	5157.5	
872.99	4529.4	
873.16	3218	
873.33	2846.7	
873.5	4849.6	
873.67	4807.3	
873.83	2985.9	
874	3679.5	
874.17	4947.2	
874.34	5625.1	
874.5	3570.3	
874.67	3507.5	
874.84	5385.5	
875.01	4285.7	
875.17	3906.2	
875.34	2876	
875.51	4880.3	
875.68	5765.7	
875.84	3364.8	
876.01	3943.7	
876.18	5058.5	
876.34	5081.7	
876.51	2780.5	
876.68	2826.9	
876.85	4691.9	
877.01	5306.3	
877.18	3960.8	
877.35	2792.1	
877.52	4872.8	
877.68	4412	
877.85	2835.1	
878.02	2837.8	
878.18	4675.5	
878.35	4517.8	
878.52	2311.5	
878.69	3130	
878.85	5146.5	
879.02	5011.4	
879.19	3876.8	
879.35	3064.4	
879.52	5070.1	
879.69	5137.7	
879.86	2537.4	
880.02	3154.6	
880.19	4738.3	
880.36	5664	
880.52	3208.5	
880.69	3333.4	
880.86	5165	
881.02	5196.4	
881.19	3105.4	
881.36	3080.1	
881.52	5081.7	
881.69	4545.1	
881.86	3035.8	
882.02	3005.1	
882.19	5298.8	
882.36	6038.8	
882.52	2879.4	
882.69	3885.7	
882.86	4899.4	
883.02	4866.7	
883.19	3350.5	
883.36	3186.6	
883.52	5133.6	
883.69	5707.7	
883.86	2863.1	
884.02	2650.8	
884.19	5114.5	
884.36	4780.6	
884.52	3182.5	
884.69	3048.1	
884.86	4558.1	
885.02	5431.9	
885.19	3098.6	
885.36	3205.8	
885.52	4798.4	
885.69	4904.9	
885.86	4026.3	
886.02	3588.7	
886.19	5167.7	
886.35	4614.8	
886.52	3122.5	
886.69	3872.7	
886.85	4415.4	
887.02	5385.5	
887.19	5385.5	
887.35	5385.5	
887.52	5385.5	
887.68	5385.5	
887.85	5385.5	
888.02	5385.5	
888.18	5385.5	
888.35	5385.5	
888.51	5385.5	
888.68	5385.5	
888.85	5385.5	
889.01	5385.5	
889.18	5385.5	
889.35	5385.5	
889.51	5385.5	
889.68	5385.5	
889.84	5385.5	
890.01	5385.5	
890.17	5385.5	
890.34	5385.5	
890.51	5385.5	
890.67	5385.5	
890.84	5385.5	
891	5385.5	
891.17	5385.5	
891.34	5385.5	
891.5	5385.5	
891.67	5385.5	
891.83	5385.5	
892	5385.5	
892.16	5385.5	
892.33	5385.5	
892.5	5385.5	
892.66	5385.5	
892.83	5385.5	
892.99	5385.5	
893.16	5385.5	
893.32	5385.5	
893.49	5385.5	
893.65	5385.5	
893.82	5385.5	
893.99	5385.5	
894.15	5385.5	
894.32	5385.5	
894.48	5385.5	
894.65	5385.5	
894.81	5385.5	
894.98	5385.5	
895.14	5385.5	
895.31	5385.5	
895.47	5385.5	
895.64	5385.5	
895.81	5385.5	
895.97	5385.5	
896.14	5385.5	
896.3	5385.5	
896.47	5385.5	
896.63	5385.5	
896.8	5385.5	
896.96	5385.5	
897.13	5385.5	
897.29	5385.5	
897.46	5385.5	
897.62	5385.5	
897.79	5385.5	
897.95	5385.5	
898.12	5385.5	
898.28	5385.5	
898.45	5385.5	
898.61	5385.5	
898.78	5385.5	
898.94	5385.5	
899.11	5385.5	
899.27	5385.5	
899.44	5385.5	
899.6	5385.5	
899.77	5385.5	
899.93	5385.5	
900.1	5385.5	
900.26	5385.5	
900.43	5385.5	
900.59	5385.5	
900.76	5385.5	
900.92	5385.5	
901.09	5385.5	
901.25	5385.5	
901.42	5385.5	
901.58	5385.5	
901.75	5385.5	
901.91	5385.5	
902.07	5385.5	
902.24	5385.5	
902.4	5385.5	
902.57	5385.5	
902.73	5385.5	
902.9	5385.5	
903.06	5385.5	
903.23	5385.5	
903.39	5385.5	
903.56	5385.5	
903.72	5385.5	
903.88	5385.5	
904.05	5385.5	
904.21	5385.5	
904.38	5385.5	
904.54	5385.5	
904.71	5385.5	
904.87	5385.5	
905.03	5385.5	
905.2	5385.5	
905.36	5385.5	
905.53	5385.5	
905.69	5385.5	
905.86	5385.5	
906.02	5385.5	
906.18	5385.5	
906.35	5385.5	
906.51	5385.5	
906.68	5385.5	
906.84	5385.5	
907.01	5385.5	
907.17	5385.5	
907.33	5385.5	
907.5	5385.5	
907.66	5385.5	
907.83	5385.5	
907.99	5385.5	
908.15	5385.5	
908.32	5385.5	
908.48	5385.5	
908.65	5385.5	
908.81	5385.5	
908.97	5385.5	
909.14	5385.5	
909.3	5385.5	
909.47	5385.5	
909.63	5385.5	
909.79	5385.5	
909.96	5385.5	
910.12	5385.5	
910.28	5385.5	
910.45	5385.5	
910.61	5385.5	
910.78	5385.5	
910.94	5385.5	
911.1	5385.5	
911.27	5385.5	
911.43	5385.5	
911.59	5385.5	
911.76	5385.5	
911.92	5385.5	
912.08	5385.5	
912.25	5385.5	
912.41	5385.5	
912.57	5385.5	
912.74	5385.5	
912.9	5385.5	
913.07	5385.5	
913.23	5385.5	
913.39	5385.5	
913.56	5385.5	
913.72	5385.5	
913.88	5385.5	
914.05	5385.5	
914.21	5385.5	
914.37	5385.5	
914.54	5385.5	
914.7	5385.5	
914.86	5385.5	
915.03	5385.5	
915.19	5385.5	
