Wavelength	Intensities	
nm	a.u.	
179.22	1918.3	
179.44	1917.6	
179.65	1918.9	
179.86	1916.2	
180.08	1884.8	
180.29	4929.5	
180.51	3487	
180.72	5581.4	
180.94	6666.1	
181.15	3222.1	
181.37	3190.1	
181.58	5475.6	
181.79	5796.4	
182.01	3315.7	
182.22	3627.6	
182.44	5735	
182.65	4816.1	
182.87	4516.5	
183.08	4010.6	
183.29	6073.6	
183.51	5067.4	
183.72	3622.2	
183.94	5360.2	
184.15	5330.9	
184.37	5444.9	
184.58	3218	
184.79	4382.7	
185.01	4990.9	
185.22	5752.1	
185.44	4704.9	
185.65	3950.5	
185.86	5251.7	
186.08	4902.8	
186.29	3110.2	
186.51	3380.5	
186.72	4991.6	
186.94	5951.4	
187.15	3896.6	
187.36	3992.2	
187.58	7753.6	
187.79	5455.1	
188.01	4241.3	
188.22	6473.6	
188.43	6610.8	
188.65	5720	
188.86	3341.6	
189.08	4012.7	
189.29	5255.8	
189.5	5212.8	
189.72	3722.5	
189.93	3820.1	
190.15	5988.3	
190.36	7148.1	
190.57	4070	
190.79	3946.4	
191	6055.2	
191.22	5975.3	
191.43	4035.9	
191.64	3331.4	
191.86	6225.8	
192.07	5965.7	
192.29	3510.2	
192.5	3752.6	
192.71	5954.8	
192.93	5137.7	
193.14	3641.3	
193.35	3792.8	
193.57	5206.6	
193.78	5945.3	
194	2938.8	
194.21	3699.3	
194.42	4975.2	
194.64	5445.5	
194.85	3997	
195.07	4721.9	
195.28	5449	
195.49	4700.8	
195.71	4987.5	
195.92	3515.7	
196.13	5595.7	
196.35	5674.2	
196.56	5259.9	
196.78	4014	
196.99	7058	
197.2	6565.1	
197.42	4569	
197.63	4100.7	
197.84	4857.8	
198.06	5574.6	
198.27	3710.9	
198.48	5010.7	
198.7	5137.7	
198.91	5310.4	
199.13	3986.7	
199.34	4060.4	
199.55	5811.5	
199.77	4634.6	
199.98	3558.7	
200.19	4134.2	
200.41	5310.4	
200.62	5003.2	
200.83	4254.3	
201.05	4564.2	
201.26	5326.8	
201.47	5030.5	
201.69	3602.4	
201.9	3435.8	
202.11	5342.5	
202.33	6445	
202.54	3846.1	
202.76	4321.2	
202.97	5491.3	
203.18	5479.7	
203.4	4233.8	
203.61	4114.4	
203.82	5469.4	
204.04	5072.8	
204.25	4044.1	
204.46	3996.3	
204.68	5417.6	
204.89	5653.1	
205.1	3944.4	
205.32	3411.2	
205.53	5881.1	
205.74	5945.9	
205.96	2882.9	
206.17	4104.8	
206.38	5760.9	
206.6	5928.9	
206.81	4653	
207.02	3782.6	
207.24	5632.6	
207.45	6064	
207.66	3827.7	
207.88	3276.8	
208.09	5516.5	
208.3	5358.2	
208.52	3510.9	
208.73	3814.7	
208.94	5438.7	
209.15	6062.7	
209.37	3792.2	
209.58	4047.5	
209.79	5961	
210.01	5238.7	
210.22	3097.9	
210.43	3336.1	
210.65	5421.7	
210.86	5853.1	
211.07	3908.9	
211.29	3504.1	
211.5	5773.9	
211.71	5334.3	
211.93	3514.3	
212.14	3558	
212.35	5330.2	
212.56	5549.3	
212.78	4092.5	
212.99	3327.9	
213.2	6441.5	
213.42	5148.6	
213.63	3595.6	
213.84	3915	
214.06	4779.3	
214.27	4875.5	
214.48	3803.8	
214.69	4110.3	
214.91	6124.1	
215.12	6146	
215.33	4161.5	
215.55	4569.7	
215.76	6628.6	
215.97	5790.3	
216.18	3984.7	
216.4	3868.6	
216.61	5083.1	
216.82	5894.7	
217.04	3562.1	
217.25	3682.2	
217.46	5997.1	
217.67	5791.7	
217.89	3187.3	
218.1	3362.1	
218.31	5503.6	
218.53	5578	
218.74	3739.6	
218.95	3609.2	
219.16	5337	
219.38	6273.6	
219.59	3681.6	
219.8	4332.1	
220.01	6988.4	
220.23	5468.8	
220.44	4711	
220.65	3550.5	
220.87	5481	
221.08	6093.4	
221.29	3266.5	
221.5	4386.7	
221.72	7416.4	
221.93	5111.7	
222.14	4111.6	
222.35	4774.5	
222.57	5437.4	
222.78	5778.7	
222.99	3871.3	
223.2	4216.1	
223.42	5740.5	
223.63	5892.7	
223.84	2983.2	
224.05	2983.2	
224.27	6919.4	
224.48	6277.7	
224.69	4784.7	
224.9	4098	
225.12	5574.6	
225.33	5360.9	
225.54	3233.7	
225.75	3611.3	
225.97	4956.1	
226.18	5272.8	
226.39	3889.8	
226.6	3618.1	
226.82	5100.8	
227.03	5053	
227.24	4082.3	
227.45	3383.9	
227.67	5791	
227.88	6369.9	
228.09	4547.9	
228.3	4544.4	
228.52	5822.4	
228.73	5319.3	
228.94	3749.1	
229.15	3362.1	
229.36	5344.5	
229.58	5263.3	
229.79	3805.8	
230	4444.8	
230.21	6416.3	
230.43	5508.4	
230.64	4094.6	
230.85	4197.7	
231.06	5823.7	
231.28	5797.1	
231.49	3323.9	
231.7	3953.3	
231.91	5679	
232.12	5383.4	
232.34	3428.3	
232.55	3994.2	
232.76	6074.3	
232.97	5618.9	
233.18	3550.5	
233.4	4018.1	
233.61	5585.5	
233.82	5171.8	
234.03	3698.6	
234.25	3733.4	
234.46	7542	
234.67	5352.7	
234.88	4172.4	
235.09	3610.6	
235.31	5736.4	
235.52	5274.2	
235.73	4029.7	
235.94	3389.4	
236.15	5129.5	
236.37	6607.4	
236.58	3586	
236.79	3889.8	
237	5724.8	
237.21	4926.7	
237.43	4154.6	
237.64	3291.1	
237.85	9806.4	
238.06	4940.4	
238.27	4231.1	
238.48	3430.3	
238.7	5735.7	
238.91	5257.8	
239.12	3911.6	
239.33	3889.1	
239.54	4949.9	
239.76	5318.6	
239.97	3834.5	
240.18	3858.4	
240.39	6820.4	
240.6	5687.2	
240.82	3971.7	
241.03	3278.1	
241.24	5434.6	
241.45	6243.6	
241.66	3543.7	
241.87	4173.1	
242.09	6156.9	
242.3	6553.5	
242.51	4203.8	
242.72	3905.5	
242.93	5877.7	
243.14	5352	
243.36	4484.4	
243.57	4870.8	
243.78	6230.6	
243.99	5795.8	
244.2	3927.3	
244.41	3469.9	
244.63	4940.4	
244.84	5758.2	
245.05	4141.7	
245.26	3924.6	
245.47	5765.7	
245.68	5978.7	
245.9	5226.4	
246.11	4117.8	
246.32	5287.2	
246.53	5674.2	
246.74	6299.6	
246.95	3290.4	
247.16	4884.4	
247.38	5395.7	
247.59	3238.5	
247.8	3879.5	
248.01	5113.8	
248.22	5325.4	
248.43	3526.6	
248.64	3787.4	
248.86	4781.3	
249.07	5182	
249.28	3395.5	
249.49	4003.8	
249.7	5962.3	
249.91	6070.2	
250.12	3237.2	
250.34	3327.3	
250.55	5508.4	
250.76	5393	
250.97	3981.9	
251.18	4068.6	
251.39	6130.3	
251.6	5615.5	
251.81	4106.9	
252.03	4128.7	
252.24	5121.3	
252.45	5989.6	
252.66	3311.6	
252.87	4372.4	
253.08	5449.6	
253.29	7131.7	
253.5	3389.4	
253.72	4746.5	
253.93	5247.6	
254.14	6434.7	
254.35	3676.8	
254.56	3763.5	
254.77	5635.3	
254.98	5039.4	
255.19	3663.8	
255.41	4727.4	
255.62	5500.8	
255.83	6125.5	
256.04	4162.8	
256.25	4120.5	
256.46	6663.4	
256.67	5117.9	
256.88	4102.1	
257.09	4450.9	
257.31	5085.1	
257.52	5124	
257.73	5068.7	
257.94	3689.1	
258.15	5208	
258.36	5457.2	
258.57	4660.5	
258.78	2919.7	
258.99	5893.4	
259.2	5239.4	
259.41	3753.2	
259.63	3805.1	
259.84	6263.4	
260.05	6737.8	
260.26	4867.3	
260.47	3586	
260.68	5985.5	
260.89	5300.8	
261.1	4447.5	
261.31	3577.8	
261.52	5991.7	
261.73	6386.2	
261.95	4784.7	
262.16	4186	
262.37	6135	
262.58	6212.2	
262.79	4820.2	
263	3804.4	
263.21	5495.4	
263.42	4880.3	
263.63	3820.8	
263.84	3791.5	
264.05	6027.9	
264.26	6362.4	
264.47	4668.7	
264.69	4151.2	
264.9	6136.4	
265.11	5662	
265.32	3579.2	
265.53	3738.9	
265.74	5547.3	
265.95	4797	
266.16	4011.3	
266.37	4430.4	
266.58	5552.7	
266.79	5271.5	
267	3659	
267.21	3408.5	
267.42	5030.5	
267.63	5371.8	
267.84	3893.9	
268.06	3302.7	
268.27	5847.6	
268.48	6137.8	
268.69	3827.7	
268.9	4458.4	
269.11	6156.9	
269.32	4862.6	
269.53	3951.2	
269.74	3532.1	
269.95	5730.9	
270.16	4771.1	
270.37	3876.8	
270.58	4407.2	
270.79	5279.7	
271	5920	
271.21	4211.3	
271.42	3963.5	
271.63	5560.9	
271.84	5121.3	
272.05	3066.5	
272.26	3523.2	
272.47	5487.9	
272.68	5614.8	
272.89	3757.3	
273.11	4344.4	
273.32	5181.4	
273.53	6331	
273.74	4231.1	
273.95	4149.2	
274.16	6091.3	
274.37	5510.4	
274.58	4283.7	
274.79	3425.6	
275	5569.8	
275.21	6092	
275.42	5121.3	
275.63	4430.4	
275.84	5675.6	
276.05	7151.5	
276.26	4102.1	
276.47	3826.3	
276.68	5259.9	
276.89	6423.8	
277.1	4453.6	
277.31	3399.6	
277.52	5689.9	
277.73	5818.3	
277.94	3366.9	
278.15	3685	
278.36	5681.7	
278.57	5053	
278.78	3739.6	
278.99	4240	
279.2	5040.1	
279.41	5070.8	
279.62	4907.6	
279.83	3437.2	
280.04	6583.5	
280.25	4995	
280.46	4908.3	
280.67	3878.2	
280.88	5053	
281.09	6133	
281.3	4164.2	
281.51	5225.7	
281.72	5106.3	
281.93	5973.9	
282.14	3610.6	
282.35	3933.5	
282.56	5831.9	
282.77	5841.5	
282.98	3775.1	
283.19	4698	
283.4	7306.5	
283.61	5380	
283.82	3396.2	
284.03	4854.4	
284.24	5551.4	
284.45	6077.7	
284.66	4871.4	
284.87	4650.9	
285.08	6018.3	
285.29	6178.7	
285.5	3318.4	
285.71	3799	
285.92	6051.7	
286.12	6741.2	
286.33	4794.3	
286.54	3793.5	
286.75	5945.3	
286.96	5227.8	
287.17	3487	
287.38	4719.2	
287.59	5091.3	
287.8	4967.7	
288.01	3796.9	
288.22	4409.3	
288.43	5915.2	
288.64	4952.7	
288.85	4592.9	
289.06	4336.9	
289.27	5881.8	
289.48	6434	
289.69	4855.1	
289.9	4361.5	
290.11	6107	
290.32	5175.2	
290.53	4597	
290.74	4226.3	
290.94	5900.9	
291.15	5917.3	
291.36	3633.1	
291.57	4410.6	
291.78	5135.6	
291.99	4820.2	
292.2	3562.8	
292.41	4234.5	
292.62	5913.9	
292.83	5709.7	
293.04	5124	
293.25	3484.3	
293.46	5210	
293.67	6051.7	
293.88	3647.4	
294.09	3506.8	
294.29	4932.2	
294.5	5545.9	
294.71	3933.5	
294.92	3728	
295.13	5240.1	
295.34	6530.3	
295.55	3280.2	
295.76	3231.7	
295.97	5819.6	
296.18	6649.8	
296.39	3488.4	
296.6	3678.8	
296.81	5486.5	
297.01	5892.7	
297.22	3805.8	
297.43	3601.7	
297.64	5109	
297.85	5071.5	
298.06	2996.2	
298.27	3254.2	
298.48	5460.6	
298.69	5166.3	
298.9	3917.8	
299.11	3666.5	
299.31	4928.8	
299.52	5018.2	
299.73	4259.1	
299.94	4199	
300.15	5344.5	
300.36	5044.1	
300.57	4188.8	
300.78	4183.3	
300.99	5326.8	
301.2	5617.6	
301.4	3601	
301.61	3992.9	
301.82	5719.3	
302.03	5870.2	
302.24	4400.4	
302.45	3459.7	
302.66	5687.9	
302.87	6171.9	
303.08	3680.9	
303.29	5005.2	
303.49	5203.9	
303.7	5487.2	
303.91	3267.2	
304.12	4758.1	
304.33	4979.3	
304.54	5575.3	
304.75	3599	
304.96	3525.2	
305.16	5806.7	
305.37	6500.9	
305.58	3188	
305.79	3314.3	
306	5721.3	
306.21	4821.6	
306.42	3626.3	
306.63	5545.2	
306.83	5274.9	
307.04	6057.9	
307.25	4001.7	
307.46	4053.6	
307.67	4689.2	
307.88	5885.9	
308.09	3655.6	
308.29	3743.7	
308.5	5512.4	
308.71	6055.2	
308.92	3971	
309.13	3547.1	
309.34	5352.7	
309.55	5335	
309.75	4533.5	
309.96	4177.9	
310.17	5888.6	
310.38	5132.9	
310.59	4435.9	
310.8	3486.3	
311.01	5397.8	
311.21	5212.8	
311.42	3456.3	
311.63	3613.3	
311.84	5196.4	
312.05	5578.7	
312.26	4009.9	
312.46	4499.4	
312.67	5263.3	
312.88	4956.8	
313.09	3508.9	
313.3	3467.2	
313.51	6180.8	
313.71	6635.4	
313.92	3564.1	
314.13	3722.5	
314.34	5622.4	
314.55	5325.4	
314.76	4489.8	
314.96	3958.7	
315.17	5522	
315.38	5809.4	
315.59	3559.4	
315.8	3413.3	
316.01	6333.7	
316.21	6343.9	
316.42	3439.2	
316.63	3944.4	
316.84	5302.2	
317.05	6128.2	
317.26	4197.7	
317.46	3765.5	
317.67	5352	
317.88	5819	
318.09	4532.8	
318.3	3264.5	
318.5	5162.2	
318.71	5752.1	
318.92	5828.5	
319.13	4203.1	
319.34	5939.1	
319.54	6086.6	
319.75	3282.2	
319.96	3166.8	
320.17	5841.5	
320.38	6054.5	
320.58	3209.8	
320.79	3906.2	
321	6032	
321.21	6238.1	
321.42	3898	
321.62	3192.8	
321.83	4983.4	
322.04	5412.8	
322.25	3713	
322.46	3571.7	
322.66	5530.2	
322.87	5645.6	
323.08	4373.8	
323.29	3465.8	
323.5	6503	
323.7	4956.8	
323.91	4808.6	
324.12	4375.8	
324.33	5466	
324.53	5773.9	
324.74	4181.3	
324.95	4391.5	
325.16	4841.4	
325.37	5266.7	
325.57	3534.1	
325.78	3627	
325.99	5497.4	
326.2	4900.1	
326.4	5158.8	
326.61	3271.3	
326.82	5363.6	
327.03	5583.4	
327.24	5095.3	
327.44	4757.4	
327.65	5674.9	
327.86	4607.9	
328.07	4156	
328.27	3402.4	
328.48	6104.3	
328.69	5001.8	
328.9	5152	
329.1	3804.4	
329.31	5317.2	
329.52	6243.6	
329.73	3569.6	
329.93	3985.3	
330.14	5440.8	
330.35	5713.8	
330.56	5843.5	
330.76	4367.6	
330.97	5210	
331.18	5613.5	
331.39	3968.3	
331.59	3176.4	
331.8	6001.9	
332.01	6149.4	
332.22	3700	
332.42	4182.6	
332.63	5565	
332.84	5143.8	
333.05	3936.2	
333.25	3676.1	
333.46	5155.4	
333.67	5408.7	
333.88	3689.8	
334.08	4100.7	
334.29	7283.9	
334.5	6101.6	
334.7	3391.4	
334.91	5031.2	
335.12	4949.9	
335.33	5851	
335.53	3932.8	
335.74	5862	
335.95	5218.2	
336.16	5055.8	
336.36	3949.8	
336.57	4544.4	
336.78	4961.5	
336.98	6027.9	
337.19	4876.2	
337.4	3872.7	
337.61	6594.5	
337.81	4979.3	
338.02	3603.7	
338.23	4697.4	
338.43	6213.5	
338.64	5110.4	
338.85	3595.6	
339.05	4676.9	
339.26	6292	
339.47	4904.9	
339.68	3510.2	
339.88	5272.2	
340.09	5702.2	
340.3	5909.1	
340.5	4134.2	
340.71	3198.9	
340.92	4925.4	
341.13	6141.9	
341.33	3424.9	
341.54	4209.9	
341.75	5616.9	
341.95	5360.9	
342.16	4043.4	
342.37	4323.9	
342.57	5015.5	
342.78	5378.6	
342.99	4476.2	
343.19	3203	
343.4	5909.8	
343.61	5651.7	
343.81	3815.4	
344.02	3499.3	
344.23	5812.8	
344.43	6273.6	
344.64	4358.8	
344.85	4300.7	
345.06	5676.3	
345.26	6077.7	
345.47	4089.1	
345.68	4822.3	
345.88	4816.1	
346.09	5883.8	
346.3	4248.2	
346.5	3126.6	
346.71	5411.4	
346.92	5147.2	
347.12	3223.5	
347.33	4091.8	
347.54	5990.3	
347.74	6413.6	
347.95	4081.6	
348.16	3013.9	
348.36	5281	
348.57	4934.2	
348.78	4020.8	
348.98	4379.9	
349.19	5416.9	
349.39	4939.7	
349.6	3290.4	
349.81	3642.7	
350.01	5668.8	
350.22	5112.4	
350.43	3906.8	
350.63	4771.1	
350.84	5446.9	
351.05	5190.2	
351.25	3596.2	
351.46	3279.5	
351.67	6000.5	
351.87	5150.6	
352.08	3829.7	
352.29	4372.4	
352.49	5881.8	
352.7	5999.9	
352.9	3481.5	
353.11	4271.4	
353.32	6544.6	
353.52	5173.2	
353.73	3426.9	
353.94	4335.5	
354.14	5739.1	
354.35	5543.2	
354.55	3525.2	
354.76	3890.5	
354.97	5658.5	
355.17	5530.2	
355.38	3263.1	
355.59	4650.3	
355.79	5081.7	
356	5541.1	
356.2	3877.5	
356.41	3383.2	
356.62	4810.7	
356.82	5275.6	
357.03	4192.2	
357.24	3714.3	
357.44	5114.5	
357.65	5183.4	
357.85	4922.6	
358.06	3860.4	
358.27	4864.6	
358.47	5023	
358.68	3268.6	
358.88	4087.1	
359.09	5672.9	
359.3	5973.2	
359.5	4818.9	
359.71	4300.1	
359.91	6423.8	
360.12	5776	
360.33	4082.3	
360.53	4613.4	
360.74	5052.3	
360.94	5107.6	
361.15	4284.4	
361.36	3566.9	
361.56	5803.3	
361.77	5287.9	
361.97	4780	
362.18	3772.4	
362.38	5853.1	
362.59	4896.7	
362.8	3437.9	
363	3270.6	
363.21	4713.7	
363.41	5355.4	
363.62	3952.6	
363.83	4947.9	
364.03	5489.2	
364.24	6440.2	
364.44	5098.1	
364.65	4996.4	
364.85	5205.3	
365.06	5068.7	
365.27	3612.6	
365.47	3676.8	
365.68	6208.8	
365.88	5156.8	
366.09	3937.6	
366.29	3695.9	
366.5	5465.3	
366.71	5879.7	
366.91	4911	
367.12	4182	
367.32	6447	
367.53	5748	
367.73	4138.9	
367.94	5092.6	
368.14	5614.2	
368.35	6564.4	
368.56	4068.6	
368.76	3754.6	
368.97	5765	
369.17	7480.5	
369.38	3555.3	
369.58	3844.7	
369.79	4823.6	
369.99	6151.4	
370.2	4886.5	
370.4	3969	
370.61	5476.3	
370.82	6672.3	
371.02	3771.7	
371.23	3162.7	
371.43	4646.2	
371.64	6024.4	
371.84	3827	
372.05	5046.2	
372.25	7343.3	
372.46	5806.7	
372.66	3844.7	
372.87	3816	
373.07	5836	
373.28	7370.6	
373.48	4851.6	
373.69	4531.5	
373.9	5200.5	
374.1	5275.6	
374.31	4738.3	
374.51	4293.9	
374.72	6111.8	
374.92	4873.5	
375.13	4934.2	
375.33	4057.7	
375.54	5612.1	
375.74	5030.5	
375.95	4149.2	
376.15	5322.7	
376.36	5606	
376.56	5455.8	
376.77	4184.7	
376.97	4607.9	
377.18	6706.4	
377.38	5659.2	
377.59	5008	
377.79	3657.7	
378	5464.7	
378.2	5929.6	
378.41	3716.4	
378.61	3585.3	
378.82	5961	
379.02	5010	
379.23	3850.2	
379.43	4973.2	
379.64	5986.9	
379.84	5650.3	
380.05	3705.5	
380.25	3636.5	
380.46	5692.7	
380.66	5338.4	
380.87	5056.4	
381.07	5456.5	
381.28	6324.8	
381.48	5763	
381.69	3707.5	
381.89	3755.3	
382.1	4695.3	
382.3	5945.3	
382.51	4861.9	
382.71	5723.4	
382.91	5775.3	
383.12	6278.4	
383.32	4140.3	
383.53	4336.9	
383.73	5623	
383.94	5327.4	
384.14	4219.5	
384.35	3426.9	
384.55	5343.2	
384.76	5803.9	
384.96	4119.1	
385.17	4487.8	
385.37	5730.9	
385.58	5041.4	
385.78	4450.9	
385.98	3296.5	
386.19	5304.9	
386.39	5681.1	
386.6	3833.8	
386.8	4169	
387.01	5842.2	
387.21	5844.2	
387.42	4586.8	
387.62	5089.2	
387.83	5006.6	
388.03	5724.8	
388.23	4069.3	
388.44	4945.8	
388.64	4699.4	
388.85	4881	
389.05	4515.8	
389.26	5119.9	
389.46	6714.6	
389.67	6184.2	
389.87	4466.6	
390.07	4519.9	
390.28	5350.7	
390.48	4918.5	
390.69	3694.5	
390.89	4010.6	
391.1	5100.8	
391.3	6057.2	
391.5	5210	
391.71	5854.5	
391.91	5837.4	
392.12	6827.9	
392.32	5316.5	
392.53	4482.3	
392.73	5158.2	
392.93	5399.1	
393.14	4162.8	
393.34	4922	
393.55	5881.8	
393.75	5330.2	
393.95	4227.7	
394.16	4113	
394.36	5081	
394.57	5863.3	
394.77	3566.2	
394.98	4116.4	
395.18	5010.7	
395.38	5330.2	
395.59	4922	
395.79	3883.6	
396	5169.8	
396.2	5681.1	
396.4	4767	
396.61	4664.6	
396.81	5838.8	
397.02	5070.1	
397.22	4904.9	
397.42	4967.7	
397.63	5854.5	
397.83	5004.6	
398.04	3759.4	
398.24	4209.9	
398.44	5629.9	
398.65	4576.5	
398.85	3633.1	
399.05	3696.6	
399.26	4955.4	
399.46	6716	
399.67	4143.7	
399.87	3809.2	
400.07	5390.9	
400.28	5730.2	
400.48	3904.8	
400.69	4962.2	
400.89	5973.2	
401.09	6364.4	
401.3	3747.1	
401.5	4975.9	
401.7	6599.9	
401.91	6866.2	
402.11	4103.4	
402.32	4362.9	
402.52	5945.3	
402.72	5856.5	
402.93	4625	
403.13	3444	
403.33	6724.8	
403.54	5468.8	
403.74	4317.8	
403.94	5275.6	
404.15	5557.5	
404.35	6744.6	
404.56	4129.4	
404.76	5960.3	
404.96	5943.2	
405.17	5739.8	
405.37	5294	
405.57	4515.1	
405.78	6023.1	
405.98	5427.1	
406.18	4048.2	
406.39	4989.5	
406.59	5931.6	
406.79	5554.8	
407	3913.7	
407.2	4012	
407.4	6070.9	
407.61	6178.7	
407.81	4059.1	
408.01	6351.4	
408.22	4844.1	
408.42	7029.3	
408.62	5056.4	
408.83	4455.7	
409.03	5477	
409.23	5242.1	
409.44	4553.3	
409.64	4845.5	
409.84	6352.1	
410.05	6280.4	
410.25	4641.4	
410.45	4349.2	
410.66	5648.3	
410.86	8149.6	
411.06	4790.2	
411.27	4652.3	
411.47	7933.8	
411.67	5874.9	
411.88	4934.9	
412.08	5118.6	
412.28	6502.3	
412.49	6954.9	
412.69	4549.9	
412.89	4561.5	
413.09	6745.3	
413.3	6653.9	
413.5	4648.9	
413.7	4294.6	
413.91	5853.1	
414.11	6693.4	
414.31	4451.6	
414.52	4898.7	
414.72	6388.3	
414.92	6237.4	
415.12	4524	
415.33	5048.9	
415.53	6668.9	
415.73	6888.7	
415.94	5335.6	
416.14	4844.1	
416.34	5606.7	
416.55	5387.5	
416.75	5981.4	
416.95	5422.3	
417.15	6655.2	
417.36	7436.2	
417.56	6180.1	
417.76	5222.3	
417.97	6988.4	
418.17	6698.9	
418.37	4875.5	
418.57	4850.3	
418.78	6470.9	
418.98	6169.8	
419.18	5672.9	
419.38	5708.4	
419.59	6292.7	
419.79	5841.5	
419.99	4821.6	
420.2	5203.2	
420.4	6676.4	
420.6	6934.4	
420.8	4616.8	
421.01	4493.9	
421.21	6489.3	
421.41	6778.8	
421.61	5107	
421.82	4745.8	
422.02	6000.5	
422.22	6968.6	
422.42	5547.9	
422.63	5269.4	
422.83	6149.4	
423.03	7328.3	
423.23	5309	
423.44	4238.6	
423.64	6213.5	
423.84	6042.2	
424.04	4705.5	
424.25	4321.2	
424.45	7200.7	
424.65	7231.4	
424.85	4240	
425.06	4732.9	
425.26	7204.1	
425.46	6158.9	
425.66	5261.2	
425.87	4956.8	
426.07	6957.6	
426.27	6802.7	
426.47	5111	
426.67	4462.5	
426.88	7260	
427.08	6670.9	
427.28	5375.2	
427.48	4385.4	
427.69	5572.5	
427.89	6281.1	
428.09	5322.7	
428.29	4487.1	
428.5	6959.7	
428.7	6523.5	
428.9	4359.4	
429.1	4986.8	
429.3	6491.4	
429.51	6883.2	
429.71	4702.8	
429.91	5539.1	
430.11	6606.1	
430.31	6898.2	
430.52	4996.4	
430.72	5246.9	
430.92	7323.5	
431.12	6793.8	
431.32	4656.4	
431.53	5079	
431.73	5624.4	
431.93	7414.3	
432.13	4620.9	
432.33	4383.3	
432.54	6130.9	
432.74	6522.1	
432.94	4361.5	
433.14	5461.2	
433.34	6665.5	
433.55	6154.1	
433.75	5378.6	
433.95	7066.9	
434.15	6482.5	
434.35	6133	
434.56	4514.4	
434.76	3972.4	
434.96	6427.2	
435.16	6675	
435.36	4449.6	
435.56	5627.8	
435.77	6066.8	
435.97	6315.9	
436.17	6309.8	
436.37	5450.3	
436.57	6021	
436.78	5921.4	
436.98	7329	
437.18	6038.8	
437.38	6701.6	
437.58	6237.4	
437.78	6266.1	
437.99	4854.4	
438.19	6817.7	
438.39	7604.1	
438.59	4816.8	
438.79	4311	
438.99	7559.7	
439.2	6328.9	
439.4	4538.3	
439.6	4433.9	
439.8	6651.1	
440	7660.8	
440.2	5438	
440.4	5571.8	
440.61	6987	
440.81	7471	
441.01	4541	
441.21	5568.4	
441.41	7339.2	
441.61	6955.6	
441.81	5893.4	
442.02	6803.4	
442.22	7903.1	
442.42	7059.3	
442.62	4689.2	
442.82	4724.7	
443.02	7358.4	
443.22	6472.9	
443.43	5183.4	
443.63	4658.4	
443.83	6286.6	
444.03	6268.8	
444.23	5836.7	
444.43	5502.9	
444.63	6576	
444.83	7792.5	
445.04	4769.7	
445.24	6092	
445.44	6994.5	
445.64	7098.9	
445.84	5575.3	
446.04	5584.1	
446.24	6361	
446.44	7376.8	
446.65	4846.9	
446.85	5162.2	
447.05	6533	
447.25	7368.6	
447.45	5321.3	
447.65	4677.6	
447.85	6705	
448.05	6406	
448.25	5796.4	
448.46	5561.6	
448.66	6718.7	
448.86	6425.2	
449.06	4478.2	
449.26	5808.7	
449.46	7090.8	
449.66	6073.6	
449.86	5246.9	
450.06	5208	
450.26	6280.4	
450.47	6829.3	
450.67	5464.7	
450.87	5878.4	
451.07	7020.4	
451.27	6754.2	
451.47	4770.4	
451.67	5376.6	
451.87	6430.6	
452.07	7642.3	
452.27	5027.1	
452.47	4996.4	
452.67	6771.3	
452.88	7373.4	
453.08	4407.9	
453.28	6448.4	
453.48	8002.1	
453.68	6690.7	
453.88	4992.3	
454.08	5218.9	
454.28	7045	
454.48	6768.5	
454.68	5744.6	
454.88	6214.9	
455.08	7225.2	
455.28	6848.4	
455.48	4845.5	
455.68	5366.4	
455.89	7725.6	
456.09	7365.9	
456.29	5126.1	
456.49	5227.1	
456.69	7563.1	
456.89	6756.2	
457.09	5707.7	
457.29	6127.5	
457.49	7152.9	
457.69	7251.9	
457.89	5545.2	
458.09	4939	
458.29	6782.9	
458.49	7582.9	
458.69	5951.4	
458.89	5356.1	
459.09	7847.8	
459.29	7901.7	
459.49	5452.4	
459.69	6269.5	
459.9	7397.3	
460.1	6836.8	
460.3	5397.8	
460.5	5225.1	
460.7	7427.3	
460.9	7044.3	
461.1	4810	
461.3	6134.3	
461.5	8042.4	
461.7	7681.2	
461.9	5269.4	
462.1	5721.3	
462.3	7123.5	
462.5	7675.8	
462.7	5243.5	
462.9	5455.8	
463.1	8742.1	
463.3	8338.6	
463.5	5572.5	
463.7	6443.6	
463.9	7279.2	
464.1	7648.5	
464.3	5678.3	
464.5	5966.4	
464.7	7894.2	
464.9	7553.6	
465.1	7278.5	
465.3	6323.4	
465.5	8252.6	
465.7	8285.4	
465.9	6485.2	
466.1	6404.7	
466.3	7989.8	
466.5	7820.5	
466.7	7273.7	
466.9	6148.7	
467.1	7806.9	
467.3	8833.6	
467.5	7215.7	
467.7	6012.2	
467.9	8922.3	
468.1	9794.1	
468.3	6824.5	
468.5	7246.4	
468.7	7720.2	
468.9	7789.1	
469.1	6271.6	
469.3	7101	
469.5	9825.5	
469.7	7331	
469.9	6865.5	
470.1	6081.1	
470.3	7748.8	
470.5	7821.9	
470.7	7413	
470.9	6158.9	
471.1	7586.4	
471.3	8044.4	
471.5	6019.7	
471.69	7950.2	
471.89	7430.7	
472.09	6995.9	
472.29	6742.6	
472.49	7205.4	
472.69	7150.1	
472.89	8060.8	
473.09	5867.4	
473.29	6088.6	
473.49	7320.8	
473.69	7574.1	
473.89	7079.8	
474.09	6290	
474.29	8853.4	
474.49	8554.4	
474.69	7009.5	
474.89	6386.2	
475.09	7635.5	
475.29	7539.9	
475.49	5801.2	
475.69	5994.4	
475.88	9202.9	
476.08	7876.5	
476.28	5782.8	
476.48	6236.7	
476.68	8436.9	
476.88	8241.7	
477.08	6098.9	
477.28	6430.6	
477.48	7815	
477.68	8370	
477.88	5920	
478.08	6234.7	
478.28	8699.8	
478.48	7847.8	
478.67	6274.3	
478.87	5732.3	
479.07	8541.4	
479.27	7920.2	
479.47	6563.7	
479.67	6586.3	
479.87	8334.6	
480.07	8963.3	
480.27	5771.2	
480.47	7465.5	
480.67	8021.9	
480.87	8621.9	
481.06	5995.1	
481.26	6922.1	
481.46	7955	
481.66	7813	
481.86	6444.3	
482.06	7654.6	
482.26	7694.2	
482.46	8535.3	
482.66	6531.7	
482.86	6143.2	
483.05	8027.4	
483.25	7441.6	
483.45	8933.9	
483.65	6488.6	
483.85	7565.9	
484.05	7963.2	
484.25	6941.9	
484.45	7526.3	
484.65	8913.4	
484.84	8834.9	
485.04	6441.5	
485.24	6482.5	
485.44	9122.3	
485.64	7331	
485.84	5756.2	
486.04	7113.3	
486.24	7819.1	
486.44	8161.2	
486.63	5694.7	
486.83	6483.9	
487.03	7684	
487.23	7915.4	
487.43	5772.5	
487.63	8154.3	
487.83	7974.8	
488.02	9048.6	
488.22	6848.4	
488.42	7503.8	
488.62	8880	
488.82	7748.1	
489.02	6483.9	
489.22	6472.3	
489.41	8742.1	
489.61	8317.5	
489.81	6183.5	
490.01	6208.1	
490.21	8538	
490.41	9253.4	
490.61	6121.4	
490.8	6175.3	
491	8019.2	
491.2	7406.1	
491.4	6964.5	
491.6	6133.7	
491.8	8117.5	
491.99	8343.4	
492.19	5894.7	
492.39	6336.4	
492.59	8751	
492.79	8847.9	
492.99	7247.8	
493.18	6224.5	
493.38	8842.4	
493.58	9585.2	
493.78	7052.5	
493.98	6606.7	
494.18	8576.9	
494.37	8039.6	
494.57	7264.8	
494.77	7224.6	
494.97	8758.5	
495.17	9067.7	
495.37	6655.2	
495.56	7087.3	
495.76	9204.3	
495.96	8843.1	
496.16	7961.1	
496.36	6782.9	
496.55	8974.9	
496.75	8514.1	
496.95	7255.3	
497.15	7002	
497.35	8979	
497.54	8985.8	
497.74	6874.3	
497.94	8718.2	
498.14	9749	
498.34	9482.1	
498.53	6615.6	
498.73	7552.9	
498.93	8363.2	
499.13	8965.3	
499.33	7240.9	
499.52	7634.8	
499.72	8999.5	
499.92	9287.5	
500.12	6892.1	
500.32	7225.2	
500.51	9336	
500.71	8971.5	
500.91	7957	
501.11	7536.5	
501.31	9168.1	
501.5	9625.5	
501.7	8294.3	
501.9	7134.4	
502.1	8959.2	
502.29	9261.6	
502.49	7733.8	
502.69	8087.4	
502.89	9176.9	
503.09	9237.7	
503.28	6709.1	
503.48	6721.4	
503.68	8355.7	
503.88	8426	
504.07	7857.4	
504.27	7290.8	
504.47	8772.1	
504.67	8959.2	
504.86	7787.1	
505.06	7393.8	
505.26	8471.8	
505.46	10320	
505.65	7352.9	
505.85	7616.4	
506.05	8436.3	
506.25	8942.1	
506.44	6709.1	
506.64	7593.9	
506.84	8346.2	
507.04	9349.7	
507.23	6900.3	
507.43	7442.3	
507.63	10393	
507.83	8635.6	
508.02	7360.4	
508.22	6972.7	
508.42	10679	
508.62	8336.6	
508.81	7376.8	
509.01	8034.2	
509.21	8294.3	
509.4	8571.4	
509.6	7569.3	
509.8	6954.9	
510	8512	
510.19	9965.4	
510.39	6877.8	
510.59	7086	
510.79	8388.5	
510.98	9729.2	
511.18	7053.9	
511.38	7079.8	
511.57	9253.4	
511.77	9026.8	
511.97	7814.4	
512.17	6836.1	
512.36	9199.5	
512.56	9112.1	
512.76	6851.1	
512.95	6687.3	
513.15	9400.2	
513.35	8024.6	
513.55	7759.8	
513.74	7024.5	
513.94	9322.4	
514.14	8617.9	
514.33	7968	
514.53	7701	
514.73	8666.3	
514.92	8888.9	
515.12	7243.7	
515.32	7010.2	
515.51	8996.7	
515.71	9580.4	
515.91	8785.1	
516.11	7083.9	
516.3	10677	
516.5	8580.3	
516.7	7675.1	
516.89	8166.6	
517.09	8676.6	
517.29	8600.1	
517.48	8136.6	
517.68	7318.1	
517.88	8461.5	
518.07	9058.8	
518.27	7874.4	
518.47	6849.1	
518.66	9670.5	
518.86	8267.6	
519.06	6725.5	
519.25	7252.5	
519.45	8751	
519.65	10168	
519.84	7799.3	
520.04	8461.5	
520.24	10411	
520.43	9265.7	
520.63	7537.9	
520.83	7316.7	
521.02	8488.1	
521.22	9253.4	
521.42	7877.9	
521.61	8524.3	
521.81	8765.3	
522.01	9052	
522.2	7767.3	
522.4	7531.7	
522.6	9495.7	
522.79	8321.6	
522.99	7699	
523.18	6945.3	
523.38	9224.1	
523.58	9250	
523.77	9006.3	
523.97	7012.9	
524.17	11140	
524.36	10345	
524.56	8411.7	
524.76	8056.7	
524.95	9275.3	
525.15	8876.6	
525.34	7858.7	
525.54	7831.4	
525.74	9659.6	
525.93	8662.2	
526.13	8944.8	
526.33	7789.8	
526.52	10073	
526.72	9461.6	
526.91	9103.9	
527.11	8393.3	
527.31	10125	
527.5	10445	
527.7	8300.4	
527.89	7322.9	
528.09	8981	
528.29	9611.8	
528.48	8738	
528.68	8365.3	
528.87	10113	
529.07	10038	
529.27	8224	
529.46	7689.4	
529.66	9571.5	
529.85	10019	
530.05	7469.6	
530.25	8305.9	
530.44	11071	
530.64	9547.6	
530.83	8092.2	
531.03	8309.3	
531.23	10140	
531.42	10031	
531.62	9093	
531.81	8256	
532.01	10170	
532.21	10688	
532.4	8066.9	
532.6	8533.2	
532.79	11277	
532.99	10302	
533.18	8537.3	
533.38	9531.9	
533.58	9871.9	
533.77	10685	
533.97	8416.5	
534.16	9212.4	
534.36	10884	
534.55	9811.8	
534.75	9364	
534.95	8505.9	
535.14	10574	
535.34	9938.8	
535.53	8198.7	
535.73	10157	
535.92	11232	
536.12	10262	
536.31	8275.2	
536.51	9585.2	
536.71	10464	
536.9	9960	
537.1	8512	
537.29	8621.9	
537.49	10857	
537.68	9829.6	
537.88	9201.5	
538.07	8260.8	
538.27	10189	
538.46	11231	
538.66	8220.5	
538.86	8561.2	
539.05	10195	
539.25	10586	
539.44	8905.9	
539.64	8449.9	
539.83	10016	
540.03	11014	
540.22	8376.2	
540.42	8517.5	
540.61	10268	
540.81	10451	
541	8930.5	
541.2	9546.3	
541.39	9770.2	
541.59	10205	
541.78	9303.9	
541.98	8395.3	
542.18	9451.4	
542.37	9437.7	
542.57	8634.2	
542.76	9208.4	
542.96	9519.6	
543.15	10375	
543.35	8675.2	
543.54	8037.6	
543.74	10639	
543.93	10094	
544.13	8654	
544.32	9839.8	
544.52	10398	
544.71	9592	
544.91	7761.8	
545.1	9037.7	
545.3	9668.5	
545.49	10443	
545.69	7756.3	
545.88	8430.8	
546.08	11269	
546.27	10931	
546.47	8974.9	
546.66	8178.9	
546.86	10570	
547.05	11195	
547.24	8453.3	
547.44	8317.5	
547.63	9505.3	
547.83	10771	
548.02	8556.4	
548.22	8850	
548.41	9347.6	
548.61	10755	
548.8	8103.8	
549	8099.7	
549.19	9911.5	
549.39	10331	
549.58	7865.6	
549.78	8545.5	
549.97	10369	
550.17	9921	
550.36	9382.4	
550.55	10396	
550.75	9886.2	
550.94	10864	
551.14	8145.5	
551.33	8548.2	
551.53	9176.9	
551.72	10225	
551.92	8542.8	
552.11	8297.7	
552.31	10281	
552.5	10302	
552.69	10048	
552.89	7899	
553.08	10267	
553.28	9911.5	
553.47	8306.6	
553.67	9622.7	
553.86	10943	
554.06	9176.9	
554.25	7506.5	
554.44	8153.6	
554.64	11662	
554.83	11139	
555.03	8019.2	
555.22	8417.8	
555.42	10471	
555.61	10142	
555.8	8174.1	
556	8637	
556.19	9307.3	
556.39	10587	
556.58	8340.7	
556.78	8244.4	
556.97	10055	
557.16	9762	
557.36	9479.4	
557.55	7989.8	
557.75	9054.1	
557.94	10861	
558.13	8065.6	
558.33	7860.8	
558.52	10647	
558.72	9483.5	
558.91	7840.3	
559.1	8189.1	
559.3	9087.5	
559.49	8892.3	
559.69	7492.8	
559.88	8582.4	
560.07	10012	
560.27	10466	
560.46	8661.5	
560.66	8849.3	
560.85	9729.2	
561.04	8972.8	
561.24	7798.7	
561.43	8110.6	
561.63	9228.8	
561.82	9454.1	
562.01	9313.5	
562.21	8506.6	
562.4	9971.6	
562.59	10967	
562.79	8261.5	
562.98	7913.4	
563.18	9841.2	
563.37	11375	
563.56	8727.1	
563.76	7920.9	
563.95	9362.6	
564.14	9281.4	
564.34	8159.1	
564.53	8064.9	
564.73	9908.1	
564.92	10293	
565.11	8563.2	
565.31	7881.3	
565.5	10588	
565.69	9413.8	
565.89	8050.6	
566.08	8311.3	
566.27	10309	
566.47	10880	
566.66	8855.4	
566.85	7561.1	
567.05	9922.4	
567.24	9379	
567.44	7914	
567.63	9433.6	
567.82	10251	
568.02	9957.9	
568.21	8018.5	
568.4	8299.7	
568.6	9852.1	
568.79	9800.2	
568.98	7733.1	
569.18	8028	
569.37	9902.6	
569.56	11830	
569.76	8296.3	
569.95	9202.9	
570.14	10146	
570.34	10073	
570.53	7789.8	
570.72	7757	
570.91	10559	
571.11	9613.2	
571.3	8227.4	
571.49	9150.3	
571.69	9727.2	
571.88	9293.7	
572.07	8786.5	
572.27	8746.9	
572.46	9387.9	
572.65	10370	
572.85	7974.1	
573.04	8384.4	
573.23	10572	
573.43	9946.3	
573.62	7778.9	
573.81	8432.2	
574	9938.1	
574.2	9762	
574.39	8202.8	
574.58	8401.5	
574.78	10736	
574.97	9997.5	
575.16	8653.4	
575.36	8921	
575.55	10393	
575.74	10565	
575.93	7841.7	
576.13	8900.5	
576.32	9716.2	
576.51	10333	
576.71	8257.4	
576.9	9716.2	
577.09	10673	
577.28	10150	
577.48	8782.4	
577.67	7751.6	
577.86	9880.8	
578.05	10312	
578.25	8483.4	
578.44	8550.3	
578.63	10018	
578.83	11215	
579.02	7851.9	
579.21	9508.7	
579.4	10177	
579.6	9869.2	
579.79	8492.9	
579.98	10938	
580.17	10564	
580.37	10691	
580.56	8021.2	
580.75	8827.4	
580.94	11138	
581.14	10868	
581.33	9451.4	
581.52	8211.7	
581.71	10419	
581.91	11158	
582.1	7938.6	
582.29	8500.4	
582.48	10155	
582.68	10037	
582.87	8916.9	
583.06	8779.6	
583.25	10408	
583.45	10271	
583.64	9364	
583.83	10053	
584.02	9970.2	
584.21	10382	
584.41	9280.7	
584.6	8661.5	
584.79	10063	
584.98	10899	
585.18	8076.5	
585.37	8049.2	
585.56	9600.9	
585.75	10446	
585.94	8264.9	
586.14	8979.7	
586.33	10950	
586.52	9936.1	
586.71	8746.2	
586.91	8529.1	
587.1	9476	
587.29	10538	
587.48	8439.7	
587.67	8340	
587.87	10201	
588.06	10361	
588.25	9524.4	
588.44	8763.9	
588.63	9822.1	
588.83	10340	
589.02	8100.4	
589.21	7968	
589.4	9387.2	
589.59	9258.2	
589.78	7141.9	
589.98	7339.2	
590.17	8884.8	
590.36	9507.4	
590.55	6804	
590.74	7744.1	
590.94	10915	
591.13	9353.1	
591.32	7559.7	
591.51	7030.7	
591.7	9891.7	
591.89	9295	
592.09	7137.9	
592.28	7599.3	
592.47	8605.6	
592.66	10543	
592.85	7170.6	
593.05	7438.9	
593.24	9256.1	
593.43	10036	
593.62	7456	
593.81	8066.3	
594	9292.3	
594.19	9490.3	
594.39	7355.6	
594.58	7275.8	
594.77	9592.7	
594.96	10132	
595.15	7340.6	
595.34	7949.5	
595.54	9540.1	
595.73	8708	
595.92	6732.4	
596.11	7920.2	
596.3	10187	
596.49	8828.1	
596.68	7605.5	
596.88	8172.8	
597.07	9809.1	
597.26	8745.5	
597.45	7146	
597.64	8327	
597.83	8939.4	
598.02	9498.5	
598.22	7232.1	
598.41	7864.9	
598.6	9295.7	
598.79	8781	
598.98	7264.1	
599.17	8312.7	
599.36	9364.7	
599.55	10524	
599.74	9447.3	
599.94	9172.9	
600.13	9962	
600.32	8707.3	
600.51	7148.8	
600.7	7237.5	
600.89	10666	
601.08	10557	
601.27	6978.8	
601.47	8038.3	
601.66	9856.2	
601.85	10573	
602.04	7729	
602.23	8075.8	
602.42	8981	
602.61	9609.8	
602.8	7757.7	
602.99	7425.3	
603.18	9351	
603.37	9651.4	
603.57	8103.1	
603.76	8675.9	
603.95	10322	
604.14	9884.9	
604.33	7542.7	
604.52	7886	
604.71	9601.6	
604.9	9101.2	
605.09	8492.2	
605.28	8346.2	
605.47	10083	
605.66	9822.1	
605.86	8082.6	
606.05	7539.3	
606.24	10107	
606.43	8645.8	
606.62	7769.3	
606.81	8681.3	
607	9967.5	
607.19	9331.9	
607.38	7254.6	
607.57	7576.1	
607.76	9062.3	
607.95	8488.8	
608.14	8061.5	
608.33	8583	
608.52	9089.6	
608.72	9901.9	
608.91	7227.3	
609.1	7135.1	
609.29	9157.2	
609.48	8606.9	
609.67	8128.4	
609.86	7186.3	
610.05	8710	
610.24	9125.1	
610.43	7010.9	
610.62	6652.5	
610.81	10264	
611	10055	
611.19	7195.2	
611.38	7869	
611.57	9351.7	
611.76	10767	
611.95	6981.5	
612.14	6780.1	
612.33	9211.8	
612.52	8683.4	
612.71	7464.2	
612.9	6690.7	
613.09	8335.9	
613.28	10742	
613.47	7215	
613.66	8165.3	
613.85	9354.4	
614.04	8809	
614.24	7298.3	
614.43	6493.4	
614.62	9405	
614.81	9374.9	
615	7888.8	
615.19	7969.3	
615.38	8728.4	
615.57	9113.5	
615.76	7745.4	
615.95	8753.7	
616.14	9493	
616.33	9200.2	
616.52	8030.1	
616.71	8504.5	
616.9	9520.3	
617.09	9347.6	
617.28	7432.8	
617.47	8666.3	
617.66	8643.8	
617.85	8561.2	
618.04	8372.8	
618.22	7877.2	
618.41	8924.4	
618.6	9823.4	
618.79	7819.8	
618.98	7492.2	
619.17	10194	
619.36	8424.7	
619.55	7610.9	
619.74	7615.7	
619.93	9439.1	
620.12	8867.7	
620.31	8292.2	
620.5	8370	
620.69	10023	
620.88	10482	
621.07	9133.3	
621.26	8088.8	
621.45	9624.1	
621.64	9678	
621.83	8241	
622.02	7432.1	
622.21	9669.1	
622.4	9514.2	
622.59	8766.7	
622.78	8566.7	
622.97	9142.8	
623.16	10106	
623.35	8132.5	
623.54	7283.3	
623.72	9262.3	
623.91	9544.2	
624.1	8488.1	
624.29	7117.4	
624.48	10610	
624.67	9697.8	
624.86	8322.3	
625.05	7361.1	
625.24	10648	
625.43	8977.6	
625.62	10015	
625.81	7544	
626	10036	
626.19	9300.5	
626.38	8456.7	
626.56	7813	
626.75	9043.8	
626.94	9856.9	
627.13	8336.6	
627.32	7015	
627.51	9650	
627.7	11091	
627.89	7198.6	
628.08	8329.8	
628.27	8939.4	
628.46	9213.8	
628.65	7486.7	
628.83	7182.2	
629.02	9702.6	
629.21	8995.4	
629.4	7912.7	
629.59	8146.8	
629.78	8980.3	
629.97	9919	
630.16	8204.8	
630.35	7734.5	
630.54	10359	
630.72	10077	
630.91	7561.8	
631.1	8104.5	
631.29	9540.8	
631.48	9641.8	
631.67	8320.2	
631.86	7787.1	
632.05	9161.2	
632.24	9129.8	
632.42	7410.9	
632.61	8047.8	
632.8	9329.2	
632.99	8942.8	
633.18	8083.3	
633.37	8452	
633.56	9591.3	
633.75	9291.6	
633.93	7997.3	
634.12	7675.1	
634.31	10400	
634.5	9990.7	
634.69	7798	
634.88	8368.7	
635.07	9339.4	
635.25	9902.6	
635.44	8680.7	
635.63	8947.6	
635.82	9246.6	
636.01	8717.5	
636.2	8662.2	
636.39	8213	
636.57	10318	
636.76	10060	
636.95	7538.6	
637.14	9024	
637.33	9620	
637.52	10574	
637.7	7385	
637.89	8374.8	
638.08	9187.2	
638.27	10660	
638.46	8350.3	
638.65	8781	
638.83	10682	
639.02	9021.3	
639.21	8215.1	
639.4	8864.3	
639.59	9506	
639.78	9129.8	
639.96	7598	
640.15	7603.4	
640.34	9295.7	
640.53	9587.2	
640.72	7300.3	
640.91	7535.2	
641.09	8828.1	
641.28	10133	
641.47	7561.1	
641.66	8493.6	
641.85	9437	
642.03	9813.2	
642.22	8185.7	
642.41	7682.6	
642.6	8887.5	
642.79	8249.9	
642.97	7500.3	
643.16	8166.6	
643.35	8766	
643.54	8570.7	
643.73	7299	
643.91	8027.4	
644.1	8363.2	
644.29	8924.4	
644.48	7305.1	
644.67	7379.5	
644.85	8534.6	
645.04	8903.2	
645.23	6897.6	
645.42	7202	
645.6	8437.6	
645.79	9640.5	
645.98	7148.8	
646.17	6177.4	
646.36	8105.9	
646.54	8667.7	
646.73	7940	
646.92	6718	
647.11	8321.6	
647.29	9331.9	
647.48	6776.7	
647.67	6451.8	
647.86	9555.8	
648.05	9673.9	
648.23	7124.2	
648.42	8451.3	
648.61	9021.3	
648.8	8812.4	
648.98	6766.5	
649.17	7062.8	
649.36	8380.3	
649.55	7778.9	
649.73	6801.3	
649.92	7514.7	
650.11	8133.8	
650.3	8525	
650.48	6888.7	
650.67	6534.4	
650.86	8777.6	
651.05	7707.2	
651.23	6888.7	
651.42	6822.5	
651.61	8249.9	
651.79	8427.4	
651.98	7133.8	
652.17	6727.6	
652.36	8725	
652.54	7769.3	
652.73	6834.1	
652.92	6541.2	
653.11	8795.3	
653.29	8816.5	
653.48	5913.2	
653.67	6954.9	
653.85	8437.6	
654.04	9458.2	
654.23	7077.8	
654.42	6632	
654.6	7892.9	
654.79	8603.5	
654.98	6090	
655.16	6764.4	
655.35	7480.5	
655.54	7524.9	
655.73	6306.4	
655.91	6169.2	
656.1	8703.9	
656.29	7541.3	
656.47	5812.8	
656.66	7598.6	
656.85	7849.9	
657.03	7835.5	
657.22	6398.5	
657.41	6533.7	
657.59	7891.5	
657.78	7679.2	
657.97	6063.4	
658.16	6886.6	
658.34	8534.6	
658.53	8998.8	
658.72	7697.6	
658.9	8216.5	
659.09	7987.1	
659.28	8172.1	
659.46	6587.6	
659.65	6462	
659.84	7837.6	
660.02	8415.8	
660.21	6386.2	
660.4	6414.2	
660.58	8776.2	
660.77	8196.7	
660.96	6972	
661.14	5942.5	
661.33	9276.6	
661.52	9217.9	
661.7	5907	
661.89	9776.3	
662.08	7728.4	
662.26	7334.5	
662.45	6182.8	
662.64	6414.2	
662.82	8458.1	
663.01	7766.6	
663.2	6370.5	
663.38	7202	
663.57	8408.3	
663.75	8262.9	
663.94	6653.2	
664.13	7997.3	
664.31	7694.2	
664.5	8430.8	
664.69	7190.4	
664.87	7610.9	
665.06	7482.6	
665.25	8269	
665.43	7751.6	
665.62	7829.4	
665.8	8485.4	
665.99	7797.3	
666.18	6733.7	
666.36	6714.6	
666.55	8559.8	
666.74	8424.7	
666.92	6337.8	
667.11	7970	
667.29	7875.1	
667.48	8495.7	
667.67	7694.2	
667.85	6698.2	
668.04	7902.4	
668.22	7889.5	
668.41	6702.3	
668.6	6886.6	
668.78	7653.9	
668.97	7862.2	
669.15	7146	
669.34	6013.5	
669.53	7662.8	
669.71	8025.3	
669.9	6266.1	
670.08	6854.6	
670.27	7632.8	
670.46	8325	
670.64	7161.7	
670.83	7438.2	
671.01	7559.1	
671.2	8176.9	
671.38	6280.4	
671.57	6170.5	
671.76	8782.4	
671.94	9456.2	
672.13	6105.7	
672.31	7214.3	
672.5	8322.9	
672.69	7669	
672.87	6301.6	
673.06	6674.3	
673.24	8196.7	
673.43	7718.1	
673.61	6987	
673.8	6586.3	
673.98	8467	
674.17	8569.4	
674.36	7105.8	
674.54	7045.7	
674.73	8147.5	
674.91	8428.1	
675.1	6765.1	
675.28	6296.8	
675.47	7956.4	
675.65	8515.5	
675.84	6578.8	
676.03	6995.2	
676.21	7692.2	
676.4	7260	
676.58	7450.5	
676.77	7182.9	
676.95	9137.4	
677.14	7694.9	
677.32	6282.5	
677.51	6069.5	
677.69	8482.7	
677.88	7335.1	
678.06	6064.7	
678.25	6182.1	
678.44	7905.8	
678.62	7615	
678.81	5967.1	
678.99	6999.3	
679.18	8744.8	
679.36	8338	
679.55	6567.8	
679.73	7208.2	
679.92	8198.7	
680.1	7660.1	
680.29	7824.6	
680.47	6577.4	
680.66	7686.7	
680.84	8459.5	
681.03	5819.6	
681.21	6921.5	
681.4	7712	
681.58	7511.3	
681.77	6304.3	
681.95	6305	
682.14	8544.8	
682.32	8978.3	
682.51	7232.7	
682.69	5946.6	
682.88	7555	
683.06	8264.9	
683.25	6884.6	
683.43	7410.9	
683.62	7845.1	
683.8	8234.9	
683.99	7334.5	
684.17	6580.1	
684.36	9036.3	
684.54	7572.7	
684.73	5715.2	
684.91	5899.5	
685.1	7881.9	
685.28	7316	
685.46	6478.4	
685.65	6641.6	
685.83	8184.4	
686.02	7580.9	
686.2	6023.1	
686.39	6173.3	
686.57	7204.8	
686.76	8852.7	
686.94	6051.7	
687.13	6246.3	
687.31	8088.1	
687.5	7629.4	
687.68	5721.3	
687.86	6978.1	
688.05	9367.4	
688.23	7128.3	
688.42	7090.1	
688.6	6229.9	
688.79	7590.5	
688.97	7553.6	
689.16	6619	
689.34	5485.8	
689.52	8283.4	
689.71	8514.8	
689.89	6871.6	
690.08	6169.2	
690.26	7851.9	
690.45	7701.7	
690.63	7081.9	
690.81	6309.8	
691	7520.1	
691.18	7412.3	
691.37	6475	
691.55	8755.1	
691.74	7348.8	
691.92	9539.4	
692.1	6559.6	
692.29	5847	
692.47	7637.6	
692.66	6955.6	
692.84	6159.6	
693.02	6779.5	
693.21	7215	
693.39	7689.4	
693.58	6855.2	
693.76	6352.8	
693.94	9024.7	
694.13	8777.6	
694.31	6386.9	
694.5	7449.1	
694.68	7617.8	
694.86	7937.2	
695.05	6704.4	
695.23	7128.3	
695.42	8295	
695.6	10759	
695.78	7337.9	
695.97	6387.6	
696.15	8400.8	
696.34	7746.8	
696.52	6128.2	
696.7	7038.2	
696.89	8112	
697.07	7400	
697.25	6812.9	
697.44	8474.5	
697.62	8045.8	
697.81	8370.7	
697.99	6597.9	
698.17	7079.8	
698.36	7380.2	
698.54	8125.7	
698.72	6979.5	
698.91	5960.3	
699.09	7609.6	
699.28	7589.1	
699.46	6636.1	
699.64	6475.7	
699.83	7496.2	
700.01	8767.4	
700.19	7362.4	
700.38	5791.7	
700.56	8757.1	
700.74	7659.4	
700.93	6103.6	
701.11	7073.7	
701.29	8193.9	
701.48	9365.4	
701.66	6432.7	
701.84	6617	
702.03	7903.8	
702.21	8466.3	
702.39	5993.7	
702.58	6689.3	
702.76	8251.9	
702.94	8385.7	
703.13	6134.3	
703.31	8552.3	
703.49	7529.7	
703.68	8542.1	
703.86	6364.4	
704.04	7260.7	
704.23	8154.3	
704.41	8542.1	
704.59	6480.5	
704.78	7777.5	
704.96	9225.4	
705.14	8601.5	
705.33	6292	
705.51	7122.2	
705.69	8002.1	
705.87	8878.6	
706.06	7479.9	
706.24	6242.9	
706.42	8335.2	
706.61	8599.4	
706.79	7481.2	
706.97	6290.7	
707.16	7846.5	
707.34	8362.5	
707.52	7456	
707.7	6577.4	
707.89	7897	
708.07	7636.2	
708.25	7502.4	
708.44	7613.7	
708.62	7811	
708.8	9011.7	
708.98	7817.1	
709.17	6666.1	
709.35	8413.7	
709.53	8267	
709.72	6289.3	
709.9	6491.4	
710.08	8505.9	
710.26	8692.3	
710.45	7980.9	
710.63	6715.3	
710.81	8214.4	
710.99	8217.1	
711.18	7331	
711.36	6771.9	
711.54	7965.9	
711.72	8731.9	
711.91	6881.2	
712.09	6253.1	
712.27	8150.9	
712.45	9309.4	
712.64	7097.6	
712.82	6002.6	
713	7496.2	
713.18	7591.1	
713.37	6080.4	
713.55	7418.4	
713.73	8380.3	
713.91	6906.4	
714.1	6247	
714.28	5692.7	
714.46	7931.8	
714.64	7066.9	
714.83	5128.1	
715.01	5951.4	
715.19	7105.1	
715.37	6488.6	
715.55	5610.1	
715.74	5909.8	
715.92	8075.1	
716.1	6087.9	
716.28	7003.4	
716.47	6018.3	
716.65	6728.3	
716.83	6818.4	
717.01	5926.8	
717.19	5980.8	
717.38	9012.4	
717.56	6667.5	
717.74	6364.4	
717.92	5405.3	
718.1	7978.9	
718.29	7145.4	
718.47	5231.2	
718.65	5891.3	
718.83	7914	
719.01	7878.5	
719.2	5070.8	
719.38	6219	
719.56	7563.8	
719.74	9040.4	
719.92	5664	
720.11	6851.1	
720.29	7467.6	
720.47	6642.9	
720.65	5096	
720.83	6066.1	
721.02	6908.5	
721.2	6602.7	
721.38	6153.5	
721.56	5350	
721.74	6201.9	
721.92	6391	
722.11	6681.8	
722.29	6347.3	
722.47	7679.2	
722.65	6816.3	
722.83	5395.7	
723.01	6290	
723.2	6940.6	
723.38	7246.4	
723.56	4789.5	
723.74	6041.5	
723.92	6382.8	
724.1	7613.7	
724.29	5337.7	
724.47	6486.6	
724.65	6442.9	
724.83	6408.1	
725.01	5246.9	
725.19	6206	
725.37	6548.7	
725.56	6559.6	
725.74	5137	
725.92	5375.9	
726.1	6410.1	
726.28	6756.9	
726.46	5746.6	
726.64	5534.3	
726.83	6762.4	
727.01	7056.6	
727.19	5105.6	
727.37	5949.3	
727.55	6905.8	
727.73	7326.9	
727.91	5124.7	
728.09	4992.3	
728.28	7532.4	
728.46	8118.1	
728.64	6164.4	
728.82	6102.9	
729	8594	
729.18	7897.7	
729.36	5335	
729.54	7830.1	
729.72	8973.5	
729.91	7281.9	
730.09	7443.7	
730.27	6203.3	
730.45	7217	
730.63	7814.4	
730.81	6803.4	
730.99	5874.3	
731.17	8382.3	
731.35	6905.1	
731.53	6410.8	
731.71	5898.8	
731.9	8135.2	
732.08	8275.8	
732.26	6324.1	
732.44	5909.8	
732.62	8357.1	
732.8	7856.7	
732.98	6644.3	
733.16	5603.2	
733.34	7793.2	
733.52	6626.5	
733.7	6217	
733.88	6544.6	
734.07	7729.7	
734.25	7486.7	
734.43	5665.4	
734.61	7273.7	
734.79	9009	
734.97	7381.6	
735.15	5852.4	
735.33	6242.9	
735.51	7720.8	
735.69	7366.5	
735.87	7569.3	
736.05	6469.5	
736.23	7521.5	
736.41	7377.5	
736.59	6263.4	
736.77	6389	
736.95	8132.5	
737.13	7479.2	
737.32	5926.8	
737.5	6219	
737.68	8669.7	
737.86	7324.2	
738.04	5784.1	
738.22	7635.5	
738.4	7105.1	
738.58	7424.6	
738.76	6443.6	
738.94	5302.2	
739.12	7253.2	
739.3	7105.1	
739.48	7144.7	
739.66	6785.6	
739.84	7658	
740.02	7587	
740.2	5455.8	
740.38	5815.5	
740.56	8018.5	
740.74	6856.6	
740.92	6495.5	
741.1	6421.1	
741.28	7380.2	
741.46	7266.9	
741.64	6010.8	
741.82	6565.1	
742	7493.5	
742.18	7431.4	
742.36	6215.6	
742.54	5773.9	
742.72	8021.2	
742.9	6693.4	
743.08	6615.6	
743.26	5380	
743.44	8213.7	
743.62	8090.8	
743.8	6821.1	
743.98	5835.3	
744.16	7707.9	
744.34	7499.7	
744.52	6634.1	
744.7	6653.9	
744.88	7875.1	
745.06	7368.6	
745.24	6711.2	
745.42	6829.3	
745.6	8060.8	
745.78	7681.9	
745.96	5433.3	
746.14	5828.5	
746.32	8632.2	
746.5	7914.7	
746.68	6348	
746.86	5812.1	
747.03	8445.8	
747.21	6614.9	
747.39	6342.6	
747.57	5835.3	
747.75	7490.1	
747.93	7967.3	
748.11	5814.9	
748.29	5664	
748.47	9115.5	
748.65	7268.2	
748.83	6517.3	
749.01	6298.2	
749.19	7717.4	
749.37	6842.3	
749.55	6108.4	
749.73	6220.4	
749.91	7454.6	
750.09	7062.1	
750.26	6264.1	
750.44	5659.9	
750.62	7367.9	
750.8	7367.2	
750.98	5467.4	
751.16	5825.8	
751.34	7486.7	
751.52	6789	
751.7	6696.2	
751.88	5475.6	
752.06	7980.3	
752.24	7839.6	
752.42	5397.8	
752.59	5779.4	
752.77	7253.9	
752.95	8742.1	
753.13	6528.9	
753.31	5914.5	
753.49	7049.8	
753.67	7517.4	
753.85	6148.7	
754.03	5741.1	
754.21	7701.7	
754.38	7980.9	
754.56	5869.5	
754.74	4899.4	
754.92	6789.7	
755.1	7507.2	
755.28	4713.1	
755.46	4670.7	
755.64	7954.3	
755.82	8005.5	
755.99	4685.8	
756.17	4627	
756.35	5165	
756.53	6725.5	
756.71	3476.1	
756.89	4407.2	
757.07	6410.1	
757.25	5500.8	
757.42	5202.5	
757.6	6135	
757.78	6691.4	
757.96	5613.5	
758.14	4959.5	
758.32	4379.9	
758.5	5164.3	
758.67	6018.3	
758.85	4707.6	
759.03	4799.1	
759.21	6171.2	
759.39	5595.1	
759.57	4298.7	
759.75	5528.2	
759.92	6863.4	
760.1	6074.3	
760.28	5794.4	
760.46	6152.1	
760.64	5982.1	
760.82	5773.2	
760.99	5907.7	
761.17	4954	
761.35	6968.6	
761.53	5886.5	
761.71	5217.5	
761.89	5915.9	
762.06	6853.2	
762.24	6357.6	
762.42	5346.6	
762.6	5055.8	
762.78	6425.8	
762.96	7138.5	
763.13	5816.9	
763.31	5450.3	
763.49	7414.3	
763.67	6382.8	
763.85	6364.4	
764.02	7044.3	
764.2	7642.3	
764.38	6810.9	
764.56	5296	
764.74	6251.1	
764.91	7698.3	
765.09	6554.9	
765.27	5051	
765.45	4789.5	
765.63	7705.8	
765.8	7553.6	
765.98	4487.8	
766.16	4899.4	
766.34	6145.3	
766.52	5891.3	
766.69	5885.2	
766.87	4661.2	
767.05	6455.9	
767.23	7304.4	
767.41	5081.7	
767.58	5305.6	
767.76	7025.9	
767.94	7111.9	
768.12	5092.6	
768.29	5908.4	
768.47	6517.3	
768.65	7313.3	
768.83	4649.6	
769	5863.3	
769.18	6092.7	
769.36	6817.7	
769.54	5834	
769.72	4683	
769.89	7024.5	
770.07	7196.6	
770.25	5025	
770.43	6264.1	
770.6	7848.5	
770.78	8352.3	
770.96	5169.1	
771.14	5847.6	
771.31	6965.1	
771.49	6293.4	
771.67	4335.5	
771.85	4596.3	
772.02	5411.4	
772.2	6314.6	
772.38	5301.5	
772.55	4748.6	
772.73	6480.5	
772.91	6350.8	
773.09	5128.1	
773.26	5268.1	
773.44	6433.4	
773.62	6141.9	
773.8	4607.9	
773.97	4331.5	
774.15	6447	
774.33	6090	
774.5	4564.9	
774.68	4885.8	
774.86	6636.1	
775.04	6114.6	
775.21	4534.2	
775.39	4455	
775.57	6379.4	
775.74	6796.5	
775.92	4420.9	
776.1	4310.3	
776.27	6275	
776.45	7555	
776.63	4533.5	
776.81	4012.7	
776.98	5936.4	
777.16	7096.2	
777.34	4667.3	
777.51	4621.6	
777.69	5870.2	
777.87	5687.2	
778.04	4678.2	
778.22	5259.9	
778.4	5693.4	
778.57	6365.1	
778.75	3919.8	
778.93	4192.2	
779.1	5440.8	
779.28	5356.8	
779.46	3913.7	
779.64	4419.5	
779.81	6453.8	
779.99	7325.6	
780.17	5184.8	
780.34	5369.1	
780.52	5934.3	
780.69	6096.8	
780.87	4668	
781.05	4273.4	
781.22	5964.4	
781.4	5976	
781.58	4371.7	
781.75	3508.2	
781.93	5941.8	
782.11	5333.6	
782.28	5273.5	
782.46	4354	
782.64	5185.5	
782.81	6204	
782.99	4416.8	
783.17	4388.8	
783.34	6032	
783.52	5203.9	
783.69	4632.5	
783.87	5401.9	
784.05	5292.6	
784.22	5291.3	
784.4	5425.1	
784.58	4653	
784.75	6214.9	
784.93	5311.1	
785.1	4323.3	
785.28	4983.4	
785.46	5932.3	
785.63	5264	
785.81	4327.4	
785.99	4145.8	
786.16	5401.9	
786.34	5757.5	
786.51	4143.7	
786.69	4582.7	
786.87	5013.4	
787.04	5590.3	
787.22	3964.9	
787.39	5009.3	
787.57	5199.8	
787.75	6346.7	
787.92	5109.7	
788.1	5137	
788.27	5249.6	
788.45	5074.9	
788.63	4809.3	
788.8	3500	
788.98	5717.9	
789.15	4969.1	
789.33	3593.5	
789.5	4289.1	
789.68	6162.3	
789.86	6310.5	
790.03	4762.9	
790.21	4106.9	
790.38	6146	
790.56	5298.1	
790.73	3977.2	
790.91	3998.3	
791.09	5215.5	
791.26	5976.7	
791.44	4238.6	
791.61	3635.1	
791.79	5189.6	
791.96	5279.7	
792.14	3775.8	
792.32	3271.3	
792.49	5191.6	
792.67	5306.3	
792.84	3859.1	
793.02	3612.6	
793.19	5635.3	
793.37	6392.4	
793.54	3312.9	
793.72	3646.7	
793.89	6587.6	
794.07	5210.7	
794.25	4360.1	
794.42	3435.1	
794.6	6253.8	
794.77	5900.2	
794.95	4586.1	
795.12	4031.8	
795.3	5162.2	
795.47	5773.2	
795.65	4418.2	
795.82	4255	
796	4966.3	
796.17	6967.9	
796.35	4135.5	
796.52	4868.7	
796.7	5681.7	
796.87	5859.9	
797.05	5086.5	
797.22	4959.5	
797.4	5760.9	
797.57	6815.6	
797.75	4210.6	
797.92	3958	
798.1	6117.3	
798.27	5128.1	
798.45	3383.2	
798.62	3690.4	
798.8	5480.4	
798.97	5990.3	
799.15	4519.2	
799.32	4241.3	
799.5	4635.2	
799.67	5560.9	
799.85	4587.4	
800.02	3340.9	
800.2	5088.5	
800.37	5466.7	
800.55	4779.3	
800.72	3941.7	
800.9	5903.6	
801.07	6400.6	
801.25	5286.5	
801.42	4311	
801.6	5974.6	
801.77	5655.1	
801.95	3972.4	
802.12	3846.8	
802.29	5687.2	
802.47	5635.3	
802.64	4317.1	
802.82	3255.6	
802.99	5023.7	
803.17	6103.6	
803.34	4147.1	
803.52	3775.1	
803.69	6787.7	
803.87	4818.9	
804.04	4138.3	
804.21	4265.9	
804.39	6216.3	
804.56	5367	
804.74	3528	
804.91	4437.9	
805.09	5134.9	
805.26	5173.2	
805.44	3635.8	
805.61	3969.6	
805.78	5816.2	
805.96	5851.7	
806.13	4300.7	
806.31	4633.9	
806.48	4622.9	
806.66	5182.7	
806.83	4322.6	
807	4235.2	
807.18	5018.9	
807.35	5524.1	
807.53	4208.6	
807.7	3322.5	
807.87	6361.7	
808.05	5201.2	
808.22	4645.5	
808.4	3336.1	
808.57	5116.5	
808.74	4767	
808.92	3839.9	
809.09	4932.2	
809.27	4990.2	
809.44	5679	
809.61	3346.4	
809.79	3794.9	
809.96	6257.9	
810.14	5859.2	
810.31	3287.7	
810.48	4057	
810.66	5231.2	
810.83	6024.4	
811.01	3811.3	
811.18	4245.4	
811.35	5934.3	
811.53	4601.8	
811.7	4612.7	
811.87	4315.8	
812.05	5145.2	
812.22	5054.4	
812.39	3697.3	
812.57	3547.8	
812.74	5160.2	
812.92	6834.1	
813.09	4014.7	
813.26	4437.9	
813.44	6514.6	
813.61	5102.2	
813.78	3341.6	
813.96	4517.8	
814.13	5173.2	
814.3	4806.6	
814.48	4842.8	
814.65	4017.4	
814.82	6371.9	
815	4932.9	
815.17	4138.9	
815.34	5045.5	
815.52	5037.3	
815.69	5057.8	
815.87	4083	
816.04	3528	
816.21	5157.5	
816.38	4524.6	
816.56	3938.2	
816.73	3642	
816.9	6509.1	
817.08	5903.6	
817.25	3768.3	
817.42	4771.1	
817.6	4698.7	
817.77	5159.5	
817.94	4209.3	
818.12	3669.3	
818.29	4870.1	
818.46	7630.7	
818.64	3860.4	
818.81	3620.8	
818.98	4742.4	
819.16	6995.9	
819.33	4467.3	
819.5	4117.8	
819.67	5507	
819.85	6200.6	
820.02	4131.4	
820.19	4379.9	
820.37	5399.1	
820.54	4938.3	
820.71	4256.4	
820.88	5212.1	
821.06	5434.6	
821.23	4930.8	
821.4	4233.2	
821.58	4126	
821.75	5860.6	
821.92	5291.3	
822.09	3379.8	
822.27	3520.5	
822.44	5109.7	
822.61	5085.8	
822.79	3333.4	
822.96	6516	
823.13	5674.9	
823.3	4865.3	
823.48	3961.5	
823.65	3525.9	
823.82	5898.8	
823.99	4618.9	
824.17	4969.7	
824.34	3565.5	
824.51	6765.8	
824.68	5192.3	
824.86	3713	
825.03	4243.4	
825.2	5060.5	
825.37	6210.8	
825.55	3722.5	
825.72	4176.5	
825.89	6797.9	
826.06	6254.5	
826.24	4006.5	
826.41	4069.3	
826.58	6264.1	
826.75	5466.7	
826.92	3201.7	
827.1	3553.2	
827.27	8490.9	
827.44	6768.5	
827.61	3798.3	
827.79	4708.3	
827.96	4831.2	
828.13	5313.8	
828.3	4037.2	
828.47	3361.4	
828.65	5328.1	
828.82	5337	
828.99	5243.5	
829.16	4570.4	
829.34	5701.5	
829.51	5539.8	
829.68	4191.5	
829.85	4288.4	
830.02	6072.2	
830.2	5781.4	
830.37	3209.2	
830.54	5041.4	
830.71	6642.2	
830.88	5084.4	
831.05	3287.7	
831.23	3807.9	
831.4	6273.6	
831.57	7067.5	
831.74	3829.7	
831.91	3382.6	
832.09	5377.3	
832.26	5745.9	
832.43	3975.1	
832.6	4502.1	
832.77	5366.4	
832.94	6133.7	
833.12	3168.9	
833.29	3934.8	
833.46	4947.2	
833.63	7275.1	
833.8	4323.3	
833.97	4021.5	
834.15	5792.3	
834.32	5585.5	
834.49	4123.9	
834.66	4308.9	
834.83	6015.6	
835	4796.3	
835.17	3878.2	
835.35	3852.2	
835.52	5680.4	
835.69	5582.1	
835.86	4113.7	
836.03	3343.7	
836.2	5706.3	
836.37	5316.5	
836.55	3984.7	
836.72	3749.1	
836.89	5305.6	
837.06	5734.3	
837.23	4056.3	
837.4	4416.1	
837.57	6558.3	
837.75	7266.9	
837.92	3680.2	
838.09	3832.4	
838.26	5276.3	
838.43	6041.5	
838.6	4228.4	
838.77	3690.4	
838.94	6898.9	
839.11	6663.4	
839.29	3970.3	
839.46	3135.4	
839.63	5712.5	
839.8	5438.7	
839.97	3896.6	
840.14	3830.4	
840.31	5455.1	
840.48	5788.9	
840.65	3147	
840.82	3771.7	
841	5736.4	
841.17	5669.5	
841.34	3536.2	
841.51	3627	
841.68	5581.4	
841.85	5490.6	
842.02	3708.2	
842.19	3059	
842.36	5440.8	
842.53	5449	
842.7	3577.1	
842.87	4400.4	
843.05	7187.7	
843.22	5355.4	
843.39	3371.6	
843.56	3729.4	
843.73	5177.9	
843.9	5760.9	
844.07	5786.9	
844.24	4897.4	
844.41	8417.8	
844.58	4982.7	
844.75	3379.8	
844.92	3757.3	
845.09	5776.6	
845.26	5758.9	
845.43	3501.3	
845.6	3750.5	
845.77	5807.4	
845.94	5414.1	
846.12	3962.8	
846.29	4170.3	
846.46	5948.7	
846.63	5737	
846.8	3537.5	
846.97	4258.4	
847.14	6221	
847.31	5684.5	
847.48	4014	
847.65	4373.1	
847.82	6044.2	
847.99	5990.3	
848.16	4733.5	
848.33	4399	
848.5	5283.1	
848.67	6207.4	
848.84	3522.5	
849.01	3672.7	
849.18	5143.1	
849.35	4837.3	
849.52	4390.2	
849.69	3433.1	
849.86	5929.6	
850.03	6180.1	
850.2	3532.7	
850.37	4379.9	
850.54	6179.4	
850.71	5393.7	
850.88	4224.3	
851.05	3444	
851.22	5626.5	
851.39	6249	
851.56	3308.8	
851.73	4014.7	
851.9	4997.7	
852.07	5933.6	
852.24	3948.5	
852.41	3472	
852.58	5628.5	
852.75	5082.4	
852.92	3999.7	
853.09	3415.3	
853.26	5343.2	
853.43	6207.4	
853.6	3547.8	
853.77	2977.7	
853.94	6358.9	
854.11	5694	
854.28	5206.6	
854.44	3843.4	
854.61	6694.8	
854.78	5753.4	
854.95	3529.3	
855.12	4429.8	
855.29	4614.8	
855.46	6414.9	
855.63	3558.7	
855.8	4870.1	
855.97	5289.2	
856.14	6051.1	
856.31	5001.1	
856.48	3844	
856.65	5243.5	
856.82	4984.1	
856.99	3368.9	
857.16	3814.7	
857.33	6984.9	
857.49	5321.3	
857.66	3874.1	
857.83	4083.6	
858	5379.3	
858.17	5468.8	
858.34	3351.2	
858.51	3540.9	
858.68	6510.5	
858.85	6492.1	
859.02	4043.4	
859.19	4385.4	
859.36	4980	
859.52	5100.1	
859.69	3518.4	
859.86	4156.7	
860.03	5076.9	
860.2	6338.5	
860.37	3190.1	
860.54	3579.2	
860.71	5997.8	
860.88	6387.6	
861.05	4000.4	
861.21	4463.2	
861.38	6400.6	
861.55	4876.2	
861.72	3211.2	
861.89	3927.3	
862.06	6048.3	
862.23	6462.7	
862.4	3445.4	
862.56	3700.7	
862.73	5833.3	
862.9	5493.3	
863.07	4171	
863.24	3205.8	
863.41	4911	
863.58	5044.1	
863.75	3625.6	
863.91	4025.6	
864.08	6351.4	
864.25	5901.6	
864.42	4425.7	
864.59	4974.5	
864.76	6662	
864.93	5040.7	
865.09	3433.8	
865.26	3766.9	
865.43	6152.8	
865.6	6668.9	
865.77	3040.6	
865.94	3503.4	
866.1	6264.1	
866.27	6021.7	
866.44	5292	
866.61	3325.2	
866.78	5411.4	
866.95	5873.6	
867.11	3440.6	
867.28	3182.5	
867.45	6030.6	
867.62	5048.2	
867.79	4095.9	
867.96	3488.4	
868.12	5015.5	
868.29	5991.7	
868.46	3538.9	
868.63	4730.8	
868.8	6155.5	
868.97	5881.8	
869.13	3697.3	
869.3	3692.5	
869.47	5825.8	
869.64	6115.9	
869.81	3551.2	
869.97	3547.1	
870.14	5705	
870.31	6376	
870.48	3431.7	
870.65	4486.4	
870.81	5311.7	
870.98	5305.6	
871.15	4032.5	
871.32	3649.5	
871.48	5829.9	
871.65	6543.3	
871.82	3495.2	
871.99	3859.7	
872.16	6902.3	
872.32	6319.3	
872.49	3539.6	
872.66	3571	
872.83	6021.7	
872.99	5211.4	
873.16	4055	
873.33	3547.1	
873.5	5556.1	
873.67	5574.6	
873.83	3706.8	
874	4783.4	
874.17	5681.1	
874.34	6809.5	
874.5	4542.4	
874.67	4392.9	
874.84	6356.9	
875.01	5058.5	
875.17	4914.4	
875.34	3545.7	
875.51	5636	
875.68	6799.9	
875.84	4252.9	
876.01	5195.7	
876.18	5907	
876.34	5855.1	
876.51	3560.1	
876.68	3407.1	
876.85	5365.7	
877.01	6221	
877.18	5032.5	
877.35	3532.7	
877.52	5462.6	
877.68	5006.6	
877.85	3394.2	
878.02	3494.5	
878.18	5505.6	
878.35	5189.6	
878.52	2760	
878.69	3951.2	
878.85	5993.7	
879.02	5896.8	
879.19	5056.4	
879.35	3859.7	
879.52	5926.1	
879.69	6146.6	
879.86	3011.9	
880.02	4031.8	
880.19	5439.4	
880.36	6688.7	
880.52	4062.5	
880.69	4212.7	
880.86	6019	
881.02	6122.1	
881.19	3868.6	
881.36	3825.6	
881.52	5871.5	
881.69	5222.3	
881.86	3796.3	
882.02	3695.2	
882.19	6198.5	
882.36	7310.6	
882.52	3635.8	
882.69	4934.9	
882.86	5653.8	
883.02	5601.9	
883.19	4354.7	
883.36	4080.2	
883.52	6085.2	
883.69	6872.3	
883.86	3507.5	
884.02	3188.7	
884.19	5976	
884.36	5540.4	
884.52	3997.6	
884.69	3628.3	
884.86	5260.5	
885.02	6637.5	
885.19	3935.5	
885.36	4022.9	
885.52	5470.8	
885.69	5635.3	
885.86	5110.4	
886.02	4493.9	
886.19	5972.6	
886.35	5431.2	
886.52	3897.3	
886.69	4920.6	
886.85	5093.3	
887.02	6352.8	
887.19	6352.8	
887.35	6352.8	
887.52	6352.8	
887.68	6352.8	
887.85	6352.8	
888.02	6352.8	
888.18	6352.8	
888.35	6352.8	
888.51	6352.8	
888.68	6352.8	
888.85	6352.8	
889.01	6352.8	
889.18	6352.8	
889.35	6352.8	
889.51	6352.8	
889.68	6352.8	
889.84	6352.8	
890.01	6352.8	
890.17	6352.8	
890.34	6352.8	
890.51	6352.8	
890.67	6352.8	
890.84	6352.8	
891	6352.8	
891.17	6352.8	
891.34	6352.8	
891.5	6352.8	
891.67	6352.8	
891.83	6352.8	
892	6352.8	
892.16	6352.8	
892.33	6352.8	
892.5	6352.8	
892.66	6352.8	
892.83	6352.8	
892.99	6352.8	
893.16	6352.8	
893.32	6352.8	
893.49	6352.8	
893.65	6352.8	
893.82	6352.8	
893.99	6352.8	
894.15	6352.8	
894.32	6352.8	
894.48	6352.8	
894.65	6352.8	
894.81	6352.8	
894.98	6352.8	
895.14	6352.8	
895.31	6352.8	
895.47	6352.8	
895.64	6352.8	
895.81	6352.8	
895.97	6352.8	
896.14	6352.8	
896.3	6352.8	
896.47	6352.8	
896.63	6352.8	
896.8	6352.8	
896.96	6352.8	
897.13	6352.8	
897.29	6352.8	
897.46	6352.8	
897.62	6352.8	
897.79	6352.8	
897.95	6352.8	
898.12	6352.8	
898.28	6352.8	
898.45	6352.8	
898.61	6352.8	
898.78	6352.8	
898.94	6352.8	
899.11	6352.8	
899.27	6352.8	
899.44	6352.8	
899.6	6352.8	
899.77	6352.8	
899.93	6352.8	
900.1	6352.8	
900.26	6352.8	
900.43	6352.8	
900.59	6352.8	
900.76	6352.8	
900.92	6352.8	
901.09	6352.8	
901.25	6352.8	
901.42	6352.8	
901.58	6352.8	
901.75	6352.8	
901.91	6352.8	
902.07	6352.8	
902.24	6352.8	
902.4	6352.8	
902.57	6352.8	
902.73	6352.8	
902.9	6352.8	
903.06	6352.8	
903.23	6352.8	
903.39	6352.8	
903.56	6352.8	
903.72	6352.8	
903.88	6352.8	
904.05	6352.8	
904.21	6352.8	
904.38	6352.8	
904.54	6352.8	
904.71	6352.8	
904.87	6352.8	
905.03	6352.8	
905.2	6352.8	
905.36	6352.8	
905.53	6352.8	
905.69	6352.8	
905.86	6352.8	
906.02	6352.8	
906.18	6352.8	
906.35	6352.8	
906.51	6352.8	
906.68	6352.8	
906.84	6352.8	
907.01	6352.8	
907.17	6352.8	
907.33	6352.8	
907.5	6352.8	
907.66	6352.8	
907.83	6352.8	
907.99	6352.8	
908.15	6352.8	
908.32	6352.8	
908.48	6352.8	
908.65	6352.8	
908.81	6352.8	
908.97	6352.8	
909.14	6352.8	
909.3	6352.8	
909.47	6352.8	
909.63	6352.8	
909.79	6352.8	
909.96	6352.8	
910.12	6352.8	
910.28	6352.8	
910.45	6352.8	
910.61	6352.8	
910.78	6352.8	
910.94	6352.8	
911.1	6352.8	
911.27	6352.8	
911.43	6352.8	
911.59	6352.8	
911.76	6352.8	
911.92	6352.8	
912.08	6352.8	
912.25	6352.8	
912.41	6352.8	
912.57	6352.8	
912.74	6352.8	
912.9	6352.8	
913.07	6352.8	
913.23	6352.8	
913.39	6352.8	
913.56	6352.8	
913.72	6352.8	
913.88	6352.8	
914.05	6352.8	
914.21	6352.8	
914.37	6352.8	
914.54	6352.8	
914.7	6352.8	
914.86	6352.8	
915.03	6352.8	
915.19	6352.8	
