Wavelength	Intensities	
nm	a.u.	
179.22	1874.7	
179.44	1872.2	
179.65	1877.3	
179.86	1867.1	
180.08	1908	
180.29	4883	
180.51	3482.9	
180.72	5655.1	
180.94	6640.9	
181.15	3242.6	
181.37	3181.9	
181.58	5489.2	
181.79	5762.3	
182.01	3395.5	
182.22	3652.9	
182.44	5771.2	
182.65	4843.4	
182.87	4495.3	
183.08	4044.7	
183.29	6088.6	
183.51	4975.9	
183.72	3679.5	
183.94	5384.1	
184.15	5410.1	
184.37	5481	
184.58	3200.3	
184.79	4420.9	
185.01	4975.2	
185.22	5668.1	
185.44	4673.5	
185.65	3867.2	
185.86	5256.5	
186.08	4868	
186.29	3111.5	
186.51	3348.4	
186.72	5055.1	
186.94	5960.3	
187.15	3906.2	
187.36	4004.5	
187.58	7736.5	
187.79	5475.6	
188.01	4201.7	
188.22	6571.9	
188.43	6613.6	
188.65	5737	
188.86	3327.3	
189.08	3987.4	
189.29	5207.3	
189.5	5195	
189.72	3665.2	
189.93	3859.1	
190.15	5919.3	
190.36	7154.2	
190.57	4083	
190.79	3984	
191	6081.8	
191.22	6024.4	
191.43	4128.7	
191.64	3374.4	
191.86	6238.8	
192.07	6032	
192.29	3568.2	
192.5	3783.3	
192.71	6014.9	
192.93	5108.3	
193.14	3683.6	
193.35	3863.2	
193.57	5193	
193.78	6032	
194	2957.9	
194.21	3644.7	
194.42	4937	
194.64	5429.2	
194.85	4042.7	
195.07	4754	
195.28	5458.5	
195.49	4741.7	
195.71	4945.2	
195.92	3420.8	
196.13	5699.5	
196.35	5767.8	
196.56	5283.8	
196.78	4024.3	
196.99	7000.6	
197.2	6600.6	
197.42	4654.4	
197.63	4081.6	
197.84	4846.9	
198.06	5610.8	
198.27	3704.1	
198.48	5060.5	
198.7	5172.5	
198.91	5364.3	
199.13	4061.8	
199.34	4070.7	
199.55	5843.5	
199.77	4696.7	
199.98	3594.2	
200.19	4101.4	
200.41	5319.9	
200.62	5089.2	
200.83	4226.3	
201.05	4534.9	
201.26	5354.1	
201.47	5068.7	
201.69	3599.6	
201.9	3461.1	
202.11	5395.7	
202.33	6434	
202.54	3815.4	
202.76	4313	
202.97	5515.2	
203.18	5511.8	
203.4	4202.4	
203.61	4130.1	
203.82	5438.7	
204.04	5072.8	
204.25	4120.5	
204.46	4029	
204.68	5440.8	
204.89	5631.9	
205.1	3898	
205.32	3466.5	
205.53	5844.9	
205.74	5950	
205.96	2953.9	
206.17	4145.8	
206.38	5761.6	
206.6	5973.9	
206.81	4658.4	
207.02	3809.9	
207.24	5629.9	
207.45	6126.2	
207.66	3790.1	
207.88	3330	
208.09	5593.7	
208.3	5450.3	
208.52	3574.4	
208.73	3861.8	
208.94	5380	
209.15	6153.5	
209.37	3891.8	
209.58	4028.4	
209.79	5922	
210.01	5175.2	
210.22	3091.1	
210.43	3201	
210.65	5372.5	
210.86	5888.6	
211.07	3843.4	
211.29	3579.2	
211.5	5743.2	
211.71	5382.7	
211.93	3551.9	
212.14	3503.4	
212.35	5308.3	
212.56	5586.9	
212.78	4065.9	
212.99	3380.5	
213.2	6439.5	
213.42	5160.2	
213.63	3678.8	
213.84	3944.4	
214.06	4834.6	
214.27	4934.9	
214.48	3861.1	
214.69	4115.7	
214.91	6066.8	
215.12	6178.7	
215.33	4166.9	
215.55	4634.6	
215.76	6658.6	
215.97	5793.7	
216.18	4020.8	
216.4	3896.6	
216.61	5039.4	
216.82	5948.7	
217.04	3540.9	
217.25	3777.8	
217.46	6128.9	
217.67	5828.5	
217.89	3157.3	
218.1	3356.6	
218.31	5537.7	
218.53	5608	
218.74	3766.2	
218.95	3632.4	
219.16	5363.6	
219.38	6350.1	
219.59	3667.2	
219.8	4344.4	
220.01	7030.7	
220.23	5446.9	
220.44	4799.1	
220.65	3503.4	
220.87	5463.3	
221.08	6012.8	
221.29	3245.3	
221.5	4427.7	
221.72	7464.8	
221.93	5129.5	
222.14	4107.5	
222.35	4833.9	
222.57	5416.2	
222.78	5745.9	
222.99	3898	
223.2	4231.1	
223.42	5747.3	
223.63	5885.9	
223.84	2916.3	
224.05	2975.7	
224.27	6963.1	
224.48	6335	
224.69	4795.7	
224.9	4082.3	
225.12	5663.3	
225.33	5373.9	
225.54	3242.6	
225.75	3589.4	
225.97	4962.2	
226.18	5311.1	
226.39	3917.8	
226.6	3687	
226.82	5166.3	
227.03	5028.4	
227.24	4055	
227.45	3388.7	
227.67	5769.1	
227.88	6343.9	
228.09	4558.8	
228.3	4571.1	
228.52	5795.8	
228.73	5354.8	
228.94	3803.1	
229.15	3349.8	
229.36	5330.2	
229.58	5289.2	
229.79	3804.4	
230	4390.2	
230.21	6445.6	
230.43	5491.3	
230.64	4024.9	
230.85	4216.8	
231.06	5784.8	
231.28	5836.7	
231.49	3394.8	
231.7	3930.7	
231.91	5756.8	
232.12	5443.5	
232.34	3437.2	
232.55	3988.8	
232.76	6059.3	
232.97	5627.1	
233.18	3573	
233.4	4000.4	
233.61	5635.3	
233.82	5167	
234.03	3663.8	
234.25	3672.7	
234.46	7558.4	
234.67	5467.4	
234.88	4129.4	
235.09	3665.9	
235.31	5735.7	
235.52	5318.6	
235.73	4017.4	
235.94	3387.3	
236.15	5110.4	
236.37	6570.6	
236.58	3564.1	
236.79	3871.3	
237	5738.4	
237.21	4923.3	
237.43	4187.4	
237.64	3297.2	
237.85	10041	
238.06	4974.5	
238.27	4250.2	
238.48	3446	
238.7	5767.8	
238.91	5259.2	
239.12	3906.2	
239.33	3963.5	
239.54	5237.3	
239.76	5341.1	
239.97	3891.8	
240.18	3848.8	
240.39	6802.7	
240.6	5668.1	
240.82	3977.2	
241.03	3332	
241.24	5459.2	
241.45	6255.2	
241.66	3543.7	
241.87	4233.8	
242.09	6157.6	
242.3	6498.9	
242.51	4250.9	
242.72	3917.1	
242.93	5851	
243.14	5365	
243.36	4496	
243.57	4912.4	
243.78	6292	
243.99	5805.3	
244.2	3926	
244.41	3561.4	
244.63	4973.2	
244.84	5702.9	
245.05	4201.1	
245.26	3908.2	
245.47	5689.9	
245.68	5963.7	
245.9	5139.7	
246.11	4114.4	
246.32	5258.5	
246.53	5681.7	
246.74	6322.1	
246.95	3295.9	
247.16	4877.6	
247.38	5446.2	
247.59	3265.8	
247.8	3933.5	
248.01	5070.8	
248.22	5377.3	
248.43	3581.2	
248.64	3822.2	
248.86	4788.8	
249.07	5165.7	
249.28	3429.7	
249.49	4042.7	
249.7	5986.2	
249.91	6122.1	
250.12	3330.7	
250.34	3300	
250.55	5487.9	
250.76	5452.4	
250.97	4021.5	
251.18	4033.8	
251.39	6161.7	
251.6	5644.9	
251.81	4132.8	
252.03	4147.1	
252.24	5096.7	
252.45	5977.3	
252.66	3367.5	
252.87	4278.9	
253.08	5432.6	
253.29	7147.4	
253.5	3374.4	
253.72	4762.2	
253.93	5253	
254.14	6490.7	
254.35	3678.8	
254.56	3816	
254.77	5719.3	
254.98	5035.3	
255.19	3668.6	
255.41	4754	
255.62	5503.6	
255.83	6077	
256.04	4235.9	
256.25	4076.8	
256.46	6722.1	
256.67	5102.2	
256.88	4017.4	
257.09	4465.3	
257.31	5104.9	
257.52	5105.6	
257.73	5079	
257.94	3691.1	
258.15	5307	
258.36	5423.7	
258.57	4696	
258.78	2977.1	
258.99	5928.2	
259.2	5224.4	
259.41	3762.8	
259.63	3792.2	
259.84	6275	
260.05	6711.2	
260.26	4870.1	
260.47	3553.9	
260.68	5984.2	
260.89	5315.8	
261.1	4517.1	
261.31	3546.4	
261.52	6006.7	
261.73	6361	
261.95	4765.6	
262.16	4255	
262.37	6208.1	
262.58	6257.2	
262.79	4833.9	
263	3808.5	
263.21	5406.6	
263.42	4958.1	
263.63	3844.7	
263.84	3831.7	
264.05	5980.8	
264.26	6369.9	
264.47	4645.5	
264.69	4234.5	
264.9	6106.4	
265.11	5623.7	
265.32	3609.2	
265.53	3704.1	
265.74	5548.6	
265.95	4810.7	
266.16	4012	
266.37	4442	
266.58	5507.7	
266.79	5202.5	
267	3741.6	
267.21	3394.2	
267.42	4975.2	
267.63	5460.6	
267.84	3855	
268.06	3377.1	
268.27	5868.8	
268.48	6163.7	
268.69	3809.9	
268.9	4552.6	
269.11	6124.1	
269.32	4920.6	
269.53	3933.5	
269.74	3583.9	
269.95	5785.5	
270.16	4801.8	
270.37	3980.6	
270.58	4455	
270.79	5252.4	
271	5984.2	
271.21	4181.3	
271.42	3918.4	
271.63	5534.3	
271.84	5059.8	
272.05	3111.5	
272.26	3506.8	
272.47	5473.5	
272.68	5623.7	
272.89	3716.4	
273.11	4317.1	
273.32	5230.5	
273.53	6403.3	
273.74	4198.3	
273.95	4108.2	
274.16	6083.1	
274.37	5429.8	
274.58	4356	
274.79	3441.3	
275	5519.3	
275.21	6157.6	
275.42	5074.2	
275.63	4446.1	
275.84	5692	
276.05	7191.8	
276.26	4118.5	
276.47	3831.7	
276.68	5231.9	
276.89	6428.6	
277.1	4457.7	
277.31	3488.4	
277.52	5698.8	
277.73	5820.3	
277.94	3392.1	
278.15	3779.2	
278.36	5601.2	
278.57	5117.2	
278.78	3774.4	
278.99	4259.1	
279.2	5034.6	
279.41	5003.2	
279.62	4941.1	
279.83	3469.9	
280.04	6655.9	
280.25	4886.5	
280.46	4911.7	
280.67	3954.6	
280.88	5072.8	
281.09	6140.5	
281.3	4168.3	
281.51	5248.9	
281.72	5201.2	
281.93	5948.7	
282.14	3671.3	
282.35	3973.1	
282.56	5969.1	
282.77	5893.4	
282.98	3809.9	
283.19	4606.6	
283.4	7283.9	
283.61	5406.6	
283.82	3358.7	
284.03	4858.5	
284.24	5509	
284.45	6152.1	
284.66	4855.7	
284.87	4586.1	
285.08	6033.3	
285.29	6098.9	
285.5	3315	
285.71	3893.9	
285.92	6025.8	
286.12	6670.2	
286.33	4810.7	
286.54	3781.2	
286.75	5862	
286.96	5314.5	
287.17	3540.3	
287.38	4766.3	
287.59	5037.3	
287.8	5014.1	
288.01	3820.8	
288.22	4436.6	
288.43	5956.2	
288.64	4999.1	
288.85	4526	
289.06	4322.6	
289.27	6245.6	
289.48	6334.4	
289.69	4857.8	
289.9	4406.5	
290.11	6084.5	
290.32	5106.3	
290.53	4648.9	
290.74	4311.7	
290.94	5873.6	
291.15	5928.9	
291.36	3695.9	
291.57	4385.4	
291.78	5150.6	
291.99	4816.1	
292.2	3543.7	
292.41	4205.8	
292.62	5976.7	
292.83	5732.3	
293.04	5244.8	
293.25	3522.5	
293.46	5197.1	
293.67	6040.8	
293.88	3605.1	
294.09	3511.6	
294.29	4980	
294.5	5558.9	
294.71	3917.8	
294.92	3766.9	
295.13	5282.4	
295.34	6509.1	
295.55	3248.1	
295.76	3387.3	
295.97	5771.9	
296.18	6656.6	
296.39	3495.2	
296.6	3680.9	
296.81	5569.8	
297.01	5913.2	
297.22	3801	
297.43	3642	
297.64	5098.1	
297.85	5076.2	
298.06	3019.4	
298.27	3260.4	
298.48	5474.2	
298.69	5181.4	
298.9	3928	
299.11	3582.6	
299.31	4951.3	
299.52	4941.1	
299.73	4229.7	
299.94	4202.4	
300.15	5427.8	
300.36	5098.8	
300.57	4185.4	
300.78	4182	
300.99	5391.6	
301.2	5550.7	
301.4	3659	
301.61	3956	
301.82	5765	
302.03	5866.7	
302.24	4440.7	
302.45	3502	
302.66	5686.5	
302.87	6172.6	
303.08	3682.2	
303.29	5032.5	
303.49	5242.1	
303.7	5479	
303.91	3273.3	
304.12	4754	
304.33	4889.2	
304.54	5565.7	
304.75	3710.2	
304.96	3515	
305.16	5812.8	
305.37	6519.4	
305.58	3199.6	
305.79	3261.7	
306	5754.8	
306.21	4858.5	
306.42	3670.6	
306.63	5638.7	
306.83	5268.7	
307.04	6023.1	
307.25	4072.7	
307.46	4014.7	
307.67	4674.8	
307.88	5900.2	
308.09	3612.6	
308.29	3745.1	
308.5	5504.9	
308.71	6070.9	
308.92	3906.2	
309.13	3538.9	
309.34	5386.8	
309.55	5349.3	
309.75	4521.9	
309.96	4204.5	
310.17	5882.4	
310.38	5107.6	
310.59	4427.7	
310.8	4179.9	
311.01	5283.8	
311.21	5289.2	
311.42	3474	
311.63	3561.4	
311.84	5152	
312.05	5603.2	
312.26	4085	
312.46	4518.5	
312.67	5319.3	
312.88	4947.2	
313.09	3548.4	
313.3	3523.9	
313.51	6272.2	
313.71	6593.8	
313.92	3520.5	
314.13	3753.9	
314.34	5546.6	
314.55	5339.1	
314.76	4534.9	
314.96	3991.5	
315.17	5547.3	
315.38	5890	
315.59	3469.9	
315.8	3407.1	
316.01	6348.7	
316.21	6374	
316.42	3445.4	
316.63	3931.4	
316.84	5315.2	
317.05	6162.3	
317.26	4186.7	
317.46	3758	
317.67	5408.7	
317.88	5843.5	
318.09	4478.9	
318.3	3279.5	
318.5	5160.9	
318.71	5756.8	
318.92	5756.2	
319.13	4186.7	
319.34	5970.5	
319.54	6120.7	
319.75	3300	
319.96	3125.2	
320.17	5844.9	
320.38	5957.5	
320.58	3214.6	
320.79	3880.9	
321	6041.5	
321.21	6217.6	
321.42	3902.7	
321.62	3228.3	
321.83	5040.7	
322.04	5473.5	
322.25	3777.1	
322.46	3581.2	
322.66	5609.4	
322.87	5694.7	
323.08	4406.5	
323.29	3480.9	
323.5	6483.2	
323.7	4968.4	
323.91	4818.9	
324.12	4343.1	
324.33	5488.6	
324.53	5751.4	
324.74	4169.7	
324.95	4375.8	
325.16	4853	
325.37	5225.1	
325.57	3561.4	
325.78	3596.9	
325.99	5479.7	
326.2	4954.7	
326.4	5221.6	
326.61	3284.9	
326.82	5352	
327.03	5578.7	
327.24	5050.3	
327.44	4805.9	
327.65	5690.6	
327.86	4644.8	
328.07	4211.3	
328.27	3410.6	
328.48	6128.2	
328.69	4987.5	
328.9	5160.9	
329.1	3811.3	
329.31	5287.2	
329.52	6261.3	
329.73	3527.3	
329.93	3958.7	
330.14	5366.4	
330.35	5655.8	
330.56	5881.1	
330.76	4387.4	
330.97	5265.3	
331.18	5648.3	
331.39	3984.7	
331.59	3254.9	
331.8	6041.5	
332.01	6181.5	
332.22	3654.3	
332.42	4217.5	
332.63	5526.1	
332.84	5138.4	
333.05	3952.6	
333.25	3627.6	
333.46	5223.7	
333.67	5404.6	
333.88	3706.1	
334.08	4195.6	
334.29	7242.3	
334.5	6149.4	
334.7	3464.5	
334.91	5065.3	
335.12	5068	
335.33	5892	
335.53	3893.9	
335.74	5895.4	
335.95	5199.8	
336.16	5076.2	
336.36	3943.7	
336.57	4557.4	
336.78	4939.7	
336.98	5982.1	
337.19	4855.7	
337.4	3919.8	
337.61	6561	
337.81	5007.3	
338.02	3619.4	
338.23	4712.4	
338.43	6225.8	
338.64	5051.7	
338.85	3561.4	
339.05	4703.5	
339.26	6311.8	
339.47	4863.9	
339.68	3553.2	
339.88	5279.7	
340.09	5706.3	
340.3	5952.1	
340.5	4176.5	
340.71	3153.9	
340.92	4927.4	
341.13	6178.7	
341.33	3500.7	
341.54	4217.5	
341.75	5685.8	
341.95	5291.3	
342.16	4023.6	
342.37	4298.7	
342.57	5047.6	
342.78	5395	
342.99	4475.5	
343.19	3233.7	
343.4	5817.6	
343.61	5765	
343.81	3801.7	
344.02	3506.8	
344.23	5889.3	
344.43	6296.1	
344.64	4444.8	
344.85	4332.1	
345.06	5695.4	
345.26	6029.9	
345.47	4145.1	
345.68	4835.9	
345.88	4798.4	
346.09	5917.3	
346.3	4152.6	
346.5	3181.2	
346.71	5403.9	
346.92	5153.4	
347.12	3269.2	
347.33	4099.4	
347.54	5963	
347.74	6420.4	
347.95	4057	
348.16	3053.5	
348.36	5265.3	
348.57	4891.2	
348.78	3992.2	
348.98	4372.4	
349.19	5418.9	
349.39	4908.3	
349.6	3220.1	
349.81	3641.3	
350.01	5729.5	
350.22	5119.9	
350.43	3917.1	
350.63	4803.2	
350.84	5528.2	
351.05	5169.1	
351.25	3591.5	
351.46	3249.4	
351.67	5979.4	
351.87	5124	
352.08	3831.1	
352.29	4338.3	
352.49	5900.2	
352.7	6023.1	
352.9	3447.4	
353.11	4358.1	
353.32	6553.5	
353.52	5236	
353.73	3414.6	
353.94	4345.8	
354.14	5664	
354.35	5581.4	
354.55	3492.5	
354.76	3927.3	
354.97	5698.8	
355.17	5484.5	
355.38	3284.3	
355.59	4670.1	
355.79	5128.1	
356	5560.2	
356.2	3867.9	
356.41	3417.4	
356.62	4829.8	
356.82	5350	
357.03	4124.6	
357.24	3743	
357.44	5089.2	
357.65	5190.2	
357.85	5017.5	
358.06	3889.8	
358.27	4812.7	
358.47	5032.5	
358.68	3268.6	
358.88	4129.4	
359.09	5586.9	
359.3	5976.7	
359.5	4855.7	
359.71	4237.9	
359.91	6419.7	
360.12	5801.2	
360.33	4065.2	
360.53	4562.2	
360.74	5068	
360.94	5152.7	
361.15	4319.2	
361.36	3566.9	
361.56	5826.5	
361.77	5266	
361.97	4794.3	
362.18	3721.8	
362.38	5895.4	
362.59	4878.3	
362.8	3422.8	
363	3318.4	
363.21	4717.8	
363.41	5388.2	
363.62	3926	
363.83	5037.3	
364.03	5435.3	
364.24	6531.7	
364.44	5096	
364.65	5029.8	
364.85	5197.7	
365.06	5081.7	
365.27	3568.9	
365.47	3643.3	
365.68	6173.3	
365.88	5165.7	
366.09	3953.3	
366.29	3758	
366.5	5427.8	
366.71	5874.3	
366.91	5003.2	
367.12	4209.9	
367.32	6513.2	
367.53	5735.7	
367.73	4115.7	
367.94	5069.4	
368.14	5637.4	
368.35	6610.2	
368.56	4143	
368.76	3445.4	
368.97	5778.7	
369.17	7450.5	
369.38	3629	
369.58	3887.7	
369.79	4809.3	
369.99	6117.3	
370.2	4912.4	
370.4	3925.3	
370.61	5543.2	
370.82	6689.3	
371.02	3866.6	
371.23	3162.7	
371.43	4678.2	
371.64	6053.8	
371.84	3882.3	
372.05	5058.5	
372.25	7352.2	
372.46	5778	
372.66	3876.8	
372.87	3788.7	
373.07	5770.5	
373.28	7414.3	
373.48	4810.7	
373.69	4526	
373.9	5263.3	
374.1	5282.4	
374.31	4704.9	
374.51	4308.9	
374.72	6034.7	
374.92	4881	
375.13	4878.9	
375.33	4077.5	
375.54	5616.2	
375.74	5048.9	
375.95	4178.5	
376.15	5367.7	
376.36	5591.6	
376.56	5464.7	
376.77	4187.4	
376.97	4626.4	
377.18	6576	
377.38	5681.1	
377.59	4951.3	
377.79	3652.9	
378	5399.1	
378.2	5900.2	
378.41	3708.9	
378.61	3599.6	
378.82	5878.4	
379.02	4984.1	
379.23	3825.6	
379.43	4978.6	
379.64	6040.8	
379.84	5637.4	
380.05	3687	
380.25	3658.4	
380.46	5736.4	
380.66	5300.8	
380.87	5040.7	
381.07	5423.7	
381.28	6403.3	
381.48	5698.1	
381.69	3702	
381.89	3749.1	
382.1	4704.2	
382.3	5869.5	
382.51	4876.9	
382.71	5762.3	
382.91	5814.9	
383.12	6277.7	
383.32	4152.6	
383.53	4288.4	
383.73	5580	
383.94	5397.8	
384.14	4219.5	
384.35	3370.3	
384.55	5384.1	
384.76	5856.5	
384.96	4126.7	
385.17	4415.4	
385.37	5763.7	
385.58	5063.3	
385.78	4491.9	
385.98	3364.8	
386.19	5230.5	
386.39	5675.6	
386.6	3885.7	
386.8	4160.1	
387.01	5776	
387.21	5802.6	
387.42	4535.6	
387.62	5071.5	
387.83	5061.2	
388.03	5683.1	
388.23	4104.8	
388.44	4948.6	
388.64	4713.7	
388.85	4800.4	
389.05	4493.9	
389.26	5042.1	
389.46	6723.5	
389.67	6086.6	
389.87	4393.6	
390.07	4529.4	
390.28	5356.8	
390.48	4900.8	
390.69	3663.8	
390.89	3981.9	
391.1	5068.7	
391.3	6120.7	
391.5	5201.2	
391.71	5786.2	
391.91	5707	
392.12	6761.7	
392.32	5273.5	
392.53	4498	
392.73	5214.8	
392.93	5340.4	
393.14	4150.5	
393.34	5023	
393.55	5784.8	
393.75	5353.4	
393.95	4202.4	
394.16	4137.6	
394.36	5093.3	
394.57	5815.5	
394.77	3599	
394.98	4093.2	
395.18	5010.7	
395.38	5175.2	
395.59	4942.4	
395.79	3812	
396	5195.7	
396.2	5642.8	
396.4	4767	
396.61	4558.1	
396.81	5845.6	
397.02	5057.1	
397.22	4857.8	
397.42	4968.4	
397.63	5773.2	
397.83	4938.3	
398.04	3755.3	
398.24	4228.4	
398.44	5558.2	
398.65	4607.2	
398.85	3550.5	
399.05	3685.7	
399.26	4908.3	
399.46	6647.7	
399.67	4079.6	
399.87	3792.8	
400.07	5344.5	
400.28	5612.1	
400.48	3860.4	
400.69	4940.4	
400.89	5849.7	
401.09	6296.8	
401.3	3683.6	
401.5	4902.2	
401.7	6525.5	
401.91	6774.7	
402.11	4107.5	
402.32	4386.1	
402.52	5826.5	
402.72	5753.4	
402.93	4517.8	
403.13	3345	
403.33	6683.9	
403.54	5417.6	
403.74	4274.8	
403.94	5199.8	
404.15	5504.3	
404.35	6658.6	
404.56	4033.8	
404.76	5958.9	
404.96	5905.7	
405.17	5667.4	
405.37	5360.2	
405.57	4503.5	
405.78	5906.3	
405.98	5405.3	
406.18	4011.3	
406.39	4932.2	
406.59	5816.9	
406.79	5515.2	
407	3806.5	
407.2	3901.4	
407.4	5913.9	
407.61	6051.1	
407.81	3865.2	
408.01	5665.4	
408.22	4857.1	
408.42	6862.1	
408.62	4869.4	
408.83	4287.1	
409.03	5358.9	
409.23	5133.6	
409.44	4358.8	
409.64	4672.8	
409.84	6204.7	
410.05	6072.2	
410.25	4435.9	
410.45	4207.2	
410.66	5471.5	
410.86	7978.9	
411.06	4558.8	
411.27	4473.4	
411.47	7696.3	
411.67	5673.6	
411.88	4648.9	
412.08	4882.4	
412.28	6217	
412.49	6764.4	
412.69	4360.1	
412.89	4380.6	
413.09	6570.6	
413.3	6397.2	
413.5	4466.6	
413.7	4057	
413.91	5657.9	
414.11	6608.1	
414.31	4280.3	
414.52	4691.2	
414.72	6154.8	
414.92	6038.8	
415.12	4263.9	
415.33	4749.9	
415.53	6442.9	
415.73	6645	
415.94	5147.9	
416.14	4615.4	
416.34	5410.1	
416.55	5233.9	
416.75	5863.3	
416.95	5214.8	
417.15	6371.9	
417.36	7145.4	
417.56	5964.4	
417.76	4975.2	
417.97	6802	
418.17	6465.4	
418.37	4479.6	
418.57	4633.9	
418.78	6184.9	
418.98	5901.6	
419.18	5439.4	
419.38	5511.8	
419.59	5966.4	
419.79	5578.7	
419.99	4513.7	
420.2	4876.2	
420.4	6453.1	
420.6	6705	
420.8	4377.2	
421.01	4280.9	
421.21	6199.9	
421.41	6475	
421.61	4859.1	
421.82	4434.5	
422.02	5793.7	
422.22	6733.7	
422.42	5352	
422.63	4987.5	
422.83	5930.9	
423.03	7091.4	
423.23	5096.7	
423.44	3969	
423.64	5967.1	
423.84	5771.9	
424.04	4465.9	
424.25	4078.2	
424.45	7004.1	
424.65	6912.6	
424.85	3921.9	
425.06	4530.1	
425.26	6931	
425.46	5930.9	
425.66	5044.8	
425.87	4635.9	
426.07	6665.5	
426.27	6592.4	
426.47	4893.3	
426.67	4226.3	
426.88	7111.2	
427.08	6491.4	
427.28	5056.4	
427.48	4140.3	
427.69	5424.4	
427.89	6137.1	
428.09	5139	
428.29	4266.6	
428.5	6772.6	
428.7	6257.9	
428.9	4120.5	
429.1	4654.4	
429.3	6201.2	
429.51	6613.6	
429.71	4444.1	
429.91	5198.4	
430.11	6443.6	
430.31	6718.7	
430.52	4683.7	
430.72	4987.5	
430.92	7011.6	
431.12	6484.6	
431.32	4324.6	
431.53	4807.9	
431.73	5386.8	
431.93	7124.2	
432.13	4265.9	
432.33	4153.3	
432.54	5803.3	
432.74	6176.7	
432.94	4075.5	
433.14	5151.3	
433.34	6401.3	
433.55	5808	
433.75	5029.8	
433.95	6774	
434.15	6142.5	
434.35	5806	
434.56	4255.7	
434.76	3704.1	
434.96	6031.3	
435.16	6340.5	
435.36	4075.5	
435.56	5257.8	
435.77	5672.9	
435.97	5924.1	
436.17	5881.1	
436.37	5168.4	
436.57	5735	
436.78	5554.1	
436.98	6979.5	
437.18	5723.4	
437.38	6296.1	
437.58	5899.5	
437.78	5881.1	
437.99	4489.1	
438.19	6439.5	
438.39	7247.1	
438.59	4477.5	
438.79	3980.6	
438.99	7044.3	
439.2	5939.1	
439.4	4121.9	
439.6	4020.2	
439.8	6247	
440	7296.9	
440.2	5089.2	
440.4	5186.1	
440.61	6525.5	
440.81	7042.3	
441.01	4246.1	
441.21	5044.8	
441.41	6894.1	
441.61	6568.5	
441.81	5304.9	
442.02	6452.5	
442.22	7411.6	
442.42	6668.2	
442.62	4222.2	
442.82	4314.4	
443.02	6886.6	
443.22	6012.2	
443.43	4704.9	
443.63	4250.2	
443.83	5897.5	
444.03	5867.4	
444.23	5423.7	
444.43	5033.2	
444.63	6187.6	
444.83	7388.4	
445.04	4349.2	
445.24	5658.5	
445.44	6525.5	
445.64	6619	
445.84	5129.5	
446.04	5177.3	
446.24	5939.8	
446.44	6942.6	
446.65	4370.4	
446.85	4739.7	
447.05	6314.6	
447.25	6922.8	
447.45	4854.4	
447.65	4222.9	
447.85	6290	
448.05	5922.7	
448.25	5259.9	
448.46	5026.4	
448.66	6281.8	
448.86	5991	
449.06	4089.8	
449.26	5252.4	
449.46	6597.9	
449.66	5681.1	
449.86	4728.8	
450.06	4702.1	
450.26	5863.3	
450.47	6412.2	
450.67	5023.7	
450.87	5310.4	
451.07	6441.5	
451.27	6314.6	
451.47	4328	
451.67	4831.2	
451.87	5868.8	
452.07	7115.3	
452.27	4478.9	
452.47	4530.8	
452.67	6275.7	
452.88	6853.9	
453.08	3887	
453.28	5931.6	
453.48	7471	
453.68	6226.5	
453.88	4376.5	
454.08	4681.7	
454.28	6542.6	
454.48	6199.2	
454.68	5214.8	
454.88	5734.3	
455.08	6627.9	
455.28	6356.2	
455.48	4287.8	
455.68	4826.4	
455.89	7092.1	
456.09	6753.5	
456.29	4629.8	
456.49	4608.6	
456.69	6909.8	
456.89	6140.5	
457.09	5147.9	
457.29	5465.3	
457.49	6420.4	
457.69	6575.3	
457.89	4870.1	
458.09	4290.5	
458.29	6294.1	
458.49	6910.5	
458.69	5274.2	
458.89	4678.2	
459.09	7150.1	
459.29	7258	
459.49	4826.4	
459.69	5569.8	
459.9	6742.6	
460.1	6210.1	
460.3	4778.6	
460.5	4560.8	
460.7	6677.1	
460.9	6397.9	
461.1	4101.4	
461.3	5457.2	
461.5	7230	
461.7	6908.5	
461.9	4450.9	
462.1	5018.2	
462.3	6279.8	
462.5	6925.5	
462.7	4540.3	
462.9	4609.3	
463.1	7962.5	
463.3	7496.9	
463.5	4767	
463.7	5660.6	
463.9	6436.1	
464.1	6819.1	
464.3	4823.6	
464.5	5095.3	
464.7	7124.2	
464.9	6651.8	
465.1	6475	
465.3	5448.3	
465.5	7533.8	
465.7	7411.6	
465.9	5665.4	
466.1	5570.5	
466.3	7103	
466.5	6991.8	
466.7	6389	
466.9	5262.6	
467.1	6913.3	
467.3	7886.7	
467.5	6245.6	
467.7	5053.7	
467.9	8082.6	
468.1	8968.1	
468.3	5965.7	
468.5	6357.6	
468.7	6844.3	
468.9	6797.2	
469.1	5368.4	
469.3	6114.6	
469.5	8860.2	
469.7	6384.2	
469.9	5986.9	
470.1	5098.1	
470.3	6846.4	
470.5	6834.1	
470.7	6399.2	
470.9	5188.2	
471.1	6588.3	
471.3	7170.6	
471.5	5031.2	
471.69	7061.4	
471.89	6535.1	
472.09	6101.6	
472.29	5889.3	
472.49	6355.5	
472.69	6341.2	
472.89	7105.8	
473.09	4939	
473.29	5216.9	
473.49	6511.2	
473.69	6745.3	
473.89	6129.6	
474.09	5324	
474.29	7940.7	
474.49	7667.6	
474.69	6087.2	
474.89	5507.7	
475.09	6763.1	
475.29	6565.8	
475.49	4961.5	
475.69	5099.4	
475.88	8371.4	
476.08	6957.6	
476.28	4801.1	
476.48	5429.8	
476.68	7513.3	
476.88	7299	
477.08	5167.7	
477.28	5530.9	
477.48	6839.5	
477.68	7570.7	
477.88	4939	
478.08	5346.6	
478.28	7735.2	
478.48	6964.5	
478.67	5384.1	
478.87	4771.1	
479.07	7610.9	
479.27	6987.7	
479.47	5657.9	
479.67	5587.5	
479.87	7440.3	
480.07	7959.8	
480.27	4824.3	
480.47	6479.8	
480.67	7152.9	
480.87	7733.1	
481.06	5141.1	
481.26	5915.2	
481.46	7051.8	
481.66	6920.8	
481.86	5484.5	
482.06	6670.9	
482.26	6724.8	
482.46	7716.7	
482.66	5577.3	
482.86	5094	
483.05	7071	
483.25	6569.2	
483.45	7980.9	
483.65	5561.6	
483.85	6641.6	
484.05	6950.8	
484.25	5984.8	
484.45	6423.8	
484.65	7804.1	
484.84	7774.1	
485.04	5425.1	
485.24	5378	
485.44	8047.8	
485.64	6322.8	
485.84	4649.6	
486.04	6134.3	
486.24	6707.8	
486.44	7180.2	
486.63	4659.8	
486.83	5428.5	
487.03	6570.6	
487.23	6808.1	
487.43	4696.7	
487.63	7139.9	
487.83	6839.5	
488.02	7905.8	
488.22	5651	
488.42	6285.9	
488.62	7832.1	
488.82	6676.4	
489.02	5399.1	
489.22	5371.8	
489.41	7580.9	
489.61	7200	
489.81	5085.1	
490.01	5106.3	
490.21	7458	
490.41	8148.9	
490.61	5100.1	
490.8	5249.6	
491	6898.9	
491.2	6334.4	
491.4	5933	
491.6	4977.2	
491.8	7083.2	
491.99	7200.7	
492.19	4915.8	
492.39	5172.5	
492.59	7636.2	
492.79	7642.3	
492.99	6017.6	
493.18	5068	
493.38	7598.6	
493.58	8256.7	
493.78	5771.2	
493.98	5399.1	
494.18	7301.7	
494.37	6742.6	
494.57	5991.7	
494.77	5788.2	
494.97	7404.1	
495.17	7630.7	
495.37	5337.7	
495.56	5735.7	
495.76	7791.8	
495.96	7445.7	
496.16	6559	
496.36	5468.1	
496.55	7667.6	
496.75	7136.5	
496.95	5933.6	
497.15	5718.6	
497.35	7693.5	
497.54	7578.2	
497.74	5571.2	
497.94	7320.8	
498.14	8306.6	
498.34	8152.3	
498.53	5199.1	
498.73	6066.1	
498.93	6924.9	
499.13	7507.9	
499.33	5748	
499.52	6337.8	
499.72	7462.1	
499.92	7881.9	
500.12	5474.9	
500.32	5775.3	
500.51	7818.5	
500.71	7514	
500.91	6572.6	
501.11	6161	
501.31	7692.9	
501.5	8157.1	
501.7	6863.4	
501.9	5773.9	
502.1	7489.4	
502.29	7810.3	
502.49	6242.9	
502.69	6783.6	
502.89	7808.2	
503.09	7752.2	
503.28	5223	
503.48	5408	
503.68	7009.5	
503.88	7039.6	
504.07	6467.5	
504.27	5939.8	
504.47	7410.9	
504.67	7538.6	
504.86	6343.9	
505.06	6035.4	
505.26	7023.2	
505.46	8994.7	
505.65	5947.3	
505.85	6203.3	
506.05	7105.1	
506.25	7585.7	
506.44	5332.9	
506.64	6283.2	
506.84	6991.8	
507.04	7941.3	
507.23	5558.9	
507.43	6154.1	
507.63	9028.8	
507.83	7273.7	
508.02	6135.7	
508.22	5778.7	
508.42	9319.6	
508.62	6998.6	
508.81	6001.9	
509.01	6577.4	
509.21	6950.1	
509.4	7189.1	
509.6	6215.6	
509.8	5596.4	
510	7206.1	
510.19	8686.8	
510.39	5555.5	
510.59	5668.8	
510.79	6924.2	
510.98	8430.8	
511.18	5645.6	
511.38	5752.1	
511.57	7871.7	
511.77	7681.2	
511.97	6537.1	
512.17	5435.3	
512.36	7774.8	
512.56	7840.3	
512.76	5539.1	
512.95	5309.7	
513.15	8011	
513.35	6550.8	
513.55	6466.8	
513.74	5552	
513.94	7943.4	
514.14	7262.8	
514.33	6506.4	
514.53	6249	
514.73	7193.8	
514.92	7284.6	
515.12	5745.9	
515.32	5563.6	
515.51	7473.7	
515.71	7985	
515.91	7400	
516.11	5592.3	
516.3	9181	
516.5	7025.2	
516.7	6244.3	
516.89	6762.4	
517.09	7262.1	
517.29	7010.9	
517.48	6502.3	
517.68	5911.1	
517.88	6916.7	
518.07	7343.3	
518.27	6378.7	
518.47	5414.8	
518.66	8172.8	
518.86	6749.4	
519.06	5289.2	
519.25	5737.7	
519.45	7087.3	
519.65	8512.7	
519.84	6376.7	
520.04	7051.8	
520.24	8970.8	
520.43	7673.1	
520.63	6111.1	
520.83	5803.3	
521.02	6991.8	
521.22	7712	
521.42	6506.4	
521.61	7027.3	
521.81	7328.3	
522.01	7486.7	
522.2	6260	
522.4	5981.4	
522.6	7920.2	
522.79	6722.8	
522.99	6058.6	
523.18	5302.2	
523.38	7618.4	
523.58	7577.5	
523.77	7249.8	
523.97	5292.6	
524.17	9409.7	
524.36	8542.8	
524.56	6673.6	
524.76	6367.8	
524.95	7591.1	
525.15	7186.3	
525.34	6010.1	
525.54	5997.8	
525.74	7845.1	
525.93	6933.7	
526.13	7232.1	
526.33	5905	
526.52	8183.7	
526.72	7651.9	
526.91	7245	
527.11	6501.6	
527.31	8220.5	
527.5	8715.5	
527.7	6313.2	
527.89	5373.9	
528.09	7086.7	
528.29	7605.5	
528.48	6785.6	
528.68	6371.9	
528.87	8015.7	
529.07	8054.7	
529.27	6307.1	
529.46	5831.9	
529.66	7666.9	
529.85	8126.3	
530.05	5650.3	
530.25	6494.8	
530.44	9089.6	
530.64	7618.4	
530.83	6153.5	
531.03	6330.3	
531.23	8017.8	
531.42	7963.2	
531.62	7085.3	
531.81	6303.6	
532.01	8174.8	
532.21	8634.9	
532.4	5921.4	
532.6	6326.2	
532.79	9127.1	
532.99	8113.4	
533.18	6253.1	
533.38	7303.7	
533.58	7670.3	
533.77	8529.1	
533.97	6199.9	
534.16	7077.8	
534.36	8641.7	
534.55	7731.1	
534.75	7289.4	
534.95	6375.3	
535.14	8555.7	
535.34	7645.8	
535.53	5996.5	
535.73	8070.4	
535.92	9074.5	
536.12	7942.7	
536.31	6128.9	
536.51	7323.5	
536.71	8216.5	
536.9	7799.3	
537.1	6316.6	
537.29	6496.2	
537.49	8599.4	
537.68	7651.2	
537.88	6795.2	
538.07	6079.1	
538.27	7935.2	
538.46	9000.1	
538.66	5943.9	
538.86	6292	
539.05	7928.4	
539.25	8307.2	
539.44	6674.3	
539.64	6319.3	
539.83	7789.8	
540.03	8908.7	
540.22	6130.3	
540.42	6320	
540.61	8129.1	
540.81	8175.5	
541	6825.2	
541.2	7417.1	
541.39	7615.7	
541.59	8144.8	
541.78	7038.9	
541.98	6178.7	
542.18	7238.2	
542.37	7361.8	
542.57	6616.3	
542.76	7080.5	
542.96	7460.8	
543.15	8174.1	
543.35	6593.8	
543.54	5987.6	
543.74	8492.2	
543.93	8041.7	
544.13	6642.9	
544.32	7796.6	
544.52	8396.7	
544.71	7539.3	
544.91	5784.1	
545.1	6976.1	
545.3	7628.7	
545.49	8353	
545.69	5707.7	
545.88	6353.5	
546.08	9207	
546.27	8819.9	
546.47	6926.2	
546.66	6070.9	
546.86	8611	
547.05	9245.2	
547.24	6346.7	
547.44	6180.8	
547.63	7424.6	
547.83	8589.2	
548.02	6585.6	
548.22	6840.9	
548.41	7332.4	
548.61	8738.7	
548.8	6160.3	
549	6123.4	
549.19	7965.9	
549.39	8269	
549.58	5878.4	
549.78	6515.3	
549.97	8343.4	
550.17	7880.6	
550.36	7361.8	
550.55	8385.1	
550.75	7916.1	
550.94	8818.6	
551.14	6161.7	
551.33	6536.4	
551.53	7222.5	
551.72	8227.4	
551.92	6632	
552.11	6274.3	
552.31	8280.6	
552.5	8232.8	
552.69	7966.6	
552.89	6003.3	
553.08	8275.2	
553.28	7983.7	
553.47	6352.1	
553.67	7572.7	
553.86	9007.6	
554.06	7179.5	
554.25	5530.2	
554.44	6139.8	
554.64	9666.4	
554.83	9218.6	
555.03	6090	
555.22	6542.6	
555.42	8489.5	
555.61	8152.3	
555.8	6323.4	
556	6569.2	
556.19	7303.7	
556.39	8599.4	
556.58	6344.6	
556.78	6395.1	
556.97	8111.3	
557.16	7749.5	
557.36	7658.7	
557.55	5907	
557.75	7054.6	
557.94	8824	
558.13	6171.2	
558.33	5874.9	
558.52	8622.6	
558.72	7518.8	
558.91	6029.2	
559.1	6272.2	
559.3	7222.5	
559.49	7023.9	
559.69	5595.7	
559.88	6601.3	
560.07	8110	
560.27	8442.4	
560.46	6744.6	
560.66	6956.9	
560.85	7914	
561.04	7097.6	
561.24	5991	
561.43	6299.6	
561.63	7285.3	
561.82	7606.2	
562.01	7449.1	
562.21	6488.6	
562.4	8181	
562.59	9050	
562.79	6405.4	
562.98	5972.6	
563.18	7951.6	
563.37	9401.5	
563.56	6909.8	
563.76	5879.7	
563.95	7385.7	
564.14	7321.5	
564.34	6317.3	
564.53	6055.8	
564.73	7957.7	
564.92	8317.5	
565.11	6500.3	
565.31	5804.6	
565.5	8487.5	
565.69	7462.8	
565.89	6064.7	
566.08	6267.5	
566.27	8393.9	
566.47	8815.8	
566.66	6995.2	
566.85	5612.1	
567.05	7963.9	
567.24	7342.7	
567.44	5957.5	
567.63	7390.4	
567.82	8267.6	
568.02	7952.3	
568.21	6016.2	
568.4	6350.1	
568.6	7791.8	
568.79	7834.8	
568.98	5806	
569.18	5942.5	
569.37	7751.6	
569.56	9768.1	
569.76	6361	
569.95	7268.9	
570.14	8196.7	
570.34	8133.8	
570.53	5817.6	
570.72	5797.1	
570.91	8613.1	
571.11	7765.9	
571.3	6393.8	
571.49	7229.3	
571.69	7762.5	
571.88	7360.4	
572.07	6871.6	
572.27	6870.3	
572.46	7337.2	
572.65	8447.2	
572.85	6055.2	
573.04	6469.5	
573.23	8594.6	
573.43	7946.8	
573.62	5838.8	
573.81	6445	
574	7935.2	
574.2	7652.6	
574.39	6088.6	
574.58	6384.2	
574.78	8738.7	
574.97	7978.2	
575.16	6657.9	
575.36	6956.9	
575.55	8335.2	
575.74	8512.7	
575.93	5804.6	
576.13	6850.5	
576.32	7662.1	
576.51	8327	
576.71	6236.7	
576.9	8103.8	
577.09	8677.9	
577.28	8220.5	
577.48	6840.2	
577.67	5672.9	
577.86	7751.6	
578.05	8120.2	
578.25	6351.4	
578.44	6466.1	
578.63	7849.9	
578.83	9075.9	
579.02	5763	
579.21	7350.8	
579.4	8053.3	
579.6	7776.8	
579.79	6575.3	
579.98	8757.8	
580.17	8487.5	
580.37	8562.6	
580.56	6004	
580.75	6821.1	
580.94	8921.6	
581.14	8843.1	
581.33	7242.3	
581.52	6185.5	
581.71	8277.2	
581.91	8904.6	
582.1	5825.8	
582.29	6447	
582.48	7995.3	
582.68	7806.9	
582.87	6947.4	
583.06	6497.5	
583.25	8271.7	
583.45	7567.9	
583.64	7190.4	
583.83	7897.7	
584.02	7778.9	
584.21	8303.1	
584.41	7243.7	
584.6	6427.9	
584.79	7900.4	
584.98	8818.6	
585.18	5956.9	
585.37	5965.1	
585.56	7430.7	
585.75	8340.7	
585.94	6182.8	
586.14	6879.8	
586.33	8875.9	
586.52	7940	
586.71	6690.7	
586.91	6516.6	
587.1	7409.6	
587.29	8417.2	
587.48	6445	
587.67	6235.4	
587.87	8326.4	
588.06	8352.3	
588.25	7565.2	
588.44	6947.4	
588.63	8020.5	
588.83	8497.7	
589.02	6406.7	
589.21	6294.8	
589.4	7659.4	
589.59	7475.1	
589.78	5523.4	
589.98	5773.2	
590.17	7260.7	
590.36	7916.1	
590.55	5243.5	
590.74	6222.4	
590.94	9367.4	
591.13	7884.7	
591.32	5909.1	
591.51	5361.6	
591.7	8295	
591.89	7752.2	
592.09	5595.7	
592.28	5993	
592.47	6946	
592.66	8852.7	
592.85	5608.7	
593.05	5702.2	
593.24	7531.1	
593.43	8406.9	
593.62	5769.1	
593.81	6340.5	
594	7592.5	
594.19	7826	
594.39	5737	
594.58	5639.4	
594.77	7949.5	
594.96	8524.3	
595.15	5659.2	
595.34	6322.8	
595.54	8036.2	
595.73	7116.7	
595.92	5061.2	
596.11	6262.7	
596.3	8490.2	
596.49	7185	
596.68	6023.1	
596.88	6574.7	
597.07	8127	
597.26	7035.5	
597.45	5496.7	
597.64	6796.5	
597.83	7262.1	
598.02	7972.7	
598.22	5659.9	
598.41	6348.7	
598.6	7765.2	
598.79	7199.3	
598.98	5652.4	
599.17	6683.9	
599.36	7724.3	
599.55	8911.4	
599.74	7740	
599.94	7459.4	
600.13	8226	
600.32	7148.1	
600.51	5437.4	
600.7	5555.5	
600.89	8989.2	
601.08	9022	
601.27	5355.4	
601.47	6400.6	
601.66	8278.6	
601.85	8932.6	
602.04	6130.3	
602.23	6370.5	
602.42	7279.2	
602.61	7950.9	
602.8	6049.7	
602.99	5837.4	
603.18	7611.6	
603.37	7920.2	
603.57	6441.5	
603.76	7023.2	
603.95	8700.5	
604.14	8225.3	
604.33	5845.6	
604.52	6178.7	
604.71	7757	
604.9	7456.7	
605.09	6844.3	
605.28	6679.8	
605.47	8471.8	
605.66	8156.4	
605.86	6476.4	
606.05	5934.3	
606.24	8463.6	
606.43	7007.5	
606.62	6191.7	
606.81	7016.3	
607	8284	
607.19	7628.7	
607.38	5682.4	
607.57	5948.7	
607.76	7384.3	
607.95	6872.3	
608.14	6224.5	
608.33	6978.8	
608.52	7350.8	
608.72	8264.2	
608.91	5622.4	
609.1	5491.3	
609.29	7504.4	
609.48	6985.6	
609.67	6456.6	
609.86	5609.4	
610.05	7048.4	
610.24	7518.1	
610.43	5406.6	
610.62	5063.9	
610.81	8644.5	
611	8436.3	
611.19	5531.6	
611.38	6303.6	
611.57	7814.4	
611.76	9181.7	
611.95	5300.8	
612.14	5162.9	
612.33	7589.1	
612.52	7068.9	
612.71	5902.9	
612.9	5014.1	
613.09	6731	
613.28	9111.4	
613.47	5625.1	
613.66	6577.4	
613.85	7739.3	
614.04	7210.2	
614.24	5685.2	
614.43	4988.9	
614.62	7903.8	
614.81	7731.1	
615	6324.8	
615.19	6343.9	
615.38	7125.6	
615.57	7461.4	
615.76	6125.5	
615.95	7135.1	
616.14	7881.3	
616.33	7458	
616.52	6509.1	
616.71	6834.1	
616.9	7834.2	
617.09	7647.1	
617.28	5793.7	
617.47	7087.3	
617.66	6875	
617.85	6953.5	
618.04	6717.3	
618.22	6158.2	
618.41	7221.8	
618.6	8126.3	
618.79	6089.3	
618.98	5739.1	
619.17	8482	
619.36	6715.3	
619.55	5932.3	
619.74	5963	
619.93	7748.1	
620.12	7088	
620.31	6506.4	
620.5	6650.4	
620.69	8302.5	
620.88	8727.1	
621.07	7352.9	
621.26	6328.2	
621.45	7879.9	
621.64	7932.5	
621.83	6563.1	
622.02	5655.1	
622.21	7933.8	
622.4	7657.4	
622.59	7036.1	
622.78	6723.5	
622.97	7181.5	
623.16	8269.7	
623.35	6330.3	
623.54	5483.8	
623.72	7480.5	
623.91	7641	
624.1	6638.8	
624.29	5231.9	
624.48	8682.7	
624.67	7944.8	
624.86	6535.1	
625.05	5532.9	
625.24	8785.1	
625.43	7145.4	
625.62	8221.9	
625.81	5778	
626	8269.7	
626.19	7438.9	
626.38	6563.7	
626.56	5955.5	
626.75	7269.6	
626.94	7999.4	
627.13	6596.5	
627.32	5225.1	
627.51	7970.7	
627.7	9376.3	
627.89	5397.1	
628.08	6630	
628.27	7131	
628.46	7343.3	
628.65	5729.5	
628.83	5362.9	
629.02	7947.5	
629.21	7226.6	
629.4	6166.4	
629.59	6397.9	
629.78	7133.1	
629.97	8184.4	
630.16	6397.9	
630.35	5866.7	
630.54	8563.2	
630.72	8274.5	
630.91	5855.8	
631.1	6421.1	
631.29	7701	
631.48	7912.7	
631.67	6596.5	
631.86	5965.7	
632.05	7313.3	
632.24	7421.8	
632.42	5598.5	
632.61	6299.6	
632.8	7482.6	
632.99	7078.5	
633.18	6199.2	
633.37	6670.2	
633.56	7731.1	
633.75	7597.3	
633.93	6272.9	
634.12	5865.4	
634.31	8639	
634.5	8109.3	
634.69	5974.6	
634.88	6443.6	
635.07	7569.3	
635.25	8143.4	
635.44	6903.7	
635.63	7184.3	
635.82	7342	
636.01	6879.8	
636.2	6839.5	
636.39	6327.5	
636.57	8511.4	
636.76	8256.7	
636.95	5760.9	
637.14	7199.3	
637.33	7849.9	
637.52	8865	
637.7	5608	
637.89	6534.4	
638.08	7441	
638.27	8989.2	
638.46	6610.2	
638.65	7141.3	
638.83	8880	
639.02	7279.8	
639.21	6558.3	
639.4	7051.8	
639.59	7759.8	
639.78	7354.3	
639.96	5810.8	
640.15	5928.9	
640.34	7656	
640.53	7851.2	
640.72	5561.6	
640.91	5920	
641.09	7050.5	
641.28	8532.5	
641.47	5892.7	
641.66	6771.9	
641.85	7808.2	
642.03	7974.1	
642.22	6569.2	
642.41	5985.5	
642.6	7200	
642.79	6583.5	
642.97	5748	
643.16	6571.2	
643.35	7194.5	
643.54	7011.6	
643.73	5764.3	
643.91	6548	
644.1	6918	
644.29	7514	
644.48	5793	
644.67	5893.4	
644.85	7107.1	
645.04	7395.2	
645.23	5482.4	
645.42	5696.8	
645.6	6922.8	
645.79	8142.7	
645.98	5750	
646.17	4820.9	
646.36	6728.3	
646.54	7397.3	
646.73	6599.2	
646.92	5364.3	
647.11	6989	
647.29	8080.6	
647.48	5457.2	
647.67	5251	
647.86	8331.1	
648.05	8322.3	
648.23	5825.8	
648.42	7189.7	
648.61	7733.8	
648.8	7417.1	
648.98	5374.6	
649.17	5706.3	
649.36	7025.2	
649.55	6500.9	
649.73	5486.5	
649.92	6271.6	
650.11	6820.4	
650.3	7251.2	
650.48	5577.3	
650.67	5402.5	
650.86	7589.8	
651.05	6421.1	
651.23	5629.9	
651.42	5608	
651.61	6951.5	
651.79	7073	
651.98	5817.6	
652.17	5334.3	
652.36	7489.4	
652.54	6478.4	
652.73	5497.4	
652.92	5255.1	
653.11	7550.2	
653.29	7562.5	
653.48	4739.7	
653.67	5857.2	
653.85	7255.3	
654.04	8289.5	
654.23	6029.9	
654.42	5519.3	
654.6	6763.1	
654.79	7499	
654.98	5033.9	
655.16	5634.6	
655.35	6422.4	
655.54	6351.4	
655.73	5175.9	
655.91	5043.5	
656.1	7585.7	
656.29	6337.1	
656.47	4660.5	
656.66	6440.2	
656.85	6591	
657.03	6630	
657.22	5157.5	
657.41	5175.2	
657.59	6731.7	
657.78	6486.6	
657.97	4830.5	
658.16	5653.8	
658.34	7378.1	
658.53	7783.6	
658.72	6486.6	
658.9	6973.3	
659.09	6773.3	
659.28	6884.6	
659.46	5300.1	
659.65	5316.5	
659.84	6584.2	
660.02	7066.2	
660.21	5171.8	
660.4	5124.7	
660.58	7565.2	
660.77	6968.6	
660.96	5756.2	
661.14	4753.3	
661.33	8106.5	
661.52	7996	
661.7	4777.9	
661.89	8510.7	
662.08	6539.8	
662.26	6184.9	
662.45	5090.6	
662.64	5190.9	
662.82	7240.9	
663.01	6451.1	
663.2	5143.1	
663.38	6016.9	
663.57	7262.8	
663.75	7065.5	
663.94	5500.8	
664.13	6863.4	
664.31	6524.1	
664.5	7317.4	
664.69	5868.8	
664.87	6382.8	
665.06	6281.1	
665.25	7096.9	
665.43	6599.9	
665.62	6687.3	
665.8	7399.3	
665.99	6689.3	
666.18	5481.7	
666.36	5612.8	
666.55	7308.5	
666.74	7264.1	
666.92	5090.6	
667.11	6868.2	
667.29	6741.2	
667.48	7299.6	
667.67	6393.8	
667.85	5573.2	
668.04	6780.1	
668.22	6660.7	
668.41	5532.2	
668.6	5743.2	
668.78	6520.7	
668.97	6707.8	
669.15	5928.2	
669.34	4873.5	
669.53	6543.3	
669.71	6850.5	
669.9	5085.8	
670.08	5806	
670.27	6509.1	
670.46	7128.3	
670.64	5864.7	
670.83	6253.8	
671.01	6384.2	
671.2	7052.5	
671.38	5077.6	
671.57	5113.8	
671.76	7664.2	
671.94	8279.3	
672.13	5014.8	
672.31	6045.6	
672.5	7333.1	
672.69	6495.5	
672.87	5215.5	
673.06	5476.3	
673.24	7047.1	
673.43	6597.9	
673.61	5955.5	
673.8	5556.1	
673.98	7263.5	
674.17	7438.2	
674.36	6056.5	
674.54	5970.5	
674.73	6978.8	
674.91	7238.9	
675.1	5672.2	
675.28	5283.8	
675.47	6831.3	
675.65	7357.7	
675.84	5485.1	
676.03	5783.5	
676.21	6570.6	
676.4	6022.4	
676.58	6283.2	
676.77	6017.6	
676.95	8097.7	
677.14	6540.5	
677.32	5124.7	
677.51	4917.9	
677.69	7299	
677.88	6148.7	
678.06	4960.2	
678.25	5154.1	
678.44	6819.1	
678.62	6508.4	
678.81	4812	
678.99	5792.3	
679.18	7700.4	
679.36	7282.6	
679.55	5425.8	
679.73	5971.2	
679.92	7170.6	
680.1	6522.8	
680.29	6649.1	
680.47	5418.2	
680.66	6473.6	
680.84	7346.7	
681.03	4629.1	
681.21	5901.6	
681.4	6530.3	
681.58	6469.5	
681.77	5223	
681.95	5021.6	
682.14	7480.5	
682.32	7770.7	
682.51	6023.1	
682.69	4926	
682.88	6470.2	
683.06	7225.9	
683.25	5783.5	
683.43	6320.7	
683.62	6700.3	
683.8	7148.8	
683.99	6206.7	
684.17	5599.1	
684.36	8032.8	
684.54	6686.6	
684.73	4794.3	
684.91	5051	
685.1	7014.3	
685.28	6410.1	
685.46	5629.2	
685.65	5706.3	
685.83	7329	
686.02	6718.7	
686.2	5128.1	
686.39	5274.9	
686.57	6367.8	
686.76	7898.3	
686.94	5102.9	
687.13	5252.4	
687.31	7143.3	
687.5	6632.7	
687.68	4739.7	
687.86	6059.9	
688.05	8230.1	
688.23	6058.6	
688.42	6053.1	
688.6	5154.7	
688.79	6478.4	
688.97	6460	
689.16	5610.1	
689.34	4503.5	
689.52	7202	
689.71	7488.1	
689.89	5867.4	
690.08	5138.4	
690.26	6806.8	
690.45	6634.1	
690.63	6084.5	
690.81	5263.3	
691	6440.2	
691.18	6470.9	
691.37	5535.7	
691.55	7687.4	
691.74	6451.1	
691.92	8430.8	
692.1	5517.2	
692.29	4863.9	
692.47	6649.8	
692.66	5912.5	
692.84	5096	
693.02	5810.8	
693.21	6077	
693.39	6569.2	
693.58	5780.7	
693.76	5216.9	
693.94	7837.6	
694.13	7529	
694.31	5154.7	
694.5	6266.8	
694.68	6347.3	
694.86	6699.6	
695.05	5493.3	
695.23	5917.9	
695.42	7034.1	
695.6	9439.1	
695.78	6168.5	
695.97	5166.3	
696.15	7115.3	
696.34	6505.7	
696.52	4931.5	
696.7	5846.3	
696.89	6881.9	
697.07	6242.2	
697.25	5776	
697.44	7350.2	
697.62	6838.9	
697.81	7281.9	
697.99	5428.5	
698.17	5963	
698.36	6267.5	
698.54	6869.6	
698.72	5803.9	
698.91	4786.1	
699.09	6466.1	
699.28	6306.4	
699.46	5495.4	
699.64	5272.8	
699.83	6264.7	
700.01	7588.4	
700.19	6158.2	
700.38	4468.7	
700.56	7496.9	
700.74	6384.9	
700.93	4958.1	
701.11	5773.2	
701.29	6901.7	
701.48	8033.5	
701.66	5095.3	
701.84	5111	
702.03	6480.5	
702.21	7124.2	
702.39	4714.4	
702.58	5323.4	
702.76	6830	
702.94	7031.4	
703.13	4759.5	
703.31	7195.2	
703.49	6161.7	
703.68	7158.3	
703.86	4907.6	
704.04	5931.6	
704.23	6797.9	
704.41	7129.7	
704.59	5050.3	
704.78	6349.4	
704.96	7802.8	
705.14	7157	
705.33	4821.6	
705.51	5702.2	
705.69	6529.6	
705.87	7330.4	
706.06	5909.1	
706.24	4798.4	
706.42	6870.9	
706.61	7247.1	
706.79	5963.7	
706.97	4823.6	
707.16	6217	
707.34	6889.4	
707.52	6001.9	
707.7	5057.8	
707.89	6436.1	
708.07	6137.1	
708.25	6016.9	
708.44	6107.7	
708.62	6331.6	
708.8	7608.2	
708.98	6200.6	
709.17	5218.2	
709.35	6801.3	
709.53	6805.4	
709.72	4862.6	
709.9	4960.2	
710.08	7057.3	
710.26	7071	
710.45	6577.4	
710.63	5273.5	
710.81	6758.3	
710.99	6785.6	
711.18	5802.6	
711.36	5316.5	
711.54	6551.5	
711.72	7286.7	
711.91	5369.8	
712.09	4863.2	
712.27	6748.7	
712.45	7462.8	
712.64	5750	
712.82	4599.7	
713	6138.4	
713.18	6354.2	
713.37	4747.2	
713.55	5985.5	
713.73	7238.2	
713.91	5760.3	
714.1	5222.3	
714.28	4642.1	
714.46	6944	
714.64	6113.9	
714.83	4143	
715.01	5011.4	
715.19	6262.7	
715.37	5674.9	
715.55	4739.7	
715.74	4952	
715.92	7211.6	
716.1	5143.8	
716.28	6209.4	
716.47	5225.7	
716.65	5882.4	
716.83	6037.4	
717.01	5119.2	
717.19	5128.1	
717.38	8110	
717.56	5644.2	
717.74	5359.5	
717.92	4461.2	
718.1	6970.6	
718.29	6107	
718.47	4032.5	
718.65	4765.6	
718.83	6787	
719.01	6651.1	
719.2	3876.8	
719.38	5014.8	
719.56	6324.1	
719.74	8021.2	
719.92	4517.1	
720.11	5700.2	
720.29	6380.8	
720.47	5492	
720.65	4097.3	
720.83	5110.4	
721.02	5970.5	
721.2	5638.7	
721.38	5121.3	
721.56	4395.6	
721.74	5193.6	
721.92	5403.9	
722.11	5652.4	
722.29	5297.4	
722.47	6706.4	
722.65	5850.4	
722.83	4416.8	
723.01	5347.2	
723.2	5973.9	
723.38	6201.9	
723.56	3790.8	
723.74	5081	
723.92	5412.8	
724.1	6615.6	
724.29	4326.7	
724.47	5479	
724.65	5493.3	
724.83	5397.8	
725.01	4226.3	
725.19	5102.9	
725.37	5496.1	
725.56	5592.3	
725.74	4005.1	
725.92	4294.6	
726.1	5358.9	
726.28	5715.2	
726.46	4774.5	
726.64	4546.5	
726.83	5651.7	
727.01	6074.3	
727.19	4051.6	
727.37	4853.7	
727.55	5770.5	
727.73	6336.4	
727.91	4043.4	
728.09	3809.2	
728.28	6399.9	
728.46	7049.1	
728.64	5101.5	
728.82	4990.2	
729	7476.5	
729.18	6752.2	
729.36	4131.4	
729.54	6563.7	
729.72	7706.5	
729.91	5964.4	
730.09	6148	
730.27	4843.4	
730.45	5825.1	
730.63	6543.9	
730.81	5441.5	
730.99	4436.6	
731.17	7020.4	
731.35	5554.1	
731.53	4989.5	
731.71	4597.7	
731.9	6787.7	
732.08	6965.8	
732.26	4947.2	
732.44	4526.7	
732.62	7083.2	
732.8	6485.9	
732.98	5343.8	
733.16	4297.3	
733.34	6481.8	
733.52	5279	
733.7	4887.1	
733.88	5126.1	
734.07	6294.8	
734.25	6073.6	
734.43	4306.9	
734.61	5981.4	
734.79	7548.1	
734.97	5934.3	
735.15	4446.1	
735.33	4790.9	
735.51	6294.1	
735.69	5971.2	
735.87	5967.1	
736.05	5072.8	
736.23	6194.4	
736.41	5969.1	
736.59	4848.2	
736.77	4967	
736.95	6617.7	
737.13	5981.4	
737.32	4461.2	
737.5	4758.1	
737.68	7171.3	
737.86	5902.2	
738.04	4320.5	
738.22	6292.7	
738.4	5782.8	
738.58	6021	
738.76	5054.4	
738.94	3900.7	
739.12	5844.9	
739.3	5736.4	
739.48	5606	
739.66	5307	
739.84	6166.4	
740.02	6129.6	
740.2	3975.1	
740.38	4373.8	
740.56	6565.1	
740.74	5408.7	
740.92	5041.4	
741.1	4970.4	
741.28	5952.8	
741.46	5844.2	
741.64	4627	
741.82	5218.9	
742	6051.1	
742.18	6007.4	
742.36	4917.9	
742.54	4358.1	
742.72	6642.2	
742.9	5299.5	
743.08	5288.5	
743.26	4052.9	
743.44	6880.5	
743.62	6703	
743.8	5412.1	
743.98	4435.9	
744.16	6416.3	
744.34	6051.7	
744.52	5359.5	
744.7	5285.8	
744.88	6535.1	
745.06	6073.6	
745.24	5343.8	
745.42	5549.3	
745.6	6666.1	
745.78	6371.2	
745.96	4143.7	
746.14	4579.9	
746.32	7389.8	
746.5	6694.1	
746.68	5087.2	
746.86	4618.9	
747.03	7166.5	
747.21	5354.8	
747.39	5147.9	
747.57	4629.8	
747.75	6296.1	
747.93	6613.6	
748.11	4663.9	
748.29	4464.6	
748.47	7866.9	
748.65	5911.1	
748.83	5378	
749.01	5071.5	
749.19	6481.8	
749.37	5629.2	
749.55	4900.1	
749.73	4926.7	
749.91	6128.2	
750.09	5799.2	
750.26	5052.3	
750.44	4466.6	
750.62	6165.8	
750.8	6154.8	
750.98	4268.6	
751.16	4683	
751.34	6278.4	
751.52	5559.6	
751.7	5457.8	
751.88	4287.1	
752.06	6761.7	
752.24	6501.6	
752.42	4201.7	
752.59	4598.4	
752.77	6064.7	
752.95	7466.9	
753.13	5374.6	
753.31	4803.2	
753.49	5825.8	
753.67	6322.8	
753.85	5098.1	
754.03	4626.4	
754.21	6610.2	
754.38	7036.1	
754.56	4795.7	
754.74	3867.2	
754.92	5814.2	
755.1	6561	
755.28	3863.8	
755.46	3873.4	
755.64	7288	
755.82	7447.8	
755.99	4205.8	
756.17	4321.9	
756.35	4907.6	
756.53	6545.3	
756.71	3211.9	
756.89	4197	
757.07	6101.6	
757.25	5227.8	
757.42	4784.7	
757.6	5627.8	
757.78	6244.9	
757.96	5181.4	
758.14	4459.1	
758.32	3919.1	
758.5	4635.2	
758.67	5575.9	
758.85	4229.7	
759.03	4377.9	
759.21	5820.3	
759.39	5151.3	
759.57	3858.4	
759.75	4987.5	
759.92	6363.7	
760.1	5584.8	
760.28	5390.3	
760.46	5653.8	
760.64	5461.9	
760.82	5134.9	
760.99	5236	
761.17	4299.4	
761.35	6293.4	
761.53	5217.5	
761.71	4469.4	
761.89	5218.9	
762.06	6183.5	
762.24	5628.5	
762.42	4670.1	
762.6	4335.5	
762.78	5656.5	
762.96	6368.5	
763.13	4932.9	
763.31	4704.2	
763.49	6523.5	
763.67	5655.1	
763.85	5554.1	
764.02	6117.3	
764.2	6756.9	
764.38	5942.5	
764.56	4524.6	
764.74	5449	
764.91	6933.1	
765.09	5801.9	
765.27	4211.3	
765.45	3998.3	
765.63	6949.4	
765.8	6804.7	
765.98	3751.9	
766.16	4026.3	
766.34	5328.8	
766.52	5157.5	
766.69	5107	
766.87	3900.7	
767.05	5824.4	
767.23	6547.4	
767.41	4280.9	
767.58	4581.3	
767.76	6384.9	
767.94	6457.9	
768.12	4367	
768.29	5177.9	
768.47	5911.1	
768.65	6595.8	
768.83	3958.7	
769	5201.2	
769.18	5440.8	
769.36	6158.9	
769.54	5205.9	
769.72	4020.2	
769.89	6414.9	
770.07	6623.8	
770.25	4346.5	
770.43	5696.8	
770.6	7279.2	
770.78	7707.2	
770.96	4517.1	
771.14	4483.7	
771.31	6359.6	
771.49	5668.8	
771.67	3725.3	
771.85	4008.6	
772.02	4885.1	
772.2	5664.7	
772.38	4720.6	
772.55	4197	
772.73	5948	
772.91	5709.1	
773.09	4657.8	
773.26	4758.8	
773.44	6002.6	
773.62	5655.8	
773.8	4141	
773.97	3869.3	
774.15	6054.5	
774.33	5612.8	
774.5	4018.8	
774.68	4360.8	
774.86	6270.9	
775.04	5668.8	
775.21	4122.6	
775.39	4111.6	
775.57	5888.6	
775.74	6326.2	
775.92	3930.1	
776.1	3831.7	
776.27	5898.1	
776.45	7260	
776.63	4141	
776.81	3593.5	
776.98	5508.4	
777.16	6673	
777.34	4243.4	
777.51	4185.4	
777.69	5485.1	
777.87	5336.3	
778.04	4258.4	
778.22	4997.7	
778.4	5331.5	
778.57	5997.1	
778.75	3551.9	
778.93	3835.8	
779.1	5093.3	
779.28	4966.3	
779.46	3559.4	
779.64	4111.6	
779.81	6161	
779.99	7066.9	
780.17	4893.3	
780.34	5113.1	
780.52	5621	
780.69	5826.5	
780.87	4433.9	
781.05	3966.9	
781.22	5638.1	
781.4	5760.9	
781.58	4059.1	
781.75	3261.7	
781.93	5725.4	
782.11	5035.3	
782.28	5058.5	
782.46	4069.3	
782.64	4902.2	
782.81	5978.7	
782.99	4198.3	
783.17	4143.7	
783.34	5760.9	
783.52	4941.7	
783.69	4302.1	
783.87	5225.7	
784.05	5131.5	
784.22	5119.2	
784.4	5222.3	
784.58	4515.8	
784.75	6008.7	
784.93	5070.1	
785.1	4117.1	
785.28	4760.2	
785.46	5734.3	
785.63	5055.8	
785.81	4060.4	
785.99	3946.4	
786.16	5213.4	
786.34	5670.8	
786.51	3954.6	
786.69	4408.6	
786.87	4865.3	
787.04	5340.4	
787.22	3805.8	
787.39	4831.8	
787.57	5067.4	
787.75	6197.8	
787.92	5049.6	
788.1	4959.5	
788.27	5131.5	
788.45	4816.8	
788.63	4654.4	
788.8	3280.8	
788.98	5612.8	
789.15	4767	
789.33	3498.6	
789.5	4147.1	
789.68	6014.2	
789.86	6155.5	
790.03	4590.2	
790.21	3976.5	
790.38	6047	
790.56	5201.8	
790.73	3903.4	
790.91	3874.8	
791.09	5057.1	
791.26	5902.9	
791.44	4142.4	
791.61	3487	
791.79	5079	
791.96	5152.7	
792.14	3611.3	
792.32	3237.2	
792.49	5102.2	
792.67	5164.3	
792.84	3719.1	
793.02	3500	
793.19	5549.3	
793.37	6285.9	
793.54	3207.1	
793.72	3581.9	
793.89	6453.1	
794.07	5070.1	
794.25	4231.1	
794.42	3282.2	
794.6	6194.4	
794.77	5738.4	
794.95	4476.9	
795.12	3902.7	
795.3	5098.1	
795.47	5732.3	
795.65	4332.8	
795.82	4202.4	
796	4878.9	
796.17	6883.9	
796.35	4020.8	
796.52	4721.9	
796.7	5660.6	
796.87	5726.1	
797.05	5017.5	
797.22	4898.7	
797.4	5702.2	
797.57	6705	
797.75	4131.4	
797.92	3834.5	
798.1	6044.9	
798.27	5144.5	
798.45	3362.8	
798.62	3561.4	
798.8	5440.8	
798.97	5894.7	
799.15	4364.9	
799.32	4182	
799.5	4617.5	
799.67	5498.1	
799.85	4461.8	
800.02	3236.5	
800.2	5018.9	
800.37	5461.2	
800.55	4651.6	
800.72	3892.5	
800.9	5862	
801.07	6346	
801.25	5281	
801.42	4288.4	
801.6	5927.5	
801.77	5640.8	
801.95	3946.4	
802.12	3801.7	
802.29	5595.1	
802.47	5627.1	
802.64	4255	
802.82	3228.3	
802.99	5025.7	
803.17	6086.6	
803.34	4160.1	
803.52	3688.4	
803.69	6792.4	
803.87	4801.8	
804.04	4190.8	
804.21	4218.8	
804.39	6217	
804.56	5323.4	
804.74	3506.1	
804.91	4282.3	
805.09	5083.7	
805.26	5215.5	
805.44	3552.5	
805.61	3965.6	
805.78	5795.8	
805.96	5838.8	
806.13	4318.5	
806.31	4617.5	
806.48	4585.4	
806.66	5169.1	
806.83	4246.8	
807	4137.6	
807.18	5071.5	
807.35	5477.6	
807.53	4205.2	
807.7	3362.8	
807.87	6271.6	
808.05	5102.9	
808.22	4599.1	
808.4	3327.9	
808.57	5109	
808.74	4775.2	
808.92	3773	
809.09	4900.8	
809.27	4978.6	
809.44	5631.9	
809.61	3365.5	
809.79	3749.1	
809.96	6264.1	
810.14	5855.8	
810.31	3263.8	
810.48	3987.4	
810.66	5254.4	
810.83	6024.4	
811.01	3754.6	
811.18	4283.7	
811.35	5907.7	
811.53	4543.1	
811.7	4651.6	
811.87	4310.3	
812.05	5073.5	
812.22	5048.2	
812.39	3650.2	
812.57	3540.9	
812.74	5112.4	
812.92	6842.3	
813.09	4020.2	
813.26	4463.2	
813.44	6578.8	
813.61	5036	
813.78	3347.1	
813.96	4506.9	
814.13	5116.5	
814.3	4811.4	
814.48	4892.6	
814.65	3994.9	
814.82	6376.7	
815	4915.1	
815.17	4138.9	
815.34	5114.5	
815.52	5091.3	
815.69	5072.1	
815.87	4065.9	
816.04	3503.4	
816.21	5119.2	
816.38	4501.4	
816.56	3962.1	
816.73	3688.4	
816.9	6503.7	
817.08	5980.1	
817.25	3782.6	
817.42	4709.6	
817.6	4681	
817.77	5162.9	
817.94	4224.3	
818.12	3665.9	
818.29	4822.3	
818.46	7600.7	
818.64	3816	
818.81	3583.3	
818.98	4806.6	
819.16	6958.3	
819.33	4461.2	
819.5	4125.3	
819.67	5532.9	
819.85	6158.9	
820.02	4040	
820.19	4286.4	
820.37	5385.5	
820.54	4896.7	
820.71	4217.5	
820.88	5272.2	
821.06	5353.4	
821.23	4895.3	
821.4	4267.3	
821.58	4166.9	
821.75	5923.4	
821.92	5290.6	
822.09	3393.5	
822.27	3476.8	
822.44	5115.1	
822.61	5064.6	
822.79	3408.5	
822.96	6594.5	
823.13	5634.6	
823.3	4872.8	
823.48	3952.6	
823.65	3537.5	
823.82	5875.6	
823.99	4642.1	
824.17	4949.9	
824.34	3617.4	
824.51	6776.7	
824.68	5195.7	
824.86	3736.2	
825.03	4216.1	
825.2	5023	
825.37	6199.9	
825.55	3723.9	
825.72	4170.3	
825.89	6905.8	
826.06	6365.1	
826.24	3967.6	
826.41	4096.6	
826.58	6240.8	
826.75	5454.4	
826.92	3155.9	
827.1	3539.6	
827.27	8523	
827.44	6789.7	
827.61	3841.3	
827.79	4647.5	
827.96	4864.6	
828.13	5218.2	
828.3	4019.5	
828.47	3397.6	
828.65	5354.1	
828.82	5327.4	
828.99	5201.8	
829.16	4627	
829.34	5734.3	
829.51	5528.8	
829.68	4168.3	
829.85	4334.2	
830.02	6037.4	
830.2	5781.4	
830.37	3166.8	
830.54	5031.2	
830.71	6509.8	
830.88	5055.1	
831.05	3227.6	
831.23	3767.6	
831.4	6308.4	
831.57	7027.3	
831.74	3863.2	
831.91	3411.2	
832.09	5321.3	
832.26	5728.2	
832.43	3974.4	
832.6	4478.9	
832.77	5392.3	
832.94	6157.6	
833.12	3141.6	
833.29	3958	
833.46	4971.8	
833.63	7348.8	
833.8	4276.8	
833.97	4014.7	
834.15	5824.4	
834.32	5514.5	
834.49	4172.4	
834.66	4260.5	
834.83	6047.7	
835	4866.7	
835.17	3816	
835.35	3858.4	
835.52	5617.6	
835.69	5572.5	
835.86	4066.6	
836.03	3316.3	
836.2	5657.2	
836.37	5358.2	
836.55	4001.7	
836.72	3739.6	
836.89	5272.2	
837.06	5728.9	
837.23	4047.5	
837.4	4436.6	
837.57	6626.5	
837.75	7323.5	
837.92	3593.5	
838.09	3850.9	
838.26	5335	
838.43	6079.1	
838.6	4183.3	
838.77	3685.7	
838.94	6989	
839.11	6648.4	
839.29	3973.1	
839.46	3108.8	
839.63	5726.1	
839.8	5412.1	
839.97	3870.7	
840.14	3875.4	
840.31	5502.9	
840.48	5748	
840.65	3196.2	
840.82	3801	
841	5752.7	
841.17	5665.4	
841.34	3550.5	
841.51	3646.7	
841.68	5640.1	
841.85	5436	
842.02	3734.1	
842.19	3031	
842.36	5405.3	
842.53	5457.2	
842.7	3504.1	
842.87	4407.2	
843.05	7205.4	
843.22	5418.9	
843.39	3339.6	
843.56	3675.4	
843.73	5095.3	
843.9	5816.9	
844.07	5795.1	
844.24	4843.4	
844.41	8581.7	
844.58	4981.3	
844.75	3399.6	
844.92	3771.7	
845.09	5760.3	
845.26	5708.4	
845.43	3564.8	
845.6	3734.8	
845.77	5759.6	
845.94	5499.5	
846.12	3997	
846.29	4176.5	
846.46	5991.7	
846.63	5773.2	
846.8	3497.9	
846.97	4159.4	
847.14	6241.5	
847.31	5687.9	
847.48	4026.3	
847.65	4397	
847.82	6006	
847.99	5967.1	
848.16	4801.8	
848.33	4390.2	
848.5	5324.7	
848.67	6195.1	
848.84	3482.9	
849.01	3680.2	
849.18	5158.8	
849.35	4832.5	
849.52	4442	
849.69	3504.1	
849.86	5935	
850.03	6192.4	
850.2	3533.4	
850.37	4374.5	
850.54	6154.8	
850.71	5430.5	
850.88	4194.9	
851.05	3494.5	
851.22	5682.4	
851.39	6347.3	
851.56	3360.7	
851.73	4059.8	
851.9	5033.9	
852.07	6006	
852.24	3953.9	
852.41	3523.9	
852.58	5630.5	
852.75	5119.2	
852.92	3974.4	
853.09	3462.4	
853.26	5277.6	
853.43	6188.3	
853.6	3519.1	
853.77	3001.6	
853.94	6292.7	
854.11	5608	
854.28	5237.3	
854.44	3870.7	
854.61	6793.8	
854.78	5825.8	
854.95	3540.9	
855.12	4510.3	
855.29	4570.4	
855.46	6435.4	
855.63	3529.3	
855.8	4902.8	
855.97	5277.6	
856.14	6023.1	
856.31	4969.7	
856.48	3828.3	
856.65	5259.2	
856.82	5023	
856.99	3366.2	
857.16	3768.3	
857.33	6952.2	
857.49	5332.9	
857.66	3810.6	
857.83	4084.3	
858	5292.6	
858.17	5484.5	
858.34	3358	
858.51	3548.4	
858.68	6484.6	
858.85	6457.2	
859.02	4073.4	
859.19	4399.7	
859.36	5014.8	
859.52	5042.8	
859.69	3556.6	
859.86	4130.1	
860.03	5112.4	
860.2	6376.7	
860.37	3203	
860.54	3537.5	
860.71	5965.1	
860.88	6424.5	
861.05	4014	
861.21	4463.9	
861.38	6437.4	
861.55	4908.3	
861.72	3183.2	
861.89	3939.6	
862.06	6035.4	
862.23	6510.5	
862.4	3420.1	
862.56	3665.2	
862.73	5848.3	
862.9	5521.3	
863.07	4124.6	
863.24	3226.9	
863.41	4927.4	
863.58	5001.8	
863.75	3627.6	
863.91	4071.4	
864.08	6388.3	
864.25	5868.1	
864.42	4464.6	
864.59	4945.8	
864.76	6602.7	
864.93	5056.4	
865.09	3376.4	
865.26	3764.2	
865.43	6243.6	
865.6	6679.8	
865.77	3130.7	
865.94	3489.7	
866.1	6249	
866.27	5982.1	
866.44	5315.8	
866.61	3340.2	
866.78	5433.3	
866.95	5874.9	
867.11	3416.7	
867.28	3160	
867.45	6082.5	
867.62	5088.5	
867.79	4074.1	
867.96	3513.6	
868.12	5101.5	
868.29	5994.4	
868.46	3548.4	
868.63	4749.9	
868.8	6254.5	
868.97	5994.4	
869.13	3738.2	
869.3	3726.6	
869.47	5785.5	
869.64	6100.2	
869.81	3568.9	
869.97	3519.1	
870.14	5784.8	
870.31	6402.6	
870.48	3435.8	
870.65	4438.6	
870.81	5304.9	
870.98	5325.4	
871.15	4063.2	
871.32	3644.7	
871.48	5784.1	
871.65	6490.7	
871.82	3538.9	
871.99	3923.2	
872.16	6916.7	
872.32	6247	
872.49	3534.1	
872.66	3584.6	
872.83	5927.5	
872.99	5175.9	
873.16	4072	
873.33	3480.2	
873.5	5572.5	
873.67	5573.9	
873.83	3755.3	
874	4743.8	
874.17	5735.7	
874.34	6862.1	
874.5	4482.3	
874.67	4484.4	
874.84	6401.3	
875.01	5009.3	
875.17	5010	
875.34	3519.1	
875.51	5666.7	
875.68	6843.6	
875.84	4268	
876.01	5160.2	
876.18	5917.3	
876.34	5848.3	
876.51	3547.8	
876.68	3471.3	
876.85	5378.6	
877.01	6258.6	
877.18	5029.8	
877.35	3504.1	
877.52	5533.6	
877.68	4982.7	
877.85	3448.1	
878.02	3447.4	
878.18	5484.5	
878.35	5247.6	
878.52	2804.4	
878.69	3974.4	
878.85	6020.3	
879.02	5860.6	
879.19	5003.9	
879.35	3833.8	
879.52	5831.2	
879.69	6124.8	
879.86	3061	
880.02	3979.2	
880.19	5477.6	
880.36	6692.8	
880.52	4076.8	
880.69	4178.5	
880.86	6102.3	
881.02	6053.8	
881.19	3930.7	
881.36	3814.7	
881.52	5905	
881.69	5262.6	
881.86	3808.5	
882.02	3712.3	
882.19	6263.4	
882.36	7239.6	
882.52	3638.6	
882.69	5061.9	
882.86	5726.8	
883.02	5571.2	
883.19	4323.9	
883.36	4003.8	
883.52	6028.5	
883.69	6937.8	
883.86	3620.1	
884.02	3150.5	
884.19	5986.2	
884.36	5496.1	
884.52	3998.3	
884.69	3752.6	
884.86	5236	
885.02	6616.3	
885.19	3969.6	
885.36	4093.9	
885.52	5508.4	
885.69	5651	
885.86	5134.3	
886.02	4525.3	
886.19	5979.4	
886.35	5345.9	
886.52	3895.2	
886.69	4958.8	
886.85	5108.3	
887.02	6412.2	
887.19	6412.2	
887.35	6412.2	
887.52	6412.2	
887.68	6412.2	
887.85	6412.2	
888.02	6412.2	
888.18	6412.2	
888.35	6412.2	
888.51	6412.2	
888.68	6412.2	
888.85	6412.2	
889.01	6412.2	
889.18	6412.2	
889.35	6412.2	
889.51	6412.2	
889.68	6412.2	
889.84	6412.2	
890.01	6412.2	
890.17	6412.2	
890.34	6412.2	
890.51	6412.2	
890.67	6412.2	
890.84	6412.2	
891	6412.2	
891.17	6412.2	
891.34	6412.2	
891.5	6412.2	
891.67	6412.2	
891.83	6412.2	
892	6412.2	
892.16	6412.2	
892.33	6412.2	
892.5	6412.2	
892.66	6412.2	
892.83	6412.2	
892.99	6412.2	
893.16	6412.2	
893.32	6412.2	
893.49	6412.2	
893.65	6412.2	
893.82	6412.2	
893.99	6412.2	
894.15	6412.2	
894.32	6412.2	
894.48	6412.2	
894.65	6412.2	
894.81	6412.2	
894.98	6412.2	
895.14	6412.2	
895.31	6412.2	
895.47	6412.2	
895.64	6412.2	
895.81	6412.2	
895.97	6412.2	
896.14	6412.2	
896.3	6412.2	
896.47	6412.2	
896.63	6412.2	
896.8	6412.2	
896.96	6412.2	
897.13	6412.2	
897.29	6412.2	
897.46	6412.2	
897.62	6412.2	
897.79	6412.2	
897.95	6412.2	
898.12	6412.2	
898.28	6412.2	
898.45	6412.2	
898.61	6412.2	
898.78	6412.2	
898.94	6412.2	
899.11	6412.2	
899.27	6412.2	
899.44	6412.2	
899.6	6412.2	
899.77	6412.2	
899.93	6412.2	
900.1	6412.2	
900.26	6412.2	
900.43	6412.2	
900.59	6412.2	
900.76	6412.2	
900.92	6412.2	
901.09	6412.2	
901.25	6412.2	
901.42	6412.2	
901.58	6412.2	
901.75	6412.2	
901.91	6412.2	
902.07	6412.2	
902.24	6412.2	
902.4	6412.2	
902.57	6412.2	
902.73	6412.2	
902.9	6412.2	
903.06	6412.2	
903.23	6412.2	
903.39	6412.2	
903.56	6412.2	
903.72	6412.2	
903.88	6412.2	
904.05	6412.2	
904.21	6412.2	
904.38	6412.2	
904.54	6412.2	
904.71	6412.2	
904.87	6412.2	
905.03	6412.2	
905.2	6412.2	
905.36	6412.2	
905.53	6412.2	
905.69	6412.2	
905.86	6412.2	
906.02	6412.2	
906.18	6412.2	
906.35	6412.2	
906.51	6412.2	
906.68	6412.2	
906.84	6412.2	
907.01	6412.2	
907.17	6412.2	
907.33	6412.2	
907.5	6412.2	
907.66	6412.2	
907.83	6412.2	
907.99	6412.2	
908.15	6412.2	
908.32	6412.2	
908.48	6412.2	
908.65	6412.2	
908.81	6412.2	
908.97	6412.2	
909.14	6412.2	
909.3	6412.2	
909.47	6412.2	
909.63	6412.2	
909.79	6412.2	
909.96	6412.2	
910.12	6412.2	
910.28	6412.2	
910.45	6412.2	
910.61	6412.2	
910.78	6412.2	
910.94	6412.2	
911.1	6412.2	
911.27	6412.2	
911.43	6412.2	
911.59	6412.2	
911.76	6412.2	
911.92	6412.2	
912.08	6412.2	
912.25	6412.2	
912.41	6412.2	
912.57	6412.2	
912.74	6412.2	
912.9	6412.2	
913.07	6412.2	
913.23	6412.2	
913.39	6412.2	
913.56	6412.2	
913.72	6412.2	
913.88	6412.2	
914.05	6412.2	
914.21	6412.2	
914.37	6412.2	
914.54	6412.2	
914.7	6412.2	
914.86	6412.2	
915.03	6412.2	
915.19	6412.2	
