Wavelength	Intensities	
nm	a.u.	
179.22	1914.7	
179.44	1911.1	
179.65	1918.3	
179.86	1903.9	
180.08	1957.2	
180.29	5088.5	
180.51	3593.5	
180.72	5730.9	
180.94	6733	
181.15	3295.2	
181.37	3237.8	
181.58	5616.9	
181.79	5898.1	
182.01	3422.2	
182.22	3714.3	
182.44	5850.4	
182.65	4869.4	
182.87	4564.9	
183.08	4052.9	
183.29	6165.8	
183.51	5108.3	
183.72	3734.8	
183.94	5515.9	
184.15	5444.2	
184.37	5556.8	
184.58	3260.4	
184.79	4460.5	
185.01	5024.3	
185.22	5726.8	
185.44	4837.3	
185.65	3992.2	
185.86	5329.5	
186.08	4954	
186.29	3164.1	
186.51	3432.4	
186.72	5068	
186.94	6020.3	
187.15	4005.1	
187.36	4105.5	
187.58	7860.8	
187.79	5601.2	
188.01	4246.8	
188.22	6692.1	
188.43	6757.6	
188.65	5814.2	
188.86	3407.1	
189.08	4109.6	
189.29	5293.3	
189.5	5341.8	
189.72	3834.5	
189.93	3909.6	
190.15	6019.7	
190.36	7277.8	
190.57	4175.8	
190.79	4085	
191	6173.3	
191.22	6109.8	
191.43	4206.5	
191.64	3388	
191.86	6321.4	
192.07	6108.4	
192.29	3544.4	
192.5	3788.7	
192.71	6137.1	
192.93	5218.9	
193.14	3775.1	
193.35	3829	
193.57	5182	
193.78	6048.3	
194	3034.4	
194.21	3740.3	
194.42	4988.9	
194.64	5544.5	
194.85	4098	
195.07	4842.8	
195.28	5470.1	
195.49	4758.1	
195.71	5101.5	
195.92	3543.7	
196.13	5661.3	
196.35	5787.6	
196.56	5470.1	
196.78	4130.8	
196.99	7174	
197.2	6720.8	
197.42	4743.1	
197.63	4154	
197.84	4886.5	
198.06	5648.3	
198.27	3817.4	
198.48	5150.6	
198.7	5224.4	
198.91	5395.7	
199.13	4155.3	
199.34	4090.5	
199.55	5879	
199.77	4741.7	
199.98	3710.9	
200.19	4209.9	
200.41	5366.4	
200.62	5106.3	
200.83	4341	
201.05	4631.8	
201.26	5388.9	
201.47	5153.4	
201.69	3620.1	
201.9	3535.5	
202.11	5453.7	
202.33	6520	
202.54	3953.3	
202.76	4386.1	
202.97	5586.2	
203.18	5550	
203.4	4330.1	
203.61	4192.9	
203.82	5540.4	
204.04	5203.2	
204.25	4207.9	
204.46	4114.4	
204.68	5478.3	
204.89	5764.3	
205.1	4109.6	
205.32	3486.3	
205.53	5913.9	
205.74	6023.1	
205.96	3013.9	
206.17	4294.6	
206.38	5892	
206.6	6020.3	
206.81	4702.8	
207.02	3844.7	
207.24	5758.2	
207.45	6203.3	
207.66	3948.5	
207.88	3358	
208.09	5676.3	
208.3	5525.4	
208.52	3631	
208.73	4048.8	
208.94	5470.1	
209.15	6235.4	
209.37	3975.1	
209.58	4173.1	
209.79	6096.8	
210.01	5350.7	
210.22	3119.1	
210.43	3317.7	
210.65	5558.9	
210.86	5887.2	
211.07	3960.8	
211.29	3605.1	
211.5	5788.2	
211.71	5440.8	
211.93	3605.1	
212.14	3651.5	
212.35	5417.6	
212.56	5711.1	
212.78	4197.7	
212.99	3446.7	
213.2	6488	
213.42	5241.4	
213.63	3685.7	
213.84	4040	
214.06	4840.7	
214.27	4982	
214.48	3937.6	
214.69	4252.3	
214.91	6185.5	
215.12	6309.8	
215.33	4270	
215.55	4723.3	
215.76	6782.2	
215.97	5898.1	
216.18	4090.5	
216.4	4016.7	
216.61	5209.3	
216.82	6006	
217.04	3637.9	
217.25	3775.1	
217.46	6195.1	
217.67	5916.6	
217.89	3230.3	
218.1	3323.9	
218.31	5558.2	
218.53	5689.3	
218.74	3869.3	
218.95	3690.4	
219.16	5438	
219.38	6419.7	
219.59	3728	
219.8	4483.7	
220.01	7149.5	
220.23	5525.4	
220.44	4858.5	
220.65	3604.4	
220.87	5563	
221.08	6173.3	
221.29	3364.1	
221.5	4502.1	
221.72	7585	
221.93	5225.7	
222.14	4175.8	
222.35	4915.1	
222.57	5525.4	
222.78	5880.4	
222.99	3933.5	
223.2	4235.2	
223.42	5819	
223.63	5937.1	
223.84	3018.7	
224.05	2970.2	
224.27	7091.4	
224.48	6406.7	
224.69	4916.5	
224.9	4143.7	
225.12	5704.3	
225.33	5446.9	
225.54	3339.6	
225.75	3659	
225.97	5091.9	
226.18	5318.6	
226.39	3994.9	
226.6	3743	
226.82	5233.2	
227.03	5068.7	
227.24	4226.3	
227.45	3464.5	
227.67	5860.6	
227.88	6501.6	
228.09	4665.3	
228.3	4771.1	
228.52	5949.3	
228.73	5443.5	
228.94	3844.7	
229.15	3433.8	
229.36	5369.1	
229.58	5335	
229.79	3876.1	
230	4543.1	
230.21	6539.2	
230.43	5627.8	
230.64	4109.6	
230.85	4260.5	
231.06	5969.8	
231.28	5993	
231.49	3422.2	
231.7	4036.5	
231.91	5870.8	
232.12	5451	
232.34	3525.9	
232.55	4054.3	
232.76	6145.3	
232.97	5696.8	
233.18	3642.7	
233.4	4107.5	
233.61	5748	
233.82	5210.7	
234.03	3841.3	
234.25	3717.7	
234.46	7718.8	
234.67	5587.5	
234.88	4242	
235.09	3750.5	
235.31	5864	
235.52	5378	
235.73	4141.7	
235.94	3444.7	
236.15	5235.3	
236.37	6619	
236.58	3665.2	
236.79	3957.4	
237	5808	
237.21	4975.9	
237.43	4282.3	
237.64	3382.6	
237.85	10018	
238.06	5020.9	
238.27	4385.4	
238.48	3439.2	
238.7	5846.3	
238.91	5317.2	
239.12	3915.7	
239.33	3984.7	
239.54	5086.5	
239.76	5403.2	
239.97	3954.6	
240.18	3981.9	
240.39	6951.5	
240.6	5776	
240.82	4132.8	
241.03	3302	
241.24	5513.1	
241.45	6381.5	
241.66	3612.6	
241.87	4255	
242.09	6305	
242.3	6685.3	
242.51	4280.3	
242.72	3969.6	
242.93	6006.7	
243.14	5442.1	
243.36	4615.4	
243.57	4959.5	
243.78	6404	
243.99	5849	
244.2	4017.4	
244.41	3621.5	
244.63	5017.5	
244.84	5847.6	
245.05	4270.7	
245.26	4002.4	
245.47	5797.8	
245.68	6082.5	
245.9	5311.1	
246.11	4195.6	
246.32	5378	
246.53	5752.7	
246.74	6505	
246.95	3321.1	
247.16	4978.6	
247.38	5524.1	
247.59	3276.8	
247.8	4011.3	
248.01	5170.4	
248.22	5389.6	
248.43	3620.1	
248.64	3892.5	
248.86	4890.5	
249.07	5204.6	
249.28	3464.5	
249.49	4074.8	
249.7	6067.4	
249.91	6192.4	
250.12	3309.5	
250.34	3365.5	
250.55	5606.7	
250.76	5508.4	
250.97	4103.4	
251.18	4141	
251.39	6215.6	
251.6	5679	
251.81	4232.5	
252.03	4192.9	
252.24	5218.9	
252.45	6059.9	
252.66	3518.4	
252.87	4437.9	
253.08	5550	
253.29	7337.2	
253.5	3437.9	
253.72	4859.1	
253.93	5364.3	
254.14	6526.2	
254.35	3789.4	
254.56	3936.2	
254.77	5756.8	
254.98	5073.5	
255.19	3715	
255.41	4862.6	
255.62	5563	
255.83	6240.8	
256.04	4291.9	
256.25	4194.9	
256.46	6806.8	
256.67	5160.2	
256.88	4101.4	
257.09	4608.6	
257.31	5155.4	
257.52	5214.8	
257.73	5191.6	
257.94	3751.2	
258.15	5330.2	
258.36	5535	
258.57	4841.4	
258.78	2961.4	
258.99	6013.5	
259.2	5315.8	
259.41	3774.4	
259.63	3874.1	
259.84	6412.9	
260.05	6797.9	
260.26	5038	
260.47	3700	
260.68	6109.1	
260.89	5432.6	
261.1	4594.3	
261.31	3572.3	
261.52	6083.1	
261.73	6505.7	
261.95	4876.9	
262.16	4328.7	
262.37	6271.6	
262.58	6369.9	
262.79	4901.5	
263	3876.8	
263.21	5496.7	
263.42	5011.4	
263.63	3913.7	
263.84	3827	
264.05	6049.7	
264.26	6410.1	
264.47	4783.4	
264.69	4272.1	
264.9	6211.5	
265.11	5696.1	
265.32	3687	
265.53	3750.5	
265.74	5619.6	
265.95	4867.3	
266.16	4054.3	
266.37	4498	
266.58	5622.4	
266.79	5319.9	
267	3776.5	
267.21	3478.1	
267.42	5048.2	
267.63	5494.7	
267.84	3989.4	
268.06	3373.7	
268.27	5941.8	
268.48	6266.1	
268.69	3878.9	
268.9	4583.4	
269.11	6237.4	
269.32	4958.8	
269.53	4022.9	
269.74	3631	
269.95	5862.7	
270.16	4854.4	
270.37	3998.3	
270.58	4606.6	
270.79	5303.6	
271	6059.3	
271.21	4240	
271.42	4029.7	
271.63	5641.5	
271.84	5128.8	
272.05	3206.4	
272.26	3590.1	
272.47	5459.2	
272.68	5680.4	
272.89	3855	
273.11	4451.6	
273.32	5351.3	
273.53	6509.8	
273.74	4342.4	
273.95	4154.6	
274.16	6146.6	
274.37	5577.3	
274.58	4369	
274.79	3446	
275	5672.9	
275.21	6232.7	
275.42	5224.4	
275.63	4530.1	
275.84	5720.7	
276.05	7375.4	
276.26	4187.4	
276.47	3938.9	
276.68	5264	
276.89	6576.7	
277.1	4560.1	
277.31	3521.8	
277.52	5743.2	
277.73	5947.3	
277.94	3476.8	
278.15	3824.9	
278.36	5697.4	
278.57	5139	
278.78	3820.1	
278.99	4291.9	
279.2	5111	
279.41	5113.8	
279.62	5033.9	
279.83	3566.2	
280.04	6797.2	
280.25	4986.1	
280.46	5037.3	
280.67	4001.7	
280.88	5076.2	
281.09	6209.4	
281.3	4238.6	
281.51	5328.1	
281.72	5205.9	
281.93	6085.9	
282.14	3725.9	
282.35	4067.3	
282.56	5996.5	
282.77	5943.9	
282.98	3876.8	
283.19	4748.6	
283.4	7379.5	
283.61	5463.3	
283.82	3453.6	
284.03	4931.5	
284.24	5567.7	
284.45	6178	
284.66	4915.8	
284.87	4774.5	
285.08	6113.9	
285.29	6272.9	
285.5	3378.5	
285.71	3898	
285.92	6185.5	
286.12	6891.4	
286.33	4936.3	
286.54	3869.3	
286.75	5961	
286.96	5392.3	
287.17	3536.8	
287.38	4879.6	
287.59	5175.2	
287.8	5066.7	
288.01	3926	
288.22	4481.6	
288.43	6070.2	
288.64	5059.2	
288.85	4597.7	
289.06	4398.4	
289.27	5922.7	
289.48	6449.7	
289.69	4974.5	
289.9	4487.1	
290.11	6178.7	
290.32	5149.3	
290.53	4750.6	
290.74	4382	
290.94	6000.5	
291.15	6031.3	
291.36	3775.8	
291.57	4525.3	
291.78	5243.5	
291.99	4850.3	
292.2	3508.9	
292.41	4371	
292.62	6063.4	
292.83	5878.4	
293.04	5382.7	
293.25	3610.6	
293.46	5270.1	
293.67	6124.8	
293.88	3764.2	
294.09	3624.2	
294.29	4971.8	
294.5	5677	
294.71	3994.9	
294.92	3818.8	
295.13	5350.7	
295.34	6593.1	
295.55	3366.2	
295.76	3467.2	
295.97	5939.8	
296.18	6685.3	
296.39	3501.3	
296.6	3738.9	
296.81	5601.2	
297.01	5948	
297.22	3909.6	
297.43	3710.9	
297.64	5117.9	
297.85	5201.8	
298.06	3096.5	
298.27	3338.9	
298.48	5586.9	
298.69	5238	
298.9	4095.9	
299.11	3682.2	
299.31	5033.2	
299.52	5020.9	
299.73	4382.7	
299.94	4242	
300.15	5545.9	
300.36	5080.3	
300.57	4344.4	
300.78	4248.2	
300.99	5397.8	
301.2	5674.2	
301.4	3674.7	
301.61	4067.9	
301.82	5851	
302.03	5945.3	
302.24	4563.6	
302.45	3564.8	
302.66	5788.9	
302.87	6312.5	
303.08	3730.7	
303.29	5145.2	
303.49	5295.4	
303.7	5500.2	
303.91	3295.9	
304.12	4879.6	
304.33	4988.2	
304.54	5580.7	
304.75	3728	
304.96	3599	
305.16	5881.1	
305.37	6677.1	
305.58	3236.5	
305.79	3386	
306	5753.4	
306.21	4869.4	
306.42	3746.4	
306.63	5836.7	
306.83	5322	
307.04	6164.4	
307.25	4121.2	
307.46	4083	
307.67	4643.4	
307.88	6036.7	
308.09	3639.9	
308.29	3847.5	
308.5	5592.3	
308.71	6080.4	
308.92	3990.8	
309.13	3605.8	
309.34	5381.4	
309.55	5442.1	
309.75	4607.2	
309.96	4259.1	
310.17	5926.8	
310.38	5195.7	
310.59	4520.5	
310.8	4035.2	
311.01	5309.7	
311.21	5414.8	
311.42	3589.4	
311.63	3663.1	
311.84	5236	
312.05	5680.4	
312.26	4186	
312.46	4613.4	
312.67	5357.5	
312.88	5031.9	
313.09	3594.2	
313.3	3504.1	
313.51	6384.2	
313.71	6705.7	
313.92	3542.3	
314.13	3833.1	
314.34	5692	
314.55	5430.5	
314.76	4696	
314.96	4118.5	
315.17	5588.2	
315.38	5940.5	
315.59	3634.5	
315.8	3415.3	
316.01	6453.1	
316.21	6490	
316.42	3504.1	
316.63	3936.2	
316.84	5365	
317.05	6291.4	
317.26	4271.4	
317.46	3818.8	
317.67	5389.6	
317.88	5953.4	
318.09	4561.5	
318.3	3328.6	
318.5	5163.6	
318.71	5879	
318.92	5890.6	
319.13	4267.3	
319.34	6036.7	
319.54	6195.1	
319.75	3382.6	
319.96	3175	
320.17	5940.5	
320.38	6089.3	
320.58	3246	
320.79	3908.2	
321	6147.3	
321.21	6186.2	
321.42	4048.8	
321.62	3266.5	
321.83	5124.7	
322.04	5547.9	
322.25	3863.8	
322.46	3617.4	
322.66	5629.2	
322.87	5797.1	
323.08	4527.4	
323.29	3576.4	
323.5	6597.9	
323.7	5071.5	
323.91	4985.4	
324.12	4426.3	
324.33	5540.4	
324.53	5859.9	
324.74	4279.6	
324.95	4488.5	
325.16	4915.8	
325.37	5319.3	
325.57	3651.5	
325.78	3690.4	
325.99	5565	
326.2	5004.6	
326.4	5169.1	
326.61	3314.3	
326.82	5452.4	
327.03	5652.4	
327.24	5197.1	
327.44	4954	
327.65	5775.3	
327.86	4657.1	
328.07	4323.9	
328.27	3482.9	
328.48	6197.2	
328.69	5116.5	
328.9	5213.4	
329.1	3911.6	
329.31	5412.8	
329.52	6397.9	
329.73	3629	
329.93	4122.6	
330.14	5500.2	
330.35	5784.8	
330.56	5971.2	
330.76	4454.3	
330.97	5360.2	
331.18	5755.5	
331.39	4066.6	
331.59	3284.3	
331.8	6115.9	
332.01	6305	
332.22	3772.4	
332.42	4367.6	
332.63	5630.5	
332.84	5273.5	
333.05	4020.8	
333.25	3672.7	
333.46	5298.8	
333.67	5509	
333.88	3817.4	
334.08	4190.8	
334.29	7420.5	
334.5	6193.7	
334.7	3544.4	
334.91	5229.8	
335.12	5039.4	
335.33	5984.8	
335.53	4037.9	
335.74	5966.4	
335.95	5269.4	
336.16	5117.9	
336.36	4108.9	
336.57	4634.6	
336.78	4984.8	
336.98	6124.1	
337.19	4962.2	
337.4	3937.6	
337.61	6690	
337.81	5031.2	
338.02	3687	
338.23	4844.1	
338.43	6292	
338.64	5225.7	
338.85	3670	
339.05	4758.8	
339.26	6414.9	
339.47	4941.7	
339.68	3657	
339.88	5487.2	
340.09	5826.5	
340.3	5970.5	
340.5	4236.6	
340.71	3244	
340.92	4962.9	
341.13	6362.4	
341.33	3477.5	
341.54	4273.4	
341.75	5766.4	
341.95	5391.6	
342.16	4085	
342.37	4468.7	
342.57	5097.4	
342.78	5534.3	
342.99	4599.7	
343.19	3235.1	
343.4	5932.3	
343.61	5788.9	
343.81	3844	
344.02	3619.4	
344.23	5976.7	
344.43	6419.7	
344.64	4537.6	
344.85	4463.2	
345.06	5748.6	
345.26	6156.9	
345.47	4220.9	
345.68	5024.3	
345.88	4882.4	
346.09	5976.7	
346.3	4286.4	
346.5	3217.4	
346.71	5560.2	
346.92	5279	
347.12	3306.1	
347.33	4162.2	
347.54	6125.5	
347.74	6632	
347.95	4160.1	
348.16	3112.2	
348.36	5326.8	
348.57	5124.7	
348.78	4117.8	
348.98	4472.8	
349.19	5516.5	
349.39	4999.8	
349.6	3311.6	
349.81	3709.6	
350.01	5830.6	
350.22	5224.4	
350.43	3960.8	
350.63	4855.1	
350.84	5578.7	
351.05	5360.9	
351.25	3669.3	
351.46	3317	
351.67	6182.8	
351.87	5258.5	
352.08	3930.7	
352.29	4552	
352.49	5991.7	
352.7	5702.9	
352.9	3587.4	
353.11	4464.6	
353.32	6670.9	
353.52	5372.5	
353.73	3547.8	
353.94	4515.8	
354.14	5791	
354.35	5630.5	
354.55	3629	
354.76	3999.7	
354.97	5885.9	
355.17	5590.3	
355.38	3450.1	
355.59	4846.9	
355.79	5240.1	
356	5627.8	
356.2	4087.1	
356.41	3580.5	
356.62	4995.7	
356.82	5539.8	
357.03	4298.7	
357.24	3919.1	
357.44	5334.3	
357.65	5359.5	
357.85	5197.7	
358.06	4158.7	
358.27	5014.8	
358.47	5257.8	
358.68	3451.5	
358.88	4328.7	
359.09	5814.9	
359.3	6242.2	
359.5	5051	
359.71	4483.7	
359.91	6705.7	
360.12	6021.7	
360.33	4324.6	
360.53	4866	
360.74	5246.2	
360.94	5356.8	
361.15	4476.2	
361.36	3776.5	
361.56	6096.1	
361.77	5530.9	
361.97	5125.4	
362.18	3969.6	
362.38	6084.5	
362.59	5171.8	
362.8	3701.4	
363	3562.8	
363.21	4975.9	
363.41	5671.5	
363.62	4259.8	
363.83	5356.1	
364.03	5722	
364.24	6776	
364.44	5416.9	
364.65	5343.8	
364.85	5545.2	
365.06	5183.4	
365.27	3879.5	
365.47	3893.2	
365.68	6508.4	
365.88	5505.6	
366.09	4347.2	
366.29	3984	
366.5	5777.3	
366.71	6270.2	
366.91	5418.9	
367.12	4471.4	
367.32	6844.3	
367.53	6072.2	
367.73	4499.4	
367.94	5382.1	
368.14	5986.2	
368.35	6954.9	
368.56	4410.6	
368.76	3822.2	
368.97	6098.2	
369.17	7899.7	
369.38	3912.3	
369.58	4182.6	
369.79	5145.9	
369.99	6435.4	
370.2	5209.3	
370.4	4354.7	
370.61	5833.3	
370.82	7065.5	
371.02	4175.8	
371.23	3510.9	
371.43	5061.9	
371.64	6487.3	
371.84	4234.5	
372.05	5457.8	
372.25	7848.5	
372.46	6210.1	
372.66	4275.5	
372.87	4211.3	
373.07	6260.6	
373.28	7847.1	
373.48	5319.3	
373.69	5066	
373.9	5627.8	
374.1	5735.7	
374.31	5200.5	
374.51	4790.9	
374.72	6581.5	
374.92	5382.7	
375.13	5410.1	
375.33	4516.5	
375.54	6125.5	
375.74	5543.9	
375.95	4653.7	
376.15	5951.4	
376.36	6146.6	
376.56	6006.7	
376.77	4773.8	
376.97	5233.2	
377.18	7245	
377.38	6248.4	
377.59	5634.6	
377.79	4257	
378	6098.9	
378.2	6562.4	
378.41	4321.9	
378.61	4253.6	
378.82	6485.2	
379.02	5662	
379.23	4483	
379.43	5651.7	
379.64	6568.5	
379.84	6250.4	
380.05	4292.5	
380.25	4207.2	
380.46	6335	
380.66	5917.9	
380.87	5674.9	
381.07	6151.4	
381.28	6988.4	
381.48	6342.6	
381.69	4307.6	
381.89	4391.5	
382.1	5329.5	
382.3	6475.7	
382.51	5504.3	
382.71	6460	
382.91	6348.7	
383.12	6845	
383.32	4713.1	
383.53	4900.1	
383.73	6163	
383.94	5930.9	
384.14	4833.9	
384.35	3921.9	
384.55	5799.8	
384.76	6338.5	
384.96	4602.5	
385.17	4969.7	
385.37	6334.4	
385.58	5585.5	
385.78	5029.8	
385.98	3886.4	
386.19	5784.1	
386.39	6226.5	
386.6	4427	
386.8	4571.7	
387.01	6402.6	
387.21	6386.2	
387.42	5093.3	
387.62	5741.8	
387.83	5677	
388.03	6329.6	
388.23	4791.6	
388.44	5554.1	
388.64	5301.5	
388.85	5480.4	
389.05	5129.5	
389.26	5760.9	
389.46	7131.7	
389.67	6804.7	
389.87	5070.8	
390.07	5179.3	
390.28	5948	
390.48	5597.1	
390.69	4377.9	
390.89	4608.6	
391.1	5728.9	
391.3	6741.2	
391.5	5882.4	
391.71	6562.4	
391.91	6401.3	
392.12	7551.5	
392.32	5981.4	
392.53	5198.4	
392.73	5786.9	
392.93	6007.4	
393.14	4773.8	
393.34	5591	
393.55	6498.2	
393.75	5909.1	
393.95	4751.3	
394.16	4691.2	
394.36	5783.5	
394.57	6471.6	
394.77	4265.9	
394.98	4683	
395.18	5793.7	
395.38	5917.9	
395.59	5590.3	
395.79	4592.2	
396	5875.6	
396.2	6389	
396.4	5415.5	
396.61	5354.1	
396.81	6620.4	
397.02	5823.7	
397.22	5620.3	
397.42	5725.4	
397.63	6657.9	
397.83	5831.2	
398.04	4528.7	
398.24	5117.2	
398.44	6371.2	
398.65	5407.3	
398.85	4358.8	
399.05	4525.3	
399.26	5780.7	
399.46	7584.3	
399.67	4846.9	
399.87	4601.8	
400.07	6203.3	
400.28	6516.6	
400.48	4756.7	
400.69	5890	
400.89	6812.9	
401.09	7219.8	
401.3	4665.3	
401.5	5832.6	
401.7	7557	
401.91	7775.5	
402.11	4937.7	
402.32	5205.3	
402.52	6840.9	
402.72	6619	
402.93	5352.7	
403.13	4151.9	
403.33	7459.4	
403.54	6140.5	
403.74	5035.3	
403.94	5936.4	
404.15	6195.8	
404.35	7413.6	
404.56	4846.9	
404.76	6779.5	
404.96	6743.3	
405.17	6559	
405.37	6165.8	
405.57	5384.1	
405.78	6899.6	
405.98	6300.2	
406.18	4803.2	
406.39	5876.3	
406.59	6778.8	
406.79	6298.9	
407	4635.9	
407.2	4801.8	
407.4	6706.4	
407.61	7047.1	
407.81	4789.5	
408.01	6646.3	
408.22	5797.1	
408.42	7952.9	
408.62	6075	
408.83	5480.4	
409.03	6364.4	
409.23	6338.5	
409.44	5563	
409.64	5945.9	
409.84	7489.4	
410.05	7429.3	
410.25	5684.5	
410.45	5453.1	
410.66	6902.3	
410.86	9414.5	
411.06	5978.7	
411.27	5806.7	
411.47	9278	
411.67	7071	
411.88	6164.4	
412.08	6419.7	
412.28	7686	
412.49	8262.9	
412.69	5820.3	
412.89	5913.2	
413.09	8090.8	
413.3	7948.2	
413.5	5893.4	
413.7	5539.8	
413.91	7165.8	
414.11	8084	
414.31	5758.2	
414.52	6320.7	
414.72	7768.6	
414.92	7718.1	
415.12	5746.6	
415.33	6352.8	
415.53	8044.4	
415.73	8272.4	
415.94	6658.6	
416.14	6223.8	
416.34	6982.9	
416.55	6782.9	
416.75	7408.9	
416.95	6820.4	
417.15	8026.7	
417.36	8839	
417.56	7640.3	
417.76	6680.5	
417.97	8467.7	
418.17	8156.4	
418.37	6197.2	
418.57	6324.8	
418.78	7828.7	
418.98	7523.6	
419.18	7167.2	
419.38	7038.9	
419.59	7525.6	
419.79	7075.7	
419.99	6105.7	
420.2	6505	
420.4	8051.9	
420.6	8266.3	
420.8	6002.6	
421.01	5879.7	
421.21	7957	
421.41	8139.3	
421.61	6453.8	
421.82	6010.1	
422.02	7380.2	
422.22	8353.7	
422.42	6996.5	
422.63	6520.7	
422.83	7547.4	
423.03	8749.6	
423.23	6498.9	
423.44	5514.5	
423.64	7606.8	
423.84	7277.8	
424.04	5948.7	
424.25	5610.1	
424.45	8475.2	
424.65	8462.9	
424.85	5346.6	
425.06	5960.3	
425.26	8482	
425.46	6993.1	
425.66	6505	
425.87	6184.2	
426.07	8178.9	
426.27	7974.1	
426.47	6348.7	
426.67	5595.7	
426.88	8521.6	
427.08	7980.3	
427.28	6556.2	
427.48	5594.4	
427.69	6737.8	
427.89	7453.9	
428.09	6616.3	
428.29	5636.7	
428.5	8236.9	
428.7	7720.2	
428.9	5529.5	
429.1	6193.1	
429.3	7557.7	
429.51	8147.5	
429.71	5852.4	
429.91	6673.6	
430.11	7959.8	
430.31	8184.4	
430.52	6259.3	
430.72	6521.4	
430.92	8523	
431.12	8062.2	
431.32	5958.9	
431.53	6335.7	
431.73	6881.2	
431.93	8581.7	
432.13	5803.3	
432.33	5697.4	
432.54	7420.5	
432.74	7808.9	
432.94	5578.7	
433.14	6666.8	
433.34	7933.1	
433.55	7416.4	
433.75	6651.8	
433.95	8513.4	
434.15	7756.3	
434.35	7404.8	
434.56	5837.4	
434.76	5324.7	
434.96	7697.6	
435.16	7998.7	
435.36	5721.3	
435.56	6846.4	
435.77	7438.9	
435.97	7468.9	
436.17	7694.2	
436.37	6856.6	
436.57	7359	
436.78	7273.7	
436.98	8630.8	
437.18	7368.6	
437.38	8172.8	
437.58	7496.9	
437.78	7482.6	
437.99	6033.3	
438.19	8027.4	
438.39	8830.2	
438.59	6010.1	
438.79	5451.7	
438.99	8757.1	
439.2	7511.9	
439.4	5660.6	
439.6	5601.2	
439.8	7884	
440	9092.3	
440.2	6766.5	
440.4	6993.8	
440.61	8279.3	
440.81	8921	
441.01	5959.6	
441.21	6872.3	
441.41	8753.7	
441.61	8320.2	
441.81	7210.2	
442.02	8295.6	
442.22	9260.9	
442.42	8463.6	
442.62	6006.7	
442.82	6064	
443.02	8755.7	
443.22	7815.7	
443.43	6527.6	
443.63	6047.7	
443.83	7582.9	
444.03	7793.9	
444.23	7264.8	
444.43	6865.5	
444.63	7963.9	
444.83	9263.6	
445.04	6221.7	
445.24	7455.3	
445.44	8307.9	
445.64	8406.9	
445.84	6875.7	
446.04	6875.7	
446.24	7587	
446.44	8642.4	
446.65	6032.6	
446.85	6526.2	
447.05	7679.9	
447.25	8662.2	
447.45	6612.9	
447.65	5894.1	
447.85	7995.3	
448.05	7573.4	
448.25	7020.4	
448.46	6826.6	
448.66	7914	
448.86	7603.4	
449.06	5836	
449.26	7085.3	
449.46	8352.3	
449.66	7334.5	
449.86	6483.9	
450.06	6539.2	
450.26	7536.5	
450.47	8168.7	
450.67	6724.2	
450.87	7093.5	
451.07	8288.1	
451.27	8023.3	
451.47	5923.4	
451.67	6615.6	
451.87	7680.6	
452.07	8826.1	
452.27	6313.2	
452.47	6249	
452.67	7913.4	
452.88	8674.5	
453.08	5532.9	
453.28	7651.9	
453.48	9210.4	
453.68	7907.2	
453.88	6185.5	
454.08	6409.5	
454.28	8378.2	
454.48	8034.2	
454.68	6981.5	
454.88	7574.8	
455.08	8423.3	
455.28	8229.4	
455.48	6072.2	
455.68	6827.2	
455.89	8975.6	
456.09	8613.8	
456.29	6385.6	
456.49	6584.9	
456.69	8837	
456.89	7967.3	
457.09	7075.7	
457.29	7430	
457.49	8489.5	
457.69	8594	
457.89	6920.8	
458.09	6216.3	
458.29	8164.6	
458.49	8957.1	
458.69	7361.1	
458.89	6707.1	
459.09	9265	
459.29	9398.1	
459.49	6820.4	
459.69	7658.7	
459.9	8689.5	
460.1	8319.5	
460.3	6720.8	
460.5	6461.3	
460.7	8725	
460.9	8470.4	
461.1	6139.1	
461.3	7509.2	
461.5	9409.1	
461.7	9092.3	
461.9	6604.7	
462.1	7027.3	
462.3	8446.5	
462.5	9097.8	
462.7	6669.6	
462.9	6814.3	
463.1	10293	
463.3	9882.1	
463.5	6967.2	
463.7	8082	
463.9	8802.9	
464.1	9181.7	
464.3	7221.1	
464.5	7416.4	
464.7	9456.8	
464.9	9098.4	
465.1	8828.1	
465.3	7753.6	
465.5	9699.2	
465.7	9691.7	
465.9	8076.5	
466.1	7892.2	
466.3	9592	
466.5	9297.1	
466.7	8785.1	
466.9	7655.3	
467.1	9275.3	
467.3	10345	
467.5	8796.7	
467.7	7563.8	
467.9	10563	
468.1	11512	
468.3	8342.7	
468.5	8806.3	
468.7	9301.9	
468.9	9204.3	
469.1	7891.5	
469.3	8641.1	
469.5	11332	
469.7	8856.1	
469.9	8301.1	
470.1	7595.2	
470.3	9327.8	
470.5	9322.4	
470.7	8865	
470.9	7634.1	
471.1	9052.7	
471.3	9497.8	
471.5	7421.2	
471.69	9485.5	
471.89	8858.8	
472.09	8467	
472.29	8396.7	
472.49	8657.4	
472.69	8628.8	
472.89	9535.3	
473.09	7380.9	
473.29	7514	
473.49	8759.2	
473.69	8958.5	
473.89	8492.2	
474.09	7611.6	
474.29	10238	
474.49	9902.6	
474.69	8487.5	
474.89	7705.1	
475.09	8981	
475.29	8808.3	
475.49	7167.2	
475.69	7381.6	
475.88	10580	
476.08	9278.7	
476.28	6987.7	
476.48	7507.9	
476.68	9705.3	
476.88	9501.2	
477.08	7306.5	
477.28	7651.2	
477.48	8960.5	
477.68	9660.3	
477.88	7192.5	
478.08	7552.2	
478.28	10005	
478.48	9108.7	
478.67	7487.4	
478.87	6898.9	
479.07	9841.9	
479.27	9181.7	
479.47	7867.6	
479.67	7693.5	
479.87	9553.8	
480.07	10148	
480.27	6926.9	
480.47	8613.8	
480.67	9275.9	
480.87	9828.2	
481.06	7212.9	
481.26	8045.1	
481.46	9069.8	
481.66	9133.9	
481.86	7706.5	
482.06	8884.8	
482.26	8761.2	
482.46	9799.5	
482.66	7720.8	
482.86	7264.8	
483.05	9228.1	
483.25	8698.4	
483.45	10331	
483.65	7724.9	
483.85	8861.6	
484.05	9133.9	
484.25	8073.8	
484.45	8687.5	
484.65	10081	
484.84	10107	
485.04	7626.6	
485.24	7671	
485.44	10312	
485.64	8666.3	
485.84	6902.3	
486.04	8444.5	
486.24	8964	
486.44	9432.3	
486.63	6914.6	
486.83	7793.2	
487.03	8947.6	
487.23	9183.1	
487.43	6963.1	
487.63	9589.3	
487.83	9182.4	
488.02	10253	
488.22	8098.4	
488.42	8890.9	
488.62	10084	
488.82	9001.5	
489.02	7646.4	
489.22	7782.3	
489.41	10015	
489.61	9619.3	
489.81	7496.9	
490.01	7466.2	
490.21	9956.5	
490.41	10500	
490.61	7379.5	
490.8	7482.6	
491	9194.7	
491.2	8570.1	
491.4	8163.2	
491.6	7131	
491.8	9191.3	
491.99	9371.5	
492.19	7092.8	
492.39	7494.9	
492.59	9895.8	
492.79	10051	
492.99	8451.3	
493.18	7452.6	
493.38	9977.7	
493.58	10916	
493.78	8262.9	
493.98	7745.4	
494.18	9733.3	
494.37	9222.7	
494.57	8529.1	
494.77	8351.6	
494.97	9981.8	
495.17	10438	
495.37	7983.7	
495.56	8287.4	
495.76	10440	
495.96	10189	
496.16	9312.1	
496.36	8178.9	
496.55	10313	
496.75	9796.8	
496.95	8544.1	
497.15	8404.2	
497.35	10271	
497.54	10257	
497.74	8148.9	
497.94	9927.2	
498.14	11074	
498.34	10771	
498.53	7967.3	
498.73	8687.5	
498.93	9753.1	
499.13	10236	
499.33	8444.5	
499.52	9073.2	
499.72	10183	
499.92	10671	
500.12	8219.9	
500.32	8453.3	
500.51	10477	
500.71	10299	
500.91	9263.6	
501.11	8866.3	
501.31	10555	
501.5	10847	
501.7	9543.5	
501.9	8390.5	
502.1	10237	
502.29	10585	
502.49	8981	
502.69	9396.1	
502.89	10340	
503.09	10361	
503.28	7800.7	
503.48	7948.2	
503.68	9534	
503.88	9639.1	
504.07	9019.3	
504.27	8467	
504.47	9886.9	
504.67	10101	
504.86	8938	
505.06	8531.8	
505.26	9557.2	
505.46	11450	
505.65	8331.8	
505.85	8516.8	
506.05	9398.8	
506.25	9911.5	
506.44	7650.5	
506.64	8671.1	
506.84	9335.3	
507.04	10395	
507.23	7909.3	
507.43	8542.8	
507.63	11453	
507.83	9662.3	
508.02	8438.3	
508.22	7985	
508.42	11701	
508.62	9237.7	
508.81	8512.7	
509.01	8752.3	
509.21	9140.1	
509.4	9515.5	
509.6	8498.4	
509.8	7889.5	
510	9435.7	
510.19	10956	
510.39	7878.5	
510.59	7901.7	
510.79	9250.7	
510.98	10771	
511.18	7896.3	
511.38	8136.6	
511.57	10178	
511.77	9925.1	
511.97	8666.3	
512.17	7610.3	
512.36	9978.4	
512.56	10014	
512.76	7786.4	
512.95	7541.3	
513.15	10246	
513.35	8810.4	
513.55	8671.1	
513.74	7922.2	
513.94	10139	
514.14	9574.9	
514.33	8738	
514.53	8633.6	
514.73	9529.2	
514.92	9672.6	
515.12	7973.4	
515.32	7848.5	
515.51	9893.1	
515.71	10488	
515.91	9682.1	
516.11	7928.4	
516.3	11580	
516.5	9413.8	
516.7	8501.8	
516.89	9066.4	
517.09	9499.8	
517.29	9413.8	
517.48	8736.6	
517.68	8181	
517.88	9275.9	
518.07	9929.9	
518.27	8641.7	
518.47	7719.5	
518.66	10508	
518.86	9002.2	
519.06	7456	
519.25	8046.5	
519.45	9489.6	
519.65	10953	
519.84	8665	
520.04	9398.1	
520.24	11292	
520.43	10019	
520.63	8273.1	
520.83	7935.2	
521.02	9161.9	
521.22	9872.6	
521.42	8548.9	
521.61	9189.2	
521.81	9438.4	
522.01	9606.3	
522.2	8453.3	
522.4	8172.8	
522.6	10180	
522.79	8987.2	
522.99	8325.7	
523.18	7707.2	
523.38	9957.2	
523.58	9971.6	
523.77	9867.8	
523.97	7677.2	
524.17	11952	
524.36	10963	
524.56	9043.8	
524.76	8800.8	
524.95	9975	
525.15	9605	
525.34	8471.8	
525.54	8543.4	
525.74	10348	
525.93	9303.2	
526.13	9770.9	
526.33	8401.5	
526.52	10636	
526.72	10160	
526.91	9689.6	
527.11	9015.8	
527.31	10731	
527.5	11228	
527.7	8919.6	
527.89	7809.6	
528.09	9627.5	
528.29	10221	
528.48	9413.1	
528.68	9045.2	
528.87	10587	
529.07	10609	
529.27	8797.4	
529.46	8240.3	
529.66	10025	
529.85	10605	
530.05	8107.9	
530.25	8843.8	
530.44	11626	
530.64	10105	
530.83	8559.8	
531.03	8847.9	
531.23	10526	
531.42	10455	
531.62	9645.9	
531.81	8756.4	
532.01	10801	
532.21	11249	
532.4	8617.9	
532.6	8989.9	
532.79	11704	
532.99	10884	
533.18	9167.4	
533.38	10068	
533.58	10428	
533.77	11231	
533.97	9007	
534.16	9791.3	
534.36	11486	
534.55	10419	
534.75	9980.4	
534.95	9123.7	
535.14	11211	
535.34	10402	
535.53	8714.1	
535.73	10710	
535.92	11741	
536.12	10504	
536.31	8753.7	
536.51	9923.8	
536.71	10722	
536.9	10432	
537.1	8841.8	
537.29	9082.7	
537.49	11264	
537.68	10260	
537.88	9472.5	
538.07	8582.4	
538.27	10554	
538.46	11663	
538.66	8622.6	
538.86	9009.7	
539.05	10551	
539.25	11101	
539.44	9321.7	
539.64	8857.5	
539.83	10381	
540.03	11406	
540.22	8582.4	
540.42	8863.6	
540.61	10643	
540.81	10750	
541	9301.9	
541.2	9957.9	
541.39	10161	
541.59	10525	
541.78	9665.7	
541.98	8581	
542.18	9688.9	
542.37	9736.7	
542.57	8941.4	
542.76	9548.3	
542.96	9775	
543.15	10460	
543.35	8956.4	
543.54	8233.5	
543.74	10789	
543.93	10350	
544.13	8884.8	
544.32	10129	
544.52	10794	
544.71	9862.3	
544.91	7937.9	
545.1	9340.1	
545.3	9869.2	
545.49	10636	
545.69	7906.5	
545.88	8616.5	
546.08	11630	
546.27	11131	
546.47	9153.1	
546.66	8354.3	
546.86	10841	
547.05	11469	
547.24	8577.6	
547.44	8405.5	
547.63	9594.1	
547.83	10833	
548.02	8839	
548.22	9052.7	
548.41	9424.1	
548.61	10910	
548.8	8351.6	
549	8372.8	
549.19	10146	
549.39	10480	
549.58	7989.8	
549.78	8674.5	
549.97	10546	
550.17	10002	
550.36	9453.4	
550.55	10529	
550.75	10047	
550.94	11011	
551.14	8157.7	
551.33	8699.8	
551.53	9329.9	
551.72	10396	
551.92	8711.4	
552.11	8432.9	
552.31	10467	
552.5	10515	
552.69	10158	
552.89	7980.3	
553.08	10357	
553.28	10079	
553.47	8384.4	
553.67	9602.9	
553.86	11057	
554.06	9306	
554.25	7567.9	
554.44	8208.3	
554.64	11858	
554.83	11308	
555.03	8206.9	
555.22	8509.3	
555.42	10560	
555.61	10282	
555.8	8374.8	
556	8728.4	
556.19	9372.9	
556.39	10638	
556.58	8402.1	
556.78	8344.8	
556.97	10153	
557.16	9739.5	
557.36	9755.8	
557.55	8075.1	
557.75	9062.9	
557.94	11058	
558.13	8190.5	
558.33	7909.3	
558.52	10763	
558.72	9590	
558.91	7934.5	
559.1	8257.4	
559.3	9084.1	
559.49	8862.2	
559.69	7623.2	
559.88	8632.9	
560.07	10178	
560.27	10494	
560.46	8798.1	
560.66	8989.9	
560.85	9887.6	
561.04	8987.2	
561.24	7897	
561.43	8090.2	
561.63	9310.1	
561.82	9576.3	
562.01	9501.9	
562.21	8495	
562.4	9985.2	
562.59	11058	
562.79	8379.6	
562.98	7975.5	
563.18	9953.8	
563.37	11554	
563.56	8883.4	
563.76	7832.1	
563.95	9394	
564.14	9275.9	
564.34	8298.4	
564.53	8060.1	
564.73	9855.5	
564.92	10285	
565.11	8485.4	
565.31	7750.2	
565.5	10584	
565.69	9473.9	
565.89	8005.5	
566.08	8393.3	
566.27	10391	
566.47	10862	
566.66	9024	
566.85	7624.6	
567.05	9954.5	
567.24	9292.3	
567.44	7944.1	
567.63	9379.7	
567.82	10101	
568.02	9966.8	
568.21	7916.8	
568.4	8314.8	
568.6	9758.6	
568.79	9792.7	
568.98	7706.5	
569.18	7961.1	
569.37	9784.5	
569.56	11885	
569.76	8306.6	
569.95	9207	
570.14	10126	
570.34	10008	
570.53	7737.2	
570.72	7721.5	
570.91	10490	
571.11	9577.7	
571.3	8205.5	
571.49	9133.9	
571.69	9683.5	
571.88	9220	
572.07	8776.9	
572.27	8721.6	
572.46	9275.3	
572.65	10335	
572.85	7978.9	
573.04	8356.4	
573.23	10570	
573.43	9786.6	
573.62	7708.6	
573.81	8452.6	
574	9854.8	
574.2	9572.2	
574.39	8123.6	
574.58	8366	
574.78	10784	
574.97	9908.8	
575.16	8588.5	
575.36	8883.4	
575.55	10312	
575.74	10465	
575.93	7700.4	
576.13	8879.3	
576.32	9643.2	
576.51	10252	
576.71	8267.6	
576.9	9592	
577.09	10590	
577.28	10112	
577.48	8755.1	
577.67	7578.2	
577.86	9740.1	
578.05	10081	
578.25	8331.8	
578.44	8466.3	
578.63	9879.4	
578.83	11217	
579.02	7713.3	
579.21	9301.2	
579.4	10090	
579.6	9751.7	
579.79	8570.1	
579.98	10811	
580.17	10440	
580.37	10550	
580.56	7925	
580.75	8750.3	
580.94	11123	
581.14	10884	
581.33	9285.5	
581.52	8135.9	
581.71	10396	
581.91	11004	
582.1	7831.4	
582.29	8407.6	
582.48	10016	
582.68	9946.3	
582.87	9039.7	
583.06	8558.5	
583.25	10368	
583.45	10264	
583.64	9306.7	
583.83	10043	
584.02	9770.2	
584.21	10275	
584.41	9389.3	
584.6	8490.2	
584.79	10043	
584.98	10789	
585.18	7892.9	
585.37	7925.6	
585.56	9494.4	
585.75	10372	
585.94	8179.6	
586.14	8863.6	
586.33	10986	
586.52	9865.1	
586.71	8640.4	
586.91	8307.2	
587.1	9176.9	
587.29	10277	
587.48	8312.7	
587.67	8086.7	
587.87	10126	
588.06	10233	
588.25	9381.7	
588.44	8680	
588.63	9643.2	
588.83	10173	
589.02	7942	
589.21	7778.2	
589.4	9179	
589.59	8942.8	
589.78	6912.6	
589.98	7131.7	
590.17	8655.4	
590.36	9157.8	
590.55	6507.1	
590.74	7447.1	
590.94	10647	
591.13	9138.7	
591.32	7299.6	
591.51	6776	
591.7	9716.2	
591.89	9174.9	
592.09	6946	
592.28	7449.8	
592.47	8297	
592.66	10262	
592.85	6858	
593.05	7195.9	
593.24	8936.7	
593.43	9812.5	
593.62	7283.9	
593.81	7869.7	
594	9002.9	
594.19	9275.3	
594.39	7190.4	
594.58	7098.9	
594.77	9415.2	
594.96	9990.7	
595.15	6939.2	
595.34	7671	
595.54	9306	
595.73	8356.4	
595.92	6377.4	
596.11	7674.4	
596.3	10064	
596.49	8580.3	
596.68	7452.6	
596.88	7899.7	
597.07	9677.3	
597.26	8455.4	
597.45	6924.2	
597.64	8245.1	
597.83	8662.9	
598.02	9327.1	
598.22	7045	
598.41	7784.3	
598.6	9196.1	
598.79	8577.6	
598.98	7191.8	
599.17	8118.1	
599.36	9229.5	
599.55	10474	
599.74	9265.7	
599.94	9045.9	
600.13	9800.9	
600.32	8626.7	
600.51	6883.9	
600.7	7101.7	
600.89	10501	
601.08	10575	
601.27	6890	
601.47	7891.5	
601.66	9753.8	
601.85	10451	
602.04	7604.8	
602.23	7871	
602.42	8738.7	
602.61	9542.9	
602.8	7492.2	
602.99	7269.6	
603.18	9132.6	
603.37	9490.3	
603.57	7917.4	
603.76	8602.2	
603.95	10357	
604.14	9833	
604.33	7399.3	
604.52	7843.7	
604.71	9488.2	
604.9	8996	
605.09	8387.8	
605.28	8185.7	
605.47	10053	
605.66	9738.1	
605.86	8066.9	
606.05	7397.3	
606.24	10054	
606.43	8525.7	
606.62	7763.8	
606.81	8495	
607	9816.6	
607.19	9185.8	
607.38	7158.3	
607.57	7429.3	
607.76	8940.1	
607.95	8376.2	
608.14	7674.4	
608.33	8367.3	
608.52	8871.1	
608.72	9800.9	
608.91	6963.1	
609.1	6961.7	
609.29	8995.4	
609.48	8542.1	
609.67	7965.9	
609.86	7035.5	
610.05	8527.1	
610.24	8935.3	
610.43	6845.7	
610.62	6420.4	
610.81	10189	
611	9842.5	
611.19	6989.7	
611.38	7817.8	
611.57	9295	
611.76	10698	
611.95	6756.2	
612.14	6662	
612.33	8990.6	
612.52	8515.5	
612.71	7310.6	
612.9	6457.2	
613.09	8176.9	
613.28	10555	
613.47	6935.1	
613.66	8120.9	
613.85	9184.5	
614.04	8697	
614.24	7132.4	
614.43	6363.7	
614.62	9280	
614.81	9189.9	
615	7757.7	
615.19	7765.9	
615.38	8553	
615.57	8916.9	
615.76	7613.7	
615.95	8575.5	
616.14	9308.7	
616.33	8904.6	
616.52	7818.5	
616.71	8140	
616.9	9275.3	
617.09	9157.2	
617.28	7223.9	
617.47	8531.8	
617.66	8393.9	
617.85	8434.9	
618.04	8258.1	
618.22	7679.2	
618.41	8770.1	
618.6	9697.1	
618.79	7583.6	
618.98	7150.8	
619.17	9965.4	
619.36	8237.6	
619.55	7338.6	
619.74	7473	
619.93	9250	
620.12	8609	
620.31	8094.3	
620.5	8215.8	
620.69	9907.4	
620.88	10230	
621.07	8881.4	
621.26	7911.3	
621.45	9387.9	
621.64	9424.8	
621.83	8021.2	
622.02	7174	
622.21	9437.7	
622.4	9235	
622.59	8475.2	
622.78	8311.3	
622.97	8733.9	
623.16	9785.9	
623.35	7886.7	
623.54	6984.9	
623.72	8974.2	
623.91	9133.3	
624.1	8226.7	
624.29	6754.2	
624.48	10198	
624.67	9463	
624.86	8151.6	
625.05	7107.1	
625.24	10277	
625.43	8582.4	
625.62	9787.9	
625.81	7275.8	
626	9807.7	
626.19	8972.2	
626.38	8095.6	
626.56	7418.4	
626.75	8706.6	
626.94	9547.6	
627.13	8080.6	
627.32	6632.7	
627.51	9337.4	
627.7	10755	
627.89	6845.7	
628.08	7940.7	
628.27	8501.1	
628.46	8723	
628.65	7085.3	
628.83	6754.9	
629.02	9392	
629.21	8615.8	
629.4	7722.9	
629.59	7899	
629.78	8578.3	
629.97	9687.6	
630.16	7924.3	
630.35	7342	
630.54	10118	
630.72	9847.3	
630.91	7273	
631.1	7880.6	
631.29	9250	
631.48	9377	
631.67	7940	
631.86	7359.7	
632.05	8813.8	
632.24	8929.8	
632.42	7094.8	
632.61	7772.7	
632.8	8941.4	
632.99	8567.3	
633.18	7845.8	
633.37	8121.6	
633.56	9164	
633.75	9086.2	
633.93	7658.7	
634.12	7301.7	
634.31	10090	
634.5	9724.4	
634.69	7392.5	
634.88	7877.9	
635.07	9039.1	
635.25	9607.7	
635.44	8449.9	
635.63	8613.8	
635.82	8869.8	
636.01	8314.1	
636.2	8371.4	
636.39	7859.4	
636.57	10032	
636.76	9751.7	
636.95	7258.7	
637.14	8719.6	
637.33	9304.6	
637.52	10301	
637.7	6913.3	
637.89	7936.6	
638.08	8878.6	
638.27	10488	
638.46	8133.8	
638.65	8552.3	
638.83	10266	
639.02	8680.7	
639.21	8044.4	
639.4	8389.2	
639.59	9227.5	
639.78	8686.1	
639.96	7111.9	
640.15	7246.4	
640.34	8998.1	
640.53	9154.4	
640.72	6909.2	
640.91	7249.8	
641.09	8400.1	
641.28	9843.2	
641.47	7269.6	
641.66	8090.8	
641.85	9098.4	
642.03	9416.6	
642.22	7901.1	
642.41	7322.9	
642.6	8498.4	
642.79	7770	
642.97	7088	
643.16	7878.5	
643.35	8475.9	
643.54	8342.7	
643.73	6918	
643.91	7914	
644.1	8024.6	
644.29	8765.3	
644.48	6875.7	
644.67	7030	
644.85	8230.1	
645.04	8491.6	
645.23	6448.4	
645.42	6738.5	
645.6	7987.1	
645.79	9204.3	
645.98	6764.4	
646.17	5756.2	
646.36	7581.6	
646.54	8349.6	
646.73	7569.3	
646.92	6231.3	
647.11	7823.9	
647.29	9039.1	
647.48	6386.2	
647.67	6149.4	
647.86	9344.2	
648.05	9271.8	
648.23	6746.7	
648.42	8157.1	
648.61	8706.6	
648.8	8423.3	
648.98	6490.7	
649.17	6808.8	
649.36	8021.2	
649.55	7482.6	
649.73	6535.8	
649.92	7307.2	
650.11	7849.2	
650.3	8174.1	
650.48	6524.8	
650.67	6410.8	
650.86	8445.8	
651.05	7332.4	
651.23	6554.2	
651.42	6473.6	
651.61	7927.7	
651.79	8059.4	
651.98	6756.2	
652.17	6343.9	
652.36	8431.5	
652.54	7490.1	
652.73	6387.6	
652.92	6217	
653.11	8399.4	
653.29	8475.9	
653.48	5532.2	
653.67	6634.1	
653.85	8170	
654.04	9171.5	
654.23	6787.7	
654.42	6280.4	
654.6	7653.9	
654.79	8293.6	
654.98	5761.6	
655.16	6360.3	
655.35	7175.4	
655.54	7155.6	
655.73	5954.1	
655.91	5895.4	
656.1	8503.8	
656.29	7213.6	
656.47	5468.8	
656.66	7275.1	
656.85	7466.9	
657.03	7627.3	
657.22	6113.2	
657.41	6171.2	
657.59	7603.4	
657.78	7380.2	
657.97	5685.8	
658.16	6501.6	
658.34	8328.4	
658.53	8767.4	
658.72	7460.1	
658.9	7982.3	
659.09	7648.5	
659.28	7824.6	
659.46	6165.1	
659.65	6195.1	
659.84	7546.8	
660.02	7968	
660.21	6107.7	
660.4	6036	
660.58	8579.6	
660.77	7861.5	
660.96	6693.4	
661.14	5714.5	
661.33	9029.5	
661.52	8874.5	
661.7	5649.7	
661.89	9485.5	
662.08	7382.2	
662.26	7034.8	
662.45	5902.9	
662.64	6033.3	
662.82	8137.3	
663.01	7391.1	
663.2	6078.4	
663.38	6858.6	
663.57	8107.2	
663.75	7948.8	
663.94	6388.3	
664.13	7727	
664.31	7385.7	
664.5	8123.6	
664.69	6784.9	
664.87	7264.1	
665.06	7189.1	
665.25	7955.7	
665.43	7449.8	
665.62	7510.6	
665.8	8282.7	
665.99	7550.2	
666.18	6313.2	
666.36	6496.8	
666.55	8230.8	
666.74	8186.4	
666.92	5970.5	
667.11	7782.3	
667.29	7565.2	
667.48	8215.1	
667.67	7382.9	
667.85	6454.5	
668.04	7569.3	
668.22	7520.1	
668.41	6438.1	
668.6	6610.8	
668.78	7346.1	
668.97	7608.9	
669.15	6830	
669.34	5709.7	
669.53	7309.2	
669.71	7767.9	
669.9	5944.6	
670.08	6641.6	
670.27	7339.9	
670.46	7948.8	
670.64	6793.8	
670.83	7103.7	
671.01	7209.5	
671.2	7933.8	
671.38	6041.5	
671.57	5853.8	
671.76	8645.8	
671.94	9173.5	
672.13	5895.4	
672.31	7019.1	
672.5	8134.5	
672.69	7449.1	
672.87	6022.4	
673.06	6363	
673.24	7850.5	
673.43	7425.3	
673.61	6846.4	
673.8	6298.2	
673.98	8094.3	
674.17	8334.6	
674.36	6980.2	
674.54	6736.5	
674.73	7858.1	
674.91	8126.3	
675.1	6460.7	
675.28	6111.1	
675.47	7666.9	
675.65	8292.9	
675.84	6284.5	
676.03	6699.6	
676.21	7372	
676.4	6894.8	
676.58	7170.6	
676.77	6870.9	
676.95	8901.8	
677.14	7303.1	
677.32	5982.1	
677.51	5769.8	
677.69	8182.3	
677.88	6989	
678.06	5951.4	
678.25	5938.4	
678.44	7647.1	
678.62	7354.3	
678.81	5678.3	
678.99	6716.7	
679.18	8451.3	
679.36	8066.3	
679.55	6283.9	
679.73	6956.3	
679.92	7998.7	
680.1	7451.2	
680.29	7622.5	
680.47	6246.3	
680.66	7279.8	
680.84	8197.3	
681.03	5500.2	
681.21	6656.6	
681.4	7395.9	
681.58	7245	
681.77	5976.7	
681.95	5918.6	
682.14	8224.6	
682.32	8619.9	
682.51	6913.9	
682.69	5658.5	
682.88	7261.4	
683.06	7989.1	
683.25	6647.7	
683.43	7046.4	
683.62	7566.6	
683.8	7888.8	
683.99	7122.2	
684.17	6349.4	
684.36	8856.8	
684.54	7332.4	
684.73	5350.7	
684.91	5604.6	
685.1	7573.4	
685.28	6922.1	
685.46	6178	
685.65	6263.4	
685.83	7912.7	
686.02	7214.3	
686.2	5843.5	
686.39	5954.8	
686.57	7041.6	
686.76	8680	
686.94	5754.8	
687.13	5922.7	
687.31	7823.2	
687.5	7301.7	
687.68	5316.5	
687.86	6755.6	
688.05	8989.9	
688.23	6709.8	
688.42	6776.7	
688.6	5853.8	
688.79	7337.2	
688.97	7129.7	
689.16	6259.3	
689.34	5154.1	
689.52	8043.7	
689.71	8176.2	
689.89	6543.3	
690.08	5815.5	
690.26	7395.2	
690.45	7256.6	
690.63	6638.1	
690.81	5850.4	
691	7040.9	
691.18	7034.1	
691.37	6050.4	
691.55	8417.8	
691.74	6934.4	
691.92	9067	
692.1	6037.4	
692.29	5467.4	
692.47	7158.3	
692.66	6519.4	
692.84	5660.6	
693.02	6320.7	
693.21	6611.5	
693.39	7197.2	
693.58	6431.3	
693.76	5814.2	
693.94	8473.8	
694.13	8290.9	
694.31	5797.1	
694.5	7032	
694.68	7030.7	
694.86	7449.8	
695.05	6148.7	
695.23	6343.9	
695.42	7903.1	
695.6	10393	
695.78	6802.7	
695.97	5846.3	
696.15	7808.2	
696.34	7238.2	
696.52	5592.3	
696.7	6424.5	
696.89	7602.7	
697.07	6853.2	
697.25	6295.5	
697.44	8015.7	
697.62	7443.7	
697.81	7852.6	
697.99	6092.7	
698.17	6450.4	
698.36	6885.3	
698.54	7464.8	
698.72	6385.6	
698.91	5296.7	
699.09	7085.3	
699.28	6953.5	
699.46	6007.4	
699.64	5932.3	
699.83	6843.6	
700.01	8254	
700.19	6801.3	
700.38	5156.8	
700.56	8232.2	
700.74	7046.4	
700.93	5604.6	
701.11	6429.9	
701.29	7647.1	
701.48	8751.7	
701.66	5822.4	
701.84	5844.9	
702.03	7170.6	
702.21	7855.3	
702.39	5388.9	
702.58	5933	
702.76	7593.2	
702.94	7707.9	
703.13	5389.6	
703.31	7841	
703.49	6903	
703.68	7767.3	
703.86	5591	
704.04	6591	
704.23	7453.9	
704.41	7805.5	
704.59	5771.9	
704.78	7068.9	
704.96	8602.8	
705.14	7881.9	
705.33	5464.7	
705.51	6416.3	
705.69	7246.4	
705.87	8092.9	
706.06	6704.4	
706.24	5489.2	
706.42	7612.3	
706.61	7903.8	
706.79	6834.1	
706.97	5631.9	
707.16	7000	
707.34	7652.6	
707.52	6738.5	
707.7	5783.5	
707.89	7135.1	
708.07	6830	
708.25	6694.1	
708.44	6936.5	
708.62	7101	
708.8	8252.6	
708.98	7002	
709.17	5828.5	
709.35	7535.2	
709.53	7557	
709.72	5625.1	
709.9	5776.6	
710.08	7783.6	
710.26	7905.8	
710.45	7306.5	
710.63	5881.1	
710.81	7492.2	
710.99	7470.3	
711.18	6583.5	
711.36	6042.9	
711.54	7254.6	
711.72	7947.5	
711.91	6133	
712.09	5476.3	
712.27	7305.1	
712.45	8049.2	
712.64	6380.1	
712.82	5230.5	
713	6716.7	
713.18	6919.4	
713.37	5276.3	
713.55	6570.6	
713.73	7680.6	
713.91	6262	
714.1	5593	
714.28	5016.8	
714.46	7221.8	
714.64	6442.2	
714.83	4440	
715.01	5312.4	
715.19	6520	
715.37	5905	
715.55	5012.1	
715.74	5280.3	
715.92	7537.9	
716.1	5438.7	
716.28	6556.9	
716.47	5574.6	
716.65	6144.6	
716.83	6255.9	
717.01	5346.6	
717.19	5524.1	
717.38	8494.3	
717.56	5935.7	
717.74	5708.4	
717.92	4786.1	
718.1	7288.7	
718.29	6536.4	
718.47	4399.7	
718.65	5210	
718.83	7256.6	
719.01	7155.6	
719.2	4366.3	
719.38	5459.2	
719.56	6851.8	
719.74	8428.1	
719.92	5031.2	
720.11	6083.1	
720.29	6754.9	
720.47	5855.8	
720.65	4497.3	
720.83	5433.3	
721.02	6223.8	
721.2	5967.1	
721.38	5497.4	
721.56	4685.1	
721.74	5492.7	
721.92	5758.2	
722.11	5989.6	
722.29	5692.7	
722.47	7043.6	
722.65	6198.5	
722.83	4777.2	
723.01	5689.3	
723.2	6329.6	
723.38	6540.5	
723.56	4164.2	
723.74	5413.5	
723.92	5735.7	
724.1	7036.8	
724.29	4638.6	
724.47	5860.6	
724.65	5803.9	
724.83	5759.6	
725.01	4556	
725.19	5601.9	
725.37	5816.9	
725.56	5915.2	
725.74	4397	
725.92	4690.5	
726.1	5677.7	
726.28	6053.8	
726.46	5167.7	
726.64	4850.3	
726.83	6010.8	
727.01	6400.6	
727.19	4389.5	
727.37	5290.6	
727.55	6128.9	
727.73	6703	
727.91	4375.8	
728.09	4237.2	
728.28	6798.6	
728.46	7451.9	
728.64	5431.9	
728.82	5440.1	
729	7999.4	
729.18	7220.5	
729.36	4620.9	
729.54	7123.5	
729.72	8349.6	
729.91	6503.7	
730.09	6716	
730.27	5354.8	
730.45	6410.8	
730.63	7087.3	
730.81	6033.3	
730.99	4962.9	
731.17	7652.6	
731.35	6137.1	
731.53	5665.4	
731.71	5152.7	
731.9	7334.5	
732.08	7470.3	
732.26	5455.8	
732.44	5093.3	
732.62	7584.3	
732.8	7033.4	
732.98	5907	
733.16	4807.3	
733.34	7044.3	
733.52	5790.3	
733.7	5382.1	
733.88	5757.5	
734.07	6884.6	
734.25	6625.2	
734.43	4844.1	
734.61	6518	
734.79	8217.1	
734.97	6494.1	
735.15	5004.6	
735.33	5306.3	
735.51	6924.2	
735.69	6619.7	
735.87	6765.8	
736.05	5700.2	
736.23	6751.5	
736.41	6567.8	
736.59	5457.8	
736.77	5627.8	
736.95	7228	
737.13	6720.8	
737.32	5151.3	
737.5	5348.6	
737.68	7868.3	
737.86	6552.1	
738.04	4906.3	
738.22	6953.5	
738.4	6309.1	
738.58	6692.1	
738.76	5569.1	
738.94	4563.6	
739.12	6501.6	
739.3	6369.9	
739.48	6247.7	
739.66	6080.4	
739.84	6731.7	
740.02	6719.4	
740.2	4574.5	
740.38	5027.1	
740.56	7219.1	
740.74	6025.1	
740.92	5723.4	
741.1	5696.1	
741.28	6677.7	
741.46	6443.6	
741.64	5272.8	
741.82	5784.8	
742	6661.4	
742.18	6582.9	
742.36	5552.7	
742.54	5015.5	
742.72	7268.9	
742.9	5945.3	
743.08	5889.3	
743.26	4627	
743.44	7458	
743.62	7333.8	
743.8	6055.2	
743.98	5098.8	
744.16	7025.9	
744.34	6640.9	
744.52	5979.4	
744.7	5905.7	
744.88	7135.1	
745.06	6652.5	
745.24	5968.5	
745.42	6119.3	
745.6	7156.3	
745.78	6918	
745.96	4769	
746.14	5072.1	
746.32	8014.4	
746.5	7226.6	
746.68	5713.8	
746.86	5085.8	
747.03	7677.8	
747.21	5907.7	
747.39	5632.6	
747.57	5150	
747.75	6838.2	
747.93	7307.2	
748.11	5220.3	
748.29	5043.5	
748.47	8359.1	
748.65	6513.2	
748.83	5983.5	
749.01	5580.7	
749.19	7013.6	
749.37	6093.4	
749.55	5422.3	
749.73	5541.1	
749.91	6630	
750.09	6389.7	
750.26	5615.5	
750.44	4930.8	
750.62	6711.9	
750.8	6647.7	
750.98	4819.6	
751.16	5147.9	
751.34	6753.5	
751.52	6032.6	
751.7	5966.4	
751.88	4711.7	
752.06	7281.2	
752.24	7065.5	
752.42	4670.7	
752.59	5083.7	
752.77	6626.5	
752.95	7925	
753.13	5879	
753.31	5285.8	
753.49	6264.7	
753.67	6859.3	
753.85	5517.2	
754.03	5132.2	
754.21	7060	
754.38	7476.5	
754.56	5237.3	
754.74	4179.2	
754.92	6240.2	
755.1	6976.1	
755.28	4272.1	
755.46	4188.8	
755.64	7703.1	
755.82	7712.7	
755.99	4418.2	
756.17	4588.8	
756.35	5052.3	
756.53	6728.9	
756.71	3374.4	
756.89	4311	
757.07	6331.6	
757.25	5293.3	
757.42	4881	
757.6	5860.6	
757.78	6334.4	
757.96	5324.7	
758.14	4675.5	
758.32	4112.3	
758.5	4833.9	
758.67	5752.7	
758.85	4379.2	
759.03	4597.7	
759.21	5872.9	
759.39	5338.4	
759.57	3978.5	
759.75	5225.7	
759.92	6591	
760.1	5832.6	
760.28	5683.1	
760.46	5862	
760.64	5601.9	
760.82	5359.5	
760.99	5466	
761.17	4639.3	
761.35	6503.7	
761.53	5410.7	
761.71	4739	
761.89	5466	
762.06	6442.9	
762.24	5856.5	
762.42	4818.2	
762.6	4590.9	
762.78	5844.2	
762.96	6599.2	
763.13	5313.8	
763.31	5007.3	
763.49	6937.8	
763.67	5859.9	
763.85	5804.6	
764.02	6516	
764.2	7146	
764.38	6273.6	
764.56	4845.5	
764.74	5758.9	
764.91	7273	
765.09	5995.8	
765.27	4402.5	
765.45	4309.6	
765.63	7265.5	
765.8	7135.8	
765.98	3992.2	
766.16	4375.1	
766.34	5606	
766.52	5364.3	
766.69	5423	
766.87	4190.8	
767.05	6018.3	
767.23	6899.6	
767.41	4499.4	
767.58	4801.8	
767.76	6635.4	
767.94	6733	
768.12	4659.8	
768.29	5424.4	
768.47	6114.6	
768.65	6875.7	
768.83	4221.5	
769	5444.9	
769.18	5584.1	
769.36	6343.2	
769.54	5452.4	
769.72	4225	
769.89	6694.1	
770.07	6756.9	
770.25	4575.8	
770.43	6022.4	
770.6	7484	
770.78	7990.5	
770.96	4824.3	
771.14	4648.9	
771.31	6630	
771.49	5890.6	
771.67	3893.2	
771.85	4169	
772.02	5061.2	
772.2	5867.4	
772.38	4930.8	
772.55	4414.7	
772.73	6094.8	
772.91	5881.1	
773.09	4802.5	
773.26	4922.6	
773.44	6152.1	
773.62	5763	
773.8	4281.6	
773.97	3941	
774.15	6193.1	
774.33	5747.3	
774.5	4172.4	
774.68	4582	
774.86	6383.5	
775.04	5756.8	
775.21	4249.5	
775.39	4234.5	
775.57	6110.5	
775.74	6509.1	
775.92	4089.1	
776.1	4018.1	
776.27	6051.1	
776.45	7376.1	
776.63	4261.8	
776.81	3720.5	
776.98	5649.7	
777.16	6819.1	
777.34	4415.4	
777.51	4358.8	
777.69	5646.9	
777.87	5468.8	
778.04	4406.5	
778.22	5079.6	
778.4	5453.7	
778.57	6180.8	
778.75	3633.1	
778.93	3880.2	
779.1	5272.2	
779.28	5128.8	
779.46	3686.3	
779.64	4194.9	
779.81	6314.6	
779.99	7311.2	
780.17	5090.6	
780.34	5201.8	
780.52	5671.5	
780.69	5898.8	
780.87	4487.1	
781.05	4040	
781.22	5723.4	
781.4	5871.5	
781.58	4190.8	
781.75	3360.7	
781.93	5793.7	
782.11	5202.5	
782.28	5092.6	
782.46	4194.9	
782.64	4973.8	
782.81	6016.2	
782.99	4248.2	
783.17	4262.5	
783.34	5894.1	
783.52	4985.4	
783.69	4450.2	
783.87	5360.2	
784.05	5119.9	
784.22	5210	
784.4	5300.1	
784.58	4558.8	
784.75	6107.7	
784.93	5188.9	
785.1	4208.6	
785.28	4873.5	
785.46	5850.4	
785.63	5189.6	
785.81	4200.4	
785.99	4032.5	
786.16	5298.8	
786.34	5728.2	
786.51	4021.5	
786.69	4493.9	
786.87	4835.3	
787.04	5414.1	
787.22	3876.8	
787.39	4971.8	
787.57	5077.6	
787.75	6284.5	
787.92	5081	
788.1	5044.8	
788.27	5150.6	
788.45	4911	
788.63	4705.5	
788.8	3351.8	
788.98	5578	
789.15	4820.9	
789.33	3422.8	
789.5	4219.5	
789.68	6123.4	
789.86	6243.6	
790.03	4687.1	
790.21	4030.4	
790.38	6094.1	
790.56	5311.7	
790.73	3881.6	
790.91	3951.9	
791.09	5169.1	
791.26	5937.1	
791.44	4164.2	
791.61	3553.9	
791.79	5133.6	
791.96	5210.7	
792.14	3703.4	
792.32	3224.2	
792.49	5150.6	
792.67	5278.3	
792.84	3799	
793.02	3569.6	
793.19	5619.6	
793.37	6421.1	
793.54	3295.9	
793.72	3671.3	
793.89	6560.3	
794.07	5145.2	
794.25	4336.2	
794.42	3338.2	
794.6	6291.4	
794.77	5882.4	
794.95	4577.9	
795.12	4038.6	
795.3	5126.7	
795.47	5776	
795.65	4384	
795.82	4236.6	
796	4943.1	
796.17	7018.4	
796.35	4040	
796.52	4820.2	
796.7	5742.5	
796.87	5827.8	
797.05	5114.5	
797.22	4986.8	
797.4	5731.6	
797.57	6833.4	
797.75	4225	
797.92	3958	
798.1	6095.4	
798.27	5227.1	
798.45	3392.8	
798.62	3654.9	
798.8	5537	
798.97	6018.3	
799.15	4465.3	
799.32	4214.7	
799.5	4693.3	
799.67	5549.3	
799.85	4583.4	
800.02	3287.7	
800.2	5029.8	
800.37	5466	
800.55	4788.8	
800.72	3950.5	
800.9	5940.5	
801.07	6439.5	
801.25	5382.1	
801.42	4373.8	
801.6	6055.8	
801.77	5698.8	
801.95	4103.4	
802.12	3880.2	
802.29	5644.2	
802.47	5599.1	
802.64	4377.2	
802.82	3212.6	
802.99	5127.4	
803.17	6204	
803.34	4208.6	
803.52	3833.1	
803.69	6847.7	
803.87	4833.9	
804.04	4163.5	
804.21	4350.6	
804.39	6341.2	
804.56	5317.2	
804.74	3543.7	
804.91	4416.8	
805.09	5143.1	
805.26	5281.7	
805.44	3584.6	
805.61	3963.5	
805.78	5843.5	
805.96	5920.7	
806.13	4388.1	
806.31	4711	
806.48	4687.1	
806.66	5237.3	
806.83	4339	
807	4246.8	
807.18	5086.5	
807.35	5547.3	
807.53	4248.2	
807.7	3346.4	
807.87	6357.6	
808.05	5158.8	
808.22	4704.9	
808.4	3379.1	
808.57	5225.7	
808.74	4817.5	
808.92	3852.2	
809.09	5013.4	
809.27	5063.3	
809.44	5717.2	
809.61	3433.1	
809.79	3818.1	
809.96	6369.9	
810.14	5952.8	
810.31	3297.2	
810.48	4100	
810.66	5287.2	
810.83	6126.2	
811.01	3850.2	
811.18	4386.1	
811.35	5961	
811.53	4584.7	
811.7	4734.9	
811.87	4415.4	
812.05	5132.2	
812.22	5079.6	
812.39	3693.2	
812.57	3635.8	
812.74	5189.6	
812.92	6948.8	
813.09	4061.8	
813.26	4440.7	
813.44	6615.6	
813.61	5153.4	
813.78	3348.4	
813.96	4605.2	
814.13	5199.1	
814.3	4810	
814.48	4931.5	
814.65	4074.1	
814.82	6498.2	
815	4932.2	
815.17	4231.1	
815.34	5183.4	
815.52	5127.4	
815.69	5151.3	
815.87	4171	
816.04	3581.9	
816.21	5150.6	
816.38	4554.7	
816.56	4056.3	
816.73	3723.2	
816.9	6600.6	
817.08	6016.9	
817.25	3792.2	
817.42	4826.4	
817.6	4703.5	
817.77	5217.5	
817.94	4270.7	
818.12	3757.3	
818.29	4903.5	
818.46	7801.4	
818.64	3852.9	
818.81	3685.7	
818.98	4775.2	
819.16	7088	
819.33	4528.1	
819.5	4194.9	
819.67	5594.4	
819.85	6249.7	
820.02	4083.6	
820.19	4400.4	
820.37	5432.6	
820.54	4926	
820.71	4237.2	
820.88	5365.7	
821.06	5436	
821.23	4945.2	
821.4	4246.1	
821.58	4240	
821.75	5949.3	
821.92	5337.7	
822.09	3396.9	
822.27	3507.5	
822.44	5180.7	
822.61	5054.4	
822.79	3444	
822.96	6681.8	
823.13	5703.6	
823.3	4833.9	
823.48	3969	
823.65	3631.7	
823.82	5905	
823.99	4717.8	
824.17	5069.4	
824.34	3642	
824.51	6888	
824.68	5188.9	
824.86	3884.3	
825.03	4262.5	
825.2	5218.9	
825.37	6329.6	
825.55	3710.2	
825.72	4274.8	
825.89	7015	
826.06	6471.6	
826.24	4078.2	
826.41	4108.9	
826.58	6297.5	
826.75	5512.4	
826.92	3263.8	
827.1	3603.7	
827.27	8683.4	
827.44	6957.6	
827.61	3863.2	
827.79	4720.6	
827.96	4858.5	
828.13	5292	
828.3	4072.7	
828.47	3429.7	
828.65	5382.1	
828.82	5330.9	
828.99	5279	
829.16	4681.7	
829.34	5834	
829.51	5550.7	
829.68	4201.7	
829.85	4374.5	
830.02	6133	
830.2	5807.4	
830.37	3228.3	
830.54	5124	
830.71	6659.3	
830.88	5133.6	
831.05	3288.4	
831.23	3888.4	
831.4	6380.1	
831.57	7212.3	
831.74	3882.3	
831.91	3398.9	
832.09	5390.3	
832.26	5793.7	
832.43	4011.3	
832.6	4609.3	
832.77	5388.2	
832.94	6251.1	
833.12	3225.6	
833.29	4040	
833.46	5604.6	
833.63	7430.7	
833.8	4458.4	
833.97	4110.3	
834.15	5824.4	
834.32	5526.8	
834.49	4219.5	
834.66	4378.6	
834.83	6092	
835	4888.5	
835.17	3849.5	
835.35	3928	
835.52	5736.4	
835.69	5593.7	
835.86	4087.7	
836.03	3373	
836.2	5752.1	
836.37	5343.8	
836.55	4016.1	
836.72	3839.3	
836.89	5364.3	
837.06	5930.9	
837.23	4179.9	
837.4	4543.8	
837.57	6638.8	
837.75	7422.5	
837.92	3760.1	
838.09	3937.6	
838.26	5399.8	
838.43	6105.7	
838.6	4252.9	
838.77	3807.2	
838.94	7043	
839.11	6722.1	
839.29	4029	
839.46	3171.6	
839.63	5801.2	
839.8	5509	
839.97	3940.3	
840.14	3904.8	
840.31	5583.4	
840.48	5800.5	
840.65	3286.3	
840.82	3845.4	
841	5751.4	
841.17	5775.3	
841.34	3656.3	
841.51	3654.3	
841.68	5659.2	
841.85	5460.6	
842.02	3786.7	
842.19	3087	
842.36	5532.2	
842.53	5541.8	
842.7	3600.3	
842.87	4487.8	
843.05	7376.8	
843.22	5485.1	
843.39	3449.5	
843.56	3693.2	
843.73	5180.7	
843.9	5897.5	
844.07	5896.1	
844.24	5006.6	
844.41	8661.5	
844.58	4980.7	
844.75	3490.4	
844.92	3791.5	
845.09	5774.6	
845.26	5780.1	
845.43	3531.4	
845.6	3796.3	
845.77	5780.1	
845.94	5492	
846.12	3969	
846.29	4207.9	
846.46	6021	
846.63	5853.1	
846.8	3586.7	
846.97	4301.4	
847.14	6331.6	
847.31	5769.1	
847.48	4107.5	
847.65	4498	
847.82	6086.6	
847.99	6079.7	
848.16	4835.3	
848.33	4418.2	
848.5	5302.9	
848.67	6328.2	
848.84	3573.7	
849.01	3747.1	
849.18	5274.2	
849.35	4853.7	
849.52	4575.8	
849.69	3516.4	
849.86	6029.9	
850.03	6238.1	
850.2	3645.4	
850.37	4430.4	
850.54	6176.7	
850.71	5457.2	
850.88	4290.5	
851.05	3587.4	
851.22	5723.4	
851.39	6455.2	
851.56	3414.6	
851.73	4183.3	
851.9	5062.6	
852.07	6020.3	
852.24	3992.9	
852.41	3560.7	
852.58	5631.2	
852.75	5158.8	
852.92	4048.2	
853.09	3510.9	
853.26	5414.1	
853.43	6187.6	
853.6	3592.1	
853.77	3055.6	
853.94	6378.7	
854.11	5707.7	
854.28	5418.9	
854.44	3863.2	
854.61	6834.1	
854.78	6146	
854.95	3569.6	
855.12	4510.3	
855.29	4648.9	
855.46	6443.6	
855.63	3580.5	
855.8	5049.6	
855.97	5351.3	
856.14	6144.6	
856.31	5117.2	
856.48	3923.9	
856.65	5293.3	
856.82	4996.4	
856.99	3446	
857.16	3859.7	
857.33	7146.7	
857.49	5375.2	
857.66	3927.3	
857.83	4214	
858	5359.5	
858.17	5639.4	
858.34	3365.5	
858.51	3553.2	
858.68	6544.6	
858.85	6546	
859.02	4190.8	
859.19	4468	
859.36	5035.3	
859.52	5129.5	
859.69	3632.4	
859.86	4281.6	
860.03	5111.7	
860.2	6391	
860.37	3224.2	
860.54	3654.9	
860.71	6003.3	
860.88	6455.2	
861.05	4033.1	
861.21	4540.3	
861.38	6543.9	
861.55	4930.1	
861.72	3226.2	
861.89	4050.9	
862.06	6067.4	
862.23	6636.1	
862.4	3459.7	
862.56	3781.9	
862.73	5907.7	
862.9	5586.2	
863.07	4233.2	
863.24	3208.5	
863.41	4941.7	
863.58	5117.2	
863.75	3692.5	
863.91	4177.9	
864.08	6443.6	
864.25	6025.1	
864.42	4494.6	
864.59	5044.8	
864.76	6834.1	
864.93	5089.2	
865.09	3483.6	
865.26	3851.5	
865.43	6396.5	
865.6	6683.2	
865.77	3143.6	
865.94	3568.2	
866.1	6407.4	
866.27	6104.3	
866.44	5399.8	
866.61	3421.5	
866.78	5524.1	
866.95	5948.7	
867.11	3478.1	
867.28	3183.9	
867.45	6070.2	
867.62	5087.8	
867.79	4137.6	
867.96	3605.1	
868.12	5082.4	
868.29	6140.5	
868.46	3581.9	
868.63	4835.9	
868.8	6277.7	
868.97	6019	
869.13	3769.6	
869.3	3760.8	
869.47	5911.1	
869.64	6152.1	
869.81	3620.8	
869.97	3637.2	
870.14	5800.5	
870.31	6487.3	
870.48	3549.8	
870.65	4512.4	
870.81	5401.2	
870.98	5339.7	
871.15	4063.9	
871.32	3817.4	
871.48	5937.1	
871.65	6575.3	
871.82	3586.7	
871.99	3923.2	
872.16	7002	
872.32	6417	
872.49	3633.1	
872.66	3674.1	
872.83	6038.1	
872.99	5317.9	
873.16	4162.2	
873.33	3562.1	
873.5	5601.9	
873.67	5657.9	
873.83	3822.9	
874	4934.2	
874.17	5778.7	
874.34	6969.9	
874.5	4593.6	
874.67	4468.7	
874.84	6525.5	
875.01	5049.6	
875.17	5074.2	
875.34	3622.9	
875.51	5743.9	
875.68	6967.9	
875.84	4259.8	
876.01	5313.1	
876.18	5969.1	
876.34	5915.2	
876.51	3619.4	
876.68	3512.3	
876.85	5502.2	
877.01	6285.9	
877.18	5192.3	
877.35	3553.2	
877.52	5546.6	
877.68	5018.9	
877.85	3499.3	
878.02	3512.9	
878.18	5560.9	
878.35	5214.1	
878.52	2805	
878.69	4025.6	
878.85	6033.3	
879.02	5965.1	
879.19	5161.6	
879.35	3868.6	
879.52	6016.2	
879.69	6209.4	
879.86	3068.5	
880.02	4068.6	
880.19	5545.9	
880.36	6874.3	
880.52	4142.4	
880.69	4244.8	
880.86	6106.4	
881.02	6180.8	
881.19	3993.5	
881.36	3884.3	
881.52	5956.2	
881.69	5294	
881.86	3887	
882.02	3805.8	
882.19	6268.1	
882.36	7371.3	
882.52	3654.9	
882.69	5141.1	
882.86	5767.8	
883.02	5670.1	
883.19	4362.2	
883.36	4192.2	
883.52	6139.8	
883.69	6941.2	
883.86	3635.8	
884.02	3224.9	
884.19	6081.8	
884.36	5558.9	
884.52	4056.3	
884.69	3773	
884.86	5255.8	
885.02	6729.6	
885.19	4024.3	
885.36	4149.9	
885.52	5603.2	
885.69	5786.2	
885.86	5285.1	
886.02	4660.5	
886.19	6003.3	
886.35	5489.2	
886.52	3979.9	
886.69	5064.6	
886.85	5106.3	
887.02	6443.6	
887.19	6443.6	
887.35	6443.6	
887.52	6443.6	
887.68	6443.6	
887.85	6443.6	
888.02	6443.6	
888.18	6443.6	
888.35	6443.6	
888.51	6443.6	
888.68	6443.6	
888.85	6443.6	
889.01	6443.6	
889.18	6443.6	
889.35	6443.6	
889.51	6443.6	
889.68	6443.6	
889.84	6443.6	
890.01	6443.6	
890.17	6443.6	
890.34	6443.6	
890.51	6443.6	
890.67	6443.6	
890.84	6443.6	
891	6443.6	
891.17	6443.6	
891.34	6443.6	
891.5	6443.6	
891.67	6443.6	
891.83	6443.6	
892	6443.6	
892.16	6443.6	
892.33	6443.6	
892.5	6443.6	
892.66	6443.6	
892.83	6443.6	
892.99	6443.6	
893.16	6443.6	
893.32	6443.6	
893.49	6443.6	
893.65	6443.6	
893.82	6443.6	
893.99	6443.6	
894.15	6443.6	
894.32	6443.6	
894.48	6443.6	
894.65	6443.6	
894.81	6443.6	
894.98	6443.6	
895.14	6443.6	
895.31	6443.6	
895.47	6443.6	
895.64	6443.6	
895.81	6443.6	
895.97	6443.6	
896.14	6443.6	
896.3	6443.6	
896.47	6443.6	
896.63	6443.6	
896.8	6443.6	
896.96	6443.6	
897.13	6443.6	
897.29	6443.6	
897.46	6443.6	
897.62	6443.6	
897.79	6443.6	
897.95	6443.6	
898.12	6443.6	
898.28	6443.6	
898.45	6443.6	
898.61	6443.6	
898.78	6443.6	
898.94	6443.6	
899.11	6443.6	
899.27	6443.6	
899.44	6443.6	
899.6	6443.6	
899.77	6443.6	
899.93	6443.6	
900.1	6443.6	
900.26	6443.6	
900.43	6443.6	
900.59	6443.6	
900.76	6443.6	
900.92	6443.6	
901.09	6443.6	
901.25	6443.6	
901.42	6443.6	
901.58	6443.6	
901.75	6443.6	
901.91	6443.6	
902.07	6443.6	
902.24	6443.6	
902.4	6443.6	
902.57	6443.6	
902.73	6443.6	
902.9	6443.6	
903.06	6443.6	
903.23	6443.6	
903.39	6443.6	
903.56	6443.6	
903.72	6443.6	
903.88	6443.6	
904.05	6443.6	
904.21	6443.6	
904.38	6443.6	
904.54	6443.6	
904.71	6443.6	
904.87	6443.6	
905.03	6443.6	
905.2	6443.6	
905.36	6443.6	
905.53	6443.6	
905.69	6443.6	
905.86	6443.6	
906.02	6443.6	
906.18	6443.6	
906.35	6443.6	
906.51	6443.6	
906.68	6443.6	
906.84	6443.6	
907.01	6443.6	
907.17	6443.6	
907.33	6443.6	
907.5	6443.6	
907.66	6443.6	
907.83	6443.6	
907.99	6443.6	
908.15	6443.6	
908.32	6443.6	
908.48	6443.6	
908.65	6443.6	
908.81	6443.6	
908.97	6443.6	
909.14	6443.6	
909.3	6443.6	
909.47	6443.6	
909.63	6443.6	
909.79	6443.6	
909.96	6443.6	
910.12	6443.6	
910.28	6443.6	
910.45	6443.6	
910.61	6443.6	
910.78	6443.6	
910.94	6443.6	
911.1	6443.6	
911.27	6443.6	
911.43	6443.6	
911.59	6443.6	
911.76	6443.6	
911.92	6443.6	
912.08	6443.6	
912.25	6443.6	
912.41	6443.6	
912.57	6443.6	
912.74	6443.6	
912.9	6443.6	
913.07	6443.6	
913.23	6443.6	
913.39	6443.6	
913.56	6443.6	
913.72	6443.6	
913.88	6443.6	
914.05	6443.6	
914.21	6443.6	
914.37	6443.6	
914.54	6443.6	
914.7	6443.6	
914.86	6443.6	
915.03	6443.6	
915.19	6443.6	
