Wavelength	Intensities	
nm	a.u.	
179.22	1752.7	
179.44	1755.8	
179.65	1749.6	
179.86	1761.9	
180.08	1750.3	
180.29	4171.7	
180.51	3171.6	
180.72	5174.5	
180.94	5978.7	
181.15	2933.4	
181.37	2868.5	
181.58	5066.7	
181.79	5298.8	
182.01	2980.5	
182.22	3155.9	
182.44	5287.9	
182.65	4505.5	
182.87	3928	
183.08	3495.9	
183.29	5464.7	
183.51	4582	
183.72	3128.6	
183.94	4562.2	
184.15	4915.8	
184.37	4928.1	
184.58	2875.3	
184.79	3769.6	
185.01	4599.7	
185.22	5244.8	
185.44	3980.6	
185.65	3383.9	
185.86	4891.2	
186.08	4517.8	
186.29	2785.2	
186.51	3010.5	
186.72	4688.5	
186.94	5361.6	
187.15	3437.2	
187.36	3491.1	
187.58	6821.8	
187.79	5029.1	
188.01	3650.2	
188.22	5550	
188.43	5971.9	
188.65	5222.3	
188.86	3000.3	
189.08	3528.7	
189.29	4856.4	
189.5	4784.1	
189.72	3250.8	
189.93	3328.6	
190.15	5352	
190.36	6290	
190.57	3588	
190.79	3461.7	
191	5477.6	
191.22	5400.5	
191.43	3560.1	
191.64	3057.6	
191.86	5667.4	
192.07	5408.7	
192.29	3081.5	
192.5	3256.3	
192.71	5440.1	
192.93	4715.8	
193.14	3179.1	
193.35	3318.4	
193.57	4762.2	
193.78	5375.2	
194	2691.7	
194.21	3204.4	
194.42	4567.7	
194.64	4901.5	
194.85	3476.8	
195.07	4086.4	
195.28	4967	
195.49	4351.9	
195.71	4249.5	
195.92	3055.6	
196.13	5141.1	
196.35	5141.8	
196.56	4486.4	
196.78	3526.6	
196.99	6285.2	
197.2	5884.5	
197.42	3930.7	
197.63	3572.3	
197.84	4505.5	
198.06	5101.5	
198.27	3273.3	
198.48	4225.6	
198.7	4746.5	
198.91	4913.8	
199.13	3543	
199.34	3560.7	
199.55	5380	
199.77	4296	
199.98	3171.6	
200.19	3566.9	
200.41	4840	
200.62	4625	
200.83	3634.5	
201.05	3916.4	
201.26	4868	
201.47	4680.3	
201.69	3147.7	
201.9	3072	
202.11	4990.2	
202.33	5732.9	
202.54	3394.8	
202.76	3751.2	
202.97	5025	
203.18	5057.8	
203.4	3663.8	
203.61	3601	
203.82	5006.6	
204.04	4695.3	
204.25	3541.6	
204.46	3479.5	
204.68	4947.9	
204.89	5118.6	
205.1	3464.5	
205.32	3005.1	
205.53	5291.3	
205.74	5458.5	
205.96	2633.7	
206.17	3605.1	
206.38	5230.5	
206.6	5367.7	
206.81	4038.6	
207.02	3332.7	
207.24	5126.7	
207.45	5516.5	
207.66	3335.5	
207.88	2964.1	
208.09	5185.5	
208.3	4969.1	
208.52	3105.4	
208.73	3422.2	
208.94	4981.3	
209.15	5605.3	
209.37	3403.7	
209.58	3790.1	
209.79	5358.9	
210.01	4756.7	
210.22	2787.3	
210.43	2907.4	
210.65	4919.2	
210.86	5251	
211.07	3379.1	
211.29	3145.7	
211.5	5170.4	
211.71	4930.1	
211.93	3130.7	
212.14	3116.3	
212.35	4934.2	
212.56	5025.7	
212.78	3582.6	
212.99	2992.1	
213.2	5674.9	
213.42	4748.6	
213.63	3291.1	
213.84	3359.4	
214.06	4497.3	
214.27	4547.9	
214.48	3366.2	
214.69	3558	
214.91	5495.4	
215.12	5530.2	
215.33	3558	
215.55	3920.5	
215.76	5951.4	
215.97	5211.4	
216.18	3462.4	
216.4	3443.3	
216.61	4651.6	
216.82	5369.8	
217.04	3166.8	
217.25	3256.3	
217.46	5454.4	
217.67	5289.9	
217.89	2841.9	
218.1	2926.5	
218.31	5068	
218.53	5070.8	
218.74	3317.7	
218.95	3158.7	
219.16	4947.2	
219.38	5713.2	
219.59	3155.9	
219.8	3747.1	
220.01	6212.9	
220.23	4952.7	
220.44	4061.8	
220.65	3078.8	
220.87	5072.8	
221.08	5464.7	
221.29	2942.2	
221.5	3852.2	
221.72	6606.1	
221.93	4726.7	
222.14	3547.1	
222.35	4126.7	
222.57	4960.2	
222.78	5255.1	
222.99	3418.1	
223.2	3556	
223.42	5197.7	
223.63	5363.6	
223.84	2648	
224.05	2667.8	
224.27	6110.5	
224.48	5646.2	
224.69	4158.7	
224.9	3556.6	
225.12	5105.6	
225.33	4953.4	
225.54	2899.2	
225.75	3173.7	
225.97	4672.1	
226.18	4883	
226.39	3366.9	
226.6	3220.8	
226.82	4739.7	
227.03	4601.1	
227.24	3545.7	
227.45	2962.7	
227.67	5301.5	
227.88	5685.2	
228.09	3933.5	
228.3	3937.6	
228.52	5307.7	
228.73	4874.2	
228.94	3300.6	
229.15	2962.7	
229.36	4865.3	
229.58	4857.8	
229.79	3330	
230	3834.5	
230.21	5804.6	
230.43	4978.6	
230.64	3509.5	
230.85	3620.8	
231.06	5298.1	
231.28	5255.8	
231.49	2943.6	
231.7	3469.3	
231.91	5226.4	
232.12	4963.6	
232.34	3079.5	
232.55	3376.4	
232.76	5498.8	
232.97	5071.5	
233.18	3131.3	
233.4	3509.5	
233.61	5085.1	
233.82	4764.3	
234.03	3293.1	
234.25	3180.5	
234.46	6559.6	
234.67	5005.2	
234.88	3577.1	
235.09	3147	
235.31	5208.7	
235.52	4839.4	
235.73	3536.8	
235.94	2955.9	
236.15	4737.6	
236.37	5836.7	
236.58	3130.7	
236.79	3418.1	
237	5281	
237.21	4578.6	
237.43	3592.8	
237.64	2859.6	
237.85	8441.7	
238.06	4666	
238.27	3717.7	
238.48	3016	
238.7	5243.5	
238.91	4800.4	
239.12	3392.8	
239.33	3489.1	
239.54	4625.7	
239.76	4889.2	
239.97	3360.7	
240.18	3376.4	
240.39	5989.6	
240.6	5159.5	
240.82	3504.8	
241.03	2940.9	
241.24	4967.7	
241.45	5634	
241.66	3109.5	
241.87	3654.3	
242.09	5590.3	
242.3	5812.1	
242.51	3685	
242.72	3386	
242.93	5282.4	
243.14	4939.7	
243.36	3829.7	
243.57	4175.1	
243.78	5689.9	
243.99	5240.1	
244.2	3364.1	
244.41	3074.7	
244.63	4583.4	
244.84	5164.3	
245.05	3631	
245.26	3390.1	
245.47	5166.3	
245.68	5398.4	
245.9	4400.4	
246.11	3558.7	
246.32	4797	
246.53	5158.8	
246.74	5356.8	
246.95	2878.8	
247.16	4578.6	
247.38	4965	
247.59	2891	
247.8	3386.7	
248.01	4621.6	
248.22	4892.6	
248.43	3115	
248.64	3341.6	
248.86	4476.9	
249.07	4750.6	
249.28	3055.6	
249.49	3482.9	
249.7	5436	
249.91	5500.8	
250.12	2932.7	
250.34	2953.2	
250.55	5048.9	
250.76	4975.9	
250.97	3485.6	
251.18	3530.7	
251.39	5453.1	
251.6	5134.9	
251.81	3567.6	
252.03	3543.7	
252.24	4767	
252.45	5358.2	
252.66	3029.6	
252.87	3690.4	
253.08	4967.7	
253.29	6353.5	
253.5	3041.9	
253.72	4104.1	
253.93	4868	
254.14	5762.3	
254.35	3223.5	
254.56	3334.8	
254.77	5099.4	
254.98	4680.3	
255.19	3279.5	
255.41	4074.8	
255.62	5056.4	
255.83	5416.9	
256.04	3602.4	
256.25	3535.5	
256.46	5973.2	
256.67	4696.7	
256.88	3490.4	
257.09	3832.4	
257.31	4646.8	
257.52	4698.7	
257.73	4366.3	
257.94	3251.5	
258.15	4895.3	
258.36	4983.4	
258.57	3990.1	
258.78	2669.2	
258.99	5356.1	
259.2	4855.7	
259.41	3235.1	
259.63	3366.9	
259.84	5711.8	
260.05	5962.3	
260.26	4215.4	
260.47	3177.1	
260.68	5414.8	
260.89	4819.6	
261.1	3892.5	
261.31	3101.3	
261.52	5508.4	
261.73	5715.2	
261.95	4112.3	
262.16	3673.4	
262.37	5563	
262.58	5640.1	
262.79	4134.8	
263	3261	
263.21	4978.6	
263.42	4851.6	
263.63	3405.8	
263.84	3280.8	
264.05	5389.6	
264.26	5715.9	
264.47	4029	
264.69	3648.8	
264.9	5545.9	
265.11	5156.8	
265.32	3160	
265.53	3290.4	
265.74	5010.7	
265.95	4463.9	
266.16	3432.4	
266.37	3779.2	
266.58	5040.7	
266.79	4709	
267	3235.8	
267.21	3015.3	
267.42	4611.3	
267.63	4939.7	
267.84	3415.3	
268.06	2901.3	
268.27	5332.9	
268.48	5487.9	
268.69	3316.3	
268.9	3859.1	
269.11	5532.2	
269.32	4496.7	
269.53	3398.3	
269.74	3188	
269.95	5250.3	
270.16	4464.6	
270.37	3398.3	
270.58	3960.1	
270.79	4840.7	
271	5353.4	
271.21	3616	
271.42	3442.6	
271.63	5132.9	
271.84	4577.2	
272.05	2788.7	
272.26	3102.7	
272.47	4901.5	
272.68	5097.4	
272.89	3273.3	
273.11	3753.9	
273.32	4825.7	
273.53	5686.5	
273.74	3660.4	
273.95	3598.3	
274.16	5433.9	
274.37	5003.2	
274.58	3731.4	
274.79	3074	
275	5085.1	
275.21	5519.3	
275.42	4438.6	
275.63	3771.7	
275.84	5193.6	
276.05	6324.8	
276.26	3558.7	
276.47	3353.2	
276.68	4829.1	
276.89	5795.8	
277.1	3809.2	
277.31	2937.5	
277.52	5149.3	
277.73	5412.1	
277.94	2975	
278.15	3351.8	
278.36	5132.9	
278.57	4607.2	
278.78	3278.1	
278.99	3654.9	
279.2	4685.1	
279.41	4607.9	
279.62	4171	
279.83	3035.1	
280.04	5993.7	
280.25	4615.4	
280.46	4252.9	
280.67	3433.8	
280.88	4646.8	
281.09	5489.2	
281.3	3567.6	
281.51	4431.8	
281.72	4753.3	
281.93	5401.9	
282.14	3237.8	
282.35	3413.3	
282.56	5425.1	
282.77	5339.7	
282.98	3282.2	
283.19	3987.4	
283.4	6380.8	
283.61	4932.9	
283.82	3079.5	
284.03	4190.1	
284.24	5141.1	
284.45	5423.7	
284.66	4255.7	
284.87	4014.7	
285.08	5471.5	
285.29	5532.2	
285.5	2956.6	
285.71	3375.1	
285.92	5426.4	
286.12	6044.2	
286.33	4149.9	
286.54	3365.5	
286.75	5315.2	
286.96	4805.9	
287.17	3094.5	
287.38	4038.6	
287.59	4709	
287.8	4672.8	
288.01	3386	
288.22	3802.4	
288.43	5275.6	
288.64	4511	
288.85	3923.9	
289.06	3703.4	
289.27	5313.1	
289.48	5653.1	
289.69	4188.1	
289.9	3804.4	
290.11	5522	
290.32	4741.7	
290.53	3984.7	
290.74	3619.4	
290.94	5335.6	
291.15	5380	
291.36	3221.5	
291.57	3727.3	
291.78	4760.8	
291.99	4503.5	
292.2	3103.4	
292.41	3621.5	
292.62	5438	
292.83	5215.5	
293.04	4420.9	
293.25	3105.4	
293.46	4799.1	
293.67	5429.2	
293.88	3157.3	
294.09	3138.9	
294.29	4623.6	
294.5	5068	
294.71	3482.2	
294.92	3297.2	
295.13	4841.4	
295.34	5862	
295.55	2947	
295.76	3052.8	
295.97	5322.7	
296.18	5885.9	
296.39	3019.4	
296.6	3252.2	
296.81	4976.6	
297.01	5265.3	
297.22	3338.2	
297.43	3190.1	
297.64	4745.1	
297.85	4635.2	
298.06	2690.3	
298.27	2884.2	
298.48	4907.6	
298.69	4705.5	
298.9	3508.2	
299.11	3169.6	
299.31	4564.2	
299.52	4534.9	
299.73	3676.1	
299.94	3636.5	
300.15	5020.3	
300.36	4735.6	
300.57	3691.8	
300.78	3646.1	
300.99	4825	
301.2	5016.2	
301.4	3173.7	
301.61	3479.5	
301.82	5222.3	
302.03	5346.6	
302.24	3874.1	
302.45	3081.5	
302.66	5150.6	
302.87	5489.2	
303.08	3222.8	
303.29	4255.7	
303.49	4789.5	
303.7	4922.6	
303.91	2882.9	
304.12	4081.6	
304.33	4553.3	
304.54	5093.3	
304.75	3293.8	
304.96	3138.2	
305.16	5300.1	
305.37	5778	
305.58	2839.8	
305.79	2964.1	
306	5184.8	
306.21	4482.3	
306.42	3231.7	
306.63	4762.9	
306.83	4829.1	
307.04	5373.2	
307.25	3528.7	
307.46	3517	
307.67	4344.4	
307.88	5321.3	
308.09	3205.8	
308.29	3283.6	
308.5	5066	
308.71	5457.2	
308.92	3446.7	
309.13	3069.2	
309.34	4904.9	
309.55	4896	
309.75	3977.8	
309.96	3610.6	
310.17	5324	
310.38	4691.9	
310.59	3755.3	
310.8	3048.1	
311.01	4771.1	
311.21	4874.8	
311.42	3077.4	
311.63	3190.7	
311.84	4814.1	
312.05	5001.8	
312.26	3556.6	
312.46	3854.3	
312.67	4883.7	
312.88	4584	
313.09	3100.6	
313.3	3044.6	
313.51	5601.9	
313.71	5936.4	
313.92	3099.3	
314.13	3277.4	
314.34	5102.9	
314.55	4823	
314.76	3885	
314.96	3422.8	
315.17	5025	
315.38	5318.6	
315.59	3142.9	
315.8	2998.2	
316.01	5696.1	
316.21	5705	
316.42	3041.9	
316.63	3455.6	
316.84	4887.1	
317.05	5461.2	
317.26	3604.4	
317.46	3312.2	
317.67	4909.7	
317.88	5276.3	
318.09	3843.4	
318.3	2908.1	
318.5	4753.3	
318.71	5137	
318.92	4915.1	
319.13	3665.2	
319.34	5313.1	
319.54	5496.7	
319.75	2937.5	
319.96	2779.1	
320.17	5272.8	
320.38	5425.8	
320.58	2889	
320.79	3408.5	
321	5455.8	
321.21	5507	
321.42	3401.7	
321.62	2881.5	
321.83	4678.9	
322.04	4951.3	
322.25	3303.4	
322.46	3145.7	
322.66	5057.8	
322.87	5209.3	
323.08	3802.4	
323.29	3049.4	
323.5	5864	
323.7	4592.2	
323.91	4211.3	
324.12	3805.1	
324.33	5098.1	
324.53	5231.9	
324.74	3596.9	
324.95	3809.9	
325.16	4477.5	
325.37	4799.8	
325.57	3127.9	
325.78	3224.9	
325.99	5023	
326.2	4588.8	
326.4	4310.3	
326.61	2895.1	
326.82	4956.8	
327.03	5035.3	
327.24	4287.8	
327.44	4080.2	
327.65	5167.7	
327.86	4304.8	
328.07	3624.2	
328.27	3050.1	
328.48	5477.6	
328.69	4590.9	
328.9	4348.5	
329.1	3338.2	
329.31	4868	
329.52	5591.6	
329.73	3171.6	
329.93	3403.7	
330.14	5046.2	
330.35	5128.8	
330.56	4986.8	
330.76	3732.1	
330.97	4821.6	
331.18	5182	
331.39	3481.5	
331.59	2828.2	
331.8	5440.1	
332.01	5561.6	
332.22	3210.5	
332.42	3617.4	
332.63	5058.5	
332.84	4714.4	
333.05	3499.3	
333.25	3168.9	
333.46	4761.5	
333.67	4938.3	
333.88	3285.6	
334.08	3556.6	
334.29	6419.7	
334.5	5468.1	
334.7	3087	
334.91	4344.4	
335.12	4524.6	
335.33	5291.3	
335.53	3500.7	
335.74	4939	
335.95	4792.2	
336.16	4649.6	
336.36	3373	
336.57	3921.9	
336.78	4554	
336.98	5451	
337.19	4149.2	
337.4	3383.9	
337.61	5944.6	
337.81	4556.7	
338.02	3190.7	
338.23	4090.5	
338.43	5612.1	
338.64	4670.1	
338.85	3174.4	
339.05	4068.6	
339.26	5613.5	
339.47	4502.8	
339.68	3095.8	
339.88	4533.5	
340.09	5211.4	
340.3	5351.3	
340.5	3598.3	
340.71	2834.4	
340.92	4592.9	
341.13	5597.8	
341.33	2987.3	
341.54	3618.1	
341.75	5150.6	
341.95	4868	
342.16	3527.3	
342.37	3759.4	
342.57	4631.1	
342.78	4932.2	
342.99	3889.8	
343.19	2847.4	
343.4	5319.9	
343.61	5186.1	
343.81	3321.8	
344.02	3049.4	
344.23	5291.3	
344.43	5678.3	
344.64	3853.6	
344.85	3731.4	
345.06	5182	
345.26	5489.2	
345.47	3639.9	
345.68	4156	
345.88	4431.8	
346.09	5381.4	
346.3	3669.3	
346.5	2839.2	
346.71	4923.3	
346.92	4734.2	
347.12	2950.4	
347.33	3599	
347.54	5449	
347.74	5687.9	
347.95	3497.9	
348.16	2768.9	
348.36	4797.7	
348.57	4635.2	
348.78	3570.3	
348.98	3771	
349.19	4979.3	
349.39	4530.8	
349.6	2962	
349.81	3213.3	
350.01	5185.5	
350.22	4736.3	
350.43	3472.7	
350.63	4134.2	
350.84	4977.9	
351.05	4719.2	
351.25	3175.7	
351.46	2955.2	
351.67	5381.4	
351.87	4678.9	
352.08	3358.7	
352.29	3787.4	
352.49	5315.8	
352.7	5027.1	
352.9	3106.1	
353.11	3786.7	
353.32	5922.7	
353.52	4859.1	
353.73	3052.2	
353.94	3833.1	
354.14	5180.7	
354.35	5066	
354.55	3171.6	
354.76	3457	
354.97	5138.4	
355.17	4992.9	
355.38	3052.8	
355.59	4024.3	
355.79	4693.9	
356	5029.8	
356.2	3495.9	
356.41	3086.3	
356.62	4550.6	
356.82	4894.6	
357.03	3708.9	
357.24	3383.9	
357.44	4732.2	
357.65	4844.8	
357.85	4339	
358.06	3549.8	
358.27	4470	
358.47	4620.9	
358.68	2961.4	
358.88	3688.4	
359.09	5217.5	
359.3	5499.5	
359.5	4266.6	
359.71	3854.3	
359.91	5838.1	
360.12	5279	
360.33	3709.6	
360.53	4083.6	
360.74	4760.8	
360.94	4835.3	
361.15	3865.2	
361.36	3208.5	
361.56	5356.8	
361.77	4984.1	
361.97	4254.3	
362.18	3416.7	
362.38	5368.4	
362.59	4655	
362.8	3212.6	
363	3128.6	
363.21	4505.5	
363.41	5061.2	
363.62	3581.9	
363.83	4443.4	
364.03	5163.6	
364.24	5816.9	
364.44	4474.1	
364.65	4578.6	
364.85	4964.3	
365.06	4696	
365.27	3357.3	
365.47	3410.6	
365.68	5803.9	
365.88	4969.7	
366.09	3646.1	
366.29	3405.8	
366.5	5155.4	
366.71	5522	
366.91	4427	
367.12	3852.9	
367.32	5969.1	
367.53	5335	
367.73	3776.5	
367.94	4612	
368.14	5378.6	
368.35	6051.7	
368.56	3792.2	
368.76	3262.4	
368.97	5491.3	
369.17	6776.7	
369.38	3399.6	
369.58	3596.9	
369.79	4624.3	
369.99	5743.9	
370.2	4502.8	
370.4	3666.5	
370.61	5210	
370.82	6163.7	
371.02	3605.1	
371.23	3136.1	
371.43	4702.8	
371.64	5692	
371.84	3745.7	
372.05	4614.1	
372.25	6718	
372.46	5455.1	
372.66	3676.8	
372.87	3632.4	
373.07	5469.4	
373.28	6822.5	
373.48	4490.5	
373.69	4197.7	
373.9	5135.6	
374.1	5093.3	
374.31	4407.2	
374.51	4022.2	
374.72	5736.4	
374.92	4893.3	
375.13	4588.1	
375.33	3878.2	
375.54	5427.8	
375.74	5014.8	
375.95	4019.5	
376.15	4973.2	
376.36	5505.6	
376.56	5339.7	
376.77	4025.6	
376.97	4418.8	
377.18	6318	
377.38	5557.5	
377.59	4642.1	
377.79	3725.9	
378	5369.8	
378.2	5734.3	
378.41	3693.9	
378.61	3702	
378.82	5760.9	
379.02	5140.4	
379.23	3838.6	
379.43	4727.4	
379.64	5973.9	
379.84	5563	
380.05	3711.6	
380.25	3687	
380.46	5577.3	
380.66	5304.2	
380.87	4816.1	
381.07	4997.7	
381.28	6095.4	
381.48	5638.7	
381.69	3746.4	
381.89	3811.3	
382.1	4795.7	
382.3	5727.5	
382.51	4625.7	
382.71	5321.3	
382.91	5603.9	
383.12	6055.2	
383.32	4080.9	
383.53	4198.3	
383.73	5512.4	
383.94	5327.4	
384.14	4156.7	
384.35	3480.2	
384.55	5248.9	
384.76	5594.4	
384.96	4070.7	
385.17	4257.7	
385.37	5644.2	
385.58	5017.5	
385.78	4253.6	
385.98	3397.6	
386.19	5174.5	
386.39	5436	
386.6	3801	
386.8	3986.7	
387.01	5547.3	
387.21	5598.5	
387.42	4334.9	
387.62	4813.4	
387.83	5076.9	
388.03	5464.7	
388.23	4043.4	
388.44	4741.7	
388.64	4755.4	
388.85	4911.7	
389.05	4329.4	
389.26	4839.4	
389.46	6520.7	
389.67	6031.3	
389.87	4343.1	
390.07	4353.3	
390.28	5330.9	
390.48	5028.4	
390.69	3729.4	
390.89	3979.9	
391.1	5171.1	
391.3	5899.5	
391.5	5006.6	
391.71	5379.3	
391.91	5748.6	
392.12	6477.7	
392.32	4988.2	
392.53	4387.4	
392.73	5229.1	
392.93	5426.4	
393.14	4123.9	
393.34	4717.2	
393.55	5697.4	
393.75	5317.9	
393.95	4141	
394.16	4040	
394.36	5175.9	
394.57	5729.5	
394.77	3673.4	
394.98	4009.2	
395.18	5145.2	
395.38	5300.1	
395.59	4659.8	
395.79	3917.8	
396	5303.6	
396.2	5638.7	
396.4	4475.5	
396.61	4521.9	
396.81	5811.5	
397.02	5253	
397.22	4797.7	
397.42	4784.7	
397.63	5885.9	
397.83	5230.5	
398.04	3893.2	
398.24	4327.4	
398.44	5613.5	
398.65	4870.8	
398.85	3790.8	
399.05	3938.9	
399.26	5227.1	
399.46	6531.7	
399.67	4169	
399.87	3976.5	
400.07	5556.8	
400.28	5791.7	
400.48	4062.5	
400.69	4896	
400.89	5978	
401.09	6376	
401.3	4035.2	
401.5	4865.3	
401.7	6529.6	
401.91	6722.8	
402.11	4323.3	
402.32	4382	
402.52	6098.2	
402.72	5962.3	
402.93	4672.8	
403.13	3730	
403.33	6690.7	
403.54	5526.1	
403.74	4373.8	
403.94	5075.5	
404.15	5613.5	
404.35	6563.7	
404.56	4174.4	
404.76	5702.2	
404.96	5928.9	
405.17	5728.2	
405.37	5208.7	
405.57	4529.4	
405.78	5930.2	
405.98	5510.4	
406.18	4190.8	
406.39	4928.1	
406.59	5981.4	
406.79	5592.3	
407	3990.1	
407.2	4116.4	
407.4	6032	
407.61	6122.1	
407.81	4058.4	
408.01	5850.4	
408.22	5090.6	
408.42	6752.8	
408.62	4934.9	
408.83	4577.9	
409.03	5647.6	
409.23	5588.9	
409.44	4666.6	
409.64	4811.4	
409.84	6496.8	
410.05	6404.7	
410.25	4847.5	
410.45	4698.7	
410.66	6062	
410.86	8091.5	
411.06	5018.9	
411.27	4913.1	
411.47	7838.9	
411.67	6263.4	
411.88	5154.7	
412.08	5322.7	
412.28	6773.3	
412.49	7168.6	
412.69	4968.4	
412.89	5001.1	
413.09	7042.3	
413.3	6962.4	
413.5	5128.8	
413.7	4797.7	
413.91	6371.9	
414.11	7073	
414.31	5030.5	
414.52	5337.7	
414.72	6849.8	
414.92	6707.8	
415.12	5004.6	
415.33	5492.7	
415.53	7073.7	
415.73	7176.1	
415.94	5704.3	
416.14	5226.4	
416.34	6288.6	
416.55	6075	
416.75	6277.7	
416.95	5786.9	
417.15	7086.7	
417.36	7667.6	
417.56	6411.5	
417.76	5592.3	
417.97	7310.6	
418.17	7100.3	
418.37	5327.4	
418.57	5385.5	
418.78	7021.8	
418.98	6701.6	
419.18	6121.4	
419.38	5950	
419.59	6701	
419.79	6358.3	
419.99	5253.7	
420.2	5651	
420.4	7102.4	
420.6	7248.4	
420.8	5119.2	
421.01	5022.3	
421.21	7017.7	
421.41	7076.4	
421.61	5481.7	
421.82	5217.5	
422.02	6623.8	
422.22	7363.8	
422.42	5918.6	
422.63	5548.6	
422.83	6689.3	
423.03	7649.8	
423.23	5642.8	
423.44	4764.9	
423.64	6727.6	
423.84	6442.9	
424.04	5150.6	
424.25	4833.9	
424.45	7327.6	
424.65	7376.1	
424.85	4721.9	
425.06	5094	
425.26	7458	
425.46	6481.8	
425.66	5576.6	
425.87	5332.2	
426.07	7198.6	
426.27	7116.7	
426.47	5464.7	
426.67	4866	
426.88	7436.9	
427.08	7009.5	
427.28	5593.7	
427.48	4771.8	
427.69	6141.2	
427.89	6608.1	
428.09	5546.6	
428.29	4889.9	
428.5	7152.9	
428.7	6797.2	
428.9	4771.1	
429.1	5240.8	
429.3	6739.2	
429.51	6925.5	
429.71	5013.4	
429.91	5671.5	
430.11	6998.6	
430.31	7195.2	
430.52	5268.1	
430.72	5493.3	
430.92	7432.8	
431.12	7073	
431.32	5066.7	
431.53	5414.1	
431.73	6217	
431.93	7518.1	
432.13	4958.8	
432.33	4896	
432.54	6567.8	
432.74	6811.5	
432.94	4813.4	
433.14	5682.4	
433.34	7049.1	
433.55	6619.7	
433.75	5607.3	
433.95	7055.3	
434.15	6777.4	
434.35	6589.7	
434.56	4988.2	
434.76	4672.8	
434.96	6879.1	
435.16	7052.5	
435.36	4959.5	
435.56	5817.6	
435.77	6478.4	
435.97	6688.7	
436.17	6444.3	
436.37	5751.4	
436.57	6518	
436.78	6506.4	
436.98	6700.3	
437.18	6283.2	
437.38	7094.8	
437.58	6660	
437.78	6404.7	
437.99	5285.8	
438.19	7095.5	
438.39	7748.8	
438.59	5264	
438.79	4788.8	
438.99	7597.3	
439.2	6679.8	
439.4	4838	
439.6	4793.6	
439.8	6822.5	
440	7694.2	
440.2	5665.4	
440.4	5760.3	
440.61	7210.9	
440.81	7617.8	
441.01	5029.1	
441.21	5835.3	
441.41	7561.1	
441.61	7210.9	
441.81	6073.6	
442.02	6888.7	
442.22	8000.7	
442.42	7386.3	
442.62	5219.6	
442.82	5227.8	
443.02	7697.6	
443.22	6885.3	
443.43	5551.4	
443.63	5141.8	
443.83	6731	
444.03	6735.8	
444.23	6242.2	
444.43	5797.8	
444.63	7076.4	
444.83	8049.2	
445.04	5337	
445.24	6336.4	
445.44	7281.9	
445.64	7359.7	
445.84	5970.5	
446.04	5978.7	
446.24	6814.3	
446.44	7567.9	
446.65	5233.2	
446.85	5610.8	
447.05	6840.2	
447.25	7529	
447.45	5670.8	
447.65	5095.3	
447.85	7057.3	
448.05	6688.7	
448.25	5901.6	
448.46	5859.9	
448.66	7082.6	
448.86	6802.7	
449.06	5042.1	
449.26	5922	
449.46	7256	
449.66	6533	
449.86	5588.2	
450.06	5467.4	
450.26	6718	
450.47	7223.2	
450.67	5685.2	
450.87	6078.4	
451.07	7336.5	
451.27	7054.6	
451.47	5169.1	
451.67	5720.7	
451.87	6745.3	
452.07	7752.9	
452.27	5382.1	
452.47	5392.3	
452.67	7213.6	
452.88	7486	
453.08	4838	
453.28	6481.8	
453.48	8063.5	
453.68	7034.8	
453.88	5352	
454.08	5491.3	
454.28	7361.1	
454.48	7131.7	
454.68	5909.8	
454.88	6270.9	
455.08	7351.5	
455.28	7192.5	
455.48	5139	
455.68	5712.5	
455.89	7856	
456.09	7514.7	
456.29	5498.1	
456.49	5591	
456.69	7770.7	
456.89	7098.3	
457.09	5924.1	
457.29	6324.8	
457.49	7396.6	
457.69	7561.8	
457.89	5853.8	
458.09	5369.1	
458.29	7250.5	
458.49	7826.7	
458.69	6137.1	
458.89	5677	
459.09	8058.8	
459.29	8181.6	
459.49	5799.2	
459.69	6547.4	
459.9	7628.7	
460.1	7292.1	
460.3	5755.5	
460.5	5646.9	
460.7	7658.7	
460.9	7400	
461.1	5309	
461.3	6313.9	
461.5	8262.2	
461.7	7866.2	
461.9	5667.4	
462.1	5999.2	
462.3	7471.7	
462.5	7946.8	
462.7	5740.5	
462.9	5788.9	
463.1	8826.7	
463.3	8540.7	
463.5	5980.1	
463.7	6769.2	
463.9	7664.2	
464.1	8063.5	
464.3	6111.8	
464.5	6253.1	
464.7	8234.2	
464.9	7994.6	
465.1	7423.2	
465.3	6637.5	
465.5	8517.5	
465.7	8493.6	
465.9	6850.5	
466.1	6681.8	
466.3	8290.9	
466.5	8181	
466.7	7390.4	
466.9	6485.9	
467.1	8243.1	
467.3	8912.8	
467.5	7409.6	
467.7	6442.9	
467.9	9121.7	
468.1	9953.1	
468.3	7058.7	
468.5	7434.1	
468.7	8137.3	
468.9	8209.6	
469.1	6750.8	
469.3	7255.3	
469.5	9781.8	
469.7	7845.1	
469.9	7098.9	
470.1	6517.3	
470.3	8333.2	
470.5	8299.1	
470.7	7591.1	
470.9	6628.6	
471.1	8079.2	
471.3	8393.9	
471.5	6518.7	
471.69	8004.8	
471.89	7993.9	
472.09	7531.1	
472.29	7068.2	
472.49	7383.6	
472.69	7688.8	
472.89	8413.1	
473.09	6340.5	
473.29	6475	
473.49	7898.3	
473.69	7942.7	
473.89	7221.8	
474.09	6538.5	
474.29	8972.2	
474.49	8647.9	
474.69	7316	
474.89	6741.2	
475.09	7955.7	
475.29	7948.2	
475.49	6169.2	
475.69	6459.3	
475.88	9278	
476.08	8344.8	
476.28	6219	
476.48	6404.7	
476.68	8526.4	
476.88	8408.3	
477.08	6416.3	
477.28	6604.7	
477.48	7959.1	
477.68	8569.4	
477.88	6194.4	
478.08	6504.3	
478.28	8817.9	
478.48	8024.6	
478.67	6535.8	
478.87	6021.7	
479.07	8642.4	
479.27	8174.8	
479.47	6703	
479.67	6670.2	
479.87	8482	
480.07	8917.5	
480.27	6088.6	
480.47	7339.9	
480.67	8155	
480.87	8765.3	
481.06	6274.3	
481.26	7040.9	
481.46	8119.5	
481.66	8119.5	
481.86	6707.8	
482.06	7370	
482.26	7985.7	
482.46	8692.3	
482.66	6720.8	
482.86	6245.6	
483.05	8284	
483.25	7681.2	
483.45	8708.6	
483.65	6639.5	
483.85	7827.3	
484.05	8097.7	
484.25	7068.2	
484.45	7326.9	
484.65	8801.5	
484.84	8824	
485.04	6576	
485.24	6547.4	
485.44	9062.3	
485.64	7694.2	
485.84	6051.7	
486.04	7146	
486.24	7993.9	
486.44	8284	
486.63	5973.2	
486.83	6674.3	
487.03	7950.9	
487.23	8023.9	
487.43	6095.4	
487.63	8084	
487.83	8173.4	
488.02	8981	
488.22	6877.8	
488.42	7363.8	
488.62	8834.9	
488.82	7950.9	
489.02	6567.2	
489.22	6641.6	
489.41	8703.9	
489.61	8502.5	
489.81	6465.4	
490.01	6483.2	
490.21	8604.9	
490.41	9303.9	
490.61	6474.3	
490.8	6516.6	
491	8258.8	
491.2	7749.5	
491.4	7029.3	
491.6	6321.4	
491.8	8355	
491.99	8393.3	
492.19	6161	
492.39	6435.4	
492.59	8707.3	
492.79	8715.5	
492.99	7130.3	
493.18	6364.4	
493.38	8760.5	
493.58	9472.5	
493.78	6934.4	
493.98	6578.8	
494.18	8452	
494.37	8023.3	
494.57	7191.8	
494.77	7057.3	
494.97	8761.2	
495.17	8957.1	
495.37	6766.5	
495.56	7163.1	
495.76	9134.6	
495.96	8798.1	
496.16	7905.2	
496.36	6922.8	
496.55	9112.1	
496.75	8656.1	
496.95	7282.6	
497.15	7200.7	
497.35	9032.9	
497.54	9042.5	
497.74	7089.4	
497.94	8419.2	
498.14	9628.9	
498.34	9407	
498.53	6840.9	
498.73	7463.5	
498.93	8529.8	
499.13	9026.8	
499.33	7292.1	
499.52	7696.3	
499.72	9135.3	
499.92	9219.3	
500.12	7062.8	
500.32	7311.2	
500.51	9202.9	
500.71	9009.7	
500.91	7952.3	
501.11	7574.1	
501.31	9193.3	
501.5	9542.9	
501.7	8071	
501.9	7236.2	
502.1	9083.4	
502.29	9360.6	
502.49	7700.4	
502.69	8028	
502.89	9194.7	
503.09	9156.5	
503.28	6929	
503.48	7002	
503.68	8611	
503.88	8549.6	
504.07	7735.2	
504.27	7325.6	
504.47	8953.7	
504.67	8979.7	
504.86	7624.6	
505.06	7435.5	
505.26	8622.6	
505.46	10160	
505.65	7288	
505.85	7445	
506.05	8589.2	
506.25	8997.4	
506.44	6747.4	
506.64	7559.1	
506.84	8389.8	
507.04	9161.9	
507.23	6894.8	
507.43	7406.1	
507.63	10060	
507.83	8561.2	
508.02	7272.3	
508.22	7053.2	
508.42	10225	
508.62	8312.7	
508.81	7202.7	
509.01	7597.3	
509.21	8340	
509.4	8408.3	
509.6	7450.5	
509.8	6883.9	
510	8456.1	
510.19	9609.8	
510.39	6774	
510.59	6860	
510.79	8314.1	
510.98	9456.2	
511.18	6968.6	
511.38	7055.3	
511.57	9120.3	
511.77	8942.1	
511.97	7581.6	
512.17	6834.8	
512.36	9103.2	
512.56	8910	
512.76	6813.6	
512.95	6566.5	
513.15	9172.2	
513.35	7955	
513.55	7556.3	
513.74	6773.3	
513.94	9084.8	
514.14	8495	
514.33	7523.6	
514.53	7350.8	
514.73	8456.7	
514.92	8619.2	
515.12	6863.4	
515.32	6737.1	
515.51	8759.2	
515.71	9048.6	
515.91	8121.6	
516.11	6883.2	
516.3	10102	
516.5	8442.4	
516.7	7326.3	
516.89	7807.5	
517.09	8556.4	
517.29	8390.5	
517.48	7815.7	
517.68	7058	
517.88	8277.2	
518.07	8839	
518.27	7488.1	
518.47	6669.6	
518.66	9150.3	
518.86	8127	
519.06	6574	
519.25	6991.1	
519.45	8362.5	
519.65	9559.2	
519.84	7521.5	
520.04	7961.8	
520.24	9888.3	
520.43	8959.9	
520.63	7150.1	
520.83	7028.6	
521.02	8268.3	
521.22	8809.7	
521.42	7393.8	
521.61	7957.7	
521.81	8480.6	
522.01	8681.3	
522.2	7318.1	
522.4	7099.6	
522.6	9069.8	
522.79	7949.5	
522.99	7200.7	
523.18	6570.6	
523.38	8736.6	
523.58	8692.9	
523.77	8159.1	
523.97	6574	
524.17	10215	
524.36	9544.9	
524.56	7744.7	
524.76	7393.2	
524.95	8733.2	
525.15	8480.6	
525.34	7292.1	
525.54	7383.6	
525.74	9155.1	
525.93	8338.6	
526.13	8326.4	
526.33	7344.7	
526.52	9423.4	
526.72	8986.5	
526.91	8335.9	
527.11	7724.3	
527.31	9484.8	
527.5	9775.6	
527.7	7659.4	
527.89	6877.8	
528.09	8547.5	
528.29	9045.2	
528.48	7984.3	
528.68	7752.9	
528.87	9387.9	
529.07	9473.9	
529.27	7718.8	
529.46	7307.8	
529.66	9136	
529.85	9508	
530.05	7137.9	
530.25	7785.7	
530.44	10315	
530.64	9062.9	
530.83	7496.2	
531.03	7693.5	
531.23	9506.7	
531.42	9300.5	
531.62	8275.8	
531.81	7676.5	
532.01	9528.5	
532.21	9858.9	
532.4	7372.7	
532.6	7724.3	
532.79	10229	
532.99	9564	
533.18	7789.1	
533.38	8633.6	
533.58	9206.3	
533.77	9848	
533.97	7798.7	
534.16	8419.2	
534.36	10101	
534.55	9356.5	
534.75	8564.6	
534.95	7879.9	
535.14	10001	
535.34	9284.8	
535.53	7557.7	
535.73	9196.1	
535.92	10423	
536.12	9414.5	
536.31	7667.6	
536.51	8665	
536.71	9742.9	
536.9	9300.5	
537.1	7789.1	
537.29	7907.2	
537.49	9967.5	
537.68	9212.4	
537.88	8232.2	
538.07	7617.1	
538.27	9467.8	
538.46	10252	
538.66	7466.2	
538.86	7877.2	
539.05	9483.5	
539.25	9811.1	
539.44	8058.1	
539.64	7813.7	
539.83	9303.2	
540.03	10157	
540.22	7595.2	
540.42	7718.1	
540.61	9599.5	
540.81	9643.2	
541	8040.3	
541.2	8643.8	
541.39	9181	
541.59	9495.1	
541.78	8383.7	
541.98	7626.6	
542.18	8860.9	
542.37	8804.2	
542.57	7909.9	
542.76	8316.1	
542.96	8910.7	
543.15	9415.2	
543.35	7957	
543.54	7417.1	
543.74	9707.4	
543.93	9450	
544.13	7869.7	
544.32	8824	
544.52	9602.2	
544.71	8892.3	
544.91	7177.4	
545.1	8045.1	
545.3	8928.5	
545.49	9468.4	
545.69	7094.8	
545.88	7585	
546.08	10234	
546.27	9908.1	
546.47	7977.5	
546.66	7365.9	
546.86	9603.6	
547.05	10087	
547.24	7531.7	
547.44	7488.7	
547.63	8758.5	
547.83	9673.2	
548.02	7765.9	
548.22	7861.5	
548.41	8647.2	
548.61	9624.8	
548.8	7325.6	
549	7331	
549.19	9224.7	
549.39	9529.2	
549.58	7100.3	
549.78	7514.7	
549.97	9501.9	
550.17	9094.3	
550.36	8294.3	
550.55	9059.5	
550.75	9017.2	
550.94	9756.5	
551.14	7294.2	
551.33	7531.7	
551.53	8424.7	
551.72	9284.1	
551.92	7608.9	
552.11	7389.8	
552.31	9328.5	
552.5	9246.6	
552.69	8783.7	
552.89	7055.9	
553.08	9183.8	
553.28	9015.2	
553.47	7403.4	
553.67	8287.4	
553.86	9768.8	
554.06	8457.4	
554.25	6718.7	
554.44	7192.5	
554.64	10357	
554.83	10009	
555.03	7098.9	
555.22	7447.8	
555.42	9407.7	
555.61	9111.4	
555.8	7161.7	
556	7501.7	
556.19	8441	
556.39	9395.4	
556.58	7365.2	
556.78	7285.3	
556.97	9133.9	
557.16	8822.6	
557.36	8282	
557.55	7123.5	
557.75	8131.8	
557.94	9710.1	
558.13	7055.3	
558.33	6920.1	
558.52	9517.6	
558.72	8513.4	
558.91	7062.8	
559.1	7185	
559.3	8323.6	
559.49	8114.7	
559.69	6677.1	
559.88	7479.2	
560.07	9095.7	
560.27	9331.2	
560.46	7522.2	
560.66	7744.7	
560.85	8702.5	
561.04	8099.7	
561.24	6961.7	
561.43	7120.1	
561.63	8343.4	
561.82	8594.6	
562.01	8125	
562.21	7307.8	
562.4	8881.4	
562.59	9716.9	
562.79	7290.1	
562.98	6920.8	
563.18	8780.3	
563.37	10058	
563.56	7587	
563.76	6961.7	
563.95	8475.9	
564.14	8376.2	
564.34	7258.7	
564.53	7160.4	
564.73	8839	
564.92	9075.2	
565.11	7326.3	
565.31	6778.8	
565.5	9341.5	
565.69	8487.5	
565.89	7035.5	
566.08	7303.1	
566.27	9264.3	
566.47	9562	
566.66	7810.3	
566.85	6625.2	
567.05	8902.5	
567.24	8381	
567.44	7049.8	
567.63	8118.8	
567.82	9131.9	
568.02	8815.8	
568.21	6935.1	
568.4	7316	
568.6	8807.6	
568.79	8746.9	
568.98	6911.2	
569.18	7029.3	
569.37	8706.6	
569.56	10398	
569.76	7294.2	
569.95	8132.5	
570.14	9064.3	
570.34	8975.6	
570.53	6921.5	
570.72	6853.2	
570.91	9469.8	
571.11	8767.4	
571.3	7325.6	
571.49	8136.6	
571.69	8851.3	
571.88	8528.4	
572.07	7704.5	
572.27	7736.5	
572.46	8418.5	
572.65	9288.2	
572.85	7169.9	
573.04	7372	
573.23	9600.2	
573.43	8897.7	
573.62	6888	
573.81	7472.4	
574	8966	
574.2	8736	
574.39	7114	
574.58	7286.7	
574.78	9666.4	
574.97	9011.1	
575.16	7630	
575.36	7721.5	
575.55	9360.6	
575.74	9441.1	
575.93	6917.4	
576.13	7899	
576.32	8784.4	
576.51	9275.3	
576.71	7320.1	
576.9	8516.8	
577.09	9590.6	
577.28	9216.5	
577.48	7662.1	
577.67	6909.2	
577.86	8913.4	
578.05	9213.8	
578.25	7481.2	
578.44	7528.3	
578.63	9025.4	
578.83	9962	
579.02	7064.1	
579.21	8288.1	
579.4	9155.8	
579.6	8944.8	
579.79	7527.7	
579.98	9321.7	
580.17	9369.5	
580.37	9503.3	
580.56	7167.2	
580.75	7722.2	
580.94	9805	
581.14	9874.6	
581.33	8122.2	
581.52	7266.9	
581.71	9318.9	
581.91	9878	
582.1	6987	
582.29	7378.8	
582.48	9050	
582.68	9008.3	
582.87	7875.8	
583.06	7662.1	
583.25	9308.7	
583.45	8774.9	
583.64	8238.3	
583.83	8709.3	
584.02	8858.8	
584.21	9336.7	
584.41	8085.4	
584.6	7523.6	
584.79	9102.5	
584.98	9680.1	
585.18	7178.1	
585.37	7077.1	
585.56	8738.7	
585.75	9353.1	
585.94	7316	
586.14	7875.8	
586.33	9871.2	
586.52	9005.6	
586.71	7658	
586.91	7494.2	
587.1	8529.8	
587.29	9389.3	
587.48	7389.1	
587.67	7297.6	
587.87	9183.1	
588.06	9306.7	
588.25	8384.4	
588.44	7771.4	
588.63	8862.2	
588.83	9313.5	
589.02	7367.9	
589.21	7177.4	
589.4	8744.8	
589.59	8634.9	
589.78	6550.8	
589.98	6751.5	
590.17	8235.6	
590.36	8642.4	
590.55	6242.2	
590.74	7043	
590.94	9752.4	
591.13	8518.9	
591.32	6772.6	
591.51	6259.3	
591.7	8901.8	
591.89	8473.8	
592.09	6419.7	
592.28	6784.9	
592.47	7839.6	
592.66	9460.3	
592.85	6423.8	
593.05	6516	
593.24	8341.4	
593.43	9035.6	
593.62	6635.4	
593.81	7039.6	
594	8374.1	
594.19	8529.1	
594.39	6662.7	
594.58	6539.8	
594.77	8757.1	
594.96	9120.3	
595.15	6475	
595.34	7092.1	
595.54	8553	
595.73	7911.3	
595.92	5993.7	
596.11	6995.9	
596.3	8996.7	
596.49	8084.7	
596.68	6685.9	
596.88	7116	
597.07	8776.2	
597.26	7858.1	
597.45	6391.7	
597.64	7324.2	
597.83	8090.2	
598.02	8595.3	
598.22	6278.4	
598.41	7004.7	
598.6	8489.5	
598.79	7935.2	
598.98	6419.7	
599.17	7228.6	
599.36	8471.1	
599.55	9387.9	
599.74	8056.7	
599.94	7929.7	
600.13	8914.1	
600.32	7975.5	
600.51	6124.1	
600.7	6340.5	
600.89	9394	
601.08	9385.2	
601.27	6129.6	
601.47	6937.8	
601.66	8830.8	
601.85	9256.1	
602.04	6710.5	
602.23	6732.4	
602.42	7993.2	
602.61	8526.4	
602.8	6675	
602.99	6506.4	
603.18	8279.3	
603.37	8447.9	
603.57	7021.8	
603.76	7376.1	
603.95	9087.5	
604.14	8695	
604.33	6529.6	
604.52	6817.7	
604.71	8436.9	
604.9	8036.9	
605.09	7273	
605.28	7148.1	
605.47	8951	
605.66	8594	
605.86	6958.3	
606.05	6591.7	
606.24	8981	
606.43	7795.3	
606.62	6774.7	
606.81	7404.1	
607	8701.1	
607.19	8223.3	
607.38	6294.8	
607.57	6584.2	
607.76	7995.3	
607.95	7538.6	
608.14	6898.2	
608.33	7324.9	
608.52	7979.6	
608.72	8746.2	
608.91	6184.9	
609.1	6143.9	
609.29	8054.7	
609.48	7637.6	
609.67	6974.7	
609.86	6269.5	
610.05	7795.9	
610.24	8060.1	
610.43	6115.2	
610.62	5781.4	
610.81	8972.8	
611	8787.8	
611.19	6223.1	
611.38	6873	
611.57	8289.5	
611.76	9334.6	
611.95	6003.3	
612.14	5909.8	
612.33	8051.9	
612.52	7688.1	
612.71	6494.8	
612.9	5801.2	
613.09	7485.3	
613.28	9369.5	
613.47	6367.1	
613.66	6996.5	
613.85	8230.8	
614.04	7788.4	
614.24	6308.4	
614.43	5677.7	
614.62	8365.3	
614.81	8269	
615	6714.6	
615.19	6705	
615.38	7708.6	
615.57	7962.5	
615.76	6641.6	
615.95	7418.4	
616.14	8431.5	
616.33	8030.1	
616.52	6852.5	
616.71	6955.6	
616.9	8323.6	
617.09	8106.5	
617.28	6336.4	
617.47	7385.7	
617.66	7588.4	
617.85	7598.6	
618.04	7090.1	
618.22	6610.2	
618.41	7865.6	
618.6	8646.5	
618.79	6599.2	
618.98	6331	
619.17	8921.6	
619.36	7437.5	
619.55	6503.7	
619.74	6554.2	
619.93	8270.4	
620.12	7800.7	
620.31	6956.3	
620.5	7077.1	
620.69	8672.5	
620.88	9110.7	
621.07	7647.8	
621.26	6857.3	
621.45	8439	
621.64	8454	
621.83	6946	
622.02	6344.6	
622.21	8418.5	
622.4	8303.1	
622.59	7487.4	
622.78	7189.7	
622.97	7989.1	
623.16	8836.3	
623.35	6904.4	
623.54	6249	
623.72	8117.5	
623.91	8178.9	
624.1	7163.8	
624.29	6111.8	
624.48	9146.2	
624.67	8566.7	
624.86	7104.4	
625.05	6288.6	
625.24	9136.7	
625.43	7989.1	
625.62	8387.1	
625.81	6537.8	
626	8723	
626.19	8196	
626.38	7068.2	
626.56	6610.8	
626.75	8030.8	
626.94	8699.1	
627.13	7146	
627.32	6132.3	
627.51	8620.6	
627.7	9639.1	
627.89	6234	
628.08	7153.6	
628.27	7891.5	
628.46	8105.9	
628.65	6489.3	
628.83	6234.7	
629.02	8556.4	
629.21	7848.5	
629.4	6863.4	
629.59	6965.1	
629.78	7848.5	
629.97	8748.2	
630.16	7045.7	
630.35	6551.5	
630.54	9098.4	
630.72	8834.3	
630.91	6627.2	
631.1	6997.9	
631.29	8423.3	
631.48	8501.8	
631.67	7095.5	
631.86	6638.1	
632.05	8214.4	
632.24	8132.5	
632.42	6359.6	
632.61	6888	
632.8	8165.3	
632.99	7930.4	
633.18	6874.3	
633.37	7204.8	
633.56	8344.1	
633.75	8217.1	
633.93	6830.7	
634.12	6666.1	
634.31	9136	
634.5	8720.9	
634.69	6674.3	
634.88	7063.4	
635.07	8251.3	
635.25	8615.1	
635.44	7357.7	
635.63	7420.5	
635.82	8146.8	
636.01	7581.6	
636.2	7345.4	
636.39	6990.4	
636.57	9068.4	
636.76	8724.3	
636.95	6513.9	
637.14	7590.5	
637.33	8501.8	
637.52	9183.1	
637.7	6259.3	
637.89	7124.9	
638.08	8115.4	
638.27	9295.7	
638.46	7169.3	
638.65	7509.2	
638.83	9213.1	
639.02	7940	
639.21	7053.2	
639.4	7456	
639.59	8385.1	
639.78	7948.8	
639.96	6528.2	
640.15	6500.3	
640.34	8271.1	
640.53	8284	
640.72	6253.8	
640.91	6497.5	
641.09	7702.4	
641.28	8835.6	
641.47	6539.2	
641.66	7119.4	
641.85	8236.2	
642.03	8488.1	
642.22	6932.4	
642.41	6679.1	
642.6	7817.8	
642.79	7354.9	
642.97	6324.1	
643.16	7017	
643.35	7755.7	
643.54	7591.1	
643.73	6331	
643.91	6871.6	
644.1	7529	
644.29	8028	
644.48	6367.1	
644.67	6322.1	
644.85	7578.8	
645.04	8002.1	
645.23	6035.4	
645.42	6175.3	
645.6	7529	
645.79	8391.2	
645.98	6212.9	
646.17	5381.4	
646.36	7303.7	
646.54	7724.9	
646.73	6827.9	
646.92	5871.5	
647.11	7449.8	
647.29	8276.5	
647.48	5849	
647.67	5659.9	
647.86	8477.9	
648.05	8584.4	
648.23	6150.1	
648.42	7217	
648.61	7963.2	
648.8	7737.9	
648.98	5864	
649.17	6189.6	
649.36	7376.1	
649.55	6995.2	
649.73	5905	
649.92	6555.5	
650.11	7337.9	
650.3	7593.2	
650.48	5987.6	
650.67	5851.7	
650.86	7759.8	
651.05	6846.4	
651.23	5911.1	
651.42	5986.2	
651.61	7400.7	
651.79	7380.9	
651.98	6124.8	
652.17	5777.3	
652.36	7646.4	
652.54	6918	
652.73	5782.8	
652.92	5640.1	
653.11	7783.6	
653.29	7763.8	
653.48	5275.6	
653.67	6070.2	
653.85	7525.6	
654.04	8430.1	
654.23	6199.2	
654.42	5850.4	
654.6	7041.6	
654.79	7591.1	
654.98	5439.4	
655.16	5847.6	
655.35	6807.4	
655.54	6677.1	
655.73	5441.5	
655.91	5336.3	
656.1	7724.9	
656.29	6648.4	
656.47	4990.9	
656.66	6363	
656.85	6981.5	
657.03	6881.2	
657.22	5439.4	
657.41	5513.1	
657.59	7009.5	
657.78	6830	
657.97	5252.4	
658.16	5784.8	
658.34	7542.7	
658.53	7854	
658.72	6570.6	
658.9	7012.9	
659.09	7209.5	
659.28	7124.2	
659.46	5627.1	
659.65	5573.9	
659.84	6881.9	
660.02	7401.4	
660.21	5498.1	
660.4	5457.2	
660.58	7662.1	
660.77	7161.7	
660.96	5943.2	
661.14	5199.8	
661.33	8161.8	
661.52	8021.9	
661.7	5162.9	
661.89	8059.4	
662.08	6898.2	
662.26	6472.3	
662.45	5349.3	
662.64	5447.6	
662.82	7424.6	
663.01	6780.1	
663.2	5488.6	
663.38	6067.4	
663.57	7330.4	
663.75	7238.2	
663.94	5686.5	
664.13	6808.8	
664.31	6857.3	
664.5	7383.6	
664.69	6092.7	
664.87	6359.6	
665.06	6631.3	
665.25	7229.3	
665.43	6564.4	
665.62	6595.1	
665.8	7524.2	
665.99	6901.7	
666.18	5702.9	
666.36	5726.1	
666.55	7505.8	
666.74	7374.7	
666.92	5468.1	
667.11	6799.3	
667.29	6886.6	
667.48	7380.9	
667.67	6466.1	
667.85	5643.5	
668.04	7023.9	
668.22	7005.4	
668.41	5837.4	
668.6	5988.9	
668.78	6823.8	
668.97	7009.5	
669.15	6038.1	
669.34	5240.1	
669.53	6741.9	
669.71	7107.1	
669.9	5396.4	
670.08	5936.4	
670.27	6761.7	
670.46	7275.8	
670.64	6125.5	
670.83	6343.2	
671.01	6659.3	
671.2	7205.4	
671.38	5415.5	
671.57	5264.6	
671.76	7740.6	
671.94	8119.5	
672.13	5253	
672.31	6201.9	
672.5	7412.3	
672.69	6720.1	
672.87	5382.1	
673.06	5724.8	
673.24	7199.3	
673.43	6802	
673.61	5959.6	
673.8	5623	
673.98	7383.6	
674.17	7519.5	
674.36	6154.8	
674.54	6033.3	
674.73	7118.1	
674.91	7354.9	
675.1	5743.2	
675.28	5459.2	
675.47	6947.4	
675.65	7362.4	
675.84	5658.5	
676.03	5915.2	
676.21	6802.7	
676.4	6316.6	
676.58	6251.8	
676.77	6105	
676.95	7988.4	
677.14	6753.5	
677.32	5360.9	
677.51	5256.5	
677.69	7397.3	
677.88	6574	
678.06	5238	
678.25	5343.8	
678.44	6934.4	
678.62	6796.5	
678.81	5138.4	
678.99	5884.5	
679.18	7657.4	
679.36	7258	
679.55	5557.5	
679.73	6047	
679.92	7221.1	
680.1	6745.3	
680.29	6534.4	
680.47	5556.8	
680.66	6726.2	
680.84	7429.3	
681.03	5029.8	
681.21	5941.8	
681.4	6718	
681.58	6598.6	
681.77	5443.5	
681.95	5323.4	
682.14	7481.9	
682.32	7684.7	
682.51	6073.6	
682.69	5169.1	
682.88	6741.9	
683.06	7191.1	
683.25	5852.4	
683.43	6183.5	
683.62	6998.6	
683.8	7281.2	
683.99	6338.5	
684.17	5706.3	
684.36	7911.3	
684.54	6892.8	
684.73	5076.2	
684.91	5148.6	
685.1	7047.7	
685.28	6538.5	
685.46	5628.5	
685.65	5628.5	
685.83	7224.6	
686.02	6832.7	
686.2	5254.4	
686.39	5306.3	
686.57	6346	
686.76	7670.3	
686.94	5188.9	
687.13	5329.5	
687.31	7052.5	
687.5	6716.7	
687.68	4857.8	
687.86	5835.3	
688.05	8181.6	
688.23	6265.4	
688.42	5871.5	
688.6	5286.5	
688.79	6569.2	
688.97	6587.6	
689.16	5607.3	
689.34	4711	
689.52	7169.9	
689.71	7372.7	
689.89	5859.9	
690.08	5182.7	
690.26	6831.3	
690.45	6655.9	
690.63	5976	
690.81	5348.6	
691	6690	
691.18	6558.3	
691.37	5533.6	
691.55	7280.5	
691.74	6543.3	
691.92	8127	
692.1	5453.7	
692.29	5119.2	
692.47	6659.3	
692.66	6112.5	
692.84	5147.2	
693.02	5634.6	
693.21	6240.8	
693.39	6659.3	
693.58	5694.7	
693.76	5210	
693.94	7565.9	
694.13	7399.3	
694.31	5252.4	
694.5	6149.4	
694.68	6503	
694.86	6781.5	
695.05	5501.5	
695.23	5626.5	
695.42	7157	
695.6	8942.1	
695.78	6097.5	
695.97	5292	
696.15	7172.7	
696.34	6587	
696.52	5142.4	
696.7	5824.4	
696.89	6917.4	
697.07	6378.1	
697.25	5674.9	
697.44	6937.2	
697.62	6870.9	
697.81	7149.5	
697.99	5442.1	
698.17	5728.9	
698.36	6350.8	
698.54	6793.1	
698.72	5688.6	
698.91	4870.8	
699.09	6571.9	
699.28	6451.8	
699.46	5383.4	
699.64	5275.6	
699.83	6361.7	
700.01	7344.7	
700.19	5930.2	
700.38	4646.8	
700.56	7322.2	
700.74	6438.1	
700.93	4943.8	
701.11	5631.2	
701.29	6937.8	
701.48	7763.8	
701.66	5107.6	
701.84	5246.9	
702.03	6537.8	
702.21	7165.8	
702.39	4840.7	
702.58	5268.7	
702.76	6896.9	
702.94	6996.5	
703.13	4838.7	
703.31	6725.5	
703.49	6304.3	
703.68	7070.3	
703.86	5038.7	
704.04	5767.1	
704.23	6662	
704.41	7026.6	
704.59	5111	
704.78	6117.3	
704.96	7677.2	
705.14	6992.4	
705.33	4882.4	
705.51	5602.6	
705.69	6533	
705.87	7177.4	
706.06	5760.9	
706.24	4870.1	
706.42	6767.2	
706.61	7021.8	
706.79	5819.6	
706.97	4871.4	
707.16	6342.6	
707.34	6859.3	
707.52	5713.8	
707.7	4980.7	
707.89	6450.4	
708.07	6153.5	
708.25	5718.6	
708.44	6094.1	
708.62	6342.6	
708.8	7290.8	
708.98	5920.7	
709.17	5099.4	
709.35	6693.4	
709.53	6674.3	
709.72	4853	
709.9	5285.8	
710.08	6961.7	
710.26	6944	
710.45	6208.8	
710.63	5120.6	
710.81	6625.2	
710.99	6578.8	
711.18	5681.1	
711.36	5198.4	
711.54	6458.6	
711.72	7126.9	
711.91	5287.9	
712.09	4795.7	
712.27	6581.5	
712.45	7088.7	
712.64	5402.5	
712.82	4595	
713	6128.9	
713.18	6245.6	
713.37	4763.6	
713.55	5723.4	
713.73	6954.9	
713.91	5745.9	
714.1	5012.1	
714.28	4541.7	
714.46	6595.8	
714.64	5950.7	
714.83	4121.2	
715.01	4691.2	
715.19	6025.8	
715.37	5542.5	
715.55	4463.9	
715.74	4773.8	
715.92	6744	
716.1	5088.5	
716.28	5694.7	
716.47	4943.1	
716.65	5740.5	
716.83	5750	
717.01	4668	
717.19	4730.1	
717.38	7376.1	
717.56	5431.9	
717.74	4902.8	
717.92	4164.9	
718.1	6488	
718.29	5809.4	
718.47	3880.9	
718.65	4427	
718.83	6403.3	
719.01	6395.8	
719.2	3794.2	
719.38	4682.3	
719.56	5997.8	
719.74	7288.7	
719.92	4371.7	
720.11	5292.6	
720.29	6099.5	
720.47	5490.6	
720.65	3999.7	
720.83	4752.7	
721.02	5655.8	
721.2	5524.7	
721.38	4777.9	
721.56	4137.6	
721.74	5102.2	
721.92	5296.7	
722.11	5132.2	
722.29	4900.8	
722.47	6270.9	
722.65	5590.3	
722.83	4166.9	
723.01	4862.6	
723.2	5613.5	
723.38	5929.6	
723.56	3691.8	
723.74	4544.4	
723.92	5270.8	
724.1	6197.2	
724.29	4079.6	
724.47	5003.9	
724.65	5299.5	
724.83	5177.9	
725.01	3926.6	
725.19	4709	
725.37	5322.7	
725.56	5300.8	
725.74	3858.4	
725.92	4078.2	
726.1	5220.3	
726.28	5474.9	
726.46	4428.4	
726.64	4220.9	
726.83	5478.3	
727.01	5659.9	
727.19	3874.1	
727.37	4499.4	
727.55	5558.2	
727.73	5999.2	
727.91	3814.7	
728.09	3749.1	
728.28	5982.1	
728.46	6312.5	
728.64	4620.2	
728.82	4517.8	
729	6881.9	
729.18	6233.3	
729.36	3897.3	
729.54	5751.4	
729.72	7131.7	
729.91	5630.5	
730.09	5486.5	
730.27	4467.3	
730.45	5589.6	
730.63	6088.6	
730.81	4909	
730.99	4214	
731.17	6565.8	
731.35	5398.4	
731.53	4592.2	
731.71	4252.3	
731.9	6285.9	
732.08	6395.8	
732.26	4498	
732.44	4177.9	
732.62	6486.6	
732.8	6027.2	
732.98	4846.2	
733.16	4074.1	
733.34	6029.2	
733.52	5104.2	
733.7	4511	
733.88	4678.9	
734.07	5937.1	
734.25	5722	
734.43	4022.9	
734.61	5232.6	
734.79	7002.7	
734.97	5672.9	
735.15	4138.3	
735.33	4375.8	
735.51	5945.9	
735.69	5669.5	
735.87	5600.5	
736.05	4603.8	
736.23	5791	
736.41	5581.4	
736.59	4416.8	
736.77	4506.2	
736.95	6201.9	
737.13	5582.1	
737.32	4141.7	
737.5	4322.6	
737.68	6605.4	
737.86	5560.9	
738.04	3985.3	
738.22	5567.1	
738.4	5483.8	
738.58	5719.3	
738.76	4520.5	
738.94	3670	
739.12	5553.4	
739.3	5455.8	
739.48	5054.4	
739.66	4844.8	
739.84	5763	
740.02	5746.6	
740.2	3751.2	
740.38	4037.9	
740.56	6042.2	
740.74	5104.9	
740.92	4549.2	
741.1	4493.2	
741.28	5572.5	
741.46	5397.1	
741.64	4205.2	
741.82	4646.2	
742	5678.3	
742.18	5515.2	
742.36	4346.5	
742.54	4052.9	
742.72	6135	
742.9	5015.5	
743.08	4686.4	
743.26	3750.5	
743.44	6197.2	
743.62	6128.9	
743.8	4790.9	
743.98	4048.2	
744.16	5860.6	
744.34	5627.8	
744.52	4718.5	
744.7	4700.1	
744.88	5951.4	
745.06	5631.2	
745.24	4780.6	
745.42	4761.5	
745.6	6099.5	
745.78	5969.1	
745.96	3818.1	
746.14	4080.9	
746.32	6659.3	
746.5	6006	
746.68	4551.3	
746.86	4045.4	
747.03	6345.3	
747.21	5079.6	
747.39	4495.3	
747.57	4087.1	
747.75	5702.2	
747.93	6087.2	
748.11	4065.9	
748.29	4021.5	
748.47	6989.7	
748.65	5551.4	
748.83	4657.8	
749.01	4397	
749.19	5904.3	
749.37	5210.7	
749.55	4324.6	
749.73	4360.8	
749.91	5692.7	
750.09	5407.3	
750.26	4448.9	
750.44	3893.2	
750.62	5684.5	
750.8	5603.2	
750.98	3830.4	
751.16	4113	
751.34	5687.2	
751.52	5086.5	
751.7	4807.3	
751.88	3826.3	
752.06	6165.1	
752.24	5798.5	
752.42	3803.8	
752.59	4029	
752.77	5567.7	
752.95	6661.4	
753.13	4654.4	
753.31	4144.4	
753.49	5344.5	
753.67	5681.7	
753.85	4438.6	
754.03	4036.5	
754.21	5976.7	
754.38	6235.4	
754.56	4192.9	
754.74	3452.2	
754.92	5303.6	
755.1	5906.3	
755.28	3480.2	
755.46	3518.4	
755.64	6536.4	
755.82	6643.6	
755.99	3745.7	
756.17	3833.8	
756.35	4603.2	
756.53	5905.7	
756.71	2925.2	
756.89	3702	
757.07	5525.4	
757.25	4788.8	
757.42	4132.8	
757.6	4766.3	
757.78	5552	
757.96	4790.9	
758.14	3865.9	
758.32	3454.9	
758.5	4351.9	
758.67	5078.3	
758.85	3709.6	
759.03	3816.7	
759.21	5217.5	
759.39	4767	
759.57	3334.8	
759.75	4304.1	
759.92	5747.3	
760.1	5145.2	
760.28	4596.3	
760.46	4829.1	
760.64	4986.8	
760.82	4805.9	
760.99	4203.8	
761.17	3758	
761.35	5616.2	
761.53	4796.3	
761.71	3919.1	
761.89	4470.7	
762.06	5512.4	
762.24	5192.3	
762.42	3964.9	
762.6	3753.2	
762.78	5048.2	
762.96	5675.6	
763.13	4231.8	
763.31	3949.8	
763.49	5775.3	
763.67	5095.3	
763.85	4661.9	
764.02	5158.8	
764.2	6019	
764.38	5305.6	
764.56	3884.3	
764.74	4612	
764.91	6113.9	
765.09	5220.3	
765.27	3680.9	
765.45	3464.5	
765.63	6141.9	
765.8	5948.7	
765.98	3328.6	
766.16	3565.5	
766.34	4862.6	
766.52	4640	
766.69	4366.3	
766.87	3388	
767.05	5234.6	
767.23	5801.2	
767.41	3706.1	
767.58	3907.5	
767.76	5661.3	
767.94	5741.8	
768.12	3719.8	
768.29	4294.6	
768.47	5231.2	
768.65	5816.9	
768.83	3495.2	
769	4365.6	
769.18	4885.8	
769.36	5390.3	
769.54	4423.6	
769.72	3562.8	
769.89	5682.4	
770.07	5671.5	
770.25	3768.9	
770.43	4818.2	
770.6	6337.8	
770.78	6624.5	
770.96	3913	
771.14	4429.8	
771.31	5673.6	
771.49	5086.5	
771.67	3244.7	
771.85	3452.9	
772.02	4529.4	
772.2	5017.5	
772.38	4060.4	
772.55	3633.8	
772.73	5324.7	
772.91	5153.4	
773.09	3915	
773.26	3999.7	
773.44	5322.7	
773.62	5044.1	
773.8	3605.8	
773.97	3345	
774.15	5395.7	
774.33	5055.8	
774.5	3477.5	
774.68	3751.2	
774.86	5477.6	
775.04	5069.4	
775.21	3506.8	
775.39	3488.4	
775.57	5316.5	
775.74	5541.1	
775.92	3366.2	
776.1	3277.4	
776.27	5251	
776.45	6287.3	
776.63	3514.3	
776.81	3200.3	
776.98	4989.5	
777.16	5945.3	
777.34	3644	
777.51	3917.1	
777.69	4972.5	
777.87	4803.2	
778.04	3669.3	
778.22	4137.6	
778.4	4859.1	
778.57	5279.7	
778.75	3121.1	
778.93	3334.1	
779.1	4706.9	
779.28	4526	
779.46	3091.1	
779.64	3474.7	
779.81	5492.7	
779.99	6156.2	
780.17	4132.1	
780.34	4286.4	
780.52	5046.2	
780.69	5203.9	
780.87	3801.7	
781.05	3435.1	
781.22	5037.3	
781.4	5163.6	
781.58	3513.6	
781.75	2839.8	
781.93	5128.1	
782.11	4543.8	
782.28	4287.1	
782.46	3494.5	
782.64	4500.1	
782.81	5248.3	
782.99	3639.9	
783.17	3572.3	
783.34	5122.7	
783.52	4578.6	
783.69	3698.6	
783.87	4421.6	
784.05	4625	
784.22	4633.2	
784.4	4385.4	
784.58	3817.4	
784.75	5365.7	
784.93	4683	
785.1	3512.9	
785.28	4055.7	
785.46	5203.9	
785.63	4560.1	
785.81	3491.1	
785.99	3432.4	
786.16	4730.1	
786.34	5013.4	
786.51	3411.2	
786.69	3783.3	
786.87	4419.5	
787.04	4833.2	
787.22	3353.2	
787.39	4106.9	
787.57	4648.2	
787.75	5499.5	
787.92	4263.2	
788.1	4141	
788.27	4645.5	
788.45	4390.2	
788.63	3958	
788.8	2884.2	
788.98	4960.9	
789.15	4354.7	
789.33	3023.5	
789.5	3515	
789.68	5403.9	
789.86	5492.7	
790.03	3860.4	
790.21	3444	
790.38	5389.6	
790.56	4749.2	
790.73	3274.7	
790.91	3302.7	
791.09	4677.6	
791.26	5204.6	
791.44	3525.2	
791.61	3084.2	
791.79	4640	
791.96	4659.1	
792.14	3178.4	
792.32	2835.1	
792.49	4651.6	
792.67	4711	
792.84	3228.3	
793.02	3082.9	
793.19	5279	
793.37	5619.6	
793.54	2811.9	
793.72	3159.3	
793.89	5711.8	
794.07	4625.7	
794.25	3515.7	
794.42	2871.9	
794.6	5496.1	
794.77	5208.7	
794.95	3872.7	
795.12	3330.7	
795.3	4632.5	
795.47	5192.3	
795.65	3679.5	
795.82	3551.2	
796	4467.3	
796.17	5976.7	
796.35	3436.5	
796.52	4063.2	
796.7	5092.6	
796.87	5212.1	
797.05	3457	
797.22	4184.7	
797.4	5143.1	
797.57	6012.8	
797.75	3561.4	
797.92	3368.2	
798.1	5387.5	
798.27	4579.9	
798.45	2932.7	
798.62	3125.9	
798.8	4878.3	
798.97	5293.3	
799.15	3773	
799.32	3609.2	
799.5	4304.8	
799.67	4960.9	
799.85	3863.8	
800.02	2895.8	
800.2	4595	
800.37	4834.6	
800.55	3979.9	
800.72	3375.1	
800.9	5339.7	
801.07	5644.2	
801.25	4496	
801.42	3714.3	
801.6	5327.4	
801.77	5001.1	
801.95	3450.8	
802.12	3353.2	
802.29	5024.3	
802.47	5036.6	
802.64	3684.3	
802.82	2779.1	
802.99	4571.7	
803.17	5384.1	
803.34	3626.3	
803.52	3198.2	
803.69	5985.5	
803.87	4413.4	
804.04	3579.2	
804.21	3627	
804.39	5552.7	
804.56	4799.8	
804.74	3061.7	
804.91	3713	
805.09	4642.1	
805.26	4759.5	
805.44	3142.9	
805.61	3384.6	
805.78	5201.8	
805.96	5258.5	
806.13	3665.9	
806.31	3957.4	
806.48	4223.6	
806.66	4631.8	
806.83	3725.9	
807	3636.5	
807.18	4577.9	
807.35	4880.3	
807.53	3606.5	
807.7	2905.4	
807.87	5570.5	
808.05	4657.8	
808.22	3916.4	
808.4	2923.8	
808.57	4590.2	
808.74	4318.5	
808.92	3318.4	
809.09	4179.2	
809.27	4607.9	
809.44	5009.3	
809.61	2969.6	
809.79	3295.2	
809.96	5666.7	
810.14	5204.6	
810.31	2899.9	
810.48	3491.8	
810.66	4669.4	
810.83	5410.1	
811.01	3317	
811.18	3601	
811.35	5236	
811.53	4143	
811.7	3955.3	
811.87	3671.3	
812.05	4721.9	
812.22	4597.7	
812.39	3210.5	
812.57	3154.6	
812.74	4683	
812.92	6001.9	
813.09	3538.9	
813.26	3692.5	
813.44	5784.1	
813.61	4574.5	
813.78	2917	
813.96	3862.5	
814.13	4722.6	
814.3	4389.5	
814.48	4185.4	
814.65	3474.7	
814.82	5651.7	
815	4427.7	
815.17	3530	
815.34	4280.3	
815.52	4552.6	
815.69	4554	
815.87	3488.4	
816.04	3496.6	
816.21	4676.2	
816.38	4172.4	
816.56	3434.4	
816.73	3241.3	
816.9	5794.4	
817.08	5268.7	
817.25	3265.8	
817.42	4001	
817.6	4326	
817.77	4618.2	
817.94	3611.9	
818.12	3221.5	
818.29	4472.1	
818.46	6673.6	
818.64	3372.3	
818.81	3141.6	
818.98	4381.3	
819.16	6206	
819.33	3796.9	
819.5	3492.5	
819.67	4978.6	
819.85	5495.4	
820.02	3476.8	
820.19	3676.8	
820.37	4840	
820.54	4581.3	
820.71	3611.9	
820.88	4503.5	
821.06	4887.1	
821.23	4487.8	
821.4	3680.9	
821.58	3631.7	
821.75	5270.1	
821.92	4769	
822.09	2964.8	
822.27	3044	
822.44	4683	
822.61	4584	
822.79	2988.7	
822.96	5512.4	
823.13	5054.4	
823.3	4450.2	
823.48	3370.3	
823.65	3054.9	
823.82	5229.1	
823.99	4249.5	
824.17	4280.3	
824.34	3136.8	
824.51	5990.3	
824.68	4756.1	
824.86	3259.7	
825.03	3575.8	
825.2	4662.5	
825.37	5577.3	
825.55	3230.3	
825.72	3593.5	
825.89	5984.2	
826.06	5610.1	
826.24	3495.2	
826.41	3529.3	
826.58	5614.8	
826.75	4846.2	
826.92	2819.4	
827.1	3082.9	
827.27	7507.2	
827.44	5961.6	
827.61	3305.4	
827.79	3971	
827.96	4474.1	
828.13	4732.2	
828.3	3486.3	
828.47	2968.2	
828.65	4958.1	
828.82	4826.4	
828.99	4383.3	
829.16	3849.5	
829.34	5210.7	
829.51	5061.9	
829.68	3552.5	
829.85	3696.6	
830.02	5514.5	
830.2	5187.5	
830.37	2797.5	
830.54	4325.3	
830.71	5840.1	
830.88	4645.5	
831.05	2855.6	
831.23	3201	
831.4	5700.2	
831.57	6250.4	
831.74	3316.3	
831.91	2957.3	
832.09	4950.6	
832.26	5228.5	
832.43	3382.6	
832.6	3833.1	
832.77	4904.2	
832.94	5546.6	
833.12	2741.5	
833.29	3319.8	
833.46	4575.8	
833.63	6421.7	
833.8	3757.3	
833.97	3447.4	
834.15	5244.8	
834.32	5057.8	
834.49	3568.2	
834.66	3605.8	
834.83	5382.1	
835	4483.7	
835.17	3305.4	
835.35	3344.3	
835.52	5148.6	
835.69	5047.6	
835.86	3512.9	
836.03	2900.6	
836.2	5212.8	
836.37	4924.7	
836.55	3378.5	
836.72	3196.9	
836.89	4827.1	
837.06	5281	
837.23	3534.8	
837.4	3790.8	
837.57	5899.5	
837.75	6452.5	
837.92	3162.7	
838.09	3327.9	
838.26	4866	
838.43	5449	
838.6	3556.6	
838.77	3246	
838.94	6075.6	
839.11	5956.9	
839.29	3418.1	
839.46	2737.5	
839.63	5177.3	
839.8	5014.8	
839.97	3325.2	
840.14	3277.4	
840.31	5075.5	
840.48	5232.6	
840.65	2815.3	
840.82	3259	
841	5167.7	
841.17	5072.1	
841.34	3114.3	
841.51	3163.4	
841.68	5117.2	
841.85	4900.8	
842.02	3163.4	
842.19	2639.8	
842.36	4998.4	
842.53	5003.9	
842.7	2916.3	
842.87	3697.9	
843.05	6350.1	
843.22	4937.7	
843.39	2917.7	
843.56	3170.9	
843.73	4777.2	
843.9	5252.4	
844.07	4803.2	
844.24	4061.1	
844.41	7379.5	
844.58	4554	
844.75	2950.4	
844.92	3259	
845.09	5112.4	
845.26	5142.4	
845.43	3062.4	
845.6	3216	
845.77	5215.5	
845.94	4964.3	
846.12	3398.9	
846.29	3549.1	
846.46	5384.1	
846.63	5190.2	
846.8	3084.9	
846.97	3560.7	
847.14	5539.8	
847.31	5107.6	
847.48	3425.6	
847.65	3786	
847.82	5444.2	
847.99	5415.5	
848.16	4038.6	
848.33	3747.1	
848.5	4784.1	
848.67	5580	
848.84	3020.8	
849.01	3150.5	
849.18	4734.2	
849.35	4482.3	
849.52	3784	
849.69	2942.9	
849.86	5368.4	
850.03	5455.1	
850.2	3110.2	
850.37	3699.3	
850.54	5436.7	
850.71	4878.9	
850.88	3688.4	
851.05	3048.1	
851.22	5066.7	
851.39	5651.7	
851.56	2889.7	
851.73	3521.1	
851.9	4574.5	
852.07	5343.2	
852.24	3340.9	
852.41	2992.1	
852.58	5139	
852.75	4676.9	
852.92	3383.2	
853.09	2942.9	
853.26	4867.3	
853.43	5547.9	
853.6	3049.4	
853.77	2618	
853.94	5612.8	
854.11	4597	
854.28	4401.1	
854.44	3327.9	
854.61	6025.1	
854.78	5414.8	
854.95	3017.3	
855.12	3778.5	
855.29	4257.7	
855.46	5793	
855.63	3059	
855.8	4192.9	
855.97	4780	
856.14	5520.6	
856.31	4166.9	
856.48	3323.2	
856.65	4829.1	
856.82	4556	
856.99	2948.4	
857.16	3253.5	
857.33	6247.7	
857.49	4878.3	
857.66	3274	
857.83	3519.1	
858	4885.8	
858.17	5054.4	
858.34	2895.8	
858.51	3115	
858.68	5717.2	
858.85	5722	
859.02	3488.4	
859.19	3711.6	
859.36	4576.5	
859.52	4583.4	
859.69	3082.2	
859.86	3527.3	
860.03	4683.7	
860.2	5648.3	
860.37	2775	
860.54	3061.7	
860.71	5372.5	
860.88	5676.3	
861.05	3377.8	
861.21	3824.9	
861.38	5703.6	
861.55	4461.8	
861.72	2795.5	
861.89	3411.2	
862.06	5477	
862.23	5811.5	
862.4	2947.7	
862.56	3167.5	
862.73	5244.2	
862.9	4982	
863.07	3521.1	
863.24	2820.1	
863.41	4485.7	
863.58	4631.1	
863.75	3076.7	
863.91	3510.9	
864.08	5592.3	
864.25	5296	
864.42	3755.3	
864.59	4214	
864.76	5905.7	
864.93	4595.6	
865.09	2956.6	
865.26	3254.9	
865.43	5576.6	
865.6	5867.4	
865.77	2678.1	
865.94	3061.7	
866.1	5595.7	
866.27	5322.7	
866.44	4455.7	
866.61	2927.2	
866.78	4938.3	
866.95	5308.3	
867.11	2951.1	
867.28	2717	
867.45	5478.3	
867.62	4605.9	
867.79	3472.7	
867.96	3032.4	
868.12	4564.9	
868.29	5355.4	
868.46	2663.7	
868.63	3999	
868.8	5500.2	
868.97	5340.4	
869.13	3127.2	
869.3	3184.6	
869.47	5199.1	
869.64	5485.1	
869.81	3076	
869.97	3072	
870.14	5147.2	
870.31	5732.9	
870.48	2955.9	
870.65	3844.7	
870.81	4886.5	
870.98	4868.7	
871.15	3415.3	
871.32	3110.2	
871.48	5254.4	
871.65	5759.6	
871.82	3024.8	
871.99	3355.3	
872.16	6102.9	
872.32	5614.8	
872.49	3110.9	
872.66	3064.4	
872.83	5313.8	
872.99	4781.3	
873.16	3435.1	
873.33	2987.3	
873.5	4975.2	
873.67	5066	
873.83	3173.7	
874	3959.4	
874.17	5190.9	
874.34	6077.7	
874.5	3913	
874.67	3779.2	
874.84	5654.4	
875.01	4530.1	
875.17	4156.7	
875.34	3052.2	
875.51	5085.8	
875.68	6051.7	
875.84	3661.8	
876.01	4378.6	
876.18	5272.8	
876.34	5276.3	
876.51	3078.8	
876.68	2985.9	
876.85	4886.5	
877.01	5552	
877.18	4285	
877.35	2983.9	
877.52	5056.4	
877.68	4506.9	
877.85	3061	
878.02	3047.4	
878.18	4892.6	
878.35	4739.7	
878.52	2503.3	
878.69	3404.4	
878.85	5444.2	
879.02	5352.7	
879.19	4209.3	
879.35	3292.5	
879.52	5350.7	
879.69	5433.9	
879.86	2667.1	
880.02	3390.1	
880.19	4977.2	
880.36	5971.2	
880.52	3467.2	
880.69	3566.9	
880.86	5414.8	
881.02	5456.5	
881.19	3371.6	
881.36	3294.5	
881.52	5270.1	
881.69	4670.7	
881.86	3272	
882.02	3216	
882.19	5523.4	
882.36	6392.4	
882.52	3135.4	
882.69	4157.4	
882.86	5158.2	
883.02	5128.8	
883.19	3629	
883.36	3463.8	
883.52	5389.6	
883.69	6158.2	
883.86	3103.4	
884.02	2825.5	
884.19	5374.6	
884.36	4949.9	
884.52	3436.5	
884.69	3255.6	
884.86	4759.5	
885.02	5818.3	
885.19	3373	
885.36	3477.5	
885.52	4934.9	
885.69	5130.8	
885.86	4317.8	
886.02	3864.5	
886.19	5401.2	
886.35	4923.3	
886.52	3358	
886.69	4175.1	
886.85	4609.3	
887.02	5610.1	
887.19	5610.1	
887.35	5610.1	
887.52	5610.1	
887.68	5610.1	
887.85	5610.1	
888.02	5610.1	
888.18	5610.1	
888.35	5610.1	
888.51	5610.1	
888.68	5610.1	
888.85	5610.1	
889.01	5610.1	
889.18	5610.1	
889.35	5610.1	
889.51	5610.1	
889.68	5610.1	
889.84	5610.1	
890.01	5610.1	
890.17	5610.1	
890.34	5610.1	
890.51	5610.1	
890.67	5610.1	
890.84	5610.1	
891	5610.1	
891.17	5610.1	
891.34	5610.1	
891.5	5610.1	
891.67	5610.1	
891.83	5610.1	
892	5610.1	
892.16	5610.1	
892.33	5610.1	
892.5	5610.1	
892.66	5610.1	
892.83	5610.1	
892.99	5610.1	
893.16	5610.1	
893.32	5610.1	
893.49	5610.1	
893.65	5610.1	
893.82	5610.1	
893.99	5610.1	
894.15	5610.1	
894.32	5610.1	
894.48	5610.1	
894.65	5610.1	
894.81	5610.1	
894.98	5610.1	
895.14	5610.1	
895.31	5610.1	
895.47	5610.1	
895.64	5610.1	
895.81	5610.1	
895.97	5610.1	
896.14	5610.1	
896.3	5610.1	
896.47	5610.1	
896.63	5610.1	
896.8	5610.1	
896.96	5610.1	
897.13	5610.1	
897.29	5610.1	
897.46	5610.1	
897.62	5610.1	
897.79	5610.1	
897.95	5610.1	
898.12	5610.1	
898.28	5610.1	
898.45	5610.1	
898.61	5610.1	
898.78	5610.1	
898.94	5610.1	
899.11	5610.1	
899.27	5610.1	
899.44	5610.1	
899.6	5610.1	
899.77	5610.1	
899.93	5610.1	
900.1	5610.1	
900.26	5610.1	
900.43	5610.1	
900.59	5610.1	
900.76	5610.1	
900.92	5610.1	
901.09	5610.1	
901.25	5610.1	
901.42	5610.1	
901.58	5610.1	
901.75	5610.1	
901.91	5610.1	
902.07	5610.1	
902.24	5610.1	
902.4	5610.1	
902.57	5610.1	
902.73	5610.1	
902.9	5610.1	
903.06	5610.1	
903.23	5610.1	
903.39	5610.1	
903.56	5610.1	
903.72	5610.1	
903.88	5610.1	
904.05	5610.1	
904.21	5610.1	
904.38	5610.1	
904.54	5610.1	
904.71	5610.1	
904.87	5610.1	
905.03	5610.1	
905.2	5610.1	
905.36	5610.1	
905.53	5610.1	
905.69	5610.1	
905.86	5610.1	
906.02	5610.1	
906.18	5610.1	
906.35	5610.1	
906.51	5610.1	
906.68	5610.1	
906.84	5610.1	
907.01	5610.1	
907.17	5610.1	
907.33	5610.1	
907.5	5610.1	
907.66	5610.1	
907.83	5610.1	
907.99	5610.1	
908.15	5610.1	
908.32	5610.1	
908.48	5610.1	
908.65	5610.1	
908.81	5610.1	
908.97	5610.1	
909.14	5610.1	
909.3	5610.1	
909.47	5610.1	
909.63	5610.1	
909.79	5610.1	
909.96	5610.1	
910.12	5610.1	
910.28	5610.1	
910.45	5610.1	
910.61	5610.1	
910.78	5610.1	
910.94	5610.1	
911.1	5610.1	
911.27	5610.1	
911.43	5610.1	
911.59	5610.1	
911.76	5610.1	
911.92	5610.1	
912.08	5610.1	
912.25	5610.1	
912.41	5610.1	
912.57	5610.1	
912.74	5610.1	
912.9	5610.1	
913.07	5610.1	
913.23	5610.1	
913.39	5610.1	
913.56	5610.1	
913.72	5610.1	
913.88	5610.1	
914.05	5610.1	
914.21	5610.1	
914.37	5610.1	
914.54	5610.1	
914.7	5610.1	
914.86	5610.1	
915.03	5610.1	
915.19	5610.1	
