Wavelength	Intensities	
nm	a.u.	
179.22	1923	
179.44	1914.9	
179.65	1931.2	
179.86	1898.5	
180.08	1905.3	
180.29	4969.1	
180.51	3524.6	
180.72	5668.1	
180.94	6688	
181.15	3285.6	
181.37	3194.1	
181.58	5501.5	
181.79	5870.8	
182.01	3403	
182.22	3629	
182.44	5868.1	
182.65	4849.6	
182.87	4647.5	
183.08	4057	
183.29	6111.8	
183.51	4995.7	
183.72	3743	
183.94	5377.3	
184.15	5424.4	
184.37	5408.7	
184.58	3194.8	
184.79	4473.4	
185.01	5032.5	
185.22	5810.8	
185.44	4717.8	
185.65	4015.4	
185.86	5345.9	
186.08	4909.7	
186.29	3156.6	
186.51	3390.8	
186.72	5085.1	
186.94	5994.4	
187.15	3936.9	
187.36	4065.9	
187.58	7800.7	
187.79	5565.7	
188.01	4228.4	
188.22	6623.8	
188.43	6697.5	
188.65	5799.8	
188.86	3407.8	
189.08	4063.2	
189.29	5287.9	
189.5	5214.1	
189.72	3786.7	
189.93	3889.1	
190.15	5966.4	
190.36	7230.7	
190.57	4181.3	
190.79	4003.1	
191	6098.9	
191.22	6030.6	
191.43	4201.1	
191.64	3391.4	
191.86	6396.5	
192.07	6038.8	
192.29	3562.8	
192.5	3775.8	
192.71	6017.6	
192.93	5159.5	
193.14	3763.5	
193.35	3783.3	
193.57	5166.3	
193.78	5984.8	
194	3042.6	
194.21	3663.8	
194.42	5008	
194.64	5482.4	
194.85	4035.9	
195.07	4776.5	
195.28	5550	
195.49	4694.6	
195.71	5062.6	
195.92	3505.4	
196.13	5624.4	
196.35	5737	
196.56	5380.7	
196.78	4067.9	
196.99	7131.7	
197.2	6641.6	
197.42	4683.7	
197.63	4117.8	
197.84	4868	
198.06	5650.3	
198.27	3751.2	
198.48	5081	
198.7	5206.6	
198.91	5368.4	
199.13	4033.8	
199.34	4085	
199.55	5846.3	
199.77	4715.8	
199.98	3580.5	
200.19	4174.4	
200.41	5328.1	
200.62	5096.7	
200.83	4345.8	
201.05	4531.5	
201.26	5340.4	
201.47	5087.8	
201.69	3656.3	
201.9	3536.8	
202.11	5396.4	
202.33	6480.5	
202.54	3901.4	
202.76	4347.2	
202.97	5566.4	
203.18	5575.3	
203.4	4239.3	
203.61	4152.6	
203.82	5510.4	
204.04	5096.7	
204.25	4169.7	
204.46	4064.5	
204.68	5454.4	
204.89	5636	
205.1	3994.2	
205.32	3488.4	
205.53	5928.2	
205.74	5988.9	
205.96	2939.5	
206.17	4188.8	
206.38	5846.3	
206.6	5982.8	
206.81	4739	
207.02	3892.5	
207.24	5679.7	
207.45	6139.8	
207.66	3936.2	
207.88	3336.8	
208.09	5666	
208.3	5489.2	
208.52	3576.4	
208.73	3981.3	
208.94	5420.3	
209.15	6221.7	
209.37	3852.2	
209.58	4087.1	
209.79	5995.8	
210.01	5285.8	
210.22	3076	
210.43	3283.6	
210.65	5470.8	
210.86	5851	
211.07	3916.4	
211.29	3548.4	
211.5	5777.3	
211.71	5423	
211.93	3565.5	
212.14	3591.5	
212.35	5318.6	
212.56	5678.3	
212.78	4141.7	
212.99	3421.5	
213.2	6499.6	
213.42	5236.7	
213.63	3717.7	
213.84	3998.3	
214.06	4790.2	
214.27	4886.5	
214.48	3928	
214.69	4142.4	
214.91	6130.9	
215.12	6263.4	
215.33	4206.5	
215.55	4627	
215.76	6744.6	
215.97	5831.9	
216.18	4055	
216.4	3908.9	
216.61	5171.8	
216.82	5896.1	
217.04	3618.8	
217.25	3814	
217.46	6120.7	
217.67	5803.3	
217.89	3206.4	
218.1	3368.9	
218.31	5520.6	
218.53	5638.1	
218.74	3754.6	
218.95	3652.2	
219.16	5438.7	
219.38	6451.1	
219.59	3675.4	
219.8	4360.8	
220.01	7041.6	
220.23	5378.6	
220.44	4835.9	
220.65	3596.2	
220.87	5475.6	
221.08	6085.9	
221.29	3334.1	
221.5	4482.3	
221.72	7506.5	
221.93	5119.2	
222.14	4147.1	
222.35	4878.9	
222.57	5421.7	
222.78	5773.2	
222.99	3906.2	
223.2	4213.4	
223.42	5776	
223.63	5925.5	
223.84	3007.1	
224.05	2985.9	
224.27	7006.1	
224.48	6378.1	
224.69	4907.6	
224.9	4102.1	
225.12	5649.7	
225.33	5434.6	
225.54	3294.5	
225.75	3706.1	
225.97	4990.9	
226.18	5347.9	
226.39	3969.6	
226.6	3691.8	
226.82	5230.5	
227.03	5071.5	
227.24	4119.8	
227.45	3382.6	
227.67	5777.3	
227.88	6455.2	
228.09	4580.6	
228.3	4631.8	
228.52	5905.7	
228.73	5378.6	
228.94	3818.8	
229.15	3398.9	
229.36	5420.3	
229.58	5296.7	
229.79	3853.6	
230	4522.6	
230.21	6579.4	
230.43	5528.8	
230.64	4059.8	
230.85	4240	
231.06	5932.3	
231.28	5898.8	
231.49	3379.1	
231.7	4009.2	
231.91	5783.5	
232.12	5520	
232.34	3463.1	
232.55	4045.4	
232.76	6102.3	
232.97	5663.3	
233.18	3639.2	
233.4	4004.5	
233.61	5710.4	
233.82	5207.3	
234.03	3764.8	
234.25	3702	
234.46	7646.4	
234.67	5450.3	
234.88	4174.4	
235.09	3614.7	
235.31	5760.9	
235.52	5377.3	
235.73	4154.6	
235.94	3419.4	
236.15	5139.7	
236.37	6625.2	
236.58	3628.3	
236.79	4001	
237	5753.4	
237.21	4962.9	
237.43	4195.6	
237.64	3331.4	
237.85	9975	
238.06	4979.3	
238.27	4269.3	
238.48	3407.8	
238.7	5768.4	
238.91	5347.9	
239.12	3951.9	
239.33	3914.4	
239.54	5253	
239.76	5374.6	
239.97	3906.8	
240.18	3891.8	
240.39	6851.8	
240.6	5750	
240.82	4070.7	
241.03	3353.2	
241.24	5483.8	
241.45	6309.1	
241.66	3631.7	
241.87	4212.7	
242.09	6164.4	
242.3	6650.4	
242.51	4355.3	
242.72	3945.8	
242.93	5964.4	
243.14	5421	
243.36	4519.2	
243.57	4945.2	
243.78	6367.8	
243.99	5718.6	
244.2	3943	
244.41	3601	
244.63	5012.1	
244.84	5745.2	
245.05	4217.5	
245.26	3976.5	
245.47	5771.2	
245.68	6076.3	
245.9	5251	
246.11	4174.4	
246.32	5325.4	
246.53	5717.9	
246.74	6423.8	
246.95	3327.3	
247.16	4952.7	
247.38	5431.2	
247.59	3278.8	
247.8	3936.9	
248.01	5160.9	
248.22	5372.5	
248.43	3606.5	
248.64	3841.3	
248.86	4857.8	
249.07	5224.4	
249.28	3437.2	
249.49	4063.2	
249.7	5930.9	
249.91	6123.4	
250.12	3249.4	
250.34	3325.9	
250.55	5560.2	
250.76	5468.8	
250.97	4055	
251.18	4110.3	
251.39	6144.6	
251.6	5664.7	
251.81	4152.6	
252.03	4139.6	
252.24	5227.1	
252.45	6006.7	
252.66	3409.9	
252.87	4407.2	
253.08	5484.5	
253.29	7259.4	
253.5	3456.3	
253.72	4791.6	
253.93	5322	
254.14	6578.1	
254.35	3754.6	
254.56	3876.8	
254.77	5710.4	
254.98	5054.4	
255.19	3695.2	
255.41	4881	
255.62	5545.2	
255.83	6132.3	
256.04	4250.2	
256.25	4138.3	
256.46	6726.2	
256.67	5126.1	
256.88	4076.1	
257.09	4558.1	
257.31	5146.5	
257.52	5196.4	
257.73	5145.2	
257.94	3751.2	
258.15	5313.1	
258.36	5517.9	
258.57	4726.7	
258.78	3000.3	
258.99	5976.7	
259.2	5362.9	
259.41	3778.5	
259.63	3899.3	
259.84	6348	
260.05	6901	
260.26	4937.7	
260.47	3701.4	
260.68	6004.6	
260.89	5376.6	
261.1	4627	
261.31	3586.7	
261.52	6026.5	
261.73	6447	
261.95	4908.3	
262.16	4291.2	
262.37	6146.6	
262.58	6307.7	
262.79	4887.8	
263	3853.6	
263.21	5454.4	
263.42	4954.7	
263.63	3886.4	
263.84	3794.2	
264.05	6010.8	
264.26	6462	
264.47	4722.6	
264.69	4307.6	
264.9	6197.2	
265.11	5671.5	
265.32	3634.5	
265.53	3729.4	
265.74	5624.4	
265.95	4872.1	
266.16	4045.4	
266.37	4503.5	
266.58	5555.5	
266.79	5285.1	
267	3666.5	
267.21	3467.9	
267.42	5020.9	
267.63	5446.2	
267.84	3925.3	
268.06	3403.7	
268.27	5859.9	
268.48	6290	
268.69	3817.4	
268.9	4479.6	
269.11	6173.3	
269.32	5005.9	
269.53	3957.4	
269.74	3672	
269.95	5842.2	
270.16	4799.8	
270.37	3983.3	
270.58	4592.9	
270.79	5298.8	
271	6055.2	
271.21	4238.6	
271.42	4022.9	
271.63	5627.1	
271.84	5094.7	
272.05	3132	
272.26	3518.4	
272.47	5470.1	
272.68	5728.9	
272.89	3773	
273.11	4354.7	
273.32	5309	
273.53	6363.7	
273.74	4291.9	
273.95	4187.4	
274.16	6119.3	
274.37	5524.1	
274.58	4317.8	
274.79	3427.6	
275	5610.1	
275.21	6193.1	
275.42	5227.1	
275.63	4425.7	
275.84	5741.1	
276.05	7197.9	
276.26	4216.1	
276.47	3870	
276.68	5294	
276.89	6488	
277.1	4455.7	
277.31	3435.1	
277.52	5765.7	
277.73	5951.4	
277.94	3457	
278.15	3826.3	
278.36	5677.7	
278.57	5139.7	
278.78	3743	
278.99	4252.3	
279.2	5110.4	
279.41	5044.1	
279.62	5053.7	
279.83	3509.5	
280.04	6700.3	
280.25	4937.7	
280.46	4943.1	
280.67	3977.2	
280.88	5083.7	
281.09	6198.5	
281.3	4148.5	
281.51	5269.4	
281.72	5210	
281.93	6029.2	
282.14	3725.3	
282.35	3971	
282.56	5963.7	
282.77	5970.5	
282.98	3884.3	
283.19	4769.7	
283.4	7406.8	
283.61	5462.6	
283.82	3489.1	
284.03	4934.9	
284.24	5575.3	
284.45	6128.2	
284.66	4912.4	
284.87	4712.4	
285.08	6079.7	
285.29	6211.5	
285.5	3338.9	
285.71	3904.8	
285.92	6119.3	
286.12	6774	
286.33	4841.4	
286.54	3827.7	
286.75	5988.9	
286.96	5362.9	
287.17	3536.8	
287.38	4805.2	
287.59	5129.5	
287.8	5044.1	
288.01	3859.7	
288.22	4478.2	
288.43	6062.7	
288.64	5027.1	
288.85	4570.4	
289.06	4381.3	
289.27	5875.6	
289.48	6394.4	
289.69	4930.8	
289.9	4448.9	
290.11	6085.2	
290.32	5159.5	
290.53	4684.4	
290.74	4300.7	
290.94	5932.3	
291.15	6031.3	
291.36	3730.7	
291.57	4427.7	
291.78	5222.3	
291.99	4882.4	
292.2	3544.4	
292.41	4291.9	
292.62	6036	
292.83	5842.9	
293.04	5279	
293.25	3571.7	
293.46	5283.1	
293.67	6120.7	
293.88	3715	
294.09	3553.2	
294.29	5004.6	
294.5	5637.4	
294.71	3971.7	
294.92	3773	
295.13	5225.1	
295.34	6610.8	
295.55	3331.4	
295.76	3454.9	
295.97	5919.3	
296.18	6690.7	
296.39	3532.1	
296.6	3727.3	
296.81	5539.8	
297.01	5892	
297.22	3890.5	
297.43	3661.1	
297.64	5118.6	
297.85	5111	
298.06	3119.7	
298.27	3321.1	
298.48	5563.6	
298.69	5241.4	
298.9	4050.9	
299.11	3676.1	
299.31	5019.6	
299.52	5039.4	
299.73	4307.6	
299.94	4197	
300.15	5504.9	
300.36	5101.5	
300.57	4169.7	
300.78	4218.8	
300.99	5382.1	
301.2	5629.9	
301.4	3637.9	
301.61	3994.2	
301.82	5767.8	
302.03	5945.3	
302.24	4545.8	
302.45	3536.2	
302.66	5795.1	
302.87	6228.6	
303.08	3728	
303.29	5099.4	
303.49	5209.3	
303.7	5567.1	
303.91	3290.4	
304.12	4872.1	
304.33	5014.8	
304.54	5615.5	
304.75	3719.8	
304.96	3532.1	
305.16	5814.9	
305.37	6559	
305.58	3214.6	
305.79	3325.9	
306	5839.4	
306.21	4911.7	
306.42	3646.1	
306.63	5707	
306.83	5266	
307.04	6152.1	
307.25	4106.2	
307.46	4049.5	
307.67	4702.1	
307.88	5948.7	
308.09	3646.7	
308.29	3801.7	
308.5	5624.4	
308.71	6098.2	
308.92	3913	
309.13	3599.6	
309.34	5393.7	
309.55	5403.2	
309.75	4555.4	
309.96	4313	
310.17	5890	
310.38	5213.4	
310.59	4509.6	
310.8	3533.4	
311.01	6641.6	
311.21	5352.7	
311.42	3530.7	
311.63	3661.8	
311.84	5177.9	
312.05	5604.6	
312.26	4149.2	
312.46	4502.1	
312.67	5313.1	
312.88	5038	
313.09	3627.6	
313.3	3501.3	
313.51	6297.5	
313.71	6610.2	
313.92	3616	
314.13	3784	
314.34	5660.6	
314.55	5407.3	
314.76	4622.9	
314.96	3990.8	
315.17	5513.1	
315.38	5973.9	
315.59	3575.1	
315.8	3415.3	
316.01	6426.5	
316.21	6401.3	
316.42	3457.7	
316.63	3981.9	
316.84	5337	
317.05	6217	
317.26	4286.4	
317.46	3842.7	
317.67	5459.9	
317.88	5897.5	
318.09	4556.7	
318.3	3353.9	
318.5	5214.1	
318.71	5841.5	
318.92	5833.3	
319.13	4258.4	
319.34	6037.4	
319.54	6172.6	
319.75	3349.1	
319.96	3150.5	
320.17	5917.3	
320.38	6120.7	
320.58	3276.8	
320.79	3970.3	
321	6076.3	
321.21	6210.8	
321.42	4037.9	
321.62	3254.2	
321.83	5012.1	
322.04	5517.9	
322.25	3803.8	
322.46	3614	
322.66	5614.8	
322.87	5788.2	
323.08	4440	
323.29	3538.2	
323.5	6573.3	
323.7	5000.5	
323.91	4932.9	
324.12	4386.1	
324.33	5594.4	
324.53	5873.6	
324.74	4246.8	
324.95	4445.5	
325.16	4833.9	
325.37	5307	
325.57	3594.9	
325.78	3697.9	
325.99	5578	
326.2	4999.8	
326.4	5113.8	
326.61	3318.4	
326.82	5350	
327.03	5621.7	
327.24	5118.6	
327.44	4752	
327.65	5720.7	
327.86	4684.4	
328.07	4239.3	
328.27	3482.9	
328.48	6150.7	
328.69	5091.9	
328.9	5204.6	
329.1	3895.2	
329.31	5415.5	
329.52	6267.5	
329.73	3566.9	
329.93	4059.1	
330.14	5474.9	
330.35	5794.4	
330.56	5973.9	
330.76	4507.6	
330.97	5283.8	
331.18	5698.8	
331.39	4010.6	
331.59	3255.6	
331.8	6090.7	
332.01	6212.9	
332.22	3659.7	
332.42	4234.5	
332.63	5588.2	
332.84	5171.1	
333.05	4020.2	
333.25	3644	
333.46	5242.8	
333.67	5438	
333.88	3790.1	
334.08	4190.1	
334.29	7428	
334.5	6156.2	
334.7	3521.1	
334.91	5135.6	
335.12	5064.6	
335.33	5956.2	
335.53	4040.6	
335.74	5935	
335.95	5303.6	
336.16	5032.5	
336.36	3951.2	
336.57	4599.7	
336.78	5000.5	
336.98	6150.1	
337.19	4977.2	
337.4	3962.1	
337.61	6681.2	
337.81	5035.3	
338.02	3670.6	
338.23	4777.2	
338.43	6314.6	
338.64	5183.4	
338.85	3693.2	
339.05	4756.7	
339.26	6410.8	
339.47	4853	
339.68	3639.9	
339.88	5390.9	
340.09	5774.6	
340.3	5988.3	
340.5	4262.5	
340.71	3221.5	
340.92	5048.2	
341.13	6280.4	
341.33	3469.3	
341.54	4230.4	
341.75	5670.1	
341.95	5373.2	
342.16	4024.9	
342.37	4475.5	
342.57	5070.1	
342.78	5451.7	
342.99	4559.5	
343.19	3259.7	
343.4	5933	
343.61	5759.6	
343.81	3844.7	
344.02	3603.7	
344.23	5926.8	
344.43	6422.4	
344.64	4515.8	
344.85	4318.5	
345.06	5760.9	
345.26	6161	
345.47	4146.5	
345.68	4894.6	
345.88	4855.1	
346.09	6010.1	
346.3	4308.2	
346.5	3224.9	
346.71	5509.7	
346.92	5222.3	
347.12	3310.2	
347.33	4184	
347.54	6056.5	
347.74	6477.7	
347.95	4225	
348.16	3135.4	
348.36	5305.6	
348.57	4999.8	
348.78	4120.5	
348.98	4459.1	
349.19	5423.7	
349.39	5006.6	
349.6	3322.5	
349.81	3685.7	
350.01	5768.4	
350.22	5248.9	
350.43	3972.4	
350.63	4844.8	
350.84	5558.9	
351.05	5245.5	
351.25	3655.6	
351.46	3369.6	
351.67	6053.1	
351.87	5120.6	
352.08	3879.5	
352.29	4414.7	
352.49	5933	
352.7	6091.3	
352.9	3570.3	
353.11	4431.8	
353.32	6658.6	
353.52	5289.2	
353.73	3482.9	
353.94	4519.2	
354.14	5849	
354.35	5709.1	
354.55	3595.6	
354.76	4036.5	
354.97	5821.7	
355.17	5520.6	
355.38	3422.2	
355.59	4756.7	
355.79	5218.2	
356	5637.4	
356.2	3981.3	
356.41	3477.5	
356.62	4956.1	
356.82	5471.5	
357.03	4271.4	
357.24	3907.5	
357.44	5257.8	
357.65	5360.2	
357.85	5254.4	
358.06	4025.6	
358.27	4976.6	
358.47	5210	
358.68	3418.7	
358.88	4336.2	
359.09	5803.3	
359.3	6184.9	
359.5	4986.8	
359.71	4488.5	
359.91	6666.8	
360.12	5936.4	
360.33	4283.7	
360.53	4763.6	
360.74	5213.4	
360.94	5311.7	
361.15	4471.4	
361.36	3700	
361.56	6020.3	
361.77	5426.4	
361.97	4990.2	
362.18	3978.5	
362.38	6109.1	
362.59	5106.3	
362.8	3710.9	
363	3493.2	
363.21	4885.1	
363.41	5623	
363.62	4162.8	
363.83	5218.9	
364.03	5704.3	
364.24	6658.6	
364.44	5360.2	
364.65	5259.9	
364.85	5491.3	
365.06	5115.8	
365.27	3835.2	
365.47	3907.5	
365.68	6526.2	
365.88	5422.3	
366.09	4257	
366.29	3948.5	
366.5	5778.7	
366.71	6139.1	
366.91	5253.7	
367.12	4410.6	
367.32	6765.1	
367.53	5996.5	
367.73	4380.6	
367.94	5386.8	
368.14	5928.9	
368.35	6907.8	
368.56	4369	
368.76	3705.5	
368.97	6027.9	
369.17	7778.2	
369.38	3904.8	
369.58	4133.5	
369.79	5132.9	
369.99	6436.1	
370.2	5161.6	
370.4	4324.6	
370.61	5790.3	
370.82	6993.1	
371.02	4123.9	
371.23	3466.5	
371.43	5016.8	
371.64	6390.3	
371.84	4191.5	
372.05	5455.1	
372.25	7698.3	
372.46	6126.8	
372.66	4225	
372.87	4127.3	
373.07	6146.6	
373.28	7811	
373.48	5246.9	
373.69	4904.2	
373.9	5644.2	
374.1	5671.5	
374.31	5130.8	
374.51	4696.7	
374.72	6464.8	
374.92	5332.9	
375.13	5351.3	
375.33	4487.8	
375.54	6043.6	
375.74	5506.3	
375.95	4603.8	
376.15	5847	
376.36	6046.3	
376.56	5943.2	
376.77	4715.1	
376.97	5143.1	
377.18	7142.6	
377.38	6200.6	
377.59	5489.9	
377.79	4204.5	
378	5986.9	
378.2	6460	
378.41	4268	
378.61	4140.3	
378.82	6456.6	
379.02	5581.4	
379.23	4432.5	
379.43	5592.3	
379.64	6513.2	
379.84	6156.9	
380.05	4187.4	
380.25	4195.6	
380.46	6239.5	
380.66	5799.8	
380.87	5587.5	
381.07	6029.2	
381.28	6932.4	
381.48	6275	
381.69	4329.4	
381.89	4269.3	
382.1	5195.7	
382.3	6429.3	
382.51	5390.3	
382.71	6270.2	
382.91	6309.1	
383.12	6798.6	
383.32	4596.3	
383.53	4833.9	
383.73	6033.3	
383.94	5920	
384.14	4769.7	
384.35	3848.8	
384.55	5795.1	
384.76	6285.2	
384.96	4639.3	
385.17	5011.4	
385.37	6332.3	
385.58	5526.1	
385.78	4971.1	
385.98	3886.4	
386.19	5886.5	
386.39	6154.8	
386.6	4429.8	
386.8	4612.7	
387.01	6290	
387.21	6251.1	
387.42	5064.6	
387.62	5642.8	
387.83	5602.6	
388.03	6260.6	
388.23	4712.4	
388.44	5539.8	
388.64	5277.6	
388.85	5410.7	
389.05	5125.4	
389.26	5726.1	
389.46	7408.9	
389.67	6736.5	
389.87	5067.4	
390.07	5109.7	
390.28	5969.1	
390.48	5556.1	
390.69	4294.6	
390.89	4602.5	
391.1	5662.6	
391.3	6694.8	
391.5	5788.2	
391.71	6516	
391.91	6389.7	
392.12	7456	
392.32	5934.3	
392.53	5151.3	
392.73	5778	
392.93	5977.3	
393.14	4775.2	
393.34	5632.6	
393.55	6518	
393.75	5911.1	
393.95	4719.2	
394.16	4698	
394.36	5746.6	
394.57	6402	
394.77	4235.9	
394.98	4631.1	
395.18	5685.8	
395.38	5801.2	
395.59	5567.1	
395.79	4560.8	
396	5862	
396.2	6333.7	
396.4	5365.7	
396.61	5301.5	
396.81	6494.1	
397.02	5831.9	
397.22	5646.9	
397.42	5664	
397.63	6578.1	
397.83	5778	
398.04	4475.5	
398.24	5044.1	
398.44	6324.1	
398.65	5427.1	
398.85	4371	
399.05	4483.7	
399.26	5736.4	
399.46	7550.2	
399.67	4938.3	
399.87	4587.4	
400.07	6154.1	
400.28	6500.9	
400.48	4722.6	
400.69	5859.9	
400.89	6759	
401.09	7271	
401.3	4614.8	
401.5	5800.5	
401.7	7463.5	
401.91	7691.5	
402.11	4934.9	
402.32	5210	
402.52	6759	
402.72	6660.7	
402.93	5408	
403.13	4190.8	
403.33	7522.9	
403.54	6163.7	
403.74	4973.8	
403.94	5924.1	
404.15	6264.7	
404.35	7529.7	
404.56	4837.3	
404.76	6813.6	
404.96	6696.2	
405.17	6532.3	
405.37	6215.6	
405.57	5365.7	
405.78	6751.5	
405.98	6289.3	
406.18	5702.2	
406.39	5883.1	
406.59	6756.2	
406.79	6388.3	
407	4653.7	
407.2	4812.7	
407.4	6751.5	
407.61	6994.5	
407.81	4871.4	
408.01	7190.4	
408.22	5840.8	
408.42	7841	
408.62	6074.3	
408.83	5413.5	
409.03	6507.1	
409.23	6322.1	
409.44	5587.5	
409.64	5947.3	
409.84	7427.3	
410.05	7428	
410.25	5707.7	
410.45	5542.5	
410.66	6898.9	
410.86	9460.3	
411.06	6051.1	
411.27	5836	
411.47	9227.5	
411.67	7037.5	
411.88	6138.4	
412.08	6395.1	
412.28	7740.6	
412.49	8355.7	
412.69	5890	
412.89	5986.9	
413.09	8106.5	
413.3	7951.6	
413.5	6083.8	
413.7	5681.1	
413.91	7238.2	
414.11	8165.9	
414.31	5894.7	
414.52	6324.1	
414.72	7787.7	
414.92	7778.9	
415.12	5922.7	
415.33	6444.3	
415.53	8164.6	
415.73	8341.4	
415.94	6870.3	
416.14	6240.8	
416.34	7161.1	
416.55	6900.3	
416.75	7556.3	
416.95	6942.6	
417.15	8139.3	
417.36	8915.5	
417.56	7726.3	
417.76	6696.9	
417.97	8548.9	
418.17	8195.3	
418.37	6307.1	
418.57	6471.6	
418.78	7970.7	
418.98	7628	
419.18	7324.2	
419.38	7128.3	
419.59	7692.9	
419.79	7214.3	
419.99	6251.8	
420.2	6666.8	
420.4	8264.9	
420.6	8392.6	
420.8	6210.8	
421.01	6095.4	
421.21	7981.6	
421.41	8198.7	
421.61	6533.7	
421.82	6285.9	
422.02	7630.7	
422.22	8437.6	
422.42	7081.2	
422.63	6652.5	
422.83	7759.1	
423.03	8937.3	
423.23	6756.9	
423.44	5678.3	
423.64	7696.9	
423.84	7422.5	
424.04	6064.7	
424.25	5803.9	
424.45	8656.8	
424.65	8628.8	
424.85	5543.2	
425.06	6178	
425.26	8617.9	
425.46	7088.7	
425.66	6711.2	
425.87	6292	
426.07	8397.4	
426.27	8293.6	
426.47	6543.3	
426.67	5849.7	
426.88	8780.3	
427.08	8049.2	
427.28	6825.9	
427.48	5809.4	
427.69	7006.1	
427.89	7740	
428.09	6715.3	
428.29	5852.4	
428.5	8437.6	
428.7	7875.8	
428.9	5711.1	
429.1	6292.7	
429.3	7804.1	
429.51	8314.1	
429.71	6049	
429.91	6874.3	
430.11	8083.3	
430.31	8430.1	
430.52	6427.2	
430.72	6756.9	
430.92	8804.2	
431.12	8214.4	
431.32	6055.2	
431.53	6488	
431.73	7109.9	
431.93	8819.9	
432.13	5978	
432.33	5834.7	
432.54	7574.8	
432.74	7987.8	
432.94	5815.5	
433.14	6937.8	
433.34	8138.6	
433.55	7688.8	
433.75	6913.3	
433.95	8753.7	
434.15	7968	
434.35	7687.4	
434.56	6138.4	
434.76	5599.8	
434.96	8031.5	
435.16	8215.1	
435.36	5935	
435.56	7133.8	
435.77	7688.1	
435.97	7783.6	
436.17	7961.1	
436.37	7138.5	
436.57	7680.6	
436.78	7636.9	
436.98	7029.3	
437.18	7701.7	
437.38	8454	
437.58	7834.2	
437.78	7841.7	
437.99	6418.3	
438.19	8366.6	
438.39	9126.4	
438.59	6342.6	
438.79	5749.3	
438.99	9014.5	
439.2	7849.9	
439.4	5991	
439.6	5956.2	
439.8	8179.6	
440	9380.4	
440.2	7102.4	
440.4	7148.8	
440.61	8608.3	
440.81	9194.7	
441.01	6260	
441.21	7219.1	
441.41	9086.8	
441.61	8703.9	
441.81	7609.6	
442.02	8669.7	
442.22	9560.6	
442.42	8746.2	
442.62	6367.8	
442.82	6421.7	
443.02	9166.7	
443.22	8217.1	
443.43	6888	
443.63	6417.7	
443.83	7950.9	
444.03	8096.3	
444.23	7709.9	
444.43	7296.9	
444.63	8411	
444.83	9684.8	
445.04	6572.6	
445.24	7828.7	
445.44	8751.7	
445.64	8843.1	
445.84	7341.3	
446.04	7445	
446.24	8175.5	
446.44	9108	
446.65	6507.8	
446.85	6944	
447.05	8376.9	
447.25	9039.1	
447.45	7038.9	
447.65	6350.8	
447.85	8441.7	
448.05	7975.5	
448.25	7440.3	
448.46	7254.6	
448.66	8430.1	
448.86	8177.5	
449.06	6251.1	
449.26	7415.7	
449.46	8824	
449.66	7779.6	
449.86	6922.8	
450.06	6839.5	
450.26	7985	
450.47	8686.1	
450.67	7189.1	
450.87	7507.9	
451.07	8753	
451.27	8525	
451.47	6441.5	
451.67	7135.1	
451.87	8302.5	
452.07	9359.2	
452.27	6888.7	
452.47	6785.6	
452.67	8469	
452.88	8996.7	
453.08	6025.8	
453.28	8240.3	
453.48	9773.6	
453.68	8335.9	
453.88	6731	
454.08	6853.9	
454.28	8886.1	
454.48	8512	
454.68	7469.6	
454.88	8066.3	
455.08	9048.6	
455.28	8812.4	
455.48	6547.4	
455.68	7277.1	
455.89	9513.5	
456.09	9187.2	
456.29	7017.7	
456.49	7095.5	
456.69	9486.9	
456.89	8624	
457.09	7567.2	
457.29	8021.9	
457.49	9018.6	
457.69	9272.5	
457.89	7516	
458.09	6956.3	
458.29	8824	
458.49	9590.6	
458.69	7915.4	
458.89	7386.3	
459.09	9819.3	
459.29	9934	
459.49	7434.1	
459.69	8271.1	
459.9	9394.7	
460.1	8910	
460.3	7263.5	
460.5	7151.5	
460.7	9423.4	
460.9	9121	
461.1	6796.5	
461.3	8187.8	
461.5	10099	
461.7	9725.1	
461.9	7352.2	
462.1	7754.3	
462.3	9215.2	
462.5	9798.2	
462.7	7532.4	
462.9	7572.7	
463.1	10840	
463.3	10606	
463.5	7758.4	
463.7	8775.5	
463.9	9487.6	
464.1	9906	
464.3	8000.7	
464.5	8196.7	
464.7	10279	
464.9	9898.5	
465.1	9650	
465.3	8577.6	
465.5	10533	
465.7	10596	
465.9	8965.3	
466.1	8598.7	
466.3	10423	
466.5	10226	
466.7	9751.7	
466.9	8474.5	
467.1	10218	
467.3	11125	
467.5	9622.7	
467.7	8457.4	
467.9	11471	
468.1	12351	
468.3	9286.9	
468.5	9734	
468.7	10226	
468.9	10190	
469.1	8850	
469.3	9557.9	
469.5	12238	
469.7	9786.6	
469.9	9284.1	
470.1	8626.7	
470.3	10228	
470.5	10263	
470.7	9849.4	
470.9	8708	
471.1	10105	
471.3	10435	
471.5	8448.6	
471.69	10456	
471.89	9964.7	
472.09	9398.8	
472.29	9350.3	
472.49	9587.2	
472.69	9710.8	
472.89	10505	
473.09	8330.5	
473.29	8336.6	
473.49	9815.2	
473.69	9992	
473.89	9437	
474.09	8563.9	
474.29	11259	
474.49	10968	
474.69	9443.2	
474.89	8849.3	
475.09	9942.2	
475.29	10032	
475.49	8155	
475.69	8481.3	
475.88	11652	
476.08	10210	
476.28	8181	
476.48	8578.9	
476.68	10739	
476.88	10571	
477.08	8350.9	
477.28	8726.4	
477.48	10023	
477.68	10602	
477.88	8245.1	
478.08	8619.2	
478.28	11104	
478.48	10134	
478.67	8572.1	
478.87	7928.4	
479.07	10848	
479.27	10294	
479.47	8874.5	
479.67	8867.7	
479.87	10636	
480.07	11226	
480.27	8061.5	
480.47	9699.9	
480.67	10385	
480.87	10974	
481.06	8417.2	
481.26	9281.4	
481.46	10303	
481.66	10234	
481.86	8825.4	
482.06	9947.7	
482.26	10026	
482.46	11013	
482.66	8751.7	
482.86	8404.2	
483.05	10352	
483.25	9812.5	
483.45	11409	
483.65	8816.5	
483.85	9948.3	
484.05	10397	
484.25	9390.6	
484.45	9787.9	
484.65	11159	
484.84	11206	
485.04	8737.3	
485.24	8776.9	
485.44	11473	
485.64	9736	
485.84	8068.3	
486.04	9626.1	
486.24	10182	
486.44	10553	
486.63	8039	
486.83	8950.3	
487.03	10113	
487.23	10475	
487.43	8178.9	
487.63	10826	
487.83	10471	
488.02	11430	
488.22	9344.2	
488.42	9919	
488.62	11287	
488.82	10256	
489.02	8852.7	
489.22	9011.1	
489.41	11200	
489.61	10845	
489.81	8643.1	
490.01	8703.2	
490.21	11185	
490.41	11733	
490.61	8711.4	
490.8	8772.1	
491	10661	
491.2	9941.5	
491.4	9340.8	
491.6	8457.4	
491.8	10510	
491.99	10802	
492.19	8241.7	
492.39	8742.8	
492.59	11136	
492.79	11256	
492.99	9717.6	
493.18	8892.3	
493.38	11473	
493.58	12204	
493.78	9538.1	
493.98	9170.8	
494.18	11214	
494.37	10639	
494.57	10044	
494.77	9710.8	
494.97	11438	
495.17	11888	
495.37	9441.8	
495.56	9739.5	
495.76	12022	
495.96	11618	
496.16	10788	
496.36	9626.8	
496.55	11792	
496.75	11453	
496.95	10068	
497.15	9831.6	
497.35	11808	
497.54	11883	
497.74	9674.6	
497.94	11529	
498.14	12665	
498.34	12380	
498.53	9494.4	
498.73	10329	
498.93	11248	
499.13	11825	
499.33	10148	
499.52	10675	
499.72	11914	
499.92	12173	
500.12	9801.6	
500.32	10097	
500.51	12252	
500.71	11959	
500.91	10867	
501.11	10557	
501.31	12153	
501.5	12620	
501.7	11233	
501.9	10275	
502.1	11912	
502.29	12197	
502.49	10623	
502.69	11154	
502.89	12123	
503.09	12090	
503.28	9508	
503.48	9716.9	
503.68	11159	
503.88	11327	
504.07	10539	
504.27	10170	
504.47	11684	
504.67	11808	
504.86	10609	
505.06	10195	
505.26	11285	
505.46	13142	
505.65	10134	
505.85	10329	
506.05	11045	
506.25	11806	
506.44	9324.4	
506.64	10290	
506.84	11047	
507.04	12088	
507.23	9565.4	
507.43	10213	
507.63	13130	
507.83	11346	
508.02	10028	
508.22	9835	
508.42	13402	
508.62	11144	
508.81	9994.1	
509.01	10716	
509.21	10854	
509.4	11226	
509.6	10271	
509.8	9583.8	
510	11159	
510.19	12674	
510.39	9465	
510.59	9613.2	
510.79	11121	
510.98	12495	
511.18	9746.3	
511.38	9865.1	
511.57	11931	
511.77	11819	
511.97	10494	
512.17	9392	
512.36	11907	
512.56	11739	
512.76	9467.1	
512.95	9323	
513.15	11889	
513.35	10555	
513.55	10451	
513.74	9529.9	
513.94	11919	
514.14	11305	
514.33	10550	
514.53	10162	
514.73	11264	
514.92	11423	
515.12	9662.3	
515.32	9613.8	
515.51	11561	
515.71	12237	
515.91	11306	
516.11	9622.7	
516.3	13348	
516.5	11189	
516.7	10219	
516.89	10892	
517.09	11287	
517.29	11222	
517.48	10479	
517.68	9843.9	
517.88	11110	
518.07	11677	
518.27	10417	
518.47	9461.6	
518.66	12240	
518.86	10753	
519.06	9235.7	
519.25	9755.8	
519.45	11203	
519.65	12764	
519.84	10398	
520.04	11085	
520.24	13101	
520.43	11968	
520.63	10086	
520.83	9780.4	
521.02	10994	
521.22	11621	
521.42	10345	
521.61	10985	
521.81	11314	
522.01	11424	
522.2	10341	
522.4	9945.6	
522.6	11972	
522.79	10731	
522.99	10039	
523.18	9489.6	
523.38	11740	
523.58	11871	
523.77	11607	
523.97	9486.2	
524.17	13794	
524.36	12863	
524.56	10965	
524.76	10611	
524.95	11922	
525.15	11556	
525.34	10460	
525.54	10471	
525.74	12344	
525.93	11284	
526.13	11689	
526.33	10487	
526.52	12652	
526.72	12267	
526.91	11708	
527.11	11078	
527.31	12852	
527.5	13263	
527.7	10964	
527.89	10075	
528.09	11811	
528.29	12508	
528.48	11469	
528.68	11076	
528.87	12734	
529.07	12751	
529.27	10981	
529.46	10421	
529.66	12363	
529.85	12786	
530.05	10277	
530.25	11103	
530.44	13815	
530.64	12306	
530.83	10754	
531.03	11024	
531.23	12780	
531.42	12705	
531.62	11939	
531.81	11000	
532.01	13123	
532.21	13518	
532.4	10975	
532.6	11320	
532.79	13991	
532.99	13147	
533.18	11397	
533.38	12353	
533.58	12712	
533.77	13566	
533.97	11397	
534.16	12275	
534.36	13924	
534.55	12766	
534.75	12340	
534.95	11507	
535.14	13697	
535.34	12790	
535.53	11069	
535.73	12994	
535.92	14220	
536.12	12987	
536.31	11194	
536.51	12307	
536.71	13163	
536.9	12802	
537.1	11369	
537.29	11527	
537.49	13713	
537.68	12741	
537.88	11908	
538.07	11056	
538.27	12904	
538.46	14110	
538.66	10948	
538.86	11484	
539.05	13065	
539.25	13509	
539.44	11773	
539.64	11237	
539.83	12916	
540.03	13944	
540.22	11273	
540.42	11159	
540.61	13063	
540.81	13231	
541	11708	
541.2	12462	
541.39	12580	
541.59	13009	
541.78	12010	
541.98	11080	
542.18	12199	
542.37	12197	
542.57	11265	
542.76	11949	
542.96	12155	
543.15	13042	
543.35	11316	
543.54	10665	
543.74	13189	
543.93	12783	
544.13	11419	
544.32	12350	
544.52	13064	
544.71	12167	
544.91	10462	
545.1	11752	
545.3	12332	
545.49	13028	
545.69	10295	
545.88	10929	
546.08	14005	
546.27	13513	
546.47	11452	
546.66	10729	
546.86	13188	
547.05	13807	
547.24	10867	
547.44	10682	
547.63	12014	
547.83	13219	
548.02	11105	
548.22	11318	
548.41	11791	
548.61	13187	
548.8	10663	
549	10606	
549.19	12456	
549.39	12833	
549.58	10210	
549.78	10902	
549.97	12889	
550.17	12281	
550.36	11782	
550.55	12874	
550.75	12327	
550.94	13158	
551.14	10451	
551.33	10847	
551.53	11670	
551.72	12634	
551.92	10961	
552.11	10629	
552.31	12656	
552.5	12681	
552.69	12374	
552.89	10217	
553.08	12720	
553.28	12229	
553.47	10666	
553.67	11759	
553.86	13168	
554.06	11523	
554.25	9756.5	
554.44	10365	
554.64	14023	
554.83	13429	
555.03	10354	
555.22	10789	
555.42	12649	
555.61	12329	
555.8	10487	
556	10731	
556.19	11534	
556.39	12862	
556.58	10608	
556.78	10499	
556.97	12317	
557.16	12013	
557.36	11839	
557.55	10208	
557.75	11213	
557.94	13026	
558.13	10288	
558.33	10005	
558.52	12914	
558.72	11617	
558.91	10083	
559.1	10344	
559.3	11342	
559.49	11094	
559.69	9653.4	
559.88	10718	
560.07	12110	
560.27	12641	
560.46	10907	
560.66	11099	
560.85	11992	
561.04	11154	
561.24	9977.7	
561.43	10268	
561.63	11354	
561.82	11654	
562.01	11598	
562.21	10598	
562.4	12194	
562.59	13179	
562.79	10477	
562.98	10173	
563.18	12040	
563.37	13576	
563.56	11035	
563.76	10041	
563.95	11486	
564.14	11502	
564.34	10422	
564.53	10196	
564.73	12140	
564.92	12495	
565.11	10719	
565.31	9988.6	
565.5	12713	
565.69	11543	
565.89	10288	
566.08	10511	
566.27	12514	
566.47	13037	
566.66	11202	
566.85	9884.9	
567.05	12208	
567.24	11628	
567.44	10200	
567.63	11649	
567.82	12380	
568.02	12066	
568.21	10174	
568.4	10707	
568.6	12037	
568.79	12154	
568.98	10021	
569.18	10174	
569.37	12103	
569.56	14151	
569.76	10590	
569.95	11695	
570.14	12546	
570.34	12318	
570.53	10094	
570.72	10137	
570.91	12981	
571.11	12067	
571.3	10633	
571.49	11656	
571.69	12082	
571.88	11654	
572.07	11366	
572.27	11154	
572.46	11734	
572.65	12807	
572.85	10438	
573.04	10826	
573.23	12973	
573.43	12300	
573.62	10226	
573.81	10955	
574	12375	
574.2	12168	
574.39	10645	
574.58	10843	
574.78	13322	
574.97	12521	
575.16	11170	
575.36	11475	
575.55	12955	
575.74	13041	
575.93	10291	
576.13	11497	
576.32	12292	
576.51	12911	
576.71	10673	
576.9	12304	
577.09	13164	
577.28	12874	
577.48	11312	
577.67	10250	
577.86	12423	
578.05	12725	
578.25	10994	
578.44	11133	
578.63	12546	
578.83	13829	
579.02	10363	
579.21	11925	
579.4	12723	
579.6	12427	
579.79	11127	
579.98	13439	
580.17	13074	
580.37	13175	
580.56	10559	
580.75	11321	
580.94	13605	
581.14	13471	
581.33	11941	
581.52	10786	
581.71	12966	
581.91	13684	
582.1	10410	
582.29	11109	
582.48	12567	
582.68	12514	
582.87	11625	
583.06	11198	
583.25	12885	
583.45	12714	
583.64	11959	
583.83	12584	
584.02	12507	
584.21	12957	
584.41	11840	
584.6	11085	
584.79	12529	
584.98	13442	
585.18	10528	
585.37	10639	
585.56	12066	
585.75	13007	
585.94	10718	
586.14	11463	
586.33	13530	
586.52	12490	
586.71	11269	
586.91	10958	
587.1	11817	
587.29	12895	
587.48	10942	
587.67	10789	
587.87	12765	
588.06	12899	
588.25	12002	
588.44	11277	
588.63	12287	
588.83	12990	
589.02	10636	
589.21	10548	
589.4	11937	
589.59	11823	
589.78	9568.8	
589.98	9832.3	
590.17	11262	
590.36	11862	
590.55	9140.8	
590.74	10011	
590.94	13294	
591.13	11789	
591.32	9807	
591.51	9369.5	
591.7	12282	
591.89	11736	
592.09	9549	
592.28	9958.6	
592.47	10886	
592.66	12903	
592.85	9448	
593.05	9738.8	
593.24	11477	
593.43	12352	
593.62	9726.5	
593.81	10426	
594	11512	
594.19	11870	
594.39	9703.3	
594.58	9588.6	
594.77	11918	
594.96	12447	
595.15	9478	
595.34	10201	
595.54	11893	
595.73	10918	
595.92	8867.7	
596.11	10135	
596.3	12320	
596.49	11004	
596.68	9820	
596.88	10252	
597.07	12113	
597.26	10799	
597.45	9291	
597.64	10630	
597.83	11075	
598.02	11817	
598.22	9380.4	
598.41	10128	
598.6	11548	
598.79	10847	
598.98	9430.2	
599.17	10458	
599.36	11608	
599.55	12686	
599.74	11598	
599.94	11303	
600.13	12114	
600.32	10829	
600.51	9181	
600.7	9224.7	
600.89	12768	
601.08	12703	
601.27	9159.2	
601.47	10097	
601.66	11982	
601.85	12560	
602.04	9755.2	
602.23	10036	
602.42	10819	
602.61	11534	
602.8	9605	
602.99	9345.6	
603.18	11280	
603.37	11534	
603.57	10102	
603.76	10710	
603.95	12322	
604.14	11881	
604.33	9510.1	
604.52	9841.9	
604.71	11578	
604.9	11168	
605.09	10439	
605.28	10274	
605.47	12133	
605.66	11721	
605.86	10087	
606.05	9420.7	
606.24	12090	
606.43	10564	
606.62	9751.1	
606.81	10613	
607	11992	
607.19	11184	
607.38	9211.1	
607.57	9435.7	
607.76	10933	
607.95	10438	
608.14	9871.9	
608.33	10454	
608.52	10969	
608.72	11792	
608.91	8981	
609.1	8987.9	
609.29	10976	
609.48	10488	
609.67	10016	
609.86	9007.6	
610.05	10581	
610.24	10888	
610.43	8773.5	
610.62	8424	
610.81	12080	
611	11799	
611.19	8957.8	
611.38	9770.9	
611.57	11204	
611.76	12729	
611.95	8748.2	
612.14	8602.8	
612.33	10979	
612.52	10484	
612.71	9319.6	
612.9	8370.7	
613.09	10161	
613.28	12495	
613.47	9032.2	
613.66	10030	
613.85	11107	
614.04	10587	
614.24	9078.6	
614.43	8329.1	
614.62	11215	
614.81	11185	
615	9672.6	
615.19	9621.4	
615.38	10477	
615.57	10853	
615.76	9568.8	
615.95	10565	
616.14	11337	
616.33	10949	
616.52	9991.4	
616.71	10169	
616.9	11147	
617.09	11068	
617.28	9179.7	
617.47	10725	
617.66	10320	
617.85	10458	
618.04	10211	
618.22	9742.9	
618.41	10767	
618.6	11659	
618.79	9630.9	
618.98	9342.2	
619.17	12041	
619.36	10304	
619.55	9406.3	
619.74	9487.6	
619.93	11362	
620.12	10705	
620.31	10032	
620.5	10335	
620.69	11994	
620.88	12382	
621.07	11085	
621.26	10085	
621.45	11526	
621.64	11544	
621.83	10201	
622.02	9329.2	
622.21	11537	
622.4	11409	
622.59	10744	
622.78	10478	
622.97	11001	
623.16	12024	
623.35	10122	
623.54	9237	
623.72	11216	
623.91	11409	
624.1	10376	
624.29	9064.3	
624.48	12484	
624.67	11738	
624.86	10279	
625.05	9371.5	
625.24	12525	
625.43	11018	
625.62	12106	
625.81	9554.5	
626	11996	
626.19	11287	
626.38	10414	
626.56	9834.3	
626.75	11185	
626.94	11854	
627.13	10415	
627.32	9070.5	
627.51	11728	
627.7	13164	
627.89	9189.2	
628.08	10408	
628.27	10917	
628.46	11233	
628.65	9523.1	
628.83	9146.2	
629.02	11755	
629.21	11062	
629.4	9949	
629.59	10095	
629.78	10904	
629.97	11992	
630.16	10294	
630.35	9638.4	
630.54	12377	
630.72	12160	
630.91	9570.2	
631.1	10219	
631.29	11536	
631.48	11693	
631.67	10264	
631.86	9865.1	
632.05	11106	
632.24	11194	
632.42	9379.7	
632.61	9903.3	
632.8	11258	
632.99	10922	
633.18	9955.9	
633.37	10385	
633.56	11415	
633.75	11305	
633.93	10029	
634.12	9594.7	
634.31	12347	
634.5	11908	
634.69	9701.9	
634.88	10226	
635.07	11235	
635.25	12025	
635.44	10662	
635.63	10855	
635.82	11057	
636.01	10593	
636.2	10518	
636.39	10051	
636.57	12211	
636.76	11909	
636.95	9426.8	
637.14	10916	
637.33	11544	
637.52	12689	
637.7	9274.6	
637.89	10215	
638.08	11047	
638.27	12632	
638.46	10242	
638.65	10668	
638.83	12523	
639.02	10791	
639.21	10089	
639.4	10626	
639.59	11410	
639.78	10944	
639.96	9331.2	
640.15	9336.7	
640.34	11168	
640.53	11239	
640.72	9038.4	
640.91	9360.6	
641.09	10632	
641.28	11946	
641.47	9297.1	
641.66	10265	
641.85	11302	
642.03	11519	
642.22	10058	
642.41	9334.6	
642.6	10634	
642.79	9960	
642.97	9142.1	
643.16	10005	
643.35	10559	
643.54	10376	
643.73	8962.6	
643.91	9902.6	
644.1	10111	
644.29	10938	
644.48	9024	
644.67	9194.7	
644.85	10363	
645.04	10660	
645.23	8607.6	
645.42	8880.7	
645.6	10015	
645.79	11225	
645.98	8884.8	
646.17	7842.4	
646.36	9747	
646.54	10411	
646.73	9619.3	
646.92	8392.6	
647.11	10015	
647.29	11019	
647.48	8436.3	
647.67	8154.3	
647.86	11325	
648.05	11447	
648.23	8741.4	
648.42	10209	
648.61	10655	
648.8	10379	
648.98	8279.3	
649.17	8663.6	
649.36	9874.6	
649.55	9427.5	
649.73	8460.8	
649.92	9116.9	
650.11	9813.9	
650.3	10135	
650.48	8502.5	
650.67	8209.6	
650.86	10354	
651.05	9257.5	
651.23	8456.7	
651.42	8360.5	
651.61	9820	
651.79	9885.5	
651.98	8618.5	
652.17	8315.4	
652.36	10245	
652.54	9386.5	
652.73	8248.5	
652.92	8047.2	
653.11	10307	
653.29	10184	
653.48	7422.5	
653.67	8360.5	
653.85	9967.5	
654.04	11076	
654.23	8630.8	
654.42	8111.3	
654.6	9392	
654.79	10042	
654.98	7541.3	
655.16	8090.2	
655.35	8921	
655.54	8834.9	
655.73	7552.2	
655.91	7447.8	
656.1	10122	
656.29	8798.8	
656.47	7145.4	
656.66	8951	
656.85	9215.2	
657.03	9277.3	
657.22	7678.5	
657.41	7827.3	
657.59	9353.1	
657.78	9181.7	
657.97	7358.4	
658.16	8154.3	
658.34	10008	
658.53	10400	
658.72	9107.3	
658.9	9665.7	
659.09	9328.5	
659.28	9497.8	
659.46	7957	
659.65	7869	
659.84	9212.4	
660.02	9704.6	
660.21	7743.4	
660.4	7719.5	
660.58	10155	
660.77	9537.4	
660.96	8359.1	
661.14	7271	
661.33	10699	
661.52	10539	
661.7	7251.2	
661.89	11239	
662.08	9035	
662.26	8635.6	
662.45	7541.3	
662.64	7742.7	
662.82	9706.7	
663.01	8944.2	
663.2	7686.7	
663.38	8567.3	
663.57	9633	
663.75	9582.4	
663.94	7957.7	
664.13	9288.9	
664.31	8900.5	
664.5	9744.9	
664.69	8423.3	
664.87	8862.2	
665.06	8731.2	
665.25	9534.7	
665.43	9028.1	
665.62	9125.1	
665.8	9879.4	
665.99	9106	
666.18	7975.5	
666.36	8110	
666.55	9786.6	
666.74	9695.1	
666.92	7603.4	
667.11	9301.2	
667.29	9043.8	
667.48	9721.7	
667.67	8885.5	
667.85	7777.5	
668.04	9145.5	
668.22	9132.6	
668.41	8012.3	
668.6	8176.9	
668.78	8953	
668.97	9209.7	
669.15	8410.3	
669.34	7311.9	
669.53	8987.2	
669.71	9311.4	
669.9	7478.5	
670.08	8112.7	
670.27	8953.7	
670.46	9525.8	
670.64	8321.6	
670.83	8720.9	
671.01	8810.4	
671.2	9424.8	
671.38	7513.3	
671.57	7425.3	
671.76	10066	
671.94	10730	
672.13	7359.7	
672.31	8525.7	
672.5	9779.7	
672.69	8858.1	
672.87	7553.6	
673.06	7875.8	
673.24	9466.4	
673.43	8987.2	
673.61	8370	
673.8	7890.1	
673.98	9568.8	
674.17	9851.4	
674.36	8426.7	
674.54	8267.6	
674.73	9414.5	
674.91	9638.4	
675.1	7995.3	
675.28	7630.7	
675.47	9079.3	
675.65	9758.6	
675.84	7810.3	
676.03	8275.2	
676.21	8945.5	
676.4	8426	
676.58	8667.7	
676.77	8364.6	
676.95	10380	
677.14	8921	
677.32	7486	
677.51	7302.4	
677.69	9668.5	
677.88	8473.1	
678.06	7331	
678.25	7443	
678.44	9276.6	
678.62	8944.8	
678.81	7178.1	
678.99	8185.7	
679.18	10010	
679.36	9541.5	
679.55	7724.3	
679.73	8446.5	
679.92	9527.2	
680.1	8910	
680.29	9056.8	
680.47	7774.8	
680.66	8862.2	
680.84	9695.8	
681.03	7075.7	
681.21	8309.3	
681.4	8856.1	
681.58	8764.6	
681.77	7471	
681.95	7397.9	
682.14	9751.1	
682.32	10230	
682.51	8436.9	
682.69	7155.6	
682.88	8845.2	
683.06	9438.4	
683.25	8103.8	
683.43	8569.4	
683.62	9100.5	
683.8	9447.3	
683.99	8664.3	
684.17	7910.6	
684.36	10270	
684.54	8924.4	
684.73	6959	
684.91	7114.6	
685.1	9090.9	
685.28	8465.6	
685.46	7666.2	
685.65	7740	
685.83	9365.4	
686.02	8705.2	
686.2	7216.4	
686.39	7402.7	
686.57	8520.9	
686.76	10094	
686.94	7251.2	
687.13	7404.8	
687.31	9205.6	
687.5	8670.4	
687.68	6829.3	
687.86	8237.6	
688.05	10517	
688.23	8210.3	
688.42	8210.3	
688.6	7331	
688.79	8677.9	
688.97	8701.8	
689.16	7806.9	
689.34	6642.9	
689.52	9445.2	
689.71	9639.1	
689.89	8128.4	
690.08	7294.9	
690.26	9026.8	
690.45	8857.5	
690.63	8346.8	
690.81	7583.6	
691	8627.4	
691.18	8593.3	
691.37	7638.9	
691.55	9888.3	
691.74	8658.8	
691.92	10744	
692.1	7626.6	
692.29	6997.2	
692.47	8744.8	
692.66	8056	
692.84	7225.9	
693.02	7879.2	
693.21	8286.8	
693.39	8712.1	
693.58	8070.4	
693.76	7359	
693.94	10026	
694.13	9853.5	
694.31	7305.8	
694.5	8540	
694.68	8720.9	
694.86	9016.5	
695.05	7798	
695.23	8227.4	
695.42	9412.5	
695.6	11808	
695.78	8469.7	
695.97	7406.8	
696.15	9405.6	
696.34	8749.6	
696.52	7157.7	
696.7	8071	
696.89	9111.4	
697.07	8540	
697.25	7981.6	
697.44	9567.4	
697.62	9101.9	
697.81	9440.5	
697.99	7566.6	
698.17	8104.5	
698.36	8366	
698.54	9038.4	
698.72	7938.6	
698.91	6911.9	
699.09	8648.6	
699.28	8571.4	
699.46	7590.5	
699.64	7412.3	
699.83	8406.2	
700.01	9759.3	
700.19	8271.7	
700.38	6684.6	
700.56	9695.8	
700.74	8609.7	
700.93	7094.2	
701.11	7977.5	
701.29	9110	
701.48	10176	
701.66	7262.8	
701.84	7404.8	
702.03	8722.3	
702.21	9293.7	
702.39	6832.7	
702.58	7500.3	
702.76	9073.2	
702.94	9258.9	
703.13	6898.2	
703.31	9366.7	
703.49	8374.1	
703.68	9359.9	
703.86	6994.5	
704.04	8170.7	
704.23	8786.5	
704.41	9273.9	
704.59	7186.3	
704.78	8452.6	
704.96	9995.5	
705.14	9385.8	
705.33	6933.7	
705.51	7869	
705.69	8711.4	
705.87	9577.7	
706.06	8135.9	
706.24	6913.3	
706.42	8922.3	
706.61	9320.3	
706.79	8066.9	
706.97	6981.5	
707.16	8346.2	
707.34	9028.1	
707.52	8031.5	
707.7	7117.4	
707.89	8523	
708.07	8173.4	
708.25	8103.1	
708.44	8239.7	
708.62	8414.4	
708.8	9531.2	
708.98	8281.3	
709.17	7137.2	
709.35	8852.7	
709.53	8835.6	
709.72	6870.3	
709.9	7306.5	
710.08	9181	
710.26	8987.2	
710.45	8596	
710.63	7200.7	
710.81	8772.1	
710.99	8657.4	
711.18	7887.4	
711.36	7357.7	
711.54	8503.8	
711.72	9272.5	
711.91	7398.6	
712.09	6736.5	
712.27	8776.2	
712.45	9827.5	
712.64	7588.4	
712.82	6501.6	
713	8020.5	
713.18	8116.8	
713.37	6573.3	
713.55	7834.8	
713.73	8987.9	
713.91	7529	
714.1	6805.4	
714.28	6183.5	
714.46	8440.4	
714.64	7672.4	
714.83	5659.2	
715.01	6446.3	
715.19	7633.5	
715.37	6967.2	
715.55	6122.7	
715.74	6453.1	
715.92	8563.9	
716.1	6489.3	
716.28	7586.4	
716.47	6530.3	
716.65	7191.8	
716.83	7413	
717.01	6321.4	
717.19	6447	
717.38	9486.2	
717.56	7033.4	
717.74	6679.8	
717.92	5803.3	
718.1	8330.5	
718.29	7473.7	
718.47	5492.7	
718.65	6207.4	
718.83	8236.9	
719.01	8139.3	
719.2	5334.3	
719.38	6518.7	
719.56	7908.6	
719.74	9549.7	
719.92	6081.1	
720.11	7121.5	
720.29	7875.1	
720.47	6849.1	
720.65	5477.6	
720.83	6421.7	
721.02	7238.9	
721.2	6954.2	
721.38	6425.8	
721.56	5614.2	
721.74	6472.3	
721.92	6670.2	
722.11	6956.9	
722.29	6662	
722.47	7932.5	
722.65	7122.2	
722.83	5617.6	
723.01	6651.8	
723.2	7202	
723.38	7480.5	
723.56	5021.6	
723.74	6287.3	
723.92	6711.2	
724.1	7875.8	
724.29	5509	
724.47	6795.2	
724.65	6667.5	
724.83	6731	
725.01	5427.8	
725.19	6391	
725.37	6741.2	
725.56	6791.1	
725.74	5292	
725.92	5613.5	
726.1	6574.7	
726.28	6943.3	
726.46	5987.6	
726.64	5801.9	
726.83	6867.5	
727.01	7192.5	
727.19	5223	
727.37	6182.8	
727.55	7019.8	
727.73	7595.2	
727.91	5263.3	
728.09	5139.7	
728.28	7632.8	
728.46	8292.9	
728.64	6345.3	
728.82	6233.3	
729	8748.9	
729.18	8014.4	
729.36	5448.3	
729.54	7775.5	
729.72	9063.6	
729.91	7319.4	
730.09	7545.4	
730.27	6182.1	
730.45	7177.4	
730.63	7871	
730.81	6794.5	
730.99	5781.4	
731.17	8372.8	
731.35	6868.9	
731.53	6370.5	
731.71	5948.7	
731.9	8071	
732.08	8370.7	
732.26	6233.3	
732.44	5816.2	
732.62	8309.3	
732.8	7759.8	
732.98	6619.7	
733.16	5573.9	
733.34	7778.2	
733.52	6576	
733.7	6140.5	
733.88	6364.4	
734.07	7573.4	
734.25	7317.4	
734.43	5540.4	
734.61	7265.5	
734.79	8901.2	
734.97	7172.7	
735.15	5732.9	
735.33	6094.8	
735.51	7565.2	
735.69	7232.1	
735.87	7226.6	
736.05	6240.8	
736.23	7416.4	
736.41	7141.3	
736.59	6080.4	
736.77	6168.5	
736.95	7863.5	
737.13	7267.6	
737.32	5700.9	
737.5	6042.9	
737.68	8383	
737.86	7060.7	
738.04	5422.3	
738.22	7529	
738.4	6962.4	
738.58	7278.5	
738.76	6153.5	
738.94	5102.9	
739.12	7041.6	
739.3	6909.2	
739.48	6773.3	
739.66	6562.4	
739.84	7357.7	
740.02	7370	
740.2	5175.9	
740.38	5526.1	
740.56	7763.8	
740.74	6516	
740.92	6210.1	
741.1	6150.7	
741.28	7132.4	
741.46	6900.3	
741.64	5680.4	
741.82	6280.4	
742	7088	
742.18	7088.7	
742.36	5968.5	
742.54	5562.3	
742.72	7743.4	
742.9	6433.4	
743.08	6411.5	
743.26	5075.5	
743.44	7996	
743.62	7765.2	
743.8	6567.2	
743.98	5467.4	
744.16	7480.5	
744.34	7108.5	
744.52	6462	
744.7	6319.3	
744.88	7639.6	
745.06	7059.3	
745.24	6403.3	
745.42	6569.2	
745.6	7582.3	
745.78	7361.8	
745.96	5201.2	
746.14	5468.1	
746.32	8435.6	
746.5	7620.5	
746.68	6092.7	
746.86	5540.4	
747.03	8102.4	
747.21	6260.6	
747.39	6131.6	
747.57	5506.3	
747.75	7167.2	
747.93	7634.8	
748.11	5537.7	
748.29	5502.2	
748.47	8908	
748.65	6933.7	
748.83	6302.3	
749.01	5992.4	
749.19	7377.5	
749.37	6534.4	
749.55	5857.9	
749.73	5887.2	
749.91	7124.9	
750.09	6819.7	
750.26	6012.2	
750.44	5294.7	
750.62	7060	
750.8	7081.2	
750.98	5145.9	
751.16	5485.8	
751.34	7183.6	
751.52	6499.6	
751.7	6435.4	
751.88	5263.3	
752.06	7641.7	
752.24	7471	
752.42	5178.6	
752.59	5471.5	
752.77	7082.6	
752.95	8385.1	
753.13	6255.9	
753.31	5657.2	
753.49	6730.3	
753.67	7210.9	
753.85	5966.4	
754.03	5594.4	
754.21	7522.2	
754.38	7834.2	
754.56	5666.7	
754.74	4671.4	
754.92	6629.3	
755.1	7415	
755.28	4537.6	
755.46	4617.5	
755.64	8023.3	
755.82	8006.9	
755.99	4711	
756.17	4837.3	
756.35	5307	
756.53	6981.5	
756.71	3630.4	
756.89	4524.6	
757.07	6563.1	
757.25	5622.4	
757.42	5176.6	
757.6	6176	
757.78	6763.1	
757.96	5662	
758.14	4992.9	
758.32	4412	
758.5	5124.7	
758.67	6122.7	
758.85	4669.4	
759.03	4897.4	
759.21	6243.6	
759.39	5615.5	
759.57	4323.3	
759.75	5539.8	
759.92	6927.6	
760.1	6105	
760.28	5880.4	
760.46	6181.5	
760.64	5941.2	
760.82	5717.9	
760.99	5588.9	
761.17	4959.5	
761.35	6905.8	
761.53	5838.8	
761.71	5032.5	
761.89	5817.6	
762.06	6778.8	
762.24	6289.3	
762.42	5215.5	
762.6	5040.1	
762.78	6296.8	
762.96	6994.5	
763.13	5705.6	
763.31	5268.7	
763.49	7116	
763.67	6220.4	
763.85	6158.2	
764.02	6744.6	
764.2	7504.4	
764.38	6529.6	
764.56	5145.9	
764.74	6110.5	
764.91	7550.2	
765.09	6356.9	
765.27	4784.1	
765.45	4650.9	
765.63	7515.4	
765.8	7436.9	
765.98	4264.6	
766.16	4674.8	
766.34	5932.3	
766.52	5696.1	
766.69	5739.8	
766.87	4440.7	
767.05	6343.2	
767.23	7154.2	
767.41	4813.4	
767.58	5128.8	
767.76	6889.4	
767.94	6947.4	
768.12	4924	
768.29	5624.4	
768.47	6370.5	
768.65	7155.6	
768.83	4427	
769	5720	
769.18	5858.6	
769.36	6696.9	
769.54	5724.1	
769.72	4511.7	
769.89	6864.1	
770.07	7061.4	
770.25	4752.7	
770.43	6158.9	
770.6	7808.2	
770.78	8043.7	
770.96	5060.5	
771.14	5726.1	
771.31	6743.3	
771.49	6165.1	
771.67	4107.5	
771.85	4431.8	
772.02	5349.3	
772.2	6105	
772.38	5134.9	
772.55	4586.8	
772.73	6379.4	
772.91	6187.6	
773.09	4997.7	
773.26	5031.2	
773.44	6288.6	
773.62	5873.6	
773.8	4483	
773.97	4191.5	
774.15	6328.9	
774.33	5893.4	
774.5	4402.5	
774.68	4717.8	
774.86	6535.1	
775.04	6008.1	
775.21	4457.1	
775.39	4416.8	
775.57	6191	
775.74	6619	
775.92	4233.8	
776.1	4128.7	
776.27	6231.3	
776.45	7547.4	
776.63	4380.6	
776.81	3826.3	
776.98	5779.4	
777.16	6962.4	
777.34	4561.5	
777.51	4835.9	
777.69	5787.6	
777.87	5577.3	
778.04	4588.1	
778.22	5184.8	
778.4	5529.5	
778.57	6272.9	
778.75	3783.3	
778.93	4049.5	
779.1	5339.7	
779.28	5197.7	
779.46	3818.8	
779.64	4326	
779.81	6440.9	
779.99	7357.7	
780.17	5259.9	
780.34	5271.5	
780.52	5823.1	
780.69	6018.3	
780.87	4662.5	
781.05	4164.9	
781.22	5956.2	
781.4	5935	
781.58	4305.5	
781.75	3455.6	
781.93	5891.3	
782.11	5276.9	
782.28	5233.2	
782.46	4304.1	
782.64	5122.7	
782.81	6033.3	
782.99	4351.9	
783.17	4360.8	
783.34	5994.4	
783.52	5078.3	
783.69	4566.3	
783.87	5440.1	
784.05	5160.9	
784.22	5210	
784.4	5393	
784.58	4588.8	
784.75	6267.5	
784.93	5216.2	
785.1	4245.4	
785.28	4940.4	
785.46	5901.6	
785.63	5167	
785.81	4213.4	
785.99	4089.8	
786.16	5387.5	
786.34	5853.1	
786.51	4137.6	
786.69	4473.4	
786.87	4969.1	
787.04	5541.1	
787.22	3956	
787.39	4996.4	
787.57	5168.4	
787.75	6408.8	
787.92	5101.5	
788.1	5102.9	
788.27	5231.2	
788.45	5025.7	
788.63	4823.6	
788.8	3495.2	
788.98	5724.8	
789.15	4928.1	
789.33	3543.7	
789.5	4214.7	
789.68	6163.7	
789.86	6355.5	
790.03	4659.1	
790.21	4063.9	
790.38	6118.6	
790.56	5327.4	
790.73	3939.6	
790.91	4005.8	
791.09	5175.2	
791.26	6064	
791.44	4221.5	
791.61	3583.9	
791.79	5205.9	
791.96	5253	
792.14	3768.3	
792.32	3291.8	
792.49	5162.2	
792.67	5341.8	
792.84	3804.4	
793.02	3576.4	
793.19	5622.4	
793.37	6437.4	
793.54	3295.9	
793.72	3682.2	
793.89	6647	
794.07	5214.8	
794.25	4356.7	
794.42	3401.7	
794.6	6266.1	
794.77	5921.4	
794.95	4564.9	
795.12	3962.8	
795.3	5181.4	
795.47	5854.5	
795.65	4407.9	
795.82	4255	
796	4967.7	
796.17	7010.9	
796.35	4130.1	
796.52	4787.5	
796.7	5680.4	
796.87	5836.7	
797.05	5067.4	
797.22	5027.8	
797.4	5847	
797.57	6812.9	
797.75	4223.6	
797.92	3986.7	
798.1	6109.1	
798.27	5142.4	
798.45	3422.8	
798.62	3682.2	
798.8	5553.4	
798.97	6002.6	
799.15	4470.7	
799.32	4297.3	
799.5	4751.3	
799.67	5528.2	
799.85	4584	
800.02	3310.9	
800.2	5124	
800.37	5524.7	
800.55	4829.1	
800.72	3993.5	
800.9	5957.5	
801.07	6436.1	
801.25	5298.8	
801.42	4328	
801.6	6044.2	
801.77	5697.4	
801.95	4073.4	
802.12	3857.7	
802.29	5697.4	
802.47	5628.5	
802.64	4282.3	
802.82	3235.8	
802.99	5098.8	
803.17	6185.5	
803.34	4213.4	
803.52	3798.3	
803.69	6805.4	
803.87	4877.6	
804.04	4176.5	
804.21	4274.1	
804.39	6292	
804.56	5312.4	
804.74	3587.4	
804.91	4447.5	
805.09	5119.2	
805.26	5281.7	
805.44	3633.8	
805.61	4034.5	
805.78	5826.5	
805.96	5801.9	
806.13	4380.6	
806.31	4670.1	
806.48	4605.9	
806.66	5266	
806.83	4367	
807	4298	
807.18	5134.9	
807.35	5565	
807.53	4201.7	
807.7	3369.6	
807.87	6360.3	
808.05	5197.7	
808.22	4718.5	
808.4	3408.5	
808.57	5177.3	
808.74	4807.3	
808.92	3848.8	
809.09	4886.5	
809.27	4958.1	
809.44	5691.3	
809.61	3411.2	
809.79	3843.4	
809.96	6357.6	
810.14	5933.6	
810.31	3332	
810.48	4076.8	
810.66	5256.5	
810.83	6083.1	
811.01	3926	
811.18	4315.1	
811.35	5911.1	
811.53	4621.6	
811.7	4734.9	
811.87	4392.2	
812.05	5126.1	
812.22	5086.5	
812.39	3725.3	
812.57	3602.4	
812.74	5169.8	
812.92	6903	
813.09	4116.4	
813.26	4452.3	
813.44	6661.4	
813.61	5061.9	
813.78	3377.8	
813.96	4523.3	
814.13	5129.5	
814.3	4833.9	
814.48	4930.1	
814.65	4066.6	
814.82	6481.1	
815	4965.6	
815.17	4212	
815.34	5121.3	
815.52	5126.1	
815.69	5106.3	
815.87	4169.7	
816.04	3588.7	
816.21	5253	
816.38	4565.6	
816.56	4026.3	
816.73	3723.9	
816.9	6540.5	
817.08	5920.7	
817.25	3777.1	
817.42	4795.7	
817.6	4760.8	
817.77	5200.5	
817.94	4285.7	
818.12	3750.5	
818.29	4851.6	
818.46	7761.8	
818.64	3907.5	
818.81	3672	
818.98	4788.2	
819.16	7079.8	
819.33	4520.5	
819.5	4147.8	
819.67	5613.5	
819.85	6262	
820.02	4145.1	
820.19	4326	
820.37	5381.4	
820.54	4951.3	
820.71	4256.4	
820.88	5266.7	
821.06	5394.3	
821.23	4943.8	
821.4	4278.9	
821.58	4252.3	
821.75	5938.4	
821.92	5281.7	
822.09	3396.9	
822.27	3533.4	
822.44	5188.2	
822.61	5043.5	
822.79	3401	
822.96	6670.9	
823.13	5667.4	
823.3	4857.1	
823.48	3922.5	
823.65	3618.8	
823.82	5883.1	
823.99	4743.8	
824.17	5029.1	
824.34	3629	
824.51	6780.1	
824.68	5261.2	
824.86	3835.2	
825.03	4326.7	
825.2	5157.5	
825.37	6349.4	
825.55	3771.7	
825.72	4239.3	
825.89	6845.7	
826.06	6427.9	
826.24	4137.6	
826.41	4170.3	
826.58	6389	
826.75	5479	
826.92	3236.5	
827.1	3581.2	
827.27	8578.9	
827.44	6881.9	
827.61	3891.8	
827.79	4724.7	
827.96	4910.3	
828.13	5247.6	
828.3	4043.4	
828.47	3398.9	
828.65	5375.2	
828.82	5380.7	
828.99	5207.3	
829.16	4579.3	
829.34	5817.6	
829.51	5581.4	
829.68	4175.1	
829.85	4409.3	
830.02	6130.9	
830.2	5899.5	
830.37	3233.7	
830.54	5000.5	
830.71	6681.2	
830.88	5096.7	
831.05	3295.9	
831.23	3786	
831.4	6296.8	
831.57	7118.7	
831.74	3886.4	
831.91	3401.7	
832.09	5326.8	
832.26	5769.1	
832.43	4040.6	
832.6	4505.5	
832.77	5408.7	
832.94	6230.6	
833.12	3239.2	
833.29	3957.4	
833.46	5625.1	
833.63	7379.5	
833.8	4416.1	
833.97	4001.7	
834.15	5806	
834.32	5608	
834.49	4173.1	
834.66	4246.8	
834.83	6058.6	
835	4855.1	
835.17	3850.9	
835.35	3894.6	
835.52	5702.9	
835.69	5571.8	
835.86	4117.8	
836.03	3379.8	
836.2	5747.3	
836.37	5400.5	
836.55	4062.5	
836.72	3833.8	
836.89	5384.8	
837.06	5911.1	
837.23	4124.6	
837.4	4564.9	
837.57	6614.9	
837.75	7296.2	
837.92	3663.8	
838.09	3921.9	
838.26	5272.8	
838.43	6151.4	
838.6	4272.7	
838.77	3749.8	
838.94	7001.3	
839.11	6625.2	
839.29	3986	
839.46	3160.7	
839.63	5764.3	
839.8	5460.6	
839.97	3885	
840.14	3872	
840.31	5555.5	
840.48	5782.1	
840.65	3195.5	
840.82	4019.5	
841	5785.5	
841.17	5767.8	
841.34	3597.6	
841.51	3676.1	
841.68	5679	
841.85	5425.8	
842.02	3774.4	
842.19	3072.6	
842.36	5487.2	
842.53	5517.9	
842.7	3580.5	
842.87	4402.5	
843.05	7344	
843.22	5497.4	
843.39	3420.1	
843.56	3662.5	
843.73	5208	
843.9	5821	
844.07	5874.9	
844.24	4953.4	
844.41	8612.4	
844.58	4973.2	
844.75	3489.1	
844.92	3745.7	
845.09	5724.8	
845.26	5715.9	
845.43	3540.3	
845.6	3737.5	
845.77	5815.5	
845.94	5414.8	
846.12	3943.7	
846.29	4254.3	
846.46	6006	
846.63	5727.5	
846.8	3584.6	
846.97	4237.9	
847.14	6247.7	
847.31	5738.4	
847.48	4057.7	
847.65	4399.7	
847.82	5975.3	
847.99	6047.7	
848.16	4802.5	
848.33	4473.4	
848.5	5274.2	
848.67	6159.6	
848.84	3485	
849.01	3689.8	
849.18	5130.2	
849.35	4842.8	
849.52	4453	
849.69	3482.2	
849.86	5943.2	
850.03	6203.3	
850.2	3578.5	
850.37	4423.6	
850.54	6140.5	
850.71	5400.5	
850.88	4308.9	
851.05	3478.8	
851.22	5644.9	
851.39	6345.3	
851.56	3434.4	
851.73	4058.4	
851.9	5009.3	
852.07	6031.3	
852.24	3890.5	
852.41	3524.6	
852.58	5619.6	
852.75	5119.9	
852.92	3994.2	
853.09	3463.1	
853.26	5346.6	
853.43	6208.8	
853.6	3622.2	
853.77	3026.2	
853.94	6345.3	
854.11	5697.4	
854.28	5310.4	
854.44	3859.1	
854.61	6819.7	
854.78	6082.5	
854.95	3543	
855.12	4453	
855.29	4654.4	
855.46	6617	
855.63	3573.7	
855.8	4958.8	
855.97	5354.1	
856.14	6064.7	
856.31	5061.9	
856.48	3867.9	
856.65	5237.3	
856.82	5040.1	
856.99	3375.1	
857.16	3810.6	
857.33	7114.6	
857.49	5411.4	
857.66	3898	
857.83	4171.7	
858	5323.4	
858.17	5608.7	
858.34	3373.7	
858.51	3558	
858.68	6479.8	
858.85	6487.3	
859.02	4179.9	
859.19	4415.4	
859.36	5033.9	
859.52	5121.3	
859.69	3581.9	
859.86	4265.2	
860.03	5140.4	
860.2	6281.1	
860.37	3235.1	
860.54	3537.5	
860.71	6007.4	
860.88	6442.9	
861.05	4014	
861.21	4442.7	
861.38	6434.7	
861.55	4878.3	
861.72	3227.6	
861.89	3956.7	
862.06	6086.6	
862.23	6647.7	
862.4	3467.9	
862.56	3687	
862.73	5871.5	
862.9	5501.5	
863.07	4175.1	
863.24	3181.2	
863.41	4956.8	
863.58	5036.6	
863.75	3693.9	
863.91	4141	
864.08	6363.7	
864.25	5942.5	
864.42	4543.8	
864.59	4967.7	
864.76	6771.9	
864.93	5087.2	
865.09	3454.9	
865.26	3818.8	
865.43	6262	
865.6	6681.2	
865.77	3064.4	
865.94	3495.9	
866.1	6331	
866.27	6074.3	
866.44	5417.6	
866.61	3345	
866.78	5421.7	
866.95	5921.4	
867.11	3444.7	
867.28	3139.5	
867.45	6122.7	
867.62	5157.5	
867.79	4116.4	
867.96	3490.4	
868.12	5061.2	
868.29	6064.7	
868.46	3086.3	
868.63	4818.2	
868.8	6230.6	
868.97	5996.5	
869.13	3706.1	
869.3	3680.2	
869.47	5888.6	
869.64	6037.4	
869.81	3599.6	
869.97	3551.9	
870.14	5764.3	
870.31	6401.3	
870.48	3565.5	
870.65	4536.3	
870.81	5356.8	
870.98	5337.7	
871.15	4111.6	
871.32	3797.6	
871.48	5892.7	
871.65	6494.8	
871.82	3510.2	
871.99	3934.1	
872.16	7025.9	
872.32	6239.5	
872.49	3630.4	
872.66	3604.4	
872.83	5971.9	
872.99	5214.8	
873.16	4099.4	
873.33	3485.6	
873.5	5585.5	
873.67	5625.1	
873.83	3725.3	
874	4809.3	
874.17	5715.2	
874.34	6886.6	
874.5	4612.7	
874.67	4506.9	
874.84	6438.8	
875.01	4997	
875.17	5094.7	
875.34	3518.4	
875.51	5664	
875.68	6868.9	
875.84	4255.7	
876.01	5225.1	
876.18	5974.6	
876.34	5844.9	
876.51	3623.5	
876.68	3506.1	
876.85	5426.4	
877.01	6247.7	
877.18	5070.8	
877.35	3549.1	
877.52	5498.1	
877.68	4930.8	
877.85	3470.6	
878.02	3484.3	
878.18	5517.9	
878.35	5206.6	
878.52	2853.5	
878.69	3984	
878.85	5986.9	
879.02	5896.1	
879.19	4986.1	
879.35	3812.6	
879.52	5889.3	
879.69	6172.6	
879.86	3053.5	
880.02	3919.1	
880.19	5488.6	
880.36	6780.8	
880.52	4090.5	
880.69	4248.9	
880.86	6044.9	
881.02	6121.4	
881.19	3906.8	
881.36	3880.2	
881.52	5928.2	
881.69	5212.8	
881.86	3852.2	
882.02	3753.2	
882.19	6216.3	
882.36	7373.4	
882.52	3663.1	
882.69	4990.2	
882.86	5698.1	
883.02	5622.4	
883.19	4379.9	
883.36	4098	
883.52	6091.3	
883.69	6943.3	
883.86	3568.2	
884.02	3168.9	
884.19	6063.4	
884.36	5565.7	
884.52	4061.8	
884.69	3779.2	
884.86	5230.5	
885.02	6637.5	
885.19	3979.9	
885.36	4118.5	
885.52	5546.6	
885.69	5720	
885.86	5246.2	
886.02	4609.3	
886.19	6012.2	
886.35	5429.2	
886.52	3942.3	
886.69	5032.5	
886.85	5126.1	
887.02	6334.4	
887.19	6334.4	
887.35	6334.4	
887.52	6334.4	
887.68	6334.4	
887.85	6334.4	
888.02	6334.4	
888.18	6334.4	
888.35	6334.4	
888.51	6334.4	
888.68	6334.4	
888.85	6334.4	
889.01	6334.4	
889.18	6334.4	
889.35	6334.4	
889.51	6334.4	
889.68	6334.4	
889.84	6334.4	
890.01	6334.4	
890.17	6334.4	
890.34	6334.4	
890.51	6334.4	
890.67	6334.4	
890.84	6334.4	
891	6334.4	
891.17	6334.4	
891.34	6334.4	
891.5	6334.4	
891.67	6334.4	
891.83	6334.4	
892	6334.4	
892.16	6334.4	
892.33	6334.4	
892.5	6334.4	
892.66	6334.4	
892.83	6334.4	
892.99	6334.4	
893.16	6334.4	
893.32	6334.4	
893.49	6334.4	
893.65	6334.4	
893.82	6334.4	
893.99	6334.4	
894.15	6334.4	
894.32	6334.4	
894.48	6334.4	
894.65	6334.4	
894.81	6334.4	
894.98	6334.4	
895.14	6334.4	
895.31	6334.4	
895.47	6334.4	
895.64	6334.4	
895.81	6334.4	
895.97	6334.4	
896.14	6334.4	
896.3	6334.4	
896.47	6334.4	
896.63	6334.4	
896.8	6334.4	
896.96	6334.4	
897.13	6334.4	
897.29	6334.4	
897.46	6334.4	
897.62	6334.4	
897.79	6334.4	
897.95	6334.4	
898.12	6334.4	
898.28	6334.4	
898.45	6334.4	
898.61	6334.4	
898.78	6334.4	
898.94	6334.4	
899.11	6334.4	
899.27	6334.4	
899.44	6334.4	
899.6	6334.4	
899.77	6334.4	
899.93	6334.4	
900.1	6334.4	
900.26	6334.4	
900.43	6334.4	
900.59	6334.4	
900.76	6334.4	
900.92	6334.4	
901.09	6334.4	
901.25	6334.4	
901.42	6334.4	
901.58	6334.4	
901.75	6334.4	
901.91	6334.4	
902.07	6334.4	
902.24	6334.4	
902.4	6334.4	
902.57	6334.4	
902.73	6334.4	
902.9	6334.4	
903.06	6334.4	
903.23	6334.4	
903.39	6334.4	
903.56	6334.4	
903.72	6334.4	
903.88	6334.4	
904.05	6334.4	
904.21	6334.4	
904.38	6334.4	
904.54	6334.4	
904.71	6334.4	
904.87	6334.4	
905.03	6334.4	
905.2	6334.4	
905.36	6334.4	
905.53	6334.4	
905.69	6334.4	
905.86	6334.4	
906.02	6334.4	
906.18	6334.4	
906.35	6334.4	
906.51	6334.4	
906.68	6334.4	
906.84	6334.4	
907.01	6334.4	
907.17	6334.4	
907.33	6334.4	
907.5	6334.4	
907.66	6334.4	
907.83	6334.4	
907.99	6334.4	
908.15	6334.4	
908.32	6334.4	
908.48	6334.4	
908.65	6334.4	
908.81	6334.4	
908.97	6334.4	
909.14	6334.4	
909.3	6334.4	
909.47	6334.4	
909.63	6334.4	
909.79	6334.4	
909.96	6334.4	
910.12	6334.4	
910.28	6334.4	
910.45	6334.4	
910.61	6334.4	
910.78	6334.4	
910.94	6334.4	
911.1	6334.4	
911.27	6334.4	
911.43	6334.4	
911.59	6334.4	
911.76	6334.4	
911.92	6334.4	
912.08	6334.4	
912.25	6334.4	
912.41	6334.4	
912.57	6334.4	
912.74	6334.4	
912.9	6334.4	
913.07	6334.4	
913.23	6334.4	
913.39	6334.4	
913.56	6334.4	
913.72	6334.4	
913.88	6334.4	
914.05	6334.4	
914.21	6334.4	
914.37	6334.4	
914.54	6334.4	
914.7	6334.4	
914.86	6334.4	
915.03	6334.4	
915.19	6334.4	
