Wavelength	Intensities	
nm	a.u.	
179.22	1735.3	
179.44	1725.8	
179.65	1744.9	
179.86	1706.6	
180.08	1700.5	
180.29	4041.3	
180.51	3078.8	
180.72	5001.1	
180.94	5653.8	
181.15	2804.4	
181.37	2781.1	
181.58	4826.4	
181.79	5044.1	
182.01	2893.1	
182.22	3056.9	
182.44	5128.8	
182.65	4376.5	
182.87	3760.1	
183.08	3309.5	
183.29	5368.4	
183.51	4424.3	
183.72	3099.3	
183.94	4283	
184.15	4773.8	
184.37	4761.5	
184.58	2705.4	
184.79	3574.4	
185.01	4485.7	
185.22	5066	
185.44	3700.7	
185.65	3235.1	
185.86	4762.9	
186.08	4411.3	
186.29	2719	
186.51	2875.3	
186.72	4485.1	
186.94	5165	
187.15	3249.4	
187.36	3302.7	
187.58	6561	
187.79	4801.1	
188.01	3392.8	
188.22	5139	
188.43	5730.9	
188.65	5079	
188.86	2882.9	
189.08	3347.7	
189.29	4627.7	
189.5	4631.8	
189.72	2997.5	
189.93	3140.2	
190.15	5195	
190.36	6003.3	
190.57	3330.7	
190.79	3267.2	
191	5216.2	
191.22	5273.5	
191.43	3389.4	
191.64	2908.8	
191.86	5399.8	
192.07	5208	
192.29	2942.9	
192.5	3089	
192.71	5238.7	
192.93	4597	
193.14	3054.9	
193.35	3139.5	
193.57	4577.9	
193.78	5250.3	
194	2501.3	
194.21	3028.9	
194.42	4445.5	
194.64	4748.6	
194.85	3345	
195.07	3819.5	
195.28	4765.6	
195.49	4224.3	
195.71	3995.6	
195.92	2955.9	
196.13	4970.4	
196.35	5029.1	
196.56	4226.3	
196.78	3345.7	
196.99	6049	
197.2	5588.9	
197.42	3701.4	
197.63	3340.2	
197.84	4394.9	
198.06	4950.6	
198.27	3091.8	
198.48	4005.1	
198.7	4662.5	
198.91	4779.3	
199.13	3343	
199.34	3343	
199.55	5122	
199.77	4199	
199.98	2973	
200.19	3369.6	
200.41	4771.8	
200.62	4498	
200.83	3463.8	
201.05	3701.4	
201.26	4704.9	
201.47	4563.6	
201.69	2998.9	
201.9	2946.3	
202.11	4804.5	
202.33	5507.7	
202.54	3109.5	
202.76	3492.5	
202.97	4900.8	
203.18	4936.3	
203.4	3468.6	
203.61	3434.4	
203.82	4751.3	
204.04	4569.7	
204.25	3354.6	
204.46	3274	
204.68	4790.9	
204.89	4949.9	
205.1	3272	
205.32	2877.4	
205.53	5070.8	
205.74	5199.8	
205.96	2519.7	
206.17	3386.7	
206.38	5069.4	
206.6	5180	
206.81	3814.7	
207.02	3117	
207.24	5029.1	
207.45	5300.1	
207.66	3188	
207.88	2839.2	
208.09	4962.2	
208.3	4739.7	
208.52	2971.6	
208.73	3239.2	
208.94	4769	
209.15	5373.2	
209.37	3179.1	
209.58	3568.2	
209.79	5238.7	
210.01	4663.2	
210.22	2682.2	
210.43	2794.1	
210.65	4772.4	
210.86	5066	
211.07	3197.6	
211.29	2935.4	
211.5	5009.3	
211.71	4719.2	
211.93	2997.5	
212.14	2926.5	
212.35	4718.5	
212.56	4842.1	
212.78	3307.5	
212.99	2846	
213.2	5489.2	
213.42	4604.5	
213.63	3089	
213.84	3237.8	
214.06	4283	
214.27	4371	
214.48	3157.3	
214.69	3377.8	
214.91	5336.3	
215.12	5361.6	
215.33	3392.1	
215.55	3646.7	
215.76	5724.8	
215.97	5077.6	
216.18	3220.8	
216.4	3238.5	
216.61	4552	
216.82	5097.4	
217.04	3009.8	
217.25	3114.3	
217.46	5280.3	
217.67	5140.4	
217.89	2686.3	
218.1	2822.1	
218.31	4844.1	
218.53	4969.7	
218.74	3104	
218.95	3052.8	
219.16	4750.6	
219.38	5459.9	
219.59	2990	
219.8	3551.2	
220.01	5917.3	
220.23	4840	
220.44	3825.6	
220.65	2914.9	
220.87	4795	
221.08	5270.8	
221.29	2772.3	
221.5	3600.3	
221.72	6288.6	
221.93	4533.5	
222.14	3344.3	
222.35	3925.3	
222.57	4820.2	
222.78	5125.4	
222.99	3179.8	
223.2	3442	
223.42	5016.2	
223.63	5047.6	
223.84	2592.7	
224.05	2494.4	
224.27	5823.7	
224.48	5465.3	
224.69	3908.9	
224.9	3351.2	
225.12	4915.8	
225.33	4791.6	
225.54	2721.8	
225.75	2992.8	
225.97	4496.7	
226.18	4730.1	
226.39	3241.3	
226.6	2979.1	
226.82	4605.2	
227.03	4468.7	
227.24	3312.9	
227.45	2804.4	
227.67	5106.3	
227.88	5423	
228.09	3713.6	
228.3	3674.1	
228.52	5108.3	
228.73	4730.8	
228.94	3139.5	
229.15	2859.6	
229.36	4777.2	
229.58	4730.8	
229.79	3180.5	
230	3699.3	
230.21	5570.5	
230.43	4840	
230.64	3295.9	
230.85	3448.1	
231.06	5149.3	
231.28	5124	
231.49	2843.9	
231.7	3268.6	
231.91	5025.7	
232.12	4741.7	
232.34	2938.8	
232.55	3272	
232.76	5228.5	
232.97	4877.6	
233.18	2940.2	
233.4	3306.8	
233.61	4952.7	
233.82	4575.2	
234.03	3100.6	
234.25	3093.8	
234.46	6339.1	
234.67	4840	
234.88	3426.9	
235.09	3032.4	
235.31	4942.4	
235.52	4680.3	
235.73	3271.3	
235.94	2871.3	
236.15	4569.7	
236.37	5657.2	
236.58	2975	
236.79	3210.5	
237	5068.7	
237.21	4384.7	
237.43	3409.9	
237.64	2795.5	
237.85	7938.6	
238.06	4472.8	
238.27	3409.9	
238.48	2850.8	
238.7	5074.2	
238.91	4709	
239.12	3222.1	
239.33	3269.2	
239.54	4513	
239.76	4697.4	
239.97	3186.6	
240.18	3222.1	
240.39	5698.1	
240.6	4969.1	
240.82	3401	
241.03	2816.6	
241.24	4741	
241.45	5410.7	
241.66	2973.7	
241.87	3448.1	
242.09	5337	
242.3	5663.3	
242.51	3501.3	
242.72	3246.7	
242.93	5091.3	
243.14	4759.5	
243.36	3713.6	
243.57	3909.6	
243.78	5457.8	
243.99	5057.8	
244.2	3212.6	
244.41	2923.8	
244.63	4429.1	
244.84	5055.8	
245.05	3442	
245.26	3188.7	
245.47	4984.1	
245.68	5105.6	
245.9	4094.6	
246.11	3380.5	
246.32	4693.3	
246.53	4983.4	
246.74	5009.3	
246.95	2783.2	
247.16	4483.7	
247.38	4818.2	
247.59	2805	
247.8	3266.5	
248.01	4508.9	
248.22	4718.5	
248.43	3025.5	
248.64	3211.2	
248.86	4354	
249.07	4582.7	
249.28	2892.4	
249.49	3278.1	
249.7	5201.8	
249.91	5202.5	
250.12	2735.4	
250.34	2808.4	
250.55	4851	
250.76	4749.9	
250.97	3332.7	
251.18	3338.9	
251.39	5248.3	
251.6	4887.8	
251.81	3407.8	
252.03	3338.9	
252.24	4609.3	
252.45	5145.9	
252.66	2863.7	
252.87	3456.3	
253.08	4829.8	
253.29	6018.3	
253.5	2843.3	
253.72	3867.2	
253.93	4731.5	
254.14	5561.6	
254.35	3068.5	
254.56	3162.7	
254.77	4921.3	
254.98	4553.3	
255.19	3064.4	
255.41	3861.8	
255.62	4933.6	
255.83	5239.4	
256.04	3391.4	
256.25	3328.6	
256.46	5724.8	
256.67	4536.9	
256.88	3326.6	
257.09	3627.6	
257.31	4501.4	
257.52	4515.8	
257.73	4103.4	
257.94	3088.3	
258.15	4715.1	
258.36	4749.9	
258.57	3788.1	
258.78	2540.2	
258.99	5180	
259.2	4657.8	
259.41	3083.6	
259.63	3179.8	
259.84	5444.2	
260.05	5619.6	
260.26	3941.7	
260.47	3059.7	
260.68	5248.9	
260.89	4722.6	
261.1	3633.1	
261.31	2929.3	
261.52	5272.2	
261.73	5464.7	
261.95	3940.3	
262.16	3449.5	
262.37	5304.2	
262.58	5398.4	
262.79	3865.9	
263	3123.2	
263.21	4821.6	
263.42	4571.7	
263.63	3318.4	
263.84	3086.3	
264.05	5180.7	
264.26	5440.1	
264.47	3795.6	
264.69	3247.4	
264.9	5342.5	
265.11	4979.3	
265.32	2999.6	
265.53	3046	
265.74	4893.3	
265.95	4313.7	
266.16	3276.1	
266.37	3527.3	
266.58	4894.6	
266.79	4630.5	
267	3093.1	
267.21	2879.4	
267.42	4479.6	
267.63	4814.8	
267.84	3239.9	
268.06	2826.9	
268.27	5141.8	
268.48	5325.4	
268.69	3205.1	
268.9	3657	
269.11	5324.7	
269.32	4334.2	
269.53	3216.7	
269.74	3043.3	
269.95	4934.2	
270.16	4328.7	
270.37	3239.2	
270.58	3728	
270.79	4689.2	
271	5175.2	
271.21	3409.9	
271.42	3274.7	
271.63	4950.6	
271.84	4400.4	
272.05	2734.7	
272.26	2902.7	
272.47	4798.4	
272.68	4934.9	
272.89	3110.9	
273.11	3490.4	
273.32	4597.7	
273.53	5433.9	
273.74	3409.2	
273.95	3401.7	
274.16	5138.4	
274.37	4762.2	
274.58	3502.7	
274.79	2886.3	
275	4917.9	
275.21	5257.1	
275.42	4163.5	
275.63	3575.1	
275.84	4969.7	
276.05	6138.4	
276.26	3376.4	
276.47	3203.7	
276.68	4680.3	
276.89	5667.4	
277.1	3618.8	
277.31	2890.4	
277.52	4954.7	
277.73	5226.4	
277.94	2855.6	
278.15	3175	
278.36	4922	
278.57	4546.5	
278.78	3095.2	
278.99	3486.3	
279.2	4541	
279.41	4498.7	
279.62	4036.5	
279.83	2887.6	
280.04	5683.1	
280.25	4416.1	
280.46	4005.8	
280.67	3226.9	
280.88	4550.6	
281.09	5333.6	
281.3	3407.1	
281.51	4153.3	
281.72	4572.4	
281.93	5134.9	
282.14	3051.5	
282.35	3233.1	
282.56	5208.7	
282.77	5113.1	
282.98	3200.3	
283.19	3715.7	
283.4	6158.9	
283.61	4732.2	
283.82	2916.3	
284.03	3903.4	
284.24	4983.4	
284.45	5279	
284.66	3934.8	
284.87	3781.9	
285.08	5236	
285.29	5356.1	
285.5	2805	
285.71	3188.7	
285.92	5217.5	
286.12	5744.6	
286.33	3862.5	
286.54	3147.7	
286.75	5188.2	
286.96	4676.9	
287.17	2965.5	
287.38	3857.7	
287.59	4562.9	
287.8	4567.7	
288.01	3166.2	
288.22	3512.3	
288.43	5076.9	
288.64	4390.2	
288.85	3726.6	
289.06	3561.4	
289.27	5128.1	
289.48	5441.5	
289.69	3945.8	
289.9	3553.9	
290.11	5282.4	
290.32	4615.4	
290.53	3728	
290.74	3413.3	
290.94	5139.7	
291.15	5183.4	
291.36	3003.7	
291.57	3614	
291.78	4614.1	
291.99	4309.6	
292.2	2970.9	
292.41	3421.5	
292.62	5270.8	
292.83	5038.7	
293.04	4242.7	
293.25	3027.6	
293.46	4643.4	
293.67	5211.4	
293.88	3110.9	
294.09	2944.3	
294.29	4483.7	
294.5	4855.1	
294.71	3218.7	
294.92	3106.8	
295.13	4603.8	
295.34	5610.8	
295.55	2821.4	
295.76	2702	
295.97	5119.9	
296.18	5649	
296.39	2894.5	
296.6	3076.7	
296.81	4845.5	
297.01	5071.5	
297.22	3207.1	
297.43	3072.6	
297.64	4642.1	
297.85	4538.3	
298.06	2581.8	
298.27	2813.9	
298.48	4791.6	
298.69	4596.3	
298.9	3251.5	
299.11	2967.5	
299.31	4444.8	
299.52	4513.7	
299.73	3484.3	
299.94	3406.5	
300.15	4833.9	
300.36	4525.3	
300.57	3431	
300.78	3409.9	
300.99	4714.4	
301.2	4866	
301.4	3074	
301.61	3257	
301.82	5044.8	
302.03	5156.8	
302.24	3603.1	
302.45	2931.3	
302.66	4965.6	
302.87	5255.1	
303.08	3056.9	
303.29	4065.9	
303.49	4655	
303.7	4812	
303.91	2762	
304.12	3833.8	
304.33	4397	
304.54	4923.3	
304.75	3059.7	
304.96	2977.1	
305.16	5055.8	
305.37	5588.9	
305.58	2746.3	
305.79	2812.5	
306	5084.4	
306.21	4252.9	
306.42	3069.9	
306.63	4433.9	
306.83	4669.4	
307.04	5182	
307.25	3348.4	
307.46	3331.4	
307.67	4240	
307.88	5085.1	
308.09	3016	
308.29	3075.4	
308.5	4891.2	
308.71	5191.6	
308.92	3281.5	
309.13	2957.9	
309.34	4779.3	
309.55	4690.5	
309.75	3765.5	
309.96	3442	
310.17	5080.3	
310.38	4558.1	
310.59	3556	
310.8	2903.3	
311.01	4605.2	
311.21	4781.3	
311.42	2917	
311.63	3037.1	
311.84	4598.4	
312.05	4864.6	
312.26	3444.7	
312.46	3610.6	
312.67	4671.4	
312.88	4434.5	
313.09	3022.1	
313.3	2942.2	
313.51	5396.4	
313.71	5653.8	
313.92	2947.7	
314.13	3149.8	
314.34	4975.9	
314.55	4770.4	
314.76	3635.8	
314.96	3260.4	
315.17	4906.3	
315.38	5135.6	
315.59	2994.8	
315.8	2908.1	
316.01	5351.3	
316.21	5468.8	
316.42	2927.9	
316.63	3240.6	
316.84	4692.6	
317.05	5278.3	
317.26	3477.5	
317.46	3141.6	
317.67	4768.4	
317.88	5080.3	
318.09	3661.1	
318.3	2779.8	
318.5	4584.7	
318.71	4999.8	
318.92	4506.2	
319.13	3465.8	
319.34	5206.6	
319.54	5259.2	
319.75	2776.4	
319.96	2688.3	
320.17	5004.6	
320.38	5194.3	
320.58	2751.1	
320.79	3196.9	
321	5274.2	
321.21	5327.4	
321.42	3284.3	
321.62	2770.2	
321.83	4515.8	
322.04	4828.4	
322.25	3193.5	
322.46	2998.2	
322.66	4894.6	
322.87	5049.6	
323.08	3576.4	
323.29	2914.3	
323.5	5629.2	
323.7	4432.5	
323.91	3885.7	
324.12	3562.8	
324.33	4904.2	
324.53	5006.6	
324.74	3461.7	
324.95	3545.7	
325.16	4349.9	
325.37	4650.9	
325.57	2944.3	
325.78	3024.2	
325.99	4978.6	
326.2	4432.5	
326.4	4042	
326.61	2759.3	
326.82	4730.8	
327.03	4860.5	
327.24	4096.6	
327.44	3790.1	
327.65	5055.8	
327.86	4138.3	
328.07	3379.1	
328.27	2853.5	
328.48	5350.7	
328.69	4489.8	
328.9	4097.3	
329.1	3137.5	
329.31	4770.4	
329.52	5442.1	
329.73	2980.5	
329.93	3269.9	
330.14	4839.4	
330.35	5012.1	
330.56	4679.6	
330.76	3596.2	
330.97	4675.5	
331.18	4907.6	
331.39	3305.4	
331.59	2752.5	
331.8	5227.8	
332.01	5343.8	
332.22	3046	
332.42	3393.5	
332.63	4915.1	
332.84	4543.8	
333.05	3327.9	
333.25	2995.5	
333.46	4598.4	
333.67	4782.7	
333.88	3049.4	
334.08	3343	
334.29	6242.9	
334.5	5200.5	
334.7	2936.8	
334.91	4095.3	
335.12	4483.7	
335.33	5050.3	
335.53	3258.3	
335.74	4610	
335.95	4667.3	
336.16	4427.7	
336.36	3221.5	
336.57	3747.8	
336.78	4442.7	
336.98	5272.2	
337.19	3965.6	
337.4	3183.2	
337.61	5710.4	
337.81	4426.3	
338.02	3078.1	
338.23	3750.5	
338.43	5337.7	
338.64	4536.9	
338.85	2963.4	
339.05	3855	
339.26	5453.7	
339.47	4364.2	
339.68	2988.7	
339.88	4263.2	
340.09	5018.9	
340.3	5154.7	
340.5	3407.1	
340.71	2680.1	
340.92	4478.2	
341.13	5304.2	
341.33	2871.3	
341.54	3414.6	
341.75	4982	
341.95	4624.3	
342.16	3373.7	
342.37	3476.1	
342.57	4489.1	
342.78	4713.7	
342.99	3619.4	
343.19	2728.6	
343.4	5115.1	
343.61	4968.4	
343.81	3183.9	
344.02	2882.9	
344.23	5085.1	
344.43	5378	
344.64	3637.2	
344.85	3562.1	
345.06	5044.1	
345.26	5259.2	
345.47	3409.9	
345.68	3941	
345.88	4336.9	
346.09	5129.5	
346.3	3467.9	
346.5	2674.6	
346.71	4733.5	
346.92	4545.1	
347.12	2831.7	
347.33	3336.8	
347.54	5233.9	
347.74	5464.7	
347.95	3381.2	
348.16	2625.5	
348.36	4689.8	
348.57	4528.1	
348.78	3399.6	
348.98	3539.6	
349.19	4719.2	
349.39	4332.8	
349.6	2764.1	
349.81	3028.3	
350.01	4989.5	
350.22	4552.6	
350.43	3315.7	
350.63	3913	
350.84	4810	
351.05	4624.3	
351.25	3044	
351.46	2745	
351.67	5180	
351.87	4553.3	
352.08	3216.7	
352.29	3549.8	
352.49	5125.4	
352.7	5197.7	
352.9	2929.3	
353.11	3551.9	
353.32	5654.4	
353.52	4670.1	
353.73	2910.2	
353.94	3597.6	
354.14	4980	
354.35	4852.3	
354.55	2975	
354.76	3307.5	
354.97	4950.6	
355.17	4715.1	
355.38	2891	
355.59	3838.6	
355.79	4541	
356	4837.3	
356.2	3299.3	
356.41	2937.5	
356.62	4364.9	
356.82	4781.3	
357.03	3512.9	
357.24	3142.3	
357.44	4543.1	
357.65	4662.5	
357.85	4074.8	
358.06	3331.4	
358.27	4332.1	
358.47	4500.1	
358.68	2831	
358.88	3491.8	
359.09	4970.4	
359.3	5234.6	
359.5	3990.8	
359.71	3560.1	
359.91	5570.5	
360.12	5083.1	
360.33	3467.9	
360.53	3830.4	
360.74	4577.2	
360.94	4650.9	
361.15	3577.1	
361.36	3071.3	
361.56	5232.6	
361.77	4762.2	
361.97	3907.5	
362.18	3223.5	
362.38	5262.6	
362.59	4476.9	
362.8	3011.9	
363	2879.4	
363.21	4276.8	
363.41	4844.8	
363.62	3437.2	
363.83	4084.3	
364.03	4945.8	
364.24	5550	
364.44	4263.9	
364.65	4235.2	
364.85	4714.4	
365.06	4519.2	
365.27	3106.8	
365.47	3209.2	
365.68	5519.3	
365.88	4731.5	
366.09	3481.5	
366.29	3224.9	
366.5	4827.7	
366.71	5160.9	
366.91	4197.7	
367.12	3590.1	
367.32	5697.4	
367.53	5113.1	
367.73	3581.9	
367.94	4245.4	
368.14	5128.1	
368.35	5721.3	
368.56	3543	
368.76	3356.6	
368.97	5270.1	
369.17	6329.6	
369.38	3158.7	
369.58	3378.5	
369.79	4426.3	
369.99	5522.7	
370.2	4185.4	
370.4	3467.9	
370.61	4943.1	
370.82	5875.6	
371.02	3427.6	
371.23	2892.4	
371.43	4397	
371.64	5413.5	
371.84	3416.7	
372.05	4225.6	
372.25	6313.9	
372.46	5106.3	
372.66	3443.3	
372.87	3399.6	
373.07	5190.2	
373.28	6385.6	
373.48	4138.3	
373.69	3923.9	
373.9	4879.6	
374.1	4881.7	
374.31	4159.4	
374.51	3787.4	
374.72	5424.4	
374.92	4644.1	
375.13	4228.4	
375.33	3717.7	
375.54	5114.5	
375.74	4758.8	
375.95	3749.8	
376.15	4601.8	
376.36	5196.4	
376.56	5088.5	
376.77	3810.6	
376.97	4107.5	
377.18	6054.5	
377.38	5270.1	
377.59	4276.8	
377.79	3442.6	
378	5070.8	
378.2	5337.7	
378.41	3455.6	
378.61	3409.9	
378.82	5522.7	
379.02	4862.6	
379.23	3616	
379.43	4357.4	
379.64	5575.3	
379.84	5246.2	
380.05	3470.6	
380.25	3428.3	
380.46	5365	
380.66	4990.9	
380.87	4453	
381.07	4757.4	
381.28	5813.5	
381.48	5276.9	
381.69	3476.8	
381.89	3528.7	
382.1	4553.3	
382.3	5375.9	
382.51	4338.3	
382.71	4908.3	
382.91	5278.3	
383.12	5726.8	
383.32	3753.9	
383.53	3899.3	
383.73	5233.9	
383.94	5046.2	
384.14	3904.8	
384.35	3246.7	
384.55	4961.5	
384.76	5246.9	
384.96	3779.9	
385.17	3986	
385.37	5341.1	
385.58	4708.3	
385.78	4029.7	
385.98	3128.6	
386.19	4924.7	
386.39	5231.9	
386.6	3560.7	
386.8	3695.2	
387.01	5365.7	
387.21	5372.5	
387.42	4023.6	
387.62	4495.3	
387.83	4820.2	
388.03	5144.5	
388.23	3792.8	
388.44	4401.8	
388.64	4590.9	
388.85	4667.3	
389.05	4035.9	
389.26	4487.1	
389.46	6178.7	
389.67	5673.6	
389.87	4012	
390.07	4032.5	
390.28	5102.9	
390.48	4771.1	
390.69	3477.5	
390.89	3683.6	
391.1	4986.8	
391.3	5629.9	
391.5	4648.2	
391.71	5105.6	
391.91	5467.4	
392.12	6095.4	
392.32	4667.3	
392.53	4011.3	
392.73	5021.6	
392.93	5179.3	
393.14	3869.3	
393.34	4598.4	
393.55	5401.9	
393.75	5137.7	
393.95	3829	
394.16	3824.2	
394.36	4970.4	
394.57	5449.6	
394.77	3474.7	
394.98	3706.1	
395.18	4939	
395.38	5055.8	
395.59	4483	
395.79	3697.3	
396	5063.3	
396.2	5436	
396.4	4344.4	
396.61	4220.9	
396.81	5487.9	
397.02	5044.1	
397.22	4518.5	
397.42	4597.7	
397.63	5634	
397.83	5008	
398.04	3662.5	
398.24	4042.7	
398.44	5372.5	
398.65	4650.3	
398.85	3614.7	
399.05	3665.9	
399.26	5042.8	
399.46	6291.4	
399.67	4046.8	
399.87	3786.7	
400.07	5335.6	
400.28	5629.9	
400.48	3830.4	
400.69	4603.8	
400.89	5715.2	
401.09	6118	
401.3	3784.6	
401.5	4611.3	
401.7	6239.5	
401.91	6361	
402.11	4085	
402.32	4229.7	
402.52	5801.9	
402.72	5612.8	
402.93	4370.4	
403.13	3500	
403.33	6307.7	
403.54	5338.4	
403.74	4104.1	
403.94	4739.7	
404.15	5359.5	
404.35	6251.8	
404.56	3969	
404.76	5264.6	
404.96	5750.7	
405.17	5509.7	
405.37	4605.2	
405.57	4367.6	
405.78	5768.4	
405.98	5338.4	
406.18	4016.7	
406.39	4591.5	
406.59	5739.1	
406.79	5390.3	
407	3772.4	
407.2	3880.9	
407.4	5883.8	
407.61	5897.5	
407.81	3984	
408.01	5565	
408.22	5016.8	
408.42	6531.7	
408.62	4786.8	
408.83	4468	
409.03	5554.1	
409.23	5446.2	
409.44	4601.8	
409.64	4698.7	
409.84	6425.8	
410.05	6294.8	
410.25	4658.4	
410.45	4562.9	
410.66	5988.3	
410.86	7798	
411.06	4880.3	
411.27	4864.6	
411.47	7628	
411.67	6044.2	
411.88	4980	
412.08	5211.4	
412.28	6525.5	
412.49	6938.5	
412.69	4953.4	
412.89	4897.4	
413.09	6831.3	
413.3	6788.3	
413.5	4974.5	
413.7	4749.2	
413.91	6247	
414.11	6915.3	
414.31	4917.9	
414.52	5205.3	
414.72	6733	
414.92	6603.3	
415.12	4854.4	
415.33	5294.7	
415.53	6838.9	
415.73	7010.2	
415.94	5545.2	
416.14	5076.2	
416.34	6196.5	
416.55	5979.4	
416.75	6036	
416.95	5659.2	
417.15	6996.5	
417.36	7461.4	
417.56	6279.8	
417.76	5508.4	
417.97	7203.4	
418.17	6970.6	
418.37	5265.3	
418.57	5287.2	
418.78	6964.5	
418.98	6553.5	
419.18	5870.2	
419.38	5709.7	
419.59	6641.6	
419.79	6321.4	
419.99	5156.1	
420.2	5447.6	
420.4	7036.8	
420.6	7157	
420.8	5133.6	
421.01	5008.6	
421.21	6872.3	
421.41	6987	
421.61	5485.8	
421.82	5132.2	
422.02	6512.5	
422.22	7172	
422.42	5674.2	
422.63	5469.4	
422.83	6575.3	
423.03	7584.3	
423.23	5492	
423.44	4733.5	
423.64	6650.4	
423.84	6315.3	
424.04	5089.2	
424.25	4881	
424.45	7273.7	
424.65	7298.3	
424.85	4638.6	
425.06	5091.9	
425.26	7414.3	
425.46	6531	
425.66	5486.5	
425.87	5240.1	
426.07	7125.6	
426.27	6976.1	
426.47	5307	
426.67	4894.6	
426.88	7417.1	
427.08	6921.5	
427.28	5565	
427.48	4859.1	
427.69	6158.9	
427.89	6629.3	
428.09	5513.8	
428.29	4837.3	
428.5	7129	
428.7	6760.3	
428.9	4780	
429.1	5166.3	
429.3	6713.2	
429.51	7051.2	
429.71	5031.9	
429.91	5671.5	
430.11	7051.8	
430.31	7171.3	
430.52	5362.9	
430.72	5472.2	
430.92	7361.1	
431.12	7002.7	
431.32	5042.8	
431.53	5354.1	
431.73	6234.7	
431.93	7448.5	
432.13	4961.5	
432.33	4920.6	
432.54	6632.7	
432.74	6877.8	
432.94	4917.2	
433.14	5680.4	
433.34	7040.9	
433.55	6786.3	
433.75	5674.9	
433.95	6913.3	
434.15	6971.3	
434.35	6696.9	
434.56	5110.4	
434.76	4795	
434.96	6911.9	
435.16	7018.4	
435.36	4982.7	
435.56	5948	
435.77	6706.4	
435.97	6862.1	
436.17	6442.2	
436.37	5901.6	
436.57	6664.8	
436.78	6625.9	
436.98	5800.5	
437.18	6387.6	
437.38	7251.9	
437.58	6866.8	
437.78	6365.8	
437.99	5363.6	
438.19	7201.3	
438.39	8325	
438.59	5399.1	
438.79	4911.7	
438.99	7722.9	
439.2	6804	
439.4	4992.3	
439.6	4967.7	
439.8	7024.5	
440	7910.6	
440.2	5912.5	
440.4	5933	
440.61	7483.3	
440.81	7824.6	
441.01	5339.1	
441.21	6070.2	
441.41	7965.9	
441.61	7473.7	
441.81	6331.6	
442.02	6967.2	
442.22	8193.9	
442.42	7638.9	
442.62	5492	
442.82	5436.7	
443.02	7945.4	
443.22	7190.4	
443.43	5821	
443.63	5454.4	
443.83	7111.2	
444.03	7081.2	
444.23	6481.1	
444.43	6104.3	
444.63	7400	
444.83	8283.4	
445.04	5657.9	
445.24	6552.1	
445.44	7643	
445.64	7705.1	
445.84	6172.6	
446.04	6217.6	
446.24	7091.4	
446.44	7874.4	
446.65	5501.5	
446.85	5925.5	
447.05	7377.5	
447.25	7859.4	
447.45	5905	
447.65	5436.7	
447.85	7474.4	
448.05	7017	
448.25	6275	
448.46	6063.4	
448.66	7400.7	
448.86	7191.8	
449.06	5423	
449.26	6206.7	
449.46	7701	
449.66	6952.2	
449.86	5909.8	
450.06	5898.8	
450.26	7055.3	
450.47	7587	
450.67	6069.5	
450.87	6324.1	
451.07	7734.5	
451.27	7497.6	
451.47	5541.8	
451.67	5962.3	
451.87	7324.9	
452.07	8084	
452.27	5874.3	
452.47	5739.8	
452.67	7481.9	
452.88	7835.5	
453.08	5357.5	
453.28	6816.3	
453.48	8518.9	
453.68	7418.4	
453.88	5786.2	
454.08	5877	
454.28	7872.4	
454.48	7556.3	
454.68	6352.8	
454.88	6700.3	
455.08	7940.7	
455.28	7856	
455.48	5731.6	
455.68	6224.5	
455.89	8487.5	
456.09	8044.4	
456.29	5965.7	
456.49	6155.5	
456.69	8313.4	
456.89	7664.9	
457.09	6507.8	
457.29	6822.5	
457.49	7940.7	
457.69	8062.9	
457.89	6485.2	
458.09	5969.8	
458.29	7858.7	
458.49	8419.2	
458.69	6791.7	
458.89	6328.2	
459.09	8686.8	
459.29	8699.8	
459.49	6406	
459.69	6956.3	
459.9	8306.6	
460.1	7966.6	
460.3	6222.4	
460.5	6128.2	
460.7	8428.1	
460.9	8082	
461.1	5956.2	
461.3	6937.2	
461.5	8876.6	
461.7	8516.8	
461.9	6380.1	
462.1	6683.2	
462.3	8205.5	
462.5	8671.1	
462.7	6585.6	
462.9	6599.9	
463.1	9486.2	
463.3	9269.8	
463.5	6711.2	
463.7	7550.2	
463.9	8594	
464.1	8843.8	
464.3	7055.9	
464.5	7108.5	
464.7	9075.2	
464.9	8845.2	
465.1	8166.6	
465.3	7446.4	
465.5	9233.6	
465.7	9346.2	
465.9	7679.9	
466.1	7391.8	
466.3	9166	
466.5	9069.1	
466.7	8256	
466.9	7350.2	
467.1	9250	
467.3	9844.6	
467.5	8367.3	
467.7	7472.4	
467.9	10047	
468.1	10740	
468.3	7945.4	
468.5	8367.3	
468.7	9204.3	
468.9	9122.3	
469.1	7702.4	
469.3	8347.5	
469.5	10692	
469.7	9006.3	
469.9	8090.2	
470.1	7600	
470.3	9262.3	
470.5	9185.1	
470.7	8600.8	
470.9	7582.3	
471.1	9099.8	
471.3	9353.1	
471.5	7476.5	
471.69	8879.3	
471.89	8949.6	
472.09	8555.7	
472.29	8008.9	
472.49	8263.6	
472.69	8760.5	
472.89	9377.6	
473.09	7359	
473.29	7462.8	
473.49	8841.1	
473.69	8951	
473.89	8103.8	
474.09	7561.8	
474.29	9893.1	
474.49	9575.6	
474.69	8112.7	
474.89	7641.7	
475.09	9008.3	
475.29	8834.9	
475.49	7161.7	
475.69	7456	
475.88	10152	
476.08	9360.6	
476.28	7081.9	
476.48	7359	
476.68	9576.3	
476.88	9282.1	
477.08	7371.3	
477.28	7647.1	
477.48	9034.3	
477.68	9331.2	
477.88	7233.4	
478.08	7469.6	
478.28	9688.3	
478.48	9062.3	
478.67	7534.5	
478.87	6942.6	
479.07	9654.8	
479.27	9144.2	
479.47	7733.1	
479.67	7659.4	
479.87	9457.5	
480.07	9897.2	
480.27	7170.6	
480.47	8346.2	
480.67	9171.5	
480.87	9753.8	
481.06	7336.5	
481.26	8062.9	
481.46	9246.6	
481.66	9118.2	
481.86	7772	
482.06	8449.9	
482.26	8983.1	
482.46	9663	
482.66	7665.5	
482.86	7338.6	
483.05	9378.3	
483.25	8843.8	
483.45	9598.1	
483.65	7675.1	
483.85	8951.7	
484.05	9205.6	
484.25	8072.4	
484.45	8419.9	
484.65	9876.7	
484.84	9964.7	
485.04	7718.1	
485.24	7748.8	
485.44	10213	
485.64	8901.8	
485.84	7310.6	
486.04	8301.8	
486.24	9273.2	
486.44	9411.8	
486.63	7347.4	
486.83	7938.6	
487.03	9244.5	
487.23	9361.3	
487.43	7395.9	
487.63	9202.9	
487.83	9493.7	
488.02	10185	
488.22	8211	
488.42	8610.3	
488.62	10144	
488.82	9324.4	
489.02	7880.6	
489.22	7989.1	
489.41	10054	
489.61	9868.5	
489.81	7705.1	
490.01	7806.2	
490.21	10047	
490.41	10522	
490.61	7789.1	
490.8	7941.3	
491	9748.3	
491.2	9162.6	
491.4	8322.3	
491.6	7589.8	
491.8	9601.6	
491.99	9665.7	
492.19	7544.7	
492.39	7793.2	
492.59	10040	
492.79	10059	
492.99	8449.9	
493.18	7731.1	
493.38	10251	
493.58	10849	
493.78	8407.6	
493.98	8137.9	
494.18	10055	
494.37	9727.9	
494.57	8794.7	
494.77	8687.5	
494.97	10392	
495.17	10611	
495.37	8550.3	
495.56	8695.7	
495.76	10920	
495.96	10623	
496.16	9519	
496.36	8783.1	
496.55	10894	
496.75	10448	
496.95	9129.8	
497.15	8966.7	
497.35	10844	
497.54	10895	
497.74	8895.7	
497.94	10101	
498.14	11372	
498.34	11151	
498.53	8698.4	
498.73	9244.5	
498.93	10422	
499.13	10852	
499.33	9238.4	
499.52	9499.8	
499.72	11103	
499.92	11170	
500.12	8976.2	
500.32	9232.9	
500.51	11153	
500.71	11017	
500.91	9822.7	
501.11	9574.3	
501.31	11232	
501.5	11593	
501.7	10099	
501.9	9306.7	
502.1	11050	
502.29	11287	
502.49	9673.9	
502.69	9895.8	
502.89	11146	
503.09	11189	
503.28	8773.5	
503.48	8934.6	
503.68	10574	
503.88	10490	
504.07	9658.9	
504.27	9122.3	
504.47	10811	
504.67	10916	
504.86	9529.2	
505.06	9331.9	
505.26	10592	
505.46	11858	
505.65	9136.7	
505.85	9322.4	
506.05	10456	
506.25	10836	
506.44	8580.3	
506.64	9348.3	
506.84	10273	
507.04	10933	
507.23	8768	
507.43	9054.8	
507.63	11742	
507.83	10418	
508.02	9218.6	
508.22	8865.7	
508.42	12118	
508.62	10302	
508.81	9033.6	
509.01	9498.5	
509.21	10139	
509.4	10497	
509.6	9253.4	
509.8	8813.1	
510	10323	
510.19	11432	
510.39	8667	
510.59	8844.5	
510.79	10270	
510.98	11327	
511.18	8858.1	
511.38	8912.1	
511.57	10984	
511.77	10743	
511.97	9395.4	
512.17	8632.9	
512.36	10884	
512.56	10712	
512.76	8680.7	
512.95	8469	
513.15	11075	
513.35	9857.6	
513.55	9239.1	
513.74	8701.8	
513.94	10989	
514.14	10335	
514.33	9445.9	
514.53	9179	
514.73	10387	
514.92	10537	
515.12	8831.5	
515.32	8718.9	
515.51	10590	
515.71	10914	
515.91	9898.5	
516.11	8647.9	
516.3	11768	
516.5	10291	
516.7	9158.5	
516.89	9497.1	
517.09	10365	
517.29	10266	
517.48	9273.2	
517.68	8837.7	
517.88	10100	
518.07	10669	
518.27	9350.3	
518.47	8500.4	
518.66	11054	
518.86	10073	
519.06	8374.8	
519.25	8761.9	
519.45	10307	
519.65	11516	
519.84	9331.9	
520.04	9862.3	
520.24	11732	
520.43	10710	
520.63	9106	
520.83	8800.1	
521.02	10299	
521.22	10556	
521.42	9276.6	
521.61	9653.4	
521.81	10401	
522.01	10490	
522.2	9153.7	
522.4	8819.2	
522.6	10847	
522.79	9886.2	
522.99	8960.5	
523.18	8604.9	
523.38	10818	
523.58	10845	
523.77	10133	
523.97	8723.7	
524.17	12132	
524.36	11660	
524.56	9794.1	
524.76	9516.9	
524.95	10964	
525.15	10684	
525.34	9379.7	
525.54	9492.3	
525.74	11243	
525.93	10475	
526.13	10374	
526.33	9495.1	
526.52	11632	
526.72	11212	
526.91	10535	
527.11	9917.6	
527.31	11535	
527.5	12026	
527.7	9910.8	
527.89	9146.2	
528.09	10942	
528.29	11288	
528.48	10169	
528.68	9807.7	
528.87	11495	
529.07	11637	
529.27	9877.4	
529.46	9633.6	
529.66	11445	
529.85	11670	
530.05	9414.5	
530.25	10091	
530.44	12529	
530.64	11375	
530.83	9802.9	
531.03	9957.2	
531.23	11922	
531.42	11650	
531.62	10616	
531.81	9930.6	
532.01	11996	
532.21	12237	
532.4	9998.9	
532.6	10286	
532.79	12625	
532.99	12272	
533.18	10449	
533.38	11116	
533.58	11892	
533.77	12521	
533.97	10537	
534.16	11090	
534.36	12716	
534.55	12110	
534.75	11324	
534.95	10579	
535.14	12753	
535.34	11993	
535.53	10232	
535.73	11830	
535.92	13142	
536.12	12169	
536.31	10250	
536.51	11266	
536.71	12405	
536.9	12013	
537.1	10323	
537.29	10467	
537.49	12598	
537.68	11744	
537.88	10810	
538.07	10053	
538.27	12112	
538.46	12785	
538.66	10166	
538.86	10515	
539.05	12190	
539.25	12594	
539.44	10957	
539.64	10499	
539.83	12093	
540.03	13008	
540.22	10520	
540.42	10482	
540.61	12305	
540.81	12447	
541	10765	
541.2	11348	
541.39	11946	
541.59	12238	
541.78	11123	
541.98	10326	
542.18	11540	
542.37	11638	
542.57	10663	
542.76	11032	
542.96	11551	
543.15	12133	
543.35	10626	
543.54	10075	
543.74	12184	
543.93	11983	
544.13	10341	
544.32	11205	
544.52	12200	
544.71	11587	
544.91	9652.8	
545.1	10600	
545.3	11671	
545.49	12067	
545.69	9605	
545.88	10148	
546.08	12880	
546.27	12497	
546.47	10550	
546.66	10090	
546.86	12381	
547.05	12750	
547.24	10091	
547.44	10074	
547.63	11312	
547.83	12307	
548.02	10450	
548.22	10446	
548.41	11219	
548.61	12297	
548.8	9918.3	
549	9834.3	
549.19	11757	
549.39	11989	
549.58	9711.5	
549.78	10133	
549.97	11964	
550.17	11440	
550.36	10660	
550.55	11486	
550.75	11548	
550.94	12235	
551.14	9726.5	
551.33	10034	
551.53	11008	
551.72	11730	
551.92	9923.1	
552.11	9788.6	
552.31	11707	
552.5	11783	
552.69	11158	
552.89	9579.7	
553.08	11685	
553.28	11383	
553.47	9792.7	
553.67	10576	
553.86	12120	
554.06	10880	
554.25	9208.4	
554.44	9649.3	
554.64	12604	
554.83	12285	
555.03	9555.8	
555.22	9827.5	
555.42	11815	
555.61	11533	
555.8	9678	
556	9882.8	
556.19	10891	
556.39	11731	
556.58	9667.8	
556.78	9795.4	
556.97	11398	
557.16	11129	
557.36	10528	
557.55	9379.7	
557.75	10565	
557.94	11970	
558.13	9456.8	
558.33	9205.6	
558.52	11820	
558.72	10828	
558.91	9314.8	
559.1	9469.1	
559.3	10664	
559.49	10372	
559.69	8964.6	
559.88	9644.6	
560.07	11263	
560.27	11544	
560.46	9859.6	
560.66	9910.8	
560.85	11105	
561.04	10481	
561.24	9235.7	
561.43	9282.1	
561.63	10617	
561.82	10827	
562.01	10426	
562.21	9476	
562.4	11135	
562.59	11932	
562.79	9430.2	
562.98	9162.6	
563.18	11110	
563.37	12246	
563.56	9827.5	
563.76	9315.5	
563.95	10778	
564.14	10789	
564.34	9654.1	
564.53	9373.6	
564.73	11312	
564.92	11483	
565.11	9712.2	
565.31	9361.9	
565.5	11693	
565.69	10793	
565.89	9538.8	
566.08	9620	
566.27	11533	
566.47	11856	
566.66	10261	
566.85	9189.9	
567.05	11348	
567.24	10910	
567.44	9416.6	
567.63	10507	
567.82	11652	
568.02	11330	
568.21	9536	
568.4	9797.5	
568.6	11256	
568.79	11340	
568.98	9353.8	
569.18	9439.8	
569.37	11288	
569.56	12792	
569.76	9755.2	
569.95	10505	
570.14	11514	
570.34	11480	
570.53	9577.7	
570.72	9472.5	
570.91	11980	
571.11	11391	
571.3	9838.4	
571.49	10531	
571.69	11367	
571.88	11155	
572.07	10223	
572.27	10096	
572.46	10896	
572.65	11814	
572.85	9603.6	
573.04	9906.7	
573.23	11990	
573.43	11465	
573.62	9628.9	
573.81	9983.2	
574	11580	
574.2	11461	
574.39	9922.4	
574.58	9908.8	
574.78	12375	
574.97	11706	
575.16	10320	
575.36	10389	
575.55	12107	
575.74	12209	
575.93	9698.5	
576.13	10574	
576.32	11574	
576.51	12085	
576.71	10138	
576.9	11056	
577.09	12336	
577.28	11972	
577.48	10394	
577.67	9670.5	
577.86	11710	
578.05	11974	
578.25	10145	
578.44	10355	
578.63	11919	
578.83	12745	
579.02	9878.7	
579.21	11073	
579.4	11951	
579.6	11742	
579.79	10368	
579.98	12078	
580.17	12282	
580.37	12243	
580.56	9945.6	
580.75	10641	
580.94	12590	
581.14	12542	
581.33	10908	
581.52	10056	
581.71	12134	
581.91	12720	
582.1	9910.1	
582.29	10351	
582.48	11959	
582.68	11913	
582.87	10684	
583.06	10423	
583.25	12282	
583.45	12084	
583.64	10927	
583.83	11395	
584.02	11716	
584.21	12179	
584.41	10935	
584.6	10393	
584.79	12071	
584.98	12507	
585.18	10043	
585.37	10000	
585.56	11585	
585.75	12161	
585.94	10119	
586.14	10639	
586.33	12615	
586.52	11873	
586.71	10556	
586.91	10281	
587.1	11427	
587.29	12191	
587.48	10094	
587.67	10097	
587.87	12029	
588.06	11974	
588.25	11144	
588.44	10570	
588.63	11647	
588.83	12081	
589.02	10144	
589.21	9914.9	
589.4	11599	
589.59	11532	
589.78	9278	
589.98	9473.2	
590.17	10905	
590.36	11405	
590.55	8833.6	
590.74	9349	
590.94	12227	
591.13	11047	
591.32	9207.7	
591.51	8856.1	
591.7	11276	
591.89	10946	
592.09	8789.9	
592.28	9201.5	
592.47	10310	
592.66	11960	
592.85	9010.4	
593.05	9134.6	
593.24	10916	
593.43	11507	
593.62	9230.2	
593.81	9567.4	
594	10882	
594.19	10968	
594.39	9058.2	
594.58	8962.6	
594.77	11164	
594.96	11521	
595.15	8995.4	
595.34	9450.7	
595.54	10996	
595.73	10402	
595.92	8551	
596.11	9288.2	
596.3	11390	
596.49	10443	
596.68	9093.7	
596.88	9411.1	
597.07	11224	
597.26	10434	
597.45	8766.7	
597.64	9819.3	
597.83	10611	
598.02	11084	
598.22	8865.7	
598.41	9312.8	
598.6	10922	
598.79	10435	
598.98	8897.1	
599.17	9609.8	
599.36	10848	
599.55	11606	
599.74	10371	
599.94	10167	
600.13	11080	
600.32	10282	
600.51	8607.6	
600.7	8642.4	
600.89	11537	
601.08	11694	
601.27	8554.4	
601.47	9221.3	
601.66	11159	
601.85	11457	
602.04	9095	
602.23	9213.8	
602.42	10395	
602.61	10836	
602.8	8964	
602.99	8690.2	
603.18	10537	
603.37	10765	
603.57	9200.2	
603.76	9701.9	
603.95	11351	
604.14	10828	
604.33	8774.9	
604.52	9047.2	
604.71	10765	
604.9	10428	
605.09	9454.8	
605.28	9291.6	
605.47	11178	
605.66	10864	
605.86	9263.6	
606.05	8805.6	
606.24	11095	
606.43	9915.6	
606.62	8967.4	
606.81	9563.3	
607	11004	
607.19	10353	
607.38	8497.7	
607.57	8670.4	
607.76	10189	
607.95	9758.6	
608.14	8998.1	
608.33	9445.2	
608.52	10176	
608.72	10875	
608.91	8455.4	
609.1	8390.5	
609.29	10148	
609.48	9833.7	
609.67	8938	
609.86	8403.5	
610.05	9992	
610.24	10151	
610.43	8273.8	
610.62	8021.9	
610.81	11036	
611	10853	
611.19	8349.6	
611.38	8826.7	
611.57	10403	
611.76	11303	
611.95	8170	
612.14	8022.6	
612.33	10173	
612.52	9854.8	
612.71	8629.5	
612.9	7995.3	
613.09	9575.6	
613.28	11390	
613.47	8447.9	
613.66	9043.8	
613.85	10361	
614.04	9903.3	
614.24	8447.2	
614.43	7856	
614.62	10393	
614.81	10284	
615	8789.2	
615.19	8779	
615.38	9859.6	
615.57	10149	
615.76	8691.6	
615.95	9403.6	
616.14	10412	
616.33	10110	
616.52	8948.3	
616.71	9124.4	
616.9	10345	
617.09	10306	
617.28	8492.2	
617.47	9360.6	
617.66	9742.9	
617.85	9764	
618.04	9086.2	
618.22	8718.2	
618.41	9956.5	
618.6	10704	
618.79	8647.2	
618.98	8441.7	
619.17	10997	
619.36	9680.7	
619.55	8775.5	
619.74	8751.7	
619.93	10486	
620.12	10092	
620.31	9256.8	
620.5	9222	
620.69	10925	
620.88	11181	
621.07	9839.1	
621.26	9069.1	
621.45	10797	
621.64	10677	
621.83	9195.4	
622.02	8512.7	
622.21	10792	
622.4	10592	
622.59	9564.7	
622.78	9464.3	
622.97	10228	
623.16	11128	
623.35	9159.9	
623.54	8636.3	
623.72	10379	
623.91	10533	
624.1	9501.9	
624.29	8421.9	
624.48	11331	
624.67	10695	
624.86	9267.1	
625.05	8559.1	
625.24	11292	
625.43	10200	
625.62	10505	
625.81	8750.3	
626	10835	
626.19	10256	
626.38	9260.9	
626.56	8804.2	
626.75	10209	
626.94	10853	
627.13	9387.9	
627.32	8365.3	
627.51	10811	
627.7	11680	
627.89	8316.1	
628.08	9383.1	
628.27	10144	
628.46	10293	
628.65	8744.1	
628.83	8383.7	
629.02	10611	
629.21	10116	
629.4	8955.8	
629.59	9182.4	
629.78	10109	
629.97	10774	
630.16	9121	
630.35	8739.4	
630.54	11245	
630.72	10909	
630.91	8740.7	
631.1	9052.7	
631.29	10607	
631.48	10576	
631.67	9316.9	
631.86	8718.2	
632.05	10309	
632.24	10307	
632.42	8539.3	
632.61	8961.2	
632.8	10232	
632.99	10031	
633.18	8976.2	
633.37	9248.6	
633.56	10472	
633.75	10421	
633.93	8827.4	
634.12	8863.6	
634.31	11153	
634.5	10712	
634.69	8708	
634.88	9131.9	
635.07	10276	
635.25	10718	
635.44	9386.5	
635.63	9530.6	
635.82	10179	
636.01	9685.5	
636.2	9417.9	
636.39	8936.7	
636.57	11121	
636.76	10691	
636.95	8592.6	
637.14	9662.3	
637.33	10438	
637.52	11170	
637.7	8397.4	
637.89	9281.4	
638.08	10191	
638.27	11237	
638.46	9174.9	
638.65	9463.7	
638.83	11260	
639.02	9981.1	
639.21	9031.5	
639.4	9411.8	
639.59	10276	
639.78	9908.8	
639.96	8393.9	
640.15	8535.9	
640.34	10276	
640.53	10229	
640.72	8284.7	
640.91	8482.7	
641.09	9659.6	
641.28	10808	
641.47	8544.1	
641.66	9084.1	
641.85	10237	
642.03	10415	
642.22	8901.2	
642.41	8420.6	
642.6	9805	
642.79	9302.6	
642.97	8328.4	
643.16	8822	
643.35	9628.9	
643.54	9538.1	
643.73	8228.1	
643.91	8912.8	
644.1	9499.2	
644.29	9934	
644.48	8225.3	
644.67	8281.3	
644.85	9484.8	
645.04	9846.6	
645.23	7871.7	
645.42	8258.1	
645.6	9423.4	
645.79	10296	
645.98	8004.8	
646.17	7232.1	
646.36	9222	
646.54	9521.7	
646.73	8485.4	
646.92	7642.3	
647.11	9162.6	
647.29	10004	
647.48	7624.6	
647.67	7481.2	
647.86	10112	
648.05	10120	
648.23	7886	
648.42	8757.1	
648.61	9652.1	
648.8	9385.8	
648.98	7468.9	
649.17	7748.1	
649.36	9014.5	
649.55	8813.1	
649.73	7576.1	
649.92	8099	
650.11	9031.5	
650.3	9255.5	
650.48	7701	
650.67	7507.2	
650.86	9518.3	
651.05	8692.9	
651.23	7704.5	
651.42	7647.1	
651.61	9021.3	
651.79	9024.7	
651.98	7813	
652.17	7475.1	
652.36	9439.1	
652.54	8662.9	
652.73	7544	
652.92	7507.2	
653.11	9407.7	
653.29	9508.7	
653.48	7034.8	
653.67	7712	
653.85	9290.3	
654.04	10062	
654.23	7878.5	
654.42	7435.5	
654.6	8744.8	
654.79	9267.7	
654.98	7033.4	
655.16	7451.9	
655.35	8425.3	
655.54	8208.9	
655.73	7014.3	
655.91	6933.7	
656.1	9097.1	
656.29	8163.9	
656.47	6597.9	
656.66	7924.3	
656.85	8543.4	
657.03	8393.9	
657.22	7100.3	
657.41	7201.3	
657.59	8677.2	
657.78	8508.6	
657.97	6944.7	
658.16	7505.8	
658.34	9182.4	
658.53	9476.6	
658.72	8148.9	
658.9	8498.4	
659.09	8845.9	
659.28	8905.3	
659.46	7276.4	
659.65	7240.3	
659.84	8641.1	
660.02	9014.5	
660.21	7314	
660.4	7071	
660.58	9379	
660.77	8815.1	
660.96	7615.7	
661.14	6866.2	
661.33	9714.9	
661.52	9645.3	
661.7	6924.9	
661.89	9650.7	
662.08	8572.8	
662.26	8210.3	
662.45	7093.5	
662.64	7161.7	
662.82	9127.1	
663.01	8469.7	
663.2	7132.4	
663.38	7662.8	
663.57	8946.9	
663.75	8879.3	
663.94	7308.5	
664.13	8332.5	
664.31	8548.2	
664.5	8955.1	
664.69	7377.5	
664.87	7866.9	
665.06	8170.7	
665.25	8748.9	
665.43	7999.4	
665.62	8031.5	
665.8	9009.7	
665.99	8542.8	
666.18	7339.2	
666.36	7303.7	
666.55	9025.4	
666.74	8935.3	
666.92	6991.8	
667.11	8254	
667.29	8557.8	
667.48	8927.8	
667.67	7948.8	
667.85	7200	
668.04	8492.9	
668.22	8492.9	
668.41	7393.2	
668.6	7505.8	
668.78	8400.8	
668.97	8559.8	
669.15	7477.1	
669.34	6810.9	
669.53	8430.1	
669.71	8632.9	
669.9	6853.2	
670.08	7392.5	
670.27	8412.4	
670.46	8765.3	
670.64	7559.1	
670.83	7760.4	
671.01	8198	
671.2	8628.8	
671.38	7027.3	
671.57	6777.4	
671.76	9118.9	
671.94	9533.3	
672.13	6759	
672.31	7494.2	
672.5	8834.3	
672.69	8276.5	
672.87	6924.9	
673.06	7131.7	
673.24	8740	
673.43	8302.5	
673.61	7292.8	
673.8	7058.7	
673.98	8654	
674.17	8890.9	
674.36	7597.3	
674.54	7400.7	
674.73	8447.2	
674.91	8839	
675.1	7268.9	
675.28	6961.7	
675.47	8510.7	
675.65	8910.7	
675.84	7087.3	
676.03	7406.1	
676.21	8302.5	
676.4	7985	
676.58	7764.5	
676.77	7450.5	
676.95	9454.8	
677.14	8216.5	
677.32	6849.8	
677.51	6713.9	
677.69	8916.9	
677.88	8088.8	
678.06	6828.6	
678.25	6911.9	
678.44	8483.4	
678.62	8254.7	
678.81	6635.4	
678.99	7404.8	
679.18	9086.2	
679.36	8676.6	
679.55	7075.7	
679.73	7509.9	
679.92	8642.4	
680.1	8311.3	
680.29	7962.5	
680.47	7081.2	
680.66	8213	
680.84	8841.1	
681.03	6575.3	
681.21	7467.6	
681.4	8256.7	
681.58	8105.2	
681.77	6893.5	
681.95	6777.4	
682.14	8882	
682.32	9145.5	
682.51	7541.3	
682.69	6635.4	
682.88	8139.3	
683.06	8514.1	
683.25	7283.9	
683.43	7558.4	
683.62	8406.9	
683.8	8667.7	
683.99	7671	
684.17	7124.9	
684.36	9286.2	
684.54	8208.3	
684.73	6550.8	
684.91	6572.6	
685.1	8523	
685.28	7851.9	
685.46	6934.4	
685.65	6931	
685.83	8400.8	
686.02	7955	
686.2	6417	
686.39	6469.5	
686.57	7748.8	
686.76	8774.2	
686.94	6350.8	
687.13	6548.7	
687.31	8175.5	
687.5	7949.5	
687.68	6127.5	
687.86	7066.9	
688.05	9239.8	
688.23	7575.4	
688.42	7173.4	
688.6	6576.7	
688.79	7916.1	
688.97	7910.6	
689.16	6903	
689.34	6111.1	
689.52	8526.4	
689.71	8743.5	
689.89	7197.9	
690.08	6682.5	
690.26	8271.1	
690.45	8076.5	
690.63	7318.8	
690.81	6718.7	
691	8093.6	
691.18	8056.7	
691.37	6908.5	
691.55	8482.7	
691.74	7978.9	
691.92	9543.5	
692.1	6840.9	
692.29	6371.2	
692.47	8163.2	
692.66	7506.5	
692.84	6509.1	
693.02	6890.7	
693.21	7525.6	
693.39	7950.2	
693.58	7095.5	
693.76	6548	
693.94	8911.4	
694.13	8806.9	
694.31	6693.4	
694.5	7417.7	
694.68	7901.1	
694.86	8136.6	
695.05	6906.4	
695.23	7174.7	
695.42	8430.1	
695.6	10204	
695.78	7247.8	
695.97	6670.9	
696.15	8603.5	
696.34	8069.7	
696.52	6535.8	
696.7	7103.7	
696.89	8283.4	
697.07	7783	
697.25	6981.5	
697.44	8139.3	
697.62	8197.3	
697.81	8446.5	
697.99	6733.7	
698.17	7054.6	
698.36	7704.5	
698.54	8215.8	
698.72	6959	
698.91	6244.9	
699.09	7895.6	
699.28	7685.3	
699.46	6762.4	
699.64	6598.6	
699.83	7640.3	
700.01	8555	
700.19	7191.8	
700.38	5976.7	
700.56	8546.9	
700.74	7771.4	
700.93	6169.2	
701.11	6995.9	
701.29	8210.3	
701.48	9028.1	
701.66	6448.4	
701.84	6518	
702.03	7875.8	
702.21	8402.1	
702.39	6148	
702.58	6642.2	
702.76	8228.7	
702.94	8241	
703.13	6198.5	
703.31	7935.9	
703.49	7700.4	
703.68	8406.9	
703.86	6378.7	
704.04	7064.8	
704.23	8016.4	
704.41	8315.4	
704.59	6417.7	
704.78	7346.7	
704.96	9192	
705.14	8204.2	
705.33	6233.3	
705.51	6806.8	
705.69	7742	
705.87	8383	
706.06	6964.5	
706.24	6105.7	
706.42	8075.1	
706.61	8209.6	
706.79	6979.5	
706.97	6170.5	
707.16	7641.7	
707.34	8058.1	
707.52	6931.7	
707.7	6277	
707.89	7659.4	
708.07	7298.3	
708.25	6913.3	
708.44	7015.7	
708.62	7621.9	
708.8	8338	
708.98	7092.1	
709.17	6285.9	
709.35	7814.4	
709.53	7761.1	
709.72	6051.7	
709.9	6383.5	
710.08	8079.9	
710.26	8063.5	
710.45	7151.5	
710.63	6284.5	
710.81	7755	
710.99	7799.3	
711.18	6649.1	
711.36	6208.8	
711.54	7544	
711.72	8067.6	
711.91	6268.1	
712.09	5853.8	
712.27	7665.5	
712.45	8012.3	
712.64	6397.2	
712.82	5586.9	
713	7197.2	
713.18	7235.5	
713.37	5687.9	
713.55	6509.8	
713.73	7816.4	
713.91	6711.9	
714.1	5811.5	
714.28	5416.9	
714.46	7404.8	
714.64	6834.1	
714.83	4939.7	
715.01	5459.2	
715.19	6790.4	
715.37	6176	
715.55	5083.1	
715.74	5393.7	
715.92	7245	
716.1	5756.2	
716.28	6230.6	
716.47	5336.3	
716.65	6292	
716.83	6366.5	
717.01	5215.5	
717.19	5254.4	
717.38	7888.1	
717.56	6053.1	
717.74	5423	
717.92	4769	
718.1	7004.1	
718.29	6319.3	
718.47	4485.1	
718.65	5012.1	
718.83	6933.1	
719.01	6851.8	
719.2	4498	
719.38	5331.5	
719.56	6728.9	
719.74	7954.3	
719.92	5074.2	
720.11	5834	
720.29	6789	
720.47	6145.3	
720.65	4657.8	
720.83	5214.8	
721.02	6338.5	
721.2	6122.1	
721.38	5307	
721.56	4699.4	
721.74	5631.9	
721.92	5764.3	
722.11	5518.6	
722.29	5313.1	
722.47	6792.4	
722.65	6058.6	
722.83	4620.2	
723.01	5267.4	
723.2	6098.9	
723.38	6401.3	
723.56	4164.9	
723.74	5087.8	
723.92	5779.4	
724.1	6554.2	
724.29	4583.4	
724.47	5452.4	
724.65	5839.4	
724.83	5648.3	
725.01	4401.1	
725.19	5110.4	
725.37	5690.6	
725.56	5697.4	
725.74	4319.2	
725.92	4474.8	
726.1	5693.4	
726.28	5853.1	
726.46	4775.9	
726.64	4522.6	
726.83	5914.5	
727.01	6079.7	
727.19	4294.6	
727.37	4911.7	
727.55	6052.4	
727.73	6371.9	
727.91	4252.9	
728.09	4133.5	
728.28	6408.8	
728.46	6597.9	
728.64	4982.7	
728.82	4846.9	
729	7156.3	
729.18	6700.3	
729.36	4315.8	
729.54	6027.9	
729.72	7430.7	
729.91	6012.2	
730.09	5796.4	
730.27	4829.1	
730.45	5978.7	
730.63	6462	
730.81	5260.5	
730.99	4543.8	
731.17	6840.2	
731.35	5743.9	
731.53	4881.7	
731.71	4648.2	
731.9	6640.2	
732.08	6759.7	
732.26	4855.7	
732.44	4522.6	
732.62	6818.4	
732.8	6372.6	
732.98	5122	
733.16	4440	
733.34	6270.2	
733.52	5403.2	
733.7	4705.5	
733.88	4990.2	
734.07	6231.3	
734.25	6024.4	
734.43	4265.2	
734.61	5444.9	
734.79	7076.4	
734.97	5919.3	
735.15	4428.4	
735.33	4673.5	
735.51	6197.8	
735.69	5956.2	
735.87	5446.2	
736.05	4860.5	
736.23	6032	
736.41	5814.9	
736.59	4693.3	
736.77	4723.3	
736.95	6357.6	
737.13	5922.7	
737.32	4446.1	
737.5	4530.1	
737.68	6761	
737.86	5786.9	
738.04	4233.2	
738.22	5623.7	
738.4	5668.8	
738.58	5939.8	
738.76	4736.3	
738.94	3873.4	
739.12	5756.2	
739.3	5671.5	
739.48	5128.1	
739.66	4885.1	
739.84	5956.2	
740.02	5881.8	
740.2	3993.5	
740.38	4166.9	
740.56	6130.9	
740.74	5274.9	
740.92	4723.3	
741.1	4627.7	
741.28	5708.4	
741.46	5620.3	
741.64	4288.4	
741.82	4758.8	
742	5821.7	
742.18	5702.2	
742.36	4487.1	
742.54	4203.8	
742.72	6201.9	
742.9	5173.2	
743.08	4788.2	
743.26	3872	
743.44	6253.8	
743.62	6109.8	
743.8	4820.9	
743.98	4104.1	
744.16	5948	
744.34	5704.3	
744.52	4701.5	
744.7	4700.8	
744.88	6059.3	
745.06	5623	
745.24	4778.6	
745.42	4782.7	
745.6	6114.6	
745.78	5952.1	
745.96	3801	
746.14	4053.6	
746.32	6673.6	
746.5	5986.2	
746.68	4495.3	
746.86	4111	
747.03	6319.3	
747.21	5085.8	
747.39	4543.1	
747.57	4108.9	
747.75	5709.1	
747.93	5968.5	
748.11	4095.3	
748.29	3954.6	
748.47	6931	
748.65	5535	
748.83	4613.4	
749.01	4427.7	
749.19	5821.7	
749.37	5244.8	
749.55	4333.5	
749.73	4369	
749.91	5616.9	
750.09	5454.4	
750.26	4351.3	
750.44	3932.1	
750.62	5579.3	
750.8	5532.9	
750.98	3852.9	
751.16	4029.7	
751.34	5700.9	
751.52	5133.6	
751.7	4690.5	
751.88	3788.7	
752.06	6060.6	
752.24	5791.7	
752.42	3738.9	
752.59	4009.2	
752.77	5559.6	
752.95	6510.5	
753.13	4642.7	
753.31	4142.4	
753.49	5304.9	
753.67	5622.4	
753.85	4319.8	
754.03	4014	
754.21	5844.2	
754.38	6093.4	
754.56	4134.8	
754.74	3387.3	
754.92	5259.9	
755.1	5807.4	
755.28	3460.4	
755.46	3464.5	
755.64	6361	
755.82	6450.4	
755.99	3674.7	
756.17	3734.1	
756.35	4491.2	
756.53	5634	
756.71	2846.7	
756.89	3611.3	
757.07	5379.3	
757.25	4640.7	
757.42	3981.9	
757.6	4604.5	
757.78	5440.1	
757.96	4724.7	
758.14	3734.1	
758.32	3379.1	
758.5	4281.6	
758.67	4968.4	
758.85	3621.5	
759.03	3739.6	
759.21	5169.8	
759.39	4685.1	
759.57	3307.5	
759.75	4177.2	
759.92	5644.2	
760.1	5150	
760.28	4412.7	
760.46	4698.7	
760.64	4900.8	
760.82	4689.8	
760.99	4353.3	
761.17	3688.4	
761.35	5509	
761.53	4682.3	
761.71	3811.3	
761.89	4311.7	
762.06	5454.4	
762.24	5043.5	
762.42	3821.5	
762.6	3688.4	
762.78	5019.6	
762.96	5506.3	
763.13	4156	
763.31	3913.7	
763.49	5610.1	
763.67	4990.9	
763.85	4515.8	
764.02	4910.3	
764.2	5834.7	
764.38	5149.3	
764.56	3736.2	
764.74	4422.9	
764.91	5881.8	
765.09	5093.3	
765.27	3595.6	
765.45	3375.1	
765.63	6012.2	
765.8	5849	
765.98	3229	
766.16	3444.7	
766.34	4766.3	
766.52	4556.7	
766.69	4202.4	
766.87	3333.4	
767.05	5159.5	
767.23	5678.3	
767.41	3568.9	
767.58	3799.7	
767.76	5559.6	
767.94	5552	
768.12	3611.9	
768.29	4142.4	
768.47	5094.7	
768.65	5687.9	
768.83	3368.9	
769	4126.7	
769.18	4799.8	
769.36	5256.5	
769.54	4203.8	
769.72	3383.2	
769.89	5573.2	
770.07	5552	
770.25	3624.9	
770.43	4562.9	
770.6	6155.5	
770.78	6398.5	
770.96	3732.8	
771.14	4311.7	
771.31	5507.7	
771.49	4934.2	
771.67	3119.1	
771.85	3329.3	
772.02	4402.5	
772.2	4976.6	
772.38	3861.8	
772.55	3524.6	
772.73	5207.3	
772.91	5017.5	
773.09	3708.2	
773.26	3852.9	
773.44	5212.1	
773.62	4872.1	
773.8	3439.9	
773.97	3209.8	
774.15	5251.7	
774.33	4895.3	
774.5	3356.6	
774.68	3528	
774.86	5324	
775.04	4904.2	
775.21	3365.5	
775.39	3358.7	
775.57	5199.8	
775.74	5401.9	
775.92	3276.8	
776.1	3138.9	
776.27	5152	
776.45	6066.8	
776.63	3366.2	
776.81	3088.3	
776.98	4867.3	
777.16	5651	
777.34	3466.5	
777.51	3689.8	
777.69	4840	
777.87	4656.4	
778.04	3589.4	
778.22	3994.2	
778.4	4710.3	
778.57	5219.6	
778.75	2954.5	
778.93	3172.3	
779.1	4532.2	
779.28	4416.8	
779.46	2971.6	
779.64	3351.8	
779.81	5321.3	
779.99	5972.6	
780.17	3960.8	
780.34	3999	
780.52	4932.2	
780.69	5020.9	
780.87	3638.6	
781.05	3273.3	
781.22	4941.1	
781.4	5040.7	
781.58	3317.7	
781.75	2724.5	
781.93	5030.5	
782.11	4450.9	
782.28	4069.3	
782.46	3345.7	
782.64	4402.5	
782.81	5087.8	
782.99	3464.5	
783.17	3416.7	
783.34	4971.8	
783.52	4455	
783.69	3531.4	
783.87	4173.1	
784.05	4440.7	
784.22	4500.1	
784.4	4146.5	
784.58	3600.3	
784.75	5225.1	
784.93	4578.6	
785.1	3378.5	
785.28	3854.3	
785.46	5013.4	
785.63	4480.3	
785.81	3349.1	
785.99	3212.6	
786.16	4690.5	
786.34	4934.2	
786.51	3251.5	
786.69	3575.1	
786.87	4304.8	
787.04	4698	
787.22	3163.4	
787.39	3881.6	
787.57	4528.7	
787.75	5350.7	
787.92	4053.6	
788.1	3944.4	
788.27	4459.8	
788.45	4293.9	
788.63	3790.1	
788.8	2786.6	
788.98	4967.7	
789.15	4216.1	
789.33	2886.3	
789.5	3350.5	
789.68	5257.8	
789.86	5310.4	
790.03	3661.1	
790.21	3261.7	
790.38	5153.4	
790.56	4612	
790.73	3170.3	
790.91	3170.9	
791.09	4485.7	
791.26	5036.6	
791.44	3448.1	
791.61	2895.8	
791.79	4513.7	
791.96	4512.4	
792.14	3089	
792.32	2689.7	
792.49	4489.1	
792.67	4566.3	
792.84	3125.2	
793.02	2917	
793.19	4885.8	
793.37	5428.5	
793.54	2701.3	
793.72	2977.7	
793.89	5362.9	
794.07	4516.5	
794.25	3449.5	
794.42	2757.9	
794.6	5289.9	
794.77	4995.7	
794.95	3659.7	
795.12	3226.2	
795.3	4491.2	
795.47	4959.5	
795.65	3538.9	
795.82	3366.9	
796	4376.5	
796.17	5814.2	
796.35	3280.8	
796.52	3789.4	
796.7	4927.4	
796.87	5014.1	
797.05	3245.3	
797.22	3938.2	
797.4	4982	
797.57	5687.9	
797.75	3360.7	
797.92	3241.3	
798.1	5223	
798.27	4364.9	
798.45	2772.9	
798.62	3008.5	
798.8	4692.6	
798.97	5108.3	
799.15	3563.5	
799.32	3445.4	
799.5	4197.7	
799.67	4743.1	
799.85	3702.7	
800.02	2719.7	
800.2	4490.5	
800.37	4713.1	
800.55	3776.5	
800.72	3240.6	
800.9	5055.1	
801.07	5362.9	
801.25	4193.6	
801.42	3494.5	
801.6	5102.2	
801.77	4830.5	
801.95	3254.2	
802.12	3159.3	
802.29	4858.5	
802.47	4834.6	
802.64	3492.5	
802.82	2720.4	
802.99	4514.4	
803.17	5169.8	
803.34	3378.5	
803.52	3046.7	
803.69	5689.9	
803.87	4249.5	
804.04	3329.3	
804.21	3449.5	
804.39	5346.6	
804.56	4608.6	
804.74	2938.2	
804.91	3533.4	
805.09	4484.4	
805.26	4555.4	
805.44	2966.1	
805.61	3234.4	
805.78	5002.5	
805.96	4937.7	
806.13	3523.2	
806.31	3772.4	
806.48	4104.1	
806.66	4506.2	
806.83	3505.4	
807	3423.5	
807.18	4479.6	
807.35	4730.8	
807.53	3415.3	
807.7	2823.5	
807.87	5348.6	
808.05	4489.1	
808.22	3735.5	
808.4	2849.4	
808.57	4437.3	
808.74	4216.8	
808.92	3177.8	
809.09	3935.5	
809.27	4478.2	
809.44	4869.4	
809.61	2796.2	
809.79	3110.2	
809.96	5436.7	
810.14	5028.4	
810.31	2710.1	
810.48	3304.1	
810.66	4569	
810.83	5058.5	
811.01	3124.5	
811.18	3429	
811.35	5011.4	
811.53	4058.4	
811.7	3747.8	
811.87	3520.5	
812.05	4549.9	
812.22	4453.6	
812.39	3014.6	
812.57	2968.2	
812.74	4562.9	
812.92	5791	
813.09	3348.4	
813.26	3537.5	
813.44	5526.1	
813.61	4418.2	
813.78	2839.2	
813.96	3637.2	
814.13	4575.8	
814.3	4358.8	
814.48	3918.4	
814.65	3275.4	
814.82	5384.1	
815	4297.3	
815.17	3409.2	
815.34	4086.4	
815.52	4410	
815.69	4422.9	
815.87	3323.9	
816.04	3302.7	
816.21	4521.9	
816.38	4088.4	
816.56	3284.9	
816.73	3099.9	
816.9	5578.7	
817.08	5049.6	
817.25	3097.2	
817.42	3753.9	
817.6	4149.2	
817.77	4437.3	
817.94	3383.9	
818.12	3031	
818.29	4367	
818.46	6292.7	
818.64	3201.7	
818.81	2968.9	
818.98	4291.2	
819.16	5948	
819.33	3585.3	
819.5	3423.5	
819.67	4775.9	
819.85	5295.4	
820.02	3323.2	
820.19	3463.8	
820.37	4685.1	
820.54	4364.9	
820.71	3421.5	
820.88	4175.1	
821.06	4648.2	
821.23	4324.6	
821.4	3454.9	
821.58	3452.2	
821.75	4966.3	
821.92	4631.1	
822.09	2790	
822.27	2865.1	
822.44	4500.8	
822.61	4410.6	
822.79	2833	
822.96	5223.7	
823.13	4774.5	
823.3	4214	
823.48	3220.8	
823.65	2914.3	
823.82	5051	
823.99	4148.5	
824.17	3979.2	
824.34	3011.9	
824.51	5711.8	
824.68	4552.6	
824.86	3086.3	
825.03	3441.3	
825.2	4483	
825.37	5329.5	
825.55	3166.2	
825.72	3325.2	
825.89	5758.2	
826.06	5367	
826.24	3300	
826.41	3311.6	
826.58	5349.3	
826.75	4728.1	
826.92	2707.4	
827.1	2915.6	
827.27	7037.5	
827.44	5702.2	
827.61	3139.5	
827.79	3719.8	
827.96	4331.5	
828.13	4517.8	
828.3	3276.8	
828.47	2806.4	
828.65	4711	
828.82	4695.3	
828.99	4057	
829.16	3625.6	
829.34	5080.3	
829.51	4819.6	
829.68	3371.6	
829.85	3390.1	
830.02	5256.5	
830.2	5065.3	
830.37	2654.9	
830.54	3941	
830.71	5638.1	
830.88	4541.7	
831.05	2669.9	
831.23	3052.8	
831.4	5466	
831.57	5915.9	
831.74	3127.9	
831.91	2788.7	
832.09	4812	
832.26	4990.2	
832.43	3153.9	
832.6	3601.7	
832.77	4769.7	
832.94	5349.3	
833.12	2601.6	
833.29	3144.3	
833.46	4489.1	
833.63	6084.5	
833.8	3469.9	
833.97	3223.5	
834.15	5050.3	
834.32	4835.3	
834.49	3369.6	
834.66	3467.9	
834.83	5205.3	
835	4343.7	
835.17	3095.2	
835.35	3078.8	
835.52	4939	
835.69	4824.3	
835.86	3314.3	
836.03	2734.7	
836.2	4990.9	
836.37	4668	
836.55	3175.7	
836.72	3023.5	
836.89	4681	
837.06	5096.7	
837.23	3260.4	
837.4	3477.5	
837.57	5675.6	
837.75	6148	
837.92	2997.5	
838.09	3149.1	
838.26	4651.6	
838.43	5146.5	
838.6	3355.3	
838.77	3016.7	
838.94	5830.6	
839.11	5694.7	
839.29	3211.9	
839.46	2599.6	
839.63	5043.5	
839.8	4768.4	
839.97	3124.5	
840.14	3153.9	
840.31	4924	
840.48	5001.1	
840.65	2675.3	
840.82	3116.3	
841	4924	
841.17	4915.8	
841.34	2937.5	
841.51	2986.6	
841.68	4975.2	
841.85	4732.2	
842.02	3009.1	
842.19	2565.4	
842.36	4868	
842.53	4867.3	
842.7	2923.1	
842.87	3506.1	
843.05	6104.3	
843.22	4786.1	
843.39	2724.5	
843.56	3052.8	
843.73	4635.9	
843.9	5077.6	
844.07	4508.9	
844.24	3812	
844.41	6879.1	
844.58	4417.5	
844.75	2875.3	
844.92	3072	
845.09	5001.1	
845.26	4984.1	
845.43	2898.6	
845.6	3141.6	
845.77	4982.7	
845.94	4813.4	
846.12	3160	
846.29	3364.1	
846.46	5192.3	
846.63	4977.9	
846.8	2887.6	
846.97	3393.5	
847.14	5332.2	
847.31	4975.9	
847.48	3258.3	
847.65	3500	
847.82	5234.6	
847.99	5153.4	
848.16	3761.4	
848.33	3479.5	
848.5	4638.6	
848.67	5353.4	
848.84	2824.1	
849.01	2957.3	
849.18	4573.8	
849.35	4313.7	
849.52	3526.6	
849.69	2837.1	
849.86	5224.4	
850.03	5299.5	
850.2	2901.3	
850.37	3439.9	
850.54	5264.6	
850.71	4730.8	
850.88	3382.6	
851.05	2810.5	
851.22	4911	
851.39	5427.8	
851.56	2725.8	
851.73	3297.2	
851.9	4463.9	
852.07	5192.3	
852.24	3171.6	
852.41	2898.6	
852.58	4931.5	
852.75	4515.1	
852.92	3130	
853.09	2840.5	
853.26	4670.1	
853.43	5328.8	
853.6	2855.6	
853.77	2492.4	
853.94	5422.3	
854.11	4453	
854.28	4153.3	
854.44	3091.1	
854.61	5728.2	
854.78	5228.5	
854.95	2819.4	
855.12	3541.6	
855.29	4116.4	
855.46	5481	
855.63	2934.7	
855.8	3824.9	
855.97	4615.4	
856.14	5260.5	
856.31	3915.7	
856.48	3096.5	
856.65	4677.6	
856.82	4406.5	
856.99	2820.7	
857.16	3078.8	
857.33	5896.8	
857.49	4775.9	
857.66	3058.3	
857.83	3310.9	
858	4797.7	
858.17	4897.4	
858.34	2764.8	
858.51	2919.7	
858.68	5498.8	
858.85	5543.2	
859.02	3320.4	
859.19	3516.4	
859.36	4464.6	
859.52	4485.1	
859.69	2893.8	
859.86	3377.1	
860.03	4462.5	
860.2	5496.1	
860.37	2653.5	
860.54	2947	
860.71	5137	
860.88	5462.6	
861.05	3230.3	
861.21	3605.1	
861.38	5506.3	
861.55	4328.7	
861.72	2678.1	
861.89	3179.8	
862.06	5195	
862.23	5573.2	
862.4	2817.3	
862.56	2995.5	
862.73	5012.1	
862.9	4823.6	
863.07	3306.1	
863.24	2648	
863.41	4375.1	
863.58	4487.1	
863.75	2943.6	
863.91	3294.5	
864.08	5320.6	
864.25	5093.3	
864.42	3501.3	
864.59	3971	
864.76	5667.4	
864.93	4496	
865.09	2828.9	
865.26	3082.9	
865.43	5355.4	
865.6	5570.5	
865.77	2497.8	
865.94	2891.7	
866.1	5341.1	
866.27	5082.4	
866.44	4173.8	
866.61	2805	
866.78	4756.7	
866.95	5066	
867.11	2812.5	
867.28	2587.9	
867.45	5266.7	
867.62	4485.7	
867.79	3269.9	
867.96	2875.3	
868.12	4407.9	
868.29	5118.6	
868.46	2886.3	
868.63	3743	
868.8	5289.2	
868.97	5178.6	
869.13	3019.4	
869.3	3041.2	
869.47	4997.7	
869.64	5193	
869.81	2869.9	
869.97	2878.8	
870.14	4959.5	
870.31	5459.2	
870.48	2809.1	
870.65	3547.1	
870.81	4698	
870.98	4805.9	
871.15	3175.7	
871.32	3007.1	
871.48	5024.3	
871.65	5513.8	
871.82	2823.5	
871.99	3146.4	
872.16	5814.9	
872.32	5294.7	
872.49	2949.8	
872.66	2919	
872.83	5145.9	
872.99	4627	
873.16	3246.7	
873.33	2884.2	
873.5	4846.9	
873.67	4882.4	
873.83	3021.4	
874	3730.7	
874.17	4970.4	
874.34	5679	
874.5	3650.2	
874.67	3478.1	
874.84	5392.3	
875.01	4336.2	
875.17	3941.7	
875.34	2902	
875.51	4916.5	
875.68	5781.4	
875.84	3424.2	
876.01	4089.8	
876.18	5128.1	
876.34	5002.5	
876.51	2858.3	
876.68	2811.2	
876.85	4672.1	
877.01	5338.4	
877.18	4015.4	
877.35	2845.3	
877.52	4962.2	
877.68	4450.2	
877.85	2856.9	
878.02	2839.8	
878.18	4758.1	
878.35	4574.5	
878.52	2321.7	
878.69	3177.1	
878.85	5234.6	
879.02	5097.4	
879.19	3986.7	
879.35	3055.6	
879.52	5085.1	
879.69	5210	
879.86	2583.2	
880.02	3196.2	
880.19	4785.4	
880.36	5698.1	
880.52	3235.1	
880.69	3355.3	
880.86	5244.8	
881.02	5244.2	
881.19	3092.4	
881.36	3081.5	
881.52	5091.3	
881.69	4552	
881.86	3091.1	
882.02	2979.8	
882.19	5280.3	
882.36	6055.8	
882.52	2966.8	
882.69	3977.8	
882.86	4925.4	
883.02	4905.6	
883.19	3434.4	
883.36	3203.7	
883.52	5186.8	
883.69	5800.5	
883.86	2896.5	
884.02	2641.2	
884.19	5210	
884.36	4894.6	
884.52	3168.9	
884.69	3117	
884.86	4601.8	
885.02	5571.8	
885.19	3119.7	
885.36	3247.4	
885.52	4781.3	
885.69	4982.7	
885.86	4040.6	
886.02	3646.7	
886.19	5139.7	
886.35	4691.2	
886.52	3139.5	
886.69	3934.8	
886.85	4455	
887.02	5360.9	
887.19	5360.9	
887.35	5360.9	
887.52	5360.9	
887.68	5360.9	
887.85	5360.9	
888.02	5360.9	
888.18	5360.9	
888.35	5360.9	
888.51	5360.9	
888.68	5360.9	
888.85	5360.9	
889.01	5360.9	
889.18	5360.9	
889.35	5360.9	
889.51	5360.9	
889.68	5360.9	
889.84	5360.9	
890.01	5360.9	
890.17	5360.9	
890.34	5360.9	
890.51	5360.9	
890.67	5360.9	
890.84	5360.9	
891	5360.9	
891.17	5360.9	
891.34	5360.9	
891.5	5360.9	
891.67	5360.9	
891.83	5360.9	
892	5360.9	
892.16	5360.9	
892.33	5360.9	
892.5	5360.9	
892.66	5360.9	
892.83	5360.9	
892.99	5360.9	
893.16	5360.9	
893.32	5360.9	
893.49	5360.9	
893.65	5360.9	
893.82	5360.9	
893.99	5360.9	
894.15	5360.9	
894.32	5360.9	
894.48	5360.9	
894.65	5360.9	
894.81	5360.9	
894.98	5360.9	
895.14	5360.9	
895.31	5360.9	
895.47	5360.9	
895.64	5360.9	
895.81	5360.9	
895.97	5360.9	
896.14	5360.9	
896.3	5360.9	
896.47	5360.9	
896.63	5360.9	
896.8	5360.9	
896.96	5360.9	
897.13	5360.9	
897.29	5360.9	
897.46	5360.9	
897.62	5360.9	
897.79	5360.9	
897.95	5360.9	
898.12	5360.9	
898.28	5360.9	
898.45	5360.9	
898.61	5360.9	
898.78	5360.9	
898.94	5360.9	
899.11	5360.9	
899.27	5360.9	
899.44	5360.9	
899.6	5360.9	
899.77	5360.9	
899.93	5360.9	
900.1	5360.9	
900.26	5360.9	
900.43	5360.9	
900.59	5360.9	
900.76	5360.9	
900.92	5360.9	
901.09	5360.9	
901.25	5360.9	
901.42	5360.9	
901.58	5360.9	
901.75	5360.9	
901.91	5360.9	
902.07	5360.9	
902.24	5360.9	
902.4	5360.9	
902.57	5360.9	
902.73	5360.9	
902.9	5360.9	
903.06	5360.9	
903.23	5360.9	
903.39	5360.9	
903.56	5360.9	
903.72	5360.9	
903.88	5360.9	
904.05	5360.9	
904.21	5360.9	
904.38	5360.9	
904.54	5360.9	
904.71	5360.9	
904.87	5360.9	
905.03	5360.9	
905.2	5360.9	
905.36	5360.9	
905.53	5360.9	
905.69	5360.9	
905.86	5360.9	
906.02	5360.9	
906.18	5360.9	
906.35	5360.9	
906.51	5360.9	
906.68	5360.9	
906.84	5360.9	
907.01	5360.9	
907.17	5360.9	
907.33	5360.9	
907.5	5360.9	
907.66	5360.9	
907.83	5360.9	
907.99	5360.9	
908.15	5360.9	
908.32	5360.9	
908.48	5360.9	
908.65	5360.9	
908.81	5360.9	
908.97	5360.9	
909.14	5360.9	
909.3	5360.9	
909.47	5360.9	
909.63	5360.9	
909.79	5360.9	
909.96	5360.9	
910.12	5360.9	
910.28	5360.9	
910.45	5360.9	
910.61	5360.9	
910.78	5360.9	
910.94	5360.9	
911.1	5360.9	
911.27	5360.9	
911.43	5360.9	
911.59	5360.9	
911.76	5360.9	
911.92	5360.9	
912.08	5360.9	
912.25	5360.9	
912.41	5360.9	
912.57	5360.9	
912.74	5360.9	
912.9	5360.9	
913.07	5360.9	
913.23	5360.9	
913.39	5360.9	
913.56	5360.9	
913.72	5360.9	
913.88	5360.9	
914.05	5360.9	
914.21	5360.9	
914.37	5360.9	
914.54	5360.9	
914.7	5360.9	
914.86	5360.9	
915.03	5360.9	
915.19	5360.9	
