Wavelength	Intensities	
nm	a.u.	
179.22	1757	
179.44	1749.3	
179.65	1764.7	
179.86	1733.9	
180.08	1774.2	
180.29	4149.2	
180.51	3102	
180.72	5102.9	
180.94	5885.9	
181.15	2865.1	
181.37	2823.5	
181.58	4990.2	
181.79	5204.6	
182.01	2926.5	
182.22	3176.4	
182.44	5200.5	
182.65	4435.2	
182.87	3914.4	
183.08	3445.4	
183.29	5463.3	
183.51	4579.3	
183.72	3147	
183.94	4407.9	
184.15	4917.2	
184.37	4853	
184.58	2843.9	
184.79	3683.6	
185.01	4557.4	
185.22	5246.9	
185.44	3949.8	
185.65	3366.9	
185.86	4888.5	
186.08	4473.4	
186.29	2773.6	
186.51	2930.6	
186.72	4575.2	
186.94	5291.3	
187.15	3360	
187.36	3442.6	
187.58	6728.3	
187.79	4916.5	
188.01	3530	
188.22	5425.8	
188.43	5907.7	
188.65	5173.9	
188.86	2924.5	
189.08	3454.9	
189.29	4694.6	
189.5	4766.3	
189.72	3179.8	
189.93	3281.5	
190.15	5327.4	
190.36	6195.8	
190.57	3352.5	
190.79	3355.9	
191	5354.1	
191.22	5338.4	
191.43	3529.3	
191.64	2981.8	
191.86	5554.1	
192.07	5380.7	
192.29	3010.5	
192.5	3208.5	
192.71	5336.3	
192.93	4715.8	
193.14	3191.4	
193.35	3269.2	
193.57	4684.4	
193.78	5276.3	
194	2656.2	
194.21	3127.2	
194.42	4504.8	
194.64	4913.8	
194.85	3427.6	
195.07	3982.6	
195.28	4904.9	
195.49	4311.7	
195.71	4175.8	
195.92	3003.7	
196.13	5065.3	
196.35	5102.2	
196.56	4417.5	
196.78	3489.1	
196.99	6199.9	
197.2	5823.1	
197.42	3834.5	
197.63	3448.8	
197.84	4449.6	
198.06	5104.9	
198.27	3199.6	
198.48	4141	
198.7	4721.3	
198.91	4846.2	
199.13	3515.7	
199.34	3458.3	
199.55	5296	
199.77	4276.2	
199.98	3064.4	
200.19	3460.4	
200.41	4874.8	
200.62	4539.7	
200.83	3587.4	
201.05	3783.3	
201.26	4851.6	
201.47	4588.8	
201.69	3092.4	
201.9	3031.7	
202.11	4864.6	
202.33	5657.2	
202.54	3321.8	
202.76	3685.7	
202.97	4965.6	
203.18	5008	
203.4	3594.2	
203.61	3596.2	
203.82	4937.7	
204.04	4633.9	
204.25	3495.9	
204.46	3403	
204.68	4906.9	
204.89	5100.8	
205.1	3414	
205.32	2988	
205.53	5180	
205.74	5322.7	
205.96	2598.9	
206.17	3521.1	
206.38	5188.9	
206.6	5317.9	
206.81	3999.7	
207.02	3244	
207.24	5083.7	
207.45	5429.8	
207.66	3284.3	
207.88	2864.4	
208.09	5015.5	
208.3	4879.6	
208.52	3039.9	
208.73	3387.3	
208.94	4859.8	
209.15	5450.3	
209.37	3314.3	
209.58	3702	
209.79	5337.7	
210.01	4721.3	
210.22	2785.9	
210.43	2838.5	
210.65	4880.3	
210.86	5163.6	
211.07	3319.1	
211.29	3095.8	
211.5	5137	
211.71	4803.9	
211.93	3069.9	
212.14	3048.1	
212.35	4848.9	
212.56	4958.1	
212.78	3512.9	
212.99	2919.7	
213.2	5636	
213.42	4750.6	
213.63	3170.3	
213.84	3326.6	
214.06	4399.7	
214.27	4485.1	
214.48	3321.8	
214.69	3465.2	
214.91	5442.8	
215.12	5520.6	
215.33	3541.6	
215.55	3834.5	
215.76	5903.6	
215.97	5212.1	
216.18	3423.5	
216.4	3372.3	
216.61	4601.1	
216.82	5287.9	
217.04	3077.4	
217.25	3170.3	
217.46	5413.5	
217.67	5199.1	
217.89	2798.9	
218.1	2844.6	
218.31	4939.7	
218.53	5057.1	
218.74	3234.4	
218.95	3135.4	
219.16	4820.2	
219.38	5642.2	
219.59	3143.6	
219.8	3653.6	
220.01	6155.5	
220.23	4885.1	
220.44	3951.9	
220.65	3041.2	
220.87	4922	
221.08	5375.9	
221.29	2882.2	
221.5	3753.2	
221.72	6426.5	
221.93	4653	
222.14	3506.8	
222.35	4052.2	
222.57	4901.5	
222.78	5208.7	
222.99	3380.5	
223.2	3525.2	
223.42	5141.1	
223.63	5205.3	
223.84	2586.6	
224.05	2600.9	
224.27	6048.3	
224.48	5595.7	
224.69	4029.7	
224.9	3466.5	
225.12	5036.6	
225.33	4803.9	
225.54	2831	
225.75	3156.6	
225.97	4538.3	
226.18	4764.9	
226.39	3328.6	
226.6	3074.7	
226.82	4724.7	
227.03	4566.3	
227.24	3504.1	
227.45	2922.5	
227.67	5267.4	
227.88	5602.6	
228.09	3887	
228.3	3887	
228.52	5255.1	
228.73	4839.4	
228.94	3265.8	
229.15	2911.5	
229.36	4847.5	
229.58	4810.7	
229.79	3283.6	
230	3731.4	
230.21	5717.2	
230.43	4995	
230.64	3439.9	
230.85	3585.3	
231.06	5309	
231.28	5233.9	
231.49	2935.4	
231.7	3387.3	
231.91	5144.5	
232.12	4906.3	
232.34	3014.6	
232.55	3344.3	
232.76	5414.1	
232.97	4973.2	
233.18	3032.4	
233.4	3435.8	
233.61	5038	
233.82	4734.9	
234.03	3239.2	
234.25	3229.6	
234.46	6505.7	
234.67	4904.2	
234.88	3502.7	
235.09	3102	
235.31	5089.2	
235.52	4790.9	
235.73	3422.8	
235.94	2949.1	
236.15	4702.8	
236.37	5808.7	
236.58	3080.8	
236.79	3349.8	
237	5162.9	
237.21	4470.7	
237.43	3571.7	
237.64	2814.6	
237.85	8255.4	
238.06	4556.7	
238.27	3588	
238.48	2930.6	
238.7	5198.4	
238.91	4767	
239.12	3312.2	
239.33	3374.4	
239.54	4586.1	
239.76	4790.2	
239.97	3316.3	
240.18	3321.8	
240.39	5925.5	
240.6	5064.6	
240.82	3480.9	
241.03	2879.4	
241.24	4914.4	
241.45	5584.8	
241.66	3046.7	
241.87	3597.6	
242.09	5522.7	
242.3	5745.9	
242.51	3583.9	
242.72	3270.6	
242.93	5251	
243.14	4797.7	
243.36	3820.8	
243.57	4107.5	
243.78	5575.9	
243.99	5138.4	
244.2	3311.6	
244.41	3094.5	
244.63	4532.8	
244.84	5112.4	
245.05	3525.9	
245.26	3320.4	
245.47	5104.2	
245.68	5185.5	
245.9	4336.9	
246.11	3504.8	
246.32	4724	
246.53	5091.9	
246.74	5195	
246.95	2856.2	
247.16	4566.3	
247.38	4915.1	
247.59	2850.1	
247.8	3362.8	
248.01	4583.4	
248.22	4879.6	
248.43	3022.8	
248.64	3275.4	
248.86	4453.6	
249.07	4681	
249.28	2973.7	
249.49	3440.6	
249.7	5307.7	
249.91	5416.2	
250.12	2876.7	
250.34	2861.7	
250.55	5025	
250.76	4873.5	
250.97	3426.9	
251.18	3452.9	
251.39	5427.1	
251.6	5046.2	
251.81	3487.7	
252.03	3504.8	
252.24	4697.4	
252.45	5274.2	
252.66	2930.6	
252.87	3684.3	
253.08	4940.4	
253.29	6194.4	
253.5	2986.6	
253.72	4044.1	
253.93	4822.3	
254.14	5717.9	
254.35	3175	
254.56	3265.1	
254.77	5109	
254.98	4592.9	
255.19	3177.1	
255.41	3898	
255.62	5018.9	
255.83	5438	
256.04	3564.1	
256.25	3442.6	
256.46	5884.5	
256.67	4624.3	
256.88	3421.5	
257.09	3786	
257.31	4567	
257.52	4615.4	
257.73	4220.2	
257.94	3175	
258.15	4769	
258.36	4861.9	
258.57	3967.6	
258.78	2605	
258.99	5232.6	
259.2	4708.3	
259.41	3185.3	
259.63	3287	
259.84	5546.6	
260.05	5907	
260.26	4067.9	
260.47	3135.4	
260.68	5346.6	
260.89	4827.7	
261.1	3817.4	
261.31	3013.9	
261.52	5421.7	
261.73	5666	
261.95	4070.7	
262.16	3556.6	
262.37	5439.4	
262.58	5487.9	
262.79	4011.3	
263	3264.5	
263.21	4876.2	
263.42	4788.2	
263.63	3298.6	
263.84	3224.9	
264.05	5317.9	
264.26	5634	
264.47	3959.4	
264.69	3535.5	
264.9	5473.5	
265.11	5041.4	
265.32	3130.7	
265.53	3192.1	
265.74	5001.8	
265.95	4411.3	
266.16	3331.4	
266.37	3725.3	
266.58	5039.4	
266.79	4689.8	
267	3131.3	
267.21	2962	
267.42	4531.5	
267.63	4879.6	
267.84	3324.5	
268.06	2882.2	
268.27	5228.5	
268.48	5471.5	
268.69	3188.7	
268.9	3802.4	
269.11	5468.8	
269.32	4474.8	
269.53	3327.3	
269.74	3092.4	
269.95	5113.1	
270.16	4399.7	
270.37	3319.8	
270.58	3796.9	
270.79	4814.8	
271	5276.9	
271.21	3530.7	
271.42	3408.5	
271.63	5103.5	
271.84	4583.4	
272.05	2692.4	
272.26	2990	
272.47	4958.8	
272.68	4997	
272.89	3233.1	
273.11	3691.1	
273.32	4741.7	
273.53	5627.8	
273.74	3590.1	
273.95	3492.5	
274.16	5332.2	
274.37	4933.6	
274.58	3650.2	
274.79	2998.9	
275	4997	
275.21	5401.9	
275.42	4308.9	
275.63	3729.4	
275.84	5091.9	
276.05	6302.3	
276.26	3476.1	
276.47	3265.8	
276.68	4805.9	
276.89	5689.9	
277.1	3714.3	
277.31	2905.4	
277.52	5119.2	
277.73	5347.9	
277.94	2875.3	
278.15	3254.9	
278.36	5065.3	
278.57	4588.8	
278.78	3220.8	
278.99	3572.3	
279.2	4702.1	
279.41	4596.3	
279.62	4157.4	
279.83	2998.2	
280.04	5883.1	
280.25	4544.4	
280.46	4134.2	
280.67	3345.7	
280.88	4629.1	
281.09	5427.8	
281.3	3490.4	
281.51	4289.8	
281.72	4668.7	
281.93	5278.3	
282.14	3145	
282.35	3355.9	
282.56	5301.5	
282.77	5282.4	
282.98	3250.1	
283.19	3919.1	
283.4	6388.3	
283.61	4805.9	
283.82	3033	
284.03	4075.5	
284.24	5036.6	
284.45	5367.7	
284.66	4034.5	
284.87	3895.2	
285.08	5381.4	
285.29	5470.8	
285.5	2946.3	
285.71	3263.1	
285.92	5326.8	
286.12	5863.3	
286.33	4058.4	
286.54	3301.3	
286.75	5309	
286.96	4797	
287.17	3031	
287.38	3990.8	
287.59	4645.5	
287.8	4556.7	
288.01	3241.9	
288.22	3751.2	
288.43	5214.1	
288.64	4432.5	
288.85	3847.5	
289.06	3643.3	
289.27	5266	
289.48	5593	
289.69	4126.7	
289.9	3646.7	
290.11	5433.3	
290.32	4672.8	
290.53	3909.6	
290.74	3590.8	
290.94	5218.2	
291.15	5296	
291.36	3110.9	
291.57	3643.3	
291.78	4741	
291.99	4378.6	
292.2	3064.4	
292.41	3576.4	
292.62	5296.7	
292.83	5168.4	
293.04	4391.5	
293.25	3109.5	
293.46	4777.2	
293.67	5323.4	
293.88	3091.1	
294.09	3033.7	
294.29	4549.9	
294.5	5016.8	
294.71	3320.4	
294.92	3226.9	
295.13	4700.8	
295.34	5794.4	
295.55	2859.6	
295.76	2826.2	
295.97	5190.2	
296.18	5805.3	
296.39	3028.9	
296.6	3183.2	
296.81	5001.1	
297.01	5225.7	
297.22	3263.1	
297.43	3169.6	
297.64	4668.7	
297.85	4592.2	
298.06	2661.7	
298.27	2839.2	
298.48	4947.9	
298.69	4635.2	
298.9	3394.8	
299.11	3066.5	
299.31	4576.5	
299.52	4562.9	
299.73	3678.8	
299.94	3565.5	
300.15	4969.1	
300.36	4586.8	
300.57	3524.6	
300.78	3514.3	
300.99	4803.2	
301.2	4995	
301.4	3168.2	
301.61	3414.6	
301.82	5201.2	
302.03	5200.5	
302.24	3765.5	
302.45	3018	
302.66	5173.9	
302.87	5428.5	
303.08	3139.5	
303.29	4250.2	
303.49	4668	
303.7	4861.2	
303.91	2844.6	
304.12	3999.7	
304.33	4519.2	
304.54	5029.8	
304.75	3173	
304.96	3064.4	
305.16	5132.9	
305.37	5726.8	
305.58	2792.1	
305.79	2912.2	
306	5119.9	
306.21	4405.9	
306.42	3196.2	
306.63	4646.2	
306.83	4771.8	
307.04	5316.5	
307.25	3435.8	
307.46	3449.5	
307.67	4289.8	
307.88	5212.8	
308.09	3138.2	
308.29	3162.7	
308.5	4986.8	
308.71	5335	
308.92	3377.8	
309.13	3054.9	
309.34	4853	
309.55	4783.4	
309.75	3857.7	
309.96	3518.4	
310.17	5258.5	
310.38	4650.3	
310.59	3704.8	
310.8	2982.5	
311.01	4746.5	
311.21	4833.2	
311.42	3061	
311.63	3131.3	
311.84	4730.1	
312.05	4956.1	
312.26	3502	
312.46	3757.3	
312.67	4790.2	
312.88	4528.7	
313.09	3048.1	
313.3	3020.1	
313.51	5543.9	
313.71	5789.6	
313.92	3041.9	
314.13	3178.4	
314.34	5014.8	
314.55	4815.5	
314.76	3861.1	
314.96	3341.6	
315.17	5027.8	
315.38	5256.5	
315.59	3106.8	
315.8	2904.7	
316.01	5552.7	
316.21	5652.4	
316.42	2962.7	
316.63	3367.5	
316.84	4723.3	
317.05	5446.9	
317.26	3583.9	
317.46	3271.3	
317.67	4803.2	
317.88	5240.8	
318.09	3801	
318.3	2867.2	
318.5	4697.4	
318.71	5100.8	
318.92	4777.2	
319.13	3616.7	
319.34	5283.8	
319.54	5421	
319.75	2860.3	
319.96	2742.2	
320.17	5193	
320.38	5326.1	
320.58	2849.4	
320.79	3295.2	
321	5322.7	
321.21	5485.8	
321.42	3406.5	
321.62	2831	
321.83	4580.6	
322.04	4874.8	
322.25	3239.2	
322.46	3077.4	
322.66	4956.1	
322.87	5069.4	
323.08	3678.8	
323.29	2985.3	
323.5	5797.8	
323.7	4502.1	
323.91	4055	
324.12	3681.6	
324.33	4993.6	
324.53	5155.4	
324.74	3536.8	
324.95	3700	
325.16	4446.8	
325.37	4790.9	
325.57	3084.2	
325.78	3151.8	
325.99	4955.4	
326.2	4463.9	
326.4	4328	
326.61	2793.4	
326.82	4868.7	
327.03	5013.4	
327.24	4255	
327.44	3990.8	
327.65	5109	
327.86	4262.5	
328.07	3587.4	
328.27	2966.8	
328.48	5475.6	
328.69	4584	
328.9	4283	
329.1	3219.4	
329.31	4796.3	
329.52	5509.7	
329.73	3022.8	
329.93	3357.3	
330.14	4906.9	
330.35	5070.8	
330.56	4870.8	
330.76	3704.1	
330.97	4739.7	
331.18	5008	
331.39	3371	
331.59	2764.8	
331.8	5365.7	
332.01	5411.4	
332.22	3146.4	
332.42	3581.9	
332.63	4990.9	
332.84	4669.4	
333.05	3441.3	
333.25	3108.1	
333.46	4728.8	
333.67	4912.4	
333.88	3202.3	
334.08	3519.1	
334.29	6312.5	
334.5	5403.9	
334.7	2996.2	
334.91	4225.6	
335.12	4562.9	
335.33	5204.6	
335.53	3366.9	
335.74	4848.9	
335.95	4784.1	
336.16	4533.5	
336.36	3422.2	
336.57	3815.4	
336.78	4505.5	
336.98	5371.8	
337.19	4072	
337.4	3320.4	
337.61	5808.7	
337.81	4521.9	
338.02	3127.2	
338.23	3962.1	
338.43	5511.1	
338.64	4657.8	
338.85	3081.5	
339.05	3895.2	
339.26	5596.4	
339.47	4487.1	
339.68	3082.9	
339.88	4445.5	
340.09	5112.4	
340.3	5304.9	
340.5	3523.9	
340.71	2808.4	
340.92	4515.1	
341.13	5447.6	
341.33	2976.4	
341.54	3566.2	
341.75	5091.9	
341.95	4799.8	
342.16	3388.7	
342.37	3685	
342.57	4545.1	
342.78	4874.8	
342.99	3745.1	
343.19	2773.6	
343.4	5173.2	
343.61	5073.5	
343.81	3291.1	
344.02	2976.4	
344.23	5242.1	
344.43	5489.9	
344.64	3717.7	
344.85	3715	
345.06	5141.8	
345.26	5415.5	
345.47	3523.2	
345.68	4016.7	
345.88	4444.8	
346.09	5303.6	
346.3	3553.9	
346.5	2762	
346.71	4810	
346.92	4676.9	
347.12	2856.2	
347.33	3484.3	
347.54	5299.5	
347.74	5626.5	
347.95	3434.4	
348.16	2689	
348.36	4730.8	
348.57	4552.6	
348.78	3487	
348.98	3708.9	
349.19	4818.9	
349.39	4448.2	
349.6	2831	
349.81	3092.4	
350.01	5125.4	
350.22	4662.5	
350.43	3388.7	
350.63	4016.1	
350.84	4908.3	
351.05	4684.4	
351.25	3063.1	
351.46	2809.8	
351.67	5270.8	
351.87	4606.6	
352.08	3286.3	
352.29	3705.5	
352.49	5250.3	
352.7	5304.2	
352.9	3018	
353.11	3618.8	
353.32	5690.6	
353.52	4734.2	
353.73	2939.5	
353.94	3673.4	
354.14	5079	
354.35	4917.9	
354.55	3037.1	
354.76	3300	
354.97	5105.6	
355.17	4859.8	
355.38	2938.8	
355.59	3953.9	
355.79	4649.6	
356	4878.9	
356.2	3384.6	
356.41	2934.7	
356.62	4409.3	
356.82	4766.3	
357.03	3568.2	
357.24	3250.1	
357.44	4618.9	
357.65	4687.8	
357.85	4173.1	
358.06	3336.1	
358.27	4385.4	
358.47	4582	
358.68	2858.3	
358.88	3567.6	
359.09	5052.3	
359.3	5350	
359.5	4041.3	
359.71	3626.3	
359.91	5658.5	
360.12	5091.9	
360.33	3553.9	
360.53	3923.9	
360.74	4631.1	
360.94	4674.8	
361.15	3668.6	
361.36	3076	
361.56	5238	
361.77	4795	
361.97	4021.5	
362.18	3244.7	
362.38	5297.4	
362.59	4391.5	
362.8	3022.1	
363	2940.2	
363.21	4321.9	
363.41	4859.1	
363.62	3442	
363.83	4230.4	
364.03	5036	
364.24	5635.3	
364.44	4246.1	
364.65	4305.5	
364.85	4749.9	
365.06	4488.5	
365.27	3136.8	
365.47	3152.5	
365.68	5522	
365.88	4696	
366.09	3445.4	
366.29	3147	
366.5	4865.3	
366.71	5248.9	
366.91	4284.4	
367.12	3615.3	
367.32	5735.7	
367.53	5157.5	
367.73	3590.8	
367.94	4360.8	
368.14	5127.4	
368.35	5770.5	
368.56	3513.6	
368.76	3066.5	
368.97	5238.7	
369.17	6496.2	
369.38	3101.3	
369.58	3373	
369.79	4418.8	
369.99	5563	
370.2	4210.6	
370.4	3426.3	
370.61	4979.3	
370.82	5870.2	
371.02	3394.8	
371.23	2867.8	
371.43	4400.4	
371.64	5477	
371.84	3418.7	
372.05	4292.5	
372.25	6425.2	
372.46	5138.4	
372.66	3326.6	
372.87	3358.7	
373.07	5138.4	
373.28	6465.4	
373.48	4147.1	
373.69	3864.5	
373.9	4743.1	
374.1	4810.7	
374.31	4116.4	
374.51	3693.2	
374.72	5412.8	
374.92	4573.8	
375.13	4177.9	
375.33	3599.6	
375.54	5079.6	
375.74	4689.8	
375.95	3708.9	
376.15	4603.8	
376.36	5102.9	
376.56	5036	
376.77	3678.8	
376.97	3986	
377.18	5943.9	
377.38	5220.3	
377.59	4239.3	
377.79	3288.4	
378	4972.5	
378.2	5327.4	
378.41	3373.7	
378.61	3198.2	
378.82	5425.1	
379.02	4693.9	
379.23	3469.3	
379.43	4325.3	
379.64	5461.2	
379.84	5105.6	
380.05	3340.2	
380.25	3295.2	
380.46	5233.9	
380.66	4891.9	
380.87	4367	
381.07	4636.6	
381.28	5710.4	
381.48	5190.9	
381.69	3368.2	
381.89	3362.1	
382.1	4400.4	
382.3	5313.8	
382.51	4220.2	
382.71	4922	
382.91	5175.9	
383.12	5642.2	
383.32	3644.7	
383.53	3842.7	
383.73	5112.4	
383.94	4944.5	
384.14	3800.3	
384.35	3118.4	
384.55	4859.8	
384.76	5240.1	
384.96	3646.7	
385.17	3906.2	
385.37	5283.1	
385.58	4638	
385.78	3872.7	
385.98	2994.8	
386.19	4856.4	
386.39	5155.4	
386.6	3419.4	
386.8	3615.3	
387.01	5167	
387.21	5169.8	
387.42	3966.2	
387.62	4422.2	
387.83	4706.2	
388.03	5104.9	
388.23	3699.3	
388.44	4211.3	
388.64	4390.2	
388.85	4501.4	
389.05	3895.2	
389.26	4407.9	
389.46	6105.7	
389.67	5558.9	
389.87	3951.2	
390.07	3927.3	
390.28	4889.9	
390.48	4627.7	
390.69	3345.7	
390.89	3553.9	
391.1	4755.4	
391.3	5485.1	
391.5	4510.3	
391.71	5079	
391.91	5315.8	
392.12	6039.5	
392.32	4586.1	
392.53	3923.9	
392.73	4825	
392.93	4882.4	
393.14	3686.3	
393.34	4330.8	
393.55	5250.3	
393.75	4854.4	
393.95	3715	
394.16	3658.4	
394.36	4764.9	
394.57	5330.9	
394.77	3282.9	
394.98	3551.2	
395.18	4662.5	
395.38	4870.8	
395.59	4336.2	
395.79	3463.8	
396	4819.6	
396.2	5214.8	
396.4	4067.9	
396.61	4023.6	
396.81	5306.3	
397.02	4700.8	
397.22	4311	
397.42	4358.1	
397.63	5364.3	
397.83	4709	
398.04	3312.2	
398.24	3808.5	
398.44	5151.3	
398.65	4751.3	
398.85	3274.7	
399.05	3314.3	
399.26	4717.8	
399.46	5988.9	
399.67	3618.1	
399.87	3459.7	
400.07	4951.3	
400.28	5264.6	
400.48	3494.5	
400.69	4326	
400.89	5453.7	
401.09	5852.4	
401.3	3463.1	
401.5	4271.4	
401.7	5902.2	
401.91	6176.7	
402.11	3771	
402.32	3960.8	
402.52	5523.4	
402.72	5425.8	
402.93	4122.6	
403.13	3240.6	
403.33	6040.8	
403.54	5036	
403.74	3852.2	
403.94	4558.1	
404.15	5126.7	
404.35	6001.2	
404.56	3661.1	
404.76	5085.8	
404.96	5488.6	
405.17	5255.1	
405.37	4885.8	
405.57	4078.9	
405.78	5442.1	
405.98	5072.8	
406.18	3666.5	
406.39	4323.3	
406.59	5464	
406.79	5142.4	
407	3515	
407.2	3591.5	
407.4	5507.7	
407.61	5608	
407.81	3561.4	
408.01	5066	
408.22	4543.1	
408.42	6173.9	
408.62	4377.9	
408.83	3973.7	
409.03	5061.9	
409.23	4950.6	
409.44	4054.3	
409.64	4161.5	
409.84	5844.9	
410.05	5739.8	
410.25	4167.6	
410.45	3940.3	
410.66	5350	
410.86	7357.7	
411.06	4272.7	
411.27	4188.8	
411.47	7083.9	
411.67	5473.5	
411.88	4385.4	
412.08	4495.3	
412.28	5946.6	
412.49	6349.4	
412.69	4180.6	
412.89	4179.9	
413.09	6232	
413.3	6088.6	
413.5	4265.9	
413.7	3911.6	
413.91	5589.6	
414.11	6244.9	
414.31	4101.4	
414.52	4475.5	
414.72	5954.8	
414.92	5862.7	
415.12	4133.5	
415.33	4540.3	
415.53	6126.2	
415.73	6235.4	
415.94	4792.9	
416.14	4369	
416.34	5361.6	
416.55	5253	
416.75	5410.1	
416.95	4842.1	
417.15	6208.8	
417.36	6709.1	
417.56	5512.4	
417.76	4758.1	
417.97	6426.5	
418.17	6199.9	
418.37	4469.4	
418.57	4448.9	
418.78	6120	
418.98	5872.9	
419.18	5129.5	
419.38	5113.1	
419.59	5753.4	
419.79	5479.7	
419.99	4343.1	
420.2	4606.6	
420.4	6182.1	
420.6	6303	
420.8	4302.1	
421.01	4169	
421.21	6044.2	
421.41	6177.4	
421.61	4681.7	
421.82	4363.5	
422.02	5741.8	
422.22	6434.7	
422.42	4956.1	
422.63	4766.3	
422.83	5828.5	
423.03	6770.6	
423.23	4771.1	
423.44	3951.2	
423.64	5836.7	
423.84	5624.4	
424.04	4339	
424.25	4060.4	
424.45	6530.3	
424.65	6531	
424.85	3922.5	
425.06	4304.1	
425.26	6669.6	
425.46	5702.2	
425.66	4708.3	
425.87	4500.1	
426.07	6310.5	
426.27	6236.7	
426.47	4588.8	
426.67	4077.5	
426.88	6613.6	
427.08	6227.2	
427.28	4809.3	
427.48	4022.2	
427.69	5388.9	
427.89	5874.3	
428.09	4676.9	
428.29	4065.2	
428.5	6394.4	
428.7	5967.8	
428.9	3949.2	
429.1	4410.6	
429.3	5982.8	
429.51	6182.1	
429.71	4255.7	
429.91	4913.8	
430.11	6214.2	
430.31	6294.8	
430.52	4511.7	
430.72	4676.2	
430.92	6666.8	
431.12	6108.4	
431.32	4170.3	
431.53	4584	
431.73	5382.1	
431.93	6715.3	
432.13	4178.5	
432.33	4020.2	
432.54	5746.6	
432.74	5976	
432.94	4018.1	
433.14	4915.8	
433.34	6260.6	
433.55	5767.1	
433.75	4840	
433.95	6243.6	
434.15	6049	
434.35	5791.7	
434.56	4203.8	
434.76	3727.3	
434.96	5971.9	
435.16	6197.2	
435.36	4052.2	
435.56	4911.7	
435.77	5717.2	
435.97	5831.2	
436.17	5512.4	
436.37	4897.4	
436.57	5716.6	
436.78	5631.9	
436.98	6361.7	
437.18	5427.1	
437.38	6207.4	
437.58	5816.2	
437.78	5477	
437.99	4450.2	
438.19	6330.3	
438.39	6913.3	
438.59	4418.8	
438.79	4016.1	
438.99	6787.7	
439.2	5769.8	
439.4	4080.2	
439.6	4007.2	
439.8	6050.4	
440	6908.5	
440.2	4878.3	
440.4	4898.7	
440.61	6404.7	
440.81	6770.6	
441.01	4197.7	
441.21	4950.6	
441.41	6817	
441.61	6405.4	
441.81	5233.2	
442.02	5971.9	
442.22	7148.1	
442.42	6544.6	
442.62	4311	
442.82	4346.5	
443.02	6789.7	
443.22	6102.3	
443.43	4693.9	
443.63	4256.4	
443.83	5900.9	
444.03	5889.3	
444.23	5296	
444.43	4939	
444.63	6186.9	
444.83	7083.9	
445.04	4436.6	
445.24	5419.6	
445.44	6526.9	
445.64	6537.1	
445.84	5157.5	
446.04	5103.5	
446.24	5977.3	
446.44	6778.8	
446.65	4382	
446.85	4737	
447.05	6227.9	
447.25	6798.6	
447.45	4810.7	
447.65	4283.7	
447.85	6194.4	
448.05	5916.6	
448.25	5126.7	
448.46	4913.1	
448.66	6184.9	
448.86	6003.3	
449.06	4121.2	
449.26	5080.3	
449.46	6487.3	
449.66	5726.8	
449.86	4670.1	
450.06	4676.2	
450.26	5909.1	
450.47	6337.8	
450.67	4902.8	
450.87	5204.6	
451.07	6499.6	
451.27	6235.4	
451.47	4378.6	
451.67	4786.1	
451.87	5976	
452.07	6931.7	
452.27	4608.6	
452.47	4517.1	
452.67	6222.4	
452.88	6604.7	
453.08	4107.5	
453.28	5570.5	
453.48	7156.3	
453.68	6138.4	
453.88	4482.3	
454.08	4595	
454.28	6507.8	
454.48	6203.3	
454.68	5098.1	
454.88	5375.2	
455.08	6663.4	
455.28	6309.1	
455.48	4387.4	
455.68	4777.2	
455.89	6971.3	
456.09	6627.2	
456.29	4684.4	
456.49	4743.1	
456.69	6875	
456.89	6227.9	
457.09	5068	
457.29	5373.2	
457.49	6568.5	
457.69	6597.2	
457.89	4934.2	
458.09	4425	
458.29	6447.7	
458.49	6920.1	
458.69	5285.8	
458.89	4753.3	
459.09	7106.5	
459.29	7157	
459.49	4956.1	
459.69	5541.8	
459.9	6864.1	
460.1	6394.4	
460.3	4813.4	
460.5	4653.7	
460.7	6756.2	
460.9	6419	
461.1	4375.1	
461.3	5426.4	
461.5	7264.8	
461.7	6941.9	
461.9	4674.8	
462.1	5097.4	
462.3	6513.2	
462.5	6985.6	
462.7	4800.4	
462.9	4807.9	
463.1	7806.2	
463.3	7490.8	
463.5	5025	
463.7	5737.7	
463.9	6753.5	
464.1	6956.9	
464.3	5044.1	
464.5	5283.1	
464.7	7209.5	
464.9	6921.5	
465.1	6371.9	
465.3	5627.8	
465.5	7544	
465.7	7355.6	
465.9	5825.1	
466.1	5653.8	
466.3	7208.2	
466.5	7198.6	
466.7	6363.7	
466.9	5474.2	
467.1	7176.1	
467.3	7862.2	
467.5	6252.4	
467.7	5344.5	
467.9	8099.7	
468.1	8692.9	
468.3	6043.6	
468.5	6352.8	
468.7	7142.6	
468.9	7083.9	
469.1	5600.5	
469.3	6255.2	
469.5	8762.6	
469.7	6832	
469.9	6134.3	
470.1	5436.7	
470.3	7275.8	
470.5	7210.9	
470.7	6528.9	
470.9	5504.9	
471.1	6967.2	
471.3	7428.7	
471.5	5423	
471.69	6957.6	
471.89	6985.6	
472.09	6531	
472.29	6034	
472.49	6353.5	
472.69	6687.3	
472.89	7293.5	
473.09	5321.3	
473.29	5502.9	
473.49	6863.4	
473.69	6861.4	
473.89	6155.5	
474.09	5541.1	
474.29	7897	
474.49	7658	
474.69	6195.1	
474.89	5637.4	
475.09	7006.1	
475.29	6952.9	
475.49	5281.7	
475.69	5362.3	
475.88	8222.6	
476.08	7292.8	
476.28	5179.3	
476.48	5481.7	
476.68	7616.4	
476.88	7354.9	
477.08	5481	
477.28	5657.9	
477.48	7038.9	
477.68	7516.7	
477.88	5204.6	
478.08	5561.6	
478.28	7783.6	
478.48	7095.5	
478.67	5556.8	
478.87	5152.7	
479.07	7626	
479.27	7189.7	
479.47	5698.1	
479.67	5623	
479.87	7471.7	
480.07	7869.7	
480.27	5150	
480.47	6404.7	
480.67	7168.6	
480.87	7737.2	
481.06	5312.4	
481.26	6035.4	
481.46	7197.9	
481.66	7107.8	
481.86	5792.3	
482.06	6528.9	
482.26	6961	
482.46	7698.3	
482.66	5672.2	
482.86	5306.3	
483.05	7348.8	
483.25	6724.2	
483.45	7602.7	
483.65	5639.4	
483.85	6862.7	
484.05	7191.8	
484.25	6019.7	
484.45	6382.2	
484.65	7742.7	
484.84	7836.2	
485.04	5661.3	
485.24	5545.9	
485.44	8160.5	
485.64	6652.5	
485.84	5085.8	
486.04	6203.3	
486.24	6994.5	
486.44	7357.7	
486.63	5001.8	
486.83	5702.2	
487.03	6982.9	
487.23	7077.8	
487.43	5181.4	
487.63	7017.7	
487.83	7222.5	
488.02	7929.7	
488.22	5893.4	
488.42	6347.3	
488.62	7828.7	
488.82	6929	
489.02	5656.5	
489.22	5626.5	
489.41	7738.6	
489.61	7481.9	
489.81	5440.8	
490.01	5408.7	
490.21	7698.3	
490.41	8219.2	
490.61	5438.7	
490.8	5522	
491	7344	
491.2	6818.4	
491.4	6032.6	
491.6	5340.4	
491.8	7399.3	
491.99	7339.2	
492.19	5159.5	
492.39	5453.1	
492.59	7677.2	
492.79	7691.5	
492.99	6148.7	
493.18	5371.1	
493.38	7856.7	
493.58	8335.2	
493.78	5986.9	
493.98	5603.9	
494.18	7558.4	
494.37	7109.9	
494.57	6180.1	
494.77	6063.4	
494.97	7729.7	
495.17	7955	
495.37	5745.9	
495.56	6032.6	
495.76	8137.3	
495.96	7762.5	
496.16	6765.8	
496.36	5930.2	
496.55	8042.4	
496.75	7560.4	
496.95	6303	
497.15	6064	
497.35	8047.8	
497.54	8011.7	
497.74	6003.3	
497.94	7337.2	
498.14	8495	
498.34	8306.6	
498.53	5702.2	
498.73	6292.7	
498.93	7393.2	
499.13	7923.6	
499.33	6268.1	
499.52	6552.8	
499.72	8049.2	
499.92	8230.8	
500.12	5958.2	
500.32	6154.1	
500.51	8180.3	
500.71	8010.3	
500.91	6859.3	
501.11	6456.6	
501.31	8085.4	
501.5	8501.1	
501.7	7090.1	
501.9	6255.2	
502.1	7994.6	
502.29	8247.2	
502.49	6638.8	
502.69	7032.7	
502.89	8202.1	
503.09	8198.7	
503.28	5941.8	
503.48	5969.8	
503.68	7587.7	
503.88	7498.3	
504.07	6752.8	
504.27	6328.2	
504.47	7875.8	
504.67	7998.7	
504.86	6700.3	
505.06	6394.4	
505.26	7686.7	
505.46	8967.4	
505.65	6318.7	
505.85	6538.5	
506.05	7639.6	
506.25	7934.5	
506.44	5839.4	
506.64	6547.4	
506.84	7507.9	
507.04	8236.2	
507.23	5965.1	
507.43	6342.6	
507.63	9054.1	
507.83	7664.9	
508.02	6411.5	
508.22	6124.8	
508.42	9318.9	
508.62	7417.7	
508.81	6552.1	
509.01	6731.7	
509.21	7395.2	
509.4	7688.1	
509.6	6479.8	
509.8	5963.7	
510	7578.2	
510.19	8696.4	
510.39	5920.7	
510.59	6006.7	
510.79	7443.7	
510.98	8582.4	
511.18	6085.2	
511.38	6146	
511.57	8155.7	
511.77	7958.4	
511.97	6685.3	
512.17	5991.7	
512.36	8166.6	
512.56	8084	
512.76	5971.2	
512.95	5717.9	
513.15	8235.6	
513.35	7058	
513.55	6619	
513.74	5989.6	
513.94	8245.8	
514.14	7643.7	
514.33	6698.9	
514.53	6539.2	
514.73	7690.1	
514.92	7731.8	
515.12	6139.1	
515.32	6006.7	
515.51	7858.1	
515.71	8211	
515.91	7467.6	
516.11	5998.5	
516.3	9258.9	
516.5	7605.5	
516.7	6515.3	
516.89	6938.5	
517.09	7696.3	
517.29	7615.7	
517.48	7000.6	
517.68	6281.1	
517.88	7473.7	
518.07	7957.7	
518.27	6664.8	
518.47	5857.2	
518.66	8426	
518.86	7260.7	
519.06	5808	
519.25	6161.7	
519.45	7612.3	
519.65	8685.4	
519.84	6662.7	
520.04	7228.6	
520.24	9097.8	
520.43	8153	
520.63	6506.4	
520.83	6281.1	
521.02	7551.5	
521.22	8005.5	
521.42	6673.6	
521.61	7083.2	
521.81	7697.6	
522.01	7863.5	
522.2	6559	
522.4	6364.4	
522.6	8320.2	
522.79	7209.5	
522.99	6394.4	
523.18	5849.7	
523.38	8057.4	
523.58	7992.5	
523.77	7421.2	
523.97	5906.3	
524.17	9497.8	
524.36	8764.6	
524.56	6957.6	
524.76	6728.9	
524.95	8038.3	
525.15	7765.2	
525.34	6542.6	
525.54	6657.3	
525.74	8380.3	
525.93	7640.3	
526.13	7575.4	
526.33	6673.6	
526.52	8699.1	
526.72	8359.1	
526.91	7677.8	
527.11	7023.2	
527.31	8703.9	
527.5	9108	
527.7	7026.6	
527.89	6169.2	
528.09	7935.9	
528.29	8338.6	
528.48	7330.4	
528.68	6930.3	
528.87	8650.6	
529.07	8699.1	
529.27	6990.4	
529.46	6674.3	
529.66	8509.3	
529.85	8808.3	
530.05	6513.9	
530.25	7136.5	
530.44	9572.9	
530.64	8402.8	
530.83	6872.3	
531.03	7018.4	
531.23	8779	
531.42	8655.4	
531.62	7613	
531.81	6982.2	
532.01	8870.4	
532.21	9299.1	
532.4	6832	
532.6	7077.8	
532.79	9734	
532.99	9052.7	
533.18	7185	
533.38	8047.2	
533.58	8717.5	
533.77	9215.9	
533.97	7243.7	
534.16	7897.7	
534.36	9458.2	
534.55	8724.3	
534.75	8026	
534.95	7273	
535.14	9498.5	
535.34	8716.2	
535.53	7014.3	
535.73	8603.5	
535.92	9869.2	
536.12	8881.4	
536.31	7162.4	
536.51	8188.5	
536.71	9198.8	
536.9	8765.3	
537.1	7291.5	
537.29	7436.9	
537.49	9521.7	
537.68	8698.4	
537.88	7656.7	
538.07	7090.8	
538.27	8959.9	
538.46	9779.1	
538.66	6961.7	
538.86	7394.5	
539.05	9022	
539.25	9408.4	
539.44	7644.4	
539.64	7301	
539.83	8982.4	
540.03	9729.2	
540.22	7180.9	
540.42	7316	
540.61	9137.4	
540.81	9178.3	
541	7674.4	
541.2	8159.1	
541.39	8690.2	
541.59	9080	
541.78	7942.7	
541.98	7213.6	
542.18	8413.1	
542.37	8374.8	
542.57	7462.1	
542.76	7979.6	
542.96	8587.1	
543.15	9052.7	
543.35	7585.7	
543.54	7000.6	
543.74	9264.3	
543.93	8986.5	
544.13	7529	
544.32	8430.1	
544.52	9237	
544.71	8534.6	
544.91	6780.8	
545.1	7728.4	
545.3	8598.7	
545.49	9052	
545.69	6731	
545.88	7131	
546.08	9973.6	
546.27	9534.7	
546.47	7585.7	
546.66	6995.2	
546.86	9339.4	
547.05	9790	
547.24	7175.4	
547.44	7100.3	
547.63	8512	
547.83	9393.3	
548.02	7477.1	
548.22	7514.7	
548.41	8359.1	
548.61	9462.3	
548.8	7012.2	
549	7015	
549.19	8940.7	
549.39	9192	
549.58	6789	
549.78	7301	
549.97	9090.3	
550.17	8784.4	
550.36	7905.8	
550.55	8727.8	
550.75	8722.3	
550.94	9382.4	
551.14	7000.6	
551.33	7342.7	
551.53	8233.5	
551.72	9092.3	
551.92	7215.7	
552.11	7191.8	
552.31	9019.3	
552.5	9004.9	
552.69	8468.4	
552.89	6827.2	
553.08	9044.5	
553.28	8751.7	
553.47	7139.2	
553.67	7937.9	
553.86	9541.5	
554.06	8087.4	
554.25	6497.5	
554.44	6937.2	
554.64	9998.2	
554.83	9714.2	
555.03	6856.6	
555.22	7248.4	
555.42	9229.5	
555.61	8912.8	
555.8	7098.3	
556	7189.1	
556.19	8178.2	
556.39	9188.6	
556.58	7132.4	
556.78	7097.6	
556.97	8791.2	
557.16	8608.3	
557.36	8079.9	
557.55	6802.7	
557.75	8001.4	
557.94	9491	
558.13	6920.1	
558.33	6625.9	
558.52	9278.7	
558.72	8418.5	
558.91	6758.3	
559.1	7034.1	
559.3	8144.8	
559.49	7970.7	
559.69	6552.8	
559.88	7321.5	
560.07	8716.2	
560.27	9110	
560.46	7430.7	
560.66	7518.1	
560.85	8683.4	
561.04	7924.3	
561.24	6755.6	
561.43	6911.9	
561.63	8153	
561.82	8460.8	
562.01	7871	
562.21	7103	
562.4	8748.2	
562.59	9445.9	
562.79	6946	
562.98	6754.9	
563.18	8647.2	
563.37	9911.5	
563.56	7414.3	
563.76	6715.3	
563.95	8256	
564.14	8240.3	
564.34	7000	
564.53	6805.4	
564.73	8672.5	
564.92	8852.7	
565.11	7170.6	
565.31	6650.4	
565.5	9204.9	
565.69	8187.1	
565.89	6881.9	
566.08	7109.2	
566.27	8973.5	
566.47	9275.3	
566.66	7576.1	
566.85	6502.3	
567.05	8761.2	
567.24	8247.9	
567.44	6825.2	
567.63	7855.3	
567.82	8961.9	
568.02	8654.7	
568.21	6759	
568.4	7191.1	
568.6	8654	
568.79	8557.1	
568.98	6621.8	
569.18	6731	
569.37	8533.2	
569.56	10174	
569.76	7043.6	
569.95	7886.7	
570.14	8885.5	
570.34	8815.8	
570.53	6765.1	
570.72	6598.6	
570.91	9241.1	
571.11	8491.6	
571.3	7040.2	
571.49	7846.5	
571.69	8574.8	
571.88	8219.9	
572.07	7434.8	
572.27	7496.2	
572.46	8249.2	
572.65	8965.3	
572.85	6898.2	
573.04	7169.3	
573.23	9140.1	
573.43	8612.4	
573.62	6658.6	
573.81	7167.9	
574	8692.9	
574.2	8593.3	
574.39	6941.9	
574.58	7090.1	
574.78	9325.8	
574.97	8658.8	
575.16	7408.2	
575.36	7556.3	
575.55	9013.8	
575.74	9183.8	
575.93	6739.2	
576.13	7582.9	
576.32	8557.8	
576.51	9101.2	
576.71	6979.5	
576.9	8056.7	
577.09	9312.8	
577.28	8880.7	
577.48	7389.8	
577.67	6663.4	
577.86	8671.8	
578.05	8910.7	
578.25	7163.1	
578.44	7180.9	
578.63	8766	
578.83	9706.7	
579.02	6634.1	
579.21	7836.9	
579.4	8869.1	
579.6	8625.4	
579.79	7219.1	
579.98	8898.4	
580.17	9101.9	
580.37	9242.5	
580.56	6825.9	
580.75	7443.7	
580.94	9483.5	
581.14	9484.8	
581.33	7713.3	
581.52	6961.7	
581.71	9013.8	
581.91	9607	
582.1	6704.4	
582.29	7185.6	
582.48	8688.2	
582.68	8642.4	
582.87	7473	
583.06	7255.3	
583.25	9112.1	
583.45	8459.5	
583.64	7777.5	
583.83	8272.4	
584.02	8700.5	
584.21	8886.1	
584.41	7722.2	
584.6	7144	
584.79	8783.7	
584.98	9225.4	
585.18	6794.5	
585.37	6815.6	
585.56	8403.5	
585.75	9035.6	
585.94	6984.9	
586.14	7505.8	
586.33	9549.7	
586.52	8653.4	
586.71	7320.1	
586.91	7099.6	
587.1	8196.7	
587.29	9000.1	
587.48	7088	
587.67	7019.8	
587.87	8865.7	
588.06	8848.6	
588.25	8051.9	
588.44	7471.7	
588.63	8600.8	
588.83	9047.9	
589.02	7044.3	
589.21	6946	
589.4	8540	
589.59	8457.4	
589.78	6356.2	
589.98	6565.8	
590.17	8056.7	
590.36	8442.4	
590.55	6047.7	
590.74	6730.3	
590.94	9432.9	
591.13	8301.8	
591.32	6447.7	
591.51	6038.8	
591.7	8523.6	
591.89	8230.8	
592.09	6121.4	
592.28	6563.7	
592.47	7604.1	
592.66	9148.3	
592.85	6210.1	
593.05	6424.5	
593.24	8140	
593.43	8748.9	
593.62	6403.3	
593.81	6808.1	
594	8114.1	
594.19	8283.4	
594.39	6285.9	
594.58	6248.4	
594.77	8419.2	
594.96	8796.7	
595.15	6335.7	
595.34	6787.7	
595.54	8341.4	
595.73	7749.5	
595.92	5791.7	
596.11	6723.5	
596.3	8790.6	
596.49	7771.4	
596.68	6447	
596.88	6780.8	
597.07	8537.3	
597.26	7570	
597.45	6189	
597.64	7023.2	
597.83	7760.4	
598.02	8305.9	
598.22	6109.8	
598.41	6712.6	
598.6	8175.5	
598.79	7712.7	
598.98	6230.6	
599.17	6901.7	
599.36	8246.5	
599.55	9024	
599.74	7856	
599.94	7612.3	
600.13	8619.2	
600.32	7681.2	
600.51	6005.3	
600.7	6137.8	
600.89	9007.6	
601.08	9156.5	
601.27	6021.7	
601.47	6663.4	
601.66	8474.5	
601.85	9005.6	
602.04	6422.4	
602.23	6630.6	
602.42	7791.8	
602.61	8295.6	
602.8	6332.3	
602.99	6204	
603.18	8005.5	
603.37	8163.9	
603.57	6737.1	
603.76	7059.3	
603.95	8731.9	
604.14	8456.1	
604.33	6205.3	
604.52	6492.7	
604.71	8120.9	
604.9	7845.8	
605.09	7013.6	
605.28	6832.7	
605.47	8625.4	
605.66	8322.3	
605.86	6756.2	
606.05	6239.5	
606.24	8712.7	
606.43	7410.9	
606.62	6559.6	
606.81	7122.8	
607	8526.4	
607.19	7961.8	
607.38	6093.4	
607.57	6319.3	
607.76	7764.5	
607.95	7309.2	
608.14	6599.2	
608.33	7075.7	
608.52	7739.3	
608.72	8450.6	
608.91	5999.2	
609.1	5865.4	
609.29	7856.7	
609.48	7395.9	
609.67	6756.2	
609.86	5948.7	
610.05	7501	
610.24	7731.8	
610.43	5849	
610.62	5498.1	
610.81	8746.2	
611	8445.8	
611.19	5917.9	
611.38	6558.3	
611.57	8057.4	
611.76	8947.6	
611.95	5786.9	
612.14	5669.5	
612.33	7795.3	
612.52	7483.3	
612.71	6231.3	
612.9	5549.3	
613.09	7071.6	
613.28	8994	
613.47	6138.4	
613.66	6746	
613.85	7968.6	
614.04	7530.4	
614.24	5981.4	
614.43	5386.8	
614.62	8065.6	
614.81	7952.3	
615	6466.8	
615.19	6435.4	
615.38	7456.7	
615.57	7740	
615.76	6417	
615.95	7040.9	
616.14	8049.9	
616.33	7767.9	
616.52	6691.4	
616.71	6788.3	
616.9	7952.3	
617.09	7815.7	
617.28	6070.9	
617.47	6940.6	
617.66	7344	
617.85	7322.9	
618.04	6743.3	
618.22	6280.4	
618.41	7599.3	
618.6	8379.6	
618.79	6299.6	
618.98	6052.4	
619.17	8464.3	
619.36	7114.6	
619.55	6177.4	
619.74	6204	
619.93	7997.3	
620.12	7501	
620.31	6646.3	
620.5	6754.9	
620.69	8443.8	
620.88	8761.9	
621.07	7354.9	
621.26	6602	
621.45	8084.7	
621.64	8079.9	
621.83	6606.1	
622.02	5990.3	
622.21	8133.8	
622.4	8014.4	
622.59	7159.7	
622.78	6967.2	
622.97	7621.9	
623.16	8500.4	
623.35	6660.7	
623.54	5935	
623.72	7799.3	
623.91	7968	
624.1	6858.6	
624.29	5778	
624.48	8822.6	
624.67	8167.3	
624.86	6821.1	
625.05	6032.6	
625.24	8895	
625.43	7680.6	
625.62	8165.3	
625.81	6122.7	
626	8415.8	
626.19	7870.3	
626.38	6827.9	
626.56	6321.4	
626.75	7709.9	
626.94	8331.1	
627.13	6855.2	
627.32	5840.8	
627.51	8240.3	
627.7	9211.1	
627.89	5948	
628.08	6775.4	
628.27	7591.1	
628.46	7754.3	
628.65	6074.3	
628.83	5830.6	
629.02	8218.5	
629.21	7675.8	
629.4	6492.7	
629.59	6494.8	
629.78	7610.3	
629.97	8386.4	
630.16	6686.6	
630.35	6282.5	
630.54	8824.7	
630.72	8477.9	
630.91	6247.7	
631.1	6685.3	
631.29	8043.1	
631.48	8191.9	
631.67	6815	
631.86	6316.6	
632.05	7794.6	
632.24	7773.4	
632.42	6016.9	
632.61	6524.1	
632.8	7902.4	
632.99	7469.6	
633.18	6554.2	
633.37	6796.5	
633.56	8107.2	
633.75	7944.8	
633.93	6488	
634.12	6219.7	
634.31	8770.8	
634.5	8431.5	
634.69	6356.9	
634.88	6741.2	
635.07	7905.2	
635.25	8279.9	
635.44	7062.1	
635.63	7165.2	
635.82	7666.2	
636.01	7327.6	
636.2	7016.3	
636.39	6666.8	
636.57	8662.2	
636.76	8370.7	
636.95	6126.2	
637.14	7313.3	
637.33	8098.4	
637.52	8777.6	
637.7	6034	
637.89	6868.2	
638.08	7908.6	
638.27	8827.4	
638.46	6782.2	
638.65	7135.8	
638.83	8945.5	
639.02	7639.6	
639.21	6716	
639.4	7095.5	
639.59	8020.5	
639.78	7739.3	
639.96	6151.4	
640.15	6163	
640.34	7961.8	
640.53	7933.1	
640.72	5986.9	
640.91	6133	
641.09	7477.8	
641.28	8379.6	
641.47	6194.4	
641.66	6878.4	
641.85	7978.2	
642.03	8150.9	
642.22	6615.6	
642.41	6189	
642.6	7529.7	
642.79	6968.6	
642.97	6087.2	
643.16	6587	
643.35	7484.6	
643.54	7230.7	
643.73	5976.7	
643.91	6703	
644.1	7227.3	
644.29	7744.1	
644.48	6034	
644.67	6035.4	
644.85	7349.5	
645.04	7626	
645.23	5768.4	
645.42	5967.1	
645.6	7262.1	
645.79	8168.7	
645.98	5871.5	
646.17	5175.9	
646.36	7034.1	
646.54	7510.6	
646.73	6530.3	
646.92	5612.8	
647.11	7181.5	
647.29	7980.3	
647.48	5638.7	
647.67	5457.2	
647.86	8051.2	
648.05	8121.6	
648.23	5901.6	
648.42	6841.6	
648.61	7649.2	
648.8	7441.6	
648.98	5598.5	
649.17	5831.9	
649.36	7115.3	
649.55	6664.1	
649.73	5686.5	
649.92	6189.6	
650.11	7008.8	
650.3	7344.7	
650.48	5741.8	
650.67	5468.1	
650.86	7579.5	
651.05	6671.6	
651.23	5683.8	
651.42	5708.4	
651.61	7092.1	
651.79	7081.2	
651.98	5779.4	
652.17	5497.4	
652.36	7396.6	
652.54	6701	
652.73	5556.1	
652.92	5463.3	
653.11	7423.2	
653.29	7444.4	
653.48	5012.1	
653.67	5761.6	
653.85	7243.7	
654.04	7999.4	
654.23	5957.5	
654.42	5546.6	
654.6	6782.9	
654.79	7299	
654.98	5158.8	
655.16	5564.3	
655.35	6547.4	
655.54	6362.4	
655.73	5219.6	
655.91	5043.5	
656.1	7288.7	
656.29	6265.4	
656.47	4767	
656.66	6087.9	
656.85	6676.4	
657.03	6595.8	
657.22	5221	
657.41	5244.8	
657.59	6698.9	
657.78	6499.6	
657.97	4923.3	
658.16	5530.9	
658.34	7277.8	
658.53	7567.9	
658.72	6245.6	
658.9	6714.6	
659.09	6879.8	
659.28	6959.7	
659.46	5353.4	
659.65	5298.8	
659.84	6681.2	
660.02	7152.2	
660.21	5368.4	
660.4	5143.1	
660.58	7427.3	
660.77	6846.4	
660.96	5702.9	
661.14	4878.3	
661.33	7820.5	
661.52	7680.6	
661.7	4815.5	
661.89	7701.7	
662.08	6651.8	
662.26	6197.2	
662.45	5101.5	
662.64	5238	
662.82	7167.9	
663.01	6464.1	
663.2	5214.1	
663.38	5745.2	
663.57	7082.6	
663.75	6943.3	
663.94	5520	
664.13	6453.1	
664.31	6587.6	
664.5	7131	
664.69	5663.3	
664.87	6022.4	
665.06	6359.6	
665.25	6971.3	
665.43	6238.8	
665.62	6277	
665.8	7212.3	
665.99	6631.3	
666.18	5504.9	
666.36	5500.2	
666.55	7124.9	
666.74	7029.3	
666.92	5159.5	
667.11	6470.2	
667.29	6737.1	
667.48	7109.2	
667.67	6085.2	
667.85	5279.7	
668.04	6649.1	
668.22	6604.7	
668.41	5488.6	
668.6	5623.7	
668.78	6487.3	
668.97	6747.4	
669.15	5709.7	
669.34	4894.6	
669.53	6578.1	
669.71	6778.8	
669.9	5054.4	
670.08	5580	
670.27	6429.3	
670.46	6964.5	
670.64	5681.1	
670.83	5934.3	
671.01	6354.2	
671.2	6883.9	
671.38	5094	
671.57	5023	
671.76	7377.5	
671.94	7781.6	
672.13	4958.1	
672.31	5787.6	
672.5	7040.2	
672.69	6425.8	
672.87	5107	
673.06	5329.5	
673.24	6930.3	
673.43	6435.4	
673.61	5610.8	
673.8	5352.7	
673.98	7050.5	
674.17	7165.8	
674.36	5853.1	
674.54	5704.3	
674.73	6784.9	
674.91	7065.5	
675.1	5375.9	
675.28	5132.9	
675.47	6670.9	
675.65	7144.7	
675.84	5382.1	
676.03	5572.5	
676.21	6467.5	
676.4	6106.4	
676.58	5970.5	
676.77	5805.3	
676.95	7694.2	
677.14	6414.9	
677.32	5023.7	
677.51	4864.6	
677.69	7131.7	
677.88	6239.5	
678.06	4937.7	
678.25	5072.1	
678.44	6701	
678.62	6450.4	
678.81	4855.1	
678.99	5663.3	
679.18	7330.4	
679.36	6997.2	
679.55	5250.3	
679.73	5830.6	
679.92	6871.6	
680.1	6507.1	
680.29	6257.9	
680.47	5265.3	
680.66	6522.1	
680.84	7177.4	
681.03	4783.4	
681.21	5674.9	
681.4	6513.9	
681.58	6408.1	
681.77	5136.3	
681.95	5091.9	
682.14	7192.5	
682.32	7451.2	
682.51	5794.4	
682.69	4972.5	
682.88	6468.9	
683.06	6926.9	
683.25	5696.8	
683.43	6001.2	
683.62	6718.7	
683.8	7034.1	
683.99	6140.5	
684.17	5421	
684.36	7717.4	
684.54	6625.2	
684.73	4906.3	
684.91	5047.6	
685.1	6886.6	
685.28	6394.4	
685.46	5465.3	
685.65	5540.4	
685.83	7002.7	
686.02	6492.7	
686.2	4997	
686.39	5157.5	
686.57	6167.8	
686.76	7427.3	
686.94	5084.4	
687.13	5244.2	
687.31	6832	
687.5	6523.5	
687.68	4776.5	
687.86	5723.4	
688.05	7978.2	
688.23	6110.5	
688.42	5756.2	
688.6	5111	
688.79	6554.9	
688.97	6532.3	
689.16	5477	
689.34	4656.4	
689.52	7120.1	
689.71	7327.6	
689.89	5724.1	
690.08	5096	
690.26	6743.3	
690.45	6553.5	
690.63	5866.7	
690.81	5378.6	
691	6630.6	
691.18	6495.5	
691.37	5477.6	
691.55	7111.9	
691.74	6457.2	
691.92	8094.9	
692.1	5470.1	
692.29	4992.3	
692.47	6647	
692.66	6105	
692.84	5208.7	
693.02	5498.1	
693.21	6207.4	
693.39	6662	
693.58	5705	
693.76	5315.2	
693.94	7564.5	
694.13	7434.8	
694.31	5198.4	
694.5	6122.1	
694.68	6477	
694.86	6914.6	
695.05	5497.4	
695.23	5950	
695.42	7210.2	
695.6	8946.9	
695.78	6047	
695.97	5374.6	
696.15	7208.8	
696.34	6665.5	
696.52	5282.4	
696.7	5964.4	
696.89	7049.8	
697.07	6490.7	
697.25	5800.5	
697.44	6987	
697.62	7103	
697.81	7345.4	
697.99	5578	
698.17	5997.8	
698.36	6588.3	
698.54	7067.5	
698.72	5901.6	
698.91	5059.2	
699.09	6754.9	
699.28	6632	
699.46	5605.3	
699.64	5479	
699.83	6674.3	
700.01	7554.3	
700.19	6153.5	
700.38	4927.4	
700.56	7587	
700.74	6602.7	
700.93	5277.6	
701.11	5909.1	
701.29	7171.3	
701.48	8023.3	
701.66	5469.4	
701.84	5532.9	
702.03	6858.6	
702.21	7430.7	
702.39	5225.1	
702.58	5706.3	
702.76	7251.9	
702.94	7298.3	
703.13	5173.2	
703.31	7148.8	
703.49	6674.3	
703.68	7856	
703.86	5400.5	
704.04	6204.7	
704.23	7171.3	
704.41	7464.8	
704.59	5580.7	
704.78	6470.2	
704.96	8032.8	
705.14	7490.1	
705.33	5367	
705.51	6017.6	
705.69	6988.4	
705.87	7645.8	
706.06	6184.9	
706.24	5351.3	
706.42	7371.3	
706.61	7486	
706.79	6352.1	
706.97	5457.8	
707.16	6860.7	
707.34	7258.7	
707.52	6257.2	
707.7	5601.9	
707.89	7012.9	
708.07	6715.3	
708.25	6325.5	
708.44	6376	
708.62	6866.8	
708.8	7778.9	
708.98	6550.1	
709.17	5673.6	
709.35	7265.5	
709.53	7231.4	
709.72	5432.6	
709.9	5787.6	
710.08	7426.6	
710.26	7580.2	
710.45	6754.9	
710.63	5701.5	
710.81	7202.7	
710.99	7189.7	
711.18	6180.1	
711.36	5902.9	
711.54	7121.5	
711.72	7613	
711.91	5947.3	
712.09	5422.3	
712.27	7243	
712.45	8066.9	
712.64	6110.5	
712.82	5270.1	
713	6782.9	
713.18	6909.2	
713.37	5338.4	
713.55	6349.4	
713.73	7643.7	
713.91	6459.3	
714.1	5620.3	
714.28	5158.8	
714.46	7231.4	
714.64	6565.8	
714.83	4751.3	
715.01	5345.2	
715.19	6641.6	
715.37	6040.8	
715.55	4978.6	
715.74	5248.3	
715.92	7217	
716.1	5633.3	
716.28	6110.5	
716.47	5311.7	
716.65	6255.9	
716.83	6216.3	
717.01	5201.2	
717.19	5196.4	
717.38	7911.3	
717.56	5957.5	
717.74	5350	
717.92	4740.4	
718.1	6963.1	
718.29	6381.5	
718.47	4431.1	
718.65	5013.4	
718.83	6988.4	
719.01	6864.1	
719.2	4458.4	
719.38	5317.9	
719.56	6741.9	
719.74	7967.3	
719.92	5001.8	
720.11	5783.5	
720.29	6742.6	
720.47	6042.9	
720.65	4685.8	
720.83	5306.3	
721.02	6340.5	
721.2	6173.3	
721.38	5294	
721.56	4721.9	
721.74	5679.7	
721.92	5832.6	
722.11	5657.2	
722.29	5459.9	
722.47	6884.6	
722.65	6124.8	
722.83	4700.8	
723.01	5351.3	
723.2	6247.7	
723.38	6488	
723.56	4216.8	
723.74	5221	
723.92	5876.3	
724.1	6726.9	
724.29	4656.4	
724.47	5572.5	
724.65	5949.3	
724.83	5840.8	
725.01	4539.7	
725.19	5211.4	
725.37	5874.3	
725.56	5881.1	
725.74	4474.1	
725.92	4678.9	
726.1	5842.2	
726.28	6141.2	
726.46	4918.5	
726.64	4649.6	
726.83	6032	
727.01	6283.9	
727.19	4475.5	
727.37	5096	
727.55	6126.2	
727.73	6539.8	
727.91	4390.8	
728.09	4341.7	
728.28	6598.6	
728.46	6804	
728.64	5160.9	
728.82	5149.3	
729	7430.7	
729.18	6808.8	
729.36	4543.1	
729.54	6292	
729.72	7615.7	
729.91	6343.9	
730.09	6137.1	
730.27	5076.9	
730.45	6208.8	
730.63	6744	
730.81	5549.3	
730.99	4796.3	
731.17	7187.7	
731.35	6012.8	
731.53	5304.2	
731.71	4946.5	
731.9	6893.5	
732.08	6983.6	
732.26	5122	
732.44	4859.8	
732.62	7147.4	
732.8	6698.2	
732.98	5490.6	
733.16	4718.5	
733.34	6657.9	
733.52	5715.9	
733.7	5072.8	
733.88	5287.9	
734.07	6528.2	
734.25	6353.5	
734.43	4597	
734.61	5801.9	
734.79	7580.9	
734.97	6232	
735.15	4738.3	
735.33	4984.8	
735.51	6506.4	
735.69	6235.4	
735.87	6109.8	
736.05	5085.8	
736.23	6292.7	
736.41	6085.2	
736.59	4962.9	
736.77	5066	
736.95	6692.8	
737.13	6233.3	
737.32	4692.6	
737.5	4895.3	
737.68	7125.6	
737.86	6101.6	
738.04	4581.3	
738.22	5868.8	
738.4	5953.4	
738.58	6174.6	
738.76	5039.4	
738.94	4221.5	
739.12	6105.7	
739.3	5934.3	
739.48	5509.7	
739.66	5345.9	
739.84	6275.7	
740.02	6266.8	
740.2	4251.6	
740.38	4524.6	
740.56	6552.8	
740.74	5626.5	
740.92	5083.1	
741.1	4977.2	
741.28	6092.7	
741.46	5833.3	
741.64	4693.3	
741.82	5052.3	
742	6105	
742.18	6083.8	
742.36	4852.3	
742.54	4516.5	
742.72	6548	
742.9	5525.4	
743.08	5139	
743.26	4184	
743.44	6607.4	
743.62	6513.2	
743.8	5201.8	
743.98	4502.1	
744.16	6321.4	
744.34	5986.2	
744.52	5167	
744.7	5089.9	
744.88	6406	
745.06	6025.1	
745.24	5129.5	
745.42	5243.5	
745.6	6462	
745.78	6274.3	
745.96	4297.3	
746.14	4422.2	
746.32	7015.7	
746.5	6406.7	
746.68	4870.1	
746.86	4478.9	
747.03	6679.8	
747.21	5436.7	
747.39	4840	
747.57	4468.7	
747.75	6044.9	
747.93	6378.7	
748.11	4344.4	
748.29	4299.4	
748.47	7352.9	
748.65	5836.7	
748.83	4973.2	
749.01	4739	
749.19	6244.3	
749.37	5481.7	
749.55	4701.5	
749.73	4745.8	
749.91	5959.6	
750.09	5768.4	
750.26	4736.3	
750.44	4250.2	
750.62	5951.4	
750.8	5963	
750.98	4164.2	
751.16	4416.8	
751.34	5971.9	
751.52	5444.9	
751.7	5051.7	
751.88	4077.5	
752.06	6407.4	
752.24	6223.1	
752.42	4055	
752.59	4367	
752.77	5832.6	
752.95	6860.7	
753.13	4913.1	
753.31	4446.1	
753.49	5636.7	
753.67	5981.4	
753.85	4693.3	
754.03	4307.6	
754.21	6194.4	
754.38	6494.1	
754.56	4379.9	
754.74	3640.6	
754.92	5498.8	
755.1	6114.6	
755.28	3676.1	
755.46	3748.5	
755.64	6669.6	
755.82	6770.6	
755.99	3886.4	
756.17	3931.4	
756.35	4692.6	
756.53	5959.6	
756.71	3036.5	
756.89	3729.4	
757.07	5591	
757.25	4900.8	
757.42	4245.4	
757.6	4878.3	
757.78	5702.2	
757.96	4838	
758.14	3960.1	
758.32	3593.5	
758.5	4463.9	
758.67	5251	
758.85	3805.8	
759.03	3918.4	
759.21	5304.9	
759.39	4869.4	
759.57	3504.8	
759.75	4410	
759.92	5909.8	
760.1	5367	
760.28	4730.8	
760.46	4894.6	
760.64	5098.8	
760.82	4939.7	
760.99	4410.6	
761.17	3917.1	
761.35	5838.1	
761.53	4868.7	
761.71	4009.2	
761.89	4610.7	
762.06	5657.9	
762.24	5311.7	
762.42	4126.7	
762.6	3916.4	
762.78	5295.4	
762.96	5787.6	
763.13	4453	
763.31	4151.2	
763.49	5780.1	
763.67	5249.6	
763.85	4815.5	
764.02	5213.4	
764.2	6144.6	
764.38	5442.1	
764.56	4005.8	
764.74	4762.9	
764.91	6224.5	
765.09	5339.1	
765.27	3786	
765.45	3573.7	
765.63	6276.3	
765.8	6103.6	
765.98	3462.4	
766.16	3653.6	
766.34	4969.1	
766.52	4785.4	
766.69	4401.1	
766.87	3529.3	
767.05	5300.8	
767.23	5902.2	
767.41	3806.5	
767.58	3943.7	
767.76	5715.9	
767.94	5808	
768.12	3850.9	
768.29	4416.1	
768.47	5289.2	
768.65	5877	
768.83	3489.7	
769	4463.9	
769.18	5016.2	
769.36	5606.7	
769.54	4418.8	
769.72	3517	
769.89	5767.1	
770.07	5809.4	
770.25	3846.8	
770.43	4866.7	
770.6	6373.3	
770.78	6684.6	
770.96	3994.9	
771.14	4527.4	
771.31	5677	
771.49	5212.8	
771.67	3267.2	
771.85	3511.6	
772.02	4573.8	
772.2	5195.7	
772.38	4108.2	
772.55	3620.1	
772.73	5349.3	
772.91	5167	
773.09	3968.3	
773.26	4035.2	
773.44	5395	
773.62	5081	
773.8	3614.7	
773.97	3416.7	
774.15	5381.4	
774.33	5088.5	
774.5	3500	
774.68	3764.8	
774.86	5526.8	
775.04	5103.5	
775.21	3595.6	
775.39	3553.9	
775.57	5281.7	
775.74	5567.1	
775.92	3437.9	
776.1	3289.7	
776.27	5300.1	
776.45	6290.7	
776.63	3528	
776.81	3196.2	
776.98	4951.3	
777.16	5819	
777.34	3624.9	
777.51	3932.8	
777.69	4950.6	
777.87	4861.2	
778.04	3718.4	
778.22	4178.5	
778.4	4830.5	
778.57	5331.5	
778.75	3115.6	
778.93	3330	
779.1	4748.6	
779.28	4569	
779.46	3070.6	
779.64	3485	
779.81	5461.2	
779.99	6182.8	
780.17	4177.9	
780.34	4277.5	
780.52	5047.6	
780.69	5183.4	
780.87	3814.7	
781.05	3471.3	
781.22	5124.7	
781.4	5145.9	
781.58	3541.6	
781.75	2848.7	
781.93	5150.6	
782.11	4609.3	
782.28	4291.9	
782.46	3486.3	
782.64	4506.2	
782.81	5285.8	
782.99	3659.7	
783.17	3572.3	
783.34	5136.3	
783.52	4567.7	
783.69	3730.7	
783.87	4369.7	
784.05	4669.4	
784.22	4618.9	
784.4	4334.9	
784.58	3771.7	
784.75	5413.5	
784.93	4715.1	
785.1	3503.4	
785.28	4046.8	
785.46	5216.9	
785.63	4566.3	
785.81	3500.7	
785.99	3391.4	
786.16	4778.6	
786.34	5068.7	
786.51	3349.8	
786.69	3733.4	
786.87	4426.3	
787.04	4835.9	
787.22	3325.9	
787.39	4076.8	
787.57	4644.8	
787.75	5500.2	
787.92	4212.7	
788.1	4197.7	
788.27	4596.3	
788.45	4444.1	
788.63	3966.9	
788.8	2937.5	
788.98	5012.1	
789.15	4316.4	
789.33	3035.8	
789.5	3487	
789.68	5367.7	
789.86	5493.3	
790.03	3856.3	
790.21	3384.6	
790.38	5398.4	
790.56	4705.5	
790.73	3272.7	
790.91	3339.6	
791.09	4638.6	
791.26	5197.7	
791.44	3537.5	
791.61	3028.9	
791.79	4657.1	
791.96	4636.6	
792.14	3156.6	
792.32	2834.4	
792.49	4611.3	
792.67	4754	
792.84	3293.8	
793.02	3045.3	
793.19	4989.5	
793.37	5522.7	
793.54	2825.5	
793.72	3104.7	
793.89	5615.5	
794.07	4597.7	
794.25	3463.1	
794.42	2906.8	
794.6	5466.7	
794.77	5108.3	
794.95	3837.2	
795.12	3290.4	
795.3	4633.2	
795.47	5107	
795.65	3687.7	
795.82	3520.5	
796	4528.7	
796.17	5972.6	
796.35	3399.6	
796.52	4005.8	
796.7	5098.8	
796.87	5141.8	
797.05	3386.7	
797.22	4121.2	
797.4	5089.9	
797.57	5884.5	
797.75	3564.1	
797.92	3310.9	
798.1	5385.5	
798.27	4440.7	
798.45	2936.8	
798.62	3137.5	
798.8	4860.5	
798.97	5274.2	
799.15	3738.9	
799.32	3624.2	
799.5	4270	
799.67	4846.2	
799.85	3831.1	
800.02	2881.5	
800.2	4556.7	
800.37	4762.9	
800.55	3960.1	
800.72	3329.3	
800.9	5236.7	
801.07	5563	
801.25	4436.6	
801.42	3649.5	
801.6	5296	
801.77	4892.6	
801.95	3454.9	
802.12	3259.7	
802.29	4984.8	
802.47	4890.5	
802.64	3682.9	
802.82	2792.7	
802.99	4530.1	
803.17	5386.2	
803.34	3540.9	
803.52	3211.2	
803.69	5855.1	
803.87	4416.1	
804.04	3510.2	
804.21	3565.5	
804.39	5475.6	
804.56	4782.7	
804.74	3117	
804.91	3675.4	
805.09	4599.1	
805.26	4640.7	
805.44	3074	
805.61	3362.8	
805.78	5128.8	
805.96	5151.3	
806.13	3628.3	
806.31	3915.7	
806.48	4233.2	
806.66	4685.1	
806.83	3678.8	
807	3607.2	
807.18	4629.1	
807.35	4870.1	
807.53	3516.4	
807.7	2907.4	
807.87	5549.3	
808.05	4597	
808.22	3902.7	
808.4	2917.7	
808.57	4549.9	
808.74	4313	
808.92	3263.8	
809.09	4084.3	
809.27	4567	
809.44	4985.4	
809.61	2937.5	
809.79	3199.6	
809.96	5545.2	
810.14	5197.1	
810.31	2869.2	
810.48	3457	
810.66	4648.9	
810.83	5288.5	
811.01	3282.9	
811.18	3581.2	
811.35	5229.8	
811.53	4136.2	
811.7	3911.6	
811.87	3661.8	
812.05	4671.4	
812.22	4562.9	
812.39	3199.6	
812.57	3084.9	
812.74	4670.1	
812.92	5967.8	
813.09	3459	
813.26	3713	
813.44	5695.4	
813.61	4490.5	
813.78	2897.2	
813.96	3791.5	
814.13	4650.9	
814.3	4364.2	
814.48	4121.2	
814.65	3402.4	
814.82	5545.9	
815	4405.9	
815.17	3493.2	
815.34	4239.3	
815.52	4567.7	
815.69	4539.7	
815.87	3457.7	
816.04	3432.4	
816.21	4541.7	
816.38	4138.9	
816.56	3370.3	
816.73	3217.4	
816.9	5711.8	
817.08	5183.4	
817.25	3209.8	
817.42	3887.7	
817.6	4246.8	
817.77	4574.5	
817.94	3599	
818.12	3133.4	
818.29	4407.2	
818.46	6501.6	
818.64	3306.1	
818.81	3125.2	
818.98	4364.9	
819.16	6072.9	
819.33	3729.4	
819.5	3517	
819.67	4904.9	
819.85	5373.2	
820.02	3464.5	
820.19	3634.5	
820.37	4801.1	
820.54	4502.8	
820.71	3594.2	
820.88	4397.7	
821.06	4804.5	
821.23	4455	
821.4	3567.6	
821.58	3508.9	
821.75	5143.8	
821.92	4717.2	
822.09	2946.3	
822.27	2985.9	
822.44	4650.9	
822.61	4553.3	
822.79	2894.5	
822.96	5405.3	
823.13	4869.4	
823.3	4352.6	
823.48	3307.5	
823.65	2987.3	
823.82	5251.7	
823.99	4280.9	
824.17	4200.4	
824.34	3111.5	
824.51	5881.8	
824.68	4632.5	
824.86	3177.8	
825.03	3511.6	
825.2	4588.8	
825.37	5429.8	
825.55	3147.7	
825.72	3495.9	
825.89	5969.8	
826.06	5526.8	
826.24	3452.2	
826.41	3407.1	
826.58	5473.5	
826.75	4809.3	
826.92	2787.3	
827.1	2985.3	
827.27	7243	
827.44	5849.7	
827.61	3272.7	
827.79	3922.5	
827.96	4420.2	
828.13	4616.8	
828.3	3371.6	
828.47	2885.6	
828.65	4869.4	
828.82	4792.9	
828.99	4317.1	
829.16	3792.2	
829.34	5188.9	
829.51	4949.9	
829.68	3505.4	
829.85	3581.9	
830.02	5429.8	
830.2	5133.6	
830.37	2761.3	
830.54	4161.5	
830.71	5842.9	
830.88	4588.8	
831.05	2758.6	
831.23	3238.5	
831.4	5558.9	
831.57	6093.4	
831.74	3304.7	
831.91	2843.9	
832.09	4868.7	
832.26	5100.8	
832.43	3366.9	
832.6	3717.7	
832.77	4869.4	
832.94	5412.8	
833.12	2734.7	
833.29	3308.2	
833.46	4906.9	
833.63	6302.3	
833.8	3644.7	
833.97	3321.8	
834.15	5182	
834.32	5013.4	
834.49	3448.1	
834.66	3519.1	
834.83	5267.4	
835	4433.2	
835.17	3258.3	
835.35	3257	
835.52	5080.3	
835.69	4989.5	
835.86	3409.2	
836.03	2860.3	
836.2	5130.8	
836.37	4832.5	
836.55	3305.4	
836.72	3101.3	
836.89	4784.7	
837.06	5229.1	
837.23	3377.1	
837.4	3710.9	
837.57	5833.3	
837.75	6358.3	
837.92	3090.4	
838.09	3248.8	
838.26	4766.3	
838.43	5347.9	
838.6	3539.6	
838.77	3102	
838.94	6077.7	
839.11	5879.7	
839.29	3382.6	
839.46	2697.9	
839.63	5170.4	
839.8	4928.1	
839.97	3235.8	
840.14	3214.6	
840.31	5016.8	
840.48	5134.3	
840.65	2734.7	
840.82	3175	
841	5120.6	
841.17	5059.2	
841.34	3021.4	
841.51	3079.5	
841.68	5114.5	
841.85	4902.2	
842.02	3092.4	
842.19	2667.1	
842.36	4943.8	
842.53	4943.8	
842.7	3042.6	
842.87	3626.3	
843.05	6350.1	
843.22	4805.2	
843.39	2902.7	
843.56	3190.7	
843.73	4757.4	
843.9	5248.3	
844.07	4786.1	
844.24	3951.2	
844.41	7133.8	
844.58	4558.8	
844.75	2929.3	
844.92	3155.9	
845.09	5114.5	
845.26	5138.4	
845.43	3008.5	
845.6	3167.5	
845.77	5139	
845.94	4909	
846.12	3347.1	
846.29	3406.5	
846.46	5336.3	
846.63	5107.6	
846.8	3038.5	
846.97	3530.7	
847.14	5487.9	
847.31	5066.7	
847.48	3388	
847.65	3691.1	
847.82	5297.4	
847.99	5300.8	
848.16	3955.3	
848.33	3593.5	
848.5	4789.5	
848.67	5436.7	
848.84	2961.4	
849.01	3124.5	
849.18	4704.2	
849.35	4399	
849.52	3623.5	
849.69	2958.6	
849.86	5325.4	
850.03	5426.4	
850.2	3011.9	
850.37	3619.4	
850.54	5370.5	
850.71	4906.3	
850.88	3538.2	
851.05	2937.5	
851.22	5095.3	
851.39	5578	
851.56	2840.5	
851.73	3443.3	
851.9	4527.4	
852.07	5306.3	
852.24	3291.8	
852.41	2968.9	
852.58	5088.5	
852.75	4605.9	
852.92	3335.5	
853.09	2935.4	
853.26	4737	
853.43	5474.2	
853.6	2960.7	
853.77	2566.8	
853.94	5556.1	
854.11	4534.2	
854.28	4334.9	
854.44	3231.7	
854.61	5914.5	
854.78	5350	
854.95	2968.9	
855.12	3701.4	
855.29	4197.7	
855.46	5674.2	
855.63	2982.5	
855.8	4052.9	
855.97	4747.9	
856.14	5418.2	
856.31	4207.9	
856.48	3230.3	
856.65	4792.2	
856.82	4532.2	
856.99	2859.6	
857.16	3216	
857.33	6087.9	
857.49	4832.5	
857.66	3217.4	
857.83	3409.2	
858	4851.6	
858.17	5012.7	
858.34	2794.1	
858.51	3020.1	
858.68	5672.2	
858.85	5681.7	
859.02	3443.3	
859.19	3609.9	
859.36	4518.5	
859.52	4589.5	
859.69	3007.1	
859.86	3502.7	
860.03	4575.2	
860.2	5572.5	
860.37	2753.2	
860.54	2982.5	
860.71	5309.7	
860.88	5631.9	
861.05	3346.4	
861.21	3695.2	
861.38	5569.1	
861.55	4388.8	
861.72	2769.5	
861.89	3361.4	
862.06	5348.6	
862.23	5734.3	
862.4	2924.5	
862.56	3108.8	
862.73	5145.9	
862.9	4950.6	
863.07	3454.9	
863.24	2730.6	
863.41	4454.3	
863.58	4624.3	
863.75	3041.2	
863.91	3420.8	
864.08	5573.9	
864.25	5210.7	
864.42	3676.8	
864.59	4150.6	
864.76	5855.8	
864.93	4520.5	
865.09	2938.8	
865.26	3181.9	
865.43	5493.3	
865.6	5805.3	
865.77	2624.1	
865.94	2927.9	
866.1	5538.4	
866.27	5266.7	
866.44	4412.7	
866.61	2841.9	
866.78	4880.3	
866.95	5205.3	
867.11	2934.1	
867.28	2665.8	
867.45	5386.2	
867.62	4575.8	
867.79	3416	
867.96	2994.8	
868.12	4560.8	
868.29	5277.6	
868.46	3013.9	
868.63	3934.1	
868.8	5425.8	
868.97	5279	
869.13	3169.6	
869.3	3119.7	
869.47	5151.3	
869.64	5360.9	
869.81	3001	
869.97	3056.3	
870.14	5055.8	
870.31	5626.5	
870.48	2915.6	
870.65	3736.2	
870.81	4792.9	
870.98	4885.1	
871.15	3372.3	
871.32	3176.4	
871.48	5161.6	
871.65	5672.2	
871.82	2975.7	
871.99	3286.3	
872.16	6022.4	
872.32	5479	
872.49	3028.3	
872.66	3022.1	
872.83	5331.5	
872.99	4681	
873.16	3409.9	
873.33	2968.2	
873.5	4988.2	
873.67	5040.7	
873.83	3157.3	
874	3916.4	
874.17	5141.8	
874.34	5882.4	
874.5	3818.1	
874.67	3686.3	
874.84	5565	
875.01	4464.6	
875.17	4110.3	
875.34	2963.4	
875.51	5048.2	
875.68	5990.3	
875.84	3576.4	
876.01	4258.4	
876.18	5296.7	
876.34	5233.2	
876.51	2938.8	
876.68	2961.4	
876.85	4839.4	
877.01	5552	
877.18	4177.2	
877.35	2912.2	
877.52	4995.7	
877.68	4474.8	
877.85	2934.1	
878.02	2940.2	
878.18	4897.4	
878.35	4762.2	
878.52	2434.4	
878.69	3355.3	
878.85	5323.4	
879.02	5254.4	
879.19	4196.3	
879.35	3192.8	
879.52	5219.6	
879.69	5317.9	
879.86	2656.2	
880.02	3284.3	
880.19	4919.9	
880.36	5857.2	
880.52	3415.3	
880.69	3533.4	
880.86	5357.5	
881.02	5390.9	
881.19	3229.6	
881.36	3229.6	
881.52	5165	
881.69	4704.2	
881.86	3224.9	
882.02	3162.7	
882.19	5463.3	
882.36	6255.9	
882.52	3061	
882.69	4184	
882.86	5081.7	
883.02	4988.9	
883.19	3590.1	
883.36	3394.2	
883.52	5294.7	
883.69	5913.2	
883.86	3014.6	
884.02	2751.1	
884.19	5298.8	
884.36	4943.8	
884.52	3360	
884.69	3153.9	
884.86	4691.9	
885.02	5677	
885.19	3284.3	
885.36	3385.3	
885.52	4923.3	
885.69	5099.4	
885.86	4207.9	
886.02	3768.3	
886.19	5254.4	
886.35	4818.9	
886.52	3284.3	
886.69	4046.8	
886.85	4551.3	
887.02	5570.5	
887.19	5570.5	
887.35	5570.5	
887.52	5570.5	
887.68	5570.5	
887.85	5570.5	
888.02	5570.5	
888.18	5570.5	
888.35	5570.5	
888.51	5570.5	
888.68	5570.5	
888.85	5570.5	
889.01	5570.5	
889.18	5570.5	
889.35	5570.5	
889.51	5570.5	
889.68	5570.5	
889.84	5570.5	
890.01	5570.5	
890.17	5570.5	
890.34	5570.5	
890.51	5570.5	
890.67	5570.5	
890.84	5570.5	
891	5570.5	
891.17	5570.5	
891.34	5570.5	
891.5	5570.5	
891.67	5570.5	
891.83	5570.5	
892	5570.5	
892.16	5570.5	
892.33	5570.5	
892.5	5570.5	
892.66	5570.5	
892.83	5570.5	
892.99	5570.5	
893.16	5570.5	
893.32	5570.5	
893.49	5570.5	
893.65	5570.5	
893.82	5570.5	
893.99	5570.5	
894.15	5570.5	
894.32	5570.5	
894.48	5570.5	
894.65	5570.5	
894.81	5570.5	
894.98	5570.5	
895.14	5570.5	
895.31	5570.5	
895.47	5570.5	
895.64	5570.5	
895.81	5570.5	
895.97	5570.5	
896.14	5570.5	
896.3	5570.5	
896.47	5570.5	
896.63	5570.5	
896.8	5570.5	
896.96	5570.5	
897.13	5570.5	
897.29	5570.5	
897.46	5570.5	
897.62	5570.5	
897.79	5570.5	
897.95	5570.5	
898.12	5570.5	
898.28	5570.5	
898.45	5570.5	
898.61	5570.5	
898.78	5570.5	
898.94	5570.5	
899.11	5570.5	
899.27	5570.5	
899.44	5570.5	
899.6	5570.5	
899.77	5570.5	
899.93	5570.5	
900.1	5570.5	
900.26	5570.5	
900.43	5570.5	
900.59	5570.5	
900.76	5570.5	
900.92	5570.5	
901.09	5570.5	
901.25	5570.5	
901.42	5570.5	
901.58	5570.5	
901.75	5570.5	
901.91	5570.5	
902.07	5570.5	
902.24	5570.5	
902.4	5570.5	
902.57	5570.5	
902.73	5570.5	
902.9	5570.5	
903.06	5570.5	
903.23	5570.5	
903.39	5570.5	
903.56	5570.5	
903.72	5570.5	
903.88	5570.5	
904.05	5570.5	
904.21	5570.5	
904.38	5570.5	
904.54	5570.5	
904.71	5570.5	
904.87	5570.5	
905.03	5570.5	
905.2	5570.5	
905.36	5570.5	
905.53	5570.5	
905.69	5570.5	
905.86	5570.5	
906.02	5570.5	
906.18	5570.5	
906.35	5570.5	
906.51	5570.5	
906.68	5570.5	
906.84	5570.5	
907.01	5570.5	
907.17	5570.5	
907.33	5570.5	
907.5	5570.5	
907.66	5570.5	
907.83	5570.5	
907.99	5570.5	
908.15	5570.5	
908.32	5570.5	
908.48	5570.5	
908.65	5570.5	
908.81	5570.5	
908.97	5570.5	
909.14	5570.5	
909.3	5570.5	
909.47	5570.5	
909.63	5570.5	
909.79	5570.5	
909.96	5570.5	
910.12	5570.5	
910.28	5570.5	
910.45	5570.5	
910.61	5570.5	
910.78	5570.5	
910.94	5570.5	
911.1	5570.5	
911.27	5570.5	
911.43	5570.5	
911.59	5570.5	
911.76	5570.5	
911.92	5570.5	
912.08	5570.5	
912.25	5570.5	
912.41	5570.5	
912.57	5570.5	
912.74	5570.5	
912.9	5570.5	
913.07	5570.5	
913.23	5570.5	
913.39	5570.5	
913.56	5570.5	
913.72	5570.5	
913.88	5570.5	
914.05	5570.5	
914.21	5570.5	
914.37	5570.5	
914.54	5570.5	
914.7	5570.5	
914.86	5570.5	
915.03	5570.5	
915.19	5570.5	
