Wavelength	Intensities	
nm	a.u.	
179.22	1628.6	
179.44	1623	
179.65	1634.3	
179.86	1611.8	
180.08	1641.8	
180.29	3684.3	
180.51	2872.6	
180.72	4820.2	
180.94	5254.4	
181.15	2564.7	
181.37	2547	
181.58	4595.6	
181.79	4742.4	
182.01	2666.5	
182.22	2822.8	
182.44	4820.9	
182.65	4176.5	
182.87	3390.1	
183.08	3027.6	
183.29	5059.8	
183.51	4270.7	
183.72	2816	
183.94	3800.3	
184.15	4549.2	
184.37	4440	
184.58	2519.7	
184.79	3225.6	
185.01	4362.9	
185.22	4790.2	
185.44	3395.5	
185.65	2969.6	
185.86	4554.7	
186.08	4231.8	
186.29	2496.5	
186.51	2581.1	
186.72	4308.9	
186.94	4885.8	
187.15	2958.6	
187.36	3063.1	
187.58	6034	
187.79	4606.6	
188.01	3121.1	
188.22	4606.6	
188.43	5309.7	
188.65	4711	
188.86	2702	
189.08	3052.8	
189.29	4359.4	
189.5	4307.6	
189.72	2813.9	
189.93	2926.5	
190.15	4855.7	
190.36	5513.8	
190.57	3068.5	
190.79	2968.2	
191	4912.4	
191.22	4913.8	
191.43	3099.9	
191.64	2658.9	
191.86	5094	
192.07	4928.8	
192.29	2766.1	
192.5	2807.1	
192.71	4914.4	
192.93	4427	
193.14	2821.4	
193.35	2865.1	
193.57	4316.4	
193.78	4926.7	
194	2366.1	
194.21	2773.6	
194.42	4248.9	
194.64	4554	
194.85	3011.2	
195.07	3420.1	
195.28	4496.7	
195.49	4091.2	
195.71	3614	
195.92	2641.9	
196.13	4681	
196.35	4716.5	
196.56	3821.5	
196.78	3059.7	
196.99	5646.2	
197.2	5233.9	
197.42	3295.2	
197.63	3020.8	
197.84	4158.7	
198.06	4666.6	
198.27	2828.9	
198.48	3564.1	
198.7	4334.2	
198.91	4541.7	
199.13	3072.6	
199.34	3067.9	
199.55	4904.2	
199.77	3936.2	
199.98	2734.7	
200.19	3098.6	
200.41	4470	
200.62	4253.6	
200.83	3125.2	
201.05	3340.9	
201.26	4490.5	
201.47	4377.9	
201.69	2789.3	
201.9	2726.5	
202.11	4547.2	
202.33	5108.3	
202.54	2922.5	
202.76	3203	
202.97	4598.4	
203.18	4719.2	
203.4	3155.9	
203.61	3200.3	
203.82	4549.2	
204.04	4285	
204.25	3083.6	
204.46	3078.8	
204.68	4553.3	
204.89	4652.3	
205.1	3026.2	
205.32	2657.6	
205.53	4717.2	
205.74	4876.9	
205.96	2366.8	
206.17	3090.4	
206.38	4820.2	
206.6	4825.7	
206.81	3392.1	
207.02	2875.3	
207.24	4683	
207.45	4979.3	
207.66	2961.4	
207.88	2578.4	
208.09	4664.6	
208.3	4498.7	
208.52	2768.9	
208.73	2985.3	
208.94	4526	
209.15	4954	
209.37	2913.6	
209.58	3020.1	
209.79	4898.7	
210.01	4418.8	
210.22	2470.5	
210.43	2604.3	
210.65	4503.5	
210.86	4755.4	
211.07	2905.4	
211.29	2699.2	
211.5	4743.1	
211.71	4496	
211.93	2770.2	
212.14	2747	
212.35	4508.9	
212.56	4600.4	
212.78	3026.9	
212.99	2595.5	
213.2	5107	
213.42	4412.7	
213.63	2802.3	
213.84	2912.2	
214.06	4120.5	
214.27	4208.6	
214.48	2884.2	
214.69	3130.7	
214.91	4998.4	
215.12	5010.7	
215.33	3109.5	
215.55	3302	
215.76	5342.5	
215.97	4701.5	
216.18	2990	
216.4	2990	
216.61	4295.3	
216.82	4860.5	
217.04	2769.5	
217.25	2805	
217.46	4941.7	
217.67	4753.3	
217.89	2525.1	
218.1	2595.5	
218.31	4530.8	
218.53	4672.8	
218.74	2923.1	
218.95	2772.3	
219.16	4545.1	
219.38	5188.9	
219.59	2735.4	
219.8	3272	
220.01	5440.8	
220.23	4568.3	
220.44	3476.8	
220.65	2669.9	
220.87	4615.4	
221.08	4927.4	
221.29	2659.6	
221.5	3291.1	
221.72	5730.2	
221.93	4299.4	
222.14	3059.7	
222.35	3557.3	
222.57	4507.6	
222.78	4790.9	
222.99	3006.4	
223.2	3095.8	
223.42	4721.9	
223.63	4815.5	
223.84	2399.5	
224.05	2410.5	
224.27	5358.2	
224.48	5086.5	
224.69	3514.3	
224.9	3071.3	
225.12	4617.5	
225.33	4427.7	
225.54	2551.8	
225.75	2805	
225.97	4263.9	
226.18	4459.1	
226.39	2962	
226.6	2777	
226.82	4378.6	
227.03	4243.4	
227.24	3052.2	
227.45	2618	
227.67	4812	
227.88	5068	
228.09	3407.8	
228.3	3372.3	
228.52	4773.8	
228.73	4451.6	
228.94	2886.3	
229.15	2620	
229.36	4572.4	
229.58	4486.4	
229.79	2921.1	
230	3265.1	
230.21	5327.4	
230.43	4555.4	
230.64	3016.7	
230.85	3138.2	
231.06	4833.9	
231.28	4875.5	
231.49	2603.7	
231.7	3030.3	
231.91	4772.4	
232.12	4487.1	
232.34	2675.3	
232.55	2931.3	
232.76	4909.7	
232.97	4597	
233.18	2743.6	
233.4	3017.3	
233.61	4676.2	
233.82	4323.3	
234.03	2910.8	
234.25	2856.9	
234.46	5914.5	
234.67	4549.9	
234.88	3080.8	
235.09	2782.5	
235.31	4629.1	
235.52	4461.2	
235.73	3038.5	
235.94	2662.4	
236.15	4404.5	
236.37	5264	
236.58	2719.7	
236.79	2938.8	
237	4686.4	
237.21	4186.7	
237.43	3173.7	
237.64	2536.8	
237.85	7143.3	
238.06	4278.2	
238.27	3053.5	
238.48	2655.5	
238.7	4766.3	
238.91	4412.7	
239.12	2916.3	
239.33	3062.4	
239.54	4271.4	
239.76	4409.3	
239.97	2912.9	
240.18	2988	
240.39	5281	
240.6	4661.2	
240.82	3069.9	
241.03	2628.9	
241.24	4497.3	
241.45	5058.5	
241.66	2711.5	
241.87	3166.8	
242.09	5003.9	
242.3	5189.6	
242.51	3176.4	
242.72	3026.2	
242.93	4806.6	
243.14	4514.4	
243.36	3350.5	
243.57	3594.2	
243.78	5142.4	
243.99	4822.3	
244.2	2925.2	
244.41	2684.2	
244.63	4207.9	
244.84	4687.1	
245.05	3108.8	
245.26	2917.7	
245.47	4735.6	
245.68	4816.8	
245.9	3728	
246.11	3100.6	
246.32	4394.3	
246.53	4712.4	
246.74	4509.6	
246.95	2624.1	
247.16	4326	
247.38	4554	
247.59	2565.4	
247.8	2981.8	
248.01	4252.3	
248.22	4516.5	
248.43	2725.8	
248.64	2892.4	
248.86	4164.2	
249.07	4383.3	
249.28	2731.3	
249.49	3008.5	
249.7	4898.7	
249.91	4925.4	
250.12	2603.7	
250.34	2658.9	
250.55	4627.7	
250.76	4579.9	
250.97	3016	
251.18	3085.6	
251.39	4965.6	
251.6	4650.9	
251.81	3082.9	
252.03	3065.1	
252.24	4395.6	
252.45	4770.4	
252.66	2613.9	
252.87	3106.8	
253.08	4551.3	
253.29	5618.9	
253.5	2622.1	
253.72	3486.3	
253.93	4490.5	
254.14	5137	
254.35	2887	
254.56	2882.2	
254.77	4689.8	
254.98	4225	
255.19	2874.7	
255.41	3440.6	
255.62	4657.1	
255.83	4930.8	
256.04	3155.9	
256.25	3032.4	
256.46	5317.2	
256.67	4345.1	
256.88	3047.4	
257.09	3323.2	
257.31	4214	
257.52	4236.6	
257.73	3718.4	
257.94	2830.3	
258.15	4472.8	
258.36	4539.7	
258.57	3360.7	
258.78	2308.1	
258.99	4858.5	
259.2	4394.9	
259.41	2819.4	
259.63	2953.2	
259.84	5029.8	
260.05	5234.6	
260.26	3581.9	
260.47	2796.8	
260.68	4898.7	
260.89	4430.4	
261.1	3375.1	
261.31	2762	
261.52	4987.5	
261.73	5150	
261.95	3536.8	
262.16	3119.7	
262.37	4943.1	
262.58	5055.8	
262.79	3564.8	
263	2850.8	
263.21	4541	
263.42	4141	
263.63	3108.8	
263.84	2857.6	
264.05	4896	
264.26	5051.7	
264.47	3407.8	
264.69	3161.4	
264.9	5091.9	
265.11	4625.7	
265.32	2748.4	
265.53	2830.3	
265.74	4567	
265.95	4095.3	
266.16	2944.3	
266.37	3265.1	
266.58	4655.7	
266.79	4348.5	
267	2826.9	
267.21	2667.8	
267.42	4227.7	
267.63	4507.6	
267.84	2943.6	
268.06	2603	
268.27	4844.1	
268.48	4983.4	
268.69	2884.2	
268.9	3325.2	
269.11	4919.2	
269.32	4120.5	
269.53	2902.7	
269.74	2775	
269.95	4630.5	
270.16	4145.1	
270.37	2992.8	
270.58	3346.4	
270.79	4445.5	
271	4867.3	
271.21	3085.6	
271.42	2991.4	
271.63	4718.5	
271.84	4181.3	
272.05	2487.6	
272.26	2678.1	
272.47	4532.8	
272.68	4633.9	
272.89	2915.6	
273.11	3213.9	
273.32	4373.1	
273.53	5094.7	
273.74	3155.9	
273.95	3080.1	
274.16	4789.5	
274.37	4490.5	
274.58	3224.2	
274.79	2626.9	
275	4708.3	
275.21	4914.4	
275.42	3762.1	
275.63	3232.4	
275.84	4713.1	
276.05	5687.9	
276.26	3042.6	
276.47	2879.4	
276.68	4494.6	
276.89	5214.1	
277.1	3224.9	
277.31	2650.1	
277.52	4678.9	
277.73	4947.2	
277.94	2611.2	
278.15	2841.2	
278.36	4684.4	
278.57	4274.1	
278.78	2878.8	
278.99	3115.6	
279.2	4349.9	
279.41	4277.5	
279.62	3526.6	
279.83	2683.5	
280.04	5269.4	
280.25	4213.4	
280.46	3583.9	
280.67	2989.4	
280.88	4268.6	
281.09	4956.8	
281.3	3066.5	
281.51	3721.2	
281.72	4352.6	
281.93	4776.5	
282.14	2801.6	
282.35	2992.1	
282.56	4934.9	
282.77	4785.4	
282.98	2958.6	
283.19	3384.6	
283.4	5694.7	
283.61	4471.4	
283.82	2705.4	
284.03	3577.1	
284.24	4657.8	
284.45	4914.4	
284.66	3585.3	
284.87	3344.3	
285.08	4942.4	
285.29	4993.6	
285.5	2631	
285.71	2923.8	
285.92	4909	
286.12	5307.7	
286.33	3525.2	
286.54	2924.5	
286.75	4839.4	
286.96	4455	
287.17	2709.5	
287.38	3391.4	
287.59	4333.5	
287.8	4330.8	
288.01	2911.5	
288.22	3216.7	
288.43	4751.3	
288.64	4130.1	
288.85	3446	
289.06	3268.6	
289.27	4808.6	
289.48	5080.3	
289.69	3588.7	
289.9	3227.6	
290.11	5018.2	
290.32	4347.8	
290.53	3375.7	
290.74	3160.7	
290.94	4844.1	
291.15	4951.3	
291.36	2809.8	
291.57	3108.8	
291.78	4391.5	
291.99	4092.5	
292.2	2726.5	
292.41	3166.8	
292.62	4889.2	
292.83	4744.5	
293.04	3791.5	
293.25	2785.2	
293.46	4425	
293.67	4894.6	
293.88	2749.1	
294.09	2673.3	
294.29	4289.1	
294.5	4603.8	
294.71	2984.6	
294.92	2855.6	
295.13	4452.3	
295.34	5253.7	
295.55	2587.9	
295.76	2553.1	
295.97	4795.7	
296.18	5232.6	
296.39	2661	
296.6	2854.9	
296.81	4535.6	
297.01	4816.1	
297.22	2921.8	
297.43	2843.3	
297.64	4388.1	
297.85	4270	
298.06	2417.3	
298.27	2549.7	
298.48	4537.6	
298.69	4358.1	
298.9	3012.6	
299.11	2745	
299.31	4266.6	
299.52	4222.2	
299.73	3205.8	
299.94	3121.1	
300.15	4603.2	
300.36	4334.9	
300.57	3117.7	
300.78	3057.6	
300.99	4418.8	
301.2	4576.5	
301.4	2840.5	
301.61	2973.7	
301.82	4739	
302.03	4799.8	
302.24	3239.9	
302.45	2701.3	
302.66	4657.8	
302.87	4884.4	
303.08	2781.8	
303.29	3609.2	
303.49	4401.1	
303.7	4451.6	
303.91	2643.9	
304.12	3462.4	
304.33	4171	
304.54	4632.5	
304.75	2778.4	
304.96	2703.3	
305.16	4734.2	
305.37	5199.8	
305.58	2484.2	
305.79	2577.7	
306	4757.4	
306.21	4100.7	
306.42	2783.9	
306.63	3988.1	
306.83	4439.3	
307.04	4787.5	
307.25	3004.4	
307.46	3037.1	
307.67	4027	
307.88	4747.2	
308.09	2835.1	
308.29	2794.1	
308.5	4543.1	
308.71	4883	
308.92	2907.4	
309.13	2725.8	
309.34	4567.7	
309.55	4493.2	
309.75	3396.9	
309.96	3089	
310.17	4798.4	
310.38	4265.2	
310.59	3166.8	
310.8	2660.3	
311.01	4440.7	
311.21	4496	
311.42	2734.7	
311.63	2820.1	
311.84	4384.7	
312.05	4551.3	
312.26	3070.6	
312.46	3275.4	
312.67	4433.9	
312.88	4229.7	
313.09	2723.1	
313.3	2678.7	
313.51	5087.8	
313.71	5260.5	
313.92	2763.4	
314.13	2876.7	
314.34	4659.1	
314.55	4519.2	
314.76	3355.9	
314.96	2977.7	
315.17	4650.9	
315.38	4786.1	
315.59	2788.7	
315.8	2643.9	
316.01	4944.5	
316.21	5099.4	
316.42	2719	
316.63	2964.1	
316.84	4388.8	
317.05	4904.9	
317.26	3115	
317.46	2872.6	
317.67	4534.2	
317.88	4785.4	
318.09	3351.2	
318.3	2544.3	
318.5	4407.2	
318.71	4711.7	
318.92	4156.7	
319.13	3110.2	
319.34	4842.8	
319.54	4909	
319.75	2568.2	
319.96	2512.2	
320.17	4694.6	
320.38	4868.7	
320.58	2545.6	
320.79	2930.6	
321	4945.8	
321.21	5020.9	
321.42	3023.5	
321.62	2549.7	
321.83	4318.5	
322.04	4532.2	
322.25	2884.2	
322.46	2712.9	
322.66	4594.3	
322.87	4764.9	
323.08	3248.1	
323.29	2695.8	
323.5	5251.7	
323.7	4208.6	
323.91	3571.7	
324.12	3239.9	
324.33	4687.8	
324.53	4739	
324.74	3160.7	
324.95	3230.3	
325.16	4171.7	
325.37	4394.9	
325.57	2671.9	
325.78	2813.2	
325.99	4676.9	
326.2	4203.8	
326.4	3654.3	
326.61	2581.1	
326.82	4498	
327.03	4599.1	
327.24	3735.5	
327.44	3442	
327.65	4786.1	
327.86	3992.9	
328.07	3147.7	
328.27	2697.9	
328.48	5010.7	
328.69	4235.2	
328.9	3695.9	
329.1	2874.7	
329.31	4478.9	
329.52	5086.5	
329.73	2798.9	
329.93	2979.8	
330.14	4628.4	
330.35	4710.3	
330.56	4201.7	
330.76	3278.8	
330.97	4399	
331.18	4539.7	
331.39	2968.2	
331.59	2473.3	
331.8	4932.2	
332.01	5024.3	
332.22	2813.2	
332.42	3086.3	
332.63	4640.7	
332.84	4280.3	
333.05	3013.9	
333.25	2831	
333.46	4334.9	
333.67	4494.6	
333.88	2831.7	
334.08	3046	
334.29	5698.8	
334.5	4911.7	
334.7	2670.6	
334.91	3619.4	
335.12	4269.3	
335.33	4767	
335.53	2960	
335.74	4132.1	
335.95	4480.3	
336.16	4227.7	
336.36	3074	
336.57	3357.3	
336.78	4164.9	
336.98	4899.4	
337.19	3594.9	
337.4	2904	
337.61	5340.4	
337.81	4203.1	
338.02	2810.5	
338.23	3393.5	
338.43	5039.4	
338.64	4360.8	
338.85	2763.4	
339.05	3516.4	
339.26	5110.4	
339.47	4152.6	
339.68	2809.1	
339.88	3736.2	
340.09	4752	
340.3	4850.3	
340.5	3134.1	
340.71	2473.3	
340.92	4237.9	
341.13	4986.8	
341.33	2614.6	
341.54	3146.4	
341.75	4698.7	
341.95	4393.6	
342.16	2992.1	
342.37	3241.9	
342.57	4215.4	
342.78	4478.2	
342.99	3275.4	
343.19	2521.7	
343.4	4835.3	
343.61	4738.3	
343.81	2902	
344.02	2642.6	
344.23	4764.3	
344.43	5039.4	
344.64	3281.5	
344.85	3219.4	
345.06	4698	
345.26	4885.1	
345.47	3119.7	
345.68	3549.1	
345.88	4166.9	
346.09	4858.5	
346.3	3140.2	
346.5	2461.7	
346.71	4493.9	
346.92	4334.9	
347.12	2626.2	
347.33	3023.5	
347.54	4861.2	
347.74	5046.2	
347.95	3085.6	
348.16	2426.2	
348.36	4384.7	
348.57	4262.5	
348.78	3147.7	
348.98	3247.4	
349.19	4549.2	
349.39	4173.8	
349.6	2615.3	
349.81	2771.6	
350.01	4714.4	
350.22	4345.8	
350.43	3086.3	
350.63	3462.4	
350.84	4502.8	
351.05	4336.2	
351.25	2789.3	
351.46	2541.5	
351.67	4879.6	
351.87	4314.4	
352.08	2910.2	
352.29	3282.9	
352.49	4779.3	
352.7	4581.3	
352.9	2689	
353.11	3216.7	
353.32	5204.6	
353.52	4388.8	
353.73	2674	
353.94	3295.2	
354.14	4715.1	
354.35	4465.9	
354.55	2761.3	
354.76	3010.5	
354.97	4674.1	
355.17	4499.4	
355.38	2654.2	
355.59	3368.2	
355.79	4245.4	
356	4495.3	
356.2	2973	
356.41	2679.4	
356.62	4117.8	
356.82	4428.4	
357.03	3186.6	
357.24	2889.7	
357.44	4272.7	
357.65	4354.7	
357.85	3670	
358.06	3029.6	
358.27	4105.5	
358.47	4236.6	
358.68	2611.8	
358.88	3127.2	
359.09	4653	
359.3	4757.4	
359.5	3580.5	
359.71	3224.9	
359.91	5117.2	
360.12	4662.5	
360.33	3132	
360.53	3473.4	
360.74	4354.7	
360.94	4390.2	
361.15	3260.4	
361.36	2794.8	
361.56	4841.4	
361.77	4437.9	
361.97	3569.6	
362.18	2913.6	
362.38	4818.9	
362.59	4222.2	
362.8	2738.1	
363	2615.3	
363.21	4007.2	
363.41	4508.9	
363.62	3093.8	
363.83	3616.7	
364.03	4646.8	
364.24	5136.3	
364.44	3799.7	
364.65	3734.8	
364.85	4407.9	
365.06	4256.4	
365.27	2804.4	
365.47	2909.5	
365.68	5014.1	
365.88	4405.9	
366.09	3119.1	
366.29	2879.4	
366.5	4470.7	
366.71	4793.6	
366.91	3675.4	
367.12	3219.4	
367.32	5201.2	
367.53	4681	
367.73	3213.3	
367.94	3846.1	
368.14	4760.8	
368.35	5195.7	
368.56	3166.8	
368.76	2965.5	
368.97	4758.8	
369.17	5830.6	
369.38	2842.6	
369.58	3031.7	
369.79	4138.3	
369.99	5027.1	
370.2	3681.6	
370.4	3080.1	
370.61	4593.6	
370.82	5399.8	
371.02	3027.6	
371.23	2602.3	
371.43	4207.9	
371.64	4988.9	
371.84	3067.2	
372.05	3713.6	
372.25	5749.3	
372.46	4687.8	
372.66	3069.9	
372.87	3000.3	
373.07	4764.9	
373.28	5897.5	
373.48	3637.9	
373.69	3442.6	
373.9	4436.6	
374.1	4460.5	
374.31	3575.8	
374.51	3332	
374.72	5004.6	
374.92	4274.8	
375.13	3718.4	
375.33	3167.5	
375.54	4709	
375.74	4370.4	
375.95	3248.8	
376.15	4031.8	
376.36	4777.9	
376.56	4652.3	
376.77	3277.4	
376.97	3496.6	
377.18	5466	
377.38	4773.1	
377.59	3708.2	
377.79	2971.6	
378	4599.1	
378.2	4814.1	
378.41	3003.7	
378.61	2917	
378.82	4957.4	
379.02	4466.6	
379.23	3091.8	
379.43	3786.7	
379.64	5086.5	
379.84	4706.9	
380.05	3068.5	
380.25	2971.6	
380.46	4811.4	
380.66	4494.6	
380.87	3870	
381.07	4076.8	
381.28	5189.6	
381.48	4824.3	
381.69	2983.9	
381.89	3102.7	
382.1	4155.3	
382.3	4818.9	
382.51	3692.5	
382.71	4207.9	
382.91	4738.3	
383.12	5040.1	
383.32	3231	
383.53	3379.8	
383.73	4698	
383.94	4586.8	
384.14	3425.6	
384.35	2781.1	
384.55	4442.7	
384.76	4780.6	
384.96	3289	
385.17	3446	
385.37	4801.8	
385.58	4274.8	
385.78	3416	
385.98	2730.6	
386.19	4471.4	
386.39	4786.1	
386.6	3119.7	
386.8	3226.2	
387.01	4719.2	
387.21	4864.6	
387.42	3426.9	
387.62	3863.2	
387.83	4402.5	
388.03	4642.1	
388.23	3306.8	
388.44	3753.9	
388.64	4268.6	
388.85	4208.6	
389.05	3409.2	
389.26	3855.6	
389.46	5565	
389.67	5159.5	
389.87	3472.7	
390.07	3502.7	
390.28	4530.1	
390.48	4300.7	
390.69	2982.5	
390.89	3194.1	
391.1	4453.6	
391.3	4962.9	
391.5	3926.6	
391.71	4319.2	
391.91	4908.3	
392.12	5384.8	
392.32	4037.9	
392.53	3458.3	
392.73	4527.4	
392.93	4613.4	
393.14	3295.2	
393.34	3761.4	
393.55	4877.6	
393.75	4552	
393.95	3349.8	
394.16	3250.8	
394.36	4486.4	
394.57	4915.8	
394.77	3018	
394.98	3203	
395.18	4413.4	
395.38	4463.2	
395.59	3792.2	
395.79	3067.2	
396	4492.6	
396.2	4824.3	
396.4	3645.4	
396.61	3560.7	
396.81	4863.2	
397.02	4425	
397.22	3784.6	
397.42	3831.7	
397.63	4954.7	
397.83	4465.9	
398.04	3123.8	
398.24	3401	
398.44	4727.4	
398.65	4076.1	
398.85	2996.9	
399.05	3056.9	
399.26	4471.4	
399.46	5468.8	
399.67	3314.3	
399.87	3108.8	
400.07	4687.1	
400.28	4820.2	
400.48	3144.3	
400.69	3811.3	
400.89	5168.4	
401.09	5327.4	
401.3	3123.2	
401.5	3828.3	
401.7	5366.4	
401.91	5561.6	
402.11	3372.3	
402.32	3420.1	
402.52	5066.7	
402.72	4930.1	
402.93	3632.4	
403.13	2921.1	
403.33	5586.9	
403.54	4671.4	
403.74	3462.4	
403.94	4003.8	
404.15	4760.2	
404.35	5477.6	
404.56	3289	
404.76	4460.5	
404.96	5029.8	
405.17	4853	
405.37	3860.4	
405.57	3576.4	
405.78	5055.8	
405.98	4653.7	
406.18	3323.2	
406.39	3852.9	
406.59	5063.9	
406.79	4653	
407	3194.1	
407.2	3226.9	
407.4	5307.7	
407.61	5213.4	
407.81	3254.2	
408.01	4802.5	
408.22	4295.3	
408.42	5530.2	
408.62	3895.9	
408.83	3579.2	
409.03	4677.6	
409.23	4641.4	
409.44	3589.4	
409.64	3786.7	
409.84	5305.6	
410.05	5253	
410.25	3734.8	
410.45	3538.9	
410.66	4956.8	
410.86	6567.8	
411.06	3839.3	
411.27	3729.4	
411.47	6357.6	
411.67	5075.5	
411.88	3980.6	
412.08	3979.9	
412.28	5411.4	
412.49	5778.7	
412.69	3784.6	
412.89	3719.1	
413.09	5663.3	
413.3	5552.7	
413.5	3935.5	
413.7	3622.2	
413.91	5171.1	
414.11	5690.6	
414.31	3723.9	
414.52	3950.5	
414.72	5507	
414.92	5408.7	
415.12	3697.9	
415.33	4050.2	
415.53	5636.7	
415.73	5769.8	
415.94	4328	
416.14	3934.1	
416.34	5103.5	
416.55	4877.6	
416.75	4717.2	
416.95	4330.1	
417.15	5641.5	
417.36	6107.7	
417.56	4830.5	
417.76	4268.6	
417.97	5888.6	
418.17	5692	
418.37	3981.9	
418.57	3984	
418.78	5722.7	
418.98	5367.7	
419.18	4542.4	
419.38	4493.9	
419.59	5337.7	
419.79	5145.9	
419.99	3874.8	
420.2	4147.8	
420.4	5745.2	
420.6	5791.7	
420.8	3876.1	
421.01	3789.4	
421.21	5613.5	
421.41	5694.7	
421.61	4084.3	
421.82	3977.8	
422.02	5343.8	
422.22	5933.6	
422.42	4437.9	
422.63	4203.8	
422.83	5362.3	
423.03	6206.7	
423.23	4307.6	
423.44	3553.9	
423.64	5421.7	
423.84	5218.9	
424.04	3891.1	
424.25	3715.7	
424.45	6057.2	
424.65	5939.1	
424.85	3593.5	
425.06	3986	
425.26	6169.2	
425.46	5332.2	
425.66	4255	
425.87	4037.9	
426.07	5862	
426.27	5780.1	
426.47	4155.3	
426.67	3717.7	
426.88	6178	
427.08	5715.2	
427.28	4357.4	
427.48	3712.3	
427.69	5066.7	
427.89	5480.4	
428.09	4272.1	
428.29	3781.9	
428.5	5867.4	
428.7	5575.3	
428.9	3664.5	
429.1	3985.3	
429.3	5616.2	
429.51	5750	
429.71	3872.7	
429.91	4459.8	
430.11	5779.4	
430.31	6054.5	
430.52	4058.4	
430.72	4219.5	
430.92	6146	
431.12	5722	
431.32	3903.4	
431.53	4199.7	
431.73	5113.8	
431.93	6176.7	
432.13	3807.2	
432.33	3693.2	
432.54	5440.8	
432.74	5498.1	
432.94	3682.2	
433.14	4349.2	
433.34	5805.3	
433.55	5446.9	
433.75	4327.4	
433.95	5451	
434.15	5735	
434.35	5362.3	
434.56	3846.1	
434.76	3553.2	
434.96	5618.9	
435.16	5750	
435.36	3781.2	
435.56	4545.1	
435.77	5500.2	
435.97	5529.5	
436.17	4963.6	
436.37	4465.3	
436.57	5392.3	
436.78	5313.8	
436.98	4425.7	
437.18	4863.9	
437.38	5799.2	
437.58	5453.7	
437.78	5016.2	
437.99	4110.3	
438.19	5940.5	
438.39	6461.3	
438.59	4076.1	
438.79	3699.3	
438.99	6318.7	
439.2	5534.3	
439.4	3775.8	
439.6	3730.7	
439.8	5668.8	
440	6395.1	
440.2	4455.7	
440.4	4395.6	
440.61	6040.1	
440.81	6264.7	
441.01	4027	
441.21	4476.9	
441.41	6341.2	
441.61	5980.1	
441.81	4758.8	
442.02	5287.2	
442.22	6641.6	
442.42	6115.9	
442.62	4019.5	
442.82	4114.4	
443.02	6352.8	
443.22	5758.9	
443.43	4299.4	
443.63	3971	
443.83	5592.3	
444.03	5597.1	
444.23	4764.3	
444.43	4557.4	
444.63	5909.8	
444.83	6616.3	
445.04	4194.2	
445.24	4949.3	
445.44	6147.3	
445.64	6130.9	
445.84	4652.3	
446.04	4670.1	
446.24	5757.5	
446.44	6406.7	
446.65	4112.3	
446.85	4391.5	
447.05	5728.9	
447.25	6333.7	
447.45	4480.3	
447.65	3982.6	
447.85	5978	
448.05	5600.5	
448.25	4684.4	
448.46	4642.1	
448.66	5964.4	
448.86	5737.7	
449.06	3994.2	
449.26	4751.3	
449.46	6156.9	
449.66	5556.1	
449.86	4483	
450.06	4349.9	
450.26	5729.5	
450.47	6075.6	
450.67	4622.3	
450.87	4803.2	
451.07	6241.5	
451.27	5986.9	
451.47	4153.3	
451.67	4713.1	
451.87	5798.5	
452.07	6613.6	
452.27	4352.6	
452.47	4363.5	
452.67	6070.9	
452.88	6326.2	
453.08	3928	
453.28	5144.5	
453.48	6765.1	
453.68	5904.3	
453.88	4343.7	
454.08	4410	
454.28	6255.9	
454.48	5969.8	
454.68	4792.2	
454.88	5071.5	
455.08	6371.2	
455.28	6124.1	
455.48	4219.5	
455.68	4653.7	
455.89	6682.5	
456.09	6346.7	
456.29	4483	
456.49	4567	
456.69	6628.6	
456.89	6057.9	
457.09	4840	
457.29	5155.4	
457.49	6345.3	
457.69	6391	
457.89	4782	
458.09	4298	
458.29	6213.5	
458.49	6683.9	
458.69	4956.8	
458.89	4625	
459.09	6819.7	
459.29	6916.7	
459.49	4630.5	
459.69	5276.3	
459.9	6577.4	
460.1	6270.2	
460.3	4632.5	
460.5	4437.3	
460.7	6662	
460.9	6238.8	
461.1	4341	
461.3	5107	
461.5	7009.5	
461.7	6716.7	
461.9	4607.2	
462.1	4922	
462.3	6501.6	
462.5	6769.9	
462.7	4763.6	
462.9	4767.7	
463.1	7413	
463.3	7249.8	
463.5	4883.7	
463.7	5572.5	
463.9	6643.6	
464.1	6799.3	
464.3	5044.8	
464.5	5166.3	
464.7	6969.2	
464.9	6752.2	
465.1	5935	
465.3	5449.6	
465.5	7283.3	
465.7	7275.1	
465.9	5593.7	
466.1	5395	
466.3	7122.8	
466.5	7030	
466.7	6042.2	
466.9	5285.8	
467.1	7148.1	
467.3	7666.2	
467.5	6028.5	
467.7	5386.2	
467.9	7854	
468.1	8312	
468.3	5788.9	
468.5	6034.7	
468.7	7083.2	
468.9	6958.3	
469.1	5590.3	
469.3	5941.8	
469.5	8326.4	
469.7	6720.8	
469.9	5911.1	
470.1	5410.1	
470.3	7219.1	
470.5	7199.3	
470.7	6287.3	
470.9	5481	
471.1	6996.5	
471.3	7240.9	
471.5	5464.7	
471.69	6520	
471.89	6954.9	
472.09	6543.9	
472.29	5927.5	
472.49	6107	
472.69	6784.9	
472.89	7255.3	
473.09	5399.8	
473.29	5479.7	
473.49	6899.6	
473.69	6893.5	
473.89	6013.5	
474.09	5565.7	
474.29	7795.9	
474.49	7488.7	
474.69	5994.4	
474.89	5607.3	
475.09	7051.8	
475.29	6950.8	
475.49	5289.2	
475.69	5372.5	
475.88	7970	
476.08	7316.7	
476.28	5207.3	
476.48	5450.3	
476.68	7647.1	
476.88	7342.7	
477.08	5471.5	
477.28	5627.8	
477.48	7086	
477.68	7348.1	
477.88	5300.1	
478.08	5423.7	
478.28	7696.9	
478.48	7078.5	
478.67	5569.1	
478.87	5173.9	
479.07	7624.6	
479.27	7263.5	
479.47	5700.9	
479.67	5707.7	
479.87	7508.5	
480.07	7745.4	
480.27	5307	
480.47	6184.2	
480.67	7137.2	
480.87	7707.9	
481.06	5414.8	
481.26	5987.6	
481.46	7371.3	
481.66	7172.7	
481.86	5799.8	
482.06	6372.6	
482.26	7114	
482.46	7657.4	
482.66	5676.3	
482.86	5470.8	
483.05	7374.1	
483.25	6820.4	
483.45	7328.3	
483.65	5735	
483.85	6976.7	
484.05	7178.1	
484.25	6012.8	
484.45	6294.8	
484.65	7729.7	
484.84	7799.3	
485.04	5714.5	
485.24	5666.7	
485.44	8092.9	
485.64	6986.3	
485.84	5339.1	
486.04	6282.5	
486.24	7256.6	
486.44	7449.1	
486.63	5281	
486.83	5851	
487.03	7161.7	
487.23	7290.1	
487.43	5412.1	
487.63	6838.9	
487.83	7433.4	
488.02	7832.8	
488.22	6024.4	
488.42	6397.2	
488.62	7948.8	
488.82	7262.1	
489.02	5875.6	
489.22	5836.7	
489.41	7897	
489.61	7700.4	
489.81	5670.1	
490.01	5735	
490.21	7965.2	
490.41	8379.6	
490.61	5793	
490.8	5823.7	
491	7629.4	
491.2	7203.4	
491.4	6279.8	
491.6	5696.1	
491.8	7671.7	
491.99	7634.1	
492.19	5573.2	
492.39	5761.6	
492.59	7845.1	
492.79	7918.1	
492.99	6193.1	
493.18	5691.3	
493.38	7985	
493.58	8495	
493.78	6224.5	
493.98	5978.7	
494.18	7838.9	
494.37	7528.3	
494.57	6473.6	
494.77	6337.8	
494.97	8069	
495.17	8204.8	
495.37	6180.8	
495.56	6367.1	
495.76	8356.4	
495.96	8225.3	
496.16	7077.8	
496.36	6380.8	
496.55	8461.5	
496.75	8063.5	
496.95	6661.4	
497.15	6625.2	
497.35	8442.4	
497.54	8381	
497.74	6426.5	
497.94	7631.4	
498.14	8843.8	
498.34	8653.4	
498.53	6283.9	
498.73	6715.3	
498.93	7971.4	
499.13	8354.3	
499.33	6649.8	
499.52	6926.9	
499.72	8546.2	
499.92	8610.3	
500.12	6457.9	
500.32	6639.5	
500.51	8544.8	
500.71	8428.1	
500.91	7232.1	
501.11	6995.2	
501.31	8620.6	
501.5	8943.5	
501.7	7481.2	
501.9	6806.8	
502.1	8400.8	
502.29	8686.1	
502.49	7141.9	
502.69	7299	
502.89	8697	
503.09	8621.3	
503.28	6417	
503.48	6503	
503.68	8206.9	
503.88	8125.7	
504.07	7124.9	
504.27	6727.6	
504.47	8430.1	
504.67	8496.3	
504.86	7165.8	
505.06	6820.4	
505.26	8250.6	
505.46	9302.6	
505.65	6825.2	
505.85	6929	
506.05	8254.7	
506.25	8522.3	
506.44	6293.4	
506.64	6947.4	
506.84	8001.4	
507.04	8582.4	
507.23	6595.1	
507.43	6813.6	
507.63	9296.4	
507.83	8059.4	
508.02	6909.2	
508.22	6591.7	
508.42	9452.7	
508.62	8009.6	
508.81	6708.5	
509.01	7223.9	
509.21	8003.5	
509.4	8233.5	
509.6	6892.8	
509.8	6468.2	
510	8241	
510.19	9010.4	
510.39	6386.2	
510.59	6573.3	
510.79	8087.4	
510.98	9023.4	
511.18	6662.7	
511.38	6760.3	
511.57	8789.9	
511.77	8505.9	
511.97	7056.6	
512.17	6595.8	
512.36	8704.5	
512.56	8502.5	
512.76	6627.9	
512.95	6337.1	
513.15	8850.6	
513.35	7780.2	
513.55	7066.2	
513.74	6544.6	
513.94	8724.3	
514.14	8208.9	
514.33	7170.6	
514.53	7018.4	
514.73	8362.5	
514.92	8510.7	
515.12	6722.8	
515.32	6579.4	
515.51	8496.3	
515.71	8736	
515.91	7789.1	
516.11	6680.5	
516.3	9625.5	
516.5	8305.9	
516.7	7124.2	
516.89	7434.8	
517.09	8454	
517.29	8419.2	
517.48	7516	
517.68	6910.5	
517.88	8148.9	
518.07	8600.1	
518.27	7281.2	
518.47	6579.4	
518.66	8955.8	
518.86	8125	
519.06	6489.3	
519.25	6728.9	
519.45	8380.3	
519.65	9295	
519.84	7256.6	
520.04	7720.2	
520.24	9637.7	
520.43	8822.6	
520.63	7105.1	
520.83	6982.9	
521.02	8438.3	
521.22	8839.7	
521.42	7323.5	
521.61	7561.8	
521.81	8510.7	
522.01	8626	
522.2	7114	
522.4	6931	
522.6	8869.1	
522.79	8139.3	
522.99	7105.8	
523.18	6616.3	
523.38	8787.8	
523.58	8695	
523.77	7913.4	
523.97	6713.2	
524.17	10047	
524.36	9529.2	
524.56	7699.7	
524.76	7439.6	
524.95	8916.9	
525.15	8676.6	
525.34	7392.5	
525.54	7516	
525.74	9156.5	
525.93	8630.1	
526.13	8218.5	
526.33	7479.9	
526.52	9607.7	
526.72	9164.7	
526.91	8316.8	
527.11	7834.2	
527.31	9513.5	
527.5	9796.1	
527.7	7755	
527.89	7234.8	
528.09	8941.4	
528.29	9306.7	
528.48	8015.1	
528.68	7870.3	
528.87	9559.9	
529.07	9648.7	
529.27	7918.1	
529.46	7617.1	
529.66	9650.7	
529.85	9898.5	
530.05	7651.2	
530.25	8101.8	
530.44	10462	
530.64	9457.5	
530.83	7934.5	
531.03	8001.4	
531.23	9893.1	
531.42	9542.2	
531.62	8464.9	
531.81	7920.9	
532.01	9891	
532.21	10004	
532.4	7842.4	
532.6	8196	
532.79	10623	
532.99	10041	
533.18	8299.7	
533.38	8885.5	
533.58	9833	
533.77	10210	
533.97	8306.6	
534.16	8862.9	
534.36	10470	
534.55	9837.8	
534.75	8963.3	
534.95	8459.5	
535.14	10436	
535.34	9873.9	
535.53	8224.6	
535.73	9462.3	
535.92	10877	
536.12	10023	
536.31	8301.1	
536.51	9051.3	
536.71	10358	
536.9	9982.5	
537.1	8269	
537.29	8545.5	
537.49	10529	
537.68	9939.5	
537.88	8783.1	
538.07	8217.8	
538.27	10146	
538.46	10789	
538.66	8181	
538.86	8488.8	
539.05	10260	
539.25	10344	
539.44	8785.8	
539.64	8428.1	
539.83	10083	
540.03	10843	
540.22	8473.8	
540.42	8489.5	
540.61	10232	
540.81	10343	
541	8572.8	
541.2	9170.1	
541.39	9857.6	
541.59	10140	
541.78	9010.4	
541.98	8361.9	
542.18	9810.5	
542.37	9765.4	
542.57	8552.3	
542.76	9035	
542.96	9838.4	
543.15	10219	
543.35	8579.6	
543.54	8320.2	
543.74	10129	
543.93	10122	
544.13	8489.5	
544.32	9075.9	
544.52	10232	
544.71	9752.4	
544.91	7898.3	
545.1	8639	
545.3	9772.9	
545.49	10176	
545.69	7880.6	
545.88	8361.9	
546.08	10907	
546.27	10446	
546.47	8630.1	
546.66	8137.9	
546.86	10327	
547.05	10726	
547.24	8277.2	
547.44	8260.8	
547.63	9676.7	
547.83	10249	
548.02	8530.5	
548.22	8576.9	
548.41	9658.9	
548.61	10378	
548.8	8125.7	
549	8146.8	
549.19	9996.1	
549.39	10155	
549.58	8023.3	
549.78	8402.1	
549.97	10273	
550.17	9811.1	
550.36	8868.4	
550.55	9467.8	
550.75	9835.7	
550.94	10426	
551.14	8126.3	
551.33	8297.7	
551.53	9383.1	
551.72	9998.2	
551.92	8249.2	
552.11	8124.3	
552.31	10253	
552.5	9960.6	
552.69	9275.3	
552.89	7958.4	
553.08	10056	
553.28	9761.3	
553.47	8190.5	
553.67	8889.5	
553.86	10412	
554.06	9379.7	
554.25	7739.3	
554.44	8011.7	
554.64	10910	
554.83	10688	
555.03	8036.2	
555.22	8301.1	
555.42	10201	
555.61	9969.5	
555.8	8105.9	
556	8356.4	
556.19	9445.2	
556.39	10120	
556.58	8253.3	
556.78	8223.3	
556.97	9929.9	
557.16	9695.1	
557.36	8945.5	
557.55	7996	
557.75	9197.4	
557.94	10481	
558.13	8052.6	
558.33	7847.1	
558.52	10315	
558.72	9470.5	
558.91	7914	
559.1	8075.8	
559.3	9401.5	
559.49	9139.4	
559.69	7879.9	
559.88	8277.9	
560.07	9871.9	
560.27	10153	
560.46	8546.2	
560.66	8543.4	
560.85	9819.3	
561.04	9183.8	
561.24	7946.8	
561.43	7972.7	
561.63	9343.5	
561.82	9553.8	
562.01	8808.3	
562.21	8166.6	
562.4	9830.9	
562.59	10417	
562.79	8136.6	
562.98	7924.3	
563.18	9729.9	
563.37	10697	
563.56	8469.7	
563.76	7999.4	
563.95	9602.9	
564.14	9471.9	
564.34	8283.4	
564.53	7986.4	
564.73	10003	
564.92	10045	
565.11	8356.4	
565.31	7922.9	
565.5	10280	
565.69	9448.6	
565.89	8172.8	
566.08	8441.7	
566.27	10163	
566.47	10558	
566.66	8828.1	
566.85	7963.2	
567.05	10102	
567.24	9720.3	
567.44	8149.6	
567.63	8938.7	
567.82	10324	
568.02	9942.2	
568.21	8199.4	
568.4	8357.1	
568.6	10001	
568.79	9930.6	
568.98	8081.3	
569.18	8159.1	
569.37	9975.7	
569.56	11239	
569.76	8452	
569.95	9079.3	
570.14	10232	
570.34	10148	
570.53	8199.4	
570.72	8210.3	
570.91	10554	
571.11	10065	
571.3	8578.3	
571.49	9120.3	
571.69	10079	
571.88	9716.9	
572.07	8825.4	
572.27	8801.5	
572.46	9764.7	
572.65	10386	
572.85	8343.4	
573.04	8660.2	
573.23	10621	
573.43	10210	
573.62	8307.9	
573.81	8636.3	
574	10176	
574.2	10075	
574.39	8519.6	
574.58	8565.3	
574.78	10741	
574.97	10348	
575.16	8940.7	
575.36	9110	
575.55	10755	
575.74	10793	
575.93	8381	
576.13	9104.6	
576.32	10172	
576.51	10740	
576.71	8761.9	
576.9	9661.6	
577.09	10978	
577.28	10553	
577.48	9047.2	
577.67	8419.2	
577.86	10484	
578.05	10611	
578.25	8882	
578.44	8860.9	
578.63	10419	
578.83	11196	
579.02	8558.5	
579.21	9529.2	
579.4	10546	
579.6	10458	
579.79	9007	
579.98	10434	
580.17	10875	
580.37	10993	
580.56	8716.2	
580.75	9168.1	
580.94	11050	
581.14	11096	
581.33	9528.5	
581.52	8755.7	
581.71	10795	
581.91	11272	
582.1	8663.6	
582.29	8964.6	
582.48	10583	
582.68	10580	
582.87	9350.3	
583.06	9143.5	
583.25	10780	
583.45	10703	
583.64	9637.7	
583.83	9959.3	
584.02	10635	
584.21	10960	
584.41	9536	
584.6	9166	
584.79	10703	
584.98	11136	
585.18	8903.2	
585.37	8770.8	
585.56	10490	
585.75	10987	
585.94	8937.3	
586.14	9446.6	
586.33	11267	
586.52	10677	
586.71	9336	
586.91	9165.3	
587.1	10249	
587.29	10912	
587.48	8933.2	
587.67	8902.5	
587.87	10830	
588.06	10682	
588.25	9761.3	
588.44	9221.3	
588.63	10433	
588.83	10867	
589.02	8852.7	
589.21	8824.7	
589.4	10394	
589.59	10375	
589.78	8236.2	
589.98	8372.8	
590.17	9867.1	
590.36	10144	
590.55	7866.9	
590.74	8277.2	
590.94	10760	
591.13	9863	
591.32	8039.6	
591.51	7643.7	
591.7	9996.1	
591.89	9698.5	
592.09	7836.9	
592.28	8087.4	
592.47	9224.1	
592.66	10666	
592.85	7954.3	
593.05	8122.2	
593.24	9841.9	
593.43	10353	
593.62	8164.6	
593.81	8467	
594	9880.8	
594.19	9873.9	
594.39	8055.3	
594.58	8045.8	
594.77	10139	
594.96	10356	
595.15	8034.2	
595.34	8441	
595.54	9957.9	
595.73	9308.7	
595.92	7628	
596.11	8362.5	
596.3	10255	
596.49	9504.6	
596.68	8125	
596.88	8307.2	
597.07	10051	
597.26	9367.4	
597.45	7888.1	
597.64	8589.2	
597.83	9590	
598.02	9923.1	
598.22	7899	
598.41	8407.6	
598.6	9870.5	
598.79	9419.3	
598.98	7944.1	
599.17	8576.2	
599.36	9960.6	
599.55	10576	
599.74	9271.2	
599.94	9140.8	
600.13	10236	
600.32	9357.2	
600.51	7750.2	
600.7	7830.7	
600.89	10637	
601.08	10656	
601.27	7799.3	
601.47	8391.2	
601.66	10180	
601.85	10511	
602.04	8160.5	
602.23	8257.4	
602.42	9559.9	
602.61	9931.3	
602.8	8077.2	
602.99	7909.9	
603.18	9754.5	
603.37	9841.2	
603.57	8321.6	
603.76	8758.5	
603.95	10281	
604.14	10076	
604.33	8102.4	
604.52	8256.7	
604.71	9964.1	
604.9	9595.4	
605.09	8686.1	
605.28	8506.6	
605.47	10346	
605.66	9977.7	
605.86	8432.2	
606.05	8000.7	
606.24	10264	
606.43	9368.1	
606.62	8393.9	
606.81	8756.4	
607	10215	
607.19	9676	
607.38	7869	
607.57	8009.6	
607.76	9567.4	
607.95	9215.9	
608.14	8297.7	
608.33	8711.4	
608.52	9490.3	
608.72	10207	
608.91	7792.5	
609.1	7767.9	
609.29	9650.7	
609.48	9222.7	
609.67	8310	
609.86	7794.6	
610.05	9414.5	
610.24	9565.4	
610.43	7779.6	
610.62	7556.3	
610.81	10275	
611	10115	
611.19	7771.4	
611.38	8326.4	
611.57	9778.4	
611.76	10518	
611.95	7658	
612.14	7574.1	
612.33	9577	
612.52	9338.1	
612.71	7916.1	
612.9	7548.8	
613.09	9146.9	
613.28	10535	
613.47	7914	
613.66	8467	
613.85	9764.7	
614.04	9379.7	
614.24	7879.9	
614.43	7287.4	
614.62	9801.6	
614.81	9811.8	
615	8091.5	
615.19	8135.9	
615.38	9306	
615.57	9708.7	
615.76	8217.1	
615.95	8874.5	
616.14	9977	
616.33	9727.2	
616.52	8479.3	
616.71	8467	
616.9	9878.7	
617.09	9663	
617.28	7970	
617.47	8699.1	
617.66	9297.1	
617.85	9392.7	
618.04	8492.2	
618.22	8200.7	
618.41	9659.6	
618.6	10159	
618.79	8264.9	
618.98	8030.8	
619.17	10456	
619.36	9255.5	
619.55	8217.8	
619.74	8333.9	
619.93	10023	
620.12	9622	
620.31	8615.1	
620.5	8749.6	
620.69	10391	
620.88	10793	
621.07	9189.2	
621.26	8740.7	
621.45	10204	
621.64	10238	
621.83	8772.8	
622.02	8259.5	
622.21	10245	
622.4	10159	
622.59	9065	
622.78	8939.4	
622.97	9914.2	
623.16	10566	
623.35	8854.7	
623.54	8216.5	
623.72	10015	
623.91	10101	
624.1	9069.8	
624.29	8103.8	
624.48	10883	
624.67	10454	
624.86	8799.4	
625.05	8318.8	
625.24	11032	
625.43	10004	
625.62	9985.9	
625.81	8484.1	
626	10553	
626.19	10163	
626.38	8881.4	
626.56	8619.9	
626.75	10030	
626.94	10519	
627.13	9024	
627.32	8168	
627.51	10373	
627.7	11189	
627.89	8167.3	
628.08	8976.9	
628.27	9958.6	
628.46	10002	
628.65	8269	
628.83	8064.2	
629.02	10332	
629.21	9821.4	
629.4	8738	
629.59	8781	
629.78	9812.5	
629.97	10394	
630.16	8755.7	
630.35	8471.8	
630.54	10893	
630.72	10639	
630.91	8591.2	
631.1	8752.3	
631.29	10193	
631.48	10306	
631.67	8816.5	
631.86	8501.8	
632.05	10094	
632.24	10079	
632.42	8312	
632.61	8704.5	
632.8	10092	
632.99	9836.4	
633.18	8823.3	
633.37	8936	
633.56	10236	
633.75	10290	
633.93	8817.2	
634.12	8609	
634.31	10796	
634.5	10611	
634.69	8612.4	
634.88	8978.3	
635.07	10257	
635.25	10496	
635.44	9131.2	
635.63	9299.1	
635.82	10032	
636.01	9487.6	
636.2	9016.5	
636.39	8806.9	
636.57	10815	
636.76	10413	
636.95	8443.8	
637.14	9285.5	
637.33	10335	
637.52	10826	
637.7	8308.6	
637.89	9035	
638.08	10226	
638.27	11039	
638.46	8957.8	
638.65	9208.4	
638.83	10918	
639.02	9923.1	
639.21	8844.5	
639.4	9220	
639.59	10202	
639.78	10048	
639.96	8331.1	
640.15	8390.5	
640.34	10131	
640.53	10119	
640.72	8206.2	
640.91	8408.3	
641.09	9660.3	
641.28	10593	
641.47	8430.8	
641.66	8870.4	
641.85	10094	
642.03	10288	
642.22	8770.1	
642.41	8416.5	
642.6	9770.2	
642.79	9353.8	
642.97	8226.7	
643.16	8600.8	
643.35	9743.6	
643.54	9557.9	
643.73	8140	
643.91	8620.6	
644.1	9396.8	
644.29	9945.6	
644.48	8192.6	
644.67	8224.6	
644.85	9356.5	
645.04	9847.3	
645.23	7769.3	
645.42	8144.1	
645.6	9419.3	
645.79	10043	
645.98	7895.6	
646.17	7221.8	
646.36	8966.7	
646.54	9252	
646.73	8213	
646.92	7527.7	
647.11	9138.7	
647.29	9729.9	
647.48	7636.9	
647.67	7393.8	
647.86	9954.5	
648.05	9876.7	
648.23	7787.7	
648.42	8512.7	
648.61	9460.9	
648.8	9369.5	
648.98	7490.8	
649.17	7673.1	
649.36	8958.5	
649.55	8729.1	
649.73	7516	
649.92	8034.2	
650.11	9015.8	
650.3	9256.1	
650.48	7558.4	
650.67	7493.5	
650.86	9327.8	
651.05	8727.8	
651.23	7580.2	
651.42	7458.7	
651.61	9022	
651.79	8856.8	
651.98	7651.2	
652.17	7386.3	
652.36	9142.1	
652.54	8598.7	
652.73	7447.1	
652.92	7344	
653.11	9358.5	
653.29	9338.7	
653.48	6954.2	
653.67	7593.2	
653.85	9146.9	
654.04	9747.6	
654.23	7717.4	
654.42	7348.8	
654.6	8632.2	
654.79	9093.7	
654.98	7068.2	
655.16	7359.7	
655.35	8358.4	
655.54	8131.1	
655.73	6824.5	
655.91	6679.8	
656.1	8769.4	
656.29	8026.7	
656.47	6505	
656.66	7578.8	
656.85	8307.9	
657.03	8389.2	
657.22	6961.7	
657.41	7021.8	
657.59	8488.8	
657.78	8407.6	
657.97	6818.4	
658.16	7357	
658.34	9062.9	
658.53	9294.4	
658.72	7830.7	
658.9	8245.1	
659.09	8682	
659.28	8736	
659.46	7144.7	
659.65	7159.7	
659.84	8543.4	
660.02	9028.8	
660.21	7252.5	
660.4	7109.9	
660.58	9216.5	
660.77	8729.1	
660.96	7613.7	
661.14	6820.4	
661.33	9540.8	
661.52	9364.7	
661.7	6852.5	
661.89	9014.5	
662.08	8502.5	
662.26	8169.3	
662.45	7052.5	
662.64	7079.1	
662.82	9127.8	
663.01	8471.1	
663.2	7028.6	
663.38	7516	
663.57	8819.2	
663.75	8853.4	
663.94	7330.4	
664.13	8063.5	
664.31	8503.2	
664.5	8882	
664.69	7403.4	
664.87	7841.7	
665.06	8404.2	
665.25	8766.7	
665.43	7969.3	
665.62	7941.3	
665.8	8914.1	
665.99	8640.4	
666.18	7257.3	
666.36	7374.1	
666.55	8940.1	
666.74	8940.7	
666.92	7045.7	
667.11	8083.3	
667.29	8643.1	
667.48	8914.1	
667.67	7670.3	
667.85	7240.3	
668.04	8433.5	
668.22	8543.4	
668.41	7278.5	
668.6	7473.7	
668.78	8362.5	
668.97	8536.6	
669.15	7494.9	
669.34	6811.5	
669.53	8401.5	
669.71	8654.7	
669.9	6952.2	
670.08	7328.3	
670.27	8320.9	
670.46	8712.7	
670.64	7449.1	
670.83	7665.5	
671.01	8240.3	
671.2	8632.2	
671.38	7004.7	
671.57	6925.5	
671.76	9066.4	
671.94	9471.9	
672.13	6905.8	
672.31	7432.8	
672.5	8869.1	
672.69	8361.2	
672.87	6953.5	
673.06	7161.7	
673.24	8718.2	
673.43	8412.4	
673.61	7393.2	
673.8	7122.8	
673.98	8790.6	
674.17	8929.1	
674.36	7552.2	
674.54	7415.7	
674.73	8540.7	
674.91	8851.3	
675.1	7234.8	
675.28	6912.6	
675.47	8530.5	
675.65	8884.1	
675.84	7175.4	
676.03	7345.4	
676.21	8447.2	
676.4	8023.9	
676.58	7723.6	
676.77	7527.7	
676.95	9394.7	
677.14	8352.3	
677.32	6911.9	
677.51	6879.1	
677.69	8886.1	
677.88	8305.2	
678.06	6904.4	
678.25	6948.8	
678.44	8540	
678.62	8303.1	
678.81	6793.8	
678.99	7421.2	
679.18	9116.2	
679.36	8753.7	
679.55	7127.6	
679.73	7534.5	
679.92	8797.4	
680.1	8359.1	
680.29	7929.1	
680.47	7208.2	
680.66	8380.3	
680.84	8901.2	
681.03	6771.9	
681.21	7386.3	
681.4	8400.1	
681.58	8312	
681.77	7040.2	
681.95	7004.7	
682.14	8930.5	
682.32	9069.8	
682.51	7579.5	
682.69	6750.8	
682.88	8342.7	
683.06	8574.2	
683.25	7409.6	
683.43	7707.2	
683.62	8600.8	
683.8	8763.3	
683.99	7783	
684.17	7250.5	
684.36	9300.5	
684.54	8439.7	
684.73	6752.8	
684.91	6859.3	
685.1	8559.8	
685.28	8084.7	
685.46	6965.1	
685.65	6900.3	
685.83	8309.3	
686.02	7839.6	
686.2	6341.2	
686.39	6338.5	
686.57	7621.2	
686.76	8604.9	
686.94	6527.6	
687.13	6590.4	
687.31	8271.7	
687.5	8120.9	
687.68	6297.5	
687.86	7049.1	
688.05	9258.9	
688.23	7656.7	
688.42	7146	
688.6	6719.4	
688.79	8030.1	
688.97	8046.5	
689.16	6973.3	
689.34	6309.1	
689.52	8555.7	
689.71	8827.4	
689.89	7221.1	
690.08	6774	
690.26	8377.6	
690.45	8239.7	
690.63	7341.3	
690.81	6996.5	
691	8271.7	
691.18	8194.6	
691.37	7025.9	
691.55	8397.4	
691.74	8019.2	
691.92	9366.7	
692.1	7042.3	
692.29	6576	
692.47	8223.3	
692.66	7752.9	
692.84	6705.7	
693.02	7064.8	
693.21	7897.7	
693.39	8240.3	
693.58	7254.6	
693.76	6716.7	
693.94	9016.5	
694.13	8994	
694.31	6964.5	
694.5	7643	
694.68	8226.7	
694.86	8478.6	
695.05	7285.3	
695.23	7296.9	
695.42	8845.2	
695.6	10256	
695.78	7806.2	
695.97	7211.6	
696.15	8942.8	
696.34	8572.8	
696.52	7079.1	
696.7	7534.5	
696.89	8782.4	
697.07	8277.2	
697.25	7376.1	
697.44	8432.2	
697.62	8735.3	
697.81	8811	
697.99	7188.4	
698.17	7613.7	
698.36	8312.7	
698.54	8758.5	
698.72	7414.3	
698.91	6771.3	
699.09	8411	
699.28	8276.5	
699.46	7178.1	
699.64	7098.3	
699.83	8334.6	
700.01	8968.7	
700.19	7698.3	
700.38	6655.2	
700.56	9025.4	
700.74	8356.4	
700.93	6793.1	
701.11	7393.2	
701.29	8663.6	
701.48	9538.8	
701.66	7032.7	
701.84	7206.8	
702.03	8516.1	
702.21	9008.3	
702.39	6925.5	
702.58	7329	
702.76	8903.9	
702.94	8955.1	
703.13	6880.5	
703.31	8574.2	
703.49	8503.2	
703.68	9430.2	
703.86	7090.1	
704.04	7705.1	
704.23	8793.3	
704.41	9041.1	
704.59	7251.2	
704.78	7802.1	
704.96	9850	
705.14	8918.2	
705.33	7050.5	
705.51	7494.2	
705.69	8623.3	
705.87	9195.4	
706.06	7631.4	
706.24	7007.5	
706.42	8879.3	
706.61	9047.2	
706.79	7720.2	
706.97	6941.2	
707.16	8532.5	
707.34	8805.6	
707.52	7638.2	
707.7	7205.4	
707.89	8434.2	
708.07	8350.9	
708.25	7706.5	
708.44	7980.3	
708.62	8467.7	
708.8	9211.8	
708.98	7887.4	
709.17	7255.3	
709.35	8773.5	
709.53	8665	
709.72	6972.7	
709.9	7000	
710.08	9000.1	
710.26	8910	
710.45	7934.5	
710.63	7148.1	
710.81	8570.7	
710.99	8639	
711.18	7454.6	
711.36	7149.5	
711.54	8472.4	
711.72	8916.2	
711.91	7215.7	
712.09	6876.4	
712.27	8604.9	
712.45	8895	
712.64	7216.4	
712.82	6580.8	
713	8030.1	
713.18	8094.9	
713.37	6579.4	
713.55	7354.3	
713.73	8595.3	
713.91	7640.3	
714.1	6686.6	
714.28	6240.8	
714.46	8138.6	
714.64	7544.7	
714.83	5681.1	
715.01	6100.2	
715.19	7294.9	
715.37	6773.3	
715.55	5638.1	
715.74	5776	
715.92	7682.6	
716.1	6288.6	
716.28	6508.4	
716.47	5807.4	
716.65	6806.1	
716.83	6765.1	
717.01	5648.3	
717.19	5646.9	
717.38	8142.7	
717.56	6467.5	
717.74	5716.6	
717.92	5152	
718.1	7302.4	
718.29	6787	
718.47	5024.3	
718.65	5479.7	
718.83	7451.2	
719.01	7466.2	
719.2	5190.9	
719.38	6040.8	
719.56	7406.8	
719.74	8452	
719.92	5838.8	
720.11	6431.3	
720.29	7544.7	
720.47	6882.5	
720.65	5440.1	
720.83	5942.5	
721.02	7000	
721.2	6730.3	
721.38	5794.4	
721.56	5253.7	
721.74	6221.7	
721.92	6338.5	
722.11	6042.2	
722.29	5793	
722.47	7225.9	
722.65	6590.4	
722.83	5269.4	
723.01	5720	
723.2	6679.8	
723.38	6865.5	
723.56	4796.3	
723.74	5561.6	
723.92	6343.2	
724.1	7027.9	
724.29	5112.4	
724.47	5770.5	
724.65	6495.5	
724.83	6340.5	
725.01	5048.9	
725.19	5533.6	
725.37	6293.4	
725.56	6248.4	
725.74	4949.9	
725.92	5063.3	
726.1	6353.5	
726.28	6517.3	
726.46	5304.9	
726.64	5140.4	
726.83	6448.4	
727.01	6581.5	
727.19	4839.4	
727.37	5393.7	
727.55	6634.7	
727.73	6875	
727.91	4811.4	
728.09	4717.8	
728.28	6882.5	
728.46	7009.5	
728.64	5410.7	
728.82	5395.7	
729	7568.6	
729.18	7060	
729.36	4861.2	
729.54	6308.4	
729.72	7787.1	
729.91	6711.9	
730.09	6232	
730.27	5455.8	
730.45	6697.5	
730.63	7077.8	
730.81	5775.3	
730.99	5182	
731.17	7454.6	
731.35	6532.3	
731.53	5588.9	
731.71	5428.5	
731.9	7224.6	
732.08	7291.5	
732.26	5510.4	
732.44	5196.4	
732.62	7318.1	
732.8	7066.2	
732.98	5712.5	
733.16	5072.8	
733.34	6930.3	
733.52	6020.3	
733.7	5315.8	
733.88	5483.1	
734.07	6706.4	
734.25	6613.6	
734.43	5038	
734.61	5980.1	
734.79	7578.2	
734.97	6552.1	
735.15	5053.7	
735.33	5274.9	
735.51	6766.5	
735.69	6490.7	
735.87	5907	
736.05	5370.5	
736.23	6664.1	
736.41	6402.6	
736.59	5130.2	
736.77	5336.3	
736.95	6896.2	
737.13	6442.9	
737.32	4938.3	
737.5	5143.8	
737.68	7256.6	
737.86	6344.6	
738.04	4860.5	
738.22	5948	
738.4	6300.2	
738.58	6413.6	
738.76	5122	
738.94	4519.2	
739.12	6349.4	
739.3	6176.7	
739.48	5517.2	
739.66	5329.5	
739.84	6460	
740.02	6363.7	
740.2	4549.9	
740.38	4779.3	
740.56	6673.6	
740.74	5837.4	
740.92	5201.2	
741.1	5068	
741.28	6295.5	
741.46	6035.4	
741.64	4862.6	
741.82	5142.4	
742	6187.6	
742.18	6137.8	
742.36	4880.3	
742.54	4666.6	
742.72	6614.9	
742.9	5711.1	
743.08	5080.3	
743.26	4285	
743.44	6525.5	
743.62	6439.5	
743.8	5190.9	
743.98	4579.3	
744.16	6276.3	
744.34	6095.4	
744.52	5094	
744.7	5014.1	
744.88	6395.8	
745.06	6038.1	
745.24	4991.6	
745.42	5128.8	
745.6	6356.9	
745.78	6284.5	
745.96	4248.9	
746.14	4474.8	
746.32	6859.3	
746.5	6264.7	
746.68	4764.3	
746.86	4398.4	
747.03	6440.9	
747.21	5524.7	
747.39	4749.9	
747.57	4365.6	
747.75	5967.1	
747.93	6229.9	
748.11	4293.2	
748.29	4298	
748.47	7039.6	
748.65	5741.1	
748.83	4796.3	
749.01	4620.2	
749.19	6092.7	
749.37	5468.8	
749.55	4516.5	
749.73	4541.7	
749.91	5871.5	
750.09	5685.8	
750.26	4568.3	
750.44	4161.5	
750.62	5870.2	
750.8	5769.8	
750.98	4126	
751.16	4317.1	
751.34	5920.7	
751.52	5517.2	
751.7	4830.5	
751.88	4058.4	
752.06	6198.5	
752.24	5960.3	
752.42	4005.8	
752.59	4233.8	
752.77	5829.2	
752.95	6555.5	
753.13	4699.4	
753.31	4299.4	
753.49	5552	
753.67	5823.7	
753.85	4463.2	
754.03	4172.4	
754.21	5986.2	
754.38	6109.8	
754.56	4152.6	
754.74	3609.9	
754.92	5322.7	
755.1	5762.3	
755.28	3459	
755.46	3467.9	
755.64	6227.2	
755.82	6243.6	
755.99	3562.1	
756.17	3624.2	
756.35	4429.8	
756.53	5414.8	
756.71	2747.7	
756.89	3629.7	
757.07	5115.8	
757.25	4519.9	
757.42	3700.7	
757.6	4289.1	
757.78	5211.4	
757.96	4646.2	
758.14	3512.9	
758.32	3305.4	
758.5	4304.8	
758.67	4838.7	
758.85	3429	
759.03	3513.6	
759.21	4972.5	
759.39	4571.1	
759.57	3175	
759.75	3885.7	
759.92	5439.4	
760.1	5029.1	
760.28	4182	
760.46	4363.5	
760.64	4814.8	
760.82	4775.9	
760.99	4121.9	
761.17	3596.9	
761.35	5428.5	
761.53	4666	
761.71	3753.2	
761.89	4109.6	
762.06	5338.4	
762.24	5014.8	
762.42	3781.2	
762.6	3633.8	
762.78	4998.4	
762.96	5460.6	
763.13	4027	
763.31	3784	
763.49	5483.8	
763.67	5003.2	
763.85	4375.1	
764.02	4659.8	
764.2	5767.8	
764.38	5073.5	
764.56	3732.1	
764.74	4267.3	
764.91	5719.3	
765.09	5034.6	
765.27	3571	
765.45	3412.6	
765.63	5874.9	
765.8	5670.1	
765.98	3306.8	
766.16	3418.7	
766.34	4745.1	
766.52	4631.1	
766.69	4039.3	
766.87	3345	
767.05	5039.4	
767.23	5433.3	
767.41	3537.5	
767.58	3700.7	
767.76	5409.4	
767.94	5468.8	
768.12	3602.4	
768.29	4020.2	
768.47	5022.3	
768.65	5476.3	
768.83	3310.9	
769	4008.6	
769.18	4754	
769.36	5201.8	
769.54	4037.2	
769.72	3293.8	
769.89	5477.6	
770.07	5450.3	
770.25	3592.1	
770.43	4343.1	
770.6	5925.5	
770.78	6011.5	
770.96	3660.4	
771.14	3983.3	
771.31	5318.6	
771.49	4883.7	
771.67	3108.1	
771.85	3241.3	
772.02	4397	
772.2	4853.7	
772.38	3757.3	
772.55	3343	
772.73	5065.3	
772.91	4863.9	
773.09	3594.9	
773.26	3705.5	
773.44	5063.3	
773.62	4820.9	
773.8	3230.3	
773.97	3176.4	
774.15	5030.5	
774.33	4800.4	
774.5	3166.8	
774.68	3452.9	
774.86	5134.9	
775.04	4784.1	
775.21	3282.2	
775.39	3162.7	
775.57	5027.8	
775.74	5156.8	
775.92	3121.1	
776.1	3046.7	
776.27	4977.2	
776.45	5780.1	
776.63	3289	
776.81	2974.3	
776.98	4702.8	
777.16	5353.4	
777.34	3338.2	
777.51	3523.9	
777.69	4749.2	
777.87	4535.6	
778.04	3403.7	
778.22	3747.8	
778.4	4521.2	
778.57	4954	
778.75	2828.2	
778.93	3022.1	
779.1	4526.7	
779.28	4273.4	
779.46	2881.5	
779.64	3190.7	
779.81	5076.9	
779.99	5598.5	
780.17	3664.5	
780.34	3760.1	
780.52	4788.8	
780.69	4822.3	
780.87	3398.9	
781.05	3090.4	
781.22	4820.9	
781.4	4801.8	
781.58	3227.6	
781.75	2635.7	
781.93	4810	
782.11	4303.5	
782.28	3769.6	
782.46	3127.9	
782.64	4286.4	
782.81	4834.6	
782.99	3315	
783.17	3173.7	
783.34	4743.8	
783.52	4408.6	
783.69	3343.7	
783.87	3841.3	
784.05	4343.1	
784.22	4321.9	
784.4	3811.3	
784.58	3342.3	
784.75	5054.4	
784.93	4440.7	
785.1	3129.3	
785.28	3547.8	
785.46	4864.6	
785.63	4315.1	
785.81	3134.8	
785.99	3041.2	
786.16	4530.1	
786.34	4674.1	
786.51	3079.5	
786.69	3334.8	
786.87	4129.4	
787.04	4504.2	
787.22	2941.6	
787.39	3622.9	
787.57	4348.5	
787.75	5049.6	
787.92	3753.9	
788.1	3604.4	
788.27	4324.6	
788.45	4067.9	
788.63	3453.6	
788.8	2588.6	
788.98	4676.9	
789.15	4042.7	
789.33	2754.5	
789.5	3165.5	
789.68	4962.9	
789.86	5005.2	
790.03	3434.4	
790.21	3043.3	
790.38	4995	
790.56	4452.3	
790.73	3009.1	
790.91	3003.7	
791.09	4330.8	
791.26	4810.7	
791.44	3118.4	
791.61	2746.3	
791.79	4374.5	
791.96	4308.9	
792.14	2856.2	
792.32	2534	
792.49	4304.1	
792.67	4419.5	
792.84	2966.1	
793.02	2785.9	
793.19	4652.3	
793.37	5048.9	
793.54	2592	
793.72	2788.7	
793.89	5137	
794.07	4253.6	
794.25	3247.4	
794.42	2633.7	
794.6	5005.2	
794.77	4743.8	
794.95	3323.9	
795.12	2941.6	
795.3	4373.8	
795.47	4669.4	
795.65	3192.8	
795.82	3113.6	
796	4186.7	
796.17	5428.5	
796.35	3069.9	
796.52	3588	
796.7	4723.3	
796.87	4788.2	
797.05	3085.6	
797.22	3538.9	
797.4	4714.4	
797.57	5342.5	
797.75	3141.6	
797.92	2968.9	
798.1	5004.6	
798.27	4151.9	
798.45	2646	
798.62	2767.5	
798.8	4502.1	
798.97	4799.1	
799.15	3258.3	
799.32	3181.2	
799.5	4025.6	
799.67	4484.4	
799.85	3429	
800.02	2592	
800.2	4327.4	
800.37	4393.6	
800.55	3465.2	
800.72	2972.3	
800.9	4826.4	
801.07	5079	
801.25	3821.5	
801.42	3232.4	
801.6	4795	
801.77	4503.5	
801.95	3014.6	
802.12	2918.4	
802.29	4610.7	
802.47	4528.7	
802.64	3274	
802.82	2510.8	
802.99	4271.4	
803.17	4879.6	
803.34	3149.8	
803.52	2866.5	
803.69	5300.1	
803.87	4093.2	
804.04	3078.1	
804.21	3088.3	
804.39	5049.6	
804.56	4397.7	
804.74	2734.7	
804.91	3229	
805.09	4244.8	
805.26	4347.8	
805.44	2755.9	
805.61	3003	
805.78	4767	
805.96	4727.4	
806.13	3182.5	
806.31	3427.6	
806.48	3956.7	
806.66	4342.4	
806.83	3207.8	
807	3144.3	
807.18	4320.5	
807.35	4469.4	
807.53	3125.2	
807.7	2607.7	
807.87	4985.4	
808.05	4298.7	
808.22	3340.9	
808.4	2622.8	
808.57	4160.8	
808.74	4024.9	
808.92	2962.7	
809.09	3568.2	
809.27	4235.2	
809.44	4543.1	
809.61	2639.1	
809.79	2828.9	
809.96	5134.3	
810.14	4677.6	
810.31	2579.8	
810.48	3059	
810.66	4350.6	
810.83	4809.3	
811.01	2953.9	
811.18	3181.9	
811.35	4731.5	
811.53	3873.4	
811.7	3417.4	
811.87	3164.8	
812.05	4386.1	
812.22	4182.6	
812.39	2862.4	
812.57	2784.6	
812.74	4302.8	
812.92	5364.3	
813.09	3095.8	
813.26	3140.9	
813.44	5188.9	
813.61	4188.1	
813.78	2591.4	
813.96	3254.2	
814.13	4270	
814.3	4085.7	
814.48	3555.3	
814.65	3003.7	
814.82	5199.1	
815	4022.9	
815.17	3124.5	
815.34	3708.2	
815.52	4218.1	
815.69	4186	
815.87	3024.8	
816.04	2979.1	
816.21	4205.8	
816.38	3907.5	
816.56	3019.4	
816.73	2817.3	
816.9	5179.3	
817.08	4680.3	
817.25	2897.9	
817.42	3368.9	
817.6	3967.6	
817.77	4213.4	
817.94	3134.1	
818.12	2818	
818.29	4106.9	
818.46	5738.4	
818.64	2963.4	
818.81	2738.8	
818.98	4111	
819.16	5421.7	
819.33	3269.9	
819.5	3072.6	
819.67	4478.9	
819.85	4909	
820.02	3041.9	
820.19	3192.8	
820.37	4437.3	
820.54	4156	
820.71	3147	
820.88	3769.6	
821.06	4388.1	
821.23	4122.6	
821.4	3175	
821.58	3137.5	
821.75	4708.3	
821.92	4420.9	
822.09	2652.8	
822.27	2772.3	
822.44	4310.3	
822.61	4210.6	
822.79	2612.5	
822.96	4609.3	
823.13	4460.5	
823.3	3992.2	
823.48	2988.7	
823.65	2722.4	
823.82	4710.3	
823.99	4011.3	
824.17	3658.4	
824.34	2721.8	
824.51	5367.7	
824.68	4296.6	
824.86	2887.6	
825.03	3131.3	
825.2	4301.4	
825.37	4870.8	
825.55	2820.7	
825.72	3005.1	
825.89	5242.1	
826.06	4956.8	
826.24	2990	
826.41	3018	
826.58	5009.3	
826.75	4382.7	
826.92	2549	
827.1	2759.3	
827.27	6419.7	
827.44	5220.3	
827.61	2870.6	
827.79	3362.8	
827.96	4152.6	
828.13	4266.6	
828.3	3032.4	
828.47	2533.3	
828.65	4546.5	
828.82	4467.3	
828.99	3590.1	
829.16	3323.9	
829.34	4764.9	
829.51	4577.2	
829.68	3046.7	
829.85	3065.1	
830.02	5048.2	
830.2	4760.8	
830.37	2473.3	
830.54	3500	
830.71	5247.6	
830.88	4306.2	
831.05	2478.7	
831.23	2824.1	
831.4	5137.7	
831.57	5488.6	
831.74	2835.1	
831.91	2576.3	
832.09	4601.1	
832.26	4745.1	
832.43	2904.7	
832.6	3232.4	
832.77	4490.5	
832.94	5025.7	
833.12	2417.3	
833.29	2907.4	
833.46	4248.2	
833.63	5653.8	
833.8	3158	
833.97	2926.5	
834.15	4816.1	
834.32	4652.3	
834.49	2974.3	
834.66	3068.5	
834.83	4826.4	
835	4172.4	
835.17	2848	
835.35	2874.7	
835.52	4700.1	
835.69	4584	
835.86	2923.8	
836.03	2508.8	
836.2	4724.7	
836.37	4487.8	
836.55	2887	
836.72	2737.5	
836.89	4458.4	
837.06	4788.8	
837.23	2943.6	
837.4	3167.5	
837.57	5319.3	
837.75	5743.2	
837.92	2723.1	
838.09	2809.8	
838.26	4471.4	
838.43	4903.5	
838.6	3026.9	
838.77	2719.7	
838.94	5356.8	
839.11	5314.5	
839.29	2917.7	
839.46	2349	
839.63	4736.3	
839.8	4552.6	
839.97	2820.7	
840.14	2852.1	
840.31	4687.1	
840.48	4745.1	
840.65	2457.6	
840.82	2831.7	
841	4721.9	
841.17	4668.7	
841.34	2588.6	
841.51	2709.5	
841.68	4728.8	
841.85	4500.8	
842.02	2777	
842.19	2326.5	
842.36	4623.6	
842.53	4569.7	
842.7	2681.5	
842.87	3084.2	
843.05	5670.1	
843.22	4467.3	
843.39	2510.8	
843.56	2733.4	
843.73	4402.5	
843.9	4818.9	
844.07	3992.2	
844.24	3324.5	
844.41	6213.5	
844.58	4188.8	
844.75	2572.2	
844.92	2745	
845.09	4652.3	
845.26	4671.4	
845.43	2652.1	
845.6	2844.6	
845.77	4688.5	
845.94	4506.9	
846.12	2901.3	
846.29	2977.7	
846.46	4909.7	
846.63	4638	
846.8	2620.7	
846.97	3103.4	
847.14	5036	
847.31	4709.6	
847.48	2972.3	
847.65	3215.3	
847.82	4795.7	
847.99	4796.3	
848.16	3372.3	
848.33	3183.9	
848.5	4379.2	
848.67	5029.8	
848.84	2569.5	
849.01	2755.9	
849.18	4359.4	
849.35	4154.6	
849.52	3197.6	
849.69	2590.7	
849.86	4909	
850.03	4891.2	
850.2	2675.3	
850.37	3142.9	
850.54	4913.1	
850.71	4429.8	
850.88	3055.6	
851.05	2620.7	
851.22	4632.5	
851.39	5085.1	
851.56	2510.1	
851.73	2949.8	
851.9	4224.3	
852.07	4901.5	
852.24	2889	
852.41	2551.1	
852.58	4658.4	
852.75	4226.3	
852.92	2921.1	
853.09	2573.6	
853.26	4428.4	
853.43	4954	
853.6	2594.8	
853.77	2291.7	
853.94	5099.4	
854.11	4225	
854.28	3676.1	
854.44	2824.1	
854.61	5336.3	
854.78	4908.3	
854.95	2582.5	
855.12	3216	
855.29	3949.8	
855.46	5061.9	
855.63	2654.9	
855.8	3513.6	
855.97	4395.6	
856.14	4903.5	
856.31	3629	
856.48	2822.8	
856.65	4433.9	
856.82	4182	
856.99	2524.5	
857.16	2770.9	
857.33	5483.8	
857.49	4494.6	
857.66	2806.4	
857.83	2975.7	
858	4480.3	
858.17	4573.1	
858.34	2517	
858.51	2636.4	
858.68	5121.3	
858.85	5061.9	
859.02	3010.5	
859.19	3113.6	
859.36	4231.8	
859.52	4202.4	
859.69	2635.7	
859.86	3013.2	
860.03	4258.4	
860.2	5079.6	
860.37	2437.8	
860.54	2678.1	
860.71	4866.7	
860.88	5042.1	
861.05	2902	
861.21	3235.1	
861.38	5096.7	
861.55	4092.5	
861.72	2396.1	
861.89	2934.7	
862.06	4854.4	
862.23	5146.5	
862.4	2532.7	
862.56	2689.7	
862.73	4765.6	
862.9	4537.6	
863.07	2970.9	
863.24	2465.1	
863.41	4204.5	
863.58	4266.6	
863.75	2683.5	
863.91	3025.5	
864.08	4952.7	
864.25	4805.9	
864.42	3197.6	
864.59	3573	
864.76	5343.2	
864.93	4255	
865.09	2557.2	
865.26	2731.3	
865.43	5008	
865.6	5274.9	
865.77	2355.8	
865.94	2594.8	
866.1	5000.5	
866.27	4738.3	
866.44	3754.6	
866.61	2501.3	
866.78	4476.2	
866.95	4739.7	
867.11	2590.7	
867.28	2396.1	
867.45	4945.8	
867.62	4205.2	
867.79	3023.5	
867.96	2585.2	
868.12	4151.2	
868.29	4782	
868.46	2612.5	
868.63	3343	
868.8	4863.9	
868.97	4789.5	
869.13	2704.7	
869.3	2747	
869.47	4681	
869.64	4859.1	
869.81	2645.3	
869.97	2656.9	
870.14	4593.6	
870.31	5060.5	
870.48	2560	
870.65	3211.2	
870.81	4435.9	
870.98	4434.5	
871.15	2950.4	
871.32	2704.7	
871.48	4755.4	
871.65	5111	
871.82	2579.8	
871.99	2872.6	
872.16	5373.2	
872.32	4995.7	
872.49	2707.4	
872.66	2633.7	
872.83	4868	
872.99	4344.4	
873.16	2937.5	
873.33	2643.9	
873.5	4553.3	
873.67	4599.7	
873.83	2800.3	
874	3322.5	
874.17	4704.2	
874.34	5264	
874.5	3269.2	
874.67	3203	
874.84	5061.2	
875.01	4103.4	
875.17	3517	
875.34	2608.4	
875.51	4656.4	
875.68	5386.2	
875.84	3095.2	
876.01	3624.2	
876.18	4821.6	
876.34	4734.9	
876.51	2654.9	
876.68	2572.2	
876.85	4425.7	
877.01	5032.5	
877.18	3551.9	
877.35	2598.9	
877.52	4661.2	
877.68	4191.5	
877.85	2583.9	
878.02	2586.6	
878.18	4362.2	
878.35	4362.9	
878.52	2167.4	
878.69	2991.4	
878.85	4899.4	
879.02	4753.3	
879.19	3497.2	
879.35	2777.7	
879.52	4798.4	
879.69	4858.5	
879.86	2334.7	
880.02	2920.4	
880.19	4564.2	
880.36	5311.1	
880.52	2912.9	
880.69	3048.1	
880.86	4820.2	
881.02	4876.9	
881.19	2841.2	
881.36	2826.9	
881.52	4767.7	
881.69	4291.9	
881.86	2801.6	
882.02	2723.8	
882.19	4980	
882.36	5549.3	
882.52	2704.7	
882.69	3534.8	
882.86	4657.1	
883.02	4678.2	
883.19	3120.4	
883.36	2894.5	
883.52	4870.8	
883.69	5398.4	
883.86	2674.6	
884.02	2437.1	
884.19	4824.3	
884.36	4631.1	
884.52	2904	
884.69	2756.6	
884.86	4405.2	
885.02	5173.2	
885.19	2883.5	
885.36	2932	
885.52	4532.2	
885.69	4681	
885.86	3656.3	
886.02	3250.1	
886.19	4828.4	
886.35	4438.6	
886.52	2827.6	
886.69	3482.2	
886.85	4218.1	
887.02	5018.2	
887.19	5018.2	
887.35	5018.2	
887.52	5018.2	
887.68	5018.2	
887.85	5018.2	
888.02	5018.2	
888.18	5018.2	
888.35	5018.2	
888.51	5018.2	
888.68	5018.2	
888.85	5018.2	
889.01	5018.2	
889.18	5018.2	
889.35	5018.2	
889.51	5018.2	
889.68	5018.2	
889.84	5018.2	
890.01	5018.2	
890.17	5018.2	
890.34	5018.2	
890.51	5018.2	
890.67	5018.2	
890.84	5018.2	
891	5018.2	
891.17	5018.2	
891.34	5018.2	
891.5	5018.2	
891.67	5018.2	
891.83	5018.2	
892	5018.2	
892.16	5018.2	
892.33	5018.2	
892.5	5018.2	
892.66	5018.2	
892.83	5018.2	
892.99	5018.2	
893.16	5018.2	
893.32	5018.2	
893.49	5018.2	
893.65	5018.2	
893.82	5018.2	
893.99	5018.2	
894.15	5018.2	
894.32	5018.2	
894.48	5018.2	
894.65	5018.2	
894.81	5018.2	
894.98	5018.2	
895.14	5018.2	
895.31	5018.2	
895.47	5018.2	
895.64	5018.2	
895.81	5018.2	
895.97	5018.2	
896.14	5018.2	
896.3	5018.2	
896.47	5018.2	
896.63	5018.2	
896.8	5018.2	
896.96	5018.2	
897.13	5018.2	
897.29	5018.2	
897.46	5018.2	
897.62	5018.2	
897.79	5018.2	
897.95	5018.2	
898.12	5018.2	
898.28	5018.2	
898.45	5018.2	
898.61	5018.2	
898.78	5018.2	
898.94	5018.2	
899.11	5018.2	
899.27	5018.2	
899.44	5018.2	
899.6	5018.2	
899.77	5018.2	
899.93	5018.2	
900.1	5018.2	
900.26	5018.2	
900.43	5018.2	
900.59	5018.2	
900.76	5018.2	
900.92	5018.2	
901.09	5018.2	
901.25	5018.2	
901.42	5018.2	
901.58	5018.2	
901.75	5018.2	
901.91	5018.2	
902.07	5018.2	
902.24	5018.2	
902.4	5018.2	
902.57	5018.2	
902.73	5018.2	
902.9	5018.2	
903.06	5018.2	
903.23	5018.2	
903.39	5018.2	
903.56	5018.2	
903.72	5018.2	
903.88	5018.2	
904.05	5018.2	
904.21	5018.2	
904.38	5018.2	
904.54	5018.2	
904.71	5018.2	
904.87	5018.2	
905.03	5018.2	
905.2	5018.2	
905.36	5018.2	
905.53	5018.2	
905.69	5018.2	
905.86	5018.2	
906.02	5018.2	
906.18	5018.2	
906.35	5018.2	
906.51	5018.2	
906.68	5018.2	
906.84	5018.2	
907.01	5018.2	
907.17	5018.2	
907.33	5018.2	
907.5	5018.2	
907.66	5018.2	
907.83	5018.2	
907.99	5018.2	
908.15	5018.2	
908.32	5018.2	
908.48	5018.2	
908.65	5018.2	
908.81	5018.2	
908.97	5018.2	
909.14	5018.2	
909.3	5018.2	
909.47	5018.2	
909.63	5018.2	
909.79	5018.2	
909.96	5018.2	
910.12	5018.2	
910.28	5018.2	
910.45	5018.2	
910.61	5018.2	
910.78	5018.2	
910.94	5018.2	
911.1	5018.2	
911.27	5018.2	
911.43	5018.2	
911.59	5018.2	
911.76	5018.2	
911.92	5018.2	
912.08	5018.2	
912.25	5018.2	
912.41	5018.2	
912.57	5018.2	
912.74	5018.2	
912.9	5018.2	
913.07	5018.2	
913.23	5018.2	
913.39	5018.2	
913.56	5018.2	
913.72	5018.2	
913.88	5018.2	
914.05	5018.2	
914.21	5018.2	
914.37	5018.2	
914.54	5018.2	
914.7	5018.2	
914.86	5018.2	
915.03	5018.2	
915.19	5018.2	
