Wavelength	Intensities	
nm	a.u.	
179.22	1901.7	
179.44	1892.7	
179.65	1910.8	
179.86	1874.6	
180.08	1947.6	
180.29	5041.4	
180.51	3536.2	
180.72	5698.8	
180.94	6723.5	
181.15	3291.1	
181.37	3229	
181.58	5567.1	
181.79	5894.1	
182.01	3444.7	
182.22	3687.7	
182.44	5835.3	
182.65	4878.3	
182.87	4625	
183.08	3984	
183.29	6108.4	
183.51	5020.9	
183.72	3712.3	
183.94	5475.6	
184.15	5438.7	
184.37	5477.6	
184.58	3283.6	
184.79	4509.6	
185.01	5023.7	
185.22	5795.1	
185.44	4771.8	
185.65	4002.4	
185.86	5290.6	
186.08	4889.2	
186.29	3152.5	
186.51	3425.6	
186.72	5081.7	
186.94	6053.1	
187.15	3961.5	
187.36	4106.2	
187.58	7898.3	
187.79	5523.4	
188.01	4259.8	
188.22	6718	
188.43	6694.1	
188.65	5795.8	
188.86	3392.8	
189.08	4117.8	
189.29	5253	
189.5	5297.4	
189.72	3745.1	
189.93	3861.8	
190.15	6090.7	
190.36	7266.2	
190.57	4151.9	
190.79	4043.4	
191	6152.8	
191.22	6090.7	
191.43	4196.3	
191.64	3433.1	
191.86	6282.5	
192.07	6060.6	
192.29	3580.5	
192.5	3834.5	
192.71	6038.1	
192.93	5184.8	
193.14	3744.4	
193.35	3852.2	
193.57	5246.2	
193.78	6052.4	
194	3002.3	
194.21	3705.5	
194.42	4962.2	
194.64	5504.9	
194.85	4085.7	
195.07	4818.9	
195.28	5530.2	
195.49	4752	
195.71	5096	
195.92	3525.2	
196.13	5661.3	
196.35	5769.1	
196.56	5449.6	
196.78	4061.8	
196.99	7060	
197.2	6699.6	
197.42	4629.1	
197.63	4114.4	
197.84	4862.6	
198.06	5651.7	
198.27	3818.1	
198.48	5137.7	
198.7	5245.5	
198.91	5314.5	
199.13	4180.6	
199.34	4145.8	
199.55	5919.3	
199.77	4799.8	
199.98	3588.7	
200.19	4244.8	
200.41	5345.2	
200.62	5076.2	
200.83	4308.9	
201.05	4589.5	
201.26	5369.8	
201.47	5099.4	
201.69	3732.1	
201.9	3491.1	
202.11	5449	
202.33	6500.9	
202.54	3938.9	
202.76	4417.5	
202.97	5541.1	
203.18	5475.6	
203.4	4279.6	
203.61	4203.8	
203.82	5523.4	
204.04	5154.7	
204.25	4233.2	
204.46	4041.3	
204.68	5474.9	
204.89	5732.9	
205.1	4046.1	
205.32	3463.8	
205.53	5895.4	
205.74	6051.1	
205.96	2981.8	
206.17	4207.2	
206.38	5855.1	
206.6	6006.7	
206.81	4745.8	
207.02	3904.1	
207.24	5721.3	
207.45	6185.5	
207.66	3928	
207.88	3321.8	
208.09	5674.9	
208.3	5460.6	
208.52	3585.3	
208.73	4057.7	
208.94	5468.1	
209.15	6226.5	
209.37	3926.6	
209.58	4117.8	
209.79	5991.7	
210.01	5245.5	
210.22	3140.9	
210.43	3257	
210.65	5448.3	
210.86	5922	
211.07	3895.2	
211.29	3605.8	
211.5	5788.2	
211.71	5414.1	
211.93	3577.8	
212.14	3586	
212.35	5397.1	
212.56	5687.9	
212.78	4112.3	
212.99	3402.4	
213.2	6485.2	
213.42	5253.7	
213.63	3758	
213.84	4024.3	
214.06	4856.4	
214.27	4978.6	
214.48	3951.9	
214.69	4219.5	
214.91	6193.7	
215.12	6278.4	
215.33	4256.4	
215.55	4724.7	
215.76	6769.9	
215.97	5898.1	
216.18	4067.3	
216.4	3952.6	
216.61	5156.8	
216.82	5992.4	
217.04	3616.7	
217.25	3744.4	
217.46	6197.2	
217.67	5913.2	
217.89	3235.1	
218.1	3420.1	
218.31	5561.6	
218.53	5669.5	
218.74	3846.8	
218.95	3650.8	
219.16	5419.6	
219.38	6391	
219.59	3696.6	
219.8	4425	
220.01	7086	
220.23	5522	
220.44	4853.7	
220.65	3607.8	
220.87	5530.2	
221.08	6100.2	
221.29	3335.5	
221.5	4517.1	
221.72	7532.4	
221.93	5256.5	
222.14	4200.4	
222.35	4952.7	
222.57	5518.6	
222.78	5880.4	
222.99	3943.7	
223.2	4283	
223.42	5787.6	
223.63	5954.1	
223.84	2990.7	
224.05	3014.6	
224.27	7037.5	
224.48	6441.5	
224.69	4898.1	
224.9	4113.7	
225.12	5714.5	
225.33	5440.1	
225.54	3318.4	
225.75	3727.3	
225.97	4994.3	
226.18	5330.2	
226.39	3958	
226.6	3706.8	
226.82	5269.4	
227.03	5040.7	
227.24	4188.8	
227.45	3444.7	
227.67	5821	
227.88	6517.3	
228.09	4599.7	
228.3	4635.2	
228.52	5890	
228.73	5413.5	
228.94	3815.4	
229.15	3395.5	
229.36	5388.9	
229.58	5297.4	
229.79	3892.5	
230	4543.8	
230.21	6599.2	
230.43	5576.6	
230.64	4145.8	
230.85	4311	
231.06	5883.8	
231.28	5812.8	
231.49	3411.2	
231.7	4007.2	
231.91	5793	
232.12	5604.6	
232.34	3507.5	
232.55	3992.9	
232.76	6111.8	
232.97	5698.1	
233.18	3618.1	
233.4	4067.3	
233.61	5720.7	
233.82	5330.2	
234.03	3812	
234.25	3742.3	
234.46	7705.8	
234.67	5518.6	
234.88	4255	
235.09	3674.1	
235.31	5803.3	
235.52	5382.7	
235.73	4105.5	
235.94	3473.4	
236.15	5192.3	
236.37	6741.9	
236.58	3620.1	
236.79	4012	
237	5801.2	
237.21	4963.6	
237.43	4225	
237.64	3343	
237.85	10068	
238.06	5018.2	
238.27	4311	
238.48	3423.5	
238.7	5816.9	
238.91	5378.6	
239.12	4042	
239.33	4015.4	
239.54	5068	
239.76	5422.3	
239.97	3915	
240.18	3898.6	
240.39	6898.2	
240.6	5770.5	
240.82	4168.3	
241.03	3366.2	
241.24	5472.2	
241.45	6324.1	
241.66	3639.9	
241.87	4280.9	
242.09	6189.6	
242.3	6696.2	
242.51	4358.1	
242.72	4007.9	
242.93	5984.8	
243.14	5394.3	
243.36	4628.4	
243.57	5001.1	
243.78	6348.7	
243.99	5943.2	
244.2	3988.1	
244.41	3610.6	
244.63	5057.1	
244.84	5812.1	
245.05	4314.4	
245.26	3979.2	
245.47	5746.6	
245.68	6079.7	
245.9	5272.8	
246.11	4158.1	
246.32	5266	
246.53	5716.6	
246.74	6465.4	
246.95	3342.3	
247.16	4955.4	
247.38	5488.6	
247.59	3266.5	
247.8	3954.6	
248.01	5121.3	
248.22	5449	
248.43	3569.6	
248.64	3841.3	
248.86	4782.7	
249.07	5264	
249.28	3490.4	
249.49	4080.2	
249.7	6038.1	
249.91	6231.3	
250.12	3335.5	
250.34	3420.8	
250.55	5601.2	
250.76	5513.8	
250.97	4069.3	
251.18	4194.9	
251.39	6234.7	
251.6	5634	
251.81	4277.5	
252.03	4220.2	
252.24	5225.1	
252.45	6075.6	
252.66	3464.5	
252.87	4381.3	
253.08	5423.7	
253.29	7319.4	
253.5	3429.7	
253.72	4814.1	
253.93	5345.9	
254.14	6532.3	
254.35	3769.6	
254.56	3874.8	
254.77	5711.1	
254.98	5092.6	
255.19	3691.1	
255.41	4801.1	
255.62	5625.1	
255.83	6180.8	
256.04	4327.4	
256.25	4143	
256.46	6783.6	
256.67	5183.4	
256.88	4042.7	
257.09	4582.7	
257.31	5179.3	
257.52	5156.1	
257.73	5175.9	
257.94	3747.8	
258.15	5337.7	
258.36	5472.2	
258.57	4758.8	
258.78	3024.8	
258.99	5934.3	
259.2	5339.1	
259.41	3778.5	
259.63	3910.9	
259.84	6364.4	
260.05	6813.6	
260.26	5036	
260.47	3700.7	
260.68	6091.3	
260.89	5373.9	
261.1	4605.9	
261.31	3625.6	
261.52	6105	
261.73	6533	
261.95	4953.4	
262.16	4304.1	
262.37	6229.9	
262.58	6277	
262.79	4898.7	
263	3879.5	
263.21	5494.7	
263.42	4979.3	
263.63	3923.9	
263.84	3846.1	
264.05	5993.7	
264.26	6470.2	
264.47	4768.4	
264.69	4414.7	
264.9	6262.7	
265.11	5670.8	
265.32	3698.6	
265.53	3771	
265.74	5631.2	
265.95	4892.6	
266.16	4031.8	
266.37	4432.5	
266.58	5623	
266.79	5332.9	
267	3711.6	
267.21	3475.4	
267.42	5066.7	
267.63	5497.4	
267.84	3930.1	
268.06	3365.5	
268.27	5914.5	
268.48	6216.3	
268.69	3847.5	
268.9	4571.1	
269.11	6182.1	
269.32	4926.7	
269.53	3962.1	
269.74	3677.5	
269.95	5777.3	
270.16	4808.6	
270.37	3966.9	
270.58	4632.5	
270.79	5304.9	
271	6038.1	
271.21	4279.6	
271.42	3998.3	
271.63	5582.8	
271.84	5059.2	
272.05	3212.6	
272.26	3568.9	
272.47	5515.2	
272.68	5703.6	
272.89	3814.7	
273.11	4448.9	
273.32	5273.5	
273.53	6468.2	
273.74	4325.3	
273.95	4172.4	
274.16	6199.9	
274.37	5595.7	
274.58	4345.8	
274.79	3429.7	
275	5575.9	
275.21	6227.2	
275.42	5276.9	
275.63	4520.5	
275.84	5782.8	
276.05	7266.9	
276.26	4216.1	
276.47	3908.9	
276.68	5345.9	
276.89	6512.5	
277.1	4472.8	
277.31	3509.5	
277.52	5768.4	
277.73	5935	
277.94	3453.6	
278.15	3855.6	
278.36	5679	
278.57	5134.3	
278.78	3856.3	
278.99	4273.4	
279.2	5096.7	
279.41	5022.3	
279.62	5055.8	
279.83	3506.8	
280.04	6744	
280.25	4960.9	
280.46	5016.2	
280.67	3940.3	
280.88	5115.1	
281.09	6157.6	
281.3	4199.7	
281.51	5352	
281.72	5222.3	
281.93	6040.8	
282.14	3710.9	
282.35	3999.7	
282.56	5987.6	
282.77	5999.2	
282.98	3833.1	
283.19	4700.8	
283.4	7455.3	
283.61	5447.6	
283.82	3529.3	
284.03	4942.4	
284.24	5621.7	
284.45	6180.8	
284.66	4951.3	
284.87	4784.1	
285.08	6084.5	
285.29	6283.2	
285.5	3362.8	
285.71	3892.5	
285.92	6174.6	
286.12	6819.1	
286.33	4917.9	
286.54	3893.2	
286.75	6003.3	
286.96	5355.4	
287.17	3526.6	
287.38	4794.3	
287.59	5111.7	
287.8	5015.5	
288.01	3926.6	
288.22	4470.7	
288.43	6041.5	
288.64	4990.2	
288.85	4655	
289.06	4346.5	
289.27	5945.3	
289.48	6464.8	
289.69	4971.1	
289.9	4470	
290.11	6163.7	
290.32	5166.3	
290.53	4739	
290.74	4365.6	
290.94	6016.2	
291.15	5998.5	
291.36	3744.4	
291.57	4460.5	
291.78	5315.2	
291.99	4941.1	
292.2	3547.8	
292.41	4315.8	
292.62	6047.7	
292.83	5874.3	
293.04	5347.2	
293.25	3579.8	
293.46	5243.5	
293.67	6160.3	
293.88	3746.4	
294.09	3579.2	
294.29	5016.8	
294.5	5601.9	
294.71	3901.4	
294.92	3760.1	
295.13	5276.9	
295.34	6634.7	
295.55	3306.8	
295.76	3462.4	
295.97	5906.3	
296.18	6713.2	
296.39	3521.8	
296.6	3728	
296.81	5644.2	
297.01	5929.6	
297.22	3859.7	
297.43	3707.5	
297.64	5109.7	
297.85	5130.2	
298.06	3106.1	
298.27	3362.8	
298.48	5533.6	
298.69	5200.5	
298.9	4042	
299.11	3691.8	
299.31	5033.2	
299.52	4994.3	
299.73	4325.3	
299.94	4204.5	
300.15	5484.5	
300.36	5106.3	
300.57	4232.5	
300.78	4227.7	
300.99	5403.9	
301.2	5666	
301.4	3640.6	
301.61	4022.2	
301.82	5874.9	
302.03	5975.3	
302.24	4607.9	
302.45	3527.3	
302.66	5803.3	
302.87	6284.5	
303.08	3692.5	
303.29	5057.8	
303.49	5227.1	
303.7	5479	
303.91	3284.9	
304.12	4926	
304.33	4995	
304.54	5655.8	
304.75	3729.4	
304.96	3544.4	
305.16	5867.4	
305.37	6571.2	
305.58	3236.5	
305.79	3391.4	
306	5812.1	
306.21	4922	
306.42	3728	
306.63	5722.7	
306.83	5341.1	
307.04	6114.6	
307.25	4097.3	
307.46	4104.8	
307.67	4708.3	
307.88	5979.4	
308.09	3653.6	
308.29	3820.1	
308.5	5548.6	
308.71	6077.7	
308.92	3971.7	
309.13	3597.6	
309.34	5323.4	
309.55	5409.4	
309.75	4717.8	
309.96	4255.7	
310.17	5940.5	
310.38	5199.8	
310.59	4526.7	
310.8	3506.1	
311.01	5418.9	
311.21	5372.5	
311.42	3508.2	
311.63	3655.6	
311.84	5246.9	
312.05	5659.2	
312.26	4160.8	
312.46	4543.1	
312.67	5369.1	
312.88	5080.3	
313.09	3625.6	
313.3	3534.8	
313.51	6330.3	
313.71	6673.6	
313.92	3600.3	
314.13	3762.8	
314.34	5703.6	
314.55	5481	
314.76	4640.7	
314.96	4038.6	
315.17	5588.9	
315.38	6021	
315.59	3585.3	
315.8	3452.2	
316.01	6485.2	
316.21	6500.9	
316.42	3478.1	
316.63	3984.7	
316.84	5331.5	
317.05	6180.1	
317.26	4257	
317.46	3839.3	
317.67	5390.9	
317.88	5870.2	
318.09	4573.8	
318.3	3322.5	
318.5	5205.9	
318.71	5843.5	
318.92	5872.2	
319.13	4263.2	
319.34	6046.3	
319.54	6137.1	
319.75	3340.9	
319.96	3199.6	
320.17	5866.7	
320.38	6142.5	
320.58	3266.5	
320.79	3984.7	
321	6125.5	
321.21	6185.5	
321.42	3945.1	
321.62	3272	
321.83	5094	
322.04	5588.2	
322.25	3812.6	
322.46	3654.3	
322.66	5587.5	
322.87	5740.5	
323.08	4498.7	
323.29	3563.5	
323.5	6685.3	
323.7	5042.8	
323.91	4974.5	
324.12	4418.8	
324.33	5568.4	
324.53	5851.7	
324.74	4254.3	
324.95	4505.5	
325.16	4842.8	
325.37	5360.9	
325.57	3586.7	
325.78	3691.1	
325.99	5565.7	
326.2	5000.5	
326.4	5081	
326.61	3327.9	
326.82	5448.3	
327.03	5673.6	
327.24	5218.2	
327.44	4817.5	
327.65	5745.2	
327.86	4673.5	
328.07	4245.4	
328.27	3459.7	
328.48	6216.3	
328.69	5130.8	
328.9	5304.9	
329.1	3858.4	
329.31	5356.1	
329.52	6398.5	
329.73	3615.3	
329.93	4087.1	
330.14	5516.5	
330.35	5793	
330.56	5965.1	
330.76	4457.1	
330.97	5313.1	
331.18	5664.7	
331.39	4014	
331.59	3265.1	
331.8	6091.3	
332.01	6217	
332.22	3723.2	
332.42	4291.2	
332.63	5597.1	
332.84	5190.2	
333.05	4044.7	
333.25	3649.5	
333.46	5279.7	
333.67	5483.8	
333.88	3790.8	
334.08	4228.4	
334.29	7395.9	
334.5	6212.2	
334.7	3462.4	
334.91	5143.8	
335.12	5047.6	
335.33	5953.4	
335.53	4003.1	
335.74	5964.4	
335.95	5283.8	
336.16	5098.1	
336.36	3997.6	
336.57	4614.1	
336.78	5006.6	
336.98	6126.2	
337.19	4977.9	
337.4	3930.7	
337.61	6703	
337.81	5041.4	
338.02	3714.3	
338.23	4819.6	
338.43	6313.9	
338.64	5175.2	
338.85	3694.5	
339.05	4757.4	
339.26	6396.5	
339.47	4926.7	
339.68	3616	
339.88	5382.7	
340.09	5796.4	
340.3	6013.5	
340.5	4287.8	
340.71	3236.5	
340.92	4905.6	
341.13	6243.6	
341.33	3468.6	
341.54	4345.8	
341.75	5751.4	
341.95	5399.1	
342.16	4070.7	
342.37	4440	
342.57	5083.1	
342.78	5459.2	
342.99	4504.2	
343.19	3223.5	
343.4	5913.9	
343.61	5767.8	
343.81	3854.3	
344.02	3598.3	
344.23	5906.3	
344.43	6366.5	
344.64	4528.1	
344.85	4406.5	
345.06	5758.2	
345.26	6197.2	
345.47	4154	
345.68	4928.1	
345.88	4863.9	
346.09	5999.9	
346.3	4330.1	
346.5	3208.5	
346.71	5505.6	
346.92	5210.7	
347.12	3312.9	
347.33	4124.6	
347.54	6076.3	
347.74	6522.8	
347.95	4172.4	
348.16	3054.9	
348.36	5304.9	
348.57	5155.4	
348.78	4132.8	
348.98	4465.9	
349.19	5439.4	
349.39	4956.1	
349.6	3299.3	
349.81	3663.1	
350.01	5753.4	
350.22	5184.1	
350.43	4032.5	
350.63	4816.8	
350.84	5578	
351.05	5294.7	
351.25	3689.8	
351.46	3270.6	
351.67	6058.6	
351.87	5199.8	
352.08	3919.1	
352.29	4435.9	
352.49	5909.1	
352.7	6133	
352.9	3531.4	
353.11	4428.4	
353.32	6627.9	
353.52	5312.4	
353.73	3467.9	
353.94	4472.1	
354.14	5804.6	
354.35	5599.8	
354.55	3538.9	
354.76	4005.1	
354.97	5756.2	
355.17	5540.4	
355.38	3366.2	
355.59	4784.7	
355.79	5184.8	
356	5647.6	
356.2	4020.8	
356.41	3464.5	
356.62	4851	
356.82	5308.3	
357.03	4186.7	
357.24	3803.1	
357.44	5133.6	
357.65	5275.6	
357.85	5186.1	
358.06	3999.7	
358.27	4881	
358.47	5131.5	
358.68	3326.6	
358.88	4271.4	
359.09	5767.1	
359.3	6152.1	
359.5	4973.2	
359.71	4364.9	
359.91	6574.7	
360.12	5894.7	
360.33	4178.5	
360.53	4681	
360.74	5149.3	
360.94	5224.4	
361.15	4419.5	
361.36	3618.1	
361.56	5976.7	
361.77	5338.4	
361.97	4876.2	
362.18	3851.5	
362.38	5954.1	
362.59	5016.8	
362.8	3551.9	
363	3379.1	
363.21	4739	
363.41	5483.8	
363.62	4136.9	
363.83	5183.4	
364.03	5608	
364.24	6632	
364.44	5218.2	
364.65	5253	
364.85	5281.7	
365.06	4907.6	
365.27	3715.7	
365.47	3688.4	
365.68	6337.8	
365.88	5257.8	
366.09	4094.6	
366.29	3702	
366.5	5512.4	
366.71	6038.8	
366.91	5193.6	
367.12	4229.7	
367.32	6620.4	
367.53	5908.4	
367.73	4230.4	
367.94	5212.1	
368.14	5832.6	
368.35	6737.1	
368.56	4085	
368.76	3958.7	
368.97	5907.7	
369.17	7733.1	
369.38	3681.6	
369.58	3953.9	
369.79	4932.2	
369.99	6282.5	
370.2	4972.5	
370.4	4123.9	
370.61	5612.1	
370.82	6879.8	
371.02	3961.5	
371.23	3232.4	
371.43	4776.5	
371.64	6191.7	
371.84	3992.9	
372.05	5244.2	
372.25	7574.1	
372.46	5913.9	
372.66	3968.3	
372.87	3881.6	
373.07	5951.4	
373.28	7668.3	
373.48	5007.3	
373.69	4698	
373.9	5356.8	
374.1	5388.9	
374.31	4864.6	
374.51	4448.2	
374.72	6210.8	
374.92	5024.3	
375.13	5081	
375.33	4257.7	
375.54	5707.7	
375.74	5146.5	
375.95	4289.8	
376.15	5582.1	
376.36	5791.7	
376.56	5524.1	
376.77	4281.6	
376.97	4812.7	
377.18	6835.4	
377.38	5810.1	
377.59	5175.9	
377.79	3746.4	
378	5648.3	
378.2	6051.7	
378.41	3909.6	
378.61	3769.6	
378.82	6158.2	
379.02	5135.6	
379.23	4007.2	
379.43	5247.6	
379.64	6198.5	
379.84	5778	
380.05	3801.7	
380.25	3775.1	
380.46	5885.9	
380.66	5449	
380.87	5261.2	
381.07	5633.3	
381.28	6533	
381.48	5953.4	
381.69	3874.8	
381.89	3934.1	
382.1	4767.7	
382.3	6083.1	
382.51	5087.2	
382.71	5984.2	
382.91	5959.6	
383.12	6447	
383.32	4289.1	
383.53	4530.1	
383.73	5756.8	
383.94	5543.2	
384.14	4474.1	
384.35	3537.5	
384.55	5537	
384.76	5972.6	
384.96	4244.8	
385.17	4656.4	
385.37	6004.6	
385.58	5223	
385.78	4657.1	
385.98	3475.4	
386.19	5429.8	
386.39	5776.6	
386.6	4118.5	
386.8	4303.5	
387.01	5961.6	
387.21	5941.8	
387.42	4801.8	
387.62	5336.3	
387.83	5217.5	
388.03	5894.1	
388.23	4345.8	
388.44	5158.8	
388.64	4912.4	
388.85	4934.2	
389.05	4685.8	
389.26	5327.4	
389.46	6953.5	
389.67	6354.2	
389.87	4599.1	
390.07	4795	
390.28	5561.6	
390.48	5072.1	
390.69	3821.5	
390.89	4180.6	
391.1	5268.1	
391.3	6249	
391.5	5438.7	
391.71	6092	
391.91	5954.1	
392.12	7118.7	
392.32	5508.4	
392.53	4652.3	
392.73	5395.7	
392.93	5560.9	
393.14	4319.2	
393.34	5328.8	
393.55	6106.4	
393.75	5489.2	
393.95	4446.1	
394.16	4215.4	
394.36	5228.5	
394.57	6070.2	
394.77	3741.6	
394.98	4258.4	
395.18	5227.8	
395.38	5501.5	
395.59	5180.7	
395.79	4014.7	
396	5351.3	
396.2	5829.9	
396.4	4911	
396.61	4833.9	
396.81	6076.3	
397.02	5254.4	
397.22	5156.8	
397.42	5202.5	
397.63	6058.6	
397.83	5206.6	
398.04	3958.7	
398.24	4497.3	
398.44	5791	
398.65	4823	
398.85	3848.1	
399.05	3903.4	
399.26	5100.1	
399.46	6921.5	
399.67	4296	
399.87	4024.3	
400.07	5558.2	
400.28	5937.1	
400.48	4106.2	
400.69	5182	
400.89	6039.5	
401.09	6603.3	
401.3	3991.5	
401.5	5188.9	
401.7	6823.1	
401.91	7125.6	
402.11	4375.8	
402.32	4647.5	
402.52	6187.6	
402.72	6092	
402.93	4805.2	
403.13	3702	
403.33	7032.7	
403.54	5705	
403.74	4545.1	
403.94	5510.4	
404.15	5719.3	
404.35	6959	
404.56	4293.2	
404.76	6234	
404.96	6113.9	
405.17	5999.2	
405.37	5276.3	
405.57	4802.5	
405.78	6210.8	
405.98	5698.1	
406.18	4296.6	
406.39	5270.8	
406.59	6173.9	
406.79	5874.3	
407	4156	
407.2	4193.6	
407.4	6182.1	
407.61	6465.4	
407.81	4179.2	
408.01	6228.6	
408.22	5087.8	
408.42	7189.1	
408.62	5302.2	
408.83	4649.6	
409.03	5686.5	
409.23	5445.5	
409.44	4777.9	
409.64	5123.3	
409.84	6670.2	
410.05	6472.9	
410.25	4838.7	
410.45	4653	
410.66	5902.9	
410.86	8578.9	
411.06	5089.2	
411.27	4885.8	
411.47	8190.5	
411.67	6143.2	
411.88	5171.8	
412.08	5386.8	
412.28	6866.2	
412.49	7299	
412.69	4945.8	
412.89	4939.7	
413.09	7195.2	
413.3	7011.6	
413.5	5021.6	
413.7	4593.6	
413.91	6148.7	
414.11	7064.8	
414.31	4825	
414.52	5229.8	
414.72	6803.4	
414.92	6616.3	
415.12	4840.7	
415.33	5321.3	
415.53	7090.1	
415.73	7178.1	
415.94	5752.7	
416.14	5203.9	
416.34	5943.9	
416.55	5729.5	
416.75	6370.5	
416.95	5790.3	
417.15	7033.4	
417.36	7820.5	
417.56	6602.7	
417.76	5623.7	
417.97	7471	
418.17	7084.6	
418.37	5169.1	
418.57	5209.3	
418.78	6873	
418.98	6518.7	
419.18	6174.6	
419.38	6130.3	
419.59	6655.2	
419.79	6083.8	
419.99	5153.4	
420.2	5520	
420.4	7077.1	
420.6	7294.2	
420.8	5016.2	
421.01	4863.2	
421.21	6875.7	
421.41	7116.7	
421.61	5492.7	
421.82	5113.8	
422.02	6373.3	
422.22	7369.3	
422.42	5890.6	
422.63	5629.2	
422.83	6566.5	
423.03	7750.9	
423.23	5698.1	
423.44	4511	
423.64	6612.2	
423.84	6364.4	
424.04	5051	
424.25	4713.7	
424.45	7570	
424.65	7558.4	
424.85	4519.2	
425.06	5203.9	
425.26	7589.1	
425.46	6021.7	
425.66	5712.5	
425.87	5341.8	
426.07	7378.8	
426.27	7142.6	
426.47	5519.3	
426.67	4820.9	
426.88	7696.3	
427.08	7085.3	
427.28	5700.2	
427.48	4782.7	
427.69	5931.6	
427.89	6668.2	
428.09	5717.9	
428.29	4811.4	
428.5	7459.4	
428.7	6924.2	
428.9	4721.3	
429.1	5266	
429.3	6754.9	
429.51	7202	
429.71	5066	
429.91	5825.1	
430.11	7099.6	
430.31	7331	
430.52	5367.7	
430.72	5573.9	
430.92	7781.6	
431.12	7148.8	
431.32	4974.5	
431.53	5477	
431.73	5928.2	
431.93	7819.1	
432.13	4903.5	
432.33	4769	
432.54	6564.4	
432.74	6920.8	
432.94	4635.9	
433.14	5864	
433.34	7163.1	
433.55	6516.6	
433.75	5820.3	
433.95	7554.3	
434.15	6801.3	
434.35	6472.3	
434.56	4930.1	
434.76	4450.2	
434.96	6761	
435.16	7045.7	
435.36	4767.7	
435.56	5952.8	
435.77	6419	
435.97	6611.5	
436.17	6660	
436.37	5978.7	
436.57	6444.3	
436.78	6360.3	
436.98	6552.8	
437.18	6584.2	
437.38	7188.4	
437.58	6746	
437.78	6755.6	
437.99	5299.5	
438.19	7209.5	
438.39	7978.9	
438.59	5148.6	
438.79	4726	
438.99	7910.6	
439.2	6637.5	
439.4	4818.2	
439.6	4806.6	
439.8	6969.9	
440	8116.8	
440.2	5859.2	
440.4	6004.6	
440.61	7419.1	
440.81	7966.6	
441.01	5040.7	
441.21	5967.8	
441.41	7830.1	
441.61	7395.9	
441.81	6301.6	
442.02	7324.2	
442.22	8277.2	
442.42	7488.1	
442.62	5047.6	
442.82	5141.8	
443.02	7824.6	
443.22	6842.3	
443.43	5609.4	
443.63	5093.3	
443.83	6663.4	
444.03	6741.2	
444.23	6382.2	
444.43	6002.6	
444.63	7070.3	
444.83	8422.6	
445.04	5238	
445.24	6593.8	
445.44	7547.4	
445.64	7602.7	
445.84	6162.3	
446.04	6096.8	
446.24	6756.2	
446.44	7871.7	
446.65	5249.6	
446.85	5674.9	
447.05	7283.3	
447.25	7927.7	
447.45	5817.6	
447.65	5087.8	
447.85	7132.4	
448.05	6741.2	
448.25	6204.7	
448.46	5997.1	
448.66	7215.7	
448.86	6897.6	
449.06	4945.8	
449.26	6199.9	
449.46	7530.4	
449.66	6571.2	
449.86	5678.3	
450.06	5718.6	
450.26	6754.9	
450.47	7369.3	
450.67	6033.3	
450.87	6366.5	
451.07	7475.8	
451.27	7240.9	
451.47	5235.3	
451.67	5785.5	
451.87	6920.8	
452.07	8103.8	
452.27	5455.8	
452.47	5532.9	
452.67	7223.9	
452.88	7651.9	
453.08	4778.6	
453.28	6925.5	
453.48	8485.4	
453.68	7197.9	
453.88	5369.8	
454.08	5683.1	
454.28	7595.2	
454.48	7249.1	
454.68	6244.3	
454.88	6718	
455.08	7730.4	
455.28	7339.9	
455.48	5259.2	
455.68	5837.4	
455.89	8174.8	
456.09	7860.1	
456.29	5595.7	
456.49	5666.7	
456.69	8058.1	
456.89	7226.6	
457.09	6183.5	
457.29	6557.6	
457.49	7663.5	
457.69	7780.9	
457.89	5950.7	
458.09	5438.7	
458.29	7423.9	
458.49	8120.2	
458.69	6405.4	
458.89	5864.7	
459.09	8385.1	
459.29	8675.2	
459.49	5969.1	
459.69	6819.7	
459.9	7932.5	
460.1	7431.4	
460.3	5862	
460.5	5608	
460.7	7836.9	
460.9	7588.4	
461.1	5345.9	
461.3	6666.8	
461.5	8609.7	
461.7	8203.5	
461.9	5767.1	
462.1	6256.5	
462.3	7602.7	
462.5	8319.5	
462.7	5768.4	
462.9	5926.8	
463.1	9318.9	
463.3	8934.6	
463.5	6080.4	
463.7	7173.4	
463.9	7839.6	
464.1	8206.2	
464.3	6322.8	
464.5	6550.1	
464.7	8490.9	
464.9	8162.5	
465.1	7971.4	
465.3	6930.3	
465.5	8923.7	
465.7	8850.6	
465.9	7202	
466.1	7021.1	
466.3	8624.7	
466.5	8457.4	
466.7	7931.8	
466.9	6711.9	
467.1	8451.3	
467.3	9462.3	
467.5	7884.7	
467.7	6675	
467.9	9598.8	
468.1	10645	
468.3	7475.8	
468.5	8017.8	
468.7	8419.9	
468.9	8418.5	
469.1	7068.2	
469.3	7752.2	
469.5	10537	
469.7	7978.2	
469.9	7454.6	
470.1	6774.7	
470.3	8512.7	
470.5	8548.9	
470.7	8175.5	
470.9	6881.9	
471.1	8278.6	
471.3	8794.7	
471.5	6662	
471.69	8759.2	
471.89	8039	
472.09	7658	
472.29	7571.3	
472.49	7893.6	
472.69	7888.1	
472.89	8845.2	
473.09	6602.7	
473.29	6754.9	
473.49	7992.5	
473.69	8205.5	
473.89	7815.7	
474.09	6933.7	
474.29	9542.2	
474.49	9251.4	
474.69	7795.3	
474.89	6974.7	
475.09	8219.9	
475.29	8278.6	
475.49	6433.4	
475.69	6746	
475.88	9901.2	
476.08	8575.5	
476.28	6356.9	
476.48	6862.1	
476.68	9049.3	
476.88	8903.9	
477.08	6759	
477.28	7096.2	
477.48	8297.7	
477.68	9010.4	
477.88	6619.7	
478.08	6948.1	
478.28	9413.1	
478.48	8495.7	
478.67	7067.5	
478.87	6341.9	
479.07	9196.7	
479.27	8547.5	
479.47	7219.8	
479.67	7243	
479.87	9070.5	
480.07	9620	
480.27	6402.6	
480.47	8148.9	
480.67	8665.6	
480.87	9411.8	
481.06	6702.3	
481.26	7636.2	
481.46	8628.8	
481.66	8550.3	
481.86	7348.8	
482.06	8302.5	
482.26	8295.6	
482.46	9312.1	
482.66	7148.1	
482.86	6696.2	
483.05	8757.8	
483.25	8106.5	
483.45	9745.6	
483.65	7217.7	
483.85	8312	
484.05	8634.2	
484.25	7629.4	
484.45	8125	
484.65	9620.7	
484.84	9499.8	
485.04	7115.3	
485.24	7176.1	
485.44	9701.2	
485.64	8066.9	
485.84	6351.4	
486.04	7851.2	
486.24	8449.2	
486.44	8854.7	
486.63	6376.7	
486.83	7238.2	
487.03	8285.4	
487.23	8570.7	
487.43	6449.1	
487.63	8970.8	
487.83	8648.6	
488.02	9684.8	
488.22	7526.3	
488.42	8165.9	
488.62	9585.2	
488.82	8376.2	
489.02	7156.3	
489.22	7173.4	
489.41	9415.9	
489.61	8959.9	
489.81	6929.6	
490.01	6928.3	
490.21	9437.7	
490.41	10189	
490.61	6901.7	
490.8	6991.1	
491	8849.3	
491.2	8154.3	
491.4	7641	
491.6	6710.5	
491.8	8860.9	
491.99	9103.9	
492.19	6582.2	
492.39	7026.6	
492.59	9313.5	
492.79	9444.5	
492.99	7877.2	
493.18	7043	
493.38	9612.5	
493.58	10438	
493.78	7758.4	
493.98	7324.2	
494.18	9255.5	
494.37	8655.4	
494.57	8044.4	
494.77	7942.7	
494.97	9532.6	
495.17	9846.6	
495.37	7328.3	
495.56	7768.6	
495.76	10006	
495.96	9637.1	
496.16	8794	
496.36	7693.5	
496.55	9815.9	
496.75	9318.9	
496.95	8034.2	
497.15	7887.4	
497.35	9846	
497.54	9734	
497.74	7756.3	
497.94	9546.9	
498.14	10535	
498.34	10358	
498.53	7404.8	
498.73	8189.8	
498.93	9102.5	
499.13	9798.2	
499.33	8033.5	
499.52	8673.1	
499.72	9773.6	
499.92	10129	
500.12	7678.5	
500.32	8013.7	
500.51	10176	
500.71	9813.2	
500.91	8905.3	
501.11	8402.1	
501.31	9975.7	
501.5	10506	
501.7	9133.3	
501.9	8008.9	
502.1	9879.4	
502.29	10045	
502.49	8558.5	
502.69	9032.9	
502.89	9904	
503.09	10004	
503.28	7602.1	
503.48	7601.4	
503.68	9211.1	
503.88	9221.3	
504.07	8588.5	
504.27	8082.6	
504.47	9641.8	
504.67	9736.7	
504.86	8636.3	
505.06	8246.5	
505.26	9264.3	
505.46	11234	
505.65	8116.8	
505.85	8421.9	
506.05	9239.8	
506.25	9804.3	
506.44	7458.7	
506.64	8469.7	
506.84	9229.5	
507.04	10204	
507.23	7681.9	
507.43	8334.6	
507.63	11337	
507.83	9437.7	
508.02	8386.4	
508.22	7845.8	
508.42	11532	
508.62	9238.4	
508.81	8152.3	
509.01	8804.9	
509.21	9054.1	
509.4	9385.2	
509.6	8340.7	
509.8	7772.7	
510	9325.8	
510.19	10869	
510.39	7673.7	
510.59	7793.9	
510.79	9115.5	
510.98	10590	
511.18	7863.5	
511.38	8083.3	
511.57	9997.5	
511.77	9916.3	
511.97	8686.1	
512.17	7586.4	
512.36	10023	
512.56	9944.9	
512.76	7617.1	
512.95	7515.4	
513.15	10127	
513.35	8700.5	
513.55	8638.3	
513.74	7725.6	
513.94	10183	
514.14	9509.4	
514.33	8742.8	
514.53	8543.4	
514.73	9354.4	
514.92	9654.8	
515.12	7942.7	
515.32	7755.7	
515.51	9704.6	
515.71	10346	
515.91	9534	
516.11	7753.6	
516.3	11508	
516.5	9246.6	
516.7	8411	
516.89	9073.9	
517.09	9351.7	
517.29	9370.1	
517.48	8600.8	
517.68	8148.2	
517.88	9229.5	
518.07	9800.9	
518.27	8690.9	
518.47	7575.4	
518.66	10408	
518.86	9028.1	
519.06	7427.3	
519.25	7874.4	
519.45	9311.4	
519.65	10979	
519.84	8500.4	
520.04	9383.1	
520.24	11248	
520.43	10081	
520.63	8286.8	
520.83	8001.4	
521.02	9192.6	
521.22	9865.7	
521.42	8590.5	
521.61	9139.4	
521.81	9405.6	
522.01	9707.4	
522.2	8523	
522.4	8206.2	
522.6	10185	
522.79	8931.9	
522.99	8353.7	
523.18	7706.5	
523.38	9962	
523.58	10015	
523.77	9693	
523.97	7721.5	
524.17	11948	
524.36	11052	
524.56	9141.4	
524.76	8763.9	
524.95	9931.3	
525.15	9637.7	
525.34	8613.8	
525.54	8510.7	
525.74	10409	
525.93	9381.7	
526.13	9821.4	
526.33	8499.1	
526.52	10660	
526.72	10171	
526.91	9814.5	
527.11	9106.6	
527.31	10810	
527.5	11353	
527.7	8970.1	
527.89	8006.2	
528.09	9671.9	
528.29	10314	
528.48	9438.4	
528.68	9209.7	
528.87	10692	
529.07	10787	
529.27	8836.3	
529.46	8439.7	
529.66	10289	
529.85	10798	
530.05	8329.1	
530.25	9101.2	
530.44	11875	
530.64	10266	
530.83	8684.1	
531.03	9001.5	
531.23	10746	
531.42	10615	
531.62	9839.8	
531.81	8979	
532.01	10931	
532.21	11487	
532.4	8682.7	
532.6	9140.8	
532.79	12009	
532.99	11034	
533.18	9207.7	
533.38	10414	
533.58	10609	
533.77	11373	
533.97	9146.9	
534.16	10032	
534.36	11633	
534.55	10696	
534.75	10217	
534.95	9297.1	
535.14	11587	
535.34	10667	
535.53	8912.8	
535.73	10996	
535.92	12064	
536.12	10830	
536.31	8873.2	
536.51	10284	
536.71	11047	
536.9	10640	
537.1	9158.5	
537.29	9286.9	
537.49	11575	
537.68	10563	
537.88	9754.5	
538.07	8969.4	
538.27	10651	
538.46	11897	
538.66	8774.9	
538.86	9237.7	
539.05	10903	
539.25	11448	
539.44	9555.8	
539.64	9154.4	
539.83	10720	
540.03	11748	
540.22	8971.5	
540.42	9149	
540.61	10819	
540.81	11052	
541	9554.5	
541.2	10333	
541.39	10460	
541.59	10856	
541.78	10017	
541.98	8906.6	
542.18	10118	
542.37	10027	
542.57	9239.8	
542.76	9835	
542.96	10021	
543.15	10880	
543.35	9282.1	
543.54	8653.4	
543.74	11252	
543.93	10710	
544.13	9338.1	
544.32	10442	
544.52	10954	
544.71	10147	
544.91	8292.9	
545.1	9734	
545.3	10230	
545.49	10998	
545.69	8241.7	
545.88	8939.4	
546.08	11929	
546.27	11497	
546.47	9516.9	
546.66	8759.8	
546.86	11138	
547.05	11849	
547.24	9036.3	
547.44	8819.9	
547.63	10036	
547.83	11296	
548.02	9146.9	
548.22	9402.2	
548.41	9837.8	
548.61	11208	
548.8	8684.1	
549	8632.2	
549.19	10479	
549.39	10946	
549.58	8279.3	
549.78	9012.4	
549.97	10955	
550.17	10427	
550.36	10632	
550.55	10919	
550.75	10289	
550.94	11265	
551.14	8538.7	
551.33	8995.4	
551.53	9714.2	
551.72	10728	
551.92	9102.5	
552.11	8747.6	
552.31	10793	
552.5	10852	
552.69	10593	
552.89	8409.6	
553.08	10764	
553.28	10424	
553.47	8736.6	
553.67	10002	
553.86	11386	
554.06	9662.3	
554.25	7931.8	
554.44	8501.1	
554.64	12214	
554.83	11679	
555.03	8551	
555.22	8932.6	
555.42	10813	
555.61	10601	
555.8	8667.7	
556	9019.3	
556.19	9683.5	
556.39	11091	
556.58	8781	
556.78	8772.8	
556.97	10431	
557.16	10221	
557.36	10026	
557.55	8373.5	
557.75	9467.1	
557.94	11311	
558.13	8497	
558.33	8206.2	
558.52	11088	
558.72	9867.8	
558.91	8355	
559.1	8676.6	
559.3	9563.3	
559.49	9299.1	
559.69	7969.3	
559.88	8992.6	
560.07	10399	
560.27	10824	
560.46	9201.5	
560.66	9358.5	
560.85	10196	
561.04	9402.9	
561.24	8275.2	
561.43	8595.3	
561.63	9610.4	
561.82	9828.9	
562.01	9840.5	
562.21	8901.2	
562.4	10458	
562.59	11495	
562.79	8728.4	
562.98	8368	
563.18	10367	
563.37	11832	
563.56	9247.3	
563.76	8366	
563.95	9774.3	
564.14	9790	
564.34	8675.9	
564.53	8469.7	
564.73	10350	
564.92	10729	
565.11	9028.1	
565.31	8204.2	
565.5	11022	
565.69	9908.8	
565.89	8514.1	
566.08	8798.8	
566.27	10812	
566.47	11245	
566.66	9395.4	
566.85	8039.6	
567.05	10424	
567.24	9728.5	
567.44	8429.4	
567.63	9944.3	
567.82	10674	
568.02	10466	
568.21	8381	
568.4	8807.6	
568.6	10215	
568.79	10340	
568.98	8263.6	
569.18	8450.6	
569.37	10163	
569.56	12471	
569.76	8826.7	
569.95	9919.7	
570.14	10727	
570.34	10626	
570.53	8263.6	
570.72	8321.6	
570.91	11198	
571.11	10340	
571.3	8868.4	
571.49	9867.1	
571.69	10458	
571.88	9893.1	
572.07	9509.4	
572.27	9506	
572.46	9846	
572.65	10991	
572.85	8734.6	
573.04	9037	
573.23	11229	
573.43	10449	
573.62	8355.7	
573.81	9087.5	
574	10522	
574.2	10366	
574.39	8856.1	
574.58	9013.1	
574.78	11419	
574.97	10732	
575.16	9442.5	
575.36	9671.9	
575.55	11107	
575.74	11327	
575.93	8525	
576.13	9540.8	
576.32	10383	
576.51	11079	
576.71	8998.1	
576.9	10501	
577.09	11432	
577.28	10948	
577.48	9542.2	
577.67	8378.9	
577.86	10486	
578.05	10894	
578.25	9101.2	
578.44	9286.9	
578.63	10803	
578.83	11975	
579.02	8529.8	
579.21	10073	
579.4	10918	
579.6	10576	
579.79	9358.5	
579.98	11583	
580.17	11224	
580.37	11271	
580.56	8673.8	
580.75	9529.2	
580.94	11841	
581.14	11670	
581.33	9969.5	
581.52	8933.9	
581.71	11051	
581.91	11839	
582.1	8590.5	
582.29	9312.8	
582.48	10717	
582.68	10706	
582.87	9659.6	
583.06	9311.4	
583.25	11136	
583.45	10967	
583.64	10028	
583.83	10879	
584.02	10546	
584.21	11091	
584.41	10047	
584.6	9294.4	
584.79	10795	
584.98	11536	
585.18	8666.3	
585.37	8709.3	
585.56	10226	
585.75	11135	
585.94	8931.2	
586.14	9555.1	
586.33	11615	
586.52	10757	
586.71	9460.3	
586.91	9125.7	
587.1	10021	
587.29	11147	
587.48	9092.3	
587.67	8957.1	
587.87	10950	
588.06	11107	
588.25	10455	
588.44	9571.5	
588.63	10791	
588.83	11196	
589.02	9041.1	
589.21	8905.9	
589.4	10457	
589.59	10200	
589.78	7992.5	
589.98	8314.8	
590.17	9701.2	
590.36	10372	
590.55	7636.2	
590.74	8557.1	
590.94	11830	
591.13	10221	
591.32	8343.4	
591.51	7888.8	
591.7	10806	
591.89	10256	
592.09	8087.4	
592.28	8534.6	
592.47	9467.8	
592.66	11447	
592.85	8001.4	
593.05	8314.1	
593.24	10112	
593.43	10923	
593.62	8320.2	
593.81	8948.9	
594	10167	
594.19	10306	
594.39	8232.2	
594.58	8178.9	
594.77	10448	
594.96	11013	
595.15	8205.5	
595.34	8847.2	
595.54	10548	
595.73	9456.2	
595.92	7502.4	
596.11	8723.7	
596.3	10974	
596.49	9522.4	
596.68	8348.9	
596.88	8977.6	
597.07	10738	
597.26	9438.4	
597.45	7845.1	
597.64	9213.1	
597.83	9660.3	
598.02	10365	
598.22	7972.1	
598.41	8661.5	
598.6	10108	
598.79	9521	
598.98	8070.4	
599.17	9013.1	
599.36	10101	
599.55	11263	
599.74	10165	
599.94	9920.4	
600.13	10650	
600.32	9493	
600.51	7731.8	
600.7	7855.3	
600.89	11398	
601.08	11353	
601.27	7673.7	
601.47	8640.4	
601.66	10590	
601.85	11321	
602.04	8400.8	
602.23	8543.4	
602.42	9650.7	
602.61	10293	
602.8	8327	
602.99	7998	
603.18	9938.8	
603.37	10261	
603.57	8671.8	
603.76	9321.7	
603.95	10929	
604.14	10515	
604.33	8134.5	
604.52	8462.2	
604.71	10128	
604.9	9677.3	
605.09	9085.5	
605.28	8968.1	
605.47	10795	
605.66	10421	
605.86	8781.7	
606.05	8149.6	
606.24	10670	
606.43	9333.3	
606.62	8534.6	
606.81	9263	
607	10585	
607.19	9822.7	
607.38	7932.5	
607.57	8068.3	
607.76	9620	
607.95	9065	
608.14	8505.2	
608.33	9169.4	
608.52	9673.9	
608.72	10643	
608.91	7687.4	
609.1	7675.8	
609.29	9673.2	
609.48	9231.6	
609.67	8626	
609.86	7689.4	
610.05	9185.8	
610.24	9658.9	
610.43	7566.6	
610.62	7247.8	
610.81	10806	
611	10626	
611.19	7669	
611.38	8458.1	
611.57	9893.1	
611.76	11297	
611.95	7546.1	
612.14	7299	
612.33	9757.9	
612.52	9290.3	
612.71	8109.3	
612.9	7178.8	
613.09	8778.3	
613.28	11338	
613.47	7844.4	
613.66	8755.7	
613.85	9820	
614.04	9258.2	
614.24	7859.4	
614.43	6932.4	
614.62	9947	
614.81	9877.4	
615	8382.3	
615.19	8479.3	
615.38	9202.9	
615.57	9542.2	
615.76	8305.2	
615.95	9275.9	
616.14	10013	
616.33	9599.5	
616.52	8548.2	
616.71	8817.9	
616.9	10018	
617.09	9903.3	
617.28	7945.4	
617.47	9346.9	
617.66	9092.3	
617.85	9102.5	
618.04	9007.6	
618.22	8440.4	
618.41	9439.1	
618.6	10447	
618.79	8350.3	
618.98	8049.9	
619.17	10910	
619.36	9067.7	
619.55	8107.9	
619.74	8312	
619.93	10092	
620.12	9505.3	
620.31	8801.5	
620.5	8996	
620.69	10607	
620.88	11073	
621.07	9871.2	
621.26	8763.3	
621.45	10378	
621.64	10288	
621.83	8870.4	
622.02	8058.1	
622.21	10342	
622.4	10030	
622.59	9496.4	
622.78	9175.6	
622.97	9620	
623.16	10748	
623.35	8806.3	
623.54	7964.6	
623.72	9980.4	
623.91	9992.7	
624.1	9074.5	
624.29	7724.9	
624.48	11369	
624.67	10383	
624.86	9030.2	
625.05	8034.9	
625.24	11441	
625.43	9641.2	
625.62	10850	
625.81	8283.4	
626	10744	
626.19	9994.1	
626.38	9099.1	
626.56	8591.9	
626.75	9908.1	
626.94	10632	
627.13	9069.1	
627.32	7826	
627.51	10580	
627.7	11964	
627.89	7987.1	
628.08	9198.8	
628.27	9626.1	
628.46	9891	
628.65	8154.3	
628.83	7905.2	
629.02	10482	
629.21	9794.8	
629.4	8728.4	
629.59	8910.7	
629.78	9679.4	
629.97	10701	
630.16	8885.5	
630.35	8390.5	
630.54	11174	
630.72	10858	
630.91	8378.9	
631.1	8948.9	
631.29	10340	
631.48	10507	
631.67	9049.3	
631.86	8418.5	
632.05	9825.5	
632.24	9966.8	
632.42	8060.1	
632.61	8763.9	
632.8	10120	
632.99	9620	
633.18	8740	
633.37	9196.1	
633.56	10291	
633.75	10163	
633.93	8755.1	
634.12	8538	
634.31	11128	
634.5	10716	
634.69	8505.9	
634.88	8961.9	
635.07	10004	
635.25	10728	
635.44	9352.4	
635.63	9699.9	
635.82	9842.5	
636.01	9287.5	
636.2	9407	
636.39	8798.8	
636.57	10955	
636.76	10657	
636.95	8201.4	
637.14	9751.1	
637.33	10372	
637.52	11403	
637.7	7997.3	
637.89	8972.8	
638.08	9791.3	
638.27	11450	
638.46	9026.8	
638.65	9443.9	
638.83	11293	
639.02	9654.8	
639.21	8884.1	
639.4	9329.9	
639.59	10120	
639.78	9711.5	
639.96	8210.3	
640.15	8153.6	
640.34	9956.5	
640.53	10180	
640.72	7896.3	
640.91	8148.2	
641.09	9331.2	
641.28	10766	
641.47	8148.2	
641.66	8998.8	
641.85	10043	
642.03	10305	
642.22	8813.8	
642.41	8239	
642.6	9438.4	
642.79	8855.4	
642.97	7991.2	
643.16	8850.6	
643.35	9404.3	
643.54	9194.7	
643.73	7888.8	
643.91	8830.2	
644.1	9030.2	
644.29	9670.5	
644.48	7939.3	
644.67	7992.5	
644.85	9275.9	
645.04	9502.6	
645.23	7516	
645.42	7866.2	
645.6	8921	
645.79	10262	
645.98	7763.2	
646.17	6759	
646.36	8724.3	
646.54	9371.5	
646.73	8563.2	
646.92	7345.4	
647.11	8898.4	
647.29	10057	
647.48	7382.9	
647.67	7131.7	
647.86	10437	
648.05	10424	
648.23	7834.8	
648.42	9073.9	
648.61	9641.2	
648.8	9329.9	
648.98	7319.4	
649.17	7703.8	
649.36	8877.9	
649.55	8402.1	
649.73	7393.2	
649.92	8137.9	
650.11	8862.2	
650.3	9191.3	
650.48	7533.8	
650.67	7269.6	
650.86	9405	
651.05	8345.5	
651.23	7537.9	
651.42	7434.8	
651.61	8826.1	
651.79	8891.6	
651.98	7703.8	
652.17	7245.7	
652.36	9332.6	
652.54	8307.9	
652.73	7318.1	
652.92	7090.8	
653.11	9291.6	
653.29	9405.6	
653.48	6487.3	
653.67	7613	
653.85	9087.5	
654.04	10227	
654.23	7789.1	
654.42	7215	
654.6	8469	
654.79	9200.8	
654.98	6674.3	
655.16	7228	
655.35	7942.7	
655.54	8025.3	
655.73	6772.6	
655.91	6631.3	
656.1	9214.5	
656.29	7946.1	
656.47	6290.7	
656.66	8056	
656.85	8282.7	
657.03	8455.4	
657.22	6836.1	
657.41	6911.2	
657.59	8465.6	
657.78	8243.8	
657.97	6572.6	
658.16	7434.8	
658.34	9221.3	
658.53	9503.9	
658.72	8286.8	
658.9	8777.6	
659.09	8465.6	
659.28	8631.5	
659.46	7043.6	
659.65	6947.4	
659.84	8264.2	
660.02	8830.2	
660.21	6870.9	
660.4	6818.4	
660.58	9299.1	
660.77	8624.7	
660.96	7490.1	
661.14	6401.3	
661.33	9826.8	
661.52	9629.5	
661.7	6341.2	
661.89	10251	
662.08	8202.8	
662.26	7759.1	
662.45	6716.7	
662.64	6836.8	
662.82	8878.6	
663.01	8107.2	
663.2	6849.1	
663.38	7691.5	
663.57	8802.2	
663.75	8695.7	
663.94	7191.1	
664.13	8417.8	
664.31	8136.6	
664.5	8886.8	
664.69	7594.6	
664.87	7922.2	
665.06	7935.9	
665.25	8680	
665.43	8253.3	
665.62	8303.1	
665.8	9019.3	
665.99	8268.3	
666.18	7168.6	
666.36	7265.5	
666.55	8954.4	
666.74	8917.5	
666.92	6765.1	
667.11	8458.1	
667.29	8283.4	
667.48	8970.8	
667.67	8051.2	
667.85	6993.1	
668.04	8387.1	
668.22	8286.8	
668.41	7267.6	
668.6	7343.3	
668.78	8169.3	
668.97	8286.1	
669.15	7531.1	
669.34	6457.9	
669.53	8142.7	
669.71	8566.7	
669.9	6610.2	
670.08	7331.7	
670.27	8081.3	
670.46	8640.4	
670.64	7610.3	
670.83	7808.2	
671.01	7942	
671.2	8692.3	
671.38	6698.2	
671.57	6602	
671.76	9334	
671.94	9848	
672.13	6602	
672.31	7718.1	
672.5	8845.9	
672.69	8061.5	
672.87	6761	
673.06	7136.5	
673.24	8626.7	
673.43	8144.8	
673.61	7585.7	
673.8	6999.3	
673.98	8846.5	
674.17	9009.7	
674.36	7693.5	
674.54	7404.8	
674.73	8618.5	
674.91	8798.1	
675.1	7200	
675.28	6808.1	
675.47	8403.5	
675.65	8923.7	
675.84	7064.8	
676.03	7369.3	
676.21	8045.8	
676.4	7598.6	
676.58	7809.6	
676.77	7671.7	
676.95	9673.2	
677.14	8049.9	
677.32	6712.6	
677.51	6479.1	
677.69	8850.6	
677.88	7750.2	
678.06	6541.2	
678.25	6709.8	
678.44	8398	
678.62	8055.3	
678.81	6350.1	
678.99	7421.2	
679.18	9306	
679.36	8841.1	
679.55	6995.9	
679.73	7692.2	
679.92	8684.8	
680.1	8091.5	
680.29	8415.8	
680.47	7022.5	
680.66	8043.1	
680.84	8973.5	
681.03	6262	
681.21	7376.8	
681.4	8134.5	
681.58	7969.3	
681.77	6758.3	
681.95	6706.4	
682.14	9015.8	
682.32	9381.1	
682.51	7679.9	
682.69	6406.7	
682.88	8004.1	
683.06	8768.7	
683.25	7329	
683.43	7781.6	
683.62	8285.4	
683.8	8720.3	
683.99	7922.2	
684.17	7119.4	
684.36	9595.4	
684.54	8208.9	
684.73	6266.8	
684.91	6456.6	
685.1	8530.5	
685.28	7836.9	
685.46	6999.3	
685.65	7116	
685.83	8759.2	
686.02	8011.7	
686.2	6578.8	
686.39	6698.2	
686.57	7748.8	
686.76	9351.7	
686.94	6514.6	
687.13	6731.7	
687.31	8610.3	
687.5	8029.4	
687.68	6139.1	
687.86	7516	
688.05	9895.1	
688.23	7585.7	
688.42	7498.3	
688.6	6654.5	
688.79	8035.5	
688.97	8013	
689.16	7129	
689.34	5963	
689.52	8800.1	
689.71	9069.1	
689.89	7433.4	
690.08	6595.8	
690.26	8342.7	
690.45	8211.7	
690.63	7602.1	
690.81	6847.7	
691	7983.7	
691.18	7964.6	
691.37	6989.7	
691.55	9226.8	
691.74	7979.6	
691.92	10052	
692.1	6969.2	
692.29	6323.4	
692.47	8125.7	
692.66	7374.1	
692.84	6513.2	
693.02	7191.1	
693.21	7484.6	
693.39	8073.8	
693.58	7272.3	
693.76	6657.3	
693.94	9303.9	
694.13	9058.2	
694.31	6622.4	
694.5	7778.9	
694.68	7931.8	
694.86	8230.8	
695.05	6978.1	
695.23	7443	
695.42	8705.9	
695.6	11106	
695.78	7593.9	
695.97	6748.1	
696.15	8742.8	
696.34	7998	
696.52	6426.5	
696.7	7254.6	
696.89	8389.2	
697.07	7767.3	
697.25	7185.6	
697.44	8807.6	
697.62	8366.6	
697.81	8626.7	
697.99	6911.2	
698.17	7399.3	
698.36	7544.7	
698.54	8393.9	
698.72	7200.7	
698.91	6154.1	
699.09	7959.8	
699.28	7779.6	
699.46	6883.9	
699.64	6709.1	
699.83	7677.8	
700.01	9026.1	
700.19	7585.7	
700.38	5890.6	
700.56	9090.9	
700.74	7752.9	
700.93	6315.9	
701.11	7224.6	
701.29	8257.4	
701.48	9495.7	
701.66	6554.9	
701.84	6567.8	
702.03	7930.4	
702.21	8495.7	
702.39	6078.4	
702.58	6800.6	
702.76	8338.6	
702.94	8425.3	
703.13	6093.4	
703.31	8692.9	
703.49	7559.1	
703.68	9153.1	
703.86	6347.3	
704.04	7314.7	
704.23	8105.2	
704.41	8616.5	
704.59	6442.9	
704.78	7731.8	
704.96	9212.4	
705.14	8654	
705.33	6233.3	
705.51	7139.2	
705.69	7892.2	
705.87	8753.7	
706.06	7384.3	
706.24	6159.6	
706.42	8297	
706.61	8500.4	
706.79	7315.3	
706.97	6202.6	
707.16	7608.2	
707.34	8239	
707.52	7359	
707.7	6425.8	
707.89	7849.2	
708.07	7474.4	
708.25	7320.1	
708.44	7392.5	
708.62	7677.2	
708.8	8888.9	
708.98	7685.3	
709.17	6416.3	
709.35	8162.5	
709.53	8181.6	
709.72	6146	
709.9	6576.7	
710.08	8436.9	
710.26	8321.6	
710.45	7884.7	
710.63	6509.8	
710.81	8042.4	
710.99	8049.2	
711.18	7116.7	
711.36	6508.4	
711.54	7833.5	
711.72	8541.4	
711.91	6604	
712.09	5982.8	
712.27	7959.1	
712.45	9138.7	
712.64	6989	
712.82	5823.1	
713	7370.6	
713.18	7500.3	
713.37	6001.2	
713.55	7168.6	
713.73	8460.2	
713.91	6929	
714.1	6298.2	
714.28	5772.5	
714.46	7922.2	
714.64	7116	
714.83	5046.9	
715.01	6004.6	
715.19	7196.6	
715.37	6506.4	
715.55	5707	
715.74	6010.1	
715.92	8187.1	
716.1	6038.8	
716.28	7140.6	
716.47	6214.9	
716.65	6787.7	
716.83	6924.2	
717.01	5978	
717.19	6135	
717.38	9058.2	
717.56	6535.8	
717.74	6264.7	
717.92	5337	
718.1	7846.5	
718.29	7018.4	
718.47	5011.4	
718.65	5710.4	
718.83	7778.9	
719.01	7642.3	
719.2	4860.5	
719.38	6025.8	
719.56	7335.1	
719.74	8989.9	
719.92	5551.4	
720.11	6695.5	
720.29	7355.6	
720.47	6384.2	
720.65	5040.1	
720.83	5973.9	
721.02	6799.3	
721.2	6481.8	
721.38	6033.3	
721.56	5202.5	
721.74	6063.4	
721.92	6287.3	
722.11	6561.7	
722.29	6210.1	
722.47	7642.3	
722.65	6674.3	
722.83	5205.3	
723.01	6238.8	
723.2	6790.4	
723.38	7005.4	
723.56	4514.4	
723.74	5922.7	
723.92	6193.1	
724.1	7445	
724.29	5142.4	
724.47	6367.8	
724.65	6250.4	
724.83	6135.7	
725.01	4990.2	
725.19	6059.3	
725.37	6230.6	
725.56	6290.7	
725.74	4835.3	
725.92	5104.9	
726.1	6192.4	
726.28	6477.7	
726.46	5630.5	
726.64	5249.6	
726.83	6405.4	
727.01	6766.5	
727.19	4752.7	
727.37	5819.6	
727.55	6612.2	
727.73	7139.9	
727.91	4745.1	
728.09	4587.4	
728.28	7165.2	
728.46	7830.7	
728.64	5788.2	
728.82	5677	
729	8292.9	
729.18	7528.3	
729.36	4835.3	
729.54	7305.8	
729.72	8575.5	
729.91	6741.9	
730.09	6969.2	
730.27	5580.7	
730.45	6621.1	
730.63	7289.4	
730.81	6271.6	
730.99	5236	
731.17	7826.7	
731.35	6267.5	
731.53	5821.7	
731.71	5347.2	
731.9	7503.1	
732.08	7746.8	
732.26	5637.4	
732.44	5225.7	
732.62	7764.5	
732.8	7136.5	
732.98	6097.5	
733.16	5018.9	
733.34	7231.4	
733.52	5900.2	
733.7	5611.4	
733.88	5879.7	
734.07	7058.7	
734.25	6785.6	
734.43	4989.5	
734.61	6646.3	
734.79	8473.8	
734.97	6695.5	
735.15	5181.4	
735.33	5524.7	
735.51	6994.5	
735.69	6672.3	
735.87	7157	
736.05	5710.4	
736.23	6822.5	
736.41	6547.4	
736.59	5555.5	
736.77	5571.2	
736.95	7354.9	
737.13	6720.1	
737.32	5132.9	
737.5	5372.5	
737.68	7783	
737.86	6519.4	
738.04	4901.5	
738.22	6928.3	
738.4	6260	
738.58	6691.4	
738.76	5618.3	
738.94	4485.7	
739.12	6535.8	
739.3	6395.8	
739.48	6255.2	
739.66	5967.1	
739.84	6782.2	
740.02	6697.5	
740.2	4619.5	
740.38	4984.1	
740.56	7158.3	
740.74	5909.1	
740.92	5650.3	
741.1	5582.8	
741.28	6491.4	
741.46	6309.1	
741.64	5085.8	
741.82	5752.1	
742	6546.7	
742.18	6512.5	
742.36	5422.3	
742.54	4914.4	
742.72	7191.8	
742.9	5841.5	
743.08	5842.2	
743.26	4556	
743.44	7393.2	
743.62	7292.8	
743.8	5966.4	
743.98	4946.5	
744.16	6947.4	
744.34	6613.6	
744.52	5839.4	
744.7	5794.4	
744.88	7018.4	
745.06	6617.7	
745.24	6010.1	
745.42	6089.3	
745.6	7194.5	
745.78	6785.6	
745.96	4673.5	
746.14	5046.2	
746.32	7955	
746.5	7023.2	
746.68	5621	
746.86	4964.3	
747.03	7630	
747.21	5772.5	
747.39	5601.2	
747.57	5055.8	
747.75	6765.1	
747.93	7176.8	
748.11	5058.5	
748.29	4932.2	
748.47	8364.6	
748.65	6444.3	
748.83	5726.1	
749.01	5489.2	
749.19	6944	
749.37	5960.3	
749.55	5327.4	
749.73	5388.9	
749.91	6505	
750.09	6257.2	
750.26	5495.4	
750.44	4839.4	
750.62	6633.4	
750.8	6569.2	
750.98	4706.9	
751.16	5079.6	
751.34	6601.3	
751.52	5900.9	
751.7	5917.9	
751.88	4610	
752.06	7121.5	
752.24	6892.8	
752.42	4586.1	
752.59	5053	
752.77	6483.9	
752.95	7916.1	
753.13	5852.4	
753.31	5140.4	
753.49	6194.4	
753.67	6667.5	
753.85	5451	
754.03	5037.3	
754.21	6941.2	
754.38	7364.5	
754.56	5218.9	
754.74	4105.5	
754.92	6191	
755.1	7044.3	
755.28	4289.8	
755.46	4220.9	
755.64	7736.5	
755.82	7812.3	
755.99	4500.8	
756.17	4624.3	
756.35	5074.9	
756.53	6934.4	
756.71	3404.4	
756.89	4392.9	
757.07	6401.3	
757.25	5361.6	
757.42	5050.3	
757.6	6001.2	
757.78	6506.4	
757.96	5395.7	
758.14	4738.3	
758.32	4173.1	
758.5	4954.7	
758.67	5878.4	
758.85	4496	
759.03	4616.1	
759.21	6107	
759.39	5470.1	
759.57	4048.8	
759.75	5352.7	
759.92	6719.4	
760.1	5894.7	
760.28	5696.1	
760.46	6013.5	
760.64	5665.4	
760.82	5400.5	
760.99	5511.8	
761.17	4676.9	
761.35	6508.4	
761.53	5482.4	
761.71	4766.3	
761.89	5553.4	
762.06	6495.5	
762.24	5872.2	
762.42	4835.9	
762.6	4597	
762.78	5947.3	
762.96	6575.3	
763.13	5279	
763.31	4930.1	
763.49	6806.8	
763.67	5838.1	
763.85	5786.9	
764.02	6398.5	
764.2	7042.3	
764.38	6163	
764.56	4756.1	
764.74	5786.2	
764.91	7128.3	
765.09	6044.9	
765.27	4444.8	
765.45	4215.4	
765.63	7185.6	
765.8	7076.4	
765.98	3877.5	
766.16	4278.2	
766.34	5546.6	
766.52	5328.8	
766.69	5327.4	
766.87	4078.9	
767.05	5950.7	
767.23	6782.9	
767.41	4433.9	
767.58	4764.3	
767.76	6600.6	
767.94	6647.7	
768.12	4552.6	
768.29	5293.3	
768.47	6071.5	
768.65	6775.4	
768.83	4089.8	
769	5421	
769.18	5530.2	
769.36	6419.7	
769.54	5356.1	
769.72	4210.6	
769.89	6612.2	
770.07	6797.2	
770.25	4548.5	
770.43	5911.1	
770.6	7410.2	
770.78	7821.2	
770.96	4738.3	
771.14	4543.8	
771.31	6498.9	
771.49	5799.2	
771.67	3815.4	
771.85	4061.8	
772.02	4995	
772.2	5879.7	
772.38	4906.9	
772.55	4336.9	
772.73	6141.2	
772.91	5915.2	
773.09	4807.9	
773.26	4866.7	
773.44	6045.6	
773.62	5623	
773.8	4175.1	
773.97	3931.4	
774.15	6094.1	
774.33	5702.9	
774.5	4108.2	
774.68	4580.6	
774.86	6216.3	
775.04	5743.9	
775.21	4182	
775.39	4164.9	
775.57	5982.8	
775.74	6447.7	
775.92	4071.4	
776.1	3938.9	
776.27	6029.9	
776.45	7316	
776.63	4266.6	
776.81	3700	
776.98	5628.5	
777.16	6763.8	
777.34	4385.4	
777.51	4751.3	
777.69	5623.7	
777.87	5365	
778.04	4401.8	
778.22	5090.6	
778.4	5455.1	
778.57	6067.4	
778.75	3622.2	
778.93	3950.5	
779.1	5141.8	
779.28	5033.9	
779.46	3632.4	
779.64	4091.2	
779.81	6264.1	
779.99	7205.4	
780.17	5002.5	
780.34	5154.1	
780.52	5644.9	
780.69	5919.3	
780.87	4510.3	
781.05	3994.2	
781.22	5718.6	
781.4	5851.7	
781.58	4197.7	
781.75	3229	
781.93	5718.6	
782.11	5201.8	
782.28	5150.6	
782.46	4170.3	
782.64	4955.4	
782.81	5943.9	
782.99	4246.8	
783.17	4230.4	
783.34	5954.8	
783.52	5049.6	
783.69	4492.6	
783.87	5344.5	
784.05	5098.1	
784.22	5139	
784.4	5289.9	
784.58	4577.9	
784.75	6111.1	
784.93	5106.3	
785.1	4181.3	
785.28	4872.1	
785.46	5907	
785.63	5169.1	
785.81	4171.7	
785.99	4008.6	
786.16	5259.9	
786.34	5735.7	
786.51	4084.3	
786.69	4458.4	
786.87	4915.8	
787.04	5441.5	
787.22	3893.2	
787.39	4877.6	
787.57	5097.4	
787.75	6320.7	
787.92	5145.9	
788.1	5104.2	
788.27	5192.3	
788.45	4868	
788.63	4740.4	
788.8	3351.2	
788.98	5526.8	
789.15	4846.9	
789.33	3525.9	
789.5	4235.2	
789.68	6191.7	
789.86	6287.9	
790.03	4693.3	
790.21	4049.5	
790.38	6139.8	
790.56	5286.5	
790.73	3860.4	
790.91	4014.7	
791.09	5122.7	
791.26	5976	
791.44	4117.1	
791.61	3565.5	
791.79	5094.7	
791.96	5210	
792.14	3702.7	
792.32	3194.1	
792.49	5124.7	
792.67	5300.8	
792.84	3781.9	
793.02	3571	
793.19	5641.5	
793.37	6378.1	
793.54	3222.8	
793.72	3657	
793.89	6548	
794.07	5160.9	
794.25	4328.7	
794.42	3304.1	
794.6	6264.1	
794.77	5834	
794.95	4668	
795.12	3977.8	
795.3	5116.5	
795.47	5741.1	
795.65	4393.6	
795.82	4276.2	
796	4935.6	
796.17	6958.3	
796.35	4112.3	
796.52	4911.7	
796.7	5720.7	
796.87	5879.7	
797.05	5082.4	
797.22	5028.4	
797.4	5782.8	
797.57	6894.8	
797.75	4190.8	
797.92	3984.7	
798.1	6083.1	
798.27	5139	
798.45	3362.1	
798.62	3585.3	
798.8	5470.1	
798.97	6034	
799.15	4520.5	
799.32	4255	
799.5	4721.9	
799.67	5507.7	
799.85	4590.9	
800.02	3282.2	
800.2	5059.2	
800.37	5461.2	
800.55	4810	
800.72	4008.6	
800.9	5920	
801.07	6466.1	
801.25	5352.7	
801.42	4339	
801.6	5985.5	
801.77	5715.2	
801.95	4044.7	
802.12	3825.6	
802.29	5680.4	
802.47	5667.4	
802.64	4336.9	
802.82	3246	
802.99	5059.2	
803.17	6214.9	
803.34	4180.6	
803.52	3779.9	
803.69	6892.8	
803.87	4874.8	
804.04	4211.3	
804.21	4243.4	
804.39	6316.6	
804.56	5384.1	
804.74	3599.6	
804.91	4437.3	
805.09	5127.4	
805.26	5276.3	
805.44	3614.7	
805.61	4009.2	
805.78	5806	
805.96	5943.2	
806.13	4392.2	
806.31	4702.8	
806.48	4689.2	
806.66	5225.7	
806.83	4331.5	
807	4285	
807.18	5115.1	
807.35	5523.4	
807.53	4215.4	
807.7	3408.5	
807.87	6410.8	
808.05	5168.4	
808.22	4709.6	
808.4	3321.8	
808.57	5242.1	
808.74	4769.7	
808.92	3894.6	
809.09	5000.5	
809.27	4990.2	
809.44	5705	
809.61	3390.8	
809.79	3867.9	
809.96	6341.2	
810.14	5973.9	
810.31	3298.6	
810.48	4059.8	
810.66	5316.5	
810.83	6086.6	
811.01	3910.3	
811.18	4330.8	
811.35	5982.1	
811.53	4604.5	
811.7	4784.1	
811.87	4418.8	
812.05	5170.4	
812.22	5116.5	
812.39	3782.6	
812.57	3627	
812.74	5144.5	
812.92	6993.8	
813.09	4085	
813.26	4480.3	
813.44	6692.8	
813.61	5103.5	
813.78	3377.8	
813.96	4547.9	
814.13	5187.5	
814.3	4840	
814.48	4904.2	
814.65	4052.9	
814.82	6508.4	
815	4963.6	
815.17	4237.2	
815.34	5150	
815.52	5115.8	
815.69	5085.1	
815.87	4149.9	
816.04	3553.2	
816.21	5173.9	
816.38	4563.6	
816.56	3990.8	
816.73	3743.7	
816.9	6512.5	
817.08	5935.7	
817.25	3758.7	
817.42	4851.6	
817.6	4737.6	
817.77	5260.5	
817.94	4305.5	
818.12	3716.4	
818.29	4939	
818.46	7841	
818.64	3945.8	
818.81	3662.5	
818.98	4836.6	
819.16	7095.5	
819.33	4554.7	
819.5	4224.3	
819.67	5625.1	
819.85	6318	
820.02	4102.8	
820.19	4412.7	
820.37	5396.4	
820.54	4980.7	
820.71	4311.7	
820.88	5276.9	
821.06	5397.8	
821.23	4947.9	
821.4	4358.1	
821.58	4248.9	
821.75	5920.7	
821.92	5321.3	
822.09	3407.8	
822.27	3535.5	
822.44	5190.9	
822.61	5087.8	
822.79	3476.1	
822.96	6687.3	
823.13	5688.6	
823.3	4830.5	
823.48	4004.5	
823.65	3575.1	
823.82	5897.5	
823.99	4674.8	
824.17	5055.1	
824.34	3616.7	
824.51	6909.8	
824.68	5208.7	
824.86	3774.4	
825.03	4283	
825.2	5137.7	
825.37	6398.5	
825.55	3743.7	
825.72	4258.4	
825.89	6991.8	
826.06	6417	
826.24	4138.9	
826.41	4183.3	
826.58	6336.4	
826.75	5500.8	
826.92	3243.3	
827.1	3543	
827.27	8670.4	
827.44	6923.5	
827.61	3846.8	
827.79	4760.2	
827.96	4845.5	
828.13	5350.7	
828.3	4100.7	
828.47	3435.1	
828.65	5432.6	
828.82	5364.3	
828.99	5294.7	
829.16	4597	
829.34	5776.6	
829.51	5543.2	
829.68	4212	
829.85	4450.9	
830.02	6157.6	
830.2	5868.1	
830.37	3204.4	
830.54	5118.6	
830.71	6705.7	
830.88	5134.9	
831.05	3300.6	
831.23	3869.3	
831.4	6285.2	
831.57	7185	
831.74	3906.8	
831.91	3414.6	
832.09	5414.1	
832.26	5798.5	
832.43	4094.6	
832.6	4612.7	
832.77	5395	
832.94	6203.3	
833.12	3185.3	
833.29	3969	
833.46	5016.2	
833.63	7401.4	
833.8	4481.6	
833.97	4112.3	
834.15	5884.5	
834.32	5582.8	
834.49	4189.5	
834.66	4291.9	
834.83	6008.7	
835	4915.8	
835.17	3885.7	
835.35	3944.4	
835.52	5745.2	
835.69	5622.4	
835.86	4149.9	
836.03	3340.9	
836.2	5693.4	
836.37	5364.3	
836.55	4004.5	
836.72	3854.3	
836.89	5389.6	
837.06	5907	
837.23	4095.3	
837.4	4546.5	
837.57	6660	
837.75	7423.2	
837.92	3700.7	
838.09	3999.7	
838.26	5380.7	
838.43	6100.2	
838.6	4168.3	
838.77	3851.5	
838.94	7061.4	
839.11	6704.4	
839.29	4037.9	
839.46	3136.1	
839.63	5815.5	
839.8	5504.9	
839.97	3914.4	
840.14	3928.7	
840.31	5468.8	
840.48	5788.9	
840.65	3239.2	
840.82	3943	
841	5771.2	
841.17	5760.9	
841.34	3646.1	
841.51	3659	
841.68	5748	
841.85	5484.5	
842.02	3767.6	
842.19	3140.2	
842.36	5548.6	
842.53	5545.2	
842.7	3393.5	
842.87	4487.1	
843.05	7301.7	
843.22	5486.5	
843.39	3448.1	
843.56	3667.2	
843.73	5299.5	
843.9	5862	
844.07	5911.8	
844.24	4946.5	
844.41	8648.6	
844.58	4959.5	
844.75	3472	
844.92	3801.7	
845.09	5786.9	
845.26	5767.8	
845.43	3602.4	
845.6	3765.5	
845.77	5780.7	
845.94	5456.5	
846.12	3993.5	
846.29	4183.3	
846.46	6023.8	
846.63	5855.1	
846.8	3569.6	
846.97	4319.2	
847.14	6207.4	
847.31	5775.3	
847.48	4083	
847.65	4494.6	
847.82	6118	
847.99	5997.8	
848.16	4874.2	
848.33	4537.6	
848.5	5379.3	
848.67	6287.3	
848.84	3520.5	
849.01	3733.4	
849.18	5155.4	
849.35	4801.1	
849.52	4599.1	
849.69	3497.9	
849.86	6004	
850.03	6264.7	
850.2	3620.8	
850.37	4422.2	
850.54	6243.6	
850.71	5481.7	
850.88	4306.2	
851.05	3491.8	
851.22	5735	
851.39	6419.7	
851.56	3390.1	
851.73	4094.6	
851.9	5059.2	
852.07	6064	
852.24	3983.3	
852.41	3510.2	
852.58	5628.5	
852.75	5094	
852.92	3994.9	
853.09	3543.7	
853.26	5330.9	
853.43	6264.7	
853.6	3577.8	
853.77	3033	
853.94	6342.6	
854.11	5754.8	
854.28	5339.1	
854.44	3905.5	
854.61	6859.3	
854.78	6122.7	
854.95	3495.9	
855.12	4506.9	
855.29	4639.3	
855.46	6477	
855.63	3579.8	
855.8	5038	
855.97	5287.9	
856.14	6107	
856.31	5184.8	
856.48	3881.6	
856.65	5300.8	
856.82	4985.4	
856.99	3437.2	
857.16	3885.7	
857.33	7092.1	
857.49	5440.8	
857.66	3885.7	
857.83	4220.9	
858	5375.9	
858.17	5591.6	
858.34	3387.3	
858.51	3573.7	
858.68	6583.5	
858.85	6555.5	
859.02	4156	
859.19	4477.5	
859.36	5038	
859.52	5125.4	
859.69	3553.2	
859.86	4226.3	
860.03	5195	
860.2	6363	
860.37	3299.3	
860.54	3633.8	
860.71	5981.4	
860.88	6445	
861.05	4070.7	
861.21	4592.2	
861.38	6478.4	
861.55	4934.9	
861.72	3289.7	
861.89	4037.2	
862.06	6083.8	
862.23	6657.3	
862.4	3433.1	
862.56	3749.8	
862.73	5883.8	
862.9	5541.1	
863.07	4207.2	
863.24	3270.6	
863.41	4955.4	
863.58	5074.9	
863.75	3644.7	
863.91	4130.1	
864.08	6444.3	
864.25	5912.5	
864.42	4558.1	
864.59	5036.6	
864.76	6746.7	
864.93	5070.1	
865.09	3439.9	
865.26	3809.9	
865.43	6341.2	
865.6	6744	
865.77	3134.1	
865.94	3519.8	
866.1	6339.8	
866.27	6100.9	
866.44	5475.6	
866.61	3358	
866.78	5450.3	
866.95	5941.2	
867.11	3474.7	
867.28	3170.9	
867.45	6107	
867.62	5186.8	
867.79	4186	
867.96	3559.4	
868.12	5055.8	
868.29	6089.3	
868.46	3083.6	
868.63	4767	
868.8	6290.7	
868.97	5961.6	
869.13	3750.5	
869.3	3768.9	
869.47	5900.2	
869.64	6158.2	
869.81	3605.1	
869.97	3558.7	
870.14	5760.3	
870.31	6564.4	
870.48	3586.7	
870.65	4525.3	
870.81	5375.2	
870.98	5388.9	
871.15	4114.4	
871.32	3702.7	
871.48	5885.2	
871.65	6547.4	
871.82	3521.1	
871.99	3964.9	
872.16	6968.6	
872.32	6346.7	
872.49	3638.6	
872.66	3704.1	
872.83	6032.6	
872.99	5285.8	
873.16	4122.6	
873.33	3575.1	
873.5	5623.7	
873.67	5627.8	
873.83	3776.5	
874	4824.3	
874.17	5741.1	
874.34	6894.8	
874.5	4626.4	
874.67	4493.9	
874.84	6481.8	
875.01	5037.3	
875.17	5151.3	
875.34	3571.7	
875.51	5713.8	
875.68	6892.8	
875.84	4358.1	
876.01	5335	
876.18	5953.4	
876.34	5915.9	
876.51	3581.9	
876.68	3478.1	
876.85	5439.4	
877.01	6320	
877.18	5202.5	
877.35	3595.6	
877.52	5565.7	
877.68	4906.3	
877.85	3454.9	
878.02	3547.8	
878.18	5526.8	
878.35	5268.1	
878.52	2892.4	
878.69	3996.3	
878.85	6023.1	
879.02	6004.6	
879.19	5076.9	
879.35	3887	
879.52	5901.6	
879.69	6200.6	
879.86	3046.7	
880.02	4023.6	
880.19	5442.8	
880.36	6822.5	
880.52	4153.3	
880.69	4279.6	
880.86	6053.8	
881.02	6163	
881.19	3950.5	
881.36	3880.2	
881.52	5917.9	
881.69	5223	
881.86	3889.1	
882.02	3768.9	
882.19	6244.9	
882.36	7424.6	
882.52	3644.7	
882.69	5075.5	
882.86	5828.5	
883.02	5623	
883.19	4392.9	
883.36	4101.4	
883.52	6046.3	
883.69	6951.5	
883.86	3594.9	
884.02	3248.1	
884.19	6085.2	
884.36	5552	
884.52	4040.6	
884.69	3862.5	
884.86	5268.1	
885.02	6736.5	
885.19	3973.1	
885.36	4140.3	
885.52	5581.4	
885.69	5758.2	
885.86	5221	
886.02	4659.8	
886.19	5994.4	
886.35	5344.5	
886.52	3971.7	
886.69	5082.4	
886.85	5104.2	
887.02	6441.5	
887.19	6441.5	
887.35	6441.5	
887.52	6441.5	
887.68	6441.5	
887.85	6441.5	
888.02	6441.5	
888.18	6441.5	
888.35	6441.5	
888.51	6441.5	
888.68	6441.5	
888.85	6441.5	
889.01	6441.5	
889.18	6441.5	
889.35	6441.5	
889.51	6441.5	
889.68	6441.5	
889.84	6441.5	
890.01	6441.5	
890.17	6441.5	
890.34	6441.5	
890.51	6441.5	
890.67	6441.5	
890.84	6441.5	
891	6441.5	
891.17	6441.5	
891.34	6441.5	
891.5	6441.5	
891.67	6441.5	
891.83	6441.5	
892	6441.5	
892.16	6441.5	
892.33	6441.5	
892.5	6441.5	
892.66	6441.5	
892.83	6441.5	
892.99	6441.5	
893.16	6441.5	
893.32	6441.5	
893.49	6441.5	
893.65	6441.5	
893.82	6441.5	
893.99	6441.5	
894.15	6441.5	
894.32	6441.5	
894.48	6441.5	
894.65	6441.5	
894.81	6441.5	
894.98	6441.5	
895.14	6441.5	
895.31	6441.5	
895.47	6441.5	
895.64	6441.5	
895.81	6441.5	
895.97	6441.5	
896.14	6441.5	
896.3	6441.5	
896.47	6441.5	
896.63	6441.5	
896.8	6441.5	
896.96	6441.5	
897.13	6441.5	
897.29	6441.5	
897.46	6441.5	
897.62	6441.5	
897.79	6441.5	
897.95	6441.5	
898.12	6441.5	
898.28	6441.5	
898.45	6441.5	
898.61	6441.5	
898.78	6441.5	
898.94	6441.5	
899.11	6441.5	
899.27	6441.5	
899.44	6441.5	
899.6	6441.5	
899.77	6441.5	
899.93	6441.5	
900.1	6441.5	
900.26	6441.5	
900.43	6441.5	
900.59	6441.5	
900.76	6441.5	
900.92	6441.5	
901.09	6441.5	
901.25	6441.5	
901.42	6441.5	
901.58	6441.5	
901.75	6441.5	
901.91	6441.5	
902.07	6441.5	
902.24	6441.5	
902.4	6441.5	
902.57	6441.5	
902.73	6441.5	
902.9	6441.5	
903.06	6441.5	
903.23	6441.5	
903.39	6441.5	
903.56	6441.5	
903.72	6441.5	
903.88	6441.5	
904.05	6441.5	
904.21	6441.5	
904.38	6441.5	
904.54	6441.5	
904.71	6441.5	
904.87	6441.5	
905.03	6441.5	
905.2	6441.5	
905.36	6441.5	
905.53	6441.5	
905.69	6441.5	
905.86	6441.5	
906.02	6441.5	
906.18	6441.5	
906.35	6441.5	
906.51	6441.5	
906.68	6441.5	
906.84	6441.5	
907.01	6441.5	
907.17	6441.5	
907.33	6441.5	
907.5	6441.5	
907.66	6441.5	
907.83	6441.5	
907.99	6441.5	
908.15	6441.5	
908.32	6441.5	
908.48	6441.5	
908.65	6441.5	
908.81	6441.5	
908.97	6441.5	
909.14	6441.5	
909.3	6441.5	
909.47	6441.5	
909.63	6441.5	
909.79	6441.5	
909.96	6441.5	
910.12	6441.5	
910.28	6441.5	
910.45	6441.5	
910.61	6441.5	
910.78	6441.5	
910.94	6441.5	
911.1	6441.5	
911.27	6441.5	
911.43	6441.5	
911.59	6441.5	
911.76	6441.5	
911.92	6441.5	
912.08	6441.5	
912.25	6441.5	
912.41	6441.5	
912.57	6441.5	
912.74	6441.5	
912.9	6441.5	
913.07	6441.5	
913.23	6441.5	
913.39	6441.5	
913.56	6441.5	
913.72	6441.5	
913.88	6441.5	
914.05	6441.5	
914.21	6441.5	
914.37	6441.5	
914.54	6441.5	
914.7	6441.5	
914.86	6441.5	
915.03	6441.5	
915.19	6441.5	
