Wavelength	Intensities	
nm	a.u.	
179.22	1952.6	
179.44	1945.9	
179.65	1959.2	
179.86	1932.6	
180.08	1963.3	
180.29	5124	
180.51	3611.3	
180.72	5763.7	
180.94	6796.5	
181.15	3317	
181.37	3235.1	
181.58	5618.9	
181.79	5949.3	
182.01	3513.6	
182.22	3771	
182.44	5877	
182.65	5025	
182.87	4734.2	
183.08	4169.7	
183.29	6226.5	
183.51	5122.7	
183.72	3855	
183.94	5601.2	
184.15	5527.5	
184.37	5591.6	
184.58	3315.7	
184.79	4647.5	
185.01	5098.1	
185.22	5907	
185.44	4878.9	
185.65	4043.4	
185.86	5442.1	
186.08	5005.9	
186.29	3213.3	
186.51	3512.9	
186.72	5167	
186.94	6111.1	
187.15	4024.9	
187.36	4160.8	
187.58	8049.9	
187.79	5670.8	
188.01	4368.3	
188.22	6849.1	
188.43	6764.4	
188.65	5875.6	
188.86	3467.9	
189.08	4192.2	
189.29	5369.1	
189.5	5322	
189.72	3855.6	
189.93	3999.7	
190.15	6105	
190.36	7421.8	
190.57	4300.1	
190.79	4134.8	
191	6259.3	
191.22	6200.6	
191.43	4263.9	
191.64	3461.7	
191.86	6468.2	
192.07	6147.3	
192.29	3630.4	
192.5	3906.2	
192.71	6122.7	
192.93	5288.5	
193.14	3835.8	
193.35	3945.1	
193.57	5318.6	
193.78	6173.3	
194	3052.8	
194.21	3700.7	
194.42	5090.6	
194.64	5547.3	
194.85	4188.8	
195.07	4963.6	
195.28	5662	
195.49	4834.6	
195.71	5198.4	
195.92	3573.7	
196.13	5739.8	
196.35	5900.9	
196.56	5595.1	
196.78	4159.4	
196.99	7263.5	
197.2	6787.7	
197.42	4800.4	
197.63	4203.1	
197.84	4979.3	
198.06	5780.7	
198.27	3891.8	
198.48	5143.8	
198.7	5285.8	
198.91	5427.1	
199.13	4191.5	
199.34	4265.2	
199.55	5982.8	
199.77	4812	
199.98	3691.1	
200.19	4343.1	
200.41	5335	
200.62	5188.2	
200.83	4411.3	
201.05	4709	
201.26	5435.3	
201.47	5195	
201.69	3719.8	
201.9	3584.6	
202.11	5459.2	
202.33	6522.8	
202.54	3996.3	
202.76	4479.6	
202.97	5708.4	
203.18	5654.4	
203.4	4420.2	
203.61	4249.5	
203.82	5559.6	
204.04	5211.4	
204.25	4308.2	
204.46	4152.6	
204.68	5578	
204.89	5838.1	
205.1	4136.2	
205.32	3579.2	
205.53	5990.3	
205.74	6100.2	
205.96	3028.9	
206.17	4370.4	
206.38	5894.7	
206.6	6073.6	
206.81	4833.9	
207.02	3931.4	
207.24	5836	
207.45	6270.9	
207.66	4061.8	
207.88	3420.1	
208.09	5794.4	
208.3	5547.3	
208.52	3715	
208.73	4049.5	
208.94	5583.4	
209.15	6262	
209.37	4000.4	
209.58	4264.6	
209.79	6171.9	
210.01	5373.2	
210.22	3181.9	
210.43	3322.5	
210.65	5569.8	
210.86	5978.7	
211.07	4018.8	
211.29	3658.4	
211.5	5880.4	
211.71	5511.8	
211.93	3624.2	
212.14	3682.9	
212.35	5482.4	
212.56	5767.1	
212.78	4279.6	
212.99	3477.5	
213.2	6577.4	
213.42	5327.4	
213.63	3848.8	
213.84	4087.7	
214.06	4932.2	
214.27	5007.3	
214.48	3988.8	
214.69	4292.5	
214.91	6251.8	
215.12	6386.2	
215.33	4360.1	
215.55	4729.4	
215.76	6909.2	
215.97	5960.3	
216.18	4134.8	
216.4	4114.4	
216.61	5207.3	
216.82	6083.8	
217.04	3695.9	
217.25	3885	
217.46	6171.2	
217.67	5980.1	
217.89	3283.6	
218.1	3428.3	
218.31	5602.6	
218.53	5724.8	
218.74	3875.4	
218.95	3790.1	
219.16	5500.2	
219.38	6502.3	
219.59	3772.4	
219.8	4497.3	
220.01	7274.4	
220.23	5553.4	
220.44	4968.4	
220.65	3645.4	
220.87	5649	
221.08	6148.7	
221.29	3417.4	
221.5	4584	
221.72	7763.2	
221.93	5283.8	
222.14	4291.9	
222.35	5012.7	
222.57	5634.6	
222.78	5877	
222.99	4009.9	
223.2	4343.1	
223.42	5874.9	
223.63	6010.8	
223.84	3079.5	
224.05	3029.6	
224.27	7170.6	
224.48	6541.9	
224.69	5025	
224.9	4207.9	
225.12	5771.9	
225.33	5510.4	
225.54	3368.2	
225.75	3820.8	
225.97	5076.9	
226.18	5441.5	
226.39	4110.3	
226.6	3788.1	
226.82	5332.9	
227.03	5124.7	
227.24	4223.6	
227.45	3490.4	
227.67	5939.1	
227.88	6561.7	
228.09	4773.8	
228.3	4723.3	
228.52	6012.2	
228.73	5518.6	
228.94	3951.9	
229.15	3509.5	
229.36	5464.7	
229.58	5384.8	
229.79	3933.5	
230	4626.4	
230.21	6642.2	
230.43	5687.9	
230.64	4216.1	
230.85	4429.1	
231.06	5970.5	
231.28	6042.2	
231.49	3511.6	
231.7	4089.1	
231.91	5907	
232.12	5599.8	
232.34	3581.9	
232.55	4133.5	
232.76	6221.7	
232.97	5726.1	
233.18	3667.2	
233.4	4160.1	
233.61	5856.5	
233.82	5221.6	
234.03	3826.3	
234.25	3851.5	
234.46	7768.6	
234.67	5580	
234.88	4314.4	
235.09	3690.4	
235.31	5978	
235.52	5412.1	
235.73	4140.3	
235.94	3504.1	
236.15	5260.5	
236.37	6794.5	
236.58	3742.3	
236.79	4067.3	
237	5911.1	
237.21	4990.9	
237.43	4339.6	
237.64	3396.2	
237.85	10270	
238.06	5101.5	
238.27	4434.5	
238.48	3499.3	
238.7	5842.2	
238.91	5396.4	
239.12	4050.2	
239.33	4042	
239.54	5137.7	
239.76	5484.5	
239.97	3983.3	
240.18	4050.9	
240.39	6976.7	
240.6	5858.6	
240.82	4170.3	
241.03	3450.8	
241.24	5558.9	
241.45	6475	
241.66	3701.4	
241.87	4365.6	
242.09	6315.3	
242.3	6728.3	
242.51	4379.9	
242.72	4039.3	
242.93	6094.1	
243.14	5515.2	
243.36	4700.1	
243.57	5115.8	
243.78	6422.4	
243.99	5862	
244.2	4066.6	
244.41	3694.5	
244.63	5066.7	
244.84	5897.5	
245.05	4312.3	
245.26	4076.8	
245.47	5829.2	
245.68	6146	
245.9	5481.7	
246.11	4249.5	
246.32	5426.4	
246.53	5871.5	
246.74	6599.2	
246.95	3408.5	
247.16	5047.6	
247.38	5577.3	
247.59	3376.4	
247.8	4077.5	
248.01	5238	
248.22	5470.8	
248.43	3646.1	
248.64	3965.6	
248.86	4934.9	
249.07	5341.8	
249.28	3592.8	
249.49	4149.2	
249.7	6164.4	
249.91	6326.2	
250.12	3333.4	
250.34	3439.2	
250.55	5657.9	
250.76	5571.8	
250.97	4167.6	
251.18	4237.2	
251.39	6375.3	
251.6	5789.6	
251.81	4268.6	
252.03	4262.5	
252.24	5271.5	
252.45	6151.4	
252.66	3503.4	
252.87	4524.6	
253.08	5575.9	
253.29	7543.4	
253.5	3475.4	
253.72	4977.2	
253.93	5356.1	
254.14	6638.8	
254.35	3857.7	
254.56	3990.1	
254.77	5842.2	
254.98	5186.1	
255.19	3773	
255.41	4902.8	
255.62	5669.5	
255.83	6264.7	
256.04	4416.8	
256.25	4283.7	
256.46	6910.5	
256.67	5197.1	
256.88	4193.6	
257.09	4694.6	
257.31	5226.4	
257.52	5245.5	
257.73	5272.8	
257.94	3837.9	
258.15	5408.7	
258.36	5631.2	
258.57	4924	
258.78	3008.5	
258.99	6120	
259.2	5386.8	
259.41	3846.1	
259.63	3960.1	
259.84	6505.7	
260.05	7023.9	
260.26	5197.7	
260.47	3786	
260.68	6178	
260.89	5458.5	
261.1	4717.2	
261.31	3637.9	
261.52	6134.3	
261.73	6541.9	
261.95	5016.2	
262.16	4371.7	
262.37	6341.9	
262.58	6436.8	
262.79	4986.8	
263	3943	
263.21	5683.8	
263.42	5050.3	
263.63	4009.2	
263.84	3894.6	
264.05	6205.3	
264.26	6545.3	
264.47	4860.5	
264.69	4345.8	
264.9	6296.1	
265.11	5790.3	
265.32	3800.3	
265.53	3833.1	
265.74	5683.8	
265.95	4994.3	
266.16	4122.6	
266.37	4590.2	
266.58	5746.6	
266.79	5399.1	
267	3827	
267.21	3554.6	
267.42	5111	
267.63	5496.1	
267.84	4043.4	
268.06	3450.8	
268.27	6015.6	
268.48	6347.3	
268.69	3969	
268.9	4649.6	
269.11	6344.6	
269.32	5033.2	
269.53	4084.3	
269.74	3701.4	
269.95	5939.8	
270.16	4898.7	
270.37	4113	
270.58	4686.4	
270.79	5418.2	
271	6154.8	
271.21	4426.3	
271.42	4115.1	
271.63	5739.1	
271.84	5201.2	
272.05	3231.7	
272.26	3656.3	
272.47	5581.4	
272.68	5799.8	
272.89	3872.7	
273.11	4468.7	
273.32	5406	
273.53	6575.3	
273.74	4403.1	
273.95	4311	
274.16	6262.7	
274.37	5674.9	
274.58	4472.1	
274.79	3570.3	
275	5702.2	
275.21	6225.8	
275.42	5378	
275.63	4564.9	
275.84	5838.8	
276.05	7369.3	
276.26	4268	
276.47	4005.1	
276.68	5388.2	
276.89	6646.3	
277.1	4611.3	
277.31	3573	
277.52	5900.2	
277.73	6005.3	
277.94	3496.6	
278.15	3908.2	
278.36	5762.3	
278.57	5238	
278.78	3932.1	
278.99	4496.7	
279.2	5165.7	
279.41	5100.1	
279.62	5144.5	
279.83	3600.3	
280.04	6825.2	
280.25	5074.2	
280.46	5149.3	
280.67	4099.4	
280.88	5197.7	
281.09	6309.1	
281.3	4267.3	
281.51	5475.6	
281.72	6119.3	
281.93	6178.7	
282.14	3803.1	
282.35	4022.2	
282.56	6096.8	
282.77	6096.8	
282.98	3944.4	
283.19	4839.4	
283.4	7521.5	
283.61	5527.5	
283.82	3620.8	
284.03	5049.6	
284.24	5679	
284.45	6324.1	
284.66	5015.5	
284.87	4850.3	
285.08	6150.7	
285.29	6375.3	
285.5	3424.9	
285.71	4008.6	
285.92	6219	
286.12	6957.6	
286.33	4970.4	
286.54	3977.8	
286.75	6114.6	
286.96	5445.5	
287.17	3632.4	
287.38	4961.5	
287.59	5181.4	
287.8	5096.7	
288.01	4027.7	
288.22	4605.2	
288.43	6148.7	
288.64	5094	
288.85	4726.7	
289.06	4549.9	
289.27	6285.2	
289.48	6559.6	
289.69	5060.5	
289.9	4566.3	
290.11	6244.9	
290.32	5271.5	
290.53	4827.1	
290.74	4458.4	
290.94	6117.3	
291.15	6094.1	
291.36	3840.6	
291.57	4585.4	
291.78	5271.5	
291.99	4949.3	
292.2	3636.5	
292.41	4419.5	
292.62	6198.5	
292.83	5951.4	
293.04	5445.5	
293.25	3736.2	
293.46	5358.9	
293.67	6236.1	
293.88	3855	
294.09	3658.4	
294.29	5120.6	
294.5	5719.3	
294.71	4080.2	
294.92	3882.3	
295.13	5397.1	
295.34	6786.3	
295.55	3426.3	
295.76	3715.7	
295.97	6006.7	
296.18	6837.5	
296.39	3627	
296.6	3862.5	
296.81	5719.3	
297.01	6012.2	
297.22	4011.3	
297.43	3799.7	
297.64	5172.5	
297.85	5185.5	
298.06	3124.5	
298.27	3411.9	
298.48	5670.8	
298.69	5254.4	
298.9	4123.9	
299.11	3714.3	
299.31	5070.8	
299.52	5022.3	
299.73	4447.5	
299.94	4338.3	
300.15	5557.5	
300.36	5252.4	
300.57	4375.8	
300.78	4360.8	
300.99	5477.6	
301.2	5727.5	
301.4	3779.2	
301.61	4212	
301.82	5956.2	
302.03	5984.2	
302.24	4595.6	
302.45	3661.8	
302.66	5891.3	
302.87	6393.1	
303.08	3829	
303.29	5235.3	
303.49	5324.7	
303.7	5694.7	
303.91	3338.2	
304.12	4949.3	
304.33	5062.6	
304.54	5722.7	
304.75	3868.6	
304.96	3693.9	
305.16	5903.6	
305.37	6671.6	
305.58	3334.8	
305.79	3442	
306	5918.6	
306.21	4974.5	
306.42	3833.8	
306.63	5859.2	
306.83	5395	
307.04	6281.1	
307.25	4172.4	
307.46	4227.7	
307.67	4752.7	
307.88	6150.7	
308.09	3720.5	
308.29	3946.4	
308.5	5700.2	
308.71	6291.4	
308.92	4074.1	
309.13	3650.8	
309.34	5439.4	
309.55	5545.2	
309.75	4799.8	
309.96	4392.9	
310.17	6056.5	
310.38	5340.4	
310.59	4619.5	
310.8	4066.6	
311.01	6839.5	
311.21	5472.2	
311.42	3592.8	
311.63	3719.8	
311.84	5339.1	
312.05	5732.3	
312.26	4286.4	
312.46	4695.3	
312.67	5399.8	
312.88	5118.6	
313.09	3660.4	
313.3	3610.6	
313.51	6484.6	
313.71	6853.2	
313.92	3627.6	
314.13	3915	
314.34	5756.8	
314.55	5446.2	
314.76	4780	
314.96	4097.3	
315.17	5627.8	
315.38	6062.7	
315.59	3694.5	
315.8	3583.3	
316.01	6592.4	
316.21	6604.7	
316.42	3539.6	
316.63	4080.2	
316.84	5481	
317.05	6353.5	
317.26	4342.4	
317.46	3874.8	
317.67	5575.3	
317.88	6023.1	
318.09	4678.2	
318.3	3410.6	
318.5	5254.4	
318.71	5911.8	
318.92	5984.2	
319.13	4317.1	
319.34	6135	
319.54	6249	
319.75	3383.9	
319.96	3254.2	
320.17	6027.2	
320.38	6204	
320.58	3393.5	
320.79	4097.3	
321	6247	
321.21	6320	
321.42	4028.4	
321.62	3363.4	
321.83	5116.5	
322.04	5622.4	
322.25	3952.6	
322.46	3662.5	
322.66	5718.6	
322.87	5906.3	
323.08	4618.2	
323.29	3635.8	
323.5	6765.8	
323.7	5104.9	
323.91	5098.1	
324.12	4564.9	
324.33	5637.4	
324.53	5935	
324.74	4394.3	
324.95	4641.4	
325.16	4975.2	
325.37	5412.8	
325.57	3708.2	
325.78	3769.6	
325.99	5675.6	
326.2	5096	
326.4	5412.8	
326.61	3416.7	
326.82	5561.6	
327.03	5722.7	
327.24	5263.3	
327.44	5056.4	
327.65	5963	
327.86	4767	
328.07	4352.6	
328.27	3514.3	
328.48	6346	
328.69	5182.7	
328.9	5399.1	
329.1	3928	
329.31	5447.6	
329.52	6471.6	
329.73	3713	
329.93	4240	
330.14	5564.3	
330.35	5846.3	
330.56	6156.2	
330.76	4575.2	
330.97	5466	
331.18	5793.7	
331.39	4160.1	
331.59	3363.4	
331.8	6338.5	
332.01	6354.2	
332.22	3803.8	
332.42	4351.3	
332.63	5732.9	
332.84	5324	
333.05	4156.7	
333.25	3796.3	
333.46	5409.4	
333.67	5643.5	
333.88	3899.3	
334.08	4302.8	
334.29	7484.6	
334.5	6344.6	
334.7	3606.5	
334.91	5279.7	
335.12	5109	
335.33	6094.1	
335.53	4089.1	
335.74	6150.1	
335.95	5393.7	
336.16	5274.9	
336.36	4086.4	
336.57	4710.3	
336.78	5090.6	
336.98	6328.9	
337.19	5067.4	
337.4	4012	
337.61	6802.7	
337.81	5178.6	
338.02	3814.7	
338.23	4941.1	
338.43	6381.5	
338.64	5211.4	
338.85	3718.4	
339.05	4934.2	
339.26	6496.2	
339.47	4985.4	
339.68	3754.6	
339.88	5507.7	
340.09	5872.2	
340.3	6047.7	
340.5	4420.2	
340.71	3288.4	
340.92	5058.5	
341.13	6447	
341.33	3624.9	
341.54	4407.9	
341.75	5863.3	
341.95	5529.5	
342.16	4199	
342.37	4558.1	
342.57	5115.8	
342.78	5559.6	
342.99	4650.3	
343.19	3358.7	
343.4	6041.5	
343.61	5865.4	
343.81	3958	
344.02	3643.3	
344.23	6004.6	
344.43	6578.1	
344.64	4611.3	
344.85	4579.9	
345.06	5900.9	
345.26	6230.6	
345.47	4306.2	
345.68	5088.5	
345.88	4966.3	
346.09	6171.2	
346.3	4431.1	
346.5	3341.6	
346.71	5623	
346.92	5313.1	
347.12	3407.1	
347.33	4285.7	
347.54	6240.2	
347.74	6678.4	
347.95	4192.9	
348.16	3153.9	
348.36	5417.6	
348.57	5202.5	
348.78	4197.7	
348.98	4595.6	
349.19	5613.5	
349.39	5084.4	
349.6	3413.3	
349.81	3863.8	
350.01	5896.1	
350.22	5302.2	
350.43	4182.6	
350.63	5033.2	
350.84	5735.7	
351.05	5449.6	
351.25	3787.4	
351.46	3469.9	
351.67	6270.9	
351.87	5341.1	
352.08	4015.4	
352.29	4608.6	
352.49	6156.2	
352.7	5851.7	
352.9	3648.8	
353.11	4653	
353.32	6879.8	
353.52	5444.9	
353.73	3650.2	
353.94	4696.7	
354.14	6005.3	
354.35	5900.2	
354.55	3822.2	
354.76	4179.2	
354.97	5999.2	
355.17	5737	
355.38	3587.4	
355.59	4960.2	
355.79	5413.5	
356	5854.5	
356.2	4207.2	
356.41	3751.2	
356.62	5096.7	
356.82	5635.3	
357.03	4515.1	
357.24	4123.2	
357.44	5470.8	
357.65	5631.9	
357.85	5455.1	
358.06	4323.3	
358.27	5209.3	
358.47	5418.2	
358.68	3618.8	
358.88	4560.8	
359.09	6068.1	
359.3	6567.8	
359.5	5298.1	
359.71	4797	
359.91	6963.1	
360.12	6310.5	
360.33	4596.3	
360.53	5141.8	
360.74	5571.8	
360.94	5636.7	
361.15	4899.4	
361.36	4067.9	
361.56	6463.4	
361.77	5896.8	
361.97	5439.4	
362.18	4354	
362.38	6532.3	
362.59	5532.9	
362.8	4106.9	
363	3914.4	
363.21	5392.3	
363.41	6146	
363.62	4645.5	
363.83	5864	
364.03	6158.2	
364.24	7285.3	
364.44	5890.6	
364.65	5767.8	
364.85	5973.2	
365.06	5603.2	
365.27	4398.4	
365.47	4384	
365.68	7092.1	
365.88	5970.5	
366.09	4818.9	
366.29	4563.6	
366.5	6326.2	
366.71	6770.6	
366.91	5988.9	
367.12	5081	
367.32	7446.4	
367.53	6617	
367.73	4993.6	
367.94	6096.1	
368.14	6559.6	
368.35	7636.2	
368.56	5104.2	
368.76	4381.3	
368.97	6723.5	
369.17	8537.3	
369.38	4496	
369.58	4772.4	
369.79	5789.6	
369.99	7163.8	
370.2	5894.7	
370.4	4900.1	
370.61	6433.4	
370.82	7701.7	
371.02	4799.8	
371.23	4128.7	
371.43	5664	
371.64	7159.7	
371.84	4952	
372.05	6265.4	
372.25	8650.6	
372.46	7006.8	
372.66	5034.6	
372.87	4979.3	
373.07	7094.8	
373.28	8772.8	
373.48	6138.4	
373.69	5911.8	
373.9	6571.9	
374.1	6651.1	
374.31	6271.6	
374.51	5705.6	
374.72	7557.7	
374.92	6342.6	
375.13	6511.2	
375.33	5604.6	
375.54	7225.2	
375.74	6638.8	
375.95	5823.1	
376.15	7141.3	
376.36	7257.3	
376.56	7215	
376.77	5967.1	
376.97	6359.6	
377.18	8585.8	
377.38	7585.7	
377.59	6901	
377.79	5571.8	
378	7409.6	
378.2	7916.1	
378.41	5782.8	
378.61	5582.8	
378.82	7917.4	
379.02	7123.5	
379.23	5928.2	
379.43	7204.8	
379.64	8034.9	
379.84	7772	
380.05	5758.2	
380.25	5650.3	
380.46	7785.7	
380.66	7336.5	
380.87	7129	
381.07	7519.5	
381.28	8440.4	
381.48	7791.2	
381.69	5706.3	
381.89	5701.5	
382.1	6588.3	
382.3	7891.5	
382.51	6826.6	
382.71	7843	
382.91	7710.6	
383.12	8315.4	
383.32	6057.9	
383.53	6262.7	
383.73	7452.6	
383.94	7322.2	
384.14	6139.8	
384.35	5259.9	
384.55	7157	
384.76	7627.3	
384.96	5879.7	
385.17	6241.5	
385.37	7503.8	
385.58	6791.1	
385.78	6275.7	
385.98	5003.2	
386.19	6997.9	
386.39	7423.2	
386.6	5627.8	
386.8	5879	
387.01	7682.6	
387.21	7649.8	
387.42	6438.1	
387.62	7024.5	
387.83	6931	
388.03	7733.1	
388.23	6227.2	
388.44	7060	
388.64	6657.9	
388.85	6957.6	
389.05	6697.5	
389.26	7314	
389.46	9079.3	
389.67	8414.4	
389.87	6765.1	
390.07	6760.3	
390.28	7580.2	
390.48	7145.4	
390.69	6016.2	
390.89	6266.1	
391.1	7303.7	
391.3	8403.5	
391.5	7533.1	
391.71	8161.8	
391.91	8061.5	
392.12	9207	
392.32	7608.9	
392.53	6739.9	
392.73	7376.8	
392.93	7577.5	
393.14	6363.7	
393.34	7223.2	
393.55	8011.7	
393.75	7538.6	
393.95	6231.3	
394.16	6212.9	
394.36	7299	
394.57	7894.9	
394.77	5771.9	
394.98	6161.7	
395.18	7335.8	
395.38	7486	
395.59	7344	
395.79	6292	
396	7630.7	
396.2	8171.4	
396.4	7421.8	
396.61	7290.1	
396.81	8619.9	
397.02	7831.4	
397.22	7821.2	
397.42	7884	
397.63	8650.6	
397.83	7907.9	
398.04	6621.8	
398.24	7288	
398.44	8404.2	
398.65	7653.3	
398.85	6493.4	
399.05	6677.7	
399.26	8011	
399.46	9840.5	
399.67	7135.8	
399.87	6854.6	
400.07	8520.9	
400.28	8886.8	
400.48	7185.6	
400.69	8399.4	
400.89	9413.8	
401.09	9734.7	
401.3	7173.4	
401.5	8422.6	
401.7	10262	
401.91	10352	
402.11	7574.1	
402.32	7732.4	
402.52	9445.2	
402.72	9065	
402.93	7849.2	
403.13	6415.6	
403.33	9930.6	
403.54	8254.7	
403.74	7200	
403.94	8014.4	
404.15	8282.7	
404.35	9549.7	
404.56	6873.7	
404.76	8968.1	
404.96	8901.2	
405.17	8706.6	
405.37	8088.1	
405.57	7750.2	
405.78	9258.9	
405.98	8504.5	
406.18	7385	
406.39	8333.2	
406.59	9065.7	
406.79	8699.1	
407	6956.3	
407.2	7082.6	
407.4	9089.6	
407.61	9430.9	
407.81	7290.8	
408.01	9768.1	
408.22	8402.8	
408.42	10617	
408.62	8966	
408.83	8582.4	
409.03	9585.2	
409.23	9534	
409.44	8965.3	
409.64	9420	
409.84	11031	
410.05	11009	
410.25	9444.5	
410.45	9176.3	
410.66	10916	
410.86	13336	
411.06	10142	
411.27	9873.3	
411.47	13633	
411.67	11329	
411.88	10153	
412.08	10944	
412.28	12048	
412.49	12725	
412.69	10359	
412.89	10486	
413.09	12590	
413.3	12556	
413.5	10591	
413.7	10241	
413.91	11680	
414.11	12845	
414.31	10527	
414.52	11273	
414.72	12450	
414.92	12512	
415.12	10587	
415.33	11304	
415.53	12996	
415.73	13214	
415.94	11622	
416.14	11012	
416.34	12131	
416.55	11522	
416.75	12409	
416.95	11684	
417.15	13203	
417.36	13846	
417.56	12944	
417.76	11865	
417.97	13571	
418.17	13504	
418.37	11338	
418.57	11638	
418.78	13091	
418.98	12605	
419.18	12510	
419.38	12242	
419.59	12774	
419.79	12127	
419.99	11262	
420.2	11682	
420.4	13272	
420.6	13391	
420.8	11133	
421.01	11069	
421.21	13159	
421.41	13403	
421.61	11546	
421.82	11364	
422.02	12743	
422.22	13338	
422.42	12249	
422.63	11296	
422.83	12639	
423.03	14020	
423.23	11480	
423.44	10499	
423.64	12684	
423.84	12329	
424.04	10957	
424.25	10622	
424.45	13477	
424.65	13334	
424.85	10287	
425.06	10957	
425.26	13402	
425.46	11879	
425.66	11378	
425.87	10920	
426.07	13067	
426.27	12790	
426.47	11172	
426.67	10355	
426.88	13257	
427.08	12534	
427.28	11487	
427.48	10161	
427.69	11393	
427.89	12162	
428.09	11290	
428.29	10311	
428.5	12923	
428.7	12532	
428.9	10254	
429.1	10748	
429.3	12349	
429.51	12942	
429.71	10447	
429.91	11487	
430.11	12870	
430.31	13288	
430.52	11032	
430.72	11541	
430.92	13620	
431.12	12981	
431.32	10876	
431.53	11194	
431.73	11977	
431.93	13604	
432.13	10648	
432.33	10690	
432.54	12332	
432.74	12841	
432.94	10775	
433.14	11830	
433.34	12902	
433.55	12745	
433.75	11666	
433.95	14007	
434.15	12827	
434.35	12740	
434.56	10948	
434.76	10724	
434.96	13026	
435.16	13448	
435.36	10962	
435.56	12478	
435.77	12878	
435.97	13117	
436.17	13308	
436.37	12529	
436.57	13018	
436.78	13108	
436.98	14085	
437.18	13068	
437.38	13960	
437.58	13202	
437.78	13155	
437.99	11589	
438.19	13352	
438.39	15158	
438.59	11374	
438.79	10710	
438.99	14074	
439.2	12832	
439.4	10748	
439.6	10835	
439.8	13259	
440	14520	
440.2	12417	
440.4	12506	
440.61	14083	
440.81	14840	
441.01	11787	
441.21	13082	
441.41	15118	
441.61	14395	
441.81	13573	
442.02	14530	
442.22	15393	
442.42	14595	
442.62	12211	
442.82	12153	
443.02	14923	
443.22	14078	
443.43	12682	
443.63	12239	
443.83	13761	
444.03	13876	
444.23	14032	
444.43	13373	
444.63	14584	
444.83	15591	
445.04	12790	
445.24	14048	
445.44	14551	
445.64	14855	
445.84	13039	
446.04	13208	
446.24	13828	
446.44	14795	
446.65	11862	
446.85	12761	
447.05	13324	
447.25	14699	
447.45	12431	
447.65	11856	
447.85	13833	
448.05	13274	
448.25	13147	
448.46	12891	
448.66	14014	
448.86	13482	
449.06	11788	
449.26	13042	
449.46	14622	
449.66	13383	
449.86	12844	
450.06	12637	
450.26	13762	
450.47	14389	
450.67	12805	
450.87	13325	
451.07	14347	
451.27	14416	
451.47	12147	
451.67	13029	
451.87	14112	
452.07	15026	
452.27	12662	
452.47	12455	
452.67	14142	
452.88	14732	
453.08	11560	
453.28	14123	
453.48	15771	
453.68	13956	
453.88	12436	
454.08	12632	
454.28	14827	
454.48	14347	
454.68	13347	
454.88	13801	
455.08	14825	
455.28	15034	
455.48	12176	
455.68	13419	
455.89	15769	
456.09	15390	
456.29	13061	
456.49	13428	
456.69	15696	
456.89	14788	
457.09	14025	
457.29	14493	
457.49	15415	
457.69	15791	
457.89	14124	
458.09	13312	
458.29	15427	
458.49	16193	
458.69	14609	
458.89	14143	
459.09	16891	
459.29	16707	
459.49	14241	
459.69	15132	
459.9	16034	
460.1	15956	
460.3	13855	
460.5	13794	
460.7	16332	
460.9	15958	
461.1	13548	
461.3	15141	
461.5	17264	
461.7	16695	
461.9	14634	
462.1	14752	
462.3	16454	
462.5	17229	
462.7	14706	
462.9	14900	
463.1	18200	
463.3	18346	
463.5	15214	
463.7	16699	
463.9	17193	
464.1	17567	
464.3	16147	
464.5	15902	
464.7	18104	
464.9	18016	
465.1	17677	
465.3	16649	
465.5	18589	
465.7	18673	
465.9	17179	
466.1	16354	
466.3	18739	
466.5	18150	
466.7	18183	
466.9	16531	
467.1	18384	
467.3	19429	
467.5	18329	
467.7	16955	
467.9	19650	
468.1	20842	
468.3	17642	
468.5	18323	
468.7	18755	
468.9	18583	
469.1	17492	
469.3	18331	
469.5	21156	
469.7	18435	
469.9	17780	
470.1	17303	
470.3	18765	
470.5	18832	
470.7	18577	
470.9	17125	
471.1	18679	
471.3	18685	
471.5	17153	
471.69	19042	
471.89	18234	
472.09	17729	
472.29	18056	
472.49	17705	
472.69	18072	
472.89	18791	
473.09	16701	
473.29	16494	
473.49	17996	
473.69	17858	
473.89	17645	
474.09	16670	
474.29	19267	
474.49	18943	
474.69	17613	
474.89	16752	
475.09	17961	
475.29	17953	
475.49	15980	
475.69	16507	
475.88	19350	
476.08	17961	
476.28	16047	
476.48	16130	
476.68	18389	
476.88	18178	
477.08	15819	
477.28	16493	
477.48	17329	
477.68	18135	
477.88	15858	
478.08	16139	
478.28	18757	
478.48	17602	
478.67	16252	
478.87	15384	
479.07	18779	
479.27	17551	
479.47	16247	
479.67	16459	
479.87	18318	
480.07	18943	
480.27	15698	
480.47	17286	
480.67	17795	
480.87	18639	
481.06	15802	
481.26	16797	
481.46	17792	
481.66	17619	
481.86	16252	
482.06	17466	
482.26	17302	
482.46	18528	
482.66	16178	
482.86	15835	
483.05	17819	
483.25	17154	
483.45	18981	
483.65	16342	
483.85	17481	
484.05	17895	
484.25	16767	
484.45	17736	
484.65	18839	
484.84	19058	
485.04	16414	
485.24	16382	
485.44	19288	
485.64	17490	
485.84	16038	
486.04	17505	
486.24	17942	
486.44	18395	
486.63	16039	
486.83	16946	
487.03	18054	
487.23	18659	
487.43	16208	
487.63	19006	
487.83	18594	
488.02	19704	
488.22	17687	
488.42	18470	
488.62	19580	
488.82	18535	
489.02	16982	
489.22	17563	
489.41	19223	
489.61	19259	
489.81	16883	
490.01	16957	
490.21	19339	
490.41	20185	
490.61	16976	
490.8	17182	
491	18979	
491.2	18015	
491.4	17367	
491.6	16509	
491.8	18531	
491.99	18571	
492.19	16346	
492.39	16662	
492.59	19312	
492.79	19304	
492.99	17784	
493.18	16869	
493.38	19407	
493.58	20734	
493.78	18071	
493.98	17535	
494.18	19586	
494.37	19291	
494.57	18748	
494.77	18751	
494.97	20497	
495.17	20977	
495.37	18438	
495.56	18925	
495.76	21371	
495.96	21013	
496.16	20048	
496.36	18982	
496.55	21323	
496.75	20906	
496.95	19505	
497.15	19254	
497.35	21117	
497.54	21386	
497.74	19071	
497.94	21122	
498.14	22193	
498.34	22007	
498.53	18872	
498.73	19882	
498.93	20923	
499.13	21465	
499.33	19888	
499.52	20247	
499.72	21739	
499.92	21671	
500.12	19590	
500.32	19810	
500.51	21964	
500.71	21900	
500.91	20873	
501.11	20484	
501.31	21932	
501.5	22212	
501.7	21153	
501.9	20078	
502.1	21489	
502.29	22057	
502.49	20541	
502.69	20665	
502.89	21630	
503.09	21806	
503.28	18815	
503.48	19166	
503.68	20515	
503.88	20642	
504.07	20132	
504.27	19334	
504.47	20990	
504.67	20934	
504.86	19898	
505.06	19350	
505.26	20273	
505.46	22306	
505.65	19175	
505.85	19127	
506.05	19977	
506.25	20463	
506.44	18008	
506.64	18921	
506.84	19558	
507.04	20392	
507.23	17964	
507.43	18533	
507.63	21492	
507.83	19505	
508.02	18371	
508.22	18062	
508.42	21736	
508.62	19286	
508.81	18048	
509.01	18660	
509.21	18686	
509.4	19179	
509.6	18173	
509.8	17547	
510	19010	
510.19	20930	
510.39	17512	
510.59	17737	
510.79	19115	
510.98	20589	
511.18	17735	
511.38	18092	
511.57	19853	
511.77	19757	
511.97	18600	
512.17	17311	
512.36	19790	
512.56	19720	
512.76	17423	
512.95	17086	
513.15	19937	
513.35	18659	
513.55	18409	
513.74	17461	
513.94	19824	
514.14	19220	
514.33	18677	
514.53	18460	
514.73	19260	
514.92	19616	
515.12	17845	
515.32	17645	
515.51	19637	
515.71	20304	
515.91	19699	
516.11	17892	
516.3	21766	
516.5	19409	
516.7	18400	
516.89	19185	
517.09	19540	
517.29	19413	
517.48	18581	
517.68	18192	
517.88	19394	
518.07	19929	
518.27	18634	
518.47	17628	
518.66	20489	
518.86	18989	
519.06	17372	
519.25	18021	
519.45	19326	
519.65	21019	
519.84	18600	
520.04	19433	
520.24	21370	
520.43	19929	
520.63	18141	
520.83	17833	
521.02	18992	
521.22	19516	
521.42	18160	
521.61	18917	
521.81	19068	
522.01	19155	
522.2	18198	
522.4	17778	
522.6	19912	
522.79	18616	
522.99	18107	
523.18	17677	
523.38	20026	
523.58	20106	
523.77	20062	
523.97	17943	
524.17	22361	
524.36	21427	
524.56	19775	
524.76	19169	
524.95	20684	
525.15	20261	
525.34	19133	
525.54	19355	
525.74	21331	
525.93	20278	
526.13	20715	
526.33	19656	
526.52	21887	
526.72	21333	
526.91	21123	
527.11	20319	
527.31	22171	
527.5	22502	
527.7	20211	
527.89	19088	
528.09	20943	
528.29	21789	
528.48	20517	
528.68	20058	
528.87	21897	
529.07	21708	
529.27	20173	
529.46	19565	
529.66	21470	
529.85	22082	
530.05	19445	
530.25	20205	
530.44	23163	
530.64	21185	
530.83	19863	
531.03	20226	
531.23	21933	
531.42	21889	
531.62	21072	
531.81	20370	
532.01	22325	
532.21	22971	
532.4	20499	
532.6	20990	
532.79	23606	
532.99	22928	
533.18	21149	
533.38	22072	
533.58	22596	
533.77	23343	
533.97	21277	
534.16	22163	
534.36	23703	
534.55	22892	
534.75	22428	
534.95	21545	
535.14	23767	
535.34	22853	
535.53	20825	
535.73	23122	
535.92	24177	
536.12	22837	
536.31	20849	
536.51	22323	
536.71	22820	
536.9	22509	
537.1	21028	
537.29	21139	
537.49	23262	
537.68	22460	
537.88	21531	
538.07	20742	
538.27	22776	
538.46	23840	
538.66	20845	
538.86	21263	
539.05	22857	
539.25	23409	
539.44	21767	
539.64	21002	
539.83	22541	
540.03	23692	
540.22	21009	
540.42	20914	
540.61	22595	
540.81	22823	
541	21148	
541.2	21983	
541.39	21870	
541.59	22506	
541.78	21622	
541.98	20242	
542.18	21487	
542.37	21402	
542.57	20642	
542.76	21411	
542.96	21254	
543.15	21981	
543.35	20278	
543.54	19560	
543.74	21765	
543.93	21460	
544.13	19769	
544.32	21030	
544.52	21431	
544.71	20587	
544.91	18727	
545.1	20181	
545.3	20670	
545.49	21511	
545.69	18666	
545.88	19179	
546.08	22463	
546.27	21810	
546.47	19893	
546.66	19013	
546.86	21428	
547.05	22113	
547.24	19162	
547.44	19257	
547.63	20156	
547.83	21646	
548.02	19471	
548.22	19573	
548.41	19803	
548.61	21335	
548.8	18692	
549	18695	
549.19	20387	
549.39	20920	
549.58	18295	
549.78	18917	
549.97	20928	
550.17	20187	
550.36	19739	
550.55	20756	
550.75	20019	
550.94	21089	
551.14	18339	
551.33	18790	
551.53	19408	
551.72	20579	
551.92	18778	
552.11	18634	
552.31	20435	
552.5	20566	
552.69	20228	
552.89	17965	
553.08	20284	
553.28	20110	
553.47	18417	
553.67	19615	
553.86	20831	
554.06	19186	
554.25	17299	
554.44	17959	
554.64	21643	
554.83	21223	
555.03	18051	
555.22	18389	
555.42	20302	
555.61	20019	
555.8	18104	
556	18346	
556.19	18981	
556.39	20450	
556.58	18198	
556.78	17976	
556.97	19766	
557.16	19374	
557.36	19402	
557.55	17704	
557.75	18548	
557.94	20710	
558.13	17759	
558.33	17381	
558.52	20346	
558.72	19063	
558.91	17313	
559.1	17757	
559.3	18629	
559.49	18131	
559.69	16896	
559.88	17918	
560.07	19452	
560.27	19938	
560.46	18049	
560.66	18192	
560.85	19204	
561.04	18159	
561.24	17166	
561.43	17340	
561.63	18452	
561.82	18688	
562.01	18591	
562.21	17585	
562.4	19039	
562.59	20276	
562.79	17430	
562.98	17025	
563.18	19067	
563.37	20693	
563.56	18085	
563.76	17097	
563.95	18631	
564.14	18579	
564.34	17644	
564.53	17321	
564.73	19102	
564.92	19748	
565.11	17653	
565.31	16994	
565.5	19745	
565.69	18566	
565.89	17209	
566.08	17665	
566.27	19665	
566.47	20229	
566.66	18258	
566.85	16823	
567.05	19203	
567.24	18519	
567.44	17172	
567.63	18662	
567.82	19417	
568.02	19114	
568.21	17216	
568.4	17533	
568.6	18987	
568.79	19097	
568.98	16916	
569.18	17196	
569.37	19047	
569.56	21079	
569.76	17505	
569.95	18510	
570.14	19039	
570.34	19171	
570.53	16733	
570.72	16680	
570.91	19425	
571.11	18436	
571.3	17003	
571.49	17913	
571.69	18557	
571.88	17871	
572.07	17686	
572.27	17511	
572.46	18129	
572.65	19200	
572.85	16799	
573.04	17347	
573.23	19484	
573.43	18781	
573.62	16728	
573.81	17324	
574	18839	
574.2	18669	
574.39	17131	
574.58	17287	
574.78	19907	
574.97	19101	
575.16	17638	
575.36	18034	
575.55	19539	
575.74	19590	
575.93	16886	
576.13	18054	
576.32	18814	
576.51	19519	
576.71	17221	
576.9	18817	
577.09	19801	
577.28	19200	
577.48	17785	
577.67	16668	
577.86	18866	
578.05	19243	
578.25	17453	
578.44	17603	
578.63	18957	
578.83	20381	
579.02	16792	
579.21	18505	
579.4	19382	
579.6	19056	
579.79	17671	
579.98	20215	
580.17	19688	
580.37	19824	
580.56	17104	
580.75	18004	
580.94	20351	
581.14	20189	
581.33	18592	
581.52	17601	
581.71	19735	
581.91	20504	
582.1	17337	
582.29	17806	
582.48	19471	
582.68	19534	
582.87	18428	
583.06	18000	
583.25	19648	
583.45	19183	
583.64	18968	
583.83	19756	
584.02	19259	
584.21	19818	
584.41	18793	
584.6	18046	
584.79	19688	
584.98	20406	
585.18	17545	
585.37	17410	
585.56	18967	
585.75	19970	
585.94	17511	
586.14	18344	
586.33	20204	
586.52	19357	
586.71	17778	
586.91	17547	
587.1	18293	
587.29	19493	
587.48	17107	
587.67	17020	
587.87	18852	
588.06	18875	
588.25	18198	
588.44	17398	
588.63	18129	
588.83	18673	
589.02	16199	
589.21	15859	
589.4	17098	
589.59	16649	
589.78	14179	
589.98	14318	
590.17	15552	
590.36	16031	
590.55	13070	
590.74	13682	
590.94	16931	
591.13	15375	
591.32	13444	
591.51	12868	
591.7	15948	
591.89	15339	
592.09	13169	
592.28	13723	
592.47	14612	
592.66	16740	
592.85	13290	
593.05	13621	
593.24	15302	
593.43	16322	
593.62	13758	
593.81	14425	
594	15446	
594.19	15890	
594.39	13760	
594.58	13723	
594.77	15947	
594.96	16577	
595.15	13527	
595.34	14208	
595.54	15760	
595.73	14795	
595.92	12670	
596.11	13949	
596.3	16233	
596.49	14926	
596.68	13598	
596.88	14377	
597.07	16124	
597.26	14818	
597.45	13303	
597.64	14700	
597.83	15227	
598.02	15967	
598.22	13571	
598.41	14284	
598.6	15852	
598.79	15309	
598.98	13671	
599.17	14778	
599.36	15785	
599.55	17171	
599.74	15928	
599.94	15807	
600.13	16462	
600.32	15332	
600.51	13669	
600.7	13926	
600.89	17192	
601.08	17423	
601.27	13723	
601.47	14779	
601.66	16653	
601.85	17391	
602.04	14451	
602.23	14952	
602.42	15696	
602.61	16410	
602.8	14439	
602.99	14070	
603.18	16026	
603.37	16427	
603.57	14853	
603.76	15549	
603.95	17119	
604.14	16847	
604.33	14341	
604.52	14803	
604.71	16548	
604.9	16047	
605.09	15308	
605.28	15098	
605.47	17124	
605.66	16662	
605.86	15058	
606.05	14381	
606.24	16907	
606.43	15440	
606.62	14724	
606.81	15407	
607	16843	
607.19	16176	
607.38	14052	
607.57	14287	
607.76	15832	
607.95	15208	
608.14	14666	
608.33	15372	
608.52	15695	
608.72	16678	
608.91	13861	
609.1	13676	
609.29	15874	
609.48	15097	
609.67	14696	
609.86	13688	
610.05	15216	
610.24	15567	
610.43	13638	
610.62	13059	
610.81	16783	
611	16533	
611.19	13674	
611.38	14236	
611.57	15917	
611.76	17402	
611.95	13253	
612.14	12988	
612.33	15596	
612.52	15066	
612.71	13872	
612.9	13028	
613.09	14661	
613.28	17320	
613.47	13532	
613.66	14661	
613.85	15577	
614.04	15159	
614.24	13514	
614.43	12792	
614.62	15820	
614.81	15738	
615	14139	
615.19	14218	
615.38	14796	
615.57	15464	
615.76	13991	
615.95	15068	
616.14	15747	
616.33	15400	
616.52	14411	
616.71	14683	
616.9	15706	
617.09	15506	
617.28	13573	
617.47	15316	
617.66	14713	
617.85	14825	
618.04	14834	
618.22	14081	
618.41	15247	
618.6	16323	
618.79	14120	
618.98	13901	
619.17	16692	
619.36	14938	
619.55	13971	
619.74	14087	
619.93	15978	
620.12	15322	
620.31	14743	
620.5	14975	
620.69	16638	
620.88	17164	
621.07	15732	
621.26	14653	
621.45	16206	
621.64	16366	
621.83	14812	
622.02	13903	
622.21	16253	
622.4	16003	
622.59	15572	
622.78	15215	
622.97	15575	
623.16	16705	
623.35	14691	
623.54	13663	
623.72	15798	
623.91	15963	
624.1	14850	
624.29	13529	
624.48	17146	
624.67	16140	
624.86	14896	
625.05	13725	
625.24	17253	
625.43	15444	
625.62	16690	
625.81	13887	
626	16331	
626.19	15620	
626.38	14798	
626.56	13936	
626.75	15258	
626.94	15834	
627.13	14508	
627.32	13005	
627.51	15767	
627.7	17081	
627.89	12964	
628.08	14200	
628.27	14618	
628.46	14943	
628.65	13236	
628.83	12843	
629.02	15539	
629.21	14627	
629.4	13889	
629.59	14040	
629.78	14878	
629.97	15827	
630.16	14093	
630.35	13540	
630.54	16330	
630.72	16128	
630.91	13438	
631.1	14118	
631.29	15528	
631.48	15578	
631.67	14212	
631.86	13592	
632.05	15009	
632.24	15122	
632.42	13255	
632.61	13844	
632.8	15131	
632.99	14820	
633.18	13997	
633.37	14398	
633.56	15487	
633.75	15273	
633.93	13913	
634.12	13609	
634.31	16305	
634.5	15996	
634.69	13727	
634.88	14099	
635.07	15283	
635.25	15903	
635.44	14608	
635.63	14894	
635.82	15197	
636.01	14514	
636.2	14455	
636.39	14062	
636.57	16290	
636.76	15864	
636.95	13407	
637.14	14857	
637.33	15617	
637.52	16632	
637.7	13173	
637.89	14210	
638.08	15147	
638.27	16630	
638.46	14272	
638.65	14696	
638.83	16468	
639.02	14845	
639.21	14018	
639.4	14575	
639.59	15408	
639.78	14737	
639.96	13252	
640.15	13263	
640.34	14943	
640.53	15131	
640.72	12794	
640.91	13254	
641.09	14320	
641.28	15724	
641.47	12974	
641.66	13968	
641.85	15100	
642.03	15076	
642.22	13570	
642.41	13066	
642.6	14229	
642.79	13614	
642.97	12575	
643.16	13639	
643.35	14156	
643.54	13818	
643.73	12521	
643.91	13323	
644.1	13458	
644.29	14199	
644.48	12352	
644.67	12340	
644.85	13601	
645.04	13655	
645.23	11505	
645.42	11760	
645.6	12775	
645.79	13952	
645.98	11379	
646.17	10284	
646.36	12151	
646.54	12692	
646.73	11770	
646.92	10468	
647.11	12195	
647.29	13256	
647.48	10628	
647.67	10327	
647.86	13424	
648.05	13609	
648.23	10851	
648.42	12441	
648.61	12909	
648.8	12671	
648.98	10585	
649.17	11010	
649.36	12275	
649.55	11873	
649.73	10777	
649.92	11732	
650.11	12350	
650.3	12537	
650.48	10844	
650.67	10458	
650.86	12760	
651.05	11604	
651.23	10750	
651.42	10597	
651.61	12060	
651.79	12266	
651.98	10995	
652.17	10602	
652.36	12646	
652.54	11620	
652.73	10560	
652.92	10335	
653.11	12579	
653.29	12624	
653.48	9671.9	
653.67	10753	
653.85	12316	
654.04	13312	
654.23	10819	
654.42	10305	
654.6	11438	
654.79	12108	
654.98	9454.8	
655.16	10063	
655.35	10882	
655.54	10910	
655.73	9582.4	
655.91	9481.4	
656.1	12066	
656.29	11028	
656.47	9129.8	
656.66	11056	
656.85	11316	
657.03	11437	
657.22	9843.9	
657.41	10045	
657.59	11649	
657.78	11352	
657.97	9739.5	
658.16	10484	
658.34	12417	
658.53	12706	
658.72	11592	
658.9	12056	
659.09	11777	
659.28	11938	
659.46	10387	
659.65	10261	
659.84	11615	
660.02	12218	
660.21	10250	
660.4	10248	
660.58	12811	
660.77	12050	
660.96	10952	
661.14	9753.8	
661.33	13263	
661.52	13151	
661.7	9740.1	
661.89	13857	
662.08	11509	
662.26	11116	
662.45	10005	
662.64	10105	
662.82	12306	
663.01	11570	
663.2	10155	
663.38	11062	
663.57	12036	
663.75	11987	
663.94	10471	
664.13	11749	
664.31	11412	
664.5	12219	
664.69	10630	
664.87	11359	
665.06	11249	
665.25	12004	
665.43	11524	
665.62	11634	
665.8	12274	
665.99	11590	
666.18	10290	
666.36	10477	
666.55	12199	
666.74	12162	
666.92	9914.2	
667.11	11778	
667.29	11433	
667.48	12078	
667.67	11288	
667.85	10367	
668.04	11432	
668.22	11523	
668.41	10275	
668.6	10406	
668.78	11356	
668.97	11558	
669.15	10655	
669.34	9556.5	
669.53	11240	
669.71	11620	
669.9	9708.7	
670.08	10459	
670.27	11333	
670.46	11813	
670.64	10711	
670.83	11004	
671.01	11080	
671.2	11746	
671.38	9802.9	
671.57	9643.9	
671.76	12352	
671.94	13100	
672.13	9618.6	
672.31	10681	
672.5	11923	
672.69	11127	
672.87	9806.4	
673.06	10084	
673.24	11836	
673.43	11181	
673.61	10563	
673.8	10060	
673.98	11864	
674.17	12171	
674.36	10708	
674.54	10461	
674.73	11604	
674.91	11731	
675.1	10266	
675.28	9782.5	
675.47	11301	
675.65	11951	
675.84	9951.1	
676.03	10499	
676.21	11133	
676.4	10628	
676.58	10889	
676.77	10587	
676.95	12641	
677.14	10989	
677.32	9607.7	
677.51	9339.4	
677.69	11844	
677.88	10625	
678.06	9479.4	
678.25	9577.7	
678.44	11422	
678.62	10909	
678.81	9256.8	
678.99	10238	
679.18	12161	
679.36	11757	
679.55	9899.2	
679.73	10616	
679.92	11625	
680.1	10925	
680.29	11234	
680.47	9830.2	
680.66	10952	
680.84	11812	
681.03	9071.1	
681.21	10205	
681.4	10961	
681.58	10761	
681.77	9532.6	
681.95	9430.2	
682.14	11653	
682.32	12169	
682.51	10407	
682.69	9056.1	
682.88	10746	
683.06	11491	
683.25	10031	
683.43	10489	
683.62	10943	
683.8	11358	
683.99	10518	
684.17	9709.4	
684.36	12084	
684.54	10462	
684.73	8482.7	
684.91	8488.8	
685.1	10415	
685.28	9629.5	
685.46	8784.4	
685.65	8794	
685.83	10397	
686.02	9646.6	
686.2	8099.7	
686.39	8305.2	
686.57	9240.4	
686.76	11190	
686.94	8322.9	
687.13	8523.6	
687.31	10419	
687.5	9805.7	
687.68	7943.4	
687.86	9324.4	
688.05	11777	
688.23	9325.8	
688.42	9396.1	
688.6	8529.1	
688.79	9757.9	
688.97	9871.2	
689.16	9002.9	
689.34	7853.3	
689.52	10585	
689.71	10774	
689.89	9301.9	
690.08	8383.7	
690.26	10015	
690.45	9805	
690.63	9323	
690.81	8418.5	
691	9506.7	
691.18	9587.9	
691.37	8314.1	
691.55	10714	
691.74	9252	
691.92	11484	
692.1	8397.4	
692.29	7725.6	
692.47	9512.8	
692.66	8803.5	
692.84	8077.9	
693.02	8617.2	
693.21	9034.3	
693.39	9560.6	
693.58	8832.9	
693.76	8306.6	
693.94	10981	
694.13	10856	
694.31	8409	
694.5	9696.4	
694.68	9846.6	
694.86	10275	
695.05	9083.4	
695.23	9516.9	
695.42	10677	
695.6	13233	
695.78	9690.3	
695.97	8743.5	
696.15	10755	
696.34	10109	
696.52	8301.1	
696.7	9166	
696.89	10135	
697.07	9584.5	
697.25	8868.4	
697.44	10592	
697.62	9934	
697.81	10301	
697.99	8398.7	
698.17	8841.1	
698.36	9141.4	
698.54	9796.1	
698.72	8768	
698.91	7728.4	
699.09	9499.8	
699.28	9278	
699.46	8372.1	
699.64	8208.3	
699.83	9275.3	
700.01	10515	
700.19	9146.2	
700.38	7563.1	
700.56	10713	
700.74	9533.3	
700.93	8140.7	
701.11	8974.9	
701.29	10262	
701.48	11381	
701.66	8434.9	
701.84	8497.7	
702.03	9856.9	
702.21	10617	
702.39	7961.1	
702.58	8589.9	
702.76	10178	
702.94	10341	
703.13	8031.5	
703.31	10659	
703.49	9485.5	
703.68	10482	
703.86	8185	
704.04	9235	
704.23	9960	
704.41	10522	
704.59	8312.7	
704.78	9667.8	
704.96	11293	
705.14	10553	
705.33	8112.7	
705.51	9107.3	
705.69	9800.9	
705.87	10928	
706.06	9441.1	
706.24	8173.4	
706.42	10315	
706.61	10576	
706.79	9484.1	
706.97	8250.6	
707.16	9710.8	
707.34	10295	
707.52	9312.8	
707.7	8479.3	
707.89	9984.5	
708.07	9517.6	
708.25	9396.8	
708.44	9570.8	
708.62	9745.6	
708.8	11006	
708.98	9684.2	
709.17	8626	
709.35	10374	
709.53	10265	
709.72	8330.5	
709.9	8396	
710.08	10396	
710.26	10589	
710.45	9935.4	
710.63	8525	
710.81	10052	
710.99	9982.5	
711.18	9124.4	
711.36	8526.4	
711.54	9734	
711.72	10488	
711.91	8579.6	
712.09	7759.1	
712.27	9719	
712.45	10817	
712.64	8591.9	
712.82	7391.1	
713	8816.5	
713.18	8962.6	
713.37	7401.4	
713.55	8388.5	
713.73	9571.5	
713.91	7915.4	
714.1	7239.6	
714.28	6505	
714.46	8692.9	
714.64	7723.6	
714.83	5566.4	
715.01	6449.7	
715.19	7526.3	
715.37	6831.3	
715.55	5988.3	
715.74	6303.6	
715.92	8482.7	
716.1	6360.3	
716.28	7525.6	
716.47	6391	
716.65	7041.6	
716.83	7112.6	
717.01	6135.7	
717.19	6286.6	
717.38	9305.3	
717.56	6813.6	
717.74	6563.1	
717.92	5584.8	
718.1	8335.9	
718.29	7467.6	
718.47	5531.6	
718.65	6336.4	
718.83	8475.2	
719.01	8509.3	
719.2	5653.1	
719.38	6865.5	
719.56	8252.6	
719.74	10044	
719.92	6348	
720.11	7521.5	
720.29	8129.1	
720.47	7146	
720.65	5639.4	
720.83	6456.6	
721.02	7263.5	
721.2	7007.5	
721.38	6368.5	
721.56	5640.8	
721.74	6351.4	
721.92	6673	
722.11	6967.9	
722.29	6676.4	
722.47	7972.1	
722.65	7060	
722.83	5541.1	
723.01	6668.2	
723.2	7123.5	
723.38	7413.6	
723.56	4979.3	
723.74	6249	
723.92	6614.9	
724.1	7890.8	
724.29	5526.1	
724.47	6782.9	
724.65	6717.3	
724.83	6637.5	
725.01	5397.1	
725.19	6465.4	
725.37	6683.9	
725.56	6872.3	
725.74	5246.2	
725.92	5649.7	
726.1	6615.6	
726.28	7002.7	
726.46	6037.4	
726.64	5737.7	
726.83	6855.2	
727.01	7175.4	
727.19	5236	
727.37	6117.3	
727.55	6974	
727.73	7636.2	
727.91	5253	
728.09	5134.3	
728.28	7692.9	
728.46	8438.3	
728.64	6406	
728.82	6406	
729	8925.7	
729.18	8281.3	
729.36	5758.9	
729.54	8303.1	
729.72	9540.1	
729.91	7711.3	
730.09	7993.2	
730.27	6718.7	
730.45	7612.3	
730.63	8355	
730.81	7430.7	
730.99	6361	
731.17	9024	
731.35	7405.5	
731.53	6950.8	
731.71	6492.7	
731.9	8671.8	
732.08	8838.4	
732.26	6756.9	
732.44	6335.1	
732.62	8869.8	
732.8	8357.1	
732.98	7197.9	
733.16	6085.9	
733.34	8282.7	
733.52	7005.4	
733.7	6685.3	
733.88	6883.9	
734.07	8056.7	
734.25	7793.2	
734.43	6090.7	
734.61	7919.5	
734.79	9652.8	
734.97	7740.6	
735.15	6263.4	
735.33	6664.1	
735.51	8262.2	
735.69	7795.3	
735.87	7958.4	
736.05	6949.4	
736.23	8049.9	
736.41	7834.8	
736.59	6807.4	
736.77	6967.2	
736.95	8617.9	
737.13	8005.5	
737.32	6472.9	
737.5	6717.3	
737.68	9176.9	
737.86	7802.8	
738.04	6246.3	
738.22	8344.1	
738.4	7619.8	
738.58	7974.1	
738.76	7024.5	
738.94	5784.1	
739.12	7785.7	
739.3	7694.2	
739.48	7664.9	
739.66	7369.3	
739.84	8060.1	
740.02	8117.5	
740.2	5922.7	
740.38	6346	
740.56	8617.2	
740.74	7305.8	
740.92	7077.1	
741.1	7003.4	
741.28	7859.4	
741.46	7708.6	
741.64	6582.9	
741.82	7050.5	
742	7949.5	
742.18	7958.4	
742.36	6799.3	
742.54	6227.9	
742.72	8521.6	
742.9	7116	
743.08	7228	
743.26	5848.3	
743.44	8722.3	
743.62	8532.5	
743.8	7314.7	
743.98	6248.4	
744.16	8219.9	
744.34	7884	
744.52	7183.6	
744.7	7081.2	
744.88	8303.8	
745.06	7820.5	
745.24	7163.1	
745.42	7270.3	
745.6	8231.5	
745.78	8174.8	
745.96	5836.7	
746.14	6175.3	
746.32	9169.4	
746.5	8376.2	
746.68	6851.1	
746.86	6256.5	
747.03	8830.2	
747.21	6939.9	
747.39	6756.9	
747.57	6201.2	
747.75	7827.3	
747.93	8292.9	
748.11	6186.2	
748.29	5998.5	
748.47	9529.9	
748.65	7532.4	
748.83	6996.5	
749.01	6611.5	
749.19	8024.6	
749.37	7191.1	
749.55	6464.1	
749.73	6547.4	
749.91	7601.4	
750.09	7358.4	
750.26	6641.6	
750.44	5937.1	
750.62	7744.7	
750.8	7617.1	
750.98	5782.1	
751.16	6100.2	
751.34	7676.5	
751.52	7008.8	
751.7	7047.1	
751.88	5758.2	
752.06	8282	
752.24	8002.1	
752.42	5628.5	
752.59	6049.7	
752.77	7600	
752.95	8912.1	
753.13	6829.3	
753.31	6154.1	
753.49	7202.7	
753.67	7796.6	
753.85	6463.4	
754.03	6035.4	
754.21	7952.3	
754.38	8284	
754.56	5976	
754.74	4925.4	
754.92	6979.5	
755.1	7728.4	
755.28	4838.7	
755.46	4753.3	
755.64	8213	
755.82	8219.2	
755.99	4743.8	
756.17	4867.3	
756.35	5285.8	
756.53	6978.8	
756.71	3504.1	
756.89	4562.9	
757.07	6435.4	
757.25	5510.4	
757.42	5209.3	
757.6	6135	
757.78	6707.1	
757.96	5543.9	
758.14	4991.6	
758.32	4387.4	
758.5	5085.1	
758.67	5993.7	
758.85	4667.3	
759.03	4830.5	
759.21	6152.8	
759.39	5533.6	
759.57	4144.4	
759.75	5528.8	
759.92	6686.6	
760.1	6079.1	
760.28	6004.6	
760.46	6240.8	
760.64	5856.5	
760.82	5618.3	
760.99	5873.6	
761.17	4935.6	
761.35	6941.9	
761.53	5778	
761.71	5136.3	
761.89	5999.9	
762.06	6852.5	
762.24	6268.8	
762.42	5320.6	
762.6	5136.3	
762.78	6438.8	
762.96	7181.5	
763.13	5811.5	
763.31	5496.7	
763.49	7394.5	
763.67	6469.5	
763.85	6432.7	
764.02	7101.7	
764.2	7653.9	
764.38	6823.1	
764.56	5415.5	
764.74	6491.4	
764.91	7869.7	
765.09	6587	
765.27	5043.5	
765.45	4807.9	
765.63	7910.6	
765.8	7748.1	
765.98	4524	
766.16	4895.3	
766.34	6081.8	
766.52	5888.6	
766.69	5993.7	
766.87	4724.7	
767.05	6599.2	
767.23	7337.2	
767.41	5025	
767.58	5354.8	
767.76	7182.9	
767.94	7241.6	
768.12	5103.5	
768.29	5941.2	
768.47	6607.4	
768.65	7372	
768.83	4736.3	
769	5968.5	
769.18	6122.7	
769.36	6907.1	
769.54	5986.9	
769.72	4760.2	
769.89	7165.2	
770.07	7336.5	
770.25	5025	
770.43	6503.7	
770.6	7926.3	
770.78	8467	
770.96	5211.4	
771.14	5970.5	
771.31	7019.8	
771.49	6334.4	
771.67	4283	
771.85	4611.3	
772.02	5386.8	
772.2	6229.2	
772.38	5317.2	
772.55	4871.4	
772.73	6550.1	
772.91	6298.2	
773.09	5260.5	
773.26	5296.7	
773.44	6520	
773.62	6159.6	
773.8	4564.2	
773.97	4335.5	
774.15	6597.2	
774.33	6125.5	
774.5	4490.5	
774.68	4934.2	
774.86	6705.7	
775.04	6161.7	
775.21	4622.9	
775.39	4616.1	
775.57	6351.4	
775.74	6895.5	
775.92	4360.8	
776.1	4293.2	
776.27	6368.5	
776.45	7730.4	
776.63	4574.5	
776.81	3954.6	
776.98	5965.7	
777.16	7159.7	
777.34	4716.5	
777.51	4988.2	
777.69	5914.5	
777.87	5718.6	
778.04	4754	
778.22	5442.8	
778.4	5715.9	
778.57	6406	
778.75	3864.5	
778.93	4233.2	
779.1	5442.1	
779.28	5293.3	
779.46	3858.4	
779.64	4396.3	
779.81	6576.7	
779.99	7516	
780.17	5309.7	
780.34	5461.2	
780.52	5911.1	
780.69	6151.4	
780.87	4782.7	
781.05	4329.4	
781.22	5989.6	
781.4	6106.4	
781.58	4397.7	
781.75	3500.7	
781.93	6016.9	
782.11	5378	
782.28	5394.3	
782.46	4359.4	
782.64	5154.7	
782.81	6148.7	
782.99	4478.9	
783.17	4412.7	
783.34	6090	
783.52	5185.5	
783.69	4680.3	
783.87	5590.3	
784.05	5339.1	
784.22	5307.7	
784.4	5541.1	
784.58	4752	
784.75	6291.4	
784.93	5278.3	
785.1	4345.8	
785.28	5093.3	
785.46	6065.4	
785.63	5268.7	
785.81	4304.8	
785.99	4172.4	
786.16	5416.9	
786.34	5887.2	
786.51	4252.9	
786.69	4567	
786.87	4958.8	
787.04	5578	
787.22	4046.1	
787.39	5055.1	
787.57	5245.5	
787.75	6484.6	
787.92	5280.3	
788.1	5223	
788.27	5371.1	
788.45	5055.8	
788.63	4891.2	
788.8	3488.4	
788.98	5638.1	
789.15	5018.9	
789.33	3654.9	
789.5	4424.3	
789.68	6320.7	
789.86	6376.7	
790.03	4883.7	
790.21	4253.6	
790.38	6247.7	
790.56	5421.7	
790.73	3959.4	
790.91	4062.5	
791.09	5255.8	
791.26	6107.7	
791.44	4302.1	
791.61	3655.6	
791.79	5247.6	
791.96	5375.9	
792.14	3819.5	
792.32	3343	
792.49	5269.4	
792.67	5357.5	
792.84	3932.1	
793.02	3633.8	
793.19	5726.1	
793.37	6642.2	
793.54	3338.2	
793.72	3732.1	
793.89	6756.9	
794.07	5271.5	
794.25	4440	
794.42	3495.9	
794.6	6389.7	
794.77	6045.6	
794.95	4705.5	
795.12	4095.3	
795.3	5197.1	
795.47	5985.5	
795.65	4595.6	
795.82	4332.1	
796	5079	
796.17	7163.1	
796.35	4184.7	
796.52	4952	
796.7	5852.4	
796.87	5959.6	
797.05	5188.2	
797.22	5091.3	
797.4	5888.6	
797.57	7024.5	
797.75	4332.8	
797.92	4042	
798.1	6247	
798.27	5264.6	
798.45	3453.6	
798.62	3815.4	
798.8	5573.2	
798.97	6127.5	
799.15	4575.2	
799.32	4284.4	
799.5	4768.4	
799.67	5614.2	
799.85	4733.5	
800.02	3411.9	
800.2	5160.9	
800.37	5565.7	
800.55	4908.3	
800.72	4051.6	
800.9	6037.4	
801.07	6601.3	
801.25	5534.3	
801.42	4514.4	
801.6	6157.6	
801.77	5813.5	
801.95	4145.8	
802.12	3983.3	
802.29	5772.5	
802.47	5786.2	
802.64	4444.8	
802.82	3349.1	
802.99	5182.7	
803.17	6265.4	
803.34	4340.3	
803.52	3822.2	
803.69	6991.8	
803.87	5048.9	
804.04	4283.7	
804.21	4432.5	
804.39	6370.5	
804.56	5399.1	
804.74	3642.7	
804.91	4483	
805.09	5219.6	
805.26	5368.4	
805.44	3728.7	
805.61	4112.3	
805.78	5957.5	
805.96	5980.8	
806.13	4546.5	
806.31	4831.8	
806.48	4681	
806.66	5337.7	
806.83	4427	
807	4339.6	
807.18	5183.4	
807.35	5646.9	
807.53	4035.9	
807.7	3500	
807.87	6466.8	
808.05	5261.9	
808.22	4819.6	
808.4	3429.7	
808.57	5256.5	
808.74	4867.3	
808.92	3904.8	
809.09	5067.4	
809.27	5059.2	
809.44	5808.7	
809.61	3468.6	
809.79	3875.4	
809.96	6503	
810.14	6101.6	
810.31	3324.5	
810.48	4138.3	
810.66	5386.8	
810.83	6150.7	
811.01	3930.7	
811.18	4402.5	
811.35	5990.3	
811.53	4685.1	
811.7	4810.7	
811.87	4481	
812.05	5242.8	
812.22	5145.2	
812.39	3806.5	
812.57	3693.2	
812.74	5310.4	
812.92	7072.3	
813.09	4199	
813.26	4643.4	
813.44	6809.5	
813.61	5168.4	
813.78	3475.4	
813.96	4701.5	
814.13	5239.4	
814.3	4870.1	
814.48	5016.2	
814.65	4180.6	
814.82	6649.1	
815	5008.6	
815.17	4352.6	
815.34	5241.4	
815.52	5149.3	
815.69	5195	
815.87	4284.4	
816.04	4189.5	
816.21	5264.6	
816.38	4567.7	
816.56	4128.7	
816.73	3831.1	
816.9	6635.4	
817.08	6117.3	
817.25	3880.2	
817.42	4951.3	
817.6	4817.5	
817.77	5310.4	
817.94	4457.7	
818.12	3772.4	
818.29	4980.7	
818.46	7938.6	
818.64	4033.1	
818.81	3686.3	
818.98	4846.2	
819.16	7213.6	
819.33	4631.8	
819.5	4247.5	
819.67	5653.1	
819.85	6376	
820.02	4216.8	
820.19	4554.7	
820.37	5510.4	
820.54	4977.2	
820.71	4370.4	
820.88	5433.9	
821.06	5503.6	
821.23	5020.3	
821.4	4394.3	
821.58	4347.2	
821.75	6093.4	
821.92	5337	
822.09	3469.9	
822.27	3569.6	
822.44	5248.3	
822.61	5156.8	
822.79	3529.3	
822.96	6838.2	
823.13	5760.9	
823.3	4943.1	
823.48	4073.4	
823.65	3647.4	
823.82	6012.2	
823.99	4737.6	
824.17	5224.4	
824.34	3691.8	
824.51	7016.3	
824.68	5314.5	
824.86	3864.5	
825.03	4391.5	
825.2	5272.8	
825.37	6438.1	
825.55	3792.8	
825.72	4296.6	
825.89	7058	
826.06	6542.6	
826.24	4163.5	
826.41	4203.8	
826.58	6408.8	
826.75	5610.8	
826.92	3272	
827.1	3616	
827.27	8902.5	
827.44	7045.7	
827.61	3984	
827.79	4799.8	
827.96	4969.1	
828.13	5383.4	
828.3	4140.3	
828.47	3481.5	
828.65	5461.9	
828.82	5436	
828.99	5439.4	
829.16	4749.9	
829.34	5908.4	
829.51	5600.5	
829.68	4321.9	
829.85	4491.2	
830.02	6110.5	
830.2	5845.6	
830.37	3246.7	
830.54	5248.9	
830.71	6776	
830.88	5238	
831.05	3371	
831.23	3897.3	
831.4	6461.3	
831.57	7351.5	
831.74	3965.6	
831.91	3493.8	
832.09	5421	
832.26	5901.6	
832.43	4214.7	
832.6	4619.5	
832.77	5553.4	
832.94	6328.9	
833.12	3317	
833.29	4100.7	
833.46	5687.9	
833.63	7581.6	
833.8	4518.5	
833.97	4134.2	
834.15	5948.7	
834.32	5667.4	
834.49	4369.7	
834.66	4405.2	
834.83	6132.3	
835	4923.3	
835.17	4011.3	
835.35	4025.6	
835.52	5778.7	
835.69	5708.4	
835.86	4218.1	
836.03	3459	
836.2	5805.3	
836.37	5464.7	
836.55	4184	
836.72	3880.9	
836.89	5455.1	
837.06	5985.5	
837.23	4237.2	
837.4	4670.7	
837.57	6785.6	
837.75	7534.5	
837.92	3719.1	
838.09	3990.8	
838.26	5406.6	
838.43	6195.8	
838.6	4344.4	
838.77	3904.1	
838.94	7194.5	
839.11	6775.4	
839.29	4100.7	
839.46	3241.9	
839.63	5832.6	
839.8	5617.6	
839.97	4027.7	
840.14	3985.3	
840.31	5579.3	
840.48	5925.5	
840.65	3323.2	
840.82	3956	
841	5920	
841.17	5867.4	
841.34	3642.7	
841.51	3749.1	
841.68	5784.1	
841.85	5500.2	
842.02	3856.3	
842.19	3149.8	
842.36	5614.8	
842.53	5570.5	
842.7	3687.7	
842.87	4607.2	
843.05	7408.9	
843.22	5497.4	
843.39	3482.2	
843.56	3803.8	
843.73	5267.4	
843.9	5922	
844.07	6011.5	
844.24	5054.4	
844.41	8828.1	
844.58	4994.3	
844.75	3563.5	
844.92	3855	
845.09	5905.7	
845.26	5851.7	
845.43	3695.2	
845.6	3889.1	
845.77	5874.3	
845.94	5588.2	
846.12	4050.2	
846.29	4316.4	
846.46	6079.1	
846.63	5864	
846.8	3693.2	
846.97	4387.4	
847.14	6342.6	
847.31	5836.7	
847.48	4156.7	
847.65	4603.2	
847.82	6147.3	
847.99	6158.2	
848.16	4999.8	
848.33	4594.3	
848.5	5428.5	
848.67	6426.5	
848.84	3647.4	
849.01	3867.2	
849.18	5247.6	
849.35	4901.5	
849.52	4606.6	
849.69	3618.8	
849.86	6053.8	
850.03	6297.5	
850.2	3685.7	
850.37	4505.5	
850.54	6298.2	
850.71	5550.7	
850.88	4364.2	
851.05	3611.3	
851.22	5788.2	
851.39	6469.5	
851.56	3429.7	
851.73	4226.3	
851.9	5138.4	
852.07	6084.5	
852.24	4066.6	
852.41	3633.8	
852.58	5689.3	
852.75	5241.4	
852.92	4127.3	
853.09	3527.3	
853.26	5399.8	
853.43	6393.1	
853.6	3627	
853.77	3138.2	
853.94	6438.1	
854.11	5844.9	
854.28	5472.2	
854.44	3998.3	
854.61	6991.1	
854.78	6279.1	
854.95	3636.5	
855.12	4640.7	
855.29	4702.1	
855.46	6571.9	
855.63	3654.3	
855.8	5043.5	
855.97	5414.1	
856.14	6169.8	
856.31	5223	
856.48	4021.5	
856.65	5395.7	
856.82	5084.4	
856.99	3526.6	
857.16	3975.8	
857.33	7187.7	
857.49	5518.6	
857.66	3928.7	
857.83	4257	
858	5415.5	
858.17	5666.7	
858.34	3454.2	
858.51	3681.6	
858.68	6671.6	
858.85	6659.3	
859.02	4259.1	
859.19	4472.1	
859.36	5083.1	
859.52	5134.9	
859.69	3636.5	
859.86	4301.4	
860.03	5125.4	
860.2	6480.5	
860.37	3284.9	
860.54	3669.3	
860.71	6102.9	
860.88	6506.4	
861.05	4132.8	
861.21	4603.2	
861.38	6623.1	
861.55	5008.6	
861.72	3323.9	
861.89	4125.3	
862.06	6180.1	
862.23	6797.2	
862.4	3540.3	
862.56	3766.2	
862.73	6010.1	
862.9	5627.8	
863.07	4275.5	
863.24	3311.6	
863.41	5020.3	
863.58	5109.7	
863.75	3749.1	
863.91	4215.4	
864.08	6542.6	
864.25	6016.9	
864.42	4678.9	
864.59	5172.5	
864.76	6889.4	
864.93	5145.2	
865.09	3615.3	
865.26	3915	
865.43	6397.2	
865.6	6770.6	
865.77	3181.9	
865.94	3616.7	
866.1	6467.5	
866.27	6212.9	
866.44	5587.5	
866.61	3465.2	
866.78	5563	
866.95	6015.6	
867.11	3512.3	
867.28	3203	
867.45	6204	
867.62	5150.6	
867.79	4263.9	
867.96	3566.9	
868.12	5066	
868.29	6137.1	
868.46	3588.7	
868.63	4980	
868.8	6357.6	
868.97	6068.1	
869.13	3850.9	
869.3	3851.5	
869.47	5976	
869.64	6156.2	
869.81	3677.5	
869.97	3672.7	
870.14	5922.7	
870.31	6585.6	
870.48	3520.5	
870.65	4623.6	
870.81	5404.6	
870.98	5438	
871.15	4196.3	
871.32	3796.3	
871.48	5989.6	
871.65	6638.8	
871.82	3681.6	
871.99	4057	
872.16	7074.4	
872.32	6549.4	
872.49	3671.3	
872.66	3691.1	
872.83	6122.1	
872.99	5302.9	
873.16	4248.2	
873.33	3657	
873.5	5662.6	
873.67	5791	
873.83	3788.7	
874	4979.3	
874.17	5847	
874.34	7015	
874.5	4790.9	
874.67	4583.4	
874.84	6543.3	
875.01	5140.4	
875.17	5216.2	
875.34	3622.9	
875.51	5780.1	
875.68	6984.3	
875.84	4460.5	
876.01	5413.5	
876.18	6115.9	
876.34	6039.5	
876.51	3725.3	
876.68	3562.8	
876.85	5552.7	
877.01	6384.9	
877.18	5239.4	
877.35	3614	
877.52	5658.5	
877.68	5060.5	
877.85	3601	
878.02	3557.3	
878.18	5665.4	
878.35	5310.4	
878.52	2909.5	
878.69	4155.3	
878.85	6103.6	
879.02	6076.3	
879.19	5233.9	
879.35	3963.5	
879.52	6010.8	
879.69	6249.7	
879.86	3091.1	
880.02	4102.8	
880.19	5625.1	
880.36	6934.4	
880.52	4314.4	
880.69	4379.9	
880.86	6182.8	
881.02	6264.7	
881.19	4059.8	
881.36	3954.6	
881.52	6027.9	
881.69	5323.4	
881.86	3962.8	
882.02	3847.5	
882.19	6354.2	
882.36	7537.9	
882.52	3753.9	
882.69	5190.9	
882.86	5823.7	
883.02	5711.1	
883.19	4457.7	
883.36	4190.8	
883.52	6211.5	
883.69	7003.4	
883.86	3713	
884.02	3262.4	
884.19	6173.3	
884.36	5631.2	
884.52	4149.9	
884.69	3888.4	
884.86	5340.4	
885.02	6839.5	
885.19	4136.2	
885.36	4240.7	
885.52	5622.4	
885.69	5827.2	
885.86	5407.3	
886.02	4697.4	
886.19	6092	
886.35	5568.4	
886.52	4100	
886.69	5191.6	
886.85	5197.1	
887.02	6520.7	
887.19	6520.7	
887.35	6520.7	
887.52	6520.7	
887.68	6520.7	
887.85	6520.7	
888.02	6520.7	
888.18	6520.7	
888.35	6520.7	
888.51	6520.7	
888.68	6520.7	
888.85	6520.7	
889.01	6520.7	
889.18	6520.7	
889.35	6520.7	
889.51	6520.7	
889.68	6520.7	
889.84	6520.7	
890.01	6520.7	
890.17	6520.7	
890.34	6520.7	
890.51	6520.7	
890.67	6520.7	
890.84	6520.7	
891	6520.7	
891.17	6520.7	
891.34	6520.7	
891.5	6520.7	
891.67	6520.7	
891.83	6520.7	
892	6520.7	
892.16	6520.7	
892.33	6520.7	
892.5	6520.7	
892.66	6520.7	
892.83	6520.7	
892.99	6520.7	
893.16	6520.7	
893.32	6520.7	
893.49	6520.7	
893.65	6520.7	
893.82	6520.7	
893.99	6520.7	
894.15	6520.7	
894.32	6520.7	
894.48	6520.7	
894.65	6520.7	
894.81	6520.7	
894.98	6520.7	
895.14	6520.7	
895.31	6520.7	
895.47	6520.7	
895.64	6520.7	
895.81	6520.7	
895.97	6520.7	
896.14	6520.7	
896.3	6520.7	
896.47	6520.7	
896.63	6520.7	
896.8	6520.7	
896.96	6520.7	
897.13	6520.7	
897.29	6520.7	
897.46	6520.7	
897.62	6520.7	
897.79	6520.7	
897.95	6520.7	
898.12	6520.7	
898.28	6520.7	
898.45	6520.7	
898.61	6520.7	
898.78	6520.7	
898.94	6520.7	
899.11	6520.7	
899.27	6520.7	
899.44	6520.7	
899.6	6520.7	
899.77	6520.7	
899.93	6520.7	
900.1	6520.7	
900.26	6520.7	
900.43	6520.7	
900.59	6520.7	
900.76	6520.7	
900.92	6520.7	
901.09	6520.7	
901.25	6520.7	
901.42	6520.7	
901.58	6520.7	
901.75	6520.7	
901.91	6520.7	
902.07	6520.7	
902.24	6520.7	
902.4	6520.7	
902.57	6520.7	
902.73	6520.7	
902.9	6520.7	
903.06	6520.7	
903.23	6520.7	
903.39	6520.7	
903.56	6520.7	
903.72	6520.7	
903.88	6520.7	
904.05	6520.7	
904.21	6520.7	
904.38	6520.7	
904.54	6520.7	
904.71	6520.7	
904.87	6520.7	
905.03	6520.7	
905.2	6520.7	
905.36	6520.7	
905.53	6520.7	
905.69	6520.7	
905.86	6520.7	
906.02	6520.7	
906.18	6520.7	
906.35	6520.7	
906.51	6520.7	
906.68	6520.7	
906.84	6520.7	
907.01	6520.7	
907.17	6520.7	
907.33	6520.7	
907.5	6520.7	
907.66	6520.7	
907.83	6520.7	
907.99	6520.7	
908.15	6520.7	
908.32	6520.7	
908.48	6520.7	
908.65	6520.7	
908.81	6520.7	
908.97	6520.7	
909.14	6520.7	
909.3	6520.7	
909.47	6520.7	
909.63	6520.7	
909.79	6520.7	
909.96	6520.7	
910.12	6520.7	
910.28	6520.7	
910.45	6520.7	
910.61	6520.7	
910.78	6520.7	
910.94	6520.7	
911.1	6520.7	
911.27	6520.7	
911.43	6520.7	
911.59	6520.7	
911.76	6520.7	
911.92	6520.7	
912.08	6520.7	
912.25	6520.7	
912.41	6520.7	
912.57	6520.7	
912.74	6520.7	
912.9	6520.7	
913.07	6520.7	
913.23	6520.7	
913.39	6520.7	
913.56	6520.7	
913.72	6520.7	
913.88	6520.7	
914.05	6520.7	
914.21	6520.7	
914.37	6520.7	
914.54	6520.7	
914.7	6520.7	
914.86	6520.7	
915.03	6520.7	
915.19	6520.7	
