Wavelength	Intensities	
nm	a.u.	
179.22	1889.4	
179.44	1887.9	
179.65	1891	
179.86	1884.8	
180.08	1929.9	
180.29	4887.8	
180.51	3487	
180.72	5665.4	
180.94	6587.6	
181.15	3241.9	
181.37	3195.5	
181.58	5599.8	
181.79	5793.7	
182.01	3394.2	
182.22	3650.2	
182.44	5767.8	
182.65	4840	
182.87	4567	
183.08	4009.9	
183.29	6113.9	
183.51	4982	
183.72	3644.7	
183.94	5393	
184.15	5358.9	
184.37	5436	
184.58	3219.4	
184.79	4446.1	
185.01	5006.6	
185.22	5826.5	
185.44	4686.4	
185.65	3943	
185.86	5307.7	
186.08	4915.1	
186.29	3150.5	
186.51	3335.5	
186.72	5044.8	
186.94	5952.1	
187.15	3842	
187.36	4048.2	
187.58	7821.9	
187.79	5498.1	
188.01	4205.8	
188.22	6657.9	
188.43	6624.5	
188.65	5768.4	
188.86	3350.5	
189.08	4006.5	
189.29	5203.2	
189.5	5232.6	
189.72	3723.9	
189.93	3797.6	
190.15	6039.5	
190.36	7159	
190.57	4134.2	
190.79	4022.9	
191	6096.8	
191.22	5977.3	
191.43	4102.8	
191.64	3372.3	
191.86	6333	
192.07	6036	
192.29	3535.5	
192.5	3770.3	
192.71	5955.5	
192.93	5119.2	
193.14	3701.4	
193.35	3768.3	
193.57	5199.1	
193.78	6031.3	
194	2985.9	
194.21	3633.1	
194.42	4911	
194.64	5438.7	
194.85	4040	
195.07	4739.7	
195.28	5490.6	
195.49	4730.1	
195.71	4974.5	
195.92	3447.4	
196.13	5683.8	
196.35	5710.4	
196.56	5319.3	
196.78	4007.2	
196.99	7030.7	
197.2	6647.7	
197.42	4605.2	
197.63	4128.7	
197.84	4821.6	
198.06	5601.2	
198.27	3715	
198.48	5027.8	
198.7	5166.3	
198.91	5260.5	
199.13	4052.9	
199.34	4128.7	
199.55	5819	
199.77	4704.9	
199.98	3558	
200.19	4114.4	
200.41	5295.4	
200.62	5023	
200.83	4319.8	
201.05	4564.2	
201.26	5334.3	
201.47	5053.7	
201.69	3599	
201.9	3454.9	
202.11	5427.1	
202.33	6408.1	
202.54	3819.5	
202.76	4297.3	
202.97	5553.4	
203.18	5540.4	
203.4	4313.7	
203.61	4145.8	
203.82	5517.2	
204.04	5123.3	
204.25	4124.6	
204.46	4072.7	
204.68	5443.5	
204.89	5703.6	
205.1	4012.7	
205.32	3397.6	
205.53	5836.7	
205.74	6010.8	
205.96	2886.3	
206.17	4124.6	
206.38	5820.3	
206.6	6001.9	
206.81	4650.3	
207.02	3782.6	
207.24	5722	
207.45	6068.8	
207.66	3898	
207.88	3312.2	
208.09	5604.6	
208.3	5423	
208.52	3609.2	
208.73	3856.3	
208.94	5451.7	
209.15	6116.6	
209.37	3876.1	
209.58	4038.6	
209.79	5963.7	
210.01	5190.2	
210.22	3073.3	
210.43	3265.1	
210.65	5443.5	
210.86	5913.2	
211.07	3922.5	
211.29	3531.4	
211.5	5801.9	
211.71	5399.1	
211.93	3560.7	
212.14	3504.8	
212.35	5355.4	
212.56	5547.9	
212.78	4072	
212.99	3324.5	
213.2	6380.8	
213.42	5192.3	
213.63	3697.3	
213.84	3948.5	
214.06	4801.8	
214.27	4906.9	
214.48	3848.8	
214.69	4173.8	
214.91	6120	
215.12	6197.8	
215.33	4239.3	
215.55	4670.1	
215.76	6687.3	
215.97	5769.8	
216.18	4042.7	
216.4	3922.5	
216.61	5083.7	
216.82	5949.3	
217.04	3594.2	
217.25	3740.3	
217.46	6065.4	
217.67	5810.1	
217.89	3167.5	
218.1	3291.1	
218.31	5503.6	
218.53	5606.7	
218.74	3718.4	
218.95	3638.6	
219.16	5414.1	
219.38	6352.1	
219.59	3676.8	
219.8	4373.8	
220.01	7062.8	
220.23	5440.1	
220.44	4821.6	
220.65	3532.1	
220.87	5499.5	
221.08	6053.1	
221.29	3318.4	
221.5	4517.8	
221.72	7434.1	
221.93	5198.4	
222.14	4084.3	
222.35	4825	
222.57	5511.8	
222.78	5825.1	
222.99	3865.2	
223.2	4229.1	
223.42	5751.4	
223.63	5901.6	
223.84	3003	
224.05	2963.4	
224.27	6998.6	
224.48	6351.4	
224.69	4880.3	
224.9	4046.8	
225.12	5686.5	
225.33	5368.4	
225.54	3252.2	
225.75	3613.3	
225.97	4996.4	
226.18	5283.1	
226.39	3915	
226.6	3627.6	
226.82	5192.3	
227.03	5059.8	
227.24	4120.5	
227.45	3400.3	
227.67	5788.9	
227.88	6339.8	
228.09	4552.6	
228.3	4601.1	
228.52	5905.7	
228.73	5353.4	
228.94	3764.8	
229.15	3340.2	
229.36	5326.1	
229.58	5274.2	
229.79	3801	
230	4461.8	
230.21	6520.7	
230.43	5520	
230.64	4001.7	
230.85	4214.7	
231.06	5816.2	
231.28	5916.6	
231.49	3362.8	
231.7	3966.9	
231.91	5763	
232.12	5421.7	
232.34	3448.1	
232.55	3962.1	
232.76	6046.3	
232.97	5571.8	
233.18	3582.6	
233.4	4054.3	
233.61	5657.9	
233.82	5179.3	
234.03	3775.8	
234.25	3661.1	
234.46	7569.3	
234.67	5460.6	
234.88	4192.9	
235.09	3595.6	
235.31	5750	
235.52	5289.9	
235.73	4071.4	
235.94	3434.4	
236.15	5152.7	
236.37	6576.7	
236.58	3571.7	
236.79	3908.9	
237	5722.7	
237.21	4934.2	
237.43	4258.4	
237.64	3271.3	
237.85	9975	
238.06	5005.9	
238.27	4302.8	
238.48	3393.5	
238.7	5849	
238.91	5309	
239.12	3885.7	
239.33	3945.8	
239.54	4997.7	
239.76	5347.2	
239.97	3854.3	
240.18	3875.4	
240.39	6770.6	
240.6	5696.1	
240.82	4012.7	
241.03	3347.1	
241.24	5423	
241.45	6319.3	
241.66	3616	
241.87	4207.2	
242.09	6191	
242.3	6500.9	
242.51	4257	
242.72	3937.6	
242.93	5918.6	
243.14	5423.7	
243.36	4515.8	
243.57	4850.3	
243.78	6276.3	
243.99	5824.4	
244.2	3918.4	
244.41	3556.6	
244.63	5008	
244.84	5684.5	
245.05	4148.5	
245.26	3886.4	
245.47	5720	
245.68	5945.3	
245.9	5245.5	
246.11	4119.8	
246.32	5286.5	
246.53	5660.6	
246.74	6331	
246.95	3285.6	
247.16	4861.9	
247.38	5379.3	
247.59	3244.7	
247.8	3956	
248.01	5100.1	
248.22	5341.8	
248.43	3564.1	
248.64	3848.8	
248.86	4865.3	
249.07	5191.6	
249.28	3502	
249.49	3973.1	
249.7	6025.1	
249.91	6135	
250.12	3224.2	
250.34	3338.9	
250.55	5575.9	
250.76	5405.3	
250.97	4042	
251.18	4164.2	
251.39	6204	
251.6	5612.8	
251.81	4159.4	
252.03	4165.6	
252.24	5154.7	
252.45	5935.7	
252.66	3362.1	
252.87	4356.7	
253.08	5463.3	
253.29	7161.1	
253.5	3432.4	
253.72	4799.1	
253.93	5252.4	
254.14	6448.4	
254.35	3652.2	
254.56	3846.8	
254.77	5667.4	
254.98	5018.2	
255.19	3675.4	
255.41	4730.8	
255.62	5547.9	
255.83	6100.2	
256.04	4214.7	
256.25	4126.7	
256.46	6690.7	
256.67	5073.5	
256.88	4081.6	
257.09	4517.1	
257.31	5059.2	
257.52	5082.4	
257.73	5045.5	
257.94	3698.6	
258.15	5233.2	
258.36	5492.7	
258.57	4717.2	
258.78	2991.4	
258.99	5904.3	
259.2	5245.5	
259.41	3694.5	
259.63	3786.7	
259.84	6241.5	
260.05	6801.3	
260.26	4907.6	
260.47	3618.8	
260.68	5967.1	
260.89	5315.2	
261.1	4526	
261.31	3588.7	
261.52	6006	
261.73	6410.8	
261.95	4853.7	
262.16	4214	
262.37	6146.6	
262.58	6313.9	
262.79	4806.6	
263	3800.3	
263.21	5435.3	
263.42	4941.7	
263.63	3855	
263.84	3735.5	
264.05	5976.7	
264.26	6403.3	
264.47	4620.2	
264.69	4222.9	
264.9	6141.9	
265.11	5644.2	
265.32	3660.4	
265.53	3704.1	
265.74	5621.7	
265.95	4833.9	
266.16	3989.4	
266.37	4448.2	
266.58	5529.5	
266.79	5253	
267	3692.5	
267.21	3460.4	
267.42	4997	
267.63	5401.2	
267.84	3967.6	
268.06	3295.2	
268.27	5892.7	
268.48	6195.8	
268.69	3796.3	
268.9	4518.5	
269.11	6146	
269.32	4895.3	
269.53	3941	
269.74	3616.7	
269.95	5763.7	
270.16	4817.5	
270.37	3944.4	
270.58	4538.3	
270.79	5255.8	
271	5919.3	
271.21	4155.3	
271.42	3962.8	
271.63	5620.3	
271.84	5106.3	
272.05	3124.5	
272.26	3504.8	
272.47	5421.7	
272.68	5702.9	
272.89	3704.8	
273.11	4348.5	
273.32	5236.7	
273.53	6383.5	
273.74	4203.1	
273.95	4155.3	
274.16	6030.6	
274.37	5510.4	
274.58	4340.3	
274.79	3371.6	
275	5520	
275.21	6162.3	
275.42	5142.4	
275.63	4459.8	
275.84	5623.7	
276.05	7174	
276.26	4113	
276.47	3887	
276.68	5255.1	
276.89	6468.2	
277.1	4405.9	
277.31	3361.4	
277.52	5748	
277.73	5849	
277.94	3360.7	
278.15	3769.6	
278.36	5668.8	
278.57	5148.6	
278.78	3688.4	
278.99	4223.6	
279.2	5054.4	
279.41	4986.1	
279.62	5033.2	
279.83	3495.9	
280.04	6644.3	
280.25	4933.6	
280.46	4950.6	
280.67	3874.8	
280.88	5022.3	
281.09	6098.2	
281.3	4094.6	
281.51	5183.4	
281.72	5980.8	
281.93	5984.2	
282.14	3661.1	
282.35	3958	
282.56	5945.3	
282.77	5880.4	
282.98	3742.3	
283.19	4648.2	
283.4	7311.2	
283.61	5372.5	
283.82	3373	
284.03	4922.6	
284.24	5509	
284.45	6097.5	
284.66	4864.6	
284.87	4722.6	
285.08	6055.2	
285.29	6173.9	
285.5	3377.1	
285.71	3819.5	
285.92	6099.5	
286.12	6724.2	
286.33	4822.3	
286.54	3772.4	
286.75	5912.5	
286.96	5304.2	
287.17	3515.7	
287.38	4763.6	
287.59	5087.8	
287.8	5002.5	
288.01	3889.1	
288.22	4432.5	
288.43	5948.7	
288.64	4942.4	
288.85	4607.9	
289.06	4361.5	
289.27	6047	
289.48	6412.9	
289.69	4902.2	
289.9	4362.9	
290.11	6167.1	
290.32	5167.7	
290.53	4644.8	
290.74	4289.8	
290.94	5855.1	
291.15	5918.6	
291.36	3706.1	
291.57	4371	
291.78	5199.8	
291.99	4787.5	
292.2	3518.4	
292.41	4220.9	
292.62	5962.3	
292.83	5839.4	
293.04	5281	
293.25	3517.7	
293.46	5238	
293.67	6060.6	
293.88	3708.9	
294.09	3500.7	
294.29	4964.3	
294.5	5581.4	
294.71	3900.7	
294.92	3771	
295.13	5261.9	
295.34	6543.3	
295.55	3277.4	
295.76	3407.1	
295.97	5830.6	
296.18	6673.6	
296.39	3457.7	
296.6	3680.9	
296.81	5545.2	
297.01	5894.7	
297.22	3861.1	
297.43	3654.3	
297.64	5045.5	
297.85	5099.4	
298.06	3041.9	
298.27	3293.8	
298.48	5513.8	
298.69	5150.6	
298.9	3972.4	
299.11	3531.4	
299.31	4945.8	
299.52	5012.7	
299.73	4256.4	
299.94	4173.8	
300.15	5425.8	
300.36	5056.4	
300.57	4160.1	
300.78	4134.8	
300.99	5335.6	
301.2	5614.2	
301.4	3678.8	
301.61	3980.6	
301.82	5754.8	
302.03	5874.9	
302.24	4420.2	
302.45	3487.7	
302.66	5765.7	
302.87	6190.3	
303.08	3639.9	
303.29	5018.9	
303.49	5208.7	
303.7	5444.9	
303.91	3276.8	
304.12	4812.7	
304.33	4946.5	
304.54	5579.3	
304.75	3703.4	
304.96	3550.5	
305.16	5743.9	
305.37	6591	
305.58	3177.8	
305.79	3297.2	
306	5776.6	
306.21	4829.8	
306.42	3672.7	
306.63	5692.7	
306.83	5272.8	
307.04	6038.8	
307.25	4093.9	
307.46	4083.6	
307.67	4642.1	
307.88	5910.4	
308.09	3579.2	
308.29	3738.2	
308.5	5550.7	
308.71	6062.7	
308.92	3949.2	
309.13	3564.1	
309.34	5396.4	
309.55	5352	
309.75	4626.4	
309.96	4201.1	
310.17	5896.8	
310.38	5135.6	
310.59	4427.7	
310.8	3430.3	
311.01	5238	
311.21	5240.8	
311.42	3419.4	
311.63	3606.5	
311.84	5176.6	
312.05	5574.6	
312.26	4067.9	
312.46	4490.5	
312.67	5279	
312.88	5005.9	
313.09	3540.3	
313.3	3474	
313.51	6259.3	
313.71	6635.4	
313.92	3485.6	
314.13	3751.2	
314.34	5609.4	
314.55	5343.8	
314.76	4558.1	
314.96	3977.2	
315.17	5511.8	
315.38	5957.5	
315.59	3555.3	
315.8	3408.5	
316.01	6447	
316.21	6382.2	
316.42	3418.7	
316.63	3912.3	
316.84	5286.5	
317.05	6197.8	
317.26	4181.3	
317.46	3757.3	
317.67	5315.8	
317.88	5804.6	
318.09	4520.5	
318.3	3273.3	
318.5	5145.9	
318.71	5812.1	
318.92	5807.4	
319.13	4136.2	
319.34	6025.8	
319.54	6069.5	
319.75	3317.7	
319.96	3140.9	
320.17	5828.5	
320.38	6051.1	
320.58	3244.7	
320.79	3917.8	
321	6049.7	
321.21	6196.5	
321.42	3926.6	
321.62	3255.6	
321.83	5000.5	
322.04	5423	
322.25	3755.3	
322.46	3568.9	
322.66	5552	
322.87	5721.3	
323.08	4408.6	
323.29	3501.3	
323.5	6512.5	
323.7	4999.8	
323.91	4902.2	
324.12	4360.8	
324.33	5537.7	
324.53	5821.7	
324.74	4160.1	
324.95	4435.2	
325.16	4823	
325.37	5307	
325.57	3584.6	
325.78	3633.8	
325.99	5510.4	
326.2	4958.1	
326.4	5266	
326.61	3236.5	
326.82	5385.5	
327.03	5596.4	
327.24	5074.2	
327.44	4786.8	
327.65	5651.7	
327.86	4616.8	
328.07	4243.4	
328.27	3416	
328.48	6132.3	
328.69	5018.2	
328.9	5138.4	
329.1	3834.5	
329.31	5327.4	
329.52	6227.9	
329.73	3589.4	
329.93	4077.5	
330.14	5469.4	
330.35	5794.4	
330.56	5870.8	
330.76	4412.7	
330.97	5286.5	
331.18	5717.9	
331.39	3992.2	
331.59	3198.2	
331.8	6113.2	
332.01	6124.1	
332.22	3682.2	
332.42	4184	
332.63	5555.5	
332.84	5134.9	
333.05	3992.9	
333.25	3603.1	
333.46	5217.5	
333.67	5463.3	
333.88	3740.3	
334.08	4122.6	
334.29	7320.1	
334.5	6109.8	
334.7	3465.2	
334.91	5083.7	
335.12	4939.7	
335.33	5847.6	
335.53	3949.2	
335.74	5863.3	
335.95	5255.8	
336.16	5118.6	
336.36	3935.5	
336.57	4625	
336.78	4930.8	
336.98	6066.8	
337.19	4869.4	
337.4	3921.9	
337.61	6579.4	
337.81	4983.4	
338.02	3651.5	
338.23	4752	
338.43	6209.4	
338.64	5104.2	
338.85	3586	
339.05	4732.9	
339.26	6310.5	
339.47	4877.6	
339.68	3626.3	
339.88	5368.4	
340.09	5636	
340.3	5931.6	
340.5	4224.3	
340.71	3205.8	
340.92	4900.1	
341.13	6179.4	
341.33	3491.8	
341.54	4220.2	
341.75	5642.8	
341.95	5332.2	
342.16	3995.6	
342.37	4281.6	
342.57	5014.8	
342.78	5454.4	
342.99	4446.8	
343.19	3253.5	
343.4	5870.2	
343.61	5699.5	
343.81	3781.2	
344.02	3530.7	
344.23	5866.1	
344.43	6298.2	
344.64	4468.7	
344.85	4341	
345.06	5783.5	
345.26	6063.4	
345.47	4095.3	
345.68	4857.1	
345.88	4803.2	
346.09	5928.2	
346.3	4256.4	
346.5	3158	
346.71	5407.3	
346.92	5128.8	
347.12	3278.1	
347.33	4108.9	
347.54	6014.2	
347.74	6388.3	
347.95	4081.6	
348.16	3042.6	
348.36	5256.5	
348.57	4941.7	
348.78	4077.5	
348.98	4373.8	
349.19	5427.8	
349.39	4900.1	
349.6	3277.4	
349.81	3640.6	
350.01	5713.8	
350.22	5117.2	
350.43	3904.8	
350.63	4759.5	
350.84	5500.8	
351.05	5231.9	
351.25	3578.5	
351.46	3233.7	
351.67	6064.7	
351.87	5074.9	
352.08	3822.9	
352.29	4366.3	
352.49	5877	
352.7	5984.8	
352.9	3458.3	
353.11	4352.6	
353.32	6617.7	
353.52	5264	
353.73	3467.2	
353.94	4379.2	
354.14	5716.6	
354.35	5571.2	
354.55	3566.2	
354.76	3886.4	
354.97	5725.4	
355.17	5405.3	
355.38	3351.2	
355.59	4682.3	
355.79	5137.7	
356	5558.2	
356.2	3871.3	
356.41	3371	
356.62	4827.1	
356.82	5358.2	
357.03	4164.9	
357.24	3787.4	
357.44	5118.6	
357.65	5203.9	
357.85	5048.2	
358.06	3920.5	
358.27	4833.9	
358.47	5071.5	
358.68	3263.1	
358.88	4156.7	
359.09	5651	
359.3	6053.1	
359.5	4861.9	
359.71	4321.2	
359.91	6573.3	
360.12	5864.7	
360.33	4149.2	
360.53	4649.6	
360.74	5106.3	
360.94	5101.5	
361.15	4335.5	
361.36	3538.2	
361.56	5894.7	
361.77	5294.7	
361.97	4835.3	
362.18	3809.9	
362.38	5963	
362.59	4969.1	
362.8	3506.1	
363	3353.9	
363.21	4758.8	
363.41	5448.3	
363.62	4060.4	
363.83	5048.9	
364.03	5530.9	
364.24	6536.4	
364.44	5178.6	
364.65	5062.6	
364.85	5296.7	
365.06	5173.9	
365.27	3653.6	
365.47	3674.7	
365.68	6297.5	
365.88	5236.7	
366.09	4027	
366.29	3734.8	
366.5	5529.5	
366.71	5976	
366.91	5047.6	
367.12	4263.9	
367.32	6528.9	
367.53	5820.3	
367.73	4123.2	
367.94	5147.9	
368.14	5758.2	
368.35	6681.8	
368.56	4227.7	
368.76	3502	
368.97	5797.1	
369.17	7624.6	
369.38	3669.3	
369.58	3961.5	
369.79	4872.8	
369.99	6181.5	
370.2	4941.7	
370.4	4006.5	
370.61	5517.2	
370.82	6747.4	
371.02	3917.1	
371.23	3222.8	
371.43	4755.4	
371.64	6148.7	
371.84	3936.2	
372.05	5175.2	
372.25	7556.3	
372.46	5939.8	
372.66	3956	
372.87	3849.5	
373.07	5883.8	
373.28	7506.5	
373.48	4988.2	
373.69	4570.4	
373.9	5322.7	
374.1	5338.4	
374.31	4848.2	
374.51	4394.3	
374.72	6140.5	
374.92	5026.4	
375.13	4962.9	
375.33	4212	
375.54	5708.4	
375.74	5146.5	
375.95	4268.6	
376.15	5538.4	
376.36	5714.5	
376.56	5514.5	
376.77	4218.1	
376.97	4726	
377.18	6744	
377.38	5738.4	
377.59	5053.7	
377.79	3779.2	
378	5631.9	
378.2	6044.2	
378.41	3868.6	
378.61	3772.4	
378.82	6048.3	
379.02	5141.1	
379.23	3912.3	
379.43	5171.1	
379.64	6172.6	
379.84	5739.1	
380.05	3803.1	
380.25	3762.8	
380.46	5874.9	
380.66	5424.4	
380.87	5166.3	
381.07	5535	
381.28	6457.2	
381.48	5925.5	
381.69	3876.8	
381.89	3902.1	
382.1	4804.5	
382.3	5970.5	
382.51	4966.3	
382.71	5917.3	
382.91	5874.9	
383.12	6363	
383.32	4214.7	
383.53	4399.7	
383.73	5724.1	
383.94	5536.3	
384.14	4407.2	
384.35	3502	
384.55	5423	
384.76	5863.3	
384.96	4215.4	
385.17	4590.2	
385.37	5872.9	
385.58	5172.5	
385.78	4610.7	
385.98	3431	
386.19	5386.8	
386.39	5717.9	
386.6	3937.6	
386.8	4226.3	
387.01	5840.8	
387.21	5892	
387.42	4597.7	
387.62	5244.8	
387.83	5190.9	
388.03	5842.2	
388.23	4212.7	
388.44	5037.3	
388.64	4866	
388.85	4873.5	
389.05	4536.9	
389.26	5158.8	
389.46	6797.9	
389.67	6242.9	
389.87	4548.5	
390.07	4618.9	
390.28	5444.2	
390.48	5010.7	
390.69	3734.8	
390.89	4063.9	
391.1	5208	
391.3	6155.5	
391.5	5199.1	
391.71	5898.2	
391.91	5852.4	
392.12	6905.1	
392.32	5368.4	
392.53	4567	
392.73	5266.7	
392.93	5414.8	
393.14	4253.6	
393.34	4997	
393.55	5889.3	
393.75	5440.8	
393.95	4272.1	
394.16	4216.8	
394.36	5223.7	
394.57	5886.5	
394.77	3712.3	
394.98	4106.2	
395.18	5147.2	
395.38	5194.3	
395.59	5020.3	
395.79	3915	
396	5214.8	
396.2	5700.2	
396.4	4835.9	
396.61	4699.4	
396.81	5961.6	
397.02	5160.9	
397.22	5003.2	
397.42	5029.8	
397.63	5833.3	
397.83	5128.1	
398.04	3820.8	
398.24	4371	
398.44	5664	
398.65	4737.6	
398.85	3601.7	
399.05	3842.7	
399.26	5047.6	
399.46	6808.8	
399.67	4203.1	
399.87	3860.4	
400.07	5380.7	
400.28	5756.2	
400.48	3943.7	
400.69	5014.8	
400.89	5885.9	
401.09	6401.3	
401.3	3814.7	
401.5	4960.9	
401.7	6580.8	
401.91	6875	
402.11	4179.2	
402.32	4463.9	
402.52	5991.7	
402.72	5922.7	
402.93	4647.5	
403.13	3509.5	
403.33	6809.5	
403.54	5532.9	
403.74	4389.5	
403.94	5298.8	
404.15	5581.4	
404.35	6705	
404.56	4109.6	
404.76	5942.5	
404.96	5945.3	
405.17	5754.1	
405.37	5352	
405.57	4603.2	
405.78	6031.3	
405.98	5463.3	
406.18	4119.1	
406.39	5058.5	
406.59	6023.8	
406.79	5679	
407	3928.7	
407.2	4080.2	
407.4	5984.8	
407.61	6202.6	
407.81	3988.8	
408.01	5962.3	
408.22	4848.2	
408.42	6995.9	
408.62	4980.7	
408.83	4444.8	
409.03	5481	
409.23	5280.3	
409.44	4500.1	
409.64	4807.3	
409.84	6297.5	
410.05	6246.3	
410.25	4543.1	
410.45	4365.6	
410.66	5651.7	
410.86	8202.8	
411.06	4689.8	
411.27	4584	
411.47	7810.3	
411.67	5829.2	
411.88	4860.5	
412.08	5000.5	
412.28	6518.7	
412.49	6895.5	
412.69	4544.4	
412.89	4574.5	
413.09	6710.5	
413.3	6486.6	
413.5	4630.5	
413.7	4150.5	
413.91	5825.1	
414.11	6678.4	
414.31	4429.1	
414.52	4880.3	
414.72	6367.1	
414.92	6245.6	
415.12	4404.5	
415.33	4870.1	
415.53	6655.9	
415.73	6765.8	
415.94	5315.2	
416.14	4770.4	
416.34	5498.1	
416.55	5322.7	
416.75	5931.6	
416.95	5264.6	
417.15	6497.5	
417.36	7343.3	
417.56	6105	
417.76	5154.1	
417.97	6911.9	
418.17	6588.3	
418.37	4650.3	
418.57	4729.4	
418.78	6385.6	
418.98	6029.2	
419.18	5668.1	
419.38	5588.9	
419.59	6087.9	
419.79	5745.9	
419.99	4638.6	
420.2	5014.1	
420.4	6612.9	
420.6	6710.5	
420.8	4530.1	
421.01	4360.8	
421.21	6268.8	
421.41	6616.3	
421.61	4985.4	
421.82	4595	
422.02	5877.7	
422.22	6841.6	
422.42	5440.1	
422.63	5123.3	
422.83	6027.2	
423.03	7200.7	
423.23	5121.3	
423.44	4052.2	
423.64	6135.7	
423.84	5971.2	
424.04	4581.3	
424.25	4186	
424.45	7100.3	
424.65	6977.4	
424.85	3966.2	
425.06	4520.5	
425.26	6944	
425.46	5980.1	
425.66	5093.3	
425.87	4790.9	
426.07	6795.8	
426.27	6630.6	
426.47	4893.3	
426.67	4272.1	
426.88	7195.2	
427.08	6563.1	
427.28	5134.3	
427.48	4193.6	
427.69	5472.2	
427.89	6105	
428.09	5121.3	
428.29	4351.9	
428.5	6832.7	
428.7	6372.6	
428.9	4203.1	
429.1	4750.6	
429.3	6253.1	
429.51	6675.7	
429.71	4505.5	
429.91	5245.5	
430.11	6507.8	
430.31	6688.7	
430.52	4826.4	
430.72	5064.6	
430.92	7113.3	
431.12	6531.7	
431.32	4441.4	
431.53	4842.8	
431.73	5379.3	
431.93	7182.2	
432.13	4293.9	
432.33	4141.7	
432.54	5846.3	
432.74	6266.1	
432.94	4040.6	
433.14	5106.3	
433.34	6447	
433.55	5855.8	
433.75	5085.8	
433.95	6745.3	
434.15	6213.5	
434.35	5865.4	
434.56	4265.2	
434.76	3723.9	
434.96	6100.9	
435.16	6322.8	
435.36	4117.1	
435.56	5204.6	
435.77	5724.8	
435.97	5890.6	
436.17	5972.6	
436.37	5162.2	
436.57	5705.6	
436.78	5571.2	
436.98	5103.5	
437.18	5720.7	
437.38	6343.2	
437.58	5969.1	
437.78	5988.9	
437.99	4532.8	
438.19	6486.6	
438.39	7228	
438.59	4513	
438.79	4000.4	
438.99	7171.3	
439.2	5902.2	
439.4	4156	
439.6	4029.7	
439.8	6204.7	
440	7373.4	
440.2	5090.6	
440.4	5126.7	
440.61	6557.6	
440.81	7089.4	
441.01	4186.7	
441.21	5100.8	
441.41	6909.8	
441.61	6557.6	
441.81	5341.8	
442.02	6383.5	
442.22	7418.4	
442.42	6579.4	
442.62	4268.6	
442.82	4311	
443.02	6817.7	
443.22	5925.5	
443.43	4626.4	
443.63	4216.8	
443.83	5772.5	
444.03	5855.8	
444.23	5420.3	
444.43	4979.3	
444.63	6075	
444.83	7360.4	
445.04	4248.9	
445.24	5681.7	
445.44	6571.9	
445.64	6565.1	
445.84	5164.3	
446.04	5171.8	
446.24	5841.5	
446.44	6900.3	
446.65	4332.1	
446.85	4640	
447.05	6268.8	
447.25	6872.3	
447.45	4802.5	
447.65	4148.5	
447.85	6229.9	
448.05	5823.7	
448.25	5212.8	
448.46	4981.3	
448.66	6167.1	
448.86	5879	
449.06	3961.5	
449.26	5173.2	
449.46	6559.6	
449.66	5562.3	
449.86	4663.9	
450.06	4671.4	
450.26	5741.8	
450.47	6420.4	
450.67	4954	
450.87	5304.9	
451.07	6432	
451.27	6185.5	
451.47	4201.1	
451.67	4702.8	
451.87	5808	
452.07	7029.3	
452.27	4388.8	
452.47	4426.3	
452.67	6222.4	
452.88	6750.8	
453.08	3835.8	
453.28	5843.5	
453.48	7311.2	
453.68	6130.3	
453.88	4244.8	
454.08	4558.8	
454.28	6391.7	
454.48	6076.3	
454.68	5041.4	
454.88	5610.1	
455.08	6460.7	
455.28	6187.6	
455.48	4114.4	
455.68	4724	
455.89	6944.7	
456.09	6633.4	
456.29	4469.4	
456.49	4403.1	
456.69	6838.2	
456.89	6083.8	
457.09	4996.4	
457.29	5306.3	
457.49	6276.3	
457.69	6477.7	
457.89	4685.8	
458.09	4164.9	
458.29	6096.8	
458.49	6812.9	
458.69	5150.6	
458.89	4487.8	
459.09	6974.7	
459.29	7096.9	
459.49	4644.1	
459.69	5465.3	
459.9	6578.1	
460.1	6006	
460.3	4539.7	
460.5	4316.4	
460.7	6449.1	
460.9	6107	
461.1	3927.3	
461.3	5214.8	
461.5	7028.6	
461.7	6640.2	
461.9	4265.2	
462.1	4754	
462.3	6152.8	
462.5	6741.2	
462.7	4269.3	
462.9	4409.3	
463.1	7727	
463.3	7285.3	
463.5	4521.9	
463.7	5414.1	
463.9	6204.7	
464.1	6638.8	
464.3	4536.9	
464.5	4879.6	
464.7	6840.2	
464.9	6390.3	
465.1	6229.9	
465.3	5215.5	
465.5	7223.2	
465.7	7154.2	
465.9	5386.8	
466.1	5333.6	
466.3	6904.4	
466.5	6796.5	
466.7	5956.2	
466.9	4995	
467.1	6634.1	
467.3	7649.2	
467.5	6004.6	
467.7	4805.9	
467.9	7776.1	
468.1	8632.9	
468.3	5649	
468.5	6042.9	
468.7	6549.4	
468.9	6495.5	
469.1	5083.1	
469.3	5721.3	
469.5	8596.7	
469.7	6072.9	
469.9	5571.2	
470.1	4791.6	
470.3	6510.5	
470.5	6518.7	
470.7	6122.7	
470.9	4892.6	
471.1	6305	
471.3	6800.6	
471.5	4676.9	
471.69	6726.9	
471.89	6176	
472.09	5786.9	
472.29	5574.6	
472.49	6073.6	
472.69	5922.7	
472.89	6798.6	
473.09	4599.1	
473.29	4896	
473.49	6114.6	
473.69	6333.7	
473.89	5775.3	
474.09	4995.7	
474.29	7604.8	
474.49	7290.8	
474.69	5771.9	
474.89	5129.5	
475.09	6298.2	
475.29	6294.8	
475.49	4557.4	
475.69	4752	
475.88	8049.2	
476.08	6603.3	
476.28	4483.7	
476.48	4992.3	
476.68	7151.5	
476.88	6997.2	
477.08	4874.8	
477.28	5093.3	
477.48	6480.5	
477.68	7235.5	
477.88	4623.6	
478.08	4986.8	
478.28	7357	
478.48	6602	
478.67	5007.3	
478.87	4539.7	
479.07	7197.9	
479.27	6741.9	
479.47	5211.4	
479.67	5197.1	
479.87	7036.1	
480.07	7596.6	
480.27	4422.2	
480.47	6165.8	
480.67	6720.8	
480.87	7272.3	
481.06	4737.6	
481.26	5606.7	
481.46	6648.4	
481.66	6576.7	
481.86	5242.1	
482.06	6318	
482.26	6313.2	
482.46	7353.6	
482.66	5103.5	
482.86	4729.4	
483.05	6657.3	
483.25	6127.5	
483.45	7608.2	
483.65	5033.2	
483.85	6187.6	
484.05	6548.7	
484.25	5537.7	
484.45	5965.7	
484.65	7423.9	
484.84	7388.4	
485.04	5066.7	
485.24	4988.2	
485.44	7586.4	
485.64	5925.5	
485.84	4263.9	
486.04	5649	
486.24	6281.1	
486.44	6737.8	
486.63	4209.9	
486.83	4897.4	
487.03	6100.9	
487.23	6325.5	
487.43	4294.6	
487.63	6688	
487.83	6359.6	
488.02	7442.3	
488.22	5224.4	
488.42	5893.4	
488.62	7363.1	
488.82	6143.2	
489.02	4866.7	
489.22	4870.1	
489.41	7134.4	
489.61	6701	
489.81	4569.7	
490.01	4585.4	
490.21	6969.9	
490.41	7732.4	
490.61	4573.1	
490.8	4677.6	
491	6457.2	
491.2	5924.8	
491.4	5356.1	
491.6	4461.8	
491.8	6578.8	
491.99	6791.7	
492.19	4280.3	
492.39	4773.1	
492.59	7088	
492.79	7077.1	
492.99	5459.2	
493.18	4538.3	
493.38	6999.3	
493.58	7785	
493.78	5229.1	
493.98	4830.5	
494.18	6741.2	
494.37	6200.6	
494.57	5335	
494.77	5261.9	
494.97	6774	
495.17	7003.4	
495.37	4764.9	
495.56	5098.1	
495.76	7199.3	
495.96	6823.8	
496.16	5907	
496.36	4827.1	
496.55	7091.4	
496.75	6505.7	
496.95	5247.6	
497.15	5088.5	
497.35	7013.6	
497.54	6940.6	
497.74	4881	
497.94	6395.1	
498.14	7631.4	
498.34	7477.8	
498.53	4530.1	
498.73	5347.2	
498.93	6220.4	
499.13	6761	
499.33	5099.4	
499.52	5648.3	
499.72	6718	
499.92	7197.2	
500.12	4761.5	
500.32	5025	
500.51	7061.4	
500.71	6840.9	
500.91	5878.4	
501.11	5450.3	
501.31	7045.7	
501.5	7418.4	
501.7	6055.2	
501.9	5027.1	
502.1	6853.9	
502.29	7046.4	
502.49	5457.2	
502.69	6101.6	
502.89	7063.4	
503.09	7018.4	
503.28	4558.8	
503.48	4747.9	
503.68	6247.7	
503.88	6322.8	
504.07	5732.9	
504.27	5252.4	
504.47	6737.1	
504.67	6873	
504.86	5607.3	
505.06	5371.1	
505.26	6415.6	
505.46	8146.8	
505.65	5236	
505.85	5523.4	
506.05	6337.1	
506.25	6865.5	
506.44	4624.3	
506.64	5622.4	
506.84	6342.6	
507.04	7310.6	
507.23	4835.3	
507.43	5446.9	
507.63	8375.5	
507.83	6585.6	
508.02	5409.4	
508.22	5035.3	
508.42	8660.2	
508.62	6388.3	
508.81	5288.5	
509.01	5864	
509.21	6240.2	
509.4	6526.2	
509.6	5556.8	
509.8	4780.6	
510	6402	
510.19	7968.6	
510.39	4859.8	
510.59	4881	
510.79	6272.2	
510.98	7616.4	
511.18	4933.6	
511.38	5019.6	
511.57	7131	
511.77	6945.3	
511.97	5715.9	
512.17	4700.8	
512.36	7126.2	
512.56	7159.7	
512.76	4769.7	
512.95	4528.1	
513.15	7275.8	
513.35	5801.9	
513.55	5692	
513.74	4797	
513.94	7183.6	
514.14	6528.2	
514.33	5758.9	
514.53	5474.9	
514.73	6475	
514.92	6645	
515.12	4977.2	
515.32	4681	
515.51	6720.8	
515.71	7309.2	
515.91	6647.7	
516.11	4812	
516.3	8416.5	
516.5	6236.1	
516.7	5464	
516.89	5997.1	
517.09	6496.8	
517.29	6319.3	
517.48	5621	
517.68	5091.3	
517.88	6165.8	
518.07	6800.6	
518.27	5601.2	
518.47	4722.6	
518.66	7379.5	
518.86	5988.9	
519.06	4495.3	
519.25	4915.1	
519.45	6347.3	
519.65	7830.7	
519.84	5580	
520.04	6193.7	
520.24	8188.5	
520.43	7061.4	
520.63	5365.7	
520.83	5122.7	
521.02	6232.7	
521.22	6929	
521.42	5713.2	
521.61	6313.2	
521.81	6477	
522.01	6713.9	
522.2	5425.8	
522.4	5246.9	
522.6	7065.5	
522.79	5933.6	
522.99	5315.8	
523.18	4544.4	
523.38	6739.2	
523.58	6701	
523.77	6442.2	
523.97	4474.1	
524.17	8527.7	
524.36	7688.8	
524.56	5743.2	
524.76	5418.9	
524.95	6617	
525.15	6300.2	
525.34	5110.4	
525.54	5136.3	
525.74	6928.3	
525.93	5935	
526.13	6285.9	
526.33	5002.5	
526.52	7150.8	
526.72	6676.4	
526.91	6252.4	
527.11	5465.3	
527.31	7238.2	
527.5	7667.6	
527.7	5341.1	
527.89	4372.4	
528.09	6113.9	
528.29	6599.9	
528.48	5778.7	
528.68	5467.4	
528.87	7004.7	
529.07	7124.9	
529.27	5351.3	
529.46	4823	
529.66	6649.8	
529.85	7165.8	
530.05	4653.7	
530.25	5438	
530.44	8077.9	
530.64	6636.1	
530.83	5096.7	
531.03	5307	
531.23	6933.1	
531.42	6895.5	
531.62	6035.4	
531.81	5189.6	
532.01	7050.5	
532.21	7587	
532.4	4792.2	
532.6	5191.6	
532.79	7838.9	
532.99	7033.4	
533.18	5218.9	
533.38	6224.5	
533.58	6546	
533.77	7279.8	
533.97	5074.9	
534.16	5907	
534.36	7415.7	
534.55	6514.6	
534.75	6010.1	
534.95	5107	
535.14	7328.3	
535.34	6504.3	
535.53	4777.9	
535.73	6892.1	
535.92	7946.1	
536.12	6767.2	
536.31	4995.7	
536.51	6173.9	
536.71	7043	
536.9	6646.3	
537.1	5141.8	
537.29	5266.7	
537.49	7457.3	
537.68	6448.4	
537.88	5625.8	
538.07	4809.3	
538.27	6647	
538.46	7772	
538.66	4706.9	
538.86	5170.4	
539.05	6782.2	
539.25	7220.5	
539.44	5400.5	
539.64	5092.6	
539.83	6588.3	
540.03	7685.3	
540.22	4949.9	
540.42	5134.3	
540.61	6913.3	
540.81	7047.7	
541	5686.5	
541.2	6220.4	
541.39	6449.1	
541.59	6798.6	
541.78	5825.8	
541.98	5004.6	
542.18	6184.2	
542.37	6173.3	
542.57	5462.6	
542.76	5922	
542.96	6277	
543.15	7090.1	
543.35	5478.3	
543.54	4835.3	
543.74	7356.3	
543.93	6925.5	
544.13	5533.6	
544.32	6589.7	
544.52	7294.9	
544.71	6506.4	
544.91	4630.5	
545.1	5902.2	
545.3	6417.7	
545.49	7174.7	
545.69	4584	
545.88	5216.2	
546.08	8092.2	
546.27	7656	
546.47	5654.4	
546.66	5044.1	
546.86	7372	
547.05	8013	
547.24	5257.8	
547.44	5032.5	
547.63	6408.1	
547.83	7504.4	
548.02	5511.8	
548.22	5639.4	
548.41	6212.9	
548.61	7530.4	
548.8	4989.5	
549	4993.6	
549.19	6882.5	
549.39	7194.5	
549.58	4706.2	
549.78	5296.7	
549.97	7268.2	
550.17	6821.8	
550.36	6243.6	
550.55	7334.5	
550.75	6858	
550.94	7692.2	
551.14	4979.3	
551.33	5436	
551.53	6121.4	
551.72	7083.2	
551.92	5410.1	
552.11	5228.5	
552.31	7182.9	
552.5	7272.3	
552.69	6963.8	
552.89	4846.2	
553.08	7172.7	
553.28	6938.5	
553.47	5212.8	
553.67	6405.4	
553.86	7908.6	
554.06	6162.3	
554.25	4400.4	
554.44	5067.4	
554.64	8746.2	
554.83	8168.7	
555.03	5047.6	
555.22	5509.7	
555.42	7374.1	
555.61	7088.7	
555.8	5244.2	
556	5655.1	
556.19	6256.5	
556.39	7519.5	
556.58	5270.1	
556.78	5236.7	
556.97	7049.8	
557.16	6721.4	
557.36	6585.6	
557.55	4887.1	
557.75	5970.5	
557.94	7791.2	
558.13	5100.1	
558.33	4857.8	
558.52	7551.5	
558.72	6526.9	
558.91	4949.9	
559.1	5216.2	
559.3	6148.7	
559.49	5956.2	
559.69	4497.3	
559.88	5651	
560.07	7080.5	
560.27	7464.2	
560.46	5775.3	
560.66	5923.4	
560.85	6864.8	
561.04	5961.6	
561.24	4986.1	
561.43	5160.2	
561.63	6215.6	
561.82	6542.6	
562.01	6460	
562.21	5474.9	
562.4	7008.8	
562.59	8050.6	
562.79	5289.2	
562.98	4956.1	
563.18	6922.8	
563.37	8288.1	
563.56	5790.3	
563.76	4772.4	
563.95	6340.5	
564.14	6316.6	
564.34	5202.5	
564.53	5049.6	
564.73	6837.5	
564.92	7184.3	
565.11	5359.5	
565.31	4740.4	
565.5	7475.1	
565.69	6415.6	
565.89	4961.5	
566.08	5260.5	
566.27	7303.7	
566.47	7634.8	
566.66	5918.6	
566.85	4507.6	
567.05	6878.4	
567.24	6238.8	
567.44	4839.4	
567.63	6285.9	
567.82	7174.7	
568.02	6827.9	
568.21	4901.5	
568.4	5292	
568.6	6720.8	
568.79	6653.2	
568.98	4633.2	
569.18	4810.7	
569.37	6641.6	
569.56	8700.5	
569.76	5216.2	
569.95	6170.5	
570.14	7073.7	
570.34	6903	
570.53	4678.9	
570.72	4614.8	
570.91	7400.7	
571.11	6505.7	
571.3	5176.6	
571.49	6107.7	
571.69	6608.8	
571.88	6265.4	
572.07	5693.4	
572.27	5695.4	
572.46	6156.2	
572.65	7223.2	
572.85	4885.1	
573.04	5206.6	
573.23	7432.8	
573.43	6693.4	
573.62	4586.1	
573.81	5291.3	
574	6690	
574.2	6462.7	
574.39	4883	
574.58	5130.8	
574.78	7509.9	
574.97	6716.7	
575.16	5500.8	
575.36	5645.6	
575.55	7083.2	
575.74	7234.1	
575.93	4552	
576.13	5564.3	
576.32	6449.1	
576.51	7034.8	
576.71	4907.6	
576.9	6283.2	
577.09	7403.4	
577.28	6914.6	
577.48	5464	
577.67	4478.9	
577.86	6543.3	
578.05	6842.3	
578.25	5113.1	
578.44	5246.2	
578.63	6696.9	
578.83	7773.4	
579.02	4436.6	
579.21	6036.7	
579.4	6861.4	
579.6	6499.6	
579.79	5270.1	
579.98	7547.4	
580.17	7171.3	
580.37	7285.3	
580.56	4721.3	
580.75	5442.8	
580.94	7724.3	
581.14	7605.5	
581.33	5973.2	
581.52	4833.2	
581.71	7004.1	
581.91	7707.9	
582.1	4536.9	
582.29	5209.3	
582.48	6736.5	
582.68	6554.2	
582.87	5659.9	
583.06	5240.8	
583.25	6995.9	
583.45	6820.4	
583.64	5877.7	
583.83	6602.7	
584.02	6485.2	
584.21	6965.1	
584.41	5961	
584.6	5141.1	
584.79	6641.6	
584.98	7404.1	
585.18	4710.3	
585.37	4676.9	
585.56	6202.6	
585.75	7019.8	
585.94	4905.6	
586.14	5576.6	
586.33	7756.3	
586.52	6675.7	
586.71	5386.2	
586.91	5165.7	
587.1	6126.8	
587.29	7217	
587.48	5160.2	
587.67	5041.4	
587.87	7032	
588.06	7140.6	
588.25	6371.2	
588.44	5717.9	
588.63	6818.4	
588.83	7323.5	
589.02	5108.3	
589.21	5027.8	
589.4	6648.4	
589.59	6419.7	
589.78	4352.6	
589.98	4746.5	
590.17	6267.5	
590.36	6787	
590.55	4150.5	
590.74	5098.1	
590.94	8204.2	
591.13	6695.5	
591.32	4826.4	
591.51	4356	
591.7	7229.3	
591.89	6605.4	
592.09	4371	
592.28	4913.8	
592.47	5830.6	
592.66	7598	
592.85	4404.5	
593.05	4657.1	
593.24	6411.5	
593.43	7252.5	
593.62	4667.3	
593.81	5238.7	
594	6423.8	
594.19	6687.3	
594.39	4642.7	
594.58	4530.1	
594.77	6818.4	
594.96	7408.9	
595.15	4522.6	
595.34	5203.9	
595.54	6984.3	
595.73	5997.1	
595.92	4035.2	
596.11	5184.1	
596.3	7395.2	
596.49	6082.5	
596.68	4939.7	
596.88	5384.8	
597.07	7150.1	
597.26	5890.6	
597.45	4456.4	
597.64	5687.9	
597.83	6191	
598.02	6795.8	
598.22	4538.3	
598.41	5283.8	
598.6	6688	
598.79	6065.4	
598.98	4612	
599.17	5567.7	
599.36	6668.9	
599.55	7920.2	
599.74	6660	
599.94	6455.2	
600.13	7257.3	
600.32	6087.9	
600.51	4394.9	
600.7	4497.3	
600.89	7910.6	
601.08	7897.7	
601.27	4356.7	
601.47	5366.4	
601.66	7177.4	
601.85	7858.7	
602.04	5031.9	
602.23	5422.3	
602.42	6259.3	
602.61	6917.4	
602.8	4941.1	
602.99	4724.7	
603.18	6657.3	
603.37	6870.3	
603.57	5397.8	
603.76	5961	
603.95	7565.2	
604.14	7157.7	
604.33	4848.2	
604.52	5192.3	
604.71	6793.1	
604.9	6423.8	
605.09	5810.8	
605.28	5592.3	
605.47	7448.5	
605.66	7133.1	
605.86	5408	
606.05	4846.2	
606.24	7404.8	
606.43	5980.1	
606.62	5146.5	
606.81	5965.7	
607	7249.8	
607.19	6634.1	
607.38	4666.6	
607.57	4904.9	
607.76	6381.5	
607.95	5885.9	
608.14	5338.4	
608.33	5926.8	
608.52	6375.3	
608.72	7344.7	
608.91	4524.6	
609.1	4483	
609.29	6509.8	
609.48	5973.9	
609.67	5584.8	
609.86	4626.4	
610.05	6117.3	
610.24	6469.5	
610.43	4404.5	
610.62	4052.2	
610.81	7681.9	
611	7328.3	
611.19	4513.7	
611.38	5297.4	
611.57	6820.4	
611.76	8176.2	
611.95	4399.7	
612.14	4214.7	
612.33	6576.7	
612.52	6130.3	
612.71	4977.2	
612.9	4142.4	
613.09	5698.1	
613.28	8156.4	
613.47	4648.9	
613.66	5631.2	
613.85	6691.4	
614.04	6265.4	
614.24	4786.1	
614.43	4007.9	
614.62	6859.3	
614.81	6789.7	
615	5369.8	
615.19	5350	
615.38	6105	
615.57	6459.3	
615.76	5180.7	
615.95	6198.5	
616.14	6902.3	
616.33	6520	
616.52	5459.9	
616.71	5704.3	
616.9	6839.5	
617.09	6619	
617.28	4814.1	
617.47	6072.2	
617.66	5890.6	
617.85	5937.7	
618.04	5732.3	
618.22	5164.3	
618.41	6208.1	
618.6	7148.1	
618.79	5082.4	
618.98	4758.1	
619.17	7404.1	
619.36	5756.2	
619.55	4848.9	
619.74	4924	
619.93	6609.5	
620.12	6051.1	
620.31	5472.2	
620.5	5576.6	
620.69	7200.7	
620.88	7567.9	
621.07	6303	
621.26	5312.4	
621.45	6784.9	
621.64	6845.7	
621.83	5390.9	
622.02	4603.2	
622.21	6861.4	
622.4	6614.9	
622.59	5967.8	
622.78	5687.9	
622.97	6190.3	
623.16	7150.1	
623.35	5309	
623.54	4467.3	
623.72	6378.7	
623.91	6563.7	
624.1	5572.5	
624.29	4201.7	
624.48	7582.3	
624.67	6888.7	
624.86	5421	
625.05	4476.2	
625.24	7710.6	
625.43	6084.5	
625.62	7247.1	
625.81	4687.1	
626	7099.6	
626.19	6352.8	
626.38	5479.7	
626.56	4874.2	
626.75	6205.3	
626.94	7037.5	
627.13	5497.4	
627.32	4126.7	
627.51	6855.9	
627.7	8323.6	
627.89	4327.4	
628.08	5508.4	
628.27	6086.6	
628.46	6232.7	
628.65	4574.5	
628.83	4243.4	
629.02	6873	
629.21	6067.4	
629.4	5031.2	
629.59	5323.4	
629.78	5998.5	
629.97	7003.4	
630.16	5284.4	
630.35	4780.6	
630.54	7418.4	
630.72	7170.6	
630.91	4788.8	
631.1	5337	
631.29	6724.8	
631.48	6771.9	
631.67	5387.5	
631.86	4926	
632.05	6242.9	
632.24	6303.6	
632.42	4514.4	
632.61	5107.6	
632.8	6421.7	
632.99	6004	
633.18	5141.1	
633.37	5590.3	
633.56	6655.2	
633.75	6434.7	
633.93	5122.7	
634.12	4764.9	
634.31	7428	
634.5	7026.6	
634.69	4851.6	
634.88	5426.4	
635.07	6417	
635.25	7005.4	
635.44	5832.6	
635.63	6011.5	
635.82	6307.7	
636.01	5815.5	
636.2	5755.5	
636.39	5293.3	
636.57	7486	
636.76	7121.5	
636.95	4668.7	
637.14	6183.5	
637.33	6752.8	
637.52	7742.7	
637.7	4510.3	
637.89	5461.2	
638.08	6328.2	
638.27	7913.4	
638.46	5611.4	
638.65	5976.7	
638.83	7905.2	
639.02	6182.1	
639.21	5523.4	
639.4	5994.4	
639.59	6678.4	
639.78	6284.5	
639.96	4878.3	
640.15	4850.3	
640.34	6617	
640.53	6820.4	
640.72	4569.7	
640.91	4909.7	
641.09	6024.4	
641.28	7398.6	
641.47	4898.7	
641.66	5778	
641.85	6696.2	
642.03	7030.7	
642.22	5550	
642.41	4919.9	
642.6	6210.1	
642.79	5615.5	
642.97	4812.7	
643.16	5513.1	
643.35	6128.2	
643.54	6025.8	
643.73	4762.2	
643.91	5598.5	
644.1	5838.1	
644.29	6478.4	
644.48	4852.3	
644.67	4923.3	
644.85	6135	
645.04	6401.3	
645.23	4420.2	
645.42	4711.7	
645.6	6027.2	
645.79	7144	
645.98	4762.2	
646.17	3887.7	
646.36	5746.6	
646.54	6426.5	
646.73	5745.2	
646.92	4396.3	
647.11	6073.6	
647.29	7212.3	
647.48	4592.9	
647.67	4334.2	
647.86	7361.8	
648.05	7353.6	
648.23	4944.5	
648.42	6253.8	
648.61	6823.1	
648.8	6440.9	
648.98	4569.7	
649.17	4894	
649.36	6034	
649.55	5532.2	
649.73	4561.5	
649.92	5311.7	
650.11	5958.9	
650.3	6297.5	
650.48	4765.6	
650.67	4508.3	
650.86	6617	
651.05	5554.8	
651.23	4717.2	
651.42	4612.7	
651.61	6106.4	
651.79	6225.8	
651.98	4859.8	
652.17	4580.6	
652.36	6562.4	
652.54	5713.8	
652.73	4627.7	
652.92	4414.1	
653.11	6625.9	
653.29	6692.8	
653.48	3908.2	
653.67	4890.5	
653.85	6333.7	
654.04	7557	
654.23	5164.3	
654.42	4765.6	
654.6	6008.7	
654.79	6688	
654.98	4294.6	
655.16	4842.8	
655.35	5674.2	
655.54	5646.2	
655.73	4391.5	
655.91	4287.8	
656.1	6784.2	
656.29	5600.5	
656.47	3855.6	
656.66	5584.8	
656.85	5858.6	
657.03	5890.6	
657.22	4435.9	
657.41	4496	
657.59	5926.8	
657.78	5754.8	
657.97	4075.5	
658.16	4804.5	
658.34	6572.6	
658.53	7000	
658.72	5711.8	
658.9	6223.8	
659.09	5983.5	
659.28	6135.7	
659.46	4504.2	
659.65	4507.6	
659.84	5754.1	
660.02	6308.4	
660.21	4413.4	
660.4	4310.3	
660.58	6801.3	
660.77	6142.5	
660.96	4908.3	
661.14	4045.4	
661.33	7311.9	
661.52	7269.6	
661.7	4000.4	
661.89	7752.9	
662.08	5802.6	
662.26	5427.8	
662.45	4270	
662.64	4382	
662.82	6429.9	
663.01	5671.5	
663.2	4442.7	
663.38	5181.4	
663.57	6348.7	
663.75	6318	
663.94	4723.3	
664.13	5999.9	
664.31	5791.7	
664.5	6468.2	
664.69	4907.6	
664.87	5643.5	
665.06	5548.6	
665.25	6255.2	
665.43	5870.8	
665.62	5904.3	
665.8	6703.7	
665.99	5979.4	
666.18	4769.7	
666.36	4914.4	
666.55	6598.6	
666.74	6524.8	
666.92	4418.8	
667.11	6106.4	
667.29	5992.4	
667.48	6605.4	
667.67	5671.5	
667.85	4858.5	
668.04	6029.2	
668.22	5933	
668.41	4904.2	
668.6	4962.9	
668.78	5814.2	
668.97	6026.5	
669.15	5207.3	
669.34	4212.7	
669.53	5837.4	
669.71	6150.7	
669.9	4378.6	
670.08	5040.1	
670.27	5803.9	
670.46	6385.6	
670.64	5267.4	
670.83	5555.5	
671.01	5666.7	
671.2	6313.2	
671.38	4440	
671.57	4339	
671.76	7012.9	
671.94	7572.7	
672.13	4280.3	
672.31	5487.9	
672.5	6500.9	
672.69	5835.3	
672.87	4469.4	
673.06	4736.3	
673.24	6351.4	
673.43	5885.9	
673.61	5188.9	
673.8	4740.4	
673.98	6548	
674.17	6795.8	
674.36	5326.1	
674.54	5264.6	
674.73	6352.8	
674.91	6595.1	
675.1	4880.3	
675.28	4521.2	
675.47	6085.9	
675.65	6619.7	
675.84	4762.2	
676.03	5165.7	
676.21	5877	
676.4	5369.8	
676.58	5618.3	
676.77	5307.7	
676.95	7378.1	
677.14	5812.8	
677.32	4484.4	
677.51	4265.9	
677.69	6633.4	
677.88	5558.2	
678.06	4298.7	
678.25	4439.3	
678.44	6092	
678.62	5810.8	
678.81	4145.1	
678.99	5070.8	
679.18	7020.4	
679.36	6541.2	
679.55	4734.2	
679.73	5334.3	
679.92	6452.5	
680.1	5791	
680.29	5990.3	
680.47	4724	
680.66	5808	
680.84	6646.3	
681.03	4020.8	
681.21	5079	
681.4	5834	
681.58	5728.2	
681.77	4515.1	
681.95	4446.8	
682.14	6687.3	
682.32	7019.8	
682.51	5380.7	
682.69	4244.8	
682.88	5832.6	
683.06	6550.8	
683.25	5071.5	
683.43	5514.5	
683.62	6058.6	
683.8	6445.6	
683.99	5723.4	
684.17	4949.9	
684.36	7370	
684.54	6041.5	
684.73	4192.9	
684.91	4409.3	
685.1	6391.7	
685.28	5832.6	
685.46	5026.4	
685.65	5096	
685.83	6692.1	
686.02	5956.9	
686.2	4470	
686.39	4586.1	
686.57	5878.4	
686.76	7301	
686.94	4468	
687.13	4624.3	
687.31	6546.7	
687.5	6029.9	
687.68	4024.9	
687.86	5430.5	
688.05	7576.1	
688.23	5416.9	
688.42	5336.3	
688.6	4482.3	
688.79	5851.7	
688.97	5821	
689.16	4938.3	
689.34	3784.6	
689.52	6581.5	
689.71	6820.4	
689.89	5202.5	
690.08	4395.6	
690.26	6062	
690.45	5999.9	
690.63	5399.1	
690.81	4596.3	
691	5783.5	
691.18	5694.7	
691.37	4754	
691.55	6988.4	
691.74	5717.2	
691.92	7819.1	
692.1	4803.2	
692.29	4177.2	
692.47	5952.1	
692.66	5246.9	
692.84	4311	
693.02	5076.2	
693.21	5342.5	
693.39	5905.7	
693.58	5095.3	
693.76	4457.7	
693.94	7049.1	
694.13	6860.7	
694.31	4365.6	
694.5	5474.9	
694.68	5646.9	
694.86	5952.1	
695.05	4744.5	
695.23	5217.5	
695.42	6314.6	
695.6	8834.9	
695.78	5418.9	
695.97	4485.7	
696.15	6434.7	
696.34	5793.7	
696.52	4203.1	
696.7	5171.1	
696.89	6149.4	
697.07	5603.2	
697.25	5067.4	
697.44	6531.7	
697.62	6096.8	
697.81	6478.4	
697.99	4659.8	
698.17	5197.7	
698.36	5443.5	
698.54	6139.8	
698.72	5051.7	
698.91	4044.1	
699.09	5747.3	
699.28	5646.2	
699.46	4698.7	
699.64	4547.9	
699.83	5497.4	
700.01	6926.9	
700.19	5398.4	
700.38	3741.6	
700.56	6748.7	
700.74	5694.7	
700.93	4235.2	
701.11	5017.5	
701.29	6226.5	
701.48	7247.8	
701.66	4363.5	
701.84	4436.6	
702.03	5692.7	
702.21	6416.3	
702.39	3964.2	
702.58	4530.1	
702.76	6128.2	
702.94	6283.2	
703.13	3986	
703.31	6454.5	
703.49	5408.7	
703.68	6827.9	
703.86	4209.9	
704.04	5205.9	
704.23	6030.6	
704.41	6378.7	
704.59	4333.5	
704.78	5608	
704.96	7054.6	
705.14	6407.4	
705.33	4121.9	
705.51	5015.5	
705.69	5862.7	
705.87	6716	
706.06	5230.5	
706.24	4196.3	
706.42	6173.9	
706.61	6392.4	
706.79	5302.2	
706.97	4126.7	
707.16	5589.6	
707.34	6291.4	
707.52	5233.2	
707.7	4373.8	
707.89	5815.5	
708.07	5442.8	
708.25	5317.2	
708.44	5336.3	
708.62	5649.7	
708.8	6856.6	
708.98	5548.6	
709.17	4431.1	
709.35	6098.2	
709.53	6089.3	
709.72	4106.2	
709.9	4361.5	
710.08	6404	
710.26	6450.4	
710.45	5885.2	
710.63	4529.4	
710.81	6062.7	
710.99	6092.7	
711.18	5201.2	
711.36	4651.6	
711.54	5891.3	
711.72	6663.4	
711.91	4745.1	
712.09	4190.1	
712.27	6083.1	
712.45	6724.2	
712.64	5096	
712.82	3984	
713	5528.2	
713.18	5705.6	
713.37	4173.1	
713.55	5391.6	
713.73	6653.2	
713.91	5205.3	
714.1	4670.1	
714.28	4145.1	
714.46	6368.5	
714.64	5676.3	
714.83	3622.2	
715.01	4554	
715.19	5776.6	
715.37	5109	
715.55	4335.5	
715.74	4609.3	
715.92	6719.4	
716.1	4698.7	
716.28	5758.2	
716.47	4718.5	
716.65	5492	
716.83	5602.6	
717.01	4609.3	
717.19	4767	
717.38	7667.6	
717.56	5191.6	
717.74	4932.2	
717.92	3906.8	
718.1	6420.4	
718.29	5544.5	
718.47	3493.2	
718.65	4227.7	
718.83	6296.1	
719.01	6141.9	
719.2	3327.9	
719.38	4489.1	
719.56	5808.7	
719.74	7487.4	
719.92	4089.1	
720.11	5175.9	
720.29	5982.8	
720.47	5025	
720.65	3697.9	
720.83	4662.5	
721.02	5537.7	
721.2	5250.3	
721.38	4644.1	
721.56	3978.5	
721.74	4747.9	
721.92	4997	
722.11	5263.3	
722.29	4915.8	
722.47	6274.3	
722.65	5437.4	
722.83	3996.3	
723.01	4948.6	
723.2	5546.6	
723.38	5816.2	
723.56	3407.1	
723.74	4563.6	
723.92	5031.9	
724.1	6247.7	
724.29	3910.3	
724.47	5180	
724.65	5049.6	
724.83	5008.6	
725.01	3775.8	
725.19	4764.3	
725.37	5055.8	
725.56	5107	
725.74	3626.3	
725.92	3908.9	
726.1	4996.4	
726.28	5335	
726.46	4419.5	
726.64	4110.3	
726.83	5300.8	
727.01	5595.7	
727.19	3627	
727.37	4486.4	
727.55	5405.3	
727.73	5938.4	
727.91	3607.8	
728.09	3454.9	
728.28	5963.7	
728.46	6650.4	
728.64	4635.9	
728.82	4491.2	
729	6988.4	
729.18	6318.7	
729.36	3680.9	
729.54	6240.8	
729.72	7335.8	
729.91	5582.1	
730.09	5674.2	
730.27	4376.5	
730.45	5456.5	
730.63	6072.2	
730.81	4980.7	
730.99	4016.7	
731.17	6551.5	
731.35	5120.6	
731.53	4581.3	
731.71	4141	
731.9	6303	
732.08	6546.7	
732.26	4489.1	
732.44	4117.1	
732.62	6594.5	
732.8	6053.1	
732.98	4857.8	
733.16	3880.9	
733.34	6056.5	
733.52	4850.3	
733.7	4398.4	
733.88	4752	
734.07	5910.4	
734.25	5632.6	
734.43	3854.3	
734.61	5465.3	
734.79	7230	
734.97	5448.3	
735.15	4059.1	
735.33	4434.5	
735.51	5892	
735.69	5541.8	
735.87	5590.3	
736.05	4642.7	
736.23	5746.6	
736.41	5528.8	
736.59	4473.4	
736.77	4569.7	
736.95	6234.7	
737.13	5604.6	
737.32	4115.1	
737.5	4321.2	
737.68	6799.9	
737.86	5512.4	
738.04	3848.8	
738.22	5938.4	
738.4	5313.8	
738.58	5652.4	
738.76	4552.6	
738.94	3505.4	
739.12	5488.6	
739.3	5335	
739.48	5182.7	
739.66	4935.6	
739.84	5751.4	
740.02	5744.6	
740.2	3546.4	
740.38	3991.5	
740.56	6150.1	
740.74	4924	
740.92	4674.1	
741.1	4589.5	
741.28	5574.6	
741.46	5464	
741.64	4220.2	
741.82	4753.3	
742	5599.1	
742.18	5596.4	
742.36	4504.8	
742.54	4040.6	
742.72	6240.2	
742.9	4933.6	
743.08	4861.2	
743.26	3613.3	
743.44	6455.9	
743.62	6323.4	
743.8	5053	
743.98	4078.2	
744.16	6051.7	
744.34	5671.5	
744.52	4963.6	
744.7	4853.7	
744.88	6090	
745.06	5640.8	
745.24	5013.4	
745.42	5117.9	
745.6	6270.2	
745.78	5988.3	
745.96	3784.6	
746.14	4154	
746.32	7083.9	
746.5	6237.4	
746.68	4723.3	
746.86	4186.7	
747.03	6757.6	
747.21	5044.1	
747.39	4739.7	
747.57	4269.3	
747.75	5903.6	
747.93	6272.9	
748.11	4162.2	
748.29	4076.8	
748.47	7521.5	
748.65	5559.6	
748.83	4946.5	
749.01	4656.4	
749.19	6043.6	
749.37	5267.4	
749.55	4521.2	
749.73	4612.7	
749.91	5772.5	
750.09	5513.8	
750.26	4644.8	
750.44	4050.2	
750.62	5782.1	
750.8	5804.6	
750.98	3885.7	
751.16	4279.6	
751.34	5853.8	
751.52	5198.4	
751.7	5101.5	
751.88	3910.9	
752.06	6348.7	
752.24	6186.2	
752.42	3825.6	
752.59	4182	
752.77	5779.4	
752.95	7018.4	
753.13	4999.1	
753.31	4390.8	
753.49	5445.5	
753.67	5928.9	
753.85	4642.7	
754.03	4233.8	
754.21	6123.4	
754.38	6641.6	
754.56	4439.3	
754.74	3469.3	
754.92	5388.2	
755.1	6238.8	
755.28	3599	
755.46	3680.2	
755.64	7178.8	
755.82	7343.3	
755.99	4060.4	
756.17	4208.6	
756.35	4808.6	
756.53	6471.6	
756.71	3138.2	
756.89	4047.5	
757.07	5981.4	
757.25	5040.7	
757.42	4560.8	
757.6	5551.4	
757.78	5971.9	
757.96	4874.8	
758.14	4262.5	
758.32	3662.5	
758.5	4467.3	
758.67	5380	
758.85	4056.3	
759.03	4230.4	
759.21	5560.9	
759.39	4930.1	
759.57	3608.5	
759.75	4855.1	
759.92	6137.1	
760.1	5411.4	
760.28	5187.5	
760.46	5487.2	
760.64	5139	
760.82	4935.6	
760.99	4917.2	
761.17	4007.2	
761.35	5977.3	
761.53	4900.8	
761.71	4231.1	
761.89	4921.3	
762.06	5879	
762.24	5340.4	
762.42	4256.4	
762.6	4022.9	
762.78	5350.7	
762.96	5296	
763.13	4654.4	
763.31	4229.7	
763.49	6185.5	
763.67	5246.2	
763.85	5159.5	
764.02	5744.6	
764.2	6354.2	
764.38	5508.4	
764.56	4169	
764.74	5054.4	
764.91	6552.1	
765.09	5462.6	
765.27	3884.3	
765.45	3634.5	
765.63	6598.6	
765.8	6539.8	
765.98	3385.3	
766.16	3723.2	
766.34	4975.2	
766.52	4739	
766.69	4705.5	
766.87	3544.4	
767.05	5421	
767.23	6255.2	
767.41	3958.7	
767.58	4198.3	
767.76	6026.5	
767.94	6146	
768.12	3991.5	
768.29	4894	
768.47	5533.6	
768.65	6321.4	
768.83	3657	
769	4846.2	
769.18	5085.1	
769.36	5837.4	
769.54	4615.4	
769.72	3682.9	
769.89	6118.6	
770.07	6336.4	
770.25	4044.7	
770.43	5394.3	
770.6	6990.4	
770.78	7440.3	
770.96	4233.2	
771.14	4956.8	
771.31	5973.2	
771.49	5429.8	
771.67	3416.7	
771.85	3672.7	
772.02	4593.6	
772.2	5358.9	
772.38	4450.9	
772.55	3934.1	
772.73	5742.5	
772.91	5462.6	
773.09	4355.3	
773.26	4492.6	
773.44	5705	
773.62	5399.8	
773.8	3854.3	
773.97	3568.9	
774.15	5731.6	
774.33	5337	
774.5	3773.7	
774.68	4122.6	
774.86	6004.6	
775.04	5431.9	
775.21	3856.3	
775.39	3861.1	
775.57	5740.5	
775.74	6168.5	
775.92	3717.7	
776.1	3633.1	
776.27	5672.2	
776.45	6988.4	
776.63	3822.9	
776.81	3394.2	
776.98	5309.7	
777.16	6474.3	
777.34	4087.1	
777.51	3975.8	
777.69	5294.7	
777.87	5074.9	
778.04	4044.1	
778.22	4767.7	
778.4	5108.3	
778.57	5836.7	
778.75	3331.4	
778.93	3690.4	
779.1	4892.6	
779.28	4778.6	
779.46	3442.6	
779.64	3857	
779.81	6004	
779.99	6919.4	
780.17	4715.1	
780.34	4892.6	
780.52	5381.4	
780.69	5603.2	
780.87	4275.5	
781.05	3813.3	
781.22	5469.4	
781.4	5567.7	
781.58	3886.4	
781.75	3076.7	
781.93	5539.8	
782.11	4937.7	
782.28	4878.9	
782.46	3896.6	
782.64	4765.6	
782.81	5745.9	
782.99	4057	
783.17	4033.8	
783.34	5610.8	
783.52	4813.4	
783.69	4280.9	
783.87	5068	
784.05	4900.1	
784.22	4931.5	
784.4	5074.9	
784.58	4353.3	
784.75	5879	
784.93	4949.3	
785.1	3975.1	
785.28	4672.1	
785.46	5638.1	
785.63	4911.7	
785.81	3938.2	
785.99	3761.4	
786.16	5146.5	
786.34	5543.2	
786.51	3833.8	
786.69	4239.3	
786.87	4687.1	
787.04	5256.5	
787.22	3725.3	
787.39	4693.3	
787.57	4900.1	
787.75	6142.5	
787.92	4842.1	
788.1	4922	
788.27	5018.2	
788.45	4717.2	
788.63	4543.8	
788.8	3217.4	
788.98	5504.9	
789.15	4639.3	
789.33	3352.5	
789.5	4040.6	
789.68	5958.2	
789.86	6043.6	
790.03	4465.9	
790.21	3893.9	
790.38	5931.6	
790.56	5154.1	
790.73	3754.6	
790.91	3827	
791.09	4961.5	
791.26	5829.9	
791.44	4004.5	
791.61	3434.4	
791.79	4960.2	
791.96	5063.9	
792.14	3560.7	
792.32	3116.3	
792.49	5002.5	
792.67	5115.1	
792.84	3663.1	
793.02	3404.4	
793.19	5474.2	
793.37	6234	
793.54	3116.3	
793.72	3506.1	
793.89	6414.2	
794.07	5090.6	
794.25	4174.4	
794.42	3224.2	
794.6	6113.2	
794.77	5780.1	
794.95	4483.7	
795.12	3863.2	
795.3	4999.8	
795.47	5685.2	
795.65	4231.8	
795.82	4138.9	
796	4883.7	
796.17	6838.9	
796.35	3951.9	
796.52	4715.8	
796.7	5627.1	
796.87	5705	
797.05	4916.5	
797.22	4840.7	
797.4	5671.5	
797.57	6668.9	
797.75	4059.1	
797.92	3863.2	
798.1	5979.4	
798.27	4988.9	
798.45	3285.6	
798.62	3500	
798.8	5346.6	
798.97	5844.2	
799.15	4341	
799.32	4119.1	
799.5	4629.1	
799.67	5426.4	
799.85	4506.9	
800.02	3213.3	
800.2	5020.3	
800.37	5367	
800.55	4628.4	
800.72	3882.9	
800.9	5858.6	
801.07	6342.6	
801.25	5205.9	
801.42	4213.4	
801.6	5893.4	
801.77	5556.1	
801.95	3937.6	
802.12	3773	
802.29	5621	
802.47	5629.2	
802.64	4248.2	
802.82	3158	
802.99	5010	
803.17	6047	
803.34	4138.9	
803.52	3685.7	
803.69	6741.9	
803.87	4767	
804.04	4098	
804.21	4190.1	
804.39	6232	
804.56	5261.2	
804.74	3464.5	
804.91	4360.1	
805.09	4992.9	
805.26	5141.1	
805.44	3513.6	
805.61	3878.2	
805.78	5692.7	
805.96	5774.6	
806.13	4298.7	
806.31	4602.5	
806.48	4568.3	
806.66	5140.4	
806.83	4216.1	
807	4145.1	
807.18	4967	
807.35	5421.7	
807.53	4145.1	
807.7	3253.5	
807.87	6235.4	
808.05	5128.8	
808.22	4550.6	
808.4	3311.6	
808.57	5100.8	
808.74	4711.7	
808.92	3812	
809.09	4859.1	
809.27	5025.7	
809.44	5624.4	
809.61	3349.8	
809.79	3729.4	
809.96	6297.5	
810.14	5887.9	
810.31	3269.9	
810.48	3986	
810.66	5132.2	
810.83	5991	
811.01	3779.9	
811.18	4206.5	
811.35	5877	
811.53	4485.1	
811.7	4651.6	
811.87	4252.3	
812.05	5067.4	
812.22	5001.8	
812.39	3658.4	
812.57	3568.9	
812.74	5094.7	
812.92	6827.2	
813.09	3972.4	
813.26	4317.1	
813.44	6541.2	
813.61	5024.3	
813.78	3317	
813.96	4487.1	
814.13	5113.1	
814.3	4724	
814.48	4838.7	
814.65	4002.4	
814.82	6412.2	
815	4853.7	
815.17	4130.8	
815.34	5005.9	
815.52	5004.6	
815.69	4980	
815.87	4090.5	
816.04	3557.3	
816.21	5161.6	
816.38	4474.1	
816.56	3925.3	
816.73	3670	
816.9	6413.6	
817.08	5900.2	
817.25	3721.8	
817.42	4739	
817.6	4640	
817.77	5187.5	
817.94	4239.3	
818.12	3654.9	
818.29	4844.8	
818.46	7630	
818.64	3831.1	
818.81	3614.7	
818.98	4705.5	
819.16	7036.8	
819.33	4402.5	
819.5	4114.4	
819.67	5422.3	
819.85	6183.5	
820.02	4024.9	
820.19	4293.2	
820.37	5303.6	
820.54	4907.6	
820.71	4220.9	
820.88	5248.9	
821.06	5289.9	
821.23	4860.5	
821.4	4192.2	
821.58	4199.7	
821.75	5943.9	
821.92	5310.4	
822.09	3325.2	
822.27	3507.5	
822.44	5103.5	
822.61	4992.9	
822.79	3380.5	
822.96	6583.5	
823.13	5646.9	
823.3	4840.7	
823.48	3921.9	
823.65	3470.6	
823.82	5860.6	
823.99	4613.4	
824.17	5003.9	
824.34	3592.1	
824.51	6767.2	
824.68	5131.5	
824.86	3763.5	
825.03	4274.8	
825.2	5080.3	
825.37	6297.5	
825.55	3628.3	
825.72	4191.5	
825.89	6843.6	
826.06	6335.7	
826.24	4014	
826.41	3985.3	
826.58	6227.2	
826.75	5414.8	
826.92	3144.3	
827.1	3520.5	
827.27	8583	
827.44	6838.2	
827.61	3820.8	
827.79	4616.8	
827.96	4823.6	
828.13	5241.4	
828.3	3992.9	
828.47	3323.2	
828.65	5319.9	
828.82	5244.2	
828.99	5186.1	
829.16	4544.4	
829.34	5721.3	
829.51	5492	
829.68	4087.7	
829.85	4386.1	
830.02	5997.8	
830.2	5720	
830.37	3169.6	
830.54	5028.4	
830.71	6600.6	
830.88	5113.1	
831.05	3204.4	
831.23	3735.5	
831.4	6270.2	
831.57	7086	
831.74	3772.4	
831.91	3334.1	
832.09	5374.6	
832.26	5764.3	
832.43	3899.3	
832.6	4462.5	
832.77	5315.8	
832.94	6158.9	
833.12	3138.9	
833.29	3929.4	
833.46	5513.1	
833.63	7329	
833.8	4339	
833.97	3990.1	
834.15	5780.7	
834.32	5474.9	
834.49	4110.3	
834.66	4276.2	
834.83	5911.8	
835	4857.1	
835.17	3850.2	
835.35	3846.8	
835.52	5649.7	
835.69	5558.9	
835.86	4048.8	
836.03	3293.1	
836.2	5664.7	
836.37	5329.5	
836.55	3971.7	
836.72	3702.7	
836.89	5250.3	
837.06	5721.3	
837.23	4085	
837.4	4410.6	
837.57	6534.4	
837.75	7323.5	
837.92	3650.2	
838.09	3858.4	
838.26	5248.3	
838.43	6023.1	
838.6	4202.4	
838.77	3721.2	
838.94	6939.2	
839.11	6583.5	
839.29	3992.9	
839.46	3108.8	
839.63	5665.4	
839.8	5432.6	
839.97	3882.3	
840.14	3853.6	
840.31	5440.1	
840.48	5740.5	
840.65	3211.2	
840.82	3748.5	
841	5673.6	
841.17	5631.9	
841.34	3506.8	
841.51	3609.2	
841.68	5637.4	
841.85	5390.9	
842.02	3684.3	
842.19	3013.9	
842.36	5425.1	
842.53	5515.2	
842.7	3559.4	
842.87	4334.2	
843.05	7275.1	
843.22	5384.8	
843.39	3364.8	
843.56	3666.5	
843.73	5117.2	
843.9	5835.3	
844.07	5783.5	
844.24	4810	
844.41	8523	
844.58	4919.9	
844.75	3462.4	
844.92	3812	
845.09	5696.8	
845.26	5706.3	
845.43	3557.3	
845.6	3743	
845.77	5743.2	
845.94	5430.5	
846.12	3941	
846.29	4183.3	
846.46	5929.6	
846.63	5735.7	
846.8	3577.8	
846.97	4220.2	
847.14	6225.1	
847.31	5636	
847.48	4001	
847.65	4459.1	
847.82	6036	
847.99	5982.8	
848.16	4733.5	
848.33	4394.9	
848.5	5272.8	
848.67	6217.6	
848.84	3478.8	
849.01	3657.7	
849.18	5094	
849.35	4780	
849.52	4409.3	
849.69	3480.2	
849.86	5937.1	
850.03	6152.1	
850.2	3581.2	
850.37	4311.7	
850.54	6111.8	
850.71	5391.6	
850.88	4250.9	
851.05	3469.3	
851.22	5602.6	
851.39	6300.2	
851.56	3327.9	
851.73	4033.1	
851.9	4951.3	
852.07	5964.4	
852.24	3910.3	
852.41	3525.2	
852.58	5571.8	
852.75	5095.3	
852.92	3912.3	
853.09	3424.2	
853.26	5262.6	
853.43	6208.1	
853.6	3493.2	
853.77	2996.2	
853.94	6281.8	
854.11	5634	
854.28	5194.3	
854.44	3846.8	
854.61	6759	
854.78	5817.6	
854.95	3530	
855.12	4446.8	
855.29	4547.9	
855.46	6272.2	
855.63	3503.4	
855.8	4891.9	
855.97	5180	
856.14	6100.9	
856.31	5002.5	
856.48	3876.1	
856.65	5247.6	
856.82	4961.5	
856.99	3367.5	
857.16	3828.3	
857.33	7095.5	
857.49	5337	
857.66	3824.2	
857.83	4077.5	
858	5274.9	
858.17	5483.1	
858.34	3383.2	
858.51	3482.9	
858.68	6400.6	
858.85	6470.2	
859.02	4123.9	
859.19	4378.6	
859.36	4958.1	
859.52	5052.3	
859.69	3560.7	
859.86	4222.9	
860.03	5087.8	
860.2	6343.2	
860.37	3168.2	
860.54	3489.1	
860.71	5967.1	
860.88	6372.6	
861.05	3982.6	
861.21	4445.5	
861.38	6363.7	
861.55	4906.3	
861.72	3180.5	
861.89	3936.9	
862.06	6022.4	
862.23	6456.6	
862.4	3445.4	
862.56	3691.1	
862.73	5807.4	
862.9	5526.1	
863.07	4155.3	
863.24	3169.6	
863.41	4861.2	
863.58	5068	
863.75	3631.7	
863.91	4117.8	
864.08	6397.2	
864.25	5878.4	
864.42	4468.7	
864.59	4987.5	
864.76	6706.4	
864.93	5031.2	
865.09	3404.4	
865.26	3723.9	
865.43	6193.7	
865.6	6574	
865.77	3035.8	
865.94	3495.2	
866.1	6217.6	
866.27	6040.1	
866.44	5330.2	
866.61	3312.2	
866.78	5444.9	
866.95	5876.3	
867.11	3431	
867.28	3078.1	
867.45	6049.7	
867.62	5130.2	
867.79	4104.1	
867.96	3507.5	
868.12	5061.2	
868.29	6010.1	
868.46	3501.3	
868.63	4703.5	
868.8	6154.8	
868.97	5859.2	
869.13	3623.5	
869.3	3697.3	
869.47	5855.1	
869.64	6049.7	
869.81	3570.3	
869.97	3517	
870.14	5678.3	
870.31	6381.5	
870.48	3429.7	
870.65	4412.7	
870.81	5348.6	
870.98	5284.4	
871.15	4028.4	
871.32	3730	
871.48	5763.7	
871.65	6457.2	
871.82	3485	
871.99	3902.1	
872.16	6846.4	
872.32	6283.9	
872.49	3529.3	
872.66	3574.4	
872.83	5958.2	
872.99	5209.3	
873.16	4046.1	
873.33	3416.7	
873.5	5599.1	
873.67	5568.4	
873.83	3713	
874	4755.4	
874.17	5736.4	
874.34	6847	
874.5	4588.8	
874.67	4380.6	
874.84	6341.9	
875.01	5024.3	
875.17	5018.2	
875.34	3506.1	
875.51	5631.9	
875.68	6816.3	
875.84	4235.9	
876.01	5233.9	
876.18	5913.2	
876.34	5844.2	
876.51	3583.9	
876.68	3420.1	
876.85	5401.2	
877.01	6261.3	
877.18	5053	
877.35	3475.4	
877.52	5461.2	
877.68	4909	
877.85	3378.5	
878.02	3374.4	
878.18	5469.4	
878.35	5243.5	
878.52	2838.5	
878.69	3945.1	
878.85	5954.1	
879.02	5930.9	
879.19	4968.4	
879.35	3844	
879.52	5911.8	
879.69	6129.6	
879.86	3039.9	
880.02	3923.2	
880.19	5483.8	
880.36	6617.7	
880.52	4061.8	
880.69	4156	
880.86	6004	
881.02	6089.3	
881.19	3869.3	
881.36	3821.5	
881.52	5877.7	
881.69	5212.1	
881.86	3784.6	
882.02	3718.4	
882.19	6172.6	
882.36	7320.1	
882.52	3601	
882.69	5008	
882.86	5715.2	
883.02	5566.4	
883.19	4241.3	
883.36	4044.7	
883.52	6034	
883.69	6870.9	
883.86	3552.5	
884.02	3164.8	
884.19	5972.6	
884.36	5563.6	
884.52	4014.7	
884.69	3726.6	
884.86	5228.5	
885.02	6590.4	
885.19	3964.2	
885.36	4086.4	
885.52	5463.3	
885.69	5684.5	
885.86	5118.6	
886.02	4522.6	
886.19	5970.5	
886.35	5414.8	
886.52	3925.3	
886.69	4975.9	
886.85	5022.3	
887.02	6328.9	
887.19	6328.9	
887.35	6328.9	
887.52	6328.9	
887.68	6328.9	
887.85	6328.9	
888.02	6328.9	
888.18	6328.9	
888.35	6328.9	
888.51	6328.9	
888.68	6328.9	
888.85	6328.9	
889.01	6328.9	
889.18	6328.9	
889.35	6328.9	
889.51	6328.9	
889.68	6328.9	
889.84	6328.9	
890.01	6328.9	
890.17	6328.9	
890.34	6328.9	
890.51	6328.9	
890.67	6328.9	
890.84	6328.9	
891	6328.9	
891.17	6328.9	
891.34	6328.9	
891.5	6328.9	
891.67	6328.9	
891.83	6328.9	
892	6328.9	
892.16	6328.9	
892.33	6328.9	
892.5	6328.9	
892.66	6328.9	
892.83	6328.9	
892.99	6328.9	
893.16	6328.9	
893.32	6328.9	
893.49	6328.9	
893.65	6328.9	
893.82	6328.9	
893.99	6328.9	
894.15	6328.9	
894.32	6328.9	
894.48	6328.9	
894.65	6328.9	
894.81	6328.9	
894.98	6328.9	
895.14	6328.9	
895.31	6328.9	
895.47	6328.9	
895.64	6328.9	
895.81	6328.9	
895.97	6328.9	
896.14	6328.9	
896.3	6328.9	
896.47	6328.9	
896.63	6328.9	
896.8	6328.9	
896.96	6328.9	
897.13	6328.9	
897.29	6328.9	
897.46	6328.9	
897.62	6328.9	
897.79	6328.9	
897.95	6328.9	
898.12	6328.9	
898.28	6328.9	
898.45	6328.9	
898.61	6328.9	
898.78	6328.9	
898.94	6328.9	
899.11	6328.9	
899.27	6328.9	
899.44	6328.9	
899.6	6328.9	
899.77	6328.9	
899.93	6328.9	
900.1	6328.9	
900.26	6328.9	
900.43	6328.9	
900.59	6328.9	
900.76	6328.9	
900.92	6328.9	
901.09	6328.9	
901.25	6328.9	
901.42	6328.9	
901.58	6328.9	
901.75	6328.9	
901.91	6328.9	
902.07	6328.9	
902.24	6328.9	
902.4	6328.9	
902.57	6328.9	
902.73	6328.9	
902.9	6328.9	
903.06	6328.9	
903.23	6328.9	
903.39	6328.9	
903.56	6328.9	
903.72	6328.9	
903.88	6328.9	
904.05	6328.9	
904.21	6328.9	
904.38	6328.9	
904.54	6328.9	
904.71	6328.9	
904.87	6328.9	
905.03	6328.9	
905.2	6328.9	
905.36	6328.9	
905.53	6328.9	
905.69	6328.9	
905.86	6328.9	
906.02	6328.9	
906.18	6328.9	
906.35	6328.9	
906.51	6328.9	
906.68	6328.9	
906.84	6328.9	
907.01	6328.9	
907.17	6328.9	
907.33	6328.9	
907.5	6328.9	
907.66	6328.9	
907.83	6328.9	
907.99	6328.9	
908.15	6328.9	
908.32	6328.9	
908.48	6328.9	
908.65	6328.9	
908.81	6328.9	
908.97	6328.9	
909.14	6328.9	
909.3	6328.9	
909.47	6328.9	
909.63	6328.9	
909.79	6328.9	
909.96	6328.9	
910.12	6328.9	
910.28	6328.9	
910.45	6328.9	
910.61	6328.9	
910.78	6328.9	
910.94	6328.9	
911.1	6328.9	
911.27	6328.9	
911.43	6328.9	
911.59	6328.9	
911.76	6328.9	
911.92	6328.9	
912.08	6328.9	
912.25	6328.9	
912.41	6328.9	
912.57	6328.9	
912.74	6328.9	
912.9	6328.9	
913.07	6328.9	
913.23	6328.9	
913.39	6328.9	
913.56	6328.9	
913.72	6328.9	
913.88	6328.9	
914.05	6328.9	
914.21	6328.9	
914.37	6328.9	
914.54	6328.9	
914.7	6328.9	
914.86	6328.9	
915.03	6328.9	
915.19	6328.9	
