Wavelength	Intensities	
nm	a.u.	
179.22	1890.3	
179.44	1897.8	
179.65	1882.8	
179.86	1912.8	
180.08	1921.7	
180.29	4911	
180.51	3497.9	
180.72	5655.8	
180.94	6662	
181.15	3237.8	
181.37	3229.6	
181.58	5543.9	
181.79	5836.7	
182.01	3380.5	
182.22	3580.5	
182.44	5767.1	
182.65	4812.7	
182.87	4588.8	
183.08	4055.7	
183.29	6052.4	
183.51	5004.6	
183.72	3680.9	
183.94	5326.1	
184.15	5420.3	
184.37	5462.6	
184.58	3179.1	
184.79	4439.3	
185.01	5038	
185.22	5827.8	
185.44	4641.4	
185.65	3927.3	
185.86	5279	
186.08	4922.6	
186.29	3164.8	
186.51	3401.7	
186.72	5042.1	
186.94	5930.9	
187.15	3895.2	
187.36	4056.3	
187.58	7797.3	
187.79	5551.4	
188.01	4205.2	
188.22	6621.8	
188.43	6608.8	
188.65	5754.1	
188.86	3350.5	
189.08	4064.5	
189.29	5214.1	
189.5	5205.9	
189.72	3713.6	
189.93	3840.6	
190.15	5980.8	
190.36	7194.5	
190.57	4121.2	
190.79	4022.9	
191	6062	
191.22	6006	
191.43	4123.2	
191.64	3406.5	
191.86	6283.2	
192.07	6038.1	
192.29	3558	
192.5	3771.7	
192.71	6038.1	
192.93	5121.3	
193.14	3643.3	
193.35	3773	
193.57	5197.7	
193.78	6063.4	
194	3003	
194.21	3695.9	
194.42	5016.8	
194.64	5412.1	
194.85	4029.7	
195.07	4717.8	
195.28	5460.6	
195.49	4707.6	
195.71	4976.6	
195.92	3484.3	
196.13	5603.9	
196.35	5715.2	
196.56	5382.7	
196.78	3998.3	
196.99	7021.8	
197.2	6658.6	
197.42	4663.9	
197.63	4055.7	
197.84	4863.2	
198.06	5671.5	
198.27	3734.1	
198.48	4954	
198.7	5226.4	
198.91	5306.3	
199.13	4049.5	
199.34	4055.7	
199.55	5836	
199.77	4660.5	
199.98	3537.5	
200.19	4166.3	
200.41	5257.1	
200.62	5041.4	
200.83	4227.7	
201.05	4588.8	
201.26	5299.5	
201.47	5034.6	
201.69	3604.4	
201.9	3469.9	
202.11	5382.7	
202.33	6384.2	
202.54	3902.1	
202.76	4342.4	
202.97	5566.4	
203.18	5542.5	
203.4	4248.2	
203.61	4151.2	
203.82	5465.3	
204.04	5068.7	
204.25	4123.2	
204.46	4003.1	
204.68	5421.7	
204.89	5683.8	
205.1	3974.4	
205.32	3462.4	
205.53	5874.3	
205.74	5958.2	
205.96	2915.6	
206.17	4169	
206.38	5822.4	
206.6	5961	
206.81	4674.1	
207.02	3828.3	
207.24	5695.4	
207.45	6123.4	
207.66	3843.4	
207.88	3283.6	
208.09	5638.7	
208.3	5454.4	
208.52	3534.1	
208.73	3915.7	
208.94	5390.3	
209.15	6160.3	
209.37	3909.6	
209.58	4053.6	
209.79	5951.4	
210.01	5187.5	
210.22	3116.3	
210.43	3218.7	
210.65	5513.8	
210.86	5819	
211.07	3898	
211.29	3596.2	
211.5	5828.5	
211.71	5384.8	
211.93	3574.4	
212.14	3498.6	
212.35	5388.9	
212.56	5594.4	
212.78	4052.9	
212.99	3403	
213.2	6376	
213.42	5193.6	
213.63	3704.8	
213.84	3949.2	
214.06	4803.2	
214.27	4891.9	
214.48	3915	
214.69	4132.8	
214.91	6094.1	
215.12	6173.9	
215.33	4261.1	
215.55	4609.3	
215.76	6701	
215.97	5812.1	
216.18	4063.2	
216.4	3919.1	
216.61	5188.9	
216.82	5896.8	
217.04	3609.9	
217.25	3809.2	
217.46	6062	
217.67	5853.8	
217.89	3175.7	
218.1	3252.2	
218.31	5507	
218.53	5583.4	
218.74	3748.5	
218.95	3670.6	
219.16	5373.9	
219.38	6340.5	
219.59	3687	
219.8	4371	
220.01	6999.3	
220.23	5498.1	
220.44	4832.5	
220.65	3553.9	
220.87	5527.5	
221.08	6084.5	
221.29	3280.2	
221.5	4433.2	
221.72	7494.2	
221.93	5152.7	
222.14	4140.3	
222.35	4897.4	
222.57	5422.3	
222.78	5806.7	
222.99	3902.7	
223.2	4207.2	
223.42	5767.8	
223.63	5970.5	
223.84	3005.7	
224.05	2953.9	
224.27	6918.7	
224.48	6322.8	
224.69	4831.8	
224.9	4102.1	
225.12	5657.9	
225.33	5395.7	
225.54	3239.2	
225.75	3677.5	
225.97	4990.2	
226.18	5261.9	
226.39	3942.3	
226.6	3673.4	
226.82	5216.9	
227.03	5047.6	
227.24	4106.2	
227.45	3358.7	
227.67	5797.1	
227.88	6397.9	
228.09	4521.2	
228.3	4583.4	
228.52	5861.3	
228.73	5412.8	
228.94	3760.8	
229.15	3330	
229.36	5303.6	
229.58	5239.4	
229.79	3799	
230	4430.4	
230.21	6442.9	
230.43	5524.7	
230.64	4034.5	
230.85	4258.4	
231.06	5815.5	
231.28	5812.1	
231.49	3365.5	
231.7	3910.9	
231.91	5768.4	
232.12	5520	
232.34	3478.1	
232.55	3976.5	
232.76	6063.4	
232.97	5685.2	
233.18	3605.8	
233.4	4087.7	
233.61	5679	
233.82	5152.7	
234.03	3764.8	
234.25	3704.1	
234.46	7538.6	
234.67	5479.7	
234.88	4222.2	
235.09	3659	
235.31	5799.8	
235.52	5297.4	
235.73	4085.7	
235.94	3446	
236.15	5130.8	
236.37	6589	
236.58	3569.6	
236.79	3921.2	
237	5769.1	
237.21	4906.9	
237.43	4248.2	
237.64	3325.9	
237.85	9929.2	
238.06	5021.6	
238.27	4279.6	
238.48	3425.6	
238.7	5794.4	
238.91	5216.2	
239.12	3908.9	
239.33	3957.4	
239.54	5131.5	
239.76	5300.1	
239.97	3882.9	
240.18	3893.2	
240.39	6848.4	
240.6	5707	
240.82	4016.7	
241.03	3330.7	
241.24	5444.2	
241.45	6339.8	
241.66	3568.2	
241.87	4206.5	
242.09	6191.7	
242.3	6609.5	
242.51	4290.5	
242.72	3933.5	
242.93	5914.5	
243.14	5366.4	
243.36	4534.9	
243.57	4956.8	
243.78	6289.3	
243.99	5745.2	
244.2	3921.9	
244.41	3592.1	
244.63	5033.2	
244.84	5695.4	
245.05	4223.6	
245.26	3996.3	
245.47	5703.6	
245.68	6014.9	
245.9	5235.3	
246.11	4097.3	
246.32	5276.9	
246.53	5714.5	
246.74	6358.9	
246.95	3325.9	
247.16	4881	
247.38	5459.2	
247.59	3257.6	
247.8	3903.4	
248.01	5143.8	
248.22	5374.6	
248.43	3542.3	
248.64	3753.9	
248.86	4798.4	
249.07	5204.6	
249.28	3472.7	
249.49	3998.3	
249.7	5977.3	
249.91	6072.2	
250.12	3290.4	
250.34	3309.5	
250.55	5578	
250.76	5392.3	
250.97	4052.9	
251.18	4107.5	
251.39	6161	
251.6	5618.9	
251.81	4132.8	
252.03	4177.9	
252.24	5130.8	
252.45	5954.8	
252.66	3390.8	
252.87	4415.4	
253.08	5465.3	
253.29	7265.5	
253.5	3375.1	
253.72	4771.1	
253.93	5281.7	
254.14	6406.7	
254.35	3715.7	
254.56	3842.7	
254.77	5642.2	
254.98	4997.7	
255.19	3691.8	
255.41	4739.7	
255.62	5495.4	
255.83	6124.8	
256.04	4211.3	
256.25	4114.4	
256.46	6477	
256.67	5104.2	
256.88	4001.7	
257.09	4508.9	
257.31	5141.8	
257.52	5082.4	
257.73	5073.5	
257.94	3745.7	
258.15	5298.8	
258.36	5451	
258.57	4627	
258.78	2929.3	
258.99	5892.7	
259.2	5253	
259.41	3742.3	
259.63	3870	
259.84	6273.6	
260.05	6773.3	
260.26	4899.4	
260.47	3577.1	
260.68	6014.2	
260.89	5339.7	
261.1	4554.7	
261.31	3540.9	
261.52	6017.6	
261.73	6412.9	
261.95	4831.2	
262.16	4287.1	
262.37	6135.7	
262.58	6210.8	
262.79	4814.1	
263	3820.8	
263.21	5516.5	
263.42	4954.7	
263.63	3899.3	
263.84	3706.8	
264.05	6019.7	
264.26	6416.3	
264.47	4743.1	
264.69	4218.1	
264.9	6175.3	
265.11	5667.4	
265.32	3583.3	
265.53	3657	
265.74	5608	
265.95	4846.9	
266.16	4027	
266.37	4407.9	
266.58	5573.9	
266.79	5305.6	
267	3695.2	
267.21	3457	
267.42	5012.7	
267.63	5444.9	
267.84	3829	
268.06	3315.7	
268.27	5907	
268.48	6128.2	
268.69	3824.9	
268.9	4540.3	
269.11	6122.1	
269.32	4903.5	
269.53	3936.9	
269.74	3631	
269.95	5772.5	
270.16	4795	
270.37	3926.6	
270.58	4504.2	
270.79	5270.1	
271	5955.5	
271.21	4172.4	
271.42	3971	
271.63	5566.4	
271.84	5034.6	
272.05	3117	
272.26	3523.2	
272.47	5466	
272.68	5627.1	
272.89	3745.1	
273.11	4344.4	
273.32	5184.1	
273.53	6399.9	
273.74	4275.5	
273.95	4192.2	
274.16	6086.6	
274.37	5525.4	
274.58	4220.9	
274.79	3413.3	
275	5537	
275.21	6107	
275.42	5109.7	
275.63	4400.4	
275.84	5692	
276.05	7129	
276.26	4176.5	
276.47	3878.9	
276.68	5313.8	
276.89	6418.3	
277.1	4447.5	
277.31	3469.3	
277.52	5717.2	
277.73	5896.1	
277.94	3422.2	
278.15	3806.5	
278.36	5659.9	
278.57	5104.2	
278.78	3727.3	
278.99	4268	
279.2	5092.6	
279.41	4982	
279.62	4936.3	
279.83	3435.8	
280.04	6695.5	
280.25	4911.7	
280.46	4889.9	
280.67	3919.1	
280.88	5048.2	
281.09	6131.6	
281.3	4126	
281.51	5215.5	
281.72	5162.9	
281.93	5981.4	
282.14	3713	
282.35	3943.7	
282.56	5950	
282.77	5941.8	
282.98	3832.4	
283.19	4625.7	
283.4	7324.9	
283.61	5395	
283.82	3413.3	
284.03	4865.3	
284.24	5536.3	
284.45	6147.3	
284.66	4859.1	
284.87	4659.8	
285.08	6014.2	
285.29	6194.4	
285.5	3323.2	
285.71	3810.6	
285.92	6098.2	
286.12	6745.3	
286.33	4825.7	
286.54	3831.1	
286.75	5928.2	
286.96	5354.8	
287.17	3476.1	
287.38	4754	
287.59	5113.1	
287.8	4982	
288.01	3888.4	
288.22	4421.6	
288.43	5986.9	
288.64	4990.9	
288.85	4557.4	
289.06	4382.7	
289.27	5838.8	
289.48	6470.9	
289.69	4891.2	
289.9	4455	
290.11	6167.8	
290.32	5104.2	
290.53	4616.8	
290.74	4243.4	
290.94	5869.5	
291.15	5948	
291.36	3691.1	
291.57	4448.9	
291.78	5173.9	
291.99	4831.2	
292.2	3487.7	
292.41	4318.5	
292.62	6024.4	
292.83	5806	
293.04	5240.8	
293.25	3624.9	
293.46	5190.9	
293.67	6078.4	
293.88	3659	
294.09	3519.1	
294.29	4965.6	
294.5	5625.1	
294.71	3915	
294.92	3762.8	
295.13	5205.3	
295.34	6586.3	
295.55	3321.1	
295.76	3371.6	
295.97	5862	
296.18	6614.3	
296.39	3456.3	
296.6	3672.7	
296.81	5537.7	
297.01	5885.9	
297.22	3823.6	
297.43	3648.8	
297.64	5068	
297.85	5050.3	
298.06	3048.1	
298.27	3316.3	
298.48	5513.8	
298.69	5092.6	
298.9	3981.3	
299.11	3629	
299.31	4969.7	
299.52	4965.6	
299.73	4272.1	
299.94	4182	
300.15	5474.2	
300.36	5038.7	
300.57	4274.1	
300.78	4166.9	
300.99	5346.6	
301.2	5580.7	
301.4	3633.8	
301.61	3986	
301.82	5795.8	
302.03	5870.8	
302.24	4514.4	
302.45	3496.6	
302.66	5782.8	
302.87	6214.9	
303.08	3695.2	
303.29	5044.8	
303.49	5175.2	
303.7	5458.5	
303.91	3228.3	
304.12	4760.8	
304.33	4963.6	
304.54	5563	
304.75	3715.7	
304.96	3512.3	
305.16	5739.1	
305.37	6524.8	
305.58	3177.8	
305.79	3336.1	
306	5756.2	
306.21	4866.7	
306.42	3699.3	
306.63	5639.4	
306.83	5314.5	
307.04	6033.3	
307.25	4070	
307.46	4057	
307.67	4645.5	
307.88	5975.3	
308.09	3605.8	
308.29	3756	
308.5	5580	
308.71	6054.5	
308.92	3947.1	
309.13	3504.1	
309.34	5348.6	
309.55	5331.5	
309.75	4527.4	
309.96	4232.5	
310.17	5872.2	
310.38	5205.3	
310.59	4402.5	
310.8	3455.6	
311.01	6582.2	
311.21	5369.8	
311.42	3504.1	
311.63	3566.9	
311.84	5182	
312.05	5568.4	
312.26	4068.6	
312.46	4500.1	
312.67	5292	
312.88	5000.5	
313.09	3547.8	
313.3	3415.3	
313.51	6238.1	
313.71	6639.5	
313.92	3519.1	
314.13	3743	
314.34	5623.7	
314.55	5347.9	
314.76	4567	
314.96	3957.4	
315.17	5506.3	
315.38	5995.1	
315.59	3659	
315.8	3435.8	
316.01	6375.3	
316.21	6366.5	
316.42	3447.4	
316.63	3925.3	
316.84	5324.7	
317.05	6189.6	
317.26	4240.7	
317.46	3751.2	
317.67	5421.7	
317.88	5868.8	
318.09	4488.5	
318.3	3335.5	
318.5	5195	
318.71	5799.8	
318.92	5810.8	
319.13	4244.1	
319.34	5992.4	
319.54	6070.2	
319.75	3358.7	
319.96	3147.7	
320.17	5820.3	
320.38	6027.9	
320.58	3231.7	
320.79	3913	
321	5980.1	
321.21	6256.5	
321.42	3949.8	
321.62	3236.5	
321.83	5039.4	
322.04	5489.9	
322.25	3766.9	
322.46	3613.3	
322.66	5595.1	
322.87	5741.8	
323.08	4409.3	
323.29	3506.1	
323.5	6473.6	
323.7	5021.6	
323.91	4937	
324.12	4370.4	
324.33	5459.2	
324.53	5842.2	
324.74	4144.4	
324.95	4445.5	
325.16	4809.3	
325.37	5227.8	
325.57	3584.6	
325.78	3713	
325.99	5503.6	
326.2	4960.9	
326.4	5201.8	
326.61	3265.1	
326.82	5348.6	
327.03	5522	
327.24	5076.9	
327.44	4846.9	
327.65	5760.9	
327.86	4601.8	
328.07	4158.1	
328.27	3396.9	
328.48	6173.9	
328.69	5049.6	
328.9	5140.4	
329.1	3857	
329.31	5406	
329.52	6275	
329.73	3551.9	
329.93	4046.1	
330.14	5459.2	
330.35	5665.4	
330.56	5870.8	
330.76	4429.1	
330.97	5253.7	
331.18	5659.2	
331.39	3962.1	
331.59	3249.4	
331.8	6068.1	
332.01	6187.6	
332.22	3693.9	
332.42	4229.7	
332.63	5644.9	
332.84	5160.2	
333.05	3994.9	
333.25	3606.5	
333.46	5255.8	
333.67	5503.6	
333.88	3759.4	
334.08	4179.2	
334.29	7269.6	
334.5	6110.5	
334.7	3458.3	
334.91	5050.3	
335.12	5076.9	
335.33	5835.3	
335.53	3940.3	
335.74	5845.6	
335.95	5198.4	
336.16	5057.8	
336.36	3950.5	
336.57	4626.4	
336.78	4963.6	
336.98	6065.4	
337.19	4906.9	
337.4	3860.4	
337.61	6572.6	
337.81	4983.4	
338.02	3625.6	
338.23	4777.2	
338.43	6221.7	
338.64	5098.1	
338.85	3596.9	
339.05	4717.8	
339.26	6296.8	
339.47	4894	
339.68	3583.9	
339.88	5341.8	
340.09	5705	
340.3	5933	
340.5	4189.5	
340.71	3172.3	
340.92	4960.9	
341.13	6173.9	
341.33	3446.7	
341.54	4202.4	
341.75	5657.9	
341.95	5309	
342.16	4018.1	
342.37	4347.2	
342.57	5029.1	
342.78	5338.4	
342.99	4470	
343.19	3220.1	
343.4	5879	
343.61	5640.1	
343.81	3820.1	
344.02	3490.4	
344.23	5881.1	
344.43	6335.7	
344.64	4474.1	
344.85	4309.6	
345.06	5732.9	
345.26	6056.5	
345.47	4146.5	
345.68	4910.3	
345.88	4801.8	
346.09	5999.2	
346.3	4226.3	
346.5	3162.1	
346.71	5470.1	
346.92	5136.3	
347.12	3261	
347.33	4160.1	
347.54	5976.7	
347.74	6450.4	
347.95	4041.3	
348.16	3003	
348.36	5202.5	
348.57	4917.9	
348.78	4057	
348.98	4414.7	
349.19	5397.8	
349.39	4876.2	
349.6	3286.3	
349.81	3609.2	
350.01	5643.5	
350.22	5128.1	
350.43	3874.1	
350.63	4769.7	
350.84	5473.5	
351.05	5190.9	
351.25	3604.4	
351.46	3252.2	
351.67	6041.5	
351.87	5151.3	
352.08	3827	
352.29	4385.4	
352.49	5901.6	
352.7	6013.5	
352.9	3528.7	
353.11	4300.7	
353.32	6591.7	
353.52	5246.2	
353.73	3417.4	
353.94	4392.9	
354.14	5720.7	
354.35	5565.7	
354.55	3542.3	
354.76	3860.4	
354.97	5711.8	
355.17	5490.6	
355.38	3368.2	
355.59	4645.5	
355.79	5132.9	
356	5536.3	
356.2	3899.3	
356.41	3389.4	
356.62	4785.4	
356.82	5371.8	
357.03	4149.2	
357.24	3758.7	
357.44	5143.8	
357.65	5195	
357.85	5005.2	
358.06	3940.3	
358.27	4860.5	
358.47	5058.5	
358.68	3309.5	
358.88	4156.7	
359.09	5691.3	
359.3	6016.9	
359.5	4853	
359.71	4268.6	
359.91	6473.6	
360.12	5794.4	
360.33	4094.6	
360.53	4605.9	
360.74	4995	
360.94	5152.7	
361.15	4321.9	
361.36	3525.9	
361.56	5790.3	
361.77	5287.2	
361.97	4857.8	
362.18	3803.1	
362.38	5941.8	
362.59	4934.9	
362.8	3412.6	
363	3289.7	
363.21	4744.5	
363.41	5410.1	
363.62	3913.7	
363.83	5064.6	
364.03	5457.2	
364.24	6490.7	
364.44	5083.1	
364.65	5136.3	
364.85	5190.2	
365.06	5108.3	
365.27	3598.3	
365.47	3634.5	
365.68	6247	
365.88	5180	
366.09	4091.2	
366.29	3671.3	
366.5	5470.1	
366.71	5907	
366.91	5023	
367.12	4143	
367.32	6434	
367.53	5745.9	
367.73	4103.4	
367.94	5110.4	
368.14	5718.6	
368.35	6589	
368.56	4091.8	
368.76	3835.2	
368.97	5778.7	
369.17	7602.1	
369.38	3616.7	
369.58	3867.2	
369.79	4863.9	
369.99	6221.7	
370.2	4894.6	
370.4	3961.5	
370.61	5423	
370.82	6658.6	
371.02	3838.6	
371.23	3163.4	
371.43	4745.8	
371.64	6096.1	
371.84	3843.4	
372.05	5150	
372.25	7391.8	
372.46	5849.7	
372.66	3826.3	
372.87	3822.9	
373.07	5746.6	
373.28	7429.3	
373.48	4857.1	
373.69	4597.7	
373.9	5246.2	
374.1	5285.8	
374.31	4766.3	
374.51	4336.2	
374.72	6042.2	
374.92	4951.3	
375.13	4867.3	
375.33	4105.5	
375.54	5625.1	
375.74	5068.7	
375.95	4188.1	
376.15	5433.9	
376.36	5614.8	
376.56	5414.1	
376.77	4217.5	
376.97	4673.5	
377.18	6624.5	
377.38	5655.1	
377.59	4940.4	
377.79	3701.4	
378	5472.9	
378.2	5885.9	
378.41	3719.8	
378.61	3660.4	
378.82	6011.5	
379.02	5040.7	
379.23	3930.7	
379.43	5058.5	
379.64	6031.3	
379.84	5672.9	
380.05	3714.3	
380.25	3659	
380.46	5756.2	
380.66	5325.4	
380.87	5054.4	
381.07	5411.4	
381.28	6351.4	
381.48	5790.3	
381.69	3740.3	
381.89	3789.4	
382.1	4681.7	
382.3	5974.6	
382.51	4937	
382.71	5806	
382.91	5803.3	
383.12	6283.9	
383.32	4211.3	
383.53	4362.2	
383.73	5617.6	
383.94	5433.9	
384.14	4259.8	
384.35	3352.5	
384.55	5324.7	
384.76	5791	
384.96	4179.9	
385.17	4460.5	
385.37	5795.8	
385.58	5048.9	
385.78	4491.2	
385.98	3393.5	
386.19	5295.4	
386.39	5647.6	
386.6	3884.3	
386.8	4157.4	
387.01	5756.2	
387.21	5797.1	
387.42	4583.4	
387.62	5146.5	
387.83	5006.6	
388.03	5769.8	
388.23	4143	
388.44	5018.9	
388.64	4747.2	
388.85	4900.1	
389.05	4548.5	
389.26	5091.9	
389.46	6408.8	
389.67	6085.9	
389.87	4447.5	
390.07	4560.1	
390.28	5341.1	
390.48	4929.5	
390.69	3716.4	
390.89	4010.6	
391.1	5099.4	
391.3	6067.4	
391.5	5265.3	
391.71	5900.2	
391.91	5791.7	
392.12	6850.5	
392.32	5274.2	
392.53	4521.9	
392.73	5200.5	
392.93	5431.2	
393.14	4172.4	
393.34	4990.9	
393.55	5871.5	
393.75	5334.3	
393.95	4178.5	
394.16	4055.7	
394.36	5149.3	
394.57	5853.8	
394.77	3638.6	
394.98	4128	
395.18	5051.7	
395.38	5181.4	
395.59	4914.4	
395.79	3842.7	
396	5141.8	
396.2	5629.2	
396.4	4677.6	
396.61	4601.1	
396.81	5868.8	
397.02	5069.4	
397.22	4888.5	
397.42	4958.8	
397.63	5783.5	
397.83	5012.7	
398.04	3737.5	
398.24	4256.4	
398.44	5575.3	
398.65	4627	
398.85	3617.4	
399.05	3705.5	
399.26	4990.2	
399.46	6668.2	
399.67	4048.2	
399.87	3821.5	
400.07	5333.6	
400.28	5738.4	
400.48	3905.5	
400.69	4947.9	
400.89	5934.3	
401.09	6283.9	
401.3	3737.5	
401.5	4867.3	
401.7	6572.6	
401.91	6784.9	
402.11	4089.1	
402.32	4410.6	
402.52	5926.8	
402.72	5837.4	
402.93	4545.1	
403.13	3423.5	
403.33	6704.4	
403.54	5390.3	
403.74	4256.4	
403.94	5165.7	
404.15	5519.3	
404.35	6623.1	
404.56	4010.6	
404.76	5975.3	
404.96	5930.2	
405.17	5703.6	
405.37	5356.1	
405.57	4534.2	
405.78	5829.2	
405.98	5367	
406.18	4041.3	
406.39	4971.8	
406.59	5913.9	
406.79	5547.9	
407	3906.2	
407.2	3978.5	
407.4	5879	
407.61	6135.7	
407.81	3947.1	
408.01	5866.1	
408.22	4806.6	
408.42	6864.8	
408.62	4922	
408.83	4344.4	
409.03	5490.6	
409.23	5166.3	
409.44	4425	
409.64	4665.3	
409.84	6292	
410.05	6117.3	
410.25	4493.2	
410.45	4293.9	
410.66	5550	
410.86	8011.7	
411.06	4602.5	
411.27	4496.7	
411.47	7813	
411.67	5685.2	
411.88	4729.4	
412.08	4899.4	
412.28	6335	
412.49	6815	
412.69	4424.3	
412.89	4430.4	
413.09	6603.3	
413.3	6443.6	
413.5	4510.3	
413.7	4119.8	
413.91	5720.7	
414.11	6564.4	
414.31	4274.8	
414.52	4737.6	
414.72	6283.2	
414.92	6136.4	
415.12	4329.4	
415.33	4887.1	
415.53	6452.5	
415.73	6733.7	
415.94	5214.1	
416.14	4650.9	
416.34	5474.2	
416.55	5188.9	
416.75	5889.3	
416.95	5152.7	
417.15	6434	
417.36	7210.2	
417.56	6068.8	
417.76	5068	
417.97	6840.2	
418.17	6470.9	
418.37	4640	
418.57	4684.4	
418.78	6276.3	
418.98	5924.1	
419.18	5571.2	
419.38	5587.5	
419.59	5976	
419.79	5674.2	
419.99	4564.2	
420.2	4975.9	
420.4	6502.3	
420.6	6745.3	
420.8	4434.5	
421.01	4355.3	
421.21	6266.1	
421.41	6526.2	
421.61	4907.6	
421.82	4578.6	
422.02	5866.1	
422.22	6813.6	
422.42	5354.1	
422.63	5104.2	
422.83	6002.6	
423.03	7195.2	
423.23	5066	
423.44	3994.2	
423.64	6109.8	
423.84	5857.2	
424.04	4496	
424.25	4198.3	
424.45	7098.3	
424.65	7002	
424.85	3979.2	
425.06	4638.6	
425.26	6961.7	
425.46	5967.8	
425.66	5053	
425.87	4808.6	
426.07	6763.1	
426.27	6575.3	
426.47	4933.6	
426.67	4260.5	
426.88	7105.8	
427.08	6506.4	
427.28	5177.9	
427.48	4203.1	
427.69	5397.1	
427.89	6150.7	
428.09	5094.7	
428.29	4289.8	
428.5	6841.6	
428.7	6305	
428.9	4090.5	
429.1	4680.3	
429.3	6223.1	
429.51	6583.5	
429.71	4489.1	
429.91	5309.7	
430.11	6535.8	
430.31	6701	
430.52	4798.4	
430.72	5044.1	
430.92	7062.8	
431.12	6571.2	
431.32	4444.1	
431.53	4873.5	
431.73	5431.2	
431.93	7186.3	
432.13	4303.5	
432.33	4207.2	
432.54	5989.6	
432.74	6245.6	
432.94	4135.5	
433.14	5200.5	
433.34	6477	
433.55	5859.9	
433.75	5130.8	
433.95	6902.3	
434.15	6208.8	
434.35	5883.1	
434.56	4321.2	
434.76	3812	
434.96	6207.4	
435.16	6425.8	
435.36	4157.4	
435.56	5246.2	
435.77	5784.1	
435.97	5990.3	
436.17	5988.3	
436.37	5231.9	
436.57	5744.6	
436.78	5657.2	
436.98	7135.8	
437.18	5790.3	
437.38	6500.3	
437.58	5948.7	
437.78	5931.6	
437.99	4622.9	
438.19	6556.2	
438.39	7354.3	
438.59	4584.7	
438.79	4057.7	
438.99	7183.6	
439.2	6014.9	
439.4	4283	
439.6	4101.4	
439.8	6308.4	
440	7423.9	
440.2	5164.3	
440.4	5241.4	
440.61	6645.7	
440.81	7212.3	
441.01	4276.2	
441.21	5182	
441.41	6972	
441.61	6639.5	
441.81	5440.8	
442.02	6560.3	
442.22	7584.3	
442.42	6817.7	
442.62	4417.5	
442.82	4347.8	
443.02	6994.5	
443.22	6078.4	
443.43	4775.2	
443.63	4310.3	
443.83	5955.5	
444.03	6000.5	
444.23	5552.7	
444.43	5132.2	
444.63	6251.8	
444.83	7557.7	
445.04	4401.8	
445.24	5734.3	
445.44	6609.5	
445.64	6682.5	
445.84	5377.3	
446.04	5318.6	
446.24	6051.1	
446.44	7120.1	
446.65	4468	
446.85	4868	
447.05	6181.5	
447.25	7080.5	
447.45	4965	
447.65	4279.6	
447.85	6361.7	
448.05	6028.5	
448.25	5359.5	
448.46	5250.3	
448.66	6370.5	
448.86	6057.9	
449.06	4177.9	
449.26	5390.9	
449.46	6696.9	
449.66	5758.9	
449.86	4831.2	
450.06	4839.4	
450.26	5971.9	
450.47	6512.5	
450.67	5175.9	
450.87	5458.5	
451.07	6594.5	
451.27	6388.3	
451.47	4522.6	
451.67	4980	
451.87	6049.7	
452.07	7240.3	
452.27	4634.6	
452.47	4643.4	
452.67	6376.7	
452.88	6956.3	
453.08	4003.1	
453.28	6070.9	
453.48	7572	
453.68	6268.1	
453.88	4533.5	
454.08	4777.2	
454.28	6686.6	
454.48	6391.7	
454.68	5274.2	
454.88	5794.4	
455.08	6786.3	
455.28	6402	
455.48	4460.5	
455.68	5036.6	
455.89	7249.8	
456.09	6799.3	
456.29	4717.2	
456.49	4713.7	
456.69	7054.6	
456.89	6339.1	
457.09	5250.3	
457.29	5554.1	
457.49	6586.3	
457.69	6765.1	
457.89	5053.7	
458.09	4407.2	
458.29	6409.5	
458.49	7120.1	
458.69	5390.9	
458.89	4904.9	
459.09	7245.7	
459.29	7497.6	
459.49	4958.8	
459.69	5865.4	
459.9	6933.1	
460.1	6320	
460.3	4878.9	
460.5	4639.3	
460.7	6793.1	
460.9	6579.4	
461.1	4296	
461.3	5631.2	
461.5	7454.6	
461.7	7042.3	
461.9	4571.1	
462.1	5179.3	
462.3	6485.2	
462.5	7133.8	
462.7	4726	
462.9	4867.3	
463.1	8163.2	
463.3	7784.3	
463.5	4979.3	
463.7	5890.6	
463.9	6681.8	
464.1	7038.9	
464.3	5035.3	
464.5	5390.9	
464.7	7305.1	
464.9	6849.1	
465.1	6703	
465.3	5628.5	
465.5	7700.4	
465.7	7582.3	
465.9	5832.6	
466.1	5816.9	
466.3	7357	
466.5	7229.3	
466.7	6607.4	
466.9	5434.6	
467.1	7076.4	
467.3	8077.9	
467.5	6534.4	
467.7	5302.9	
467.9	8295	
468.1	9119.6	
468.3	6184.9	
468.5	6559	
468.7	7011.6	
468.9	7065.5	
469.1	5580.7	
469.3	6334.4	
469.5	9162.6	
469.7	6608.8	
469.9	6197.8	
470.1	5352.7	
470.3	7095.5	
470.5	7075	
470.7	6707.1	
470.9	5545.9	
471.1	6876.4	
471.3	7421.2	
471.5	5267.4	
471.69	7295.5	
471.89	6739.9	
472.09	6308.4	
472.29	6106.4	
472.49	6597.9	
472.69	6463.4	
472.89	7391.8	
473.09	5208.7	
473.29	5425.1	
473.49	6670.9	
473.69	6936.5	
473.89	6420.4	
474.09	5615.5	
474.29	8170.7	
474.49	7776.1	
474.69	6320	
474.89	5696.8	
475.09	6836.1	
475.29	6891.4	
475.49	5128.8	
475.69	5370.5	
475.88	8566	
476.08	7227.3	
476.28	5090.6	
476.48	5546.6	
476.68	7737.2	
476.88	7553.6	
477.08	5399.1	
477.28	5649	
477.48	6994.5	
477.68	7786.4	
477.88	5229.8	
478.08	5524.1	
478.28	7960.5	
478.48	7195.2	
478.67	5604.6	
478.87	5077.6	
479.07	7800.7	
479.27	7247.1	
479.47	5782.1	
479.67	5798.5	
479.87	7609.6	
480.07	8149.6	
480.27	5125.4	
480.47	6735.1	
480.67	7365.2	
480.87	7976.2	
481.06	5353.4	
481.26	6150.7	
481.46	7295.5	
481.66	7265.5	
481.86	5789.6	
482.06	6925.5	
482.26	6958.3	
482.46	8039.6	
482.66	5792.3	
482.86	5408.7	
483.05	7242.3	
483.25	6763.1	
483.45	8294.3	
483.65	5763.7	
483.85	6956.9	
484.05	7240.3	
484.25	6247	
484.45	6574	
484.65	8116.1	
484.84	8045.1	
485.04	5593.7	
485.24	5651	
485.44	8303.8	
485.64	6589.7	
485.84	4878.9	
486.04	6356.9	
486.24	6965.8	
486.44	7475.1	
486.63	4909	
486.83	5711.8	
487.03	6832.7	
487.23	7096.2	
487.43	4970.4	
487.63	7417.7	
487.83	7146	
488.02	8170	
488.22	5945.9	
488.42	6599.9	
488.62	8022.6	
488.82	6951.5	
489.02	5672.9	
489.22	5646.2	
489.41	7921.5	
489.61	7526.3	
489.81	5330.2	
490.01	5439.4	
490.21	7793.2	
490.41	8451.3	
490.61	5315.2	
490.8	5539.1	
491	7249.8	
491.2	6541.2	
491.4	6165.8	
491.6	5264	
491.8	7294.2	
491.99	7619.8	
492.19	5039.4	
492.39	5567.7	
492.59	7854.6	
492.79	7850.5	
492.99	6303	
493.18	5384.8	
493.38	7990.5	
493.58	8610.3	
493.78	6027.9	
493.98	5700.9	
494.18	7588.4	
494.37	6986.3	
494.57	6312.5	
494.77	6107.7	
494.97	7789.1	
495.17	7994.6	
495.37	5689.9	
495.56	6023.1	
495.76	8203.5	
495.96	7814.4	
496.16	6888	
496.36	5762.3	
496.55	7931.8	
496.75	7602.1	
496.95	6247.7	
497.15	6100.2	
497.35	7987.8	
497.54	7972.7	
497.74	5894.1	
497.94	7563.8	
498.14	8615.1	
498.34	8497	
498.53	5531.6	
498.73	6357.6	
498.93	7382.9	
499.13	7904.5	
499.33	6122.1	
499.52	6603.3	
499.72	7795.9	
499.92	8253.3	
500.12	5855.1	
500.32	6092.7	
500.51	8204.8	
500.71	7871	
500.91	6923.5	
501.11	6503.7	
501.31	8073.1	
501.5	8532.5	
501.7	7221.8	
501.9	6113.9	
502.1	7880.6	
502.29	8219.9	
502.49	6653.9	
502.69	7178.1	
502.89	8051.9	
503.09	8137.9	
503.28	5651.7	
503.48	5782.8	
503.68	7348.1	
503.88	7378.8	
504.07	6849.1	
504.27	6319.3	
504.47	7710.6	
504.67	7991.2	
504.86	6685.3	
505.06	6337.1	
505.26	7522.2	
505.46	9217.2	
505.65	6260	
505.85	6515.3	
506.05	7339.9	
506.25	7892.2	
506.44	5592.3	
506.64	6636.1	
506.84	7437.5	
507.04	8312.7	
507.23	5864	
507.43	6585.6	
507.63	9389.9	
507.83	7626	
508.02	6425.8	
508.22	6107	
508.42	9731.9	
508.62	7359	
508.81	6343.9	
509.01	6946.7	
509.21	7274.4	
509.4	7535.8	
509.6	6520	
509.8	5875.6	
510	7555.6	
510.19	9001.5	
510.39	5902.2	
510.59	5910.4	
510.79	7287.4	
510.98	8773.5	
511.18	6075.6	
511.38	6117.3	
511.57	8137.3	
511.77	7998.7	
511.97	6838.9	
512.17	5773.9	
512.36	8171.4	
512.56	8217.8	
512.76	5902.9	
512.95	5629.9	
513.15	8314.1	
513.35	6821.8	
513.55	6812.9	
513.74	5914.5	
513.94	8240.3	
514.14	7576.8	
514.33	6866.8	
514.53	6597.2	
514.73	7618.4	
514.92	7774.1	
515.12	6161.7	
515.32	5869.5	
515.51	7943.4	
515.71	8510.7	
515.91	7705.1	
516.11	6002.6	
516.3	9615.2	
516.5	7421.2	
516.7	6561	
516.89	7101.7	
517.09	7575.4	
517.29	7421.2	
517.48	6865.5	
517.68	6243.6	
517.88	7335.1	
518.07	7904.5	
518.27	6761.7	
518.47	5788.2	
518.66	8549.6	
518.86	7147.4	
519.06	5628.5	
519.25	6087.9	
519.45	7569.3	
519.65	8970.8	
519.84	6674.3	
520.04	7344.7	
520.24	9354.4	
520.43	8149.6	
520.63	6553.5	
520.83	6153.5	
521.02	7348.8	
521.22	8042.4	
521.42	6864.8	
521.61	7348.1	
521.81	7696.9	
522.01	7782.3	
522.2	6564.4	
522.4	6342.6	
522.6	8278.6	
522.79	7046.4	
522.99	6458.6	
523.18	5739.1	
523.38	8020.5	
523.58	7873.1	
523.77	7729	
523.97	5698.8	
524.17	9841.9	
524.36	9033.6	
524.56	7128.3	
524.76	6700.3	
524.95	7946.1	
525.15	7549.5	
525.34	6439.5	
525.54	6511.9	
525.74	8292.2	
525.93	7294.2	
526.13	7669.6	
526.33	6367.8	
526.52	8581	
526.72	8127.7	
526.91	7623.2	
527.11	6978.1	
527.31	8631.5	
527.5	9085.5	
527.7	6777.4	
527.89	5821	
528.09	7576.1	
528.29	8024.6	
528.48	7237.5	
528.68	6879.1	
528.87	8465.6	
529.07	8538	
529.27	6748.7	
529.46	6297.5	
529.66	8123.6	
529.85	8569.4	
530.05	6016.9	
530.25	6972	
530.44	9499.2	
530.64	8160.5	
530.83	6585.6	
531.03	6855.2	
531.23	8572.8	
531.42	8389.2	
531.62	7579.5	
531.81	6775.4	
532.01	8666.3	
532.21	9073.2	
532.4	6404	
532.6	6807.4	
532.79	9492.3	
532.99	8613.8	
533.18	6790.4	
533.38	7832.1	
533.58	8158.4	
533.77	8981	
533.97	6782.9	
534.16	7643	
534.36	9241.8	
534.55	8198	
534.75	7756.3	
534.95	6830.7	
535.14	8993.3	
535.34	8227.4	
535.53	6478.4	
535.73	8503.2	
535.92	9602.9	
536.12	8473.8	
536.31	6664.8	
536.51	7920.2	
536.71	8768.7	
536.9	8352.3	
537.1	6861.4	
537.29	6939.2	
537.49	9230.2	
537.68	8228.7	
537.88	7334.5	
538.07	6513.9	
538.27	8398.7	
538.46	9483.5	
538.66	6417	
538.86	6855.2	
539.05	8475.9	
539.25	8955.8	
539.44	7159.7	
539.64	6728.3	
539.83	8334.6	
540.03	9457.5	
540.22	6582.9	
540.42	6768.5	
540.61	8647.9	
540.81	8759.2	
541	7291.5	
541.2	7875.8	
541.39	8143.4	
541.59	8583	
541.78	7509.9	
541.98	6711.2	
542.18	7830.7	
542.37	7744.1	
542.57	7134.4	
542.76	7608.2	
542.96	7877.9	
543.15	8656.8	
543.35	7188.4	
543.54	6527.6	
543.74	9033.6	
543.93	8473.1	
544.13	7063.4	
544.32	8275.2	
544.52	8867	
544.71	8069.7	
544.91	6301.6	
545.1	7489.4	
545.3	8034.9	
545.49	8834.3	
545.69	6171.2	
545.88	6761.7	
546.08	9700.5	
546.27	9297.1	
546.47	7364.5	
546.66	6549.4	
546.86	9133.3	
547.05	9616.6	
547.24	6806.8	
547.44	6596.5	
547.63	8010.3	
547.83	9110.7	
548.02	7063.4	
548.22	7325.6	
548.41	7802.1	
548.61	9200.2	
548.8	6583.5	
549	6611.5	
549.19	8385.1	
549.39	8710.7	
549.58	6296.8	
549.78	6908.5	
549.97	8819.9	
550.17	8402.1	
550.36	7871	
550.55	8862.2	
550.75	8331.1	
550.94	9223.4	
551.14	6552.1	
551.33	7038.2	
551.53	7606.8	
551.72	8714.1	
551.92	7049.1	
552.11	6789.7	
552.31	8783.1	
552.5	8811	
552.69	8533.9	
552.89	6376	
553.08	8742.1	
553.28	8533.2	
553.47	6763.1	
553.67	8075.8	
553.86	9417.9	
554.06	7711.3	
554.25	5979.4	
554.44	6539.8	
554.64	10195	
554.83	9665	
555.03	6519.4	
555.22	6986.3	
555.42	8901.8	
555.61	8665.6	
555.8	6862.7	
556	7053.9	
556.19	7818.5	
556.39	9116.9	
556.58	6806.1	
556.78	6821.1	
556.97	8568.7	
557.16	8295	
557.36	8124.3	
557.55	6408.8	
557.75	7511.3	
557.94	9367.4	
558.13	6578.1	
558.33	6320	
558.52	9056.8	
558.72	7937.2	
558.91	6470.9	
559.1	6765.1	
559.3	7696.9	
559.49	7438.2	
559.69	6071.5	
559.88	7086.7	
560.07	8559.8	
560.27	8967.4	
560.46	7329	
560.66	7346.7	
560.85	8290.2	
561.04	7491.5	
561.24	6480.5	
561.43	6730.3	
561.63	7808.9	
561.82	8122.2	
562.01	7942	
562.21	6967.9	
562.4	8498.4	
562.59	9447.3	
562.79	6803.4	
562.98	6405.4	
563.18	8477.2	
563.37	9824.8	
563.56	7284.6	
563.76	6294.8	
563.95	7850.5	
564.14	7785	
564.34	6824.5	
564.53	6598.6	
564.73	8406.2	
564.92	8776.9	
565.11	6937.8	
565.31	6281.1	
565.5	9025.4	
565.69	7928.4	
565.89	6569.2	
566.08	6849.1	
566.27	8869.1	
566.47	9288.2	
566.66	7440.3	
566.85	6054.5	
567.05	8440.4	
567.24	7808.9	
567.44	6414.9	
567.63	7813	
567.82	8716.8	
568.02	8437.6	
568.21	6373.3	
568.4	6925.5	
568.6	8262.2	
568.79	8300.4	
568.98	6312.5	
569.18	6466.8	
569.37	8205.5	
569.56	10282	
569.76	6810.9	
569.95	7804.8	
570.14	8677.2	
570.34	8584.4	
570.53	6339.1	
570.72	6247	
570.91	9123.7	
571.11	8169.3	
571.3	6787.7	
571.49	7733.1	
571.69	8203.5	
571.88	7804.1	
572.07	7383.6	
572.27	7355.6	
572.46	7849.2	
572.65	8897.7	
572.85	6597.9	
573.04	6955.6	
573.23	9202.2	
573.43	8382.3	
573.62	6371.9	
573.81	7012.2	
574	8400.1	
574.2	8199.4	
574.39	6669.6	
574.58	6813.6	
574.78	9321.7	
574.97	8470.4	
575.16	7234.1	
575.36	7432.1	
575.55	8852.7	
575.74	8955.1	
575.93	6345.3	
576.13	7441	
576.32	8171.4	
576.51	8828.1	
576.71	6791.7	
576.9	8141.4	
577.09	9091.6	
577.28	8649.3	
577.48	7299.6	
577.67	6203.3	
577.86	8335.2	
578.05	8695.7	
578.25	6831.3	
578.44	7037.5	
578.63	8473.8	
578.83	9663.7	
579.02	6294.1	
579.21	7759.8	
579.4	8639	
579.6	8270.4	
579.79	7144.7	
579.98	9329.9	
580.17	9051.3	
580.37	9121	
580.56	6623.1	
580.75	7354.9	
580.94	9542.2	
581.14	9346.9	
581.33	7802.8	
581.52	6777.4	
581.71	8902.5	
581.91	9559.9	
582.1	6386.2	
582.29	6990.4	
582.48	8499.8	
582.68	8423.3	
582.87	7503.1	
583.06	7146.7	
583.25	8816.5	
583.45	8725	
583.64	7860.1	
583.83	8570.7	
584.02	8309.3	
584.21	8801.5	
584.41	7770.7	
584.6	7060	
584.79	8465.6	
584.98	9230.2	
585.18	6597.9	
585.37	6478.4	
585.56	8034.9	
585.75	8875.9	
585.94	6702.3	
586.14	7492.8	
586.33	9384.5	
586.52	8449.2	
586.71	7262.8	
586.91	7040.2	
587.1	7980.3	
587.29	8997.4	
587.48	6918.7	
587.67	6839.5	
587.87	8902.5	
588.06	8881.4	
588.25	8236.2	
588.44	7437.5	
588.63	8439.7	
588.83	9065	
589.02	6873	
589.21	6715.3	
589.4	8181.6	
589.59	8057.4	
589.78	5952.1	
589.98	6286.6	
590.17	7774.8	
590.36	8346.2	
590.55	5728.9	
590.74	6621.8	
590.94	9757.2	
591.13	8319.5	
591.32	6445	
591.51	5933	
591.7	8735.3	
591.89	8120.2	
592.09	6047.7	
592.28	6521.4	
592.47	7471	
592.66	9345.6	
592.85	5956.9	
593.05	6244.3	
593.24	8016.4	
593.43	8816.5	
593.62	6210.8	
593.81	6839.5	
594	8062.2	
594.19	8324.3	
594.39	6275.7	
594.58	6120.7	
594.77	8370.7	
594.96	8967.4	
595.15	6107	
595.34	6844.3	
595.54	8469.7	
595.73	7610.9	
595.92	5483.8	
596.11	6679.1	
596.3	8920.3	
596.49	7687.4	
596.68	6434.7	
596.88	6933.7	
597.07	8690.9	
597.26	7460.1	
597.45	5971.2	
597.64	7297.6	
597.83	7686.7	
598.02	8350.3	
598.22	6075.6	
598.41	6854.6	
598.6	8149.6	
598.79	7610.9	
598.98	6135.7	
599.17	7160.4	
599.36	8239.7	
599.55	9478.7	
599.74	8291.5	
599.94	8021.9	
600.13	8759.8	
600.32	7548.8	
600.51	5893.4	
600.7	6099.5	
600.89	9544.2	
601.08	9458.9	
601.27	5814.9	
601.47	6799.3	
601.66	8708	
601.85	9396.1	
602.04	6497.5	
602.23	6846.4	
602.42	7739.3	
602.61	8492.2	
602.8	6447	
602.99	6260	
603.18	8138.6	
603.37	8420.6	
603.57	6989	
603.76	7501	
603.95	9157.2	
604.14	8740	
604.33	6331.6	
604.52	6610.8	
604.71	8329.8	
604.9	7940.7	
605.09	7315.3	
605.28	7032	
605.47	8905.9	
605.66	8649.3	
605.86	6929.6	
606.05	6351.4	
606.24	8936.7	
606.43	7558.4	
606.62	6724.8	
606.81	7478.5	
607	8783.1	
607.19	8139.3	
607.38	6032	
607.57	6350.1	
607.76	7876.5	
607.95	7292.8	
608.14	6802	
608.33	7445	
608.52	7870.3	
608.72	8806.3	
608.91	6001.9	
609.1	5887.9	
609.29	8082	
609.48	7499.7	
609.67	6935.1	
609.86	5979.4	
610.05	7561.8	
610.24	7918.1	
610.43	5875.6	
610.62	5455.8	
610.81	9181.7	
611	8860.2	
611.19	5987.6	
611.38	6832	
611.57	8225.3	
611.76	9554.5	
611.95	5739.1	
612.14	5595.7	
612.33	8023.3	
612.52	7503.1	
612.71	6395.1	
612.9	5576.6	
613.09	7150.1	
613.28	9607.7	
613.47	6010.1	
613.66	7043.6	
613.85	8205.5	
614.04	7731.1	
614.24	6214.2	
614.43	5400.5	
614.62	8314.1	
614.81	8143.4	
615	6783.6	
615.19	6836.1	
615.38	7483.3	
615.57	7909.9	
615.76	6625.9	
615.95	7561.1	
616.14	8454.7	
616.33	8053.3	
616.52	6873	
616.71	7305.1	
616.9	8312.7	
617.09	8211.7	
617.28	6255.2	
617.47	7658	
617.66	7363.8	
617.85	7388.4	
618.04	7295.5	
618.22	6638.8	
618.41	7658	
618.6	8691.6	
618.79	6474.3	
618.98	6300.9	
619.17	8893	
619.36	7324.2	
619.55	6426.5	
619.74	6399.2	
619.93	8233.5	
620.12	7701.7	
620.31	6978.1	
620.5	7105.1	
620.69	9187.9	
620.88	9141.4	
621.07	7873.8	
621.26	6853.2	
621.45	8383	
621.64	8437.6	
621.83	6989	
622.02	6139.8	
622.21	8485.4	
622.4	8135.2	
622.59	7549.5	
622.78	7279.2	
622.97	7786.4	
623.16	8860.9	
623.35	6919.4	
623.54	6047.7	
623.72	8036.2	
623.91	8129.1	
624.1	7251.9	
624.29	5865.4	
624.48	9340.1	
624.67	8485.4	
624.86	7041.6	
625.05	6028.5	
625.24	9383.1	
625.43	7660.8	
625.62	8815.8	
625.81	6285.2	
626	8813.8	
626.19	7927	
626.38	7093.5	
626.56	6513.9	
626.75	7808.2	
626.94	8627.4	
627.13	7053.2	
627.32	5822.4	
627.51	8444.5	
627.7	9881.4	
627.89	5980.8	
628.08	7106.5	
628.27	7631.4	
628.46	7913.4	
628.65	6216.3	
628.83	5836.7	
629.02	8506.6	
629.21	7699.7	
629.4	6636.8	
629.59	6860.7	
629.78	7604.1	
629.97	8661.5	
630.16	6924.2	
630.35	6356.2	
630.54	9052	
630.72	8816.5	
630.91	6376.7	
631.1	6980.8	
631.29	8275.8	
631.48	8456.7	
631.67	7089.4	
631.86	6534.4	
632.05	7835.5	
632.24	8045.1	
632.42	6090	
632.61	6825.2	
632.8	8061.5	
632.99	7757.7	
633.18	6827.9	
633.37	7247.1	
633.56	8310	
633.75	8110	
633.93	6805.4	
634.12	6463.4	
634.31	9135.3	
634.5	8760.5	
634.69	6435.4	
634.88	7040.9	
635.07	8080.6	
635.25	8737.3	
635.44	7460.1	
635.63	7713.3	
635.82	7996.6	
636.01	7408.9	
636.2	7408.2	
636.39	7047.7	
636.57	9148.3	
636.76	8869.8	
636.95	6349.4	
637.14	7796.6	
637.33	8484.1	
637.52	9383.8	
637.7	6135	
637.89	7111.2	
638.08	7912	
638.27	9549	
638.46	7200	
638.65	7640.3	
638.83	9494.4	
639.02	7856.7	
639.21	7185	
639.4	7671	
639.59	8387.1	
639.78	7916.8	
639.96	6348	
640.15	6431.3	
640.34	8193.2	
640.53	8435.6	
640.72	6124.8	
640.91	6494.8	
641.09	7645.1	
641.28	9020.6	
641.47	6431.3	
641.66	7297.6	
641.85	8350.9	
642.03	8572.1	
642.22	7122.8	
642.41	6496.8	
642.6	7676.5	
642.79	7141.3	
642.97	6303	
643.16	7017.7	
643.35	7724.9	
643.54	7550.9	
643.73	6284.5	
643.91	7058	
644.1	7386.3	
644.29	8070.4	
644.48	6284.5	
644.67	6387.6	
644.85	7628.7	
645.04	7904.5	
645.23	5904.3	
645.42	6229.9	
645.6	7388.4	
645.79	8563.2	
645.98	6182.8	
646.17	5207.3	
646.36	7197.9	
646.54	7802.1	
646.73	7034.8	
646.92	5797.8	
647.11	7427.3	
647.29	8509.3	
647.48	5901.6	
647.67	5679	
647.86	8745.5	
648.05	8837.7	
648.23	6244.9	
648.42	7561.8	
648.61	8181.6	
648.8	7879.2	
648.98	5924.8	
649.17	6280.4	
649.36	7391.8	
649.55	6883.9	
649.73	5945.3	
649.92	6661.4	
650.11	7374.1	
650.3	7641.7	
650.48	6044.9	
650.67	5887.2	
650.86	7989.8	
651.05	6923.5	
651.23	6085.9	
651.42	6014.9	
651.61	7365.9	
651.79	7544.7	
651.98	6237.4	
652.17	5836	
652.36	7838.9	
652.54	6886	
652.73	5838.8	
652.92	5665.4	
653.11	8000	
653.29	8009.6	
653.48	5154.1	
653.67	6212.2	
653.85	7688.8	
654.04	8758.5	
654.23	6374.6	
654.42	5947.3	
654.6	7209.5	
654.79	7808.9	
654.98	5500.8	
655.16	6021.7	
655.35	6825.9	
655.54	6823.1	
655.73	5528.8	
655.91	5449	
656.1	7976.8	
656.29	6761	
656.47	5080.3	
656.66	6771.3	
656.85	7019.1	
657.03	7060	
657.22	5517.2	
657.41	5712.5	
657.59	7124.2	
657.78	6901	
657.97	5299.5	
658.16	6075	
658.34	7802.8	
658.53	8258.1	
658.72	6987.7	
658.9	7531.7	
659.09	7200.7	
659.28	7341.3	
659.46	5693.4	
659.65	5679.7	
659.84	7103	
660.02	7610.9	
660.21	5641.5	
660.4	5593	
660.58	8069.7	
660.77	7441.6	
660.96	6197.8	
661.14	5256.5	
661.33	8619.9	
661.52	8445.1	
661.7	5117.2	
661.89	9084.1	
662.08	6930.3	
662.26	6541.2	
662.45	5478.3	
662.64	5641.5	
662.82	7738.6	
663.01	6848.4	
663.2	5603.9	
663.38	6403.3	
663.57	7595.2	
663.75	7576.8	
663.94	5982.1	
664.13	7224.6	
664.31	6929	
664.5	7731.1	
664.69	6124.8	
664.87	6845	
665.06	6713.2	
665.25	7496.9	
665.43	7079.8	
665.62	7122.8	
665.8	7804.1	
665.99	7103.7	
666.18	5892	
666.36	6056.5	
666.55	7813	
666.74	7642.3	
666.92	5584.8	
667.11	7247.8	
667.29	7101	
667.48	7776.8	
667.67	6882.5	
667.85	5997.8	
668.04	7137.9	
668.22	7173.4	
668.41	5936.4	
668.6	6135.7	
668.78	6888	
668.97	7144	
669.15	6362.4	
669.34	5294	
669.53	7019.1	
669.71	7281.9	
669.9	5517.9	
670.08	6166.4	
670.27	6926.9	
670.46	7501.7	
670.64	6406	
670.83	6637.5	
671.01	6841.6	
671.2	7425.9	
671.38	5542.5	
671.57	5453.7	
671.76	8104.5	
671.94	8716.8	
672.13	5454.4	
672.31	6574	
672.5	7563.8	
672.69	6911.2	
672.87	5575.9	
673.06	5884.5	
673.24	7516	
673.43	7016.3	
673.61	6371.9	
673.8	5885.2	
673.98	7708.6	
674.17	7798.7	
674.36	6500.9	
674.54	6349.4	
674.73	7537.2	
674.91	7715.4	
675.1	6112.5	
675.28	5653.1	
675.47	7220.5	
675.65	7728.4	
675.84	5805.3	
676.03	6191	
676.21	6990.4	
676.4	6591.7	
676.58	6761	
676.77	6449.1	
676.95	8430.1	
677.14	6931.7	
677.32	5588.2	
677.51	5317.9	
677.69	7748.1	
677.88	6539.8	
678.06	5424.4	
678.25	5606	
678.44	7279.2	
678.62	6939.2	
678.81	5308.3	
678.99	6278.4	
679.18	8025.3	
679.36	7572	
679.55	5907.7	
679.73	6555.5	
679.92	7580.2	
680.1	6946.7	
680.29	7126.2	
680.47	5890	
680.66	6898.2	
680.84	7826.7	
681.03	5098.1	
681.21	6190.3	
681.4	6902.3	
681.58	6788.3	
681.77	5565	
681.95	5416.2	
682.14	7838.9	
682.32	8153	
682.51	6436.1	
682.69	5401.9	
682.88	6898.2	
683.06	7539.9	
683.25	6214.9	
683.43	6793.1	
683.62	7096.2	
683.8	7577.5	
683.99	6671.6	
684.17	5941.2	
684.36	8406.9	
684.54	7023.2	
684.73	5124.7	
684.91	5359.5	
685.1	7328.3	
685.28	6716.7	
685.46	5971.2	
685.65	6062.7	
685.83	7667.6	
686.02	6974.7	
686.2	5481	
686.39	5592.3	
686.57	6582.2	
686.76	8279.3	
686.94	5401.2	
687.13	5614.2	
687.31	7545.4	
687.5	6965.8	
687.68	5087.2	
687.86	6353.5	
688.05	8645.2	
688.23	6392.4	
688.42	6449.1	
688.6	5479.7	
688.79	6855.9	
688.97	6907.8	
689.16	5976.7	
689.34	4816.8	
689.52	7688.1	
689.71	7863.5	
689.89	6186.2	
690.08	5495.4	
690.26	7135.1	
690.45	6972	
690.63	6461.3	
690.81	5703.6	
691	6759.7	
691.18	6767.2	
691.37	5797.8	
691.55	8191.9	
691.74	6798.6	
691.92	8944.8	
692.1	5867.4	
692.29	5297.4	
692.47	7012.2	
692.66	6262	
692.84	5434.6	
693.02	6157.6	
693.21	6436.8	
693.39	6987.7	
693.58	6162.3	
693.76	5589.6	
693.94	8205.5	
694.13	7992.5	
694.31	5590.3	
694.5	6621.8	
694.68	6850.5	
694.86	7107.8	
695.05	5896.1	
695.23	6109.8	
695.42	7464.2	
695.6	9899.2	
695.78	6565.1	
695.97	5696.1	
696.15	7544.7	
696.34	6868.2	
696.52	5382.7	
696.7	6188.3	
696.89	7268.2	
697.07	6634.7	
697.25	6119.3	
697.44	7746.1	
697.62	7188.4	
697.81	7633.5	
697.99	5830.6	
698.17	6296.8	
698.36	6522.8	
698.54	7230	
698.72	6118.6	
698.91	5139.7	
699.09	6916.7	
699.28	6718.7	
699.46	5816.2	
699.64	5621	
699.83	6668.9	
700.01	8023.3	
700.19	6522.8	
700.38	4900.8	
700.56	7959.8	
700.74	6725.5	
700.93	5255.1	
701.11	6152.1	
701.29	7391.8	
701.48	8389.2	
701.66	5539.1	
701.84	5498.8	
702.03	6847.7	
702.21	7578.2	
702.39	5068.7	
702.58	5704.3	
702.76	7252.5	
702.94	7443	
703.13	5106.3	
703.31	7629.4	
703.49	6598.6	
703.68	7565.2	
703.86	5302.9	
704.04	6320	
704.23	7079.8	
704.41	7522.2	
704.59	5435.3	
704.78	6759.7	
704.96	8262.2	
705.14	7595.2	
705.33	5201.8	
705.51	6102.3	
705.69	6907.1	
705.87	7769.3	
706.06	6367.8	
706.24	5177.9	
706.42	7227.3	
706.61	7492.8	
706.79	6371.9	
706.97	5317.9	
707.16	6730.3	
707.34	7291.5	
707.52	6328.2	
707.7	5498.1	
707.89	6969.2	
708.07	6460.7	
708.25	6376.7	
708.44	6448.4	
708.62	6737.8	
708.8	7988.4	
708.98	6684.6	
709.17	5544.5	
709.35	7201.3	
709.53	7215.7	
709.72	5282.4	
709.9	5376.6	
710.08	7452.6	
710.26	7521.5	
710.45	6969.9	
710.63	5616.9	
710.81	7058	
710.99	7134.4	
711.18	6252.4	
711.36	5757.5	
711.54	6905.8	
711.72	7691.5	
711.91	5773.2	
712.09	5146.5	
712.27	7048.4	
712.45	7695.6	
712.64	6010.1	
712.82	4909.7	
713	6448.4	
713.18	6562.4	
713.37	5067.4	
713.55	6384.9	
713.73	7488.7	
713.91	5977.3	
714.1	5382.1	
714.28	4913.1	
714.46	7167.9	
714.64	6350.8	
714.83	4285	
715.01	5242.1	
715.19	6440.9	
715.37	5827.2	
715.55	4908.3	
715.74	5232.6	
715.92	7402.7	
716.1	5319.3	
716.28	6368.5	
716.47	5451	
716.65	6096.8	
716.83	6186.2	
717.01	5267.4	
717.19	5358.2	
717.38	8298.4	
717.56	5795.8	
717.74	5610.8	
717.92	4668.7	
718.1	7213.6	
718.29	6332.3	
718.47	4293.2	
718.65	5009.3	
718.83	6978.8	
719.01	6892.8	
719.2	4080.9	
719.38	5265.3	
719.56	6688	
719.74	8189.8	
719.92	4747.2	
720.11	5849.7	
720.29	6643.6	
720.47	5593.7	
720.65	4218.8	
720.83	5218.2	
721.02	6106.4	
721.2	5849.7	
721.38	5335.6	
721.56	4585.4	
721.74	5343.8	
721.92	5581.4	
722.11	5902.9	
722.29	5491.3	
722.47	6853.2	
722.65	6010.8	
722.83	4605.9	
723.01	5531.6	
723.2	6078.4	
723.38	6399.9	
723.56	3986	
723.74	5208.7	
723.92	5512.4	
724.1	6832.7	
724.29	4449.6	
724.47	5703.6	
724.65	5607.3	
724.83	5565.7	
725.01	4354	
725.19	5378.6	
725.37	5673.6	
725.56	5728.2	
725.74	4201.7	
725.92	4471.4	
726.1	5614.8	
726.28	5922	
726.46	4984.8	
726.64	4617.5	
726.83	5822.4	
727.01	6113.2	
727.19	4221.5	
727.37	5014.1	
727.55	5951.4	
727.73	6539.2	
727.91	4214	
728.09	3970.3	
728.28	6548.7	
728.46	7229.3	
728.64	5302.2	
728.82	5177.3	
729	7776.8	
729.18	6860	
729.36	4358.8	
729.54	6851.1	
729.72	7979.6	
729.91	6148.7	
730.09	6376	
730.27	5075.5	
730.45	6014.9	
730.63	6778.8	
730.81	5694	
730.99	4683.7	
731.17	7277.1	
731.35	5738.4	
731.53	5230.5	
731.71	4825	
731.9	7022.5	
732.08	7191.1	
732.26	5137.7	
732.44	4717.2	
732.62	7245	
732.8	6625.9	
732.98	5587.5	
733.16	4465.9	
733.34	6735.1	
733.52	5442.1	
733.7	5079.6	
733.88	5388.9	
734.07	6584.2	
734.25	6268.1	
734.43	4510.3	
734.61	6178	
734.79	7823.2	
734.97	6125.5	
735.15	4616.8	
735.33	5057.1	
735.51	6539.8	
735.69	6189.6	
735.87	6240.2	
736.05	5214.8	
736.23	6384.2	
736.41	6172.6	
736.59	5075.5	
736.77	5162.9	
736.95	6836.1	
737.13	6244.9	
737.32	4712.4	
737.5	4973.8	
737.68	7392.5	
737.86	6115.2	
738.04	4523.3	
738.22	6555.5	
738.4	5932.3	
738.58	6290.7	
738.76	5261.2	
738.94	4097.3	
739.12	6133	
739.3	5905.7	
739.48	5925.5	
739.66	5622.4	
739.84	6408.1	
740.02	6326.2	
740.2	4229.1	
740.38	4637.3	
740.56	6784.9	
740.74	5588.9	
740.92	5321.3	
741.1	5221.6	
741.28	6220.4	
741.46	6029.2	
741.64	4796.3	
741.82	5439.4	
742	6240.2	
742.18	6160.3	
742.36	5159.5	
742.54	4625	
742.72	6892.8	
742.9	5545.9	
743.08	5500.8	
743.26	4229.7	
743.44	7178.8	
743.62	6896.2	
743.8	5661.3	
743.98	4672.8	
744.16	6596.5	
744.34	6264.7	
744.52	5551.4	
744.7	5597.1	
744.88	6722.1	
745.06	6283.9	
745.24	5591	
745.42	5727.5	
745.6	6868.2	
745.78	6561	
745.96	4397	
746.14	4717.8	
746.32	7637.6	
746.5	6875	
746.68	5357.5	
746.86	4778.6	
747.03	7308.5	
747.21	5532.2	
747.39	5328.8	
747.57	4802.5	
747.75	6504.3	
747.93	6868.2	
748.11	4843.4	
748.29	4668.7	
748.47	8099.7	
748.65	6187.6	
748.83	5467.4	
749.01	5233.2	
749.19	6761	
749.37	5840.8	
749.55	5126.1	
749.73	5269.4	
749.91	6344.6	
750.09	6028.5	
750.26	5313.8	
750.44	4592.2	
750.62	6435.4	
750.8	6325.5	
750.98	4489.8	
751.16	4835.3	
751.34	6415.6	
751.52	5742.5	
751.7	5733.6	
751.88	4450.2	
752.06	6967.9	
752.24	6745.3	
752.42	4439.3	
752.59	4769.7	
752.77	6352.1	
752.95	7662.1	
753.13	5655.8	
753.31	4952.7	
753.49	6085.9	
753.67	6526.2	
753.85	5280.3	
754.03	4822.3	
754.21	6826.6	
754.38	7188.4	
754.56	5000.5	
754.74	3964.2	
754.92	5961.6	
755.1	6799.9	
755.28	4014.7	
755.46	4035.9	
755.64	7409.6	
755.82	7550.9	
755.99	4252.3	
756.17	4382	
756.35	4935.6	
756.53	6597.9	
756.71	3261	
756.89	4218.1	
757.07	6146.6	
757.25	5272.2	
757.42	4838.7	
757.6	5708.4	
757.78	6352.8	
757.96	5189.6	
758.14	4489.8	
758.32	3999.7	
758.5	4722.6	
758.67	5586.9	
758.85	4296.6	
759.03	4410.6	
759.21	5816.9	
759.39	5180.7	
759.57	3861.8	
759.75	5132.9	
759.92	6504.3	
760.1	5739.1	
760.28	5525.4	
760.46	5765.7	
760.64	5511.1	
760.82	5311.7	
760.99	5087.2	
761.17	4462.5	
761.35	6382.2	
761.53	5353.4	
761.71	4664.6	
761.89	5395.7	
762.06	6319.3	
762.24	5789.6	
762.42	4771.1	
762.6	4571.7	
762.78	5780.1	
762.96	5780.1	
763.13	5137.7	
763.31	4807.3	
763.49	6696.2	
763.67	5724.1	
763.85	5695.4	
764.02	6248.4	
764.2	6982.9	
764.38	6130.9	
764.56	4696.7	
764.74	5610.8	
764.91	7096.9	
765.09	5941.8	
765.27	4329.4	
765.45	4185.4	
765.63	7178.1	
765.8	6892.8	
765.98	3923.2	
766.16	4310.3	
766.34	5483.1	
766.52	5304.2	
766.69	5240.1	
766.87	4093.2	
767.05	5987.6	
767.23	6736.5	
767.41	4427.7	
767.58	4685.1	
767.76	6490.7	
767.94	6578.8	
768.12	4476.2	
768.29	5395.7	
768.47	6034	
768.65	6847.7	
768.83	4102.1	
769	5286.5	
769.18	5539.8	
769.36	6315.3	
769.54	5170.4	
769.72	4179.9	
769.89	6630	
770.07	6724.8	
770.25	4530.1	
770.43	5864.7	
770.6	7303.1	
770.78	7690.1	
770.96	4722.6	
771.14	5395.7	
771.31	6467.5	
771.49	5793	
771.67	3873.4	
771.85	4142.4	
772.02	5029.1	
772.2	5795.8	
772.38	4881	
772.55	4308.2	
772.73	6135	
772.91	5803.9	
773.09	4747.2	
773.26	4811.4	
773.44	6091.3	
773.62	5709.7	
773.8	4243.4	
773.97	3887.7	
774.15	6175.3	
774.33	5674.9	
774.5	4095.3	
774.68	4512.4	
774.86	6301.6	
775.04	5713.8	
775.21	4128	
775.39	4170.3	
775.57	6002.6	
775.74	6427.2	
775.92	3990.1	
776.1	3936.2	
776.27	5958.9	
776.45	7268.9	
776.63	4197	
776.81	3695.2	
776.98	5606	
777.16	6750.8	
777.34	4407.9	
777.51	4289.1	
777.69	5596.4	
777.87	5386.2	
778.04	4392.2	
778.22	5016.2	
778.4	5362.9	
778.57	6021.7	
778.75	3580.5	
778.93	3941.7	
779.1	5137	
779.28	5013.4	
779.46	3599	
779.64	4119.1	
779.81	6267.5	
779.99	7193.8	
780.17	4958.8	
780.34	5098.8	
780.52	5684.5	
780.69	5857.2	
780.87	4420.2	
781.05	3995.6	
781.22	5756.8	
781.4	5808.7	
781.58	4162.8	
781.75	3288.4	
781.93	5784.8	
782.11	5143.1	
782.28	5122	
782.46	4118.5	
782.64	4965	
782.81	5967.1	
782.99	4268.6	
783.17	4169.7	
783.34	5838.8	
783.52	4980	
783.69	4440.7	
783.87	5322	
784.05	5172.5	
784.22	5135.6	
784.4	5254.4	
784.58	4534.9	
784.75	6089.3	
784.93	5109.7	
785.1	4163.5	
785.28	4842.1	
785.46	5754.8	
785.63	5102.9	
785.81	4075.5	
785.99	3947.1	
786.16	5261.2	
786.34	5712.5	
786.51	3971	
786.69	4378.6	
786.87	4840	
787.04	5339.1	
787.22	3842	
787.39	4830.5	
787.57	5076.9	
787.75	6263.4	
787.92	5064.6	
788.1	5022.3	
788.27	5135.6	
788.45	4920.6	
788.63	4648.9	
788.8	3330	
788.98	5651	
789.15	4863.2	
789.33	3517	
789.5	4188.1	
789.68	6011.5	
789.86	6193.1	
790.03	4646.2	
790.21	4022.9	
790.38	6015.6	
790.56	5259.9	
790.73	3893.2	
790.91	3902.1	
791.09	5095.3	
791.26	5858.6	
791.44	4098.7	
791.61	3577.1	
791.79	5101.5	
791.96	5176.6	
792.14	3633.1	
792.32	3223.5	
792.49	5119.9	
792.67	5214.1	
792.84	3771.7	
793.02	3497.9	
793.19	5585.5	
793.37	6423.8	
793.54	3208.5	
793.72	3620.1	
793.89	6544.6	
794.07	5119.2	
794.25	4210.6	
794.42	3300	
794.6	6229.9	
794.77	5882.4	
794.95	4470	
795.12	3936.9	
795.3	5082.4	
795.47	5819.6	
795.65	4341.7	
795.82	4204.5	
796	4906.3	
796.17	6942.6	
796.35	4024.3	
796.52	4790.2	
796.7	5625.8	
796.87	5829.2	
797.05	5025	
797.22	4923.3	
797.4	5719.3	
797.57	6816.3	
797.75	4156	
797.92	3857	
798.1	6009.4	
798.27	5069.4	
798.45	3325.9	
798.62	3609.9	
798.8	5414.8	
798.97	5930.9	
799.15	4410.6	
799.32	4136.2	
799.5	4655	
799.67	5471.5	
799.85	4554.7	
800.02	3284.9	
800.2	5023.7	
800.37	5386.2	
800.55	4734.2	
800.72	3938.2	
800.9	5871.5	
801.07	6384.9	
801.25	5350	
801.42	4302.8	
801.6	5962.3	
801.77	5651.7	
801.95	3856.3	
802.12	3815.4	
802.29	5685.2	
802.47	5574.6	
802.64	4274.1	
802.82	3234.4	
802.99	5067.4	
803.17	6094.8	
803.34	4179.2	
803.52	3725.9	
803.69	6781.5	
803.87	4858.5	
804.04	4133.5	
804.21	4283	
804.39	6227.2	
804.56	5330.9	
804.74	3556.6	
804.91	4358.1	
805.09	5131.5	
805.26	5178.6	
805.44	3547.1	
805.61	3912.3	
805.78	5819.6	
805.96	5798.5	
806.13	4312.3	
806.31	4666.6	
806.48	4605.9	
806.66	5220.3	
806.83	4362.2	
807	4234.5	
807.18	5027.8	
807.35	5506.3	
807.53	4136.2	
807.7	3325.9	
807.87	6311.2	
808.05	5175.9	
808.22	4607.2	
808.4	3328.6	
808.57	5151.3	
808.74	4775.9	
808.92	3837.9	
809.09	4829.8	
809.27	4919.2	
809.44	5665.4	
809.61	3343.7	
809.79	3781.9	
809.96	6279.8	
810.14	5952.1	
810.31	3292.5	
810.48	4009.9	
810.66	5229.1	
810.83	6059.3	
811.01	3822.2	
811.18	4542.4	
811.35	5843.5	
811.53	4618.9	
811.7	4674.1	
811.87	4312.3	
812.05	5117.9	
812.22	5033.2	
812.39	3697.3	
812.57	3634.5	
812.74	5147.2	
812.92	6904.4	
813.09	4000.4	
813.26	4461.8	
813.44	6633.4	
813.61	5046.2	
813.78	3425.6	
813.96	4502.1	
814.13	5081.7	
814.3	4742.4	
814.48	4848.9	
814.65	4059.1	
814.82	6442.9	
815	4913.8	
815.17	4130.8	
815.34	5100.1	
815.52	5046.2	
815.69	5063.3	
815.87	4062.5	
816.04	3551.2	
816.21	5127.4	
816.38	4466.6	
816.56	3985.3	
816.73	3702	
816.9	6474.3	
817.08	5867.4	
817.25	3680.2	
817.42	4762.2	
817.6	4645.5	
817.77	5117.2	
817.94	4245.4	
818.12	3721.2	
818.29	4827.1	
818.46	7673.1	
818.64	3799	
818.81	3609.2	
818.98	4765.6	
819.16	6950.8	
819.33	4495.3	
819.5	4126.7	
819.67	5504.3	
819.85	6158.2	
820.02	4045.4	
820.19	4349.2	
820.37	5320.6	
820.54	4937	
820.71	4205.2	
820.88	5190.9	
821.06	5347.2	
821.23	4889.2	
821.4	4239.3	
821.58	4176.5	
821.75	5922.7	
821.92	5266	
822.09	3334.8	
822.27	3709.6	
822.44	5174.5	
822.61	5053	
822.79	3452.2	
822.96	6551.5	
823.13	5646.2	
823.3	4876.9	
823.48	3940.3	
823.65	3570.3	
823.82	5855.1	
823.99	4648.9	
824.17	5005.2	
824.34	3571	
824.51	6793.8	
824.68	5212.1	
824.86	3758.7	
825.03	4209.3	
825.2	5066	
825.37	6255.2	
825.55	3672	
825.72	4131.4	
825.89	6886.6	
826.06	6369.9	
826.24	4076.1	
826.41	4079.6	
826.58	6184.9	
826.75	5410.7	
826.92	3192.1	
827.1	3549.1	
827.27	8614.4	
827.44	6878.4	
827.61	3885	
827.79	4660.5	
827.96	4869.4	
828.13	5271.5	
828.3	4005.8	
828.47	3383.9	
828.65	5346.6	
828.82	5306.3	
828.99	5279	
829.16	4562.2	
829.34	5735.7	
829.51	5487.2	
829.68	4137.6	
829.85	4402.5	
830.02	6092	
830.2	5737	
830.37	3231.7	
830.54	4997.7	
830.71	6602	
830.88	5134.3	
831.05	3267.2	
831.23	3728.7	
831.4	6268.8	
831.57	7032.7	
831.74	3870	
831.91	3405.1	
832.09	5387.5	
832.26	5778.7	
832.43	3991.5	
832.6	4504.8	
832.77	5414.1	
832.94	6157.6	
833.12	3142.9	
833.29	3967.6	
833.46	5332.9	
833.63	7329	
833.8	4397	
833.97	4022.9	
834.15	5786.9	
834.32	5544.5	
834.49	4126	
834.66	4215.4	
834.83	6048.3	
835	4856.4	
835.17	3874.8	
835.35	3888.4	
835.52	5651	
835.69	5554.1	
835.86	4103.4	
836.03	3356.6	
836.2	5694	
836.37	5321.3	
836.55	3949.8	
836.72	3789.4	
836.89	5302.2	
837.06	5752.7	
837.23	4099.4	
837.4	4512.4	
837.57	6582.2	
837.75	7316	
837.92	3642.7	
838.09	3891.1	
838.26	5249.6	
838.43	6070.2	
838.6	4236.6	
838.77	3718.4	
838.94	6886	
839.11	6645.7	
839.29	4009.2	
839.46	3114.3	
839.63	5737	
839.8	5457.8	
839.97	3852.2	
840.14	3867.9	
840.31	5511.1	
840.48	5732.9	
840.65	3264.5	
840.82	3781.9	
841	5746.6	
841.17	5717.2	
841.34	3571	
841.51	3693.2	
841.68	5634.6	
841.85	5453.7	
842.02	3646.1	
842.19	3024.2	
842.36	5483.8	
842.53	5482.4	
842.7	3575.1	
842.87	4382	
843.05	7251.9	
843.22	5386.8	
843.39	3403.7	
843.56	3691.1	
843.73	5170.4	
843.9	5818.3	
844.07	5870.8	
844.24	4840	
844.41	8533.2	
844.58	4976.6	
844.75	3446	
844.92	3777.1	
845.09	5789.6	
845.26	5739.8	
845.43	3474	
845.6	3749.1	
845.77	5732.9	
845.94	5482.4	
846.12	3944.4	
846.29	4153.3	
846.46	5940.5	
846.63	5729.5	
846.8	3543.7	
846.97	4240	
847.14	6257.9	
847.31	5627.8	
847.48	4007.9	
847.65	4394.3	
847.82	6030.6	
847.99	6071.5	
848.16	4782	
848.33	4382	
848.5	5284.4	
848.67	6234	
848.84	3519.8	
849.01	3706.8	
849.18	5114.5	
849.35	4791.6	
849.52	4497.3	
849.69	3479.5	
849.86	5926.8	
850.03	6184.9	
850.2	3525.2	
850.37	4301.4	
850.54	6024.4	
850.71	5413.5	
850.88	4325.3	
851.05	3491.8	
851.22	5650.3	
851.39	6376.7	
851.56	3283.6	
851.73	4100.7	
851.9	5033.2	
852.07	5966.4	
852.24	3991.5	
852.41	3524.6	
852.58	5542.5	
852.75	5099.4	
852.92	4011.3	
853.09	3458.3	
853.26	5345.9	
853.43	6282.5	
853.6	3510.2	
853.77	3007.1	
853.94	6307.7	
854.11	5041.4	
854.28	5287.9	
854.44	3870.7	
854.61	6787	
854.78	5827.2	
854.95	3570.3	
855.12	4485.7	
855.29	4613.4	
855.46	6412.9	
855.63	3538.9	
855.8	4896.7	
855.97	5233.9	
856.14	6064.7	
856.31	5031.2	
856.48	3872.7	
856.65	5298.1	
856.82	4997	
856.99	3368.2	
857.16	3837.2	
857.33	7108.5	
857.49	5386.8	
857.66	3795.6	
857.83	4111.6	
858	5329.5	
858.17	5536.3	
858.34	3324.5	
858.51	3497.9	
858.68	6459.3	
858.85	6493.4	
859.02	4095.3	
859.19	4412	
859.36	4994.3	
859.52	5068	
859.69	3504.1	
859.86	4172.4	
860.03	5095.3	
860.2	6298.9	
860.37	3221.5	
860.54	3585.3	
860.71	5984.2	
860.88	6336.4	
861.05	3999	
861.21	4433.9	
861.38	6399.9	
861.55	4889.9	
861.72	3269.2	
861.89	3943	
862.06	6029.9	
862.23	6519.4	
862.4	3452.2	
862.56	3684.3	
862.73	5834.7	
862.9	5535.7	
863.07	4151.2	
863.24	3200.3	
863.41	4919.2	
863.58	5044.1	
863.75	3618.1	
863.91	4143	
864.08	6315.3	
864.25	5840.8	
864.42	4473.4	
864.59	5008	
864.76	6707.1	
864.93	5027.8	
865.09	3444.7	
865.26	3839.3	
865.43	6260	
865.6	6651.8	
865.77	3074	
865.94	3538.9	
866.1	6324.8	
866.27	6038.8	
866.44	5344.5	
866.61	3351.8	
866.78	5441.5	
866.95	5848.3	
867.11	3448.1	
867.28	3101.3	
867.45	6058.6	
867.62	5043.5	
867.79	4220.2	
867.96	3550.5	
868.12	5061.9	
868.29	6049.7	
868.46	3074	
868.63	4700.8	
868.8	6229.9	
868.97	5898.1	
869.13	3726.6	
869.3	3678.8	
869.47	5877.7	
869.64	6027.9	
869.81	3581.9	
869.97	3512.3	
870.14	5754.8	
870.31	6394.4	
870.48	3407.8	
870.65	4526	
870.81	5368.4	
870.98	5320.6	
871.15	4056.3	
871.32	3621.5	
871.48	5824.4	
871.65	6488	
871.82	3504.1	
871.99	3915.7	
872.16	6983.6	
872.32	6307.7	
872.49	3568.2	
872.66	3601	
872.83	5945.9	
872.99	5248.9	
873.16	4104.1	
873.33	3496.6	
873.5	5637.4	
873.67	5590.3	
873.83	3726.6	
874	4793.6	
874.17	5769.1	
874.34	6838.9	
874.5	4574.5	
874.67	4404.5	
874.84	6419.7	
875.01	5016.2	
875.17	5074.9	
875.34	3511.6	
875.51	5640.1	
875.68	6875.7	
875.84	4324.6	
876.01	5251	
876.18	5939.8	
876.34	5799.8	
876.51	3583.3	
876.68	3489.1	
876.85	5435.3	
877.01	6256.5	
877.18	5151.3	
877.35	3508.2	
877.52	5544.5	
877.68	4975.9	
877.85	3442	
878.02	3445.4	
878.18	5550.7	
878.35	5257.1	
878.52	2845.3	
878.69	3906.8	
878.85	5971.2	
879.02	5928.2	
879.19	5031.2	
879.35	3807.2	
879.52	5944.6	
879.69	6122.1	
879.86	2988.7	
880.02	4020.8	
880.19	5474.9	
880.36	6582.9	
880.52	4089.8	
880.69	4184	
880.86	6041.5	
881.02	6126.2	
881.19	3914.4	
881.36	3894.6	
881.52	5894.1	
881.69	5244.2	
881.86	3824.2	
882.02	3756.7	
882.19	6192.4	
882.36	7309.9	
882.52	3631	
882.69	5058.5	
882.86	5681.7	
883.02	5596.4	
883.19	4289.8	
883.36	4045.4	
883.52	6088.6	
883.69	6998.6	
883.86	3571	
884.02	3162.1	
884.19	6024.4	
884.36	5465.3	
884.52	4027	
884.69	3721.2	
884.86	5275.6	
885.02	6602	
885.19	3980.6	
885.36	4127.3	
885.52	5527.5	
885.69	5692.7	
885.86	5202.5	
886.02	4557.4	
886.19	5967.8	
886.35	5362.3	
886.52	3929.4	
886.69	4975.9	
886.85	5019.6	
887.02	6423.1	
887.19	6423.1	
887.35	6423.1	
887.52	6423.1	
887.68	6423.1	
887.85	6423.1	
888.02	6423.1	
888.18	6423.1	
888.35	6423.1	
888.51	6423.1	
888.68	6423.1	
888.85	6423.1	
889.01	6423.1	
889.18	6423.1	
889.35	6423.1	
889.51	6423.1	
889.68	6423.1	
889.84	6423.1	
890.01	6423.1	
890.17	6423.1	
890.34	6423.1	
890.51	6423.1	
890.67	6423.1	
890.84	6423.1	
891	6423.1	
891.17	6423.1	
891.34	6423.1	
891.5	6423.1	
891.67	6423.1	
891.83	6423.1	
892	6423.1	
892.16	6423.1	
892.33	6423.1	
892.5	6423.1	
892.66	6423.1	
892.83	6423.1	
892.99	6423.1	
893.16	6423.1	
893.32	6423.1	
893.49	6423.1	
893.65	6423.1	
893.82	6423.1	
893.99	6423.1	
894.15	6423.1	
894.32	6423.1	
894.48	6423.1	
894.65	6423.1	
894.81	6423.1	
894.98	6423.1	
895.14	6423.1	
895.31	6423.1	
895.47	6423.1	
895.64	6423.1	
895.81	6423.1	
895.97	6423.1	
896.14	6423.1	
896.3	6423.1	
896.47	6423.1	
896.63	6423.1	
896.8	6423.1	
896.96	6423.1	
897.13	6423.1	
897.29	6423.1	
897.46	6423.1	
897.62	6423.1	
897.79	6423.1	
897.95	6423.1	
898.12	6423.1	
898.28	6423.1	
898.45	6423.1	
898.61	6423.1	
898.78	6423.1	
898.94	6423.1	
899.11	6423.1	
899.27	6423.1	
899.44	6423.1	
899.6	6423.1	
899.77	6423.1	
899.93	6423.1	
900.1	6423.1	
900.26	6423.1	
900.43	6423.1	
900.59	6423.1	
900.76	6423.1	
900.92	6423.1	
901.09	6423.1	
901.25	6423.1	
901.42	6423.1	
901.58	6423.1	
901.75	6423.1	
901.91	6423.1	
902.07	6423.1	
902.24	6423.1	
902.4	6423.1	
902.57	6423.1	
902.73	6423.1	
902.9	6423.1	
903.06	6423.1	
903.23	6423.1	
903.39	6423.1	
903.56	6423.1	
903.72	6423.1	
903.88	6423.1	
904.05	6423.1	
904.21	6423.1	
904.38	6423.1	
904.54	6423.1	
904.71	6423.1	
904.87	6423.1	
905.03	6423.1	
905.2	6423.1	
905.36	6423.1	
905.53	6423.1	
905.69	6423.1	
905.86	6423.1	
906.02	6423.1	
906.18	6423.1	
906.35	6423.1	
906.51	6423.1	
906.68	6423.1	
906.84	6423.1	
907.01	6423.1	
907.17	6423.1	
907.33	6423.1	
907.5	6423.1	
907.66	6423.1	
907.83	6423.1	
907.99	6423.1	
908.15	6423.1	
908.32	6423.1	
908.48	6423.1	
908.65	6423.1	
908.81	6423.1	
908.97	6423.1	
909.14	6423.1	
909.3	6423.1	
909.47	6423.1	
909.63	6423.1	
909.79	6423.1	
909.96	6423.1	
910.12	6423.1	
910.28	6423.1	
910.45	6423.1	
910.61	6423.1	
910.78	6423.1	
910.94	6423.1	
911.1	6423.1	
911.27	6423.1	
911.43	6423.1	
911.59	6423.1	
911.76	6423.1	
911.92	6423.1	
912.08	6423.1	
912.25	6423.1	
912.41	6423.1	
912.57	6423.1	
912.74	6423.1	
912.9	6423.1	
913.07	6423.1	
913.23	6423.1	
913.39	6423.1	
913.56	6423.1	
913.72	6423.1	
913.88	6423.1	
914.05	6423.1	
914.21	6423.1	
914.37	6423.1	
914.54	6423.1	
914.7	6423.1	
914.86	6423.1	
915.03	6423.1	
915.19	6423.1	
