Wavelength	Intensities	
nm	a.u.	
179.22	1960.2	
179.44	1958.5	
179.65	1962	
179.86	1955.1	
180.08	1938.1	
180.29	5126.7	
180.51	3655.6	
180.72	5779.4	
180.94	6835.4	
181.15	3339.6	
181.37	3278.1	
181.58	5701.5	
181.79	6008.1	
182.01	3506.8	
182.22	3784.6	
182.44	5908.4	
182.65	4926	
182.87	4754.7	
183.08	4137.6	
183.29	6252.4	
183.51	5131.5	
183.72	3806.5	
183.94	5495.4	
184.15	5483.8	
184.37	5571.8	
184.58	3308.2	
184.79	4528.7	
185.01	5119.9	
185.22	5930.9	
185.44	4873.5	
185.65	4085.7	
185.86	5433.9	
186.08	5063.9	
186.29	3257.6	
186.51	3482.9	
186.72	5175.9	
186.94	6158.2	
187.15	4070	
187.36	4201.7	
187.58	7991.2	
187.79	5614.2	
188.01	4453	
188.22	6877.1	
188.43	6860.7	
188.65	5907.7	
188.86	3487.7	
189.08	4191.5	
189.29	5311.7	
189.5	5368.4	
189.72	3865.2	
189.93	4023.6	
190.15	6083.1	
190.36	7387	
190.57	4276.2	
190.79	4119.1	
191	6215.6	
191.22	6189.6	
191.43	4253.6	
191.64	3483.6	
191.86	6499.6	
192.07	6244.3	
192.29	3695.2	
192.5	3831.7	
192.71	6157.6	
192.93	5311.1	
193.14	3864.5	
193.35	3900	
193.57	5330.2	
193.78	6144.6	
194	3076.7	
194.21	3772.4	
194.42	5063.3	
194.64	5612.1	
194.85	4160.1	
195.07	4937	
195.28	5677.7	
195.49	4832.5	
195.71	5240.1	
195.92	3615.3	
196.13	5793.7	
196.35	5924.8	
196.56	5567.7	
196.78	4177.9	
196.99	7251.2	
197.2	6830	
197.42	4746.5	
197.63	4235.2	
197.84	4971.1	
198.06	5797.1	
198.27	3876.8	
198.48	5256.5	
198.7	5326.1	
198.91	5363.6	
199.13	4207.9	
199.34	4295.3	
199.55	6023.1	
199.77	4807.3	
199.98	3665.9	
200.19	4294.6	
200.41	5449.6	
200.62	5109.7	
200.83	4462.5	
201.05	4764.9	
201.26	5416.2	
201.47	5171.8	
201.69	3767.6	
201.9	3559.4	
202.11	5475.6	
202.33	6549.4	
202.54	3989.4	
202.76	4442.7	
202.97	5656.5	
203.18	5679	
203.4	4442.7	
203.61	4226.3	
203.82	5623	
204.04	5193.6	
204.25	4257.7	
204.46	4141	
204.68	5554.8	
204.89	5868.8	
205.1	4071.4	
205.32	3580.5	
205.53	6045.6	
205.74	6185.5	
205.96	3012.6	
206.17	4372.4	
206.38	5963.7	
206.6	6137.1	
206.81	4898.1	
207.02	3950.5	
207.24	5779.4	
207.45	6219.7	
207.66	4030.4	
207.88	3430.3	
208.09	5769.8	
208.3	5536.3	
208.52	3687.7	
208.73	3981.3	
208.94	5496.1	
209.15	6288.6	
209.37	4000.4	
209.58	4265.2	
209.79	6170.5	
210.01	5389.6	
210.22	3213.9	
210.43	3325.2	
210.65	5543.9	
210.86	5937.1	
211.07	3957.4	
211.29	3683.6	
211.5	5929.6	
211.71	5511.8	
211.93	3632.4	
212.14	3672.7	
212.35	5484.5	
212.56	5702.2	
212.78	4274.8	
212.99	3478.8	
213.2	6705.7	
213.42	5299.5	
213.63	3801.7	
213.84	4115.1	
214.06	4896.7	
214.27	4999.1	
214.48	4061.8	
214.69	4345.1	
214.91	6288.6	
215.12	6405.4	
215.33	4356.7	
215.55	4857.1	
215.76	6870.3	
215.97	5946.6	
216.18	4140.3	
216.4	4023.6	
216.61	5214.8	
216.82	6064	
217.04	3701.4	
217.25	3866.6	
217.46	6253.1	
217.67	5947.3	
217.89	3302	
218.1	3407.8	
218.31	5663.3	
218.53	5739.1	
218.74	3927.3	
218.95	3794.9	
219.16	5502.9	
219.38	6518.7	
219.59	3785.3	
219.8	4568.3	
220.01	7263.5	
220.23	5576.6	
220.44	4952	
220.65	3673.4	
220.87	5634.6	
221.08	6232	
221.29	3383.2	
221.5	4671.4	
221.72	7687.4	
221.93	5259.2	
222.14	4295.3	
222.35	5074.9	
222.57	5654.4	
222.78	5915.2	
222.99	3994.2	
223.2	4379.2	
223.42	5879	
223.63	6047	
223.84	3089.7	
224.05	3077.4	
224.27	7253.9	
224.48	6650.4	
224.69	5019.6	
224.9	4268.6	
225.12	5829.2	
225.33	5556.8	
225.54	3359.4	
225.75	3818.8	
225.97	5117.2	
226.18	5428.5	
226.39	4110.3	
226.6	3792.2	
226.82	5330.9	
227.03	5131.5	
227.24	4352.6	
227.45	3462.4	
227.67	5937.1	
227.88	6584.9	
228.09	4761.5	
228.3	4807.9	
228.52	5989.6	
228.73	5483.8	
228.94	3891.8	
229.15	3494.5	
229.36	5483.1	
229.58	5331.5	
229.79	3999	
230	4718.5	
230.21	6717.3	
230.43	5666	
230.64	4193.6	
230.85	4353.3	
231.06	5969.1	
231.28	6035.4	
231.49	3477.5	
231.7	4108.9	
231.91	5872.9	
232.12	5561.6	
232.34	3582.6	
232.55	4094.6	
232.76	6239.5	
232.97	5767.8	
233.18	3688.4	
233.4	4228.4	
233.61	5845.6	
233.82	5312.4	
234.03	3857	
234.25	3780.6	
234.46	7804.1	
234.67	5608.7	
234.88	4292.5	
235.09	3775.1	
235.31	5993	
235.52	5460.6	
235.73	4228.4	
235.94	3515.7	
236.15	5240.8	
236.37	6853.9	
236.58	3761.4	
236.79	4083.6	
237	5874.9	
237.21	5074.2	
237.43	4316.4	
237.64	3418.1	
237.85	10372	
238.06	5115.1	
238.27	4391.5	
238.48	3548.4	
238.7	5859.9	
238.91	5399.1	
239.12	4044.1	
239.33	4077.5	
239.54	5128.8	
239.76	5470.1	
239.97	3977.8	
240.18	4058.4	
240.39	6995.9	
240.6	5890.6	
240.82	4192.9	
241.03	3431	
241.24	5587.5	
241.45	6521.4	
241.66	3713.6	
241.87	4367.6	
242.09	6314.6	
242.3	6704.4	
242.51	4422.9	
242.72	4063.2	
242.93	6081.8	
243.14	5494.7	
243.36	4687.1	
243.57	5113.1	
243.78	6481.1	
243.99	5927.5	
244.2	4085.7	
244.41	3689.8	
244.63	5027.1	
244.84	5928.2	
245.05	4388.8	
245.26	4050.9	
245.47	5923.4	
245.68	6176.7	
245.9	5477	
246.11	4256.4	
246.32	5408	
246.53	5820.3	
246.74	6645.7	
246.95	3442	
247.16	5020.3	
247.38	5558.2	
247.59	3365.5	
247.8	4093.2	
248.01	5244.2	
248.22	5486.5	
248.43	3704.8	
248.64	3972.4	
248.86	4897.4	
249.07	5320.6	
249.28	3497.9	
249.49	4146.5	
249.7	6184.9	
249.91	6328.2	
250.12	3375.1	
250.34	3452.9	
250.55	5747.3	
250.76	5591.6	
250.97	4182	
251.18	4244.8	
251.39	6345.3	
251.6	5735	
251.81	4292.5	
252.03	4295.3	
252.24	5295.4	
252.45	6168.5	
252.66	3499.3	
252.87	4534.9	
253.08	5591	
253.29	7435.5	
253.5	3549.1	
253.72	4899.4	
253.93	5378.6	
254.14	6669.6	
254.35	3891.8	
254.56	3970.3	
254.77	5784.8	
254.98	5152.7	
255.19	3781.2	
255.41	4966.3	
255.62	5644.9	
255.83	6279.1	
256.04	4336.9	
256.25	4307.6	
256.46	6737.8	
256.67	5201.8	
256.88	4204.5	
257.09	4764.9	
257.31	5230.5	
257.52	5231.9	
257.73	5240.1	
257.94	3781.2	
258.15	5412.8	
258.36	5583.4	
258.57	4873.5	
258.78	3052.2	
258.99	6094.8	
259.2	5445.5	
259.41	3857.7	
259.63	4015.4	
259.84	6516	
260.05	6941.2	
260.26	5141.8	
260.47	3753.2	
260.68	6178.7	
260.89	5485.1	
261.1	4651.6	
261.31	3682.2	
261.52	6175.3	
261.73	6571.9	
261.95	4982.7	
262.16	4433.2	
262.37	6359.6	
262.58	6391.7	
262.79	4999.8	
263	4028.4	
263.21	5556.8	
263.42	5110.4	
263.63	3997.6	
263.84	3939.6	
264.05	6116.6	
264.26	6621.1	
264.47	4874.2	
264.69	4233.2	
264.9	6259.3	
265.11	5798.5	
265.32	3755.3	
265.53	3800.3	
265.74	5665.4	
265.95	4949.9	
266.16	4179.9	
266.37	4554	
266.58	5741.8	
266.79	5451.7	
267	3813.3	
267.21	3551.9	
267.42	5182.7	
267.63	5565	
267.84	4029.7	
268.06	3396.9	
268.27	6037.4	
268.48	6339.1	
268.69	3958	
268.9	4698	
269.11	6233.3	
269.32	5007.3	
269.53	4110.3	
269.74	3783.3	
269.95	5963	
270.16	4914.4	
270.37	4061.1	
270.58	4715.8	
270.79	5375.9	
271	6120.7	
271.21	4382.7	
271.42	4117.1	
271.63	5748.6	
271.84	5255.8	
272.05	3213.9	
272.26	3665.9	
272.47	5579.3	
272.68	5857.9	
272.89	3816.7	
273.11	4558.8	
273.32	5395	
273.53	6567.8	
273.74	4414.7	
273.95	4292.5	
274.16	6281.8	
274.37	5678.3	
274.58	4455.7	
274.79	3571.7	
275	5701.5	
275.21	6323.4	
275.42	5347.2	
275.63	4631.1	
275.84	5853.1	
276.05	7370.6	
276.26	4261.1	
276.47	4020.2	
276.68	5432.6	
276.89	6599.2	
277.1	4614.1	
277.31	3563.5	
277.52	5867.4	
277.73	5985.5	
277.94	3528.7	
278.15	3940.3	
278.36	5758.2	
278.57	5222.3	
278.78	3893.9	
278.99	4403.1	
279.2	5140.4	
279.41	5165.7	
279.62	5173.2	
279.83	3621.5	
280.04	6849.1	
280.25	5040.7	
280.46	5122	
280.67	3995.6	
280.88	5145.2	
281.09	6246.3	
281.3	4287.1	
281.51	5445.5	
281.72	6106.4	
281.93	6100.9	
282.14	3853.6	
282.35	4131.4	
282.56	6069.5	
282.77	6072.2	
282.98	3989.4	
283.19	4840	
283.4	7535.8	
283.61	5501.5	
283.82	3508.9	
284.03	5083.7	
284.24	5677	
284.45	6236.1	
284.66	5077.6	
284.87	4876.9	
285.08	6161.7	
285.29	6361	
285.5	3432.4	
285.71	3989.4	
285.92	6208.8	
286.12	6964.5	
286.33	4997	
286.54	3945.8	
286.75	6066.8	
286.96	5417.6	
287.17	3599	
287.38	4917.9	
287.59	5217.5	
287.8	5102.9	
288.01	3960.1	
288.22	4635.9	
288.43	6170.5	
288.64	5104.2	
288.85	4778.6	
289.06	4526.7	
289.27	6029.9	
289.48	6554.2	
289.69	5109.7	
289.9	4552.6	
290.11	6291.4	
290.32	5247.6	
290.53	4848.2	
290.74	4470	
290.94	6019	
291.15	6096.8	
291.36	3870	
291.57	4517.8	
291.78	5284.4	
291.99	4959.5	
292.2	3644	
292.41	4468.7	
292.62	6197.8	
292.83	5937.1	
293.04	5468.1	
293.25	3723.2	
293.46	5325.4	
293.67	6230.6	
293.88	3728.7	
294.09	3642	
294.29	5037.3	
294.5	5692	
294.71	4117.1	
294.92	3861.1	
295.13	5359.5	
295.34	6797.9	
295.55	3391.4	
295.76	3561.4	
295.97	6027.2	
296.18	6855.2	
296.39	3540.3	
296.6	3808.5	
296.81	5705	
297.01	6022.4	
297.22	3937.6	
297.43	3784	
297.64	5175.2	
297.85	5253	
298.06	3100.6	
298.27	3375.1	
298.48	5670.8	
298.69	5285.8	
298.9	4145.8	
299.11	3730	
299.31	5110.4	
299.52	5126.7	
299.73	4383.3	
299.94	4383.3	
300.15	5597.1	
300.36	5179.3	
300.57	4361.5	
300.78	4334.9	
300.99	5433.9	
301.2	5660.6	
301.4	3743	
301.61	4162.2	
301.82	5932.3	
302.03	6022.4	
302.24	4677.6	
302.45	3607.2	
302.66	5875.6	
302.87	6419	
303.08	3816	
303.29	5270.1	
303.49	5330.2	
303.7	5613.5	
303.91	3410.6	
304.12	4985.4	
304.33	5071.5	
304.54	5734.3	
304.75	3857	
304.96	3620.8	
305.16	5941.2	
305.37	6735.1	
305.58	3271.3	
305.79	3401	
306	5897.5	
306.21	5020.9	
306.42	3694.5	
306.63	5849	
306.83	5403.2	
307.04	6288.6	
307.25	4193.6	
307.46	4214.7	
307.67	4768.4	
307.88	6098.9	
308.09	3723.9	
308.29	3875.4	
308.5	5634.6	
308.71	6186.9	
308.92	4120.5	
309.13	3651.5	
309.34	5527.5	
309.55	5485.1	
309.75	4809.3	
309.96	4397	
310.17	6000.5	
310.38	5251.7	
310.59	4602.5	
310.8	3500.7	
311.01	5743.9	
311.21	5362.9	
311.42	3585.3	
311.63	3784	
311.84	5284.4	
312.05	5754.8	
312.26	4236.6	
312.46	4684.4	
312.67	5390.3	
312.88	5120.6	
313.09	3689.1	
313.3	3579.8	
313.51	6438.1	
313.71	6835.4	
313.92	3649.5	
314.13	3866.6	
314.34	5724.1	
314.55	5511.8	
314.76	4761.5	
314.96	4182.6	
315.17	5657.9	
315.38	6164.4	
315.59	3648.1	
315.8	3512.3	
316.01	6556.2	
316.21	6589.7	
316.42	3523.9	
316.63	4074.8	
316.84	5427.8	
317.05	6326.9	
317.26	4384	
317.46	3893.2	
317.67	5510.4	
317.88	5974.6	
318.09	4706.9	
318.3	3431	
318.5	5265.3	
318.71	5954.1	
318.92	6105	
319.13	4397.7	
319.34	6114.6	
319.54	6243.6	
319.75	3460.4	
319.96	3288.4	
320.17	5965.1	
320.38	6214.9	
320.58	3339.6	
320.79	4029	
321	6192.4	
321.21	6403.3	
321.42	4101.4	
321.62	3320.4	
321.83	5163.6	
322.04	5601.9	
322.25	3917.1	
322.46	3709.6	
322.66	5734.3	
322.87	5924.8	
323.08	4547.2	
323.29	3637.9	
323.5	6716.7	
323.7	5097.4	
323.91	4993.6	
324.12	4527.4	
324.33	5621	
324.53	5950	
324.74	4362.2	
324.95	4588.8	
325.16	4947.9	
325.37	5398.4	
325.57	3732.1	
325.78	3738.9	
325.99	5672.9	
326.2	5092.6	
326.4	5276.9	
326.61	3397.6	
326.82	5535.7	
327.03	5716.6	
327.24	5328.1	
327.44	5039.4	
327.65	5905	
327.86	4702.1	
328.07	4414.1	
328.27	3516.4	
328.48	6287.3	
328.69	5161.6	
328.9	5422.3	
329.1	3945.1	
329.31	5453.7	
329.52	6490.7	
329.73	3721.2	
329.93	4164.2	
330.14	5536.3	
330.35	5881.1	
330.56	6159.6	
330.76	4582.7	
330.97	5425.8	
331.18	5760.3	
331.39	4094.6	
331.59	3263.8	
331.8	6260	
332.01	6385.6	
332.22	3835.8	
332.42	4434.5	
332.63	5720	
332.84	5311.1	
333.05	4156.7	
333.25	3753.2	
333.46	5305.6	
333.67	5558.2	
333.88	3817.4	
334.08	4328	
334.29	7593.9	
334.5	6346	
334.7	3556	
334.91	5273.5	
335.12	5102.2	
335.33	6032.6	
335.53	4049.5	
335.74	6167.8	
335.95	5330.2	
336.16	5156.1	
336.36	4262.5	
336.57	4770.4	
336.78	5003.9	
336.98	6195.8	
337.19	5080.3	
337.4	3982.6	
337.61	6802	
337.81	5059.2	
338.02	3743	
338.23	4930.1	
338.43	6451.1	
338.64	5218.2	
338.85	3692.5	
339.05	4919.9	
339.26	6434	
339.47	5001.8	
339.68	3674.7	
339.88	5570.5	
340.09	5829.2	
340.3	6168.5	
340.5	4336.9	
340.71	3353.2	
340.92	5023	
341.13	6358.3	
341.33	3578.5	
341.54	4421.6	
341.75	5819	
341.95	5455.8	
342.16	4214	
342.37	4512.4	
342.57	5186.1	
342.78	5586.2	
342.99	4661.9	
343.19	3315	
343.4	6015.6	
343.61	5855.8	
343.81	3975.1	
344.02	3667.9	
344.23	6032	
344.43	6459.3	
344.64	4567.7	
344.85	4465.9	
345.06	5821.7	
345.26	6240.8	
345.47	4261.1	
345.68	5034.6	
345.88	4966.3	
346.09	6065.4	
346.3	4372.4	
346.5	3231.7	
346.71	5599.1	
346.92	5275.6	
347.12	3383.9	
347.33	4261.1	
347.54	6189	
347.74	6636.1	
347.95	4252.9	
348.16	3149.1	
348.36	5457.8	
348.57	5189.6	
348.78	4156	
348.98	4610	
349.19	5536.3	
349.39	5048.2	
349.6	3295.9	
349.81	3762.1	
350.01	5875.6	
350.22	5292.6	
350.43	4074.8	
350.63	4973.8	
350.84	5651.7	
351.05	5418.2	
351.25	3744.4	
351.46	3353.9	
351.67	6238.8	
351.87	5255.8	
352.08	3997	
352.29	4562.2	
352.49	6107.7	
352.7	5754.8	
352.9	3644	
353.11	4526	
353.32	6880.5	
353.52	5383.4	
353.73	3540.3	
353.94	4543.1	
354.14	5915.9	
354.35	5752.1	
354.55	3656.3	
354.76	4067.9	
354.97	5879	
355.17	5632.6	
355.38	3362.8	
355.59	4825	
355.79	5246.2	
356	5721.3	
356.2	4078.2	
356.41	3477.5	
356.62	4914.4	
356.82	5518.6	
357.03	4303.5	
357.24	3882.3	
357.44	5326.1	
357.65	5366.4	
357.85	5275.6	
358.06	4087.1	
358.27	4945.8	
358.47	5208.7	
358.68	3379.1	
358.88	4310.3	
359.09	5857.9	
359.3	6262.7	
359.5	5100.8	
359.71	4462.5	
359.91	6752.8	
360.12	6013.5	
360.33	4315.1	
360.53	4837.3	
360.74	5232.6	
360.94	5297.4	
361.15	4511	
361.36	3654.9	
361.56	6034.7	
361.77	5502.2	
361.97	5011.4	
362.18	3982.6	
362.38	6056.5	
362.59	5113.8	
362.8	3613.3	
363	3493.2	
363.21	4862.6	
363.41	5560.2	
363.62	4169	
363.83	5279.7	
364.03	5666.7	
364.24	6829.3	
364.44	5355.4	
364.65	5349.3	
364.85	5431.9	
365.06	5306.3	
365.27	3785.3	
365.47	3859.1	
365.68	6491.4	
365.88	5463.3	
366.09	4252.3	
366.29	3922.5	
366.5	5634.6	
366.71	6193.1	
366.91	5286.5	
367.12	4373.8	
367.32	6735.1	
367.53	5951.4	
367.73	4362.9	
367.94	5375.9	
368.14	5974.6	
368.35	6939.9	
368.56	4392.2	
368.76	3668.6	
368.97	6016.2	
369.17	7889.5	
369.38	3788.7	
369.58	4044.1	
369.79	5080.3	
369.99	6428.6	
370.2	5167.7	
370.4	4227	
370.61	5722	
370.82	7032	
371.02	4052.2	
371.23	3392.8	
371.43	4991.6	
371.64	6418.3	
371.84	4119.1	
372.05	5448.3	
372.25	7752.9	
372.46	6060.6	
372.66	4113.7	
372.87	4080.9	
373.07	6120.7	
373.28	7841	
373.48	5255.1	
373.69	4876.9	
373.9	5522.7	
374.1	5547.9	
374.31	5140.4	
374.51	4590.9	
374.72	6491.4	
374.92	5197.1	
375.13	5319.9	
375.33	4478.2	
375.54	5996.5	
375.74	5310.4	
375.95	4520.5	
376.15	5915.2	
376.36	5952.1	
376.56	5807.4	
376.77	4562.2	
376.97	5021.6	
377.18	7138.5	
377.38	6051.1	
377.59	5444.9	
377.79	4028.4	
378	5882.4	
378.2	6322.1	
378.41	4074.8	
378.61	3984	
378.82	6367.8	
379.02	5390.9	
379.23	4225.6	
379.43	5464.7	
379.64	6457.9	
379.84	6049.7	
380.05	4047.5	
380.25	3990.8	
380.46	6094.1	
380.66	5669.5	
380.87	5517.2	
381.07	5880.4	
381.28	6784.2	
381.48	6128.2	
381.69	4073.4	
381.89	4158.1	
382.1	5037.3	
382.3	6277.7	
382.51	5276.9	
382.71	6221.7	
382.91	6146.6	
383.12	6716	
383.32	4483.7	
383.53	4721.3	
383.73	5990.3	
383.94	5795.8	
384.14	4602.5	
384.35	3747.1	
384.55	5670.1	
384.76	6237.4	
384.96	4465.9	
385.17	4771.1	
385.37	6130.3	
385.58	5432.6	
385.78	4863.2	
385.98	3629.7	
386.19	5559.6	
386.39	6003.3	
386.6	4260.5	
386.8	4511	
387.01	6144.6	
387.21	6148.7	
387.42	5044.8	
387.62	5560.9	
387.83	5396.4	
388.03	6080.4	
388.23	4517.1	
388.44	5324	
388.64	5040.1	
388.85	5204.6	
389.05	4990.2	
389.26	5592.3	
389.46	7215.7	
389.67	6554.2	
389.87	4907.6	
390.07	4892.6	
390.28	5739.1	
390.48	5306.3	
390.69	4107.5	
390.89	4374.5	
391.1	5502.2	
391.3	6458.6	
391.5	5633.3	
391.71	6381.5	
391.91	6168.5	
392.12	7358.4	
392.32	5737.7	
392.53	4840	
392.73	5561.6	
392.93	5805.3	
393.14	4588.1	
393.34	5400.5	
393.55	6171.9	
393.75	5779.4	
393.95	4607.2	
394.16	4500.8	
394.36	5498.8	
394.57	6238.8	
394.77	4001	
394.98	4510.3	
395.18	5446.2	
395.38	5706.3	
395.59	5485.1	
395.79	4304.1	
396	5595.1	
396.2	6142.5	
396.4	5199.8	
396.61	5120.6	
396.81	6309.8	
397.02	5545.9	
397.22	5393	
397.42	5458.5	
397.63	6315.3	
397.83	5477.6	
398.04	4225.6	
398.24	4755.4	
398.44	6036	
398.65	5116.5	
398.85	4089.1	
399.05	4198.3	
399.26	5416.9	
399.46	7311.9	
399.67	4590.9	
399.87	4304.8	
400.07	5863.3	
400.28	6210.8	
400.48	4407.9	
400.69	5535.7	
400.89	6509.8	
401.09	6931	
401.3	4248.2	
401.5	5508.4	
401.7	7191.1	
401.91	7449.8	
402.11	4590.9	
402.32	4913.8	
402.52	6504.3	
402.72	6365.1	
402.93	5150.6	
403.13	3852.2	
403.33	7252.5	
403.54	5931.6	
403.74	4800.4	
403.94	5740.5	
404.15	5980.8	
404.35	7263.5	
404.56	4610	
404.76	6608.1	
404.96	6449.1	
405.17	6285.9	
405.37	5933.6	
405.57	5120.6	
405.78	6477	
405.98	5926.1	
406.18	4605.2	
406.39	5647.6	
406.59	6501.6	
406.79	6068.8	
407	4381.3	
407.2	4575.8	
407.4	6453.8	
407.61	6748.1	
407.81	4530.8	
408.01	7006.1	
408.22	5481.7	
408.42	7696.3	
408.62	5693.4	
408.83	5119.2	
409.03	6098.9	
409.23	5853.1	
409.44	5202.5	
409.64	5540.4	
409.84	7041.6	
410.05	6912.6	
410.25	5337.7	
410.45	5024.3	
410.66	6341.2	
410.86	9043.1	
411.06	5499.5	
411.27	5390.9	
411.47	8811	
411.67	6576.7	
411.88	5786.9	
412.08	5940.5	
412.28	7272.3	
412.49	7872.4	
412.69	5378.6	
412.89	5403.2	
413.09	7632.8	
413.3	7539.3	
413.5	5412.8	
413.7	4989.5	
413.91	6576	
414.11	7610.9	
414.31	5275.6	
414.52	5700.9	
414.72	7177.4	
414.92	7091.4	
415.12	5309	
415.33	5816.2	
415.53	7550.2	
415.73	7655.3	
415.94	6175.3	
416.14	5606	
416.34	6463.4	
416.55	6211.5	
416.75	6849.8	
416.95	6308.4	
417.15	7537.2	
417.36	8281.3	
417.56	7108.5	
417.76	6144.6	
417.97	7865.6	
418.17	7604.8	
418.37	5642.2	
418.57	5770.5	
418.78	7257.3	
418.98	6890.7	
419.18	6662.7	
419.38	6631.3	
419.59	7056.6	
419.79	6593.8	
419.99	5545.2	
420.2	6006.7	
420.4	7582.9	
420.6	7794.6	
420.8	5444.2	
421.01	5369.8	
421.21	7337.9	
421.41	7607.5	
421.61	5965.1	
421.82	5569.1	
422.02	6834.1	
422.22	7823.9	
422.42	6429.9	
422.63	6059.9	
422.83	6941.2	
423.03	8219.2	
423.23	6097.5	
423.44	4962.9	
423.64	7055.3	
423.84	6885.3	
424.04	5465.3	
424.25	5139.7	
424.45	8086.1	
424.65	7937.2	
424.85	4912.4	
425.06	5538.4	
425.26	7910.6	
425.46	6870.3	
425.66	6057.2	
425.87	5724.8	
426.07	7800	
426.27	7595.9	
426.47	5835.3	
426.67	5126.7	
426.88	8069.7	
427.08	7509.2	
427.28	6100.2	
427.48	5116.5	
427.69	6345.3	
427.89	7054.6	
428.09	6142.5	
428.29	5254.4	
428.5	7774.8	
428.7	7293.5	
428.9	5078.3	
429.1	5715.2	
429.3	7190.4	
429.51	7643.7	
429.71	5416.2	
429.91	6249.7	
430.11	7462.8	
430.31	7747.5	
430.52	5711.1	
430.72	6044.9	
430.92	8143.4	
431.12	7555	
431.32	5347.9	
431.53	5864	
431.73	6361.7	
431.93	8260.1	
432.13	5312.4	
432.33	5137	
432.54	6873	
432.74	7308.5	
432.94	5024.3	
433.14	6257.2	
433.34	7376.1	
433.55	6896.2	
433.75	6163	
433.95	8071	
434.15	7210.2	
434.35	6873.7	
434.56	5324	
434.76	4779.3	
434.96	7293.5	
435.16	7481.2	
435.36	5124.7	
435.56	6447.7	
435.77	6863.4	
435.97	7000	
436.17	7104.4	
436.37	6308.4	
436.57	6765.1	
436.78	6750.1	
436.98	7993.9	
437.18	6879.8	
437.38	7610.3	
437.58	7040.2	
437.78	7159.7	
437.99	5591.6	
438.19	7576.1	
438.39	8488.1	
438.59	5563	
438.79	5023.7	
438.99	8333.9	
439.2	7040.2	
439.4	5184.8	
439.6	5167	
439.8	7391.8	
440	8515.5	
440.2	6327.5	
440.4	6342.6	
440.61	7827.3	
440.81	8406.2	
441.01	5284.4	
441.21	6378.7	
441.41	8191.2	
441.61	7808.2	
441.81	6693.4	
442.02	7799.3	
442.22	8755.7	
442.42	8009.6	
442.62	5478.3	
442.82	5507.7	
443.02	8229.4	
443.22	7264.1	
443.43	5916.6	
443.63	5403.9	
443.83	6987	
444.03	7176.1	
444.23	6757.6	
444.43	6328.2	
444.63	7353.6	
444.83	8752.3	
445.04	5593	
445.24	6937.8	
445.44	7778.2	
445.64	7901.7	
445.84	6399.9	
446.04	6396.5	
446.24	7094.8	
446.44	8165.3	
446.65	5591	
446.85	5909.1	
447.05	7217	
447.25	8118.8	
447.45	6087.9	
447.65	5405.3	
447.85	7404.1	
448.05	7091.4	
448.25	6536.4	
448.46	6285.2	
448.66	7479.2	
448.86	7118.1	
449.06	5183.4	
449.26	6503.7	
449.46	7886	
449.66	6770.6	
449.86	5956.2	
450.06	5883.8	
450.26	7015.7	
450.47	7665.5	
450.67	6255.2	
450.87	6580.8	
451.07	7716.7	
451.27	7484.6	
451.47	5436.7	
451.67	6159.6	
451.87	7157	
452.07	8424	
452.27	5690.6	
452.47	5729.5	
452.67	7373.4	
452.88	8206.9	
453.08	5044.1	
453.28	7251.2	
453.48	8788.5	
453.68	7396.6	
453.88	5621.7	
454.08	5883.1	
454.28	7798	
454.48	7458.7	
454.68	6434.7	
454.88	7058	
455.08	8020.5	
455.28	7734.5	
455.48	5440.1	
455.68	6120	
455.89	8454.7	
456.09	8176.9	
456.29	5892	
456.49	5976.7	
456.69	8322.3	
456.89	7526.3	
457.09	6504.3	
457.29	6828.6	
457.49	7862.8	
457.69	8026	
457.89	6305	
458.09	5734.3	
458.29	7566.6	
458.49	8361.9	
458.69	6733	
458.89	6146.6	
459.09	8670.4	
459.29	8816.5	
459.49	6249.7	
459.69	7079.1	
459.9	8162.5	
460.1	7684	
460.3	6134.3	
460.5	5875.6	
460.7	8132.5	
460.9	7819.8	
461.1	5477	
461.3	7016.3	
461.5	8852	
461.7	8433.5	
461.9	5958.9	
462.1	6548	
462.3	7865.6	
462.5	8623.3	
462.7	6100.9	
462.9	6197.8	
463.1	9631.6	
463.3	9209.7	
463.5	6333	
463.7	7385	
463.9	8045.8	
464.1	8497.7	
464.3	6509.1	
464.5	6761	
464.7	8782.4	
464.9	8396.7	
465.1	8275.8	
465.3	7083.9	
465.5	9150.3	
465.7	9132.6	
465.9	7391.8	
466.1	7320.1	
466.3	8892.3	
466.5	8719.6	
466.7	8149.6	
466.9	6939.2	
467.1	8602.2	
467.3	9684.2	
467.5	8173.4	
467.7	6841.6	
467.9	9915.6	
468.1	10888	
468.3	7785	
468.5	8198	
468.7	8619.2	
468.9	8549.6	
469.1	7093.5	
469.3	7942.7	
469.5	10705	
469.7	8082	
469.9	7641.7	
470.1	6935.1	
470.3	8602.8	
470.5	8625.4	
470.7	8330.5	
470.9	6969.9	
471.1	8366	
471.3	8885.5	
471.5	6701	
471.69	8884.8	
471.89	8163.9	
472.09	7754.3	
472.29	7634.8	
472.49	8071	
472.69	7983.7	
472.89	8903.9	
473.09	6651.1	
473.29	6882.5	
473.49	8094.3	
473.69	8322.9	
473.89	7893.6	
474.09	7001.3	
474.29	9691.7	
474.49	9343.5	
474.69	7821.2	
474.89	7112.6	
475.09	8384.4	
475.29	8262.2	
475.49	6482.5	
475.69	6765.1	
475.88	10086	
476.08	8634.9	
476.28	6453.1	
476.48	6959.7	
476.68	9095.7	
476.88	8953.7	
477.08	6766.5	
477.28	7106.5	
477.48	8288.8	
477.68	9114.1	
477.88	6524.8	
478.08	6955.6	
478.28	9353.1	
478.48	8451.3	
478.67	6941.2	
478.87	6330.3	
479.07	9270.5	
479.27	8507.9	
479.47	7186.3	
479.67	7208.8	
479.87	8975.6	
480.07	9577.7	
480.27	6341.2	
480.47	8162.5	
480.67	8620.6	
480.87	9341.5	
481.06	6655.9	
481.26	7591.1	
481.46	8515.5	
481.66	8432.2	
481.86	7163.1	
482.06	8282	
482.26	8200.7	
482.46	9444.5	
482.66	7131	
482.86	6707.1	
483.05	8671.1	
483.25	7933.8	
483.45	9699.2	
483.65	7084.6	
483.85	8207.6	
484.05	8557.8	
484.25	7549.5	
484.45	8071	
484.65	9516.9	
484.84	9465	
485.04	7073	
485.24	6980.2	
485.44	9777	
485.64	7948.8	
485.84	6224.5	
486.04	7838.9	
486.24	8368.7	
486.44	8815.1	
486.63	6204	
486.83	7036.8	
487.03	8151.6	
487.23	8416.5	
487.43	6279.8	
487.63	8957.8	
487.83	8535.9	
488.02	9723.8	
488.22	7374.1	
488.42	8143.4	
488.62	9395.4	
488.82	8338.6	
489.02	7078.5	
489.22	7159.7	
489.41	9279.3	
489.61	8989.2	
489.81	6797.9	
490.01	6808.8	
490.21	9238.4	
490.41	9869.2	
490.61	6752.2	
490.8	6856.6	
491	8652	
491.2	7998	
491.4	7550.9	
491.6	6529.6	
491.8	8691.6	
491.99	8935.3	
492.19	6410.8	
492.39	6779.5	
492.59	9230.9	
492.79	9297.1	
492.99	7849.9	
493.18	6797.2	
493.38	9385.2	
493.58	10226	
493.78	7609.6	
493.98	7222.5	
494.18	9023.4	
494.37	8486.8	
494.57	7801.4	
494.77	7653.9	
494.97	9359.9	
495.17	9569.5	
495.37	7258.7	
495.56	7583.6	
495.76	9747.6	
495.96	9364	
496.16	8534.6	
496.36	7470.3	
496.55	9638.4	
496.75	9130.5	
496.95	7701.7	
497.15	7643	
497.35	9506.7	
497.54	9601.6	
497.74	7382.9	
497.94	9213.1	
498.14	10357	
498.34	10038	
498.53	7144.7	
498.73	7943.4	
498.93	8942.1	
499.13	9548.3	
499.33	7670.3	
499.52	8218.5	
499.72	9401.5	
499.92	9848.7	
500.12	7335.1	
500.32	7623.9	
500.51	9686.9	
500.71	9510.1	
500.91	8642.4	
501.11	8073.8	
501.31	9671.2	
501.5	10125	
501.7	8890.2	
501.9	7684	
502.1	9433.6	
502.29	9734	
502.49	8209.6	
502.69	8623.3	
502.89	9689.6	
503.09	9698.5	
503.28	7152.2	
503.48	7253.9	
503.68	8725	
503.88	8785.1	
504.07	8264.9	
504.27	7744.1	
504.47	9193.3	
504.67	9377.6	
504.86	8239	
505.06	7878.5	
505.26	8889.5	
505.46	10875	
505.65	7766.6	
505.85	7989.8	
506.05	8684.1	
506.25	9321	
506.44	6980.2	
506.64	8036.2	
506.84	8674.5	
507.04	9658.2	
507.23	7164.5	
507.43	7847.8	
507.63	10757	
507.83	8951.7	
508.02	7769.3	
508.22	7353.6	
508.42	10931	
508.62	8549.6	
508.81	7611.6	
509.01	8200.7	
509.21	8440.4	
509.4	8674.5	
509.6	7828.7	
509.8	7131	
510	8768	
510.19	10267	
510.39	7134.4	
510.59	7245.7	
510.79	8543.4	
510.98	10033	
511.18	7251.2	
511.38	7363.1	
511.57	9441.8	
511.77	9380.4	
511.97	8060.8	
512.17	7030.7	
512.36	9483.5	
512.56	9454.8	
512.76	7054.6	
512.95	6890.7	
513.15	9503.3	
513.35	8129.1	
513.55	8081.3	
513.74	7193.8	
513.94	9527.8	
514.14	8953	
514.33	8165.9	
514.53	7894.2	
514.73	8827.4	
514.92	9084.1	
515.12	7392.5	
515.32	7259.4	
515.51	9167.4	
515.71	9824.1	
515.91	9086.8	
516.11	7299.6	
516.3	11129	
516.5	8813.8	
516.7	7893.6	
516.89	8613.1	
517.09	9019.9	
517.29	8809	
517.48	8065.6	
517.68	7589.1	
517.88	8594.6	
518.07	9222	
518.27	8107.2	
518.47	7010.2	
518.66	9863	
518.86	8354.3	
519.06	6925.5	
519.25	7389.8	
519.45	8819.9	
519.65	10405	
519.84	8194.6	
520.04	8799.4	
520.24	10837	
520.43	9540.8	
520.63	7863.5	
520.83	7521.5	
521.02	8740	
521.22	9374.9	
521.42	8200.7	
521.61	8705.2	
521.81	8924.4	
522.01	9161.2	
522.2	7997.3	
522.4	7726.3	
522.6	9701.9	
522.79	8404.2	
522.99	7874.4	
523.18	7149.5	
523.38	9340.1	
523.58	9457.5	
523.77	9127.8	
523.97	7083.2	
524.17	11382	
524.36	10465	
524.56	8635.6	
524.76	8165.9	
524.95	9408.4	
525.15	9138	
525.34	8000	
525.54	7914.7	
525.74	9842.5	
525.93	8646.5	
526.13	9184.5	
526.33	7931.1	
526.52	10189	
526.72	9647.3	
526.91	9166.7	
527.11	8480.6	
527.31	10249	
527.5	10660	
527.7	8379.6	
527.89	7359.7	
528.09	9080	
528.29	9719	
528.48	8753.7	
528.68	8443.8	
528.87	10019	
529.07	10129	
529.27	8311.3	
529.46	7711.3	
529.66	9601.6	
529.85	10145	
530.05	7589.8	
530.25	8378.2	
530.44	11191	
530.64	9601.6	
530.83	7996	
531.03	8335.9	
531.23	9996.1	
531.42	9847.3	
531.62	9299.8	
531.81	8305.9	
532.01	10134	
532.21	10799	
532.4	8048.5	
532.6	8488.8	
532.79	11331	
532.99	10280	
533.18	8448.6	
533.38	9451.4	
533.58	9809.8	
533.77	10675	
533.97	8299.1	
534.16	9322.4	
534.36	10890	
534.55	9779.1	
534.75	9507.4	
534.95	8426.7	
535.14	10698	
535.34	9794.1	
535.53	8092.2	
535.73	10314	
535.92	11276	
536.12	10030	
536.31	8202.1	
536.51	9609.1	
536.71	10280	
536.9	9897.2	
537.1	8444.5	
537.29	8510	
537.49	10803	
537.68	9786.6	
537.88	8979.7	
538.07	8053.3	
538.27	10020	
538.46	11211	
538.66	7998.7	
538.86	8524.3	
539.05	10051	
539.25	10595	
539.44	8716.2	
539.64	8387.8	
539.83	9940.8	
540.03	10985	
540.22	8253.3	
540.42	8365.3	
540.61	10210	
540.81	10297	
541	8852	
541.2	9547.6	
541.39	9665.7	
541.59	10170	
541.78	9140.1	
541.98	8135.9	
542.18	9332.6	
542.37	9222.7	
542.57	8641.1	
542.76	9161.2	
542.96	9297.1	
543.15	10146	
543.35	8611	
543.54	7840.3	
543.74	10411	
543.93	9867.8	
544.13	8620.6	
544.32	9756.5	
544.52	10199	
544.71	9424.8	
544.91	7555	
545.1	8943.5	
545.3	9393.3	
545.49	10152	
545.69	7476.5	
545.88	8204.8	
546.08	11182	
546.27	10748	
546.47	8619.2	
546.66	7919.5	
546.86	10475	
547.05	11089	
547.24	8079.2	
547.44	7998.7	
547.63	9201.5	
547.83	10550	
548.02	8456.7	
548.22	8717.5	
548.41	9067	
548.61	10537	
548.8	7968	
549	7888.8	
549.19	9749.7	
549.39	10088	
549.58	7488.7	
549.78	8253.3	
549.97	10235	
550.17	9635.7	
550.36	9139.4	
550.55	10269	
550.75	9663.7	
550.94	10599	
551.14	7877.2	
551.33	8253.3	
551.53	8946.9	
551.72	10077	
551.92	8356.4	
552.11	8113.4	
552.31	10065	
552.5	10182	
552.69	9947.7	
552.89	7666.9	
553.08	10022	
553.28	9716.2	
553.47	8133.8	
553.67	9421.3	
553.86	10698	
554.06	9056.1	
554.25	7186.3	
554.44	7931.1	
554.64	11512	
554.83	11099	
555.03	7826	
555.22	8225.3	
555.42	10264	
555.61	9962	
555.8	8036.9	
556	8353	
556.19	8978.3	
556.39	10407	
556.58	8109.3	
556.78	8150.2	
556.97	9893.1	
557.16	9706	
557.36	9446.6	
557.55	7799.3	
557.75	8758.5	
557.94	10713	
558.13	7859.4	
558.33	7526.3	
558.52	10478	
558.72	9175.6	
558.91	7699.7	
559.1	7984.3	
559.3	8851.3	
559.49	8633.6	
559.69	7100.3	
559.88	8352.3	
560.07	9820	
560.27	10221	
560.46	8447.2	
560.66	8655.4	
560.85	9562.6	
561.04	8659.5	
561.24	7718.1	
561.43	7778.9	
561.63	8972.2	
561.82	9256.1	
562.01	9237	
562.21	8155.7	
562.4	9697.8	
562.59	10757	
562.79	8019.8	
562.98	7629.4	
563.18	9605.7	
563.37	11133	
563.56	8547.5	
563.76	7522.2	
563.95	9050.7	
564.14	8979.7	
564.34	7923.6	
564.53	7761.8	
564.73	9590.6	
564.92	9969.5	
565.11	8112.7	
565.31	7436.2	
565.5	10228	
565.69	9078.6	
565.89	7669	
566.08	8010.3	
566.27	9984.5	
566.47	10531	
566.66	8671.1	
566.85	7194.5	
567.05	9497.1	
567.24	8938	
567.44	7574.8	
567.63	9032.2	
567.82	9758.6	
568.02	9575.6	
568.21	7589.8	
568.4	7977.5	
568.6	9346.9	
568.79	9417.9	
568.98	7203.4	
569.18	7499	
569.37	9290.3	
569.56	11484	
569.76	7755.7	
569.95	8856.8	
570.14	9680.7	
570.34	9512.8	
570.53	7214.3	
570.72	7135.8	
570.91	10041	
571.11	9015.2	
571.3	7635.5	
571.49	8634.2	
571.69	9072.5	
571.88	8612.4	
572.07	8254	
572.27	8208.3	
572.46	8589.9	
572.65	9839.1	
572.85	7485.3	
573.04	7727.7	
573.23	9985.9	
573.43	9211.1	
573.62	7129.7	
573.81	7856	
574	9265	
574.2	9043.8	
574.39	7422.5	
574.58	7700.4	
574.78	10198	
574.97	9372.2	
575.16	8067.6	
575.36	8304.5	
575.55	9592	
575.74	9862.3	
575.93	7040.9	
576.13	8230.8	
576.32	8959.2	
576.51	9665.7	
576.71	7491.5	
576.9	8942.8	
577.09	9966.1	
577.28	9478.7	
577.48	8112	
577.67	6969.9	
577.86	9056.1	
578.05	9401.5	
578.25	7675.1	
578.44	7777.5	
578.63	9232.2	
578.83	10380	
579.02	7032	
579.21	8779.6	
579.4	9405.6	
579.6	9084.8	
579.79	7869.7	
579.98	10253	
580.17	9838.4	
580.37	9864.4	
580.56	7258	
580.75	8166.6	
580.94	10470	
581.14	10229	
581.33	8671.1	
581.52	7516	
581.71	9749	
581.91	10423	
582.1	7217	
582.29	7894.2	
582.48	9365.4	
582.68	9239.1	
582.87	8386.4	
583.06	7875.8	
583.25	9738.8	
583.45	9596.1	
583.64	8605.6	
583.83	9464.3	
584.02	9105.3	
584.21	9663.7	
584.41	8732.5	
584.6	7929.7	
584.79	9338.1	
584.98	10277	
585.18	7320.8	
585.37	7410.2	
585.56	8842.4	
585.75	9662.3	
585.94	7432.8	
586.14	8315.4	
586.33	10371	
586.52	9318.9	
586.71	8043.7	
586.91	7783.6	
587.1	8575.5	
587.29	9708.1	
587.48	7649.8	
587.67	7520.1	
587.87	9503.3	
588.06	9590.6	
588.25	8884.1	
588.44	8154.3	
588.63	9017.2	
588.83	9619.3	
589.02	7353.6	
589.21	7163.1	
589.4	8594.6	
589.59	8348.9	
589.78	6260	
589.98	6525.5	
590.17	8016.4	
590.36	8542.1	
590.55	5852.4	
590.74	6821.8	
590.94	10068	
591.13	8361.9	
591.32	6460.7	
591.51	5975.3	
591.7	8968.7	
591.89	8357.8	
592.09	6109.8	
592.28	6679.8	
592.47	7537.2	
592.66	9578.3	
592.85	6140.5	
593.05	6375.3	
593.24	8232.2	
593.43	8997.4	
593.62	6440.9	
593.81	7082.6	
594	8292.9	
594.19	8602.8	
594.39	6475.7	
594.58	6360.3	
594.77	8675.9	
594.96	9394.7	
595.15	6265.4	
595.34	7051.8	
595.54	8688.8	
595.73	7681.9	
595.92	5721.3	
596.11	6890.7	
596.3	9211.1	
596.49	7897.7	
596.68	6750.1	
596.88	7232.1	
597.07	9074.5	
597.26	7742.7	
597.45	6279.8	
597.64	7626	
597.83	8058.8	
598.02	8766	
598.22	6339.8	
598.41	7230.7	
598.6	8464.3	
598.79	7965.2	
598.98	6471.6	
599.17	7471.7	
599.36	8542.1	
599.55	9850.7	
599.74	8739.4	
599.94	8471.8	
600.13	9167.4	
600.32	7927	
600.51	6363.7	
600.7	6356.9	
600.89	9962	
601.08	9933.3	
601.27	6312.5	
601.47	7372.7	
601.66	9176.9	
601.85	9970.2	
602.04	7037.5	
602.23	7397.3	
602.42	8224.6	
602.61	8923.7	
602.8	7030.7	
602.99	6699.6	
603.18	8614.4	
603.37	8925	
603.57	7486.7	
603.76	8084	
603.95	9730.6	
604.14	9305.3	
604.33	6776.7	
604.52	7310.6	
604.71	9003.6	
604.9	8499.8	
605.09	7892.2	
605.28	7736.5	
605.47	9639.8	
605.66	9230.2	
605.86	7605.5	
606.05	6875.7	
606.24	9527.2	
606.43	8021.2	
606.62	7158.3	
606.81	8094.9	
607	9374.9	
607.19	8637.6	
607.38	6624.5	
607.57	6965.8	
607.76	8470.4	
607.95	7841.7	
608.14	7368.6	
608.33	7984.3	
608.52	8435.6	
608.72	9456.8	
608.91	6535.8	
609.1	6476.4	
609.29	8527.7	
609.48	7915.4	
609.67	7607.5	
609.86	6554.9	
610.05	8016.4	
610.24	8521.6	
610.43	6323.4	
610.62	6000.5	
610.81	9709.4	
611	9458.2	
611.19	6551.5	
611.38	7302.4	
611.57	8737.3	
611.76	10234	
611.95	6196.5	
612.14	6136.4	
612.33	8548.9	
612.52	7984.3	
612.71	6851.8	
612.9	6023.8	
613.09	7518.1	
613.28	10041	
613.47	6550.1	
613.66	7598	
613.85	8688.2	
614.04	8162.5	
614.24	6587.6	
614.43	5862	
614.62	8794	
614.81	8755.1	
615	7230	
615.19	7246.4	
615.38	8048.5	
615.57	8362.5	
615.76	7073.7	
615.95	8103.8	
616.14	8844.5	
616.33	8449.9	
616.52	7362.4	
616.71	7830.1	
616.9	8829.5	
617.09	8606.9	
617.28	6746	
617.47	8136.6	
617.66	7813.7	
617.85	7879.9	
618.04	7696.9	
618.22	7085.3	
618.41	8119.5	
618.6	9209	
618.79	7047.7	
618.98	6648.4	
619.17	9475.3	
619.36	7690.8	
619.55	6754.2	
619.74	6896.9	
619.93	8677.9	
620.12	8085.4	
620.31	7509.9	
620.5	7672.4	
620.69	9590	
620.88	9713.5	
621.07	8495.7	
621.26	7357	
621.45	8822.6	
621.64	8857.5	
621.83	7425.3	
622.02	6576	
622.21	8808.3	
622.4	8679.3	
622.59	8086.7	
622.78	7771.4	
622.97	8307.2	
623.16	9259.5	
623.35	7324.2	
623.54	6462.7	
623.72	8388.5	
623.91	8526.4	
624.1	7616.4	
624.29	6294.1	
624.48	9683.5	
624.67	8900.5	
624.86	7505.8	
625.05	6425.2	
625.24	9848.7	
625.43	8080.6	
625.62	9347.6	
625.81	6707.1	
626	9153.1	
626.19	8321.6	
626.38	7522.9	
626.56	6780.1	
626.75	8178.2	
626.94	8950.3	
627.13	7375.4	
627.32	5973.2	
627.51	8794.7	
627.7	10258	
627.89	6111.1	
628.08	7331	
628.27	7795.3	
628.46	8003.5	
628.65	6395.1	
628.83	6021	
629.02	8662.9	
629.21	7922.9	
629.4	6853.9	
629.59	7082.6	
629.78	7819.1	
629.97	8961.9	
630.16	7266.2	
630.35	6539.8	
630.54	9384.5	
630.72	9161.9	
630.91	6636.1	
631.1	7202.7	
631.29	8607.6	
631.48	8667.7	
631.67	7328.3	
631.86	6698.9	
632.05	8072.4	
632.24	8122.9	
632.42	6326.2	
632.61	7065.5	
632.8	8231.5	
632.99	7817.8	
633.18	7135.8	
633.37	7492.2	
633.56	8609.7	
633.75	8396	
633.93	7021.1	
634.12	6733	
634.31	9411.1	
634.5	9070.5	
634.69	6775.4	
634.88	7345.4	
635.07	8379.6	
635.25	9015.2	
635.44	7727.7	
635.63	8006.9	
635.82	8215.8	
636.01	7707.2	
636.2	7727	
636.39	7286	
636.57	9381.7	
636.76	9202.2	
636.95	6591	
637.14	8131.8	
637.33	8680	
637.52	9819.3	
637.7	6395.8	
637.89	7419.8	
638.08	8245.8	
638.27	9811.1	
638.46	7422.5	
638.65	7995.3	
638.83	9817.3	
639.02	7998.7	
639.21	7320.1	
639.4	7896.3	
639.59	8633.6	
639.78	8077.9	
639.96	6602	
640.15	6605.4	
640.34	8409	
640.53	8656.8	
640.72	6268.1	
640.91	6721.4	
641.09	7780.2	
641.28	9278.7	
641.47	6640.9	
641.66	7628	
641.85	8512.7	
642.03	8734.6	
642.22	7302.4	
642.41	6716	
642.6	7946.8	
642.79	7329.7	
642.97	6465.4	
643.16	7248.4	
643.35	7853.3	
643.54	7660.1	
643.73	6414.2	
643.91	7191.1	
644.1	7465.5	
644.29	8058.1	
644.48	6348	
644.67	6382.2	
644.85	7659.4	
645.04	7980.3	
645.23	5881.1	
645.42	6186.2	
645.6	7383.6	
645.79	8637	
645.98	6182.1	
646.17	5076.2	
646.36	7068.2	
646.54	7701.7	
646.73	6957.6	
646.92	5650.3	
647.11	7275.1	
647.29	8347.5	
647.48	5720.7	
647.67	5515.9	
647.86	8646.5	
648.05	8729.8	
648.23	6128.9	
648.42	7610.9	
648.61	8034.2	
648.8	7741.3	
648.98	5786.9	
649.17	6198.5	
649.36	7265.5	
649.55	6795.2	
649.73	5811.5	
649.92	6687.3	
650.11	7279.8	
650.3	7596.6	
650.48	5990.3	
650.67	5791	
650.86	7903.8	
651.05	6711.9	
651.23	5948	
651.42	5938.4	
651.61	7279.2	
651.79	7535.2	
651.98	6204.7	
652.17	5870.2	
652.36	7913.4	
652.54	6851.8	
652.73	5821.7	
652.92	5624.4	
653.11	7852.6	
653.29	7916.1	
653.48	5113.8	
653.67	6144.6	
653.85	7604.8	
654.04	8801.5	
654.23	6354.2	
654.42	5878.4	
654.6	7098.9	
654.79	7806.2	
654.98	5327.4	
655.16	5974.6	
655.35	6723.5	
655.54	6675.7	
655.73	5434.6	
655.91	5336.3	
656.1	7957	
656.29	6692.1	
656.47	4978.6	
656.66	6782.2	
656.85	7010.2	
657.03	7059.3	
657.22	5565	
657.41	5582.1	
657.59	7094.2	
657.78	6949.4	
657.97	5227.8	
658.16	6068.8	
658.34	7869.7	
658.53	8310	
658.72	6952.9	
658.9	7626	
659.09	7167.2	
659.28	7320.1	
659.46	5801.2	
659.65	5743.2	
659.84	7030.7	
660.02	7580.2	
660.21	5552.7	
660.4	5526.1	
660.58	8101.1	
660.77	7385.7	
660.96	6207.4	
661.14	5236	
661.33	8615.8	
661.52	8510	
661.7	5203.9	
661.89	9252	
662.08	6975.4	
662.26	6559	
662.45	5487.9	
662.64	5591	
662.82	7797.3	
663.01	6898.2	
663.2	5604.6	
663.38	6466.8	
663.57	7602.7	
663.75	7535.8	
663.94	5911.8	
664.13	7354.9	
664.31	6928.3	
664.5	7730.4	
664.69	6399.9	
664.87	6902.3	
665.06	6701.6	
665.25	7524.2	
665.43	7134.4	
665.62	7206.1	
665.8	7862.8	
665.99	7107.1	
666.18	5982.1	
666.36	6089.3	
666.55	7825.3	
666.74	7711.3	
666.92	5598.5	
667.11	7342.7	
667.29	7099.6	
667.48	7833.5	
667.67	6951.5	
667.85	6025.1	
668.04	7182.2	
668.22	7176.1	
668.41	6096.8	
668.6	6162.3	
668.78	6921.5	
668.97	7247.1	
669.15	6483.2	
669.34	5300.8	
669.53	6968.6	
669.71	7331	
669.9	5563.6	
670.08	6252.4	
670.27	6993.1	
670.46	7600	
670.64	6460	
670.83	6706.4	
671.01	6827.2	
671.2	7511.9	
671.38	5568.4	
671.57	5427.8	
671.76	8170.7	
671.94	8776.2	
672.13	5439.4	
672.31	6586.3	
672.5	7706.5	
672.69	6931.7	
672.87	5612.1	
673.06	5949.3	
673.24	7557	
673.43	7066.2	
673.61	6451.8	
673.8	5932.3	
673.98	7762.5	
674.17	7918.8	
674.36	6586.3	
674.54	6348	
674.73	7488.1	
674.91	7707.9	
675.1	6117.3	
675.28	5687.9	
675.47	7236.2	
675.65	7806.9	
675.84	5879	
676.03	6305.7	
676.21	6995.2	
676.4	6471.6	
676.58	6790.4	
676.77	6583.5	
676.95	8518.9	
677.14	6936.5	
677.32	5582.1	
677.51	5371.1	
677.69	7718.1	
677.88	6485.9	
678.06	5390.3	
678.25	5544.5	
678.44	7229.3	
678.62	6923.5	
678.81	5249.6	
678.99	6297.5	
679.18	8145.5	
679.36	7611.6	
679.55	5813.5	
679.73	6500.9	
679.92	7608.9	
680.1	6913.3	
680.29	7137.9	
680.47	5853.1	
680.66	6939.2	
680.84	7742	
681.03	5012.1	
681.21	6301.6	
681.4	6965.1	
681.58	6820.4	
681.77	5589.6	
681.95	5473.5	
682.14	7820.5	
682.32	8245.1	
682.51	6518	
682.69	5225.1	
682.88	6745.3	
683.06	7610.9	
683.25	6162.3	
683.43	6708.5	
683.62	7071	
683.8	7582.9	
683.99	6794.5	
684.17	5954.1	
684.36	8487.5	
684.54	7023.9	
684.73	4981.3	
684.91	5225.7	
685.1	7247.1	
685.28	6609.5	
685.46	5801.9	
685.65	5907.7	
685.83	7451.2	
686.02	6737.8	
686.2	5184.8	
686.39	5366.4	
686.57	6655.9	
686.76	8215.1	
686.94	5297.4	
687.13	5483.1	
687.31	7333.8	
687.5	6836.8	
687.68	4883.7	
687.86	6249	
688.05	8641.1	
688.23	6174.6	
688.42	6301.6	
688.6	5454.4	
688.79	6888	
688.97	6677.1	
689.16	5851.7	
689.34	4712.4	
689.52	7499.7	
689.71	7720.2	
689.89	6077	
690.08	5298.1	
690.26	6974	
690.45	6784.9	
690.63	6318.7	
690.81	5433.3	
691	6564.4	
691.18	6578.8	
691.37	5572.5	
691.55	8013.7	
691.74	6492.1	
691.92	8718.9	
692.1	5638.1	
692.29	5045.5	
692.47	6771.3	
692.66	6015.6	
692.84	5291.3	
693.02	6032.6	
693.21	6160.3	
693.39	6804.7	
693.58	6077	
693.76	5414.8	
693.94	8172.8	
694.13	7845.8	
694.31	5400.5	
694.5	6679.8	
694.68	6735.8	
694.86	7155.6	
695.05	5937.1	
695.23	6051.1	
695.42	7507.2	
695.6	10080	
695.78	6518.7	
695.97	5586.9	
696.15	7610.3	
696.34	6879.1	
696.52	5317.2	
696.7	6110.5	
696.89	7297.6	
697.07	6561.7	
697.25	6120	
697.44	7829.4	
697.62	7131	
697.81	7598.6	
697.99	5666	
698.17	6282.5	
698.36	6394.4	
698.54	7191.1	
698.72	6077.7	
698.91	5018.2	
699.09	6725.5	
699.28	6698.9	
699.46	5743.9	
699.64	5651	
699.83	6532.3	
700.01	8080.6	
700.19	6563.7	
700.38	4886.5	
700.56	7994.6	
700.74	6877.8	
700.93	5442.1	
701.11	6365.1	
701.29	7453.2	
701.48	8643.1	
701.66	5620.3	
701.84	5739.1	
702.03	6968.6	
702.21	7685.3	
702.39	5228.5	
702.58	5885.9	
702.76	7359	
702.94	7555	
703.13	5226.4	
703.31	7884	
703.49	6657.3	
703.68	7832.1	
703.86	5440.8	
704.04	6549.4	
704.23	7307.8	
704.41	7745.4	
704.59	5662	
704.78	7122.2	
704.96	8498.4	
705.14	7846.5	
705.33	5492.7	
705.51	6374	
705.69	7203.4	
705.87	8135.9	
706.06	6725.5	
706.24	5501.5	
706.42	7519.5	
706.61	7931.1	
706.79	6767.2	
706.97	5575.3	
707.16	7031.4	
707.34	7687.4	
707.52	6793.1	
707.7	5863.3	
707.89	7206.1	
708.07	6873.7	
708.25	6873.7	
708.44	6851.1	
708.62	7236.8	
708.8	8407.6	
708.98	7206.8	
709.17	5942.5	
709.35	7619.8	
709.53	7680.6	
709.72	5707.7	
709.9	5867.4	
710.08	7940.7	
710.26	7986.4	
710.45	7520.8	
710.63	5990.3	
710.81	7647.1	
710.99	7611.6	
711.18	6756.2	
711.36	6234	
711.54	7342	
711.72	8140	
711.91	6284.5	
712.09	5529.5	
712.27	7421.8	
712.45	8718.2	
712.64	6403.3	
712.82	5265.3	
713	6808.8	
713.18	6904.4	
713.37	5252.4	
713.55	6599.2	
713.73	7709.2	
713.91	6201.9	
714.1	5571.8	
714.28	4886.5	
714.46	7221.1	
714.64	6379.4	
714.83	4273.4	
715.01	5209.3	
715.19	6340.5	
715.37	5874.9	
715.55	4859.1	
715.74	5248.3	
715.92	7419.8	
716.1	5328.8	
716.28	6393.1	
716.47	5397.1	
716.65	6037.4	
716.83	6219	
717.01	5310.4	
717.19	5374.6	
717.38	8482	
717.56	5808.7	
717.74	5600.5	
717.92	4713.1	
718.1	7317.4	
718.29	6436.1	
718.47	4388.1	
718.65	5147.2	
718.83	7312.6	
719.01	7101	
719.2	4308.2	
719.38	5494.7	
719.56	6862.7	
719.74	8548.9	
719.92	5029.1	
720.11	6113.9	
720.29	6825.9	
720.47	5796.4	
720.65	4433.9	
720.83	5382.7	
721.02	6206.7	
721.2	5901.6	
721.38	5459.2	
721.56	4676.2	
721.74	5436	
721.92	5692.7	
722.11	6023.8	
722.29	5751.4	
722.47	7019.1	
722.65	6052.4	
722.83	4696.7	
723.01	5742.5	
723.2	6213.5	
723.38	6526.2	
723.56	4123.9	
723.74	5324.7	
723.92	5692.7	
724.1	7057.3	
724.29	4572.4	
724.47	5904.3	
724.65	5797.1	
724.83	5770.5	
725.01	4513	
725.19	5571.2	
725.37	5819	
725.56	5920.7	
725.74	4425.7	
725.92	4674.8	
726.1	5733.6	
726.28	6043.6	
726.46	5197.7	
726.64	4909.7	
726.83	6057.2	
727.01	6366.5	
727.19	4356	
727.37	5277.6	
727.55	6135	
727.73	6769.2	
727.91	4459.8	
728.09	4272.1	
728.28	6845	
728.46	7527	
728.64	5564.3	
728.82	5504.3	
729	8250.6	
729.18	7358.4	
729.36	4833.9	
729.54	7397.9	
729.72	8556.4	
729.91	6770.6	
730.09	6991.8	
730.27	5682.4	
730.45	6621.1	
730.63	7371.3	
730.81	6373.3	
730.99	5348.6	
731.17	7980.3	
731.35	6423.1	
731.53	5956.2	
731.71	5456.5	
731.9	7666.2	
732.08	7952.9	
732.26	5694	
732.44	5377.3	
732.62	7869	
732.8	7381.6	
732.98	6230.6	
733.16	5134.9	
733.34	7258	
733.52	6007.4	
733.7	5769.1	
733.88	6122.7	
734.07	7291.5	
734.25	7013.6	
734.43	5191.6	
734.61	6939.9	
734.79	8710	
734.97	6877.8	
735.15	5439.4	
735.33	5765	
735.51	7259.4	
735.69	6911.2	
735.87	7085.3	
736.05	6047.7	
736.23	7200.7	
736.41	6950.1	
736.59	5894.1	
736.77	6085.9	
736.95	7819.8	
737.13	7182.9	
737.32	5634.6	
737.5	5868.1	
737.68	8339.3	
737.86	7071.6	
738.04	5442.8	
738.22	7479.9	
738.4	6890	
738.58	7238.2	
738.76	6214.2	
738.94	5097.4	
739.12	6965.8	
739.3	6869.6	
739.48	6922.1	
739.66	6630	
739.84	7398.6	
740.02	7431.4	
740.2	5228.5	
740.38	5567.1	
740.56	7863.5	
740.74	6610.2	
740.92	6318	
741.1	6220.4	
741.28	7193.1	
741.46	7066.2	
741.64	5847	
741.82	6423.1	
742	7236.8	
742.18	7282.6	
742.36	6142.5	
742.54	5627.1	
742.72	7920.9	
742.9	6577.4	
743.08	6585.6	
743.26	5197.1	
743.44	8152.3	
743.62	7944.8	
743.8	6749.4	
743.98	5648.3	
744.16	7625.3	
744.34	7301.7	
744.52	6631.3	
744.7	6541.9	
744.88	7755.7	
745.06	7280.5	
745.24	6658.6	
745.42	6795.8	
745.6	7849.2	
745.78	7617.8	
745.96	5397.8	
746.14	5692.7	
746.32	8625.4	
746.5	7843.7	
746.68	6341.9	
746.86	5725.4	
747.03	8338.6	
747.21	6407.4	
747.39	6348.7	
747.57	5733.6	
747.75	7424.6	
747.93	7834.2	
748.11	5748.6	
748.29	5696.1	
748.47	9187.9	
748.65	7157	
748.83	6533.7	
749.01	6212.2	
749.19	7683.3	
749.37	6713.9	
749.55	6132.3	
749.73	6177.4	
749.91	7323.5	
750.09	7006.1	
750.26	6173.3	
750.44	5514.5	
750.62	7297.6	
750.8	7252.5	
750.98	5421	
751.16	5715.2	
751.34	7395.9	
751.52	6724.8	
751.7	6657.3	
751.88	5380.7	
752.06	7916.1	
752.24	7709.9	
752.42	5341.1	
752.59	5728.2	
752.77	7256.6	
752.95	8707.3	
753.13	6509.1	
753.31	5874.9	
753.49	6862.7	
753.67	7460.8	
753.85	6165.1	
754.03	5722.7	
754.21	7680.6	
754.38	8129.8	
754.56	5870.2	
754.74	4760.8	
754.92	6773.3	
755.1	7494.2	
755.28	4636.6	
755.46	4480.3	
755.64	7888.8	
755.82	7947.5	
755.99	4448.2	
756.17	4668.7	
756.35	5091.9	
756.53	6832	
756.71	3369.6	
756.89	4432.5	
757.07	6351.4	
757.25	5399.8	
757.42	5005.2	
757.6	6044.9	
757.78	6547.4	
757.96	5421.7	
758.14	4831.8	
758.32	4204.5	
758.5	4842.1	
758.67	5816.9	
758.85	4564.9	
759.03	4626.4	
759.21	5975.3	
759.39	5323.4	
759.57	4024.3	
759.75	5352	
759.92	6711.9	
760.1	5905.7	
760.28	5760.3	
760.46	6028.5	
760.64	5737.7	
760.82	5458.5	
760.99	5741.8	
761.17	4838	
761.35	6790.4	
761.53	5695.4	
761.71	5111	
761.89	5799.2	
762.06	6739.9	
762.24	6225.1	
762.42	5132.2	
762.6	4986.1	
762.78	6289.3	
762.96	7044.3	
763.13	5704.3	
763.31	5395	
763.49	7406.1	
763.67	6335.7	
763.85	6292	
764.02	7002	
764.2	7587	
764.38	6756.2	
764.56	5239.4	
764.74	6341.2	
764.91	7785.7	
765.09	6551.5	
765.27	4975.9	
765.45	4788.8	
765.63	7782.3	
765.8	7673.1	
765.98	4459.8	
766.16	4855.1	
766.34	6115.9	
766.52	5894.1	
766.69	5931.6	
766.87	4679.6	
767.05	6531	
767.23	7449.1	
767.41	5031.9	
767.58	5298.1	
767.76	7159	
767.94	7240.9	
768.12	5104.9	
768.29	6031.3	
768.47	6595.8	
768.65	7416.4	
768.83	4684.4	
769	5986.2	
769.18	6121.4	
769.36	6847.7	
769.54	5744.6	
769.72	4668	
769.89	7154.9	
770.07	7330.4	
770.25	5031.2	
770.43	6480.5	
770.6	8028	
770.78	8451.3	
770.96	5240.1	
771.14	5986.2	
771.31	7014.3	
771.49	6335.7	
771.67	4317.8	
771.85	4630.5	
772.02	5524.1	
772.2	6278.4	
772.38	5499.5	
772.55	4812	
772.73	6608.8	
772.91	6300.9	
773.09	5247.6	
773.26	5285.8	
773.44	6482.5	
773.62	6126.2	
773.8	4693.3	
773.97	4435.9	
774.15	6558.3	
774.33	6158.9	
774.5	4531.5	
774.68	4959.5	
774.86	6780.1	
775.04	6144.6	
775.21	4675.5	
775.39	4591.5	
775.57	6378.1	
775.74	6851.1	
775.92	4420.2	
776.1	4331.5	
776.27	6429.3	
776.45	7742.7	
776.63	4586.8	
776.81	4037.2	
776.98	5922	
777.16	7217.7	
777.34	4795.7	
777.51	5104.9	
777.69	5963.7	
777.87	5760.3	
778.04	4710.3	
778.22	5442.1	
778.4	5773.9	
778.57	6463.4	
778.75	3955.3	
778.93	4298.7	
779.1	5472.2	
779.28	5341.1	
779.46	3903.4	
779.64	4458.4	
779.81	6636.1	
779.99	7595.2	
780.17	5326.8	
780.34	5405.3	
780.52	5997.8	
780.69	6273.6	
780.87	4727.4	
781.05	4364.2	
781.22	6012.8	
781.4	6092.7	
781.58	4474.1	
781.75	3524.6	
781.93	6024.4	
782.11	5402.5	
782.28	5431.2	
782.46	4461.8	
782.64	5256.5	
782.81	6182.1	
782.99	4500.1	
783.17	4443.4	
783.34	6089.3	
783.52	5180	
783.69	4758.8	
783.87	5577.3	
784.05	5412.1	
784.22	5328.1	
784.4	5537.7	
784.58	4756.7	
784.75	6314.6	
784.93	5358.9	
785.1	4377.2	
785.28	5072.1	
785.46	6015.6	
785.63	5335	
785.81	4315.8	
785.99	4226.3	
786.16	5425.8	
786.34	5870.8	
786.51	4229.7	
786.69	4674.8	
786.87	5038	
787.04	5571.2	
787.22	3635.1	
787.39	5149.3	
787.57	5236	
787.75	6518.7	
787.92	5309	
788.1	5010	
788.27	5312.4	
788.45	5061.2	
788.63	4988.9	
788.8	3532.1	
788.98	5923.4	
789.15	4969.1	
789.33	3650.2	
789.5	4399.7	
789.68	6387.6	
789.86	6462	
790.03	4601.1	
790.21	4201.1	
790.38	6235.4	
790.56	5445.5	
790.73	4040	
790.91	4092.5	
791.09	5279.7	
791.26	6169.8	
791.44	4290.5	
791.61	3730.7	
791.79	5309	
791.96	5402.5	
792.14	3796.9	
792.32	3409.2	
792.49	5253	
792.67	5351.3	
792.84	3872.7	
793.02	3714.3	
793.19	5738.4	
793.37	6504.3	
793.54	3451.5	
793.72	3805.1	
793.89	6707.1	
794.07	5285.1	
794.25	4451.6	
794.42	3481.5	
794.6	6432	
794.77	5981.4	
794.95	4700.1	
795.12	4150.5	
795.3	5255.8	
795.47	5973.2	
795.65	4572.4	
795.82	4353.3	
796	5053.7	
796.17	7193.8	
796.35	4179.9	
796.52	5009.3	
796.7	5816.9	
796.87	5986.9	
797.05	5246.9	
797.22	5205.9	
797.4	5939.1	
797.57	7068.9	
797.75	4366.3	
797.92	4150.5	
798.1	6247	
798.27	5251	
798.45	3515	
798.62	3805.8	
798.8	5560.9	
798.97	6148	
799.15	4591.5	
799.32	4390.2	
799.5	4759.5	
799.67	5649	
799.85	4742.4	
800.02	3355.9	
800.2	5195.7	
800.37	5580.7	
800.55	4907.6	
800.72	4048.2	
800.9	6042.9	
801.07	6574.7	
801.25	5495.4	
801.42	4494.6	
801.6	6173.9	
801.77	5814.9	
801.95	4034.5	
802.12	3930.7	
802.29	5830.6	
802.47	5791	
802.64	4380.6	
802.82	3332	
802.99	5122	
803.17	6316.6	
803.34	4315.1	
803.52	3865.9	
803.69	7019.1	
803.87	4960.9	
804.04	4270	
804.21	4327.4	
804.39	6285.2	
804.56	5408.7	
804.74	3600.3	
804.91	4481	
805.09	5208.7	
805.26	5363.6	
805.44	3673.4	
805.61	4121.2	
805.78	5961.6	
805.96	5975.3	
806.13	4505.5	
806.31	4830.5	
806.48	4702.8	
806.66	5308.3	
806.83	4502.8	
807	4339.6	
807.18	5190.9	
807.35	5601.9	
807.53	4304.8	
807.7	3399.6	
807.87	6501.6	
808.05	5229.1	
808.22	4831.8	
808.4	3461.1	
808.57	5315.8	
808.74	4881	
808.92	4001	
809.09	5085.1	
809.27	5075.5	
809.44	5793	
809.61	3458.3	
809.79	3850.9	
809.96	6484.6	
810.14	6113.9	
810.31	3373	
810.48	4188.1	
810.66	5375.2	
810.83	6176.7	
811.01	4027	
811.18	4721.9	
811.35	6032	
811.53	4653.7	
811.7	4887.8	
811.87	4528.1	
812.05	5237.3	
812.22	5180	
812.39	3810.6	
812.57	3719.1	
812.74	5251.7	
812.92	7111.2	
813.09	4179.2	
813.26	4536.3	
813.44	6788.3	
813.61	5162.2	
813.78	3422.8	
813.96	4689.8	
814.13	5220.3	
814.3	4882.4	
814.48	5057.1	
814.65	4154.6	
814.82	6546.7	
815	5060.5	
815.17	4283.7	
815.34	5266	
815.52	5167	
815.69	5201.8	
815.87	4237.9	
816.04	3617.4	
816.21	5263.3	
816.38	4599.7	
816.56	4059.8	
816.73	3758	
816.9	6661.4	
817.08	6056.5	
817.25	3859.1	
817.42	4915.1	
817.6	4745.1	
817.77	5272.8	
817.94	4419.5	
818.12	3770.3	
818.29	4990.2	
818.46	7969.3	
818.64	3966.2	
818.81	3696.6	
818.98	4896	
819.16	7228	
819.33	4614.8	
819.5	4324.6	
819.67	5678.3	
819.85	6397.2	
820.02	4177.9	
820.19	4491.9	
820.37	5481.7	
820.54	5007.3	
820.71	4387.4	
820.88	5470.1	
821.06	5544.5	
821.23	5068	
821.4	4483.7	
821.58	4267.3	
821.75	6063.4	
821.92	5376.6	
822.09	3502.7	
822.27	3738.9	
822.44	5246.2	
822.61	5197.7	
822.79	3502	
822.96	6883.9	
823.13	5855.8	
823.3	4937	
823.48	4082.3	
823.65	3700	
823.82	6026.5	
823.99	4767	
824.17	5212.8	
824.34	3706.1	
824.51	7060.7	
824.68	5322	
824.86	3943.7	
825.03	4328.7	
825.2	5194.3	
825.37	6479.8	
825.55	3763.5	
825.72	4286.4	
825.89	7150.1	
826.06	6514.6	
826.24	4258.4	
826.41	4158.7	
826.58	6420.4	
826.75	5604.6	
826.92	3283.6	
827.1	3633.1	
827.27	8879.3	
827.44	7035.5	
827.61	3981.9	
827.79	4788.2	
827.96	4983.4	
828.13	5332.9	
828.3	4177.9	
828.47	3487	
828.65	5458.5	
828.82	5398.4	
828.99	5416.2	
829.16	4767.7	
829.34	5867.4	
829.51	5618.3	
829.68	4326	
829.85	4499.4	
830.02	6176.7	
830.2	5909.8	
830.37	3284.3	
830.54	5195.7	
830.71	6812.9	
830.88	5171.8	
831.05	3386.7	
831.23	3935.5	
831.4	6455.9	
831.57	7333.1	
831.74	4002.4	
831.91	3492.5	
832.09	5496.1	
832.26	5872.2	
832.43	4175.8	
832.6	4695.3	
832.77	5457.2	
832.94	6315.3	
833.12	3296.5	
833.29	4079.6	
833.46	5206.6	
833.63	7589.8	
833.8	4553.3	
833.97	4141.7	
834.15	5936.4	
834.32	5598.5	
834.49	4310.3	
834.66	4418.8	
834.83	6189.6	
835	4909.7	
835.17	3994.9	
835.35	4062.5	
835.52	5796.4	
835.69	5700.2	
835.86	4251.6	
836.03	3455.6	
836.2	5838.1	
836.37	5463.3	
836.55	4064.5	
836.72	3898.6	
836.89	5408	
837.06	5886.5	
837.23	4235.2	
837.4	4655	
837.57	6744.6	
837.75	7636.9	
837.92	3807.9	
838.09	4090.5	
838.26	5408.7	
838.43	6209.4	
838.6	4373.8	
838.77	3885	
838.94	7185	
839.11	6862.7	
839.29	4093.2	
839.46	3252.2	
839.63	5745.2	
839.8	5543.9	
839.97	4032.5	
840.14	3991.5	
840.31	5608	
840.48	5907	
840.65	3283.6	
840.82	3907.5	
841	5855.8	
841.17	5808.7	
841.34	3710.9	
841.51	3802.4	
841.68	5792.3	
841.85	5502.9	
842.02	3840.6	
842.19	3186	
842.36	5597.1	
842.53	5546.6	
842.7	3681.6	
842.87	4568.3	
843.05	7486	
843.22	5593.7	
843.39	3464.5	
843.56	3871.3	
843.73	5315.2	
843.9	5941.2	
844.07	6140.5	
844.24	5076.9	
844.41	8877.3	
844.58	5095.3	
844.75	3580.5	
844.92	3813.3	
845.09	5872.9	
845.26	5904.3	
845.43	3669.3	
845.6	3898	
845.77	5864	
845.94	5534.3	
846.12	4072.7	
846.29	4315.8	
846.46	6111.1	
846.63	5907.7	
846.8	3682.2	
846.97	4388.1	
847.14	6362.4	
847.31	5789.6	
847.48	4119.1	
847.65	4601.8	
847.82	6191	
847.99	6108.4	
848.16	4971.1	
848.33	4590.9	
848.5	5396.4	
848.67	6464.1	
848.84	3691.8	
849.01	3799.7	
849.18	5199.8	
849.35	4904.2	
849.52	4650.9	
849.69	3602.4	
849.86	6046.3	
850.03	6404	
850.2	3725.3	
850.37	4510.3	
850.54	6250.4	
850.71	5507.7	
850.88	4415.4	
851.05	3601.7	
851.22	5743.2	
851.39	6530.3	
851.56	3435.8	
851.73	4223.6	
851.9	5160.9	
852.07	6146	
852.24	4087.7	
852.41	3690.4	
852.58	5707	
852.75	5205.9	
852.92	4108.2	
853.09	3571.7	
853.26	5455.8	
853.43	6374	
853.6	3599.6	
853.77	3112.9	
853.94	6422.4	
854.11	5851.7	
854.28	5497.4	
854.44	3943.7	
854.61	6965.1	
854.78	5967.8	
854.95	3618.1	
855.12	4609.3	
855.29	4754.7	
855.46	6501.6	
855.63	3676.8	
855.8	5118.6	
855.97	5489.2	
856.14	6257.2	
856.31	5183.4	
856.48	3988.8	
856.65	5431.9	
856.82	5095.3	
856.99	3528	
857.16	3956.7	
857.33	7219.8	
857.49	5479	
857.66	3973.1	
857.83	4289.1	
858	5432.6	
858.17	5642.2	
858.34	3490.4	
858.51	3645.4	
858.68	6692.1	
858.85	6716.7	
859.02	4281.6	
859.19	4556.7	
859.36	5109.7	
859.52	5150.6	
859.69	3737.5	
859.86	4243.4	
860.03	5169.8	
860.2	6460.7	
860.37	3317	
860.54	3710.2	
860.71	6135.7	
860.88	6565.1	
861.05	4141.7	
861.21	4655	
861.38	6574.7	
861.55	5048.2	
861.72	3351.2	
861.89	4149.9	
862.06	6195.8	
862.23	6724.8	
862.4	3538.9	
862.56	3870	
862.73	5988.3	
862.9	5654.4	
863.07	4313	
863.24	3317	
863.41	5031.2	
863.58	5115.8	
863.75	3741.6	
863.91	4275.5	
864.08	6522.1	
864.25	6021	
864.42	4643.4	
864.59	5186.1	
864.76	6942.6	
864.93	5216.2	
865.09	3560.1	
865.26	3974.4	
865.43	6408.8	
865.6	6848.4	
865.77	3193.5	
865.94	3678.8	
866.1	6511.9	
866.27	6185.5	
866.44	5602.6	
866.61	3428.3	
866.78	5575.3	
866.95	6025.1	
867.11	3523.9	
867.28	3218.7	
867.45	6229.9	
867.62	5204.6	
867.79	4271.4	
867.96	3627.6	
868.12	5136.3	
868.29	6193.1	
868.46	3636.5	
868.63	4911.7	
868.8	6365.8	
868.97	6066.1	
869.13	3822.9	
869.3	3902.1	
869.47	6025.8	
869.64	6272.2	
869.81	3620.1	
869.97	3639.2	
870.14	5892.7	
870.31	6644.3	
870.48	3585.3	
870.65	4633.9	
870.81	5471.5	
870.98	5408.7	
871.15	4192.9	
871.32	3801.7	
871.48	6011.5	
871.65	6641.6	
871.82	3683.6	
871.99	4054.3	
872.16	7182.2	
872.32	6496.8	
872.49	3686.3	
872.66	3724.6	
872.83	6218.3	
872.99	5314.5	
873.16	4199.7	
873.33	3605.1	
873.5	5715.9	
873.67	5815.5	
873.83	3852.2	
874	4923.3	
874.17	5854.5	
874.34	7035.5	
874.5	4749.2	
874.67	4677.6	
874.84	6595.8	
875.01	5129.5	
875.17	5189.6	
875.34	3672	
875.51	5794.4	
875.68	7031.4	
875.84	4482.3	
876.01	5456.5	
876.18	6068.8	
876.34	6029.9	
876.51	3654.9	
876.68	3594.9	
876.85	5612.8	
877.01	6461.3	
877.18	5307.7	
877.35	3633.8	
877.52	5636	
877.68	5042.8	
877.85	3520.5	
878.02	3578.5	
878.18	5601.9	
878.35	5343.8	
878.52	2884.9	
878.69	4136.2	
878.85	6122.7	
879.02	6072.9	
879.19	5298.8	
879.35	3959.4	
879.52	6030.6	
879.69	6389	
879.86	3134.1	
880.02	4160.1	
880.19	5618.3	
880.36	6882.5	
880.52	4205.2	
880.69	4389.5	
880.86	6177.4	
881.02	6262.7	
881.19	4054.3	
881.36	3991.5	
881.52	6045.6	
881.69	5319.9	
881.86	3899.3	
882.02	3862.5	
882.19	6432.7	
882.36	7510.6	
882.52	3734.8	
882.69	5251.7	
882.86	5868.1	
883.02	5754.1	
883.19	4555.4	
883.36	4255	
883.52	6174.6	
883.69	7094.8	
883.86	3745.1	
884.02	3239.9	
884.19	6150.7	
884.36	5604.6	
884.52	4174.4	
884.69	3864.5	
884.86	5407.3	
885.02	6819.1	
885.19	4101.4	
885.36	4315.1	
885.52	5707	
885.69	5817.6	
885.86	5341.8	
886.02	4758.1	
886.19	6111.8	
886.35	5541.8	
886.52	4076.1	
886.69	5162.2	
886.85	5171.8	
887.02	6564.4	
887.19	6564.4	
887.35	6564.4	
887.52	6564.4	
887.68	6564.4	
887.85	6564.4	
888.02	6564.4	
888.18	6564.4	
888.35	6564.4	
888.51	6564.4	
888.68	6564.4	
888.85	6564.4	
889.01	6564.4	
889.18	6564.4	
889.35	6564.4	
889.51	6564.4	
889.68	6564.4	
889.84	6564.4	
890.01	6564.4	
890.17	6564.4	
890.34	6564.4	
890.51	6564.4	
890.67	6564.4	
890.84	6564.4	
891	6564.4	
891.17	6564.4	
891.34	6564.4	
891.5	6564.4	
891.67	6564.4	
891.83	6564.4	
892	6564.4	
892.16	6564.4	
892.33	6564.4	
892.5	6564.4	
892.66	6564.4	
892.83	6564.4	
892.99	6564.4	
893.16	6564.4	
893.32	6564.4	
893.49	6564.4	
893.65	6564.4	
893.82	6564.4	
893.99	6564.4	
894.15	6564.4	
894.32	6564.4	
894.48	6564.4	
894.65	6564.4	
894.81	6564.4	
894.98	6564.4	
895.14	6564.4	
895.31	6564.4	
895.47	6564.4	
895.64	6564.4	
895.81	6564.4	
895.97	6564.4	
896.14	6564.4	
896.3	6564.4	
896.47	6564.4	
896.63	6564.4	
896.8	6564.4	
896.96	6564.4	
897.13	6564.4	
897.29	6564.4	
897.46	6564.4	
897.62	6564.4	
897.79	6564.4	
897.95	6564.4	
898.12	6564.4	
898.28	6564.4	
898.45	6564.4	
898.61	6564.4	
898.78	6564.4	
898.94	6564.4	
899.11	6564.4	
899.27	6564.4	
899.44	6564.4	
899.6	6564.4	
899.77	6564.4	
899.93	6564.4	
900.1	6564.4	
900.26	6564.4	
900.43	6564.4	
900.59	6564.4	
900.76	6564.4	
900.92	6564.4	
901.09	6564.4	
901.25	6564.4	
901.42	6564.4	
901.58	6564.4	
901.75	6564.4	
901.91	6564.4	
902.07	6564.4	
902.24	6564.4	
902.4	6564.4	
902.57	6564.4	
902.73	6564.4	
902.9	6564.4	
903.06	6564.4	
903.23	6564.4	
903.39	6564.4	
903.56	6564.4	
903.72	6564.4	
903.88	6564.4	
904.05	6564.4	
904.21	6564.4	
904.38	6564.4	
904.54	6564.4	
904.71	6564.4	
904.87	6564.4	
905.03	6564.4	
905.2	6564.4	
905.36	6564.4	
905.53	6564.4	
905.69	6564.4	
905.86	6564.4	
906.02	6564.4	
906.18	6564.4	
906.35	6564.4	
906.51	6564.4	
906.68	6564.4	
906.84	6564.4	
907.01	6564.4	
907.17	6564.4	
907.33	6564.4	
907.5	6564.4	
907.66	6564.4	
907.83	6564.4	
907.99	6564.4	
908.15	6564.4	
908.32	6564.4	
908.48	6564.4	
908.65	6564.4	
908.81	6564.4	
908.97	6564.4	
909.14	6564.4	
909.3	6564.4	
909.47	6564.4	
909.63	6564.4	
909.79	6564.4	
909.96	6564.4	
910.12	6564.4	
910.28	6564.4	
910.45	6564.4	
910.61	6564.4	
910.78	6564.4	
910.94	6564.4	
911.1	6564.4	
911.27	6564.4	
911.43	6564.4	
911.59	6564.4	
911.76	6564.4	
911.92	6564.4	
912.08	6564.4	
912.25	6564.4	
912.41	6564.4	
912.57	6564.4	
912.74	6564.4	
912.9	6564.4	
913.07	6564.4	
913.23	6564.4	
913.39	6564.4	
913.56	6564.4	
913.72	6564.4	
913.88	6564.4	
914.05	6564.4	
914.21	6564.4	
914.37	6564.4	
914.54	6564.4	
914.7	6564.4	
914.86	6564.4	
915.03	6564.4	
915.19	6564.4	
