Wavelength	Intensities	
nm	a.u.	
179.22	1913.7	
179.44	1909	
179.65	1918.3	
179.86	1899.8	
180.08	1925.8	
180.29	4989.5	
180.51	3540.3	
180.72	5737	
180.94	6677.1	
181.15	3274.7	
181.37	3188.7	
181.58	5528.8	
181.79	5879	
182.01	3478.8	
182.22	3637.2	
182.44	5870.8	
182.65	4835.3	
182.87	4611.3	
183.08	4092.5	
183.29	6059.3	
183.51	5046.2	
183.72	3696.6	
183.94	5467.4	
184.15	5439.4	
184.37	5457.2	
184.58	3235.1	
184.79	4476.9	
185.01	5034.6	
185.22	5829.9	
185.44	4744.5	
185.65	4013.3	
185.86	5350.7	
186.08	4915.8	
186.29	3168.2	
186.51	3392.8	
186.72	5057.1	
186.94	5972.6	
187.15	3963.5	
187.36	4065.2	
187.58	7899.7	
187.79	5537	
188.01	4272.1	
188.22	6682.5	
188.43	6728.9	
188.65	5765	
188.86	3392.1	
189.08	4080.9	
189.29	5260.5	
189.5	5261.2	
189.72	3730.7	
189.93	3855	
190.15	6029.9	
190.36	7189.1	
190.57	4203.8	
190.79	4012	
191	6202.6	
191.22	6043.6	
191.43	4166.3	
191.64	3399.6	
191.86	6307.7	
192.07	6072.2	
192.29	3530	
192.5	3747.8	
192.71	6050.4	
192.93	5184.1	
193.14	3733.4	
193.35	3867.2	
193.57	5258.5	
193.78	6081.1	
194	3004.4	
194.21	3661.8	
194.42	4989.5	
194.64	5525.4	
194.85	4062.5	
195.07	4783.4	
195.28	5510.4	
195.49	4709	
195.71	5059.2	
195.92	3537.5	
196.13	5686.5	
196.35	5769.1	
196.56	5410.7	
196.78	4072.7	
196.99	7144.7	
197.2	6675	
197.42	4681.7	
197.63	4130.1	
197.84	4870.8	
198.06	5583.4	
198.27	3755.3	
198.48	5048.2	
198.7	5222.3	
198.91	5326.8	
199.13	4184.7	
199.34	4162.2	
199.55	5820.3	
199.77	4685.1	
199.98	3636.5	
200.19	4202.4	
200.41	5407.3	
200.62	5044.8	
200.83	4326.7	
201.05	4635.9	
201.26	5341.1	
201.47	5083.1	
201.69	3661.1	
201.9	3479.5	
202.11	5466	
202.33	6451.8	
202.54	3910.9	
202.76	4309.6	
202.97	5679	
203.18	5582.1	
203.4	4275.5	
203.61	4129.4	
203.82	5539.1	
204.04	5092.6	
204.25	4175.8	
204.46	4078.9	
204.68	5488.6	
204.89	5720.7	
205.1	4040.6	
205.32	3525.9	
205.53	5859.2	
205.74	6008.1	
205.96	2930.6	
206.17	4263.9	
206.38	5784.8	
206.6	5928.9	
206.81	4710.3	
207.02	3878.2	
207.24	5709.1	
207.45	6133.7	
207.66	3902.7	
207.88	3368.2	
208.09	5653.8	
208.3	5461.2	
208.52	3553.2	
208.73	3964.2	
208.94	5446.9	
209.15	6238.8	
209.37	3923.9	
209.58	4126	
209.79	6055.8	
210.01	5301.5	
210.22	3077.4	
210.43	3276.8	
210.65	5447.6	
210.86	5877.7	
211.07	3942.3	
211.29	3551.2	
211.5	5791	
211.71	5405.3	
211.93	3596.9	
212.14	3572.3	
212.35	5335	
212.56	5603.2	
212.78	4106.2	
212.99	3418.1	
213.2	6448.4	
213.42	5184.8	
213.63	3721.8	
213.84	4017.4	
214.06	4824.3	
214.27	4944.5	
214.48	3936.2	
214.69	4205.8	
214.91	6085.2	
215.12	6204.7	
215.33	4257	
215.55	4702.8	
215.76	6759.7	
215.97	5864	
216.18	4046.8	
216.4	3994.9	
216.61	5071.5	
216.82	5939.1	
217.04	3571	
217.25	3794.9	
217.46	6130.9	
217.67	5907.7	
217.89	3211.2	
218.1	3305.4	
218.31	5590.3	
218.53	5631.9	
218.74	3825.6	
218.95	3662.5	
219.16	5467.4	
219.38	6393.1	
219.59	3689.8	
219.8	4367.6	
220.01	7129	
220.23	5436	
220.44	4869.4	
220.65	3578.5	
220.87	5524.1	
221.08	6057.9	
221.29	3326.6	
221.5	4511	
221.72	7542	
221.93	5152	
222.14	4207.9	
222.35	4963.6	
222.57	5453.7	
222.78	5769.8	
222.99	3980.6	
223.2	4240	
223.42	5769.1	
223.63	5892.7	
223.84	3016.7	
224.05	2992.1	
224.27	7005.4	
224.48	6392.4	
224.69	4910.3	
224.9	4141.7	
225.12	5674.2	
225.33	5382.1	
225.54	3292.5	
225.75	3681.6	
225.97	4980	
226.18	5285.1	
226.39	3977.8	
226.6	3644.7	
226.82	5212.8	
227.03	5067.4	
227.24	4086.4	
227.45	3398.3	
227.67	5856.5	
227.88	6436.1	
228.09	4577.9	
228.3	4640.7	
228.52	5860.6	
228.73	5426.4	
228.94	3788.1	
229.15	3424.2	
229.36	5339.7	
229.58	5307	
229.79	3867.9	
230	4509.6	
230.21	6549.4	
230.43	5541.8	
230.64	4104.8	
230.85	4297.3	
231.06	5948	
231.28	5881.8	
231.49	3390.8	
231.7	3935.5	
231.91	5804.6	
232.12	5443.5	
232.34	3466.5	
232.55	4016.7	
232.76	6119.3	
232.97	5660.6	
233.18	3609.9	
233.4	4112.3	
233.61	5687.2	
233.82	5201.2	
234.03	3756	
234.25	3702.7	
234.46	7595.9	
234.67	5501.5	
234.88	4188.8	
235.09	3677.5	
235.31	5824.4	
235.52	5296.7	
235.73	4101.4	
235.94	3420.1	
236.15	5198.4	
236.37	6660	
236.58	3608.5	
236.79	3931.4	
237	5683.8	
237.21	4997.7	
237.43	4280.9	
237.64	3306.8	
237.85	10101	
238.06	5023	
238.27	4364.9	
238.48	3414.6	
238.7	5814.2	
238.91	5361.6	
239.12	3955.3	
239.33	3954.6	
239.54	5044.1	
239.76	5373.2	
239.97	3926.6	
240.18	3954.6	
240.39	6936.5	
240.6	5679	
240.82	4040	
241.03	3316.3	
241.24	5417.6	
241.45	6368.5	
241.66	3612.6	
241.87	4250.2	
242.09	6255.9	
242.3	6602	
242.51	4326	
242.72	3990.1	
242.93	5938.4	
243.14	5397.8	
243.36	4549.9	
243.57	4980	
243.78	6353.5	
243.99	5727.5	
244.2	3981.9	
244.41	3581.2	
244.63	4978.6	
244.84	5832.6	
245.05	4242.7	
245.26	3980.6	
245.47	5749.3	
245.68	6026.5	
245.9	5279	
246.11	4190.1	
246.32	5337	
246.53	5702.2	
246.74	6450.4	
246.95	3319.8	
247.16	4979.3	
247.38	5474.9	
247.59	3279.5	
247.8	3979.2	
248.01	5132.2	
248.22	5371.8	
248.43	3610.6	
248.64	3920.5	
248.86	4800.4	
249.07	5218.2	
249.28	3489.7	
249.49	4053.6	
249.7	5997.1	
249.91	6148.7	
250.12	3305.4	
250.34	3337.5	
250.55	5573.9	
250.76	5479	
250.97	4100.7	
251.18	4147.8	
251.39	6186.2	
251.6	5634	
251.81	4182	
252.03	4171	
252.24	5279	
252.45	5992.4	
252.66	3430.3	
252.87	4367	
253.08	5459.2	
253.29	7284.6	
253.5	3407.1	
253.72	4855.7	
253.93	5350.7	
254.14	6512.5	
254.35	3792.2	
254.56	3850.2	
254.77	5718.6	
254.98	5039.4	
255.19	3654.9	
255.41	4815.5	
255.62	5580	
255.83	6184.9	
256.04	4275.5	
256.25	4140.3	
256.46	6842.3	
256.67	5105.6	
256.88	4027	
257.09	4520.5	
257.31	5159.5	
257.52	5171.1	
257.73	5156.1	
257.94	3732.1	
258.15	5314.5	
258.36	5531.6	
258.57	4799.8	
258.78	2953.9	
258.99	5926.1	
259.2	5283.1	
259.41	3756	
259.63	3945.1	
259.84	6358.3	
260.05	6830.7	
260.26	5053	
260.47	3661.1	
260.68	6025.8	
260.89	5399.8	
261.1	4552.6	
261.31	3560.7	
261.52	6071.5	
261.73	6428.6	
261.95	4851	
262.16	4276.8	
262.37	6199.9	
262.58	6268.8	
262.79	4882.4	
263	3827.7	
263.21	5428.5	
263.42	4943.1	
263.63	3929.4	
263.84	3839.9	
264.05	6052.4	
264.26	6428.6	
264.47	4654.4	
264.69	4316.4	
264.9	6232.7	
265.11	5723.4	
265.32	3709.6	
265.53	3755.3	
265.74	5567.1	
265.95	4835.9	
266.16	4029	
266.37	4457.1	
266.58	5556.1	
266.79	5310.4	
267	3695.9	
267.21	3480.2	
267.42	5052.3	
267.63	5429.8	
267.84	3878.2	
268.06	3363.4	
268.27	5900.9	
268.48	6223.1	
268.69	3811.3	
268.9	4545.1	
269.11	6180.1	
269.32	4901.5	
269.53	3946.4	
269.74	3642	
269.95	5836	
270.16	4837.3	
270.37	3922.5	
270.58	4554	
270.79	5304.2	
271	6020.3	
271.21	4274.8	
271.42	3933.5	
271.63	5622.4	
271.84	5063.9	
272.05	3186	
272.26	3586	
272.47	5505.6	
272.68	5687.9	
272.89	3767.6	
273.11	4429.1	
273.32	5273.5	
273.53	6453.8	
273.74	4264.6	
273.95	4185.4	
274.16	6111.8	
274.37	5527.5	
274.58	4297.3	
274.79	3438.5	
275	5594.4	
275.21	6130.3	
275.42	5209.3	
275.63	4568.3	
275.84	5756.2	
276.05	7214.3	
276.26	4156.7	
276.47	3902.1	
276.68	5247.6	
276.89	6537.1	
277.1	4445.5	
277.31	3471.3	
277.52	5780.7	
277.73	5870.8	
277.94	3459	
278.15	3834.5	
278.36	5685.2	
278.57	5154.1	
278.78	3749.8	
278.99	4317.8	
279.2	5063.9	
279.41	4982.7	
279.62	4983.4	
279.83	3503.4	
280.04	6716.7	
280.25	4941.7	
280.46	4982.7	
280.67	4000.4	
280.88	5096	
281.09	6124.8	
281.3	4156.7	
281.51	5278.3	
281.72	5988.3	
281.93	5962.3	
282.14	3706.1	
282.35	4012.7	
282.56	6008.7	
282.77	5921.4	
282.98	3835.8	
283.19	4682.3	
283.4	7340.6	
283.61	5386.8	
283.82	3469.3	
284.03	4913.8	
284.24	5571.8	
284.45	6123.4	
284.66	4911	
284.87	4770.4	
285.08	6066.8	
285.29	6250.4	
285.5	3364.1	
285.71	3893.2	
285.92	6124.1	
286.12	6797.2	
286.33	4904.9	
286.54	3807.9	
286.75	5958.2	
286.96	5386.2	
287.17	3509.5	
287.38	4866.7	
287.59	5079	
287.8	4980	
288.01	3872.7	
288.22	4492.6	
288.43	5593	
288.64	4978.6	
288.85	4609.3	
289.06	4397.7	
289.27	5909.1	
289.48	6455.9	
289.69	4859.8	
289.9	4427.7	
290.11	6144.6	
290.32	5171.8	
290.53	4668	
290.74	4259.1	
290.94	5939.1	
291.15	5978.7	
291.36	3719.8	
291.57	4424.3	
291.78	5188.2	
291.99	4881	
292.2	3597.6	
292.41	4358.8	
292.62	6068.1	
292.83	5851.7	
293.04	5335.6	
293.25	3579.8	
293.46	5315.8	
293.67	6077.7	
293.88	3716.4	
294.09	3576.4	
294.29	5038.7	
294.5	5610.8	
294.71	3975.1	
294.92	3796.9	
295.13	5247.6	
295.34	6631.3	
295.55	3261.7	
295.76	3332	
295.97	5922	
296.18	6666.1	
296.39	3463.1	
296.6	3747.8	
296.81	5630.5	
297.01	5875.6	
297.22	3867.9	
297.43	3705.5	
297.64	5084.4	
297.85	5089.9	
298.06	3008.5	
298.27	3315.7	
298.48	5552	
298.69	5213.4	
298.9	4029.7	
299.11	3640.6	
299.31	4985.4	
299.52	4982	
299.73	4236.6	
299.94	4163.5	
300.15	5481	
300.36	5065.3	
300.57	4244.8	
300.78	4252.9	
300.99	5305.6	
301.2	5631.9	
301.4	3667.2	
301.61	4056.3	
301.82	5841.5	
302.03	5894.1	
302.24	4503.5	
302.45	3540.3	
302.66	5754.1	
302.87	6334.4	
303.08	3711.6	
303.29	5109.7	
303.49	5257.8	
303.7	5524.1	
303.91	3284.3	
304.12	4917.2	
304.33	5018.9	
304.54	5566.4	
304.75	3753.2	
304.96	3571	
305.16	5797.8	
305.37	6578.1	
305.58	3205.1	
305.79	3351.2	
306	5777.3	
306.21	4913.8	
306.42	3732.8	
306.63	5678.3	
306.83	5352.7	
307.04	6117.3	
307.25	4121.2	
307.46	4005.1	
307.67	4694.6	
307.88	5936.4	
308.09	3672.7	
308.29	3788.1	
308.5	5573.9	
308.71	6085.2	
308.92	4013.3	
309.13	3596.9	
309.34	5349.3	
309.55	5420.3	
309.75	4609.3	
309.96	4226.3	
310.17	5902.9	
310.38	5201.2	
310.59	4487.1	
310.8	4150.5	
311.01	5322.7	
311.21	5324.7	
311.42	3472.7	
311.63	3646.7	
311.84	5227.8	
312.05	5638.1	
312.26	4199	
312.46	4500.1	
312.67	5308.3	
312.88	4976.6	
313.09	3548.4	
313.3	3460.4	
313.51	6313.2	
313.71	6676.4	
313.92	3537.5	
314.13	3751.2	
314.34	5700.2	
314.55	5373.2	
314.76	4655	
314.96	4036.5	
315.17	5537	
315.38	5879.7	
315.59	3588.7	
315.8	3439.2	
316.01	6406	
316.21	6405.4	
316.42	3411.2	
316.63	3971.7	
316.84	5327.4	
317.05	6220.4	
317.26	4227	
317.46	3835.2	
317.67	5345.2	
317.88	5892.7	
318.09	4577.2	
318.3	3335.5	
318.5	5205.3	
318.71	5819	
318.92	5828.5	
319.13	4259.8	
319.34	6002.6	
319.54	6150.7	
319.75	3314.3	
319.96	3205.1	
320.17	5914.5	
320.38	6113.9	
320.58	3233.7	
320.79	3970.3	
321	6064.7	
321.21	6161.7	
321.42	3953.9	
321.62	3301.3	
321.83	5061.9	
322.04	5526.1	
322.25	3784.6	
322.46	3617.4	
322.66	5590.3	
322.87	5752.1	
323.08	4469.4	
323.29	3532.7	
323.5	6568.5	
323.7	5081	
323.91	4933.6	
324.12	4432.5	
324.33	5518.6	
324.53	5831.9	
324.74	4248.2	
324.95	4439.3	
325.16	4866.7	
325.37	5288.5	
325.57	3594.2	
325.78	3691.8	
325.99	5485.8	
326.2	4963.6	
326.4	5318.6	
326.61	3287.7	
326.82	5419.6	
327.03	5631.2	
327.24	5135.6	
327.44	4894	
327.65	5737	
327.86	4629.1	
328.07	4247.5	
328.27	3427.6	
328.48	6204	
328.69	5038	
328.9	5176.6	
329.1	3914.4	
329.31	5393	
329.52	6358.9	
329.73	3611.3	
329.93	4095.9	
330.14	5499.5	
330.35	5696.8	
330.56	6049.7	
330.76	4429.8	
330.97	5287.9	
331.18	5821	
331.39	3984	
331.59	3215.3	
331.8	6151.4	
332.01	6266.8	
332.22	3642.7	
332.42	4215.4	
332.63	5670.1	
332.84	5180.7	
333.05	4038.6	
333.25	3622.9	
333.46	5265.3	
333.67	5545.2	
333.88	3750.5	
334.08	4169	
334.29	7768.6	
334.5	6195.8	
334.7	3426.3	
334.91	5203.2	
335.12	5030.5	
335.33	5960.3	
335.53	3940.3	
335.74	5928.9	
335.95	5252.4	
336.16	5089.2	
336.36	4091.2	
336.57	4614.8	
336.78	5012.1	
336.98	6105	
337.19	4945.2	
337.4	3901.4	
337.61	6645.7	
337.81	5045.5	
338.02	3648.8	
338.23	4815.5	
338.43	6234.7	
338.64	5115.1	
338.85	3614.7	
339.05	4783.4	
339.26	6319.3	
339.47	4879.6	
339.68	3622.2	
339.88	5370.5	
340.09	5713.2	
340.3	5955.5	
340.5	4233.2	
340.71	3236.5	
340.92	4910.3	
341.13	6253.8	
341.33	3458.3	
341.54	4246.8	
341.75	5733.6	
341.95	5360.2	
342.16	4056.3	
342.37	4346.5	
342.57	5084.4	
342.78	5436	
342.99	4507.6	
343.19	3266.5	
343.4	5866.7	
343.61	5727.5	
343.81	3870.7	
344.02	3554.6	
344.23	5929.6	
344.43	6358.3	
344.64	4423.6	
344.85	4401.8	
345.06	5776.6	
345.26	6152.1	
345.47	4109.6	
345.68	4917.9	
345.88	4874.8	
346.09	6006	
346.3	4287.1	
346.5	3232.4	
346.71	5468.8	
346.92	5184.1	
347.12	3261.7	
347.33	4195.6	
347.54	6079.1	
347.74	6496.2	
347.95	4168.3	
348.16	3048.7	
348.36	5257.1	
348.57	4986.8	
348.78	4036.5	
348.98	4431.8	
349.19	5414.8	
349.39	4874.8	
349.6	3297.9	
349.81	3611.3	
350.01	5668.8	
350.22	5129.5	
350.43	3966.2	
350.63	4750.6	
350.84	5446.9	
351.05	5274.2	
351.25	3601.7	
351.46	3263.8	
351.67	6072.9	
351.87	5185.5	
352.08	3864.5	
352.29	4441.4	
352.49	5972.6	
352.7	6032.6	
352.9	3498.6	
353.11	4375.8	
353.32	6666.8	
353.52	5244.8	
353.73	3404.4	
353.94	4428.4	
354.14	5774.6	
354.35	5644.2	
354.55	3492.5	
354.76	3972.4	
354.97	5767.8	
355.17	5464.7	
355.38	3339.6	
355.59	4739.7	
355.79	5142.4	
356	5572.5	
356.2	3906.2	
356.41	3470.6	
356.62	4834.6	
356.82	5352	
357.03	4177.9	
357.24	3761.4	
357.44	5152.7	
357.65	5255.8	
357.85	5018.9	
358.06	3978.5	
358.27	4900.8	
358.47	5080.3	
358.68	3247.4	
358.88	4169.7	
359.09	5670.8	
359.3	6127.5	
359.5	4924.7	
359.71	4253.6	
359.91	6520	
360.12	5815.5	
360.33	4127.3	
360.53	4623.6	
360.74	5068	
360.94	5158.8	
361.15	4356	
361.36	3530	
361.56	5887.2	
361.77	5286.5	
361.97	4847.5	
362.18	3766.9	
362.38	5890	
362.59	4917.2	
362.8	3469.3	
363	3289.7	
363.21	4712.4	
363.41	5414.1	
363.62	3999	
363.83	5072.8	
364.03	5469.4	
364.24	6553.5	
364.44	5114.5	
364.65	5067.4	
364.85	5292.6	
365.06	4833.9	
365.27	3634.5	
365.47	3639.2	
365.68	6255.9	
365.88	5182.7	
366.09	4065.2	
366.29	3716.4	
366.5	5480.4	
366.71	5902.9	
366.91	5038.7	
367.12	4209.3	
367.32	6576.7	
367.53	5758.9	
367.73	4127.3	
367.94	5128.8	
368.14	5724.1	
368.35	6667.5	
368.56	4092.5	
368.76	3861.8	
368.97	5748.6	
369.17	7589.1	
369.38	3601	
369.58	3905.5	
369.79	4820.2	
369.99	6167.1	
370.2	4928.1	
370.4	3926.6	
370.61	5523.4	
370.82	6720.1	
371.02	3848.8	
371.23	3151.8	
371.43	4666	
371.64	6044.2	
371.84	3900	
372.05	5194.3	
372.25	7451.9	
372.46	5787.6	
372.66	3825.6	
372.87	3701.4	
373.07	5861.3	
373.28	7394.5	
373.48	4897.4	
373.69	4548.5	
373.9	5290.6	
374.1	5321.3	
374.31	4810	
374.51	4211.3	
374.72	6111.8	
374.92	4893.3	
375.13	4962.2	
375.33	4110.3	
375.54	5606	
375.74	5023	
375.95	4063.9	
376.15	5397.8	
376.36	5627.8	
376.56	5442.8	
376.77	4203.1	
376.97	4658.4	
377.18	6660.7	
377.38	5730.2	
377.59	5033.9	
377.79	3610.6	
378	5428.5	
378.2	5901.6	
378.41	3688.4	
378.61	3579.8	
378.82	5922	
379.02	4991.6	
379.23	3790.1	
379.43	5013.4	
379.64	6011.5	
379.84	5627.1	
380.05	3741.6	
380.25	3614	
380.46	5736.4	
380.66	5287.2	
380.87	5082.4	
381.07	5434.6	
381.28	6441.5	
381.48	5687.9	
381.69	3689.1	
381.89	3767.6	
382.1	4646.2	
382.3	5959.6	
382.51	4896.7	
382.71	5794.4	
382.91	5797.8	
383.12	6290	
383.32	4109.6	
383.53	4407.2	
383.73	5599.1	
383.94	5383.4	
384.14	4249.5	
384.35	3336.1	
384.55	5336.3	
384.76	5775.3	
384.96	4123.2	
385.17	4435.2	
385.37	5778	
385.58	5088.5	
385.78	4420.2	
385.98	3306.1	
386.19	5251	
386.39	5632.6	
386.6	3842	
386.8	4155.3	
387.01	5745.9	
387.21	5759.6	
387.42	4512.4	
387.62	5118.6	
387.83	5031.9	
388.03	5640.8	
388.23	4082.3	
388.44	4913.1	
388.64	4764.3	
388.85	4787.5	
389.05	4508.9	
389.26	5107	
389.46	6754.2	
389.67	6111.1	
389.87	4397.7	
390.07	4499.4	
390.28	5344.5	
390.48	4855.1	
390.69	3657	
390.89	3943	
391.1	5061.2	
391.3	6030.6	
391.5	5186.8	
391.71	5775.3	
391.91	5712.5	
392.12	6827.2	
392.32	5257.1	
392.53	4459.1	
392.73	5195	
392.93	5391.6	
393.14	4156.7	
393.34	4939.7	
393.55	5899.5	
393.75	5313.1	
393.95	4183.3	
394.16	4163.5	
394.36	5035.3	
394.57	5807.4	
394.77	3576.4	
394.98	4088.4	
395.18	4962.2	
395.38	5091.3	
395.59	4914.4	
395.79	3771.7	
396	5115.1	
396.2	5621	
396.4	4618.2	
396.61	4545.8	
396.81	5751.4	
397.02	4992.9	
397.22	4854.4	
397.42	4937	
397.63	5709.7	
397.83	4876.2	
398.04	3704.8	
398.24	4143	
398.44	5507	
398.65	4575.2	
398.85	3463.8	
399.05	3600.3	
399.26	4857.1	
399.46	6620.4	
399.67	3931.4	
399.87	3665.9	
400.07	5248.3	
400.28	5582.1	
400.48	3819.5	
400.69	4819.6	
400.89	5823.7	
401.09	6243.6	
401.3	3639.9	
401.5	4806.6	
401.7	6466.1	
401.91	6827.2	
402.11	3956	
402.32	4302.8	
402.52	5783.5	
402.72	5788.9	
402.93	4545.1	
403.13	3380.5	
403.33	6670.9	
403.54	5357.5	
403.74	4202.4	
403.94	5084.4	
404.15	5411.4	
404.35	6559	
404.56	3970.3	
404.76	5926.8	
404.96	5797.8	
405.17	5603.2	
405.37	5371.8	
405.57	4432.5	
405.78	5905.7	
405.98	5341.8	
406.18	3925.3	
406.39	4904.2	
406.59	5760.3	
406.79	5396.4	
407	3778.5	
407.2	3802.4	
407.4	5757.5	
407.61	6006.7	
407.81	3812	
408.01	5715.2	
408.22	4583.4	
408.42	6731	
408.62	4762.9	
408.83	4198.3	
409.03	5261.2	
409.23	5023.7	
409.44	4239.3	
409.64	4603.2	
409.84	6071.5	
410.05	5997.1	
410.25	4306.2	
410.45	4112.3	
410.66	5344.5	
410.86	7861.5	
411.06	4451.6	
411.27	4339.6	
411.47	7574.1	
411.67	5505.6	
411.88	4625	
412.08	4762.2	
412.28	6132.3	
412.49	6564.4	
412.69	4212.7	
412.89	4184	
413.09	6449.7	
413.3	6248.4	
413.5	4252.9	
413.7	3841.3	
413.91	5505.6	
414.11	6347.3	
414.31	4040	
414.52	4483.7	
414.72	6030.6	
414.92	5902.9	
415.12	4156	
415.33	4657.1	
415.53	6270.2	
415.73	6430.6	
415.94	5031.2	
416.14	4373.1	
416.34	5216.2	
416.55	5010	
416.75	5676.3	
416.95	5036	
417.15	6197.2	
417.36	7064.8	
417.56	5811.5	
417.76	4764.9	
417.97	6627.2	
418.17	6234	
418.37	4278.2	
418.57	4496.7	
418.78	5986.2	
418.98	5722.7	
419.18	5366.4	
419.38	5249.6	
419.59	5788.2	
419.79	5371.8	
419.99	4337.6	
420.2	4698.7	
420.4	6281.1	
420.6	6480.5	
420.8	4226.3	
421.01	4036.5	
421.21	5985.5	
421.41	6270.9	
421.61	4717.2	
421.82	4297.3	
422.02	5500.8	
422.22	6619	
422.42	5132.2	
422.63	4815.5	
422.83	5720	
423.03	6956.3	
423.23	4831.8	
423.44	3762.1	
423.64	5801.2	
423.84	5573.2	
424.04	4286.4	
424.25	3940.3	
424.45	6776.7	
424.65	6724.2	
424.85	3749.8	
425.06	4351.3	
425.26	6726.9	
425.46	5261.9	
425.66	4859.8	
425.87	4494.6	
426.07	6510.5	
426.27	6389	
426.47	4629.8	
426.67	3950.5	
426.88	6917.4	
427.08	6288.6	
427.28	4902.2	
427.48	3897.3	
427.69	5166.3	
427.89	5821.7	
428.09	4886.5	
428.29	4053.6	
428.5	6606.1	
428.7	6023.8	
428.9	3840.6	
429.1	4567	
429.3	5917.9	
429.51	6378.7	
429.71	4276.8	
429.91	5013.4	
430.11	6226.5	
430.31	6509.1	
430.52	4528.7	
430.72	4792.2	
430.92	6885.3	
431.12	6263.4	
431.32	4123.9	
431.53	4639.3	
431.73	5122	
431.93	6888	
432.13	4017.4	
432.33	3910.9	
432.54	5631.2	
432.74	6029.9	
432.94	3797.6	
433.14	4906.3	
433.34	6122.1	
433.55	5541.8	
433.75	4835.3	
433.95	6541.2	
434.15	5851.7	
434.35	5573.9	
434.56	3996.3	
434.76	3424.9	
434.96	5867.4	
435.16	6137.1	
435.36	3787.4	
435.56	5011.4	
435.77	5416.9	
435.97	5593	
436.17	5662	
436.37	4885.8	
436.57	5409.4	
436.78	5303.6	
436.98	6812.9	
437.18	5498.1	
437.38	6032.6	
437.58	5630.5	
437.78	5721.3	
437.99	4208.6	
438.19	6225.1	
438.39	7688.1	
438.59	4221.5	
438.79	3740.3	
438.99	6855.9	
439.2	5612.1	
439.4	3861.8	
439.6	3687	
439.8	5909.1	
440	7116	
440.2	4777.9	
440.4	4983.4	
440.61	6248.4	
440.81	6771.3	
441.01	3915	
441.21	4774.5	
441.41	6591	
441.61	6302.3	
441.81	5044.8	
442.02	6220.4	
442.22	7218.4	
442.42	6324.8	
442.62	3914.4	
442.82	4046.1	
443.02	6624.5	
443.22	5592.3	
443.43	4319.2	
443.63	3910.3	
443.83	5459.2	
444.03	5588.9	
444.23	5102.9	
444.43	4732.9	
444.63	5783.5	
444.83	7163.1	
445.04	3994.9	
445.24	5397.1	
445.44	6212.9	
445.64	6284.5	
445.84	4946.5	
446.04	4823.6	
446.24	5612.8	
446.44	6642.2	
446.65	4102.1	
446.85	4420.2	
447.05	5708.4	
447.25	6592.4	
447.45	4489.1	
447.65	3880.2	
447.85	5942.5	
448.05	5665.4	
448.25	4995.7	
448.46	4815.5	
448.66	5942.5	
448.86	5629.2	
449.06	3702	
449.26	4980.7	
449.46	6300.2	
449.66	5307	
449.86	4369.7	
450.06	4427.7	
450.26	5526.1	
450.47	6062.7	
450.67	4741	
450.87	5062.6	
451.07	6178	
451.27	5932.3	
451.47	3983.3	
451.67	4530.8	
451.87	5547.3	
452.07	6840.9	
452.27	4117.1	
452.47	4261.1	
452.67	5928.9	
452.88	6528.9	
453.08	3577.1	
453.28	5655.8	
453.48	7035.5	
453.68	5842.2	
453.88	4047.5	
454.08	4274.1	
454.28	6130.9	
454.48	5797.1	
454.68	4888.5	
454.88	5332.2	
455.08	6343.2	
455.28	6002.6	
455.48	3909.6	
455.68	4422.2	
455.89	6766.5	
456.09	6371.9	
456.29	4135.5	
456.49	4176.5	
456.69	6569.2	
456.89	5858.6	
457.09	4685.1	
457.29	5004.6	
457.49	6124.8	
457.69	6174.6	
457.89	4430.4	
458.09	3863.2	
458.29	5801.2	
458.49	6551.5	
458.69	4848.2	
458.89	4242.7	
459.09	6765.8	
459.29	6837.5	
459.49	4434.5	
459.69	5173.9	
459.9	6315.3	
460.1	5683.8	
460.3	4275.5	
460.5	4074.1	
460.7	6183.5	
460.9	5895.4	
461.1	3599	
461.3	5002.5	
461.5	6770.6	
461.7	6439.5	
461.9	3905.5	
462.1	4558.1	
462.3	5806.7	
462.5	6431.3	
462.7	3981.9	
462.9	4104.8	
463.1	7539.3	
463.3	7092.8	
463.5	4354	
463.7	5107	
463.9	5943.9	
464.1	6327.5	
464.3	4257.7	
464.5	4598.4	
464.7	6507.1	
464.9	6153.5	
465.1	5926.1	
465.3	4930.8	
465.5	6950.8	
465.7	6812.9	
465.9	5129.5	
466.1	5043.5	
466.3	6538.5	
466.5	6463.4	
466.7	5746.6	
466.9	4640.7	
467.1	6303.6	
467.3	7268.9	
467.5	5754.1	
467.7	4549.2	
467.9	7537.2	
468.1	8382.3	
468.3	5421.7	
468.5	5737.7	
468.7	6242.9	
468.9	6195.1	
469.1	4769	
469.3	5470.1	
469.5	8217.8	
469.7	5693.4	
469.9	5332.9	
470.1	4466.6	
470.3	6242.2	
470.5	6293.4	
470.7	5874.9	
470.9	4653	
471.1	5949.3	
471.3	6571.9	
471.5	4442.7	
471.69	6496.8	
471.89	5925.5	
472.09	5423.7	
472.29	5218.9	
472.49	5786.9	
472.69	5660.6	
472.89	6534.4	
473.09	4336.2	
473.29	4577.9	
473.49	5875.6	
473.69	6021.7	
473.89	5567.1	
474.09	4758.8	
474.29	7303.1	
474.49	7088.7	
474.69	5530.2	
474.89	4921.3	
475.09	6076.3	
475.29	6123.4	
475.49	4315.8	
475.69	4533.5	
475.88	7757.7	
476.08	6418.3	
476.28	4151.9	
476.48	4777.9	
476.68	6954.2	
476.88	6769.2	
477.08	4624.3	
477.28	4857.8	
477.48	6222.4	
477.68	6982.2	
477.88	4286.4	
478.08	4728.1	
478.28	7197.2	
478.48	6353.5	
478.67	4782.7	
478.87	4241.3	
479.07	6975.4	
479.27	6477	
479.47	5094.7	
479.67	4978.6	
479.87	6795.2	
480.07	7307.8	
480.27	4190.8	
480.47	5927.5	
480.67	6438.1	
480.87	7073	
481.06	4579.3	
481.26	5361.6	
481.46	6494.1	
481.66	6335	
481.86	4981.3	
482.06	6062.7	
482.26	6072.2	
482.46	7167.9	
482.66	4924	
482.86	4496.7	
483.05	6394.4	
483.25	5840.1	
483.45	7460.8	
483.65	4941.7	
483.85	5973.2	
484.05	6296.1	
484.25	5381.4	
484.45	5768.4	
484.65	7214.3	
484.84	7162.4	
485.04	4784.7	
485.24	4789.5	
485.44	7399.3	
485.64	5690.6	
485.84	3941.7	
486.04	5557.5	
486.24	6021.7	
486.44	6459.3	
486.63	3929.4	
486.83	4802.5	
487.03	5901.6	
487.23	6045.6	
487.43	4037.2	
487.63	6472.9	
487.83	6118	
488.02	7189.1	
488.22	5064.6	
488.42	5644.2	
488.62	7130.3	
488.82	5899.5	
489.02	4647.5	
489.22	4658.4	
489.41	6939.2	
489.61	6503	
489.81	4329.4	
490.01	4380.6	
490.21	6793.1	
490.41	7474.4	
490.61	4323.3	
490.8	4545.1	
491	6211.5	
491.2	5619.6	
491.4	5130.8	
491.6	4166.3	
491.8	6264.1	
491.99	6487.3	
492.19	4062.5	
492.39	4427.7	
492.59	6847	
492.79	6896.2	
492.99	5279	
493.18	4324.6	
493.38	6889.4	
493.58	7609.6	
493.78	4977.2	
493.98	4663.2	
494.18	6489.3	
494.37	5868.1	
494.57	5130.2	
494.77	5044.1	
494.97	6565.8	
495.17	6821.8	
495.37	4492.6	
495.56	4863.9	
495.76	7005.4	
495.96	6646.3	
496.16	5759.6	
496.36	4536.9	
496.55	6852.5	
496.75	6324.1	
496.95	4974.5	
497.15	4807.3	
497.35	6790.4	
497.54	6685.3	
497.74	4621.6	
497.94	6475.7	
498.14	7404.1	
498.34	7270.3	
498.53	4288.4	
498.73	5163.6	
498.93	5975.3	
499.13	6557.6	
499.33	4835.9	
499.52	5565.7	
499.72	6500.3	
499.92	6993.8	
500.12	4473.4	
500.32	4820.2	
500.51	6925.5	
500.71	6612.9	
500.91	5624.4	
501.11	5208	
501.31	6773.3	
501.5	7245.7	
501.7	5836	
501.9	4750.6	
502.1	6575.3	
502.29	6903.7	
502.49	5298.1	
502.69	5829.2	
502.89	6841.6	
503.09	6776	
503.28	4384.7	
503.48	4471.4	
503.68	6053.1	
503.88	6060.6	
504.07	5455.1	
504.27	5074.9	
504.47	6433.4	
504.67	6645.7	
504.86	5414.8	
505.06	5210.7	
505.26	6277	
505.46	8084	
505.65	4999.1	
505.85	5308.3	
506.05	6155.5	
506.25	6711.9	
506.44	4431.8	
506.64	5481	
506.84	6077.7	
507.04	7167.2	
507.23	4622.9	
507.43	5284.4	
507.63	8318.8	
507.83	6408.1	
508.02	5246.2	
508.22	4921.3	
508.42	8471.8	
508.62	6045.6	
508.81	5163.6	
509.01	5767.8	
509.21	6038.1	
509.4	6374	
509.6	5362.3	
509.8	4620.9	
510	6340.5	
510.19	7875.8	
510.39	4714.4	
510.59	4753.3	
510.79	6056.5	
510.98	7559.7	
511.18	4728.1	
511.38	4918.5	
511.57	6931	
511.77	6838.2	
511.97	5693.4	
512.17	4603.8	
512.36	6895.5	
512.56	6933.7	
512.76	4672.8	
512.95	4414.1	
513.15	7120.8	
513.35	5590.3	
513.55	5584.1	
513.74	4620.2	
513.94	7075.7	
514.14	6357.6	
514.33	5621	
514.53	5343.8	
514.73	6300.9	
514.92	6517.3	
515.12	4855.1	
515.32	4592.2	
515.51	6560.3	
515.71	7165.2	
515.91	6356.9	
516.11	4650.3	
516.3	8309.3	
516.5	6137.1	
516.7	5289.9	
516.89	5880.4	
517.09	6260	
517.29	6136.4	
517.48	5610.1	
517.68	4963.6	
517.88	5986.9	
518.07	6670.9	
518.27	5496.1	
518.47	4437.3	
518.66	7290.1	
518.86	5763.7	
519.06	4287.1	
519.25	4835.9	
519.45	6163.7	
519.65	7685.3	
519.84	5511.1	
520.04	6140.5	
520.24	8077.2	
520.43	6825.9	
520.63	5134.3	
520.83	4909.7	
521.02	6061.3	
521.22	6716.7	
521.42	5504.9	
521.61	6051.1	
521.81	6274.3	
522.01	6538.5	
522.2	5294	
522.4	5081	
522.6	6980.2	
522.79	5644.9	
522.99	5136.3	
523.18	4329.4	
523.38	6605.4	
523.58	6511.9	
523.77	6327.5	
523.97	4242	
524.17	8433.5	
524.36	7613.7	
524.56	5610.8	
524.76	5221.6	
524.95	6397.9	
525.15	6131.6	
525.34	4976.6	
525.54	4915.8	
525.74	6736.5	
525.93	5744.6	
526.13	6206.7	
526.33	4881.7	
526.52	7048.4	
526.72	6492.1	
526.91	6089.3	
527.11	5354.8	
527.31	7051.2	
527.5	7406.8	
527.7	5206.6	
527.89	4129.4	
528.09	5875.6	
528.29	6478.4	
528.48	5655.8	
528.68	5216.2	
528.87	6872.3	
529.07	6974.7	
529.27	5193	
529.46	4652.3	
529.66	6467.5	
529.85	6945.3	
530.05	4503.5	
530.25	5296	
530.44	7881.9	
530.64	6414.2	
530.83	4814.8	
531.03	5100.8	
531.23	6827.2	
531.42	6720.1	
531.62	5823.7	
531.81	5046.9	
532.01	6827.2	
532.21	7392.5	
532.4	4636.6	
532.6	5087.8	
532.79	7963.9	
532.99	6830.7	
533.18	5036.6	
533.38	6159.6	
533.58	6404.7	
533.77	7212.3	
533.97	4950.6	
534.16	5773.2	
534.36	7262.8	
534.55	6309.8	
534.75	6129.6	
534.95	5019.6	
535.14	7144.7	
535.34	6391.7	
535.53	4713.1	
535.73	6728.3	
535.92	7709.2	
536.12	6671.6	
536.31	4809.3	
536.51	5995.8	
536.71	6840.2	
536.9	6476.4	
537.1	4997	
537.29	5089.9	
537.49	7322.2	
537.68	6298.2	
537.88	5545.2	
538.07	4623.6	
538.27	6533	
538.46	7504.4	
538.66	4543.1	
538.86	4955.4	
539.05	6540.5	
539.25	7008.8	
539.44	5289.2	
539.64	4913.1	
539.83	6427.9	
540.03	7501.7	
540.22	4781.3	
540.42	4978.6	
540.61	6669.6	
540.81	6857.3	
541	5455.8	
541.2	6047.7	
541.39	6318.7	
541.59	6664.8	
541.78	5709.7	
541.98	4826.4	
542.18	5984.8	
542.37	5928.2	
542.57	5316.5	
542.76	5751.4	
542.96	6137.1	
543.15	6947.4	
543.35	5325.4	
543.54	4691.2	
543.74	7203.4	
543.93	6750.1	
544.13	5386.8	
544.32	6485.2	
544.52	7161.7	
544.71	6288.6	
544.91	4457.1	
545.1	5829.2	
545.3	6307.7	
545.49	7054.6	
545.69	4379.9	
545.88	5065.3	
546.08	8019.8	
546.27	7606.8	
546.47	5629.2	
546.66	4873.5	
546.86	7286	
547.05	7919.5	
547.24	5123.3	
547.44	4949.3	
547.63	6201.9	
547.83	7391.8	
548.02	5356.8	
548.22	5636	
548.41	6058.6	
548.61	7448.5	
548.8	4906.9	
549	4941.1	
549.19	6703.7	
549.39	7005.4	
549.58	4646.2	
549.78	5220.3	
549.97	7144.7	
550.17	6583.5	
550.36	6952.9	
550.55	7215.7	
550.75	6663.4	
550.94	7594.6	
551.14	4913.1	
551.33	5400.5	
551.53	5900.2	
551.72	7072.3	
551.92	5346.6	
552.11	5120.6	
552.31	7043	
552.5	7142.6	
552.69	6910.5	
552.89	4754.7	
553.08	6994.5	
553.28	6700.3	
553.47	5157.5	
553.67	6356.2	
553.86	7847.8	
554.06	6035.4	
554.25	4342.4	
554.44	4928.1	
554.64	8568	
554.83	8064.9	
555.03	4901.5	
555.22	5301.5	
555.42	7245.7	
555.61	6974	
555.8	5096.7	
556	5463.3	
556.19	6109.8	
556.39	7479.9	
556.58	5233.9	
556.78	5165.7	
556.97	6891.4	
557.16	6535.1	
557.36	6423.8	
557.55	4799.8	
557.75	5860.6	
557.94	7637.6	
558.13	4948.6	
558.33	4674.1	
558.52	7472.4	
558.72	6361	
558.91	4883	
559.1	5128.1	
559.3	6001.2	
559.49	5806.7	
559.69	4359.4	
559.88	5470.1	
560.07	6920.1	
560.27	7324.2	
560.46	5615.5	
560.66	5851	
560.85	6688	
561.04	5950	
561.24	4819.6	
561.43	5107	
561.63	6167.1	
561.82	6514.6	
562.01	6375.3	
562.21	5433.3	
562.4	6893.5	
562.59	7817.8	
562.79	5209.3	
562.98	4801.1	
563.18	6778.8	
563.37	8385.1	
563.56	5700.9	
563.76	4805.9	
563.95	6152.8	
564.14	6121.4	
564.34	5081.7	
564.53	4870.1	
564.73	6739.9	
564.92	7037.5	
565.11	5285.1	
565.31	4599.1	
565.5	7348.1	
565.69	6285.2	
565.89	4866	
566.08	5161.6	
566.27	7243	
566.47	7668.3	
566.66	5732.9	
566.85	4389.5	
567.05	6746	
567.24	6122.7	
567.44	4747.9	
567.63	6209.4	
567.82	7064.1	
568.02	6827.9	
568.21	4715.8	
568.4	5158.8	
568.6	6531.7	
568.79	6593.1	
568.98	4507.6	
569.18	4773.1	
569.37	6468.9	
569.56	8632.9	
569.76	5098.8	
569.95	6106.4	
570.14	6967.9	
570.34	6778.1	
570.53	4565.6	
570.72	4582	
570.91	7375.4	
571.11	6453.8	
571.3	5129.5	
571.49	6053.8	
571.69	6549.4	
571.88	6126.2	
572.07	5648.3	
572.27	5657.2	
572.46	6080.4	
572.65	7185	
572.85	4834.6	
573.04	5145.9	
573.23	7350.2	
573.43	6606.1	
573.62	4500.8	
573.81	5233.2	
574	6632.7	
574.2	6451.1	
574.39	4810	
574.58	5112.4	
574.78	7441	
574.97	6625.2	
575.16	5414.1	
575.36	5598.5	
575.55	6953.5	
575.74	7223.9	
575.93	4526	
576.13	5556.1	
576.32	6414.9	
576.51	7000.6	
576.71	4915.1	
576.9	6317.3	
577.09	7350.2	
577.28	6830.7	
577.48	5429.2	
577.67	4377.9	
577.86	6412.2	
578.05	6740.5	
578.25	5051.7	
578.44	5185.5	
578.63	6553.5	
578.83	7804.8	
579.02	4370.4	
579.21	6018.3	
579.4	6784.9	
579.6	6374.6	
579.79	5187.5	
579.98	7456	
580.17	7109.9	
580.37	7093.5	
580.56	4620.2	
580.75	5409.4	
580.94	7540.6	
581.14	7501	
581.33	5859.2	
581.52	4732.2	
581.71	6982.9	
581.91	7666.9	
582.1	4414.7	
582.29	5131.5	
582.48	6578.8	
582.68	6414.9	
582.87	5633.3	
583.06	5128.8	
583.25	6920.8	
583.45	6232	
583.64	5872.9	
583.83	6601.3	
584.02	6399.9	
584.21	6830	
584.41	5816.9	
584.6	5057.1	
584.79	6516.6	
584.98	7380.9	
585.18	4493.9	
585.37	4510.3	
585.56	6123.4	
585.75	6823.1	
585.94	4844.1	
586.14	5513.1	
586.33	7532.4	
586.52	6548	
586.71	5305.6	
586.91	5107.6	
587.1	6008.7	
587.29	7059.3	
587.48	5129.5	
587.67	4872.8	
587.87	6991.8	
588.06	7095.5	
588.25	6399.9	
588.44	5591.6	
588.63	6658.6	
588.83	7265.5	
589.02	5048.9	
589.21	4977.2	
589.4	6537.8	
589.59	6381.5	
589.78	4347.8	
589.98	4641.4	
590.17	6143.9	
590.36	6752.8	
590.55	4158.1	
590.74	5078.3	
590.94	8196.7	
591.13	6701.6	
591.32	4825	
591.51	4345.8	
591.7	7197.2	
591.89	6610.8	
592.09	4452.3	
592.28	5008.6	
592.47	5818.3	
592.66	7748.8	
592.85	4403.1	
593.05	4595.6	
593.24	6459.3	
593.43	7245.7	
593.62	4650.3	
593.81	5205.3	
594	6481.8	
594.19	6639.5	
594.39	4611.3	
594.58	4597.7	
594.77	6791.7	
594.96	7421.2	
595.15	4502.1	
595.34	5194.3	
595.54	6906.4	
595.73	5949.3	
595.92	3958	
596.11	5190.2	
596.3	7449.8	
596.49	6063.4	
596.68	4858.5	
596.88	5391.6	
597.07	7121.5	
597.26	5900.2	
597.45	4434.5	
597.64	5653.1	
597.83	6125.5	
598.02	6803.4	
598.22	4546.5	
598.41	5221.6	
598.6	6623.8	
598.79	5965.7	
598.98	4577.9	
599.17	5558.2	
599.36	6591.7	
599.55	7920.9	
599.74	6675	
599.94	6410.8	
600.13	7188.4	
600.32	5963	
600.51	4267.3	
600.7	4459.1	
600.89	7921.5	
601.08	7851.9	
601.27	4091.8	
601.47	5343.2	
601.66	7187.7	
601.85	7856.7	
602.04	4877.6	
602.23	5191.6	
602.42	6099.5	
602.61	6844.3	
602.8	4863.9	
602.99	4616.1	
603.18	6475.7	
603.37	6783.6	
603.57	5294.7	
603.76	5844.9	
603.95	7546.1	
604.14	6987	
604.33	4684.4	
604.52	5091.9	
604.71	6798.6	
604.9	6227.9	
605.09	5610.1	
605.28	5479.7	
605.47	7264.8	
605.66	7008.1	
605.86	5354.8	
606.05	4758.8	
606.24	7268.9	
606.43	5816.2	
606.62	5068	
606.81	5827.8	
607	7170.6	
607.19	6453.1	
607.38	4490.5	
607.57	4732.9	
607.76	6198.5	
607.95	5664	
608.14	5159.5	
608.33	5785.5	
608.52	6301.6	
608.72	7069.6	
608.91	4407.9	
609.1	4326.7	
609.29	6391.7	
609.48	5830.6	
609.67	5477	
609.86	4460.5	
610.05	5946.6	
610.24	6380.1	
610.43	4222.2	
610.62	3842	
610.81	7518.8	
611	7215.7	
611.19	4428.4	
611.38	5209.3	
611.57	6640.2	
611.76	7978.9	
611.95	4147.8	
612.14	4059.8	
612.33	6417	
612.52	5905.7	
612.71	4766.3	
612.9	3916.4	
613.09	5528.8	
613.28	7975.5	
613.47	4463.2	
613.66	5484.5	
613.85	6591.7	
614.04	6053.1	
614.24	4546.5	
614.43	3766.2	
614.62	6682.5	
614.81	6715.3	
615	5138.4	
615.19	5155.4	
615.38	5896.1	
615.57	6296.1	
615.76	5007.3	
615.95	5973.2	
616.14	6755.6	
616.33	6399.2	
616.52	5341.1	
616.71	5595.7	
616.9	6759	
617.09	6496.8	
617.28	4635.9	
617.47	5956.9	
617.66	5760.9	
617.85	5783.5	
618.04	5554.1	
618.22	5041.4	
618.41	6061.3	
618.6	6980.8	
618.79	4900.8	
618.98	4515.1	
619.17	7207.5	
619.36	5631.2	
619.55	4754	
619.74	4788.8	
619.93	6494.8	
620.12	5874.9	
620.31	5160.9	
620.5	5477	
620.69	7129	
620.88	7417.1	
621.07	6171.2	
621.26	5136.3	
621.45	6668.9	
621.64	6671.6	
621.83	5332.9	
622.02	4338.3	
622.21	6698.2	
622.4	6380.8	
622.59	5808.7	
622.78	5523.4	
622.97	6027.9	
623.16	7018.4	
623.35	5080.3	
623.54	4213.4	
623.72	6169.8	
623.91	6353.5	
624.1	5421	
624.29	4007.9	
624.48	7518.8	
624.67	6696.9	
624.86	5301.5	
625.05	4291.2	
625.24	7595.9	
625.43	5863.3	
625.62	7004.1	
625.81	4501.4	
626	7018.4	
626.19	6210.8	
626.38	5326.8	
626.56	4778.6	
626.75	5989.6	
626.94	6825.9	
627.13	5307.7	
627.32	4040	
627.51	6737.1	
627.7	8098.4	
627.89	4269.3	
628.08	5340.4	
628.27	5964.4	
628.46	6172.6	
628.65	4488.5	
628.83	4132.8	
629.02	6734.4	
629.21	6023.8	
629.4	5003.2	
629.59	5134.3	
629.78	5880.4	
629.97	6948.1	
630.16	5202.5	
630.35	4650.9	
630.54	7411.6	
630.72	7060	
630.91	4648.9	
631.1	5313.1	
631.29	6425.2	
631.48	6602.7	
631.67	5270.1	
631.86	4742.4	
632.05	6035.4	
632.24	6199.9	
632.42	4302.1	
632.61	5080.3	
632.8	6258.6	
632.99	5851.7	
633.18	5017.5	
633.37	5462.6	
633.56	6520	
633.75	6328.2	
633.93	4969.1	
634.12	4627.7	
634.31	7347.4	
634.5	6958.3	
634.69	4744.5	
634.88	5287.9	
635.07	6261.3	
635.25	6956.9	
635.44	5745.9	
635.63	5894.7	
635.82	6197.8	
636.01	5685.8	
636.2	5665.4	
636.39	5162.9	
636.57	7309.2	
636.76	7012.9	
636.95	4479.6	
637.14	6008.7	
637.33	6622.4	
637.52	7649.2	
637.7	4374.5	
637.89	5353.4	
638.08	6113.2	
638.27	7740.6	
638.46	5440.8	
638.65	5897.5	
638.83	7744.7	
639.02	6010.1	
639.21	5304.9	
639.4	5840.8	
639.59	6580.1	
639.78	6136.4	
639.96	4638	
640.15	4652.3	
640.34	6365.1	
640.53	6638.8	
640.72	4313	
640.91	4777.2	
641.09	5893.4	
641.28	7299.6	
641.47	4704.9	
641.66	5601.9	
641.85	6547.4	
642.03	6847	
642.22	5361.6	
642.41	4877.6	
642.6	5969.8	
642.79	5361.6	
642.97	4683	
643.16	5412.1	
643.35	6042.2	
643.54	5802.6	
643.73	4547.9	
643.91	5391.6	
644.1	5708.4	
644.29	6322.1	
644.48	4770.4	
644.67	4790.9	
644.85	6029.2	
645.04	6328.9	
645.23	4316.4	
645.42	4612	
645.6	5913.2	
645.79	7062.8	
645.98	4739.7	
646.17	3766.9	
646.36	5683.8	
646.54	6380.1	
646.73	5628.5	
646.92	4323.3	
647.11	5976.7	
647.29	7111.2	
647.48	4506.2	
647.67	4228.4	
647.86	7407.5	
648.05	7361.8	
648.23	4827.7	
648.42	6154.8	
648.61	6695.5	
648.8	6356.2	
648.98	4475.5	
649.17	4764.3	
649.36	5965.1	
649.55	5390.3	
649.73	4489.8	
649.92	5243.5	
650.11	5871.5	
650.3	6181.5	
650.48	4666	
650.67	4285	
650.86	6578.8	
651.05	5397.1	
651.23	4625	
651.42	4654.4	
651.61	5954.8	
651.79	6126.2	
651.98	4817.5	
652.17	4414.7	
652.36	6397.9	
652.54	5518.6	
652.73	4490.5	
652.92	4326	
653.11	6558.3	
653.29	6558.3	
653.48	3777.8	
653.67	4893.3	
653.85	6369.9	
654.04	7418.4	
654.23	5072.8	
654.42	4575.8	
654.6	5917.9	
654.79	6614.3	
654.98	4102.1	
655.16	4714.4	
655.35	5455.8	
655.54	5473.5	
655.73	4263.2	
655.91	4207.9	
656.1	6688	
656.29	5431.2	
656.47	3658.4	
656.66	5471.5	
656.85	5720.7	
657.03	5738.4	
657.22	4270	
657.41	4308.2	
657.59	5823.7	
657.78	5530.2	
657.97	3891.1	
658.16	4635.2	
658.34	6492.1	
658.53	6904.4	
658.72	5635.3	
658.9	6121.4	
659.09	5836	
659.28	5920	
659.46	4379.9	
659.65	4336.2	
659.84	5618.3	
660.02	6126.8	
660.21	4116.4	
660.4	4230.4	
660.58	6647.7	
660.77	5945.9	
660.96	4775.9	
661.14	3788.1	
661.33	7159	
661.52	7118.7	
661.7	3736.2	
661.89	7707.2	
662.08	5597.1	
662.26	5168.4	
662.45	4087.1	
662.64	4261.1	
662.82	6353.5	
663.01	5455.8	
663.2	4250.2	
663.38	5072.1	
663.57	6247	
663.75	6111.1	
663.94	4655.7	
664.13	5859.9	
664.31	5588.2	
664.5	6311.8	
664.69	5001.1	
664.87	5396.4	
665.06	5317.9	
665.25	6121.4	
665.43	5592.3	
665.62	5775.3	
665.8	6516.6	
665.99	5785.5	
666.18	4590.2	
666.36	4757.4	
666.55	6426.5	
666.74	6323.4	
666.92	4259.1	
667.11	5910.4	
667.29	5762.3	
667.48	6414.2	
667.67	5489.2	
667.85	4618.9	
668.04	5851.7	
668.22	5831.9	
668.41	4636.6	
668.6	4867.3	
668.78	5658.5	
668.97	5806	
669.15	5053	
669.34	3932.1	
669.53	5608.7	
669.71	5929.6	
669.9	4218.8	
670.08	4864.6	
670.27	5653.8	
670.46	6272.9	
670.64	5051.7	
670.83	5444.2	
671.01	5512.4	
671.2	6169.8	
671.38	4225.6	
671.57	4151.2	
671.76	6761	
671.94	7455.3	
672.13	4052.2	
672.31	5270.1	
672.5	6297.5	
672.69	5603.2	
672.87	4334.9	
673.06	4596.3	
673.24	6172.6	
673.43	5649	
673.61	5045.5	
673.8	4536.3	
673.98	6393.8	
674.17	6547.4	
674.36	5167.7	
674.54	5064.6	
674.73	6163.7	
674.91	6370.5	
675.1	4674.1	
675.28	4338.3	
675.47	5909.1	
675.65	6465.4	
675.84	4596.3	
676.03	4919.9	
676.21	5614.2	
676.4	5209.3	
676.58	5449	
676.77	5115.1	
676.95	7205.4	
677.14	5552	
677.32	4306.2	
677.51	4083.6	
677.69	6389.7	
677.88	5207.3	
678.06	4081.6	
678.25	4219.5	
678.44	5891.3	
678.62	5612.1	
678.81	3961.5	
678.99	4921.3	
679.18	6720.8	
679.36	6291.4	
679.55	4554	
679.73	5211.4	
679.92	6216.3	
680.1	5622.4	
680.29	5844.9	
680.47	4554.7	
680.66	5623.7	
680.84	6465.4	
681.03	3808.5	
681.21	4997	
681.4	5692	
681.58	5550.7	
681.77	4316.4	
681.95	4240.7	
682.14	6567.8	
682.32	6873	
682.51	5178.6	
682.69	4074.1	
682.88	5545.9	
683.06	6333	
683.25	4910.3	
683.43	5401.2	
683.62	5885.9	
683.8	6304.3	
683.99	5565.7	
684.17	4818.9	
684.36	7279.8	
684.54	5902.9	
684.73	4039.3	
684.91	4314.4	
685.1	6315.9	
685.28	5668.1	
685.46	4952	
685.65	5070.8	
685.83	6636.1	
686.02	5911.1	
686.2	4407.2	
686.39	4543.1	
686.57	5515.9	
686.76	7230.7	
686.94	4461.8	
687.13	4523.3	
687.31	6438.1	
687.5	5851.7	
687.68	3949.2	
687.86	5328.8	
688.05	7648.5	
688.23	5287.9	
688.42	5416.9	
688.6	4364.9	
688.79	5726.8	
688.97	5764.3	
689.16	4886.5	
689.34	3657	
689.52	6541.9	
689.71	6714.6	
689.89	5096.7	
690.08	4401.1	
690.26	5986.9	
690.45	5855.8	
690.63	5362.3	
690.81	4550.6	
691	5716.6	
691.18	5665.4	
691.37	4746.5	
691.55	6966.5	
691.74	5674.9	
691.92	7840.3	
692.1	4675.5	
692.29	4057.7	
692.47	5867.4	
692.66	5157.5	
692.84	4335.5	
693.02	4906.3	
693.21	5257.8	
693.39	5833.3	
693.58	4980.7	
693.76	4394.3	
693.94	6989	
694.13	6765.8	
694.31	4264.6	
694.5	5479.7	
694.68	5530.2	
694.86	5845.6	
695.05	4672.1	
695.23	4753.3	
695.42	6342.6	
695.6	8685.4	
695.78	5283.8	
695.97	4317.8	
696.15	6319.3	
696.34	5671.5	
696.52	4095.3	
696.7	5057.8	
696.89	6049.7	
697.07	5438	
697.25	5008	
697.44	6554.2	
697.62	6016.9	
697.81	6438.8	
697.99	4644.8	
698.17	5133.6	
698.36	5336.3	
698.54	6082.5	
698.72	4893.3	
698.91	3936.2	
699.09	5678.3	
699.28	5591	
699.46	4685.1	
699.64	4482.3	
699.83	5438	
700.01	6896.9	
700.19	5337.7	
700.38	3664.5	
700.56	6743.3	
700.74	5608.7	
700.93	4101.4	
701.11	4938.3	
701.29	6162.3	
701.48	7230.7	
701.66	4271.4	
701.84	4331.5	
702.03	5595.1	
702.21	6267.5	
702.39	3844	
702.58	4474.1	
702.76	6068.1	
702.94	6194.4	
703.13	3803.8	
703.31	6427.9	
703.49	5279	
703.68	6663.4	
703.86	4080.2	
704.04	5100.1	
704.23	5882.4	
704.41	6324.8	
704.59	4252.3	
704.78	5584.8	
704.96	6920.8	
705.14	6340.5	
705.33	4024.3	
705.51	4906.9	
705.69	5691.3	
705.87	6576	
706.06	5122	
706.24	3900	
706.42	5980.8	
706.61	6277	
706.79	5168.4	
706.97	3920.5	
707.16	5422.3	
707.34	6104.3	
707.52	5195.7	
707.7	4277.5	
707.89	5699.5	
708.07	5286.5	
708.25	5197.7	
708.44	5258.5	
708.62	5508.4	
708.8	6759	
708.98	5387.5	
709.17	4326.7	
709.35	5966.4	
709.53	6021.7	
709.72	3994.9	
709.9	4199.7	
710.08	6234	
710.26	6357.6	
710.45	5776	
710.63	4344.4	
710.81	5940.5	
710.99	5929.6	
711.18	5080.3	
711.36	4558.8	
711.54	5795.8	
711.72	6533.7	
711.91	4674.1	
712.09	4029.7	
712.27	5976.7	
712.45	7084.6	
712.64	5031.9	
712.82	3870.7	
713	5449	
713.18	5668.1	
713.37	4104.8	
713.55	5421	
713.73	6692.1	
713.91	5206.6	
714.1	4641.4	
714.28	4146.5	
714.46	6417	
714.64	5653.8	
714.83	3719.1	
715.01	4642.7	
715.19	5867.4	
715.37	5209.3	
715.55	4352.6	
715.74	4699.4	
715.92	6822.5	
716.1	4762.2	
716.28	5871.5	
716.47	4794.3	
716.65	5451.7	
716.83	5553.4	
717.01	4691.2	
717.19	4820.9	
717.38	7746.1	
717.56	5243.5	
717.74	4980.7	
717.92	4003.1	
718.1	6543.3	
718.29	5614.8	
718.47	3547.8	
718.65	4214.7	
718.83	6255.9	
719.01	6139.8	
719.2	3291.1	
719.38	4495.3	
719.56	5868.1	
719.74	7524.9	
719.92	4057	
720.11	5177.9	
720.29	5949.3	
720.47	5089.2	
720.65	3667.9	
720.83	4616.1	
721.02	5539.8	
721.2	5293.3	
721.38	4690.5	
721.56	3948.5	
721.74	4739	
721.92	4994.3	
722.11	5237.3	
722.29	4913.1	
722.47	6335.7	
722.65	5450.3	
722.83	4025.6	
723.01	4968.4	
723.2	5526.1	
723.38	5793.7	
723.56	3395.5	
723.74	4663.9	
723.92	5016.8	
724.1	6300.9	
724.29	3880.9	
724.47	5176.6	
724.65	5065.3	
724.83	4953.4	
725.01	3832.4	
725.19	4797.7	
725.37	5126.1	
725.56	5201.8	
725.74	3683.6	
725.92	3975.8	
726.1	4980.7	
726.28	5365	
726.46	4404.5	
726.64	4108.2	
726.83	5255.1	
727.01	5630.5	
727.19	3622.2	
727.37	4554.7	
727.55	5360.2	
727.73	5949.3	
727.91	3614.7	
728.09	3463.8	
728.28	5999.9	
728.46	6698.9	
728.64	4698.7	
728.82	4611.3	
729	7133.8	
729.18	6277	
729.36	3708.2	
729.54	6218.3	
729.72	7324.9	
729.91	5500.2	
730.09	5687.9	
730.27	4300.1	
730.45	5342.5	
730.63	6085.2	
730.81	5017.5	
730.99	3963.5	
731.17	6640.2	
731.35	5042.1	
731.53	4604.5	
731.71	4133.5	
731.9	6313.2	
732.08	6588.3	
732.26	4414.7	
732.44	4031.1	
732.62	6620.4	
732.8	6042.9	
732.98	4837.3	
733.16	3839.9	
733.34	6057.2	
733.52	4788.8	
733.7	4388.1	
733.88	4698.7	
734.07	5841.5	
734.25	5642.8	
734.43	3807.9	
734.61	5503.6	
734.79	7116	
734.97	5451	
735.15	4037.9	
735.33	4336.9	
735.51	5870.2	
735.69	5515.2	
735.87	5613.5	
736.05	4557.4	
736.23	5765	
736.41	5459.2	
736.59	4447.5	
736.77	4533.5	
736.95	6165.1	
737.13	5560.2	
737.32	4063.2	
737.5	4283	
737.68	6795.8	
737.86	5432.6	
738.04	3837.9	
738.22	5872.2	
738.4	5231.2	
738.58	5565.7	
738.76	4547.9	
738.94	3386.7	
739.12	5449.6	
739.3	5240.1	
739.48	5247.6	
739.66	4891.2	
739.84	5645.6	
740.02	5695.4	
740.2	3506.8	
740.38	3964.2	
740.56	6075.6	
740.74	4913.1	
740.92	4595.6	
741.1	4540.3	
741.28	5506.3	
741.46	5362.3	
741.64	4158.1	
741.82	4698	
742	5558.2	
742.18	5539.1	
742.36	4403.1	
742.54	3986	
742.72	6154.8	
742.9	4866	
743.08	4829.1	
743.26	3561.4	
743.44	6431.3	
743.62	6307.7	
743.8	5028.4	
743.98	3962.8	
744.16	6014.2	
744.34	5617.6	
744.52	4913.1	
744.7	4846.2	
744.88	6134.3	
745.06	5650.3	
745.24	4953.4	
745.42	5098.1	
745.6	6186.2	
745.78	5946.6	
745.96	3773.7	
746.14	4166.9	
746.32	6986.3	
746.5	6338.5	
746.68	4753.3	
746.86	4187.4	
747.03	6768.5	
747.21	4891.2	
747.39	4736.3	
747.57	4166.9	
747.75	5882.4	
747.93	6265.4	
748.11	4177.9	
748.29	4048.8	
748.47	7538.6	
748.65	5535.7	
748.83	4921.3	
749.01	4527.4	
749.19	6089.3	
749.37	5197.1	
749.55	4477.5	
749.73	4652.3	
749.91	5699.5	
750.09	5477.6	
750.26	4677.6	
750.44	3994.9	
750.62	5751.4	
750.8	5773.2	
750.98	3818.8	
751.16	4222.9	
751.34	5827.2	
751.52	5139	
751.7	5043.5	
751.88	3831.1	
752.06	6322.8	
752.24	6143.2	
752.42	3818.8	
752.59	4211.3	
752.77	5650.3	
752.95	7041.6	
753.13	5007.3	
753.31	4285.7	
753.49	5396.4	
753.67	5911.8	
753.85	4699.4	
754.03	4218.8	
754.21	6250.4	
754.38	6596.5	
754.56	4476.2	
754.74	3482.2	
754.92	5497.4	
755.1	6340.5	
755.28	3646.7	
755.46	3690.4	
755.64	7180.9	
755.82	7344	
755.99	4129.4	
756.17	4296	
756.35	4813.4	
756.53	6508.4	
756.71	3115	
756.89	4151.2	
757.07	6068.1	
757.25	5072.8	
757.42	4636.6	
757.6	5651	
757.78	6021	
757.96	4999.8	
758.14	4304.8	
758.32	3747.1	
758.5	4555.4	
758.67	5375.2	
758.85	4112.3	
759.03	4263.2	
759.21	5679	
759.39	5046.2	
759.57	3678.8	
759.75	4923.3	
759.92	6302.3	
760.1	5508.4	
760.28	5193	
760.46	5474.2	
760.64	5260.5	
760.82	4924	
760.99	4999.8	
761.17	4176.5	
761.35	6000.5	
761.53	4930.1	
761.71	4196.3	
761.89	4950.6	
762.06	5946.6	
762.24	5330.2	
762.42	4332.1	
762.6	4058.4	
762.78	5323.4	
762.96	6021.7	
763.13	4654.4	
763.31	4367	
763.49	6215.6	
763.67	5274.2	
763.85	5192.3	
764.02	5892.7	
764.2	6466.1	
764.38	5591.6	
764.56	4184.7	
764.74	5176.6	
764.91	6636.8	
765.09	5474.9	
765.27	3874.1	
765.45	3708.9	
765.63	6569.2	
765.8	6574.7	
765.98	3441.3	
766.16	3781.9	
766.34	5020.3	
766.52	4736.3	
766.69	4743.8	
766.87	3627.6	
767.05	5418.9	
767.23	6370.5	
767.41	3976.5	
767.58	4305.5	
767.76	6014.9	
767.94	6172.6	
768.12	4076.1	
768.29	4989.5	
768.47	5580.7	
768.65	6337.1	
768.83	3713.6	
769	4984.8	
769.18	5117.9	
769.36	5834.7	
769.54	4937.7	
769.72	3732.1	
769.89	6157.6	
770.07	6373.3	
770.25	4127.3	
770.43	5495.4	
770.6	7042.3	
770.78	7523.6	
770.96	4323.3	
771.14	5102.2	
771.31	6115.9	
771.49	5391.6	
771.67	3386	
771.85	3736.2	
772.02	4608.6	
772.2	5455.1	
772.38	4558.1	
772.55	3936.2	
772.73	5735	
772.91	5537	
773.09	4405.2	
773.26	4489.8	
773.44	5677	
773.62	5394.3	
773.8	3851.5	
773.97	3592.1	
774.15	5759.6	
774.33	5383.4	
774.5	3785.3	
774.68	4190.1	
774.86	5931.6	
775.04	5473.5	
775.21	3889.1	
775.39	3852.2	
775.57	5704.3	
775.74	6178.7	
775.92	3666.5	
776.1	3586.7	
776.27	5744.6	
776.45	7043	
776.63	3925.3	
776.81	3379.8	
776.98	5299.5	
777.16	6514.6	
777.34	4081.6	
777.51	4076.8	
777.69	5349.3	
777.87	5089.9	
778.04	4128.7	
778.22	4793.6	
778.4	5165.7	
778.57	5860.6	
778.75	3358.7	
778.93	3716.4	
779.1	4897.4	
779.28	4784.1	
779.46	3389.4	
779.64	3852.2	
779.81	6035.4	
779.99	7010.2	
780.17	4788.8	
780.34	4911	
780.52	5402.5	
780.69	5672.9	
780.87	4378.6	
781.05	3858.4	
781.22	5577.3	
781.4	5619.6	
781.58	3960.1	
781.75	3092.4	
781.93	5597.8	
782.11	4936.3	
782.28	4990.2	
782.46	4010.6	
782.64	4814.8	
782.81	5831.2	
782.99	4113	
783.17	4027	
783.34	5725.4	
783.52	4857.1	
783.69	4362.2	
783.87	5193	
784.05	4974.5	
784.22	4950.6	
784.4	5077.6	
784.58	4381.3	
784.75	5942.5	
784.93	5051	
785.1	4003.8	
785.28	4749.9	
785.46	5731.6	
785.63	4983.4	
785.81	3973.1	
785.99	3851.5	
786.16	5104.2	
786.34	5577.3	
786.51	3897.3	
786.69	4365.6	
786.87	4733.5	
787.04	5324.7	
787.22	3680.9	
787.39	4778.6	
787.57	4995.7	
787.75	6165.1	
787.92	4927.4	
788.1	4839.4	
788.27	5021.6	
788.45	4790.9	
788.63	4612	
788.8	3180.5	
788.98	5423	
789.15	4731.5	
789.33	3426.9	
789.5	4076.1	
789.68	5983.5	
789.86	6165.1	
790.03	4511	
790.21	3953.3	
790.38	6006.7	
790.56	5203.9	
790.73	3754.6	
790.91	3872	
791.09	5084.4	
791.26	5862	
791.44	4020.8	
791.61	3519.8	
791.79	5052.3	
791.96	5107.6	
792.14	3639.9	
792.32	3116.3	
792.49	5050.3	
792.67	5204.6	
792.84	3692.5	
793.02	3488.4	
793.19	5522.7	
793.37	6307.1	
793.54	3193.5	
793.72	3592.1	
793.89	6485.2	
794.07	5049.6	
794.25	4220.2	
794.42	3289	
794.6	6198.5	
794.77	5826.5	
794.95	4481.6	
795.12	3918.4	
795.3	5015.5	
795.47	5687.2	
795.65	4315.8	
795.82	4147.8	
796	4858.5	
796.17	6886	
796.35	3995.6	
796.52	4701.5	
796.7	5642.2	
796.87	5756.2	
797.05	4997.7	
797.22	4911	
797.4	5630.5	
797.57	6754.2	
797.75	4140.3	
797.92	3852.2	
798.1	6059.3	
798.27	5070.1	
798.45	3290.4	
798.62	3518.4	
798.8	5419.6	
798.97	5931.6	
799.15	4431.8	
799.32	4141.7	
799.5	4592.9	
799.67	5427.8	
799.85	4501.4	
800.02	3229	
800.2	4983.4	
800.37	5353.4	
800.55	4700.8	
800.72	3919.1	
800.9	5872.9	
801.07	6363	
801.25	5235.3	
801.42	4302.8	
801.6	5875.6	
801.77	5629.2	
801.95	3971	
802.12	3818.8	
802.29	5601.9	
802.47	5653.8	
802.64	4244.8	
802.82	3164.8	
802.99	4995	
803.17	6115.9	
803.34	4103.4	
803.52	3715	
803.69	6827.2	
803.87	4835.9	
804.04	4144.4	
804.21	4213.4	
804.39	6188.3	
804.56	5259.9	
804.74	3494.5	
804.91	4288.4	
805.09	5038	
805.26	5177.9	
805.44	3596.9	
805.61	3912.3	
805.78	5729.5	
805.96	5847	
806.13	4305.5	
806.31	4644.1	
806.48	4627	
806.66	5160.9	
806.83	4291.2	
807	4224.3	
807.18	5003.9	
807.35	5494.7	
807.53	4160.1	
807.7	3345.7	
807.87	6339.8	
808.05	5169.1	
808.22	4627.7	
808.4	3350.5	
808.57	5104.2	
808.74	4762.2	
808.92	3834.5	
809.09	4896.7	
809.27	4956.8	
809.44	5681.7	
809.61	3417.4	
809.79	3750.5	
809.96	6321.4	
810.14	5907	
810.31	3302	
810.48	4035.2	
810.66	5199.1	
810.83	6009.4	
811.01	3795.6	
811.18	4274.8	
811.35	5980.1	
811.53	4558.8	
811.7	4689.8	
811.87	4369.7	
812.05	5097.4	
812.22	5014.1	
812.39	3742.3	
812.57	3633.8	
812.74	5137	
812.92	6923.5	
813.09	3997.6	
813.26	4415.4	
813.44	6617	
813.61	5100.1	
813.78	3373.7	
813.96	4591.5	
814.13	5183.4	
814.3	4777.9	
814.48	4902.2	
814.65	4052.2	
814.82	6414.2	
815	4876.2	
815.17	4100.7	
815.34	5061.9	
815.52	5022.3	
815.69	5037.3	
815.87	4077.5	
816.04	3555.3	
816.21	5172.5	
816.38	4453	
816.56	4001.7	
816.73	3706.8	
816.9	6525.5	
817.08	5924.1	
817.25	3744.4	
817.42	4713.7	
817.6	4620.9	
817.77	5156.8	
817.94	4207.9	
818.12	3680.2	
818.29	4888.5	
818.46	7744.1	
818.64	3861.1	
818.81	3605.1	
818.98	4788.8	
819.16	7122.2	
819.33	4548.5	
819.5	4177.2	
819.67	5512.4	
819.85	6176.7	
820.02	4074.1	
820.19	4343.1	
820.37	5345.2	
820.54	4913.1	
820.71	4208.6	
820.88	5294	
821.06	5381.4	
821.23	4935.6	
821.4	4264.6	
821.58	4218.8	
821.75	5908.4	
821.92	5303.6	
822.09	3390.8	
822.27	3554.6	
822.44	5186.1	
822.61	5033.9	
822.79	3430.3	
822.96	6629.3	
823.13	5631.9	
823.3	4858.5	
823.48	4014	
823.65	3570.3	
823.82	5802.6	
823.99	4681	
824.17	5079	
824.34	3581.9	
824.51	6840.2	
824.68	5187.5	
824.86	3805.1	
825.03	4279.6	
825.2	5159.5	
825.37	6274.3	
825.55	3749.8	
825.72	4167.6	
825.89	6881.9	
826.06	6398.5	
826.24	4031.8	
826.41	4120.5	
826.58	6280.4	
826.75	5526.1	
826.92	3190.7	
827.1	3568.2	
827.27	8602.8	
827.44	6850.5	
827.61	3857	
827.79	4737.6	
827.96	4849.6	
828.13	5270.8	
828.3	4010.6	
828.47	3355.3	
828.65	5343.2	
828.82	5347.9	
828.99	5268.1	
829.16	4576.5	
829.34	5805.3	
829.51	5543.2	
829.68	4252.9	
829.85	4412.7	
830.02	6080.4	
830.2	5831.9	
830.37	3213.9	
830.54	5055.1	
830.71	6640.2	
830.88	5141.8	
831.05	3274.7	
831.23	3768.9	
831.4	6334.4	
831.57	7194.5	
831.74	3882.9	
831.91	3346.4	
832.09	5390.9	
832.26	5784.1	
832.43	4067.9	
832.6	4510.3	
832.77	5351.3	
832.94	6240.2	
833.12	3173.7	
833.29	3919.1	
833.46	5564.3	
833.63	7405.5	
833.8	4345.8	
833.97	4078.2	
834.15	5804.6	
834.32	5498.8	
834.49	4214	
834.66	4261.8	
834.83	6054.5	
835	4827.1	
835.17	3827.7	
835.35	3895.9	
835.52	5689.9	
835.69	5584.8	
835.86	4017.4	
836.03	3377.8	
836.2	5734.3	
836.37	5368.4	
836.55	3997.6	
836.72	3758.7	
836.89	5244.8	
837.06	5947.3	
837.23	4104.1	
837.4	4509.6	
837.57	6610.2	
837.75	7380.2	
837.92	3685	
838.09	3900.7	
838.26	5304.9	
838.43	6098.2	
838.6	4231.1	
838.77	3699.3	
838.94	6937.8	
839.11	6675	
839.29	4001	
839.46	3174.4	
839.63	5750.7	
839.8	5454.4	
839.97	3921.2	
840.14	3918.4	
840.31	5575.3	
840.48	5761.6	
840.65	3220.8	
840.82	3839.3	
841	5728.2	
841.17	5773.9	
841.34	3602.4	
841.51	3627.6	
841.68	5614.2	
841.85	5425.1	
842.02	3670.6	
842.19	3043.3	
842.36	5476.3	
842.53	5486.5	
842.7	3605.8	
842.87	4380.6	
843.05	7290.8	
843.22	5432.6	
843.39	3401	
843.56	3661.8	
843.73	5217.5	
843.9	5833.3	
844.07	5877.7	
844.24	4863.9	
844.41	8601.5	
844.58	4939	
844.75	3442	
844.92	3769.6	
845.09	5772.5	
845.26	5740.5	
845.43	3493.8	
845.6	3745.1	
845.77	5726.8	
845.94	5425.1	
846.12	3934.1	
846.29	4212	
846.46	5988.9	
846.63	5728.2	
846.8	3626.3	
846.97	4264.6	
847.14	6262.7	
847.31	5682.4	
847.48	4029	
847.65	4446.1	
847.82	6101.6	
847.99	6042.9	
848.16	4835.3	
848.33	4465.3	
848.5	5315.2	
848.67	6242.9	
848.84	3587.4	
849.01	3719.8	
849.18	5131.5	
849.35	4770.4	
849.52	4515.8	
849.69	3559.4	
849.86	5917.9	
850.03	6183.5	
850.2	3556	
850.37	4401.8	
850.54	6205.3	
850.71	5395	
850.88	4268.6	
851.05	3548.4	
851.22	5615.5	
851.39	6337.1	
851.56	3373.7	
851.73	4124.6	
851.9	5020.9	
852.07	6055.2	
852.24	3964.9	
852.41	3550.5	
852.58	5646.2	
852.75	5152	
852.92	4024.3	
853.09	3476.8	
853.26	5335	
853.43	6215.6	
853.6	3525.2	
853.77	3030.3	
853.94	6333	
854.11	5683.1	
854.28	5331.5	
854.44	3887	
854.61	6799.9	
854.78	6088.6	
854.95	3545.7	
855.12	4475.5	
855.29	4570.4	
855.46	6373.3	
855.63	3542.3	
855.8	4961.5	
855.97	5326.8	
856.14	6141.2	
856.31	5065.3	
856.48	3855.6	
856.65	5251.7	
856.82	5007.3	
856.99	3376.4	
857.16	3842.7	
857.33	6963.1	
857.49	5448.3	
857.66	3863.2	
857.83	4147.8	
858	5343.2	
858.17	5604.6	
858.34	3386.7	
858.51	3506.1	
858.68	6467.5	
858.85	6503.7	
859.02	4135.5	
859.19	4418.8	
859.36	4986.8	
859.52	5095.3	
859.69	3528.7	
859.86	4154	
860.03	5083.7	
860.2	6355.5	
860.37	3226.9	
860.54	3677.5	
860.71	5986.2	
860.88	6452.5	
861.05	3994.2	
861.21	4492.6	
861.38	6456.6	
861.55	4937	
861.72	3256.3	
861.89	3994.2	
862.06	6047.7	
862.23	6643.6	
862.4	3457.7	
862.56	3688.4	
862.73	5838.8	
862.9	5516.5	
863.07	4191.5	
863.24	3205.1	
863.41	4922.6	
863.58	5055.8	
863.75	3629.7	
863.91	4154	
864.08	6422.4	
864.25	5890	
864.42	4476.9	
864.59	5034.6	
864.76	6743.3	
864.93	5118.6	
865.09	3487	
865.26	3792.8	
865.43	6241.5	
865.6	6676.4	
865.77	3104.7	
865.94	3521.1	
866.1	6329.6	
866.27	6068.8	
866.44	5477.6	
866.61	3377.8	
866.78	5393.7	
866.95	5897.5	
867.11	3495.2	
867.28	3075.4	
867.45	6162.3	
867.62	5188.9	
867.79	4241.3	
867.96	3548.4	
868.12	4987.5	
868.29	6056.5	
868.46	3538.9	
868.63	4752	
868.8	6186.9	
868.97	5967.8	
869.13	3706.8	
869.3	3734.8	
869.47	5890.6	
869.64	6055.2	
869.81	3606.5	
869.97	3551.2	
870.14	5795.8	
870.31	6456.6	
870.48	3496.6	
870.65	4584.7	
870.81	5427.1	
870.98	5300.1	
871.15	4042	
871.32	3656.3	
871.48	5851	
871.65	6487.3	
871.82	3512.3	
871.99	3906.8	
872.16	6991.8	
872.32	6416.3	
872.49	3578.5	
872.66	3626.3	
872.83	6035.4	
872.99	5302.2	
873.16	4113	
873.33	3542.3	
873.5	5631.9	
873.67	5622.4	
873.83	3731.4	
874	4834.6	
874.17	5767.1	
874.34	6900.3	
874.5	4583.4	
874.67	4487.8	
874.84	6478.4	
875.01	5044.8	
875.17	5094	
875.34	3507.5	
875.51	5696.8	
875.68	6868.9	
875.84	4287.8	
876.01	5333.6	
876.18	5940.5	
876.34	5925.5	
876.51	3580.5	
876.68	3472.7	
876.85	5421	
877.01	6282.5	
877.18	5127.4	
877.35	3548.4	
877.52	5558.9	
877.68	4967.7	
877.85	3452.2	
878.02	3467.9	
878.18	5552	
878.35	5232.6	
878.52	2855.6	
878.69	3953.3	
878.85	6031.3	
879.02	5948.7	
879.19	5033.2	
879.35	3853.6	
879.52	5905.7	
879.69	6227.9	
879.86	3081.5	
880.02	3923.2	
880.19	5503.6	
880.36	6843.6	
880.52	4078.2	
880.69	4241.3	
880.86	6100.2	
881.02	6154.1	
881.19	3970.3	
881.36	3872.7	
881.52	5940.5	
881.69	5228.5	
881.86	3861.8	
882.02	3761.4	
882.19	6247.7	
882.36	7397.9	
882.52	3663.8	
882.69	5077.6	
882.86	5696.1	
883.02	5622.4	
883.19	4361.5	
883.36	4121.2	
883.52	6078.4	
883.69	7026.6	
883.86	3619.4	
884.02	3216.7	
884.19	5997.8	
884.36	5554.1	
884.52	4050.9	
884.69	3775.8	
884.86	5279	
885.02	6719.4	
885.19	3958.7	
885.36	4057.7	
885.52	5606.7	
885.69	5677.7	
885.86	5153.4	
886.02	4567	
886.19	6007.4	
886.35	5419.6	
886.52	3959.4	
886.69	5061.9	
886.85	5126.1	
887.02	6363	
887.19	6363	
887.35	6363	
887.52	6363	
887.68	6363	
887.85	6363	
888.02	6363	
888.18	6363	
888.35	6363	
888.51	6363	
888.68	6363	
888.85	6363	
889.01	6363	
889.18	6363	
889.35	6363	
889.51	6363	
889.68	6363	
889.84	6363	
890.01	6363	
890.17	6363	
890.34	6363	
890.51	6363	
890.67	6363	
890.84	6363	
891	6363	
891.17	6363	
891.34	6363	
891.5	6363	
891.67	6363	
891.83	6363	
892	6363	
892.16	6363	
892.33	6363	
892.5	6363	
892.66	6363	
892.83	6363	
892.99	6363	
893.16	6363	
893.32	6363	
893.49	6363	
893.65	6363	
893.82	6363	
893.99	6363	
894.15	6363	
894.32	6363	
894.48	6363	
894.65	6363	
894.81	6363	
894.98	6363	
895.14	6363	
895.31	6363	
895.47	6363	
895.64	6363	
895.81	6363	
895.97	6363	
896.14	6363	
896.3	6363	
896.47	6363	
896.63	6363	
896.8	6363	
896.96	6363	
897.13	6363	
897.29	6363	
897.46	6363	
897.62	6363	
897.79	6363	
897.95	6363	
898.12	6363	
898.28	6363	
898.45	6363	
898.61	6363	
898.78	6363	
898.94	6363	
899.11	6363	
899.27	6363	
899.44	6363	
899.6	6363	
899.77	6363	
899.93	6363	
900.1	6363	
900.26	6363	
900.43	6363	
900.59	6363	
900.76	6363	
900.92	6363	
901.09	6363	
901.25	6363	
901.42	6363	
901.58	6363	
901.75	6363	
901.91	6363	
902.07	6363	
902.24	6363	
902.4	6363	
902.57	6363	
902.73	6363	
902.9	6363	
903.06	6363	
903.23	6363	
903.39	6363	
903.56	6363	
903.72	6363	
903.88	6363	
904.05	6363	
904.21	6363	
904.38	6363	
904.54	6363	
904.71	6363	
904.87	6363	
905.03	6363	
905.2	6363	
905.36	6363	
905.53	6363	
905.69	6363	
905.86	6363	
906.02	6363	
906.18	6363	
906.35	6363	
906.51	6363	
906.68	6363	
906.84	6363	
907.01	6363	
907.17	6363	
907.33	6363	
907.5	6363	
907.66	6363	
907.83	6363	
907.99	6363	
908.15	6363	
908.32	6363	
908.48	6363	
908.65	6363	
908.81	6363	
908.97	6363	
909.14	6363	
909.3	6363	
909.47	6363	
909.63	6363	
909.79	6363	
909.96	6363	
910.12	6363	
910.28	6363	
910.45	6363	
910.61	6363	
910.78	6363	
910.94	6363	
911.1	6363	
911.27	6363	
911.43	6363	
911.59	6363	
911.76	6363	
911.92	6363	
912.08	6363	
912.25	6363	
912.41	6363	
912.57	6363	
912.74	6363	
912.9	6363	
913.07	6363	
913.23	6363	
913.39	6363	
913.56	6363	
913.72	6363	
913.88	6363	
914.05	6363	
914.21	6363	
914.37	6363	
914.54	6363	
914.7	6363	
914.86	6363	
915.03	6363	
915.19	6363	
