Wavelength	Intensities	
nm	a.u.	
179.22	1752.5	
179.44	1749.3	
179.65	1755.8	
179.86	1742.8	
180.08	1743.5	
180.29	4175.1	
180.51	3052.2	
180.72	5066	
180.94	5779.4	
181.15	2818	
181.37	2822.8	
181.58	4881.7	
181.79	5116.5	
182.01	2863.7	
182.22	3142.3	
182.44	5153.4	
182.65	4398.4	
182.87	3795.6	
183.08	3416.7	
183.29	5445.5	
183.51	4510.3	
183.72	3106.1	
183.94	4345.8	
184.15	4786.8	
184.37	4829.1	
184.58	2771.6	
184.79	3616	
185.01	4629.8	
185.22	5166.3	
185.44	3847.5	
185.65	3278.1	
185.86	4813.4	
186.08	4462.5	
186.29	2732.7	
186.51	2891	
186.72	4543.8	
186.94	5223	
187.15	3330	
187.36	3411.9	
187.58	6598.6	
187.79	4947.2	
188.01	3489.7	
188.22	5311.1	
188.43	5788.9	
188.65	5092.6	
188.86	2935.4	
189.08	3405.1	
189.29	4721.9	
189.5	4659.8	
189.72	3142.9	
189.93	3190.7	
190.15	5261.2	
190.36	6157.6	
190.57	3424.9	
190.79	3316.3	
191	5277.6	
191.22	5294	
191.43	3478.1	
191.64	2907.4	
191.86	5436	
192.07	5287.9	
192.29	3094.5	
192.5	3158	
192.71	5292.6	
192.93	4672.8	
193.14	3079.5	
193.35	3235.1	
193.57	4663.2	
193.78	5294	
194	2603	
194.21	3121.1	
194.42	4483.7	
194.64	4916.5	
194.85	3409.9	
195.07	3871.3	
195.28	4894	
195.49	4291.2	
195.71	4188.8	
195.92	2980.5	
196.13	5066	
196.35	5095.3	
196.56	4326.7	
196.78	3363.4	
196.99	6139.8	
197.2	5717.9	
197.42	3841.3	
197.63	3405.1	
197.84	4441.4	
198.06	4990.9	
198.27	3180.5	
198.48	4079.6	
198.7	4603.8	
198.91	4825.7	
199.13	3448.1	
199.34	3451.5	
199.55	5201.8	
199.77	4227	
199.98	3054.2	
200.19	3487.7	
200.41	4800.4	
200.62	4526.7	
200.83	3530.7	
201.05	3791.5	
201.26	4805.2	
201.47	4610.7	
201.69	3078.1	
201.9	2965.5	
202.11	4824.3	
202.33	5653.1	
202.54	3255.6	
202.76	3685.7	
202.97	4956.1	
203.18	4981.3	
203.4	3538.9	
203.61	3556.6	
203.82	4934.2	
204.04	4654.4	
204.25	3456.3	
204.46	3400.3	
204.68	4883	
204.89	5081	
205.1	3280.2	
205.32	2960	
205.53	5157.5	
205.74	5253	
205.96	2551.1	
206.17	3487	
206.38	5141.8	
206.6	5219.6	
206.81	3866.6	
207.02	3239.2	
207.24	5032.5	
207.45	5398.4	
207.66	3222.1	
207.88	2869.9	
208.09	5009.3	
208.3	4855.1	
208.52	3040.6	
208.73	3334.8	
208.94	4870.8	
209.15	5388.9	
209.37	3271.3	
209.58	3659.7	
209.79	5309.7	
210.01	4642.1	
210.22	2650.1	
210.43	2793.4	
210.65	4847.5	
210.86	5175.2	
211.07	3247.4	
211.29	3024.8	
211.5	5088.5	
211.71	4795	
211.93	3005.7	
212.14	3017.3	
212.35	4810	
212.56	4875.5	
212.78	3433.8	
212.99	2853.5	
213.2	5603.2	
213.42	4658.4	
213.63	3154.6	
213.84	3360	
214.06	4427	
214.27	4475.5	
214.48	3243.3	
214.69	3464.5	
214.91	5377.3	
215.12	5384.1	
215.33	3499.3	
215.55	3751.2	
215.76	5837.4	
215.97	5114.5	
216.18	3303.4	
216.4	3307.5	
216.61	4602.5	
216.82	5254.4	
217.04	3045.3	
217.25	3194.1	
217.46	5326.1	
217.67	5113.8	
217.89	2780.5	
218.1	2868.5	
218.31	4941.1	
218.53	4958.1	
218.74	3186.6	
218.95	3078.8	
219.16	4806.6	
219.38	5557.5	
219.59	3093.8	
219.8	3636.5	
220.01	6010.1	
220.23	4887.8	
220.44	3935.5	
220.65	3024.2	
220.87	4947.9	
221.08	5340.4	
221.29	2883.5	
221.5	3678.2	
221.72	6367.8	
221.93	4642.7	
222.14	3488.4	
222.35	3981.9	
222.57	4807.3	
222.78	5147.2	
222.99	3320.4	
223.2	3460.4	
223.42	5096.7	
223.63	5162.9	
223.84	2566.8	
224.05	2557.9	
224.27	5962.3	
224.48	5545.9	
224.69	3975.1	
224.9	3475.4	
225.12	4969.7	
225.33	4851.6	
225.54	2804.4	
225.75	3080.8	
225.97	4549.9	
226.18	4749.9	
226.39	3275.4	
226.6	3119.7	
226.82	4683	
227.03	4528.7	
227.24	3417.4	
227.45	2927.9	
227.67	5184.1	
227.88	5518.6	
228.09	3784	
228.3	3702.7	
228.52	5216.9	
228.73	4801.8	
228.94	3194.8	
229.15	2861.7	
229.36	4820.2	
229.58	4756.1	
229.79	3252.2	
230	3687	
230.21	5720.7	
230.43	4897.4	
230.64	3418.7	
230.85	3555.3	
231.06	5228.5	
231.28	5201.2	
231.49	2914.9	
231.7	3300	
231.91	5102.2	
232.12	4836.6	
232.34	2985.9	
232.55	3375.7	
232.76	5334.3	
232.97	4995	
233.18	3075.4	
233.4	3442	
233.61	5023	
233.82	4655.7	
234.03	3237.2	
234.25	3087.7	
234.46	6503.7	
234.67	4883	
234.88	3493.8	
235.09	3076.7	
235.31	5100.8	
235.52	4793.6	
235.73	3407.8	
235.94	2930	
236.15	4644.8	
236.37	5732.9	
236.58	3038.5	
236.79	3244.7	
237	5095.3	
237.21	4431.1	
237.43	3542.3	
237.64	2813.2	
237.85	8168	
238.06	4506.9	
238.27	3560.7	
238.48	2934.7	
238.7	5133.6	
238.91	4753.3	
239.12	3279.5	
239.33	3379.8	
239.54	4557.4	
239.76	4767.7	
239.97	3263.8	
240.18	3239.2	
240.39	5852.4	
240.6	5004.6	
240.82	3405.8	
241.03	2856.9	
241.24	4823	
241.45	5479.7	
241.66	3050.1	
241.87	3607.8	
242.09	5468.1	
242.3	5689.9	
242.51	3558.7	
242.72	3280.2	
242.93	5174.5	
243.14	4825.7	
243.36	3791.5	
243.57	4061.1	
243.78	5532.9	
243.99	5142.4	
244.2	3237.2	
244.41	2964.8	
244.63	4474.8	
244.84	5068	
245.05	3472	
245.26	3319.1	
245.47	5109.7	
245.68	5234.6	
245.9	4279.6	
246.11	3430.3	
246.32	4682.3	
246.53	5003.2	
246.74	5205.3	
246.95	2810.5	
247.16	4528.1	
247.38	4890.5	
247.59	2809.1	
247.8	3347.7	
248.01	4558.8	
248.22	4833.9	
248.43	2998.9	
248.64	3249.4	
248.86	4450.2	
249.07	4673.5	
249.28	2994.1	
249.49	3370.3	
249.7	5261.2	
249.91	5332.9	
250.12	2843.9	
250.34	2835.8	
250.55	4949.9	
250.76	4859.8	
250.97	3422.2	
251.18	3453.6	
251.39	5401.9	
251.6	5002.5	
251.81	3433.8	
252.03	3418.1	
252.24	4636.6	
252.45	5214.1	
252.66	2923.8	
252.87	3621.5	
253.08	4840.7	
253.29	6120.7	
253.5	2962.7	
253.72	3903.4	
253.93	4753.3	
254.14	5622.4	
254.35	3123.8	
254.56	3197.6	
254.77	5016.2	
254.98	4545.1	
255.19	3115	
255.41	3921.9	
255.62	4960.2	
255.83	5341.1	
256.04	3502.7	
256.25	3381.9	
256.46	5812.1	
256.67	4597.7	
256.88	3438.5	
257.09	3703.4	
257.31	4540.3	
257.52	4534.2	
257.73	4199.7	
257.94	3132	
258.15	4749.9	
258.36	4855.7	
258.57	3886.4	
258.78	2589.3	
258.99	5187.5	
259.2	4721.3	
259.41	3162.7	
259.63	3310.9	
259.84	5498.8	
260.05	5777.3	
260.26	4071.4	
260.47	3046	
260.68	5356.1	
260.89	4719.2	
261.1	3738.9	
261.31	2999.6	
261.52	5373.2	
261.73	5582.1	
261.95	3952.6	
262.16	3545.7	
262.37	5367.7	
262.58	5499.5	
262.79	3984.7	
263	3253.5	
263.21	4904.2	
263.42	4713.7	
263.63	3480.9	
263.84	3224.9	
264.05	5303.6	
264.26	5534.3	
264.47	3837.9	
264.69	3478.1	
264.9	5474.9	
265.11	4977.9	
265.32	3070.6	
265.53	3168.2	
265.74	4961.5	
265.95	4377.2	
266.16	3355.3	
266.37	3641.3	
266.58	4974.5	
266.79	4726	
267	3177.8	
267.21	2945.7	
267.42	4530.1	
267.63	4828.4	
267.84	3290.4	
268.06	2836.4	
268.27	5249.6	
268.48	5456.5	
268.69	3229	
268.9	3720.5	
269.11	5368.4	
269.32	4407.2	
269.53	3297.2	
269.74	3117	
269.95	5079	
270.16	4382.7	
270.37	3317	
270.58	3783.3	
270.79	4756.7	
271	5210.7	
271.21	3464.5	
271.42	3309.5	
271.63	5012.7	
271.84	4541	
272.05	2698.5	
272.26	2986.6	
272.47	4812.7	
272.68	5015.5	
272.89	3133.4	
273.11	3612.6	
273.32	4717.8	
273.53	5584.8	
273.74	3486.3	
273.95	3454.9	
274.16	5261.2	
274.37	4822.3	
274.58	3631.7	
274.79	2910.2	
275	5014.8	
275.21	5332.9	
275.42	4233.2	
275.63	3676.1	
275.84	5059.2	
276.05	6213.5	
276.26	3480.2	
276.47	3233.1	
276.68	4792.9	
276.89	5669.5	
277.1	3665.9	
277.31	2921.1	
277.52	5060.5	
277.73	5253	
277.94	2906.1	
278.15	3196.9	
278.36	5015.5	
278.57	4586.1	
278.78	3156.6	
278.99	3540.9	
279.2	4670.1	
279.41	4561.5	
279.62	4076.1	
279.83	2972.3	
280.04	5840.8	
280.25	4514.4	
280.46	4095.3	
280.67	3293.1	
280.88	4590.9	
281.09	5369.8	
281.3	3411.2	
281.51	4296	
281.72	4629.8	
281.93	5268.1	
282.14	3086.3	
282.35	3388	
282.56	5289.2	
282.77	5224.4	
282.98	3228.3	
283.19	3887.7	
283.4	6280.4	
283.61	4823	
283.82	2990.7	
284.03	4035.9	
284.24	4995	
284.45	5374.6	
284.66	3986.7	
284.87	3900	
285.08	5329.5	
285.29	5473.5	
285.5	2899.2	
285.71	3204.4	
285.92	5324	
286.12	5834	
286.33	3989.4	
286.54	3296.5	
286.75	5208	
286.96	4794.3	
287.17	2979.8	
287.38	3889.1	
287.59	4627	
287.8	4570.4	
288.01	3229	
288.22	3713	
288.43	5223	
288.64	4417.5	
288.85	3784	
289.06	3636.5	
289.27	5175.2	
289.48	5534.3	
289.69	3992.2	
289.9	3651.5	
290.11	5404.6	
290.32	4642.1	
290.53	3829.7	
290.74	3544.4	
290.94	5196.4	
291.15	5216.9	
291.36	3120.4	
291.57	3679.5	
291.78	4672.8	
291.99	4403.1	
292.2	3064.4	
292.41	3540.9	
292.62	5342.5	
292.83	5063.9	
293.04	4255.7	
293.25	3056.3	
293.46	4737	
293.67	5302.2	
293.88	3087	
294.09	3024.8	
294.29	4517.8	
294.5	4977.9	
294.71	3336.1	
294.92	3198.9	
295.13	4698	
295.34	5809.4	
295.55	2846	
295.76	2745.6	
295.97	5246.9	
296.18	5708.4	
296.39	2950.4	
296.6	3126.6	
296.81	4946.5	
297.01	5164.3	
297.22	3222.1	
297.43	3097.9	
297.64	4641.4	
297.85	4526	
298.06	2628.9	
298.27	2842.6	
298.48	4847.5	
298.69	4680.3	
298.9	3307.5	
299.11	3042.6	
299.31	4513	
299.52	4546.5	
299.73	3614.7	
299.94	3508.2	
300.15	4897.4	
300.36	4578.6	
300.57	3535.5	
300.78	3480.9	
300.99	4788.8	
301.2	4915.1	
301.4	3099.9	
301.61	3358	
301.82	5144.5	
302.03	5168.4	
302.24	3718.4	
302.45	2996.9	
302.66	5077.6	
302.87	5406.6	
303.08	3192.1	
303.29	4147.1	
303.49	4704.9	
303.7	4850.3	
303.91	2845.3	
304.12	3973.1	
304.33	4463.2	
304.54	4990.9	
304.75	3149.1	
304.96	2989.4	
305.16	5134.3	
305.37	5672.9	
305.58	2806.4	
305.79	2835.8	
306	5142.4	
306.21	4410	
306.42	3097.9	
306.63	4587.4	
306.83	4786.8	
307.04	5201.8	
307.25	3403	
307.46	3339.6	
307.67	4321.9	
307.88	5182.7	
308.09	3067.2	
308.29	3158.7	
308.5	4960.9	
308.71	5337.7	
308.92	3323.2	
309.13	3011.9	
309.34	4824.3	
309.55	4788.8	
309.75	3866.6	
309.96	3515	
310.17	5177.9	
310.38	4637.3	
310.59	3648.8	
310.8	2928.6	
311.01	4697.4	
311.21	4810	
311.42	3002.3	
311.63	3112.2	
311.84	4704.9	
312.05	4923.3	
312.26	3449.5	
312.46	3732.1	
312.67	4766.3	
312.88	4471.4	
313.09	2981.8	
313.3	2997.5	
313.51	5444.9	
313.71	5728.2	
313.92	3076.7	
314.13	3163.4	
314.34	5051	
314.55	4788.2	
314.76	3786.7	
314.96	3381.2	
315.17	4939	
315.38	5070.1	
315.59	3024.8	
315.8	2906.8	
316.01	5515.9	
316.21	5560.2	
316.42	2921.1	
316.63	3342.3	
316.84	4765.6	
317.05	5397.8	
317.26	3480.2	
317.46	3163.4	
317.67	4838	
317.88	5171.8	
318.09	3728	
318.3	2870.6	
318.5	4626.4	
318.71	5085.1	
318.92	4712.4	
319.13	3499.3	
319.34	5239.4	
319.54	5339.7	
319.75	2871.9	
319.96	2712.9	
320.17	5132.9	
320.38	5337.7	
320.58	2787.3	
320.79	3300	
321	5294.7	
321.21	5381.4	
321.42	3314.3	
321.62	2828.2	
321.83	4618.2	
322.04	4857.1	
322.25	3269.2	
322.46	3033.7	
322.66	4949.9	
322.87	5117.9	
323.08	3623.5	
323.29	2954.5	
323.5	5756.8	
323.7	4519.9	
323.91	4018.1	
324.12	3629.7	
324.33	4971.8	
324.53	5143.8	
324.74	3482.2	
324.95	3644	
325.16	4414.1	
325.37	4737.6	
325.57	3018.7	
325.78	3097.2	
325.99	4932.2	
326.2	4507.6	
326.4	4275.5	
326.61	2823.5	
326.82	4809.3	
327.03	4943.8	
327.24	4190.8	
327.44	3917.1	
327.65	5098.1	
327.86	4192.2	
328.07	3535.5	
328.27	2906.1	
328.48	5426.4	
328.69	4531.5	
328.9	4177.9	
329.1	3201	
329.31	4792.2	
329.52	5459.2	
329.73	3061	
329.93	3370.3	
330.14	4911.7	
330.35	5045.5	
330.56	4741	
330.76	3672.7	
330.97	4739	
331.18	4985.4	
331.39	3379.1	
331.59	2762.7	
331.8	5311.7	
332.01	5378	
332.22	3102.7	
332.42	3512.3	
332.63	4947.9	
332.84	4568.3	
333.05	3387.3	
333.25	3093.8	
333.46	4648.2	
333.67	4909	
333.88	3188.7	
334.08	3401.7	
334.29	6365.1	
334.5	5335	
334.7	2944.3	
334.91	4207.9	
335.12	4503.5	
335.33	5133.6	
335.53	3289	
335.74	4776.5	
335.95	4752	
336.16	4542.4	
336.36	3293.8	
336.57	3751.9	
336.78	4469.4	
336.98	5285.8	
337.19	4050.2	
337.4	3235.8	
337.61	5777.3	
337.81	4486.4	
338.02	3096.5	
338.23	3923.9	
338.43	5452.4	
338.64	4601.1	
338.85	3039.2	
339.05	3914.4	
339.26	5539.8	
339.47	4436.6	
339.68	3050.1	
339.88	4332.1	
340.09	5054.4	
340.3	5270.8	
340.5	3547.1	
340.71	2777.7	
340.92	4521.2	
341.13	5449	
341.33	2869.2	
341.54	3536.8	
341.75	5129.5	
341.95	4758.8	
342.16	3384.6	
342.37	3664.5	
342.57	4463.9	
342.78	4844.1	
342.99	3708.9	
343.19	2781.8	
343.4	5197.1	
343.61	5085.1	
343.81	3257	
344.02	2946.3	
344.23	5184.1	
344.43	5474.9	
344.64	3705.5	
344.85	3618.8	
345.06	5085.1	
345.26	5371.8	
345.47	3465.8	
345.68	3988.1	
345.88	4432.5	
346.09	5231.2	
346.3	3574.4	
346.5	2701.3	
346.71	4822.3	
346.92	4626.4	
347.12	2858.3	
347.33	3497.9	
347.54	5253	
347.74	5607.3	
347.95	3470.6	
348.16	2641.9	
348.36	4674.8	
348.57	4560.1	
348.78	3491.8	
348.98	3645.4	
349.19	4789.5	
349.39	4419.5	
349.6	2833	
349.81	3076.7	
350.01	5083.1	
350.22	4614.8	
350.43	3388.7	
350.63	3925.3	
350.84	4851.6	
351.05	4645.5	
351.25	3052.2	
351.46	2817.3	
351.67	5290.6	
351.87	4597	
352.08	3257	
352.29	3649.5	
352.49	5191.6	
352.7	5278.3	
352.9	2977.7	
353.11	3629.7	
353.32	5683.8	
353.52	4697.4	
353.73	2905.4	
353.94	3672	
354.14	5077.6	
354.35	4871.4	
354.55	3059.7	
354.76	3319.1	
354.97	5047.6	
355.17	4853	
355.38	2927.9	
355.59	3859.1	
355.79	4575.8	
356	4842.1	
356.2	3340.2	
356.41	2936.1	
356.62	4441.4	
356.82	4816.1	
357.03	3572.3	
357.24	3184.6	
357.44	4622.3	
357.65	4687.1	
357.85	4166.3	
358.06	3335.5	
358.27	4371	
358.47	4518.5	
358.68	2874.7	
358.88	3523.9	
359.09	5045.5	
359.3	5274.9	
359.5	4081.6	
359.71	3632.4	
359.91	5625.8	
360.12	5087.2	
360.33	3551.2	
360.53	3928	
360.74	4659.1	
360.94	4665.3	
361.15	3680.2	
361.36	3097.9	
361.56	5289.9	
361.77	4823.6	
361.97	4045.4	
362.18	3269.2	
362.38	5225.1	
362.59	4505.5	
362.8	3059.7	
363	2936.8	
363.21	4299.4	
363.41	4885.8	
363.62	3413.3	
363.83	4193.6	
364.03	5001.1	
364.24	5653.1	
364.44	4348.5	
364.65	4192.2	
364.85	4722.6	
365.06	4502.1	
365.27	3222.8	
365.47	3255.6	
365.68	5525.4	
365.88	4773.8	
366.09	3497.9	
366.29	3244.7	
366.5	4931.5	
366.71	5263.3	
366.91	4246.1	
367.12	3646.7	
367.32	5751.4	
367.53	5162.2	
367.73	3646.7	
367.94	4317.8	
368.14	5169.8	
368.35	5785.5	
368.56	3517	
368.76	3326.6	
368.97	5327.4	
369.17	6481.1	
369.38	3218	
369.58	3394.8	
369.79	4510.3	
369.99	5492.7	
370.2	4216.1	
370.4	3488.4	
370.61	5042.1	
370.82	5903.6	
371.02	3451.5	
371.23	2945.7	
371.43	4457.7	
371.64	5523.4	
371.84	3455.6	
372.05	4328	
372.25	6435.4	
372.46	5184.1	
372.66	3431.7	
372.87	3429	
373.07	5242.8	
373.28	6464.8	
373.48	4222.2	
373.69	3935.5	
373.9	4851	
374.1	4810.7	
374.31	4178.5	
374.51	3814	
374.72	5562.3	
374.92	4633.9	
375.13	4243.4	
375.33	3682.2	
375.54	5162.2	
375.74	4816.8	
375.95	3758	
376.15	4672.8	
376.36	5242.8	
376.56	5121.3	
376.77	3861.1	
376.97	4124.6	
377.18	6115.2	
377.38	5307	
377.59	4380.6	
377.79	3435.8	
378	5102.2	
378.2	5420.3	
378.41	3495.9	
378.61	3449.5	
378.82	5537.7	
379.02	4857.1	
379.23	3576.4	
379.43	4433.2	
379.64	5671.5	
379.84	5236.7	
380.05	3426.3	
380.25	3366.9	
380.46	5333.6	
380.66	5047.6	
380.87	4486.4	
381.07	4803.2	
381.28	5809.4	
381.48	5382.7	
381.69	3456.3	
381.89	3509.5	
382.1	4532.2	
382.3	5423	
382.51	4364.2	
382.71	5049.6	
382.91	5330.9	
383.12	5715.9	
383.32	3702	
383.53	3920.5	
383.73	5157.5	
383.94	5145.9	
384.14	3907.5	
384.35	3175.7	
384.55	4938.3	
384.76	5377.3	
384.96	3771.7	
385.17	3994.9	
385.37	5332.2	
385.58	4730.8	
385.78	3964.9	
385.98	3128.6	
386.19	4940.4	
386.39	5226.4	
386.6	3553.9	
386.8	3788.1	
387.01	5322.7	
387.21	5393.7	
387.42	4071.4	
387.62	4528.7	
387.83	4853.7	
388.03	5203.2	
388.23	3769.6	
388.44	4413.4	
388.64	4535.6	
388.85	4727.4	
389.05	4037.9	
389.26	4498.7	
389.46	6266.1	
389.67	5745.9	
389.87	4023.6	
390.07	4044.1	
390.28	5044.8	
390.48	4722.6	
390.69	3420.1	
390.89	3685	
391.1	4921.3	
391.3	5612.1	
391.5	4637.3	
391.71	5049.6	
391.91	5489.9	
392.12	6133	
392.32	4672.8	
392.53	4002.4	
392.73	4973.8	
392.93	5091.9	
393.14	3781.2	
393.34	4678.2	
393.55	5449	
393.75	5077.6	
393.95	3878.2	
394.16	3702.7	
394.36	4917.9	
394.57	5459.2	
394.77	3455.6	
394.98	3710.2	
395.18	4863.9	
395.38	5049.6	
395.59	4423.6	
395.79	3644	
396	5021.6	
396.2	5354.1	
396.4	4287.8	
396.61	4227	
396.81	5509.7	
397.02	4923.3	
397.22	4452.3	
397.42	4479.6	
397.63	5551.4	
397.83	4939	
398.04	3622.2	
398.24	3991.5	
398.44	5315.2	
398.65	4603.8	
398.85	3510.9	
399.05	3604.4	
399.26	4913.1	
399.46	6260.6	
399.67	3911.6	
399.87	3705.5	
400.07	5214.8	
400.28	5472.2	
400.48	3792.2	
400.69	4572.4	
400.89	5629.2	
401.09	5996.5	
401.3	3730.7	
401.5	4496.7	
401.7	6206	
401.91	6374	
402.11	3973.1	
402.32	4061.1	
402.52	5705.6	
402.72	5644.2	
402.93	4283.7	
403.13	3357.3	
403.33	6176	
403.54	5215.5	
403.74	3974.4	
403.94	4698	
404.15	5309.7	
404.35	6236.1	
404.56	3880.9	
404.76	5255.1	
404.96	5671.5	
405.17	5528.2	
405.37	4560.8	
405.57	4319.8	
405.78	5682.4	
405.98	5190.2	
406.18	3878.2	
406.39	4481.6	
406.59	5614.8	
406.79	5268.7	
407	3728.7	
407.2	3814	
407.4	5808.7	
407.61	5872.9	
407.81	3872.7	
408.01	5259.9	
408.22	4850.3	
408.42	6413.6	
408.62	4689.2	
408.83	4336.2	
409.03	5474.9	
409.23	5264	
409.44	4433.9	
409.64	4556.7	
409.84	6245.6	
410.05	6072.9	
410.25	4617.5	
410.45	4350.6	
410.66	5759.6	
410.86	7693.5	
411.06	4732.2	
411.27	4650.9	
411.47	7466.9	
411.67	5870.2	
411.88	4754.7	
412.08	4962.2	
412.28	6399.9	
412.49	6806.8	
412.69	4638.6	
412.89	4650.3	
413.09	6664.8	
413.3	6530.3	
413.5	4789.5	
413.7	4416.1	
413.91	5926.1	
414.11	6657.9	
414.31	4600.4	
414.52	4967	
414.72	6413.6	
414.92	6299.6	
415.12	4580.6	
415.33	5019.6	
415.53	6623.1	
415.73	6718	
415.94	5255.1	
416.14	4761.5	
416.34	5851.7	
416.55	5706.3	
416.75	5709.7	
416.95	5324	
417.15	6741.9	
417.36	7165.8	
417.56	5965.1	
417.76	5198.4	
417.97	6924.9	
418.17	6700.3	
418.37	4913.1	
418.57	4983.4	
418.78	6545.3	
418.98	6222.4	
419.18	5649.7	
419.38	5538.4	
419.59	6285.2	
419.79	5927.5	
419.99	4859.8	
420.2	5091.9	
420.4	6736.5	
420.6	6744.6	
420.8	4801.1	
421.01	4659.1	
421.21	6610.8	
421.41	6632.7	
421.61	5103.5	
421.82	4825.7	
422.02	6204	
422.22	6869.6	
422.42	5517.2	
422.63	5130.2	
422.83	6317.3	
423.03	7195.2	
423.23	5129.5	
423.44	4386.7	
423.64	6290.7	
423.84	6041.5	
424.04	4773.8	
424.25	4505.5	
424.45	7022.5	
424.65	6998.6	
424.85	4347.8	
425.06	4741.7	
425.26	7121.5	
425.46	6206.7	
425.66	5200.5	
425.87	4844.1	
426.07	6799.9	
426.27	6693.4	
426.47	5081.7	
426.67	4551.3	
426.88	7030	
427.08	6628.6	
427.28	5252.4	
427.48	4503.5	
427.69	5881.8	
427.89	6291.4	
428.09	5192.3	
428.29	4556.7	
428.5	6829.3	
428.7	6389.7	
428.9	4425	
429.1	4858.5	
429.3	6408.8	
429.51	6714.6	
429.71	4683	
429.91	5358.2	
430.11	6743.3	
430.31	6851.8	
430.52	4954.7	
430.72	5132.2	
430.92	7045	
431.12	6606.1	
431.32	4715.1	
431.53	5073.5	
431.73	5829.2	
431.93	7175.4	
432.13	4644.8	
432.33	4473.4	
432.54	6305.7	
432.74	6497.5	
432.94	4488.5	
433.14	5390.9	
433.34	6736.5	
433.55	6343.2	
433.75	5275.6	
433.95	6603.3	
434.15	6533.7	
434.35	6294.1	
434.56	4734.2	
434.76	4324.6	
434.96	6516	
435.16	6662	
435.36	4586.1	
435.56	5494.7	
435.77	6196.5	
435.97	6398.5	
436.17	6027.2	
436.37	5442.1	
436.57	6227.2	
436.78	6174.6	
436.98	5429.2	
437.18	5874.3	
437.38	6672.3	
437.58	6343.2	
437.78	6022.4	
437.99	4910.3	
438.19	6785.6	
438.39	7380.2	
438.59	4896.7	
438.79	4457.1	
438.99	7251.9	
439.2	6300.9	
439.4	4610.7	
439.6	4633.2	
439.8	6591	
440	7467.6	
440.2	5367	
440.4	5382.7	
440.61	6978.8	
440.81	7333.1	
441.01	4778.6	
441.21	5544.5	
441.41	7342	
441.61	6969.2	
441.81	5679	
442.02	6529.6	
442.22	7656.7	
442.42	7114	
442.62	4900.1	
442.82	4924.7	
443.02	7385	
443.22	6590.4	
443.43	5304.9	
443.63	4906.9	
443.83	6505	
444.03	6520	
444.23	5947.3	
444.43	5522	
444.63	6825.2	
444.83	7707.9	
445.04	5017.5	
445.24	5924.1	
445.44	7030	
445.64	7116.7	
445.84	5638.1	
446.04	5612.8	
446.24	6577.4	
446.44	7387	
446.65	4925.4	
446.85	5254.4	
447.05	6792.4	
447.25	7287.4	
447.45	5390.3	
447.65	4836.6	
447.85	6836.1	
448.05	6428.6	
448.25	5750	
448.46	5510.4	
448.66	6772.6	
448.86	6466.1	
449.06	4803.9	
449.26	5690.6	
449.46	7131.7	
449.66	6366.5	
449.86	5366.4	
450.06	5240.8	
450.26	6439.5	
450.47	6960.4	
450.67	5541.8	
450.87	5696.8	
451.07	7093.5	
451.27	6829.3	
451.47	5032.5	
451.67	5412.8	
451.87	6617	
452.07	7521.5	
452.27	5205.9	
452.47	5163.6	
452.67	6873.7	
452.88	7141.9	
453.08	4629.8	
453.28	6240.2	
453.48	7812.3	
453.68	6791.7	
453.88	5057.8	
454.08	5240.8	
454.28	7092.1	
454.48	6928.3	
454.68	5691.3	
454.88	6088.6	
455.08	7220.5	
455.28	7036.1	
455.48	4997	
455.68	5556.8	
455.89	7650.5	
456.09	7282.6	
456.29	5366.4	
456.49	5389.6	
456.69	7524.2	
456.89	6898.2	
457.09	5778	
457.29	6001.2	
457.49	7175.4	
457.69	7344.7	
457.89	5689.3	
458.09	5123.3	
458.29	7060.7	
458.49	7640.3	
458.69	5972.6	
458.89	5429.8	
459.09	7854.6	
459.29	7897.7	
459.49	5656.5	
459.69	6281.8	
459.9	7562.5	
460.1	7064.1	
460.3	5490.6	
460.5	5349.3	
460.7	7479.2	
460.9	7189.7	
461.1	5228.5	
461.3	6130.3	
461.5	7980.3	
461.7	7681.9	
461.9	5476.3	
462.1	5819	
462.3	7329.7	
462.5	7819.8	
462.7	5586.9	
462.9	5636.7	
463.1	8527.7	
463.3	8384.4	
463.5	5809.4	
463.7	6547.4	
463.9	7545.4	
464.1	7819.8	
464.3	6034	
464.5	6154.8	
464.7	8054	
464.9	7773.4	
465.1	7137.9	
465.3	6417.7	
465.5	8355.7	
465.7	8353.7	
465.9	6655.9	
466.1	6479.1	
466.3	8223.3	
466.5	8006.9	
466.7	7246.4	
466.9	6280.4	
467.1	8066.3	
467.3	8741.4	
467.5	7167.9	
467.7	6285.2	
467.9	8965.3	
468.1	9576.3	
468.3	6879.1	
468.5	7274.4	
468.7	8018.5	
468.9	7929.7	
469.1	6549.4	
469.3	7135.1	
469.5	9592.7	
469.7	7724.3	
469.9	6911.2	
470.1	6372.6	
470.3	8200.1	
470.5	8149.6	
470.7	7348.1	
470.9	6451.1	
471.1	7840.3	
471.3	8183.7	
471.5	6315.3	
471.69	7838.9	
471.89	7916.8	
472.09	7437.5	
472.29	6958.3	
472.49	7146	
472.69	7619.8	
472.89	8189.1	
473.09	6190.3	
473.29	6334.4	
473.49	7755	
473.69	7811.6	
473.89	6998.6	
474.09	6370.5	
474.29	8928.5	
474.49	8456.7	
474.69	7073.7	
474.89	6482.5	
475.09	7884.7	
475.29	7731.1	
475.49	5997.8	
475.69	6294.8	
475.88	9104.6	
476.08	8166.6	
476.28	5973.2	
476.48	6338.5	
476.68	8419.2	
476.88	8211.7	
477.08	6282.5	
477.28	6478.4	
477.48	7912	
477.68	8417.8	
477.88	6129.6	
478.08	6339.1	
478.28	8703.9	
478.48	7982.3	
478.67	6398.5	
478.87	5883.1	
479.07	8496.3	
479.27	7987.1	
479.47	6521.4	
479.67	6561	
479.87	8295	
480.07	8709.3	
480.27	5924.8	
480.47	7230.7	
480.67	8084	
480.87	8645.8	
481.06	6233.3	
481.26	6898.9	
481.46	8163.9	
481.66	7946.1	
481.86	6602	
482.06	7308.5	
482.26	7830.1	
482.46	8534.6	
482.66	6559	
482.86	6255.9	
483.05	8213.7	
483.25	7695.6	
483.45	8470.4	
483.65	6555.5	
483.85	7772	
484.05	8063.5	
484.25	6853.2	
484.45	7178.8	
484.65	8624.7	
484.84	8785.8	
485.04	6549.4	
485.24	6605.4	
485.44	9125.7	
485.64	7707.9	
485.84	5990.3	
486.04	7071	
486.24	7948.8	
486.44	8219.2	
486.63	6038.8	
486.83	6630	
487.03	7950.9	
487.23	8063.5	
487.43	6109.8	
487.63	7903.1	
487.83	8269	
488.02	8826.1	
488.22	6817.7	
488.42	7324.9	
488.62	8822	
488.82	7978.2	
489.02	6574.7	
489.22	6726.2	
489.41	8746.2	
489.61	8529.1	
489.81	6451.8	
490.01	6417	
490.21	8713.4	
490.41	9235.7	
490.61	6425.2	
490.8	6495.5	
491	8329.1	
491.2	7794.6	
491.4	6966.5	
491.6	6322.1	
491.8	8322.9	
491.99	8361.2	
492.19	6247.7	
492.39	6471.6	
492.59	8716.2	
492.79	8782.4	
492.99	7078.5	
493.18	6415.6	
493.38	8904.6	
493.58	9412.5	
493.78	6920.8	
493.98	6610.8	
494.18	8576.9	
494.37	8130.4	
494.57	7239.6	
494.77	7126.2	
494.97	8767.4	
495.17	9057.5	
495.37	6877.1	
495.56	7167.9	
495.76	9172.9	
495.96	8921	
496.16	7865.6	
496.36	7071	
496.55	9183.1	
496.75	8740	
496.95	7389.1	
497.15	7346.1	
497.35	9193.3	
497.54	9087.5	
497.74	7179.5	
497.94	8637.6	
498.14	9772.2	
498.34	9517.6	
498.53	6977.4	
498.73	7572.7	
498.93	8671.8	
499.13	9202.2	
499.33	7431.4	
499.52	7824.6	
499.72	9274.6	
499.92	9342.8	
500.12	7166.5	
500.32	7447.1	
500.51	9442.5	
500.71	9135.3	
500.91	8069.7	
501.11	7722.9	
501.31	9450.7	
501.5	9721.7	
501.7	8292.9	
501.9	7553.6	
502.1	9243.8	
502.29	9503.3	
502.49	7804.1	
502.69	8168.7	
502.89	9290.3	
503.09	9452.7	
503.28	6958.3	
503.48	7173.4	
503.68	8804.9	
503.88	8690.9	
504.07	7843	
504.27	7417.1	
504.47	9058.2	
504.67	9120.3	
504.86	7677.8	
505.06	7472.4	
505.26	8817.9	
505.46	10065	
505.65	7463.5	
505.85	7628.7	
506.05	8688.8	
506.25	9096.4	
506.44	6896.9	
506.64	7601.4	
506.84	8562.6	
507.04	9301.9	
507.23	7049.8	
507.43	7492.8	
507.63	10191	
507.83	8804.9	
508.02	7465.5	
508.22	7178.8	
508.42	10335	
508.62	8518.2	
508.81	7580.2	
509.01	7908.6	
509.21	8511.4	
509.4	8725.7	
509.6	7554.3	
509.8	7051.2	
510	8733.2	
510.19	9708.1	
510.39	7003.4	
510.59	7167.2	
510.79	8618.5	
510.98	9645.9	
511.18	7245.7	
511.38	7322.9	
511.57	9289.6	
511.77	9071.1	
511.97	7860.8	
512.17	7098.3	
512.36	9309.4	
512.56	9207.7	
512.76	7117.4	
512.95	6907.8	
513.15	9479.4	
513.35	8241	
513.55	7761.8	
513.74	7073.7	
513.94	9310.1	
514.14	8739.4	
514.33	7778.9	
514.53	7555.6	
514.73	8686.1	
514.92	8814.5	
515.12	7148.1	
515.32	7026.6	
515.51	8905.9	
515.71	9378.3	
515.91	8470.4	
516.11	7004.1	
516.3	10254	
516.5	8648.6	
516.7	7559.7	
516.89	7943.4	
517.09	8798.1	
517.29	8749.6	
517.48	7774.8	
517.68	7187	
517.88	8531.2	
518.07	9064.3	
518.27	7694.2	
518.47	6957.6	
518.66	9572.2	
518.86	8381	
519.06	6827.9	
519.25	7216.4	
519.45	8634.2	
519.65	9818.6	
519.84	7692.2	
520.04	8200.7	
520.24	10133	
520.43	9079.3	
520.63	7474.4	
520.83	7319.4	
521.02	8642.4	
521.22	9095	
521.42	7677.2	
521.61	8092.2	
521.81	8774.9	
522.01	8877.9	
522.2	7550.2	
522.4	7290.1	
522.6	9249.3	
522.79	8206.9	
522.99	7419.8	
523.18	6999.3	
523.38	9062.9	
523.58	9084.1	
523.77	8445.1	
523.97	6950.8	
524.17	10464	
524.36	9948.3	
524.56	8112	
524.76	7703.1	
524.95	9156.5	
525.15	8762.6	
525.34	7694.2	
525.54	7564.5	
525.74	9535.3	
525.93	8656.1	
526.13	8520.2	
526.33	7617.8	
526.52	9774.3	
526.72	9378.3	
526.91	8576.9	
527.11	7984.3	
527.31	9796.1	
527.5	10148	
527.7	7993.2	
527.89	7258	
528.09	9037	
528.29	9426.1	
528.48	8183	
528.68	8039.6	
528.87	9762	
529.07	9669.8	
529.27	7982.3	
529.46	7666.2	
529.66	9486.2	
529.85	9782.5	
530.05	7590.5	
530.25	8167.3	
530.44	10574	
530.64	9346.2	
530.83	7836.2	
531.03	8109.3	
531.23	9776.3	
531.42	9637.1	
531.62	8615.1	
531.81	7968.6	
532.01	9919.7	
532.21	10167	
532.4	7744.7	
532.6	8113.4	
532.79	10653	
532.99	10015	
533.18	8069	
533.38	8990.6	
533.58	9726.5	
533.77	10256	
533.97	8271.7	
534.16	8819.2	
534.36	10488	
534.55	9717.6	
534.75	9069.8	
534.95	8326.4	
535.14	10479	
535.34	9721	
535.53	8094.9	
535.73	9563.3	
535.92	10904	
536.12	9977	
536.31	8213	
536.51	9159.2	
536.71	10086	
536.9	9903.3	
537.1	8183	
537.29	8399.4	
537.49	10421	
537.68	9736.7	
537.88	8636.3	
538.07	7935.9	
538.27	9999.5	
538.46	10742	
538.66	8000.7	
538.86	8360.5	
539.05	9961.3	
539.25	10239	
539.44	8620.6	
539.64	8236.2	
539.83	9800.9	
540.03	10660	
540.22	8221.2	
540.42	8335.9	
540.61	10015	
540.81	10275	
541	8621.3	
541.2	9118.2	
541.39	9689.6	
541.59	10025	
541.78	8932.6	
541.98	8064.9	
542.18	9429.5	
542.37	9494.4	
542.57	8415.1	
542.76	8893	
542.96	9484.8	
543.15	10025	
543.35	8534.6	
543.54	8006.9	
543.74	10144	
543.93	9919	
544.13	8457.4	
544.32	9268.4	
544.52	10144	
544.71	9525.1	
544.91	7584.3	
545.1	8619.2	
545.3	9476.6	
545.49	10006	
545.69	7526.3	
545.88	8129.8	
546.08	10745	
546.27	10328	
546.47	8448.6	
546.66	7925.6	
546.86	10087	
547.05	10558	
547.24	8076.5	
547.44	7978.9	
547.63	9375.6	
547.83	10236	
548.02	8314.1	
548.22	8413.7	
548.41	9216.5	
548.61	10262	
548.8	7924.3	
549	7942.7	
549.19	9776.3	
549.39	10146	
549.58	7606.8	
549.78	8125.7	
549.97	9948.3	
550.17	9530.6	
550.36	8823.3	
550.55	9517.6	
550.75	9538.8	
550.94	10227	
551.14	7822.6	
551.33	8066.9	
551.53	9027.4	
551.72	9804.3	
551.92	8123.6	
552.11	7925	
552.31	9880.8	
552.5	9795.4	
552.69	9284.1	
552.89	7567.9	
553.08	9775.6	
553.28	9500.5	
553.47	7892.2	
553.67	8831.5	
553.86	10260	
554.06	8885.5	
554.25	7308.5	
554.44	7692.9	
554.64	10749	
554.83	10333	
555.03	7591.8	
555.22	7932.5	
555.42	9904	
555.61	9672.6	
555.8	7786.4	
556	8026	
556.19	8888.9	
556.39	9895.1	
556.58	7793.2	
556.78	7795.9	
556.97	9497.8	
557.16	9284.8	
557.36	8841.8	
557.55	7506.5	
557.75	8717.5	
557.94	10170	
558.13	7524.9	
558.33	7389.1	
558.52	9919.7	
558.72	9005.6	
558.91	7463.5	
559.1	7698.3	
559.3	8806.9	
559.49	8574.8	
559.69	7157.7	
559.88	7896.3	
560.07	9415.2	
560.27	9822.7	
560.46	8034.9	
560.66	8192.6	
560.85	9260.9	
561.04	8555.7	
561.24	7384.3	
561.43	7527	
561.63	8856.1	
561.82	9118.9	
562.01	8614.4	
562.21	7858.1	
562.4	9422.7	
562.59	10136	
562.79	7703.8	
562.98	7383.6	
563.18	9205.6	
563.37	10481	
563.56	8032.1	
563.76	7370.6	
563.95	8980.3	
564.14	8956.4	
564.34	7819.1	
564.53	7464.2	
564.73	9368.8	
564.92	9634.3	
565.11	7865.6	
565.31	7316	
565.5	9847.3	
565.69	9000.8	
565.89	7593.2	
566.08	7788.4	
566.27	9701.9	
566.47	10077	
566.66	8406.2	
566.85	7284.6	
567.05	9533.3	
567.24	8979	
567.44	7555	
567.63	8636.3	
567.82	9764	
568.02	9441.1	
568.21	7522.9	
568.4	7897.7	
568.6	9364	
568.79	9342.8	
568.98	7537.2	
569.18	7481.2	
569.37	9467.1	
569.56	10880	
569.76	7970.7	
569.95	8536.6	
570.14	9744.2	
570.34	9614.5	
570.53	7591.1	
570.72	7496.2	
570.91	10189	
571.11	9316.9	
571.3	7883.3	
571.49	8577.6	
571.69	9508.7	
571.88	9062.9	
572.07	8372.1	
572.27	8316.1	
572.46	8949.6	
572.65	10004	
572.85	7716.1	
573.04	8024.6	
573.23	10075	
573.43	9488.2	
573.62	7554.3	
573.81	8045.1	
574	9625.5	
574.2	9306.7	
574.39	7909.9	
574.58	7986.4	
574.78	10202	
574.97	9611.1	
575.16	8338.6	
575.36	8430.1	
575.55	10056	
575.74	10047	
575.93	7550.9	
576.13	8536.6	
576.32	9577.7	
576.51	9891.7	
576.71	7955	
576.9	9062.3	
577.09	10273	
577.28	9842.5	
577.48	8322.3	
577.67	7509.9	
577.86	9498.5	
578.05	9822.7	
578.25	8116.1	
578.44	8230.1	
578.63	9545.6	
578.83	10589	
579.02	7686.7	
579.21	8843.8	
579.4	9811.8	
579.6	9645.9	
579.79	8227.4	
579.98	10071	
580.17	10038	
580.37	10148	
580.56	7878.5	
580.75	8509.3	
580.94	10421	
581.14	10444	
581.33	8822.6	
581.52	7931.8	
581.71	10045	
581.91	10553	
582.1	7772	
582.29	8219.2	
582.48	9740.1	
582.68	9772.2	
582.87	8594.6	
583.06	8333.2	
583.25	10081	
583.45	9738.1	
583.64	8786.5	
583.83	9304.6	
584.02	9615.2	
584.21	10010	
584.41	8753.7	
584.6	8268.3	
584.79	9727.9	
584.98	10375	
585.18	7725.6	
585.37	7833.5	
585.56	9433.6	
585.75	10036	
585.94	7989.8	
586.14	8501.1	
586.33	10380	
586.52	9698.5	
586.71	8353	
586.91	8141.4	
587.1	9221.3	
587.29	10076	
587.48	8099	
587.67	7949.5	
587.87	9845.3	
588.06	9944.3	
588.25	9141.4	
588.44	8460.2	
588.63	9652.1	
588.83	10093	
589.02	8084.7	
589.21	7959.8	
589.4	9563.3	
589.59	9415.9	
589.78	7339.9	
589.98	7600.7	
590.17	9082.1	
590.36	9368.1	
590.55	7001.3	
590.74	7667.6	
590.94	10471	
591.13	9315.5	
591.32	7492.2	
591.51	6997.9	
591.7	9535.3	
591.89	9193.3	
592.09	7193.1	
592.28	7434.8	
592.47	8572.8	
592.66	10174	
592.85	7165.2	
593.05	7411.6	
593.24	9098.4	
593.43	9723.1	
593.62	7522.2	
593.81	7764.5	
594	9151.7	
594.19	9260.2	
594.39	7282.6	
594.58	7207.5	
594.77	9360.6	
594.96	9780.4	
595.15	7335.1	
595.34	7806.9	
595.54	9359.9	
595.73	8748.9	
595.92	6811.5	
596.11	7594.6	
596.3	9736	
596.49	8778.3	
596.68	7535.8	
596.88	7840.3	
597.07	9495.7	
597.26	8638.3	
597.45	7038.2	
597.64	7982.3	
597.83	8772.8	
598.02	9267.1	
598.22	7117.4	
598.41	7758.4	
598.6	9126.4	
598.79	8687.5	
598.98	7111.2	
599.17	7907.9	
599.36	9069.8	
599.55	9942.9	
599.74	8786.5	
599.94	8500.4	
600.13	9592.7	
600.32	8658.1	
600.51	6929	
600.7	7052.5	
600.89	9972.2	
601.08	9977	
601.27	6881.2	
601.47	7578.8	
601.66	9427.5	
601.85	9892.4	
602.04	7402.7	
602.23	7565.9	
602.42	8699.8	
602.61	9235	
602.8	7275.1	
602.99	7068.9	
603.18	8849.3	
603.37	9107.3	
603.57	7589.8	
603.76	7973.4	
603.95	9682.8	
604.14	9299.1	
604.33	7152.2	
604.52	7376.8	
604.71	9179.7	
604.9	8775.5	
605.09	7916.1	
605.28	7716.7	
605.47	9564	
605.66	9176.9	
605.86	7623.2	
606.05	7227.3	
606.24	9587.2	
606.43	8443.8	
606.62	7434.1	
606.81	8021.9	
607	9388.6	
607.19	8824.7	
607.38	6982.9	
607.57	7244.3	
607.76	8673.1	
607.95	8236.9	
608.14	7552.2	
608.33	7891.5	
608.52	8634.9	
608.72	9423.4	
608.91	6949.4	
609.1	6834.8	
609.29	8804.9	
609.48	8386.4	
609.67	7529.7	
609.86	6913.3	
610.05	8429.4	
610.24	8640.4	
610.43	6789	
610.62	6454.5	
610.81	9536	
611	9330.5	
611.19	6830.7	
611.38	7412.3	
611.57	8877.9	
611.76	9912.9	
611.95	6662.7	
612.14	6514.6	
612.33	8748.2	
612.52	8374.8	
612.71	7150.1	
612.9	6469.5	
613.09	8122.2	
613.28	10042	
613.47	7109.2	
613.66	7684	
613.85	8918.2	
614.04	8567.3	
614.24	6995.2	
614.43	6366.5	
614.62	9050	
614.81	8942.1	
615	7387.7	
615.19	7498.3	
615.38	8441.7	
615.57	8748.2	
615.76	7294.2	
615.95	8085.4	
616.14	9081.4	
616.33	8820.6	
616.52	7601.4	
616.71	7738.6	
616.9	8985.1	
617.09	8915.5	
617.28	7088	
617.47	8052.6	
617.66	8347.5	
617.85	8207.6	
618.04	7786.4	
618.22	7283.9	
618.41	8577.6	
618.6	9338.1	
618.79	7311.2	
618.98	7019.1	
619.17	9559.2	
619.36	8223.3	
619.55	7311.2	
619.74	7314	
619.93	8968.1	
620.12	8551.6	
620.31	7703.1	
620.5	7826.7	
620.69	9492.3	
620.88	9906.7	
621.07	8435.6	
621.26	7710.6	
621.45	9245.9	
621.64	9166	
621.83	7744.1	
622.02	7120.8	
622.21	9314.8	
622.4	9085.5	
622.59	8102.4	
622.78	7974.1	
622.97	8728.4	
623.16	9476.6	
623.35	7677.8	
623.54	7001.3	
623.72	8873.2	
623.91	8953.7	
624.1	7958.4	
624.29	6790.4	
624.48	9808.4	
624.67	9256.1	
624.86	7780.9	
625.05	7109.2	
625.24	9945.6	
625.43	8729.8	
625.62	9032.9	
625.81	7158.3	
626	9451.4	
626.19	8776.2	
626.38	7821.2	
626.56	7374.7	
626.75	8716.2	
626.94	9338.1	
627.13	7894.2	
627.32	6834.8	
627.51	9330.5	
627.7	10165	
627.89	7047.1	
628.08	7793.9	
628.27	8608.3	
628.46	8938	
628.65	7185	
628.83	6924.2	
629.02	9237	
629.21	8611.7	
629.4	7506.5	
629.59	7673.1	
629.78	8692.3	
629.97	9297.8	
630.16	7724.3	
630.35	7313.3	
630.54	9823.4	
630.72	9548.3	
630.91	7344.7	
631.1	7699.7	
631.29	9117.6	
631.48	9225.4	
631.67	7802.1	
631.86	7400	
632.05	8877.9	
632.24	8819.9	
632.42	7086.7	
632.61	7608.2	
632.8	8944.8	
632.99	8574.8	
633.18	7576.1	
633.37	7850.5	
633.56	9091.6	
633.75	9089.6	
633.93	7580.2	
634.12	7353.6	
634.31	9738.8	
634.5	9414.5	
634.69	7369.3	
634.88	7734.5	
635.07	8958.5	
635.25	9321.7	
635.44	8051.9	
635.63	8217.1	
635.82	8799.4	
636.01	8340.7	
636.2	8036.2	
636.39	7681.9	
636.57	9755.8	
636.76	9346.2	
636.95	7161.1	
637.14	8179.6	
637.33	9153.1	
637.52	9822.7	
637.7	7040.2	
637.89	7751.6	
638.08	8880.7	
638.27	9915.6	
638.46	7847.1	
638.65	8172.8	
638.83	9932	
639.02	8716.8	
639.21	7767.3	
639.4	8161.2	
639.59	9055.4	
639.78	8791.2	
639.96	7227.3	
640.15	7192.5	
640.34	8927.1	
640.53	8979.7	
640.72	7047.1	
640.91	7265.5	
641.09	8439	
641.28	9628.9	
641.47	7187	
641.66	7909.9	
641.85	8996.7	
642.03	9209	
642.22	7638.2	
642.41	7306.5	
642.6	8527.7	
642.79	8082	
642.97	7129	
643.16	7587	
643.35	8496.3	
643.54	8284.7	
643.73	7018.4	
643.91	7699.7	
644.1	8243.8	
644.29	8796.7	
644.48	7017.7	
644.67	7077.1	
644.85	8254	
645.04	8710	
645.23	6788.3	
645.42	6959.7	
645.6	8251.9	
645.79	9060.2	
645.98	6812.2	
646.17	6215.6	
646.36	7969.3	
646.54	8436.9	
646.73	7528.3	
646.92	6647	
647.11	8200.1	
647.29	8886.8	
647.48	6677.1	
647.67	6447	
647.86	9105.3	
648.05	9098.4	
648.23	6866.2	
648.42	7826.7	
648.61	8617.9	
648.8	8421.9	
648.98	6498.2	
649.17	6746.7	
649.36	8041.7	
649.55	7672.4	
649.73	6509.1	
649.92	7012.9	
650.11	7955	
650.3	8254	
650.48	6614.3	
650.67	6535.1	
650.86	8426.7	
651.05	7589.8	
651.23	6581.5	
651.42	6554.2	
651.61	8035.5	
651.79	7958.4	
651.98	6729.6	
652.17	6429.3	
652.36	8302.5	
652.54	7634.8	
652.73	6385.6	
652.92	6371.9	
653.11	8392.6	
653.29	8419.2	
653.48	5923.4	
653.67	6677.7	
653.85	8131.8	
654.04	8921	
654.23	6806.8	
654.42	6508.4	
654.6	7742	
654.79	8204.8	
654.98	5973.9	
655.16	6504.3	
655.35	7477.1	
655.54	7347.4	
655.73	6043.6	
655.91	5881.8	
656.1	8081.3	
656.29	7126.2	
656.47	5546.6	
656.66	6888	
656.85	7445.7	
657.03	7410.9	
657.22	5985.5	
657.41	6027.2	
657.59	7518.1	
657.78	7354.9	
657.97	5769.1	
658.16	6377.4	
658.34	8098.4	
658.53	8469.7	
658.72	6999.3	
658.9	7550.9	
659.09	7721.5	
659.28	7647.1	
659.46	6170.5	
659.65	6126.2	
659.84	7481.9	
660.02	7940.7	
660.21	6143.9	
660.4	5935.7	
660.58	8233.5	
660.77	7739.3	
660.96	6491.4	
661.14	5640.8	
661.33	8583	
661.52	8473.1	
661.7	5724.8	
661.89	8509.3	
662.08	7451.9	
662.26	7058.7	
662.45	5947.3	
662.64	6002.6	
662.82	8041	
663.01	7357	
663.2	6059.9	
663.38	6547.4	
663.57	7878.5	
663.75	7800.7	
663.94	6236.1	
664.13	7193.8	
664.31	7408.2	
664.5	7996.6	
664.69	6606.1	
664.87	6894.8	
665.06	7163.8	
665.25	7703.8	
665.43	7013.6	
665.62	7012.9	
665.8	7967.3	
665.99	7413.6	
666.18	6290	
666.36	6386.9	
666.55	8026.7	
666.74	7819.1	
666.92	5920	
667.11	7269.6	
667.29	7472.4	
667.48	7907.9	
667.67	6810.2	
667.85	6130.3	
668.04	7434.1	
668.22	7442.3	
668.41	6305	
668.6	6482.5	
668.78	7342	
668.97	7456.7	
669.15	6558.3	
669.34	5679	
669.53	7332.4	
669.71	7646.4	
669.9	5788.2	
670.08	6341.9	
670.27	7197.2	
670.46	7752.9	
670.64	6530.3	
670.83	6746	
671.01	7159.7	
671.2	7720.8	
671.38	5904.3	
671.57	5844.2	
671.76	8150.2	
671.94	8600.8	
672.13	5735	
672.31	6516.6	
672.5	7831.4	
672.69	7206.1	
672.87	5907	
673.06	6152.8	
673.24	7746.8	
673.43	7372.7	
673.61	6481.8	
673.8	6137.1	
673.98	7845.8	
674.17	7979.6	
674.36	6553.5	
674.54	6484.6	
674.73	7589.1	
674.91	7909.9	
675.1	6210.1	
675.28	5814.2	
675.47	7341.3	
675.65	7878.5	
675.84	6088.6	
676.03	6425.8	
676.21	7306.5	
676.4	6919.4	
676.58	6707.1	
676.77	6514.6	
676.95	8483.4	
677.14	7234.8	
677.32	5862	
677.51	5745.2	
677.69	7829.4	
677.88	7040.2	
678.06	5799.8	
678.25	5924.8	
678.44	7519.5	
678.62	7285.3	
678.81	5700.9	
678.99	6419.7	
679.18	8149.6	
679.36	7737.9	
679.55	6096.8	
679.73	6569.2	
679.92	7654.6	
680.1	7314.7	
680.29	7023.9	
680.47	6140.5	
680.66	7291.5	
680.84	7929.7	
681.03	5580	
681.21	6329.6	
681.4	7190.4	
681.58	7159	
681.77	5834	
681.95	5826.5	
682.14	7908.6	
682.32	8137.9	
682.51	6565.1	
682.69	5636	
682.88	7244.3	
683.06	7681.2	
683.25	6280.4	
683.43	6630	
683.62	7381.6	
683.8	7761.1	
683.99	6672.3	
684.17	6281.8	
684.36	8391.9	
684.54	7389.8	
684.73	5610.8	
684.91	5776	
685.1	7651.9	
685.28	7144.7	
685.46	6211.5	
685.65	6173.3	
685.83	7710.6	
686.02	7186.3	
686.2	5625.1	
686.39	5686.5	
686.57	6844.3	
686.76	7961.1	
686.94	5581.4	
687.13	5774.6	
687.31	7415	
687.5	7262.1	
687.68	5285.1	
687.86	6283.2	
688.05	8505.9	
688.23	6695.5	
688.42	6345.3	
688.6	5767.1	
688.79	7168.6	
688.97	7038.2	
689.16	6101.6	
689.34	5184.8	
689.52	7682.6	
689.71	7868.3	
689.89	6229.9	
690.08	5717.2	
690.26	7303.7	
690.45	7129.7	
690.63	6447.7	
690.81	5941.8	
691	7125.6	
691.18	7036.1	
691.37	6021	
691.55	7761.1	
691.74	7025.2	
691.92	8547.5	
692.1	5950.7	
692.29	5540.4	
692.47	7154.2	
692.66	6683.2	
692.84	5616.9	
693.02	6030.6	
693.21	6618.4	
693.39	7157.7	
693.58	6168.5	
693.76	5669.5	
693.94	8019.8	
694.13	7781.6	
694.31	5776.6	
694.5	6463.4	
694.68	6985.6	
694.86	7189.7	
695.05	5955.5	
695.23	6040.1	
695.42	7541.3	
695.6	9265	
695.78	6496.2	
695.97	5808	
696.15	7593.9	
696.34	7187.7	
696.52	5684.5	
696.7	6283.2	
696.89	7404.1	
697.07	6956.9	
697.25	6184.2	
697.44	7399.3	
697.62	7397.3	
697.81	7562.5	
697.99	5926.8	
698.17	6337.8	
698.36	6832.7	
698.54	7393.2	
698.72	6201.2	
698.91	5374.6	
699.09	7033.4	
699.28	6849.8	
699.46	5851	
699.64	5758.9	
699.83	6787	
700.01	7709.2	
700.19	6311.8	
700.38	5124.7	
700.56	7752.2	
700.74	6934.4	
700.93	5374.6	
701.11	6056.5	
701.29	7273.7	
701.48	8191.9	
701.66	5600.5	
701.84	5545.9	
702.03	7027.3	
702.21	7497.6	
702.39	5297.4	
702.58	5765	
702.76	7342.7	
702.94	7317.4	
703.13	5244.2	
703.31	7047.1	
703.49	6832	
703.68	7436.9	
703.86	5434.6	
704.04	6131.6	
704.23	7189.1	
704.41	7460.1	
704.59	5532.9	
704.78	6486.6	
704.96	8036.9	
705.14	7413.6	
705.33	5333.6	
705.51	5997.1	
705.69	6987	
705.87	7552.2	
706.06	6200.6	
706.24	5291.3	
706.42	7244.3	
706.61	7442.3	
706.79	6219	
706.97	5293.3	
707.16	6760.3	
707.34	7197.9	
707.52	6103.6	
707.7	5451	
707.89	6787	
708.07	6621.1	
708.25	6141.9	
708.44	6468.9	
708.62	6764.4	
708.8	7669	
708.98	6298.9	
709.17	5512.4	
709.35	7052.5	
709.53	7107.8	
709.72	5246.9	
709.9	5647.6	
710.08	7263.5	
710.26	7235.5	
710.45	6552.8	
710.63	5475.6	
710.81	6937.8	
710.99	6993.1	
711.18	6026.5	
711.36	5508.4	
711.54	6833.4	
711.72	7401.4	
711.91	5552.7	
712.09	5146.5	
712.27	6935.1	
712.45	7353.6	
712.64	5780.7	
712.82	4975.2	
713	6465.4	
713.18	6562.4	
713.37	5057.1	
713.55	5991.7	
713.73	7225.2	
713.91	6189.6	
714.1	5364.3	
714.28	4900.1	
714.46	6901	
714.64	6344.6	
714.83	4485.1	
715.01	5036.6	
715.19	6404	
715.37	5681.1	
715.55	4704.9	
715.74	4919.2	
715.92	6939.9	
716.1	5294	
716.28	5792.3	
716.47	5035.3	
716.65	5913.2	
716.83	5925.5	
717.01	4838.7	
717.19	4924	
717.38	7520.8	
717.56	5653.1	
717.74	5063.9	
717.92	4294.6	
718.1	6609.5	
718.29	5868.8	
718.47	4047.5	
718.65	4573.8	
718.83	6527.6	
719.01	6444.3	
719.2	4022.2	
719.38	4889.9	
719.56	6242.9	
719.74	7506.5	
719.92	4638	
720.11	5358.9	
720.29	6302.3	
720.47	5614.2	
720.65	4182.6	
720.83	4850.3	
721.02	5903.6	
721.2	5718.6	
721.38	4843.4	
721.56	4264.6	
721.74	5286.5	
721.92	5386.8	
722.11	5248.9	
722.29	4977.2	
722.47	6358.3	
722.65	5737.7	
722.83	4290.5	
723.01	5018.2	
723.2	5759.6	
723.38	5982.8	
723.56	3813.3	
723.74	4703.5	
723.92	5365	
724.1	6248.4	
724.29	4177.2	
724.47	5091.9	
724.65	5485.1	
724.83	5373.2	
725.01	4045.4	
725.19	4741.7	
725.37	5373.2	
725.56	5358.2	
725.74	3985.3	
725.92	4187.4	
726.1	5347.9	
726.28	5562.3	
726.46	4529.4	
726.64	4224.3	
726.83	5555.5	
727.01	5778	
727.19	3923.9	
727.37	4581.3	
727.55	5623	
727.73	6023.1	
727.91	3876.8	
728.09	3771.7	
728.28	6090	
728.46	6303.6	
728.64	4568.3	
728.82	4548.5	
729	6845.7	
729.18	6234.7	
729.36	3901.4	
729.54	5726.8	
729.72	6993.1	
729.91	5694.7	
730.09	5467.4	
730.27	4493.2	
730.45	5635.3	
730.63	6029.2	
730.81	4851	
730.99	4174.4	
731.17	6516.6	
731.35	5339.7	
731.53	4551.3	
731.71	4263.2	
731.9	6226.5	
732.08	6401.3	
732.26	4510.3	
732.44	4090.5	
732.62	6462	
732.8	5969.8	
732.98	4711.7	
733.16	4009.9	
733.34	6034.7	
733.52	5005.2	
733.7	4402.5	
733.88	4493.2	
734.07	5878.4	
734.25	5678.3	
734.43	3945.1	
734.61	5051.7	
734.79	6851.1	
734.97	5536.3	
735.15	4018.8	
735.33	4322.6	
735.51	5853.1	
735.69	5547.3	
735.87	5509.7	
736.05	4502.8	
736.23	5703.6	
736.41	5503.6	
736.59	4404.5	
736.77	4422.9	
736.95	5995.8	
737.13	5545.9	
737.32	4005.1	
737.5	4202.4	
737.68	6462.7	
737.86	5429.8	
738.04	3795.6	
738.22	5369.8	
738.4	5339.1	
738.58	5561.6	
738.76	4290.5	
738.94	3585.3	
739.12	5360.9	
739.3	5319.9	
739.48	4762.9	
739.66	4547.2	
739.84	5579.3	
740.02	5531.6	
740.2	3618.8	
740.38	3847.5	
740.56	5868.8	
740.74	4934.2	
740.92	4377.9	
741.1	4294.6	
741.28	5417.6	
741.46	5255.8	
741.64	4042.7	
741.82	4474.8	
742	5478.3	
742.18	5362.9	
742.36	4179.9	
742.54	3863.2	
742.72	5898.2	
742.9	4884.4	
743.08	4500.1	
743.26	3506.8	
743.44	6019	
743.62	5907.7	
743.8	4622.3	
743.98	3898.6	
744.16	5690.6	
744.34	5418.2	
744.52	4448.9	
744.7	4463.2	
744.88	5814.2	
745.06	5347.9	
745.24	4489.1	
745.42	4615.4	
745.6	5893.4	
745.78	5697.4	
745.96	3598.3	
746.14	3848.1	
746.32	6396.5	
746.5	5797.8	
746.68	4293.2	
746.86	3828.3	
747.03	6107.7	
747.21	4818.9	
747.39	4288.4	
747.57	3893.9	
747.75	5515.9	
747.93	5748.6	
748.11	3839.9	
748.29	3785.3	
748.47	6744	
748.65	5261.9	
748.83	4416.8	
749.01	4182.6	
749.19	5638.7	
749.37	4957.4	
749.55	4119.1	
749.73	4174.4	
749.91	5426.4	
750.09	5197.1	
750.26	4212	
750.44	3719.1	
750.62	5439.4	
750.8	5366.4	
750.98	3660.4	
751.16	3895.2	
751.34	5513.1	
751.52	4896	
751.7	4455.7	
751.88	3553.9	
752.06	5876.3	
752.24	5573.2	
752.42	3614	
752.59	3828.3	
752.77	5358.2	
752.95	6327.5	
753.13	4442.7	
753.31	3882.3	
753.49	5078.3	
753.67	5429.2	
753.85	4159.4	
754.03	3820.8	
754.21	5730.9	
754.38	5954.1	
754.56	3944.4	
754.74	3253.5	
754.92	5107.6	
755.1	5628.5	
755.28	3285.6	
755.46	3319.8	
755.64	6350.8	
755.82	6447.7	
755.99	3581.9	
756.17	3676.8	
756.35	4444.8	
756.53	5670.8	
756.71	2827.6	
756.89	3535.5	
757.07	5326.1	
757.25	4650.9	
757.42	3948.5	
757.6	4633.9	
757.78	5431.9	
757.96	4551.3	
758.14	3654.9	
758.32	3312.2	
758.5	4257.7	
758.67	4921.3	
758.85	3511.6	
759.03	3616	
759.21	5100.1	
759.39	4588.1	
759.57	3231.7	
759.75	4090.5	
759.92	5630.5	
760.1	5110.4	
760.28	4429.1	
760.46	4585.4	
760.64	4775.2	
760.82	4621.6	
760.99	4091.2	
761.17	3606.5	
761.35	5509.7	
761.53	4586.1	
761.71	3697.3	
761.89	4237.9	
762.06	5318.6	
762.24	4900.8	
762.42	3786	
762.6	3559.4	
762.78	4858.5	
762.96	5424.4	
763.13	4077.5	
763.31	3792.8	
763.49	5512.4	
763.67	4894.6	
763.85	4467.3	
764.02	4924.7	
764.2	5833.3	
764.38	5041.4	
764.56	3665.9	
764.74	4427.7	
764.91	5851	
765.09	5018.2	
765.27	3487.7	
765.45	3295.2	
765.63	5902.2	
765.8	5793	
765.98	3097.9	
766.16	3334.8	
766.34	4661.2	
766.52	4508.9	
766.69	4077.5	
766.87	3220.1	
767.05	4961.5	
767.23	5519.3	
767.41	3544.4	
767.58	3704.1	
767.76	5419.6	
767.94	5502.2	
768.12	3644	
768.29	4145.8	
768.47	4987.5	
768.65	5586.9	
768.83	3257.6	
769	4166.9	
769.18	4697.4	
769.36	5233.2	
769.54	4138.9	
769.72	3315.7	
769.89	5551.4	
770.07	5573.2	
770.25	3621.5	
770.43	4536.3	
770.6	6153.5	
770.78	6389	
770.96	3721.8	
771.14	4235.2	
771.31	5438.7	
771.49	4914.4	
771.67	3039.9	
771.85	3281.5	
772.02	4375.1	
772.2	4935.6	
772.38	3867.2	
772.55	3443.3	
772.73	5175.2	
772.91	5014.1	
773.09	3689.8	
773.26	3893.9	
773.44	5193	
773.62	4840	
773.8	3392.1	
773.97	3155.2	
774.15	5198.4	
774.33	4886.5	
774.5	3281.5	
774.68	3648.1	
774.86	5317.9	
775.04	4893.3	
775.21	3387.3	
775.39	3351.2	
775.57	5158.8	
775.74	5398.4	
775.92	3248.1	
776.1	3134.1	
776.27	5068	
776.45	6077.7	
776.63	3337.5	
776.81	3021.4	
776.98	4855.1	
777.16	5670.1	
777.34	3504.1	
777.51	3705.5	
777.69	4871.4	
777.87	4590.9	
778.04	3546.4	
778.22	4022.2	
778.4	4668.7	
778.57	5207.3	
778.75	2935.4	
778.93	3176.4	
779.1	4528.1	
779.28	4355.3	
779.46	2992.8	
779.64	3324.5	
779.81	5313.1	
779.99	6025.1	
780.17	3982.6	
780.34	4037.2	
780.52	4889.9	
780.69	4973.2	
780.87	3670.6	
781.05	3262.4	
781.22	4990.2	
781.4	5026.4	
781.58	3406.5	
781.75	2717	
781.93	5010.7	
782.11	4459.1	
782.28	4090.5	
782.46	3417.4	
782.64	4373.8	
782.81	5126.1	
782.99	3467.2	
783.17	3411.2	
783.34	5040.1	
783.52	4462.5	
783.69	3557.3	
783.87	4203.8	
784.05	4547.9	
784.22	4491.9	
784.4	4203.1	
784.58	3674.7	
784.75	5267.4	
784.93	4590.9	
785.1	3379.1	
785.28	3911.6	
785.46	5048.2	
785.63	4478.9	
785.81	3375.1	
785.99	3307.5	
786.16	4700.1	
786.34	4904.9	
786.51	3287	
786.69	3672.7	
786.87	4311	
787.04	4708.3	
787.22	3168.9	
787.39	3918.4	
787.57	4485.1	
787.75	5349.3	
787.92	4084.3	
788.1	4078.2	
788.27	4539.7	
788.45	4315.8	
788.63	3868.6	
788.8	2816	
788.98	4895.3	
789.15	4235.9	
789.33	2891	
789.5	3394.8	
789.68	5203.9	
789.86	5341.8	
790.03	3775.8	
790.21	3310.9	
790.38	5302.2	
790.56	4620.9	
790.73	3221.5	
790.91	3199.6	
791.09	4552.6	
791.26	5165	
791.44	3435.8	
791.61	2934.1	
791.79	4527.4	
791.96	4552.6	
792.14	3096.5	
792.32	2730.6	
792.49	4523.3	
792.67	4670.1	
792.84	3136.1	
793.02	2971.6	
793.19	4865.3	
793.37	5461.9	
793.54	2772.9	
793.72	3035.1	
793.89	5531.6	
794.07	4481.6	
794.25	3375.1	
794.42	2829.6	
794.6	5321.3	
794.77	5039.4	
794.95	3709.6	
795.12	3262.4	
795.3	4519.9	
795.47	5007.3	
795.65	3578.5	
795.82	3403	
796	4374.5	
796.17	5847	
796.35	3369.6	
796.52	3932.1	
796.7	5031.9	
796.87	5098.8	
797.05	3345	
797.22	3973.7	
797.4	5029.8	
797.57	5827.2	
797.75	3502	
797.92	3247.4	
798.1	5229.1	
798.27	4435.2	
798.45	2851.5	
798.62	3041.2	
798.8	4778.6	
798.97	5213.4	
799.15	3645.4	
799.32	3461.1	
799.5	4207.2	
799.67	4800.4	
799.85	3762.1	
800.02	2843.3	
800.2	4502.8	
800.37	4701.5	
800.55	3886.4	
800.72	3229.6	
800.9	5183.4	
801.07	5487.9	
801.25	4328	
801.42	3573	
801.6	5158.2	
801.77	4852.3	
801.95	3356.6	
802.12	3205.8	
802.29	4895.3	
802.47	4868.7	
802.64	3534.8	
802.82	2771.6	
802.99	4514.4	
803.17	5239.4	
803.34	3500	
803.52	3176.4	
803.69	5795.8	
803.87	4278.2	
804.04	3439.9	
804.21	3501.3	
804.39	5423	
804.56	4681	
804.74	3007.1	
804.91	3602.4	
805.09	4494.6	
805.26	4604.5	
805.44	3038.5	
805.61	3307.5	
805.78	5137	
805.96	5014.8	
806.13	3534.8	
806.31	3841.3	
806.48	4181.3	
806.66	4607.9	
806.83	3565.5	
807	3472	
807.18	4515.1	
807.35	4767.7	
807.53	3494.5	
807.7	2856.9	
807.87	5434.6	
808.05	4579.9	
808.22	3764.8	
808.4	2864.4	
808.57	4479.6	
808.74	4246.8	
808.92	3186	
809.09	4047.5	
809.27	4499.4	
809.44	4999.1	
809.61	2876	
809.79	3166.8	
809.96	5532.9	
810.14	5090.6	
810.31	2852.8	
810.48	3354.6	
810.66	4650.3	
810.83	5277.6	
811.01	3233.7	
811.18	3551.2	
811.35	5162.2	
811.53	4095.9	
811.7	3870.7	
811.87	3601.7	
812.05	4623.6	
812.22	4488.5	
812.39	3120.4	
812.57	3022.8	
812.74	4567	
812.92	5878.4	
813.09	3393.5	
813.26	3568.2	
813.44	5652.4	
813.61	4481.6	
813.78	2866.5	
813.96	3736.9	
814.13	4567	
814.3	4347.8	
814.48	3993.5	
814.65	3312.9	
814.82	5487.9	
815	4287.8	
815.17	3438.5	
815.34	4135.5	
815.52	4485.7	
815.69	4464.6	
815.87	3350.5	
816.04	3361.4	
816.21	4530.1	
816.38	4113	
816.56	3345	
816.73	3173.7	
816.9	5652.4	
817.08	5126.1	
817.25	3213.3	
817.42	3822.2	
817.6	4223.6	
817.77	4526.7	
817.94	3535.5	
818.12	3112.9	
818.29	4342.4	
818.46	6412.2	
818.64	3251.5	
818.81	3027.6	
818.98	4290.5	
819.16	6008.7	
819.33	3644	
819.5	3446	
819.67	4868.7	
819.85	5382.1	
820.02	3392.8	
820.19	3540.9	
820.37	4738.3	
820.54	4422.9	
820.71	3528.7	
820.88	4277.5	
821.06	4706.9	
821.23	4381.3	
821.4	3479.5	
821.58	3542.3	
821.75	5122.7	
821.92	4689.8	
822.09	2906.8	
822.27	3091.1	
822.44	4564.9	
822.61	4463.2	
822.79	2885.6	
822.96	5323.4	
823.13	4941.1	
823.3	4279.6	
823.48	3327.3	
823.65	3007.8	
823.82	5119.2	
823.99	4216.8	
824.17	4095.9	
824.34	3054.2	
824.51	5835.3	
824.68	4638.6	
824.86	3123.8	
825.03	3521.8	
825.2	4548.5	
825.37	5401.2	
825.55	3167.5	
825.72	3461.1	
825.89	5849.7	
826.06	5483.1	
826.24	3362.1	
826.41	3410.6	
826.58	5433.3	
826.75	4785.4	
826.92	2741.5	
827.1	2992.1	
827.27	7165.2	
827.44	5837.4	
827.61	3203	
827.79	3774.4	
827.96	4385.4	
828.13	4586.8	
828.3	3311.6	
828.47	2816	
828.65	4846.9	
828.82	4772.4	
828.99	4214	
829.16	3668.6	
829.34	5137.7	
829.51	4972.5	
829.68	3481.5	
829.85	3517	
830.02	5368.4	
830.2	5141.8	
830.37	2733.4	
830.54	4114.4	
830.71	5704.3	
830.88	4603.2	
831.05	2742.9	
831.23	3145	
831.4	5577.3	
831.57	6073.6	
831.74	3196.9	
831.91	2852.8	
832.09	4811.4	
832.26	5069.4	
832.43	3296.5	
832.6	3668.6	
832.77	4851.6	
832.94	5385.5	
833.12	2661.7	
833.29	3206.4	
833.46	4509.6	
833.63	6233.3	
833.8	3575.8	
833.97	3276.7	
834.15	5137	
834.32	4931.5	
834.49	3481.5	
834.66	3485.6	
834.83	5281.7	
835	4385.4	
835.17	3170.9	
835.35	3234.4	
835.52	5024.3	
835.69	4916.5	
835.86	3398.3	
836.03	2803	
836.2	5098.8	
836.37	4758.1	
836.55	3293.8	
836.72	3104.7	
836.89	4774.5	
837.06	5143.1	
837.23	3381.2	
837.4	3608.5	
837.57	5765	
837.75	6243.6	
837.92	3052.8	
838.09	3216.7	
838.26	4722.6	
838.43	5282.4	
838.6	3424.9	
838.77	3132.7	
838.94	5976.7	
839.11	5748	
839.29	3261.7	
839.46	2606.4	
839.63	5089.9	
839.8	4843.4	
839.97	3229.6	
840.14	3162.7	
840.31	4920.6	
840.48	5134.3	
840.65	2740.2	
840.82	3165.5	
841	5034.6	
841.17	4971.8	
841.34	2971.6	
841.51	3001	
841.68	4990.9	
841.85	4818.9	
842.02	3054.2	
842.19	2585.2	
842.36	4912.4	
842.53	4915.8	
842.7	2994.1	
842.87	3555.3	
843.05	6223.1	
843.22	4824.3	
843.39	2842.6	
843.56	3029.6	
843.73	4693.3	
843.9	5184.8	
844.07	4653.7	
844.24	3878.2	
844.41	7013.6	
844.58	4497.3	
844.75	2895.1	
844.92	3141.6	
845.09	5059.2	
845.26	5070.1	
845.43	2927.2	
845.6	3107.5	
845.77	5061.9	
845.94	4848.2	
846.12	3246	
846.29	3478.1	
846.46	5251.7	
846.63	4993.6	
846.8	2973	
846.97	3484.3	
847.14	5449.6	
847.31	4990.2	
847.48	3323.9	
847.65	3601.7	
847.82	5262.6	
847.99	5180	
848.16	3846.1	
848.33	3540.3	
848.5	4663.9	
848.67	5427.8	
848.84	2915.6	
849.01	3040.6	
849.18	4618.2	
849.35	4315.8	
849.52	3632.4	
849.69	2897.2	
849.86	5266.7	
850.03	5320.6	
850.2	2933.4	
850.37	3549.8	
850.54	5323.4	
850.71	4827.1	
850.88	3480.9	
851.05	2869.2	
851.22	4997.7	
851.39	5509	
851.56	2781.1	
851.73	3370.3	
851.9	4459.8	
852.07	5201.2	
852.24	3265.1	
852.41	2941.6	
852.58	4987.5	
852.75	4583.4	
852.92	3303.4	
853.09	2894.5	
853.26	4691.9	
853.43	5360.2	
853.6	2932.7	
853.77	2482.8	
853.94	5494	
854.11	4506.2	
854.28	4199.7	
854.44	3145.7	
854.61	5749.3	
854.78	5294.7	
854.95	2948.4	
855.12	3635.1	
855.29	4126.7	
855.46	5537	
855.63	2960	
855.8	3962.1	
855.97	4691.2	
856.14	5312.4	
856.31	4001	
856.48	3168.9	
856.65	4758.8	
856.82	4424.3	
856.99	2869.9	
857.16	3188	
857.33	5997.1	
857.49	4799.1	
857.66	3124.5	
857.83	3372.3	
858	4781.3	
858.17	4942.4	
858.34	2784.6	
858.51	2980.5	
858.68	5589.6	
858.85	5585.5	
859.02	3383.9	
859.19	3607.2	
859.36	4503.5	
859.52	4490.5	
859.69	2954.5	
859.86	3447.4	
860.03	4570.4	
860.2	5511.8	
860.37	2734	
860.54	2962.7	
860.71	5210	
860.88	5604.6	
861.05	3279.5	
861.21	3668.6	
861.38	5461.2	
861.55	4389.5	
861.72	2668.5	
861.89	3269.9	
862.06	5313.8	
862.23	5681.1	
862.4	2864.4	
862.56	3062.4	
862.73	5171.1	
862.9	4924	
863.07	3457.7	
863.24	2697.9	
863.41	4470.7	
863.58	4514.4	
863.75	3058.3	
863.91	3389.4	
864.08	5474.2	
864.25	5145.2	
864.42	3686.3	
864.59	3968.3	
864.76	5760.9	
864.93	4534.9	
865.09	2906.8	
865.26	3141.6	
865.43	5457.2	
865.6	5692.7	
865.77	2573.6	
865.94	2867.8	
866.1	5403.9	
866.27	5209.3	
866.44	4359.4	
866.61	2755.9	
866.78	4859.1	
866.95	5154.1	
867.11	2900.6	
867.28	2619.4	
867.45	5323.4	
867.62	4542.4	
867.79	3352.5	
867.96	2971.6	
868.12	4459.1	
868.29	5260.5	
868.46	2930.6	
868.63	3901.4	
868.8	5347.9	
868.97	5171.1	
869.13	3044.6	
869.3	3026.9	
869.47	5130.8	
869.64	5278.3	
869.81	2963.4	
869.97	2969.6	
870.14	5020.9	
870.31	5583.4	
870.48	2871.3	
870.65	3713.6	
870.81	4764.3	
870.98	4848.2	
871.15	3314.3	
871.32	3091.8	
871.48	5117.9	
871.65	5629.9	
871.82	2897.9	
871.99	3159.3	
872.16	5976	
872.32	5490.6	
872.49	3005.1	
872.66	2970.9	
872.83	5208.7	
872.99	4642.7	
873.16	3325.9	
873.33	2947	
873.5	4943.1	
873.67	4979.3	
873.83	3082.9	
874	3841.3	
874.17	5010	
874.34	5772.5	
874.5	3750.5	
874.67	3563.5	
874.84	5526.8	
875.01	4389.5	
875.17	4094.6	
875.34	2952.5	
875.51	5008	
875.68	5918.6	
875.84	3515	
876.01	4186	
876.18	5201.2	
876.34	5094.7	
876.51	2952.5	
876.68	2904.7	
876.85	4820.2	
877.01	5425.1	
877.18	4084.3	
877.35	2882.2	
877.52	4930.8	
877.68	4489.8	
877.85	2895.8	
878.02	2903.3	
878.18	4830.5	
878.35	4609.3	
878.52	2373.6	
878.69	3282.2	
878.85	5315.2	
879.02	5143.8	
879.19	4122.6	
879.35	3160.7	
879.52	5215.5	
879.69	5322	
879.86	2579.8	
880.02	3277.4	
880.19	4911.7	
880.36	5805.3	
880.52	3355.3	
880.69	3461.1	
880.86	5306.3	
881.02	5286.5	
881.19	3183.2	
881.36	3205.8	
881.52	5195	
881.69	4655	
881.86	3162.1	
882.02	3099.3	
882.19	5366.4	
882.36	6150.7	
882.52	3066.5	
882.69	4076.8	
882.86	4980.7	
883.02	4941.7	
883.19	3540.9	
883.36	3286.3	
883.52	5262.6	
883.69	5892.7	
883.86	3006.4	
884.02	2736.8	
884.19	5284.4	
884.36	4887.8	
884.52	3351.8	
884.69	3121.8	
884.86	4695.3	
885.02	5675.6	
885.19	3261	
885.36	3363.4	
885.52	4903.5	
885.69	5025.7	
885.86	4117.8	
886.02	3731.4	
886.19	5278.3	
886.35	4771.1	
886.52	3205.1	
886.69	4030.4	
886.85	4494.6	
887.02	5542.5	
887.19	5542.5	
887.35	5542.5	
887.52	5542.5	
887.68	5542.5	
887.85	5542.5	
888.02	5542.5	
888.18	5542.5	
888.35	5542.5	
888.51	5542.5	
888.68	5542.5	
888.85	5542.5	
889.01	5542.5	
889.18	5542.5	
889.35	5542.5	
889.51	5542.5	
889.68	5542.5	
889.84	5542.5	
890.01	5542.5	
890.17	5542.5	
890.34	5542.5	
890.51	5542.5	
890.67	5542.5	
890.84	5542.5	
891	5542.5	
891.17	5542.5	
891.34	5542.5	
891.5	5542.5	
891.67	5542.5	
891.83	5542.5	
892	5542.5	
892.16	5542.5	
892.33	5542.5	
892.5	5542.5	
892.66	5542.5	
892.83	5542.5	
892.99	5542.5	
893.16	5542.5	
893.32	5542.5	
893.49	5542.5	
893.65	5542.5	
893.82	5542.5	
893.99	5542.5	
894.15	5542.5	
894.32	5542.5	
894.48	5542.5	
894.65	5542.5	
894.81	5542.5	
894.98	5542.5	
895.14	5542.5	
895.31	5542.5	
895.47	5542.5	
895.64	5542.5	
895.81	5542.5	
895.97	5542.5	
896.14	5542.5	
896.3	5542.5	
896.47	5542.5	
896.63	5542.5	
896.8	5542.5	
896.96	5542.5	
897.13	5542.5	
897.29	5542.5	
897.46	5542.5	
897.62	5542.5	
897.79	5542.5	
897.95	5542.5	
898.12	5542.5	
898.28	5542.5	
898.45	5542.5	
898.61	5542.5	
898.78	5542.5	
898.94	5542.5	
899.11	5542.5	
899.27	5542.5	
899.44	5542.5	
899.6	5542.5	
899.77	5542.5	
899.93	5542.5	
900.1	5542.5	
900.26	5542.5	
900.43	5542.5	
900.59	5542.5	
900.76	5542.5	
900.92	5542.5	
901.09	5542.5	
901.25	5542.5	
901.42	5542.5	
901.58	5542.5	
901.75	5542.5	
901.91	5542.5	
902.07	5542.5	
902.24	5542.5	
902.4	5542.5	
902.57	5542.5	
902.73	5542.5	
902.9	5542.5	
903.06	5542.5	
903.23	5542.5	
903.39	5542.5	
903.56	5542.5	
903.72	5542.5	
903.88	5542.5	
904.05	5542.5	
904.21	5542.5	
904.38	5542.5	
904.54	5542.5	
904.71	5542.5	
904.87	5542.5	
905.03	5542.5	
905.2	5542.5	
905.36	5542.5	
905.53	5542.5	
905.69	5542.5	
905.86	5542.5	
906.02	5542.5	
906.18	5542.5	
906.35	5542.5	
906.51	5542.5	
906.68	5542.5	
906.84	5542.5	
907.01	5542.5	
907.17	5542.5	
907.33	5542.5	
907.5	5542.5	
907.66	5542.5	
907.83	5542.5	
907.99	5542.5	
908.15	5542.5	
908.32	5542.5	
908.48	5542.5	
908.65	5542.5	
908.81	5542.5	
908.97	5542.5	
909.14	5542.5	
909.3	5542.5	
909.47	5542.5	
909.63	5542.5	
909.79	5542.5	
909.96	5542.5	
910.12	5542.5	
910.28	5542.5	
910.45	5542.5	
910.61	5542.5	
910.78	5542.5	
910.94	5542.5	
911.1	5542.5	
911.27	5542.5	
911.43	5542.5	
911.59	5542.5	
911.76	5542.5	
911.92	5542.5	
912.08	5542.5	
912.25	5542.5	
912.41	5542.5	
912.57	5542.5	
912.74	5542.5	
912.9	5542.5	
913.07	5542.5	
913.23	5542.5	
913.39	5542.5	
913.56	5542.5	
913.72	5542.5	
913.88	5542.5	
914.05	5542.5	
914.21	5542.5	
914.37	5542.5	
914.54	5542.5	
914.7	5542.5	
914.86	5542.5	
915.03	5542.5	
915.19	5542.5	
