Wavelength	Intensities	
nm	a.u.	
179.22	1569.8	
179.44	1574.9	
179.65	1564.6	
179.86	1585.1	
180.08	1570.8	
180.29	3453.6	
180.51	2696.5	
180.72	4662.5	
180.94	5001.1	
181.15	2450.1	
181.37	2469.2	
181.58	4432.5	
181.79	4578.6	
182.01	2517.6	
182.22	2621.4	
182.44	4627.7	
182.65	4058.4	
182.87	3149.8	
183.08	2851.5	
183.29	4840	
183.51	4076.1	
183.72	2655.5	
183.94	3579.8	
184.15	4378.6	
184.37	4288.4	
184.58	2407	
184.79	3026.9	
185.01	4155.3	
185.22	4689.2	
185.44	3167.5	
185.65	2806.4	
185.86	4417.5	
186.08	4076.8	
186.29	2435	
186.51	2500.6	
186.72	4178.5	
186.94	4712.4	
187.15	2890.4	
187.36	2893.1	
187.58	5717.9	
187.79	4433.9	
188.01	2917.7	
188.22	4259.1	
188.43	5144.5	
188.65	4581.3	
188.86	2536.8	
189.08	2918.4	
189.29	4160.8	
189.5	4212.7	
189.72	2717	
189.93	2717.7	
190.15	4670.7	
190.36	5276.3	
190.57	2912.2	
190.79	2766.1	
191	4780	
191.22	4718.5	
191.43	2937.5	
191.64	2609.8	
191.86	4895.3	
192.07	4706.9	
192.29	2583.9	
192.5	2673.3	
192.71	4729.4	
192.93	4280.9	
193.14	2652.8	
193.35	2722.4	
193.57	4226.3	
193.78	4770.4	
194	2264.4	
194.21	2646	
194.42	4096.6	
194.64	4417.5	
194.85	2857.6	
195.07	3216	
195.28	4306.2	
195.49	3956	
195.71	3389.4	
195.92	2570.2	
196.13	4552	
196.35	4543.1	
196.56	3462.4	
196.78	2906.8	
196.99	5344.5	
197.2	5000.5	
197.42	3168.9	
197.63	2882.9	
197.84	4070	
198.06	4508.3	
198.27	2731.3	
198.48	3346.4	
198.7	4232.5	
198.91	4450.9	
199.13	2869.2	
199.34	2898.6	
199.55	4746.5	
199.77	3880.2	
199.98	2607.7	
200.19	2951.8	
200.41	4375.1	
200.62	4114.4	
200.83	2916.3	
201.05	3236.5	
201.26	4371	
201.47	4191.5	
201.69	2639.1	
201.9	2557.9	
202.11	4420.9	
202.33	4972.5	
202.54	2717.7	
202.76	2978.4	
202.97	4360.8	
203.18	4479.6	
203.4	2946.3	
203.61	3079.5	
203.82	4437.9	
204.04	4160.1	
204.25	2887.6	
204.46	2841.2	
204.68	4416.1	
204.89	4447.5	
205.1	2816.6	
205.32	2476.7	
205.53	4580.6	
205.74	4683	
205.96	2228.2	
206.17	2961.4	
206.38	4594.3	
206.6	4688.5	
206.81	3163.4	
207.02	2680.1	
207.24	4519.9	
207.45	4770.4	
207.66	2802.3	
207.88	2491	
208.09	4516.5	
208.3	4394.9	
208.52	2598.9	
208.73	2792.1	
208.94	4362.2	
209.15	4752.7	
209.37	2756.6	
209.58	2899.9	
209.79	4685.1	
210.01	4299.4	
210.22	2351.8	
210.43	2430.9	
210.65	4340.3	
210.86	4586.1	
211.07	2770.2	
211.29	2584.5	
211.5	4514.4	
211.71	4342.4	
211.93	2630.3	
212.14	2577	
212.35	4354	
212.56	4394.9	
212.78	2916.3	
212.99	2455.5	
213.2	4971.8	
213.42	4270	
213.63	2637.8	
213.84	2782.5	
214.06	4043.4	
214.27	4046.8	
214.48	2749.1	
214.69	2893.8	
214.91	4826.4	
215.12	4811.4	
215.33	2886.3	
215.55	3075.4	
215.76	5058.5	
215.97	4522.6	
216.18	2847.4	
216.4	2848	
216.61	4141.7	
216.82	4735.6	
217.04	2615.3	
217.25	2715.6	
217.46	4711.7	
217.67	4604.5	
217.89	2391.3	
218.1	2467.8	
218.31	4415.4	
218.53	4472.1	
218.74	2798.9	
218.95	2657.6	
219.16	4367	
219.38	4898.1	
219.59	2641.9	
219.8	3042.6	
220.01	5238.7	
220.23	4400.4	
220.44	3255.6	
220.65	2560.6	
220.87	4424.3	
221.08	4708.3	
221.29	2512.2	
221.5	3069.9	
221.72	5453.1	
221.93	4212	
222.14	2897.2	
222.35	3270.6	
222.57	4346.5	
222.78	4717.8	
222.99	2819.4	
223.2	2899.2	
223.42	4572.4	
223.63	4544.4	
223.84	2243.2	
224.05	2254.1	
224.27	5149.3	
224.48	4921.3	
224.69	3348.4	
224.9	2917	
225.12	4461.8	
225.33	4336.2	
225.54	2450.1	
225.75	2654.9	
225.97	4119.1	
226.18	4340.3	
226.39	2741.5	
226.6	2673.3	
226.82	4280.9	
227.03	4107.5	
227.24	2863.7	
227.45	2471.9	
227.67	4696.7	
227.88	4876.2	
228.09	3173.7	
228.3	3142.9	
228.52	4604.5	
228.73	4354.7	
228.94	2678.7	
229.15	2477.4	
229.36	4370.4	
229.58	4384	
229.79	2748.4	
230	3043.3	
230.21	5051.7	
230.43	4386.7	
230.64	2839.8	
230.85	2939.5	
231.06	4751.3	
231.28	4657.1	
231.49	2435	
231.7	2887	
231.91	4618.2	
232.12	4339	
232.34	2571.6	
232.55	2765.4	
232.76	4739.7	
232.97	4431.8	
233.18	2631.6	
233.4	2865.8	
233.61	4441.4	
233.82	4222.2	
234.03	2699.2	
234.25	2700.6	
234.46	5612.1	
234.67	4425	
234.88	2902.7	
235.09	2652.1	
235.31	4467.3	
235.52	4283	
235.73	2818	
235.94	2494.4	
236.15	4227	
236.37	5076.9	
236.58	2593.4	
236.79	2749.1	
237	4521.2	
237.21	4008.6	
237.43	2964.8	
237.64	2446.6	
237.85	6735.8	
238.06	4133.5	
238.27	2895.1	
238.48	2545.6	
238.7	4581.3	
238.91	4243.4	
239.12	2737.5	
239.33	2812.5	
239.54	4121.2	
239.76	4331.5	
239.97	2772.3	
240.18	2783.9	
240.39	5038	
240.6	4476.9	
240.82	2927.2	
241.03	2457.6	
241.24	4345.1	
241.45	4762.9	
241.66	2627.5	
241.87	2996.2	
242.09	4837.3	
242.3	4971.1	
242.51	2990.7	
242.72	2741.5	
242.93	4629.8	
243.14	4356.7	
243.36	3160.7	
243.57	3332.7	
243.78	4845.5	
243.99	4472.8	
244.2	2745	
244.41	2559.3	
244.63	4076.8	
244.84	4502.8	
245.05	2910.8	
245.26	2779.8	
245.47	4620.2	
245.68	4607.9	
245.9	3452.2	
246.11	2910.8	
246.32	4191.5	
246.53	4560.8	
246.74	4171.7	
246.95	2428.2	
247.16	4184.7	
247.38	4370.4	
247.59	2487.6	
247.8	2828.2	
248.01	4055.7	
248.22	4401.8	
248.43	2575	
248.64	2747.7	
248.86	4095.3	
249.07	4225.6	
249.28	2557.2	
249.49	2837.8	
249.7	4689.2	
249.91	4754.7	
250.12	2460.3	
250.34	2478	
250.55	4463.9	
250.76	4413.4	
250.97	2878.1	
251.18	2849.4	
251.39	4737.6	
251.6	4434.5	
251.81	2920.4	
252.03	2840.5	
252.24	4259.1	
252.45	4623.6	
252.66	2469.9	
252.87	2978.4	
253.08	4349.9	
253.29	5378.6	
253.5	2510.1	
253.72	3300	
253.93	4356.7	
254.14	4926.7	
254.35	2719	
254.56	2772.3	
254.77	4555.4	
254.98	4152.6	
255.19	2684.9	
255.41	3251.5	
255.62	4535.6	
255.83	4752	
256.04	3009.8	
256.25	2859.6	
256.46	5059.8	
256.67	4231.8	
256.88	2878.8	
257.09	3123.8	
257.31	4114.4	
257.52	4158.1	
257.73	3478.8	
257.94	2666.5	
258.15	4344.4	
258.36	4313.7	
258.57	3215.3	
258.78	2235.7	
258.99	4648.9	
259.2	4218.1	
259.41	2654.2	
259.63	2794.1	
259.84	4893.3	
260.05	4986.8	
260.26	3289	
260.47	2620	
260.68	4691.2	
260.89	4244.1	
261.1	3160.7	
261.31	2589.3	
261.52	4827.1	
261.73	4943.1	
261.95	3325.9	
262.16	2911.5	
262.37	4737	
262.58	4839.4	
262.79	3317.7	
263	2680.1	
263.21	4397.7	
263.42	4201.1	
263.63	2945	
263.84	2739.5	
264.05	4681	
264.26	4853	
264.47	3183.2	
264.69	2955.9	
264.9	4889.9	
265.11	4426.3	
265.32	2613.9	
265.53	2632.3	
265.74	4484.4	
265.95	4006.5	
266.16	2859	
266.37	3009.8	
266.58	4420.9	
266.79	4219.5	
267	2700.6	
267.21	2521.7	
267.42	4085.7	
267.63	4373.1	
267.84	2745	
268.06	2438.4	
268.27	4659.8	
268.48	4751.3	
268.69	2775	
268.9	3158	
269.11	4756.7	
269.32	3984	
269.53	2786.6	
269.74	2587.3	
269.95	4461.8	
270.16	3997	
270.37	2822.1	
270.58	3135.4	
270.79	4299.4	
271	4638.6	
271.21	2912.9	
271.42	2807.8	
271.63	4515.1	
271.84	4042.7	
272.05	2368.8	
272.26	2549	
272.47	4411.3	
272.68	4465.3	
272.89	2761.3	
273.11	2994.8	
273.32	4190.8	
273.53	4853.7	
273.74	2932.7	
273.95	3009.8	
274.16	4637.3	
274.37	4316.4	
274.58	3055.6	
274.79	2583.9	
275	4498.7	
275.21	4767	
275.42	3499.3	
275.63	3033	
275.84	4554	
276.05	5417.6	
276.26	2906.1	
276.47	2760.7	
276.68	4367	
276.89	4948.6	
277.1	3037.8	
277.31	2515.6	
277.52	4511.7	
277.73	4808.6	
277.94	2495.1	
278.15	2737.5	
278.36	4533.5	
278.57	4145.1	
278.78	2706	
278.99	2921.8	
279.2	4270.7	
279.41	4148.5	
279.62	3452.9	
279.83	2542.2	
280.04	5084.4	
280.25	4129.4	
280.46	3376.4	
280.67	2752.5	
280.88	4246.8	
281.09	4773.1	
281.3	2919.7	
281.51	3502.7	
281.72	4211.3	
281.93	4646.2	
282.14	2664.4	
282.35	2856.2	
282.56	4646.2	
282.77	4605.2	
282.98	2719	
283.19	3158.7	
283.4	5431.9	
283.61	4351.9	
283.82	2557.2	
284.03	3306.1	
284.24	4553.3	
284.45	4661.2	
284.66	3375.1	
284.87	3179.8	
285.08	4756.1	
285.29	4817.5	
285.5	2497.2	
285.71	2729.9	
285.92	4629.8	
286.12	5074.2	
286.33	3325.9	
286.54	2728.6	
286.75	4637.3	
286.96	4306.2	
287.17	2600.2	
287.38	3188	
287.59	4213.4	
287.8	4272.7	
288.01	2697.9	
288.22	3003.7	
288.43	4515.8	
288.64	3971	
288.85	3140.2	
289.06	3021.4	
289.27	4653	
289.48	4873.5	
289.69	3352.5	
289.9	3061	
290.11	4850.3	
290.32	4256.4	
290.53	3190.1	
290.74	2919.7	
290.94	4661.2	
291.15	4595	
291.36	2706.7	
291.57	3009.8	
291.78	4274.1	
291.99	4000.4	
292.2	2607.7	
292.41	2976.4	
292.62	4679.6	
292.83	4577.9	
293.04	3540.9	
293.25	2625.5	
293.46	4304.8	
293.67	4715.1	
293.88	2617.3	
294.09	2601.6	
294.29	4138.9	
294.5	4472.8	
294.71	2807.1	
294.92	2649.4	
295.13	4290.5	
295.34	5104.9	
295.55	2496.5	
295.76	2414.6	
295.97	4657.8	
296.18	4979.3	
296.39	2529.2	
296.6	2645.3	
296.81	4334.9	
297.01	4609.3	
297.22	2736.1	
297.43	2676.7	
297.64	4285.7	
297.85	4115.1	
298.06	2283.5	
298.27	2453.5	
298.48	4304.8	
298.69	4218.8	
298.9	2885.6	
299.11	2622.1	
299.31	4127.3	
299.52	4138.9	
299.73	3041.9	
299.94	2917.7	
300.15	4391.5	
300.36	4198.3	
300.57	2966.1	
300.78	2910.2	
300.99	4296.6	
301.2	4393.6	
301.4	2688.3	
301.61	2834.4	
301.82	4526.7	
302.03	4640.7	
302.24	3104.7	
302.45	2584.5	
302.66	4493.9	
302.87	4685.8	
303.08	2717	
303.29	3405.1	
303.49	4330.1	
303.7	4310.3	
303.91	2447.3	
304.12	3241.3	
304.33	4067.3	
304.54	4450.2	
304.75	2660.3	
304.96	2636.4	
305.16	4608.6	
305.37	5008.6	
305.58	2376.3	
305.79	2435	
306	4543.1	
306.21	4030.4	
306.42	2651.4	
306.63	3771	
306.83	4331.5	
307.04	4596.3	
307.25	2877.4	
307.46	2850.1	
307.67	3969.6	
307.88	4541	
308.09	2661	
308.29	2661	
308.5	4420.9	
308.71	4635.9	
308.92	2762	
309.13	2560.6	
309.34	4406.5	
309.55	4349.9	
309.75	3211.2	
309.96	2981.8	
310.17	4657.1	
310.38	4134.8	
310.59	3005.1	
310.8	2912.2	
311.01	4302.8	
311.21	4367	
311.42	2670.6	
311.63	2622.1	
311.84	4220.2	
312.05	4401.8	
312.26	2909.5	
312.46	3070.6	
312.67	4235.2	
312.88	4049.5	
313.09	2588.6	
313.3	2549.7	
313.51	4789.5	
313.71	5044.8	
313.92	2567.5	
314.13	2702.6	
314.34	4511	
314.55	4379.9	
314.76	3048.1	
314.96	2854.2	
315.17	4513.7	
315.38	4527.4	
315.59	2631.6	
315.8	2548.4	
316.01	4805.2	
316.21	4947.9	
316.42	2538.8	
316.63	2839.2	
316.84	4326.7	
317.05	4762.9	
317.26	2968.9	
317.46	2715.6	
317.67	4382.7	
317.88	4639.3	
318.09	3140.2	
318.3	2461.7	
318.5	4252.3	
318.71	4486.4	
318.92	3851.5	
319.13	3028.3	
319.34	4666.6	
319.54	4777.9	
319.75	2474.6	
319.96	2358.6	
320.17	4523.3	
320.38	4655	
320.58	2429.6	
320.79	2832.3	
321	4698	
321.21	4852.3	
321.42	2795.5	
321.62	2425.5	
321.83	4154	
322.04	4418.2	
322.25	2773.6	
322.46	2611.2	
322.66	4455	
322.87	4607.9	
323.08	3052.2	
323.29	2521.7	
323.5	5044.8	
323.7	4059.1	
323.91	3316.3	
324.12	3006.4	
324.33	4496.7	
324.53	4561.5	
324.74	2919.7	
324.95	3011.2	
325.16	4056.3	
325.37	4232.5	
325.57	2570.9	
325.78	2655.5	
325.99	4504.2	
326.2	4025.6	
326.4	3439.9	
326.61	2456.9	
326.82	4363.5	
327.03	4414.7	
327.24	3416	
327.44	3190.1	
327.65	4578.6	
327.86	3869.3	
328.07	2945	
328.27	2566.1	
328.48	4840.7	
328.69	4100	
328.9	3468.6	
329.1	2676	
329.31	4352.6	
329.52	4799.1	
329.73	2630.3	
329.93	2790.7	
330.14	4446.8	
330.35	4480.3	
330.56	3873.4	
330.76	3054.2	
330.97	4258.4	
331.18	4353.3	
331.39	2838.5	
331.59	2363.4	
331.8	4708.3	
332.01	4713.1	
332.22	2659.6	
332.42	2902.7	
332.63	4443.4	
332.84	4072.7	
333.05	2884.9	
333.25	2610.5	
333.46	4170.3	
333.67	4328	
333.88	2739.5	
334.08	2841.9	
334.29	5446.2	
334.5	4684.4	
334.7	2572.9	
334.91	3452.9	
335.12	4100.7	
335.33	4540.3	
335.53	2812.5	
335.74	3837.9	
335.95	4345.1	
336.16	4043.4	
336.36	2821.4	
336.57	3149.8	
336.78	4024.9	
336.98	4669.4	
337.19	3354.6	
337.4	2709.5	
337.61	5140.4	
337.81	4113.7	
338.02	2701.3	
338.23	3209.8	
338.43	4831.2	
338.64	4147.8	
338.85	2615.9	
339.05	3266.5	
339.26	4890.5	
339.47	4059.8	
339.68	2607.1	
339.88	3521.8	
340.09	4615.4	
340.3	4682.3	
340.5	2955.9	
340.71	2366.8	
340.92	4097.3	
341.13	4703.5	
341.33	2497.8	
341.54	2922.5	
341.75	4564.2	
341.95	4247.5	
342.16	2877.4	
342.37	3007.8	
342.57	4078.2	
342.78	4317.8	
342.99	3061	
343.19	2405.7	
343.4	4659.1	
343.61	4494.6	
343.81	2751.8	
344.02	2495.8	
344.23	4639.3	
344.43	4793.6	
344.64	3112.2	
344.85	3062.4	
345.06	4535.6	
345.26	4669.4	
345.47	2958.6	
345.68	3349.1	
345.88	4034.5	
346.09	4675.5	
346.3	2992.8	
346.5	2351.8	
346.71	4325.3	
346.92	4184	
347.12	2551.8	
347.33	2911.5	
347.54	4650.9	
347.74	4842.1	
347.95	2901.3	
348.16	2338.1	
348.36	4223.6	
348.57	4094.6	
348.78	2957.9	
348.98	3064.4	
349.19	4259.8	
349.39	3913	
349.6	2446.6	
349.81	2627.5	
350.01	4533.5	
350.22	4182	
350.43	2859	
350.63	3278.8	
350.84	4332.8	
351.05	4139.6	
351.25	2592	
351.46	2465.8	
351.67	4665.3	
351.87	4174.4	
352.08	2775.7	
352.29	3047.4	
352.49	4605.9	
352.7	4401.1	
352.9	2514.9	
353.11	3024.8	
353.32	4949.3	
353.52	4284.4	
353.73	2572.2	
353.94	3061.7	
354.14	4513.7	
354.35	4255	
354.55	2613.2	
354.76	2805.7	
354.97	4493.2	
355.17	4328.7	
355.38	2510.1	
355.59	3205.8	
355.79	4143.7	
356	4300.7	
356.2	2772.9	
356.41	2567.5	
356.62	4058.4	
356.82	4306.2	
357.03	3039.9	
357.24	2708.1	
357.44	4119.1	
357.65	4207.9	
357.85	3366.9	
358.06	2837.1	
358.27	3946.4	
358.47	4060.4	
358.68	2480.8	
358.88	2965.5	
359.09	4445.5	
359.3	4635.2	
359.5	3302	
359.71	2953.2	
359.91	4871.4	
360.12	4478.9	
360.33	3009.8	
360.53	3239.2	
360.74	4177.9	
360.94	4170.3	
361.15	3083.6	
361.36	2611.2	
361.56	4692.6	
361.77	4308.2	
361.97	3342.3	
362.18	2783.9	
362.38	4606.6	
362.59	4077.5	
362.8	2621.4	
363	2510.1	
363.21	4024.3	
363.41	4246.8	
363.62	2864.4	
363.83	3407.8	
364.03	4538.3	
364.24	4924	
364.44	3596.2	
364.65	3549.8	
364.85	4271.4	
365.06	4093.9	
365.27	2729.9	
365.47	2758.6	
365.68	4833.9	
365.88	4218.1	
366.09	3009.1	
366.29	2725.2	
366.5	4419.5	
366.71	4567.7	
366.91	3500.7	
367.12	3085.6	
367.32	5049.6	
367.53	4538.3	
367.73	3093.8	
367.94	3610.6	
368.14	4595	
368.35	4901.5	
368.56	2956.6	
368.76	2657.6	
368.97	4644.1	
369.17	5517.9	
369.38	2742.2	
369.58	2904.7	
369.79	4037.2	
369.99	4868	
370.2	3499.3	
370.4	2965.5	
370.61	4413.4	
370.82	5225.1	
371.02	2933.4	
371.23	2532	
371.43	4100	
371.64	4841.4	
371.84	2944.3	
372.05	3568.9	
372.25	5371.8	
372.46	4523.3	
372.66	2934.1	
372.87	2919.7	
373.07	4543.1	
373.28	5614.2	
373.48	3448.1	
373.69	3278.1	
373.9	4335.5	
374.1	4348.5	
374.31	3447.4	
374.51	3123.2	
374.72	4784.7	
374.92	4183.3	
375.13	3498.6	
375.33	3125.2	
375.54	4534.2	
375.74	4282.3	
375.95	3143.6	
376.15	3857	
376.36	4612.7	
376.56	4542.4	
376.77	3155.2	
376.97	3378.5	
377.18	5285.1	
377.38	4666	
377.59	3545.7	
377.79	2908.8	
378	4494.6	
378.2	4703.5	
378.41	2925.9	
378.61	2880.8	
378.82	4788.8	
379.02	4356.7	
379.23	3017.3	
379.43	3641.3	
379.64	4969.1	
379.84	4617.5	
380.05	2973.7	
380.25	2873.3	
380.46	4730.8	
380.66	4478.9	
380.87	3678.8	
381.07	3921.9	
381.28	5060.5	
381.48	4685.8	
381.69	2903.3	
381.89	2984.6	
382.1	4098.7	
382.3	4702.1	
382.51	3609.2	
382.71	4067.3	
382.91	4615.4	
383.12	4954.7	
383.32	3148.4	
383.53	3266.5	
383.73	4616.1	
383.94	4534.9	
384.14	3196.9	
384.35	2705.4	
384.55	4384.7	
384.76	4663.2	
384.96	3242.6	
385.17	3335.5	
385.37	4752	
385.58	4229.7	
385.78	3286.3	
385.98	2697.2	
386.19	4455	
386.39	4658.4	
386.6	3056.3	
386.8	3131.3	
387.01	4713.7	
387.21	4759.5	
387.42	3403	
387.62	3748.5	
387.83	4396.3	
388.03	4481.6	
388.23	3220.1	
388.44	3648.1	
388.64	4166.9	
388.85	4192.9	
389.05	3357.3	
389.26	3670	
389.46	5487.9	
389.67	4984.1	
389.87	3363.4	
390.07	3388.7	
390.28	4519.2	
390.48	4242.7	
390.69	2969.6	
390.89	3148.4	
391.1	4416.8	
391.3	4872.8	
391.5	3867.9	
391.71	4138.9	
391.91	4774.5	
392.12	5292	
392.32	3893.9	
392.53	3365.5	
392.73	4482.3	
392.93	4531.5	
393.14	3280.8	
393.34	3650.8	
393.55	4875.5	
393.75	4467.3	
393.95	3213.3	
394.16	3187.3	
394.36	4435.2	
394.57	4815.5	
394.77	2985.3	
394.98	3146.4	
395.18	4404.5	
395.38	4452.3	
395.59	3716.4	
395.79	3117	
396	4549.9	
396.2	4812	
396.4	3589.4	
396.61	3551.2	
396.81	4842.8	
397.02	4432.5	
397.22	3786.7	
397.42	3754.6	
397.63	4907.6	
397.83	4485.7	
398.04	3121.1	
398.24	3366.2	
398.44	4773.1	
398.65	4132.1	
398.85	3005.7	
399.05	3061	
399.26	4536.3	
399.46	5442.1	
399.67	3315	
399.87	3156.6	
400.07	4683.7	
400.28	4828.4	
400.48	3203.7	
400.69	3855.6	
400.89	4952	
401.09	5271.5	
401.3	3155.9	
401.5	3757.3	
401.7	5343.8	
401.91	5498.1	
402.11	3467.9	
402.32	3528	
402.52	5025.7	
402.72	4953.4	
402.93	3675.4	
403.13	2945.7	
403.33	5477	
403.54	4709	
403.74	3435.1	
403.94	3968.3	
404.15	4790.2	
404.35	5466	
404.56	3362.1	
404.76	4289.1	
404.96	5041.4	
405.17	4824.3	
405.37	3913.7	
405.57	3595.6	
405.78	5083.1	
405.98	4677.6	
406.18	3351.2	
406.39	3812.6	
406.59	5031.9	
406.79	4745.1	
407	3241.9	
407.2	3331.4	
407.4	5306.3	
407.61	5122.7	
407.81	3321.8	
408.01	4440	
408.22	4425	
408.42	5495.4	
408.62	3999.7	
408.83	3694.5	
409.03	4803.2	
409.23	4874.2	
409.44	3745.1	
409.64	3808.5	
409.84	5482.4	
410.05	5383.4	
410.25	3886.4	
410.45	3706.8	
410.66	5188.9	
410.86	6591.7	
411.06	4087.7	
411.27	3920.5	
411.47	6494.1	
411.67	5294	
411.88	4140.3	
412.08	4260.5	
412.28	5653.8	
412.49	5967.1	
412.69	3997.6	
412.89	4022.2	
413.09	5932.3	
413.3	5764.3	
413.5	4063.9	
413.7	3904.8	
413.91	5399.1	
414.11	5863.3	
414.31	3995.6	
414.52	4179.9	
414.72	5755.5	
414.92	5683.8	
415.12	4033.1	
415.33	4314.4	
415.53	5818.3	
415.73	5962.3	
415.94	4470.7	
416.14	4115.7	
416.34	5371.1	
416.55	5224.4	
416.75	4926.7	
416.95	4496.7	
417.15	5998.5	
417.36	6330.3	
417.56	5095.3	
417.76	4437.3	
417.97	6121.4	
418.17	5988.9	
418.37	4304.1	
418.57	4262.5	
418.78	5951.4	
418.98	5721.3	
419.18	4824.3	
419.38	4752	
419.59	5626.5	
419.79	5524.7	
419.99	4228.4	
420.2	4326	
420.4	6097.5	
420.6	5963.7	
420.8	4197.7	
421.01	4108.2	
421.21	5950.7	
421.41	5920.7	
421.61	4360.1	
421.82	4226.3	
422.02	5701.5	
422.22	6213.5	
422.42	4713.7	
422.63	4483.7	
422.83	5654.4	
423.03	6411.5	
423.23	4527.4	
423.44	3900.7	
423.64	5662	
423.84	5477	
424.04	4184.7	
424.25	4011.3	
424.45	6212.2	
424.65	6148	
424.85	3918.4	
425.06	4182.6	
425.26	6399.9	
425.46	5638.1	
425.66	4363.5	
425.87	4322.6	
426.07	6066.8	
426.27	5877	
426.47	4328	
426.67	4013.3	
426.88	6318	
427.08	5957.5	
427.28	4618.2	
427.48	3980.6	
427.69	5358.9	
427.89	5704.3	
428.09	4389.5	
428.29	3948.5	
428.5	6025.1	
428.7	5845.6	
428.9	4022.9	
429.1	4311	
429.3	5882.4	
429.51	5952.1	
429.71	4192.2	
429.91	4645.5	
430.11	6086.6	
430.31	6337.8	
430.52	4349.9	
430.72	4451.6	
430.92	6349.4	
431.12	6042.9	
431.32	4188.8	
431.53	4463.2	
431.73	5434.6	
431.93	6296.8	
432.13	4186	
432.33	4032.5	
432.54	5811.5	
432.74	5815.5	
432.94	4019.5	
433.14	4671.4	
433.34	6183.5	
433.55	5898.8	
433.75	4690.5	
433.95	5679.7	
434.15	6051.7	
434.35	5816.9	
434.56	4273.4	
434.76	3966.9	
434.96	5993.7	
435.16	6114.6	
435.36	4203.1	
435.56	4967.7	
435.77	5775.3	
435.97	5968.5	
436.17	5211.4	
436.37	4797.7	
436.57	5752.7	
436.78	5818.3	
436.98	4801.8	
437.18	5199.1	
437.38	6130.3	
437.58	5845.6	
437.78	5233.9	
437.99	4425.7	
438.19	6182.8	
438.39	6707.1	
438.59	4458.4	
438.79	4120.5	
438.99	6683.9	
439.2	5840.8	
439.4	4114.4	
439.6	4184	
439.8	6036.7	
440	6677.1	
440.2	4794.3	
440.4	4871.4	
440.61	6387.6	
440.81	6642.9	
441.01	4410.6	
441.21	4892.6	
441.41	6668.9	
441.61	6398.5	
441.81	5121.3	
442.02	5668.8	
442.22	6986.3	
442.42	6497.5	
442.62	4511	
442.82	4574.5	
443.02	6782.9	
443.22	6208.8	
443.43	4821.6	
443.63	4473.4	
443.83	6078.4	
444.03	6087.2	
444.23	5255.1	
444.43	4941.1	
444.63	6380.1	
444.83	7000	
445.04	4689.8	
445.24	5335	
445.44	6636.8	
445.64	6476.4	
445.84	5034.6	
446.04	5105.6	
446.24	6075.6	
446.44	6698.9	
446.65	4533.5	
446.85	4776.5	
447.05	6259.3	
447.25	6668.2	
447.45	4915.1	
447.65	4481	
447.85	6396.5	
448.05	6010.8	
448.25	5027.8	
448.46	5008.6	
448.66	6341.2	
448.86	6075	
449.06	4542.4	
449.26	4995	
449.46	6527.6	
449.66	6046.3	
449.86	4921.3	
450.06	4813.4	
450.26	6138.4	
450.47	6497.5	
450.67	4980.7	
450.87	5214.8	
451.07	6746	
451.27	6465.4	
451.47	4614.8	
451.67	5170.4	
451.87	6313.2	
452.07	6911.2	
452.27	4779.3	
452.47	4758.8	
452.67	6467.5	
452.88	6720.1	
453.08	4337.6	
453.28	5529.5	
453.48	7174.7	
453.68	6346	
453.88	4779.3	
454.08	4844.8	
454.28	6617	
454.48	6417	
454.68	5157.5	
454.88	5431.2	
455.08	6840.9	
455.28	6593.8	
455.48	4687.8	
455.68	5184.1	
455.89	7149.5	
456.09	6848.4	
456.29	4967.7	
456.49	5085.1	
456.69	7120.1	
456.89	6503.7	
457.09	5365	
457.29	5565	
457.49	6796.5	
457.69	6903	
457.89	5354.8	
458.09	4915.1	
458.29	6808.1	
458.49	7297.6	
458.69	5543.9	
458.89	5288.5	
459.09	7352.9	
459.29	7397.9	
459.49	5197.7	
459.69	5730.2	
459.9	7030.7	
460.1	6847.7	
460.3	5203.2	
460.5	5062.6	
460.7	7095.5	
460.9	6855.2	
461.1	4897.4	
461.3	5654.4	
461.5	7562.5	
461.7	7381.6	
461.9	5323.4	
462.1	5482.4	
462.3	7145.4	
462.5	7372.7	
462.7	5328.1	
462.9	5401.9	
463.1	8005.5	
463.3	7836.9	
463.5	5621	
463.7	6188.3	
463.9	7329	
464.1	7561.8	
464.3	5794.4	
464.5	5885.2	
464.7	7727.7	
464.9	7490.8	
465.1	6587	
465.3	6113.2	
465.5	7926.3	
465.7	7972.7	
465.9	6284.5	
466.1	6027.2	
466.3	7774.1	
466.5	7731.1	
466.7	6709.1	
466.9	6035.4	
467.1	7912.7	
467.3	8323.6	
467.5	6763.1	
467.7	6144.6	
467.9	8520.9	
468.1	8948.9	
468.3	6518.7	
468.5	6758.3	
468.7	7808.9	
468.9	7776.1	
469.1	6380.8	
469.3	6796.5	
469.5	9017.9	
469.7	7655.3	
469.9	6649.8	
470.1	6184.9	
470.3	7985.7	
470.5	7938.6	
470.7	7032	
470.9	6301.6	
471.1	7767.9	
471.3	7947.5	
471.5	6186.2	
471.69	7202.7	
471.89	7849.2	
472.09	7366.5	
472.29	6625.9	
472.49	6737.1	
472.69	7529	
472.89	7963.2	
473.09	6109.8	
473.29	6169.8	
473.49	7703.8	
473.69	7579.5	
473.89	6632.7	
474.09	6239.5	
474.29	8417.2	
474.49	8064.9	
474.69	6709.8	
474.89	6290	
475.09	7761.8	
475.29	7669	
475.49	5967.8	
475.69	6131.6	
475.88	8584.4	
476.08	7963.9	
476.28	5877.7	
476.48	6067.4	
476.68	8286.8	
476.88	7986.4	
477.08	6055.8	
477.28	6183.5	
477.48	7765.9	
477.68	8036.2	
477.88	6055.2	
478.08	6132.3	
478.28	8334.6	
478.48	7749.5	
478.67	6191	
478.87	5843.5	
479.07	8140.7	
479.27	7820.5	
479.47	6227.9	
479.67	6361	
479.87	8127	
480.07	8426	
480.27	6012.2	
480.47	6787	
480.67	7819.1	
480.87	8331.8	
481.06	6104.3	
481.26	6551.5	
481.46	7886.7	
481.66	7818.5	
481.86	6488.6	
482.06	6832	
482.26	7696.9	
482.46	8239.7	
482.66	6320.7	
482.86	6081.1	
483.05	8094.9	
483.25	7595.9	
483.45	7922.9	
483.65	6369.2	
483.85	7630	
484.05	7952.3	
484.25	6628.6	
484.45	6859.3	
484.65	8279.9	
484.84	8413.7	
485.04	6438.8	
485.24	6351.4	
485.44	8727.1	
485.64	7641.7	
485.84	5999.2	
486.04	6775.4	
486.24	7937.2	
486.44	8150.9	
486.63	6100.9	
486.83	6692.8	
487.03	7929.7	
487.23	7993.2	
487.43	6054.5	
487.63	7477.1	
487.83	8099	
488.02	8360.5	
488.22	6662	
488.42	7067.5	
488.62	8699.8	
488.82	7923.6	
489.02	6564.4	
489.22	6524.1	
489.41	8433.5	
489.61	8518.2	
489.81	6364.4	
490.01	6418.3	
490.21	8568.7	
490.41	9031.5	
490.61	6485.2	
490.8	6463.4	
491	8267	
491.2	7912.7	
491.4	6789.7	
491.6	6338.5	
491.8	8251.3	
491.99	8189.1	
492.19	6262.7	
492.39	6412.2	
492.59	8475.9	
492.79	8596	
492.99	6909.8	
493.18	6399.2	
493.38	8780.3	
493.58	9151.7	
493.78	6909.2	
493.98	6650.4	
494.18	8482	
494.37	8251.3	
494.57	7290.1	
494.77	7090.1	
494.97	8830.8	
495.17	9009	
495.37	6961.7	
495.56	7139.9	
495.76	9097.8	
495.96	8991.9	
496.16	7663.5	
496.36	7187.7	
496.55	9271.2	
496.75	8781	
496.95	7469.6	
497.15	7350.8	
497.35	9141.4	
497.54	9187.9	
497.74	7314.7	
497.94	8282.7	
498.14	9590.6	
498.34	9363.3	
498.53	7146.7	
498.73	7559.7	
498.93	8827.4	
499.13	9151	
499.33	7512.6	
499.52	7803.4	
499.72	9384.5	
499.92	9288.2	
500.12	7256.6	
500.32	7520.1	
500.51	9392	
500.71	9289.6	
500.91	7989.1	
501.11	7811.6	
501.31	9432.3	
501.5	9716.2	
501.7	8344.8	
501.9	7583.6	
502.1	9225.4	
502.29	9623.4	
502.49	7858.7	
502.69	8074.5	
502.89	9473.2	
503.09	9411.8	
503.28	7197.2	
503.48	7323.5	
503.68	9070.5	
503.88	8830.8	
504.07	7916.1	
504.27	7507.2	
504.47	9209.7	
504.67	9186.5	
504.86	7892.2	
505.06	7560.4	
505.26	9127.8	
505.46	9770.9	
505.65	7497.6	
505.85	7614.3	
506.05	8942.1	
506.25	9263	
506.44	7163.8	
506.64	7483.3	
506.84	8836.3	
507.04	9128.5	
507.23	7200	
507.43	7432.8	
507.63	9876.7	
507.83	8847.2	
508.02	7496.2	
508.22	7250.5	
508.42	10038	
508.62	8774.9	
508.81	7418.4	
509.01	7685.3	
509.21	8688.2	
509.4	8907.3	
509.6	7522.2	
509.8	7161.7	
510	8827.4	
510.19	9508.7	
510.39	7047.7	
510.59	7197.9	
510.79	8770.8	
510.98	9564	
511.18	7411.6	
511.38	7247.1	
511.57	9377.6	
511.77	9056.1	
511.97	7701	
512.17	7206.1	
512.36	9222.7	
512.56	9084.1	
512.76	7170.6	
512.95	7039.6	
513.15	9439.1	
513.35	8458.1	
513.55	7688.1	
513.74	7176.1	
513.94	9271.8	
514.14	8811.7	
514.33	7817.1	
514.53	7583.6	
514.73	9053.4	
514.92	9037.7	
515.12	7354.3	
515.32	7182.9	
515.51	9138	
515.71	9308.7	
515.91	8401.5	
516.11	7290.1	
516.3	10090	
516.5	8992.6	
516.7	7619.1	
516.89	7961.8	
517.09	9003.6	
517.29	9041.1	
517.48	7872.4	
517.68	7478.5	
517.88	8732.5	
518.07	9211.1	
518.27	7749.5	
518.47	7145.4	
518.66	9593.4	
518.86	8803.5	
519.06	7180.9	
519.25	7502.4	
519.45	8974.9	
519.65	9783.8	
519.84	7854	
520.04	8213.7	
520.24	10099	
520.43	9370.8	
520.63	7696.9	
520.83	7621.2	
521.02	9015.2	
521.22	9360.6	
521.42	7711.3	
521.61	7999.4	
521.81	9033.6	
522.01	9182.4	
522.2	7735.9	
522.4	7596.6	
522.6	9531.2	
522.79	8683.4	
522.99	7644.4	
523.18	7309.2	
523.38	9451.4	
523.58	9431.6	
523.77	8421.9	
523.97	7480.5	
524.17	10542	
524.36	10107	
524.56	8471.1	
524.76	8152.3	
524.95	9598.8	
525.15	9374.2	
525.34	8125.7	
525.54	8150.9	
525.74	10001	
525.93	9371.5	
526.13	8907.3	
526.33	8215.1	
526.52	10372	
526.72	9921.7	
526.91	9024	
527.11	8649.9	
527.31	10276	
527.5	10418	
527.7	8607.6	
527.89	8062.9	
528.09	9790	
528.29	10131	
528.48	8772.1	
528.68	8581.7	
528.87	10421	
529.07	10281	
529.27	8627.4	
529.46	8333.2	
529.66	10260	
529.85	10402	
530.05	8385.1	
530.25	8740	
530.44	11092	
530.64	10118	
530.83	8596.7	
531.03	8694.3	
531.23	10656	
531.42	10309	
531.62	9125.7	
531.81	8667	
532.01	10641	
532.21	10733	
532.4	8753	
532.6	8959.9	
532.79	11157	
532.99	10763	
533.18	9161.9	
533.38	9708.1	
533.58	10641	
533.77	11004	
533.97	9172.9	
534.16	9655.5	
534.36	11364	
534.55	10715	
534.75	9788.6	
534.95	9226.1	
535.14	11303	
535.34	10647	
535.53	9041.8	
535.73	10092	
535.92	11619	
536.12	10826	
536.31	9038.4	
536.51	9821.4	
536.71	11058	
536.9	10761	
537.1	9055.4	
537.29	9380.4	
537.49	11261	
537.68	10585	
537.88	9572.9	
538.07	8980.3	
538.27	10954	
538.46	11453	
538.66	8991.3	
538.86	9297.8	
539.05	10996	
539.25	11215	
539.44	9501.2	
539.64	9132.6	
539.83	10912	
540.03	11447	
540.22	9138.7	
540.42	9132.6	
540.61	11144	
540.81	10903	
541	9357.2	
541.2	9774.3	
541.39	10619	
541.59	10798	
541.78	9674.6	
541.98	9077.3	
542.18	10426	
542.37	10320	
542.57	9253.4	
542.76	9561.3	
542.96	10417	
543.15	10865	
543.35	9252.7	
543.54	8720.3	
543.74	10556	
543.93	10742	
544.13	9063.6	
544.32	9650.7	
544.52	10847	
544.71	10341	
544.91	8559.8	
545.1	9176.3	
545.3	10441	
545.49	10604	
545.69	8540.7	
545.88	8921.6	
546.08	11396	
546.27	10958	
546.47	9093	
546.66	8641.1	
546.86	10803	
547.05	11037	
547.24	8840.4	
547.44	8826.7	
547.63	10221	
547.83	10758	
548.02	9017.2	
548.22	8999.5	
548.41	10154	
548.61	10840	
548.8	8700.5	
549	8779.6	
549.19	10445	
549.39	10717	
549.58	8523.6	
549.78	8802.2	
549.97	10642	
550.17	10210	
550.36	9249.3	
550.55	9897.2	
550.75	10306	
550.94	10799	
551.14	8578.9	
551.33	8738.7	
551.53	9906.7	
551.72	10484	
551.92	8720.9	
552.11	8647.2	
552.31	10535	
552.5	10414	
552.69	9576.3	
552.89	8324.3	
553.08	10488	
553.28	10348	
553.47	8574.8	
553.67	9238.4	
553.86	10820	
554.06	9720.3	
554.25	8110.6	
554.44	8429.4	
554.64	11151	
554.83	10854	
555.03	8400.1	
555.22	8671.1	
555.42	10621	
555.61	10404	
555.8	8529.8	
556	8652	
556.19	9839.8	
556.39	10455	
556.58	8548.2	
556.78	8532.5	
556.97	10380	
557.16	10031	
557.36	9174.2	
557.55	8301.1	
557.75	9634.3	
557.94	10653	
558.13	8421.2	
558.33	8254	
558.52	10600	
558.72	9730.6	
558.91	8289.5	
559.1	8356.4	
559.3	9685.5	
559.49	9491	
559.69	8170.7	
559.88	8501.1	
560.07	10150	
560.27	10413	
560.46	8742.1	
560.66	8713.4	
560.85	9975	
561.04	9431.6	
561.24	8190.5	
561.43	8162.5	
561.63	9577	
561.82	9871.9	
562.01	9010.4	
562.21	8436.9	
562.4	10053	
562.59	10572	
562.79	8295.6	
562.98	8163.2	
563.18	10015	
563.37	10852	
563.56	8652	
563.76	8238.3	
563.95	9740.1	
564.14	9753.1	
564.34	8529.1	
564.53	8230.1	
564.73	10167	
564.92	10265	
565.11	8594.6	
565.31	8171.4	
565.5	10391	
565.69	9753.8	
565.89	8393.9	
566.08	8460.2	
566.27	10320	
566.47	10568	
566.66	8949.6	
566.85	8170.7	
567.05	10193	
567.24	9873.9	
567.44	8342.7	
567.63	9069.8	
567.82	10358	
568.02	10085	
568.21	8201.4	
568.4	8500.4	
568.6	10154	
568.79	10028	
568.98	8314.8	
569.18	8236.2	
569.37	10151	
569.56	11254	
569.76	8603.5	
569.95	9134.6	
570.14	10306	
570.34	10221	
570.53	8342.1	
570.72	8256	
570.91	10759	
571.11	10092	
571.3	8559.8	
571.49	9129.8	
571.69	10234	
571.88	9744.2	
572.07	8817.2	
572.27	8832.2	
572.46	9691.7	
572.65	10420	
572.85	8410.3	
573.04	8570.7	
573.23	10677	
573.43	10235	
573.62	8262.9	
573.81	8705.2	
574	10258	
574.2	10034	
574.39	8604.9	
574.58	8632.2	
574.78	10735	
574.97	10370	
575.16	8890.9	
575.36	8905.9	
575.55	10654	
575.74	10650	
575.93	8360.5	
576.13	9106	
576.32	10229	
576.51	10563	
576.71	8684.1	
576.9	9546.9	
577.09	10921	
577.28	10377	
577.48	8914.1	
577.67	8299.1	
577.86	10314	
578.05	10505	
578.25	8790.6	
578.44	8783.1	
578.63	10298	
578.83	11098	
579.02	8489.5	
579.21	9428.2	
579.4	10391	
579.6	10312	
579.79	8820.6	
579.98	10122	
580.17	10660	
580.37	10758	
580.56	8574.2	
580.75	9055.4	
580.94	10804	
581.14	10904	
581.33	9299.8	
581.52	8636.3	
581.71	10606	
581.91	11041	
582.1	8615.8	
582.29	8761.2	
582.48	10369	
582.68	10406	
582.87	9039.1	
583.06	8901.8	
583.25	10669	
583.45	10490	
583.64	9303.9	
583.83	9663	
584.02	10398	
584.21	10725	
584.41	9200.2	
584.6	8941.4	
584.79	10494	
584.98	10772	
585.18	8586.5	
585.37	8539.3	
585.56	10254	
585.75	10632	
585.94	8738.7	
586.14	9029.5	
586.33	10988	
586.52	10377	
586.71	8900.5	
586.91	8686.8	
587.1	9914.9	
587.29	10588	
587.48	8591.2	
587.67	8601.5	
587.87	10535	
588.06	10257	
588.25	9215.9	
588.44	8869.1	
588.63	9981.1	
588.83	10370	
589.02	8517.5	
589.21	8310	
589.4	9903.3	
589.59	9947.7	
589.78	7800	
589.98	7902.4	
590.17	9399.5	
590.36	9691.7	
590.55	7456	
590.74	7738.6	
590.94	10166	
591.13	9415.9	
591.32	7595.9	
591.51	7304.4	
591.7	9554.5	
591.89	9357.9	
592.09	7430.7	
592.28	7715.4	
592.47	8767.4	
592.66	10105	
592.85	7468.3	
593.05	7667.6	
593.24	9288.2	
593.43	9944.9	
593.62	7856	
593.81	7919.5	
594	9374.9	
594.19	9487.6	
594.39	7626	
594.58	7526.3	
594.77	9594.1	
594.96	9824.8	
595.15	7557	
595.34	7901.1	
595.54	9312.1	
595.73	8933.9	
595.92	7159	
596.11	7705.8	
596.3	9710.1	
596.49	9097.1	
596.68	7605.5	
596.88	7791.2	
597.07	9552.4	
597.26	8918.2	
597.45	7266.2	
597.64	8036.9	
597.83	9130.5	
598.02	9366	
598.22	7424.6	
598.41	7796.6	
598.6	9374.9	
598.79	8974.9	
598.98	7479.2	
599.17	7940.7	
599.36	9340.8	
599.55	9944.9	
599.74	8617.9	
599.94	8432.9	
600.13	9561.3	
600.32	8911.4	
600.51	7176.1	
600.7	7339.9	
600.89	9941.5	
601.08	10051	
601.27	7224.6	
601.47	7808.2	
601.66	9499.2	
601.85	9862.3	
602.04	7641.7	
602.23	7694.9	
602.42	8968.1	
602.61	9317.6	
602.8	7500.3	
602.99	7369.3	
603.18	9146.9	
603.37	9306.7	
603.57	7677.8	
603.76	8038.3	
603.95	9736.7	
604.14	9388.6	
604.33	7464.8	
604.52	7662.1	
604.71	9394.7	
604.9	9067.7	
605.09	8047.8	
605.28	7804.1	
605.47	9658.9	
605.66	9278	
605.86	7817.1	
606.05	7406.8	
606.24	9736	
606.43	8662.2	
606.62	7694.9	
606.81	8008.2	
607	9555.8	
607.19	9043.1	
607.38	7221.8	
607.57	7361.1	
607.76	8925.7	
607.95	8518.9	
608.14	7621.2	
608.33	7960.5	
608.52	8942.8	
608.72	9477.3	
608.91	7159.7	
609.1	7100.3	
609.29	9003.6	
609.48	8680.7	
609.67	7643	
609.86	7124.2	
610.05	8771.5	
610.24	8843.1	
610.43	7079.8	
610.62	6864.1	
610.81	9613.8	
611	9448	
611.19	7175.4	
611.38	7561.8	
611.57	9059.5	
611.76	9653.4	
611.95	7010.2	
612.14	6874.3	
612.33	8821.3	
612.52	8660.9	
612.71	7240.3	
612.9	6888.7	
613.09	8435.6	
613.28	9947	
613.47	7219.1	
613.66	7737.2	
613.85	9048.6	
614.04	8585.1	
614.24	7176.8	
614.43	6703.7	
614.62	9101.9	
614.81	9077.3	
615	7455.3	
615.19	7477.8	
615.38	8675.9	
615.57	8942.8	
615.76	7434.1	
615.95	7905.8	
616.14	9074.5	
616.33	8787.2	
616.52	7619.8	
616.71	7730.4	
616.9	9104.6	
617.09	8978.3	
617.28	7232.7	
617.47	7790.5	
617.66	8578.3	
617.85	8520.2	
618.04	7662.8	
618.22	7380.2	
618.41	8804.9	
618.6	9377.6	
618.79	7452.6	
618.98	7296.2	
619.17	9448.6	
619.36	8452	
619.55	7432.8	
619.74	7467.6	
619.93	9081.4	
620.12	8737.3	
620.31	7786.4	
620.5	7947.5	
620.69	9445.9	
620.88	9809.8	
621.07	8216.5	
621.26	7733.1	
621.45	9321.7	
621.64	9312.8	
621.83	7857.4	
622.02	7325.6	
622.21	9443.9	
622.4	9341.5	
622.59	8193.9	
622.78	8041.7	
622.97	9008.3	
623.16	9643.9	
623.35	7814.4	
623.54	7294.9	
623.72	9192	
623.91	9149	
624.1	8000	
624.29	7280.5	
624.48	9953.1	
624.67	9413.8	
624.86	7938.6	
625.05	7373.4	
625.24	9990	
625.43	9093.7	
625.62	8842.4	
625.81	7544.7	
626	9495.1	
626.19	9202.2	
626.38	8049.9	
626.56	7675.1	
626.75	9023.4	
626.94	9509.4	
627.13	7974.1	
627.32	7203.4	
627.51	9462.3	
627.7	10051	
627.89	7158.3	
628.08	8000.7	
628.27	8900.5	
628.46	9051.3	
628.65	7464.2	
628.83	7133.8	
629.02	9399.5	
629.21	8865.7	
629.4	7725.6	
629.59	7781.6	
629.78	8974.9	
629.97	9476	
630.16	7767.3	
630.35	7509.9	
630.54	9837.1	
630.72	9629.5	
630.91	7559.7	
631.1	7776.8	
631.29	9187.2	
631.48	9203.6	
631.67	8010.3	
631.86	7542	
632.05	9173.5	
632.24	9043.1	
632.42	7338.6	
632.61	7737.2	
632.8	9114.1	
632.99	8850.6	
633.18	7699	
633.37	7873.1	
633.56	9275.9	
633.75	9230.9	
633.93	7662.1	
634.12	7547.4	
634.31	9857.6	
634.5	9462.3	
634.69	7605.5	
634.88	7870.3	
635.07	9149	
635.25	9467.8	
635.44	8172.8	
635.63	8263.6	
635.82	9112.1	
636.01	8372.8	
636.2	8044.4	
636.39	7830.1	
636.57	9776.3	
636.76	9381.1	
636.95	7400.7	
637.14	8199.4	
637.33	9379	
637.52	9807.7	
637.7	7245	
637.89	7989.1	
638.08	9087.5	
638.27	9838.4	
638.46	7880.6	
638.65	8083.3	
638.83	9843.9	
639.02	8916.2	
639.21	7771.4	
639.4	8050.6	
639.59	9082.7	
639.78	8929.8	
639.96	7343.3	
640.15	7314.7	
640.34	9056.8	
640.53	9028.1	
640.72	7141.3	
640.91	7346.1	
641.09	8715.5	
641.28	9355.8	
641.47	7439.6	
641.66	7802.8	
641.85	9053.4	
642.03	9042.5	
642.22	7604.8	
642.41	7392.5	
642.6	8686.8	
642.79	8389.2	
642.97	7168.6	
643.16	7589.8	
643.35	8598.7	
643.54	8506.6	
643.73	7083.9	
643.91	7475.8	
644.1	8436.3	
644.29	8725	
644.48	6987	
644.67	7020.4	
644.85	8247.2	
645.04	8673.1	
645.23	6677.7	
645.42	6939.2	
645.6	8270.4	
645.79	8865	
645.98	6765.1	
646.17	6158.9	
646.36	7957	
646.54	8243.8	
646.73	7163.1	
646.92	6442.9	
647.11	7989.1	
647.29	8490.9	
647.48	6505	
647.67	6271.6	
647.86	8701.1	
648.05	8696.4	
648.23	6613.6	
648.42	7296.9	
648.61	8365.3	
648.8	8230.1	
648.98	6379.4	
649.17	6623.8	
649.36	7894.2	
649.55	7688.1	
649.73	6371.9	
649.92	6862.1	
650.11	7886.7	
650.3	8093.6	
650.48	6494.8	
650.67	6447	
650.86	8208.9	
651.05	7541.3	
651.23	6412.2	
651.42	6348	
651.61	7920.9	
651.79	7695.6	
651.98	6578.8	
652.17	6180.1	
652.36	8089.5	
652.54	7465.5	
652.73	6377.4	
652.92	6252.4	
653.11	8083.3	
653.29	8146.1	
653.48	5819	
653.67	6420.4	
653.85	7819.8	
654.04	8471.8	
654.23	6464.8	
654.42	6223.8	
654.6	7542	
654.79	7884.7	
654.98	5905.7	
655.16	6221.7	
655.35	7275.1	
655.54	7096.2	
655.73	5787.6	
655.91	5713.2	
656.1	7641.7	
656.29	7044.3	
656.47	5536.3	
656.66	6516.6	
656.85	7303.7	
657.03	7268.2	
657.22	5887.9	
657.41	6016.9	
657.59	7342	
657.78	7285.3	
657.97	5780.1	
658.16	6148	
658.34	7802.1	
658.53	8133.8	
658.72	6684.6	
658.9	7001.3	
659.09	7659.4	
659.28	7613.7	
659.46	5980.1	
659.65	5955.5	
659.84	7443.7	
660.02	7806.9	
660.21	6077.7	
660.4	5899.5	
660.58	7872.4	
660.77	7515.4	
660.96	6348.7	
661.14	5772.5	
661.33	8163.2	
661.52	8214.4	
661.7	5725.4	
661.89	7643.7	
662.08	7346.7	
662.26	6975.4	
662.45	5810.1	
662.64	5939.1	
662.82	7795.3	
663.01	7180.2	
663.2	5834	
663.38	6316.6	
663.57	7652.6	
663.75	7547.4	
663.94	5971.9	
664.13	6736.5	
664.31	7413	
664.5	7697.6	
664.69	6293.4	
664.87	6498.9	
665.06	7131	
665.25	7518.1	
665.43	6627.9	
665.62	6593.8	
665.8	7698.3	
665.99	7278.5	
666.18	6107	
666.36	6081.1	
666.55	7699.7	
666.74	7626	
666.92	5844.2	
667.11	6758.3	
667.29	7375.4	
667.48	7590.5	
667.67	6475.7	
667.85	5967.8	
668.04	7320.8	
668.22	7266.2	
668.41	6035.4	
668.6	6225.1	
668.78	7217.7	
668.97	7265.5	
669.15	6320	
669.34	5606	
669.53	7197.9	
669.71	7355.6	
669.9	5693.4	
670.08	6069.5	
670.27	7066.2	
670.46	7467.6	
670.64	6176.7	
670.83	6335.1	
671.01	6953.5	
671.2	7332.4	
671.38	5731.6	
671.57	5689.3	
671.76	7740.6	
671.94	8099	
672.13	5662.6	
672.31	6249	
672.5	7550.2	
672.69	7137.9	
672.87	5814.2	
673.06	5965.1	
673.24	7433.4	
673.43	7261.4	
673.61	6087.9	
673.8	5911.1	
673.98	7501	
674.17	7550.2	
674.36	6221	
674.54	6234	
674.73	7197.9	
674.91	7608.2	
675.1	5946.6	
675.28	5793.7	
675.47	7310.6	
675.65	7627.3	
675.84	5968.5	
676.03	6126.8	
676.21	7268.2	
676.4	6797.2	
676.58	6325.5	
676.77	6200.6	
676.95	8027.4	
677.14	7188.4	
677.32	5712.5	
677.51	5618.3	
677.69	7569.3	
677.88	7020.4	
678.06	5660.6	
678.25	5732.9	
678.44	7253.9	
678.62	7001.3	
678.81	5573.9	
678.99	6051.7	
679.18	7728.4	
679.36	7475.8	
679.55	5801.9	
679.73	6197.2	
679.92	7483.3	
680.1	7077.1	
680.29	6592.4	
680.47	5858.6	
680.66	7138.5	
680.84	7594.6	
681.03	5608	
681.21	6124.8	
681.4	7118.7	
681.58	7004.7	
681.77	5738.4	
681.95	5713.2	
682.14	7643	
682.32	7737.2	
682.51	6214.9	
682.69	5498.1	
682.88	7003.4	
683.06	7245	
683.25	6080.4	
683.43	6248.4	
683.62	7325.6	
683.8	7386.3	
683.99	6313.9	
684.17	5943.2	
684.36	7900.4	
684.54	7126.9	
684.73	5437.4	
684.91	5465.3	
685.1	7213.6	
685.28	6823.8	
685.46	5777.3	
685.65	5710.4	
685.83	7171.3	
686.02	6761.7	
686.2	5376.6	
686.39	5372.5	
686.57	6537.1	
686.76	7449.1	
686.94	5367	
687.13	5556.8	
687.31	7093.5	
687.5	6965.1	
687.68	5177.3	
687.86	5876.3	
688.05	8023.9	
688.23	6520	
688.42	5997.1	
688.6	5497.4	
688.79	6868.9	
688.97	6837.5	
689.16	5847	
689.34	5132.2	
689.52	7328.3	
689.71	7586.4	
689.89	6012.8	
690.08	5567.7	
690.26	7207.5	
690.45	7000	
690.63	6081.1	
690.81	5769.8	
691	7088	
691.18	6980.8	
691.37	5821	
691.55	7011.6	
691.74	6960.4	
691.92	8067.6	
692.1	5768.4	
692.29	5474.9	
692.47	7240.9	
692.66	6705.7	
692.84	5605.3	
693.02	5854.5	
693.21	6726.9	
693.39	7097.6	
693.58	6059.9	
693.76	5646.2	
693.94	7802.8	
694.13	7628.7	
694.31	5716.6	
694.5	6427.9	
694.68	7096.2	
694.86	7355.6	
695.05	6010.8	
695.23	6327.5	
695.42	7647.1	
695.6	8800.1	
695.78	6567.2	
695.97	6102.3	
696.15	7718.1	
696.34	7307.8	
696.52	5866.1	
696.7	6305.7	
696.89	7503.8	
697.07	7122.8	
697.25	6248.4	
697.44	7038.9	
697.62	7568.6	
697.81	7589.1	
697.99	6032.6	
698.17	6367.1	
698.36	7200.7	
698.54	7513.3	
698.72	6314.6	
698.91	5659.2	
699.09	7348.8	
699.28	7163.1	
699.46	6135	
699.64	5931.6	
699.83	7169.9	
700.01	7757.7	
700.19	6536.4	
700.38	5578.7	
700.56	7910.6	
700.74	7322.2	
700.93	5823.1	
701.11	6423.1	
701.29	7727	
701.48	8359.8	
701.66	6008.7	
701.84	6112.5	
702.03	7593.2	
702.21	7931.8	
702.39	5897.5	
702.58	6317.3	
702.76	7866.9	
702.94	7832.8	
703.13	5954.8	
703.31	7330.4	
703.49	7462.8	
703.68	7954.3	
703.86	6070.9	
704.04	6576	
704.23	7788.4	
704.41	7963.9	
704.59	6201.9	
704.78	6734.4	
704.96	8701.1	
705.14	7946.8	
705.33	6128.2	
705.51	6535.8	
705.69	7537.2	
705.87	8122.9	
706.06	6676.4	
706.24	6025.8	
706.42	7866.9	
706.61	8060.1	
706.79	6640.2	
706.97	6110.5	
707.16	7557	
707.34	7880.6	
707.52	6617	
707.7	6155.5	
707.89	7611.6	
708.07	7491.5	
708.25	6774.7	
708.44	6877.8	
708.62	7594.6	
708.8	8258.1	
708.98	6864.1	
709.17	6268.8	
709.35	7811.6	
709.53	7750.9	
709.72	6139.8	
709.9	6197.2	
710.08	8120.9	
710.26	8082.6	
710.45	7042.3	
710.63	6320	
710.81	7826.7	
710.99	7772	
711.18	6711.9	
711.36	6356.9	
711.54	7729.7	
711.72	8062.9	
711.91	6463.4	
712.09	6010.1	
712.27	7751.6	
712.45	8182.3	
712.64	6417	
712.82	5837.4	
713	7319.4	
713.18	7356.3	
713.37	5864	
713.55	6537.8	
713.73	7770.7	
713.91	6970.6	
714.1	5825.8	
714.28	5515.2	
714.46	7396.6	
714.64	6858.6	
714.83	5087.2	
715.01	5341.1	
715.19	6638.8	
715.37	6195.1	
715.55	5053	
715.74	5169.1	
715.92	7023.9	
716.1	5881.8	
716.28	5862	
716.47	5225.7	
716.65	6337.8	
716.83	6334.4	
717.01	5068.7	
717.19	5104.2	
717.38	7578.2	
717.56	6138.4	
717.74	5243.5	
717.92	4782	
718.1	6849.8	
718.29	6435.4	
718.47	4749.2	
718.65	5116.5	
718.83	7002	
719.01	6987	
719.2	4842.8	
719.38	5594.4	
719.56	6918.7	
719.74	7864.9	
719.92	5421.7	
720.11	5960.3	
720.29	7002.7	
720.47	6489.3	
720.65	4930.8	
720.83	5383.4	
721.02	6576.7	
721.2	6326.9	
721.38	5356.8	
721.56	4848.2	
721.74	5934.3	
721.92	6010.8	
722.11	5485.8	
722.29	5326.8	
722.47	6731	
722.65	6291.4	
722.83	4844.8	
723.01	5233.2	
723.2	6230.6	
723.38	6505.7	
723.56	4471.4	
723.74	5189.6	
723.92	6016.9	
724.1	6690.7	
724.29	4863.9	
724.47	5412.8	
724.65	6195.8	
724.83	6023.1	
725.01	4661.9	
725.19	5143.8	
725.37	6016.2	
725.56	5963	
725.74	4698	
725.92	4844.8	
726.1	6072.2	
726.28	6196.5	
726.46	4935.6	
726.64	4786.1	
726.83	6277	
727.01	6322.8	
727.19	4581.3	
727.37	5103.5	
727.55	6343.2	
727.73	6630.6	
727.91	4530.8	
728.09	4524.6	
728.28	6580.8	
728.46	6630.6	
728.64	5162.9	
728.82	5154.1	
729	7207.5	
729.18	6984.3	
729.36	4758.8	
729.54	6015.6	
729.72	7484	
729.91	6492.1	
730.09	5963	
730.27	5329.5	
730.45	6569.2	
730.63	6860.7	
730.81	5550.7	
730.99	5122	
731.17	7267.6	
731.35	6432	
731.53	5355.4	
731.71	5162.2	
731.9	7025.9	
732.08	7088.7	
732.26	5303.6	
732.44	5110.4	
732.62	7084.6	
732.8	6756.2	
732.98	5549.3	
733.16	4972.5	
733.34	6828.6	
733.52	6008.7	
733.7	5173.2	
733.88	5299.5	
734.07	6656.6	
734.25	6525.5	
734.43	4930.1	
734.61	5696.8	
734.79	7491.5	
734.97	6509.8	
735.15	4928.8	
735.33	5223	
735.51	6680.5	
735.69	6540.5	
735.87	5910.4	
736.05	5248.9	
736.23	6533	
736.41	6378.1	
736.59	5193	
736.77	5246.2	
736.95	6802.7	
737.13	6395.8	
737.32	4936.3	
737.5	5053.7	
737.68	7173.4	
737.86	6366.5	
738.04	4838	
738.22	5859.9	
738.4	6282.5	
738.58	6507.8	
738.76	5108.3	
738.94	4563.6	
739.12	6262.7	
739.3	6272.2	
739.48	5470.1	
739.66	5265.3	
739.84	6429.9	
740.02	6435.4	
740.2	4628.4	
740.38	4747.2	
740.56	6671.6	
740.74	5931.6	
740.92	5175.9	
741.1	5053	
741.28	6258.6	
741.46	6087.9	
741.64	4846.2	
741.82	5143.1	
742	6356.9	
742.18	6169.8	
742.36	4937.7	
742.54	4785.4	
742.72	6559	
742.9	5754.8	
743.08	5117.9	
743.26	4345.8	
743.44	6603.3	
743.62	6500.9	
743.8	5272.2	
743.98	4666	
744.16	6297.5	
744.34	6100.2	
744.52	5033.9	
744.7	5038	
744.88	6405.4	
745.06	6077	
745.24	5041.4	
745.42	5084.4	
745.6	6502.3	
745.78	6341.2	
745.96	4325.3	
746.14	4498	
746.32	6822.5	
746.5	6242.9	
746.68	4759.5	
746.86	4440	
747.03	6492.7	
747.21	5564.3	
747.39	4696	
747.57	4372.4	
747.75	6064.7	
747.93	6165.8	
748.11	4422.2	
748.29	4311.7	
748.47	7048.4	
748.65	5742.5	
748.83	4855.1	
749.01	4676.2	
749.19	6118	
749.37	5593.7	
749.55	4642.7	
749.73	4626.4	
749.91	6065.4	
750.09	5825.1	
750.26	4613.4	
750.44	4321.2	
750.62	5907.7	
750.8	5882.4	
750.98	4224.3	
751.16	4435.9	
751.34	6013.5	
751.52	5561.6	
751.7	4812	
751.88	4124.6	
752.06	6236.1	
752.24	6042.2	
752.42	4056.3	
752.59	4332.1	
752.77	5829.2	
752.95	6539.2	
753.13	4775.2	
753.31	4339.6	
753.49	5619.6	
753.67	5822.4	
753.85	4531.5	
754.03	4237.9	
754.21	5978	
754.38	6171.2	
754.56	4207.9	
754.74	3677.5	
754.92	5436.7	
755.1	5687.2	
755.28	3529.3	
755.46	3547.1	
755.64	6117.3	
755.82	6079.7	
755.99	3457.7	
756.17	3448.8	
756.35	4406.5	
756.53	5181.4	
756.71	2713.6	
756.89	3460.4	
757.07	5001.1	
757.25	4481.6	
757.42	3526.6	
757.6	4137.6	
757.78	5146.5	
757.96	4567.7	
758.14	3480.9	
758.32	3163.4	
758.5	4215.4	
758.67	4769.7	
758.85	3318.4	
759.03	3416.7	
759.21	4887.8	
759.39	4485.1	
759.57	3074.7	
759.75	3779.9	
759.92	5260.5	
760.1	4988.2	
760.28	4068.6	
760.46	4218.1	
760.64	4862.6	
760.82	4645.5	
760.99	3895.2	
761.17	3543.7	
761.35	5404.6	
761.53	4733.5	
761.71	3746.4	
761.89	4070	
762.06	5268.1	
762.24	5051.7	
762.42	3807.9	
762.6	3583.3	
762.78	5033.9	
762.96	5362.9	
763.13	4039.3	
763.31	3761.4	
763.49	5535	
763.67	5025	
763.85	4299.4	
764.02	4690.5	
764.2	5769.8	
764.38	5164.3	
764.56	3772.4	
764.74	4245.4	
764.91	5774.6	
765.09	5029.8	
765.27	3594.2	
765.45	3439.9	
765.63	5827.8	
765.8	5565	
765.98	3333.4	
766.16	3489.1	
766.34	4757.4	
766.52	4661.9	
766.69	4016.7	
766.87	3359.4	
767.05	5072.1	
767.23	5449	
767.41	3536.8	
767.58	3691.8	
767.76	5397.1	
767.94	5401.2	
768.12	3631	
768.29	3957.4	
768.47	4961.5	
768.65	5442.8	
768.83	3306.1	
769	3913.7	
769.18	4767.7	
769.36	5134.3	
769.54	3964.9	
769.72	3313.6	
769.89	5363.6	
770.07	5257.8	
770.25	3573	
770.43	4255	
770.6	5708.4	
770.78	5933	
770.96	3621.5	
771.14	3902.7	
771.31	5289.9	
771.49	4788.2	
771.67	3070.6	
771.85	3205.1	
772.02	4413.4	
772.2	4825.7	
772.38	3590.1	
772.55	3306.1	
772.73	4982	
772.91	4814.1	
773.09	3551.9	
773.26	3631	
773.44	4951.3	
773.62	4818.9	
773.8	3229.6	
773.97	3106.8	
774.15	4941.7	
774.33	4757.4	
774.5	3202.3	
774.68	3334.8	
774.86	5114.5	
775.04	4739	
775.21	3234.4	
775.39	3125.9	
775.57	4906.9	
775.74	4965.6	
775.92	3054.9	
776.1	2928.6	
776.27	4863.9	
776.45	5567.7	
776.63	3216	
776.81	2951.1	
776.98	4659.1	
777.16	5193	
777.34	3218	
777.51	3428.3	
777.69	4659.8	
777.87	4461.8	
778.04	3293.1	
778.22	3547.8	
778.4	4474.1	
778.57	4809.3	
778.75	2821.4	
778.93	2988.7	
779.1	4428.4	
779.28	4260.5	
779.46	2814.6	
779.64	3072	
779.81	4937	
779.99	5423.7	
780.17	3485	
780.34	3638.6	
780.52	4658.4	
780.69	4707.6	
780.87	3249.4	
781.05	3007.1	
781.22	4679.6	
781.4	4679.6	
781.58	3048.7	
781.75	2540.8	
781.93	4721.9	
782.11	4215.4	
782.28	3593.5	
782.46	3023.5	
782.64	4191.5	
782.81	4754.7	
782.99	3124.5	
783.17	3062.4	
783.34	4631.1	
783.52	4283	
783.69	3164.1	
783.87	3632.4	
784.05	4384.7	
784.22	4229.1	
784.4	3597.6	
784.58	3209.8	
784.75	4860.5	
784.93	4403.1	
785.1	3020.8	
785.28	3402.4	
785.46	4717.8	
785.63	4227.7	
785.81	3022.1	
785.99	2897.9	
786.16	4401.8	
786.34	4549.9	
786.51	2927.9	
786.69	3179.8	
786.87	4035.2	
787.04	4394.9	
787.22	2900.6	
787.39	3431	
787.57	4207.2	
787.75	4845.5	
787.92	3583.9	
788.1	3374.4	
788.27	4201.7	
788.45	3956	
788.63	3286.3	
788.8	2560.6	
788.98	4517.8	
789.15	3954.6	
789.33	2704	
789.5	2941.6	
789.68	4803.2	
789.86	4789.5	
790.03	3196.9	
790.21	2889	
790.38	4859.8	
790.56	4293.2	
790.73	2778.4	
790.91	2749.1	
791.09	4209.9	
791.26	4615.4	
791.44	3032.4	
791.61	2600.2	
791.79	4214.7	
791.96	4192.9	
792.14	2733.4	
792.32	2536.1	
792.49	4184.7	
792.67	4244.1	
792.84	2800.9	
793.02	2695.8	
793.19	4769.7	
793.37	4844.1	
793.54	2442.5	
793.72	2704	
793.89	4945.2	
794.07	4133.5	
794.25	3079.5	
794.42	2529.9	
794.6	4812	
794.77	4488.5	
794.95	3194.8	
795.12	2821.4	
795.3	4240.7	
795.47	4486.4	
795.65	3086.3	
795.82	2961.4	
796	4102.1	
796.17	5139.7	
796.35	2903.3	
796.52	3343	
796.7	4473.4	
796.87	4532.2	
797.05	2902	
797.22	3398.3	
797.4	4601.8	
797.57	5034.6	
797.75	3042.6	
797.92	2810.5	
798.1	4762.9	
798.27	3997	
798.45	2545.6	
798.62	2617.3	
798.8	4319.2	
798.97	4644.1	
799.15	3047.4	
799.32	3001.6	
799.5	3879.5	
799.67	4302.8	
799.85	3162.7	
800.02	2469.2	
800.2	4160.1	
800.37	4248.9	
800.55	3269.2	
800.72	2863.7	
800.9	4614.1	
801.07	4848.9	
801.25	3607.8	
801.42	3023.5	
801.6	4627	
801.77	4309.6	
801.95	2905.4	
802.12	2833.7	
802.29	4437.3	
802.47	4380.6	
802.64	3096.5	
802.82	2480.1	
802.99	4123.9	
803.17	4682.3	
803.34	2936.8	
803.52	2736.8	
803.69	5047.6	
803.87	3906.2	
804.04	2912.9	
804.21	2983.2	
804.39	4804.5	
804.56	4196.3	
804.74	2595.5	
804.91	3063.1	
805.09	4117.8	
805.26	4095.3	
805.44	2633	
805.61	2841.2	
805.78	4560.8	
805.96	4517.8	
806.13	3028.3	
806.31	3246	
806.48	3814	
806.66	4141	
806.83	2988.7	
807	2975	
807.18	4167.6	
807.35	4326	
807.53	2947.7	
807.7	2506	
807.87	4783.4	
808.05	4164.2	
808.22	3165.5	
808.4	2465.8	
808.57	4020.2	
808.74	3864.5	
808.92	2791.4	
809.09	3353.2	
809.27	4160.8	
809.44	4406.5	
809.61	2453.5	
809.79	2648.7	
809.96	4902.2	
810.14	4513	
810.31	2479.4	
810.48	3063.1	
810.66	4129.4	
810.83	4575.8	
811.01	2724.5	
811.18	2985.9	
811.35	4574.5	
811.53	3736.9	
811.7	3221.5	
811.87	2989.4	
812.05	4201.7	
812.22	4080.9	
812.39	2702.6	
812.57	2572.9	
812.74	4180.6	
812.92	5087.2	
813.09	2923.1	
813.26	2981.8	
813.44	4937.7	
813.61	4017.4	
813.78	2499.2	
813.96	3106.1	
814.13	4218.8	
814.3	3977.8	
814.48	3328.6	
814.65	2798.2	
814.82	4852.3	
815	3928	
815.17	2928.6	
815.34	3396.9	
815.52	4115.1	
815.69	4060.4	
815.87	2831	
816.04	2841.2	
816.21	4079.6	
816.38	3814	
816.56	2803.7	
816.73	2674.6	
816.9	5036	
817.08	4527.4	
817.25	2634.4	
817.42	3177.8	
817.6	3827.7	
817.77	4006.5	
817.94	2972.3	
818.12	2635.1	
818.29	4009.9	
818.46	5399.8	
818.64	2788	
818.81	2589.3	
818.98	4000.4	
819.16	5184.1	
819.33	3070.6	
819.5	2914.3	
819.67	4367.6	
819.85	4731.5	
820.02	2914.3	
820.19	2973	
820.37	4258.4	
820.54	4028.4	
820.71	2975	
820.88	3533.4	
821.06	4229.1	
821.23	3971	
821.4	2915.6	
821.58	2908.8	
821.75	4487.1	
821.92	4246.8	
822.09	2474.6	
822.27	2539.5	
822.44	4115.1	
822.61	4084.3	
822.79	2533.3	
822.96	4288.4	
823.13	4268	
823.3	3916.4	
823.48	2804.4	
823.65	2594.8	
823.82	4602.5	
823.99	3867.9	
824.17	3386.7	
824.34	2596.8	
824.51	5119.2	
824.68	4139.6	
824.86	2678.1	
825.03	2932	
825.2	4167.6	
825.37	4675.5	
825.55	2764.8	
825.72	2866.5	
825.89	4990.2	
826.06	4734.9	
826.24	2871.9	
826.41	2871.9	
826.58	4780	
826.75	4261.8	
826.92	2424.8	
827.1	2590.7	
827.27	6098.9	
827.44	4950.6	
827.61	2712.2	
827.79	3132	
827.96	4019.5	
828.13	4061.8	
828.3	2826.2	
828.47	2502.6	
828.65	4387.4	
828.82	4337.6	
828.99	3422.8	
829.16	3083.6	
829.34	4567.7	
829.51	4444.1	
829.68	2874	
829.85	2945.7	
830.02	4830.5	
830.2	4621.6	
830.37	2344.9	
830.54	3319.8	
830.71	5050.3	
830.88	4179.9	
831.05	2342.9	
831.23	2638.5	
831.4	4947.9	
831.57	5231.2	
831.74	2739.5	
831.91	2392.7	
832.09	4457.7	
832.26	4564.2	
832.43	2697.9	
832.6	3045.3	
832.77	4397	
832.94	4760.8	
833.12	2321	
833.29	2650.1	
833.46	4409.3	
833.63	5390.3	
833.8	2969.6	
833.97	2716.3	
834.15	4663.2	
834.32	4514.4	
834.49	2848	
834.66	2915.6	
834.83	4622.3	
835	4091.8	
835.17	2723.8	
835.35	2710.8	
835.52	4540.3	
835.69	4382	
835.86	2813.9	
836.03	2407	
836.2	4597	
836.37	4313	
836.55	2741.5	
836.72	2598.2	
836.89	4304.8	
837.06	4638	
837.23	2796.8	
837.4	2982.5	
837.57	5107	
837.75	5345.9	
837.92	2555.9	
838.09	2704.7	
838.26	4326	
838.43	4661.2	
838.6	2820.7	
838.77	2657.6	
838.94	5149.3	
839.11	5066.7	
839.29	2768.9	
839.46	2265.1	
839.63	4609.3	
839.8	4318.5	
839.97	2682.2	
840.14	2652.1	
840.31	4534.2	
840.48	4576.5	
840.65	2323.8	
840.82	2674	
841	4540.3	
841.17	4420.2	
841.34	2482.1	
841.51	2581.8	
841.68	4549.9	
841.85	4354	
842.02	2601.6	
842.19	2175.6	
842.36	4500.1	
842.53	4488.5	
842.7	2536.8	
842.87	2930.6	
843.05	5457.8	
843.22	4349.2	
843.39	2428.9	
843.56	2609.8	
843.73	4308.2	
843.9	4657.1	
844.07	3674.1	
844.24	3117	
844.41	5864	
844.58	4124.6	
844.75	2441.9	
844.92	2549	
845.09	4491.2	
845.26	4477.5	
845.43	2504	
845.6	2604.3	
845.77	4558.1	
845.94	4425.7	
846.12	2731.3	
846.29	2822.1	
846.46	4745.8	
846.63	4547.9	
846.8	2491	
846.97	2893.1	
847.14	4805.2	
847.31	4547.2	
847.48	2721.1	
847.65	2973.7	
847.82	4543.1	
847.99	4639.3	
848.16	3158	
848.33	2906.1	
848.5	4213.4	
848.67	4818.9	
848.84	2463.7	
849.01	2592	
849.18	4216.1	
849.35	3989.4	
849.52	2975.7	
849.69	2434.4	
849.86	4719.9	
850.03	4721.3	
850.2	2519	
850.37	2895.8	
850.54	4690.5	
850.71	4330.8	
850.88	2885.6	
851.05	2428.2	
851.22	4440	
851.39	4812	
851.56	2375.6	
851.73	2814.6	
851.9	4088.4	
852.07	4661.9	
852.24	2703.3	
852.41	2430.9	
852.58	4459.8	
852.75	4120.5	
852.92	2782.5	
853.09	2409.8	
853.26	4180.6	
853.43	4810	
853.6	2537.4	
853.77	2181.8	
853.94	4844.8	
854.11	4048.2	
854.28	3457.7	
854.44	2671.9	
854.61	5033.9	
854.78	4685.1	
854.95	2495.1	
855.12	2957.3	
855.29	3815.4	
855.46	4805.9	
855.63	2517	
855.8	3225.6	
855.97	4261.1	
856.14	4760.8	
856.31	3315.7	
856.48	2668.5	
856.65	4379.9	
856.82	4042.7	
856.99	2398.2	
857.16	2622.8	
857.33	5227.8	
857.49	4330.1	
857.66	2628.9	
857.83	2760.7	
858	4365.6	
858.17	4471.4	
858.34	2385.2	
858.51	2492.4	
858.68	4835.9	
858.85	4922.6	
859.02	2783.9	
859.19	2945.7	
859.36	4118.5	
859.52	4051.6	
859.69	2446.6	
859.86	2839.8	
860.03	4118.5	
860.2	4889.2	
860.37	2280.1	
860.54	2482.8	
860.71	4619.5	
860.88	4859.8	
861.05	2690.3	
861.21	3037.1	
861.38	4820.2	
861.55	3969.6	
861.72	2291.7	
861.89	2736.8	
862.06	4696	
862.23	4875.5	
862.4	2418	
862.56	2560	
862.73	4595	
862.9	4394.3	
863.07	2805	
863.24	2322.4	
863.41	4031.8	
863.58	4124.6	
863.75	2527.2	
863.91	2837.1	
864.08	4700.8	
864.25	4601.8	
864.42	2954.5	
864.59	3296.5	
864.76	5055.8	
864.93	4078.2	
865.09	2370.2	
865.26	2620.7	
865.43	4870.8	
865.6	5045.5	
865.77	2254.1	
865.94	2450.1	
866.1	4776.5	
866.27	4547.2	
866.44	3499.3	
866.61	2371.5	
866.78	4296.6	
866.95	4600.4	
867.11	2435	
867.28	2296.5	
867.45	4754.7	
867.62	4101.4	
867.79	2757.9	
867.96	2464.4	
868.12	4017.4	
868.29	4629.1	
868.46	2506.7	
868.63	3148.4	
868.8	4651.6	
868.97	4567.7	
869.13	2540.2	
869.3	2567.5	
869.47	4470.7	
869.64	4676.2	
869.81	2452.1	
869.97	2493.7	
870.14	4456.4	
870.31	4863.2	
870.48	2384.5	
870.65	3016	
870.81	4333.5	
870.98	4364.9	
871.15	2753.2	
871.32	2592	
871.48	4562.9	
871.65	4907.6	
871.82	2452.8	
871.99	2700.6	
872.16	5151.3	
872.32	4808.6	
872.49	2532.7	
872.66	2495.1	
872.83	4695.3	
872.99	4211.3	
873.16	2791.4	
873.33	2480.8	
873.5	4470.7	
873.67	4448.9	
873.83	2622.8	
874	3179.1	
874.17	4510.3	
874.34	5010.7	
874.5	3078.1	
874.67	2963.4	
874.84	4809.3	
875.01	3928.7	
875.17	3250.1	
875.34	2498.5	
875.51	4468.7	
875.68	5210.7	
875.84	2897.2	
876.01	3321.1	
876.18	4590.2	
876.34	4549.9	
876.51	2453.5	
876.68	2421.4	
876.85	4272.7	
877.01	4797.7	
877.18	3322.5	
877.35	2456.2	
877.52	4558.8	
877.68	4102.8	
877.85	2465.1	
878.02	2473.3	
878.18	4222.9	
878.35	4183.3	
878.52	2089.6	
878.69	2863.1	
878.85	4725.3	
879.02	4594.3	
879.19	3319.8	
879.35	2567.5	
879.52	4600.4	
879.69	4704.9	
879.86	2196.1	
880.02	2665.8	
880.19	4381.3	
880.36	5090.6	
880.52	2736.8	
880.69	2847.4	
880.86	4642.7	
881.02	4670.7	
881.19	2674	
881.36	2603.7	
881.52	4617.5	
881.69	4195.6	
881.86	2681.5	
882.02	2555.2	
882.19	4747.9	
882.36	5347.9	
882.52	2555.9	
882.69	3273.3	
882.86	4481.6	
883.02	4425	
883.19	2854.9	
883.36	2723.8	
883.52	4679.6	
883.69	5107	
883.86	2538.8	
884.02	2286.2	
884.19	4603.2	
884.36	4380.6	
884.52	2717.7	
884.69	2671.2	
884.86	4248.2	
885.02	4873.5	
885.19	2653.5	
885.36	2772.3	
885.52	4343.7	
885.69	4505.5	
885.86	3371	
886.02	3055.6	
886.19	4638	
886.35	4203.8	
886.52	2691	
886.69	3266.5	
886.85	4054.3	
887.02	4781.3	
887.19	4781.3	
887.35	4781.3	
887.52	4781.3	
887.68	4781.3	
887.85	4781.3	
888.02	4781.3	
888.18	4781.3	
888.35	4781.3	
888.51	4781.3	
888.68	4781.3	
888.85	4781.3	
889.01	4781.3	
889.18	4781.3	
889.35	4781.3	
889.51	4781.3	
889.68	4781.3	
889.84	4781.3	
890.01	4781.3	
890.17	4781.3	
890.34	4781.3	
890.51	4781.3	
890.67	4781.3	
890.84	4781.3	
891	4781.3	
891.17	4781.3	
891.34	4781.3	
891.5	4781.3	
891.67	4781.3	
891.83	4781.3	
892	4781.3	
892.16	4781.3	
892.33	4781.3	
892.5	4781.3	
892.66	4781.3	
892.83	4781.3	
892.99	4781.3	
893.16	4781.3	
893.32	4781.3	
893.49	4781.3	
893.65	4781.3	
893.82	4781.3	
893.99	4781.3	
894.15	4781.3	
894.32	4781.3	
894.48	4781.3	
894.65	4781.3	
894.81	4781.3	
894.98	4781.3	
895.14	4781.3	
895.31	4781.3	
895.47	4781.3	
895.64	4781.3	
895.81	4781.3	
895.97	4781.3	
896.14	4781.3	
896.3	4781.3	
896.47	4781.3	
896.63	4781.3	
896.8	4781.3	
896.96	4781.3	
897.13	4781.3	
897.29	4781.3	
897.46	4781.3	
897.62	4781.3	
897.79	4781.3	
897.95	4781.3	
898.12	4781.3	
898.28	4781.3	
898.45	4781.3	
898.61	4781.3	
898.78	4781.3	
898.94	4781.3	
899.11	4781.3	
899.27	4781.3	
899.44	4781.3	
899.6	4781.3	
899.77	4781.3	
899.93	4781.3	
900.1	4781.3	
900.26	4781.3	
900.43	4781.3	
900.59	4781.3	
900.76	4781.3	
900.92	4781.3	
901.09	4781.3	
901.25	4781.3	
901.42	4781.3	
901.58	4781.3	
901.75	4781.3	
901.91	4781.3	
902.07	4781.3	
902.24	4781.3	
902.4	4781.3	
902.57	4781.3	
902.73	4781.3	
902.9	4781.3	
903.06	4781.3	
903.23	4781.3	
903.39	4781.3	
903.56	4781.3	
903.72	4781.3	
903.88	4781.3	
904.05	4781.3	
904.21	4781.3	
904.38	4781.3	
904.54	4781.3	
904.71	4781.3	
904.87	4781.3	
905.03	4781.3	
905.2	4781.3	
905.36	4781.3	
905.53	4781.3	
905.69	4781.3	
905.86	4781.3	
906.02	4781.3	
906.18	4781.3	
906.35	4781.3	
906.51	4781.3	
906.68	4781.3	
906.84	4781.3	
907.01	4781.3	
907.17	4781.3	
907.33	4781.3	
907.5	4781.3	
907.66	4781.3	
907.83	4781.3	
907.99	4781.3	
908.15	4781.3	
908.32	4781.3	
908.48	4781.3	
908.65	4781.3	
908.81	4781.3	
908.97	4781.3	
909.14	4781.3	
909.3	4781.3	
909.47	4781.3	
909.63	4781.3	
909.79	4781.3	
909.96	4781.3	
910.12	4781.3	
910.28	4781.3	
910.45	4781.3	
910.61	4781.3	
910.78	4781.3	
910.94	4781.3	
911.1	4781.3	
911.27	4781.3	
911.43	4781.3	
911.59	4781.3	
911.76	4781.3	
911.92	4781.3	
912.08	4781.3	
912.25	4781.3	
912.41	4781.3	
912.57	4781.3	
912.74	4781.3	
912.9	4781.3	
913.07	4781.3	
913.23	4781.3	
913.39	4781.3	
913.56	4781.3	
913.72	4781.3	
913.88	4781.3	
914.05	4781.3	
914.21	4781.3	
914.37	4781.3	
914.54	4781.3	
914.7	4781.3	
914.86	4781.3	
915.03	4781.3	
915.19	4781.3	
