Wavelength	Intensities	
nm	a.u.	
179.22	1786.5	
179.44	1783.8	
179.65	1789.2	
179.86	1778.3	
180.08	1736	
180.29	4192.2	
180.51	3103.4	
180.72	5244.8	
180.94	5901.6	
181.15	2880.8	
181.37	2840.5	
181.58	5023.7	
181.79	5216.9	
182.01	2958.6	
182.22	3168.9	
182.44	5259.9	
182.65	4507.6	
182.87	3873.4	
183.08	3419.4	
183.29	5481.7	
183.51	4592.2	
183.72	3153.2	
183.94	4521.9	
184.15	4903.5	
184.37	4941.1	
184.58	2841.2	
184.79	3761.4	
185.01	4596.3	
185.22	5249.6	
185.44	3904.1	
185.65	3398.9	
185.86	4848.2	
186.08	4558.1	
186.29	2740.2	
186.51	2932.7	
186.72	4687.8	
186.94	5371.1	
187.15	3457.7	
187.36	3497.2	
187.58	6800.6	
187.79	5057.8	
188.01	3596.9	
188.22	5477.6	
188.43	5862	
188.65	5211.4	
188.86	3003.7	
189.08	3536.2	
189.29	4769	
189.5	4745.1	
189.72	3198.2	
189.93	3351.2	
190.15	5417.6	
190.36	6305.7	
190.57	3569.6	
190.79	3408.5	
191	5466.7	
191.22	5367	
191.43	3534.1	
191.64	2985.9	
191.86	5595.7	
192.07	5386.8	
192.29	3067.9	
192.5	3213.3	
192.71	5401.9	
192.93	4737.6	
193.14	3210.5	
193.35	3319.8	
193.57	4749.9	
193.78	5374.6	
194	2650.8	
194.21	3182.5	
194.42	4554.7	
194.64	4947.2	
194.85	3471.3	
195.07	3986.7	
195.28	4909	
195.49	4390.8	
195.71	4199.7	
195.92	3041.2	
196.13	5085.1	
196.35	5180	
196.56	4445.5	
196.78	3474	
196.99	6205.3	
197.2	5847	
197.42	3945.1	
197.63	3538.2	
197.84	4453	
198.06	5059.8	
198.27	3204.4	
198.48	4274.8	
198.7	4765.6	
198.91	4920.6	
199.13	3538.2	
199.34	3544.4	
199.55	5343.8	
199.77	4292.5	
199.98	3112.2	
200.19	3523.9	
200.41	4855.1	
200.62	4617.5	
200.83	3607.2	
201.05	3921.2	
201.26	4833.9	
201.47	4666.6	
201.69	3141.6	
201.9	3048.7	
202.11	4952	
202.33	5740.5	
202.54	3285.6	
202.76	3660.4	
202.97	5034.6	
203.18	5053	
203.4	3648.8	
203.61	3628.3	
203.82	4992.9	
204.04	4712.4	
204.25	3554.6	
204.46	3497.9	
204.68	4941.7	
204.89	5090.6	
205.1	3383.9	
205.32	3004.4	
205.53	5313.1	
205.74	5335.6	
205.96	2587.9	
206.17	3571	
206.38	5229.1	
206.6	5340.4	
206.81	3999.7	
207.02	3257	
207.24	5089.9	
207.45	5464.7	
207.66	3278.1	
207.88	2919.7	
208.09	5076.2	
208.3	4907.6	
208.52	3089	
208.73	3393.5	
208.94	4913.1	
209.15	5453.1	
209.37	3358.7	
209.58	3728.7	
209.79	5345.9	
210.01	4784.1	
210.22	2743.6	
210.43	2863.1	
210.65	4914.4	
210.86	5236.7	
211.07	3333.4	
211.29	3090.4	
211.5	5203.9	
211.71	4895.3	
211.93	3112.9	
212.14	3127.9	
212.35	4840	
212.56	5036.6	
212.78	3496.6	
212.99	2942.9	
213.2	5711.8	
213.42	4808.6	
213.63	3192.8	
213.84	3451.5	
214.06	4437.9	
214.27	4509.6	
214.48	3321.1	
214.69	3553.9	
214.91	5444.2	
215.12	5540.4	
215.33	3596.2	
215.55	3923.2	
215.76	5902.9	
215.97	5207.3	
216.18	3435.1	
216.4	3384.6	
216.61	4672.1	
216.82	5362.3	
217.04	3152.5	
217.25	3254.9	
217.46	5472.9	
217.67	5262.6	
217.89	2868.5	
218.1	2874	
218.31	5031.9	
218.53	5121.3	
218.74	3250.8	
218.95	3142.3	
219.16	4901.5	
219.38	5644.2	
219.59	3196.9	
219.8	3764.8	
220.01	6188.3	
220.23	4973.8	
220.44	4093.9	
220.65	3115	
220.87	5011.4	
221.08	5464.7	
221.29	2968.9	
221.5	3772.4	
221.72	6482.5	
221.93	4696.7	
222.14	3500	
222.35	4110.3	
222.57	4986.8	
222.78	5255.1	
222.99	3391.4	
223.2	3583.9	
223.42	5096.7	
223.63	5245.5	
223.84	2641.2	
224.05	2632.3	
224.27	6141.9	
224.48	5664.7	
224.69	4128.7	
224.9	3534.8	
225.12	5128.8	
225.33	4889.9	
225.54	2839.2	
225.75	3112.2	
225.97	4599.1	
226.18	4834.6	
226.39	3365.5	
226.6	3120.4	
226.82	4773.1	
227.03	4616.8	
227.24	3539.6	
227.45	2956.6	
227.67	5246.2	
227.88	5606.7	
228.09	3928.7	
228.3	3904.8	
228.52	5158.8	
228.73	4878.9	
228.94	3195.5	
229.15	2965.5	
229.36	4875.5	
229.58	4782	
229.79	3312.9	
230	3783.3	
230.21	5823.7	
230.43	4994.3	
230.64	3437.9	
230.85	3617.4	
231.06	5300.8	
231.28	5244.8	
231.49	2973.7	
231.7	3434.4	
231.91	5182	
232.12	4982	
232.34	3041.9	
232.55	3403	
232.76	5370.5	
232.97	5081	
233.18	3089	
233.4	3490.4	
233.61	5086.5	
233.82	4745.8	
234.03	3269.9	
234.25	3203	
234.46	6621.1	
234.67	4906.9	
234.88	3591.5	
235.09	3148.4	
235.31	5130.8	
235.52	4822.3	
235.73	3476.8	
235.94	2992.8	
236.15	4730.1	
236.37	5848.3	
236.58	3114.3	
236.79	3344.3	
237	5183.4	
237.21	4525.3	
237.43	3589.4	
237.64	2889	
237.85	8297	
238.06	4547.9	
238.27	3654.3	
238.48	2990.7	
238.7	5246.9	
238.91	4825	
239.12	3284.9	
239.33	3411.2	
239.54	4558.8	
239.76	4889.2	
239.97	3296.5	
240.18	3362.8	
240.39	5933.6	
240.6	5122	
240.82	3510.2	
241.03	2936.8	
241.24	4883	
241.45	5609.4	
241.66	3099.3	
241.87	3605.8	
242.09	5523.4	
242.3	5784.1	
242.51	3656.3	
242.72	3401.7	
242.93	5279.7	
243.14	4906.3	
243.36	3859.1	
243.57	4136.9	
243.78	5685.2	
243.99	5203.2	
244.2	3343.7	
244.41	3067.9	
244.63	4553.3	
244.84	5216.2	
245.05	3599	
245.26	3390.8	
245.47	5151.3	
245.68	5417.6	
245.9	4336.9	
246.11	3568.9	
246.32	4762.2	
246.53	5128.1	
246.74	5347.9	
246.95	2883.5	
247.16	4538.3	
247.38	4891.2	
247.59	2882.2	
247.8	3372.3	
248.01	4634.6	
248.22	4901.5	
248.43	3112.9	
248.64	3295.2	
248.86	4433.9	
249.07	4726.7	
249.28	3066.5	
249.49	3443.3	
249.7	5356.8	
249.91	5408	
250.12	2869.9	
250.34	2953.9	
250.55	5038	
250.76	4928.1	
250.97	3528.7	
251.18	3530	
251.39	5447.6	
251.6	5137	
251.81	3590.1	
252.03	3475.4	
252.24	4717.8	
252.45	5309	
252.66	2939.5	
252.87	3678.2	
253.08	4976.6	
253.29	6201.9	
253.5	3037.1	
253.72	4062.5	
253.93	4865.3	
254.14	5702.2	
254.35	3213.3	
254.56	3304.1	
254.77	5122	
254.98	4575.8	
255.19	3193.5	
255.41	3984	
255.62	5079.6	
255.83	5408.7	
256.04	3628.3	
256.25	3465.8	
256.46	5932.3	
256.67	4701.5	
256.88	3483.6	
257.09	3800.3	
257.31	4580.6	
257.52	4703.5	
257.73	4261.8	
257.94	3222.8	
258.15	4861.9	
258.36	4924	
258.57	3998.3	
258.78	2624.1	
258.99	5302.9	
259.2	4796.3	
259.41	3230.3	
259.63	3371	
259.84	5617.6	
260.05	5900.9	
260.26	4160.1	
260.47	3132	
260.68	5414.8	
260.89	4863.2	
261.1	3805.8	
261.31	3060.3	
261.52	5458.5	
261.73	5664.7	
261.95	4108.2	
262.16	3627.6	
262.37	5497.4	
262.58	5603.2	
262.79	4100	
263	3265.8	
263.21	4967.7	
263.42	4853.7	
263.63	3344.3	
263.84	3284.9	
264.05	5373.9	
264.26	5628.5	
264.47	3961.5	
264.69	3575.8	
264.9	5555.5	
265.11	5135.6	
265.32	3104	
265.53	3268.6	
265.74	5017.5	
265.95	4407.2	
266.16	3407.1	
266.37	3768.9	
266.58	5077.6	
266.79	4734.2	
267	3198.9	
267.21	3028.9	
267.42	4594.3	
267.63	4894.6	
267.84	3308.2	
268.06	2928.6	
268.27	5317.9	
268.48	5461.9	
268.69	3260.4	
268.9	3835.8	
269.11	5466.7	
269.32	4474.8	
269.53	3344.3	
269.74	3122.5	
269.95	5140.4	
270.16	4433.2	
270.37	3420.1	
270.58	3897.3	
270.79	4823.6	
271	5371.1	
271.21	3550.5	
271.42	3445.4	
271.63	5083.1	
271.84	4629.8	
272.05	2762	
272.26	3061.7	
272.47	4925.4	
272.68	5046.2	
272.89	3257.6	
273.11	3682.9	
273.32	4770.4	
273.53	5628.5	
273.74	3605.1	
273.95	3566.2	
274.16	5421	
274.37	4937.7	
274.58	3667.2	
274.79	2983.2	
275	5076.2	
275.21	5368.4	
275.42	4349.2	
275.63	3808.5	
275.84	5158.8	
276.05	6335.7	
276.26	3513.6	
276.47	3339.6	
276.68	4810	
276.89	5745.9	
277.1	3777.1	
277.31	3021.4	
277.52	5131.5	
277.73	5380	
277.94	2940.9	
278.15	3287	
278.36	5075.5	
278.57	4649.6	
278.78	3276.8	
278.99	3624.2	
279.2	4672.8	
279.41	4586.1	
279.62	4229.7	
279.83	3083.6	
280.04	5928.2	
280.25	4536.3	
280.46	4164.9	
280.67	3414.6	
280.88	4675.5	
281.09	5493.3	
281.3	3579.2	
281.51	4327.4	
281.72	4711	
281.93	5362.3	
282.14	3237.2	
282.35	3388	
282.56	5298.8	
282.77	5282.4	
282.98	3321.8	
283.19	3906.8	
283.4	6386.9	
283.61	4872.1	
283.82	3046.7	
284.03	4087.7	
284.24	5069.4	
284.45	5423.7	
284.66	4156.7	
284.87	3928.7	
285.08	5456.5	
285.29	5509.7	
285.5	2916.3	
285.71	3330	
285.92	5446.9	
286.12	5973.9	
286.33	4083.6	
286.54	3302	
286.75	5365	
286.96	4786.1	
287.17	3037.1	
287.38	4039.3	
287.59	4689.8	
287.8	4681.7	
288.01	3326.6	
288.22	3787.4	
288.43	5298.1	
288.64	4541.7	
288.85	3909.6	
289.06	3715.7	
289.27	5285.1	
289.48	5685.2	
289.69	4152.6	
289.9	3777.8	
290.11	5501.5	
290.32	4686.4	
290.53	3936.9	
290.74	3613.3	
290.94	5252.4	
291.15	5285.8	
291.36	3161.4	
291.57	3736.2	
291.78	4756.7	
291.99	4466.6	
292.2	3102.7	
292.41	3607.2	
292.62	5427.1	
292.83	5220.3	
293.04	4442	
293.25	3121.8	
293.46	4797	
293.67	5385.5	
293.88	3189.4	
294.09	3061	
294.29	4565.6	
294.5	5025.7	
294.71	3414.6	
294.92	3280.8	
295.13	4824.3	
295.34	5825.8	
295.55	2884.2	
295.76	2836.4	
295.97	5325.4	
296.18	5828.5	
296.39	3027.6	
296.6	3168.9	
296.81	4980	
297.01	5293.3	
297.22	3333.4	
297.43	3235.1	
297.64	4710.3	
297.85	4605.9	
298.06	2696.5	
298.27	2899.9	
298.48	4943.1	
298.69	4691.9	
298.9	3448.8	
299.11	3148.4	
299.31	4586.8	
299.52	4552	
299.73	3675.4	
299.94	3624.2	
300.15	4959.5	
300.36	4684.4	
300.57	3579.8	
300.78	3605.8	
300.99	4801.8	
301.2	5038	
301.4	3153.9	
301.61	3420.1	
301.82	5205.9	
302.03	5312.4	
302.24	3843.4	
302.45	3031	
302.66	5188.2	
302.87	5442.8	
303.08	3194.1	
303.29	4231.1	
303.49	4746.5	
303.7	4936.3	
303.91	2879.4	
304.12	4011.3	
304.33	4551.3	
304.54	4988.2	
304.75	3198.2	
304.96	3099.9	
305.16	5183.4	
305.37	5753.4	
305.58	2791.4	
305.79	2910.8	
306	5217.5	
306.21	4413.4	
306.42	3106.1	
306.63	4681.7	
306.83	4792.2	
307.04	5324	
307.25	3572.3	
307.46	3477.5	
307.67	4416.8	
307.88	5268.1	
308.09	3177.8	
308.29	3218.7	
308.5	4939	
308.71	5395.7	
308.92	3476.8	
309.13	3104.7	
309.34	4840.7	
309.55	4883	
309.75	3970.3	
309.96	3568.9	
310.17	5270.1	
310.38	4671.4	
310.59	3765.5	
310.8	2963.4	
311.01	4794.3	
311.21	4853.7	
311.42	3074	
311.63	3161.4	
311.84	4754.7	
312.05	4992.3	
312.26	3572.3	
312.46	3819.5	
312.67	4795.7	
312.88	4497.3	
313.09	3108.8	
313.3	3010.5	
313.51	5597.1	
313.71	5866.1	
313.92	3089	
314.13	3287	
314.34	5126.1	
314.55	4869.4	
314.76	3916.4	
314.96	3396.9	
315.17	5068	
315.38	5236.7	
315.59	3130.7	
315.8	2997.5	
316.01	5681.1	
316.21	5694.7	
316.42	3030.3	
316.63	3406.5	
316.84	4819.6	
317.05	5453.7	
317.26	3574.4	
317.46	3266.5	
317.67	4871.4	
317.88	5264.6	
318.09	3905.5	
318.3	2886.3	
318.5	4704.9	
318.71	5134.9	
318.92	4795	
319.13	3593.5	
319.34	5345.9	
319.54	5407.3	
319.75	2868.5	
319.96	2765.4	
320.17	5204.6	
320.38	5395.7	
320.58	2853.5	
320.79	3399.6	
321	5427.1	
321.21	5482.4	
321.42	3376.4	
321.62	2871.3	
321.83	4646.8	
322.04	4990.9	
322.25	3257.6	
322.46	3124.5	
322.66	5076.9	
322.87	5184.1	
323.08	3806.5	
323.29	3056.9	
323.5	5842.9	
323.7	4544.4	
323.91	4119.1	
324.12	3779.2	
324.33	5036.6	
324.53	5223	
324.74	3615.3	
324.95	3779.9	
325.16	4484.4	
325.37	4829.8	
325.57	3095.2	
325.78	3147.7	
325.99	5025.7	
326.2	4577.9	
326.4	4391.5	
326.61	2932.7	
326.82	4883.7	
327.03	5066	
327.24	4313.7	
327.44	4081.6	
327.65	5219.6	
327.86	4280.9	
328.07	3548.4	
328.27	2951.1	
328.48	5487.2	
328.69	4560.8	
328.9	4325.3	
329.1	3312.2	
329.31	4846.2	
329.52	5595.1	
329.73	3094.5	
329.93	3444.7	
330.14	4976.6	
330.35	5095.3	
330.56	4920.6	
330.76	3776.5	
330.97	4763.6	
331.18	5020.3	
331.39	3447.4	
331.59	2813.9	
331.8	5419.6	
332.01	5524.7	
332.22	3212.6	
332.42	3589.4	
332.63	4992.9	
332.84	4679.6	
333.05	3450.1	
333.25	3197.6	
333.46	4726.7	
333.67	4939	
333.88	3217.4	
334.08	3553.9	
334.29	6406.7	
334.5	5466	
334.7	3020.1	
334.91	4288.4	
335.12	4544.4	
335.33	5229.8	
335.53	3405.8	
335.74	4878.9	
335.95	4719.9	
336.16	4618.9	
336.36	3397.6	
336.57	3879.5	
336.78	4519.9	
336.98	5449.6	
337.19	4178.5	
337.4	3343	
337.61	5877	
337.81	4552.6	
338.02	3147.7	
338.23	3989.4	
338.43	5550.7	
338.64	4664.6	
338.85	3116.3	
339.05	4014.7	
339.26	5669.5	
339.47	4519.9	
339.68	3121.8	
339.88	4412	
340.09	5135.6	
340.3	5323.4	
340.5	3568.9	
340.71	2805	
340.92	4560.8	
341.13	5510.4	
341.33	3018	
341.54	3573	
341.75	5149.3	
341.95	4799.8	
342.16	3439.2	
342.37	3777.1	
342.57	4543.8	
342.78	4917.2	
342.99	3767.6	
343.19	2820.7	
343.4	5274.2	
343.61	5102.2	
343.81	3338.2	
344.02	3080.8	
344.23	5326.8	
344.43	5556.8	
344.64	3800.3	
344.85	3727.3	
345.06	5180	
345.26	5466	
345.47	3556	
345.68	4147.8	
345.88	4414.1	
346.09	5330.9	
346.3	3601.7	
346.5	2764.8	
346.71	4915.8	
346.92	4780.6	
347.12	2949.8	
347.33	3525.2	
347.54	5394.3	
347.74	5702.9	
347.95	3532.7	
348.16	2686.9	
348.36	4773.8	
348.57	4616.8	
348.78	3551.2	
348.98	3790.1	
349.19	4906.3	
349.39	4424.3	
349.6	2899.2	
349.81	3157.3	
350.01	5151.3	
350.22	4639.3	
350.43	3407.8	
350.63	4089.1	
350.84	4937	
351.05	4729.4	
351.25	3115.6	
351.46	2874.7	
351.67	5381.4	
351.87	4606.6	
352.08	3311.6	
352.29	3727.3	
352.49	5300.1	
352.7	5010	
352.9	3003.7	
353.11	3706.8	
353.32	5778.7	
353.52	4739	
353.73	2986.6	
353.94	3722.5	
354.14	5158.8	
354.35	4962.2	
354.55	3053.5	
354.76	3409.2	
354.97	5184.1	
355.17	4899.4	
355.38	2970.9	
355.59	3941	
355.79	4614.8	
356	4999.8	
356.2	3379.8	
356.41	2931.3	
356.62	4432.5	
356.82	4801.8	
357.03	3633.1	
357.24	3246	
357.44	4624.3	
357.65	4679.6	
357.85	4253.6	
358.06	3422.2	
358.27	4380.6	
358.47	4573.8	
358.68	2884.9	
358.88	3582.6	
359.09	5096.7	
359.3	5366.4	
359.5	4066.6	
359.71	3656.3	
359.91	5704.3	
360.12	5109.7	
360.33	3594.9	
360.53	3934.8	
360.74	4640.7	
360.94	4700.1	
361.15	3752.6	
361.36	3097.9	
361.56	5273.5	
361.77	4827.7	
361.97	4084.3	
362.18	3308.2	
362.38	5273.5	
362.59	4468	
362.8	3076.7	
363	2953.2	
363.21	4347.8	
363.41	4891.2	
363.62	3435.1	
363.83	4211.3	
364.03	5027.1	
364.24	5657.9	
364.44	4468	
364.65	4351.3	
364.85	4722.6	
365.06	4506.9	
365.27	3181.2	
365.47	3227.6	
365.68	5575.9	
365.88	4770.4	
366.09	3470.6	
366.29	3247.4	
366.5	4931.5	
366.71	5307.7	
366.91	4328.7	
367.12	3657.7	
367.32	5774.6	
367.53	5173.2	
367.73	3624.2	
367.94	4415.4	
368.14	5111.7	
368.35	5837.4	
368.56	3489.1	
368.76	3333.4	
368.97	5244.2	
369.17	6543.3	
369.38	3172.3	
369.58	3383.9	
369.79	4435.2	
369.99	5531.6	
370.2	4248.9	
370.4	3472.7	
370.61	5027.1	
370.82	5972.6	
371.02	3424.9	
371.23	2848	
371.43	4378.6	
371.64	5461.9	
371.84	3407.1	
372.05	4371.7	
372.25	6487.3	
372.46	5217.5	
372.66	3395.5	
372.87	3353.2	
373.07	5246.9	
373.28	6552.1	
373.48	4246.1	
373.69	3898	
373.9	4795	
374.1	4856.4	
374.31	4085	
374.51	3719.1	
374.72	5515.9	
374.92	4616.8	
375.13	4229.7	
375.33	3633.1	
375.54	5035.3	
375.74	4648.2	
375.95	3685.7	
376.15	4728.1	
376.36	5113.8	
376.56	5009.3	
376.77	3674.7	
376.97	4003.8	
377.18	5967.8	
377.38	5175.2	
377.59	4252.3	
377.79	3284.9	
378	4985.4	
378.2	5350.7	
378.41	3327.3	
378.61	3241.3	
378.82	5435.3	
379.02	4689.8	
379.23	3478.1	
379.43	4305.5	
379.64	5550	
379.84	5073.5	
380.05	3288.4	
380.25	3269.9	
380.46	5242.8	
380.66	4890.5	
380.87	4408.6	
381.07	4732.2	
381.28	5782.8	
381.48	5211.4	
381.69	3355.9	
381.89	3407.1	
382.1	4386.1	
382.3	5323.4	
382.51	4256.4	
382.71	5046.2	
382.91	5205.3	
383.12	5630.5	
383.32	3666.5	
383.53	3835.8	
383.73	5176.6	
383.94	4973.8	
384.14	3799	
384.35	3065.1	
384.55	4873.5	
384.76	5181.4	
384.96	3654.9	
385.17	3901.4	
385.37	5221.6	
385.58	4672.1	
385.78	3933.5	
385.98	3060.3	
386.19	4867.3	
386.39	5167	
386.6	3450.8	
386.8	3664.5	
387.01	5169.1	
387.21	5313.8	
387.42	3953.9	
387.62	4420.9	
387.83	4698	
388.03	5113.1	
388.23	3676.1	
388.44	4310.3	
388.64	4481.6	
388.85	4484.4	
389.05	3936.2	
389.26	4453.6	
389.46	6130.3	
389.67	5558.2	
389.87	3921.9	
390.07	3889.8	
390.28	4872.1	
390.48	4547.9	
390.69	3268.6	
390.89	3530	
391.1	4790.2	
391.3	5452.4	
391.5	4523.3	
391.71	4959.5	
391.91	5289.9	
392.12	5961.6	
392.32	4595	
392.53	3859.7	
392.73	4808.6	
392.93	4946.5	
393.14	3694.5	
393.34	4325.3	
393.55	5380.7	
393.75	4780.6	
393.95	3665.9	
394.16	3632.4	
394.36	4758.1	
394.57	5343.2	
394.77	3304.7	
394.98	3563.5	
395.18	4700.8	
395.38	4859.8	
395.59	4274.8	
395.79	3415.3	
396	4822.3	
396.2	5236.7	
396.4	4109.6	
396.61	4035.2	
396.81	5356.8	
397.02	4737.6	
397.22	4259.1	
397.42	4308.9	
397.63	5325.4	
397.83	4620.2	
398.04	3421.5	
398.24	3799.7	
398.44	5118.6	
398.65	4354.7	
398.85	3306.8	
399.05	3284.9	
399.26	4651.6	
399.46	6036	
399.67	3685.7	
399.87	3487	
400.07	4981.3	
400.28	5192.3	
400.48	3513.6	
400.69	4299.4	
400.89	5360.2	
401.09	5791	
401.3	3392.1	
401.5	4319.8	
401.7	5915.9	
401.91	6154.1	
402.11	3730.7	
402.32	3913	
402.52	5408	
402.72	5382.7	
402.93	4125.3	
403.13	3205.8	
403.33	6040.1	
403.54	4983.4	
403.74	3816.7	
403.94	4570.4	
404.15	5111	
404.35	5978.7	
404.56	3696.6	
404.76	5113.1	
404.96	5455.8	
405.17	5190.9	
405.37	4740.4	
405.57	4026.3	
405.78	5469.4	
405.98	4982.7	
406.18	3678.2	
406.39	4369.7	
406.59	5451	
406.79	5035.3	
407	3480.9	
407.2	3521.8	
407.4	5486.5	
407.61	5543.2	
407.81	3567.6	
408.01	5470.8	
408.22	4538.3	
408.42	6175.3	
408.62	4418.8	
408.83	3949.8	
409.03	5044.1	
409.23	4900.1	
409.44	4003.1	
409.64	4193.6	
409.84	5782.1	
410.05	5742.5	
410.25	4070	
410.45	3907.5	
410.66	5261.2	
410.86	7316.7	
411.06	4205.8	
411.27	4086.4	
411.47	7041.6	
411.67	5370.5	
411.88	4354	
412.08	4497.3	
412.28	5907.7	
412.49	6278.4	
412.69	4092.5	
412.89	4146.5	
413.09	6170.5	
413.3	6079.1	
413.5	4224.3	
413.7	3874.1	
413.91	5468.1	
414.11	6106.4	
414.31	4045.4	
414.52	4353.3	
414.72	5872.2	
414.92	5771.9	
415.12	4036.5	
415.33	4493.2	
415.53	6092	
415.73	6195.8	
415.94	4762.9	
416.14	4291.9	
416.34	5321.3	
416.55	5088.5	
416.75	5259.9	
416.95	4783.4	
417.15	6070.9	
417.36	6690	
417.56	5386.8	
417.76	4615.4	
417.97	6402	
418.17	6120.7	
418.37	4346.5	
418.57	4373.1	
418.78	5972.6	
418.98	5698.8	
419.18	5004.6	
419.38	5039.4	
419.59	5754.8	
419.79	5461.2	
419.99	4334.9	
420.2	4584.7	
420.4	6169.2	
420.6	6204	
420.8	4212.7	
421.01	4123.9	
421.21	5958.2	
421.41	6115.9	
421.61	4508.3	
421.82	4292.5	
422.02	5626.5	
422.22	6353.5	
422.42	4917.2	
422.63	4647.5	
422.83	5696.8	
423.03	6604	
423.23	4655	
423.44	3838.6	
423.64	5715.9	
423.84	5466.7	
424.04	4270.7	
424.25	3954.6	
424.45	6546	
424.65	6413.6	
424.85	3799	
425.06	4278.2	
425.26	6549.4	
425.46	5591	
425.66	4656.4	
425.87	4428.4	
426.07	6324.1	
426.27	6129.6	
426.47	4540.3	
426.67	3954.6	
426.88	6593.1	
427.08	6120.7	
427.28	4687.8	
427.48	3979.9	
427.69	5242.8	
427.89	5798.5	
428.09	4653.7	
428.29	4006.5	
428.5	6351.4	
428.7	5913.2	
428.9	3943	
429.1	4304.1	
429.3	5890	
429.51	6225.8	
429.71	4207.9	
429.91	4822.3	
430.11	6133.7	
430.31	6285.2	
430.52	4441.4	
430.72	4577.9	
430.92	6567.8	
431.12	6101.6	
431.32	4149.9	
431.53	4502.8	
431.73	5225.1	
431.93	6540.5	
432.13	4045.4	
432.33	3930.1	
432.54	5614.2	
432.74	5825.8	
432.94	3926	
433.14	4851	
433.34	6119.3	
433.55	5710.4	
433.75	4717.8	
433.95	6059.9	
434.15	5916.6	
434.35	5668.1	
434.56	4047.5	
434.76	3652.2	
434.96	5892	
435.16	6042.9	
435.36	3966.9	
435.56	4878.3	
435.77	5600.5	
435.97	5744.6	
436.17	5440.8	
436.37	4836.6	
436.57	5550	
436.78	5487.9	
436.98	6313.2	
437.18	5345.9	
437.38	6096.8	
437.58	5706.3	
437.78	5400.5	
437.99	4300.1	
438.19	6211.5	
438.39	6787	
438.59	4302.8	
438.79	3911.6	
438.99	6737.8	
439.2	5715.2	
439.4	3953.9	
439.6	3895.9	
439.8	5909.1	
440	6757.6	
440.2	4739.7	
440.4	4866	
440.61	6309.1	
440.81	6665.5	
441.01	4096.6	
441.21	4761.5	
441.41	6566.5	
441.61	6246.3	
441.81	5089.9	
442.02	5890	
442.22	7054.6	
442.42	6365.8	
442.62	4158.1	
442.82	4117.1	
443.02	6594.5	
443.22	5894.7	
443.43	4511	
443.63	4093.2	
443.83	5769.1	
444.03	5742.5	
444.23	5162.2	
444.43	4827.1	
444.63	6035.4	
444.83	6990.4	
445.04	4238.6	
445.24	5303.6	
445.44	6365.1	
445.64	6436.1	
445.84	4966.3	
446.04	4898.7	
446.24	5804.6	
446.44	6685.9	
446.65	4224.3	
446.85	4529.4	
447.05	6105.7	
447.25	6645.7	
447.45	4647.5	
447.65	4113.7	
447.85	6089.3	
448.05	5784.8	
448.25	4995.7	
448.46	4804.5	
448.66	6101.6	
448.86	5763	
449.06	4031.1	
449.26	4972.5	
449.46	6348.7	
449.66	5566.4	
449.86	4583.4	
450.06	4506.9	
450.26	5782.1	
450.47	6232.7	
450.67	4827.7	
450.87	5003.2	
451.07	6356.2	
451.27	6096.1	
451.47	4255	
451.67	4625	
451.87	5843.5	
452.07	6771.3	
452.27	4440	
452.47	4385.4	
452.67	6146	
452.88	6524.1	
453.08	3880.9	
453.28	5459.2	
453.48	7032	
453.68	6037.4	
453.88	4278.9	
454.08	4501.4	
454.28	6348.7	
454.48	6026.5	
454.68	4900.8	
454.88	5279	
455.08	6453.8	
455.28	6207.4	
455.48	4193.6	
455.68	4626.4	
455.89	6804	
456.09	6537.8	
456.29	4423.6	
456.49	4511.7	
456.69	6595.8	
456.89	6232	
457.09	4941.1	
457.29	5197.1	
457.49	6356.2	
457.69	6440.9	
457.89	4801.8	
458.09	4323.3	
458.29	6208.8	
458.49	6722.1	
458.69	5061.9	
458.89	4615.4	
459.09	6930.3	
459.29	7073.7	
459.49	4713.7	
459.69	5304.2	
459.9	6611.5	
460.1	6094.1	
460.3	4638	
460.5	4478.2	
460.7	6513.2	
460.9	6230.6	
461.1	4169	
461.3	5201.2	
461.5	6993.1	
461.7	6702.3	
461.9	4559.5	
462.1	4846.2	
462.3	6262	
462.5	6704.4	
462.7	4551.3	
462.9	4556.7	
463.1	7634.1	
463.3	7283.3	
463.5	4741	
463.7	5450.3	
463.9	6496.8	
464.1	6754.2	
464.3	4919.2	
464.5	5071.5	
464.7	7006.8	
464.9	6584.9	
465.1	6154.8	
465.3	5285.1	
465.5	7240.3	
465.7	7229.3	
465.9	5557.5	
466.1	5424.4	
466.3	7005.4	
466.5	6938.5	
466.7	6094.8	
466.9	5206.6	
467.1	6924.9	
467.3	7621.9	
467.5	6016.9	
467.7	5096	
467.9	7829.4	
468.1	8415.1	
468.3	5835.3	
468.5	6107	
468.7	6853.2	
468.9	6849.1	
469.1	5436.7	
469.3	5923.4	
469.5	8488.8	
469.7	6533.7	
469.9	5780.1	
470.1	5201.8	
470.3	6894.8	
470.5	6928.3	
470.7	6256.5	
470.9	5261.2	
471.1	6713.9	
471.3	7166.5	
471.5	5140.4	
471.69	6685.9	
471.89	6679.1	
472.09	6255.9	
472.29	5790.3	
472.49	6053.1	
472.69	6482.5	
472.89	7042.3	
473.09	5124.7	
473.29	5105.6	
473.49	6588.3	
473.69	6705	
473.89	5901.6	
474.09	5313.1	
474.29	7763.2	
474.49	7413.6	
474.69	5858.6	
474.89	5433.9	
475.09	6701.6	
475.29	6649.1	
475.49	4928.8	
475.69	5119.2	
475.88	8006.2	
476.08	7062.1	
476.28	4853	
476.48	5305.6	
476.68	7370	
476.88	7193.1	
477.08	5141.1	
477.28	5416.2	
477.48	6822.5	
477.68	7307.2	
477.88	4961.5	
478.08	5236.7	
478.28	7588.4	
478.48	6917.4	
478.67	5341.8	
478.87	4835.9	
479.07	7393.8	
479.27	6991.8	
479.47	5466	
479.67	5508.4	
479.87	7320.1	
480.07	7688.8	
480.27	4924	
480.47	6207.4	
480.67	7004.7	
480.87	7524.9	
481.06	5128.8	
481.26	5844.9	
481.46	6938.5	
481.66	6930.3	
481.86	5570.5	
482.06	6239.5	
482.26	6732.4	
482.46	7413.6	
482.66	5369.8	
482.86	5100.8	
483.05	7045.7	
483.25	6473.6	
483.45	7457.3	
483.65	5439.4	
483.85	6610.2	
484.05	6822.5	
484.25	5836.7	
484.45	6090	
484.65	7576.8	
484.84	7569.3	
485.04	5416.2	
485.24	5306.3	
485.44	7901.7	
485.64	6415.6	
485.84	4784.1	
486.04	5895.4	
486.24	6855.2	
486.44	7072.3	
486.63	4742.4	
486.83	5373.9	
487.03	6723.5	
487.23	6859.3	
487.43	4902.8	
487.63	6756.2	
487.83	6929.6	
488.02	7679.9	
488.22	5593.7	
488.42	6151.4	
488.62	7517.4	
488.82	6748.7	
489.02	5362.9	
489.22	5285.1	
489.41	7542	
489.61	7230	
489.81	5112.4	
490.01	5215.5	
490.21	7474.4	
490.41	8062.9	
490.61	5183.4	
490.8	5255.8	
491	7019.8	
491.2	6559.6	
491.4	5782.1	
491.6	5070.8	
491.8	7116.7	
491.99	7165.2	
492.19	4878.3	
492.39	5212.1	
492.59	7477.8	
492.79	7382.2	
492.99	5823.7	
493.18	5071.5	
493.38	7504.4	
493.58	8038.3	
493.78	5657.9	
493.98	5378.6	
494.18	7260.7	
494.37	6764.4	
494.57	5844.2	
494.77	5748	
494.97	7462.8	
495.17	7611.6	
495.37	5511.8	
495.56	5673.6	
495.76	7821.9	
495.96	7520.8	
496.16	6487.3	
496.36	5575.3	
496.55	7658	
496.75	7266.9	
496.95	5928.2	
497.15	5761.6	
497.35	7661.5	
497.54	7593.2	
497.74	5629.9	
497.94	7025.9	
498.14	8312	
498.34	8032.1	
498.53	5378.6	
498.73	5960.3	
498.93	7050.5	
499.13	7653.3	
499.33	5922	
499.52	6204	
499.72	7611.6	
499.92	7826	
500.12	5599.8	
500.32	5838.8	
500.51	7828.7	
500.71	7596.6	
500.91	6431.3	
501.11	6201.2	
501.31	7742.7	
501.5	8090.8	
501.7	6774.7	
501.9	5915.9	
502.1	7600.7	
502.29	7883.3	
502.49	6254.5	
502.69	6693.4	
502.89	7785	
503.09	7821.2	
503.28	5522.7	
503.48	5661.3	
503.68	7185	
503.88	7201.3	
504.07	6393.1	
504.27	5988.9	
504.47	7481.9	
504.67	7685.3	
504.86	6325.5	
505.06	6023.8	
505.26	7338.6	
505.46	8740.7	
505.65	6043.6	
505.85	6270.9	
506.05	7245	
506.25	7643.7	
506.44	5476.3	
506.64	6264.7	
506.84	7194.5	
507.04	7881.3	
507.23	5627.8	
507.43	6090.7	
507.63	8773.5	
507.83	7348.1	
508.02	6112.5	
508.22	5813.5	
508.42	8955.8	
508.62	7221.1	
508.81	5984.2	
509.01	6396.5	
509.21	7103	
509.4	7342	
509.6	6144.6	
509.8	5662	
510	7207.5	
510.19	8426	
510.39	5694	
510.59	5724.8	
510.79	7137.9	
510.98	8216.5	
511.18	5839.4	
511.38	5810.8	
511.57	7952.3	
511.77	7679.2	
511.97	6449.7	
512.17	5638.1	
512.36	7832.1	
512.56	7740	
512.76	5711.1	
512.95	5439.4	
513.15	8010.3	
513.35	6767.9	
513.55	6350.8	
513.74	5550	
513.94	7948.8	
514.14	7337.2	
514.33	6494.8	
514.53	6263.4	
514.73	7379.5	
514.92	7501	
515.12	5739.8	
515.32	5744.6	
515.51	7592.5	
515.71	7998	
515.91	7083.2	
516.11	5688.6	
516.3	8997.4	
516.5	7273.7	
516.7	6201.9	
516.89	6666.8	
517.09	7359	
517.29	7288	
517.48	6518.7	
517.68	5969.8	
517.88	7063.4	
518.07	7670.3	
518.27	6392.4	
518.47	5625.1	
518.66	8161.8	
518.86	7034.1	
519.06	5438	
519.25	5837.4	
519.45	7320.1	
519.65	8451.3	
519.84	6425.8	
520.04	7002	
520.24	8828.1	
520.43	7903.8	
520.63	6155.5	
520.83	5976.7	
521.02	7251.2	
521.22	7808.9	
521.42	6350.1	
521.61	6815	
521.81	7523.6	
522.01	7571.3	
522.2	6283.9	
522.4	6096.8	
522.6	7993.9	
522.79	7025.9	
522.99	6128.2	
523.18	5544.5	
523.38	7767.9	
523.58	7771.4	
523.77	7195.9	
523.97	5607.3	
524.17	9273.2	
524.36	8615.1	
524.56	6697.5	
524.76	6394.4	
524.95	7734.5	
525.15	7528.3	
525.34	6286.6	
525.54	6288.6	
525.74	8088.1	
525.93	7276.4	
526.13	7278.5	
526.33	6302.3	
526.52	8482	
526.72	7952.3	
526.91	7352.2	
527.11	6710.5	
527.31	8359.8	
527.5	8781.7	
527.7	6670.9	
527.89	5859.9	
528.09	7677.8	
528.29	8009.6	
528.48	6984.3	
528.68	6702.3	
528.87	8399.4	
529.07	8448.6	
529.27	6644.3	
529.46	6382.2	
529.66	8183.7	
529.85	8537.3	
530.05	6281.1	
530.25	6894.8	
530.44	9285.5	
530.64	8131.1	
530.83	6589	
531.03	6715.3	
531.23	8640.4	
531.42	8322.9	
531.62	7315.3	
531.81	6686.6	
532.01	8595.3	
532.21	8837	
532.4	6558.3	
532.6	6820.4	
532.79	9395.4	
532.99	8673.1	
533.18	6864.1	
533.38	7743.4	
533.58	8303.8	
533.77	8910.7	
533.97	6939.2	
534.16	7618.4	
534.36	9175.6	
534.55	8395.3	
534.75	7738.6	
534.95	7012.2	
535.14	9089.6	
535.34	8412.4	
535.53	6769.2	
535.73	8301.8	
535.92	9566.1	
536.12	8569.4	
536.31	6843.6	
536.51	7927	
536.71	8862.9	
536.9	8469.7	
537.1	6968.6	
537.29	7136.5	
537.49	9174.2	
537.68	8378.9	
537.88	7324.9	
538.07	6753.5	
538.27	8729.1	
538.46	9454.8	
538.66	6724.2	
538.86	6998.6	
539.05	8712.7	
539.25	8969.4	
539.44	7286.7	
539.64	7003.4	
539.83	8534.6	
540.03	9388.6	
540.22	6815	
540.42	6982.9	
540.61	8834.3	
540.81	8880.7	
541	7332.4	
541.2	7840.3	
541.39	8421.9	
541.59	8799.4	
541.78	7624.6	
541.98	6916	
542.18	8220.5	
542.37	8173.4	
542.57	7326.3	
542.76	7601.4	
542.96	8246.5	
543.15	8839.7	
543.35	7342	
543.54	6691.4	
543.74	8993.3	
543.93	8794	
544.13	7189.7	
544.32	8142.7	
544.52	8905.9	
544.71	8333.2	
544.91	6523.5	
545.1	7466.9	
545.3	8406.2	
545.49	8778.3	
545.69	6480.5	
545.88	7032.7	
546.08	9629.5	
546.27	9317.6	
546.47	7396.6	
546.66	6802.7	
546.86	9012.4	
547.05	9508	
547.24	6950.1	
547.44	6821.8	
547.63	8273.8	
547.83	9090.9	
548.02	7182.9	
548.22	7307.2	
548.41	8077.9	
548.61	9125.1	
548.8	6827.9	
549	6772.6	
549.19	8705.2	
549.39	8959.2	
549.58	6567.2	
549.78	7088	
549.97	8998.1	
550.17	8504.5	
550.36	7779.6	
550.55	8542.8	
550.75	8441.7	
550.94	9226.8	
551.14	6680.5	
551.33	7073	
551.53	7866.2	
551.72	8752.3	
551.92	7055.3	
552.11	6913.3	
552.31	8908	
552.5	8929.1	
552.69	8224	
552.89	6642.2	
553.08	8726.4	
553.28	8533.9	
553.47	6954.2	
553.67	7831.4	
553.86	9310.1	
554.06	7944.8	
554.25	6229.2	
554.44	6753.5	
554.64	10034	
554.83	9516.9	
555.03	6731	
555.22	6961.7	
555.42	8955.8	
555.61	8728.4	
555.8	6955.6	
556	7135.8	
556.19	8032.1	
556.39	9028.1	
556.58	6889.4	
556.78	6874.3	
556.97	8637	
557.16	8338	
557.36	7806.2	
557.55	6564.4	
557.75	7784.3	
557.94	9192.6	
558.13	6684.6	
558.33	6550.8	
558.52	9126.4	
558.72	8153	
558.91	6628.6	
559.1	6831.3	
559.3	7914.7	
559.49	7706.5	
559.69	6300.9	
559.88	7061.4	
560.07	8609.7	
560.27	8933.2	
560.46	7222.5	
560.66	7364.5	
560.85	8434.2	
561.04	7744.7	
561.24	6485.2	
561.43	6696.2	
561.63	7947.5	
561.82	8211	
562.01	7678.5	
562.21	6944	
562.4	8525	
562.59	9217.2	
562.79	6822.5	
562.98	6499.6	
563.18	8434.9	
563.37	9722.4	
563.56	7180.9	
563.76	6511.9	
563.95	8043.7	
564.14	8052.6	
564.34	6879.1	
564.53	6537.8	
564.73	8539.3	
564.92	8785.1	
565.11	6925.5	
565.31	6449.7	
565.5	8976.2	
565.69	8039	
565.89	6638.1	
566.08	6929.6	
566.27	8786.5	
566.47	9104.6	
566.66	7378.1	
566.85	6342.6	
567.05	8537.3	
567.24	8080.6	
567.44	6586.3	
567.63	7664.9	
567.82	8736	
568.02	8497	
568.21	6606.1	
568.4	6815	
568.6	8464.9	
568.79	8312.7	
568.98	6477	
569.18	6507.1	
569.37	8437.6	
569.56	9992	
569.76	6879.1	
569.95	7649.8	
570.14	8585.1	
570.34	8566	
570.53	6500.3	
570.72	6470.9	
570.91	8989.9	
571.11	8363.2	
571.3	6909.2	
571.49	7613	
571.69	8439.7	
571.88	8016.4	
572.07	7287.4	
572.27	7217.7	
572.46	7923.6	
572.65	8827.4	
572.85	6718.7	
573.04	6868.2	
573.23	8987.2	
573.43	8338	
573.62	6475	
573.81	6890.7	
574	8441.7	
574.2	8253.3	
574.39	6824.5	
574.58	6840.9	
574.78	9082.1	
574.97	8445.8	
575.16	7170.6	
575.36	7307.2	
575.55	8839	
575.74	8952.4	
575.93	6428.6	
576.13	7295.5	
576.32	8357.8	
576.51	8913.4	
576.71	6868.2	
576.9	7948.2	
577.09	9131.2	
577.28	8690.9	
577.48	7219.1	
577.67	6455.2	
577.86	8475.9	
578.05	8629.5	
578.25	6923.5	
578.44	6979.5	
578.63	8478.6	
578.83	9415.9	
579.02	6402	
579.21	7705.8	
579.4	8631.5	
579.6	8381	
579.79	7118.1	
579.98	8836.3	
580.17	8965.3	
580.37	8965.3	
580.56	6653.2	
580.75	7153.6	
580.94	9313.5	
581.14	9263.6	
581.33	7556.3	
581.52	6697.5	
581.71	8744.8	
581.91	9278	
582.1	6411.5	
582.29	6968.6	
582.48	8565.3	
582.68	8441	
582.87	7308.5	
583.06	7012.9	
583.25	8779.6	
583.45	8452.6	
583.64	7579.5	
583.83	8108.6	
584.02	8475.9	
584.21	8805.6	
584.41	7552.9	
584.6	6980.2	
584.79	8541.4	
584.98	9099.8	
585.18	6509.1	
585.37	6593.1	
585.56	8235.6	
585.75	8791.9	
585.94	6745.3	
586.14	7313.3	
586.33	9262.3	
586.52	8454.7	
586.71	7069.6	
586.91	6959.7	
587.1	8020.5	
587.29	8883.4	
587.48	6851.8	
587.67	6770.6	
587.87	8660.9	
588.06	8646.5	
588.25	7842.4	
588.44	7234.8	
588.63	8404.9	
588.83	8952.4	
589.02	6897.6	
589.21	6681.8	
589.4	8310.7	
589.59	8205.5	
589.78	6227.9	
589.98	6366.5	
590.17	7873.1	
590.36	8189.8	
590.55	5826.5	
590.74	6443.6	
590.94	9256.8	
591.13	8086.7	
591.32	6346.7	
591.51	5920	
591.7	8447.2	
591.89	8054	
592.09	5967.8	
592.28	6365.8	
592.47	7381.6	
592.66	9057.5	
592.85	6024.4	
593.05	6189	
593.24	7877.9	
593.43	8620.6	
593.62	6240.8	
593.81	6705	
594	7951.6	
594.19	8144.8	
594.39	6162.3	
594.58	6129.6	
594.77	8214.4	
594.96	8657.4	
595.15	6141.2	
595.34	6662	
595.54	8164.6	
595.73	7558.4	
595.92	5584.1	
596.11	6450.4	
596.3	8743.5	
596.49	7583.6	
596.68	6314.6	
596.88	6619.7	
597.07	8311.3	
597.26	7477.8	
597.45	5906.3	
597.64	6868.2	
597.83	7694.9	
598.02	8127	
598.22	6057.2	
598.41	6584.9	
598.6	7945.4	
598.79	7477.1	
598.98	6098.9	
599.17	6821.8	
599.36	7950.9	
599.55	8944.2	
599.74	7574.8	
599.94	7530.4	
600.13	8470.4	
600.32	7533.8	
600.51	5845.6	
600.7	5851.7	
600.89	8978.3	
601.08	8932.6	
601.27	5770.5	
601.47	6497.5	
601.66	8348.9	
601.85	8888.9	
602.04	6311.2	
602.23	6492.7	
602.42	7576.1	
602.61	8125	
602.8	6236.7	
602.99	6036	
603.18	7801.4	
603.37	8015.1	
603.57	6637.5	
603.76	7058.7	
603.95	8645.2	
604.14	8258.8	
604.33	6093.4	
604.52	6277.7	
604.71	8004.1	
604.9	7712.7	
605.09	6853.9	
605.28	6741.2	
605.47	8462.9	
605.66	8230.1	
605.86	6615.6	
606.05	6107	
606.24	8540.7	
606.43	7345.4	
606.62	6402	
606.81	7011.6	
607	8353.7	
607.19	7810.3	
607.38	5883.8	
607.57	6086.6	
607.76	7621.9	
607.95	7161.7	
608.14	6468.9	
608.33	6911.9	
608.52	7605.5	
608.72	8331.8	
608.91	5708.4	
609.1	5780.7	
609.29	7669.6	
609.48	7316.7	
609.67	6534.4	
609.86	5760.3	
610.05	7298.3	
610.24	7617.1	
610.43	5724.8	
610.62	5397.1	
610.81	8558.5	
611	8303.1	
611.19	5795.1	
611.38	6337.1	
611.57	7890.8	
611.76	8905.3	
611.95	5541.1	
612.14	5477	
612.33	7651.9	
612.52	7390.4	
612.71	6081.8	
612.9	5440.1	
613.09	7043.6	
613.28	8897.1	
613.47	6025.1	
613.66	6496.8	
613.85	7784.3	
614.04	7404.8	
614.24	5941.2	
614.43	5277.6	
614.62	7899.7	
614.81	7791.2	
615	6367.8	
615.19	6348	
615.38	7283.9	
615.57	7692.9	
615.76	6204	
615.95	6978.8	
616.14	7871.7	
616.33	7705.1	
616.52	6427.2	
616.71	6598.6	
616.9	7890.1	
617.09	7695.6	
617.28	5922.7	
617.47	6903	
617.66	7092.8	
617.85	7176.1	
618.04	6701	
618.22	6180.8	
618.41	7385.7	
618.6	8092.9	
618.79	6174.6	
618.98	5909.8	
619.17	8341.4	
619.36	7000	
619.55	6001.2	
619.74	6127.5	
619.93	7791.8	
620.12	7314	
620.31	6597.9	
620.5	6595.1	
620.69	8275.2	
620.88	8613.8	
621.07	7197.9	
621.26	6343.9	
621.45	7946.1	
621.64	7969.3	
621.83	6482.5	
622.02	5898.1	
622.21	8103.1	
622.4	7847.8	
622.59	6998.6	
622.78	6826.6	
622.97	7477.8	
623.16	8264.2	
623.35	6615.6	
623.54	5821.7	
623.72	7742	
623.91	7780.9	
624.1	6761	
624.29	5685.8	
624.48	8706.6	
624.67	8026	
624.86	6531.7	
625.05	5914.5	
625.24	8754.4	
625.43	7482.6	
625.62	7972.7	
625.81	5967.1	
626	8225.3	
626.19	7740	
626.38	6600.6	
626.56	6162.3	
626.75	7592.5	
626.94	8189.1	
627.13	6690.7	
627.32	5670.1	
627.51	8131.8	
627.7	9083.4	
627.89	5815.5	
628.08	6702.3	
628.27	7432.1	
628.46	7622.5	
628.65	6004.6	
628.83	5737	
629.02	8105.9	
629.21	7506.5	
629.4	6326.2	
629.59	6502.3	
629.78	7494.9	
629.97	8264.2	
630.16	6522.8	
630.35	6070.9	
630.54	8647.2	
630.72	8384.4	
630.91	6028.5	
631.1	6488	
631.29	7981.6	
631.48	7990.5	
631.67	6674.3	
631.86	6200.6	
632.05	7594.6	
632.24	7628.7	
632.42	6013.5	
632.61	6436.1	
632.8	7694.9	
632.99	7483.3	
633.18	6450.4	
633.37	6727.6	
633.56	7946.1	
633.75	7865.6	
633.93	6362.4	
634.12	6130.3	
634.31	8680.7	
634.5	8289.5	
634.69	6155.5	
634.88	6583.5	
635.07	7770	
635.25	8198	
635.44	6968.6	
635.63	7006.8	
635.82	7664.2	
636.01	7131.7	
636.2	6805.4	
636.39	6440.9	
636.57	8639.7	
636.76	8251.9	
636.95	6069.5	
637.14	7109.9	
637.33	7993.9	
637.52	8653.4	
637.7	5805.3	
637.89	6613.6	
638.08	7606.2	
638.27	8746.2	
638.46	6770.6	
638.65	6994.5	
638.83	8848.6	
639.02	7451.2	
639.21	6588.3	
639.4	6941.9	
639.59	7935.2	
639.78	7668.3	
639.96	6026.5	
640.15	5982.1	
640.34	7787.1	
640.53	7853.3	
640.72	5797.1	
640.91	6077.7	
641.09	7282.6	
641.28	8342.7	
641.47	6019	
641.66	6825.2	
641.85	7944.1	
642.03	7985.7	
642.22	6545.3	
642.41	6124.1	
642.6	7376.8	
642.79	6937.2	
642.97	5930.2	
643.16	6524.8	
643.35	7338.6	
643.54	7193.1	
643.73	5865.4	
643.91	6493.4	
644.1	7111.2	
644.29	7663.5	
644.48	5892.7	
644.67	5955.5	
644.85	7228.6	
645.04	7529.7	
645.23	5609.4	
645.42	5864.7	
645.6	7182.2	
645.79	8088.1	
645.98	5868.8	
646.17	5056.4	
646.36	6967.2	
646.54	7361.8	
646.73	6475	
646.92	5466.7	
647.11	7050.5	
647.29	7892.9	
647.48	5549.3	
647.67	5423	
647.86	8080.6	
648.05	8128.4	
648.23	5834.7	
648.42	6784.9	
648.61	7621.9	
648.8	7417.7	
648.98	5509.7	
649.17	5796.4	
649.36	6984.9	
649.55	6647	
649.73	5598.5	
649.92	6144.6	
650.11	6914.6	
650.3	7235.5	
650.48	5634.6	
650.67	5541.8	
650.86	7418.4	
651.05	6645	
651.23	5575.3	
651.42	5605.3	
651.61	7034.1	
651.79	7049.1	
651.98	5749.3	
652.17	5432.6	
652.36	7436.9	
652.54	6579.4	
652.73	5442.1	
652.92	5265.3	
653.11	7384.3	
653.29	7453.2	
653.48	4864.6	
653.67	5705	
653.85	7189.7	
654.04	8014.4	
654.23	5855.1	
654.42	5529.5	
654.6	6861.4	
654.79	7306.5	
654.98	5079	
655.16	5520.6	
655.35	6453.1	
655.54	6306.4	
655.73	5063.3	
655.91	5027.1	
656.1	7230.7	
656.29	6243.6	
656.47	4667.3	
656.66	6105	
656.85	6576.7	
657.03	6585.6	
657.22	5122.7	
657.41	5158.8	
657.59	6659.3	
657.78	6494.1	
657.97	4927.4	
658.16	5466	
658.34	7261.4	
658.53	7518.8	
658.72	6227.2	
658.9	6621.8	
659.09	6842.3	
659.28	6837.5	
659.46	5265.3	
659.65	5154.7	
659.84	6556.9	
660.02	7035.5	
660.21	5145.9	
660.4	5097.4	
660.58	7307.8	
660.77	6836.8	
660.96	5631.9	
661.14	4868.7	
661.33	7755.7	
661.52	7703.8	
661.7	4796.3	
661.89	7757	
662.08	6483.9	
662.26	6153.5	
662.45	5033.9	
662.64	5102.9	
662.82	7073.7	
663.01	6360.3	
663.2	5142.4	
663.38	5737	
663.57	7028.6	
663.75	6892.1	
663.94	5397.1	
664.13	6290	
664.31	6500.3	
664.5	6992.4	
664.69	5689.9	
664.87	5989.6	
665.06	6293.4	
665.25	6918	
665.43	6204.7	
665.62	6237.4	
665.8	7096.2	
665.99	6552.8	
666.18	5371.1	
666.36	5485.1	
666.55	7081.9	
666.74	7066.9	
666.92	5060.5	
667.11	6442.2	
667.29	6631.3	
667.48	7069.6	
667.67	6069.5	
667.85	5211.4	
668.04	6605.4	
668.22	6520	
668.41	5398.4	
668.6	5619.6	
668.78	6408.8	
668.97	6612.9	
669.15	5674.2	
669.34	4866	
669.53	6424.5	
669.71	6715.3	
669.9	4997.7	
670.08	5520	
670.27	6449.7	
670.46	6884.6	
670.64	5661.3	
670.83	5905	
671.01	6352.8	
671.2	6825.2	
671.38	5042.1	
671.57	4986.8	
671.76	7359.7	
671.94	7699	
672.13	4881.7	
672.31	5831.2	
672.5	7023.9	
672.69	6242.9	
672.87	5051.7	
673.06	5291.3	
673.24	6913.3	
673.43	6470.9	
673.61	5717.2	
673.8	5229.1	
673.98	6954.9	
674.17	7097.6	
674.36	5780.7	
674.54	5642.8	
674.73	6716.7	
674.91	7049.1	
675.1	5407.3	
675.28	5086.5	
675.47	6619	
675.65	7027.3	
675.84	5279	
676.03	5518.6	
676.21	6479.8	
676.4	5960.3	
676.58	5935.7	
676.77	5726.8	
676.95	7649.2	
677.14	6386.9	
677.32	4987.5	
677.51	4889.2	
677.69	7055.3	
677.88	6192.4	
678.06	4913.1	
678.25	4978.6	
678.44	6585.6	
678.62	6405.4	
678.81	4776.5	
678.99	5619.6	
679.18	7240.9	
679.36	6915.3	
679.55	5241.4	
679.73	5787.6	
679.92	6929	
680.1	6419	
680.29	6212.9	
680.47	5264.6	
680.66	6451.8	
680.84	7075.7	
681.03	4650.9	
681.21	5571.2	
681.4	6458.6	
681.58	6376.7	
681.77	5061.2	
681.95	5004.6	
682.14	7159.7	
682.32	7307.2	
682.51	5898.8	
682.69	4860.5	
682.88	6393.1	
683.06	6814.3	
683.25	5511.1	
683.43	5857.9	
683.62	6683.9	
683.8	6936.5	
683.99	6006.7	
684.17	5421	
684.36	7707.9	
684.54	6621.1	
684.73	4875.5	
684.91	4988.2	
685.1	6851.8	
685.28	6464.8	
685.46	5453.7	
685.65	5408.7	
685.83	6987.7	
686.02	6446.3	
686.2	5002.5	
686.39	5134.9	
686.57	6358.3	
686.76	7432.8	
686.94	5041.4	
687.13	5167	
687.31	6882.5	
687.5	6483.9	
687.68	4698.7	
687.86	5795.1	
688.05	7866.2	
688.23	6075	
688.42	5765.7	
688.6	5062.6	
688.79	6467.5	
688.97	6462	
689.16	5411.4	
689.34	4584.7	
689.52	7019.1	
689.71	7250.5	
689.89	5755.5	
690.08	5100.1	
690.26	6731.7	
690.45	6562.4	
690.63	5896.8	
690.81	5334.3	
691	6613.6	
691.18	6441.5	
691.37	5532.2	
691.55	7217.7	
691.74	6541.2	
691.92	8120.9	
692.1	5401.2	
692.29	5001.1	
692.47	6630.6	
692.66	6083.1	
692.84	5180.7	
693.02	5582.8	
693.21	6176.7	
693.39	6670.2	
693.58	5735.7	
693.76	5201.2	
693.94	7612.3	
694.13	7471.7	
694.31	5200.5	
694.5	6080.4	
694.68	6550.1	
694.86	6836.8	
695.05	5555.5	
695.23	5893.4	
695.42	7139.2	
695.6	9047.9	
695.78	6189	
695.97	5362.9	
696.15	7275.8	
696.34	6767.2	
696.52	5251.7	
696.7	5952.8	
696.89	7067.5	
697.07	6599.2	
697.25	5922.7	
697.44	7011.6	
697.62	7074.4	
697.81	7326.9	
697.99	5681.7	
698.17	6056.5	
698.36	6569.2	
698.54	7225.2	
698.72	5945.9	
698.91	5078.3	
699.09	6707.8	
699.28	6655.2	
699.46	5717.2	
699.64	5592.3	
699.83	6744	
700.01	7660.8	
700.19	6128.9	
700.38	4958.8	
700.56	7643	
700.74	6802	
700.93	5268.7	
701.11	5985.5	
701.29	7288.7	
701.48	8117.5	
701.66	5544.5	
701.84	5554.1	
702.03	6918	
702.21	7505.1	
702.39	5196.4	
702.58	5722.7	
702.76	7335.8	
702.94	7346.7	
703.13	5227.1	
703.31	7296.2	
703.49	6782.2	
703.68	7580.9	
703.86	5374.6	
704.04	6228.6	
704.23	7122.2	
704.41	7527	
704.59	5647.6	
704.78	6560.3	
704.96	8206.2	
705.14	7552.9	
705.33	5415.5	
705.51	6067.4	
705.69	7058.7	
705.87	7762.5	
706.06	6268.8	
706.24	5419.6	
706.42	7329.7	
706.61	7558.4	
706.79	6394.4	
706.97	5403.2	
707.16	6945.3	
707.34	7422.5	
707.52	6358.9	
707.7	5700.2	
707.89	7050.5	
708.07	6780.8	
708.25	6404.7	
708.44	6823.8	
708.62	7010.2	
708.8	7900.4	
708.98	6624.5	
709.17	5683.1	
709.35	7425.3	
709.53	7402	
709.72	5593	
709.9	5944.6	
710.08	7598.6	
710.26	7619.1	
710.45	6909.8	
710.63	6018.3	
710.81	7273.7	
710.99	7294.9	
711.18	6279.1	
711.36	5920	
711.54	7167.9	
711.72	7761.1	
711.91	5978.7	
712.09	5519.3	
712.27	7320.8	
712.45	7828	
712.64	6118	
712.82	5339.1	
713	6847.7	
713.18	6993.8	
713.37	5433.3	
713.55	6507.8	
713.73	7784.3	
713.91	6557.6	
714.1	5706.3	
714.28	5264.6	
714.46	7393.2	
714.64	6670.2	
714.83	4792.2	
715.01	5420.3	
715.19	6698.9	
715.37	6127.5	
715.55	5075.5	
715.74	5316.5	
715.92	7360.4	
716.1	5695.4	
716.28	6255.9	
716.47	5406.6	
716.65	6346.7	
716.83	6355.5	
717.01	5323.4	
717.19	5346.6	
717.38	7999.4	
717.56	6071.5	
717.74	5511.8	
717.92	4733.5	
718.1	7077.1	
718.29	6459.3	
718.47	4587.4	
718.65	5055.1	
718.83	7060	
719.01	6999.3	
719.2	4545.1	
719.38	5400.5	
719.56	6830.7	
719.74	8152.3	
719.92	5146.5	
720.11	5954.1	
720.29	6925.5	
720.47	6208.1	
720.65	4770.4	
720.83	5425.1	
721.02	6490	
721.2	6227.2	
721.38	5423	
721.56	4810.7	
721.74	5817.6	
721.92	5938.4	
722.11	5811.5	
722.29	5540.4	
722.47	6935.1	
722.65	6275.7	
722.83	4808.6	
723.01	5598.5	
723.2	6332.3	
723.38	6602	
723.56	4328	
723.74	5291.3	
723.92	5909.8	
724.1	6835.4	
724.29	4758.1	
724.47	5653.8	
724.65	6090	
724.83	5920	
725.01	4676.9	
725.19	5311.1	
725.37	5960.3	
725.56	5947.3	
725.74	4544.4	
725.92	4724	
726.1	5900.9	
726.28	6186.2	
726.46	5075.5	
726.64	4894	
726.83	6251.8	
727.01	6315.3	
727.19	4592.9	
727.37	5196.4	
727.55	6380.1	
727.73	6733	
727.91	4501.4	
728.09	4386.7	
728.28	6739.9	
728.46	7027.9	
728.64	5269.4	
728.82	5213.4	
729	7559.7	
729.18	6947.4	
729.36	4539	
729.54	6455.9	
729.72	7817.1	
729.91	6364.4	
730.09	6178.7	
730.27	5211.4	
730.45	6342.6	
730.63	6862.7	
730.81	5679	
730.99	4879.6	
731.17	7316.7	
731.35	6165.1	
731.53	5303.6	
731.71	5016.8	
731.9	7034.1	
732.08	7180.2	
732.26	5244.2	
732.44	4969.1	
732.62	7280.5	
732.8	6768.5	
732.98	5554.1	
733.16	4774.5	
733.34	6792.4	
733.52	5696.8	
733.7	5132.9	
733.88	5380.7	
734.07	6622.4	
734.25	6408.8	
734.43	4683	
734.61	5986.2	
734.79	7658	
734.97	6321.4	
735.15	4865.3	
735.33	5119.9	
735.51	6620.4	
735.69	6351.4	
735.87	5905	
736.05	5277.6	
736.23	6415.6	
736.41	6208.8	
736.59	5059.8	
736.77	5195	
736.95	6793.1	
737.13	6350.1	
737.32	4825	
737.5	4954.7	
737.68	7286.7	
737.86	6199.9	
738.04	4591.5	
738.22	6206	
738.4	6087.2	
738.58	6306.4	
738.76	5091.9	
738.94	4268	
739.12	6147.3	
739.3	6088.6	
739.48	5595.7	
739.66	5367	
739.84	6357.6	
740.02	6318	
740.2	4410	
740.38	4632.5	
740.56	6653.2	
740.74	5696.1	
740.92	5213.4	
741.1	5081.7	
741.28	6161	
741.46	5989.6	
741.64	4726	
741.82	5147.9	
742	6161.7	
742.18	6155.5	
742.36	4941.1	
742.54	4588.8	
742.72	6683.9	
742.9	5547.9	
743.08	5232.6	
743.26	4197	
743.44	6681.8	
743.62	6638.1	
743.8	5296	
743.98	4481.6	
744.16	6412.2	
744.34	6124.1	
744.52	5234.6	
744.7	5146.5	
744.88	6483.2	
745.06	6143.2	
745.24	5221	
745.42	5301.5	
745.6	6516.6	
745.78	6326.2	
745.96	4225.6	
746.14	4511	
746.32	7144.7	
746.5	6435.4	
746.68	5010	
746.86	4524	
747.03	6827.2	
747.21	5473.5	
747.39	4896.7	
747.57	4416.1	
747.75	6195.8	
747.93	6432	
748.11	4447.5	
748.29	4388.1	
748.47	7480.5	
748.65	5895.4	
748.83	5106.3	
749.01	4841.4	
749.19	6333.7	
749.37	5677	
749.55	4728.8	
749.73	4793.6	
749.91	6108.4	
750.09	5836	
750.26	4764.9	
750.44	4331.5	
750.62	6043.6	
750.8	5982.1	
750.98	4177.2	
751.16	4472.1	
751.34	6163.7	
751.52	5510.4	
751.7	5084.4	
751.88	4099.4	
752.06	6479.1	
752.24	6180.8	
752.42	4090.5	
752.59	4448.9	
752.77	5970.5	
752.95	6969.9	
753.13	5064.6	
753.31	4528.1	
753.49	5753.4	
753.67	6035.4	
753.85	4812.7	
754.03	4377.2	
754.21	6285.9	
754.38	6533.7	
754.56	4460.5	
754.74	3737.5	
754.92	5573.9	
755.1	6099.5	
755.28	3739.6	
755.46	3762.1	
755.64	6783.6	
755.82	6877.8	
755.99	3956	
756.17	3994.2	
756.35	4765.6	
756.53	5968.5	
756.71	3084.2	
756.89	3813.3	
757.07	5620.3	
757.25	4943.8	
757.42	4274.8	
757.6	5032.5	
757.78	5776.6	
757.96	4932.2	
758.14	4007.9	
758.32	3608.5	
758.5	4564.2	
758.67	5289.2	
758.85	3872	
759.03	3964.2	
759.21	5448.3	
759.39	4948.6	
759.57	3565.5	
759.75	4545.8	
759.92	5819	
760.1	5372.5	
760.28	4732.9	
760.46	4965	
760.64	5126.7	
760.82	4965	
760.99	4670.1	
761.17	4042	
761.35	5767.8	
761.53	4995	
761.71	4070	
761.89	4657.8	
762.06	5724.1	
762.24	5329.5	
762.42	4163.5	
762.6	4018.8	
762.78	5337.7	
762.96	5851.7	
763.13	4512.4	
763.31	4132.1	
763.49	6020.3	
763.67	5332.2	
763.85	4911.7	
764.02	5298.8	
764.2	6199.2	
764.38	5472.2	
764.56	4067.3	
764.74	4831.2	
764.91	6333.7	
765.09	5380	
765.27	3875.4	
765.45	3713.6	
765.63	6324.1	
765.8	6136.4	
765.98	3504.1	
766.16	3723.9	
766.34	5018.9	
766.52	4842.8	
766.69	4474.1	
766.87	3631	
767.05	5353.4	
767.23	5920.7	
767.41	3831.7	
767.58	4042	
767.76	5827.2	
767.94	5905.7	
768.12	3938.9	
768.29	4463.2	
768.47	5397.8	
768.65	5987.6	
768.83	3549.8	
769	4607.9	
769.18	5038	
769.36	5569.1	
769.54	4509.6	
769.72	3635.1	
769.89	5875.6	
770.07	5855.8	
770.25	3927.3	
770.43	4960.9	
770.6	6464.8	
770.78	6797.2	
770.96	4053.6	
771.14	4479.6	
771.31	5768.4	
771.49	5262.6	
771.67	3355.3	
771.85	3560.7	
772.02	4604.5	
772.2	5203.9	
772.38	4162.2	
772.55	3739.6	
772.73	5459.2	
772.91	5262.6	
773.09	4037.9	
773.26	4126	
773.44	5371.1	
773.62	5114.5	
773.8	3644	
773.97	3504.8	
774.15	5463.3	
774.33	5120.6	
774.5	3523.9	
774.68	3883.6	
774.86	5648.3	
775.04	5177.3	
775.21	3639.2	
775.39	3635.1	
775.57	5375.2	
775.74	5636	
775.92	3496.6	
776.1	3379.8	
776.27	5313.1	
776.45	6348.7	
776.63	3626.3	
776.81	3276.1	
776.98	5048.2	
777.16	5939.1	
777.34	3718.4	
777.51	3961.5	
777.69	5058.5	
777.87	4868.7	
778.04	3763.5	
778.22	4227	
778.4	4910.3	
778.57	5459.2	
778.75	3164.1	
778.93	3379.8	
779.1	4740.4	
779.28	4588.8	
779.46	3205.8	
779.64	3476.8	
779.81	5597.1	
779.99	6250.4	
780.17	4209.3	
780.34	4300.7	
780.52	5128.1	
780.69	5266.7	
780.87	3843.4	
781.05	3460.4	
781.22	5177.3	
781.4	5201.8	
781.58	3630.4	
781.75	2909.5	
781.93	5175.9	
782.11	4708.3	
782.28	4259.8	
782.46	3589.4	
782.64	4586.1	
782.81	5296.7	
782.99	3655.6	
783.17	3623.5	
783.34	5244.2	
783.52	4613.4	
783.69	3738.9	
783.87	4472.8	
784.05	4691.9	
784.22	4710.3	
784.4	4461.2	
784.58	3867.9	
784.75	5483.1	
784.93	4800.4	
785.1	3559.4	
785.28	4074.8	
785.46	5225.1	
785.63	4643.4	
785.81	3579.2	
785.99	3426.9	
786.16	4856.4	
786.34	5057.1	
786.51	3500.7	
786.69	3815.4	
786.87	4436.6	
787.04	4867.3	
787.22	3311.6	
787.39	4117.1	
787.57	4637.3	
787.75	5603.9	
787.92	4250.9	
788.1	4179.9	
788.27	4661.2	
788.45	4502.1	
788.63	4012	
788.8	2960	
788.98	5125.4	
789.15	4336.2	
789.33	3113.6	
789.5	3590.1	
789.68	5367.7	
789.86	5536.3	
790.03	3929.4	
790.21	3455.6	
790.38	5431.2	
790.56	4754	
790.73	3333.4	
790.91	3327.9	
791.09	4712.4	
791.26	5270.1	
791.44	3631	
791.61	3086.3	
791.79	4669.4	
791.96	4720.6	
792.14	3190.1	
792.32	2891.7	
792.49	4699.4	
792.67	4786.8	
792.84	3284.9	
793.02	3081.5	
793.19	5389.6	
793.37	5626.5	
793.54	2917	
793.72	3174.4	
793.89	5642.8	
794.07	4663.2	
794.25	3590.8	
794.42	2932.7	
794.6	5530.2	
794.77	5184.1	
794.95	3859.1	
795.12	3379.1	
795.3	4635.9	
795.47	5164.3	
795.65	3758.7	
795.82	3591.5	
796	4519.2	
796.17	6000.5	
796.35	3515	
796.52	4042.7	
796.7	5101.5	
796.87	5216.9	
797.05	3465.2	
797.22	4173.8	
797.4	5176.6	
797.57	5997.1	
797.75	3589.4	
797.92	3405.1	
798.1	5414.8	
798.27	4531.5	
798.45	2942.9	
798.62	3173	
798.8	4904.9	
798.97	5276.3	
799.15	3809.2	
799.32	3577.8	
799.5	4298.7	
799.67	4973.2	
799.85	3906.2	
800.02	2887	
800.2	4608.6	
800.37	4863.9	
800.55	3957.4	
800.72	3382.6	
800.9	5265.3	
801.07	5621.7	
801.25	4437.3	
801.42	3742.3	
801.6	5270.1	
801.77	4997	
801.95	3442.6	
802.12	3297.9	
802.29	5046.9	
802.47	4972.5	
802.64	3707.5	
802.82	2807.8	
802.99	4621.6	
803.17	5448.3	
803.34	3607.2	
803.52	3246	
803.69	5953.4	
803.87	4420.2	
804.04	3577.1	
804.21	3624.2	
804.39	5535.7	
804.56	4792.9	
804.74	3047.4	
804.91	3704.1	
805.09	4592.9	
805.26	4655.7	
805.44	3180.5	
805.61	3420.8	
805.78	5156.8	
805.96	5180.7	
806.13	3693.9	
806.31	4003.1	
806.48	4285	
806.66	4720.6	
806.83	3684.3	
807	3574.4	
807.18	4679.6	
807.35	4960.2	
807.53	3602.4	
807.7	2936.8	
807.87	5618.9	
808.05	4670.7	
808.22	3969.6	
808.4	2945.7	
808.57	4648.2	
808.74	4299.4	
808.92	3340.9	
809.09	4168.3	
809.27	4635.9	
809.44	5035.3	
809.61	2954.5	
809.79	3229	
809.96	5623.7	
810.14	5229.1	
810.31	2889.7	
810.48	3472	
810.66	4723.3	
810.83	5248.9	
811.01	3345	
811.18	3620.8	
811.35	5244.8	
811.53	4152.6	
811.7	3958	
811.87	3664.5	
812.05	4685.1	
812.22	4618.9	
812.39	3201	
812.57	3106.8	
812.74	4713.7	
812.92	6046.3	
813.09	3462.4	
813.26	3745.1	
813.44	5799.2	
813.61	4556.7	
813.78	2885.6	
813.96	3864.5	
814.13	4711.7	
814.3	4411.3	
814.48	4137.6	
814.65	3420.1	
814.82	5623.7	
815	4425	
815.17	3536.8	
815.34	4261.8	
815.52	4559.5	
815.69	4573.1	
815.87	3533.4	
816.04	3467.2	
816.21	4613.4	
816.38	4182.6	
816.56	3394.8	
816.73	3200.3	
816.9	5782.1	
817.08	5262.6	
817.25	3252.2	
817.42	3964.9	
817.6	4296.6	
817.77	4653.7	
817.94	3586.7	
818.12	3194.8	
818.29	4463.9	
818.46	6617.7	
818.64	3335.5	
818.81	3087	
818.98	4375.1	
819.16	6122.7	
819.33	3813.3	
819.5	3523.2	
819.67	4928.8	
819.85	5469.4	
820.02	3500.7	
820.19	3665.9	
820.37	4847.5	
820.54	4564.2	
820.71	3587.4	
820.88	4444.8	
821.06	4805.9	
821.23	4452.3	
821.4	3654.3	
821.58	3558	
821.75	5224.4	
821.92	4775.9	
822.09	2936.8	
822.27	3190.1	
822.44	4681.7	
822.61	4572.4	
822.79	2992.1	
822.96	5483.1	
823.13	4990.9	
823.3	4414.1	
823.48	3329.3	
823.65	3066.5	
823.82	5257.8	
823.99	4347.8	
824.17	4230.4	
824.34	3138.9	
824.51	5952.1	
824.68	4717.8	
824.86	3229	
825.03	3591.5	
825.2	4644.1	
825.37	5547.9	
825.55	3196.9	
825.72	3484.3	
825.89	5936.4	
826.06	5608	
826.24	3414	
826.41	3480.9	
826.58	5530.2	
826.75	4874.8	
826.92	2825.5	
827.1	3112.9	
827.27	7416.4	
827.44	5943.2	
827.61	3331.4	
827.79	3900	
827.96	4416.1	
828.13	4656.4	
828.3	3406.5	
828.47	2962.7	
828.65	4904.9	
828.82	4833.9	
828.99	4348.5	
829.16	3887.7	
829.34	5193.6	
829.51	5020.9	
829.68	3573	
829.85	3685	
830.02	5474.9	
830.2	5218.2	
830.37	2751.1	
830.54	4270	
830.71	5833.3	
830.88	4654.4	
831.05	2788	
831.23	3250.8	
831.4	5554.1	
831.57	6148	
831.74	3263.1	
831.91	2932.7	
832.09	4954.7	
832.26	5190.9	
832.43	3381.2	
832.6	3758.7	
832.77	4911	
832.94	5566.4	
833.12	2738.8	
833.29	3344.3	
833.46	4986.8	
833.63	6313.2	
833.8	3707.5	
833.97	3392.1	
834.15	5175.2	
834.32	5056.4	
834.49	3521.1	
834.66	3679.5	
834.83	5350.7	
835	4497.3	
835.17	3297.9	
835.35	3217.4	
835.52	5135.6	
835.69	5029.1	
835.86	3437.9	
836.03	2890.4	
836.2	5171.8	
836.37	4847.5	
836.55	3407.1	
836.72	3220.1	
836.89	4799.8	
837.06	5227.8	
837.23	3458.3	
837.4	3772.4	
837.57	5847.6	
837.75	6408.1	
837.92	3099.9	
838.09	3341.6	
838.26	4827.7	
838.43	5379.3	
838.6	3516.4	
838.77	3263.1	
838.94	6056.5	
839.11	5877	
839.29	3378.5	
839.46	2749.1	
839.63	5207.3	
839.8	4940.4	
839.97	3255.6	
840.14	3300.6	
840.31	5031.2	
840.48	5196.4	
840.65	2820.1	
840.82	3183.9	
841	5139	
841.17	5087.8	
841.34	3044.6	
841.51	3113.6	
841.68	5086.5	
841.85	4953.4	
842.02	3181.2	
842.19	2675.3	
842.36	4989.5	
842.53	4982.7	
842.7	3011.2	
842.87	3648.1	
843.05	6391.7	
843.22	4863.2	
843.39	2908.1	
843.56	3153.9	
843.73	4732.2	
843.9	5279	
844.07	4840	
844.24	4037.9	
844.41	7240.3	
844.58	4534.2	
844.75	2980.5	
844.92	3139.5	
845.09	5154.7	
845.26	5107.6	
845.43	3026.9	
845.6	3201	
845.77	5165.7	
845.94	4941.7	
846.12	3334.1	
846.29	3489.1	
846.46	5385.5	
846.63	5115.8	
846.8	3050.1	
846.97	3577.1	
847.14	5593.7	
847.31	5117.9	
847.48	3473.4	
847.65	3710.2	
847.82	5362.9	
847.99	5407.3	
848.16	3984.7	
848.33	3676.1	
848.5	4742.4	
848.67	5537.7	
848.84	2967.5	
849.01	3144.3	
849.18	4771.1	
849.35	4390.8	
849.52	3764.2	
849.69	2983.9	
849.86	5301.5	
850.03	5514.5	
850.2	3056.9	
850.37	3642	
850.54	5365	
850.71	4898.7	
850.88	3578.5	
851.05	2975.7	
851.22	5070.1	
851.39	5549.3	
851.56	2895.8	
851.73	3444	
851.9	4562.9	
852.07	5307.7	
852.24	3345	
852.41	3004.4	
852.58	5065.3	
852.75	4622.3	
852.92	3392.1	
853.09	3003.7	
853.26	4797.7	
853.43	5516.5	
853.6	3047.4	
853.77	2618	
853.94	5564.3	
854.11	4564.9	
854.28	4388.1	
854.44	3280.2	
854.61	5953.4	
854.78	5318.6	
854.95	2973.7	
855.12	3758.7	
855.29	4224.3	
855.46	5580.7	
855.63	3051.5	
855.8	4137.6	
855.97	4752	
856.14	5457.2	
856.31	4264.6	
856.48	3289	
856.65	4804.5	
856.82	4557.4	
856.99	2940.9	
857.16	3252.2	
857.33	6183.5	
857.49	4869.4	
857.66	3302	
857.83	3467.9	
858	4844.1	
858.17	5052.3	
858.34	2878.8	
858.51	3105.4	
858.68	5672.2	
858.85	5681.7	
859.02	3524.6	
859.19	3716.4	
859.36	4588.8	
859.52	4605.9	
859.69	3050.1	
859.86	3559.4	
860.03	4668.7	
860.2	5643.5	
860.37	2812.5	
860.54	3071.3	
860.71	5328.1	
860.88	5654.4	
861.05	3388	
861.21	3743.7	
861.38	5622.4	
861.55	4397.7	
861.72	2794.8	
861.89	3396.9	
862.06	5385.5	
862.23	5771.2	
862.4	2947.7	
862.56	3137.5	
862.73	5233.9	
862.9	4927.4	
863.07	3512.3	
863.24	2800.9	
863.41	4539	
863.58	4547.9	
863.75	3088.3	
863.91	3490.4	
864.08	5617.6	
864.25	5255.8	
864.42	3749.8	
864.59	4177.2	
864.76	5863.3	
864.93	4543.1	
865.09	2977.7	
865.26	3219.4	
865.43	5547.9	
865.6	5800.5	
865.77	2661.7	
865.94	3017.3	
866.1	5552	
866.27	5274.9	
866.44	4459.8	
866.61	2869.2	
866.78	4947.9	
866.95	5219.6	
867.11	2929.3	
867.28	2724.5	
867.45	5402.5	
867.62	4606.6	
867.79	3418.7	
867.96	2995.5	
868.12	4571.7	
868.29	5311.1	
868.46	2665.1	
868.63	4035.2	
868.8	5455.8	
868.97	5300.8	
869.13	3205.8	
869.3	3158.7	
869.47	5182.7	
869.64	5403.2	
869.81	2961.4	
869.97	3118.4	
870.14	5098.1	
870.31	5715.9	
870.48	2973.7	
870.65	3807.2	
870.81	4912.4	
870.98	4905.6	
871.15	3377.8	
871.32	3110.2	
871.48	5243.5	
871.65	5702.9	
871.82	3011.9	
871.99	3351.2	
872.16	6040.8	
872.32	5591	
872.49	3023.5	
872.66	3084.2	
872.83	5327.4	
872.99	4743.8	
873.16	3518.4	
873.33	3065.1	
873.5	5001.8	
873.67	5046.2	
873.83	3155.2	
874	4017.4	
874.17	5121.3	
874.34	5954.1	
874.5	3840.6	
874.67	3727.3	
874.84	5639.4	
875.01	4498.7	
875.17	4132.8	
875.34	2945.7	
875.51	5068.7	
875.68	6037.4	
875.84	3592.8	
876.01	4385.4	
876.18	5323.4	
876.34	5270.8	
876.51	3068.5	
876.68	3004.4	
876.85	4878.3	
877.01	5578	
877.18	4186.7	
877.35	2967.5	
877.52	5029.1	
877.68	4563.6	
877.85	2985.3	
878.02	2939.5	
878.18	4867.3	
878.35	4747.2	
878.52	2458.9	
878.69	3353.2	
878.85	5410.1	
879.02	5233.9	
879.19	4220.9	
879.35	3249.4	
879.52	5316.5	
879.69	5467.4	
879.86	2617.3	
880.02	3362.1	
880.19	4965.6	
880.36	5956.2	
880.52	3436.5	
880.69	3535.5	
880.86	5358.9	
881.02	5363.6	
881.19	3307.5	
881.36	3267.9	
881.52	5295.4	
881.69	4681.7	
881.86	3265.1	
882.02	3144.3	
882.19	5518.6	
882.36	6356.9	
882.52	3104.7	
882.69	4181.3	
882.86	5126.1	
883.02	5085.8	
883.19	3665.9	
883.36	3427.6	
883.52	5395	
883.69	6069.5	
883.86	3091.8	
884.02	2726.5	
884.19	5289.2	
884.36	4971.8	
884.52	3424.2	
884.69	3248.1	
884.86	4785.4	
885.02	5782.8	
885.19	3334.1	
885.36	3497.9	
885.52	4945.8	
885.69	5126.7	
885.86	4340.3	
886.02	3862.5	
886.19	5311.7	
886.35	4813.4	
886.52	3347.1	
886.69	4129.4	
886.85	4586.1	
887.02	5588.2	
887.19	5588.2	
887.35	5588.2	
887.52	5588.2	
887.68	5588.2	
887.85	5588.2	
888.02	5588.2	
888.18	5588.2	
888.35	5588.2	
888.51	5588.2	
888.68	5588.2	
888.85	5588.2	
889.01	5588.2	
889.18	5588.2	
889.35	5588.2	
889.51	5588.2	
889.68	5588.2	
889.84	5588.2	
890.01	5588.2	
890.17	5588.2	
890.34	5588.2	
890.51	5588.2	
890.67	5588.2	
890.84	5588.2	
891	5588.2	
891.17	5588.2	
891.34	5588.2	
891.5	5588.2	
891.67	5588.2	
891.83	5588.2	
892	5588.2	
892.16	5588.2	
892.33	5588.2	
892.5	5588.2	
892.66	5588.2	
892.83	5588.2	
892.99	5588.2	
893.16	5588.2	
893.32	5588.2	
893.49	5588.2	
893.65	5588.2	
893.82	5588.2	
893.99	5588.2	
894.15	5588.2	
894.32	5588.2	
894.48	5588.2	
894.65	5588.2	
894.81	5588.2	
894.98	5588.2	
895.14	5588.2	
895.31	5588.2	
895.47	5588.2	
895.64	5588.2	
895.81	5588.2	
895.97	5588.2	
896.14	5588.2	
896.3	5588.2	
896.47	5588.2	
896.63	5588.2	
896.8	5588.2	
896.96	5588.2	
897.13	5588.2	
897.29	5588.2	
897.46	5588.2	
897.62	5588.2	
897.79	5588.2	
897.95	5588.2	
898.12	5588.2	
898.28	5588.2	
898.45	5588.2	
898.61	5588.2	
898.78	5588.2	
898.94	5588.2	
899.11	5588.2	
899.27	5588.2	
899.44	5588.2	
899.6	5588.2	
899.77	5588.2	
899.93	5588.2	
900.1	5588.2	
900.26	5588.2	
900.43	5588.2	
900.59	5588.2	
900.76	5588.2	
900.92	5588.2	
901.09	5588.2	
901.25	5588.2	
901.42	5588.2	
901.58	5588.2	
901.75	5588.2	
901.91	5588.2	
902.07	5588.2	
902.24	5588.2	
902.4	5588.2	
902.57	5588.2	
902.73	5588.2	
902.9	5588.2	
903.06	5588.2	
903.23	5588.2	
903.39	5588.2	
903.56	5588.2	
903.72	5588.2	
903.88	5588.2	
904.05	5588.2	
904.21	5588.2	
904.38	5588.2	
904.54	5588.2	
904.71	5588.2	
904.87	5588.2	
905.03	5588.2	
905.2	5588.2	
905.36	5588.2	
905.53	5588.2	
905.69	5588.2	
905.86	5588.2	
906.02	5588.2	
906.18	5588.2	
906.35	5588.2	
906.51	5588.2	
906.68	5588.2	
906.84	5588.2	
907.01	5588.2	
907.17	5588.2	
907.33	5588.2	
907.5	5588.2	
907.66	5588.2	
907.83	5588.2	
907.99	5588.2	
908.15	5588.2	
908.32	5588.2	
908.48	5588.2	
908.65	5588.2	
908.81	5588.2	
908.97	5588.2	
909.14	5588.2	
909.3	5588.2	
909.47	5588.2	
909.63	5588.2	
909.79	5588.2	
909.96	5588.2	
910.12	5588.2	
910.28	5588.2	
910.45	5588.2	
910.61	5588.2	
910.78	5588.2	
910.94	5588.2	
911.1	5588.2	
911.27	5588.2	
911.43	5588.2	
911.59	5588.2	
911.76	5588.2	
911.92	5588.2	
912.08	5588.2	
912.25	5588.2	
912.41	5588.2	
912.57	5588.2	
912.74	5588.2	
912.9	5588.2	
913.07	5588.2	
913.23	5588.2	
913.39	5588.2	
913.56	5588.2	
913.72	5588.2	
913.88	5588.2	
914.05	5588.2	
914.21	5588.2	
914.37	5588.2	
914.54	5588.2	
914.7	5588.2	
914.86	5588.2	
915.03	5588.2	
915.19	5588.2	
