Wavelength	Intensities	
nm	a.u.	
179.22	1637.7	
179.44	1633.6	
179.65	1641.8	
179.86	1625.4	
180.08	1648.6	
180.29	3652.9	
180.51	2896.5	
180.72	4786.8	
180.94	5315.2	
181.15	2602.3	
181.37	2601.6	
181.58	4598.4	
181.79	4821.6	
182.01	2710.8	
182.22	2813.9	
182.44	4846.9	
182.65	4165.6	
182.87	3418.1	
183.08	3067.9	
183.29	5072.8	
183.51	4233.8	
183.72	2787.3	
183.94	3891.8	
184.15	4564.2	
184.37	4475.5	
184.58	2573.6	
184.79	3251.5	
185.01	4293.9	
185.22	4902.8	
185.44	3447.4	
185.65	3002.3	
185.86	4535.6	
186.08	4222.2	
186.29	2531.3	
186.51	2586.6	
186.72	4376.5	
186.94	4945.8	
187.15	3059.7	
187.36	3065.8	
187.58	6098.2	
187.79	4623.6	
188.01	3162.7	
188.22	4627.7	
188.43	5327.4	
188.65	4727.4	
188.86	2726.5	
189.08	3086.3	
189.29	4422.9	
189.5	4401.8	
189.72	2869.2	
189.93	2874.7	
190.15	4879.6	
190.36	5690.6	
190.57	3074.7	
190.79	2992.8	
191	4885.8	
191.22	4881	
191.43	3151.1	
191.64	2667.1	
191.86	5147.9	
192.07	4915.8	
192.29	2777.7	
192.5	2842.6	
192.71	4944.5	
192.93	4390.2	
193.14	2822.8	
193.35	2902	
193.57	4362.2	
193.78	4909	
194	2374.3	
194.21	2766.1	
194.42	4266.6	
194.64	4537.6	
194.85	3059	
195.07	3502	
195.28	4532.8	
195.49	4126.7	
195.71	3562.8	
195.92	2699.2	
196.13	4762.2	
196.35	4756.1	
196.56	3829	
196.78	3094.5	
196.99	5672.9	
197.2	5287.9	
197.42	3377.1	
197.63	3069.9	
197.84	4198.3	
198.06	4691.9	
198.27	2870.6	
198.48	3654.3	
198.7	4383.3	
198.91	4609.3	
199.13	3106.1	
199.34	3065.1	
199.55	4932.2	
199.77	3999	
199.98	2811.2	
200.19	3117.7	
200.41	4541.7	
200.62	4287.8	
200.83	3139.5	
201.05	3388	
201.26	4567	
201.47	4355.3	
201.69	2778.4	
201.9	2752.5	
202.11	4574.5	
202.33	5216.9	
202.54	2904	
202.76	3300	
202.97	4571.1	
203.18	4736.3	
203.4	3179.1	
203.61	3258.3	
203.82	4571.7	
204.04	4317.1	
204.25	3104.7	
204.46	3069.9	
204.68	4579.9	
204.89	4744.5	
205.1	2984.6	
205.32	2663	
205.53	4805.2	
205.74	4934.9	
205.96	2357.9	
206.17	3105.4	
206.38	4754.7	
206.6	4924.7	
206.81	3411.9	
207.02	2892.4	
207.24	4741.7	
207.45	5001.1	
207.66	2983.9	
207.88	2615.9	
208.09	4650.3	
208.3	4579.3	
208.52	2749.1	
208.73	3002.3	
208.94	4564.9	
209.15	5038	
209.37	2905.4	
209.58	3063.8	
209.79	4932.9	
210.01	4450.2	
210.22	2440.5	
210.43	2591.4	
210.65	4525.3	
210.86	4790.9	
211.07	2956.6	
211.29	2748.4	
211.5	4728.1	
211.71	4553.3	
211.93	2785.2	
212.14	2762	
212.35	4574.5	
212.56	4575.2	
212.78	3110.2	
212.99	2602.3	
213.2	5176.6	
213.42	4392.2	
213.63	2889.7	
213.84	2927.2	
214.06	4151.2	
214.27	4233.2	
214.48	2942.2	
214.69	3138.9	
214.91	5023.7	
215.12	5020.9	
215.33	3117.7	
215.55	3358.7	
215.76	5367.7	
215.97	4710.3	
216.18	3002.3	
216.4	3048.7	
216.61	4357.4	
216.82	4841.4	
217.04	2736.1	
217.25	2868.5	
217.46	4947.9	
217.67	4842.1	
217.89	2557.2	
218.1	2626.2	
218.31	4611.3	
218.53	4694.6	
218.74	2930.6	
218.95	2833.7	
219.16	4620.9	
219.38	5137.7	
219.59	2796.2	
219.8	3233.1	
220.01	5530.2	
220.23	4547.9	
220.44	3490.4	
220.65	2717	
220.87	4638	
221.08	5018.2	
221.29	2621.4	
221.5	3319.1	
221.72	5755.5	
221.93	4332.8	
222.14	3026.2	
222.35	3568.2	
222.57	4657.8	
222.78	4876.2	
222.99	2978.4	
223.2	3120.4	
223.42	4756.1	
223.63	4836.6	
223.84	2415.9	
224.05	2424.8	
224.27	5453.1	
224.48	5133.6	
224.69	3605.1	
224.9	3115.6	
225.12	4691.2	
225.33	4525.3	
225.54	2580.4	
225.75	2803	
225.97	4305.5	
226.18	4510.3	
226.39	2920.4	
226.6	2830.3	
226.82	4429.1	
227.03	4283.7	
227.24	3024.2	
227.45	2651.4	
227.67	4896.7	
227.88	5098.8	
228.09	3392.8	
228.3	3362.8	
228.52	4780.6	
228.73	4501.4	
228.94	2890.4	
229.15	2650.1	
229.36	4575.2	
229.58	4535.6	
229.79	2951.8	
230	3307.5	
230.21	5274.9	
230.43	4615.4	
230.64	3050.8	
230.85	3172.3	
231.06	4848.9	
231.28	4878.3	
231.49	2613.9	
231.7	3033	
231.91	4800.4	
232.12	4554.7	
232.34	2721.8	
232.55	2939.5	
232.76	4956.1	
232.97	4609.3	
233.18	2747	
233.4	3092.4	
233.61	4686.4	
233.82	4357.4	
234.03	2902.7	
234.25	2859.6	
234.46	5961.6	
234.67	4569	
234.88	3158.7	
235.09	2859	
235.31	4678.9	
235.52	4503.5	
235.73	3061.7	
235.94	2650.1	
236.15	4371.7	
236.37	5293.3	
236.58	2783.9	
236.79	2974.3	
237	4819.6	
237.21	4192.2	
237.43	3205.1	
237.64	2597.5	
237.85	7192.5	
238.06	4268.6	
238.27	3149.8	
238.48	2688.3	
238.7	4840.7	
238.91	4520.5	
239.12	2943.6	
239.33	3020.8	
239.54	4292.5	
239.76	4447.5	
239.97	2989.4	
240.18	2946.3	
240.39	5352	
240.6	4662.5	
240.82	3130	
241.03	2600.2	
241.24	4534.9	
241.45	5060.5	
241.66	2768.2	
241.87	3201	
242.09	5115.1	
242.3	5235.3	
242.51	3262.4	
242.72	2923.8	
242.93	4828.4	
243.14	4473.4	
243.36	3420.1	
243.57	3542.3	
243.78	5132.9	
243.99	4753.3	
244.2	2942.2	
244.41	2682.2	
244.63	4255	
244.84	4729.4	
245.05	3199.6	
245.26	2956.6	
245.47	4780	
245.68	4841.4	
245.9	3759.4	
246.11	3074.7	
246.32	4397.7	
246.53	4779.3	
246.74	4551.3	
246.95	2595.5	
247.16	4301.4	
247.38	4586.8	
247.59	2597.5	
247.8	2979.1	
248.01	4220.9	
248.22	4550.6	
248.43	2771.6	
248.64	2932.7	
248.86	4205.8	
249.07	4384	
249.28	2740.2	
249.49	3063.8	
249.7	4930.8	
249.91	4968.4	
250.12	2583.9	
250.34	2630.3	
250.55	4669.4	
250.76	4554	
250.97	3075.4	
251.18	3097.9	
251.39	4934.9	
251.6	4737.6	
251.81	3149.8	
252.03	3037.8	
252.24	4384.7	
252.45	4835.3	
252.66	2676	
252.87	3191.4	
253.08	4536.3	
253.29	5677.7	
253.5	2686.3	
253.72	3543.7	
253.93	4485.7	
254.14	5201.2	
254.35	2874.7	
254.56	2944.3	
254.77	4731.5	
254.98	4304.8	
255.19	2917.7	
255.41	3471.3	
255.62	4684.4	
255.83	4971.8	
256.04	3170.3	
256.25	3124.5	
256.46	5322.7	
256.67	4340.3	
256.88	3125.9	
257.09	3344.3	
257.31	4218.8	
257.52	4311.7	
257.73	3770.3	
257.94	2863.1	
258.15	4528.1	
258.36	4504.8	
258.57	3440.6	
258.78	2341.5	
258.99	4891.9	
259.2	4421.6	
259.41	2817.3	
259.63	3000.3	
259.84	5111.7	
260.05	5281	
260.26	3618.8	
260.47	2798.9	
260.68	5001.8	
260.89	4519.2	
261.1	3407.1	
261.31	2758.6	
261.52	5053	
261.73	5193.6	
261.95	3611.3	
262.16	3175.7	
262.37	4995	
262.58	5075.5	
262.79	3573	
263	2905.4	
263.21	4513.7	
263.42	4135.5	
263.63	3147	
263.84	2849.4	
264.05	4932.2	
264.26	5177.9	
264.47	3452.9	
264.69	3134.1	
264.9	5141.1	
265.11	4700.8	
265.32	2780.5	
265.53	2863.7	
265.74	4651.6	
265.95	4132.1	
266.16	3044	
266.37	3245.3	
266.58	4681.7	
266.79	4334.9	
267	2901.3	
267.21	2644.6	
267.42	4218.1	
267.63	4536.3	
267.84	2951.8	
268.06	2605.7	
268.27	4899.4	
268.48	4944.5	
268.69	2929.3	
268.9	3337.5	
269.11	4990.9	
269.32	4154	
269.53	2983.2	
269.74	2784.6	
269.95	4678.9	
270.16	4160.1	
270.37	3033.7	
270.58	3381.2	
270.79	4465.9	
271	4930.8	
271.21	3143.6	
271.42	2994.8	
271.63	4732.2	
271.84	4201.7	
272.05	2477.4	
272.26	2728.6	
272.47	4569.7	
272.68	4609.3	
272.89	2917	
273.11	3225.6	
273.32	4397	
273.53	5106.3	
273.74	3123.2	
273.95	3090.4	
274.16	4891.9	
274.37	4542.4	
274.58	3273.3	
274.79	2697.2	
275	4706.9	
275.21	4961.5	
275.42	3820.8	
275.63	3297.2	
275.84	4786.1	
276.05	5690.6	
276.26	3123.8	
276.47	2937.5	
276.68	4516.5	
276.89	5267.4	
277.1	3267.9	
277.31	2681.5	
277.52	4696	
277.73	4962.2	
277.94	2662.4	
278.15	2871.3	
278.36	4724.7	
278.57	4360.8	
278.78	2882.2	
278.99	3138.9	
279.2	4434.5	
279.41	4281.6	
279.62	3654.9	
279.83	2757.9	
280.04	5343.8	
280.25	4276.8	
280.46	3577.1	
280.67	2993.4	
280.88	4332.8	
281.09	5014.8	
281.3	3105.4	
281.51	3762.1	
281.72	4334.9	
281.93	4847.5	
282.14	2822.1	
282.35	3014.6	
282.56	4931.5	
282.77	4829.1	
282.98	2892.4	
283.19	3416	
283.4	5758.9	
283.61	4474.1	
283.82	2749.7	
284.03	3605.8	
284.24	4698	
284.45	4918.5	
284.66	3598.3	
284.87	3396.9	
285.08	4989.5	
285.29	5028.4	
285.5	2640.5	
285.71	2980.5	
285.92	4915.1	
286.12	5407.3	
286.33	3525.2	
286.54	2977.7	
286.75	4857.1	
286.96	4472.1	
287.17	2744.3	
287.38	3433.1	
287.59	4409.3	
287.8	4351.9	
288.01	2960	
288.22	3228.3	
288.43	4826.4	
288.64	4169.7	
288.85	3380.5	
289.06	3269.9	
289.27	4839.4	
289.48	5157.5	
289.69	3599.6	
289.9	3279.5	
290.11	5046.9	
290.32	4419.5	
290.53	3383.2	
290.74	3137.5	
290.94	4854.4	
291.15	4902.8	
291.36	2842.6	
291.57	3278.8	
291.78	4454.3	
291.99	4144.4	
292.2	2770.2	
292.41	3162.7	
292.62	4964.3	
292.83	4760.8	
293.04	3852.2	
293.25	2809.1	
293.46	4448.9	
293.67	4895.3	
293.88	2770.9	
294.09	2764.8	
294.29	4330.8	
294.5	4623.6	
294.71	3009.1	
294.92	2855.6	
295.13	4437.9	
295.34	5303.6	
295.55	2588.6	
295.76	2566.1	
295.97	4842.1	
296.18	5257.8	
296.39	2690.3	
296.6	2850.1	
296.81	4642.7	
297.01	4825	
297.22	2997.5	
297.43	2870.6	
297.64	4434.5	
297.85	4253.6	
298.06	2440.5	
298.27	2604.3	
298.48	4536.3	
298.69	4353.3	
298.9	2991.4	
299.11	2843.3	
299.31	4283	
299.52	4287.8	
299.73	3203.7	
299.94	3183.9	
300.15	4661.2	
300.36	4337.6	
300.57	3156.6	
300.78	3063.1	
300.99	4455	
301.2	4642.1	
301.4	2831	
301.61	3028.3	
301.82	4833.9	
302.03	4816.8	
302.24	3368.2	
302.45	2693.8	
302.66	4798.4	
302.87	4931.5	
303.08	2871.3	
303.29	3640.6	
303.49	4416.8	
303.7	4519.2	
303.91	2563.4	
304.12	3571	
304.33	4192.2	
304.54	4672.8	
304.75	2818.7	
304.96	2762	
305.16	4807.3	
305.37	5218.2	
305.58	2585.2	
305.79	2635.1	
306	4786.1	
306.21	4145.1	
306.42	2863.7	
306.63	4072	
306.83	4420.2	
307.04	4847.5	
307.25	3054.9	
307.46	3014.6	
307.67	4104.1	
307.88	4786.1	
308.09	2866.5	
308.29	2882.9	
308.5	4613.4	
308.71	4941.7	
308.92	2989.4	
309.13	2728.6	
309.34	4520.5	
309.55	4509.6	
309.75	3435.1	
309.96	3196.9	
310.17	4818.9	
310.38	4319.8	
310.59	3263.8	
310.8	3186	
311.01	5240.8	
311.21	4484.4	
311.42	2787.3	
311.63	2820.7	
311.84	4404.5	
312.05	4576.5	
312.26	3101.3	
312.46	3321.1	
312.67	4450.9	
312.88	4204.5	
313.09	2762.7	
313.3	2704	
313.51	5068.7	
313.71	5342.5	
313.92	2748.4	
314.13	2824.8	
314.34	4719.2	
314.55	4529.4	
314.76	3394.2	
314.96	2979.1	
315.17	4717.2	
315.38	4812.7	
315.59	2736.8	
315.8	2658.3	
316.01	5090.6	
316.21	5125.4	
316.42	2687.6	
316.63	3013.2	
316.84	4467.3	
317.05	4967	
317.26	3187.3	
317.46	2914.3	
317.67	4542.4	
317.88	4840.7	
318.09	3401.7	
318.3	2590	
318.5	4389.5	
318.71	4687.8	
318.92	4173.8	
319.13	3211.2	
319.34	4922	
319.54	4956.8	
319.75	2618	
319.96	2475.3	
320.17	4737.6	
320.38	4932.9	
320.58	2563.4	
320.79	3002.3	
321	4952.7	
321.21	5013.4	
321.42	3022.1	
321.62	2565.4	
321.83	4314.4	
322.04	4532.8	
322.25	2932.7	
322.46	2783.9	
322.66	4536.9	
322.87	4769.7	
323.08	3278.1	
323.29	2660.3	
323.5	5323.4	
323.7	4215.4	
323.91	3551.2	
324.12	3261.7	
324.33	4706.2	
324.53	4794.3	
324.74	3125.9	
324.95	3303.4	
325.16	4217.5	
325.37	4485.1	
325.57	2737.5	
325.78	2789.3	
325.99	4689.2	
326.2	4199	
326.4	3778.5	
326.61	2625.5	
326.82	4525.3	
327.03	4579.9	
327.24	3741	
327.44	3516.4	
327.65	4819.6	
327.86	4031.8	
328.07	3173.7	
328.27	2684.2	
328.48	5053	
328.69	4240.7	
328.9	3761.4	
329.1	2875.3	
329.31	4516.5	
329.52	5063.3	
329.73	2796.8	
329.93	3033.7	
330.14	4601.8	
330.35	4722.6	
330.56	4216.1	
330.76	3285.6	
330.97	4476.2	
331.18	4607.2	
331.39	3026.2	
331.59	2533.3	
331.8	4967	
332.01	4981.3	
332.22	2871.9	
332.42	3164.1	
332.63	4638.6	
332.84	4334.9	
333.05	3096.5	
333.25	2810.5	
333.46	4362.9	
333.67	4546.5	
333.88	2960	
334.08	3082.9	
334.29	5810.8	
334.5	4941.7	
334.7	2702	
334.91	3727.3	
335.12	4236.6	
335.33	4804.5	
335.53	2994.1	
335.74	4181.3	
335.95	4461.8	
336.16	4236.6	
336.36	2967.5	
336.57	3381.2	
336.78	4227.7	
336.98	4877.6	
337.19	3588	
337.4	2919.7	
337.61	5393	
337.81	4248.9	
338.02	2835.1	
338.23	3491.8	
338.43	5053	
338.64	4350.6	
338.85	2788.7	
339.05	3531.4	
339.26	5165	
339.47	4159.4	
339.68	2739.5	
339.88	3865.9	
340.09	4768.4	
340.3	4857.1	
340.5	3169.6	
340.71	2530.6	
340.92	4266.6	
341.13	5040.7	
341.33	2680.8	
341.54	3204.4	
341.75	4747.2	
341.95	4396.3	
342.16	3096.5	
342.37	3224.9	
342.57	4293.2	
342.78	4506.9	
342.99	3303.4	
343.19	2590	
343.4	4835.9	
343.61	4766.3	
343.81	2921.8	
344.02	2695.8	
344.23	4805.2	
344.43	5062.6	
344.64	3359.4	
344.85	3306.1	
345.06	4800.4	
345.26	4935.6	
345.47	3147	
345.68	3653.6	
345.88	4162.2	
346.09	4965.6	
346.3	3270.6	
346.5	2513.5	
346.71	4546.5	
346.92	4344.4	
347.12	2686.9	
347.33	3147.7	
347.54	4950.6	
347.74	5181.4	
347.95	3098.6	
348.16	2498.5	
348.36	4478.9	
348.57	4325.3	
348.78	3186	
348.98	3306.8	
349.19	4552.6	
349.39	4147.1	
349.6	2660.3	
349.81	2810.5	
350.01	4842.1	
350.22	4405.9	
350.43	3138.2	
350.63	3601	
350.84	4567	
351.05	4382.7	
351.25	2783.2	
351.46	2685.6	
351.67	4913.1	
351.87	4422.9	
352.08	3023.5	
352.29	3325.9	
352.49	4954	
352.7	4694.6	
352.9	2759.3	
353.11	3329.3	
353.32	5395	
353.52	4472.1	
353.73	2780.5	
353.94	3443.3	
354.14	4887.8	
354.35	4698.7	
354.55	2897.2	
354.76	3106.1	
354.97	4814.1	
355.17	4582.7	
355.38	2783.2	
355.59	3589.4	
355.79	4435.2	
356	4674.8	
356.2	3110.2	
356.41	2856.9	
356.62	4306.2	
356.82	4634.6	
357.03	3339.6	
357.24	3087.7	
357.44	4481	
357.65	4551.3	
357.85	3906.8	
358.06	3207.1	
358.27	4250.2	
358.47	4485.7	
358.68	2808.4	
358.88	3393.5	
359.09	4866	
359.3	5130.2	
359.5	3900	
359.71	3517.7	
359.91	5370.5	
360.12	4977.9	
360.33	3426.9	
360.53	3760.8	
360.74	4621.6	
360.94	4625.7	
361.15	3621.5	
361.36	3063.8	
361.56	5257.1	
361.77	4749.9	
361.97	3977.2	
362.18	3238.5	
362.38	5251	
362.59	4471.4	
362.8	3036.5	
363	2962.7	
363.21	4356	
363.41	4859.8	
363.62	3452.2	
363.83	4117.1	
364.03	5046.9	
364.24	5522	
364.44	4270	
364.65	4184.7	
364.85	4743.1	
365.06	4587.4	
365.27	3235.8	
365.47	3307.5	
365.68	5541.8	
365.88	4823	
366.09	3541.6	
366.29	3265.8	
366.5	4950.6	
366.71	5257.8	
366.91	4218.1	
367.12	3631	
367.32	5784.1	
367.53	5197.1	
367.73	3723.2	
367.94	4405.9	
368.14	5234.6	
368.35	5723.4	
368.56	3640.6	
368.76	3508.2	
368.97	5369.1	
369.17	6273.6	
369.38	3289	
369.58	3527.3	
369.79	4565.6	
369.99	5547.3	
370.2	4242	
370.4	3596.9	
370.61	5033.2	
370.82	5941.8	
371.02	3445.4	
371.23	3007.8	
371.43	4606.6	
371.64	5617.6	
371.84	3588.7	
372.05	4339	
372.25	6341.2	
372.46	5276.9	
372.66	3654.9	
372.87	3604.4	
373.07	5425.1	
373.28	6571.2	
373.48	4300.7	
373.69	4102.8	
373.9	5158.8	
374.1	5065.3	
374.31	4336.9	
374.51	3954.6	
374.72	5683.1	
374.92	4926	
375.13	4511	
375.33	3938.2	
375.54	5542.5	
375.74	5121.3	
375.95	4164.2	
376.15	4942.4	
376.36	5631.9	
376.56	5436	
376.77	4174.4	
376.97	4437.9	
377.18	6382.8	
377.38	5776	
377.59	4683	
377.79	3908.2	
378	5565	
378.2	5808.7	
378.41	4051.6	
378.61	3889.8	
378.82	5973.2	
379.02	5469.4	
379.23	4189.5	
379.43	4845.5	
379.64	6141.2	
379.84	5856.5	
380.05	3979.9	
380.25	3900	
380.46	5824.4	
380.66	5539.8	
380.87	4896.7	
381.07	5044.8	
381.28	6214.2	
381.48	5778.7	
381.69	4054.3	
381.89	3981.9	
382.1	5068	
382.3	5822.4	
382.51	4780.6	
382.71	5312.4	
382.91	5738.4	
383.12	6063.4	
383.32	4203.8	
383.53	4301.4	
383.73	5668.8	
383.94	5524.7	
384.14	4277.5	
384.35	3676.1	
384.55	5366.4	
384.76	5670.8	
384.96	4146.5	
385.17	4291.9	
385.37	5689.3	
385.58	5036	
385.78	4285	
385.98	3517.7	
386.19	5244.8	
386.39	5593	
386.6	3968.3	
386.8	4094.6	
387.01	5646.2	
387.21	5655.8	
387.42	4386.7	
387.62	4773.8	
387.83	5311.1	
388.03	5594.4	
388.23	4306.2	
388.44	4816.8	
388.64	5175.2	
388.85	5250.3	
389.05	4606.6	
389.26	4998.4	
389.46	6699.6	
389.67	6315.9	
389.87	4657.8	
390.07	4693.9	
390.28	5646.2	
390.48	5338.4	
390.69	4210.6	
390.89	4292.5	
391.1	5552.7	
391.3	6144.6	
391.5	5110.4	
391.71	5447.6	
391.91	6051.1	
392.12	6614.3	
392.32	5184.1	
392.53	4628.4	
392.73	5598.5	
392.93	5716.6	
393.14	4374.5	
393.34	5055.1	
393.55	5907	
393.75	5599.1	
393.95	4332.8	
394.16	4252.3	
394.36	5474.9	
394.57	5917.3	
394.77	3960.1	
394.98	4192.9	
395.18	5511.8	
395.38	5623	
395.59	4978.6	
395.79	4360.1	
396	5812.1	
396.2	6080.4	
396.4	5031.2	
396.61	4941.7	
396.81	6191.7	
397.02	5768.4	
397.22	5282.4	
397.42	5228.5	
397.63	6385.6	
397.83	5798.5	
398.04	4461.8	
398.24	4911	
398.44	6137.1	
398.65	5512.4	
398.85	4383.3	
399.05	4387.4	
399.26	5881.1	
399.46	7032.7	
399.67	4824.3	
399.87	4622.3	
400.07	6181.5	
400.28	6356.9	
400.48	4689.2	
400.69	5451	
400.89	6545.3	
401.09	6910.5	
401.3	4707.6	
401.5	5455.1	
401.7	7120.8	
401.91	7219.1	
402.11	5067.4	
402.32	5059.2	
402.52	6640.2	
402.72	6518	
402.93	5221	
403.13	4374.5	
403.33	7058	
403.54	5864.7	
403.74	4777.2	
403.94	5255.8	
404.15	5909.8	
404.35	6807.4	
404.56	4524	
404.76	5711.8	
404.96	6390.3	
405.17	6197.8	
405.37	5280.3	
405.57	5110.4	
405.78	6604.7	
405.98	6087.2	
406.18	4900.1	
406.39	5361.6	
406.59	6577.4	
406.79	6066.1	
407	4541.7	
407.2	4526.7	
407.4	6703.7	
407.61	6608.1	
407.81	4575.2	
408.01	6307.1	
408.22	5880.4	
408.42	7348.8	
408.62	5791.7	
408.83	5541.8	
409.03	6675.7	
409.23	6663.4	
409.44	5754.8	
409.64	5935	
409.84	7620.5	
410.05	7605.5	
410.25	6018.3	
410.45	5782.8	
410.66	7431.4	
410.86	8985.8	
411.06	6439.5	
411.27	6171.9	
411.47	9022.7	
411.67	7655.3	
411.88	6432.7	
412.08	6787.7	
412.28	8039	
412.49	8514.8	
412.69	6483.9	
412.89	6517.3	
413.09	8413.1	
413.3	8377.6	
413.5	6546.7	
413.7	6385.6	
413.91	7757.7	
414.11	8511.4	
414.31	6520	
414.52	6970.6	
414.72	8264.9	
414.92	8212.4	
415.12	6563.7	
415.33	6917.4	
415.53	8492.9	
415.73	8617.2	
415.94	7115.3	
416.14	6704.4	
416.34	7995.3	
416.55	7678.5	
416.75	7608.9	
416.95	7261.4	
417.15	8745.5	
417.36	8982.4	
417.56	7844.4	
417.76	7163.8	
417.97	8914.8	
418.17	8862.9	
418.37	6985.6	
418.57	7074.4	
418.78	8633.6	
418.98	8340	
419.18	7631.4	
419.38	7544	
419.59	8400.1	
419.79	7982.3	
419.99	6821.1	
420.2	6922.1	
420.4	8643.1	
420.6	8772.8	
420.8	6839.5	
421.01	6705.7	
421.21	8611	
421.41	8611.7	
421.61	7030.7	
421.82	6832	
422.02	8344.1	
422.22	8862.9	
422.42	7341.3	
422.63	6960.4	
422.83	8295.6	
423.03	9085.5	
423.23	7055.9	
423.44	6411.5	
423.64	8251.3	
423.84	7911.3	
424.04	6717.3	
424.25	6451.1	
424.45	8690.2	
424.65	8662.9	
424.85	6354.2	
425.06	6607.4	
425.26	8887.5	
425.46	7969.3	
425.66	6899.6	
425.87	6752.2	
426.07	8566.7	
426.27	8327	
426.47	6700.3	
426.67	6260	
426.88	8695.7	
427.08	8271.7	
427.28	6953.5	
427.48	6173.9	
427.69	7597.3	
427.89	7955.7	
428.09	6801.3	
428.29	6198.5	
428.5	8396.7	
428.7	8075.8	
428.9	6316.6	
429.1	6603.3	
429.3	8101.8	
429.51	8283.4	
429.71	6406	
429.91	7067.5	
430.11	8450.6	
430.31	8867.7	
430.52	6718.7	
430.72	7011.6	
430.92	8844.5	
431.12	8436.3	
431.32	6584.9	
431.53	6675	
431.73	7797.3	
431.93	8800.8	
432.13	6380.1	
432.33	6397.9	
432.54	8102.4	
432.74	8205.5	
432.94	6492.7	
433.14	7101.7	
433.34	8507.9	
433.55	8305.9	
433.75	7136.5	
433.95	8364.6	
434.15	8486.8	
434.35	8241.7	
434.56	6574	
434.76	6384.9	
434.96	8356.4	
435.16	8625.4	
435.36	6560.3	
435.56	7448.5	
435.77	8374.1	
435.97	8520.9	
436.17	7874.4	
436.37	7390.4	
436.57	8299.7	
436.78	8391.2	
436.98	8112.7	
437.18	7825.3	
437.38	8869.1	
437.58	8358.4	
437.78	7800	
437.99	6974	
438.19	8725	
438.39	9571.5	
438.59	6796.5	
438.79	6394.4	
438.99	9042.5	
439.2	8078.6	
439.4	6249	
439.6	6414.2	
439.8	8423.3	
440	9151	
440.2	7287.4	
440.4	7444.4	
440.61	9041.8	
440.81	9436.4	
441.01	7064.1	
441.21	7582.3	
441.41	9552.4	
441.61	9015.2	
441.81	7903.8	
442.02	8525.7	
442.22	9733.3	
442.42	9162.6	
442.62	7065.5	
442.82	7026.6	
443.02	9445.2	
443.22	8898.4	
443.43	7474.4	
443.63	7103.7	
443.83	8744.1	
444.03	8675.9	
444.23	8049.2	
444.43	7746.1	
444.63	9225.4	
444.83	9824.8	
445.04	7367.9	
445.24	8203.5	
445.44	9260.9	
445.64	9268.4	
445.84	7606.2	
446.04	7733.8	
446.24	8641.1	
446.44	9347.6	
446.65	6920.8	
446.85	7331	
447.05	8419.9	
447.25	9249.3	
447.45	7295.5	
447.65	6862.7	
447.85	8802.9	
448.05	8416.5	
448.25	7552.2	
448.46	7466.9	
448.66	8828.1	
448.86	8545.5	
449.06	6916.7	
449.26	7532.4	
449.46	9121	
449.66	8447.9	
449.86	7439.6	
450.06	7226.6	
450.26	8586.5	
450.47	9046.6	
450.67	7454.6	
450.87	7662.8	
451.07	9213.8	
451.27	8934.6	
451.47	6965.1	
451.67	7682.6	
451.87	8748.9	
452.07	9374.9	
452.27	7253.9	
452.47	7121.5	
452.67	8910	
452.88	9159.2	
453.08	6711.9	
453.28	8058.8	
453.48	9740.8	
453.68	8709.3	
453.88	7142.6	
454.08	7227.3	
454.28	9100.5	
454.48	8902.5	
454.68	7619.1	
454.88	7955	
455.08	9257.5	
455.28	9161.9	
455.48	7023.2	
455.68	7669.6	
455.89	9681.4	
456.09	9454.8	
456.29	7497.6	
456.49	7595.9	
456.69	9687.6	
456.89	8986.5	
457.09	7889.5	
457.29	8174.8	
457.49	9364.7	
457.69	9508.7	
457.89	8002.1	
458.09	7438.9	
458.29	9396.8	
458.49	9928.6	
458.69	8220.5	
458.89	7915.4	
459.09	10145	
459.29	10162	
459.49	7906.5	
459.69	8420.6	
459.9	9720.3	
460.1	9577.7	
460.3	7724.9	
460.5	7643	
460.7	9727.9	
460.9	9394	
461.1	7515.4	
461.3	8400.1	
461.5	10337	
461.7	10060	
461.9	8036.9	
462.1	8161.8	
462.3	9859.6	
462.5	10144	
462.7	7957	
462.9	8235.6	
463.1	10836	
463.3	10768	
463.5	8320.2	
463.7	9102.5	
463.9	10079	
464.1	10449	
464.3	8769.4	
464.5	8682.7	
464.7	10601	
464.9	10451	
465.1	9611.1	
465.3	9037.7	
465.5	10763	
465.7	10968	
465.9	9238.4	
466.1	8972.2	
466.3	10899	
466.5	10543	
466.7	9763.3	
466.9	8900.5	
467.1	10815	
467.3	11346	
467.5	9873.3	
467.7	9028.1	
467.9	11502	
468.1	12043	
468.3	9478.7	
468.5	9944.9	
468.7	10690	
468.9	10673	
469.1	9364.7	
469.3	9828.2	
469.5	12227	
469.7	10594	
469.9	9525.1	
470.1	9201.5	
470.3	10943	
470.5	10880	
470.7	9925.8	
470.9	9232.9	
471.1	10725	
471.3	10690	
471.5	9038.4	
471.69	10244	
471.89	10560	
472.09	10025	
472.29	9519	
472.49	9460.9	
472.69	10333	
472.89	10743	
473.09	8799.4	
473.29	8802.2	
473.49	10403	
473.69	10198	
473.89	9359.9	
474.09	8806.3	
474.29	11156	
474.49	10778	
474.69	9403.6	
474.89	8962.6	
475.09	10321	
475.29	10275	
475.49	8486.8	
475.69	8772.8	
475.88	11254	
476.08	10493	
476.28	8578.9	
476.48	8536.6	
476.68	10744	
476.88	10413	
477.08	8426.7	
477.28	8780.3	
477.48	10101	
477.68	10355	
477.88	8333.2	
478.08	8516.8	
478.28	10946	
478.48	10162	
478.67	8632.2	
478.87	8075.8	
479.07	10682	
479.27	10208	
479.47	8699.1	
479.67	8710.7	
479.87	10509	
480.07	10663	
480.27	8241	
480.47	9140.8	
480.67	10150	
480.87	10782	
481.06	8347.5	
481.26	9056.1	
481.46	10255	
481.66	10097	
481.86	8710.7	
482.06	9398.1	
482.26	10061	
482.46	10607	
482.66	8646.5	
482.86	8257.4	
483.05	10279	
483.25	9793.4	
483.45	10170	
483.65	8607.6	
483.85	9833.7	
484.05	10187	
484.25	8899.8	
484.45	9277.3	
484.65	10606	
484.84	10791	
485.04	8481.3	
485.24	8502.5	
485.44	11044	
485.64	9826.2	
485.84	8297.7	
486.04	9103.9	
486.24	10176	
486.44	10266	
486.63	8260.1	
486.83	8930.5	
487.03	10178	
487.23	10383	
487.43	8278.6	
487.63	9962	
487.83	10361	
488.02	10875	
488.22	9170.1	
488.42	9489.6	
488.62	11021	
488.82	10213	
489.02	8782.4	
489.22	8879.3	
489.41	10727	
489.61	10789	
489.81	8679.3	
490.01	8704.5	
490.21	10793	
490.41	11420	
490.61	8733.2	
490.8	8724.3	
491	10572	
491.2	9978.4	
491.4	9022	
491.6	8460.8	
491.8	10424	
491.99	10366	
492.19	8291.5	
492.39	8445.1	
492.59	10694	
492.79	10775	
492.99	9024	
493.18	8594.6	
493.38	10933	
493.58	11473	
493.78	9229.5	
493.98	8950.3	
494.18	10845	
494.37	10486	
494.57	9576.3	
494.77	9353.1	
494.97	11251	
495.17	11386	
495.37	9175.6	
495.56	9465.7	
495.76	11514	
495.96	11407	
496.16	10202	
496.36	9568.8	
496.55	11680	
496.75	11238	
496.95	9727.9	
497.15	9762	
497.35	11516	
497.54	11417	
497.74	9435	
497.94	10550	
498.14	12020	
498.34	11831	
498.53	9360.6	
498.73	9903.3	
498.93	11202	
499.13	11519	
499.33	9869.8	
499.52	10150	
499.72	11662	
499.92	11746	
500.12	9636.4	
500.32	9854.1	
500.51	11874	
500.71	11626	
500.91	10408	
501.11	9985.9	
501.31	11693	
501.5	12000	
501.7	10565	
501.9	9915.6	
502.1	11544	
502.29	11790	
502.49	10194	
502.69	10341	
502.89	11548	
503.09	11613	
503.28	9241.1	
503.48	9430.9	
503.68	11106	
503.88	10877	
504.07	9895.1	
504.27	9581.8	
504.47	11255	
504.67	11307	
504.86	9889	
505.06	9589.3	
505.26	10971	
505.46	11974	
505.65	9437	
505.85	9630.2	
506.05	10811	
506.25	11098	
506.44	8888.2	
506.64	9449.3	
506.84	10516	
507.04	11101	
507.23	9012.4	
507.43	9146.9	
507.63	11757	
507.83	10533	
508.02	9235	
508.22	8951.7	
508.42	11957	
508.62	10464	
508.81	8893.6	
509.01	9342.8	
509.21	10269	
509.4	10452	
509.6	9110	
509.8	8710	
510	10460	
510.19	11303	
510.39	8647.2	
510.59	8722.3	
510.79	10389	
510.98	11244	
511.18	8991.9	
511.38	8968.7	
511.57	10966	
511.77	10623	
511.97	9256.1	
512.17	8682.7	
512.36	10857	
512.56	10643	
512.76	8666.3	
512.95	8435.6	
513.15	10970	
513.35	9831.6	
513.55	9119.6	
513.74	8605.6	
513.94	10862	
514.14	10414	
514.33	9280	
514.53	9067.7	
514.73	10434	
514.92	10537	
515.12	8725.7	
515.32	8726.4	
515.51	10671	
515.71	10720	
515.91	9955.2	
516.11	8713.4	
516.3	11687	
516.5	10381	
516.7	9111.4	
516.89	9459.6	
517.09	10343	
517.29	10320	
517.48	9310.7	
517.68	8830.2	
517.88	10099	
518.07	10662	
518.27	9258.9	
518.47	8439	
518.66	10934	
518.86	10064	
519.06	8426.7	
519.25	8621.9	
519.45	10243	
519.65	11301	
519.84	9096.4	
520.04	9644.6	
520.24	11490	
520.43	10657	
520.63	8949.6	
520.83	8858.1	
521.02	10134	
521.22	10455	
521.42	8975.6	
521.61	9246.6	
521.81	10165	
522.01	10279	
522.2	8866.3	
522.4	8676.6	
522.6	10730	
522.79	9805	
522.99	8831.5	
523.18	8402.8	
523.38	10497	
523.58	10604	
523.77	9802.9	
523.97	8516.1	
524.17	11837	
524.36	11434	
524.56	9525.8	
524.76	9243.2	
524.95	10707	
525.15	10492	
525.34	9127.8	
525.54	9271.2	
525.74	11029	
525.93	10366	
526.13	10021	
526.33	9257.5	
526.52	11329	
526.72	10945	
526.91	10011	
527.11	9665	
527.31	11217	
527.5	11547	
527.7	9565.4	
527.89	8972.2	
528.09	10801	
528.29	11187	
528.48	9861.7	
528.68	9544.2	
528.87	11407	
529.07	11245	
529.27	9527.8	
529.46	9161.2	
529.66	11192	
529.85	11396	
530.05	9188.6	
530.25	9682.1	
530.44	11957	
530.64	10940	
530.83	9295.7	
531.03	9603.6	
531.23	11334	
531.42	11032	
531.62	9908.8	
531.81	9557.9	
532.01	11597	
532.21	11746	
532.4	9557.9	
532.6	9715.6	
532.79	12096	
532.99	11581	
533.18	9876.7	
533.38	10446	
533.58	11502	
533.77	11772	
533.97	9870.5	
534.16	10385	
534.36	12093	
534.55	11366	
534.75	10395	
534.95	9927.2	
535.14	12086	
535.34	11381	
535.53	9710.1	
535.73	10933	
535.92	12398	
536.12	11387	
536.31	9720.3	
536.51	10538	
536.71	11619	
536.9	11222	
537.1	9706	
537.29	9861	
537.49	11904	
537.68	11267	
537.88	10043	
538.07	9508	
538.27	11391	
538.46	12067	
538.66	9440.5	
538.86	9805.7	
539.05	11510	
539.25	11737	
539.44	10120	
539.64	9616.6	
539.83	11319	
540.03	11981	
540.22	9527.2	
540.42	9603.6	
540.61	11366	
540.81	11590	
541	9739.5	
541.2	10327	
541.39	10895	
541.59	11138	
541.78	10167	
541.98	9410.4	
542.18	10838	
542.37	10817	
542.57	9674.6	
542.76	9955.2	
542.96	10821	
543.15	11176	
543.35	9598.1	
543.54	9110	
543.74	10960	
543.93	10907	
544.13	9357.2	
544.32	9987.3	
544.52	11161	
544.71	10512	
544.91	8712.1	
545.1	9499.8	
545.3	10611	
545.49	10865	
545.69	8703.9	
545.88	9033.6	
546.08	11646	
546.27	11226	
546.47	9339.4	
546.66	8836.3	
546.86	11024	
547.05	11348	
547.24	9012.4	
547.44	8880	
547.63	10361	
547.83	11085	
548.02	9204.9	
548.22	9344.2	
548.41	10208	
548.61	11069	
548.8	8813.8	
549	8751.7	
549.19	10651	
549.39	10813	
549.58	8521.6	
549.78	8959.2	
549.97	10801	
550.17	10290	
550.36	9369.5	
550.55	10073	
550.75	10309	
550.94	10927	
551.14	8566.7	
551.33	8819.9	
551.53	9953.8	
551.72	10512	
551.92	8818.6	
552.11	8712.1	
552.31	10623	
552.5	10438	
552.69	9754.5	
552.89	8340.7	
553.08	10572	
553.28	10276	
553.47	8580.3	
553.67	9290.3	
553.86	10894	
554.06	9670.5	
554.25	8071	
554.44	8485.4	
554.64	11379	
554.83	10987	
555.03	8415.1	
555.22	8602.2	
555.42	10552	
555.61	10384	
555.8	8591.2	
556	8622.6	
556.19	9780.4	
556.39	10340	
556.58	8483.4	
556.78	8491.6	
556.97	10383	
557.16	9964.7	
557.36	9429.5	
557.55	8337.3	
557.75	9549.7	
557.94	10761	
558.13	8407.6	
558.33	8128.4	
558.52	10583	
558.72	9598.8	
558.91	8160.5	
559.1	8282.7	
559.3	9521.7	
559.49	9324.4	
559.69	8040.3	
559.88	8443.8	
560.07	10032	
560.27	10408	
560.46	8533.9	
560.66	8654	
560.85	9895.8	
561.04	9358.5	
561.24	8066.9	
561.43	8146.8	
561.63	9484.1	
561.82	9635.7	
562.01	8906.6	
562.21	8370.7	
562.4	9934.7	
562.59	10537	
562.79	8224.6	
562.98	7942.7	
563.18	9811.8	
563.37	10802	
563.56	8558.5	
563.76	8058.1	
563.95	9605.7	
564.14	9439.1	
564.34	8261.5	
564.53	7992.5	
564.73	9962.7	
564.92	10060	
565.11	8353	
565.31	7985	
565.5	10346	
565.69	9437.7	
565.89	8168.7	
566.08	8340	
566.27	10194	
566.47	10365	
566.66	8696.4	
566.85	7832.1	
567.05	9953.8	
567.24	9613.2	
567.44	8023.3	
567.63	8879.3	
567.82	10099	
568.02	9770.9	
568.21	8074.5	
568.4	8244.4	
568.6	9704	
568.79	9706.7	
568.98	7957.7	
569.18	7959.1	
569.37	9755.8	
569.56	11090	
569.76	8229.4	
569.95	8803.5	
570.14	10126	
570.34	9886.2	
570.53	7847.8	
570.72	7886	
570.91	10266	
571.11	9773.6	
571.3	8162.5	
571.49	8743.5	
571.69	9786.6	
571.88	9357.9	
572.07	8484.7	
572.27	8490.2	
572.46	9287.5	
572.65	9993.4	
572.85	8005.5	
573.04	8205.5	
573.23	10285	
573.43	9798.8	
573.62	7836.2	
573.81	8280.6	
574	9822.7	
574.2	9661	
574.39	8146.8	
574.58	8203.5	
574.78	10415	
574.97	9902.6	
575.16	8480	
575.36	8594.6	
575.55	10253	
575.74	10338	
575.93	7856	
576.13	8619.9	
576.32	9738.1	
576.51	10190	
576.71	8314.1	
576.9	9080.7	
577.09	10335	
577.28	9955.2	
577.48	8433.5	
577.67	7815.7	
577.86	9766.8	
578.05	9991.4	
578.25	8248.5	
578.44	8389.8	
578.63	9862.3	
578.83	10623	
579.02	7980.9	
579.21	8934.6	
579.4	9998.2	
579.6	9925.8	
579.79	8445.8	
579.98	9745.6	
580.17	10209	
580.37	10289	
580.56	7967.3	
580.75	8489.5	
580.94	10484	
581.14	10441	
581.33	8751	
581.52	8151.6	
581.71	10060	
581.91	10740	
582.1	8033.5	
582.29	8250.6	
582.48	9920.4	
582.68	9903.3	
582.87	8695	
583.06	8469	
583.25	10253	
583.45	9777	
583.64	8931.9	
583.83	9415.9	
584.02	9962.7	
584.21	10279	
584.41	8740	
584.6	8412.4	
584.79	10052	
584.98	10359	
585.18	8120.2	
585.37	7929.7	
585.56	9725.8	
585.75	10176	
585.94	8194.6	
586.14	8613.1	
586.33	10525	
586.52	9895.1	
586.71	8366.6	
586.91	8198.7	
587.1	9507.4	
587.29	10142	
587.48	8049.2	
587.67	7972.7	
587.87	9994.8	
588.06	9822.7	
588.25	8867.7	
588.44	8419.9	
588.63	9640.5	
588.83	9964.7	
589.02	7961.8	
589.21	7782.3	
589.4	9350.3	
589.59	9256.8	
589.78	7185	
589.98	7203.4	
590.17	8744.1	
590.36	9050	
590.55	6672.3	
590.74	7182.2	
590.94	9698.5	
591.13	8776.2	
591.32	7051.8	
591.51	6705	
591.7	9058.2	
591.89	8849.3	
592.09	6765.1	
592.28	7177.4	
592.47	8209.6	
592.66	9621.4	
592.85	6946	
593.05	6950.1	
593.24	8767.4	
593.43	9306.7	
593.62	7078.5	
593.81	7326.3	
594	8903.2	
594.19	8826.1	
594.39	6976.1	
594.58	6909.2	
594.77	9093.7	
594.96	9367.4	
595.15	7046.4	
595.34	7421.8	
595.54	8946.2	
595.73	8338.6	
595.92	6525.5	
596.11	7185	
596.3	9218.6	
596.49	8418.5	
596.68	7063.4	
596.88	7339.9	
597.07	9079.3	
597.26	8325.7	
597.45	6742.6	
597.64	7548.1	
597.83	8467.7	
598.02	8955.1	
598.22	6874.3	
598.41	7292.8	
598.6	8764.6	
598.79	8468.4	
598.98	6965.1	
599.17	7583.6	
599.36	8862.9	
599.55	9491	
599.74	8097.7	
599.94	8052.6	
600.13	9151.7	
600.32	8368	
600.51	6760.3	
600.7	6776.7	
600.89	9574.3	
601.08	9647.3	
601.27	6708.5	
601.47	7316	
601.66	9047.2	
601.85	9446.6	
602.04	7218.4	
602.23	7235.5	
602.42	8458.1	
602.61	8870.4	
602.8	6982.9	
602.99	6809.5	
603.18	8695	
603.37	8751.7	
603.57	7344	
603.76	7726.3	
603.95	9265.7	
604.14	8962.6	
604.33	6995.9	
604.52	7050.5	
604.71	8880	
604.9	8570.1	
605.09	7552.2	
605.28	7496.2	
605.47	9276.6	
605.66	8857.5	
605.86	7290.8	
606.05	6978.8	
606.24	9196.7	
606.43	8222.6	
606.62	7159	
606.81	7623.9	
607	9085.5	
607.19	8585.8	
607.38	6740.5	
607.57	6840.9	
607.76	8424	
607.95	7951.6	
608.14	7131.7	
608.33	7525.6	
608.52	8396.7	
608.72	9024	
608.91	6684.6	
609.1	6547.4	
609.29	8444.5	
609.48	8045.1	
609.67	7230	
609.86	6652.5	
610.05	8153.6	
610.24	8336.6	
610.43	6548.7	
610.62	6252.4	
610.81	9094.3	
611	8987.9	
611.19	6581.5	
611.38	7078.5	
611.57	8521.6	
611.76	9296.4	
611.95	6402	
612.14	6389.7	
612.33	8439.7	
612.52	8149.6	
612.71	6773.3	
612.9	6188.3	
613.09	7869.7	
613.28	9469.8	
613.47	6719.4	
613.66	7196.6	
613.85	8491.6	
614.04	8108.6	
614.24	6655.2	
614.43	6154.1	
614.62	8576.2	
614.81	8432.9	
615	6879.8	
615.19	6939.9	
615.38	8127	
615.57	8303.8	
615.76	6863.4	
615.95	7557	
616.14	8639	
616.33	8288.8	
616.52	7148.8	
616.71	7105.1	
616.9	8482.7	
617.09	8432.9	
617.28	6659.3	
617.47	7357.7	
617.66	7909.9	
617.85	7983.7	
618.04	7181.5	
618.22	6905.8	
618.41	8241	
618.6	8848.6	
618.79	6924.9	
618.98	6604	
619.17	9080	
619.36	7868.3	
619.55	6879.8	
619.74	6937.8	
619.93	8595.3	
620.12	8123.6	
620.31	7287.4	
620.5	7207.5	
620.69	9189.2	
620.88	9243.8	
621.07	7804.1	
621.26	7218.4	
621.45	8755.1	
621.64	8729.8	
621.83	7231.4	
622.02	6783.6	
622.21	8675.2	
622.4	8654	
622.59	7656.7	
622.78	7449.1	
622.97	8376.9	
623.16	8965.3	
623.35	7283.9	
623.54	6506.4	
623.72	8486.8	
623.91	8589.2	
624.1	7392.5	
624.29	6575.3	
624.48	9236.3	
624.67	8821.3	
624.86	7197.2	
625.05	6683.2	
625.24	9370.1	
625.43	8320.2	
625.62	8350.9	
625.81	6861.4	
626	8911.4	
626.19	8512.7	
626.38	7215.7	
626.56	6876.4	
626.75	8370	
626.94	8849.3	
627.13	7314.7	
627.32	6453.1	
627.51	8744.1	
627.7	9358.5	
627.89	6541.9	
628.08	7299.6	
628.27	8041	
628.46	8356.4	
628.65	6683.9	
628.83	6416.3	
629.02	8675.9	
629.21	8041	
629.4	6898.2	
629.59	7065.5	
629.78	8082.6	
629.97	8808.3	
630.16	7073	
630.35	6721.4	
630.54	9237	
630.72	8911.4	
630.91	6806.1	
631.1	7055.3	
631.29	8511.4	
631.48	8562.6	
631.67	7227.3	
631.86	6825.9	
632.05	8382.3	
632.24	8318.8	
632.42	6601.3	
632.61	6987	
632.8	8338.6	
632.99	8139.3	
633.18	6954.2	
633.37	7208.8	
633.56	8535.9	
633.75	8458.1	
633.93	7018.4	
634.12	6831.3	
634.31	9177.6	
634.5	8781	
634.69	6868.2	
634.88	7180.2	
635.07	8343.4	
635.25	8791.2	
635.44	7418.4	
635.63	7499.7	
635.82	8129.8	
636.01	7790.5	
636.2	7264.8	
636.39	7008.8	
636.57	9080.7	
636.76	8601.5	
636.95	6687.3	
637.14	7490.1	
637.33	8542.1	
637.52	9029.5	
637.7	6522.1	
637.89	7256	
638.08	8313.4	
638.27	9213.8	
638.46	7151.5	
638.65	7396.6	
638.83	9114.8	
639.02	8178.2	
639.21	7032	
639.4	7362.4	
639.59	8420.6	
639.78	8244.4	
639.96	6623.8	
640.15	6640.2	
640.34	8367.3	
640.53	8352.3	
640.72	6434	
640.91	6595.1	
641.09	7878.5	
641.28	8804.2	
641.47	6568.5	
641.66	7097.6	
641.85	8314.8	
642.03	8456.1	
642.22	6935.8	
642.41	6576	
642.6	7921.5	
642.79	7475.1	
642.97	6522.1	
643.16	6849.8	
643.35	7796.6	
643.54	7778.2	
643.73	6397.9	
643.91	6750.1	
644.1	7592.5	
644.29	8049.9	
644.48	6420.4	
644.67	6423.1	
644.85	7618.4	
645.04	7958.4	
645.23	6023.8	
645.42	6279.1	
645.6	7549.5	
645.79	8269	
645.98	6074.3	
646.17	5507	
646.36	7307.2	
646.54	7606.8	
646.73	6565.1	
646.92	5739.8	
647.11	7293.5	
647.29	8062.9	
647.48	5886.5	
647.67	5686.5	
647.86	8168.7	
648.05	8192.6	
648.23	5995.1	
648.42	6836.8	
648.61	7765.2	
648.8	7563.8	
648.98	5800.5	
649.17	6056.5	
649.36	7234.8	
649.55	7035.5	
649.73	5814.9	
649.92	6311.2	
650.11	7276.4	
650.3	7589.1	
650.48	5927.5	
650.67	5850.4	
650.86	7619.1	
651.05	6895.5	
651.23	5784.8	
651.42	5776	
651.61	7243.7	
651.79	7157.7	
651.98	5996.5	
652.17	5753.4	
652.36	7533.8	
652.54	6948.8	
652.73	5837.4	
652.92	5611.4	
653.11	7509.9	
653.29	7572.7	
653.48	5210.7	
653.67	5858.6	
653.85	7357.7	
654.04	8043.7	
654.23	5946.6	
654.42	5666	
654.6	7019.1	
654.79	7385.7	
654.98	5266	
655.16	5637.4	
655.35	6737.1	
655.54	6507.1	
655.73	5309.7	
655.91	5120.6	
656.1	7292.8	
656.29	6508.4	
656.47	5012.7	
656.66	6197.8	
656.85	6857.3	
657.03	6801.3	
657.22	5418.2	
657.41	5538.4	
657.59	6918	
657.78	6780.1	
657.97	5233.9	
658.16	5707	
658.34	7370	
658.53	7686.7	
658.72	6261.3	
658.9	6568.5	
659.09	7081.9	
659.28	7088	
659.46	5556.1	
659.65	5512.4	
659.84	6880.5	
660.02	7285.3	
660.21	5537	
660.4	5354.1	
660.58	7473.7	
660.77	7088.7	
660.96	5843.5	
661.14	5215.5	
661.33	7804.1	
661.52	7802.8	
661.7	5205.9	
661.89	7406.1	
662.08	6776	
662.26	6376	
662.45	5291.3	
662.64	5437.4	
662.82	7290.1	
663.01	6703	
663.2	5385.5	
663.38	5912.5	
663.57	7257.3	
663.75	7062.8	
663.94	5634.6	
664.13	6402.6	
664.31	6797.2	
664.5	7271.7	
664.69	5703.6	
664.87	6094.8	
665.06	6624.5	
665.25	7142.6	
665.43	6218.3	
665.62	6263.4	
665.8	7223.2	
665.99	6822.5	
666.18	5558.2	
666.36	5671.5	
666.55	7229.3	
666.74	7127.6	
666.92	5328.8	
667.11	6440.2	
667.29	6906.4	
667.48	7257.3	
667.67	6081.8	
667.85	5512.4	
668.04	6864.1	
668.22	6778.1	
668.41	5652.4	
668.6	5793	
668.78	6703	
668.97	6910.5	
669.15	5838.8	
669.34	5141.8	
669.53	6757.6	
669.71	6901	
669.9	5254.4	
670.08	5628.5	
670.27	6565.8	
670.46	7094.2	
670.64	5850.4	
670.83	5937.7	
671.01	6501.6	
671.2	6976.1	
671.38	5262.6	
671.57	5303.6	
671.76	7393.2	
671.94	7703.1	
672.13	5208	
672.31	5884.5	
672.5	7251.9	
672.69	6621.8	
672.87	5397.8	
673.06	5555.5	
673.24	7108.5	
673.43	6722.1	
673.61	5705.6	
673.8	5460.6	
673.98	7139.2	
674.17	7217	
674.36	5867.4	
674.54	5786.9	
674.73	6814.3	
674.91	7133.1	
675.1	5547.3	
675.28	5203.9	
675.47	6777.4	
675.65	7209.5	
675.84	5528.8	
676.03	5729.5	
676.21	6804	
676.4	6269.5	
676.58	6021	
676.77	5843.5	
676.95	7716.1	
677.14	6622.4	
677.32	5258.5	
677.51	5132.9	
677.69	7152.2	
677.88	6533.7	
678.06	5171.1	
678.25	5334.3	
678.44	6815.6	
678.62	6650.4	
678.81	5058.5	
678.99	5730.2	
679.18	7396.6	
679.36	6988.4	
679.55	5541.1	
679.73	5865.4	
679.92	7039.6	
680.1	6725.5	
680.29	6239.5	
680.47	5327.4	
680.66	6621.1	
680.84	7168.6	
681.03	4999.1	
681.21	5680.4	
681.4	6672.3	
681.58	6539.8	
681.77	5239.4	
681.95	5221	
682.14	7138.5	
682.32	7366.5	
682.51	5803.9	
682.69	4982	
682.88	6588.3	
683.06	6903	
683.25	5620.3	
683.43	5929.6	
683.62	6827.2	
683.8	7029.3	
683.99	5963.7	
684.17	5545.9	
684.36	7557.7	
684.54	6642.9	
684.73	4985.4	
684.91	5036	
685.1	6713.9	
685.28	6381.5	
685.46	5300.1	
685.65	5205.9	
685.83	6711.9	
686.02	6339.8	
686.2	4893.3	
686.39	4904.9	
686.57	6053.1	
686.76	7097.6	
686.94	4887.1	
687.13	5071.5	
687.31	6669.6	
687.5	6457.2	
687.68	4663.9	
687.86	5453.7	
688.05	7621.9	
688.23	6015.6	
688.42	5442.1	
688.6	5005.9	
688.79	6307.7	
688.97	6378.1	
689.16	5311.7	
689.34	4536.9	
689.52	6787.7	
689.71	7065.5	
689.89	5458.5	
690.08	5063.3	
690.26	6600.6	
690.45	6483.2	
690.63	5553.4	
690.81	5117.2	
691	6437.4	
691.18	6301.6	
691.37	5227.1	
691.55	6623.1	
691.74	6298.9	
691.92	7637.6	
692.1	5200.5	
692.29	4809.3	
692.47	6383.5	
692.66	5973.9	
692.84	4924.7	
693.02	5281	
693.21	6016.9	
693.39	6526.9	
693.58	5364.3	
693.76	4945.8	
693.94	7247.1	
694.13	7047.1	
694.31	5081.7	
694.5	5776	
694.68	6337.8	
694.86	6726.9	
695.05	5367	
695.23	5381.4	
695.42	6930.3	
695.6	8378.9	
695.78	5697.4	
695.97	5242.1	
696.15	7017.7	
696.34	6510.5	
696.52	5036	
696.7	5606	
696.89	6664.1	
697.07	6271.6	
697.25	5494	
697.44	6361.7	
697.62	6709.1	
697.81	6804	
697.99	5217.5	
698.17	5526.1	
698.36	6320.7	
698.54	6707.8	
698.72	5422.3	
698.91	4754.7	
699.09	6339.8	
699.28	6232	
699.46	5246.2	
699.64	5116.5	
699.83	6271.6	
700.01	6986.3	
700.19	5634.6	
700.38	4561.5	
700.56	6963.8	
700.74	6300.9	
700.93	4856.4	
701.11	5422.3	
701.29	6692.8	
701.48	7433.4	
701.66	5018.2	
701.84	5113.1	
702.03	6502.3	
702.21	6979.5	
702.39	4836.6	
702.58	5180.7	
702.76	6802	
702.94	6788.3	
703.13	4808.6	
703.31	6337.1	
703.49	6364.4	
703.68	7029.3	
703.86	4996.4	
704.04	5621	
704.23	6683.2	
704.41	6941.9	
704.59	5068	
704.78	5799.2	
704.96	7802.8	
705.14	6864.1	
705.33	4955.4	
705.51	5522.7	
705.69	6537.1	
705.87	7049.8	
706.06	5595.7	
706.24	4891.9	
706.42	6727.6	
706.61	6892.1	
706.79	5704.3	
706.97	4900.1	
707.16	6394.4	
707.34	6662.7	
707.52	5543.9	
707.7	5003.9	
707.89	6358.3	
708.07	6186.9	
708.25	5600.5	
708.44	5704.3	
708.62	6368.5	
708.8	7106.5	
708.98	5797.1	
709.17	5160.2	
709.35	6618.4	
709.53	6604.7	
709.72	4852.3	
709.9	5054.4	
710.08	6939.2	
710.26	6872.3	
710.45	5972.6	
710.63	5259.2	
710.81	6644.3	
710.99	6610.2	
711.18	5513.8	
711.36	5141.8	
711.54	6415.6	
711.72	6953.5	
711.91	5229.1	
712.09	4828.4	
712.27	6523.5	
712.45	6871.6	
712.64	5276.3	
712.82	4629.8	
713	6134.3	
713.18	6178	
713.37	4698.7	
713.55	5450.3	
713.73	6791.1	
713.91	5799.8	
714.1	4855.7	
714.28	4465.9	
714.46	6377.4	
714.64	5847	
714.83	4065.9	
715.01	4449.6	
715.19	5877	
715.37	5267.4	
715.55	4263.9	
715.74	4395.6	
715.92	6299.6	
716.1	5012.1	
716.28	5243.5	
716.47	4549.9	
716.65	5554.1	
716.83	5509.7	
717.01	4450.2	
717.19	4404.5	
717.38	6935.1	
717.56	5304.9	
717.74	4638.6	
717.92	4014.7	
718.1	6134.3	
718.29	5662.6	
718.47	3825.6	
718.65	4297.3	
718.83	6153.5	
719.01	6116.6	
719.2	3820.1	
719.38	4564.9	
719.56	5993.7	
719.74	6992.4	
719.92	4386.1	
720.11	4986.8	
720.29	6032.6	
720.47	5456.5	
720.65	4016.7	
720.83	4517.8	
721.02	5638.7	
721.2	5423.7	
721.38	4514.4	
721.56	4064.5	
721.74	5063.3	
721.92	5227.8	
722.11	4832.5	
722.29	4586.8	
722.47	6008.1	
722.65	5464.7	
722.83	3998.3	
723.01	4582.7	
723.2	5517.9	
723.38	5719.3	
723.56	3654.9	
723.74	4418.8	
723.92	5259.9	
724.1	5887.9	
724.29	3938.2	
724.47	4716.5	
724.65	5297.4	
724.83	5114.5	
725.01	3900	
725.19	4397	
725.37	5196.4	
725.56	5180	
725.74	3796.9	
725.92	3943.7	
726.1	5199.1	
726.28	5359.5	
726.46	4221.5	
726.64	4007.9	
726.83	5441.5	
727.01	5563.6	
727.19	3788.1	
727.37	4326.7	
727.55	5433.9	
727.73	5835.3	
727.91	3762.1	
728.09	3719.1	
728.28	5845.6	
728.46	5993	
728.64	4402.5	
728.82	4404.5	
729	6475.7	
729.18	6052.4	
729.36	3915.7	
729.54	5306.3	
729.72	6734.4	
729.91	5608	
730.09	5215.5	
730.27	4308.2	
730.45	5554.8	
730.63	5994.4	
730.81	4772.4	
730.99	4182.6	
731.17	6395.8	
731.35	5385.5	
731.53	4480.3	
731.71	4243.4	
731.9	6210.8	
732.08	6270.2	
732.26	4416.8	
732.44	4194.2	
732.62	6300.2	
732.8	5911.1	
732.98	4631.1	
733.16	4059.8	
733.34	5926.8	
733.52	5078.3	
733.7	4384.7	
733.88	4500.8	
734.07	5815.5	
734.25	5685.2	
734.43	4065.2	
734.61	5057.8	
734.79	6749.4	
734.97	5667.4	
735.15	4063.9	
735.33	4357.4	
735.51	5896.1	
735.69	5652.4	
735.87	4986.1	
736.05	4455	
736.23	5744.6	
736.41	5474.2	
736.59	4324.6	
736.77	4431.8	
736.95	6014.9	
737.13	5580.7	
737.32	4110.3	
737.5	4207.2	
737.68	6480.5	
737.86	5530.2	
738.04	3957.4	
738.22	5203.2	
738.4	5490.6	
738.58	5693.4	
738.76	4370.4	
738.94	3743.7	
739.12	5550	
739.3	5492	
739.48	4762.9	
739.66	4573.8	
739.84	5700.9	
740.02	5644.9	
740.2	3786.7	
740.38	3963.5	
740.56	5863.3	
740.74	5093.3	
740.92	4486.4	
741.1	4323.9	
741.28	5509	
741.46	5369.1	
741.64	4141	
741.82	4470	
742	5601.2	
742.18	5461.9	
742.36	4276.8	
742.54	4020.8	
742.72	5944.6	
742.9	5008.6	
743.08	4500.1	
743.26	3640.6	
743.44	5978	
743.62	5885.2	
743.8	4624.3	
743.98	4003.8	
744.16	5677.7	
744.34	5407.3	
744.52	4552	
744.7	4458.4	
744.88	5812.8	
745.06	5494	
745.24	4504.8	
745.42	4618.2	
745.6	5909.8	
745.78	5758.9	
745.96	3728	
746.14	3913.7	
746.32	6384.2	
746.5	5758.9	
746.68	4214.7	
746.86	3885.7	
747.03	6040.1	
747.21	5016.8	
747.39	4241.3	
747.57	3840.6	
747.75	5541.1	
747.93	5795.8	
748.11	3872.7	
748.29	3846.1	
748.47	6612.2	
748.65	5279.7	
748.83	4308.2	
749.01	4155.3	
749.19	5632.6	
749.37	5088.5	
749.55	4082.3	
749.73	4157.4	
749.91	5526.1	
750.09	5324	
750.26	4154.6	
750.44	3732.1	
750.62	5440.1	
750.8	5415.5	
750.98	3687.7	
751.16	3899.3	
751.34	5498.1	
751.52	5049.6	
751.7	4383.3	
751.88	3659	
752.06	5780.7	
752.24	5587.5	
752.42	3619.4	
752.59	3863.2	
752.77	5397.1	
752.95	6126.8	
753.13	4412	
753.31	3891.8	
753.49	5188.9	
753.67	5442.1	
753.85	4139.6	
754.03	3755.3	
754.21	5614.2	
754.38	5896.8	
754.56	3849.5	
754.74	3326.6	
754.92	5051.7	
755.1	5444.9	
755.28	3295.2	
755.46	3222.8	
755.64	6012.8	
755.82	6085.9	
755.99	3431	
756.17	3447.4	
756.35	4279.6	
756.53	5286.5	
756.71	2671.2	
756.89	3284.9	
757.07	5035.3	
757.25	4401.1	
757.42	3581.9	
757.6	4199	
757.78	5075.5	
757.96	4410	
758.14	3463.8	
758.32	3127.9	
758.5	4098	
758.67	4721.3	
758.85	3293.8	
759.03	3405.1	
759.21	4842.8	
759.39	4402.5	
759.57	3067.9	
759.75	3794.2	
759.92	5326.1	
760.1	4840.7	
760.28	3965.6	
760.46	4167.6	
760.64	4719.9	
760.82	4568.3	
760.99	3936.2	
761.17	3394.2	
761.35	5233.2	
761.53	4437.3	
761.71	3615.3	
761.89	3950.5	
762.06	5181.4	
762.24	4812.7	
762.42	3629.7	
762.6	3423.5	
762.78	4802.5	
762.96	5273.5	
763.13	3773.7	
763.31	3591.5	
763.49	5303.6	
763.67	4744.5	
763.85	4134.2	
764.02	4483	
764.2	5600.5	
764.38	4919.2	
764.56	3573	
764.74	4134.8	
764.91	5578	
765.09	4858.5	
765.27	3396.9	
765.45	3229.6	
765.63	5665.4	
765.8	5482.4	
765.98	3101.3	
766.16	3276.8	
766.34	4557.4	
766.52	4390.2	
766.69	3833.1	
766.87	3199.6	
767.05	4891.9	
767.23	5285.1	
767.41	3327.9	
767.58	3495.9	
767.76	5212.1	
767.94	5244.2	
768.12	3436.5	
768.29	3854.3	
768.47	4833.9	
768.65	5322.7	
768.83	3107.5	
769	3865.2	
769.18	4553.3	
769.36	5080.3	
769.54	3859.7	
769.72	3192.8	
769.89	5285.1	
770.07	5252.4	
770.25	3409.9	
770.43	4255.7	
770.6	5769.1	
770.78	5978.7	
770.96	3500	
771.14	3885	
771.31	5188.9	
771.49	4775.2	
771.67	2973.7	
771.85	3073.3	
772.02	4239.3	
772.2	4733.5	
772.38	3599	
772.55	3257	
772.73	4945.2	
772.91	4712.4	
773.09	3489.7	
773.26	3626.3	
773.44	4953.4	
773.62	4704.2	
773.8	3184.6	
773.97	3022.8	
774.15	4950.6	
774.33	4698	
774.5	3088.3	
774.68	3303.4	
774.86	4977.2	
775.04	4715.8	
775.21	3158	
775.39	3075.4	
775.57	4910.3	
775.74	5087.8	
775.92	3046.7	
776.1	2945	
776.27	4797	
776.45	5629.9	
776.63	3158	
776.81	2805.7	
776.98	4650.9	
777.16	5267.4	
777.34	3224.2	
777.51	3456.3	
777.69	4625.7	
777.87	4459.1	
778.04	3314.3	
778.22	3554.6	
778.4	4459.8	
778.57	4903.5	
778.75	2785.9	
778.93	2945	
779.1	4402.5	
779.28	4186	
779.46	2746.3	
779.64	3041.2	
779.81	5065.3	
779.99	5533.6	
780.17	3610.6	
780.34	3695.9	
780.52	4640.7	
780.69	4769.7	
780.87	3318.4	
781.05	3028.3	
781.22	4717.2	
781.4	4707.6	
781.58	3102.7	
781.75	2580.4	
781.93	4756.1	
782.11	4221.5	
782.28	3697.3	
782.46	3124.5	
782.64	4160.1	
782.81	4841.4	
782.99	3211.9	
783.17	3104	
783.34	4682.3	
783.52	4336.2	
783.69	3247.4	
783.87	3740.3	
784.05	4362.2	
784.22	4284.4	
784.4	3811.3	
784.58	3339.6	
784.75	4969.7	
784.93	4375.1	
785.1	3054.2	
785.28	3474	
785.46	4786.8	
785.63	4216.8	
785.81	3122.5	
785.99	2957.9	
786.16	4431.1	
786.34	4572.4	
786.51	3004.4	
786.69	3284.3	
786.87	4109.6	
787.04	4460.5	
787.22	2927.9	
787.39	3528	
787.57	4342.4	
787.75	4988.9	
787.92	3736.2	
788.1	3550.5	
788.27	4267.3	
788.45	4076.8	
788.63	3420.1	
788.8	2597.5	
788.98	4591.5	
789.15	3997	
789.33	2715.6	
789.5	3077.4	
789.68	4883	
789.86	4959.5	
790.03	3425.6	
790.21	2953.9	
790.38	4942.4	
790.56	4392.9	
790.73	2983.2	
790.91	2892.4	
791.09	4289.1	
791.26	4718.5	
791.44	3115.6	
791.61	2764.1	
791.79	4280.3	
791.96	4289.8	
792.14	2781.1	
792.32	2533.3	
792.49	4268	
792.67	4360.8	
792.84	2947	
793.02	2725.2	
793.19	4629.1	
793.37	5039.4	
793.54	2552.5	
793.72	2786.6	
793.89	5069.4	
794.07	4211.3	
794.25	3196.9	
794.42	2670.6	
794.6	4967	
794.77	4661.9	
794.95	3395.5	
795.12	2926.5	
795.3	4315.1	
795.47	4625.7	
795.65	3218	
795.82	3091.8	
796	4129.4	
796.17	5338.4	
796.35	3035.1	
796.52	3571.7	
796.7	4647.5	
796.87	4734.2	
797.05	3031.7	
797.22	3590.1	
797.4	4681	
797.57	5324.7	
797.75	3170.3	
797.92	2928.6	
798.1	4946.5	
798.27	4132.1	
798.45	2653.5	
798.62	2802.3	
798.8	4491.9	
798.97	4763.6	
799.15	3246.7	
799.32	3116.3	
799.5	3990.1	
799.67	4519.9	
799.85	3383.9	
800.02	2591.4	
800.2	4259.8	
800.37	4420.2	
800.55	3429.7	
800.72	2981.8	
800.9	4805.2	
801.07	5038	
801.25	3823.6	
801.42	3207.8	
801.6	4848.9	
801.77	4485.7	
801.95	3045.3	
802.12	2891	
802.29	4597.7	
802.47	4506.2	
802.64	3254.9	
802.82	2489	
802.99	4297.3	
803.17	4846.9	
803.34	3140.2	
803.52	2833	
803.69	5299.5	
803.87	4070	
804.04	3130.7	
804.21	3125.2	
804.39	5025	
804.56	4311	
804.74	2727.2	
804.91	3199.6	
805.09	4242.7	
805.26	4290.5	
805.44	2762.7	
805.61	2989.4	
805.78	4724.7	
805.96	4716.5	
806.13	3201	
806.31	3437.2	
806.48	3943	
806.66	4274.8	
806.83	3251.5	
807	3166.2	
807.18	4260.5	
807.35	4476.2	
807.53	2967.5	
807.7	2600.2	
807.87	4996.4	
808.05	4252.9	
808.22	3398.9	
808.4	2592	
808.57	4220.2	
808.74	4001	
808.92	2945	
809.09	3533.4	
809.27	4315.1	
809.44	4515.1	
809.61	2604.3	
809.79	2819.4	
809.96	5183.4	
810.14	4717.2	
810.31	2570.9	
810.48	3067.9	
810.66	4321.2	
810.83	4788.8	
811.01	2928.6	
811.18	3147.7	
811.35	4829.8	
811.53	3849.5	
811.7	3409.2	
811.87	3172.3	
812.05	4350.6	
812.22	4227	
812.39	2853.5	
812.57	2710.8	
812.74	4373.1	
812.92	5371.1	
813.09	3070.6	
813.26	3226.2	
813.44	5186.8	
813.61	4144.4	
813.78	2598.9	
813.96	3340.2	
814.13	4309.6	
814.3	4106.2	
814.48	3541.6	
814.65	3005.7	
814.82	4984.1	
815	4076.8	
815.17	3045.3	
815.34	3649.5	
815.52	4222.9	
815.69	4189.5	
815.87	3003	
816.04	3048.7	
816.21	4277.5	
816.38	3906.2	
816.56	2977.1	
816.73	2815.3	
816.9	5248.9	
817.08	4767.7	
817.25	2889.7	
817.42	3477.5	
817.6	4007.9	
817.77	4209.9	
817.94	3112.2	
818.12	2746.3	
818.29	4096.6	
818.46	5786.2	
818.64	2940.2	
818.81	2760	
818.98	4132.1	
819.16	5425.1	
819.33	3259	
819.5	3108.1	
819.67	4531.5	
819.85	4975.2	
820.02	3063.1	
820.19	3188.7	
820.37	4485.1	
820.54	4178.5	
820.71	3123.2	
820.88	3807.9	
821.06	4423.6	
821.23	4089.8	
821.4	3186.6	
821.58	3153.2	
821.75	4742.4	
821.92	4364.2	
822.09	2639.8	
822.27	2665.8	
822.44	4233.2	
822.61	4231.1	
822.79	2617.3	
822.96	4647.5	
823.13	4508.3	
823.3	4063.9	
823.48	2957.3	
823.65	2704.7	
823.82	4767.7	
823.99	4013.3	
824.17	3647.4	
824.34	2718.3	
824.51	5380.7	
824.68	4340.3	
824.86	2877.4	
825.03	3106.1	
825.2	4285	
825.37	4994.3	
825.55	2813.9	
825.72	3047.4	
825.89	5292	
826.06	5019.6	
826.24	3016.7	
826.41	3020.1	
826.58	5053	
826.75	4461.8	
826.92	2530.6	
827.1	2725.8	
827.27	6520.7	
827.44	5325.4	
827.61	2889.7	
827.79	3411.2	
827.96	4171.7	
828.13	4295.3	
828.3	3021.4	
828.47	2568.8	
828.65	4560.8	
828.82	4513	
828.99	3695.9	
829.16	3231.7	
829.34	4763.6	
829.51	4631.8	
829.68	3149.8	
829.85	3147.7	
830.02	5108.3	
830.2	4748.6	
830.37	2442.5	
830.54	3587.4	
830.71	5283.8	
830.88	4285.7	
831.05	2492.4	
831.23	2841.9	
831.4	5122.7	
831.57	5521.3	
831.74	2907.4	
831.91	2594.1	
832.09	4595.6	
832.26	4771.1	
832.43	2926.5	
832.6	3207.8	
832.77	4532.2	
832.94	5038.7	
833.12	2474.6	
833.29	2907.4	
833.46	4585.4	
833.63	5759.6	
833.8	3241.3	
833.97	2873.3	
834.15	4776.5	
834.32	4627	
834.49	3059	
834.66	3107.5	
834.83	4840.7	
835	4204.5	
835.17	2913.6	
835.35	2861.7	
835.52	4724	
835.69	4579.9	
835.86	3009.1	
836.03	2523.8	
836.2	4762.2	
836.37	4470.7	
836.55	2882.9	
836.72	2766.8	
836.89	4456.4	
837.06	4842.1	
837.23	2983.9	
837.4	3198.9	
837.57	5338.4	
837.75	5705.6	
837.92	2712.2	
838.09	2867.2	
838.26	4487.8	
838.43	4941.1	
838.6	3050.8	
838.77	2724.5	
838.94	5449	
839.11	5306.3	
839.29	2952.5	
839.46	2362	
839.63	4789.5	
839.8	4511.7	
839.97	2846.7	
840.14	2863.1	
840.31	4689.2	
840.48	4778.6	
840.65	2431.6	
840.82	2813.2	
841	4767.7	
841.17	4644.8	
841.34	2655.5	
841.51	2695.8	
841.68	4717.8	
841.85	4500.1	
842.02	2742.9	
842.19	2364.7	
842.36	4567	
842.53	4628.4	
842.7	2667.8	
842.87	3145	
843.05	5711.8	
843.22	4502.1	
843.39	2521	
843.56	2783.2	
843.73	4424.3	
843.9	4835.3	
844.07	4073.4	
844.24	3424.9	
844.41	6312.5	
844.58	4287.1	
844.75	2632.3	
844.92	2825.5	
845.09	4754	
845.26	4655	
845.43	2684.2	
845.6	2805.7	
845.77	4730.8	
845.94	4485.7	
846.12	2938.8	
846.29	2981.2	
846.46	4950.6	
846.63	4634.6	
846.8	2663.7	
846.97	3138.2	
847.14	5044.1	
847.31	4726.7	
847.48	3001.6	
847.65	3216	
847.82	4932.2	
847.99	4889.9	
848.16	3396.9	
848.33	3226.9	
848.5	4461.2	
848.67	5029.1	
848.84	2625.5	
849.01	2731.3	
849.18	4375.8	
849.35	4138.3	
849.52	3213.9	
849.69	2610.5	
849.86	4926.7	
850.03	4986.1	
850.2	2687.6	
850.37	3138.2	
850.54	4970.4	
850.71	4470	
850.88	3109.5	
851.05	2594.1	
851.22	4618.2	
851.39	5055.8	
851.56	2512.2	
851.73	2992.8	
851.9	4237.9	
852.07	4891.9	
852.24	2922.5	
852.41	2661.7	
852.58	4646.8	
852.75	4321.2	
852.92	2936.1	
853.09	2592	
853.26	4358.1	
853.43	4991.6	
853.6	2663.7	
853.77	2339.5	
853.94	5105.6	
854.11	4190.8	
854.28	3741	
854.44	2839.8	
854.61	5316.5	
854.78	4906.9	
854.95	2620.7	
855.12	3227.6	
855.29	3948.5	
855.46	5194.3	
855.63	2679.4	
855.8	3522.5	
855.97	4442	
856.14	4977.9	
856.31	3546.4	
856.48	2874.7	
856.65	4478.9	
856.82	4233.8	
856.99	2551.8	
857.16	2820.7	
857.33	5597.1	
857.49	4483.7	
857.66	2790.7	
857.83	3039.9	
858	4481	
858.17	4633.2	
858.34	2553.1	
858.51	2656.2	
858.68	5138.4	
858.85	5117.9	
859.02	2978.4	
859.19	3206.4	
859.36	4260.5	
859.52	4237.2	
859.69	2692.4	
859.86	3016	
860.03	4257.7	
860.2	5091.9	
860.37	2484.2	
860.54	2688.3	
860.71	4874.8	
860.88	5137	
861.05	2944.3	
861.21	3297.9	
861.38	5119.9	
861.55	4102.1	
861.72	2488.3	
861.89	2938.8	
862.06	4893.3	
862.23	5231.2	
862.4	2605.7	
862.56	2766.8	
862.73	4721.9	
862.9	4586.8	
863.07	3063.1	
863.24	2426.2	
863.41	4188.8	
863.58	4291.9	
863.75	2685.6	
863.91	3016	
864.08	4996.4	
864.25	4863.9	
864.42	3239.2	
864.59	3525.9	
864.76	5223.7	
864.93	4275.5	
865.09	2605	
865.26	2831	
865.43	5034.6	
865.6	5299.5	
865.77	2376.3	
865.94	2637.8	
866.1	5000.5	
866.27	4767	
866.44	3814	
866.61	2556.5	
866.78	4512.4	
866.95	4820.9	
867.11	2624.1	
867.28	2434.4	
867.45	4983.4	
867.62	4261.8	
867.79	2995.5	
867.96	2636.4	
868.12	4207.9	
868.29	4818.2	
868.46	2668.5	
868.63	3407.1	
868.8	5028.4	
868.97	4794.3	
869.13	2760.7	
869.3	2742.2	
869.47	4709.6	
869.64	4872.8	
869.81	2646.7	
869.97	2661.7	
870.14	4680.3	
870.31	5072.8	
870.48	2588.6	
870.65	3284.3	
870.81	4519.2	
870.98	4507.6	
871.15	2967.5	
871.32	2689.7	
871.48	4854.4	
871.65	5159.5	
871.82	2619.4	
871.99	2862.4	
872.16	5483.1	
872.32	5091.9	
872.49	2682.8	
872.66	2652.1	
872.83	4925.4	
872.99	4367	
873.16	2988.7	
873.33	2663.7	
873.5	4629.8	
873.67	4653	
873.83	2792.1	
874	3439.2	
874.17	4696.7	
874.34	5292.6	
874.5	3334.1	
874.67	3189.4	
874.84	5088.5	
875.01	4107.5	
875.17	3585.3	
875.34	2676.7	
875.51	4651.6	
875.68	5423.7	
875.84	3149.1	
876.01	3661.8	
876.18	4823.6	
876.34	4793.6	
876.51	2679.4	
876.68	2606.4	
876.85	4384	
877.01	5034.6	
877.18	3652.2	
877.35	2583.2	
877.52	4681	
877.68	4220.9	
877.85	2631	
878.02	2643.9	
878.18	4429.1	
878.35	4322.6	
878.52	2160.6	
878.69	3101.3	
878.85	4928.1	
879.02	4779.3	
879.19	3663.1	
879.35	2794.1	
879.52	4858.5	
879.69	4898.1	
879.86	2362.7	
880.02	2913.6	
880.19	4595	
880.36	5356.8	
880.52	2910.2	
880.69	3106.8	
880.86	4909	
881.02	4903.5	
881.19	2873.3	
881.36	2840.5	
881.52	4747.9	
881.69	4347.2	
881.86	2852.1	
882.02	2782.5	
882.19	4956.1	
882.36	5634.6	
882.52	2697.2	
882.69	3560.7	
882.86	4627.7	
883.02	4643.4	
883.19	3167.5	
883.36	2932.7	
883.52	4849.6	
883.69	5468.1	
883.86	2689.7	
884.02	2426.2	
884.19	4842.8	
884.36	4617.5	
884.52	2891	
884.69	2827.6	
884.86	4438.6	
885.02	5156.1	
885.19	2946.3	
885.36	3031	
885.52	4496	
885.69	4719.9	
885.86	3715	
886.02	3310.2	
886.19	4841.4	
886.35	4413.4	
886.52	2915.6	
886.69	3562.8	
886.85	4272.7	
887.02	5057.1	
887.19	5057.1	
887.35	5057.1	
887.52	5057.1	
887.68	5057.1	
887.85	5057.1	
888.02	5057.1	
888.18	5057.1	
888.35	5057.1	
888.51	5057.1	
888.68	5057.1	
888.85	5057.1	
889.01	5057.1	
889.18	5057.1	
889.35	5057.1	
889.51	5057.1	
889.68	5057.1	
889.84	5057.1	
890.01	5057.1	
890.17	5057.1	
890.34	5057.1	
890.51	5057.1	
890.67	5057.1	
890.84	5057.1	
891	5057.1	
891.17	5057.1	
891.34	5057.1	
891.5	5057.1	
891.67	5057.1	
891.83	5057.1	
892	5057.1	
892.16	5057.1	
892.33	5057.1	
892.5	5057.1	
892.66	5057.1	
892.83	5057.1	
892.99	5057.1	
893.16	5057.1	
893.32	5057.1	
893.49	5057.1	
893.65	5057.1	
893.82	5057.1	
893.99	5057.1	
894.15	5057.1	
894.32	5057.1	
894.48	5057.1	
894.65	5057.1	
894.81	5057.1	
894.98	5057.1	
895.14	5057.1	
895.31	5057.1	
895.47	5057.1	
895.64	5057.1	
895.81	5057.1	
895.97	5057.1	
896.14	5057.1	
896.3	5057.1	
896.47	5057.1	
896.63	5057.1	
896.8	5057.1	
896.96	5057.1	
897.13	5057.1	
897.29	5057.1	
897.46	5057.1	
897.62	5057.1	
897.79	5057.1	
897.95	5057.1	
898.12	5057.1	
898.28	5057.1	
898.45	5057.1	
898.61	5057.1	
898.78	5057.1	
898.94	5057.1	
899.11	5057.1	
899.27	5057.1	
899.44	5057.1	
899.6	5057.1	
899.77	5057.1	
899.93	5057.1	
900.1	5057.1	
900.26	5057.1	
900.43	5057.1	
900.59	5057.1	
900.76	5057.1	
900.92	5057.1	
901.09	5057.1	
901.25	5057.1	
901.42	5057.1	
901.58	5057.1	
901.75	5057.1	
901.91	5057.1	
902.07	5057.1	
902.24	5057.1	
902.4	5057.1	
902.57	5057.1	
902.73	5057.1	
902.9	5057.1	
903.06	5057.1	
903.23	5057.1	
903.39	5057.1	
903.56	5057.1	
903.72	5057.1	
903.88	5057.1	
904.05	5057.1	
904.21	5057.1	
904.38	5057.1	
904.54	5057.1	
904.71	5057.1	
904.87	5057.1	
905.03	5057.1	
905.2	5057.1	
905.36	5057.1	
905.53	5057.1	
905.69	5057.1	
905.86	5057.1	
906.02	5057.1	
906.18	5057.1	
906.35	5057.1	
906.51	5057.1	
906.68	5057.1	
906.84	5057.1	
907.01	5057.1	
907.17	5057.1	
907.33	5057.1	
907.5	5057.1	
907.66	5057.1	
907.83	5057.1	
907.99	5057.1	
908.15	5057.1	
908.32	5057.1	
908.48	5057.1	
908.65	5057.1	
908.81	5057.1	
908.97	5057.1	
909.14	5057.1	
909.3	5057.1	
909.47	5057.1	
909.63	5057.1	
909.79	5057.1	
909.96	5057.1	
910.12	5057.1	
910.28	5057.1	
910.45	5057.1	
910.61	5057.1	
910.78	5057.1	
910.94	5057.1	
911.1	5057.1	
911.27	5057.1	
911.43	5057.1	
911.59	5057.1	
911.76	5057.1	
911.92	5057.1	
912.08	5057.1	
912.25	5057.1	
912.41	5057.1	
912.57	5057.1	
912.74	5057.1	
912.9	5057.1	
913.07	5057.1	
913.23	5057.1	
913.39	5057.1	
913.56	5057.1	
913.72	5057.1	
913.88	5057.1	
914.05	5057.1	
914.21	5057.1	
914.37	5057.1	
914.54	5057.1	
914.7	5057.1	
914.86	5057.1	
915.03	5057.1	
915.19	5057.1	
