Wavelength	Intensities	
nm	a.u.	
179.22	1398.6	
179.44	1406.6	
179.65	1390.6	
179.86	1422.7	
180.08	1446.5	
180.29	2924.5	
180.51	2467.8	
180.72	4220.2	
180.94	4481	
181.15	2187.9	
181.37	2200.2	
181.58	3986.7	
181.79	4009.9	
182.01	2215.9	
182.22	2327.9	
182.44	4207.2	
182.65	3735.5	
182.87	2645.3	
183.08	2475.3	
183.29	4375.8	
183.51	3777.1	
183.72	2256.2	
183.94	2898.6	
184.15	3943.7	
184.37	3866.6	
184.58	2139.4	
184.79	2504	
185.01	3811.3	
185.22	4335.5	
185.44	2559.3	
185.65	2397.5	
185.86	4096.6	
186.08	3739.6	
186.29	2105.3	
186.51	2223.4	
186.72	3903.4	
186.94	4272.7	
187.15	2465.1	
187.36	2462.3	
187.58	5001.8	
187.79	4123.9	
188.01	2444.6	
188.22	3503.4	
188.43	4539.7	
188.65	4118.5	
188.86	2281.4	
189.08	2482.8	
189.29	3902.1	
189.5	3774.4	
189.72	2319	
189.93	2359.9	
190.15	4249.5	
190.36	4709	
190.57	2469.9	
190.79	2367.5	
191	4233.2	
191.22	4259.1	
191.43	2583.2	
191.64	2246.6	
191.86	4345.8	
192.07	4274.1	
192.29	2262.3	
192.5	2275.3	
192.71	4316.4	
192.93	3964.2	
193.14	2262.3	
193.35	2381.8	
193.57	3867.2	
193.78	4308.9	
194	2030.2	
194.21	2231.6	
194.42	3605.1	
194.64	4032.5	
194.85	2407.7	
195.07	2703.3	
195.28	3947.8	
195.49	3678.8	
195.71	2772.3	
195.92	2213.2	
196.13	4184	
196.35	4046.8	
196.56	2951.1	
196.78	2481.5	
196.99	4813.4	
197.2	4446.1	
197.42	2617.3	
197.63	2480.1	
197.84	3757.3	
198.06	4061.8	
198.27	2332	
198.48	2800.3	
198.7	3889.1	
198.91	4144.4	
199.13	2519	
199.34	2414.6	
199.55	4374.5	
199.77	3518.4	
199.98	2265.1	
200.19	2483.5	
200.41	4042.7	
200.62	3754.6	
200.83	2512.2	
201.05	2635.7	
201.26	4084.3	
201.47	3885.7	
201.69	2261	
201.9	2231.6	
202.11	4071.4	
202.33	4436.6	
202.54	2321	
202.76	2527.9	
202.97	3973.7	
203.18	4168.3	
203.4	2467.8	
203.61	2643.2	
203.82	4053.6	
204.04	3685.7	
204.25	2433	
204.46	2428.2	
204.68	4007.9	
204.89	4090.5	
205.1	2413.2	
205.32	2177.7	
205.53	4122.6	
205.74	4268.6	
205.96	2019.3	
206.17	2470.5	
206.38	4119.1	
206.6	4188.1	
206.81	2671.2	
207.02	2321.7	
207.24	4172.4	
207.45	4364.9	
207.66	2384.5	
207.88	2148.3	
208.09	4074.1	
208.3	3988.8	
208.52	2321.7	
208.73	2381.8	
208.94	4044.1	
209.15	4307.6	
209.37	2402.9	
209.58	2433.7	
209.79	4100.7	
210.01	3970.3	
210.22	2136	
210.43	2254.1	
210.65	3883.6	
210.86	4133.5	
211.07	2341.5	
211.29	2224.1	
211.5	4061.8	
211.71	4014	
211.93	2301.9	
212.14	2265.1	
212.35	3990.8	
212.56	3941	
212.78	2482.1	
212.99	2087.6	
213.2	4390.2	
213.42	3958.7	
213.63	2318.3	
213.84	2382.5	
214.06	3777.1	
214.27	3637.9	
214.48	2384.5	
214.69	2507.4	
214.91	4383.3	
215.12	4278.9	
215.33	2434.4	
215.55	2598.9	
215.76	4587.4	
215.97	4097.3	
216.18	2421.4	
216.4	2430.3	
216.61	3843.4	
216.82	4187.4	
217.04	2276	
217.25	2298.5	
217.46	4203.8	
217.67	4201.1	
217.89	2143.5	
218.1	2161.3	
218.31	3900	
218.53	4145.8	
218.74	2440.5	
218.95	2298.5	
219.16	4031.8	
219.38	4476.9	
219.59	2281.4	
219.8	2557.2	
220.01	4612.7	
220.23	4065.9	
220.44	2660.3	
220.65	2224.1	
220.87	4102.8	
221.08	4322.6	
221.29	2243.2	
221.5	2551.1	
221.72	4756.1	
221.93	3710.9	
222.14	2477.4	
222.35	2796.8	
222.57	3981.9	
222.78	4251.6	
222.99	2438.4	
223.2	2465.1	
223.42	4021.5	
223.63	4085.7	
223.84	1944.2	
224.05	2028.2	
224.27	4463.9	
224.48	4399	
224.69	2863.7	
224.9	2489.6	
225.12	4035.9	
225.33	4016.1	
225.54	2127.8	
225.75	2314.2	
225.97	3827	
226.18	3996.3	
226.39	2305.3	
226.6	2307.4	
226.82	3917.1	
227.03	3751.2	
227.24	2422.7	
227.45	2190	
227.67	4308.9	
227.88	4321.9	
228.09	2689.7	
228.3	2633	
228.52	4148.5	
228.73	3936.9	
228.94	2323.8	
229.15	2187.9	
229.36	4061.1	
229.58	4030.4	
229.79	2383.8	
230	2514.2	
230.21	4506.2	
230.43	3960.8	
230.64	2435.7	
230.85	2478.7	
231.06	4209.9	
231.28	4273.4	
231.49	2142.9	
231.7	2514.2	
231.91	4239.3	
232.12	3975.1	
232.34	2276.7	
232.55	2460.3	
232.76	4337.6	
232.97	4056.3	
233.18	2256.9	
233.4	2448.7	
233.61	3975.1	
233.82	3820.8	
234.03	2336.7	
234.25	2360.6	
234.46	4942.4	
234.67	3979.2	
234.88	2493.7	
235.09	2319.7	
235.31	3959.4	
235.52	3890.5	
235.73	2374.3	
235.94	2148.3	
236.15	3835.2	
236.37	4491.9	
236.58	2239.1	
236.79	2369.5	
237	4171.7	
237.21	3747.8	
237.43	2549	
237.64	2141.5	
237.85	5670.8	
238.06	3812	
238.27	2452.8	
238.48	2227.5	
238.7	4143	
238.91	4005.1	
239.12	2303.3	
239.33	2493.1	
239.54	3815.4	
239.76	3911.6	
239.97	2408.4	
240.18	2433	
240.39	4475.5	
240.6	4002.4	
240.82	2568.8	
241.03	2165.4	
241.24	3962.8	
241.45	4276.8	
241.66	2235.7	
241.87	2543.6	
242.09	4398.4	
242.3	4339.6	
242.51	2551.1	
242.72	2342.9	
242.93	4151.2	
243.14	3844.7	
243.36	2695.1	
243.57	2821.4	
243.78	4351.3	
243.99	4072	
244.2	2326.5	
244.41	2193.4	
244.63	3671.3	
244.84	3962.8	
245.05	2489.6	
245.26	2298.5	
245.47	4217.5	
245.68	4144.4	
245.9	2796.8	
246.11	2483.5	
246.32	3761.4	
246.53	4091.8	
246.74	3454.2	
246.95	2138.1	
247.16	3986	
247.38	4011.3	
247.59	2261	
247.8	2688.3	
248.01	3530.7	
248.22	4007.2	
248.43	2270.5	
248.64	2372.2	
248.86	3784.6	
249.07	3907.5	
249.28	2263.7	
249.49	2485.6	
249.7	4102.1	
249.91	4218.1	
250.12	2177.7	
250.34	2243.9	
250.55	4003.8	
250.76	3941.7	
250.97	2469.9	
251.18	2517	
251.39	4156	
251.6	4093.2	
251.81	2515.6	
252.03	2436.4	
252.24	3736.9	
252.45	4065.2	
252.66	2224.1	
252.87	2461.7	
253.08	3965.6	
253.29	4680.3	
253.5	2243.2	
253.72	2742.2	
253.93	3883.6	
254.14	4465.9	
254.35	2330.6	
254.56	2316.9	
254.77	4037.9	
254.98	3829	
255.19	2361.3	
255.41	2708.1	
255.62	4162.8	
255.83	4260.5	
256.04	2551.1	
256.25	2381.1	
256.46	4554	
256.67	3842.7	
256.88	2439.8	
257.09	2638.5	
257.31	3588	
257.52	3749.1	
257.73	2921.1	
257.94	2322.4	
258.15	3997	
258.36	3902.7	
258.57	2704.7	
258.78	1987.2	
258.99	4272.7	
259.2	3893.9	
259.41	2271.9	
259.63	2412.5	
259.84	4366.3	
260.05	4446.1	
260.26	2753.2	
260.47	2269.8	
260.68	4300.7	
260.89	3880.9	
261.1	2638.5	
261.31	2297.1	
261.52	4415.4	
261.73	4407.9	
261.95	2840.5	
262.16	2503.3	
262.37	4218.1	
262.58	4283	
262.79	2795.5	
263	2333.3	
263.21	4017.4	
263.42	3818.1	
263.63	2493.7	
263.84	2390	
264.05	4164.9	
264.26	4397.7	
264.47	2713.6	
264.69	2486.9	
264.9	4442.7	
265.11	3960.8	
265.32	2255.5	
265.53	2282.1	
265.74	4038.6	
265.95	3629.7	
266.16	2432.3	
266.37	2566.1	
266.58	4101.4	
266.79	3825.6	
267	2330.6	
267.21	2252.1	
267.42	3746.4	
267.63	3949.8	
267.84	2325.8	
268.06	2164	
268.27	4111	
268.48	4244.1	
268.69	2384.5	
268.9	2562.7	
269.11	3917.1	
269.32	3672.7	
269.53	2450.7	
269.74	2301.9	
269.95	4005.1	
270.16	3702.7	
270.37	2473.3	
270.58	2665.1	
270.79	3997.6	
271	4225	
271.21	2450.7	
271.42	2449.4	
271.63	4198.3	
271.84	3710.2	
272.05	2082.1	
272.26	2281.4	
272.47	3979.9	
272.68	4044.1	
272.89	2382.5	
273.11	2529.9	
273.32	3719.1	
273.53	4295.3	
273.74	2437.8	
273.95	2493.1	
274.16	3995.6	
274.37	3981.9	
274.58	2609.8	
274.79	2237.7	
275	4081.6	
275.21	4199.7	
275.42	2951.8	
275.63	2546.3	
275.84	4165.6	
276.05	4752	
276.26	2471.9	
276.47	2394.1	
276.68	4010.6	
276.89	4515.8	
277.1	2618.7	
277.31	2184.5	
277.52	4078.9	
277.73	4412	
277.94	2168.1	
278.15	2340.8	
278.36	4090.5	
278.57	3863.8	
278.78	2329.2	
278.99	2541.5	
279.2	3812	
279.41	3783.3	
279.62	2908.1	
279.83	2256.2	
280.04	4549.2	
280.25	3804.4	
280.46	2867.8	
280.67	2400.9	
280.88	3825.6	
281.09	4280.9	
281.3	2472.6	
281.51	2904.7	
281.72	3853.6	
281.93	3960.8	
282.14	2327.2	
282.35	2458.2	
282.56	4274.1	
282.77	4140.3	
282.98	2386.6	
283.19	2684.2	
283.4	4745.1	
283.61	3936.2	
283.82	2235.7	
284.03	2747.7	
284.24	4166.9	
284.45	4130.1	
284.66	2860.3	
284.87	2634.4	
285.08	4339.6	
285.29	4289.8	
285.5	2194.7	
285.71	2350.4	
285.92	4155.3	
286.12	4587.4	
286.33	2826.9	
286.54	2371.5	
286.75	4115.1	
286.96	3953.3	
287.17	2319.7	
287.38	2661.7	
287.59	3947.8	
287.8	3973.7	
288.01	2356.5	
288.22	2481.5	
288.43	3863.2	
288.64	3626.3	
288.85	2646.7	
289.06	2528.6	
289.27	4321.2	
289.48	4220.9	
289.69	2781.1	
289.9	2605	
290.11	4383.3	
290.32	3931.4	
290.53	2632.3	
290.74	2453.5	
290.94	4197	
291.15	4240	
291.36	2293.7	
291.57	2557.2	
291.78	3988.8	
291.99	3745.7	
292.2	2348.3	
292.41	2515.6	
292.62	4272.1	
292.83	4106.9	
293.04	2950.4	
293.25	2327.2	
293.46	3897.3	
293.67	4151.9	
293.88	2235	
294.09	2232.3	
294.29	3921.2	
294.5	4048.2	
294.71	2436.4	
294.92	2260.3	
295.13	3896.6	
295.34	4539	
295.55	2170.8	
295.76	2156.5	
295.97	4205.8	
296.18	4413.4	
296.39	2179.7	
296.6	2331.3	
296.81	3844	
297.01	4175.8	
297.22	2379.7	
297.43	2361.3	
297.64	4021.5	
297.85	3746.4	
298.06	2095.1	
298.27	2154.5	
298.48	3916.4	
298.69	3842	
298.9	2458.2	
299.11	2262.3	
299.31	3809.2	
299.52	3866.6	
299.73	2561.3	
299.94	2529.9	
300.15	4038.6	
300.36	3875.4	
300.57	2512.9	
300.78	2481.5	
300.99	3852.2	
301.2	3985.3	
301.4	2366.1	
301.61	2369.5	
301.82	4032.5	
302.03	4198.3	
302.24	2586.6	
302.45	2233	
302.66	4175.1	
302.87	4042	
303.08	2283.5	
303.29	2887	
303.49	3953.9	
303.7	3738.9	
303.91	2139.4	
304.12	2751.1	
304.33	3599	
304.54	4136.2	
304.75	2300.6	
304.96	2291.7	
305.16	4175.8	
305.37	4423.6	
305.58	2131.9	
305.79	2159.2	
306	4164.2	
306.21	3666.5	
306.42	2349.7	
306.63	3055.6	
306.83	3899.3	
307.04	4011.3	
307.25	2452.1	
307.46	2420.7	
307.67	3701.4	
307.88	4074.8	
308.09	2324.4	
308.29	2288.9	
308.5	4011.3	
308.71	4117.1	
308.92	2440.5	
309.13	2235	
309.34	4059.1	
309.55	3937.6	
309.75	2795.5	
309.96	2471.9	
310.17	4169.7	
310.38	3829.7	
310.59	2560.6	
310.8	2463.7	
311.01	3882.3	
311.21	3987.4	
311.42	2297.8	
311.63	2295.8	
311.84	3920.5	
312.05	3995.6	
312.26	2563.4	
312.46	2631	
312.67	3936.9	
312.88	3563.5	
313.09	2227.5	
313.3	2228.2	
313.51	4373.8	
313.71	4486.4	
313.92	2282.8	
314.13	2303.3	
314.34	4106.9	
314.55	4044.1	
314.76	2638.5	
314.96	2369.5	
315.17	4193.6	
315.38	3914.4	
315.59	2327.2	
315.8	2202.9	
316.01	4209.3	
316.21	4382	
316.42	2263.7	
316.63	2483.5	
316.84	3916.4	
317.05	4115.7	
317.26	2553.1	
317.46	2326.5	
317.67	4010.6	
317.88	4130.8	
318.09	2619.4	
318.3	2166.1	
318.5	3934.8	
318.71	4035.2	
318.92	3172.3	
319.13	2587.3	
319.34	4207.9	
319.54	4302.8	
319.75	2147	
319.96	2106.7	
320.17	4050.2	
320.38	4186.7	
320.58	2125.1	
320.79	2405	
321	4310.3	
321.21	4390.8	
321.42	2458.2	
321.62	2134	
321.83	3921.9	
322.04	3964.9	
322.25	2373.6	
322.46	2232.3	
322.66	3973.7	
322.87	4203.8	
323.08	2534	
323.29	2126.5	
323.5	4465.9	
323.7	3760.1	
323.91	2781.1	
324.12	2541.5	
324.33	4118.5	
324.53	4111	
324.74	2484.2	
324.95	2509.4	
325.16	3768.9	
325.37	3947.8	
325.57	2231.6	
325.78	2313.5	
325.99	4156	
326.2	3708.2	
326.4	2878.8	
326.61	2153.1	
326.82	4016.7	
327.03	4017.4	
327.24	2899.2	
327.44	2643.2	
327.65	4177.2	
327.86	3588	
328.07	2568.2	
328.27	2257.5	
328.48	4321.9	
328.69	3724.6	
328.9	2874.7	
329.1	2277.3	
329.31	3923.9	
329.52	4330.8	
329.73	2311.5	
329.93	2375.6	
330.14	4070.7	
330.35	4057	
330.56	3162.1	
330.76	2620.7	
330.97	3902.7	
331.18	3949.2	
331.39	2455.5	
331.59	2134	
331.8	4220.9	
332.01	4326	
332.22	2284.9	
332.42	2456.9	
332.63	4016.1	
332.84	3729.4	
333.05	2448.7	
333.25	2269.8	
333.46	3812.6	
333.67	3966.2	
333.88	2387.9	
334.08	2454.1	
334.29	4843.4	
334.5	4158.7	
334.7	2186.5	
334.91	2826.2	
335.12	3703.4	
335.33	4107.5	
335.53	2454.1	
335.74	3078.8	
335.95	4005.8	
336.16	3566.9	
336.36	2423.4	
336.57	2611.2	
336.78	3490.4	
336.98	4193.6	
337.19	2804.4	
337.4	2407.7	
337.61	4410.6	
337.81	3697.3	
338.02	2400.9	
338.23	2655.5	
338.43	4326	
338.64	3869.3	
338.85	2293	
339.05	2800.3	
339.26	4473.4	
339.47	3725.3	
339.68	2270.5	
339.88	2910.2	
340.09	4221.5	
340.3	4269.3	
340.5	2462.3	
340.71	2132.6	
340.92	3828.3	
341.13	4291.9	
341.33	2129.9	
341.54	2512.9	
341.75	4072.7	
341.95	3838.6	
342.16	2444.6	
342.37	2581.8	
342.57	3786.7	
342.78	3911.6	
342.99	2562	
343.19	2144.2	
343.4	4125.3	
343.61	4081.6	
343.81	2383.2	
344.02	2183.1	
344.23	4180.6	
344.43	4296	
344.64	2658.9	
344.85	2595.5	
345.06	4195.6	
345.26	4212	
345.47	2590.7	
345.68	2792.7	
345.88	3768.3	
346.09	4209.9	
346.3	2542.2	
346.5	2069.1	
346.71	3827.7	
346.92	3918.4	
347.12	2214.5	
347.33	2499.2	
347.54	4251.6	
347.74	4325.3	
347.95	2495.1	
348.16	2112.1	
348.36	3879.5	
348.57	3766.9	
348.78	2577.7	
348.98	2578.4	
349.19	3945.1	
349.39	3609.9	
349.6	2215.9	
349.81	2325.8	
350.01	4154	
350.22	3725.9	
350.43	2535.4	
350.63	2743.6	
350.84	3898.6	
351.05	3771	
351.25	2266.4	
351.46	2186.5	
351.67	4012.7	
351.87	3779.9	
352.08	2353.8	
352.29	2587.3	
352.49	4136.2	
352.7	4101.4	
352.9	2273.9	
353.11	2571.6	
353.32	4378.6	
353.52	3860.4	
353.73	2254.8	
353.94	2674.6	
354.14	4100.7	
354.35	3749.1	
354.55	2315.6	
354.76	2466.4	
354.97	4037.9	
355.17	3833.1	
355.38	2277.3	
355.59	2747.7	
355.79	3739.6	
356	3961.5	
356.2	2413.2	
356.41	2265.1	
356.62	3766.9	
356.82	3906.8	
357.03	2558.6	
357.24	2315.6	
357.44	3751.9	
357.65	3836.5	
357.85	2874	
358.06	2479.4	
358.27	3658.4	
358.47	3676.1	
358.68	2245.9	
358.88	2578.4	
359.09	4046.8	
359.3	4082.3	
359.5	2775.7	
359.71	2585.9	
359.91	4207.9	
360.12	3909.6	
360.33	2641.2	
360.53	2745.6	
360.74	3846.1	
360.94	3840.6	
361.15	2641.9	
361.36	2341.5	
361.56	4168.3	
361.77	3955.3	
361.97	2823.5	
362.18	2406.4	
362.38	4237.2	
362.59	3739.6	
362.8	2299.2	
363	2259.6	
363.21	3652.2	
363.41	3912.3	
363.62	2523.8	
363.83	2818	
364.03	4175.1	
364.24	4246.1	
364.44	3015.3	
364.65	2949.8	
364.85	3925.3	
365.06	3806.5	
365.27	2322.4	
365.47	2426.2	
365.68	4235.2	
365.88	4000.4	
366.09	2545.6	
366.29	2383.2	
366.5	3833.8	
366.71	4147.1	
366.91	2880.1	
367.12	2628.9	
367.32	4487.1	
367.53	3979.9	
367.73	2652.1	
367.94	3066.5	
368.14	4192.2	
368.35	4087.7	
368.56	2594.8	
368.76	2338.8	
368.97	3991.5	
369.17	4734.9	
369.38	2383.8	
369.58	2541.5	
369.79	3637.9	
369.99	4364.2	
370.2	2990	
370.4	2585.2	
370.61	4069.3	
370.82	4621.6	
371.02	2498.5	
371.23	2254.1	
371.43	3839.9	
371.64	4420.9	
371.84	2584.5	
372.05	2966.1	
372.25	4729.4	
372.46	3923.2	
372.66	2517	
372.87	2483.5	
373.07	3989.4	
373.28	4887.1	
373.48	2870.6	
373.69	2799.6	
373.9	3972.4	
374.1	3940.3	
374.31	2951.1	
374.51	2657.6	
374.72	4224.3	
374.92	3874.1	
375.13	2955.9	
375.33	2669.2	
375.54	4067.3	
375.74	3906.2	
375.95	2712.9	
376.15	3166.2	
376.36	4257.7	
376.56	4121.9	
376.77	2740.2	
376.97	2831.7	
377.18	4681	
377.38	4199.7	
377.59	2929.3	
377.79	2570.2	
378	4046.8	
378.2	4201.1	
378.41	2556.5	
378.61	2504	
378.82	4376.5	
379.02	3997	
379.23	2614.6	
379.43	2982.5	
379.64	4523.3	
379.84	4187.4	
380.05	2633.7	
380.25	2553.1	
380.46	4232.5	
380.66	4046.1	
380.87	3092.4	
381.07	3259.7	
381.28	4479.6	
381.48	4190.8	
381.69	2558.6	
381.89	2574.3	
382.1	3866.6	
382.3	4119.1	
382.51	3014.6	
382.71	3308.2	
382.91	4004.5	
383.12	4323.3	
383.32	2689	
383.53	2770.2	
383.73	4188.8	
383.94	4119.1	
384.14	2783.9	
384.35	2446.6	
384.55	3763.5	
384.76	4181.3	
384.96	2727.2	
385.17	2782.5	
385.37	4229.7	
385.58	3791.5	
385.78	2788.7	
385.98	2426.2	
386.19	4009.2	
386.39	4188.8	
386.6	2560.6	
386.8	2708.8	
387.01	4179.2	
387.21	4334.9	
387.42	2864.4	
387.62	3115.6	
387.83	4083.6	
388.03	3885	
388.23	2811.9	
388.44	3011.9	
388.64	3878.2	
388.85	3736.9	
389.05	2793.4	
389.26	3038.5	
389.46	4857.8	
389.67	4491.9	
389.87	2904	
390.07	2845.3	
390.28	4017.4	
390.48	3919.8	
390.69	2543.6	
390.89	2734.7	
391.1	4085.7	
391.3	4354.7	
391.5	3158	
391.71	3419.4	
391.91	4328	
392.12	4536.3	
392.32	3229.6	
392.53	2908.8	
392.73	3981.9	
392.93	4076.8	
393.14	2774.3	
393.34	3136.1	
393.55	4330.1	
393.75	3994.2	
393.95	2835.8	
394.16	2708.1	
394.36	4085.7	
394.57	4341.7	
394.77	2585.2	
394.98	2650.1	
395.18	4012	
395.38	4035.2	
395.59	3072	
395.79	2667.8	
396	4145.1	
396.2	4287.1	
396.4	2985.3	
396.61	2952.5	
396.81	4215.4	
397.02	4037.2	
397.22	3067.9	
397.42	3147.7	
397.63	4457.1	
397.83	4093.9	
398.04	2678.7	
398.24	2872.6	
398.44	4298.7	
398.65	3795.6	
398.85	2635.7	
399.05	2636.4	
399.26	4169	
399.46	4741	
399.67	2884.2	
399.87	2728.6	
400.07	4274.8	
400.28	4345.8	
400.48	2803	
400.69	3188	
400.89	4289.8	
401.09	4650.9	
401.3	2760.7	
401.5	3170.9	
401.7	4615.4	
401.91	4805.2	
402.11	2999.6	
402.32	2953.2	
402.52	4488.5	
402.72	4403.8	
402.93	3080.8	
403.13	2594.8	
403.33	4820.9	
403.54	4194.2	
403.74	2915.6	
403.94	3262.4	
404.15	4065.9	
404.35	4743.1	
404.56	2848	
404.76	3562.8	
404.96	4492.6	
405.17	4295.3	
405.37	3244	
405.57	3078.1	
405.78	4527.4	
405.98	4091.2	
406.18	2907.4	
406.39	3083.6	
406.59	4321.9	
406.79	4164.9	
407	2738.8	
407.2	2772.9	
407.4	4717.2	
407.61	4510.3	
407.81	2878.8	
408.01	3760.8	
408.22	3789.4	
408.42	4711.7	
408.62	3300.6	
408.83	3123.8	
409.03	4246.1	
409.23	4370.4	
409.44	3170.3	
409.64	3209.2	
409.84	4793.6	
410.05	4753.3	
410.25	3209.8	
410.45	3149.1	
410.66	4534.9	
410.86	5614.8	
411.06	3369.6	
411.27	3214.6	
411.47	5454.4	
411.67	4603.8	
411.88	3274.7	
412.08	3392.8	
412.28	4821.6	
412.49	5038	
412.69	3254.9	
412.89	3273.3	
413.09	5028.4	
413.3	4963.6	
413.5	3327.3	
413.7	3226.9	
413.91	4373.8	
414.11	5042.8	
414.31	3267.2	
414.52	3446	
414.72	4943.1	
414.92	4878.9	
415.12	3256.3	
415.33	3528.7	
415.53	4767	
415.73	5108.3	
415.94	3635.8	
416.14	3357.3	
416.34	4682.3	
416.55	4493.2	
416.75	3862.5	
416.95	3664.5	
417.15	5221.6	
417.36	5340.4	
417.56	4100	
417.76	3568.9	
417.97	5132.9	
418.17	5054.4	
418.37	3517	
418.57	3434.4	
418.78	5176.6	
418.98	4937	
419.18	3799.7	
419.38	3822.2	
419.59	4845.5	
419.79	4687.8	
419.99	3367.5	
420.2	3475.4	
420.4	5142.4	
420.6	5181.4	
420.8	3426.9	
421.01	3332	
421.21	5066	
421.41	4914.4	
421.61	3504.1	
421.82	3459	
422.02	4965.6	
422.22	5277.6	
422.42	3735.5	
422.63	3557.3	
422.83	4901.5	
423.03	5397.8	
423.23	3674.7	
423.44	3224.2	
423.64	4765.6	
423.84	4691.9	
424.04	3426.9	
424.25	3246.7	
424.45	5249.6	
424.65	5180.7	
424.85	3162.7	
425.06	3339.6	
425.26	5488.6	
425.46	4845.5	
425.66	3584.6	
425.87	3463.8	
426.07	5116.5	
426.27	5009.3	
426.47	3501.3	
426.67	3191.4	
426.88	5321.3	
427.08	5074.9	
427.28	3657.7	
427.48	3226.9	
427.69	4752.7	
427.89	4897.4	
428.09	3547.8	
428.29	3149.8	
428.5	4988.2	
428.7	5009.3	
428.9	3248.8	
429.1	3411.2	
429.3	5038	
429.51	5007.3	
429.71	3405.1	
429.91	3779.2	
430.11	5201.8	
430.31	5179.3	
430.52	3448.8	
430.72	3603.1	
430.92	5307	
431.12	5124.7	
431.32	3349.8	
431.53	3588.7	
431.73	4762.9	
431.93	5355.4	
432.13	3297.9	
432.33	3246.7	
432.54	4992.9	
432.74	4956.1	
432.94	3290.4	
433.14	3728	
433.34	5384.1	
433.55	5033.2	
433.75	3751.2	
433.95	4405.9	
434.15	5139.7	
434.35	4896	
434.56	3416.7	
434.76	3204.4	
434.96	4960.9	
435.16	5210	
435.36	3306.8	
435.56	3875.4	
435.77	4980	
435.97	5056.4	
436.17	4058.4	
436.37	3781.2	
436.57	4835.9	
436.78	4866	
436.98	3812.6	
437.18	4084.3	
437.38	4961.5	
437.58	4881.7	
437.78	4055.7	
437.99	3514.3	
438.19	5208.7	
438.39	5857.2	
438.59	3555.3	
438.79	3335.5	
438.99	5565.7	
439.2	4870.1	
439.4	3292.5	
439.6	3375.7	
439.8	4881.7	
440	5625.1	
440.2	3853.6	
440.4	3815.4	
440.61	5424.4	
440.81	5481	
441.01	3536.8	
441.21	3878.2	
441.41	5567.1	
441.61	5353.4	
441.81	4004.5	
442.02	4323.3	
442.22	5685.8	
442.42	5446.9	
442.62	3522.5	
442.82	3664.5	
443.02	5676.3	
443.22	5295.4	
443.43	3808.5	
443.63	3579.8	
443.83	5151.3	
444.03	5110.4	
444.23	4052.9	
444.43	3893.2	
444.63	5391.6	
444.83	5793	
445.04	3758	
445.24	4158.1	
445.44	5459.9	
445.64	5440.8	
445.84	3916.4	
446.04	4016.1	
446.24	5161.6	
446.44	5578	
446.65	3577.1	
446.85	3713	
447.05	5322.7	
447.25	5502.2	
447.45	3811.3	
447.65	3517	
447.85	5528.8	
448.05	5098.1	
448.25	3997	
448.46	3899.3	
448.66	5246.2	
448.86	5117.9	
449.06	3601.7	
449.26	3918.4	
449.46	5461.9	
449.66	5180	
449.86	3840.6	
450.06	3809.2	
450.26	5212.8	
450.47	5433.3	
450.67	3876.8	
450.87	4002.4	
451.07	5745.2	
451.27	5227.8	
451.47	3650.2	
451.67	4012	
451.87	5233.2	
452.07	5773.2	
452.27	3749.8	
452.47	3747.1	
452.67	5465.3	
452.88	5381.4	
453.08	3576.4	
453.28	4279.6	
453.48	5977.3	
453.68	5291.3	
453.88	3719.1	
454.08	3756	
454.28	5584.1	
454.48	5468.8	
454.68	4004.5	
454.88	4135.5	
455.08	5708.4	
455.28	5496.1	
455.48	3639.2	
455.68	4058.4	
455.89	5871.5	
456.09	5702.9	
456.29	3825.6	
456.49	4015.4	
456.69	5838.1	
456.89	5416.9	
457.09	4160.8	
457.29	4325.3	
457.49	5646.9	
457.69	5679.7	
457.89	4172.4	
458.09	3865.2	
458.29	5624.4	
458.49	5961	
458.69	4259.1	
458.89	4042.7	
459.09	6032.6	
459.29	5962.3	
459.49	4085.7	
459.69	4408.6	
459.9	5797.8	
460.1	5625.1	
460.3	3965.6	
460.5	3806.5	
460.7	5885.9	
460.9	5507	
461.1	3807.9	
461.3	4304.1	
461.5	6208.1	
461.7	5960.3	
461.9	4067.9	
462.1	4259.8	
462.3	5908.4	
462.5	5956.9	
462.7	4138.3	
462.9	4123.9	
463.1	6515.3	
463.3	6386.2	
463.5	4321.9	
463.7	4750.6	
463.9	5912.5	
464.1	6122.1	
464.3	4403.8	
464.5	4468.7	
464.7	6223.8	
464.9	5984.2	
465.1	4952.7	
465.3	4549.2	
465.5	6382.2	
465.7	6481.8	
465.9	4754	
466.1	4552	
466.3	6223.1	
466.5	6143.2	
466.7	5098.8	
466.9	4601.8	
467.1	6503.7	
467.3	6705	
467.5	5094	
467.7	4606.6	
467.9	6916.7	
468.1	7140.6	
468.3	4953.4	
468.5	5115.1	
468.7	6298.2	
468.9	6153.5	
469.1	4761.5	
469.3	5056.4	
469.5	7150.8	
469.7	6179.4	
469.9	4965	
470.1	4592.2	
470.3	6500.9	
470.5	6391.7	
470.7	5216.9	
470.9	4730.1	
471.1	6197.8	
471.3	6440.2	
471.5	4674.1	
471.69	5434.6	
471.89	6312.5	
472.09	5937.1	
472.29	4979.3	
472.49	5031.2	
472.69	6155.5	
472.89	6347.3	
473.09	4646.8	
473.29	4726	
473.49	6229.9	
473.69	5932.3	
473.89	5012.7	
474.09	4748.6	
474.29	6746.7	
474.49	6559.6	
474.69	4964.3	
474.89	4702.8	
475.09	6260.6	
475.29	6144.6	
475.49	4534.2	
475.69	4637.3	
475.88	6810.9	
476.08	6361.7	
476.28	4543.1	
476.48	4584.7	
476.68	6686.6	
476.88	6259.3	
477.08	4685.8	
477.28	4728.8	
477.48	6282.5	
477.68	6288.6	
477.88	4492.6	
478.08	4562.9	
478.28	6587.6	
478.48	6272.9	
478.67	4728.1	
478.87	4386.1	
479.07	6338.5	
479.27	6331.6	
479.47	4683.7	
479.67	4741	
479.87	6494.8	
480.07	6582.9	
480.27	4557.4	
480.47	5087.2	
480.67	6267.5	
480.87	6673.6	
481.06	4629.8	
481.26	4943.1	
481.46	6407.4	
481.66	6201.2	
481.86	4842.8	
482.06	5128.1	
482.26	6158.2	
482.46	6534.4	
482.66	4721.3	
482.86	4551.3	
483.05	6621.8	
483.25	6068.8	
483.45	5845.6	
483.65	4764.3	
483.85	6048.3	
484.05	6281.1	
484.25	4943.8	
484.45	5168.4	
484.65	6374	
484.84	6690.7	
485.04	4843.4	
485.24	4780	
485.44	6969.9	
485.64	6111.8	
485.84	4532.8	
486.04	5070.1	
486.24	6376	
486.44	6363	
486.63	4511	
486.83	4924.7	
487.03	6353.5	
487.23	6404	
487.43	4659.8	
487.63	5453.1	
487.83	6432	
488.02	6156.2	
488.22	4989.5	
488.42	5188.9	
488.62	6801.3	
488.82	6254.5	
489.02	4922.6	
489.22	4863.9	
489.41	6473.6	
489.61	6714.6	
489.81	4767.7	
490.01	4796.3	
490.21	6735.1	
490.41	7092.1	
490.61	4855.1	
490.8	4825.7	
491	6491.4	
491.2	6327.5	
491.4	5033.9	
491.6	4667.3	
491.8	6439.5	
491.99	6370.5	
492.19	4571.7	
492.39	4696	
492.59	6632	
492.79	6853.9	
492.99	5189.6	
493.18	4829.1	
493.38	7034.1	
493.58	7185.6	
493.78	5199.1	
493.98	4934.9	
494.18	6636.1	
494.37	6257.2	
494.57	5366.4	
494.77	5212.8	
494.97	6907.1	
495.17	7066.9	
495.37	5122.7	
495.56	5289.9	
495.76	6847	
495.96	7080.5	
496.16	5707	
496.36	5291.3	
496.55	7155.6	
496.75	6825.9	
496.95	5363.6	
497.15	5422.3	
497.35	7286	
497.54	7059.3	
497.74	5347.2	
497.94	6165.1	
498.14	7563.8	
498.34	7215	
498.53	5245.5	
498.73	5610.1	
498.93	6823.1	
499.13	7238.9	
499.33	5642.2	
499.52	5641.5	
499.72	7419.8	
499.92	7245	
500.12	5362.3	
500.32	5537	
500.51	7296.2	
500.71	7126.9	
500.91	5793	
501.11	5651.7	
501.31	7285.3	
501.5	7553.6	
501.7	6035.4	
501.9	5539.1	
502.1	7275.1	
502.29	7463.5	
502.49	5676.3	
502.69	6009.4	
502.89	7314.7	
503.09	7347.4	
503.28	5311.7	
503.48	5335.6	
503.68	7133.8	
503.88	6863.4	
504.07	5754.1	
504.27	5591	
504.47	7132.4	
504.67	7245.7	
504.86	5711.8	
505.06	5599.8	
505.26	7140.6	
505.46	7619.8	
505.65	5462.6	
505.85	5548.6	
506.05	7088.7	
506.25	7253.2	
506.44	5235.3	
506.64	5531.6	
506.84	6815.6	
507.04	7168.6	
507.23	5382.7	
507.43	5481	
507.63	7593.2	
507.83	6785.6	
508.02	5514.5	
508.22	5303.6	
508.42	7715.4	
508.62	6728.9	
508.81	5316.5	
509.01	5591	
509.21	6709.1	
509.4	7010.9	
509.6	5498.1	
509.8	5271.5	
510	6966.5	
510.19	7256.6	
510.39	5201.2	
510.59	5306.3	
510.79	6766.5	
510.98	7463.5	
511.18	5446.9	
511.38	5371.1	
511.57	7470.3	
511.77	7005.4	
511.97	5709.7	
512.17	5227.1	
512.36	7347.4	
512.56	7159.7	
512.76	5270.1	
512.95	5168.4	
513.15	7517.4	
513.35	6682.5	
513.55	5652.4	
513.74	5254.4	
513.94	7374.7	
514.14	7044.3	
514.33	5803.9	
514.53	5550	
514.73	7127.6	
514.92	7058	
515.12	5459.2	
515.32	5352	
515.51	7245	
515.71	7180.2	
515.91	6244.9	
516.11	5444.9	
516.3	7943.4	
516.5	7170.6	
516.7	5756.2	
516.89	5855.8	
517.09	6972	
517.29	7212.9	
517.48	5860.6	
517.68	5603.2	
517.88	6691.4	
518.07	7403.4	
518.27	5833.3	
518.47	5449	
518.66	7658.7	
518.86	7058	
519.06	5401.2	
519.25	5590.3	
519.45	7191.8	
519.65	7767.3	
519.84	5867.4	
520.04	6199.2	
520.24	7995.3	
520.43	7460.1	
520.63	5814.9	
520.83	5714.5	
521.02	7273	
521.22	7247.8	
521.42	5887.9	
521.61	6101.6	
521.81	7200	
522.01	7389.8	
522.2	5885.9	
522.4	5741.8	
522.6	7707.9	
522.79	6935.1	
522.99	5788.2	
523.18	5492.7	
523.38	7673.7	
523.58	7564.5	
523.77	6361.7	
523.97	5750	
524.17	8432.9	
524.36	8159.1	
524.56	6348	
524.76	6212.9	
524.95	7735.2	
525.15	7582.3	
525.34	6188.3	
525.54	6242.2	
525.74	8011.7	
525.93	7507.2	
526.13	6712.6	
526.33	6307.7	
526.52	8114.7	
526.72	7997.3	
526.91	6883.9	
527.11	6475.7	
527.31	8133.8	
527.5	8389.8	
527.7	6617	
527.89	6221.7	
528.09	7970.7	
528.29	8137.3	
528.48	6830	
528.68	6597.9	
528.87	8335.9	
529.07	8340.7	
529.27	6554.9	
529.46	6381.5	
529.66	8225.3	
529.85	8335.9	
530.05	6438.8	
530.25	6663.4	
530.44	8815.1	
530.64	8121.6	
530.83	6564.4	
531.03	6756.2	
531.23	8646.5	
531.42	8301.8	
531.62	7056.6	
531.81	6714.6	
532.01	8407.6	
532.21	8737.3	
532.4	6810.2	
532.6	6886	
532.79	9097.8	
532.99	8714.8	
533.18	7066.9	
533.38	7468.3	
533.58	8606.2	
533.77	8779.6	
533.97	7180.2	
534.16	7438.2	
534.36	9149.6	
534.55	8620.6	
534.75	7634.8	
534.95	7253.9	
535.14	9114.1	
535.34	8648.6	
535.53	6957.6	
535.73	7762.5	
535.92	9379	
536.12	8622.6	
536.31	7078.5	
536.51	7647.1	
536.71	9004.2	
536.9	8622.6	
537.1	7045.7	
537.29	7248.4	
537.49	9164	
537.68	8707.3	
537.88	7392.5	
538.07	6941.9	
538.27	8879.3	
538.46	9379.7	
538.66	7080.5	
538.86	7283.9	
539.05	8946.2	
539.25	8961.2	
539.44	7471	
539.64	7111.2	
539.83	8809.7	
540.03	9234.3	
540.22	7147.4	
540.42	7080.5	
540.61	8956.4	
540.81	9013.1	
541	7320.1	
541.2	7632.1	
541.39	8667	
541.59	8837	
541.78	7481.2	
541.98	7075.7	
542.18	8549.6	
542.37	8520.9	
542.57	7178.8	
542.76	7527.7	
542.96	8469	
543.15	8802.2	
543.35	7256	
543.54	6944.7	
543.74	8082.6	
543.93	8703.9	
544.13	7067.5	
544.32	7596.6	
544.52	8834.9	
544.71	8445.8	
544.91	6733	
545.1	7268.9	
545.3	8552.3	
545.49	8665.6	
545.69	6724.2	
545.88	6910.5	
546.08	9231.6	
546.27	8888.9	
546.47	7152.9	
546.66	6827.2	
546.86	8717.5	
547.05	8817.9	
547.24	6976.1	
547.44	6881.2	
547.63	8389.2	
547.83	8787.2	
548.02	7096.9	
548.22	7096.2	
548.41	8319.5	
548.61	8757.1	
548.8	6815	
549	6870.9	
549.19	8759.2	
549.39	8757.8	
549.58	6596.5	
549.78	6869.6	
549.97	8649.9	
550.17	8293.6	
550.36	7245	
550.55	7660.1	
550.75	8365.3	
550.94	8798.8	
551.14	6778.8	
551.33	6802.7	
551.53	8019.2	
551.72	8533.2	
551.92	6850.5	
552.11	6797.9	
552.31	8686.8	
552.5	8523.6	
552.69	7519.5	
552.89	6592.4	
553.08	8544.1	
553.28	8434.2	
553.47	6775.4	
553.67	7299	
553.86	8673.1	
554.06	8019.8	
554.25	6496.8	
554.44	6726.9	
554.64	9161.2	
554.83	9024.7	
555.03	6706.4	
555.22	6875.7	
555.42	8627.4	
555.61	8454	
555.8	6778.8	
556	6877.8	
556.19	8055.3	
556.39	8391.9	
556.58	6621.8	
556.78	6842.3	
556.97	8547.5	
557.16	8273.8	
557.36	7225.2	
557.55	6571.2	
557.75	7937.2	
557.94	8847.9	
558.13	6591.7	
558.33	6415.6	
558.52	8647.2	
558.72	7813.7	
558.91	6489.3	
559.1	6580.8	
559.3	7879.2	
559.49	7842.4	
559.69	6489.3	
559.88	6685.3	
560.07	8303.8	
560.27	8562.6	
560.46	6864.8	
560.66	6889.4	
560.85	8239	
561.04	7739.3	
561.24	6559	
561.43	6417	
561.63	7918.1	
561.82	8073.1	
562.01	7006.8	
562.21	6660.7	
562.4	8251.3	
562.59	8626	
562.79	6653.2	
562.98	6443.6	
563.18	8245.8	
563.37	8782.4	
563.56	6754.2	
563.76	6444.3	
563.95	7935.9	
564.14	8056	
564.34	6645.7	
564.53	6444.3	
564.73	8261.5	
564.92	8224	
565.11	6721.4	
565.31	6374.6	
565.5	8554.4	
565.69	7916.1	
565.89	6593.8	
566.08	6647	
566.27	8233.5	
566.47	8538.7	
566.66	6998.6	
566.85	6303.6	
567.05	8322.3	
567.24	8115.4	
567.44	6549.4	
567.63	7086	
567.82	8383	
568.02	8103.1	
568.21	6466.1	
568.4	6543.9	
568.6	8139.3	
568.79	8032.8	
568.98	6528.9	
569.18	6383.5	
569.37	8239	
569.56	8854.7	
569.76	6558.3	
569.95	7068.9	
570.14	8354.3	
570.34	7970	
570.53	6425.2	
570.72	6391.7	
570.91	8517.5	
571.11	8184.4	
571.3	6553.5	
571.49	6914.6	
571.69	8195.3	
571.88	7852.6	
572.07	6628.6	
572.27	6701.6	
572.46	7822.6	
572.65	8278.6	
572.85	6470.9	
573.04	6569.9	
573.23	8439	
573.43	8137.9	
573.62	6429.3	
573.81	6635.4	
574	8346.8	
574.2	8105.2	
574.39	6596.5	
574.58	6531.7	
574.78	8594.6	
574.97	8255.4	
575.16	6826.6	
575.36	6763.8	
575.55	8471.1	
575.74	8426.7	
575.93	6435.4	
576.13	6756.9	
576.32	8171.4	
576.51	8396.7	
576.71	6725.5	
576.9	7126.9	
577.09	8658.1	
577.28	8228.7	
577.48	6845	
577.67	6309.8	
577.86	8274.5	
578.05	8284.7	
578.25	6641.6	
578.44	6590.4	
578.63	8260.1	
578.83	8713.4	
579.02	6362.4	
579.21	7090.8	
579.4	8259.5	
579.6	8145.5	
579.79	6610.8	
579.98	7606.2	
580.17	8430.8	
580.37	8562.6	
580.56	6467.5	
580.75	6794.5	
580.94	8482	
581.14	8746.2	
581.33	6991.1	
581.52	6534.4	
581.71	8335.2	
581.91	8658.8	
582.1	6479.8	
582.29	6649.8	
582.48	8131.8	
582.68	8282	
582.87	6832	
583.06	6783.6	
583.25	8604.2	
583.45	8052.6	
583.64	7023.2	
583.83	7225.9	
584.02	8273.1	
584.21	8447.9	
584.41	7016.3	
584.6	6776.7	
584.79	8393.3	
584.98	8457.4	
585.18	6552.1	
585.37	6491.4	
585.56	8324.3	
585.75	8471.1	
585.94	6561	
586.14	6880.5	
586.33	8631.5	
586.52	8256	
586.71	6759	
586.91	6580.8	
587.1	7864.2	
587.29	8365.3	
587.48	6425.8	
587.67	6458.6	
587.87	8296.3	
588.06	8127	
588.25	6974	
588.44	6752.8	
588.63	7912.7	
588.83	8130.4	
589.02	6449.1	
589.21	6145.3	
589.4	7911.3	
589.59	7730.4	
589.78	5811.5	
589.98	5884.5	
590.17	7441	
590.36	7518.1	
590.55	5564.3	
590.74	5827.8	
590.94	7899	
591.13	7341.3	
591.32	5776	
591.51	5513.1	
591.7	7492.8	
591.89	7361.8	
592.09	5542.5	
592.28	5804.6	
592.47	6892.8	
592.66	7939.3	
592.85	5589.6	
593.05	5656.5	
593.24	7409.6	
593.43	7875.8	
593.62	5830.6	
593.81	5912.5	
594	7505.1	
594.19	7513.3	
594.39	5702.9	
594.58	5638.7	
594.77	7601.4	
594.96	7718.8	
595.15	5688.6	
595.34	5864.7	
595.54	7266.9	
595.73	7014.3	
595.92	5403.9	
596.11	5838.8	
596.3	7622.5	
596.49	7234.1	
596.68	5762.3	
596.88	5965.1	
597.07	7527	
597.26	7109.2	
597.45	5535	
597.64	6064	
597.83	7223.2	
598.02	7385	
598.22	5633.3	
598.41	5864	
598.6	7324.2	
598.79	7049.8	
598.98	5632.6	
599.17	6010.1	
599.36	7523.6	
599.55	7760.4	
599.74	6377.4	
599.94	6322.1	
600.13	7645.8	
600.32	7135.1	
600.51	5479	
600.7	5586.9	
600.89	7905.8	
601.08	7980.3	
601.27	5478.3	
601.47	5969.8	
601.66	7406.1	
601.85	7747.5	
602.04	5882.4	
602.23	5778.7	
602.42	7177.4	
602.61	7495.6	
602.8	5719.3	
602.99	5621.7	
603.18	7344	
603.37	7449.8	
603.57	5910.4	
603.76	6048.3	
603.95	7724.3	
604.14	7490.1	
604.33	5794.4	
604.52	5782.1	
604.71	7509.9	
604.9	7154.9	
605.09	6023.1	
605.28	5986.2	
605.47	7884.7	
605.66	7289.4	
605.86	5954.8	
606.05	5683.8	
606.24	7871	
606.43	6916.7	
606.62	5819	
606.81	6082.5	
607	7617.1	
607.19	7302.4	
607.38	5492	
607.57	5568.4	
607.76	7106.5	
607.95	6705.7	
608.14	5863.3	
608.33	6085.2	
608.52	7062.8	
608.72	7594.6	
608.91	5352	
609.1	5451.7	
609.29	7118.7	
609.48	6791.7	
609.67	5799.8	
609.86	5421.7	
610.05	6908.5	
610.24	7004.1	
610.43	5481	
610.62	5211.4	
610.81	7601.4	
611	7536.5	
611.19	5405.3	
611.38	5755.5	
611.57	7370	
611.76	7707.9	
611.95	5375.2	
612.14	5279	
612.33	7061.4	
612.52	6779.5	
612.71	5582.1	
612.9	5130.8	
613.09	6784.2	
613.28	7774.1	
613.47	5431.2	
613.66	5870.2	
613.85	7266.2	
614.04	6846.4	
614.24	5429.2	
614.43	5049.6	
614.62	7222.5	
614.81	7215.7	
615	5569.8	
615.19	5601.9	
615.38	6920.8	
615.57	7138.5	
615.76	5605.3	
615.95	6055.8	
616.14	7311.9	
616.33	7122.2	
616.52	5763.7	
616.71	5761.6	
616.9	7187.7	
617.09	7031.4	
617.28	5466.7	
617.47	5926.8	
617.66	6991.8	
617.85	6912.6	
618.04	5829.9	
618.22	5619.6	
618.41	6731	
618.6	7534.5	
618.79	5653.8	
618.98	5539.1	
619.17	7582.9	
619.36	6651.1	
619.55	5620.3	
619.74	5634	
619.93	7189.7	
620.12	7017.7	
620.31	5834.7	
620.5	5885.9	
620.69	7484	
620.88	7818.5	
621.07	6214.2	
621.26	5806.7	
621.45	7415.7	
621.64	7348.1	
621.83	5965.7	
622.02	5484.5	
622.21	7277.8	
622.4	7379.5	
622.59	6175.3	
622.78	6139.1	
622.97	7182.2	
623.16	7520.8	
623.35	5980.1	
623.54	5531.6	
623.72	7273.7	
623.91	7197.2	
624.1	6016.2	
624.29	5467.4	
624.48	7845.1	
624.67	7496.2	
624.86	5990.3	
625.05	5575.9	
625.24	7864.2	
625.43	7180.9	
625.62	6638.8	
625.81	5687.2	
626	7460.8	
626.19	7236.8	
626.38	5995.8	
626.56	5659.2	
626.75	6956.3	
626.94	7468.3	
627.13	5968.5	
627.32	5407.3	
627.51	7482.6	
627.7	7767.9	
627.89	5385.5	
628.08	5965.7	
628.27	7023.2	
628.46	7154.2	
628.65	5646.9	
628.83	5326.8	
629.02	7336.5	
629.21	7000.6	
629.4	5725.4	
629.59	5750.7	
629.78	7005.4	
629.97	7391.8	
630.16	5804.6	
630.35	5691.3	
630.54	7838.9	
630.72	7558.4	
630.91	5732.3	
631.1	5818.3	
631.29	7208.2	
631.48	7221.1	
631.67	5949.3	
631.86	5577.3	
632.05	7275.8	
632.24	7249.1	
632.42	5470.1	
632.61	5777.3	
632.8	7081.2	
632.99	6893.5	
633.18	5836.7	
633.37	5893.4	
633.56	7362.4	
633.75	7298.3	
633.93	5837.4	
634.12	5735.7	
634.31	7774.8	
634.5	7441	
634.69	5723.4	
634.88	5922.7	
635.07	7318.1	
635.25	7494.9	
635.44	6090	
635.63	6115.9	
635.82	7234.8	
636.01	6287.9	
636.2	6055.8	
636.39	5824.4	
636.57	7744.7	
636.76	7197.2	
636.95	5635.3	
637.14	6086.6	
637.33	7362.4	
637.52	7656.7	
637.7	5487.9	
637.89	6066.1	
638.08	7239.6	
638.27	7808.9	
638.46	5952.8	
638.65	6058.6	
638.83	7742.7	
639.02	7008.8	
639.21	5859.9	
639.4	6059.9	
639.59	7192.5	
639.78	7077.8	
639.96	5504.9	
640.15	5509.7	
640.34	7180.9	
640.53	6875.7	
640.72	5423.7	
640.91	5506.3	
641.09	6835.4	
641.28	7407.5	
641.47	5570.5	
641.66	5878.4	
641.85	7135.1	
642.03	7094.8	
642.22	5599.8	
642.41	5530.9	
642.6	6806.1	
642.79	6572.6	
642.97	5392.3	
643.16	5618.9	
643.35	6730.3	
643.54	6679.8	
643.73	5292	
643.91	5603.2	
644.1	6684.6	
644.29	6879.8	
644.48	5227.8	
644.67	5261.2	
644.85	6283.9	
645.04	6898.9	
645.23	5025	
645.42	5227.1	
645.6	6523.5	
645.79	6994.5	
645.98	4985.4	
646.17	4634.6	
646.36	6067.4	
646.54	6447.7	
646.73	5291.3	
646.92	4838	
647.11	6273.6	
647.29	6679.8	
647.48	4769	
647.67	4587.4	
647.86	6828.6	
648.05	6752.2	
648.23	4876.2	
648.42	5479	
648.61	6551.5	
648.8	6475	
648.98	4752.7	
649.17	4910.3	
649.36	6290	
649.55	5991.7	
649.73	4837.3	
649.92	5116.5	
650.11	6174.6	
650.3	6335.1	
650.48	4790.9	
650.67	4749.9	
650.86	6464.8	
651.05	5986.9	
651.23	4734.9	
651.42	4733.5	
651.61	6154.8	
651.79	6002.6	
651.98	4851.6	
652.17	4620.2	
652.36	6442.2	
652.54	5855.8	
652.73	4702.1	
652.92	4706.2	
653.11	6309.1	
653.29	6434	
653.48	4386.1	
653.67	4747.2	
653.85	6141.2	
654.04	6671.6	
654.23	4816.8	
654.42	4637.3	
654.6	6003.3	
654.79	6133.7	
654.98	4304.8	
655.16	4571.7	
655.35	5867.4	
655.54	5464.7	
655.73	4454.3	
655.91	4235.2	
656.1	6094.1	
656.29	5576.6	
656.47	4171.7	
656.66	4854.4	
656.85	5920	
657.03	5721.3	
657.22	4346.5	
657.41	4443.4	
657.59	5864.7	
657.78	5805.3	
657.97	4309.6	
658.16	4583.4	
658.34	6289.3	
658.53	6443.6	
658.72	5001.1	
658.9	5216.9	
659.09	6054.5	
659.28	6047	
659.46	4536.9	
659.65	4423.6	
659.84	5896.1	
660.02	6294.8	
660.21	4499.4	
660.4	4356.7	
660.58	6287.9	
660.77	5868.1	
660.96	4674.8	
661.14	4248.2	
661.33	6509.8	
661.52	6400.6	
661.7	4238.6	
661.89	5681.7	
662.08	5822.4	
662.26	5485.1	
662.45	4403.1	
662.64	4414.7	
662.82	6213.5	
663.01	5791.7	
663.2	4375.1	
663.38	4681.7	
663.57	6052.4	
663.75	6050.4	
663.94	4560.1	
664.13	4995	
664.31	5823.7	
664.5	6057.2	
664.69	4718.5	
664.87	4859.8	
665.06	5654.4	
665.25	5937.1	
665.43	4959.5	
665.62	4889.2	
665.8	5910.4	
665.99	5771.2	
666.18	4482.3	
666.36	4464.6	
666.55	6081.1	
666.74	5843.5	
666.92	4388.1	
667.11	4958.1	
667.29	5888.6	
667.48	5999.9	
667.67	4762.2	
667.85	4437.3	
668.04	5668.8	
668.22	5698.1	
668.41	4490.5	
668.6	4698.7	
668.78	5691.3	
668.97	5743.9	
669.15	4589.5	
669.34	4166.9	
669.53	5616.9	
669.71	5774.6	
669.9	4220.9	
670.08	4472.1	
670.27	5558.2	
670.46	5894.1	
670.64	4613.4	
670.83	4719.2	
671.01	5492.7	
671.2	5748	
671.38	4275.5	
671.57	4239.3	
671.76	6115.2	
671.94	6248.4	
672.13	4168.3	
672.31	4558.8	
672.5	6004.6	
672.69	5591	
672.87	4274.1	
673.06	4398.4	
673.24	5823.1	
673.43	5711.8	
673.61	4484.4	
673.8	4350.6	
673.98	5898.8	
674.17	5920	
674.36	4627.7	
674.54	4536.3	
674.73	5421.7	
674.91	6004.6	
675.1	4365.6	
675.28	4106.9	
675.47	5663.3	
675.65	5921.4	
675.84	4303.5	
676.03	4446.8	
676.21	5750.7	
676.4	5274.9	
676.58	4652.3	
676.77	4558.1	
676.95	6314.6	
677.14	5614.2	
677.32	4151.9	
677.51	4190.8	
677.69	5974.6	
677.88	5606.7	
678.06	4182	
678.25	4233.8	
678.44	5668.8	
678.62	5574.6	
678.81	4115.7	
678.99	4477.5	
679.18	6061.3	
679.36	5889.3	
679.55	4326.7	
679.73	4527.4	
679.92	5831.2	
680.1	5611.4	
680.29	4820.9	
680.47	4297.3	
680.66	5736.4	
680.84	5920.7	
681.03	4109.6	
681.21	4598.4	
681.4	5617.6	
681.58	5560.2	
681.77	4248.9	
681.95	4208.6	
682.14	5993	
682.32	6131.6	
682.51	4631.1	
682.69	4149.9	
682.88	5577.3	
683.06	5699.5	
683.25	4436.6	
683.43	4699.4	
683.62	5869.5	
683.8	5917.9	
683.99	4807.9	
684.17	4448.2	
684.36	6179.4	
684.54	5547.3	
684.73	4121.2	
684.91	4057	
685.1	5668.1	
685.28	5331.5	
685.46	4330.1	
685.65	4302.8	
685.83	5636	
686.02	5429.2	
686.2	4069.3	
686.39	4081.6	
686.57	5362.9	
686.76	5902.9	
686.94	4087.7	
687.13	4219.5	
687.31	5693.4	
687.5	5605.3	
687.68	3992.2	
687.86	4415.4	
688.05	6375.3	
688.23	5281	
688.42	4492.6	
688.6	4203.1	
688.79	5570.5	
688.97	5577.3	
689.16	4421.6	
689.34	3961.5	
689.52	5904.3	
689.71	6152.8	
689.89	4619.5	
690.08	4197	
690.26	5803.3	
690.45	5543.9	
690.63	4618.2	
690.81	4476.2	
691	5928.9	
691.18	5664.7	
691.37	4561.5	
691.55	5370.5	
691.74	5596.4	
691.92	6494.1	
692.1	4457.1	
692.29	4296	
692.47	5857.9	
692.66	5597.1	
692.84	4377.2	
693.02	4565.6	
693.21	5536.3	
693.39	5925.5	
693.58	4661.9	
693.76	4496.7	
693.94	6401.3	
694.13	6244.3	
694.31	4616.8	
694.5	5027.8	
694.68	5884.5	
694.86	6198.5	
695.05	4786.1	
695.23	5006.6	
695.42	6243.6	
695.6	7310.6	
695.78	5156.8	
695.97	4769.7	
696.15	6531	
696.34	6139.1	
696.52	4748.6	
696.7	5115.1	
696.89	6297.5	
697.07	6022.4	
697.25	5032.5	
697.44	5571.2	
697.62	6356.9	
697.81	6320.7	
697.99	4959.5	
698.17	5108.3	
698.36	6186.9	
698.54	6429.9	
698.72	5081	
698.91	4674.8	
699.09	6302.3	
699.28	6004	
699.46	5000.5	
699.64	4932.9	
699.83	6315.9	
700.01	6561	
700.19	5433.3	
700.38	4678.9	
700.56	6446.3	
700.74	6283.9	
700.93	4867.3	
701.11	5322	
701.29	6524.8	
701.48	7109.9	
701.66	5089.2	
701.84	5191.6	
702.03	6621.1	
702.21	6997.2	
702.39	4960.2	
702.58	5255.8	
702.76	6947.4	
702.94	6816.3	
703.13	4987.5	
703.31	6090	
703.49	6647	
703.68	7012.2	
703.86	5170.4	
704.04	5569.1	
704.23	6840.9	
704.41	6907.1	
704.59	5371.1	
704.78	5769.8	
704.96	7706.5	
705.14	6954.9	
705.33	5261.9	
705.51	5627.1	
705.69	6647.7	
705.87	7122.2	
706.06	5717.9	
706.24	5222.3	
706.42	6869.6	
706.61	7114.6	
706.79	5800.5	
706.97	5291.3	
707.16	6651.8	
707.34	7053.2	
707.52	5712.5	
707.7	5501.5	
707.89	6483.9	
708.07	6715.3	
708.25	5845.6	
708.44	6034.7	
708.62	6801.3	
708.8	7284.6	
708.98	5945.9	
709.17	5646.2	
709.35	6952.2	
709.53	6987	
709.72	5449.6	
709.9	5511.8	
710.08	7348.8	
710.26	7251.9	
710.45	6176.7	
710.63	5646.2	
710.81	6963.8	
710.99	7044.3	
711.18	5890.6	
711.36	5572.5	
711.54	6947.4	
711.72	7246.4	
711.91	5679	
712.09	5427.1	
712.27	7068.9	
712.45	7325.6	
712.64	5714.5	
712.82	5253	
713	6709.1	
713.18	6673	
713.37	5233.2	
713.55	5748.6	
713.73	7053.2	
713.91	6314.6	
714.1	5193.6	
714.28	4833.2	
714.46	6596.5	
714.64	6193.1	
714.83	4448.2	
715.01	4633.9	
715.19	6111.1	
715.37	5548.6	
715.55	4399	
715.74	4511	
715.92	6266.8	
716.1	5294	
716.28	5007.3	
716.47	4487.1	
716.65	5763.7	
716.83	5616.9	
717.01	4500.1	
717.19	4419.5	
717.38	6514.6	
717.56	5546.6	
717.74	4557.4	
717.92	4300.1	
718.1	6193.7	
718.29	5816.2	
718.47	4242	
718.65	4543.1	
718.83	6388.3	
719.01	6463.4	
719.2	4446.1	
719.38	5014.8	
719.56	6421.7	
719.74	7044.3	
719.92	4878.3	
720.11	5275.6	
720.29	6421.7	
720.47	6025.8	
720.65	4488.5	
720.83	4865.3	
721.02	6135	
721.2	5878.4	
721.38	4738.3	
721.56	4373.8	
721.74	5495.4	
721.92	5524.7	
722.11	4840	
722.29	4711	
722.47	6130.9	
722.65	5769.8	
722.83	4438.6	
723.01	4739	
723.2	5541.1	
723.38	5966.4	
723.56	4151.9	
723.74	4602.5	
723.92	5418.9	
724.1	6063.4	
724.29	4365.6	
724.47	4810	
724.65	5739.1	
724.83	5539.1	
725.01	4574.5	
725.19	4699.4	
725.37	5617.6	
725.56	5558.9	
725.74	4338.3	
725.92	4358.8	
726.1	5613.5	
726.28	5822.4	
726.46	4504.8	
726.64	4454.3	
726.83	5894.1	
727.01	5890.6	
727.19	4315.8	
727.37	4567	
727.55	5991.7	
727.73	6161.7	
727.91	4332.8	
728.09	4189.5	
728.28	5849	
728.46	6170.5	
728.64	4650.9	
728.82	4724.7	
729	6617.7	
729.18	6391.7	
729.36	4337.6	
729.54	5380.7	
729.72	6901.7	
729.91	6173.3	
730.09	5503.6	
730.27	4878.3	
730.45	6322.8	
730.63	6440.2	
730.81	5171.1	
730.99	4867.3	
731.17	6937.2	
731.35	6155.5	
731.53	4978.6	
731.71	4860.5	
731.9	6642.9	
732.08	6535.8	
732.26	4969.1	
732.44	4787.5	
732.62	6678.4	
732.8	6445.6	
732.98	5132.9	
733.16	4686.4	
733.34	6526.9	
733.52	5693.4	
733.7	4915.1	
733.88	5008	
734.07	6365.8	
734.25	6260.6	
734.43	4730.1	
734.61	5273.5	
734.79	6941.9	
734.97	6169.8	
735.15	4728.1	
735.33	4861.2	
735.51	6310.5	
735.69	6158.9	
735.87	5330.9	
736.05	4882.4	
736.23	6318.7	
736.41	6070.2	
736.59	4872.1	
736.77	4945.8	
736.95	6501.6	
737.13	6053.8	
737.32	4720.6	
737.5	4794.3	
737.68	6779.5	
737.86	6176	
738.04	4661.9	
738.22	5413.5	
738.4	6124.1	
738.58	6200.6	
738.76	4878.9	
738.94	4500.1	
739.12	6158.9	
739.3	6062	
739.48	5113.8	
739.66	5033.9	
739.84	6267.5	
740.02	6236.7	
740.2	4488.5	
740.38	4557.4	
740.56	6383.5	
740.74	5630.5	
740.92	4904.9	
741.1	4754	
741.28	6091.3	
741.46	5926.8	
741.64	4677.6	
741.82	4837.3	
742	6163	
742.18	5903.6	
742.36	4713.1	
742.54	4538.3	
742.72	6408.1	
742.9	5598.5	
743.08	4752.7	
743.26	4229.7	
743.44	6263.4	
743.62	6156.2	
743.8	4862.6	
743.98	4410	
744.16	6099.5	
744.34	5896.8	
744.52	4709.6	
744.7	4757.4	
744.88	6074.3	
745.06	5854.5	
745.24	4713.1	
745.42	4761.5	
745.6	6229.2	
745.78	6109.8	
745.96	4113	
746.14	4311.7	
746.32	6457.2	
746.5	5718.6	
746.68	4482.3	
746.86	4251.6	
747.03	6030.6	
747.21	5449.6	
747.39	4504.2	
747.57	4216.8	
747.75	5732.3	
747.93	5883.8	
748.11	4106.9	
748.29	4184.7	
748.47	6532.3	
748.65	5818.3	
748.83	4565.6	
749.01	4429.1	
749.19	5930.9	
749.37	5445.5	
749.55	4399	
749.73	4331.5	
749.91	5815.5	
750.09	5677	
750.26	4350.6	
750.44	4068.6	
750.62	5710.4	
750.8	5539.8	
750.98	4005.1	
751.16	4188.8	
751.34	5788.9	
751.52	5442.8	
751.7	4458.4	
751.88	4015.4	
752.06	5943.9	
752.24	5730.9	
752.42	3913.7	
752.59	4136.2	
752.77	5619.6	
752.95	6145.3	
753.13	4478.2	
753.31	4099.4	
753.49	5472.9	
753.67	5546.6	
753.85	4301.4	
754.03	3967.6	
754.21	5653.8	
754.38	5776.6	
754.56	3979.9	
754.74	3591.5	
754.92	5205.9	
755.1	5369.8	
755.28	3334.1	
755.46	3331.4	
755.64	5591.6	
755.82	5469.4	
755.99	3111.5	
756.17	3052.2	
756.35	4016.1	
756.53	4658.4	
756.71	2407.7	
756.89	2993.4	
757.07	4414.1	
757.25	4133.5	
757.42	3160	
757.6	3497.2	
757.78	4609.3	
757.96	4257	
758.14	3102	
758.32	2883.5	
758.5	4050.9	
758.67	4494.6	
758.85	2934.7	
759.03	2990	
759.21	4505.5	
759.39	4065.9	
759.57	2770.9	
759.75	3265.1	
759.92	4813.4	
760.1	4595.6	
760.28	3541.6	
760.46	3663.1	
760.64	4519.2	
760.82	4498.7	
760.99	3479.5	
761.17	3245.3	
761.35	4921.3	
761.53	4420.9	
761.71	3368.9	
761.89	3558.7	
762.06	4863.2	
762.24	4758.1	
762.42	3510.2	
762.6	3332.7	
762.78	4814.1	
762.96	4720.6	
763.13	3706.1	
763.31	3457.7	
763.49	5092.6	
763.67	4806.6	
763.85	3885.7	
764.02	4175.1	
764.2	5343.8	
764.38	4700.8	
764.56	3515	
764.74	3833.8	
764.91	5222.3	
765.09	4790.2	
765.27	3434.4	
765.45	3203	
765.63	5448.3	
765.8	5159.5	
765.98	3160	
766.16	3235.8	
766.34	4373.1	
766.52	4462.5	
766.69	3646.1	
766.87	3119.1	
767.05	4732.9	
767.23	5120.6	
767.41	3266.5	
767.58	3386	
767.76	5023.7	
767.94	4988.2	
768.12	3351.2	
768.29	3553.2	
768.47	4479.6	
768.65	5062.6	
768.83	3112.2	
769	3473.4	
769.18	4503.5	
769.36	4846.9	
769.54	3519.1	
769.72	3049.4	
769.89	5070.1	
770.07	4900.8	
770.25	3267.9	
770.43	3737.5	
770.6	5153.4	
770.78	5228.5	
770.96	3274.7	
771.14	3467.2	
771.31	4959.5	
771.49	4621.6	
771.67	2895.1	
771.85	2941.6	
772.02	4141.7	
772.2	4422.2	
772.38	3341.6	
772.55	3009.1	
772.73	4630.5	
772.91	4519.9	
773.09	3146.4	
773.26	3215.3	
773.44	4644.1	
773.62	4501.4	
773.8	3017.3	
773.97	2902.7	
774.15	4612	
774.33	4446.1	
774.5	2864.4	
774.68	3041.9	
774.86	4607.9	
775.04	4409.3	
775.21	2918.4	
775.39	2841.9	
775.57	4472.8	
775.74	4567	
775.92	2766.8	
776.1	2665.1	
776.27	4494.6	
776.45	5024.3	
776.63	2842.6	
776.81	2719.7	
776.98	4430.4	
777.16	4686.4	
777.34	2891.7	
777.51	3038.5	
777.69	4314.4	
777.87	4172.4	
778.04	2983.2	
778.22	3074	
778.4	4197	
778.57	4493.9	
778.75	2557.2	
778.93	2722.4	
779.1	4147.1	
779.28	3862.5	
779.46	2550.4	
779.64	2682.8	
779.81	4606.6	
779.99	4855.1	
780.17	3035.1	
780.34	3071.3	
780.52	4276.8	
780.69	4280.3	
780.87	2880.8	
781.05	2734	
781.22	4335.5	
781.4	4273.4	
781.58	2748.4	
781.75	2283.5	
781.93	4324.6	
782.11	3848.1	
782.28	3128.6	
782.46	2669.9	
782.64	3888.4	
782.81	4354	
782.99	2760.7	
783.17	2665.1	
783.34	4145.8	
783.52	4027	
783.69	2678.1	
783.87	3067.2	
784.05	4094.6	
784.22	3917.8	
784.4	3102	
784.58	2780.5	
784.75	4491.9	
784.93	4130.1	
785.1	2611.8	
785.28	3033	
785.46	4401.8	
785.63	3856.3	
785.81	2702	
785.99	2519.7	
786.16	4092.5	
786.34	4112.3	
786.51	2525.8	
786.69	2804.4	
786.87	3745.7	
787.04	3992.2	
787.22	2520.4	
787.39	2875.3	
787.57	3936.2	
787.75	4366.3	
787.92	3076.7	
788.1	2926.5	
788.27	3787.4	
788.45	3479.5	
788.63	2844.6	
788.8	2265.1	
788.98	4196.3	
789.15	3528	
789.33	2321	
789.5	2557.9	
789.68	4298	
789.86	4334.2	
790.03	2806.4	
790.21	2508.1	
790.38	4407.2	
790.56	4006.5	
790.73	2489	
790.91	2460.3	
791.09	3928	
791.26	4198.3	
791.44	2615.3	
791.61	2306.7	
791.79	3886.4	
791.96	3850.9	
792.14	2579.8	
792.32	2176.3	
792.49	3828.3	
792.67	3921.2	
792.84	2465.1	
793.02	2344.9	
793.19	4158.7	
793.37	4369.7	
793.54	2168.8	
793.72	2372.2	
793.89	4459.1	
794.07	3741	
794.25	2554.5	
794.42	2246.6	
794.6	4300.7	
794.77	4080.9	
794.95	2729.9	
795.12	2444.6	
795.3	3816	
795.47	4025.6	
795.65	2700.6	
795.82	2578.4	
796	3737.5	
796.17	4550.6	
796.35	2537.4	
796.52	2908.1	
796.7	4077.5	
796.87	4149.9	
797.05	2510.8	
797.22	2878.8	
797.4	4184	
797.57	4485.7	
797.75	2639.8	
797.92	2493.7	
798.1	4321.2	
798.27	3564.1	
798.45	2278	
798.62	2373.6	
798.8	3962.1	
798.97	4184.7	
799.15	2601.6	
799.32	2537.4	
799.5	3581.2	
799.67	3917.1	
799.85	2728.6	
800.02	2199.5	
800.2	3856.3	
800.37	3816.7	
800.55	2749.1	
800.72	2449.4	
800.9	4169.7	
801.07	4253.6	
801.25	3041.9	
801.42	2598.9	
801.6	4203.1	
801.77	3873.4	
801.95	2512.9	
802.12	2370.9	
802.29	4089.1	
802.47	3971.7	
802.64	2630.3	
802.82	2197.5	
802.99	3850.9	
803.17	4093.9	
803.34	2593.4	
803.52	2335.4	
803.69	4326	
803.87	3599.6	
804.04	2569.5	
804.21	2512.9	
804.39	4371	
804.56	3835.8	
804.74	2265.7	
804.91	2579.8	
805.09	3766.9	
805.26	3758	
805.44	2314.9	
805.61	2452.8	
805.78	4162.8	
805.96	3945.8	
806.13	2527.2	
806.31	2699.2	
806.48	3495.9	
806.66	3750.5	
806.83	2630.3	
807	2471.9	
807.18	3792.8	
807.35	3925.3	
807.53	2503.3	
807.7	2185.9	
807.87	4290.5	
808.05	3770.3	
808.22	2701.3	
808.4	2192.7	
808.57	3657.7	
808.74	3597.6	
808.92	2408.4	
809.09	2837.8	
809.27	3839.3	
809.44	3935.5	
809.61	2138.8	
809.79	2301.9	
809.96	4518.5	
810.14	4054.3	
810.31	2188.6	
810.48	2630.3	
810.66	3771	
810.83	4031.1	
811.01	2352.4	
811.18	2529.9	
811.35	4117.8	
811.53	3423.5	
811.7	2699.2	
811.87	2595.5	
812.05	3891.1	
812.22	3723.9	
812.39	2371.5	
812.57	2252.1	
812.74	3812	
812.92	4426.3	
813.09	2521.7	
813.26	2529.9	
813.44	4414.7	
813.61	3592.1	
813.78	2202.2	
813.96	2633.7	
814.13	3818.1	
814.3	3713.6	
814.48	2756.6	
814.65	2420	
814.82	4092.5	
815	3535.5	
815.17	2454.1	
815.34	2871.3	
815.52	3702	
815.69	3730.7	
815.87	2398.2	
816.04	2427.5	
816.21	3563.5	
816.38	3538.2	
816.56	2404.3	
816.73	2280.1	
816.9	4515.1	
817.08	3915.7	
817.25	2366.1	
817.42	2697.2	
817.6	3532.7	
817.77	3714.3	
817.94	2515.6	
818.12	2240.5	
818.29	3680.9	
818.46	4640.7	
818.64	2443.9	
818.81	2204.3	
818.98	3642.7	
819.16	4542.4	
819.33	2622.1	
819.5	2497.2	
819.67	3931.4	
819.85	4249.5	
820.02	2459.6	
820.19	2517.6	
820.37	3910.3	
820.54	3649.5	
820.71	2483.5	
820.88	2922.5	
821.06	3846.1	
821.23	3664.5	
821.4	2516.3	
821.58	2518.3	
821.75	4006.5	
821.92	3887.7	
822.09	2188.6	
822.27	2210.4	
822.44	3768.3	
822.61	3773.7	
822.79	2205	
822.96	3526.6	
823.13	3820.8	
823.3	3540.9	
823.48	2369.5	
823.65	2170.2	
823.82	4162.8	
823.99	3599	
824.17	2778.4	
824.34	2243.2	
824.51	4525.3	
824.68	3783.3	
824.86	2312.2	
825.03	2493.7	
825.2	3824.9	
825.37	4175.1	
825.55	2349	
825.72	2407.7	
825.89	4419.5	
826.06	4201.1	
826.24	2436.4	
826.41	2383.8	
826.58	4302.8	
826.75	3726.6	
826.92	2110.8	
827.1	2261	
827.27	5272.2	
827.44	4346.5	
827.61	2370.2	
827.79	2634.4	
827.96	3774.4	
828.13	3661.8	
828.3	2457.6	
828.47	2116.2	
828.65	4065.9	
828.82	3921.9	
828.99	2792.7	
829.16	2533.3	
829.34	4064.5	
829.51	4147.1	
829.68	2392	
829.85	2392	
830.02	4465.3	
830.2	4207.2	
830.37	2001.5	
830.54	2729.3	
830.71	4458.4	
830.88	3870.7	
831.05	2005	
831.23	2247.3	
831.4	4523.3	
831.57	4489.8	
831.74	2344.9	
831.91	2090.3	
832.09	4152.6	
832.26	4209.3	
832.43	2301.2	
832.6	2510.8	
832.77	3986	
832.94	4398.4	
833.12	2040.5	
833.29	2275.3	
833.46	3653.6	
833.63	4688.5	
833.8	2501.3	
833.97	2322.4	
834.15	4265.2	
834.32	4087.1	
834.49	2409.8	
834.66	2407	
834.83	4039.3	
835	3734.8	
835.17	2274.6	
835.35	2280.1	
835.52	4123.9	
835.69	4015.4	
835.86	2347	
836.03	2035	
836.2	4216.8	
836.37	3939.6	
836.55	2228.9	
836.72	2177.7	
836.89	3985.3	
837.06	4242.7	
837.23	2337.4	
837.4	2455.5	
837.57	4504.2	
837.75	4647.5	
837.92	2221.4	
838.09	2270.5	
838.26	3989.4	
838.43	4151.9	
838.6	2427.5	
838.77	2237.1	
838.94	4527.4	
839.11	4534.9	
839.29	2329.9	
839.46	1942.2	
839.63	4233.2	
839.8	3900.7	
839.97	2259.6	
840.14	2214.5	
840.31	4164.2	
840.48	4270	
840.65	2004.3	
840.82	2274.6	
841	4184	
841.17	3966.2	
841.34	2112.1	
841.51	2202.9	
841.68	4154.6	
841.85	3981.9	
842.02	2198.2	
842.19	1952.4	
842.36	4071.4	
842.53	4075.5	
842.7	2125.1	
842.87	2367.5	
843.05	4703.5	
843.22	3969.6	
843.39	2061.6	
843.56	2276.7	
843.73	3994.9	
843.9	4194.2	
844.07	2982.5	
844.24	2574.3	
844.41	5027.8	
844.58	3778.5	
844.75	2073.2	
844.92	2220	
845.09	3978.5	
845.26	4106.2	
845.43	2154.5	
845.6	2246.6	
845.77	4136.9	
845.94	3994.2	
846.12	2308.1	
846.29	2407.7	
846.46	4278.9	
846.63	4085	
846.8	2147	
846.97	2433.7	
847.14	4196.3	
847.31	4126	
847.48	2293.7	
847.65	2482.1	
847.82	3755.3	
847.99	4154	
848.16	2600.2	
848.33	2450.1	
848.5	3867.9	
848.67	4338.3	
848.84	2120.3	
849.01	2199.5	
849.18	3956.7	
849.35	3600.3	
849.52	2477.4	
849.69	2081.4	
849.86	4313	
850.03	4212.7	
850.2	2136	
850.37	2431.6	
850.54	4208.6	
850.71	3780.6	
850.88	2449.4	
851.05	2076.6	
851.22	4069.3	
851.39	4289.8	
851.56	2021.3	
851.73	2321.7	
851.9	3752.6	
852.07	4207.9	
852.24	2314.2	
852.41	2122.4	
852.58	4100.7	
852.75	3822.9	
852.92	2306	
853.09	2135.3	
853.26	3575.8	
853.43	4160.1	
853.6	2151.7	
853.77	1921.7	
853.94	4374.5	
854.11	3697.9	
854.28	2867.2	
854.44	2261	
854.61	4513	
854.78	4227	
854.95	2118.3	
855.12	2478	
855.29	3525.2	
855.46	4463.9	
855.63	2137.4	
855.8	2689.7	
855.97	3853.6	
856.14	4233.2	
856.31	2719	
856.48	2250	
856.65	3981.3	
856.82	3723.9	
856.99	2081.4	
857.16	2222	
857.33	4604.5	
857.49	3874.8	
857.66	2282.1	
857.83	2325.1	
858	4089.1	
858.17	4055.7	
858.34	2040.5	
858.51	2147	
858.68	4323.9	
858.85	4360.8	
859.02	2363.4	
859.19	2458.2	
859.36	3818.8	
859.52	3520.5	
859.69	2101.2	
859.86	2388.6	
860.03	3555.3	
860.2	4364.2	
860.37	2042.5	
860.54	2171.5	
860.71	4149.9	
860.88	4356	
861.05	2297.8	
861.21	2537.4	
861.38	4321.9	
861.55	3538.2	
861.72	1994.7	
861.89	2303.3	
862.06	4190.8	
862.23	4401.1	
862.4	2046.6	
862.56	2160.6	
862.73	4104.1	
862.9	3997.6	
863.07	2346.3	
863.24	2054.8	
863.41	3662.5	
863.58	3779.9	
863.75	2157.9	
863.91	2424.1	
864.08	4206.5	
864.25	4064.5	
864.42	2469.2	
864.59	2742.9	
864.76	4388.8	
864.93	3691.1	
865.09	2095.1	
865.26	2257.5	
865.43	4258.4	
865.6	4479.6	
865.77	1961.3	
865.94	2095.8	
866.1	4257.7	
866.27	3994.2	
866.44	2854.2	
866.61	2041.1	
866.78	3895.2	
866.95	4194.2	
867.11	2103.3	
867.28	2002.2	
867.45	4321.2	
867.62	3743	
867.79	2303.3	
867.96	2135.3	
868.12	3694.5	
868.29	4097.3	
868.46	2113.5	
868.63	2626.2	
868.8	4226.3	
868.97	4193.6	
869.13	2177	
869.3	2252.1	
869.47	4098.7	
869.64	4282.3	
869.81	2069.1	
869.97	2103.9	
870.14	3919.1	
870.31	4362.9	
870.48	2058.9	
870.65	2482.8	
870.81	3974.4	
870.98	3962.1	
871.15	2317.6	
871.32	2179.7	
871.48	4063.9	
871.65	4382.7	
871.82	2083.5	
871.99	2263	
872.16	4513	
872.32	4289.1	
872.49	2205	
872.66	2134	
872.83	4179.2	
872.99	3863.8	
873.16	2324.4	
873.33	2133.3	
873.5	3941.7	
873.67	4009.2	
873.83	2215.2	
874	2628.2	
874.17	4150.6	
874.34	4293.2	
874.5	2553.1	
874.67	2434.4	
874.84	4288.4	
875.01	3523.2	
875.17	2706	
875.34	2146.3	
875.51	4063.2	
875.68	4645.5	
875.84	2469.2	
876.01	2744.3	
876.18	4136.9	
876.34	4064.5	
876.51	2093	
876.68	2097.1	
876.85	3816	
877.01	4349.9	
877.18	2746.3	
877.35	2052.7	
877.52	4177.2	
877.68	3799	
877.85	2134	
878.02	2063	
878.18	3528	
878.35	3982.6	
878.52	1791.3	
878.69	2355.2	
878.85	4317.8	
879.02	4059.8	
879.19	2762.7	
879.35	2194.7	
879.52	4188.1	
879.69	4087.1	
879.86	1967.4	
880.02	2302.6	
880.19	4002.4	
880.36	4556.7	
880.52	2318.3	
880.69	2372.9	
880.86	4149.2	
881.02	4191.5	
881.19	2289.6	
881.36	2246.6	
881.52	4161.5	
881.69	3758	
881.86	2274.6	
882.02	2194.1	
882.19	4274.1	
882.36	4737.6	
882.52	2218.6	
882.69	2731.3	
882.86	4007.9	
883.02	4080.2	
883.19	2413.2	
883.36	2347	
883.52	4195.6	
883.69	4510.3	
883.86	2164.7	
884.02	2018.6	
884.19	4144.4	
884.36	4015.4	
884.52	2311.5	
884.69	2269.1	
884.86	3971	
885.02	4373.1	
885.19	2230.2	
885.36	2342.9	
885.52	3775.8	
885.69	4127.3	
885.86	2823.5	
886.02	2534	
886.19	4133.5	
886.35	3790.8	
886.52	2273.9	
886.69	2672.6	
886.85	3748.5	
887.02	4284.4	
887.19	4284.4	
887.35	4284.4	
887.52	4284.4	
887.68	4284.4	
887.85	4284.4	
888.02	4284.4	
888.18	4284.4	
888.35	4284.4	
888.51	4284.4	
888.68	4284.4	
888.85	4284.4	
889.01	4284.4	
889.18	4284.4	
889.35	4284.4	
889.51	4284.4	
889.68	4284.4	
889.84	4284.4	
890.01	4284.4	
890.17	4284.4	
890.34	4284.4	
890.51	4284.4	
890.67	4284.4	
890.84	4284.4	
891	4284.4	
891.17	4284.4	
891.34	4284.4	
891.5	4284.4	
891.67	4284.4	
891.83	4284.4	
892	4284.4	
892.16	4284.4	
892.33	4284.4	
892.5	4284.4	
892.66	4284.4	
892.83	4284.4	
892.99	4284.4	
893.16	4284.4	
893.32	4284.4	
893.49	4284.4	
893.65	4284.4	
893.82	4284.4	
893.99	4284.4	
894.15	4284.4	
894.32	4284.4	
894.48	4284.4	
894.65	4284.4	
894.81	4284.4	
894.98	4284.4	
895.14	4284.4	
895.31	4284.4	
895.47	4284.4	
895.64	4284.4	
895.81	4284.4	
895.97	4284.4	
896.14	4284.4	
896.3	4284.4	
896.47	4284.4	
896.63	4284.4	
896.8	4284.4	
896.96	4284.4	
897.13	4284.4	
897.29	4284.4	
897.46	4284.4	
897.62	4284.4	
897.79	4284.4	
897.95	4284.4	
898.12	4284.4	
898.28	4284.4	
898.45	4284.4	
898.61	4284.4	
898.78	4284.4	
898.94	4284.4	
899.11	4284.4	
899.27	4284.4	
899.44	4284.4	
899.6	4284.4	
899.77	4284.4	
899.93	4284.4	
900.1	4284.4	
900.26	4284.4	
900.43	4284.4	
900.59	4284.4	
900.76	4284.4	
900.92	4284.4	
901.09	4284.4	
901.25	4284.4	
901.42	4284.4	
901.58	4284.4	
901.75	4284.4	
901.91	4284.4	
902.07	4284.4	
902.24	4284.4	
902.4	4284.4	
902.57	4284.4	
902.73	4284.4	
902.9	4284.4	
903.06	4284.4	
903.23	4284.4	
903.39	4284.4	
903.56	4284.4	
903.72	4284.4	
903.88	4284.4	
904.05	4284.4	
904.21	4284.4	
904.38	4284.4	
904.54	4284.4	
904.71	4284.4	
904.87	4284.4	
905.03	4284.4	
905.2	4284.4	
905.36	4284.4	
905.53	4284.4	
905.69	4284.4	
905.86	4284.4	
906.02	4284.4	
906.18	4284.4	
906.35	4284.4	
906.51	4284.4	
906.68	4284.4	
906.84	4284.4	
907.01	4284.4	
907.17	4284.4	
907.33	4284.4	
907.5	4284.4	
907.66	4284.4	
907.83	4284.4	
907.99	4284.4	
908.15	4284.4	
908.32	4284.4	
908.48	4284.4	
908.65	4284.4	
908.81	4284.4	
908.97	4284.4	
909.14	4284.4	
909.3	4284.4	
909.47	4284.4	
909.63	4284.4	
909.79	4284.4	
909.96	4284.4	
910.12	4284.4	
910.28	4284.4	
910.45	4284.4	
910.61	4284.4	
910.78	4284.4	
910.94	4284.4	
911.1	4284.4	
911.27	4284.4	
911.43	4284.4	
911.59	4284.4	
911.76	4284.4	
911.92	4284.4	
912.08	4284.4	
912.25	4284.4	
912.41	4284.4	
912.57	4284.4	
912.74	4284.4	
912.9	4284.4	
913.07	4284.4	
913.23	4284.4	
913.39	4284.4	
913.56	4284.4	
913.72	4284.4	
913.88	4284.4	
914.05	4284.4	
914.21	4284.4	
914.37	4284.4	
914.54	4284.4	
914.7	4284.4	
914.86	4284.4	
915.03	4284.4	
915.19	4284.4	
