Wavelength	Intensities	
nm	a.u.	
179.22	1716.5	
179.44	1713.5	
179.65	1719.6	
179.86	1707.3	
180.08	1712.1	
180.29	4044.7	
180.51	3062.4	
180.72	4989.5	
180.94	5644.9	
181.15	2734	
181.37	2779.8	
181.58	4859.1	
181.79	5034.6	
182.01	2871.9	
182.22	3031.7	
182.44	5058.5	
182.65	4373.1	
182.87	3709.6	
183.08	3272	
183.29	5287.9	
183.51	4454.3	
183.72	3037.8	
183.94	4237.9	
184.15	4764.3	
184.37	4696	
184.58	2738.1	
184.79	3515.7	
185.01	4550.6	
185.22	5107.6	
185.44	3728.7	
185.65	3195.5	
185.86	4848.2	
186.08	4460.5	
186.29	2677.4	
186.51	2827.6	
186.72	4573.1	
186.94	5166.3	
187.15	3284.3	
187.36	3313.6	
187.58	6525.5	
187.79	4866	
188.01	3383.9	
188.22	5160.9	
188.43	5662	
188.65	5017.5	
188.86	2894.5	
189.08	3349.8	
189.29	4597.7	
189.5	4592.9	
189.72	3082.2	
189.93	3125.2	
190.15	5213.4	
190.36	6064	
190.57	3398.9	
190.79	3236.5	
191	5261.2	
191.22	5205.3	
191.43	3407.1	
191.64	2906.8	
191.86	5385.5	
192.07	5173.2	
192.29	2953.2	
192.5	3072.6	
192.71	5195.7	
192.93	4625	
193.14	3061.7	
193.35	3199.6	
193.57	4601.8	
193.78	5201.2	
194	2536.8	
194.21	3004.4	
194.42	4469.4	
194.64	4795.7	
194.85	3289	
195.07	3787.4	
195.28	4820.2	
195.49	4285	
195.71	4026.3	
195.92	2893.1	
196.13	4977.2	
196.35	4993.6	
196.56	4175.1	
196.78	3308.2	
196.99	5961	
197.2	5614.2	
197.42	3682.2	
197.63	3359.4	
197.84	4363.5	
198.06	4971.1	
198.27	3136.8	
198.48	4002.4	
198.7	4618.9	
198.91	4821.6	
199.13	3343.7	
199.34	3343	
199.55	5176.6	
199.77	4162.2	
199.98	2951.1	
200.19	3382.6	
200.41	4734.9	
200.62	4502.8	
200.83	3395.5	
201.05	3669.3	
201.26	4724	
201.47	4537.6	
201.69	3015.3	
201.9	2957.3	
202.11	4800.4	
202.33	5554.8	
202.54	3162.1	
202.76	3482.2	
202.97	4836.6	
203.18	4878.3	
203.4	3446.7	
203.61	3477.5	
203.82	4825.7	
204.04	4552.6	
204.25	3411.2	
204.46	3320.4	
204.68	4782.7	
204.89	4959.5	
205.1	3260.4	
205.32	2909.5	
205.53	5026.4	
205.74	5160.9	
205.96	2529.9	
206.17	3343	
206.38	5039.4	
206.6	5180	
206.81	3775.1	
207.02	3155.2	
207.24	4983.4	
207.45	5283.1	
207.66	3223.5	
207.88	2861.7	
208.09	4895.3	
208.3	4770.4	
208.52	2943.6	
208.73	3225.6	
208.94	4790.2	
209.15	5303.6	
209.37	3163.4	
209.58	3588.7	
209.79	5164.3	
210.01	4676.9	
210.22	2639.1	
210.43	2745.6	
210.65	4747.9	
210.86	5022.3	
211.07	3154.6	
211.29	2995.5	
211.5	5005.2	
211.71	4743.1	
211.93	3009.1	
212.14	2963.4	
212.35	4769.7	
212.56	4868.7	
212.78	3347.7	
212.99	2822.8	
213.2	5498.1	
213.42	4610.7	
213.63	3072	
213.84	3263.8	
214.06	4409.3	
214.27	4388.1	
214.48	3176.4	
214.69	3423.5	
214.91	5298.8	
215.12	5342.5	
215.33	3359.4	
215.55	3683.6	
215.76	5736.4	
215.97	5010.7	
216.18	3295.2	
216.4	3317	
216.61	4539.7	
216.82	5095.3	
217.04	3039.9	
217.25	3148.4	
217.46	5309.7	
217.67	5079.6	
217.89	2742.9	
218.1	2837.8	
218.31	4839.4	
218.53	4963.6	
218.74	3220.8	
218.95	3016	
219.16	4799.8	
219.38	5485.8	
219.59	3045.3	
219.8	3478.1	
220.01	5929.6	
220.23	4794.3	
220.44	3807.9	
220.65	2946.3	
220.87	4843.4	
221.08	5321.3	
221.29	2833.7	
221.5	3590.8	
221.72	6211.5	
221.93	4541	
222.14	3321.8	
222.35	3873.4	
222.57	4788.2	
222.78	5091.3	
222.99	3211.9	
223.2	3400.3	
223.42	4944.5	
223.63	5033.2	
223.84	2547.7	
224.05	2580.4	
224.27	5817.6	
224.48	5425.1	
224.69	3918.4	
224.9	3368.2	
225.12	4948.6	
225.33	4769	
225.54	2752.5	
225.75	2990.7	
225.97	4469.4	
226.18	4707.6	
226.39	3214.6	
226.6	3050.1	
226.82	4644.8	
227.03	4485.1	
227.24	3369.6	
227.45	2846	
227.67	5128.1	
227.88	5475.6	
228.09	3721.2	
228.3	3646.1	
228.52	5069.4	
228.73	4747.9	
228.94	3112.2	
229.15	2839.8	
229.36	4805.2	
229.58	4704.9	
229.79	3175	
230	3612.6	
230.21	5658.5	
230.43	4850.3	
230.64	3262.4	
230.85	3438.5	
231.06	5115.8	
231.28	5164.3	
231.49	2833	
231.7	3310.2	
231.91	5043.5	
232.12	4809.3	
232.34	2925.2	
232.55	3256.3	
232.76	5269.4	
232.97	4852.3	
233.18	2962.7	
233.4	3309.5	
233.61	4950.6	
233.82	4579.9	
234.03	3145.7	
234.25	3120.4	
234.46	6327.5	
234.67	4835.3	
234.88	3396.2	
235.09	3074.7	
235.31	4937.7	
235.52	4706.2	
235.73	3313.6	
235.94	2843.9	
236.15	4614.8	
236.37	5623.7	
236.58	2968.2	
236.79	3269.2	
237	5016.8	
237.21	4399	
237.43	3458.3	
237.64	2748.4	
237.85	7893.6	
238.06	4440.7	
238.27	3419.4	
238.48	2917.7	
238.7	5029.8	
238.91	4716.5	
239.12	3224.9	
239.33	3241.9	
239.54	4519.2	
239.76	4715.8	
239.97	3234.4	
240.18	3232.4	
240.39	5649	
240.6	4931.5	
240.82	3301.3	
241.03	2835.8	
241.24	4753.3	
241.45	5399.8	
241.66	2950.4	
241.87	3409.9	
242.09	5399.1	
242.3	5575.9	
242.51	3512.9	
242.72	3210.5	
242.93	5133.6	
243.14	4732.2	
243.36	3609.9	
243.57	3885.7	
243.78	5425.8	
243.99	5051	
244.2	3181.2	
244.41	2909.5	
244.63	4444.8	
244.84	4975.9	
245.05	3425.6	
245.26	3240.6	
245.47	5031.9	
245.68	5130.8	
245.9	4144.4	
246.11	3382.6	
246.32	4612	
246.53	4942.4	
246.74	5033.9	
246.95	2788.7	
247.16	4507.6	
247.38	4814.8	
247.59	2865.1	
247.8	3280.8	
248.01	4463.9	
248.22	4790.9	
248.43	2987.3	
248.64	3185.3	
248.86	4339	
249.07	4536.3	
249.28	2938.8	
249.49	3355.3	
249.7	5177.3	
249.91	5218.2	
250.12	2816	
250.34	2841.2	
250.55	4881	
250.76	4805.2	
250.97	3322.5	
251.18	3377.8	
251.39	5270.8	
251.6	4960.2	
251.81	3365.5	
252.03	3345.7	
252.24	4622.3	
252.45	5066.7	
252.66	2882.2	
252.87	3537.5	
253.08	4774.5	
253.29	5964.4	
253.5	2895.1	
253.72	3855	
253.93	4758.1	
254.14	5556.1	
254.35	3072.6	
254.56	3157.3	
254.77	4967	
254.98	4555.4	
255.19	3060.3	
255.41	3827	
255.62	4860.5	
255.83	5261.9	
256.04	3442	
256.25	3345	
256.46	5664.7	
256.67	4565.6	
256.88	3313.6	
257.09	3642.7	
257.31	4489.8	
257.52	4562.2	
257.73	4095.9	
257.94	3072.6	
258.15	4741	
258.36	4815.5	
258.57	3776.5	
258.78	2581.1	
258.99	5193	
259.2	4640	
259.41	3085.6	
259.63	3189.4	
259.84	5464	
260.05	5643.5	
260.26	3920.5	
260.47	3043.3	
260.68	5214.8	
260.89	4734.2	
261.1	3676.1	
261.31	2969.6	
261.52	5276.9	
261.73	5455.1	
261.95	3888.4	
262.16	3433.8	
262.37	5369.1	
262.58	5372.5	
262.79	3909.6	
263	3158.7	
263.21	4859.8	
263.42	4649.6	
263.63	3350.5	
263.84	3142.3	
264.05	5159.5	
264.26	5410.1	
264.47	3779.9	
264.69	3325.2	
264.9	5420.3	
265.11	4953.4	
265.32	3049.4	
265.53	3101.3	
265.74	4876.9	
265.95	4313	
266.16	3282.2	
266.37	3558	
266.58	4891.2	
266.79	4625.7	
267	3073.3	
267.21	2887	
267.42	4468.7	
267.63	4797	
267.84	3216.7	
268.06	2850.8	
268.27	5093.3	
268.48	5317.2	
268.69	3211.2	
268.9	3656.3	
269.11	5272.2	
269.32	4362.2	
269.53	3217.4	
269.74	3003	
269.95	4981.3	
270.16	4349.2	
270.37	3257.6	
270.58	3673.4	
270.79	4671.4	
271	5157.5	
271.21	3358	
271.42	3274	
271.63	4990.9	
271.84	4429.8	
272.05	2667.1	
272.26	2930	
272.47	4730.8	
272.68	4876.9	
272.89	3177.8	
273.11	3526.6	
273.32	4599.7	
273.53	5434.6	
273.74	3442.6	
273.95	3399.6	
274.16	5165	
274.37	4803.2	
274.58	3540.9	
274.79	2867.2	
275	4888.5	
275.21	5268.7	
275.42	4203.1	
275.63	3509.5	
275.84	4964.3	
276.05	6081.8	
276.26	3396.2	
276.47	3145.7	
276.68	4720.6	
276.89	5528.2	
277.1	3642	
277.31	2931.3	
277.52	4945.8	
277.73	5196.4	
277.94	2843.3	
278.15	3133.4	
278.36	4930.1	
278.57	4565.6	
278.78	3101.3	
278.99	3446.7	
279.2	4587.4	
279.41	4533.5	
279.62	4002.4	
279.83	2890.4	
280.04	5721.3	
280.25	4501.4	
280.46	3964.9	
280.67	3216.7	
280.88	4537.6	
281.09	5263.3	
281.3	3293.8	
281.51	4115.1	
281.72	5165	
281.93	5135.6	
282.14	3050.8	
282.35	3304.1	
282.56	5231.2	
282.77	5130.2	
282.98	3184.6	
283.19	3680.9	
283.4	6148.7	
283.61	4728.1	
283.82	2978.4	
284.03	3907.5	
284.24	4928.1	
284.45	5233.2	
284.66	3972.4	
284.87	3702.7	
285.08	5263.3	
285.29	5390.3	
285.5	2831	
285.71	3150.5	
285.92	5223.7	
286.12	5680.4	
286.33	3897.3	
286.54	3190.1	
286.75	5099.4	
286.96	4700.8	
287.17	2984.6	
287.38	3776.5	
287.59	4573.1	
287.8	4584.7	
288.01	3186.6	
288.22	3575.8	
288.43	5078.3	
288.64	4411.3	
288.85	3709.6	
289.06	3555.3	
289.27	5109	
289.48	5464.7	
289.69	3931.4	
289.9	3607.2	
290.11	5261.2	
290.32	4612.7	
290.53	3704.8	
290.74	3450.8	
290.94	5118.6	
291.15	5180.7	
291.36	3046	
291.57	3583.9	
291.78	4591.5	
291.99	4392.2	
292.2	2980.5	
292.41	3495.2	
292.62	5210	
292.83	5019.6	
293.04	4229.1	
293.25	3023.5	
293.46	4650.3	
293.67	5212.1	
293.88	3007.1	
294.09	2930	
294.29	4531.5	
294.5	4961.5	
294.71	3218	
294.92	3075.4	
295.13	4727.4	
295.34	5561.6	
295.55	2760	
295.76	2762	
295.97	5107	
296.18	5640.1	
296.39	2910.8	
296.6	3069.9	
296.81	4889.9	
297.01	5128.1	
297.22	3180.5	
297.43	3102.7	
297.64	4663.9	
297.85	4539.7	
298.06	2599.6	
298.27	2857.6	
298.48	4856.4	
298.69	4646.2	
298.9	3291.1	
299.11	3032.4	
299.31	4459.8	
299.52	4556.7	
299.73	3468.6	
299.94	3432.4	
300.15	4833.2	
300.36	4553.3	
300.57	3477.5	
300.78	3457.7	
300.99	4706.9	
301.2	4846.2	
301.4	3097.9	
301.61	3297.2	
301.82	5025.7	
302.03	5111	
302.24	3654.9	
302.45	2919	
302.66	5011.4	
302.87	5318.6	
303.08	3094.5	
303.29	4009.2	
303.49	4686.4	
303.7	4749.9	
303.91	2791.4	
304.12	3891.8	
304.33	4443.4	
304.54	4968.4	
304.75	3089	
304.96	2955.2	
305.16	5068	
305.37	5562.3	
305.58	2763.4	
305.79	2829.6	
306	5040.7	
306.21	4373.8	
306.42	3102	
306.63	4462.5	
306.83	4738.3	
307.04	5119.9	
307.25	3332	
307.46	3286.3	
307.67	4293.2	
307.88	5027.8	
308.09	3066.5	
308.29	3113.6	
308.5	4858.5	
308.71	5241.4	
308.92	3226.2	
309.13	2966.1	
309.34	4749.9	
309.55	4768.4	
309.75	3751.2	
309.96	3439.2	
310.17	5136.3	
310.38	4601.8	
310.59	3547.1	
310.8	3424.2	
311.01	5513.8	
311.21	4720.6	
311.42	2927.9	
311.63	3022.8	
311.84	4616.8	
312.05	4812	
312.26	3391.4	
312.46	3652.2	
312.67	4660.5	
312.88	4464.6	
313.09	2970.9	
313.3	2932	
313.51	5412.8	
313.71	5701.5	
313.92	2969.6	
314.13	3133.4	
314.34	4998.4	
314.55	4794.3	
314.76	3709.6	
314.96	3233.7	
315.17	4965	
315.38	5012.1	
315.59	2998.9	
315.8	2892.4	
316.01	5455.8	
316.21	5496.1	
316.42	2890.4	
316.63	3239.9	
316.84	4733.5	
317.05	5248.9	
317.26	3493.2	
317.46	3151.1	
317.67	4768.4	
317.88	5094	
318.09	3659	
318.3	2792.1	
318.5	4613.4	
318.71	4985.4	
318.92	4558.8	
319.13	3429.7	
319.34	5175.9	
319.54	5281.7	
319.75	2818.7	
319.96	2740.2	
320.17	5053.7	
320.38	5246.2	
320.58	2735.4	
320.79	3231.7	
321	5235.3	
321.21	5309.7	
321.42	3293.1	
321.62	2776.4	
321.83	4528.7	
322.04	4870.8	
322.25	3126.6	
322.46	2958.6	
322.66	4875.5	
322.87	5063.3	
323.08	3611.9	
323.29	2937.5	
323.5	5619.6	
323.7	4438.6	
323.91	3913	
324.12	3539.6	
324.33	4916.5	
324.53	5090.6	
324.74	3463.8	
324.95	3547.1	
325.16	4484.4	
325.37	4674.1	
325.57	3030.3	
325.78	3050.1	
325.99	4878.3	
326.2	4377.2	
326.4	4134.8	
326.61	2816	
326.82	4745.1	
327.03	4898.7	
327.24	4075.5	
327.44	3851.5	
327.65	5007.3	
327.86	4172.4	
328.07	3477.5	
328.27	2869.9	
328.48	5308.3	
328.69	4472.8	
328.9	4125.3	
329.1	3093.1	
329.31	4739.7	
329.52	5371.1	
329.73	2985.3	
329.93	3302	
330.14	4872.1	
330.35	5002.5	
330.56	4635.2	
330.76	3578.5	
330.97	4689.2	
331.18	4884.4	
331.39	3258.3	
331.59	2718.3	
331.8	5258.5	
332.01	5298.8	
332.22	3087	
332.42	3443.3	
332.63	4923.3	
332.84	4548.5	
333.05	3287	
333.25	3054.2	
333.46	4626.4	
333.67	4819.6	
333.88	3078.1	
334.08	3370.3	
334.29	6123.4	
334.5	5231.9	
334.7	2927.9	
334.91	4121.9	
335.12	4471.4	
335.33	5081	
335.53	3239.2	
335.74	4601.1	
335.95	4719.2	
336.16	4459.1	
336.36	3308.2	
336.57	3706.1	
336.78	4468	
336.98	5221	
337.19	3928	
337.4	3173.7	
337.61	5648.3	
337.81	4472.1	
338.02	3105.4	
338.23	3756	
338.43	5410.1	
338.64	4588.8	
338.85	3038.5	
339.05	3865.9	
339.26	5454.4	
339.47	4427	
339.68	2999.6	
339.88	4237.2	
340.09	5010.7	
340.3	5157.5	
340.5	3448.1	
340.71	2747	
340.92	4474.1	
341.13	5336.3	
341.33	2879.4	
341.54	3429	
341.75	5000.5	
341.95	4685.8	
342.16	3375.7	
342.37	3561.4	
342.57	4526.7	
342.78	4747.2	
342.99	3658.4	
343.19	2800.9	
343.4	5129.5	
343.61	5009.3	
343.81	3215.3	
344.02	2945	
344.23	5126.7	
344.43	5417.6	
344.64	3599.6	
344.85	3577.1	
345.06	5046.2	
345.26	5240.8	
345.47	3467.9	
345.68	3932.1	
345.88	4390.2	
346.09	5111	
346.3	3479.5	
346.5	2722.4	
346.71	4801.8	
346.92	4601.8	
347.12	2888.3	
347.33	3420.8	
347.54	5208.7	
347.74	5525.4	
347.95	3388	
348.16	2692.4	
348.36	4661.2	
348.57	4502.8	
348.78	3440.6	
348.98	3581.9	
349.19	4818.9	
349.39	4367	
349.6	2853.5	
349.81	3075.4	
350.01	5070.8	
350.22	4567.7	
350.43	3360	
350.63	3819.5	
350.84	4855.1	
351.05	4587.4	
351.25	3061.7	
351.46	2861	
351.67	5217.5	
351.87	4608.6	
352.08	3269.2	
352.29	3614	
352.49	5183.4	
352.7	4980.7	
352.9	2985.3	
353.11	3636.5	
353.32	5690.6	
353.52	4739.7	
353.73	2981.2	
353.94	3676.8	
354.14	5081.7	
354.35	4901.5	
354.55	3074	
354.76	3360	
354.97	5022.3	
355.17	4860.5	
355.38	2976.4	
355.59	3850.9	
355.79	4643.4	
356	4906.9	
356.2	3394.2	
356.41	3011.9	
356.62	4498	
356.82	4906.9	
357.03	3602.4	
357.24	3254.9	
357.44	4640.7	
357.65	4769	
357.85	4213.4	
358.06	3424.2	
358.27	4485.1	
358.47	4598.4	
358.68	2981.8	
358.88	3629.7	
359.09	5143.1	
359.3	5371.8	
359.5	4115.1	
359.71	3725.3	
359.91	5702.9	
360.12	5161.6	
360.33	3656.3	
360.53	3939.6	
360.74	4773.8	
360.94	4797	
361.15	3784	
361.36	3300.6	
361.56	5360.2	
361.77	4950.6	
361.97	4149.9	
362.18	3451.5	
362.38	5362.9	
362.59	4696	
362.8	3244	
363	3170.3	
363.21	4549.2	
363.41	5025	
363.62	3571.7	
363.83	4268	
364.03	5195.7	
364.24	5786.9	
364.44	4512.4	
364.65	4391.5	
364.85	4961.5	
365.06	4762.9	
365.27	3428.3	
365.47	3450.8	
365.68	5677.7	
365.88	5017.5	
366.09	3712.3	
366.29	3464.5	
366.5	5105.6	
366.71	5415.5	
366.91	4442	
367.12	3846.8	
367.32	5949.3	
367.53	5342.5	
367.73	3859.1	
367.94	4593.6	
368.14	5403.2	
368.35	6041.5	
368.56	3820.1	
368.76	3387.3	
368.97	5563.6	
369.17	6612.9	
369.38	3517	
369.58	3690.4	
369.79	4737.6	
369.99	5768.4	
370.2	4378.6	
370.4	3803.1	
370.61	5227.1	
370.82	6162.3	
371.02	3708.9	
371.23	3265.1	
371.43	4824.3	
371.64	5817.6	
371.84	3734.1	
372.05	4581.3	
372.25	6614.3	
372.46	5478.3	
372.66	3768.9	
372.87	3753.9	
373.07	5579.3	
373.28	6791.1	
373.48	4554	
373.69	4259.8	
373.9	5311.7	
374.1	5310.4	
374.31	4558.1	
374.51	4156	
374.72	5895.4	
374.92	5100.1	
375.13	4707.6	
375.33	4119.8	
375.54	5588.9	
375.74	5300.1	
375.95	4296	
376.15	5130.2	
376.36	5696.1	
376.56	5567.1	
376.77	4339	
376.97	4642.7	
377.18	6609.5	
377.38	5858.6	
377.59	4872.1	
377.79	4080.2	
378	5716.6	
378.2	5940.5	
378.41	4115.7	
378.61	4001	
378.82	6101.6	
379.02	5511.8	
379.23	4236.6	
379.43	4951.3	
379.64	6244.3	
379.84	6000.5	
380.05	4124.6	
380.25	4108.9	
380.46	5994.4	
380.66	5654.4	
380.87	5029.1	
381.07	5330.2	
381.28	6433.4	
381.48	5894.7	
381.69	4113.7	
381.89	4197.7	
382.1	5180.7	
382.3	5997.8	
382.51	4924	
382.71	5547.9	
382.91	5869.5	
383.12	6289.3	
383.32	4368.3	
383.53	4487.8	
383.73	5797.1	
383.94	5801.2	
384.14	4453	
384.35	3900.7	
384.55	5597.8	
384.76	5864	
384.96	4368.3	
385.17	4614.1	
385.37	5881.8	
385.58	5354.1	
385.78	4502.1	
385.98	3760.1	
386.19	5567.1	
386.39	5857.2	
386.6	4203.1	
386.8	4320.5	
387.01	5935.7	
387.21	5931.6	
387.42	4605.9	
387.62	5020.3	
387.83	5488.6	
388.03	5887.9	
388.23	4455	
388.44	5043.5	
388.64	5290.6	
388.85	5412.8	
389.05	4672.8	
389.26	5201.2	
389.46	6942.6	
389.67	6479.8	
389.87	4793.6	
390.07	4874.8	
390.28	5791	
390.48	5554.8	
390.69	4293.2	
390.89	4500.8	
391.1	5750.7	
391.3	6355.5	
391.5	5361.6	
391.71	5778.7	
391.91	6196.5	
392.12	6825.2	
392.32	5430.5	
392.53	4840	
392.73	5846.3	
392.93	5948	
393.14	4670.1	
393.34	5210.7	
393.55	6174.6	
393.75	5819	
393.95	4612	
394.16	4597.7	
394.36	5776.6	
394.57	6247	
394.77	4250.2	
394.98	4441.4	
395.18	5786.9	
395.38	5838.8	
395.59	5259.9	
395.79	4488.5	
396	6014.2	
396.2	6247.7	
396.4	5205.3	
396.61	5138.4	
396.81	6477	
397.02	5987.6	
397.22	5468.8	
397.42	5488.6	
397.63	6587	
397.83	5995.8	
398.04	4655.7	
398.24	5141.8	
398.44	6416.3	
398.65	5799.2	
398.85	4653.7	
399.05	4661.2	
399.26	6130.3	
399.46	7297.6	
399.67	5036	
399.87	4827.7	
400.07	6445	
400.28	6620.4	
400.48	4945.2	
400.69	5767.8	
400.89	6846.4	
401.09	7197.9	
401.3	5003.2	
401.5	5743.2	
401.7	7434.8	
401.91	7625.3	
402.11	5301.5	
402.32	5401.9	
402.52	7005.4	
402.72	6883.9	
402.93	5618.9	
403.13	4804.5	
403.33	7516	
403.54	6433.4	
403.74	5291.3	
403.94	5842.2	
404.15	6475	
404.35	7265.5	
404.56	5029.8	
404.76	6275.7	
404.96	6707.8	
405.17	6499.6	
405.37	5616.9	
405.57	5481.7	
405.78	6935.1	
405.98	6472.3	
406.18	5225.1	
406.39	5854.5	
406.59	7000	
406.79	6608.8	
407	5027.1	
407.2	5095.3	
407.4	7004.7	
407.61	7060	
407.81	5158.8	
408.01	6701.6	
408.22	6274.3	
408.42	7761.1	
408.62	6107.7	
408.83	5799.2	
409.03	6982.2	
409.23	6960.4	
409.44	6046.3	
409.64	6258.6	
409.84	7924.3	
410.05	7963.2	
410.25	6478.4	
410.45	6202.6	
410.66	7906.5	
410.86	9638.4	
411.06	6905.1	
411.27	6684.6	
411.47	9667.8	
411.67	8163.9	
411.88	6918.7	
412.08	7337.2	
412.28	8754.4	
412.49	9090.9	
412.69	7034.8	
412.89	7098.9	
413.09	8946.2	
413.3	9002.2	
413.5	7291.5	
413.7	6967.2	
413.91	8442.4	
414.11	9149.6	
414.31	7183.6	
414.52	7602.1	
414.72	8892.3	
414.92	9013.8	
415.12	7154.9	
415.33	7668.3	
415.53	9259.5	
415.73	9459.6	
415.94	7909.9	
416.14	7518.1	
416.34	8693.6	
416.55	8410.3	
416.75	8450.6	
416.95	8104.5	
417.15	9496.4	
417.36	9840.5	
417.56	8880	
417.76	8062.2	
417.97	9725.8	
418.17	9611.8	
418.37	7740	
418.57	7872.4	
418.78	9438.4	
418.98	9148.3	
419.18	8532.5	
419.38	8359.1	
419.59	9294.4	
419.79	8851.3	
419.99	7753.6	
420.2	8094.9	
420.4	9590.6	
420.6	9656.9	
420.8	7621.9	
421.01	7554.3	
421.21	9624.1	
421.41	9537.4	
421.61	7912	
421.82	7802.8	
422.02	9276.6	
422.22	9882.1	
422.42	8444.5	
422.63	7956.4	
422.83	9260.9	
423.03	10178	
423.23	8058.8	
423.44	7326.9	
423.64	9269.8	
423.84	8942.8	
424.04	7758.4	
424.25	7372	
424.45	9856.2	
424.65	9701.2	
424.85	7253.2	
425.06	7694.2	
425.26	9931.3	
425.46	9091.6	
425.66	7961.8	
425.87	7724.9	
426.07	9592.7	
426.27	9410.4	
426.47	7888.1	
426.67	7354.9	
426.88	9932.6	
427.08	9369.5	
427.28	8233.5	
427.48	7383.6	
427.69	8535.3	
427.89	9013.1	
428.09	7987.8	
428.29	7318.8	
428.5	9507.4	
428.7	9294.4	
428.9	7303.1	
429.1	7705.8	
429.3	9282.8	
429.51	9508	
429.71	7490.8	
429.91	8243.1	
430.11	9629.5	
430.31	10053	
430.52	7948.2	
430.72	8181	
430.92	10124	
431.12	9728.5	
431.32	7858.1	
431.53	7980.9	
431.73	8932.6	
431.93	10208	
432.13	7671.7	
432.33	7595.2	
432.54	9257.5	
432.74	9500.5	
432.94	7699	
433.14	8317.5	
433.34	9775	
433.55	9633.6	
433.75	8474.5	
433.95	9958.6	
434.15	9843.9	
434.35	9624.1	
434.56	7911.3	
434.76	7690.8	
434.96	9793.4	
435.16	10103	
435.36	7909.3	
435.56	8934.6	
435.77	9757.9	
435.97	9908.8	
436.17	9544.9	
436.37	8935.3	
436.57	9754.5	
436.78	9912.2	
436.98	10108	
437.18	9409.1	
437.38	10504	
437.58	10002	
437.78	9501.9	
437.99	8486.1	
438.19	10324	
438.39	10933	
438.59	8501.8	
438.79	8055.3	
438.99	10796	
439.2	9722.4	
439.4	7912.7	
439.6	7828	
439.8	9992.7	
440	10787	
440.2	8808.3	
440.4	8813.8	
440.61	10528	
440.81	10983	
441.01	8589.2	
441.21	9386.5	
441.41	11226	
441.61	10742	
441.81	9798.8	
442.02	10445	
442.22	11633	
442.42	11000	
442.62	8983.8	
442.82	8917.5	
443.02	11434	
443.22	10813	
443.43	9369.5	
443.63	8806.3	
443.83	10475	
444.03	10458	
444.23	10025	
444.43	9721	
444.63	10950	
444.83	11774	
445.04	9301.9	
445.24	10183	
445.44	11336	
445.64	11340	
445.84	9766.1	
446.04	9989.3	
446.24	10561	
446.44	11556	
446.65	8955.8	
446.85	9423.4	
447.05	10649	
447.25	11327	
447.45	9349	
447.65	8767.4	
447.85	10805	
448.05	10320	
448.25	9683.5	
448.46	9581.1	
448.66	10899	
448.86	10490	
449.06	8855.4	
449.26	9719	
449.46	11226	
449.66	10422	
449.86	9557.2	
450.06	9409.1	
450.26	10612	
450.47	11189	
450.67	9513.5	
450.87	9953.8	
451.07	11350	
451.27	11302	
451.47	9082.7	
451.67	9837.1	
451.87	10974	
452.07	11628	
452.27	9536	
452.47	9441.1	
452.67	11112	
452.88	11650	
453.08	8898.4	
453.28	10505	
453.48	12299	
453.68	11018	
453.88	9562.6	
454.08	9643.2	
454.28	11716	
454.48	11226	
454.68	9942.9	
454.88	10281	
455.08	11671	
455.28	11682	
455.48	9253.4	
455.68	10210	
455.89	12255	
456.09	11997	
456.29	9868.5	
456.49	10073	
456.69	12352	
456.89	11562	
457.09	10518	
457.29	10843	
457.49	12024	
457.69	12241	
457.89	10695	
458.09	10133	
458.29	12233	
458.49	12624	
458.69	11110	
458.89	10676	
459.09	13140	
459.29	13216	
459.49	10904	
459.69	11536	
459.9	12783	
460.1	12710	
460.3	10639	
460.5	10690	
460.7	12891	
460.9	12519	
461.1	10478	
461.3	11419	
461.5	13491	
461.7	13132	
461.9	11127	
462.1	11268	
462.3	13067	
462.5	13509	
462.7	11198	
462.9	11355	
463.1	14246	
463.3	14334	
463.5	11687	
463.7	12699	
463.9	13646	
464.1	13873	
464.3	12282	
464.5	12215	
464.7	14201	
464.9	14234	
465.1	13472	
465.3	12722	
465.5	14470	
465.7	14691	
465.9	13218	
466.1	12514	
466.3	14816	
466.5	14362	
466.7	13882	
466.9	12876	
467.1	14816	
467.3	15246	
467.5	13994	
467.7	13106	
467.9	15522	
468.1	16218	
468.3	13506	
468.5	14115	
468.7	14978	
468.9	14848	
469.1	13496	
469.3	14263	
469.5	16588	
469.7	14867	
469.9	13813	
470.1	13487	
470.3	15144	
470.5	15273	
470.7	14476	
470.9	13551	
471.1	15172	
471.3	15141	
471.5	13547	
471.69	14741	
471.89	14754	
472.09	14313	
472.29	13992	
472.49	13966	
472.69	14743	
472.89	15098	
473.09	13491	
473.29	13005	
473.49	14820	
473.69	14530	
473.89	13823	
474.09	13274	
474.29	15618	
474.49	15233	
474.69	13977	
474.89	13384	
475.09	14765	
475.29	14708	
475.49	12924	
475.69	13213	
475.88	15680	
476.08	14930	
476.28	12905	
476.48	12970	
476.68	15149	
476.88	14827	
477.08	12995	
477.28	13274	
477.48	14397	
477.68	14642	
477.88	12866	
478.08	12831	
478.28	15256	
478.48	14531	
478.67	13140	
478.87	12415	
479.07	15298	
479.27	14662	
479.47	13224	
479.67	13418	
479.87	15107	
480.07	15466	
480.27	12930	
480.47	13975	
480.67	14646	
480.87	15475	
481.06	12942	
481.26	13819	
481.46	14908	
481.66	14804	
481.86	13411	
482.06	14143	
482.26	14750	
482.46	15404	
482.66	13394	
482.86	13029	
483.05	15076	
483.25	14585	
483.45	15208	
483.65	13503	
483.85	14660	
484.05	15061	
484.25	13822	
484.45	14374	
484.65	15664	
484.84	15973	
485.04	13693	
485.24	13598	
485.44	16216	
485.64	14851	
485.84	13312	
486.04	14296	
486.24	15100	
486.44	15424	
486.63	13177	
486.83	14185	
487.03	15337	
487.23	15537	
487.43	13531	
487.63	15382	
487.83	15705	
488.02	16313	
488.22	14491	
488.42	15046	
488.62	16453	
488.82	15668	
489.02	14078	
489.22	14474	
489.41	16234	
489.61	16216	
489.81	14140	
490.01	14163	
490.21	16566	
490.41	17127	
490.61	14524	
490.8	14397	
491	16264	
491.2	15583	
491.4	14909	
491.6	14309	
491.8	16207	
491.99	16088	
492.19	14055	
492.39	14014	
492.59	16249	
492.79	16299	
492.99	14625	
493.18	14032	
493.38	16363	
493.58	17292	
493.78	14678	
493.98	14568	
494.18	16432	
494.37	16472	
494.57	15647	
494.77	15536	
494.97	17245	
495.17	17677	
495.37	15489	
495.56	15826	
495.76	17993	
495.96	17889	
496.16	16821	
496.36	16148	
496.55	18434	
496.75	18021	
496.95	16430	
497.15	16598	
497.35	18294	
497.54	18434	
497.74	16349	
497.94	17601	
498.14	18940	
498.34	18723	
498.53	16153	
498.73	16796	
498.93	18030	
499.13	18434	
499.33	16888	
499.52	17109	
499.72	18805	
499.92	18675	
500.12	16582	
500.32	16943	
500.51	18824	
500.71	19009	
500.91	17599	
501.11	17411	
501.31	19114	
501.5	19339	
501.7	17836	
501.9	17148	
502.1	18705	
502.29	19147	
502.49	17741	
502.69	17598	
502.89	18880	
503.09	19013	
503.28	16565	
503.48	16593	
503.68	18144	
503.88	18303	
504.07	17420	
504.27	16703	
504.47	18395	
504.67	18441	
504.86	17163	
505.06	16973	
505.26	18243	
505.46	19346	
505.65	16907	
505.85	16797	
506.05	18010	
506.25	18308	
506.44	15942	
506.64	16533	
506.84	17619	
507.04	18155	
507.23	15902	
507.43	16317	
507.63	18916	
507.83	17712	
508.02	16345	
508.22	16001	
508.42	19183	
508.62	17403	
508.81	16130	
509.01	16739	
509.21	17307	
509.4	17678	
509.6	16273	
509.8	15935	
510	17355	
510.19	18644	
510.39	15702	
510.59	15877	
510.79	17534	
510.98	18688	
511.18	16106	
511.38	16204	
511.57	18187	
511.77	18002	
511.97	16671	
512.17	16008	
512.36	18259	
512.56	17954	
512.76	15770	
512.95	15698	
513.15	18139	
513.35	17138	
513.55	16535	
513.74	15827	
513.94	17989	
514.14	17596	
514.33	16716	
514.53	16461	
514.73	17591	
514.92	17969	
515.12	16128	
515.32	16125	
515.51	17879	
515.71	18206	
515.91	17451	
516.11	16039	
516.3	19213	
516.5	17707	
516.7	16540	
516.89	17152	
517.09	17937	
517.29	17872	
517.48	16858	
517.68	16463	
517.88	17652	
518.07	18279	
518.27	16848	
518.47	16025	
518.66	18554	
518.86	17542	
519.06	15834	
519.25	16201	
519.45	17699	
519.65	19016	
519.84	16722	
520.04	17562	
520.24	19211	
520.43	18479	
520.63	16652	
520.83	16546	
521.02	17940	
521.22	18140	
521.42	16898	
521.61	17193	
521.81	17741	
522.01	17720	
522.2	16336	
522.4	16123	
522.6	18230	
522.79	17344	
522.99	16234	
523.18	16089	
523.38	18159	
523.58	18351	
523.77	17781	
523.97	16448	
524.17	20009	
524.36	19386	
524.56	17634	
524.76	17505	
524.95	19143	
525.15	18750	
525.34	17563	
525.54	17828	
525.74	19673	
525.93	18973	
526.13	18825	
526.33	18198	
526.52	20215	
526.72	19895	
526.91	19138	
527.11	18641	
527.31	20328	
527.5	20775	
527.7	18639	
527.89	17931	
528.09	19678	
528.29	20159	
528.48	18668	
528.68	18492	
528.87	20340	
529.07	20428	
529.27	18765	
529.46	18702	
529.66	20634	
529.85	21037	
530.05	18791	
530.25	19266	
530.44	21813	
530.64	20592	
530.83	18855	
531.03	19061	
531.23	20881	
531.42	20388	
531.62	19521	
531.81	18725	
532.01	20756	
532.21	21188	
532.4	18982	
532.6	19472	
532.79	21830	
532.99	21503	
533.18	19816	
533.38	20646	
533.58	21555	
533.77	21901	
533.97	20186	
534.16	20748	
534.36	22393	
534.55	21668	
534.75	20778	
534.95	20198	
535.14	22636	
535.34	21776	
535.53	20181	
535.73	21557	
535.92	23016	
536.12	21861	
536.31	20242	
536.51	21140	
536.71	21969	
536.9	21726	
537.1	19914	
537.29	20136	
537.49	22274	
537.68	21402	
537.88	20597	
538.07	19814	
538.27	21775	
538.46	22511	
538.66	19809	
538.86	20186	
539.05	21915	
539.25	22195	
539.44	20823	
539.64	20157	
539.83	21917	
540.03	22708	
540.22	20190	
540.42	20079	
540.61	21847	
540.81	22020	
541	20000	
541.2	20948	
541.39	21388	
541.59	21487	
541.78	20801	
541.98	19768	
542.18	21070	
542.37	21104	
542.57	20004	
542.76	20689	
542.96	21044	
543.15	21527	
543.35	19971	
543.54	19383	
543.74	21381	
543.93	21248	
544.13	19611	
544.32	20233	
544.52	21072	
544.71	20489	
544.91	18742	
545.1	19520	
545.3	20541	
545.49	20899	
545.69	18576	
545.88	19064	
546.08	21886	
546.27	21239	
546.47	19316	
546.66	18969	
546.86	21026	
547.05	21409	
547.24	18994	
547.44	19005	
547.63	20191	
547.83	20988	
548.02	19176	
548.22	19189	
548.41	19972	
548.61	21010	
548.8	18646	
549	18668	
549.19	20299	
549.39	20601	
549.58	18458	
549.78	18853	
549.97	20573	
550.17	20209	
550.36	19116	
550.55	20013	
550.75	20056	
550.94	20790	
551.14	18468	
551.33	18297	
551.53	19668	
551.72	20246	
551.92	18500	
552.11	18321	
552.31	20231	
552.5	20038	
552.69	19411	
552.89	17900	
553.08	20096	
553.28	19910	
553.47	18354	
553.67	19082	
553.86	20508	
554.06	19167	
554.25	17391	
554.44	18056	
554.64	20755	
554.83	20684	
555.03	17829	
555.22	18122	
555.42	20115	
555.61	19737	
555.8	17925	
556	17983	
556.19	19114	
556.39	19955	
556.58	17780	
556.78	17925	
556.97	19621	
557.16	19383	
557.36	18740	
557.55	17558	
557.75	18813	
557.94	20323	
558.13	17570	
558.33	17467	
558.52	20073	
558.72	19134	
558.91	17606	
559.1	17597	
559.3	18924	
559.49	18675	
559.69	17243	
559.88	17933	
560.07	19373	
560.27	19719	
560.46	17899	
560.66	18026	
560.85	19263	
561.04	18488	
561.24	17224	
561.43	17350	
561.63	18775	
561.82	18865	
562.01	18334	
562.21	17511	
562.4	19202	
562.59	19961	
562.79	17436	
562.98	17264	
563.18	19100	
563.37	20235	
563.56	17795	
563.76	17461	
563.95	18942	
564.14	18984	
564.34	17857	
564.53	17433	
564.73	19512	
564.92	19664	
565.11	17819	
565.31	17402	
565.5	19938	
565.69	18987	
565.89	17811	
566.08	17891	
566.27	19747	
566.47	20285	
566.66	18566	
566.85	17643	
567.05	19781	
567.24	19250	
567.44	17825	
567.63	18805	
567.82	19910	
568.02	19540	
568.21	17860	
568.4	18102	
568.6	19614	
568.79	19632	
568.98	17743	
569.18	17974	
569.37	19900	
569.56	21147	
569.76	18263	
569.95	18987	
570.14	20054	
570.34	20207	
570.53	18084	
570.72	17895	
570.91	20652	
571.11	19964	
571.3	18283	
571.49	19119	
571.69	20035	
571.88	19607	
572.07	18832	
572.27	18802	
572.46	19485	
572.65	20274	
572.85	18302	
573.04	18658	
573.23	20697	
573.43	20076	
573.62	18254	
573.81	18679	
574	20294	
574.2	19970	
574.39	18578	
574.58	18736	
574.78	21061	
574.97	20724	
575.16	19361	
575.36	19426	
575.55	20971	
575.74	21033	
575.93	18724	
576.13	19749	
576.32	20630	
576.51	21249	
576.71	19147	
576.9	20654	
577.09	21442	
577.28	21098	
577.48	19614	
577.67	18914	
577.86	20824	
578.05	20920	
578.25	19285	
578.44	19331	
578.63	20740	
578.83	21857	
579.02	18873	
579.21	20201	
579.4	21026	
579.6	20990	
579.79	19605	
579.98	21325	
580.17	21609	
580.37	21526	
580.56	19058	
580.75	19983	
580.94	21740	
581.14	21575	
581.33	20152	
581.52	19238	
581.71	21235	
581.91	21847	
582.1	19144	
582.29	19574	
582.48	21102	
582.68	21203	
582.87	19938	
583.06	19861	
583.25	21504	
583.45	21382	
583.64	20443	
583.83	20972	
584.02	21256	
584.21	21586	
584.41	20093	
584.6	19858	
584.79	21423	
584.98	22026	
585.18	19394	
585.37	19334	
585.56	21087	
585.75	21718	
585.94	19340	
586.14	20068	
586.33	21790	
586.52	21173	
586.71	19953	
586.91	19515	
587.1	20641	
587.29	21525	
587.48	19093	
587.67	19207	
587.87	21114	
588.06	20938	
588.25	19983	
588.44	19372	
588.63	20610	
588.83	20895	
589.02	18897	
589.21	18742	
589.4	20163	
589.59	20289	
589.78	17737	
589.98	17996	
590.17	19406	
590.36	19725	
590.55	17068	
590.74	17306	
590.94	20047	
591.13	18784	
591.32	16936	
591.51	16314	
591.7	18911	
591.89	18773	
592.09	16404	
592.28	17004	
592.47	18075	
592.66	19684	
592.85	16673	
593.05	17038	
593.24	18789	
593.43	19379	
593.62	17231	
593.81	17501	
594	18779	
594.19	19079	
594.39	16987	
594.58	17036	
594.77	19080	
594.96	19323	
595.15	16933	
595.34	17573	
595.54	18882	
595.73	18262	
595.92	16366	
596.11	17158	
596.3	19153	
596.49	18247	
596.68	16821	
596.88	17131	
597.07	18718	
597.26	17955	
597.45	16277	
597.64	17452	
597.83	18207	
598.02	18766	
598.22	16417	
598.41	17017	
598.6	18517	
598.79	18061	
598.98	16480	
599.17	17120	
599.36	18568	
599.55	19241	
599.74	17925	
599.94	17835	
600.13	18841	
600.32	17907	
600.51	16122	
600.7	16387	
600.89	19051	
601.08	19375	
601.27	16239	
601.47	16877	
601.66	18693	
601.85	19111	
602.04	16673	
602.23	16761	
602.42	17858	
602.61	18413	
602.8	16405	
602.99	16243	
603.18	18138	
603.37	18278	
603.57	16552	
603.76	16943	
603.95	18721	
604.14	18381	
604.33	16343	
604.52	16494	
604.71	18234	
604.9	17879	
605.09	16978	
605.28	16869	
605.47	18772	
605.66	18411	
605.86	16787	
606.05	16298	
606.24	18577	
606.43	17402	
606.62	16528	
606.81	17045	
607	18574	
607.19	17972	
607.38	15954	
607.57	16216	
607.76	17812	
607.95	17209	
608.14	16359	
608.33	16877	
608.52	17684	
608.72	18545	
608.91	15757	
609.1	15706	
609.29	17688	
609.48	17187	
609.67	16316	
609.86	15745	
610.05	17274	
610.24	17441	
610.43	15552	
610.62	15342	
610.81	18249	
611	18274	
611.19	15579	
611.38	16204	
611.57	17647	
611.76	18585	
611.95	15233	
612.14	15157	
612.33	17278	
612.52	17144	
612.71	15873	
612.9	15208	
613.09	16908	
613.28	18604	
613.47	15640	
613.66	16336	
613.85	17619	
614.04	17130	
614.24	15594	
614.43	15040	
614.62	17657	
614.81	17548	
615	15988	
615.19	16034	
615.38	17035	
615.57	17449	
615.76	15976	
615.95	16726	
616.14	17702	
616.33	17542	
616.52	16324	
616.71	16386	
616.9	17632	
617.09	17669	
617.28	15660	
617.47	16528	
617.66	17000	
617.85	17168	
618.04	16485	
618.22	16082	
618.41	17372	
618.6	18365	
618.79	16291	
618.98	16154	
619.17	18724	
619.36	17302	
619.55	16249	
619.74	16431	
619.93	18192	
620.12	17758	
620.31	16955	
620.5	17038	
620.69	18703	
620.88	19204	
621.07	17637	
621.26	16933	
621.45	18702	
621.64	18690	
621.83	17292	
622.02	16610	
622.21	18751	
622.4	18680	
622.59	17797	
622.78	17503	
622.97	18270	
623.16	19162	
623.35	17317	
623.54	16690	
623.72	18557	
623.91	18637	
624.1	17434	
624.29	16393	
624.48	19463	
624.67	19002	
624.86	17588	
625.05	16766	
625.24	19719	
625.43	18552	
625.62	18680	
625.81	17141	
626	18880	
626.19	18637	
626.38	17677	
626.56	17144	
626.75	18541	
626.94	19273	
627.13	17528	
627.32	16650	
627.51	19099	
627.7	20043	
627.89	16543	
628.08	17721	
628.27	18343	
628.46	18474	
628.65	16943	
628.83	16653	
629.02	18789	
629.21	18317	
629.4	17178	
629.59	17342	
629.78	18400	
629.97	18943	
630.16	17374	
630.35	16825	
630.54	19450	
630.72	19156	
630.91	16786	
631.1	17227	
631.29	18632	
631.48	18871	
631.67	17370	
631.86	16843	
632.05	18568	
632.24	18479	
632.42	16531	
632.61	17056	
632.8	18319	
632.99	18196	
633.18	17201	
633.37	17370	
633.56	18659	
633.75	18563	
633.93	17135	
634.12	17075	
634.31	19306	
634.5	18930	
634.69	16929	
634.88	17114	
635.07	18486	
635.25	18917	
635.44	17555	
635.63	17824	
635.82	18411	
636.01	17765	
636.2	17374	
636.39	17176	
636.57	19122	
636.76	18686	
636.95	16565	
637.14	17478	
637.33	18603	
637.52	19112	
637.7	16296	
637.89	17313	
638.08	18457	
638.27	19299	
638.46	17210	
638.65	17443	
638.83	19107	
639.02	17996	
639.21	17004	
639.4	17324	
639.59	18172	
639.78	17988	
639.96	16367	
640.15	16313	
640.34	18081	
640.53	17972	
640.72	16018	
640.91	16157	
641.09	17570	
641.28	18557	
641.47	16072	
641.66	16806	
641.85	17943	
642.03	17876	
642.22	16444	
642.41	16184	
642.6	17368	
642.79	16860	
642.97	15779	
643.16	16356	
643.35	17305	
643.54	17193	
643.73	15698	
643.91	16324	
644.1	16806	
644.29	17550	
644.48	15647	
644.67	15610	
644.85	16793	
645.04	17200	
645.23	15087	
645.42	15302	
645.6	16618	
645.79	17243	
645.98	14945	
646.17	14339	
646.36	16052	
646.54	16309	
646.73	15200	
646.92	14461	
647.11	15853	
647.29	16687	
647.48	14403	
647.67	14198	
647.86	16769	
648.05	16792	
648.23	14523	
648.42	15457	
648.61	16344	
648.8	16131	
648.98	14193	
649.17	14450	
649.36	15625	
649.55	15412	
649.73	13979	
649.92	14734	
650.11	15646	
650.3	15937	
650.48	14270	
650.67	14128	
650.86	15984	
651.05	15169	
651.23	14079	
651.42	14174	
651.61	15590	
651.79	15229	
651.98	14108	
652.17	13816	
652.36	15651	
652.54	14997	
652.73	13747	
652.92	13762	
653.11	15569	
653.29	15721	
653.48	13421	
653.67	13866	
653.85	15407	
654.04	16352	
654.23	13943	
654.42	13726	
654.6	14883	
654.79	15151	
654.98	12878	
655.16	13193	
655.35	14130	
655.54	13930	
655.73	12521	
655.91	12288	
656.1	14423	
656.29	13530	
656.47	11920	
656.66	13259	
656.85	13973	
657.03	14164	
657.22	12742	
657.41	12884	
657.59	14403	
657.78	14422	
657.97	12691	
658.16	13437	
658.34	14975	
658.53	15472	
658.72	13975	
658.9	14420	
659.09	14670	
659.28	14810	
659.46	13138	
659.65	13153	
659.84	14638	
660.02	15023	
660.21	13196	
660.4	12932	
660.58	15272	
660.77	14777	
660.96	13689	
661.14	12884	
661.33	15668	
661.52	15557	
661.7	12835	
661.89	15322	
662.08	14503	
662.26	14121	
662.45	13057	
662.64	13007	
662.82	15036	
663.01	14364	
663.2	12959	
663.38	13468	
663.57	14728	
663.75	14685	
663.94	13234	
664.13	14072	
664.31	14361	
664.5	14812	
664.69	13202	
664.87	13760	
665.06	14106	
665.25	14603	
665.43	13882	
665.62	14031	
665.8	14811	
665.99	14275	
666.18	13079	
666.36	13053	
666.55	14769	
666.74	14788	
666.92	12831	
667.11	13858	
667.29	14259	
667.48	14579	
667.67	13560	
667.85	12800	
668.04	14325	
668.22	14287	
668.41	12977	
668.6	13118	
668.78	14149	
668.97	14262	
669.15	13198	
669.34	12408	
669.53	14102	
669.71	14392	
669.9	12458	
670.08	13001	
670.27	14027	
670.46	14506	
670.64	13119	
670.83	13292	
671.01	13824	
671.2	14317	
671.38	12751	
671.57	12420	
671.76	14716	
671.94	15248	
672.13	12476	
672.31	13173	
672.5	14592	
672.69	13906	
672.87	12689	
673.06	12826	
673.24	14392	
673.43	14138	
673.61	12896	
673.8	12646	
673.98	14444	
674.17	14591	
674.36	13224	
674.54	13033	
674.73	14020	
674.91	14488	
675.1	12801	
675.28	12407	
675.47	14097	
675.65	14572	
675.84	12667	
676.03	13023	
676.21	14021	
676.4	13511	
676.58	13373	
676.77	13246	
676.95	15018	
677.14	13854	
677.32	12384	
677.51	12428	
677.69	14484	
677.88	13693	
678.06	12323	
678.25	12535	
678.44	14164	
678.62	13867	
678.81	12136	
678.99	12994	
679.18	14672	
679.36	14335	
679.55	12622	
679.73	13106	
679.92	14261	
680.1	13848	
680.29	13597	
680.47	12630	
680.66	13741	
680.84	14369	
681.03	12133	
681.21	12807	
681.4	13862	
681.58	13594	
681.77	12314	
681.95	12369	
682.14	14309	
682.32	14623	
682.51	13065	
682.69	12017	
682.88	13698	
683.06	13774	
683.25	12693	
683.43	12897	
683.62	13848	
683.8	14070	
683.99	13088	
684.17	12528	
684.36	14657	
684.54	13662	
684.73	11826	
684.91	11813	
685.1	13526	
685.28	12980	
685.46	11787	
685.65	11635	
685.83	13020	
686.02	12477	
686.2	10864	
686.39	11018	
686.57	12134	
686.76	13379	
686.94	11031	
687.13	11209	
687.31	12781	
687.5	12720	
687.68	10861	
687.86	11711	
688.05	14095	
688.23	12459	
688.42	11864	
688.6	11466	
688.79	12711	
688.97	12811	
689.16	11745	
689.34	10953	
689.52	13476	
689.71	13766	
689.89	12156	
690.08	11609	
690.26	13308	
690.45	13160	
690.63	12097	
690.81	11871	
691	13122	
691.18	12890	
691.37	11849	
691.55	13433	
691.74	12820	
691.92	14288	
692.1	11829	
692.29	11310	
692.47	12895	
692.66	12356	
692.84	11469	
693.02	11662	
693.21	12494	
693.39	12819	
693.58	11921	
693.76	11476	
693.94	13695	
694.13	13762	
694.31	11549	
694.5	12354	
694.68	12768	
694.86	13289	
695.05	11985	
695.23	12088	
695.42	13759	
695.6	15434	
695.78	12613	
695.97	11998	
696.15	13813	
696.34	13360	
696.52	11848	
696.7	12306	
696.89	13402	
697.07	12998	
697.25	12116	
697.44	13204	
697.62	13393	
697.81	13469	
697.99	11719	
698.17	12224	
698.36	12599	
698.54	13125	
698.72	12041	
698.91	11219	
699.09	12895	
699.28	12691	
699.46	11665	
699.64	11404	
699.83	12521	
700.01	13364	
700.19	12086	
700.38	10916	
700.56	13509	
700.74	12497	
700.93	11103	
701.11	11859	
701.29	12960	
701.48	13907	
701.66	11398	
701.84	11413	
702.03	12977	
702.21	13558	
702.39	11212	
702.58	11684	
702.76	13192	
702.94	13253	
703.13	11116	
703.31	12947	
703.49	12880	
703.68	13814	
703.86	11185	
704.04	11941	
704.23	12949	
704.41	13218	
704.59	11336	
704.78	12153	
704.96	14221	
705.14	13162	
705.33	11187	
705.51	11575	
705.69	12682	
705.87	13360	
706.06	11916	
706.24	11065	
706.42	12865	
706.61	13164	
706.79	11792	
706.97	10912	
707.16	12398	
707.34	12792	
707.52	11643	
707.7	11110	
707.89	12514	
708.07	12254	
708.25	11580	
708.44	11799	
708.62	12224	
708.8	13029	
708.98	11676	
709.17	11019	
709.35	12667	
709.53	12497	
709.72	10759	
709.9	10992	
710.08	12697	
710.26	12693	
710.45	11718	
710.63	10912	
710.81	12099	
710.99	12248	
711.18	11222	
711.36	10791	
711.54	12165	
711.72	12546	
711.91	10659	
712.09	10217	
712.27	11966	
712.45	12656	
712.64	10687	
712.82	9898.5	
713	11316	
713.18	11350	
713.37	9725.1	
713.55	10638	
713.73	11790	
713.91	10664	
714.1	9699.9	
714.28	9237	
714.46	11034	
714.64	10223	
714.83	8285.4	
715.01	8592.6	
715.19	9812.5	
715.37	9166	
715.55	7882.6	
715.74	8167.3	
715.92	10121	
716.1	8477.9	
716.28	8940.1	
716.47	8047.8	
716.65	9004.9	
716.83	9019.3	
717.01	7909.9	
717.19	7828.7	
717.38	10559	
717.56	8723.7	
717.74	8015.7	
717.92	7417.7	
718.1	9594.1	
718.29	8970.1	
718.47	7110.5	
718.65	7743.4	
718.83	9759.3	
719.01	9876	
719.2	7582.3	
719.38	8449.2	
719.56	9882.8	
719.74	11040	
719.92	8223.3	
720.11	8890.9	
720.29	9919.7	
720.47	9095.7	
720.65	7712	
720.83	8131.8	
721.02	9105.3	
721.2	8875.2	
721.38	7894.9	
721.56	7264.8	
721.74	8223.3	
721.92	8342.1	
722.11	8086.1	
722.29	7820.5	
722.47	9209	
722.65	8587.8	
722.83	7170.6	
723.01	7696.9	
723.2	8581	
723.38	8818.6	
723.56	6698.2	
723.74	7511.3	
723.92	8209.6	
724.1	9048.6	
724.29	7073	
724.47	7877.9	
724.65	8295.6	
724.83	8176.9	
725.01	6789	
725.19	7418.4	
725.37	8066.9	
725.56	8152.3	
725.74	6695.5	
725.92	6868.2	
726.1	8161.8	
726.28	8305.9	
726.46	7071.6	
726.64	6909.2	
726.83	8129.8	
727.01	8349.6	
727.19	6615.6	
727.37	7174	
727.55	8370.7	
727.73	8608.3	
727.91	6546.7	
728.09	6436.1	
728.28	8729.1	
728.46	8880.7	
728.64	7174.7	
728.82	7150.8	
729	9403.6	
729.18	8811	
729.36	6605.4	
729.54	8262.2	
729.72	9723.8	
729.91	8504.5	
730.09	8142.7	
730.27	7277.1	
730.45	8411	
730.63	8871.8	
730.81	7714.7	
730.99	7004.7	
731.17	9331.9	
731.35	8204.2	
731.53	7377.5	
731.71	7093.5	
731.9	9043.1	
732.08	9073.9	
732.26	7133.1	
732.44	6931	
732.62	9084.8	
732.8	8731.9	
732.98	7397.3	
733.16	6722.8	
733.34	8585.8	
733.52	7615.7	
733.7	6901	
733.88	7096.2	
734.07	8350.3	
734.25	8225.3	
734.43	6472.3	
734.61	7605.5	
734.79	9389.3	
734.97	8214.4	
735.15	6628.6	
735.33	6804.7	
735.51	8409	
735.69	7980.9	
735.87	7557.7	
736.05	6922.8	
736.23	8152.3	
736.41	7833.5	
736.59	6708.5	
736.77	6784.2	
736.95	8342.1	
737.13	8084.7	
737.32	6374	
737.5	6567.8	
737.68	8846.5	
737.86	7750.2	
738.04	6203.3	
738.22	7595.2	
738.4	7575.4	
738.58	7888.8	
738.76	6551.5	
738.94	5899.5	
739.12	7657.4	
739.3	7617.1	
739.48	7019.1	
739.66	6804.7	
739.84	7844.4	
740.02	7795.3	
740.2	5948	
740.38	6101.6	
740.56	8030.1	
740.74	7075	
740.92	6561.7	
741.1	6446.3	
741.28	7474.4	
741.46	7393.8	
741.64	6141.9	
741.82	6490	
742	7485.3	
742.18	7394.5	
742.36	6164.4	
742.54	5967.1	
742.72	7854.6	
742.9	6851.8	
743.08	6389	
743.26	5410.1	
743.44	7864.9	
743.62	7759.1	
743.8	6484.6	
743.98	5662	
744.16	7563.1	
744.34	7299.6	
744.52	6309.8	
744.7	6257.9	
744.88	7576.1	
745.06	7154.9	
745.24	6270.9	
745.42	6344.6	
745.6	7621.2	
745.78	7360.4	
745.96	5390.3	
746.14	5558.9	
746.32	8074.5	
746.5	7441	
746.68	5831.9	
746.86	5469.4	
747.03	7714.7	
747.21	6472.9	
747.39	5905.7	
747.57	5408	
747.75	7041.6	
747.93	7290.8	
748.11	5423	
748.29	5302.2	
748.47	8250.6	
748.65	6711.2	
748.83	5874.9	
749.01	5668.1	
749.19	7185.6	
749.37	6427.2	
749.55	5581.4	
749.73	5589.6	
749.91	6858.6	
750.09	6666.1	
750.26	5568.4	
750.44	5130.2	
750.62	6847.7	
750.8	6744.6	
750.98	5082.4	
751.16	5238.7	
751.34	6896.9	
751.52	6346.7	
751.7	5772.5	
751.88	4900.8	
752.06	7169.3	
752.24	6931.7	
752.42	4860.5	
752.59	5139.7	
752.77	6744.6	
752.95	7594.6	
753.13	5732.9	
753.31	5201.2	
753.49	6453.1	
753.67	6664.1	
753.85	5377.3	
754.03	4945.8	
754.21	6835.4	
754.38	7077.1	
754.56	5081.7	
754.74	4320.5	
754.92	6082.5	
755.1	6536.4	
755.28	4115.7	
755.46	4150.6	
755.64	7017	
755.82	6952.2	
755.99	4141	
756.17	4164.2	
756.35	4976.6	
756.53	6062.7	
756.71	3234.4	
756.89	3960.8	
757.07	5718.6	
757.25	5048.9	
757.42	4362.2	
757.6	4982.7	
757.78	5870.8	
757.96	5118.6	
758.14	4221.5	
758.32	3819.5	
758.5	4817.5	
758.67	5435.3	
758.85	4090.5	
759.03	4037.2	
759.21	5586.2	
759.39	5128.8	
759.57	3745.7	
759.75	4619.5	
759.92	6090.7	
760.1	5599.1	
760.28	4892.6	
760.46	5158.8	
760.64	5431.2	
760.82	5342.5	
760.99	4801.8	
761.17	4243.4	
761.35	6104.3	
761.53	5285.8	
761.71	4381.3	
761.89	4825	
762.06	5997.8	
762.24	5587.5	
762.42	4465.9	
762.6	4265.2	
762.78	5698.8	
762.96	6125.5	
763.13	4753.3	
763.31	4493.9	
763.49	6271.6	
763.67	5588.9	
763.85	5132.9	
764.02	5505.6	
764.2	6523.5	
764.38	5804.6	
764.56	4400.4	
764.74	5031.2	
764.91	6488	
765.09	5629.2	
765.27	4151.2	
765.45	4005.8	
765.63	6580.1	
765.8	6363	
765.98	3882.3	
766.16	4007.2	
766.34	5315.8	
766.52	5225.1	
766.69	4646.8	
766.87	3870.7	
767.05	5642.8	
767.23	6161.7	
767.41	4080.9	
767.58	4313	
767.76	5963.7	
767.94	5980.1	
768.12	4065.2	
768.29	4600.4	
768.47	5509.7	
768.65	6137.1	
768.83	3787.4	
769	4671.4	
769.18	5236.7	
769.36	5720	
769.54	4671.4	
769.72	3848.8	
769.89	5986.2	
770.07	5968.5	
770.25	4074.8	
770.43	5058.5	
770.6	6500.9	
770.78	6782.9	
770.96	4203.1	
771.14	4599.1	
771.31	5900.2	
771.49	5381.4	
771.67	3548.4	
771.85	3693.2	
772.02	4786.1	
772.2	5350	
772.38	4276.8	
772.55	3882.9	
772.73	5615.5	
772.91	5404.6	
773.09	4085	
773.26	4176.5	
773.44	5540.4	
773.62	5240.1	
773.8	3723.9	
773.97	3601.7	
774.15	5510.4	
774.33	5309.7	
774.5	3708.2	
774.68	3966.9	
774.86	5624.4	
775.04	5264	
775.21	3750.5	
775.39	3695.2	
775.57	5380.7	
775.74	5687.9	
775.92	3574.4	
776.1	3537.5	
776.27	5425.8	
776.45	6367.1	
776.63	3685.7	
776.81	3361.4	
776.98	5175.9	
777.16	5892.7	
777.34	3781.2	
777.51	4019.5	
777.69	5180	
777.87	4927.4	
778.04	3867.9	
778.22	4279.6	
778.4	5025	
778.57	5472.2	
778.75	3237.2	
778.93	3457.7	
779.1	4861.9	
779.28	4685.1	
779.46	3273.3	
779.64	3614.7	
779.81	5531.6	
779.99	6124.8	
780.17	4131.4	
780.34	4304.1	
780.52	5162.2	
780.69	5290.6	
780.87	3898.6	
781.05	3558.7	
781.22	5172.5	
781.4	5137	
781.58	3657.7	
781.75	2933.4	
781.93	5146.5	
782.11	4721.3	
782.28	4304.1	
782.46	3607.8	
782.64	4689.8	
782.81	5296.7	
782.99	3645.4	
783.17	3622.9	
783.34	5189.6	
783.52	4709.6	
783.69	3732.8	
783.87	4355.3	
784.05	4785.4	
784.22	4711	
784.4	4335.5	
784.58	3816	
784.75	5462.6	
784.93	4762.2	
785.1	3568.9	
785.28	4068.6	
785.46	5224.4	
785.63	4653	
785.81	3546.4	
785.99	3469.3	
786.16	4868.7	
786.34	5089.9	
786.51	3433.8	
786.69	3749.1	
786.87	4529.4	
787.04	4882.4	
787.22	3332	
787.39	4048.2	
787.57	4637.3	
787.75	5468.1	
787.92	4238.6	
788.1	4167.6	
788.27	4655.7	
788.45	4457.7	
788.63	3856.3	
788.8	2956.6	
788.98	5070.8	
789.15	4401.8	
789.33	3133.4	
789.5	3504.1	
789.68	5358.9	
789.86	5415.5	
790.03	3849.5	
790.21	3381.2	
790.38	5424.4	
790.56	4779.3	
790.73	3341.6	
790.91	3315	
791.09	4646.2	
791.26	5219.6	
791.44	3544.4	
791.61	3106.8	
791.79	4661.9	
791.96	4655	
792.14	3184.6	
792.32	2871.9	
792.49	4619.5	
792.67	4698	
792.84	3324.5	
793.02	3143.6	
793.19	5158.8	
793.37	5504.9	
793.54	2865.8	
793.72	3151.8	
793.89	5547.3	
794.07	4621.6	
794.25	3435.1	
794.42	2957.9	
794.6	5404.6	
794.77	5094	
794.95	3747.8	
795.12	3333.4	
795.3	4654.4	
795.47	5033.2	
795.65	3662.5	
795.82	3528	
796	4463.2	
796.17	5873.6	
796.35	3395.5	
796.52	3927.3	
796.7	5065.3	
796.87	5081	
797.05	3379.8	
797.22	4022.2	
797.4	5115.1	
797.57	5767.1	
797.75	3550.5	
797.92	3287.7	
798.1	5355.4	
798.27	4485.1	
798.45	2975	
798.62	3072	
798.8	4833.2	
798.97	5240.1	
799.15	3661.1	
799.32	3508.9	
799.5	4259.1	
799.67	4807.9	
799.85	3781.9	
800.02	2899.2	
800.2	4575.2	
800.37	4756.1	
800.55	3849.5	
800.72	3324.5	
800.9	5218.9	
801.07	5460.6	
801.25	4335.5	
801.42	3590.8	
801.6	5195	
801.77	4859.1	
801.95	3381.9	
802.12	3248.1	
802.29	4977.2	
802.47	4875.5	
802.64	3558	
802.82	2854.2	
802.99	4560.8	
803.17	5254.4	
803.34	3480.2	
803.52	3180.5	
803.69	5750	
803.87	4400.4	
804.04	3485	
804.21	3517	
804.39	5457.8	
804.56	4669.4	
804.74	2956.6	
804.91	3659	
805.09	4561.5	
805.26	4601.1	
805.44	3056.9	
805.61	3265.1	
805.78	5067.4	
805.96	5030.5	
806.13	3525.9	
806.31	3790.1	
806.48	4195.6	
806.66	4608.6	
806.83	3519.8	
807	3463.8	
807.18	4545.1	
807.35	4789.5	
807.53	3398.9	
807.7	2897.9	
807.87	5407.3	
808.05	4528.1	
808.22	3745.1	
808.4	2863.1	
808.57	4504.2	
808.74	4293.2	
808.92	3219.4	
809.09	3901.4	
809.27	4544.4	
809.44	4939.7	
809.61	2837.1	
809.79	3099.3	
809.96	5509.7	
810.14	5049.6	
810.31	2824.1	
810.48	3326.6	
810.66	4592.9	
810.83	5165	
811.01	3178.4	
811.18	3497.9	
811.35	5096	
811.53	4085	
811.7	3792.2	
811.87	3571	
812.05	4564.9	
812.22	4486.4	
812.39	3124.5	
812.57	3051.5	
812.74	4644.1	
812.92	5835.3	
813.09	3403.7	
813.26	3624.9	
813.44	5595.1	
813.61	4440	
813.78	2831	
813.96	3701.4	
814.13	4541.7	
814.3	4338.3	
814.48	3937.6	
814.65	3328.6	
814.82	5412.8	
815	4283	
815.17	3444	
815.34	4026.3	
815.52	4483.7	
815.69	4454.3	
815.87	3369.6	
816.04	3270.6	
816.21	4563.6	
816.38	4125.3	
816.56	3304.1	
816.73	3085.6	
816.9	5640.1	
817.08	5111.7	
817.25	3136.8	
817.42	3741.6	
817.6	4104.1	
817.77	4476.2	
817.94	3478.8	
818.12	3040.6	
818.29	4369	
818.46	6301.6	
818.64	3215.3	
818.81	2996.9	
818.98	4340.3	
819.16	5883.8	
819.33	3609.2	
819.5	3351.8	
819.67	4822.3	
819.85	5289.9	
820.02	3371.6	
820.19	3521.1	
820.37	4676.9	
820.54	4451.6	
820.71	3456.3	
820.88	4141.7	
821.06	4681	
821.23	4358.1	
821.4	3465.2	
821.58	3435.8	
821.75	5087.2	
821.92	4670.7	
822.09	2827.6	
822.27	2887	
822.44	4550.6	
822.61	4457.1	
822.79	2885.6	
822.96	5233.9	
823.13	4860.5	
823.3	4298.7	
823.48	3254.9	
823.65	2953.2	
823.82	5038	
823.99	4225	
824.17	4019.5	
824.34	3045.3	
824.51	5775.3	
824.68	4565.6	
824.86	3151.8	
825.03	3442	
825.2	4519.2	
825.37	5350	
825.55	3105.4	
825.72	3405.1	
825.89	5709.7	
826.06	5432.6	
826.24	3313.6	
826.41	3282.9	
826.58	5350.7	
826.75	4753.3	
826.92	2760	
827.1	2945.7	
827.27	7045.7	
827.44	5604.6	
827.61	3130.7	
827.79	3741	
827.96	4371.7	
828.13	4581.3	
828.3	3327.9	
828.47	2797.5	
828.65	4793.6	
828.82	4706.2	
828.99	4068.6	
829.16	3593.5	
829.34	5048.9	
829.51	4853	
829.68	3416.7	
829.85	3444	
830.02	5381.4	
830.2	5088.5	
830.37	2686.9	
830.54	3971.7	
830.71	5634	
830.88	4564.9	
831.05	2686.9	
831.23	3082.2	
831.4	5446.9	
831.57	5921.4	
831.74	3163.4	
831.91	2793.4	
832.09	4798.4	
832.26	5064.6	
832.43	3252.2	
832.6	3609.2	
832.77	4704.2	
832.94	5393.7	
833.12	2674	
833.29	3188.7	
833.46	4855.7	
833.63	6206.7	
833.8	3466.5	
833.97	3251.5	
834.15	5059.8	
834.32	4849.6	
834.49	3401.7	
834.66	3433.1	
834.83	5220.3	
835	4405.9	
835.17	3110.2	
835.35	3119.1	
835.52	4973.2	
835.69	4833.9	
835.86	3270.6	
836.03	2826.9	
836.2	5036	
836.37	4749.9	
836.55	3207.1	
836.72	3046	
836.89	4734.9	
837.06	5091.3	
837.23	3300	
837.4	3583.3	
837.57	5678.3	
837.75	6115.9	
837.92	3000.3	
838.09	3136.8	
838.26	4720.6	
838.43	5199.8	
838.6	3347.1	
838.77	3049.4	
838.94	5837.4	
839.11	5635.3	
839.29	3272.7	
839.46	2603	
839.63	5046.9	
839.8	4792.2	
839.97	3120.4	
840.14	3098.6	
840.31	4901.5	
840.48	5075.5	
840.65	2612.5	
840.82	3098.6	
841	4992.3	
841.17	4940.4	
841.34	2890.4	
841.51	2984.6	
841.68	5008	
841.85	4775.2	
842.02	3020.8	
842.19	2547.7	
842.36	4919.2	
842.53	4809.3	
842.7	2900.6	
842.87	3429.7	
843.05	6098.2	
843.22	4710.3	
843.39	2766.1	
843.56	2977.1	
843.73	4552	
843.9	5135.6	
844.07	4523.3	
844.24	3777.1	
844.41	6859.3	
844.58	4403.8	
844.75	2856.9	
844.92	3079.5	
845.09	4996.4	
845.26	5011.4	
845.43	2918.4	
845.6	3089.7	
845.77	4977.9	
845.94	4784.7	
846.12	3168.9	
846.29	3363.4	
846.46	5216.9	
846.63	4986.8	
846.8	2951.1	
846.97	3419.4	
847.14	5425.1	
847.31	4991.6	
847.48	3196.9	
847.65	3549.1	
847.82	5134.3	
847.99	5162.9	
848.16	3760.8	
848.33	3506.1	
848.5	4620.2	
848.67	5312.4	
848.84	2839.2	
849.01	2985.9	
849.18	4612	
849.35	4341.7	
849.52	3538.2	
849.69	2857.6	
849.86	5168.4	
850.03	5239.4	
850.2	2889.7	
850.37	3432.4	
850.54	5251	
850.71	4720.6	
850.88	3434.4	
851.05	2813.9	
851.22	4887.8	
851.39	5362.9	
851.56	2716.3	
851.73	3266.5	
851.9	4461.2	
852.07	5167.7	
852.24	3132	
852.41	2852.1	
852.58	4903.5	
852.75	4526	
852.92	3211.9	
853.09	2749.7	
853.26	4656.4	
853.43	5292.6	
853.6	2885.6	
853.77	2468.5	
853.94	5369.1	
854.11	4446.8	
854.28	4130.8	
854.44	3089	
854.61	5768.4	
854.78	5198.4	
854.95	2844.6	
855.12	3612.6	
855.29	4130.1	
855.46	5392.3	
855.63	2919	
855.8	3856.3	
855.97	4636.6	
856.14	5306.3	
856.31	3888.4	
856.48	3132.7	
856.65	4704.2	
856.82	4379.9	
856.99	2804.4	
857.16	3130	
857.33	5879	
857.49	4754	
857.66	3003.7	
857.83	3308.8	
858	4725.3	
858.17	4814.8	
858.34	2670.6	
858.51	2859	
858.68	5515.9	
858.85	5423.7	
859.02	3315	
859.19	3478.8	
859.36	4491.2	
859.52	4455	
859.69	2918.4	
859.86	3373	
860.03	4487.1	
860.2	5384.8	
860.37	2697.9	
860.54	2854.9	
860.71	5102.9	
860.88	5428.5	
861.05	3190.7	
861.21	3624.9	
861.38	5386.2	
861.55	4304.1	
861.72	2656.2	
861.89	3192.8	
862.06	5201.8	
862.23	5488.6	
862.4	2791.4	
862.56	2973	
862.73	5076.9	
862.9	4790.2	
863.07	3318.4	
863.24	2689	
863.41	4410	
863.58	4453.6	
863.75	2945	
863.91	3354.6	
864.08	5339.7	
864.25	5087.8	
864.42	3545.7	
864.59	3934.1	
864.76	5654.4	
864.93	4424.3	
865.09	2834.4	
865.26	3075.4	
865.43	5323.4	
865.6	5627.8	
865.77	2585.9	
865.94	2865.1	
866.1	5394.3	
866.27	5089.9	
866.44	4174.4	
866.61	2779.8	
866.78	4716.5	
866.95	5085.1	
867.11	2777.7	
867.28	2599.6	
867.45	5255.1	
867.62	4451.6	
867.79	3217.4	
867.96	2861.7	
868.12	4379.9	
868.29	5155.4	
868.46	2893.8	
868.63	3769.6	
868.8	5253	
868.97	5055.8	
869.13	2989.4	
869.3	2973	
869.47	5019.6	
869.64	5197.7	
869.81	2877.4	
869.97	2886.3	
870.14	4947.2	
870.31	5456.5	
870.48	2787.3	
870.65	3482.2	
870.81	4760.2	
870.98	4722.6	
871.15	3244	
871.32	2966.1	
871.48	5033.2	
871.65	5484.5	
871.82	2899.2	
871.99	3140.9	
872.16	5831.2	
872.32	5356.8	
872.49	2923.1	
872.66	2923.8	
872.83	5109	
872.99	4578.6	
873.16	3224.9	
873.33	2807.1	
873.5	4861.2	
873.67	4900.8	
873.83	3000.3	
874	3727.3	
874.17	4953.4	
874.34	5642.2	
874.5	3668.6	
874.67	3553.2	
874.84	5433.9	
875.01	4354	
875.17	3846.8	
875.34	2887.6	
875.51	4866.7	
875.68	5803.9	
875.84	3481.5	
876.01	4098.7	
876.18	5091.9	
876.34	5027.8	
876.51	2874.7	
876.68	2824.1	
876.85	4663.9	
877.01	5343.8	
877.18	3957.4	
877.35	2838.5	
877.52	4888.5	
877.68	4399	
877.85	2843.9	
878.02	2807.1	
878.18	4703.5	
878.35	4561.5	
878.52	2369.5	
878.69	3194.1	
878.85	5177.9	
879.02	5079.6	
879.19	3949.8	
879.35	3084.9	
879.52	5070.8	
879.69	5203.9	
879.86	2521	
880.02	3173.7	
880.19	4802.5	
880.36	5668.1	
880.52	3192.8	
880.69	3315.7	
880.86	5166.3	
881.02	5167.7	
881.19	3178.4	
881.36	3047.4	
881.52	5063.3	
881.69	4579.3	
881.86	3110.2	
882.02	3012.6	
882.19	5255.1	
882.36	6006.7	
882.52	2946.3	
882.69	3881.6	
882.86	4934.2	
883.02	4887.1	
883.19	3401	
883.36	3195.5	
883.52	5169.1	
883.69	5806	
883.86	2922.5	
884.02	2646.7	
884.19	5107	
884.36	4815.5	
884.52	3160	
884.69	3018.7	
884.86	4637.3	
885.02	5593.7	
885.19	3142.9	
885.36	3255.6	
885.52	4777.9	
885.69	4911	
885.86	4024.3	
886.02	3607.8	
886.19	5118.6	
886.35	4636.6	
886.52	3166.8	
886.69	3916.4	
886.85	4464.6	
887.02	5375.9	
887.19	5375.9	
887.35	5375.9	
887.52	5375.9	
887.68	5375.9	
887.85	5375.9	
888.02	5375.9	
888.18	5375.9	
888.35	5375.9	
888.51	5375.9	
888.68	5375.9	
888.85	5375.9	
889.01	5375.9	
889.18	5375.9	
889.35	5375.9	
889.51	5375.9	
889.68	5375.9	
889.84	5375.9	
890.01	5375.9	
890.17	5375.9	
890.34	5375.9	
890.51	5375.9	
890.67	5375.9	
890.84	5375.9	
891	5375.9	
891.17	5375.9	
891.34	5375.9	
891.5	5375.9	
891.67	5375.9	
891.83	5375.9	
892	5375.9	
892.16	5375.9	
892.33	5375.9	
892.5	5375.9	
892.66	5375.9	
892.83	5375.9	
892.99	5375.9	
893.16	5375.9	
893.32	5375.9	
893.49	5375.9	
893.65	5375.9	
893.82	5375.9	
893.99	5375.9	
894.15	5375.9	
894.32	5375.9	
894.48	5375.9	
894.65	5375.9	
894.81	5375.9	
894.98	5375.9	
895.14	5375.9	
895.31	5375.9	
895.47	5375.9	
895.64	5375.9	
895.81	5375.9	
895.97	5375.9	
896.14	5375.9	
896.3	5375.9	
896.47	5375.9	
896.63	5375.9	
896.8	5375.9	
896.96	5375.9	
897.13	5375.9	
897.29	5375.9	
897.46	5375.9	
897.62	5375.9	
897.79	5375.9	
897.95	5375.9	
898.12	5375.9	
898.28	5375.9	
898.45	5375.9	
898.61	5375.9	
898.78	5375.9	
898.94	5375.9	
899.11	5375.9	
899.27	5375.9	
899.44	5375.9	
899.6	5375.9	
899.77	5375.9	
899.93	5375.9	
900.1	5375.9	
900.26	5375.9	
900.43	5375.9	
900.59	5375.9	
900.76	5375.9	
900.92	5375.9	
901.09	5375.9	
901.25	5375.9	
901.42	5375.9	
901.58	5375.9	
901.75	5375.9	
901.91	5375.9	
902.07	5375.9	
902.24	5375.9	
902.4	5375.9	
902.57	5375.9	
902.73	5375.9	
902.9	5375.9	
903.06	5375.9	
903.23	5375.9	
903.39	5375.9	
903.56	5375.9	
903.72	5375.9	
903.88	5375.9	
904.05	5375.9	
904.21	5375.9	
904.38	5375.9	
904.54	5375.9	
904.71	5375.9	
904.87	5375.9	
905.03	5375.9	
905.2	5375.9	
905.36	5375.9	
905.53	5375.9	
905.69	5375.9	
905.86	5375.9	
906.02	5375.9	
906.18	5375.9	
906.35	5375.9	
906.51	5375.9	
906.68	5375.9	
906.84	5375.9	
907.01	5375.9	
907.17	5375.9	
907.33	5375.9	
907.5	5375.9	
907.66	5375.9	
907.83	5375.9	
907.99	5375.9	
908.15	5375.9	
908.32	5375.9	
908.48	5375.9	
908.65	5375.9	
908.81	5375.9	
908.97	5375.9	
909.14	5375.9	
909.3	5375.9	
909.47	5375.9	
909.63	5375.9	
909.79	5375.9	
909.96	5375.9	
910.12	5375.9	
910.28	5375.9	
910.45	5375.9	
910.61	5375.9	
910.78	5375.9	
910.94	5375.9	
911.1	5375.9	
911.27	5375.9	
911.43	5375.9	
911.59	5375.9	
911.76	5375.9	
911.92	5375.9	
912.08	5375.9	
912.25	5375.9	
912.41	5375.9	
912.57	5375.9	
912.74	5375.9	
912.9	5375.9	
913.07	5375.9	
913.23	5375.9	
913.39	5375.9	
913.56	5375.9	
913.72	5375.9	
913.88	5375.9	
914.05	5375.9	
914.21	5375.9	
914.37	5375.9	
914.54	5375.9	
914.7	5375.9	
914.86	5375.9	
915.03	5375.9	
915.19	5375.9	
