Wavelength	Intensities	
nm	a.u.	
179.22	1925.9	
179.44	1925.4	
179.65	1926.5	
179.86	1924.4	
180.08	1961.3	
180.29	5114.5	
180.51	3622.9	
180.72	5715.2	
180.94	6828.6	
181.15	3334.8	
181.37	3324.5	
181.58	5633.3	
181.79	5941.2	
182.01	3507.5	
182.22	3777.1	
182.44	5891.3	
182.65	4909	
182.87	4709.6	
183.08	4122.6	
183.29	6225.8	
183.51	5130.8	
183.72	3788.1	
183.94	5625.1	
184.15	5468.8	
184.37	5616.2	
184.58	3321.1	
184.79	4631.1	
185.01	5137	
185.22	5944.6	
185.44	4861.9	
185.65	4080.2	
185.86	5445.5	
186.08	5018.2	
186.29	3268.6	
186.51	3503.4	
186.72	5173.2	
186.94	6087.2	
187.15	4039.3	
187.36	4205.8	
187.58	7982.3	
187.79	5640.8	
188.01	4379.2	
188.22	6836.8	
188.43	6827.9	
188.65	5959.6	
188.86	3493.8	
189.08	4119.1	
189.29	5330.2	
189.5	5346.6	
189.72	3859.7	
189.93	3999	
190.15	6106.4	
190.36	7382.9	
190.57	4283.7	
190.79	4164.2	
191	6217.6	
191.22	6219.7	
191.43	4291.2	
191.64	3428.3	
191.86	6500.3	
192.07	6141.9	
192.29	3639.9	
192.5	3837.9	
192.71	6114.6	
192.93	5281	
193.14	3865.2	
193.35	3963.5	
193.57	5252.4	
193.78	6116.6	
194	3098.6	
194.21	3752.6	
194.42	5017.5	
194.64	5584.1	
194.85	4173.8	
195.07	4841.4	
195.28	5630.5	
195.49	4782.7	
195.71	5167.7	
195.92	3663.1	
196.13	5732.3	
196.35	5895.4	
196.56	5507.7	
196.78	4209.9	
196.99	7272.3	
197.2	6819.7	
197.42	4817.5	
197.63	4246.8	
197.84	4955.4	
198.06	5725.4	
198.27	3886.4	
198.48	5224.4	
198.7	5304.2	
198.91	5466.7	
199.13	4240.7	
199.34	4253.6	
199.55	5939.1	
199.77	4771.8	
199.98	3700.7	
200.19	4298.7	
200.41	5427.1	
200.62	5146.5	
200.83	4403.1	
201.05	4724.7	
201.26	5410.1	
201.47	5184.8	
201.69	3737.5	
201.9	3610.6	
202.11	5547.3	
202.33	6625.2	
202.54	3999.7	
202.76	4471.4	
202.97	5726.1	
203.18	5641.5	
203.4	4457.1	
203.61	4284.4	
203.82	5587.5	
204.04	5155.4	
204.25	4280.9	
204.46	4164.2	
204.68	5577.3	
204.89	5831.9	
205.1	4160.1	
205.32	3540.3	
205.53	5998.5	
205.74	6164.4	
205.96	3013.2	
206.17	4331.5	
206.38	5936.4	
206.6	6064.7	
206.81	4883.7	
207.02	3917.1	
207.24	5846.3	
207.45	6246.3	
207.66	4022.2	
207.88	3457	
208.09	5788.2	
208.3	5602.6	
208.52	3657.7	
208.73	3969.6	
208.94	5523.4	
209.15	6317.3	
209.37	3999	
209.58	4205.2	
209.79	6169.2	
210.01	5384.1	
210.22	3210.5	
210.43	3303.4	
210.65	5606.7	
210.86	5991.7	
211.07	4022.2	
211.29	3668.6	
211.5	5922.7	
211.71	5467.4	
211.93	3644	
212.14	3720.5	
212.35	5493.3	
212.56	5769.8	
212.78	4257	
212.99	3474.7	
213.2	6610.2	
213.42	5315.2	
213.63	3814	
213.84	4167.6	
214.06	4885.1	
214.27	5031.2	
214.48	3975.1	
214.69	4253.6	
214.91	6242.9	
215.12	6345.3	
215.33	4304.1	
215.55	4807.9	
215.76	6880.5	
215.97	5871.5	
216.18	4141.7	
216.4	4061.8	
216.61	5236	
216.82	6134.3	
217.04	3661.1	
217.25	3831.1	
217.46	6255.9	
217.67	5942.5	
217.89	3272.7	
218.1	3386.7	
218.31	5677	
218.53	5705.6	
218.74	3885.7	
218.95	3747.8	
219.16	5483.1	
219.38	6548	
219.59	3785.3	
219.8	4470.7	
220.01	7236.2	
220.23	5570.5	
220.44	5045.5	
220.65	3688.4	
220.87	5618.9	
221.08	6287.9	
221.29	3360	
221.5	4654.4	
221.72	7754.3	
221.93	5259.2	
222.14	4253.6	
222.35	5079.6	
222.57	5607.3	
222.78	5877	
222.99	4020.2	
223.2	4385.4	
223.42	5864	
223.63	6030.6	
223.84	3080.1	
224.05	3110.2	
224.27	7196.6	
224.48	6582.9	
224.69	5042.8	
224.9	4234.5	
225.12	5785.5	
225.33	5473.5	
225.54	3364.1	
225.75	3760.1	
225.97	5090.6	
226.18	5377.3	
226.39	4095.9	
226.6	3801.7	
226.82	5276.9	
227.03	5163.6	
227.24	4280.3	
227.45	3464.5	
227.67	5994.4	
227.88	6566.5	
228.09	4718.5	
228.3	4782	
228.52	5973.2	
228.73	5508.4	
228.94	3921.2	
229.15	3480.2	
229.36	5454.4	
229.58	5397.1	
229.79	3983.3	
230	4625.7	
230.21	6652.5	
230.43	5674.2	
230.64	4149.9	
230.85	4406.5	
231.06	5997.8	
231.28	6040.8	
231.49	3510.9	
231.7	4132.8	
231.91	5872.2	
232.12	5601.9	
232.34	3555.3	
232.55	4061.8	
232.76	6251.1	
232.97	5760.9	
233.18	3814.7	
233.4	4192.2	
233.61	5825.8	
233.82	5240.8	
234.03	3852.2	
234.25	3835.8	
234.46	7798	
234.67	5588.9	
234.88	4397.7	
235.09	3716.4	
235.31	5868.1	
235.52	5421.7	
235.73	4209.3	
235.94	3540.9	
236.15	5221	
236.37	6845.7	
236.58	3730	
236.79	4048.2	
237	5937.1	
237.21	5016.2	
237.43	4328	
237.64	3345	
237.85	10363	
238.06	5096.7	
238.27	4403.8	
238.48	3531.4	
238.7	5919.3	
238.91	5373.9	
239.12	4010.6	
239.33	4121.9	
239.54	5141.1	
239.76	5501.5	
239.97	4028.4	
240.18	4020.2	
240.39	7030.7	
240.6	5859.2	
240.82	4227.7	
241.03	3396.9	
241.24	5568.4	
241.45	6509.1	
241.66	3661.8	
241.87	4338.3	
242.09	6311.8	
242.3	6740.5	
242.51	4450.9	
242.72	4007.2	
242.93	6059.3	
243.14	5525.4	
243.36	4643.4	
243.57	5114.5	
243.78	6456.6	
243.99	5958.9	
244.2	4113	
244.41	3715.7	
244.63	5092.6	
244.84	5897.5	
245.05	4353.3	
245.26	4088.4	
245.47	5830.6	
245.68	6176	
245.9	5418.2	
246.11	4233.2	
246.32	5369.1	
246.53	5865.4	
246.74	6595.8	
246.95	3411.9	
247.16	5019.6	
247.38	5528.8	
247.59	3358	
247.8	4065.2	
248.01	5221.6	
248.22	5442.1	
248.43	3685.7	
248.64	3984.7	
248.86	4863.2	
249.07	5317.2	
249.28	3583.9	
249.49	4207.2	
249.7	6087.9	
249.91	6285.2	
250.12	3334.8	
250.34	3366.2	
250.55	5660.6	
250.76	5503.6	
250.97	4179.2	
251.18	4233.2	
251.39	6306.4	
251.6	5737.7	
251.81	4327.4	
252.03	4260.5	
252.24	5268.1	
252.45	6169.2	
252.66	3515.7	
252.87	4566.3	
253.08	5573.9	
253.29	7459.4	
253.5	3508.2	
253.72	4952.7	
253.93	5397.8	
254.14	6601.3	
254.35	3830.4	
254.56	3988.8	
254.77	5838.8	
254.98	5107	
255.19	3781.9	
255.41	4922.6	
255.62	5623.7	
255.83	6262.7	
256.04	4345.1	
256.25	4235.9	
256.46	6703	
256.67	5251	
256.88	4225.6	
257.09	4666	
257.31	5206.6	
257.52	5253	
257.73	5259.2	
257.94	3875.4	
258.15	5364.3	
258.36	5587.5	
258.57	4863.9	
258.78	3056.9	
258.99	6084.5	
259.2	5380.7	
259.41	3905.5	
259.63	3930.7	
259.84	6468.9	
260.05	7001.3	
260.26	5132.2	
260.47	3820.1	
260.68	6217	
260.89	5482.4	
261.1	4713.7	
261.31	3663.1	
261.52	6199.2	
261.73	6545.3	
261.95	4975.9	
262.16	4381.3	
262.37	6363.7	
262.58	6451.8	
262.79	5050.3	
263	3979.9	
263.21	5613.5	
263.42	5066	
263.63	4022.2	
263.84	3943.7	
264.05	6237.4	
264.26	6566.5	
264.47	4846.2	
264.69	4223.6	
264.9	6302.3	
265.11	5764.3	
265.32	3708.2	
265.53	3881.6	
265.74	5678.3	
265.95	4945.2	
266.16	4156.7	
266.37	4559.5	
266.58	5705.6	
266.79	5446.2	
267	3839.9	
267.21	3514.3	
267.42	5074.2	
267.63	5525.4	
267.84	4034.5	
268.06	3426.3	
268.27	6060.6	
268.48	6365.1	
268.69	3959.4	
268.9	4655.7	
269.11	6326.9	
269.32	5094	
269.53	4053.6	
269.74	3751.9	
269.95	5963.7	
270.16	4853.7	
270.37	4046.8	
270.58	4747.9	
270.79	5384.1	
271	6150.1	
271.21	4374.5	
271.42	4124.6	
271.63	5729.5	
271.84	5203.2	
272.05	3183.2	
272.26	3627	
272.47	5588.9	
272.68	5834.7	
272.89	3896.6	
273.11	4532.2	
273.32	5401.9	
273.53	6610.2	
273.74	4402.5	
273.95	4268	
274.16	6277.7	
274.37	5636	
274.58	4440	
274.79	3497.2	
275	5681.7	
275.21	6309.1	
275.42	5369.1	
275.63	4567.7	
275.84	5834	
276.05	7402.7	
276.26	4291.2	
276.47	4018.1	
276.68	5373.9	
276.89	6634.7	
277.1	4588.1	
277.31	3547.8	
277.52	5885.2	
277.73	5988.3	
277.94	3463.8	
278.15	3965.6	
278.36	5757.5	
278.57	5176.6	
278.78	3908.9	
278.99	4436.6	
279.2	5165	
279.41	5190.2	
279.62	5173.9	
279.83	3589.4	
280.04	6820.4	
280.25	5058.5	
280.46	5072.1	
280.67	4070	
280.88	5121.3	
281.09	6286.6	
281.3	4277.5	
281.51	5439.4	
281.72	5260.5	
281.93	6154.8	
282.14	3820.1	
282.35	4085.7	
282.56	6119.3	
282.77	6100.2	
282.98	3927.3	
283.19	4825	
283.4	7553.6	
283.61	5526.8	
283.82	3505.4	
284.03	5100.1	
284.24	5622.4	
284.45	6287.3	
284.66	5042.8	
284.87	4780.6	
285.08	6162.3	
285.29	6328.9	
285.5	3411.2	
285.71	4009.2	
285.92	6253.8	
286.12	6923.5	
286.33	5072.1	
286.54	3947.1	
286.75	6140.5	
286.96	5428.5	
287.17	3595.6	
287.38	4992.3	
287.59	5160.9	
287.8	5088.5	
288.01	4052.2	
288.22	4621.6	
288.43	6120	
288.64	5044.8	
288.85	4735.6	
289.06	4497.3	
289.27	6404	
289.48	6591	
289.69	5098.8	
289.9	4534.9	
290.11	6259.3	
290.32	5262.6	
290.53	4786.8	
290.74	4413.4	
290.94	5972.6	
291.15	6102.9	
291.36	3824.9	
291.57	4603.8	
291.78	5281.7	
291.99	4950.6	
292.2	3629	
292.41	4431.8	
292.62	6178.7	
292.83	5878.4	
293.04	5387.5	
293.25	3625.6	
293.46	5309	
293.67	6233.3	
293.88	3762.1	
294.09	3613.3	
294.29	5098.8	
294.5	5725.4	
294.71	4078.2	
294.92	3881.6	
295.13	5330.2	
295.34	6779.5	
295.55	3422.2	
295.76	3537.5	
295.97	6006.7	
296.18	6821.1	
296.39	3601	
296.6	3803.1	
296.81	5632.6	
297.01	6025.8	
297.22	3969.6	
297.43	3795.6	
297.64	5190.2	
297.85	5202.5	
298.06	3138.9	
298.27	3401	
298.48	5638.1	
298.69	5270.1	
298.9	4149.9	
299.11	3762.8	
299.31	5049.6	
299.52	5079.6	
299.73	4448.2	
299.94	4331.5	
300.15	5598.5	
300.36	5165	
300.57	4360.1	
300.78	4331.5	
300.99	5445.5	
301.2	5681.7	
301.4	3779.2	
301.61	4134.2	
301.82	5903.6	
302.03	6027.2	
302.24	4646.2	
302.45	3592.8	
302.66	5903.6	
302.87	6352.8	
303.08	3774.4	
303.29	5235.3	
303.49	5268.1	
303.7	5573.2	
303.91	3390.1	
304.12	4976.6	
304.33	5066	
304.54	5711.8	
304.75	3888.4	
304.96	3665.2	
305.16	5883.1	
305.37	6753.5	
305.58	3326.6	
305.79	3454.9	
306	5928.9	
306.21	4944.5	
306.42	3853.6	
306.63	5898.8	
306.83	5395.7	
307.04	6197.8	
307.25	4246.1	
307.46	4138.9	
307.67	4749.2	
307.88	6052.4	
308.09	3709.6	
308.29	3899.3	
308.5	5650.3	
308.71	6172.6	
308.92	4078.2	
309.13	3612.6	
309.34	5491.3	
309.55	5546.6	
309.75	4752	
309.96	4392.9	
310.17	6010.1	
310.38	5273.5	
310.59	4631.1	
310.8	3514.3	
311.01	5412.8	
311.21	5377.3	
311.42	3600.3	
311.63	3786.7	
311.84	5290.6	
312.05	5769.8	
312.26	4234.5	
312.46	4655.7	
312.67	5384.8	
312.88	5070.8	
313.09	3647.4	
313.3	3600.3	
313.51	6358.9	
313.71	6886	
313.92	3629	
314.13	3827	
314.34	5781.4	
314.55	5523.4	
314.76	4788.8	
314.96	4145.8	
315.17	5643.5	
315.38	6184.2	
315.59	3644	
315.8	3485.6	
316.01	6531	
316.21	6565.1	
316.42	3529.3	
316.63	4042	
316.84	5449	
317.05	6321.4	
317.26	4379.9	
317.46	3902.1	
317.67	5481	
317.88	5933	
318.09	4672.8	
318.3	3392.8	
318.5	5237.3	
318.71	5933	
318.92	6031.3	
319.13	4347.8	
319.34	6096.1	
319.54	6234.7	
319.75	3444	
319.96	3289.7	
320.17	6011.5	
320.38	6176	
320.58	3364.8	
320.79	4017.4	
321	6230.6	
321.21	6401.3	
321.42	4046.8	
321.62	3300.6	
321.83	5179.3	
322.04	5616.2	
322.25	3911.6	
322.46	3652.9	
322.66	5684.5	
322.87	5899.5	
323.08	4604.5	
323.29	3609.9	
323.5	6695.5	
323.7	5101.5	
323.91	5074.9	
324.12	4529.4	
324.33	5672.2	
324.53	5928.9	
324.74	4369	
324.95	4640.7	
325.16	4914.4	
325.37	5361.6	
325.57	3744.4	
325.78	3710.9	
325.99	5638.1	
326.2	4990.2	
326.4	5317.2	
326.61	3347.1	
326.82	5500.2	
327.03	5765	
327.24	5302.2	
327.44	5027.8	
327.65	5871.5	
327.86	4679.6	
328.07	4373.1	
328.27	3507.5	
328.48	6263.4	
328.69	5145.2	
328.9	5384.8	
329.1	3927.3	
329.31	5461.2	
329.52	6441.5	
329.73	3666.5	
329.93	4127.3	
330.14	5537	
330.35	5864.7	
330.56	6177.4	
330.76	4575.8	
330.97	5376.6	
331.18	5799.2	
331.39	4065.9	
331.59	3310.9	
331.8	6208.8	
332.01	6435.4	
332.22	3786	
332.42	4313.7	
332.63	5713.2	
332.84	5325.4	
333.05	4147.1	
333.25	3756.7	
333.46	5374.6	
333.67	5666	
333.88	3867.2	
334.08	4289.8	
334.29	7482.6	
334.5	6308.4	
334.7	3599	
334.91	5302.9	
335.12	5085.8	
335.33	6035.4	
335.53	4052.9	
335.74	6145.3	
335.95	5318.6	
336.16	5244.8	
336.36	4102.1	
336.57	4762.2	
336.78	5099.4	
336.98	6251.8	
337.19	5062.6	
337.4	4054.3	
337.61	6790.4	
337.81	5051.7	
338.02	3693.9	
338.23	4913.1	
338.43	6401.3	
338.64	5190.9	
338.85	3726.6	
339.05	4898.7	
339.26	6445	
339.47	5034.6	
339.68	3721.2	
339.88	5543.9	
340.09	5878.4	
340.3	6140.5	
340.5	4375.1	
340.71	3335.5	
340.92	5058.5	
341.13	6425.2	
341.33	3587.4	
341.54	4445.5	
341.75	5841.5	
341.95	5458.5	
342.16	4166.9	
342.37	4515.8	
342.57	5113.8	
342.78	5531.6	
342.99	4663.2	
343.19	3304.7	
343.4	6004	
343.61	5834.7	
343.81	3919.8	
344.02	3649.5	
344.23	5991	
344.43	6537.8	
344.64	4593.6	
344.85	4478.9	
345.06	5913.2	
345.26	6294.8	
345.47	4292.5	
345.68	4999.8	
345.88	4913.8	
346.09	6077	
346.3	4359.4	
346.5	3259	
346.71	5566.4	
346.92	5293.3	
347.12	3364.8	
347.33	4316.4	
347.54	6154.8	
347.74	6613.6	
347.95	4179.9	
348.16	3154.6	
348.36	5387.5	
348.57	5147.9	
348.78	4233.8	
348.98	4573.1	
349.19	5473.5	
349.39	5030.5	
349.6	3401	
349.81	3779.2	
350.01	5839.4	
350.22	5304.9	
350.43	4077.5	
350.63	4964.3	
350.84	5687.2	
351.05	5369.8	
351.25	3752.6	
351.46	3345.7	
351.67	6187.6	
351.87	5304.2	
352.08	3971.7	
352.29	4545.1	
352.49	6142.5	
352.7	5767.8	
352.9	3581.2	
353.11	4542.4	
353.32	6809.5	
353.52	5360.2	
353.73	3511.6	
353.94	4610.7	
354.14	5853.8	
354.35	5756.8	
354.55	3674.7	
354.76	4162.8	
354.97	5814.9	
355.17	5625.1	
355.38	3394.2	
355.59	4807.9	
355.79	5238	
356	5640.1	
356.2	4051.6	
356.41	3483.6	
356.62	4966.3	
356.82	5474.9	
357.03	4336.2	
357.24	3877.5	
357.44	5324.7	
357.65	5449.6	
357.85	5297.4	
358.06	4044.1	
358.27	4953.4	
358.47	5228.5	
358.68	3401.7	
358.88	4334.2	
359.09	5844.9	
359.3	6296.1	
359.5	5076.2	
359.71	4485.1	
359.91	6797.2	
360.12	6036	
360.33	4272.7	
360.53	4805.9	
360.74	5264.6	
360.94	5331.5	
361.15	4517.1	
361.36	3673.4	
361.56	6075.6	
361.77	5475.6	
361.97	5057.1	
362.18	3912.3	
362.38	6059.3	
362.59	5115.1	
362.8	3602.4	
363	3432.4	
363.21	4907.6	
363.41	5627.1	
363.62	4277.5	
363.83	5311.1	
364.03	5701.5	
364.24	6747.4	
364.44	5397.8	
364.65	5430.5	
364.85	5418.9	
365.06	5248.9	
365.27	3777.8	
365.47	3844.7	
365.68	6466.8	
365.88	5404.6	
366.09	4277.5	
366.29	3925.3	
366.5	5712.5	
366.71	6160.3	
366.91	5301.5	
367.12	4433.2	
367.32	6776.7	
367.53	5969.8	
367.73	4348.5	
367.94	5423.7	
368.14	5950	
368.35	6896.9	
368.56	4428.4	
368.76	3686.3	
368.97	5980.1	
369.17	7896.3	
369.38	3836.5	
369.58	4099.4	
369.79	5027.1	
369.99	6480.5	
370.2	5165	
370.4	4185.4	
370.61	5767.1	
370.82	6972.7	
371.02	4100	
371.23	3363.4	
371.43	4961.5	
371.64	6343.9	
371.84	4080.9	
372.05	5453.1	
372.25	7770	
372.46	6149.4	
372.66	4078.2	
372.87	4050.9	
373.07	6135.7	
373.28	7836.2	
373.48	5232.6	
373.69	4883	
373.9	5552.7	
374.1	5567.7	
374.31	5075.5	
374.51	4633.9	
374.72	6434	
374.92	5205.3	
375.13	5246.2	
375.33	4410	
375.54	5945.3	
375.74	5390.9	
375.95	4530.1	
376.15	5840.1	
376.36	5937.7	
376.56	5771.9	
376.77	4550.6	
376.97	5068.7	
377.18	7119.4	
377.38	6064	
377.59	5457.2	
377.79	4028.4	
378	5814.9	
378.2	6346	
378.41	4101.4	
378.61	4028.4	
378.82	6416.3	
379.02	5369.8	
379.23	4219.5	
379.43	5481.7	
379.64	6451.8	
379.84	6012.8	
380.05	4130.8	
380.25	3951.9	
380.46	6162.3	
380.66	5709.7	
380.87	5498.8	
381.07	5843.5	
381.28	6778.8	
381.48	6183.5	
381.69	4122.6	
381.89	4182.6	
382.1	5068.7	
382.3	6337.1	
382.51	5316.5	
382.71	6322.8	
382.91	6176.7	
383.12	6770.6	
383.32	4515.1	
383.53	4809.3	
383.73	6016.2	
383.94	5784.1	
384.14	4631.1	
384.35	3738.9	
384.55	5732.3	
384.76	6230.6	
384.96	4478.2	
385.17	4811.4	
385.37	6178	
385.58	5409.4	
385.78	4889.9	
385.98	3615.3	
386.19	5608.7	
386.39	6023.8	
386.6	4197.7	
386.8	4601.8	
387.01	6158.2	
387.21	6219	
387.42	4982	
387.62	5580	
387.83	5450.3	
388.03	6142.5	
388.23	4597	
388.44	5428.5	
388.64	5137.7	
388.85	5248.3	
389.05	4940.4	
389.26	5674.9	
389.46	7200.7	
389.67	6642.9	
389.87	4846.9	
390.07	4964.3	
390.28	5812.1	
390.48	5351.3	
390.69	4130.1	
390.89	4414.7	
391.1	5481.7	
391.3	6538.5	
391.5	5689.3	
391.71	6318.7	
391.91	6220.4	
392.12	7381.6	
392.32	5767.1	
392.53	5042.8	
392.73	5597.1	
392.93	5829.2	
393.14	4642.7	
393.34	5410.7	
393.55	6181.5	
393.75	5761.6	
393.95	4608.6	
394.16	4528.1	
394.36	5543.2	
394.57	6323.4	
394.77	4066.6	
394.98	4536.9	
395.18	5530.9	
395.38	5649	
395.59	5455.8	
395.79	4325.3	
396	5654.4	
396.2	6182.8	
396.4	5236	
396.61	5136.3	
396.81	6402.6	
397.02	5655.8	
397.22	5398.4	
397.42	5522	
397.63	6408.1	
397.83	5554.8	
398.04	4236.6	
398.24	4825	
398.44	6126.8	
398.65	5177.9	
398.85	4149.2	
399.05	4246.8	
399.26	5466.7	
399.46	7346.1	
399.67	4659.1	
399.87	4279.6	
400.07	5894.7	
400.28	6253.1	
400.48	4485.1	
400.69	5558.2	
400.89	6543.9	
401.09	7019.8	
401.3	4291.9	
401.5	5561.6	
401.7	7322.2	
401.91	7497.6	
402.11	4715.1	
402.32	5034.6	
402.52	6576.7	
402.72	6420.4	
402.93	5102.2	
403.13	3938.2	
403.33	7345.4	
403.54	5941.8	
403.74	4861.9	
403.94	5806.7	
404.15	6047	
404.35	7255.3	
404.56	4599.7	
404.76	6635.4	
404.96	6526.9	
405.17	6333.7	
405.37	5920	
405.57	5214.8	
405.78	6543.3	
405.98	6016.9	
406.18	4666.6	
406.39	5640.1	
406.59	6576.7	
406.79	6173.3	
407	4457.7	
407.2	4701.5	
407.4	6571.9	
407.61	6792.4	
407.81	4545.1	
408.01	6807.4	
408.22	5477	
408.42	7806.2	
408.62	5747.3	
408.83	5184.1	
409.03	6223.1	
409.23	5963.7	
409.44	5319.9	
409.64	5595.7	
409.84	7171.3	
410.05	7100.3	
410.25	5412.8	
410.45	5127.4	
410.66	6455.9	
410.86	9131.2	
411.06	5591	
411.27	5463.3	
411.47	8912.8	
411.67	6732.4	
411.88	5761.6	
412.08	6093.4	
412.28	7359.7	
412.49	7944.1	
412.69	5500.2	
412.89	5537.7	
413.09	7707.9	
413.3	7553.6	
413.5	5668.8	
413.7	5285.8	
413.91	6754.9	
414.11	7722.9	
414.31	5436	
414.52	5883.1	
414.72	7406.8	
414.92	7258	
415.12	5465.3	
415.33	5985.5	
415.53	7638.9	
415.73	7917.4	
415.94	6397.9	
416.14	5772.5	
416.34	6563.1	
416.55	6425.8	
416.75	7154.9	
416.95	6432.7	
417.15	7678.5	
417.36	8504.5	
417.56	7252.5	
417.76	6384.9	
417.97	8098.4	
418.17	7770.7	
418.37	5816.9	
418.57	5969.8	
418.78	7471	
418.98	7103.7	
419.18	6763.1	
419.38	6802	
419.59	7227.3	
419.79	6768.5	
419.99	5742.5	
420.2	6238.8	
420.4	7842.4	
420.6	7973.4	
420.8	5652.4	
421.01	5528.2	
421.21	7519.5	
421.41	7802.8	
421.61	6165.1	
421.82	5762.3	
422.02	7052.5	
422.22	8116.1	
422.42	6645.7	
422.63	6305.7	
422.83	7149.5	
423.03	8566	
423.23	6290	
423.44	5176.6	
423.64	7238.2	
423.84	7034.1	
424.04	5687.2	
424.25	5319.3	
424.45	8139.3	
424.65	8168	
424.85	5053.7	
425.06	5727.5	
425.26	8205.5	
425.46	7066.9	
425.66	6287.9	
425.87	5881.8	
426.07	7922.9	
426.27	7840.3	
426.47	6097.5	
426.67	5476.3	
426.88	8293.6	
427.08	7746.1	
427.28	6336.4	
427.48	5370.5	
427.69	6542.6	
427.89	7275.8	
428.09	6285.2	
428.29	5403.9	
428.5	7983	
428.7	7497.6	
428.9	5284.4	
429.1	5902.9	
429.3	7438.2	
429.51	7932.5	
429.71	5586.2	
429.91	6464.1	
430.11	7783	
430.31	8016.4	
430.52	5964.4	
430.72	6253.8	
430.92	8375.5	
431.12	7849.9	
431.32	5642.2	
431.53	6059.9	
431.73	6643.6	
431.93	8443.1	
432.13	5482.4	
432.33	5403.9	
432.54	7093.5	
432.74	7557	
432.94	5379.3	
433.14	6495.5	
433.34	7669.6	
433.55	7308.5	
433.75	6384.9	
433.95	8240.3	
434.15	7454.6	
434.35	7203.4	
434.56	5543.9	
434.76	5117.2	
434.96	7479.9	
435.16	7699	
435.36	5445.5	
435.56	6725.5	
435.77	7091.4	
435.97	7337.9	
436.17	7495.6	
436.37	6638.8	
436.57	7094.2	
436.78	6965.8	
436.98	8510	
437.18	7257.3	
437.38	7843	
437.58	7273	
437.78	7453.9	
437.99	5943.2	
438.19	7795.9	
438.39	8637	
438.59	5814.9	
438.79	5339.7	
438.99	8637.6	
439.2	7329.7	
439.4	5479	
439.6	5454.4	
439.8	7687.4	
440	8914.8	
440.2	6579.4	
440.4	6720.8	
440.61	8068.3	
440.81	8749.6	
441.01	5806	
441.21	6747.4	
441.41	8604.2	
441.61	8151.6	
441.81	7024.5	
442.02	8129.1	
442.22	9069.8	
442.42	8299.7	
442.62	5821	
442.82	5872.9	
443.02	8632.9	
443.22	7675.1	
443.43	6348	
443.63	5890.6	
443.83	7359	
444.03	7464.2	
444.23	7223.2	
444.43	6722.1	
444.63	7756.3	
444.83	9091.6	
445.04	5943.2	
445.24	7410.2	
445.44	8146.1	
445.64	8253.3	
445.84	6777.4	
446.04	6761.7	
446.24	7507.9	
446.44	8539.3	
446.65	5969.1	
446.85	6307.7	
447.05	7673.7	
447.25	8563.2	
447.45	6425.2	
447.65	5821.7	
447.85	7863.5	
448.05	7453.2	
448.25	6953.5	
448.46	6729.6	
448.66	7901.7	
448.86	7507.9	
449.06	5595.7	
449.26	6916	
449.46	8245.1	
449.66	7134.4	
449.86	6407.4	
450.06	6377.4	
450.26	7490.8	
450.47	8107.2	
450.67	6668.9	
450.87	7039.6	
451.07	8084	
451.27	7877.9	
451.47	5969.1	
451.67	6550.8	
451.87	7526.3	
452.07	8798.8	
452.27	6169.2	
452.47	6152.1	
452.67	7926.3	
452.88	8638.3	
453.08	5478.3	
453.28	7611.6	
453.48	9161.9	
453.68	7830.1	
453.88	6144.6	
454.08	6350.8	
454.28	8307.2	
454.48	7958.4	
454.68	6921.5	
454.88	7476.5	
455.08	8451.3	
455.28	8112.7	
455.48	5925.5	
455.68	6692.8	
455.89	8883.4	
456.09	8628.8	
456.29	6327.5	
456.49	6375.3	
456.69	8854.1	
456.89	8010.3	
457.09	6997.9	
457.29	7400.7	
457.49	8407.6	
457.69	8566.7	
457.89	6735.1	
458.09	6177.4	
458.29	8070.4	
458.49	8902.5	
458.69	7265.5	
458.89	6607.4	
459.09	9208.4	
459.29	9344.2	
459.49	6711.9	
459.69	7671	
459.9	8659.5	
460.1	8181.6	
460.3	6644.3	
460.5	6389.7	
460.7	8611.7	
460.9	8404.2	
461.1	6079.7	
461.3	7500.3	
461.5	9335.3	
461.7	8979.7	
461.9	6583.5	
462.1	7081.9	
462.3	8403.5	
462.5	9154.4	
462.7	6642.2	
462.9	6818.4	
463.1	10209	
463.3	9848	
463.5	6957.6	
463.7	8091.5	
463.9	8622.6	
464.1	9131.2	
464.3	7145.4	
464.5	7337.9	
464.7	9402.2	
464.9	9035	
465.1	8948.9	
465.3	7776.1	
465.5	9822.1	
465.7	9788.6	
465.9	8034.9	
466.1	7907.2	
466.3	9629.5	
466.5	9402.9	
466.7	8827.4	
466.9	7713.3	
467.1	9246.6	
467.3	10410	
467.5	8801.5	
467.7	7576.1	
467.9	10549	
468.1	11611	
468.3	8400.1	
468.5	8936.7	
468.7	9323	
468.9	9355.1	
469.1	7871.7	
469.3	8576.2	
469.5	11447	
469.7	8842.4	
469.9	8374.8	
470.1	7586.4	
470.3	9318.3	
470.5	9385.2	
470.7	9032.9	
470.9	7636.9	
471.1	9136	
471.3	9594.7	
471.5	7517.4	
471.69	9609.8	
471.89	8958.5	
472.09	8428.8	
472.29	8378.2	
472.49	8813.1	
472.69	8721.6	
472.89	9545.6	
473.09	7527.7	
473.29	7618.4	
473.49	8827.4	
473.69	9043.1	
473.89	8656.1	
474.09	7679.9	
474.29	10349	
474.49	10028	
474.69	8589.2	
474.89	7876.5	
475.09	9052	
475.29	9032.9	
475.49	7265.5	
475.69	7507.9	
475.88	10720	
476.08	9377.6	
476.28	7202.7	
476.48	7643.7	
476.68	9867.1	
476.88	9634.3	
477.08	7451.9	
477.28	7861.5	
477.48	9153.1	
477.68	9877.4	
477.88	7314.7	
478.08	7674.4	
478.28	10081	
478.48	9138.7	
478.67	7727	
478.87	7067.5	
479.07	10018	
479.27	9286.9	
479.47	7934.5	
479.67	7897	
479.87	9757.2	
480.07	10346	
480.27	7120.8	
480.47	8930.5	
480.67	9426.1	
480.87	10062	
481.06	7504.4	
481.26	8376.2	
481.46	9285.5	
481.66	9231.6	
481.86	7822.6	
482.06	9000.1	
482.26	9004.9	
482.46	10151	
482.66	7802.1	
482.86	7298.3	
483.05	9391.3	
483.25	8809	
483.45	10524	
483.65	7940.7	
483.85	8962.6	
484.05	9310.1	
484.25	8390.5	
484.45	8938.7	
484.65	10296	
484.84	10212	
485.04	7761.8	
485.24	7888.1	
485.44	10539	
485.64	8680.7	
485.84	7078.5	
486.04	8614.4	
486.24	9278	
486.44	9655.5	
486.63	7066.2	
486.83	7923.6	
487.03	9082.7	
487.23	9357.9	
487.43	7156.3	
487.63	9931.3	
487.83	9389.3	
488.02	10612	
488.22	8301.1	
488.42	8991.3	
488.62	10293	
488.82	9231.6	
489.02	7808.9	
489.22	7917.4	
489.41	10101	
489.61	9782.5	
489.81	7640.3	
490.01	7680.6	
490.21	10054	
490.41	10828	
490.61	7501	
490.8	7710.6	
491	9486.9	
491.2	8755.7	
491.4	8290.2	
491.6	7405.5	
491.8	9480	
491.99	9788.6	
492.19	7298.3	
492.39	7680.6	
492.59	10195	
492.79	10174	
492.99	8617.2	
493.18	7660.1	
493.38	10313	
493.58	11249	
493.78	8557.1	
493.98	8088.8	
494.18	10005	
494.37	9460.3	
494.57	8777.6	
494.77	8609	
494.97	10337	
495.17	10557	
495.37	8183	
495.56	8524.3	
495.76	10778	
495.96	10445	
496.16	9544.2	
496.36	8340.7	
496.55	10584	
496.75	10150	
496.95	8832.9	
497.15	8670.4	
497.35	10580	
497.54	10591	
497.74	8470.4	
497.94	10292	
498.14	11273	
498.34	11120	
498.53	8119.5	
498.73	9068.4	
498.93	9977	
499.13	10711	
499.33	8877.9	
499.52	9371.5	
499.72	10587	
499.92	10837	
500.12	8502.5	
500.32	8746.9	
500.51	10781	
500.71	10643	
500.91	9779.1	
501.11	9160.6	
501.31	10771	
501.5	11235	
501.7	9878	
501.9	8754.4	
502.1	10610	
502.29	10780	
502.49	9321	
502.69	9725.1	
502.89	10633	
503.09	10754	
503.28	8085.4	
503.48	8300.4	
503.68	9925.8	
503.88	9921.7	
504.07	9360.6	
504.27	8765.3	
504.47	10241	
504.67	10443	
504.86	9291	
505.06	8865	
505.26	9837.1	
505.46	11809	
505.65	8757.8	
505.85	8904.6	
506.05	9861	
506.25	10343	
506.44	7945.4	
506.64	9090.9	
506.84	9721	
507.04	10611	
507.23	8238.3	
507.43	8845.2	
507.63	11858	
507.83	9940.2	
508.02	8691.6	
508.22	8350.9	
508.42	11986	
508.62	9684.2	
508.81	8607.6	
509.01	9339.4	
509.21	9549.7	
509.4	9830.9	
509.6	8929.8	
509.8	8128.4	
510	9743.6	
510.19	11459	
510.39	8176.2	
510.59	8251.3	
510.79	9707.4	
510.98	11256	
511.18	8292.2	
511.38	8434.9	
511.57	10450	
511.77	10330	
511.97	9130.5	
512.17	8079.2	
512.36	10523	
512.56	10428	
512.76	8086.1	
512.95	7881.9	
513.15	10601	
513.35	9129.8	
513.55	9179.7	
513.74	8179.6	
513.94	10498	
514.14	9828.9	
514.33	9200.2	
514.53	8828.1	
514.73	9850	
514.92	10148	
515.12	8432.9	
515.32	8198	
515.51	10262	
515.71	10830	
515.91	10109	
516.11	8292.9	
516.3	12035	
516.5	9671.9	
516.7	8811	
516.89	9534	
517.09	9925.1	
517.29	9832.3	
517.48	9172.9	
517.68	8580.3	
517.88	9502.6	
518.07	10187	
518.27	9097.8	
518.47	8034.9	
518.66	10858	
518.86	9460.3	
519.06	7864.2	
519.25	8275.8	
519.45	9799.5	
519.65	11356	
519.84	9077.3	
520.04	9771.5	
520.24	11622	
520.43	10423	
520.63	8705.9	
520.83	8404.9	
521.02	9597.5	
521.22	10223	
521.42	8949.6	
521.61	9608.4	
521.81	9803.6	
522.01	10053	
522.2	8942.1	
522.4	8538.7	
522.6	10615	
522.79	9304.6	
522.99	8701.1	
523.18	8058.8	
523.38	10294	
523.58	10381	
523.77	10105	
523.97	8028	
524.17	12299	
524.36	11495	
524.56	9499.2	
524.76	9178.3	
524.95	10402	
525.15	9950.4	
525.34	8895	
525.54	8936	
525.74	10686	
525.93	9657.5	
526.13	10172	
526.33	8923.7	
526.52	11103	
526.72	10512	
526.91	10351	
527.11	9474.6	
527.31	11183	
527.5	11688	
527.7	9370.1	
527.89	8258.8	
528.09	9987.3	
528.29	10697	
528.48	9773.6	
528.68	9370.8	
528.87	11022	
529.07	10949	
529.27	9204.3	
529.46	8692.9	
529.66	10494	
529.85	11046	
530.05	8471.8	
530.25	9403.6	
530.44	12017	
530.64	10492	
530.83	8916.9	
531.03	9278	
531.23	11056	
531.42	10957	
531.62	10078	
531.81	9228.1	
532.01	11246	
532.21	11780	
532.4	8949.6	
532.6	9432.9	
532.79	12172	
532.99	11322	
533.18	9489.6	
533.38	10490	
533.58	10785	
533.77	11647	
533.97	9418.6	
534.16	10240	
534.36	11736	
534.55	10835	
534.75	10381	
534.95	9443.2	
535.14	11622	
535.34	10722	
535.53	8999.5	
535.73	11210	
535.92	12177	
536.12	10979	
536.31	9100.5	
536.51	10464	
536.71	11302	
536.9	10832	
537.1	9298.5	
537.29	9480.7	
537.49	11846	
537.68	10735	
537.88	10059	
538.07	9011.7	
538.27	10996	
538.46	12019	
538.66	8903.2	
538.86	9385.8	
539.05	10944	
539.25	11501	
539.44	9619.3	
539.64	9193.3	
539.83	10771	
540.03	11914	
540.22	9091.6	
540.42	9187.2	
540.61	11050	
540.81	11183	
541	9731.3	
541.2	10503	
541.39	10443	
541.59	11102	
541.78	10057	
541.98	9101.2	
542.18	10161	
542.37	10176	
542.57	9445.2	
542.76	10030	
542.96	10066	
543.15	11024	
543.35	9451.4	
543.54	8736.6	
543.74	11316	
543.93	10720	
544.13	9366	
544.32	10631	
544.52	11015	
544.71	10174	
544.91	8427.4	
545.1	9769.5	
545.3	10232	
545.49	11087	
545.69	8340.7	
545.88	9007	
546.08	11944	
546.27	11642	
546.47	9549.7	
546.66	8793.3	
546.86	11250	
547.05	11897	
547.24	9041.1	
547.44	8881.4	
547.63	10064	
547.83	11392	
548.02	9329.2	
548.22	9511.4	
548.41	9856.9	
548.61	11409	
548.8	8776.9	
549	8637	
549.19	10537	
549.39	10836	
549.58	8400.8	
549.78	9013.1	
549.97	11017	
550.17	10307	
550.36	9922.4	
550.55	11036	
550.75	10400	
550.94	11376	
551.14	8581	
551.33	8981	
551.53	9817.3	
551.72	10835	
551.92	9204.3	
552.11	8710.7	
552.31	10808	
552.5	10922	
552.69	10537	
552.89	8396.7	
553.08	10694	
553.28	10449	
553.47	8789.9	
553.67	10096	
553.86	11367	
554.06	9691	
554.25	7954.3	
554.44	8477.9	
554.64	12174	
554.83	11706	
555.03	8576.9	
555.22	8890.9	
555.42	10931	
555.61	10560	
555.8	8731.2	
556	9000.8	
556.19	9638.4	
556.39	10978	
556.58	8727.1	
556.78	8776.2	
556.97	10488	
557.16	10256	
557.36	10066	
557.55	8441.7	
557.75	9364	
557.94	11424	
558.13	8492.9	
558.33	8220.5	
558.52	11033	
558.72	9794.8	
558.91	8264.2	
559.1	8718.9	
559.3	9483.5	
559.49	9230.9	
559.69	7798.7	
559.88	8968.7	
560.07	10398	
560.27	10793	
560.46	9106	
560.66	9276.6	
560.85	10105	
561.04	9331.9	
561.24	8320.9	
561.43	8525	
561.63	9510.8	
561.82	9828.9	
562.01	9970.9	
562.21	8816.5	
562.4	10337	
562.59	11463	
562.79	8634.9	
562.98	8336.6	
563.18	10234	
563.37	11911	
563.56	9157.2	
563.76	8147.5	
563.95	9691	
564.14	9641.2	
564.34	8640.4	
564.53	8372.1	
564.73	10192	
564.92	10703	
565.11	8809.7	
565.31	8126.3	
565.5	10941	
565.69	9729.2	
565.89	8379.6	
566.08	8682	
566.27	10698	
566.47	11114	
566.66	9283.4	
566.85	7839.6	
567.05	10231	
567.24	9640.5	
567.44	8213.7	
567.63	9711.5	
567.82	10503	
568.02	10242	
568.21	8256.7	
568.4	8654.7	
568.6	10104	
568.79	10109	
568.98	8011.7	
569.18	8274.5	
569.37	10060	
569.56	12147	
569.76	8656.1	
569.95	9719.7	
570.14	10484	
570.34	10311	
570.53	7998	
570.72	8060.1	
570.91	10952	
571.11	9886.9	
571.3	8508.6	
571.49	9482.8	
571.69	9948.3	
571.88	9600.9	
572.07	9104.6	
572.27	9071.1	
572.46	9591.3	
572.65	10802	
572.85	8299.7	
573.04	8633.6	
573.23	10996	
573.43	10113	
573.62	7926.3	
573.81	8817.2	
574	10275	
574.2	9930.6	
574.39	8436.9	
574.58	8630.1	
574.78	11028	
574.97	10271	
575.16	9007.6	
575.36	9343.5	
575.55	10648	
575.74	10796	
575.93	8037.6	
576.13	9193.3	
576.32	10034	
576.51	10606	
576.71	8602.2	
576.9	10564	
577.09	10921	
577.28	10367	
577.48	9059.5	
577.67	7975.5	
577.86	10111	
578.05	10438	
578.25	8587.1	
578.44	8746.9	
578.63	10239	
578.83	11540	
579.02	7907.9	
579.21	9783.1	
579.4	10444	
579.6	10037	
579.79	8923	
579.98	11243	
580.17	10918	
580.37	10866	
580.56	8246.5	
580.75	9161.9	
580.94	11445	
581.14	11144	
581.33	9658.2	
581.52	8510	
581.71	10711	
581.91	11423	
582.1	8168.7	
582.29	8828.8	
582.48	10336	
582.68	10311	
582.87	9419.3	
583.06	8931.9	
583.25	10701	
583.45	10064	
583.64	9704.6	
583.83	10331	
584.02	10095	
584.21	10629	
584.41	9683.5	
584.6	8843.8	
584.79	10356	
584.98	11248	
585.18	8427.4	
585.37	8299.7	
585.56	9821.4	
585.75	10693	
585.94	8461.5	
586.14	9278	
586.33	11327	
586.52	10250	
586.71	9025.4	
586.91	8705.9	
587.1	9609.1	
587.29	10610	
587.48	8697.7	
587.67	8458.8	
587.87	10574	
588.06	10628	
588.25	9992.7	
588.44	9105.3	
588.63	10111	
588.83	10743	
589.02	8424	
589.21	8248.5	
589.4	9764	
589.59	9468.4	
589.78	7364.5	
589.98	7663.5	
590.17	9035.6	
590.36	9660.3	
590.55	6981.5	
590.74	7901.1	
590.94	11154	
591.13	9527.2	
591.32	7607.5	
591.51	7110.5	
591.7	10165	
591.89	9450.7	
592.09	7256	
592.28	7849.2	
592.47	8727.8	
592.66	10769	
592.85	7205.4	
593.05	7560.4	
593.24	9316.2	
593.43	10226	
593.62	7531.7	
593.81	8215.8	
594	9364	
594.19	9650	
594.39	7481.2	
594.58	7515.4	
594.77	9715.6	
594.96	10434	
595.15	7469.6	
595.34	8131.8	
595.54	9802.3	
595.73	8748.2	
595.92	6719.4	
596.11	8035.5	
596.3	10318	
596.49	9040.4	
596.68	7791.8	
596.88	8267.6	
597.07	9970.2	
597.26	8715.5	
597.45	7215	
597.64	8493.6	
597.83	8986.5	
598.02	9717.6	
598.22	7302.4	
598.41	8102.4	
598.6	9468.4	
598.79	8847.9	
598.98	7339.2	
599.17	8434.2	
599.36	9521.7	
599.55	10791	
599.74	9729.9	
599.94	9394.7	
600.13	10195	
600.32	8845.9	
600.51	7215.7	
600.7	7280.5	
600.89	10841	
601.08	10834	
601.27	7115.3	
601.47	8274.5	
601.66	10082	
601.85	10817	
602.04	7787.7	
602.23	8079.2	
602.42	9016.5	
602.61	9720.3	
602.8	7798	
602.99	7585.7	
603.18	9420.7	
603.37	9669.8	
603.57	8305.9	
603.76	8858.8	
603.95	10488	
604.14	10050	
604.33	7559.1	
604.52	7890.8	
604.71	9717.6	
604.9	9260.2	
605.09	8488.8	
605.28	8450.6	
605.47	10202	
605.66	9979.1	
605.86	8204.2	
606.05	7641	
606.24	10272	
606.43	8803.5	
606.62	8041	
606.81	8811.7	
607	10119	
607.19	9359.2	
607.38	7346.1	
607.57	7675.8	
607.76	9199.5	
607.95	8583.7	
608.14	8028.7	
608.33	8715.5	
608.52	9244.5	
608.72	10082	
608.91	7259.4	
609.1	7063.4	
609.29	9239.1	
609.48	8708	
609.67	8255.4	
609.86	7194.5	
610.05	8800.8	
610.24	9198.8	
610.43	7068.2	
610.62	6605.4	
610.81	10420	
611	10098	
611.19	7201.3	
611.38	8010.3	
611.57	9463	
611.76	10928	
611.95	6946.7	
612.14	6836.8	
612.33	9235	
612.52	8738.7	
612.71	7593.9	
612.9	6697.5	
613.09	8341.4	
613.28	10819	
613.47	7157	
613.66	8350.3	
613.85	9372.9	
614.04	8955.8	
614.24	7432.1	
614.43	6450.4	
614.62	9510.1	
614.81	9447.3	
615	7989.8	
615.19	8001.4	
615.38	8678.6	
615.57	9073.2	
615.76	7819.1	
615.95	8888.2	
616.14	9581.8	
616.33	9250	
616.52	8247.9	
616.71	8507.3	
616.9	9527.8	
617.09	9312.8	
617.28	7576.1	
617.47	8843.8	
617.66	8571.4	
617.85	8679.3	
618.04	8559.1	
618.22	7889.5	
618.41	8927.8	
618.6	9931.3	
618.79	7755	
618.98	7518.1	
619.17	10328	
619.36	8492.2	
619.55	7600.7	
619.74	7686.7	
619.93	9543.5	
620.12	8868.4	
620.31	8258.8	
620.5	8487.5	
620.69	10553	
620.88	10665	
621.07	9252.7	
621.26	8190.5	
621.45	9682.1	
621.64	9759.3	
621.83	8348.9	
622.02	7338.6	
622.21	9710.1	
622.4	9557.2	
622.59	8905.3	
622.78	8561.9	
622.97	9070.5	
623.16	10097	
623.35	8201.4	
623.54	7245.7	
623.72	9239.1	
623.91	9442.5	
624.1	8494.3	
624.29	7084.6	
624.48	10713	
624.67	9738.1	
624.86	8384.4	
625.05	7333.1	
625.24	10725	
625.43	8879.3	
625.62	10120	
625.81	7620.5	
626	10118	
626.19	9297.1	
626.38	8463.6	
626.56	7724.9	
626.75	9060.2	
626.94	9875.3	
627.13	8290.2	
627.32	6977.4	
627.51	9699.2	
627.7	11309	
627.89	7119.4	
628.08	8264.9	
628.27	8695	
628.46	9075.2	
628.65	7410.2	
628.83	7001.3	
629.02	9686.2	
629.21	8944.8	
629.4	7851.9	
629.59	8057.4	
629.78	8889.5	
629.97	9895.8	
630.16	8150.2	
630.35	7555	
630.54	10323	
630.72	10133	
630.91	7559.7	
631.1	8163.9	
631.29	9466.4	
631.48	9597.5	
631.67	8215.8	
631.86	7644.4	
632.05	8994.7	
632.24	9149.6	
632.42	7357.7	
632.61	7847.1	
632.8	9259.5	
632.99	8912.8	
633.18	7971.4	
633.37	8492.2	
633.56	9543.5	
633.75	9364	
633.93	8033.5	
634.12	7643	
634.31	10388	
634.5	10030	
634.69	7667.6	
634.88	8203.5	
635.07	9309.4	
635.25	9854.1	
635.44	8669.7	
635.63	8902.5	
635.82	9155.8	
636.01	8578.9	
636.2	8613.1	
636.39	8107.2	
636.57	10250	
636.76	10014	
636.95	7397.3	
637.14	8993.3	
637.33	9593.4	
637.52	10656	
637.7	7251.2	
637.89	8282	
638.08	9155.8	
638.27	10686	
638.46	8284	
638.65	8989.2	
638.83	10754	
639.02	8926.4	
639.21	8299.1	
639.4	8787.8	
639.59	9523.7	
639.78	8994	
639.96	7460.8	
640.15	7441.6	
640.34	9331.2	
640.53	9506.7	
640.72	7162.4	
640.91	7463.5	
641.09	8656.8	
641.28	10130	
641.47	7530.4	
641.66	8464.3	
641.85	9424.1	
642.03	9730.6	
642.22	8101.1	
642.41	7655.3	
642.6	8812.4	
642.79	8140.7	
642.97	7370.6	
643.16	8219.9	
643.35	8775.5	
643.54	8492.2	
643.73	7258	
643.91	8096.3	
644.1	8297.7	
644.29	9025.4	
644.48	7289.4	
644.67	7279.8	
644.85	8580.3	
645.04	8809.7	
645.23	6810.2	
645.42	7137.2	
645.6	8226	
645.79	9549	
645.98	7118.7	
646.17	6055.2	
646.36	8002.1	
646.54	8709.3	
646.73	7873.8	
646.92	6608.1	
647.11	8251.9	
647.29	9336	
647.48	6662.7	
647.67	6373.3	
647.86	9566.1	
648.05	9637.7	
648.23	7027.3	
648.42	8442.4	
648.61	8961.9	
648.8	8668.4	
648.98	6686.6	
649.17	7047.1	
649.36	8193.9	
649.55	7673.7	
649.73	6659.3	
649.92	7555.6	
650.11	8167.3	
650.3	8518.9	
650.48	6851.1	
650.67	6535.1	
650.86	8744.8	
651.05	7609.6	
651.23	6854.6	
651.42	6769.2	
651.61	8107.2	
651.79	8368	
651.98	7036.8	
652.17	6615.6	
652.36	8639	
652.54	7742	
652.73	6617.7	
652.92	6378.1	
653.11	8748.2	
653.29	8710	
653.48	5889.3	
653.67	6949.4	
653.85	8346.2	
654.04	9548.3	
654.23	7125.6	
654.42	6606.1	
654.6	7800	
654.79	8516.1	
654.98	6072.9	
655.16	6614.9	
655.35	7458.7	
655.54	7407.5	
655.73	6187.6	
655.91	6124.8	
656.1	8751.7	
656.29	7336.5	
656.47	5645.6	
656.66	7582.9	
656.85	7746.1	
657.03	7810.3	
657.22	6341.2	
657.41	6374.6	
657.59	7888.8	
657.78	7645.8	
657.97	5934.3	
658.16	6783.6	
658.34	8589.2	
658.53	8981.7	
658.72	7781.6	
658.9	8295	
659.09	7929.1	
659.28	8102.4	
659.46	6540.5	
659.65	6410.8	
659.84	7812.3	
660.02	8275.2	
660.21	6335.7	
660.4	6318	
660.58	8735.3	
660.77	8103.8	
660.96	6982.2	
661.14	5914.5	
661.33	9361.3	
661.52	9164	
661.7	5848.3	
661.89	9910.1	
662.08	7649.8	
662.26	7228.6	
662.45	6226.5	
662.64	6260.6	
662.82	8419.9	
663.01	7507.9	
663.2	6239.5	
663.38	7155.6	
663.57	8401.5	
663.75	8153	
663.94	6651.1	
664.13	8112	
664.31	7575.4	
664.5	8376.9	
664.69	7107.8	
664.87	7522.9	
665.06	7397.9	
665.25	8174.1	
665.43	7736.5	
665.62	7856.7	
665.8	8482	
665.99	7762.5	
666.18	6611.5	
666.36	6862.1	
666.55	8465.6	
666.74	8414.4	
666.92	6191	
667.11	8013.7	
667.29	7793.2	
667.48	8455.4	
667.67	7599.3	
667.85	6670.9	
668.04	7889.5	
668.22	7869.7	
668.41	6721.4	
668.6	6790.4	
668.78	7664.9	
668.97	7811.6	
669.15	7086.7	
669.34	5939.8	
669.53	7527.7	
669.71	7914	
669.9	6186.2	
670.08	6917.4	
670.27	7684.7	
670.46	8216.5	
670.64	7023.2	
670.83	7419.1	
671.01	7458	
671.2	8122.9	
671.38	6214.9	
671.57	6115.2	
671.76	8770.8	
671.94	9480	
672.13	6060.6	
672.31	7200	
672.5	8368	
672.69	7667.6	
672.87	6194.4	
673.06	6504.3	
673.24	8151.6	
673.43	7653.9	
673.61	7069.6	
673.8	6438.1	
673.98	8361.2	
674.17	8576.2	
674.36	7221.8	
674.54	6982.2	
674.73	8183	
674.91	8381.7	
675.1	6738.5	
675.28	6257.9	
675.47	7906.5	
675.65	8520.9	
675.84	6503	
676.03	6881.2	
676.21	7621.9	
676.4	7120.8	
676.58	7361.8	
676.77	7146.7	
676.95	9187.9	
677.14	7585.7	
677.32	6129.6	
677.51	5975.3	
677.69	8415.1	
677.88	7139.9	
678.06	6069.5	
678.25	6120	
678.44	7924.3	
678.62	7574.8	
678.81	5866.1	
678.99	6926.9	
679.18	8802.2	
679.36	8310.7	
679.55	6417	
679.73	7167.9	
679.92	8137.3	
680.1	7533.8	
680.29	7820.5	
680.47	6471.6	
680.66	7529	
680.84	8429.4	
681.03	5774.6	
681.21	6885.3	
681.4	7613	
681.58	7389.8	
681.77	6195.8	
681.95	6058.6	
682.14	8473.8	
682.32	8800.1	
682.51	7169.9	
682.69	5821.7	
682.88	7425.3	
683.06	8146.1	
683.25	6791.7	
683.43	7282.6	
683.62	7648.5	
683.8	8160.5	
683.99	7202	
684.17	6524.8	
684.36	9046.6	
684.54	7489.4	
684.73	5577.3	
684.91	5754.1	
685.1	7791.8	
685.28	7104.4	
685.46	6419	
685.65	6463.4	
685.83	7976.2	
686.02	7306.5	
686.2	5806	
686.39	5945.3	
686.57	7024.5	
686.76	8797.4	
686.94	5896.1	
687.13	6064	
687.31	7977.5	
687.5	7400	
687.68	5446.9	
687.86	6853.9	
688.05	9187.9	
688.23	6905.8	
688.42	6921.5	
688.6	6036.7	
688.79	7318.8	
688.97	7258	
689.16	6436.1	
689.34	5267.4	
689.52	8124.3	
689.71	8343.4	
689.89	6746.7	
690.08	5924.8	
690.26	7547.4	
690.45	7437.5	
690.63	6760.3	
690.81	6152.8	
691	7256	
691.18	7213.6	
691.37	6197.8	
691.55	8617.2	
691.74	7193.1	
691.92	9391.3	
692.1	6222.4	
692.29	5655.1	
692.47	7400.7	
692.66	6599.2	
692.84	5849.7	
693.02	6574	
693.21	6781.5	
693.39	7322.9	
693.58	6601.3	
693.76	6008.1	
693.94	8587.1	
694.13	8434.9	
694.31	5870.2	
694.5	7109.2	
694.68	7206.1	
694.86	7562.5	
695.05	6348	
695.23	6494.8	
695.42	7970	
695.6	10489	
695.78	7062.8	
695.97	5982.1	
696.15	7945.4	
696.34	7334.5	
696.52	5784.1	
696.7	6722.8	
696.89	7651.2	
697.07	7064.1	
697.25	6580.1	
697.44	8292.2	
697.62	7554.3	
697.81	8023.3	
697.99	6197.2	
698.17	6716.7	
698.36	6808.1	
698.54	7699.7	
698.72	6538.5	
698.91	5520	
699.09	7213.6	
699.28	7040.9	
699.46	6172.6	
699.64	6039.5	
699.83	7017.7	
700.01	8380.3	
700.19	6873.7	
700.38	5257.8	
700.56	8402.8	
700.74	7100.3	
700.93	5711.1	
701.11	6541.9	
701.29	7736.5	
701.48	8817.9	
701.66	5851	
701.84	5933.6	
702.03	7270.3	
702.21	7948.8	
702.39	5400.5	
702.58	6047	
702.76	7663.5	
702.94	7781.6	
703.13	5502.9	
703.31	8140	
703.49	6895.5	
703.68	7989.8	
703.86	5650.3	
704.04	6722.1	
704.23	7443	
704.41	7881.3	
704.59	5892.7	
704.78	7189.1	
704.96	8670.4	
705.14	8032.8	
705.33	5491.3	
705.51	6503.7	
705.69	7383.6	
705.87	8211.7	
706.06	6834.8	
706.24	5553.4	
706.42	7574.1	
706.61	7892.2	
706.79	6825.9	
706.97	5500.8	
707.16	6990.4	
707.34	7711.3	
707.52	6848.4	
707.7	5853.8	
707.89	7226.6	
708.07	6938.5	
708.25	6737.1	
708.44	6887.3	
708.62	7150.1	
708.8	8331.1	
708.98	7034.8	
709.17	5972.6	
709.35	7535.8	
709.53	7638.2	
709.72	5556.1	
709.9	5752.7	
710.08	7727.7	
710.26	7880.6	
710.45	7346.7	
710.63	5922.7	
710.81	7492.2	
710.99	7451.9	
711.18	6646.3	
711.36	5982.1	
711.54	7281.2	
711.72	8004.1	
711.91	6036	
712.09	5512.4	
712.27	7438.2	
712.45	8089.5	
712.64	6385.6	
712.82	5210.7	
713	6761.7	
713.18	6954.9	
713.37	5311.1	
713.55	6689.3	
713.73	7821.2	
713.91	6327.5	
714.1	5696.1	
714.28	5045.5	
714.46	7486.7	
714.64	6520	
714.83	4513.7	
715.01	5479	
715.19	6664.8	
715.37	6095.4	
715.55	5101.5	
715.74	5453.7	
715.92	7679.2	
716.1	5477.6	
716.28	6671.6	
716.47	5677	
716.65	6216.3	
716.83	6346	
717.01	5476.3	
717.19	5634	
717.38	8681.3	
717.56	5993.7	
717.74	5784.8	
717.92	4831.8	
718.1	7402	
718.29	6580.8	
718.47	4452.3	
718.65	5239.4	
718.83	7247.8	
719.01	7226.6	
719.2	4293.2	
719.38	5545.2	
719.56	6903	
719.74	8503.8	
719.92	4942.4	
720.11	6204	
720.29	6810.2	
720.47	5850.4	
720.65	4498.7	
720.83	5457.8	
721.02	6262.7	
721.2	5969.8	
721.38	5577.3	
721.56	4719.9	
721.74	5487.2	
721.92	5754.1	
722.11	6119.3	
722.29	5743.9	
722.47	7050.5	
722.65	6128.2	
722.83	4715.1	
723.01	5790.3	
723.2	6290	
723.38	6565.1	
723.56	4100	
723.74	5391.6	
723.92	5751.4	
724.1	7000	
724.29	4665.3	
724.47	5963.7	
724.65	5762.3	
724.83	5789.6	
725.01	4506.9	
725.19	5545.9	
725.37	5799.8	
725.56	5887.9	
725.74	4345.1	
725.92	4698	
726.1	5710.4	
726.28	6092	
726.46	5191.6	
726.64	4810	
726.83	6016.2	
727.01	6354.8	
727.19	4358.8	
727.37	5320.6	
727.55	6192.4	
727.73	6736.5	
727.91	4360.8	
728.09	4169	
728.28	6834.8	
728.46	7408.2	
728.64	5522.7	
728.82	5383.4	
729	8011	
729.18	7249.1	
729.36	4572.4	
729.54	7157.7	
729.72	8275.8	
729.91	6425.2	
730.09	6648.4	
730.27	5324	
730.45	6234.7	
730.63	7085.3	
730.81	5976	
730.99	4889.2	
731.17	7518.1	
731.35	6011.5	
731.53	5566.4	
731.71	5008	
731.9	7198.6	
732.08	7520.8	
732.26	5318.6	
732.44	4992.9	
732.62	7490.8	
732.8	6969.9	
732.98	5799.8	
733.16	4766.3	
733.34	6920.1	
733.52	5636	
733.7	5354.8	
733.88	5676.3	
734.07	6807.4	
734.25	6514.6	
734.43	4761.5	
734.61	6468.2	
734.79	8129.1	
734.97	6361.7	
735.15	4872.8	
735.33	5332.2	
735.51	6822.5	
735.69	6446.3	
735.87	7006.1	
736.05	5512.4	
736.23	6665.5	
736.41	6407.4	
736.59	5369.8	
736.77	5470.1	
736.95	7114.6	
737.13	6555.5	
737.32	4973.8	
737.5	5252.4	
737.68	7690.8	
737.86	6305	
738.04	4732.2	
738.22	6851.8	
738.4	6133.7	
738.58	6490.7	
738.76	5517.9	
738.94	4333.5	
739.12	6359.6	
739.3	6214.9	
739.48	6174.6	
739.66	5849	
739.84	6645	
740.02	6610.8	
740.2	4423.6	
740.38	4879.6	
740.56	7079.8	
740.74	5838.8	
740.92	5588.2	
741.1	5464.7	
741.28	6411.5	
741.46	6287.9	
741.64	5108.3	
741.82	5635.3	
742	6492.1	
742.18	6502.3	
742.36	5337.7	
742.54	4888.5	
742.72	7048.4	
742.9	5709.1	
743.08	5771.9	
743.26	4411.3	
743.44	7290.1	
743.62	7197.9	
743.8	5956.9	
743.98	4874.8	
744.16	6806.1	
744.34	6455.9	
744.52	5814.2	
744.7	5698.8	
744.88	6963.8	
745.06	6493.4	
745.24	5866.7	
745.42	6008.7	
745.6	7099.6	
745.78	6748.7	
745.96	4594.3	
746.14	4924.7	
746.32	7886	
746.5	7204.8	
746.68	5602.6	
746.86	4952	
747.03	7588.4	
747.21	5760.3	
747.39	5524.7	
747.57	4969.1	
747.75	6701.6	
747.93	7140.6	
748.11	4982.7	
748.29	4870.1	
748.47	8357.1	
748.65	6367.8	
748.83	5808	
749.01	5489.9	
749.19	6895.5	
749.37	5968.5	
749.55	5345.9	
749.73	5446.2	
749.91	6515.3	
750.09	6231.3	
750.26	5466	
750.44	4786.8	
750.62	6561.7	
750.8	6571.9	
750.98	4655	
751.16	5063.9	
751.34	6593.8	
751.52	5928.9	
751.7	5930.2	
751.88	4624.3	
752.06	7161.1	
752.24	7043	
752.42	4625	
752.59	4933.6	
752.77	6492.7	
752.95	7970	
753.13	5785.5	
753.31	5096.7	
753.49	6171.9	
753.67	6675	
753.85	5472.2	
754.03	5041.4	
754.21	6929	
754.38	7364.5	
754.56	5196.4	
754.74	4213.4	
754.92	6186.2	
755.1	6933.7	
755.28	4144.4	
755.46	4080.2	
755.64	7699.7	
755.82	7810.3	
755.99	4369	
756.17	4532.8	
756.35	5033.2	
756.53	6709.8	
756.71	3276.1	
756.89	4334.9	
757.07	6344.6	
757.25	5343.2	
757.42	4914.4	
757.6	5902.2	
757.78	6389.7	
757.96	5275.6	
758.14	4638.6	
758.32	4104.1	
758.5	4762.2	
758.67	5685.8	
758.85	4502.8	
759.03	4519.9	
759.21	5878.4	
759.39	5239.4	
759.57	3947.1	
759.75	5268.1	
759.92	6630	
760.1	5750.7	
760.28	5612.1	
760.46	5906.3	
760.64	5586.2	
760.82	5227.8	
760.99	5401.2	
761.17	4581.3	
761.35	6507.1	
761.53	5459.2	
761.71	4743.8	
761.89	5511.8	
762.06	6419	
762.24	5886.5	
762.42	4843.4	
762.6	4651.6	
762.78	5877	
762.96	6624.5	
763.13	5288.5	
763.31	4929.5	
763.49	6811.5	
763.67	5854.5	
763.85	5874.3	
764.02	6534.4	
764.2	7098.9	
764.38	6269.5	
764.56	4828.4	
764.74	5702.9	
764.91	7226.6	
765.09	6077	
765.27	4477.5	
765.45	4235.9	
765.63	7237.5	
765.8	7149.5	
765.98	3928.7	
766.16	4358.1	
766.34	5526.1	
766.52	5365	
766.69	5358.2	
766.87	4158.1	
767.05	5991	
767.23	6819.7	
767.41	4502.8	
767.58	4780	
767.76	6604	
767.94	6711.9	
768.12	4601.8	
768.29	5407.3	
768.47	6161	
768.65	6916	
768.83	4163.5	
769	5494.7	
769.18	5616.9	
769.36	6357.6	
769.54	5197.7	
769.72	4209.3	
769.89	6653.9	
770.07	6894.8	
770.25	4601.8	
770.43	6044.2	
770.6	7503.8	
770.78	8021.9	
770.96	4814.1	
771.14	5480.4	
771.31	6581.5	
771.49	5840.8	
771.67	3911.6	
771.85	4217.5	
772.02	5060.5	
772.2	5958.2	
772.38	5065.3	
772.55	4440	
772.73	6213.5	
772.91	5968.5	
773.09	4801.8	
773.26	4983.4	
773.44	6070.2	
773.62	5827.8	
773.8	4256.4	
773.97	4027	
774.15	6196.5	
774.33	5760.3	
774.5	4205.8	
774.68	4602.5	
774.86	6327.5	
775.04	5818.3	
775.21	4258.4	
775.39	4292.5	
775.57	6129.6	
775.74	6580.8	
775.92	4100	
776.1	4062.5	
776.27	6053.1	
776.45	7473.7	
776.63	4286.4	
776.81	3775.1	
776.98	5680.4	
777.16	6886	
777.34	4464.6	
777.51	4762.9	
777.69	5702.9	
777.87	5464.7	
778.04	4437.3	
778.22	5207.3	
778.4	5502.9	
778.57	6212.9	
778.75	3620.8	
778.93	4035.9	
779.1	5205.9	
779.28	5058.5	
779.46	3693.9	
779.64	4231.8	
779.81	6392.4	
779.99	7372.7	
780.17	5156.1	
780.34	5287.9	
780.52	5751.4	
780.69	6007.4	
780.87	4567.7	
781.05	4104.8	
781.22	5786.2	
781.4	5862.7	
781.58	4274.1	
781.75	3395.5	
781.93	5874.3	
782.11	5233.9	
782.28	5207.3	
782.46	4289.8	
782.64	5030.5	
782.81	6008.7	
782.99	4367.6	
783.17	4292.5	
783.34	5917.3	
783.52	5102.9	
783.69	4529.4	
783.87	5444.9	
784.05	5156.8	
784.22	5197.1	
784.4	5424.4	
784.58	4644.1	
784.75	6139.1	
784.93	5241.4	
785.1	4288.4	
785.28	4883	
785.46	5920.7	
785.63	5261.2	
785.81	4151.2	
785.99	4001.7	
786.16	5264	
786.34	5743.2	
786.51	4085.7	
786.69	4539	
786.87	4907.6	
787.04	5523.4	
787.22	3558.7	
787.39	5015.5	
787.57	5134.9	
787.75	6322.8	
787.92	5120.6	
788.1	4883	
788.27	5246.9	
788.45	5033.2	
788.63	4812	
788.8	3435.8	
788.98	5633.3	
789.15	4861.2	
789.33	3570.3	
789.5	4232.5	
789.68	6180.8	
789.86	6336.4	
790.03	4582.7	
790.21	4120.5	
790.38	6119.3	
790.56	5275.6	
790.73	3938.2	
790.91	4027	
791.09	5242.8	
791.26	6086.6	
791.44	4158.7	
791.61	3616	
791.79	5150.6	
791.96	5313.8	
792.14	3723.9	
792.32	3318.4	
792.49	5172.5	
792.67	5309	
792.84	3804.4	
793.02	3625.6	
793.19	5674.2	
793.37	6483.9	
793.54	3397.6	
793.72	3717.7	
793.89	6716.7	
794.07	5210.7	
794.25	4408.6	
794.42	3431	
794.6	6352.1	
794.77	5940.5	
794.95	4667.3	
795.12	4085.7	
795.3	5193	
795.47	5924.8	
795.65	4503.5	
795.82	4308.2	
796	4980	
796.17	7064.8	
796.35	4157.4	
796.52	4908.3	
796.7	5782.1	
796.87	5911.8	
797.05	5178.6	
797.22	5123.3	
797.4	5899.5	
797.57	6946	
797.75	4300.1	
797.92	3960.1	
798.1	6217	
798.27	5184.8	
798.45	3418.1	
798.62	3697.3	
798.8	5521.3	
798.97	6118	
799.15	4513.7	
799.32	4311.7	
799.5	4728.1	
799.67	5619.6	
799.85	4673.5	
800.02	3316.3	
800.2	5133.6	
800.37	5569.8	
800.55	4896	
800.72	4040	
800.9	6023.8	
801.07	6535.8	
801.25	5456.5	
801.42	4426.3	
801.6	6071.5	
801.77	5745.2	
801.95	3968.3	
802.12	3852.2	
802.29	5760.9	
802.47	5715.2	
802.64	4387.4	
802.82	3297.9	
802.99	5106.3	
803.17	6255.2	
803.34	4272.7	
803.52	3833.1	
803.69	6897.6	
803.87	4917.9	
804.04	4175.8	
804.21	4369	
804.39	6356.9	
804.56	5393.7	
804.74	3630.4	
804.91	4549.9	
805.09	5163.6	
805.26	5264.6	
805.44	3666.5	
805.61	4065.2	
805.78	5890	
805.96	5937.1	
806.13	4481.6	
806.31	4795.7	
806.48	4672.1	
806.66	5265.3	
806.83	4460.5	
807	4395.6	
807.18	5163.6	
807.35	5573.2	
807.53	4313	
807.7	3394.2	
807.87	6382.8	
808.05	5242.8	
808.22	4785.4	
808.4	3410.6	
808.57	5237.3	
808.74	4853	
808.92	3891.1	
809.09	5091.3	
809.27	5101.5	
809.44	5769.1	
809.61	3491.1	
809.79	3874.1	
809.96	6374.6	
810.14	6039.5	
810.31	3362.8	
810.48	4138.9	
810.66	5366.4	
810.83	6123.4	
811.01	3971	
811.18	4786.8	
811.35	6056.5	
811.53	4682.3	
811.7	4797.7	
811.87	4468	
812.05	5184.8	
812.22	5190.2	
812.39	3803.1	
812.57	3699.3	
812.74	5244.8	
812.92	7101	
813.09	4138.9	
813.26	4557.4	
813.44	6767.9	
813.61	5168.4	
813.78	3399.6	
813.96	4719.2	
814.13	5201.8	
814.3	4896.7	
814.48	5025	
814.65	4151.9	
814.82	6619	
815	5018.9	
815.17	4363.5	
815.34	5288.5	
815.52	5130.2	
815.69	5182	
815.87	4223.6	
816.04	3636.5	
816.21	5190.9	
816.38	4568.3	
816.56	4090.5	
816.73	3761.4	
816.9	6649.1	
817.08	6084.5	
817.25	3888.4	
817.42	4941.7	
817.6	4700.8	
817.77	5260.5	
817.94	4414.7	
818.12	3827	
818.29	4906.9	
818.46	7940	
818.64	3977.2	
818.81	3704.1	
818.98	4819.6	
819.16	7293.5	
819.33	4620.9	
819.5	4258.4	
819.67	5618.3	
819.85	6369.9	
820.02	4180.6	
820.19	4472.1	
820.37	5481.7	
820.54	5066	
820.71	4356.7	
820.88	5414.8	
821.06	5554.1	
821.23	4989.5	
821.4	4313	
821.58	4302.1	
821.75	5959.6	
821.92	5421	
822.09	3424.9	
822.27	3774.4	
822.44	5270.8	
822.61	5117.2	
822.79	3463.1	
822.96	6863.4	
823.13	5760.3	
823.3	4940.4	
823.48	4098.7	
823.65	3632.4	
823.82	6021	
823.99	4740.4	
824.17	5185.5	
824.34	3717.1	
824.51	6959.7	
824.68	5332.9	
824.86	3862.5	
825.03	4404.5	
825.2	5197.7	
825.37	6483.2	
825.55	3829.7	
825.72	4308.9	
825.89	7080.5	
826.06	6533.7	
826.24	4186.7	
826.41	4171	
826.58	6419	
826.75	5569.1	
826.92	3263.8	
827.1	3676.1	
827.27	8852.7	
827.44	7058.7	
827.61	3963.5	
827.79	4904.2	
827.96	4919.2	
828.13	5387.5	
828.3	4115.7	
828.47	3495.9	
828.65	5461.2	
828.82	5416.9	
828.99	5390.3	
829.16	4683.7	
829.34	5902.2	
829.51	5636	
829.68	4300.1	
829.85	4491.2	
830.02	6156.9	
830.2	5914.5	
830.37	3314.3	
830.54	5309	
830.71	6741.9	
830.88	5263.3	
831.05	3338.9	
831.23	3884.3	
831.4	6433.4	
831.57	7283.3	
831.74	3961.5	
831.91	3467.9	
832.09	5488.6	
832.26	5850.4	
832.43	4143.7	
832.6	4629.1	
832.77	5472.9	
832.94	6257.9	
833.12	3222.1	
833.29	4104.1	
833.46	5649	
833.63	7623.9	
833.8	4483.7	
833.97	4107.5	
834.15	5921.4	
834.32	5656.5	
834.49	4315.1	
834.66	4437.9	
834.83	6107.7	
835	4908.3	
835.17	3999.7	
835.35	4035.9	
835.52	5756.2	
835.69	5675.6	
835.86	4227	
836.03	3447.4	
836.2	5831.2	
836.37	5401.9	
836.55	4120.5	
836.72	3882.9	
836.89	5440.8	
837.06	5840.8	
837.23	4272.7	
837.4	4559.5	
837.57	6837.5	
837.75	7565.9	
837.92	3752.6	
838.09	4042	
838.26	5368.4	
838.43	6236.7	
838.6	4394.3	
838.77	3919.8	
838.94	7078.5	
839.11	6830	
839.29	4199	
839.46	3188	
839.63	5824.4	
839.8	5621	
839.97	3993.5	
840.14	3999.7	
840.31	5612.8	
840.48	5881.8	
840.65	3244	
840.82	3948.5	
841	5866.1	
841.17	5765.7	
841.34	3702.7	
841.51	3742.3	
841.68	5771.2	
841.85	5507.7	
842.02	3875.4	
842.19	3087	
842.36	5576.6	
842.53	5577.3	
842.7	3685.7	
842.87	4558.1	
843.05	7437.5	
843.22	5464	
843.39	3449.5	
843.56	3832.4	
843.73	5291.3	
843.9	5940.5	
844.07	6012.2	
844.24	5045.5	
844.41	8843.1	
844.58	5040.1	
844.75	3558.7	
844.92	3850.9	
845.09	5857.9	
845.26	5869.5	
845.43	3618.1	
845.6	3798.3	
845.77	5870.2	
845.94	5535.7	
846.12	4057	
846.29	4298.7	
846.46	6070.9	
846.63	5911.1	
846.8	3593.5	
846.97	4369	
847.14	6361.7	
847.31	5784.1	
847.48	4168.3	
847.65	4537.6	
847.82	6191	
847.99	6124.1	
848.16	4917.9	
848.33	4577.2	
848.5	5377.3	
848.67	6415.6	
848.84	3580.5	
849.01	3805.8	
849.18	5198.4	
849.35	4887.1	
849.52	4634.6	
849.69	3596.2	
849.86	6076.3	
850.03	6374.6	
850.2	3717.7	
850.37	4547.2	
850.54	6280.4	
850.71	5492.7	
850.88	4390.2	
851.05	3647.4	
851.22	5755.5	
851.39	6330.3	
851.56	3460.4	
851.73	4195.6	
851.9	5061.9	
852.07	6102.3	
852.24	4048.2	
852.41	3657	
852.58	5666.7	
852.75	5151.3	
852.92	4128.7	
853.09	3594.9	
853.26	5423	
853.43	6300.2	
853.6	3629.7	
853.77	3080.1	
853.94	6423.1	
854.11	5822.4	
854.28	5515.2	
854.44	3974.4	
854.61	6938.5	
854.78	5989.6	
854.95	3669.3	
855.12	4657.1	
855.29	4685.8	
855.46	6625.2	
855.63	3631	
855.8	5095.3	
855.97	5419.6	
856.14	6223.8	
856.31	5244.2	
856.48	4038.6	
856.65	5365.7	
856.82	5071.5	
856.99	3481.5	
857.16	3941	
857.33	7253.2	
857.49	5507	
857.66	3949.8	
857.83	4283.7	
858	5416.2	
858.17	5647.6	
858.34	3465.2	
858.51	3658.4	
858.68	6651.8	
858.85	6695.5	
859.02	4235.2	
859.19	4561.5	
859.36	5119.2	
859.52	5188.2	
859.69	3674.7	
859.86	4384.7	
860.03	5210.7	
860.2	6442.9	
860.37	3261	
860.54	3705.5	
860.71	6118	
860.88	6512.5	
861.05	4174.4	
861.21	4630.5	
861.38	6666.1	
861.55	5010	
861.72	3301.3	
861.89	4169	
862.06	6272.2	
862.23	6711.9	
862.4	3533.4	
862.56	3828.3	
862.73	5997.1	
862.9	5679.7	
863.07	4337.6	
863.24	3347.7	
863.41	5045.5	
863.58	5106.3	
863.75	3719.8	
863.91	4262.5	
864.08	6490	
864.25	6059.9	
864.42	4661.9	
864.59	5204.6	
864.76	6815	
864.93	5117.2	
865.09	3558	
865.26	3849.5	
865.43	6425.2	
865.6	6821.8	
865.77	3157.3	
865.94	3605.8	
866.1	6445	
866.27	6196.5	
866.44	5547.9	
866.61	3462.4	
866.78	5532.2	
866.95	6051.1	
867.11	3495.2	
867.28	3222.1	
867.45	6191.7	
867.62	5251	
867.79	4177.9	
867.96	3588.7	
868.12	5152.7	
868.29	6140.5	
868.46	3603.7	
868.63	4940.4	
868.8	6305	
868.97	6107.7	
869.13	3842	
869.3	3850.2	
869.47	5968.5	
869.64	6157.6	
869.81	3722.5	
869.97	3652.9	
870.14	5844.9	
870.31	6617	
870.48	3563.5	
870.65	4622.9	
870.81	5460.6	
870.98	5418.9	
871.15	4213.4	
871.32	3804.4	
871.48	5897.5	
871.65	6624.5	
871.82	3603.1	
871.99	4046.8	
872.16	7081.2	
872.32	6461.3	
872.49	3692.5	
872.66	3689.8	
872.83	6101.6	
872.99	5337.7	
873.16	4192.9	
873.33	3622.2	
873.5	5714.5	
873.67	5729.5	
873.83	3872	
874	4966.3	
874.17	5862.7	
874.34	7063.4	
874.5	4822.3	
874.67	4610.7	
874.84	6598.6	
875.01	5139	
875.17	5167.7	
875.34	3649.5	
875.51	5706.3	
875.68	7064.1	
875.84	4406.5	
876.01	5446.2	
876.18	6089.3	
876.34	6034.7	
876.51	3639.2	
876.68	3603.7	
876.85	5535.7	
877.01	6399.2	
877.18	5266.7	
877.35	3624.9	
877.52	5608.7	
877.68	5036	
877.85	3540.3	
878.02	3618.8	
878.18	5613.5	
878.35	5305.6	
878.52	2910.2	
878.69	4158.7	
878.85	6075.6	
879.02	6078.4	
879.19	5208	
879.35	3962.1	
879.52	6045.6	
879.69	6275.7	
879.86	3100.6	
880.02	4111.6	
880.19	5642.8	
880.36	6895.5	
880.52	4231.8	
880.69	4381.3	
880.86	6219.7	
881.02	6305.7	
881.19	4081.6	
881.36	4003.8	
881.52	6072.9	
881.69	5311.1	
881.86	3928	
882.02	3896.6	
882.19	6356.2	
882.36	7508.5	
882.52	3764.8	
882.69	5195	
882.86	5864	
883.02	5735	
883.19	4481	
883.36	4202.4	
883.52	6153.5	
883.69	7184.3	
883.86	3708.2	
884.02	3364.8	
884.19	6135.7	
884.36	5607.3	
884.52	4153.3	
884.69	3876.8	
884.86	5373.2	
885.02	6860	
885.19	4102.8	
885.36	4233.2	
885.52	5677.7	
885.69	5837.4	
885.86	5388.9	
886.02	4746.5	
886.19	6059.9	
886.35	5604.6	
886.52	4045.4	
886.69	5209.3	
886.85	5158.8	
887.02	6502.3	
887.19	6502.3	
887.35	6502.3	
887.52	6502.3	
887.68	6502.3	
887.85	6502.3	
888.02	6502.3	
888.18	6502.3	
888.35	6502.3	
888.51	6502.3	
888.68	6502.3	
888.85	6502.3	
889.01	6502.3	
889.18	6502.3	
889.35	6502.3	
889.51	6502.3	
889.68	6502.3	
889.84	6502.3	
890.01	6502.3	
890.17	6502.3	
890.34	6502.3	
890.51	6502.3	
890.67	6502.3	
890.84	6502.3	
891	6502.3	
891.17	6502.3	
891.34	6502.3	
891.5	6502.3	
891.67	6502.3	
891.83	6502.3	
892	6502.3	
892.16	6502.3	
892.33	6502.3	
892.5	6502.3	
892.66	6502.3	
892.83	6502.3	
892.99	6502.3	
893.16	6502.3	
893.32	6502.3	
893.49	6502.3	
893.65	6502.3	
893.82	6502.3	
893.99	6502.3	
894.15	6502.3	
894.32	6502.3	
894.48	6502.3	
894.65	6502.3	
894.81	6502.3	
894.98	6502.3	
895.14	6502.3	
895.31	6502.3	
895.47	6502.3	
895.64	6502.3	
895.81	6502.3	
895.97	6502.3	
896.14	6502.3	
896.3	6502.3	
896.47	6502.3	
896.63	6502.3	
896.8	6502.3	
896.96	6502.3	
897.13	6502.3	
897.29	6502.3	
897.46	6502.3	
897.62	6502.3	
897.79	6502.3	
897.95	6502.3	
898.12	6502.3	
898.28	6502.3	
898.45	6502.3	
898.61	6502.3	
898.78	6502.3	
898.94	6502.3	
899.11	6502.3	
899.27	6502.3	
899.44	6502.3	
899.6	6502.3	
899.77	6502.3	
899.93	6502.3	
900.1	6502.3	
900.26	6502.3	
900.43	6502.3	
900.59	6502.3	
900.76	6502.3	
900.92	6502.3	
901.09	6502.3	
901.25	6502.3	
901.42	6502.3	
901.58	6502.3	
901.75	6502.3	
901.91	6502.3	
902.07	6502.3	
902.24	6502.3	
902.4	6502.3	
902.57	6502.3	
902.73	6502.3	
902.9	6502.3	
903.06	6502.3	
903.23	6502.3	
903.39	6502.3	
903.56	6502.3	
903.72	6502.3	
903.88	6502.3	
904.05	6502.3	
904.21	6502.3	
904.38	6502.3	
904.54	6502.3	
904.71	6502.3	
904.87	6502.3	
905.03	6502.3	
905.2	6502.3	
905.36	6502.3	
905.53	6502.3	
905.69	6502.3	
905.86	6502.3	
906.02	6502.3	
906.18	6502.3	
906.35	6502.3	
906.51	6502.3	
906.68	6502.3	
906.84	6502.3	
907.01	6502.3	
907.17	6502.3	
907.33	6502.3	
907.5	6502.3	
907.66	6502.3	
907.83	6502.3	
907.99	6502.3	
908.15	6502.3	
908.32	6502.3	
908.48	6502.3	
908.65	6502.3	
908.81	6502.3	
908.97	6502.3	
909.14	6502.3	
909.3	6502.3	
909.47	6502.3	
909.63	6502.3	
909.79	6502.3	
909.96	6502.3	
910.12	6502.3	
910.28	6502.3	
910.45	6502.3	
910.61	6502.3	
910.78	6502.3	
910.94	6502.3	
911.1	6502.3	
911.27	6502.3	
911.43	6502.3	
911.59	6502.3	
911.76	6502.3	
911.92	6502.3	
912.08	6502.3	
912.25	6502.3	
912.41	6502.3	
912.57	6502.3	
912.74	6502.3	
912.9	6502.3	
913.07	6502.3	
913.23	6502.3	
913.39	6502.3	
913.56	6502.3	
913.72	6502.3	
913.88	6502.3	
914.05	6502.3	
914.21	6502.3	
914.37	6502.3	
914.54	6502.3	
914.7	6502.3	
914.86	6502.3	
915.03	6502.3	
915.19	6502.3	
