Wavelength	Intensities	
nm	a.u.	
179.22	1922.4	
179.44	1916.2	
179.65	1928.5	
179.86	1903.9	
180.08	1896.4	
180.29	4952	
180.51	3499.3	
180.72	5655.1	
180.94	6640.9	
181.15	3242.6	
181.37	3147	
181.58	5553.4	
181.79	5784.1	
182.01	3340.2	
182.22	3627	
182.44	5792.3	
182.65	4863.9	
182.87	4614.1	
183.08	3984	
183.29	6087.9	
183.51	5003.2	
183.72	3671.3	
183.94	5343.8	
184.15	5326.1	
184.37	5459.9	
184.58	3221.5	
184.79	4438.6	
185.01	4951.3	
185.22	5763.7	
185.44	4746.5	
185.65	3921.9	
185.86	5286.5	
186.08	4945.8	
186.29	3110.9	
186.51	3444.7	
186.72	5067.4	
186.94	5959.6	
187.15	3866.6	
187.36	3992.2	
187.58	7748.1	
187.79	5533.6	
188.01	4235.2	
188.22	6598.6	
188.43	6634.1	
188.65	5760.3	
188.86	3362.1	
189.08	4076.8	
189.29	5218.9	
189.5	5233.9	
189.72	3692.5	
189.93	3824.9	
190.15	5910.4	
190.36	7152.9	
190.57	4072.7	
190.79	4001	
191	6057.9	
191.22	6046.3	
191.43	4100.7	
191.64	3373	
191.86	6298.9	
192.07	5995.8	
192.29	3536.8	
192.5	3736.9	
192.71	6051.7	
192.93	5145.9	
193.14	3715.7	
193.35	3799.7	
193.57	5192.3	
193.78	5953.4	
194	2979.1	
194.21	3623.5	
194.42	5009.3	
194.64	5444.9	
194.85	3990.1	
195.07	4775.9	
195.28	5507	
195.49	4745.1	
195.71	4987.5	
195.92	3506.8	
196.13	5586.9	
196.35	5713.8	
196.56	5387.5	
196.78	4079.6	
196.99	7033.4	
197.2	6564.4	
197.42	4597	
197.63	4127.3	
197.84	4885.8	
198.06	5621.7	
198.27	3766.2	
198.48	5055.8	
198.7	5170.4	
198.91	5324.7	
199.13	4027.7	
199.34	4090.5	
199.55	5842.2	
199.77	4717.8	
199.98	3623.5	
200.19	4144.4	
200.41	5378	
200.62	5067.4	
200.83	4270	
201.05	4568.3	
201.26	5399.1	
201.47	5137.7	
201.69	3607.8	
201.9	3443.3	
202.11	5416.2	
202.33	6423.1	
202.54	3936.9	
202.76	4259.1	
202.97	5569.8	
203.18	5513.8	
203.4	4259.8	
203.61	4160.1	
203.82	5470.8	
204.04	5135.6	
204.25	4114.4	
204.46	4050.2	
204.68	5440.8	
204.89	5726.8	
205.1	4005.1	
205.32	3463.8	
205.53	5814.9	
205.74	5957.5	
205.96	2927.2	
206.17	4179.2	
206.38	5791	
206.6	5919.3	
206.81	4637.3	
207.02	3789.4	
207.24	5696.1	
207.45	6086.6	
207.66	3861.1	
207.88	3297.9	
208.09	5686.5	
208.3	5371.1	
208.52	3515	
208.73	3864.5	
208.94	5427.1	
209.15	6142.5	
209.37	3880.2	
209.58	4140.3	
209.79	6006.7	
210.01	5233.2	
210.22	3115.6	
210.43	3294.5	
210.65	5430.5	
210.86	5827.2	
211.07	3844.7	
211.29	3610.6	
211.5	5836.7	
211.71	5360.9	
211.93	3499.3	
212.14	3609.9	
212.35	5333.6	
212.56	5571.8	
212.78	4075.5	
212.99	3359.4	
213.2	6358.9	
213.42	5173.9	
213.63	3683.6	
213.84	3932.1	
214.06	4850.3	
214.27	4954.7	
214.48	3874.1	
214.69	4148.5	
214.91	6113.2	
215.12	6206	
215.33	4260.5	
215.55	4624.3	
215.76	6704.4	
215.97	5825.8	
216.18	3979.2	
216.4	3862.5	
216.61	5085.8	
216.82	5945.9	
217.04	3627.6	
217.25	3758	
217.46	6116.6	
217.67	5862	
217.89	3183.2	
218.1	3361.4	
218.31	5524.7	
218.53	5651	
218.74	3764.8	
218.95	3648.8	
219.16	5388.2	
219.38	6376.7	
219.59	3688.4	
219.8	4386.1	
220.01	7020.4	
220.23	5428.5	
220.44	4792.9	
220.65	3558	
220.87	5501.5	
221.08	6020.3	
221.29	3269.2	
221.5	4528.7	
221.72	7419.1	
221.93	5188.2	
222.14	4108.9	
222.35	4854.4	
222.57	5446.9	
222.78	5837.4	
222.99	3898	
223.2	4195.6	
223.42	5744.6	
223.63	5934.3	
223.84	2975.7	
224.05	2987.3	
224.27	6899.6	
224.48	6327.5	
224.69	4825	
224.9	4083	
225.12	5626.5	
225.33	5400.5	
225.54	3281.5	
225.75	3631.7	
225.97	5014.8	
226.18	5288.5	
226.39	4001	
226.6	3683.6	
226.82	5181.4	
227.03	5053	
227.24	4057.7	
227.45	3425.6	
227.67	5777.3	
227.88	6380.8	
228.09	4522.6	
228.3	4560.1	
228.52	5890	
228.73	5388.9	
228.94	3780.6	
229.15	3381.2	
229.36	5350	
229.58	5308.3	
229.79	3834.5	
230	4435.2	
230.21	6475.7	
230.43	5536.3	
230.64	4066.6	
230.85	4300.7	
231.06	5844.9	
231.28	5886.5	
231.49	3346.4	
231.7	3982.6	
231.91	5692.7	
232.12	5485.8	
232.34	3475.4	
232.55	3944.4	
232.76	6077.7	
232.97	5597.8	
233.18	3581.9	
233.4	3982.6	
233.61	5639.4	
233.82	5181.4	
234.03	3731.4	
234.25	3713.6	
234.46	7570	
234.67	5485.8	
234.88	4220.9	
235.09	3629.7	
235.31	5805.3	
235.52	5310.4	
235.73	4052.9	
235.94	3434.4	
236.15	5158.8	
236.37	6653.2	
236.58	3604.4	
236.79	3922.5	
237	5750	
237.21	4994.3	
237.43	4252.3	
237.64	3262.4	
237.85	9876	
238.06	4994.3	
238.27	4304.1	
238.48	3475.4	
238.7	5754.8	
238.91	5300.1	
239.12	3909.6	
239.33	3990.1	
239.54	5244.2	
239.76	5339.1	
239.97	3874.8	
240.18	3941	
240.39	6759	
240.6	5840.8	
240.82	4026.3	
241.03	3269.2	
241.24	5408	
241.45	6350.8	
241.66	3545	
241.87	4243.4	
242.09	6122.1	
242.3	6561	
242.51	4280.9	
242.72	3900	
242.93	5925.5	
243.14	5438	
243.36	4520.5	
243.57	4891.2	
243.78	6314.6	
243.99	5786.2	
244.2	3938.2	
244.41	3560.7	
244.63	5001.8	
244.84	5750	
245.05	4177.9	
245.26	3927.3	
245.47	5675.6	
245.68	6017.6	
245.9	5199.8	
246.11	4139.6	
246.32	5244.8	
246.53	5622.4	
246.74	6384.2	
246.95	3319.8	
247.16	4903.5	
247.38	5383.4	
247.59	3281.5	
247.8	3919.1	
248.01	5162.9	
248.22	5373.9	
248.43	3534.8	
248.64	3812.6	
248.86	4887.8	
249.07	5168.4	
249.28	3430.3	
249.49	4050.9	
249.7	5997.1	
249.91	6112.5	
250.12	3287.7	
250.34	3350.5	
250.55	5570.5	
250.76	5440.8	
250.97	4119.8	
251.18	4088.4	
251.39	6150.1	
251.6	5586.9	
251.81	4152.6	
252.03	4086.4	
252.24	5171.1	
252.45	5946.6	
252.66	3402.4	
252.87	4347.2	
253.08	5488.6	
253.29	7236.2	
253.5	3480.2	
253.72	4759.5	
253.93	5275.6	
254.14	6489.3	
254.35	3773	
254.56	3795.6	
254.77	5623.7	
254.98	5069.4	
255.19	3627	
255.41	4717.8	
255.62	5524.1	
255.83	6123.4	
256.04	4248.9	
256.25	4163.5	
256.46	6757.6	
256.67	5080.3	
256.88	4016.7	
257.09	4513	
257.31	5089.2	
257.52	5124.7	
257.73	5060.5	
257.94	3715	
258.15	5269.4	
258.36	5436	
258.57	4700.8	
258.78	2942.2	
258.99	5907.7	
259.2	5291.3	
259.41	3775.8	
259.63	3910.9	
259.84	6245.6	
260.05	6820.4	
260.26	4940.4	
260.47	3674.7	
260.68	6015.6	
260.89	5322.7	
261.1	4554.7	
261.31	3512.9	
261.52	6072.2	
261.73	6348.7	
261.95	4864.6	
262.16	4244.1	
262.37	6198.5	
262.58	6264.1	
262.79	4851.6	
263	3807.9	
263.21	5427.8	
263.42	5005.9	
263.63	3865.9	
263.84	3809.2	
264.05	6021	
264.26	6392.4	
264.47	4684.4	
264.69	4221.5	
264.9	6129.6	
265.11	5657.2	
265.32	3598.3	
265.53	3761.4	
265.74	5596.4	
265.95	4831.8	
266.16	4003.8	
266.37	4463.9	
266.58	5501.5	
266.79	5217.5	
267	3633.1	
267.21	3463.1	
267.42	5037.3	
267.63	5487.2	
267.84	3921.2	
268.06	3331.4	
268.27	5885.9	
268.48	6199.2	
268.69	3863.2	
268.9	4506.2	
269.11	6138.4	
269.32	4929.5	
269.53	3975.1	
269.74	3654.9	
269.95	5733.6	
270.16	4811.4	
270.37	3893.2	
270.58	4556.7	
270.79	5345.2	
271	5962.3	
271.21	4243.4	
271.42	3980.6	
271.63	5554.1	
271.84	5093.3	
272.05	3125.2	
272.26	3554.6	
272.47	5377.3	
272.68	5652.4	
272.89	3719.1	
273.11	4345.8	
273.32	5241.4	
273.53	6407.4	
273.74	4246.8	
273.95	4120.5	
274.16	6127.5	
274.37	5465.3	
274.58	4328	
274.79	3417.4	
275	5575.9	
275.21	6174.6	
275.42	5157.5	
275.63	4470.7	
275.84	5716.6	
276.05	7154.9	
276.26	4113	
276.47	3855.6	
276.68	5315.2	
276.89	6462.7	
277.1	4435.2	
277.31	3442.6	
277.52	5730.9	
277.73	5832.6	
277.94	3446.7	
278.15	3770.3	
278.36	5672.9	
278.57	5115.8	
278.78	3792.2	
278.99	4291.2	
279.2	5036	
279.41	5005.2	
279.62	4971.1	
279.83	3504.1	
280.04	6636.1	
280.25	4969.7	
280.46	4929.5	
280.67	3914.4	
280.88	5082.4	
281.09	6130.9	
281.3	4130.8	
281.51	5260.5	
281.72	5108.3	
281.93	5995.1	
282.14	3631.7	
282.35	3940.3	
282.56	5965.1	
282.77	5961	
282.98	3833.8	
283.19	4659.1	
283.4	7344	
283.61	5419.6	
283.82	3376.4	
284.03	4878.3	
284.24	5525.4	
284.45	6074.3	
284.66	4889.9	
284.87	4679.6	
285.08	6023.1	
285.29	6174.6	
285.5	3327.9	
285.71	3820.8	
285.92	6113.2	
286.12	6752.2	
286.33	4835.3	
286.54	3878.2	
286.75	5995.8	
286.96	5337	
287.17	3469.9	
287.38	4721.9	
287.59	5063.9	
287.8	4967	
288.01	3884.3	
288.22	4388.1	
288.43	5970.5	
288.64	4995	
288.85	4629.8	
289.06	4280.9	
289.27	5881.1	
289.48	6444.3	
289.69	4858.5	
289.9	4341.7	
290.11	6067.4	
290.32	5125.4	
290.53	4636.6	
290.74	4279.6	
290.94	5866.7	
291.15	5972.6	
291.36	3659	
291.57	4365.6	
291.78	5165	
291.99	4833.9	
292.2	3549.1	
292.41	4270	
292.62	6002.6	
292.83	5796.4	
293.04	5283.8	
293.25	3555.3	
293.46	5212.8	
293.67	6094.8	
293.88	3644	
294.09	3542.3	
294.29	4980.7	
294.5	5605.3	
294.71	3994.2	
294.92	3764.2	
295.13	5178.6	
295.34	6593.8	
295.55	3273.3	
295.76	3345.7	
295.97	5836.7	
296.18	6712.6	
296.39	3494.5	
296.6	3725.3	
296.81	5545.2	
297.01	5901.6	
297.22	3886.4	
297.43	3653.6	
297.64	5080.3	
297.85	5087.2	
298.06	3022.1	
298.27	3317.7	
298.48	5518.6	
298.69	5147.9	
298.9	4074.1	
299.11	3654.9	
299.31	4976.6	
299.52	4968.4	
299.73	4332.8	
299.94	4216.1	
300.15	5429.2	
300.36	5056.4	
300.57	4154	
300.78	4118.5	
300.99	5373.2	
301.2	5586.9	
301.4	3689.1	
301.61	4009.2	
301.82	5746.6	
302.03	5900.9	
302.24	4472.8	
302.45	3495.9	
302.66	5768.4	
302.87	6247	
303.08	3743	
303.29	5068.7	
303.49	5149.3	
303.7	5487.2	
303.91	3198.2	
304.12	4803.9	
304.33	4995	
304.54	5595.7	
304.75	3642	
304.96	3518.4	
305.16	5774.6	
305.37	6544.6	
305.58	3214.6	
305.79	3334.1	
306	5800.5	
306.21	4880.3	
306.42	3719.1	
306.63	5671.5	
306.83	5343.8	
307.04	6064	
307.25	4083	
307.46	4031.8	
307.67	4701.5	
307.88	5936.4	
308.09	3615.3	
308.29	3807.9	
308.5	5549.3	
308.71	6063.4	
308.92	3964.9	
309.13	3555.3	
309.34	5412.8	
309.55	5404.6	
309.75	4597	
309.96	4235.2	
310.17	5887.9	
310.38	5184.8	
310.59	4487.8	
310.8	4169	
311.01	5266	
311.21	5350	
311.42	3495.2	
311.63	3634.5	
311.84	5217.5	
312.05	5582.8	
312.26	4112.3	
312.46	4446.1	
312.67	5292	
312.88	4999.1	
313.09	3605.1	
313.3	3482.2	
313.51	6300.9	
313.71	6661.4	
313.92	3502	
314.13	3758	
314.34	5599.8	
314.55	5378.6	
314.76	4574.5	
314.96	3998.3	
315.17	5473.5	
315.38	5867.4	
315.59	3639.9	
315.8	3405.1	
316.01	6310.5	
316.21	6491.4	
316.42	3446	
316.63	3941.7	
316.84	5319.9	
317.05	6263.4	
317.26	4214.7	
317.46	3780.6	
317.67	5364.3	
317.88	5872.2	
318.09	4511	
318.3	3325.9	
318.5	5217.5	
318.71	5794.4	
318.92	5795.8	
319.13	4223.6	
319.34	5924.1	
319.54	6143.2	
319.75	3258.3	
319.96	3223.5	
320.17	5810.1	
320.38	6038.1	
320.58	3287	
320.79	3898.6	
321	6091.3	
321.21	6197.2	
321.42	3921.2	
321.62	3246.7	
321.83	5081	
322.04	5430.5	
322.25	3787.4	
322.46	3568.2	
322.66	5572.5	
322.87	5750.7	
323.08	4416.8	
323.29	3470.6	
323.5	6622.4	
323.7	4953.4	
323.91	4937.7	
324.12	4347.8	
324.33	5472.9	
324.53	5765	
324.74	4222.9	
324.95	4431.8	
325.16	4893.3	
325.37	5268.7	
325.57	3594.9	
325.78	3630.4	
325.99	5520.6	
326.2	4984.1	
326.4	5232.6	
326.61	3288.4	
326.82	5399.1	
327.03	5598.5	
327.24	5099.4	
327.44	4893.3	
327.65	5732.3	
327.86	4630.5	
328.07	4171	
328.27	3428.3	
328.48	6100.9	
328.69	5033.2	
328.9	5129.5	
329.1	3845.4	
329.31	5350	
329.52	6294.8	
329.73	3573	
329.93	4017.4	
330.14	5432.6	
330.35	5729.5	
330.56	5868.1	
330.76	4471.4	
330.97	5226.4	
331.18	5670.8	
331.39	3979.9	
331.59	3254.2	
331.8	6052.4	
332.01	6201.9	
332.22	3646.7	
332.42	4225.6	
332.63	5543.2	
332.84	5167	
333.05	4019.5	
333.25	3678.2	
333.46	5211.4	
333.67	5466.7	
333.88	3733.4	
334.08	4227.7	
334.29	7326.3	
334.5	6122.1	
334.7	3475.4	
334.91	5079	
335.12	4992.9	
335.33	5853.1	
335.53	3966.9	
335.74	5888.6	
335.95	5225.7	
336.16	5048.9	
336.36	3931.4	
336.57	4555.4	
336.78	5004.6	
336.98	6080.4	
337.19	4943.8	
337.4	3885	
337.61	6541.2	
337.81	4962.9	
338.02	3660.4	
338.23	4732.9	
338.43	6213.5	
338.64	5126.1	
338.85	3637.9	
339.05	4732.9	
339.26	6294.8	
339.47	4934.2	
339.68	3517	
339.88	5291.3	
340.09	5687.2	
340.3	5933.6	
340.5	4212	
340.71	3230.3	
340.92	4938.3	
341.13	6241.5	
341.33	3493.8	
341.54	4282.3	
341.75	5661.3	
341.95	5298.8	
342.16	4014	
342.37	4361.5	
342.57	5000.5	
342.78	5454.4	
342.99	4457.7	
343.19	3213.3	
343.4	5922	
343.61	5713.2	
343.81	3833.1	
344.02	3492.5	
344.23	5894.7	
344.43	6313.9	
344.64	4442.7	
344.85	4384.7	
345.06	5730.9	
345.26	6075	
345.47	4158.1	
345.68	4910.3	
345.88	4893.3	
346.09	6042.9	
346.3	4224.3	
346.5	3182.5	
346.71	5485.8	
346.92	5185.5	
347.12	3249.4	
347.33	4183.3	
347.54	6023.1	
347.74	6433.4	
347.95	4101.4	
348.16	3100.6	
348.36	5248.3	
348.57	4932.2	
348.78	4054.3	
348.98	4374.5	
349.19	5461.2	
349.39	4904.2	
349.6	3278.1	
349.81	3656.3	
350.01	5683.1	
350.22	5190.9	
350.43	3957.4	
350.63	4716.5	
350.84	5530.2	
351.05	5276.9	
351.25	3618.8	
351.46	3284.3	
351.67	6061.3	
351.87	5171.8	
352.08	3904.1	
352.29	4417.5	
352.49	5953.4	
352.7	5636	
352.9	3515	
353.11	4395.6	
353.32	6652.5	
353.52	5285.1	
353.73	3462.4	
353.94	4457.7	
354.14	5785.5	
354.35	5628.5	
354.55	3524.6	
354.76	4035.2	
354.97	5722.7	
355.17	5518.6	
355.38	3340.9	
355.59	4743.1	
355.79	5212.1	
356	5595.1	
356.2	3987.4	
356.41	3452.2	
356.62	4953.4	
356.82	5446.9	
357.03	4248.2	
357.24	3800.3	
357.44	5272.8	
357.65	5317.9	
357.85	5128.8	
358.06	4031.1	
358.27	4924	
358.47	5167	
358.68	3338.9	
358.88	4255.7	
359.09	5762.3	
359.3	6094.8	
359.5	4962.9	
359.71	4431.8	
359.91	6614.3	
360.12	5883.1	
360.33	4208.6	
360.53	4818.9	
360.74	5202.5	
360.94	5315.8	
361.15	4483	
361.36	3685	
361.56	6052.4	
361.77	5504.9	
361.97	5019.6	
362.18	3960.1	
362.38	6040.8	
362.59	5144.5	
362.8	3679.5	
363	3540.9	
363.21	4900.1	
363.41	5672.9	
363.62	4180.6	
363.83	5253.7	
364.03	5713.2	
364.24	6635.4	
364.44	5345.2	
364.65	5438.7	
364.85	5480.4	
365.06	5318.6	
365.27	3944.4	
365.47	3880.9	
365.68	6441.5	
365.88	5397.1	
366.09	4276.2	
366.29	3953.3	
366.5	5769.8	
366.71	6232	
366.91	5331.5	
367.12	4432.5	
367.32	6777.4	
367.53	6087.2	
367.73	4433.2	
367.94	5424.4	
368.14	5993	
368.35	6925.5	
368.56	4420.2	
368.76	3812	
368.97	6150.1	
369.17	7830.1	
369.38	3941.7	
369.58	4205.8	
369.79	5122	
369.99	6460	
370.2	5185.5	
370.4	4289.8	
370.61	5768.4	
370.82	6993.8	
371.02	4197.7	
371.23	3514.3	
371.43	5097.4	
371.64	6451.8	
371.84	4219.5	
372.05	5504.9	
372.25	7799.3	
372.46	6230.6	
372.66	4323.9	
372.87	4216.8	
373.07	6251.1	
373.28	7873.8	
373.48	5354.1	
373.69	5029.1	
373.9	5734.3	
374.1	5762.3	
374.31	5281.7	
374.51	4771.1	
374.72	6612.9	
374.92	5427.1	
375.13	5523.4	
375.33	4654.4	
375.54	6207.4	
375.74	5640.1	
375.95	4698	
376.15	6016.2	
376.36	6206	
376.56	6034.7	
376.77	4883	
376.97	5273.5	
377.18	7414.3	
377.38	6330.3	
377.59	5674.9	
377.79	4314.4	
378	6234.7	
378.2	6629.3	
378.41	4470	
378.61	4337.6	
378.82	6642.2	
379.02	5858.6	
379.23	4587.4	
379.43	5782.8	
379.64	6724.2	
379.84	6407.4	
380.05	4392.2	
380.25	4371	
380.46	6449.1	
380.66	6091.3	
380.87	5829.2	
381.07	6165.8	
381.28	7087.3	
381.48	6474.3	
381.69	4487.8	
381.89	4517.8	
382.1	5350	
382.3	6657.9	
382.51	5575.3	
382.71	6556.2	
382.91	6425.2	
383.12	6983.6	
383.32	4795.7	
383.53	4987.5	
383.73	6315.3	
383.94	6096.1	
384.14	4902.8	
384.35	4008.6	
384.55	5902.9	
384.76	6419	
384.96	4808.6	
385.17	5087.2	
385.37	6384.9	
385.58	5697.4	
385.78	5115.1	
385.98	3973.7	
386.19	5922	
386.39	6252.4	
386.6	4543.8	
386.8	4812.7	
387.01	6450.4	
387.21	6453.8	
387.42	5245.5	
387.62	5803.3	
387.83	5801.2	
388.03	6414.9	
388.23	4982.7	
388.44	5709.7	
388.64	5573.9	
388.85	5655.1	
389.05	5276.9	
389.26	5930.9	
389.46	7262.1	
389.67	6918	
389.87	5245.5	
390.07	5311.1	
390.28	6120	
390.48	5725.4	
390.69	4567	
390.89	4866.7	
391.1	5944.6	
391.3	6954.2	
391.5	6016.2	
391.71	6630.6	
391.91	6640.9	
392.12	7643	
392.32	6132.3	
392.53	5256.5	
392.73	5979.4	
392.93	6172.6	
393.14	4978.6	
393.34	5694.7	
393.55	6604	
393.75	6224.5	
393.95	4961.5	
394.16	4939.7	
394.36	5947.3	
394.57	6677.1	
394.77	4557.4	
394.98	4919.9	
395.18	5997.1	
395.38	6220.4	
395.59	5868.1	
395.79	4809.3	
396	6131.6	
396.2	6585.6	
396.4	5715.9	
396.61	5692	
396.81	6860.7	
397.02	6169.8	
397.22	5997.8	
397.42	6067.4	
397.63	6978.1	
397.83	6171.9	
398.04	4855.1	
398.24	5410.7	
398.44	6737.1	
398.65	5816.2	
398.85	4720.6	
399.05	4967	
399.26	6184.9	
399.46	7994.6	
399.67	5297.4	
399.87	5029.1	
400.07	6665.5	
400.28	6980.8	
400.48	5169.8	
400.69	6255.9	
400.89	7271.7	
401.09	7705.8	
401.3	5032.5	
401.5	6202.6	
401.7	7938.6	
401.91	8150.9	
402.11	5341.1	
402.32	5595.1	
402.52	7220.5	
402.72	7030	
402.93	5797.1	
403.13	4644.1	
403.33	7837.6	
403.54	6460.7	
403.74	5446.9	
403.94	6311.2	
404.15	6642.9	
404.35	7857.4	
404.56	5283.8	
404.76	7139.2	
404.96	7210.9	
405.17	6890	
405.37	6611.5	
405.57	5831.2	
405.78	7306.5	
405.98	6650.4	
406.18	5285.1	
406.39	6276.3	
406.59	7208.8	
406.79	6816.3	
407	5205.3	
407.2	5284.4	
407.4	7380.9	
407.61	7595.9	
407.81	5446.2	
408.01	7845.8	
408.22	6450.4	
408.42	8470.4	
408.62	6690.7	
408.83	6116.6	
409.03	7158.3	
409.23	7023.9	
409.44	6369.2	
409.64	6628.6	
409.84	8279.9	
410.05	8200.7	
410.25	6582.9	
410.45	6318.7	
410.66	7843	
410.86	10363	
411.06	6929	
411.27	6785.6	
411.47	10265	
411.67	8089.5	
411.88	7060	
412.08	7443.7	
412.28	8705.9	
412.49	9161.2	
412.69	6954.9	
412.89	6991.8	
413.09	9086.8	
413.3	8962.6	
413.5	7100.3	
413.7	6639.5	
413.91	8168.7	
414.11	9094.3	
414.31	6920.8	
414.52	7421.8	
414.72	8796	
414.92	8818.6	
415.12	6948.1	
415.33	7487.4	
415.53	9190.6	
415.73	9434.3	
415.94	7889.5	
416.14	7291.5	
416.34	8255.4	
416.55	7955	
416.75	8585.1	
416.95	8057.4	
417.15	9336.7	
417.36	9906	
417.56	8801.5	
417.76	7920.2	
417.97	9746.3	
418.17	9353.8	
418.37	7445	
418.57	7440.3	
418.78	9078.6	
418.98	8658.1	
419.18	8481.3	
419.38	8263.6	
419.59	8865	
419.79	8432.9	
419.99	7322.9	
420.2	7778.2	
420.4	9346.2	
420.6	9476	
420.8	7279.2	
421.01	7173.4	
421.21	9143.5	
421.41	9273.9	
421.61	7722.9	
421.82	7436.9	
422.02	8703.2	
422.22	9623.4	
422.42	8338	
422.63	7735.2	
422.83	8735.3	
423.03	10056	
423.23	7831.4	
423.44	6737.8	
423.64	8795.3	
423.84	8518.9	
424.04	7134.4	
424.25	6959	
424.45	9802.3	
424.65	9680.7	
424.85	6656.6	
425.06	7194.5	
425.26	9658.2	
425.46	8749.6	
425.66	7722.9	
425.87	7307.8	
426.07	9370.8	
426.27	9179	
426.47	7517.4	
426.67	6885.3	
426.88	9727.2	
427.08	9172.2	
427.28	7848.5	
427.48	6755.6	
427.69	7995.3	
427.89	8697	
428.09	7777.5	
428.29	6867.5	
428.5	9442.5	
428.7	8972.8	
428.9	6792.4	
429.1	7408.9	
429.3	8877.3	
429.51	9385.8	
429.71	7059.3	
429.91	8003.5	
430.11	9260.2	
430.31	9423.4	
430.52	7477.8	
430.72	7932.5	
430.92	9868.5	
431.12	9352.4	
431.32	7350.8	
431.53	7672.4	
431.73	8240.3	
431.93	9947.7	
432.13	7219.8	
432.33	7073	
432.54	8709.3	
432.74	9114.1	
432.94	7026.6	
433.14	8051.9	
433.34	9376.3	
433.55	8994	
433.75	8026	
433.95	9894.4	
434.15	9185.1	
434.35	8963.3	
434.56	7234.1	
434.76	6843.6	
434.96	9179	
435.16	9474.6	
435.36	7264.1	
435.56	8471.8	
435.77	8931.9	
435.97	9146.2	
436.17	9313.5	
436.37	8464.9	
436.57	8948.3	
436.78	8959.9	
436.98	8274.5	
437.18	8983.1	
437.38	9802.9	
437.58	9092.3	
437.78	9196.1	
437.99	7663.5	
438.19	9519.6	
438.39	11097	
438.59	7532.4	
438.79	7111.9	
438.99	10266	
439.2	9202.9	
439.4	7198.6	
439.6	7219.8	
439.8	9587.9	
440	10630	
440.2	8428.8	
440.4	8537.3	
440.61	10019	
440.81	10698	
441.01	7731.1	
441.21	8670.4	
441.41	10675	
441.61	10054	
441.81	8990.6	
442.02	10149	
442.22	11053	
442.42	10314	
442.62	7978.2	
442.82	7949.5	
443.02	10643	
443.22	9797.5	
443.43	8444.5	
443.63	7937.9	
443.83	9538.1	
444.03	9578.3	
444.23	9362.6	
444.43	8878.6	
444.63	9964.7	
444.83	11193	
445.04	8139.3	
445.24	9442.5	
445.44	10259	
445.64	10295	
445.84	8809	
446.04	8919.6	
446.24	9548.3	
446.44	10535	
446.65	7925	
446.85	8448.6	
447.05	9501.2	
447.25	10557	
447.45	8445.1	
447.65	7878.5	
447.85	9870.5	
448.05	9367.4	
448.25	8959.9	
448.46	8830.2	
448.66	9945.6	
448.86	9592.7	
449.06	7713.3	
449.26	8946.2	
449.46	10325	
449.66	9291	
449.86	8485.4	
450.06	8413.7	
450.26	9522.4	
450.47	10095	
450.67	8557.1	
450.87	9164	
451.07	10232	
451.27	10109	
451.47	8039	
451.67	8681.3	
451.87	9721.7	
452.07	10778	
452.27	8361.2	
452.47	8251.3	
452.67	9963.4	
452.88	10665	
453.08	7533.1	
453.28	9725.8	
453.48	11340	
453.68	9952.4	
453.88	8322.3	
454.08	8503.8	
454.28	10491	
454.48	10120	
454.68	9082.1	
454.88	9702.6	
455.08	10555	
455.28	10525	
455.48	8143.4	
455.68	8957.1	
455.89	11330	
456.09	11023	
456.29	8658.8	
456.49	8813.8	
456.69	11263	
456.89	10449	
457.09	9415.2	
457.29	9896.5	
457.49	10755	
457.69	11058	
457.89	9454.8	
458.09	8716.8	
458.29	10869	
458.49	11567	
458.69	9866.4	
458.89	9338.7	
459.09	11856	
459.29	11996	
459.49	9310.7	
459.69	10199	
459.9	11410	
460.1	10961	
460.3	9314.2	
460.5	9079.3	
460.7	11357	
460.9	11147	
461.1	8857.5	
461.3	10281	
461.5	12202	
461.7	11864	
461.9	9552.4	
462.1	9852.8	
462.3	11451	
462.5	12097	
462.7	9565.4	
462.9	9892.4	
463.1	13122	
463.3	12831	
463.5	10028	
463.7	11275	
463.9	11868	
464.1	12235	
464.3	10524	
464.5	10580	
464.7	12529	
464.9	12342	
465.1	12163	
465.3	11043	
465.5	13032	
465.7	13072	
465.9	11516	
466.1	10978	
466.3	12936	
466.5	12570	
466.7	12436	
466.9	10969	
467.1	12834	
467.3	13697	
467.5	12316	
467.7	11171	
467.9	13999	
468.1	14899	
468.3	11891	
468.5	12416	
468.7	12868	
468.9	12765	
469.1	11515	
469.3	12319	
469.5	15091	
469.7	12583	
469.9	11786	
470.1	11312	
470.3	12970	
470.5	13034	
470.7	12630	
470.9	11324	
471.1	12754	
471.3	13049	
471.5	11131	
471.69	13067	
471.89	12543	
472.09	12000	
472.29	11986	
472.49	12158	
472.69	12205	
472.89	13109	
473.09	10961	
473.29	11069	
473.49	12404	
473.69	12494	
473.89	12086	
474.09	11107	
474.29	13795	
474.49	13401	
474.69	12053	
474.89	11361	
475.09	12570	
475.29	12441	
475.49	10658	
475.69	10897	
475.88	14001	
476.08	12781	
476.28	10587	
476.48	10976	
476.68	13046	
476.88	12932	
477.08	10742	
477.28	11228	
477.48	12332	
477.68	13012	
477.88	10634	
478.08	10870	
478.28	13422	
478.48	12519	
478.67	11181	
478.87	10268	
479.07	13439	
479.27	12618	
479.47	11277	
479.67	11342	
479.87	13149	
480.07	13788	
480.27	10532	
480.47	12154	
480.67	12754	
480.87	13463	
481.06	10740	
481.26	11729	
481.46	12774	
481.66	12624	
481.86	11168	
482.06	12444	
482.26	12325	
482.46	13459	
482.66	11175	
482.86	10843	
483.05	12785	
483.25	12252	
483.45	13724	
483.65	11334	
483.85	12392	
484.05	12669	
484.25	11740	
484.45	12371	
484.65	13653	
484.84	13785	
485.04	11416	
485.24	11346	
485.44	14008	
485.64	12334	
485.84	10841	
486.04	12189	
486.24	12820	
486.44	13185	
486.63	10798	
486.83	11643	
487.03	12902	
487.23	13076	
487.43	10965	
487.63	13562	
487.83	13306	
488.02	14298	
488.22	12227	
488.42	12863	
488.62	14194	
488.82	13214	
489.02	11772	
489.22	12048	
489.41	13925	
489.61	13723	
489.81	11533	
490.01	11585	
490.21	13950	
490.41	14742	
490.61	11622	
490.8	11604	
491	13555	
491.2	12750	
491.4	12224	
491.6	11314	
491.8	13342	
491.99	13523	
492.19	11254	
492.39	11671	
492.59	14080	
492.79	14078	
492.99	12605	
493.18	11770	
493.38	14318	
493.58	15281	
493.78	12692	
493.98	12132	
494.18	14212	
494.37	13783	
494.57	13179	
494.77	13123	
494.97	14820	
495.17	15090	
495.37	12695	
495.56	13092	
495.76	15427	
495.96	14996	
496.16	14100	
496.36	13105	
496.55	15234	
496.75	14837	
496.95	13461	
497.15	13306	
497.35	15290	
497.54	15258	
497.74	13247	
497.94	15004	
498.14	16101	
498.34	15947	
498.53	13092	
498.73	13778	
498.93	14968	
499.13	15523	
499.33	13665	
499.52	14064	
499.72	15547	
499.92	15819	
500.12	13414	
500.32	13706	
500.51	15818	
500.71	15674	
500.91	14531	
501.11	14132	
501.31	15728	
501.5	16090	
501.7	14829	
501.9	13763	
502.1	15468	
502.29	15788	
502.49	14202	
502.69	14671	
502.89	15647	
503.09	15613	
503.28	13007	
503.48	13235	
503.68	14698	
503.88	14797	
504.07	14177	
504.27	13430	
504.47	15048	
504.67	15082	
504.86	13880	
505.06	13534	
505.26	14610	
505.46	16476	
505.65	13354	
505.85	13476	
506.05	14426	
506.25	14700	
506.44	12536	
506.64	13338	
506.84	14123	
507.04	14949	
507.23	12477	
507.43	13070	
507.63	15983	
507.83	14116	
508.02	12929	
508.22	12526	
508.42	16236	
508.62	13766	
508.81	12700	
509.01	13333	
509.21	13731	
509.4	13998	
509.6	12828	
509.8	12369	
510	14003	
510.19	15527	
510.39	12402	
510.59	12450	
510.79	13883	
510.98	15286	
511.18	12612	
511.38	12790	
511.57	14625	
511.77	14632	
511.97	13345	
512.17	12077	
512.36	14845	
512.56	14640	
512.76	12521	
512.95	12139	
513.15	14858	
513.35	13608	
513.55	13259	
513.74	12437	
513.94	14892	
514.14	14204	
514.33	13615	
514.53	13403	
514.73	14295	
514.92	14586	
515.12	12998	
515.32	12731	
515.51	14863	
515.71	15351	
515.91	14491	
516.11	12917	
516.3	16694	
516.5	14511	
516.7	13571	
516.89	14149	
517.09	14619	
517.29	14564	
517.48	13885	
517.68	13222	
517.88	14372	
518.07	15070	
518.27	13745	
518.47	12899	
518.66	15537	
518.86	14234	
519.06	12622	
519.25	13165	
519.45	14495	
519.65	16149	
519.84	13711	
520.04	14382	
520.24	16486	
520.43	15096	
520.63	13377	
520.83	13063	
521.02	14255	
521.22	15013	
521.42	13741	
521.61	14218	
521.81	14666	
522.01	14812	
522.2	13535	
522.4	13317	
522.6	15427	
522.79	14263	
522.99	13452	
523.18	13015	
523.38	15347	
523.58	15315	
523.77	15092	
523.97	13145	
524.17	17350	
524.36	16535	
524.56	14774	
524.76	14459	
524.95	15814	
525.15	15358	
525.34	14279	
525.54	14347	
525.74	16101	
525.93	15128	
526.13	15571	
526.33	14480	
526.52	16662	
526.72	16154	
526.91	15718	
527.11	15101	
527.31	16838	
527.5	17202	
527.7	15029	
527.89	14053	
528.09	15754	
528.29	16500	
528.48	15360	
528.68	14999	
528.87	16815	
529.07	16586	
529.27	14813	
529.46	14197	
529.66	16188	
529.85	16597	
530.05	14120	
530.25	14861	
530.44	17791	
530.64	16268	
530.83	14765	
531.03	15148	
531.23	16759	
531.42	16655	
531.62	15971	
531.81	15102	
532.01	17050	
532.21	17651	
532.4	15036	
532.6	15461	
532.79	18159	
532.99	17537	
533.18	15588	
533.38	16453	
533.58	17078	
533.77	17918	
533.97	15673	
534.16	16582	
534.36	18075	
534.55	17277	
534.75	16654	
534.95	15686	
535.14	18018	
535.34	17120	
535.53	15355	
535.73	17377	
535.92	18498	
536.12	17209	
536.31	15412	
536.51	16672	
536.71	17348	
536.9	16987	
537.1	15463	
537.29	15680	
537.49	17950	
537.68	16980	
537.88	16179	
538.07	15319	
538.27	17325	
538.46	18419	
538.66	15281	
538.86	15681	
539.05	17326	
539.25	17704	
539.44	16102	
539.64	15593	
539.83	17219	
540.03	18174	
540.22	15414	
540.42	15536	
540.61	17204	
540.81	17553	
541	15794	
541.2	16713	
541.39	16654	
541.59	17131	
541.78	16155	
541.98	15064	
542.18	16311	
542.37	16196	
542.57	15418	
542.76	16002	
542.96	16028	
543.15	16683	
543.35	15132	
543.54	14502	
543.74	16961	
543.93	16363	
544.13	14896	
544.32	16019	
544.52	16569	
544.71	15896	
544.91	13968	
545.1	15227	
545.3	15812	
545.49	16498	
545.69	13895	
545.88	14377	
546.08	17637	
546.27	16961	
546.47	15033	
546.66	14250	
546.86	16664	
547.05	17373	
547.24	14399	
547.44	14322	
547.63	15449	
547.83	16759	
548.02	14825	
548.22	14811	
548.41	15204	
548.61	16653	
548.8	14104	
549	14085	
549.19	15878	
549.39	16195	
549.58	13700	
549.78	14362	
549.97	16272	
550.17	15653	
550.36	15302	
550.55	16203	
550.75	15776	
550.94	16784	
551.14	13989	
551.33	14369	
551.53	15252	
551.72	16178	
551.92	14411	
552.11	14126	
552.31	16164	
552.5	16216	
552.69	15942	
552.89	13775	
553.08	15989	
553.28	15833	
553.47	14227	
553.67	15453	
553.86	16739	
554.06	14903	
554.25	13233	
554.44	13890	
554.64	17361	
554.83	16994	
555.03	13940	
555.22	14172	
555.42	16238	
555.61	15859	
555.8	13975	
556	14209	
556.19	15076	
556.39	16245	
556.58	14153	
556.78	13981	
556.97	15822	
557.16	15541	
557.36	15218	
557.55	13677	
557.75	14693	
557.94	16516	
558.13	13747	
558.33	13597	
558.52	16298	
558.72	15113	
558.91	13528	
559.1	13805	
559.3	14563	
559.49	14485	
559.69	13054	
559.88	14085	
560.07	15663	
560.27	16035	
560.46	14259	
560.66	14231	
560.85	15350	
561.04	14478	
561.24	13461	
561.43	13487	
561.63	14647	
561.82	14984	
562.01	14990	
562.21	13816	
562.4	15442	
562.59	16475	
562.79	13648	
562.98	13405	
563.18	15436	
563.37	16853	
563.56	14227	
563.76	13341	
563.95	14808	
564.14	14829	
564.34	13794	
564.53	13539	
564.73	15471	
564.92	15894	
565.11	13976	
565.31	13263	
565.5	16042	
565.69	15002	
565.89	13577	
566.08	13865	
566.27	15887	
566.47	16285	
566.66	14481	
566.85	13104	
567.05	15425	
567.24	14810	
567.44	13385	
567.63	14773	
567.82	15651	
568.02	15373	
568.21	13443	
568.4	13706	
568.6	15278	
568.79	15338	
568.98	13133	
569.18	13407	
569.37	15318	
569.56	17273	
569.76	13648	
569.95	14511	
570.14	15216	
570.34	15319	
570.53	12879	
570.72	12816	
570.91	15593	
571.11	14522	
571.3	13232	
571.49	14220	
571.69	14726	
571.88	14175	
572.07	13834	
572.27	13756	
572.46	14346	
572.65	15316	
572.85	13062	
573.04	13396	
573.23	15750	
573.43	14923	
573.62	13048	
573.81	13553	
574	15023	
574.2	14760	
574.39	13331	
574.58	13581	
574.78	15907	
574.97	15166	
575.16	13918	
575.36	13962	
575.55	15554	
575.74	15677	
575.93	12895	
576.13	14117	
576.32	14827	
576.51	15494	
576.71	13434	
576.9	14755	
577.09	15895	
577.28	15339	
577.48	14052	
577.67	12930	
577.86	15052	
578.05	15442	
578.25	13677	
578.44	13842	
578.63	15102	
578.83	16436	
579.02	13083	
579.21	14745	
579.4	15521	
579.6	15057	
579.79	13877	
579.98	16087	
580.17	16063	
580.37	16028	
580.56	13465	
580.75	14291	
580.94	16483	
581.14	16453	
581.33	14937	
581.52	13745	
581.71	16189	
581.91	16695	
582.1	13659	
582.29	14151	
582.48	15737	
582.68	15825	
582.87	14633	
583.06	14481	
583.25	16194	
583.45	16077	
583.64	15084	
583.83	15791	
584.02	15625	
584.21	16221	
584.41	15039	
584.6	14433	
584.79	15795	
584.98	16727	
585.18	13760	
585.37	13847	
585.56	15414	
585.75	16135	
585.94	13992	
586.14	14779	
586.33	16684	
586.52	15826	
586.71	14232	
586.91	14058	
587.1	14903	
587.29	15855	
587.48	13686	
587.67	13518	
587.87	15457	
588.06	15385	
588.25	14511	
588.44	13599	
588.63	14412	
588.83	14850	
589.02	12538	
589.21	12171	
589.4	13566	
589.59	13253	
589.78	10889	
589.98	10942	
590.17	12261	
590.36	12846	
590.55	9894.4	
590.74	10714	
590.94	13921	
591.13	12377	
591.32	10459	
591.51	9964.7	
591.7	12855	
591.89	12381	
592.09	10183	
592.28	10725	
592.47	11599	
592.66	13575	
592.85	10404	
593.05	10619	
593.24	12479	
593.43	13353	
593.62	10845	
593.81	11387	
594	12517	
594.19	12953	
594.39	10900	
594.58	10727	
594.77	13033	
594.96	13529	
595.15	10619	
595.34	11341	
595.54	13031	
595.73	12013	
595.92	9937.4	
596.11	11051	
596.3	13361	
596.49	12058	
596.68	11067	
596.88	11479	
597.07	13279	
597.26	12076	
597.45	10570	
597.64	11866	
597.83	12579	
598.02	13289	
598.22	10779	
598.41	11572	
598.6	13044	
598.79	12501	
598.98	11051	
599.17	12089	
599.36	13148	
599.55	14472	
599.74	13220	
599.94	13014	
600.13	13831	
600.32	12644	
600.51	11075	
600.7	11243	
600.89	14614	
601.08	14735	
601.27	11223	
601.47	12235	
601.66	14040	
601.85	14851	
602.04	12005	
602.23	12230	
602.42	13274	
602.61	14023	
602.8	12015	
602.99	11727	
603.18	13651	
603.37	13969	
603.57	12398	
603.76	13182	
603.95	14861	
604.14	14307	
604.33	11979	
604.52	12397	
604.71	13992	
604.9	13603	
605.09	12895	
605.28	12652	
605.47	14691	
605.66	14358	
605.86	12704	
606.05	11966	
606.24	14670	
606.43	13151	
606.62	12364	
606.81	13192	
607	14367	
607.19	13750	
607.38	11825	
607.57	11908	
607.76	13542	
607.95	12960	
608.14	12371	
608.33	12989	
608.52	13719	
608.72	14314	
608.91	11546	
609.1	11512	
609.29	13634	
609.48	13178	
609.67	12489	
609.86	11554	
610.05	13138	
610.24	13463	
610.43	11397	
610.62	10913	
610.81	14582	
611	14317	
611.19	11547	
611.38	12224	
611.57	13799	
611.76	15105	
611.95	11373	
612.14	10974	
612.33	13556	
612.52	13028	
612.71	11820	
612.9	10908	
613.09	12717	
613.28	15114	
613.47	11524	
613.66	12542	
613.85	13622	
614.04	13207	
614.24	11624	
614.43	10716	
614.62	13732	
614.81	13672	
615	12133	
615.19	12214	
615.38	12781	
615.57	13366	
615.76	11925	
615.95	13025	
616.14	13876	
616.33	13411	
616.52	12333	
616.71	12668	
616.9	13788	
617.09	13562	
617.28	11662	
617.47	13127	
617.66	12838	
617.85	12908	
618.04	12869	
618.22	12192	
618.41	13308	
618.6	14354	
618.79	12157	
618.98	11918	
619.17	14681	
619.36	12933	
619.55	12095	
619.74	12134	
619.93	14035	
620.12	13509	
620.31	12724	
620.5	13002	
620.69	14655	
620.88	15046	
621.07	13710	
621.26	12766	
621.45	14177	
621.64	14178	
621.83	12811	
622.02	12088	
622.21	14293	
622.4	14065	
622.59	13345	
622.78	13153	
622.97	13624	
623.16	14702	
623.35	12675	
623.54	11828	
623.72	13888	
623.91	14001	
624.1	12871	
624.29	11560	
624.48	15017	
624.67	14203	
624.86	12856	
625.05	11822	
625.24	15125	
625.43	13487	
625.62	14414	
625.81	12008	
626	14331	
626.19	13702	
626.38	12706	
626.56	11968	
626.75	13259	
626.94	14022	
627.13	12389	
627.32	10992	
627.51	13655	
627.7	15047	
627.89	11058	
628.08	12151	
628.27	12702	
628.46	12987	
628.65	11258	
628.83	10888	
629.02	13397	
629.21	12740	
629.4	11759	
629.59	12025	
629.78	12806	
629.97	13937	
630.16	12082	
630.35	11692	
630.54	14286	
630.72	14074	
630.91	11611	
631.1	12112	
631.29	13514	
631.48	13753	
631.67	12277	
631.86	11631	
632.05	13130	
632.24	13183	
632.42	11317	
632.61	11989	
632.8	13259	
632.99	12981	
633.18	12135	
633.37	12354	
633.56	13646	
633.75	13443	
633.93	12007	
634.12	11787	
634.31	14351	
634.5	14142	
634.69	11863	
634.88	12287	
635.07	13549	
635.25	14047	
635.44	12826	
635.63	13029	
635.82	13200	
636.01	12799	
636.2	12669	
636.39	12192	
636.57	14410	
636.76	14091	
636.95	11645	
637.14	13089	
637.33	13727	
637.52	14657	
637.7	11522	
637.89	12412	
638.08	13352	
638.27	14833	
638.46	12458	
638.65	12957	
638.83	14685	
639.02	13115	
639.21	12325	
639.4	12829	
639.59	13508	
639.78	13190	
639.96	11572	
640.15	11544	
640.34	13315	
640.53	13538	
640.72	11170	
640.91	11610	
641.09	12751	
641.28	14082	
641.47	11477	
641.66	12317	
641.85	13417	
642.03	13467	
642.22	11935	
642.41	11542	
642.6	12650	
642.79	11987	
642.97	11151	
643.16	11981	
643.35	12622	
643.54	12278	
643.73	10834	
643.91	11659	
644.1	11721	
644.29	12501	
644.48	10726	
644.67	10650	
644.85	11720	
645.04	12000	
645.23	9836.4	
645.42	10178	
645.6	11132	
645.79	12296	
645.98	9750.4	
646.17	8801.5	
646.36	10520	
646.54	11125	
646.73	10269	
646.92	9026.8	
647.11	10638	
647.29	11673	
647.48	9028.8	
647.67	8811	
647.86	11972	
648.05	11886	
648.23	9551	
648.42	10889	
648.61	11481	
648.8	11295	
648.98	9338.7	
649.17	9659.6	
649.36	10888	
649.55	10436	
649.73	9334	
649.92	10256	
650.11	10784	
650.3	11206	
650.48	9450	
650.67	9234.3	
650.86	11456	
651.05	10271	
651.23	9413.8	
651.42	9351	
651.61	10895	
651.79	10880	
651.98	9609.8	
652.17	9291.6	
652.36	11331	
652.54	10374	
652.73	9381.7	
652.92	9202.2	
653.11	11303	
653.29	11314	
653.48	8415.1	
653.67	9392	
653.85	10875	
654.04	12007	
654.23	9415.9	
654.42	9061.6	
654.6	10200	
654.79	10871	
654.98	8517.5	
655.16	8903.2	
655.35	9815.2	
655.54	9710.1	
655.73	8507.3	
655.91	8526.4	
656.1	10968	
656.29	9870.5	
656.47	8142.7	
656.66	9999.5	
656.85	10403	
657.03	10423	
657.22	8873.8	
657.41	8936.7	
657.59	10589	
657.78	10395	
657.97	8671.8	
658.16	9566.7	
658.34	11280	
658.53	11711	
658.72	10533	
658.9	10901	
659.09	10718	
659.28	10861	
659.46	9377	
659.65	9302.6	
659.84	10561	
660.02	11151	
660.21	9211.8	
660.4	9229.5	
660.58	11675	
660.77	11030	
660.96	9806.4	
661.14	8843.1	
661.33	12142	
661.52	11948	
661.7	8817.9	
661.89	12650	
662.08	10624	
662.26	10222	
662.45	9230.9	
662.64	9198.1	
662.82	11304	
663.01	10587	
663.2	9256.8	
663.38	10043	
663.57	11253	
663.75	11120	
663.94	9571.5	
664.13	10886	
664.31	10484	
664.5	11291	
664.69	9871.9	
664.87	10331	
665.06	10301	
665.25	11121	
665.43	10606	
665.62	10619	
665.8	11325	
665.99	10636	
666.18	9464.3	
666.36	9674.6	
666.55	11282	
666.74	11120	
666.92	9118.9	
667.11	10776	
667.29	10662	
667.48	11181	
667.67	10365	
667.85	9508	
668.04	10738	
668.22	10657	
668.41	9520.3	
668.6	9641.8	
668.78	10370	
668.97	10688	
669.15	9900.6	
669.34	8768	
669.53	10533	
669.71	10797	
669.9	8938.7	
670.08	9666.4	
670.27	10400	
670.46	11103	
670.64	9784.5	
670.83	10058	
671.01	10262	
671.2	10931	
671.38	9061.6	
671.57	9000.8	
671.76	11426	
671.94	12196	
672.13	8925.7	
672.31	9908.1	
672.5	11148	
672.69	10456	
672.87	8986.5	
673.06	9402.2	
673.24	10940	
673.43	10496	
673.61	9739.5	
673.8	9174.9	
673.98	11086	
674.17	11300	
674.36	9862.3	
674.54	9699.9	
674.73	10796	
674.91	11060	
675.1	9449.3	
675.28	9118.2	
675.47	10641	
675.65	11159	
675.84	9225.4	
676.03	9503.9	
676.21	10305	
676.4	9837.8	
676.58	10120	
676.77	9843.9	
676.95	11785	
677.14	10225	
677.32	8901.2	
677.51	8697.7	
677.69	11029	
677.88	9934	
678.06	8774.9	
678.25	8873.2	
678.44	10562	
678.62	10286	
678.81	8492.9	
678.99	9562.6	
679.18	11327	
679.36	10900	
679.55	9193.3	
679.73	9818	
679.92	10772	
680.1	10148	
680.29	10305	
680.47	9008.3	
680.66	10103	
680.84	11117	
681.03	8377.6	
681.21	9442.5	
681.4	10173	
681.58	10107	
681.77	8854.7	
681.95	8725.7	
682.14	10956	
682.32	11313	
682.51	9611.8	
682.69	8380.3	
682.88	9981.1	
683.06	10574	
683.25	9263	
683.43	9625.5	
683.62	10213	
683.8	10544	
683.99	9531.9	
684.17	8756.4	
684.36	11108	
684.54	9695.1	
684.73	7527	
684.91	7647.8	
685.1	9629.5	
685.28	8912.8	
685.46	8007.6	
685.65	7985.7	
685.83	9488.2	
686.02	8862.9	
686.2	7391.1	
686.39	7490.8	
686.57	8718.2	
686.76	10249	
686.94	7494.2	
687.13	7763.8	
687.31	9500.5	
687.5	8981.7	
687.68	7075.7	
687.86	8383	
688.05	10711	
688.23	8632.2	
688.42	8474.5	
688.6	7716.7	
688.79	9099.1	
688.97	8956.4	
689.16	8129.8	
689.34	6937.8	
689.52	9782.5	
689.71	9942.2	
689.89	8292.2	
690.08	7532.4	
690.26	9141.4	
690.45	8968.1	
690.63	8298.4	
690.81	7448.5	
691	8630.8	
691.18	8529.8	
691.37	7448.5	
691.55	9725.8	
691.74	8426	
691.92	10514	
692.1	7464.2	
692.29	6847.7	
692.47	8678.6	
692.66	7949.5	
692.84	7161.1	
693.02	7834.2	
693.21	8222.6	
693.39	8774.2	
693.58	8051.9	
693.76	7517.4	
693.94	10223	
694.13	10004	
694.31	7662.8	
694.5	8783.7	
694.68	8904.6	
694.86	9436.4	
695.05	8130.4	
695.23	8587.8	
695.42	9840.5	
695.6	12229	
695.78	8843.1	
695.97	7808.9	
696.15	9656.9	
696.34	8979	
696.52	7407.5	
696.7	8222.6	
696.89	9254.1	
697.07	8549.6	
697.25	7955	
697.44	9568.1	
697.62	9050	
697.81	9403.6	
697.99	7473.7	
698.17	7979.6	
698.36	8227.4	
698.54	8981.7	
698.72	7778.9	
698.91	6831.3	
699.09	8563.9	
699.28	8420.6	
699.46	7521.5	
699.64	7422.5	
699.83	8325	
700.01	9807.7	
700.19	8297	
700.38	6742.6	
700.56	9906.7	
700.74	8721.6	
700.93	7301.7	
701.11	8134.5	
701.29	9410.4	
701.48	10556	
701.66	7566.6	
701.84	7701	
702.03	8988.5	
702.21	9649.3	
702.39	7223.2	
702.58	7791.2	
702.76	9339.4	
702.94	9495.1	
703.13	7141.9	
703.31	9572.9	
703.49	8596.7	
703.68	9563.3	
703.86	7326.3	
704.04	8454	
704.23	9069.1	
704.41	9595.4	
704.59	7559.1	
704.78	8842.4	
704.96	10393	
705.14	9628.9	
705.33	7415	
705.51	8145.5	
705.69	9113.5	
705.87	10030	
706.06	8475.2	
706.24	7407.5	
706.42	9574.9	
706.61	9794.8	
706.79	8555	
706.97	7434.8	
707.16	8843.1	
707.34	9503.3	
707.52	8534.6	
707.7	7707.2	
707.89	9215.9	
708.07	8763.3	
708.25	8513.4	
708.44	8688.8	
708.62	9056.1	
708.8	10129	
708.98	8876.6	
709.17	7805.5	
709.35	9466.4	
709.53	9449.3	
709.72	7510.6	
709.9	7610.9	
710.08	9703.3	
710.26	9707.4	
710.45	9095	
710.63	7785.7	
710.81	9277.3	
710.99	9288.9	
711.18	8359.1	
711.36	7823.2	
711.54	8976.9	
711.72	9547.6	
711.91	7585.7	
712.09	7018.4	
712.27	8914.8	
712.45	9494.4	
712.64	7716.7	
712.82	6574	
713	8051.9	
713.18	8089.5	
713.37	6401.3	
713.55	7610.9	
713.73	8626.7	
713.91	7020.4	
714.1	6326.9	
714.28	5618.3	
714.46	7819.1	
714.64	6965.1	
714.83	4875.5	
715.01	5651	
715.19	6866.2	
715.37	6231.3	
715.55	5210	
715.74	5623.7	
715.92	7724.9	
716.1	5767.8	
716.28	6662.7	
716.47	5739.1	
716.65	6366.5	
716.83	6497.5	
717.01	5491.3	
717.19	5717.2	
717.38	8699.8	
717.56	6249.7	
717.74	5984.8	
717.92	5159.5	
718.1	7751.6	
718.29	6971.3	
718.47	4975.2	
718.65	5722	
718.83	7849.9	
719.01	7845.8	
719.2	5070.8	
719.38	6240.2	
719.56	7544	
719.74	9154.4	
719.92	5652.4	
720.11	6678.4	
720.29	7396.6	
720.47	6455.2	
720.65	5046.9	
720.83	5818.3	
721.02	6677.1	
721.2	6371.2	
721.38	5812.8	
721.56	5027.8	
721.74	5902.2	
721.92	6143.2	
722.11	6293.4	
722.29	5978.7	
722.47	7369.3	
722.65	6465.4	
722.83	5060.5	
723.01	5995.8	
723.2	6584.9	
723.38	6862.1	
723.56	4494.6	
723.74	5738.4	
723.92	6026.5	
724.1	7247.8	
724.29	5043.5	
724.47	6164.4	
724.65	6167.1	
724.83	6127.5	
725.01	4923.3	
725.19	5816.9	
725.37	6143.2	
725.56	6331.6	
725.74	4831.8	
725.92	5065.3	
726.1	6238.8	
726.28	6489.3	
726.46	5571.2	
726.64	5173.2	
726.83	6381.5	
727.01	6681.2	
727.19	4754	
727.37	5656.5	
727.55	6598.6	
727.73	7065.5	
727.91	4807.3	
728.09	4671.4	
728.28	7256.6	
728.46	7942	
728.64	5965.7	
728.82	5911.1	
729	8477.2	
729.18	7806.2	
729.36	5301.5	
729.54	7705.8	
729.72	9080	
729.91	7338.6	
730.09	7406.1	
730.27	6194.4	
730.45	7242.3	
730.63	7959.1	
730.81	6851.8	
730.99	5982.1	
731.17	8523.6	
731.35	7027.3	
731.53	6544.6	
731.71	6088.6	
731.9	8119.5	
732.08	8331.8	
732.26	6325.5	
732.44	5861.3	
732.62	8338.6	
732.8	7899.7	
732.98	6657.9	
733.16	5612.8	
733.34	7848.5	
733.52	6605.4	
733.7	6164.4	
733.88	6582.2	
734.07	7662.8	
734.25	7554.3	
734.43	5733.6	
734.61	7498.3	
734.79	9138	
734.97	7518.1	
735.15	5954.1	
735.33	6363.7	
735.51	7849.2	
735.69	7439.6	
735.87	7569.3	
736.05	6574	
736.23	7769.3	
736.41	7493.5	
736.59	6492.1	
736.77	6659.3	
736.95	8331.8	
737.13	7742.7	
737.32	6210.8	
737.5	6496.2	
737.68	8897.1	
737.86	7675.1	
738.04	6085.2	
738.22	7990.5	
738.4	7490.1	
738.58	7764.5	
738.76	6778.8	
738.94	5711.8	
739.12	7634.1	
739.3	7559.7	
739.48	7445	
739.66	7186.3	
739.84	7975.5	
740.02	8033.5	
740.2	5803.3	
740.38	6219.7	
740.56	8396.7	
740.74	7210.2	
740.92	6948.8	
741.1	6812.9	
741.28	7791.8	
741.46	7617.8	
741.64	6479.1	
741.82	6991.8	
742	7882.6	
742.18	7806.2	
742.36	6640.2	
742.54	6168.5	
742.72	8428.8	
742.9	7077.1	
743.08	7048.4	
743.26	5765	
743.44	8573.5	
743.62	8441	
743.8	7183.6	
743.98	6123.4	
744.16	8161.2	
744.34	7757	
744.52	7112.6	
744.7	7003.4	
744.88	8221.9	
745.06	7757.7	
745.24	7127.6	
745.42	7176.8	
745.6	8244.4	
745.78	7999.4	
745.96	5773.2	
746.14	6107.7	
746.32	8979	
746.5	8271.7	
746.68	6702.3	
746.86	6145.3	
747.03	8742.8	
747.21	6948.1	
747.39	6660.7	
747.57	6156.9	
747.75	7868.3	
747.93	8317.5	
748.11	6140.5	
748.29	6044.2	
748.47	9547.6	
748.65	7436.2	
748.83	6835.4	
749.01	6572.6	
749.19	8015.1	
749.37	7207.5	
749.55	6420.4	
749.73	6561.7	
749.91	7657.4	
750.09	7435.5	
750.26	6570.6	
750.44	5953.4	
750.62	7769.3	
750.8	7685.3	
750.98	5813.5	
751.16	6136.4	
751.34	7775.5	
751.52	7119.4	
751.7	6971.3	
751.88	5773.2	
752.06	8178.2	
752.24	8052.6	
752.42	5754.8	
752.59	6070.9	
752.77	7637.6	
752.95	8929.8	
753.13	6872.3	
753.31	6209.4	
753.49	7299	
753.67	7734.5	
753.85	6445	
754.03	6082.5	
754.21	8017.8	
754.38	8307.2	
754.56	6129.6	
754.74	5111.7	
754.92	6978.1	
755.1	7654.6	
755.28	4760.8	
755.46	4728.1	
755.64	7937.2	
755.82	7852.6	
755.99	4554.7	
756.17	4653.7	
756.35	5085.1	
756.53	6779.5	
756.71	3362.8	
756.89	4276.8	
757.07	6287.9	
757.25	5385.5	
757.42	4994.3	
757.6	5927.5	
757.78	6534.4	
757.96	5473.5	
758.14	4748.6	
758.32	4242.7	
758.5	4985.4	
758.67	5809.4	
758.85	4446.1	
759.03	4603.2	
759.21	5981.4	
759.39	5422.3	
759.57	4061.8	
759.75	5286.5	
759.92	6644.3	
760.1	5903.6	
760.28	5720.7	
760.46	6079.7	
760.64	5885.9	
760.82	5651	
760.99	5735	
761.17	4837.3	
761.35	6849.8	
761.53	5830.6	
761.71	5075.5	
761.89	5879.7	
762.06	6847.7	
762.24	6356.9	
762.42	5382.7	
762.6	5115.1	
762.78	6483.2	
762.96	6490	
763.13	5894.7	
763.31	5558.9	
763.49	7460.8	
763.67	6572.6	
763.85	6445	
764.02	7077.1	
764.2	7784.3	
764.38	6980.8	
764.56	5458.5	
764.74	6432	
764.91	7892.2	
765.09	6739.9	
765.27	5242.8	
765.45	4962.2	
765.63	7990.5	
765.8	7866.9	
765.98	4741	
766.16	5116.5	
766.34	6347.3	
766.52	6093.4	
766.69	6050.4	
766.87	4967	
767.05	6736.5	
767.23	7456	
767.41	5210.7	
767.58	5522	
767.76	7221.8	
767.94	7378.1	
768.12	5298.8	
768.29	6054.5	
768.47	6768.5	
768.65	7445.7	
768.83	4857.1	
769	6075.6	
769.18	6278.4	
769.36	7038.2	
769.54	6042.2	
769.72	4901.5	
769.89	7227.3	
770.07	7366.5	
770.25	5247.6	
770.43	6497.5	
770.6	8019.8	
770.78	8501.1	
770.96	5453.1	
771.14	6050.4	
771.31	7129.7	
771.49	6447.7	
771.67	4508.9	
771.85	4688.5	
772.02	5660.6	
772.2	6460	
772.38	5422.3	
772.55	4915.1	
772.73	6688	
772.91	6430.6	
773.09	5245.5	
773.26	5351.3	
773.44	6550.1	
773.62	6307.1	
773.8	4752.7	
773.97	4439.3	
774.15	6623.8	
774.33	6201.9	
774.5	4674.8	
774.68	4990.2	
774.86	6911.2	
775.04	6221.7	
775.21	4676.9	
775.39	4696	
775.57	6446.3	
775.74	6878.4	
775.92	4509.6	
776.1	4394.9	
776.27	6478.4	
776.45	7770	
776.63	4665.3	
776.81	4176.5	
776.98	6044.9	
777.16	7223.2	
777.34	4736.3	
777.51	4685.1	
777.69	5871.5	
777.87	5785.5	
778.04	4731.5	
778.22	5409.4	
778.4	5748.6	
778.57	6403.3	
778.75	4005.1	
778.93	4327.4	
779.1	5555.5	
779.28	5423.7	
779.46	4005.8	
779.64	4510.3	
779.81	6518.7	
779.99	7518.1	
780.17	5279.7	
780.34	5420.3	
780.52	5930.9	
780.69	6123.4	
780.87	4742.4	
781.05	4377.9	
781.22	5971.2	
781.4	6079.1	
781.58	4440.7	
781.75	3592.1	
781.93	5902.9	
782.11	5385.5	
782.28	5333.6	
782.46	4336.2	
782.64	5201.2	
782.81	6189.6	
782.99	4437.3	
783.17	4377.9	
783.34	6010.8	
783.52	5249.6	
783.69	4624.3	
783.87	5443.5	
784.05	5286.5	
784.22	5272.2	
784.4	5403.2	
784.58	4655	
784.75	6146	
784.93	5334.3	
785.1	4306.2	
785.28	4985.4	
785.46	5940.5	
785.63	5287.9	
785.81	4212.7	
785.99	4147.1	
786.16	5434.6	
786.34	5829.9	
786.51	4128.7	
786.69	4481.6	
786.87	5005.2	
787.04	5561.6	
787.22	4013.3	
787.39	4982.7	
787.57	5250.3	
787.75	6444.3	
787.92	5184.8	
788.1	5158.2	
788.27	5266.7	
788.45	5104.9	
788.63	4748.6	
788.8	3469.3	
788.98	5592.3	
789.15	4939.7	
789.33	3635.1	
789.5	4307.6	
789.68	6257.2	
789.86	6313.9	
790.03	4724	
790.21	4143.7	
790.38	6226.5	
790.56	5345.9	
790.73	3944.4	
790.91	4011.3	
791.09	5245.5	
791.26	6010.1	
791.44	4158.1	
791.61	3602.4	
791.79	5245.5	
791.96	5299.5	
792.14	3719.8	
792.32	3311.6	
792.49	5184.8	
792.67	5367	
792.84	3743.7	
793.02	3620.1	
793.19	5671.5	
793.37	6419.7	
793.54	3345	
793.72	3665.9	
793.89	6580.1	
794.07	5245.5	
794.25	4358.8	
794.42	3452.2	
794.6	6201.9	
794.77	5893.4	
794.95	4638.6	
795.12	3970.3	
795.3	5161.6	
795.47	5870.2	
795.65	4379.2	
795.82	4273.4	
796	4962.9	
796.17	6949.4	
796.35	4078.9	
796.52	4839.4	
796.7	5743.9	
796.87	5817.6	
797.05	5068	
797.22	4941.1	
797.4	5768.4	
797.57	6818.4	
797.75	4246.1	
797.92	3988.1	
798.1	6139.1	
798.27	5171.8	
798.45	3426.9	
798.62	3622.9	
798.8	5481	
798.97	5926.8	
799.15	4459.1	
799.32	4240	
799.5	4669.4	
799.67	5551.4	
799.85	4573.1	
800.02	3309.5	
800.2	5128.1	
800.37	5442.8	
800.55	4706.9	
800.72	4008.6	
800.9	5939.8	
801.07	6453.1	
801.25	5359.5	
801.42	4392.2	
801.6	5933.6	
801.77	5718.6	
801.95	4033.1	
802.12	3855	
802.29	5632.6	
802.47	5623	
802.64	4298	
802.82	3203.7	
802.99	5103.5	
803.17	6130.3	
803.34	4188.1	
803.52	3784	
803.69	6765.8	
803.87	4870.1	
804.04	4163.5	
804.21	4250.9	
804.39	6227.2	
804.56	5343.2	
804.74	3485	
804.91	4308.2	
805.09	5124.7	
805.26	5172.5	
805.44	3616	
805.61	3963.5	
805.78	5793.7	
805.96	5857.2	
806.13	4324.6	
806.31	4657.1	
806.48	4614.8	
806.66	5108.3	
806.83	4315.1	
807	4168.3	
807.18	5117.2	
807.35	5476.3	
807.53	4169.7	
807.7	3391.4	
807.87	6278.4	
808.05	5122.7	
808.22	4595.6	
808.4	3396.2	
808.57	5209.3	
808.74	4764.9	
808.92	3829	
809.09	4941.7	
809.27	4913.8	
809.44	5613.5	
809.61	3420.1	
809.79	3768.9	
809.96	6284.5	
810.14	5837.4	
810.31	3237.2	
810.48	4027	
810.66	5261.2	
810.83	6031.3	
811.01	3835.2	
811.18	4256.4	
811.35	5864.7	
811.53	4511.7	
811.7	4662.5	
811.87	4313	
812.05	5134.9	
812.22	5029.8	
812.39	3661.1	
812.57	3611.9	
812.74	5186.8	
812.92	6863.4	
813.09	4035.2	
813.26	4364.9	
813.44	6522.8	
813.61	5015.5	
813.78	3369.6	
813.96	4547.2	
814.13	5119.9	
814.3	4739.7	
814.48	4848.2	
814.65	4031.1	
814.82	6427.9	
815	4917.9	
815.17	4130.1	
815.34	4999.8	
815.52	5048.9	
815.69	5080.3	
815.87	4126	
816.04	3572.3	
816.21	5156.8	
816.38	4493.9	
816.56	3963.5	
816.73	3667.2	
816.9	6518.7	
817.08	5912.5	
817.25	3736.9	
817.42	4742.4	
817.6	4723.3	
817.77	5159.5	
817.94	4212.7	
818.12	3687.7	
818.29	4899.4	
818.46	7658.7	
818.64	3793.5	
818.81	3579.2	
818.98	4767.7	
819.16	7004.1	
819.33	4504.2	
819.5	4116.4	
819.67	5530.9	
819.85	6162.3	
820.02	4001.7	
820.19	4306.9	
820.37	5363.6	
820.54	4917.9	
820.71	4203.8	
820.88	5197.7	
821.06	5356.1	
821.23	4884.4	
821.4	4182.6	
821.58	4184.7	
821.75	5894.1	
821.92	5292.6	
822.09	3389.4	
822.27	3495.2	
822.44	5126.1	
822.61	5000.5	
822.79	3406.5	
822.96	6548	
823.13	5643.5	
823.3	4833.2	
823.48	3906.8	
823.65	3542.3	
823.82	5832.6	
823.99	4674.1	
824.17	5026.4	
824.34	3549.1	
824.51	6761	
824.68	5175.9	
824.86	3736.9	
825.03	4237.9	
825.2	5096	
825.37	6283.2	
825.55	3706.8	
825.72	4130.1	
825.89	6862.1	
826.06	6332.3	
826.24	4018.1	
826.41	4083.6	
826.58	6163	
826.75	5464	
826.92	3180.5	
827.1	3521.8	
827.27	8593.3	
827.44	6838.2	
827.61	3805.8	
827.79	4579.3	
827.96	4861.2	
828.13	5235.3	
828.3	3969	
828.47	3395.5	
828.65	5400.5	
828.82	5290.6	
828.99	5201.8	
829.16	4534.9	
829.34	5800.5	
829.51	5570.5	
829.68	4145.1	
829.85	4384.7	
830.02	6035.4	
830.2	5813.5	
830.37	3234.4	
830.54	5063.9	
830.71	6602.7	
830.88	5102.2	
831.05	3274.7	
831.23	3794.9	
831.4	6278.4	
831.57	7048.4	
831.74	3902.1	
831.91	3335.5	
832.09	5326.8	
832.26	5761.6	
832.43	3988.8	
832.6	4569	
832.77	5425.8	
832.94	6193.7	
833.12	3139.5	
833.29	3926.6	
833.46	5018.2	
833.63	7320.1	
833.8	4403.1	
833.97	4027.7	
834.15	5814.2	
834.32	5479	
834.49	4151.9	
834.66	4287.8	
834.83	6006.7	
835	4839.4	
835.17	3816	
835.35	3877.5	
835.52	5673.6	
835.69	5577.3	
835.86	4098.7	
836.03	3293.8	
836.2	5657.2	
836.37	5347.2	
836.55	3990.1	
836.72	3763.5	
836.89	5294	
837.06	5743.9	
837.23	4113	
837.4	4485.7	
837.57	6600.6	
837.75	7255.3	
837.92	3636.5	
838.09	3850.9	
838.26	5309.7	
838.43	6068.8	
838.6	4193.6	
838.77	3683.6	
838.94	6928.3	
839.11	6666.1	
839.29	3994.2	
839.46	3166.2	
839.63	5692.7	
839.8	5493.3	
839.97	3892.5	
840.14	3846.8	
840.31	5515.2	
840.48	5726.8	
840.65	3209.2	
840.82	3794.9	
841	5774.6	
841.17	5750	
841.34	3572.3	
841.51	3629.7	
841.68	5646.2	
841.85	5412.8	
842.02	3636.5	
842.19	3057.6	
842.36	5453.7	
842.53	5427.8	
842.7	3578.5	
842.87	4359.4	
843.05	7218.4	
843.22	5373.2	
843.39	3356.6	
843.56	3644	
843.73	5237.3	
843.9	5780.7	
844.07	5855.8	
844.24	4909	
844.41	8480.6	
844.58	4954.7	
844.75	3448.1	
844.92	3745.7	
845.09	5738.4	
845.26	5726.1	
845.43	3542.3	
845.6	3768.3	
845.77	5749.3	
845.94	5453.1	
846.12	3906.2	
846.29	4156	
846.46	5949.3	
846.63	5745.2	
846.8	3522.5	
846.97	4240	
847.14	6172.6	
847.31	5625.1	
847.48	3951.2	
847.65	4408.6	
847.82	6010.8	
847.99	5964.4	
848.16	4786.8	
848.33	4387.4	
848.5	5285.8	
848.67	6255.9	
848.84	3523.9	
849.01	3644	
849.18	5101.5	
849.35	4807.3	
849.52	4429.8	
849.69	3430.3	
849.86	5899.5	
850.03	6137.8	
850.2	3583.9	
850.37	4344.4	
850.54	6118.6	
850.71	5420.3	
850.88	4228.4	
851.05	3478.8	
851.22	5649.7	
851.39	6283.2	
851.56	3317.7	
851.73	4016.7	
851.9	5021.6	
852.07	5940.5	
852.24	3947.8	
852.41	3502	
852.58	5659.2	
852.75	5115.8	
852.92	3915.7	
853.09	3431.7	
853.26	5311.7	
853.43	6186.2	
853.6	3545	
853.77	3026.9	
853.94	6337.1	
854.11	5696.8	
854.28	5330.9	
854.44	3809.9	
854.61	6803.4	
854.78	5773.2	
854.95	3472	
855.12	4474.8	
855.29	4589.5	
855.46	6427.2	
855.63	3490.4	
855.8	4913.8	
855.97	5292.6	
856.14	6040.1	
856.31	5041.4	
856.48	3858.4	
856.65	5309.7	
856.82	4987.5	
856.99	3387.3	
857.16	3863.2	
857.33	6982.2	
857.49	5361.6	
857.66	3768.9	
857.83	4111	
858	5283.8	
858.17	5546.6	
858.34	3406.5	
858.51	3525.2	
858.68	6423.1	
858.85	6412.9	
859.02	4100	
859.19	4360.1	
859.36	4986.1	
859.52	5046.9	
859.69	3559.4	
859.86	4147.8	
860.03	5084.4	
860.2	6305	
860.37	3170.3	
860.54	3599	
860.71	5958.9	
860.88	6365.1	
861.05	4004.5	
861.21	4504.8	
861.38	6369.2	
861.55	4884.4	
861.72	3211.9	
861.89	3935.5	
862.06	6098.2	
862.23	6513.2	
862.4	3428.3	
862.56	3693.9	
862.73	5840.8	
862.9	5514.5	
863.07	4175.8	
863.24	3203	
863.41	4855.7	
863.58	5047.6	
863.75	3578.5	
863.91	4139.6	
864.08	6341.2	
864.25	5935	
864.42	4453	
864.59	4969.1	
864.76	6713.2	
864.93	5025	
865.09	3397.6	
865.26	3732.1	
865.43	6268.1	
865.6	6651.1	
865.77	3072	
865.94	3513.6	
866.1	6321.4	
866.27	6030.6	
866.44	5305.6	
866.61	3340.9	
866.78	5437.4	
866.95	5892.7	
867.11	3401.7	
867.28	3079.5	
867.45	6076.3	
867.62	5087.2	
867.79	4080.2	
867.96	3489.1	
868.12	4998.4	
868.29	6049	
868.46	3547.8	
868.63	4735.6	
868.8	6131.6	
868.97	5926.8	
869.13	3687.7	
869.3	3728	
869.47	5816.9	
869.64	6087.9	
869.81	3563.5	
869.97	3536.8	
870.14	5729.5	
870.31	6423.1	
870.48	3456.3	
870.65	4403.1	
870.81	5364.3	
870.98	5297.4	
871.15	4010.6	
871.32	3611.9	
871.48	5816.9	
871.65	6445.6	
871.82	3458.3	
871.99	3842.7	
872.16	6941.9	
872.32	6237.4	
872.49	3529.3	
872.66	3593.5	
872.83	5937.7	
872.99	5237.3	
873.16	4032.5	
873.33	3487.7	
873.5	5570.5	
873.67	5615.5	
873.83	3720.5	
874	4720.6	
874.17	5724.1	
874.34	6794.5	
874.5	4607.9	
874.67	4395.6	
874.84	6399.9	
875.01	4992.3	
875.17	4965	
875.34	3521.1	
875.51	5609.4	
875.68	6799.3	
875.84	4300.7	
876.01	5193	
876.18	5927.5	
876.34	5855.8	
876.51	3534.8	
876.68	3483.6	
876.85	5441.5	
877.01	6240.2	
877.18	5079	
877.35	3549.1	
877.52	5474.9	
877.68	4962.2	
877.85	3377.8	
878.02	3455.6	
878.18	5464	
878.35	5185.5	
878.52	2828.9	
878.69	3923.2	
878.85	5966.4	
879.02	5926.8	
879.19	5011.4	
879.35	3799	
879.52	5922	
879.69	6132.3	
879.86	2993.4	
880.02	3968.3	
880.19	5498.1	
880.36	6681.8	
880.52	4076.8	
880.69	4180.6	
880.86	5992.4	
881.02	6113.9	
881.19	3900	
881.36	3880.2	
881.52	5903.6	
881.69	5226.4	
881.86	3790.1	
882.02	3726.6	
882.19	6212.9	
882.36	7215	
882.52	3566.2	
882.69	4988.9	
882.86	5662.6	
883.02	5533.6	
883.19	4268	
883.36	4042	
883.52	6022.4	
883.69	6886.6	
883.86	3530	
884.02	3186.6	
884.19	5967.8	
884.36	5458.5	
884.52	4057	
884.69	3667.9	
884.86	5233.9	
885.02	6608.8	
885.19	3956.7	
885.36	4106.9	
885.52	5471.5	
885.69	5684.5	
885.86	5152.7	
886.02	4491.9	
886.19	5938.4	
886.35	5479.7	
886.52	3925.3	
886.69	5005.2	
886.85	5051.7	
887.02	6326.2	
887.19	6326.2	
887.35	6326.2	
887.52	6326.2	
887.68	6326.2	
887.85	6326.2	
888.02	6326.2	
888.18	6326.2	
888.35	6326.2	
888.51	6326.2	
888.68	6326.2	
888.85	6326.2	
889.01	6326.2	
889.18	6326.2	
889.35	6326.2	
889.51	6326.2	
889.68	6326.2	
889.84	6326.2	
890.01	6326.2	
890.17	6326.2	
890.34	6326.2	
890.51	6326.2	
890.67	6326.2	
890.84	6326.2	
891	6326.2	
891.17	6326.2	
891.34	6326.2	
891.5	6326.2	
891.67	6326.2	
891.83	6326.2	
892	6326.2	
892.16	6326.2	
892.33	6326.2	
892.5	6326.2	
892.66	6326.2	
892.83	6326.2	
892.99	6326.2	
893.16	6326.2	
893.32	6326.2	
893.49	6326.2	
893.65	6326.2	
893.82	6326.2	
893.99	6326.2	
894.15	6326.2	
894.32	6326.2	
894.48	6326.2	
894.65	6326.2	
894.81	6326.2	
894.98	6326.2	
895.14	6326.2	
895.31	6326.2	
895.47	6326.2	
895.64	6326.2	
895.81	6326.2	
895.97	6326.2	
896.14	6326.2	
896.3	6326.2	
896.47	6326.2	
896.63	6326.2	
896.8	6326.2	
896.96	6326.2	
897.13	6326.2	
897.29	6326.2	
897.46	6326.2	
897.62	6326.2	
897.79	6326.2	
897.95	6326.2	
898.12	6326.2	
898.28	6326.2	
898.45	6326.2	
898.61	6326.2	
898.78	6326.2	
898.94	6326.2	
899.11	6326.2	
899.27	6326.2	
899.44	6326.2	
899.6	6326.2	
899.77	6326.2	
899.93	6326.2	
900.1	6326.2	
900.26	6326.2	
900.43	6326.2	
900.59	6326.2	
900.76	6326.2	
900.92	6326.2	
901.09	6326.2	
901.25	6326.2	
901.42	6326.2	
901.58	6326.2	
901.75	6326.2	
901.91	6326.2	
902.07	6326.2	
902.24	6326.2	
902.4	6326.2	
902.57	6326.2	
902.73	6326.2	
902.9	6326.2	
903.06	6326.2	
903.23	6326.2	
903.39	6326.2	
903.56	6326.2	
903.72	6326.2	
903.88	6326.2	
904.05	6326.2	
904.21	6326.2	
904.38	6326.2	
904.54	6326.2	
904.71	6326.2	
904.87	6326.2	
905.03	6326.2	
905.2	6326.2	
905.36	6326.2	
905.53	6326.2	
905.69	6326.2	
905.86	6326.2	
906.02	6326.2	
906.18	6326.2	
906.35	6326.2	
906.51	6326.2	
906.68	6326.2	
906.84	6326.2	
907.01	6326.2	
907.17	6326.2	
907.33	6326.2	
907.5	6326.2	
907.66	6326.2	
907.83	6326.2	
907.99	6326.2	
908.15	6326.2	
908.32	6326.2	
908.48	6326.2	
908.65	6326.2	
908.81	6326.2	
908.97	6326.2	
909.14	6326.2	
909.3	6326.2	
909.47	6326.2	
909.63	6326.2	
909.79	6326.2	
909.96	6326.2	
910.12	6326.2	
910.28	6326.2	
910.45	6326.2	
910.61	6326.2	
910.78	6326.2	
910.94	6326.2	
911.1	6326.2	
911.27	6326.2	
911.43	6326.2	
911.59	6326.2	
911.76	6326.2	
911.92	6326.2	
912.08	6326.2	
912.25	6326.2	
912.41	6326.2	
912.57	6326.2	
912.74	6326.2	
912.9	6326.2	
913.07	6326.2	
913.23	6326.2	
913.39	6326.2	
913.56	6326.2	
913.72	6326.2	
913.88	6326.2	
914.05	6326.2	
914.21	6326.2	
914.37	6326.2	
914.54	6326.2	
914.7	6326.2	
914.86	6326.2	
915.03	6326.2	
915.19	6326.2	
