Wavelength	Intensities	
nm	a.u.	
179.22	1665.9	
179.44	1653.7	
179.65	1678	
179.86	1629.5	
180.08	1655.4	
180.29	3775.8	
180.51	2973	
180.72	4909.7	
180.94	5494.7	
181.15	2661.7	
181.37	2626.2	
181.58	4720.6	
181.79	4880.3	
182.01	2743.6	
182.22	2921.1	
182.44	4953.4	
182.65	4256.4	
182.87	3556	
183.08	3179.1	
183.29	5195	
183.51	4284.4	
183.72	2906.1	
183.94	4003.1	
184.15	4656.4	
184.37	4618.9	
184.58	2639.8	
184.79	3323.2	
185.01	4390.8	
185.22	4918.5	
185.44	3532.1	
185.65	3063.8	
185.86	4571.1	
186.08	4247.5	
186.29	2579.8	
186.51	2753.2	
186.72	4444.8	
186.94	4992.9	
187.15	3076.7	
187.36	3129.3	
187.58	6239.5	
187.79	4675.5	
188.01	3224.9	
188.22	4851.6	
188.43	5527.5	
188.65	4882.4	
188.86	2745	
189.08	3149.8	
189.29	4498	
189.5	4478.2	
189.72	2949.1	
189.93	2969.6	
190.15	5007.3	
190.36	5754.8	
190.57	3179.8	
190.79	3081.5	
191	5021.6	
191.22	5027.1	
191.43	3244	
191.64	2784.6	
191.86	5234.6	
192.07	5086.5	
192.29	2822.1	
192.5	2942.2	
192.71	5034.6	
192.93	4492.6	
193.14	2910.2	
193.35	3035.1	
193.57	4416.1	
193.78	5036.6	
194	2409.8	
194.21	2863.7	
194.42	4339.6	
194.64	4673.5	
194.85	3149.1	
195.07	3617.4	
195.28	4661.9	
195.49	4192.9	
195.71	3785.3	
195.92	2712.2	
196.13	4795	
196.35	4855.7	
196.56	3919.8	
196.78	3187.3	
196.99	5730.2	
197.2	5410.1	
197.42	3522.5	
197.63	3175.7	
197.84	4240	
198.06	4789.5	
198.27	2930.6	
198.48	3777.8	
198.7	4493.2	
198.91	4691.9	
199.13	3174.4	
199.34	3186.6	
199.55	5027.8	
199.77	4059.1	
199.98	2863.1	
200.19	3241.3	
200.41	4655	
200.62	4370.4	
200.83	3241.9	
201.05	3459	
201.26	4630.5	
201.47	4442	
201.69	2913.6	
201.9	2832.3	
202.11	4694.6	
202.33	5328.8	
202.54	3029.6	
202.76	3361.4	
202.97	4650.3	
203.18	4743.8	
203.4	3269.9	
203.61	3326.6	
203.82	4661.2	
204.04	4382	
204.25	3209.2	
204.46	3093.1	
204.68	4644.1	
204.89	4810.7	
205.1	3063.1	
205.32	2755.9	
205.53	4885.8	
205.74	4993.6	
205.96	2434.4	
206.17	3246	
206.38	4870.1	
206.6	5012.1	
206.81	3591.5	
207.02	2959.3	
207.24	4848.9	
207.45	5077.6	
207.66	3065.1	
207.88	2683.5	
208.09	4730.1	
208.3	4651.6	
208.52	2829.6	
208.73	3099.9	
208.94	4627	
209.15	5136.3	
209.37	3094.5	
209.58	3158.7	
209.79	5016.8	
210.01	4519.9	
210.22	2541.5	
210.43	2585.9	
210.65	4570.4	
210.86	4894	
211.07	3042.6	
211.29	2824.8	
211.5	4780	
211.71	4566.3	
211.93	2817.3	
212.14	2870.6	
212.35	4629.8	
212.56	4668	
212.78	3190.1	
212.99	2710.8	
213.2	5276.3	
213.42	4504.2	
213.63	2914.9	
213.84	3066.5	
214.06	4250.9	
214.27	4301.4	
214.48	3009.8	
214.69	3289	
214.91	5143.1	
215.12	5167	
215.33	3221.5	
215.55	3426.3	
215.76	5481	
215.97	4848.2	
216.18	3176.4	
216.4	3093.1	
216.61	4435.9	
216.82	4943.1	
217.04	2841.9	
217.25	2949.8	
217.46	5063.3	
217.67	4913.1	
217.89	2587.3	
218.1	2655.5	
218.31	4690.5	
218.53	4760.2	
218.74	2984.6	
218.95	2878.1	
219.16	4628.4	
219.38	5244.2	
219.59	2837.1	
219.8	3375.7	
220.01	5668.1	
220.23	4644.8	
220.44	3645.4	
220.65	2848	
220.87	4706.9	
221.08	5103.5	
221.29	2699.9	
221.5	3396.9	
221.72	5984.8	
221.93	4419.5	
222.14	3183.9	
222.35	3695.2	
222.57	4696	
222.78	4922	
222.99	3065.1	
223.2	3259.7	
223.42	4770.4	
223.63	4905.6	
223.84	2465.8	
224.05	2475.3	
224.27	5600.5	
224.48	5235.3	
224.69	3681.6	
224.9	3208.5	
225.12	4769.7	
225.33	4610.7	
225.54	2641.9	
225.75	2909.5	
225.97	4354.7	
226.18	4554.7	
226.39	3056.3	
226.6	2910.2	
226.82	4492.6	
227.03	4318.5	
227.24	3150.5	
227.45	2689.7	
227.67	4974.5	
227.88	5265.3	
228.09	3550.5	
228.3	3490.4	
228.52	4886.5	
228.73	4558.8	
228.94	2936.8	
229.15	2649.4	
229.36	4625.7	
229.58	4589.5	
229.79	3044.6	
230	3422.8	
230.21	5430.5	
230.43	4638.6	
230.64	3204.4	
230.85	3232.4	
231.06	4986.8	
231.28	4947.2	
231.49	2667.8	
231.7	3135.4	
231.91	4913.1	
232.12	4646.2	
232.34	2813.9	
232.55	3059	
232.76	5029.8	
232.97	4756.1	
233.18	2856.2	
233.4	3205.1	
233.61	4775.2	
233.82	4453.6	
234.03	3004.4	
234.25	2984.6	
234.46	6092.7	
234.67	4670.1	
234.88	3248.8	
235.09	2919	
235.31	4746.5	
235.52	4577.2	
235.73	3140.9	
235.94	2740.2	
236.15	4433.2	
236.37	5483.1	
236.58	2844.6	
236.79	3047.4	
237	4864.6	
237.21	4276.2	
237.43	3220.1	
237.64	2665.1	
237.85	7511.9	
238.06	4392.2	
238.27	3265.1	
238.48	2792.1	
238.7	4861.2	
238.91	4554.7	
239.12	3067.2	
239.33	3164.1	
239.54	4389.5	
239.76	4522.6	
239.97	3072	
240.18	3053.5	
240.39	5544.5	
240.6	4802.5	
240.82	3216	
241.03	2691	
241.24	4606.6	
241.45	5186.1	
241.66	2805.7	
241.87	3360.7	
242.09	5239.4	
242.3	5385.5	
242.51	3299.3	
242.72	3032.4	
242.93	4967	
243.14	4590.2	
243.36	3472	
243.57	3772.4	
243.78	5260.5	
243.99	4825.7	
244.2	3138.2	
244.41	2792.1	
244.63	4319.2	
244.84	4771.8	
245.05	3209.8	
245.26	3009.1	
245.47	4855.7	
245.68	4979.3	
245.9	3850.9	
246.11	3179.1	
246.32	4513.7	
246.53	4817.5	
246.74	4644.1	
246.95	2667.8	
247.16	4388.8	
247.38	4671.4	
247.59	2643.9	
247.8	3057.6	
248.01	4361.5	
248.22	4622.3	
248.43	2807.1	
248.64	3052.2	
248.86	4297.3	
249.07	4536.9	
249.28	2770.2	
249.49	3149.1	
249.7	4973.2	
249.91	5060.5	
250.12	2671.2	
250.34	2652.1	
250.55	4792.2	
250.76	4665.3	
250.97	3165.5	
251.18	3163.4	
251.39	5026.4	
251.6	4752	
251.81	3199.6	
252.03	3190.1	
252.24	4474.1	
252.45	4945.8	
252.66	2735.4	
252.87	3305.4	
253.08	4682.3	
253.29	5713.8	
253.5	2782.5	
253.72	3645.4	
253.93	4537.6	
254.14	5309.7	
254.35	2975	
254.56	3017.3	
254.77	4823.6	
254.98	4357.4	
255.19	2970.9	
255.41	3646.1	
255.62	4773.1	
255.83	5102.9	
256.04	3308.8	
256.25	3212.6	
256.46	5458.5	
256.67	4455	
256.88	3170.3	
257.09	3454.2	
257.31	4349.2	
257.52	4384.7	
257.73	3855	
257.94	2942.2	
258.15	4617.5	
258.36	4670.1	
258.57	3596.2	
258.78	2392	
258.99	4979.3	
259.2	4513	
259.41	2897.9	
259.63	3051.5	
259.84	5214.1	
260.05	5467.4	
260.26	3670.6	
260.47	2884.2	
260.68	5036.6	
260.89	4512.4	
261.1	3421.5	
261.31	2808.4	
261.52	5123.3	
261.73	5292	
261.95	3707.5	
262.16	3323.9	
262.37	5162.2	
262.58	5210	
262.79	3706.8	
263	2921.8	
263.21	4650.3	
263.42	4280.3	
263.63	3215.3	
263.84	2966.8	
264.05	5023	
264.26	5254.4	
264.47	3581.2	
264.69	3188	
264.9	5205.9	
265.11	4717.2	
265.32	2847.4	
265.53	2893.8	
265.74	4754.7	
265.95	4186	
266.16	3096.5	
266.37	3361.4	
266.58	4747.9	
266.79	4509.6	
267	2942.9	
267.21	2750.4	
267.42	4348.5	
267.63	4633.9	
267.84	3018.7	
268.06	2679.4	
268.27	4987.5	
268.48	5116.5	
268.69	2982.5	
268.9	3485	
269.11	5135.6	
269.32	4197	
269.53	3083.6	
269.74	2870.6	
269.95	4821.6	
270.16	4212	
270.37	3111.5	
270.58	3463.8	
270.79	4584.7	
271	5000.5	
271.21	3239.9	
271.42	3099.3	
271.63	4800.4	
271.84	4337.6	
272.05	2594.8	
272.26	2748.4	
272.47	4627.7	
272.68	4760.2	
272.89	2989.4	
273.11	3337.5	
273.32	4474.8	
273.53	5291.3	
273.74	3269.2	
273.95	3175	
274.16	4947.9	
274.37	4618.9	
274.58	3407.1	
274.79	2763.4	
275	4786.8	
275.21	5026.4	
275.42	3916.4	
275.63	3388	
275.84	4861.2	
276.05	5823.7	
276.26	3177.8	
276.47	3020.8	
276.68	4575.2	
276.89	5336.3	
277.1	3400.3	
277.31	2776.4	
277.52	4805.9	
277.73	5010	
277.94	2676	
278.15	2927.2	
278.36	4830.5	
278.57	4390.8	
278.78	2981.8	
278.99	3300.6	
279.2	4457.7	
279.41	4371	
279.62	3796.9	
279.83	2753.8	
280.04	5532.9	
280.25	4347.8	
280.46	3749.8	
280.67	3050.1	
280.88	4409.3	
281.09	5047.6	
281.3	3211.2	
281.51	3908.2	
281.72	4424.3	
281.93	4922	
282.14	2910.2	
282.35	3099.9	
282.56	5008	
282.77	4885.8	
282.98	2970.9	
283.19	3571.7	
283.4	5898.2	
283.61	4588.1	
283.82	2800.3	
284.03	3694.5	
284.24	4764.3	
284.45	5074.9	
284.66	3767.6	
284.87	3539.6	
285.08	5010	
285.29	5207.3	
285.5	2681.5	
285.71	3016.7	
285.92	5043.5	
286.12	5552.7	
286.33	3659.7	
286.54	3060.3	
286.75	4944.5	
286.96	4524	
287.17	2874.7	
287.38	3599.6	
287.59	4453.6	
287.8	4394.3	
288.01	3044	
288.22	3380.5	
288.43	4866.7	
288.64	4235.2	
288.85	3484.3	
289.06	3374.4	
289.27	5233.9	
289.48	5229.1	
289.69	3735.5	
289.9	3392.1	
290.11	5126.1	
290.32	4490.5	
290.53	3534.1	
290.74	3235.1	
290.94	4944.5	
291.15	4979.3	
291.36	2914.3	
291.57	3398.9	
291.78	4526	
291.99	4193.6	
292.2	2809.8	
292.41	3273.3	
292.62	5037.3	
292.83	4859.8	
293.04	3979.9	
293.25	2828.9	
293.46	4497.3	
293.67	5032.5	
293.88	2869.9	
294.09	2830.3	
294.29	4365.6	
294.5	4742.4	
294.71	3075.4	
294.92	2940.2	
295.13	4505.5	
295.34	5487.9	
295.55	2659.6	
295.76	2649.4	
295.97	4937	
296.18	5467.4	
296.39	2739.5	
296.6	2917.7	
296.81	4718.5	
297.01	4978.6	
297.22	3049.4	
297.43	2908.8	
297.64	4512.4	
297.85	4373.1	
298.06	2482.1	
298.27	2661.7	
298.48	4640	
298.69	4416.1	
298.9	3151.8	
299.11	2876.7	
299.31	4317.1	
299.52	4309.6	
299.73	3323.2	
299.94	3225.6	
300.15	4627.7	
300.36	4387.4	
300.57	3209.2	
300.78	3246.7	
300.99	4545.1	
301.2	4713.1	
301.4	2923.8	
301.61	3039.2	
301.82	4894.6	
302.03	4928.8	
302.24	3480.2	
302.45	2771.6	
302.66	4865.3	
302.87	5142.4	
303.08	2895.8	
303.29	3811.3	
303.49	4496.7	
303.7	4597.7	
303.91	2695.1	
304.12	3685	
304.33	4299.4	
304.54	4752	
304.75	2926.5	
304.96	2800.3	
305.16	4937	
305.37	5365	
305.58	2641.9	
305.79	2686.3	
306	4904.9	
306.21	4217.5	
306.42	2894.5	
306.63	4210.6	
306.83	4524.6	
307.04	4950.6	
307.25	3196.9	
307.46	3138.9	
307.67	4134.8	
307.88	4870.8	
308.09	2932	
308.29	2958.6	
308.5	4661.2	
308.71	5029.8	
308.92	3049.4	
309.13	2816.6	
309.34	4637.3	
309.55	4548.5	
309.75	3556.6	
309.96	3212.6	
310.17	4924.7	
310.38	4445.5	
310.59	3378.5	
310.8	2763.4	
311.01	4485.1	
311.21	4561.5	
311.42	2854.2	
311.63	2906.8	
311.84	4495.3	
312.05	4684.4	
312.26	3236.5	
312.46	3437.2	
312.67	4596.3	
312.88	4289.8	
313.09	2842.6	
313.3	2785.2	
313.51	5165	
313.71	5417.6	
313.92	2828.9	
314.13	3002.3	
314.34	4836.6	
314.55	4616.8	
314.76	3465.2	
314.96	3114.3	
315.17	4795.7	
315.38	4859.1	
315.59	2859	
315.8	2732.7	
316.01	5124	
316.21	5264.6	
316.42	2814.6	
316.63	3142.3	
316.84	4564.9	
317.05	5101.5	
317.26	3293.1	
317.46	2947.7	
317.67	4640	
317.88	4850.3	
318.09	3483.6	
318.3	2684.9	
318.5	4484.4	
318.71	4801.8	
318.92	4323.9	
319.13	3330	
319.34	4975.9	
319.54	5078.3	
319.75	2642.6	
319.96	2568.2	
320.17	4827.7	
320.38	5022.3	
320.58	2626.2	
320.79	3046.7	
321	5052.3	
321.21	5130.8	
321.42	3082.2	
321.62	2640.5	
321.83	4431.8	
322.04	4692.6	
322.25	3047.4	
322.46	2811.2	
322.66	4784.1	
322.87	4846.2	
323.08	3380.5	
323.29	2769.5	
323.5	5421.7	
323.7	4349.9	
323.91	3675.4	
324.12	3335.5	
324.33	4720.6	
324.53	4905.6	
324.74	3238.5	
324.95	3362.1	
325.16	4298.7	
325.37	4504.2	
325.57	2832.3	
325.78	2900.6	
325.99	4795.7	
326.2	4351.9	
326.4	3856.3	
326.61	2643.2	
326.82	4653	
327.03	4694.6	
327.24	3932.8	
327.44	3609.2	
327.65	4851	
327.86	4068.6	
328.07	3237.8	
328.27	2775.7	
328.48	5133.6	
328.69	4326.7	
328.9	3881.6	
329.1	2932.7	
329.31	4598.4	
329.52	5139.7	
329.73	2871.9	
329.93	3072.6	
330.14	4730.1	
330.35	4799.8	
330.56	4392.2	
330.76	3392.8	
330.97	4477.5	
331.18	4746.5	
331.39	3092.4	
331.59	2611.2	
331.8	5054.4	
332.01	5070.8	
332.22	2925.9	
332.42	3226.2	
332.63	4792.9	
332.84	4405.2	
333.05	3173.7	
333.25	2889.7	
333.46	4427.7	
333.67	4592.2	
333.88	2951.1	
334.08	3201	
334.29	5866.7	
334.5	5014.1	
334.7	2756.6	
334.91	3867.9	
335.12	4259.8	
335.33	4859.1	
335.53	3111.5	
335.74	4293.2	
335.95	4543.1	
336.16	4329.4	
336.36	3056.9	
336.57	3492.5	
336.78	4291.9	
336.98	5029.8	
337.19	3757.3	
337.4	3019.4	
337.61	5460.6	
337.81	4263.9	
338.02	2846.7	
338.23	3554.6	
338.43	5117.2	
338.64	4362.9	
338.85	2863.7	
339.05	3535.5	
339.26	5244.8	
339.47	4240.7	
339.68	2901.3	
339.88	3956.7	
340.09	4866.7	
340.3	4969.7	
340.5	3269.2	
340.71	2594.8	
340.92	4280.3	
341.13	5074.9	
341.33	2730.6	
341.54	3261.7	
341.75	4812.7	
341.95	4533.5	
342.16	3136.8	
342.37	3359.4	
342.57	4325.3	
342.78	4601.8	
342.99	3363.4	
343.19	2637.8	
343.4	4949.9	
343.61	4767.7	
343.81	3042.6	
344.02	2790	
344.23	4924	
344.43	5184.8	
344.64	3457.7	
344.85	3411.2	
345.06	4880.3	
345.26	5025	
345.47	3232.4	
345.68	3607.2	
345.88	4199	
346.09	4973.2	
346.3	3330	
346.5	2529.2	
346.71	4565.6	
346.92	4442	
347.12	2734.7	
347.33	3216	
347.54	5023	
347.74	5283.8	
347.95	3255.6	
348.16	2492.4	
348.36	4483.7	
348.57	4361.5	
348.78	3250.1	
348.98	3380.5	
349.19	4571.1	
349.39	4246.8	
349.6	2689	
349.81	2878.1	
350.01	4863.9	
350.22	4390.8	
350.43	3132	
350.63	3631	
350.84	4675.5	
351.05	4455	
351.25	2847.4	
351.46	2661	
351.67	4985.4	
351.87	4425.7	
352.08	3001	
352.29	3378.5	
352.49	4960.2	
352.7	4747.2	
352.9	2762.7	
353.11	3375.7	
353.32	5368.4	
353.52	4492.6	
353.73	2753.8	
353.94	3398.3	
354.14	4874.8	
354.35	4652.3	
354.55	2894.5	
354.76	3123.8	
354.97	4851	
355.17	4569	
355.38	2770.2	
355.59	3575.1	
355.79	4407.9	
356	4599.1	
356.2	3151.8	
356.41	2755.2	
356.62	4246.1	
356.82	4532.8	
357.03	3340.9	
357.24	2997.5	
357.44	4359.4	
357.65	4474.8	
357.85	3856.3	
358.06	3129.3	
358.27	4202.4	
358.47	4274.8	
358.68	2694.4	
358.88	3265.1	
359.09	4788.2	
359.3	4992.9	
359.5	3751.9	
359.71	3369.6	
359.91	5255.8	
360.12	4829.8	
360.33	3311.6	
360.53	3647.4	
360.74	4388.8	
360.94	4480.3	
361.15	3409.2	
361.36	2960	
361.56	4996.4	
361.77	4616.8	
361.97	3788.1	
362.18	3088.3	
362.38	4992.3	
362.59	4296.6	
362.8	2865.1	
363	2788.7	
363.21	4169	
363.41	4623.6	
363.62	3265.8	
363.83	3877.5	
364.03	4771.8	
364.24	5286.5	
364.44	4049.5	
364.65	3891.8	
364.85	4584	
365.06	4380.6	
365.27	3015.3	
365.47	3053.5	
365.68	5300.1	
365.88	4571.1	
366.09	3288.4	
366.29	3023.5	
366.5	4736.3	
366.71	4974.5	
366.91	3883.6	
367.12	3379.1	
367.32	5439.4	
367.53	4952	
367.73	3418.1	
367.94	4042	
368.14	4946.5	
368.35	5474.2	
368.56	3368.9	
368.76	2908.8	
368.97	5062.6	
369.17	6029.9	
369.38	3033.7	
369.58	3216.7	
369.79	4278.9	
369.99	5255.8	
370.2	3927.3	
370.4	3259.7	
370.61	4730.1	
370.82	5649.7	
371.02	3207.8	
371.23	2794.1	
371.43	4332.8	
371.64	5260.5	
371.84	3257	
372.05	4006.5	
372.25	5974.6	
372.46	4935.6	
372.66	3211.9	
372.87	3188.7	
373.07	4950.6	
373.28	6111.1	
373.48	3938.2	
373.69	3672	
373.9	4671.4	
374.1	4702.1	
374.31	3853.6	
374.51	3477.5	
374.72	5209.3	
374.92	4487.1	
375.13	3992.2	
375.33	3378.5	
375.54	4935.6	
375.74	4618.9	
375.95	3539.6	
376.15	4323.3	
376.36	5005.2	
376.56	4831.8	
376.77	3510.9	
376.97	3869.3	
377.18	5671.5	
377.38	5030.5	
377.59	3958.7	
377.79	3240.6	
378	4939.7	
378.2	5072.1	
378.41	3188	
378.61	3112.2	
378.82	5242.1	
379.02	4648.9	
379.23	3420.8	
379.43	4031.8	
379.64	5341.8	
379.84	4956.1	
380.05	3245.3	
380.25	3166.2	
380.46	5108.3	
380.66	4792.9	
380.87	4078.9	
381.07	4360.8	
381.28	5511.1	
381.48	5040.7	
381.69	3293.8	
381.89	3251.5	
382.1	4405.9	
382.3	5113.1	
382.51	3975.1	
382.71	4567	
382.91	4963.6	
383.12	5365.7	
383.32	3465.8	
383.53	3635.8	
383.73	4937.7	
383.94	4870.1	
384.14	3607.2	
384.35	3041.2	
384.55	4706.2	
384.76	5029.1	
384.96	3542.3	
385.17	3685	
385.37	5046.2	
385.58	4513	
385.78	3635.8	
385.98	3004.4	
386.19	4734.2	
386.39	5027.8	
386.6	3292.5	
386.8	3462.4	
387.01	5063.3	
387.21	5100.8	
387.42	3776.5	
387.62	4101.4	
387.83	4675.5	
388.03	4864.6	
388.23	3547.8	
388.44	4019.5	
388.64	4401.8	
388.85	4446.1	
389.05	3754.6	
389.26	4194.2	
389.46	5840.1	
389.67	5405.3	
389.87	3734.8	
390.07	3759.4	
390.28	4742.4	
390.48	4502.8	
390.69	3196.9	
390.89	3502.7	
391.1	4737.6	
391.3	5257.1	
391.5	4287.1	
391.71	4575.2	
391.91	5141.8	
392.12	5652.4	
392.32	4259.8	
392.53	3733.4	
392.73	4738.3	
392.93	4815.5	
393.14	3581.9	
393.34	4073.4	
393.55	5189.6	
393.75	4806.6	
393.95	3518.4	
394.16	3452.9	
394.36	4670.1	
394.57	5133.6	
394.77	3181.2	
394.98	3415.3	
395.18	4651.6	
395.38	4783.4	
395.59	4055.7	
395.79	3323.9	
396	4798.4	
396.2	5172.5	
396.4	3866.6	
396.61	3801.7	
396.81	5119.2	
397.02	4711.7	
397.22	4080.2	
397.42	4106.2	
397.63	5245.5	
397.83	4718.5	
398.04	3328.6	
398.24	3667.2	
398.44	5053.7	
398.65	4360.8	
398.85	3266.5	
399.05	3280.8	
399.26	4726.7	
399.46	5766.4	
399.67	3622.2	
399.87	3464.5	
400.07	4975.2	
400.28	5162.2	
400.48	3467.9	
400.69	4164.2	
400.89	5244.2	
401.09	5704.3	
401.3	3444	
401.5	4116.4	
401.7	5753.4	
401.91	5909.1	
402.11	3706.8	
402.32	3762.8	
402.52	5344.5	
402.72	5262.6	
402.93	3918.4	
403.13	3138.9	
403.33	5857.9	
403.54	4930.8	
403.74	3737.5	
403.94	4302.8	
404.15	5063.3	
404.35	5818.3	
404.56	3551.9	
404.76	4792.9	
404.96	5304.2	
405.17	5158.2	
405.37	4389.5	
405.57	3915	
405.78	5309	
405.98	5005.9	
406.18	3569.6	
406.39	4160.1	
406.59	5333.6	
406.79	5010	
407	3435.1	
407.2	3545	
407.4	5565	
407.61	5451.7	
407.81	3538.2	
408.01	4829.1	
408.22	4622.3	
408.42	5887.2	
408.62	4323.9	
408.83	3923.9	
409.03	5061.9	
409.23	4965.6	
409.44	3964.2	
409.64	4130.1	
409.84	5711.8	
410.05	5648.3	
410.25	4029	
410.45	3966.9	
410.66	5382.7	
410.86	7042.3	
411.06	4269.3	
411.27	4115.7	
411.47	6770.6	
411.67	5505.6	
411.88	4285.7	
412.08	4416.1	
412.28	5817.6	
412.49	6227.9	
412.69	4149.2	
412.89	4162.8	
413.09	6081.8	
413.3	5951.4	
413.5	4280.3	
413.7	3970.3	
413.91	5507.7	
414.11	6143.9	
414.31	4116.4	
414.52	4394.3	
414.72	5905.7	
414.92	5734.3	
415.12	4117.8	
415.33	4525.3	
415.53	6065.4	
415.73	6219	
415.94	4681	
416.14	4306.9	
416.34	5463.3	
416.55	5236.7	
416.75	5126.1	
416.95	4733.5	
417.15	6183.5	
417.36	6517.3	
417.56	5314.5	
417.76	4588.1	
417.97	6365.1	
418.17	6064	
418.37	4382	
418.57	4335.5	
418.78	6022.4	
418.98	5755.5	
419.18	4983.4	
419.38	4960.9	
419.59	5768.4	
419.79	5490.6	
419.99	4285.7	
420.2	4541.7	
420.4	6155.5	
420.6	6218.3	
420.8	4233.2	
421.01	4180.6	
421.21	5968.5	
421.41	6071.5	
421.61	4515.8	
421.82	4304.1	
422.02	5705.6	
422.22	6340.5	
422.42	4801.8	
422.63	4619.5	
422.83	5732.9	
423.03	6546	
423.23	4579.3	
423.44	3888.4	
423.64	5767.8	
423.84	5566.4	
424.04	4253.6	
424.25	3948.5	
424.45	6386.9	
424.65	6361	
424.85	3919.1	
425.06	4231.1	
425.26	6505	
425.46	5684.5	
425.66	4553.3	
425.87	4387.4	
426.07	6151.4	
426.27	6062.7	
426.47	4494.6	
426.67	4097.3	
426.88	6465.4	
427.08	6088.6	
427.28	4661.9	
427.48	4027	
427.69	5370.5	
427.89	5790.3	
428.09	4603.8	
428.29	4076.1	
428.5	6247.7	
428.7	5900.9	
428.9	4037.9	
429.1	4338.3	
429.3	5896.1	
429.51	6105	
429.71	4261.8	
429.91	4739.7	
430.11	6129.6	
430.31	6253.8	
430.52	4386.7	
430.72	4576.5	
430.92	6464.1	
431.12	6038.1	
431.32	4138.3	
431.53	4476.2	
431.73	5427.1	
431.93	6496.2	
432.13	4153.3	
432.33	4066.6	
432.54	5763.7	
432.74	5933	
432.94	4034.5	
433.14	4708.3	
433.34	6208.8	
433.55	5880.4	
433.75	4690.5	
433.95	5864.7	
434.15	5974.6	
434.35	5752.1	
434.56	4183.3	
434.76	3859.1	
434.96	5883.1	
435.16	6090	
435.36	4085.7	
435.56	4895.3	
435.77	5723.4	
435.97	5834.7	
436.17	5361.6	
436.37	4778.6	
436.57	5686.5	
436.78	5661.3	
436.98	5141.1	
437.18	5177.9	
437.38	6121.4	
437.58	5769.1	
437.78	5281	
437.99	4364.2	
438.19	6210.8	
438.39	6742.6	
438.59	4403.8	
438.79	4015.4	
438.99	6559.6	
439.2	5898.8	
439.4	4053.6	
439.6	4100	
439.8	5914.5	
440	6696.9	
440.2	4756.1	
440.4	4780	
440.61	6311.2	
440.81	6699.6	
441.01	4223.6	
441.21	4831.8	
441.41	6585.6	
441.61	6245.6	
441.81	5042.8	
442.02	5686.5	
442.22	6939.9	
442.42	6368.5	
442.62	4302.1	
442.82	4363.5	
443.02	6707.8	
443.22	6079.7	
443.43	4654.4	
443.63	4231.8	
443.83	5909.8	
444.03	5816.2	
444.23	5117.2	
444.43	4867.3	
444.63	6189.6	
444.83	6980.8	
445.04	4411.3	
445.24	5230.5	
445.44	6366.5	
445.64	6410.8	
445.84	4853	
446.04	4930.8	
446.24	6008.1	
446.44	6637.5	
446.65	4385.4	
446.85	4640	
447.05	6045.6	
447.25	6593.8	
447.45	4750.6	
447.65	4270	
447.85	6178	
448.05	5883.8	
448.25	4939	
448.46	4762.9	
448.66	6180.8	
448.86	5929.6	
449.06	4287.1	
449.26	4904.9	
449.46	6403.3	
449.66	5809.4	
449.86	4658.4	
450.06	4576.5	
450.26	5863.3	
450.47	6419	
450.67	4801.1	
450.87	4999.1	
451.07	6464.8	
451.27	6170.5	
451.47	4362.9	
451.67	4941.7	
451.87	6022.4	
452.07	6793.1	
452.27	4511.7	
452.47	4444.8	
452.67	6212.2	
452.88	6551.5	
453.08	4168.3	
453.28	5466.7	
453.48	7058.7	
453.68	6147.3	
453.88	4447.5	
454.08	4575.8	
454.28	6466.8	
454.48	6212.2	
454.68	4971.1	
454.88	5272.8	
455.08	6580.1	
455.28	6357.6	
455.48	4418.2	
455.68	4833.2	
455.89	6855.2	
456.09	6625.9	
456.29	4678.9	
456.49	4725.3	
456.69	6755.6	
456.89	6198.5	
457.09	5069.4	
457.29	5270.1	
457.49	6534.4	
457.69	6599.2	
457.89	4955.4	
458.09	4446.1	
458.29	6341.2	
458.49	6860.7	
458.69	5176.6	
458.89	4833.2	
459.09	6992.4	
459.29	7099.6	
459.49	4922.6	
459.69	5412.1	
459.9	6720.8	
460.1	6391	
460.3	4845.5	
460.5	4663.9	
460.7	6720.1	
460.9	6385.6	
461.1	4517.1	
461.3	5358.2	
461.5	7182.2	
461.7	6897.6	
461.9	4816.8	
462.1	5162.9	
462.3	6578.8	
462.5	6959.7	
462.7	4797.7	
462.9	4838.7	
463.1	7576.1	
463.3	7393.2	
463.5	5048.2	
463.7	5648.3	
463.9	6802.7	
464.1	6973.3	
464.3	5182.7	
464.5	5323.4	
464.7	7186.3	
464.9	6949.4	
465.1	6179.4	
465.3	5550.7	
465.5	7363.1	
465.7	7406.1	
465.9	5724.8	
466.1	5653.8	
466.3	7239.6	
466.5	7126.9	
466.7	6157.6	
466.9	5457.2	
467.1	7273.7	
467.3	7793.9	
467.5	6205.3	
467.7	5406	
467.9	7982.3	
468.1	8551.6	
468.3	5911.1	
468.5	6234	
468.7	7129	
468.9	7035.5	
469.1	5644.2	
469.3	6141.9	
469.5	8450.6	
469.7	6832	
469.9	6012.2	
470.1	5505.6	
470.3	7359	
470.5	7213.6	
470.7	6439.5	
470.9	5558.2	
471.1	7062.1	
471.3	7311.2	
471.5	5398.4	
471.69	6765.1	
471.89	7035.5	
472.09	6662	
472.29	6016.9	
472.49	6219.7	
472.69	6750.8	
472.89	7354.9	
473.09	5470.8	
473.29	5516.5	
473.49	6972.7	
473.69	7008.1	
473.89	6072.2	
474.09	5597.1	
474.29	7836.9	
474.49	7587.7	
474.69	6102.3	
474.89	5735.7	
475.09	7066.2	
475.29	7043.6	
475.49	5296.7	
475.69	5464.7	
475.88	8113.4	
476.08	7313.3	
476.28	5227.8	
476.48	5499.5	
476.68	7669	
476.88	7337.2	
477.08	5511.1	
477.28	5634	
477.48	7165.2	
477.68	7518.1	
477.88	5342.5	
478.08	5541.1	
478.28	7768.6	
478.48	7165.8	
478.67	5642.8	
478.87	5196.4	
479.07	7644.4	
479.27	7299	
479.47	5732.3	
479.67	5806	
479.87	7527	
480.07	7804.1	
480.27	5248.9	
480.47	6280.4	
480.67	7305.1	
480.87	7744.1	
481.06	5502.9	
481.26	6044.9	
481.46	7305.8	
481.66	7188.4	
481.86	5769.1	
482.06	6367.1	
482.26	7027.3	
482.46	7597.3	
482.66	5697.4	
482.86	5472.2	
483.05	7450.5	
483.25	6821.8	
483.45	7449.1	
483.65	5631.9	
483.85	6998.6	
484.05	7206.8	
484.25	5968.5	
484.45	6353.5	
484.65	7722.2	
484.84	7853.3	
485.04	5713.8	
485.24	5694.7	
485.44	8119.5	
485.64	6896.2	
485.84	5225.1	
486.04	6179.4	
486.24	7134.4	
486.44	7345.4	
486.63	5248.9	
486.83	5939.1	
487.03	7035.5	
487.23	7256.6	
487.43	5260.5	
487.63	6822.5	
487.83	7271	
488.02	7807.5	
488.22	5915.2	
488.42	6351.4	
488.62	7916.1	
488.82	7107.8	
489.02	5771.9	
489.22	5756.2	
489.41	7796.6	
489.61	7636.2	
489.81	5583.4	
490.01	5588.9	
490.21	7806.2	
490.41	8331.8	
490.61	5600.5	
490.8	5698.8	
491	7490.1	
491.2	6977.4	
491.4	6115.9	
491.6	5504.3	
491.8	7500.3	
491.99	7509.2	
492.19	5391.6	
492.39	5618.9	
492.59	7746.8	
492.79	7824.6	
492.99	6150.7	
493.18	5529.5	
493.38	7868.3	
493.58	8376.2	
493.78	6037.4	
493.98	5808.7	
494.18	7671.7	
494.37	7330.4	
494.57	6311.8	
494.77	6130.3	
494.97	7838.3	
495.17	7961.8	
495.37	5959.6	
495.56	6164.4	
495.76	8159.1	
495.96	8003.5	
496.16	6847.7	
496.36	6065.4	
496.55	8120.2	
496.75	7760.4	
496.95	6313.2	
497.15	6201.9	
497.35	8071	
497.54	8075.1	
497.74	6255.9	
497.94	7363.1	
498.14	8507.3	
498.34	8413.7	
498.53	6028.5	
498.73	6531.7	
498.93	7643	
499.13	8118.8	
499.33	6407.4	
499.52	6710.5	
499.72	8231.5	
499.92	8262.2	
500.12	6182.1	
500.32	6415.6	
500.51	8426.7	
500.71	8137.9	
500.91	6935.8	
501.11	6684.6	
501.31	8262.9	
501.5	8637	
501.7	7268.2	
501.9	6547.4	
502.1	8159.8	
502.29	8334.6	
502.49	6837.5	
502.69	7062.1	
502.89	8269.7	
503.09	8284	
503.28	6186.9	
503.48	6223.1	
503.68	7931.8	
503.88	7787.1	
504.07	6830	
504.27	6463.4	
504.47	8047.8	
504.67	8146.1	
504.86	6776.7	
505.06	6485.2	
505.26	7899.7	
505.46	8994.7	
505.65	6463.4	
505.85	6610.8	
506.05	7831.4	
506.25	8247.2	
506.44	6036	
506.64	6596.5	
506.84	7733.1	
507.04	8228.7	
507.23	6181.5	
507.43	6517.3	
507.63	9058.2	
507.83	7850.5	
508.02	6562.4	
508.22	6219.7	
508.42	9241.1	
508.62	7685.3	
508.81	6430.6	
509.01	6773.3	
509.21	7637.6	
509.4	7892.9	
509.6	6629.3	
509.8	6150.7	
510	7748.8	
510.19	8741.4	
510.39	6110.5	
510.59	6214.2	
510.79	7687.4	
510.98	8699.8	
511.18	6312.5	
511.38	6356.9	
511.57	8370.7	
511.77	8099	
511.97	6798.6	
512.17	6167.1	
512.36	8314.1	
512.56	8156.4	
512.76	6240.8	
512.95	6013.5	
513.15	8469	
513.35	7400	
513.55	6735.1	
513.74	6169.2	
513.94	8321.6	
514.14	7854.6	
514.33	6812.9	
514.53	6594.5	
514.73	7884.7	
514.92	8013	
515.12	6227.2	
515.32	6143.2	
515.51	8052.6	
515.71	8375.5	
515.91	7430.7	
516.11	6126.8	
516.3	9195.4	
516.5	7793.2	
516.7	6603.3	
516.89	6934.4	
517.09	7873.1	
517.29	7912.7	
517.48	6867.5	
517.68	6382.8	
517.88	7712.7	
518.07	8168	
518.27	6748.1	
518.47	6059.9	
518.66	8523	
518.86	7623.2	
519.06	6034.7	
519.25	6324.1	
519.45	7793.2	
519.65	8779.6	
519.84	6786.3	
520.04	7248.4	
520.24	9176.3	
520.43	8367.3	
520.63	6543.9	
520.83	6424.5	
521.02	7798.7	
521.22	8211	
521.42	6699.6	
521.61	7138.5	
521.81	7906.5	
522.01	8006.9	
522.2	6665.5	
522.4	6436.1	
522.6	8340	
522.79	7484.6	
522.99	6551.5	
523.18	6062.7	
523.38	8226.7	
523.58	8123.6	
523.77	7309.2	
523.97	6092	
524.17	9456.8	
524.36	8832.9	
524.56	7010.2	
524.76	6761	
524.95	8240.3	
525.15	7954.3	
525.34	6649.1	
525.54	6742.6	
525.74	8593.3	
525.93	7897.7	
526.13	7484	
526.33	6789.7	
526.52	8828.8	
526.72	8420.6	
526.91	7595.2	
527.11	7123.5	
527.31	8751.7	
527.5	9106.6	
527.7	7004.7	
527.89	6371.9	
528.09	8115.4	
528.29	8511.4	
528.48	7313.3	
528.68	7059.3	
528.87	8782.4	
529.07	8812.4	
529.27	7118.1	
529.46	6790.4	
529.66	8714.8	
529.85	8880.7	
530.05	6783.6	
530.25	7211.6	
530.44	9578.3	
530.64	8593.3	
530.83	7052.5	
531.03	7124.9	
531.23	9018.6	
531.42	8710.7	
531.62	7625.3	
531.81	7043	
532.01	9066.4	
532.21	9216.5	
532.4	6935.8	
532.6	7163.1	
532.79	9685.5	
532.99	9063.6	
533.18	7277.8	
533.38	8015.7	
533.58	8865	
533.77	9269.1	
533.97	7367.9	
534.16	7901.7	
534.36	9637.7	
534.55	8828.8	
534.75	8082	
534.95	7347.4	
535.14	9513.5	
535.34	8888.2	
535.53	7173.4	
535.73	8485.4	
535.92	9835.7	
536.12	8961.9	
536.31	7370	
536.51	8144.8	
536.71	9387.2	
536.9	8979.7	
537.1	7375.4	
537.29	7461.4	
537.49	9494.4	
537.68	8886.8	
537.88	7810.3	
538.07	7183.6	
538.27	9042.5	
538.46	9720.3	
538.66	7135.8	
538.86	7442.3	
539.05	9192	
539.25	9343.5	
539.44	7733.1	
539.64	7363.1	
539.83	8989.9	
540.03	9785.9	
540.22	7352.2	
540.42	7395.2	
540.61	9189.9	
540.81	9331.9	
541	7712.7	
541.2	8201.4	
541.39	8802.9	
541.59	9120.3	
541.78	8030.1	
541.98	7301	
542.18	8671.1	
542.37	8720.3	
542.57	7610.3	
542.76	7982.3	
542.96	8700.5	
543.15	9151	
543.35	7595.9	
543.54	7135.1	
543.74	9224.7	
543.93	8983.8	
544.13	7563.1	
544.32	8282	
544.52	9256.8	
544.71	8660.2	
544.91	6851.8	
545.1	7671.7	
545.3	8741.4	
545.49	9155.8	
545.69	6830	
545.88	7289.4	
546.08	9838.4	
546.27	9394	
546.47	7745.4	
546.66	7130.3	
546.86	9311.4	
547.05	9673.9	
547.24	7266.2	
547.44	7249.1	
547.63	8551	
547.83	9292.3	
548.02	7408.9	
548.22	7554.3	
548.41	8486.1	
548.61	9351.7	
548.8	7075.7	
549	7159	
549.19	8929.8	
549.39	9257.5	
549.58	6923.5	
549.78	7320.8	
549.97	9116.9	
550.17	8739.4	
550.36	7946.8	
550.55	8557.8	
550.75	8811.7	
550.94	9574.9	
551.14	7101.7	
551.33	7285.3	
551.53	8389.8	
551.72	8959.2	
551.92	7309.2	
552.11	7127.6	
552.31	9088.2	
552.5	8921.6	
552.69	8331.8	
552.89	6839.5	
553.08	8991.9	
553.28	8686.8	
553.47	7167.2	
553.67	7904.5	
553.86	9424.1	
554.06	8276.5	
554.25	6670.2	
554.44	6961	
554.64	9983.2	
554.83	9483.5	
555.03	6989	
555.22	7305.8	
555.42	9205.6	
555.61	8939.4	
555.8	7185.6	
556	7245.7	
556.19	8317.5	
556.39	9222.7	
556.58	7120.8	
556.78	7203.4	
556.97	8938	
557.16	8630.1	
557.36	7954.3	
557.55	6895.5	
557.75	8169.3	
557.94	9458.9	
558.13	6976.7	
558.33	6803.4	
558.52	9314.2	
558.72	8441	
558.91	6927.6	
559.1	6965.8	
559.3	8248.5	
559.49	8091.5	
559.69	6582.2	
559.88	7307.8	
560.07	8767.4	
560.27	9219.3	
560.46	7356.3	
560.66	7410.2	
560.85	8738	
561.04	8074.5	
561.24	6746.7	
561.43	6965.8	
561.63	8275.2	
561.82	8514.8	
562.01	7797.3	
562.21	7156.3	
562.4	8731.2	
562.59	9395.4	
562.79	7102.4	
562.98	6868.2	
563.18	8746.9	
563.37	9651.4	
563.56	7365.9	
563.76	6920.8	
563.95	8434.9	
564.14	8364.6	
564.34	7167.9	
564.53	6982.9	
564.73	8860.9	
564.92	8904.6	
565.11	7306.5	
565.31	6779.5	
565.5	9131.9	
565.69	8361.9	
565.89	6991.8	
566.08	7172	
566.27	9098.4	
566.47	9325.8	
566.66	7670.3	
566.85	6771.3	
567.05	8923.7	
567.24	8560.5	
567.44	6942.6	
567.63	7881.3	
567.82	9019.9	
568.02	8792.6	
568.21	6926.2	
568.4	7215	
568.6	8766	
568.79	8720.3	
568.98	6872.3	
569.18	6929	
569.37	8754.4	
569.56	10213	
569.76	7272.3	
569.95	8004.1	
570.14	9041.8	
570.34	8989.2	
570.53	7033.4	
570.72	7009.5	
570.91	9444.5	
571.11	8803.5	
571.3	7363.1	
571.49	8000	
571.69	8942.1	
571.88	8516.8	
572.07	7588.4	
572.27	7653.9	
572.46	8494.3	
572.65	9168.1	
572.85	7208.8	
573.04	7428	
573.23	9452.1	
573.43	8923	
573.62	7027.9	
573.81	7391.8	
574	8990.6	
574.2	8747.6	
574.39	7339.2	
574.58	7438.9	
574.78	9443.9	
574.97	8995.4	
575.16	7717.4	
575.36	7830.1	
575.55	9452.7	
575.74	9385.8	
575.93	7044.3	
576.13	7729.7	
576.32	8871.8	
576.51	9450.7	
576.71	7523.6	
576.9	8409	
577.09	9625.5	
577.28	9310.7	
577.48	7798.7	
577.67	7063.4	
577.86	9091.6	
578.05	9183.8	
578.25	7596.6	
578.44	7533.8	
578.63	9052.7	
578.83	9982.5	
579.02	7166.5	
579.21	8284.7	
579.4	9230.2	
579.6	9084.8	
579.79	7664.2	
579.98	9116.9	
580.17	9493.7	
580.37	9664.4	
580.56	7292.1	
580.75	7836.2	
580.94	9734	
581.14	9807.7	
581.33	8135.2	
581.52	7468.9	
581.71	9428.2	
581.91	9864.4	
582.1	7234.1	
582.29	7648.5	
582.48	9209	
582.68	9156.5	
582.87	7976.2	
583.06	7714.7	
583.25	9424.1	
583.45	9282.1	
583.64	8191.2	
583.83	8621.9	
584.02	9159.2	
584.21	9402.2	
584.41	8210.3	
584.6	7714.7	
584.79	9182.4	
584.98	9725.1	
585.18	7373.4	
585.37	7339.2	
585.56	9004.2	
585.75	9430.2	
585.94	7544	
586.14	7985	
586.33	9851.4	
586.52	9168.1	
586.71	7822.6	
586.91	7644.4	
587.1	8747.6	
587.29	9625.5	
587.48	7542	
587.67	7397.3	
587.87	9364.7	
588.06	9312.1	
588.25	8370.7	
588.44	7900.4	
588.63	9112.1	
588.83	9499.2	
589.02	7520.1	
589.21	7367.9	
589.4	8938.7	
589.59	8950.3	
589.78	6926.2	
589.98	7040.9	
590.17	8583	
590.36	8933.9	
590.55	6591	
590.74	7145.4	
590.94	9719	
591.13	8843.8	
591.32	7004.1	
591.51	6614.9	
591.7	8987.2	
591.89	8614.4	
592.09	6625.2	
592.28	6906.4	
592.47	8045.1	
592.66	9508.7	
592.85	6675.7	
593.05	6946	
593.24	8589.9	
593.43	9174.2	
593.62	7023.2	
593.81	7196.6	
594	8705.9	
594.19	8757.1	
594.39	6864.1	
594.58	6848.4	
594.77	8859.5	
594.96	9127.1	
595.15	6843.6	
595.34	7302.4	
595.54	8868.4	
595.73	8212.4	
595.92	6386.9	
596.11	7194.5	
596.3	9124.4	
596.49	8309.3	
596.68	7044.3	
596.88	7260.7	
597.07	8955.1	
597.26	8112.7	
597.45	6597.2	
597.64	7477.1	
597.83	8437.6	
598.02	8784.4	
598.22	6640.2	
598.41	7191.8	
598.6	8723.7	
598.79	8258.1	
598.98	6591	
599.17	7378.8	
599.36	8718.2	
599.55	9405	
599.74	8068.3	
599.94	7926.3	
600.13	9027.4	
600.32	8175.5	
600.51	6574	
600.7	6646.3	
600.89	9427.5	
601.08	9510.8	
601.27	6513.2	
601.47	7118.1	
601.66	8921	
601.85	9355.1	
602.04	6970.6	
602.23	7090.8	
602.42	8230.8	
602.61	8692.9	
602.8	6832	
602.99	6771.3	
603.18	8460.8	
603.37	8643.8	
603.57	7077.8	
603.76	7513.3	
603.95	9179.7	
604.14	8770.8	
604.33	6836.8	
604.52	6947.4	
604.71	8622.6	
604.9	8370.7	
605.09	7413.6	
605.28	7311.9	
605.47	9188.6	
605.66	8701.8	
605.86	7166.5	
606.05	6839.5	
606.24	9116.2	
606.43	7978.9	
606.62	7037.5	
606.81	7506.5	
607	8974.2	
607.19	8427.4	
607.38	6655.9	
607.57	6769.9	
607.76	8256	
607.95	7914.7	
608.14	7114	
608.33	7506.5	
608.52	8338	
608.72	8943.5	
608.91	6528.2	
609.1	6496.2	
609.29	8426	
609.48	8055.3	
609.67	7207.5	
609.86	6576.7	
610.05	8155	
610.24	8319.5	
610.43	6537.1	
610.62	6178	
610.81	9173.5	
611	8923.7	
611.19	6472.3	
611.38	6981.5	
611.57	8456.1	
611.76	9448.6	
611.95	6411.5	
612.14	6214.9	
612.33	8425.3	
612.52	8071	
612.71	6827.2	
612.9	6219	
613.09	7817.8	
613.28	9551.7	
613.47	6668.9	
613.66	7342.7	
613.85	8572.8	
614.04	8134.5	
614.24	6677.7	
614.43	6097.5	
614.62	8559.1	
614.81	8578.3	
615	7045	
615.19	7083.2	
615.38	8127.7	
615.57	8346.8	
615.76	6976.7	
615.95	7619.1	
616.14	8679.3	
616.33	8390.5	
616.52	7187	
616.71	7200.7	
616.9	8607.6	
617.09	8517.5	
617.28	6668.2	
617.47	7518.1	
617.66	8061.5	
617.85	7996	
618.04	7324.9	
618.22	6963.8	
618.41	8225.3	
618.6	8897.1	
618.79	6876.4	
618.98	6800.6	
619.17	9121.7	
619.36	7885.4	
619.55	6928.3	
619.74	6845	
619.93	8620.6	
620.12	8195.3	
620.31	7234.8	
620.5	7450.5	
620.69	9060.9	
620.88	9324.4	
621.07	7812.3	
621.26	7187	
621.45	8724.3	
621.64	8781	
621.83	7280.5	
622.02	6845.7	
622.21	8867	
622.4	8754.4	
622.59	7690.1	
622.78	7522.2	
622.97	8479.3	
623.16	9201.5	
623.35	7365.9	
623.54	6778.1	
623.72	8591.2	
623.91	8686.1	
624.1	7584.3	
624.29	6651.1	
624.48	9471.2	
624.67	8940.1	
624.86	7436.2	
625.05	6746.7	
625.24	9503.9	
625.43	8516.8	
625.62	8571.4	
625.81	6928.3	
626	9013.8	
626.19	8632.9	
626.38	7425.9	
626.56	7172	
626.75	8460.8	
626.94	9013.8	
627.13	7462.8	
627.32	6660	
627.51	8984.4	
627.7	9684.2	
627.89	6761	
628.08	7520.1	
628.27	8464.3	
628.46	8628.8	
628.65	6892.8	
628.83	6691.4	
629.02	8897.1	
629.21	8362.5	
629.4	7150.1	
629.59	7378.1	
629.78	8401.5	
629.97	9001.5	
630.16	7468.9	
630.35	7071.6	
630.54	9426.1	
630.72	9213.1	
630.91	7029.3	
631.1	7317.4	
631.29	8838.4	
631.48	8841.8	
631.67	7410.9	
631.86	7040.2	
632.05	8699.8	
632.24	8618.5	
632.42	6931.7	
632.61	7283.9	
632.8	8609	
632.99	8298.4	
633.18	7329.7	
633.37	7489.4	
633.56	8903.9	
633.75	8742.1	
633.93	7275.8	
634.12	7175.4	
634.31	9491.7	
634.5	9167.4	
634.69	7026.6	
634.88	7404.1	
635.07	8659.5	
635.25	9078	
635.44	7652.6	
635.63	7876.5	
635.82	8630.1	
636.01	8163.9	
636.2	7683.3	
636.39	7360.4	
636.57	9408.4	
636.76	8989.9	
636.95	6978.8	
637.14	7935.2	
637.33	8926.4	
637.52	9507.4	
637.7	6783.6	
637.89	7546.8	
638.08	8662.9	
638.27	9554.5	
638.46	7587.7	
638.65	7841	
638.83	9596.1	
639.02	8408.3	
639.21	7475.1	
639.4	7702.4	
639.59	8783.7	
639.78	8587.1	
639.96	6920.8	
640.15	6982.9	
640.34	8692.9	
640.53	8684.8	
640.72	6772.6	
640.91	6976.7	
641.09	8270.4	
641.28	9153.1	
641.47	6987.7	
641.66	7535.8	
641.85	8757.8	
642.03	8875.2	
642.22	7316	
642.41	6989.7	
642.6	8292.9	
642.79	7906.5	
642.97	6904.4	
643.16	7348.8	
643.35	8256	
643.54	8121.6	
643.73	6813.6	
643.91	7256.6	
644.1	8103.1	
644.29	8577.6	
644.48	6879.1	
644.67	6848.4	
644.85	8165.9	
645.04	8486.1	
645.23	6558.3	
645.42	6821.1	
645.6	7973.4	
645.79	8855.4	
645.98	6705	
646.17	6027.9	
646.36	7804.1	
646.54	8224	
646.73	7261.4	
646.92	6490.7	
647.11	7890.8	
647.29	8656.8	
647.48	6524.8	
647.67	6262	
647.86	8791.2	
648.05	8815.8	
648.23	6630	
648.42	7464.2	
648.61	8416.5	
648.8	8256.7	
648.98	6360.3	
649.17	6653.9	
649.36	7842.4	
649.55	7573.4	
649.73	6386.2	
649.92	6923.5	
650.11	7770	
650.3	8135.2	
650.48	6496.2	
650.67	6329.6	
650.86	8297.7	
651.05	7524.9	
651.23	6519.4	
651.42	6262	
651.61	7830.1	
651.79	7776.8	
651.98	6619	
652.17	6255.9	
652.36	8167.3	
652.54	7410.9	
652.73	6346	
652.92	6237.4	
653.11	8217.1	
653.29	8299.7	
653.48	5917.9	
653.67	6614.3	
653.85	8048.5	
654.04	8780.3	
654.23	6624.5	
654.42	6405.4	
654.6	7626.6	
654.79	8089.5	
654.98	5966.4	
655.16	6335.7	
655.35	7404.1	
655.54	7193.8	
655.73	5991	
655.91	5791.7	
656.1	7884.7	
656.29	6978.8	
656.47	5453.7	
656.66	6685.3	
656.85	7322.2	
657.03	7385.7	
657.22	5963.7	
657.41	5974.6	
657.59	7471.7	
657.78	7378.1	
657.97	5727.5	
658.16	6341.9	
658.34	7949.5	
658.53	8228.1	
658.72	6834.1	
658.9	7196.6	
659.09	7689.4	
659.28	7714	
659.46	6136.4	
659.65	6143.2	
659.84	7395.9	
660.02	7847.8	
660.21	6069.5	
660.4	6062.7	
660.58	8069	
660.77	7677.2	
660.96	6447.7	
661.14	5762.3	
661.33	8521.6	
661.52	8346.8	
661.7	5846.3	
661.89	8146.8	
662.08	7461.4	
662.26	7101.7	
662.45	6008.1	
662.64	6065.4	
662.82	7943.4	
663.01	7277.1	
663.2	6103.6	
663.38	6589	
663.57	7812.3	
663.75	7673.1	
663.94	6228.6	
664.13	6969.9	
664.31	7384.3	
664.5	7836.2	
664.69	6505	
664.87	6741.9	
665.06	7194.5	
665.25	7689.4	
665.43	6972.7	
665.62	6962.4	
665.8	7915.4	
665.99	7490.1	
666.18	6155.5	
666.36	6286.6	
666.55	7898.3	
666.74	7830.7	
666.92	5993.7	
667.11	7038.2	
667.29	7515.4	
667.48	7856.7	
667.67	6732.4	
667.85	6127.5	
668.04	7523.6	
668.22	7430	
668.41	6247.7	
668.6	6472.3	
668.78	7372	
668.97	7454.6	
669.15	6406	
669.34	5697.4	
669.53	7393.8	
669.71	7577.5	
669.9	5872.9	
670.08	6351.4	
670.27	7229.3	
670.46	7752.9	
670.64	6425.8	
670.83	6613.6	
671.01	7189.7	
671.2	7617.1	
671.38	5931.6	
671.57	5813.5	
671.76	8094.3	
671.94	8445.8	
672.13	5720	
672.31	6485.9	
672.5	7820.5	
672.69	7340.6	
672.87	5993.7	
673.06	6159.6	
673.24	7633.5	
673.43	7360.4	
673.61	6310.5	
673.8	6034	
673.98	7757	
674.17	7846.5	
674.36	6485.2	
674.54	6378.7	
674.73	7559.1	
674.91	7862.8	
675.1	6184.2	
675.28	5918.6	
675.47	7468.3	
675.65	7815	
675.84	6051.1	
676.03	6299.6	
676.21	7378.1	
676.4	6933.1	
676.58	6582.2	
676.77	6537.1	
676.95	8355	
677.14	7326.9	
677.32	5908.4	
677.51	5737.7	
677.69	7856	
677.88	7075	
678.06	5805.3	
678.25	5944.6	
678.44	7526.3	
678.62	7210.9	
678.81	5745.9	
678.99	6340.5	
679.18	7998.7	
679.36	7703.8	
679.55	6126.8	
679.73	6531.7	
679.92	7673.1	
680.1	7388.4	
680.29	6983.6	
680.47	6088.6	
680.66	7322.2	
680.84	7795.9	
681.03	5655.8	
681.21	6300.9	
681.4	7339.9	
681.58	7202.7	
681.77	5941.8	
681.95	5903.6	
682.14	7946.1	
682.32	8059.4	
682.51	6582.2	
682.69	5705	
682.88	7313.3	
683.06	7636.9	
683.25	6410.1	
683.43	6625.2	
683.62	7516.7	
683.8	7804.1	
683.99	6744	
684.17	6255.9	
684.36	8344.8	
684.54	7447.1	
684.73	5742.5	
684.91	5830.6	
685.1	7667.6	
685.28	7230	
685.46	6139.1	
685.65	6139.1	
685.83	7510.6	
686.02	7098.3	
686.2	5611.4	
686.39	5685.8	
686.57	6693.4	
686.76	7904.5	
686.94	5599.1	
687.13	5784.1	
687.31	7448.5	
687.5	7157.7	
687.68	5386.8	
687.86	6219	
688.05	8389.2	
688.23	6814.3	
688.42	6309.8	
688.6	5786.9	
688.79	7110.5	
688.97	7156.3	
689.16	6051.1	
689.34	5371.8	
689.52	7632.8	
689.71	7881.9	
689.89	6277.7	
690.08	5791	
690.26	7381.6	
690.45	7253.2	
690.63	6386.9	
690.81	6010.8	
691	7331	
691.18	7177.4	
691.37	6062	
691.55	7611.6	
691.74	7208.8	
691.92	8516.1	
692.1	6021.7	
692.29	5719.3	
692.47	7383.6	
692.66	6847.7	
692.84	5796.4	
693.02	6165.1	
693.21	6842.3	
693.39	7380.2	
693.58	6358.3	
693.76	5797.1	
693.94	8100.4	
694.13	7909.3	
694.31	5838.8	
694.5	6541.9	
694.68	7180.9	
694.86	7484.6	
695.05	6173.9	
695.23	6240.2	
695.42	7829.4	
695.6	9334.6	
695.78	6638.1	
695.97	6083.8	
696.15	7895.6	
696.34	7374.7	
696.52	5911.8	
696.7	6509.1	
696.89	7638.2	
697.07	7150.1	
697.25	6410.8	
697.44	7445.7	
697.62	7604.1	
697.81	7728.4	
697.99	6113.9	
698.17	6562.4	
698.36	7246.4	
698.54	7669	
698.72	6292.7	
698.91	5625.1	
699.09	7342	
699.28	7098.3	
699.46	6057.9	
699.64	6075.6	
699.83	7173.4	
700.01	7847.1	
700.19	6587	
700.38	5498.1	
700.56	7901.7	
700.74	7223.9	
700.93	5730.2	
701.11	6337.1	
701.29	7571.3	
701.48	8294.3	
701.66	5877.7	
701.84	5977.3	
702.03	7344	
702.21	7865.6	
702.39	5672.9	
702.58	6117.3	
702.76	7666.2	
702.94	7674.4	
703.13	5677	
703.31	7252.5	
703.49	7284.6	
703.68	8135.2	
703.86	5812.8	
704.04	6456.6	
704.23	7511.3	
704.41	7717.4	
704.59	5977.3	
704.78	6646.3	
704.96	8657.4	
705.14	7776.1	
705.33	5722	
705.51	6296.8	
705.69	7321.5	
705.87	7879.9	
706.06	6419.7	
706.24	5739.8	
706.42	7575.4	
706.61	7767.3	
706.79	6516.6	
706.97	5670.1	
707.16	7172	
707.34	7529	
707.52	6378.1	
707.7	5819.6	
707.89	7245.7	
708.07	7032.7	
708.25	6341.2	
708.44	6544.6	
708.62	7141.3	
708.8	7904.5	
708.98	6669.6	
709.17	5909.1	
709.35	7438.2	
709.53	7432.1	
709.72	5644.2	
709.9	5792.3	
710.08	7720.8	
710.26	7671.7	
710.45	6800.6	
710.63	5869.5	
710.81	7418.4	
710.99	7361.1	
711.18	6364.4	
711.36	5933	
711.54	7187.7	
711.72	7699	
711.91	5911.8	
712.09	5571.8	
712.27	7273.7	
712.45	7688.8	
712.64	6137.8	
712.82	5417.6	
713	6865.5	
713.18	6926.9	
713.37	5375.2	
713.55	6270.2	
713.73	7593.9	
713.91	6645.7	
714.1	5646.2	
714.28	5337.7	
714.46	7154.2	
714.64	6632.7	
714.83	4820.9	
715.01	5296	
715.19	6496.2	
715.37	5911.1	
715.55	4913.8	
715.74	5021.6	
715.92	6956.3	
716.1	5622.4	
716.28	5862.7	
716.47	5127.4	
716.65	6169.2	
716.83	6205.3	
717.01	5046.9	
717.19	4915.1	
717.38	7555.6	
717.56	5874.3	
717.74	5214.8	
717.92	4511	
718.1	6597.9	
718.29	6081.1	
718.47	4272.1	
718.65	4740.4	
718.83	6651.8	
719.01	6582.9	
719.2	4309.6	
719.38	5068.7	
719.56	6523.5	
719.74	7565.2	
719.92	4877.6	
720.11	5651	
720.29	6600.6	
720.47	6004	
720.65	4559.5	
720.83	5020.9	
721.02	6180.1	
721.2	5949.3	
721.38	5097.4	
721.56	4476.2	
721.74	5520.6	
721.92	5623.7	
722.11	5327.4	
722.29	5042.1	
722.47	6460.7	
722.65	5907	
722.83	4471.4	
723.01	5026.4	
723.2	5898.1	
723.38	6174.6	
723.56	4111	
723.74	4809.3	
723.92	5498.1	
724.1	6410.1	
724.29	4401.1	
724.47	5144.5	
724.65	5684.5	
724.83	5615.5	
725.01	4339.6	
725.19	4893.3	
725.37	5603.2	
725.56	5513.8	
725.74	4154	
725.92	4279.6	
726.1	5544.5	
726.28	5763.7	
726.46	4575.2	
726.64	4437.9	
726.83	5794.4	
727.01	5845.6	
727.19	4138.3	
727.37	4701.5	
727.55	5857.2	
727.73	6155.5	
727.91	4074.1	
728.09	4001.7	
728.28	6158.2	
728.46	6282.5	
728.64	4702.1	
728.82	4690.5	
729	6806.8	
729.18	6336.4	
729.36	4124.6	
729.54	5634	
729.72	7018.4	
729.91	5813.5	
730.09	5460.6	
730.27	4552	
730.45	5780.7	
730.63	6216.3	
730.81	4955.4	
730.99	4323.9	
731.17	6597.9	
731.35	5551.4	
731.53	4678.9	
731.71	4386.1	
731.9	6386.2	
732.08	6470.9	
732.26	4586.8	
732.44	4337.6	
732.62	6457.9	
732.8	6138.4	
732.98	4859.1	
733.16	4248.9	
733.34	6156.2	
733.52	5139.7	
733.7	4481	
733.88	4710.3	
734.07	5995.8	
734.25	5783.5	
734.43	4070	
734.61	5156.8	
734.79	6792.4	
734.97	5774.6	
735.15	4158.7	
735.33	4371.7	
735.51	5874.9	
735.69	5616.9	
735.87	5344.5	
736.05	4513.7	
736.23	5778	
736.41	5589.6	
736.59	4447.5	
736.77	4487.1	
736.95	6085.9	
737.13	5569.8	
737.32	4149.9	
737.5	4217.5	
737.68	6498.9	
737.86	5554.8	
738.04	4037.2	
738.22	5218.2	
738.4	5446.2	
738.58	5689.9	
738.76	4386.7	
738.94	3665.2	
739.12	5504.9	
739.3	5410.1	
739.48	4760.2	
739.66	4563.6	
739.84	5636.7	
740.02	5635.3	
740.2	3795.6	
740.38	3911.6	
740.56	5859.2	
740.74	5005.9	
740.92	4394.9	
741.1	4306.9	
741.28	5471.5	
741.46	5329.5	
741.64	4054.3	
741.82	4457.1	
742	5544.5	
742.18	5406.6	
742.36	4205.2	
742.54	3988.8	
742.72	5904.3	
742.9	5010	
743.08	4481.6	
743.26	3601	
743.44	5866.1	
743.62	5810.1	
743.8	4523.3	
743.98	3859.1	
744.16	5581.4	
744.34	5355.4	
744.52	4397	
744.7	4336.9	
744.88	5757.5	
745.06	5367.7	
745.24	4414.7	
745.42	4499.4	
745.6	5776.6	
745.78	5673.6	
745.96	3618.8	
746.14	3846.1	
746.32	6272.2	
746.5	5681.1	
746.68	4168.3	
746.86	3790.8	
747.03	5922	
747.21	4865.3	
747.39	4192.9	
747.57	3794.2	
747.75	5416.2	
747.93	5731.6	
748.11	3756.7	
748.29	3792.8	
748.47	6576	
748.65	5178.6	
748.83	4225	
749.01	4071.4	
749.19	5587.5	
749.37	4901.5	
749.55	4104.1	
749.73	4037.9	
749.91	5347.9	
750.09	5258.5	
750.26	4035.2	
750.44	3621.5	
750.62	5336.3	
750.8	5284.4	
750.98	3599.6	
751.16	3771	
751.34	5392.3	
751.52	4940.4	
751.7	4334.9	
751.88	3502	
752.06	5702.9	
752.24	5446.9	
752.42	3487.7	
752.59	3738.2	
752.77	5268.7	
752.95	6107	
753.13	4206.5	
753.31	3766.9	
753.49	5000.5	
753.67	5336.3	
753.85	4092.5	
754.03	3697.3	
754.21	5597.8	
754.38	5756.2	
754.56	3826.3	
754.74	3213.9	
754.92	4953.4	
755.1	5447.6	
755.28	3126.6	
755.46	3167.5	
755.64	6045.6	
755.82	6076.3	
755.99	3413.3	
756.17	3478.1	
756.35	4386.7	
756.53	5466	
756.71	2695.1	
756.89	3379.1	
757.07	5136.3	
757.25	4502.8	
757.42	3737.5	
757.6	4298.7	
757.78	5124.7	
757.96	4453	
758.14	3464.5	
758.32	3165.5	
758.5	4175.8	
758.67	4727.4	
758.85	3351.8	
759.03	3434.4	
759.21	4886.5	
759.39	4470.7	
759.57	3106.8	
759.75	3835.2	
759.92	5386.8	
760.1	4929.5	
760.28	4098	
760.46	4261.1	
760.64	4717.2	
760.82	4526	
760.99	4046.8	
761.17	3414	
761.35	5315.2	
761.53	4526	
761.71	3576.4	
761.89	3916.4	
762.06	5158.8	
762.24	4777.9	
762.42	3613.3	
762.6	3401.7	
762.78	4759.5	
762.96	5188.9	
763.13	3872.7	
763.31	3556.6	
763.49	5311.1	
763.67	4707.6	
763.85	4161.5	
764.02	4457.7	
764.2	5573.9	
764.38	4939.7	
764.56	3506.8	
764.74	4168.3	
764.91	5539.8	
765.09	4831.2	
765.27	3346.4	
765.45	3146.4	
765.63	5702.2	
765.8	5496.1	
765.98	3063.1	
766.16	3258.3	
766.34	4508.3	
766.52	4326	
766.69	3859.7	
766.87	3110.9	
767.05	4806.6	
767.23	5374.6	
767.41	3352.5	
767.58	3493.8	
767.76	5176.6	
767.94	5254.4	
768.12	3403	
768.29	3848.1	
768.47	4822.3	
768.65	5368.4	
768.83	3165.5	
769	3900	
769.18	4577.2	
769.36	5076.2	
769.54	3907.5	
769.72	3156.6	
769.89	5303.6	
770.07	5227.8	
770.25	3434.4	
770.43	4237.2	
770.6	5853.8	
770.78	6029.2	
770.96	3541.6	
771.14	3921.9	
771.31	5268.1	
771.49	4784.1	
771.67	2948.4	
771.85	3121.8	
772.02	4233.2	
772.2	4729.4	
772.38	3616	
772.55	3220.1	
772.73	4995.7	
772.91	4762.9	
773.09	3581.9	
773.26	3631	
773.44	4937	
773.62	4740.4	
773.8	3237.2	
773.97	3013.9	
774.15	4974.5	
774.33	4744.5	
774.5	3202.3	
774.68	3432.4	
774.86	5087.2	
775.04	4720.6	
775.21	3190.1	
775.39	3147	
775.57	4929.5	
775.74	5173.9	
775.92	3090.4	
776.1	2965.5	
776.27	4874.2	
776.45	5781.4	
776.63	3250.1	
776.81	2886.3	
776.98	4672.8	
777.16	5375.9	
777.34	3295.9	
777.51	3495.9	
777.69	4685.1	
777.87	4470	
778.04	3355.3	
778.22	3756.7	
778.4	4504.8	
778.57	5033.2	
778.75	2837.1	
778.93	3039.2	
779.1	4434.5	
779.28	4270	
779.46	2863.1	
779.64	3192.1	
779.81	5063.9	
779.99	5690.6	
780.17	3639.9	
780.34	3768.3	
780.52	4708.3	
780.69	4820.9	
780.87	3425.6	
781.05	3123.2	
781.22	4781.3	
781.4	4804.5	
781.58	3198.9	
781.75	2601.6	
781.93	4801.1	
782.11	4321.2	
782.28	3895.9	
782.46	3178.4	
782.64	4235.2	
782.81	4906.9	
782.99	3312.2	
783.17	3244	
783.34	4742.4	
783.52	4351.3	
783.69	3313.6	
783.87	4002.4	
784.05	4397	
784.22	4313	
784.4	3941	
784.58	3454.9	
784.75	5042.8	
784.93	4463.9	
785.1	3239.9	
785.28	3648.1	
785.46	4833.9	
785.63	4357.4	
785.81	3176.4	
785.99	3069.2	
786.16	4526	
786.34	4796.3	
786.51	3080.8	
786.69	3434.4	
786.87	4175.1	
787.04	4496.7	
787.22	2992.1	
787.39	3611.9	
787.57	4414.7	
787.75	5069.4	
787.92	3874.1	
788.1	3747.1	
788.27	4339	
788.45	4145.8	
788.63	3564.8	
788.8	2721.8	
788.98	4704.9	
789.15	4070	
789.33	2839.8	
789.5	3201	
789.68	5017.5	
789.86	5094	
790.03	3481.5	
790.21	3127.9	
790.38	5013.4	
790.56	4444.8	
790.73	3037.1	
790.91	3022.1	
791.09	4351.3	
791.26	4900.1	
791.44	3196.2	
791.61	2818	
791.79	4367	
791.96	4362.9	
792.14	2891	
792.32	2635.1	
792.49	4341.7	
792.67	4453.6	
792.84	3001	
793.02	2825.5	
793.19	4723.3	
793.37	5120.6	
793.54	2591.4	
793.72	2844.6	
793.89	5207.3	
794.07	4370.4	
794.25	3305.4	
794.42	2650.1	
794.6	5102.9	
794.77	4775.9	
794.95	3441.3	
795.12	3107.5	
795.3	4425.7	
795.47	4737	
795.65	3346.4	
795.82	3209.2	
796	4232.5	
796.17	5485.8	
796.35	3120.4	
796.52	3690.4	
796.7	4749.2	
796.87	4889.2	
797.05	3102.7	
797.22	3771	
797.4	4831.8	
797.57	5426.4	
797.75	3236.5	
797.92	3044.6	
798.1	5079.6	
798.27	4245.4	
798.45	2692.4	
798.62	2871.3	
798.8	4601.1	
798.97	4938.3	
799.15	3379.1	
799.32	3194.8	
799.5	4076.8	
799.67	4502.1	
799.85	3508.2	
800.02	2643.2	
800.2	4362.2	
800.37	4511	
800.55	3533.4	
800.72	3041.9	
800.9	4920.6	
801.07	5145.9	
801.25	3992.2	
801.42	3287	
801.6	5023	
801.77	4656.4	
801.95	3128.6	
802.12	2980.5	
802.29	4726	
802.47	4571.7	
802.64	3395.5	
802.82	2603	
802.99	4316.4	
803.17	4960.2	
803.34	3242.6	
803.52	2968.9	
803.69	5364.3	
803.87	4209.3	
804.04	3213.3	
804.21	3238.5	
804.39	5128.1	
804.56	4481.6	
804.74	2761.3	
804.91	3332	
805.09	4367	
805.26	4383.3	
805.44	2895.1	
805.61	3053.5	
805.78	4862.6	
805.96	4816.8	
806.13	3295.9	
806.31	3553.2	
806.48	4013.3	
806.66	4367	
806.83	3345	
807	3230.3	
807.18	4358.1	
807.35	4595.6	
807.53	3093.1	
807.7	2737.5	
807.87	5152	
808.05	4353.3	
808.22	3491.8	
808.4	2702	
808.57	4298	
808.74	4061.1	
808.92	3012.6	
809.09	3696.6	
809.27	4349.9	
809.44	4698	
809.61	2648.7	
809.79	2934.7	
809.96	5249.6	
810.14	4817.5	
810.31	2680.1	
810.48	3172.3	
810.66	4403.1	
810.83	4902.8	
811.01	3011.2	
811.18	3305.4	
811.35	4881.7	
811.53	3910.9	
811.7	3529.3	
811.87	3297.2	
812.05	4423.6	
812.22	4298.7	
812.39	2900.6	
812.57	2825.5	
812.74	4450.2	
812.92	5511.1	
813.09	3130.7	
813.26	3399.6	
813.44	5356.8	
813.61	4252.9	
813.78	2652.8	
813.96	3442	
814.13	4386.7	
814.3	4148.5	
814.48	3687.7	
814.65	3119.1	
814.82	5163.6	
815	4158.7	
815.17	3138.2	
815.34	3768.9	
815.52	4337.6	
815.69	4237.9	
815.87	3100.6	
816.04	3180.5	
816.21	4315.8	
816.38	3957.4	
816.56	3125.2	
816.73	2942.2	
816.9	5324.7	
817.08	4843.4	
817.25	2955.2	
817.42	3536.2	
817.6	4053.6	
817.77	4332.8	
817.94	3282.9	
818.12	2902.7	
818.29	4209.3	
818.46	6016.2	
818.64	3026.2	
818.81	2790.7	
818.98	4170.3	
819.16	5616.9	
819.33	3390.8	
819.5	3189.4	
819.67	4602.5	
819.85	5061.2	
820.02	3110.2	
820.19	3302.7	
820.37	4531.5	
820.54	4283	
820.71	3225.6	
820.88	3955.3	
821.06	4477.5	
821.23	4181.3	
821.4	3276.8	
821.58	3222.1	
821.75	4840.7	
821.92	4476.9	
822.09	2697.2	
822.27	2847.4	
822.44	4341.7	
822.61	4278.2	
822.79	2704.7	
822.96	4875.5	
823.13	4597.7	
823.3	4115.7	
823.48	3034.4	
823.65	2816.6	
823.82	4903.5	
823.99	4028.4	
824.17	3826.3	
824.34	2852.1	
824.51	5474.2	
824.68	4348.5	
824.86	2941.6	
825.03	3216.7	
825.2	4380.6	
825.37	5070.1	
825.55	2912.2	
825.72	3158	
825.89	5499.5	
826.06	5180	
826.24	3079.5	
826.41	3136.1	
826.58	5188.9	
826.75	4564.9	
826.92	2585.2	
827.1	2828.9	
827.27	6697.5	
827.44	5436	
827.61	2996.9	
827.79	3526.6	
827.96	4263.9	
828.13	4308.9	
828.3	3091.8	
828.47	2714.9	
828.65	4668.7	
828.82	4592.9	
828.99	3813.3	
829.16	3441.3	
829.34	4870.8	
829.51	4668	
829.68	3185.3	
829.85	3240.6	
830.02	5151.3	
830.2	4891.9	
830.37	2566.1	
830.54	3738.9	
830.71	5408.7	
830.88	4399	
831.05	2514.2	
831.23	2902.7	
831.4	5299.5	
831.57	5758.9	
831.74	3000.3	
831.91	2649.4	
832.09	4640.7	
832.26	4887.1	
832.43	3070.6	
832.6	3392.8	
832.77	4619.5	
832.94	5140.4	
833.12	2527.2	
833.29	3006.4	
833.46	4765.6	
833.63	5797.1	
833.8	3285.6	
833.97	3066.5	
834.15	4876.9	
834.32	4702.8	
834.49	3167.5	
834.66	3216	
834.83	4942.4	
835	4248.2	
835.17	2965.5	
835.35	2983.2	
835.52	4829.8	
835.69	4673.5	
835.86	3093.8	
836.03	2581.1	
836.2	4897.4	
836.37	4560.1	
836.55	3005.7	
836.72	2875.3	
836.89	4537.6	
837.06	4907.6	
837.23	3065.1	
837.4	3207.8	
837.57	5436.7	
837.75	5830.6	
837.92	2873.3	
838.09	2998.9	
838.26	4573.1	
838.43	5026.4	
838.6	3186	
838.77	2830.3	
838.94	5522.7	
839.11	5490.6	
839.29	3092.4	
839.46	2458.9	
839.63	4891.2	
839.8	4632.5	
839.97	2970.9	
840.14	2961.4	
840.31	4746.5	
840.48	4860.5	
840.65	2555.9	
840.82	2878.8	
841	4765.6	
841.17	4759.5	
841.34	2669.9	
841.51	2801.6	
841.68	4840.7	
841.85	4636.6	
842.02	2861.7	
842.19	2471.2	
842.36	4704.9	
842.53	4670.7	
842.7	2797.5	
842.87	3240.6	
843.05	5915.9	
843.22	4565.6	
843.39	2622.1	
843.56	2832.3	
843.73	4489.8	
843.9	4987.5	
844.07	4237.9	
844.24	3512.9	
844.41	6525.5	
844.58	4321.2	
844.75	2689	
844.92	2845.3	
845.09	4802.5	
845.26	4809.3	
845.43	2740.9	
845.6	2895.8	
845.77	4861.9	
845.94	4667.3	
846.12	3036.5	
846.29	3153.2	
846.46	5012.1	
846.63	4796.3	
846.8	2723.1	
846.97	3183.9	
847.14	5152.7	
847.31	4835.3	
847.48	3031.7	
847.65	3367.5	
847.82	4988.2	
847.99	4997	
848.16	3526.6	
848.33	3329.3	
848.5	4442	
848.67	5184.8	
848.84	2682.2	
849.01	2830.3	
849.18	4453	
849.35	4209.9	
849.52	3281.5	
849.69	2678.7	
849.86	5029.1	
850.03	4990.2	
850.2	2795.5	
850.37	3267.9	
850.54	4994.3	
850.71	4640.7	
850.88	3218	
851.05	2682.2	
851.22	4776.5	
851.39	5153.4	
851.56	2559.3	
851.73	3031.7	
851.9	4328	
852.07	4992.9	
852.24	3033	
852.41	2710.8	
852.58	4728.8	
852.75	4390.8	
852.92	3011.2	
853.09	2692.4	
853.26	4468	
853.43	5120.6	
853.6	2702.6	
853.77	2336.7	
853.94	5218.9	
854.11	4307.6	
854.28	3878.2	
854.44	2973.7	
854.61	5483.1	
854.78	5030.5	
854.95	2708.8	
855.12	3334.1	
855.29	4040	
855.46	5455.1	
855.63	2742.2	
855.8	3675.4	
855.97	4496.7	
856.14	5111	
856.31	3748.5	
856.48	2913.6	
856.65	4532.2	
856.82	4250.2	
856.99	2639.8	
857.16	2968.2	
857.33	5652.4	
857.49	4562.9	
857.66	2908.8	
857.83	3089	
858	4627.7	
858.17	4739	
858.34	2643.2	
858.51	2748.4	
858.68	5255.1	
858.85	5267.4	
859.02	3131.3	
859.19	3297.9	
859.36	4311.7	
859.52	4323.3	
859.69	2769.5	
859.86	3181.2	
860.03	4365.6	
860.2	5210	
860.37	2532.7	
860.54	2735.4	
860.71	5007.3	
860.88	5227.1	
861.05	3025.5	
861.21	3375.7	
861.38	5233.9	
861.55	4203.1	
861.72	2529.9	
861.89	3016.7	
862.06	5050.3	
862.23	5319.3	
862.4	2682.8	
862.56	2805	
862.73	4898.1	
862.9	4669.4	
863.07	3112.2	
863.24	2555.9	
863.41	4289.8	
863.58	4367.6	
863.75	2806.4	
863.91	3145.7	
864.08	5221.6	
864.25	4925.4	
864.42	3356.6	
864.59	3703.4	
864.76	5433.9	
864.93	4339	
865.09	2600.2	
865.26	2906.8	
865.43	5152.7	
865.6	5395.7	
865.77	2443.9	
865.94	2681.5	
866.1	5110.4	
866.27	4889.9	
866.44	3928	
866.61	2622.1	
866.78	4586.1	
866.95	4896.7	
867.11	2624.1	
867.28	2461.7	
867.45	5076.9	
867.62	4323.3	
867.79	3066.5	
867.96	2667.1	
868.12	4279.6	
868.29	4998.4	
868.46	2703.3	
868.63	3577.1	
868.8	5058.5	
868.97	4898.7	
869.13	2865.8	
869.3	2794.8	
869.47	4816.1	
869.64	5002.5	
869.81	2742.2	
869.97	2738.8	
870.14	4752	
870.31	5268.1	
870.48	2665.8	
870.65	3318.4	
870.81	4566.3	
870.98	4556	
871.15	3034.4	
871.32	2841.2	
871.48	4860.5	
871.65	5307	
871.82	2708.8	
871.99	2990	
872.16	5552.7	
872.32	5149.3	
872.49	2839.2	
872.66	2770.2	
872.83	4941.7	
872.99	4386.1	
873.16	3041.9	
873.33	2762	
873.5	4683.7	
873.67	4737.6	
873.83	2885.6	
874	3510.2	
874.17	4766.3	
874.34	5466.7	
874.5	3426.3	
874.67	3314.3	
874.84	5198.4	
875.01	4156	
875.17	3718.4	
875.34	2708.1	
875.51	4739.7	
875.68	5616.9	
875.84	3258.3	
876.01	3816	
876.18	4931.5	
876.34	4900.8	
876.51	2782.5	
876.68	2697.2	
876.85	4515.8	
877.01	5177.9	
877.18	3722.5	
877.35	2695.8	
877.52	4736.3	
877.68	4276.2	
877.85	2701.3	
878.02	2733.4	
878.18	4629.1	
878.35	4453	
878.52	2269.8	
878.69	2992.8	
878.85	5079	
879.02	4886.5	
879.19	3743.7	
879.35	2901.3	
879.52	4926	
879.69	4918.5	
879.86	2439.8	
880.02	3016.7	
880.19	4651.6	
880.36	5441.5	
880.52	3035.8	
880.69	3222.1	
880.86	5016.2	
881.02	5006.6	
881.19	2981.2	
881.36	2887.6	
881.52	4845.5	
881.69	4443.4	
881.86	2967.5	
882.02	2894.5	
882.19	5107	
882.36	5771.2	
882.52	2819.4	
882.69	3710.9	
882.86	4730.8	
883.02	4768.4	
883.19	3241.3	
883.36	3130	
883.52	4962.9	
883.69	5664	
883.86	2766.1	
884.02	2537.4	
884.19	4977.9	
884.36	4681	
884.52	3048.7	
884.69	2912.9	
884.86	4484.4	
885.02	5289.9	
885.19	2971.6	
885.36	3123.2	
885.52	4647.5	
885.69	4839.4	
885.86	3778.5	
886.02	3384.6	
886.19	5012.1	
886.35	4515.1	
886.52	2981.8	
886.69	3672.7	
886.85	4342.4	
887.02	5184.1	
887.19	5184.1	
887.35	5184.1	
887.52	5184.1	
887.68	5184.1	
887.85	5184.1	
888.02	5184.1	
888.18	5184.1	
888.35	5184.1	
888.51	5184.1	
888.68	5184.1	
888.85	5184.1	
889.01	5184.1	
889.18	5184.1	
889.35	5184.1	
889.51	5184.1	
889.68	5184.1	
889.84	5184.1	
890.01	5184.1	
890.17	5184.1	
890.34	5184.1	
890.51	5184.1	
890.67	5184.1	
890.84	5184.1	
891	5184.1	
891.17	5184.1	
891.34	5184.1	
891.5	5184.1	
891.67	5184.1	
891.83	5184.1	
892	5184.1	
892.16	5184.1	
892.33	5184.1	
892.5	5184.1	
892.66	5184.1	
892.83	5184.1	
892.99	5184.1	
893.16	5184.1	
893.32	5184.1	
893.49	5184.1	
893.65	5184.1	
893.82	5184.1	
893.99	5184.1	
894.15	5184.1	
894.32	5184.1	
894.48	5184.1	
894.65	5184.1	
894.81	5184.1	
894.98	5184.1	
895.14	5184.1	
895.31	5184.1	
895.47	5184.1	
895.64	5184.1	
895.81	5184.1	
895.97	5184.1	
896.14	5184.1	
896.3	5184.1	
896.47	5184.1	
896.63	5184.1	
896.8	5184.1	
896.96	5184.1	
897.13	5184.1	
897.29	5184.1	
897.46	5184.1	
897.62	5184.1	
897.79	5184.1	
897.95	5184.1	
898.12	5184.1	
898.28	5184.1	
898.45	5184.1	
898.61	5184.1	
898.78	5184.1	
898.94	5184.1	
899.11	5184.1	
899.27	5184.1	
899.44	5184.1	
899.6	5184.1	
899.77	5184.1	
899.93	5184.1	
900.1	5184.1	
900.26	5184.1	
900.43	5184.1	
900.59	5184.1	
900.76	5184.1	
900.92	5184.1	
901.09	5184.1	
901.25	5184.1	
901.42	5184.1	
901.58	5184.1	
901.75	5184.1	
901.91	5184.1	
902.07	5184.1	
902.24	5184.1	
902.4	5184.1	
902.57	5184.1	
902.73	5184.1	
902.9	5184.1	
903.06	5184.1	
903.23	5184.1	
903.39	5184.1	
903.56	5184.1	
903.72	5184.1	
903.88	5184.1	
904.05	5184.1	
904.21	5184.1	
904.38	5184.1	
904.54	5184.1	
904.71	5184.1	
904.87	5184.1	
905.03	5184.1	
905.2	5184.1	
905.36	5184.1	
905.53	5184.1	
905.69	5184.1	
905.86	5184.1	
906.02	5184.1	
906.18	5184.1	
906.35	5184.1	
906.51	5184.1	
906.68	5184.1	
906.84	5184.1	
907.01	5184.1	
907.17	5184.1	
907.33	5184.1	
907.5	5184.1	
907.66	5184.1	
907.83	5184.1	
907.99	5184.1	
908.15	5184.1	
908.32	5184.1	
908.48	5184.1	
908.65	5184.1	
908.81	5184.1	
908.97	5184.1	
909.14	5184.1	
909.3	5184.1	
909.47	5184.1	
909.63	5184.1	
909.79	5184.1	
909.96	5184.1	
910.12	5184.1	
910.28	5184.1	
910.45	5184.1	
910.61	5184.1	
910.78	5184.1	
910.94	5184.1	
911.1	5184.1	
911.27	5184.1	
911.43	5184.1	
911.59	5184.1	
911.76	5184.1	
911.92	5184.1	
912.08	5184.1	
912.25	5184.1	
912.41	5184.1	
912.57	5184.1	
912.74	5184.1	
912.9	5184.1	
913.07	5184.1	
913.23	5184.1	
913.39	5184.1	
913.56	5184.1	
913.72	5184.1	
913.88	5184.1	
914.05	5184.1	
914.21	5184.1	
914.37	5184.1	
914.54	5184.1	
914.7	5184.1	
914.86	5184.1	
915.03	5184.1	
915.19	5184.1	
