Wavelength	Intensities	
nm	a.u.	
179.22	1939.6	
179.44	1937	
179.65	1942.2	
179.86	1931.9	
180.08	1962	
180.29	5088.5	
180.51	3614.7	
180.72	5736.4	
180.94	6711.2	
181.15	3364.1	
181.37	3222.8	
181.58	5649.7	
181.79	5961.6	
182.01	3522.5	
182.22	3717.1	
182.44	5910.4	
182.65	4954.7	
182.87	4754	
183.08	4077.5	
183.29	6185.5	
183.51	5043.5	
183.72	3765.5	
183.94	5522.7	
184.15	5537.7	
184.37	5606	
184.58	3349.1	
184.79	4637.3	
185.01	5096.7	
185.22	5948	
185.44	4846.2	
185.65	4020.8	
185.86	5391.6	
186.08	5033.2	
186.29	3221.5	
186.51	3399.6	
186.72	5203.2	
186.94	6040.8	
187.15	3995.6	
187.36	4189.5	
187.58	8071.7	
187.79	5663.3	
188.01	4379.9	
188.22	6807.4	
188.43	6822.5	
188.65	5943.9	
188.86	3426.9	
189.08	4156	
189.29	5268.1	
189.5	5350.7	
189.72	3829.7	
189.93	3936.9	
190.15	6117.3	
190.36	7394.5	
190.57	4320.5	
190.79	4167.6	
191	6184.9	
191.22	6156.2	
191.43	4259.1	
191.64	3477.5	
191.86	6326.2	
192.07	6252.4	
192.29	3596.9	
192.5	3883.6	
192.71	6170.5	
192.93	5258.5	
193.14	3850.2	
193.35	3935.5	
193.57	5268.1	
193.78	6198.5	
194	3092.4	
194.21	3780.6	
194.42	4958.1	
194.64	5553.4	
194.85	4127.3	
195.07	4906.3	
195.28	5569.8	
195.49	4798.4	
195.71	5187.5	
195.92	3579.8	
196.13	5734.3	
196.35	5879.7	
196.56	5595.1	
196.78	4158.1	
196.99	7268.2	
197.2	6817.7	
197.42	4798.4	
197.63	4227.7	
197.84	4912.4	
198.06	5747.3	
198.27	3869.3	
198.48	5162.9	
198.7	5302.9	
198.91	5442.8	
199.13	4201.7	
199.34	4205.8	
199.55	5976	
199.77	4846.2	
199.98	3701.4	
200.19	4229.7	
200.41	5455.1	
200.62	5174.5	
200.83	4389.5	
201.05	4657.8	
201.26	5399.1	
201.47	5135.6	
201.69	3723.2	
201.9	3564.8	
202.11	5507.7	
202.33	6554.2	
202.54	3981.9	
202.76	4412.7	
202.97	5729.5	
203.18	5692.7	
203.4	4349.9	
203.61	4272.7	
203.82	5584.1	
204.04	5229.1	
204.25	4298.7	
204.46	4169	
204.68	5583.4	
204.89	5789.6	
205.1	4123.2	
205.32	3604.4	
205.53	6018.3	
205.74	6120.7	
205.96	2991.4	
206.17	4280.3	
206.38	5926.8	
206.6	6078.4	
206.81	4874.8	
207.02	3923.2	
207.24	5821	
207.45	6288.6	
207.66	4027	
207.88	3354.6	
208.09	5739.1	
208.3	5595.7	
208.52	3674.7	
208.73	4111	
208.94	5481	
209.15	6295.5	
209.37	3996.3	
209.58	4240	
209.79	6143.2	
210.01	5280.3	
210.22	3168.2	
210.43	3345	
210.65	5592.3	
210.86	5988.3	
211.07	4066.6	
211.29	3659.7	
211.5	5964.4	
211.71	5489.2	
211.93	3676.1	
212.14	3658.4	
212.35	5418.2	
212.56	5784.1	
212.78	4252.3	
212.99	3484.3	
213.2	6566.5	
213.42	5294.7	
213.63	3766.9	
213.84	4124.6	
214.06	4913.8	
214.27	5007.3	
214.48	3997	
214.69	4310.3	
214.91	6264.7	
215.12	6292	
215.33	4357.4	
215.55	4783.4	
215.76	6868.2	
215.97	5997.8	
216.18	4059.1	
216.4	4062.5	
216.61	5180.7	
216.82	6028.5	
217.04	3694.5	
217.25	3873.4	
217.46	6300.2	
217.67	5909.1	
217.89	3285.6	
218.1	3407.8	
218.31	5638.1	
218.53	5747.3	
218.74	3850.2	
218.95	3736.9	
219.16	5478.3	
219.38	6502.3	
219.59	3779.2	
219.8	4465.9	
220.01	7150.1	
220.23	5557.5	
220.44	4974.5	
220.65	3663.8	
220.87	5622.4	
221.08	6248.4	
221.29	3343	
221.5	4572.4	
221.72	7662.1	
221.93	5262.6	
222.14	4320.5	
222.35	4988.2	
222.57	5560.9	
222.78	5926.1	
222.99	4014.7	
223.2	4331.5	
223.42	5786.2	
223.63	6014.2	
223.84	3075.4	
224.05	3022.8	
224.27	7189.7	
224.48	6485.2	
224.69	5038	
224.9	4240	
225.12	5756.8	
225.33	5543.2	
225.54	3404.4	
225.75	3797.6	
225.97	5146.5	
226.18	5384.1	
226.39	4078.9	
226.6	3764.2	
226.82	5311.7	
227.03	5171.1	
227.24	4239.3	
227.45	3450.1	
227.67	5924.8	
227.88	6593.8	
228.09	4736.3	
228.3	4756.7	
228.52	6019	
228.73	5485.1	
228.94	3883.6	
229.15	3431	
229.36	5460.6	
229.58	5317.2	
229.79	3950.5	
230	4615.4	
230.21	6606.7	
230.43	5639.4	
230.64	4139.6	
230.85	4405.2	
231.06	5999.9	
231.28	5982.1	
231.49	3462.4	
231.7	4128	
231.91	5897.5	
232.12	5548.6	
232.34	3607.8	
232.55	4104.1	
232.76	6279.8	
232.97	5788.2	
233.18	3672.7	
233.4	4158.1	
233.61	5830.6	
233.82	5237.3	
234.03	3846.1	
234.25	3815.4	
234.46	7809.6	
234.67	5584.1	
234.88	4338.3	
235.09	3764.2	
235.31	5927.5	
235.52	5425.8	
235.73	4191.5	
235.94	3523.2	
236.15	5218.9	
236.37	6769.2	
236.58	3686.3	
236.79	4041.3	
237	5888.6	
237.21	5079	
237.43	4308.2	
237.64	3412.6	
237.85	10319	
238.06	5066	
238.27	4449.6	
238.48	3477.5	
238.7	5879	
238.91	5431.9	
239.12	4059.1	
239.33	4037.2	
239.54	5216.2	
239.76	5422.3	
239.97	4024.9	
240.18	3951.9	
240.39	7024.5	
240.6	5889.3	
240.82	4194.2	
241.03	3453.6	
241.24	5560.9	
241.45	6498.2	
241.66	3614.7	
241.87	4386.7	
242.09	6310.5	
242.3	6711.2	
242.51	4468	
242.72	4086.4	
242.93	6058.6	
243.14	5476.3	
243.36	4711	
243.57	5109.7	
243.78	6415.6	
243.99	5963.7	
244.2	4084.3	
244.41	3685.7	
244.63	5055.1	
244.84	5864.7	
245.05	4364.2	
245.26	4039.3	
245.47	5881.8	
245.68	6177.4	
245.9	5424.4	
246.11	4267.3	
246.32	5396.4	
246.53	5857.2	
246.74	6645.7	
246.95	3387.3	
247.16	5031.9	
247.38	5593	
247.59	3392.1	
247.8	4046.8	
248.01	5243.5	
248.22	5433.9	
248.43	3680.9	
248.64	3983.3	
248.86	4886.5	
249.07	5260.5	
249.28	3498.6	
249.49	4122.6	
249.7	6128.9	
249.91	6295.5	
250.12	3304.7	
250.34	3401	
250.55	5658.5	
250.76	5537	
250.97	4191.5	
251.18	4217.5	
251.39	6265.4	
251.6	5732.3	
251.81	4275.5	
252.03	4304.1	
252.24	5285.1	
252.45	6139.1	
252.66	3507.5	
252.87	4408.6	
253.08	5594.4	
253.29	7389.1	
253.5	3538.2	
253.72	4945.2	
253.93	5373.2	
254.14	6651.1	
254.35	3885	
254.56	3933.5	
254.77	5713.2	
254.98	5140.4	
255.19	3785.3	
255.41	4924	
255.62	5658.5	
255.83	6240.2	
256.04	4389.5	
256.25	4253.6	
256.46	6887.3	
256.67	5243.5	
256.88	4181.3	
257.09	4672.1	
257.31	5216.2	
257.52	5263.3	
257.73	5293.3	
257.94	3820.1	
258.15	5399.8	
258.36	5595.1	
258.57	4931.5	
258.78	3056.9	
258.99	6149.4	
259.2	5357.5	
259.41	3852.2	
259.63	3910.9	
259.84	6516.6	
260.05	6969.2	
260.26	5082.4	
260.47	3738.2	
260.68	6206	
260.89	5498.1	
261.1	4688.5	
261.31	3636.5	
261.52	6107.7	
261.73	6578.8	
261.95	5023.7	
262.16	4375.8	
262.37	6344.6	
262.58	6418.3	
262.79	4990.2	
263	3945.8	
263.21	5607.3	
263.42	5058.5	
263.63	3962.1	
263.84	3938.2	
264.05	6157.6	
264.26	6556.9	
264.47	4812.7	
264.69	4376.5	
264.9	6334.4	
265.11	5776.6	
265.32	3785.3	
265.53	3827	
265.74	5714.5	
265.95	4926.7	
266.16	4154	
266.37	4607.9	
266.58	5696.8	
266.79	5401.9	
267	3796.3	
267.21	3534.8	
267.42	5155.4	
267.63	5540.4	
267.84	4022.9	
268.06	3442.6	
268.27	6017.6	
268.48	6302.3	
268.69	3938.2	
268.9	4693.9	
269.11	6341.9	
269.32	5053	
269.53	4070.7	
269.74	3761.4	
269.95	5887.9	
270.16	4929.5	
270.37	3983.3	
270.58	4715.8	
270.79	5388.9	
271	6072.2	
271.21	4380.6	
271.42	4057	
271.63	5638.1	
271.84	5223.7	
272.05	3228.3	
272.26	3715	
272.47	5571.8	
272.68	5831.2	
272.89	3870.7	
273.11	4566.3	
273.32	5409.4	
273.53	6512.5	
273.74	4384	
273.95	4260.5	
274.16	6265.4	
274.37	5639.4	
274.58	4478.9	
274.79	3558	
275	5669.5	
275.21	6335	
275.42	5278.3	
275.63	4612.7	
275.84	5783.5	
276.05	7373.4	
276.26	4323.3	
276.47	3999.7	
276.68	5420.3	
276.89	6599.2	
277.1	4567.7	
277.31	3562.8	
277.52	5846.3	
277.73	6033.3	
277.94	3456.3	
278.15	3967.6	
278.36	5796.4	
278.57	5165	
278.78	3889.8	
278.99	4349.2	
279.2	5137	
279.41	5120.6	
279.62	5119.9	
279.83	3573	
280.04	6846.4	
280.25	5085.8	
280.46	5089.2	
280.67	4057	
280.88	5169.8	
281.09	6292.7	
281.3	4326.7	
281.51	5371.1	
281.72	5287.9	
281.93	6088.6	
282.14	3810.6	
282.35	4087.1	
282.56	6063.4	
282.77	6036.7	
282.98	3922.5	
283.19	4827.7	
283.4	7503.8	
283.61	5491.3	
283.82	3628.3	
284.03	5078.3	
284.24	5687.9	
284.45	6227.2	
284.66	5020.3	
284.87	4790.9	
285.08	6151.4	
285.29	6317.3	
285.5	3439.9	
285.71	3977.8	
285.92	6238.8	
286.12	6946	
286.33	5005.2	
286.54	3938.2	
286.75	6091.3	
286.96	5446.9	
287.17	3610.6	
287.38	4913.8	
287.59	5157.5	
287.8	5091.3	
288.01	3956	
288.22	4577.9	
288.43	6143.2	
288.64	5081.7	
288.85	4706.9	
289.06	4513.7	
289.27	6008.1	
289.48	6607.4	
289.69	5042.1	
289.9	4579.9	
290.11	6271.6	
290.32	5259.9	
290.53	4809.3	
290.74	4445.5	
290.94	6012.2	
291.15	6094.1	
291.36	3805.8	
291.57	4586.1	
291.78	5282.4	
291.99	4939.7	
292.2	3622.9	
292.41	4426.3	
292.62	6214.9	
292.83	5937.7	
293.04	5476.3	
293.25	3685	
293.46	5350	
293.67	6163.7	
293.88	3796.9	
294.09	3629.7	
294.29	5113.1	
294.5	5729.5	
294.71	4044.7	
294.92	3913.7	
295.13	5317.2	
295.34	6764.4	
295.55	3405.8	
295.76	3486.3	
295.97	6053.8	
296.18	6864.8	
296.39	3525.9	
296.6	3792.2	
296.81	5730.9	
297.01	6036	
297.22	3953.3	
297.43	3759.4	
297.64	5158.8	
297.85	5227.1	
298.06	3091.8	
298.27	3357.3	
298.48	5645.6	
298.69	5238	
298.9	4109.6	
299.11	3756.7	
299.31	5099.4	
299.52	5055.1	
299.73	4407.9	
299.94	4326	
300.15	5543.2	
300.36	5119.2	
300.57	4385.4	
300.78	4293.9	
300.99	5387.5	
301.2	5707.7	
301.4	3722.5	
301.61	4106.9	
301.82	5949.3	
302.03	6033.3	
302.24	4654.4	
302.45	3577.1	
302.66	5903.6	
302.87	6369.9	
303.08	3807.9	
303.29	5199.1	
303.49	5273.5	
303.7	5613.5	
303.91	3356.6	
304.12	4930.8	
304.33	5102.9	
304.54	5735	
304.75	3827.7	
304.96	3629	
305.16	5943.9	
305.37	6728.3	
305.58	3264.5	
305.79	3414.6	
306	5902.9	
306.21	4967.7	
306.42	3858.4	
306.63	5789.6	
306.83	5418.9	
307.04	6238.1	
307.25	4147.8	
307.46	4147.8	
307.67	4756.1	
307.88	6087.9	
308.09	3704.8	
308.29	3853.6	
308.5	5681.7	
308.71	6220.4	
308.92	4108.9	
309.13	3610.6	
309.34	5365	
309.55	5504.3	
309.75	4725.3	
309.96	4326	
310.17	5969.8	
310.38	5182	
310.59	4590.9	
310.8	4235.2	
311.01	5767.1	
311.21	5444.2	
311.42	3558	
311.63	3734.8	
311.84	5315.8	
312.05	5756.8	
312.26	4248.9	
312.46	4655	
312.67	5400.5	
312.88	5128.8	
313.09	3707.5	
313.3	3532.7	
313.51	6406.7	
313.71	6823.1	
313.92	3599.6	
314.13	3861.8	
314.34	5782.1	
314.55	5500.2	
314.76	4764.3	
314.96	4074.8	
315.17	5619.6	
315.38	6014.2	
315.59	3675.4	
315.8	3426.3	
316.01	6488	
316.21	6608.1	
316.42	3547.1	
316.63	3994.2	
316.84	5453.7	
317.05	6343.2	
317.26	4334.9	
317.46	3886.4	
317.67	5469.4	
317.88	5972.6	
318.09	4707.6	
318.3	3382.6	
318.5	5236	
318.71	5882.4	
318.92	5984.8	
319.13	4275.5	
319.34	6171.2	
319.54	6240.2	
319.75	3420.8	
319.96	3273.3	
320.17	6026.5	
320.38	6192.4	
320.58	3336.8	
320.79	4027.7	
321	6203.3	
321.21	6270.9	
321.42	4043.4	
321.62	3325.2	
321.83	5166.3	
322.04	5562.3	
322.25	3880.2	
322.46	3680.2	
322.66	5675.6	
322.87	5852.4	
323.08	4652.3	
323.29	3635.8	
323.5	6711.9	
323.7	5113.1	
323.91	5066.7	
324.12	4476.9	
324.33	5668.8	
324.53	5905	
324.74	4391.5	
324.95	4654.4	
325.16	4929.5	
325.37	5382.7	
325.57	3680.9	
325.78	3760.8	
325.99	5640.8	
326.2	5051	
326.4	5274.9	
326.61	3339.6	
326.82	5500.8	
327.03	5712.5	
327.24	5211.4	
327.44	5036.6	
327.65	5812.1	
327.86	4697.4	
328.07	4274.8	
328.27	3480.2	
328.48	6315.3	
328.69	5119.2	
328.9	5369.1	
329.1	3964.9	
329.31	5426.4	
329.52	6443.6	
329.73	3652.9	
329.93	4214.7	
330.14	5539.1	
330.35	5838.8	
330.56	6113.9	
330.76	4506.2	
330.97	5380	
331.18	5791.7	
331.39	4136.2	
331.59	3248.1	
331.8	6204.7	
332.01	6298.2	
332.22	3759.4	
332.42	4388.1	
332.63	5711.1	
332.84	5277.6	
333.05	4110.3	
333.25	3730.7	
333.46	5350.7	
333.67	5601.9	
333.88	3826.3	
334.08	4271.4	
334.29	7544.7	
334.5	6361	
334.7	3583.9	
334.91	5276.9	
335.12	5087.8	
335.33	6032.6	
335.53	4031.1	
335.74	6105	
335.95	5339.1	
336.16	5193.6	
336.36	4021.5	
336.57	4775.2	
336.78	5066	
336.98	6247.7	
337.19	5102.2	
337.4	3986.7	
337.61	6759	
337.81	5062.6	
338.02	3787.4	
338.23	4876.2	
338.43	6414.9	
338.64	5231.2	
338.85	3679.5	
339.05	4831.2	
339.26	6494.8	
339.47	4986.1	
339.68	3641.3	
339.88	5569.1	
340.09	5820.3	
340.3	6062.7	
340.5	4288.4	
340.71	3290.4	
340.92	5053	
341.13	6371.2	
341.33	3573.7	
341.54	4372.4	
341.75	5819.6	
341.95	5423.7	
342.16	4105.5	
342.37	4504.2	
342.57	5153.4	
342.78	5573.9	
342.99	4590.9	
343.19	3269.2	
343.4	6028.5	
343.61	5870.8	
343.81	3911.6	
344.02	3608.5	
344.23	6055.2	
344.43	6498.9	
344.64	4599.1	
344.85	4530.8	
345.06	5858.6	
345.26	6221	
345.47	4286.4	
345.68	4997.7	
345.88	4877.6	
346.09	6044.9	
346.3	4362.2	
346.5	3248.8	
346.71	5568.4	
346.92	5300.8	
347.12	3340.2	
347.33	4211.3	
347.54	6137.8	
347.74	6630	
347.95	4266.6	
348.16	3173.7	
348.36	5375.2	
348.57	5238.7	
348.78	4173.1	
348.98	4585.4	
349.19	5526.8	
349.39	5014.8	
349.6	3327.9	
349.81	3743.7	
350.01	5849	
350.22	5271.5	
350.43	4038.6	
350.63	4912.4	
350.84	5612.1	
351.05	5398.4	
351.25	3717.7	
351.46	3297.9	
351.67	6241.5	
351.87	5196.4	
352.08	3936.9	
352.29	4560.8	
352.49	6057.2	
352.7	5748	
352.9	3562.1	
353.11	4554.7	
353.32	6801.3	
353.52	5354.1	
353.73	3589.4	
353.94	4592.2	
354.14	5898.2	
354.35	5728.9	
354.55	3633.8	
354.76	4111	
354.97	5744.6	
355.17	5629.9	
355.38	3460.4	
355.59	4826.4	
355.79	5206.6	
356	5750.7	
356.2	4042.7	
356.41	3533.4	
356.62	4932.9	
356.82	5496.1	
357.03	4437.9	
357.24	3988.1	
357.44	5352	
357.65	5409.4	
357.85	5191.6	
358.06	4120.5	
358.27	5022.3	
358.47	5231.9	
358.68	3374.4	
358.88	4346.5	
359.09	5799.2	
359.3	6240.2	
359.5	5098.8	
359.71	4469.4	
359.91	6727.6	
360.12	6068.1	
360.33	4287.8	
360.53	4880.3	
360.74	5246.9	
360.94	5364.3	
361.15	4506.2	
361.36	3694.5	
361.56	6050.4	
361.77	5445.5	
361.97	5046.2	
362.18	3970.3	
362.38	6173.9	
362.59	5139.7	
362.8	3641.3	
363	3489.7	
363.21	4973.8	
363.41	5658.5	
363.62	4272.7	
363.83	5403.2	
364.03	5677	
364.24	6792.4	
364.44	5358.9	
364.65	5418.9	
364.85	5448.3	
365.06	5085.1	
365.27	3826.3	
365.47	3887	
365.68	6524.1	
365.88	5501.5	
366.09	4311.7	
366.29	3893.2	
366.5	5788.2	
366.71	6150.7	
366.91	5389.6	
367.12	4502.1	
367.32	6860	
367.53	6095.4	
367.73	4407.2	
367.94	5420.3	
368.14	5978.7	
368.35	7024.5	
368.56	4329.4	
368.76	3720.5	
368.97	6078.4	
369.17	7914.7	
369.38	3891.8	
369.58	4130.1	
369.79	5074.9	
369.99	6532.3	
370.2	5184.1	
370.4	4343.1	
370.61	5816.2	
370.82	7017.7	
371.02	4170.3	
371.23	3445.4	
371.43	4944.5	
371.64	6343.9	
371.84	4205.2	
372.05	5487.9	
372.25	7836.2	
372.46	6139.8	
372.66	4235.9	
372.87	4177.2	
373.07	6217.6	
373.28	7883.3	
373.48	5246.2	
373.69	5023.7	
373.9	5636	
374.1	5686.5	
374.31	5241.4	
374.51	4772.4	
374.72	6588.3	
374.92	5289.9	
375.13	5426.4	
375.33	4532.8	
375.54	6070.9	
375.74	5489.9	
375.95	4564.2	
376.15	5934.3	
376.36	6133.7	
376.56	5874.3	
376.77	4703.5	
376.97	5200.5	
377.18	7254.6	
377.38	6109.8	
377.59	5572.5	
377.79	4162.8	
378	5956.9	
378.2	6485.9	
378.41	4304.8	
378.61	4193.6	
378.82	6506.4	
379.02	5582.1	
379.23	4411.3	
379.43	5683.1	
379.64	6591.7	
379.84	6225.8	
380.05	4223.6	
380.25	4188.8	
380.46	6360.3	
380.66	5846.3	
380.87	5741.8	
381.07	6023.8	
381.28	6892.8	
381.48	6291.4	
381.69	4285.7	
381.89	4278.9	
382.1	5164.3	
382.3	6490.7	
382.51	5388.2	
382.71	6365.8	
382.91	6378.1	
383.12	6930.3	
383.32	4646.2	
383.53	4911.7	
383.73	6144.6	
383.94	5874.3	
384.14	4747.9	
384.35	3904.8	
384.55	5802.6	
384.76	6391.7	
384.96	4640.7	
385.17	4984.1	
385.37	6314.6	
385.58	5541.1	
385.78	4993.6	
385.98	3775.1	
386.19	5722.7	
386.39	6152.1	
386.6	4316.4	
386.8	4597	
387.01	6227.2	
387.21	6267.5	
387.42	5040.1	
387.62	5668.8	
387.83	5508.4	
388.03	6285.9	
388.23	4633.9	
388.44	5530.9	
388.64	5156.1	
388.85	5366.4	
389.05	5074.9	
389.26	5706.3	
389.46	7258	
389.67	6695.5	
389.87	5005.2	
390.07	5113.8	
390.28	5939.1	
390.48	5423.7	
390.69	4264.6	
390.89	4519.9	
391.1	5659.2	
391.3	6623.1	
391.5	5750	
391.71	6438.8	
391.91	6343.9	
392.12	7509.9	
392.32	5975.3	
392.53	5029.8	
392.73	5702.9	
392.93	5976.7	
393.14	4701.5	
393.34	5558.9	
393.55	6492.7	
393.75	5921.4	
393.95	4698.7	
394.16	4670.1	
394.36	5663.3	
394.57	6393.8	
394.77	4088.4	
394.98	4530.8	
395.18	5586.9	
395.38	5684.5	
395.59	5498.8	
395.79	4365.6	
396	5741.8	
396.2	6236.7	
396.4	5293.3	
396.61	5199.8	
396.81	6488	
397.02	5687.2	
397.22	5609.4	
397.42	5657.9	
397.63	6448.4	
397.83	5642.8	
398.04	4352.6	
398.24	4936.3	
398.44	6184.2	
398.65	5227.1	
398.85	4201.7	
399.05	4412.7	
399.26	5608	
399.46	7494.2	
399.67	4727.4	
399.87	4468	
400.07	6025.1	
400.28	6391.7	
400.48	4599.7	
400.69	5646.2	
400.89	6681.2	
401.09	7161.1	
401.3	4476.9	
401.5	5711.8	
401.7	7470.3	
401.91	7688.8	
402.11	4868.7	
402.32	5155.4	
402.52	6711.9	
402.72	6605.4	
402.93	5386.8	
403.13	4120.5	
403.33	7552.9	
403.54	6054.5	
403.74	4943.8	
403.94	5916.6	
404.15	6123.4	
404.35	7339.9	
404.56	4641.4	
404.76	6654.5	
404.96	6568.5	
405.17	6256.5	
405.37	6146	
405.57	5173.9	
405.78	6594.5	
405.98	6036	
406.18	4758.8	
406.39	5745.2	
406.59	6589	
406.79	6223.1	
407	4590.9	
407.2	4651.6	
407.4	6669.6	
407.61	6845.7	
407.81	4616.1	
408.01	6752.8	
408.22	5573.2	
408.42	7610.9	
408.62	5707.7	
408.83	5182	
409.03	6225.8	
409.23	5999.2	
409.44	5292	
409.64	5646.9	
409.84	7253.2	
410.05	7169.3	
410.25	5524.1	
410.45	5256.5	
410.66	6552.1	
410.86	9267.7	
411.06	5737.7	
411.27	5572.5	
411.47	8961.2	
411.67	6767.9	
411.88	5874.9	
412.08	6131.6	
412.28	7475.8	
412.49	8054	
412.69	5614.8	
412.89	5681.1	
413.09	7841	
413.3	7680.6	
413.5	5756.2	
413.7	5270.8	
413.91	6918.7	
414.11	7831.4	
414.31	5504.9	
414.52	6038.1	
414.72	7452.6	
414.92	7316.7	
415.12	5547.3	
415.33	6120	
415.53	7709.2	
415.73	7991.9	
415.94	6486.6	
416.14	5856.5	
416.34	6733	
416.55	6589	
416.75	7167.2	
416.95	6509.1	
417.15	7704.5	
417.36	8434.2	
417.56	7381.6	
417.76	6425.2	
417.97	8213	
418.17	7806.9	
418.37	5929.6	
418.57	6021	
418.78	7546.8	
418.98	7244.3	
419.18	6901	
419.38	6787	
419.59	7343.3	
419.79	6911.2	
419.99	5853.8	
420.2	6298.9	
420.4	7735.9	
420.6	8024.6	
420.8	5662	
421.01	5520.6	
421.21	7529.7	
421.41	7736.5	
421.61	6159.6	
421.82	5786.9	
422.02	7107.8	
422.22	8177.5	
422.42	6728.9	
422.63	6296.1	
422.83	7217	
423.03	8516.8	
423.23	6292.7	
423.44	5190.2	
423.64	7326.9	
423.84	6949.4	
424.04	5700.9	
424.25	5338.4	
424.45	8157.1	
424.65	8130.4	
424.85	5124.7	
425.06	5757.5	
425.26	8079.9	
425.46	6620.4	
425.66	6202.6	
425.87	5907	
426.07	7947.5	
426.27	7776.1	
426.47	5971.2	
426.67	5347.2	
426.88	8206.2	
427.08	7690.1	
427.28	6258.6	
427.48	5260.5	
427.69	6464.1	
427.89	7186.3	
428.09	6201.9	
428.29	5253	
428.5	7934.5	
428.7	7391.8	
428.9	5167	
429.1	5845.6	
429.3	7276.4	
429.51	7746.8	
429.71	5484.5	
429.91	6337.1	
430.11	7578.2	
430.31	7811.6	
430.52	5859.2	
430.72	6145.3	
430.92	8249.2	
431.12	7530.4	
431.32	5464	
431.53	5913.2	
431.73	6418.3	
431.93	8276.5	
432.13	5327.4	
432.33	5289.9	
432.54	6843.6	
432.74	7363.8	
432.94	5122	
433.14	6274.3	
433.34	7453.2	
433.55	6918.7	
433.75	6229.9	
433.95	8170.7	
434.15	7311.2	
434.35	6950.8	
434.56	5362.3	
434.76	4747.9	
434.96	7276.4	
435.16	7619.1	
435.36	5171.8	
435.56	6455.2	
435.77	6894.8	
435.97	7019.1	
436.17	7192.5	
436.37	6404	
436.57	6862.7	
436.78	6732.4	
436.98	8260.1	
437.18	6974.7	
437.38	7624.6	
437.58	7044.3	
437.78	7111.9	
437.99	5651	
438.19	7629.4	
438.39	8466.3	
438.59	5600.5	
438.79	5056.4	
438.99	8313.4	
439.2	7089.4	
439.4	5205.9	
439.6	5153.4	
439.8	7341.3	
440	8484.1	
440.2	6150.7	
440.4	6282.5	
440.61	7772.7	
440.81	8369.4	
441.01	5417.6	
441.21	6323.4	
441.41	8241	
441.61	7875.1	
441.81	6638.8	
442.02	7812.3	
442.22	8867	
442.42	7918.8	
442.62	5516.5	
442.82	5490.6	
443.02	8186.4	
443.22	7196.6	
443.43	5913.9	
443.63	5461.2	
443.83	6977.4	
444.03	7036.1	
444.23	6760.3	
444.43	6357.6	
444.63	7420.5	
444.83	8731.2	
445.04	5512.4	
445.24	7032	
445.44	7823.2	
445.64	7925	
445.84	6433.4	
446.04	6518.7	
446.24	7167.2	
446.44	8282	
446.65	5552.7	
446.85	6043.6	
447.05	7529	
447.25	8195.3	
447.45	6026.5	
447.65	5328.1	
447.85	7437.5	
448.05	7081.9	
448.25	6518.7	
448.46	6186.9	
448.66	7401.4	
448.86	7053.2	
449.06	5239.4	
449.26	6481.8	
449.46	7750.9	
449.66	6681.8	
449.86	5913.2	
450.06	5878.4	
450.26	7009.5	
450.47	7610.3	
450.67	6256.5	
450.87	6601.3	
451.07	7672.4	
451.27	7404.8	
451.47	5446.2	
451.67	5992.4	
451.87	7026.6	
452.07	8316.1	
452.27	5644.9	
452.47	5616.9	
452.67	7377.5	
452.88	7934.5	
453.08	4990.2	
453.28	7096.2	
453.48	8680.7	
453.68	7364.5	
453.88	5516.5	
454.08	5817.6	
454.28	7665.5	
454.48	7275.8	
454.68	6383.5	
454.88	6932.4	
455.08	7761.8	
455.28	7593.2	
455.48	5347.9	
455.68	6068.1	
455.89	8275.8	
456.09	8016.4	
456.29	5683.1	
456.49	5824.4	
456.69	8116.1	
456.89	7324.2	
457.09	6248.4	
457.29	6614.3	
457.49	7699	
457.69	7815	
457.89	6108.4	
458.09	5427.8	
458.29	7319.4	
458.49	8159.8	
458.69	6628.6	
458.89	5913.9	
459.09	8460.8	
459.29	8552.3	
459.49	6029.2	
459.69	6876.4	
459.9	8060.8	
460.1	7444.4	
460.3	5929.6	
460.5	5677	
460.7	7912.7	
460.9	7626	
461.1	5296	
461.3	6642.9	
461.5	8604.9	
461.7	8169.3	
461.9	5663.3	
462.1	6141.2	
462.3	7552.2	
462.5	8240.3	
462.7	5842.2	
462.9	5870.8	
463.1	9333.3	
463.3	8856.8	
463.5	6046.3	
463.7	7055.9	
463.9	7721.5	
464.1	8225.3	
464.3	6116.6	
464.5	6448.4	
464.7	8415.8	
464.9	8011	
465.1	7832.1	
465.3	6847.7	
465.5	8813.1	
465.7	8698.4	
465.9	7053.2	
466.1	6916	
466.3	8541.4	
466.5	8352.3	
466.7	7836.2	
466.9	6577.4	
467.1	8211	
467.3	9338.7	
467.5	7664.9	
467.7	6448.4	
467.9	9512.1	
468.1	10368	
468.3	7316.7	
468.5	7742.7	
468.7	8204.8	
468.9	8237.6	
469.1	6813.6	
469.3	7648.5	
469.5	10401	
469.7	7739.3	
469.9	7356.3	
470.1	6553.5	
470.3	8256.7	
470.5	8371.4	
470.7	7896.3	
470.9	6636.1	
471.1	7984.3	
471.3	8496.3	
471.5	6482.5	
471.69	8615.1	
471.89	7858.7	
472.09	7365.9	
472.29	7289.4	
472.49	7731.8	
472.69	7548.1	
472.89	8441	
473.09	6319.3	
473.29	6507.1	
473.49	7788.4	
473.69	8008.2	
473.89	7523.6	
474.09	6692.8	
474.29	9312.1	
474.49	8994.7	
474.69	7496.2	
474.89	6807.4	
475.09	8021.2	
475.29	7974.8	
475.49	6218.3	
475.69	6487.3	
475.88	9678.7	
476.08	8293.6	
476.28	6045.6	
476.48	6610.2	
476.68	8766	
476.88	8629.5	
477.08	6419	
477.28	6726.2	
477.48	8041	
477.68	8832.9	
477.88	6167.8	
478.08	6492.7	
478.28	8997.4	
478.48	8102.4	
478.67	6505.7	
478.87	5994.4	
479.07	8813.8	
479.27	8300.4	
479.47	6761	
479.67	6729.6	
479.87	8616.5	
480.07	9123	
480.27	5993	
480.47	7834.2	
480.67	8292.2	
480.87	8959.2	
481.06	6217	
481.26	7137.9	
481.46	8155.7	
481.66	8092.2	
481.86	6703.7	
482.06	7946.1	
482.26	7948.2	
482.46	8914.8	
482.66	6699.6	
482.86	6292.7	
483.05	8176.2	
483.25	7602.7	
483.45	9288.9	
483.65	6714.6	
483.85	7673.7	
484.05	8082	
484.25	7167.2	
484.45	7600	
484.65	9021.3	
484.84	8900.5	
485.04	6511.9	
485.24	6507.8	
485.44	9306	
485.64	7430.7	
485.84	5750	
486.04	7247.8	
486.24	7848.5	
486.44	8219.2	
486.63	5706.3	
486.83	6554.9	
487.03	7727.7	
487.23	7898.3	
487.43	5771.9	
487.63	8392.6	
487.83	7963.9	
488.02	8969.4	
488.22	6894.1	
488.42	7436.2	
488.62	8918.2	
488.82	7698.3	
489.02	6541.9	
489.22	6493.4	
489.41	8769.4	
489.61	8301.1	
489.81	6173.3	
490.01	6244.3	
490.21	8677.2	
490.41	9385.2	
490.61	6151.4	
490.8	6301.6	
491	8120.9	
491.2	7320.1	
491.4	7015.7	
491.6	5979.4	
491.8	8081.3	
491.99	8353	
492.19	5834.7	
492.39	6279.1	
492.59	8632.2	
492.79	8630.1	
492.99	7068.2	
493.18	6050.4	
493.38	8760.5	
493.58	9381.1	
493.78	6803.4	
493.98	6347.3	
494.18	8416.5	
494.37	7801.4	
494.57	7094.8	
494.77	6898.9	
494.97	8549.6	
495.17	8802.2	
495.37	6400.6	
495.56	6757.6	
495.76	8986.5	
495.96	8595.3	
496.16	7774.1	
496.36	6579.4	
496.55	8791.2	
496.75	8295.6	
496.95	7055.9	
497.15	6842.9	
497.35	8811	
497.54	8761.2	
497.74	6670.2	
497.94	8453.3	
498.14	9467.1	
498.34	9280	
498.53	6349.4	
498.73	7200.7	
498.93	8045.8	
499.13	8708	
499.33	6890.7	
499.52	7537.2	
499.72	8544.8	
499.92	8954.4	
500.12	6589.7	
500.32	6820.4	
500.51	8952.4	
500.71	8710	
500.91	7686	
501.11	7268.2	
501.31	8845.2	
501.5	9279.3	
501.7	8001.4	
501.9	6881.2	
502.1	8644.5	
502.29	8948.9	
502.49	7358.4	
502.69	7944.1	
502.89	8846.5	
503.09	8856.8	
503.28	6435.4	
503.48	6485.2	
503.68	8017.8	
503.88	8064.2	
504.07	7573.4	
504.27	7067.5	
504.47	8553	
504.67	8612.4	
504.86	7423.2	
505.06	7141.9	
505.26	8189.8	
505.46	10081	
505.65	6967.2	
505.85	7180.9	
506.05	8041	
506.25	8565.3	
506.44	6288.6	
506.64	7275.8	
506.84	7969.3	
507.04	9051.3	
507.23	6450.4	
507.43	7153.6	
507.63	10142	
507.83	8200.7	
508.02	7101	
508.22	6683.9	
508.42	10345	
508.62	7894.2	
508.81	6972	
509.01	7604.1	
509.21	7776.1	
509.4	8097	
509.6	7192.5	
509.8	6379.4	
510	8053.3	
510.19	9650	
510.39	6399.2	
510.59	6462.7	
510.79	7849.9	
510.98	9296.4	
511.18	6616.3	
511.38	6647.7	
511.57	8822.6	
511.77	8645.8	
511.97	7451.9	
512.17	6339.8	
512.36	8713.4	
512.56	8760.5	
512.76	6389	
512.95	6178	
513.15	8860.9	
513.35	7335.1	
513.55	7257.3	
513.74	6382.2	
513.94	8770.1	
514.14	8013.7	
514.33	7368.6	
514.53	7116	
514.73	8021.2	
514.92	8202.8	
515.12	6623.1	
515.32	6342.6	
515.51	8377.6	
515.71	8914.8	
515.91	8089.5	
516.11	6421.1	
516.3	10025	
516.5	7853.3	
516.7	7028.6	
516.89	7738.6	
517.09	8073.1	
517.29	7883.3	
517.48	7452.6	
517.68	6649.8	
517.88	7700.4	
518.07	8408.3	
518.27	7204.1	
518.47	6182.1	
518.66	8984.4	
518.86	7520.8	
519.06	6010.8	
519.25	6534.4	
519.45	7869	
519.65	9395.4	
519.84	7223.9	
520.04	7963.2	
520.24	9810.5	
520.43	8583.7	
520.63	6878.4	
520.83	6548.7	
521.02	7837.6	
521.22	8459.5	
521.42	7178.1	
521.61	7685.3	
521.81	7933.8	
522.01	8116.8	
522.2	6899.6	
522.4	6724.2	
522.6	8626	
522.79	7238.2	
522.99	6804.7	
523.18	5993	
523.38	8206.9	
523.58	8255.4	
523.77	8067.6	
523.97	5891.3	
524.17	10210	
524.36	9275.3	
524.56	7477.1	
524.76	7076.4	
524.95	8272.4	
525.15	7830.7	
525.34	6796.5	
525.54	6735.8	
525.74	8563.2	
525.93	7582.9	
526.13	8070.4	
526.33	6652.5	
526.52	8877.3	
526.72	8417.8	
526.91	7990.5	
527.11	7252.5	
527.31	9017.9	
527.5	9421.3	
527.7	7108.5	
527.89	5977.3	
528.09	7732.4	
528.29	8391.9	
528.48	7462.8	
528.68	7056.6	
528.87	8708	
529.07	8875.9	
529.27	6963.1	
529.46	6565.8	
529.66	8334.6	
529.85	8801.5	
530.05	6320.7	
530.25	7255.3	
530.44	9874.6	
530.64	8273.1	
530.83	6767.9	
531.03	7106.5	
531.23	8642.4	
531.42	8626	
531.62	7757.7	
531.81	6840.9	
532.01	8807.6	
532.21	9363.3	
532.4	6557.6	
532.6	6966.5	
532.79	9908.8	
532.99	8813.8	
533.18	6931.7	
533.38	8153	
533.58	8335.2	
533.77	9183.8	
533.97	6907.8	
534.16	7912	
534.36	9398.1	
534.55	8401.5	
534.75	7978.2	
534.95	6985.6	
535.14	9175.6	
535.34	8316.1	
535.53	6687.3	
535.73	8671.8	
535.92	9779.7	
536.12	8548.9	
536.31	6739.2	
536.51	7978.9	
536.71	8847.2	
536.9	8397.4	
537.1	6860	
537.29	7098.3	
537.49	9305.3	
537.68	8218.5	
537.88	7422.5	
538.07	6617.7	
538.27	8504.5	
538.46	9710.8	
538.66	6457.2	
538.86	6909.8	
539.05	8524.3	
539.25	8947.6	
539.44	7219.8	
539.64	6818.4	
539.83	8393.9	
540.03	9474.6	
540.22	6702.3	
540.42	6880.5	
540.61	8662.2	
540.81	8804.2	
541	7380.9	
541.2	8094.3	
541.39	8137.9	
541.59	8563.9	
541.78	7605.5	
541.98	6746.7	
542.18	7787.1	
542.37	7842.4	
542.57	7144.7	
542.76	7686	
542.96	7983	
543.15	8713.4	
543.35	7232.7	
543.54	6443.6	
543.74	9047.2	
543.93	8499.8	
544.13	7227.3	
544.32	8360.5	
544.52	8914.1	
544.71	8045.8	
544.91	6214.9	
545.1	7581.6	
545.3	7996.6	
545.49	8811.7	
545.69	6130.3	
545.88	6860.7	
546.08	9806.4	
546.27	9340.1	
546.47	7391.8	
546.66	6634.1	
546.86	9087.5	
547.05	9716.2	
547.24	6825.2	
547.44	6651.8	
547.63	7880.6	
547.83	9144.2	
548.02	7107.8	
548.22	7356.3	
548.41	7679.2	
548.61	9259.5	
548.8	6571.2	
549	6587	
549.19	8452	
549.39	8717.5	
549.58	6327.5	
549.78	6888	
549.97	8811.7	
550.17	8372.1	
550.36	7898.3	
550.55	8905.3	
550.75	8346.8	
550.94	9253.4	
551.14	6516	
551.33	6950.1	
551.53	7621.2	
551.72	8620.6	
551.92	7030	
552.11	6740.5	
552.31	8642.4	
552.5	8751.7	
552.69	8469	
552.89	6365.1	
553.08	8659.5	
553.28	8406.9	
553.47	6763.1	
553.67	8000.7	
553.86	9399.5	
554.06	7604.1	
554.25	5827.8	
554.44	6479.1	
554.64	10236	
554.83	9719.7	
555.03	6442.9	
555.22	6862.1	
555.42	8821.3	
555.61	8523.6	
555.8	6676.4	
556	7023.2	
556.19	7576.8	
556.39	9105.3	
556.58	6774.7	
556.78	6679.1	
556.97	8362.5	
557.16	8115.4	
557.36	8058.8	
557.55	6309.8	
557.75	7362.4	
557.94	9239.1	
558.13	6479.1	
558.33	6231.3	
558.52	8997.4	
558.72	7844.4	
558.91	6287.9	
559.1	6518	
559.3	7512.6	
559.49	7197.9	
559.69	5842.2	
559.88	7045.7	
560.07	8420.6	
560.27	8819.9	
560.46	7152.9	
560.66	7387	
560.85	8171.4	
561.04	7359	
561.24	6214.9	
561.43	6455.2	
561.63	7656	
561.82	7956.4	
562.01	7966.6	
562.21	6780.1	
562.4	8378.2	
562.59	9452.1	
562.79	6621.1	
562.98	6265.4	
563.18	8297	
563.37	9841.2	
563.56	7217.7	
563.76	6067.4	
563.95	7673.1	
564.14	7569.3	
564.34	6623.1	
564.53	6374.6	
564.73	8192.6	
564.92	8573.5	
565.11	6807.4	
565.31	6131.6	
565.5	8831.5	
565.69	7704.5	
565.89	6232.7	
566.08	6534.4	
566.27	8734.6	
566.47	9145.5	
566.66	7283.9	
566.85	5868.8	
567.05	8205.5	
567.24	7543.4	
567.44	6215.6	
567.63	7666.2	
567.82	8505.2	
568.02	8177.5	
568.21	6219.7	
568.4	6655.9	
568.6	8079.2	
568.79	8082.7	
568.98	6024.4	
569.18	6213.5	
569.37	7999.4	
569.56	10148	
569.76	6574	
569.95	7628.7	
570.14	8451.3	
570.34	8334.6	
570.53	6098.9	
570.72	6054.5	
570.91	8877.9	
571.11	7956.4	
571.3	6537.8	
571.49	7513.3	
571.69	8033.5	
571.88	7562.5	
572.07	7169.3	
572.27	7107.1	
572.46	7562.5	
572.65	8658.8	
572.85	6353.5	
573.04	6627.2	
573.23	8862.2	
573.43	8069	
573.62	5999.9	
573.81	6702.3	
574	8016.4	
574.2	7853.3	
574.39	6337.1	
574.58	6531.7	
574.78	8905.3	
574.97	8103.8	
575.16	6933.1	
575.36	7068.9	
575.55	8502.5	
575.74	8748.9	
575.93	5957.5	
576.13	7093.5	
576.32	7981.6	
576.51	8455.4	
576.71	6303.6	
576.9	7858.7	
577.09	8860.9	
577.28	8372.1	
577.48	6889.4	
577.67	5863.3	
577.86	7934.5	
578.05	8258.8	
578.25	6555.5	
578.44	6668.9	
578.63	8012.3	
578.83	9318.9	
579.02	5948	
579.21	7563.1	
579.4	8254	
579.6	7910.6	
579.79	6710.5	
579.98	9074.5	
580.17	8630.1	
580.37	8632.9	
580.56	6109.8	
580.75	6948.1	
580.94	9200.8	
581.14	8976.9	
581.33	7425.9	
581.52	6280.4	
581.71	8525.7	
581.91	9174.2	
582.1	5856.5	
582.29	6573.3	
582.48	8087.4	
582.68	7941.3	
582.87	7079.1	
583.06	6680.5	
583.25	8487.5	
583.45	7673.7	
583.64	7324.2	
583.83	8103.1	
584.02	7873.1	
584.21	8276.5	
584.41	7429.3	
584.6	6589.7	
584.79	8043.7	
584.98	8925	
585.18	5970.5	
585.37	5978.7	
585.56	7549.5	
585.75	8439.7	
585.94	6338.5	
586.14	6947.4	
586.33	9110.7	
586.52	8017.8	
586.71	6821.8	
586.91	6604	
587.1	7477.1	
587.29	8525	
587.48	6488.6	
587.67	6312.5	
587.87	8356.4	
588.06	8501.1	
588.25	7829.4	
588.44	7047.1	
588.63	8009.6	
588.83	8672.5	
589.02	6489.3	
589.21	6431.3	
589.4	7833.5	
589.59	7694.9	
589.78	5607.3	
589.98	5985.5	
590.17	7456	
590.36	8049.2	
590.55	5321.3	
590.74	6373.3	
590.94	9516.2	
591.13	7994.6	
591.32	6006	
591.51	5537	
591.7	8413.1	
591.89	7856.7	
592.09	5627.1	
592.28	6157.6	
592.47	7078.5	
592.66	8979	
592.85	5655.8	
593.05	5855.8	
593.24	7659.4	
593.43	8424.7	
593.62	5840.1	
593.81	6362.4	
594	7673.1	
594.19	7920.9	
594.39	5768.4	
594.58	5763	
594.77	8066.3	
594.96	8723.7	
595.15	5758.2	
595.34	6460	
595.54	8148.2	
595.73	7124.9	
595.92	5068	
596.11	6382.2	
596.3	8645.8	
596.49	7217	
596.68	6130.3	
596.88	6641.6	
597.07	8353	
597.26	7029.3	
597.45	5596.4	
597.64	6955.6	
597.83	7288.7	
598.02	8086.7	
598.22	5735.7	
598.41	6500.3	
598.6	7758.4	
598.79	7251.2	
598.98	5720.7	
599.17	6734.4	
599.36	7788.4	
599.55	9106	
599.74	7897	
599.94	7604.8	
600.13	8389.8	
600.32	7164.5	
600.51	5370.5	
600.7	5532.2	
600.89	9013.8	
601.08	9013.8	
601.27	5417.6	
601.47	6406.7	
601.66	8226.7	
601.85	9010.4	
602.04	6060.6	
602.23	6694.1	
602.42	7332.4	
602.61	7955.7	
602.8	6038.1	
602.99	5737.7	
603.18	7711.3	
603.37	7942.7	
603.57	6408.8	
603.76	7014.3	
603.95	8787.2	
604.14	8211.7	
604.33	5808	
604.52	6244.9	
604.71	7817.1	
604.9	7490.1	
605.09	6780.1	
605.28	6660	
605.47	8478.6	
605.66	8156.4	
605.86	6495.5	
606.05	5883.8	
606.24	8483.4	
606.43	6897.6	
606.62	6124.1	
606.81	6946.7	
607	8362.5	
607.19	7600	
607.38	5578.7	
607.57	5913.2	
607.76	7381.6	
607.95	6763.1	
608.14	6284.5	
608.33	6913.9	
608.52	7361.1	
608.72	8273.8	
608.91	5588.2	
609.1	5449.6	
609.29	7473	
609.48	6969.9	
609.67	6474.3	
609.86	5610.8	
610.05	7015.7	
610.24	7384.3	
610.43	5233.9	
610.62	4981.3	
610.81	8686.1	
611	8388.5	
611.19	5488.6	
611.38	6251.1	
611.57	7681.9	
611.76	9153.1	
611.95	5264	
612.14	5111	
612.33	7582.3	
612.52	7042.3	
612.71	5879	
612.9	5008.6	
613.09	6561	
613.28	9080.7	
613.47	5558.2	
613.66	6575.3	
613.85	7669	
614.04	7152.9	
614.24	5604.6	
614.43	4858.5	
614.62	7791.2	
614.81	7716.7	
615	6320	
615.19	6237.4	
615.38	6987	
615.57	7408.2	
615.76	6078.4	
615.95	7096.2	
616.14	7854.6	
616.33	7458	
616.52	6449.1	
616.71	6633.4	
616.9	7700.4	
617.09	7550.2	
617.28	5739.1	
617.47	7245.7	
617.66	6733	
617.85	6845.7	
618.04	6691.4	
618.22	6075.6	
618.41	7156.3	
618.6	8088.8	
618.79	5986.2	
618.98	5619.6	
619.17	8452	
619.36	6595.8	
619.55	5763.7	
619.74	5796.4	
619.93	7618.4	
620.12	7019.8	
620.31	6401.3	
620.5	6548	
620.69	8680	
620.88	8637	
621.07	7299.6	
621.26	6207.4	
621.45	7721.5	
621.64	7881.3	
621.83	6362.4	
622.02	5411.4	
622.21	7767.3	
622.4	7556.3	
622.59	6947.4	
622.78	6781.5	
622.97	7144.7	
623.16	8186.4	
623.35	6309.1	
623.54	5465.3	
623.72	7354.3	
623.91	7508.5	
624.1	6612.2	
624.29	5123.3	
624.48	8649.9	
624.67	7832.8	
624.86	6521.4	
625.05	5433.9	
625.24	8831.5	
625.43	7017	
625.62	8369.4	
625.81	5757.5	
626	8131.8	
626.19	7283.9	
626.38	6594.5	
626.56	5877.7	
626.75	7182.9	
626.94	7748.8	
627.13	6513.9	
627.32	5150.6	
627.51	7913.4	
627.7	9329.9	
627.89	5197.1	
628.08	6566.5	
628.27	7071.6	
628.46	7278.5	
628.65	5555.5	
628.83	5255.8	
629.02	7905.2	
629.21	7143.3	
629.4	6092.7	
629.59	6294.8	
629.78	7071.6	
629.97	8074.5	
630.16	6323.4	
630.35	5742.5	
630.54	8422.6	
630.72	8214.4	
630.91	5696.1	
631.1	6381.5	
631.29	7651.2	
631.48	7830.1	
631.67	6450.4	
631.86	5907.7	
632.05	7266.2	
632.24	7238.9	
632.42	5518.6	
632.61	6168.5	
632.8	7402	
632.99	7015	
633.18	6070.9	
633.37	6640.2	
633.56	7610.9	
633.75	7490.8	
633.93	6128.9	
634.12	5805.3	
634.31	8487.5	
634.5	8047.2	
634.69	5803.9	
634.88	6419	
635.07	7309.9	
635.25	8028	
635.44	6791.7	
635.63	7015.7	
635.82	7187	
636.01	6774	
636.2	6819.7	
636.39	6208.1	
636.57	8407.6	
636.76	8130.4	
636.95	5624.4	
637.14	7103	
637.33	7722.9	
637.52	8698.4	
637.7	5429.8	
637.89	6415.6	
638.08	7230.7	
638.27	8870.4	
638.46	6500.3	
638.65	7025.9	
638.83	8905.3	
639.02	7125.6	
639.21	6398.5	
639.4	6942.6	
639.59	7737.9	
639.78	7165.8	
639.96	5737.7	
640.15	5791	
640.34	7435.5	
640.53	7763.8	
640.72	5373.9	
640.91	5795.1	
641.09	6885.3	
641.28	8359.8	
641.47	5728.9	
641.66	6679.8	
641.85	7598	
642.03	7980.3	
642.22	6477	
642.41	5896.8	
642.6	7037.5	
642.79	6413.6	
642.97	5674.9	
643.16	6419.7	
643.35	7019.8	
643.54	6843.6	
643.73	5571.8	
643.91	6500.9	
644.1	6718	
644.29	7349.5	
644.48	5691.3	
644.67	5688.6	
644.85	6922.8	
645.04	7291.5	
645.23	5295.4	
645.42	5581.4	
645.6	6840.2	
645.79	8051.9	
645.98	5646.9	
646.17	4573.8	
646.36	6577.4	
646.54	7285.3	
646.73	6486.6	
646.92	5248.9	
647.11	6830.7	
647.29	7985	
647.48	5402.5	
647.67	5156.8	
647.86	8264.9	
648.05	8333.2	
648.23	5672.9	
648.42	7091.4	
648.61	7535.2	
648.8	7319.4	
648.98	5280.3	
649.17	5637.4	
649.36	6827.2	
649.55	6261.3	
649.73	5348.6	
649.92	6116.6	
650.11	6662.7	
650.3	7179.5	
650.48	5524.1	
650.67	5116.5	
650.86	7403.4	
651.05	6242.9	
651.23	5472.2	
651.42	5427.8	
651.61	6791.7	
651.79	6918.7	
651.98	5703.6	
652.17	5305.6	
652.36	7297.6	
652.54	6348	
652.73	5313.8	
652.92	5102.9	
653.11	7355.6	
653.29	7410.2	
653.48	4586.8	
653.67	5692.7	
653.85	7123.5	
654.04	8244.4	
654.23	5936.4	
654.42	5471.5	
654.6	6713.2	
654.79	7408.2	
654.98	4911	
655.16	5464	
655.35	6320.7	
655.54	6210.8	
655.73	5017.5	
655.91	4865.3	
656.1	7423.2	
656.29	6233.3	
656.47	4453.6	
656.66	6333.7	
656.85	6440.2	
657.03	6477.7	
657.22	5041.4	
657.41	5051.7	
657.59	6587	
657.78	6318	
657.97	4662.5	
658.16	5541.1	
658.34	7265.5	
658.53	7664.9	
658.72	6413.6	
658.9	6975.4	
659.09	6583.5	
659.28	6722.8	
659.46	5178.6	
659.65	5162.9	
659.84	6368.5	
660.02	6931.7	
660.21	5002.5	
660.4	5000.5	
660.58	7501.7	
660.77	6703.7	
660.96	5650.3	
661.14	4547.2	
661.33	7991.9	
661.52	7943.4	
661.7	4611.3	
661.89	8506.6	
662.08	6378.7	
662.26	5884.5	
662.45	4852.3	
662.64	5008	
662.82	7088.7	
663.01	6261.3	
663.2	4987.5	
663.38	5802.6	
663.57	7072.3	
663.75	6917.4	
663.94	5340.4	
664.13	6704.4	
664.31	6298.9	
664.5	7111.2	
664.69	5596.4	
664.87	6257.2	
665.06	6182.1	
665.25	6937.2	
665.43	6425.8	
665.62	6585.6	
665.8	7267.6	
665.99	6543.9	
666.18	5337	
666.36	5555.5	
666.55	7174	
666.74	7167.9	
666.92	4930.8	
667.11	6759	
667.29	6430.6	
667.48	7156.3	
667.67	6220.4	
667.85	5383.4	
668.04	6543.3	
668.22	6515.3	
668.41	5384.8	
668.6	5590.3	
668.78	6281.8	
668.97	6601.3	
669.15	5803.3	
669.34	4741	
669.53	6348.7	
669.71	6732.4	
669.9	4958.1	
670.08	5719.3	
670.27	6327.5	
670.46	7012.9	
670.64	5809.4	
670.83	6058.6	
671.01	6227.9	
671.2	6955.6	
671.38	4954	
671.57	4868.7	
671.76	7580.9	
671.94	8202.8	
672.13	4816.1	
672.31	6006	
672.5	7087.3	
672.69	6111.8	
672.87	4933.6	
673.06	5218.9	
673.24	6870.9	
673.43	6402	
673.61	5841.5	
673.8	5343.2	
673.98	7107.1	
674.17	7287.4	
674.36	5924.1	
674.54	5785.5	
674.73	6875.7	
674.91	7087.3	
675.1	5468.8	
675.28	5100.1	
675.47	6681.2	
675.65	7209.5	
675.84	5315.2	
676.03	5659.9	
676.21	6418.3	
676.4	5831.9	
676.58	6128.9	
676.77	5876.3	
676.95	7963.9	
677.14	6341.9	
677.32	5008	
677.51	4734.2	
677.69	7205.4	
677.88	5961.6	
678.06	4887.8	
678.25	4982	
678.44	6657.9	
678.62	6382.8	
678.81	4683.7	
678.99	5680.4	
679.18	7513.3	
679.36	6986.3	
679.55	5249.6	
679.73	5993.7	
679.92	6980.2	
680.1	6386.2	
680.29	6618.4	
680.47	5298.8	
680.66	6272.2	
680.84	7223.2	
681.03	4483	
681.21	5604.6	
681.4	6308.4	
681.58	6216.3	
681.77	4986.1	
681.95	4929.5	
682.14	7279.2	
682.32	7633.5	
682.51	5960.3	
682.69	4742.4	
682.88	6264.1	
683.06	7118.7	
683.25	5601.2	
683.43	6177.4	
683.62	6511.9	
683.8	7055.9	
683.99	6272.2	
684.17	5539.1	
684.36	7982.3	
684.54	6550.1	
684.73	4647.5	
684.91	4976.6	
685.1	6987.7	
685.28	6352.8	
685.46	5652.4	
685.65	5693.4	
685.83	7266.2	
686.02	6527.6	
686.2	5021.6	
686.39	5130.2	
686.57	6150.7	
686.76	7870.3	
686.94	4984.8	
687.13	5147.2	
687.31	7067.5	
687.5	6530.3	
687.68	4569	
687.86	5974.6	
688.05	8206.2	
688.23	5916.6	
688.42	6040.1	
688.6	5076.9	
688.79	6427.9	
688.97	6376	
689.16	5517.9	
689.34	4371.7	
689.52	7205.4	
689.71	7370.6	
689.89	5739.8	
690.08	5025	
690.26	6638.1	
690.45	6505.7	
690.63	5991	
690.81	5203.2	
691	6424.5	
691.18	6432.7	
691.37	5314.5	
691.55	7838.3	
691.74	6295.5	
691.92	8473.8	
692.1	5365.7	
692.29	4740.4	
692.47	6552.8	
692.66	5795.1	
692.84	4965	
693.02	5606	
693.21	5838.8	
693.39	6483.9	
693.58	5717.9	
693.76	5079	
693.94	7779.6	
694.13	7488.1	
694.31	5009.3	
694.5	6131.6	
694.68	6238.8	
694.86	6602	
695.05	5351.3	
695.23	5808.7	
695.42	6948.1	
695.6	9555.1	
695.78	6042.9	
695.97	5053.7	
696.15	7071.6	
696.34	6483.9	
696.52	4790.9	
696.7	5705.6	
696.89	6808.8	
697.07	6247	
697.25	5672.9	
697.44	7428.7	
697.62	6736.5	
697.81	7163.1	
697.99	5353.4	
698.17	5893.4	
698.36	6108.4	
698.54	6804.7	
698.72	5720	
698.91	4667.3	
699.09	6327.5	
699.28	6320.7	
699.46	5303.6	
699.64	5236	
699.83	6154.1	
700.01	7618.4	
700.19	6056.5	
700.38	4401.1	
700.56	7465.5	
700.74	6211.5	
700.93	4755.4	
701.11	5622.4	
701.29	6946.7	
701.48	7997.3	
701.66	4995.7	
701.84	5016.8	
702.03	6399.2	
702.21	7037.5	
702.39	4577.2	
702.58	5223	
702.76	6757.6	
702.94	6952.9	
703.13	4610.7	
703.31	7245	
703.49	6100.2	
703.68	7092.1	
703.86	4801.8	
704.04	5853.1	
704.23	6644.3	
704.41	6995.2	
704.59	4902.2	
704.78	6350.8	
704.96	7766.6	
705.14	7072.3	
705.33	4730.8	
705.51	5580.7	
705.69	6502.3	
705.87	7381.6	
706.06	5973.9	
706.24	4739	
706.42	6778.8	
706.61	7070.3	
706.79	5976.7	
706.97	4691.2	
707.16	6207.4	
707.34	6780.8	
707.52	6005.3	
707.7	4966.3	
707.89	6477.7	
708.07	6064.7	
708.25	5945.9	
708.44	6081.8	
708.62	6326.9	
708.8	7605.5	
708.98	6242.9	
709.17	5085.8	
709.35	6731	
709.53	6796.5	
709.72	4794.3	
709.9	4981.3	
710.08	7049.8	
710.26	7075	
710.45	6585.6	
710.63	5158.2	
710.81	6684.6	
710.99	6738.5	
711.18	5838.8	
711.36	5255.8	
711.54	6473.6	
711.72	7286	
711.91	5356.1	
712.09	4818.9	
712.27	6664.8	
712.45	7389.1	
712.64	5730.2	
712.82	4638	
713	6156.9	
713.18	6382.8	
713.37	4851.6	
713.55	6121.4	
713.73	7363.1	
713.91	5896.1	
714.1	5298.8	
714.28	4790.9	
714.46	7017	
714.64	6244.3	
714.83	4217.5	
715.01	5079.6	
715.19	6349.4	
715.37	5777.3	
715.55	4785.4	
715.74	5154.7	
715.92	7372	
716.1	5276.3	
716.28	6397.2	
716.47	5327.4	
716.65	6004	
716.83	6074.3	
717.01	5250.3	
717.19	5302.9	
717.38	8303.1	
717.56	5719.3	
717.74	5473.5	
717.92	4485.1	
718.1	7087.3	
718.29	6176.7	
718.47	4092.5	
718.65	4837.3	
718.83	6829.3	
719.01	6713.2	
719.2	3915	
719.38	5123.3	
719.56	6440.9	
719.74	8140	
719.92	4619.5	
720.11	5855.8	
720.29	6534.4	
720.47	5612.8	
720.65	4223.6	
720.83	5165	
721.02	5991	
721.2	5806.7	
721.38	5195.7	
721.56	4453.6	
721.74	5277.6	
721.92	5541.1	
722.11	5807.4	
722.29	5523.4	
722.47	6891.4	
722.65	5997.1	
722.83	4492.6	
723.01	5582.8	
723.2	6053.8	
723.38	6313.2	
723.56	3873.4	
723.74	5195	
723.92	5509	
724.1	6786.3	
724.29	4437.3	
724.47	5696.8	
724.65	5537	
724.83	5447.6	
725.01	4263.2	
725.19	5253	
725.37	5567.7	
725.56	5694	
725.74	4132.8	
725.92	4470	
726.1	5507.7	
726.28	5791	
726.46	4980	
726.64	4582	
726.83	5801.9	
727.01	6038.1	
727.19	4118.5	
727.37	4994.3	
727.55	5926.8	
727.73	6488	
727.91	4137.6	
728.09	3944.4	
728.28	6474.3	
728.46	7172.7	
728.64	5244.2	
728.82	5094	
729	7672.4	
729.18	6742.6	
729.36	4189.5	
729.54	6821.1	
729.72	7881.9	
729.91	6055.8	
730.09	6240.2	
730.27	4883	
730.45	5920	
730.63	6690	
730.81	5630.5	
730.99	4543.8	
731.17	7180.2	
731.35	5652.4	
731.53	5177.9	
731.71	4686.4	
731.9	6858	
732.08	7010.2	
732.26	4979.3	
732.44	4583.4	
732.62	7148.1	
732.8	6516	
732.98	5412.8	
733.16	4330.1	
733.34	6578.1	
733.52	5287.2	
733.7	5005.2	
733.88	5261.9	
734.07	6447	
734.25	6102.9	
734.43	4312.3	
734.61	6130.3	
734.79	7761.8	
734.97	5964.4	
735.15	4540.3	
735.33	4874.8	
735.51	6438.1	
735.69	6049	
735.87	6590.4	
736.05	5081	
736.23	6270.2	
736.41	5979.4	
736.59	4936.3	
736.77	5118.6	
736.95	6746	
737.13	6128.2	
737.32	4582	
737.5	4866.7	
737.68	7274.4	
737.86	5988.3	
738.04	4323.9	
738.22	6479.1	
738.4	5765	
738.58	6084.5	
738.76	5109	
738.94	3907.5	
739.12	5939.1	
739.3	5728.2	
739.48	5752.7	
739.66	5360.9	
739.84	6143.2	
740.02	6182.8	
740.2	3948.5	
740.38	4414.7	
740.56	6614.3	
740.74	5452.4	
740.92	5177.9	
741.1	5076.9	
741.28	5954.1	
741.46	5792.3	
741.64	4625.7	
741.82	5224.4	
742	6008.7	
742.18	5959.6	
742.36	4879.6	
742.54	4358.1	
742.72	6696.2	
742.9	5267.4	
743.08	5317.2	
743.26	4005.1	
743.44	6866.2	
743.62	6755.6	
743.8	5511.8	
743.98	4481.6	
744.16	6440.2	
744.34	6105.7	
744.52	5340.4	
744.7	5291.3	
744.88	6604.7	
745.06	6076.3	
745.24	5488.6	
745.42	5641.5	
745.6	6674.3	
745.78	6418.3	
745.96	4230.4	
746.14	4517.1	
746.32	7565.9	
746.5	6728.9	
746.68	5139.7	
746.86	4597	
747.03	7181.5	
747.21	5327.4	
747.39	5109	
747.57	4569.7	
747.75	6354.2	
747.93	6696.9	
748.11	4594.3	
748.29	4481	
748.47	7960.5	
748.65	5945.3	
748.83	5340.4	
749.01	5084.4	
749.19	6470.9	
749.37	5661.3	
749.55	4876.2	
749.73	4987.5	
749.91	6098.9	
750.09	5819.6	
750.26	5108.3	
750.44	4397	
750.62	6163	
750.8	6119.3	
750.98	4250.9	
751.16	4636.6	
751.34	6217.6	
751.52	5543.9	
751.7	5526.1	
751.88	4259.8	
752.06	6753.5	
752.24	6574	
752.42	4196.3	
752.59	4577.9	
752.77	6110.5	
752.95	7454.6	
753.13	5378.6	
753.31	4709	
753.49	5740.5	
753.67	6324.1	
753.85	5040.1	
754.03	4619.5	
754.21	6559	
754.38	7015	
754.56	4821.6	
754.74	3817.4	
754.92	5767.1	
755.1	6661.4	
755.28	3917.1	
755.46	3932.8	
755.64	7520.8	
755.82	7707.9	
755.99	4407.2	
756.17	4440	
756.35	5014.8	
756.53	6785.6	
756.71	3307.5	
756.89	4308.9	
757.07	6294.1	
757.25	5328.8	
757.42	4917.2	
757.6	5825.1	
757.78	6281.8	
757.96	5144.5	
758.14	4554	
758.32	4007.9	
758.5	4734.2	
758.67	5670.8	
758.85	4304.8	
759.03	4514.4	
759.21	5791	
759.39	5255.1	
759.57	3886.4	
759.75	5173.9	
759.92	6482.5	
760.1	5661.3	
760.28	5609.4	
760.46	5756.2	
760.64	5445.5	
760.82	5100.8	
760.99	5067.4	
761.17	4375.8	
761.35	6324.1	
761.53	5184.8	
761.71	4534.9	
761.89	5311.7	
762.06	6139.8	
762.24	5634.6	
762.42	4569	
762.6	4309.6	
762.78	5558.2	
762.96	6340.5	
763.13	4960.9	
763.31	4616.1	
763.49	6570.6	
763.67	5536.3	
763.85	5565.7	
764.02	6165.8	
764.2	6817.7	
764.38	5877	
764.56	4490.5	
764.74	5527.5	
764.91	6902.3	
765.09	5744.6	
765.27	4106.9	
765.45	3893.2	
765.63	6979.5	
765.8	6761.7	
765.98	3601.7	
766.16	3994.2	
766.34	5274.9	
766.52	5055.1	
766.69	5105.6	
766.87	3880.2	
767.05	5725.4	
767.23	6598.6	
767.41	4235.9	
767.58	4539.7	
767.76	6401.3	
767.94	6412.9	
768.12	4328.7	
768.29	5173.2	
768.47	5784.1	
768.65	6621.1	
768.83	3916.4	
769	5197.7	
769.18	5383.4	
769.36	6163	
769.54	5210	
769.72	4001.7	
769.89	6429.9	
770.07	6533.7	
770.25	4346.5	
770.43	5674.2	
770.6	7262.8	
770.78	7742.7	
770.96	4503.5	
771.14	5223.7	
771.31	6270.2	
771.49	5614.8	
771.67	3636.5	
771.85	3940.3	
772.02	4805.9	
772.2	5686.5	
772.38	4774.5	
772.55	4150.6	
772.73	5874.9	
772.91	5745.2	
773.09	4630.5	
773.26	4700.8	
773.44	5916.6	
773.62	5550.7	
773.8	4036.5	
773.97	3789.4	
774.15	5995.1	
774.33	5593.7	
774.5	4012	
774.68	4393.6	
774.86	6232.7	
775.04	5603.2	
775.21	4123.9	
775.39	4114.4	
775.57	5991.7	
775.74	6460	
775.92	3954.6	
776.1	3802.4	
776.27	5950	
776.45	7256	
776.63	4093.2	
776.81	3601.7	
776.98	5540.4	
777.16	6713.9	
777.34	4257	
777.51	4620.2	
777.69	5537	
777.87	5272.8	
778.04	4336.2	
778.22	5055.1	
778.4	5294	
778.57	6044.9	
778.75	3499.3	
778.93	3838.6	
779.1	5103.5	
779.28	4971.1	
779.46	3596.9	
779.64	4102.1	
779.81	6210.1	
779.99	7202	
780.17	5006.6	
780.34	5113.8	
780.52	5626.5	
780.69	5870.2	
780.87	4486.4	
781.05	3983.3	
781.22	5693.4	
781.4	5757.5	
781.58	4136.2	
781.75	3239.9	
781.93	5579.3	
782.11	5145.9	
782.28	5152.7	
782.46	4176.5	
782.64	4966.3	
782.81	6040.8	
782.99	4272.7	
783.17	4202.4	
783.34	5821	
783.52	4954	
783.69	4453.6	
783.87	5268.7	
784.05	5228.5	
784.22	5123.3	
784.4	5315.2	
784.58	4542.4	
784.75	6113.2	
784.93	5159.5	
785.1	4194.9	
785.28	4911.7	
785.46	5849	
785.63	5114.5	
785.81	4149.2	
785.99	3997	
786.16	5256.5	
786.34	5756.2	
786.51	4007.2	
786.69	4492.6	
786.87	4883.7	
787.04	5386.2	
787.22	3838.6	
787.39	4904.2	
787.57	5137	
787.75	6404	
787.92	5154.1	
788.1	5046.9	
788.27	5181.4	
788.45	4913.1	
788.63	4772.4	
788.8	3335.5	
788.98	5523.4	
789.15	4838.7	
789.33	3506.1	
789.5	4265.9	
789.68	6147.3	
789.86	6272.9	
790.03	4653	
790.21	4083.6	
790.38	6124.1	
790.56	5315.2	
790.73	3967.6	
790.91	3882.3	
791.09	5151.3	
791.26	6051.7	
791.44	4191.5	
791.61	3608.5	
791.79	5094	
791.96	5204.6	
792.14	3719.8	
792.32	3247.4	
792.49	5144.5	
792.67	5306.3	
792.84	3791.5	
793.02	3618.1	
793.19	5651	
793.37	6526.9	
793.54	3225.6	
793.72	3633.8	
793.89	6596.5	
794.07	5199.8	
794.25	4406.5	
794.42	3323.2	
794.6	6281.8	
794.77	5913.2	
794.95	4636.6	
795.12	4077.5	
795.3	5139	
795.47	5903.6	
795.65	4410.6	
795.82	4304.1	
796	4944.5	
796.17	7099.6	
796.35	4125.3	
796.52	4937.7	
796.7	5732.9	
796.87	5881.8	
797.05	5089.2	
797.22	5036.6	
797.4	5817.6	
797.57	6974.7	
797.75	4259.1	
797.92	4033.8	
798.1	6175.3	
798.27	5167.7	
798.45	3394.8	
798.62	3672	
798.8	5492	
798.97	6084.5	
799.15	4505.5	
799.32	4282.3	
799.5	4650.3	
799.67	5627.8	
799.85	4641.4	
800.02	3308.8	
800.2	5116.5	
800.37	5533.6	
800.55	4873.5	
800.72	4030.4	
800.9	6029.9	
801.07	6505.7	
801.25	5444.2	
801.42	4394.9	
801.6	6031.3	
801.77	5803.9	
801.95	4119.1	
802.12	3876.8	
802.29	5702.9	
802.47	5732.9	
802.64	4347.2	
802.82	3293.1	
802.99	5061.9	
803.17	6225.1	
803.34	4265.9	
803.52	3846.8	
803.69	6880.5	
803.87	4955.4	
804.04	4200.4	
804.21	4383.3	
804.39	6355.5	
804.56	5419.6	
804.74	3599.6	
804.91	4505.5	
805.09	5187.5	
805.26	5289.2	
805.44	3680.2	
805.61	4040.6	
805.78	5921.4	
805.96	5947.3	
806.13	4496	
806.31	4760.2	
806.48	4689.2	
806.66	5287.2	
806.83	4418.2	
807	4379.2	
807.18	5100.1	
807.35	5575.9	
807.53	4237.2	
807.7	3383.2	
807.87	6445.6	
808.05	5201.8	
808.22	4768.4	
808.4	3366.2	
808.57	5273.5	
808.74	4825	
808.92	3945.8	
809.09	5049.6	
809.27	5083.7	
809.44	5806.7	
809.61	3421.5	
809.79	3866.6	
809.96	6387.6	
810.14	6066.1	
810.31	3397.6	
810.48	4118.5	
810.66	5280.3	
810.83	6120.7	
811.01	3919.1	
811.18	4422.2	
811.35	6083.1	
811.53	4670.7	
811.7	4800.4	
811.87	4482.3	
812.05	5205.9	
812.22	5069.4	
812.39	3752.6	
812.57	3690.4	
812.74	5253.7	
812.92	7028.6	
813.09	4115.1	
813.26	4559.5	
813.44	6738.5	
813.61	5165	
813.78	3386.7	
813.96	4678.9	
814.13	5253	
814.3	4863.9	
814.48	5045.5	
814.65	4131.4	
814.82	6539.2	
815	4993.6	
815.17	4284.4	
815.34	5227.1	
815.52	5107	
815.69	5145.2	
815.87	4272.1	
816.04	4227.7	
816.21	5243.5	
816.38	4547.9	
816.56	4117.8	
816.73	3786.7	
816.9	6618.4	
817.08	6064	
817.25	3843.4	
817.42	4944.5	
817.6	4764.3	
817.77	5318.6	
817.94	4336.2	
818.12	3873.4	
818.29	4984.8	
818.46	7984.3	
818.64	3944.4	
818.81	3760.1	
818.98	4866.7	
819.16	7223.2	
819.33	4593.6	
819.5	4254.3	
819.67	5664	
819.85	6373.3	
820.02	4213.4	
820.19	4485.1	
820.37	5486.5	
820.54	5000.5	
820.71	4383.3	
820.88	5386.8	
821.06	5499.5	
821.23	5001.8	
821.4	4390.2	
821.58	4288.4	
821.75	6053.1	
821.92	5367.7	
822.09	3467.2	
822.27	3526.6	
822.44	5234.6	
822.61	5153.4	
822.79	3528	
822.96	6799.9	
823.13	5816.9	
823.3	4934.9	
823.48	4045.4	
823.65	3687	
823.82	5965.7	
823.99	4745.8	
824.17	5136.3	
824.34	3700.7	
824.51	7035.5	
824.68	5356.1	
824.86	3851.5	
825.03	4342.4	
825.2	5183.4	
825.37	6518	
825.55	3790.8	
825.72	4288.4	
825.89	7058.7	
826.06	6537.8	
826.24	4180.6	
826.41	4148.5	
826.58	6406	
826.75	5601.9	
826.92	3263.8	
827.1	3652.2	
827.27	8815.1	
827.44	6987.7	
827.61	3960.1	
827.79	4799.1	
827.96	4954	
828.13	5322	
828.3	4108.9	
828.47	3471.3	
828.65	5448.3	
828.82	5408	
828.99	5451	
829.16	4689.8	
829.34	5885.2	
829.51	5612.8	
829.68	4307.6	
829.85	4473.4	
830.02	6172.6	
830.2	5907.7	
830.37	3228.3	
830.54	5236.7	
830.71	6795.2	
830.88	5187.5	
831.05	3368.9	
831.23	3880.2	
831.4	6416.3	
831.57	7309.9	
831.74	3992.2	
831.91	3472.7	
832.09	5473.5	
832.26	5854.5	
832.43	4115.7	
832.6	4719.2	
832.77	5449.6	
832.94	6309.1	
833.12	3239.2	
833.29	4046.1	
833.46	5669.5	
833.63	7589.8	
833.8	4475.5	
833.97	4104.1	
834.15	5913.2	
834.32	5629.9	
834.49	4240	
834.66	4421.6	
834.83	6182.1	
835	4955.4	
835.17	3878.9	
835.35	3983.3	
835.52	5866.7	
835.69	5644.2	
835.86	4168.3	
836.03	3384.6	
836.2	5831.9	
836.37	5408.7	
836.55	4131.4	
836.72	3842	
836.89	5421	
837.06	6001.9	
837.23	4207.9	
837.4	4656.4	
837.57	6771.9	
837.75	7538.6	
837.92	3785.3	
838.09	4019.5	
838.26	5382.1	
838.43	6234.7	
838.6	4331.5	
838.77	3850.9	
838.94	7161.1	
839.11	6822.5	
839.29	4097.3	
839.46	3228.3	
839.63	5795.1	
839.8	5565	
839.97	4005.8	
840.14	3995.6	
840.31	5631.9	
840.48	5886.5	
840.65	3320.4	
840.82	3920.5	
841	5857.9	
841.17	5847.6	
841.34	3723.2	
841.51	3751.2	
841.68	5702.2	
841.85	5492	
842.02	3850.9	
842.19	3196.9	
842.36	5633.3	
842.53	5547.9	
842.7	3674.1	
842.87	4546.5	
843.05	7387	
843.22	5506.3	
843.39	3487	
843.56	3772.4	
843.73	5239.4	
843.9	5931.6	
844.07	6049.7	
844.24	5039.4	
844.41	8824.7	
844.58	5005.9	
844.75	3536.2	
844.92	3855.6	
845.09	5844.9	
845.26	5868.8	
845.43	3704.1	
845.6	3864.5	
845.77	5866.7	
845.94	5542.5	
846.12	4026.3	
846.29	4314.4	
846.46	6035.4	
846.63	5854.5	
846.8	3679.5	
846.97	4307.6	
847.14	6380.8	
847.31	5823.7	
847.48	4117.8	
847.65	4553.3	
847.82	6217.6	
847.99	6126.2	
848.16	4941.7	
848.33	4521.9	
848.5	5390.3	
848.67	6338.5	
848.84	3639.9	
849.01	3806.5	
849.18	5214.8	
849.35	4861.2	
849.52	4599.7	
849.69	3532.1	
849.86	6021	
850.03	6271.6	
850.2	3695.9	
850.37	4577.9	
850.54	6270.9	
850.71	5521.3	
850.88	4467.3	
851.05	3631.7	
851.22	5760.9	
851.39	6475.7	
851.56	3518.4	
851.73	4203.1	
851.9	5156.1	
852.07	6140.5	
852.24	4039.3	
852.41	3605.8	
852.58	5672.9	
852.75	5205.9	
852.92	4113.7	
853.09	3549.8	
853.26	5446.9	
853.43	6356.9	
853.6	3581.2	
853.77	3115	
853.94	6429.9	
854.11	5797.1	
854.28	5436	
854.44	3976.5	
854.61	6920.1	
854.78	6191.7	
854.95	3637.9	
855.12	4607.2	
855.29	4648.2	
855.46	6593.1	
855.63	3609.9	
855.8	5092.6	
855.97	5416.2	
856.14	6241.5	
856.31	5276.9	
856.48	4012	
856.65	5321.3	
856.82	5083.7	
856.99	3450.8	
857.16	3981.3	
857.33	7180.9	
857.49	5504.3	
857.66	3928.7	
857.83	4242.7	
858	5435.3	
858.17	5719.3	
858.34	3459	
858.51	3633.8	
858.68	6703	
858.85	6673.6	
859.02	4301.4	
859.19	4534.2	
859.36	5072.8	
859.52	5164.3	
859.69	3700.7	
859.86	4303.5	
860.03	5190.2	
860.2	6455.2	
860.37	3291.8	
860.54	3670.6	
860.71	6118.6	
860.88	6553.5	
861.05	4057	
861.21	4577.2	
861.38	6533.7	
861.55	5018.2	
861.72	3293.1	
861.89	4079.6	
862.06	6091.3	
862.23	6716.7	
862.4	3563.5	
862.56	3799.7	
862.73	5958.2	
862.9	5690.6	
863.07	4326.7	
863.24	3267.9	
863.41	4976.6	
863.58	5080.3	
863.75	3795.6	
863.91	4255	
864.08	6562.4	
864.25	6044.2	
864.42	4685.8	
864.59	5163.6	
864.76	6893.5	
864.93	5137	
865.09	3583.9	
865.26	3865.2	
865.43	6374.6	
865.6	6837.5	
865.77	3163.4	
865.94	3652.9	
866.1	6447.7	
866.27	6185.5	
866.44	5595.7	
866.61	3461.7	
866.78	5569.8	
866.95	5988.9	
867.11	3489.1	
867.28	3216.7	
867.45	6248.4	
867.62	5225.7	
867.79	4306.9	
867.96	3604.4	
868.12	5125.4	
868.29	6174.6	
868.46	3680.9	
868.63	4913.8	
868.8	6372.6	
868.97	6115.9	
869.13	3824.2	
869.3	3798.3	
869.47	5994.4	
869.64	6249.7	
869.81	3671.3	
869.97	3620.1	
870.14	5859.2	
870.31	6653.2	
870.48	3582.6	
870.65	4660.5	
870.81	5474.9	
870.98	5414.1	
871.15	4165.6	
871.32	3848.8	
871.48	5972.6	
871.65	6624.5	
871.82	3681.6	
871.99	4031.1	
872.16	7103	
872.32	6550.8	
872.49	3660.4	
872.66	3726.6	
872.83	6083.1	
872.99	5363.6	
873.16	4261.8	
873.33	3598.3	
873.5	5720.7	
873.67	5747.3	
873.83	3825.6	
874	4879.6	
874.17	5795.1	
874.34	7000	
874.5	4753.3	
874.67	4607.9	
874.84	6568.5	
875.01	5143.8	
875.17	5249.6	
875.34	3616.7	
875.51	5790.3	
875.68	6980.2	
875.84	4449.6	
876.01	5431.9	
876.18	6044.9	
876.34	5940.5	
876.51	3670.6	
876.68	3580.5	
876.85	5532.9	
877.01	6432.7	
877.18	5292	
877.35	3629	
877.52	5598.5	
877.68	5048.9	
877.85	3514.3	
878.02	3589.4	
878.18	5629.9	
878.35	5349.3	
878.52	2878.8	
878.69	4076.1	
878.85	6079.1	
879.02	6107	
879.19	5278.3	
879.35	3951.9	
879.52	6070.9	
879.69	6257.9	
879.86	3126.6	
880.02	4091.8	
880.19	5610.8	
880.36	6932.4	
880.52	4210.6	
880.69	4360.8	
880.86	6226.5	
881.02	6199.2	
881.19	4055.7	
881.36	4026.3	
881.52	6034.7	
881.69	5313.8	
881.86	3953.3	
882.02	3858.4	
882.19	6305.7	
882.36	7517.4	
882.52	3713	
882.69	5231.2	
882.86	5851	
883.02	5740.5	
883.19	4493.2	
883.36	4219.5	
883.52	6188.3	
883.69	7125.6	
883.86	3743	
884.02	3287.7	
884.19	6151.4	
884.36	5663.3	
884.52	4136.9	
884.69	3837.9	
884.86	5342.5	
885.02	6760.3	
885.19	4158.1	
885.36	4263.9	
885.52	5668.8	
885.69	5812.1	
885.86	5394.3	
886.02	4700.1	
886.19	6124.8	
886.35	5544.5	
886.52	4018.8	
886.69	5184.8	
886.85	5182	
887.02	6536.4	
887.19	6536.4	
887.35	6536.4	
887.52	6536.4	
887.68	6536.4	
887.85	6536.4	
888.02	6536.4	
888.18	6536.4	
888.35	6536.4	
888.51	6536.4	
888.68	6536.4	
888.85	6536.4	
889.01	6536.4	
889.18	6536.4	
889.35	6536.4	
889.51	6536.4	
889.68	6536.4	
889.84	6536.4	
890.01	6536.4	
890.17	6536.4	
890.34	6536.4	
890.51	6536.4	
890.67	6536.4	
890.84	6536.4	
891	6536.4	
891.17	6536.4	
891.34	6536.4	
891.5	6536.4	
891.67	6536.4	
891.83	6536.4	
892	6536.4	
892.16	6536.4	
892.33	6536.4	
892.5	6536.4	
892.66	6536.4	
892.83	6536.4	
892.99	6536.4	
893.16	6536.4	
893.32	6536.4	
893.49	6536.4	
893.65	6536.4	
893.82	6536.4	
893.99	6536.4	
894.15	6536.4	
894.32	6536.4	
894.48	6536.4	
894.65	6536.4	
894.81	6536.4	
894.98	6536.4	
895.14	6536.4	
895.31	6536.4	
895.47	6536.4	
895.64	6536.4	
895.81	6536.4	
895.97	6536.4	
896.14	6536.4	
896.3	6536.4	
896.47	6536.4	
896.63	6536.4	
896.8	6536.4	
896.96	6536.4	
897.13	6536.4	
897.29	6536.4	
897.46	6536.4	
897.62	6536.4	
897.79	6536.4	
897.95	6536.4	
898.12	6536.4	
898.28	6536.4	
898.45	6536.4	
898.61	6536.4	
898.78	6536.4	
898.94	6536.4	
899.11	6536.4	
899.27	6536.4	
899.44	6536.4	
899.6	6536.4	
899.77	6536.4	
899.93	6536.4	
900.1	6536.4	
900.26	6536.4	
900.43	6536.4	
900.59	6536.4	
900.76	6536.4	
900.92	6536.4	
901.09	6536.4	
901.25	6536.4	
901.42	6536.4	
901.58	6536.4	
901.75	6536.4	
901.91	6536.4	
902.07	6536.4	
902.24	6536.4	
902.4	6536.4	
902.57	6536.4	
902.73	6536.4	
902.9	6536.4	
903.06	6536.4	
903.23	6536.4	
903.39	6536.4	
903.56	6536.4	
903.72	6536.4	
903.88	6536.4	
904.05	6536.4	
904.21	6536.4	
904.38	6536.4	
904.54	6536.4	
904.71	6536.4	
904.87	6536.4	
905.03	6536.4	
905.2	6536.4	
905.36	6536.4	
905.53	6536.4	
905.69	6536.4	
905.86	6536.4	
906.02	6536.4	
906.18	6536.4	
906.35	6536.4	
906.51	6536.4	
906.68	6536.4	
906.84	6536.4	
907.01	6536.4	
907.17	6536.4	
907.33	6536.4	
907.5	6536.4	
907.66	6536.4	
907.83	6536.4	
907.99	6536.4	
908.15	6536.4	
908.32	6536.4	
908.48	6536.4	
908.65	6536.4	
908.81	6536.4	
908.97	6536.4	
909.14	6536.4	
909.3	6536.4	
909.47	6536.4	
909.63	6536.4	
909.79	6536.4	
909.96	6536.4	
910.12	6536.4	
910.28	6536.4	
910.45	6536.4	
910.61	6536.4	
910.78	6536.4	
910.94	6536.4	
911.1	6536.4	
911.27	6536.4	
911.43	6536.4	
911.59	6536.4	
911.76	6536.4	
911.92	6536.4	
912.08	6536.4	
912.25	6536.4	
912.41	6536.4	
912.57	6536.4	
912.74	6536.4	
912.9	6536.4	
913.07	6536.4	
913.23	6536.4	
913.39	6536.4	
913.56	6536.4	
913.72	6536.4	
913.88	6536.4	
914.05	6536.4	
914.21	6536.4	
914.37	6536.4	
914.54	6536.4	
914.7	6536.4	
914.86	6536.4	
915.03	6536.4	
915.19	6536.4	
