Wavelength	Intensities	
nm	a.u.	
179.22	1937	
179.44	1938.7	
179.65	1935.3	
179.86	1942.2	
180.08	1930.6	
180.29	5057.8	
180.51	3558.7	
180.72	5732.9	
180.94	6772.6	
181.15	3330.7	
181.37	3233.1	
181.58	5613.5	
181.79	5931.6	
182.01	3461.7	
182.22	3709.6	
182.44	5855.8	
182.65	4881.7	
182.87	4672.1	
183.08	4076.1	
183.29	6127.5	
183.51	5057.8	
183.72	3742.3	
183.94	5468.1	
184.15	5470.8	
184.37	5509.7	
184.58	3287.7	
184.79	4607.9	
185.01	5065.3	
185.22	5773.2	
185.44	4866.7	
185.65	3986	
185.86	5305.6	
186.08	4935.6	
186.29	3200.3	
186.51	3424.2	
186.72	5147.2	
186.94	6054.5	
187.15	3952.6	
187.36	4109.6	
187.58	7950.9	
187.79	5588.2	
188.01	4369	
188.22	6735.1	
188.43	6791.1	
188.65	5821	
188.86	3414	
189.08	4134.2	
189.29	5301.5	
189.5	5292	
189.72	3822.9	
189.93	3890.5	
190.15	6086.6	
190.36	7311.2	
190.57	4203.1	
190.79	4129.4	
191	6208.8	
191.22	6101.6	
191.43	4194.9	
191.64	3433.8	
191.86	6383.5	
192.07	6133.7	
192.29	3629	
192.5	3861.1	
192.71	6096.1	
192.93	5215.5	
193.14	3760.1	
193.35	3861.8	
193.57	5264	
193.78	6018.3	
194	3038.5	
194.21	3739.6	
194.42	5010	
194.64	5487.9	
194.85	4117.1	
195.07	4816.8	
195.28	5524.7	
195.49	4760.8	
195.71	5129.5	
195.92	3549.1	
196.13	5666	
196.35	5788.9	
196.56	5438	
196.78	4143	
196.99	7164.5	
197.2	6754.2	
197.42	4717.2	
197.63	4161.5	
197.84	4917.2	
198.06	5694.7	
198.27	3851.5	
198.48	5167	
198.7	5225.7	
198.91	5361.6	
199.13	4144.4	
199.34	4157.4	
199.55	5939.8	
199.77	4751.3	
199.98	3661.8	
200.19	4179.2	
200.41	5287.2	
200.62	5079	
200.83	4347.8	
201.05	4665.3	
201.26	5376.6	
201.47	5132.9	
201.69	3631	
201.9	3519.8	
202.11	5428.5	
202.33	6566.5	
202.54	3975.8	
202.76	4431.1	
202.97	5625.8	
203.18	5586.2	
203.4	4383.3	
203.61	4199	
203.82	5567.7	
204.04	5100.1	
204.25	4214	
204.46	4137.6	
204.68	5385.5	
204.89	5744.6	
205.1	4098.7	
205.32	3467.9	
205.53	5924.8	
205.74	6074.3	
205.96	2988.7	
206.17	4261.1	
206.38	5875.6	
206.6	6038.1	
206.81	4826.4	
207.02	3880.9	
207.24	5754.1	
207.45	6217	
207.66	4002.4	
207.88	3351.8	
208.09	5713.8	
208.3	5522.7	
208.52	3586	
208.73	4026.3	
208.94	5530.9	
209.15	6262.7	
209.37	3957.4	
209.58	4188.1	
209.79	6027.9	
210.01	5261.9	
210.22	3131.3	
210.43	3238.5	
210.65	5524.7	
210.86	5894.7	
211.07	3965.6	
211.29	3602.4	
211.5	5913.2	
211.71	5468.8	
211.93	3646.7	
212.14	3611.3	
212.35	5398.4	
212.56	5688.6	
212.78	4203.8	
212.99	3416	
213.2	6470.2	
213.42	5264	
213.63	3682.9	
213.84	4043.4	
214.06	4788.2	
214.27	4892.6	
214.48	3955.3	
214.69	4242	
214.91	6186.2	
215.12	6313.9	
215.33	4320.5	
215.55	4734.2	
215.76	6805.4	
215.97	5905.7	
216.18	4049.5	
216.4	3979.2	
216.61	5165	
216.82	5993	
217.04	3677.5	
217.25	3803.8	
217.46	6150.1	
217.67	5913.2	
217.89	3241.3	
218.1	3351.8	
218.31	5629.9	
218.53	5692.7	
218.74	3828.3	
218.95	3745.1	
219.16	5466.7	
219.38	6417.7	
219.59	3725.3	
219.8	4416.1	
220.01	7188.4	
220.23	5535.7	
220.44	4883.7	
220.65	3637.2	
220.87	5564.3	
221.08	6182.1	
221.29	3355.9	
221.5	4558.1	
221.72	7526.3	
221.93	5212.1	
222.14	4205.8	
222.35	4936.3	
222.57	5543.9	
222.78	5917.3	
222.99	3931.4	
223.2	4293.9	
223.42	5771.9	
223.63	5975.3	
223.84	3064.4	
224.05	3035.1	
224.27	7088.7	
224.48	6414.9	
224.69	4919.2	
224.9	4174.4	
225.12	5708.4	
225.33	5495.4	
225.54	3299.3	
225.75	3680.2	
225.97	5027.8	
226.18	5352	
226.39	4069.3	
226.6	3767.6	
226.82	5261.2	
227.03	5117.2	
227.24	4185.4	
227.45	3475.4	
227.67	5888.6	
227.88	6506.4	
228.09	4726	
228.3	4728.8	
228.52	6032	
228.73	5500.2	
228.94	3876.8	
229.15	3383.9	
229.36	5433.3	
229.58	5336.3	
229.79	3903.4	
230	4586.1	
230.21	6541.2	
230.43	5598.5	
230.64	4112.3	
230.85	4340.3	
231.06	5963.7	
231.28	5999.9	
231.49	3351.8	
231.7	4036.5	
231.91	5782.8	
232.12	5511.1	
232.34	3517.7	
232.55	4033.8	
232.76	6187.6	
232.97	5700.2	
233.18	3594.2	
233.4	4126	
233.61	5748	
233.82	5300.8	
234.03	3866.6	
234.25	3751.9	
234.46	7717.4	
234.67	5558.9	
234.88	4276.8	
235.09	3683.6	
235.31	5840.8	
235.52	5447.6	
235.73	4122.6	
235.94	3485	
236.15	5212.1	
236.37	6670.2	
236.58	3652.9	
236.79	4088.4	
237	5788.9	
237.21	5000.5	
237.43	4293.9	
237.64	3407.1	
237.85	10070	
238.06	5053	
238.27	4384.7	
238.48	3454.9	
238.7	5870.2	
238.91	5442.8	
239.12	3996.3	
239.33	4007.2	
239.54	5102.9	
239.76	5443.5	
239.97	3932.1	
240.18	3992.2	
240.39	6961	
240.6	5868.1	
240.82	4111	
241.03	3371	
241.24	5449	
241.45	6315.3	
241.66	3660.4	
241.87	4289.8	
242.09	6259.3	
242.3	6709.1	
242.51	4343.1	
242.72	3994.9	
242.93	6031.3	
243.14	5445.5	
243.36	4622.3	
243.57	4997	
243.78	6417.7	
243.99	5952.8	
244.2	3998.3	
244.41	3670	
244.63	5081.7	
244.84	5851	
245.05	4257.7	
245.26	4007.9	
245.47	5804.6	
245.68	6126.2	
245.9	5317.9	
246.11	4223.6	
246.32	5358.9	
246.53	5748.6	
246.74	6496.8	
246.95	3373.7	
247.16	4949.9	
247.38	5462.6	
247.59	3304.7	
247.8	4046.1	
248.01	5216.2	
248.22	5411.4	
248.43	3602.4	
248.64	3883.6	
248.86	4896	
249.07	5229.8	
249.28	3455.6	
249.49	4058.4	
249.7	6047.7	
249.91	6294.8	
250.12	3351.2	
250.34	3368.2	
250.55	5670.1	
250.76	5489.9	
250.97	4117.1	
251.18	4164.9	
251.39	6253.1	
251.6	5698.1	
251.81	4231.8	
252.03	4214	
252.24	5212.1	
252.45	6037.4	
252.66	3487	
252.87	4476.9	
253.08	5509	
253.29	7243.7	
253.5	3468.6	
253.72	4835.9	
253.93	5356.8	
254.14	6582.2	
254.35	3798.3	
254.56	3929.4	
254.77	5799.2	
254.98	5107.6	
255.19	3701.4	
255.41	4861.9	
255.62	5655.1	
255.83	6143.2	
256.04	4330.1	
256.25	4235.2	
256.46	6840.9	
256.67	5209.3	
256.88	4156	
257.09	4640.7	
257.31	5221	
257.52	5166.3	
257.73	5188.9	
257.94	3801	
258.15	5345.9	
258.36	5541.8	
258.57	4820.2	
258.78	3024.8	
258.99	6012.2	
259.2	5326.1	
259.41	3833.1	
259.63	3907.5	
259.84	6363	
260.05	6865.5	
260.26	4992.3	
260.47	3714.3	
260.68	6115.9	
260.89	5450.3	
261.1	4629.1	
261.31	3637.2	
261.52	6097.5	
261.73	6504.3	
261.95	4946.5	
262.16	4294.6	
262.37	6245.6	
262.58	6378.1	
262.79	4947.2	
263	3833.8	
263.21	5543.9	
263.42	5039.4	
263.63	3943.7	
263.84	3846.1	
264.05	6096.1	
264.26	6500.9	
264.47	4799.8	
264.69	4333.5	
264.9	6252.4	
265.11	5722.7	
265.32	3728	
265.53	3793.5	
265.74	5647.6	
265.95	4890.5	
266.16	4077.5	
266.37	4511.7	
266.58	5642.8	
266.79	5337	
267	3756	
267.21	3547.1	
267.42	5093.3	
267.63	5478.3	
267.84	3981.9	
268.06	3381.2	
268.27	5953.4	
268.48	6193.1	
268.69	3895.9	
268.9	4638	
269.11	6173.9	
269.32	4953.4	
269.53	3968.3	
269.74	3713	
269.95	5875.6	
270.16	4809.3	
270.37	3984	
270.58	4575.2	
270.79	5359.5	
271	5990.3	
271.21	4332.8	
271.42	4033.1	
271.63	5653.8	
271.84	5087.2	
272.05	3157.3	
272.26	3619.4	
272.47	5520	
272.68	5702.2	
272.89	3805.8	
273.11	4474.1	
273.32	5284.4	
273.53	6504.3	
273.74	4364.2	
273.95	4233.8	
274.16	6189.6	
274.37	5596.4	
274.58	4371.7	
274.79	3510.2	
275	5600.5	
275.21	6169.8	
275.42	5284.4	
275.63	4552	
275.84	5807.4	
276.05	7303.1	
276.26	4214.7	
276.47	3926.6	
276.68	5308.3	
276.89	6585.6	
277.1	4542.4	
277.31	3492.5	
277.52	5791	
277.73	5961.6	
277.94	3427.6	
278.15	3851.5	
278.36	5782.1	
278.57	5127.4	
278.78	3824.2	
278.99	4323.9	
279.2	5136.3	
279.41	5090.6	
279.62	5035.3	
279.83	3497.9	
280.04	6791.7	
280.25	4987.5	
280.46	5032.5	
280.67	3991.5	
280.88	5083.1	
281.09	6214.9	
281.3	4223.6	
281.51	5351.3	
281.72	5205.3	
281.93	6062	
282.14	3709.6	
282.35	4025.6	
282.56	6078.4	
282.77	5997.8	
282.98	3815.4	
283.19	4726.7	
283.4	7393.2	
283.61	5470.1	
283.82	3510.2	
284.03	4983.4	
284.24	5593	
284.45	6241.5	
284.66	4969.7	
284.87	4852.3	
285.08	6171.9	
285.29	6235.4	
285.5	3421.5	
285.71	3924.6	
285.92	6186.2	
286.12	6891.4	
286.33	4853	
286.54	3888.4	
286.75	6003.3	
286.96	5382.1	
287.17	3519.1	
287.38	4887.8	
287.59	5104.2	
287.8	5088.5	
288.01	3930.1	
288.22	4537.6	
288.43	6081.1	
288.64	5049.6	
288.85	4709	
289.06	4451.6	
289.27	5956.2	
289.48	6515.3	
289.69	5012.7	
289.9	4492.6	
290.11	6195.8	
290.32	5138.4	
290.53	4715.1	
290.74	4341	
290.94	5946.6	
291.15	6047	
291.36	3737.5	
291.57	4470	
291.78	5248.9	
291.99	4889.9	
292.2	3563.5	
292.41	4368.3	
292.62	6100.9	
292.83	5916.6	
293.04	5339.1	
293.25	3594.9	
293.46	5315.8	
293.67	6200.6	
293.88	3760.8	
294.09	3607.2	
294.29	5042.1	
294.5	5723.4	
294.71	4071.4	
294.92	3874.8	
295.13	5300.8	
295.34	6702.3	
295.55	3375.1	
295.76	3485.6	
295.97	5895.4	
296.18	6787.7	
296.39	3581.9	
296.6	3776.5	
296.81	5647.6	
297.01	5963	
297.22	3870	
297.43	3723.9	
297.64	5158.2	
297.85	5157.5	
298.06	3081.5	
298.27	3291.8	
298.48	5614.8	
298.69	5166.3	
298.9	4004.5	
299.11	3649.5	
299.31	5016.8	
299.52	5035.3	
299.73	4382.7	
299.94	4298.7	
300.15	5506.3	
300.36	5085.8	
300.57	4354	
300.78	4281.6	
300.99	5409.4	
301.2	5618.3	
301.4	3747.8	
301.61	4141.7	
301.82	5878.4	
302.03	5954.1	
302.24	4549.9	
302.45	3568.9	
302.66	5828.5	
302.87	6376	
303.08	3791.5	
303.29	5138.4	
303.49	5208	
303.7	5536.3	
303.91	3360	
304.12	4903.5	
304.33	5021.6	
304.54	5708.4	
304.75	3812	
304.96	3620.8	
305.16	5825.1	
305.37	6677.1	
305.58	3290.4	
305.79	3420.8	
306	5881.1	
306.21	4945.8	
306.42	3800.3	
306.63	5822.4	
306.83	5365	
307.04	6137.1	
307.25	4162.2	
307.46	4125.3	
307.67	4719.2	
307.88	6011.5	
308.09	3682.2	
308.29	3850.2	
308.5	5573.2	
308.71	6160.3	
308.92	3973.1	
309.13	3576.4	
309.34	5395	
309.55	5440.8	
309.75	4723.3	
309.96	4270	
310.17	5960.3	
310.38	5191.6	
310.59	4578.6	
310.8	3522.5	
311.01	6236.1	
311.21	5379.3	
311.42	3511.6	
311.63	3690.4	
311.84	5228.5	
312.05	5682.4	
312.26	4166.9	
312.46	4593.6	
312.67	5319.9	
312.88	5074.2	
313.09	3562.1	
313.3	3541.6	
313.51	6407.4	
313.71	6719.4	
313.92	3611.3	
314.13	3852.9	
314.34	5731.6	
314.55	5475.6	
314.76	4693.9	
314.96	4084.3	
315.17	5597.1	
315.38	5960.3	
315.59	3635.1	
315.8	3463.8	
316.01	6488	
316.21	6470.2	
316.42	3496.6	
316.63	4016.1	
316.84	5350	
317.05	6306.4	
317.26	4258.4	
317.46	3838.6	
317.67	5477.6	
317.88	5910.4	
318.09	4658.4	
318.3	3333.4	
318.5	5215.5	
318.71	5878.4	
318.92	5835.3	
319.13	4246.1	
319.34	6019	
319.54	6169.2	
319.75	3366.2	
319.96	3258.3	
320.17	5893.4	
320.38	6161.7	
320.58	3270.6	
320.79	3952.6	
321	6090.7	
321.21	6226.5	
321.42	4015.4	
321.62	3298.6	
321.83	5109.7	
322.04	5556.8	
322.25	3840.6	
322.46	3629	
322.66	5666	
322.87	5786.2	
323.08	4558.1	
323.29	3556	
323.5	6640.2	
323.7	5060.5	
323.91	4978.6	
324.12	4402.5	
324.33	5617.6	
324.53	5791	
324.74	4298	
324.95	4469.4	
325.16	4883.7	
325.37	5382.1	
325.57	3646.7	
325.78	3686.3	
325.99	5598.5	
326.2	5063.9	
326.4	5207.3	
326.61	3325.9	
326.82	5470.8	
327.03	5619.6	
327.24	5101.5	
327.44	4961.5	
327.65	5807.4	
327.86	4640.7	
328.07	4328	
328.27	3502	
328.48	6236.1	
328.69	5115.1	
328.9	5242.1	
329.1	3908.2	
329.31	5447.6	
329.52	6368.5	
329.73	3601.7	
329.93	4071.4	
330.14	5515.2	
330.35	5840.1	
330.56	6006.7	
330.76	4459.1	
330.97	5360.9	
331.18	5733.6	
331.39	4056.3	
331.59	3233.1	
331.8	6191.7	
332.01	6270.9	
332.22	3788.1	
332.42	4328	
332.63	5660.6	
332.84	5239.4	
333.05	4118.5	
333.25	3711.6	
333.46	5305.6	
333.67	5568.4	
333.88	3768.9	
334.08	4284.4	
334.29	7363.8	
334.5	6268.1	
334.7	3516.4	
334.91	5257.1	
335.12	5042.1	
335.33	5967.8	
335.53	4005.1	
335.74	6033.3	
335.95	5192.3	
336.16	5110.4	
336.36	4027	
336.57	4639.3	
336.78	5005.9	
336.98	6204	
337.19	4977.9	
337.4	3978.5	
337.61	6660	
337.81	5057.1	
338.02	3738.9	
338.23	4854.4	
338.43	6326.2	
338.64	5158.8	
338.85	3628.3	
339.05	4816.1	
339.26	6412.9	
339.47	4896	
339.68	3638.6	
339.88	5503.6	
340.09	5777.3	
340.3	5969.8	
340.5	4298	
340.71	3263.8	
340.92	4986.1	
341.13	6328.2	
341.33	3555.3	
341.54	4295.3	
341.75	5799.2	
341.95	5402.5	
342.16	4152.6	
342.37	4456.4	
342.57	5104.9	
342.78	5528.2	
342.99	4544.4	
343.19	3249.4	
343.4	5952.1	
343.61	5780.7	
343.81	3847.5	
344.02	3583.3	
344.23	5991.7	
344.43	6382.8	
344.64	4573.1	
344.85	4456.4	
345.06	5859.9	
345.26	6156.9	
345.47	4207.2	
345.68	4963.6	
345.88	4874.8	
346.09	6054.5	
346.3	4287.8	
346.5	3271.3	
346.71	5579.3	
346.92	5231.9	
347.12	3366.9	
347.33	4249.5	
347.54	6145.3	
347.74	6562.4	
347.95	4163.5	
348.16	3110.2	
348.36	5305.6	
348.57	5150	
348.78	4105.5	
348.98	4507.6	
349.19	5484.5	
349.39	4975.9	
349.6	3325.2	
349.81	3717.1	
350.01	5740.5	
350.22	5227.8	
350.43	3999.7	
350.63	4867.3	
350.84	5618.3	
351.05	5343.2	
351.25	3719.8	
351.46	3343	
351.67	6142.5	
351.87	5184.1	
352.08	3913.7	
352.29	4470.7	
352.49	6038.8	
352.7	5679	
352.9	3581.9	
353.11	4511	
353.32	6716	
353.52	5357.5	
353.73	3490.4	
353.94	4489.8	
354.14	5847	
354.35	5630.5	
354.55	3592.1	
354.76	4047.5	
354.97	5823.7	
355.17	5567.1	
355.38	3373.7	
355.59	4793.6	
355.79	5225.1	
356	5686.5	
356.2	4042.7	
356.41	3466.5	
356.62	4936.3	
356.82	5479	
357.03	4339.6	
357.24	3901.4	
357.44	5214.8	
357.65	5412.8	
357.85	5214.1	
358.06	4069.3	
358.27	4956.8	
358.47	5213.4	
358.68	3386.7	
358.88	4330.1	
359.09	5782.1	
359.3	6183.5	
359.5	5023	
359.71	4399.7	
359.91	6664.8	
360.12	6001.2	
360.33	4236.6	
360.53	4730.1	
360.74	5186.8	
360.94	5224.4	
361.15	4483	
361.36	3678.8	
361.56	5988.3	
361.77	5473.5	
361.97	5018.9	
362.18	3923.9	
362.38	6049.7	
362.59	5143.8	
362.8	3566.9	
363	3497.2	
363.21	4869.4	
363.41	5579.3	
363.62	4179.9	
363.83	5245.5	
364.03	5613.5	
364.24	6670.2	
364.44	5308.3	
364.65	5258.5	
364.85	5395	
365.06	5076.9	
365.27	3795.6	
365.47	3841.3	
365.68	6468.2	
365.88	5370.5	
366.09	4185.4	
366.29	3905.5	
366.5	5726.8	
366.71	6150.1	
366.91	5320.6	
367.12	4408.6	
367.32	6767.2	
367.53	5993.7	
367.73	4326	
367.94	5388.9	
368.14	5887.2	
368.35	6863.4	
368.56	4319.2	
368.76	3680.2	
368.97	6013.5	
369.17	7745.4	
369.38	3827	
369.58	4029	
369.79	5083.7	
369.99	6367.8	
370.2	5147.9	
370.4	4216.8	
370.61	5609.4	
370.82	6963.8	
371.02	4052.2	
371.23	3381.9	
371.43	4992.3	
371.64	6340.5	
371.84	4146.5	
372.05	5393	
372.25	7701.7	
372.46	6043.6	
372.66	4073.4	
372.87	4014	
373.07	6096.1	
373.28	7761.8	
373.48	5162.2	
373.69	4818.2	
373.9	5603.9	
374.1	5594.4	
374.31	5142.4	
374.51	4635.2	
374.72	6442.9	
374.92	5243.5	
375.13	5304.9	
375.33	4379.2	
375.54	6011.5	
375.74	5382.1	
375.95	4465.3	
376.15	5791	
376.36	5999.9	
376.56	5778.7	
376.77	4513.7	
376.97	5046.9	
377.18	7087.3	
377.38	6138.4	
377.59	5446.2	
377.79	4078.2	
378	5867.4	
378.2	6328.2	
378.41	4132.1	
378.61	4041.3	
378.82	6277	
379.02	5442.1	
379.23	4240	
379.43	5457.8	
379.64	6494.8	
379.84	6062	
380.05	4100	
380.25	4042	
380.46	6152.8	
380.66	5721.3	
380.87	5441.5	
381.07	5885.9	
381.28	6817	
381.48	6163.7	
381.69	4119.1	
381.89	4223.6	
382.1	5018.9	
382.3	6353.5	
382.51	5281	
382.71	6299.6	
382.91	6182.1	
383.12	6723.5	
383.32	4466.6	
383.53	4772.4	
383.73	6001.2	
383.94	5806.7	
384.14	4632.5	
384.35	3769.6	
384.55	5724.1	
384.76	6139.1	
384.96	4572.4	
385.17	4889.2	
385.37	6172.6	
385.58	5380	
385.78	4867.3	
385.98	3670	
386.19	5666	
386.39	6051.1	
386.6	4248.9	
386.8	4429.8	
387.01	6151.4	
387.21	6143.2	
387.42	4962.9	
387.62	5483.8	
387.83	5386.2	
388.03	6150.7	
388.23	4488.5	
388.44	5379.3	
388.64	5053.7	
388.85	5270.1	
389.05	4938.3	
389.26	5564.3	
389.46	7195.2	
389.67	6561	
389.87	4894.6	
390.07	4949.3	
390.28	5774.6	
390.48	5347.9	
390.69	4082.3	
390.89	4412	
391.1	5535	
391.3	6509.1	
391.5	5672.9	
391.71	6338.5	
391.91	6210.1	
392.12	7255.3	
392.32	5786.2	
392.53	4925.4	
392.73	5627.8	
392.93	5763	
393.14	4618.9	
393.34	5360.2	
393.55	6315.9	
393.75	5743.9	
393.95	4617.5	
394.16	4557.4	
394.36	5567.1	
394.57	6232.7	
394.77	4000.4	
394.98	4517.1	
395.18	5461.2	
395.38	5696.1	
395.59	5395.7	
395.79	4261.8	
396	5629.9	
396.2	6070.2	
396.4	5175.2	
396.61	5125.4	
396.81	6324.8	
397.02	5577.3	
397.22	5444.2	
397.42	5434.6	
397.63	6311.8	
397.83	5505.6	
398.04	4282.3	
398.24	4807.3	
398.44	6118	
398.65	5144.5	
398.85	4098	
399.05	4285	
399.26	5481	
399.46	7284.6	
399.67	4648.2	
399.87	4273.4	
400.07	5892	
400.28	6272.9	
400.48	4397.7	
400.69	5520	
400.89	6454.5	
401.09	6984.3	
401.3	4309.6	
401.5	5506.3	
401.7	7242.3	
401.91	7472.4	
402.11	4661.9	
402.32	5041.4	
402.52	6593.1	
402.72	6475	
402.93	5180	
403.13	3964.2	
403.33	7337.2	
403.54	5979.4	
403.74	4883.7	
403.94	5772.5	
404.15	6036.7	
404.35	7221.8	
404.56	4567	
404.76	6534.4	
404.96	6464.1	
405.17	6194.4	
405.37	5508.4	
405.57	5069.4	
405.78	6472.3	
405.98	5912.5	
406.18	4515.1	
406.39	5574.6	
406.59	6498.2	
406.79	6087.9	
407	4451.6	
407.2	4603.2	
407.4	6483.2	
407.61	6752.2	
407.81	4485.7	
408.01	6421.7	
408.22	5289.9	
408.42	7430.7	
408.62	5528.8	
408.83	5003.9	
409.03	5987.6	
409.23	5814.9	
409.44	5103.5	
409.64	5419.6	
409.84	7015.7	
410.05	6931	
410.25	5313.8	
410.45	4986.1	
410.66	6402.6	
410.86	8950.3	
411.06	5529.5	
411.27	5326.1	
411.47	8746.2	
411.67	6612.2	
411.88	5659.9	
412.08	5934.3	
412.28	7276.4	
412.49	7750.2	
412.69	5345.9	
412.89	5414.1	
413.09	7583.6	
413.3	7490.1	
413.5	5507	
413.7	5096.7	
413.91	6711.9	
414.11	7610.3	
414.31	5351.3	
414.52	5827.8	
414.72	7308.5	
414.92	7169.3	
415.12	5358.2	
415.33	5887.9	
415.53	7576.8	
415.73	7826.7	
415.94	6281.8	
416.14	5651	
416.34	6492.1	
416.55	6311.8	
416.75	6961.7	
416.95	6337.1	
417.15	7521.5	
417.36	8354.3	
417.56	7114	
417.76	6146.6	
417.97	7882.6	
418.17	7592.5	
418.37	5644.2	
418.57	5775.3	
418.78	7314.7	
418.98	7010.2	
419.18	6651.8	
419.38	6663.4	
419.59	7101	
419.79	6684.6	
419.99	5612.1	
420.2	6128.2	
420.4	7690.1	
420.6	7777.5	
420.8	5468.8	
421.01	5398.4	
421.21	7365.2	
421.41	7605.5	
421.61	5898.8	
421.82	5597.8	
422.02	6844.3	
422.22	7913.4	
422.42	6499.6	
422.63	6120	
422.83	7066.2	
423.03	8261.5	
423.23	6136.4	
423.44	5079.6	
423.64	7154.2	
423.84	6817.7	
424.04	5533.6	
424.25	5180.7	
424.45	8066.9	
424.65	8025.3	
424.85	5012.7	
425.06	5543.9	
425.26	7977.5	
425.46	6548	
425.66	6075.6	
425.87	5799.8	
426.07	7707.2	
426.27	7662.8	
426.47	5880.4	
426.67	5209.3	
426.88	8098.4	
427.08	7541.3	
427.28	6049	
427.48	5103.5	
427.69	6308.4	
427.89	7028.6	
428.09	6079.1	
428.29	5175.2	
428.5	7763.8	
428.7	7200.7	
428.9	5036.6	
429.1	5753.4	
429.3	7097.6	
429.51	7613	
429.71	5388.2	
429.91	6221	
430.11	7464.8	
430.31	7765.2	
430.52	5689.3	
430.72	6025.1	
430.92	8026	
431.12	7488.7	
431.32	5360.9	
431.53	5786.9	
431.73	6341.9	
431.93	8153	
432.13	5216.2	
432.33	5106.3	
432.54	6807.4	
432.74	7226.6	
432.94	5079	
433.14	6191	
433.34	7374.7	
433.55	6883.9	
433.75	6061.3	
433.95	7981.6	
434.15	7152.2	
434.35	6894.8	
434.56	5240.8	
434.76	4766.3	
434.96	7157.7	
435.16	7447.8	
435.36	5152	
435.56	6353.5	
435.77	6870.3	
435.97	7002.7	
436.17	7173.4	
436.37	6260.6	
436.57	6811.5	
436.78	6755.6	
436.98	7567.9	
437.18	6833.4	
437.38	7495.6	
437.58	6963.8	
437.78	7097.6	
437.99	5618.3	
438.19	7610.9	
438.39	8402.1	
438.59	5560.2	
438.79	5106.3	
438.99	8191.2	
439.2	6937.2	
439.4	5168.4	
439.6	5098.1	
439.8	7277.8	
440	8329.8	
440.2	6148	
440.4	6221	
440.61	7593.2	
440.81	8148.9	
441.01	5285.8	
441.21	6193.1	
441.41	8122.2	
441.61	7716.1	
441.81	6503.7	
442.02	7747.5	
442.22	8690.2	
442.42	7836.2	
442.62	5483.8	
442.82	5476.3	
443.02	8132.5	
443.22	7164.5	
443.43	5855.8	
443.63	5413.5	
443.83	6948.1	
444.03	7134.4	
444.23	6649.1	
444.43	6214.9	
444.63	7361.8	
444.83	8697	
445.04	5547.3	
445.24	6931.7	
445.44	7789.1	
445.64	7871	
445.84	6411.5	
446.04	6334.4	
446.24	7110.5	
446.44	8173.4	
446.65	5533.6	
446.85	5950	
447.05	7409.6	
447.25	8110.6	
447.45	5997.8	
447.65	5271.5	
447.85	7274.4	
448.05	7000.6	
448.25	6433.4	
448.46	6165.1	
448.66	7323.5	
448.86	7081.2	
449.06	5163.6	
449.26	6412.2	
449.46	7835.5	
449.66	6708.5	
449.86	5864.7	
450.06	5825.1	
450.26	6973.3	
450.47	7656	
450.67	6126.2	
450.87	6461.3	
451.07	7651.2	
451.27	7418.4	
451.47	5472.2	
451.67	6070.9	
451.87	7080.5	
452.07	8305.9	
452.27	5647.6	
452.47	5647.6	
452.67	7397.3	
452.88	7992.5	
453.08	5011.4	
453.28	7149.5	
453.48	8675.2	
453.68	7342.7	
453.88	5489.9	
454.08	5870.2	
454.28	7715.4	
454.48	7394.5	
454.68	6382.8	
454.88	6931.7	
455.08	7811.6	
455.28	7594.6	
455.48	5309.7	
455.68	6047	
455.89	8380.3	
456.09	8029.4	
456.29	5770.5	
456.49	5752.1	
456.69	8164.6	
456.89	7412.3	
457.09	6336.4	
457.29	6747.4	
457.49	7676.5	
457.69	7850.5	
457.89	6117.3	
458.09	5449	
458.29	7399.3	
458.49	8270.4	
458.69	6521.4	
458.89	5935	
459.09	8461.5	
459.29	8656.8	
459.49	6048.3	
459.69	6982.9	
459.9	8029.4	
460.1	7430	
460.3	5938.4	
460.5	5733.6	
460.7	7961.8	
460.9	7662.1	
461.1	5356.1	
461.3	6799.3	
461.5	8591.2	
461.7	8266.3	
461.9	5861.3	
462.1	6279.1	
462.3	7628	
462.5	8215.8	
462.7	5753.4	
462.9	5969.1	
463.1	9385.2	
463.3	9099.8	
463.5	6145.3	
463.7	7057.3	
463.9	7871.7	
464.1	8303.8	
464.3	6262.7	
464.5	6563.7	
464.7	8566.7	
464.9	8189.8	
465.1	7934.5	
465.3	6937.8	
465.5	8814.5	
465.7	8900.5	
465.9	7185.6	
466.1	6994.5	
466.3	8655.4	
466.5	8430.8	
466.7	7854.6	
466.9	6729.6	
467.1	8411.7	
467.3	9452.1	
467.5	7837.6	
467.7	6606.1	
467.9	9594.7	
468.1	10471	
468.3	7547.4	
468.5	7859.4	
468.7	8430.8	
468.9	8421.2	
469.1	6932.4	
469.3	7654.6	
469.5	10477	
469.7	7907.2	
469.9	7555	
470.1	6597.2	
470.3	8414.4	
470.5	8374.1	
470.7	7982.3	
470.9	6793.1	
471.1	8176.2	
471.3	8721.6	
471.5	6631.3	
471.69	8643.1	
471.89	8009.6	
472.09	7662.8	
472.29	7482.6	
472.49	7855.3	
472.69	7785.7	
472.89	8647.9	
473.09	6500.9	
473.29	6728.9	
473.49	8021.2	
473.69	8186.4	
473.89	7645.8	
474.09	6748.7	
474.29	9475.3	
474.49	9133.3	
474.69	7615	
474.89	6981.5	
475.09	8125.7	
475.29	8060.8	
475.49	6348.7	
475.69	6565.1	
475.88	9721	
476.08	8401.5	
476.28	6206.7	
476.48	6821.1	
476.68	8905.9	
476.88	8768.7	
477.08	6604	
477.28	6856.6	
477.48	8243.8	
477.68	8942.8	
477.88	6343.9	
478.08	6667.5	
478.28	9199.5	
478.48	8300.4	
478.67	6857.3	
478.87	6058.6	
479.07	8981.7	
479.27	8467.7	
479.47	6911.2	
479.67	6941.9	
479.87	8802.9	
480.07	9390.6	
480.27	6222.4	
480.47	8006.2	
480.67	8443.1	
480.87	9101.9	
481.06	6494.1	
481.26	7310.6	
481.46	8322.9	
481.66	8324.3	
481.86	6853.9	
482.06	8066.3	
482.26	8018.5	
482.46	9079.3	
482.66	6869.6	
482.86	6386.9	
483.05	8388.5	
483.25	7776.8	
483.45	9502.6	
483.65	6893.5	
483.85	7897	
484.05	8276.5	
484.25	7254.6	
484.45	7774.8	
484.65	9245.2	
484.84	9252	
485.04	6789.7	
485.24	6772.6	
485.44	9466.4	
485.64	7689.4	
485.84	5982.1	
486.04	7443	
486.24	8064.9	
486.44	8526.4	
486.63	5969.8	
486.83	6857.3	
487.03	7961.1	
487.23	8198	
487.43	6019.7	
487.63	8531.2	
487.83	8249.9	
488.02	9303.2	
488.22	7102.4	
488.42	7760.4	
488.62	9145.5	
488.82	8123.6	
489.02	6781.5	
489.22	6800.6	
489.41	9001.5	
489.61	8618.5	
489.81	6425.2	
490.01	6500.9	
490.21	8893	
490.41	9633.6	
490.61	6260.6	
490.8	6633.4	
491	8387.1	
491.2	7692.2	
491.4	7359.7	
491.6	6399.2	
491.8	8426.7	
491.99	8632.2	
492.19	6241.5	
492.39	6604	
492.59	8953.7	
492.79	9003.6	
492.99	7296.9	
493.18	6409.5	
493.38	8966	
493.58	9706	
493.78	7097.6	
493.98	6703.7	
494.18	8655.4	
494.37	8081.3	
494.57	7378.1	
494.77	7258	
494.97	8806.3	
495.17	9130.5	
495.37	6741.2	
495.56	7080.5	
495.76	9292.3	
495.96	8903.9	
496.16	8091.5	
496.36	6980.2	
496.55	9157.2	
496.75	8703.2	
496.95	7391.1	
497.15	7299	
497.35	9162.6	
497.54	9173.5	
497.74	7180.9	
497.94	8865.7	
498.14	9843.2	
498.34	9637.7	
498.53	6679.1	
498.73	7570	
498.93	8421.2	
499.13	9119.6	
499.33	7347.4	
499.52	7843	
499.72	9029.5	
499.92	9431.6	
500.12	6926.2	
500.32	7270.3	
500.51	9397.4	
500.71	9116.2	
500.91	8100.4	
501.11	7664.9	
501.31	9338.7	
501.5	9742.2	
501.7	8413.1	
501.9	7306.5	
502.1	9140.1	
502.29	9420.7	
502.49	7783.6	
502.69	8312	
502.89	9278.7	
503.09	9299.8	
503.28	6852.5	
503.48	6978.8	
503.68	8441	
503.88	8480	
504.07	7964.6	
504.27	7425.9	
504.47	8954.4	
504.67	9088.9	
504.86	7871.7	
505.06	7484.6	
505.26	8495.7	
505.46	10565	
505.65	7443	
505.85	7696.9	
506.05	8608.3	
506.25	9035	
506.44	6660.7	
506.64	7739.3	
506.84	8461.5	
507.04	9446.6	
507.23	6903	
507.43	7485.3	
507.63	10540	
507.83	8650.6	
508.02	7443	
508.22	7088	
508.42	10784	
508.62	8370.7	
508.81	7371.3	
509.01	7932.5	
509.21	8281.3	
509.4	8523.6	
509.6	7493.5	
509.8	6903	
510	8492.2	
510.19	10036	
510.39	6884.6	
510.59	6915.3	
510.79	8217.8	
510.98	9649.3	
511.18	6953.5	
511.38	7166.5	
511.57	9142.1	
511.77	8999.5	
511.97	7798.7	
512.17	6759.7	
512.36	9199.5	
512.56	9103.2	
512.76	6924.9	
512.95	6578.1	
513.15	9318.9	
513.35	7798	
513.55	7720.2	
513.74	6882.5	
513.94	9090.9	
514.14	8497.7	
514.33	7834.2	
514.53	7528.3	
514.73	8449.2	
514.92	8697	
515.12	7078.5	
515.32	6754.9	
515.51	8729.1	
515.71	9333.3	
515.91	8678.6	
516.11	6846.4	
516.3	10591	
516.5	8282	
516.7	7410.2	
516.89	8064.9	
517.09	8482.7	
517.29	8365.3	
517.48	7681.9	
517.68	7135.1	
517.88	8148.9	
518.07	8770.8	
518.27	7666.2	
518.47	6633.4	
518.66	9440.5	
518.86	7925	
519.06	6496.8	
519.25	6890	
519.45	8228.1	
519.65	9955.2	
519.84	7505.1	
520.04	8294.3	
520.24	10152	
520.43	9093.7	
520.63	7306.5	
520.83	7122.8	
521.02	8185.7	
521.22	8952.4	
521.42	7615.7	
521.61	8287.4	
521.81	8427.4	
522.01	8572.1	
522.2	7352.9	
522.4	7180.2	
522.6	9029.5	
522.79	7794.6	
522.99	7211.6	
523.18	6526.9	
523.38	8793.3	
523.58	8724.3	
523.77	8486.8	
523.97	6349.4	
524.17	10687	
524.36	9746.3	
524.56	7913.4	
524.76	7441.6	
524.95	8674.5	
525.15	8286.1	
525.34	7208.2	
525.54	7254.6	
525.74	9092.3	
525.93	8011	
526.13	8573.5	
526.33	7170.6	
526.52	9466.4	
526.72	8897.7	
526.91	8475.9	
527.11	7750.2	
527.31	9561.3	
527.5	9934.7	
527.7	7561.1	
527.89	6575.3	
528.09	8181.6	
528.29	8811	
528.48	7862.8	
528.68	7579.5	
528.87	9267.1	
529.07	9270.5	
529.27	7549.5	
529.46	7095.5	
529.66	9002.9	
529.85	9424.8	
530.05	6951.5	
530.25	7862.2	
530.44	10548	
530.64	8877.9	
530.83	7346.1	
531.03	7665.5	
531.23	9199.5	
531.42	9109.4	
531.62	8393.9	
531.81	7474.4	
532.01	9298.5	
532.21	9909.4	
532.4	7078.5	
532.6	7449.1	
532.79	10408	
532.99	9441.1	
533.18	7544.7	
533.38	8779	
533.58	8929.8	
533.77	9794.1	
533.97	7530.4	
534.16	8382.3	
534.36	9904	
534.55	9037.7	
534.75	8483.4	
534.95	7591.1	
535.14	9770.2	
535.34	9024.7	
535.53	7210.2	
535.73	9353.8	
535.92	10408	
536.12	9228.1	
536.31	7453.9	
536.51	8712.7	
536.71	9516.2	
536.9	9056.8	
537.1	7543.4	
537.29	7671	
537.49	9971.6	
537.68	8854.1	
537.88	8003.5	
538.07	7217	
538.27	9086.8	
538.46	10306	
538.66	7047.7	
538.86	7607.5	
539.05	9155.1	
539.25	9674.6	
539.44	7827.3	
539.64	7454.6	
539.83	9010.4	
540.03	10064	
540.22	7347.4	
540.42	7526.3	
540.61	9280.7	
540.81	9471.2	
541	8047.2	
541.2	8709.3	
541.39	8813.1	
541.59	9247.9	
541.78	8256.7	
541.98	7361.1	
542.18	8556.4	
542.37	8540.7	
542.57	7779.6	
542.76	8282.7	
542.96	8587.1	
543.15	9379	
543.35	7860.1	
543.54	7225.2	
543.74	9624.8	
543.93	9160.6	
544.13	7856	
544.32	8944.8	
544.52	9524.4	
544.71	8653.4	
544.91	6792.4	
545.1	8137.3	
545.3	8642.4	
545.49	9315.5	
545.69	6719.4	
545.88	7421.8	
546.08	10314	
546.27	10015	
546.47	7945.4	
546.66	7215.7	
546.86	9605.7	
547.05	10324	
547.24	7394.5	
547.44	7248.4	
547.63	8477.9	
547.83	9747	
548.02	7653.9	
548.22	7899.7	
548.41	8288.8	
548.61	9764.7	
548.8	7171.3	
549	7118.7	
549.19	8989.2	
549.39	9263	
549.58	6879.1	
549.78	7504.4	
549.97	9458.9	
550.17	8884.8	
550.36	8446.5	
550.55	9452.1	
550.75	8936.7	
550.94	9912.2	
551.14	7098.3	
551.33	7467.6	
551.53	8147.5	
551.72	9192	
551.92	7609.6	
552.11	7213.6	
552.31	9243.8	
552.5	9331.9	
552.69	9149	
552.89	6883.2	
553.08	9152.4	
553.28	9039.7	
553.47	7293.5	
553.67	8500.4	
553.86	10039	
554.06	8144.8	
554.25	6445	
554.44	6976.7	
554.64	10689	
554.83	10213	
555.03	6965.1	
555.22	7469.6	
555.42	9425.4	
555.61	9159.2	
555.8	7206.8	
556	7515.4	
556.19	8217.8	
556.39	9485.5	
556.58	7277.1	
556.78	7230	
556.97	8920.3	
557.16	8605.6	
557.36	8546.2	
557.55	6818.4	
557.75	8003.5	
557.94	9784.5	
558.13	6976.7	
558.33	6681.8	
558.52	9525.8	
558.72	8415.8	
558.91	6823.1	
559.1	7214.3	
559.3	8066.3	
559.49	7806.2	
559.69	6405.4	
559.88	7532.4	
560.07	8917.5	
560.27	9350.3	
560.46	7604.8	
560.66	7815.7	
560.85	8674.5	
561.04	7866.9	
561.24	6858.6	
561.43	7034.8	
561.63	8150.2	
561.82	8456.7	
562.01	8300.4	
562.21	7275.8	
562.4	8897.7	
562.59	9891.7	
562.79	7118.1	
562.98	6767.9	
563.18	8832.2	
563.37	10258	
563.56	7531.7	
563.76	6735.1	
563.95	8178.2	
564.14	8053.3	
564.34	7058.7	
564.53	6884.6	
564.73	8800.1	
564.92	9172.9	
565.11	7239.6	
565.31	6702.3	
565.5	9344.9	
565.69	8219.2	
565.89	6795.8	
566.08	7084.6	
566.27	9220	
566.47	9599.5	
566.66	7782.3	
566.85	6402.6	
567.05	8738	
567.24	8149.6	
567.44	6787	
567.63	8176.2	
567.82	9019.9	
568.02	8728.4	
568.21	6834.1	
568.4	7234.8	
568.6	8649.3	
568.79	8635.6	
568.98	6594.5	
569.18	6716.7	
569.37	8494.3	
569.56	10701	
569.76	7145.4	
569.95	8196.7	
570.14	9001.5	
570.34	8851.3	
570.53	6591	
570.72	6586.3	
570.91	9452.1	
571.11	8480	
571.3	7126.2	
571.49	8042.4	
571.69	8531.8	
571.88	8127	
572.07	7657.4	
572.27	7690.8	
572.46	8105.2	
572.65	9173.5	
572.85	6845.7	
573.04	7166.5	
573.23	9387.9	
573.43	8673.1	
573.62	6591	
573.81	7218.4	
574	8562.6	
574.2	8431.5	
574.39	6853.9	
574.58	7019.1	
574.78	9397.4	
574.97	8780.3	
575.16	7370	
575.36	7742.7	
575.55	9148.3	
575.74	9215.2	
575.93	6524.8	
576.13	7667.6	
576.32	8425.3	
576.51	9073.2	
576.71	6959	
576.9	8427.4	
577.09	9473.2	
577.28	8924.4	
577.48	7570	
577.67	6431.3	
577.86	8622.6	
578.05	8829.5	
578.25	7133.1	
578.44	7248.4	
578.63	8634.9	
578.83	9902.6	
579.02	6445.6	
579.21	8117.5	
579.4	8889.5	
579.6	8505.9	
579.79	7405.5	
579.98	9688.3	
580.17	9169.4	
580.37	9286.2	
580.56	6726.2	
580.75	7476.5	
580.94	9781.1	
581.14	9583.8	
581.33	7907.2	
581.52	6828.6	
581.71	8972.2	
581.91	9712.8	
582.1	6460	
582.29	7214.3	
582.48	8671.1	
582.68	8617.9	
582.87	7638.9	
583.06	7244.3	
583.25	9030.9	
583.45	8846.5	
583.64	7920.9	
583.83	8700.5	
584.02	8507.9	
584.21	8927.1	
584.41	7976.2	
584.6	7215	
584.79	8634.9	
584.98	9447.3	
585.18	6651.1	
585.37	6604.7	
585.56	8148.9	
585.75	8998.1	
585.94	7020.4	
586.14	7602.1	
586.33	9706	
586.52	8604.2	
586.71	7436.9	
586.91	7172	
587.1	8097.7	
587.29	9196.7	
587.48	7168.6	
587.67	6948.1	
587.87	8963.3	
588.06	9088.2	
588.25	8418.5	
588.44	7684	
588.63	8634.2	
588.83	9323	
589.02	7035.5	
589.21	6990.4	
589.4	8569.4	
589.59	8295.6	
589.78	6313.2	
589.98	6555.5	
590.17	8024.6	
590.36	8644.5	
590.55	5977.3	
590.74	6881.2	
590.94	9968.1	
591.13	8491.6	
591.32	6555.5	
591.51	5988.9	
591.7	8877.3	
591.89	8301.1	
592.09	6064	
592.28	6687.3	
592.47	7598	
592.66	9585.9	
592.85	6113.2	
593.05	6394.4	
593.24	8173.4	
593.43	9026.1	
593.62	6427.2	
593.81	6994.5	
594	8245.8	
594.19	8399.4	
594.39	6333.7	
594.58	6281.8	
594.77	8512	
594.96	9176.9	
595.15	6246.3	
595.34	6898.9	
595.54	8675.9	
595.73	7671	
595.92	5709.7	
596.11	6919.4	
596.3	9143.5	
596.49	7778.2	
596.68	6623.8	
596.88	7092.1	
597.07	8811.7	
597.26	7431.4	
597.45	6014.9	
597.64	7367.9	
597.83	7892.2	
598.02	8542.8	
598.22	6161	
598.41	6902.3	
598.6	8274.5	
598.79	7720.2	
598.98	6229.2	
599.17	7219.1	
599.36	8368.7	
599.55	9553.8	
599.74	8355	
599.94	8105.9	
600.13	8899.8	
600.32	7644.4	
600.51	5972.6	
600.7	6093.4	
600.89	9460.9	
601.08	9549.7	
601.27	5883.8	
601.47	6976.1	
601.66	8746.9	
601.85	9491	
602.04	6599.2	
602.23	6861.4	
602.42	7781.6	
602.61	8457.4	
602.8	6531.7	
602.99	6190.3	
603.18	8110.6	
603.37	8356.4	
603.57	6936.5	
603.76	7462.8	
603.95	9151.7	
604.14	8685.4	
604.33	6309.1	
604.52	6628.6	
604.71	8228.1	
604.9	7849.9	
605.09	7294.9	
605.28	7144.7	
605.47	8864.3	
605.66	8617.2	
605.86	6896.9	
606.05	6363	
606.24	8965.3	
606.43	7451.2	
606.62	6662.7	
606.81	7428	
607	8770.1	
607.19	8040.3	
607.38	6106.4	
607.57	6322.8	
607.76	7785	
607.95	7258	
608.14	6696.9	
608.33	7305.1	
608.52	7895.6	
608.72	8689.5	
608.91	5994.4	
609.1	5868.1	
609.29	7955	
609.48	7488.7	
609.67	6907.1	
609.86	5945.9	
610.05	7593.2	
610.24	7875.1	
610.43	5786.2	
610.62	5489.2	
610.81	9104.6	
611	8771.5	
611.19	5951.4	
611.38	6698.9	
611.57	8160.5	
611.76	9550.4	
611.95	5690.6	
612.14	5541.8	
612.33	7905.8	
612.52	7430	
612.71	6296.1	
612.9	5395	
613.09	7068.9	
613.28	9529.2	
613.47	5984.8	
613.66	6979.5	
613.85	8069	
614.04	7539.3	
614.24	6069.5	
614.43	5229.1	
614.62	8182.3	
614.81	8165.9	
615	6723.5	
615.19	6729.6	
615.38	7420.5	
615.57	7836.9	
615.76	6480.5	
615.95	7546.8	
616.14	8209.6	
616.33	7925	
616.52	6940.6	
616.71	7097.6	
616.9	8223.3	
617.09	8051.9	
617.28	6094.1	
617.47	7464.2	
617.66	7225.9	
617.85	7258.7	
618.04	7155.6	
618.22	6471.6	
618.41	7546.1	
618.6	8496.3	
618.79	6420.4	
618.98	6098.9	
619.17	8832.9	
619.36	7114.6	
619.55	6148	
619.74	6341.9	
619.93	8117.5	
620.12	7445	
620.31	6784.9	
620.5	7051.8	
620.69	8695	
620.88	9041.8	
621.07	7673.1	
621.26	6707.8	
621.45	8221.9	
621.64	8288.1	
621.83	6812.9	
622.02	5922	
622.21	8283.4	
622.4	7925	
622.59	7396.6	
622.78	7104.4	
622.97	7604.8	
623.16	8600.8	
623.35	6771.9	
623.54	5873.6	
623.72	7793.9	
623.91	7930.4	
624.1	6974	
624.29	5648.3	
624.48	9167.4	
624.67	8258.1	
624.86	6841.6	
625.05	5845.6	
625.24	9157.2	
625.43	7505.8	
625.62	8746.9	
625.81	6169.2	
626	8563.9	
626.19	7769.3	
626.38	6961	
626.56	6282.5	
626.75	7583.6	
626.94	8451.3	
627.13	6916	
627.32	5581.4	
627.51	8335.2	
627.7	9711.5	
627.89	5729.5	
628.08	6904.4	
628.27	7501	
628.46	7744.7	
628.65	6082.5	
628.83	5659.9	
629.02	8334.6	
629.21	7616.4	
629.4	6536.4	
629.59	6756.9	
629.78	7555	
629.97	8455.4	
630.16	6825.9	
630.35	6163	
630.54	8913.4	
630.72	8637	
630.91	6158.2	
631.1	6805.4	
631.29	8121.6	
631.48	8248.5	
631.67	6858	
631.86	6326.9	
632.05	7699	
632.24	7757.7	
632.42	5942.5	
632.61	6669.6	
632.8	7834.8	
632.99	7459.4	
633.18	6573.3	
633.37	6975.4	
633.56	8004.1	
633.75	7900.4	
633.93	6636.8	
634.12	6234.7	
634.31	8901.2	
634.5	8544.1	
634.69	6325.5	
634.88	6888.7	
635.07	7779.6	
635.25	8503.2	
635.44	7297.6	
635.63	7425.9	
635.82	7626.6	
636.01	7260.7	
636.2	7258	
636.39	6723.5	
636.57	8865	
636.76	8578.9	
636.95	6025.1	
637.14	7592.5	
637.33	8127	
637.52	9143.5	
637.7	5826.5	
637.89	6832	
638.08	7700.4	
638.27	9297.8	
638.46	6980.8	
638.65	7442.3	
638.83	9306.7	
639.02	7606.2	
639.21	6871.6	
639.4	7395.2	
639.59	8041	
639.78	7623.9	
639.96	6169.2	
640.15	6180.8	
640.34	7970	
640.53	8122.9	
640.72	5854.5	
640.91	6220.4	
641.09	7344.7	
641.28	8795.3	
641.47	6193.1	
641.66	7040.9	
641.85	8041.7	
642.03	8421.2	
642.22	6848.4	
642.41	6279.1	
642.6	7454.6	
642.79	6898.9	
642.97	6062	
643.16	6881.2	
643.35	7550.2	
643.54	7308.5	
643.73	6087.9	
643.91	6901.7	
644.1	7171.3	
644.29	7757	
644.48	6191	
644.67	6227.2	
644.85	7471.7	
645.04	7772.7	
645.23	5800.5	
645.42	6002.6	
645.6	7218.4	
645.79	8460.2	
645.98	6068.1	
646.17	5042.8	
646.36	7086	
646.54	7675.1	
646.73	6904.4	
646.92	5728.2	
647.11	7327.6	
647.29	8480	
647.48	5769.8	
647.67	5537	
647.86	8625.4	
648.05	8695	
648.23	6118.6	
648.42	7477.1	
648.61	7970.7	
648.8	7617.1	
648.98	5741.8	
649.17	6002.6	
649.36	7190.4	
649.55	6711.9	
649.73	5672.2	
649.92	6521.4	
650.11	7146.7	
650.3	7510.6	
650.48	5917.9	
650.67	5597.1	
650.86	7821.2	
651.05	6685.3	
651.23	5900.9	
651.42	5768.4	
651.61	7068.2	
651.79	7411.6	
651.98	6028.5	
652.17	5677.7	
652.36	7748.1	
652.54	6696.9	
652.73	5691.3	
652.92	5490.6	
653.11	7764.5	
653.29	7849.2	
653.48	4954.7	
653.67	6027.2	
653.85	7527.7	
654.04	8646.5	
654.23	6225.8	
654.42	5803.9	
654.6	6989	
654.79	7673.1	
654.98	5276.9	
655.16	5877	
655.35	6610.8	
655.54	6679.8	
655.73	5455.1	
655.91	5229.1	
656.1	7821.2	
656.29	6466.1	
656.47	4785.4	
656.66	6565.1	
656.85	6747.4	
657.03	6823.1	
657.22	5313.8	
657.41	5355.4	
657.59	6868.2	
657.78	6619.7	
657.97	4985.4	
658.16	5826.5	
658.34	7546.8	
658.53	7989.1	
658.72	6754.9	
658.9	7295.5	
659.09	6960.4	
659.28	7080.5	
659.46	5566.4	
659.65	5452.4	
659.84	6817.7	
660.02	7279.8	
660.21	5312.4	
660.4	5345.2	
660.58	7806.2	
660.77	7137.9	
660.96	5956.9	
661.14	5015.5	
661.33	8368.7	
661.52	8265.6	
661.7	4898.7	
661.89	8796	
662.08	6740.5	
662.26	6331	
662.45	5182.7	
662.64	5347.2	
662.82	7437.5	
663.01	6643.6	
663.2	5387.5	
663.38	6142.5	
663.57	7367.9	
663.75	7247.8	
663.94	5668.1	
664.13	6972	
664.31	6659.3	
664.5	7446.4	
664.69	6170.5	
664.87	6540.5	
665.06	6432	
665.25	7234.8	
665.43	6751.5	
665.62	6819.1	
665.8	7582.9	
665.99	6857.3	
666.18	5681.7	
666.36	5816.2	
666.55	7520.1	
666.74	7403.4	
666.92	5300.8	
667.11	6999.3	
667.29	6862.1	
667.48	7490.8	
667.67	6580.1	
667.85	5744.6	
668.04	6881.2	
668.22	6861.4	
668.41	5731.6	
668.6	5881.1	
668.78	6620.4	
668.97	6893.5	
669.15	6177.4	
669.34	5059.8	
669.53	6689.3	
669.71	7023.9	
669.9	5215.5	
670.08	5970.5	
670.27	6599.9	
670.46	7216.4	
670.64	6091.3	
670.83	6385.6	
671.01	6496.8	
671.2	7283.9	
671.38	5259.2	
671.57	5167	
671.76	7801.4	
671.94	8430.8	
672.13	5129.5	
672.31	6287.9	
672.5	7374.1	
672.69	6578.1	
672.87	5344.5	
673.06	5604.6	
673.24	7179.5	
673.43	6732.4	
673.61	6094.1	
673.8	5582.8	
673.98	7466.2	
674.17	7603.4	
674.36	6206.7	
674.54	6090.7	
674.73	7202	
674.91	7357.7	
675.1	5780.1	
675.28	5328.8	
675.47	6918.7	
675.65	7503.1	
675.84	5629.9	
676.03	5900.9	
676.21	6660	
676.4	6135	
676.58	6461.3	
676.77	6158.9	
676.95	8220.5	
677.14	6683.2	
677.32	5300.1	
677.51	5044.8	
677.69	7445	
677.88	6225.1	
678.06	5104.9	
678.25	5245.5	
678.44	6968.6	
678.62	6665.5	
678.81	4924.7	
678.99	6004.6	
679.18	7815.7	
679.36	7320.8	
679.55	5525.4	
679.73	6147.3	
679.92	7249.1	
680.1	6634.7	
680.29	6873.7	
680.47	5572.5	
680.66	6584.9	
680.84	7445	
681.03	4807.3	
681.21	6008.1	
681.4	6664.8	
681.58	6589.7	
681.77	5287.9	
681.95	5245.5	
682.14	7545.4	
682.32	7871	
682.51	6202.6	
682.69	5071.5	
682.88	6535.8	
683.06	7299	
683.25	5951.4	
683.43	6395.1	
683.62	6813.6	
683.8	7292.1	
683.99	6509.1	
684.17	5780.1	
684.36	8247.9	
684.54	6855.9	
684.73	5039.4	
684.91	5203.9	
685.1	7222.5	
685.28	6645.7	
685.46	5767.1	
685.65	5947.3	
685.83	7486.7	
686.02	6906.4	
686.2	5315.2	
686.39	5367	
686.57	6597.9	
686.76	8061.5	
686.94	5240.8	
687.13	5442.1	
687.31	7295.5	
687.5	6789.7	
687.68	4815.5	
687.86	6248.4	
688.05	8637	
688.23	6249	
688.42	6238.1	
688.6	5302.2	
688.79	6587.6	
688.97	6633.4	
689.16	5749.3	
689.34	4603.2	
689.52	7490.8	
689.71	7622.5	
689.89	6031.3	
690.08	5273.5	
690.26	6898.2	
690.45	6711.9	
690.63	6238.8	
690.81	5431.2	
691	6666.8	
691.18	6541.9	
691.37	5679.7	
691.55	7927.7	
691.74	6550.8	
691.92	8663.6	
692.1	5704.3	
692.29	4947.9	
692.47	6786.3	
692.66	6012.2	
692.84	5255.1	
693.02	5808	
693.21	6122.7	
693.39	6704.4	
693.58	5896.8	
693.76	5315.2	
693.94	7979.6	
694.13	7643.7	
694.31	5213.4	
694.5	6308.4	
694.68	6500.9	
694.86	6761.7	
695.05	5642.8	
695.23	5735	
695.42	7225.9	
695.6	9714.9	
695.78	6240.2	
695.97	5365	
696.15	7249.1	
696.34	6739.9	
696.52	5054.4	
696.7	5969.8	
696.89	6968.6	
697.07	6406	
697.25	5925.5	
697.44	7570	
697.62	6935.1	
697.81	7425.9	
697.99	5569.1	
698.17	6082.5	
698.36	6281.8	
698.54	7027.3	
698.72	5919.3	
698.91	4862.6	
699.09	6569.2	
699.28	6384.2	
699.46	5510.4	
699.64	5453.7	
699.83	6336.4	
700.01	7748.1	
700.19	6223.1	
700.38	4653	
700.56	7574.8	
700.74	6425.2	
700.93	4969.7	
701.11	5887.2	
701.29	7044.3	
701.48	8099.7	
701.66	5203.9	
701.84	5246.9	
702.03	6498.9	
702.21	7196.6	
702.39	4833.2	
702.58	5407.3	
702.76	7025.9	
702.94	7124.9	
703.13	4784.1	
703.31	7368.6	
703.49	6326.9	
703.68	7440.3	
703.86	4997.7	
704.04	6057.9	
704.23	6810.2	
704.41	7210.2	
704.59	5200.5	
704.78	6494.8	
704.96	7912.7	
705.14	7303.1	
705.33	4866	
705.51	5797.8	
705.69	6656.6	
705.87	7485.3	
706.06	6057.9	
706.24	4859.8	
706.42	6901.7	
706.61	7213.6	
706.79	6107.7	
706.97	4815.5	
707.16	6296.8	
707.34	6955.6	
707.52	6090.7	
707.7	5162.9	
707.89	6488	
708.07	6166.4	
708.25	6044.2	
708.44	6132.3	
708.62	6433.4	
708.8	7619.1	
708.98	6325.5	
709.17	5202.5	
709.35	6802	
709.53	6924.9	
709.72	4872.1	
709.9	5098.8	
710.08	7155.6	
710.26	7155.6	
710.45	6649.1	
710.63	5217.5	
710.81	6813.6	
710.99	6826.6	
711.18	5810.1	
711.36	5418.2	
711.54	6594.5	
711.72	7473	
711.91	5483.1	
712.09	4887.8	
712.27	6804	
712.45	7477.1	
712.64	5871.5	
712.82	4678.2	
713	6242.2	
713.18	6461.3	
713.37	4894	
713.55	6167.8	
713.73	7462.1	
713.91	5926.1	
714.1	5314.5	
714.28	4866.7	
714.46	7114	
714.64	6278.4	
714.83	4290.5	
715.01	5215.5	
715.19	6380.1	
715.37	5802.6	
715.55	4882.4	
715.74	5205.3	
715.92	7380.9	
716.1	5265.3	
716.28	6417.7	
716.47	5358.9	
716.65	5989.6	
716.83	6132.3	
717.01	5219.6	
717.19	5319.9	
717.38	8315.4	
717.56	5725.4	
717.74	5472.2	
717.92	4584	
718.1	7036.1	
718.29	6190.3	
718.47	4062.5	
718.65	4789.5	
718.83	6839.5	
719.01	6737.1	
719.2	3937.6	
719.38	5106.3	
719.56	6470.9	
719.74	8204.2	
719.92	4620.2	
720.11	5758.9	
720.29	6549.4	
720.47	5552.7	
720.65	4248.2	
720.83	5151.3	
721.02	6098.2	
721.2	5784.1	
721.38	5283.8	
721.56	4474.1	
721.74	5250.3	
721.92	5537.7	
722.11	5791.7	
722.29	5450.3	
722.47	6812.2	
722.65	5982.1	
722.83	4481.6	
723.01	5533.6	
723.2	5995.1	
723.38	6300.9	
723.56	3851.5	
723.74	5152	
723.92	5488.6	
724.1	6815	
724.29	4427.7	
724.47	5550	
724.65	5496.1	
724.83	5455.1	
725.01	4280.9	
725.19	5204.6	
725.37	5563	
725.56	5719.3	
725.74	4090.5	
725.92	4362.9	
726.1	5442.8	
726.28	5756.2	
726.46	4894	
726.64	4532.8	
726.83	5741.1	
727.01	6012.2	
727.19	4112.3	
727.37	4990.2	
727.55	5870.8	
727.73	6464.1	
727.91	4048.2	
728.09	3915	
728.28	6503	
728.46	7133.8	
728.64	5171.1	
728.82	5020.3	
729	7574.8	
729.18	6756.2	
729.36	4194.2	
729.54	6711.2	
729.72	7790.5	
729.91	6010.1	
730.09	6260.6	
730.27	4838.7	
730.45	5860.6	
730.63	6561	
730.81	5488.6	
730.99	4503.5	
731.17	7085.3	
731.35	5574.6	
731.53	5079.6	
731.71	4515.1	
731.9	6829.3	
732.08	7089.4	
732.26	4947.2	
732.44	4549.9	
732.62	7100.3	
732.8	6533.7	
732.98	5312.4	
733.16	4341.7	
733.34	6515.3	
733.52	5261.2	
733.7	4844.8	
733.88	5180.7	
734.07	6350.1	
734.25	6112.5	
734.43	4302.8	
734.61	6005.3	
734.79	7646.4	
734.97	5893.4	
735.15	4491.2	
735.33	4799.1	
735.51	6320.7	
735.69	5941.8	
735.87	6066.1	
736.05	5076.9	
736.23	6153.5	
736.41	5955.5	
736.59	4840.7	
736.77	4985.4	
736.95	6606.7	
737.13	6078.4	
737.32	4476.2	
737.5	4743.8	
737.68	7180.2	
737.86	5829.2	
738.04	4243.4	
738.22	6307.1	
738.4	5698.1	
738.58	5941.2	
738.76	4965.6	
738.94	3846.8	
739.12	5826.5	
739.3	5669.5	
739.48	5612.8	
739.66	5309	
739.84	6120	
740.02	6109.8	
740.2	3915.7	
740.38	4345.1	
740.56	6485.9	
740.74	5378.6	
740.92	5066	
741.1	4934.2	
741.28	5969.1	
741.46	5760.3	
741.64	4580.6	
741.82	5160.2	
742	6012.2	
742.18	5949.3	
742.36	4781.3	
742.54	4306.9	
742.72	6559	
742.9	5216.9	
743.08	5233.9	
743.26	3973.7	
743.44	6827.2	
743.62	6640.2	
743.8	5441.5	
743.98	4385.4	
744.16	6391.7	
744.34	5978	
744.52	5302.9	
744.7	5236	
744.88	6533	
745.06	5985.5	
745.24	5345.9	
745.42	5507.7	
745.6	6585.6	
745.78	6328.9	
745.96	4111	
746.14	4459.8	
746.32	7329	
746.5	6610.2	
746.68	5094.7	
746.86	4530.1	
747.03	7109.9	
747.21	5266	
747.39	5099.4	
747.57	4586.8	
747.75	6182.8	
747.93	6647.7	
748.11	4574.5	
748.29	4428.4	
748.47	7884.7	
748.65	5904.3	
748.83	5307.7	
749.01	4904.2	
749.19	6428.6	
749.37	5585.5	
749.55	4837.3	
749.73	4959.5	
749.91	6031.3	
750.09	5769.1	
750.26	4983.4	
750.44	4379.9	
750.62	6096.8	
750.8	6066.8	
750.98	4196.3	
751.16	4536.9	
751.34	6145.3	
751.52	5445.5	
751.7	5459.9	
751.88	4169	
752.06	6655.2	
752.24	6438.8	
752.42	4149.2	
752.59	4534.2	
752.77	6006	
752.95	7416.4	
753.13	5267.4	
753.31	4704.2	
753.49	5741.8	
753.67	6169.8	
753.85	4981.3	
754.03	4535.6	
754.21	6530.3	
754.38	6930.3	
754.56	4713.1	
754.74	3723.2	
754.92	5763.7	
755.1	6575.3	
755.28	3864.5	
755.46	3920.5	
755.64	7413	
755.82	7604.1	
755.99	4324.6	
756.17	4371.7	
756.35	4971.1	
756.53	6759.7	
756.71	3334.1	
756.89	4222.9	
757.07	6255.2	
757.25	5245.5	
757.42	4814.1	
757.6	5733.6	
757.78	6228.6	
757.96	5063.3	
758.14	4502.8	
758.32	3907.5	
758.5	4681	
758.67	5591	
758.85	4275.5	
759.03	4443.4	
759.21	5876.3	
759.39	5213.4	
759.57	3849.5	
759.75	5040.1	
759.92	6483.2	
760.1	5644.2	
760.28	5431.9	
760.46	5738.4	
760.64	5399.8	
760.82	5136.3	
760.99	5229.1	
761.17	4280.9	
761.35	6251.1	
761.53	5169.1	
761.71	4446.8	
761.89	5188.9	
762.06	6100.2	
762.24	5543.2	
762.42	4517.8	
762.6	4260.5	
762.78	5527.5	
762.96	6273.6	
763.13	4873.5	
763.31	4632.5	
763.49	6438.8	
763.67	5442.1	
763.85	5435.3	
764.02	6051.1	
764.2	6686.6	
764.38	5859.9	
764.56	4449.6	
764.74	5488.6	
764.91	6840.2	
765.09	5670.1	
765.27	4078.2	
765.45	3852.2	
765.63	6876.4	
765.8	6692.8	
765.98	3586	
766.16	3969	
766.34	5239.4	
766.52	5033.9	
766.69	4942.4	
766.87	3810.6	
767.05	5631.2	
767.23	6636.1	
767.41	4242	
767.58	4394.3	
767.76	6252.4	
767.94	6355.5	
768.12	4265.2	
768.29	5048.9	
768.47	5778	
768.65	6580.1	
768.83	3908.9	
769	5128.8	
769.18	5332.2	
769.36	5986.9	
769.54	5124.7	
769.72	3928.7	
769.89	6353.5	
770.07	6498.9	
770.25	4276.8	
770.43	5632.6	
770.6	7188.4	
770.78	7613	
770.96	4478.2	
771.14	4430.4	
771.31	6219	
771.49	5585.5	
771.67	3579.2	
771.85	3882.9	
772.02	4839.4	
772.2	5612.8	
772.38	4653	
772.55	4151.2	
772.73	5914.5	
772.91	5709.7	
773.09	4532.2	
773.26	4633.2	
773.44	5912.5	
773.62	5531.6	
773.8	4004.5	
773.97	3782.6	
774.15	5983.5	
774.33	5516.5	
774.5	3891.1	
774.68	4352.6	
774.86	6121.4	
775.04	5567.7	
775.21	4029	
775.39	4007.2	
775.57	5864	
775.74	6322.8	
775.92	3885	
776.1	3760.8	
776.27	5820.3	
776.45	7124.9	
776.63	4067.9	
776.81	3556	
776.98	5453.7	
777.16	6687.3	
777.34	4174.4	
777.51	4122.6	
777.69	5451	
777.87	5228.5	
778.04	4208.6	
778.22	4920.6	
778.4	5278.3	
778.57	5940.5	
778.75	3469.9	
778.93	3768.9	
779.1	5019.6	
779.28	4945.8	
779.46	3532.1	
779.64	4003.1	
779.81	6180.8	
779.99	7122.2	
780.17	4898.7	
780.34	5036.6	
780.52	5603.2	
780.69	5837.4	
780.87	4367	
781.05	3921.2	
781.22	5623	
781.4	5690.6	
781.58	4104.1	
781.75	3183.2	
781.93	5644.2	
782.11	5065.3	
782.28	5083.1	
782.46	4075.5	
782.64	4866.7	
782.81	5877.7	
782.99	4217.5	
783.17	4143	
783.34	5813.5	
783.52	4995.7	
783.69	4380.6	
783.87	5236	
784.05	5070.1	
784.22	5045.5	
784.4	5301.5	
784.58	4487.8	
784.75	6068.1	
784.93	5099.4	
785.1	4132.1	
785.28	4808.6	
785.46	5790.3	
785.63	5081	
785.81	4044.7	
785.99	3939.6	
786.16	5257.8	
786.34	5629.2	
786.51	3975.1	
786.69	4383.3	
786.87	4802.5	
787.04	5332.9	
787.22	3865.2	
787.39	4855.1	
787.57	5102.2	
787.75	6214.2	
787.92	5040.7	
788.1	4961.5	
788.27	5140.4	
788.45	4906.3	
788.63	4709.6	
788.8	3347.7	
788.98	5669.5	
789.15	4787.5	
789.33	3439.9	
789.5	4108.2	
789.68	6071.5	
789.86	6200.6	
790.03	4627	
790.21	4027.7	
790.38	6019.7	
790.56	5244.2	
790.73	3888.4	
790.91	3903.4	
791.09	5154.7	
791.26	5925.5	
791.44	4185.4	
791.61	3535.5	
791.79	5076.2	
791.96	5201.8	
792.14	3608.5	
792.32	3170.3	
792.49	5110.4	
792.67	5251.7	
792.84	3773.7	
793.02	3573.7	
793.19	5610.8	
793.37	6419.7	
793.54	3207.8	
793.72	3587.4	
793.89	6541.9	
794.07	5126.7	
794.25	4298.7	
794.42	3342.3	
794.6	6290.7	
794.77	5832.6	
794.95	4554	
795.12	3981.9	
795.3	5085.8	
795.47	5788.9	
795.65	4446.1	
795.82	4257	
796	4889.9	
796.17	6980.2	
796.35	4128	
796.52	4834.6	
796.7	5698.1	
796.87	5790.3	
797.05	5025.7	
797.22	4965	
797.4	5760.9	
797.57	6857.3	
797.75	4227.7	
797.92	3930.1	
798.1	6081.1	
798.27	5120.6	
798.45	3381.2	
798.62	3677.5	
798.8	5464	
798.97	6010.1	
799.15	4459.1	
799.32	4185.4	
799.5	4663.2	
799.67	5534.3	
799.85	4635.2	
800.02	3320.4	
800.2	5063.3	
800.37	5444.2	
800.55	4792.9	
800.72	3964.2	
800.9	5879	
801.07	6444.3	
801.25	5410.1	
801.42	4324.6	
801.6	5997.1	
801.77	5707	
801.95	4037.9	
802.12	3837.9	
802.29	5607.3	
802.47	5640.8	
802.64	4332.8	
802.82	3237.2	
802.99	5059.8	
803.17	6157.6	
803.34	4248.2	
803.52	3824.9	
803.69	6823.8	
803.87	4833.2	
804.04	4195.6	
804.21	4297.3	
804.39	6281.1	
804.56	5352	
804.74	3575.8	
804.91	4407.2	
805.09	5132.9	
805.26	5261.9	
805.44	3606.5	
805.61	4048.2	
805.78	5818.3	
805.96	5857.9	
806.13	4401.1	
806.31	4792.2	
806.48	4655.7	
806.66	5284.4	
806.83	4362.9	
807	4284.4	
807.18	5102.9	
807.35	5564.3	
807.53	4257	
807.7	3374.4	
807.87	6376.7	
808.05	5178.6	
808.22	4720.6	
808.4	3338.2	
808.57	5137	
808.74	4830.5	
808.92	3941	
809.09	4995.7	
809.27	5026.4	
809.44	5756.8	
809.61	3425.6	
809.79	3853.6	
809.96	6321.4	
810.14	6024.4	
810.31	3327.3	
810.48	4050.9	
810.66	5272.8	
810.83	6090.7	
811.01	3909.6	
811.18	4387.4	
811.35	6001.9	
811.53	4606.6	
811.7	4752	
811.87	4408.6	
812.05	5167	
812.22	5085.8	
812.39	3790.1	
812.57	3669.3	
812.74	5171.8	
812.92	6983.6	
813.09	4086.4	
813.26	4527.4	
813.44	6716	
813.61	5145.2	
813.78	3398.9	
813.96	4622.9	
814.13	5227.1	
814.3	4813.4	
814.48	4976.6	
814.65	4085.7	
814.82	6507.8	
815	4960.9	
815.17	4249.5	
815.34	5125.4	
815.52	5091.9	
815.69	5108.3	
815.87	4208.6	
816.04	3597.6	
816.21	5258.5	
816.38	4548.5	
816.56	4046.8	
816.73	3727.3	
816.9	6585.6	
817.08	6044.9	
817.25	3791.5	
817.42	4827.1	
817.6	4705.5	
817.77	5186.8	
817.94	4355.3	
818.12	3724.6	
818.29	4892.6	
818.46	7856	
818.64	3958.7	
818.81	3682.9	
818.98	4798.4	
819.16	7228.6	
819.33	4537.6	
819.5	4231.1	
819.67	5588.9	
819.85	6232	
820.02	4149.2	
820.19	4393.6	
820.37	5436.7	
820.54	4945.2	
820.71	4311.7	
820.88	5378	
821.06	5423.7	
821.23	4965.6	
821.4	4346.5	
821.58	4264.6	
821.75	5904.3	
821.92	5378.6	
822.09	3416	
822.27	3588	
822.44	5184.1	
822.61	5102.9	
822.79	3519.1	
822.96	6666.1	
823.13	5708.4	
823.3	4932.9	
823.48	3987.4	
823.65	3579.2	
823.82	5917.3	
823.99	4689.2	
824.17	5050.3	
824.34	3684.3	
824.51	6881.2	
824.68	5246.2	
824.86	3775.8	
825.03	4336.9	
825.2	5216.9	
825.37	6349.4	
825.55	3777.8	
825.72	4201.1	
825.89	7002	
826.06	6458.6	
826.24	4123.9	
826.41	4141.7	
826.58	6311.2	
826.75	5554.1	
826.92	3218.7	
827.1	3580.5	
827.27	8791.9	
827.44	6924.2	
827.61	3872.7	
827.79	4839.4	
827.96	4924	
828.13	5344.5	
828.3	4047.5	
828.47	3428.3	
828.65	5410.1	
828.82	5421	
828.99	5400.5	
829.16	4629.1	
829.34	5849	
829.51	5541.8	
829.68	4303.5	
829.85	4412	
830.02	6161	
830.2	5837.4	
830.37	3238.5	
830.54	5159.5	
830.71	6700.3	
830.88	5165.7	
831.05	3317.7	
831.23	3771	
831.4	6469.5	
831.57	7191.8	
831.74	3874.8	
831.91	3466.5	
832.09	5396.4	
832.26	5812.8	
832.43	4093.9	
832.6	4573.8	
832.77	5444.9	
832.94	6303	
833.12	3255.6	
833.29	4005.8	
833.46	5499.5	
833.63	7475.8	
833.8	4396.3	
833.97	4100	
834.15	5864.7	
834.32	5591.6	
834.49	4281.6	
834.66	4373.8	
834.83	6094.1	
835	4898.7	
835.17	3904.8	
835.35	3910.3	
835.52	5680.4	
835.69	5632.6	
835.86	4158.1	
836.03	3398.3	
836.2	5769.8	
836.37	5403.9	
836.55	4111.6	
836.72	3824.9	
836.89	5380	
837.06	5960.3	
837.23	4130.1	
837.4	4540.3	
837.57	6696.9	
837.75	7387.7	
837.92	3711.6	
838.09	3893.2	
838.26	5298.8	
838.43	6124.1	
838.6	4285.7	
838.77	3822.9	
838.94	7089.4	
839.11	6721.4	
839.29	4041.3	
839.46	3204.4	
839.63	5803.9	
839.8	5541.8	
839.97	3996.3	
840.14	3919.8	
840.31	5557.5	
840.48	5843.5	
840.65	3267.9	
840.82	3901.4	
841	5873.6	
841.17	5702.2	
841.34	3670	
841.51	3702	
841.68	5717.2	
841.85	5458.5	
842.02	3798.3	
842.19	3031	
842.36	5549.3	
842.53	5502.2	
842.7	3638.6	
842.87	4464.6	
843.05	7373.4	
843.22	5474.9	
843.39	3381.9	
843.56	3706.8	
843.73	5263.3	
843.9	5900.2	
844.07	5900.9	
844.24	4933.6	
844.41	8604.2	
844.58	5073.5	
844.75	3504.8	
844.92	3844	
845.09	5792.3	
845.26	5780.7	
845.43	3612.6	
845.6	3712.3	
845.77	5823.7	
845.94	5512.4	
846.12	4007.2	
846.29	4271.4	
846.46	6025.1	
846.63	5801.9	
846.8	3637.9	
846.97	4262.5	
847.14	6300.2	
847.31	5772.5	
847.48	4127.3	
847.65	4472.1	
847.82	6160.3	
847.99	6102.9	
848.16	4814.8	
848.33	4497.3	
848.5	5356.1	
848.67	6323.4	
848.84	3533.4	
849.01	3755.3	
849.18	5204.6	
849.35	4854.4	
849.52	4558.8	
849.69	3543	
849.86	6055.8	
850.03	6322.1	
850.2	3632.4	
850.37	4426.3	
850.54	6204	
850.71	5477	
850.88	4326.7	
851.05	3581.9	
851.22	5677.7	
851.39	6390.3	
851.56	3362.8	
851.73	4172.4	
851.9	5083.1	
852.07	6035.4	
852.24	4037.2	
852.41	3604.4	
852.58	5646.2	
852.75	5134.3	
852.92	4056.3	
853.09	3504.1	
853.26	5345.9	
853.43	6275.7	
853.6	3543.7	
853.77	3048.1	
853.94	6382.2	
854.11	5724.8	
854.28	5431.9	
854.44	3911.6	
854.61	6825.9	
854.78	6139.1	
854.95	3594.9	
855.12	4595.6	
855.29	4626.4	
855.46	6517.3	
855.63	3560.7	
855.8	5079	
855.97	5365.7	
856.14	6128.9	
856.31	5126.7	
856.48	3938.2	
856.65	5311.1	
856.82	5030.5	
856.99	3410.6	
857.16	3900.7	
857.33	7068.2	
857.49	5472.2	
857.66	3902.1	
857.83	4185.4	
858	5378.6	
858.17	5627.8	
858.34	3395.5	
858.51	3542.3	
858.68	6543.9	
858.85	6517.3	
859.02	4225.6	
859.19	4486.4	
859.36	5044.1	
859.52	5165.7	
859.69	3621.5	
859.86	4261.8	
860.03	5143.1	
860.2	6390.3	
860.37	3213.3	
860.54	3668.6	
860.71	6036.7	
860.88	6503.7	
861.05	4062.5	
861.21	4540.3	
861.38	6494.8	
861.55	4943.8	
861.72	3301.3	
861.89	4038.6	
862.06	6112.5	
862.23	6699.6	
862.4	3481.5	
862.56	3801.7	
862.73	5928.9	
862.9	5626.5	
863.07	4265.2	
863.24	3269.2	
863.41	4972.5	
863.58	5065.3	
863.75	3669.3	
863.91	4213.4	
864.08	6469.5	
864.25	5942.5	
864.42	4592.9	
864.59	5112.4	
864.76	6798.6	
864.93	5120.6	
865.09	3503.4	
865.26	3887.7	
865.43	6312.5	
865.6	6755.6	
865.77	3111.5	
865.94	3551.9	
866.1	6429.9	
866.27	6106.4	
866.44	5511.1	
866.61	3409.2	
866.78	5507	
866.95	5937.1	
867.11	3467.2	
867.28	3141.6	
867.45	6139.1	
867.62	5130.2	
867.79	4167.6	
867.96	3596.2	
868.12	5119.2	
868.29	6059.9	
868.46	3566.9	
868.63	4857.1	
868.8	6265.4	
868.97	5996.5	
869.13	3733.4	
869.3	3773	
869.47	5896.8	
869.64	6167.8	
869.81	3620.1	
869.97	3701.4	
870.14	5814.2	
870.31	6573.3	
870.48	3494.5	
870.65	4616.1	
870.81	5416.2	
870.98	5345.9	
871.15	4123.2	
871.32	3744.4	
871.48	5871.5	
871.65	6598.6	
871.82	3545	
871.99	4002.4	
872.16	7075.7	
872.32	6464.1	
872.49	3595.6	
872.66	3652.9	
872.83	6049	
872.99	5219.6	
873.16	4201.1	
873.33	3564.1	
873.5	5669.5	
873.67	5715.9	
873.83	3777.1	
874	4868	
874.17	5783.5	
874.34	6970.6	
874.5	4717.8	
874.67	4515.1	
874.84	6511.2	
875.01	5101.5	
875.17	5176.6	
875.34	3583.3	
875.51	5784.8	
875.68	6987.7	
875.84	4389.5	
876.01	5287.9	
876.18	5971.2	
876.34	5971.2	
876.51	3648.1	
876.68	3518.4	
876.85	5494	
877.01	6371.2	
877.18	5243.5	
877.35	3611.3	
877.52	5620.3	
877.68	4989.5	
877.85	3518.4	
878.02	3580.5	
878.18	5646.9	
878.35	5291.3	
878.52	2881.5	
878.69	4003.1	
878.85	6072.9	
879.02	6040.8	
879.19	5158.8	
879.35	3912.3	
879.52	5996.5	
879.69	6223.1	
879.86	3104.7	
880.02	4071.4	
880.19	5488.6	
880.36	6939.9	
880.52	4171.7	
880.69	4295.3	
880.86	6147.3	
881.02	6173.9	
881.19	4037.2	
881.36	3981.3	
881.52	5966.4	
881.69	5291.3	
881.86	3903.4	
882.02	3862.5	
882.19	6321.4	
882.36	7440.3	
882.52	3689.1	
882.69	5112.4	
882.86	5772.5	
883.02	5714.5	
883.19	4352.6	
883.36	4131.4	
883.52	6116.6	
883.69	6990.4	
883.86	3644	
884.02	3242.6	
884.19	6075	
884.36	5599.1	
884.52	4089.8	
884.69	3841.3	
884.86	5317.2	
885.02	6724.8	
885.19	4035.2	
885.36	4090.5	
885.52	5656.5	
885.69	5773.2	
885.86	5343.2	
886.02	4659.8	
886.19	6085.9	
886.35	5540.4	
886.52	3977.8	
886.69	5118.6	
886.85	5113.1	
887.02	6465.4	
887.19	6465.4	
887.35	6465.4	
887.52	6465.4	
887.68	6465.4	
887.85	6465.4	
888.02	6465.4	
888.18	6465.4	
888.35	6465.4	
888.51	6465.4	
888.68	6465.4	
888.85	6465.4	
889.01	6465.4	
889.18	6465.4	
889.35	6465.4	
889.51	6465.4	
889.68	6465.4	
889.84	6465.4	
890.01	6465.4	
890.17	6465.4	
890.34	6465.4	
890.51	6465.4	
890.67	6465.4	
890.84	6465.4	
891	6465.4	
891.17	6465.4	
891.34	6465.4	
891.5	6465.4	
891.67	6465.4	
891.83	6465.4	
892	6465.4	
892.16	6465.4	
892.33	6465.4	
892.5	6465.4	
892.66	6465.4	
892.83	6465.4	
892.99	6465.4	
893.16	6465.4	
893.32	6465.4	
893.49	6465.4	
893.65	6465.4	
893.82	6465.4	
893.99	6465.4	
894.15	6465.4	
894.32	6465.4	
894.48	6465.4	
894.65	6465.4	
894.81	6465.4	
894.98	6465.4	
895.14	6465.4	
895.31	6465.4	
895.47	6465.4	
895.64	6465.4	
895.81	6465.4	
895.97	6465.4	
896.14	6465.4	
896.3	6465.4	
896.47	6465.4	
896.63	6465.4	
896.8	6465.4	
896.96	6465.4	
897.13	6465.4	
897.29	6465.4	
897.46	6465.4	
897.62	6465.4	
897.79	6465.4	
897.95	6465.4	
898.12	6465.4	
898.28	6465.4	
898.45	6465.4	
898.61	6465.4	
898.78	6465.4	
898.94	6465.4	
899.11	6465.4	
899.27	6465.4	
899.44	6465.4	
899.6	6465.4	
899.77	6465.4	
899.93	6465.4	
900.1	6465.4	
900.26	6465.4	
900.43	6465.4	
900.59	6465.4	
900.76	6465.4	
900.92	6465.4	
901.09	6465.4	
901.25	6465.4	
901.42	6465.4	
901.58	6465.4	
901.75	6465.4	
901.91	6465.4	
902.07	6465.4	
902.24	6465.4	
902.4	6465.4	
902.57	6465.4	
902.73	6465.4	
902.9	6465.4	
903.06	6465.4	
903.23	6465.4	
903.39	6465.4	
903.56	6465.4	
903.72	6465.4	
903.88	6465.4	
904.05	6465.4	
904.21	6465.4	
904.38	6465.4	
904.54	6465.4	
904.71	6465.4	
904.87	6465.4	
905.03	6465.4	
905.2	6465.4	
905.36	6465.4	
905.53	6465.4	
905.69	6465.4	
905.86	6465.4	
906.02	6465.4	
906.18	6465.4	
906.35	6465.4	
906.51	6465.4	
906.68	6465.4	
906.84	6465.4	
907.01	6465.4	
907.17	6465.4	
907.33	6465.4	
907.5	6465.4	
907.66	6465.4	
907.83	6465.4	
907.99	6465.4	
908.15	6465.4	
908.32	6465.4	
908.48	6465.4	
908.65	6465.4	
908.81	6465.4	
908.97	6465.4	
909.14	6465.4	
909.3	6465.4	
909.47	6465.4	
909.63	6465.4	
909.79	6465.4	
909.96	6465.4	
910.12	6465.4	
910.28	6465.4	
910.45	6465.4	
910.61	6465.4	
910.78	6465.4	
910.94	6465.4	
911.1	6465.4	
911.27	6465.4	
911.43	6465.4	
911.59	6465.4	
911.76	6465.4	
911.92	6465.4	
912.08	6465.4	
912.25	6465.4	
912.41	6465.4	
912.57	6465.4	
912.74	6465.4	
912.9	6465.4	
913.07	6465.4	
913.23	6465.4	
913.39	6465.4	
913.56	6465.4	
913.72	6465.4	
913.88	6465.4	
914.05	6465.4	
914.21	6465.4	
914.37	6465.4	
914.54	6465.4	
914.7	6465.4	
914.86	6465.4	
915.03	6465.4	
915.19	6465.4	
