Wavelength	Intensities	
nm	a.u.	
179.22	1718.1	
179.44	1721.3	
179.65	1714.8	
179.86	1727.8	
180.08	1768.8	
180.29	4229.7	
180.51	3168.2	
180.72	5152	
180.94	5890	
181.15	2878.8	
181.37	2837.1	
181.58	5013.4	
181.79	5259.2	
182.01	2990.7	
182.22	3173.7	
182.44	5221	
182.65	4478.9	
182.87	3900.7	
183.08	3479.5	
183.29	5533.6	
183.51	4572.4	
183.72	3130.7	
183.94	4518.5	
184.15	4910.3	
184.37	4872.1	
184.58	2867.2	
184.79	3771.7	
185.01	4620.9	
185.22	5269.4	
185.44	3969	
185.65	3380.5	
185.86	4893.3	
186.08	4547.9	
186.29	2788	
186.51	2935.4	
186.72	4684.4	
186.94	5377.3	
187.15	3435.1	
187.36	3506.8	
187.58	6761.7	
187.79	4974.5	
188.01	3606.5	
188.22	5496.1	
188.43	5986.9	
188.65	5261.2	
188.86	2996.9	
189.08	3508.9	
189.29	4767.7	
189.5	4715.1	
189.72	3196.9	
189.93	3330	
190.15	5341.8	
190.36	6233.3	
190.57	3559.4	
190.79	3442.6	
191	5459.2	
191.22	5435.3	
191.43	3594.9	
191.64	3014.6	
191.86	5588.9	
192.07	5384.1	
192.29	3177.1	
192.5	3270.6	
192.71	5444.2	
192.93	4761.5	
193.14	3197.6	
193.35	3287	
193.57	4708.3	
193.78	5390.9	
194	2663.7	
194.21	3134.1	
194.42	4625.7	
194.64	4935.6	
194.85	3472	
195.07	4024.3	
195.28	4944.5	
195.49	4340.3	
195.71	4215.4	
195.92	3065.8	
196.13	5088.5	
196.35	5160.2	
196.56	4446.8	
196.78	3549.8	
196.99	6270.9	
197.2	5825.1	
197.42	3920.5	
197.63	3516.4	
197.84	4453	
198.06	5081.7	
198.27	3253.5	
198.48	4176.5	
198.7	4695.3	
198.91	4899.4	
199.13	3515	
199.34	3467.9	
199.55	5367	
199.77	4282.3	
199.98	3109.5	
200.19	3538.2	
200.41	4845.5	
200.62	4607.9	
200.83	3674.1	
201.05	3955.3	
201.26	4835.9	
201.47	4654.4	
201.69	3172.3	
201.9	3061.7	
202.11	4915.8	
202.33	5736.4	
202.54	3294.5	
202.76	3705.5	
202.97	5025	
203.18	5019.6	
203.4	3639.9	
203.61	3618.8	
203.82	4947.9	
204.04	4645.5	
204.25	3526.6	
204.46	3427.6	
204.68	4945.2	
204.89	5139.7	
205.1	3453.6	
205.32	2982.5	
205.53	5275.6	
205.74	5362.3	
205.96	2639.8	
206.17	3611.3	
206.38	5235.3	
206.6	5346.6	
206.81	4024.3	
207.02	3289	
207.24	5162.2	
207.45	5431.9	
207.66	3367.5	
207.88	2919.7	
208.09	5061.2	
208.3	4973.2	
208.52	3095.2	
208.73	3408.5	
208.94	4907.6	
209.15	5509	
209.37	3364.8	
209.58	3788.7	
209.79	5356.8	
210.01	4801.1	
210.22	2762	
210.43	2892.4	
210.65	4867.3	
210.86	5283.1	
211.07	3332.7	
211.29	3059.7	
211.5	5218.9	
211.71	4862.6	
211.93	3075.4	
212.14	3145.7	
212.35	4907.6	
212.56	5072.1	
212.78	3505.4	
212.99	3018.7	
213.2	5708.4	
213.42	4803.2	
213.63	3237.2	
213.84	3386	
214.06	4483.7	
214.27	4476.9	
214.48	3346.4	
214.69	3536.8	
214.91	5445.5	
215.12	5535.7	
215.33	3596.9	
215.55	3809.2	
215.76	5964.4	
215.97	5215.5	
216.18	3485.6	
216.4	3412.6	
216.61	4655	
216.82	5314.5	
217.04	3168.2	
217.25	3254.2	
217.46	5416.2	
217.67	5282.4	
217.89	2835.8	
218.1	2910.2	
218.31	4966.3	
218.53	5089.2	
218.74	3255.6	
218.95	3195.5	
219.16	4839.4	
219.38	5745.9	
219.59	3195.5	
219.8	3692.5	
220.01	6086.6	
220.23	4955.4	
220.44	4032.5	
220.65	3093.1	
220.87	4999.8	
221.08	5469.4	
221.29	2918.4	
221.5	3754.6	
221.72	6551.5	
221.93	4648.2	
222.14	3543	
222.35	4110.3	
222.57	4926.7	
222.78	5320.6	
222.99	3360.7	
223.2	3586	
223.42	5140.4	
223.63	5350.7	
223.84	2664.4	
224.05	2596.8	
224.27	6182.1	
224.48	5702.9	
224.69	4133.5	
224.9	3512.9	
225.12	5089.9	
225.33	4912.4	
225.54	2900.6	
225.75	3140.9	
225.97	4576.5	
226.18	4857.8	
226.39	3365.5	
226.6	3158.7	
226.82	4721.3	
227.03	4587.4	
227.24	3503.4	
227.45	2975	
227.67	5296.7	
227.88	5653.1	
228.09	3941.7	
228.3	3873.4	
228.52	5273.5	
228.73	4869.4	
228.94	3297.9	
229.15	2904.7	
229.36	4878.3	
229.58	4894.6	
229.79	3269.2	
230	3799	
230.21	5834.7	
230.43	4994.3	
230.64	3481.5	
230.85	3623.5	
231.06	5336.3	
231.28	5230.5	
231.49	2923.8	
231.7	3433.1	
231.91	5231.2	
232.12	4943.1	
232.34	3033.7	
232.55	3399.6	
232.76	5403.9	
232.97	5100.8	
233.18	3151.8	
233.4	3459	
233.61	5111	
233.82	4745.8	
234.03	3277.4	
234.25	3173.7	
234.46	6592.4	
234.67	4926.7	
234.88	3608.5	
235.09	3181.2	
235.31	5151.3	
235.52	4871.4	
235.73	3484.3	
235.94	3007.8	
236.15	4726.7	
236.37	5867.4	
236.58	3164.1	
236.79	3353.2	
237	5179.3	
237.21	4498.7	
237.43	3578.5	
237.64	2852.8	
237.85	8413.7	
238.06	4575.8	
238.27	3674.1	
238.48	2985.9	
238.7	5279.7	
238.91	4816.1	
239.12	3386.7	
239.33	3400.3	
239.54	4665.3	
239.76	4825	
239.97	3384.6	
240.18	3332	
240.39	5955.5	
240.6	5134.3	
240.82	3497.9	
241.03	2949.1	
241.24	4914.4	
241.45	5587.5	
241.66	3113.6	
241.87	3668.6	
242.09	5524.7	
242.3	5793.7	
242.51	3637.2	
242.72	3380.5	
242.93	5309.7	
243.14	4909	
243.36	3893.2	
243.57	4143	
243.78	5639.4	
243.99	5221.6	
244.2	3381.2	
244.41	3127.2	
244.63	4578.6	
244.84	5139.7	
245.05	3594.9	
245.26	3407.1	
245.47	5147.9	
245.68	5317.2	
245.9	4326.7	
246.11	3574.4	
246.32	4777.2	
246.53	5141.1	
246.74	5340.4	
246.95	2856.2	
247.16	4592.9	
247.38	4944.5	
247.59	2886.3	
247.8	3430.3	
248.01	4662.5	
248.22	4896.7	
248.43	3087	
248.64	3321.8	
248.86	4468.7	
249.07	4753.3	
249.28	3028.9	
249.49	3493.2	
249.7	5421.7	
249.91	5427.8	
250.12	2862.4	
250.34	2927.9	
250.55	5037.3	
250.76	4928.8	
250.97	3500.7	
251.18	3576.4	
251.39	5479	
251.6	5046.2	
251.81	3567.6	
252.03	3547.8	
252.24	4760.8	
252.45	5287.2	
252.66	3015.3	
252.87	3670.6	
253.08	4947.9	
253.29	6279.8	
253.5	3016	
253.72	4086.4	
253.93	4827.1	
254.14	5771.2	
254.35	3229	
254.56	3327.3	
254.77	5098.8	
254.98	4621.6	
255.19	3226.2	
255.41	4073.4	
255.62	5106.3	
255.83	5468.1	
256.04	3572.3	
256.25	3566.2	
256.46	5885.9	
256.67	4707.6	
256.88	3459	
257.09	3863.8	
257.31	4600.4	
257.52	4645.5	
257.73	4338.3	
257.94	3259	
258.15	4869.4	
258.36	4928.8	
258.57	4059.1	
258.78	2628.9	
258.99	5352.7	
259.2	4830.5	
259.41	3198.9	
259.63	3323.9	
259.84	5616.2	
260.05	5918.6	
260.26	4166.3	
260.47	3218.7	
260.68	5390.9	
260.89	4839.4	
261.1	3854.3	
261.31	3151.1	
261.52	5498.8	
261.73	5704.3	
261.95	4130.8	
262.16	3610.6	
262.37	5503.6	
262.58	5541.1	
262.79	4105.5	
263	3312.9	
263.21	4923.3	
263.42	4770.4	
263.63	3368.2	
263.84	3251.5	
264.05	5350	
264.26	5684.5	
264.47	3971.7	
264.69	3634.5	
264.9	5566.4	
265.11	5076.9	
265.32	3148.4	
265.53	3244.7	
265.74	5023.7	
265.95	4463.9	
266.16	3452.9	
266.37	3798.3	
266.58	5072.8	
266.79	4759.5	
267	3201.7	
267.21	3009.1	
267.42	4560.1	
267.63	4926.7	
267.84	3413.3	
268.06	2938.2	
268.27	5318.6	
268.48	5461.2	
268.69	3294.5	
268.9	3828.3	
269.11	5480.4	
269.32	4466.6	
269.53	3414	
269.74	3182.5	
269.95	5205.9	
270.16	4380.6	
270.37	3386.7	
270.58	3898	
270.79	4827.7	
271	5335	
271.21	3601.7	
271.42	3399.6	
271.63	5087.2	
271.84	4605.9	
272.05	2773.6	
272.26	3057.6	
272.47	4960.9	
272.68	5096	
272.89	3326.6	
273.11	3751.9	
273.32	4777.2	
273.53	5694.7	
273.74	3652.9	
273.95	3566.2	
274.16	5412.1	
274.37	4951.3	
274.58	3703.4	
274.79	3009.1	
275	5067.4	
275.21	5498.8	
275.42	4357.4	
275.63	3794.2	
275.84	5169.1	
276.05	6279.1	
276.26	3543.7	
276.47	3339.6	
276.68	4833.2	
276.89	5764.3	
277.1	3777.1	
277.31	2986.6	
277.52	5143.1	
277.73	5344.5	
277.94	2938.2	
278.15	3250.1	
278.36	5089.9	
278.57	4614.1	
278.78	3243.3	
278.99	3659.7	
279.2	4691.9	
279.41	4659.8	
279.62	4197	
279.83	3047.4	
280.04	5984.2	
280.25	4530.1	
280.46	4185.4	
280.67	3402.4	
280.88	4607.2	
281.09	5515.9	
281.3	3526.6	
281.51	4403.1	
281.72	4704.2	
281.93	5358.9	
282.14	3213.9	
282.35	3481.5	
282.56	5369.8	
282.77	5299.5	
282.98	3285.6	
283.19	3923.2	
283.4	6356.2	
283.61	4900.8	
283.82	3052.2	
284.03	4141.7	
284.24	5068	
284.45	5406.6	
284.66	4207.2	
284.87	3966.2	
285.08	5484.5	
285.29	5558.9	
285.5	2893.1	
285.71	3334.8	
285.92	5454.4	
286.12	5984.2	
286.33	4119.1	
286.54	3330	
286.75	5345.2	
286.96	4831.2	
287.17	3071.3	
287.38	4044.7	
287.59	4695.3	
287.8	4620.2	
288.01	3335.5	
288.22	3750.5	
288.43	5328.1	
288.64	4490.5	
288.85	3930.1	
289.06	3727.3	
289.27	5377.3	
289.48	5686.5	
289.69	4192.2	
289.9	3785.3	
290.11	5492	
290.32	4754	
290.53	3917.8	
290.74	3637.2	
290.94	5304.9	
291.15	5339.1	
291.36	3206.4	
291.57	3705.5	
291.78	4734.2	
291.99	4426.3	
292.2	3118.4	
292.41	3663.1	
292.62	5354.8	
292.83	5203.9	
293.04	4388.8	
293.25	3151.8	
293.46	4775.2	
293.67	5447.6	
293.88	3187.3	
294.09	3124.5	
294.29	4611.3	
294.5	5001.1	
294.71	3424.2	
294.92	3259.7	
295.13	4768.4	
295.34	5871.5	
295.55	2922.5	
295.76	2837.1	
295.97	5317.2	
296.18	5885.2	
296.39	3012.6	
296.6	3216	
296.81	5010	
297.01	5285.8	
297.22	3363.4	
297.43	3221.5	
297.64	4714.4	
297.85	4630.5	
298.06	2680.1	
298.27	2872.6	
298.48	4939.7	
298.69	4719.9	
298.9	3419.4	
299.11	3160.7	
299.31	4556.7	
299.52	4578.6	
299.73	3717.1	
299.94	3576.4	
300.15	4952	
300.36	4663.2	
300.57	3599.6	
300.78	3568.9	
300.99	4784.1	
301.2	5019.6	
301.4	3218.7	
301.61	3425.6	
301.82	5221.6	
302.03	5384.1	
302.24	3799	
302.45	2995.5	
302.66	5245.5	
302.87	5499.5	
303.08	3200.3	
303.29	4233.2	
303.49	4795.7	
303.7	4941.7	
303.91	2874.7	
304.12	4028.4	
304.33	4559.5	
304.54	5007.3	
304.75	3198.2	
304.96	3079.5	
305.16	5167.7	
305.37	5853.8	
305.58	2865.1	
305.79	2945.7	
306	5218.2	
306.21	4413.4	
306.42	3153.9	
306.63	4703.5	
306.83	4849.6	
307.04	5295.4	
307.25	3489.7	
307.46	3451.5	
307.67	4308.2	
307.88	5240.8	
308.09	3186	
308.29	3278.1	
308.5	5041.4	
308.71	5412.8	
308.92	3403	
309.13	3103.4	
309.34	4846.9	
309.55	4858.5	
309.75	3919.8	
309.96	3599	
310.17	5309.7	
310.38	4644.8	
310.59	3715.7	
310.8	3052.8	
311.01	4805.9	
311.21	4877.6	
311.42	3061.7	
311.63	3170.3	
311.84	4745.1	
312.05	5031.2	
312.26	3575.1	
312.46	3854.3	
312.67	4768.4	
312.88	4536.9	
313.09	3106.1	
313.3	3028.3	
313.51	5568.4	
313.71	5857.2	
313.92	3095.8	
314.13	3216.7	
314.34	5100.8	
314.55	4881	
314.76	3895.9	
314.96	3378.5	
315.17	5063.3	
315.38	5199.1	
315.59	3110.2	
315.8	2983.9	
316.01	5643.5	
316.21	5671.5	
316.42	3001.6	
316.63	3444.7	
316.84	4850.3	
317.05	5491.3	
317.26	3590.1	
317.46	3274.7	
317.67	4908.3	
317.88	5274.9	
318.09	3857.7	
318.3	2894.5	
318.5	4743.8	
318.71	5174.5	
318.92	4855.7	
319.13	3690.4	
319.34	5365.7	
319.54	5487.9	
319.75	2951.1	
319.96	2820.7	
320.17	5198.4	
320.38	5414.8	
320.58	2814.6	
320.79	3415.3	
321	5386.8	
321.21	5485.8	
321.42	3442.6	
321.62	2895.1	
321.83	4661.9	
322.04	4986.8	
322.25	3254.9	
322.46	3134.1	
322.66	5003.9	
322.87	5193.6	
323.08	3763.5	
323.29	3026.9	
323.5	5841.5	
323.7	4562.9	
323.91	4098.7	
324.12	3729.4	
324.33	4990.9	
324.53	5237.3	
324.74	3564.1	
324.95	3775.8	
325.16	4498.7	
325.37	4824.3	
325.57	3093.1	
325.78	3170.9	
325.99	5058.5	
326.2	4515.1	
326.4	4388.8	
326.61	2863.1	
326.82	4902.2	
327.03	5036.6	
327.24	4348.5	
327.44	4020.2	
327.65	5193.6	
327.86	4296.6	
328.07	3634.5	
328.27	3018.7	
328.48	5491.3	
328.69	4631.8	
328.9	4359.4	
329.1	3265.8	
329.31	4880.3	
329.52	5591.6	
329.73	3127.2	
329.93	3402.4	
330.14	4980.7	
330.35	5114.5	
330.56	4982	
330.76	3797.6	
330.97	4751.3	
331.18	5051.7	
331.39	3415.3	
331.59	2849.4	
331.8	5442.8	
332.01	5502.9	
332.22	3195.5	
332.42	3587.4	
332.63	5025.7	
332.84	4640.7	
333.05	3449.5	
333.25	3142.9	
333.46	4742.4	
333.67	4902.8	
333.88	3292.5	
334.08	3559.4	
334.29	6335.7	
334.5	5447.6	
334.7	3018.7	
334.91	4305.5	
335.12	4604.5	
335.33	5247.6	
335.53	3430.3	
335.74	4863.9	
335.95	4758.1	
336.16	4603.8	
336.36	3366.2	
336.57	3886.4	
336.78	4550.6	
336.98	5378	
337.19	4149.9	
337.4	3386	
337.61	5888.6	
337.81	4554	
338.02	3205.8	
338.23	4039.3	
338.43	5583.4	
338.64	4691.2	
338.85	3088.3	
339.05	3991.5	
339.26	5649	
339.47	4483.7	
339.68	3099.3	
339.88	4502.8	
340.09	5193.6	
340.3	5384.8	
340.5	3558.7	
340.71	2841.9	
340.92	4564.9	
341.13	5474.9	
341.33	3052.2	
341.54	3604.4	
341.75	5097.4	
341.95	4846.2	
342.16	3465.8	
342.37	3775.8	
342.57	4614.1	
342.78	4878.9	
342.99	3794.2	
343.19	2835.8	
343.4	5298.8	
343.61	5128.1	
343.81	3275.4	
344.02	3072	
344.23	5250.3	
344.43	5557.5	
344.64	3813.3	
344.85	3735.5	
345.06	5184.8	
345.26	5401.2	
345.47	3573	
345.68	4071.4	
345.88	4414.1	
346.09	5326.1	
346.3	3657	
346.5	2783.2	
346.71	4887.1	
346.92	4726.7	
347.12	2907.4	
347.33	3537.5	
347.54	5459.9	
347.74	5685.2	
347.95	3518.4	
348.16	2692.4	
348.36	4751.3	
348.57	4646.8	
348.78	3575.8	
348.98	3781.2	
349.19	4894	
349.39	4457.7	
349.6	2876.7	
349.81	3183.2	
350.01	5149.3	
350.22	4693.3	
350.43	3471.3	
350.63	4077.5	
350.84	4980.7	
351.05	4715.8	
351.25	3119.7	
351.46	2856.9	
351.67	5402.5	
351.87	4655.7	
352.08	3341.6	
352.29	3788.1	
352.49	5328.1	
352.7	5054.4	
352.9	3014.6	
353.11	3721.8	
353.32	5892.7	
353.52	4799.1	
353.73	3047.4	
353.94	3786	
354.14	5174.5	
354.35	4943.8	
354.55	3132	
354.76	3460.4	
354.97	5170.4	
355.17	4919.9	
355.38	2950.4	
355.59	4009.9	
355.79	4639.3	
356	4925.4	
356.2	3381.2	
356.41	3028.9	
356.62	4493.9	
356.82	4846.2	
357.03	3609.9	
357.24	3242.6	
357.44	4679.6	
357.65	4730.8	
357.85	4280.3	
358.06	3440.6	
358.27	4434.5	
358.47	4592.2	
358.68	2903.3	
358.88	3596.2	
359.09	5099.4	
359.3	5369.8	
359.5	4203.1	
359.71	3738.2	
359.91	5769.8	
360.12	5175.2	
360.33	3601	
360.53	3995.6	
360.74	4616.1	
360.94	4698.7	
361.15	3784	
361.36	3169.6	
361.56	5343.8	
361.77	4856.4	
361.97	4163.5	
362.18	3317.7	
362.38	5296.7	
362.59	4564.2	
362.8	3057.6	
363	2976.4	
363.21	4319.8	
363.41	4884.4	
363.62	3504.1	
363.83	4319.8	
364.03	5027.1	
364.24	5752.1	
364.44	4432.5	
364.65	4367.6	
364.85	4807.3	
365.06	4574.5	
365.27	3299.3	
365.47	3261	
365.68	5614.2	
365.88	4820.9	
366.09	3519.1	
366.29	3254.2	
366.5	5007.3	
366.71	5304.9	
366.91	4307.6	
367.12	3732.8	
367.32	5812.8	
367.53	5195.7	
367.73	3674.1	
367.94	4407.9	
368.14	5203.2	
368.35	5886.5	
368.56	3518.4	
368.76	3155.2	
368.97	5293.3	
369.17	6550.8	
369.38	3234.4	
369.58	3431.7	
369.79	4491.2	
369.99	5566.4	
370.2	4239.3	
370.4	3526.6	
370.61	5036.6	
370.82	5976.7	
371.02	3443.3	
371.23	2853.5	
371.43	4477.5	
371.64	5545.9	
371.84	3466.5	
372.05	4393.6	
372.25	6488	
372.46	5253.7	
372.66	3390.8	
372.87	3384.6	
373.07	5247.6	
373.28	6613.6	
373.48	4213.4	
373.69	4012	
373.9	4897.4	
374.1	4878.3	
374.31	4150.6	
374.51	3790.1	
374.72	5528.8	
374.92	4669.4	
375.13	4298.7	
375.33	3654.9	
375.54	5196.4	
375.74	4754.7	
375.95	3766.9	
376.15	4726	
376.36	5159.5	
376.56	5113.8	
376.77	3745.7	
376.97	4097.3	
377.18	6065.4	
377.38	5279	
377.59	4378.6	
377.79	3340.9	
378	5078.3	
378.2	5421	
378.41	3450.1	
378.61	3324.5	
378.82	5502.9	
379.02	4765.6	
379.23	3585.3	
379.43	4418.8	
379.64	5622.4	
379.84	5221.6	
380.05	3437.9	
380.25	3294.5	
380.46	5332.9	
380.66	5029.8	
380.87	4430.4	
381.07	4818.2	
381.28	5782.1	
381.48	5257.1	
381.69	3439.9	
381.89	3479.5	
382.1	4511.7	
382.3	5392.3	
382.51	4302.1	
382.71	5029.1	
382.91	5296.7	
383.12	5707	
383.32	3758	
383.53	3882.3	
383.73	5242.1	
383.94	5094	
384.14	3909.6	
384.35	3164.1	
384.55	4999.8	
384.76	5293.3	
384.96	3771.7	
385.17	4010.6	
385.37	5355.4	
385.58	4724	
385.78	3937.6	
385.98	3084.9	
386.19	4891.9	
386.39	5206.6	
386.6	3515	
386.8	3764.8	
387.01	5304.2	
387.21	5367	
387.42	4071.4	
387.62	4514.4	
387.83	4809.3	
388.03	5240.8	
388.23	3738.2	
388.44	4379.9	
388.64	4575.8	
388.85	4614.1	
389.05	4074.8	
389.26	4489.1	
389.46	6212.2	
389.67	5735.7	
389.87	4020.2	
390.07	4094.6	
390.28	5058.5	
390.48	4706.9	
390.69	3401	
390.89	3691.8	
391.1	4850.3	
391.3	5545.2	
391.5	4562.2	
391.71	5109	
391.91	5427.8	
392.12	6130.3	
392.32	4730.1	
392.53	4020.8	
392.73	4942.4	
392.93	4997.7	
393.14	3853.6	
393.34	4467.3	
393.55	5523.4	
393.75	4952	
393.95	3824.9	
394.16	3750.5	
394.36	4915.1	
394.57	5400.5	
394.77	3373	
394.98	3734.8	
395.18	4807.3	
395.38	4914.4	
395.59	4409.3	
395.79	3538.2	
396	4941.1	
396.2	5335.6	
396.4	4283	
396.61	4177.2	
396.81	5455.1	
397.02	4865.3	
397.22	4430.4	
397.42	4423.6	
397.63	5491.3	
397.83	4820.2	
398.04	3527.3	
398.24	3930.7	
398.44	5319.3	
398.65	4532.8	
398.85	3377.1	
399.05	3495.2	
399.26	4866.7	
399.46	6266.1	
399.67	3835.8	
399.87	3607.2	
400.07	5130.2	
400.28	5351.3	
400.48	3610.6	
400.69	4475.5	
400.89	5517.9	
401.09	5921.4	
401.3	3525.9	
401.5	4541	
401.7	6167.8	
401.91	6351.4	
402.11	3926.6	
402.32	4057	
402.52	5643.5	
402.72	5545.2	
402.93	4303.5	
403.13	3360	
403.33	6302.3	
403.54	5169.8	
403.74	4035.2	
403.94	4661.2	
404.15	5263.3	
404.35	6260	
404.56	3806.5	
404.76	5276.3	
404.96	5598.5	
405.17	5465.3	
405.37	5016.8	
405.57	4188.1	
405.78	5601.9	
405.98	5207.3	
406.18	3780.6	
406.39	4502.1	
406.59	5638.7	
406.79	5265.3	
407	3693.9	
407.2	3789.4	
407.4	5679	
407.61	5743.2	
407.81	3760.1	
408.01	5050.3	
408.22	4782	
408.42	6304.3	
408.62	4609.3	
408.83	4155.3	
409.03	5268.1	
409.23	5147.2	
409.44	4229.1	
409.64	4442.7	
409.84	6015.6	
410.05	5949.3	
410.25	4330.1	
410.45	4189.5	
410.66	5522	
410.86	7542	
411.06	4474.8	
411.27	4407.2	
411.47	7294.9	
411.67	5661.3	
411.88	4599.1	
412.08	4777.2	
412.28	6180.8	
412.49	6533.7	
412.69	4390.2	
412.89	4422.9	
413.09	6513.9	
413.3	6299.6	
413.5	4564.2	
413.7	4239.3	
413.91	5783.5	
414.11	6468.2	
414.31	4430.4	
414.52	4743.8	
414.72	6257.9	
414.92	6105.7	
415.12	4392.9	
415.33	4837.3	
415.53	6462.7	
415.73	6607.4	
415.94	5095.3	
416.14	4631.8	
416.34	5721.3	
416.55	5446.2	
416.75	5641.5	
416.95	5175.9	
417.15	6485.2	
417.36	7121.5	
417.56	5779.4	
417.76	5098.1	
417.97	6799.3	
418.17	6520.7	
418.37	4733.5	
418.57	4841.4	
418.78	6411.5	
418.98	6147.3	
419.18	5432.6	
419.38	5373.9	
419.59	6135.7	
419.79	5801.9	
419.99	4699.4	
420.2	4970.4	
420.4	6540.5	
420.6	6688.7	
420.8	4644.1	
421.01	4442.7	
421.21	6406.7	
421.41	6506.4	
421.61	4909.7	
421.82	4752.7	
422.02	6036	
422.22	6843.6	
422.42	5333.6	
422.63	5000.5	
422.83	6100.2	
423.03	7188.4	
423.23	5127.4	
423.44	4319.2	
423.64	6189.6	
423.84	6011.5	
424.04	4681.7	
424.25	4360.8	
424.45	6888.7	
424.65	6857.3	
424.85	4235.9	
425.06	4696.7	
425.26	6990.4	
425.46	6058.6	
425.66	5081.7	
425.87	4836.6	
426.07	6741.9	
426.27	6578.1	
426.47	5020.9	
426.67	4435.2	
426.88	7077.1	
427.08	6560.3	
427.28	5236	
427.48	4424.3	
427.69	5700.2	
427.89	6223.8	
428.09	5038	
428.29	4424.3	
428.5	6718	
428.7	6396.5	
428.9	4336.2	
429.1	4749.2	
429.3	6337.8	
429.51	6593.8	
429.71	4630.5	
429.91	5274.9	
430.11	6624.5	
430.31	6780.8	
430.52	4872.1	
430.72	5080.3	
430.92	7086.7	
431.12	6610.2	
431.32	4602.5	
431.53	4971.1	
431.73	5700.2	
431.93	7032.7	
432.13	4501.4	
432.33	4472.8	
432.54	6131.6	
432.74	6355.5	
432.94	4399.7	
433.14	5246.2	
433.34	6665.5	
433.55	6139.8	
433.75	5236	
433.95	6613.6	
434.15	6417.7	
434.35	6187.6	
434.56	4587.4	
434.76	4159.4	
434.96	6406	
435.16	6585.6	
435.36	4453	
435.56	5481	
435.77	6170.5	
435.97	6295.5	
436.17	5991.7	
436.37	5296.7	
436.57	6160.3	
436.78	6102.9	
436.98	6313.2	
437.18	5866.1	
437.38	6706.4	
437.58	6298.9	
437.78	6072.2	
437.99	4857.1	
438.19	6786.3	
438.39	7428	
438.59	4938.3	
438.79	4476.2	
438.99	7257.3	
439.2	6304.3	
439.4	4456.4	
439.6	4500.1	
439.8	6470.2	
440	7383.6	
440.2	5314.5	
440.4	5361.6	
440.61	6788.3	
440.81	7258	
441.01	4664.6	
441.21	5420.3	
441.41	7234.8	
441.61	6967.2	
441.81	5694	
442.02	6509.1	
442.22	7701.7	
442.42	7045	
442.62	4885.1	
442.82	4854.4	
443.02	7345.4	
443.22	6586.3	
443.43	5231.2	
443.63	4751.3	
443.83	6411.5	
444.03	6413.6	
444.23	5807.4	
444.43	5509.7	
444.63	6793.8	
444.83	7671.7	
445.04	5052.3	
445.24	6032.6	
445.44	7005.4	
445.64	7092.1	
445.84	5688.6	
446.04	5610.8	
446.24	6567.8	
446.44	7305.8	
446.65	4958.1	
446.85	5326.1	
447.05	6634.7	
447.25	7246.4	
447.45	5326.8	
447.65	4819.6	
447.85	6843.6	
448.05	6496.8	
448.25	5671.5	
448.46	5474.2	
448.66	6828.6	
448.86	6482.5	
449.06	4769	
449.26	5694	
449.46	7021.1	
449.66	6337.1	
449.86	5322	
450.06	5283.8	
450.26	6518.7	
450.47	6992.4	
450.67	5544.5	
450.87	5822.4	
451.07	7118.7	
451.27	6866.8	
451.47	4954	
451.67	5451.7	
451.87	6602.7	
452.07	7563.8	
452.27	5149.3	
452.47	5104.9	
452.67	6911.2	
452.88	7203.4	
453.08	4663.9	
453.28	6341.2	
453.48	7850.5	
453.68	6788.3	
453.88	5135.6	
454.08	5283.8	
454.28	7266.2	
454.48	6827.2	
454.68	5707.7	
454.88	6135.7	
455.08	7269.6	
455.28	6991.1	
455.48	4949.9	
455.68	5575.3	
455.89	7712.7	
456.09	7423.9	
456.29	5362.3	
456.49	5456.5	
456.69	7660.8	
456.89	6924.9	
457.09	5871.5	
457.29	6076.3	
457.49	7294.9	
457.69	7387.7	
457.89	5668.1	
458.09	5169.8	
458.29	7164.5	
458.49	7731.1	
458.69	6042.2	
458.89	5621.7	
459.09	7914.7	
459.29	7905.8	
459.49	5698.8	
459.69	6324.1	
459.9	7598	
460.1	7161.7	
460.3	5534.3	
460.5	5464.7	
460.7	7529	
460.9	7286	
461.1	5165.7	
461.3	6217.6	
461.5	8089.5	
461.7	7749.5	
461.9	5526.8	
462.1	5874.3	
462.3	7477.1	
462.5	7810.3	
462.7	5681.1	
462.9	5718.6	
463.1	8729.8	
463.3	8462.2	
463.5	5874.9	
463.7	6606.7	
463.9	7624.6	
464.1	7920.2	
464.3	6059.9	
464.5	6246.3	
464.7	8170	
464.9	7922.9	
465.1	7271.7	
465.3	6584.9	
465.5	8462.9	
465.7	8488.1	
465.9	6767.9	
466.1	6597.2	
466.3	8333.9	
466.5	8172.1	
466.7	7372.7	
466.9	6461.3	
467.1	8126.3	
467.3	8922.3	
467.5	7366.5	
467.7	6474.3	
467.9	9147.6	
468.1	9774.3	
468.3	6974.7	
468.5	7478.5	
468.7	8152.3	
468.9	8159.8	
469.1	6759.7	
469.3	7271.7	
469.5	9802.9	
469.7	7901.1	
469.9	7154.9	
470.1	6584.2	
470.3	8251.3	
470.5	8242.4	
470.7	7698.3	
470.9	6640.2	
471.1	8054	
471.3	8434.2	
471.5	6601.3	
471.69	8042.4	
471.89	8059.4	
472.09	7664.2	
472.29	7146.7	
472.49	7378.1	
472.69	7833.5	
472.89	8452.6	
473.09	6477	
473.29	6560.3	
473.49	8021.2	
473.69	8081.3	
473.89	7323.5	
474.09	6650.4	
474.29	9058.2	
474.49	8699.8	
474.69	7315.3	
474.89	6793.8	
475.09	8149.6	
475.29	8039.6	
475.49	6326.9	
475.69	6543.3	
475.88	9368.8	
476.08	8430.1	
476.28	6273.6	
476.48	6596.5	
476.68	8712.1	
476.88	8615.8	
477.08	6530.3	
477.28	6739.9	
477.48	8106.5	
477.68	8639.7	
477.88	6374.6	
478.08	6640.2	
478.28	8944.2	
478.48	8239	
478.67	6722.8	
478.87	6154.8	
479.07	8847.2	
479.27	8370	
479.47	6841.6	
479.67	6883.9	
479.87	8619.2	
480.07	9137.4	
480.27	6270.2	
480.47	7600	
480.67	8329.8	
480.87	8931.2	
481.06	6516	
481.26	7286	
481.46	8344.1	
481.66	8311.3	
481.86	7000	
482.06	7753.6	
482.26	8179.6	
482.46	9088.9	
482.66	6847	
482.86	6528.2	
483.05	8483.4	
483.25	7919.5	
483.45	8847.2	
483.65	6791.7	
483.85	8054	
484.05	8308.6	
484.25	7232.7	
484.45	7595.9	
484.65	9031.5	
484.84	9072.5	
485.04	6858	
485.24	6839.5	
485.44	9357.2	
485.64	7980.9	
485.84	6293.4	
486.04	7492.8	
486.24	8322.9	
486.44	8643.8	
486.63	6229.2	
486.83	7017	
487.03	8338	
487.23	8400.8	
487.43	6421.1	
487.63	8234.9	
487.83	8507.9	
488.02	9258.2	
488.22	7176.8	
488.42	7747.5	
488.62	9209.7	
488.82	8305.9	
489.02	6921.5	
489.22	7060.7	
489.41	9102.5	
489.61	8837.7	
489.81	6845	
490.01	6819.1	
490.21	9088.2	
490.41	9699.9	
490.61	6821.1	
490.8	6904.4	
491	8811.7	
491.2	8164.6	
491.4	7453.2	
491.6	6803.4	
491.8	8732.5	
491.99	8787.2	
492.19	6567.8	
492.39	6821.1	
492.59	9038.4	
492.79	9153.1	
492.99	7457.3	
493.18	6739.2	
493.38	9201.5	
493.58	9796.1	
493.78	7395.9	
493.98	7015	
494.18	9050	
494.37	8665	
494.57	7670.3	
494.77	7578.2	
494.97	9263	
495.17	9473.9	
495.37	7252.5	
495.56	7559.1	
495.76	9688.3	
495.96	9324.4	
496.16	8477.9	
496.36	7546.8	
496.55	9671.9	
496.75	9189.9	
496.95	7953.6	
497.15	7775.5	
497.35	9758.6	
497.54	9626.8	
497.74	7643	
497.94	8985.1	
498.14	10151	
498.34	10127	
498.53	7385.7	
498.73	8000	
498.93	9249.3	
499.13	9624.1	
499.33	8037.6	
499.52	8444.5	
499.72	9761.3	
499.92	9962.7	
500.12	7694.2	
500.32	7902.4	
500.51	9979.1	
500.71	9825.5	
500.91	8606.2	
501.11	8260.8	
501.31	10006	
501.5	10225	
501.7	8888.2	
501.9	8013.7	
502.1	9779.7	
502.29	10023	
502.49	8398.7	
502.69	8806.3	
502.89	9918.3	
503.09	9912.9	
503.28	7621.2	
503.48	7754.3	
503.68	9362.6	
503.88	9359.9	
504.07	8519.5	
504.27	8030.8	
504.47	9708.7	
504.67	9686.9	
504.86	8486.1	
505.06	8156.4	
505.26	9367.4	
505.46	10795	
505.65	8103.8	
505.85	8226.7	
506.05	9381.7	
506.25	9780.4	
506.44	7542	
506.64	8222.6	
506.84	9181.7	
507.04	9915.6	
507.23	7643.7	
507.43	8098.4	
507.63	10852	
507.83	9359.2	
508.02	8122.2	
508.22	7810.3	
508.42	11076	
508.62	9181	
508.81	7983.7	
509.01	8467	
509.21	9166	
509.4	9409.7	
509.6	8310	
509.8	7697.6	
510	9316.2	
510.19	10563	
510.39	7598	
510.59	7799.3	
510.79	9268.4	
510.98	10328	
511.18	7838.3	
511.38	7957.7	
511.57	9983.8	
511.77	9747	
511.97	8497.7	
512.17	7804.8	
512.36	10041	
512.56	9826.2	
512.76	7745.4	
512.95	7493.5	
513.15	10097	
513.35	8862.9	
513.55	8409	
513.74	7736.5	
513.94	10002	
514.14	9450	
514.33	8588.5	
514.53	8331.1	
514.73	9518.3	
514.92	9571.5	
515.12	7877.2	
515.32	7838.9	
515.51	9638.4	
515.71	10096	
515.91	9155.8	
516.11	7809.6	
516.3	11076	
516.5	9394.7	
516.7	8371.4	
516.89	8802.9	
517.09	9463	
517.29	9470.5	
517.48	8641.1	
517.68	8066.9	
517.88	9283.4	
518.07	9837.8	
518.27	8607.6	
518.47	7697.6	
518.66	10243	
518.86	9211.8	
519.06	7600	
519.25	7966.6	
519.45	9463.7	
519.65	10623	
519.84	8593.3	
520.04	9131.2	
520.24	11090	
520.43	10034	
520.63	8370	
520.83	8130.4	
521.02	9463.7	
521.22	9977	
521.42	8565.3	
521.61	8994.7	
521.81	9615.2	
522.01	9741.5	
522.2	8396.7	
522.4	8218.5	
522.6	10178	
522.79	9226.1	
522.99	8243.1	
523.18	7793.2	
523.38	9980.4	
523.58	9981.1	
523.77	9450.7	
523.97	7853.3	
524.17	11581	
524.36	10768	
524.56	8970.8	
524.76	8675.2	
524.95	10024	
525.15	9937.4	
525.34	8567.3	
525.54	8704.5	
525.74	10595	
525.93	9830.9	
526.13	9790	
526.33	8815.8	
526.52	11013	
526.72	10566	
526.91	9849.4	
527.11	9228.8	
527.31	10909	
527.5	11363	
527.7	9213.1	
527.89	8394.6	
528.09	10150	
528.29	10641	
528.48	9543.5	
528.68	9225.4	
528.87	10976	
529.07	11062	
529.27	9263.6	
529.46	9022	
529.66	10982	
529.85	11262	
530.05	8823.3	
530.25	9563.3	
530.44	11929	
530.64	10865	
530.83	9164.7	
531.03	9349.7	
531.23	11230	
531.42	10999	
531.62	10035	
531.81	9252.7	
532.01	11317	
532.21	11613	
532.4	9154.4	
532.6	9555.8	
532.79	12101	
532.99	11507	
533.18	9698.5	
533.38	10438	
533.58	11178	
533.77	11783	
533.97	9710.8	
534.16	10465	
534.36	11971	
534.55	11312	
534.75	10622	
534.95	9912.9	
535.14	12067	
535.34	11332	
535.53	9546.3	
535.73	11248	
535.92	12508	
536.12	11460	
536.31	9725.8	
536.51	10726	
536.71	11755	
536.9	11402	
537.1	9809.8	
537.29	10050	
537.49	12007	
537.68	11257	
537.88	10274	
538.07	9598.1	
538.27	11489	
538.46	12412	
538.66	9545.6	
538.86	10010	
539.05	11621	
539.25	11909	
539.44	10283	
539.64	9876	
539.83	11570	
540.03	12307	
540.22	9809.8	
540.42	9949.7	
540.61	11722	
540.81	11789	
541	10281	
541.2	10710	
541.39	11225	
541.59	11527	
541.78	10571	
541.98	9758.6	
542.18	10944	
542.37	11029	
542.57	10124	
542.76	10531	
542.96	11126	
543.15	11563	
543.35	10086	
543.54	9506.7	
543.74	11760	
543.93	11529	
544.13	10073	
544.32	10804	
544.52	11684	
544.71	11009	
544.91	9210.4	
545.1	10174	
545.3	11039	
545.49	11581	
545.69	9142.8	
545.88	9710.1	
546.08	12268	
546.27	12010	
546.47	10139	
546.66	9358.5	
546.86	11754	
547.05	12249	
547.24	9650	
547.44	9580.4	
547.63	10931	
547.83	11847	
548.02	9876	
548.22	10015	
548.41	10729	
548.61	11845	
548.8	9432.9	
549	9566.7	
549.19	11400	
549.39	11670	
549.58	9157.2	
549.78	9544.9	
549.97	11600	
550.17	11105	
550.36	10337	
550.55	11226	
550.75	11164	
550.94	11882	
551.14	9324.4	
551.33	9523.7	
551.53	10570	
551.72	11380	
551.92	9699.2	
552.11	9482.8	
552.31	11522	
552.5	11424	
552.69	10832	
552.89	9185.1	
553.08	11353	
553.28	11039	
553.47	9517.6	
553.67	10501	
553.86	11907	
554.06	10438	
554.25	8750.3	
554.44	9308	
554.64	12468	
554.83	12119	
555.03	9307.3	
555.22	9583.1	
555.42	11495	
555.61	11181	
555.8	9466.4	
556	9574.3	
556.19	10542	
556.39	11529	
556.58	9350.3	
556.78	9421.3	
556.97	11120	
557.16	10952	
557.36	10337	
557.55	9150.3	
557.75	10237	
557.94	11897	
558.13	9155.1	
558.33	9133.3	
558.52	11602	
558.72	10677	
558.91	9114.1	
559.1	9248.6	
559.3	10497	
559.49	10193	
559.69	8837.7	
559.88	9581.1	
560.07	11058	
560.27	11533	
560.46	9715.6	
560.66	9809.8	
560.85	10854	
561.04	10206	
561.24	9071.8	
561.43	9101.9	
561.63	10372	
561.82	10624	
562.01	10161	
562.21	9473.2	
562.4	11017	
562.59	11834	
562.79	9240.4	
562.98	8927.1	
563.18	10922	
563.37	12092	
563.56	9748.3	
563.76	8991.3	
563.95	10530	
564.14	10503	
564.34	9378.3	
564.53	8955.8	
564.73	11028	
564.92	11295	
565.11	9487.6	
565.31	8972.2	
565.5	11483	
565.69	10628	
565.89	9306	
566.08	9374.2	
566.27	11428	
566.47	11736	
566.66	10005	
566.85	8932.6	
567.05	11120	
567.24	10694	
567.44	9169.4	
567.63	10382	
567.82	11366	
568.02	11198	
568.21	9199.5	
568.4	9529.9	
568.6	10987	
568.79	11085	
568.98	9124.4	
569.18	9228.1	
569.37	11154	
569.56	12693	
569.76	9591.3	
569.95	10259	
570.14	11333	
570.34	11304	
570.53	9192.6	
570.72	9153.1	
570.91	11849	
571.11	11089	
571.3	9577.7	
571.49	10303	
571.69	11157	
571.88	10720	
572.07	9994.8	
572.27	10009	
572.46	10790	
572.65	11714	
572.85	9434.3	
573.04	9627.5	
573.23	11693	
573.43	11118	
573.62	9301.2	
573.81	9854.1	
574	11297	
574.2	11095	
574.39	9600.2	
574.58	9731.9	
574.78	11918	
574.97	11480	
575.16	10032	
575.36	10164	
575.55	11790	
575.74	11858	
575.93	9378.3	
576.13	10324	
576.32	11291	
576.51	11768	
576.71	9791.3	
576.9	10873	
577.09	12084	
577.28	11780	
577.48	10103	
577.67	9396.8	
577.86	11415	
578.05	11643	
578.25	9882.1	
578.44	9945.6	
578.63	11440	
578.83	12379	
579.02	9442.5	
579.21	10745	
579.4	11574	
579.6	11396	
579.79	10150	
579.98	11804	
580.17	12014	
580.37	12045	
580.56	9605.7	
580.75	10277	
580.94	12211	
581.14	12281	
581.33	10562	
581.52	9810.5	
581.71	11760	
581.91	12415	
582.1	9549.7	
582.29	9886.9	
582.48	11533	
582.68	11481	
582.87	10380	
583.06	10023	
583.25	11910	
583.45	11345	
583.64	10643	
583.83	11260	
584.02	11558	
584.21	11840	
584.41	10555	
584.6	10081	
584.79	11713	
584.98	12149	
585.18	9627.5	
585.37	9612.5	
585.56	11354	
585.75	11983	
585.94	9787.2	
586.14	10356	
586.33	12224	
586.52	11661	
586.71	10239	
586.91	10072	
587.1	10940	
587.29	11860	
587.48	9770.2	
587.67	9807	
587.87	11751	
588.06	11721	
588.25	10791	
588.44	10250	
588.63	11297	
588.83	11834	
589.02	9705.3	
589.21	9720.3	
589.4	11308	
589.59	11126	
589.78	9070.5	
589.98	9250	
590.17	10669	
590.36	11165	
590.55	8632.9	
590.74	9208.4	
590.94	12043	
591.13	10801	
591.32	8899.1	
591.51	8554.4	
591.7	11162	
591.89	10750	
592.09	8583	
592.28	9008.3	
592.47	10149	
592.66	11758	
592.85	8678.6	
593.05	8811.7	
593.24	10686	
593.43	11264	
593.62	9004.2	
593.81	9295.7	
594	10720	
594.19	10834	
594.39	8881.4	
594.58	8794	
594.77	10931	
594.96	11513	
595.15	8830.8	
595.34	9299.1	
595.54	10798	
595.73	10215	
595.92	8258.8	
596.11	9181	
596.3	11405	
596.49	10343	
596.68	9000.1	
596.88	9392	
597.07	11020	
597.26	10072	
597.45	8553.7	
597.64	9473.9	
597.83	10367	
598.02	10829	
598.22	8609	
598.41	9222	
598.6	10726	
598.79	10126	
598.98	8615.8	
599.17	9409.7	
599.36	10629	
599.55	11472	
599.74	10289	
599.94	10101	
600.13	11153	
600.32	10081	
600.51	8443.1	
600.7	8550.3	
600.89	11577	
601.08	11608	
601.27	8338.6	
601.47	9187.9	
601.66	10949	
601.85	11536	
602.04	8971.5	
602.23	9161.2	
602.42	10231	
602.61	10720	
602.8	8809	
602.99	8656.1	
603.18	10431	
603.37	10698	
603.57	9151.7	
603.76	9667.8	
603.95	11340	
604.14	10888	
604.33	8717.5	
604.52	9006.3	
604.71	10562	
604.9	10195	
605.09	9424.8	
605.28	9256.1	
605.47	11215	
605.66	10771	
605.86	9214.5	
606.05	8680	
606.24	11052	
606.43	9860.3	
606.62	8873.8	
606.81	9552.4	
607	10894	
607.19	10381	
607.38	8460.8	
607.57	8660.9	
607.76	10037	
607.95	9786.6	
608.14	8986.5	
608.33	9409.1	
608.52	10139	
608.72	10918	
608.91	8344.1	
609.1	8276.5	
609.29	10204	
609.48	9792	
609.67	9127.1	
609.86	8307.9	
610.05	9907.4	
610.24	10131	
610.43	8305.9	
610.62	7974.1	
610.81	10953	
611	10815	
611.19	8351.6	
611.38	8915.5	
611.57	10428	
611.76	11469	
611.95	8086.1	
612.14	7912	
612.33	10238	
612.52	9893.1	
612.71	8516.1	
612.9	8004.1	
613.09	9467.1	
613.28	11414	
613.47	8374.1	
613.66	9174.9	
613.85	10310	
614.04	9893.7	
614.24	8474.5	
614.43	7707.2	
614.62	10488	
614.81	10411	
615	8839	
615.19	8801.5	
615.38	9839.8	
615.57	10162	
615.76	8824	
615.95	9449.3	
616.14	10498	
616.33	10256	
616.52	8927.8	
616.71	9118.2	
616.9	10483	
617.09	10333	
617.28	8501.8	
617.47	9500.5	
617.66	9718.3	
617.85	9624.1	
618.04	9217.2	
618.22	8759.2	
618.41	10003	
618.6	10829	
618.79	8736.6	
618.98	8587.8	
619.17	11139	
619.36	9720.3	
619.55	8650.6	
619.74	8699.8	
619.93	10584	
620.12	10034	
620.31	9286.9	
620.5	9357.9	
620.69	11009	
620.88	11382	
621.07	10017	
621.26	9180.4	
621.45	10783	
621.64	10858	
621.83	9205.6	
622.02	8674.5	
622.21	10731	
622.4	10723	
622.59	9738.1	
622.78	9707.4	
622.97	10280	
623.16	11149	
623.35	9327.1	
623.54	8684.1	
623.72	10514	
623.91	10619	
624.1	9588.6	
624.29	8476.5	
624.48	11607	
624.67	10928	
624.86	9426.1	
625.05	8690.9	
625.24	11686	
625.43	10327	
625.62	10850	
625.81	8901.8	
626	11156	
626.19	10610	
626.38	9500.5	
626.56	9169.4	
626.75	10630	
626.94	10992	
627.13	9561.3	
627.32	8561.2	
627.51	11116	
627.7	12056	
627.89	8699.1	
628.08	9553.8	
628.27	10419	
628.46	10522	
628.65	8884.8	
628.83	8620.6	
629.02	10993	
629.21	10505	
629.4	9127.8	
629.59	9344.2	
629.78	10369	
629.97	11212	
630.16	9460.3	
630.35	9056.1	
630.54	11557	
630.72	11422	
630.91	9006.3	
631.1	9416.6	
631.29	10854	
631.48	11032	
631.67	9570.8	
631.86	8981	
632.05	10632	
632.24	10689	
632.42	8760.5	
632.61	9301.2	
632.8	10520	
632.99	10314	
633.18	9244.5	
633.37	9601.6	
633.56	10821	
633.75	10735	
633.93	9364.7	
634.12	9144.2	
634.31	11550	
634.5	11127	
634.69	9145.5	
634.88	9484.1	
635.07	10750	
635.25	11139	
635.44	9892.4	
635.63	10086	
635.82	10570	
636.01	10114	
636.2	9790.7	
636.39	9357.9	
636.57	11474	
636.76	11064	
636.95	8968.7	
637.14	9987.9	
637.33	10935	
637.52	11587	
637.7	8753.7	
637.89	9549	
638.08	10663	
638.27	11863	
638.46	9564	
638.65	9964.7	
638.83	11828	
639.02	10408	
639.21	9574.3	
639.4	9908.1	
639.59	10682	
639.78	10544	
639.96	8781.7	
640.15	8945.5	
640.34	10606	
640.53	10813	
640.72	8654.7	
640.91	8803.5	
641.09	10047	
641.28	11231	
641.47	8893	
641.66	9448	
641.85	10610	
642.03	10895	
642.22	9322.4	
642.41	8886.8	
642.6	10217	
642.79	9693.7	
642.97	8699.1	
643.16	9329.9	
643.35	10243	
643.54	9882.8	
643.73	8638.3	
643.91	9192.6	
644.1	9904.7	
644.29	10326	
644.48	8563.2	
644.67	8727.8	
644.85	9972.9	
645.04	10281	
645.23	8200.7	
645.42	8437.6	
645.6	9788.6	
645.79	10738	
645.98	8355.7	
646.17	7650.5	
646.36	9448	
646.54	9957.9	
646.73	9001.5	
646.92	7979.6	
647.11	9637.7	
647.29	10462	
647.48	8156.4	
647.67	7849.9	
647.86	10677	
648.05	10705	
648.23	8224	
648.42	9316.9	
648.61	10120	
648.8	9852.8	
648.98	7857.4	
649.17	8204.2	
649.36	9541.5	
649.55	9123.7	
649.73	7915.4	
649.92	8473.1	
650.11	9478.7	
650.3	9624.1	
650.48	8130.4	
650.67	7900.4	
650.86	9883.5	
651.05	9034.3	
651.23	8023.3	
651.42	8008.9	
651.61	9452.7	
651.79	9379	
651.98	8167.3	
652.17	7753.6	
652.36	9780.4	
652.54	9022.7	
652.73	7796.6	
652.92	7762.5	
653.11	9770.2	
653.29	9886.9	
653.48	7261.4	
653.67	8107.9	
653.85	9580.4	
654.04	10345	
654.23	8242.4	
654.42	7771.4	
654.6	9194	
654.79	9618.6	
654.98	7294.2	
655.16	7803.4	
655.35	8756.4	
655.54	8494.3	
655.73	7255.3	
655.91	7177.4	
656.1	9393.3	
656.29	8390.5	
656.47	6802	
656.66	8147.5	
656.85	8689.5	
657.03	8769.4	
657.22	7286	
657.41	7459.4	
657.59	8959.9	
657.78	8767.4	
657.97	7123.5	
658.16	7757.7	
658.34	9402.9	
658.53	9712.8	
658.72	8562.6	
658.9	8914.8	
659.09	9202.9	
659.28	9136.7	
659.46	7559.7	
659.65	7458	
659.84	8903.2	
660.02	9400.2	
660.21	7461.4	
660.4	7427.3	
660.58	9655.5	
660.77	9140.8	
660.96	7948.8	
661.14	7120.8	
661.33	10103	
661.52	10014	
661.7	7105.8	
661.89	9977.7	
662.08	8808.3	
662.26	8496.3	
662.45	7326.3	
662.64	7410.9	
662.82	9457.5	
663.01	8771.5	
663.2	7442.3	
663.38	8166.6	
663.57	9334.6	
663.75	9234.3	
663.94	7655.3	
664.13	8621.9	
664.31	8788.5	
664.5	9338.7	
664.69	7937.2	
664.87	8282.7	
665.06	8542.8	
665.25	9159.2	
665.43	8458.8	
665.62	8518.2	
665.8	9318.3	
665.99	8894.3	
666.18	7649.2	
666.36	7662.8	
666.55	9419.3	
666.74	9340.8	
666.92	7380.2	
667.11	8624	
667.29	8916.2	
667.48	9367.4	
667.67	8290.9	
667.85	7529.7	
668.04	8890.9	
668.22	8863.6	
668.41	7664.2	
668.6	7806.2	
668.78	8700.5	
668.97	8843.1	
669.15	8026.7	
669.34	7092.1	
669.53	8762.6	
669.71	9072.5	
669.9	7260	
670.08	7772.7	
670.27	8692.3	
670.46	9146.2	
670.64	7927.7	
670.83	8166.6	
671.01	8500.4	
671.2	8941.4	
671.38	7379.5	
671.57	7158.3	
671.76	9564	
671.94	10079	
672.13	7111.2	
672.31	7956.4	
672.5	9257.5	
672.69	8757.1	
672.87	7326.3	
673.06	7539.9	
673.24	9202.2	
673.43	8722.3	
673.61	7910.6	
673.8	7470.3	
673.98	9254.8	
674.17	9428.2	
674.36	7973.4	
674.54	7826	
674.73	9044.5	
674.91	9301.9	
675.1	7655.3	
675.28	7310.6	
675.47	8853.4	
675.65	9295.7	
675.84	7529.7	
676.03	7776.8	
676.21	8747.6	
676.4	8301.8	
676.58	8189.8	
676.77	8049.2	
676.95	9957.2	
677.14	8706.6	
677.32	7226.6	
677.51	7098.3	
677.69	9357.9	
677.88	8489.5	
678.06	7249.1	
678.25	7275.8	
678.44	8916.9	
678.62	8643.1	
678.81	7081.9	
678.99	7870.3	
679.18	9537.4	
679.36	9291	
679.55	7456.7	
679.73	8039.6	
679.92	9106	
680.1	8720.3	
680.29	8585.1	
680.47	7526.3	
680.66	8704.5	
680.84	9323.7	
681.03	6896.9	
681.21	7868.3	
681.4	8630.1	
681.58	8622.6	
681.77	7354.9	
681.95	7289.4	
682.14	9459.6	
682.32	9616.6	
682.51	8036.2	
682.69	7092.1	
682.88	8678.6	
683.06	9052	
683.25	7845.1	
683.43	8142.7	
683.62	8829.5	
683.8	9196.1	
683.99	8177.5	
684.17	7723.6	
684.36	9848.7	
684.54	8811.7	
684.73	7065.5	
684.91	7179.5	
685.1	9032.9	
685.28	8532.5	
685.46	7586.4	
685.65	7527.7	
685.83	9009	
686.02	8486.8	
686.2	6913.9	
686.39	6984.3	
686.57	8216.5	
686.76	9520.3	
686.94	6979.5	
687.13	7184.3	
687.31	8813.1	
687.5	8568	
687.68	6665.5	
687.86	7671.7	
688.05	9990	
688.23	8065.6	
688.42	7844.4	
688.6	7203.4	
688.79	8479.3	
688.97	8511.4	
689.16	7448.5	
689.34	6642.9	
689.52	9236.3	
689.71	9443.2	
689.89	7735.9	
690.08	7148.1	
690.26	8866.3	
690.45	8666.3	
690.63	7927	
690.81	7351.5	
691	8652	
691.18	8705.2	
691.37	7617.1	
691.55	9260.2	
691.74	8497.7	
691.92	10156	
692.1	7574.1	
692.29	7054.6	
692.47	8783.1	
692.66	8178.9	
692.84	7202.7	
693.02	7638.2	
693.21	8263.6	
693.39	8742.8	
693.58	7760.4	
693.76	7239.6	
693.94	9663.7	
694.13	9567.4	
694.31	7365.9	
694.5	8238.3	
694.68	8617.9	
694.86	8981	
695.05	7707.2	
695.23	8056.7	
695.42	9383.8	
695.6	11237	
695.78	8284.7	
695.97	7587	
696.15	9484.1	
696.34	8954.4	
696.52	7474.4	
696.7	8066.3	
696.89	9247.9	
697.07	8721.6	
697.25	7952.9	
697.44	9198.8	
697.62	9183.1	
697.81	9340.8	
697.99	7737.2	
698.17	8120.9	
698.36	8579.6	
698.54	9121	
698.72	8019.2	
698.91	7122.8	
699.09	8882	
699.28	8641.7	
699.46	7709.9	
699.64	7486	
699.83	8672.5	
700.01	9511.4	
700.19	8269	
700.38	7019.1	
700.56	9652.1	
700.74	8704.5	
700.93	7300.3	
701.11	7972.1	
701.29	9168.8	
701.48	10096	
701.66	7503.1	
701.84	7647.1	
702.03	8911.4	
702.21	9536	
702.39	7109.2	
702.58	7724.3	
702.76	9289.6	
702.94	9367.4	
703.13	7233.4	
703.31	9212.4	
703.49	8846.5	
703.68	9722.4	
703.86	7387.7	
704.04	8227.4	
704.23	9097.1	
704.41	9469.8	
704.59	7609.6	
704.78	8439	
704.96	10152	
705.14	9557.2	
705.33	7376.1	
705.51	8019.2	
705.69	8979.7	
705.87	9694.4	
706.06	8225.3	
706.24	7314.7	
706.42	9332.6	
706.61	9432.9	
706.79	8323.6	
706.97	7305.8	
707.16	8809.7	
707.34	9172.9	
707.52	8215.8	
707.7	7533.1	
707.89	8878.6	
708.07	8747.6	
708.25	8196	
708.44	8578.3	
708.62	8858.1	
708.8	9753.8	
708.98	8406.2	
709.17	7706.5	
709.35	9209	
709.53	9254.1	
709.72	7315.3	
709.9	7656	
710.08	9423.4	
710.26	9359.9	
710.45	8566	
710.63	7638.9	
710.81	9009	
710.99	9041.1	
711.18	7977.5	
711.36	7547.4	
711.54	8836.3	
711.72	9440.5	
711.91	7640.3	
712.09	7150.1	
712.27	8951	
712.45	9710.1	
712.64	7750.2	
712.82	6903	
713	8456.1	
713.18	8527.1	
713.37	7070.3	
713.55	8040.3	
713.73	9106	
713.91	8005.5	
714.1	7135.1	
714.28	6674.3	
714.46	8677.9	
714.64	7995.3	
714.83	6055.2	
715.01	6587.6	
715.19	7800	
715.37	7209.5	
715.55	6137.8	
715.74	6425.2	
715.92	8381	
716.1	6710.5	
716.28	7253.9	
716.47	6515.3	
716.65	7245.7	
716.83	7271.7	
717.01	6193.1	
717.19	6281.8	
717.38	8983.1	
717.56	7064.1	
717.74	6503.7	
717.92	5780.7	
718.1	8040.3	
718.29	7466.2	
718.47	5488.6	
718.65	6072.9	
718.83	8036.2	
719.01	8108.6	
719.2	5597.1	
719.38	6595.8	
719.56	7877.9	
719.74	9161.2	
719.92	6264.7	
720.11	7040.2	
720.29	8032.8	
720.47	7194.5	
720.65	5800.5	
720.83	6438.1	
721.02	7431.4	
721.2	7210.9	
721.38	6351.4	
721.56	5759.6	
721.74	6651.8	
721.92	6795.8	
722.11	6735.8	
722.29	6508.4	
722.47	7827.3	
722.65	7128.3	
722.83	5730.2	
723.01	6407.4	
723.2	7169.9	
723.38	7414.3	
723.56	5212.1	
723.74	6171.9	
723.92	6756.2	
724.1	7722.2	
724.29	5588.2	
724.47	6541.2	
724.65	6864.1	
724.83	6788.3	
725.01	5489.9	
725.19	6204	
725.37	6781.5	
725.56	6810.2	
725.74	5421	
725.92	5504.3	
726.1	6709.8	
726.28	6974.7	
726.46	5878.4	
726.64	5603.2	
726.83	6913.3	
727.01	7052.5	
727.19	5364.3	
727.37	5960.3	
727.55	7058	
727.73	7387	
727.91	5268.7	
728.09	5126.7	
728.28	7440.3	
728.46	7761.8	
728.64	6075	
728.82	6004.6	
729	8314.1	
729.18	7736.5	
729.36	5344.5	
729.54	7182.2	
729.72	8462.9	
729.91	7239.6	
730.09	7033.4	
730.27	6030.6	
730.45	7095.5	
730.63	7660.8	
730.81	6489.3	
730.99	5662.6	
731.17	8086.1	
731.35	6895.5	
731.53	6135	
731.71	5833.3	
731.9	7877.2	
732.08	7960.5	
732.26	6028.5	
732.44	5724.8	
732.62	8032.1	
732.8	7548.1	
732.98	6274.3	
733.16	5511.1	
733.34	7516	
733.52	6414.2	
733.7	5876.3	
733.88	6112.5	
734.07	7356.3	
734.25	7189.1	
734.43	5472.2	
734.61	6696.9	
734.79	8391.9	
734.97	7050.5	
735.15	5501.5	
735.33	5870.2	
735.51	7303.7	
735.69	6980.2	
735.87	6676.4	
736.05	5934.3	
736.23	7131.7	
736.41	6916	
736.59	5814.2	
736.77	5873.6	
736.95	7468.3	
737.13	6995.2	
737.32	5466.7	
737.5	5591	
737.68	7955	
737.86	6810.9	
738.04	5201.2	
738.22	6767.9	
738.4	6618.4	
738.58	6965.8	
738.76	5721.3	
738.94	4926	
739.12	6825.9	
739.3	6692.8	
739.48	6216.3	
739.66	6024.4	
739.84	6990.4	
740.02	6910.5	
740.2	4963.6	
740.38	5170.4	
740.56	7264.8	
740.74	6266.8	
740.92	5806	
741.1	5678.3	
741.28	6711.2	
741.46	6475	
741.64	5324.7	
741.82	5733.6	
742	6735.8	
742.18	6699.6	
742.36	5539.8	
742.54	5053.7	
742.72	7174.7	
742.9	6132.3	
743.08	5821.7	
743.26	4754.7	
743.44	7289.4	
743.62	7110.5	
743.8	5820.3	
743.98	5078.3	
744.16	6890	
744.34	6593.1	
744.52	5736.4	
744.7	5692	
744.88	6978.1	
745.06	6541.9	
745.24	5754.8	
745.42	5826.5	
745.6	7019.1	
745.78	6824.5	
745.96	4719.2	
746.14	5001.1	
746.32	7563.8	
746.5	6922.8	
746.68	5434.6	
746.86	4889.2	
747.03	7261.4	
747.21	5934.3	
747.39	5408	
747.57	4951.3	
747.75	6620.4	
747.93	6864.1	
748.11	4889.2	
748.29	4849.6	
748.47	7996	
748.65	6255.9	
748.83	5504.9	
749.01	5249.6	
749.19	6711.2	
749.37	6026.5	
749.55	5162.9	
749.73	5252.4	
749.91	6515.3	
750.09	6257.9	
750.26	5236	
750.44	4754	
750.62	6442.2	
750.8	6324.8	
750.98	4575.8	
751.16	4916.5	
751.34	6523.5	
751.52	5936.4	
751.7	5532.9	
751.88	4563.6	
752.06	6942.6	
752.24	6599.2	
752.42	4499.4	
752.59	4838.7	
752.77	6362.4	
752.95	7365.9	
753.13	5414.8	
753.31	4858.5	
753.49	6064.7	
753.67	6479.8	
753.85	5139.7	
754.03	4725.3	
754.21	6589.7	
754.38	6875.7	
754.56	4838	
754.74	4055	
754.92	5903.6	
755.1	6453.8	
755.28	4050.2	
755.46	4006.5	
755.64	7045	
755.82	7073	
755.99	4095.3	
756.17	4170.3	
756.35	4883	
756.53	6149.4	
756.71	3198.9	
756.89	3942.3	
757.07	5794.4	
757.25	5024.3	
757.42	4425.7	
757.6	5128.8	
757.78	5867.4	
757.96	5083.7	
758.14	4247.5	
758.32	3859.7	
758.5	4702.1	
758.67	5423	
758.85	4095.9	
759.03	4149.9	
759.21	5576.6	
759.39	5059.2	
759.57	3671.3	
759.75	4619.5	
759.92	6001.9	
760.1	5616.9	
760.28	4976.6	
760.46	5212.1	
760.64	5379.3	
760.82	5180	
760.99	4883	
761.17	4227	
761.35	6028.5	
761.53	5172.5	
761.71	4316.4	
761.89	4851.6	
762.06	5923.4	
762.24	5565	
762.42	4355.3	
762.6	4169.7	
762.78	5607.3	
762.96	6097.5	
763.13	4737	
763.31	4384	
763.49	6189	
763.67	5563	
763.85	5129.5	
764.02	5539.1	
764.2	6443.6	
764.38	5756.8	
764.56	4336.9	
764.74	5055.8	
764.91	6516	
765.09	5565	
765.27	4085	
765.45	3918.4	
765.63	6627.2	
765.8	6402	
765.98	3706.8	
766.16	3934.1	
766.34	5208.7	
766.52	5046.2	
766.69	4709.6	
766.87	3745.1	
767.05	5534.3	
767.23	6250.4	
767.41	4078.9	
767.58	4317.8	
767.76	6077.7	
767.94	5998.5	
768.12	4115.7	
768.29	4689.2	
768.47	5589.6	
768.65	6217	
768.83	3760.8	
769	4744.5	
769.18	5269.4	
769.36	5810.8	
769.54	4702.8	
769.72	3822.2	
769.89	6028.5	
770.07	6100.2	
770.25	4060.4	
770.43	5189.6	
770.6	6625.9	
770.78	6930.3	
770.96	4190.1	
771.14	4102.8	
771.31	5887.9	
771.49	5382.7	
771.67	3540.9	
771.85	3668.6	
772.02	4734.2	
772.2	5358.9	
772.38	4371.7	
772.55	3880.9	
772.73	5594.4	
772.91	5324.7	
773.09	4195.6	
773.26	4284.4	
773.44	5515.9	
773.62	5302.2	
773.8	3791.5	
773.97	3599.6	
774.15	5580	
774.33	5337	
774.5	3655.6	
774.68	3956.7	
774.86	5743.2	
775.04	5287.2	
775.21	3743.7	
775.39	3689.8	
775.57	5535	
775.74	5816.9	
775.92	3570.3	
776.1	3482.9	
776.27	5391.6	
776.45	6453.8	
776.63	3739.6	
776.81	3347.1	
776.98	5204.6	
777.16	6035.4	
777.34	3853.6	
777.51	4100.7	
777.69	5155.4	
777.87	4903.5	
778.04	3865.9	
778.22	4342.4	
778.4	4966.3	
778.57	5519.3	
778.75	3239.2	
778.93	3527.3	
779.1	4842.1	
779.28	4637.3	
779.46	3209.2	
779.64	3663.8	
779.81	5644.2	
779.99	6367.8	
780.17	4328.7	
780.34	4405.9	
780.52	5169.1	
780.69	5336.3	
780.87	3936.2	
781.05	3495.9	
781.22	5274.2	
781.4	5242.8	
781.58	3726.6	
781.75	2943.6	
781.93	5285.1	
782.11	4721.3	
782.28	4336.2	
782.46	3687	
782.64	4619.5	
782.81	5365	
782.99	3713	
783.17	3692.5	
783.34	5304.2	
783.52	4693.9	
783.69	3811.3	
783.87	4500.1	
784.05	4752	
784.22	4696	
784.4	4559.5	
784.58	3963.5	
784.75	5503.6	
784.93	4803.2	
785.1	3627	
785.28	4154	
785.46	5278.3	
785.63	4736.3	
785.81	3625.6	
785.99	3433.8	
786.16	4889.2	
786.34	5182	
786.51	3589.4	
786.69	3839.9	
786.87	4521.9	
787.04	4920.6	
787.22	3409.9	
787.39	4169.7	
787.57	4734.9	
787.75	5631.9	
787.92	4329.4	
788.1	4257	
788.27	4771.8	
788.45	4536.9	
788.63	4104.1	
788.8	2960	
788.98	5245.5	
789.15	4461.8	
789.33	3153.2	
789.5	3628.3	
789.68	5484.5	
789.86	5601.9	
790.03	3993.5	
790.21	3506.8	
790.38	5492	
790.56	4798.4	
790.73	3386.7	
790.91	3438.5	
791.09	4676.2	
791.26	5314.5	
791.44	3589.4	
791.61	3144.3	
791.79	4724	
791.96	4739.7	
792.14	3253.5	
792.32	2889	
792.49	4734.2	
792.67	4797	
792.84	3355.9	
793.02	3118.4	
793.19	5128.8	
793.37	5681.1	
793.54	2904	
793.72	3229.6	
793.89	5682.4	
794.07	4698	
794.25	3588.7	
794.42	2981.8	
794.6	5532.9	
794.77	5245.5	
794.95	3943.7	
795.12	3427.6	
795.3	4775.2	
795.47	5167.7	
795.65	3768.9	
795.82	3645.4	
796	4556	
796.17	6079.1	
796.35	3536.8	
796.52	4123.2	
796.7	5199.1	
796.87	5249.6	
797.05	3538.2	
797.22	4192.2	
797.4	5199.8	
797.57	6018.3	
797.75	3570.3	
797.92	3407.1	
798.1	5500.8	
798.27	4599.1	
798.45	2966.8	
798.62	3184.6	
798.8	4957.4	
798.97	5374.6	
799.15	3805.1	
799.32	3595.6	
799.5	4290.5	
799.67	4932.2	
799.85	3942.3	
800.02	2949.8	
800.2	4620.9	
800.37	4918.5	
800.55	4059.8	
800.72	3436.5	
800.9	5303.6	
801.07	5700.9	
801.25	4552.6	
801.42	3708.9	
801.6	5324.7	
801.77	5061.2	
801.95	3525.9	
802.12	3378.5	
802.29	5073.5	
802.47	5023	
802.64	3710.2	
802.82	2877.4	
802.99	4595	
803.17	5416.9	
803.34	3553.2	
803.52	3245.3	
803.69	5984.8	
803.87	4407.2	
804.04	3623.5	
804.21	3710.9	
804.39	5628.5	
804.56	4836.6	
804.74	3102.7	
804.91	3719.1	
805.09	4658.4	
805.26	4745.1	
805.44	3217.4	
805.61	3445.4	
805.78	5281.7	
805.96	5203.9	
806.13	3692.5	
806.31	3966.2	
806.48	4276.8	
806.66	4679.6	
806.83	3757.3	
807	3628.3	
807.18	4649.6	
807.35	4970.4	
807.53	3597.6	
807.7	3009.8	
807.87	5629.2	
808.05	4661.2	
808.22	3920.5	
808.4	2959.3	
808.57	4625.7	
808.74	4370.4	
808.92	3336.8	
809.09	4193.6	
809.27	4627	
809.44	5046.9	
809.61	2995.5	
809.79	3273.3	
809.96	5679.7	
810.14	5265.3	
810.31	2895.1	
810.48	3517	
810.66	4749.9	
810.83	5377.3	
811.01	3352.5	
811.18	3706.1	
811.35	5342.5	
811.53	4147.1	
811.7	3985.3	
811.87	3736.9	
812.05	4669.4	
812.22	4655	
812.39	3299.3	
812.57	3179.8	
812.74	4742.4	
812.92	6012.8	
813.09	3538.2	
813.26	3780.6	
813.44	5875.6	
813.61	4558.1	
813.78	2957.3	
813.96	3839.3	
814.13	4723.3	
814.3	4441.4	
814.48	4130.1	
814.65	3467.2	
814.82	5633.3	
815	4413.4	
815.17	3570.3	
815.34	4250.2	
815.52	4601.8	
815.69	4585.4	
815.87	3457	
816.04	3512.3	
816.21	4684.4	
816.38	4197.7	
816.56	3414.6	
816.73	3230.3	
816.9	5796.4	
817.08	5287.9	
817.25	3231.7	
817.42	3981.9	
817.6	4268.6	
817.77	4616.1	
817.94	3642.7	
818.12	3212.6	
818.29	4427.7	
818.46	6633.4	
818.64	3340.9	
818.81	3146.4	
818.98	4392.2	
819.16	6202.6	
819.33	3764.2	
819.5	3549.8	
819.67	5008	
819.85	5465.3	
820.02	3480.9	
820.19	3720.5	
820.37	4838.7	
820.54	4542.4	
820.71	3593.5	
820.88	4414.1	
821.06	4825.7	
821.23	4522.6	
821.4	3612.6	
821.58	3654.3	
821.75	5236.7	
821.92	4772.4	
822.09	2988	
822.27	3211.9	
822.44	4675.5	
822.61	4601.1	
822.79	3019.4	
822.96	5447.6	
823.13	5019.6	
823.3	4420.9	
823.48	3377.1	
823.65	3099.3	
823.82	5242.8	
823.99	4313.7	
824.17	4235.9	
824.34	3173.7	
824.51	6014.2	
824.68	4675.5	
824.86	3238.5	
825.03	3538.2	
825.2	4718.5	
825.37	5523.4	
825.55	3204.4	
825.72	3550.5	
825.89	6004.6	
826.06	5639.4	
826.24	3451.5	
826.41	3472.7	
826.58	5598.5	
826.75	4895.3	
826.92	2783.9	
827.1	3099.3	
827.27	7383.6	
827.44	6051.7	
827.61	3311.6	
827.79	4009.2	
827.96	4464.6	
828.13	4700.8	
828.3	3410.6	
828.47	3009.1	
828.65	4936.3	
828.82	4851.6	
828.99	4348.5	
829.16	3865.2	
829.34	5190.9	
829.51	5012.7	
829.68	3571.7	
829.85	3653.6	
830.02	5461.9	
830.2	5196.4	
830.37	2770.2	
830.54	4244.8	
830.71	5913.2	
830.88	4637.3	
831.05	2803	
831.23	3214.6	
831.4	5666.7	
831.57	6195.1	
831.74	3292.5	
831.91	2906.1	
832.09	4957.4	
832.26	5172.5	
832.43	3461.7	
832.6	3768.9	
832.77	4863.2	
832.94	5505.6	
833.12	2763.4	
833.29	3347.7	
833.46	5069.4	
833.63	6392.4	
833.8	3732.8	
833.97	3388.7	
834.15	5259.2	
834.32	5072.8	
834.49	3572.3	
834.66	3580.5	
834.83	5313.8	
835	4471.4	
835.17	3309.5	
835.35	3308.8	
835.52	5105.6	
835.69	5050.3	
835.86	3469.9	
836.03	2862.4	
836.2	5152.7	
836.37	4860.5	
836.55	3387.3	
836.72	3192.1	
836.89	4852.3	
837.06	5260.5	
837.23	3480.2	
837.4	3733.4	
837.57	5892.7	
837.75	6404.7	
837.92	3191.4	
838.09	3363.4	
838.26	4869.4	
838.43	5425.8	
838.6	3562.8	
838.77	3190.1	
838.94	6100.2	
839.11	5932.3	
839.29	3431	
839.46	2724.5	
839.63	5141.1	
839.8	4929.5	
839.97	3302	
840.14	3317.7	
840.31	4947.2	
840.48	5260.5	
840.65	2781.1	
840.82	3231.7	
841	5187.5	
841.17	5066	
841.34	2990.7	
841.51	3170.9	
841.68	5175.9	
841.85	4905.6	
842.02	3184.6	
842.19	2691.7	
842.36	4975.2	
842.53	4971.8	
842.7	3077.4	
842.87	3658.4	
843.05	6408.1	
843.22	4858.5	
843.39	2985.3	
843.56	3132	
843.73	4747.2	
843.9	5230.5	
844.07	4858.5	
844.24	3984	
844.41	7243.7	
844.58	4543.1	
844.75	2937.5	
844.92	3213.3	
845.09	5193	
845.26	5134.3	
845.43	3022.1	
845.6	3229.6	
845.77	5165	
845.94	4979.3	
846.12	3346.4	
846.29	3540.9	
846.46	5359.5	
846.63	5188.2	
846.8	3049.4	
846.97	3644	
847.14	5543.9	
847.31	5130.2	
847.48	3377.1	
847.65	3756.7	
847.82	5420.3	
847.99	5396.4	
848.16	3930.7	
848.33	3704.8	
848.5	4765.6	
848.67	5540.4	
848.84	3006.4	
849.01	3177.8	
849.18	4699.4	
849.35	4422.2	
849.52	3725.3	
849.69	2990	
849.86	5357.5	
850.03	5451	
850.2	3089.7	
850.37	3637.9	
850.54	5450.3	
850.71	4885.1	
850.88	3601	
851.05	2985.9	
851.22	5055.8	
851.39	5560.9	
851.56	2891	
851.73	3421.5	
851.9	4629.1	
852.07	5345.9	
852.24	3371	
852.41	2973.7	
852.58	5027.8	
852.75	4670.7	
852.92	3450.1	
853.09	2939.5	
853.26	4794.3	
853.43	5524.1	
853.6	3107.5	
853.77	2614.6	
853.94	5602.6	
854.11	4551.3	
854.28	4412	
854.44	3267.9	
854.61	5959.6	
854.78	5443.5	
854.95	3048.7	
855.12	3741.6	
855.29	4211.3	
855.46	5786.2	
855.63	3030.3	
855.8	4134.2	
855.97	4782	
856.14	5446.2	
856.31	4235.9	
856.48	3241.3	
856.65	4871.4	
856.82	4533.5	
856.99	2960	
857.16	3268.6	
857.33	6129.6	
857.49	4931.5	
857.66	3260.4	
857.83	3478.8	
858	4886.5	
858.17	5068	
858.34	2884.9	
858.51	3053.5	
858.68	5694.7	
858.85	5722	
859.02	3457.7	
859.19	3729.4	
859.36	4606.6	
859.52	4641.4	
859.69	3023.5	
859.86	3588	
860.03	4592.2	
860.2	5669.5	
860.37	2822.8	
860.54	3074	
860.71	5362.9	
860.88	5638.1	
861.05	3366.9	
861.21	3833.8	
861.38	5642.8	
861.55	4440	
861.72	2825.5	
861.89	3378.5	
862.06	5408.7	
862.23	5749.3	
862.4	2917.7	
862.56	3149.1	
862.73	5264	
862.9	4937.7	
863.07	3523.9	
863.24	2768.2	
863.41	4500.1	
863.58	4631.8	
863.75	3081.5	
863.91	3504.8	
864.08	5518.6	
864.25	5311.7	
864.42	3696.6	
864.59	4108.9	
864.76	5941.2	
864.93	4633.2	
865.09	2994.1	
865.26	3238.5	
865.43	5569.8	
865.6	5834	
865.77	2703.3	
865.94	3002.3	
866.1	5591	
866.27	5341.8	
866.44	4436.6	
866.61	2879.4	
866.78	4918.5	
866.95	5246.9	
867.11	2986.6	
867.28	2717	
867.45	5448.3	
867.62	4656.4	
867.79	3421.5	
867.96	3030.3	
868.12	4590.2	
868.29	5369.8	
868.46	2660.3	
868.63	3960.8	
868.8	5482.4	
868.97	5295.4	
869.13	3180.5	
869.3	3156.6	
869.47	5195.7	
869.64	5401.9	
869.81	3039.2	
869.97	3061.7	
870.14	5135.6	
870.31	5706.3	
870.48	2941.6	
870.65	3801.7	
870.81	4885.8	
870.98	4932.2	
871.15	3439.2	
871.32	3179.8	
871.48	5207.3	
871.65	5776.6	
871.82	2995.5	
871.99	3355.3	
872.16	6099.5	
872.32	5570.5	
872.49	3076	
872.66	3033.7	
872.83	5332.2	
872.99	4721.9	
873.16	3395.5	
873.33	2977.7	
873.5	5000.5	
873.67	5080.3	
873.83	3209.2	
874	3986.7	
874.17	5101.5	
874.34	5981.4	
874.5	3833.1	
874.67	3742.3	
874.84	5640.8	
875.01	4500.1	
875.17	4175.8	
875.34	3095.8	
875.51	5080.3	
875.68	5999.2	
875.84	3661.1	
876.01	4352.6	
876.18	5343.8	
876.34	5263.3	
876.51	3024.2	
876.68	3003	
876.85	4911	
877.01	5494.7	
877.18	4212	
877.35	3041.2	
877.52	5066.7	
877.68	4587.4	
877.85	2961.4	
878.02	2953.9	
878.18	4931.5	
878.35	4763.6	
878.52	2473.3	
878.69	3378.5	
878.85	5395	
879.02	5294.7	
879.19	4226.3	
879.35	3233.7	
879.52	5236.7	
879.69	5396.4	
879.86	2601.6	
880.02	3426.9	
880.19	4988.9	
880.36	5910.4	
880.52	3424.9	
880.69	3551.2	
880.86	5330.2	
881.02	5444.9	
881.19	3263.8	
881.36	3309.5	
881.52	5283.8	
881.69	4750.6	
881.86	3254.9	
882.02	3225.6	
882.19	5531.6	
882.36	6358.9	
882.52	3125.2	
882.69	4178.5	
882.86	5074.9	
883.02	5076.9	
883.19	3612.6	
883.36	3480.2	
883.52	5386.2	
883.69	6047.7	
883.86	3044.6	
884.02	2782.5	
884.19	5311.1	
884.36	4942.4	
884.52	3413.3	
884.69	3194.8	
884.86	4799.8	
885.02	5819	
885.19	3280.2	
885.36	3461.1	
885.52	4940.4	
885.69	5142.4	
885.86	4276.8	
886.02	3760.8	
886.19	5357.5	
886.35	4881	
886.52	3323.9	
886.69	4151.2	
886.85	4632.5	
887.02	5646.9	
887.19	5646.9	
887.35	5646.9	
887.52	5646.9	
887.68	5646.9	
887.85	5646.9	
888.02	5646.9	
888.18	5646.9	
888.35	5646.9	
888.51	5646.9	
888.68	5646.9	
888.85	5646.9	
889.01	5646.9	
889.18	5646.9	
889.35	5646.9	
889.51	5646.9	
889.68	5646.9	
889.84	5646.9	
890.01	5646.9	
890.17	5646.9	
890.34	5646.9	
890.51	5646.9	
890.67	5646.9	
890.84	5646.9	
891	5646.9	
891.17	5646.9	
891.34	5646.9	
891.5	5646.9	
891.67	5646.9	
891.83	5646.9	
892	5646.9	
892.16	5646.9	
892.33	5646.9	
892.5	5646.9	
892.66	5646.9	
892.83	5646.9	
892.99	5646.9	
893.16	5646.9	
893.32	5646.9	
893.49	5646.9	
893.65	5646.9	
893.82	5646.9	
893.99	5646.9	
894.15	5646.9	
894.32	5646.9	
894.48	5646.9	
894.65	5646.9	
894.81	5646.9	
894.98	5646.9	
895.14	5646.9	
895.31	5646.9	
895.47	5646.9	
895.64	5646.9	
895.81	5646.9	
895.97	5646.9	
896.14	5646.9	
896.3	5646.9	
896.47	5646.9	
896.63	5646.9	
896.8	5646.9	
896.96	5646.9	
897.13	5646.9	
897.29	5646.9	
897.46	5646.9	
897.62	5646.9	
897.79	5646.9	
897.95	5646.9	
898.12	5646.9	
898.28	5646.9	
898.45	5646.9	
898.61	5646.9	
898.78	5646.9	
898.94	5646.9	
899.11	5646.9	
899.27	5646.9	
899.44	5646.9	
899.6	5646.9	
899.77	5646.9	
899.93	5646.9	
900.1	5646.9	
900.26	5646.9	
900.43	5646.9	
900.59	5646.9	
900.76	5646.9	
900.92	5646.9	
901.09	5646.9	
901.25	5646.9	
901.42	5646.9	
901.58	5646.9	
901.75	5646.9	
901.91	5646.9	
902.07	5646.9	
902.24	5646.9	
902.4	5646.9	
902.57	5646.9	
902.73	5646.9	
902.9	5646.9	
903.06	5646.9	
903.23	5646.9	
903.39	5646.9	
903.56	5646.9	
903.72	5646.9	
903.88	5646.9	
904.05	5646.9	
904.21	5646.9	
904.38	5646.9	
904.54	5646.9	
904.71	5646.9	
904.87	5646.9	
905.03	5646.9	
905.2	5646.9	
905.36	5646.9	
905.53	5646.9	
905.69	5646.9	
905.86	5646.9	
906.02	5646.9	
906.18	5646.9	
906.35	5646.9	
906.51	5646.9	
906.68	5646.9	
906.84	5646.9	
907.01	5646.9	
907.17	5646.9	
907.33	5646.9	
907.5	5646.9	
907.66	5646.9	
907.83	5646.9	
907.99	5646.9	
908.15	5646.9	
908.32	5646.9	
908.48	5646.9	
908.65	5646.9	
908.81	5646.9	
908.97	5646.9	
909.14	5646.9	
909.3	5646.9	
909.47	5646.9	
909.63	5646.9	
909.79	5646.9	
909.96	5646.9	
910.12	5646.9	
910.28	5646.9	
910.45	5646.9	
910.61	5646.9	
910.78	5646.9	
910.94	5646.9	
911.1	5646.9	
911.27	5646.9	
911.43	5646.9	
911.59	5646.9	
911.76	5646.9	
911.92	5646.9	
912.08	5646.9	
912.25	5646.9	
912.41	5646.9	
912.57	5646.9	
912.74	5646.9	
912.9	5646.9	
913.07	5646.9	
913.23	5646.9	
913.39	5646.9	
913.56	5646.9	
913.72	5646.9	
913.88	5646.9	
914.05	5646.9	
914.21	5646.9	
914.37	5646.9	
914.54	5646.9	
914.7	5646.9	
914.86	5646.9	
915.03	5646.9	
915.19	5646.9	
