Wavelength	Intensities	
nm	a.u.	
179.22	1907.2	
179.44	1896.1	
179.65	1918.3	
179.86	1873.9	
180.08	1893.7	
180.29	4838	
180.51	3461.7	
180.72	5563	
180.94	6528.9	
181.15	3183.9	
181.37	3117	
181.58	5473.5	
181.79	5759.6	
182.01	3284.9	
182.22	3586.7	
182.44	5738.4	
182.65	4798.4	
182.87	4477.5	
183.08	3894.6	
183.29	5979.4	
183.51	4950.6	
183.72	3594.9	
183.94	5251	
184.15	5335	
184.37	5359.5	
184.58	3164.1	
184.79	4385.4	
185.01	4933.6	
185.22	5717.2	
185.44	4582	
185.65	3863.2	
185.86	5229.1	
186.08	4846.9	
186.29	3069.2	
186.51	3317.7	
186.72	4969.7	
186.94	5935.7	
187.15	3848.1	
187.36	3982.6	
187.58	7578.2	
187.79	5447.6	
188.01	4117.8	
188.22	6447.7	
188.43	6516	
188.65	5634.6	
188.86	3293.1	
189.08	3966.9	
189.29	5218.9	
189.5	5165	
189.72	3698.6	
189.93	3741.6	
190.15	5895.4	
190.36	7010.2	
190.57	4053.6	
190.79	3915	
191	5987.6	
191.22	5928.9	
191.43	4065.2	
191.64	3263.1	
191.86	6192.4	
192.07	5932.3	
192.29	3452.9	
192.5	3682.9	
192.71	5922.7	
192.93	5097.4	
193.14	3633.8	
193.35	3716.4	
193.57	5122	
193.78	5935.7	
194	2977.1	
194.21	3638.6	
194.42	4923.3	
194.64	5388.2	
194.85	3984	
195.07	4688.5	
195.28	5444.2	
195.49	4692.6	
195.71	4914.4	
195.92	3403	
196.13	5613.5	
196.35	5674.2	
196.56	5209.3	
196.78	3963.5	
196.99	6919.4	
197.2	6498.9	
197.42	4522.6	
197.63	3997.6	
197.84	4810	
198.06	5532.2	
198.27	3687	
198.48	4971.1	
198.7	5061.2	
198.91	5262.6	
199.13	4015.4	
199.34	3995.6	
199.55	5780.7	
199.77	4665.3	
199.98	3504.1	
200.19	3982.6	
200.41	5199.1	
200.62	4981.3	
200.83	4225.6	
201.05	4469.4	
201.26	5296	
201.47	5022.3	
201.69	3519.1	
201.9	3465.2	
202.11	5301.5	
202.33	6322.1	
202.54	3796.3	
202.76	4204.5	
202.97	5451.7	
203.18	5502.2	
203.4	4166.9	
203.61	4095.9	
203.82	5401.2	
204.04	5021.6	
204.25	4057	
204.46	4003.8	
204.68	5365.7	
204.89	5558.2	
205.1	3912.3	
205.32	3405.8	
205.53	5846.3	
205.74	5906.3	
205.96	2882.9	
206.17	4030.4	
206.38	5657.2	
206.6	5896.8	
206.81	4582.7	
207.02	3741	
207.24	5611.4	
207.45	6021.7	
207.66	3829	
207.88	3270.6	
208.09	5570.5	
208.3	5336.3	
208.52	3520.5	
208.73	3807.2	
208.94	5324	
209.15	6033.3	
209.37	3807.2	
209.58	3981.3	
209.79	5915.2	
210.01	5140.4	
210.22	3062.4	
210.43	3253.5	
210.65	5384.8	
210.86	5775.3	
211.07	3860.4	
211.29	3514.3	
211.5	5668.8	
211.71	5329.5	
211.93	3467.2	
212.14	3446	
212.35	5276.3	
212.56	5509	
212.78	4020.2	
212.99	3325.2	
213.2	6290	
213.42	5100.8	
213.63	3663.1	
213.84	3876.8	
214.06	4724.7	
214.27	4878.3	
214.48	3789.4	
214.69	4056.3	
214.91	6007.4	
215.12	6074.3	
215.33	4093.2	
215.55	4533.5	
215.76	6569.9	
215.97	5757.5	
216.18	3932.8	
216.4	3880.2	
216.61	5015.5	
216.82	5823.7	
217.04	3528.7	
217.25	3643.3	
217.46	6003.3	
217.67	5777.3	
217.89	3178.4	
218.1	3241.9	
218.31	5437.4	
218.53	5581.4	
218.74	3728	
218.95	3538.2	
219.16	5341.1	
219.38	6260.6	
219.59	3596.2	
219.8	4309.6	
220.01	6915.3	
220.23	5361.6	
220.44	4680.3	
220.65	3439.2	
220.87	5431.2	
221.08	5937.1	
221.29	3241.3	
221.5	4301.4	
221.72	7334.5	
221.93	5059.8	
222.14	3997	
222.35	4704.9	
222.57	5440.8	
222.78	5657.2	
222.99	3792.2	
223.2	4124.6	
223.42	5659.9	
223.63	5771.9	
223.84	2963.4	
224.05	2975	
224.27	6841.6	
224.48	6260.6	
224.69	4718.5	
224.9	4046.8	
225.12	5609.4	
225.33	5337	
225.54	3218.7	
225.75	3530	
225.97	4915.1	
226.18	5209.3	
226.39	3887.7	
226.6	3597.6	
226.82	5091.3	
227.03	5020.3	
227.24	3975.8	
227.45	3297.2	
227.67	5717.9	
227.88	6256.5	
228.09	4506.9	
228.3	4472.8	
228.52	5771.2	
228.73	5324	
228.94	3695.9	
229.15	3317	
229.36	5317.9	
229.58	5235.3	
229.79	3780.6	
230	4349.2	
230.21	6374	
230.43	5502.9	
230.64	4033.8	
230.85	4145.1	
231.06	5773.9	
231.28	5803.9	
231.49	3323.2	
231.7	3901.4	
231.91	5631.9	
232.12	5363.6	
232.34	3400.3	
232.55	3889.8	
232.76	5974.6	
232.97	5567.7	
233.18	3506.1	
233.4	3904.8	
233.61	5641.5	
233.82	5120.6	
234.03	3654.3	
234.25	3590.8	
234.46	7399.3	
234.67	5380.7	
234.88	4074.1	
235.09	3571	
235.31	5644.2	
235.52	5219.6	
235.73	3955.3	
235.94	3325.9	
236.15	5096.7	
236.37	6548	
236.58	3543	
236.79	3867.9	
237	5611.4	
237.21	4880.3	
237.43	4194.9	
237.64	3234.4	
237.85	9625.5	
238.06	4921.3	
238.27	4220.2	
238.48	3357.3	
238.7	5722	
238.91	5196.4	
239.12	3793.5	
239.33	3837.2	
239.54	4983.4	
239.76	5236	
239.97	3777.1	
240.18	3819.5	
240.39	6715.3	
240.6	5671.5	
240.82	3951.9	
241.03	3264.5	
241.24	5373.9	
241.45	6280.4	
241.66	3508.2	
241.87	4161.5	
242.09	6061.3	
242.3	6451.1	
242.51	4172.4	
242.72	3825.6	
242.93	5784.8	
243.14	5332.9	
243.36	4487.8	
243.57	4796.3	
243.78	6183.5	
243.99	5672.9	
244.2	3874.1	
244.41	3547.1	
244.63	4929.5	
244.84	5706.3	
245.05	4083	
245.26	3858.4	
245.47	5657.2	
245.68	5907.7	
245.9	5102.9	
246.11	4035.2	
246.32	5136.3	
246.53	5628.5	
246.74	6194.4	
246.95	3241.9	
247.16	4900.1	
247.38	5393	
247.59	3172.3	
247.8	3889.8	
248.01	5055.8	
248.22	5283.8	
248.43	3506.1	
248.64	3730	
248.86	4729.4	
249.07	5130.2	
249.28	3347.1	
249.49	3943.7	
249.7	5920.7	
249.91	6040.8	
250.12	3186.6	
250.34	3237.2	
250.55	5483.8	
250.76	5345.9	
250.97	3992.9	
251.18	4028.4	
251.39	6078.4	
251.6	5540.4	
251.81	4063.9	
252.03	3999	
252.24	5194.3	
252.45	5881.1	
252.66	3364.8	
252.87	4218.1	
253.08	5393.7	
253.29	7060.7	
253.5	3398.3	
253.72	4676.2	
253.93	5200.5	
254.14	6353.5	
254.35	3695.2	
254.56	3771.7	
254.77	5576.6	
254.98	5020.9	
255.19	3564.8	
255.41	4705.5	
255.62	5456.5	
255.83	6005.3	
256.04	4115.7	
256.25	4026.3	
256.46	6642.9	
256.67	5020.3	
256.88	3972.4	
257.09	4369.7	
257.31	5083.1	
257.52	5096	
257.73	4952	
257.94	3615.3	
258.15	5223	
258.36	5407.3	
258.57	4573.1	
258.78	2933.4	
258.99	5849.7	
259.2	5186.8	
259.41	3663.1	
259.63	3790.1	
259.84	6231.3	
260.05	6695.5	
260.26	4826.4	
260.47	3496.6	
260.68	5941.8	
260.89	5280.3	
261.1	4414.1	
261.31	3480.2	
261.52	5905.7	
261.73	6275.7	
261.95	4713.1	
262.16	4157.4	
262.37	6057.9	
262.58	6206.7	
262.79	4715.1	
263	3721.2	
263.21	5459.2	
263.42	4908.3	
263.63	3798.3	
263.84	3713	
264.05	5913.9	
264.26	6255.2	
264.47	4557.4	
264.69	4146.5	
264.9	6071.5	
265.11	5603.2	
265.32	3518.4	
265.53	3636.5	
265.74	5483.8	
265.95	4805.9	
266.16	3927.3	
266.37	4313.7	
266.58	5510.4	
266.79	5183.4	
267	3672	
267.21	3385.3	
267.42	4961.5	
267.63	5396.4	
267.84	3834.5	
268.06	3260.4	
268.27	5778.7	
268.48	6082.5	
268.69	3722.5	
268.9	4442.7	
269.11	6042.2	
269.32	4846.2	
269.53	3850.2	
269.74	3547.1	
269.95	5707.7	
270.16	4721.3	
270.37	3876.8	
270.58	4470	
270.79	5212.8	
271	5864.7	
271.21	4146.5	
271.42	3878.9	
271.63	5459.9	
271.84	4969.7	
272.05	3065.8	
272.26	3498.6	
272.47	5427.8	
272.68	5578.7	
272.89	3702	
273.11	4283	
273.32	5154.7	
273.53	6276.3	
273.74	4170.3	
273.95	4070	
274.16	5964.4	
274.37	5436.7	
274.58	4229.7	
274.79	3351.8	
275	5465.3	
275.21	6017.6	
275.42	5010.7	
275.63	4318.5	
275.84	5588.9	
276.05	7075.7	
276.26	4062.5	
276.47	3795.6	
276.68	5233.9	
276.89	6380.1	
277.1	4375.1	
277.31	3346.4	
277.52	5661.3	
277.73	5782.1	
277.94	3366.9	
278.15	3697.9	
278.36	5568.4	
278.57	5077.6	
278.78	3713	
278.99	4146.5	
279.2	5003.2	
279.41	4948.6	
279.62	4913.1	
279.83	3432.4	
280.04	6571.9	
280.25	4870.8	
280.46	4848.9	
280.67	3823.6	
280.88	5012.1	
281.09	6062	
281.3	4058.4	
281.51	5109	
281.72	5094.7	
281.93	5829.9	
282.14	3573	
282.35	3923.9	
282.56	5799.8	
282.77	5856.5	
282.98	3735.5	
283.19	4560.8	
283.4	7217	
283.61	5337	
283.82	3269.2	
284.03	4745.8	
284.24	5427.8	
284.45	6043.6	
284.66	4765.6	
284.87	4585.4	
285.08	5965.1	
285.29	6022.4	
285.5	3282.9	
285.71	3735.5	
285.92	5978	
286.12	6633.4	
286.33	4730.8	
286.54	3736.9	
286.75	5890.6	
286.96	5285.1	
287.17	3418.1	
287.38	4670.7	
287.59	4940.4	
287.8	4956.8	
288.01	3728	
288.22	4328.7	
288.43	5877.7	
288.64	4911.7	
288.85	4484.4	
289.06	4257.7	
289.27	5780.1	
289.48	6325.5	
289.69	4702.8	
289.9	4300.7	
290.11	6040.8	
290.32	5138.4	
290.53	4508.9	
290.74	4130.8	
290.94	5739.8	
291.15	5847.6	
291.36	3671.3	
291.57	4280.3	
291.78	5178.6	
291.99	4787.5	
292.2	3505.4	
292.41	4191.5	
292.62	5959.6	
292.83	5747.3	
293.04	5178.6	
293.25	3545.7	
293.46	5119.2	
293.67	5971.9	
293.88	3590.1	
294.09	3504.8	
294.29	4939.7	
294.5	5499.5	
294.71	3897.3	
294.92	3709.6	
295.13	5143.8	
295.34	6457.2	
295.55	3252.2	
295.76	3336.8	
295.97	5744.6	
296.18	6571.2	
296.39	3428.3	
296.6	3581.9	
296.81	5484.5	
297.01	5807.4	
297.22	3736.2	
297.43	3575.1	
297.64	5027.8	
297.85	4995	
298.06	3007.8	
298.27	3211.2	
298.48	5339.1	
298.69	5066.7	
298.9	3880.2	
299.11	3554.6	
299.31	4908.3	
299.52	4949.9	
299.73	4164.2	
299.94	4080.2	
300.15	5338.4	
300.36	4996.4	
300.57	4142.4	
300.78	4067.3	
300.99	5214.8	
301.2	5483.8	
301.4	3600.3	
301.61	3932.1	
301.82	5687.9	
302.03	5788.9	
302.24	4388.1	
302.45	3424.2	
302.66	5715.2	
302.87	6098.9	
303.08	3631	
303.29	4894.6	
303.49	5085.8	
303.7	5429.2	
303.91	3195.5	
304.12	4727.4	
304.33	4902.2	
304.54	5560.9	
304.75	3599.6	
304.96	3476.1	
305.16	5681.7	
305.37	6393.1	
305.58	3119.1	
305.79	3255.6	
306	5724.1	
306.21	4752.7	
306.42	3627.6	
306.63	5474.2	
306.83	5207.3	
307.04	5937.1	
307.25	4009.9	
307.46	3945.1	
307.67	4629.8	
307.88	5808.7	
308.09	3526.6	
308.29	3701.4	
308.5	5451.7	
308.71	5959.6	
308.92	3870	
309.13	3426.3	
309.34	5306.3	
309.55	5343.2	
309.75	4475.5	
309.96	4080.2	
310.17	5825.1	
310.38	5063.9	
310.59	4369	
310.8	4074.1	
311.01	6019.7	
311.21	5286.5	
311.42	3430.3	
311.63	3546.4	
311.84	5178.6	
312.05	5522.7	
312.26	4004.5	
312.46	4420.9	
312.67	5271.5	
312.88	4895.3	
313.09	3495.2	
313.3	3413.3	
313.51	6167.8	
313.71	6541.2	
313.92	3477.5	
314.13	3674.7	
314.34	5511.1	
314.55	5322	
314.76	4540.3	
314.96	3892.5	
315.17	5484.5	
315.38	5874.9	
315.59	3537.5	
315.8	3358.7	
316.01	6192.4	
316.21	6234	
316.42	3381.9	
316.63	3829	
316.84	5215.5	
317.05	6081.1	
317.26	4152.6	
317.46	3728.7	
317.67	5279.7	
317.88	5786.2	
318.09	4126.7	
318.3	3264.5	
318.5	5128.8	
318.71	5732.3	
318.92	5679.7	
319.13	4126.7	
319.34	5924.1	
319.54	6049.7	
319.75	3293.8	
319.96	3131.3	
320.17	5795.8	
320.38	5992.4	
320.58	3186.6	
320.79	3808.5	
321	5935	
321.21	6112.5	
321.42	3837.2	
321.62	3203	
321.83	5016.8	
322.04	5441.5	
322.25	3689.1	
322.46	3532.7	
322.66	5537	
322.87	5610.1	
323.08	4329.4	
323.29	3474	
323.5	6464.1	
323.7	4988.9	
323.91	4747.9	
324.12	4212	
324.33	5438	
324.53	5674.2	
324.74	4076.1	
324.95	4262.5	
325.16	4803.2	
325.37	5227.8	
325.57	3540.3	
325.78	3590.8	
325.99	5483.1	
326.2	4920.6	
326.4	5115.1	
326.61	3255.6	
326.82	5336.3	
327.03	5555.5	
327.24	5013.4	
327.44	4736.3	
327.65	5658.5	
327.86	4548.5	
328.07	4058.4	
328.27	3330.7	
328.48	6064.7	
328.69	4945.8	
328.9	5029.8	
329.1	3711.6	
329.31	5248.3	
329.52	6257.9	
329.73	3468.6	
329.93	3931.4	
330.14	5401.2	
330.35	5644.9	
330.56	5720.7	
330.76	4318.5	
330.97	5201.2	
331.18	5772.5	
331.39	3909.6	
331.59	3168.9	
331.8	5961	
332.01	6062	
332.22	3594.2	
332.42	4142.4	
332.63	5595.1	
332.84	5102.9	
333.05	3913	
333.25	3573.7	
333.46	5151.3	
333.67	5383.4	
333.88	3668.6	
334.08	4046.1	
334.29	7158.3	
334.5	6073.6	
334.7	3424.2	
334.91	5003.9	
335.12	4960.2	
335.33	5790.3	
335.53	3844	
335.74	5700.2	
335.95	5185.5	
336.16	5064.6	
336.36	3889.8	
336.57	4459.8	
336.78	4911.7	
336.98	5957.5	
337.19	4788.2	
337.4	3849.5	
337.61	6477	
337.81	4942.4	
338.02	3515	
338.23	4628.4	
338.43	6171.2	
338.64	5104.2	
338.85	3506.1	
339.05	4616.8	
339.26	6216.3	
339.47	4815.5	
339.68	3506.8	
339.88	5152	
340.09	5641.5	
340.3	5899.5	
340.5	4153.3	
340.71	3134.1	
340.92	4855.1	
341.13	6089.3	
341.33	3416.7	
341.54	4160.8	
341.75	5591	
341.95	5231.2	
342.16	3962.1	
342.37	4248.9	
342.57	4983.4	
342.78	5356.1	
342.99	4330.8	
343.19	3188	
343.4	5770.5	
343.61	5590.3	
343.81	3781.9	
344.02	3426.9	
344.23	5797.8	
344.43	6198.5	
344.64	4349.9	
344.85	4244.1	
345.06	5652.4	
345.26	5971.2	
345.47	4023.6	
345.68	4780	
345.88	4722.6	
346.09	5884.5	
346.3	4132.1	
346.5	3075.4	
346.71	5403.2	
346.92	5061.2	
347.12	3208.5	
347.33	4008.6	
347.54	5950.7	
347.74	6305	
347.95	4007.9	
348.16	2960	
348.36	5234.6	
348.57	4856.4	
348.78	3994.9	
348.98	4332.8	
349.19	5317.2	
349.39	4845.5	
349.6	3205.8	
349.81	3575.1	
350.01	5605.3	
350.22	5113.1	
350.43	3876.8	
350.63	4642.1	
350.84	5438.7	
351.05	5137.7	
351.25	3550.5	
351.46	3192.1	
351.67	5968.5	
351.87	5060.5	
352.08	3734.8	
352.29	4246.1	
352.49	5793.7	
352.7	5991	
352.9	3405.1	
353.11	4285.7	
353.32	6424.5	
353.52	5104.9	
353.73	3306.1	
353.94	4290.5	
354.14	5653.8	
354.35	5457.8	
354.55	3455.6	
354.76	3824.9	
354.97	5631.2	
355.17	5418.9	
355.38	3247.4	
355.59	4573.1	
355.79	4992.3	
356	5523.4	
356.2	3842.7	
356.41	3304.1	
356.62	4750.6	
356.82	5288.5	
357.03	4087.1	
357.24	3669.3	
357.44	5035.3	
357.65	5154.1	
357.85	4907.6	
358.06	3870.7	
358.27	4748.6	
358.47	4949.9	
358.68	3182.5	
358.88	4067.9	
359.09	5543.9	
359.3	5900.9	
359.5	4754.7	
359.71	4139.6	
359.91	6335.1	
360.12	5735	
360.33	3946.4	
360.53	4497.3	
360.74	5046.9	
360.94	4999.1	
361.15	4216.8	
361.36	3455.6	
361.56	5778	
361.77	5195.7	
361.97	4718.5	
362.18	3718.4	
362.38	5748	
362.59	4831.2	
362.8	3391.4	
363	3257	
363.21	4632.5	
363.41	5371.8	
363.62	3883.6	
363.83	4956.8	
364.03	5401.2	
364.24	6324.8	
364.44	4997	
364.65	4988.2	
364.85	5131.5	
365.06	5040.1	
365.27	3535.5	
365.47	3592.1	
365.68	6146.6	
365.88	5134.9	
366.09	3933.5	
366.29	3584.6	
366.5	5384.1	
366.71	5772.5	
366.91	4888.5	
367.12	4052.2	
367.32	6340.5	
367.53	5640.8	
367.73	4044.1	
367.94	4928.1	
368.14	5590.3	
368.35	6520.7	
368.56	4027	
368.76	3424.9	
368.97	5623.7	
369.17	7370.6	
369.38	3544.4	
369.58	3792.8	
369.79	4762.9	
369.99	6054.5	
370.2	4770.4	
370.4	3895.2	
370.61	5425.1	
370.82	6541.9	
371.02	3792.2	
371.23	3112.9	
371.43	4637.3	
371.64	5940.5	
371.84	3799	
372.05	4934.9	
372.25	7276.4	
372.46	5672.2	
372.66	3783.3	
372.87	3698.6	
373.07	5722	
373.28	7319.4	
373.48	4728.8	
373.69	4411.3	
373.9	5150	
374.1	5216.2	
374.31	4627.7	
374.51	4162.8	
374.72	5942.5	
374.92	4860.5	
375.13	4706.2	
375.33	3961.5	
375.54	5511.1	
375.74	4910.3	
375.95	4083.6	
376.15	5232.6	
376.36	5544.5	
376.56	5372.5	
376.77	4050.2	
376.97	4523.3	
377.18	6503	
377.38	5535	
377.59	4874.2	
377.79	3555.3	
378	5384.8	
378.2	5787.6	
378.41	3613.3	
378.61	3602.4	
378.82	5841.5	
379.02	4939	
379.23	3803.8	
379.43	4831.2	
379.64	5893.4	
379.84	5532.2	
380.05	3575.8	
380.25	3551.2	
380.46	5713.8	
380.66	5208	
380.87	4915.8	
381.07	5247.6	
381.28	6198.5	
381.48	5631.2	
381.69	3693.2	
381.89	3675.4	
382.1	4666.6	
382.3	5795.8	
382.51	4767.7	
382.71	5665.4	
382.91	5637.4	
383.12	6143.9	
383.32	4081.6	
383.53	4176.5	
383.73	5527.5	
383.94	5292	
384.14	4123.2	
384.35	3306.1	
384.55	5242.8	
384.76	5707	
384.96	4115.1	
385.17	4386.1	
385.37	5672.9	
385.58	4949.3	
385.78	4391.5	
385.98	3277.4	
386.19	5203.9	
386.39	5543.2	
386.6	3776.5	
386.8	4028.4	
387.01	5671.5	
387.21	5707	
387.42	4376.5	
387.62	4996.4	
387.83	4994.3	
388.03	5651.7	
388.23	4024.9	
388.44	4847.5	
388.64	4650.3	
388.85	4792.2	
389.05	4362.2	
389.26	4980.7	
389.46	6591.7	
389.67	5995.1	
389.87	4319.2	
390.07	4414.1	
390.28	5224.4	
390.48	4820.9	
390.69	3599	
390.89	3863.8	
391.1	5066.7	
391.3	5929.6	
391.5	5076.9	
391.71	5588.9	
391.91	5636.7	
392.12	6657.3	
392.32	5079.6	
392.53	4421.6	
392.73	5044.1	
392.93	5285.8	
393.14	4006.5	
393.34	4801.8	
393.55	5788.2	
393.75	5271.5	
393.95	4051.6	
394.16	3960.8	
394.36	5020.3	
394.57	5743.9	
394.77	3506.1	
394.98	3919.1	
395.18	4972.5	
395.38	5130.2	
395.59	4756.7	
395.79	3742.3	
396	5070.1	
396.2	5522	
396.4	4522.6	
396.61	4441.4	
396.81	5748	
397.02	4981.3	
397.22	4721.3	
397.42	4793.6	
397.63	5696.1	
397.83	4883.7	
398.04	3639.9	
398.24	4078.2	
398.44	5490.6	
398.65	4502.8	
398.85	3461.7	
399.05	3594.2	
399.26	4863.2	
399.46	6522.8	
399.67	3951.9	
399.87	3626.3	
400.07	5241.4	
400.28	5589.6	
400.48	3760.1	
400.69	4724	
400.89	5701.5	
401.09	6145.3	
401.3	3620.8	
401.5	4707.6	
401.7	6399.9	
401.91	6654.5	
402.11	3961.5	
402.32	4197	
402.52	5741.8	
402.72	5729.5	
402.93	4365.6	
403.13	3376.4	
403.33	6548	
403.54	5350.7	
403.74	4149.2	
403.94	5003.9	
404.15	5426.4	
404.35	6500.9	
404.56	3932.1	
404.76	5758.9	
404.96	5755.5	
405.17	5621	
405.37	4844.8	
405.57	4362.9	
405.78	5849	
405.98	5328.8	
406.18	3973.7	
406.39	4810	
406.59	5774.6	
406.79	5370.5	
407	3771.7	
407.2	3858.4	
407.4	5782.1	
407.61	5972.6	
407.81	3711.6	
408.01	5935	
408.22	4723.3	
408.42	6609.5	
408.62	4814.1	
408.83	4187.4	
409.03	5192.3	
409.23	5091.9	
409.44	4266.6	
409.64	4575.8	
409.84	6112.5	
410.05	5966.4	
410.25	4345.1	
410.45	4080.9	
410.66	5389.6	
410.86	7841.7	
411.06	4418.8	
411.27	4339.6	
411.47	7558.4	
411.67	5557.5	
411.88	4572.4	
412.08	4760.8	
412.28	6230.6	
412.49	6621.8	
412.69	4282.3	
412.89	4264.6	
413.09	6485.9	
413.3	6282.5	
413.5	4358.1	
413.7	3925.3	
413.91	5578.7	
414.11	6374	
414.31	4173.1	
414.52	4523.3	
414.72	6053.1	
414.92	5927.5	
415.12	4171.7	
415.33	4688.5	
415.53	6320	
415.73	6518	
415.94	5027.1	
416.14	4472.8	
416.34	5354.1	
416.55	5132.9	
416.75	5651.7	
416.95	5049.6	
417.15	6326.9	
417.36	7062.1	
417.56	5774.6	
417.76	4874.2	
417.97	6612.9	
418.17	6306.4	
418.37	4486.4	
418.57	4504.2	
418.78	6114.6	
418.98	5849	
419.18	5411.4	
419.38	5278.3	
419.59	5833.3	
419.79	5545.9	
419.99	4376.5	
420.2	4759.5	
420.4	6349.4	
420.6	6504.3	
420.8	4306.9	
421.01	4211.3	
421.21	6156.2	
421.41	6352.8	
421.61	4700.8	
421.82	4413.4	
422.02	5688.6	
422.22	6679.8	
422.42	5167	
422.63	4897.4	
422.83	5847	
423.03	6981.5	
423.23	4936.3	
423.44	3913	
423.64	5853.1	
423.84	5712.5	
424.04	4356	
424.25	4046.8	
424.45	6892.8	
424.65	6799.3	
424.85	3897.3	
425.06	4444.1	
425.26	6770.6	
425.46	5836.7	
425.66	4938.3	
425.87	4671.4	
426.07	6690.7	
426.27	6498.2	
426.47	4818.2	
426.67	4176.5	
426.88	6938.5	
427.08	6437.4	
427.28	5014.8	
427.48	4096.6	
427.69	5330.9	
427.89	6040.8	
428.09	4958.1	
428.29	4154	
428.5	6730.3	
428.7	6162.3	
428.9	3988.1	
429.1	4614.1	
429.3	6089.3	
429.51	6456.6	
429.71	4363.5	
429.91	5137	
430.11	6311.2	
430.31	6622.4	
430.52	4628.4	
430.72	4872.1	
430.92	6904.4	
431.12	6442.2	
431.32	4255.7	
431.53	4681.7	
431.73	5283.1	
431.93	6990.4	
432.13	4220.9	
432.33	4072	
432.54	5729.5	
432.74	6155.5	
432.94	3979.2	
433.14	5000.5	
433.34	6364.4	
433.55	5779.4	
433.75	4988.2	
433.95	6667.5	
434.15	6098.9	
434.35	5825.1	
434.56	4185.4	
434.76	3695.2	
434.96	6089.3	
435.16	6236.7	
435.36	4054.3	
435.56	5132.9	
435.77	5669.5	
435.97	5758.2	
436.17	5888.6	
436.37	5100.1	
436.57	5613.5	
436.78	5483.8	
436.98	5221.6	
437.18	5623.7	
437.38	6238.8	
437.58	5864.7	
437.78	5734.3	
437.99	4447.5	
438.19	6391.7	
438.39	7191.8	
438.59	4478.2	
438.79	3991.5	
438.99	7102.4	
439.2	5862.7	
439.4	4110.3	
439.6	4020.2	
439.8	6171.9	
440	7187	
440.2	5018.9	
440.4	5098.8	
440.61	6469.5	
440.81	6982.9	
441.01	4154	
441.21	4972.5	
441.41	6852.5	
441.61	6467.5	
441.81	5228.5	
442.02	6262	
442.22	7317.4	
442.42	6507.1	
442.62	4142.4	
442.82	4279.6	
443.02	6841.6	
443.22	5957.5	
443.43	4622.3	
443.63	4203.1	
443.83	5744.6	
444.03	5794.4	
444.23	5346.6	
444.43	4945.8	
444.63	6035.4	
444.83	7278.5	
445.04	4321.9	
445.24	5587.5	
445.44	6473.6	
445.64	6561.7	
445.84	5093.3	
446.04	5098.1	
446.24	5954.1	
446.44	6875	
446.65	4357.4	
446.85	4717.8	
447.05	6304.3	
447.25	6903	
447.45	4783.4	
447.65	4222.2	
447.85	6189	
448.05	5887.2	
448.25	5239.4	
448.46	4994.3	
448.66	6262.7	
448.86	5926.8	
449.06	4044.7	
449.26	5212.8	
449.46	6573.3	
449.66	5675.6	
449.86	4689.2	
450.06	4673.5	
450.26	5815.5	
450.47	6301.6	
450.67	4957.4	
450.87	5297.4	
451.07	6417.7	
451.27	6196.5	
451.47	4233.2	
451.67	4840.7	
451.87	5894.7	
452.07	6967.9	
452.27	4453.6	
452.47	4439.3	
452.67	6162.3	
452.88	6794.5	
453.08	3849.5	
453.28	5780.7	
453.48	7306.5	
453.68	6163	
453.88	4323.3	
454.08	4616.8	
454.28	6476.4	
454.48	6181.5	
454.68	5098.8	
454.88	5648.3	
455.08	6660.7	
455.28	6272.2	
455.48	4205.8	
455.68	4766.3	
455.89	7016.3	
456.09	6647	
456.29	4575.2	
456.49	4520.5	
456.69	6853.2	
456.89	6169.2	
457.09	5002.5	
457.29	5318.6	
457.49	6388.3	
457.69	6557.6	
457.89	4745.1	
458.09	4297.3	
458.29	6215.6	
458.49	6861.4	
458.69	5185.5	
458.89	4625	
459.09	7043	
459.29	7256	
459.49	4763.6	
459.69	5545.9	
459.9	6682.5	
460.1	6081.1	
460.3	4687.1	
460.5	4472.1	
460.7	6537.1	
460.9	6366.5	
461.1	4090.5	
461.3	5351.3	
461.5	7204.1	
461.7	6825.9	
461.9	4425.7	
462.1	4924.7	
462.3	6309.1	
462.5	6868.2	
462.7	4547.2	
462.9	4571.7	
463.1	7869.7	
463.3	7441.6	
463.5	4794.3	
463.7	5535.7	
463.9	6406.7	
464.1	6765.8	
464.3	4749.9	
464.5	5089.9	
464.7	6998.6	
464.9	6623.1	
465.1	6370.5	
465.3	5355.4	
465.5	7330.4	
465.7	7256	
465.9	5553.4	
466.1	5491.3	
466.3	7052.5	
466.5	7008.1	
466.7	6272.2	
466.9	5175.9	
467.1	6923.5	
467.3	7808.2	
467.5	6154.8	
467.7	5031.9	
467.9	8027.4	
468.1	8806.3	
468.3	5870.2	
468.5	6268.1	
468.7	6772.6	
468.9	6810.2	
469.1	5358.9	
469.3	6036.7	
469.5	8733.2	
469.7	6348.7	
469.9	5786.2	
470.1	5075.5	
470.3	6847	
470.5	6845	
470.7	6366.5	
470.9	5255.1	
471.1	6566.5	
471.3	7100.3	
471.5	4967.7	
471.69	6903	
471.89	6501.6	
472.09	6027.9	
472.29	5831.9	
472.49	6255.2	
472.69	6166.4	
472.89	7008.8	
473.09	4937	
473.29	5111.7	
473.49	6460.7	
473.69	6564.4	
473.89	6030.6	
474.09	5217.5	
474.29	7830.7	
474.49	7620.5	
474.69	6014.9	
474.89	5444.9	
475.09	6636.1	
475.29	6595.8	
475.49	4869.4	
475.69	5118.6	
475.88	8219.2	
476.08	6896.9	
476.28	4787.5	
476.48	5233.9	
476.68	7386.3	
476.88	7266.9	
477.08	5125.4	
477.28	5402.5	
477.48	6813.6	
477.68	7513.3	
477.88	4912.4	
478.08	5324.7	
478.28	7673.7	
478.48	6860.7	
478.67	5322	
478.87	4806.6	
479.07	7501	
479.27	6978.8	
479.47	5580.7	
479.67	5531.6	
479.87	7375.4	
480.07	7823.9	
480.27	4870.1	
480.47	6503.7	
480.67	7115.3	
480.87	7609.6	
481.06	5096.7	
481.26	5870.8	
481.46	6901.7	
481.66	6878.4	
481.86	5559.6	
482.06	6520	
482.26	6668.2	
482.46	7724.3	
482.66	5462.6	
482.86	5056.4	
483.05	6980.2	
483.25	6358.3	
483.45	7873.1	
483.65	5494	
483.85	6623.8	
484.05	6900.3	
484.25	5916.6	
484.45	6360.3	
484.65	7788.4	
484.84	7639.6	
485.04	5272.2	
485.24	5314.5	
485.44	8022.6	
485.64	6338.5	
485.84	4658.4	
486.04	5999.9	
486.24	6642.9	
486.44	7053.9	
486.63	4595	
486.83	5397.8	
487.03	6576	
487.23	6825.9	
487.43	4793.6	
487.63	7087.3	
487.83	6777.4	
488.02	7828	
488.22	5610.1	
488.42	6204.7	
488.62	7632.8	
488.82	6550.8	
489.02	5330.2	
489.22	5362.9	
489.41	7518.1	
489.61	7202	
489.81	4981.3	
490.01	5114.5	
490.21	7441.6	
490.41	8119.5	
490.61	4990.2	
490.8	5195	
491	6945.3	
491.2	6341.9	
491.4	5763	
491.6	4902.2	
491.8	7017.7	
491.99	7219.1	
492.19	4825.7	
492.39	5205.9	
492.59	7535.8	
492.79	7514.7	
492.99	5967.1	
493.18	5011.4	
493.38	7524.9	
493.58	8262.2	
493.78	5716.6	
493.98	5298.8	
494.18	7220.5	
494.37	6638.8	
494.57	5872.9	
494.77	5756.2	
494.97	7361.1	
495.17	7638.2	
495.37	5306.3	
495.56	5696.8	
495.76	7714	
495.96	7423.2	
496.16	6559	
496.36	5383.4	
496.55	7604.1	
496.75	7116	
496.95	5769.1	
497.15	5632.6	
497.35	7557.7	
497.54	7535.2	
497.74	5498.8	
497.94	7167.9	
498.14	8244.4	
498.34	8013	
498.53	5155.4	
498.73	5940.5	
498.93	6883.9	
499.13	7541.3	
499.33	5742.5	
499.52	6308.4	
499.72	7476.5	
499.92	7906.5	
500.12	5427.1	
500.32	5772.5	
500.51	7744.7	
500.71	7497.6	
500.91	6467.5	
501.11	6081.1	
501.31	7605.5	
501.5	8092.2	
501.7	6700.3	
501.9	5618.9	
502.1	7419.1	
502.29	7778.2	
502.49	6128.9	
502.69	6670.9	
502.89	7674.4	
503.09	7690.1	
503.28	5270.8	
503.48	5415.5	
503.68	6896.9	
503.88	6950.8	
504.07	6311.2	
504.27	5890.6	
504.47	7309.9	
504.67	7547.4	
504.86	6301.6	
505.06	6043.6	
505.26	7073.7	
505.46	8830.2	
505.65	5869.5	
505.85	6161	
506.05	7018.4	
506.25	7531.7	
506.44	5322	
506.64	6248.4	
506.84	6920.8	
507.04	7935.2	
507.23	5538.4	
507.43	6070.2	
507.63	9018.6	
507.83	7274.4	
508.02	6111.1	
508.22	5703.6	
508.42	9222.7	
508.62	7015	
508.81	5935	
509.01	6471.6	
509.21	6879.8	
509.4	7169.9	
509.6	6178.7	
509.8	5523.4	
510	7239.6	
510.19	8464.9	
510.39	5483.8	
510.59	5623.7	
510.79	6959.7	
510.98	8315.4	
511.18	5648.3	
511.38	5767.1	
511.57	7835.5	
511.77	7649.8	
511.97	6500.3	
512.17	5360.9	
512.36	7846.5	
512.56	7763.8	
512.76	5494.7	
512.95	5317.9	
513.15	7944.8	
513.35	6626.5	
513.55	6330.3	
513.74	5583.4	
513.94	7894.2	
514.14	7232.7	
514.33	6469.5	
514.53	6244.3	
514.73	7257.3	
514.92	7380.2	
515.12	5715.2	
515.32	5438	
515.51	7438.2	
515.71	8080.6	
515.91	7060	
516.11	5545.9	
516.3	9065.7	
516.5	7037.5	
516.7	6123.4	
516.89	6785.6	
517.09	7166.5	
517.29	7089.4	
517.48	6455.9	
517.68	5864	
517.88	6946.7	
518.07	7531.1	
518.27	6367.1	
518.47	5350	
518.66	8109.3	
518.86	6746	
519.06	5292.6	
519.25	5782.8	
519.45	7146.7	
519.65	8570.1	
519.84	6336.4	
520.04	6999.3	
520.24	8948.3	
520.43	7740.6	
520.63	6064	
520.83	5879	
521.02	7055.3	
521.22	7699	
521.42	6408.1	
521.61	6953.5	
521.81	7316.7	
522.01	7488.1	
522.2	6187.6	
522.4	5995.8	
522.6	7909.9	
522.79	6675.7	
522.99	6066.8	
523.18	5364.3	
523.38	7619.8	
523.58	7552.9	
523.77	7200	
523.97	5316.5	
524.17	9385.8	
524.36	8628.1	
524.56	6721.4	
524.76	6262	
524.95	7574.8	
525.15	7202	
525.34	6062	
525.54	6043.6	
525.74	7919.5	
525.93	6866.2	
526.13	7129	
526.33	5978	
526.52	8215.1	
526.72	7674.4	
526.91	7168.6	
527.11	6445.6	
527.31	8166.6	
527.5	8669.7	
527.7	6345.3	
527.89	5496.1	
528.09	7154.9	
528.29	7686.7	
528.48	6834.8	
528.68	6422.4	
528.87	8107.9	
529.07	8150.2	
529.27	6348.7	
529.46	5769.1	
529.66	7708.6	
529.85	8106.5	
530.05	5648.3	
530.25	6434.7	
530.44	9088.9	
530.64	7613	
530.83	6040.8	
531.03	6307.7	
531.23	8018.5	
531.42	8014.4	
531.62	7103	
531.81	6213.5	
532.01	8165.3	
532.21	8615.8	
532.4	6032	
532.6	6409.5	
532.79	8908.7	
532.99	8202.8	
533.18	6321.4	
533.38	7445.7	
533.58	7690.8	
533.77	8485.4	
533.97	6257.2	
534.16	7021.1	
534.36	8670.4	
534.55	7741.3	
534.75	7225.9	
534.95	6430.6	
535.14	8611.7	
535.34	7738.6	
535.53	6011.5	
535.73	7915.4	
535.92	9139.4	
536.12	7985	
536.31	6178	
536.51	7402.7	
536.71	8322.9	
536.9	7920.9	
537.1	6357.6	
537.29	6524.8	
537.49	8694.3	
537.68	7716.1	
537.88	6870.3	
538.07	6143.9	
538.27	7989.8	
538.46	8975.6	
538.66	6023.8	
538.86	6436.1	
539.05	8006.2	
539.25	8391.9	
539.44	6679.8	
539.64	6351.4	
539.83	7895.6	
540.03	8922.3	
540.22	6139.1	
540.42	6386.2	
540.61	8199.4	
540.81	8308.6	
541	6861.4	
541.2	7427.3	
541.39	7746.8	
541.59	8077.9	
541.78	7077.1	
541.98	6268.1	
542.18	7448.5	
542.37	7356.3	
542.57	6685.9	
542.76	7095.5	
542.96	7453.9	
543.15	8172.1	
543.35	6770.6	
543.54	6002.6	
543.74	8446.5	
543.93	8129.8	
544.13	6682.5	
544.32	7808.9	
544.52	8427.4	
544.71	7598.6	
544.91	5830.6	
545.1	7086	
545.3	7702.4	
545.49	8355	
545.69	5769.8	
545.88	6401.3	
546.08	9308.7	
546.27	8930.5	
546.47	6883.9	
546.66	6206	
546.86	8601.5	
547.05	9298.5	
547.24	6451.1	
547.44	6328.9	
547.63	7657.4	
547.83	8767.4	
548.02	6724.8	
548.22	7001.3	
548.41	7349.5	
548.61	8698.4	
548.8	6291.4	
549	6163	
549.19	8063.5	
549.39	8372.1	
549.58	5909.8	
549.78	6582.2	
549.97	8441	
550.17	7964.6	
550.36	7390.4	
550.55	8456.7	
550.75	8038.3	
550.94	8867	
551.14	6158.2	
551.33	6637.5	
551.53	7300.3	
551.72	8269	
551.92	6767.2	
552.11	6489.3	
552.31	8328.4	
552.5	8409	
552.69	8189.1	
552.89	6029.2	
553.08	8342.7	
553.28	8036.9	
553.47	6427.9	
553.67	7547.4	
553.86	9017.2	
554.06	7369.3	
554.25	5584.8	
554.44	6293.4	
554.64	9728.5	
554.83	9253.4	
555.03	6128.9	
555.22	6561.7	
555.42	8584.4	
555.61	8289.5	
555.8	6422.4	
556	6702.3	
556.19	7386.3	
556.39	8630.8	
556.58	6476.4	
556.78	6462.7	
556.97	8181.6	
557.16	7796.6	
557.36	7653.3	
557.55	6102.3	
557.75	7174.7	
557.94	8884.1	
558.13	6267.5	
558.33	6085.9	
558.52	8707.3	
558.72	7655.3	
558.91	6124.1	
559.1	6374.6	
559.3	7464.8	
559.49	7075	
559.69	5742.5	
559.88	6810.2	
560.07	8247.2	
560.27	8626.7	
560.46	6883.2	
560.66	7087.3	
560.85	8015.1	
561.04	7215	
561.24	6087.2	
561.43	6257.2	
561.63	7486.7	
561.82	7727.7	
562.01	7585	
562.21	6626.5	
562.4	8290.9	
562.59	9026.8	
562.79	6539.2	
562.98	6141.2	
563.18	8072.4	
563.37	9478.7	
563.56	6949.4	
563.76	5986.9	
563.95	7518.8	
564.14	7524.9	
564.34	6380.1	
564.53	6150.7	
564.73	8045.8	
564.92	8478.6	
565.11	6644.3	
565.31	6044.2	
565.5	8686.1	
565.69	7554.3	
565.89	6261.3	
566.08	6418.3	
566.27	8495	
566.47	8961.9	
566.66	7121.5	
566.85	5738.4	
567.05	8111.3	
567.24	7491.5	
567.44	6076.3	
567.63	7557.7	
567.82	8343.4	
568.02	8022.6	
568.21	6249.7	
568.4	6537.8	
568.6	8021.2	
568.79	7971.4	
568.98	5924.8	
569.18	6156.2	
569.37	7903.1	
569.56	9912.2	
569.76	6453.1	
569.95	7483.3	
570.14	8436.3	
570.34	8237.6	
570.53	5941.8	
570.72	5973.9	
570.91	8766.7	
571.11	7912.7	
571.3	6489.3	
571.49	7363.8	
571.69	7978.2	
571.88	7505.1	
572.07	6996.5	
572.27	7055.9	
572.46	7479.2	
572.65	8532.5	
572.85	6214.2	
573.04	6613.6	
573.23	8785.8	
573.43	8058.8	
573.62	6004	
573.81	6654.5	
574	8088.8	
574.2	7914	
574.39	6350.1	
574.58	6529.6	
574.78	8931.2	
574.97	8131.8	
575.16	6848.4	
575.36	7075.7	
575.55	8559.1	
575.74	8638.3	
575.93	6042.2	
576.13	7010.2	
576.32	7858.1	
576.51	8464.9	
576.71	6440.2	
576.9	7755.7	
577.09	8794.7	
577.28	8310.7	
577.48	6877.1	
577.67	6004	
577.86	8030.8	
578.05	8312	
578.25	6587	
578.44	6615.6	
578.63	8030.8	
578.83	9239.8	
579.02	6029.2	
579.21	7512.6	
579.4	8322.3	
579.6	7982.3	
579.79	6790.4	
579.98	8926.4	
580.17	8692.3	
580.37	8673.8	
580.56	6152.8	
580.75	6930.3	
580.94	9171.5	
581.14	9040.4	
581.33	7389.8	
581.52	6347.3	
581.71	8514.8	
581.91	9062.3	
582.1	5986.9	
582.29	6595.1	
582.48	8217.8	
582.68	8062.2	
582.87	7137.2	
583.06	6713.9	
583.25	8467.7	
583.45	7823.2	
583.64	7352.9	
583.83	8192.6	
584.02	8009.6	
584.21	8391.9	
584.41	7382.9	
584.6	6672.3	
584.79	8114.1	
584.98	8923.7	
585.18	6109.1	
585.37	6189	
585.56	7815.7	
585.75	8475.2	
585.94	6397.9	
586.14	7058.7	
586.33	9142.1	
586.52	8127.7	
586.71	6855.2	
586.91	6625.2	
587.1	7623.2	
587.29	8649.9	
587.48	6584.9	
587.67	6475.7	
587.87	8410.3	
588.06	8552.3	
588.25	7761.1	
588.44	7059.3	
588.63	8135.2	
588.83	8718.2	
589.02	6591	
589.21	6464.1	
589.4	7968.6	
589.59	7791.8	
589.78	5788.2	
589.98	6042.9	
590.17	7453.2	
590.36	8089.5	
590.55	5587.5	
590.74	6382.8	
590.94	9488.2	
591.13	8039	
591.32	6110.5	
591.51	5655.8	
591.7	8520.2	
591.89	7972.1	
592.09	5812.1	
592.28	6264.1	
592.47	7200	
592.66	9015.2	
592.85	5761.6	
593.05	6042.2	
593.24	7812.3	
593.43	8606.9	
593.62	6047	
593.81	6520.7	
594	7781.6	
594.19	8042.4	
594.39	5982.8	
594.58	5907.7	
594.77	8090.8	
594.96	8738.7	
595.15	5909.8	
595.34	6592.4	
595.54	8126.3	
595.73	7298.3	
595.92	5289.2	
596.11	6427.2	
596.3	8754.4	
596.49	7372	
596.68	6222.4	
596.88	6684.6	
597.07	8484.7	
597.26	7270.3	
597.45	5843.5	
597.64	6976.7	
597.83	7475.8	
598.02	8151.6	
598.22	5897.5	
598.41	6528.9	
598.6	7963.9	
598.79	7355.6	
598.98	5928.9	
599.17	6729.6	
599.36	7961.1	
599.55	9071.8	
599.74	7933.8	
599.94	7717.4	
600.13	8449.9	
600.32	7359	
600.51	5682.4	
600.7	5808	
600.89	9129.8	
601.08	9123.7	
601.27	5575.3	
601.47	6535.8	
601.66	8435.6	
601.85	9044.5	
602.04	6335	
602.23	6574	
602.42	7582.9	
602.61	8145.5	
602.8	6139.1	
602.99	6055.8	
603.18	7854	
603.37	8138.6	
603.57	6648.4	
603.76	7209.5	
603.95	8789.2	
604.14	8380.3	
604.33	6092.7	
604.52	6393.1	
604.71	7967.3	
604.9	7653.9	
605.09	6993.8	
605.28	6755.6	
605.47	8587.1	
605.66	8368.7	
605.86	6672.3	
606.05	6128.9	
606.24	8658.8	
606.43	7245	
606.62	6393.8	
606.81	7194.5	
607	8532.5	
607.19	7842.4	
607.38	5892.7	
607.57	6133.7	
607.76	7598.6	
607.95	7081.2	
608.14	6505	
608.33	7042.3	
608.52	7579.5	
608.72	8500.4	
608.91	5838.1	
609.1	5641.5	
609.29	7718.1	
609.48	7283.9	
609.67	6701.6	
609.86	5668.1	
610.05	7354.3	
610.24	7729	
610.43	5599.8	
610.62	5294.7	
610.81	8875.9	
611	8535.3	
611.19	5724.8	
611.38	6516.6	
611.57	8013	
611.76	9320.3	
611.95	5539.1	
612.14	5463.3	
612.33	7806.9	
612.52	7352.9	
612.71	6062.7	
612.9	5363.6	
613.09	6927.6	
613.28	9264.3	
613.47	5834	
613.66	6771.9	
613.85	7886	
614.04	7446.4	
614.24	5954.8	
614.43	5187.5	
614.62	8027.4	
614.81	7947.5	
615	6475.7	
615.19	6472.3	
615.38	7260.7	
615.57	7665.5	
615.76	6412.9	
615.95	7342.7	
616.14	8084.7	
616.33	7708.6	
616.52	6635.4	
616.71	7053.9	
616.9	8051.2	
617.09	7853.3	
617.28	6068.8	
617.47	7299	
617.66	7209.5	
617.85	7223.9	
618.04	6943.3	
618.22	6364.4	
618.41	7544	
618.6	8340	
618.79	6306.4	
618.98	5940.5	
619.17	8681.3	
619.36	7066.2	
619.55	6186.9	
619.74	6200.6	
619.93	7980.9	
620.12	7375.4	
620.31	6681.8	
620.5	6914.6	
620.69	8492.9	
620.88	8901.2	
621.07	7607.5	
621.26	6617.7	
621.45	8105.2	
621.64	8133.2	
621.83	6733.7	
622.02	5882.4	
622.21	8208.9	
622.4	7932.5	
622.59	7276.4	
622.78	6997.2	
622.97	7511.9	
623.16	8539.3	
623.35	6595.8	
623.54	5851.7	
623.72	7788.4	
623.91	7884	
624.1	6929	
624.29	5630.5	
624.48	8993.3	
624.67	8185	
624.86	6801.3	
625.05	5907	
625.24	9168.8	
625.43	7555	
625.62	8518.9	
625.81	6126.8	
626	8534.6	
626.19	7896.3	
626.38	6832.7	
626.56	6337.1	
626.75	7636.9	
626.94	8348.2	
627.13	6929.6	
627.32	5608	
627.51	8265.6	
627.7	9637.1	
627.89	5849.7	
628.08	6881.2	
628.27	7508.5	
628.46	7664.2	
628.65	6022.4	
628.83	5696.1	
629.02	8271.7	
629.21	7530.4	
629.4	6507.8	
629.59	6720.1	
629.78	7516.7	
629.97	8544.8	
630.16	6698.2	
630.35	6250.4	
630.54	8888.2	
630.72	8576.2	
630.91	6197.2	
631.1	6774.7	
631.29	8079.9	
631.48	8281.3	
631.67	6850.5	
631.86	6290.7	
632.05	7722.2	
632.24	7804.8	
632.42	6019.7	
632.61	6621.1	
632.8	7933.8	
632.99	7528.3	
633.18	6645	
633.37	6950.1	
633.56	8105.9	
633.75	7922.2	
633.93	6606.1	
634.12	6298.9	
634.31	8877.3	
634.5	8507.3	
634.69	6372.6	
634.88	6887.3	
635.07	7873.8	
635.25	8469.7	
635.44	7266.9	
635.63	7363.1	
635.82	7725.6	
636.01	7258	
636.2	7202.7	
636.39	6756.2	
636.57	8858.1	
636.76	8549.6	
636.95	6107	
637.14	7494.9	
637.33	8181	
637.52	9104.6	
637.7	5972.6	
637.89	6889.4	
638.08	7776.1	
638.27	9250	
638.46	6957.6	
638.65	7415.7	
638.83	9164.7	
639.02	7651.9	
639.21	6841.6	
639.4	7363.8	
639.59	8115.4	
639.78	7697.6	
639.96	6210.1	
640.15	6198.5	
640.34	8061.5	
640.53	8124.3	
640.72	5868.1	
640.91	6346	
641.09	7388.4	
641.28	8769.4	
641.47	6606.7	
641.66	7101	
641.85	8073.1	
642.03	8426	
642.22	6870.3	
642.41	6272.9	
642.6	7572.7	
642.79	6965.1	
642.97	6199.9	
643.16	6868.9	
643.35	7539.3	
643.54	7354.9	
643.73	6011.5	
643.91	6874.3	
644.1	7272.3	
644.29	7894.2	
644.48	6208.1	
644.67	6210.1	
644.85	7420.5	
645.04	7760.4	
645.23	5786.9	
645.42	6133.7	
645.6	7277.8	
645.79	8425.3	
645.98	6064.7	
646.17	5128.8	
646.36	7087.3	
646.54	7705.8	
646.73	6868.2	
646.92	5673.6	
647.11	7244.3	
647.29	8430.8	
647.48	5782.8	
647.67	5531.6	
647.86	8585.8	
648.05	8669.7	
648.23	6096.8	
648.42	7402	
648.61	7937.9	
648.8	7657.4	
648.98	5737.7	
649.17	6051.7	
649.36	7331.7	
649.55	6834.8	
649.73	5798.5	
649.92	6556.2	
650.11	7209.5	
650.3	7500.3	
650.48	5929.6	
650.67	5682.4	
650.86	7852.6	
651.05	6767.2	
651.23	5891.3	
651.42	5882.4	
651.61	7253.2	
651.79	7403.4	
651.98	6106.4	
652.17	5721.3	
652.36	7782.3	
652.54	6812.2	
652.73	5759.6	
652.92	5556.1	
653.11	7761.8	
653.29	7828.7	
653.48	5033.9	
653.67	6133	
653.85	7416.4	
654.04	8625.4	
654.23	6232.7	
654.42	5776	
654.6	7055.9	
654.79	7793.2	
654.98	5360.2	
655.16	5864	
655.35	6673.6	
655.54	6588.3	
655.73	5384.1	
655.91	5390.9	
656.1	7875.8	
656.29	6668.2	
656.47	4951.3	
656.66	6584.9	
656.85	6877.1	
657.03	7010.2	
657.22	5387.5	
657.41	5539.8	
657.59	6972	
657.78	6813.6	
657.97	5203.9	
658.16	5944.6	
658.34	7659.4	
658.53	8034.2	
658.72	6797.9	
658.9	7326.9	
659.09	7075.7	
659.28	7232.7	
659.46	5647.6	
659.65	5584.1	
659.84	6949.4	
660.02	7443	
660.21	5474.9	
660.4	5432.6	
660.58	7799.3	
660.77	7275.8	
660.96	6054.5	
661.14	5119.2	
661.33	8426	
661.52	8310.7	
661.7	5064.6	
661.89	8753.7	
662.08	6917.4	
662.26	6437.4	
662.45	5276.3	
662.64	5523.4	
662.82	7600.7	
663.01	6796.5	
663.2	5560.9	
663.38	6254.5	
663.57	7518.8	
663.75	7367.2	
663.94	5824.4	
664.13	7154.9	
664.31	6849.8	
664.5	7544	
664.69	5960.3	
664.87	6694.1	
665.06	6589	
665.25	7373.4	
665.43	6870.9	
665.62	6869.6	
665.8	7737.9	
665.99	6999.3	
666.18	5788.2	
666.36	5912.5	
666.55	7569.3	
666.74	7488.1	
666.92	5449	
667.11	7150.8	
667.29	6969.2	
667.48	7598	
667.67	6766.5	
667.85	5905.7	
668.04	7012.2	
668.22	7094.8	
668.41	5928.9	
668.6	6077	
668.78	6763.1	
668.97	7025.9	
669.15	6260.6	
669.34	5172.5	
669.53	6787	
669.71	7249.1	
669.9	5399.1	
670.08	6127.5	
670.27	6920.8	
670.46	7468.3	
670.64	6197.2	
670.83	6546.7	
671.01	6741.2	
671.2	7342	
671.38	5484.5	
671.57	5378.6	
671.76	7980.9	
671.94	8535.3	
672.13	5332.9	
672.31	6472.3	
672.5	7496.2	
672.69	6845.7	
672.87	5511.8	
673.06	5852.4	
673.24	7419.8	
673.43	6851.8	
673.61	6128.2	
673.8	5838.8	
673.98	7631.4	
674.17	7814.4	
674.36	6334.4	
674.54	6229.2	
674.73	7328.3	
674.91	7530.4	
675.1	5943.2	
675.28	5565.7	
675.47	7122.8	
675.65	7720.8	
675.84	5867.4	
676.03	6141.2	
676.21	6933.1	
676.4	6496.2	
676.58	6634.7	
676.77	6362.4	
676.95	8389.8	
677.14	6868.9	
677.32	5524.7	
677.51	5349.3	
677.69	7620.5	
677.88	6540.5	
678.06	5304.2	
678.25	5542.5	
678.44	7117.4	
678.62	6948.8	
678.81	5169.8	
678.99	6204.7	
679.18	7999.4	
679.36	7512.6	
679.55	5788.9	
679.73	6404.7	
679.92	7477.8	
680.1	6939.2	
680.29	6993.1	
680.47	5857.9	
680.66	6901.7	
680.84	7690.8	
681.03	5101.5	
681.21	6287.9	
681.4	6903	
681.58	6834.1	
681.77	5571.2	
681.95	5515.9	
682.14	7776.1	
682.32	8133.8	
682.51	6427.9	
682.69	5339.1	
682.88	6888	
683.06	7520.8	
683.25	6146.6	
683.43	6621.8	
683.62	7131	
683.8	7623.9	
683.99	6670.9	
684.17	6034	
684.36	8398	
684.54	7066.9	
684.73	5218.9	
684.91	5451	
685.1	7439.6	
685.28	6789.7	
685.46	5971.2	
685.65	6031.3	
685.83	7603.4	
686.02	6999.3	
686.2	5441.5	
686.39	5551.4	
686.57	6775.4	
686.76	8329.1	
686.94	5454.4	
687.13	5662.6	
687.31	7487.4	
687.5	7111.2	
687.68	5084.4	
687.86	6423.1	
688.05	8720.3	
688.23	6539.8	
688.42	6499.6	
688.6	5575.3	
688.79	6885.3	
688.97	6903	
689.16	6087.2	
689.34	4999.8	
689.52	7647.8	
689.71	7894.2	
689.89	6291.4	
690.08	5625.8	
690.26	7206.8	
690.45	7130.3	
690.63	6494.8	
690.81	5698.1	
691	6916.7	
691.18	6892.1	
691.37	5951.4	
691.55	8097	
691.74	6892.8	
691.92	8822	
692.1	5869.5	
692.29	5321.3	
692.47	7111.2	
692.66	6429.3	
692.84	5559.6	
693.02	6227.9	
693.21	6503	
693.39	7020.4	
693.58	6271.6	
693.76	5720	
693.94	8296.3	
694.13	7970.7	
694.31	5663.3	
694.5	6715.3	
694.68	6938.5	
694.86	7262.8	
695.05	5968.5	
695.23	6169.2	
695.42	7707.9	
695.6	9886.2	
695.78	6665.5	
695.97	5810.1	
696.15	7696.9	
696.34	7088	
696.52	5558.2	
696.7	6393.1	
696.89	7475.1	
697.07	6895.5	
697.25	6272.9	
697.44	7813.7	
697.62	7387	
697.81	7799.3	
697.99	6020.3	
698.17	6492.1	
698.36	6774	
698.54	7441	
698.72	6247.7	
698.91	5339.7	
699.09	7047.1	
699.28	6961	
699.46	6030.6	
699.64	5899.5	
699.83	6914.6	
700.01	8179.6	
700.19	6689.3	
700.38	5174.5	
700.56	8127.7	
700.74	7006.1	
700.93	5584.8	
701.11	6408.1	
701.29	7590.5	
701.48	8625.4	
701.66	5823.1	
701.84	5834.7	
702.03	7150.1	
702.21	7819.1	
702.39	5401.2	
702.58	5984.8	
702.76	7540.6	
702.94	7632.1	
703.13	5440.1	
703.31	7869.7	
703.49	6892.1	
703.68	8242.4	
703.86	5558.2	
704.04	6625.9	
704.23	7394.5	
704.41	7804.8	
704.59	5740.5	
704.78	7012.9	
704.96	8543.4	
705.14	7856.7	
705.33	5599.1	
705.51	6419.7	
705.69	7328.3	
705.87	8056.7	
706.06	6664.1	
706.24	5544.5	
706.42	7674.4	
706.61	7886	
706.79	6728.3	
706.97	5595.1	
707.16	7037.5	
707.34	7712.7	
707.52	6711.2	
707.7	5893.4	
707.89	7187.7	
708.07	6892.1	
708.25	6750.1	
708.44	6812.9	
708.62	7140.6	
708.8	8163.9	
708.98	6997.2	
709.17	5969.1	
709.35	7576.8	
709.53	7636.2	
709.72	5640.8	
709.9	5785.5	
710.08	7815.7	
710.26	7843.7	
710.45	7320.8	
710.63	6100.9	
710.81	7559.7	
710.99	7475.1	
711.18	6617.7	
711.36	6148	
711.54	7357.7	
711.72	8062.9	
711.91	6168.5	
712.09	5490.6	
712.27	7505.1	
712.45	8121.6	
712.64	6420.4	
712.82	5444.9	
713	6903	
713.18	7094.8	
713.37	5545.9	
713.55	6779.5	
713.73	7931.1	
713.91	6523.5	
714.1	5896.1	
714.28	5297.4	
714.46	7503.8	
714.64	6791.1	
714.83	4676.2	
715.01	5561.6	
715.19	6787.7	
715.37	6250.4	
715.55	5288.5	
715.74	5591.6	
715.92	7728.4	
716.1	5814.9	
716.28	6696.2	
716.47	5713.8	
716.65	6373.3	
716.83	6565.8	
717.01	5597.8	
717.19	5672.2	
717.38	8594	
717.56	6219.7	
717.74	5933.6	
717.92	5066.7	
718.1	7511.3	
718.29	6836.1	
718.47	4708.3	
718.65	5361.6	
718.83	7458.7	
719.01	7316	
719.2	4633.2	
719.38	5780.1	
719.56	7088.7	
719.74	8610.3	
719.92	5299.5	
720.11	6308.4	
720.29	7083.2	
720.47	6210.8	
720.65	4859.8	
720.83	5684.5	
721.02	6520.7	
721.2	6333	
721.38	5688.6	
721.56	4962.9	
721.74	5842.9	
721.92	6130.9	
722.11	6249.7	
722.29	5877	
722.47	7282.6	
722.65	6442.9	
722.83	5055.8	
723.01	5875.6	
723.2	6531.7	
723.38	6803.4	
723.56	4444.8	
723.74	5625.1	
723.92	6036.7	
724.1	7255.3	
724.29	4939.7	
724.47	6109.8	
724.65	6074.3	
724.83	6075.6	
725.01	4911	
725.19	5711.8	
725.37	6113.9	
725.56	6187.6	
725.74	4710.3	
725.92	4965	
726.1	6086.6	
726.28	6376	
726.46	5437.4	
726.64	5107	
726.83	6361	
727.01	6677.1	
727.19	4725.3	
727.37	5513.1	
727.55	6500.9	
727.73	6956.9	
727.91	4700.1	
728.09	4572.4	
728.28	7054.6	
728.46	7804.8	
728.64	5674.9	
728.82	5655.8	
729	8099.7	
729.18	7402.7	
729.36	4893.3	
729.54	7202	
729.72	8515.5	
729.91	6754.9	
730.09	6836.1	
730.27	5667.4	
730.45	6703.7	
730.63	7302.4	
730.81	6255.9	
730.99	5302.9	
731.17	7830.7	
731.35	6348.7	
731.53	5760.9	
731.71	5406.6	
731.9	7521.5	
732.08	7724.3	
732.26	5709.1	
732.44	5375.2	
732.62	7808.2	
732.8	7311.2	
732.98	6181.5	
733.16	5164.3	
733.34	7289.4	
733.52	6107.7	
733.7	5673.6	
733.88	5938.4	
734.07	7137.9	
734.25	6980.2	
734.43	5129.5	
734.61	6759.7	
734.79	8367.3	
734.97	6810.2	
735.15	5320.6	
735.33	5613.5	
735.51	7189.7	
735.69	6806.1	
735.87	6875.7	
736.05	5973.2	
736.23	7000	
736.41	6776.7	
736.59	5751.4	
736.77	5929.6	
736.95	7457.3	
737.13	6929	
737.32	5415.5	
737.5	5593.7	
737.68	8021.2	
737.86	6750.8	
738.04	5156.8	
738.22	6989	
738.4	6566.5	
738.58	6886.6	
738.76	5821	
738.94	4795	
739.12	6797.9	
739.3	6625.9	
739.48	6494.1	
739.66	6221	
739.84	7014.3	
740.02	6964.5	
740.2	4923.3	
740.38	5242.1	
740.56	7356.3	
740.74	6206.7	
740.92	5992.4	
741.1	5917.3	
741.28	6848.4	
741.46	6691.4	
741.64	5496.7	
741.82	5947.3	
742	6877.8	
742.18	6795.2	
742.36	5691.3	
742.54	5244.2	
742.72	7455.3	
742.9	6187.6	
743.08	6086.6	
743.26	4825	
743.44	7606.2	
743.62	7488.7	
743.8	6188.3	
743.98	5291.3	
744.16	7190.4	
744.34	6857.3	
744.52	6105.7	
744.7	5986.2	
744.88	7296.9	
745.06	6839.5	
745.24	6171.2	
745.42	6296.1	
745.6	7370	
745.78	7133.1	
745.96	4965.6	
746.14	5300.8	
746.32	8159.1	
746.5	7350.2	
746.68	5857.9	
746.86	5299.5	
747.03	7887.4	
747.21	6081.1	
747.39	5863.3	
747.57	5356.1	
747.75	6969.9	
747.93	7427.3	
748.11	5329.5	
748.29	5207.3	
748.47	8605.6	
748.65	6703	
748.83	6082.5	
749.01	5700.2	
749.19	7236.8	
749.37	6347.3	
749.55	5646.2	
749.73	5646.9	
749.91	6877.1	
750.09	6640.2	
750.26	5769.8	
750.44	5140.4	
750.62	6925.5	
750.8	6873.7	
750.98	5019.6	
751.16	5364.3	
751.34	6929.6	
751.52	6325.5	
751.7	6206.7	
751.88	4968.4	
752.06	7520.8	
752.24	7257.3	
752.42	5001.1	
752.59	5305.6	
752.77	6813.6	
752.95	8149.6	
753.13	6044.9	
753.31	5371.8	
753.49	6544.6	
753.67	7062.8	
753.85	5702.2	
754.03	5275.6	
754.21	7265.5	
754.38	7522.2	
754.56	5416.2	
754.74	4496	
754.92	6484.6	
755.1	7119.4	
755.28	4427	
755.46	4455.7	
755.64	7583.6	
755.82	7673.7	
755.99	4413.4	
756.17	4578.6	
756.35	5137	
756.53	6686.6	
756.71	3385.3	
756.89	4363.5	
757.07	6255.9	
757.25	5399.8	
757.42	4985.4	
757.6	5943.9	
757.78	6451.8	
757.96	5507.7	
758.14	4771.8	
758.32	4184.7	
758.5	5004.6	
758.67	5813.5	
758.85	4456.4	
759.03	4642.7	
759.21	6017.6	
759.39	5432.6	
759.57	4084.3	
759.75	5291.3	
759.92	6754.9	
760.1	5965.7	
760.28	5681.1	
760.46	5912.5	
760.64	5787.6	
760.82	5586.2	
760.99	5632.6	
761.17	4720.6	
761.35	6681.2	
761.53	5672.2	
761.71	4866.7	
761.89	5651.7	
762.06	6591	
762.24	6092	
762.42	5048.2	
762.6	4812	
762.78	6120	
762.96	6737.8	
763.13	5454.4	
763.31	5122.7	
763.49	6980.2	
763.67	6198.5	
763.85	5971.2	
764.02	6571.2	
764.2	7277.8	
764.38	6443.6	
764.56	4984.8	
764.74	5948.7	
764.91	7283.9	
765.09	6267.5	
765.27	4696.7	
765.45	4495.3	
765.63	7444.4	
765.8	7275.1	
765.98	4254.3	
766.16	4544.4	
766.34	5854.5	
766.52	5524.7	
766.69	5502.2	
766.87	4382.7	
767.05	6218.3	
767.23	6904.4	
767.41	4714.4	
767.58	5024.3	
767.76	6763.8	
767.94	6834.1	
768.12	4745.1	
768.29	5559.6	
768.47	6236.7	
768.65	6994.5	
768.83	4440.7	
769	5560.9	
769.18	5760.9	
769.36	6514.6	
769.54	5515.2	
769.72	4442.7	
769.89	6822.5	
770.07	6935.8	
770.25	4738.3	
770.43	5994.4	
770.6	7524.9	
770.78	7954.3	
770.96	4910.3	
771.14	4710.3	
771.31	6621.8	
771.49	5994.4	
771.67	4014.7	
771.85	4313.7	
772.02	5289.9	
772.2	5999.9	
772.38	4994.3	
772.55	4558.1	
772.73	6257.2	
772.91	6068.8	
773.09	4932.9	
773.26	5020.3	
773.44	6187.6	
773.62	5908.4	
773.8	4435.2	
773.97	4093.9	
774.15	6283.2	
774.33	5791	
774.5	4300.7	
774.68	4657.8	
774.86	6453.1	
775.04	5877.7	
775.21	4360.1	
775.39	4365.6	
775.57	6111.1	
775.74	6593.8	
775.92	4235.9	
776.1	4076.8	
776.27	6104.3	
776.45	7337.2	
776.63	4267.3	
776.81	3895.2	
776.98	5728.9	
777.16	6877.8	
777.34	4506.2	
777.51	4375.1	
777.69	5719.3	
777.87	5517.9	
778.04	4465.3	
778.22	5130.2	
778.4	5455.8	
778.57	6200.6	
778.75	3734.8	
778.93	4009.9	
779.1	5326.8	
779.28	5143.8	
779.46	3748.5	
779.64	4225	
779.81	6285.2	
779.99	7225.9	
780.17	5067.4	
780.34	5196.4	
780.52	5748	
780.69	5943.9	
780.87	4492.6	
781.05	4131.4	
781.22	5797.8	
781.4	5943.2	
781.58	4194.2	
781.75	3430.3	
781.93	5763.7	
782.11	5248.3	
782.28	4991.6	
782.46	4188.8	
782.64	5048.2	
782.81	6029.9	
782.99	4323.9	
783.17	4260.5	
783.34	5913.9	
783.52	5152.7	
783.69	4474.1	
783.87	5313.8	
784.05	5119.9	
784.22	5264.6	
784.4	5214.8	
784.58	4468.7	
784.75	6148.7	
784.93	5203.9	
785.1	4172.4	
785.28	4830.5	
785.46	5818.3	
785.63	5162.9	
785.81	4173.1	
785.99	4068.6	
786.16	5347.9	
786.34	5728.9	
786.51	4055.7	
786.69	4448.2	
786.87	4964.3	
787.04	5492	
787.22	3910.9	
787.39	4805.9	
787.57	5188.9	
787.75	6246.3	
787.92	5010	
788.1	4917.9	
788.27	5205.3	
788.45	4904.9	
788.63	4706.9	
788.8	3457	
788.98	5662.6	
789.15	4867.3	
789.33	3475.4	
789.5	4206.5	
789.68	6097.5	
789.86	6165.8	
790.03	4590.2	
790.21	4049.5	
790.38	6118.6	
790.56	5294.7	
790.73	3804.4	
790.91	3921.2	
791.09	5124.7	
791.26	5933.6	
791.44	4113	
791.61	3610.6	
791.79	5175.2	
791.96	5187.5	
792.14	3661.1	
792.32	3307.5	
792.49	5113.1	
792.67	5208	
792.84	3766.9	
793.02	3574.4	
793.19	5578.7	
793.37	6335	
793.54	3263.8	
793.72	3637.2	
793.89	6513.9	
794.07	5158.8	
794.25	4269.3	
794.42	3383.2	
794.6	6172.6	
794.77	5859.9	
794.95	4499.4	
795.12	3906.2	
795.3	5113.8	
795.47	5700.9	
795.65	4345.1	
795.82	4177.2	
796	4906.3	
796.17	6842.3	
796.35	3982.6	
796.52	4673.5	
796.7	5720.7	
796.87	5716.6	
797.05	4918.5	
797.22	4841.4	
797.4	5674.2	
797.57	6707.8	
797.75	4164.2	
797.92	3898	
798.1	6056.5	
798.27	5083.7	
798.45	3355.3	
798.62	3661.1	
798.8	5417.6	
798.97	5963	
799.15	4348.5	
799.32	4169.7	
799.5	4666	
799.67	5441.5	
799.85	4431.1	
800.02	3259	
800.2	4992.9	
800.37	5378.6	
800.55	4646.2	
800.72	3959.4	
800.9	5891.3	
801.07	6365.8	
801.25	5265.3	
801.42	4201.7	
801.6	5896.8	
801.77	5610.8	
801.95	4010.6	
802.12	3794.2	
802.29	5620.3	
802.47	5536.3	
802.64	4229.1	
802.82	3232.4	
802.99	5061.9	
803.17	6132.3	
803.34	4126	
803.52	3743.7	
803.69	6607.4	
803.87	4800.4	
804.04	4104.8	
804.21	4194.9	
804.39	6106.4	
804.56	5301.5	
804.74	3514.3	
804.91	4272.1	
805.09	5066	
805.26	5177.9	
805.44	3546.4	
805.61	3936.2	
805.78	5789.6	
805.96	5780.1	
806.13	4294.6	
806.31	4574.5	
806.48	4633.9	
806.66	5133.6	
806.83	4198.3	
807	4170.3	
807.18	5069.4	
807.35	5494.7	
807.53	4149.9	
807.7	3309.5	
807.87	6240.2	
808.05	5117.9	
808.22	4582	
808.4	3255.6	
808.57	5105.6	
808.74	4733.5	
808.92	3791.5	
809.09	4782.7	
809.27	4975.9	
809.44	5578.7	
809.61	3369.6	
809.79	3699.3	
809.96	6275.7	
810.14	5819.6	
810.31	3246	
810.48	3947.1	
810.66	5148.6	
810.83	5915.9	
811.01	3833.8	
811.18	4240.7	
811.35	5843.5	
811.53	4581.3	
811.7	4617.5	
811.87	4290.5	
812.05	5089.9	
812.22	4973.8	
812.39	3624.2	
812.57	3611.9	
812.74	5093.3	
812.92	6784.2	
813.09	4014	
813.26	4343.7	
813.44	6535.8	
813.61	5004.6	
813.78	3319.8	
813.96	4491.9	
814.13	5097.4	
814.3	4721.3	
814.48	4837.3	
814.65	3999	
814.82	6247.7	
815	4891.9	
815.17	4112.3	
815.34	4983.4	
815.52	5009.3	
815.69	5033.2	
815.87	4044.7	
816.04	3509.5	
816.21	5160.2	
816.38	4530.8	
816.56	3907.5	
816.73	3639.9	
816.9	6435.4	
817.08	5898.8	
817.25	3741	
817.42	4683.7	
817.6	4633.2	
817.77	5118.6	
817.94	4151.9	
818.12	3628.3	
818.29	4855.1	
818.46	7594.6	
818.64	3802.4	
818.81	3528	
818.98	4725.3	
819.16	6866.2	
819.33	4419.5	
819.5	4058.4	
819.67	5479.7	
819.85	6132.3	
820.02	4040.6	
820.19	4265.9	
820.37	5294.7	
820.54	4878.9	
820.71	4185.4	
820.88	5157.5	
821.06	5287.2	
821.23	4865.3	
821.4	4209.3	
821.58	4014	
821.75	5831.2	
821.92	5224.4	
822.09	3378.5	
822.27	3540.3	
822.44	5068.7	
822.61	5010.7	
822.79	3393.5	
822.96	6421.1	
823.13	5614.2	
823.3	4803.2	
823.48	3870.7	
823.65	3527.3	
823.82	5810.8	
823.99	4669.4	
824.17	4932.9	
824.34	3607.2	
824.51	6696.2	
824.68	5119.2	
824.86	3713.7	
825.03	4159.4	
825.2	5121.3	
825.37	6170.5	
825.55	3630.4	
825.72	4121.9	
825.89	6782.9	
826.06	6326.2	
826.24	3975.8	
826.41	4019.5	
826.58	6152.8	
826.75	5393.7	
826.92	3170.3	
827.1	3500	
827.27	8458.1	
827.44	6754.9	
827.61	3779.2	
827.79	4554.7	
827.96	4805.9	
828.13	5188.9	
828.3	3992.9	
828.47	3380.5	
828.65	5377.3	
828.82	5305.6	
828.99	5114.5	
829.16	4468	
829.34	5691.3	
829.51	5493.3	
829.68	4050.2	
829.85	4271.4	
830.02	5919.3	
830.2	5773.2	
830.37	3187.3	
830.54	4917.9	
830.71	6547.4	
830.88	5098.8	
831.05	3250.1	
831.23	3734.1	
831.4	6227.9	
831.57	7010.9	
831.74	3759.4	
831.91	3337.5	
832.09	5335	
832.26	5714.5	
832.43	3915	
832.6	4435.2	
832.77	5357.5	
832.94	6071.5	
833.12	3099.3	
833.29	3859.1	
833.46	5110.4	
833.63	7250.5	
833.8	4267.3	
833.97	3978.5	
834.15	5760.9	
834.32	5514.5	
834.49	4083	
834.66	4173.8	
834.83	5951.4	
835	4810.7	
835.17	3861.1	
835.35	3817.4	
835.52	5630.5	
835.69	5557.5	
835.86	4005.8	
836.03	3324.5	
836.2	5654.4	
836.37	5309	
836.55	3933.5	
836.72	3700.7	
836.89	5252.4	
837.06	5707	
837.23	4086.4	
837.4	4438.6	
837.57	6561.7	
837.75	7224.6	
837.92	3601.7	
838.09	3838.6	
838.26	5292.6	
838.43	5996.5	
838.6	4171.7	
838.77	3657.7	
838.94	6822.5	
839.11	6571.2	
839.29	3915.7	
839.46	3137.5	
839.63	5679	
839.8	5378	
839.97	3794.9	
840.14	3784.6	
840.31	5451	
840.48	5756.2	
840.65	3194.8	
840.82	3781.2	
841	5689.3	
841.17	5624.4	
841.34	3481.5	
841.51	3581.2	
841.68	5578	
841.85	5393.7	
842.02	3681.6	
842.19	3023.5	
842.36	5510.4	
842.53	5416.2	
842.7	3390.8	
842.87	4328	
843.05	7175.4	
843.22	5377.3	
843.39	3315	
843.56	3582.6	
843.73	5187.5	
843.9	5746.6	
844.07	5711.8	
844.24	4786.8	
844.41	8342.7	
844.58	4974.5	
844.75	3361.4	
844.92	3680.2	
845.09	5676.3	
845.26	5665.4	
845.43	3527.3	
845.6	3760.1	
845.77	5706.3	
845.94	5386.2	
846.12	3900.7	
846.29	4156	
846.46	5875.6	
846.63	5726.1	
846.8	3494.5	
846.97	4173.1	
847.14	6144.6	
847.31	5642.8	
847.48	3880.2	
847.65	4324.6	
847.82	5964.4	
847.99	5874.9	
848.16	4708.3	
848.33	4256.4	
848.5	5231.9	
848.67	6188.3	
848.84	3451.5	
849.01	3666.5	
849.18	5081	
849.35	4742.4	
849.52	4442	
849.69	3421.5	
849.86	5856.5	
850.03	6103.6	
850.2	3490.4	
850.37	4272.7	
850.54	6143.9	
850.71	5369.8	
850.88	4225.6	
851.05	3444	
851.22	5626.5	
851.39	6238.1	
851.56	3310.2	
851.73	4040	
851.9	4979.3	
852.07	5909.8	
852.24	3876.8	
852.41	3463.8	
852.58	5541.8	
852.75	5072.1	
852.92	3930.7	
853.09	3426.9	
853.26	5257.8	
853.43	6086.6	
853.6	3469.9	
853.77	3001	
853.94	6269.5	
854.11	5603.9	
854.28	5168.4	
854.44	3819.5	
854.61	6662.7	
854.78	5741.8	
854.95	3511.6	
855.12	4371	
855.29	4569	
855.46	6255.2	
855.63	3478.1	
855.8	4815.5	
855.97	5208	
856.14	6025.1	
856.31	4877.6	
856.48	3805.1	
856.65	5188.2	
856.82	5035.3	
856.99	3379.1	
857.16	3751.2	
857.33	6948.8	
857.49	5344.5	
857.66	3736.9	
857.83	4037.9	
858	5307	
858.17	5468.8	
858.34	3321.8	
858.51	3540.9	
858.68	6361	
858.85	6393.8	
859.02	4065.2	
859.19	4273.4	
859.36	4965	
859.52	5022.3	
859.69	3540.3	
859.86	4106.9	
860.03	5040.1	
860.2	6252.4	
860.37	3156.6	
860.54	3510.9	
860.71	5898.2	
860.88	6340.5	
861.05	3921.2	
861.21	4384	
861.38	6365.1	
861.55	4882.4	
861.72	3194.1	
861.89	3892.5	
862.06	5937.1	
862.23	6479.8	
862.4	3394.8	
862.56	3648.8	
862.73	5788.9	
862.9	5405.3	
863.07	4080.2	
863.24	3166.8	
863.41	4906.9	
863.58	5031.2	
863.75	3568.2	
863.91	4027	
864.08	6258.6	
864.25	5844.2	
864.42	4363.5	
864.59	4855.7	
864.76	6624.5	
864.93	4973.2	
865.09	3405.8	
865.26	3713	
865.43	6115.9	
865.6	6582.9	
865.77	3046	
865.94	3468.6	
866.1	6186.9	
866.27	5958.9	
866.44	5285.1	
866.61	3311.6	
866.78	5382.1	
866.95	5823.7	
867.11	3383.2	
867.28	3031	
867.45	5979.4	
867.62	5106.3	
867.79	4024.3	
867.96	3471.3	
868.12	5034.6	
868.29	5922.7	
868.46	3474	
868.63	4646.2	
868.8	6125.5	
868.97	5864.7	
869.13	3599.6	
869.3	3647.4	
869.47	5784.8	
869.64	5972.6	
869.81	3487.7	
869.97	3539.6	
870.14	5689.9	
870.31	6375.3	
870.48	3372.3	
870.65	4309.6	
870.81	5292	
870.98	5258.5	
871.15	3953.3	
871.32	3643.3	
871.48	5749.3	
871.65	6369.9	
871.82	3481.5	
871.99	3832.4	
872.16	6868.2	
872.32	6172.6	
872.49	3539.6	
872.66	3553.2	
872.83	5906.3	
872.99	5225.7	
873.16	4012.7	
873.33	3441.3	
873.5	5545.2	
873.67	5530.9	
873.83	3698.6	
874	4759.5	
874.17	5707.7	
874.34	6738.5	
874.5	4509.6	
874.67	4282.3	
874.84	6314.6	
875.01	4960.9	
875.17	4887.1	
875.34	3422.2	
875.51	5649	
875.68	6744.6	
875.84	4202.4	
876.01	5117.9	
876.18	5887.2	
876.34	5752.1	
876.51	3527.3	
876.68	3429	
876.85	5321.3	
877.01	6178	
877.18	5029.1	
877.35	3453.6	
877.52	5468.8	
877.68	4885.1	
877.85	3417.4	
878.02	3429.7	
878.18	5433.9	
878.35	5146.5	
878.52	2796.8	
878.69	3874.8	
878.85	5872.2	
879.02	5856.5	
879.19	5009.3	
879.35	3796.3	
879.52	5885.9	
879.69	6042.2	
879.86	3009.8	
880.02	3887	
880.19	5433.3	
880.36	6685.3	
880.52	4034.5	
880.69	4175.1	
880.86	5988.9	
881.02	6008.1	
881.19	3822.2	
881.36	3839.3	
881.52	5809.4	
881.69	5151.3	
881.86	3781.2	
882.02	3652.2	
882.19	6172.6	
882.36	7193.1	
882.52	3541.6	
882.69	4924	
882.86	5649.7	
883.02	5507	
883.19	4225.6	
883.36	4012.7	
883.52	5984.8	
883.69	6863.4	
883.86	3500.7	
884.02	3203	
884.19	5909.1	
884.36	5512.4	
884.52	3927.3	
884.69	3723.2	
884.86	5177.9	
885.02	6528.9	
885.19	3880.9	
885.36	4029	
885.52	5481	
885.69	5634.6	
885.86	4989.5	
886.02	4468	
886.19	5905.7	
886.35	5424.4	
886.52	3871.3	
886.69	4915.1	
886.85	5066.7	
887.02	6276.3	
887.19	6276.3	
887.35	6276.3	
887.52	6276.3	
887.68	6276.3	
887.85	6276.3	
888.02	6276.3	
888.18	6276.3	
888.35	6276.3	
888.51	6276.3	
888.68	6276.3	
888.85	6276.3	
889.01	6276.3	
889.18	6276.3	
889.35	6276.3	
889.51	6276.3	
889.68	6276.3	
889.84	6276.3	
890.01	6276.3	
890.17	6276.3	
890.34	6276.3	
890.51	6276.3	
890.67	6276.3	
890.84	6276.3	
891	6276.3	
891.17	6276.3	
891.34	6276.3	
891.5	6276.3	
891.67	6276.3	
891.83	6276.3	
892	6276.3	
892.16	6276.3	
892.33	6276.3	
892.5	6276.3	
892.66	6276.3	
892.83	6276.3	
892.99	6276.3	
893.16	6276.3	
893.32	6276.3	
893.49	6276.3	
893.65	6276.3	
893.82	6276.3	
893.99	6276.3	
894.15	6276.3	
894.32	6276.3	
894.48	6276.3	
894.65	6276.3	
894.81	6276.3	
894.98	6276.3	
895.14	6276.3	
895.31	6276.3	
895.47	6276.3	
895.64	6276.3	
895.81	6276.3	
895.97	6276.3	
896.14	6276.3	
896.3	6276.3	
896.47	6276.3	
896.63	6276.3	
896.8	6276.3	
896.96	6276.3	
897.13	6276.3	
897.29	6276.3	
897.46	6276.3	
897.62	6276.3	
897.79	6276.3	
897.95	6276.3	
898.12	6276.3	
898.28	6276.3	
898.45	6276.3	
898.61	6276.3	
898.78	6276.3	
898.94	6276.3	
899.11	6276.3	
899.27	6276.3	
899.44	6276.3	
899.6	6276.3	
899.77	6276.3	
899.93	6276.3	
900.1	6276.3	
900.26	6276.3	
900.43	6276.3	
900.59	6276.3	
900.76	6276.3	
900.92	6276.3	
901.09	6276.3	
901.25	6276.3	
901.42	6276.3	
901.58	6276.3	
901.75	6276.3	
901.91	6276.3	
902.07	6276.3	
902.24	6276.3	
902.4	6276.3	
902.57	6276.3	
902.73	6276.3	
902.9	6276.3	
903.06	6276.3	
903.23	6276.3	
903.39	6276.3	
903.56	6276.3	
903.72	6276.3	
903.88	6276.3	
904.05	6276.3	
904.21	6276.3	
904.38	6276.3	
904.54	6276.3	
904.71	6276.3	
904.87	6276.3	
905.03	6276.3	
905.2	6276.3	
905.36	6276.3	
905.53	6276.3	
905.69	6276.3	
905.86	6276.3	
906.02	6276.3	
906.18	6276.3	
906.35	6276.3	
906.51	6276.3	
906.68	6276.3	
906.84	6276.3	
907.01	6276.3	
907.17	6276.3	
907.33	6276.3	
907.5	6276.3	
907.66	6276.3	
907.83	6276.3	
907.99	6276.3	
908.15	6276.3	
908.32	6276.3	
908.48	6276.3	
908.65	6276.3	
908.81	6276.3	
908.97	6276.3	
909.14	6276.3	
909.3	6276.3	
909.47	6276.3	
909.63	6276.3	
909.79	6276.3	
909.96	6276.3	
910.12	6276.3	
910.28	6276.3	
910.45	6276.3	
910.61	6276.3	
910.78	6276.3	
910.94	6276.3	
911.1	6276.3	
911.27	6276.3	
911.43	6276.3	
911.59	6276.3	
911.76	6276.3	
911.92	6276.3	
912.08	6276.3	
912.25	6276.3	
912.41	6276.3	
912.57	6276.3	
912.74	6276.3	
912.9	6276.3	
913.07	6276.3	
913.23	6276.3	
913.39	6276.3	
913.56	6276.3	
913.72	6276.3	
913.88	6276.3	
914.05	6276.3	
914.21	6276.3	
914.37	6276.3	
914.54	6276.3	
914.7	6276.3	
914.86	6276.3	
915.03	6276.3	
915.19	6276.3	
