Wavelength	Intensities	
nm	a.u.	
179.22	1713.5	
179.44	1699.8	
179.65	1727.1	
179.86	1672.5	
180.08	1704.6	
180.29	3868.6	
180.51	2967.5	
180.72	4859.1	
180.94	5481	
181.15	2700.6	
181.37	2672.6	
181.58	4763.6	
181.79	4947.9	
182.01	2828.2	
182.22	2894.5	
182.44	4995.7	
182.65	4300.7	
182.87	3633.8	
183.08	3201	
183.29	5225.7	
183.51	4381.3	
183.72	2909.5	
183.94	4096.6	
184.15	4682.3	
184.37	4576.5	
184.58	2666.5	
184.79	3401.7	
185.01	4425	
185.22	4992.9	
185.44	3620.8	
185.65	3134.1	
185.86	4663.9	
186.08	4337.6	
186.29	2607.1	
186.51	2767.5	
186.72	4437.3	
186.94	5087.8	
187.15	3169.6	
187.36	3233.1	
187.58	6290	
187.79	4748.6	
188.01	3298.6	
188.22	4910.3	
188.43	5542.5	
188.65	4937	
188.86	2806.4	
189.08	3228.3	
189.29	4539.7	
189.5	4552	
189.72	3011.9	
189.93	3066.5	
190.15	5111	
190.36	5904.3	
190.57	3238.5	
190.79	3117.7	
191	5113.8	
191.22	5084.4	
191.43	3337.5	
191.64	2801.6	
191.86	5316.5	
192.07	5070.1	
192.29	2859.6	
192.5	3011.2	
192.71	5089.9	
192.93	4489.1	
193.14	2923.8	
193.35	3031	
193.57	4557.4	
193.78	5078.3	
194	2490.3	
194.21	2933.4	
194.42	4371.7	
194.64	4688.5	
194.85	3182.5	
195.07	3676.8	
195.28	4626.4	
195.49	4200.4	
195.71	3870	
195.92	2828.9	
196.13	4817.5	
196.35	4868.7	
196.56	4045.4	
196.78	3158.7	
196.99	5910.4	
197.2	5483.1	
197.42	3598.3	
197.63	3220.8	
197.84	4299.4	
198.06	4867.3	
198.27	2992.8	
198.48	3850.9	
198.7	4528.7	
198.91	4712.4	
199.13	3224.9	
199.34	3207.8	
199.55	5081.7	
199.77	4100.7	
199.98	2919	
200.19	3229	
200.41	4688.5	
200.62	4423.6	
200.83	3374.4	
201.05	3586.7	
201.26	4637.3	
201.47	4450.9	
201.69	2923.8	
201.9	2852.8	
202.11	4711.7	
202.33	5423	
202.54	3056.9	
202.76	3387.3	
202.97	4706.2	
203.18	4812.7	
203.4	3309.5	
203.61	3366.9	
203.82	4756.1	
204.04	4515.8	
204.25	3287	
204.46	3234.4	
204.68	4704.2	
204.89	4870.1	
205.1	3158	
205.32	2772.9	
205.53	4933.6	
205.74	5088.5	
205.96	2452.8	
206.17	3330.7	
206.38	4971.8	
206.6	5030.5	
206.81	3623.5	
207.02	2990.7	
207.24	4868	
207.45	5172.5	
207.66	3113.6	
207.88	2746.3	
208.09	4879.6	
208.3	4700.8	
208.52	2862.4	
208.73	3166.8	
208.94	4700.8	
209.15	5160.2	
209.37	3086.3	
209.58	3242.6	
209.79	5141.8	
210.01	4554	
210.22	2561.3	
210.43	2674	
210.65	4650.3	
210.86	4930.8	
211.07	3132.7	
211.29	2879.4	
211.5	4907.6	
211.71	4634.6	
211.93	2917	
212.14	2942.9	
212.35	4690.5	
212.56	4701.5	
212.78	3302.7	
212.99	2755.2	
213.2	5402.5	
213.42	4556	
213.63	2964.1	
213.84	3093.1	
214.06	4265.9	
214.27	4327.4	
214.48	3056.9	
214.69	3296.5	
214.91	5189.6	
215.12	5241.4	
215.33	3261.7	
215.55	3549.1	
215.76	5567.1	
215.97	4916.5	
216.18	3189.4	
216.4	3160.7	
216.61	4482.3	
216.82	5034.6	
217.04	2902.7	
217.25	2988.7	
217.46	5134.9	
217.67	4949.3	
217.89	2667.8	
218.1	2715.6	
218.31	4740.4	
218.53	4833.2	
218.74	3059	
218.95	2893.1	
219.16	4689.2	
219.38	5383.4	
219.59	2934.1	
219.8	3356.6	
220.01	5754.1	
220.23	4644.1	
220.44	3680.9	
220.65	2859.6	
220.87	4784.1	
221.08	5152.7	
221.29	2737.5	
221.5	3450.1	
221.72	6107.7	
221.93	4414.1	
222.14	3282.9	
222.35	3756.7	
222.57	4648.9	
222.78	4997.7	
222.99	3107.5	
223.2	3328.6	
223.42	4833.2	
223.63	4937.7	
223.84	2440.5	
224.05	2521.7	
224.27	5714.5	
224.48	5286.5	
224.69	3793.5	
224.9	3280.8	
225.12	4795.7	
225.33	4597	
225.54	2676.7	
225.75	2969.6	
225.97	4375.8	
226.18	4624.3	
226.39	3104.7	
226.6	2936.8	
226.82	4534.9	
227.03	4404.5	
227.24	3211.2	
227.45	2733.4	
227.67	5025.7	
227.88	5315.2	
228.09	3537.5	
228.3	3568.9	
228.52	4965.6	
228.73	4619.5	
228.94	3066.5	
229.15	2725.2	
229.36	4657.1	
229.58	4655	
229.79	3027.6	
230	3501.3	
230.21	5510.4	
230.43	4724.7	
230.64	3266.5	
230.85	3305.4	
231.06	5059.8	
231.28	4994.3	
231.49	2721.1	
231.7	3184.6	
231.91	4912.4	
232.12	4676.2	
232.34	2826.2	
232.55	3160	
232.76	5188.9	
232.97	4805.2	
233.18	2848.7	
233.4	3251.5	
233.61	4772.4	
233.82	4511	
234.03	3076.7	
234.25	3012.6	
234.46	6183.5	
234.67	4709	
234.88	3249.4	
235.09	2918.4	
235.31	4851	
235.52	4629.8	
235.73	3238.5	
235.94	2760.7	
236.15	4518.5	
236.37	5513.1	
236.58	2856.9	
236.79	3134.1	
237	4906.9	
237.21	4244.1	
237.43	3327.9	
237.64	2653.5	
237.85	7613	
238.06	4428.4	
238.27	3291.1	
238.48	2810.5	
238.7	4988.2	
238.91	4582.7	
239.12	3072.6	
239.33	3222.1	
239.54	4425	
239.76	4580.6	
239.97	3058.3	
240.18	3080.1	
240.39	5604.6	
240.6	4856.4	
240.82	3237.2	
241.03	2763.4	
241.24	4721.3	
241.45	5244.8	
241.66	2893.8	
241.87	3329.3	
242.09	5292	
242.3	5430.5	
242.51	3345	
242.72	3085.6	
242.93	4989.5	
243.14	4614.8	
243.36	3536.8	
243.57	3777.8	
243.78	5301.5	
243.99	4969.1	
244.2	3117	
244.41	2841.2	
244.63	4362.9	
244.84	4849.6	
245.05	3330.7	
245.26	3069.9	
245.47	4965	
245.68	5033.9	
245.9	4016.7	
246.11	3261.7	
246.32	4496	
246.53	4865.3	
246.74	4855.7	
246.95	2717.7	
247.16	4367	
247.38	4722.6	
247.59	2650.8	
247.8	3184.6	
248.01	4372.4	
248.22	4750.6	
248.43	2871.9	
248.64	3132	
248.86	4334.2	
249.07	4485.7	
249.28	2816	
249.49	3166.2	
249.7	5053	
249.91	5085.1	
250.12	2654.9	
250.34	2740.2	
250.55	4734.9	
250.76	4690.5	
250.97	3221.5	
251.18	3289.7	
251.39	5130.8	
251.6	4775.9	
251.81	3302	
252.03	3234.4	
252.24	4469.4	
252.45	4993.6	
252.66	2786.6	
252.87	3402.4	
253.08	4701.5	
253.29	5784.1	
253.5	2828.2	
253.72	3726.6	
253.93	4595	
254.14	5368.4	
254.35	3026.9	
254.56	3001	
254.77	4851.6	
254.98	4410.6	
255.19	2957.9	
255.41	3662.5	
255.62	4807.9	
255.83	5134.3	
256.04	3305.4	
256.25	3258.3	
256.46	5571.8	
256.67	4463.9	
256.88	3199.6	
257.09	3537.5	
257.31	4341	
257.52	4491.2	
257.73	3895.2	
257.94	2945.7	
258.15	4619.5	
258.36	4709	
258.57	3621.5	
258.78	2471.9	
258.99	5018.9	
259.2	4593.6	
259.41	2964.8	
259.63	3089.7	
259.84	5279.7	
260.05	5477.6	
260.26	3758	
260.47	2917	
260.68	5132.9	
260.89	4591.5	
261.1	3527.3	
261.31	2834.4	
261.52	5139	
261.73	5392.3	
261.95	3786	
262.16	3334.1	
262.37	5205.9	
262.58	5221.6	
262.79	3756	
263	3046	
263.21	4762.9	
263.42	4344.4	
263.63	3280.2	
263.84	3032.4	
264.05	5031.2	
264.26	5337	
264.47	3603.1	
264.69	3265.1	
264.9	5259.2	
265.11	4787.5	
265.32	2889.7	
265.53	2970.9	
265.74	4777.9	
265.95	4229.7	
266.16	3164.1	
266.37	3426.9	
266.58	4792.2	
266.79	4539.7	
267	2993.4	
267.21	2776.4	
267.42	4326	
267.63	4712.4	
267.84	3084.9	
268.06	2724.5	
268.27	5067.4	
268.48	5140.4	
268.69	3082.2	
268.9	3615.3	
269.11	5162.9	
269.32	4268	
269.53	3135.4	
269.74	2899.9	
269.95	4868.7	
270.16	4245.4	
270.37	3140.2	
270.58	3522.5	
270.79	4592.2	
271	5090.6	
271.21	3312.2	
271.42	3149.1	
271.63	4900.8	
271.84	4361.5	
272.05	2627.5	
272.26	2852.1	
272.47	4744.5	
272.68	4789.5	
272.89	3063.1	
273.11	3384.6	
273.32	4547.2	
273.53	5317.9	
273.74	3341.6	
273.95	3207.8	
274.16	5059.2	
274.37	4684.4	
274.58	3377.8	
274.79	2770.2	
275	4833.2	
275.21	5079	
275.42	3927.3	
275.63	3438.5	
275.84	4937	
276.05	5888.6	
276.26	3265.1	
276.47	3059.7	
276.68	4645.5	
276.89	5386.2	
277.1	3445.4	
277.31	2751.1	
277.52	4864.6	
277.73	5115.8	
277.94	2724.5	
278.15	3003.7	
278.36	4874.8	
278.57	4446.1	
278.78	2959.3	
278.99	3306.1	
279.2	4490.5	
279.41	4362.2	
279.62	3858.4	
279.83	2808.4	
280.04	5518.6	
280.25	4399	
280.46	3846.8	
280.67	3141.6	
280.88	4453.6	
281.09	5133.6	
281.3	3233.7	
281.51	4042	
281.72	4516.5	
281.93	5051.7	
282.14	2924.5	
282.35	3175	
282.56	5060.5	
282.77	4997.7	
282.98	3075.4	
283.19	3635.8	
283.4	5905	
283.61	4624.3	
283.82	2846.7	
284.03	3759.4	
284.24	4810	
284.45	5163.6	
284.66	3855	
284.87	3595.6	
285.08	5171.8	
285.29	5233.2	
285.5	2714.9	
285.71	3009.1	
285.92	5089.2	
286.12	5596.4	
286.33	3788.1	
286.54	3117	
286.75	5038.7	
286.96	4627.7	
287.17	2880.1	
287.38	3698.6	
287.59	4569	
287.8	4432.5	
288.01	3077.4	
288.22	3454.9	
288.43	4915.8	
288.64	4298	
288.85	3548.4	
289.06	3406.5	
289.27	5043.5	
289.48	5294.7	
289.69	3830.4	
289.9	3480.2	
290.11	5221.6	
290.32	4532.2	
290.53	3611.3	
290.74	3336.1	
290.94	4986.8	
291.15	5049.6	
291.36	2898.6	
291.57	3416	
291.78	4557.4	
291.99	4296.6	
292.2	2896.5	
292.41	3345	
292.62	5090.6	
292.83	4913.8	
293.04	4021.5	
293.25	2923.8	
293.46	4598.4	
293.67	5104.2	
293.88	2904	
294.09	2861	
294.29	4413.4	
294.5	4794.3	
294.71	3169.6	
294.92	3005.1	
295.13	4596.3	
295.34	5489.2	
295.55	2712.2	
295.76	2664.4	
295.97	4988.9	
296.18	5486.5	
296.39	2800.9	
296.6	2947.7	
296.81	4726	
297.01	5013.4	
297.22	3091.8	
297.43	2958.6	
297.64	4535.6	
297.85	4407.9	
298.06	2514.2	
298.27	2691	
298.48	4657.1	
298.69	4469.4	
298.9	3145.7	
299.11	2893.8	
299.31	4384.7	
299.52	4378.6	
299.73	3385.3	
299.94	3332	
300.15	4750.6	
300.36	4496.7	
300.57	3302.7	
300.78	3272	
300.99	4571.1	
301.2	4743.8	
301.4	2970.9	
301.61	3190.1	
301.82	4971.8	
302.03	4992.3	
302.24	3488.4	
302.45	2852.8	
302.66	4876.2	
302.87	5190.2	
303.08	2966.8	
303.29	3949.2	
303.49	4566.3	
303.7	4659.1	
303.91	2716.3	
304.12	3706.1	
304.33	4345.8	
304.54	4774.5	
304.75	3013.9	
304.96	2893.8	
305.16	4921.3	
305.37	5445.5	
305.58	2608.4	
305.79	2716.3	
306	4920.6	
306.21	4244.8	
306.42	3020.8	
306.63	4270.7	
306.83	4580.6	
307.04	5034.6	
307.25	3216	
307.46	3250.8	
307.67	4158.7	
307.88	4922.6	
308.09	2988.7	
308.29	2970.2	
308.5	4752.7	
308.71	5115.1	
308.92	3163.4	
309.13	2869.2	
309.34	4683	
309.55	4603.8	
309.75	3603.1	
309.96	3337.5	
310.17	4982	
310.38	4470.7	
310.59	3468.6	
310.8	2858.3	
311.01	5449.6	
311.21	4634.6	
311.42	2902	
311.63	2936.1	
311.84	4557.4	
312.05	4766.3	
312.26	3285.6	
312.46	3515.7	
312.67	4588.1	
312.88	4330.1	
313.09	2896.5	
313.3	2799.6	
313.51	5239.4	
313.71	5530.9	
313.92	2813.2	
314.13	3005.7	
314.34	4843.4	
314.55	4719.2	
314.76	3508.9	
314.96	3169.6	
315.17	4825	
315.38	4903.5	
315.59	2865.1	
315.8	2810.5	
316.01	5288.5	
316.21	5341.8	
316.42	2816.6	
316.63	3164.1	
316.84	4653	
317.05	5152.7	
317.26	3392.1	
317.46	2992.1	
317.67	4670.7	
317.88	4928.1	
318.09	3500.7	
318.3	2753.2	
318.5	4519.2	
318.71	4874.8	
318.92	4390.8	
319.13	3328.6	
319.34	5056.4	
319.54	5161.6	
319.75	2681.5	
319.96	2631.6	
320.17	4930.8	
320.38	5113.1	
320.58	2663	
320.79	3119.1	
321	5155.4	
321.21	5207.3	
321.42	3116.3	
321.62	2702	
321.83	4492.6	
322.04	4706.2	
322.25	3074.7	
322.46	2921.8	
322.66	4728.8	
322.87	4924	
323.08	3465.8	
323.29	2805.7	
323.5	5484.5	
323.7	4351.9	
323.91	3775.1	
324.12	3428.3	
324.33	4784.1	
324.53	4933.6	
324.74	3260.4	
324.95	3407.8	
325.16	4345.1	
325.37	4592.9	
325.57	2888.3	
325.78	2904	
325.99	4810.7	
326.2	4314.4	
326.4	3984	
326.61	2699.9	
326.82	4620.2	
327.03	4795.7	
327.24	3930.7	
327.44	3697.3	
327.65	4917.2	
327.86	4085	
328.07	3294.5	
328.27	2779.8	
328.48	5232.6	
328.69	4359.4	
328.9	3971.7	
329.1	3007.1	
329.31	4648.2	
329.52	5240.1	
329.73	2924.5	
329.93	3136.1	
330.14	4749.9	
330.35	4812.7	
330.56	4540.3	
330.76	3417.4	
330.97	4523.3	
331.18	4840	
331.39	3181.2	
331.59	2630.3	
331.8	5124.7	
332.01	5193	
332.22	2974.3	
332.42	3364.8	
332.63	4849.6	
332.84	4434.5	
333.05	3151.1	
333.25	2941.6	
333.46	4481	
333.67	4640	
333.88	3034.4	
334.08	3306.1	
334.29	6068.1	
334.5	5115.8	
334.7	2796.2	
334.91	3908.2	
335.12	4299.4	
335.33	4935.6	
335.53	3140.2	
335.74	4432.5	
335.95	4559.5	
336.16	4334.2	
336.36	3124.5	
336.57	3539.6	
336.78	4343.1	
336.98	5107.6	
337.19	3850.9	
337.4	3078.1	
337.61	5549.3	
337.81	4368.3	
338.02	2936.8	
338.23	3669.3	
338.43	5270.1	
338.64	4488.5	
338.85	2910.8	
339.05	3708.9	
339.26	5382.1	
339.47	4274.1	
339.68	2949.1	
339.88	4048.8	
340.09	4898.7	
340.3	5025.7	
340.5	3320.4	
340.71	2677.4	
340.92	4321.9	
341.13	5183.4	
341.33	2785.2	
341.54	3289	
341.75	4862.6	
341.95	4577.9	
342.16	3194.1	
342.37	3433.1	
342.57	4403.1	
342.78	4663.2	
342.99	3483.6	
343.19	2650.1	
343.4	5004.6	
343.61	4844.1	
343.81	3048.1	
344.02	2798.9	
344.23	4931.5	
344.43	5227.1	
344.64	3460.4	
344.85	3370.3	
345.06	4887.8	
345.26	5116.5	
345.47	3289	
345.68	3760.8	
345.88	4287.8	
346.09	5043.5	
346.3	3378.5	
346.5	2560	
346.71	4619.5	
346.92	4442.7	
347.12	2770.9	
347.33	3287.7	
347.54	5085.8	
347.74	5378.6	
347.95	3222.8	
348.16	2544.3	
348.36	4524	
348.57	4379.9	
348.78	3267.2	
348.98	3482.9	
349.19	4617.5	
349.39	4246.1	
349.6	2676	
349.81	2912.9	
350.01	4919.2	
350.22	4436.6	
350.43	3170.3	
350.63	3738.2	
350.84	4696	
351.05	4504.8	
351.25	2884.2	
351.46	2742.9	
351.67	5064.6	
351.87	4454.3	
352.08	3084.9	
352.29	3414	
352.49	4996.4	
352.7	5047.6	
352.9	2843.3	
353.11	3450.8	
353.32	5472.9	
353.52	4528.7	
353.73	2873.3	
353.94	3472	
354.14	4907.6	
354.35	4714.4	
354.55	2912.9	
354.76	3160.7	
354.97	4875.5	
355.17	4625.7	
355.38	2811.2	
355.59	3640.6	
355.79	4466.6	
356	4657.8	
356.2	3100.6	
356.41	2824.8	
356.62	4291.9	
356.82	4631.8	
357.03	3393.5	
357.24	3016.7	
357.44	4410	
357.65	4573.1	
357.85	3895.9	
358.06	3209.8	
358.27	4286.4	
358.47	4431.8	
358.68	2733.4	
358.88	3303.4	
359.09	4844.1	
359.3	5048.9	
359.5	3776.5	
359.71	3412.6	
359.91	5405.3	
360.12	4835.3	
360.33	3426.3	
360.53	3729.4	
360.74	4470	
360.94	4521.9	
361.15	3511.6	
361.36	3006.4	
361.56	5078.3	
361.77	4625	
361.97	3814	
362.18	3091.1	
362.38	5049.6	
362.59	4432.5	
362.8	2924.5	
363	2833	
363.21	4221.5	
363.41	4717.8	
363.62	3224.9	
363.83	3928	
364.03	4853	
364.24	5436.7	
364.44	4048.8	
364.65	4041.3	
364.85	4605.9	
365.06	4384.7	
365.27	2998.9	
365.47	3089.7	
365.68	5297.4	
365.88	4592.9	
366.09	3295.2	
366.29	3067.9	
366.5	4760.8	
366.71	5077.6	
366.91	3949.2	
367.12	3468.6	
367.32	5538.4	
367.53	4980.7	
367.73	3453.6	
367.94	4131.4	
368.14	4986.8	
368.35	5449.6	
368.56	3390.1	
368.76	3211.2	
368.97	5081.7	
369.17	6150.1	
369.38	3053.5	
369.58	3220.1	
369.79	4301.4	
369.99	5249.6	
370.2	4001	
370.4	3325.9	
370.61	4827.1	
370.82	5719.3	
371.02	3278.8	
371.23	2770.2	
371.43	4344.4	
371.64	5291.3	
371.84	3300	
372.05	4034.5	
372.25	6143.9	
372.46	4953.4	
372.66	3278.8	
372.87	3229	
373.07	5063.3	
373.28	6231.3	
373.48	3990.1	
373.69	3746.4	
373.9	4727.4	
374.1	4763.6	
374.31	3946.4	
374.51	3534.1	
374.72	5292	
374.92	4496	
375.13	4065.9	
375.33	3493.2	
375.54	4956.1	
375.74	4609.3	
375.95	3534.1	
376.15	4386.7	
376.36	5014.1	
376.56	4887.8	
376.77	3585.3	
376.97	3829.7	
377.18	5771.2	
377.38	5087.8	
377.59	4029.7	
377.79	3248.1	
378	4913.1	
378.2	5182	
378.41	3286.3	
378.61	3203.7	
378.82	5273.5	
379.02	4688.5	
379.23	3402.4	
379.43	4087.1	
379.64	5375.9	
379.84	5007.3	
380.05	3315	
380.25	3188.7	
380.46	5126.7	
380.66	4790.9	
380.87	4158.7	
381.07	4422.2	
381.28	5498.8	
381.48	5063.3	
381.69	3258.3	
381.89	3369.6	
382.1	4425.7	
382.3	5131.5	
382.51	4061.1	
382.71	4671.4	
382.91	5031.2	
383.12	5379.3	
383.32	3528.7	
383.53	3637.2	
383.73	4988.2	
383.94	4861.2	
384.14	3684.3	
384.35	3082.9	
384.55	4713.1	
384.76	5094.7	
384.96	3560.7	
385.17	3748.5	
385.37	5065.3	
385.58	4552	
385.78	3682.2	
385.98	2984.6	
386.19	4745.1	
386.39	5028.4	
386.6	3342.3	
386.8	3548.4	
387.01	5066.7	
387.21	5088.5	
387.42	3781.2	
387.62	4138.9	
387.83	4696	
388.03	4962.2	
388.23	3614	
388.44	4090.5	
388.64	4485.7	
388.85	4541.7	
389.05	3786	
389.26	4198.3	
389.46	5911.8	
389.67	5433.9	
389.87	3788.7	
390.07	3790.8	
390.28	4807.3	
390.48	4525.3	
390.69	3222.8	
390.89	3485	
391.1	4753.3	
391.3	5286.5	
391.5	4351.3	
391.71	4720.6	
391.91	5228.5	
392.12	5756.8	
392.32	4390.2	
392.53	3830.4	
392.73	4847.5	
392.93	4838	
393.14	3572.3	
393.34	4336.9	
393.55	5230.5	
393.75	4829.1	
393.95	3604.4	
394.16	3493.8	
394.36	4783.4	
394.57	5227.8	
394.77	3209.8	
394.98	3523.9	
395.18	4691.9	
395.38	4851.6	
395.59	4098.7	
395.79	3436.5	
396	4846.2	
396.2	5103.5	
396.4	3954.6	
396.61	3898.6	
396.81	5230.5	
397.02	4688.5	
397.22	4120.5	
397.42	4207.9	
397.63	5273.5	
397.83	4721.3	
398.04	3369.6	
398.24	3729.4	
398.44	5048.2	
398.65	4376.5	
398.85	3343	
399.05	3340.2	
399.26	4790.9	
399.46	5867.4	
399.67	3623.5	
399.87	3458.3	
400.07	4973.8	
400.28	5199.1	
400.48	3469.3	
400.69	4241.3	
400.89	5310.4	
401.09	5692	
401.3	3470.6	
401.5	4231.1	
401.7	5788.9	
401.91	5997.1	
402.11	3687.7	
402.32	3859.1	
402.52	5365	
402.72	5282.4	
402.93	4031.1	
403.13	3157.3	
403.33	5902.2	
403.54	4957.4	
403.74	3752.6	
403.94	4468	
404.15	5029.8	
404.35	5898.1	
404.56	3599.6	
404.76	4881.7	
404.96	5370.5	
405.17	5162.2	
405.37	4394.3	
405.57	3945.8	
405.78	5412.8	
405.98	4949.9	
406.18	3620.1	
406.39	4111	
406.59	5376.6	
406.79	4976.6	
407	3480.9	
407.2	3534.1	
407.4	5669.5	
407.61	5470.1	
407.81	3532.7	
408.01	5029.1	
408.22	4661.2	
408.42	6020.3	
408.62	4320.5	
408.83	3996.3	
409.03	5088.5	
409.23	5138.4	
409.44	4031.8	
409.64	4126	
409.84	5711.8	
410.05	5631.9	
410.25	4119.1	
410.45	4002.4	
410.66	5427.1	
410.86	7078.5	
411.06	4245.4	
411.27	4154	
411.47	6931	
411.67	5485.1	
411.88	4242.7	
412.08	4512.4	
412.28	5874.3	
412.49	6261.3	
412.69	4212.7	
412.89	4174.4	
413.09	6188.3	
413.3	6049.7	
413.5	4244.8	
413.7	4038.6	
413.91	5547.9	
414.11	6238.8	
414.31	4161.5	
414.52	4468	
414.72	5980.1	
414.92	5845.6	
415.12	4137.6	
415.33	4539.7	
415.53	6086.6	
415.73	6279.1	
415.94	4782	
416.14	4385.4	
416.34	5507.7	
416.55	5208.7	
416.75	5186.8	
416.95	4783.4	
417.15	6193.1	
417.36	6636.1	
417.56	5365	
417.76	4635.2	
417.97	6400.6	
418.17	6122.1	
418.37	4448.2	
418.57	4394.3	
418.78	6055.8	
418.98	5819	
419.18	5057.8	
419.38	5047.6	
419.59	5859.9	
419.79	5578.7	
419.99	4321.9	
420.2	4581.3	
420.4	6184.2	
420.6	6233.3	
420.8	4299.4	
421.01	4206.5	
421.21	6012.8	
421.41	6165.8	
421.61	4521.9	
421.82	4325.3	
422.02	5762.3	
422.22	6410.8	
422.42	4900.8	
422.63	4678.2	
422.83	5758.2	
423.03	6673.6	
423.23	4672.8	
423.44	4010.6	
423.64	5756.2	
423.84	5577.3	
424.04	4258.4	
424.25	4105.5	
424.45	6390.3	
424.65	6384.2	
424.85	3936.2	
425.06	4330.1	
425.26	6574	
425.46	5785.5	
425.66	4617.5	
425.87	4444.1	
426.07	6255.9	
426.27	6091.3	
426.47	4548.5	
426.67	4031.1	
426.88	6506.4	
427.08	6089.3	
427.28	4733.5	
427.48	4033.1	
427.69	5425.8	
427.89	5839.4	
428.09	4639.3	
428.29	4071.4	
428.5	6240.8	
428.7	5979.4	
428.9	4018.8	
429.1	4355.3	
429.3	5959.6	
429.51	6153.5	
429.71	4268	
429.91	4849.6	
430.11	6154.1	
430.31	6265.4	
430.52	4454.3	
430.72	4597	
430.92	6488	
431.12	6197.2	
431.32	4199.7	
431.53	4504.8	
431.73	5425.8	
431.93	6588.3	
432.13	4118.5	
432.33	4119.8	
432.54	5808	
432.74	5866.7	
432.94	4015.4	
433.14	4831.8	
433.34	6241.5	
433.55	5815.5	
433.75	4724.7	
433.95	5952.8	
434.15	6055.8	
434.35	5700.2	
434.56	4146.5	
434.76	3883.6	
434.96	5901.6	
435.16	6107	
435.36	4135.5	
435.56	4901.5	
435.77	5753.4	
435.97	5852.4	
436.17	5423.7	
436.37	4829.1	
436.57	5794.4	
436.78	5692	
436.98	5649	
437.18	5265.3	
437.38	6165.8	
437.58	5821	
437.78	5438.7	
437.99	4453	
438.19	6323.4	
438.39	6858	
438.59	4412.7	
438.79	4046.8	
438.99	6752.2	
439.2	5822.4	
439.4	4094.6	
439.6	4107.5	
439.8	6018.3	
440	6775.4	
440.2	4757.4	
440.4	4855.1	
440.61	6399.2	
440.81	6668.9	
441.01	4300.1	
441.21	4896.7	
441.41	6657.3	
441.61	6391	
441.81	5095.3	
442.02	5844.2	
442.22	7005.4	
442.42	6399.2	
442.62	4270	
442.82	4473.4	
443.02	6717.3	
443.22	6071.5	
443.43	4650.9	
443.63	4263.2	
443.83	5859.9	
444.03	5965.1	
444.23	5206.6	
444.43	4888.5	
444.63	6264.1	
444.83	7036.1	
445.04	4414.1	
445.24	5374.6	
445.44	6470.2	
445.64	6434	
445.84	5039.4	
446.04	5014.1	
446.24	5935	
446.44	6729.6	
446.65	4378.6	
446.85	4730.1	
447.05	6252.4	
447.25	6644.3	
447.45	4769	
447.65	4299.4	
447.85	6287.3	
448.05	5915.9	
448.25	5031.9	
448.46	4812	
448.66	6212.2	
448.86	6002.6	
449.06	4276.2	
449.26	4983.4	
449.46	6443.6	
449.66	5825.8	
449.86	4747.9	
450.06	4627	
450.26	5939.1	
450.47	6357.6	
450.67	4851.6	
450.87	5152.7	
451.07	6503	
451.27	6289.3	
451.47	4384	
451.67	4990.9	
451.87	6092.7	
452.07	6881.9	
452.27	4602.5	
452.47	4618.2	
452.67	6301.6	
452.88	6573.3	
453.08	4171	
453.28	5528.2	
453.48	7124.2	
453.68	6183.5	
453.88	4524	
454.08	4760.2	
454.28	6524.8	
454.48	6294.1	
454.68	5040.7	
454.88	5351.3	
455.08	6595.8	
455.28	6399.2	
455.48	4435.9	
455.68	4891.9	
455.89	6928.3	
456.09	6649.8	
456.29	4704.9	
456.49	4772.4	
456.69	6822.5	
456.89	6274.3	
457.09	5120.6	
457.29	5353.4	
457.49	6520	
457.69	6584.2	
457.89	5009.3	
458.09	4496.7	
458.29	6452.5	
458.49	6941.2	
458.69	5241.4	
458.89	4883	
459.09	7141.9	
459.29	7123.5	
459.49	4957.4	
459.69	5502.2	
459.9	6806.1	
460.1	6420.4	
460.3	4818.2	
460.5	4724	
460.7	6811.5	
460.9	6464.8	
461.1	4504.2	
461.3	5424.4	
461.5	7206.8	
461.7	6950.8	
461.9	4756.7	
462.1	5096.7	
462.3	6627.9	
462.5	6974	
462.7	4894.6	
462.9	4913.1	
463.1	7776.1	
463.3	7431.4	
463.5	5046.2	
463.7	5709.7	
463.9	6744.6	
464.1	6959	
464.3	5186.1	
464.5	5384.1	
464.7	7235.5	
464.9	6993.8	
465.1	6270.9	
465.3	5675.6	
465.5	7468.3	
465.7	7472.4	
465.9	5862.7	
466.1	5693.4	
466.3	7367.9	
466.5	7245.7	
466.7	6314.6	
466.9	5525.4	
467.1	7294.9	
467.3	7855.3	
467.5	6302.3	
467.7	5494	
467.9	8058.1	
468.1	8667.7	
468.3	6045.6	
468.5	6277.7	
468.7	7182.9	
468.9	7089.4	
469.1	5656.5	
469.3	6211.5	
469.5	8572.1	
469.7	6905.8	
469.9	6088.6	
470.1	5603.9	
470.3	7354.3	
470.5	7322.9	
470.7	6478.4	
470.9	5707	
471.1	7098.9	
471.3	7457.3	
471.5	5511.8	
471.69	6832	
471.89	7060	
472.09	6643.6	
472.29	6027.2	
472.49	6368.5	
472.69	6841.6	
472.89	7318.1	
473.09	5425.1	
473.29	5642.8	
473.49	7036.8	
473.69	6994.5	
473.89	6128.9	
474.09	5634	
474.29	7980.3	
474.49	7728.4	
474.69	6182.8	
474.89	5729.5	
475.09	7116.7	
475.29	7000	
475.49	5306.3	
475.69	5544.5	
475.88	8244.4	
476.08	7432.1	
476.28	5281	
476.48	5494	
476.68	7711.3	
476.88	7482.6	
477.08	5604.6	
477.28	5706.3	
477.48	7197.2	
477.68	7522.9	
477.88	5332.9	
478.08	5575.3	
478.28	7837.6	
478.48	7200.7	
478.67	5668.8	
478.87	5158.2	
479.07	7634.1	
479.27	7346.1	
479.47	5793	
479.67	5798.5	
479.87	7647.1	
480.07	7916.1	
480.27	5354.1	
480.47	6354.8	
480.67	7348.1	
480.87	7792.5	
481.06	5520.6	
481.26	6188.3	
481.46	7371.3	
481.66	7210.9	
481.86	5858.6	
482.06	6534.4	
482.26	7120.8	
482.46	7793.2	
482.66	5722.7	
482.86	5466	
483.05	7406.1	
483.25	6886.6	
483.45	7527.7	
483.65	5778	
483.85	6978.8	
484.05	7162.4	
484.25	6041.5	
484.45	6420.4	
484.65	7858.7	
484.84	7844.4	
485.04	5700.9	
485.24	5735	
485.44	8217.8	
485.64	6931.7	
485.84	5318.6	
486.04	6243.6	
486.24	7146	
486.44	7413	
486.63	5254.4	
486.83	5881.1	
487.03	7179.5	
487.23	7299	
487.43	5393.7	
487.63	6916	
487.83	7437.5	
488.02	7942	
488.22	6027.2	
488.42	6479.1	
488.62	8039	
488.82	7215.7	
489.02	5745.9	
489.22	5815.5	
489.41	7819.1	
489.61	7716.7	
489.81	5673.6	
490.01	5642.2	
490.21	7854	
490.41	8392.6	
490.61	5635.3	
490.8	5737	
491	7522.9	
491.2	7075	
491.4	6153.5	
491.6	5587.5	
491.8	7606.8	
491.99	7641	
492.19	5503.6	
492.39	5686.5	
492.59	7769.3	
492.79	7904.5	
492.99	6218.3	
493.18	5538.4	
493.38	7981.6	
493.58	8434.9	
493.78	6128.2	
493.98	5773.9	
494.18	7691.5	
494.37	7435.5	
494.57	6397.2	
494.77	6259.3	
494.97	7877.2	
495.17	8083.3	
495.37	5993	
495.56	6321.4	
495.76	8363.9	
495.96	7970.7	
496.16	6928.3	
496.36	6237.4	
496.55	8207.6	
496.75	7858.7	
496.95	6427.2	
497.15	6355.5	
497.35	8194.6	
497.54	8230.1	
497.74	6321.4	
497.94	7458.7	
498.14	8767.4	
498.34	8557.8	
498.53	6064	
498.73	6623.1	
498.93	7709.2	
499.13	8242.4	
499.33	6485.2	
499.52	6847	
499.72	8270.4	
499.92	8357.1	
500.12	6214.2	
500.32	6462	
500.51	8451.3	
500.71	8268.3	
500.91	6979.5	
501.11	6796.5	
501.31	8408.3	
501.5	8716.8	
501.7	7320.1	
501.9	6526.9	
502.1	8254.7	
502.29	8519.5	
502.49	6857.3	
502.69	7159	
502.89	8359.1	
503.09	8403.5	
503.28	6139.8	
503.48	6217.6	
503.68	7864.2	
503.88	7877.9	
504.07	6919.4	
504.27	6490	
504.47	8109.3	
504.67	8181	
504.86	6842.9	
505.06	6657.9	
505.26	7994.6	
505.46	9140.1	
505.65	6539.8	
505.85	6763.1	
506.05	7983.7	
506.25	8291.5	
506.44	6110.5	
506.64	6690.7	
506.84	7827.3	
507.04	8423.3	
507.23	6294.8	
507.43	6589	
507.63	9128.5	
507.83	7854	
508.02	6626.5	
508.22	6389.7	
508.42	9462.3	
508.62	7721.5	
508.81	6496.8	
509.01	6916.7	
509.21	7743.4	
509.4	7916.8	
509.6	6610.2	
509.8	6165.8	
510	7837.6	
510.19	8854.1	
510.39	6224.5	
510.59	6201.2	
510.79	7828.7	
510.98	8832.9	
511.18	6414.9	
511.38	6445.6	
511.57	8473.8	
511.77	8185.7	
511.97	6975.4	
512.17	6301.6	
512.36	8432.2	
512.56	8287.4	
512.76	6258.6	
512.95	6040.1	
513.15	8554.4	
513.35	7443.7	
513.55	6807.4	
513.74	6245.6	
513.94	8391.2	
514.14	7894.9	
514.33	7000.6	
514.53	6787	
514.73	7949.5	
514.92	8068.3	
515.12	6370.5	
515.32	6221	
515.51	8140	
515.71	8372.8	
515.91	7531.7	
516.11	6236.7	
516.3	9331.9	
516.5	7854	
516.7	6730.3	
516.89	7086.7	
517.09	7959.8	
517.29	7916.8	
517.48	6972.7	
517.68	6434.7	
517.88	7744.1	
518.07	8236.2	
518.27	6838.9	
518.47	6090	
518.66	8649.3	
518.86	7701	
519.06	6053.1	
519.25	6379.4	
519.45	7907.9	
519.65	8869.1	
519.84	6769.2	
520.04	7363.8	
520.24	9291	
520.43	8347.5	
520.63	6636.1	
520.83	6593.8	
521.02	7864.9	
521.22	8301.8	
521.42	6827.9	
521.61	7194.5	
521.81	7966.6	
522.01	8062.9	
522.2	6713.2	
522.4	6515.3	
522.6	8439	
522.79	7542	
522.99	6593.1	
523.18	6171.9	
523.38	8270.4	
523.58	8301.1	
523.77	7461.4	
523.97	6134.3	
524.17	9564	
524.36	9117.6	
524.56	7176.8	
524.76	6903.7	
524.95	8299.1	
525.15	8151.6	
525.34	6736.5	
525.54	6884.6	
525.74	8673.8	
525.93	7929.7	
526.13	7838.3	
526.33	6881.9	
526.52	8857.5	
526.72	8512	
526.91	7735.2	
527.11	7173.4	
527.31	8859.5	
527.5	9153.1	
527.7	7064.8	
527.89	6510.5	
528.09	8201.4	
528.29	8665	
528.48	7438.2	
528.68	7143.3	
528.87	8920.3	
529.07	8868.4	
529.27	7148.8	
529.46	6830	
529.66	8736.6	
529.85	9041.1	
530.05	6711.2	
530.25	7303.7	
530.44	9702.6	
530.64	8589.2	
530.83	7065.5	
531.03	7279.8	
531.23	9041.1	
531.42	8878.6	
531.62	7701	
531.81	7119.4	
532.01	9054.1	
532.21	9331.9	
532.4	7131.7	
532.6	7287.4	
532.79	9792.7	
532.99	9203.6	
533.18	7500.3	
533.38	8164.6	
533.58	8922.3	
533.77	9427.5	
533.97	7512.6	
534.16	8036.9	
534.36	9668.5	
534.55	8957.1	
534.75	8256	
534.95	7505.8	
535.14	9648	
535.34	8966.7	
535.53	7219.8	
535.73	8657.4	
535.92	10049	
536.12	9137.4	
536.31	7463.5	
536.51	8174.8	
536.71	9385.8	
536.9	9043.1	
537.1	7402.7	
537.29	7560.4	
537.49	9731.9	
537.68	8959.9	
537.88	7836.9	
538.07	7219.8	
538.27	9209	
538.46	9852.8	
538.66	7208.8	
538.86	7484.6	
539.05	9212.4	
539.25	9525.1	
539.44	7801.4	
539.64	7487.4	
539.83	9125.7	
540.03	9868.5	
540.22	7488.7	
540.42	7524.9	
540.61	9203.6	
540.81	9441.1	
541	7824.6	
541.2	8303.8	
541.39	8939.4	
541.59	9164.7	
541.78	8062.9	
541.98	7368.6	
542.18	8700.5	
542.37	8686.1	
542.57	7613.7	
542.76	8008.9	
542.96	8805.6	
543.15	9318.9	
543.35	7657.4	
543.54	7262.1	
543.74	9278	
543.93	9161.9	
544.13	7615	
544.32	8368	
544.52	9301.2	
544.71	8796	
544.91	7019.8	
545.1	7733.1	
545.3	8832.9	
545.49	9239.1	
545.69	6927.6	
545.88	7408.9	
546.08	9964.7	
546.27	9551	
546.47	7650.5	
546.66	7154.2	
546.86	9324.4	
547.05	9802.3	
547.24	7330.4	
547.44	7361.8	
547.63	8621.3	
547.83	9278.7	
548.02	7481.9	
548.22	7677.8	
548.41	8635.6	
548.61	9460.3	
548.8	7275.8	
549	7210.9	
549.19	9086.2	
549.39	9243.8	
549.58	6967.9	
549.78	7408.9	
549.97	9241.1	
550.17	8863.6	
550.36	8015.7	
550.55	8644.5	
550.75	8766.7	
550.94	9560.6	
551.14	7058.7	
551.33	7271.7	
551.53	8463.6	
551.72	9079.3	
551.92	7378.8	
552.11	7134.4	
552.31	9098.4	
552.5	9094.3	
552.69	8392.6	
552.89	6966.5	
553.08	9044.5	
553.28	8879.3	
553.47	7212.9	
553.67	8062.9	
553.86	9439.1	
554.06	8373.5	
554.25	6646.3	
554.44	7101	
554.64	9980.4	
554.83	9682.1	
555.03	6976.1	
555.22	7309.2	
555.42	9202.2	
555.61	8998.8	
555.8	7142.6	
556	7405.5	
556.19	8434.2	
556.39	9189.2	
556.58	7245	
556.78	7142.6	
556.97	8957.1	
557.16	8720.3	
557.36	8112.7	
557.55	6987	
557.75	8125	
557.94	9592.7	
558.13	7047.7	
558.33	6930.3	
558.52	9289.6	
558.72	8456.1	
558.91	7057.3	
559.1	7079.8	
559.3	8376.9	
559.49	8090.8	
559.69	6681.8	
559.88	7374.1	
560.07	8847.2	
560.27	9232.2	
560.46	7512.6	
560.66	7627.3	
560.85	8712.7	
561.04	8150.9	
561.24	6888	
561.43	7030.7	
561.63	8244.4	
561.82	8538.7	
562.01	7914	
562.21	7153.6	
562.4	8878.6	
562.59	9446.6	
562.79	7152.9	
562.98	6926.2	
563.18	8805.6	
563.37	9847.3	
563.56	7456.7	
563.76	6959.7	
563.95	8500.4	
564.14	8510.7	
564.34	7191.8	
564.53	7022.5	
564.73	8946.2	
564.92	8985.1	
565.11	7360.4	
565.31	6932.4	
565.5	9298.5	
565.69	8513.4	
565.89	7172	
566.08	7336.5	
566.27	9180.4	
566.47	9382.4	
566.66	7831.4	
566.85	6855.9	
567.05	9112.1	
567.24	8606.2	
567.44	7103.7	
567.63	8066.9	
567.82	9144.9	
568.02	8893	
568.21	7023.2	
568.4	7354.3	
568.6	8832.2	
568.79	8879.3	
568.98	6975.4	
569.18	7146	
569.37	8867.7	
569.56	10243	
569.76	7364.5	
569.95	8113.4	
570.14	9194	
570.34	9012.4	
570.53	7146.7	
570.72	7096.2	
570.91	9678.7	
571.11	8946.2	
571.3	7443	
571.49	8107.9	
571.69	8949.6	
571.88	8646.5	
572.07	7826	
572.27	7825.3	
572.46	8577.6	
572.65	9409.1	
572.85	7234.1	
573.04	7492.8	
573.23	9600.9	
573.43	9146.2	
573.62	7154.2	
573.81	7531.1	
574	9120.3	
574.2	8916.2	
574.39	7369.3	
574.58	7503.8	
574.78	9638.4	
574.97	9172.2	
575.16	7817.1	
575.36	7832.8	
575.55	9548.3	
575.74	9560.6	
575.93	7161.7	
576.13	7962.5	
576.32	9098.4	
576.51	9499.8	
576.71	7570	
576.9	8609.7	
577.09	9781.1	
577.28	9423.4	
577.48	7922.2	
577.67	7210.2	
577.86	9176.9	
578.05	9436.4	
578.25	7635.5	
578.44	7759.1	
578.63	9209.7	
578.83	10055	
579.02	7298.3	
579.21	8355	
579.4	9408.4	
579.6	9106	
579.79	7830.7	
579.98	9455.5	
580.17	9608.4	
580.37	9740.8	
580.56	7443.7	
580.75	7942	
580.94	9886.9	
581.14	9863	
581.33	8243.8	
581.52	7549.5	
581.71	9500.5	
581.91	9962	
582.1	7339.2	
582.29	7673.1	
582.48	9255.5	
582.68	9226.1	
582.87	8028.7	
583.06	7846.5	
583.25	9557.9	
583.45	9179.7	
583.64	8370	
583.83	8749.6	
584.02	9264.3	
584.21	9518.3	
584.41	8258.1	
584.6	7766.6	
584.79	9422.7	
584.98	9816.6	
585.18	7441.6	
585.37	7333.8	
585.56	9062.3	
585.75	9615.2	
585.94	7598	
586.14	8045.8	
586.33	9989.3	
586.52	9279.3	
586.71	7959.1	
586.91	7787.7	
587.1	8892.3	
587.29	9633.6	
587.48	7692.9	
587.67	7550.9	
587.87	9478	
588.06	9471.9	
588.25	8551	
588.44	7973.4	
588.63	9277.3	
588.83	9679.4	
589.02	7734.5	
589.21	7568.6	
589.4	9149	
589.59	9134.6	
589.78	7086.7	
589.98	7229.3	
590.17	8763.3	
590.36	9021.3	
590.55	6651.1	
590.74	7299.6	
590.94	9827.5	
591.13	8811	
591.32	7141.9	
591.51	6707.8	
591.7	9100.5	
591.89	8748.9	
592.09	6834.1	
592.28	7021.1	
592.47	8232.2	
592.66	9685.5	
592.85	6807.4	
593.05	7064.1	
593.24	8654.7	
593.43	9327.8	
593.62	7072.3	
593.81	7316	
594	8703.2	
594.19	8880.7	
594.39	6945.3	
594.58	6930.3	
594.77	8977.6	
594.96	9305.3	
595.15	6864.8	
595.34	7361.1	
595.54	8905.9	
595.73	8410.3	
595.92	6475	
596.11	7225.9	
596.3	9281.4	
596.49	8350.3	
596.68	6975.4	
596.88	7350.2	
597.07	8962.6	
597.26	8280.6	
597.45	6677.1	
597.64	7521.5	
597.83	8486.1	
598.02	8802.2	
598.22	6733	
598.41	7368.6	
598.6	8786.5	
598.79	8307.9	
598.98	6823.8	
599.17	7480.5	
599.36	8772.1	
599.55	9456.2	
599.74	8118.1	
599.94	8123.6	
600.13	9078.6	
600.32	8228.1	
600.51	6487.3	
600.7	6712.6	
600.89	9439.8	
601.08	9579	
601.27	6468.2	
601.47	7191.1	
601.66	9045.9	
601.85	9352.4	
602.04	7082.6	
602.23	7189.1	
602.42	8268.3	
602.61	8821.3	
602.8	6972.7	
602.99	6764.4	
603.18	8507.9	
603.37	8673.8	
603.57	7208.8	
603.76	7606.2	
603.95	9294.4	
604.14	8882	
604.33	6887.3	
604.52	7098.3	
604.71	8688.2	
604.9	8480	
605.09	7542.7	
605.28	7363.1	
605.47	9169.4	
605.66	8883.4	
605.86	7258.7	
606.05	6909.2	
606.24	9249.3	
606.43	8086.7	
606.62	7216.4	
606.81	7616.4	
607	9098.4	
607.19	8497	
607.38	6686.6	
607.57	6880.5	
607.76	8290.2	
607.95	8017.8	
608.14	7205.4	
608.33	7594.6	
608.52	8282.7	
608.72	9020.6	
608.91	6634.1	
609.1	6529.6	
609.29	8477.9	
609.48	8002.8	
609.67	7178.8	
609.86	6597.2	
610.05	8110.6	
610.24	8387.8	
610.43	6526.9	
610.62	6162.3	
610.81	9218.6	
611	9048.6	
611.19	6636.8	
611.38	7051.2	
611.57	8636.3	
611.76	9389.9	
611.95	6481.8	
612.14	6311.8	
612.33	8473.8	
612.52	8178.2	
612.71	6812.2	
612.9	6257.9	
613.09	7915.4	
613.28	9499.2	
613.47	6768.5	
613.66	7238.9	
613.85	8565.3	
614.04	8148.9	
614.24	6666.1	
614.43	6176.7	
614.62	8683.4	
614.81	8706.6	
615	7106.5	
615.19	7068.2	
615.38	8107.2	
615.57	8434.9	
615.76	7007.5	
615.95	7628.7	
616.14	8795.3	
616.33	8439	
616.52	7172	
616.71	7417.1	
616.9	8645.8	
617.09	8471.8	
617.28	6735.1	
617.47	7625.3	
617.66	8130.4	
617.85	8080.6	
618.04	7415.7	
618.22	6973.3	
618.41	8286.8	
618.6	8972.8	
618.79	6980.2	
618.98	6864.8	
619.17	9198.1	
619.36	7984.3	
619.55	6972.7	
619.74	6963.1	
619.93	8670.4	
620.12	8270.4	
620.31	7371.3	
620.5	7443	
620.69	9074.5	
620.88	9421.3	
621.07	7931.1	
621.26	7266.9	
621.45	8810.4	
621.64	8852	
621.83	7408.9	
622.02	6779.5	
622.21	8906.6	
622.4	8800.8	
622.59	7759.1	
622.78	7582.3	
622.97	8519.5	
623.16	9185.8	
623.35	7333.1	
623.54	6667.5	
623.72	8555	
623.91	8655.4	
624.1	7561.1	
624.29	6612.9	
624.48	9444.5	
624.67	8936.7	
624.86	7501	
625.05	6836.1	
625.24	9574.3	
625.43	8516.1	
625.62	8579.6	
625.81	7146	
626	9157.8	
626.19	8692.3	
626.38	7552.9	
626.56	7137.2	
626.75	8591.2	
626.94	9073.2	
627.13	7504.4	
627.32	6606.7	
627.51	9082.7	
627.7	9924.5	
627.89	6705.7	
628.08	7492.8	
628.27	8459.5	
628.46	8619.9	
628.65	7058.7	
628.83	6712.6	
629.02	9019.9	
629.21	8487.5	
629.4	7276.4	
629.59	7438.2	
629.78	8545.5	
629.97	9149.6	
630.16	7518.1	
630.35	7012.2	
630.54	9556.5	
630.72	9318.9	
630.91	7057.3	
631.1	7461.4	
631.29	8908	
631.48	8985.1	
631.67	7577.5	
631.86	7070.3	
632.05	8674.5	
632.24	8608.3	
632.42	6821.1	
632.61	7307.8	
632.8	8675.9	
632.99	8397.4	
633.18	7360.4	
633.37	7656.7	
633.56	8979.7	
633.75	8712.7	
633.93	7385.7	
634.12	7146.7	
634.31	9506.7	
634.5	9217.2	
634.69	7221.8	
634.88	7584.3	
635.07	8763.3	
635.25	9211.1	
635.44	7842.4	
635.63	7940.7	
635.82	8615.8	
636.01	8247.2	
636.2	7787.7	
636.39	7470.3	
636.57	9496.4	
636.76	9142.8	
636.95	7004.7	
637.14	7943.4	
637.33	8989.9	
637.52	9582.4	
637.7	6877.8	
637.89	7635.5	
638.08	8683.4	
638.27	9714.2	
638.46	7557.7	
638.65	7967.3	
638.83	9704	
639.02	8548.2	
639.21	7462.1	
639.4	7935.2	
639.59	8860.9	
639.78	8630.1	
639.96	7032	
640.15	7060	
640.34	8846.5	
640.53	8854.1	
640.72	6882.5	
640.91	7025.9	
641.09	8374.8	
641.28	9287.5	
641.47	6999.3	
641.66	7666.9	
641.85	8790.6	
642.03	8979	
642.22	7455.3	
642.41	7086.7	
642.6	8495.7	
642.79	7982.3	
642.97	6860	
643.16	7396.6	
643.35	8402.8	
643.54	8236.2	
643.73	6827.9	
643.91	7387.7	
644.1	8125.7	
644.29	8570.7	
644.48	6858	
644.67	6930.3	
644.85	8176.2	
645.04	8562.6	
645.23	6653.9	
645.42	6890	
645.6	8128.4	
645.79	8955.1	
645.98	6748.1	
646.17	6077	
646.36	7913.4	
646.54	8269	
646.73	7272.3	
646.92	6479.8	
647.11	8053.3	
647.29	8776.9	
647.48	6516	
647.67	6262	
647.86	8931.9	
648.05	8817.9	
648.23	6692.8	
648.42	7524.2	
648.61	8421.9	
648.8	8230.1	
648.98	6460.7	
649.17	6624.5	
649.36	7878.5	
649.55	7600	
649.73	6386.2	
649.92	6968.6	
650.11	7879.9	
650.3	8071	
650.48	6524.8	
650.67	6559	
650.86	8286.8	
651.05	7602.1	
651.23	6526.9	
651.42	6566.5	
651.61	7875.8	
651.79	7937.9	
651.98	6631.3	
652.17	6365.1	
652.36	8231.5	
652.54	7595.2	
652.73	6346.7	
652.92	6343.9	
653.11	8273.1	
653.29	8251.3	
653.48	5892.7	
653.67	6559.6	
653.85	8048.5	
654.04	8860.2	
654.23	6776.7	
654.42	6453.1	
654.6	7656.7	
654.79	8189.8	
654.98	5973.9	
655.16	6441.5	
655.35	7368.6	
655.54	7159.7	
655.73	5983.5	
655.91	5793.7	
656.1	7929.7	
656.29	7098.9	
656.47	5539.8	
656.66	6746.7	
656.85	7380.9	
657.03	7401.4	
657.22	6046.3	
657.41	6112.5	
657.59	7586.4	
657.78	7425.3	
657.97	5887.2	
658.16	6364.4	
658.34	8107.2	
658.53	8378.2	
658.72	6982.2	
658.9	7363.8	
659.09	7771.4	
659.28	7729.7	
659.46	6269.5	
659.65	6171.9	
659.84	7643	
660.02	8043.1	
660.21	6233.3	
660.4	6090	
660.58	8240.3	
660.77	7817.1	
660.96	6604.7	
661.14	5889.3	
661.33	8677.9	
661.52	8527.1	
661.7	5961	
661.89	8324.3	
662.08	7613.7	
662.26	7212.9	
662.45	6156.2	
662.64	6212.9	
662.82	8100.4	
663.01	7522.2	
663.2	6209.4	
663.38	6716	
663.57	7978.2	
663.75	7843	
663.94	6304.3	
664.13	7277.1	
664.31	7497.6	
664.5	8000.7	
664.69	6656.6	
664.87	6925.5	
665.06	7406.8	
665.25	7895.6	
665.43	7091.4	
665.62	7066.2	
665.8	8119.5	
665.99	7662.8	
666.18	6328.2	
666.36	6454.5	
666.55	8028	
666.74	7933.1	
666.92	6139.1	
667.11	7273	
667.29	7668.3	
667.48	8059.4	
667.67	6886.6	
667.85	6212.2	
668.04	7558.4	
668.22	7586.4	
668.41	6433.4	
668.6	6528.2	
668.78	7455.3	
668.97	7685.3	
669.15	6699.6	
669.34	5874.9	
669.53	7509.9	
669.71	7722.2	
669.9	6045.6	
670.08	6457.2	
670.27	7394.5	
670.46	7890.8	
670.64	6673.6	
670.83	6903	
671.01	7344.7	
671.2	7804.8	
671.38	6123.4	
671.57	6004.6	
671.76	8259.5	
671.94	8647.2	
672.13	5973.9	
672.31	6685.3	
672.5	8101.8	
672.69	7503.1	
672.87	6126.2	
673.06	6356.9	
673.24	7916.1	
673.43	7595.9	
673.61	6567.8	
673.8	6228.6	
673.98	7948.2	
674.17	8047.2	
674.36	6740.5	
674.54	6555.5	
674.73	7735.9	
674.91	8000.7	
675.1	6356.9	
675.28	6018.3	
675.47	7613	
675.65	8065.6	
675.84	6272.2	
676.03	6464.8	
676.21	7509.9	
676.4	7101.7	
676.58	6809.5	
676.77	6605.4	
676.95	8603.5	
677.14	7494.2	
677.32	6038.8	
677.51	5930.2	
677.69	7988.4	
677.88	7182.9	
678.06	5948.7	
678.25	6038.1	
678.44	7582.3	
678.62	7451.9	
678.81	5830.6	
678.99	6554.2	
679.18	8157.7	
679.36	7856	
679.55	6159.6	
679.73	6677.7	
679.92	7813.7	
680.1	7430.7	
680.29	7077.8	
680.47	6212.2	
680.66	7424.6	
680.84	8086.1	
681.03	5737.7	
681.21	6544.6	
681.4	7481.9	
681.58	7292.8	
681.77	6075.6	
681.95	6036.7	
682.14	8144.1	
682.32	8236.2	
682.51	6686.6	
682.69	5853.1	
682.88	7445.7	
683.06	7673.7	
683.25	6470.2	
683.43	6750.1	
683.62	7628	
683.8	7881.3	
683.99	6869.6	
684.17	6381.5	
684.36	8447.2	
684.54	7557.7	
684.73	5793.7	
684.91	5991	
685.1	7758.4	
685.28	7277.1	
685.46	6227.9	
685.65	6234	
685.83	7635.5	
686.02	7203.4	
686.2	5739.1	
686.39	5847.6	
686.57	6837.5	
686.76	8058.8	
686.94	5727.5	
687.13	5864	
687.31	7456	
687.5	7370	
687.68	5431.9	
687.86	6327.5	
688.05	8553	
688.23	6886	
688.42	6402	
688.6	5864	
688.79	7277.8	
688.97	7260.7	
689.16	6225.8	
689.34	5399.8	
689.52	7737.9	
689.71	8016.4	
689.89	6430.6	
690.08	5956.2	
690.26	7674.4	
690.45	7462.1	
690.63	6537.1	
690.81	6138.4	
691	7482.6	
691.18	7351.5	
691.37	6183.5	
691.55	7783.6	
691.74	7280.5	
691.92	8615.8	
692.1	6219	
692.29	5834.7	
692.47	7422.5	
692.66	6981.5	
692.84	5900.9	
693.02	6327.5	
693.21	7094.8	
693.39	7432.1	
693.58	6351.4	
693.76	5995.8	
693.94	8189.1	
694.13	8065.6	
694.31	6025.8	
694.5	6752.8	
694.68	7279.8	
694.86	7662.1	
695.05	6221.7	
695.23	6417.7	
695.42	7948.2	
695.6	9533.3	
695.78	6745.3	
695.97	6201.9	
696.15	8018.5	
696.34	7535.8	
696.52	6033.3	
696.7	6670.2	
696.89	7791.2	
697.07	7337.9	
697.25	6536.4	
697.44	7539.9	
697.62	7772.7	
697.81	7955.7	
697.99	6304.3	
698.17	6675.7	
698.36	7306.5	
698.54	7766.6	
698.72	6499.6	
698.91	5874.3	
699.09	7406.1	
699.28	7339.2	
699.46	6294.8	
699.64	6177.4	
699.83	7256.6	
700.01	8002.1	
700.19	6705	
700.38	5583.4	
700.56	8045.8	
700.74	7301.7	
700.93	5806	
701.11	6457.2	
701.29	7703.1	
701.48	8518.9	
701.66	5982.8	
701.84	6083.8	
702.03	7520.1	
702.21	7993.9	
702.39	5745.9	
702.58	6200.6	
702.76	7802.1	
702.94	7896.3	
703.13	5750.7	
703.31	7586.4	
703.49	7400.7	
703.68	7942	
703.86	5869.5	
704.04	6621.1	
704.23	7670.3	
704.41	7897	
704.59	6197.2	
704.78	6862.1	
704.96	8798.1	
705.14	7888.1	
705.33	5939.8	
705.51	6451.1	
705.69	7440.3	
705.87	8036.2	
706.06	6608.1	
706.24	5829.9	
706.42	7686.7	
706.61	7928.4	
706.79	6642.2	
706.97	5784.8	
707.16	7272.3	
707.34	7652.6	
707.52	6603.3	
707.7	6005.3	
707.89	7342.7	
708.07	7167.2	
708.25	6597.9	
708.44	6797.2	
708.62	7340.6	
708.8	8035.5	
708.98	6669.6	
709.17	6032	
709.35	7553.6	
709.53	7586.4	
709.72	5707	
709.9	5864.7	
710.08	7775.5	
710.26	7719.5	
710.45	6928.3	
710.63	5970.5	
710.81	7460.8	
710.99	7495.6	
711.18	6462.7	
711.36	6040.1	
711.54	7301.7	
711.72	7875.1	
711.91	6132.3	
712.09	5690.6	
712.27	7422.5	
712.45	8136.6	
712.64	6171.2	
712.82	5511.1	
713	6959	
713.18	7084.6	
713.37	5482.4	
713.55	6419.7	
713.73	7617.1	
713.91	6642.2	
714.1	5719.3	
714.28	5358.2	
714.46	7351.5	
714.64	6767.2	
714.83	4882.4	
715.01	5371.1	
715.19	6675	
715.37	6032.6	
715.55	5014.8	
715.74	5182.7	
715.92	7140.6	
716.1	5660.6	
716.28	6032.6	
716.47	5209.3	
716.65	6244.3	
716.83	6230.6	
717.01	5121.3	
717.19	5061.2	
717.38	7619.1	
717.56	5990.3	
717.74	5247.6	
717.92	4642.1	
718.1	6738.5	
718.29	6184.2	
718.47	4385.4	
718.65	4806.6	
718.83	6732.4	
719.01	6689.3	
719.2	4350.6	
719.38	5156.8	
719.56	6546	
719.74	7653.3	
719.92	4956.8	
720.11	5661.3	
720.29	6706.4	
720.47	6105	
720.65	4607.2	
720.83	5229.8	
721.02	6210.8	
721.2	6037.4	
721.38	5085.1	
721.56	4592.2	
721.74	5587.5	
721.92	5746.6	
722.11	5489.9	
722.29	5180	
722.47	6561	
722.65	5938.4	
722.83	4592.2	
723.01	5171.1	
723.2	6046.3	
723.38	6221.7	
723.56	4197.7	
723.74	5016.8	
723.92	5601.2	
724.1	6412.9	
724.29	4453	
724.47	5230.5	
724.65	5819	
724.83	5619.6	
725.01	4375.1	
725.19	4967.7	
725.37	5634.6	
725.56	5615.5	
725.74	4249.5	
725.92	4461.2	
726.1	5574.6	
726.28	5885.2	
726.46	4732.9	
726.64	4519.2	
726.83	5836	
727.01	5976.7	
727.19	4217.5	
727.37	4754.7	
727.55	5855.1	
727.73	6270.9	
727.91	4166.3	
728.09	4077.5	
728.28	6281.1	
728.46	6464.1	
728.64	4797	
728.82	4828.4	
729	6941.9	
729.18	6470.9	
729.36	4133.5	
729.54	5829.2	
729.72	7064.1	
729.91	5924.8	
730.09	5638.1	
730.27	4695.3	
730.45	5892	
730.63	6300.9	
730.81	5111	
730.99	4419.5	
731.17	6675	
731.35	5639.4	
731.53	4717.8	
731.71	4551.3	
731.9	6408.1	
732.08	6523.5	
732.26	4682.3	
732.44	4436.6	
732.62	6621.1	
732.8	6240.8	
732.98	4910.3	
733.16	4285.7	
733.34	6225.1	
733.52	5277.6	
733.7	4573.1	
733.88	4767	
734.07	6059.9	
734.25	5881.8	
734.43	4122.6	
734.61	5247.6	
734.79	6873.7	
734.97	5801.9	
735.15	4252.3	
735.33	4474.8	
735.51	5971.9	
735.69	5782.8	
735.87	5242.1	
736.05	4571.7	
736.23	5882.4	
736.41	5674.2	
736.59	4453.6	
736.77	4567.7	
736.95	6163.7	
737.13	5657.9	
737.32	4223.6	
737.5	4397	
737.68	6548.7	
737.86	5632.6	
738.04	4082.3	
738.22	5363.6	
738.4	5531.6	
738.58	5763	
738.76	4468	
738.94	3682.2	
739.12	5586.2	
739.3	5467.4	
739.48	4870.8	
739.66	4650.9	
739.84	5760.9	
740.02	5698.8	
740.2	3780.6	
740.38	4042	
740.56	5976.7	
740.74	5077.6	
740.92	4517.8	
741.1	4398.4	
741.28	5565	
741.46	5330.9	
741.64	4128.7	
741.82	4511.7	
742	5572.5	
742.18	5532.2	
742.36	4274.1	
742.54	4003.8	
742.72	5964.4	
742.9	4986.8	
743.08	4560.1	
743.26	3649.5	
743.44	6047.7	
743.62	5890.6	
743.8	4593.6	
743.98	4003.1	
744.16	5677.7	
744.34	5446.2	
744.52	4444.1	
744.7	4485.1	
744.88	5801.2	
745.06	5427.8	
745.24	4526	
745.42	4607.9	
745.6	5822.4	
745.78	5698.1	
745.96	3738.2	
746.14	3882.3	
746.32	6261.3	
746.5	5758.9	
746.68	4273.4	
746.86	3889.8	
747.03	6021.7	
747.21	4941.1	
747.39	4252.3	
747.57	3837.9	
747.75	5517.2	
747.93	5735.7	
748.11	3831.7	
748.29	3841.3	
748.47	6614.9	
748.65	5274.2	
748.83	4377.9	
749.01	4145.8	
749.19	5620.3	
749.37	5036.6	
749.55	4090.5	
749.73	4115.7	
749.91	5394.3	
750.09	5243.5	
750.26	4146.5	
750.44	3709.6	
750.62	5379.3	
750.8	5350.7	
750.98	3601.7	
751.16	3898	
751.34	5454.4	
751.52	4999.8	
751.7	4401.8	
751.88	3581.9	
752.06	5765	
752.24	5496.7	
752.42	3565.5	
752.59	3849.5	
752.77	5285.8	
752.95	6298.9	
753.13	4265.9	
753.31	3878.9	
753.49	5156.1	
753.67	5382.7	
753.85	4113	
754.03	3762.8	
754.21	5673.6	
754.38	5862.7	
754.56	3807.9	
754.74	3241.9	
754.92	5045.5	
755.1	5496.7	
755.28	3220.1	
755.46	3230.3	
755.64	6084.5	
755.82	6221	
755.99	3541.6	
756.17	3523.9	
756.35	4430.4	
756.53	5498.1	
756.71	2779.1	
756.89	3480.2	
757.07	5136.3	
757.25	4575.2	
757.42	3775.8	
757.6	4382	
757.78	5295.4	
757.96	4539	
758.14	3498.6	
758.32	3162.7	
758.5	4171.7	
758.67	4782.7	
758.85	3407.8	
759.03	3528.7	
759.21	4936.3	
759.39	4511.7	
759.57	3123.8	
759.75	3966.2	
759.92	5436.7	
760.1	4949.3	
760.28	4138.3	
760.46	4391.5	
760.64	4780.6	
760.82	4552.6	
760.99	4066.6	
761.17	3531.4	
761.35	5275.6	
761.53	4589.5	
761.71	3560.1	
761.89	4058.4	
762.06	5196.4	
762.24	4862.6	
762.42	3690.4	
762.6	3470.6	
762.78	4857.1	
762.96	5280.3	
763.13	3894.6	
763.31	3677.5	
763.49	5370.5	
763.67	4818.2	
763.85	4270	
764.02	4642.1	
764.2	5595.1	
764.38	4949.3	
764.56	3542.3	
764.74	4192.9	
764.91	5683.1	
765.09	4790.2	
765.27	3392.1	
765.45	3164.8	
765.63	5727.5	
765.8	5489.2	
765.98	3063.1	
766.16	3251.5	
766.34	4574.5	
766.52	4414.1	
766.69	3940.3	
766.87	3166.8	
767.05	4905.6	
767.23	5381.4	
767.41	3386.7	
767.58	3589.4	
767.76	5284.4	
767.94	5304.2	
768.12	3464.5	
768.29	3964.2	
768.47	4877.6	
768.65	5456.5	
768.83	3149.8	
769	3972.4	
769.18	4678.9	
769.36	5091.9	
769.54	3957.4	
769.72	3196.2	
769.89	5424.4	
770.07	5371.1	
770.25	3447.4	
770.43	4441.4	
770.6	5874.3	
770.78	6140.5	
770.96	3616.7	
771.14	4017.4	
771.31	5318.6	
771.49	4796.3	
771.67	3030.3	
771.85	3168.2	
772.02	4321.2	
772.2	4792.2	
772.38	3756	
772.55	3280.2	
772.73	5039.4	
772.91	4916.5	
773.09	3604.4	
773.26	3687.7	
773.44	4958.8	
773.62	4810	
773.8	3282.2	
773.97	3110.2	
774.15	5048.9	
774.33	4786.8	
774.5	3175.7	
774.68	3452.9	
774.86	5197.1	
775.04	4773.8	
775.21	3286.3	
775.39	3218.7	
775.57	5042.8	
775.74	5125.4	
775.92	3121.1	
776.1	3038.5	
776.27	4907.6	
776.45	5779.4	
776.63	3209.8	
776.81	3008.5	
776.98	4730.8	
777.16	5483.8	
777.34	3375.1	
777.51	3547.1	
777.69	4743.8	
777.87	4541	
778.04	3461.1	
778.22	3840.6	
778.4	4579.3	
778.57	4984.8	
778.75	2854.9	
778.93	3081.5	
779.1	4442.7	
779.28	4326	
779.46	2894.5	
779.64	3213.9	
779.81	5215.5	
779.99	5709.7	
780.17	3731.4	
780.34	3848.1	
780.52	4741.7	
780.69	4927.4	
780.87	3455.6	
781.05	3177.1	
781.22	4814.8	
781.4	4900.8	
781.58	3272.7	
781.75	2660.3	
781.93	4874.2	
782.11	4320.5	
782.28	3932.8	
782.46	3246	
782.64	4300.7	
782.81	4944.5	
782.99	3330.7	
783.17	3266.5	
783.34	4889.2	
783.52	4410	
783.69	3402.4	
783.87	4052.9	
784.05	4449.6	
784.22	4368.3	
784.4	3940.3	
784.58	3517	
784.75	5094	
784.93	4500.8	
785.1	3238.5	
785.28	3638.6	
785.46	4949.9	
785.63	4384.7	
785.81	3310.9	
785.99	3112.2	
786.16	4558.8	
786.34	4833.2	
786.51	3164.8	
786.69	3460.4	
786.87	4235.9	
787.04	4573.1	
787.22	3094.5	
787.39	3710.9	
787.57	4453.6	
787.75	5165	
787.92	3900.7	
788.1	3827	
788.27	4398.4	
788.45	4204.5	
788.63	3639.2	
788.8	2722.4	
788.98	4840	
789.15	4111.6	
789.33	2855.6	
789.5	3256.3	
789.68	5064.6	
789.86	5160.9	
790.03	3564.8	
790.21	3153.2	
790.38	5126.1	
790.56	4554	
790.73	3130.7	
790.91	3055.6	
791.09	4435.9	
791.26	4932.9	
791.44	3328.6	
791.61	2899.2	
791.79	4414.1	
791.96	4437.3	
792.14	2911.5	
792.32	2610.5	
792.49	4387.4	
792.67	4481	
792.84	2983.2	
793.02	2810.5	
793.19	4799.8	
793.37	5233.2	
793.54	2675.3	
793.72	2866.5	
793.89	5288.5	
794.07	4408.6	
794.25	3233.1	
794.42	2726.5	
794.6	5171.8	
794.77	4844.8	
794.95	3556	
795.12	3059	
795.3	4405.9	
795.47	4823.6	
795.65	3446.7	
795.82	3237.2	
796	4272.7	
796.17	5587.5	
796.35	3219.4	
796.52	3714.3	
796.7	4838	
796.87	4881.7	
797.05	3173	
797.22	3801.7	
797.4	4883.7	
797.57	5517.9	
797.75	3278.1	
797.92	3103.4	
798.1	5094.7	
798.27	4288.4	
798.45	2705.4	
798.62	2909.5	
798.8	4622.9	
798.97	4958.1	
799.15	3429.7	
799.32	3279.5	
799.5	4106.2	
799.67	4644.1	
799.85	3577.1	
800.02	2676	
800.2	4390.2	
800.37	4560.1	
800.55	3637.2	
800.72	3101.3	
800.9	4965	
801.07	5267.4	
801.25	4073.4	
801.42	3366.9	
801.6	5030.5	
801.77	4696.7	
801.95	3194.1	
802.12	3004.4	
802.29	4765.6	
802.47	4679.6	
802.64	3375.1	
802.82	2640.5	
802.99	4380.6	
803.17	5071.5	
803.34	3305.4	
803.52	2958.6	
803.69	5532.9	
803.87	4169.7	
804.04	3270.6	
804.21	3340.2	
804.39	5167	
804.56	4455.7	
804.74	2828.2	
804.91	3375.7	
805.09	4323.9	
805.26	4442	
805.44	2904	
805.61	3123.2	
805.78	4970.4	
805.96	4892.6	
806.13	3365.5	
806.31	3585.3	
806.48	4030.4	
806.66	4404.5	
806.83	3374.4	
807	3290.4	
807.18	4357.4	
807.35	4693.3	
807.53	3258.3	
807.7	2701.3	
807.87	5220.3	
808.05	4358.1	
808.22	3594.9	
808.4	2739.5	
808.57	4375.1	
808.74	4093.9	
808.92	3066.5	
809.09	3826.3	
809.27	4401.8	
809.44	4700.8	
809.61	2736.8	
809.79	2986.6	
809.96	5266.7	
810.14	4910.3	
810.31	2728.6	
810.48	3241.3	
810.66	4446.8	
810.83	5013.4	
811.01	3059.7	
811.18	3375.1	
811.35	4955.4	
811.53	3987.4	
811.7	3605.1	
811.87	3379.8	
812.05	4483.7	
812.22	4354	
812.39	2994.1	
812.57	2881.5	
812.74	4490.5	
812.92	5624.4	
813.09	3199.6	
813.26	3429.7	
813.44	5444.9	
813.61	4297.3	
813.78	2724.5	
813.96	3423.5	
814.13	4458.4	
814.3	4216.8	
814.48	3719.1	
814.65	3179.1	
814.82	5275.6	
815	4175.1	
815.17	3259.7	
815.34	3822.2	
815.52	4375.1	
815.69	4346.5	
815.87	3198.2	
816.04	3191.4	
816.21	4375.1	
816.38	3998.3	
816.56	3136.8	
816.73	2950.4	
816.9	5437.4	
817.08	4902.2	
817.25	3033.7	
817.42	3604.4	
817.6	4033.8	
817.77	4343.1	
817.94	3308.8	
818.12	2935.4	
818.29	4210.6	
818.46	6018.3	
818.64	3113.6	
818.81	2861	
818.98	4237.2	
819.16	5659.2	
819.33	3465.2	
819.5	3315.7	
819.67	4659.8	
819.85	5124	
820.02	3207.8	
820.19	3414	
820.37	4594.3	
820.54	4330.1	
820.71	3270.6	
820.88	4018.1	
821.06	4640	
821.23	4237.9	
821.4	3304.7	
821.58	3306.1	
821.75	4889.9	
821.92	4514.4	
822.09	2748.4	
822.27	2881.5	
822.44	4413.4	
822.61	4347.8	
822.79	2748.4	
822.96	4944.5	
823.13	4715.1	
823.3	4139.6	
823.48	3136.8	
823.65	2846.7	
823.82	4931.5	
823.99	4117.8	
824.17	3846.8	
824.34	2889	
824.51	5558.2	
824.68	4454.3	
824.86	3021.4	
825.03	3239.9	
825.2	4438.6	
825.37	5147.9	
825.55	2978.4	
825.72	3161.4	
825.89	5568.4	
826.06	5267.4	
826.24	3141.6	
826.41	3220.8	
826.58	5287.2	
826.75	4596.3	
826.92	2646	
827.1	2863.1	
827.27	6747.4	
827.44	5525.4	
827.61	3052.8	
827.79	3596.2	
827.96	4313	
828.13	4394.3	
828.3	3147	
828.47	2704	
828.65	4700.8	
828.82	4650.9	
828.99	3921.9	
829.16	3430.3	
829.34	4971.1	
829.51	4735.6	
829.68	3252.9	
829.85	3295.2	
830.02	5178.6	
830.2	4938.3	
830.37	2572.9	
830.54	3837.2	
830.71	5466.7	
830.88	4423.6	
831.05	2557.2	
831.23	2903.3	
831.4	5335	
831.57	5761.6	
831.74	2996.2	
831.91	2683.5	
832.09	4739.7	
832.26	4905.6	
832.43	3076.7	
832.6	3398.3	
832.77	4642.7	
832.94	5204.6	
833.12	2557.2	
833.29	3055.6	
833.46	4368.3	
833.63	5928.9	
833.8	3379.8	
833.97	3087	
834.15	4963.6	
834.32	4778.6	
834.49	3256.3	
834.66	3306.8	
834.83	4973.8	
835	4300.7	
835.17	2990.7	
835.35	3029.6	
835.52	4838.7	
835.69	4730.1	
835.86	3147.7	
836.03	2612.5	
836.2	4977.2	
836.37	4678.2	
836.55	3039.9	
836.72	2891	
836.89	4602.5	
837.06	5016.8	
837.23	3153.2	
837.4	3438.5	
837.57	5537	
837.75	6027.2	
837.92	2844.6	
838.09	3041.2	
838.26	4629.8	
838.43	5040.7	
838.6	3260.4	
838.77	2952.5	
838.94	5689.9	
839.11	5519.3	
839.29	3150.5	
839.46	2458.2	
839.63	4959.5	
839.8	4674.1	
839.97	2985.3	
840.14	3001.6	
840.31	4797	
840.48	4889.9	
840.65	2557.9	
840.82	2982.5	
841	4842.8	
841.17	4708.3	
841.34	2784.6	
841.51	2897.9	
841.68	4870.8	
841.85	4608.6	
842.02	2923.1	
842.19	2433.7	
842.36	4741	
842.53	4686.4	
842.7	2767.5	
842.87	3325.9	
843.05	5932.3	
843.22	4653.7	
843.39	2665.8	
843.56	2896.5	
843.73	4554.7	
843.9	5018.2	
844.07	4321.9	
844.24	3631	
844.41	6692.1	
844.58	4308.9	
844.75	2783.2	
844.92	2932.7	
845.09	4862.6	
845.26	4826.4	
845.43	2786.6	
845.6	2945.7	
845.77	4885.1	
845.94	4667.3	
846.12	3031.7	
846.29	3204.4	
846.46	5083.1	
846.63	4867.3	
846.8	2790.7	
846.97	3248.1	
847.14	5237.3	
847.31	4825	
847.48	3155.2	
847.65	3362.1	
847.82	5072.1	
847.99	4995	
848.16	3653.6	
848.33	3357.3	
848.5	4549.2	
848.67	5272.8	
848.84	2755.2	
849.01	2882.9	
849.18	4485.1	
849.35	4222.2	
849.52	3401	
849.69	2762.7	
849.86	5090.6	
850.03	5130.2	
850.2	2808.4	
850.37	3312.9	
850.54	5113.1	
850.71	4651.6	
850.88	3305.4	
851.05	2730.6	
851.22	4756.7	
851.39	5294	
851.56	2644.6	
851.73	3186	
851.9	4403.1	
852.07	5047.6	
852.24	3043.3	
852.41	2736.8	
852.58	4840.7	
852.75	4371.7	
852.92	3056.9	
853.09	2708.1	
853.26	4554	
853.43	5188.9	
853.6	2805.7	
853.77	2406.4	
853.94	5293.3	
854.11	4330.8	
854.28	3994.2	
854.44	2965.5	
854.61	5580	
854.78	5104.2	
854.95	2799.6	
855.12	3406.5	
855.29	4107.5	
855.46	5356.1	
855.63	2768.9	
855.8	3740.3	
855.97	4483.7	
856.14	5164.3	
856.31	3803.8	
856.48	3016	
856.65	4576.5	
856.82	4300.7	
856.99	2685.6	
857.16	2912.9	
857.33	5760.3	
857.49	4608.6	
857.66	2949.8	
857.83	3134.1	
858	4651.6	
858.17	4761.5	
858.34	2649.4	
858.51	2791.4	
858.68	5347.9	
858.85	5327.4	
859.02	3231	
859.19	3321.8	
859.36	4379.9	
859.52	4351.3	
859.69	2765.4	
859.86	3233.1	
860.03	4388.8	
860.2	5249.6	
860.37	2563.4	
860.54	2830.3	
860.71	4986.8	
860.88	5372.5	
861.05	3058.3	
861.21	3399.6	
861.38	5344.5	
861.55	4225	
861.72	2583.2	
861.89	3089	
862.06	5114.5	
862.23	5385.5	
862.4	2738.8	
862.56	2861	
862.73	4924	
862.9	4667.3	
863.07	3195.5	
863.24	2625.5	
863.41	4337.6	
863.58	4354.7	
863.75	2887.6	
863.91	3229.6	
864.08	5247.6	
864.25	4954	
864.42	3469.9	
864.59	3795.6	
864.76	5490.6	
864.93	4328.7	
865.09	2736.8	
865.26	2982.5	
865.43	5215.5	
865.6	5460.6	
865.77	2442.5	
865.94	2772.3	
866.1	5152.7	
866.27	4953.4	
866.44	4027.7	
866.61	2659.6	
866.78	4651.6	
866.95	4965	
867.11	2710.8	
867.28	2529.2	
867.45	5160.9	
867.62	4369	
867.79	3168.2	
867.96	2743.6	
868.12	4356	
868.29	5056.4	
868.46	2795.5	
868.63	3611.3	
868.8	5053	
868.97	4972.5	
869.13	2895.8	
869.3	2860.3	
869.47	4903.5	
869.64	5036	
869.81	2789.3	
869.97	2853.5	
870.14	4837.3	
870.31	5319.3	
870.48	2706.7	
870.65	3419.4	
870.81	4665.3	
870.98	4648.9	
871.15	3115	
871.32	2873.3	
871.48	4891.2	
871.65	5382.1	
871.82	2732.7	
871.99	3049.4	
872.16	5662	
872.32	5173.2	
872.49	2840.5	
872.66	2811.2	
872.83	5036	
872.99	4437.9	
873.16	3117.7	
873.33	2792.7	
873.5	4744.5	
873.67	4770.4	
873.83	2881.5	
874	3631.7	
874.17	4852.3	
874.34	5600.5	
874.5	3471.3	
874.67	3381.9	
874.84	5260.5	
875.01	4244.1	
875.17	3840.6	
875.34	2777.7	
875.51	4788.2	
875.68	5710.4	
875.84	3324.5	
876.01	3855.6	
876.18	4973.8	
876.34	4932.2	
876.51	2790.7	
876.68	2732.7	
876.85	4579.9	
877.01	5209.3	
877.18	3857	
877.35	2747	
877.52	4837.3	
877.68	4280.9	
877.85	2700.6	
878.02	2737.5	
878.18	4648.2	
878.35	4541	
878.52	2291.7	
878.69	3050.8	
878.85	5133.6	
879.02	4963.6	
879.19	3828.3	
879.35	2942.2	
879.52	5012.1	
879.69	5094.7	
879.86	2459.6	
880.02	3062.4	
880.19	4685.8	
880.36	5571.8	
880.52	3097.9	
880.69	3233.1	
880.86	5076.9	
881.02	5075.5	
881.19	3032.4	
881.36	3002.3	
881.52	4928.8	
881.69	4431.1	
881.86	2998.9	
882.02	2899.9	
882.19	5198.4	
882.36	5872.2	
882.52	2853.5	
882.69	3776.5	
882.86	4812.7	
883.02	4739	
883.19	3354.6	
883.36	3148.4	
883.52	5084.4	
883.69	5621	
883.86	2843.9	
884.02	2557.2	
884.19	5014.8	
884.36	4760.2	
884.52	3094.5	
884.69	2914.9	
884.86	4543.1	
885.02	5417.6	
885.19	3053.5	
885.36	3164.1	
885.52	4701.5	
885.69	4867.3	
885.86	3879.5	
886.02	3442.6	
886.19	5038.7	
886.35	4618.9	
886.52	3044.6	
886.69	3801.7	
886.85	4375.1	
887.02	5253	
887.19	5253	
887.35	5253	
887.52	5253	
887.68	5253	
887.85	5253	
888.02	5253	
888.18	5253	
888.35	5253	
888.51	5253	
888.68	5253	
888.85	5253	
889.01	5253	
889.18	5253	
889.35	5253	
889.51	5253	
889.68	5253	
889.84	5253	
890.01	5253	
890.17	5253	
890.34	5253	
890.51	5253	
890.67	5253	
890.84	5253	
891	5253	
891.17	5253	
891.34	5253	
891.5	5253	
891.67	5253	
891.83	5253	
892	5253	
892.16	5253	
892.33	5253	
892.5	5253	
892.66	5253	
892.83	5253	
892.99	5253	
893.16	5253	
893.32	5253	
893.49	5253	
893.65	5253	
893.82	5253	
893.99	5253	
894.15	5253	
894.32	5253	
894.48	5253	
894.65	5253	
894.81	5253	
894.98	5253	
895.14	5253	
895.31	5253	
895.47	5253	
895.64	5253	
895.81	5253	
895.97	5253	
896.14	5253	
896.3	5253	
896.47	5253	
896.63	5253	
896.8	5253	
896.96	5253	
897.13	5253	
897.29	5253	
897.46	5253	
897.62	5253	
897.79	5253	
897.95	5253	
898.12	5253	
898.28	5253	
898.45	5253	
898.61	5253	
898.78	5253	
898.94	5253	
899.11	5253	
899.27	5253	
899.44	5253	
899.6	5253	
899.77	5253	
899.93	5253	
900.1	5253	
900.26	5253	
900.43	5253	
900.59	5253	
900.76	5253	
900.92	5253	
901.09	5253	
901.25	5253	
901.42	5253	
901.58	5253	
901.75	5253	
901.91	5253	
902.07	5253	
902.24	5253	
902.4	5253	
902.57	5253	
902.73	5253	
902.9	5253	
903.06	5253	
903.23	5253	
903.39	5253	
903.56	5253	
903.72	5253	
903.88	5253	
904.05	5253	
904.21	5253	
904.38	5253	
904.54	5253	
904.71	5253	
904.87	5253	
905.03	5253	
905.2	5253	
905.36	5253	
905.53	5253	
905.69	5253	
905.86	5253	
906.02	5253	
906.18	5253	
906.35	5253	
906.51	5253	
906.68	5253	
906.84	5253	
907.01	5253	
907.17	5253	
907.33	5253	
907.5	5253	
907.66	5253	
907.83	5253	
907.99	5253	
908.15	5253	
908.32	5253	
908.48	5253	
908.65	5253	
908.81	5253	
908.97	5253	
909.14	5253	
909.3	5253	
909.47	5253	
909.63	5253	
909.79	5253	
909.96	5253	
910.12	5253	
910.28	5253	
910.45	5253	
910.61	5253	
910.78	5253	
910.94	5253	
911.1	5253	
911.27	5253	
911.43	5253	
911.59	5253	
911.76	5253	
911.92	5253	
912.08	5253	
912.25	5253	
912.41	5253	
912.57	5253	
912.74	5253	
912.9	5253	
913.07	5253	
913.23	5253	
913.39	5253	
913.56	5253	
913.72	5253	
913.88	5253	
914.05	5253	
914.21	5253	
914.37	5253	
914.54	5253	
914.7	5253	
914.86	5253	
915.03	5253	
915.19	5253	
