Wavelength	Intensities	
nm	a.u.	
179.22	1658.2	
179.44	1663.6	
179.65	1652.7	
179.86	1674.6	
180.08	1667	
180.29	3827	
180.51	2994.8	
180.72	4922	
180.94	5526.1	
181.15	2719	
181.37	2619.4	
181.58	4760.8	
181.79	4939	
182.01	2772.9	
182.22	2953.2	
182.44	4949.3	
182.65	4265.9	
182.87	3614.7	
183.08	3216.7	
183.29	5218.2	
183.51	4332.8	
183.72	2907.4	
183.94	4083	
184.15	4627	
184.37	4613.4	
184.58	2633.7	
184.79	3391.4	
185.01	4400.4	
185.22	4989.5	
185.44	3599.6	
185.65	3136.8	
185.86	4638.6	
186.08	4343.1	
186.29	2613.9	
186.51	2711.5	
186.72	4387.4	
186.94	5011.4	
187.15	3134.1	
187.36	3202.3	
187.58	6300.9	
187.79	4756.7	
188.01	3254.9	
188.22	4823	
188.43	5533.6	
188.65	4908.3	
188.86	2762	
189.08	3220.1	
189.29	4534.9	
189.5	4505.5	
189.72	2942.2	
189.93	3000.3	
190.15	5056.4	
190.36	5855.8	
190.57	3235.8	
190.79	3138.2	
191	5104.9	
191.22	5103.5	
191.43	3264.5	
191.64	2809.8	
191.86	5261.2	
192.07	5052.3	
192.29	2858.3	
192.5	2936.1	
192.71	5062.6	
192.93	4504.2	
193.14	2954.5	
193.35	3050.1	
193.57	4526	
193.78	5125.4	
194	2441.2	
194.21	2868.5	
194.42	4287.8	
194.64	4646.2	
194.85	3196.2	
195.07	3646.1	
195.28	4663.2	
195.49	4229.1	
195.71	3779.2	
195.92	2822.8	
196.13	4883.7	
196.35	4878.9	
196.56	4046.8	
196.78	3192.8	
196.99	5781.4	
197.2	5461.9	
197.42	3561.4	
197.63	3239.9	
197.84	4289.1	
198.06	4853	
198.27	3017.3	
198.48	3762.1	
198.7	4500.1	
198.91	4686.4	
199.13	3229.6	
199.34	3188	
199.55	5094	
199.77	4100.7	
199.98	2858.3	
200.19	3242.6	
200.41	4668	
200.62	4414.7	
200.83	3286.3	
201.05	3508.9	
201.26	4592.2	
201.47	4463.9	
201.69	2830.3	
201.9	2889	
202.11	4711.7	
202.33	5351.3	
202.54	3039.9	
202.76	3364.1	
202.97	4721.3	
203.18	4805.2	
203.4	3322.5	
203.61	3367.5	
203.82	4685.8	
204.04	4468	
204.25	3232.4	
204.46	3191.4	
204.68	4653	
204.89	4855.1	
205.1	3154.6	
205.32	2768.2	
205.53	4912.4	
205.74	5012.7	
205.96	2471.2	
206.17	3224.9	
206.38	4897.4	
206.6	5016.2	
206.81	3657	
207.02	3056.3	
207.24	4863.2	
207.45	5109.7	
207.66	3032.4	
207.88	2718.3	
208.09	4767	
208.3	4668	
208.52	2881.5	
208.73	3159.3	
208.94	4643.4	
209.15	5173.9	
209.37	3108.1	
209.58	3188.7	
209.79	5008	
210.01	4566.3	
210.22	2557.9	
210.43	2652.1	
210.65	4628.4	
210.86	4931.5	
211.07	3055.6	
211.29	2832.3	
211.5	4869.4	
211.71	4607.2	
211.93	2858.3	
212.14	2827.6	
212.35	4635.9	
212.56	4709.6	
212.78	3191.4	
212.99	2672.6	
213.2	5356.1	
213.42	4505.5	
213.63	2975.7	
213.84	3090.4	
214.06	4265.9	
214.27	4294.6	
214.48	3080.1	
214.69	3290.4	
214.91	5161.6	
215.12	5143.1	
215.33	3241.3	
215.55	3552.5	
215.76	5570.5	
215.97	4848.2	
216.18	3156.6	
216.4	3156.6	
216.61	4463.9	
216.82	4984.1	
217.04	2867.8	
217.25	2992.8	
217.46	5094	
217.67	4927.4	
217.89	2658.3	
218.1	2688.3	
218.31	4715.8	
218.53	4857.8	
218.74	3033.7	
218.95	2925.9	
219.16	4681.7	
219.38	5374.6	
219.59	2969.6	
219.8	3392.8	
220.01	5722	
220.23	4712.4	
220.44	3684.3	
220.65	2798.9	
220.87	4677.6	
221.08	5154.1	
221.29	2716.3	
221.5	3438.5	
221.72	6052.4	
221.93	4488.5	
222.14	3252.9	
222.35	3685.7	
222.57	4691.9	
222.78	4974.5	
222.99	3097.2	
223.2	3261	
223.42	4896	
223.63	4977.2	
223.84	2428.9	
224.05	2407	
224.27	5666.7	
224.48	5317.2	
224.69	3739.6	
224.9	3253.5	
225.12	4784.1	
225.33	4629.1	
225.54	2669.9	
225.75	2910.2	
225.97	4371	
226.18	4661.9	
226.39	3093.8	
226.6	2918.4	
226.82	4508.3	
227.03	4340.3	
227.24	3197.6	
227.45	2781.8	
227.67	4952.7	
227.88	5247.6	
228.09	3510.9	
228.3	3547.1	
228.52	4940.4	
228.73	4592.9	
228.94	2991.4	
229.15	2679.4	
229.36	4595	
229.58	4622.3	
229.79	3090.4	
230	3477.5	
230.21	5400.5	
230.43	4721.3	
230.64	3241.3	
230.85	3288.4	
231.06	5068	
231.28	4941.1	
231.49	2713.6	
231.7	3217.4	
231.91	4926.7	
232.12	4691.2	
232.34	2800.9	
232.55	3099.3	
232.76	5079.6	
232.97	4732.9	
233.18	2833.7	
233.4	3226.2	
233.61	4786.8	
233.82	4552	
234.03	2986.6	
234.25	2959.3	
234.46	6157.6	
234.67	4689.8	
234.88	3291.1	
235.09	2931.3	
235.31	4820.9	
235.52	4606.6	
235.73	3143.6	
235.94	2770.2	
236.15	4465.3	
236.37	5484.5	
236.58	2854.2	
236.79	3115.6	
237	4873.5	
237.21	4319.2	
237.43	3289	
237.64	2721.1	
237.85	7574.1	
238.06	4360.1	
238.27	3267.9	
238.48	2758.6	
238.7	4937	
238.91	4616.8	
239.12	3022.1	
239.33	3113.6	
239.54	4406.5	
239.76	4588.1	
239.97	3069.2	
240.18	3106.8	
240.39	5501.5	
240.6	4788.8	
240.82	3231.7	
241.03	2723.8	
241.24	4640	
241.45	5237.3	
241.66	2842.6	
241.87	3352.5	
242.09	5208	
242.3	5493.3	
242.51	3332.7	
242.72	3126.6	
242.93	4988.9	
243.14	4663.2	
243.36	3529.3	
243.57	3793.5	
243.78	5279.7	
243.99	4903.5	
244.2	3114.3	
244.41	2796.2	
244.63	4354	
244.84	4886.5	
245.05	3305.4	
245.26	3058.3	
245.47	4871.4	
245.68	5023.7	
245.9	3946.4	
246.11	3220.8	
246.32	4495.3	
246.53	4849.6	
246.74	4762.2	
246.95	2676	
247.16	4376.5	
247.38	4718.5	
247.59	2686.3	
247.8	3134.8	
248.01	4382	
248.22	4640	
248.43	2839.2	
248.64	3063.1	
248.86	4297.3	
249.07	4491.9	
249.28	2833	
249.49	3149.8	
249.7	5023	
249.91	5072.8	
250.12	2709.5	
250.34	2758.6	
250.55	4765.6	
250.76	4705.5	
250.97	3222.1	
251.18	3234.4	
251.39	5081	
251.6	4764.3	
251.81	3241.9	
252.03	3227.6	
252.24	4493.2	
252.45	4934.9	
252.66	2738.1	
252.87	3326.6	
253.08	4702.8	
253.29	5763	
253.5	2741.5	
253.72	3627.6	
253.93	4573.1	
254.14	5412.8	
254.35	2964.1	
254.56	3007.8	
254.77	4824.3	
254.98	4414.1	
255.19	2937.5	
255.41	3701.4	
255.62	4807.3	
255.83	5093.3	
256.04	3302	
256.25	3162.1	
256.46	5545.9	
256.67	4433.9	
256.88	3186	
257.09	3531.4	
257.31	4357.4	
257.52	4402.5	
257.73	3891.8	
257.94	2962	
258.15	4610	
258.36	4706.9	
258.57	3616	
258.78	2432.3	
258.99	5028.4	
259.2	4547.2	
259.41	2953.9	
259.63	3024.8	
259.84	5253	
260.05	5468.1	
260.26	3759.4	
260.47	2944.3	
260.68	5088.5	
260.89	4574.5	
261.1	3508.9	
261.31	2833	
261.52	5170.4	
261.73	5343.8	
261.95	3736.9	
262.16	3292.5	
262.37	5177.3	
262.58	5254.4	
262.79	3728	
263	2994.8	
263.21	4667.3	
263.42	4203.1	
263.63	3255.6	
263.84	3014.6	
264.05	5069.4	
264.26	5281.7	
264.47	3613.3	
264.69	3159.3	
264.9	5204.6	
265.11	4775.9	
265.32	2838.5	
265.53	2951.8	
265.74	4751.3	
265.95	4166.9	
266.16	3132	
266.37	3365.5	
266.58	4796.3	
266.79	4573.8	
267	2994.8	
267.21	2760.7	
267.42	4280.9	
267.63	4618.2	
267.84	3093.8	
268.06	2731.3	
268.27	5034.6	
268.48	5101.5	
268.69	3078.8	
268.9	3496.6	
269.11	5173.9	
269.32	4244.1	
269.53	3119.1	
269.74	2889	
269.95	4825.7	
270.16	4250.9	
270.37	3080.1	
270.58	3514.3	
270.79	4541	
271	5023	
271.21	3221.5	
271.42	3106.1	
271.63	4856.4	
271.84	4305.5	
272.05	2587.3	
272.26	2790	
272.47	4652.3	
272.68	4791.6	
272.89	2990.7	
273.11	3373	
273.32	4487.1	
273.53	5259.2	
273.74	3337.5	
273.95	3230.3	
274.16	5029.1	
274.37	4666.6	
274.58	3358	
274.79	2775.7	
275	4812	
275.21	5072.1	
275.42	3903.4	
275.63	3417.4	
275.84	4897.4	
276.05	5881.8	
276.26	3239.2	
276.47	3069.2	
276.68	4584	
276.89	5397.1	
277.1	3442.6	
277.31	2797.5	
277.52	4757.4	
277.73	5101.5	
277.94	2732	
278.15	2972.3	
278.36	4840	
278.57	4458.4	
278.78	2981.8	
278.99	3335.5	
279.2	4498	
279.41	4386.1	
279.62	3823.6	
279.83	2774.3	
280.04	5562.3	
280.25	4362.2	
280.46	3820.1	
280.67	3097.9	
280.88	4430.4	
281.09	5119.9	
281.3	3218	
281.51	3969.6	
281.72	4462.5	
281.93	5014.1	
282.14	2943.6	
282.35	3121.8	
282.56	5028.4	
282.77	4933.6	
282.98	3047.4	
283.19	3651.5	
283.4	5894.7	
283.61	4608.6	
283.82	2865.8	
284.03	3729.4	
284.24	4792.9	
284.45	5070.8	
284.66	3852.2	
284.87	3541.6	
285.08	5169.1	
285.29	5140.4	
285.5	2734	
285.71	3029.6	
285.92	5094.7	
286.12	5553.4	
286.33	3681.6	
286.54	3026.2	
286.75	5010.7	
286.96	4556.7	
287.17	2813.2	
287.38	3682.2	
287.59	4466.6	
287.8	4457.1	
288.01	3013.9	
288.22	3424.9	
288.43	4896.7	
288.64	4302.1	
288.85	3538.9	
289.06	3383.2	
289.27	4979.3	
289.48	5272.8	
289.69	3792.8	
289.9	3400.3	
290.11	5136.3	
290.32	4533.5	
290.53	3565.5	
290.74	3279.5	
290.94	5010.7	
291.15	4984.8	
291.36	2945	
291.57	3403.7	
291.78	4539.7	
291.99	4230.4	
292.2	2891	
292.41	3330.7	
292.62	4973.2	
292.83	4937	
293.04	4018.8	
293.25	2901.3	
293.46	4563.6	
293.67	5059.8	
293.88	2861	
294.09	2832.3	
294.29	4341	
294.5	4738.3	
294.71	3096.5	
294.92	2995.5	
295.13	4535.6	
295.34	5529.5	
295.55	2700.6	
295.76	2671.2	
295.97	4901.5	
296.18	5449	
296.39	2770.9	
296.6	2947	
296.81	4682.3	
297.01	4937.7	
297.22	3037.1	
297.43	2953.2	
297.64	4497.3	
297.85	4431.1	
298.06	2535.4	
298.27	2699.9	
298.48	4673.5	
298.69	4456.4	
298.9	3147	
299.11	2854.9	
299.31	4369.7	
299.52	4313	
299.73	3331.4	
299.94	3283.6	
300.15	4721.3	
300.36	4404.5	
300.57	3287	
300.78	3257	
300.99	4590.9	
301.2	4758.1	
301.4	2966.1	
301.61	3132.7	
301.82	4920.6	
302.03	5020.9	
302.24	3476.8	
302.45	2827.6	
302.66	4805.2	
302.87	5123.3	
303.08	3000.3	
303.29	3890.5	
303.49	4526	
303.7	4623.6	
303.91	2670.6	
304.12	3674.1	
304.33	4312.3	
304.54	4799.8	
304.75	2977.7	
304.96	2848.7	
305.16	4913.8	
305.37	5431.9	
305.58	2605.7	
305.79	2719.7	
306	4922	
306.21	4222.2	
306.42	2977.7	
306.63	4241.3	
306.83	4519.9	
307.04	4969.7	
307.25	3235.8	
307.46	3140.9	
307.67	4166.9	
307.88	4909	
308.09	2915.6	
308.29	2954.5	
308.5	4659.1	
308.71	5029.8	
308.92	3079.5	
309.13	2820.1	
309.34	4649.6	
309.55	4612	
309.75	3583.3	
309.96	3284.3	
310.17	4913.8	
310.38	4474.8	
310.59	3369.6	
310.8	2813.9	
311.01	4564.2	
311.21	4646.8	
311.42	2874	
311.63	2933.4	
311.84	4481	
312.05	4689.2	
312.26	3247.4	
312.46	3472	
312.67	4559.5	
312.88	4313	
313.09	2828.2	
313.3	2810.5	
313.51	5221.6	
313.71	5493.3	
313.92	2880.1	
314.13	2969.6	
314.34	4839.4	
314.55	4683	
314.76	3568.9	
314.96	3147.7	
315.17	4795	
315.38	4875.5	
315.59	2870.6	
315.8	2783.9	
316.01	5184.8	
316.21	5320.6	
316.42	2809.8	
316.63	3111.5	
316.84	4580.6	
317.05	5063.9	
317.26	3319.8	
317.46	3041.2	
317.67	4666.6	
317.88	4944.5	
318.09	3487.7	
318.3	2714.2	
318.5	4530.1	
318.71	4841.4	
318.92	4392.2	
319.13	3291.8	
319.34	5025	
319.54	5087.2	
319.75	2660.3	
319.96	2606.4	
320.17	4890.5	
320.38	5029.8	
320.58	2624.8	
320.79	3095.8	
321	5096	
321.21	5154.1	
321.42	3142.3	
321.62	2631.6	
321.83	4449.6	
322.04	4700.8	
322.25	3033.7	
322.46	2847.4	
322.66	4706.2	
322.87	4909.7	
323.08	3452.9	
323.29	2800.3	
323.5	5394.3	
323.7	4371	
323.91	3726.6	
324.12	3390.1	
324.33	4745.1	
324.53	4898.1	
324.74	3293.1	
324.95	3392.1	
325.16	4300.7	
325.37	4582	
325.57	2870.6	
325.78	2875.3	
325.99	4804.5	
326.2	4296	
326.4	3839.9	
326.61	2682.8	
326.82	4639.3	
327.03	4734.9	
327.24	3932.8	
327.44	3719.8	
327.65	4883.7	
327.86	4052.2	
328.07	3295.2	
328.27	2791.4	
328.48	5158.2	
328.69	4284.4	
328.9	3916.4	
329.1	2996.9	
329.31	4604.5	
329.52	5191.6	
329.73	2855.6	
329.93	3160	
330.14	4773.8	
330.35	4820.2	
330.56	4453.6	
330.76	3465.2	
330.97	4573.1	
331.18	4862.6	
331.39	3161.4	
331.59	2635.7	
331.8	5083.7	
332.01	5182.7	
332.22	2942.2	
332.42	3271.3	
332.63	4812	
332.84	4448.2	
333.05	3136.8	
333.25	2916.3	
333.46	4456.4	
333.67	4658.4	
333.88	3006.4	
334.08	3254.2	
334.29	5898.1	
334.5	5105.6	
334.7	2806.4	
334.91	3859.7	
335.12	4323.3	
335.33	4984.8	
335.53	3107.5	
335.74	4377.9	
335.95	4575.8	
336.16	4407.2	
336.36	3072	
336.57	3490.4	
336.78	4309.6	
336.98	5042.1	
337.19	3746.4	
337.4	3037.1	
337.61	5524.1	
337.81	4328	
338.02	2911.5	
338.23	3627.6	
338.43	5216.2	
338.64	4386.7	
338.85	2880.8	
339.05	3695.2	
339.26	5298.1	
339.47	4298.7	
339.68	2895.1	
339.88	4048.2	
340.09	4855.7	
340.3	4992.9	
340.5	3291.8	
340.71	2595.5	
340.92	4360.8	
341.13	5145.9	
341.33	2772.9	
341.54	3267.9	
341.75	4795.7	
341.95	4516.5	
342.16	3235.1	
342.37	3340.9	
342.57	4359.4	
342.78	4619.5	
342.99	3451.5	
343.19	2647.3	
343.4	4945.2	
343.61	4842.8	
343.81	3037.8	
344.02	2815.3	
344.23	4952.7	
344.43	5186.8	
344.64	3412.6	
344.85	3416	
345.06	4855.7	
345.26	5111	
345.47	3269.9	
345.68	3755.3	
345.88	4248.9	
346.09	5019.6	
346.3	3311.6	
346.5	2574.3	
346.71	4627	
346.92	4438.6	
347.12	2709.5	
347.33	3261.7	
347.54	5074.2	
347.74	5291.3	
347.95	3211.9	
348.16	2572.9	
348.36	4524.6	
348.57	4360.8	
348.78	3302	
348.98	3439.9	
349.19	4623.6	
349.39	4242.7	
349.6	2729.3	
349.81	2942.9	
350.01	4906.3	
350.22	4437.3	
350.43	3231	
350.63	3695.2	
350.84	4723.3	
351.05	4469.4	
351.25	2902	
351.46	2710.8	
351.67	5014.8	
351.87	4422.2	
352.08	3114.3	
352.29	3463.1	
352.49	4994.3	
352.7	4995	
352.9	2828.2	
353.11	3433.1	
353.32	5487.9	
353.52	4531.5	
353.73	2887.6	
353.94	3420.1	
354.14	4881.7	
354.35	4732.9	
354.55	2934.7	
354.76	3156.6	
354.97	4908.3	
355.17	4627	
355.38	2805.7	
355.59	3613.3	
355.79	4500.1	
356	4661.2	
356.2	3162.7	
356.41	2912.2	
356.62	4338.3	
356.82	4656.4	
357.03	3391.4	
357.24	3035.8	
357.44	4421.6	
357.65	4597.7	
357.85	3921.9	
358.06	3265.8	
358.27	4319.2	
358.47	4386.1	
358.68	2767.5	
358.88	3358	
359.09	4898.1	
359.3	5115.1	
359.5	3841.3	
359.71	3491.8	
359.91	5409.4	
360.12	4971.1	
360.33	3436.5	
360.53	3733.4	
360.74	4557.4	
360.94	4595	
361.15	3530	
361.36	3022.1	
361.56	5094	
361.77	4769	
361.97	3861.8	
362.18	3132	
362.38	5125.4	
362.59	4496	
362.8	2974.3	
363	2891.7	
363.21	4285.7	
363.41	4764.3	
363.62	3353.9	
363.83	4019.5	
364.03	4928.8	
364.24	5442.8	
364.44	4116.4	
364.65	4161.5	
364.85	4702.8	
365.06	4478.2	
365.27	3112.2	
365.47	3171.6	
365.68	5367	
365.88	4747.9	
366.09	3459.7	
366.29	3151.8	
366.5	4788.2	
366.71	5154.7	
366.91	4020.2	
367.12	3560.1	
367.32	5595.1	
367.53	5036.6	
367.73	3566.2	
367.94	4156.7	
368.14	5072.1	
368.35	5515.9	
368.56	3487	
368.76	3062.4	
368.97	5115.8	
369.17	6142.5	
369.38	3164.8	
369.58	3326.6	
369.79	4412	
369.99	5415.5	
370.2	4055.7	
370.4	3339.6	
370.61	4919.2	
370.82	5809.4	
371.02	3349.1	
371.23	2852.8	
371.43	4512.4	
371.64	5374.6	
371.84	3397.6	
372.05	4172.4	
372.25	6167.1	
372.46	5059.2	
372.66	3403.7	
372.87	3386	
373.07	5102.2	
373.28	6293.4	
373.48	4010.6	
373.69	3814	
373.9	4808.6	
374.1	4809.3	
374.31	4055	
374.51	3644.7	
374.72	5309.7	
374.92	4661.9	
375.13	4068.6	
375.33	3549.8	
375.54	5059.8	
375.74	4793.6	
375.95	3686.3	
376.15	4504.2	
376.36	5222.3	
376.56	5048.2	
376.77	3743.7	
376.97	4020.2	
377.18	5892	
377.38	5281.7	
377.59	4202.4	
377.79	3461.1	
378	5121.3	
378.2	5327.4	
378.41	3472	
378.61	3358	
378.82	5408.7	
379.02	4831.2	
379.23	3563.5	
379.43	4315.1	
379.64	5532.2	
379.84	5160.9	
380.05	3430.3	
380.25	3413.3	
380.46	5253.7	
380.66	4997.7	
380.87	4281.6	
381.07	4597.7	
381.28	5664.7	
381.48	5312.4	
381.69	3437.2	
381.89	3532.7	
382.1	4612	
382.3	5272.2	
382.51	4190.8	
382.71	4839.4	
382.91	5195	
383.12	5578.7	
383.32	3660.4	
383.53	3812	
383.73	5138.4	
383.94	5026.4	
384.14	3800.3	
384.35	3240.6	
384.55	4921.3	
384.76	5195	
384.96	3685.7	
385.17	3929.4	
385.37	5199.8	
385.58	4689.2	
385.78	3820.1	
385.98	3124.5	
386.19	4930.1	
386.39	5184.8	
386.6	3523.2	
386.8	3668.6	
387.01	5162.2	
387.21	5264	
387.42	3920.5	
387.62	4334.2	
387.83	4841.4	
388.03	5065.3	
388.23	3794.9	
388.44	4236.6	
388.64	4676.2	
388.85	4767.7	
389.05	3941	
389.26	4413.4	
389.46	6115.2	
389.67	5668.1	
389.87	3976.5	
390.07	4017.4	
390.28	5036	
390.48	4744.5	
390.69	3474.7	
390.89	3651.5	
391.1	4954.7	
391.3	5522.7	
391.5	4449.6	
391.71	4858.5	
391.91	5397.8	
392.12	5990.3	
392.32	4599.7	
392.53	3984.7	
392.73	5018.9	
392.93	5074.2	
393.14	3768.3	
393.34	4284.4	
393.55	5380.7	
393.75	5023.7	
393.95	3758	
394.16	3687.7	
394.36	4927.4	
394.57	5324	
394.77	3416	
394.98	3659	
395.18	4928.8	
395.38	5029.8	
395.59	4319.8	
395.79	3632.4	
396	5016.8	
396.2	5419.6	
396.4	4213.4	
396.61	4098.7	
396.81	5393.7	
397.02	4985.4	
397.22	4364.2	
397.42	4390.8	
397.63	5504.9	
397.83	4920.6	
398.04	3603.7	
398.24	3986.7	
398.44	5275.6	
398.65	4648.2	
398.85	3529.3	
399.05	3611.9	
399.26	4943.8	
399.46	6074.3	
399.67	3917.1	
399.87	3727.3	
400.07	5177.9	
400.28	5446.2	
400.48	3733.4	
400.69	4440	
400.89	5573.9	
401.09	5947.3	
401.3	3695.2	
401.5	4472.8	
401.7	6040.8	
401.91	6199.2	
402.11	4017.4	
402.32	4035.2	
402.52	5606	
402.72	5574.6	
402.93	4221.5	
403.13	3428.3	
403.33	6088.6	
403.54	5167	
403.74	3872.7	
403.94	4507.6	
404.15	5188.9	
404.35	5995.1	
404.56	3783.3	
404.76	4994.3	
404.96	5525.4	
405.17	5425.1	
405.37	4604.5	
405.57	4218.1	
405.78	5563	
405.98	5255.8	
406.18	3830.4	
406.39	4440	
406.59	5602.6	
406.79	5204.6	
407	3613.3	
407.2	3758	
407.4	5808.7	
407.61	5674.2	
407.81	3749.1	
408.01	5028.4	
408.22	4881.7	
408.42	6220.4	
408.62	4588.8	
408.83	4241.3	
409.03	5449.6	
409.23	5395	
409.44	4313	
409.64	4435.2	
409.84	6118	
410.05	6014.2	
410.25	4442.7	
410.45	4328.7	
410.66	5724.1	
410.86	7423.2	
411.06	4655.7	
411.27	4558.1	
411.47	7274.4	
411.67	5872.2	
411.88	4714.4	
412.08	4923.3	
412.28	6294.1	
412.49	6634.7	
412.69	4599.1	
412.89	4578.6	
413.09	6511.2	
413.3	6434	
413.5	4702.1	
413.7	4371	
413.91	5952.8	
414.11	6482.5	
414.31	4571.7	
414.52	4823	
414.72	6307.1	
414.92	6263.4	
415.12	4517.1	
415.33	4924	
415.53	6524.1	
415.73	6633.4	
415.94	5195	
416.14	4758.8	
416.34	5880.4	
416.55	5635.3	
416.75	5620.3	
416.95	5218.2	
417.15	6612.9	
417.36	6989.7	
417.56	5730.2	
417.76	5089.9	
417.97	6784.9	
418.17	6591	
418.37	4896.7	
418.57	4884.4	
418.78	6500.3	
418.98	6309.1	
419.18	5429.8	
419.38	5337	
419.59	6193.7	
419.79	5879	
419.99	4701.5	
420.2	4964.3	
420.4	6561	
420.6	6614.9	
420.8	4678.9	
421.01	4579.3	
421.21	6455.2	
421.41	6480.5	
421.61	4918.5	
421.82	4737.6	
422.02	6170.5	
422.22	6756.9	
422.42	5308.3	
422.63	5010	
422.83	6072.2	
423.03	6998.6	
423.23	5066	
423.44	4385.4	
423.64	6117.3	
423.84	5866.7	
424.04	4672.1	
424.25	4427	
424.45	6774.7	
424.65	6693.4	
424.85	4276.8	
425.06	4675.5	
425.26	6821.8	
425.46	6082.5	
425.66	4996.4	
425.87	4797.7	
426.07	6582.2	
426.27	6396.5	
426.47	4876.2	
426.67	4447.5	
426.88	6879.8	
427.08	6440.9	
427.28	5104.2	
427.48	4334.2	
427.69	5686.5	
427.89	6141.9	
428.09	4979.3	
428.29	4293.9	
428.5	6543.9	
428.7	6333.7	
428.9	4329.4	
429.1	4679.6	
429.3	6227.9	
429.51	6492.7	
429.71	4541	
429.91	5140.4	
430.11	6575.3	
430.31	6649.1	
430.52	4824.3	
430.72	4941.1	
430.92	6834.8	
431.12	6402.6	
431.32	4574.5	
431.53	4824.3	
431.73	5758.9	
431.93	6851.1	
432.13	4489.8	
432.33	4420.9	
432.54	6113.2	
432.74	6225.8	
432.94	4419.5	
433.14	5099.4	
433.34	6555.5	
433.55	6212.9	
433.75	4999.1	
433.95	6314.6	
434.15	6400.6	
434.35	6035.4	
434.56	4508.9	
434.76	4206.5	
434.96	6302.3	
435.16	6487.3	
435.36	4477.5	
435.56	5285.1	
435.77	6148	
435.97	6179.4	
436.17	5665.4	
436.37	5158.8	
436.57	6117.3	
436.78	6031.3	
436.98	6338.5	
437.18	5599.1	
437.38	6574.7	
437.58	6135.7	
437.78	5712.5	
437.99	4743.1	
438.19	6477.7	
438.39	7149.5	
438.59	4583.4	
438.79	4275.5	
438.99	6951.5	
439.2	6032.6	
439.4	4285.7	
439.6	4302.1	
439.8	6361.7	
440	7077.1	
440.2	5193.6	
440.4	5316.5	
440.61	6750.8	
440.81	7050.5	
441.01	4655.7	
441.21	5258.5	
441.41	7038.2	
441.61	6737.8	
441.81	5474.9	
442.02	6115.9	
442.22	7346.7	
442.42	6763.1	
442.62	4653.7	
442.82	4736.3	
443.02	7041.6	
443.22	6397.9	
443.43	5048.2	
443.63	4609.3	
443.83	6335.7	
444.03	6282.5	
444.23	5541.8	
444.43	5242.8	
444.63	6541.9	
444.83	7325.6	
445.04	4912.4	
445.24	5625.1	
445.44	6749.4	
445.64	6832	
445.84	5286.5	
446.04	5292	
446.24	6320.7	
446.44	6988.4	
446.65	4687.8	
446.85	4987.5	
447.05	6378.7	
447.25	6972	
447.45	5084.4	
447.65	4644.8	
447.85	6590.4	
448.05	6193.7	
448.25	5309	
448.46	5140.4	
448.66	6526.9	
448.86	6235.4	
449.06	4600.4	
449.26	5297.4	
449.46	6731	
449.66	6154.8	
449.86	5068.7	
450.06	4955.4	
450.26	6226.5	
450.47	6702.3	
450.67	5114.5	
450.87	5427.1	
451.07	6793.8	
451.27	6532.3	
451.47	4678.2	
451.67	5295.4	
451.87	6370.5	
452.07	7256	
452.27	4902.8	
452.47	4861.9	
452.67	6587	
452.88	6858.6	
453.08	4436.6	
453.28	5730.2	
453.48	7350.2	
453.68	6463.4	
453.88	4715.8	
454.08	4913.8	
454.28	6759	
454.48	6471.6	
454.68	5315.2	
454.88	5602.6	
455.08	6898.9	
455.28	6682.5	
455.48	4722.6	
455.68	5211.4	
455.89	7229.3	
456.09	6920.8	
456.29	4947.9	
456.49	5047.6	
456.69	7117.4	
456.89	6494.1	
457.09	5366.4	
457.29	5650.3	
457.49	6812.9	
457.69	6879.8	
457.89	5287.9	
458.09	4835.3	
458.29	6659.3	
458.49	7251.2	
458.69	5593	
458.89	5188.2	
459.09	7393.2	
459.29	7402	
459.49	5160.9	
459.69	5764.3	
459.9	7096.2	
460.1	6711.2	
460.3	5117.2	
460.5	4932.9	
460.7	7094.8	
460.9	6752.2	
461.1	4802.5	
461.3	5638.1	
461.5	7586.4	
461.7	7266.2	
461.9	5101.5	
462.1	5401.9	
462.3	6911.2	
462.5	7273	
462.7	5188.9	
462.9	5285.8	
463.1	7988.4	
463.3	7833.5	
463.5	5370.5	
463.7	6029.2	
463.9	7195.9	
464.1	7335.8	
464.3	5539.8	
464.5	5652.4	
464.7	7500.3	
464.9	7262.8	
465.1	6637.5	
465.3	5836.7	
465.5	7829.4	
465.7	7744.7	
465.9	6068.1	
466.1	5901.6	
466.3	7574.1	
466.5	7468.9	
466.7	6604.7	
466.9	5857.2	
467.1	7564.5	
467.3	8124.3	
467.5	6518.7	
467.7	5823.7	
467.9	8322.3	
468.1	8908	
468.3	6259.3	
468.5	6730.3	
468.7	7509.2	
468.9	7367.2	
469.1	5916.6	
469.3	6524.1	
469.5	8918.2	
469.7	7193.1	
469.9	6296.8	
470.1	5753.4	
470.3	7531.7	
470.5	7516.7	
470.7	6655.9	
470.9	5872.2	
471.1	7348.8	
471.3	7606.2	
471.5	5698.8	
471.69	7040.9	
471.89	7268.9	
472.09	6886.6	
472.29	6221.7	
472.49	6467.5	
472.69	7066.2	
472.89	7533.1	
473.09	5666.7	
473.29	5727.5	
473.49	7155.6	
473.69	7133.8	
473.89	6330.3	
474.09	5720	
474.29	8099	
474.49	7803.4	
474.69	6384.9	
474.89	5903.6	
475.09	7228.6	
475.29	7234.1	
475.49	5490.6	
475.69	5653.1	
475.88	8309.3	
476.08	7574.8	
476.28	5388.2	
476.48	5644.9	
476.68	7806.9	
476.88	7608.9	
477.08	5633.3	
477.28	5832.6	
477.48	7245.7	
477.68	7534.5	
477.88	5461.9	
478.08	5730.9	
478.28	7960.5	
478.48	7352.9	
478.67	5711.1	
478.87	5302.9	
479.07	7776.8	
479.27	7404.8	
479.47	5828.5	
479.67	5862	
479.87	7619.8	
480.07	7965.9	
480.27	5359.5	
480.47	6468.9	
480.67	7389.1	
480.87	7858.1	
481.06	5591	
481.26	6212.9	
481.46	7428.7	
481.66	7324.9	
481.86	5887.2	
482.06	6634.1	
482.26	7145.4	
482.46	7940	
482.66	5765.7	
482.86	5555.5	
483.05	7488.1	
483.25	6948.1	
483.45	7517.4	
483.65	5817.6	
483.85	7049.8	
484.05	7283.9	
484.25	6161	
484.45	6398.5	
484.65	7957	
484.84	7927.7	
485.04	5760.9	
485.24	5772.5	
485.44	8118.8	
485.64	7011.6	
485.84	5360.9	
486.04	6260	
486.24	7260.7	
486.44	7463.5	
486.63	5284.4	
486.83	5920.7	
487.03	7279.8	
487.23	7321.5	
487.43	5350	
487.63	6971.3	
487.83	7436.9	
488.02	7905.2	
488.22	6039.5	
488.42	6479.1	
488.62	8054	
488.82	7195.2	
489.02	5822.4	
489.22	5876.3	
489.41	7880.6	
489.61	7703.8	
489.81	5595.7	
490.01	5597.1	
490.21	7750.2	
490.41	8385.1	
490.61	5625.8	
490.8	5658.5	
491	7531.7	
491.2	7106.5	
491.4	6104.3	
491.6	5500.2	
491.8	7473	
491.99	7507.9	
492.19	5376.6	
492.39	5594.4	
492.59	7719.5	
492.79	7836.9	
492.99	6180.1	
493.18	5631.9	
493.38	7949.5	
493.58	8515.5	
493.78	6173.3	
493.98	5788.9	
494.18	7759.1	
494.37	7284.6	
494.57	6305	
494.77	6244.9	
494.97	7890.8	
495.17	8127.7	
495.37	5925.5	
495.56	6321.4	
495.76	8230.8	
495.96	8049.9	
496.16	6888.7	
496.36	6111.8	
496.55	8230.1	
496.75	7787.1	
496.95	6368.5	
497.15	6378.1	
497.35	8107.9	
497.54	8012.3	
497.74	6175.3	
497.94	7350.8	
498.14	8675.9	
498.34	8403.5	
498.53	5913.9	
498.73	6423.1	
498.93	7617.8	
499.13	8130.4	
499.33	6460	
499.52	6748.1	
499.72	8116.8	
499.92	8340	
500.12	6212.2	
500.32	6391.7	
500.51	8267	
500.71	8047.8	
500.91	6830	
501.11	6626.5	
501.31	8170	
501.5	8514.8	
501.7	7171.3	
501.9	6384.2	
502.1	8100.4	
502.29	8381.7	
502.49	6709.1	
502.69	7040.9	
502.89	8214.4	
503.09	8177.5	
503.28	6008.1	
503.48	6075	
503.68	7750.9	
503.88	7626	
504.07	6675.7	
504.27	6349.4	
504.47	7873.1	
504.67	7979.6	
504.86	6666.8	
505.06	6468.9	
505.26	7725.6	
505.46	8972.8	
505.65	6295.5	
505.85	6520	
506.05	7629.4	
506.25	7986.4	
506.44	5840.8	
506.64	6465.4	
506.84	7452.6	
507.04	8082.6	
507.23	5986.9	
507.43	6310.5	
507.63	8876.6	
507.83	7673.1	
508.02	6284.5	
508.22	6042.2	
508.42	9060.2	
508.62	7389.1	
508.81	6133.7	
509.01	6625.2	
509.21	7421.2	
509.4	7653.3	
509.6	6373.3	
509.8	5981.4	
510	7613	
510.19	8510	
510.39	5913.2	
510.59	5943.2	
510.79	7522.9	
510.98	8363.2	
511.18	6076.3	
511.38	6152.8	
511.57	8049.2	
511.77	7804.8	
511.97	6510.5	
512.17	5902.9	
512.36	7944.8	
512.56	7886.7	
512.76	5907.7	
512.95	5663.3	
513.15	8144.1	
513.35	7152.2	
513.55	6431.3	
513.74	5905	
513.94	8036.9	
514.14	7572	
514.33	6549.4	
514.53	6339.1	
514.73	7632.1	
514.92	7726.3	
515.12	5971.9	
515.32	5871.5	
515.51	7790.5	
515.71	8135.2	
515.91	7111.2	
516.11	5947.3	
516.3	8948.9	
516.5	7543.4	
516.7	6330.3	
516.89	6763.1	
517.09	7585	
517.29	7615.7	
517.48	6565.8	
517.68	6107.7	
517.88	7290.8	
518.07	7905.2	
518.27	6522.1	
518.47	5737	
518.66	8275.8	
518.86	7373.4	
519.06	5753.4	
519.25	6040.1	
519.45	7438.2	
519.65	8622.6	
519.84	6470.2	
520.04	6917.4	
520.24	8822	
520.43	7976.8	
520.63	6276.3	
520.83	6076.3	
521.02	7373.4	
521.22	7828	
521.42	6385.6	
521.61	6807.4	
521.81	7507.2	
522.01	7709.2	
522.2	6328.9	
522.4	6078.4	
522.6	8004.1	
522.79	7158.3	
522.99	6109.8	
523.18	5672.2	
523.38	7890.8	
523.58	7758.4	
523.77	7062.8	
523.97	5715.2	
524.17	9103.2	
524.36	8722.3	
524.56	6703.7	
524.76	6478.4	
524.95	7854	
525.15	7617.8	
525.34	6338.5	
525.54	6410.1	
525.74	8138.6	
525.93	7451.9	
526.13	7176.1	
526.33	6293.4	
526.52	8449.2	
526.72	8026.7	
526.91	7220.5	
527.11	6644.3	
527.31	8279.9	
527.5	8566	
527.7	6570.6	
527.89	5924.8	
528.09	7653.3	
528.29	8110.6	
528.48	6933.7	
528.68	6723.5	
528.87	8314.8	
529.07	8325	
529.27	6594.5	
529.46	6325.5	
529.66	8116.8	
529.85	8377.6	
530.05	6158.9	
530.25	6707.1	
530.44	8971.5	
530.64	7965.2	
530.83	6364.4	
531.03	6546	
531.23	8364.6	
531.42	8143.4	
531.62	7053.2	
531.81	6576	
532.01	8495	
532.21	8771.5	
532.4	6333.7	
532.6	6662.7	
532.79	9081.4	
532.99	8439.7	
533.18	6693.4	
533.38	7435.5	
533.58	8222.6	
533.77	8669.7	
533.97	6668.2	
534.16	7284.6	
534.36	8884.8	
534.55	8206.2	
534.75	7466.2	
534.95	6677.1	
535.14	8929.8	
535.34	8154.3	
535.53	6441.5	
535.73	7837.6	
535.92	9192	
536.12	8298.4	
536.31	6581.5	
536.51	7314.7	
536.71	8488.1	
536.9	8115.4	
537.1	6663.4	
537.29	6833.4	
537.49	8766.7	
537.68	8023.3	
537.88	6948.1	
538.07	6417	
538.27	8368	
538.46	9035	
538.66	6379.4	
538.86	6698.9	
539.05	8376.2	
539.25	8678.6	
539.44	6945.3	
539.64	6507.8	
539.83	8251.3	
540.03	8865	
540.22	6516	
540.42	6500.9	
540.61	8383.7	
540.81	8454	
541	6852.5	
541.2	7387.7	
541.39	7962.5	
541.59	8304.5	
541.78	7068.9	
541.98	6566.5	
542.18	7811	
542.37	7824.6	
542.57	6746.7	
542.76	7109.2	
542.96	7871	
543.15	8252.6	
543.35	6698.9	
543.54	6275	
543.74	8314.1	
543.93	8153	
544.13	6760.3	
544.32	7362.4	
544.52	8400.8	
544.71	7841.7	
544.91	6092	
545.1	6868.2	
545.3	7890.1	
545.49	8265.6	
545.69	5987.6	
545.88	6463.4	
546.08	9003.6	
546.27	8737.3	
546.47	6767.2	
546.66	6227.2	
546.86	8391.2	
547.05	8802.9	
547.24	6423.8	
547.44	6354.8	
547.63	7738.6	
547.83	8457.4	
548.02	6500.3	
548.22	6743.3	
548.41	7555	
548.61	8441	
548.8	6294.1	
549	6195.1	
549.19	8070.4	
549.39	8299.1	
549.58	6047.7	
549.78	6440.2	
549.97	8227.4	
550.17	7868.3	
550.36	7046.4	
550.55	7733.1	
550.75	7892.2	
550.94	8564.6	
551.14	6211.5	
551.33	6283.2	
551.53	7455.3	
551.72	8164.6	
551.92	6485.9	
552.11	6201.9	
552.31	8258.1	
552.5	8190.5	
552.69	7507.2	
552.89	5940.5	
553.08	8164.6	
553.28	7870.3	
553.47	6296.8	
553.67	7076.4	
553.86	8501.1	
554.06	7296.9	
554.25	5701.5	
554.44	6139.8	
554.64	9065.7	
554.83	8812.4	
555.03	6062.7	
555.22	6358.9	
555.42	8201.4	
555.61	8014.4	
555.8	6198.5	
556	6341.9	
556.19	7397.3	
556.39	8198.7	
556.58	6341.9	
556.78	6223.1	
556.97	7921.5	
557.16	7695.6	
557.36	7047.1	
557.55	5999.9	
557.75	7188.4	
557.94	8506.6	
558.13	6062.7	
558.33	5857.9	
558.52	8305.2	
558.72	7441.6	
558.91	5933	
559.1	6126.8	
559.3	7238.9	
559.49	7144	
559.69	5695.4	
559.88	6318.7	
560.07	7859.4	
560.27	8197.3	
560.46	6467.5	
560.66	6559.6	
560.85	7803.4	
561.04	7083.9	
561.24	5909.1	
561.43	6034	
561.63	7318.8	
561.82	7599.3	
562.01	6851.8	
562.21	6194.4	
562.4	7807.5	
562.59	8528.4	
562.79	6161	
562.98	5923.4	
563.18	7780.2	
563.37	8806.9	
563.56	6485.9	
563.76	5879	
563.95	7393.2	
564.14	7391.1	
564.34	6206	
564.53	5939.8	
564.73	7835.5	
564.92	7940.7	
565.11	6289.3	
565.31	5814.9	
565.5	8194.6	
565.69	7389.1	
565.89	6069.5	
566.08	6247.7	
566.27	8026.7	
566.47	8360.5	
566.66	6658.6	
566.85	5675.6	
567.05	7834.8	
567.24	7417.7	
567.44	5881.1	
567.63	6872.3	
567.82	7956.4	
568.02	7737.2	
568.21	5956.9	
568.4	6110.5	
568.6	7674.4	
568.79	7639.6	
568.98	5789.6	
569.18	5808	
569.37	7697.6	
569.56	9071.8	
569.76	6197.8	
569.95	6909.8	
570.14	7976.8	
570.34	7763.2	
570.53	5852.4	
570.72	5760.3	
570.91	8249.2	
571.11	7600.7	
571.3	6127.5	
571.49	6833.4	
571.69	7675.8	
571.88	7362.4	
572.07	6466.1	
572.27	6460	
572.46	7263.5	
572.65	7892.2	
572.85	5909.1	
573.04	6190.3	
573.23	8280.6	
573.43	7752.9	
573.62	5832.6	
573.81	6191	
574	7760.4	
574.2	7617.8	
574.39	6042.9	
574.58	6227.9	
574.78	8371.4	
574.97	7787.1	
575.16	6480.5	
575.36	6460.7	
575.55	8126.3	
575.74	8183.7	
575.93	5777.3	
576.13	6533.7	
576.32	7684	
576.51	8017.1	
576.71	6189.6	
576.9	7045.7	
577.09	8314.1	
577.28	7914.7	
577.48	6402	
577.67	5731.6	
577.86	7678.5	
578.05	7903.1	
578.25	6271.6	
578.44	6277	
578.63	7761.1	
578.83	8644.5	
579.02	5867.4	
579.21	6817.7	
579.4	7815	
579.6	7734.5	
579.79	6363.7	
579.98	7823.2	
580.17	8187.8	
580.37	8272.4	
580.56	5943.2	
580.75	6354.8	
580.94	8401.5	
581.14	8449.9	
581.33	6780.8	
581.52	6066.8	
581.71	8014.4	
581.91	8492.2	
582.1	5836.7	
582.29	6256.5	
582.48	7757.7	
582.68	7722.9	
582.87	6537.1	
583.06	6324.1	
583.25	8101.8	
583.45	7645.8	
583.64	6778.8	
583.83	7299.6	
584.02	7746.8	
584.21	8077.2	
584.41	6814.3	
584.6	6311.2	
584.79	7830.7	
584.98	8243.1	
585.18	5982.8	
585.37	6002.6	
585.56	7591.8	
585.75	8075.8	
585.94	6143.2	
586.14	6486.6	
586.33	8442.4	
586.52	7746.1	
586.71	6438.1	
586.91	6161	
587.1	7372	
587.29	8020.5	
587.48	6157.6	
587.67	6040.8	
587.87	7945.4	
588.06	7930.4	
588.25	6965.1	
588.44	6537.8	
588.63	7612.3	
588.83	8079.2	
589.02	6111.1	
589.21	5956.2	
589.4	7576.1	
589.59	7499.7	
589.78	5459.2	
589.98	5540.4	
590.17	7147.4	
590.36	7446.4	
590.55	5152	
590.74	5626.5	
590.94	8279.3	
591.13	7305.1	
591.32	5588.2	
591.51	5288.5	
591.7	7617.1	
591.89	7242.3	
592.09	5414.8	
592.28	5760.9	
592.47	6726.2	
592.66	8127.7	
592.85	5382.7	
593.05	5479.7	
593.24	7243	
593.43	7783.6	
593.62	5548.6	
593.81	5889.3	
594	7294.9	
594.19	7373.4	
594.39	5530.9	
594.58	5415.5	
594.77	7510.6	
594.96	7826	
595.15	5499.5	
595.34	5871.5	
595.54	7448.5	
595.73	6855.9	
595.92	4963.6	
596.11	5754.1	
596.3	7726.3	
596.49	6991.1	
596.68	5629.9	
596.88	5872.2	
597.07	7562.5	
597.26	6813.6	
597.45	5350	
597.64	6077	
597.83	7031.4	
598.02	7434.1	
598.22	5411.4	
598.41	5902.9	
598.6	7363.8	
598.79	6810.9	
598.98	5338.4	
599.17	6045.6	
599.36	7292.8	
599.55	8077.2	
599.74	6808.8	
599.94	6624.5	
600.13	7691.5	
600.32	6792.4	
600.51	5185.5	
600.7	5212.1	
600.89	8118.8	
601.08	8172.8	
601.27	5152	
601.47	5789.6	
601.66	7492.2	
601.85	7957	
602.04	5629.2	
602.23	5802.6	
602.42	6940.6	
602.61	7363.8	
602.8	5531.6	
602.99	5442.1	
603.18	7112.6	
603.37	7320.1	
603.57	5839.4	
603.76	6247.7	
603.95	7841	
604.14	7477.8	
604.33	5499.5	
604.52	5664.7	
604.71	7392.5	
604.9	6967.9	
605.09	6206	
605.28	5937.7	
605.47	7716.7	
605.66	7423.9	
605.86	5842.2	
606.05	5474.9	
606.24	7734.5	
606.43	6658.6	
606.62	5722.7	
606.81	6161.7	
607	7632.1	
607.19	7154.9	
607.38	5299.5	
607.57	5491.3	
607.76	6858.6	
607.95	6546.7	
608.14	5801.9	
608.33	6152.1	
608.52	6918.7	
608.72	7507.9	
608.91	5135.6	
609.1	5069.4	
609.29	6997.2	
609.48	6610.2	
609.67	5866.7	
609.86	5171.8	
610.05	6808.8	
610.24	6933.1	
610.43	5129.5	
610.62	4850.3	
610.81	7742	
611	7626	
611.19	5191.6	
611.38	5639.4	
611.57	7247.8	
611.76	7988.4	
611.95	5046.2	
612.14	4942.4	
612.33	7018.4	
612.52	6703.7	
612.71	5423	
612.9	4883	
613.09	6446.3	
613.28	8090.2	
613.47	5259.9	
613.66	5796.4	
613.85	7148.1	
614.04	6740.5	
614.24	5255.8	
614.43	4718.5	
614.62	7197.2	
614.81	7129.7	
615	5584.8	
615.19	5584.1	
615.38	6677.7	
615.57	6974.7	
615.76	5532.2	
615.95	6215.6	
616.14	7291.5	
616.33	7055.3	
616.52	5810.1	
616.71	5850.4	
616.9	7192.5	
617.09	6984.3	
617.28	5319.3	
617.47	6116.6	
617.66	6586.3	
617.85	6592.4	
618.04	5883.8	
618.22	5523.4	
618.41	6879.8	
618.6	7486.7	
618.79	5514.5	
618.98	5229.8	
619.17	7608.9	
619.36	6366.5	
619.55	5410.1	
619.74	5481.7	
619.93	7100.3	
620.12	6761.7	
620.31	5784.8	
620.5	5920	
620.69	7516	
620.88	7815	
621.07	6400.6	
621.26	5739.8	
621.45	7252.5	
621.64	7277.8	
621.83	5849	
622.02	5280.3	
622.21	7339.2	
622.4	7176.1	
622.59	6219	
622.78	6005.3	
622.97	6945.3	
623.16	7535.2	
623.35	5826.5	
623.54	5111	
623.72	7025.2	
623.91	7055.9	
624.1	5942.5	
624.29	5107	
624.48	7838.9	
624.67	7322.2	
624.86	5892	
625.05	5268.7	
625.24	7998.7	
625.43	6845.7	
625.62	6986.3	
625.81	5369.1	
626	7555	
626.19	7037.5	
626.38	5866.1	
626.56	5548.6	
626.75	6901	
626.94	7409.6	
627.13	5966.4	
627.32	5040.1	
627.51	7361.1	
627.7	8138.6	
627.89	5089.2	
628.08	5962.3	
628.27	6687.3	
628.46	6922.1	
628.65	5317.2	
628.83	5045.5	
629.02	7397.3	
629.21	6790.4	
629.4	5670.1	
629.59	5749.3	
629.78	6763.8	
629.97	7414.3	
630.16	5751.4	
630.35	5451	
630.54	7886	
630.72	7565.2	
630.91	5469.4	
631.1	5811.5	
631.29	7225.9	
631.48	7219.1	
631.67	5847	
631.86	5457.2	
632.05	6961	
632.24	6941.2	
632.42	5193.6	
632.61	5693.4	
632.8	7043	
632.99	6779.5	
633.18	5694	
633.37	5930.2	
633.56	7213.6	
633.75	7105.8	
633.93	5762.3	
634.12	5457.8	
634.31	7823.2	
634.5	7440.3	
634.69	5486.5	
634.88	5907	
635.07	7036.8	
635.25	7437.5	
635.44	6081.8	
635.63	6199.9	
635.82	6989.7	
636.01	6453.8	
636.2	6042.9	
636.39	5755.5	
636.57	7712	
636.76	7352.2	
636.95	5281.7	
637.14	6252.4	
637.33	7262.1	
637.52	7833.5	
637.7	5152	
637.89	5935.7	
638.08	7012.9	
638.27	7968.6	
638.46	5915.9	
638.65	6171.2	
638.83	7904.5	
639.02	6870.9	
639.21	5811.5	
639.4	6210.1	
639.59	7162.4	
639.78	6845.7	
639.96	5308.3	
640.15	5364.3	
640.34	7090.1	
640.53	7144.7	
640.72	5137.7	
640.91	5343.8	
641.09	6624.5	
641.28	7548.8	
641.47	5377.3	
641.66	5879	
641.85	7101.7	
642.03	7236.2	
642.22	5785.5	
642.41	5356.1	
642.6	6686.6	
642.79	6327.5	
642.97	5255.8	
643.16	5709.7	
643.35	6626.5	
643.54	6546.7	
643.73	5108.3	
643.91	5715.2	
644.1	6494.8	
644.29	6903.7	
644.48	5198.4	
644.67	5194.3	
644.85	6535.8	
645.04	6824.5	
645.23	4930.8	
645.42	5222.3	
645.6	6502.3	
645.79	7280.5	
645.98	5115.1	
646.17	4394.9	
646.36	6298.2	
646.54	6648.4	
646.73	5676.3	
646.92	4776.5	
647.11	6355.5	
647.29	7129	
647.48	4840	
647.67	4713.7	
647.86	7322.9	
648.05	7251.9	
648.23	5122	
648.42	5954.1	
648.61	6922.1	
648.8	6716.7	
648.98	4807.9	
649.17	5109	
649.36	6394.4	
649.55	6001.9	
649.73	4874.2	
649.92	5438	
650.11	6291.4	
650.3	6510.5	
650.48	4969.1	
650.67	4736.3	
650.86	6709.1	
651.05	5884.5	
651.23	4960.9	
651.42	4898.7	
651.61	6359.6	
651.79	6326.2	
651.98	5078.3	
652.17	4815.5	
652.36	6657.3	
652.54	6004	
652.73	4792.9	
652.92	4745.1	
653.11	6623.1	
653.29	6735.1	
653.48	4348.5	
653.67	5014.8	
653.85	6457.9	
654.04	7187.7	
654.23	5112.4	
654.42	4813.4	
654.6	6177.4	
654.79	6596.5	
654.98	4440.7	
655.16	4826.4	
655.35	5928.2	
655.54	5727.5	
655.73	4466.6	
655.91	4415.4	
656.1	6548	
656.29	5690.6	
656.47	4244.8	
656.66	5401.9	
656.85	6047	
657.03	6016.2	
657.22	4559.5	
657.41	4607.2	
657.59	6133.7	
657.78	5934.3	
657.97	4368.3	
658.16	4821.6	
658.34	6524.8	
658.53	6841.6	
658.72	5487.2	
658.9	5796.4	
659.09	6257.9	
659.28	6184.2	
659.46	4679.6	
659.65	4578.6	
659.84	5998.5	
660.02	6460	
660.21	4730.1	
660.4	4505.5	
660.58	6669.6	
660.77	6136.4	
660.96	4977.9	
661.14	4347.2	
661.33	7022.5	
661.52	6889.4	
661.7	4264.6	
661.89	6699.6	
662.08	5980.8	
662.26	5537.7	
662.45	4521.2	
662.64	4551.3	
662.82	6527.6	
663.01	5844.2	
663.2	4562.9	
663.38	5035.3	
663.57	6391.7	
663.75	6244.9	
663.94	4765.6	
664.13	5679.7	
664.31	5997.1	
664.5	6425.8	
664.69	5005.9	
664.87	5279.7	
665.06	5742.5	
665.25	6282.5	
665.43	5545.2	
665.62	5513.8	
665.8	6457.9	
665.99	5967.1	
666.18	4724	
666.36	4795	
666.55	6454.5	
666.74	6406	
666.92	4565.6	
667.11	5733.6	
667.29	6050.4	
667.48	6451.1	
667.67	5311.7	
667.85	4700.8	
668.04	6014.2	
668.22	5977.3	
668.41	4834.6	
668.6	5046.9	
668.78	5791.7	
668.97	6040.1	
669.15	5070.1	
669.34	4326.7	
669.53	5941.8	
669.71	6162.3	
669.9	4473.4	
670.08	4883.7	
670.27	5826.5	
670.46	6270.9	
670.64	5136.3	
670.83	5205.3	
671.01	5702.9	
671.2	6176	
671.38	4534.2	
671.57	4528.7	
671.76	6658.6	
671.94	6976.7	
672.13	4396.3	
672.31	5087.2	
672.5	6490	
672.69	5885.9	
672.87	4487.8	
673.06	4676.9	
673.24	6283.9	
673.43	5942.5	
673.61	5108.3	
673.8	4733.5	
673.98	6281.1	
674.17	6399.9	
674.36	5106.3	
674.54	5015.5	
674.73	6153.5	
674.91	6421.1	
675.1	4774.5	
675.28	4469.4	
675.47	6006	
675.65	6386.2	
675.84	4730.1	
676.03	4950.6	
676.21	5935.7	
676.4	5469.4	
676.58	5239.4	
676.77	5098.8	
676.95	6900.3	
677.14	5886.5	
677.32	4453.6	
677.51	4339.6	
677.69	6454.5	
677.88	5719.3	
678.06	4396.3	
678.25	4501.4	
678.44	6059.3	
678.62	5836.7	
678.81	4313.7	
678.99	4960.2	
679.18	6559.6	
679.36	6286.6	
679.55	4676.2	
679.73	5028.4	
679.92	6292.7	
680.1	5918.6	
680.29	5517.2	
680.47	4711	
680.66	5874.3	
680.84	6415.6	
681.03	4185.4	
681.21	4913.1	
681.4	5890	
681.58	5836.7	
681.77	4527.4	
681.95	4470	
682.14	6539.8	
682.32	6667.5	
682.51	5087.8	
682.69	4310.3	
682.88	5823.1	
683.06	6222.4	
683.25	4887.1	
683.43	5114.5	
683.62	6070.9	
683.8	6309.8	
683.99	5367	
684.17	4825	
684.36	6892.8	
684.54	6008.1	
684.73	4245.4	
684.91	4342.4	
685.1	6193.7	
685.28	5728.9	
685.46	4734.9	
685.65	4871.4	
685.83	6279.8	
686.02	5783.5	
686.2	4356	
686.39	4433.2	
686.57	5526.8	
686.76	6682.5	
686.94	4412.7	
687.13	4472.8	
687.31	6154.8	
687.5	5891.3	
687.68	4098.7	
687.86	4960.2	
688.05	7133.8	
688.23	5467.4	
688.42	4999.8	
688.6	4384.7	
688.79	5844.9	
688.97	5897.5	
689.16	4722.6	
689.34	3975.8	
689.52	6243.6	
689.71	6518	
689.89	4950.6	
690.08	4435.9	
690.26	5965.1	
690.45	5802.6	
690.63	5120.6	
690.81	4577.2	
691	5967.8	
691.18	5716.6	
691.37	4709.6	
691.55	6154.8	
691.74	5681.7	
691.92	7132.4	
692.1	4577.9	
692.29	4226.3	
692.47	5846.3	
692.66	5485.1	
692.84	4376.5	
693.02	4725.3	
693.21	5470.8	
693.39	5838.8	
693.58	4844.8	
693.76	4410	
693.94	6638.8	
694.13	6483.2	
694.31	4416.1	
694.5	5210.7	
694.68	5692	
694.86	5978	
695.05	4618.9	
695.23	4684.4	
695.42	6287.9	
695.6	7715.4	
695.78	5173.9	
695.97	4494.6	
696.15	6317.3	
696.34	5775.3	
696.52	4317.1	
696.7	4922.6	
696.89	6031.3	
697.07	5679	
697.25	4854.4	
697.44	5803.3	
697.62	6039.5	
697.81	6209.4	
697.99	4613.4	
698.17	4956.1	
698.36	5623.7	
698.54	6065.4	
698.72	4817.5	
698.91	4163.5	
699.09	5838.8	
699.28	5723.4	
699.46	4632.5	
699.64	4572.4	
699.83	5719.3	
700.01	6451.1	
700.19	5087.8	
700.38	4027	
700.56	6395.8	
700.74	5680.4	
700.93	4233.8	
701.11	4870.8	
701.29	6116.6	
701.48	6875	
701.66	4422.2	
701.84	4492.6	
702.03	5820.3	
702.21	6288.6	
702.39	4222.2	
702.58	4550.6	
702.76	6205.3	
702.94	6145.3	
703.13	4050.2	
703.31	5892	
703.49	5620.3	
703.68	6678.4	
703.86	4269.3	
704.04	4975.9	
704.23	6027.9	
704.41	6163	
704.59	4360.8	
704.78	5201.2	
704.96	7157	
705.14	6298.9	
705.33	4264.6	
705.51	4816.8	
705.69	5819.6	
705.87	6451.8	
706.06	4934.2	
706.24	4251.6	
706.42	6060.6	
706.61	6174.6	
706.79	5044.8	
706.97	4209.9	
707.16	5700.9	
707.34	6122.7	
707.52	4944.5	
707.7	4399.7	
707.89	5750	
708.07	5528.8	
708.25	4995	
708.44	5026.4	
708.62	5674.9	
708.8	6434.7	
708.98	5171.1	
709.17	4426.3	
709.35	5887.9	
709.53	6011.5	
709.72	4221.5	
709.9	4321.2	
710.08	6311.8	
710.26	6215.6	
710.45	5311.7	
710.63	4474.1	
710.81	5910.4	
710.99	5935.7	
711.18	4900.8	
711.36	4525.3	
711.54	5808.7	
711.72	6300.2	
711.91	4592.2	
712.09	4248.2	
712.27	5926.1	
712.45	6303.6	
712.64	4780.6	
712.82	4038.6	
713	5606.7	
713.18	5754.1	
713.37	4179.2	
713.55	4972.5	
713.73	6281.8	
713.91	5320.6	
714.1	4374.5	
714.28	4014.7	
714.46	6049	
714.64	5445.5	
714.83	3669.3	
715.01	4203.1	
715.19	5570.5	
715.37	5025	
715.55	3996.3	
715.74	4177.9	
715.92	6107	
716.1	4656.4	
716.28	4986.1	
716.47	4279.6	
716.65	5320.6	
716.83	5242.8	
717.01	4154.6	
717.19	4209.9	
717.38	6733	
717.56	5088.5	
717.74	4377.9	
717.92	3808.5	
718.1	5931.6	
718.29	5372.5	
718.47	3465.8	
718.65	4025.6	
718.83	5930.2	
719.01	5745.2	
719.2	3399.6	
719.38	4188.1	
719.56	5566.4	
719.74	6677.1	
719.92	3930.7	
720.11	4637.3	
720.29	5773.9	
720.47	5063.3	
720.65	3622.2	
720.83	4277.5	
721.02	5315.8	
721.2	5099.4	
721.38	4265.2	
721.56	3743.7	
721.74	4743.1	
721.92	4868	
722.11	4617.5	
722.29	4392.2	
722.47	5781.4	
722.65	5223	
722.83	3771	
723.01	4279.6	
723.2	5269.4	
723.38	5445.5	
723.56	3401	
723.74	4123.9	
723.92	4891.9	
724.1	5680.4	
724.29	3694.5	
724.47	4525.3	
724.65	5080.3	
724.83	4812	
725.01	3649.5	
725.19	4186.7	
725.37	4946.5	
725.56	4934.2	
725.74	3535.5	
725.92	3702	
726.1	4901.5	
726.28	5089.2	
726.46	4014	
726.64	3721.2	
726.83	5180	
727.01	5227.1	
727.19	3577.8	
727.37	4026.3	
727.55	5283.1	
727.73	5588.9	
727.91	3494.5	
728.09	3375.1	
728.28	5577.3	
728.46	5785.5	
728.64	4167.6	
728.82	4126.7	
729	6282.5	
729.18	5809.4	
729.36	3587.4	
729.54	5147.9	
729.72	6427.2	
729.91	5268.1	
730.09	4961.5	
730.27	3992.2	
730.45	5214.1	
730.63	5624.4	
730.81	4405.2	
730.99	3749.1	
731.17	6036	
731.35	5060.5	
731.53	4160.1	
731.71	3898.6	
731.9	5900.9	
732.08	5942.5	
732.26	4156	
732.44	3820.8	
732.62	6001.2	
732.8	5596.4	
732.98	4367	
733.16	3732.8	
733.34	5698.1	
733.52	4719.2	
733.7	4078.9	
733.88	4163.5	
734.07	5520.6	
734.25	5347.2	
734.43	3723.9	
734.61	4735.6	
734.79	6468.9	
734.97	5318.6	
735.15	3741	
735.33	4030.4	
735.51	5565.7	
735.69	5319.9	
735.87	4794.3	
736.05	4154.6	
736.23	5398.4	
736.41	5201.8	
736.59	4038.6	
736.77	4149.2	
736.95	5685.8	
737.13	5285.8	
737.32	3808.5	
737.5	3945.1	
737.68	6165.1	
737.86	5182	
738.04	3704.1	
738.22	4972.5	
738.4	5123.3	
738.58	5386.2	
738.76	4053.6	
738.94	3345.7	
739.12	5225.7	
739.3	5156.1	
739.48	4586.8	
739.66	4287.8	
739.84	5367	
740.02	5315.8	
740.2	3454.2	
740.38	3694.5	
740.56	5676.3	
740.74	4805.9	
740.92	4154	
741.1	4035.9	
741.28	5248.9	
741.46	5020.3	
741.64	3809.2	
741.82	4193.6	
742	5290.6	
742.18	5259.2	
742.36	4018.1	
742.54	3702.7	
742.72	5719.3	
742.9	4792.2	
743.08	4218.1	
743.26	3372.3	
743.44	5713.8	
743.62	5634	
743.8	4359.4	
743.98	3681.6	
744.16	5433.3	
744.34	5218.9	
744.52	4326	
744.7	4158.7	
744.88	5585.5	
745.06	5231.9	
745.24	4286.4	
745.42	4332.1	
745.6	5642.2	
745.78	5524.1	
745.96	3530.7	
746.14	3653.6	
746.32	6185.5	
746.5	5607.3	
746.68	4073.4	
746.86	3722.5	
747.03	5857.9	
747.21	4772.4	
747.39	4089.8	
747.57	3734.8	
747.75	5336.3	
747.93	5579.3	
748.11	3665.9	
748.29	3665.9	
748.47	6520	
748.65	5098.8	
748.83	4184.7	
749.01	3965.6	
749.19	5477.6	
749.37	4904.9	
749.55	3948.5	
749.73	4022.2	
749.91	5331.5	
750.09	5158.2	
750.26	4028.4	
750.44	3588	
750.62	5300.8	
750.8	5221.6	
750.98	3512.9	
751.16	3756	
751.34	5333.6	
751.52	4866	
751.7	4272.7	
751.88	3508.9	
752.06	5689.9	
752.24	5433.9	
752.42	3398.9	
752.59	3767.6	
752.77	5255.1	
752.95	6127.5	
753.13	4282.3	
753.31	3768.3	
753.49	5001.8	
753.67	5345.2	
753.85	4004.5	
754.03	3677.5	
754.21	5554.8	
754.38	5751.4	
754.56	3753.2	
754.74	3174.4	
754.92	4999.8	
755.1	5496.1	
755.28	3140.2	
755.46	3181.9	
755.64	6027.2	
755.82	6103.6	
755.99	3386.7	
756.17	3493.8	
756.35	4328	
756.53	5373.2	
756.71	2680.8	
756.89	3386	
757.07	5096.7	
757.25	4487.1	
757.42	3657	
757.6	4306.2	
757.78	5162.9	
757.96	4444.8	
758.14	3469.3	
758.32	3135.4	
758.5	4160.8	
758.67	4775.9	
758.85	3412.6	
759.03	3425.6	
759.21	4890.5	
759.39	4427.7	
759.57	3056.9	
759.75	3770.3	
759.92	5321.3	
760.1	4878.9	
760.28	4108.9	
760.46	4277.5	
760.64	4693.9	
760.82	4588.1	
760.99	4024.9	
761.17	3420.8	
761.35	5248.3	
761.53	4503.5	
761.71	3534.8	
761.89	3994.2	
762.06	5124	
762.24	4757.4	
762.42	3544.4	
762.6	3422.8	
762.78	4723.3	
762.96	5292.6	
763.13	3900	
763.31	3549.8	
763.49	5240.8	
763.67	4780	
763.85	4228.4	
764.02	4599.1	
764.2	5569.1	
764.38	4861.9	
764.56	3508.2	
764.74	4155.3	
764.91	5589.6	
765.09	4761.5	
765.27	3321.8	
765.45	3141.6	
765.63	5607.3	
765.8	5542.5	
765.98	2998.9	
766.16	3241.9	
766.34	4538.3	
766.52	4315.8	
766.69	3917.8	
766.87	3094.5	
767.05	4875.5	
767.23	5416.9	
767.41	3327.9	
767.58	3556.6	
767.76	5214.8	
767.94	5272.2	
768.12	3418.7	
768.29	3814	
768.47	4844.1	
768.65	5388.9	
768.83	3130	
769	3923.2	
769.18	4536.9	
769.36	5046.9	
769.54	3973.7	
769.72	3177.8	
769.89	5358.2	
770.07	5318.6	
770.25	3415.3	
770.43	4276.2	
770.6	5872.9	
770.78	6033.3	
770.96	3515.7	
771.14	3979.2	
771.31	5207.3	
771.49	4767.7	
771.67	2953.2	
771.85	3082.2	
772.02	4210.6	
772.2	4718.5	
772.38	3638.6	
772.55	3261	
772.73	4963.6	
772.91	4727.4	
773.09	3506.8	
773.26	3582.6	
773.44	4961.5	
773.62	4703.5	
773.8	3230.3	
773.97	2971.6	
774.15	4956.8	
774.33	4705.5	
774.5	3141.6	
774.68	3407.8	
774.86	4852.3	
775.04	4718.5	
775.21	3216	
775.39	3163.4	
775.57	4939	
775.74	5143.1	
775.92	3032.4	
776.1	2940.9	
776.27	4876.2	
776.45	5760.3	
776.63	3160.7	
776.81	2884.9	
776.98	4644.8	
777.16	5343.2	
777.34	3248.1	
777.51	3480.9	
777.69	4683	
777.87	4495.3	
778.04	3366.2	
778.22	3721.8	
778.4	4498	
778.57	4967.7	
778.75	2833	
778.93	2949.8	
779.1	4364.2	
779.28	4226.3	
779.46	2798.2	
779.64	3140.2	
779.81	5143.8	
779.99	5698.8	
780.17	3695.2	
780.34	3775.1	
780.52	4730.8	
780.69	4848.9	
780.87	3398.3	
781.05	3074	
781.22	4780	
781.4	4775.2	
781.58	3160.7	
781.75	2554.5	
781.93	4794.3	
782.11	4265.9	
782.28	3823.6	
782.46	3203.7	
782.64	4216.1	
782.81	4880.3	
782.99	3291.1	
783.17	3182.5	
783.34	4790.2	
783.52	4373.8	
783.69	3373.7	
783.87	3932.1	
784.05	4342.4	
784.22	4316.4	
784.4	3910.3	
784.58	3364.8	
784.75	5061.9	
784.93	4418.8	
785.1	3149.8	
785.28	3605.8	
785.46	4840.7	
785.63	4300.7	
785.81	3207.1	
785.99	3076.7	
786.16	4508.9	
786.34	4717.8	
786.51	3132	
786.69	3416.7	
786.87	4142.4	
787.04	4545.1	
787.22	3009.8	
787.39	3638.6	
787.57	4393.6	
787.75	5096.7	
787.92	3853.6	
788.1	3695.9	
788.27	4282.3	
788.45	4150.6	
788.63	3582.6	
788.8	2601.6	
788.98	4760.8	
789.15	4034.5	
789.33	2776.4	
789.5	3163.4	
789.68	5043.5	
789.86	5048.2	
790.03	3495.9	
790.21	3122.5	
790.38	5148.6	
790.56	4495.3	
790.73	3009.1	
790.91	3013.9	
791.09	4330.1	
791.26	4878.9	
791.44	3237.8	
791.61	2745.6	
791.79	4402.5	
791.96	4364.9	
792.14	2861.7	
792.32	2603.7	
792.49	4316.4	
792.67	4475.5	
792.84	2951.8	
793.02	2841.2	
793.19	4728.1	
793.37	5137.7	
793.54	2631	
793.72	2843.3	
793.89	5206.6	
794.07	4296	
794.25	3193.5	
794.42	2654.2	
794.6	5089.2	
794.77	4842.1	
794.95	3472	
795.12	3067.2	
795.3	4394.9	
795.47	4752	
795.65	3331.4	
795.82	3185.3	
796	4240.7	
796.17	5539.1	
796.35	3104	
796.52	3646.1	
796.7	4789.5	
796.87	4861.9	
797.05	3132	
797.22	3721.8	
797.4	4782.7	
797.57	5453.1	
797.75	3230.3	
797.92	3050.1	
798.1	5025	
798.27	4244.8	
798.45	2658.3	
798.62	2857.6	
798.8	4592.9	
798.97	5016.2	
799.15	3378.5	
799.32	3244.7	
799.5	4044.7	
799.67	4552.6	
799.85	3489.1	
800.02	2611.8	
800.2	4324.6	
800.37	4495.3	
800.55	3561.4	
800.72	3033.7	
800.9	4939	
801.07	5262.6	
801.25	4044.1	
801.42	3308.8	
801.6	4974.5	
801.77	4597	
801.95	3093.1	
802.12	2983.2	
802.29	4732.2	
802.47	4654.4	
802.64	3394.8	
802.82	2584.5	
802.99	4332.1	
803.17	4999.8	
803.34	3237.2	
803.52	2905.4	
803.69	5446.2	
803.87	4134.8	
804.04	3252.9	
804.21	3223.5	
804.39	5130.2	
804.56	4455.7	
804.74	2837.8	
804.91	3345	
805.09	4289.1	
805.26	4417.5	
805.44	2847.4	
805.61	3110.9	
805.78	4885.8	
805.96	4814.1	
806.13	3370.3	
806.31	3515	
806.48	4041.3	
806.66	4426.3	
806.83	3326.6	
807	3207.1	
807.18	4336.2	
807.35	4646.2	
807.53	3232.4	
807.7	2713.6	
807.87	5147.2	
808.05	4372.4	
808.22	3536.2	
808.4	2708.8	
808.57	4353.3	
808.74	4114.4	
808.92	3048.1	
809.09	3721.2	
809.27	4350.6	
809.44	4725.3	
809.61	2722.4	
809.79	2947.7	
809.96	5246.9	
810.14	4813.4	
810.31	2656.2	
810.48	3168.2	
810.66	4403.1	
810.83	4902.2	
811.01	3049.4	
811.18	3345.7	
811.35	4890.5	
811.53	3925.3	
811.7	3575.8	
811.87	3384.6	
812.05	4439.3	
812.22	4296	
812.39	2982.5	
812.57	2822.8	
812.74	4433.2	
812.92	5540.4	
813.09	3155.9	
813.26	3352.5	
813.44	5336.3	
813.61	4284.4	
813.78	2693.1	
813.96	3418.7	
814.13	4460.5	
814.3	4180.6	
814.48	3723.9	
814.65	3122.5	
814.82	5181.4	
815	4142.4	
815.17	3178.4	
815.34	3774.4	
815.52	4358.1	
815.69	4302.8	
815.87	3187.3	
816.04	3100.6	
816.21	4335.5	
816.38	3915.7	
816.56	3142.3	
816.73	2895.1	
816.9	5337.7	
817.08	4892.6	
817.25	2932.7	
817.42	3631.7	
817.6	4051.6	
817.77	4373.1	
817.94	3254.9	
818.12	2837.1	
818.29	4227	
818.46	6005.3	
818.64	3025.5	
818.81	2862.4	
818.98	4202.4	
819.16	5632.6	
819.33	3411.9	
819.5	3221.5	
819.67	4627	
819.85	5124.7	
820.02	3193.5	
820.19	3368.9	
820.37	4569	
820.54	4277.5	
820.71	3324.5	
820.88	3979.9	
821.06	4499.4	
821.23	4243.4	
821.4	3285.6	
821.58	3257.6	
821.75	4887.8	
821.92	4473.4	
822.09	2746.3	
822.27	2732.7	
822.44	4389.5	
822.61	4301.4	
822.79	2754.5	
822.96	4919.9	
823.13	4627.7	
823.3	4108.2	
823.48	3104	
823.65	2803	
823.82	4873.5	
823.99	4121.2	
824.17	3842	
824.34	2818.7	
824.51	5541.8	
824.68	4515.1	
824.86	2955.9	
825.03	3251.5	
825.2	4418.2	
825.37	5137.7	
825.55	2967.5	
825.72	3201.7	
825.89	5541.8	
826.06	5192.3	
826.24	3124.5	
826.41	3190.7	
826.58	5225.1	
826.75	4558.1	
826.92	2588.6	
827.1	2823.5	
827.27	6713.9	
827.44	5487.9	
827.61	3034.4	
827.79	3572.3	
827.96	4240.7	
828.13	4323.9	
828.3	3137.5	
828.47	2681.5	
828.65	4696.7	
828.82	4581.3	
828.99	3915	
829.16	3426.3	
829.34	4881.7	
829.51	4782.7	
829.68	3184.6	
829.85	3279.5	
830.02	5213.4	
830.2	4896.7	
830.37	2536.8	
830.54	3816.7	
830.71	5440.8	
830.88	4355.3	
831.05	2587.3	
831.23	2908.1	
831.4	5334.3	
831.57	5696.8	
831.74	2950.4	
831.91	2653.5	
832.09	4657.8	
832.26	4895.3	
832.43	3049.4	
832.6	3388.7	
832.77	4641.4	
832.94	5225.7	
833.12	2520.4	
833.29	3037.1	
833.46	4361.5	
833.63	5928.9	
833.8	3345.7	
833.97	3020.8	
834.15	4917.2	
834.32	4756.1	
834.49	3189.4	
834.66	3229	
834.83	4970.4	
835	4203.1	
835.17	2999.6	
835.35	2997.5	
835.52	4872.8	
835.69	4719.2	
835.86	3099.9	
836.03	2610.5	
836.2	4919.2	
836.37	4551.3	
836.55	3043.3	
836.72	2828.9	
836.89	4551.3	
837.06	4971.8	
837.23	3143.6	
837.4	3386.7	
837.57	5485.1	
837.75	5906.3	
837.92	2816	
838.09	3005.1	
838.26	4562.2	
838.43	5053	
838.6	3145.7	
838.77	2893.1	
838.94	5604.6	
839.11	5515.2	
839.29	3082.9	
839.46	2455.5	
839.63	4953.4	
839.8	4704.2	
839.97	2990	
840.14	2938.2	
840.31	4706.2	
840.48	4917.9	
840.65	2588.6	
840.82	2968.9	
841	4906.3	
841.17	4770.4	
841.34	2727.2	
841.51	2867.8	
841.68	4822.3	
841.85	4612.7	
842.02	2850.8	
842.19	2411.8	
842.36	4716.5	
842.53	4760.8	
842.7	2646.7	
842.87	3267.2	
843.05	5885.2	
843.22	4630.5	
843.39	2661	
843.56	2905.4	
843.73	4496.7	
843.9	4979.3	
844.07	4279.6	
844.24	3602.4	
844.41	6563.7	
844.58	4335.5	
844.75	2691	
844.92	2947	
845.09	4841.4	
845.26	4857.8	
845.43	2780.5	
845.6	2936.1	
845.77	4861.2	
845.94	4692.6	
846.12	3041.2	
846.29	3158	
846.46	5052.3	
846.63	4818.9	
846.8	2712.9	
846.97	3274	
847.14	5221	
847.31	4816.1	
847.48	3105.4	
847.65	3355.3	
847.82	5067.4	
847.99	4986.8	
848.16	3594.2	
848.33	3306.1	
848.5	4485.1	
848.67	5241.4	
848.84	2753.2	
849.01	2862.4	
849.18	4483	
849.35	4254.3	
849.52	3388.7	
849.69	2725.8	
849.86	5055.1	
850.03	5091.9	
850.2	2771.6	
850.37	3294.5	
850.54	5079	
850.71	4592.2	
850.88	3272	
851.05	2685.6	
851.22	4806.6	
851.39	5194.3	
851.56	2597.5	
851.73	3104.7	
851.9	4344.4	
852.07	5023.7	
852.24	3004.4	
852.41	2732.7	
852.58	4808.6	
852.75	4424.3	
852.92	3119.1	
853.09	2710.8	
853.26	4535.6	
853.43	5150	
853.6	2760	
853.77	2339.5	
853.94	5294.7	
854.11	4320.5	
854.28	3941	
854.44	2991.4	
854.61	5482.4	
854.78	5059.2	
854.95	2768.2	
855.12	3356.6	
855.29	4082.3	
855.46	5255.1	
855.63	2747.7	
855.8	3723.9	
855.97	4485.1	
856.14	5085.8	
856.31	3732.8	
856.48	3004.4	
856.65	4510.3	
856.82	4263.2	
856.99	2638.5	
857.16	2960.7	
857.33	5655.8	
857.49	4627	
857.66	2938.8	
857.83	3168.9	
858	4642.7	
858.17	4771.8	
858.34	2587.9	
858.51	2838.5	
858.68	5272.2	
858.85	5339.1	
859.02	3201.7	
859.19	3358.7	
859.36	4363.5	
859.52	4371.7	
859.69	2760	
859.86	3187.3	
860.03	4406.5	
860.2	5265.3	
860.37	2532	
860.54	2843.9	
860.71	5019.6	
860.88	5313.1	
861.05	3083.6	
861.21	3444	
861.38	5313.1	
861.55	4201.1	
861.72	2557.2	
861.89	3080.1	
862.06	5001.1	
862.23	5382.7	
862.4	2676	
862.56	2854.9	
862.73	4932.9	
862.9	4649.6	
863.07	3159.3	
863.24	2551.1	
863.41	4304.8	
863.58	4412	
863.75	2802.3	
863.91	3191.4	
864.08	5143.8	
864.25	5039.4	
864.42	3400.3	
864.59	3740.3	
864.76	5451	
864.93	4315.1	
865.09	2662.4	
865.26	2896.5	
865.43	5205.9	
865.6	5471.5	
865.77	2461	
865.94	2736.8	
866.1	5174.5	
866.27	4996.4	
866.44	3969.6	
866.61	2659.6	
866.78	4653	
866.95	4914.4	
867.11	2706	
867.28	2532	
867.45	5132.2	
867.62	4293.2	
867.79	3094.5	
867.96	2723.8	
868.12	4296.6	
868.29	4997	
868.46	2770.2	
868.63	3573.7	
868.8	5181.4	
868.97	4962.2	
869.13	2876	
869.3	2867.8	
869.47	4835.9	
869.64	5094.7	
869.81	2792.7	
869.97	2739.5	
870.14	4818.2	
870.31	5310.4	
870.48	2711.5	
870.65	3405.8	
870.81	4601.8	
870.98	4612	
871.15	3100.6	
871.32	2884.9	
871.48	4939	
871.65	5334.3	
871.82	2714.9	
871.99	3042.6	
872.16	5659.2	
872.32	5154.1	
872.49	2778.4	
872.66	2821.4	
872.83	4951.3	
872.99	4468.7	
873.16	3095.8	
873.33	2736.1	
873.5	4711	
873.67	4780.6	
873.83	2964.8	
874	3595.6	
874.17	4803.9	
874.34	5532.9	
874.5	3478.8	
874.67	3321.8	
874.84	5232.6	
875.01	4174.4	
875.17	3763.5	
875.34	2760.7	
875.51	4721.3	
875.68	5687.2	
875.84	3248.8	
876.01	3919.8	
876.18	5018.2	
876.34	4897.4	
876.51	2770.9	
876.68	2747.7	
876.85	4541.7	
877.01	5226.4	
877.18	3826.3	
877.35	2707.4	
877.52	4759.5	
877.68	4323.3	
877.85	2756.6	
878.02	2710.8	
878.18	4569.7	
878.35	4470	
878.52	2273.9	
878.69	3005.7	
878.85	5108.3	
879.02	4958.8	
879.19	3752.6	
879.35	2913.6	
879.52	4977.9	
879.69	5063.3	
879.86	2478.7	
880.02	3080.8	
880.19	4687.1	
880.36	5558.9	
880.52	3115	
880.69	3209.8	
880.86	5081.7	
881.02	5045.5	
881.19	2975.7	
881.36	2945.7	
881.52	4960.2	
881.69	4426.3	
881.86	2984.6	
882.02	2953.2	
882.19	5184.8	
882.36	5872.2	
882.52	2816	
882.69	3740.3	
882.86	4773.8	
883.02	4755.4	
883.19	3287.7	
883.36	3084.9	
883.52	5075.5	
883.69	5653.1	
883.86	2794.1	
884.02	2559.3	
884.19	4949.9	
884.36	4706.2	
884.52	3052.8	
884.69	2950.4	
884.86	4541	
885.02	5395.7	
885.19	3020.1	
885.36	3117.7	
885.52	4674.8	
885.69	4840	
885.86	3882.3	
886.02	3454.9	
886.19	5003.9	
886.35	4538.3	
886.52	2972.3	
886.69	3704.8	
886.85	4319.8	
887.02	5195.7	
887.19	5195.7	
887.35	5195.7	
887.52	5195.7	
887.68	5195.7	
887.85	5195.7	
888.02	5195.7	
888.18	5195.7	
888.35	5195.7	
888.51	5195.7	
888.68	5195.7	
888.85	5195.7	
889.01	5195.7	
889.18	5195.7	
889.35	5195.7	
889.51	5195.7	
889.68	5195.7	
889.84	5195.7	
890.01	5195.7	
890.17	5195.7	
890.34	5195.7	
890.51	5195.7	
890.67	5195.7	
890.84	5195.7	
891	5195.7	
891.17	5195.7	
891.34	5195.7	
891.5	5195.7	
891.67	5195.7	
891.83	5195.7	
892	5195.7	
892.16	5195.7	
892.33	5195.7	
892.5	5195.7	
892.66	5195.7	
892.83	5195.7	
892.99	5195.7	
893.16	5195.7	
893.32	5195.7	
893.49	5195.7	
893.65	5195.7	
893.82	5195.7	
893.99	5195.7	
894.15	5195.7	
894.32	5195.7	
894.48	5195.7	
894.65	5195.7	
894.81	5195.7	
894.98	5195.7	
895.14	5195.7	
895.31	5195.7	
895.47	5195.7	
895.64	5195.7	
895.81	5195.7	
895.97	5195.7	
896.14	5195.7	
896.3	5195.7	
896.47	5195.7	
896.63	5195.7	
896.8	5195.7	
896.96	5195.7	
897.13	5195.7	
897.29	5195.7	
897.46	5195.7	
897.62	5195.7	
897.79	5195.7	
897.95	5195.7	
898.12	5195.7	
898.28	5195.7	
898.45	5195.7	
898.61	5195.7	
898.78	5195.7	
898.94	5195.7	
899.11	5195.7	
899.27	5195.7	
899.44	5195.7	
899.6	5195.7	
899.77	5195.7	
899.93	5195.7	
900.1	5195.7	
900.26	5195.7	
900.43	5195.7	
900.59	5195.7	
900.76	5195.7	
900.92	5195.7	
901.09	5195.7	
901.25	5195.7	
901.42	5195.7	
901.58	5195.7	
901.75	5195.7	
901.91	5195.7	
902.07	5195.7	
902.24	5195.7	
902.4	5195.7	
902.57	5195.7	
902.73	5195.7	
902.9	5195.7	
903.06	5195.7	
903.23	5195.7	
903.39	5195.7	
903.56	5195.7	
903.72	5195.7	
903.88	5195.7	
904.05	5195.7	
904.21	5195.7	
904.38	5195.7	
904.54	5195.7	
904.71	5195.7	
904.87	5195.7	
905.03	5195.7	
905.2	5195.7	
905.36	5195.7	
905.53	5195.7	
905.69	5195.7	
905.86	5195.7	
906.02	5195.7	
906.18	5195.7	
906.35	5195.7	
906.51	5195.7	
906.68	5195.7	
906.84	5195.7	
907.01	5195.7	
907.17	5195.7	
907.33	5195.7	
907.5	5195.7	
907.66	5195.7	
907.83	5195.7	
907.99	5195.7	
908.15	5195.7	
908.32	5195.7	
908.48	5195.7	
908.65	5195.7	
908.81	5195.7	
908.97	5195.7	
909.14	5195.7	
909.3	5195.7	
909.47	5195.7	
909.63	5195.7	
909.79	5195.7	
909.96	5195.7	
910.12	5195.7	
910.28	5195.7	
910.45	5195.7	
910.61	5195.7	
910.78	5195.7	
910.94	5195.7	
911.1	5195.7	
911.27	5195.7	
911.43	5195.7	
911.59	5195.7	
911.76	5195.7	
911.92	5195.7	
912.08	5195.7	
912.25	5195.7	
912.41	5195.7	
912.57	5195.7	
912.74	5195.7	
912.9	5195.7	
913.07	5195.7	
913.23	5195.7	
913.39	5195.7	
913.56	5195.7	
913.72	5195.7	
913.88	5195.7	
914.05	5195.7	
914.21	5195.7	
914.37	5195.7	
914.54	5195.7	
914.7	5195.7	
914.86	5195.7	
915.03	5195.7	
915.19	5195.7	
