Wavelength	Intensities	
nm	a.u.	
179.22	1799.3	
179.44	1796.4	
179.65	1802.2	
179.86	1790.6	
180.08	1742.8	
180.29	4367.6	
180.51	3145	
180.72	5296.7	
180.94	5982.1	
181.15	3017.3	
181.37	2910.8	
181.58	5086.5	
181.79	5300.1	
182.01	3054.9	
182.22	3241.9	
182.44	5320.6	
182.65	4539.7	
182.87	4076.1	
183.08	3590.1	
183.29	5642.2	
183.51	4653.7	
183.72	3215.3	
183.94	4646.8	
184.15	4980.7	
184.37	4984.1	
184.58	2909.5	
184.79	3862.5	
185.01	4685.1	
185.22	5336.3	
185.44	4143	
185.65	3478.8	
185.86	4956.1	
186.08	4598.4	
186.29	2900.6	
186.51	3021.4	
186.72	4642.7	
186.94	5438	
187.15	3498.6	
187.36	3599	
187.58	6957.6	
187.79	5100.8	
188.01	3654.9	
188.22	5710.4	
188.43	6069.5	
188.65	5279.7	
188.86	3089	
189.08	3596.2	
189.29	4840	
189.5	4826.4	
189.72	3323.2	
189.93	3369.6	
190.15	5458.5	
190.36	6396.5	
190.57	3663.1	
190.79	3558.7	
191	5489.9	
191.22	5505.6	
191.43	3693.2	
191.64	3046.7	
191.86	5753.4	
192.07	5471.5	
192.29	3160	
192.5	3310.2	
192.71	5515.9	
192.93	4759.5	
193.14	3283.6	
193.35	3371.6	
193.57	4792.9	
193.78	5538.4	
194	2699.9	
194.21	3252.2	
194.42	4621.6	
194.64	5001.8	
194.85	3534.8	
195.07	4143	
195.28	4973.2	
195.49	4434.5	
195.71	4383.3	
195.92	3114.3	
196.13	5249.6	
196.35	5218.2	
196.56	4589.5	
196.78	3599.6	
196.99	6448.4	
197.2	6012.8	
197.42	3603.7	
197.63	3576.4	
197.84	4562.9	
198.06	5178.6	
198.27	3308.8	
198.48	4330.1	
198.7	4805.9	
198.91	4975.9	
199.13	3644	
199.34	3668.6	
199.55	5414.1	
199.77	4354.7	
199.98	3178.4	
200.19	3659	
200.41	4922	
200.62	4666.6	
200.83	3732.1	
201.05	3994.2	
201.26	4956.1	
201.47	4689.8	
201.69	3227.6	
201.9	3147.7	
202.11	4952.7	
202.33	5866.1	
202.54	3403.7	
202.76	3766.2	
202.97	5078.3	
203.18	5117.9	
203.4	3740.3	
203.61	3734.1	
203.82	5118.6	
204.04	4728.8	
204.25	3657.7	
204.46	3590.1	
204.68	5048.2	
204.89	5216.9	
205.1	3510.2	
205.32	3085.6	
205.53	5289.9	
205.74	5515.2	
205.96	2639.8	
206.17	3634.5	
206.38	5259.2	
206.6	5433.9	
206.81	4093.2	
207.02	3382.6	
207.24	5272.8	
207.45	5615.5	
207.66	3431	
207.88	3012.6	
208.09	5173.2	
208.3	4946.5	
208.52	3166.8	
208.73	3495.9	
208.94	5008.6	
209.15	5642.8	
209.37	3437.9	
209.58	3597.6	
209.79	5452.4	
210.01	4879.6	
210.22	2846.7	
210.43	2909.5	
210.65	4971.1	
210.86	5369.8	
211.07	3491.1	
211.29	3246.7	
211.5	5291.3	
211.71	5023.7	
211.93	3178.4	
212.14	3186.6	
212.35	4902.2	
212.56	5102.9	
212.78	3586.7	
212.99	3050.8	
213.2	5828.5	
213.42	4801.1	
213.63	3307.5	
213.84	3506.8	
214.06	4536.3	
214.27	4572.4	
214.48	3415.3	
214.69	3648.1	
214.91	5601.9	
215.12	5687.9	
215.33	3665.2	
215.55	4035.9	
215.76	6041.5	
215.97	5314.5	
216.18	3504.1	
216.4	3454.2	
216.61	4743.8	
216.82	5425.1	
217.04	3183.9	
217.25	3407.1	
217.46	5567.7	
217.67	5350	
217.89	2917.7	
218.1	3029.6	
218.31	5055.1	
218.53	5215.5	
218.74	3360.7	
218.95	3198.2	
219.16	4961.5	
219.38	5826.5	
219.59	3273.3	
219.8	3799.7	
220.01	6384.9	
220.23	5037.3	
220.44	4196.3	
220.65	3206.4	
220.87	5098.8	
221.08	5526.8	
221.29	2975	
221.5	3928.7	
221.72	6602	
221.93	4785.4	
222.14	3635.8	
222.35	4215.4	
222.57	5038	
222.78	5352	
222.99	3486.3	
223.2	3680.9	
223.42	5258.5	
223.63	5329.5	
223.84	2745.6	
224.05	2718.3	
224.27	6255.9	
224.48	5710.4	
224.69	4243.4	
224.9	3616	
225.12	5195.7	
225.33	4960.2	
225.54	2944.3	
225.75	3224.9	
225.97	4707.6	
226.18	4909	
226.39	3491.8	
226.6	3240.6	
226.82	4799.1	
227.03	4658.4	
227.24	3598.3	
227.45	3056.9	
227.67	5407.3	
227.88	5756.2	
228.09	4052.2	
228.3	4007.9	
228.52	5352.7	
228.73	4965.6	
228.94	3379.8	
229.15	3020.8	
229.36	4961.5	
229.58	4930.8	
229.79	3381.9	
230	3924.6	
230.21	5915.2	
230.43	5085.1	
230.64	3567.6	
230.85	3699.3	
231.06	5382.1	
231.28	5396.4	
231.49	3041.9	
231.7	3526.6	
231.91	5287.9	
232.12	4962.9	
232.34	3080.1	
232.55	3506.1	
232.76	5528.2	
232.97	5130.2	
233.18	3233.1	
233.4	3586.7	
233.61	5171.8	
233.82	4834.6	
234.03	3368.9	
234.25	3366.2	
234.46	6784.9	
234.67	5074.2	
234.88	3723.9	
235.09	3218.7	
235.31	5253.7	
235.52	4897.4	
235.73	3573.7	
235.94	3083.6	
236.15	4823	
236.37	5996.5	
236.58	3168.9	
236.79	3541.6	
237	5270.8	
237.21	4625.7	
237.43	3728	
237.64	2927.9	
237.85	8619.2	
238.06	4680.3	
238.27	3730.7	
238.48	3037.8	
238.7	5327.4	
238.91	4927.4	
239.12	3463.1	
239.33	3500	
239.54	4704.2	
239.76	4923.3	
239.97	3396.2	
240.18	3411.2	
240.39	6034.7	
240.6	5210	
240.82	3666.5	
241.03	3046.7	
241.24	5018.2	
241.45	5701.5	
241.66	3155.2	
241.87	3652.9	
242.09	5657.2	
242.3	5915.9	
242.51	3723.2	
242.72	3482.9	
242.93	5380.7	
243.14	4980.7	
243.36	4033.8	
243.57	4233.2	
243.78	5790.3	
243.99	5411.4	
244.2	3482.2	
244.41	3147.7	
244.63	4617.5	
244.84	5265.3	
245.05	3680.9	
245.26	3469.3	
245.47	5313.1	
245.68	5482.4	
245.9	4519.9	
246.11	3644.7	
246.32	4835.9	
246.53	5223.7	
246.74	5528.8	
246.95	2983.9	
247.16	4609.3	
247.38	5038.7	
247.59	2975.7	
247.8	3506.8	
248.01	4702.1	
248.22	4984.8	
248.43	3188	
248.64	3372.3	
248.86	4481.6	
249.07	4778.6	
249.28	3097.9	
249.49	3536.2	
249.7	5491.3	
249.91	5537.7	
250.12	2934.1	
250.34	2996.9	
250.55	5156.8	
250.76	5047.6	
250.97	3579.2	
251.18	3575.8	
251.39	5613.5	
251.6	5133.6	
251.81	3647.4	
252.03	3650.2	
252.24	4823	
252.45	5377.3	
252.66	3043.3	
252.87	3812.6	
253.08	5081.7	
253.29	6439.5	
253.5	3087	
253.72	4198.3	
253.93	4896	
254.14	5860.6	
254.35	3312.2	
254.56	3393.5	
254.77	5158.2	
254.98	4680.3	
255.19	3321.1	
255.41	4206.5	
255.62	5122.7	
255.83	5563.6	
256.04	3712.3	
256.25	3590.1	
256.46	6050.4	
256.67	4755.4	
256.88	3561.4	
257.09	3969.6	
257.31	4730.8	
257.52	4708.3	
257.73	4483.7	
257.94	3321.1	
258.15	4974.5	
258.36	5020.9	
258.57	4104.8	
258.78	2665.8	
258.99	5446.9	
259.2	4861.9	
259.41	3325.2	
259.63	3448.1	
259.84	5722	
260.05	6043.6	
260.26	4265.9	
260.47	3256.3	
260.68	5521.3	
260.89	4885.8	
261.1	3969.6	
261.31	3136.1	
261.52	5575.9	
261.73	5882.4	
261.95	4230.4	
262.16	3725.3	
262.37	5631.2	
262.58	5732.3	
262.79	4216.1	
263	3382.6	
263.21	5130.2	
263.42	4861.9	
263.63	3459.7	
263.84	3410.6	
264.05	5509	
264.26	5758.9	
264.47	4104.1	
264.69	3687	
264.9	5610.8	
265.11	5180	
265.32	3209.2	
265.53	3321.8	
265.74	5194.3	
265.95	4579.9	
266.16	3472.7	
266.37	3876.8	
266.58	5153.4	
266.79	4855.1	
267	3282.2	
267.21	3085.6	
267.42	4660.5	
267.63	5022.3	
267.84	3439.9	
268.06	3005.7	
268.27	5367.7	
268.48	5575.9	
268.69	3410.6	
268.9	3981.3	
269.11	5636.7	
269.32	4529.4	
269.53	3453.6	
269.74	3244	
269.95	5203.2	
270.16	4482.3	
270.37	3505.4	
270.58	3980.6	
270.79	4916.5	
271	5425.8	
271.21	3664.5	
271.42	3566.9	
271.63	5176.6	
271.84	4711	
272.05	2833.7	
272.26	3130.7	
272.47	5044.8	
272.68	5199.8	
272.89	3347.1	
273.11	3780.6	
273.32	4829.8	
273.53	5820.3	
273.74	3758.7	
273.95	3617.4	
274.16	5457.2	
274.37	5094	
274.58	3775.8	
274.79	3067.2	
275	5141.1	
275.21	5573.2	
275.42	4485.7	
275.63	3919.1	
275.84	5240.1	
276.05	6508.4	
276.26	3675.4	
276.47	3454.2	
276.68	4914.4	
276.89	5877	
277.1	3925.3	
277.31	3058.3	
277.52	5272.2	
277.73	5438	
277.94	3016	
278.15	3320.4	
278.36	5246.2	
278.57	4768.4	
278.78	3328.6	
278.99	3756	
279.2	4701.5	
279.41	4703.5	
279.62	4358.8	
279.83	3107.5	
280.04	6068.1	
280.25	4691.9	
280.46	4296	
280.67	3470.6	
280.88	4699.4	
281.09	5595.7	
281.3	3667.2	
281.51	4552	
281.72	4805.2	
281.93	5491.3	
282.14	3280.2	
282.35	3523.2	
282.56	5491.3	
282.77	5427.8	
282.98	3347.1	
283.19	4061.1	
283.4	6530.3	
283.61	4909	
283.82	3114.3	
284.03	4268	
284.24	5171.1	
284.45	5543.9	
284.66	4286.4	
284.87	4037.9	
285.08	5549.3	
285.29	5659.2	
285.5	3010.5	
285.71	3377.8	
285.92	5493.3	
286.12	6090	
286.33	4266.6	
286.54	3397.6	
286.75	5456.5	
286.96	4914.4	
287.17	3130	
287.38	4100.7	
287.59	4760.2	
287.8	4708.3	
288.01	3410.6	
288.22	3870.7	
288.43	5403.2	
288.64	4572.4	
288.85	4028.4	
289.06	3823.6	
289.27	5399.8	
289.48	5835.3	
289.69	4283	
289.9	3891.1	
290.11	5563	
290.32	4761.5	
290.53	4078.9	
290.74	3745.7	
290.94	5423.7	
291.15	5466	
291.36	3321.1	
291.57	3882.9	
291.78	4784.7	
291.99	4590.9	
292.2	3144.3	
292.41	3766.2	
292.62	5448.3	
292.83	5284.4	
293.04	4567.7	
293.25	3246	
293.46	4879.6	
293.67	5546.6	
293.88	3282.2	
294.09	3184.6	
294.29	4677.6	
294.5	5196.4	
294.71	3545	
294.92	3323.9	
295.13	4850.3	
295.34	5922.7	
295.55	2993.4	
295.76	2902.7	
295.97	5422.3	
296.18	5982.8	
296.39	3087	
296.6	3236.5	
296.81	5087.8	
297.01	5370.5	
297.22	3415.3	
297.43	3295.2	
297.64	4751.3	
297.85	4723.3	
298.06	2735.4	
298.27	2963.4	
298.48	5040.7	
298.69	4768.4	
298.9	3510.9	
299.11	3220.8	
299.31	4607.9	
299.52	4616.8	
299.73	3771.7	
299.94	3676.1	
300.15	4980	
300.36	4797.7	
300.57	3700.7	
300.78	3633.8	
300.99	4897.4	
301.2	5143.1	
301.4	3259	
301.61	3526.6	
301.82	5337	
302.03	5398.4	
302.24	3919.1	
302.45	3118.4	
302.66	5298.1	
302.87	5640.1	
303.08	3250.1	
303.29	4363.5	
303.49	4834.6	
303.7	5001.1	
303.91	2962	
304.12	4184.7	
304.33	4621.6	
304.54	5188.2	
304.75	3270.6	
304.96	3223.5	
305.16	5299.5	
305.37	5912.5	
305.58	2889.7	
305.79	3000.3	
306	5304.9	
306.21	4517.1	
306.42	3221.5	
306.63	4879.6	
306.83	4932.2	
307.04	5509	
307.25	3571.7	
307.46	3593.5	
307.67	4382.7	
307.88	5399.8	
308.09	3255.6	
308.29	3364.8	
308.5	5099.4	
308.71	5481.7	
308.92	3422.8	
309.13	3163.4	
309.34	4959.5	
309.55	4930.8	
309.75	4069.3	
309.96	3678.2	
310.17	5346.6	
310.38	4752.7	
310.59	3893.9	
310.8	3098.6	
311.01	4922.6	
311.21	4931.5	
311.42	3170.9	
311.63	3248.8	
311.84	4849.6	
312.05	5192.3	
312.26	3585.3	
312.46	3975.1	
312.67	4925.4	
312.88	4678.2	
313.09	3183.2	
313.3	3055.6	
313.51	5679	
313.71	5929.6	
313.92	3179.8	
314.13	3336.8	
314.34	5202.5	
314.55	4959.5	
314.76	4047.5	
314.96	3545	
315.17	5130.8	
315.38	5330.2	
315.59	3211.9	
315.8	3062.4	
316.01	5782.8	
316.21	5816.9	
316.42	3089	
316.63	3429.7	
316.84	4901.5	
317.05	5642.8	
317.26	3687.7	
317.46	3347.1	
317.67	4999.8	
317.88	5378.6	
318.09	4016.7	
318.3	2979.8	
318.5	4861.2	
318.71	5283.8	
318.92	4971.8	
319.13	3698.6	
319.34	5487.2	
319.54	5554.8	
319.75	3024.2	
319.96	2862.4	
320.17	5299.5	
320.38	5509.7	
320.58	2922.5	
320.79	3474.7	
321	5528.8	
321.21	5606	
321.42	3497.9	
321.62	2912.2	
321.83	4700.8	
322.04	5057.1	
322.25	3321.1	
322.46	3224.2	
322.66	5093.3	
322.87	5271.5	
323.08	3881.6	
323.29	3150.5	
323.5	5950	
323.7	4661.9	
323.91	4262.5	
324.12	3881.6	
324.33	5113.1	
324.53	5307	
324.74	3749.8	
324.95	3885	
325.16	4554.7	
325.37	4896	
325.57	3189.4	
325.78	3259	
325.99	5130.8	
326.2	4593.6	
326.4	4475.5	
326.61	2964.1	
326.82	5007.3	
327.03	5126.1	
327.24	4448.9	
327.44	4106.2	
327.65	5284.4	
327.86	4326	
328.07	3702	
328.27	3092.4	
328.48	5621.7	
328.69	4647.5	
328.9	4535.6	
329.1	3390.1	
329.31	4924	
329.52	5728.9	
329.73	3191.4	
329.93	3517.7	
330.14	5098.8	
330.35	5212.1	
330.56	5188.9	
330.76	3846.8	
330.97	4887.1	
331.18	5300.1	
331.39	3541.6	
331.59	2903.3	
331.8	5569.8	
332.01	5623.7	
332.22	3319.1	
332.42	3736.9	
332.63	5212.1	
332.84	4786.8	
333.05	3577.8	
333.25	3243.3	
333.46	4805.2	
333.67	5039.4	
333.88	3363.4	
334.08	3604.4	
334.29	6656.6	
334.5	5569.1	
334.7	3112.9	
334.91	4483	
335.12	4650.9	
335.33	5381.4	
335.53	3572.3	
335.74	5081	
335.95	4929.5	
336.16	4711	
336.36	3484.3	
336.57	4011.3	
336.78	4602.5	
336.98	5554.8	
337.19	4317.1	
337.4	3424.2	
337.61	6052.4	
337.81	4653	
338.02	3250.1	
338.23	4102.8	
338.43	5709.7	
338.64	4709	
338.85	3194.8	
339.05	4123.9	
339.26	5760.3	
339.47	4543.8	
339.68	3221.5	
339.88	4592.9	
340.09	5212.1	
340.3	5436	
340.5	3690.4	
340.71	2862.4	
340.92	4578.6	
341.13	5653.1	
341.33	3080.1	
341.54	3749.8	
341.75	5288.5	
341.95	4864.6	
342.16	3586	
342.37	3868.6	
342.57	4668	
342.78	5003.9	
342.99	3958	
343.19	2908.8	
343.4	5359.5	
343.61	5263.3	
343.81	3444	
344.02	3092.4	
344.23	5351.3	
344.43	5769.1	
344.64	3948.5	
344.85	3809.2	
345.06	5262.6	
345.26	5530.2	
345.47	3730.7	
345.68	4252.9	
345.88	4491.9	
346.09	5449	
346.3	3771	
346.5	2906.1	
346.71	4969.1	
346.92	4810	
347.12	2960.7	
347.33	3641.3	
347.54	5508.4	
347.74	5857.9	
347.95	3695.2	
348.16	2811.2	
348.36	4906.3	
348.57	4691.9	
348.78	3681.6	
348.98	3908.2	
349.19	5051	
349.39	4603.2	
349.6	2982.5	
349.81	3275.4	
350.01	5266	
350.22	4763.6	
350.43	3578.5	
350.63	4209.9	
350.84	5122	
351.05	4842.1	
351.25	3280.8	
351.46	2988.7	
351.67	5492	
351.87	4782.7	
352.08	3392.1	
352.29	3903.4	
352.49	5451.7	
352.7	5464	
352.9	3164.1	
353.11	3844.7	
353.32	6047.7	
353.52	4878.3	
353.73	3121.8	
353.94	3942.3	
354.14	5298.1	
354.35	5130.2	
354.55	3231	
354.76	3598.3	
354.97	5322	
355.17	5079	
355.38	3100.6	
355.59	4159.4	
355.79	4791.6	
356	5070.8	
356.2	3567.6	
356.41	3179.8	
356.62	4580.6	
356.82	5046.9	
357.03	3809.9	
357.24	3433.1	
357.44	4878.3	
357.65	4927.4	
357.85	4473.4	
358.06	3620.1	
358.27	4566.3	
358.47	4830.5	
358.68	3075.4	
358.88	3777.8	
359.09	5328.1	
359.3	5567.7	
359.5	4372.4	
359.71	3953.9	
359.91	5971.9	
360.12	5446.2	
360.33	3840.6	
360.53	4173.1	
360.74	4838	
360.94	4926.7	
361.15	4027	
361.36	3392.8	
361.56	5545.9	
361.77	5079.6	
361.97	4375.1	
362.18	3596.2	
362.38	5537	
362.59	4769.7	
362.8	3262.4	
363	3192.8	
363.21	4588.8	
363.41	5201.8	
363.62	3742.3	
363.83	4578.6	
364.03	5278.3	
364.24	6013.5	
364.44	4689.2	
364.65	4595.6	
364.85	5073.5	
365.06	4790.9	
365.27	3398.3	
365.47	3513.6	
365.68	5983.5	
365.88	5100.8	
366.09	3812	
366.29	3534.1	
366.5	5231.9	
366.71	5591	
366.91	4656.4	
367.12	4002.4	
367.32	6109.8	
367.53	5481	
367.73	3973.1	
367.94	4747.9	
368.14	5471.5	
368.35	6190.3	
368.56	3877.5	
368.76	3393.5	
368.97	5599.8	
369.17	6915.3	
369.38	3475.4	
369.58	3693.9	
369.79	4731.5	
369.99	5836	
370.2	4614.1	
370.4	3806.5	
370.61	5294.7	
370.82	6314.6	
371.02	3713.6	
371.23	3165.5	
371.43	4780.6	
371.64	5856.5	
371.84	3792.2	
372.05	4762.9	
372.25	6903	
372.46	5558.9	
372.66	3757.3	
372.87	3736.9	
373.07	5709.7	
373.28	7070.3	
373.48	4599.7	
373.69	4437.3	
373.9	5180	
374.1	5223	
374.31	4597.7	
374.51	4124.6	
374.72	5952.1	
374.92	5031.9	
375.13	4715.1	
375.33	4100	
375.54	5637.4	
375.74	5236.7	
375.95	4135.5	
376.15	5187.5	
376.36	5603.9	
376.56	5473.5	
376.77	4168.3	
376.97	4619.5	
377.18	6608.8	
377.38	5763	
377.59	4853.7	
377.79	3842.7	
378	5578	
378.2	5900.2	
378.41	3876.1	
378.61	3818.1	
378.82	5979.4	
379.02	5260.5	
379.23	3984.7	
379.43	4934.9	
379.64	6046.3	
379.84	5714.5	
380.05	3889.8	
380.25	3807.9	
380.46	5803.3	
380.66	5453.1	
380.87	5017.5	
381.07	5319.9	
381.28	6298.2	
381.48	5793	
381.69	3925.3	
381.89	3974.4	
382.1	4943.1	
382.3	5857.9	
382.51	4839.4	
382.71	5568.4	
382.91	5808	
383.12	6200.6	
383.32	4192.9	
383.53	4377.9	
383.73	5711.1	
383.94	5448.3	
384.14	4311	
384.35	3584.6	
384.55	5356.1	
384.76	5759.6	
384.96	4169	
385.17	4478.9	
385.37	5728.2	
385.58	5149.3	
385.78	4416.8	
385.98	3568.9	
386.19	5307	
386.39	5685.8	
386.6	3965.6	
386.8	4190.8	
387.01	5816.9	
387.21	5828.5	
387.42	4527.4	
387.62	4987.5	
387.83	5289.2	
388.03	5677	
388.23	4267.3	
388.44	4946.5	
388.64	5021.6	
388.85	5129.5	
389.05	4586.1	
389.26	5051.7	
389.46	6850.5	
389.67	6273.6	
389.87	4585.4	
390.07	4650.9	
390.28	5537.7	
390.48	5183.4	
390.69	4014.7	
390.89	4205.8	
391.1	5367	
391.3	6160.3	
391.5	5224.4	
391.71	5737	
391.91	5961	
392.12	6781.5	
392.32	5223.7	
392.53	4723.3	
392.73	5507	
392.93	5639.4	
393.14	4321.2	
393.34	4988.2	
393.55	5946.6	
393.75	5597.8	
393.95	4309.6	
394.16	4251.6	
394.36	5403.2	
394.57	5915.2	
394.77	3879.5	
394.98	4174.4	
395.18	5405.3	
395.38	5597.1	
395.59	5061.9	
395.79	4160.8	
396	5580	
396.2	5913.2	
396.4	4833.9	
396.61	4883	
396.81	6070.2	
397.02	5528.8	
397.22	5156.1	
397.42	5119.9	
397.63	6114.6	
397.83	5507.7	
398.04	4204.5	
398.24	4590.2	
398.44	5934.3	
398.65	5148.6	
398.85	4095.9	
399.05	4133.5	
399.26	5526.1	
399.46	6909.8	
399.67	4532.2	
399.87	4246.1	
400.07	5816.2	
400.28	6105	
400.48	4368.3	
400.69	5238.7	
400.89	6236.7	
401.09	6688.7	
401.3	4325.3	
401.5	5255.1	
401.7	6939.9	
401.91	7119.4	
402.11	4669.4	
402.32	4805.9	
402.52	6347.3	
402.72	6256.5	
402.93	5038.7	
403.13	3966.9	
403.33	6946.7	
403.54	5744.6	
403.74	4601.1	
403.94	5299.5	
404.15	5821.7	
404.35	6826.6	
404.56	4446.1	
404.76	5922	
404.96	6335.7	
405.17	6090.7	
405.37	5516.5	
405.57	4949.9	
405.78	6373.3	
405.98	5866.7	
406.18	4614.1	
406.39	5333.6	
406.59	6400.6	
406.79	5969.1	
407	4349.2	
407.2	4398.4	
407.4	6358.3	
407.61	6509.1	
407.81	4453	
408.01	6100.2	
408.22	5552.7	
408.42	7153.6	
408.62	5481	
408.83	5134.3	
409.03	6260	
409.23	6087.2	
409.44	5211.4	
409.64	5513.1	
409.84	7069.6	
410.05	6949.4	
410.25	5388.9	
410.45	5225.1	
410.66	6653.9	
410.86	8639	
411.06	5657.2	
411.27	5488.6	
411.47	8612.4	
411.67	6840.9	
411.88	5720	
412.08	5971.2	
412.28	7408.9	
412.49	7777.5	
412.69	5609.4	
412.89	5644.2	
413.09	7662.1	
413.3	7577.5	
413.5	5778	
413.7	5496.7	
413.91	7006.8	
414.11	7736.5	
414.31	5593.7	
414.52	6040.8	
414.72	7509.2	
414.92	7347.4	
415.12	5621.7	
415.33	6150.1	
415.53	7809.6	
415.73	7923.6	
415.94	6391.7	
416.14	5923.4	
416.34	6876.4	
416.55	6645	
416.75	6967.2	
416.95	6494.8	
417.15	7856	
417.36	8275.2	
417.56	7271.7	
417.76	6400.6	
417.97	8140	
418.17	7976.8	
418.37	6066.1	
418.57	6124.1	
418.78	7752.9	
418.98	7471	
419.18	6940.6	
419.38	6762.4	
419.59	7434.8	
419.79	7057.3	
419.99	5968.5	
420.2	6271.6	
420.4	7866.9	
420.6	7971.4	
420.8	5967.1	
421.01	5765.7	
421.21	7790.5	
421.41	7870.3	
421.61	6233.3	
421.82	6028.5	
422.02	7299.6	
422.22	8187.8	
422.42	6721.4	
422.63	6251.8	
422.83	7471	
423.03	8439.7	
423.23	6415.6	
423.44	5530.9	
423.64	7464.2	
423.84	7175.4	
424.04	5867.4	
424.25	5616.2	
424.45	8189.1	
424.65	8163.9	
424.85	5455.8	
425.06	6049.7	
425.26	8234.9	
425.46	7238.9	
425.66	6270.2	
425.87	6070.9	
426.07	8017.1	
426.27	7793.2	
426.47	6127.5	
426.67	5559.6	
426.88	8253.3	
427.08	7735.2	
427.28	6425.2	
427.48	5614.2	
427.69	6865.5	
427.89	7411.6	
428.09	6369.2	
428.29	5609.4	
428.5	7932.5	
428.7	7514.7	
428.9	5589.6	
429.1	6001.9	
429.3	7621.9	
429.51	7830.1	
429.71	5812.1	
429.91	6529.6	
430.11	7894.9	
430.31	8116.8	
430.52	6130.3	
430.72	6477	
430.92	8260.8	
431.12	7848.5	
431.32	5921.4	
431.53	6186.9	
431.73	6958.3	
431.93	8430.1	
432.13	5747.3	
432.33	5719.3	
432.54	7415.7	
432.74	7674.4	
432.94	5752.1	
433.14	6566.5	
433.34	7915.4	
433.55	7544.7	
433.75	6624.5	
433.95	8157.7	
434.15	7785.7	
434.35	7570.7	
434.56	5789.6	
434.76	5639.4	
434.96	7721.5	
435.16	8045.1	
435.36	5853.1	
435.56	6840.9	
435.77	7517.4	
435.97	7694.2	
436.17	7392.5	
436.37	6802	
436.57	7541.3	
436.78	7555	
436.98	8230.8	
437.18	7404.1	
437.38	8205.5	
437.58	7606.8	
437.78	7445.7	
437.99	6226.5	
438.19	8148.2	
438.39	8764.6	
438.59	6252.4	
438.79	5696.8	
438.99	8612.4	
439.2	7562.5	
439.4	5734.3	
439.6	5836.7	
439.8	7847.1	
440	8820.6	
440.2	6819.7	
440.4	6908.5	
440.61	8407.6	
440.81	8911.4	
441.01	6268.1	
441.21	7003.4	
441.41	8833.6	
441.61	8478.6	
441.81	7329	
442.02	8114.7	
442.22	9223.4	
442.42	8488.1	
442.62	6384.9	
442.82	6279.1	
443.02	8871.1	
443.22	8183	
443.43	6792.4	
443.63	6285.9	
443.83	8030.1	
444.03	7970	
444.23	7568.6	
444.43	7125.6	
444.63	8362.5	
444.83	9347.6	
445.04	6617	
445.24	7643	
445.44	8625.4	
445.64	8686.1	
445.84	7094.2	
446.04	7120.8	
446.24	8045.8	
446.44	8813.1	
446.65	6372.6	
446.85	6754.9	
447.05	7990.5	
447.25	8801.5	
447.45	6785.6	
447.65	6296.8	
447.85	8270.4	
448.05	7897.7	
448.25	7174	
448.46	7034.8	
448.66	8269.7	
448.86	8013	
449.06	6221	
449.26	7199.3	
449.46	8691.6	
449.66	7856	
449.86	6869.6	
450.06	6827.9	
450.26	7994.6	
450.47	8419.9	
450.67	7002.7	
450.87	7248.4	
451.07	8740	
451.27	8436.3	
451.47	6402	
451.67	7003.4	
451.87	8213.7	
452.07	8962.6	
452.27	6726.9	
452.47	6701	
452.67	8458.8	
452.88	8789.2	
453.08	6102.3	
453.28	7967.3	
453.48	9510.8	
453.68	8274.5	
453.88	6651.1	
454.08	6836.1	
454.28	8654	
454.48	8498.4	
454.68	7243	
454.88	7697.6	
455.08	8942.1	
455.28	8729.1	
455.48	6585.6	
455.68	7194.5	
455.89	9451.4	
456.09	8989.2	
456.29	6972.7	
456.49	7064.8	
456.69	9387.9	
456.89	8618.5	
457.09	7410.2	
457.29	7899.7	
457.49	8966	
457.69	9170.8	
457.89	7433.4	
458.09	6954.2	
458.29	8845.2	
458.49	9598.1	
458.69	7905.2	
458.89	7361.8	
459.09	9805	
459.29	9879.4	
459.49	7412.3	
459.69	8138.6	
459.9	9301.9	
460.1	8956.4	
460.3	7307.2	
460.5	7223.9	
460.7	9379.7	
460.9	9024.7	
461.1	6951.5	
461.3	8003.5	
461.5	10004	
461.7	9720.3	
461.9	7442.3	
462.1	7791.2	
462.3	9363.3	
462.5	9884.2	
462.7	7603.4	
462.9	7623.2	
463.1	10827	
463.3	10515	
463.5	7836.9	
463.7	8862.9	
463.9	9596.1	
464.1	9967.5	
464.3	8238.3	
464.5	8292.2	
464.7	10312	
464.9	10014	
465.1	9477.3	
465.3	8658.8	
465.5	10553	
465.7	10558	
465.9	8983.1	
466.1	8709.3	
466.3	10484	
466.5	10284	
466.7	9635	
466.9	8581.7	
467.1	10343	
467.3	11116	
467.5	9608.4	
467.7	8586.5	
467.9	11409	
468.1	12147	
468.3	9316.9	
468.5	9770.9	
468.7	10423	
468.9	10430	
469.1	9074.5	
469.3	9652.8	
469.5	12142	
469.7	10109	
469.9	9271.8	
470.1	8871.8	
470.3	10570	
470.5	10509	
470.7	9947.7	
470.9	8768.7	
471.1	10340	
471.3	10639	
471.5	8656.1	
471.69	10337	
471.89	10204	
472.09	9741.5	
472.29	9406.3	
472.49	9619.3	
472.69	9956.5	
472.89	10660	
473.09	8672.5	
473.29	8627.4	
473.49	10055	
473.69	10084	
473.89	9506.7	
474.09	8718.9	
474.29	11254	
474.49	10925	
474.69	9529.2	
474.89	8898.4	
475.09	10257	
475.29	10200	
475.49	8353	
475.69	8647.2	
475.88	11438	
476.08	10520	
476.28	8329.1	
476.48	8572.1	
476.68	10671	
476.88	10537	
477.08	8458.8	
477.28	8811.7	
477.48	10109	
477.68	10606	
477.88	8370.7	
478.08	8529.8	
478.28	10994	
478.48	10299	
478.67	8828.1	
478.87	8118.8	
479.07	10923	
479.27	10340	
479.47	8887.5	
479.67	8945.5	
479.87	10716	
480.07	11101	
480.27	8272.4	
480.47	9701.2	
480.67	10407	
480.87	10994	
481.06	8538.7	
481.26	9274.6	
481.46	10410	
481.66	10273	
481.86	9000.1	
482.06	9802.3	
482.26	10110	
482.46	10975	
482.66	8967.4	
482.86	8432.9	
483.05	10508	
483.25	9942.2	
483.45	10948	
483.65	8958.5	
483.85	10153	
484.05	10415	
484.25	9316.9	
484.45	9776.3	
484.65	11168	
484.84	11142	
485.04	8980.3	
485.24	8915.5	
485.44	11599	
485.64	10061	
485.84	8462.2	
486.04	9593.4	
486.24	10389	
486.44	10710	
486.63	8364.6	
486.83	9152.4	
487.03	10390	
487.23	10776	
487.43	8485.4	
487.63	10537	
487.83	10742	
488.02	11579	
488.22	9527.8	
488.42	10041	
488.62	11431	
488.82	10626	
489.02	9246.6	
489.22	9222.7	
489.41	11312	
489.61	11116	
489.81	8938	
490.01	9036.3	
490.21	11447	
490.41	11953	
490.61	9081.4	
490.8	9122.3	
491	10948	
491.2	10318	
491.4	9622	
491.6	8846.5	
491.8	10768	
491.99	10805	
492.19	8533.9	
492.39	8965.3	
492.59	11238	
492.79	11252	
492.99	9738.1	
493.18	9022	
493.38	11494	
493.58	12344	
493.78	9723.1	
493.98	9446.6	
494.18	11344	
494.37	10923	
494.57	10170	
494.77	10146	
494.97	11739	
495.17	11957	
495.37	9884.9	
495.56	10159	
495.76	12269	
495.96	11959	
496.16	10913	
496.36	10163	
496.55	12310	
496.75	11881	
496.95	10439	
497.15	10230	
497.35	12119	
497.54	12116	
497.74	10152	
497.94	11635	
498.14	12944	
498.34	12669	
498.53	9948.3	
498.73	10631	
498.93	11774	
499.13	12297	
499.33	10559	
499.52	10876	
499.72	12373	
499.92	12501	
500.12	10378	
500.32	10657	
500.51	12637	
500.71	12468	
500.91	11305	
501.11	10920	
501.31	12592	
501.5	12796	
501.7	11426	
501.9	10678	
502.1	12330	
502.29	12628	
502.49	11090	
502.69	11410	
502.89	12504	
503.09	12478	
503.28	10037	
503.48	10200	
503.68	11718	
503.88	11793	
504.07	10935	
504.27	10413	
504.47	12097	
504.67	12127	
504.86	10918	
505.06	10664	
505.26	11695	
505.46	13250	
505.65	10495	
505.85	10459	
506.05	11677	
506.25	12010	
506.44	9701.9	
506.64	10517	
506.84	11507	
507.04	12200	
507.23	9876	
507.43	10301	
507.63	13129	
507.83	11597	
508.02	10370	
508.22	10051	
508.42	13417	
508.62	11425	
508.81	10442	
509.01	10732	
509.21	11150	
509.4	11649	
509.6	10396	
509.8	9928.6	
510	11514	
510.19	12869	
510.39	9883.5	
510.59	9955.2	
510.79	11477	
510.98	12631	
511.18	10060	
511.38	10187	
511.57	12114	
511.77	11953	
511.97	10691	
512.17	9865.1	
512.36	12108	
512.56	11994	
512.76	9854.8	
512.95	9618.6	
513.15	12267	
513.35	10874	
513.55	10647	
513.74	9878	
513.94	12137	
514.14	11518	
514.33	10713	
514.53	10518	
514.73	11732	
514.92	11740	
515.12	9996.1	
515.32	9912.2	
515.51	11916	
515.71	12345	
515.91	11452	
516.11	10010	
516.3	13351	
516.5	11613	
516.7	10347	
516.89	10960	
517.09	11615	
517.29	11585	
517.48	10649	
517.68	10180	
517.88	11414	
518.07	11987	
518.27	10684	
518.47	9831.6	
518.66	12368	
518.86	11230	
519.06	9682.1	
519.25	10068	
519.45	11614	
519.65	12874	
519.84	10614	
520.04	11367	
520.24	13271	
520.43	12187	
520.63	10369	
520.83	10146	
521.02	11352	
521.22	11942	
521.42	10448	
521.61	10940	
521.81	11498	
522.01	11669	
522.2	10347	
522.4	10238	
522.6	12218	
522.79	11053	
522.99	10350	
523.18	9787.2	
523.38	12050	
523.58	12116	
523.77	11609	
523.97	9944.9	
524.17	13778	
524.36	13049	
524.56	11260	
524.76	10931	
524.95	12219	
525.15	11965	
525.34	10765	
525.54	10935	
525.74	12727	
525.93	11899	
526.13	11940	
526.33	10944	
526.52	13099	
526.72	12715	
526.91	12037	
527.11	11400	
527.31	13176	
527.5	13556	
527.7	11364	
527.89	10531	
528.09	12386	
528.29	12895	
528.48	11732	
528.68	11526	
528.87	13215	
529.07	13149	
529.27	11382	
529.46	10819	
529.66	12945	
529.85	13267	
530.05	10961	
530.25	11548	
530.44	14087	
530.64	12708	
530.83	11074	
531.03	11330	
531.23	13231	
531.42	12950	
531.62	12063	
531.81	11402	
532.01	13459	
532.21	13746	
532.4	11490	
532.6	11753	
532.79	14431	
532.99	13766	
533.18	12002	
533.38	12801	
533.58	13347	
533.77	13954	
533.97	11990	
534.16	12609	
534.36	14304	
534.55	13385	
534.75	12805	
534.95	12076	
535.14	14289	
535.34	13506	
535.53	11820	
535.73	13418	
535.92	14674	
536.12	13496	
536.31	11652	
536.51	12752	
536.71	13727	
536.9	13346	
537.1	11806	
537.29	11969	
537.49	14108	
537.68	13317	
537.88	12338	
538.07	11601	
538.27	13544	
538.46	14526	
538.66	11540	
538.86	11991	
539.05	13622	
539.25	14029	
539.44	12384	
539.64	11779	
539.83	13525	
540.03	14440	
540.22	11716	
540.42	11711	
540.61	13535	
540.81	13732	
541	12066	
541.2	12712	
541.39	13080	
541.59	13554	
541.78	12329	
541.98	11660	
542.18	12931	
542.37	12964	
542.57	11809	
542.76	12455	
542.96	12785	
543.15	13430	
543.35	11875	
543.54	11286	
543.74	13525	
543.93	13125	
544.13	11593	
544.32	12587	
544.52	13358	
544.71	12630	
544.91	10877	
545.1	11897	
545.3	12913	
545.49	13242	
545.69	10737	
545.88	11353	
546.08	14171	
546.27	13723	
546.47	11856	
546.66	11127	
546.86	13482	
547.05	14064	
547.24	11348	
547.44	11113	
547.63	12378	
547.83	13476	
548.02	11569	
548.22	11652	
548.41	12324	
548.61	13523	
548.8	10984	
549	10976	
549.19	12736	
549.39	13215	
549.58	10763	
549.78	11209	
549.97	13097	
550.17	12557	
550.36	11836	
550.55	12812	
550.75	12728	
550.94	13356	
551.14	10875	
551.33	11062	
551.53	12074	
551.72	12996	
551.92	11098	
552.11	11027	
552.31	12905	
552.5	12975	
552.69	12519	
552.89	10513	
553.08	12801	
553.28	12443	
553.47	10916	
553.67	11817	
553.86	13240	
554.06	11822	
554.25	10176	
554.44	10690	
554.64	13950	
554.83	13459	
555.03	10761	
555.22	11029	
555.42	12964	
555.61	12646	
555.8	10709	
556	11022	
556.19	11944	
556.39	12931	
556.58	10692	
556.78	10864	
556.97	12478	
557.16	12252	
557.36	11922	
557.55	10557	
557.75	11542	
557.94	13222	
558.13	10545	
558.33	10423	
558.52	13024	
558.72	12018	
558.91	10436	
559.1	10658	
559.3	11788	
559.49	11445	
559.69	10051	
559.88	10756	
560.07	12331	
560.27	12671	
560.46	11044	
560.66	11099	
560.85	12248	
561.04	11458	
561.24	10208	
561.43	10391	
561.63	11669	
561.82	11983	
562.01	11510	
562.21	10677	
562.4	12254	
562.59	13127	
562.79	10579	
562.98	10256	
563.18	12338	
563.37	13653	
563.56	11024	
563.76	10314	
563.95	11818	
564.14	11835	
564.34	10673	
564.53	10431	
564.73	12355	
564.92	12563	
565.11	10856	
565.31	10290	
565.5	12803	
565.69	11783	
565.89	10542	
566.08	10824	
566.27	12647	
566.47	13108	
566.66	11351	
566.85	10143	
567.05	12478	
567.24	11879	
567.44	10549	
567.63	11622	
567.82	12540	
568.02	12397	
568.21	10370	
568.4	10709	
568.6	12308	
568.79	12239	
568.98	10364	
569.18	10486	
569.37	12241	
569.56	14063	
569.76	10780	
569.95	11757	
570.14	12706	
570.34	12619	
570.53	10428	
570.72	10421	
570.91	13086	
571.11	12213	
571.3	10778	
571.49	11617	
571.69	12349	
571.88	12084	
572.07	11258	
572.27	11234	
572.46	11955	
572.65	12881	
572.85	10623	
573.04	11064	
573.23	13125	
573.43	12448	
573.62	10633	
573.81	11099	
574	12658	
574.2	12359	
574.39	10925	
574.58	11049	
574.78	13416	
574.97	12833	
575.16	11479	
575.36	11523	
575.55	13108	
575.74	13245	
575.93	10620	
576.13	11755	
576.32	12617	
576.51	13155	
576.71	11166	
576.9	12353	
577.09	13413	
577.28	12985	
577.48	11514	
577.67	10584	
577.86	12656	
578.05	12960	
578.25	11226	
578.44	11389	
578.63	12816	
578.83	14024	
579.02	10843	
579.21	12164	
579.4	13010	
579.6	12760	
579.79	11401	
579.98	13221	
580.17	13388	
580.37	13401	
580.56	10950	
580.75	11617	
580.94	13615	
581.14	13588	
581.33	12083	
581.52	11137	
581.71	13241	
581.91	13735	
582.1	10856	
582.29	11310	
582.48	12940	
582.68	12835	
582.87	11806	
583.06	11442	
583.25	13185	
583.45	13096	
583.64	12060	
583.83	12647	
584.02	12855	
584.21	13214	
584.41	11918	
584.6	11389	
584.79	12940	
584.98	13552	
585.18	10915	
585.37	10903	
585.56	12562	
585.75	13277	
585.94	11113	
586.14	11746	
586.33	13683	
586.52	12883	
586.71	11475	
586.91	11148	
587.1	12159	
587.29	13094	
587.48	11055	
587.67	10972	
587.87	12831	
588.06	12998	
588.25	11987	
588.44	11397	
588.63	12515	
588.83	12975	
589.02	10859	
589.21	10727	
589.4	12229	
589.59	12113	
589.78	9820	
589.98	10058	
590.17	11467	
590.36	11880	
590.55	9292.3	
590.74	9751.7	
590.94	12797	
591.13	11570	
591.32	9702.6	
591.51	9303.9	
591.7	11909	
591.89	11567	
592.09	9632.3	
592.28	9906.7	
592.47	10987	
592.66	12570	
592.85	9559.9	
593.05	9757.9	
593.24	11487	
593.43	12085	
593.62	9748.3	
593.81	10215	
594	11579	
594.19	11790	
594.39	9749	
594.58	9713.5	
594.77	11785	
594.96	12242	
595.15	9694.4	
595.34	10172	
595.54	11744	
595.73	10933	
595.92	9045.2	
596.11	9921	
596.3	12209	
596.49	11094	
596.68	9779.7	
596.88	10177	
597.07	11857	
597.26	10839	
597.45	9416.6	
597.64	10552	
597.83	11300	
598.02	11695	
598.22	9400.9	
598.41	9956.5	
598.6	11490	
598.79	10862	
598.98	9469.8	
599.17	10247	
599.36	11465	
599.55	12464	
599.74	11182	
599.94	11049	
600.13	11888	
600.32	10832	
600.51	9189.9	
600.7	9345.6	
600.89	12512	
601.08	12397	
601.27	9175.6	
601.47	9954.5	
601.66	11823	
601.85	12407	
602.04	9815.2	
602.23	9730.6	
602.42	10991	
602.61	11528	
602.8	9682.1	
602.99	9453.4	
603.18	11323	
603.37	11532	
603.57	9978.4	
603.76	10435	
603.95	12048	
604.14	11770	
604.33	9509.4	
604.52	9843.2	
604.71	11489	
604.9	11088	
605.09	10499	
605.28	10081	
605.47	11927	
605.66	11556	
605.86	10020	
606.05	9589.3	
606.24	12021	
606.43	10731	
606.62	9860.3	
606.81	10315	
607	11763	
607.19	11185	
607.38	9163.3	
607.57	9476	
607.76	10929	
607.95	10557	
608.14	9767.4	
608.33	10281	
608.52	10976	
608.72	11674	
608.91	9195.4	
609.1	9045.9	
609.29	11006	
609.48	10414	
609.67	9855.5	
609.86	8999.5	
610.05	10648	
610.24	10902	
610.43	8867	
610.62	8717.5	
610.81	11863	
611	11660	
611.19	8936.7	
611.38	9622.7	
611.57	11159	
611.76	12159	
611.95	8721.6	
612.14	8695.7	
612.33	10970	
612.52	10660	
612.71	9181.7	
612.9	8490.9	
613.09	10219	
613.28	12207	
613.47	9177.6	
613.66	9869.2	
613.85	11090	
614.04	10598	
614.24	9101.2	
614.43	8348.2	
614.62	11075	
614.81	11160	
615	9512.8	
615.19	9612.5	
615.38	10471	
615.57	10832	
615.76	9440.5	
615.95	10246	
616.14	11247	
616.33	10818	
616.52	9630.9	
616.71	9848.7	
616.9	11093	
617.09	10919	
617.28	9241.8	
617.47	10299	
617.66	10327	
617.85	10451	
618.04	9995.5	
618.22	9540.8	
618.41	10778	
618.6	11635	
618.79	9648.7	
618.98	9351	
619.17	11913	
619.36	10442	
619.55	9398.8	
619.74	9506	
619.93	11300	
620.12	10803	
620.31	9955.2	
620.5	10144	
620.69	11787	
620.88	12299	
621.07	10754	
621.26	9788.6	
621.45	11527	
621.64	11531	
621.83	10115	
622.02	9383.1	
622.21	11541	
622.4	11359	
622.59	10652	
622.78	10429	
622.97	11002	
623.16	11822	
623.35	10076	
623.54	9337.4	
623.72	11208	
623.91	11312	
624.1	10321	
624.29	9269.1	
624.48	12329	
624.67	11571	
624.86	10183	
625.05	9347.6	
625.24	12311	
625.43	10970	
625.62	11712	
625.81	9666.4	
626	11909	
626.19	11248	
626.38	10206	
626.56	9731.3	
626.75	11186	
626.94	11800	
627.13	10138	
627.32	9200.8	
627.51	11710	
627.7	12675	
627.89	9220.6	
628.08	10256	
628.27	10987	
628.46	11102	
628.65	9422	
628.83	9188.6	
629.02	11654	
629.21	11077	
629.4	9923.8	
629.59	10015	
629.78	10904	
629.97	11834	
630.16	10123	
630.35	9513.5	
630.54	12264	
630.72	12002	
630.91	9562.6	
631.1	10016	
631.29	11419	
631.48	11487	
631.67	10138	
631.86	9600.2	
632.05	11160	
632.24	11150	
632.42	9303.2	
632.61	9902.6	
632.8	11138	
632.99	10976	
633.18	9895.8	
633.37	10177	
633.56	11402	
633.75	11317	
633.93	9828.2	
634.12	9624.8	
634.31	12024	
634.5	11766	
634.69	9650	
634.88	10077	
635.07	11223	
635.25	11717	
635.44	10301	
635.63	10512	
635.82	11095	
636.01	10541	
636.2	10231	
636.39	9830.2	
636.57	12013	
636.76	11652	
636.95	9370.8	
637.14	10699	
637.33	11456	
637.52	12147	
637.7	9163.3	
637.89	9964.1	
638.08	11068	
638.27	12267	
638.46	10052	
638.65	10346	
638.83	12290	
639.02	10867	
639.21	9923.1	
639.4	10327	
639.59	11142	
639.78	10767	
639.96	9179.7	
640.15	9222.7	
640.34	11034	
640.53	11064	
640.72	8922.3	
640.91	9285.5	
641.09	10505	
641.28	11515	
641.47	9175.6	
641.66	9983.8	
641.85	11031	
642.03	11148	
642.22	9658.9	
642.41	9186.5	
642.6	10573	
642.79	10133	
642.97	9072.5	
643.16	9596.8	
643.35	10342	
643.54	10198	
643.73	8892.3	
643.91	9398.8	
644.1	10071	
644.29	10674	
644.48	8888.9	
644.67	8893	
644.85	10065	
645.04	10480	
645.23	8398	
645.42	8757.8	
645.6	9971.6	
645.79	10844	
645.98	8525.7	
646.17	7758.4	
646.36	9617.3	
646.54	10106	
646.73	9106.6	
646.92	8102.4	
647.11	9588.6	
647.29	10491	
647.48	8110.6	
647.67	7901.7	
647.86	10729	
648.05	10798	
648.23	8374.8	
648.42	9438.4	
648.61	10196	
648.8	9984.5	
648.98	7920.9	
649.17	8281.3	
649.36	9532.6	
649.55	9334.6	
649.73	8135.9	
649.92	8759.8	
650.11	9572.2	
650.3	9813.2	
650.48	8160.5	
650.67	7906.5	
650.86	10008	
651.05	9143.5	
651.23	8097.7	
651.42	8040.3	
651.61	9495.1	
651.79	9559.2	
651.98	8308.6	
652.17	7851.2	
652.36	9905.3	
652.54	9067.7	
652.73	7933.1	
652.92	7758.4	
653.11	9820.7	
653.29	9924.5	
653.48	7335.8	
653.67	8142	
653.85	9698.5	
654.04	10508	
654.23	8254	
654.42	7806.2	
654.6	9082.7	
654.79	9485.5	
654.98	7243	
655.16	7606.2	
655.35	8544.8	
655.54	8439.7	
655.73	7211.6	
655.91	7101.7	
656.1	9417.2	
656.29	8430.1	
656.47	6946	
656.66	8346.2	
656.85	8804.9	
657.03	8823.3	
657.22	7396.6	
657.41	7422.5	
657.59	9026.1	
657.78	8856.8	
657.97	7154.2	
658.16	7826.7	
658.34	9599.5	
658.53	9957.2	
658.72	8575.5	
658.9	9007	
659.09	9165.3	
659.28	9230.9	
659.46	7613.7	
659.65	7538.6	
659.84	8976.2	
660.02	9460.3	
660.21	7513.3	
660.4	7436.2	
660.58	9785.9	
660.77	9226.8	
660.96	7993.2	
661.14	7184.3	
661.33	10183	
661.52	10031	
661.7	7057.3	
661.89	10111	
662.08	8815.1	
662.26	8368.7	
662.45	7335.8	
662.64	7445	
662.82	9528.5	
663.01	8701.8	
663.2	7355.6	
663.38	8058.8	
663.57	9320.3	
663.75	9316.2	
663.94	7705.1	
664.13	8742.1	
664.31	8725	
664.5	9304.6	
664.69	8006.2	
664.87	8282	
665.06	8606.9	
665.25	9212.4	
665.43	8470.4	
665.62	8609	
665.8	9387.9	
665.99	8839.7	
666.18	7686	
666.36	7722.2	
666.55	9473.2	
666.74	9346.9	
666.92	7212.3	
667.11	8665.6	
667.29	8822.6	
667.48	9323	
667.67	8402.1	
667.85	7472.4	
668.04	8832.2	
668.22	8877.9	
668.41	7679.2	
668.6	7823.2	
668.78	8658.8	
668.97	8826.7	
669.15	7860.8	
669.34	7049.1	
669.53	8617.9	
669.71	9002.9	
669.9	7130.3	
670.08	7750.2	
670.27	8539.3	
670.46	9107.3	
670.64	7894.9	
670.83	8102.4	
671.01	8438.3	
671.2	9064.3	
671.38	7286.7	
671.57	7075	
671.76	9582.4	
671.94	10109	
672.13	7094.8	
672.31	7974.8	
672.5	9323.7	
672.69	8636.3	
672.87	7225.9	
673.06	7502.4	
673.24	9116.9	
673.43	8723	
673.61	7851.9	
673.8	7432.1	
673.98	9174.9	
674.17	9319.6	
674.36	7961.8	
674.54	7892.2	
674.73	8968.7	
674.91	9122.3	
675.1	7537.9	
675.28	7185	
675.47	8819.2	
675.65	9293.7	
675.84	7502.4	
676.03	7647.8	
676.21	8675.9	
676.4	8200.1	
676.58	8049.2	
676.77	7882.6	
676.95	9830.9	
677.14	8558.5	
677.32	7163.1	
677.51	7049.1	
677.69	9252.7	
677.88	8301.1	
678.06	7164.5	
678.25	7124.9	
678.44	8871.1	
678.62	8497	
678.81	6903	
678.99	7739.3	
679.18	9527.2	
679.36	9129.8	
679.55	7451.9	
679.73	7934.5	
679.92	9084.1	
680.1	8618.5	
680.29	8560.5	
680.47	7372	
680.66	8457.4	
680.84	9306.7	
681.03	6825.9	
681.21	7635.5	
681.4	8553	
681.58	8307.2	
681.77	7185.6	
681.95	7073.7	
682.14	9329.9	
682.32	9475.3	
682.51	7953.6	
682.69	6917.4	
682.88	8420.6	
683.06	8902.5	
683.25	7629.4	
683.43	7963.9	
683.62	8785.1	
683.8	8989.2	
683.99	8021.9	
684.17	7537.9	
684.36	9594.7	
684.54	8582.4	
684.73	6657.9	
684.91	6817.7	
685.1	8639.7	
685.28	8069	
685.46	7056.6	
685.65	7096.2	
685.83	8630.1	
686.02	8170	
686.2	6673.6	
686.39	6848.4	
686.57	7924.3	
686.76	9380.4	
686.94	6758.3	
687.13	6950.8	
687.31	8677.2	
687.5	8376.2	
687.68	6424.5	
687.86	7558.4	
688.05	9787.2	
688.23	7774.1	
688.42	7579.5	
688.6	6898.2	
688.79	8245.8	
688.97	8170	
689.16	7263.5	
689.34	6309.1	
689.52	8800.8	
689.71	9088.2	
689.89	7437.5	
690.08	6900.3	
690.26	8555.7	
690.45	8327.7	
690.63	7557	
690.81	6986.3	
691	8178.9	
691.18	8110	
691.37	7079.1	
691.55	8938	
691.74	8010.3	
691.92	9725.1	
692.1	7041.6	
692.29	6546.7	
692.47	8199.4	
692.66	7615.7	
692.84	6762.4	
693.02	7185.6	
693.21	7806.2	
693.39	8229.4	
693.58	7294.2	
693.76	6778.8	
693.94	9220	
694.13	9118.2	
694.31	6868.9	
694.5	7851.9	
694.68	8189.1	
694.86	8500.4	
695.05	7253.9	
695.23	7630.7	
695.42	8827.4	
695.6	10815	
695.78	7767.9	
695.97	6896.2	
696.15	8880	
696.34	8268.3	
696.52	6713.9	
696.7	7413.6	
696.89	8530.5	
697.07	8019.2	
697.25	7309.2	
697.44	8538	
697.62	8574.2	
697.81	8760.5	
697.99	6939.2	
698.17	7483.3	
698.36	7907.2	
698.54	8558.5	
698.72	7318.1	
698.91	6460	
699.09	8163.2	
699.28	7919.5	
699.46	7023.2	
699.64	6898.2	
699.83	7946.8	
700.01	8967.4	
700.19	7603.4	
700.38	6227.9	
700.56	9002.2	
700.74	8062.9	
700.93	6524.1	
701.11	7243	
701.29	8568	
701.48	9491.7	
701.66	6845	
701.84	6858.6	
702.03	8269	
702.21	8800.8	
702.39	6437.4	
702.58	7015	
702.76	8529.1	
702.94	8637.6	
703.13	6459.3	
703.31	8550.3	
703.49	7912	
703.68	9280	
703.86	6520	
704.04	7380.9	
704.23	8351.6	
704.41	8701.1	
704.59	6750.1	
704.78	7788.4	
704.96	9299.1	
705.14	8680.7	
705.33	6558.3	
705.51	7228	
705.69	8156.4	
705.87	8933.9	
706.06	7520.8	
706.24	6501.6	
706.42	8439.7	
706.61	8688.2	
706.79	7526.3	
706.97	6489.3	
707.16	7988.4	
707.34	8464.3	
707.52	7378.1	
707.7	6765.1	
707.89	8192.6	
708.07	7804.8	
708.25	7377.5	
708.44	7525.6	
708.62	8034.2	
708.8	8974.9	
708.98	7626	
709.17	6728.3	
709.35	8387.1	
709.53	8303.8	
709.72	6470.2	
709.9	6875	
710.08	8540	
710.26	8568	
710.45	7798	
710.63	6662	
710.81	8181	
710.99	8254.7	
711.18	7299	
711.36	6715.3	
711.54	8037.6	
711.72	8597.4	
711.91	6776.7	
712.09	6314.6	
712.27	8092.2	
712.45	9051.3	
712.64	6912.6	
712.82	6102.9	
713	7599.3	
713.18	7667.6	
713.37	6192.4	
713.55	7147.4	
713.73	8321.6	
713.91	7126.9	
714.1	6219.7	
714.28	5728.9	
714.46	7762.5	
714.64	7049.1	
714.83	5064.6	
715.01	5796.4	
715.19	7063.4	
715.37	6448.4	
715.55	5441.5	
715.74	5700.2	
715.92	7685.3	
716.1	6042.9	
716.28	6570.6	
716.47	5725.4	
716.65	6631.3	
716.83	6655.2	
717.01	5573.2	
717.19	5634.6	
717.38	8439.7	
717.56	6365.1	
717.74	5931.6	
717.92	5115.8	
718.1	7484.6	
718.29	6810.2	
718.47	4941.7	
718.65	5529.5	
718.83	7542.7	
719.01	7614.3	
719.2	4952	
719.38	5925.5	
719.56	7253.2	
719.74	8571.4	
719.92	5548.6	
720.11	6475	
720.29	7351.5	
720.47	6541.2	
720.65	5070.1	
720.83	5751.4	
721.02	6692.1	
721.2	6465.4	
721.38	5775.3	
721.56	5053	
721.74	6071.5	
721.92	6229.2	
722.11	6191	
722.29	5937.7	
722.47	7232.7	
722.65	6625.9	
722.83	5054.4	
723.01	5776	
723.2	6598.6	
723.38	6846.4	
723.56	4568.3	
723.74	5584.8	
723.92	6224.5	
724.1	7143.3	
724.29	5028.4	
724.47	5996.5	
724.65	6197.2	
724.83	6109.8	
725.01	4961.5	
725.19	5616.2	
725.37	6184.9	
725.56	6241.5	
725.74	4824.3	
725.92	4986.1	
726.1	6150.7	
726.28	6396.5	
726.46	5363.6	
726.64	5023.7	
726.83	6410.8	
727.01	6617.7	
727.19	4767	
727.37	5500.8	
727.55	6531.7	
727.73	6972	
727.91	4773.1	
728.09	4635.9	
728.28	6965.1	
728.46	7464.2	
728.64	5571.2	
728.82	5559.6	
729	7888.8	
729.18	7249.8	
729.36	4906.9	
729.54	6875	
729.72	8234.9	
729.91	6730.3	
730.09	6514.6	
730.27	5547.9	
730.45	6632.7	
730.63	7249.1	
730.81	6098.9	
730.99	5291.3	
731.17	7717.4	
731.35	6457.2	
731.53	5758.2	
731.71	5330.2	
731.9	7436.2	
732.08	7569.3	
732.26	5624.4	
732.44	5264	
732.62	7581.6	
732.8	7141.3	
732.98	5887.2	
733.16	5095.3	
733.34	7068.9	
733.52	6009.4	
733.7	5526.1	
733.88	5796.4	
734.07	6985.6	
734.25	6771.9	
734.43	5109	
734.61	6418.3	
734.79	8090.8	
734.97	6688	
735.15	5227.8	
735.33	5492.7	
735.51	6925.5	
735.69	6676.4	
735.87	6477.7	
736.05	5717.2	
736.23	6741.9	
736.41	6563.7	
736.59	5515.9	
736.77	5569.1	
736.95	7242.3	
737.13	6752.8	
737.32	5261.9	
737.5	5369.1	
737.68	7757.7	
737.86	6636.8	
738.04	5021.6	
738.22	6664.1	
738.4	6514.6	
738.58	6763.1	
738.76	5528.2	
738.94	4705.5	
739.12	6538.5	
739.3	6458.6	
739.48	6072.2	
739.66	5893.4	
739.84	6837.5	
740.02	6824.5	
740.2	4796.3	
740.38	5069.4	
740.56	7119.4	
740.74	6102.3	
740.92	5659.2	
741.1	5476.3	
741.28	6655.2	
741.46	6439.5	
741.64	5259.2	
741.82	5728.9	
742	6650.4	
742.18	6610.8	
742.36	5386.8	
742.54	5076.9	
742.72	7180.9	
742.9	6006	
743.08	5699.5	
743.26	4641.4	
743.44	7331	
743.62	7088	
743.8	5785.5	
743.98	5001.1	
744.16	6842.9	
744.34	6555.5	
744.52	5705	
744.7	5669.5	
744.88	6977.4	
745.06	6489.3	
745.24	5710.4	
745.42	5863.3	
745.6	7002.7	
745.78	6866.2	
745.96	4770.4	
746.14	4925.4	
746.32	7595.9	
746.5	6929.6	
746.68	5467.4	
746.86	4990.9	
747.03	7243	
747.21	5874.3	
747.39	5424.4	
747.57	4853.7	
747.75	6577.4	
747.93	6926.9	
748.11	4971.1	
748.29	4842.8	
748.47	7988.4	
748.65	6363	
748.83	5595.1	
749.01	5316.5	
749.19	6823.8	
749.37	6050.4	
749.55	5233.9	
749.73	5296	
749.91	6553.5	
750.09	6255.2	
750.26	5350.7	
750.44	4775.2	
750.62	6458.6	
750.8	6451.8	
750.98	4640.7	
751.16	4894	
751.34	6554.2	
751.52	5906.3	
751.7	5650.3	
751.88	4672.8	
752.06	7008.8	
752.24	6695.5	
752.42	4587.4	
752.59	4845.5	
752.77	6396.5	
752.95	7421.2	
753.13	5545.9	
753.31	4914.4	
753.49	6146	
753.67	6569.2	
753.85	5242.8	
754.03	4838.7	
754.21	6664.8	
754.38	7086.7	
754.56	4922	
754.74	4166.9	
754.92	5975.3	
755.1	6649.8	
755.28	4130.8	
755.46	4080.2	
755.64	7206.1	
755.82	7221.1	
755.99	4136.2	
756.17	4203.8	
756.35	4880.3	
756.53	6208.8	
756.71	3138.2	
756.89	3928.7	
757.07	5819	
757.25	5047.6	
757.42	4480.3	
757.6	5266	
757.78	5962.3	
757.96	5108.3	
758.14	4313.7	
758.32	3875.4	
758.5	4739	
758.67	5485.1	
758.85	4113.7	
759.03	4171	
759.21	5627.1	
759.39	5085.8	
759.57	3689.1	
759.75	4739.7	
759.92	6185.5	
760.1	5606	
760.28	5091.3	
760.46	5283.1	
760.64	5399.8	
760.82	5174.5	
760.99	4964.3	
761.17	4316.4	
761.35	6173.3	
761.53	5244.2	
761.71	4363.5	
761.89	5018.2	
762.06	6027.9	
762.24	5618.3	
762.42	4508.9	
762.6	4249.5	
762.78	5636.7	
762.96	6131.6	
763.13	4824.3	
763.31	4558.8	
763.49	6361.7	
763.67	5541.8	
763.85	5270.1	
764.02	5768.4	
764.2	6709.1	
764.38	5863.3	
764.56	4418.8	
764.74	5186.1	
764.91	6671.6	
765.09	5699.5	
765.27	4197	
765.45	3997.6	
765.63	6740.5	
765.8	6482.5	
765.98	3794.2	
766.16	4067.3	
766.34	5312.4	
766.52	5131.5	
766.69	4904.2	
766.87	3906.2	
767.05	5664.7	
767.23	6256.5	
767.41	4099.4	
767.58	4351.3	
767.76	6098.9	
767.94	6208.1	
768.12	4200.4	
768.29	4860.5	
768.47	5657.2	
768.65	6306.4	
768.83	3844	
769	4857.8	
769.18	5326.1	
769.36	5872.9	
769.54	4879.6	
769.72	3895.2	
769.89	6120.7	
770.07	6224.5	
770.25	4145.1	
770.43	5226.4	
770.6	6860	
770.78	7096.2	
770.96	4304.8	
771.14	4880.3	
771.31	6069.5	
771.49	5476.3	
771.67	3587.4	
771.85	3715.7	
772.02	4859.8	
772.2	5438.7	
772.38	4401.8	
772.55	4009.2	
772.73	5684.5	
772.91	5453.1	
773.09	4284.4	
773.26	4396.3	
773.44	5653.1	
773.62	5311.7	
773.8	3846.1	
773.97	3620.1	
774.15	5678.3	
774.33	5345.9	
774.5	3727.3	
774.68	4097.3	
774.86	5865.4	
775.04	5373.2	
775.21	3804.4	
775.39	3846.1	
775.57	5552.7	
775.74	5875.6	
775.92	3638.6	
776.1	3546.4	
776.27	5534.3	
776.45	6598.6	
776.63	3781.2	
776.81	3401	
776.98	5277.6	
777.16	6133.7	
777.34	3913.7	
777.51	4155.3	
777.69	5264	
777.87	4991.6	
778.04	3915.7	
778.22	4445.5	
778.4	5060.5	
778.57	5577.3	
778.75	3284.9	
778.93	3556.6	
779.1	4869.4	
779.28	4713.1	
779.46	3295.9	
779.64	3679.5	
779.81	5797.1	
779.99	6505.7	
780.17	4352.6	
780.34	4510.3	
780.52	5203.9	
780.69	5430.5	
780.87	4015.4	
781.05	3578.5	
781.22	5283.1	
781.4	5302.9	
781.58	3728	
781.75	3004.4	
781.93	5333.6	
782.11	4754	
782.28	4491.9	
782.46	3718.4	
782.64	4594.3	
782.81	5446.2	
782.99	3818.8	
783.17	3755.3	
783.34	5309.7	
783.52	4700.8	
783.69	3915.7	
783.87	4600.4	
784.05	4838.7	
784.22	4767.7	
784.4	4567	
784.58	4044.7	
784.75	5576.6	
784.93	4795	
785.1	3680.2	
785.28	4217.5	
785.46	5343.8	
785.63	4697.4	
785.81	3683.6	
785.99	3592.8	
786.16	4917.2	
786.34	5195.7	
786.51	3570.3	
786.69	3893.2	
786.87	4530.1	
787.04	4967.7	
787.22	3439.9	
787.39	4265.2	
787.57	4780.6	
787.75	5748	
787.92	4429.8	
788.1	4359.4	
788.27	4777.9	
788.45	4570.4	
788.63	4136.2	
788.8	3030.3	
788.98	5113.1	
789.15	4520.5	
789.33	3105.4	
789.5	3682.9	
789.68	5565	
789.86	5581.4	
790.03	3981.3	
790.21	3571	
790.38	5552.7	
790.56	4837.3	
790.73	3444.7	
790.91	3443.3	
791.09	4730.8	
791.26	5356.8	
791.44	3678.2	
791.61	3137.5	
791.79	4786.8	
791.96	4767	
792.14	3291.8	
792.32	2957.9	
792.49	4776.5	
792.67	4861.9	
792.84	3353.2	
793.02	3161.4	
793.19	5143.1	
793.37	5714.5	
793.54	2898.6	
793.72	3224.2	
793.89	5774.6	
794.07	4728.8	
794.25	3717.7	
794.42	3000.3	
794.6	5619.6	
794.77	5330.9	
794.95	4057	
795.12	3510.9	
795.3	4776.5	
795.47	5279	
795.65	3877.5	
795.82	3669.3	
796	4571.7	
796.17	6214.2	
796.35	3605.1	
796.52	4240	
796.7	5182	
796.87	5251.7	
797.05	3553.9	
797.22	4342.4	
797.4	5303.6	
797.57	6081.1	
797.75	3699.3	
797.92	3486.3	
798.1	5477.6	
798.27	4657.1	
798.45	3020.8	
798.62	3215.3	
798.8	4980.7	
798.97	5438	
799.15	3913.7	
799.32	3722.5	
799.5	4414.7	
799.67	5084.4	
799.85	3981.9	
800.02	2948.4	
800.2	4715.8	
800.37	4956.8	
800.55	4124.6	
800.72	3493.2	
800.9	5392.3	
801.07	5722	
801.25	4638	
801.42	3857.7	
801.6	5459.2	
801.77	5085.1	
801.95	3569.6	
802.12	3398.3	
802.29	5210.7	
802.47	5096.7	
802.64	3749.1	
802.82	2935.4	
802.99	4724	
803.17	5562.3	
803.34	3690.4	
803.52	3395.5	
803.69	6096.1	
803.87	4515.1	
804.04	3648.1	
804.21	3751.9	
804.39	5690.6	
804.56	4928.1	
804.74	3218	
804.91	3801.7	
805.09	4698.7	
805.26	4816.8	
805.44	3229.6	
805.61	3521.1	
805.78	5293.3	
805.96	5328.1	
806.13	3768.9	
806.31	4094.6	
806.48	4349.9	
806.66	4795	
806.83	3732.8	
807	3773.7	
807.18	4698	
807.35	5027.8	
807.53	3736.2	
807.7	2996.2	
807.87	5653.8	
808.05	4736.3	
808.22	4042.7	
808.4	3005.7	
808.57	4727.4	
808.74	4416.1	
808.92	3382.6	
809.09	4323.9	
809.27	4656.4	
809.44	5173.2	
809.61	3059.7	
809.79	3366.9	
809.96	5728.9	
810.14	5377.3	
810.31	2972.3	
810.48	3587.4	
810.66	4754	
810.83	5432.6	
811.01	3420.1	
811.18	3725.3	
811.35	5343.8	
811.53	4216.8	
811.7	4090.5	
811.87	3817.4	
812.05	4754	
812.22	4669.4	
812.39	3258.3	
812.57	3208.5	
812.74	4737	
812.92	6177.4	
813.09	3617.4	
813.26	3893.9	
813.44	5953.4	
813.61	4636.6	
813.78	3001.6	
813.96	4017.4	
814.13	4752	
814.3	4490.5	
814.48	4305.5	
814.65	3534.8	
814.82	6021.7	
815	4508.9	
815.17	3695.2	
815.34	4392.2	
815.52	4650.9	
815.69	4632.5	
815.87	3692.5	
816.04	3572.3	
816.21	4762.2	
816.38	4232.5	
816.56	3595.6	
816.73	3293.8	
816.9	5911.1	
817.08	5362.9	
817.25	3343.7	
817.42	4122.6	
817.6	4350.6	
817.77	4721.3	
817.94	3719.1	
818.12	3295.2	
818.29	4535.6	
818.46	6810.9	
818.64	3409.2	
818.81	3235.1	
818.98	4440	
819.16	6333	
819.33	3951.9	
819.5	3624.9	
819.67	5038	
819.85	5545.2	
820.02	3583.9	
820.19	3766.2	
820.37	4945.8	
820.54	4591.5	
820.71	3752.6	
820.88	4575.2	
821.06	4910.3	
821.23	4504.2	
821.4	3718.4	
821.58	3709.6	
821.75	5318.6	
821.92	4931.5	
822.09	3027.6	
822.27	3330	
822.44	4701.5	
822.61	4636.6	
822.79	3011.2	
822.96	5760.3	
823.13	5134.9	
823.3	4475.5	
823.48	3478.8	
823.65	3159.3	
823.82	5305.6	
823.99	4356	
824.17	4415.4	
824.34	3181.9	
824.51	6159.6	
824.68	4783.4	
824.86	3308.2	
825.03	3743	
825.2	4720.6	
825.37	5694.7	
825.55	3320.4	
825.72	3701.4	
825.89	6130.9	
826.06	5801.9	
826.24	3583.3	
826.41	3561.4	
826.58	5696.8	
826.75	5010	
826.92	2897.2	
827.1	3103.4	
827.27	7619.8	
827.44	6193.7	
827.61	3417.4	
827.79	4052.2	
827.96	4534.9	
828.13	4755.4	
828.3	3578.5	
828.47	2994.8	
828.65	5007.3	
828.82	4934.9	
828.99	4490.5	
829.16	3964.9	
829.34	5292	
829.51	5099.4	
829.68	3655.6	
829.85	3749.1	
830.02	5571.8	
830.2	5311.7	
830.37	2856.2	
830.54	4349.9	
830.71	5946.6	
830.88	4739	
831.05	2860.3	
831.23	3302.7	
831.4	5793.7	
831.57	6376	
831.74	3437.9	
831.91	3041.2	
832.09	5012.7	
832.26	5248.3	
832.43	3466.5	
832.6	3857.7	
832.77	4994.3	
832.94	5660.6	
833.12	2850.1	
833.29	3413.3	
833.46	4663.2	
833.63	6518.7	
833.8	3816.7	
833.97	3500	
834.15	5328.8	
834.32	5130.8	
834.49	3647.4	
834.66	3707.5	
834.83	5504.9	
835	4481.6	
835.17	3365.5	
835.35	3357.3	
835.52	5229.8	
835.69	5107	
835.86	3587.4	
836.03	2949.1	
836.2	5222.3	
836.37	4917.9	
836.55	3491.1	
836.72	3345	
836.89	4938.3	
837.06	5362.9	
837.23	3569.6	
837.4	3855	
837.57	6028.5	
837.75	6543.3	
837.92	3229.6	
838.09	3396.9	
838.26	4856.4	
838.43	5549.3	
838.6	3687.7	
838.77	3278.8	
838.94	6206	
839.11	6017.6	
839.29	3508.2	
839.46	2814.6	
839.63	5289.2	
839.8	5063.3	
839.97	3398.3	
840.14	3408.5	
840.31	5098.1	
840.48	5258.5	
840.65	2868.5	
840.82	3391.4	
841	5264.6	
841.17	5128.8	
841.34	3129.3	
841.51	3186	
841.68	5192.3	
841.85	4965.6	
842.02	3269.2	
842.19	2776.4	
842.36	5076.9	
842.53	5116.5	
842.7	3192.1	
842.87	3795.6	
843.05	6538.5	
843.22	4984.1	
843.39	2990.7	
843.56	3332	
843.73	4823	
843.9	5397.8	
844.07	4963.6	
844.24	4212	
844.41	7379.5	
844.58	4656.4	
844.75	3020.1	
844.92	3275.4	
845.09	5272.8	
845.26	5227.1	
845.43	3149.1	
845.6	3342.3	
845.77	5297.4	
845.94	4997.7	
846.12	3399.6	
846.29	3651.5	
846.46	5455.8	
846.63	5258.5	
846.8	3146.4	
846.97	3701.4	
847.14	5686.5	
847.31	5243.5	
847.48	3526.6	
847.65	3861.8	
847.82	5478.3	
847.99	5434.6	
848.16	4144.4	
848.33	3805.8	
848.5	4887.8	
848.67	5635.3	
848.84	3091.8	
849.01	3233.1	
849.18	4786.1	
849.35	4530.8	
849.52	3867.9	
849.69	3080.1	
849.86	5427.1	
850.03	5558.9	
850.2	3147.7	
850.37	3811.3	
850.54	5603.2	
850.71	4990.9	
850.88	3699.3	
851.05	3115.6	
851.22	5169.1	
851.39	5718.6	
851.56	2963.4	
851.73	3554.6	
851.9	4642.1	
852.07	5470.1	
852.24	3453.6	
852.41	3049.4	
852.58	5162.9	
852.75	4681	
852.92	3438.5	
853.09	3062.4	
853.26	4930.8	
853.43	5683.1	
853.6	3145	
853.77	2652.8	
853.94	5741.8	
854.11	5214.1	
854.28	4596.3	
854.44	3399.6	
854.61	6085.9	
854.78	5594.4	
854.95	3080.1	
855.12	3929.4	
855.29	4247.5	
855.46	5805.3	
855.63	3104	
855.8	4255	
855.97	4869.4	
856.14	5580	
856.31	4349.2	
856.48	3380.5	
856.65	4883	
856.82	4628.4	
856.99	3039.9	
857.16	3353.2	
857.33	6345.3	
857.49	5008.6	
857.66	3323.2	
857.83	3601.7	
858	4925.4	
858.17	5132.2	
858.34	2941.6	
858.51	3139.5	
858.68	5763	
858.85	5892	
859.02	3596.9	
859.19	3824.9	
859.36	4658.4	
859.52	4698	
859.69	3104.7	
859.86	3604.4	
860.03	4745.1	
860.2	5693.4	
860.37	2835.8	
860.54	3147.7	
860.71	5446.2	
860.88	5810.8	
861.05	3545	
861.21	3906.8	
861.38	5814.2	
861.55	4558.8	
861.72	2837.8	
861.89	3461.1	
862.06	5544.5	
862.23	5881.1	
862.4	3039.2	
862.56	3243.3	
862.73	5349.3	
862.9	5028.4	
863.07	3697.3	
863.24	2869.9	
863.41	4504.8	
863.58	4624.3	
863.75	3207.1	
863.91	3607.8	
864.08	5712.5	
864.25	5375.9	
864.42	3863.2	
864.59	4355.3	
864.76	5962.3	
864.93	4670.1	
865.09	3069.2	
865.26	3290.4	
865.43	5650.3	
865.6	6029.9	
865.77	2755.2	
865.94	3085.6	
866.1	5676.3	
866.27	5449.6	
866.44	4541	
866.61	2914.9	
866.78	4995	
866.95	5406	
867.11	2999.6	
867.28	2809.8	
867.45	5563	
867.62	4723.3	
867.79	3583.3	
867.96	3099.9	
868.12	4602.5	
868.29	5485.8	
868.46	2729.9	
868.63	4090.5	
868.8	5617.6	
868.97	5429.8	
869.13	3235.1	
869.3	3233.1	
869.47	5276.9	
869.64	5566.4	
869.81	3108.8	
869.97	3099.9	
870.14	5238	
870.31	5851	
870.48	3035.8	
870.65	3870.7	
870.81	4966.3	
870.98	4986.1	
871.15	3515	
871.32	3228.3	
871.48	5309.7	
871.65	5837.4	
871.82	3140.9	
871.99	3385.3	
872.16	6208.8	
872.32	5636	
872.49	3181.9	
872.66	3130	
872.83	5433.3	
872.99	4772.4	
873.16	3540.3	
873.33	3079.5	
873.5	5095.3	
873.67	5167.7	
873.83	3300.6	
874	4134.8	
874.17	5187.5	
874.34	6166.4	
874.5	3966.2	
874.67	3832.4	
874.84	5779.4	
875.01	4545.8	
875.17	4344.4	
875.34	3115.6	
875.51	5208.7	
875.68	6184.2	
875.84	3697.9	
876.01	4463.9	
876.18	5456.5	
876.34	5367	
876.51	3123.2	
876.68	3063.1	
876.85	4941.7	
877.01	5615.5	
877.18	4385.4	
877.35	3029.6	
877.52	5106.3	
877.68	4596.3	
877.85	3042.6	
878.02	3067.2	
878.18	5017.5	
878.35	4767	
878.52	2539.5	
878.69	3442.6	
878.85	5438.7	
879.02	5365	
879.19	4356	
879.35	3334.8	
879.52	5379.3	
879.69	5563	
879.86	2736.8	
880.02	3419.4	
880.19	5069.4	
880.36	6105	
880.52	3576.4	
880.69	3685	
880.86	5509	
881.02	5539.8	
881.19	3382.6	
881.36	3308.2	
881.52	5379.3	
881.69	4792.2	
881.86	3349.8	
882.02	3292.5	
882.19	5604.6	
882.36	6532.3	
882.52	3213.9	
882.69	4336.9	
882.86	5212.8	
883.02	5177.3	
883.19	3725.3	
883.36	3590.1	
883.52	5442.1	
883.69	6178	
883.86	3162.7	
884.02	2884.2	
884.19	5424.4	
884.36	5081	
884.52	3524.6	
884.69	3323.9	
884.86	4851	
885.02	5965.7	
885.19	3465.2	
885.36	3585.3	
885.52	5057.8	
885.69	5173.2	
885.86	4404.5	
886.02	3907.5	
886.19	5494.7	
886.35	4971.1	
886.52	3402.4	
886.69	4328	
886.85	4709	
887.02	5771.9	
887.19	5771.9	
887.35	5771.9	
887.52	5771.9	
887.68	5771.9	
887.85	5771.9	
888.02	5771.9	
888.18	5771.9	
888.35	5771.9	
888.51	5771.9	
888.68	5771.9	
888.85	5771.9	
889.01	5771.9	
889.18	5771.9	
889.35	5771.9	
889.51	5771.9	
889.68	5771.9	
889.84	5771.9	
890.01	5771.9	
890.17	5771.9	
890.34	5771.9	
890.51	5771.9	
890.67	5771.9	
890.84	5771.9	
891	5771.9	
891.17	5771.9	
891.34	5771.9	
891.5	5771.9	
891.67	5771.9	
891.83	5771.9	
892	5771.9	
892.16	5771.9	
892.33	5771.9	
892.5	5771.9	
892.66	5771.9	
892.83	5771.9	
892.99	5771.9	
893.16	5771.9	
893.32	5771.9	
893.49	5771.9	
893.65	5771.9	
893.82	5771.9	
893.99	5771.9	
894.15	5771.9	
894.32	5771.9	
894.48	5771.9	
894.65	5771.9	
894.81	5771.9	
894.98	5771.9	
895.14	5771.9	
895.31	5771.9	
895.47	5771.9	
895.64	5771.9	
895.81	5771.9	
895.97	5771.9	
896.14	5771.9	
896.3	5771.9	
896.47	5771.9	
896.63	5771.9	
896.8	5771.9	
896.96	5771.9	
897.13	5771.9	
897.29	5771.9	
897.46	5771.9	
897.62	5771.9	
897.79	5771.9	
897.95	5771.9	
898.12	5771.9	
898.28	5771.9	
898.45	5771.9	
898.61	5771.9	
898.78	5771.9	
898.94	5771.9	
899.11	5771.9	
899.27	5771.9	
899.44	5771.9	
899.6	5771.9	
899.77	5771.9	
899.93	5771.9	
900.1	5771.9	
900.26	5771.9	
900.43	5771.9	
900.59	5771.9	
900.76	5771.9	
900.92	5771.9	
901.09	5771.9	
901.25	5771.9	
901.42	5771.9	
901.58	5771.9	
901.75	5771.9	
901.91	5771.9	
902.07	5771.9	
902.24	5771.9	
902.4	5771.9	
902.57	5771.9	
902.73	5771.9	
902.9	5771.9	
903.06	5771.9	
903.23	5771.9	
903.39	5771.9	
903.56	5771.9	
903.72	5771.9	
903.88	5771.9	
904.05	5771.9	
904.21	5771.9	
904.38	5771.9	
904.54	5771.9	
904.71	5771.9	
904.87	5771.9	
905.03	5771.9	
905.2	5771.9	
905.36	5771.9	
905.53	5771.9	
905.69	5771.9	
905.86	5771.9	
906.02	5771.9	
906.18	5771.9	
906.35	5771.9	
906.51	5771.9	
906.68	5771.9	
906.84	5771.9	
907.01	5771.9	
907.17	5771.9	
907.33	5771.9	
907.5	5771.9	
907.66	5771.9	
907.83	5771.9	
907.99	5771.9	
908.15	5771.9	
908.32	5771.9	
908.48	5771.9	
908.65	5771.9	
908.81	5771.9	
908.97	5771.9	
909.14	5771.9	
909.3	5771.9	
909.47	5771.9	
909.63	5771.9	
909.79	5771.9	
909.96	5771.9	
910.12	5771.9	
910.28	5771.9	
910.45	5771.9	
910.61	5771.9	
910.78	5771.9	
910.94	5771.9	
911.1	5771.9	
911.27	5771.9	
911.43	5771.9	
911.59	5771.9	
911.76	5771.9	
911.92	5771.9	
912.08	5771.9	
912.25	5771.9	
912.41	5771.9	
912.57	5771.9	
912.74	5771.9	
912.9	5771.9	
913.07	5771.9	
913.23	5771.9	
913.39	5771.9	
913.56	5771.9	
913.72	5771.9	
913.88	5771.9	
914.05	5771.9	
914.21	5771.9	
914.37	5771.9	
914.54	5771.9	
914.7	5771.9	
914.86	5771.9	
915.03	5771.9	
915.19	5771.9	
