Wavelength	Intensities	
nm	a.u.	
179.22	1652.4	
179.44	1648.6	
179.65	1656.1	
179.86	1641.1	
180.08	1703.2	
180.29	3795.6	
180.51	2923.8	
180.72	4903.5	
180.94	5458.5	
181.15	2705.4	
181.37	2636.4	
181.58	4710.3	
181.79	4871.4	
182.01	2794.8	
182.22	2906.8	
182.44	4999.8	
182.65	4265.2	
182.87	3507.5	
183.08	3149.8	
183.29	5173.2	
183.51	4327.4	
183.72	2920.4	
183.94	4001.7	
184.15	4665.3	
184.37	4629.8	
184.58	2615.9	
184.79	3300	
185.01	4380.6	
185.22	4982.7	
185.44	3528.7	
185.65	3104.7	
185.86	4676.2	
186.08	4323.9	
186.29	2587.3	
186.51	2766.1	
186.72	4411.3	
186.94	5023	
187.15	3163.4	
187.36	3208.5	
187.58	6195.1	
187.79	4738.3	
188.01	3254.2	
188.22	4895.3	
188.43	5488.6	
188.65	4872.8	
188.86	2705.4	
189.08	3175	
189.29	4508.9	
189.5	4515.8	
189.72	2954.5	
189.93	3046	
190.15	5073.5	
190.36	5767.1	
190.57	3210.5	
190.79	3080.8	
191	5094	
191.22	5059.8	
191.43	3274.7	
191.64	2773.6	
191.86	5214.1	
192.07	5085.8	
192.29	2917	
192.5	2922.5	
192.71	5083.7	
192.93	4511	
193.14	2896.5	
193.35	3008.5	
193.57	4411.3	
193.78	5042.1	
194	2462.3	
194.21	2913.6	
194.42	4400.4	
194.64	4689.8	
194.85	3135.4	
195.07	3676.1	
195.28	4676.9	
195.49	4161.5	
195.71	3782.6	
195.92	2793.4	
196.13	4753.3	
196.35	4857.8	
196.56	4042	
196.78	3173	
196.99	5841.5	
197.2	5386.8	
197.42	3517.7	
197.63	3192.1	
197.84	4262.5	
198.06	4799.1	
198.27	2968.2	
198.48	3735.5	
198.7	4510.3	
198.91	4681	
199.13	3205.8	
199.34	3166.2	
199.55	5042.1	
199.77	4080.2	
199.98	2866.5	
200.19	3175.7	
200.41	4610	
200.62	4362.2	
200.83	3264.5	
201.05	3538.9	
201.26	4656.4	
201.47	4423.6	
201.69	2921.1	
201.9	2837.1	
202.11	4681	
202.33	5358.2	
202.54	3065.1	
202.76	3377.8	
202.97	4705.5	
203.18	4806.6	
203.4	3271.3	
203.61	3327.3	
203.82	4697.4	
204.04	4425.7	
204.25	3250.8	
204.46	3205.1	
204.68	4608.6	
204.89	4755.4	
205.1	3138.2	
205.32	2751.1	
205.53	4905.6	
205.74	5061.2	
205.96	2470.5	
206.17	3209.2	
206.38	4891.9	
206.6	4999.1	
206.81	3617.4	
207.02	2970.2	
207.24	4823.6	
207.45	5153.4	
207.66	3092.4	
207.88	2714.9	
208.09	4769.7	
208.3	4608.6	
208.52	2866.5	
208.73	3124.5	
208.94	4690.5	
209.15	5106.3	
209.37	3037.8	
209.58	3207.1	
209.79	5003.9	
210.01	4569	
210.22	2579.1	
210.43	2631	
210.65	4608.6	
210.86	4889.9	
211.07	3079.5	
211.29	2825.5	
211.5	4838.7	
211.71	4562.9	
211.93	2885.6	
212.14	2826.9	
212.35	4670.7	
212.56	4702.1	
212.78	3233.7	
212.99	2674.6	
213.2	5315.8	
213.42	4549.2	
213.63	2953.2	
213.84	3065.8	
214.06	4261.1	
214.27	4326	
214.48	3054.9	
214.69	3250.1	
214.91	5179.3	
215.12	5169.8	
215.33	3244.7	
215.55	3531.4	
215.76	5572.5	
215.97	4874.8	
216.18	3149.8	
216.4	3139.5	
216.61	4437.3	
216.82	4971.1	
217.04	2902	
217.25	2958.6	
217.46	5046.9	
217.67	4908.3	
217.89	2669.2	
218.1	2674	
218.31	4719.9	
218.53	4809.3	
218.74	2998.2	
218.95	2923.8	
219.16	4610	
219.38	5303.6	
219.59	2887.6	
219.8	3334.1	
220.01	5658.5	
220.23	4701.5	
220.44	3629	
220.65	2834.4	
220.87	4740.4	
221.08	5072.8	
221.29	2712.2	
221.5	3434.4	
221.72	5948	
221.93	4466.6	
222.14	3214.6	
222.35	3699.3	
222.57	4657.1	
222.78	4997	
222.99	3107.5	
223.2	3235.1	
223.42	4857.1	
223.63	4926	
223.84	2469.9	
224.05	2470.5	
224.27	5601.9	
224.48	5264.6	
224.69	3718.4	
224.9	3233.1	
225.12	4799.8	
225.33	4617.5	
225.54	2611.8	
225.75	2905.4	
225.97	4362.2	
226.18	4628.4	
226.39	3079.5	
226.6	2902.7	
226.82	4485.1	
227.03	4345.8	
227.24	3237.2	
227.45	2751.8	
227.67	4920.6	
227.88	5255.1	
228.09	3536.2	
228.3	3497.9	
228.52	4928.8	
228.73	4620.2	
228.94	2945.7	
229.15	2771.6	
229.36	4644.1	
229.58	4586.8	
229.79	3039.2	
230	3416.7	
230.21	5461.9	
230.43	4698.7	
230.64	3165.5	
230.85	3261.7	
231.06	5025.7	
231.28	4974.5	
231.49	2706	
231.7	3151.8	
231.91	4940.4	
232.12	4672.1	
232.34	2841.9	
232.55	3089	
232.76	5061.2	
232.97	4755.4	
233.18	2904	
233.4	3201	
233.61	4748.6	
233.82	4477.5	
234.03	3042.6	
234.25	2957.3	
234.46	6074.3	
234.67	4728.1	
234.88	3253.5	
235.09	2936.8	
235.31	4803.9	
235.52	4568.3	
235.73	3141.6	
235.94	2742.9	
236.15	4418.2	
236.37	5452.4	
236.58	2902.7	
236.79	3129.3	
237	4877.6	
237.21	4261.8	
237.43	3319.1	
237.64	2650.1	
237.85	7522.2	
238.06	4377.9	
238.27	3301.3	
238.48	2786.6	
238.7	4916.5	
238.91	4544.4	
239.12	3055.6	
239.33	3121.1	
239.54	4407.2	
239.76	4513	
239.97	3075.4	
240.18	3069.2	
240.39	5518.6	
240.6	4810	
240.82	3206.4	
241.03	2755.9	
241.24	4636.6	
241.45	5267.4	
241.66	2868.5	
241.87	3317.7	
242.09	5204.6	
242.3	5433.3	
242.51	3291.8	
242.72	3078.1	
242.93	4994.3	
243.14	4610.7	
243.36	3514.3	
243.57	3697.9	
243.78	5180	
243.99	4890.5	
244.2	3117	
244.41	2820.1	
244.63	4259.8	
244.84	4836.6	
245.05	3259.7	
245.26	3099.9	
245.47	4923.3	
245.68	4986.1	
245.9	3928.7	
246.11	3230.3	
246.32	4506.9	
246.53	4853	
246.74	4790.9	
246.95	2648	
247.16	4366.3	
247.38	4639.3	
247.59	2637.1	
247.8	3080.8	
248.01	4358.1	
248.22	4635.9	
248.43	2841.9	
248.64	3005.7	
248.86	4322.6	
249.07	4464.6	
249.28	2809.1	
249.49	3194.1	
249.7	5010.7	
249.91	5098.1	
250.12	2680.1	
250.34	2761.3	
250.55	4794.3	
250.76	4686.4	
250.97	3173.7	
251.18	3177.1	
251.39	5073.5	
251.6	4787.5	
251.81	3263.8	
252.03	3211.2	
252.24	4454.3	
252.45	4951.3	
252.66	2779.1	
252.87	3352.5	
253.08	4663.9	
253.29	5753.4	
253.5	2745	
253.72	3703.4	
253.93	4579.3	
254.14	5272.8	
254.35	2962	
254.56	2998.9	
254.77	4801.8	
254.98	4422.9	
255.19	2919.7	
255.41	3652.2	
255.62	4775.9	
255.83	5124.7	
256.04	3317	
256.25	3160.7	
256.46	5487.2	
256.67	4379.9	
256.88	3195.5	
257.09	3486.3	
257.31	4364.2	
257.52	4371	
257.73	3903.4	
257.94	2944.3	
258.15	4605.2	
258.36	4648.9	
258.57	3627.6	
258.78	2461	
258.99	5025.7	
259.2	4506.2	
259.41	2963.4	
259.63	3005.7	
259.84	5226.4	
260.05	5454.4	
260.26	3710.2	
260.47	2915.6	
260.68	5067.4	
260.89	4547.2	
261.1	3493.2	
261.31	2905.4	
261.52	5086.5	
261.73	5360.9	
261.95	3684.3	
262.16	3301.3	
262.37	5151.3	
262.58	5223.7	
262.79	3693.9	
263	3027.6	
263.21	4747.9	
263.42	4271.4	
263.63	3192.1	
263.84	2981.2	
264.05	5022.3	
264.26	5216.9	
264.47	3643.3	
264.69	3170.3	
264.9	5225.1	
265.11	4809.3	
265.32	2895.8	
265.53	2923.1	
265.74	4743.8	
265.95	4190.8	
266.16	3135.4	
266.37	3438.5	
266.58	4730.1	
266.79	4463.2	
267	3000.3	
267.21	2749.7	
267.42	4326.7	
267.63	4612	
267.84	3026.9	
268.06	2710.8	
268.27	4985.4	
268.48	5139.7	
268.69	3039.2	
268.9	3449.5	
269.11	5192.3	
269.32	4283	
269.53	3110.2	
269.74	2899.2	
269.95	4851	
270.16	4210.6	
270.37	3132.7	
270.58	3530	
270.79	4567	
271	5067.4	
271.21	3237.8	
271.42	3115.6	
271.63	4833.9	
271.84	4356	
272.05	2547.7	
272.26	2819.4	
272.47	4641.4	
272.68	4773.8	
272.89	3018	
273.11	3351.2	
273.32	4467.3	
273.53	5298.1	
273.74	3234.4	
273.95	3190.1	
274.16	4972.5	
274.37	4710.3	
274.58	3381.9	
274.79	2787.3	
275	4763.6	
275.21	5057.1	
275.42	3915	
275.63	3399.6	
275.84	4870.1	
276.05	5878.4	
276.26	3232.4	
276.47	3070.6	
276.68	4605.2	
276.89	5385.5	
277.1	3439.9	
277.31	2774.3	
277.52	4805.9	
277.73	5128.8	
277.94	2680.8	
278.15	3008.5	
278.36	4806.6	
278.57	4414.1	
278.78	2959.3	
278.99	3313.6	
279.2	4468	
279.41	4371.7	
279.62	3855	
279.83	2772.9	
280.04	5486.5	
280.25	4377.9	
280.46	3837.2	
280.67	3099.3	
280.88	4400.4	
281.09	5118.6	
281.3	3207.1	
281.51	3992.2	
281.72	4477.5	
281.93	4976.6	
282.14	2964.8	
282.35	3125.2	
282.56	5051.7	
282.77	4928.1	
282.98	2976.4	
283.19	3558	
283.4	5926.1	
283.61	4547.9	
283.82	2790	
284.03	3745.1	
284.24	4907.6	
284.45	5115.8	
284.66	3819.5	
284.87	3582.6	
285.08	5147.2	
285.29	5156.1	
285.5	2738.1	
285.71	3044	
285.92	5050.3	
286.12	5517.2	
286.33	3730.7	
286.54	3061.7	
286.75	4943.1	
286.96	4582.7	
287.17	2844.6	
287.38	3566.2	
287.59	4481.6	
287.8	4455.7	
288.01	3021.4	
288.22	3406.5	
288.43	4879.6	
288.64	4225.6	
288.85	3552.5	
289.06	3396.2	
289.27	5010	
289.48	5283.1	
289.69	3689.8	
289.9	3427.6	
290.11	5177.9	
290.32	4506.9	
290.53	3566.2	
290.74	3315	
290.94	4954.7	
291.15	4990.9	
291.36	2977.1	
291.57	3351.8	
291.78	4533.5	
291.99	4231.8	
292.2	2893.1	
292.41	3312.2	
292.62	5065.3	
292.83	4900.8	
293.04	3982.6	
293.25	2927.2	
293.46	4550.6	
293.67	5061.2	
293.88	2899.9	
294.09	2796.2	
294.29	4400.4	
294.5	4742.4	
294.71	3162.7	
294.92	2947	
295.13	4572.4	
295.34	5497.4	
295.55	2739.5	
295.76	2658.3	
295.97	4944.5	
296.18	5448.3	
296.39	2794.8	
296.6	2989.4	
296.81	4685.1	
297.01	4976.6	
297.22	3032.4	
297.43	3035.1	
297.64	4541.7	
297.85	4385.4	
298.06	2524.5	
298.27	2678.1	
298.48	4660.5	
298.69	4465.3	
298.9	3108.8	
299.11	2914.3	
299.31	4326	
299.52	4327.4	
299.73	3364.1	
299.94	3291.8	
300.15	4659.8	
300.36	4422.9	
300.57	3282.9	
300.78	3219.4	
300.99	4569	
301.2	4749.9	
301.4	2882.2	
301.61	3154.6	
301.82	4851	
302.03	4995.7	
302.24	3426.3	
302.45	2822.8	
302.66	4904.9	
302.87	5120.6	
303.08	2923.1	
303.29	3812.6	
303.49	4522.6	
303.7	4594.3	
303.91	2676.7	
304.12	3624.2	
304.33	4330.8	
304.54	4762.9	
304.75	2981.2	
304.96	2874	
305.16	4915.8	
305.37	5386.2	
305.58	2611.2	
305.79	2672.6	
306	4930.8	
306.21	4218.8	
306.42	2985.3	
306.63	4222.9	
306.83	4491.2	
307.04	4940.4	
307.25	3195.5	
307.46	3145	
307.67	4179.2	
307.88	4833.2	
308.09	2923.8	
308.29	3028.3	
308.5	4756.7	
308.71	5051.7	
308.92	3115.6	
309.13	2871.3	
309.34	4642.7	
309.55	4587.4	
309.75	3549.8	
309.96	3220.1	
310.17	4979.3	
310.38	4446.1	
310.59	3350.5	
310.8	2811.2	
311.01	4556.7	
311.21	4610.7	
311.42	2883.5	
311.63	2908.8	
311.84	4528.7	
312.05	4732.2	
312.26	3215.3	
312.46	3470.6	
312.67	4534.2	
312.88	4309.6	
313.09	2803	
313.3	2827.6	
313.51	5216.2	
313.71	5456.5	
313.92	2867.8	
314.13	3012.6	
314.34	4784.7	
314.55	4637.3	
314.76	3506.8	
314.96	3123.2	
315.17	4851.6	
315.38	4880.3	
315.59	2880.1	
315.8	2793.4	
316.01	5201.2	
316.21	5298.8	
316.42	2812.5	
316.63	3116.3	
316.84	4567.7	
317.05	5113.8	
317.26	3280.8	
317.46	2984.6	
317.67	4650.9	
317.88	4936.3	
318.09	3523.2	
318.3	2668.5	
318.5	4559.5	
318.71	4849.6	
318.92	4376.5	
319.13	3248.8	
319.34	5015.5	
319.54	5078.3	
319.75	2680.8	
319.96	2592.7	
320.17	4882.4	
320.38	5010	
320.58	2619.4	
320.79	3084.2	
321	5081.7	
321.21	5154.1	
321.42	3149.1	
321.62	2639.8	
321.83	4399	
322.04	4668	
322.25	3020.1	
322.46	2889	
322.66	4682.3	
322.87	4893.3	
323.08	3444	
323.29	2780.5	
323.5	5414.1	
323.7	4337.6	
323.91	3717.1	
324.12	3396.9	
324.33	4819.6	
324.53	4900.1	
324.74	3292.5	
324.95	3401	
325.16	4299.4	
325.37	4541.7	
325.57	2848	
325.78	2924.5	
325.99	4781.3	
326.2	4288.4	
326.4	3960.8	
326.61	2668.5	
326.82	4553.3	
327.03	4740.4	
327.24	3910.3	
327.44	3656.3	
327.65	4853.7	
327.86	4074.1	
328.07	3272	
328.27	2770.9	
328.48	5200.5	
328.69	4351.9	
328.9	3876.1	
329.1	2980.5	
329.31	4600.4	
329.52	5229.1	
329.73	2865.8	
329.93	3115	
330.14	4695.3	
330.35	4809.3	
330.56	4405.2	
330.76	3403	
330.97	4543.8	
331.18	4724.7	
331.39	3150.5	
331.59	2598.2	
331.8	5085.8	
332.01	5156.1	
332.22	2974.3	
332.42	3240.6	
332.63	4724	
332.84	4400.4	
333.05	3179.1	
333.25	2923.1	
333.46	4489.1	
333.67	4681	
333.88	3018.7	
334.08	3198.9	
334.29	5862.7	
334.5	5045.5	
334.7	2814.6	
334.91	3778.5	
335.12	4289.8	
335.33	4885.1	
335.53	3123.8	
335.74	4362.9	
335.95	4582	
336.16	4353.3	
336.36	3090.4	
336.57	3533.4	
336.78	4320.5	
336.98	5042.1	
337.19	3759.4	
337.4	3033.7	
337.61	5461.9	
337.81	4289.8	
338.02	2912.2	
338.23	3541.6	
338.43	5249.6	
338.64	4424.3	
338.85	2866.5	
339.05	3632.4	
339.26	5273.5	
339.47	4265.9	
339.68	2856.2	
339.88	3979.2	
340.09	4876.9	
340.3	4966.3	
340.5	3309.5	
340.71	2608.4	
340.92	4350.6	
341.13	5155.4	
341.33	2751.8	
341.54	3270.6	
341.75	4810.7	
341.95	4507.6	
342.16	3168.2	
342.37	3435.1	
342.57	4301.4	
342.78	4574.5	
342.99	3486.3	
343.19	2624.1	
343.4	4977.9	
343.61	4881	
343.81	3024.2	
344.02	2819.4	
344.23	4943.1	
344.43	5186.1	
344.64	3431	
344.85	3413.3	
345.06	4898.1	
345.26	5072.1	
345.47	3281.5	
345.68	3688.4	
345.88	4233.8	
346.09	4984.8	
346.3	3310.2	
346.5	2553.8	
346.71	4619.5	
346.92	4447.5	
347.12	2721.8	
347.33	3237.2	
347.54	5043.5	
347.74	5281.7	
347.95	3196.2	
348.16	2554.5	
348.36	4528.1	
348.57	4291.9	
348.78	3278.8	
348.98	3448.8	
349.19	4597.7	
349.39	4233.8	
349.6	2699.2	
349.81	2918.4	
350.01	4829.8	
350.22	4450.2	
350.43	3151.1	
350.63	3678.2	
350.84	4682.3	
351.05	4452.3	
351.25	2894.5	
351.46	2676.7	
351.67	5020.3	
351.87	4413.4	
352.08	2995.5	
352.29	3444.7	
352.49	4950.6	
352.7	4991.6	
352.9	2759.3	
353.11	3386	
353.32	5438.7	
353.52	4534.9	
353.73	2758.6	
353.94	3437.9	
354.14	4825.7	
354.35	4663.9	
354.55	2913.6	
354.76	3130.7	
354.97	4803.9	
355.17	4603.2	
355.38	2761.3	
355.59	3609.2	
355.79	4381.3	
356	4601.8	
356.2	3106.1	
356.41	2774.3	
356.62	4199.7	
356.82	4592.2	
357.03	3312.2	
357.24	3022.8	
357.44	4432.5	
357.65	4495.3	
357.85	3818.8	
358.06	3173	
358.27	4184	
358.47	4343.1	
358.68	2666.5	
358.88	3280.2	
359.09	4816.1	
359.3	4999.8	
359.5	3768.9	
359.71	3361.4	
359.91	5251.7	
360.12	4811.4	
360.33	3325.9	
360.53	3602.4	
360.74	4405.2	
360.94	4431.1	
361.15	3446.7	
361.36	2861.7	
361.56	5008	
361.77	4573.1	
361.97	3740.3	
362.18	3050.8	
362.38	4928.1	
362.59	4277.5	
362.8	2861	
363	2768.9	
363.21	4145.8	
363.41	4610	
363.62	3175.7	
363.83	3834.5	
364.03	4797	
364.24	5309.7	
364.44	4007.2	
364.65	3915.7	
364.85	4576.5	
365.06	4329.4	
365.27	2981.2	
365.47	3033	
365.68	5221.6	
365.88	4539	
366.09	3246.7	
366.29	3020.1	
366.5	4601.1	
366.71	4977.2	
366.91	3905.5	
367.12	3332.7	
367.32	5440.1	
367.53	4880.3	
367.73	3391.4	
367.94	3979.9	
368.14	4913.1	
368.35	5468.8	
368.56	3347.1	
368.76	3160	
368.97	4999.1	
369.17	6029.9	
369.38	2927.2	
369.58	3142.3	
369.79	4228.4	
369.99	5186.8	
370.2	3866.6	
370.4	3237.2	
370.61	4709.6	
370.82	5612.8	
371.02	3192.8	
371.23	2766.1	
371.43	4270.7	
371.64	5177.3	
371.84	3205.8	
372.05	3925.3	
372.25	5950.7	
372.46	4803.9	
372.66	3102.7	
372.87	3130.7	
373.07	4842.1	
373.28	6100.2	
373.48	3848.1	
373.69	3603.1	
373.9	4606.6	
374.1	4587.4	
374.31	3790.1	
374.51	3424.2	
374.72	5169.8	
374.92	4354	
375.13	3890.5	
375.33	3336.1	
375.54	4827.7	
375.74	4446.1	
375.95	3420.8	
376.15	4220.2	
376.36	4871.4	
376.56	4767.7	
376.77	3414.6	
376.97	3723.2	
377.18	5657.2	
377.38	4930.8	
377.59	3934.1	
377.79	3084.9	
378	4794.3	
378.2	4986.1	
378.41	3174.4	
378.61	3102.7	
378.82	5159.5	
379.02	4555.4	
379.23	3206.4	
379.43	3873.4	
379.64	5223	
379.84	4893.3	
380.05	3130.7	
380.25	3112.9	
380.46	4937.7	
380.66	4646.2	
380.87	4027	
381.07	4296	
381.28	5418.2	
381.48	4907.6	
381.69	3125.2	
381.89	3209.2	
382.1	4295.3	
382.3	5098.1	
382.51	3876.8	
382.71	4515.8	
382.91	4941.7	
383.12	5327.4	
383.32	3432.4	
383.53	3591.5	
383.73	4786.1	
383.94	4767.7	
384.14	3525.9	
384.35	2945	
384.55	4626.4	
384.76	4968.4	
384.96	3429	
385.17	3645.4	
385.37	4980	
385.58	4442.7	
385.78	3652.9	
385.98	2846.7	
386.19	4610	
386.39	4965.6	
386.6	3213.9	
386.8	3372.3	
387.01	4948.6	
387.21	5020.3	
387.42	3610.6	
387.62	4048.8	
387.83	4585.4	
388.03	4840	
388.23	3470.6	
388.44	3953.9	
388.64	4297.3	
388.85	4369	
389.05	3597.6	
389.26	4007.2	
389.46	5776	
389.67	5281	
389.87	3670	
390.07	3671.3	
390.28	4648.2	
390.48	4465.3	
390.69	3136.1	
390.89	3387.3	
391.1	4638	
391.3	5165	
391.5	4100.7	
391.71	4557.4	
391.91	5033.9	
392.12	5560.9	
392.32	4225	
392.53	3660.4	
392.73	4691.2	
392.93	4809.3	
393.14	3502.7	
393.34	3967.6	
393.55	5120.6	
393.75	4703.5	
393.95	3531.4	
394.16	3345.7	
394.36	4638	
394.57	5106.3	
394.77	3160.7	
394.98	3377.1	
395.18	4543.1	
395.38	4630.5	
395.59	3964.9	
395.79	3262.4	
396	4709	
396.2	4932.9	
396.4	3848.1	
396.61	3740.3	
396.81	5038	
397.02	4602.5	
397.22	4017.4	
397.42	4061.8	
397.63	5147.9	
397.83	4546.5	
398.04	3249.4	
398.24	3601.7	
398.44	4937.7	
398.65	4250.2	
398.85	3146.4	
399.05	3220.1	
399.26	4605.9	
399.46	5708.4	
399.67	3512.3	
399.87	3271.3	
400.07	4782	
400.28	5049.6	
400.48	3323.2	
400.69	4025.6	
400.89	5138.4	
401.09	5536.3	
401.3	3325.9	
401.5	4091.2	
401.7	5560.2	
401.91	5835.3	
402.11	3597.6	
402.32	3667.9	
402.52	5266.7	
402.72	5216.2	
402.93	3919.8	
403.13	3132	
403.33	5805.3	
403.54	4919.2	
403.74	3665.9	
403.94	4287.1	
404.15	4951.3	
404.35	5680.4	
404.56	3508.9	
404.76	4722.6	
404.96	5186.8	
405.17	5067.4	
405.37	4280.9	
405.57	3870.7	
405.78	5220.3	
405.98	4844.8	
406.18	3492.5	
406.39	4091.8	
406.59	5251.7	
406.79	4897.4	
407	3302.7	
407.2	3491.1	
407.4	5501.5	
407.61	5412.8	
407.81	3419.4	
408.01	4752	
408.22	4472.1	
408.42	5760.3	
408.62	4124.6	
408.83	3746.4	
409.03	4942.4	
409.23	4853	
409.44	3833.1	
409.64	3969.6	
409.84	5655.1	
410.05	5525.4	
410.25	3975.8	
410.45	3806.5	
410.66	5188.2	
410.86	6849.8	
411.06	4096.6	
411.27	4023.6	
411.47	6688.7	
411.67	5274.2	
411.88	4118.5	
412.08	4279.6	
412.28	5742.5	
412.49	6024.4	
412.69	4033.1	
412.89	4031.8	
413.09	6001.2	
413.3	5970.5	
413.5	4121.9	
413.7	3904.1	
413.91	5394.3	
414.11	5971.2	
414.31	3965.6	
414.52	4250.9	
414.72	5739.1	
414.92	5667.4	
415.12	4024.3	
415.33	4413.4	
415.53	6005.3	
415.73	6120	
415.94	4629.8	
416.14	4204.5	
416.34	5360.9	
416.55	5153.4	
416.75	5094	
416.95	4706.2	
417.15	6029.2	
417.36	6559	
417.56	5218.2	
417.76	4498.7	
417.97	6212.9	
418.17	5956.9	
418.37	4336.9	
418.57	4342.4	
418.78	5903.6	
418.98	5696.1	
419.18	4918.5	
419.38	4856.4	
419.59	5686.5	
419.79	5470.8	
419.99	4261.8	
420.2	4472.8	
420.4	6036.7	
420.6	6113.2	
420.8	4182	
421.01	4120.5	
421.21	5959.6	
421.41	5969.1	
421.61	4431.1	
421.82	4275.5	
422.02	5768.4	
422.22	6298.9	
422.42	4827.7	
422.63	4575.2	
422.83	5684.5	
423.03	6522.8	
423.23	4629.1	
423.44	3897.3	
423.64	5732.3	
423.84	5537	
424.04	4274.8	
424.25	4017.4	
424.45	6400.6	
424.65	6313.2	
424.85	3894.6	
425.06	4300.1	
425.26	6517.3	
425.46	5703.6	
425.66	4635.2	
425.87	4382	
426.07	6172.6	
426.27	6014.2	
426.47	4461.8	
426.67	4036.5	
426.88	6499.6	
427.08	6019	
427.28	4676.9	
427.48	4046.1	
427.69	5323.4	
427.89	5738.4	
428.09	4640	
428.29	4031.1	
428.5	6203.3	
428.7	5935	
428.9	4004.5	
429.1	4325.3	
429.3	5935.7	
429.51	6113.9	
429.71	4245.4	
429.91	4759.5	
430.11	6088.6	
430.31	6319.3	
430.52	4462.5	
430.72	4653.7	
430.92	6546.7	
431.12	6084.5	
431.32	4227	
431.53	4478.2	
431.73	5427.8	
431.93	6543.9	
432.13	4134.8	
432.33	4056.3	
432.54	5776	
432.74	5896.1	
432.94	4040.6	
433.14	4791.6	
433.34	6186.9	
433.55	5819.6	
433.75	4719.2	
433.95	5892	
434.15	6075.6	
434.35	5723.4	
434.56	4193.6	
434.76	3932.8	
434.96	5980.8	
435.16	6072.2	
435.36	4064.5	
435.56	4878.3	
435.77	5739.8	
435.97	5805.3	
436.17	5342.5	
436.37	4871.4	
436.57	5744.6	
436.78	5734.3	
436.98	6102.9	
437.18	5301.5	
437.38	6178.7	
437.58	5838.1	
437.78	5369.1	
437.99	4451.6	
438.19	6296.1	
438.39	6823.1	
438.59	4420.9	
438.79	4130.8	
438.99	6709.1	
439.2	5899.5	
439.4	4184	
439.6	4115.7	
439.8	6012.8	
440	6837.5	
440.2	4815.5	
440.4	4839.4	
440.61	6470.2	
440.81	6685.9	
441.01	4293.9	
441.21	4902.8	
441.41	6768.5	
441.61	6373.3	
441.81	5142.4	
442.02	5844.9	
442.22	7064.1	
442.42	6571.2	
442.62	4444.1	
442.82	4470	
443.02	6801.3	
443.22	6130.9	
443.43	4775.2	
443.63	4379.9	
443.83	6023.1	
444.03	5942.5	
444.23	5175.9	
444.43	5000.5	
444.63	6324.8	
444.83	7040.2	
445.04	4599.1	
445.24	5394.3	
445.44	6591	
445.64	6582.9	
445.84	5111	
446.04	5200.5	
446.24	6120	
446.44	6850.5	
446.65	4519.2	
446.85	4779.3	
447.05	6204.7	
447.25	6842.3	
447.45	4973.8	
447.65	4430.4	
447.85	6374	
448.05	6037.4	
448.25	5102.2	
448.46	4962.2	
448.66	6417.7	
448.86	6104.3	
449.06	4478.9	
449.26	5128.1	
449.46	6565.1	
449.66	6030.6	
449.86	4872.1	
450.06	4792.9	
450.26	6141.2	
450.47	6497.5	
450.67	5005.2	
450.87	5206.6	
451.07	6716.7	
451.27	6342.6	
451.47	4576.5	
451.67	5137.7	
451.87	6258.6	
452.07	6907.8	
452.27	4767.7	
452.47	4725.3	
452.67	6468.2	
452.88	6791.1	
453.08	4374.5	
453.28	5707	
453.48	7291.5	
453.68	6337.8	
453.88	4730.8	
454.08	4794.3	
454.28	6684.6	
454.48	6414.9	
454.68	5244.2	
454.88	5474.2	
455.08	6776	
455.28	6496.8	
455.48	4653	
455.68	5133.6	
455.89	7206.1	
456.09	6849.1	
456.29	4922	
456.49	4962.9	
456.69	7030	
456.89	6410.8	
457.09	5242.8	
457.29	5511.8	
457.49	6754.9	
457.69	6819.1	
457.89	5277.6	
458.09	4715.8	
458.29	6653.2	
458.49	7128.3	
458.69	5474.9	
458.89	5085.8	
459.09	7326.9	
459.29	7443.7	
459.49	5184.8	
459.69	5739.8	
459.9	7075	
460.1	6688.7	
460.3	5193.6	
460.5	4935.6	
460.7	7071	
460.9	6750.8	
461.1	4769.7	
461.3	5614.8	
461.5	7499	
461.7	7166.5	
461.9	5089.9	
462.1	5366.4	
462.3	6920.1	
462.5	7308.5	
462.7	5171.1	
462.9	5184.8	
463.1	7939.3	
463.3	7824.6	
463.5	5394.3	
463.7	6060.6	
463.9	7075.7	
464.1	7410.2	
464.3	5500.2	
464.5	5650.3	
464.7	7593.2	
464.9	7427.3	
465.1	6584.2	
465.3	5984.8	
465.5	7719.5	
465.7	7873.8	
465.9	6251.8	
466.1	5919.3	
466.3	7628.7	
466.5	7563.1	
466.7	6610.2	
466.9	5903.6	
467.1	7740.6	
467.3	8207.6	
467.5	6718	
467.7	5884.5	
467.9	8428.8	
468.1	8948.9	
468.3	6328.2	
468.5	6716.7	
468.7	7655.3	
468.9	7619.1	
469.1	6127.5	
469.3	6618.4	
469.5	9025.4	
469.7	7384.3	
469.9	6430.6	
470.1	6053.8	
470.3	7788.4	
470.5	7720.8	
470.7	6864.1	
470.9	6124.8	
471.1	7595.9	
471.3	7817.8	
471.5	6009.4	
471.69	7291.5	
471.89	7578.2	
472.09	7082.6	
472.29	6494.8	
472.49	6726.9	
472.69	7374.7	
472.89	7843.7	
473.09	5943.2	
473.29	5984.2	
473.49	7499	
473.69	7499.7	
473.89	6639.5	
474.09	6188.3	
474.29	8464.9	
474.49	8114.7	
474.69	6680.5	
474.89	6236.1	
475.09	7516	
475.29	7515.4	
475.49	5745.9	
475.69	6059.9	
475.88	8688.8	
476.08	7834.2	
476.28	5765	
476.48	6041.5	
476.68	8185.7	
476.88	7918.8	
477.08	6019.7	
477.28	6208.8	
477.48	7669.6	
477.68	7950.9	
477.88	5775.3	
478.08	5954.8	
478.28	8268.3	
478.48	7596.6	
478.67	6102.3	
478.87	5644.9	
479.07	8140.7	
479.27	7724.3	
479.47	6225.8	
479.67	6257.9	
479.87	8017.1	
480.07	8366	
480.27	5839.4	
480.47	6820.4	
480.67	7699	
480.87	8292.2	
481.06	5914.5	
481.26	6574.7	
481.46	7811	
481.66	7681.2	
481.86	6374	
482.06	6921.5	
482.26	7571.3	
482.46	8409.6	
482.66	6287.3	
482.86	6040.8	
483.05	7998	
483.25	7387	
483.45	8004.8	
483.65	6247	
483.85	7456.7	
484.05	7755.7	
484.25	6665.5	
484.45	6932.4	
484.65	8314.8	
484.84	8400.1	
485.04	6227.9	
485.24	6271.6	
485.44	8694.3	
485.64	7425.9	
485.84	5858.6	
486.04	6724.2	
486.24	7731.1	
486.44	8026	
486.63	5827.8	
486.83	6373.3	
487.03	7750.9	
487.23	7847.1	
487.43	5876.3	
487.63	7559.1	
487.83	7997.3	
488.02	8519.6	
488.22	6635.4	
488.42	7006.8	
488.62	8568.7	
488.82	7756.3	
489.02	6370.5	
489.22	6451.8	
489.41	8473.1	
489.61	8277.2	
489.81	6220.4	
490.01	6308.4	
490.21	8495	
490.41	8969.4	
490.61	6315.3	
490.8	6447.7	
491	8208.9	
491.2	7685.3	
491.4	6795.2	
491.6	6303	
491.8	8157.7	
491.99	8197.3	
492.19	6094.1	
492.39	6291.4	
492.59	8518.2	
492.79	8518.2	
492.99	6830.7	
493.18	6236.7	
493.38	8617.2	
493.58	9105.3	
493.78	6789.7	
493.98	6378.7	
494.18	8398	
494.37	8061.5	
494.57	6990.4	
494.77	6913.9	
494.97	8566	
495.17	8843.8	
495.37	6637.5	
495.56	6898.9	
495.76	8934.6	
495.96	8795.3	
496.16	7692.9	
496.36	6974	
496.55	8985.8	
496.75	8642.4	
496.95	7221.1	
497.15	7131	
497.35	8948.9	
497.54	9012.4	
497.74	7059.3	
497.94	8262.2	
498.14	9487.6	
498.34	9298.5	
498.53	6823.1	
498.73	7406.8	
498.93	8475.9	
499.13	9013.8	
499.33	7336.5	
499.52	7537.9	
499.72	9164.7	
499.92	9209.7	
500.12	7123.5	
500.32	7283.9	
500.51	9286.2	
500.71	9000.1	
500.91	7844.4	
501.11	7628.7	
501.31	9235.7	
501.5	9584.5	
501.7	8217.8	
501.9	7427.3	
502.1	9068.4	
502.29	9351.7	
502.49	7811	
502.69	8105.2	
502.89	9271.8	
503.09	9316.2	
503.28	7083.9	
503.48	7167.9	
503.68	8763.3	
503.88	8789.2	
504.07	7797.3	
504.27	7430	
504.47	9095.7	
504.67	9082.7	
504.86	7636.9	
505.06	7498.3	
505.26	8924.4	
505.46	10054	
505.65	7458.7	
505.85	7690.1	
506.05	8792.6	
506.25	9192.6	
506.44	6993.8	
506.64	7595.9	
506.84	8644.5	
507.04	9251.4	
507.23	7105.1	
507.43	7550.2	
507.63	10033	
507.83	8789.9	
508.02	7453.9	
508.22	7194.5	
508.42	10292	
508.62	8636.3	
508.81	7415.7	
509.01	7797.3	
509.21	8595.3	
509.4	8888.9	
509.6	7492.8	
509.8	7089.4	
510	8694.3	
510.19	9696.4	
510.39	7004.7	
510.59	7136.5	
510.79	8718.2	
510.98	9655.5	
511.18	7305.8	
511.38	7317.4	
511.57	9349	
511.77	9159.2	
511.97	7753.6	
512.17	7160.4	
512.36	9272.5	
512.56	9170.1	
512.76	7157.7	
512.95	6938.5	
513.15	9400.9	
513.35	8426	
513.55	7718.1	
513.74	7139.2	
513.94	9319.6	
514.14	8879.3	
514.33	7819.8	
514.53	7727	
514.73	8891.6	
514.92	9010.4	
515.12	7313.3	
515.32	7131.7	
515.51	9203.6	
515.71	9286.9	
515.91	8525	
516.11	7234.8	
516.3	10239	
516.5	8880	
516.7	7637.6	
516.89	8144.1	
517.09	9069.8	
517.29	8971.5	
517.48	7923.6	
517.68	7478.5	
517.88	8751.7	
518.07	9229.5	
518.27	7838.3	
518.47	7224.6	
518.66	9640.5	
518.86	8744.1	
519.06	7119.4	
519.25	7408.9	
519.45	8877.9	
519.65	9956.5	
519.84	7880.6	
520.04	8330.5	
520.24	10357	
520.43	9397.4	
520.63	7802.8	
520.83	7609.6	
521.02	8998.8	
521.22	9489.6	
521.42	7890.8	
521.61	8361.9	
521.81	9124.4	
522.01	9252.7	
522.2	7875.1	
522.4	7643	
522.6	9501.9	
522.79	8629.5	
522.99	7660.1	
523.18	7283.3	
523.38	9366	
523.58	9433.6	
523.77	8591.2	
523.97	7305.8	
524.17	10664	
524.36	10278	
524.56	8394.6	
524.76	8206.2	
524.95	9617.9	
525.15	9339.4	
525.34	8069	
525.54	8230.8	
525.74	10015	
525.93	9310.7	
526.13	9142.8	
526.33	8327	
526.52	10365	
526.72	9910.1	
526.91	9239.8	
527.11	8730.5	
527.31	10389	
527.5	10656	
527.7	8615.8	
527.89	8017.1	
528.09	9691.7	
528.29	10127	
528.48	8949.6	
528.68	8614.4	
528.87	10456	
529.07	10499	
529.27	8779.6	
529.46	8636.3	
529.66	10454	
529.85	10607	
530.05	8421.9	
530.25	8951.7	
530.44	11396	
530.64	10324	
530.83	8839.7	
531.03	8903.2	
531.23	10836	
531.42	10522	
531.62	9409.7	
531.81	8817.2	
532.01	10864	
532.21	11057	
532.4	8835.6	
532.6	9086.8	
532.79	11455	
532.99	11017	
533.18	9215.2	
533.38	9972.2	
533.58	10770	
533.77	11288	
533.97	9340.1	
534.16	9837.1	
534.36	11513	
534.55	10786	
534.75	10076	
534.95	9468.4	
535.14	11599	
535.34	10975	
535.53	9228.8	
535.73	10611	
535.92	11970	
536.12	11110	
536.31	9401.5	
536.51	10210	
536.71	11321	
536.9	11150	
537.1	9399.5	
537.29	9618.6	
537.49	11658	
537.68	10983	
537.88	9812.5	
538.07	9280.7	
538.27	11102	
538.46	11936	
538.66	9174.2	
538.86	9606.3	
539.05	11193	
539.25	11619	
539.44	9904.7	
539.64	9495.1	
539.83	11167	
540.03	11927	
540.22	9545.6	
540.42	9540.1	
540.61	11320	
540.81	11475	
541	9817.3	
541.2	10325	
541.39	10918	
541.59	11217	
541.78	10201	
541.98	9436.4	
542.18	10729	
542.37	10809	
542.57	9734	
542.76	10183	
542.96	10890	
543.15	11192	
543.35	9780.4	
543.54	9265.7	
543.74	11442	
543.93	11119	
544.13	9688.3	
544.32	10339	
544.52	11405	
544.71	10766	
544.91	8999.5	
545.1	9800.9	
545.3	10908	
545.49	11217	
545.69	8876.6	
545.88	9306.7	
546.08	11965	
546.27	11525	
546.47	9741.5	
546.66	9105.3	
546.86	11399	
547.05	11758	
547.24	9334	
547.44	9320.3	
547.63	10648	
547.83	11482	
548.02	9493.7	
548.22	9599.5	
548.41	10529	
548.61	11458	
548.8	9218.6	
549	9138	
549.19	11019	
549.39	11257	
549.58	8927.8	
549.78	9424.8	
549.97	11267	
550.17	10789	
550.36	9992	
550.55	10632	
550.75	10796	
550.94	11400	
551.14	9178.3	
551.33	9283.4	
551.53	10411	
551.72	11056	
551.92	9363.3	
552.11	9181.7	
552.31	11202	
552.5	10984	
552.69	10258	
552.89	8962.6	
553.08	11076	
553.28	10776	
553.47	9197.4	
553.67	9938.1	
553.86	11476	
554.06	10167	
554.25	8591.9	
554.44	8992.6	
554.64	11937	
554.83	11651	
555.03	8996.7	
555.22	9166.7	
555.42	11262	
555.61	11025	
555.8	9041.8	
556	9226.1	
556.19	10385	
556.39	11109	
556.58	9130.5	
556.78	9139.4	
556.97	10903	
557.16	10452	
557.36	10033	
557.55	8798.8	
557.75	10163	
557.94	11504	
558.13	8905.3	
558.33	8829.5	
558.52	11308	
558.72	10305	
558.91	8877.9	
559.1	8942.8	
559.3	10337	
559.49	9931.3	
559.69	8634.2	
559.88	9144.9	
560.07	10718	
560.27	11107	
560.46	9295.7	
560.66	9355.1	
560.85	10684	
561.04	10027	
561.24	8715.5	
561.43	8878.6	
561.63	10253	
561.82	10509	
562.01	9690.3	
562.21	9052	
562.4	10661	
562.59	11365	
562.79	8940.7	
562.98	8654	
563.18	10674	
563.37	11550	
563.56	9321	
563.76	8772.1	
563.95	10348	
564.14	10206	
564.34	9162.6	
564.53	8845.2	
564.73	10741	
564.92	10891	
565.11	9142.1	
565.31	8734.6	
565.5	11030	
565.69	10322	
565.89	8885.5	
566.08	9099.8	
566.27	11019	
566.47	11256	
566.66	9606.3	
566.85	8715.5	
567.05	10875	
567.24	10396	
567.44	8755.7	
567.63	9870.5	
567.82	11117	
568.02	10761	
568.21	8875.9	
568.4	9153.7	
568.6	10735	
568.79	10654	
568.98	8868.4	
569.18	8882	
569.37	10781	
569.56	12011	
569.76	9220.6	
569.95	9809.1	
570.14	10983	
570.34	10818	
570.53	8944.2	
570.72	8872.5	
570.91	11380	
571.11	10745	
571.3	9224.7	
571.49	9842.5	
571.69	10766	
571.88	10391	
572.07	9518.3	
572.27	9518.3	
572.46	10457	
572.65	11062	
572.85	9092.3	
573.04	9320.3	
573.23	11374	
573.43	10867	
573.62	8879.3	
573.81	9361.9	
574	10929	
574.2	10596	
574.39	9139.4	
574.58	9233.6	
574.78	11601	
574.97	11087	
575.16	9529.9	
575.36	9772.2	
575.55	11381	
575.74	11448	
575.93	8961.2	
576.13	9788.6	
576.32	10852	
576.51	11255	
576.71	9316.2	
576.9	10182	
577.09	11602	
577.28	11060	
577.48	9637.1	
577.67	8952.4	
577.86	10972	
578.05	11235	
578.25	9396.1	
578.44	9503.9	
578.63	10934	
578.83	11918	
579.02	9056.8	
579.21	10199	
579.4	11152	
579.6	10952	
579.79	9562.6	
579.98	11086	
580.17	11349	
580.37	11557	
580.56	9220.6	
580.75	9717.6	
580.94	11668	
581.14	11696	
581.33	10021	
581.52	9264.3	
581.71	11184	
581.91	11759	
582.1	9206.3	
582.29	9443.9	
582.48	11046	
582.68	11011	
582.87	9799.5	
583.06	9592.7	
583.25	11408	
583.45	10844	
583.64	10064	
583.83	10503	
584.02	11161	
584.21	11339	
584.41	9960.6	
584.6	9590.6	
584.79	11169	
584.98	11660	
585.18	9262.3	
585.37	9168.8	
585.56	10905	
585.75	11464	
585.94	9349	
586.14	9775	
586.33	11706	
586.52	11021	
586.71	9655.5	
586.91	9446.6	
587.1	10555	
587.29	11357	
587.48	9235	
587.67	9308	
587.87	11180	
588.06	11156	
588.25	10132	
588.44	9642.5	
588.63	10805	
588.83	11288	
589.02	9338.1	
589.21	9019.3	
589.4	10734	
589.59	10662	
589.78	8548.2	
589.98	8736.6	
590.17	10197	
590.36	10513	
590.55	8174.1	
590.74	8714.8	
590.94	11209	
591.13	10254	
591.32	8411.7	
591.51	8080.6	
591.7	10521	
591.89	10091	
592.09	8132.5	
592.28	8523.6	
592.47	9694.4	
592.66	11066	
592.85	8215.1	
593.05	8430.1	
593.24	10162	
593.43	10690	
593.62	8525.7	
593.81	8798.1	
594	10165	
594.19	10234	
594.39	8435.6	
594.58	8321.6	
594.77	10390	
594.96	10797	
595.15	8260.8	
595.34	8759.2	
595.54	10294	
595.73	9712.2	
595.92	7894.2	
596.11	8626.7	
596.3	10738	
596.49	9777	
596.68	8424	
596.88	8738	
597.07	10354	
597.26	9669.1	
597.45	8089.5	
597.64	8789.2	
597.83	9822.1	
598.02	10258	
598.22	8113.4	
598.41	8686.1	
598.6	10200	
598.79	9626.8	
598.98	8137.9	
599.17	8798.8	
599.36	10099	
599.55	10828	
599.74	9603.6	
599.94	9298.5	
600.13	10503	
600.32	9676	
600.51	7897	
600.7	8041.7	
600.89	10904	
601.08	10813	
601.27	7942.7	
601.47	8587.1	
601.66	10355	
601.85	10714	
602.04	8446.5	
602.23	8374.8	
602.42	9688.3	
602.61	10144	
602.8	8243.8	
602.99	8121.6	
603.18	9983.8	
603.37	10085	
603.57	8510.7	
603.76	8953	
603.95	10647	
604.14	10217	
604.33	8073.8	
604.52	8378.2	
604.71	9964.7	
604.9	9716.2	
605.09	8817.9	
605.28	8666.3	
605.47	10565	
605.66	10168	
605.86	8609.7	
606.05	8204.8	
606.24	10492	
606.43	9355.1	
606.62	8430.8	
606.81	8932.6	
607	10384	
607.19	9932	
607.38	7950.2	
607.57	8088.1	
607.76	9779.1	
607.95	9310.7	
608.14	8583.7	
608.33	8752.3	
608.52	9581.8	
608.72	10303	
608.91	7927.7	
609.1	7844.4	
609.29	9718.3	
609.48	9344.9	
609.67	8485.4	
609.86	7855.3	
610.05	9448	
610.24	9562.6	
610.43	7746.8	
610.62	7490.1	
610.81	10442	
611	10294	
611.19	7867.6	
611.38	8289.5	
611.57	9956.5	
611.76	10634	
611.95	7726.3	
612.14	7591.1	
612.33	9706	
612.52	9418.6	
612.71	8029.4	
612.9	7523.6	
613.09	9090.3	
613.28	10763	
613.47	7936.6	
613.66	8565.3	
613.85	9793.4	
614.04	9418.6	
614.24	7845.1	
614.43	7308.5	
614.62	9893.7	
614.81	9852.1	
615	8228.1	
615.19	8224	
615.38	9286.2	
615.57	9638.4	
615.76	8230.1	
615.95	8911.4	
616.14	9925.1	
616.33	9576.3	
616.52	8484.7	
616.71	8505.2	
616.9	9974.3	
617.09	9748.3	
617.28	7985.7	
617.47	8727.8	
617.66	9226.8	
617.85	9277.3	
618.04	8585.8	
618.22	8300.4	
618.41	9485.5	
618.6	10228	
618.79	8195.3	
618.98	8129.8	
619.17	10464	
619.36	9248.6	
619.55	8150.9	
619.74	8267	
619.93	9974.3	
620.12	9604.3	
620.31	8565.3	
620.5	8640.4	
620.69	10299	
620.88	10672	
621.07	9310.1	
621.26	8667	
621.45	10170	
621.64	10123	
621.83	8699.8	
622.02	8144.1	
622.21	10228	
622.4	10134	
622.59	9153.1	
622.78	9026.8	
622.97	9800.9	
623.16	10550	
623.35	8794.7	
623.54	8054	
623.72	9929.2	
623.91	10068	
624.1	8871.8	
624.29	8040.3	
624.48	10868	
624.67	10368	
624.86	8878.6	
625.05	8193.2	
625.24	11011	
625.43	9928.6	
625.62	10011	
625.81	8348.2	
626	10443	
626.19	10036	
626.38	8946.2	
626.56	8467.7	
626.75	9964.1	
626.94	10519	
627.13	8905.3	
627.32	8104.5	
627.51	10419	
627.7	11204	
627.89	8192.6	
628.08	8924.4	
628.27	9851.4	
628.46	9987.9	
628.65	8368	
628.83	8069.7	
629.02	10436	
629.21	9822.1	
629.4	8603.5	
629.59	8649.9	
629.78	9848	
629.97	10462	
630.16	8782.4	
630.35	8518.9	
630.54	10913	
630.72	10516	
630.91	8443.8	
631.1	8807.6	
631.29	10155	
631.48	10311	
631.67	8908.7	
631.86	8495	
632.05	10137	
632.24	10019	
632.42	8176.9	
632.61	8588.5	
632.8	9914.2	
632.99	9775	
633.18	8786.5	
633.37	8847.9	
633.56	10286	
633.75	10092	
633.93	8706.6	
634.12	8497.7	
634.31	10860	
634.5	10515	
634.69	8542.8	
634.88	8831.5	
635.07	10135	
635.25	10527	
635.44	9198.8	
635.63	9354.4	
635.82	10056	
636.01	9512.8	
636.2	9036.3	
636.39	8775.5	
636.57	10808	
636.76	10479	
636.95	8387.1	
637.14	9199.5	
637.33	10294	
637.52	10839	
637.7	8225.3	
637.89	8913.4	
638.08	10015	
638.27	10945	
638.46	8869.8	
638.65	9176.9	
638.83	10906	
639.02	9800.2	
639.21	8850	
639.4	9144.2	
639.59	10136	
639.78	9867.8	
639.96	8173.4	
640.15	8239	
640.34	10068	
640.53	10049	
640.72	8168.7	
640.91	8260.1	
641.09	9565.4	
641.28	10479	
641.47	8379.6	
641.66	8815.1	
641.85	10121	
642.03	10118	
642.22	8654	
642.41	8366.6	
642.6	9731.3	
642.79	9198.8	
642.97	8119.5	
643.16	8659.5	
643.35	9576.3	
643.54	9327.1	
643.73	8062.9	
643.91	8630.8	
644.1	9275.9	
644.29	9806.4	
644.48	7999.4	
644.67	8092.9	
644.85	9351	
645.04	9615.9	
645.23	7767.3	
645.42	7944.1	
645.6	9191.3	
645.79	10004	
645.98	7827.3	
646.17	7112.6	
646.36	8995.4	
646.54	9377	
646.73	8225.3	
646.92	7530.4	
647.11	9111.4	
647.29	9732.6	
647.48	7571.3	
647.67	7347.4	
647.86	9927.2	
648.05	9876	
648.23	7761.8	
648.42	8547.5	
648.61	9447.3	
648.8	9331.2	
648.98	7431.4	
649.17	7691.5	
649.36	8871.8	
649.55	8589.9	
649.73	7422.5	
649.92	7929.1	
650.11	8882	
650.3	9090.3	
650.48	7552.2	
650.67	7418.4	
650.86	9313.5	
651.05	8539.3	
651.23	7498.3	
651.42	7393.8	
651.61	8867	
651.79	8836.3	
651.98	7625.3	
652.17	7253.9	
652.36	9088.9	
652.54	8499.1	
652.73	7238.2	
652.92	7329.7	
653.11	9116.9	
653.29	9327.1	
653.48	6886.6	
653.67	7473	
653.85	8996	
654.04	9807	
654.23	7623.9	
654.42	7380.9	
654.6	8604.2	
654.79	9093	
654.98	6933.7	
655.16	7224.6	
655.35	8205.5	
655.54	8075.8	
655.73	6788.3	
655.91	6737.8	
656.1	8767.4	
656.29	7925.6	
656.47	6385.6	
656.66	7464.2	
656.85	8217.1	
657.03	8266.3	
657.22	6939.2	
657.41	6972.7	
657.59	8351.6	
657.78	8284.7	
657.97	6646.3	
658.16	7167.2	
658.34	8960.5	
658.53	9184.5	
658.72	7800	
658.9	8183.7	
659.09	8619.9	
659.28	8632.2	
659.46	7091.4	
659.65	6931.7	
659.84	8266.3	
660.02	8866.3	
660.21	7124.9	
660.4	6935.1	
660.58	9115.5	
660.77	8633.6	
660.96	7395.2	
661.14	6763.1	
661.33	9456.8	
661.52	9367.4	
661.7	6699.6	
661.89	9080	
662.08	8346.2	
662.26	8077.9	
662.45	6909.8	
662.64	6968.6	
662.82	8908	
663.01	8334.6	
663.2	6891.4	
663.38	7379.5	
663.57	8730.5	
663.75	8616.5	
663.94	7109.9	
664.13	7949.5	
664.31	8377.6	
664.5	8747.6	
664.69	7384.3	
664.87	7682.6	
665.06	8172.1	
665.25	8641.1	
665.43	7873.8	
665.62	7850.5	
665.8	8771.5	
665.99	8317.5	
666.18	7069.6	
666.36	7193.8	
666.55	8764.6	
666.74	8748.9	
666.92	6847.7	
667.11	8030.1	
667.29	8424	
667.48	8754.4	
667.67	7675.1	
667.85	6959	
668.04	8308.6	
668.22	8309.3	
668.41	7101	
668.6	7309.2	
668.78	8209.6	
668.97	8314.8	
669.15	7415	
669.34	6628.6	
669.53	8248.5	
669.71	8497.7	
669.9	6800.6	
670.08	7215.7	
670.27	8169.3	
670.46	8659.5	
670.64	7263.5	
670.83	7505.1	
671.01	8070.4	
671.2	8414.4	
671.38	6852.5	
671.57	6703.7	
671.76	8987.2	
671.94	9353.1	
672.13	6704.4	
672.31	7441.6	
672.5	8738	
672.69	8184.4	
672.87	6814.3	
673.06	7055.9	
673.24	8591.2	
673.43	8290.2	
673.61	7322.9	
673.8	7026.6	
673.98	8637.6	
674.17	8740	
674.36	7468.3	
674.54	7327.6	
674.73	8402.1	
674.91	8742.8	
675.1	7101	
675.28	6777.4	
675.47	8357.8	
675.65	8852	
675.84	7037.5	
676.03	7245	
676.21	8246.5	
676.4	7814.4	
676.58	7515.4	
676.77	7350.2	
676.95	9248.6	
677.14	8181.6	
677.32	6782.2	
677.51	6630.6	
677.69	8742.1	
677.88	8009.6	
678.06	6775.4	
678.25	6807.4	
678.44	8381.7	
678.62	8228.7	
678.81	6642.2	
678.99	7262.8	
679.18	8959.2	
679.36	8695.7	
679.55	7040.2	
679.73	7466.2	
679.92	8651.3	
680.1	8388.5	
680.29	7798.7	
680.47	7009.5	
680.66	8244.4	
680.84	8846.5	
681.03	6601.3	
681.21	7353.6	
681.4	8258.8	
681.58	8114.1	
681.77	6861.4	
681.95	6894.8	
682.14	8794.7	
682.32	9074.5	
682.51	7462.1	
682.69	6647	
682.88	8144.1	
683.06	8467.7	
683.25	7175.4	
683.43	7572	
683.62	8488.1	
683.8	8679.3	
683.99	7644.4	
684.17	7148.8	
684.36	9202.9	
684.54	8357.1	
684.73	6622.4	
684.91	6737.1	
685.1	8492.2	
685.28	8041.7	
685.46	6967.9	
685.65	7009.5	
685.83	8499.1	
686.02	7944.1	
686.2	6423.8	
686.39	6470.2	
686.57	7787.7	
686.76	8774.9	
686.94	6546.7	
687.13	6642.9	
687.31	8236.2	
687.5	8014.4	
687.68	6201.9	
687.86	6972.7	
688.05	9344.2	
688.23	7647.8	
688.42	7161.1	
688.6	6649.8	
688.79	7992.5	
688.97	7946.1	
689.16	6905.1	
689.34	6208.8	
689.52	8640.4	
689.71	8738.7	
689.89	7311.9	
690.08	6789.7	
690.26	8492.2	
690.45	8314.1	
690.63	7363.1	
690.81	6952.9	
691	8329.1	
691.18	8194.6	
691.37	7078.5	
691.55	8621.3	
691.74	8125	
691.92	9621.4	
692.1	7077.1	
692.29	6650.4	
692.47	8256.7	
692.66	7865.6	
692.84	6761	
693.02	7200	
693.21	7909.3	
693.39	8319.5	
693.58	7318.1	
693.76	6920.8	
693.94	9136.7	
694.13	9072.5	
694.31	6986.3	
694.5	7699	
694.68	8264.2	
694.86	8594	
695.05	7309.9	
695.23	7424.6	
695.42	9012.4	
695.6	10614	
695.78	7757	
695.97	7277.8	
696.15	9004.2	
696.34	8628.1	
696.52	7238.2	
696.7	7734.5	
696.89	8901.2	
697.07	8439	
697.25	7600.7	
697.44	8638.3	
697.62	8902.5	
697.81	9034.3	
697.99	7393.8	
698.17	7827.3	
698.36	8501.8	
698.54	8936	
698.72	7714.7	
698.91	6863.4	
699.09	8713.4	
699.28	8501.1	
699.46	7445.7	
699.64	7198.6	
699.83	8576.2	
700.01	9320.3	
700.19	7907.9	
700.38	6888	
700.56	9296.4	
700.74	8713.4	
700.93	7023.9	
701.11	7828.7	
701.29	8954.4	
701.48	9809.1	
701.66	7363.8	
701.84	7456.7	
702.03	8976.2	
702.21	9429.5	
702.39	7254.6	
702.58	7649.8	
702.76	9235	
702.94	9258.9	
703.13	7179.5	
703.31	8925	
703.49	8852.7	
703.68	9542.9	
703.86	7462.8	
704.04	8028.7	
704.23	9144.2	
704.41	9403.6	
704.59	7576.8	
704.78	8284	
704.96	10297	
705.14	9426.1	
705.33	7378.8	
705.51	7989.1	
705.69	8970.1	
705.87	9665.7	
706.06	8151.6	
706.24	7454.6	
706.42	9251.4	
706.61	9513.5	
706.79	8277.9	
706.97	7401.4	
707.16	8874.5	
707.34	9336	
707.52	8134.5	
707.7	7604.8	
707.89	8998.1	
708.07	8800.1	
708.25	8264.9	
708.44	8412.4	
708.62	8948.3	
708.8	9768.8	
708.98	8509.3	
709.17	7761.8	
709.35	9363.3	
709.53	9226.1	
709.72	7506.5	
709.9	7617.1	
710.08	9619.3	
710.26	9602.2	
710.45	8540	
710.63	7791.2	
710.81	9206.3	
710.99	9185.8	
711.18	8127.7	
711.36	7770.7	
711.54	9060.2	
711.72	9626.1	
711.91	7862.2	
712.09	7496.9	
712.27	9181.7	
712.45	9565.4	
712.64	7877.2	
712.82	7199.3	
713	8628.1	
713.18	8757.8	
713.37	7232.7	
713.55	8016.4	
713.73	9328.5	
713.91	8329.1	
714.1	7298.3	
714.28	6935.8	
714.46	8768	
714.64	8120.9	
714.83	6285.2	
715.01	6704.4	
715.19	8004.8	
715.37	7307.8	
715.55	6238.8	
715.74	6465.4	
715.92	8364.6	
716.1	6939.2	
716.28	7126.9	
716.47	6432	
716.65	7500.3	
716.83	7440.3	
717.01	6302.3	
717.19	6239.5	
717.38	8833.6	
717.56	7184.3	
717.74	6498.2	
717.92	5895.4	
718.1	8112	
718.29	7516.7	
718.47	5738.4	
718.65	6184.9	
718.83	8219.9	
719.01	8230.8	
719.2	5920.7	
719.38	6840.2	
719.56	8137.9	
719.74	9316.9	
719.92	6557.6	
720.11	7258	
720.29	8292.2	
720.47	7531.1	
720.65	6114.6	
720.83	6604	
721.02	7600.7	
721.2	7466.2	
721.38	6468.2	
721.56	5958.2	
721.74	6959	
721.92	6997.9	
722.11	6775.4	
722.29	6531.7	
722.47	7964.6	
722.65	7402	
722.83	5934.3	
723.01	6558.3	
723.2	7434.8	
723.38	7671	
723.56	5513.1	
723.74	6312.5	
723.92	7032.7	
724.1	7856	
724.29	5959.6	
724.47	6577.4	
724.65	7229.3	
724.83	7055.9	
725.01	5735	
725.19	6357.6	
725.37	7016.3	
725.56	7023.9	
725.74	5705.6	
725.92	5877.7	
726.1	7060.7	
726.28	7354.9	
726.46	6141.2	
726.64	5919.3	
726.83	7249.8	
727.01	7363.1	
727.19	5720	
727.37	6198.5	
727.55	7472.4	
727.73	7703.8	
727.91	5646.2	
728.09	5537	
728.28	7739.3	
728.46	7810.3	
728.64	6262	
728.82	6195.8	
729	8485.4	
729.18	7944.8	
729.36	5776.6	
729.54	7342.7	
729.72	8779.6	
729.91	7549.5	
730.09	7270.3	
730.27	6412.9	
730.45	7669	
730.63	8084	
730.81	6867.5	
730.99	6221	
731.17	8469.7	
731.35	7486.7	
731.53	6547.4	
731.71	6307.7	
731.9	8181	
732.08	8346.2	
732.26	6384.9	
732.44	6165.8	
732.62	8219.9	
732.8	8006.9	
732.98	6669.6	
733.16	6019.7	
733.34	7833.5	
733.52	6945.3	
733.7	6263.4	
733.88	6402.6	
734.07	7735.9	
734.25	7629.4	
734.43	6008.7	
734.61	6941.2	
734.79	8663.6	
734.97	7539.9	
735.15	5967.1	
735.33	6226.5	
735.51	7701	
735.69	7474.4	
735.87	6894.8	
736.05	6267.5	
736.23	7557.7	
736.41	7393.8	
736.59	6161	
736.77	6308.4	
736.95	7836.2	
737.13	7366.5	
737.32	5924.8	
737.5	6122.7	
737.68	8262.9	
737.86	7314	
738.04	5802.6	
738.22	7072.3	
738.4	7278.5	
738.58	7398.6	
738.76	6152.8	
738.94	5357.5	
739.12	7258.7	
739.3	7172.7	
739.48	6550.8	
739.66	6260.6	
739.84	7368.6	
740.02	7480.5	
740.2	5560.9	
740.38	5668.1	
740.56	7692.2	
740.74	6775.4	
740.92	6191	
741.1	5973.2	
741.28	7197.2	
741.46	6960.4	
741.64	5677.7	
741.82	6110.5	
742	7151.5	
742.18	7102.4	
742.36	5840.1	
742.54	5640.1	
742.72	7610.9	
742.9	6537.8	
743.08	6063.4	
743.26	5211.4	
743.44	7466.9	
743.62	7421.2	
743.8	6255.9	
743.98	5461.9	
744.16	7250.5	
744.34	6931	
744.52	6010.8	
744.7	6038.1	
744.88	7301	
745.06	6887.3	
745.24	5974.6	
745.42	6030.6	
745.6	7333.8	
745.78	7081.9	
745.96	5119.2	
746.14	5353.4	
746.32	7757.7	
746.5	7144.7	
746.68	5667.4	
746.86	5243.5	
747.03	7421.8	
747.21	6283.9	
747.39	5661.3	
747.57	5229.8	
747.75	6738.5	
747.93	7111.2	
748.11	5186.1	
748.29	5073.5	
748.47	8030.1	
748.65	6643.6	
748.83	5678.3	
749.01	5543.2	
749.19	6948.8	
749.37	6339.1	
749.55	5404.6	
749.73	5459.2	
749.91	6860.7	
750.09	6526.2	
750.26	5425.1	
750.44	4938.3	
750.62	6701.6	
750.8	6550.8	
750.98	4922.6	
751.16	5091.9	
751.34	6755.6	
751.52	6228.6	
751.7	5700.9	
751.88	4845.5	
752.06	7084.6	
752.24	6745.3	
752.42	4747.2	
752.59	5106.3	
752.77	6581.5	
752.95	7451.2	
753.13	5597.1	
753.31	5113.1	
753.49	6302.3	
753.67	6649.1	
753.85	5251	
754.03	4986.8	
754.21	6689.3	
754.38	6985.6	
754.56	5029.8	
754.74	4265.2	
754.92	6119.3	
755.1	6462	
755.28	4186.7	
755.46	4084.3	
755.64	6861.4	
755.82	6829.3	
755.99	4036.5	
756.17	4024.3	
756.35	4814.8	
756.53	5821	
756.71	3076	
756.89	3741	
757.07	5458.5	
757.25	4878.3	
757.42	4128.7	
757.6	4823	
757.78	5690.6	
757.96	5042.1	
758.14	4094.6	
758.32	3716.4	
758.5	4776.5	
758.67	5281	
758.85	3921.9	
759.03	3998.3	
759.21	5369.1	
759.39	4990.2	
759.57	3592.8	
759.75	4419.5	
759.92	5908.4	
760.1	5459.2	
760.28	4735.6	
760.46	4912.4	
760.64	5308.3	
760.82	5152.7	
760.99	4655	
761.17	4135.5	
761.35	5890.6	
761.53	5221	
761.71	4248.9	
761.89	4711	
762.06	5916.6	
762.24	5626.5	
762.42	4339	
762.6	4173.8	
762.78	5586.2	
762.96	6067.4	
763.13	4663.9	
763.31	4453.6	
763.49	6141.2	
763.67	5530.9	
763.85	5043.5	
764.02	5397.1	
764.2	6442.2	
764.38	5724.8	
764.56	4354	
764.74	4913.1	
764.91	6507.1	
765.09	5612.1	
765.27	4212	
765.45	3951.9	
765.63	6482.5	
765.8	6264.1	
765.98	3779.2	
766.16	3958	
766.34	5274.9	
766.52	5061.2	
766.69	4653	
766.87	3839.3	
767.05	5520	
767.23	6144.6	
767.41	4072.7	
767.58	4188.1	
767.76	5994.4	
767.94	5986.2	
768.12	4080.2	
768.29	4609.3	
768.47	5503.6	
768.65	6102.9	
768.83	3718.4	
769	4575.8	
769.18	5174.5	
769.36	5696.8	
769.54	4560.1	
769.72	3729.4	
769.89	5909.8	
770.07	5964.4	
770.25	4029	
770.43	4908.3	
770.6	6358.9	
770.78	6683.2	
770.96	4102.1	
771.14	3953.3	
771.31	5832.6	
771.49	5266	
771.67	3486.3	
771.85	3632.4	
772.02	4788.2	
772.2	5304.9	
772.38	4145.1	
772.55	3743.7	
772.73	5529.5	
772.91	5225.1	
773.09	4045.4	
773.26	4057	
773.44	5446.9	
773.62	5203.9	
773.8	3673.4	
773.97	3530.7	
774.15	5440.8	
774.33	5139.7	
774.5	3606.5	
774.68	3820.8	
774.86	5445.5	
775.04	5107	
775.21	3646.1	
775.39	3560.7	
775.57	5398.4	
775.74	5537.7	
775.92	3426.9	
776.1	3388.7	
776.27	5235.3	
776.45	6133.7	
776.63	3547.8	
776.81	3289.7	
776.98	5031.9	
777.16	5784.8	
777.34	3659	
777.51	3885.7	
777.69	5083.1	
777.87	4802.5	
778.04	3778.5	
778.22	4101.4	
778.4	4841.4	
778.57	5268.1	
778.75	3132.7	
778.93	3333.4	
779.1	4690.5	
779.28	4582	
779.46	3134.1	
779.64	3461.7	
779.81	5445.5	
779.99	5963.7	
780.17	3929.4	
780.34	4107.5	
780.52	5028.4	
780.69	5137.7	
780.87	3715	
781.05	3384.6	
781.22	5038	
781.4	5066.7	
781.58	3464.5	
781.75	2871.9	
781.93	5122.7	
782.11	4550.6	
782.28	4130.8	
782.46	3454.9	
782.64	4505.5	
782.81	5126.1	
782.99	3525.9	
783.17	3451.5	
783.34	5033.2	
783.52	4610.7	
783.69	3588.7	
783.87	4164.9	
784.05	4653.7	
784.22	4549.2	
784.4	4126.7	
784.58	3630.4	
784.75	5274.9	
784.93	4658.4	
785.1	3435.1	
785.28	3852.9	
785.46	5009.3	
785.63	4504.2	
785.81	3381.2	
785.99	3276.8	
786.16	4766.3	
786.34	4959.5	
786.51	3267.9	
786.69	3617.4	
786.87	4382.7	
787.04	4704.2	
787.22	3173	
787.39	3846.1	
787.57	4513.7	
787.75	5253	
787.92	4008.6	
788.1	3888.4	
788.27	4486.4	
788.45	4317.8	
788.63	3747.8	
788.8	2803.7	
788.98	4843.4	
789.15	4205.8	
789.33	2938.2	
789.5	3358.7	
789.68	5139	
789.86	5208	
790.03	3633.1	
790.21	3239.2	
790.38	5279.7	
790.56	4603.2	
790.73	3235.8	
790.91	3142.9	
791.09	4517.8	
791.26	5026.4	
791.44	3335.5	
791.61	2985.9	
791.79	4490.5	
791.96	4493.2	
792.14	3029.6	
792.32	2781.8	
792.49	4407.9	
792.67	4618.2	
792.84	3135.4	
793.02	2896.5	
793.19	4851	
793.37	5297.4	
793.54	2745	
793.72	2971.6	
793.89	5362.9	
794.07	4418.8	
794.25	3280.2	
794.42	2774.3	
794.6	5270.8	
794.77	4915.1	
794.95	3620.8	
795.12	3141.6	
795.3	4517.8	
795.47	4869.4	
795.65	3454.9	
795.82	3311.6	
796	4347.2	
796.17	5640.1	
796.35	3270.6	
796.52	3725.3	
796.7	4881	
796.87	4918.5	
797.05	3234.4	
797.22	3846.1	
797.4	4906.9	
797.57	5606	
797.75	3332.7	
797.92	3119.7	
798.1	5158.8	
798.27	4335.5	
798.45	2807.1	
798.62	2917.7	
798.8	4709.6	
798.97	5020.9	
799.15	3437.9	
799.32	3371.6	
799.5	4141.7	
799.67	4703.5	
799.85	3596.9	
800.02	2729.9	
800.2	4429.1	
800.37	4628.4	
800.55	3693.2	
800.72	3159.3	
800.9	4979.3	
801.07	5277.6	
801.25	4054.3	
801.42	3401	
801.6	5056.4	
801.77	4717.2	
801.95	3269.9	
802.12	3130	
802.29	4803.9	
802.47	4732.2	
802.64	3431.7	
802.82	2695.8	
802.99	4420.2	
803.17	5018.9	
803.34	3325.2	
803.52	2994.1	
803.69	5535.7	
803.87	4198.3	
804.04	3303.4	
804.21	3360	
804.39	5271.5	
804.56	4530.1	
804.74	2876	
804.91	3431	
805.09	4390.8	
805.26	4442.7	
805.44	2936.1	
805.61	3146.4	
805.78	4857.1	
805.96	4867.3	
806.13	3392.8	
806.31	3614	
806.48	4091.8	
806.66	4450.9	
806.83	3402.4	
807	3292.5	
807.18	4461.8	
807.35	4671.4	
807.53	3136.8	
807.7	2764.1	
807.87	5230.5	
808.05	4416.1	
808.22	3560.1	
808.4	2755.9	
808.57	4343.1	
808.74	4172.4	
808.92	3058.3	
809.09	3757.3	
809.27	4402.5	
809.44	4778.6	
809.61	2735.4	
809.79	2984.6	
809.96	5313.8	
810.14	4919.9	
810.31	2697.2	
810.48	3201	
810.66	4418.8	
810.83	4961.5	
811.01	3031	
811.18	3348.4	
811.35	4932.2	
811.53	3944.4	
811.7	3654.3	
811.87	3372.3	
812.05	4489.8	
812.22	4401.1	
812.39	3003	
812.57	2833.7	
812.74	4531.5	
812.92	5591.6	
813.09	3196.9	
813.26	3417.4	
813.44	5401.9	
813.61	4320.5	
813.78	2658.9	
813.96	3531.4	
814.13	4437.3	
814.3	4189.5	
814.48	3730.7	
814.65	3106.1	
814.82	5167.7	
815	4180.6	
815.17	3259	
815.34	3837.2	
815.52	4351.3	
815.69	4349.2	
815.87	3173.7	
816.04	3181.2	
816.21	4391.5	
816.38	4001	
816.56	3191.4	
816.73	2958.6	
816.9	5410.1	
817.08	4876.2	
817.25	3044.6	
817.42	3615.3	
817.6	4060.4	
817.77	4373.1	
817.94	3292.5	
818.12	2921.1	
818.29	4223.6	
818.46	5994.4	
818.64	3112.9	
818.81	2862.4	
818.98	4236.6	
819.16	5683.1	
819.33	3461.1	
819.5	3242.6	
819.67	4687.1	
819.85	5117.2	
820.02	3202.3	
820.19	3345	
820.37	4563.6	
820.54	4313	
820.71	3237.2	
820.88	3997	
821.06	4562.2	
821.23	4232.5	
821.4	3293.8	
821.58	3269.9	
821.75	4881	
821.92	4578.6	
822.09	2727.9	
822.27	2963.4	
822.44	4417.5	
822.61	4319.2	
822.79	2738.8	
822.96	4867.3	
823.13	4645.5	
823.3	4105.5	
823.48	3059	
823.65	2812.5	
823.82	4873.5	
823.99	4130.1	
824.17	3842	
824.34	2873.3	
824.51	5557.5	
824.68	4465.9	
824.86	2975.7	
825.03	3250.1	
825.2	4426.3	
825.37	5127.4	
825.55	2952.5	
825.72	3220.8	
825.89	5555.5	
826.06	5180	
826.24	3119.7	
826.41	3204.4	
826.58	5240.8	
826.75	4588.1	
826.92	2635.7	
827.1	2824.1	
827.27	6702.3	
827.44	5485.8	
827.61	2994.8	
827.79	3608.5	
827.96	4275.5	
828.13	4405.2	
828.3	3099.3	
828.47	2669.9	
828.65	4739	
828.82	4579.3	
828.99	3857	
829.16	3463.8	
829.34	4902.8	
829.51	4734.2	
829.68	3190.1	
829.85	3241.9	
830.02	5223.7	
830.2	4952.7	
830.37	2537.4	
830.54	3801.7	
830.71	5477.6	
830.88	4449.6	
831.05	2591.4	
831.23	2912.9	
831.4	5326.8	
831.57	5733.6	
831.74	3059.7	
831.91	2689	
832.09	4724.7	
832.26	4933.6	
832.43	3068.5	
832.6	3426.3	
832.77	4692.6	
832.94	5119.2	
833.12	2517.6	
833.29	3033.7	
833.46	4375.1	
833.63	5881.8	
833.8	3372.3	
833.97	3088.3	
834.15	4955.4	
834.32	4756.1	
834.49	3188	
834.66	3235.8	
834.83	5010	
835	4245.4	
835.17	2970.9	
835.35	3034.4	
835.52	4844.1	
835.69	4745.8	
835.86	3149.1	
836.03	2674	
836.2	4928.8	
836.37	4653	
836.55	3056.9	
836.72	2905.4	
836.89	4552	
837.06	4960.9	
837.23	3138.2	
837.4	3340.9	
837.57	5512.4	
837.75	5856.5	
837.92	2854.9	
838.09	3016	
838.26	4609.3	
838.43	5033.9	
838.6	3153.9	
838.77	2904	
838.94	5629.9	
839.11	5513.8	
839.29	3105.4	
839.46	2490.3	
839.63	4904.2	
839.8	4674.8	
839.97	3024.8	
840.14	2947	
840.31	4805.2	
840.48	4850.3	
840.65	2520.4	
840.82	2963.4	
841	4858.5	
841.17	4790.2	
841.34	2745	
841.51	2844.6	
841.68	4862.6	
841.85	4628.4	
842.02	2936.8	
842.19	2450.1	
842.36	4724	
842.53	4715.1	
842.7	2821.4	
842.87	3268.6	
843.05	5907	
843.22	4627	
843.39	2639.1	
843.56	2860.3	
843.73	4550.6	
843.9	4938.3	
844.07	4242.7	
844.24	3644	
844.41	6600.6	
844.58	4386.7	
844.75	2647.3	
844.92	2871.3	
845.09	4830.5	
845.26	4874.8	
845.43	2765.4	
845.6	2910.8	
845.77	4838	
845.94	4689.8	
846.12	3103.4	
846.29	3176.4	
846.46	5062.6	
846.63	4778.6	
846.8	2801.6	
846.97	3226.2	
847.14	5196.4	
847.31	4873.5	
847.48	3081.5	
847.65	3355.9	
847.82	5048.9	
847.99	4971.8	
848.16	3590.1	
848.33	3287.7	
848.5	4533.5	
848.67	5226.4	
848.84	2719.7	
849.01	2889.7	
849.18	4451.6	
849.35	4234.5	
849.52	3354.6	
849.69	2705.4	
849.86	5070.1	
850.03	5092.6	
850.2	2772.9	
850.37	3300.6	
850.54	5042.1	
850.71	4569.7	
850.88	3271.3	
851.05	2699.2	
851.22	4741	
851.39	5173.2	
851.56	2601.6	
851.73	3143.6	
851.9	4318.5	
852.07	5090.6	
852.24	3098.6	
852.41	2733.4	
852.58	4811.4	
852.75	4375.8	
852.92	3063.1	
853.09	2734	
853.26	4511	
853.43	5156.8	
853.6	2751.8	
853.77	2385.2	
853.94	5251	
854.11	4310.3	
854.28	3924.6	
854.44	2973	
854.61	5530.2	
854.78	5067.4	
854.95	2688.3	
855.12	3396.9	
855.29	4030.4	
855.46	5338.4	
855.63	2736.1	
855.8	3673.4	
855.97	4495.3	
856.14	5119.9	
856.31	3760.8	
856.48	2951.1	
856.65	4564.2	
856.82	4313.7	
856.99	2668.5	
857.16	2982.5	
857.33	5743.2	
857.49	4607.2	
857.66	2906.1	
857.83	3074.7	
858	4674.1	
858.17	4764.3	
858.34	2562	
858.51	2775	
858.68	5266.7	
858.85	5308.3	
859.02	3163.4	
859.19	3266.5	
859.36	4391.5	
859.52	4403.8	
859.69	2757.9	
859.86	3236.5	
860.03	4374.5	
860.2	5248.9	
860.37	2572.9	
860.54	2805.7	
860.71	5021.6	
860.88	5293.3	
861.05	3040.6	
861.21	3414.6	
861.38	5253	
861.55	4250.9	
861.72	2561.3	
861.89	3073.3	
862.06	5049.6	
862.23	5342.5	
862.4	2678.1	
862.56	2858.3	
862.73	4883.7	
862.9	4693.9	
863.07	3109.5	
863.24	2525.1	
863.41	4306.9	
863.58	4353.3	
863.75	2831	
863.91	3130.7	
864.08	5170.4	
864.25	4970.4	
864.42	3343.7	
864.59	3680.9	
864.76	5421	
864.93	4396.3	
865.09	2678.1	
865.26	2968.2	
865.43	5138.4	
865.6	5417.6	
865.77	2447.3	
865.94	2699.2	
866.1	5163.6	
866.27	4911.7	
866.44	3953.3	
866.61	2626.2	
866.78	4603.8	
866.95	4906.3	
867.11	2671.2	
867.28	2486.9	
867.45	5121.3	
867.62	4422.9	
867.79	3060.3	
867.96	2753.2	
868.12	4288.4	
868.29	4952	
868.46	2739.5	
868.63	3560.1	
868.8	5068.7	
868.97	4963.6	
869.13	2889.7	
869.3	2884.9	
869.47	4785.4	
869.64	5041.4	
869.81	2768.2	
869.97	2727.9	
870.14	4749.9	
870.31	5318.6	
870.48	2689.7	
870.65	3298.6	
870.81	4612.7	
870.98	4638.6	
871.15	3058.3	
871.32	2828.9	
871.48	4913.8	
871.65	5348.6	
871.82	2717	
871.99	3036.5	
872.16	5670.1	
872.32	5202.5	
872.49	2772.3	
872.66	2767.5	
872.83	5022.3	
872.99	4465.9	
873.16	3087	
873.33	2696.5	
873.5	4729.4	
873.67	4739.7	
873.83	2880.8	
874	3553.9	
874.17	4831.8	
874.34	5454.4	
874.5	3401.7	
874.67	3328.6	
874.84	5188.9	
875.01	4250.2	
875.17	3702.7	
875.34	2730.6	
875.51	4762.2	
875.68	5608	
875.84	3266.5	
876.01	3820.8	
876.18	4978.6	
876.34	4875.5	
876.51	2751.8	
876.68	2749.7	
876.85	4531.5	
877.01	5212.8	
877.18	3790.1	
877.35	2732.7	
877.52	4755.4	
877.68	4302.8	
877.85	2747.7	
878.02	2761.3	
878.18	4594.3	
878.35	4474.1	
878.52	2233.7	
878.69	3015.3	
878.85	5060.5	
879.02	4919.9	
879.19	3853.6	
879.35	2871.9	
879.52	4958.1	
879.69	5045.5	
879.86	2430.3	
880.02	3020.1	
880.19	4682.3	
880.36	5556.8	
880.52	3107.5	
880.69	3224.2	
880.86	5027.1	
881.02	5095.3	
881.19	3005.1	
881.36	2923.8	
881.52	4872.8	
881.69	4436.6	
881.86	2948.4	
882.02	2869.2	
882.19	5125.4	
882.36	5842.2	
882.52	2824.8	
882.69	3762.8	
882.86	4760.2	
883.02	4794.3	
883.19	3236.5	
883.36	3096.5	
883.52	5027.1	
883.69	5585.5	
883.86	2806.4	
884.02	2551.1	
884.19	4982	
884.36	4737.6	
884.52	3043.3	
884.69	2913.6	
884.86	4504.2	
885.02	5378.6	
885.19	3022.8	
885.36	3104.7	
885.52	4633.9	
885.69	4823	
885.86	3797.6	
886.02	3450.1	
886.19	4988.2	
886.35	4554.7	
886.52	2988.7	
886.69	3713.6	
886.85	4317.1	
887.02	5232.6	
887.19	5232.6	
887.35	5232.6	
887.52	5232.6	
887.68	5232.6	
887.85	5232.6	
888.02	5232.6	
888.18	5232.6	
888.35	5232.6	
888.51	5232.6	
888.68	5232.6	
888.85	5232.6	
889.01	5232.6	
889.18	5232.6	
889.35	5232.6	
889.51	5232.6	
889.68	5232.6	
889.84	5232.6	
890.01	5232.6	
890.17	5232.6	
890.34	5232.6	
890.51	5232.6	
890.67	5232.6	
890.84	5232.6	
891	5232.6	
891.17	5232.6	
891.34	5232.6	
891.5	5232.6	
891.67	5232.6	
891.83	5232.6	
892	5232.6	
892.16	5232.6	
892.33	5232.6	
892.5	5232.6	
892.66	5232.6	
892.83	5232.6	
892.99	5232.6	
893.16	5232.6	
893.32	5232.6	
893.49	5232.6	
893.65	5232.6	
893.82	5232.6	
893.99	5232.6	
894.15	5232.6	
894.32	5232.6	
894.48	5232.6	
894.65	5232.6	
894.81	5232.6	
894.98	5232.6	
895.14	5232.6	
895.31	5232.6	
895.47	5232.6	
895.64	5232.6	
895.81	5232.6	
895.97	5232.6	
896.14	5232.6	
896.3	5232.6	
896.47	5232.6	
896.63	5232.6	
896.8	5232.6	
896.96	5232.6	
897.13	5232.6	
897.29	5232.6	
897.46	5232.6	
897.62	5232.6	
897.79	5232.6	
897.95	5232.6	
898.12	5232.6	
898.28	5232.6	
898.45	5232.6	
898.61	5232.6	
898.78	5232.6	
898.94	5232.6	
899.11	5232.6	
899.27	5232.6	
899.44	5232.6	
899.6	5232.6	
899.77	5232.6	
899.93	5232.6	
900.1	5232.6	
900.26	5232.6	
900.43	5232.6	
900.59	5232.6	
900.76	5232.6	
900.92	5232.6	
901.09	5232.6	
901.25	5232.6	
901.42	5232.6	
901.58	5232.6	
901.75	5232.6	
901.91	5232.6	
902.07	5232.6	
902.24	5232.6	
902.4	5232.6	
902.57	5232.6	
902.73	5232.6	
902.9	5232.6	
903.06	5232.6	
903.23	5232.6	
903.39	5232.6	
903.56	5232.6	
903.72	5232.6	
903.88	5232.6	
904.05	5232.6	
904.21	5232.6	
904.38	5232.6	
904.54	5232.6	
904.71	5232.6	
904.87	5232.6	
905.03	5232.6	
905.2	5232.6	
905.36	5232.6	
905.53	5232.6	
905.69	5232.6	
905.86	5232.6	
906.02	5232.6	
906.18	5232.6	
906.35	5232.6	
906.51	5232.6	
906.68	5232.6	
906.84	5232.6	
907.01	5232.6	
907.17	5232.6	
907.33	5232.6	
907.5	5232.6	
907.66	5232.6	
907.83	5232.6	
907.99	5232.6	
908.15	5232.6	
908.32	5232.6	
908.48	5232.6	
908.65	5232.6	
908.81	5232.6	
908.97	5232.6	
909.14	5232.6	
909.3	5232.6	
909.47	5232.6	
909.63	5232.6	
909.79	5232.6	
909.96	5232.6	
910.12	5232.6	
910.28	5232.6	
910.45	5232.6	
910.61	5232.6	
910.78	5232.6	
910.94	5232.6	
911.1	5232.6	
911.27	5232.6	
911.43	5232.6	
911.59	5232.6	
911.76	5232.6	
911.92	5232.6	
912.08	5232.6	
912.25	5232.6	
912.41	5232.6	
912.57	5232.6	
912.74	5232.6	
912.9	5232.6	
913.07	5232.6	
913.23	5232.6	
913.39	5232.6	
913.56	5232.6	
913.72	5232.6	
913.88	5232.6	
914.05	5232.6	
914.21	5232.6	
914.37	5232.6	
914.54	5232.6	
914.7	5232.6	
914.86	5232.6	
915.03	5232.6	
915.19	5232.6	
