Wavelength	Intensities	
nm	a.u.	
179.22	1902.7	
179.44	1910.4	
179.65	1895.1	
179.86	1925.8	
180.08	1912.1	
180.29	5055.8	
180.51	3517	
180.72	5675.6	
180.94	6703.7	
181.15	3276.1	
181.37	3164.1	
181.58	5534.3	
181.79	5767.1	
182.01	3386.7	
182.22	3645.4	
182.44	5770.5	
182.65	4841.4	
182.87	4599.7	
183.08	4015.4	
183.29	6075	
183.51	5044.1	
183.72	3724.6	
183.94	5399.8	
184.15	5507	
184.37	5466	
184.58	3255.6	
184.79	4516.5	
185.01	5019.6	
185.22	5788.9	
185.44	4705.5	
185.65	3958.7	
185.86	5332.2	
186.08	4952	
186.29	3224.9	
186.51	3414	
186.72	5061.9	
186.94	5968.5	
187.15	3935.5	
187.36	4080.2	
187.58	7804.1	
187.79	5553.4	
188.01	4165.6	
188.22	6673	
188.43	6683.2	
188.65	5791.7	
188.86	3383.2	
189.08	4069.3	
189.29	5284.4	
189.5	5213.4	
189.72	3790.8	
189.93	3857	
190.15	5958.2	
190.36	7166.5	
190.57	4184.7	
190.79	4027	
191	6148	
191.22	6055.2	
191.43	4121.9	
191.64	3351.2	
191.86	6321.4	
192.07	6011.5	
192.29	3588.7	
192.5	3760.1	
192.71	6032.6	
192.93	5145.9	
193.14	3722.5	
193.35	3835.8	
193.57	5217.5	
193.78	6035.4	
194	3059	
194.21	3702.7	
194.42	4992.9	
194.64	5472.2	
194.85	4033.8	
195.07	4726.7	
195.28	5539.1	
195.49	4721.3	
195.71	5125.4	
195.92	3550.5	
196.13	5659.2	
196.35	5736.4	
196.56	5424.4	
196.78	4099.4	
196.99	7146	
197.2	6654.5	
197.42	4635.2	
197.63	4138.3	
197.84	4848.2	
198.06	5674.9	
198.27	3790.8	
198.48	4989.5	
198.7	5238	
198.91	5383.4	
199.13	4122.6	
199.34	4130.1	
199.55	5927.5	
199.77	4741.7	
199.98	3610.6	
200.19	4195.6	
200.41	5324.7	
200.62	5057.1	
200.83	4266.6	
201.05	4546.5	
201.26	5367.7	
201.47	5134.9	
201.69	3656.3	
201.9	3504.8	
202.11	5423	
202.33	6494.1	
202.54	3931.4	
202.76	4359.4	
202.97	5599.8	
203.18	5564.3	
203.4	4266.6	
203.61	4158.7	
203.82	5496.1	
204.04	5081.7	
204.25	4177.9	
204.46	3998.3	
204.68	5489.2	
204.89	5732.3	
205.1	4001.7	
205.32	3532.7	
205.53	5864	
205.74	6019	
205.96	2929.3	
206.17	4224.3	
206.38	5851	
206.6	6034.7	
206.81	4698.7	
207.02	3882.9	
207.24	5696.8	
207.45	6135.7	
207.66	3912.3	
207.88	3349.1	
208.09	5621	
208.3	5442.8	
208.52	3574.4	
208.73	3959.4	
208.94	5469.4	
209.15	6098.9	
209.37	3929.4	
209.58	4067.9	
209.79	6044.9	
210.01	5233.2	
210.22	3117	
210.43	3278.1	
210.65	5452.4	
210.86	5937.1	
211.07	3936.2	
211.29	3637.2	
211.5	5808.7	
211.71	5365.7	
211.93	3547.8	
212.14	3583.9	
212.35	5362.9	
212.56	5619.6	
212.78	4144.4	
212.99	3386.7	
213.2	6430.6	
213.42	5219.6	
213.63	3762.1	
213.84	3980.6	
214.06	4870.1	
214.27	4967	
214.48	3944.4	
214.69	4235.9	
214.91	6185.5	
215.12	6253.8	
215.33	4193.6	
215.55	4645.5	
215.76	6702.3	
215.97	5837.4	
216.18	4069.3	
216.4	3920.5	
216.61	5160.9	
216.82	5913.9	
217.04	3607.8	
217.25	3793.5	
217.46	6158.2	
217.67	5887.2	
217.89	3211.9	
218.1	3391.4	
218.31	5537.7	
218.53	5656.5	
218.74	3842	
218.95	3661.8	
219.16	5406.6	
219.38	6340.5	
219.59	3682.2	
219.8	4442	
220.01	7092.1	
220.23	5468.1	
220.44	4872.1	
220.65	3571.7	
220.87	5500.8	
221.08	6149.4	
221.29	3345.7	
221.5	4533.5	
221.72	7473.7	
221.93	5207.3	
222.14	4156	
222.35	4935.6	
222.57	5473.5	
222.78	5777.3	
222.99	3885.7	
223.2	4264.6	
223.42	5774.6	
223.63	5907	
223.84	3030.3	
224.05	2997.5	
224.27	7045	
224.48	6409.5	
224.69	4971.8	
224.9	4159.4	
225.12	5677.7	
225.33	5415.5	
225.54	3274	
225.75	3680.9	
225.97	5013.4	
226.18	5324	
226.39	3975.8	
226.6	3738.2	
226.82	5268.1	
227.03	5063.3	
227.24	4137.6	
227.45	3418.7	
227.67	5862.7	
227.88	6421.7	
228.09	4613.4	
228.3	4641.4	
228.52	5958.9	
228.73	5463.3	
228.94	3886.4	
229.15	3387.3	
229.36	5373.9	
229.58	5270.8	
229.79	3896.6	
230	4521.2	
230.21	6499.6	
230.43	5560.2	
230.64	4092.5	
230.85	4285	
231.06	5852.4	
231.28	5914.5	
231.49	3347.1	
231.7	3965.6	
231.91	5791.7	
232.12	5541.8	
232.34	3510.2	
232.55	4014.7	
232.76	6085.9	
232.97	5642.2	
233.18	3596.2	
233.4	4061.1	
233.61	5701.5	
233.82	5215.5	
234.03	3760.1	
234.25	3711.6	
234.46	7621.2	
234.67	5505.6	
234.88	4211.3	
235.09	3650.2	
235.31	5827.2	
235.52	5333.6	
235.73	4100	
235.94	3442.6	
236.15	5208.7	
236.37	6662.7	
236.58	3628.3	
236.79	3975.1	
237	5831.9	
237.21	4959.5	
237.43	4270	
237.64	3380.5	
237.85	10014	
238.06	5081.7	
238.27	4345.1	
238.48	3448.8	
238.7	5854.5	
238.91	5345.2	
239.12	3954.6	
239.33	4007.2	
239.54	5046.9	
239.76	5380.7	
239.97	3876.8	
240.18	3915	
240.39	6894.8	
240.6	5821	
240.82	4061.8	
241.03	3383.9	
241.24	5418.9	
241.45	6444.3	
241.66	3614.7	
241.87	4239.3	
242.09	6219	
242.3	6612.9	
242.51	4318.5	
242.72	3969	
242.93	5933.6	
243.14	5368.4	
243.36	4569	
243.57	4956.8	
243.78	6356.9	
243.99	5860.6	
244.2	4003.1	
244.41	3587.4	
244.63	5013.4	
244.84	5827.8	
245.05	4284.4	
245.26	3927.3	
245.47	5734.3	
245.68	6010.8	
245.9	5272.2	
246.11	4074.1	
246.32	5268.7	
246.53	5736.4	
246.74	6421.7	
246.95	3336.1	
247.16	4975.2	
247.38	5406.6	
247.59	3291.1	
247.8	3969.6	
248.01	5130.2	
248.22	5397.8	
248.43	3609.2	
248.64	3864.5	
248.86	4792.9	
249.07	5253.7	
249.28	3515	
249.49	4088.4	
249.7	6017.6	
249.91	6182.8	
250.12	3274	
250.34	3361.4	
250.55	5605.3	
250.76	5474.2	
250.97	4083	
251.18	4099.4	
251.39	6169.8	
251.6	5712.5	
251.81	4171.7	
252.03	4165.6	
252.24	5161.6	
252.45	6050.4	
252.66	3437.9	
252.87	4385.4	
253.08	5479.7	
253.29	7202	
253.5	3394.2	
253.72	4826.4	
253.93	5283.8	
254.14	6493.4	
254.35	3760.8	
254.56	3882.9	
254.77	5774.6	
254.98	5066.7	
255.19	3689.8	
255.41	4770.4	
255.62	5535	
255.83	6122.1	
256.04	4265.2	
256.25	4210.6	
256.46	6773.3	
256.67	5134.9	
256.88	4066.6	
257.09	4539	
257.31	5085.1	
257.52	5210	
257.73	5100.8	
257.94	3728	
258.15	5296	
258.36	5522.7	
258.57	4743.1	
258.78	3035.1	
258.99	5968.5	
259.2	5282.4	
259.41	3846.1	
259.63	3902.1	
259.84	6330.3	
260.05	6696.2	
260.26	4975.2	
260.47	3656.3	
260.68	6090.7	
260.89	5371.1	
261.1	4568.3	
261.31	3592.1	
261.52	6108.4	
261.73	6475.7	
261.95	4883	
262.16	4273.4	
262.37	6156.9	
262.58	6277.7	
262.79	4855.1	
263	3863.2	
263.21	5439.4	
263.42	4988.2	
263.63	3840.6	
263.84	3761.4	
264.05	6062.7	
264.26	6410.8	
264.47	4736.3	
264.69	4264.6	
264.9	6170.5	
265.11	5679	
265.32	3643.3	
265.53	3744.4	
265.74	5641.5	
265.95	4866	
266.16	4023.6	
266.37	4465.3	
266.58	5568.4	
266.79	5331.5	
267	3771.7	
267.21	3439.9	
267.42	5061.2	
267.63	5478.3	
267.84	3984.7	
268.06	3414	
268.27	5927.5	
268.48	6190.3	
268.69	3855	
268.9	4575.2	
269.11	6186.9	
269.32	4969.1	
269.53	3962.1	
269.74	3636.5	
269.95	5874.3	
270.16	4788.8	
270.37	3922.5	
270.58	4640	
270.79	5326.1	
271	5980.8	
271.21	4294.6	
271.42	4010.6	
271.63	5613.5	
271.84	5084.4	
272.05	3144.3	
272.26	3560.1	
272.47	5498.8	
272.68	5709.1	
272.89	3780.6	
273.11	4418.8	
273.32	5255.8	
273.53	6434.7	
273.74	4285.7	
273.95	4227	
274.16	6173.9	
274.37	5571.8	
274.58	4272.7	
274.79	3471.3	
275	5597.8	
275.21	6148.7	
275.42	5219.6	
275.63	4483.7	
275.84	5787.6	
276.05	7203.4	
276.26	4171.7	
276.47	3888.4	
276.68	5319.9	
276.89	6543.3	
277.1	4502.8	
277.31	3461.7	
277.52	5769.8	
277.73	5929.6	
277.94	3480.2	
278.15	3858.4	
278.36	5689.3	
278.57	5132.2	
278.78	3794.9	
278.99	4298.7	
279.2	5081.7	
279.41	5003.9	
279.62	5042.8	
279.83	3523.9	
280.04	6781.5	
280.25	5036.6	
280.46	4961.5	
280.67	3927.3	
280.88	5103.5	
281.09	6159.6	
281.3	4154	
281.51	5296.7	
281.72	5169.1	
281.93	5986.2	
282.14	3653.6	
282.35	3962.8	
282.56	5979.4	
282.77	6021.7	
282.98	3799	
283.19	4691.2	
283.4	7407.5	
283.61	5422.3	
283.82	3500.7	
284.03	4875.5	
284.24	5607.3	
284.45	6136.4	
284.66	4932.2	
284.87	4715.8	
285.08	6110.5	
285.29	6256.5	
285.5	3297.2	
285.71	3900.7	
285.92	6107.7	
286.12	6849.1	
286.33	4872.8	
286.54	3850.2	
286.75	5969.8	
286.96	5360.9	
287.17	3543	
287.38	4889.2	
287.59	5095.3	
287.8	5042.8	
288.01	3856.3	
288.22	4501.4	
288.43	6027.2	
288.64	4994.3	
288.85	4586.1	
289.06	4362.9	
289.27	5935	
289.48	6453.8	
289.69	5018.9	
289.9	4426.3	
290.11	6157.6	
290.32	5127.4	
290.53	4663.2	
290.74	4312.3	
290.94	5941.2	
291.15	6028.5	
291.36	3758.7	
291.57	4432.5	
291.78	5211.4	
291.99	4864.6	
292.2	3576.4	
292.41	4311	
292.62	6095.4	
292.83	5854.5	
293.04	5327.4	
293.25	3571.7	
293.46	5287.2	
293.67	6080.4	
293.88	3749.1	
294.09	3558.7	
294.29	5004.6	
294.5	5650.3	
294.71	4003.1	
294.92	3809.2	
295.13	5296	
295.34	6653.2	
295.55	3307.5	
295.76	3422.8	
295.97	5935.7	
296.18	6703	
296.39	3542.3	
296.6	3734.8	
296.81	5636	
297.01	5916.6	
297.22	3900	
297.43	3688.4	
297.64	5119.2	
297.85	5104.9	
298.06	3039.9	
298.27	3341.6	
298.48	5533.6	
298.69	5180	
298.9	4027	
299.11	3625.6	
299.31	5051	
299.52	5055.1	
299.73	4341.7	
299.94	4232.5	
300.15	5531.6	
300.36	5163.6	
300.57	4248.2	
300.78	4206.5	
300.99	5375.9	
301.2	5659.2	
301.4	3709.6	
301.61	4038.6	
301.82	5856.5	
302.03	5879	
302.24	4505.5	
302.45	3530	
302.66	5815.5	
302.87	6303.6	
303.08	3750.5	
303.29	5094.7	
303.49	5200.5	
303.7	5523.4	
303.91	3324.5	
304.12	4846.9	
304.33	4984.8	
304.54	5620.3	
304.75	3759.4	
304.96	3535.5	
305.16	5890.6	
305.37	6638.8	
305.58	3200.3	
305.79	3355.9	
306	5813.5	
306.21	4859.1	
306.42	3652.2	
306.63	5637.4	
306.83	5350.7	
307.04	6073.6	
307.25	4069.3	
307.46	4043.4	
307.67	4742.4	
307.88	5968.5	
308.09	3647.4	
308.29	3843.4	
308.5	5563.6	
308.71	6150.1	
308.92	3956	
309.13	3595.6	
309.34	5345.2	
309.55	5381.4	
309.75	4618.2	
309.96	4248.9	
310.17	5883.1	
310.38	5185.5	
310.59	4422.2	
310.8	3509.5	
311.01	5250.3	
311.21	5354.8	
311.42	3536.2	
311.63	3655.6	
311.84	5233.2	
312.05	5664.7	
312.26	4159.4	
312.46	4524	
312.67	5345.2	
312.88	5033.2	
313.09	3631.7	
313.3	3516.4	
313.51	6281.1	
313.71	6665.5	
313.92	3571.7	
314.13	3768.9	
314.34	5640.1	
314.55	5389.6	
314.76	4623.6	
314.96	4037.9	
315.17	5537.7	
315.38	6096.8	
315.59	3598.3	
315.8	3423.5	
316.01	6416.3	
316.21	6461.3	
316.42	3452.9	
316.63	3869.3	
316.84	5363.6	
317.05	6199.9	
317.26	4223.6	
317.46	3814.7	
317.67	5375.9	
317.88	5878.4	
318.09	4528.1	
318.3	3315	
318.5	5243.5	
318.71	5787.6	
318.92	5791.7	
319.13	4191.5	
319.34	5997.1	
319.54	6169.2	
319.75	3335.5	
319.96	3201.7	
320.17	5847	
320.38	6092	
320.58	3298.6	
320.79	3922.5	
321	6053.8	
321.21	6150.1	
321.42	3962.8	
321.62	3293.8	
321.83	5046.2	
322.04	5502.2	
322.25	3834.5	
322.46	3628.3	
322.66	5624.4	
322.87	5805.3	
323.08	4474.8	
323.29	3549.1	
323.5	6590.4	
323.7	5073.5	
323.91	4938.3	
324.12	4391.5	
324.33	5558.9	
324.53	5793.7	
324.74	4214.7	
324.95	4477.5	
325.16	4896	
325.37	5313.1	
325.57	3615.3	
325.78	3701.4	
325.99	5543.2	
326.2	4973.8	
326.4	5102.2	
326.61	3340.2	
326.82	5417.6	
327.03	5636.7	
327.24	5156.8	
327.44	4816.8	
327.65	5793	
327.86	4641.4	
328.07	4285.7	
328.27	3455.6	
328.48	6221	
328.69	5020.9	
328.9	5198.4	
329.1	3904.8	
329.31	5328.8	
329.52	6416.3	
329.73	3604.4	
329.93	4115.7	
330.14	5481	
330.35	5725.4	
330.56	5972.6	
330.76	4446.1	
330.97	5331.5	
331.18	5758.9	
331.39	4038.6	
331.59	3277.4	
331.8	6122.1	
332.01	6226.5	
332.22	3722.5	
332.42	4286.4	
332.63	5614.2	
332.84	5219.6	
333.05	4015.4	
333.25	3689.8	
333.46	5321.3	
333.67	5517.9	
333.88	3778.5	
334.08	4179.9	
334.29	7411.6	
334.5	6235.4	
334.7	3508.9	
334.91	5098.1	
335.12	5059.8	
335.33	5920	
335.53	4006.5	
335.74	5973.2	
335.95	5264.6	
336.16	5074.2	
336.36	3957.4	
336.57	4644.8	
336.78	5012.1	
336.98	6086.6	
337.19	4939.7	
337.4	3891.1	
337.61	6629.3	
337.81	5020.9	
338.02	3667.9	
338.23	4808.6	
338.43	6271.6	
338.64	5135.6	
338.85	3667.9	
339.05	4726	
339.26	6399.2	
339.47	4949.3	
339.68	3676.1	
339.88	5371.1	
340.09	5730.2	
340.3	5993.7	
340.5	4227.7	
340.71	3222.1	
340.92	4997.7	
341.13	6301.6	
341.33	3504.8	
341.54	4281.6	
341.75	5717.9	
341.95	5385.5	
342.16	4055	
342.37	4465.9	
342.57	5068.7	
342.78	5442.8	
342.99	4528.7	
343.19	3241.9	
343.4	5890.6	
343.61	5743.9	
343.81	3910.9	
344.02	3579.8	
344.23	5948	
344.43	6362.4	
344.64	4476.2	
344.85	4410	
345.06	5822.4	
345.26	6182.8	
345.47	4200.4	
345.68	4937.7	
345.88	4887.8	
346.09	6049	
346.3	4342.4	
346.5	3263.8	
346.71	5576.6	
346.92	5277.6	
347.12	3336.1	
347.33	4234.5	
347.54	6098.9	
347.74	6541.2	
347.95	4172.4	
348.16	3103.4	
348.36	5313.8	
348.57	5049.6	
348.78	4212	
348.98	4543.8	
349.19	5483.1	
349.39	5015.5	
349.6	3368.2	
349.81	3747.1	
350.01	5832.6	
350.22	5315.8	
350.43	4046.8	
350.63	4941.1	
350.84	5606	
351.05	5373.2	
351.25	3715	
351.46	3360.7	
351.67	6095.4	
351.87	5257.1	
352.08	3977.2	
352.29	4559.5	
352.49	5994.4	
352.7	6254.5	
352.9	3607.8	
353.11	4530.8	
353.32	6815.6	
353.52	5410.1	
353.73	3632.4	
353.94	4564.9	
354.14	5951.4	
354.35	5765.7	
354.55	3683.6	
354.76	4180.6	
354.97	5884.5	
355.17	5677	
355.38	3496.6	
355.59	4883	
355.79	5296	
356	5768.4	
356.2	4204.5	
356.41	3648.1	
356.62	5018.9	
356.82	5577.3	
357.03	4450.2	
357.24	4051.6	
357.44	5420.3	
357.65	5569.1	
357.85	5425.8	
358.06	4253.6	
358.27	5115.8	
358.47	5425.1	
358.68	3601	
358.88	4529.4	
359.09	6013.5	
359.3	6395.8	
359.5	5258.5	
359.71	4713.7	
359.91	6890	
360.12	6210.1	
360.33	4528.7	
360.53	5029.8	
360.74	5483.8	
360.94	5584.8	
361.15	4732.2	
361.36	3993.5	
361.56	6307.7	
361.77	5771.9	
361.97	5266.7	
362.18	4240.7	
362.38	6395.1	
362.59	5423.7	
362.8	3941.7	
363	3761.4	
363.21	5240.1	
363.41	5925.5	
363.62	4482.3	
363.83	5664.7	
364.03	6018.3	
364.24	7040.2	
364.44	5729.5	
364.65	5676.3	
364.85	5806	
365.06	5443.5	
365.27	4199.7	
365.47	4227.7	
365.68	6877.1	
365.88	5801.2	
366.09	4661.2	
366.29	4318.5	
366.5	6133.7	
366.71	6580.1	
366.91	5722	
367.12	4870.1	
367.32	7201.3	
367.53	6406.7	
367.73	4795	
367.94	5830.6	
368.14	6352.8	
368.35	7322.9	
368.56	4810.7	
368.76	4160.8	
368.97	6486.6	
369.17	8210.3	
369.38	4196.3	
369.58	4534.9	
369.79	5513.8	
369.99	6827.9	
370.2	5606.7	
370.4	4610	
370.61	6165.8	
370.82	7394.5	
371.02	4579.9	
371.23	3863.8	
371.43	5384.8	
371.64	6811.5	
371.84	4642.7	
372.05	5900.2	
372.25	8329.8	
372.46	6763.1	
372.66	4822.3	
372.87	4674.8	
373.07	6697.5	
373.28	8406.9	
373.48	5776.6	
373.69	5563.6	
373.9	6229.2	
374.1	6296.8	
374.31	5786.9	
374.51	5303.6	
374.72	7170.6	
374.92	5971.2	
375.13	5964.4	
375.33	5178.6	
375.54	6776	
375.74	6183.5	
375.95	5325.4	
376.15	6608.1	
376.36	6830	
376.56	6655.2	
376.77	5482.4	
376.97	5911.8	
377.18	8008.9	
377.38	7060	
377.59	6308.4	
377.79	5023.7	
378	6888	
378.2	7387	
378.41	5171.1	
378.61	4971.1	
378.82	7344.7	
379.02	6466.8	
379.23	5311.1	
379.43	6483.9	
379.64	7396.6	
379.84	7117.4	
380.05	5072.1	
380.25	4968.4	
380.46	7156.3	
380.66	6626.5	
380.87	6526.2	
381.07	6860.7	
381.28	7774.1	
381.48	7135.8	
381.69	5113.1	
381.89	5156.1	
382.1	5952.1	
382.3	7223.2	
382.51	6249	
382.71	7254.6	
382.91	7116.7	
383.12	7639.6	
383.32	5436.7	
383.53	5657.2	
383.73	6868.2	
383.94	6745.3	
384.14	5461.2	
384.35	4597	
384.55	6578.8	
384.76	7047.7	
384.96	5308.3	
385.17	5722.7	
385.37	6976.7	
385.58	6235.4	
385.78	5709.1	
385.98	4430.4	
386.19	6469.5	
386.39	6931	
386.6	5175.2	
386.8	5459.9	
387.01	7098.3	
387.21	7122.2	
387.42	5864	
387.62	6557.6	
387.83	6392.4	
388.03	7157.7	
388.23	5591	
388.44	6470.2	
388.64	6277.7	
388.85	6433.4	
389.05	6091.3	
389.26	6693.4	
389.46	8386.4	
389.67	7755.7	
389.87	6159.6	
390.07	6219	
390.28	6920.8	
390.48	6480.5	
390.69	5196.4	
390.89	5624.4	
391.1	6640.2	
391.3	7631.4	
391.5	6859.3	
391.71	7558.4	
391.91	7388.4	
392.12	8463.6	
392.32	6987	
392.53	6061.3	
392.73	6741.2	
392.93	6947.4	
393.14	5730.9	
393.34	6522.8	
393.55	7434.8	
393.75	6904.4	
393.95	5629.9	
394.16	5591.6	
394.36	6666.1	
394.57	7290.1	
394.77	5194.3	
394.98	5608.7	
395.18	6767.2	
395.38	6881.2	
395.59	6761.7	
395.79	5687.9	
396	7021.8	
396.2	7568.6	
396.4	6589	
396.61	6573.3	
396.81	7747.5	
397.02	7059.3	
397.22	6893.5	
397.42	6934.4	
397.63	7795.3	
397.83	7119.4	
398.04	5753.4	
398.24	6473.6	
398.44	7524.2	
398.65	6609.5	
398.85	5648.3	
399.05	5840.8	
399.26	6996.5	
399.46	8897.7	
399.67	6284.5	
399.87	5909.1	
400.07	7565.9	
400.28	7905.8	
400.48	6108.4	
400.69	7372	
400.89	8301.1	
401.09	8663.6	
401.3	6073.6	
401.5	7372.7	
401.7	9006.3	
401.91	9136	
402.11	6455.2	
402.32	6651.8	
402.52	8201.4	
402.72	8020.5	
402.93	6733	
403.13	5384.8	
403.33	8708	
403.54	7265.5	
403.74	6066.1	
403.94	6949.4	
404.15	7319.4	
404.35	8615.8	
404.56	6057.9	
404.76	7912.7	
404.96	8051.2	
405.17	7864.2	
405.37	7600.7	
405.57	6766.5	
405.78	8248.5	
405.98	7582.9	
406.18	7084.6	
406.39	7211.6	
406.59	8131.1	
406.79	7644.4	
407	5906.3	
407.2	5990.3	
407.4	8108.6	
407.61	8424.7	
407.81	6263.4	
408.01	8675.9	
408.22	7550.2	
408.42	9682.1	
408.62	7933.1	
408.83	7413.6	
409.03	8430.1	
409.23	8285.4	
409.44	7545.4	
409.64	7946.1	
409.84	9598.8	
410.05	9634.3	
410.25	7992.5	
410.45	7647.8	
410.66	9312.8	
410.86	11686	
411.06	8488.1	
411.27	8219.9	
411.47	11812	
411.67	9615.9	
411.88	8550.3	
412.08	8929.8	
412.28	10352	
412.49	10879	
412.69	8452	
412.89	8563.2	
413.09	10725	
413.3	10695	
413.5	8705.2	
413.7	8231.5	
413.91	9812.5	
414.11	10706	
414.31	8644.5	
414.52	9129.2	
414.72	10469	
414.92	10492	
415.12	8649.9	
415.33	9207.7	
415.53	10863	
415.73	11105	
415.94	9540.1	
416.14	9041.8	
416.34	9932	
416.55	9646.6	
416.75	10311	
416.95	9682.8	
417.15	11097	
417.36	11628	
417.56	10645	
417.76	9708.7	
417.97	11508	
418.17	11261	
418.37	9191.3	
418.57	9359.2	
418.78	10973	
418.98	10499	
419.18	10172	
419.38	9962.7	
419.59	10482	
419.79	9956.5	
419.99	9028.8	
420.2	9373.6	
420.4	11093	
420.6	11172	
420.8	9098.4	
421.01	8850.6	
421.21	11024	
421.41	11228	
421.61	9512.8	
421.82	9018.6	
422.02	10499	
422.22	11228	
422.42	9957.9	
422.63	9292.3	
422.83	10576	
423.03	11779	
423.23	9394	
423.44	8483.4	
423.64	10522	
423.84	10152	
424.04	8882.7	
424.25	8480	
424.45	11406	
424.65	11349	
424.85	8247.9	
425.06	8946.2	
425.26	11379	
425.46	9828.9	
425.66	9321.7	
425.87	8976.9	
426.07	11028	
426.27	10889	
426.47	9164.7	
426.67	8292.2	
426.88	11241	
427.08	10748	
427.28	9495.7	
427.48	8372.1	
427.69	9590	
427.89	10301	
428.09	9467.8	
428.29	8454	
428.5	11068	
428.7	10470	
428.9	8423.3	
429.1	8926.4	
429.3	10550	
429.51	11101	
429.71	8647.2	
429.91	9706.7	
430.11	10980	
430.31	11413	
430.52	9140.1	
430.72	9719.7	
430.92	11753	
431.12	11130	
431.32	8947.6	
431.53	9197.4	
431.73	9937.4	
431.93	11682	
432.13	8699.1	
432.33	8817.9	
432.54	10436	
432.74	10901	
432.94	8908	
433.14	9717.6	
433.34	11000	
433.55	10783	
433.75	9886.2	
433.95	11860	
434.15	11047	
434.35	10666	
434.56	9021.3	
434.76	8667	
434.96	11121	
435.16	11469	
435.36	9051.3	
435.56	10425	
435.77	10781	
435.97	11078	
436.17	11170	
436.37	10337	
436.57	10913	
436.78	10936	
436.98	11992	
437.18	10869	
437.38	11787	
437.58	11011	
437.78	10964	
437.99	9492.3	
438.19	11328	
438.39	12151	
438.59	9376.3	
438.79	8697.7	
438.99	12005	
439.2	10783	
439.4	8890.9	
439.6	8962.6	
439.8	11436	
440	12681	
440.2	10527	
440.4	10662	
440.61	12156	
440.81	12756	
441.01	9880.8	
441.21	10881	
441.41	12859	
441.61	12041	
441.81	11159	
442.02	12180	
442.22	13126	
442.42	12267	
442.62	9929.9	
442.82	9926.5	
443.02	12784	
443.22	11916	
443.43	10611	
443.63	10144	
443.83	11667	
444.03	11762	
444.23	11665	
444.43	11034	
444.63	12263	
444.83	13343	
445.04	10368	
445.24	11649	
445.44	12306	
445.64	12443	
445.84	10671	
446.04	10845	
446.24	11435	
446.44	12645	
446.65	9773.6	
446.85	10440	
447.05	11555	
447.25	12476	
447.45	10494	
447.65	9849.4	
447.85	11914	
448.05	11307	
448.25	11000	
448.46	10753	
448.66	11968	
448.86	11548	
449.06	9684.8	
449.26	11028	
449.46	12516	
449.66	11327	
449.86	10733	
450.06	10617	
450.26	11703	
450.47	12247	
450.67	10676	
450.87	11199	
451.07	12344	
451.27	12280	
451.47	10075	
451.67	10854	
451.87	11963	
452.07	12930	
452.27	10615	
452.47	10357	
452.67	12054	
452.88	12725	
453.08	9659.6	
453.28	11964	
453.48	13561	
453.68	11898	
453.88	10598	
454.08	10689	
454.28	12730	
454.48	12363	
454.68	11283	
454.88	11844	
455.08	12852	
455.28	12973	
455.48	10420	
455.68	11398	
455.89	13558	
456.09	13338	
456.29	10998	
456.49	11329	
456.69	13635	
456.89	12719	
457.09	11852	
457.29	12315	
457.49	13388	
457.69	13673	
457.89	12048	
458.09	11301	
458.29	13338	
458.49	14156	
458.69	12458	
458.89	11895	
459.09	14585	
459.29	14536	
459.49	11854	
459.69	12721	
459.9	13740	
460.1	13516	
460.3	11603	
460.5	11462	
460.7	13958	
460.9	13738	
461.1	11389	
461.3	12841	
461.5	14846	
461.7	14404	
461.9	12308	
462.1	12498	
462.3	14206	
462.5	14816	
462.7	12278	
462.9	12541	
463.1	15872	
463.3	15887	
463.5	12805	
463.7	14170	
463.9	14781	
464.1	15077	
464.3	13562	
464.5	13424	
464.7	15637	
464.9	15493	
465.1	14982	
465.3	14119	
465.5	15879	
465.7	15914	
465.9	14468	
466.1	13875	
466.3	16109	
466.5	15476	
466.7	15425	
466.9	13993	
467.1	15803	
467.3	16685	
467.5	15378	
467.7	14260	
467.9	17021	
468.1	18044	
468.3	14823	
468.5	15489	
468.7	15943	
468.9	15812	
469.1	14595	
469.3	15573	
469.5	18049	
469.7	15651	
469.9	14742	
470.1	14438	
470.3	16047	
470.5	15952	
470.7	15791	
470.9	14467	
471.1	15827	
471.3	15872	
471.5	14214	
471.69	16135	
471.89	15504	
472.09	15001	
472.29	15061	
472.49	14992	
472.69	15240	
472.89	15964	
473.09	14085	
473.29	13872	
473.49	15236	
473.69	15326	
473.89	14902	
474.09	14055	
474.29	16717	
474.49	16386	
474.69	15014	
474.89	14205	
475.09	15457	
475.29	15481	
475.49	13553	
475.69	13883	
475.88	16993	
476.08	15702	
476.28	13500	
476.48	13618	
476.68	15783	
476.88	15700	
477.08	13497	
477.28	14063	
477.48	15134	
477.68	15819	
477.88	13495	
478.08	13823	
478.28	16311	
478.48	15505	
478.67	14123	
478.87	13228	
479.07	16348	
479.27	15377	
479.47	14044	
479.67	14071	
479.87	16022	
480.07	16608	
480.27	13462	
480.47	15132	
480.67	15593	
480.87	16534	
481.06	13715	
481.26	14613	
481.46	15663	
481.66	15537	
481.86	14277	
482.06	15304	
482.26	15307	
482.46	16132	
482.66	14227	
482.86	13724	
483.05	15927	
483.25	15218	
483.45	16782	
483.65	14299	
483.85	15547	
484.05	15810	
484.25	14827	
484.45	15489	
484.65	16798	
484.84	16909	
485.04	14545	
485.24	14502	
485.44	17194	
485.64	15559	
485.84	13904	
486.04	15456	
486.24	15924	
486.44	16337	
486.63	14006	
486.83	14898	
487.03	15976	
487.23	16522	
487.43	14020	
487.63	16784	
487.83	16468	
488.02	17382	
488.22	15451	
488.42	16237	
488.62	17422	
488.82	16318	
489.02	14945	
489.22	15304	
489.41	17148	
489.61	17115	
489.81	14835	
490.01	14997	
490.21	17232	
490.41	18062	
490.61	14891	
490.8	15055	
491	16679	
491.2	15844	
491.4	15512	
491.6	14485	
491.8	16333	
491.99	16470	
492.19	14244	
492.39	14734	
492.59	17152	
492.79	17552	
492.99	15920	
493.18	15194	
493.38	17849	
493.58	18991	
493.78	16281	
493.98	15900	
494.18	17748	
494.37	17572	
494.57	16923	
494.77	16630	
494.97	18516	
495.17	18929	
495.37	16683	
495.56	16872	
495.76	19180	
495.96	18824	
496.16	18091	
496.36	16888	
496.55	19135	
496.75	18783	
496.95	17212	
497.15	17101	
497.35	18865	
497.54	19163	
497.74	17036	
497.94	18673	
498.14	20024	
498.34	19807	
498.53	17010	
498.73	17902	
498.93	18737	
499.13	19351	
499.33	17662	
499.52	18125	
499.72	19630	
499.92	19641	
500.12	17486	
500.32	17713	
500.51	19693	
500.71	19738	
500.91	18621	
501.11	18129	
501.31	19800	
501.5	20046	
501.7	18972	
501.9	18014	
502.1	19398	
502.29	19727	
502.49	18385	
502.69	18393	
502.89	19519	
503.09	19604	
503.28	16688	
503.48	16956	
503.68	18358	
503.88	18658	
504.07	18004	
504.27	17287	
504.47	18931	
504.67	18957	
504.86	17893	
505.06	17335	
505.26	18376	
505.46	20237	
505.65	17217	
505.85	17182	
506.05	18118	
506.25	18576	
506.44	16221	
506.64	17268	
506.84	17866	
507.04	18877	
507.23	16367	
507.43	17044	
507.63	20045	
507.83	18296	
508.02	17025	
508.22	16672	
508.42	20183	
508.62	17937	
508.81	16623	
509.01	17596	
509.21	17589	
509.4	17986	
509.6	16944	
509.8	16522	
510	17948	
510.19	19838	
510.39	16450	
510.59	16606	
510.79	17968	
510.98	19491	
511.18	16627	
511.38	16832	
511.57	18646	
511.77	18695	
511.97	17262	
512.17	16088	
512.36	18739	
512.56	18475	
512.76	16139	
512.95	16020	
513.15	18570	
513.35	17410	
513.55	17330	
513.74	16545	
513.94	18858	
514.14	18042	
514.33	17505	
514.53	17122	
514.73	18099	
514.92	18429	
515.12	16677	
515.32	16607	
515.51	18516	
515.71	19131	
515.91	18419	
516.11	16834	
516.3	20400	
516.5	18144	
516.7	17224	
516.89	17884	
517.09	18095	
517.29	18163	
517.48	17479	
517.68	16778	
517.88	17953	
518.07	18466	
518.27	17347	
518.47	16373	
518.66	19188	
518.86	17865	
519.06	16026	
519.25	16657	
519.45	18253	
519.65	19947	
519.84	17529	
520.04	18336	
520.24	20206	
520.43	18992	
520.63	16961	
520.83	16641	
521.02	17678	
521.22	18266	
521.42	16867	
521.61	17693	
521.81	17899	
522.01	18159	
522.2	17083	
522.4	17009	
522.6	19037	
522.79	17978	
522.99	17256	
523.18	16841	
523.38	19036	
523.58	19357	
523.77	19254	
523.97	17112	
524.17	21529	
524.36	20652	
524.56	18976	
524.76	18585	
524.95	19890	
525.15	19415	
525.34	18338	
525.54	18503	
525.74	20387	
525.93	19260	
526.13	19828	
526.33	18572	
526.52	20854	
526.72	20319	
526.91	20092	
527.11	19381	
527.31	21039	
527.5	21592	
527.7	19329	
527.89	18527	
528.09	20223	
528.29	21233	
528.48	20097	
528.68	19510	
528.87	21242	
529.07	21079	
529.27	19112	
529.46	18736	
529.66	20444	
529.85	20919	
530.05	18409	
530.25	19218	
530.44	22162	
530.64	20444	
530.83	18987	
531.03	19430	
531.23	21237	
531.42	21205	
531.62	20553	
531.81	19663	
532.01	21976	
532.21	22478	
532.4	19906	
532.6	20416	
532.79	23091	
532.99	22435	
533.18	20577	
533.38	21620	
533.58	21892	
533.77	22623	
533.97	20710	
534.16	21528	
534.36	23143	
534.55	22417	
534.75	21710	
534.95	20914	
535.14	23150	
535.34	22179	
535.53	20160	
535.73	22376	
535.92	23248	
536.12	21896	
536.31	20331	
536.51	21541	
536.71	22121	
536.9	21902	
537.1	20403	
537.29	20564	
537.49	22799	
537.68	21918	
537.88	21275	
538.07	20291	
538.27	22285	
538.46	23404	
538.66	20375	
538.86	20931	
539.05	22272	
539.25	22893	
539.44	21231	
539.64	20509	
539.83	21992	
540.03	23012	
540.22	20228	
540.42	20074	
540.61	21975	
540.81	22392	
541	20715	
541.2	21678	
541.39	21548	
541.59	22072	
541.78	21188	
541.98	19910	
542.18	21129	
542.37	21016	
542.57	20025	
542.76	20978	
542.96	20810	
543.15	21627	
543.35	19856	
543.54	19156	
543.74	21730	
543.93	21302	
544.13	19715	
544.32	20794	
544.52	21415	
544.71	20810	
544.91	18820	
545.1	20207	
545.3	20788	
545.49	21638	
545.69	18699	
545.88	19396	
546.08	22337	
546.27	21850	
546.47	19866	
546.66	19106	
546.86	21553	
547.05	22178	
547.24	19207	
547.44	19347	
547.63	20274	
547.83	21634	
548.02	19642	
548.22	19847	
548.41	20232	
548.61	21535	
548.8	18896	
549	18989	
549.19	20532	
549.39	21077	
549.58	18512	
549.78	19170	
549.97	20996	
550.17	20415	
550.36	19729	
550.55	20834	
550.75	20357	
550.94	21237	
551.14	18596	
551.33	18893	
551.53	19740	
551.72	20811	
551.92	18832	
552.11	18809	
552.31	20744	
552.5	20711	
552.69	20415	
552.89	18222	
553.08	20458	
553.28	20219	
553.47	18796	
553.67	19858	
553.86	21166	
554.06	19398	
554.25	17714	
554.44	18433	
554.64	21726	
554.83	21405	
555.03	18273	
555.22	18680	
555.42	20657	
555.61	20203	
555.8	18215	
556	18497	
556.19	19410	
556.39	20767	
556.58	18331	
556.78	18448	
556.97	20149	
557.16	19935	
557.36	19622	
557.55	18168	
557.75	19075	
557.94	20948	
558.13	18195	
558.33	17830	
558.52	20708	
558.72	19519	
558.91	17987	
559.1	17889	
559.3	19221	
559.49	18656	
559.69	17269	
559.88	18379	
560.07	19990	
560.27	20529	
560.46	18721	
560.66	18769	
560.85	19744	
561.04	18645	
561.24	17691	
561.43	17667	
561.63	19013	
561.82	19260	
562.01	19239	
562.21	18334	
562.4	19762	
562.59	20984	
562.79	18364	
562.98	17880	
563.18	19875	
563.37	21510	
563.56	18899	
563.76	17926	
563.95	19417	
564.14	19330	
564.34	18340	
564.53	18172	
564.73	19990	
564.92	20517	
565.11	18858	
565.31	18130	
565.5	20889	
565.69	19683	
565.89	18320	
566.08	18593	
566.27	20747	
566.47	21328	
566.66	19398	
566.85	18158	
567.05	20481	
567.24	19775	
567.44	18325	
567.63	19815	
567.82	20556	
568.02	20459	
568.21	18467	
568.4	18710	
568.6	20476	
568.79	20443	
568.98	18421	
569.18	18786	
569.37	20588	
569.56	22824	
569.76	19213	
569.95	20235	
570.14	20786	
570.34	20991	
570.53	18478	
570.72	18598	
570.91	21401	
571.11	20509	
571.3	18884	
571.49	19889	
571.69	20604	
571.88	20141	
572.07	19710	
572.27	19567	
572.46	19990	
572.65	21087	
572.85	18961	
573.04	19419	
573.23	21725	
573.43	20915	
573.62	19093	
573.81	19683	
574	21351	
574.2	20995	
574.39	19620	
574.58	19936	
574.78	22445	
574.97	21565	
575.16	20334	
575.36	20558	
575.55	21990	
575.74	21973	
575.93	19368	
576.13	20755	
576.32	21246	
576.51	22166	
576.71	19766	
576.9	21451	
577.09	22398	
577.28	21754	
577.48	20332	
577.67	19340	
577.86	21557	
578.05	21981	
578.25	20289	
578.44	20295	
578.63	21842	
578.83	23102	
579.02	19533	
579.21	21323	
579.4	21987	
579.6	21717	
579.79	20253	
579.98	22642	
580.17	22384	
580.37	22487	
580.56	19830	
580.75	20949	
580.94	23173	
581.14	22823	
581.33	21134	
581.52	20176	
581.71	22430	
581.91	23043	
582.1	20050	
582.29	20393	
582.48	21997	
582.68	21964	
582.87	20973	
583.06	20588	
583.25	22324	
583.45	22227	
583.64	21547	
583.83	22127	
584.02	21880	
584.21	22537	
584.41	21332	
584.6	20629	
584.79	22073	
584.98	22999	
585.18	19885	
585.37	20210	
585.56	21541	
585.75	22531	
585.94	20137	
586.14	21067	
586.33	22644	
586.52	21932	
586.71	20215	
586.91	20196	
587.1	20710	
587.29	21932	
587.48	19754	
587.67	19694	
587.87	21682	
588.06	21716	
588.25	21134	
588.44	20260	
588.63	21192	
588.83	21703	
589.02	19309	
589.21	19065	
589.4	20233	
589.59	20086	
589.78	17491	
589.98	17715	
590.17	18959	
590.36	19600	
590.55	16702	
590.74	17228	
590.94	20556	
591.13	19252	
591.32	17367	
591.51	17082	
591.7	20058	
591.89	19609	
592.09	17258	
592.28	17728	
592.47	18781	
592.66	20848	
592.85	17350	
593.05	17591	
593.24	19348	
593.43	20205	
593.62	17731	
593.81	18402	
594	19469	
594.19	19730	
594.39	17721	
594.58	17588	
594.77	19796	
594.96	20301	
595.15	17290	
595.34	17962	
595.54	19454	
595.73	18600	
595.92	16521	
596.11	17783	
596.3	20089	
596.49	18667	
596.68	17496	
596.88	18087	
597.07	19871	
597.26	18591	
597.45	16962	
597.64	18330	
597.83	18732	
598.02	19437	
598.22	17046	
598.41	17731	
598.6	19075	
598.79	18583	
598.98	17040	
599.17	18045	
599.36	19051	
599.55	20334	
599.74	19113	
599.94	18955	
600.13	19827	
600.32	18437	
600.51	16710	
600.7	16981	
600.89	20228	
601.08	20265	
601.27	16638	
601.47	17563	
601.66	19412	
601.85	20103	
602.04	17361	
602.23	17459	
602.42	18422	
602.61	19037	
602.8	17139	
602.99	16802	
603.18	18777	
603.37	19108	
603.57	17520	
603.76	18063	
603.95	19912	
604.14	19576	
604.33	17084	
604.52	17458	
604.71	19168	
604.9	18738	
605.09	18020	
605.28	17876	
605.47	19736	
605.66	19289	
605.86	17602	
606.05	16895	
606.24	19468	
606.43	17927	
606.62	17363	
606.81	18125	
607	19324	
607.19	18780	
607.38	16733	
607.57	16949	
607.76	18418	
607.95	17871	
608.14	17428	
608.33	17996	
608.52	18338	
608.72	19294	
608.91	16411	
609.1	16401	
609.29	18348	
609.48	17817	
609.67	17177	
609.86	16270	
610.05	17813	
610.24	18190	
610.43	16181	
610.62	15752	
610.81	19429	
611	19195	
611.19	16282	
611.38	17258	
611.57	18514	
611.76	20052	
611.95	16066	
612.14	15799	
612.33	18355	
612.52	17918	
612.71	16697	
612.9	15820	
613.09	17418	
613.28	19819	
613.47	16236	
613.66	17318	
613.85	18441	
614.04	17785	
614.24	16429	
614.43	15599	
614.62	18503	
614.81	18559	
615	16995	
615.19	17189	
615.38	17880	
615.57	18284	
615.76	16815	
615.95	17815	
616.14	18574	
616.33	18166	
616.52	17230	
616.71	17509	
616.9	18481	
617.09	18501	
617.28	16544	
617.47	18154	
617.66	17787	
617.85	17899	
618.04	17867	
618.22	17284	
618.41	18344	
618.6	19501	
618.79	17323	
618.98	17120	
619.17	19923	
619.36	18054	
619.55	17135	
619.74	17386	
619.93	19297	
620.12	18667	
620.31	18077	
620.5	18314	
620.69	19910	
620.88	20626	
621.07	19017	
621.26	18081	
621.45	19626	
621.64	19689	
621.83	18071	
622.02	17524	
622.21	19736	
622.4	19572	
622.59	18845	
622.78	18679	
622.97	19068	
623.16	20199	
623.35	18251	
623.54	17420	
623.72	19401	
623.91	19486	
624.1	18520	
624.29	17187	
624.48	20726	
624.67	19754	
624.86	18478	
625.05	17546	
625.24	20781	
625.43	19161	
625.62	20442	
625.81	17841	
626	20274	
626.19	19493	
626.38	18773	
626.56	18137	
626.75	19395	
626.94	20292	
627.13	18544	
627.32	17245	
627.51	20084	
627.7	21351	
627.89	17344	
628.08	18546	
628.27	18961	
628.46	19250	
628.65	17533	
628.83	17319	
629.02	19854	
629.21	19073	
629.4	18098	
629.59	18224	
629.78	19266	
629.97	20175	
630.16	18441	
630.35	17870	
630.54	20566	
630.72	20336	
630.91	17794	
631.1	18344	
631.29	19697	
631.48	19823	
631.67	18442	
631.86	17712	
632.05	19398	
632.24	19485	
632.42	17328	
632.61	18235	
632.8	19280	
632.99	18993	
633.18	18066	
633.37	18480	
633.56	19650	
633.75	19554	
633.93	18211	
634.12	17832	
634.31	20374	
634.5	20267	
634.69	17960	
634.88	18243	
635.07	19419	
635.25	19925	
635.44	18827	
635.63	18996	
635.82	19133	
636.01	18613	
636.2	18606	
636.39	18232	
636.57	20353	
636.76	19895	
636.95	17496	
637.14	18744	
637.33	19515	
637.52	20543	
637.7	17354	
637.89	18197	
638.08	19150	
638.27	20557	
638.46	18198	
638.65	18637	
638.83	20341	
639.02	18545	
639.21	17905	
639.4	18380	
639.59	19102	
639.78	18661	
639.96	17056	
640.15	17027	
640.34	18859	
640.53	18998	
640.72	16502	
640.91	16923	
641.09	18252	
641.28	19552	
641.47	16941	
641.66	17829	
641.85	18905	
642.03	18857	
642.22	17320	
642.41	16913	
642.6	18172	
642.79	17347	
642.97	16358	
643.16	17390	
643.35	18003	
643.54	17566	
643.73	16266	
643.91	17128	
644.1	17259	
644.29	18069	
644.48	16183	
644.67	16147	
644.85	17343	
645.04	17573	
645.23	15287	
645.42	15754	
645.6	16714	
645.79	17914	
645.98	15498	
646.17	14517	
646.36	16269	
646.54	16666	
646.73	15779	
646.92	14597	
647.11	16215	
647.29	17233	
647.48	14670	
647.67	14404	
647.86	17561	
648.05	17651	
648.23	15005	
648.42	16285	
648.61	16828	
648.8	16682	
648.98	14610	
649.17	14866	
649.36	16127	
649.55	15741	
649.73	14468	
649.92	15550	
650.11	16115	
650.3	16448	
650.48	14527	
650.67	14338	
650.86	16429	
651.05	15489	
651.23	14501	
651.42	14422	
651.61	15924	
651.79	15998	
651.98	14654	
652.17	14384	
652.36	16140	
652.54	15137	
652.73	14192	
652.92	14036	
653.11	16107	
653.29	16057	
653.48	13180	
653.67	14208	
653.85	15631	
654.04	16677	
654.23	14210	
654.42	13540	
654.6	14606	
654.79	15246	
654.98	12503	
655.16	13079	
655.35	13799	
655.54	13819	
655.73	12669	
655.91	12583	
656.1	15304	
656.29	14100	
656.47	12485	
656.66	14344	
656.85	14681	
657.03	14863	
657.22	13407	
657.41	13371	
657.59	14918	
657.78	14736	
657.97	13038	
658.16	13725	
658.34	15539	
658.53	15928	
658.72	14665	
658.9	15259	
659.09	15094	
659.28	15103	
659.46	13512	
659.65	13419	
659.84	14777	
660.02	15386	
660.21	13321	
660.4	13253	
660.58	15716	
660.77	15234	
660.96	13851	
661.14	12938	
661.33	16227	
661.52	16120	
661.7	12853	
661.89	16685	
662.08	14618	
662.26	14156	
662.45	13053	
662.64	12996	
662.82	15317	
663.01	14490	
663.2	13076	
663.38	13893	
663.57	15081	
663.75	14862	
663.94	13416	
664.13	14689	
664.31	14426	
664.5	15140	
664.69	13780	
664.87	14263	
665.06	14184	
665.25	14999	
665.43	14476	
665.62	14593	
665.8	15170	
665.99	14447	
666.18	13330	
666.36	13443	
666.55	15108	
666.74	15086	
666.92	12931	
667.11	14576	
667.29	14504	
667.48	15009	
667.67	14164	
667.85	13166	
668.04	14489	
668.22	14521	
668.41	13343	
668.6	13466	
668.78	14245	
668.97	14465	
669.15	13571	
669.34	12470	
669.53	14240	
669.71	14577	
669.9	12596	
670.08	13433	
670.27	14212	
670.46	14774	
670.64	13578	
670.83	13777	
671.01	14058	
671.2	14653	
671.38	12829	
671.57	12584	
671.76	15337	
671.94	15917	
672.13	12641	
672.31	13685	
672.5	14971	
672.69	14169	
672.87	12848	
673.06	13122	
673.24	14661	
673.43	14255	
673.61	13441	
673.8	13122	
673.98	14866	
674.17	15030	
674.36	13700	
674.54	13368	
674.73	14607	
674.91	14783	
675.1	13207	
675.28	12824	
675.47	14347	
675.65	15058	
675.84	12995	
676.03	13420	
676.21	14140	
676.4	13775	
676.58	13835	
676.77	13665	
676.95	15685	
677.14	13991	
677.32	12674	
677.51	12495	
677.69	14932	
677.88	13727	
678.06	12576	
678.25	12741	
678.44	14460	
678.62	14037	
678.81	12426	
678.99	13464	
679.18	15116	
679.36	14716	
679.55	13074	
679.73	13703	
679.92	14717	
680.1	14089	
680.29	14189	
680.47	12997	
680.66	13923	
680.84	14925	
681.03	12232	
681.21	13403	
681.4	14214	
681.58	13964	
681.77	12607	
681.95	12577	
682.14	14894	
682.32	15138	
682.51	13448	
682.69	12163	
682.88	13849	
683.06	14468	
683.25	13186	
683.43	13613	
683.62	14182	
683.8	14544	
683.99	13787	
684.17	12837	
684.36	15212	
684.54	13612	
684.73	11374	
684.91	11546	
685.1	13332	
685.28	12719	
685.46	11737	
685.65	11834	
685.83	13455	
686.02	12941	
686.2	11559	
686.39	11723	
686.57	12773	
686.76	14638	
686.94	11779	
687.13	11953	
687.31	13704	
687.5	13370	
687.68	11425	
687.86	12731	
688.05	15152	
688.23	12755	
688.42	12870	
688.6	12073	
688.79	13394	
688.97	13381	
689.16	12575	
689.34	11434	
689.52	14514	
689.71	14489	
689.89	12848	
690.08	12159	
690.26	13784	
690.45	13629	
690.63	12869	
690.81	12191	
691	13240	
691.18	13291	
691.37	12183	
691.55	14507	
691.74	13026	
691.92	15169	
692.1	12102	
692.29	11624	
692.47	13234	
692.66	12633	
692.84	11845	
693.02	12456	
693.21	12973	
693.39	13320	
693.58	12702	
693.76	12130	
693.94	14873	
694.13	14847	
694.31	12334	
694.5	13394	
694.68	13536	
694.86	14091	
695.05	12795	
695.23	13206	
695.42	14444	
695.6	16750	
695.78	13317	
695.97	12209	
696.15	14323	
696.34	13611	
696.52	11860	
696.7	12731	
696.89	13762	
697.07	13203	
697.25	12615	
697.44	14250	
697.62	13735	
697.81	14005	
697.99	12185	
698.17	12771	
698.36	12974	
698.54	13809	
698.72	12611	
698.91	11413	
699.09	13213	
699.28	13158	
699.46	12130	
699.64	12007	
699.83	12998	
700.01	14214	
700.19	12849	
700.38	11299	
700.56	14293	
700.74	13244	
700.93	11721	
701.11	12641	
701.29	13733	
701.48	15020	
701.66	11992	
701.84	12115	
702.03	13457	
702.21	14136	
702.39	11467	
702.58	12284	
702.76	13657	
702.94	13943	
703.13	11516	
703.31	14060	
703.49	13041	
703.68	14357	
703.86	11744	
704.04	12726	
704.23	13624	
704.41	13981	
704.59	11931	
704.78	13107	
704.96	14681	
705.14	13958	
705.33	11620	
705.51	12379	
705.69	13267	
705.87	14184	
706.06	12740	
706.24	11506	
706.42	13525	
706.61	13955	
706.79	12763	
706.97	11537	
707.16	13009	
707.34	13604	
707.52	12617	
707.7	11765	
707.89	13095	
708.07	12762	
708.25	12564	
708.44	13234	
708.62	12979	
708.8	14237	
708.98	12816	
709.17	11693	
709.35	13399	
709.53	13383	
709.72	11361	
709.9	11802	
710.08	13582	
710.26	13601	
710.45	12990	
710.63	11590	
710.81	13213	
710.99	13205	
711.18	12239	
711.36	11686	
711.54	12778	
711.72	13575	
711.91	11513	
712.09	10858	
712.27	12748	
712.45	13291	
712.64	11691	
712.82	10525	
713	12015	
713.18	12058	
713.37	10389	
713.55	11526	
713.73	12662	
713.91	10921	
714.1	10164	
714.28	9453.4	
714.46	11529	
714.64	10606	
714.83	8542.1	
715.01	9226.1	
715.19	10301	
715.37	9740.1	
715.55	8692.3	
715.74	9047.9	
715.92	11143	
716.1	9004.2	
716.28	10147	
716.47	9047.2	
716.65	9781.1	
716.83	9775.6	
717.01	8826.1	
717.19	8992.6	
717.38	12108	
717.56	9608.4	
717.74	9392.7	
717.92	8643.1	
718.1	11068	
718.29	10360	
718.47	8424.7	
718.65	9212.4	
718.83	11324	
719.01	11348	
719.2	8594	
719.38	9781.8	
719.56	11062	
719.74	12598	
719.92	9139.4	
720.11	10114	
720.29	10789	
720.47	9732.6	
720.65	8246.5	
720.83	9112.1	
721.02	9846	
721.2	9588.6	
721.38	9032.2	
721.56	8238.3	
721.74	9050.7	
721.92	9298.5	
722.11	9507.4	
722.29	9295	
722.47	10615	
722.65	9656.9	
722.83	8280.6	
723.01	9128.5	
723.2	9730.6	
723.38	10064	
723.56	7594.6	
723.74	8919.6	
723.92	9230.2	
724.1	10456	
724.29	7995.3	
724.47	9291.6	
724.65	9331.9	
724.83	9109.4	
725.01	7913.4	
725.19	8921.6	
725.37	9263.6	
725.56	9398.8	
725.74	7776.8	
725.92	8026.7	
726.1	9069.8	
726.28	9423.4	
726.46	8430.1	
726.64	8159.8	
726.83	9384.5	
727.01	9704	
727.19	7714	
727.37	8654.7	
727.55	9617.9	
727.73	10091	
727.91	7689.4	
728.09	7578.8	
728.28	10077	
728.46	10693	
728.64	8753	
728.82	8815.1	
729	11366	
729.18	10682	
729.36	8163.2	
729.54	10552	
729.72	11900	
729.91	10116	
730.09	10305	
730.27	9030.9	
730.45	10066	
730.63	10787	
730.81	9682.8	
730.99	8677.9	
731.17	11367	
731.35	9740.8	
731.53	9266.4	
731.71	8734.6	
731.9	10873	
732.08	11120	
732.26	8906.6	
732.44	8635.6	
732.62	11043	
732.8	10639	
732.98	9389.9	
733.16	8425.3	
733.34	10503	
733.52	9211.1	
733.7	8800.8	
733.88	9103.2	
734.07	10222	
734.25	10074	
734.43	8287.4	
734.61	9963.4	
734.79	11655	
734.97	9847.3	
735.15	8411	
735.33	8710.7	
735.51	10212	
735.69	9910.8	
735.87	9938.8	
736.05	8976.9	
736.23	10107	
736.41	9965.4	
736.59	8726.4	
736.77	8973.5	
736.95	10633	
737.13	10031	
737.32	8417.2	
737.5	8677.9	
737.68	11091	
737.86	9809.1	
738.04	8147.5	
738.22	10018	
738.4	9484.1	
738.58	9781.1	
738.76	8814.5	
738.94	7613.7	
739.12	9717.6	
739.3	9534	
739.48	9513.5	
739.66	9151	
739.84	10078	
740.02	10017	
740.2	7793.2	
740.38	8188.5	
740.56	10411	
740.74	9142.8	
740.92	8813.8	
741.1	8654.7	
741.28	9622.7	
741.46	9509.4	
741.64	8264.9	
741.82	8841.1	
742	9721	
742.18	9626.1	
742.36	8493.6	
742.54	7959.1	
742.72	10193	
742.9	8905.3	
743.08	8887.5	
743.26	7501.7	
743.44	10412	
743.62	10264	
743.8	8799.4	
743.98	7873.8	
744.16	9839.1	
744.34	9530.6	
744.52	8775.5	
744.7	8589.9	
744.88	9930.6	
745.06	9408.4	
745.24	8692.9	
745.42	8824.7	
745.6	9939.5	
745.78	9643.9	
745.96	7378.8	
746.14	7718.1	
746.32	10676	
746.5	9879.4	
746.68	8331.8	
746.86	7707.2	
747.03	10361	
747.21	8434.9	
747.39	8234.9	
747.57	7749.5	
747.75	9362.6	
747.93	9833	
748.11	7651.2	
748.29	7627.3	
748.47	11062	
748.65	9052	
748.83	8346.8	
749.01	8115.4	
749.19	9596.8	
749.37	8761.2	
749.55	7939.3	
749.73	7881.3	
749.91	9183.1	
750.09	8834.9	
750.26	8046.5	
750.44	7418.4	
750.62	9286.9	
750.8	9201.5	
750.98	7256.6	
751.16	7548.8	
751.34	9201.5	
751.52	8502.5	
751.7	8355.7	
751.88	7181.5	
752.06	9718.3	
752.24	9389.3	
752.42	7114	
752.59	7537.9	
752.77	8982.4	
752.95	10421	
753.13	8353.7	
753.31	7724.3	
753.49	8718.2	
753.67	9170.8	
753.85	7905.8	
754.03	7445	
754.21	9398.8	
754.38	9604.3	
754.56	7436.2	
754.74	6359.6	
754.92	8305.2	
755.1	9020.6	
755.28	6208.1	
755.46	5954.8	
755.64	9198.8	
755.82	9160.6	
755.99	5600.5	
756.17	5513.8	
756.35	5990.3	
756.53	7534.5	
756.71	4106.9	
756.89	5194.3	
757.07	7172	
757.25	6213.5	
757.42	5958.9	
757.6	6984.3	
757.78	7627.3	
757.96	6641.6	
758.14	5965.1	
758.32	5390.3	
758.5	6105	
758.67	6936.5	
758.85	5641.5	
759.03	5734.3	
759.21	7077.1	
759.39	6483.9	
759.57	5169.8	
759.75	6442.9	
759.92	7847.1	
760.1	7021.8	
760.28	6841.6	
760.46	7210.9	
760.64	6965.1	
760.82	6759.7	
760.99	6655.2	
761.17	6035.4	
761.35	8008.2	
761.53	6971.3	
761.71	6324.8	
761.89	7010.2	
762.06	7992.5	
762.24	7487.4	
762.42	6376.7	
762.6	6283.9	
762.78	7529.7	
762.96	8289.5	
763.13	6982.9	
763.31	6661.4	
763.49	8507.3	
763.67	7575.4	
763.85	7565.9	
764.02	8082.6	
764.2	8793.3	
764.38	7938.6	
764.56	6458.6	
764.74	7341.3	
764.91	8883.4	
765.09	7631.4	
765.27	6133.7	
765.45	5849.7	
765.63	8791.2	
765.8	8716.8	
765.98	5502.2	
766.16	5916.6	
766.34	7103.7	
766.52	6892.1	
766.69	6922.8	
766.87	5698.1	
767.05	7493.5	
767.23	8312.7	
767.41	5898.8	
767.58	6139.8	
767.76	7943.4	
767.94	8090.8	
768.12	5889.3	
768.29	6712.6	
768.47	7402	
768.65	8165.3	
768.83	5571.2	
769	6755.6	
769.18	6897.6	
769.36	7727.7	
769.54	6748.1	
769.72	5457.2	
769.89	7855.3	
770.07	8013.7	
770.25	5767.1	
770.43	6954.2	
770.6	8637.6	
770.78	9055.4	
770.96	5863.3	
771.14	6629.3	
771.31	7713.3	
771.49	6977.4	
771.67	4914.4	
771.85	5260.5	
772.02	6143.2	
772.2	6969.9	
772.38	5890	
772.55	5404.6	
772.73	7193.1	
772.91	6917.4	
773.09	5783.5	
773.26	5789.6	
773.44	7048.4	
773.62	6693.4	
773.8	5173.9	
773.97	4882.4	
774.15	7086.7	
774.33	6647	
774.5	4994.3	
774.68	5372.5	
774.86	7152.2	
775.04	6556.9	
775.21	5085.8	
775.39	5009.3	
775.57	6847.7	
775.74	7293.5	
775.92	4887.1	
776.1	4758.8	
776.27	6807.4	
776.45	8097.7	
776.63	4924.7	
776.81	4442.7	
776.98	6372.6	
777.16	7494.9	
777.34	5120.6	
777.51	5430.5	
777.69	6268.8	
777.87	6094.1	
778.04	5076.2	
778.22	5729.5	
778.4	6016.2	
778.57	6754.9	
778.75	4243.4	
778.93	4588.1	
779.1	5711.1	
779.28	5711.8	
779.46	4252.3	
779.64	4808.6	
779.81	6874.3	
779.99	7751.6	
780.17	5610.8	
780.34	5689.9	
780.52	6243.6	
780.69	6419.7	
780.87	5091.9	
781.05	4547.2	
781.22	6343.2	
781.4	6337.8	
781.58	4703.5	
781.75	3788.7	
781.93	6300.2	
782.11	5666	
782.28	5565.7	
782.46	4670.7	
782.64	5475.6	
782.81	6404	
782.99	4632.5	
783.17	4666.6	
783.34	6272.2	
783.52	5481.7	
783.69	4894	
783.87	5734.3	
784.05	5567.1	
784.22	5537.7	
784.4	5681.7	
784.58	4944.5	
784.75	6517.3	
784.93	5564.3	
785.1	4569	
785.28	5181.4	
785.46	6256.5	
785.63	5479.7	
785.81	4571.7	
785.99	4305.5	
786.16	5619.6	
786.34	6075	
786.51	4402.5	
786.69	4805.2	
786.87	5201.2	
787.04	5773.9	
787.22	4254.3	
787.39	5210	
787.57	5388.9	
787.75	6639.5	
787.92	5397.1	
788.1	5339.7	
788.27	5510.4	
788.45	5203.9	
788.63	4945.2	
788.8	3654.9	
788.98	5758.9	
789.15	5100.1	
789.33	3812	
789.5	4491.9	
789.68	6388.3	
789.86	6599.9	
790.03	4824.3	
790.21	4278.2	
790.38	6339.8	
790.56	5487.2	
790.73	4123.9	
790.91	4186.7	
791.09	5358.9	
791.26	6158.2	
791.44	4354	
791.61	3775.8	
791.79	5362.9	
791.96	5436	
792.14	3906.8	
792.32	3451.5	
792.49	5333.6	
792.67	5536.3	
792.84	4008.6	
793.02	3729.4	
793.19	5812.1	
793.37	6554.9	
793.54	3425.6	
793.72	3851.5	
793.89	6752.2	
794.07	5354.8	
794.25	4389.5	
794.42	3525.9	
794.6	6449.7	
794.77	5997.1	
794.95	4787.5	
795.12	4129.4	
795.3	5276.9	
795.47	5980.1	
795.65	4574.5	
795.82	4345.1	
796	5090.6	
796.17	7135.8	
796.35	4207.2	
796.52	4967	
796.7	5849	
796.87	5953.4	
797.05	5237.3	
797.22	5130.2	
797.4	5874.9	
797.57	7004.7	
797.75	4385.4	
797.92	4039.3	
798.1	6182.1	
798.27	5266.7	
798.45	3499.3	
798.62	3794.9	
798.8	5584.8	
798.97	6180.8	
799.15	4598.4	
799.32	4349.9	
799.5	4824.3	
799.67	5679	
799.85	4756.1	
800.02	3411.9	
800.2	5199.8	
800.37	5615.5	
800.55	4984.8	
800.72	4100	
800.9	6017.6	
801.07	6564.4	
801.25	5498.8	
801.42	4440.7	
801.6	6120	
801.77	5888.6	
801.95	4172.4	
802.12	3934.8	
802.29	5823.7	
802.47	5772.5	
802.64	4407.2	
802.82	3373	
802.99	5180.7	
803.17	6234.7	
803.34	4273.4	
803.52	3882.9	
803.69	6922.1	
803.87	4998.4	
804.04	4297.3	
804.21	4390.8	
804.39	6360.3	
804.56	5451	
804.74	3648.8	
804.91	4504.8	
805.09	5221	
805.26	5292.6	
805.44	3762.1	
805.61	4087.7	
805.78	5900.2	
805.96	5967.1	
806.13	4467.3	
806.31	4790.2	
806.48	4718.5	
806.66	5308.3	
806.83	4368.3	
807	4305.5	
807.18	5210	
807.35	5573.9	
807.53	4315.1	
807.7	3422.2	
807.87	6443.6	
808.05	5265.3	
808.22	4763.6	
808.4	3452.9	
808.57	5257.8	
808.74	4846.2	
808.92	3928.7	
809.09	4951.3	
809.27	5072.1	
809.44	5741.1	
809.61	3492.5	
809.79	3858.4	
809.96	6438.1	
810.14	6055.8	
810.31	3282.2	
810.48	4111	
810.66	5304.2	
810.83	6083.1	
811.01	3917.8	
811.18	4414.1	
811.35	5992.4	
811.53	4681	
811.7	4695.3	
811.87	4443.4	
812.05	5227.8	
812.22	5154.1	
812.39	3774.4	
812.57	3676.1	
812.74	5199.1	
812.92	6976.1	
813.09	4105.5	
813.26	4543.8	
813.44	6685.9	
813.61	5158.8	
813.78	3381.2	
813.96	4572.4	
814.13	5272.8	
814.3	4868.7	
814.48	4978.6	
814.65	4099.4	
814.82	6453.1	
815	4975.9	
815.17	4246.8	
815.34	5178.6	
815.52	5182	
815.69	5180	
815.87	4261.1	
816.04	3618.8	
816.21	5262.6	
816.38	4576.5	
816.56	4086.4	
816.73	3782.6	
816.9	6610.2	
817.08	6006.7	
817.25	3817.4	
817.42	4885.8	
817.6	4726.7	
817.77	5246.9	
817.94	4302.1	
818.12	3793.5	
818.29	4936.3	
818.46	7823.2	
818.64	3886.4	
818.81	3720.5	
818.98	4875.5	
819.16	7106.5	
819.33	4531.5	
819.5	4195.6	
819.67	5615.5	
819.85	6283.2	
820.02	4149.2	
820.19	4364.2	
820.37	5405.3	
820.54	4973.2	
820.71	4293.9	
820.88	5280.3	
821.06	5451	
821.23	5005.2	
821.4	4321.2	
821.58	4213.4	
821.75	5999.2	
821.92	5347.9	
822.09	3428.3	
822.27	3605.1	
822.44	5186.1	
822.61	5120.6	
822.79	3440.6	
822.96	6687.3	
823.13	5760.3	
823.3	4898.1	
823.48	4037.9	
823.65	3625.6	
823.82	5928.9	
823.99	4746.5	
824.17	5141.8	
824.34	3678.8	
824.51	6967.9	
824.68	5215.5	
824.86	3798.3	
825.03	4276.8	
825.2	5195.7	
825.37	6274.3	
825.55	3779.9	
825.72	4264.6	
825.89	6952.9	
826.06	6447	
826.24	4149.2	
826.41	4141	
826.58	6318.7	
826.75	5511.8	
826.92	3219.4	
827.1	3594.9	
827.27	8740.7	
827.44	6916	
827.61	3842.7	
827.79	4773.1	
827.96	4918.5	
828.13	5328.8	
828.3	4121.2	
828.47	3446.7	
828.65	5392.3	
828.82	5379.3	
828.99	5314.5	
829.16	4655	
829.34	5882.4	
829.51	5551.4	
829.68	4205.8	
829.85	4348.5	
830.02	6070.2	
830.2	5817.6	
830.37	3272.7	
830.54	5111.7	
830.71	6667.5	
830.88	5154.1	
831.05	3310.9	
831.23	3856.3	
831.4	6401.3	
831.57	7159.7	
831.74	3910.9	
831.91	3467.2	
832.09	5429.8	
832.26	5842.9	
832.43	4044.1	
832.6	4564.9	
832.77	5508.4	
832.94	6208.1	
833.12	3245.3	
833.29	4012	
833.46	5103.5	
833.63	7443	
833.8	4356.7	
833.97	4055	
834.15	5821.7	
834.32	5563	
834.49	4134.8	
834.66	4347.8	
834.83	5994.4	
835	4919.2	
835.17	3875.4	
835.35	3936.9	
835.52	5733.6	
835.69	5639.4	
835.86	4123.9	
836.03	3381.2	
836.2	5787.6	
836.37	5425.8	
836.55	4136.9	
836.72	3816	
836.89	5309.7	
837.06	5952.1	
837.23	4156.7	
837.4	4532.8	
837.57	6733.7	
837.75	7385.7	
837.92	3750.5	
838.09	3945.8	
838.26	5378	
838.43	6134.3	
838.6	4304.1	
838.77	3830.4	
838.94	6999.3	
839.11	6677.7	
839.29	4090.5	
839.46	3252.2	
839.63	5755.5	
839.8	5531.6	
839.97	3947.1	
840.14	3960.1	
840.31	5584.1	
840.48	5842.9	
840.65	3206.4	
840.82	3996.3	
841	5816.9	
841.17	5815.5	
841.34	3648.1	
841.51	3716.4	
841.68	5727.5	
841.85	5408.7	
842.02	3759.4	
842.19	3071.3	
842.36	5539.8	
842.53	5522	
842.7	3596.2	
842.87	4459.1	
843.05	7292.1	
843.22	5507.7	
843.39	3435.1	
843.56	3760.8	
843.73	5188.2	
843.9	5874.9	
844.07	5854.5	
844.24	4866.7	
844.41	8591.9	
844.58	5047.6	
844.75	3484.3	
844.92	3815.4	
845.09	5760.9	
845.26	5769.1	
845.43	3576.4	
845.6	3805.1	
845.77	5830.6	
845.94	5536.3	
846.12	3992.2	
846.29	4248.9	
846.46	5943.9	
846.63	5821	
846.8	3614	
846.97	4235.9	
847.14	6295.5	
847.31	5787.6	
847.48	4106.2	
847.65	4499.4	
847.82	6070.9	
847.99	6051.7	
848.16	4786.8	
848.33	4476.2	
848.5	5326.1	
848.67	6272.9	
848.84	3608.5	
849.01	3734.8	
849.18	5206.6	
849.35	4839.4	
849.52	4497.3	
849.69	3479.5	
849.86	5975.3	
850.03	6283.2	
850.2	3615.3	
850.37	4389.5	
850.54	6151.4	
850.71	5466	
850.88	4302.1	
851.05	3517	
851.22	5714.5	
851.39	6397.9	
851.56	3416.7	
851.73	4090.5	
851.9	5068.7	
852.07	5989.6	
852.24	3961.5	
852.41	3579.8	
852.58	5581.4	
852.75	5191.6	
852.92	3994.2	
853.09	3506.1	
853.26	5355.4	
853.43	6242.2	
853.6	3621.5	
853.77	3026.9	
853.94	6296.8	
854.11	5722.7	
854.28	5345.9	
854.44	3832.4	
854.61	6918.7	
854.78	6142.5	
854.95	3629.7	
855.12	4573.8	
855.29	4648.9	
855.46	6409.5	
855.63	3545.7	
855.8	4962.9	
855.97	5335.6	
856.14	6119.3	
856.31	5111.7	
856.48	3857.7	
856.65	5317.9	
856.82	5003.2	
856.99	3438.5	
857.16	3867.9	
857.33	7098.3	
857.49	5393.7	
857.66	3857	
857.83	4175.8	
858	5376.6	
858.17	5610.1	
858.34	3353.9	
858.51	3607.2	
858.68	6481.8	
858.85	6515.3	
859.02	4175.8	
859.19	4461.8	
859.36	4998.4	
859.52	5091.3	
859.69	3583.3	
859.86	4247.5	
860.03	5164.3	
860.2	6386.2	
860.37	3254.9	
860.54	3616.7	
860.71	6006.7	
860.88	6442.9	
861.05	4031.8	
861.21	4552.6	
861.38	6481.1	
861.55	4918.5	
861.72	3323.2	
861.89	3937.6	
862.06	6078.4	
862.23	6604.7	
862.4	3476.1	
862.56	3720.5	
862.73	5883.8	
862.9	5572.5	
863.07	4220.2	
863.24	3207.1	
863.41	4958.8	
863.58	5113.1	
863.75	3648.1	
863.91	4130.1	
864.08	6460	
864.25	5955.5	
864.42	4530.8	
864.59	5076.2	
864.76	6732.4	
864.93	5095.3	
865.09	3439.2	
865.26	3831.1	
865.43	6320	
865.6	6702.3	
865.77	3097.2	
865.94	3553.2	
866.1	6360.3	
866.27	6126.8	
866.44	5379.3	
866.61	3340.9	
866.78	5459.9	
866.95	5918.6	
867.11	3450.8	
867.28	3151.8	
867.45	6073.6	
867.62	5152.7	
867.79	4165.6	
867.96	3550.5	
868.12	5081.7	
868.29	6064.7	
868.46	3072	
868.63	4744.5	
868.8	6295.5	
868.97	5966.4	
869.13	3790.8	
869.3	3700.7	
869.47	5874.9	
869.64	6153.5	
869.81	3646.7	
869.97	3622.9	
870.14	5743.2	
870.31	6495.5	
870.48	3528.7	
870.65	4535.6	
870.81	5435.3	
870.98	5264	
871.15	4087.7	
871.32	3719.1	
871.48	5868.1	
871.65	6484.6	
871.82	3497.2	
871.99	3936.9	
872.16	6976.1	
872.32	6311.8	
872.49	3561.4	
872.66	3588.7	
872.83	5978	
872.99	5298.1	
873.16	4072.7	
873.33	3553.2	
873.5	5663.3	
873.67	5640.8	
873.83	3744.4	
874	4752.7	
874.17	5708.4	
874.34	6937.8	
874.5	4599.7	
874.67	4437.3	
874.84	6506.4	
875.01	5008	
875.17	5074.2	
875.34	3572.3	
875.51	5758.9	
875.68	6937.8	
875.84	4287.8	
876.01	5273.5	
876.18	5951.4	
876.34	5928.9	
876.51	3627	
876.68	3481.5	
876.85	5418.9	
877.01	6234	
877.18	5112.4	
877.35	3572.3	
877.52	5545.9	
877.68	5025.7	
877.85	3485.6	
878.02	3507.5	
878.18	5483.1	
878.35	5239.4	
878.52	2864.4	
878.69	4001	
878.85	5993	
879.02	5978	
879.19	5117.9	
879.35	3841.3	
879.52	5885.2	
879.69	6238.8	
879.86	3052.2	
880.02	3969	
880.19	5460.6	
880.36	6750.8	
880.52	4103.4	
880.69	4222.9	
880.86	6063.4	
881.02	6148.7	
881.19	3910.3	
881.36	3870.7	
881.52	5930.2	
881.69	5264.6	
881.86	3876.8	
882.02	3739.6	
882.19	6153.5	
882.36	7310.6	
882.52	3629	
882.69	5000.5	
882.86	5728.2	
883.02	5614.8	
883.19	4316.4	
883.36	4133.5	
883.52	6069.5	
883.69	6936.5	
883.86	3579.8	
884.02	3177.8	
884.19	6015.6	
884.36	5500.2	
884.52	4040.6	
884.69	3802.4	
884.86	5272.8	
885.02	6670.9	
885.19	4007.2	
885.36	4177.2	
885.52	5532.9	
885.69	5689.9	
885.86	5197.1	
886.02	4571.7	
886.19	6001.2	
886.35	5447.6	
886.52	3889.1	
886.69	5073.5	
886.85	5110.4	
887.02	6339.8	
887.19	6339.8	
887.35	6339.8	
887.52	6339.8	
887.68	6339.8	
887.85	6339.8	
888.02	6339.8	
888.18	6339.8	
888.35	6339.8	
888.51	6339.8	
888.68	6339.8	
888.85	6339.8	
889.01	6339.8	
889.18	6339.8	
889.35	6339.8	
889.51	6339.8	
889.68	6339.8	
889.84	6339.8	
890.01	6339.8	
890.17	6339.8	
890.34	6339.8	
890.51	6339.8	
890.67	6339.8	
890.84	6339.8	
891	6339.8	
891.17	6339.8	
891.34	6339.8	
891.5	6339.8	
891.67	6339.8	
891.83	6339.8	
892	6339.8	
892.16	6339.8	
892.33	6339.8	
892.5	6339.8	
892.66	6339.8	
892.83	6339.8	
892.99	6339.8	
893.16	6339.8	
893.32	6339.8	
893.49	6339.8	
893.65	6339.8	
893.82	6339.8	
893.99	6339.8	
894.15	6339.8	
894.32	6339.8	
894.48	6339.8	
894.65	6339.8	
894.81	6339.8	
894.98	6339.8	
895.14	6339.8	
895.31	6339.8	
895.47	6339.8	
895.64	6339.8	
895.81	6339.8	
895.97	6339.8	
896.14	6339.8	
896.3	6339.8	
896.47	6339.8	
896.63	6339.8	
896.8	6339.8	
896.96	6339.8	
897.13	6339.8	
897.29	6339.8	
897.46	6339.8	
897.62	6339.8	
897.79	6339.8	
897.95	6339.8	
898.12	6339.8	
898.28	6339.8	
898.45	6339.8	
898.61	6339.8	
898.78	6339.8	
898.94	6339.8	
899.11	6339.8	
899.27	6339.8	
899.44	6339.8	
899.6	6339.8	
899.77	6339.8	
899.93	6339.8	
900.1	6339.8	
900.26	6339.8	
900.43	6339.8	
900.59	6339.8	
900.76	6339.8	
900.92	6339.8	
901.09	6339.8	
901.25	6339.8	
901.42	6339.8	
901.58	6339.8	
901.75	6339.8	
901.91	6339.8	
902.07	6339.8	
902.24	6339.8	
902.4	6339.8	
902.57	6339.8	
902.73	6339.8	
902.9	6339.8	
903.06	6339.8	
903.23	6339.8	
903.39	6339.8	
903.56	6339.8	
903.72	6339.8	
903.88	6339.8	
904.05	6339.8	
904.21	6339.8	
904.38	6339.8	
904.54	6339.8	
904.71	6339.8	
904.87	6339.8	
905.03	6339.8	
905.2	6339.8	
905.36	6339.8	
905.53	6339.8	
905.69	6339.8	
905.86	6339.8	
906.02	6339.8	
906.18	6339.8	
906.35	6339.8	
906.51	6339.8	
906.68	6339.8	
906.84	6339.8	
907.01	6339.8	
907.17	6339.8	
907.33	6339.8	
907.5	6339.8	
907.66	6339.8	
907.83	6339.8	
907.99	6339.8	
908.15	6339.8	
908.32	6339.8	
908.48	6339.8	
908.65	6339.8	
908.81	6339.8	
908.97	6339.8	
909.14	6339.8	
909.3	6339.8	
909.47	6339.8	
909.63	6339.8	
909.79	6339.8	
909.96	6339.8	
910.12	6339.8	
910.28	6339.8	
910.45	6339.8	
910.61	6339.8	
910.78	6339.8	
910.94	6339.8	
911.1	6339.8	
911.27	6339.8	
911.43	6339.8	
911.59	6339.8	
911.76	6339.8	
911.92	6339.8	
912.08	6339.8	
912.25	6339.8	
912.41	6339.8	
912.57	6339.8	
912.74	6339.8	
912.9	6339.8	
913.07	6339.8	
913.23	6339.8	
913.39	6339.8	
913.56	6339.8	
913.72	6339.8	
913.88	6339.8	
914.05	6339.8	
914.21	6339.8	
914.37	6339.8	
914.54	6339.8	
914.7	6339.8	
914.86	6339.8	
915.03	6339.8	
915.19	6339.8	
