Wavelength	Intensities	
nm	a.u.	
179.22	1923	
179.44	1925.8	
179.65	1920.3	
179.86	1931.2	
180.08	1958.5	
180.29	5018.9	
180.51	3560.1	
180.72	5764.3	
180.94	6787.7	
181.15	3295.9	
181.37	3271.3	
181.58	5609.4	
181.79	5924.1	
182.01	3459	
182.22	3725.3	
182.44	5883.8	
182.65	4894	
182.87	4764.3	
183.08	4096.6	
183.29	6173.9	
183.51	5121.3	
183.72	3806.5	
183.94	5578	
184.15	5514.5	
184.37	5578.7	
184.58	3335.5	
184.79	4567	
185.01	5115.1	
185.22	5952.1	
185.44	4780	
185.65	4052.9	
185.86	5354.8	
186.08	5004.6	
186.29	3235.1	
186.51	3470.6	
186.72	5112.4	
186.94	6030.6	
187.15	4074.8	
187.36	4182.6	
187.58	7945.4	
187.79	5584.1	
188.01	4389.5	
188.22	6778.1	
188.43	6779.5	
188.65	5879.7	
188.86	3467.9	
189.08	4141	
189.29	5313.1	
189.5	5310.4	
189.72	3828.3	
189.93	3916.4	
190.15	6154.8	
190.36	7303.7	
190.57	4268.6	
190.79	4083.6	
191	6253.1	
191.22	6115.2	
191.43	4278.9	
191.64	3437.2	
191.86	6406	
192.07	6120	
192.29	3614.7	
192.5	3831.7	
192.71	6132.3	
192.93	5234.6	
193.14	3759.4	
193.35	3917.8	
193.57	5298.1	
193.78	6153.5	
194	3074.7	
194.21	3745.7	
194.42	5031.9	
194.64	5575.3	
194.85	4130.1	
195.07	4918.5	
195.28	5595.7	
195.49	4784.1	
195.71	5197.7	
195.92	3547.8	
196.13	5737.7	
196.35	5881.8	
196.56	5509	
196.78	4203.1	
196.99	7202.7	
197.2	6795.2	
197.42	4689.8	
197.63	4258.4	
197.84	4903.5	
198.06	5698.8	
198.27	3799	
198.48	5132.9	
198.7	5300.1	
198.91	5395.7	
199.13	4215.4	
199.34	4230.4	
199.55	5941.8	
199.77	4773.1	
199.98	3704.1	
200.19	4216.8	
200.41	5380.7	
200.62	5104.2	
200.83	4375.8	
201.05	4676.2	
201.26	5387.5	
201.47	5163.6	
201.69	3690.4	
201.9	3560.7	
202.11	5516.5	
202.33	6573.3	
202.54	3949.2	
202.76	4399.7	
202.97	5721.3	
203.18	5645.6	
203.4	4348.5	
203.61	4242.7	
203.82	5593.7	
204.04	5218.9	
204.25	4332.8	
204.46	4106.2	
204.68	5543.2	
204.89	5751.4	
205.1	4089.1	
205.32	3549.1	
205.53	5942.5	
205.74	6111.1	
205.96	3010.5	
206.17	4303.5	
206.38	5858.6	
206.6	6123.4	
206.81	4760.2	
207.02	3917.8	
207.24	5824.4	
207.45	6193.7	
207.66	4001	
207.88	3370.3	
208.09	5713.2	
208.3	5511.8	
208.52	3637.2	
208.73	4054.3	
208.94	5522	
209.15	6315.9	
209.37	3992.2	
209.58	4135.5	
209.79	6125.5	
210.01	5354.1	
210.22	3206.4	
210.43	3321.8	
210.65	5546.6	
210.86	5923.4	
211.07	4061.8	
211.29	3694.5	
211.5	5866.7	
211.71	5468.8	
211.93	3623.5	
212.14	3650.2	
212.35	5429.8	
212.56	5699.5	
212.78	4214	
212.99	3417.4	
213.2	6562.4	
213.42	5270.8	
213.63	3800.3	
213.84	4050.9	
214.06	4909.7	
214.27	4993.6	
214.48	3983.3	
214.69	4201.1	
214.91	6211.5	
215.12	6324.8	
215.33	4345.1	
215.55	4843.4	
215.76	6850.5	
215.97	5890	
216.18	4087.7	
216.4	4038.6	
216.61	5219.6	
216.82	6061.3	
217.04	3672.7	
217.25	3844.7	
217.46	6193.1	
217.67	6008.1	
217.89	3280.2	
218.1	3388.7	
218.31	5631.2	
218.53	5732.3	
218.74	3844	
218.95	3764.2	
219.16	5480.4	
219.38	6470.9	
219.59	3732.8	
219.8	4487.8	
220.01	7268.2	
220.23	5532.9	
220.44	4960.2	
220.65	3657	
220.87	5536.3	
221.08	6217.6	
221.29	3377.1	
221.5	4575.2	
221.72	7585	
221.93	5246.9	
222.14	4275.5	
222.35	5005.2	
222.57	5670.1	
222.78	5909.1	
222.99	3994.9	
223.2	4323.3	
223.42	5883.8	
223.63	6006.7	
223.84	3068.5	
224.05	3055.6	
224.27	7143.3	
224.48	6497.5	
224.69	5037.3	
224.9	4229.1	
225.12	5729.5	
225.33	5503.6	
225.54	3345	
225.75	3723.2	
225.97	5085.1	
226.18	5380.7	
226.39	4067.3	
226.6	3746.4	
226.82	5298.8	
227.03	5164.3	
227.24	4201.1	
227.45	3457	
227.67	5869.5	
227.88	6500.9	
228.09	4708.3	
228.3	4652.3	
228.52	5923.4	
228.73	5501.5	
228.94	3916.4	
229.15	3485	
229.36	5490.6	
229.58	5353.4	
229.79	3884.3	
230	4586.8	
230.21	6646.3	
230.43	5662	
230.64	4143.7	
230.85	4370.4	
231.06	5934.3	
231.28	6004.6	
231.49	3506.1	
231.7	4068.6	
231.91	5813.5	
232.12	5556.8	
232.34	3535.5	
232.55	4034.5	
232.76	6161.7	
232.97	5715.9	
233.18	3720.5	
233.4	4159.4	
233.61	5806	
233.82	5216.2	
234.03	3835.2	
234.25	3797.6	
234.46	7724.9	
234.67	5528.2	
234.88	4366.3	
235.09	3703.4	
235.31	5896.1	
235.52	5418.9	
235.73	4222.9	
235.94	3525.2	
236.15	5241.4	
236.37	6748.7	
236.58	3729.4	
236.79	4003.8	
237	5834	
237.21	5033.9	
237.43	4322.6	
237.64	3346.4	
237.85	10210	
238.06	5051.7	
238.27	4410	
238.48	3504.1	
238.7	5868.1	
238.91	5370.5	
239.12	3981.9	
239.33	4091.8	
239.54	5079.6	
239.76	5459.9	
239.97	3966.2	
240.18	3994.2	
240.39	6965.1	
240.6	5827.2	
240.82	4153.3	
241.03	3362.8	
241.24	5550.7	
241.45	6455.2	
241.66	3685.7	
241.87	4385.4	
242.09	6320.7	
242.3	6716	
242.51	4371	
242.72	4066.6	
242.93	6053.1	
243.14	5506.3	
243.36	4645.5	
243.57	5055.1	
243.78	6445	
243.99	5859.2	
244.2	4069.3	
244.41	3648.1	
244.63	5085.8	
244.84	5866.1	
245.05	4343.7	
245.26	4078.2	
245.47	5804.6	
245.68	6137.8	
245.9	5471.5	
246.11	4169	
246.32	5369.8	
246.53	5803.9	
246.74	6565.8	
246.95	3403.7	
247.16	4958.8	
247.38	5621	
247.59	3336.8	
247.8	4080.9	
248.01	5220.3	
248.22	5425.8	
248.43	3626.3	
248.64	3964.9	
248.86	4871.4	
249.07	5293.3	
249.28	3520.5	
249.49	4114.4	
249.7	6064	
249.91	6296.8	
250.12	3314.3	
250.34	3435.1	
250.55	5614.2	
250.76	5556.1	
250.97	4242.7	
251.18	4235.9	
251.39	6281.8	
251.6	5786.2	
251.81	4319.8	
252.03	4306.2	
252.24	5271.5	
252.45	6090	
252.66	3487.7	
252.87	4457.1	
253.08	5578	
253.29	7322.2	
253.5	3496.6	
253.72	4941.1	
253.93	5371.1	
254.14	6606.1	
254.35	3802.4	
254.56	3913	
254.77	5748.6	
254.98	5089.2	
255.19	3767.6	
255.41	4875.5	
255.62	5608	
255.83	6173.3	
256.04	4328.7	
256.25	4231.1	
256.46	6830	
256.67	5146.5	
256.88	4134.2	
257.09	4662.5	
257.31	5173.2	
257.52	5237.3	
257.73	5223.7	
257.94	3807.2	
258.15	5382.7	
258.36	5556.1	
258.57	4842.1	
258.78	3050.8	
258.99	6138.4	
259.2	5343.8	
259.41	3887	
259.63	3950.5	
259.84	6400.6	
260.05	6904.4	
260.26	5112.4	
260.47	3695.2	
260.68	6122.7	
260.89	5462.6	
261.1	4642.1	
261.31	3642	
261.52	6065.4	
261.73	6485.2	
261.95	4929.5	
262.16	4354	
262.37	6287.3	
262.58	6337.1	
262.79	4965	
263	3917.8	
263.21	5484.5	
263.42	5069.4	
263.63	3966.9	
263.84	3900	
264.05	6100.2	
264.26	6522.8	
264.47	5061.2	
264.69	4430.4	
264.9	6279.8	
265.11	5782.8	
265.32	3721.8	
265.53	3832.4	
265.74	5644.2	
265.95	4946.5	
266.16	4177.9	
266.37	4562.9	
266.58	5646.9	
266.79	5371.8	
267	3782.6	
267.21	3518.4	
267.42	5120.6	
267.63	5535.7	
267.84	4004.5	
268.06	3479.5	
268.27	5971.9	
268.48	6294.1	
268.69	3944.4	
268.9	4690.5	
269.11	6287.9	
269.32	4977.2	
269.53	4004.5	
269.74	3750.5	
269.95	5857.9	
270.16	4881	
270.37	3969.6	
270.58	4750.6	
270.79	5360.2	
271	6062	
271.21	4288.4	
271.42	4048.2	
271.63	5709.7	
271.84	5198.4	
272.05	3245.3	
272.26	3662.5	
272.47	5547.3	
272.68	5778	
272.89	3821.5	
273.11	4464.6	
273.32	5313.1	
273.53	6581.5	
273.74	4354	
273.95	4271.4	
274.16	6180.1	
274.37	5630.5	
274.58	4385.4	
274.79	3482.2	
275	5668.8	
275.21	6298.2	
275.42	5287.2	
275.63	4513	
275.84	5804.6	
276.05	7317.4	
276.26	4288.4	
276.47	4022.2	
276.68	5417.6	
276.89	6645.7	
277.1	4603.8	
277.31	3538.2	
277.52	5791.7	
277.73	5945.9	
277.94	3447.4	
278.15	3855.6	
278.36	5786.2	
278.57	5204.6	
278.78	3824.2	
278.99	4362.2	
279.2	5143.8	
279.41	5143.1	
279.62	5079.6	
279.83	3575.8	
280.04	6824.5	
280.25	5009.3	
280.46	5055.1	
280.67	4067.3	
280.88	5113.1	
281.09	6227.2	
281.3	4250.9	
281.51	5375.9	
281.72	5236	
281.93	6083.1	
282.14	3780.6	
282.35	4064.5	
282.56	6044.9	
282.77	6027.9	
282.98	3894.6	
283.19	4810.7	
283.4	7429.3	
283.61	5491.3	
283.82	3576.4	
284.03	5003.9	
284.24	5614.8	
284.45	6251.1	
284.66	5067.4	
284.87	4842.1	
285.08	6207.4	
285.29	6342.6	
285.5	3435.1	
285.71	3942.3	
285.92	6219	
286.12	6936.5	
286.33	4961.5	
286.54	3895.2	
286.75	6098.2	
286.96	5459.9	
287.17	3562.8	
287.38	4919.2	
287.59	5104.9	
287.8	5030.5	
288.01	3966.9	
288.22	4530.8	
288.43	6162.3	
288.64	5054.4	
288.85	4738.3	
289.06	4523.3	
289.27	5991	
289.48	6565.1	
289.69	5012.1	
289.9	4500.8	
290.11	6255.9	
290.32	5208	
290.53	4818.9	
290.74	4356.7	
290.94	6062.7	
291.15	6069.5	
291.36	3788.7	
291.57	4530.8	
291.78	5274.9	
291.99	4929.5	
292.2	3624.2	
292.41	4388.8	
292.62	6126.2	
292.83	5868.1	
293.04	5449.6	
293.25	3645.4	
293.46	5350	
293.67	6161	
293.88	3813.3	
294.09	3610.6	
294.29	5089.9	
294.5	5704.3	
294.71	4055.7	
294.92	3866.6	
295.13	5344.5	
295.34	6667.5	
295.55	3412.6	
295.76	3521.8	
295.97	6039.5	
296.18	6761.7	
296.39	3550.5	
296.6	3803.1	
296.81	5684.5	
297.01	6019	
297.22	3973.7	
297.43	3798.3	
297.64	5121.3	
297.85	5156.1	
298.06	3128.6	
298.27	3388	
298.48	5580.7	
298.69	5253	
298.9	4119.1	
299.11	3717.1	
299.31	5022.3	
299.52	5080.3	
299.73	4386.7	
299.94	4360.8	
300.15	5533.6	
300.36	5189.6	
300.57	4316.4	
300.78	4301.4	
300.99	5422.3	
301.2	5656.5	
301.4	3734.1	
301.61	4145.8	
301.82	5879.7	
302.03	6055.8	
302.24	4634.6	
302.45	3557.3	
302.66	5910.4	
302.87	6368.5	
303.08	3793.5	
303.29	5227.8	
303.49	5264.6	
303.7	5586.9	
303.91	3342.3	
304.12	4949.3	
304.33	5050.3	
304.54	5730.9	
304.75	3765.5	
304.96	3622.2	
305.16	5877.7	
305.37	6756.2	
305.58	3239.2	
305.79	3446.7	
306	5898.8	
306.21	4974.5	
306.42	3807.2	
306.63	5771.9	
306.83	5393	
307.04	6196.5	
307.25	4142.4	
307.46	4154	
307.67	4738.3	
307.88	6055.2	
308.09	3629.7	
308.29	3908.2	
308.5	5697.4	
308.71	6185.5	
308.92	4036.5	
309.13	3611.3	
309.34	5344.5	
309.55	5477.6	
309.75	4706.9	
309.96	4349.2	
310.17	6016.9	
310.38	5245.5	
310.59	4556.7	
310.8	3519.1	
311.01	5399.1	
311.21	5436	
311.42	3564.1	
311.63	3680.2	
311.84	5231.2	
312.05	5710.4	
312.26	4231.1	
312.46	4586.1	
312.67	5395.7	
312.88	5103.5	
313.09	3659	
313.3	3537.5	
313.51	6405.4	
313.71	6754.2	
313.92	3651.5	
314.13	3855.6	
314.34	5778	
314.55	5444.9	
314.76	4773.8	
314.96	4142.4	
315.17	5641.5	
315.38	6030.6	
315.59	3652.9	
315.8	3502.7	
316.01	6494.8	
316.21	6510.5	
316.42	3500	
316.63	4043.4	
316.84	5376.6	
317.05	6297.5	
317.26	4351.9	
317.46	3844	
317.67	5485.1	
317.88	5973.9	
318.09	4675.5	
318.3	3405.1	
318.5	5223	
318.71	5896.1	
318.92	6005.3	
319.13	4306.9	
319.34	6113.2	
319.54	6255.9	
319.75	3375.1	
319.96	3263.1	
320.17	5915.2	
320.38	6110.5	
320.58	3333.4	
320.79	3992.2	
321	6211.5	
321.21	6277	
321.42	4037.9	
321.62	3294.5	
321.83	5160.9	
322.04	5567.7	
322.25	3861.1	
322.46	3638.6	
322.66	5676.3	
322.87	5823.1	
323.08	4563.6	
323.29	3612.6	
323.5	6698.9	
323.7	5098.8	
323.91	5042.1	
324.12	4466.6	
324.33	5588.2	
324.53	5917.3	
324.74	4316.4	
324.95	4571.7	
325.16	4883	
325.37	5383.4	
325.57	3693.2	
325.78	3723.9	
325.99	5683.1	
326.2	5094.7	
326.4	5221.6	
326.61	3407.1	
326.82	5589.6	
327.03	5727.5	
327.24	5276.3	
327.44	4972.5	
327.65	5845.6	
327.86	4709.6	
328.07	4271.4	
328.27	3483.6	
328.48	6294.8	
328.69	5152	
328.9	5329.5	
329.1	3994.2	
329.31	5472.9	
329.52	6402	
329.73	3633.1	
329.93	4166.9	
330.14	5566.4	
330.35	5827.8	
330.56	6073.6	
330.76	4594.3	
330.97	5333.6	
331.18	5832.6	
331.39	4098	
331.59	3268.6	
331.8	6175.3	
332.01	6376.7	
332.22	3802.4	
332.42	4371	
332.63	5638.7	
332.84	5218.9	
333.05	4098	
333.25	3834.5	
333.46	5319.3	
333.67	5591	
333.88	3837.2	
334.08	4250.9	
334.29	7520.8	
334.5	6271.6	
334.7	3532.7	
334.91	5314.5	
335.12	5049.6	
335.33	6005.3	
335.53	4059.1	
335.74	6157.6	
335.95	5328.8	
336.16	5195	
336.36	4138.9	
336.57	4672.1	
336.78	5068.7	
336.98	6248.4	
337.19	5044.1	
337.4	4021.5	
337.61	6666.8	
337.81	5075.5	
338.02	3766.9	
338.23	4864.6	
338.43	6396.5	
338.64	5146.5	
338.85	3705.5	
339.05	4876.2	
339.26	6429.3	
339.47	4936.3	
339.68	3666.5	
339.88	5515.2	
340.09	5817.6	
340.3	6127.5	
340.5	4379.2	
340.71	3305.4	
340.92	4999.1	
341.13	6345.3	
341.33	3558.7	
341.54	4374.5	
341.75	5769.8	
341.95	5477	
342.16	4111.6	
342.37	4449.6	
342.57	5112.4	
342.78	5479	
342.99	4616.8	
343.19	3262.4	
343.4	5986.9	
343.61	5832.6	
343.81	3902.7	
344.02	3635.8	
344.23	6004.6	
344.43	6489.3	
344.64	4591.5	
344.85	4551.3	
345.06	5851	
345.26	6200.6	
345.47	4285	
345.68	5010	
345.88	4906.3	
346.09	6086.6	
346.3	4317.1	
346.5	3277.4	
346.71	5585.5	
346.92	5358.9	
347.12	3353.9	
347.33	4225	
347.54	6206.7	
347.74	6599.2	
347.95	4227	
348.16	3135.4	
348.36	5429.8	
348.57	5169.1	
348.78	4197.7	
348.98	4621.6	
349.19	5516.5	
349.39	5009.3	
349.6	3363.4	
349.81	3725.9	
350.01	5855.8	
350.22	5225.1	
350.43	4024.9	
350.63	4926.7	
350.84	5674.2	
351.05	5345.2	
351.25	3725.9	
351.46	3360	
351.67	6200.6	
351.87	5290.6	
352.08	3957.4	
352.29	4483	
352.49	6007.4	
352.7	5767.8	
352.9	3554.6	
353.11	4469.4	
353.32	6838.2	
353.52	5404.6	
353.73	3505.4	
353.94	4551.3	
354.14	5914.5	
354.35	5680.4	
354.55	3677.5	
354.76	4052.2	
354.97	5896.8	
355.17	5635.3	
355.38	3464.5	
355.59	4883.7	
355.79	5304.2	
356	5727.5	
356.2	4024.9	
356.41	3530.7	
356.62	4960.9	
356.82	5484.5	
357.03	4369	
357.24	3893.2	
357.44	5286.5	
357.65	5386.8	
357.85	5251.7	
358.06	4116.4	
358.27	4984.8	
358.47	5304.2	
358.68	3445.4	
358.88	4362.2	
359.09	5823.7	
359.3	6328.2	
359.5	5128.8	
359.71	4487.1	
359.91	6703.7	
360.12	6014.2	
360.33	4359.4	
360.53	4799.8	
360.74	5261.2	
360.94	5313.8	
361.15	4572.4	
361.36	3764.8	
361.56	6161.7	
361.77	5544.5	
361.97	5031.2	
362.18	3968.3	
362.38	6186.9	
362.59	5147.9	
362.8	3731.4	
363	3508.2	
363.21	4961.5	
363.41	5668.8	
363.62	4267.3	
363.83	5356.1	
364.03	5736.4	
364.24	6793.8	
364.44	5471.5	
364.65	5304.2	
364.85	5457.8	
365.06	5179.3	
365.27	3912.3	
365.47	3936.2	
365.68	6475	
365.88	5460.6	
366.09	4268.6	
366.29	3973.7	
366.5	5790.3	
366.71	6240.2	
366.91	5346.6	
367.12	4536.3	
367.32	6840.2	
367.53	6109.8	
367.73	4414.7	
367.94	5449	
368.14	5991.7	
368.35	6988.4	
368.56	4427	
368.76	3773.7	
368.97	6153.5	
369.17	8017.8	
369.38	3895.9	
369.58	4231.1	
369.79	5123.3	
369.99	6487.3	
370.2	5338.4	
370.4	4313	
370.61	5814.9	
370.82	7041.6	
371.02	4157.4	
371.23	3553.9	
371.43	5081	
371.64	6436.8	
371.84	4232.5	
372.05	5522	
372.25	7844.4	
372.46	6257.9	
372.66	4239.3	
372.87	4207.2	
373.07	6232.7	
373.28	7869.7	
373.48	5348.6	
373.69	5038	
373.9	5699.5	
374.1	5730.9	
374.31	5259.2	
374.51	4825	
374.72	6550.8	
374.92	5388.9	
375.13	5449	
375.33	4579.3	
375.54	6177.4	
375.74	5541.8	
375.95	4665.3	
376.15	5958.9	
376.36	6191	
376.56	5977.3	
376.77	4770.4	
376.97	5205.9	
377.18	7180.9	
377.38	6225.8	
377.59	5643.5	
377.79	4227.7	
378	6085.2	
378.2	6653.2	
378.41	4344.4	
378.61	4251.6	
378.82	6526.9	
379.02	5638.7	
379.23	4478.9	
379.43	5685.2	
379.64	6675.7	
379.84	6296.1	
380.05	4287.8	
380.25	4301.4	
380.46	6331.6	
380.66	5920	
380.87	5693.4	
381.07	6076.3	
381.28	6980.2	
381.48	6367.8	
381.69	4334.9	
381.89	4384	
382.1	5261.9	
382.3	6535.1	
382.51	5484.5	
382.71	6492.1	
382.91	6335	
383.12	6944.7	
383.32	4719.2	
383.53	4909.7	
383.73	6201.9	
383.94	6082.5	
384.14	4864.6	
384.35	3997	
384.55	5975.3	
384.76	6403.3	
384.96	4721.3	
385.17	5067.4	
385.37	6336.4	
385.58	5587.5	
385.78	5063.3	
385.98	3884.3	
386.19	5780.7	
386.39	6256.5	
386.6	4492.6	
386.8	4733.5	
387.01	6343.2	
387.21	6408.1	
387.42	5164.3	
387.62	5824.4	
387.83	5617.6	
388.03	6375.3	
388.23	4793.6	
388.44	5642.8	
388.64	5400.5	
388.85	5523.4	
389.05	5210.7	
389.26	5862.7	
389.46	7358.4	
389.67	6847	
389.87	5132.2	
390.07	5261.9	
390.28	6057.2	
390.48	5515.9	
390.69	4360.1	
390.89	4632.5	
391.1	5834	
391.3	6789	
391.5	5919.3	
391.71	6591.7	
391.91	6500.3	
392.12	7626.6	
392.32	5986.9	
392.53	5178.6	
392.73	5892.7	
392.93	6072.9	
393.14	4848.2	
393.34	5725.4	
393.55	6664.1	
393.75	6064.7	
393.95	4894	
394.16	4741.7	
394.36	5811.5	
394.57	6502.3	
394.77	4312.3	
394.98	4775.2	
395.18	5833.3	
395.38	6006.7	
395.59	5780.7	
395.79	4668.7	
396	5926.1	
396.2	6457.2	
396.4	5451.7	
396.61	5450.3	
396.81	6723.5	
397.02	5891.3	
397.22	5756.2	
397.42	5889.3	
397.63	6682.5	
397.83	5913.2	
398.04	4598.4	
398.24	5216.9	
398.44	6391	
398.65	5465.3	
398.85	4469.4	
399.05	4656.4	
399.26	5897.5	
399.46	7649.2	
399.67	4963.6	
399.87	4739.7	
400.07	6313.2	
400.28	6643.6	
400.48	4913.1	
400.69	5973.9	
400.89	6947.4	
401.09	7333.8	
401.3	4701.5	
401.5	5976.7	
401.7	7676.5	
401.91	7957.7	
402.11	5110.4	
402.32	5308.3	
402.52	6961.7	
402.72	6819.1	
402.93	5588.2	
403.13	4396.3	
403.33	7707.9	
403.54	6280.4	
403.74	5238.7	
403.94	6236.1	
404.15	6459.3	
404.35	7637.6	
404.56	4959.5	
404.76	6966.5	
404.96	6862.1	
405.17	6670.2	
405.37	6098.9	
405.57	5539.1	
405.78	6970.6	
405.98	6369.2	
406.18	5040.7	
406.39	6021	
406.59	6905.8	
406.79	6551.5	
407	4869.4	
407.2	5025.7	
407.4	6997.2	
407.61	7268.9	
407.81	5047.6	
408.01	7188.4	
408.22	5932.3	
408.42	8004.1	
408.62	6199.2	
408.83	5676.3	
409.03	6696.2	
409.23	6468.9	
409.44	5775.3	
409.64	6150.7	
409.84	7784.3	
410.05	7635.5	
410.25	5987.6	
410.45	5661.3	
410.66	7086	
410.86	9738.8	
411.06	6222.4	
411.27	6146.6	
411.47	9542.2	
411.67	7385.7	
411.88	6389.7	
412.08	6763.8	
412.28	8068.3	
412.49	8624	
412.69	6200.6	
412.89	6228.6	
413.09	8430.8	
413.3	8235.6	
413.5	6317.3	
413.7	5872.2	
413.91	7490.8	
414.11	8525.7	
414.31	6217	
414.52	6688.7	
414.72	8082.6	
414.92	7961.8	
415.12	6219.7	
415.33	6701	
415.53	8387.1	
415.73	8678.6	
415.94	7155.6	
416.14	6526.9	
416.34	7346.7	
416.55	7147.4	
416.75	7758.4	
416.95	7268.2	
417.15	8490.9	
417.36	9239.1	
417.56	8107.9	
417.76	7104.4	
417.97	8848.6	
418.17	8563.2	
418.37	6511.9	
418.57	6755.6	
418.78	8265.6	
418.98	7924.3	
419.18	7640.3	
419.38	7537.2	
419.59	8092.9	
419.79	7593.2	
419.99	6526.2	
420.2	7027.9	
420.4	8572.8	
420.6	8838.4	
420.8	6487.3	
421.01	6326.9	
421.21	8416.5	
421.41	8628.1	
421.61	6935.8	
421.82	6619.7	
422.02	7919.5	
422.22	8888.9	
422.42	7395.2	
422.63	6993.8	
422.83	8092.9	
423.03	9289.6	
423.23	7008.8	
423.44	5980.8	
423.64	8025.3	
423.84	7808.2	
424.04	6476.4	
424.25	6079.7	
424.45	8976.9	
424.65	8914.1	
424.85	5898.8	
425.06	6554.2	
425.26	9009	
425.46	7459.4	
425.66	7008.1	
425.87	6723.5	
426.07	8630.8	
426.27	8574.2	
426.47	6926.2	
426.67	6163.7	
426.88	9101.9	
427.08	8544.8	
427.28	7120.1	
427.48	6063.4	
427.69	7221.1	
427.89	8004.8	
428.09	7179.5	
428.29	6217	
428.5	8804.2	
428.7	8214.4	
428.9	6092.7	
429.1	6597.2	
429.3	8224.6	
429.51	8615.8	
429.71	6404	
429.91	7311.9	
430.11	8496.3	
430.31	8817.2	
430.52	6792.4	
430.72	7109.2	
430.92	9163.3	
431.12	8662.2	
431.32	6488	
431.53	6870.3	
431.73	7533.1	
431.93	9250	
432.13	6346.7	
432.33	6264.7	
432.54	7943.4	
432.74	8489.5	
432.94	6214.2	
433.14	7275.1	
433.34	8528.4	
433.55	8051.2	
433.75	7243.7	
433.95	9183.8	
434.15	8410.3	
434.35	8143.4	
434.56	6420.4	
434.76	5969.1	
434.96	8333.2	
435.16	8816.5	
435.36	6435.4	
435.56	7592.5	
435.77	8075.8	
435.97	8241.7	
436.17	8375.5	
436.37	7535.8	
436.57	8081.3	
436.78	8024.6	
436.98	8117.5	
437.18	8164.6	
437.38	8887.5	
437.58	8251.9	
437.78	8346.8	
437.99	6841.6	
438.19	8805.6	
438.39	9659.6	
438.59	6836.1	
438.79	6260.6	
438.99	9517.6	
439.2	8254.7	
439.4	6345.3	
439.6	6329.6	
439.8	8551	
440	9768.1	
440.2	7460.1	
440.4	7638.2	
440.61	9063.6	
440.81	9631.6	
441.01	6673	
441.21	7783	
441.41	9576.3	
441.61	9204.3	
441.81	8087.4	
442.02	9183.1	
442.22	10096	
442.42	9241.1	
442.62	6875.7	
442.82	6851.1	
443.02	9548.3	
443.22	8722.3	
443.43	7435.5	
443.63	6922.1	
443.83	8372.8	
444.03	8563.9	
444.23	8229.4	
444.43	7860.1	
444.63	8845.9	
444.83	10331	
445.04	7090.8	
445.24	8526.4	
445.44	9308	
445.64	9460.9	
445.84	7850.5	
446.04	7929.7	
446.24	8621.3	
446.44	9729.9	
446.65	7002.7	
446.85	7456	
447.05	8884.1	
447.25	9627.5	
447.45	7374.7	
447.65	6963.8	
447.85	8946.9	
448.05	8463.6	
448.25	8005.5	
448.46	7726.3	
448.66	8909.3	
448.86	8530.5	
449.06	6701.6	
449.26	7998.7	
449.46	9311.4	
449.66	8326.4	
449.86	7479.2	
450.06	7506.5	
450.26	8538.7	
450.47	9196.1	
450.67	7699.7	
450.87	8133.8	
451.07	9147.6	
451.27	9108	
451.47	7109.9	
451.67	7681.2	
451.87	8754.4	
452.07	9891	
452.27	7327.6	
452.47	7291.5	
452.67	9112.1	
452.88	9570.8	
453.08	6561.7	
453.28	8811.7	
453.48	10426	
453.68	9008.3	
453.88	7243	
454.08	7600	
454.28	9451.4	
454.48	9062.3	
454.68	8105.9	
454.88	8629.5	
455.08	9579	
455.28	9393.4	
455.48	7100.3	
455.68	7928.4	
455.89	10195	
456.09	9897.2	
456.29	7483.3	
456.49	7649.2	
456.69	10008	
456.89	9532.6	
457.09	8300.4	
457.29	8742.8	
457.49	9731.9	
457.69	9902.6	
457.89	8043.1	
458.09	7518.1	
458.29	9499.2	
458.49	10340	
458.69	8573.5	
458.89	8043.1	
459.09	10722	
459.29	10671	
459.49	8219.9	
459.69	9056.1	
459.9	10158	
460.1	9685.5	
460.3	7927.7	
460.5	7781.6	
460.7	10245	
460.9	9835	
461.1	7468.9	
461.3	8905.3	
461.5	10872	
461.7	10470	
461.9	8135.2	
462.1	8436.3	
462.3	10013	
462.5	10584	
462.7	8130.4	
462.9	8288.8	
463.1	11718	
463.3	11482	
463.5	8526.4	
463.7	9679.4	
463.9	10344	
464.1	10742	
464.3	8927.8	
464.5	9020.6	
464.7	11157	
464.9	10692	
465.1	10570	
465.3	9566.1	
465.5	11427	
465.7	11377	
465.9	9685.5	
466.1	9566.1	
466.3	11384	
466.5	11091	
466.7	10646	
466.9	9383.1	
467.1	11099	
467.3	12088	
467.5	10598	
467.7	9354.4	
467.9	12318	
468.1	13383	
468.3	10201	
468.5	10672	
468.7	11163	
468.9	11103	
469.1	9840.5	
469.3	10458	
469.5	13315	
469.7	10843	
469.9	10229	
470.1	9592	
470.3	11132	
470.5	11116	
470.7	10227	
470.9	9525.8	
471.1	11097	
471.3	11441	
471.5	9427.5	
471.69	11358	
471.89	10870	
472.09	10310	
472.29	10299	
472.49	10550	
472.69	10503	
472.89	11404	
473.09	9353.1	
473.29	9385.2	
473.49	10644	
473.69	10864	
473.89	10415	
474.09	9614.5	
474.29	12199	
474.49	11802	
474.69	10406	
474.89	9710.1	
475.09	10927	
475.29	10931	
475.49	8998.8	
475.69	9405	
475.88	12645	
476.08	11153	
476.28	9060.9	
476.48	9551	
476.68	11566	
476.88	11482	
477.08	9223.4	
477.28	9715.6	
477.48	10868	
477.68	11589	
477.88	9123	
478.08	9508.7	
478.28	11952	
478.48	10941	
478.67	9514.9	
478.87	8812.4	
479.07	11981	
479.27	11254	
479.47	9694.4	
479.67	9733.3	
479.87	11639	
480.07	12254	
480.27	9009	
480.47	10748	
480.67	11262	
480.87	11998	
481.06	9250	
481.26	10279	
481.46	11257	
481.66	11238	
481.86	9864.4	
482.06	10933	
482.26	10912	
482.46	11850	
482.66	9855.5	
482.86	9335.3	
483.05	11379	
483.25	10709	
483.45	12327	
483.65	9795.4	
483.85	10959	
484.05	11272	
484.25	10221	
484.45	10894	
484.65	12196	
484.84	12284	
485.04	9828.9	
485.24	9785.2	
485.44	12469	
485.64	10643	
485.84	9136	
486.04	10682	
486.24	11217	
486.44	11701	
486.63	9105.3	
486.83	10084	
487.03	11153	
487.23	11422	
487.43	9302.6	
487.63	11914	
487.83	11439	
488.02	12563	
488.22	10557	
488.42	11075	
488.62	12435	
488.82	11402	
489.02	10074	
489.22	10158	
489.41	12314	
489.61	11985	
489.81	9774.3	
490.01	9824.8	
490.21	12273	
490.41	13094	
490.61	9822.1	
490.8	9989.3	
491	11834	
491.2	11016	
491.4	10578	
491.6	9706.7	
491.8	11665	
491.99	11940	
492.19	9481.4	
492.39	9921.7	
492.59	12333	
492.79	12461	
492.99	10818	
493.18	9779.7	
493.38	12383	
493.58	13408	
493.78	10708	
493.98	10354	
494.18	12264	
494.37	11844	
494.57	11091	
494.77	10996	
494.97	12611	
495.17	13037	
495.37	10658	
495.56	10985	
495.76	13387	
495.96	12951	
496.16	12035	
496.36	10898	
496.55	13124	
496.75	12830	
496.95	11398	
497.15	11405	
497.35	13108	
497.54	13272	
497.74	11096	
497.94	12927	
498.14	13994	
498.34	13731	
498.53	10672	
498.73	11684	
498.93	12606	
499.13	13295	
499.33	11471	
499.52	12020	
499.72	13291	
499.92	13501	
500.12	11314	
500.32	11584	
500.51	13515	
500.71	13451	
500.91	12545	
501.11	11986	
501.31	13575	
501.5	14042	
501.7	12702	
501.9	11512	
502.1	13293	
502.29	13735	
502.49	12208	
502.69	12489	
502.89	13558	
503.09	13584	
503.28	11049	
503.48	11155	
503.68	12557	
503.88	12680	
504.07	12165	
504.27	11617	
504.47	13175	
504.67	13152	
504.86	11949	
505.06	11676	
505.26	12666	
505.46	14655	
505.65	11482	
505.85	11684	
506.05	12568	
506.25	13136	
506.44	10712	
506.64	11655	
506.84	12456	
507.04	13461	
507.23	10924	
507.43	11607	
507.63	14478	
507.83	12599	
508.02	11527	
508.22	11241	
508.42	14763	
508.62	12381	
508.81	11415	
509.01	12103	
509.21	12177	
509.4	12635	
509.6	11555	
509.8	10922	
510	12415	
510.19	14072	
510.39	10813	
510.59	10922	
510.79	12304	
510.98	13829	
511.18	11153	
511.38	11241	
511.57	13282	
511.77	13192	
511.97	11878	
512.17	10805	
512.36	13149	
512.56	13152	
512.76	10967	
512.95	10649	
513.15	13344	
513.35	11960	
513.55	11749	
513.74	10931	
513.94	13349	
514.14	12622	
514.33	12052	
514.53	11629	
514.73	12499	
514.92	12899	
515.12	11232	
515.32	11070	
515.51	12997	
515.71	13555	
515.91	13023	
516.11	11133	
516.3	14759	
516.5	12612	
516.7	11701	
516.89	12323	
517.09	12721	
517.29	12586	
517.48	11956	
517.68	11282	
517.88	12402	
518.07	13072	
518.27	11868	
518.47	10903	
518.66	13759	
518.86	12198	
519.06	10775	
519.25	11166	
519.45	12704	
519.65	14291	
519.84	11915	
520.04	12655	
520.24	14679	
520.43	13366	
520.63	11547	
520.83	11394	
521.02	12551	
521.22	13316	
521.42	11933	
521.61	12573	
521.81	12806	
522.01	12852	
522.2	11683	
522.4	11560	
522.6	13342	
522.79	12138	
522.99	11560	
523.18	10918	
523.38	13274	
523.58	13476	
523.77	13224	
523.97	11101	
524.17	15273	
524.36	14540	
524.56	12758	
524.76	12370	
524.95	13554	
525.15	13248	
525.34	12232	
525.54	12157	
525.74	14048	
525.93	13114	
526.13	13628	
526.33	12340	
526.52	14515	
526.72	13975	
526.91	13631	
527.11	12952	
527.31	14684	
527.5	15188	
527.7	12830	
527.89	11815	
528.09	13599	
528.29	14261	
528.48	13181	
528.68	12824	
528.87	14557	
529.07	14707	
529.27	12919	
529.46	12383	
529.66	14250	
529.85	14685	
530.05	12213	
530.25	13069	
530.44	15948	
530.64	14173	
530.83	12721	
531.03	13053	
531.23	14746	
531.42	14453	
531.62	13872	
531.81	12914	
532.01	14823	
532.21	15545	
532.4	12750	
532.6	13276	
532.79	15910	
532.99	15219	
533.18	13407	
533.38	14432	
533.58	14758	
533.77	15666	
533.97	13554	
534.16	14440	
534.36	15970	
534.55	14999	
534.75	14565	
534.95	13619	
535.14	15819	
535.34	15048	
535.53	13279	
535.73	15258	
535.92	16537	
536.12	15174	
536.31	13244	
536.51	14646	
536.71	15367	
536.9	14850	
537.1	13400	
537.29	13610	
537.49	15706	
537.68	14805	
537.88	14003	
538.07	13188	
538.27	15167	
538.46	16240	
538.66	13072	
538.86	13608	
539.05	15205	
539.25	15774	
539.44	13962	
539.64	13392	
539.83	14883	
540.03	16163	
540.22	13278	
540.42	13504	
540.61	15184	
540.81	15395	
541	13794	
541.2	14616	
541.39	14737	
541.59	15171	
541.78	14218	
541.98	13203	
542.18	14201	
542.37	14319	
542.57	13577	
542.76	14151	
542.96	14329	
543.15	15104	
543.35	13421	
543.54	12859	
543.74	15270	
543.93	14844	
544.13	13362	
544.32	14464	
544.52	15088	
544.71	14246	
544.91	12460	
545.1	13708	
545.3	14192	
545.49	14971	
545.69	12322	
545.88	13005	
546.08	16022	
546.27	15558	
546.47	13562	
546.66	12705	
546.86	15139	
547.05	15814	
547.24	12927	
547.44	12900	
547.63	13947	
547.83	15225	
548.02	13245	
548.22	13437	
548.41	13869	
548.61	15299	
548.8	12787	
549	12667	
549.19	14414	
549.39	14784	
549.58	12307	
549.78	13022	
549.97	14774	
550.17	14213	
550.36	13736	
550.55	14900	
550.75	14250	
550.94	15208	
551.14	12416	
551.33	12758	
551.53	13564	
551.72	14708	
551.92	12848	
552.11	12593	
552.31	14648	
552.5	14641	
552.69	14411	
552.89	12245	
553.08	14488	
553.28	14247	
553.47	12623	
553.67	13861	
553.86	15223	
554.06	13472	
554.25	11664	
554.44	12357	
554.64	15986	
554.83	15427	
555.03	12284	
555.22	12753	
555.42	14581	
555.61	14388	
555.8	12508	
556	12776	
556.19	13479	
556.39	14857	
556.58	12436	
556.78	12525	
556.97	14192	
557.16	14006	
557.36	13839	
557.55	12156	
557.75	12948	
557.94	15107	
558.13	12197	
558.33	11938	
558.52	14807	
558.72	13710	
558.91	12017	
559.1	12367	
559.3	13105	
559.49	12953	
559.69	11538	
559.88	12697	
560.07	14205	
560.27	14473	
560.46	12782	
560.66	13016	
560.85	13858	
561.04	12993	
561.24	11961	
561.43	12056	
561.63	13151	
561.82	13586	
562.01	13491	
562.21	12476	
562.4	13977	
562.59	15095	
562.79	12338	
562.98	12022	
563.18	14035	
563.37	15463	
563.56	12873	
563.76	11949	
563.95	13482	
564.14	13437	
564.34	12319	
564.53	12044	
564.73	13930	
564.92	14481	
565.11	12662	
565.31	11818	
565.5	14661	
565.69	13610	
565.89	12288	
566.08	12532	
566.27	14672	
566.47	15040	
566.66	13130	
566.85	11817	
567.05	14154	
567.24	13556	
567.44	12113	
567.63	13611	
567.82	14372	
568.02	14173	
568.21	12213	
568.4	12557	
568.6	14007	
568.79	14089	
568.98	11989	
569.18	12216	
569.37	14018	
569.56	16347	
569.76	12700	
569.95	13824	
570.14	14455	
570.34	14451	
570.53	12110	
570.72	12198	
570.91	14973	
571.11	14004	
571.3	12617	
571.49	13625	
571.69	14101	
571.88	13568	
572.07	13322	
572.27	13262	
572.46	13611	
572.65	14788	
572.85	12486	
573.04	12922	
573.23	15104	
573.43	14318	
573.62	12238	
573.81	13026	
574	14334	
574.2	14286	
574.39	12826	
574.58	12994	
574.78	15442	
574.97	14655	
575.16	13295	
575.36	13588	
575.55	15098	
575.74	15255	
575.93	12486	
576.13	13665	
576.32	14364	
576.51	15067	
576.71	12914	
576.9	14360	
577.09	15381	
577.28	14996	
577.48	13395	
577.67	12555	
577.86	14473	
578.05	14883	
578.25	13175	
578.44	13246	
578.63	14640	
578.83	15950	
579.02	12427	
579.21	14158	
579.4	14860	
579.6	14643	
579.79	13316	
579.98	15722	
580.17	15375	
580.37	15320	
580.56	12728	
580.75	13565	
580.94	15805	
581.14	15702	
581.33	14076	
581.52	13011	
581.71	15192	
581.91	15868	
582.1	12532	
582.29	13212	
582.48	14749	
582.68	14821	
582.87	13755	
583.06	13371	
583.25	15101	
583.45	15004	
583.64	14092	
583.83	14934	
584.02	14592	
584.21	15208	
584.41	14147	
584.6	13379	
584.79	14798	
584.98	15871	
585.18	12777	
585.37	12796	
585.56	14387	
585.75	15357	
585.94	12976	
586.14	13590	
586.33	15762	
586.52	14842	
586.71	13398	
586.91	13198	
587.1	14068	
587.29	15116	
587.48	13003	
587.67	12818	
587.87	14857	
588.06	14953	
588.25	14182	
588.44	13460	
588.63	14354	
588.83	15046	
589.02	12773	
589.21	12539	
589.4	13992	
589.59	13845	
589.78	11695	
589.98	11801	
590.17	13211	
590.36	13782	
590.55	10993	
590.74	11832	
590.94	15062	
591.13	13444	
591.32	11485	
591.51	11037	
591.7	13902	
591.89	13488	
592.09	11199	
592.28	11686	
592.47	12626	
592.66	14657	
592.85	11215	
593.05	11581	
593.24	13337	
593.43	14192	
593.62	11642	
593.81	12068	
594	13386	
594.19	13646	
594.39	11508	
594.58	11447	
594.77	13711	
594.96	14373	
595.15	11368	
595.34	12098	
595.54	13730	
595.73	12660	
595.92	10619	
596.11	11926	
596.3	14207	
596.49	12793	
596.68	11549	
596.88	12058	
597.07	13860	
597.26	12663	
597.45	11034	
597.64	12484	
597.83	12870	
598.02	13508	
598.22	11229	
598.41	11884	
598.6	13250	
598.79	12830	
598.98	11268	
599.17	12223	
599.36	13293	
599.55	14654	
599.74	13416	
599.94	13223	
600.13	13863	
600.32	12709	
600.51	10985	
600.7	11084	
600.89	14527	
601.08	14558	
601.27	10844	
601.47	11968	
601.66	13840	
601.85	14474	
602.04	11600	
602.23	11925	
602.42	12722	
602.61	13476	
602.8	11385	
602.99	11134	
603.18	13120	
603.37	13414	
603.57	11732	
603.76	12418	
603.95	14166	
604.14	13822	
604.33	11185	
604.52	11731	
604.71	13336	
604.9	12910	
605.09	12306	
605.28	12157	
605.47	13999	
605.66	13655	
605.86	11912	
606.05	11318	
606.24	13893	
606.43	12319	
606.62	11594	
606.81	12678	
607	13732	
607.19	13065	
607.38	11022	
607.57	11305	
607.76	12866	
607.95	12194	
608.14	11609	
608.33	12286	
608.52	12831	
608.72	13742	
608.91	10807	
609.1	10695	
609.29	12841	
609.48	12233	
609.67	11761	
609.86	10705	
610.05	12343	
610.24	12729	
610.43	10641	
610.62	10249	
610.81	13832	
611	13550	
611.19	10758	
611.38	11464	
611.57	12893	
611.76	14383	
611.95	10475	
612.14	10338	
612.33	12935	
612.52	12260	
612.71	11005	
612.9	10320	
613.09	11906	
613.28	14414	
613.47	10723	
613.66	11835	
613.85	12770	
614.04	12437	
614.24	10785	
614.43	10034	
614.62	13099	
614.81	13063	
615	11556	
615.19	11499	
615.38	12175	
615.57	12625	
615.76	11433	
615.95	12347	
616.14	13056	
616.33	12704	
616.52	11711	
616.71	11949	
616.9	13033	
617.09	12973	
617.28	11073	
617.47	12618	
617.66	12115	
617.85	12196	
618.04	12103	
618.22	11474	
618.41	12628	
618.6	13620	
618.79	11501	
618.98	11215	
619.17	13927	
619.36	12155	
619.55	11401	
619.74	11402	
619.93	13224	
620.12	12805	
620.31	11981	
620.5	12312	
620.69	14183	
620.88	14390	
621.07	13003	
621.26	11981	
621.45	13614	
621.64	13647	
621.83	12211	
622.02	11284	
622.21	13685	
622.4	13314	
622.59	12753	
622.78	12467	
622.97	12970	
623.16	14136	
623.35	12069	
623.54	11260	
623.72	13328	
623.91	13391	
624.1	12362	
624.29	10964	
624.48	14489	
624.67	13618	
624.86	12338	
625.05	11339	
625.24	14666	
625.43	12938	
625.62	14257	
625.81	11617	
626	14029	
626.19	13299	
626.38	12448	
626.56	11571	
626.75	13070	
626.94	13965	
627.13	12281	
627.32	10894	
627.51	13715	
627.7	15122	
627.89	11168	
628.08	12402	
628.27	12933	
628.46	13136	
628.65	11449	
628.83	11089	
629.02	13694	
629.21	13044	
629.4	11876	
629.59	12170	
629.78	12919	
629.97	14008	
630.16	12213	
630.35	11624	
630.54	14360	
630.72	13977	
630.91	11600	
631.1	12212	
631.29	13465	
631.48	13763	
631.67	12269	
631.86	11681	
632.05	12983	
632.24	13173	
632.42	11224	
632.61	11989	
632.8	13170	
632.99	12896	
633.18	11905	
633.37	12293	
633.56	13347	
633.75	13233	
633.93	11922	
634.12	11579	
634.31	14269	
634.5	14001	
634.69	11616	
634.88	11997	
635.07	13149	
635.25	13741	
635.44	12491	
635.63	12958	
635.82	12996	
636.01	12481	
636.2	12479	
636.39	11867	
636.57	14173	
636.76	13866	
636.95	11318	
637.14	12828	
637.33	13501	
637.52	14372	
637.7	11046	
637.89	12078	
638.08	13120	
638.27	14591	
638.46	12185	
638.65	12694	
638.83	14513	
639.02	12837	
639.21	12005	
639.4	12555	
639.59	13263	
639.78	12893	
639.96	11126	
640.15	11275	
640.34	13133	
640.53	13177	
640.72	10727	
640.91	11239	
641.09	12363	
641.28	13850	
641.47	11163	
641.66	12078	
641.85	13079	
642.03	13252	
642.22	11768	
642.41	11110	
642.6	12369	
642.79	11718	
642.97	10830	
643.16	11847	
643.35	12381	
643.54	12103	
643.73	10749	
643.91	11673	
644.1	11954	
644.29	12564	
644.48	10788	
644.67	10767	
644.85	12013	
645.04	12467	
645.23	10208	
645.42	10582	
645.6	11642	
645.79	12991	
645.98	10574	
646.17	9380.4	
646.36	11272	
646.54	11932	
646.73	11119	
646.92	9860.3	
647.11	11508	
647.29	12634	
647.48	9955.9	
647.67	9621.4	
647.86	12835	
648.05	12837	
648.23	10288	
648.42	11648	
648.61	12106	
648.8	11928	
648.98	9869.2	
649.17	10245	
649.36	11392	
649.55	11022	
649.73	9916.9	
649.92	10838	
650.11	11391	
650.3	11749	
650.48	10025	
650.67	9777	
650.86	11950	
651.05	10834	
651.23	10025	
651.42	9838.4	
651.61	11290	
651.79	11363	
651.98	10105	
652.17	9695.8	
652.36	11768	
652.54	10774	
652.73	9691.7	
652.92	9571.5	
653.11	11751	
653.29	11838	
653.48	8922.3	
653.67	10043	
653.85	11426	
654.04	12557	
654.23	10185	
654.42	9626.8	
654.6	10761	
654.79	11409	
654.98	8901.2	
655.16	9484.8	
655.35	10192	
655.54	10197	
655.73	8834.9	
655.91	8791.2	
656.1	11481	
656.29	10137	
656.47	8312	
656.66	10169	
656.85	10393	
657.03	10611	
657.22	9196.1	
657.41	9237	
657.59	10711	
657.78	10514	
657.97	8939.4	
658.16	9585.2	
658.34	11405	
658.53	11878	
658.72	10579	
658.9	11143	
659.09	10783	
659.28	10910	
659.46	9356.5	
659.65	9325.1	
659.84	10589	
660.02	11233	
660.21	9100.5	
660.4	9129.2	
660.58	11710	
660.77	10923	
660.96	9787.9	
661.14	8827.4	
661.33	12157	
661.52	12054	
661.7	8688.2	
661.89	12735	
662.08	10628	
662.26	10068	
662.45	9069.1	
662.64	9112.8	
662.82	11203	
663.01	10438	
663.2	9208.4	
663.38	9944.3	
663.57	11174	
663.75	11041	
663.94	9501.9	
664.13	10739	
664.31	10522	
664.5	11209	
664.69	9615.9	
664.87	10350	
665.06	10227	
665.25	10974	
665.43	10487	
665.62	10622	
665.8	11334	
665.99	10555	
666.18	9417.2	
666.36	9415.2	
666.55	11271	
666.74	11187	
666.92	8962.6	
667.11	10660	
667.29	10636	
667.48	11215	
667.67	10274	
667.85	9235	
668.04	10615	
668.22	10729	
668.41	9413.8	
668.6	9537.4	
668.78	10362	
668.97	10555	
669.15	9796.1	
669.34	8614.4	
669.53	10374	
669.71	10661	
669.9	8872.5	
670.08	9562.6	
670.27	10377	
670.46	11011	
670.64	9837.8	
670.83	10079	
671.01	10161	
671.2	10859	
671.38	9001.5	
671.57	8856.8	
671.76	11525	
671.94	12202	
672.13	8825.4	
672.31	9925.1	
672.5	11206	
672.69	10346	
672.87	8970.1	
673.06	9334.6	
673.24	10904	
673.43	10415	
673.61	9750.4	
673.8	9269.1	
673.98	11085	
674.17	11346	
674.36	9879.4	
674.54	9682.1	
674.73	10742	
674.91	11064	
675.1	9382.4	
675.28	8978.3	
675.47	10689	
675.65	11297	
675.84	9195.4	
676.03	9598.1	
676.21	10303	
676.4	9829.6	
676.58	10062	
676.77	9867.8	
676.95	11878	
677.14	10328	
677.32	8979	
677.51	8748.9	
677.69	11207	
677.88	9914.2	
678.06	8759.8	
678.25	8843.1	
678.44	10578	
678.62	10267	
678.81	8622.6	
678.99	9679.4	
679.18	11483	
679.36	10952	
679.55	9102.5	
679.73	9903.3	
679.92	10991	
680.1	10265	
680.29	10615	
680.47	9303.2	
680.66	10193	
680.84	11111	
681.03	8395.3	
681.21	9493.7	
681.4	10323	
681.58	10101	
681.77	8875.2	
681.95	8829.5	
682.14	11252	
682.32	11482	
682.51	9828.2	
682.69	8597.4	
682.88	10108	
683.06	10901	
683.25	9457.5	
683.43	9991.4	
683.62	10435	
683.8	10983	
683.99	9977	
684.17	9327.8	
684.36	11763	
684.54	10226	
684.73	8225.3	
684.91	8501.8	
685.1	10446	
685.28	9799.5	
685.46	8924.4	
685.65	8987.2	
685.83	10535	
686.02	9835.7	
686.2	8401.5	
686.39	8455.4	
686.57	9617.9	
686.76	11256	
686.94	8358.4	
687.13	8630.1	
687.31	10483	
687.5	9942.9	
687.68	7984.3	
687.86	9398.1	
688.05	11752	
688.23	9533.3	
688.42	9474.6	
688.6	8630.8	
688.79	9914.9	
688.97	9919	
689.16	9073.2	
689.34	7831.4	
689.52	10740	
689.71	11044	
689.89	9407	
690.08	8597.4	
690.26	10186	
690.45	10163	
690.63	9617.3	
690.81	8790.6	
691	9891	
691.18	9840.5	
691.37	8904.6	
691.55	11173	
691.74	9720.3	
691.92	11924	
692.1	8775.5	
692.29	8171.4	
692.47	9960	
692.66	9213.1	
692.84	8396.7	
693.02	9009.7	
693.21	9476.6	
693.39	10017	
693.58	9277.3	
693.76	8703.9	
693.94	11338	
694.13	11124	
694.31	8600.1	
694.5	9829.6	
694.68	9970.2	
694.86	10347	
695.05	9189.9	
695.23	9473.9	
695.42	10785	
695.6	13232	
695.78	9822.7	
695.97	8798.1	
696.15	10752	
696.34	10279	
696.52	8552.3	
696.7	9445.9	
696.89	10413	
697.07	9923.8	
697.25	9322.4	
697.44	10946	
697.62	10438	
697.81	10785	
697.99	8886.8	
698.17	9480.7	
698.36	9584.5	
698.54	10451	
698.72	9314.2	
698.91	8215.1	
699.09	9937.4	
699.28	9759.9	
699.46	8961.2	
699.64	8682	
699.83	9727.2	
700.01	11072	
700.19	9514.9	
700.38	7901.7	
700.56	11058	
700.74	9808.4	
700.93	8336.6	
701.11	9150.3	
701.29	10488	
701.48	11624	
701.66	8684.8	
701.84	8744.8	
702.03	9983.8	
702.21	10776	
702.39	8244.4	
702.58	9012.4	
702.76	10516	
702.94	10703	
703.13	8204.2	
703.31	11004	
703.49	9670.5	
703.68	11337	
703.86	8411	
704.04	9524.4	
704.23	10256	
704.41	10789	
704.59	8585.8	
704.78	9955.9	
704.96	11471	
705.14	10798	
705.33	8473.1	
705.51	9188.6	
705.69	10071	
705.87	11049	
706.06	9480	
706.24	8406.2	
706.42	10376	
706.61	10818	
706.79	9534.7	
706.97	8394.6	
707.16	9825.5	
707.34	10503	
707.52	9471.2	
707.7	8595.3	
707.89	10036	
708.07	9643.2	
708.25	9471.9	
708.44	9704	
708.62	9909.4	
708.8	11049	
708.98	9790.7	
709.17	8653.4	
709.35	10161	
709.53	10357	
709.72	8307.2	
709.9	8432.9	
710.08	10515	
710.26	10596	
710.45	10031	
710.63	8593.3	
710.81	10101	
710.99	10165	
711.18	9212.4	
711.36	8757.8	
711.54	9896.5	
711.72	10647	
711.91	8731.2	
712.09	8106.5	
712.27	9977.7	
712.45	10695	
712.64	8936	
712.82	7673.7	
713	9315.5	
713.18	9443.9	
713.37	7825.3	
713.55	9116.2	
713.73	10297	
713.91	8674.5	
714.1	8042.4	
714.28	7354.3	
714.46	9601.6	
714.64	8667.7	
714.83	6495.5	
715.01	7337.2	
715.19	8501.1	
715.37	7888.8	
715.55	6978.1	
715.74	7318.8	
715.92	9431.6	
716.1	7284.6	
716.28	8363.2	
716.47	7300.3	
716.65	7945.4	
716.83	8094.3	
717.01	7109.2	
717.19	7245.7	
717.38	10357	
717.56	7771.4	
717.74	7433.4	
717.92	6636.8	
718.1	9133.9	
718.29	8305.9	
718.47	6282.5	
718.65	7073	
718.83	9204.3	
719.01	9194	
719.2	6298.9	
719.38	7539.3	
719.56	8879.3	
719.74	10518	
719.92	6978.8	
720.11	8112	
720.29	8832.2	
720.47	7849.9	
720.65	6439.5	
720.83	7293.5	
721.02	8159.8	
721.2	7826.7	
721.38	7264.1	
721.56	6382.2	
721.74	7258	
721.92	7412.3	
722.11	7875.1	
722.29	7470.3	
722.47	8846.5	
722.65	7836.2	
722.83	6414.2	
723.01	7421.8	
723.2	7994.6	
723.38	8284	
723.56	5854.5	
723.74	7078.5	
723.92	7448.5	
724.1	8713.4	
724.29	6346.7	
724.47	7640.3	
724.65	7517.4	
724.83	7434.1	
725.01	6208.8	
725.19	7156.3	
725.37	7514	
725.56	7531.7	
725.74	6108.4	
725.92	6331	
726.1	7477.8	
726.28	7704.5	
726.46	6873.7	
726.64	6537.8	
726.83	7606.8	
727.01	7950.2	
727.19	6051.7	
727.37	6927.6	
727.55	8013.7	
727.73	8375.5	
727.91	5999.2	
728.09	5782.8	
728.28	8397.4	
728.46	9082.1	
728.64	7124.9	
728.82	7001.3	
729	9613.8	
729.18	8789.9	
729.36	6197.8	
729.54	8681.3	
729.72	9985.9	
729.91	8176.2	
730.09	8495	
730.27	7134.4	
730.45	8120.2	
730.63	8744.8	
730.81	7787.1	
730.99	6709.1	
731.17	9398.1	
731.35	7783	
731.53	7294.9	
731.71	6847.7	
731.9	9026.1	
732.08	9203.6	
732.26	7067.5	
732.44	6663.4	
732.62	9213.1	
732.8	8661.5	
732.98	7464.8	
733.16	6474.3	
733.34	8622.6	
733.52	7367.9	
733.7	7004.1	
733.88	7294.9	
734.07	8399.4	
734.25	8150.2	
734.43	6422.4	
734.61	8069.7	
734.79	9932.6	
734.97	8050.6	
735.15	6498.2	
735.33	6980.2	
735.51	8466.3	
735.69	8064.9	
735.87	8421.9	
736.05	7137.2	
736.23	8226	
736.41	8030.8	
736.59	6898.2	
736.77	7079.1	
736.95	8731.2	
737.13	8071.7	
737.32	6594.5	
737.5	6854.6	
737.68	9193.3	
737.86	7942	
738.04	6366.5	
738.22	8296.3	
738.4	7684	
738.58	8076.5	
738.76	7032	
738.94	5863.3	
739.12	7892.2	
739.3	7761.1	
739.48	7677.2	
739.66	7362.4	
739.84	8184.4	
740.02	8183	
740.2	5893.4	
740.38	6421.7	
740.56	8552.3	
740.74	7261.4	
740.92	7070.3	
741.1	6879.1	
741.28	7866.2	
741.46	7700.4	
741.64	6571.2	
741.82	7090.1	
742	7900.4	
742.18	7854	
742.36	6720.1	
742.54	6296.8	
742.72	8467	
742.9	7167.2	
743.08	7123.5	
743.26	5750.7	
743.44	8694.3	
743.62	8445.1	
743.8	7231.4	
743.98	6189.6	
744.16	8191.9	
744.34	7823.9	
744.52	7165.2	
744.7	7103.7	
744.88	8301.8	
745.06	7811	
745.24	7150.8	
745.42	7263.5	
745.6	8340	
745.78	8076.5	
745.96	5755.5	
746.14	6210.1	
746.32	9094.3	
746.5	8270.4	
746.68	6765.8	
746.86	6127.5	
747.03	8731.9	
747.21	6926.9	
747.39	6759	
747.57	6135.7	
747.75	7774.1	
747.93	8286.1	
748.11	6076.3	
748.29	6001.9	
748.47	9544.2	
748.65	7533.8	
748.83	6861.4	
749.01	6642.9	
749.19	8084	
749.37	7165.2	
749.55	6436.1	
749.73	6516	
749.91	7694.2	
750.09	7353.6	
750.26	6523.5	
750.44	5814.9	
750.62	7737.2	
750.8	7627.3	
750.98	5746.6	
751.16	6157.6	
751.34	7684	
751.52	6946.7	
751.7	7003.4	
751.88	5750.7	
752.06	8203.5	
752.24	7992.5	
752.42	5635.3	
752.59	6040.8	
752.77	7565.9	
752.95	9035	
753.13	6754.9	
753.31	6179.4	
753.49	7211.6	
753.67	7755.7	
753.85	6414.2	
754.03	6004.6	
754.21	7907.9	
754.38	8308.6	
754.56	6071.5	
754.74	4982.7	
754.92	7019.8	
755.1	7751.6	
755.28	4962.9	
755.46	4855.1	
755.64	8362.5	
755.82	8393.9	
755.99	4913.8	
756.17	4997.7	
756.35	5522.7	
756.53	7138.5	
756.71	3684.3	
756.89	4796.3	
757.07	6728.9	
757.25	5798.5	
757.42	5408	
757.6	6395.1	
757.78	6981.5	
757.96	5813.5	
758.14	5158.2	
758.32	4705.5	
758.5	5382.7	
758.67	6256.5	
758.85	4952.7	
759.03	5119.2	
759.21	6458.6	
759.39	5839.4	
759.57	4518.5	
759.75	5808.7	
759.92	7114.6	
760.1	6430.6	
760.28	6225.1	
760.46	6537.1	
760.64	6221	
760.82	5895.4	
760.99	6094.8	
761.17	5242.1	
761.35	7134.4	
761.53	6027.9	
761.71	5344.5	
761.89	6107	
762.06	7049.8	
762.24	6537.1	
762.42	5455.1	
762.6	5293.3	
762.78	6577.4	
762.96	7212.9	
763.13	5958.2	
763.31	5616.9	
763.49	7556.3	
763.67	6565.1	
763.85	6500.9	
764.02	7155.6	
764.2	7746.8	
764.38	6836.1	
764.56	5435.3	
764.74	6382.2	
764.91	7852.6	
765.09	6663.4	
765.27	5056.4	
765.45	4868.7	
765.63	7884.7	
765.8	7707.2	
765.98	4553.3	
766.16	4929.5	
766.34	6096.8	
766.52	5885.9	
766.69	5916.6	
766.87	4725.3	
767.05	6546	
767.23	7302.4	
767.41	5044.8	
767.58	5309.7	
767.76	7105.8	
767.94	7256	
768.12	5164.3	
768.29	6033.3	
768.47	6595.1	
768.65	7477.1	
768.83	4753.3	
769	5928.2	
769.18	6077	
769.36	6929	
769.54	5942.5	
769.72	4663.2	
769.89	7140.6	
770.07	7305.8	
770.25	4993.6	
770.43	6421.1	
770.6	7876.5	
770.78	8374.1	
770.96	5239.4	
771.14	5896.8	
771.31	7025.2	
771.49	6279.1	
771.67	4306.9	
771.85	4576.5	
772.02	5424.4	
772.2	6299.6	
772.38	5222.3	
772.55	4807.3	
772.73	6523.5	
772.91	6251.8	
773.09	5148.6	
773.26	5259.9	
773.44	6475.7	
773.62	6156.9	
773.8	4650.9	
773.97	4300.1	
774.15	6509.8	
774.33	6111.1	
774.5	4459.8	
774.68	4940.4	
774.86	6746.7	
775.04	6130.9	
775.21	4569.7	
775.39	4569.7	
775.57	6413.6	
775.74	6875	
775.92	4465.3	
776.1	4318.5	
776.27	6350.1	
776.45	7731.8	
776.63	4554.7	
776.81	4039.3	
776.98	5954.1	
777.16	7187.7	
777.34	4693.9	
777.51	4988.2	
777.69	5887.2	
777.87	5736.4	
778.04	4726.7	
778.22	5440.8	
778.4	5636.7	
778.57	6434	
778.75	3913	
778.93	4195.6	
779.1	5482.4	
779.28	5373.2	
779.46	3955.3	
779.64	4440.7	
779.81	6571.2	
779.99	7468.3	
780.17	5273.5	
780.34	5460.6	
780.52	5969.8	
780.69	6237.4	
780.87	4816.1	
781.05	4292.5	
781.22	6017.6	
781.4	6037.4	
781.58	4392.9	
781.75	3481.5	
781.93	6034	
782.11	5358.2	
782.28	5350	
782.46	4460.5	
782.64	5270.8	
782.81	6151.4	
782.99	4414.1	
783.17	4466.6	
783.34	6055.8	
783.52	5216.9	
783.69	4713.7	
783.87	5552.7	
784.05	5265.3	
784.22	5350.7	
784.4	5480.4	
784.58	4755.4	
784.75	6355.5	
784.93	5348.6	
785.1	4414.7	
785.28	5087.8	
785.46	6126.2	
785.63	5337.7	
785.81	4295.3	
785.99	4183.3	
786.16	5442.1	
786.34	5932.3	
786.51	4269.3	
786.69	4693.3	
786.87	5046.9	
787.04	5580.7	
787.22	4063.2	
787.39	5134.9	
787.57	5275.6	
787.75	6516.6	
787.92	5231.9	
788.1	5307	
788.27	5363.6	
788.45	5061.2	
788.63	4942.4	
788.8	3558.7	
788.98	5671.5	
789.15	5071.5	
789.33	3660.4	
789.5	4407.2	
789.68	6305.7	
789.86	6472.9	
790.03	4842.1	
790.21	4238.6	
790.38	6235.4	
790.56	5436	
790.73	4052.9	
790.91	4089.8	
791.09	5259.9	
791.26	6182.1	
791.44	4392.2	
791.61	3682.2	
791.79	5287.9	
791.96	5412.1	
792.14	3867.2	
792.32	3437.9	
792.49	5268.1	
792.67	5436	
792.84	3911.6	
793.02	3728.7	
793.19	5767.8	
793.37	6547.4	
793.54	3355.3	
793.72	3789.4	
793.89	6748.7	
794.07	5296.7	
794.25	4308.9	
794.42	3499.3	
794.6	6423.1	
794.77	6030.6	
794.95	4729.4	
795.12	4072	
795.3	5222.3	
795.47	5976	
795.65	4533.5	
795.82	4367	
796	5044.1	
796.17	7118.7	
796.35	4218.8	
796.52	4966.3	
796.7	5870.8	
796.87	5961	
797.05	5231.9	
797.22	5135.6	
797.4	5885.2	
797.57	7031.4	
797.75	4326	
797.92	4078.2	
798.1	6226.5	
798.27	5242.1	
798.45	3519.1	
798.62	3752.6	
798.8	5592.3	
798.97	6096.1	
799.15	4556.7	
799.32	4300.7	
799.5	4852.3	
799.67	5664	
799.85	4714.4	
800.02	3394.8	
800.2	5218.2	
800.37	5600.5	
800.55	4937	
800.72	4067.9	
800.9	6040.1	
801.07	6558.3	
801.25	5479.7	
801.42	4475.5	
801.6	6083.1	
801.77	5902.9	
801.95	4139.6	
802.12	3958.7	
802.29	5787.6	
802.47	5787.6	
802.64	4498.7	
802.82	3383.2	
802.99	5214.1	
803.17	6333	
803.34	4303.5	
803.52	3867.9	
803.69	7096.2	
803.87	5008.6	
804.04	4291.2	
804.21	4390.2	
804.39	6460.7	
804.56	5420.3	
804.74	3743	
804.91	4546.5	
805.09	5214.1	
805.26	5302.2	
805.44	3728	
805.61	4095.3	
805.78	5888.6	
805.96	6093.4	
806.13	4502.1	
806.31	4815.5	
806.48	4754	
806.66	5356.8	
806.83	4389.5	
807	4401.1	
807.18	5191.6	
807.35	5638.7	
807.53	4364.9	
807.7	3469.3	
807.87	6535.1	
808.05	5233.2	
808.22	4804.5	
808.4	3427.6	
808.57	5281	
808.74	4803.9	
808.92	4002.4	
809.09	5065.3	
809.27	5146.5	
809.44	5816.2	
809.61	3508.2	
809.79	3872	
809.96	6466.1	
810.14	6058.6	
810.31	3373	
810.48	4190.8	
810.66	5341.1	
810.83	6202.6	
811.01	3971	
811.18	4411.3	
811.35	6017.6	
811.53	4662.5	
811.7	4827.1	
811.87	4470	
812.05	5252.4	
812.22	5175.2	
812.39	3812	
812.57	3710.2	
812.74	5234.6	
812.92	7081.2	
813.09	4179.9	
813.26	4504.2	
813.44	6817.7	
813.61	5175.9	
813.78	3450.1	
813.96	4650.3	
814.13	5294.7	
814.3	4824.3	
814.48	5069.4	
814.65	4157.4	
814.82	6566.5	
815	5037.3	
815.17	4289.8	
815.34	5272.2	
815.52	5199.8	
815.69	5169.8	
815.87	4293.2	
816.04	4199.7	
816.21	5237.3	
816.38	4618.2	
816.56	4078.2	
816.73	3814	
816.9	6634.1	
817.08	6059.3	
817.25	3862.5	
817.42	4913.8	
817.6	4741.7	
817.77	5296.7	
817.94	4342.4	
818.12	3837.9	
818.29	4926.7	
818.46	7907.2	
818.64	3986.7	
818.81	3684.3	
818.98	4896	
819.16	7287.4	
819.33	4579.9	
819.5	4290.5	
819.67	5660.6	
819.85	6260	
820.02	4124.6	
820.19	4454.3	
820.37	5484.5	
820.54	4995	
820.71	4364.2	
820.88	5412.8	
821.06	5535.7	
821.23	4965	
821.4	4360.1	
821.58	4314.4	
821.75	6071.5	
821.92	5393.7	
822.09	3423.5	
822.27	3822.2	
822.44	5242.8	
822.61	5182.7	
822.79	3442.6	
822.96	6816.3	
823.13	5863.3	
823.3	4967.7	
823.48	4075.5	
823.65	3639.9	
823.82	5984.2	
823.99	4790.2	
824.17	5193.6	
824.34	3734.8	
824.51	6962.4	
824.68	5367	
824.86	3893.2	
825.03	4389.5	
825.2	5238	
825.37	6462	
825.55	3829	
825.72	4275.5	
825.89	7102.4	
826.06	6568.5	
826.24	4158.7	
826.41	4225.6	
826.58	6420.4	
826.75	5672.2	
826.92	3287	
827.1	3599	
827.27	8883.4	
827.44	6935.1	
827.61	3964.9	
827.79	4782.7	
827.96	4937	
828.13	5349.3	
828.3	4092.5	
828.47	3492.5	
828.65	5451	
828.82	5446.9	
828.99	5403.9	
829.16	4782	
829.34	5839.4	
829.51	5621.7	
829.68	4248.2	
829.85	4504.2	
830.02	6205.3	
830.2	5984.2	
830.37	3281.5	
830.54	5276.9	
830.71	6774	
830.88	5287.9	
831.05	3389.4	
831.23	3853.6	
831.4	6470.9	
831.57	7296.9	
831.74	3992.2	
831.91	3551.9	
832.09	5470.1	
832.26	5879	
832.43	4103.4	
832.6	4655.7	
832.77	5489.9	
832.94	6288.6	
833.12	3231	
833.29	4076.8	
833.46	5107.6	
833.63	7533.1	
833.8	4536.3	
833.97	4216.1	
834.15	5840.8	
834.32	5614.2	
834.49	4300.7	
834.66	4463.9	
834.83	6109.8	
835	4935.6	
835.17	3952.6	
835.35	3994.9	
835.52	5831.9	
835.69	5694	
835.86	4250.9	
836.03	3476.1	
836.2	5776.6	
836.37	5444.2	
836.55	4095.3	
836.72	3901.4	
836.89	5426.4	
837.06	6014.9	
837.23	4190.8	
837.4	4593.6	
837.57	6736.5	
837.75	7539.9	
837.92	3777.1	
838.09	4014.7	
838.26	5357.5	
838.43	6214.9	
838.6	4324.6	
838.77	3827.7	
838.94	7130.3	
839.11	6780.1	
839.29	4062.5	
839.46	3251.5	
839.63	5804.6	
839.8	5638.1	
839.97	3993.5	
840.14	3985.3	
840.31	5627.8	
840.48	5905	
840.65	3276.7	
840.82	3880.9	
841	5853.8	
841.17	5844.2	
841.34	3717.7	
841.51	3757.3	
841.68	5748.6	
841.85	5509	
842.02	3816	
842.19	3089	
842.36	5638.1	
842.53	5556.1	
842.7	3691.8	
842.87	4542.4	
843.05	7469.6	
843.22	5534.3	
843.39	3468.6	
843.56	3756	
843.73	5231.9	
843.9	5905	
844.07	5918.6	
844.24	5012.1	
844.41	8796	
844.58	5037.3	
844.75	3535.5	
844.92	3847.5	
845.09	5870.8	
845.26	5859.9	
845.43	3605.8	
845.6	3895.2	
845.77	5876.3	
845.94	5508.4	
846.12	4043.4	
846.29	4334.9	
846.46	6028.5	
846.63	5929.6	
846.8	3695.9	
846.97	4371.7	
847.14	6401.3	
847.31	5795.8	
847.48	4095.3	
847.65	4569	
847.82	6126.8	
847.99	6219.7	
848.16	4911.7	
848.33	4559.5	
848.5	5340.4	
848.67	6384.2	
848.84	3665.9	
849.01	3765.5	
849.18	5257.8	
849.35	4891.2	
849.52	4593.6	
849.69	3547.1	
849.86	6092	
850.03	6392.4	
850.2	3697.3	
850.37	4484.4	
850.54	6253.8	
850.71	5538.4	
850.88	4376.5	
851.05	3594.2	
851.22	5810.1	
851.39	6543.9	
851.56	3511.6	
851.73	4169	
851.9	5134.3	
852.07	6063.4	
852.24	4005.8	
852.41	3635.1	
852.58	5684.5	
852.75	5203.9	
852.92	4052.9	
853.09	3583.3	
853.26	5401.2	
853.43	6307.7	
853.6	3583.9	
853.77	3080.8	
853.94	6470.2	
854.11	5761.6	
854.28	5494	
854.44	3963.5	
854.61	6774.7	
854.78	6171.2	
854.95	3590.8	
855.12	4648.2	
855.29	4678.2	
855.46	6610.2	
855.63	3624.2	
855.8	5072.1	
855.97	5339.7	
856.14	6193.1	
856.31	5194.3	
856.48	3935.5	
856.65	5398.4	
856.82	5040.7	
856.99	3464.5	
857.16	3964.9	
857.33	7113.3	
857.49	5510.4	
857.66	3917.1	
857.83	4254.3	
858	5422.3	
858.17	5682.4	
858.34	3422.8	
858.51	3676.8	
858.68	6546	
858.85	6632	
859.02	4265.2	
859.19	4512.4	
859.36	5089.2	
859.52	5196.4	
859.69	3667.9	
859.86	4308.2	
860.03	5149.3	
860.2	6466.1	
860.37	3245.3	
860.54	3643.3	
860.71	6120	
860.88	6600.6	
861.05	4072.7	
861.21	4609.3	
861.38	6533.7	
861.55	5023	
861.72	3261.7	
861.89	4085.7	
862.06	6192.4	
862.23	6724.2	
862.4	3543.7	
862.56	3777.8	
862.73	5999.2	
862.9	5602.6	
863.07	4278.2	
863.24	3247.4	
863.41	4980.7	
863.58	5152.7	
863.75	3682.9	
863.91	4229.7	
864.08	6503.7	
864.25	6019	
864.42	4590.2	
864.59	5123.3	
864.76	6797.2	
864.93	5102.2	
865.09	3577.8	
865.26	3909.6	
865.43	6401.3	
865.6	6700.3	
865.77	3164.1	
865.94	3618.8	
866.1	6466.1	
866.27	6208.1	
866.44	5550	
866.61	3449.5	
866.78	5520	
866.95	5941.8	
867.11	3515	
867.28	3183.9	
867.45	6165.1	
867.62	5175.2	
867.79	4272.1	
867.96	3629	
868.12	5067.4	
868.29	6121.4	
868.46	3664.5	
868.63	4859.1	
868.8	6328.2	
868.97	6072.2	
869.13	3824.2	
869.3	3803.1	
869.47	5952.1	
869.64	6199.9	
869.81	3665.9	
869.97	3662.5	
870.14	5849.7	
870.31	6587.6	
870.48	3463.8	
870.65	4568.3	
870.81	5487.2	
870.98	5461.2	
871.15	4106.2	
871.32	3767.6	
871.48	5952.1	
871.65	6603.3	
871.82	3628.3	
871.99	3979.2	
872.16	7129.7	
872.32	6429.3	
872.49	3663.1	
872.66	3637.2	
872.83	6077	
872.99	5364.3	
873.16	4170.3	
873.33	3578.5	
873.5	5673.6	
873.67	5716.6	
873.83	3867.2	
874	4906.9	
874.17	5811.5	
874.34	6997.9	
874.5	4728.8	
874.67	4556	
874.84	6518.7	
875.01	5102.9	
875.17	5203.9	
875.34	3597.6	
875.51	5738.4	
875.68	6957.6	
875.84	4384.7	
876.01	5381.4	
876.18	6035.4	
876.34	5971.2	
876.51	3661.1	
876.68	3559.4	
876.85	5568.4	
877.01	6354.2	
877.18	5276.9	
877.35	3614.7	
877.52	5638.7	
877.68	5032.5	
877.85	3560.1	
878.02	3605.1	
878.18	5617.6	
878.35	5294	
878.52	2913.6	
878.69	4094.6	
878.85	6106.4	
879.02	6016.2	
879.19	5175.2	
879.35	3946.4	
879.52	6021	
879.69	6311.2	
879.86	3102	
880.02	4104.8	
880.19	5571.8	
880.36	6878.4	
880.52	4171.7	
880.69	4343.7	
880.86	6180.8	
881.02	6220.4	
881.19	3920.5	
881.36	3974.4	
881.52	6062	
881.69	5323.4	
881.86	3945.1	
882.02	3811.3	
882.19	6348.7	
882.36	7402	
882.52	3752.6	
882.69	5195	
882.86	5741.8	
883.02	5715.2	
883.19	4424.3	
883.36	4190.1	
883.52	6150.7	
883.69	7059.3	
883.86	3718.4	
884.02	3282.9	
884.19	6181.5	
884.36	5610.1	
884.52	4050.2	
884.69	3825.6	
884.86	5325.4	
885.02	6798.6	
885.19	4040	
885.36	4233.2	
885.52	5646.2	
885.69	5798.5	
885.86	5328.1	
886.02	4665.3	
886.19	6085.2	
886.35	5539.1	
886.52	3971	
886.69	5092.6	
886.85	5165	
887.02	6494.1	
887.19	6494.1	
887.35	6494.1	
887.52	6494.1	
887.68	6494.1	
887.85	6494.1	
888.02	6494.1	
888.18	6494.1	
888.35	6494.1	
888.51	6494.1	
888.68	6494.1	
888.85	6494.1	
889.01	6494.1	
889.18	6494.1	
889.35	6494.1	
889.51	6494.1	
889.68	6494.1	
889.84	6494.1	
890.01	6494.1	
890.17	6494.1	
890.34	6494.1	
890.51	6494.1	
890.67	6494.1	
890.84	6494.1	
891	6494.1	
891.17	6494.1	
891.34	6494.1	
891.5	6494.1	
891.67	6494.1	
891.83	6494.1	
892	6494.1	
892.16	6494.1	
892.33	6494.1	
892.5	6494.1	
892.66	6494.1	
892.83	6494.1	
892.99	6494.1	
893.16	6494.1	
893.32	6494.1	
893.49	6494.1	
893.65	6494.1	
893.82	6494.1	
893.99	6494.1	
894.15	6494.1	
894.32	6494.1	
894.48	6494.1	
894.65	6494.1	
894.81	6494.1	
894.98	6494.1	
895.14	6494.1	
895.31	6494.1	
895.47	6494.1	
895.64	6494.1	
895.81	6494.1	
895.97	6494.1	
896.14	6494.1	
896.3	6494.1	
896.47	6494.1	
896.63	6494.1	
896.8	6494.1	
896.96	6494.1	
897.13	6494.1	
897.29	6494.1	
897.46	6494.1	
897.62	6494.1	
897.79	6494.1	
897.95	6494.1	
898.12	6494.1	
898.28	6494.1	
898.45	6494.1	
898.61	6494.1	
898.78	6494.1	
898.94	6494.1	
899.11	6494.1	
899.27	6494.1	
899.44	6494.1	
899.6	6494.1	
899.77	6494.1	
899.93	6494.1	
900.1	6494.1	
900.26	6494.1	
900.43	6494.1	
900.59	6494.1	
900.76	6494.1	
900.92	6494.1	
901.09	6494.1	
901.25	6494.1	
901.42	6494.1	
901.58	6494.1	
901.75	6494.1	
901.91	6494.1	
902.07	6494.1	
902.24	6494.1	
902.4	6494.1	
902.57	6494.1	
902.73	6494.1	
902.9	6494.1	
903.06	6494.1	
903.23	6494.1	
903.39	6494.1	
903.56	6494.1	
903.72	6494.1	
903.88	6494.1	
904.05	6494.1	
904.21	6494.1	
904.38	6494.1	
904.54	6494.1	
904.71	6494.1	
904.87	6494.1	
905.03	6494.1	
905.2	6494.1	
905.36	6494.1	
905.53	6494.1	
905.69	6494.1	
905.86	6494.1	
906.02	6494.1	
906.18	6494.1	
906.35	6494.1	
906.51	6494.1	
906.68	6494.1	
906.84	6494.1	
907.01	6494.1	
907.17	6494.1	
907.33	6494.1	
907.5	6494.1	
907.66	6494.1	
907.83	6494.1	
907.99	6494.1	
908.15	6494.1	
908.32	6494.1	
908.48	6494.1	
908.65	6494.1	
908.81	6494.1	
908.97	6494.1	
909.14	6494.1	
909.3	6494.1	
909.47	6494.1	
909.63	6494.1	
909.79	6494.1	
909.96	6494.1	
910.12	6494.1	
910.28	6494.1	
910.45	6494.1	
910.61	6494.1	
910.78	6494.1	
910.94	6494.1	
911.1	6494.1	
911.27	6494.1	
911.43	6494.1	
911.59	6494.1	
911.76	6494.1	
911.92	6494.1	
912.08	6494.1	
912.25	6494.1	
912.41	6494.1	
912.57	6494.1	
912.74	6494.1	
912.9	6494.1	
913.07	6494.1	
913.23	6494.1	
913.39	6494.1	
913.56	6494.1	
913.72	6494.1	
913.88	6494.1	
914.05	6494.1	
914.21	6494.1	
914.37	6494.1	
914.54	6494.1	
914.7	6494.1	
914.86	6494.1	
915.03	6494.1	
915.19	6494.1	
