Wavelength	Intensities	
nm	a.u.	
179.22	1754.9	
179.44	1753.4	
179.65	1756.5	
179.86	1750.3	
180.08	1744.9	
180.29	4229.1	
180.51	3136.8	
180.72	5120.6	
180.94	5890.6	
181.15	2822.8	
181.37	2850.8	
181.58	4948.6	
181.79	5241.4	
182.01	2968.9	
182.22	3160	
182.44	5199.8	
182.65	4536.9	
182.87	3915	
183.08	3462.4	
183.29	5510.4	
183.51	4625.7	
183.72	3109.5	
183.94	4458.4	
184.15	4991.6	
184.37	4907.6	
184.58	2815.3	
184.79	3719.8	
185.01	4624.3	
185.22	5178.6	
185.44	3961.5	
185.65	3391.4	
185.86	4868	
186.08	4519.2	
186.29	2764.1	
186.51	2956.6	
186.72	4653	
186.94	5326.1	
187.15	3429.7	
187.36	3534.8	
187.58	6774	
187.79	5001.8	
188.01	3605.1	
188.22	5490.6	
188.43	5927.5	
188.65	5182.7	
188.86	2964.8	
189.08	3488.4	
189.29	4726	
189.5	4779.3	
189.72	3234.4	
189.93	3308.8	
190.15	5343.8	
190.36	6311.2	
190.57	3398.9	
190.79	3424.9	
191	5440.8	
191.22	5373.2	
191.43	3609.9	
191.64	2960	
191.86	5606	
192.07	5436	
192.29	3071.3	
192.5	3212.6	
192.71	5385.5	
192.93	4705.5	
193.14	3195.5	
193.35	3276.8	
193.57	4702.8	
193.78	5302.2	
194	2659.6	
194.21	3147	
194.42	4573.8	
194.64	4981.3	
194.85	3416	
195.07	4011.3	
195.28	4975.2	
195.49	4365.6	
195.71	4253.6	
195.92	3053.5	
196.13	5131.5	
196.35	5120.6	
196.56	4427.7	
196.78	3441.3	
196.99	6191.7	
197.2	5843.5	
197.42	3896.6	
197.63	3507.5	
197.84	4466.6	
198.06	5102.9	
198.27	3251.5	
198.48	4141	
198.7	4734.2	
198.91	4883.7	
199.13	3515	
199.34	3524.6	
199.55	5307	
199.77	4299.4	
199.98	3161.4	
200.19	3519.8	
200.41	4942.4	
200.62	4624.3	
200.83	3551.2	
201.05	3898.6	
201.26	4868.7	
201.47	4646.2	
201.69	3146.4	
201.9	3022.1	
202.11	4939.7	
202.33	5683.1	
202.54	3315	
202.76	3652.2	
202.97	4988.2	
203.18	5040.1	
203.4	3656.3	
203.61	3658.4	
203.82	5012.1	
204.04	4621.6	
204.25	3534.1	
204.46	3431.7	
204.68	4878.9	
204.89	5101.5	
205.1	3453.6	
205.32	2974.3	
205.53	5185.5	
205.74	5363.6	
205.96	2617.3	
206.17	3573	
206.38	5190.2	
206.6	5321.3	
206.81	3999	
207.02	3323.9	
207.24	5164.3	
207.45	5466	
207.66	3375.1	
207.88	2940.9	
208.09	5090.6	
208.3	4928.8	
208.52	3074.7	
208.73	3435.1	
208.94	4915.8	
209.15	5517.9	
209.37	3358	
209.58	3719.8	
209.79	5357.5	
210.01	4776.5	
210.22	2759.3	
210.43	2832.3	
210.65	4867.3	
210.86	5230.5	
211.07	3325.2	
211.29	3091.1	
211.5	5185.5	
211.71	4848.9	
211.93	3151.1	
212.14	3104	
212.35	4919.2	
212.56	5002.5	
212.78	3515.7	
212.99	2927.9	
213.2	5661.3	
213.42	4769.7	
213.63	3205.8	
213.84	3448.8	
214.06	4379.2	
214.27	4448.2	
214.48	3289	
214.69	3540.3	
214.91	5523.4	
215.12	5526.8	
215.33	3554.6	
215.55	3866.6	
215.76	5939.8	
215.97	5174.5	
216.18	3439.2	
216.4	3405.1	
216.61	4656.4	
216.82	5338.4	
217.04	3094.5	
217.25	3195.5	
217.46	5426.4	
217.67	5248.9	
217.89	2822.8	
218.1	2949.1	
218.31	4977.9	
218.53	5107	
218.74	3270.6	
218.95	3125.2	
219.16	4833.2	
219.38	5695.4	
219.59	3175.7	
219.8	3690.4	
220.01	6169.2	
220.23	4957.4	
220.44	4099.4	
220.65	3028.3	
220.87	4984.1	
221.08	5464	
221.29	2953.9	
221.5	3758	
221.72	6484.6	
221.93	4649.6	
222.14	3569.6	
222.35	4111	
222.57	4929.5	
222.78	5297.4	
222.99	3392.1	
223.2	3586	
223.42	5158.2	
223.63	5281	
223.84	2643.9	
224.05	2633.7	
224.27	6149.4	
224.48	5608.7	
224.69	4044.7	
224.9	3514.3	
225.12	5081.7	
225.33	4902.2	
225.54	2865.8	
225.75	3149.8	
225.97	4609.3	
226.18	4829.8	
226.39	3365.5	
226.6	3192.8	
226.82	4732.2	
227.03	4605.2	
227.24	3506.8	
227.45	2976.4	
227.67	5265.3	
227.88	5626.5	
228.09	3889.1	
228.3	3907.5	
228.52	5253.7	
228.73	4844.8	
228.94	3252.9	
229.15	2936.1	
229.36	4882.4	
229.58	4825.7	
229.79	3269.2	
230	3824.9	
230.21	5757.5	
230.43	4978.6	
230.64	3466.5	
230.85	3595.6	
231.06	5265.3	
231.28	5255.1	
231.49	2953.9	
231.7	3449.5	
231.91	5238.7	
232.12	4898.7	
232.34	3064.4	
232.55	3422.2	
232.76	5403.2	
232.97	5031.9	
233.18	3120.4	
233.4	3515	
233.61	5131.5	
233.82	4746.5	
234.03	3269.2	
234.25	3229	
234.46	6566.5	
234.67	4959.5	
234.88	3534.1	
235.09	3132.7	
235.31	5140.4	
235.52	4806.6	
235.73	3449.5	
235.94	2949.1	
236.15	4674.8	
236.37	5841.5	
236.58	3146.4	
236.79	3417.4	
237	5184.1	
237.21	4510.3	
237.43	3607.8	
237.64	2863.7	
237.85	8303.8	
238.06	4566.3	
238.27	3598.3	
238.48	3028.9	
238.7	5231.2	
238.91	4792.2	
239.12	3297.2	
239.33	3418.1	
239.54	4605.9	
239.76	4820.9	
239.97	3357.3	
240.18	3420.8	
240.39	5985.5	
240.6	5152	
240.82	3474.7	
241.03	2930.6	
241.24	4900.8	
241.45	5597.1	
241.66	3095.2	
241.87	3680.2	
242.09	5533.6	
242.3	5793	
242.51	3630.4	
242.72	3394.2	
242.93	5286.5	
243.14	4886.5	
243.36	3843.4	
243.57	4170.3	
243.78	5595.1	
243.99	5215.5	
244.2	3373.7	
244.41	3068.5	
244.63	4576.5	
244.84	5186.8	
245.05	3544.4	
245.26	3349.8	
245.47	5205.9	
245.68	5268.7	
245.9	4363.5	
246.11	3565.5	
246.32	4774.5	
246.53	5163.6	
246.74	5359.5	
246.95	2930	
247.16	4555.4	
247.38	4915.8	
247.59	2936.8	
247.8	3347.7	
248.01	4598.4	
248.22	4881	
248.43	3083.6	
248.64	3326.6	
248.86	4465.9	
249.07	4724	
249.28	3028.9	
249.49	3480.2	
249.7	5358.2	
249.91	5439.4	
250.12	2824.1	
250.34	2927.2	
250.55	5055.1	
250.76	4992.3	
250.97	3463.8	
251.18	3565.5	
251.39	5455.1	
251.6	5125.4	
251.81	3553.9	
252.03	3532.1	
252.24	4732.9	
252.45	5327.4	
252.66	2964.8	
252.87	3690.4	
253.08	4937	
253.29	6254.5	
253.5	3018.7	
253.72	4108.9	
253.93	4760.8	
254.14	5737.7	
254.35	3234.4	
254.56	3324.5	
254.77	5057.8	
254.98	4620.2	
255.19	3198.2	
255.41	4040	
255.62	5027.1	
255.83	5429.2	
256.04	3608.5	
256.25	3474.7	
256.46	5851	
256.67	4711	
256.88	3501.3	
257.09	3867.9	
257.31	4651.6	
257.52	4658.4	
257.73	4307.6	
257.94	3216	
258.15	4859.8	
258.36	4974.5	
258.57	3978.5	
258.78	2624.8	
258.99	5333.6	
259.2	4768.4	
259.41	3180.5	
259.63	3317.7	
259.84	5641.5	
260.05	5883.8	
260.26	4209.9	
260.47	3177.1	
260.68	5416.9	
260.89	4849.6	
261.1	3852.9	
261.31	3100.6	
261.52	5417.6	
261.73	5782.1	
261.95	4135.5	
262.16	3621.5	
262.37	5517.2	
262.58	5532.2	
262.79	4073.4	
263	3258.3	
263.21	5012.7	
263.42	4788.2	
263.63	3315.7	
263.84	3295.9	
264.05	5396.4	
264.26	5702.9	
264.47	3987.4	
264.69	3512.3	
264.9	5559.6	
265.11	5107	
265.32	3173.7	
265.53	3211.2	
265.74	5046.9	
265.95	4477.5	
266.16	3427.6	
266.37	3746.4	
266.58	5027.8	
266.79	4727.4	
267	3170.3	
267.21	3011.9	
267.42	4630.5	
267.63	4928.8	
267.84	3359.4	
268.06	2932.7	
268.27	5236.7	
268.48	5503.6	
268.69	3273.3	
268.9	3854.3	
269.11	5515.9	
269.32	4456.4	
269.53	3373.7	
269.74	3222.8	
269.95	5152.7	
270.16	4441.4	
270.37	3396.9	
270.58	3899.3	
270.79	4792.9	
271	5372.5	
271.21	3602.4	
271.42	3406.5	
271.63	5111	
271.84	4641.4	
272.05	2752.5	
272.26	3067.2	
272.47	4907.6	
272.68	5070.1	
272.89	3240.6	
273.11	3635.8	
273.32	4739.7	
273.53	5701.5	
273.74	3668.6	
273.95	3546.4	
274.16	5438	
274.37	4969.1	
274.58	3700.7	
274.79	3001.6	
275	5061.2	
275.21	5393.7	
275.42	4390.2	
275.63	3745.7	
275.84	5140.4	
276.05	6279.8	
276.26	3535.5	
276.47	3307.5	
276.68	4857.1	
276.89	5724.8	
277.1	3810.6	
277.31	2968.2	
277.52	5138.4	
277.73	5339.7	
277.94	2933.4	
278.15	3244	
278.36	5109	
278.57	4710.3	
278.78	3263.1	
278.99	3654.3	
279.2	4683.7	
279.41	4617.5	
279.62	4219.5	
279.83	3039.2	
280.04	5858.6	
280.25	4562.9	
280.46	4186	
280.67	3409.2	
280.88	4612	
281.09	5507.7	
281.3	3530.7	
281.51	4369.7	
281.72	5313.8	
281.93	5338.4	
282.14	3165.5	
282.35	3462.4	
282.56	5375.9	
282.77	5280.3	
282.98	3328.6	
283.19	3916.4	
283.4	6382.8	
283.61	4878.3	
283.82	3028.3	
284.03	4105.5	
284.24	5040.7	
284.45	5431.9	
284.66	4145.1	
284.87	3947.8	
285.08	5454.4	
285.29	5478.3	
285.5	2967.5	
285.71	3317.7	
285.92	5444.2	
286.12	5940.5	
286.33	4082.3	
286.54	3330	
286.75	5312.4	
286.96	4806.6	
287.17	3066.5	
287.38	3967.6	
287.59	4681.7	
287.8	4641.4	
288.01	3327.3	
288.22	3711.6	
288.43	5266	
288.64	4501.4	
288.85	3897.3	
289.06	3727.3	
289.27	5354.1	
289.48	5684.5	
289.69	4094.6	
289.9	3750.5	
290.11	5492.7	
290.32	4737.6	
290.53	3932.1	
290.74	3620.1	
290.94	5333.6	
291.15	5297.4	
291.36	3217.4	
291.57	3725.3	
291.78	4793.6	
291.99	4465.9	
292.2	3087	
292.41	3621.5	
292.62	5433.3	
292.83	5197.1	
293.04	4382	
293.25	3149.8	
293.46	4803.2	
293.67	5372.5	
293.88	3148.4	
294.09	3102	
294.29	4546.5	
294.5	5035.3	
294.71	3408.5	
294.92	3247.4	
295.13	4757.4	
295.34	5867.4	
295.55	2917	
295.76	2857.6	
295.97	5246.9	
296.18	5870.2	
296.39	3018	
296.6	3221.5	
296.81	4965	
297.01	5264.6	
297.22	3366.2	
297.43	3247.4	
297.64	4709	
297.85	4603.2	
298.06	2704.7	
298.27	2915.6	
298.48	4977.9	
298.69	4672.8	
298.9	3433.1	
299.11	3141.6	
299.31	4553.3	
299.52	4573.1	
299.73	3697.9	
299.94	3611.9	
300.15	4988.2	
300.36	4628.4	
300.57	3573	
300.78	3549.1	
300.99	4819.6	
301.2	5038.7	
301.4	3218	
301.61	3418.7	
301.82	5202.5	
302.03	5262.6	
302.24	3825.6	
302.45	3004.4	
302.66	5153.4	
302.87	5494.7	
303.08	3203	
303.29	4257	
303.49	4776.5	
303.7	4889.2	
303.91	2859	
304.12	4152.6	
304.33	4517.1	
304.54	5027.8	
304.75	3245.3	
304.96	3039.9	
305.16	5197.7	
305.37	5846.3	
305.58	2846	
305.79	2900.6	
306	5169.1	
306.21	4453	
306.42	3194.1	
306.63	4728.1	
306.83	4794.3	
307.04	5357.5	
307.25	3468.6	
307.46	3472.7	
307.67	4365.6	
307.88	5242.8	
308.09	3207.8	
308.29	3244	
308.5	5020.9	
308.71	5410.7	
308.92	3384.6	
309.13	3096.5	
309.34	4922	
309.55	4845.5	
309.75	3897.3	
309.96	3590.8	
310.17	5274.2	
310.38	4704.2	
310.59	3726.6	
310.8	2996.2	
311.01	5148.6	
311.21	4908.3	
311.42	3070.6	
311.63	3141.6	
311.84	4746.5	
312.05	5040.1	
312.26	3558.7	
312.46	3827	
312.67	4821.6	
312.88	4560.8	
313.09	3074	
313.3	3002.3	
313.51	5610.8	
313.71	5847	
313.92	3052.2	
314.13	3250.8	
314.34	5100.8	
314.55	4909.7	
314.76	3915	
314.96	3418.7	
315.17	5053.7	
315.38	5223.7	
315.59	3127.9	
315.8	3002.3	
316.01	5614.8	
316.21	5651.7	
316.42	3029.6	
316.63	3381.2	
316.84	4830.5	
317.05	5498.1	
317.26	3559.4	
317.46	3282.2	
317.67	4879.6	
317.88	5233.2	
318.09	3815.4	
318.3	2908.1	
318.5	4739	
318.71	5207.3	
318.92	4831.8	
319.13	3637.2	
319.34	5386.8	
319.54	5460.6	
319.75	2895.1	
319.96	2785.2	
320.17	5273.5	
320.38	5366.4	
320.58	2857.6	
320.79	3401.7	
321	5432.6	
321.21	5443.5	
321.42	3409.9	
321.62	2917.7	
321.83	4666.6	
322.04	4930.1	
322.25	3309.5	
322.46	3139.5	
322.66	5068.7	
322.87	5228.5	
323.08	3798.3	
323.29	3030.3	
323.5	5832.6	
323.7	4607.2	
323.91	4073.4	
324.12	3708.2	
324.33	4991.6	
324.53	5265.3	
324.74	3593.5	
324.95	3814	
325.16	4461.2	
325.37	4813.4	
325.57	3087.7	
325.78	3123.8	
325.99	5079.6	
326.2	4511.7	
326.4	4366.3	
326.61	2900.6	
326.82	4926	
327.03	5014.1	
327.24	4284.4	
327.44	4024.3	
327.65	5194.3	
327.86	4288.4	
328.07	3591.5	
328.27	2997.5	
328.48	5523.4	
328.69	4627	
328.9	4347.8	
329.1	3267.9	
329.31	4909	
329.52	5589.6	
329.73	3110.2	
329.93	3448.1	
330.14	4958.8	
330.35	5114.5	
330.56	4880.3	
330.76	3764.2	
330.97	4825.7	
331.18	5068	
331.39	3420.1	
331.59	2807.8	
331.8	5420.3	
332.01	5483.8	
332.22	3212.6	
332.42	3612.6	
332.63	5082.4	
332.84	4668	
333.05	3450.8	
333.25	3157.3	
333.46	4762.9	
333.67	4947.2	
333.88	3234.4	
334.08	3522.5	
334.29	6355.5	
334.5	5429.8	
334.7	2978.4	
334.91	4332.1	
335.12	4568.3	
335.33	5235.3	
335.53	3451.5	
335.74	4894.6	
335.95	4790.2	
336.16	4633.2	
336.36	3416	
336.57	3893.9	
336.78	4565.6	
336.98	5380.7	
337.19	4200.4	
337.4	3403.7	
337.61	5905.7	
337.81	4546.5	
338.02	3165.5	
338.23	3966.9	
338.43	5595.7	
338.64	4628.4	
338.85	3135.4	
339.05	4029	
339.26	5628.5	
339.47	4483.7	
339.68	3191.4	
339.88	4459.8	
340.09	5197.7	
340.3	5318.6	
340.5	3624.9	
340.71	2818.7	
340.92	4576.5	
341.13	5477	
341.33	3020.1	
341.54	3612.6	
341.75	5122.7	
341.95	4806.6	
342.16	3502	
342.37	3717.1	
342.57	4565.6	
342.78	4891.2	
342.99	3841.3	
343.19	2845.3	
343.4	5344.5	
343.61	5097.4	
343.81	3302.7	
344.02	3051.5	
344.23	5281.7	
344.43	5574.6	
344.64	3798.3	
344.85	3728.7	
345.06	5141.1	
345.26	5404.6	
345.47	3650.8	
345.68	4136.2	
345.88	4460.5	
346.09	5359.5	
346.3	3627.6	
346.5	2826.9	
346.71	4919.2	
346.92	4719.2	
347.12	2891.7	
347.33	3510.9	
347.54	5374.6	
347.74	5670.8	
347.95	3511.6	
348.16	2727.2	
348.36	4817.5	
348.57	4658.4	
348.78	3607.8	
348.98	3807.2	
349.19	4902.8	
349.39	4531.5	
349.6	2980.5	
349.81	3203	
350.01	5221	
350.22	4681.7	
350.43	3447.4	
350.63	4105.5	
350.84	4969.7	
351.05	4722.6	
351.25	3194.1	
351.46	2889	
351.67	5421	
351.87	4710.3	
352.08	3395.5	
352.29	3805.8	
352.49	5307.7	
352.7	5332.9	
352.9	3055.6	
353.11	3786.7	
353.32	5873.6	
353.52	4866	
353.73	3028.3	
353.94	3878.2	
354.14	5208	
354.35	5062.6	
354.55	3190.1	
354.76	3485.6	
354.97	5212.8	
355.17	5016.8	
355.38	3032.4	
355.59	4045.4	
355.79	4732.2	
356	5060.5	
356.2	3515	
356.41	3072.6	
356.62	4588.1	
356.82	4962.2	
357.03	3706.8	
357.24	3448.8	
357.44	4762.2	
357.65	4856.4	
357.85	4387.4	
358.06	3549.8	
358.27	4527.4	
358.47	4745.1	
358.68	3011.2	
358.88	3732.8	
359.09	5273.5	
359.3	5590.3	
359.5	4337.6	
359.71	3880.9	
359.91	5896.1	
360.12	5389.6	
360.33	3801	
360.53	4175.8	
360.74	4838	
360.94	4930.1	
361.15	4024.9	
361.36	3362.8	
361.56	5563	
361.77	5059.2	
361.97	4375.8	
362.18	3527.3	
362.38	5610.1	
362.59	4773.1	
362.8	3337.5	
363	3166.8	
363.21	4638	
363.41	5221	
363.62	3708.9	
363.83	4620.2	
364.03	5315.8	
364.24	6050.4	
364.44	4710.3	
364.65	4668.7	
364.85	5110.4	
365.06	4795.7	
365.27	3507.5	
365.47	3545.7	
365.68	5935	
365.88	5043.5	
366.09	3861.1	
366.29	3603.7	
366.5	5318.6	
366.71	5682.4	
366.91	4697.4	
367.12	4076.8	
367.32	6143.2	
367.53	5614.8	
367.73	4059.8	
367.94	4846.9	
368.14	5547.9	
368.35	6225.1	
368.56	3955.3	
368.76	3693.2	
368.97	5651.7	
369.17	6944	
369.38	3548.4	
369.58	3758.7	
369.79	4822.3	
369.99	5917.3	
370.2	4637.3	
370.4	3843.4	
370.61	5352.7	
370.82	6468.2	
371.02	3877.5	
371.23	3212.6	
371.43	4788.2	
371.64	5979.4	
371.84	3880.2	
372.05	4840.7	
372.25	7049.8	
372.46	5737	
372.66	3928	
372.87	3876.8	
373.07	5791	
373.28	7146	
373.48	4780.6	
373.69	4545.8	
373.9	5391.6	
374.1	5440.1	
374.31	4825	
374.51	4381.3	
374.72	6175.3	
374.92	5242.1	
375.13	4992.9	
375.33	4280.3	
375.54	5872.2	
375.74	5380.7	
375.95	4437.3	
376.15	5449	
376.36	5976	
376.56	5843.5	
376.77	4467.3	
376.97	4898.7	
377.18	6932.4	
377.38	6052.4	
377.59	5244.2	
377.79	4204.5	
378	5986.2	
378.2	6330.3	
378.41	4319.8	
378.61	4189.5	
378.82	6410.8	
379.02	5683.8	
379.23	4524.6	
379.43	5384.1	
379.64	6561.7	
379.84	6192.4	
380.05	4273.4	
380.25	4254.3	
380.46	6219	
380.66	5896.1	
380.87	5443.5	
381.07	5635.3	
381.28	6799.9	
381.48	6217.6	
381.69	4364.2	
381.89	4399.7	
382.1	5324.7	
382.3	6320.7	
382.51	5283.1	
382.71	6004	
382.91	6201.2	
383.12	6617	
383.32	4571.7	
383.53	4758.1	
383.73	6107.7	
383.94	5838.1	
384.14	4741	
384.35	3970.3	
384.55	5864	
384.76	6124.8	
384.96	4543.1	
385.17	4732.2	
385.37	6193.1	
385.58	5539.1	
385.78	4782.7	
385.98	3860.4	
386.19	5651	
386.39	6012.8	
386.6	4397	
386.8	4557.4	
387.01	6211.5	
387.21	6169.2	
387.42	4917.9	
387.62	5416.9	
387.83	5664.7	
388.03	6131.6	
388.23	4681.7	
388.44	5360.9	
388.64	5472.9	
388.85	5658.5	
389.05	5140.4	
389.26	5599.8	
389.46	7326.3	
389.67	6810.9	
389.87	5248.9	
390.07	5196.4	
390.28	6152.8	
390.48	5721.3	
390.69	4567	
390.89	4836.6	
391.1	5903.6	
391.3	6734.4	
391.5	5828.5	
391.71	6284.5	
391.91	6549.4	
392.12	7397.9	
392.32	5885.9	
392.53	5216.2	
392.73	6078.4	
392.93	6188.3	
393.14	4941.1	
393.34	5467.4	
393.55	6413.6	
393.75	6072.2	
393.95	4839.4	
394.16	4683.7	
394.36	5857.2	
394.57	6338.5	
394.77	4397.7	
394.98	4764.9	
395.18	5983.5	
395.38	6139.8	
395.59	5709.1	
395.79	4871.4	
396	6240.8	
396.2	6715.3	
396.4	5609.4	
396.61	5554.1	
396.81	6887.3	
397.02	6319.3	
397.22	5927.5	
397.42	5995.8	
397.63	7008.1	
397.83	6356.2	
398.04	4998.4	
398.24	5537.7	
398.44	6701	
398.65	6055.8	
398.85	5034.6	
399.05	5070.8	
399.26	6381.5	
399.46	7808.9	
399.67	5427.8	
399.87	5201.2	
400.07	6816.3	
400.28	7116	
400.48	5440.8	
400.69	6368.5	
400.89	7385	
401.09	7838.9	
401.3	5412.1	
401.5	6329.6	
401.7	8043.1	
401.91	8249.9	
402.11	5774.6	
402.32	5872.9	
402.52	7494.2	
402.72	7283.9	
402.93	6044.9	
403.13	4917.2	
403.33	7838.9	
403.54	6538.5	
403.74	5390.3	
403.94	5980.8	
404.15	6512.5	
404.35	7550.9	
404.56	5233.2	
404.76	6733	
404.96	7136.5	
405.17	6994.5	
405.37	6516.6	
405.57	5970.5	
405.78	7460.1	
405.98	6857.3	
406.18	5633.3	
406.39	6332.3	
406.59	7237.5	
406.79	6843.6	
407	5223.7	
407.2	5253	
407.4	7301.7	
407.61	7373.4	
407.81	5474.9	
408.01	7157	
408.22	6601.3	
408.42	8454	
408.62	6806.8	
408.83	6417.7	
409.03	7614.3	
409.23	7582.9	
409.44	6793.1	
409.64	6993.1	
409.84	8753.7	
410.05	8652.7	
410.25	7135.1	
410.45	6947.4	
410.66	8557.1	
410.86	10456	
411.06	7591.1	
411.27	7447.8	
411.47	10564	
411.67	8869.1	
411.88	7684	
412.08	8142.7	
412.28	9475.3	
412.49	9949.7	
412.69	7795.9	
412.89	7887.4	
413.09	9790.7	
413.3	9822.7	
413.5	7991.9	
413.7	7719.5	
413.91	9153.1	
414.11	10047	
414.31	7977.5	
414.52	8414.4	
414.72	9753.8	
414.92	9796.1	
415.12	7997.3	
415.33	8484.1	
415.53	10146	
415.73	10281	
415.94	8786.5	
416.14	8318.2	
416.34	9443.2	
416.55	9187.2	
416.75	9335.3	
416.95	8930.5	
417.15	10367	
417.36	10778	
417.56	9686.9	
417.76	9081.4	
417.97	10592	
418.17	10529	
418.37	8664.3	
418.57	8758.5	
418.78	10523	
418.98	10038	
419.18	9523.7	
419.38	9308.7	
419.59	10124	
419.79	9600.2	
419.99	8564.6	
420.2	8798.8	
420.4	10379	
420.6	10445	
420.8	8623.3	
421.01	8507.9	
421.21	10572	
421.41	10628	
421.61	8955.8	
421.82	8804.2	
422.02	10110	
422.22	10765	
422.42	9400.2	
422.63	8708.6	
422.83	10118	
423.03	11077	
423.23	8947.6	
423.44	8099.7	
423.64	10088	
423.84	9720.3	
424.04	8537.3	
424.25	8141.4	
424.45	10633	
424.65	10561	
424.85	8014.4	
425.06	8441	
425.26	10783	
425.46	9873.3	
425.66	8765.3	
425.87	8515.5	
426.07	10481	
426.27	10295	
426.47	8701.1	
426.67	8022.6	
426.88	10620	
427.08	10232	
427.28	8866.3	
427.48	7944.8	
427.69	9245.2	
427.89	9806.4	
428.09	8850.6	
428.29	8095.6	
428.5	10355	
428.7	10047	
428.9	8095.6	
429.1	8385.1	
429.3	10049	
429.51	10378	
429.71	8266.3	
429.91	9177.6	
430.11	10471	
430.31	10765	
430.52	8766	
430.72	9083.4	
430.92	10957	
431.12	10428	
431.32	8529.1	
431.53	8740.7	
431.73	9694.4	
431.93	10983	
432.13	8376.9	
432.33	8499.8	
432.54	10093	
432.74	10432	
432.94	8560.5	
433.14	9212.4	
433.34	10621	
433.55	10417	
433.75	9250.7	
433.95	10927	
434.15	10677	
434.35	10522	
434.56	8782.4	
434.76	8584.4	
434.96	10716	
435.16	11060	
435.36	8833.6	
435.56	9973.6	
435.77	10742	
435.97	10804	
436.17	10558	
436.37	9898.5	
436.57	10677	
436.78	10835	
436.98	10792	
437.18	10355	
437.38	11475	
437.58	10807	
437.78	10531	
437.99	9249.3	
438.19	11145	
438.39	11727	
438.59	9064.3	
438.79	8459.5	
438.99	11404	
439.2	10387	
439.4	8514.1	
439.6	8768.7	
439.8	11004	
440	11952	
440.2	9966.1	
440.4	10096	
440.61	11852	
440.81	12334	
441.01	9704.6	
441.21	10537	
441.41	12600	
441.61	11887	
441.81	10810	
442.02	11555	
442.22	12768	
442.42	12118	
442.62	9899.9	
442.82	9771.5	
443.02	12486	
443.22	11744	
443.43	10456	
443.63	10042	
443.83	11619	
444.03	11766	
444.23	11327	
444.43	10839	
444.63	12288	
444.83	13063	
445.04	10559	
445.24	11439	
445.44	12213	
445.64	12340	
445.84	10575	
446.04	10779	
446.24	11495	
446.44	12288	
446.65	9696.4	
446.85	10284	
447.05	11309	
447.25	12226	
447.45	10223	
447.65	9824.8	
447.85	11796	
448.05	11305	
448.25	10721	
448.46	10494	
448.66	11860	
448.86	11518	
449.06	9809.8	
449.26	10724	
449.46	12254	
449.66	11310	
449.86	10572	
450.06	10436	
450.26	11624	
450.47	12282	
450.67	10467	
450.87	10959	
451.07	12357	
451.27	12169	
451.47	10066	
451.67	10762	
451.87	11925	
452.07	12645	
452.27	10660	
452.47	10324	
452.67	12177	
452.88	12486	
453.08	9754.5	
453.28	11430	
453.48	13250	
453.68	11740	
453.88	10427	
454.08	10615	
454.28	12525	
454.48	12170	
454.68	11040	
454.88	11468	
455.08	12693	
455.28	12740	
455.48	10279	
455.68	11201	
455.89	13307	
456.09	13116	
456.29	10923	
456.49	11232	
456.69	13448	
456.89	12618	
457.09	11583	
457.29	12125	
457.49	13155	
457.69	13505	
457.89	11918	
458.09	11131	
458.29	13400	
458.49	14044	
458.69	12381	
458.89	11893	
459.09	14429	
459.29	14392	
459.49	11879	
459.69	12554	
459.9	13667	
460.1	13648	
460.3	11560	
460.5	11587	
460.7	13859	
460.9	13528	
461.1	11486	
461.3	12695	
461.5	14741	
461.7	14332	
461.9	12482	
462.1	12532	
462.3	14140	
462.5	14640	
462.7	12484	
462.9	12738	
463.1	15666	
463.3	15661	
463.5	12955	
463.7	14102	
463.9	14939	
464.1	15252	
464.3	13529	
464.5	13549	
464.7	15590	
464.9	15673	
465.1	14814	
465.3	14035	
465.5	15782	
465.7	16090	
465.9	14544	
466.1	13928	
466.3	16162	
466.5	15643	
466.7	15363	
466.9	14174	
467.1	15993	
467.3	16685	
467.5	15508	
467.7	14506	
467.9	17098	
468.1	17991	
468.3	14891	
468.5	15640	
468.7	16345	
468.9	16249	
469.1	15041	
469.3	15708	
469.5	18120	
469.7	16300	
469.9	15096	
470.1	14990	
470.3	16544	
470.5	16505	
470.7	15890	
470.9	14670	
471.1	16339	
471.3	16364	
471.5	14642	
471.69	16043	
471.89	16032	
472.09	15475	
472.29	15495	
472.49	15162	
472.69	15991	
472.89	16456	
473.09	14631	
473.29	14329	
473.49	15801	
473.69	15724	
473.89	15203	
474.09	14483	
474.29	16793	
474.49	16595	
474.69	15216	
474.89	14515	
475.09	15903	
475.29	15852	
475.49	13963	
475.69	14400	
475.88	16936	
476.08	16192	
476.28	13953	
476.48	14033	
476.68	16220	
476.88	15952	
477.08	13891	
477.28	14366	
477.48	15360	
477.68	16136	
477.88	13938	
478.08	14013	
478.28	16671	
478.48	15799	
478.67	14263	
478.87	13470	
479.07	16511	
479.27	15791	
479.47	14271	
479.67	14293	
479.87	16270	
480.07	16587	
480.27	13881	
480.47	15109	
480.67	15916	
480.87	16550	
481.06	14214	
481.26	14881	
481.46	15909	
481.66	15854	
481.86	14415	
482.06	15364	
482.26	15752	
482.46	16331	
482.66	14305	
482.86	14150	
483.05	16135	
483.25	15564	
483.45	16371	
483.65	14611	
483.85	15848	
484.05	16099	
484.25	14883	
484.45	15595	
484.65	16696	
484.84	17023	
485.04	14451	
485.24	14638	
485.44	17185	
485.64	15905	
485.84	14392	
486.04	15497	
486.24	16261	
486.44	16516	
486.63	14365	
486.83	15165	
487.03	16453	
487.23	16826	
487.43	14548	
487.63	16601	
487.83	16873	
488.02	17578	
488.22	15555	
488.42	16158	
488.62	17505	
488.82	16822	
489.02	15270	
489.22	15461	
489.41	17372	
489.61	17243	
489.81	15217	
490.01	15257	
490.21	17602	
490.41	18114	
490.61	15293	
490.8	15348	
491	17167	
491.2	16274	
491.4	15522	
491.6	14788	
491.8	16582	
491.99	16524	
492.19	14485	
492.39	14715	
492.59	17146	
492.79	17494	
492.99	15683	
493.18	15279	
493.38	17691	
493.58	18735	
493.78	16296	
493.98	15888	
494.18	17905	
494.37	17757	
494.57	16997	
494.77	16688	
494.97	18527	
495.17	19112	
495.37	16855	
495.56	17051	
495.76	19372	
495.96	19155	
496.16	18065	
496.36	17268	
496.55	19306	
496.75	19088	
496.95	17536	
497.15	17495	
497.35	19153	
497.54	19501	
497.74	17281	
497.94	18734	
498.14	20062	
498.34	19841	
498.53	17333	
498.73	17978	
498.93	19157	
499.13	19653	
499.33	18080	
499.52	18200	
499.72	20075	
499.92	20078	
500.12	17910	
500.32	18097	
500.51	20136	
500.71	20198	
500.91	18979	
501.11	18363	
501.31	20173	
501.5	20409	
501.7	19037	
501.9	18336	
502.1	19913	
502.29	20177	
502.49	18785	
502.69	18751	
502.89	19940	
503.09	20015	
503.28	17397	
503.48	17521	
503.68	18996	
503.88	19069	
504.07	18233	
504.27	17740	
504.47	19538	
504.67	19471	
504.86	18196	
505.06	17793	
505.26	18945	
505.46	20200	
505.65	17530	
505.85	17591	
506.05	18572	
506.25	19098	
506.44	16723	
506.64	17387	
506.84	18434	
507.04	18951	
507.23	16849	
507.43	17268	
507.63	19780	
507.83	18517	
508.02	17223	
508.22	16937	
508.42	20314	
508.62	18512	
508.81	17102	
509.01	17689	
509.21	18018	
509.4	18451	
509.6	17289	
509.8	16818	
510	18348	
510.19	19626	
510.39	16755	
510.59	16888	
510.79	18536	
510.98	19694	
511.18	17094	
511.38	17189	
511.57	19058	
511.77	18895	
511.97	17436	
512.17	16623	
512.36	18990	
512.56	18692	
512.76	16511	
512.95	16358	
513.15	18931	
513.35	17850	
513.55	17307	
513.74	16633	
513.94	18903	
514.14	18428	
514.33	17469	
514.53	17327	
514.73	18434	
514.92	18547	
515.12	16937	
515.32	16805	
515.51	18769	
515.71	19075	
515.91	18233	
516.11	16913	
516.3	20385	
516.5	18429	
516.7	17480	
516.89	17813	
517.09	18615	
517.29	18496	
517.48	17595	
517.68	17146	
517.88	18356	
518.07	18858	
518.27	17600	
518.47	16749	
518.66	19216	
518.86	18224	
519.06	16556	
519.25	17049	
519.45	18456	
519.65	19896	
519.84	17601	
520.04	18246	
520.24	20143	
520.43	18994	
520.63	17236	
520.83	16920	
521.02	18105	
521.22	18455	
521.42	16827	
521.61	17401	
521.81	18171	
522.01	18289	
522.2	17254	
522.4	16843	
522.6	19078	
522.79	18056	
522.99	17126	
523.18	16888	
523.38	19204	
523.58	19252	
523.77	18903	
523.97	17249	
524.17	21248	
524.36	20554	
524.56	18703	
524.76	18541	
524.95	19951	
525.15	19585	
525.34	18490	
525.54	18658	
525.74	20692	
525.93	19856	
526.13	19835	
526.33	18970	
526.52	21192	
526.72	20775	
526.91	20031	
527.11	19420	
527.31	21319	
527.5	21587	
527.7	19682	
527.89	18900	
528.09	20618	
528.29	21450	
528.48	20218	
528.68	19800	
528.87	21575	
529.07	21216	
529.27	19612	
529.46	19314	
529.66	21102	
529.85	21545	
530.05	19149	
530.25	19770	
530.44	22416	
530.64	20913	
530.83	19331	
531.03	19506	
531.23	21503	
531.42	21412	
531.62	20549	
531.81	19775	
532.01	22260	
532.21	22575	
532.4	20275	
532.6	20657	
532.79	23038	
532.99	22732	
533.18	20840	
533.38	21610	
533.58	22584	
533.77	22971	
533.97	21157	
534.16	21799	
534.36	23536	
534.55	22850	
534.75	21942	
534.95	21440	
535.14	23743	
535.34	22849	
535.53	21084	
535.73	22510	
535.92	23915	
536.12	22436	
536.31	20781	
536.51	21775	
536.71	22894	
536.9	22511	
537.1	20904	
537.29	21132	
537.49	23193	
537.68	22560	
537.88	21648	
538.07	20798	
538.27	22747	
538.46	23780	
538.66	20865	
538.86	21489	
539.05	22970	
539.25	23394	
539.44	21889	
539.64	21080	
539.83	22638	
540.03	23581	
540.22	21052	
540.42	20830	
540.61	22505	
540.81	22811	
541	21069	
541.2	21818	
541.39	22288	
541.59	22621	
541.78	21721	
541.98	20669	
542.18	21967	
542.37	21831	
542.57	20781	
542.76	21308	
542.96	21708	
543.15	22262	
543.35	20460	
543.54	20025	
543.74	22034	
543.93	21850	
544.13	20106	
544.32	21026	
544.52	21848	
544.71	21277	
544.91	19454	
545.1	20444	
545.3	21412	
545.49	21924	
545.69	19269	
545.88	19873	
546.08	22588	
546.27	21967	
546.47	20265	
546.66	19486	
546.86	21939	
547.05	22298	
547.24	19760	
547.44	19766	
547.63	20845	
547.83	21969	
548.02	19918	
548.22	19975	
548.41	20609	
548.61	21612	
548.8	19274	
549	19364	
549.19	21056	
549.39	21383	
549.58	18994	
549.78	19387	
549.97	21171	
550.17	20662	
550.36	19746	
550.55	20780	
550.75	20562	
550.94	21353	
551.14	18813	
551.33	18904	
551.53	20157	
551.72	20840	
551.92	19138	
552.11	18792	
552.31	20894	
552.5	20809	
552.69	20209	
552.89	18453	
553.08	20682	
553.28	20373	
553.47	18883	
553.67	19559	
553.86	21136	
554.06	19508	
554.25	18008	
554.44	18490	
554.64	21552	
554.83	21042	
555.03	18392	
555.22	18628	
555.42	20608	
555.61	20357	
555.8	18421	
556	18523	
556.19	19478	
556.39	20380	
556.58	18468	
556.78	18430	
556.97	20233	
557.16	19984	
557.36	19323	
557.55	18143	
557.75	19148	
557.94	20988	
558.13	18082	
558.33	17949	
558.52	20648	
558.72	19452	
558.91	17937	
559.1	17901	
559.3	19286	
559.49	18832	
559.69	17510	
559.88	18245	
560.07	19879	
560.27	20254	
560.46	18417	
560.66	18350	
560.85	19566	
561.04	18746	
561.24	17578	
561.43	17710	
561.63	18988	
561.82	19188	
562.01	18637	
562.21	17795	
562.4	19595	
562.59	20429	
562.79	17802	
562.98	17774	
563.18	19619	
563.37	20966	
563.56	18450	
563.76	17768	
563.95	19186	
564.14	19280	
564.34	18077	
564.53	17776	
564.73	19708	
564.92	20090	
565.11	18273	
565.31	17766	
565.5	20250	
565.69	19364	
565.89	17950	
566.08	18239	
566.27	20109	
566.47	20598	
566.66	18825	
566.85	17888	
567.05	19989	
567.24	19404	
567.44	17916	
567.63	19065	
567.82	20103	
568.02	19727	
568.21	17909	
568.4	18206	
568.6	19822	
568.79	19790	
568.98	18003	
569.18	18160	
569.37	20032	
569.56	21691	
569.76	18548	
569.95	19347	
570.14	20203	
570.34	20299	
570.53	18166	
570.72	17991	
570.91	20678	
571.11	19945	
571.3	18570	
571.49	19145	
571.69	20140	
571.88	19532	
572.07	19075	
572.27	18854	
572.46	19633	
572.65	20387	
572.85	18267	
573.04	18581	
573.23	20739	
573.43	20138	
573.62	18277	
573.81	18776	
574	20399	
574.2	20192	
574.39	18837	
574.58	19007	
574.78	21414	
574.97	20798	
575.16	19352	
575.36	19613	
575.55	21276	
575.74	21207	
575.93	18772	
576.13	19633	
576.32	20626	
576.51	21235	
576.71	19049	
576.9	20262	
577.09	21375	
577.28	20863	
577.48	19483	
577.67	18630	
577.86	20782	
578.05	20947	
578.25	19112	
578.44	19243	
578.63	20756	
578.83	21768	
579.02	18845	
579.21	20147	
579.4	20858	
579.6	20768	
579.79	19316	
579.98	21106	
580.17	21148	
580.37	21365	
580.56	18896	
580.75	19513	
580.94	21653	
581.14	21565	
581.33	20049	
581.52	19117	
581.71	21328	
581.91	21857	
582.1	19001	
582.29	19300	
582.48	21072	
582.68	20783	
582.87	19778	
583.06	19514	
583.25	21181	
583.45	20729	
583.64	20180	
583.83	20705	
584.02	20801	
584.21	21307	
584.41	19956	
584.6	19484	
584.79	21005	
584.98	21693	
585.18	18789	
585.37	18944	
585.56	20530	
585.75	21338	
585.94	18882	
586.14	19547	
586.33	21398	
586.52	20592	
586.71	19161	
586.91	18936	
587.1	19824	
587.29	20620	
587.48	18559	
587.67	18697	
587.87	20446	
588.06	20367	
588.25	19484	
588.44	18923	
588.63	20077	
588.83	20668	
589.02	18305	
589.21	18043	
589.4	19492	
589.59	19388	
589.78	16889	
589.98	16877	
590.17	18348	
590.36	18643	
590.55	15909	
590.74	16260	
590.94	19129	
591.13	17978	
591.32	16262	
591.51	15819	
591.7	18474	
591.89	18273	
592.09	16173	
592.28	16630	
592.47	17524	
592.66	19323	
592.85	16208	
593.05	16425	
593.24	18119	
593.43	18887	
593.62	16565	
593.81	16911	
594	18249	
594.19	18391	
594.39	16298	
594.58	16307	
594.77	18255	
594.96	18770	
595.15	16165	
595.34	16725	
595.54	18135	
595.73	17511	
595.92	15395	
596.11	16391	
596.3	18454	
596.49	17365	
596.68	16027	
596.88	16425	
597.07	18191	
597.26	17135	
597.45	15767	
597.64	16664	
597.83	17560	
598.02	17985	
598.22	15728	
598.41	16243	
598.6	17726	
598.79	17165	
598.98	15757	
599.17	16349	
599.36	17629	
599.55	18441	
599.74	17217	
599.94	17103	
600.13	18061	
600.32	16985	
600.51	15367	
600.7	15478	
600.89	18424	
601.08	18527	
601.27	15205	
601.47	16176	
601.66	17838	
601.85	18221	
602.04	15806	
602.23	15629	
602.42	16952	
602.61	17458	
602.8	15528	
602.99	15353	
603.18	17283	
603.37	17455	
603.57	15866	
603.76	16335	
603.95	17875	
604.14	17611	
604.33	15580	
604.52	15820	
604.71	17504	
604.9	17037	
605.09	16205	
605.28	15986	
605.47	17977	
605.66	17471	
605.86	15865	
606.05	15480	
606.24	17645	
606.43	16476	
606.62	15647	
606.81	16093	
607	17462	
607.19	16985	
607.38	14928	
607.57	15223	
607.76	16706	
607.95	16236	
608.14	15469	
608.33	16044	
608.52	16724	
608.72	17421	
608.91	14734	
609.1	14812	
609.29	16582	
609.48	16154	
609.67	15280	
609.86	14643	
610.05	16393	
610.24	16569	
610.43	14515	
610.62	14171	
610.81	17233	
611	17281	
611.19	14498	
611.38	15098	
611.57	16653	
611.76	17664	
611.95	14356	
612.14	14147	
612.33	16417	
612.52	16117	
612.71	14784	
612.9	14091	
613.09	15848	
613.28	17711	
613.47	14583	
613.66	15335	
613.85	16476	
614.04	16088	
614.24	14478	
614.43	13860	
614.62	16554	
614.81	16478	
615	14929	
615.19	14998	
615.38	16057	
615.57	16295	
615.76	14913	
615.95	15647	
616.14	16768	
616.33	16311	
616.52	15236	
616.71	15359	
616.9	16580	
617.09	16505	
617.28	14729	
617.47	15608	
617.66	15978	
617.85	15991	
618.04	15582	
618.22	15118	
618.41	16408	
618.6	17271	
618.79	15138	
618.98	15235	
619.17	17598	
619.36	16062	
619.55	15284	
619.74	15313	
619.93	17032	
620.12	16685	
620.31	15732	
620.5	16093	
620.69	17638	
620.88	18023	
621.07	16734	
621.26	15981	
621.45	17411	
621.64	17494	
621.83	15961	
622.02	15313	
622.21	17476	
622.4	17410	
622.59	16485	
622.78	16274	
622.97	16926	
623.16	17961	
623.35	16135	
623.54	15292	
623.72	17296	
623.91	17367	
624.1	16293	
624.29	15180	
624.48	18279	
624.67	17716	
624.86	16220	
625.05	15418	
625.24	18394	
625.43	17117	
625.62	17750	
625.81	15651	
626	17748	
626.19	17303	
626.38	16476	
626.56	15834	
626.75	17251	
626.94	17879	
627.13	16281	
627.32	15193	
627.51	17679	
627.7	18563	
627.89	15354	
628.08	16277	
628.27	16900	
628.46	17271	
628.65	15507	
628.83	15198	
629.02	17716	
629.21	17000	
629.4	15952	
629.59	16066	
629.78	17036	
629.97	17615	
630.16	16110	
630.35	15570	
630.54	18150	
630.72	17940	
630.91	15644	
631.1	15965	
631.29	17475	
631.48	17458	
631.67	16066	
631.86	15530	
632.05	17267	
632.24	17332	
632.42	15353	
632.61	15900	
632.8	17128	
632.99	16725	
633.18	16070	
633.37	16178	
633.56	17322	
633.75	17174	
633.93	15782	
634.12	15573	
634.31	18030	
634.5	17707	
634.69	15581	
634.88	15821	
635.07	17266	
635.25	17518	
635.44	16276	
635.63	16408	
635.82	16898	
636.01	16554	
636.2	16167	
636.39	15830	
636.57	17917	
636.76	17421	
636.95	15246	
637.14	16436	
637.33	17325	
637.52	17922	
637.7	15108	
637.89	15840	
638.08	16916	
638.27	18021	
638.46	15870	
638.65	16086	
638.83	17789	
639.02	16591	
639.21	15607	
639.4	16121	
639.59	16810	
639.78	16476	
639.96	14780	
640.15	14851	
640.34	16695	
640.53	16642	
640.72	14523	
640.91	14668	
641.09	15994	
641.28	17021	
641.47	14663	
641.66	15386	
641.85	16640	
642.03	16563	
642.22	15077	
642.41	14600	
642.6	16025	
642.79	15524	
642.97	14223	
643.16	14956	
643.35	15878	
643.54	15598	
643.73	14260	
643.91	14861	
644.1	15209	
644.29	15928	
644.48	13967	
644.67	13949	
644.85	15191	
645.04	15652	
645.23	13435	
645.42	13830	
645.6	14960	
645.79	15922	
645.98	13525	
646.17	12577	
646.36	14491	
646.54	14755	
646.73	13616	
646.92	12861	
647.11	14259	
647.29	15155	
647.48	12914	
647.67	12444	
647.86	15343	
648.05	15321	
648.23	12850	
648.42	13905	
648.61	14671	
648.8	14562	
648.98	12480	
649.17	12927	
649.36	14022	
649.55	13790	
649.73	12592	
649.92	13322	
650.11	14152	
650.3	14224	
650.48	12626	
650.67	12468	
650.86	14507	
651.05	13422	
651.23	12495	
651.42	12390	
651.61	13907	
651.79	13867	
651.98	12633	
652.17	12266	
652.36	14188	
652.54	13347	
652.73	12198	
652.92	12076	
653.11	14064	
653.29	14044	
653.48	11528	
653.67	12273	
653.85	13768	
654.04	14558	
654.23	12247	
654.42	11774	
654.6	13018	
654.79	13454	
654.98	10975	
655.16	11384	
655.35	12137	
655.54	12217	
655.73	10791	
655.91	10821	
656.1	13114	
656.29	12282	
656.47	10812	
656.66	12159	
656.85	12764	
657.03	12816	
657.22	11316	
657.41	11442	
657.59	13007	
657.78	12731	
657.97	11138	
658.16	11791	
658.34	13433	
658.53	13859	
658.72	12361	
658.9	12788	
659.09	13061	
659.28	13089	
659.46	11581	
659.65	11467	
659.84	12805	
660.02	13300	
660.21	11368	
660.4	11273	
660.58	13652	
660.77	13013	
660.96	11883	
661.14	10996	
661.33	13998	
661.52	13894	
661.7	11045	
661.89	13772	
662.08	12679	
662.26	12323	
662.45	11078	
662.64	11184	
662.82	13126	
663.01	12546	
663.2	11161	
663.38	11779	
663.57	13070	
663.75	12865	
663.94	11348	
664.13	12300	
664.31	12537	
664.5	13097	
664.69	11648	
664.87	11934	
665.06	12181	
665.25	12889	
665.43	12230	
665.62	12200	
665.8	12967	
665.99	12523	
666.18	11307	
666.36	11325	
666.55	12940	
666.74	12887	
666.92	10938	
667.11	12205	
667.29	12396	
667.48	12966	
667.67	11888	
667.85	11118	
668.04	12436	
668.22	12344	
668.41	11209	
668.6	11363	
668.78	12196	
668.97	12339	
669.15	11415	
669.34	10563	
669.53	12238	
669.71	12454	
669.9	10697	
670.08	11215	
670.27	12142	
670.46	12562	
670.64	11377	
670.83	11578	
671.01	11942	
671.2	12426	
671.38	10794	
671.57	10649	
671.76	13026	
671.94	13528	
672.13	10570	
672.31	11357	
672.5	12893	
672.69	12163	
672.87	10738	
673.06	10957	
673.24	12509	
673.43	12119	
673.61	11271	
673.8	10920	
673.98	12653	
674.17	12794	
674.36	11396	
674.54	11336	
674.73	12323	
674.91	12790	
675.1	11070	
675.28	10598	
675.47	12239	
675.65	12719	
675.84	10867	
676.03	11237	
676.21	12076	
676.4	11701	
676.58	11348	
676.77	11358	
676.95	13382	
677.14	12041	
677.32	10628	
677.51	10546	
677.69	12681	
677.88	11761	
678.06	10495	
678.25	10635	
678.44	12280	
678.62	11986	
678.81	10307	
678.99	11054	
679.18	12934	
679.36	12478	
679.55	10836	
679.73	11366	
679.92	12517	
680.1	12145	
680.29	11819	
680.47	10897	
680.66	11947	
680.84	12696	
681.03	10305	
681.21	11131	
681.4	11993	
681.58	11843	
681.77	10656	
681.95	10556	
682.14	12667	
682.32	12916	
682.51	11260	
682.69	10262	
682.88	11786	
683.06	12197	
683.25	11081	
683.43	11318	
683.62	12153	
683.8	12437	
683.99	11417	
684.17	10788	
684.36	13019	
684.54	11772	
684.73	9920.4	
684.91	9904	
685.1	11611	
685.28	10976	
685.46	10013	
685.65	9945.6	
685.83	11506	
686.02	11138	
686.2	9638.4	
686.39	9810.5	
686.57	10917	
686.76	12413	
686.94	9850	
687.13	9975.7	
687.31	11682	
687.5	11467	
687.68	9567.4	
687.86	10698	
688.05	12846	
688.23	11062	
688.42	10770	
688.6	10156	
688.79	11546	
688.97	11542	
689.16	10611	
689.34	9617.3	
689.52	12138	
689.71	12428	
689.89	10801	
690.08	10231	
690.26	11916	
690.45	11798	
690.63	10985	
690.81	10434	
691	11703	
691.18	11650	
691.37	10591	
691.55	12176	
691.74	11570	
691.92	13090	
692.1	10376	
692.29	9929.9	
692.47	11569	
692.66	11151	
692.84	10048	
693.02	10631	
693.21	11300	
693.39	11639	
693.58	10862	
693.76	10422	
693.94	12881	
694.13	12740	
694.31	10471	
694.5	11488	
694.68	11860	
694.86	12174	
695.05	11016	
695.23	11288	
695.42	12676	
695.6	14406	
695.78	11490	
695.97	10776	
696.15	12742	
696.34	12135	
696.52	10706	
696.7	11275	
696.89	12277	
697.07	11926	
697.25	11049	
697.44	12315	
697.62	12342	
697.81	12478	
697.99	10761	
698.17	11190	
698.36	11774	
698.54	12232	
698.72	11142	
698.91	10371	
699.09	11951	
699.28	11786	
699.46	10816	
699.64	10699	
699.83	11782	
700.01	12540	
700.19	11312	
700.38	10175	
700.56	12777	
700.74	11920	
700.93	10536	
701.11	11268	
701.29	12500	
701.48	13278	
701.66	10801	
701.84	10924	
702.03	12325	
702.21	13024	
702.39	10630	
702.58	11189	
702.76	12674	
702.94	12786	
703.13	10540	
703.31	12656	
703.49	12097	
703.68	12846	
703.86	10729	
704.04	11569	
704.23	12553	
704.41	12846	
704.59	10923	
704.78	11847	
704.96	13502	
705.14	12849	
705.33	10857	
705.51	11355	
705.69	12381	
705.87	13121	
706.06	11805	
706.24	10774	
706.42	12713	
706.61	12875	
706.79	11654	
706.97	10757	
707.16	12320	
707.34	12754	
707.52	11593	
707.7	10991	
707.89	12477	
708.07	12062	
708.25	11594	
708.44	11890	
708.62	12286	
708.8	13173	
708.98	11781	
709.17	11011	
709.35	12597	
709.53	12601	
709.72	10769	
709.9	10975	
710.08	12750	
710.26	12758	
710.45	11946	
710.63	10982	
710.81	12423	
710.99	12368	
711.18	11319	
711.36	10955	
711.54	12147	
711.72	12751	
711.91	10902	
712.09	10352	
712.27	12138	
712.45	12535	
712.64	10905	
712.82	10137	
713	11581	
713.18	11592	
713.37	10081	
713.55	10983	
713.73	12162	
713.91	10726	
714.1	9734.7	
714.28	9169.4	
714.46	11173	
714.64	10392	
714.83	8314.8	
715.01	8809.7	
715.19	9985.2	
715.37	9370.8	
715.55	8276.5	
715.74	8411	
715.92	10426	
716.1	8717.5	
716.28	9315.5	
716.47	8540	
716.65	9368.1	
716.83	9331.2	
717.01	8094.3	
717.19	8168.7	
717.38	11056	
717.56	9041.8	
717.74	8432.9	
717.92	7840.3	
718.1	10169	
718.29	9617.9	
718.47	7716.7	
718.65	8486.1	
718.83	10626	
719.01	10598	
719.2	8126.3	
719.38	9098.4	
719.56	10465	
719.74	11850	
719.92	8795.3	
720.11	9548.3	
720.29	10433	
720.47	9635.7	
720.65	8101.8	
720.83	8647.2	
721.02	9505.3	
721.2	9241.1	
721.38	8479.3	
721.56	7812.3	
721.74	8851.3	
721.92	8858.8	
722.11	8717.5	
722.29	8594.6	
722.47	9802.3	
722.65	9132.6	
722.83	7788.4	
723.01	8413.7	
723.2	9258.2	
723.38	9448.6	
723.56	7317.4	
723.74	8181.6	
723.92	8893	
724.1	9736	
724.29	7577.5	
724.47	8628.1	
724.65	8939.4	
724.83	8767.4	
725.01	7442.3	
725.19	8190.5	
725.37	8759.8	
725.56	8860.9	
725.74	7464.8	
725.92	7540.6	
726.1	8824	
726.28	9030.2	
726.46	7934.5	
726.64	7684	
726.83	8987.9	
727.01	9121	
727.19	7380.2	
727.37	8052.6	
727.55	9088.2	
727.73	9482.1	
727.91	7322.9	
728.09	7179.5	
728.28	9564	
728.46	9894.4	
728.64	8159.1	
728.82	8161.8	
729	10379	
729.18	9891	
729.36	7534.5	
729.54	9426.8	
729.72	10828	
729.91	9503.3	
730.09	9363.3	
730.27	8365.3	
730.45	9433.6	
730.63	10041	
730.81	8805.6	
730.99	8118.8	
731.17	10592	
731.35	9359.2	
731.53	8614.4	
731.71	8246.5	
731.9	10230	
732.08	10258	
732.26	8326.4	
732.44	8017.1	
732.62	10269	
732.8	9958.6	
732.98	8572.8	
733.16	7907.9	
733.34	9794.1	
733.52	8707.3	
733.7	8041	
733.88	8404.2	
734.07	9563.3	
734.25	9491	
734.43	7808.9	
734.61	8984.4	
734.79	10758	
734.97	9291.6	
735.15	7849.9	
735.33	8043.1	
735.51	9577.7	
735.69	9307.3	
735.87	8926.4	
736.05	8205.5	
736.23	9417.9	
736.41	9166.7	
736.59	8081.3	
736.77	8143.4	
736.95	9765.4	
737.13	9257.5	
737.32	7673.7	
737.5	7944.1	
737.68	10195	
737.86	9136	
738.04	7561.8	
738.22	8925.7	
738.4	8815.1	
738.58	9121.7	
738.76	7968	
738.94	7100.3	
739.12	8981	
739.3	8918.9	
739.48	8422.6	
739.66	8101.8	
739.84	9148.3	
740.02	9090.9	
740.2	7167.9	
740.38	7438.2	
740.56	9450.7	
740.74	8487.5	
740.92	7859.4	
741.1	7752.2	
741.28	8823.3	
741.46	8645.8	
741.64	7377.5	
741.82	7808.2	
742	8890.2	
742.18	8774.2	
742.36	7533.8	
742.54	7163.1	
742.72	9286.9	
742.9	8118.8	
743.08	7826.7	
743.26	6815	
743.44	9237	
743.62	9200.2	
743.8	7824.6	
743.98	7050.5	
744.16	8858.1	
744.34	8561.9	
744.52	7646.4	
744.7	7598	
744.88	8908	
745.06	8468.4	
745.24	7598.6	
745.42	7608.9	
745.6	8916.2	
745.78	8744.1	
745.96	6623.8	
746.14	6821.8	
746.32	9363.3	
746.5	8776.2	
746.68	7154.9	
746.86	6805.4	
747.03	9026.1	
747.21	7635.5	
747.39	7149.5	
747.57	6638.8	
747.75	8332.5	
747.93	8583.7	
748.11	6648.4	
748.29	6569.2	
748.47	9619.3	
748.65	8093.6	
748.83	7268.9	
749.01	7000.6	
749.19	8506.6	
749.37	7711.3	
749.55	6822.5	
749.73	6953.5	
749.91	8234.2	
750.09	7946.8	
750.26	6818.4	
750.44	6397.2	
750.62	8135.9	
750.8	8019.2	
750.98	6232	
751.16	6494.8	
751.34	8177.5	
751.52	7604.1	
751.7	7118.1	
751.88	6219.7	
752.06	8508.6	
752.24	8250.6	
752.42	6101.6	
752.59	6403.3	
752.77	7990.5	
752.95	8996.7	
753.13	7023.9	
753.31	6449.7	
753.49	7604.8	
753.67	7909.9	
753.85	6660.7	
754.03	6294.8	
754.21	8116.8	
754.38	8338	
754.56	6254.5	
754.74	5395.7	
754.92	7298.3	
755.1	7722.9	
755.28	5279	
755.46	5109	
755.64	8058.1	
755.82	7880.6	
755.99	4868	
756.17	4828.4	
756.35	5450.3	
756.53	6677.7	
756.71	3731.4	
756.89	4403.1	
757.07	6186.9	
757.25	5539.1	
757.42	4983.4	
757.6	5826.5	
757.78	6567.2	
757.96	5829.9	
758.14	4962.2	
758.32	4600.4	
758.5	5489.2	
758.67	6161.7	
758.85	4846.2	
759.03	4825.7	
759.21	6240.8	
759.39	5758.9	
759.57	4446.1	
759.75	5404.6	
759.92	6694.1	
760.1	6328.9	
760.28	5747.3	
760.46	5988.9	
760.64	6227.2	
760.82	5995.1	
760.99	5553.4	
761.17	5063.9	
761.35	6924.9	
761.53	6097.5	
761.71	5233.2	
761.89	5832.6	
762.06	6877.8	
762.24	6562.4	
762.42	5396.4	
762.6	5228.5	
762.78	6630	
762.96	7114.6	
763.13	5755.5	
763.31	5588.9	
763.49	7241.6	
763.67	6620.4	
763.85	6184.2	
764.02	6664.1	
764.2	7421.2	
764.38	6745.3	
764.56	5358.9	
764.74	6065.4	
764.91	7529	
765.09	6535.1	
765.27	5074.2	
765.45	4872.8	
765.63	7598.6	
765.8	7387	
765.98	4739.7	
766.16	4892.6	
766.34	6196.5	
766.52	5996.5	
766.69	5720	
766.87	4732.9	
767.05	6486.6	
767.23	7117.4	
767.41	4924	
767.58	5142.4	
767.76	6886	
767.94	6996.5	
768.12	4973.8	
768.29	5601.2	
768.47	6415.6	
768.65	7021.1	
768.83	4603.2	
769	5496.7	
769.18	5991.7	
769.36	6547.4	
769.54	5498.8	
769.72	4612	
769.89	6812.9	
770.07	6868.2	
770.25	4811.4	
770.43	5859.2	
770.6	7311.9	
770.78	7670.3	
770.96	4913.8	
771.14	5446.2	
771.31	6582.9	
771.49	6130.3	
771.67	4193.6	
771.85	4398.4	
772.02	5475.6	
772.2	5997.1	
772.38	4999.1	
772.55	4571.1	
772.73	6285.2	
772.91	6086.6	
773.09	4783.4	
773.26	4928.8	
773.44	6141.2	
773.62	5853.1	
773.8	4396.3	
773.97	4182.6	
774.15	6210.1	
774.33	5862	
774.5	4222.2	
774.68	4543.1	
774.86	6251.1	
775.04	5791.7	
775.21	4323.3	
775.39	4214	
775.57	6040.1	
775.74	6309.1	
775.92	4108.2	
776.1	3975.8	
776.27	5963.7	
776.45	6943.3	
776.63	4196.3	
776.81	3786	
776.98	5626.5	
777.16	6524.8	
777.34	4266.6	
777.51	4548.5	
777.69	5629.9	
777.87	5412.1	
778.04	4300.1	
778.22	4704.2	
778.4	5407.3	
778.57	5982.8	
778.75	3669.3	
778.93	3857.7	
779.1	5220.3	
779.28	5107	
779.46	3603.7	
779.64	4072.7	
779.81	5974.6	
779.99	6666.8	
780.17	4670.7	
780.34	4740.4	
780.52	5597.8	
780.69	5632.6	
780.87	4271.4	
781.05	3855.6	
781.22	5595.7	
781.4	5635.3	
781.58	3973.7	
781.75	3287.7	
781.93	5520.6	
782.11	4990.2	
782.28	4706.9	
782.46	3916.4	
782.64	4887.8	
782.81	5577.3	
782.99	4011.3	
783.17	3955.3	
783.34	5508.4	
783.52	4881.7	
783.69	4100.7	
783.87	4777.2	
784.05	4979.3	
784.22	4971.1	
784.4	4702.8	
784.58	4147.1	
784.75	5814.2	
784.93	5037.3	
785.1	3898	
785.28	4475.5	
785.46	5517.2	
785.63	4929.5	
785.81	3872.7	
785.99	3729.4	
786.16	5054.4	
786.34	5358.2	
786.51	3662.5	
786.69	4074.1	
786.87	4689.8	
787.04	5139.7	
787.22	3581.9	
787.39	4301.4	
787.57	4897.4	
787.75	5767.8	
787.92	4538.3	
788.1	4465.9	
788.27	4924	
788.45	4651.6	
788.63	4220.9	
788.8	3114.3	
788.98	5388.2	
789.15	4615.4	
789.33	3377.1	
789.5	3794.9	
789.68	5681.1	
789.86	5756.8	
790.03	4099.4	
790.21	3688.4	
790.38	5646.9	
790.56	4986.8	
790.73	3558	
790.91	3532.7	
791.09	4873.5	
791.26	5459.2	
791.44	3781.2	
791.61	3322.5	
791.79	4866.7	
791.96	4884.4	
792.14	3368.9	
792.32	3041.9	
792.49	4820.2	
792.67	4932.2	
792.84	3462.4	
793.02	3239.9	
793.19	5215.5	
793.37	5789.6	
793.54	3044.6	
793.72	3347.1	
793.89	5806	
794.07	4833.2	
794.25	3658.4	
794.42	3098.6	
794.6	5644.2	
794.77	5326.8	
794.95	4003.1	
795.12	3558.7	
795.3	4825	
795.47	5284.4	
795.65	3898	
795.82	3714.3	
796	4637.3	
796.17	6202.6	
796.35	3649.5	
796.52	4208.6	
796.7	5223.7	
796.87	5359.5	
797.05	3613.3	
797.22	4364.2	
797.4	5283.1	
797.57	6117.3	
797.75	3755.3	
797.92	3434.4	
798.1	5507.7	
798.27	4655.7	
798.45	3022.1	
798.62	3294.5	
798.8	5031.9	
798.97	5406	
799.15	3917.1	
799.32	3718.4	
799.5	4407.9	
799.67	5027.8	
799.85	3982.6	
800.02	2998.9	
800.2	4736.3	
800.37	4977.9	
800.55	4114.4	
800.72	3548.4	
800.9	5413.5	
801.07	5782.8	
801.25	4625	
801.42	3829	
801.6	5428.5	
801.77	5182.7	
801.95	3601.7	
802.12	3442	
802.29	5158.8	
802.47	5128.1	
802.64	3815.4	
802.82	2919	
802.99	4706.9	
803.17	5508.4	
803.34	3741	
803.52	3368.9	
803.69	6010.1	
803.87	4463.9	
804.04	3658.4	
804.21	3749.1	
804.39	5644.2	
804.56	4814.1	
804.74	3137.5	
804.91	3803.8	
805.09	4717.2	
805.26	4832.5	
805.44	3246.7	
805.61	3509.5	
805.78	5295.4	
805.96	5261.9	
806.13	3785.3	
806.31	4015.4	
806.48	4351.9	
806.66	4803.2	
806.83	3697.9	
807	3706.8	
807.18	4709.6	
807.35	4972.5	
807.53	3580.5	
807.7	3011.9	
807.87	5632.6	
808.05	4760.2	
808.22	3997.6	
808.4	2964.8	
808.57	4656.4	
808.74	4418.8	
808.92	3338.2	
809.09	4197	
809.27	4681.7	
809.44	5120.6	
809.61	3024.8	
809.79	3265.8	
809.96	5721.3	
810.14	5226.4	
810.31	2956.6	
810.48	3552.5	
810.66	4706.9	
810.83	5364.3	
811.01	3370.3	
811.18	3670	
811.35	5263.3	
811.53	4177.9	
811.7	3992.9	
811.87	3715	
812.05	4733.5	
812.22	4646.2	
812.39	3249.4	
812.57	3166.8	
812.74	4739	
812.92	6039.5	
813.09	3532.7	
813.26	3779.9	
813.44	5848.3	
813.61	4560.8	
813.78	2979.8	
813.96	3867.9	
814.13	4726.7	
814.3	4482.3	
814.48	4206.5	
814.65	3503.4	
814.82	5650.3	
815	4491.9	
815.17	3627	
815.34	4297.3	
815.52	4624.3	
815.69	4631.8	
815.87	3540.3	
816.04	3543.7	
816.21	4724	
816.38	4220.2	
816.56	3521.8	
816.73	3269.2	
816.9	5800.5	
817.08	5298.1	
817.25	3338.2	
817.42	4079.6	
817.6	4333.5	
817.77	4693.9	
817.94	3631.7	
818.12	3181.9	
818.29	4426.3	
818.46	6656.6	
818.64	3371.6	
818.81	3110.2	
818.98	4433.9	
819.16	6163	
819.33	3859.7	
819.5	3581.9	
819.67	4973.8	
819.85	5518.6	
820.02	3498.6	
820.19	3720.5	
820.37	4857.8	
820.54	4612.7	
820.71	3581.9	
820.88	4467.3	
821.06	4877.6	
821.23	4504.2	
821.4	3659.7	
821.58	3603.7	
821.75	5254.4	
821.92	4805.9	
822.09	3000.3	
822.27	3044	
822.44	4702.8	
822.61	4553.3	
822.79	3037.1	
822.96	5482.4	
823.13	5046.9	
823.3	4388.8	
823.48	3465.8	
823.65	3127.2	
823.82	5248.3	
823.99	4375.8	
824.17	4255	
824.34	3094.5	
824.51	6023.1	
824.68	4704.9	
824.86	3299.3	
825.03	3593.5	
825.2	4698	
825.37	5581.4	
825.55	3310.9	
825.72	3523.2	
825.89	6042.2	
826.06	5586.9	
826.24	3435.1	
826.41	3543.7	
826.58	5571.2	
826.75	4907.6	
826.92	2810.5	
827.1	3112.9	
827.27	7364.5	
827.44	5903.6	
827.61	3369.6	
827.79	4029.7	
827.96	4504.8	
828.13	4768.4	
828.3	3472.7	
828.47	2962	
828.65	4881.7	
828.82	4813.4	
828.99	4365.6	
829.16	3788.7	
829.34	5253	
829.51	5054.4	
829.68	3559.4	
829.85	3719.1	
830.02	5461.9	
830.2	5220.3	
830.37	2829.6	
830.54	4229.7	
830.71	5856.5	
830.88	4707.6	
831.05	2807.1	
831.23	3229.6	
831.4	5689.3	
831.57	6192.4	
831.74	3287	
831.91	2948.4	
832.09	4981.3	
832.26	5233.9	
832.43	3405.8	
832.6	3829	
832.77	4868.7	
832.94	5526.8	
833.12	2737.5	
833.29	3351.2	
833.46	4603.2	
833.63	6396.5	
833.8	3635.1	
833.97	3394.2	
834.15	5239.4	
834.32	5050.3	
834.49	3596.9	
834.66	3614	
834.83	5367.7	
835	4497.3	
835.17	3326.6	
835.35	3332	
835.52	5156.1	
835.69	5024.3	
835.86	3424.2	
836.03	2888.3	
836.2	5199.8	
836.37	4915.8	
836.55	3401.7	
836.72	3239.9	
836.89	4908.3	
837.06	5298.1	
837.23	3416	
837.4	3747.1	
837.57	5898.1	
837.75	6436.8	
837.92	3186.6	
838.09	3363.4	
838.26	4853	
838.43	5402.5	
838.6	3564.8	
838.77	3218.7	
838.94	6093.4	
839.11	5857.9	
839.29	3427.6	
839.46	2747	
839.63	5201.2	
839.8	4903.5	
839.97	3327.3	
840.14	3272.7	
840.31	5044.1	
840.48	5236	
840.65	2805	
840.82	3238.5	
841	5223	
841.17	5061.9	
841.34	3069.2	
841.51	3183.2	
841.68	5111	
841.85	4930.1	
842.02	3162.7	
842.19	2714.9	
842.36	4958.8	
842.53	5011.4	
842.7	3072	
842.87	3665.9	
843.05	6338.5	
843.22	4939.7	
843.39	2921.8	
843.56	3115.6	
843.73	4790.2	
843.9	5276.9	
844.07	4802.5	
844.24	4065.9	
844.41	7223.9	
844.58	4577.9	
844.75	2957.9	
844.92	3193.5	
845.09	5161.6	
845.26	5207.3	
845.43	3093.8	
845.6	3225.6	
845.77	5173.2	
845.94	4983.4	
846.12	3386	
846.29	3587.4	
846.46	5399.8	
846.63	5113.8	
846.8	3061.7	
846.97	3581.9	
847.14	5540.4	
847.31	5137	
847.48	3446.7	
847.65	3750.5	
847.82	5358.2	
847.99	5336.3	
848.16	4024.9	
848.33	3706.8	
848.5	4818.9	
848.67	5605.3	
848.84	2998.2	
849.01	3144.3	
849.18	4687.1	
849.35	4445.5	
849.52	3763.5	
849.69	2976.4	
849.86	5394.3	
850.03	5496.1	
850.2	3059.7	
850.37	3660.4	
850.54	5417.6	
850.71	4885.8	
850.88	3580.5	
851.05	2997.5	
851.22	5097.4	
851.39	5575.3	
851.56	2897.2	
851.73	3517	
851.9	4584.7	
852.07	5380	
852.24	3360.7	
852.41	2996.2	
852.58	5055.8	
852.75	4689.2	
852.92	3369.6	
853.09	2979.8	
853.26	4784.1	
853.43	5566.4	
853.6	3026.9	
853.77	2607.1	
853.94	5626.5	
854.11	4562.2	
854.28	4322.6	
854.44	3244	
854.61	5947.3	
854.78	5413.5	
854.95	2988.7	
855.12	3752.6	
855.29	4220.9	
855.46	5785.5	
855.63	2998.9	
855.8	4076.8	
855.97	4775.9	
856.14	5479	
856.31	4165.6	
856.48	3292.5	
856.65	4823.6	
856.82	4491.2	
856.99	2944.3	
857.16	3273.3	
857.33	6163.7	
857.49	4902.2	
857.66	3258.3	
857.83	3450.1	
858	4915.1	
858.17	5035.3	
858.34	2855.6	
858.51	3072.6	
858.68	5705	
858.85	5651.7	
859.02	3423.5	
859.19	3633.1	
859.36	4627	
859.52	4595.6	
859.69	3059.7	
859.86	3560.7	
860.03	4666.6	
860.2	5597.8	
860.37	2772.3	
860.54	3007.1	
860.71	5347.9	
860.88	5657.9	
861.05	3314.3	
861.21	3797.6	
861.38	5578	
861.55	4476.2	
861.72	2807.1	
861.89	3381.9	
862.06	5385.5	
862.23	5781.4	
862.4	2953.9	
862.56	3139.5	
862.73	5222.3	
862.9	4978.6	
863.07	3459.7	
863.24	2749.1	
863.41	4468.7	
863.58	4625.7	
863.75	3117.7	
863.91	3493.8	
864.08	5531.6	
864.25	5261.2	
864.42	3718.4	
864.59	4214.7	
864.76	5917.9	
864.93	4574.5	
865.09	2989.4	
865.26	3280.8	
865.43	5549.3	
865.6	5874.9	
865.77	2644.6	
865.94	2988	
866.1	5578	
866.27	5362.3	
866.44	4501.4	
866.61	2873.3	
866.78	4944.5	
866.95	5239.4	
867.11	2973	
867.28	2751.8	
867.45	5449	
867.62	4600.4	
867.79	3482.9	
867.96	3009.1	
868.12	4543.1	
868.29	5367	
868.46	3007.1	
868.63	3968.3	
868.8	5471.5	
868.97	5262.6	
869.13	3156.6	
869.3	3153.2	
869.47	5185.5	
869.64	5401.9	
869.81	3053.5	
869.97	3022.1	
870.14	5094	
870.31	5622.4	
870.48	2977.7	
870.65	3805.8	
870.81	4870.8	
870.98	4902.8	
871.15	3395.5	
871.32	3183.2	
871.48	5189.6	
871.65	5672.2	
871.82	3020.1	
871.99	3317	
872.16	6042.9	
872.32	5530.9	
872.49	3065.8	
872.66	3102.7	
872.83	5326.1	
872.99	4752	
873.16	3451.5	
873.33	2999.6	
873.5	5033.9	
873.67	5003.2	
873.83	3151.1	
874	4042.7	
874.17	5152	
874.34	5966.4	
874.5	3887	
874.67	3730	
874.84	5644.2	
875.01	4522.6	
875.17	4181.3	
875.34	3007.8	
875.51	5036.6	
875.68	6060.6	
875.84	3657	
876.01	4293.9	
876.18	5339.7	
876.34	5240.1	
876.51	3058.3	
876.68	2977.1	
876.85	4865.3	
877.01	5549.3	
877.18	4252.9	
877.35	2975	
877.52	5046.9	
877.68	4555.4	
877.85	2975	
878.02	2998.9	
878.18	4879.6	
878.35	4731.5	
878.52	2462.3	
878.69	3332	
878.85	5365.7	
879.02	5281	
879.19	4145.1	
879.35	3274.7	
879.52	5259.9	
879.69	5394.3	
879.86	2643.2	
880.02	3355.3	
880.19	4945.2	
880.36	5924.8	
880.52	3422.8	
880.69	3579.2	
880.86	5333.6	
881.02	5369.1	
881.19	3263.1	
881.36	3235.8	
881.52	5233.9	
881.69	4722.6	
881.86	3263.1	
882.02	3121.8	
882.19	5478.3	
882.36	6318	
882.52	3037.1	
882.69	4168.3	
882.86	5047.6	
883.02	5008.6	
883.19	3619.4	
883.36	3366.2	
883.52	5371.1	
883.69	5996.5	
883.86	3007.1	
884.02	2772.3	
884.19	5281.7	
884.36	5014.1	
884.52	3410.6	
884.69	3194.8	
884.86	4732.9	
885.02	5786.9	
885.19	3344.3	
885.36	3420.8	
885.52	4968.4	
885.69	5148.6	
885.86	4241.3	
886.02	3778.5	
886.19	5331.5	
886.35	4819.6	
886.52	3271.3	
886.69	4191.5	
886.85	4532.8	
887.02	5602.6	
887.19	5602.6	
887.35	5602.6	
887.52	5602.6	
887.68	5602.6	
887.85	5602.6	
888.02	5602.6	
888.18	5602.6	
888.35	5602.6	
888.51	5602.6	
888.68	5602.6	
888.85	5602.6	
889.01	5602.6	
889.18	5602.6	
889.35	5602.6	
889.51	5602.6	
889.68	5602.6	
889.84	5602.6	
890.01	5602.6	
890.17	5602.6	
890.34	5602.6	
890.51	5602.6	
890.67	5602.6	
890.84	5602.6	
891	5602.6	
891.17	5602.6	
891.34	5602.6	
891.5	5602.6	
891.67	5602.6	
891.83	5602.6	
892	5602.6	
892.16	5602.6	
892.33	5602.6	
892.5	5602.6	
892.66	5602.6	
892.83	5602.6	
892.99	5602.6	
893.16	5602.6	
893.32	5602.6	
893.49	5602.6	
893.65	5602.6	
893.82	5602.6	
893.99	5602.6	
894.15	5602.6	
894.32	5602.6	
894.48	5602.6	
894.65	5602.6	
894.81	5602.6	
894.98	5602.6	
895.14	5602.6	
895.31	5602.6	
895.47	5602.6	
895.64	5602.6	
895.81	5602.6	
895.97	5602.6	
896.14	5602.6	
896.3	5602.6	
896.47	5602.6	
896.63	5602.6	
896.8	5602.6	
896.96	5602.6	
897.13	5602.6	
897.29	5602.6	
897.46	5602.6	
897.62	5602.6	
897.79	5602.6	
897.95	5602.6	
898.12	5602.6	
898.28	5602.6	
898.45	5602.6	
898.61	5602.6	
898.78	5602.6	
898.94	5602.6	
899.11	5602.6	
899.27	5602.6	
899.44	5602.6	
899.6	5602.6	
899.77	5602.6	
899.93	5602.6	
900.1	5602.6	
900.26	5602.6	
900.43	5602.6	
900.59	5602.6	
900.76	5602.6	
900.92	5602.6	
901.09	5602.6	
901.25	5602.6	
901.42	5602.6	
901.58	5602.6	
901.75	5602.6	
901.91	5602.6	
902.07	5602.6	
902.24	5602.6	
902.4	5602.6	
902.57	5602.6	
902.73	5602.6	
902.9	5602.6	
903.06	5602.6	
903.23	5602.6	
903.39	5602.6	
903.56	5602.6	
903.72	5602.6	
903.88	5602.6	
904.05	5602.6	
904.21	5602.6	
904.38	5602.6	
904.54	5602.6	
904.71	5602.6	
904.87	5602.6	
905.03	5602.6	
905.2	5602.6	
905.36	5602.6	
905.53	5602.6	
905.69	5602.6	
905.86	5602.6	
906.02	5602.6	
906.18	5602.6	
906.35	5602.6	
906.51	5602.6	
906.68	5602.6	
906.84	5602.6	
907.01	5602.6	
907.17	5602.6	
907.33	5602.6	
907.5	5602.6	
907.66	5602.6	
907.83	5602.6	
907.99	5602.6	
908.15	5602.6	
908.32	5602.6	
908.48	5602.6	
908.65	5602.6	
908.81	5602.6	
908.97	5602.6	
909.14	5602.6	
909.3	5602.6	
909.47	5602.6	
909.63	5602.6	
909.79	5602.6	
909.96	5602.6	
910.12	5602.6	
910.28	5602.6	
910.45	5602.6	
910.61	5602.6	
910.78	5602.6	
910.94	5602.6	
911.1	5602.6	
911.27	5602.6	
911.43	5602.6	
911.59	5602.6	
911.76	5602.6	
911.92	5602.6	
912.08	5602.6	
912.25	5602.6	
912.41	5602.6	
912.57	5602.6	
912.74	5602.6	
912.9	5602.6	
913.07	5602.6	
913.23	5602.6	
913.39	5602.6	
913.56	5602.6	
913.72	5602.6	
913.88	5602.6	
914.05	5602.6	
914.21	5602.6	
914.37	5602.6	
914.54	5602.6	
914.7	5602.6	
914.86	5602.6	
915.03	5602.6	
915.19	5602.6	
