Wavelength	Intensities	
nm	a.u.	
179.22	1745.9	
179.44	1743.5	
179.65	1748.3	
179.86	1738.7	
180.08	1729.9	
180.29	4125.3	
180.51	3112.2	
180.72	5135.6	
180.94	5758.9	
181.15	2799.6	
181.37	2805.7	
181.58	4979.3	
181.79	5089.2	
182.01	2910.2	
182.22	3108.1	
182.44	5127.4	
182.65	4473.4	
182.87	3789.4	
183.08	3421.5	
183.29	5407.3	
183.51	4528.7	
183.72	3129.3	
183.94	4402.5	
184.15	4866.7	
184.37	4877.6	
184.58	2775	
184.79	3698.6	
185.01	4590.2	
185.22	5270.1	
185.44	3852.2	
185.65	3310.9	
185.86	4846.9	
186.08	4479.6	
186.29	2757.2	
186.51	2913.6	
186.72	4512.4	
186.94	5343.2	
187.15	3381.2	
187.36	3435.8	
187.58	6652.5	
187.79	4975.9	
188.01	3502.7	
188.22	5286.5	
188.43	5859.9	
188.65	5107	
188.86	2957.9	
189.08	3442.6	
189.29	4646.2	
189.5	4726	
189.72	3220.1	
189.93	3197.6	
190.15	5300.1	
190.36	6161.7	
190.57	3453.6	
190.79	3388	
191	5344.5	
191.22	5360.9	
191.43	3475.4	
191.64	2956.6	
191.86	5468.8	
192.07	5379.3	
192.29	3072.6	
192.5	3187.3	
192.71	5362.3	
192.93	4620.2	
193.14	3135.4	
193.35	3220.1	
193.57	4693.3	
193.78	5266	
194	2648	
194.21	3103.4	
194.42	4519.9	
194.64	4937	
194.85	3461.1	
195.07	3917.1	
195.28	4947.2	
195.49	4323.9	
195.71	4121.2	
195.92	2990	
196.13	5050.3	
196.35	5140.4	
196.56	4367.6	
196.78	3419.4	
196.99	6152.8	
197.2	5720.7	
197.42	3846.8	
197.63	3445.4	
197.84	4442.7	
198.06	5061.2	
198.27	3199.6	
198.48	4106.9	
198.7	4663.2	
198.91	4868	
199.13	3446	
199.34	3452.9	
199.55	5234.6	
199.77	4256.4	
199.98	3059.7	
200.19	3510.9	
200.41	4841.4	
200.62	4597	
200.83	3507.5	
201.05	3812	
201.26	4810.7	
201.47	4642.7	
201.69	3072	
201.9	2968.9	
202.11	4937	
202.33	5662	
202.54	3285.6	
202.76	3665.2	
202.97	4950.6	
203.18	4971.8	
203.4	3571	
203.61	3577.1	
203.82	4939	
204.04	4601.1	
204.25	3489.1	
204.46	3426.3	
204.68	4909.7	
204.89	5071.5	
205.1	3356.6	
205.32	2925.2	
205.53	5164.3	
205.74	5328.8	
205.96	2600.9	
206.17	3536.2	
206.38	5179.3	
206.6	5247.6	
206.81	3968.3	
207.02	3207.1	
207.24	5080.3	
207.45	5364.3	
207.66	3320.4	
207.88	2871.3	
208.09	4996.4	
208.3	4849.6	
208.52	3061	
208.73	3362.1	
208.94	4855.1	
209.15	5449.6	
209.37	3281.5	
209.58	3709.6	
209.79	5282.4	
210.01	4715.1	
210.22	2700.6	
210.43	2837.8	
210.65	4873.5	
210.86	5180.7	
211.07	3310.2	
211.29	3059	
211.5	5110.4	
211.71	4826.4	
211.93	3097.2	
212.14	3070.6	
212.35	4815.5	
212.56	4992.3	
212.78	3471.3	
212.99	2869.9	
213.2	5595.1	
213.42	4700.1	
213.63	3093.8	
213.84	3311.6	
214.06	4455.7	
214.27	4489.1	
214.48	3315.7	
214.69	3454.2	
214.91	5439.4	
215.12	5418.9	
215.33	3530	
215.55	3836.5	
215.76	5844.9	
215.97	5212.8	
216.18	3353.9	
216.4	3344.3	
216.61	4600.4	
216.82	5217.5	
217.04	3125.2	
217.25	3237.8	
217.46	5348.6	
217.67	5111.7	
217.89	2751.8	
218.1	2912.2	
218.31	4947.2	
218.53	5061.9	
218.74	3222.1	
218.95	3137.5	
219.16	4887.8	
219.38	5547.9	
219.59	3075.4	
219.8	3662.5	
220.01	6057.2	
220.23	4858.5	
220.44	3933.5	
220.65	3030.3	
220.87	4981.3	
221.08	5391.6	
221.29	2901.3	
221.5	3728	
221.72	6389	
221.93	4653.7	
222.14	3487.7	
222.35	4035.2	
222.57	4863.9	
222.78	5187.5	
222.99	3319.8	
223.2	3534.8	
223.42	5087.2	
223.63	5170.4	
223.84	2620	
224.05	2634.4	
224.27	5987.6	
224.48	5556.8	
224.69	4105.5	
224.9	3442.6	
225.12	5017.5	
225.33	4807.9	
225.54	2856.2	
225.75	3107.5	
225.97	4552.6	
226.18	4788.8	
226.39	3307.5	
226.6	3135.4	
226.82	4670.1	
227.03	4530.8	
227.24	3413.3	
227.45	2898.6	
227.67	5186.1	
227.88	5563	
228.09	3851.5	
228.3	3851.5	
228.52	5183.4	
228.73	4843.4	
228.94	3212.6	
229.15	2881.5	
229.36	4854.4	
229.58	4796.3	
229.79	3304.7	
230	3747.8	
230.21	5745.9	
230.43	4932.9	
230.64	3420.8	
230.85	3574.4	
231.06	5300.1	
231.28	5249.6	
231.49	2918.4	
231.7	3371.6	
231.91	5130.8	
232.12	4908.3	
232.34	2996.9	
232.55	3347.7	
232.76	5384.1	
232.97	4952	
233.18	3063.8	
233.4	3431.7	
233.61	5046.9	
233.82	4638.6	
234.03	3218	
234.25	3203.7	
234.46	6551.5	
234.67	4887.8	
234.88	3541.6	
235.09	3093.1	
235.31	5091.3	
235.52	4738.3	
235.73	3436.5	
235.94	2984.6	
236.15	4660.5	
236.37	5756.2	
236.58	3041.9	
236.79	3295.2	
237	5126.7	
237.21	4437.9	
237.43	3514.3	
237.64	2824.1	
237.85	8137.9	
238.06	4569	
238.27	3510.9	
238.48	2960.7	
238.7	5135.6	
238.91	4800.4	
239.12	3298.6	
239.33	3444	
239.54	4617.5	
239.76	4773.8	
239.97	3306.8	
240.18	3274	
240.39	5883.8	
240.6	5062.6	
240.82	3495.2	
241.03	2883.5	
241.24	4883.7	
241.45	5501.5	
241.66	3056.3	
241.87	3587.4	
242.09	5489.9	
242.3	5737	
242.51	3580.5	
242.72	3305.4	
242.93	5191.6	
243.14	4814.1	
243.36	3839.3	
243.57	4072.7	
243.78	5544.5	
243.99	5159.5	
244.2	3288.4	
244.41	3078.1	
244.63	4483.7	
244.84	5148.6	
245.05	3550.5	
245.26	3292.5	
245.47	5118.6	
245.68	5247.6	
245.9	4300.7	
246.11	3452.2	
246.32	4741.7	
246.53	5081	
246.74	5154.7	
246.95	2874	
247.16	4539.7	
247.38	4885.1	
247.59	2844.6	
247.8	3317.7	
248.01	4596.3	
248.22	4863.9	
248.43	3075.4	
248.64	3212.6	
248.86	4467.3	
249.07	4734.2	
249.28	2905.4	
249.49	3429	
249.7	5289.9	
249.91	5386.2	
250.12	2809.1	
250.34	2953.2	
250.55	4977.2	
250.76	4902.2	
250.97	3448.8	
251.18	3449.5	
251.39	5382.7	
251.6	5018.2	
251.81	3491.8	
252.03	3504.1	
252.24	4700.1	
252.45	5262.6	
252.66	2984.6	
252.87	3592.1	
253.08	4898.1	
253.29	6148.7	
253.5	2963.4	
253.72	3960.1	
253.93	4823.6	
254.14	5662.6	
254.35	3198.9	
254.56	3215.3	
254.77	5063.3	
254.98	4573.8	
255.19	3144.3	
255.41	3960.8	
255.62	5026.4	
255.83	5367.7	
256.04	3609.2	
256.25	3493.8	
256.46	5793	
256.67	4608.6	
256.88	3422.8	
257.09	3737.5	
257.31	4584.7	
257.52	4644.8	
257.73	4267.3	
257.94	3089	
258.15	4800.4	
258.36	4846.9	
258.57	3883.6	
258.78	2557.2	
258.99	5318.6	
259.2	4760.8	
259.41	3183.2	
259.63	3246.7	
259.84	5547.9	
260.05	5859.2	
260.26	4091.2	
260.47	3150.5	
260.68	5360.9	
260.89	4745.8	
261.1	3767.6	
261.31	3049.4	
261.52	5404.6	
261.73	5661.3	
261.95	4040	
262.16	3556.6	
262.37	5395.7	
262.58	5486.5	
262.79	3990.8	
263	3203.7	
263.21	4875.5	
263.42	4699.4	
263.63	3478.1	
263.84	3195.5	
264.05	5301.5	
264.26	5634	
264.47	3900	
264.69	3588.7	
264.9	5487.2	
265.11	5006.6	
265.32	3102	
265.53	3149.8	
265.74	4995	
265.95	4416.1	
266.16	3302.7	
266.37	3690.4	
266.58	4986.1	
266.79	4698	
267	3235.1	
267.21	2985.9	
267.42	4538.3	
267.63	4895.3	
267.84	3358	
268.06	2862.4	
268.27	5244.8	
268.48	5343.8	
268.69	3274	
268.9	3747.1	
269.11	5440.1	
269.32	4416.1	
269.53	3385.3	
269.74	3085.6	
269.95	5102.9	
270.16	4393.6	
270.37	3340.9	
270.58	3835.8	
270.79	4754	
271	5307.7	
271.21	3495.2	
271.42	3328.6	
271.63	5054.4	
271.84	4508.3	
272.05	2710.1	
272.26	3035.1	
272.47	4875.5	
272.68	5088.5	
272.89	3278.8	
273.11	3620.8	
273.32	4685.8	
273.53	5651.7	
273.74	3504.8	
273.95	3486.3	
274.16	5357.5	
274.37	4874.2	
274.58	3621.5	
274.79	2966.1	
275	5082.4	
275.21	5338.4	
275.42	4340.3	
275.63	3637.2	
275.84	5091.3	
276.05	6267.5	
276.26	3493.2	
276.47	3236.5	
276.68	4762.2	
276.89	5715.2	
277.1	3717.7	
277.31	2963.4	
277.52	5037.3	
277.73	5301.5	
277.94	2929.3	
278.15	3231.7	
278.36	5051	
278.57	4606.6	
278.78	3194.8	
278.99	3530.7	
279.2	4607.9	
279.41	4597.7	
279.62	4099.4	
279.83	2966.8	
280.04	5829.2	
280.25	4521.2	
280.46	4044.1	
280.67	3291.1	
280.88	4616.1	
281.09	5422.3	
281.3	3473.4	
281.51	4347.2	
281.72	4672.8	
281.93	5311.1	
282.14	3140.2	
282.35	3438.5	
282.56	5341.1	
282.77	5207.3	
282.98	3225.6	
283.19	3907.5	
283.4	6234.7	
283.61	4839.4	
283.82	2983.9	
284.03	4016.1	
284.24	5012.1	
284.45	5338.4	
284.66	4099.4	
284.87	3866.6	
285.08	5355.4	
285.29	5505.6	
285.5	2922.5	
285.71	3317.7	
285.92	5408.7	
286.12	5895.4	
286.33	4015.4	
286.54	3225.6	
286.75	5234.6	
286.96	4821.6	
287.17	2975.7	
287.38	3893.9	
287.59	4670.1	
287.8	4601.1	
288.01	3267.9	
288.22	3710.2	
288.43	5109.7	
288.64	4509.6	
288.85	3815.4	
289.06	3611.9	
289.27	5207.3	
289.48	5548.6	
289.69	4073.4	
289.9	3694.5	
290.11	5429.2	
290.32	4685.8	
290.53	3831.7	
290.74	3550.5	
290.94	5231.9	
291.15	5277.6	
291.36	3110.9	
291.57	3651.5	
291.78	4770.4	
291.99	4396.3	
292.2	3074.7	
292.41	3603.7	
292.62	5339.7	
292.83	5145.9	
293.04	4343.1	
293.25	3091.8	
293.46	4758.1	
293.67	5344.5	
293.88	3104.7	
294.09	3035.1	
294.29	4547.9	
294.5	4980.7	
294.71	3378.5	
294.92	3230.3	
295.13	4760.8	
295.34	5834	
295.55	2915.6	
295.76	2882.2	
295.97	5162.2	
296.18	5808	
296.39	3018.7	
296.6	3142.9	
296.81	4949.9	
297.01	5186.1	
297.22	3250.1	
297.43	3132	
297.64	4689.2	
297.85	4596.3	
298.06	2654.9	
298.27	2835.8	
298.48	4845.5	
298.69	4655	
298.9	3413.3	
299.11	3019.4	
299.31	4548.5	
299.52	4577.9	
299.73	3623.5	
299.94	3528.7	
300.15	4949.3	
300.36	4624.3	
300.57	3500.7	
300.78	3517.7	
300.99	4780.6	
301.2	4962.9	
301.4	3172.3	
301.61	3392.8	
301.82	5161.6	
302.03	5193.6	
302.24	3749.1	
302.45	2978.4	
302.66	5119.9	
302.87	5448.3	
303.08	3142.3	
303.29	4266.6	
303.49	4754.7	
303.7	4879.6	
303.91	2863.1	
304.12	3998.3	
304.33	4468.7	
304.54	5042.8	
304.75	3162.1	
304.96	3079.5	
305.16	5177.3	
305.37	5740.5	
305.58	2788.7	
305.79	2895.1	
306	5157.5	
306.21	4397.7	
306.42	3136.1	
306.63	4602.5	
306.83	4747.9	
307.04	5314.5	
307.25	3409.2	
307.46	3379.8	
307.67	4285.7	
307.88	5176.6	
308.09	3181.9	
308.29	3175.7	
308.5	4988.9	
308.71	5321.3	
308.92	3394.2	
309.13	3031.7	
309.34	4864.6	
309.55	4842.8	
309.75	3876.1	
309.96	3532.7	
310.17	5213.4	
310.38	4665.3	
310.59	3681.6	
310.8	3005.1	
311.01	4715.8	
311.21	4787.5	
311.42	3007.1	
311.63	3158.7	
311.84	4674.1	
312.05	4998.4	
312.26	3462.4	
312.46	3791.5	
312.67	4732.2	
312.88	4506.9	
313.09	3018	
313.3	3023.5	
313.51	5532.9	
313.71	5844.2	
313.92	3058.3	
314.13	3200.3	
314.34	5050.3	
314.55	4842.8	
314.76	3819.5	
314.96	3379.1	
315.17	5033.2	
315.38	5136.3	
315.59	3078.1	
315.8	2928.6	
316.01	5539.8	
316.21	5591.6	
316.42	2964.8	
316.63	3396.2	
316.84	4821.6	
317.05	5473.5	
317.26	3574.4	
317.46	3227.6	
317.67	4870.1	
317.88	5201.2	
318.09	3829	
318.3	2891.7	
318.5	4696.7	
318.71	5166.3	
318.92	4727.4	
319.13	3542.3	
319.34	5292.6	
319.54	5395.7	
319.75	2876	
319.96	2789.3	
320.17	5193.6	
320.38	5285.1	
320.58	2824.8	
320.79	3302	
321	5371.8	
321.21	5457.2	
321.42	3354.6	
321.62	2841.2	
321.83	4648.2	
322.04	4928.8	
322.25	3218	
322.46	3092.4	
322.66	4956.8	
322.87	5114.5	
323.08	3693.9	
323.29	2974.3	
323.5	5729.5	
323.7	4487.8	
323.91	4059.8	
324.12	3628.3	
324.33	4961.5	
324.53	5180.7	
324.74	3555.3	
324.95	3704.8	
325.16	4445.5	
325.37	4744.5	
325.57	3053.5	
325.78	3162.1	
325.99	5011.4	
326.2	4508.9	
326.4	4345.1	
326.61	2833.7	
326.82	4894	
327.03	4986.8	
327.24	4196.3	
327.44	3926	
327.65	5133.6	
327.86	4233.2	
328.07	3571.7	
328.27	2995.5	
328.48	5439.4	
328.69	4548.5	
328.9	4230.4	
329.1	3208.5	
329.31	4833.2	
329.52	5509	
329.73	3123.8	
329.93	3368.2	
330.14	4924	
330.35	5043.5	
330.56	4827.7	
330.76	3707.5	
330.97	4786.8	
331.18	5033.2	
331.39	3392.8	
331.59	2842.6	
331.8	5369.8	
332.01	5436	
332.22	3182.5	
332.42	3525.2	
332.63	5017.5	
332.84	4615.4	
333.05	3437.2	
333.25	3151.8	
333.46	4764.9	
333.67	4907.6	
333.88	3221.5	
334.08	3487.7	
334.29	6311.2	
334.5	5397.1	
334.7	3011.9	
334.91	4174.4	
335.12	4526	
335.33	5197.7	
335.53	3400.3	
335.74	4823.6	
335.95	4777.9	
336.16	4573.8	
336.36	3413.3	
336.57	3801	
336.78	4463.9	
336.98	5372.5	
337.19	4160.1	
337.4	3276.8	
337.61	5816.2	
337.81	4477.5	
338.02	3120.4	
338.23	3936.9	
338.43	5459.9	
338.64	4629.8	
338.85	3097.9	
339.05	3919.8	
339.26	5640.1	
339.47	4441.4	
339.68	3151.1	
339.88	4386.1	
340.09	5180	
340.3	5313.1	
340.5	3546.4	
340.71	2762	
340.92	4444.1	
341.13	5442.1	
341.33	2932.7	
341.54	3587.4	
341.75	5102.2	
341.95	4746.5	
342.16	3405.1	
342.37	3681.6	
342.57	4542.4	
342.78	4837.3	
342.99	3766.2	
343.19	2840.5	
343.4	5227.1	
343.61	5060.5	
343.81	3257.6	
344.02	3046.7	
344.23	5268.7	
344.43	5516.5	
344.64	3760.1	
344.85	3684.3	
345.06	5146.5	
345.26	5431.9	
345.47	3527.3	
345.68	4065.9	
345.88	4408.6	
346.09	5310.4	
346.3	3648.8	
346.5	2770.2	
346.71	4833.9	
346.92	4672.1	
347.12	2902.7	
347.33	3515	
347.54	5373.9	
347.74	5639.4	
347.95	3489.7	
348.16	2697.2	
348.36	4798.4	
348.57	4571.7	
348.78	3473.4	
348.98	3674.1	
349.19	4792.9	
349.39	4447.5	
349.6	2898.6	
349.81	3179.1	
350.01	5138.4	
350.22	4660.5	
350.43	3387.3	
350.63	4029.7	
350.84	4912.4	
351.05	4678.9	
351.25	3116.3	
351.46	2899.2	
351.67	5347.2	
351.87	4683.7	
352.08	3335.5	
352.29	3674.7	
352.49	5300.1	
352.7	5327.4	
352.9	2994.1	
353.11	3670	
353.32	5801.2	
353.52	4784.1	
353.73	2994.1	
353.94	3719.1	
354.14	5169.8	
354.35	4918.5	
354.55	3137.5	
354.76	3381.2	
354.97	5154.1	
355.17	4941.1	
355.38	2958.6	
355.59	3985.3	
355.79	4650.3	
356	4938.3	
356.2	3370.3	
356.41	3028.9	
356.62	4437.9	
356.82	4833.9	
357.03	3569.6	
357.24	3275.4	
357.44	4612.7	
357.65	4777.9	
357.85	4308.9	
358.06	3468.6	
358.27	4453	
358.47	4700.1	
358.68	2909.5	
358.88	3603.1	
359.09	5132.2	
359.3	5345.2	
359.5	4166.9	
359.71	3713.6	
359.91	5717.2	
360.12	5208.7	
360.33	3642.7	
360.53	4004.5	
360.74	4728.1	
360.94	4737.6	
361.15	3862.5	
361.36	3174.4	
361.56	5370.5	
361.77	4842.1	
361.97	4118.5	
362.18	3371.6	
362.38	5379.3	
362.59	4611.3	
362.8	3160.7	
363	3046.7	
363.21	4475.5	
363.41	4973.2	
363.62	3457.7	
363.83	4289.8	
364.03	5081	
364.24	5748.6	
364.44	4518.5	
364.65	4427	
364.85	4894	
365.06	4601.1	
365.27	3262.4	
365.47	3392.8	
365.68	5681.7	
365.88	4861.2	
366.09	3627	
366.29	3362.1	
366.5	5029.8	
366.71	5489.9	
366.91	4440.7	
367.12	3786	
367.32	5875.6	
367.53	5220.3	
367.73	3735.5	
367.94	4489.8	
368.14	5372.5	
368.35	5888.6	
368.56	3708.2	
368.76	3470.6	
368.97	5388.2	
369.17	6627.9	
369.38	3316.3	
369.58	3558.7	
369.79	4644.1	
369.99	5678.3	
370.2	4364.2	
370.4	3635.1	
370.61	5151.3	
370.82	6182.8	
371.02	3639.2	
371.23	3084.2	
371.43	4608.6	
371.64	5692	
371.84	3599.6	
372.05	4511.7	
372.25	6640.9	
372.46	5410.7	
372.66	3624.9	
372.87	3581.9	
373.07	5479	
373.28	6784.2	
373.48	4380.6	
373.69	4217.5	
373.9	5133.6	
374.1	5099.4	
374.31	4407.2	
374.51	3986.7	
374.72	5699.5	
374.92	4885.1	
375.13	4555.4	
375.33	3930.7	
375.54	5401.9	
375.74	5018.9	
375.95	4011.3	
376.15	4982	
376.36	5474.2	
376.56	5363.6	
376.77	4100	
376.97	4387.4	
377.18	6323.4	
377.38	5616.2	
377.59	4674.1	
377.79	3684.3	
378	5456.5	
378.2	5693.4	
378.41	3784	
378.61	3657	
378.82	5779.4	
379.02	5143.1	
379.23	3877.5	
379.43	4781.3	
379.64	5958.9	
379.84	5574.6	
380.05	3777.1	
380.25	3728	
380.46	5739.1	
380.66	5315.2	
380.87	4814.1	
381.07	5040.7	
381.28	6170.5	
381.48	5686.5	
381.69	3792.8	
381.89	3884.3	
382.1	4852.3	
382.3	5729.5	
382.51	4678.9	
382.71	5418.9	
382.91	5576.6	
383.12	6008.1	
383.32	4067.9	
383.53	4227	
383.73	5552	
383.94	5404.6	
384.14	4252.9	
384.35	3509.5	
384.55	5331.5	
384.76	5669.5	
384.96	4143	
385.17	4306.9	
385.37	5766.4	
385.58	5100.8	
385.78	4316.4	
385.98	3465.2	
386.19	5294	
386.39	5601.2	
386.6	3928.7	
386.8	4117.1	
387.01	5640.1	
387.21	5722	
387.42	4336.9	
387.62	4890.5	
387.83	5186.1	
388.03	5548.6	
388.23	4212.7	
388.44	4775.2	
388.64	4996.4	
388.85	5054.4	
389.05	4459.1	
389.26	4971.1	
389.46	6655.2	
389.67	6098.9	
389.87	4482.3	
390.07	4465.9	
390.28	5413.5	
390.48	5148.6	
390.69	3891.8	
390.89	4173.8	
391.1	5411.4	
391.3	6008.1	
391.5	5018.2	
391.71	5565.7	
391.91	5947.3	
392.12	6651.1	
392.32	5117.2	
392.53	4534.9	
392.73	5436.7	
392.93	5535.7	
393.14	4345.8	
393.34	5180	
393.55	5934.3	
393.75	5530.9	
393.95	4302.1	
394.16	4220.2	
394.36	5457.8	
394.57	5932.3	
394.77	3916.4	
394.98	4245.4	
395.18	5383.4	
395.38	5456.5	
395.59	4960.9	
395.79	4189.5	
396	5522.7	
396.2	5876.3	
396.4	4790.2	
396.61	4799.8	
396.81	6100.9	
397.02	5548.6	
397.22	5071.5	
397.42	5173.2	
397.63	6130.9	
397.83	5516.5	
398.04	4178.5	
398.24	4704.9	
398.44	5975.3	
398.65	5275.6	
398.85	4151.9	
399.05	4172.4	
399.26	5537.7	
399.46	6916	
399.67	4590.2	
399.87	4353.3	
400.07	5969.8	
400.28	6122.7	
400.48	4468.7	
400.69	5298.8	
400.89	6384.9	
401.09	6763.1	
401.3	4442	
401.5	5341.1	
401.7	6995.2	
401.91	7123.5	
402.11	4749.9	
402.32	4901.5	
402.52	6502.3	
402.72	6351.4	
402.93	5033.2	
403.13	4143.7	
403.33	7012.9	
403.54	5887.9	
403.74	4771.8	
403.94	5474.9	
404.15	6011.5	
404.35	6979.5	
404.56	4681.7	
404.76	6004	
404.96	6437.4	
405.17	6206	
405.37	5339.1	
405.57	5033.2	
405.78	6589.7	
405.98	5999.2	
406.18	4758.8	
406.39	5436.7	
406.59	6495.5	
406.79	6134.3	
407	4504.2	
407.2	4621.6	
407.4	6581.5	
407.61	6671.6	
407.81	4823	
408.01	6010.8	
408.22	5803.9	
408.42	7430	
408.62	5728.9	
408.83	5378.6	
409.03	6547.4	
409.23	6421.7	
409.44	5567.1	
409.64	5744.6	
409.84	7452.6	
410.05	7358.4	
410.25	5789.6	
410.45	5512.4	
410.66	7071	
410.86	8948.9	
411.06	6061.3	
411.27	5923.4	
411.47	8982.4	
411.67	7333.8	
411.88	6168.5	
412.08	6513.2	
412.28	7857.4	
412.49	8256.7	
412.69	6213.5	
412.89	6174.6	
413.09	8196	
413.3	8133.8	
413.5	6333.7	
413.7	6068.1	
413.91	7558.4	
414.11	8276.5	
414.31	6269.5	
414.52	6683.2	
414.72	8172.8	
414.92	8016.4	
415.12	6212.2	
415.33	6729.6	
415.53	8396	
415.73	8530.5	
415.94	6959.7	
416.14	6550.1	
416.34	7653.9	
416.55	7462.8	
416.75	7481.9	
416.95	7098.3	
417.15	8526.4	
417.36	8951	
417.56	7721.5	
417.76	7047.7	
417.97	8736.6	
418.17	8617.2	
418.37	6746.7	
418.57	6806.8	
418.78	8402.1	
418.98	8186.4	
419.18	7477.1	
419.38	7407.5	
419.59	8096.3	
419.79	7787.1	
419.99	6737.8	
420.2	6959.7	
420.4	8615.1	
420.6	8685.4	
420.8	6731.7	
421.01	6541.9	
421.21	8565.3	
421.41	8566.7	
421.61	7005.4	
421.82	6791.1	
422.02	8155	
422.22	8890.2	
422.42	7425.3	
422.63	7006.8	
422.83	8247.2	
423.03	9245.2	
423.23	7120.1	
423.44	6287.9	
423.64	8196.7	
423.84	7858.7	
424.04	6756.9	
424.25	6421.7	
424.45	8856.8	
424.65	8858.8	
424.85	6337.8	
425.06	6670.9	
425.26	8981	
425.46	8150.2	
425.66	7149.5	
425.87	6849.8	
426.07	8715.5	
426.27	8535.3	
426.47	6976.1	
426.67	6358.3	
426.88	9009.7	
427.08	8544.8	
427.28	7256	
427.48	6412.9	
427.69	7776.8	
427.89	8191.2	
428.09	7124.2	
428.29	6461.3	
428.5	8832.2	
428.7	8462.9	
428.9	6466.8	
429.1	6818.4	
429.3	8369.4	
429.51	8737.3	
429.71	6677.7	
429.91	7406.1	
430.11	8815.8	
430.31	9005.6	
430.52	6961.7	
430.72	7333.1	
430.92	9242.5	
431.12	8760.5	
431.32	6903	
431.53	7161.7	
431.73	8039.6	
431.93	9264.3	
432.13	6751.5	
432.33	6700.3	
432.54	8376.2	
432.74	8732.5	
432.94	6799.3	
433.14	7517.4	
433.34	9002.9	
433.55	8649.9	
433.75	7507.9	
433.95	9127.8	
434.15	8835.6	
434.35	8622.6	
434.56	6965.8	
434.76	6738.5	
434.96	8936.7	
435.16	9166.7	
435.36	6973.3	
435.56	8022.6	
435.77	8705.9	
435.97	8902.5	
436.17	8597.4	
436.37	7968	
436.57	8770.8	
436.78	8854.7	
436.98	7801.4	
437.18	8475.9	
437.38	9430.9	
437.58	8882	
437.78	8518.9	
437.99	7472.4	
438.19	9237.7	
438.39	10460	
438.59	7376.8	
438.79	6941.2	
438.99	9686.9	
439.2	8897.1	
439.4	7005.4	
439.6	7058	
439.8	9205.6	
440	10114	
440.2	8116.1	
440.4	8282.7	
440.61	9740.8	
440.81	10084	
441.01	7626	
441.21	8363.9	
441.41	10234	
441.61	9813.9	
441.81	8650.6	
442.02	9430.2	
442.22	10484	
442.42	9864.4	
442.62	7724.3	
442.82	7740	
443.02	10262	
443.22	9609.8	
443.43	8253.3	
443.63	7808.9	
443.83	9409.1	
444.03	9574.3	
444.23	9007.6	
444.43	8586.5	
444.63	9896.5	
444.83	10839	
445.04	8108.6	
445.24	9058.2	
445.44	10052	
445.64	10180	
445.84	8445.1	
446.04	8604.9	
446.24	9440.5	
446.44	10318	
446.65	7908.6	
446.85	8293.6	
447.05	9627.5	
447.25	10303	
447.45	8372.8	
447.65	7854	
447.85	9852.8	
448.05	9329.9	
448.25	8758.5	
448.46	8453.3	
448.66	9838.4	
448.86	9442.5	
449.06	7813.7	
449.26	8725.7	
449.46	10281	
449.66	9400.2	
449.86	8430.1	
450.06	8477.2	
450.26	9712.8	
450.47	10172	
450.67	8502.5	
450.87	8927.1	
451.07	10314	
451.27	10158	
451.47	8135.2	
451.67	8663.6	
451.87	10018	
452.07	10669	
452.27	8611	
452.47	8418.5	
452.67	10139	
452.88	10520	
453.08	7824.6	
453.28	9504.6	
453.48	11359	
453.68	10012	
453.88	8598.1	
454.08	8643.8	
454.28	10741	
454.48	10430	
454.68	9208.4	
454.88	9425.4	
455.08	10782	
455.28	10843	
455.48	8462.9	
455.68	9194	
455.89	11422	
456.09	10985	
456.29	8969.4	
456.49	9189.2	
456.69	11419	
456.89	10638	
457.09	9450.7	
457.29	9962.7	
457.49	11239	
457.69	11299	
457.89	9750.4	
458.09	9211.8	
458.29	11258	
458.49	11753	
458.69	10100	
458.89	9734.7	
459.09	12089	
459.29	12112	
459.49	9731.9	
459.69	10463	
459.9	11646	
460.1	11511	
460.3	9647.3	
460.5	9482.1	
460.7	11831	
460.9	11513	
461.1	9503.9	
461.3	10587	
461.5	12663	
461.7	12174	
461.9	10088	
462.1	10227	
462.3	11997	
462.5	12407	
462.7	10304	
462.9	10398	
463.1	13366	
463.3	13315	
463.5	10613	
463.7	11762	
463.9	12433	
464.1	12742	
464.3	11163	
464.5	11115	
464.7	13111	
464.9	13154	
465.1	12496	
465.3	11588	
465.5	13520	
465.7	13635	
465.9	11943	
466.1	11503	
466.3	13654	
466.5	13191	
466.7	12687	
466.9	11656	
467.1	13527	
467.3	14182	
467.5	12839	
467.7	11897	
467.9	14552	
468.1	15118	
468.3	12413	
468.5	12925	
468.7	13676	
468.9	13596	
469.1	12316	
469.3	12895	
469.5	15298	
469.7	13444	
469.9	12529	
470.1	12196	
470.3	13809	
470.5	13824	
470.7	13233	
470.9	12159	
471.1	13796	
471.3	13861	
471.5	12040	
471.69	13584	
471.89	13582	
472.09	13030	
472.29	12811	
472.49	12753	
472.69	13519	
472.89	13928	
473.09	11994	
473.29	11859	
473.49	13451	
473.69	13500	
473.89	12813	
474.09	12176	
474.29	14511	
474.49	14156	
474.69	12930	
474.89	12151	
475.09	13518	
475.29	13736	
475.49	11740	
475.69	12107	
475.88	14668	
476.08	14080	
476.28	11733	
476.48	11839	
476.68	14076	
476.88	13776	
477.08	11796	
477.28	12166	
477.48	13420	
477.68	13845	
477.88	11923	
478.08	12026	
478.28	14353	
478.48	13620	
478.67	12202	
478.87	11466	
479.07	14350	
479.27	13687	
479.47	12252	
479.67	12334	
479.87	14207	
480.07	14600	
480.27	11826	
480.47	13041	
480.67	13864	
480.87	14616	
481.06	12034	
481.26	12876	
481.46	13943	
481.66	13895	
481.86	12618	
482.06	13258	
482.26	13707	
482.46	14396	
482.66	12469	
482.86	12214	
483.05	14302	
483.25	13676	
483.45	14611	
483.65	12625	
483.85	13972	
484.05	14179	
484.25	13078	
484.45	13558	
484.65	14754	
484.84	15079	
485.04	12799	
485.24	12903	
485.44	15393	
485.64	14012	
485.84	12389	
486.04	13657	
486.24	14321	
486.44	14721	
486.63	12458	
486.83	13330	
487.03	14599	
487.23	14920	
487.43	12605	
487.63	14760	
487.83	14870	
488.02	15713	
488.22	13764	
488.42	14216	
488.62	15582	
488.82	14910	
489.02	13248	
489.22	13743	
489.41	15442	
489.61	15534	
489.81	13285	
490.01	13352	
490.21	15597	
490.41	16367	
490.61	13482	
490.8	13424	
491	15360	
491.2	14689	
491.4	13900	
491.6	13188	
491.8	15080	
491.99	15174	
492.19	13011	
492.39	13311	
492.59	15753	
492.79	15938	
492.99	14217	
493.18	13796	
493.38	16159	
493.58	17148	
493.78	14566	
493.98	14179	
494.18	15979	
494.37	15954	
494.57	15123	
494.77	14937	
494.97	16804	
495.17	17305	
495.37	15037	
495.56	15233	
495.76	17593	
495.96	17217	
496.16	16253	
496.36	15421	
496.55	17567	
496.75	17070	
496.95	15714	
497.15	15634	
497.35	17375	
497.54	17473	
497.74	15597	
497.94	17065	
498.14	18249	
498.34	18246	
498.53	15674	
498.73	16224	
498.93	17376	
499.13	17920	
499.33	16274	
499.52	16347	
499.72	18260	
499.92	18170	
500.12	16115	
500.32	16412	
500.51	18244	
500.71	18256	
500.91	16931	
501.11	16557	
501.31	18231	
501.5	18520	
501.7	17322	
501.9	16493	
502.1	18056	
502.29	18464	
502.49	16945	
502.69	17099	
502.89	18199	
503.09	18334	
503.28	15721	
503.48	15944	
503.68	17396	
503.88	17514	
504.07	16720	
504.27	16132	
504.47	17965	
504.67	17765	
504.86	16556	
505.06	16230	
505.26	17379	
505.46	18705	
505.65	16078	
505.85	16201	
506.05	17256	
506.25	17606	
506.44	15362	
506.64	15928	
506.84	17014	
507.04	17636	
507.23	15581	
507.43	15937	
507.63	18471	
507.83	17353	
508.02	15924	
508.22	15732	
508.42	18811	
508.62	17045	
508.81	15961	
509.01	16354	
509.21	16780	
509.4	17357	
509.6	16115	
509.8	15605	
510	17355	
510.19	18476	
510.39	15555	
510.59	15821	
510.79	17202	
510.98	18305	
511.18	15908	
511.38	16001	
511.57	17857	
511.77	17781	
511.97	16391	
512.17	15371	
512.36	17873	
512.56	17513	
512.76	15612	
512.95	15291	
513.15	17808	
513.35	16860	
513.55	16285	
513.74	15771	
513.94	17949	
514.14	17501	
514.33	16503	
514.53	16398	
514.73	17472	
514.92	17520	
515.12	15870	
515.32	15823	
515.51	17759	
515.71	18163	
515.91	17388	
516.11	15980	
516.3	19271	
516.5	17573	
516.7	16371	
516.89	16849	
517.09	17652	
517.29	17595	
517.48	16756	
517.68	16090	
517.88	17413	
518.07	18001	
518.27	16584	
518.47	15734	
518.66	18270	
518.86	17471	
519.06	15793	
519.25	16023	
519.45	17748	
519.65	19103	
519.84	16758	
520.04	17544	
520.24	19255	
520.43	18064	
520.63	16421	
520.83	16191	
521.02	17461	
521.22	17812	
521.42	16367	
521.61	16863	
521.81	17699	
522.01	17817	
522.2	16565	
522.4	16396	
522.6	18344	
522.79	17438	
522.99	16455	
523.18	16237	
523.38	18506	
523.58	18604	
523.77	18247	
523.97	16774	
524.17	20370	
524.36	19714	
524.56	18178	
524.76	17799	
524.95	19250	
525.15	18841	
525.34	17832	
525.54	17922	
525.74	20005	
525.93	19133	
526.13	19005	
526.33	18327	
526.52	20377	
526.72	20092	
526.91	19307	
527.11	18832	
527.31	20509	
527.5	20973	
527.7	18841	
527.89	18273	
528.09	19950	
528.29	20620	
528.48	19347	
528.68	19067	
528.87	20926	
529.07	20840	
529.27	18931	
529.46	18668	
529.66	20539	
529.85	20865	
530.05	18703	
530.25	19090	
530.44	21750	
530.64	20345	
530.83	19004	
531.03	19312	
531.23	21165	
531.42	20792	
531.62	19950	
531.81	19439	
532.01	21576	
532.21	21889	
532.4	19665	
532.6	20183	
532.79	22293	
532.99	22179	
533.18	20280	
533.38	21048	
533.58	21951	
533.77	22356	
533.97	20631	
534.16	21151	
534.36	22865	
534.55	21978	
534.75	21414	
534.95	20684	
535.14	23146	
535.34	22179	
535.53	20436	
535.73	21898	
535.92	23354	
536.12	22141	
536.31	20398	
536.51	21262	
536.71	22244	
536.9	21979	
537.1	20342	
537.29	20534	
537.49	22798	
537.68	21989	
537.88	21182	
538.07	20308	
538.27	22365	
538.46	23115	
538.66	20419	
538.86	20860	
539.05	22613	
539.25	22762	
539.44	21272	
539.64	20659	
539.83	22304	
540.03	22987	
540.22	20471	
540.42	20358	
540.61	22159	
540.81	22526	
541	20484	
541.2	21546	
541.39	21754	
541.59	22177	
541.78	21235	
541.98	20214	
542.18	21503	
542.37	21459	
542.57	20411	
542.76	21080	
542.96	21271	
543.15	21911	
543.35	20145	
543.54	19604	
543.74	21700	
543.93	21614	
544.13	19914	
544.32	20771	
544.52	21528	
544.71	20935	
544.91	19297	
545.1	20200	
545.3	21197	
545.49	21678	
545.69	19015	
545.88	19496	
546.08	22348	
546.27	21886	
546.47	20008	
546.66	19467	
546.86	21544	
547.05	22032	
547.24	19501	
547.44	19557	
547.63	20589	
547.83	21740	
548.02	19903	
548.22	19822	
548.41	20524	
548.61	21687	
548.8	19211	
549	19245	
549.19	20925	
549.39	21337	
549.58	18940	
549.78	19415	
549.97	21284	
550.17	20532	
550.36	19856	
550.55	20485	
550.75	20635	
550.94	21252	
551.14	18892	
551.33	18886	
551.53	20127	
551.72	21013	
551.92	19202	
552.11	18976	
552.31	20882	
552.5	20875	
552.69	20358	
552.89	18529	
553.08	20902	
553.28	20373	
553.47	18850	
553.67	19736	
553.86	21259	
554.06	19942	
554.25	18104	
554.44	18620	
554.64	21791	
554.83	21456	
555.03	18678	
555.22	18776	
555.42	20714	
555.61	20564	
555.8	18635	
556	18815	
556.19	19931	
556.39	20726	
556.58	18730	
556.78	18529	
556.97	20499	
557.16	20271	
557.36	19688	
557.55	18467	
557.75	19550	
557.94	21189	
558.13	18456	
558.33	18323	
558.52	20971	
558.72	19835	
558.91	18331	
559.1	18320	
559.3	19741	
559.49	19353	
559.69	17925	
559.88	18688	
560.07	20271	
560.27	20517	
560.46	18809	
560.66	18924	
560.85	19984	
561.04	19231	
561.24	18104	
561.43	17983	
561.63	19579	
561.82	19679	
562.01	19331	
562.21	18540	
562.4	19968	
562.59	21048	
562.79	18443	
562.98	18419	
563.18	20006	
563.37	21473	
563.56	19051	
563.76	18530	
563.95	19991	
564.14	19869	
564.34	18801	
564.53	18464	
564.73	20317	
564.92	20648	
565.11	19133	
565.31	18524	
565.5	21074	
565.69	20002	
565.89	18839	
566.08	19084	
566.27	20909	
566.47	21512	
566.66	19731	
566.85	18633	
567.05	20832	
567.24	20360	
567.44	18929	
567.63	19962	
567.82	21038	
568.02	20631	
568.21	18825	
568.4	19228	
568.6	20697	
568.79	20837	
568.98	18871	
569.18	19171	
569.37	21151	
569.56	22590	
569.76	19672	
569.95	20440	
570.14	21270	
570.34	21245	
570.53	19062	
570.72	19108	
570.91	21648	
571.11	21039	
571.3	19624	
571.49	20282	
571.69	21232	
571.88	20732	
572.07	20269	
572.27	20028	
572.46	20783	
572.65	21633	
572.85	19401	
573.04	19814	
573.23	22065	
573.43	21480	
573.62	19624	
573.81	20106	
574	21763	
574.2	21577	
574.39	20273	
574.58	20207	
574.78	22673	
574.97	22068	
575.16	20764	
575.36	21023	
575.55	22641	
575.74	22701	
575.93	20018	
576.13	21163	
576.32	22146	
576.51	22550	
576.71	20420	
576.9	21535	
577.09	22750	
577.28	22451	
577.48	20949	
577.67	20189	
577.86	22178	
578.05	22537	
578.25	20842	
578.44	20816	
578.63	22328	
578.83	23524	
579.02	20272	
579.21	21719	
579.4	22612	
579.6	22441	
579.79	20866	
579.98	22702	
580.17	23068	
580.37	23024	
580.56	20356	
580.75	21274	
580.94	23305	
581.14	23295	
581.33	21743	
581.52	20704	
581.71	22936	
581.91	23345	
582.1	20845	
582.29	20932	
582.48	22568	
582.68	22732	
582.87	21457	
583.06	21177	
583.25	23104	
583.45	22661	
583.64	21801	
583.83	22500	
584.02	22526	
584.21	23167	
584.41	21604	
584.6	21096	
584.79	22586	
584.98	23556	
585.18	20863	
585.37	20766	
585.56	22400	
585.75	23238	
585.94	20727	
586.14	21527	
586.33	23218	
586.52	22653	
586.71	20940	
586.91	20807	
587.1	21605	
587.29	22571	
587.48	20442	
587.67	20439	
587.87	22372	
588.06	22238	
588.25	21482	
588.44	20830	
588.63	21746	
588.83	22372	
589.02	20114	
589.21	19932	
589.4	21218	
589.59	21146	
589.78	18732	
589.98	18823	
590.17	20180	
590.36	20377	
590.55	17696	
590.74	18098	
590.94	21058	
591.13	19908	
591.32	18081	
591.51	17630	
591.7	20362	
591.89	20116	
592.09	18026	
592.28	18525	
592.47	19544	
592.66	21330	
592.85	18017	
593.05	18512	
593.24	19909	
593.43	20768	
593.62	18592	
593.81	18837	
594	20202	
594.19	20268	
594.39	18118	
594.58	18228	
594.77	20365	
594.96	20709	
595.15	18201	
595.34	18603	
595.54	20048	
595.73	19334	
595.92	17507	
596.11	18351	
596.3	20350	
596.49	19403	
596.68	18001	
596.88	18448	
597.07	20267	
597.26	19234	
597.45	17677	
597.64	18576	
597.83	19470	
598.02	19989	
598.22	17821	
598.41	18331	
598.6	19743	
598.79	19283	
598.98	17645	
599.17	18467	
599.36	19634	
599.55	20558	
599.74	19289	
599.94	19185	
600.13	19986	
600.32	19204	
600.51	17419	
600.7	17460	
600.89	20616	
601.08	20491	
601.27	17376	
601.47	18193	
601.66	19869	
601.85	20271	
602.04	17964	
602.23	18036	
602.42	19146	
602.61	19606	
602.8	17703	
602.99	17408	
603.18	19222	
603.37	19602	
603.57	17972	
603.76	18345	
603.95	20108	
604.14	19664	
604.33	17486	
604.52	17881	
604.71	19656	
604.9	19278	
605.09	18286	
605.28	18154	
605.47	20059	
605.66	19661	
605.86	18005	
606.05	17515	
606.24	19804	
606.43	18777	
606.62	17886	
606.81	18357	
607	19623	
607.19	19258	
607.38	17140	
607.57	17442	
607.76	18894	
607.95	18350	
608.14	17640	
608.33	18075	
608.52	18972	
608.72	19755	
608.91	17111	
609.1	16847	
609.29	18950	
609.48	18400	
609.67	17639	
609.86	16842	
610.05	18525	
610.24	18725	
610.43	16725	
610.62	16634	
610.81	19463	
611	19460	
611.19	16965	
611.38	17453	
611.57	18892	
611.76	19985	
611.95	16727	
612.14	16488	
612.33	18675	
612.52	18430	
612.71	17175	
612.9	16491	
613.09	18075	
613.28	20085	
613.47	16974	
613.66	17710	
613.85	18969	
614.04	18300	
614.24	16965	
614.43	16358	
614.62	19015	
614.81	18821	
615	17243	
615.19	17564	
615.38	18458	
615.57	18912	
615.76	17389	
615.95	18292	
616.14	19155	
616.33	18754	
616.52	17667	
616.71	17845	
616.9	18983	
617.09	18997	
617.28	17150	
617.47	18071	
617.66	18509	
617.85	18583	
618.04	18208	
618.22	17739	
618.41	19088	
618.6	19989	
618.79	17713	
618.98	17838	
619.17	20286	
619.36	18984	
619.55	17924	
619.74	18082	
619.93	19748	
620.12	19377	
620.31	18656	
620.5	18661	
620.69	20482	
620.88	20950	
621.07	19316	
621.26	18811	
621.45	20339	
621.64	20228	
621.83	18806	
622.02	18267	
622.21	20265	
622.4	20275	
622.59	19529	
622.78	19197	
622.97	19924	
623.16	20848	
623.35	18903	
623.54	18449	
623.72	20419	
623.91	20495	
624.1	19247	
624.29	18211	
624.48	21379	
624.67	20665	
624.86	19346	
625.05	18574	
625.24	21313	
625.43	20218	
625.62	20682	
625.81	18815	
626	20882	
626.19	20448	
626.38	19437	
626.56	18886	
626.75	20364	
626.94	21166	
627.13	19364	
627.32	18342	
627.51	20923	
627.7	21661	
627.89	18424	
628.08	19360	
628.27	20164	
628.46	20278	
628.65	18513	
628.83	18336	
629.02	20695	
629.21	20151	
629.4	18970	
629.59	19239	
629.78	20149	
629.97	20760	
630.16	19345	
630.35	18772	
630.54	21288	
630.72	21109	
630.91	18653	
631.1	19259	
631.29	20530	
631.48	20666	
631.67	19142	
631.86	18507	
632.05	20318	
632.24	20368	
632.42	18490	
632.61	18811	
632.8	20237	
632.99	19992	
633.18	19043	
633.37	19178	
633.56	20523	
633.75	20465	
633.93	18987	
634.12	18631	
634.31	21114	
634.5	20925	
634.69	18786	
634.88	18994	
635.07	20228	
635.25	20779	
635.44	19349	
635.63	19519	
635.82	20136	
636.01	19608	
636.2	18999	
636.39	18903	
636.57	20935	
636.76	20482	
636.95	18297	
637.14	19360	
637.33	20336	
637.52	21089	
637.7	18051	
637.89	18946	
638.08	20117	
638.27	21133	
638.46	18968	
638.65	19165	
638.83	20813	
639.02	19478	
639.21	18563	
639.4	19050	
639.59	19958	
639.78	19544	
639.96	17815	
640.15	17914	
640.34	19633	
640.53	19636	
640.72	17574	
640.91	17705	
641.09	18940	
641.28	19944	
641.47	17654	
641.66	18516	
641.85	19663	
642.03	19620	
642.22	18008	
642.41	17623	
642.6	18839	
642.79	18505	
642.97	17272	
643.16	17907	
643.35	18804	
643.54	18592	
643.73	17111	
643.91	17614	
644.1	18215	
644.29	18947	
644.48	16937	
644.67	16980	
644.85	18183	
645.04	18443	
645.23	16376	
645.42	16692	
645.6	17826	
645.79	18761	
645.98	16264	
646.17	15522	
646.36	17210	
646.54	17346	
646.73	16300	
646.92	15694	
647.11	17155	
647.29	17881	
647.48	15731	
647.67	15229	
647.86	18101	
648.05	18252	
648.23	15801	
648.42	16799	
648.61	17565	
648.8	17335	
648.98	15292	
649.17	15588	
649.36	16920	
649.55	16775	
649.73	15396	
649.92	16095	
650.11	16927	
650.3	17095	
650.48	15362	
650.67	15176	
650.86	17251	
651.05	16384	
651.23	15337	
651.42	15255	
651.61	16731	
651.79	16589	
651.98	15358	
652.17	15105	
652.36	16886	
652.54	16281	
652.73	15083	
652.92	14922	
653.11	16709	
653.29	16921	
653.48	14311	
653.67	15122	
653.85	16475	
654.04	17283	
654.23	15008	
654.42	14668	
654.6	15548	
654.79	16168	
654.98	13687	
655.16	14015	
655.35	14758	
655.54	14683	
655.73	13344	
655.91	13176	
656.1	15504	
656.29	14911	
656.47	13140	
656.66	14586	
656.85	15304	
657.03	15447	
657.22	13861	
657.41	14044	
657.59	15613	
657.78	15478	
657.97	13876	
658.16	14394	
658.34	16161	
658.53	16561	
658.72	15181	
658.9	15611	
659.09	15919	
659.28	15888	
659.46	14240	
659.65	14262	
659.84	15515	
660.02	16152	
660.21	14147	
660.4	14059	
660.58	16300	
660.77	15788	
660.96	14569	
661.14	13833	
661.33	16848	
661.52	16645	
661.7	13686	
661.89	16617	
662.08	15578	
662.26	15144	
662.45	13928	
662.64	14118	
662.82	16001	
663.01	15244	
663.2	13922	
663.38	14767	
663.57	15752	
663.75	15748	
663.94	14172	
664.13	15126	
664.31	15440	
664.5	15865	
664.69	14462	
664.87	14743	
665.06	15034	
665.25	15627	
665.43	15005	
665.62	14990	
665.8	15765	
665.99	15464	
666.18	14165	
666.36	14119	
666.55	15826	
666.74	15796	
666.92	13913	
667.11	14945	
667.29	15327	
667.48	15816	
667.67	14699	
667.85	14000	
668.04	15322	
668.22	15425	
668.41	14048	
668.6	14223	
668.78	15224	
668.97	15348	
669.15	14242	
669.34	13414	
669.53	15211	
669.71	15431	
669.9	13627	
670.08	14018	
670.27	15124	
670.46	15620	
670.64	14230	
670.83	14486	
671.01	14976	
671.2	15397	
671.38	13785	
671.57	13699	
671.76	15989	
671.94	16329	
672.13	13530	
672.31	14282	
672.5	15704	
672.69	15264	
672.87	13789	
673.06	14021	
673.24	15598	
673.43	15219	
673.61	14151	
673.8	13926	
673.98	15522	
674.17	15709	
674.36	14371	
674.54	14154	
674.73	15340	
674.91	15725	
675.1	14121	
675.28	13636	
675.47	15348	
675.65	15679	
675.84	13876	
676.03	14143	
676.21	15102	
676.4	14788	
676.58	14449	
676.77	14371	
676.95	16162	
677.14	15053	
677.32	13538	
677.51	13381	
677.69	15666	
677.88	14810	
678.06	13509	
678.25	13749	
678.44	15421	
678.62	14965	
678.81	13403	
678.99	14237	
679.18	15828	
679.36	15534	
679.55	13792	
679.73	14247	
679.92	15447	
680.1	15051	
680.29	14829	
680.47	13805	
680.66	14956	
680.84	15589	
681.03	13342	
681.21	14086	
681.4	14929	
681.58	14924	
681.77	13594	
681.95	13605	
682.14	15472	
682.32	15869	
682.51	14208	
682.69	13123	
682.88	14797	
683.06	15079	
683.25	13794	
683.43	14274	
683.62	15025	
683.8	15262	
683.99	14268	
684.17	13721	
684.36	15789	
684.54	14596	
684.73	12749	
684.91	12807	
685.1	14407	
685.28	13753	
685.46	12658	
685.65	12512	
685.83	13945	
686.02	13538	
686.2	12067	
686.39	12278	
686.57	13448	
686.76	14839	
686.94	12222	
687.13	12576	
687.31	14305	
687.5	14036	
687.68	12136	
687.86	13346	
688.05	15335	
688.23	13628	
688.42	13222	
688.6	12800	
688.79	14067	
688.97	14045	
689.16	13183	
689.34	12310	
689.52	14885	
689.71	15084	
689.89	13576	
690.08	12869	
690.26	14499	
690.45	14377	
690.63	13510	
690.81	13141	
691	14276	
691.18	14305	
691.37	12994	
691.55	14693	
691.74	13999	
691.92	15652	
692.1	12927	
692.29	12480	
692.47	14111	
692.66	13642	
692.84	12739	
693.02	12971	
693.21	13798	
693.39	14193	
693.58	13327	
693.76	12837	
693.94	15172	
694.13	15261	
694.31	12991	
694.5	13931	
694.68	14335	
694.86	14768	
695.05	13515	
695.23	13736	
695.42	15061	
695.6	16880	
695.78	14000	
695.97	13198	
696.15	15125	
696.34	14701	
696.52	12974	
696.7	13663	
696.89	14686	
697.07	14201	
697.25	13417	
697.44	14587	
697.62	14713	
697.81	14845	
697.99	13035	
698.17	13485	
698.36	13863	
698.54	14577	
698.72	13319	
698.91	12523	
699.09	14182	
699.28	14072	
699.46	12890	
699.64	12872	
699.83	13966	
700.01	14775	
700.19	13351	
700.38	12355	
700.56	14777	
700.74	14009	
700.93	12461	
701.11	13382	
701.29	14487	
701.48	15489	
701.66	12868	
701.84	12977	
702.03	14311	
702.21	15038	
702.39	12629	
702.58	13140	
702.76	14660	
702.94	14742	
703.13	12462	
703.31	14337	
703.49	14073	
703.68	15341	
703.86	12651	
704.04	13567	
704.23	14315	
704.41	14707	
704.59	12807	
704.78	13510	
704.96	15446	
705.14	14709	
705.33	12621	
705.51	13143	
705.69	14122	
705.87	14829	
706.06	13388	
706.24	12460	
706.42	14475	
706.61	14797	
706.79	13329	
706.97	12281	
707.16	13828	
707.34	14222	
707.52	13128	
707.7	12585	
707.89	13951	
708.07	13734	
708.25	13102	
708.44	13625	
708.62	13788	
708.8	14724	
708.98	13312	
709.17	12512	
709.35	14224	
709.53	14084	
709.72	12162	
709.9	12425	
710.08	14190	
710.26	14216	
710.45	13300	
710.63	12312	
710.81	13762	
710.99	13803	
711.18	12676	
711.36	12306	
711.54	13490	
711.72	14084	
711.91	12198	
712.09	11623	
712.27	13550	
712.45	14160	
712.64	12165	
712.82	11256	
713	12732	
713.18	12627	
713.37	11195	
713.55	11855	
713.73	13101	
713.91	11901	
714.1	10990	
714.28	10236	
714.46	12217	
714.64	11288	
714.83	9293	
715.01	9703.3	
715.19	10915	
715.37	10176	
715.55	9086.8	
715.74	9256.8	
715.92	11250	
716.1	9604.3	
716.28	10037	
716.47	9224.7	
716.65	10039	
716.83	10186	
717.01	9000.1	
717.19	8931.2	
717.38	11751	
717.56	9913.5	
717.74	9206.3	
717.92	8581.7	
718.1	10948	
718.29	10318	
718.47	8499.8	
718.65	9126.4	
718.83	11369	
719.01	11378	
719.2	8880.7	
719.38	9875.3	
719.56	11251	
719.74	12547	
719.92	9613.8	
720.11	10314	
720.29	11154	
720.47	10394	
720.65	8806.3	
720.83	9383.1	
721.02	10251	
721.2	9977	
721.38	9105.3	
721.56	8497.7	
721.74	9350.3	
721.92	9539.4	
722.11	9389.3	
722.29	9095.7	
722.47	10499	
722.65	9811.1	
722.83	8348.2	
723.01	8918.2	
723.2	9893.7	
723.38	10135	
723.56	7813	
723.74	8724.3	
723.92	9382.4	
724.1	10371	
724.29	8240.3	
724.47	9125.1	
724.65	9639.8	
724.83	9318.9	
725.01	8002.8	
725.19	8721.6	
725.37	9342.8	
725.56	9272.5	
725.74	7947.5	
725.92	8131.1	
726.1	9378.3	
726.28	9489.6	
726.46	8382.3	
726.64	8102.4	
726.83	9367.4	
727.01	9605.7	
727.19	7849.2	
727.37	8591.9	
727.55	9516.2	
727.73	9990	
727.91	7832.1	
728.09	7570.7	
728.28	9976.3	
728.46	10211	
728.64	8631.5	
728.82	8479.3	
729	10822	
729.18	10290	
729.36	8016.4	
729.54	9712.2	
729.72	11233	
729.91	9932.6	
730.09	9647.3	
730.27	8761.2	
730.45	9948.3	
730.63	10311	
730.81	9118.2	
730.99	8527.1	
731.17	10824	
731.35	9753.1	
731.53	8850.6	
731.71	8615.1	
731.9	10536	
732.08	10514	
732.26	8681.3	
732.44	8327.7	
732.62	10610	
732.8	10241	
732.98	8860.9	
733.16	8059.4	
733.34	10127	
733.52	9056.1	
733.7	8392.6	
733.88	8659.5	
734.07	9968.8	
734.25	9741.5	
734.43	7935.9	
734.61	9188.6	
734.79	10831	
734.97	9544.9	
735.15	8067.6	
735.33	8363.9	
735.51	9761.3	
735.69	9488.2	
735.87	9069.8	
736.05	8426	
736.23	9635	
736.41	9395.4	
736.59	8120.9	
736.77	8391.9	
736.95	9957.9	
737.13	9437.7	
737.32	7880.6	
737.5	8038.3	
737.68	10305	
737.86	9142.1	
738.04	7711.3	
738.22	9060.9	
738.4	9108	
738.58	9282.8	
738.76	8039.6	
738.94	7294.9	
739.12	9035	
739.3	9051.3	
739.48	8535.9	
739.66	8350.9	
739.84	9306	
740.02	9344.9	
740.2	7309.2	
740.38	7537.9	
740.56	9497.8	
740.74	8524.3	
740.92	7944.8	
741.1	7883.3	
741.28	9017.9	
741.46	8703.2	
741.64	7495.6	
741.82	7963.2	
742	8908.7	
742.18	8877.3	
742.36	7589.1	
742.54	7269.6	
742.72	9364.7	
742.9	8299.1	
743.08	7841	
743.26	6852.5	
743.44	9316.2	
743.62	9254.1	
743.8	7838.9	
743.98	7176.1	
744.16	8833.6	
744.34	8643.1	
744.52	7704.5	
744.7	7624.6	
744.88	8935.3	
745.06	8460.2	
745.24	7628.7	
745.42	7667.6	
745.6	8854.1	
745.78	8701.8	
745.96	6584.2	
746.14	6798.6	
746.32	9400.2	
746.5	8817.2	
746.68	7182.9	
746.86	6734.4	
747.03	9026.8	
747.21	7604.8	
747.39	7163.1	
747.57	6649.8	
747.75	8305.9	
747.93	8593.3	
748.11	6676.4	
748.29	6552.1	
748.47	9611.1	
748.65	8087.4	
748.83	7234.1	
749.01	7008.8	
749.19	8462.2	
749.37	7752.2	
749.55	6844.3	
749.73	6892.8	
749.91	8142.7	
750.09	7905.8	
750.26	6836.8	
750.44	6335.7	
750.62	8034.2	
750.8	7934.5	
750.98	6290	
751.16	6468.9	
751.34	8027.4	
751.52	7504.4	
751.7	7110.5	
751.88	6148	
752.06	8383.7	
752.24	8146.1	
752.42	6054.5	
752.59	6412.2	
752.77	7955	
752.95	8931.2	
753.13	6937.8	
753.31	6329.6	
753.49	7648.5	
753.67	7908.6	
753.85	6551.5	
754.03	6169.2	
754.21	7993.2	
754.38	8286.8	
754.56	6116.6	
754.74	5376.6	
754.92	7208.8	
755.1	7609.6	
755.28	5139.7	
755.46	4990.2	
755.64	7897.7	
755.82	7869.7	
755.99	4850.3	
756.17	4784.7	
756.35	5399.1	
756.53	6611.5	
756.71	3620.1	
756.89	4338.3	
757.07	6179.4	
757.25	5443.5	
757.42	4949.3	
757.6	5563	
757.78	6511.2	
757.96	5734.3	
758.14	4861.9	
758.32	4467.3	
758.5	5439.4	
758.67	6049.7	
758.85	4689.8	
759.03	4731.5	
759.21	6167.8	
759.39	5722.7	
759.57	4348.5	
759.75	5227.8	
759.92	6738.5	
760.1	6266.1	
760.28	5573.2	
760.46	5828.5	
760.64	6114.6	
760.82	5924.8	
760.99	5415.5	
761.17	4947.9	
761.35	6844.3	
761.53	5956.2	
761.71	5125.4	
761.89	5664.7	
762.06	6771.3	
762.24	6432	
762.42	5212.1	
762.6	5077.6	
762.78	6411.5	
762.96	6931	
763.13	5642.8	
763.31	5315.2	
763.49	7071.6	
763.67	6412.2	
763.85	6025.1	
764.02	6438.1	
764.2	7393.8	
764.38	6584.9	
764.56	5266	
764.74	5956.9	
764.91	7337.2	
765.09	6406.7	
765.27	4953.4	
765.45	4785.4	
765.63	7355.6	
765.8	7205.4	
765.98	4560.8	
766.16	4793.6	
766.34	6004	
766.52	5837.4	
766.69	5459.9	
766.87	4521.9	
767.05	6274.3	
767.23	6945.3	
767.41	4814.8	
767.58	4946.5	
767.76	6704.4	
767.94	6752.8	
768.12	4857.8	
768.29	5360.9	
768.47	6240.8	
768.65	6832	
768.83	4385.4	
769	5313.1	
769.18	5814.2	
769.36	6407.4	
769.54	5309	
769.72	4470	
769.89	6594.5	
770.07	6664.8	
770.25	4674.1	
770.43	5613.5	
770.6	7176.1	
770.78	7479.9	
770.96	4727.4	
771.14	5294.7	
771.31	6453.8	
771.49	5932.3	
771.67	4060.4	
771.85	4205.8	
772.02	5225.7	
772.2	5812.1	
772.38	4829.1	
772.55	4385.4	
772.73	6072.9	
772.91	5819.6	
773.09	4565.6	
773.26	4715.8	
773.44	5965.1	
773.62	5796.4	
773.8	4214	
773.97	3962.8	
774.15	5973.2	
774.33	5662.6	
774.5	4084.3	
774.68	4316.4	
774.86	6135	
775.04	5629.2	
775.21	4112.3	
775.39	4074.1	
775.57	5904.3	
775.74	6121.4	
775.92	3940.3	
776.1	3855.6	
776.27	5801.2	
776.45	6714.6	
776.63	4055	
776.81	3648.1	
776.98	5521.3	
777.16	6270.9	
777.34	4083	
777.51	4323.9	
777.69	5464.7	
777.87	5237.3	
778.04	4219.5	
778.22	4644.8	
778.4	5284.4	
778.57	5848.3	
778.75	3531.4	
778.93	3758	
779.1	5115.8	
779.28	4894.6	
779.46	3519.1	
779.64	3932.8	
779.81	5896.1	
779.99	6606.7	
780.17	4517.1	
780.34	4591.5	
780.52	5410.1	
780.69	5556.1	
780.87	4091.8	
781.05	3772.4	
781.22	5458.5	
781.4	5499.5	
781.58	3849.5	
781.75	3177.1	
781.93	5423	
782.11	4900.1	
782.28	4551.3	
782.46	3822.9	
782.64	4800.4	
782.81	5513.8	
782.99	3919.8	
783.17	3867.2	
783.34	5465.3	
783.52	4881.7	
783.69	3997.6	
783.87	4603.8	
784.05	4974.5	
784.22	4853.7	
784.4	4592.9	
784.58	4055	
784.75	5702.9	
784.93	4873.5	
785.1	3728	
785.28	4261.1	
785.46	5453.7	
785.63	4862.6	
785.81	3786	
785.99	3610.6	
786.16	4976.6	
786.34	5232.6	
786.51	3619.4	
786.69	3939.6	
786.87	4640.7	
787.04	5068.7	
787.22	3475.4	
787.39	4235.2	
787.57	4763.6	
787.75	5698.1	
787.92	4472.1	
788.1	4358.8	
788.27	4784.1	
788.45	4548.5	
788.63	4131.4	
788.8	3125.9	
788.98	5250.3	
789.15	4503.5	
789.33	3222.8	
789.5	3716.4	
789.68	5522.7	
789.86	5596.4	
790.03	4023.6	
790.21	3542.3	
790.38	5569.8	
790.56	4878.9	
790.73	3426.9	
790.91	3480.2	
791.09	4816.8	
791.26	5341.8	
791.44	3650.2	
791.61	3261	
791.79	4826.4	
791.96	4799.8	
792.14	3333.4	
792.32	2953.2	
792.49	4753.3	
792.67	4853.7	
792.84	3434.4	
793.02	3220.1	
793.19	5164.3	
793.37	5687.9	
793.54	2951.8	
793.72	3292.5	
793.89	5768.4	
794.07	4754	
794.25	3694.5	
794.42	3005.1	
794.6	5558.2	
794.77	5264.6	
794.95	3977.8	
795.12	3461.1	
795.3	4796.3	
795.47	5226.4	
795.65	3799.7	
795.82	3659	
796	4616.1	
796.17	6107	
796.35	3587.4	
796.52	4136.2	
796.7	5207.3	
796.87	5235.3	
797.05	3519.8	
797.22	4194.9	
797.4	5211.4	
797.57	5965.7	
797.75	3680.9	
797.92	3467.2	
798.1	5452.4	
798.27	4647.5	
798.45	3044	
798.62	3204.4	
798.8	4960.9	
798.97	5386.2	
799.15	3781.2	
799.32	3664.5	
799.5	4367	
799.67	4999.1	
799.85	3930.7	
800.02	2929.3	
800.2	4687.8	
800.37	4871.4	
800.55	4036.5	
800.72	3414.6	
800.9	5308.3	
801.07	5619.6	
801.25	4485.1	
801.42	3749.8	
801.6	5340.4	
801.77	5005.2	
801.95	3497.9	
802.12	3381.9	
802.29	5104.2	
802.47	5052.3	
802.64	3755.3	
802.82	2900.6	
802.99	4661.2	
803.17	5458.5	
803.34	3649.5	
803.52	3304.1	
803.69	5883.8	
803.87	4453	
804.04	3562.1	
804.21	3687.7	
804.39	5520	
804.56	4767	
804.74	3089	
804.91	3776.5	
805.09	4657.8	
805.26	4723.3	
805.44	3200.3	
805.61	3386	
805.78	5130.8	
805.96	5205.9	
806.13	3742.3	
806.31	3944.4	
806.48	4265.9	
806.66	4729.4	
806.83	3693.9	
807	3644.7	
807.18	4659.1	
807.35	4917.9	
807.53	3577.8	
807.7	2935.4	
807.87	5653.8	
808.05	4735.6	
808.22	3863.8	
808.4	2921.1	
808.57	4642.1	
808.74	4346.5	
808.92	3321.1	
809.09	4098	
809.27	4608.6	
809.44	5046.9	
809.61	2965.5	
809.79	3209.2	
809.96	5634.6	
810.14	5242.8	
810.31	2894.5	
810.48	3472	
810.66	4669.4	
810.83	5226.4	
811.01	3273.3	
811.18	3691.1	
811.35	5251	
811.53	4152.6	
811.7	3850.2	
811.87	3672	
812.05	4666	
812.22	4567.7	
812.39	3190.1	
812.57	3074	
812.74	4710.3	
812.92	5993.7	
813.09	3453.6	
813.26	3740.3	
813.44	5693.4	
813.61	4526	
813.78	2968.9	
813.96	3814	
814.13	4677.6	
814.3	4374.5	
814.48	4074.8	
814.65	3467.2	
814.82	5562.3	
815	4408.6	
815.17	3542.3	
815.34	4214.7	
815.52	4609.3	
815.69	4535.6	
815.87	3530	
816.04	3394.8	
816.21	4650.9	
816.38	4164.9	
816.56	3394.8	
816.73	3218	
816.9	5720	
817.08	5190.2	
817.25	3216	
817.42	3945.8	
817.6	4272.7	
817.77	4632.5	
817.94	3599	
818.12	3156.6	
818.29	4430.4	
818.46	6479.1	
818.64	3340.2	
818.81	3134.8	
818.98	4381.3	
819.16	6096.8	
819.33	3788.1	
819.5	3531.4	
819.67	4881	
819.85	5453.7	
820.02	3504.8	
820.19	3603.7	
820.37	4787.5	
820.54	4518.5	
820.71	3617.4	
820.88	4421.6	
821.06	4798.4	
821.23	4478.9	
821.4	3605.8	
821.58	3579.8	
821.75	5223.7	
821.92	4724.7	
822.09	2971.6	
822.27	3072	
822.44	4609.3	
822.61	4535.6	
822.79	2932.7	
822.96	5357.5	
823.13	4978.6	
823.3	4323.9	
823.48	3344.3	
823.65	3042.6	
823.82	5230.5	
823.99	4285.7	
824.17	4199	
824.34	3142.9	
824.51	5890.6	
824.68	4653	
824.86	3217.4	
825.03	3583.3	
825.2	4575.8	
825.37	5499.5	
825.55	3204.4	
825.72	3495.2	
825.89	5887.2	
826.06	5560.9	
826.24	3416	
826.41	3430.3	
826.58	5528.8	
826.75	4852.3	
826.92	2762	
827.1	3016	
827.27	7250.5	
827.44	5871.5	
827.61	3278.1	
827.79	3841.3	
827.96	4476.2	
828.13	4650.9	
828.3	3423.5	
828.47	2908.1	
828.65	4976.6	
828.82	4799.8	
828.99	4295.3	
829.16	3816	
829.34	5134.9	
829.51	4962.2	
829.68	3472	
829.85	3597.6	
830.02	5463.3	
830.2	5165.7	
830.37	2762	
830.54	4128	
830.71	5811.5	
830.88	4629.1	
831.05	2764.1	
831.23	3190.7	
831.4	5659.9	
831.57	6123.4	
831.74	3285.6	
831.91	2893.1	
832.09	4963.6	
832.26	5169.8	
832.43	3346.4	
832.6	3762.1	
832.77	4835.3	
832.94	5506.3	
833.12	2756.6	
833.29	3243.3	
833.46	4991.6	
833.63	6255.2	
833.8	3668.6	
833.97	3260.4	
834.15	5214.8	
834.32	5011.4	
834.49	3560.1	
834.66	3532.7	
834.83	5246.2	
835	4470.7	
835.17	3275.4	
835.35	3212.6	
835.52	5107	
835.69	4997	
835.86	3359.4	
836.03	2824.8	
836.2	5134.9	
836.37	4787.5	
836.55	3297.2	
836.72	3145	
836.89	4823	
837.06	5237.3	
837.23	3437.9	
837.4	3667.2	
837.57	5821.7	
837.75	6265.4	
837.92	3057.6	
838.09	3234.4	
838.26	4778.6	
838.43	5328.8	
838.6	3505.4	
838.77	3195.5	
838.94	6023.1	
839.11	5780.1	
839.29	3375.7	
839.46	2711.5	
839.63	5066	
839.8	4898.1	
839.97	3241.3	
840.14	3250.8	
840.31	4970.4	
840.48	5184.1	
840.65	2751.1	
840.82	3224.2	
841	5161.6	
841.17	4995.7	
841.34	2953.2	
841.51	3078.1	
841.68	5059.8	
841.85	4801.8	
842.02	3118.4	
842.19	2641.2	
842.36	4971.1	
842.53	4926.7	
842.7	2997.5	
842.87	3583.3	
843.05	6331.6	
843.22	4891.9	
843.39	2880.8	
843.56	3117	
843.73	4758.1	
843.9	5195	
844.07	4697.4	
844.24	3913.7	
844.41	7028.6	
844.58	4515.8	
844.75	2908.8	
844.92	3121.8	
845.09	5092.6	
845.26	5097.4	
845.43	2972.3	
845.6	3196.2	
845.77	5100.1	
845.94	4881	
846.12	3256.3	
846.29	3488.4	
846.46	5362.9	
846.63	5051	
846.8	3032.4	
846.97	3536.2	
847.14	5480.4	
847.31	5069.4	
847.48	3308.8	
847.65	3692.5	
847.82	5292.6	
847.99	5248.3	
848.16	3951.9	
848.33	3630.4	
848.5	4681.7	
848.67	5524.1	
848.84	2928.6	
849.01	3118.4	
849.18	4723.3	
849.35	4416.8	
849.52	3710.9	
849.69	2942.9	
849.86	5268.1	
850.03	5384.8	
850.2	2990	
850.37	3596.2	
850.54	5423	
850.71	4860.5	
850.88	3556	
851.05	2950.4	
851.22	4947.2	
851.39	5536.3	
851.56	2809.8	
851.73	3394.2	
851.9	4579.9	
852.07	5330.9	
852.24	3304.1	
852.41	2938.8	
852.58	5023	
852.75	4554	
852.92	3255.6	
853.09	2916.3	
853.26	4683.7	
853.43	5449	
853.6	2957.3	
853.77	2540.8	
853.94	5554.8	
854.11	4535.6	
854.28	4378.6	
854.44	3213.9	
854.61	5905	
854.78	5307.7	
854.95	2954.5	
855.12	3704.8	
855.29	4212	
855.46	5661.3	
855.63	2977.1	
855.8	4021.5	
855.97	4711	
856.14	5368.4	
856.31	4094.6	
856.48	3194.8	
856.65	4830.5	
856.82	4468	
856.99	2848.7	
857.16	3229.6	
857.33	6010.8	
857.49	4877.6	
857.66	3179.8	
857.83	3379.8	
858	4846.9	
858.17	4982.7	
858.34	2796.2	
858.51	2975	
858.68	5631.2	
858.85	5618.9	
859.02	3444.7	
859.19	3594.2	
859.36	4555.4	
859.52	4574.5	
859.69	2987.3	
859.86	3485.6	
860.03	4554	
860.2	5561.6	
860.37	2752.5	
860.54	3012.6	
860.71	5201.8	
860.88	5613.5	
861.05	3292.5	
861.21	3711.6	
861.38	5572.5	
861.55	4381.3	
861.72	2699.2	
861.89	3272.7	
862.06	5386.8	
862.23	5647.6	
862.4	2900.6	
862.56	3101.3	
862.73	5145.9	
862.9	4924.7	
863.07	3442.6	
863.24	2706	
863.41	4468.7	
863.58	4495.3	
863.75	3027.6	
863.91	3439.2	
864.08	5531.6	
864.25	5172.5	
864.42	3687.7	
864.59	4057	
864.76	5803.9	
864.93	4515.1	
865.09	2901.3	
865.26	3149.8	
865.43	5496.1	
865.6	5748	
865.77	2691	
865.94	2907.4	
866.1	5444.9	
866.27	5203.2	
866.44	4407.2	
866.61	2772.3	
866.78	4855.1	
866.95	5229.1	
867.11	2927.2	
867.28	2688.3	
867.45	5408.7	
867.62	4584	
867.79	3367.5	
867.96	2933.4	
868.12	4458.4	
868.29	5306.3	
868.46	2949.1	
868.63	3910.9	
868.8	5347.2	
868.97	5205.3	
869.13	3104	
869.3	3142.9	
869.47	5142.4	
869.64	5335.6	
869.81	2973	
869.97	2980.5	
870.14	5051.7	
870.31	5575.3	
870.48	2916.3	
870.65	3753.9	
870.81	4778.6	
870.98	4812.7	
871.15	3322.5	
871.32	3042.6	
871.48	5130.8	
871.65	5623	
871.82	2920.4	
871.99	3254.9	
872.16	5948	
872.32	5468.8	
872.49	2971.6	
872.66	2989.4	
872.83	5266.7	
872.99	4614.8	
873.16	3371	
873.33	2936.1	
873.5	4995.7	
873.67	4954.7	
873.83	3120.4	
874	3933.5	
874.17	5060.5	
874.34	5861.3	
874.5	3741.6	
874.67	3641.3	
874.84	5555.5	
875.01	4415.4	
875.17	4113.7	
875.34	2968.2	
875.51	5020.9	
875.68	5905	
875.84	3515.7	
876.01	4197	
876.18	5296	
876.34	5190.2	
876.51	2960.7	
876.68	2897.2	
876.85	4771.8	
877.01	5452.4	
877.18	4078.9	
877.35	2947.7	
877.52	4963.6	
877.68	4449.6	
877.85	2929.3	
878.02	2957.9	
878.18	4895.3	
878.35	4661.9	
878.52	2404.3	
878.69	3249.4	
878.85	5339.1	
879.02	5180	
879.19	4150.6	
879.35	3222.1	
879.52	5212.1	
879.69	5306.3	
879.86	2601.6	
880.02	3340.2	
880.19	4858.5	
880.36	5825.8	
880.52	3335.5	
880.69	3506.1	
880.86	5300.8	
881.02	5347.2	
881.19	3229	
881.36	3204.4	
881.52	5167.7	
881.69	4680.3	
881.86	3194.8	
882.02	3129.3	
882.19	5483.1	
882.36	6239.5	
882.52	3041.9	
882.69	4048.2	
882.86	4998.4	
883.02	4954.7	
883.19	3526.6	
883.36	3397.6	
883.52	5345.2	
883.69	5957.5	
883.86	3044.6	
884.02	2717.7	
884.19	5188.9	
884.36	4876.2	
884.52	3313.6	
884.69	3148.4	
884.86	4717.8	
885.02	5719.3	
885.19	3245.3	
885.36	3326.6	
885.52	4873.5	
885.69	5064.6	
885.86	4220.9	
886.02	3703.4	
886.19	5252.4	
886.35	4797	
886.52	3252.9	
886.69	4020.8	
886.85	4519.9	
887.02	5489.9	
887.19	5489.9	
887.35	5489.9	
887.52	5489.9	
887.68	5489.9	
887.85	5489.9	
888.02	5489.9	
888.18	5489.9	
888.35	5489.9	
888.51	5489.9	
888.68	5489.9	
888.85	5489.9	
889.01	5489.9	
889.18	5489.9	
889.35	5489.9	
889.51	5489.9	
889.68	5489.9	
889.84	5489.9	
890.01	5489.9	
890.17	5489.9	
890.34	5489.9	
890.51	5489.9	
890.67	5489.9	
890.84	5489.9	
891	5489.9	
891.17	5489.9	
891.34	5489.9	
891.5	5489.9	
891.67	5489.9	
891.83	5489.9	
892	5489.9	
892.16	5489.9	
892.33	5489.9	
892.5	5489.9	
892.66	5489.9	
892.83	5489.9	
892.99	5489.9	
893.16	5489.9	
893.32	5489.9	
893.49	5489.9	
893.65	5489.9	
893.82	5489.9	
893.99	5489.9	
894.15	5489.9	
894.32	5489.9	
894.48	5489.9	
894.65	5489.9	
894.81	5489.9	
894.98	5489.9	
895.14	5489.9	
895.31	5489.9	
895.47	5489.9	
895.64	5489.9	
895.81	5489.9	
895.97	5489.9	
896.14	5489.9	
896.3	5489.9	
896.47	5489.9	
896.63	5489.9	
896.8	5489.9	
896.96	5489.9	
897.13	5489.9	
897.29	5489.9	
897.46	5489.9	
897.62	5489.9	
897.79	5489.9	
897.95	5489.9	
898.12	5489.9	
898.28	5489.9	
898.45	5489.9	
898.61	5489.9	
898.78	5489.9	
898.94	5489.9	
899.11	5489.9	
899.27	5489.9	
899.44	5489.9	
899.6	5489.9	
899.77	5489.9	
899.93	5489.9	
900.1	5489.9	
900.26	5489.9	
900.43	5489.9	
900.59	5489.9	
900.76	5489.9	
900.92	5489.9	
901.09	5489.9	
901.25	5489.9	
901.42	5489.9	
901.58	5489.9	
901.75	5489.9	
901.91	5489.9	
902.07	5489.9	
902.24	5489.9	
902.4	5489.9	
902.57	5489.9	
902.73	5489.9	
902.9	5489.9	
903.06	5489.9	
903.23	5489.9	
903.39	5489.9	
903.56	5489.9	
903.72	5489.9	
903.88	5489.9	
904.05	5489.9	
904.21	5489.9	
904.38	5489.9	
904.54	5489.9	
904.71	5489.9	
904.87	5489.9	
905.03	5489.9	
905.2	5489.9	
905.36	5489.9	
905.53	5489.9	
905.69	5489.9	
905.86	5489.9	
906.02	5489.9	
906.18	5489.9	
906.35	5489.9	
906.51	5489.9	
906.68	5489.9	
906.84	5489.9	
907.01	5489.9	
907.17	5489.9	
907.33	5489.9	
907.5	5489.9	
907.66	5489.9	
907.83	5489.9	
907.99	5489.9	
908.15	5489.9	
908.32	5489.9	
908.48	5489.9	
908.65	5489.9	
908.81	5489.9	
908.97	5489.9	
909.14	5489.9	
909.3	5489.9	
909.47	5489.9	
909.63	5489.9	
909.79	5489.9	
909.96	5489.9	
910.12	5489.9	
910.28	5489.9	
910.45	5489.9	
910.61	5489.9	
910.78	5489.9	
910.94	5489.9	
911.1	5489.9	
911.27	5489.9	
911.43	5489.9	
911.59	5489.9	
911.76	5489.9	
911.92	5489.9	
912.08	5489.9	
912.25	5489.9	
912.41	5489.9	
912.57	5489.9	
912.74	5489.9	
912.9	5489.9	
913.07	5489.9	
913.23	5489.9	
913.39	5489.9	
913.56	5489.9	
913.72	5489.9	
913.88	5489.9	
914.05	5489.9	
914.21	5489.9	
914.37	5489.9	
914.54	5489.9	
914.7	5489.9	
914.86	5489.9	
915.03	5489.9	
915.19	5489.9	
