Wavelength	Intensities	
nm	a.u.	
179.22	1908.5	
179.44	1907	
179.65	1910.1	
179.86	1903.9	
180.08	1981.1	
180.29	5125.4	
180.51	3573.7	
180.72	5743.2	
180.94	6737.1	
181.15	3325.9	
181.37	3263.8	
181.58	5649	
181.79	5987.6	
182.01	3444.7	
182.22	3713	
182.44	5825.1	
182.65	4844.1	
182.87	4676.9	
183.08	4117.1	
183.29	6195.1	
183.51	5107	
183.72	3741	
183.94	5539.1	
184.15	5511.1	
184.37	5545.9	
184.58	3348.4	
184.79	4534.2	
185.01	5094	
185.22	5856.5	
185.44	4826.4	
185.65	4011.3	
185.86	5388.9	
186.08	5002.5	
186.29	3182.5	
186.51	3461.1	
186.72	5118.6	
186.94	6038.8	
187.15	4014.7	
187.36	4181.3	
187.58	8019.8	
187.79	5634	
188.01	4352.6	
188.22	6802.7	
188.43	6788.3	
188.65	5881.1	
188.86	3422.2	
189.08	4148.5	
189.29	5294	
189.5	5362.3	
189.72	3824.2	
189.93	3941	
190.15	6119.3	
190.36	7382.9	
190.57	4228.4	
190.79	4100	
191	6150.1	
191.22	6158.9	
191.43	4242.7	
191.64	3450.1	
191.86	6455.9	
192.07	6160.3	
192.29	3646.7	
192.5	3920.5	
192.71	6173.9	
192.93	5276.3	
193.14	3831.7	
193.35	3900	
193.57	5331.5	
193.78	6139.1	
194	3081.5	
194.21	3824.9	
194.42	5085.8	
194.64	5603.9	
194.85	4184.7	
195.07	4863.2	
195.28	5635.3	
195.49	4833.9	
195.71	5115.1	
195.92	3627	
196.13	5771.9	
196.35	5900.2	
196.56	5521.3	
196.78	4195.6	
196.99	7225.2	
197.2	6788.3	
197.42	4814.8	
197.63	4223.6	
197.84	4941.1	
198.06	5703.6	
198.27	3853.6	
198.48	5181.4	
198.7	5314.5	
198.91	5437.4	
199.13	4219.5	
199.34	4243.4	
199.55	5940.5	
199.77	4816.1	
199.98	3712.3	
200.19	4272.1	
200.41	5428.5	
200.62	5102.9	
200.83	4358.8	
201.05	4683	
201.26	5421.7	
201.47	5140.4	
201.69	3786.7	
201.9	3568.2	
202.11	5502.2	
202.33	6590.4	
202.54	3999.7	
202.76	4463.9	
202.97	5631.9	
203.18	5608	
203.4	4339.6	
203.61	4234.5	
203.82	5563	
204.04	5211.4	
204.25	4240	
204.46	4118.5	
204.68	5550	
204.89	5819.6	
205.1	4126.7	
205.32	3554.6	
205.53	5973.9	
205.74	6099.5	
205.96	3042.6	
206.17	4353.3	
206.38	5911.8	
206.6	6045.6	
206.81	4826.4	
207.02	3913.7	
207.24	5777.3	
207.45	6219.7	
207.66	4024.3	
207.88	3377.1	
208.09	5732.9	
208.3	5574.6	
208.52	3611.9	
208.73	4090.5	
208.94	5533.6	
209.15	6242.2	
209.37	4029	
209.58	4143.7	
209.79	6065.4	
210.01	5293.3	
210.22	3181.2	
210.43	3332.7	
210.65	5513.8	
210.86	5995.1	
211.07	4009.9	
211.29	3682.2	
211.5	5878.4	
211.71	5440.8	
211.93	3680.9	
212.14	3704.8	
212.35	5477	
212.56	5726.8	
212.78	4191.5	
212.99	3500.7	
213.2	6536.4	
213.42	5291.3	
213.63	3788.1	
213.84	4074.8	
214.06	4875.5	
214.27	4970.4	
214.48	4012	
214.69	4300.7	
214.91	6217.6	
215.12	6319.3	
215.33	4298.7	
215.55	4764.9	
215.76	6826.6	
215.97	5861.3	
216.18	4093.9	
216.4	4048.8	
216.61	5133.6	
216.82	6048.3	
217.04	3696.6	
217.25	3837.2	
217.46	6217	
217.67	6003.3	
217.89	3244.7	
218.1	3378.5	
218.31	5585.5	
218.53	5698.1	
218.74	3805.8	
218.95	3773.7	
219.16	5514.5	
219.38	6531	
219.59	3762.1	
219.8	4489.1	
220.01	7248.4	
220.23	5526.1	
220.44	4917.2	
220.65	3664.5	
220.87	5575.9	
221.08	6231.3	
221.29	3405.1	
221.5	4614.8	
221.72	7595.2	
221.93	5181.4	
222.14	4300.7	
222.35	4986.8	
222.57	5542.5	
222.78	5855.1	
222.99	3979.2	
223.2	4332.1	
223.42	5924.8	
223.63	5980.8	
223.84	3046.7	
224.05	3030.3	
224.27	7073.7	
224.48	6475.7	
224.69	5185.5	
224.9	4201.1	
225.12	5726.8	
225.33	5504.3	
225.54	3386.7	
225.75	3687	
225.97	5067.4	
226.18	5365.7	
226.39	4001	
226.6	3743	
226.82	5274.2	
227.03	5186.8	
227.24	4199	
227.45	3478.1	
227.67	5917.3	
227.88	6550.1	
228.09	4731.5	
228.3	4721.3	
228.52	6000.5	
228.73	5511.1	
228.94	3924.6	
229.15	3439.9	
229.36	5462.6	
229.58	5394.3	
229.79	3926	
230	4632.5	
230.21	6575.3	
230.43	5700.9	
230.64	4176.5	
230.85	4350.6	
231.06	5892.7	
231.28	5976.7	
231.49	3439.2	
231.7	4132.8	
231.91	5874.3	
232.12	5552	
232.34	3543.7	
232.55	4124.6	
232.76	6223.1	
232.97	5735.7	
233.18	3695.2	
233.4	4132.8	
233.61	5823.1	
233.82	5303.6	
234.03	3870	
234.25	3794.9	
234.46	7749.5	
234.67	5560.9	
234.88	4274.8	
235.09	3751.2	
235.31	5924.8	
235.52	5412.8	
235.73	4096.6	
235.94	3547.1	
236.15	5177.9	
236.37	6761.7	
236.58	3721.8	
236.79	4019.5	
237	5890	
237.21	5003.2	
237.43	4356.7	
237.64	3414	
237.85	10249	
238.06	5098.8	
238.27	4355.3	
238.48	3472.7	
238.7	5868.8	
238.91	5397.1	
239.12	4025.6	
239.33	4041.3	
239.54	5132.2	
239.76	5405.3	
239.97	3991.5	
240.18	3991.5	
240.39	6932.4	
240.6	5885.2	
240.82	4180.6	
241.03	3442.6	
241.24	5537.7	
241.45	6425.8	
241.66	3629	
241.87	4360.8	
242.09	6307.1	
242.3	6604	
242.51	4431.8	
242.72	4067.3	
242.93	6095.4	
243.14	5527.5	
243.36	4713.7	
243.57	5046.2	
243.78	6396.5	
243.99	5943.9	
244.2	4091.2	
244.41	3698.6	
244.63	5070.1	
244.84	5871.5	
245.05	4327.4	
245.26	4016.7	
245.47	5831.9	
245.68	6123.4	
245.9	5425.8	
246.11	4188.1	
246.32	5362.3	
246.53	5786.9	
246.74	6546.7	
246.95	3382.6	
247.16	5011.4	
247.38	5558.2	
247.59	3343	
247.8	4033.1	
248.01	5236	
248.22	5420.3	
248.43	3661.1	
248.64	3943.7	
248.86	4900.8	
249.07	5238.7	
249.28	3517.7	
249.49	4166.9	
249.7	6135	
249.91	6260	
250.12	3344.3	
250.34	3431	
250.55	5631.9	
250.76	5588.2	
250.97	4207.9	
251.18	4214.7	
251.39	6293.4	
251.6	5681.1	
251.81	4305.5	
252.03	4240	
252.24	5236.7	
252.45	6014.2	
252.66	3504.1	
252.87	4513.7	
253.08	5574.6	
253.29	7443	
253.5	3506.8	
253.72	4962.2	
253.93	5375.9	
254.14	6562.4	
254.35	3814	
254.56	3947.1	
254.77	5828.5	
254.98	5098.1	
255.19	3767.6	
255.41	4873.5	
255.62	5607.3	
255.83	6220.4	
256.04	4370.4	
256.25	4250.2	
256.46	6848.4	
256.67	5225.7	
256.88	4151.9	
257.09	4666	
257.31	5208	
257.52	5223	
257.73	5255.1	
257.94	3845.4	
258.15	5367	
258.36	5569.1	
258.57	4812	
258.78	3044	
258.99	6171.9	
259.2	5368.4	
259.41	3827.7	
259.63	3932.8	
259.84	6466.1	
260.05	6929.6	
260.26	5108.3	
260.47	3751.9	
260.68	6133	
260.89	5444.2	
261.1	4747.9	
261.31	3623.5	
261.52	6122.1	
261.73	6569.2	
261.95	5014.1	
262.16	4433.2	
262.37	6277.7	
262.58	6430.6	
262.79	4930.1	
263	3909.6	
263.21	5451.7	
263.42	5085.8	
263.63	3942.3	
263.84	3886.4	
264.05	6087.9	
264.26	6475.7	
264.47	5080.3	
264.69	4350.6	
264.9	6272.9	
265.11	5702.9	
265.32	3708.2	
265.53	3790.1	
265.74	5702.2	
265.95	4986.8	
266.16	4175.8	
266.37	4508.3	
266.58	5699.5	
266.79	5364.3	
267	3760.1	
267.21	3566.9	
267.42	5080.3	
267.63	5500.8	
267.84	3986.7	
268.06	3401	
268.27	6012.2	
268.48	6322.1	
268.69	3921.2	
268.9	4653	
269.11	6217	
269.32	4992.9	
269.53	3991.5	
269.74	3749.1	
269.95	5918.6	
270.16	4872.8	
270.37	4066.6	
270.58	4725.3	
270.79	5345.2	
271	6056.5	
271.21	4305.5	
271.42	4059.1	
271.63	5700.2	
271.84	5173.9	
272.05	3155.9	
272.26	3657	
272.47	5554.1	
272.68	5748.6	
272.89	3833.8	
273.11	4528.7	
273.32	5338.4	
273.53	6546	
273.74	4422.9	
273.95	4265.2	
274.16	6275.7	
274.37	5692	
274.58	4370.4	
274.79	3545.7	
275	5672.2	
275.21	6181.5	
275.42	5410.7	
275.63	4566.3	
275.84	5803.9	
276.05	7346.7	
276.26	4203.1	
276.47	3980.6	
276.68	5310.4	
276.89	6596.5	
277.1	4604.5	
277.31	3508.2	
277.52	5780.1	
277.73	5966.4	
277.94	3525.9	
278.15	3914.4	
278.36	5772.5	
278.57	5228.5	
278.78	3836.5	
278.99	4424.3	
279.2	5201.2	
279.41	5122	
279.62	5091.3	
279.83	3580.5	
280.04	6909.8	
280.25	5055.8	
280.46	5091.9	
280.67	4074.8	
280.88	5146.5	
281.09	6312.5	
281.3	4311	
281.51	5437.4	
281.72	5248.3	
281.93	6083.1	
282.14	3730	
282.35	4078.2	
282.56	6048.3	
282.77	6034.7	
282.98	3845.4	
283.19	4757.4	
283.4	7464.2	
283.61	5560.2	
283.82	3534.1	
284.03	5083.7	
284.24	5669.5	
284.45	6247	
284.66	5005.2	
284.87	4881.7	
285.08	6115.2	
285.29	6313.9	
285.5	3411.2	
285.71	3973.7	
285.92	6225.1	
286.12	6929.6	
286.33	5004.6	
286.54	3953.9	
286.75	6068.1	
286.96	5425.8	
287.17	3541.6	
287.38	4859.8	
287.59	5218.9	
287.8	5035.3	
288.01	3972.4	
288.22	4596.3	
288.43	6087.2	
288.64	5020.9	
288.85	4702.1	
289.06	4489.8	
289.27	5992.4	
289.48	6545.3	
289.69	4981.3	
289.9	4569	
290.11	6212.9	
290.32	5267.4	
290.53	4782.7	
290.74	4433.2	
290.94	5977.3	
291.15	6092	
291.36	3831.7	
291.57	4601.1	
291.78	5264	
291.99	4980	
292.2	3607.2	
292.41	4379.9	
292.62	6160.3	
292.83	5907.7	
293.04	5422.3	
293.25	3650.2	
293.46	5360.2	
293.67	6167.1	
293.88	3745.7	
294.09	3667.9	
294.29	5044.8	
294.5	5754.1	
294.71	4070	
294.92	3859.1	
295.13	5332.2	
295.34	6753.5	
295.55	3422.8	
295.76	3509.5	
295.97	5962.3	
296.18	6760.3	
296.39	3540.3	
296.6	3809.9	
296.81	5646.9	
297.01	6015.6	
297.22	3964.2	
297.43	3767.6	
297.64	5222.3	
297.85	5137.7	
298.06	3134.8	
298.27	3395.5	
298.48	5631.9	
298.69	5270.8	
298.9	4108.9	
299.11	3691.1	
299.31	5044.8	
299.52	5065.3	
299.73	4399	
299.94	4303.5	
300.15	5500.2	
300.36	5186.1	
300.57	4296	
300.78	4308.2	
300.99	5384.1	
301.2	5707.7	
301.4	3758	
301.61	4110.3	
301.82	5950	
302.03	5988.9	
302.24	4575.8	
302.45	3538.9	
302.66	5899.5	
302.87	6433.4	
303.08	3840.6	
303.29	5163.6	
303.49	5255.8	
303.7	5584.8	
303.91	3373.7	
304.12	4971.8	
304.33	5048.9	
304.54	5635.3	
304.75	3767.6	
304.96	3549.8	
305.16	5907	
305.37	6692.8	
305.58	3275.4	
305.79	3483.6	
306	5922.7	
306.21	4938.3	
306.42	3777.1	
306.63	5844.2	
306.83	5435.3	
307.04	6199.2	
307.25	4167.6	
307.46	4113	
307.67	4737	
307.88	6124.8	
308.09	3717.1	
308.29	3909.6	
308.5	5687.9	
308.71	6181.5	
308.92	3999.7	
309.13	3594.9	
309.34	5377.3	
309.55	5456.5	
309.75	4713.7	
309.96	4317.8	
310.17	5992.4	
310.38	5325.4	
310.59	4613.4	
310.8	3563.5	
311.01	5348.6	
311.21	5409.4	
311.42	3573	
311.63	3749.8	
311.84	5273.5	
312.05	5724.8	
312.26	4223.6	
312.46	4651.6	
312.67	5390.3	
312.88	5118.6	
313.09	3666.5	
313.3	3555.3	
313.51	6483.2	
313.71	6761	
313.92	3636.5	
314.13	3889.1	
314.34	5769.8	
314.55	5457.2	
314.76	4742.4	
314.96	4121.9	
315.17	5613.5	
315.38	5976.7	
315.59	3675.4	
315.8	3478.8	
316.01	6522.1	
316.21	6445.6	
316.42	3491.1	
316.63	4070	
316.84	5449.6	
317.05	6320.7	
317.26	4343.7	
317.46	3796.3	
317.67	5474.9	
317.88	5986.9	
318.09	4665.3	
318.3	3382.6	
318.5	5285.1	
318.71	5872.9	
318.92	6052.4	
319.13	4291.2	
319.34	6049	
319.54	6232.7	
319.75	3393.5	
319.96	3268.6	
320.17	5967.1	
320.38	6165.1	
320.58	3344.3	
320.79	3982.6	
321	6200.6	
321.21	6308.4	
321.42	4027.7	
321.62	3343.7	
321.83	5203.2	
322.04	5596.4	
322.25	3814	
322.46	3674.7	
322.66	5733.6	
322.87	5815.5	
323.08	4502.8	
323.29	3617.4	
323.5	6723.5	
323.7	5147.2	
323.91	5027.8	
324.12	4515.8	
324.33	5617.6	
324.53	5862	
324.74	4328	
324.95	4610	
325.16	4917.2	
325.37	5367	
325.57	3687	
325.78	3763.5	
325.99	5618.9	
326.2	4994.3	
326.4	5198.4	
326.61	3413.3	
326.82	5525.4	
327.03	5638.7	
327.24	5263.3	
327.44	5038	
327.65	5874.3	
327.86	4671.4	
328.07	4326.7	
328.27	3521.1	
328.48	6275.7	
328.69	5099.4	
328.9	5347.2	
329.1	3950.5	
329.31	5420.3	
329.52	6407.4	
329.73	3583.9	
329.93	4160.8	
330.14	5530.2	
330.35	5851	
330.56	6102.3	
330.76	4564.2	
330.97	5354.1	
331.18	5780.7	
331.39	4075.5	
331.59	3280.2	
331.8	6213.5	
332.01	6350.1	
332.22	3737.5	
332.42	4380.6	
332.63	5680.4	
332.84	5326.8	
333.05	4134.2	
333.25	3719.8	
333.46	5390.3	
333.67	5612.8	
333.88	3821.5	
334.08	4285	
334.29	7691.5	
334.5	6280.4	
334.7	3580.5	
334.91	5313.1	
335.12	5134.3	
335.33	6025.8	
335.53	4021.5	
335.74	6112.5	
335.95	5324.7	
336.16	5175.9	
336.36	4016.7	
336.57	4703.5	
336.78	5086.5	
336.98	6193.7	
337.19	5059.2	
337.4	4009.9	
337.61	6758.3	
337.81	5096	
338.02	3758.7	
338.23	4843.4	
338.43	6433.4	
338.64	5210.7	
338.85	3667.2	
339.05	4833.9	
339.26	6423.8	
339.47	4997	
339.68	3662.5	
339.88	5530.2	
340.09	5812.1	
340.3	6041.5	
340.5	4332.8	
340.71	3291.1	
340.92	4995.7	
341.13	6281.8	
341.33	3600.3	
341.54	4353.3	
341.75	5827.8	
341.95	5481	
342.16	4172.4	
342.37	4509.6	
342.57	5117.2	
342.78	5495.4	
342.99	4602.5	
343.19	3319.1	
343.4	6005.3	
343.61	5839.4	
343.81	3889.1	
344.02	3618.1	
344.23	6051.7	
344.43	6519.4	
344.64	4615.4	
344.85	4491.9	
345.06	5813.5	
345.26	6251.1	
345.47	4259.1	
345.68	5036.6	
345.88	4936.3	
346.09	6125.5	
346.3	4389.5	
346.5	3286.3	
346.71	5623.7	
346.92	5274.9	
347.12	3342.3	
347.33	4216.1	
347.54	6109.8	
347.74	6602	
347.95	4259.8	
348.16	3134.1	
348.36	5394.3	
348.57	5200.5	
348.78	4201.7	
348.98	4539.7	
349.19	5551.4	
349.39	5029.1	
349.6	3401.7	
349.81	3755.3	
350.01	5855.8	
350.22	5307	
350.43	4082.3	
350.63	4924	
350.84	5622.4	
351.05	5381.4	
351.25	3693.9	
351.46	3357.3	
351.67	6221.7	
351.87	5298.1	
352.08	4012.7	
352.29	4592.9	
352.49	6100.9	
352.7	5772.5	
352.9	3580.5	
353.11	4463.2	
353.32	6784.2	
353.52	5419.6	
353.73	3614.7	
353.94	4562.2	
354.14	5898.8	
354.35	5734.3	
354.55	3691.1	
354.76	4143.7	
354.97	5916.6	
355.17	5627.8	
355.38	3444	
355.59	4863.9	
355.79	5285.8	
356	5791	
356.2	4135.5	
356.41	3568.2	
356.62	4997	
356.82	5552.7	
357.03	4416.8	
357.24	4045.4	
357.44	5352.7	
357.65	5472.9	
357.85	5311.7	
358.06	4171.7	
358.27	5021.6	
358.47	5334.3	
358.68	3497.2	
358.88	4431.8	
359.09	5935	
359.3	6367.8	
359.5	5168.4	
359.71	4571.1	
359.91	6821.1	
360.12	6075	
360.33	4407.2	
360.53	4920.6	
360.74	5326.8	
360.94	5405.3	
361.15	4661.9	
361.36	3900.7	
361.56	6189	
361.77	5644.9	
361.97	5132.9	
362.18	4049.5	
362.38	6275	
362.59	5251.7	
362.8	3867.2	
363	3648.1	
363.21	5049.6	
363.41	5747.3	
363.62	4379.2	
363.83	5524.1	
364.03	5816.2	
364.24	6958.3	
364.44	5492.7	
364.65	5541.1	
364.85	5605.3	
365.06	5207.3	
365.27	4037.2	
365.47	4066.6	
365.68	6687.3	
365.88	5577.3	
366.09	4422.2	
366.29	4043.4	
366.5	5948	
366.71	6303	
366.91	5524.7	
367.12	4605.9	
367.32	6977.4	
367.53	6201.9	
367.73	4558.8	
367.94	5649	
368.14	6195.8	
368.35	7112.6	
368.56	4561.5	
368.76	3887	
368.97	6284.5	
369.17	8144.8	
369.38	4039.3	
369.58	4371.7	
369.79	5212.8	
369.99	6664.1	
370.2	5368.4	
370.4	4418.2	
370.61	5958.2	
370.82	7201.3	
371.02	4311.7	
371.23	3627	
371.43	5162.2	
371.64	6619.7	
371.84	4437.9	
372.05	5711.1	
372.25	8098.4	
372.46	6419	
372.66	4405.2	
372.87	4348.5	
373.07	6389.7	
373.28	8118.8	
373.48	5563.6	
373.69	5186.8	
373.9	5791.7	
374.1	5866.7	
374.31	5460.6	
374.51	4967	
374.72	6836.1	
374.92	5545.9	
375.13	5651	
375.33	4846.9	
375.54	6371.2	
375.74	5799.2	
375.95	4888.5	
376.15	6253.1	
376.36	6364.4	
376.56	6259.3	
376.77	4965.6	
376.97	5425.8	
377.18	7604.8	
377.38	6566.5	
377.59	5847.6	
377.79	4513.7	
378	6332.3	
378.2	6769.2	
378.41	4635.9	
378.61	4484.4	
378.82	6919.4	
379.02	5984.2	
379.23	4849.6	
379.43	6024.4	
379.64	6928.3	
379.84	6608.8	
380.05	4586.1	
380.25	4607.2	
380.46	6704.4	
380.66	6176.7	
380.87	6080.4	
381.07	6381.5	
381.28	7350.8	
381.48	6625.9	
381.69	4636.6	
381.89	4696.7	
382.1	5502.9	
382.3	6866.2	
382.51	5860.6	
382.71	6776.7	
382.91	6663.4	
383.12	7238.2	
383.32	5001.1	
383.53	5195.7	
383.73	6518	
383.94	6344.6	
384.14	5137.7	
384.35	4257	
384.55	6221.7	
384.76	6711.2	
384.96	5025	
385.17	5444.9	
385.37	6650.4	
385.58	5891.3	
385.78	5367.7	
385.98	4161.5	
386.19	6092	
386.39	6505	
386.6	4713.1	
386.8	5042.8	
387.01	6689.3	
387.21	6660.7	
387.42	5455.8	
387.62	6118	
387.83	5982.8	
388.03	6688	
388.23	5175.9	
388.44	6003.3	
388.64	5640.1	
388.85	5872.9	
389.05	5610.8	
389.26	6227.9	
389.46	7882.6	
389.67	7216.4	
389.87	5588.9	
390.07	5694	
390.28	6501.6	
390.48	6032	
390.69	4860.5	
390.89	5147.9	
391.1	6184.9	
391.3	7189.1	
391.5	6392.4	
391.71	6961	
391.91	6930.3	
392.12	8052.6	
392.32	6539.8	
392.53	5661.3	
392.73	6316.6	
392.93	6488	
393.14	5304.2	
393.34	6126.2	
393.55	7102.4	
393.75	6494.8	
393.95	5286.5	
394.16	5143.1	
394.36	6241.5	
394.57	6890.7	
394.77	4737.6	
394.98	5184.1	
395.18	6163	
395.38	6428.6	
395.59	6212.9	
395.79	5035.3	
396	6422.4	
396.2	6888.7	
396.4	6062.7	
396.61	6012.8	
396.81	7286	
397.02	6531.7	
397.22	6352.8	
397.42	6428.6	
397.63	7226.6	
397.83	6498.9	
398.04	5122.7	
398.24	5812.1	
398.44	7028.6	
398.65	6186.9	
398.85	5017.5	
399.05	5217.5	
399.26	6461.3	
399.46	8299.7	
399.67	5669.5	
399.87	5330.9	
400.07	6939.2	
400.28	7323.5	
400.48	5528.2	
400.69	6661.4	
400.89	7575.4	
401.09	8112	
401.3	5402.5	
401.5	6644.3	
401.7	8366.6	
401.91	8665	
402.11	5816.9	
402.32	6044.2	
402.52	7695.6	
402.72	7580.2	
402.93	6209.4	
403.13	4999.8	
403.33	8340.7	
403.54	6898.2	
403.74	5793	
403.94	6705	
404.15	6959	
404.35	8179.6	
404.56	5520.6	
404.76	7479.9	
404.96	7447.8	
405.17	7156.3	
405.37	6591.7	
405.57	6147.3	
405.78	7665.5	
405.98	6975.4	
406.18	5743.2	
406.39	6787	
406.59	7688.1	
406.79	7195.9	
407	5508.4	
407.2	5646.9	
407.4	7617.1	
407.61	7823.9	
407.81	5566.4	
408.01	7789.8	
408.22	6602.7	
408.42	8819.2	
408.62	7025.9	
408.83	6485.9	
409.03	7574.8	
409.23	7408.9	
409.44	6764.4	
409.64	7161.7	
409.84	8914.1	
410.05	8783.7	
410.25	7133.8	
410.45	6832	
410.66	8301.8	
410.86	10836	
411.06	7499	
411.27	7311.9	
411.47	10901	
411.67	8615.8	
411.88	7640.3	
412.08	8015.1	
412.28	9447.3	
412.49	10056	
412.69	7552.9	
412.89	7646.4	
413.09	9792	
413.3	9800.2	
413.5	7742	
413.7	7310.6	
413.91	8930.5	
414.11	9959.3	
414.31	7720.2	
414.52	8277.9	
414.72	9583.8	
414.92	9624.8	
415.12	7677.8	
415.33	8284.7	
415.53	10068	
415.73	10227	
415.94	8793.3	
416.14	8092.9	
416.34	9024.7	
416.55	8676.6	
416.75	9458.9	
416.95	8869.8	
417.15	10152	
417.36	10855	
417.56	9764.7	
417.76	8808.3	
417.97	10640	
418.17	10325	
418.37	8327.7	
418.57	8556.4	
418.78	9964.7	
418.98	9691.7	
419.18	9445.2	
419.38	9252	
419.59	9785.9	
419.79	9283.4	
419.99	8396.7	
420.2	8727.1	
420.4	10367	
420.6	10314	
420.8	8289.5	
421.01	8011	
421.21	10182	
421.41	10362	
421.61	8733.9	
421.82	8361.2	
422.02	9725.1	
422.22	10686	
422.42	9273.9	
422.63	8692.9	
422.83	9820	
423.03	11099	
423.23	8798.8	
423.44	7806.9	
423.64	9852.1	
423.84	9488.2	
424.04	8206.9	
424.25	7849.2	
424.45	10731	
424.65	10650	
424.85	7595.2	
425.06	8233.5	
425.26	10728	
425.46	9110	
425.66	8706.6	
425.87	8327	
426.07	10433	
426.27	10283	
426.47	8609.7	
426.67	7825.3	
426.88	10636	
427.08	10175	
427.28	8916.2	
427.48	7720.8	
427.69	8955.1	
427.89	9759.9	
428.09	8801.5	
428.29	7894.9	
428.5	10476	
428.7	10046	
428.9	7849.9	
429.1	8344.8	
429.3	9807.7	
429.51	10370	
429.71	8003.5	
429.91	9094.3	
430.11	10257	
430.31	10714	
430.52	8533.2	
430.72	9047.9	
430.92	11002	
431.12	10468	
431.32	8428.8	
431.53	8611.7	
431.73	9360.6	
431.93	11140	
432.13	8129.1	
432.33	8127	
432.54	9890.3	
432.74	10436	
432.94	8125	
433.14	9194	
433.34	10521	
433.55	10006	
433.75	9303.2	
433.95	11312	
434.15	10402	
434.35	10170	
434.56	8373.5	
434.76	8120.9	
434.96	10412	
435.16	10916	
435.36	8391.2	
435.56	9641.2	
435.77	10266	
435.97	10434	
436.17	10685	
436.37	9736	
436.57	10298	
436.78	10333	
436.98	11470	
437.18	10404	
437.38	11156	
437.58	10489	
437.78	10604	
437.99	9011.1	
438.19	10899	
438.39	11770	
438.59	8945.5	
438.79	8323.6	
438.99	11638	
439.2	10365	
439.4	8339.3	
439.6	8331.8	
439.8	10768	
440	11957	
440.2	9719	
440.4	9856.9	
440.61	11379	
440.81	12142	
441.01	9201.5	
441.21	10295	
441.41	12138	
441.61	11647	
441.81	10720	
442.02	11672	
442.22	12749	
442.42	11843	
442.62	9511.4	
442.82	9261.6	
443.02	12192	
443.22	11277	
443.43	9953.8	
443.63	9398.1	
443.83	11028	
444.03	11267	
444.23	11008	
444.43	10501	
444.63	11655	
444.83	12838	
445.04	9796.1	
445.24	11254	
445.44	11902	
445.64	12111	
445.84	10383	
446.04	10507	
446.24	11064	
446.44	12245	
446.65	9438.4	
446.85	10050	
447.05	11347	
447.25	12165	
447.45	10013	
447.65	9361.9	
447.85	11510	
448.05	10960	
448.25	10532	
448.46	10352	
448.66	11560	
448.86	11110	
449.06	9268.4	
449.26	10598	
449.46	11916	
449.66	10862	
449.86	10187	
450.06	10256	
450.26	11245	
450.47	11907	
450.67	10282	
450.87	10867	
451.07	11974	
451.27	11843	
451.47	9716.9	
451.67	10492	
451.87	11567	
452.07	12515	
452.27	10150	
452.47	10103	
452.67	11698	
452.88	12347	
453.08	9245.2	
453.28	11617	
453.48	13222	
453.68	11611	
453.88	10152	
454.08	10313	
454.28	12338	
454.48	11914	
454.68	10931	
454.88	11370	
455.08	12431	
455.28	12396	
455.48	9887.6	
455.68	10884	
455.89	13168	
456.09	12917	
456.29	10554	
456.49	10728	
456.69	13246	
456.89	12296	
457.09	11473	
457.29	11854	
457.49	12809	
457.69	13101	
457.89	11409	
458.09	10750	
458.29	12809	
458.49	13627	
458.69	12098	
458.89	11379	
459.09	14049	
459.29	14190	
459.49	11457	
459.69	12347	
459.9	13479	
460.1	13279	
460.3	11373	
460.5	11214	
460.7	13540	
460.9	13196	
461.1	10888	
461.3	12513	
461.5	14462	
461.7	13986	
461.9	11861	
462.1	12131	
462.3	13694	
462.5	14257	
462.7	11867	
462.9	12115	
463.1	15517	
463.3	15464	
463.5	12290	
463.7	13653	
463.9	14422	
464.1	14694	
464.3	13054	
464.5	13052	
464.7	15139	
464.9	15080	
465.1	14655	
465.3	13588	
465.5	15585	
465.7	15750	
465.9	14177	
466.1	13674	
466.3	15686	
466.5	15149	
466.7	15074	
466.9	13612	
467.1	15342	
467.3	16439	
467.5	15134	
467.7	13904	
467.9	16746	
468.1	17818	
468.3	14620	
468.5	15333	
468.7	15868	
468.9	15722	
469.1	14377	
469.3	15302	
469.5	17866	
469.7	15512	
469.9	14745	
470.1	14334	
470.3	15823	
470.5	15861	
470.7	15641	
470.9	14095	
471.1	15700	
471.3	15762	
471.5	14125	
471.69	16096	
471.89	15393	
472.09	14784	
472.29	14917	
472.49	15005	
472.69	15311	
472.89	16004	
473.09	14072	
473.29	13717	
473.49	15378	
473.69	15264	
473.89	14884	
474.09	14071	
474.29	16703	
474.49	16289	
474.69	15052	
474.89	14145	
475.09	15314	
475.29	15440	
475.49	13559	
475.69	13917	
475.88	16936	
476.08	15655	
476.28	13480	
476.48	13764	
476.68	15999	
476.88	15808	
477.08	13549	
477.28	14212	
477.48	14988	
477.68	15898	
477.88	13425	
478.08	13740	
478.28	16419	
478.48	15360	
478.67	13947	
478.87	13155	
479.07	16383	
479.27	15483	
479.47	14191	
479.67	14356	
479.87	16089	
480.07	16670	
480.27	13446	
480.47	15182	
480.67	15838	
480.87	16549	
481.06	13779	
481.26	14747	
481.46	15767	
481.66	15621	
481.86	14285	
482.06	15522	
482.26	15391	
482.46	16286	
482.66	14231	
482.86	13932	
483.05	15810	
483.25	15283	
483.45	16908	
483.65	14467	
483.85	15594	
484.05	15901	
484.25	14788	
484.45	15623	
484.65	16826	
484.84	17139	
485.04	14481	
485.24	14513	
485.44	17209	
485.64	15490	
485.84	13982	
486.04	15439	
486.24	15892	
486.44	16403	
486.63	13900	
486.83	14945	
487.03	16109	
487.23	16597	
487.43	14070	
487.63	16735	
487.83	16436	
488.02	17606	
488.22	15632	
488.42	16217	
488.62	17513	
488.82	16284	
489.02	14887	
489.22	15452	
489.41	17315	
489.61	17301	
489.81	14869	
490.01	14916	
490.21	17419	
490.41	18172	
490.61	15044	
490.8	15191	
491	17080	
491.2	15979	
491.4	15606	
491.6	14661	
491.8	16709	
491.99	16930	
492.19	14355	
492.39	14898	
492.59	17266	
492.79	17275	
492.99	15885	
493.18	14984	
493.38	17532	
493.58	18949	
493.78	16129	
493.98	15661	
494.18	17590	
494.37	17357	
494.57	16976	
494.77	16598	
494.97	18359	
495.17	18869	
495.37	16500	
495.56	16820	
495.76	19234	
495.96	18983	
496.16	18104	
496.36	17131	
496.55	19227	
496.75	18875	
496.95	17595	
497.15	17366	
497.35	19225	
497.54	19361	
497.74	17104	
497.94	19190	
498.14	20078	
498.34	19947	
498.53	16995	
498.73	17911	
498.93	18983	
499.13	19546	
499.33	17998	
499.52	18344	
499.72	19911	
499.92	19988	
500.12	17582	
500.32	17846	
500.51	19904	
500.71	20149	
500.91	18869	
501.11	18387	
501.31	20093	
501.5	20473	
501.7	19133	
501.9	18144	
502.1	19669	
502.29	20222	
502.49	18763	
502.69	18980	
502.89	19988	
503.09	20055	
503.28	17195	
503.48	17357	
503.68	18818	
503.88	19039	
504.07	18430	
504.27	17615	
504.47	19348	
504.67	19245	
504.86	18361	
505.06	17789	
505.26	18895	
505.46	20811	
505.65	17638	
505.85	17800	
506.05	18497	
506.25	18972	
506.44	16588	
506.64	17658	
506.84	18342	
507.04	19308	
507.23	16741	
507.43	17484	
507.63	20434	
507.83	18501	
508.02	17461	
508.22	17144	
508.42	20788	
508.62	18438	
508.81	17198	
509.01	17933	
509.21	18049	
509.4	18327	
509.6	17439	
509.8	16848	
510	18241	
510.19	20096	
510.39	16813	
510.59	16981	
510.79	18394	
510.98	19981	
511.18	17028	
511.38	17317	
511.57	19161	
511.77	19075	
511.97	17842	
512.17	16575	
512.36	19170	
512.56	19057	
512.76	16736	
512.95	16322	
513.15	19179	
513.35	17768	
513.55	17679	
513.74	16815	
513.94	19122	
514.14	18387	
514.33	18027	
514.53	17630	
514.73	18469	
514.92	18828	
515.12	17088	
515.32	16965	
515.51	18871	
515.71	19608	
515.91	18834	
516.11	17137	
516.3	20995	
516.5	18699	
516.7	17636	
516.89	18490	
517.09	18635	
517.29	18714	
517.48	18022	
517.68	17359	
517.88	18542	
518.07	19046	
518.27	17983	
518.47	16975	
518.66	19660	
518.86	18231	
519.06	16799	
519.25	17176	
519.45	18660	
519.65	20464	
519.84	17989	
520.04	18710	
520.24	20692	
520.43	19431	
520.63	17586	
520.83	17221	
521.02	18438	
521.22	19183	
521.42	17580	
521.61	18206	
521.81	18510	
522.01	18619	
522.2	17665	
522.4	17187	
522.6	19345	
522.79	18251	
522.99	17620	
523.18	17077	
523.38	19384	
523.58	19448	
523.77	19448	
523.97	17490	
524.17	21831	
524.36	20912	
524.56	19550	
524.76	18837	
524.95	20336	
525.15	19824	
525.34	18704	
525.54	18981	
525.74	20851	
525.93	19894	
526.13	20315	
526.33	19250	
526.52	21523	
526.72	20961	
526.91	20620	
527.11	19880	
527.31	21639	
527.5	22138	
527.7	20018	
527.89	18931	
528.09	20709	
528.29	21467	
528.48	20487	
528.68	20046	
528.87	21647	
529.07	21606	
529.27	19979	
529.46	19279	
529.66	21191	
529.85	21883	
530.05	19327	
530.25	20065	
530.44	23038	
530.64	21263	
530.83	19755	
531.03	19992	
531.23	21662	
531.42	21640	
531.62	21012	
531.81	19993	
532.01	22267	
532.21	22890	
532.4	20338	
532.6	20919	
532.79	23600	
532.99	22983	
533.18	21172	
533.38	22148	
533.58	22597	
533.77	23322	
533.97	21538	
534.16	22231	
534.36	23798	
534.55	22715	
534.75	22239	
534.95	21427	
535.14	23877	
535.34	22839	
535.53	20880	
535.73	23164	
535.92	24208	
536.12	22752	
536.31	21126	
536.51	22382	
536.71	22938	
536.9	22438	
537.1	21030	
537.29	21289	
537.49	23381	
537.68	22425	
537.88	21681	
538.07	21009	
538.27	22935	
538.46	24174	
538.66	20893	
538.86	21543	
539.05	23040	
539.25	23481	
539.44	21954	
539.64	21196	
539.83	22902	
540.03	23891	
540.22	21246	
540.42	21069	
540.61	22802	
540.81	23070	
541	21391	
541.2	22246	
541.39	22244	
541.59	22746	
541.78	21872	
541.98	20689	
542.18	21753	
542.37	21816	
542.57	21029	
542.76	21758	
542.96	21728	
543.15	22494	
543.35	20694	
543.54	20108	
543.74	22358	
543.93	22064	
544.13	20409	
544.32	21605	
544.52	21982	
544.71	21392	
544.91	19378	
545.1	20779	
545.3	21339	
545.49	22197	
545.69	19269	
545.88	20043	
546.08	23305	
546.27	22647	
546.47	20708	
546.66	19802	
546.86	22283	
547.05	22904	
547.24	19916	
547.44	19895	
547.63	21023	
547.83	22356	
548.02	20364	
548.22	20387	
548.41	20782	
548.61	22187	
548.8	19529	
549	19484	
549.19	21338	
549.39	21824	
549.58	19241	
549.78	19834	
549.97	21652	
550.17	21074	
550.36	20425	
550.55	21673	
550.75	20936	
550.94	21833	
551.14	19237	
551.33	19314	
551.53	20328	
551.72	21536	
551.92	19602	
552.11	19407	
552.31	21184	
552.5	21413	
552.69	21104	
552.89	18756	
553.08	21183	
553.28	20833	
553.47	19224	
553.67	20437	
553.86	21618	
554.06	19903	
554.25	18124	
554.44	18934	
554.64	22408	
554.83	22022	
555.03	18862	
555.22	19284	
555.42	21160	
555.61	20882	
555.8	18927	
556	19084	
556.19	19910	
556.39	21303	
556.58	18954	
556.78	18910	
556.97	20776	
557.16	20498	
557.36	20249	
557.55	18669	
557.75	19528	
557.94	21532	
558.13	18798	
558.33	18518	
558.52	21261	
558.72	20129	
558.91	18384	
559.1	18722	
559.3	19599	
559.49	19230	
559.69	17777	
559.88	18869	
560.07	20390	
560.27	20929	
560.46	18993	
560.66	19309	
560.85	20169	
561.04	19234	
561.24	18297	
561.43	18290	
561.63	19521	
561.82	19758	
562.01	19824	
562.21	18796	
562.4	20204	
562.59	21500	
562.79	18545	
562.98	18341	
563.18	20165	
563.37	22042	
563.56	19269	
563.76	18447	
563.95	19822	
564.14	19798	
564.34	18825	
564.53	18662	
564.73	20468	
564.92	20933	
565.11	19094	
565.31	18512	
565.5	21051	
565.69	19992	
565.89	18536	
566.08	19020	
566.27	21203	
566.47	21612	
566.66	19804	
566.85	18295	
567.05	20667	
567.24	19966	
567.44	18834	
567.63	20109	
567.82	20981	
568.02	20778	
568.21	18720	
568.4	19246	
568.6	20676	
568.79	20714	
568.98	18566	
569.18	19022	
569.37	20732	
569.56	23019	
569.76	19399	
569.95	20433	
570.14	21039	
570.34	21173	
570.53	18884	
570.72	18830	
570.91	21579	
571.11	20788	
571.3	19411	
571.49	20277	
571.69	21020	
571.88	20416	
572.07	20129	
572.27	19799	
572.46	20472	
572.65	21556	
572.85	19168	
573.04	19532	
573.23	21995	
573.43	21045	
573.62	19126	
573.81	19829	
574	21186	
574.2	21163	
574.39	19759	
574.58	19934	
574.78	22622	
574.97	21817	
575.16	20469	
575.36	20840	
575.55	22286	
575.74	22264	
575.93	19491	
576.13	20986	
576.32	21483	
576.51	22360	
576.71	20049	
576.9	21605	
577.09	22572	
577.28	22014	
577.48	20679	
577.67	19536	
577.86	21770	
578.05	22207	
578.25	20370	
578.44	20481	
578.63	21848	
578.83	23268	
579.02	19591	
579.21	21462	
579.4	22169	
579.6	22139	
579.79	20660	
579.98	22990	
580.17	22453	
580.37	22657	
580.56	20023	
580.75	20930	
580.94	23138	
581.14	22855	
581.33	21337	
581.52	20241	
581.71	22611	
581.91	23292	
582.1	20052	
582.29	20557	
582.48	22000	
582.68	22271	
582.87	21130	
583.06	20906	
583.25	22560	
583.45	22389	
583.64	21581	
583.83	22466	
584.02	21984	
584.21	22479	
584.41	21492	
584.6	20891	
584.79	22383	
584.98	23126	
585.18	20187	
585.37	20324	
585.56	21611	
585.75	22711	
585.94	20208	
586.14	21087	
586.33	22963	
586.52	22250	
586.71	20663	
586.91	20399	
587.1	21063	
587.29	22313	
587.48	19843	
587.67	19998	
587.87	21949	
588.06	21993	
588.25	21280	
588.44	20420	
588.63	21314	
588.83	22045	
589.02	19637	
589.21	19253	
589.4	20569	
589.59	20498	
589.78	17915	
589.98	17984	
590.17	19499	
590.36	19915	
590.55	16886	
590.74	17420	
590.94	20998	
591.13	19226	
591.32	17361	
591.51	16917	
591.7	19929	
591.89	19418	
592.09	17245	
592.28	17697	
592.47	18710	
592.66	20841	
592.85	17348	
593.05	17633	
593.24	19465	
593.43	20215	
593.62	17770	
593.81	18238	
594	19445	
594.19	19702	
594.39	17524	
594.58	17399	
594.77	19641	
594.96	20350	
595.15	17382	
595.34	18078	
595.54	19621	
595.73	18627	
595.92	16569	
596.11	17695	
596.3	20176	
596.49	18663	
596.68	17444	
596.88	17946	
597.07	19680	
597.26	18460	
597.45	16763	
597.64	18345	
597.83	18789	
598.02	19497	
598.22	17048	
598.41	17697	
598.6	19066	
598.79	18495	
598.98	17066	
599.17	18101	
599.36	19090	
599.55	20276	
599.74	19131	
599.94	19043	
600.13	19608	
600.32	18344	
600.51	16762	
600.7	16839	
600.89	20327	
601.08	20435	
601.27	16661	
601.47	17673	
601.66	19549	
601.85	20175	
602.04	17259	
602.23	17520	
602.42	18413	
602.61	19233	
602.8	17157	
602.99	16823	
603.18	18779	
603.37	19037	
603.57	17499	
603.76	18106	
603.95	19850	
604.14	19465	
604.33	16967	
604.52	17444	
604.71	19177	
604.9	18789	
605.09	18006	
605.28	17808	
605.47	19899	
605.66	19318	
605.86	17626	
606.05	17063	
606.24	19638	
606.43	18089	
606.62	17246	
606.81	18114	
607	19357	
607.19	18720	
607.38	16655	
607.57	16867	
607.76	18449	
607.95	17695	
608.14	17281	
608.33	17913	
608.52	18416	
608.72	19459	
608.91	16429	
609.1	16161	
609.29	18363	
609.48	17797	
609.67	17259	
609.86	16088	
610.05	17961	
610.24	18365	
610.43	16225	
610.62	15786	
610.81	19333	
611	19203	
611.19	16162	
611.38	16945	
611.57	18497	
611.76	19934	
611.95	15940	
612.14	15750	
612.33	18363	
612.52	17731	
612.71	16580	
612.9	15703	
613.09	17324	
613.28	19921	
613.47	16100	
613.66	17359	
613.85	18435	
614.04	17854	
614.24	16304	
614.43	15410	
614.62	18560	
614.81	18422	
615	16903	
615.19	17010	
615.38	17690	
615.57	18295	
615.76	16642	
615.95	17838	
616.14	18501	
616.33	18148	
616.52	17110	
616.71	17382	
616.9	18404	
617.09	18429	
617.28	16452	
617.47	18105	
617.66	17715	
617.85	17746	
618.04	17704	
618.22	17061	
618.41	18297	
618.6	19323	
618.79	17146	
618.98	16873	
619.17	19609	
619.36	17920	
619.55	17077	
619.74	17136	
619.93	19028	
620.12	18527	
620.31	17779	
620.5	18227	
620.69	19867	
620.88	20423	
621.07	18992	
621.26	17959	
621.45	19656	
621.64	19585	
621.83	18230	
622.02	17404	
622.21	19575	
622.4	19343	
622.59	18729	
622.78	18542	
622.97	18877	
623.16	20140	
623.35	18082	
623.54	17243	
623.72	19231	
623.91	19401	
624.1	18400	
624.29	17047	
624.48	20631	
624.67	19680	
624.86	18358	
625.05	17398	
625.24	20545	
625.43	19050	
625.62	20279	
625.81	17611	
626	20132	
626.19	19383	
626.38	18525	
626.56	17834	
626.75	19224	
626.94	20049	
627.13	18256	
627.32	17126	
627.51	19988	
627.7	21266	
627.89	17018	
628.08	18400	
628.27	18910	
628.46	19014	
628.65	17364	
628.83	17057	
629.02	19456	
629.21	18811	
629.4	17765	
629.59	18001	
629.78	18880	
629.97	19822	
630.16	18218	
630.35	17497	
630.54	20254	
630.72	20069	
630.91	17586	
631.1	18111	
631.29	19453	
631.48	19596	
631.67	18125	
631.86	17500	
632.05	19062	
632.24	19112	
632.42	17089	
632.61	18028	
632.8	19075	
632.99	18791	
633.18	17899	
633.37	18338	
633.56	19257	
633.75	19162	
633.93	17777	
634.12	17453	
634.31	20114	
634.5	19896	
634.69	17629	
634.88	17879	
635.07	19109	
635.25	19647	
635.44	18413	
635.63	18779	
635.82	18901	
636.01	18375	
636.2	18255	
636.39	17940	
636.57	20117	
636.76	19718	
636.95	17209	
637.14	18576	
637.33	19246	
637.52	20362	
637.7	16898	
637.89	17949	
638.08	18794	
638.27	20321	
638.46	17899	
638.65	18267	
638.83	20035	
639.02	18458	
639.21	17790	
639.4	18110	
639.59	18773	
639.78	18305	
639.96	16755	
640.15	16778	
640.34	18595	
640.53	18770	
640.72	16450	
640.91	16669	
641.09	17869	
641.28	19261	
641.47	16618	
641.66	17575	
641.85	18596	
642.03	18606	
642.22	17125	
642.41	16599	
642.6	17853	
642.79	17034	
642.97	16100	
643.16	17075	
643.35	17778	
643.54	17434	
643.73	16079	
643.91	16787	
644.1	16972	
644.29	17803	
644.48	15763	
644.67	15980	
644.85	17091	
645.04	17348	
645.23	15141	
645.42	15624	
645.6	16621	
645.79	17942	
645.98	15331	
646.17	14107	
646.36	16044	
646.54	16612	
646.73	15702	
646.92	14435	
647.11	15900	
647.29	17004	
647.48	14474	
647.67	14176	
647.86	17256	
648.05	17423	
648.23	14709	
648.42	15997	
648.61	16655	
648.8	16345	
648.98	14261	
649.17	14723	
649.36	15789	
649.55	15416	
649.73	14282	
649.92	15154	
650.11	15870	
650.3	16113	
650.48	14450	
650.67	14084	
650.86	16391	
651.05	15139	
651.23	14341	
651.42	14224	
651.61	15638	
651.79	15610	
651.98	14511	
652.17	14001	
652.36	16026	
652.54	15124	
652.73	13898	
652.92	13747	
653.11	15986	
653.29	16085	
653.48	12960	
653.67	14052	
653.85	15604	
654.04	16606	
654.23	14099	
654.42	13396	
654.6	14504	
654.79	15206	
654.98	12548	
655.16	13046	
655.35	13849	
655.54	13765	
655.73	12530	
655.91	12450	
656.1	14975	
656.29	13926	
656.47	12181	
656.66	14142	
656.85	14294	
657.03	14485	
657.22	13002	
657.41	13202	
657.59	14611	
657.78	14442	
657.97	12693	
658.16	13505	
658.34	15275	
658.53	15822	
658.72	14575	
658.9	14965	
659.09	14819	
659.28	14937	
659.46	13421	
659.65	13196	
659.84	14649	
660.02	15173	
660.21	13130	
660.4	13049	
660.58	15651	
660.77	14922	
660.96	13723	
661.14	12732	
661.33	16016	
661.52	16046	
661.7	12670	
661.89	16625	
662.08	14492	
662.26	14078	
662.45	12831	
662.64	12936	
662.82	15115	
663.01	14321	
663.2	13005	
663.38	13862	
663.57	14990	
663.75	14897	
663.94	13172	
664.13	14622	
664.31	14229	
664.5	14922	
664.69	13414	
664.87	14147	
665.06	13932	
665.25	14751	
665.43	14401	
665.62	14405	
665.8	15065	
665.99	14236	
666.18	13140	
666.36	13277	
666.55	14901	
666.74	14874	
666.92	12748	
667.11	14342	
667.29	14188	
667.48	14815	
667.67	14033	
667.85	13016	
668.04	14239	
668.22	14257	
668.41	13106	
668.6	13302	
668.78	14050	
668.97	14270	
669.15	13463	
669.34	12206	
669.53	14052	
669.71	14450	
669.9	12441	
670.08	13254	
670.27	13982	
670.46	14582	
670.64	13379	
670.83	13786	
671.01	13895	
671.2	14409	
671.38	12623	
671.57	12431	
671.76	15137	
671.94	15861	
672.13	12396	
672.31	13500	
672.5	14737	
672.69	13969	
672.87	12526	
673.06	12871	
673.24	14480	
673.43	14109	
673.61	13300	
673.8	12874	
673.98	14767	
674.17	14897	
674.36	13525	
674.54	13272	
674.73	14467	
674.91	14487	
675.1	13121	
675.28	12594	
675.47	14169	
675.65	14747	
675.84	12819	
676.03	13240	
676.21	13936	
676.4	13392	
676.58	13613	
676.77	13544	
676.95	15405	
677.14	13867	
677.32	12397	
677.51	12226	
677.69	14612	
677.88	13484	
678.06	12334	
678.25	12344	
678.44	14285	
678.62	13788	
678.81	12049	
678.99	13257	
679.18	14934	
679.36	14539	
679.55	12708	
679.73	13491	
679.92	14522	
680.1	13833	
680.29	13976	
680.47	12790	
680.66	13670	
680.84	14657	
681.03	12006	
681.21	13118	
681.4	13843	
681.58	13613	
681.77	12397	
681.95	12335	
682.14	14561	
682.32	14969	
682.51	13320	
682.69	11953	
682.88	13522	
683.06	14155	
683.25	12883	
683.43	13247	
683.62	13823	
683.8	14267	
683.99	13406	
684.17	12659	
684.36	14987	
684.54	13401	
684.73	11439	
684.91	11556	
685.1	13306	
685.28	12480	
685.46	11669	
685.65	11735	
685.83	13402	
686.02	12587	
686.2	11166	
686.39	11352	
686.57	12321	
686.76	14287	
686.94	11464	
687.13	11675	
687.31	13330	
687.5	12949	
687.68	10884	
687.86	12345	
688.05	14982	
688.23	12455	
688.42	12379	
688.6	11777	
688.79	12976	
688.97	13063	
689.16	12190	
689.34	11047	
689.52	13956	
689.71	14172	
689.89	12560	
690.08	11770	
690.26	13354	
690.45	13358	
690.63	12499	
690.81	11938	
691	12910	
691.18	13022	
691.37	11895	
691.55	14145	
691.74	12697	
691.92	14997	
692.1	11842	
692.29	11136	
692.47	12880	
692.66	12238	
692.84	11426	
693.02	12058	
693.21	12506	
693.39	12858	
693.58	12288	
693.76	11695	
693.94	14422	
694.13	14225	
694.31	11718	
694.5	13038	
694.68	13077	
694.86	13532	
695.05	12349	
695.23	12512	
695.42	14143	
695.6	16484	
695.78	13063	
695.97	12024	
696.15	14044	
696.34	13334	
696.52	11725	
696.7	12549	
696.89	13573	
697.07	12897	
697.25	12377	
697.44	13993	
697.62	13442	
697.81	13713	
697.99	11897	
698.17	12441	
698.36	12659	
698.54	13309	
698.72	12302	
698.91	11054	
699.09	12863	
699.28	12690	
699.46	11767	
699.64	11647	
699.83	12625	
700.01	13934	
700.19	12502	
700.38	10889	
700.56	14057	
700.74	12848	
700.93	11318	
701.11	12306	
701.29	13408	
701.48	14735	
701.66	11635	
701.84	11682	
702.03	13033	
702.21	13893	
702.39	11279	
702.58	11934	
702.76	13517	
702.94	13560	
703.13	11217	
703.31	13870	
703.49	12710	
703.68	14374	
703.86	11412	
704.04	12560	
704.23	13216	
704.41	13659	
704.59	11559	
704.78	12850	
704.96	14383	
705.14	13667	
705.33	11389	
705.51	12179	
705.69	13054	
705.87	13979	
706.06	12487	
706.24	11299	
706.42	13409	
706.61	13635	
706.79	12373	
706.97	11290	
707.16	12742	
707.34	13321	
707.52	12348	
707.7	11489	
707.89	12957	
708.07	12541	
708.25	12354	
708.44	12552	
708.62	12709	
708.8	13855	
708.98	12582	
709.17	11574	
709.35	13087	
709.53	13072	
709.72	11084	
709.9	11239	
710.08	13287	
710.26	13387	
710.45	12757	
710.63	11373	
710.81	12973	
710.99	12813	
711.18	11979	
711.36	11288	
711.54	12583	
711.72	13300	
711.91	11310	
712.09	10580	
712.27	12473	
712.45	13168	
712.64	11397	
712.82	10285	
713	11678	
713.18	11841	
713.37	10124	
713.55	11393	
713.73	12279	
713.91	10715	
714.1	9999.5	
714.28	9232.9	
714.46	11454	
714.64	10475	
714.83	8199.4	
715.01	8890.2	
715.19	10166	
715.37	9405.6	
715.55	8464.9	
715.74	8751	
715.92	10965	
716.1	8780.3	
716.28	9858.2	
716.47	8753.7	
716.65	9346.2	
716.83	9626.1	
717.01	8505.2	
717.19	8548.9	
717.38	11807	
717.56	9239.8	
717.74	8972.2	
717.92	8208.3	
718.1	10603	
718.29	9983.2	
718.47	8006.9	
718.65	8801.5	
718.83	10943	
719.01	10996	
719.2	8122.2	
719.38	9347.6	
719.56	10690	
719.74	12405	
719.92	8745.5	
720.11	9801.6	
720.29	10436	
720.47	9497.1	
720.65	7909.9	
720.83	8813.8	
721.02	9616.6	
721.2	9288.2	
721.38	8644.5	
721.56	7866.9	
721.74	8730.5	
721.92	8843.1	
722.11	9101.2	
722.29	8871.8	
722.47	10186	
722.65	9301.9	
722.83	7812.3	
723.01	8815.8	
723.2	9375.6	
723.38	9642.5	
723.56	7141.9	
723.74	8509.3	
723.92	8796.7	
724.1	10207	
724.29	7726.3	
724.47	8944.8	
724.65	8884.8	
724.83	8813.1	
725.01	7437.5	
725.19	8547.5	
725.37	8711.4	
725.56	9030.9	
725.74	7430	
725.92	7842.4	
726.1	8727.8	
726.28	9146.2	
726.46	8036.2	
726.64	7748.8	
726.83	8934.6	
727.01	9231.6	
727.19	7376.1	
727.37	8251.3	
727.55	9188.6	
727.73	9732.6	
727.91	7286.7	
728.09	7157.7	
728.28	9768.1	
728.46	10463	
728.64	8427.4	
728.82	8391.9	
729	11014	
729.18	10320	
729.36	7604.8	
729.54	10127	
729.72	11495	
729.91	9684.2	
730.09	9888.3	
730.27	8641.7	
730.45	9557.2	
730.63	10279	
730.81	9279.3	
730.99	8190.5	
731.17	10881	
731.35	9263	
731.53	8828.1	
731.71	8316.8	
731.9	10508	
732.08	10685	
732.26	8522.3	
732.44	8179.6	
732.62	10688	
732.8	10113	
732.98	8929.8	
733.16	7864.9	
733.34	10091	
733.52	8760.5	
733.7	8409	
733.88	8761.2	
734.07	9831.6	
734.25	9553.8	
734.43	7807.5	
734.61	9544.9	
734.79	11297	
734.97	9469.8	
735.15	7942	
735.33	8273.1	
735.51	9777.7	
735.69	9451.4	
735.87	9548.3	
736.05	8572.1	
736.23	9651.4	
736.41	9446.6	
736.59	8309.3	
736.77	8453.3	
736.95	10128	
737.13	9590.6	
737.32	7976.2	
737.5	8203.5	
737.68	10606	
737.86	9280	
738.04	7591.1	
738.22	9743.6	
738.4	9106.6	
738.58	9387.9	
738.76	8331.8	
738.94	7213.6	
739.12	9121.7	
739.3	9167.4	
739.48	9030.2	
739.66	8780.3	
739.84	9491.7	
740.02	9509.4	
740.2	7282.6	
740.38	7772.7	
740.56	9880.8	
740.74	8635.6	
740.92	8398.7	
741.1	8275.2	
741.28	9174.9	
741.46	9102.5	
741.64	7774.8	
741.82	8383	
742	9200.8	
742.18	9252	
742.36	8034.2	
742.54	7511.3	
742.72	9738.1	
742.9	8353	
743.08	8417.8	
743.26	7145.4	
743.44	9898.5	
743.62	9727.2	
743.8	8433.5	
743.98	7469.6	
744.16	9392.7	
744.34	9039.1	
744.52	8301.1	
744.7	8247.2	
744.88	9440.5	
745.06	8944.8	
745.24	8243.8	
745.42	8463.6	
745.6	9471.9	
745.78	9158.5	
745.96	6952.9	
746.14	7310.6	
746.32	10284	
746.5	9458.9	
746.68	7910.6	
746.86	7305.1	
747.03	9912.9	
747.21	8015.1	
747.39	7751.6	
747.57	7217	
747.75	8927.1	
747.93	9399.5	
748.11	7194.5	
748.29	7122.2	
748.47	10606	
748.65	8577.6	
748.83	7918.1	
749.01	7713.3	
749.19	9193.3	
749.37	8227.4	
749.55	7508.5	
749.73	7536.5	
749.91	8648.6	
750.09	8409	
750.26	7718.1	
750.44	7008.1	
750.62	8799.4	
750.8	8711.4	
750.98	6793.8	
751.16	7176.1	
751.34	8769.4	
751.52	8052.6	
751.7	7957.7	
751.88	6759	
752.06	9222	
752.24	8953.7	
752.42	6648.4	
752.59	7013.6	
752.77	8596.7	
752.95	9949	
753.13	7823.2	
753.31	7156.3	
753.49	8277.2	
753.67	8726.4	
753.85	7420.5	
754.03	6937.2	
754.21	8845.9	
754.38	9314.2	
754.56	7045.7	
754.74	5963	
754.92	7963.2	
755.1	8749.6	
755.28	5754.1	
755.46	5701.5	
755.64	8979	
755.82	8890.2	
755.99	5460.6	
756.17	5372.5	
756.35	5789.6	
756.53	7545.4	
756.71	4013.3	
756.89	5052.3	
757.07	7020.4	
757.25	6136.4	
757.42	5825.1	
757.6	6894.8	
757.78	7386.3	
757.96	6463.4	
758.14	5689.3	
758.32	5143.1	
758.5	5810.1	
758.67	6716	
758.85	5465.3	
759.03	5593.7	
759.21	6881.9	
759.39	6315.3	
759.57	5070.8	
759.75	6218.3	
759.92	7602.7	
760.1	6892.8	
760.28	6690	
760.46	6999.3	
760.64	6780.8	
760.82	6572.6	
760.99	6705.7	
761.17	5778.7	
761.35	7796.6	
761.53	6676.4	
761.71	6059.3	
761.89	6866.2	
762.06	7708.6	
762.24	7194.5	
762.42	6158.2	
762.6	5959.6	
762.78	7312.6	
762.96	7991.9	
763.13	6654.5	
763.31	6343.9	
763.49	8189.8	
763.67	7173.4	
763.85	7245	
764.02	7875.8	
764.2	8414.4	
764.38	7532.4	
764.56	6204.7	
764.74	7105.8	
764.91	8561.9	
765.09	7402.7	
765.27	5786.2	
765.45	5511.1	
765.63	8629.5	
765.8	8386.4	
765.98	5255.8	
766.16	5660.6	
766.34	6807.4	
766.52	6493.4	
766.69	6567.2	
766.87	5327.4	
767.05	7281.2	
767.23	7909.9	
767.41	5692	
767.58	5958.2	
767.76	7789.8	
767.94	7851.9	
768.12	5722.7	
768.29	6608.1	
768.47	7196.6	
768.65	8025.3	
768.83	5287.2	
769	6554.9	
769.18	6679.8	
769.36	7428.7	
769.54	6498.2	
769.72	5248.9	
769.89	7662.1	
770.07	7849.9	
770.25	5528.8	
770.43	6924.2	
770.6	8462.2	
770.78	9024.7	
770.96	5714.5	
771.14	6395.1	
771.31	7458	
771.49	6786.3	
771.67	4796.3	
771.85	5050.3	
772.02	5909.8	
772.2	6791.7	
772.38	5626.5	
772.55	5280.3	
772.73	6976.7	
772.91	6678.4	
773.09	5599.8	
773.26	5732.3	
773.44	6916	
773.62	6576	
773.8	5117.9	
773.97	4771.8	
774.15	6916	
774.33	6472.3	
774.5	4884.4	
774.68	5349.3	
774.86	7070.3	
775.04	6604	
775.21	4974.5	
775.39	4919.9	
775.57	6726.9	
775.74	7245	
775.92	4732.9	
776.1	4712.4	
776.27	6659.3	
776.45	8032.1	
776.63	4919.9	
776.81	4364.9	
776.98	6291.4	
777.16	7453.2	
777.34	5014.8	
777.51	5358.9	
777.69	6194.4	
777.87	6012.8	
778.04	5015.5	
778.22	5780.7	
778.4	5920.7	
778.57	6744	
778.75	4263.9	
778.93	4528.1	
779.1	5687.2	
779.28	5554.8	
779.46	4136.2	
779.64	4756.1	
779.81	6773.3	
779.99	7799.3	
780.17	5522	
780.34	5704.3	
780.52	6238.1	
780.69	6400.6	
780.87	5059.8	
781.05	4543.8	
781.22	6189.6	
781.4	6337.8	
781.58	4701.5	
781.75	3781.2	
781.93	6279.1	
782.11	5595.7	
782.28	5618.3	
782.46	4661.2	
782.64	5456.5	
782.81	6393.1	
782.99	4745.8	
783.17	4661.2	
783.34	6338.5	
783.52	5425.1	
783.69	4878.9	
783.87	5690.6	
784.05	5483.8	
784.22	5514.5	
784.4	5653.8	
784.58	4897.4	
784.75	6550.1	
784.93	5528.2	
785.1	4535.6	
785.28	5207.3	
785.46	6217.6	
785.63	5495.4	
785.81	4511.7	
785.99	4385.4	
786.16	5662.6	
786.34	6125.5	
786.51	4372.4	
786.69	4868	
786.87	5205.3	
787.04	5835.3	
787.22	4231.8	
787.39	5184.8	
787.57	5432.6	
787.75	6652.5	
787.92	5421	
788.1	5354.8	
788.27	5489.2	
788.45	5238	
788.63	5023	
788.8	3665.9	
788.98	6016.2	
789.15	5134.3	
789.33	3791.5	
789.5	4506.2	
789.68	6389.7	
789.86	6552.1	
790.03	4969.7	
790.21	4315.1	
790.38	6373.3	
790.56	5504.3	
790.73	4145.1	
790.91	4191.5	
791.09	5416.2	
791.26	6199.2	
791.44	4383.3	
791.61	3829	
791.79	5319.9	
791.96	5427.8	
792.14	3920.5	
792.32	3484.3	
792.49	5327.4	
792.67	5518.6	
792.84	4020.8	
793.02	3753.2	
793.19	5859.9	
793.37	6664.1	
793.54	3485.6	
793.72	3916.4	
793.89	6790.4	
794.07	5390.3	
794.25	4386.7	
794.42	3602.4	
794.6	6561	
794.77	6070.2	
794.95	4866.7	
795.12	4185.4	
795.3	5264	
795.47	6001.9	
795.65	4601.8	
795.82	4380.6	
796	5094	
796.17	7229.3	
796.35	4280.3	
796.52	5050.3	
796.7	5887.2	
796.87	5983.5	
797.05	5261.9	
797.22	5207.3	
797.4	5974.6	
797.57	7107.1	
797.75	4369	
797.92	4132.1	
798.1	6262.7	
798.27	5300.8	
798.45	3529.3	
798.62	3779.9	
798.8	5586.9	
798.97	6177.4	
799.15	4638.6	
799.32	4446.1	
799.5	4879.6	
799.67	5763.7	
799.85	4735.6	
800.02	3466.5	
800.2	5226.4	
800.37	5646.2	
800.55	4939	
800.72	4101.4	
800.9	6077	
801.07	6566.5	
801.25	5552	
801.42	4517.1	
801.6	6197.2	
801.77	5860.6	
801.95	4253.6	
802.12	4018.1	
802.29	5840.8	
802.47	5823.7	
802.64	4485.7	
802.82	3363.4	
802.99	5208.7	
803.17	6408.1	
803.34	4400.4	
803.52	3943	
803.69	7017.7	
803.87	5016.2	
804.04	4301.4	
804.21	4436.6	
804.39	6478.4	
804.56	5453.1	
804.74	3681.6	
804.91	4538.3	
805.09	5226.4	
805.26	5386.8	
805.44	3717.7	
805.61	4136.2	
805.78	5979.4	
805.96	6012.8	
806.13	4506.2	
806.31	4891.2	
806.48	4772.4	
806.66	5291.3	
806.83	4501.4	
807	4373.8	
807.18	5232.6	
807.35	5678.3	
807.53	4379.9	
807.7	3431.7	
807.87	6505	
808.05	5309	
808.22	4820.2	
808.4	3418.1	
808.57	5341.8	
808.74	4932.2	
808.92	3975.8	
809.09	5109	
809.27	5110.4	
809.44	5866.1	
809.61	3501.3	
809.79	3935.5	
809.96	6466.1	
810.14	6129.6	
810.31	3401	
810.48	4202.4	
810.66	5439.4	
810.83	6234	
811.01	3946.4	
811.18	4424.3	
811.35	6102.9	
811.53	4681.7	
811.7	4868.7	
811.87	4522.6	
812.05	5227.1	
812.22	5175.9	
812.39	3852.9	
812.57	3720.5	
812.74	5275.6	
812.92	7064.1	
813.09	4164.9	
813.26	4623.6	
813.44	6801.3	
813.61	5196.4	
813.78	3433.8	
813.96	4672.8	
814.13	5316.5	
814.3	4911.7	
814.48	5031.9	
814.65	4205.8	
814.82	6595.8	
815	5053.7	
815.17	4287.8	
815.34	5240.8	
815.52	5145.9	
815.69	5221	
815.87	4328	
816.04	4229.1	
816.21	5302.2	
816.38	4602.5	
816.56	4132.8	
816.73	3872.7	
816.9	6660.7	
817.08	6120	
817.25	3885.7	
817.42	4955.4	
817.6	4781.3	
817.77	5296	
817.94	4363.5	
818.12	3833.1	
818.29	4974.5	
818.46	7942.7	
818.64	4048.2	
818.81	3738.9	
818.98	4880.3	
819.16	7177.4	
819.33	4590.2	
819.5	4313.7	
819.67	5685.8	
819.85	6389.7	
820.02	4231.8	
820.19	4495.3	
820.37	5491.3	
820.54	5012.1	
820.71	4415.4	
820.88	5434.6	
821.06	5475.6	
821.23	4996.4	
821.4	4369.7	
821.58	4344.4	
821.75	6083.1	
821.92	5433.9	
822.09	3463.8	
822.27	3683.6	
822.44	5304.9	
822.61	5205.9	
822.79	3478.1	
822.96	6769.2	
823.13	5777.3	
823.3	4945.8	
823.48	4149.2	
823.65	3670	
823.82	5972.6	
823.99	4732.2	
824.17	5218.9	
824.34	3740.3	
824.51	6969.9	
824.68	5303.6	
824.86	3873.4	
825.03	4357.4	
825.2	5248.3	
825.37	6407.4	
825.55	3846.1	
825.72	4283	
825.89	7095.5	
826.06	6542.6	
826.24	4207.2	
826.41	4229.7	
826.58	6393.1	
826.75	5576.6	
826.92	3283.6	
827.1	3631	
827.27	8809	
827.44	7029.3	
827.61	4009.9	
827.79	4917.2	
827.96	4969.7	
828.13	5407.3	
828.3	4147.8	
828.47	3479.5	
828.65	5492	
828.82	5376.6	
828.99	5411.4	
829.16	4724.7	
829.34	5881.1	
829.51	5636	
829.68	4286.4	
829.85	4481.6	
830.02	6164.4	
830.2	5954.1	
830.37	3329.3	
830.54	5217.5	
830.71	6802	
830.88	5181.4	
831.05	3437.2	
831.23	3861.1	
831.4	6435.4	
831.57	7314	
831.74	3936.9	
831.91	3518.4	
832.09	5489.9	
832.26	5900.9	
832.43	4177.9	
832.6	4630.5	
832.77	5522.7	
832.94	6369.9	
833.12	3304.7	
833.29	4106.2	
833.46	5076.9	
833.63	7587	
833.8	4573.1	
833.97	4127.3	
834.15	5929.6	
834.32	5642.8	
834.49	4394.9	
834.66	4385.4	
834.83	6124.8	
835	4959.5	
835.17	3931.4	
835.35	4042	
835.52	5829.9	
835.69	5663.3	
835.86	4256.4	
836.03	3425.6	
836.2	5808	
836.37	5456.5	
836.55	4154	
836.72	3882.9	
836.89	5371.8	
837.06	5999.2	
837.23	4203.1	
837.4	4612	
837.57	6705.7	
837.75	7534.5	
837.92	3714.3	
838.09	4021.5	
838.26	5398.4	
838.43	6206	
838.6	4390.2	
838.77	3798.3	
838.94	7102.4	
839.11	6785.6	
839.29	4075.5	
839.46	3240.6	
839.63	5834.7	
839.8	5593	
839.97	4029	
840.14	3968.3	
840.31	5664	
840.48	5814.2	
840.65	3276.1	
840.82	3854.3	
841	5829.9	
841.17	5814.9	
841.34	3745.1	
841.51	3719.1	
841.68	5785.5	
841.85	5440.8	
842.02	3852.2	
842.19	3156.6	
842.36	5555.5	
842.53	5603.2	
842.7	3668.6	
842.87	4513.7	
843.05	7421.8	
843.22	5563.6	
843.39	3475.4	
843.56	3738.9	
843.73	5347.9	
843.9	5952.1	
844.07	6044.2	
844.24	5012.1	
844.41	8817.9	
844.58	5132.2	
844.75	3523.2	
844.92	3873.4	
845.09	5870.2	
845.26	5827.2	
845.43	3638.6	
845.6	3857	
845.77	5858.6	
845.94	5576.6	
846.12	4038.6	
846.29	4317.8	
846.46	6083.1	
846.63	5871.5	
846.8	3679.5	
846.97	4343.1	
847.14	6415.6	
847.31	5788.2	
847.48	4177.2	
847.65	4639.3	
847.82	6176.7	
847.99	6176.7	
848.16	4944.5	
848.33	4541.7	
848.5	5375.9	
848.67	6362.4	
848.84	3651.5	
849.01	3790.1	
849.18	5217.5	
849.35	4920.6	
849.52	4617.5	
849.69	3551.2	
849.86	6034.7	
850.03	6316.6	
850.2	3644.7	
850.37	4519.2	
850.54	6278.4	
850.71	5558.9	
850.88	4445.5	
851.05	3580.5	
851.22	5771.2	
851.39	6414.9	
851.56	3448.1	
851.73	4163.5	
851.9	5072.8	
852.07	6148.7	
852.24	4011.3	
852.41	3624.2	
852.58	5653.8	
852.75	5193	
852.92	4119.1	
853.09	3565.5	
853.26	5438.7	
853.43	6350.8	
853.6	3596.2	
853.77	3065.8	
853.94	6400.6	
854.11	5800.5	
854.28	5447.6	
854.44	3981.3	
854.61	6742.6	
854.78	6180.8	
854.95	3687.7	
855.12	4685.8	
855.29	4698	
855.46	6501.6	
855.63	3599	
855.8	5128.1	
855.97	5367.7	
856.14	6169.8	
856.31	5216.2	
856.48	3951.2	
856.65	5362.3	
856.82	4992.3	
856.99	3557.3	
857.16	3911.6	
857.33	7174	
857.49	5426.4	
857.66	4016.1	
857.83	4220.9	
858	5483.1	
858.17	5748.6	
858.34	3457	
858.51	3615.3	
858.68	6657.9	
858.85	6651.8	
859.02	4237.9	
859.19	4543.1	
859.36	5031.2	
859.52	5190.2	
859.69	3612.6	
859.86	4333.5	
860.03	5168.4	
860.2	6429.3	
860.37	3278.8	
860.54	3639.9	
860.71	6095.4	
860.88	6539.8	
861.05	4089.1	
861.21	4596.3	
861.38	6589	
861.55	4969.7	
861.72	3327.3	
861.89	4119.1	
862.06	6212.9	
862.23	6690.7	
862.4	3576.4	
862.56	3767.6	
862.73	5998.5	
862.9	5622.4	
863.07	4270	
863.24	3257	
863.41	4979.3	
863.58	5158.2	
863.75	3732.8	
863.91	4233.8	
864.08	6518.7	
864.25	6002.6	
864.42	4590.9	
864.59	5199.1	
864.76	6860.7	
864.93	5170.4	
865.09	3537.5	
865.26	3856.3	
865.43	6406.7	
865.6	6818.4	
865.77	3170.9	
865.94	3631	
866.1	6452.5	
866.27	6091.3	
866.44	5537	
866.61	3442.6	
866.78	5522.7	
866.95	5944.6	
867.11	3495.9	
867.28	3236.5	
867.45	6199.9	
867.62	5227.8	
867.79	4228.4	
867.96	3636.5	
868.12	5169.8	
868.29	6213.5	
868.46	3633.1	
868.63	4943.1	
868.8	6387.6	
868.97	6040.1	
869.13	3797.6	
869.3	3807.2	
869.47	5961.6	
869.64	6175.3	
869.81	3650.2	
869.97	3738.2	
870.14	5821.7	
870.31	6528.9	
870.48	3573.7	
870.65	4599.7	
870.81	5416.2	
870.98	5425.8	
871.15	4135.5	
871.32	3783.3	
871.48	5934.3	
871.65	6666.1	
871.82	3626.3	
871.99	4030.4	
872.16	7104.4	
872.32	6460.7	
872.49	3667.9	
872.66	3708.2	
872.83	6089.3	
872.99	5314.5	
873.16	4176.5	
873.33	3594.9	
873.5	5730.9	
873.67	5662.6	
873.83	3859.1	
874	4932.2	
874.17	5800.5	
874.34	7007.5	
874.5	4710.3	
874.67	4591.5	
874.84	6569.9	
875.01	5165	
875.17	5185.5	
875.34	3611.9	
875.51	5749.3	
875.68	6959.7	
875.84	4429.1	
876.01	5380	
876.18	6078.4	
876.34	6034	
876.51	3644	
876.68	3544.4	
876.85	5451.7	
877.01	6326.2	
877.18	5199.8	
877.35	3647.4	
877.52	5632.6	
877.68	5048.9	
877.85	3564.8	
878.02	3586.7	
878.18	5649.7	
878.35	5324.7	
878.52	2820.7	
878.69	4080.2	
878.85	6041.5	
879.02	6012.2	
879.19	5161.6	
879.35	3891.1	
879.52	6032	
879.69	6302.3	
879.86	3164.1	
880.02	4061.1	
880.19	5601.9	
880.36	6927.6	
880.52	4191.5	
880.69	4371.7	
880.86	6128.2	
881.02	6220.4	
881.19	4004.5	
881.36	3982.6	
881.52	6022.4	
881.69	5312.4	
881.86	3938.2	
882.02	3855.6	
882.19	6335	
882.36	7427.3	
882.52	3710.2	
882.69	5114.5	
882.86	5838.8	
883.02	5679	
883.19	4434.5	
883.36	4159.4	
883.52	6189.6	
883.69	7080.5	
883.86	3700	
884.02	3254.2	
884.19	6121.4	
884.36	5603.2	
884.52	4117.1	
884.69	3830.4	
884.86	5326.1	
885.02	6758.3	
885.19	4018.8	
885.36	4173.1	
885.52	5622.4	
885.69	5798.5	
885.86	5322.7	
886.02	4665.3	
886.19	6053.8	
886.35	5456.5	
886.52	4003.1	
886.69	5167	
886.85	5148.6	
887.02	6558.3	
887.19	6558.3	
887.35	6558.3	
887.52	6558.3	
887.68	6558.3	
887.85	6558.3	
888.02	6558.3	
888.18	6558.3	
888.35	6558.3	
888.51	6558.3	
888.68	6558.3	
888.85	6558.3	
889.01	6558.3	
889.18	6558.3	
889.35	6558.3	
889.51	6558.3	
889.68	6558.3	
889.84	6558.3	
890.01	6558.3	
890.17	6558.3	
890.34	6558.3	
890.51	6558.3	
890.67	6558.3	
890.84	6558.3	
891	6558.3	
891.17	6558.3	
891.34	6558.3	
891.5	6558.3	
891.67	6558.3	
891.83	6558.3	
892	6558.3	
892.16	6558.3	
892.33	6558.3	
892.5	6558.3	
892.66	6558.3	
892.83	6558.3	
892.99	6558.3	
893.16	6558.3	
893.32	6558.3	
893.49	6558.3	
893.65	6558.3	
893.82	6558.3	
893.99	6558.3	
894.15	6558.3	
894.32	6558.3	
894.48	6558.3	
894.65	6558.3	
894.81	6558.3	
894.98	6558.3	
895.14	6558.3	
895.31	6558.3	
895.47	6558.3	
895.64	6558.3	
895.81	6558.3	
895.97	6558.3	
896.14	6558.3	
896.3	6558.3	
896.47	6558.3	
896.63	6558.3	
896.8	6558.3	
896.96	6558.3	
897.13	6558.3	
897.29	6558.3	
897.46	6558.3	
897.62	6558.3	
897.79	6558.3	
897.95	6558.3	
898.12	6558.3	
898.28	6558.3	
898.45	6558.3	
898.61	6558.3	
898.78	6558.3	
898.94	6558.3	
899.11	6558.3	
899.27	6558.3	
899.44	6558.3	
899.6	6558.3	
899.77	6558.3	
899.93	6558.3	
900.1	6558.3	
900.26	6558.3	
900.43	6558.3	
900.59	6558.3	
900.76	6558.3	
900.92	6558.3	
901.09	6558.3	
901.25	6558.3	
901.42	6558.3	
901.58	6558.3	
901.75	6558.3	
901.91	6558.3	
902.07	6558.3	
902.24	6558.3	
902.4	6558.3	
902.57	6558.3	
902.73	6558.3	
902.9	6558.3	
903.06	6558.3	
903.23	6558.3	
903.39	6558.3	
903.56	6558.3	
903.72	6558.3	
903.88	6558.3	
904.05	6558.3	
904.21	6558.3	
904.38	6558.3	
904.54	6558.3	
904.71	6558.3	
904.87	6558.3	
905.03	6558.3	
905.2	6558.3	
905.36	6558.3	
905.53	6558.3	
905.69	6558.3	
905.86	6558.3	
906.02	6558.3	
906.18	6558.3	
906.35	6558.3	
906.51	6558.3	
906.68	6558.3	
906.84	6558.3	
907.01	6558.3	
907.17	6558.3	
907.33	6558.3	
907.5	6558.3	
907.66	6558.3	
907.83	6558.3	
907.99	6558.3	
908.15	6558.3	
908.32	6558.3	
908.48	6558.3	
908.65	6558.3	
908.81	6558.3	
908.97	6558.3	
909.14	6558.3	
909.3	6558.3	
909.47	6558.3	
909.63	6558.3	
909.79	6558.3	
909.96	6558.3	
910.12	6558.3	
910.28	6558.3	
910.45	6558.3	
910.61	6558.3	
910.78	6558.3	
910.94	6558.3	
911.1	6558.3	
911.27	6558.3	
911.43	6558.3	
911.59	6558.3	
911.76	6558.3	
911.92	6558.3	
912.08	6558.3	
912.25	6558.3	
912.41	6558.3	
912.57	6558.3	
912.74	6558.3	
912.9	6558.3	
913.07	6558.3	
913.23	6558.3	
913.39	6558.3	
913.56	6558.3	
913.72	6558.3	
913.88	6558.3	
914.05	6558.3	
914.21	6558.3	
914.37	6558.3	
914.54	6558.3	
914.7	6558.3	
914.86	6558.3	
915.03	6558.3	
915.19	6558.3	
