Wavelength	Intensities	
nm	a.u.	
179.22	1660.4	
179.44	1659.9	
179.65	1660.9	
179.86	1658.9	
180.08	1643.2	
180.29	3855	
180.51	2949.1	
180.72	4863.9	
180.94	5455.1	
181.15	2689	
181.37	2678.7	
181.58	4671.4	
181.79	4917.2	
182.01	2795.5	
182.22	2950.4	
182.44	4895.3	
182.65	4257	
182.87	3506.1	
183.08	3185.3	
183.29	5163.6	
183.51	4349.9	
183.72	2889	
183.94	3994.9	
184.15	4592.9	
184.37	4616.1	
184.58	2671.2	
184.79	3346.4	
185.01	4405.9	
185.22	4922	
185.44	3597.6	
185.65	3102	
185.86	4658.4	
186.08	4288.4	
186.29	2607.1	
186.51	2726.5	
186.72	4448.9	
186.94	5036	
187.15	3109.5	
187.36	3175.7	
187.58	6195.1	
187.79	4730.8	
188.01	3259.7	
188.22	4905.6	
188.43	5479.7	
188.65	4885.1	
188.86	2714.9	
189.08	3200.3	
189.29	4487.8	
189.5	4459.1	
189.72	2916.3	
189.93	3029.6	
190.15	5050.3	
190.36	5776	
190.57	3199.6	
190.79	3102	
191	5091.3	
191.22	5051	
191.43	3224.2	
191.64	2805	
191.86	5264	
192.07	5018.9	
192.29	2850.1	
192.5	2893.1	
192.71	5061.2	
192.93	4518.5	
193.14	2959.3	
193.35	2998.9	
193.57	4476.2	
193.78	5020.9	
194	2468.5	
194.21	2917.7	
194.42	4328.7	
194.64	4695.3	
194.85	3111.5	
195.07	3588.7	
195.28	4598.4	
195.49	4128.7	
195.71	3765.5	
195.92	2800.3	
196.13	4827.1	
196.35	4889.9	
196.56	3971	
196.78	3197.6	
196.99	5763.7	
197.2	5406	
197.42	3536.8	
197.63	3205.1	
197.84	4306.9	
198.06	4824.3	
198.27	2962	
198.48	3812.6	
198.7	4444.8	
198.91	4638	
199.13	3208.5	
199.34	3213.9	
199.55	5010	
199.77	4072	
199.98	2863.1	
200.19	3186	
200.41	4584	
200.62	4369	
200.83	3285.6	
201.05	3523.2	
201.26	4645.5	
201.47	4470	
201.69	2858.3	
201.9	2776.4	
202.11	4701.5	
202.33	5281	
202.54	3009.1	
202.76	3394.2	
202.97	4682.3	
203.18	4782	
203.4	3276.1	
203.61	3309.5	
203.82	4700.8	
204.04	4446.1	
204.25	3262.4	
204.46	3136.8	
204.68	4708.3	
204.89	4771.1	
205.1	3087.7	
205.32	2724.5	
205.53	4922	
205.74	5016.8	
205.96	2413.9	
206.17	3227.6	
206.38	4880.3	
206.6	5044.1	
206.81	3611.9	
207.02	3045.3	
207.24	4810.7	
207.45	5102.2	
207.66	3056.9	
207.88	2716.3	
208.09	4799.1	
208.3	4645.5	
208.52	2926.5	
208.73	3145	
208.94	4648.2	
209.15	5119.2	
209.37	3067.9	
209.58	3204.4	
209.79	5010.7	
210.01	4511	
210.22	2536.8	
210.43	2641.9	
210.65	4592.2	
210.86	4941.1	
211.07	3060.3	
211.29	2858.3	
211.5	4827.1	
211.71	4621.6	
211.93	2881.5	
212.14	2884.9	
212.35	4617.5	
212.56	4689.8	
212.78	3218	
212.99	2646.7	
213.2	5350	
213.42	4428.4	
213.63	2906.8	
213.84	3075.4	
214.06	4267.3	
214.27	4268.6	
214.48	3059	
214.69	3228.3	
214.91	5175.9	
215.12	5197.7	
215.33	3222.1	
215.55	3441.3	
215.76	5502.9	
215.97	4835.3	
216.18	3076.7	
216.4	3160.7	
216.61	4385.4	
216.82	5043.5	
217.04	2873.3	
217.25	2996.9	
217.46	5060.5	
217.67	4894	
217.89	2607.1	
218.1	2703.3	
218.31	4671.4	
218.53	4792.9	
218.74	2985.3	
218.95	2906.8	
219.16	4615.4	
219.38	5283.1	
219.59	2919	
219.8	3356.6	
220.01	5690.6	
220.23	4669.4	
220.44	3599.6	
220.65	2872.6	
220.87	4744.5	
221.08	5103.5	
221.29	2723.1	
221.5	3425.6	
221.72	6068.1	
221.93	4410	
222.14	3215.3	
222.35	3720.5	
222.57	4683.7	
222.78	4953.4	
222.99	3093.8	
223.2	3261.7	
223.42	4816.8	
223.63	4933.6	
223.84	2493.7	
224.05	2456.9	
224.27	5571.8	
224.48	5237.3	
224.69	3704.1	
224.9	3220.1	
225.12	4755.4	
225.33	4607.2	
225.54	2649.4	
225.75	2914.3	
225.97	4360.8	
226.18	4588.8	
226.39	3017.3	
226.6	2859.6	
226.82	4507.6	
227.03	4316.4	
227.24	3190.7	
227.45	2689	
227.67	4984.8	
227.88	5238.7	
228.09	3570.3	
228.3	3549.8	
228.52	4926.7	
228.73	4571.7	
228.94	2980.5	
229.15	2689	
229.36	4659.1	
229.58	4601.8	
229.79	3026.2	
230	3429	
230.21	5424.4	
230.43	4709.6	
230.64	3169.6	
230.85	3330.7	
231.06	5025	
231.28	4993.6	
231.49	2697.9	
231.7	3127.2	
231.91	4898.7	
232.12	4691.2	
232.34	2798.2	
232.55	3106.1	
232.76	5030.5	
232.97	4743.8	
233.18	2826.9	
233.4	3189.4	
233.61	4789.5	
233.82	4429.8	
234.03	3009.1	
234.25	2917	
234.46	6072.2	
234.67	4676.2	
234.88	3250.1	
235.09	2905.4	
235.31	4812.7	
235.52	4571.7	
235.73	3226.9	
235.94	2774.3	
236.15	4478.9	
236.37	5424.4	
236.58	2848.7	
236.79	3052.2	
237	4855.7	
237.21	4248.2	
237.43	3232.4	
237.64	2658.9	
237.85	7531.7	
238.06	4382.7	
238.27	3276.1	
238.48	2772.3	
238.7	4898.1	
238.91	4521.2	
239.12	3012.6	
239.33	3128.6	
239.54	4405.9	
239.76	4612.7	
239.97	3077.4	
240.18	3026.2	
240.39	5470.8	
240.6	4784.7	
240.82	3189.4	
241.03	2681.5	
241.24	4627	
241.45	5279	
241.66	2848	
241.87	3345	
242.09	5156.8	
242.3	5395.7	
242.51	3337.5	
242.72	3050.8	
242.93	4958.1	
243.14	4649.6	
243.36	3542.3	
243.57	3734.8	
243.78	5253.7	
243.99	4899.4	
244.2	3041.9	
244.41	2768.2	
244.63	4244.8	
244.84	4861.9	
245.05	3230.3	
245.26	3095.8	
245.47	4887.1	
245.68	4974.5	
245.9	3895.2	
246.11	3197.6	
246.32	4496.7	
246.53	4807.3	
246.74	4758.8	
246.95	2687.6	
247.16	4385.4	
247.38	4686.4	
247.59	2704.7	
247.8	3091.8	
248.01	4357.4	
248.22	4594.3	
248.43	2822.8	
248.64	3001.6	
248.86	4278.9	
249.07	4510.3	
249.28	2831	
249.49	3151.8	
249.7	5014.1	
249.91	5020.9	
250.12	2674.6	
250.34	2736.1	
250.55	4749.9	
250.76	4668	
250.97	3239.2	
251.18	3181.2	
251.39	5072.8	
251.6	4749.9	
251.81	3228.3	
252.03	3190.1	
252.24	4508.3	
252.45	4962.9	
252.66	2724.5	
252.87	3330.7	
253.08	4661.2	
253.29	5703.6	
253.5	2769.5	
253.72	3668.6	
253.93	4568.3	
254.14	5373.9	
254.35	2941.6	
254.56	3038.5	
254.77	4827.1	
254.98	4416.1	
255.19	2951.1	
255.41	3649.5	
255.62	4751.3	
255.83	5063.9	
256.04	3291.8	
256.25	3173	
256.46	5460.6	
256.67	4440.7	
256.88	3126.6	
257.09	3469.9	
257.31	4358.1	
257.52	4412.7	
257.73	3876.8	
257.94	2916.3	
258.15	4661.9	
258.36	4615.4	
258.57	3612.6	
258.78	2404.3	
258.99	4978.6	
259.2	4554	
259.41	2956.6	
259.63	3054.9	
259.84	5262.6	
260.05	5478.3	
260.26	3738.2	
260.47	2911.5	
260.68	5096	
260.89	4530.8	
261.1	3552.5	
261.31	2842.6	
261.52	5164.3	
261.73	5247.6	
261.95	3703.4	
262.16	3250.8	
262.37	5118.6	
262.58	5160.2	
262.79	3669.3	
263	2994.8	
263.21	4711.7	
263.42	4282.3	
263.63	3239.2	
263.84	2994.1	
264.05	5069.4	
264.26	5291.3	
264.47	3617.4	
264.69	3191.4	
264.9	5221	
265.11	4825	
265.32	2873.3	
265.53	2946.3	
265.74	4711.7	
265.95	4161.5	
266.16	3074.7	
266.37	3384.6	
266.58	4796.3	
266.79	4440	
267	2899.2	
267.21	2770.9	
267.42	4312.3	
267.63	4678.2	
267.84	3005.1	
268.06	2708.8	
268.27	5003.2	
268.48	5188.2	
268.69	3039.9	
268.9	3456.3	
269.11	5160.2	
269.32	4237.9	
269.53	3095.2	
269.74	2896.5	
269.95	4795.7	
270.16	4210.6	
270.37	3116.3	
270.58	3496.6	
270.79	4532.8	
271	5018.9	
271.21	3248.1	
271.42	3108.1	
271.63	4792.2	
271.84	4321.9	
272.05	2582.5	
272.26	2826.2	
272.47	4678.9	
272.68	4793.6	
272.89	3018.7	
273.11	3315	
273.32	4491.9	
273.53	5257.1	
273.74	3287.7	
273.95	3177.8	
274.16	5038	
274.37	4655	
274.58	3360	
274.79	2807.1	
275	4807.3	
275.21	5033.2	
275.42	3908.9	
275.63	3426.9	
275.84	4822.3	
276.05	5799.2	
276.26	3194.1	
276.47	3050.8	
276.68	4602.5	
276.89	5371.8	
277.1	3481.5	
277.31	2725.8	
277.52	4841.4	
277.73	5065.3	
277.94	2691	
278.15	2975.7	
278.36	4772.4	
278.57	4487.1	
278.78	2988.7	
278.99	3306.1	
279.2	4458.4	
279.41	4390.2	
279.62	3817.4	
279.83	2788.7	
280.04	5550.7	
280.25	4364.9	
280.46	3766.2	
280.67	3095.2	
280.88	4436.6	
281.09	5154.7	
281.3	3215.3	
281.51	3926.6	
281.72	4454.3	
281.93	4946.5	
282.14	2919.7	
282.35	3135.4	
282.56	5010	
282.77	4971.1	
282.98	2982.5	
283.19	3580.5	
283.4	5887.2	
283.61	4580.6	
283.82	2796.8	
284.03	3747.1	
284.24	4849.6	
284.45	5063.9	
284.66	3808.5	
284.87	3588	
285.08	5068.7	
285.29	5131.5	
285.5	2752.5	
285.71	3078.8	
285.92	5042.8	
286.12	5526.8	
286.33	3713.7	
286.54	3006.4	
286.75	4981.3	
286.96	4603.8	
287.17	2861	
287.38	3586	
287.59	4483	
287.8	4445.5	
288.01	3037.8	
288.22	3384.6	
288.43	4887.8	
288.64	4217.5	
288.85	3547.8	
289.06	3366.9	
289.27	4971.8	
289.48	5204.6	
289.69	3733.4	
289.9	3434.4	
290.11	5173.2	
290.32	4474.8	
290.53	3538.2	
290.74	3302	
290.94	4937	
291.15	4997	
291.36	2973.7	
291.57	3363.4	
291.78	4541	
291.99	4221.5	
292.2	2846	
292.41	3256.3	
292.62	5040.1	
292.83	4851	
293.04	3929.4	
293.25	2845.3	
293.46	4557.4	
293.67	5038	
293.88	2926.5	
294.09	2844.6	
294.29	4332.8	
294.5	4760.8	
294.71	3061.7	
294.92	2959.3	
295.13	4539	
295.34	5442.1	
295.55	2643.9	
295.76	2646.7	
295.97	4938.3	
296.18	5475.6	
296.39	2792.1	
296.6	2939.5	
296.81	4743.8	
297.01	4926	
297.22	3035.1	
297.43	2938.2	
297.64	4502.8	
297.85	4374.5	
298.06	2501.3	
298.27	2693.1	
298.48	4655	
298.69	4456.4	
298.9	3176.4	
299.11	2890.4	
299.31	4333.5	
299.52	4332.1	
299.73	3366.9	
299.94	3284.3	
300.15	4700.8	
300.36	4437.3	
300.57	3275.4	
300.78	3230.3	
300.99	4567	
301.2	4739.7	
301.4	2948.4	
301.61	3140.2	
301.82	4881	
302.03	4965	
302.24	3457	
302.45	2763.4	
302.66	4874.8	
302.87	5020.9	
303.08	2964.1	
303.29	3812	
303.49	4523.3	
303.7	4601.1	
303.91	2673.3	
304.12	3666.5	
304.33	4287.1	
304.54	4778.6	
304.75	2945.7	
304.96	2905.4	
305.16	4889.9	
305.37	5356.8	
305.58	2661	
305.79	2691.7	
306	4863.2	
306.21	4227.7	
306.42	2932.7	
306.63	4254.3	
306.83	4550.6	
307.04	4995	
307.25	3140.2	
307.46	3165.5	
307.67	4160.8	
307.88	4912.4	
308.09	2927.2	
308.29	2947.7	
308.5	4640	
308.71	5050.3	
308.92	3136.1	
309.13	2790.7	
309.34	4705.5	
309.55	4581.3	
309.75	3597.6	
309.96	3241.9	
310.17	4918.5	
310.38	4416.1	
310.59	3420.1	
310.8	2785.2	
311.01	5044.1	
311.21	4609.3	
311.42	2865.1	
311.63	2884.9	
311.84	4511.7	
312.05	4718.5	
312.26	3203.7	
312.46	3504.8	
312.67	4575.8	
312.88	4272.7	
313.09	2803.7	
313.3	2758.6	
313.51	5143.1	
313.71	5474.9	
313.92	2855.6	
314.13	2954.5	
314.34	4848.2	
314.55	4676.9	
314.76	3492.5	
314.96	3131.3	
315.17	4808.6	
315.38	4810	
315.59	2889.7	
315.8	2762	
316.01	5215.5	
316.21	5319.9	
316.42	2790	
316.63	3156.6	
316.84	4567	
317.05	5078.3	
317.26	3290.4	
317.46	2980.5	
317.67	4685.8	
317.88	4905.6	
318.09	3543	
318.3	2716.3	
318.5	4542.4	
318.71	4868	
318.92	4330.8	
319.13	3276.1	
319.34	5003.2	
319.54	5056.4	
319.75	2683.5	
319.96	2620	
320.17	4859.8	
320.38	5046.2	
320.58	2627.5	
320.79	3104	
321	5096	
321.21	5176.6	
321.42	3140.2	
321.62	2655.5	
321.83	4425	
322.04	4688.5	
322.25	3008.5	
322.46	2864.4	
322.66	4728.8	
322.87	4870.8	
323.08	3422.8	
323.29	2755.2	
323.5	5390.9	
323.7	4366.3	
323.91	3700	
324.12	3367.5	
324.33	4721.9	
324.53	4894	
324.74	3271.3	
324.95	3381.9	
325.16	4295.3	
325.37	4535.6	
325.57	2846.7	
325.78	2909.5	
325.99	4719.9	
326.2	4272.1	
326.4	3936.9	
326.61	2705.4	
326.82	4586.1	
327.03	4732.2	
327.24	3880.2	
327.44	3629.7	
327.65	4850.3	
327.86	4070	
328.07	3280.2	
328.27	2765.4	
328.48	5177.3	
328.69	4288.4	
328.9	3887	
329.1	2943.6	
329.31	4647.5	
329.52	5210	
329.73	2926.5	
329.93	3057.6	
330.14	4756.1	
330.35	4857.8	
330.56	4345.1	
330.76	3378.5	
330.97	4508.9	
331.18	4774.5	
331.39	3125.2	
331.59	2681.5	
331.8	5074.9	
332.01	5134.3	
332.22	2919	
332.42	3249.4	
332.63	4785.4	
332.84	4435.9	
333.05	3173	
333.25	2870.6	
333.46	4502.8	
333.67	4657.8	
333.88	2977.7	
334.08	3254.9	
334.29	5882.4	
334.5	5043.5	
334.7	2798.9	
334.91	3833.1	
335.12	4330.8	
335.33	4893.3	
335.53	3141.6	
335.74	4343.1	
335.95	4575.2	
336.16	4337.6	
336.36	3145	
336.57	3516.4	
336.78	4287.8	
336.98	5005.9	
337.19	3777.8	
337.4	3121.8	
337.61	5473.5	
337.81	4343.1	
338.02	2990.7	
338.23	3543	
338.43	5260.5	
338.64	4403.1	
338.85	2898.6	
339.05	3635.1	
339.26	5271.5	
339.47	4225.6	
339.68	2884.2	
339.88	4042.7	
340.09	4857.1	
340.3	5016.2	
340.5	3259.7	
340.71	2619.4	
340.92	4332.8	
341.13	5125.4	
341.33	2785.2	
341.54	3300.6	
341.75	4855.7	
341.95	4515.8	
342.16	3162.1	
342.37	3396.9	
342.57	4396.3	
342.78	4598.4	
342.99	3474	
343.19	2637.8	
343.4	4987.5	
343.61	4831.2	
343.81	3054.2	
344.02	2770.2	
344.23	4928.1	
344.43	5150.6	
344.64	3465.8	
344.85	3367.5	
345.06	4871.4	
345.26	5048.9	
345.47	3289	
345.68	3740.3	
345.88	4209.3	
346.09	4983.4	
346.3	3295.9	
346.5	2558.6	
346.71	4641.4	
346.92	4481	
347.12	2732.7	
347.33	3246.7	
347.54	4999.8	
347.74	5303.6	
347.95	3198.2	
348.16	2559.3	
348.36	4547.2	
348.57	4386.7	
348.78	3253.5	
348.98	3401.7	
349.19	4606.6	
349.39	4208.6	
349.6	2728.6	
349.81	2938.2	
350.01	4887.8	
350.22	4482.3	
350.43	3182.5	
350.63	3630.4	
350.84	4631.8	
351.05	4463.2	
351.25	2893.8	
351.46	2709.5	
351.67	5024.3	
351.87	4402.5	
352.08	3072.6	
352.29	3433.1	
352.49	5033.9	
352.7	5003.9	
352.9	2871.9	
353.11	3442.6	
353.32	5421	
353.52	4554.7	
353.73	2831.7	
353.94	3502.7	
354.14	4865.3	
354.35	4700.8	
354.55	2979.8	
354.76	3207.1	
354.97	4864.6	
355.17	4665.3	
355.38	2813.9	
355.59	3616.7	
355.79	4470	
356	4688.5	
356.2	3166.2	
356.41	2912.2	
356.62	4347.8	
356.82	4598.4	
357.03	3393.5	
357.24	3068.5	
357.44	4513.7	
357.65	4556.7	
357.85	3917.8	
358.06	3290.4	
358.27	4324.6	
358.47	4416.1	
358.68	2849.4	
358.88	3411.2	
359.09	4867.3	
359.3	5108.3	
359.5	3801.7	
359.71	3519.8	
359.91	5388.2	
360.12	4928.8	
360.33	3381.9	
360.53	3764.8	
360.74	4560.1	
360.94	4592.9	
361.15	3517	
361.36	3056.9	
361.56	5155.4	
361.77	4758.1	
361.97	3857	
362.18	3229.6	
362.38	5172.5	
362.59	4506.9	
362.8	3070.6	
363	2972.3	
363.21	4324.6	
363.41	4812	
363.62	3416.7	
363.83	3982.6	
364.03	5016.8	
364.24	5494.7	
364.44	4160.1	
364.65	4151.9	
364.85	4804.5	
365.06	4607.2	
365.27	3167.5	
365.47	3266.5	
365.68	5431.2	
365.88	4810	
366.09	3452.9	
366.29	3318.4	
366.5	4872.1	
366.71	5221.6	
366.91	4161.5	
367.12	3665.9	
367.32	5677.7	
367.53	5087.2	
367.73	3669.3	
367.94	4319.2	
368.14	5113.1	
368.35	5681.7	
368.56	3648.8	
368.76	3432.4	
368.97	5253.7	
369.17	6302.3	
369.38	3251.5	
369.58	3485	
369.79	4521.2	
369.99	5481	
370.2	4096.6	
370.4	3549.8	
370.61	5005.9	
370.82	5895.4	
371.02	3498.6	
371.23	3122.5	
371.43	4647.5	
371.64	5451.7	
371.84	3595.6	
372.05	4224.3	
372.25	6350.8	
372.46	5148.6	
372.66	3571	
372.87	3532.7	
373.07	5311.1	
373.28	6403.3	
373.48	4274.8	
373.69	4087.7	
373.9	5031.9	
374.1	5081	
374.31	4177.2	
374.51	3862.5	
374.72	5560.9	
374.92	4961.5	
375.13	4347.8	
375.33	3842	
375.54	5309	
375.74	5027.8	
375.95	3939.6	
376.15	4766.3	
376.36	5464	
376.56	5393	
376.77	4022.2	
376.97	4298	
377.18	6158.9	
377.38	5528.8	
377.59	4451.6	
377.79	3818.1	
378	5352.7	
378.2	5653.8	
378.41	3796.9	
378.61	3731.4	
378.82	5830.6	
379.02	5317.2	
379.23	3949.8	
379.43	4653	
379.64	5929.6	
379.84	5563	
380.05	3822.2	
380.25	3779.2	
380.46	5632.6	
380.66	5365	
380.87	4677.6	
381.07	4944.5	
381.28	6029.9	
381.48	5636.7	
381.69	3807.2	
381.89	3913.7	
382.1	4943.8	
382.3	5616.2	
382.51	4502.1	
382.71	5076.2	
382.91	5509.7	
383.12	5911.8	
383.32	4029	
383.53	4173.1	
383.73	5489.9	
383.94	5414.8	
384.14	4118.5	
384.35	3586	
384.55	5328.1	
384.76	5515.9	
384.96	4041.3	
385.17	4190.1	
385.37	5594.4	
385.58	5084.4	
385.78	4201.7	
385.98	3576.4	
386.19	5195.7	
386.39	5485.1	
386.6	3857.7	
386.8	3996.3	
387.01	5491.3	
387.21	5618.3	
387.42	4237.9	
387.62	4666.6	
387.83	5208.7	
388.03	5404.6	
388.23	4102.1	
388.44	4573.1	
388.64	4995	
388.85	5100.1	
389.05	4326	
389.26	4732.9	
389.46	6451.8	
389.67	6040.8	
389.87	4413.4	
390.07	4407.9	
390.28	5416.9	
390.48	5168.4	
390.69	3930.7	
390.89	4151.9	
391.1	5306.3	
391.3	5894.1	
391.5	4839.4	
391.71	5252.4	
391.91	5836	
392.12	6292.7	
392.32	4860.5	
392.53	4355.3	
392.73	5390.3	
392.93	5502.9	
393.14	4186.7	
393.34	4767.7	
393.55	5815.5	
393.75	5388.9	
393.95	4124.6	
394.16	4104.1	
394.36	5403.2	
394.57	5753.4	
394.77	3819.5	
394.98	4012.7	
395.18	5305.6	
395.38	5416.2	
395.59	4743.8	
395.79	4130.8	
396	5486.5	
396.2	5847	
396.4	4625.7	
396.61	4619.5	
396.81	5910.4	
397.02	5535	
397.22	4865.3	
397.42	4918.5	
397.63	6068.8	
397.83	5552.7	
398.04	4190.8	
398.24	4630.5	
398.44	5875.6	
398.65	5240.8	
398.85	4162.2	
399.05	4231.8	
399.26	5648.3	
399.46	6630.6	
399.67	4437.9	
399.87	4277.5	
400.07	5781.4	
400.28	6108.4	
400.48	4409.3	
400.69	5161.6	
400.89	6169.2	
401.09	6583.5	
401.3	4453	
401.5	5135.6	
401.7	6739.2	
401.91	6911.9	
402.11	4722.6	
402.32	4747.9	
402.52	6354.2	
402.72	6277.7	
402.93	4977.2	
403.13	4229.1	
403.33	6797.9	
403.54	5849.7	
403.74	4653.7	
403.94	5123.3	
404.15	5887.2	
404.35	6671.6	
404.56	4390.2	
404.76	5651	
404.96	6125.5	
405.17	6006	
405.37	5193	
405.57	4785.4	
405.78	6264.1	
405.98	5825.8	
406.18	4515.1	
406.39	5119.9	
406.59	6309.8	
406.79	5958.2	
407	4367.6	
407.2	4504.2	
407.4	6491.4	
407.61	6370.5	
407.81	4485.7	
408.01	5721.3	
408.22	5551.4	
408.42	6926.2	
408.62	5298.1	
408.83	5047.6	
409.03	6201.2	
409.23	6189.6	
409.44	5221	
409.64	5420.3	
409.84	7141.9	
410.05	6969.2	
410.25	5483.1	
410.45	5309	
410.66	6869.6	
410.86	8422.6	
411.06	5780.1	
411.27	5603.2	
411.47	8538.7	
411.67	7070.3	
411.88	5873.6	
412.08	6081.1	
412.28	7503.8	
412.49	7903.8	
412.69	5828.5	
412.89	5907.7	
413.09	7817.1	
413.3	7726.3	
413.5	5975.3	
413.7	5823.1	
413.91	7298.3	
414.11	7933.8	
414.31	5899.5	
414.52	6210.8	
414.72	7803.4	
414.92	7608.9	
415.12	5914.5	
415.33	6361	
415.53	7980.9	
415.73	8066.9	
415.94	6592.4	
416.14	6182.1	
416.34	7363.8	
416.55	7109.2	
416.75	7027.9	
416.95	6649.8	
417.15	8106.5	
417.36	8430.8	
417.56	7266.9	
417.76	6567.8	
417.97	8251.9	
418.17	8189.1	
418.37	6319.3	
418.57	6422.4	
418.78	8044.4	
418.98	7694.9	
419.18	6978.8	
419.38	6931.7	
419.59	7751.6	
419.79	7467.6	
419.99	6311.8	
420.2	6401.3	
420.4	8081.3	
420.6	8103.8	
420.8	6172.6	
421.01	6040.1	
421.21	8028.7	
421.41	8011.7	
421.61	6486.6	
421.82	6253.8	
422.02	7777.5	
422.22	8218.5	
422.42	6812.2	
422.63	6417.7	
422.83	7689.4	
423.03	8543.4	
423.23	6545.3	
423.44	5834.7	
423.64	7657.4	
423.84	7385.7	
424.04	6162.3	
424.25	5930.9	
424.45	8212.4	
424.65	8170	
424.85	5806.7	
425.06	6138.4	
425.26	8383	
425.46	7546.1	
425.66	6429.3	
425.87	6238.1	
426.07	8017.1	
426.27	7894.9	
426.47	6178.7	
426.67	5890.6	
426.88	8184.4	
427.08	7876.5	
427.28	6587	
427.48	5775.3	
427.69	7204.1	
427.89	7544	
428.09	6341.2	
428.29	5805.3	
428.5	7897.7	
428.7	7621.2	
428.9	5752.7	
429.1	6102.9	
429.3	7725.6	
429.51	7862.8	
429.71	5914.5	
429.91	6558.3	
430.11	8013	
430.31	8176.9	
430.52	6192.4	
430.72	6472.3	
430.92	8285.4	
431.12	7890.1	
431.32	6047.7	
431.53	6280.4	
431.73	7288	
431.93	8376.9	
432.13	5949.3	
432.33	5978.7	
432.54	7589.8	
432.74	7776.1	
432.94	5985.5	
433.14	6563.1	
433.34	8048.5	
433.55	7853.3	
433.75	6524.8	
433.95	7897.7	
434.15	7952.3	
434.35	7729.7	
434.56	6166.4	
434.76	5972.6	
434.96	7838.9	
435.16	8178.2	
435.36	6069.5	
435.56	6966.5	
435.77	7795.9	
435.97	7911.3	
436.17	7391.8	
436.37	6919.4	
436.57	7763.8	
436.78	7856.7	
436.98	8028	
437.18	7260	
437.38	8362.5	
437.58	7914.7	
437.78	7395.2	
437.99	6523.5	
438.19	8231.5	
438.39	8804.2	
438.59	6364.4	
438.79	6043.6	
438.99	8566.7	
439.2	7826	
439.4	5968.5	
439.6	6019	
439.8	7958.4	
440	8670.4	
440.2	6724.8	
440.4	6800.6	
440.61	8428.1	
440.81	8773.5	
441.01	6315.3	
441.21	7039.6	
441.41	8929.1	
441.61	8591.9	
441.81	7346.7	
442.02	8054.7	
442.22	9176.3	
442.42	8708	
442.62	6578.8	
442.82	6605.4	
443.02	9033.6	
443.22	8410.3	
443.43	6889.4	
443.63	6606.7	
443.83	8172.8	
444.03	8194.6	
444.23	7561.1	
444.43	7126.9	
444.63	8489.5	
444.83	9256.1	
445.04	6823.8	
445.24	7637.6	
445.44	8728.4	
445.64	8791.9	
445.84	7176.8	
446.04	7327.6	
446.24	8105.9	
446.44	8893.6	
446.65	6604.7	
446.85	6894.8	
447.05	8077.2	
447.25	8884.1	
447.45	6883.2	
447.65	6514.6	
447.85	8347.5	
448.05	7946.1	
448.25	7064.1	
448.46	6967.9	
448.66	8385.7	
448.86	8132.5	
449.06	6448.4	
449.26	7154.9	
449.46	8649.9	
449.66	8041.7	
449.86	6935.1	
450.06	6833.4	
450.26	8088.1	
450.47	8602.2	
450.67	6907.1	
450.87	7246.4	
451.07	8697	
451.27	8492.9	
451.47	6612.9	
451.67	7311.9	
451.87	8327	
452.07	9024.7	
452.27	6894.8	
452.47	6690	
452.67	8531.8	
452.88	8775.5	
453.08	6323.4	
453.28	7597.3	
453.48	9346.9	
453.68	8343.4	
453.88	6804	
454.08	6791.1	
454.28	8824.7	
454.48	8469.7	
454.68	7271.7	
454.88	7433.4	
455.08	8770.1	
455.28	8711.4	
455.48	6649.8	
455.68	7176.8	
455.89	9331.2	
456.09	8983.8	
456.29	7000.6	
456.49	7152.2	
456.69	9273.9	
456.89	8637	
457.09	7518.1	
457.29	7799.3	
457.49	8985.8	
457.69	9206.3	
457.89	7591.1	
458.09	7015.7	
458.29	9001.5	
458.49	9522.4	
458.69	7843.7	
458.89	7528.3	
459.09	9795.4	
459.29	9722.4	
459.49	7551.5	
459.69	8142	
459.9	9242.5	
460.1	9267.1	
460.3	7378.8	
460.5	7299	
460.7	9352.4	
460.9	9110	
461.1	7124.2	
461.3	8069	
461.5	9869.8	
461.7	9625.5	
461.9	7608.2	
462.1	7747.5	
462.3	9370.1	
462.5	9711.5	
462.7	7681.2	
462.9	7708.6	
463.1	10512	
463.3	10405	
463.5	7843.7	
463.7	8736.6	
463.9	9656.2	
464.1	9878	
464.3	8297	
464.5	8298.4	
464.7	10223	
464.9	10253	
465.1	9323.7	
465.3	8543.4	
465.5	10506	
465.7	10584	
465.9	8917.5	
466.1	8587.8	
466.3	10471	
466.5	10195	
466.7	9467.8	
466.9	8575.5	
467.1	10387	
467.3	10992	
467.5	9492.3	
467.7	8617.9	
467.9	11226	
468.1	11902	
468.3	9056.1	
468.5	9521.7	
468.7	10401	
468.9	10251	
469.1	8964.6	
469.3	9501.2	
469.5	11827	
469.7	10230	
469.9	9270.5	
470.1	8907.3	
470.3	10595	
470.5	10660	
470.7	9679.4	
470.9	8908	
471.1	10466	
471.3	10517	
471.5	8766.7	
471.69	9952.4	
471.89	10240	
472.09	9857.6	
472.29	9266.4	
472.49	9295	
472.69	10056	
472.89	10485	
473.09	8667	
473.29	8522.3	
473.49	10111	
473.69	10079	
473.89	9192.6	
474.09	8619.9	
474.29	10987	
474.49	10569	
474.69	9296.4	
474.89	8828.8	
475.09	10146	
475.29	10043	
475.49	8342.7	
475.69	8501.8	
475.88	11069	
476.08	10422	
476.28	8286.1	
476.48	8413.7	
476.68	10549	
476.88	10329	
477.08	8380.3	
477.28	8565.3	
477.48	9906	
477.68	10368	
477.88	8135.2	
478.08	8340	
478.28	10714	
478.48	9925.8	
478.67	8512.7	
478.87	7900.4	
479.07	10440	
479.27	10014	
479.47	8514.8	
479.67	8656.1	
479.87	10448	
480.07	10643	
480.27	8074.5	
480.47	9108.7	
480.67	10034	
480.87	10534	
481.06	8203.5	
481.26	8855.4	
481.46	10113	
481.66	9967.5	
481.86	8602.2	
482.06	9209	
482.26	9835	
482.46	10503	
482.66	8447.9	
482.86	8209.6	
483.05	10238	
483.25	9656.9	
483.45	10200	
483.65	8504.5	
483.85	9719	
484.05	10002	
484.25	8785.8	
484.45	9187.2	
484.65	10604	
484.84	10750	
485.04	8498.4	
485.24	8672.5	
485.44	10946	
485.64	9725.1	
485.84	8124.3	
486.04	9085.5	
486.24	10030	
486.44	10262	
486.63	8169.3	
486.83	8773.5	
487.03	10019	
487.23	10259	
487.43	8202.8	
487.63	9870.5	
487.83	10256	
488.02	10978	
488.22	8971.5	
488.42	9410.4	
488.62	10885	
488.82	10102	
489.02	8757.8	
489.22	8826.7	
489.41	10908	
489.61	10554	
489.81	8540.7	
490.01	8623.3	
490.21	10910	
490.41	11318	
490.61	8705.9	
490.8	8677.9	
491	10587	
491.2	10178	
491.4	9090.9	
491.6	8518.2	
491.8	10494	
491.99	10372	
492.19	8377.6	
492.39	8591.9	
492.59	10695	
492.79	10694	
492.99	9110	
493.18	8581	
493.38	10772	
493.58	11485	
493.78	9149	
493.98	8858.8	
494.18	10783	
494.37	10527	
494.57	9479.4	
494.77	9425.4	
494.97	11139	
495.17	11271	
495.37	9350.3	
495.56	9557.9	
495.76	11572	
495.96	11333	
496.16	10189	
496.36	9545.6	
496.55	11611	
496.75	11235	
496.95	9806.4	
497.15	9638.4	
497.35	11523	
497.54	11536	
497.74	9585.2	
497.94	10798	
498.14	12071	
498.34	11846	
498.53	9501.9	
498.73	9889.6	
498.93	11035	
499.13	11659	
499.33	9946.3	
499.52	10091	
499.72	11751	
499.92	11799	
500.12	9719.7	
500.32	9889.6	
500.51	11799	
500.71	11750	
500.91	10356	
501.11	10148	
501.31	11837	
501.5	12043	
501.7	10825	
501.9	9927.2	
502.1	11653	
502.29	11791	
502.49	10377	
502.69	10447	
502.89	11807	
503.09	11857	
503.28	9536	
503.48	9564	
503.68	11265	
503.88	11192	
504.07	10182	
504.27	9718.3	
504.47	11435	
504.67	11421	
504.86	10094	
505.06	9790	
505.26	11137	
505.46	12208	
505.65	9742.2	
505.85	9836.4	
506.05	11021	
506.25	11199	
506.44	9002.2	
506.64	9628.9	
506.84	10764	
507.04	11304	
507.23	9155.1	
507.43	9404.3	
507.63	12087	
507.83	10766	
508.02	9432.9	
508.22	9158.5	
508.42	12208	
508.62	10625	
508.81	9258.9	
509.01	9706.7	
509.21	10437	
509.4	10706	
509.6	9408.4	
509.8	8993.3	
510	10558	
510.19	11532	
510.39	8908	
510.59	9028.8	
510.79	10546	
510.98	11507	
511.18	9136.7	
511.38	9243.2	
511.57	11310	
511.77	10976	
511.97	9573.6	
512.17	8987.9	
512.36	11169	
512.56	10903	
512.76	8896.4	
512.95	8647.9	
513.15	11200	
513.35	10229	
513.55	9454.8	
513.74	8981	
513.94	11126	
514.14	10677	
514.33	9671.9	
514.53	9457.5	
514.73	10716	
514.92	10741	
515.12	9075.9	
515.32	9019.9	
515.51	10867	
515.71	11163	
515.91	10160	
516.11	9086.8	
516.3	12185	
516.5	10645	
516.7	9479.4	
516.89	9945.6	
517.09	10743	
517.29	10796	
517.48	9709.4	
517.68	9258.2	
517.88	10451	
518.07	10978	
518.27	9662.3	
518.47	8941.4	
518.66	11395	
518.86	10497	
519.06	8831.5	
519.25	9149	
519.45	10613	
519.65	11645	
519.84	9654.8	
520.04	10208	
520.24	12051	
520.43	11153	
520.63	9448.6	
520.83	9266.4	
521.02	10601	
521.22	11045	
521.42	9564	
521.61	9964.1	
521.81	10825	
522.01	10778	
522.2	9361.3	
522.4	9233.6	
522.6	11222	
522.79	10396	
522.99	9367.4	
523.18	8914.8	
523.38	10966	
523.58	11002	
523.77	10291	
523.97	8990.6	
524.17	12427	
524.36	11828	
524.56	10163	
524.76	9840.5	
524.95	11262	
525.15	11107	
525.34	9790	
525.54	9847.3	
525.74	11708	
525.93	11109	
526.13	10765	
526.33	9991.4	
526.52	12030	
526.72	11680	
526.91	10865	
527.11	10374	
527.31	12116	
527.5	12322	
527.7	10354	
527.89	9705.3	
528.09	11423	
528.29	11852	
528.48	10606	
528.68	10380	
528.87	12048	
529.07	12134	
529.27	10412	
529.46	10211	
529.66	11955	
529.85	12282	
530.05	10151	
530.25	10602	
530.44	12966	
530.64	11842	
530.83	10317	
531.03	10480	
531.23	12347	
531.42	12073	
531.62	10900	
531.81	10382	
532.01	12385	
532.21	12612	
532.4	10501	
532.6	10775	
532.79	13125	
532.99	12566	
533.18	10834	
533.38	11548	
533.58	12448	
533.77	12801	
533.97	10937	
534.16	11433	
534.36	13149	
534.55	12382	
534.75	11628	
534.95	10941	
535.14	13126	
535.34	12536	
535.53	10699	
535.73	12151	
535.92	13493	
536.12	12423	
536.31	10903	
536.51	11627	
536.71	12708	
536.9	12489	
537.1	10897	
537.29	10897	
537.49	13070	
537.68	12328	
537.88	11332	
538.07	10568	
538.27	12605	
538.46	13253	
538.66	10608	
538.86	11086	
539.05	12644	
539.25	12882	
539.44	11400	
539.64	10855	
539.83	12577	
540.03	13259	
540.22	10886	
540.42	10840	
540.61	12659	
540.81	12833	
541	11059	
541.2	11531	
541.39	12257	
541.59	12420	
541.78	11391	
541.98	10612	
542.18	11979	
542.37	11940	
542.57	10857	
542.76	11241	
542.96	12006	
543.15	12355	
543.35	10817	
543.54	10339	
543.74	12451	
543.93	12169	
544.13	10697	
544.32	11295	
544.52	12412	
544.71	11782	
544.91	9912.9	
545.1	10746	
545.3	11675	
545.49	12182	
545.69	9818	
545.88	10161	
546.08	12869	
546.27	12415	
546.47	10534	
546.66	10164	
546.86	12251	
547.05	12626	
547.24	10206	
547.44	10101	
547.63	11538	
547.83	12230	
548.02	10383	
548.22	10492	
548.41	11379	
548.61	12277	
548.8	9996.8	
549	9908.1	
549.19	11764	
549.39	12040	
549.58	9762.7	
549.78	10170	
549.97	11931	
550.17	11576	
550.36	10645	
550.55	11480	
550.75	11538	
550.94	12125	
551.14	9839.8	
551.33	10039	
551.53	11101	
551.72	11697	
551.92	10001	
552.11	9916.3	
552.31	11866	
552.5	11714	
552.69	11153	
552.89	9604.3	
553.08	11749	
553.28	11471	
553.47	9970.2	
553.67	10646	
553.86	12020	
554.06	10911	
554.25	9243.8	
554.44	9580.4	
554.64	12503	
554.83	12287	
555.03	9662.3	
555.22	9832.3	
555.42	11821	
555.61	11557	
555.8	9744.2	
556	9849.4	
556.19	10956	
556.39	11749	
556.58	9766.8	
556.78	9739.5	
556.97	11453	
557.16	11155	
557.36	10604	
557.55	9441.1	
557.75	10717	
557.94	11932	
558.13	9397.4	
558.33	9318.9	
558.52	11802	
558.72	10915	
558.91	9373.6	
559.1	9460.3	
559.3	10773	
559.49	10559	
559.69	9042.5	
559.88	9699.2	
560.07	11159	
560.27	11484	
560.46	9830.2	
560.66	9929.9	
560.85	11127	
561.04	10531	
561.24	9271.2	
561.43	9237.7	
561.63	10538	
561.82	10778	
562.01	10046	
562.21	9492.3	
562.4	11105	
562.59	11642	
562.79	9345.6	
562.98	9082.7	
563.18	11011	
563.37	11994	
563.56	9641.2	
563.76	9062.3	
563.95	10647	
564.14	10657	
564.34	9570.8	
564.53	9165.3	
564.73	11208	
564.92	11183	
565.11	9510.1	
565.31	9086.8	
565.5	11426	
565.69	10598	
565.89	9376.3	
566.08	9417.2	
566.27	11331	
566.47	11707	
566.66	9906	
566.85	9131.9	
567.05	11157	
567.24	10731	
567.44	9093.7	
567.63	10099	
567.82	11133	
568.02	11038	
568.21	9123	
568.4	9511.4	
568.6	10859	
568.79	10895	
568.98	9052.7	
569.18	9142.1	
569.37	10908	
569.56	12230	
569.76	9501.2	
569.95	10094	
570.14	11136	
570.34	11016	
570.53	9030.2	
570.72	8959.9	
570.91	11411	
571.11	10818	
571.3	9257.5	
571.49	9829.6	
571.69	10862	
571.88	10443	
572.07	9658.2	
572.27	9574.3	
572.46	10394	
572.65	11043	
572.85	9026.1	
573.04	9368.1	
573.23	11312	
573.43	10793	
573.62	8879.3	
573.81	9311.4	
574	10901	
574.2	10730	
574.39	9224.7	
574.58	9211.8	
574.78	11405	
574.97	10910	
575.16	9565.4	
575.36	9635.7	
575.55	11282	
575.74	11360	
575.93	8910.7	
576.13	9737.4	
576.32	10834	
576.51	11130	
576.71	9353.8	
576.9	10325	
577.09	11481	
577.28	11038	
577.48	9437.7	
577.67	8855.4	
577.86	10821	
578.05	11024	
578.25	9377	
578.44	9329.2	
578.63	10783	
578.83	11752	
579.02	8837	
579.21	9976.3	
579.4	10987	
579.6	10814	
579.79	9347.6	
579.98	10953	
580.17	11249	
580.37	11394	
580.56	9057.5	
580.75	9640.5	
580.94	11471	
581.14	11466	
581.33	9924.5	
581.52	9196.7	
581.71	11091	
581.91	11681	
582.1	8990.6	
582.29	9282.8	
582.48	10894	
582.68	10940	
582.87	9715.6	
583.06	9538.1	
583.25	11230	
583.45	10664	
583.64	9964.7	
583.83	10475	
584.02	10935	
584.21	11191	
584.41	9957.9	
584.6	9499.8	
584.79	11013	
584.98	11539	
585.18	9148.3	
585.37	9093	
585.56	10736	
585.75	11324	
585.94	9202.2	
586.14	9690.3	
586.33	11602	
586.52	11035	
586.71	9439.8	
586.91	9335.3	
587.1	10451	
587.29	11131	
587.48	9185.1	
587.67	9046.6	
587.87	11073	
588.06	10893	
588.25	9929.2	
588.44	9445.9	
588.63	10526	
588.83	10892	
589.02	8925	
589.21	8888.9	
589.4	10357	
589.59	10198	
589.78	8066.3	
589.98	8221.2	
590.17	9641.8	
590.36	9906	
590.55	7637.6	
590.74	8048.5	
590.94	10611	
591.13	9656.2	
591.32	7966.6	
591.51	7481.9	
591.7	9866.4	
591.89	9535.3	
592.09	7580.9	
592.28	7783	
592.47	8943.5	
592.66	10387	
592.85	7564.5	
593.05	7754.3	
593.24	9488.9	
593.43	10033	
593.62	7828.7	
593.81	8124.3	
594	9549.7	
594.19	9703.3	
594.39	7789.8	
594.58	7714	
594.77	9821.4	
594.96	10118	
595.15	7687.4	
595.34	8182.3	
595.54	9616.6	
595.73	9136.7	
595.92	7296.2	
596.11	7976.2	
596.3	9998.2	
596.49	9106	
596.68	7791.2	
596.88	8175.5	
597.07	9785.9	
597.26	9028.1	
597.45	7495.6	
597.64	8363.2	
597.83	9353.8	
598.02	9692.4	
598.22	7576.1	
598.41	8127.7	
598.6	9566.7	
598.79	9107.3	
598.98	7576.8	
599.17	8250.6	
599.36	9567.4	
599.55	10288	
599.74	9109.4	
599.94	8951.7	
600.13	9995.5	
600.32	9026.1	
600.51	7455.3	
600.7	7566.6	
600.89	10398	
601.08	10414	
601.27	7466.2	
601.47	8082.7	
601.66	9914.2	
601.85	10276	
602.04	7992.5	
602.23	8022.6	
602.42	9229.5	
602.61	9693	
602.8	7847.8	
602.99	7703.8	
603.18	9538.1	
603.37	9607.7	
603.57	8019.2	
603.76	8578.9	
603.95	10232	
604.14	9835.7	
604.33	7802.8	
604.52	7988.4	
604.71	9629.5	
604.9	9174.2	
605.09	8367.3	
605.28	8198.7	
605.47	10153	
605.66	9696.4	
605.86	8137.9	
606.05	7724.9	
606.24	10033	
606.43	8948.3	
606.62	7903.8	
606.81	8457.4	
607	9909.4	
607.19	9389.3	
607.38	7529.7	
607.57	7737.2	
607.76	9213.8	
607.95	8754.4	
608.14	8054	
608.33	8315.4	
608.52	9226.1	
608.72	9841.9	
608.91	7395.2	
609.1	7398.6	
609.29	9308	
609.48	8891.6	
609.67	8024.6	
609.86	7365.9	
610.05	8925.7	
610.24	9161.9	
610.43	7245.7	
610.62	7002	
610.81	9869.2	
611	9806.4	
611.19	7256	
611.38	7984.3	
611.57	9390.6	
611.76	10202	
611.95	7200	
612.14	7043.6	
612.33	9110	
612.52	8893	
612.71	7560.4	
612.9	6965.8	
613.09	8516.8	
613.28	10223	
613.47	7382.2	
613.66	7951.6	
613.85	9271.8	
614.04	8842.4	
614.24	7449.1	
614.43	6714.6	
614.62	9313.5	
614.81	9228.1	
615	7612.3	
615.19	7683.3	
615.38	8770.1	
615.57	9057.5	
615.76	7645.1	
615.95	8329.8	
616.14	9337.4	
616.33	8913.4	
616.52	7828.7	
616.71	7975.5	
616.9	9301.2	
617.09	9169.4	
617.28	7424.6	
617.47	8131.1	
617.66	8615.1	
617.85	8622.6	
618.04	8017.8	
618.22	7537.2	
618.41	8930.5	
618.6	9609.1	
618.79	7492.8	
618.98	7400	
619.17	9725.8	
619.36	8666.3	
619.55	7557	
619.74	7592.5	
619.93	9293.7	
620.12	8884.8	
620.31	7995.3	
620.5	8052.6	
620.69	9596.1	
620.88	10027	
621.07	8585.1	
621.26	7875.1	
621.45	9420.7	
621.64	9427.5	
621.83	7992.5	
622.02	7335.1	
622.21	9449.3	
622.4	9357.9	
622.59	8357.8	
622.78	8192.6	
622.97	9059.5	
623.16	9779.1	
623.35	7997.3	
623.54	7336.5	
623.72	9127.8	
623.91	9282.1	
624.1	8079.2	
624.29	7188.4	
624.48	10008	
624.67	9433.6	
624.86	8033.5	
625.05	7498.3	
625.24	10045	
625.43	9020.6	
625.62	9133.9	
625.81	7552.9	
626	9629.5	
626.19	9161.9	
626.38	8021.9	
626.56	7577.5	
626.75	9046.6	
626.94	9534.7	
627.13	7922.2	
627.32	7151.5	
627.51	9510.1	
627.7	10209	
627.89	7135.8	
628.08	7960.5	
628.27	8830.8	
628.46	8923	
628.65	7260.7	
628.83	6994.5	
629.02	9358.5	
629.21	8796	
629.4	7583.6	
629.59	7811.6	
629.78	8766.7	
629.97	9417.9	
630.16	7759.1	
630.35	7342.7	
630.54	9861	
630.72	9591.3	
630.91	7358.4	
631.1	7796.6	
631.29	9245.9	
631.48	9267.7	
631.67	7894.2	
631.86	7441	
632.05	9021.3	
632.24	9009.7	
632.42	7138.5	
632.61	7759.8	
632.8	8871.8	
632.99	8791.2	
633.18	7669.6	
633.37	7914	
633.56	9179.7	
633.75	9100.5	
633.93	7634.1	
634.12	7467.6	
634.31	9790.7	
634.5	9519.6	
634.69	7487.4	
634.88	7799.3	
635.07	9074.5	
635.25	9517.6	
635.44	8069	
635.63	8208.9	
635.82	8955.8	
636.01	8417.2	
636.2	8137.9	
636.39	7771.4	
636.57	9771.5	
636.76	9367.4	
636.95	7296.9	
637.14	8247.9	
637.33	9299.8	
637.52	9755.8	
637.7	7182.9	
637.89	7914.7	
638.08	9032.9	
638.27	9977	
638.46	7852.6	
638.65	8124.3	
638.83	9893.1	
639.02	8797.4	
639.21	7756.3	
639.4	8084.7	
639.59	9081.4	
639.78	8883.4	
639.96	7268.9	
640.15	7390.4	
640.34	8998.8	
640.53	8988.5	
640.72	6995.9	
640.91	7274.4	
641.09	8549.6	
641.28	9420	
641.47	7178.1	
641.66	7826.7	
641.85	8945.5	
642.03	9056.8	
642.22	7567.9	
642.41	7268.2	
642.6	8532.5	
642.79	8159.8	
642.97	7047.1	
643.16	7494.9	
643.35	8502.5	
643.54	8322.3	
643.73	6941.2	
643.91	7541.3	
644.1	8213.7	
644.29	8627.4	
644.48	6966.5	
644.67	7002.7	
644.85	8268.3	
645.04	8512.7	
645.23	6487.3	
645.42	6877.1	
645.6	8105.9	
645.79	8828.1	
645.98	6595.1	
646.17	5999.9	
646.36	7765.9	
646.54	8122.9	
646.73	7128.3	
646.92	6283.2	
647.11	7876.5	
647.29	8497	
647.48	6239.5	
647.67	6120.7	
647.86	8693.6	
648.05	8668.4	
648.23	6407.4	
648.42	7313.3	
648.61	8244.4	
648.8	8035.5	
648.98	6132.3	
649.17	6324.1	
649.36	7683.3	
649.55	7395.9	
649.73	6236.7	
649.92	6748.1	
650.11	7610.9	
650.3	7876.5	
650.48	6286.6	
650.67	6247.7	
650.86	8090.2	
651.05	7307.2	
651.23	6306.4	
651.42	6255.9	
651.61	7683.3	
651.79	7636.9	
651.98	6341.2	
652.17	6041.5	
652.36	7968	
652.54	7247.1	
652.73	6072.2	
652.92	6025.8	
653.11	7981.6	
653.29	8038.3	
653.48	5696.1	
653.67	6328.2	
653.85	7766.6	
654.04	8501.1	
654.23	6402.6	
654.42	6147.3	
654.6	7337.2	
654.79	7855.3	
654.98	5773.9	
655.16	6008.1	
655.35	7071	
655.54	6905.8	
655.73	5655.8	
655.91	5504.9	
656.1	7747.5	
656.29	6886.6	
656.47	5297.4	
656.66	6425.2	
656.85	7200	
657.03	7214.3	
657.22	5659.2	
657.41	5766.4	
657.59	7307.8	
657.78	7136.5	
657.97	5520.6	
658.16	6057.9	
658.34	7697.6	
658.53	8057.4	
658.72	6656.6	
658.9	6975.4	
659.09	7433.4	
659.28	7441	
659.46	5865.4	
659.65	5809.4	
659.84	7183.6	
660.02	7660.1	
660.21	5892.7	
660.4	5735	
660.58	7868.3	
660.77	7440.3	
660.96	6169.8	
661.14	5520.6	
661.33	8275.2	
661.52	8176.2	
661.7	5527.5	
661.89	7879.9	
662.08	7152.2	
662.26	6788.3	
662.45	5711.1	
662.64	5782.8	
662.82	7617.8	
663.01	7071.6	
663.2	5695.4	
663.38	6280.4	
663.57	7581.6	
663.75	7419.1	
663.94	5866.1	
664.13	6802.7	
664.31	7106.5	
664.5	7531.7	
664.69	6217.6	
664.87	6444.3	
665.06	7017.7	
665.25	7311.9	
665.43	6608.8	
665.62	6574	
665.8	7519.5	
665.99	7087.3	
666.18	5905.7	
666.36	5967.1	
666.55	7578.8	
666.74	7453.9	
666.92	5712.5	
667.11	6707.8	
667.29	7137.2	
667.48	7530.4	
667.67	6403.3	
667.85	5857.2	
668.04	7111.2	
668.22	7065.5	
668.41	5869.5	
668.6	6050.4	
668.78	6968.6	
668.97	7148.8	
669.15	6126.8	
669.34	5416.9	
669.53	6951.5	
669.71	7241.6	
669.9	5427.1	
670.08	5940.5	
670.27	6893.5	
670.46	7370.6	
670.64	6055.2	
670.83	6220.4	
671.01	6777.4	
671.2	7182.2	
671.38	5550.7	
671.57	5417.6	
671.76	7672.4	
671.94	8050.6	
672.13	5393.7	
672.31	6197.8	
672.5	7491.5	
672.69	6842.9	
672.87	5550	
673.06	5785.5	
673.24	7356.3	
673.43	6931.7	
673.61	6013.5	
673.8	5654.4	
673.98	7278.5	
674.17	7426.6	
674.36	6159.6	
674.54	5970.5	
674.73	7131.7	
674.91	7393.8	
675.1	5789.6	
675.28	5501.5	
675.47	7049.1	
675.65	7431.4	
675.84	5779.4	
676.03	5879	
676.21	6896.2	
676.4	6477.7	
676.58	6201.2	
676.77	6070.9	
676.95	7983	
677.14	6868.9	
677.32	5421.7	
677.51	5363.6	
677.69	7393.8	
677.88	6709.1	
678.06	5367.7	
678.25	5507	
678.44	7020.4	
678.62	6822.5	
678.81	5301.5	
678.99	5885.2	
679.18	7572.7	
679.36	7340.6	
679.55	5577.3	
679.73	6020.3	
679.92	7233.4	
680.1	6886.6	
680.29	6459.3	
680.47	5577.3	
680.66	6831.3	
680.84	7379.5	
681.03	5160.9	
681.21	5859.9	
681.4	6820.4	
681.58	6705.7	
681.77	5505.6	
681.95	5427.1	
682.14	7423.9	
682.32	7701	
682.51	6096.8	
682.69	5285.8	
682.88	6827.9	
683.06	7100.3	
683.25	5894.1	
683.43	6146.6	
683.62	7021.8	
683.8	7233.4	
683.99	6174.6	
684.17	5697.4	
684.36	7713.3	
684.54	6910.5	
684.73	5145.2	
684.91	5272.2	
685.1	7095.5	
685.28	6544.6	
685.46	5535	
685.65	5565	
685.83	7011.6	
686.02	6602	
686.2	5150	
686.39	5195	
686.57	6441.5	
686.76	7412.3	
686.94	5158.8	
687.13	5264	
687.31	6844.3	
687.5	6633.4	
687.68	4878.3	
687.86	5622.4	
688.05	7850.5	
688.23	6332.3	
688.42	5785.5	
688.6	5276.3	
688.79	6626.5	
688.97	6653.9	
689.16	5585.5	
689.34	4848.9	
689.52	7135.8	
689.71	7296.2	
689.89	5768.4	
690.08	5393	
690.26	6947.4	
690.45	6800.6	
690.63	5892.7	
690.81	5525.4	
691	6840.2	
691.18	6643.6	
691.37	5556.1	
691.55	7017.7	
691.74	6642.9	
691.92	8034.2	
692.1	5560.9	
692.29	5162.9	
692.47	6826.6	
692.66	6349.4	
692.84	5332.9	
693.02	5665.4	
693.21	6358.3	
693.39	6832.7	
693.58	5825.8	
693.76	5380	
693.94	7602.1	
694.13	7450.5	
694.31	5501.5	
694.5	6251.1	
694.68	6722.8	
694.86	7135.1	
695.05	5835.3	
695.23	5923.4	
695.42	7448.5	
695.6	8854.7	
695.78	6302.3	
695.97	5587.5	
696.15	7488.7	
696.34	6966.5	
696.52	5482.4	
696.7	6113.2	
696.89	7293.5	
697.07	6830.7	
697.25	5991.7	
697.44	6955.6	
697.62	7275.8	
697.81	7305.8	
697.99	5790.3	
698.17	6075	
698.36	6793.1	
698.54	7234.8	
698.72	6074.3	
698.91	5328.1	
699.09	7040.2	
699.28	6836.8	
699.46	5848.3	
699.64	5664.7	
699.83	6937.8	
700.01	7569.3	
700.19	6359.6	
700.38	5233.2	
700.56	7652.6	
700.74	6989	
700.93	5499.5	
701.11	6136.4	
701.29	7381.6	
701.48	8250.6	
701.66	5771.9	
701.84	5791	
702.03	7229.3	
702.21	7790.5	
702.39	5509	
702.58	5927.5	
702.76	7607.5	
702.94	7630	
703.13	5538.4	
703.31	7229.3	
703.49	7111.2	
703.68	7749.5	
703.86	5683.1	
704.04	6447	
704.23	7524.9	
704.41	7720.2	
704.59	5939.8	
704.78	6664.8	
704.96	8564.6	
705.14	7631.4	
705.33	5725.4	
705.51	6333	
705.69	7326.3	
705.87	8030.1	
706.06	6504.3	
706.24	5767.8	
706.42	7655.3	
706.61	7663.5	
706.79	6612.9	
706.97	5823.1	
707.16	7281.9	
707.34	7653.9	
707.52	6541.9	
707.7	6004	
707.89	7247.8	
708.07	7157	
708.25	6524.1	
708.44	6662	
708.62	7384.3	
708.8	8023.3	
708.98	6768.5	
709.17	5958.2	
709.35	7580.2	
709.53	7626	
709.72	5870.2	
709.9	6008.7	
710.08	7864.9	
710.26	7858.1	
710.45	6994.5	
710.63	6147.3	
710.81	7573.4	
710.99	7625.3	
711.18	6572.6	
711.36	6059.3	
711.54	7531.7	
711.72	7970	
711.91	6268.8	
712.09	5791	
712.27	7530.4	
712.45	7912.7	
712.64	6339.8	
712.82	5655.8	
713	7197.9	
713.18	7212.3	
713.37	5737.7	
713.55	6369.2	
713.73	7682.6	
713.91	6821.1	
714.1	5789.6	
714.28	5345.2	
714.46	7258	
714.64	6690	
714.83	4852.3	
715.01	5371.8	
715.19	6666.8	
715.37	6067.4	
715.55	4986.8	
715.74	5191.6	
715.92	7090.1	
716.1	5667.4	
716.28	5949.3	
716.47	5216.9	
716.65	6277.7	
716.83	6244.3	
717.01	5128.1	
717.19	5085.8	
717.38	7716.1	
717.56	6009.4	
717.74	5365	
717.92	4700.8	
718.1	6879.1	
718.29	6391.7	
718.47	4506.2	
718.65	5045.5	
718.83	7018.4	
719.01	6951.5	
719.2	4701.5	
719.38	5442.8	
719.56	6896.2	
719.74	8043.7	
719.92	5280.3	
720.11	5892	
720.29	6931.7	
720.47	6215.6	
720.65	4857.8	
720.83	5361.6	
721.02	6414.2	
721.2	6256.5	
721.38	5350	
721.56	4810.7	
721.74	5799.8	
721.92	5965.7	
722.11	5583.4	
722.29	5428.5	
722.47	6747.4	
722.65	6255.2	
722.83	4792.9	
723.01	5353.4	
723.2	6251.1	
723.38	6598.6	
723.56	4386.7	
723.74	5228.5	
723.92	5970.5	
724.1	6688.7	
724.29	4732.9	
724.47	5520.6	
724.65	6077	
724.83	5900.9	
725.01	4631.1	
725.19	5276.9	
725.37	5941.2	
725.56	5932.3	
725.74	4582	
725.92	4767.7	
726.1	5965.1	
726.28	6153.5	
726.46	5048.2	
726.64	4825	
726.83	6172.6	
727.01	6386.9	
727.19	4579.3	
727.37	5198.4	
727.55	6281.1	
727.73	6629.3	
727.91	4565.6	
728.09	4483	
728.28	6675.7	
728.46	6836.8	
728.64	5221	
728.82	5251.7	
729	7379.5	
729.18	6920.8	
729.36	4682.3	
729.54	6287.3	
729.72	7728.4	
729.91	6462	
730.09	6135	
730.27	5206.6	
730.45	6485.9	
730.63	6925.5	
730.81	5685.2	
730.99	5099.4	
731.17	7317.4	
731.35	6365.8	
731.53	5503.6	
731.71	5199.8	
731.9	7076.4	
732.08	7191.8	
732.26	5321.3	
732.44	5045.5	
732.62	7271	
732.8	6922.1	
732.98	5661.3	
733.16	4902.2	
733.34	6883.2	
733.52	5902.2	
733.7	5234.6	
733.88	5322	
734.07	6711.9	
734.25	6479.8	
734.43	4847.5	
734.61	5935.7	
734.79	7621.9	
734.97	6535.8	
735.15	4969.1	
735.33	5289.9	
735.51	6737.8	
735.69	6468.9	
735.87	5907.7	
736.05	5274.2	
736.23	6596.5	
736.41	6323.4	
736.59	5168.4	
736.77	5258.5	
736.95	6954.2	
737.13	6419.7	
737.32	4970.4	
737.5	5105.6	
737.68	7318.8	
737.86	6424.5	
738.04	4842.8	
738.22	6081.1	
738.4	6221	
738.58	6485.9	
738.76	5221	
738.94	4502.1	
739.12	6370.5	
739.3	6205.3	
739.48	5622.4	
739.66	5444.2	
739.84	6498.2	
740.02	6411.5	
740.2	4609.3	
740.38	4686.4	
740.56	6793.8	
740.74	5871.5	
740.92	5343.8	
741.1	5119.9	
741.28	6349.4	
741.46	6077.7	
741.64	4885.1	
741.82	5360.2	
742	6374	
742.18	6210.8	
742.36	5066	
742.54	4737.6	
742.72	6762.4	
742.9	5704.3	
743.08	5193.6	
743.26	4413.4	
743.44	6753.5	
743.62	6653.9	
743.8	5365	
743.98	4693.9	
744.16	6386.2	
744.34	6181.5	
744.52	5274.2	
744.7	5225.7	
744.88	6520	
745.06	6168.5	
745.24	5236.7	
745.42	5346.6	
745.6	6561	
745.78	6426.5	
745.96	4386.7	
746.14	4599.7	
746.32	7021.1	
746.5	6432.7	
746.68	4904.2	
746.86	4644.8	
747.03	6744	
747.21	5547.9	
747.39	4898.7	
747.57	4498	
747.75	6192.4	
747.93	6430.6	
748.11	4492.6	
748.29	4489.8	
748.47	7300.3	
748.65	5933.6	
748.83	5057.8	
749.01	4845.5	
749.19	6331	
749.37	5640.1	
749.55	4746.5	
749.73	4746.5	
749.91	6096.1	
750.09	5847	
750.26	4793.6	
750.44	4293.9	
750.62	6039.5	
750.8	5954.1	
750.98	4277.5	
751.16	4525.3	
751.34	6130.3	
751.52	5606	
751.7	5072.1	
751.88	4128	
752.06	6456.6	
752.24	6232	
752.42	4107.5	
752.59	4453.6	
752.77	5899.5	
752.95	6864.1	
753.13	5012.1	
753.31	4405.9	
753.49	5739.1	
753.67	6034	
753.85	4630.5	
754.03	4348.5	
754.21	6195.1	
754.38	6385.6	
754.56	4379.9	
754.74	3738.9	
754.92	5551.4	
755.1	5988.3	
755.28	3661.8	
755.46	3673.4	
755.64	6442.2	
755.82	6399.9	
755.99	3745.7	
756.17	3657.7	
756.35	4518.5	
756.53	5552	
756.71	2834.4	
756.89	3461.1	
757.07	5290.6	
757.25	4605.9	
757.42	3845.4	
757.6	4470	
757.78	5398.4	
757.96	4666	
758.14	3727.3	
758.32	3386.7	
758.5	4414.1	
758.67	5006.6	
758.85	3594.9	
759.03	3655.6	
759.21	5113.1	
759.39	4715.1	
759.57	3249.4	
759.75	4071.4	
759.92	5606.7	
760.1	5154.7	
760.28	4384.7	
760.46	4599.1	
760.64	4941.7	
760.82	4781.3	
760.99	4386.1	
761.17	3699.3	
761.35	5614.2	
761.53	4773.1	
761.71	3885.7	
761.89	4344.4	
762.06	5516.5	
762.24	5216.2	
762.42	3990.8	
762.6	3806.5	
762.78	5228.5	
762.96	5663.3	
763.13	4258.4	
763.31	3988.1	
763.49	5733.6	
763.67	5113.1	
763.85	4602.5	
764.02	4975.9	
764.2	5955.5	
764.38	5293.3	
764.56	3966.9	
764.74	4563.6	
764.91	5997.1	
765.09	5176.6	
765.27	3771	
765.45	3535.5	
765.63	6036	
765.8	5895.4	
765.98	3399.6	
766.16	3605.1	
766.34	4907.6	
766.52	4676.9	
766.69	4287.8	
766.87	3447.4	
767.05	5250.3	
767.23	5716.6	
767.41	3673.4	
767.58	3925.3	
767.76	5628.5	
767.94	5670.8	
768.12	3689.8	
768.29	4278.2	
768.47	5184.1	
768.65	5754.1	
768.83	3450.8	
769	4251.6	
769.18	4894.6	
769.36	5326.1	
769.54	4212.7	
769.72	3432.4	
769.89	5629.9	
770.07	5634.6	
770.25	3710.2	
770.43	4581.3	
770.6	6147.3	
770.78	6382.2	
770.96	3837.9	
771.14	4243.4	
771.31	5484.5	
771.49	5008.6	
771.67	3181.9	
771.85	3375.7	
772.02	4481.6	
772.2	4977.2	
772.38	3938.9	
772.55	3538.9	
772.73	5209.3	
772.91	5005.9	
773.09	3807.2	
773.26	3846.1	
773.44	5169.8	
773.62	4959.5	
773.8	3436.5	
773.97	3278.1	
774.15	5205.9	
774.33	4967	
774.5	3340.2	
774.68	3610.6	
774.86	5313.1	
775.04	4892.6	
775.21	3450.8	
775.39	3352.5	
775.57	5128.8	
775.74	5404.6	
775.92	3238.5	
776.1	3203	
776.27	5041.4	
776.45	5941.8	
776.63	3353.9	
776.81	3050.8	
776.98	4788.8	
777.16	5565	
777.34	3436.5	
777.51	3702	
777.69	4805.2	
777.87	4640	
778.04	3530.7	
778.22	3893.9	
778.4	4695.3	
778.57	5123.3	
778.75	2951.1	
778.93	3138.9	
779.1	4515.8	
779.28	4364.2	
779.46	2962.7	
779.64	3286.3	
779.81	5220.3	
779.99	5802.6	
780.17	3837.2	
780.34	3904.1	
780.52	4821.6	
780.69	4956.8	
780.87	3551.2	
781.05	3191.4	
781.22	4887.1	
781.4	4891.9	
781.58	3299.3	
781.75	2686.9	
781.93	4904.9	
782.11	4422.9	
782.28	3935.5	
782.46	3216.7	
782.64	4323.9	
782.81	4997.7	
782.99	3362.8	
783.17	3309.5	
783.34	4911.7	
783.52	4485.1	
783.69	3457	
783.87	4036.5	
784.05	4505.5	
784.22	4417.5	
784.4	4063.9	
784.58	3509.5	
784.75	5130.8	
784.93	4511.7	
785.1	3239.2	
785.28	3758.7	
785.46	4941.7	
785.63	4401.1	
785.81	3325.2	
785.99	3051.5	
786.16	4597.7	
786.34	4825.7	
786.51	3117.7	
786.69	3492.5	
786.87	4212.7	
787.04	4604.5	
787.22	3061.7	
787.39	3771	
787.57	4445.5	
787.75	5172.5	
787.92	3874.1	
788.1	3788.1	
788.27	4386.7	
788.45	4207.2	
788.63	3657.7	
788.8	2695.8	
788.98	4854.4	
789.15	4162.2	
789.33	2759.3	
789.5	3263.8	
789.68	5079.6	
789.86	5111	
790.03	3559.4	
790.21	3164.1	
790.38	5169.8	
790.56	4552	
790.73	3036.5	
790.91	3031	
791.09	4380.6	
791.26	4904.9	
791.44	3318.4	
791.61	2860.3	
791.79	4394.3	
791.96	4400.4	
792.14	2951.8	
792.32	2596.1	
792.49	4404.5	
792.67	4520.5	
792.84	3016	
793.02	2826.2	
793.19	4790.9	
793.37	5249.6	
793.54	2639.1	
793.72	2923.1	
793.89	5298.1	
794.07	4366.3	
794.25	3244.7	
794.42	2699.2	
794.6	5164.3	
794.77	4866.7	
794.95	3536.2	
795.12	3049.4	
795.3	4440.7	
795.47	4752	
795.65	3384.6	
795.82	3258.3	
796	4283	
796.17	5616.2	
796.35	3168.2	
796.52	3680.2	
796.7	4794.3	
796.87	4891.2	
797.05	3191.4	
797.22	3781.2	
797.4	4806.6	
797.57	5517.9	
797.75	3316.3	
797.92	3093.8	
798.1	5102.9	
798.27	4235.2	
798.45	2732.7	
798.62	2873.3	
798.8	4594.3	
798.97	4962.2	
799.15	3364.1	
799.32	3245.3	
799.5	4091.8	
799.67	4559.5	
799.85	3553.2	
800.02	2656.9	
800.2	4386.1	
800.37	4540.3	
800.55	3603.1	
800.72	3153.2	
800.9	4952	
801.07	5227.1	
801.25	4015.4	
801.42	3339.6	
801.6	4980.7	
801.77	4626.4	
801.95	3147.7	
802.12	3007.8	
802.29	4743.1	
802.47	4635.2	
802.64	3351.8	
802.82	2606.4	
802.99	4382.7	
803.17	5025.7	
803.34	3294.5	
803.52	2953.9	
803.69	5462.6	
803.87	4111.6	
804.04	3235.8	
804.21	3248.1	
804.39	5244.2	
804.56	4451.6	
804.74	2841.9	
804.91	3333.4	
805.09	4337.6	
805.26	4425.7	
805.44	2863.1	
805.61	3084.9	
805.78	4816.8	
805.96	4842.1	
806.13	3370.3	
806.31	3592.1	
806.48	4040	
806.66	4424.3	
806.83	3322.5	
807	3283.6	
807.18	4377.9	
807.35	4636.6	
807.53	3093.8	
807.7	2719	
807.87	5215.5	
808.05	4348.5	
808.22	3517.7	
808.4	2709.5	
808.57	4328.7	
808.74	4102.8	
808.92	3080.8	
809.09	3759.4	
809.27	4369	
809.44	4706.2	
809.61	2710.8	
809.79	2902.7	
809.96	5247.6	
810.14	4819.6	
810.31	2656.9	
810.48	3170.9	
810.66	4444.8	
810.83	4941.7	
811.01	2976.4	
811.18	3287	
811.35	4893.3	
811.53	3906.8	
811.7	3545.7	
811.87	3364.8	
812.05	4441.4	
812.22	4284.4	
812.39	2925.9	
812.57	2825.5	
812.74	4461.8	
812.92	5492.7	
813.09	3170.3	
813.26	3352.5	
813.44	5373.9	
813.61	4289.8	
813.78	2708.1	
813.96	3435.1	
814.13	4437.3	
814.3	4268.6	
814.48	3748.5	
814.65	3074	
814.82	5168.4	
815	4142.4	
815.17	3186.6	
815.34	3837.2	
815.52	4346.5	
815.69	4343.1	
815.87	3160	
816.04	3125.9	
816.21	4381.3	
816.38	3994.9	
816.56	3104	
816.73	2897.2	
816.9	5341.1	
817.08	4845.5	
817.25	3033.7	
817.42	3539.6	
817.6	4052.2	
817.77	4301.4	
817.94	3246.7	
818.12	2917	
818.29	4207.9	
818.46	5930.9	
818.64	3102.7	
818.81	2865.8	
818.98	4222.9	
819.16	5628.5	
819.33	3370.3	
819.5	3276.1	
819.67	4631.8	
819.85	5049.6	
820.02	3166.2	
820.19	3314.3	
820.37	4555.4	
820.54	4229.1	
820.71	3280.8	
820.88	3960.1	
821.06	4539.7	
821.23	4165.6	
821.4	3289	
821.58	3271.3	
821.75	4819.6	
821.92	4505.5	
822.09	2694.4	
822.27	2776.4	
822.44	4366.3	
822.61	4310.3	
822.79	2760.7	
822.96	4842.1	
823.13	4612	
823.3	4145.8	
823.48	3031.7	
823.65	2816.6	
823.82	4888.5	
823.99	4101.4	
824.17	3779.2	
824.34	2850.1	
824.51	5541.8	
824.68	4427	
824.86	2970.9	
825.03	3189.4	
825.2	4373.8	
825.37	5103.5	
825.55	2970.9	
825.72	3137.5	
825.89	5462.6	
826.06	5138.4	
826.24	3170.3	
826.41	3165.5	
826.58	5171.8	
826.75	4515.8	
826.92	2616.6	
827.1	2815.3	
827.27	6723.5	
827.44	5431.9	
827.61	2968.2	
827.79	3589.4	
827.96	4241.3	
828.13	4301.4	
828.3	3105.4	
828.47	2675.3	
828.65	4618.2	
828.82	4546.5	
828.99	3835.8	
829.16	3341.6	
829.34	4872.1	
829.51	4721.9	
829.68	3219.4	
829.85	3237.8	
830.02	5174.5	
830.2	4869.4	
830.37	2532	
830.54	3748.5	
830.71	5424.4	
830.88	4394.3	
831.05	2524.5	
831.23	2921.1	
831.4	5267.4	
831.57	5681.1	
831.74	3048.1	
831.91	2660.3	
832.09	4679.6	
832.26	4887.1	
832.43	3068.5	
832.6	3403.7	
832.77	4620.2	
832.94	5180.7	
833.12	2484.2	
833.29	2946.3	
833.46	4661.9	
833.63	5851.7	
833.8	3278.8	
833.97	3018.7	
834.15	4934.2	
834.32	4770.4	
834.49	3221.5	
834.66	3250.1	
834.83	5025	
835	4235.9	
835.17	2976.4	
835.35	2937.5	
835.52	4810.7	
835.69	4719.2	
835.86	3104	
836.03	2615.9	
836.2	4906.3	
836.37	4601.8	
836.55	3048.7	
836.72	2914.3	
836.89	4575.8	
837.06	4982.7	
837.23	3136.8	
837.4	3403	
837.57	5470.1	
837.75	5871.5	
837.92	2826.9	
838.09	2971.6	
838.26	4563.6	
838.43	4981.3	
838.6	3218	
838.77	2926.5	
838.94	5585.5	
839.11	5464	
839.29	3084.9	
839.46	2506.7	
839.63	4936.3	
839.8	4691.9	
839.97	2971.6	
840.14	2914.9	
840.31	4724	
840.48	4907.6	
840.65	2523.8	
840.82	2942.2	
841	4882.4	
841.17	4784.7	
841.34	2785.2	
841.51	2865.8	
841.68	4840	
841.85	4594.3	
842.02	2893.8	
842.19	2425.5	
842.36	4711.7	
842.53	4674.8	
842.7	2807.1	
842.87	3325.9	
843.05	5866.1	
843.22	4614.8	
843.39	2657.6	
843.56	2818.7	
843.73	4509.6	
843.9	4931.5	
844.07	4276.8	
844.24	3573.7	
844.41	6498.2	
844.58	4291.2	
844.75	2708.8	
844.92	2870.6	
845.09	4832.5	
845.26	4803.2	
845.43	2822.1	
845.6	2894.5	
845.77	4874.8	
845.94	4650.3	
846.12	3023.5	
846.29	3155.2	
846.46	5060.5	
846.63	4801.8	
846.8	2734	
846.97	3186	
847.14	5225.1	
847.31	4840	
847.48	3048.7	
847.65	3319.8	
847.82	5023	
847.99	5007.3	
848.16	3528.7	
848.33	3280.8	
848.5	4475.5	
848.67	5214.8	
848.84	2752.5	
849.01	2837.1	
849.18	4489.8	
849.35	4187.4	
849.52	3340.9	
849.69	2745	
849.86	5037.3	
850.03	5094	
850.2	2761.3	
850.37	3302	
850.54	5047.6	
850.71	4599.7	
850.88	3279.5	
851.05	2688.3	
851.22	4753.3	
851.39	5223	
851.56	2657.6	
851.73	3140.9	
851.9	4285.7	
852.07	4994.3	
852.24	3025.5	
852.41	2692.4	
852.58	4814.8	
852.75	4392.2	
852.92	3029.6	
853.09	2628.9	
853.26	4524	
853.43	5076.9	
853.6	2724.5	
853.77	2434.4	
853.94	5220.3	
854.11	4276.8	
854.28	3876.8	
854.44	2930.6	
854.61	5552	
854.78	5020.9	
854.95	2729.9	
855.12	3411.2	
855.29	4011.3	
855.46	5201.2	
855.63	2757.9	
855.8	3660.4	
855.97	4476.2	
856.14	5063.9	
856.31	3824.9	
856.48	2979.1	
856.65	4597.7	
856.82	4305.5	
856.99	2666.5	
857.16	2977.7	
857.33	5711.1	
857.49	4640.7	
857.66	2949.8	
857.83	3105.4	
858	4609.3	
858.17	4784.7	
858.34	2611.2	
858.51	2749.1	
858.68	5288.5	
858.85	5279	
859.02	3191.4	
859.19	3299.3	
859.36	4351.3	
859.52	4311	
859.69	2800.9	
859.86	3151.8	
860.03	4347.8	
860.2	5292	
860.37	2581.1	
860.54	2760	
860.71	4941.1	
860.88	5241.4	
861.05	3061	
861.21	3389.4	
861.38	5286.5	
861.55	4207.9	
861.72	2517	
861.89	3029.6	
862.06	5051	
862.23	5328.8	
862.4	2661	
862.56	2835.1	
862.73	4901.5	
862.9	4662.5	
863.07	3149.8	
863.24	2551.1	
863.41	4230.4	
863.58	4389.5	
863.75	2783.9	
863.91	3156.6	
864.08	5127.4	
864.25	4896.7	
864.42	3308.2	
864.59	3713.7	
864.76	5429.8	
864.93	4330.8	
865.09	2691.7	
865.26	2949.8	
865.43	5193.6	
865.6	5406.6	
865.77	2406.4	
865.94	2723.8	
866.1	5110.4	
866.27	4934.9	
866.44	3949.8	
866.61	2683.5	
866.78	4582	
866.95	4884.4	
867.11	2665.8	
867.28	2463.7	
867.45	5105.6	
867.62	4335.5	
867.79	3115.6	
867.96	2790	
868.12	4298	
868.29	4939	
868.46	2764.8	
868.63	3528	
868.8	5075.5	
868.97	4934.2	
869.13	2914.9	
869.3	2891	
869.47	4866	
869.64	5074.9	
869.81	2742.9	
869.97	2727.2	
870.14	4725.3	
870.31	5243.5	
870.48	2712.9	
870.65	3362.1	
870.81	4600.4	
870.98	4587.4	
871.15	3054.2	
871.32	2869.2	
871.48	4880.3	
871.65	5309	
871.82	2703.3	
871.99	3008.5	
872.16	5685.8	
872.32	5111	
872.49	2779.8	
872.66	2764.1	
872.83	4985.4	
872.99	4427	
873.16	3078.1	
873.33	2704.7	
873.5	4667.3	
873.67	4728.1	
873.83	2883.5	
874	3535.5	
874.17	4832.5	
874.34	5500.8	
874.5	3485	
874.67	3282.2	
874.84	5230.5	
875.01	4225	
875.17	3661.8	
875.34	2732.7	
875.51	4754	
875.68	5633.3	
875.84	3280.2	
876.01	3824.9	
876.18	4927.4	
876.34	4909.7	
876.51	2663.7	
876.68	2686.3	
876.85	4571.7	
877.01	5180	
877.18	3763.5	
877.35	2721.8	
877.52	4781.3	
877.68	4277.5	
877.85	2740.2	
878.02	2676	
878.18	4575.2	
878.35	4425.7	
878.52	2216.6	
878.69	3009.1	
878.85	5038	
879.02	4842.1	
879.19	3731.4	
879.35	2942.2	
879.52	4986.1	
879.69	5043.5	
879.86	2448.7	
880.02	3030.3	
880.19	4677.6	
880.36	5537	
880.52	3065.8	
880.69	3248.1	
880.86	5020.9	
881.02	4983.4	
881.19	2960.7	
881.36	2960.7	
881.52	4913.1	
881.69	4407.2	
881.86	2914.9	
882.02	2862.4	
882.19	5122.7	
882.36	5819	
882.52	2818	
882.69	3712.3	
882.86	4748.6	
883.02	4740.4	
883.19	3252.2	
883.36	3061	
883.52	5044.1	
883.69	5579.3	
883.86	2760.7	
884.02	2525.1	
884.19	4983.4	
884.36	4682.3	
884.52	3037.8	
884.69	2935.4	
884.86	4489.1	
885.02	5335	
885.19	3013.9	
885.36	3080.1	
885.52	4648.2	
885.69	4777.2	
885.86	3825.6	
886.02	3439.2	
886.19	4978.6	
886.35	4502.1	
886.52	3015.3	
886.69	3707.5	
886.85	4323.9	
887.02	5209.3	
887.19	5209.3	
887.35	5209.3	
887.52	5209.3	
887.68	5209.3	
887.85	5209.3	
888.02	5209.3	
888.18	5209.3	
888.35	5209.3	
888.51	5209.3	
888.68	5209.3	
888.85	5209.3	
889.01	5209.3	
889.18	5209.3	
889.35	5209.3	
889.51	5209.3	
889.68	5209.3	
889.84	5209.3	
890.01	5209.3	
890.17	5209.3	
890.34	5209.3	
890.51	5209.3	
890.67	5209.3	
890.84	5209.3	
891	5209.3	
891.17	5209.3	
891.34	5209.3	
891.5	5209.3	
891.67	5209.3	
891.83	5209.3	
892	5209.3	
892.16	5209.3	
892.33	5209.3	
892.5	5209.3	
892.66	5209.3	
892.83	5209.3	
892.99	5209.3	
893.16	5209.3	
893.32	5209.3	
893.49	5209.3	
893.65	5209.3	
893.82	5209.3	
893.99	5209.3	
894.15	5209.3	
894.32	5209.3	
894.48	5209.3	
894.65	5209.3	
894.81	5209.3	
894.98	5209.3	
895.14	5209.3	
895.31	5209.3	
895.47	5209.3	
895.64	5209.3	
895.81	5209.3	
895.97	5209.3	
896.14	5209.3	
896.3	5209.3	
896.47	5209.3	
896.63	5209.3	
896.8	5209.3	
896.96	5209.3	
897.13	5209.3	
897.29	5209.3	
897.46	5209.3	
897.62	5209.3	
897.79	5209.3	
897.95	5209.3	
898.12	5209.3	
898.28	5209.3	
898.45	5209.3	
898.61	5209.3	
898.78	5209.3	
898.94	5209.3	
899.11	5209.3	
899.27	5209.3	
899.44	5209.3	
899.6	5209.3	
899.77	5209.3	
899.93	5209.3	
900.1	5209.3	
900.26	5209.3	
900.43	5209.3	
900.59	5209.3	
900.76	5209.3	
900.92	5209.3	
901.09	5209.3	
901.25	5209.3	
901.42	5209.3	
901.58	5209.3	
901.75	5209.3	
901.91	5209.3	
902.07	5209.3	
902.24	5209.3	
902.4	5209.3	
902.57	5209.3	
902.73	5209.3	
902.9	5209.3	
903.06	5209.3	
903.23	5209.3	
903.39	5209.3	
903.56	5209.3	
903.72	5209.3	
903.88	5209.3	
904.05	5209.3	
904.21	5209.3	
904.38	5209.3	
904.54	5209.3	
904.71	5209.3	
904.87	5209.3	
905.03	5209.3	
905.2	5209.3	
905.36	5209.3	
905.53	5209.3	
905.69	5209.3	
905.86	5209.3	
906.02	5209.3	
906.18	5209.3	
906.35	5209.3	
906.51	5209.3	
906.68	5209.3	
906.84	5209.3	
907.01	5209.3	
907.17	5209.3	
907.33	5209.3	
907.5	5209.3	
907.66	5209.3	
907.83	5209.3	
907.99	5209.3	
908.15	5209.3	
908.32	5209.3	
908.48	5209.3	
908.65	5209.3	
908.81	5209.3	
908.97	5209.3	
909.14	5209.3	
909.3	5209.3	
909.47	5209.3	
909.63	5209.3	
909.79	5209.3	
909.96	5209.3	
910.12	5209.3	
910.28	5209.3	
910.45	5209.3	
910.61	5209.3	
910.78	5209.3	
910.94	5209.3	
911.1	5209.3	
911.27	5209.3	
911.43	5209.3	
911.59	5209.3	
911.76	5209.3	
911.92	5209.3	
912.08	5209.3	
912.25	5209.3	
912.41	5209.3	
912.57	5209.3	
912.74	5209.3	
912.9	5209.3	
913.07	5209.3	
913.23	5209.3	
913.39	5209.3	
913.56	5209.3	
913.72	5209.3	
913.88	5209.3	
914.05	5209.3	
914.21	5209.3	
914.37	5209.3	
914.54	5209.3	
914.7	5209.3	
914.86	5209.3	
915.03	5209.3	
915.19	5209.3	
