Wavelength	Intensities	
nm	a.u.	
179.22	1523.3	
179.44	1516.2	
179.65	1530.5	
179.86	1501.8	
180.08	1522.3	
180.29	3309.5	
180.51	2667.8	
180.72	4510.3	
180.94	4845.5	
181.15	2357.9	
181.37	2385.9	
181.58	4358.1	
181.79	4422.2	
182.01	2445.3	
182.22	2539.5	
182.44	4498	
182.65	4025.6	
182.87	3025.5	
183.08	2710.1	
183.29	4737	
183.51	4009.9	
183.72	2538.1	
183.94	3379.8	
184.15	4312.3	
184.37	4159.4	
184.58	2341.5	
184.79	2867.8	
185.01	4124.6	
185.22	4582.7	
185.44	2973	
185.65	2621.4	
185.86	4371	
186.08	4002.4	
186.29	2296.5	
186.51	2444.6	
186.72	4100.7	
186.94	4629.1	
187.15	2742.9	
187.36	2751.8	
187.58	5509.7	
187.79	4308.9	
188.01	2780.5	
188.22	4027.7	
188.43	4887.1	
188.65	4460.5	
188.86	2425.5	
189.08	2772.9	
189.29	4185.4	
189.5	4100	
189.72	2570.9	
189.93	2608.4	
190.15	4554.7	
190.36	5132.9	
190.57	2785.2	
190.79	2681.5	
191	4572.4	
191.22	4581.3	
191.43	2797.5	
191.64	2514.9	
191.86	4680.3	
192.07	4582	
192.29	2473.3	
192.5	2551.1	
192.71	4631.1	
192.93	4164.2	
193.14	2536.1	
193.35	2665.1	
193.57	4134.8	
193.78	4610.7	
194	2196.1	
194.21	2519	
194.42	3998.3	
194.64	4258.4	
194.85	2733.4	
195.07	3073.3	
195.28	4184	
195.49	3872	
195.71	3230.3	
195.92	2445.3	
196.13	4397	
196.35	4422.2	
196.56	3407.8	
196.78	2738.8	
196.99	5204.6	
197.2	4829.8	
197.42	2957.3	
197.63	2721.1	
197.84	4001	
198.06	4345.8	
198.27	2580.4	
198.48	3176.4	
198.7	4177.9	
198.91	4298	
199.13	2784.6	
199.34	2758.6	
199.55	4686.4	
199.77	3744.4	
199.98	2557.9	
200.19	2795.5	
200.41	4285	
200.62	4043.4	
200.83	2781.1	
201.05	3041.2	
201.26	4298	
201.47	4141.7	
201.69	2510.8	
201.9	2452.8	
202.11	4285	
202.33	4835.9	
202.54	2631	
202.76	2916.3	
202.97	4251.6	
203.18	4395.6	
203.4	2858.3	
203.61	2887	
203.82	4323.3	
204.04	4071.4	
204.25	2774.3	
204.46	2719.7	
204.68	4290.5	
204.89	4386.7	
205.1	2683.5	
205.32	2399.5	
205.53	4455.7	
205.74	4569.7	
205.96	2189.3	
206.17	2700.6	
206.38	4457.1	
206.6	4534.2	
206.81	3003	
207.02	2636.4	
207.24	4422.2	
207.45	4685.8	
207.66	2699.9	
207.88	2422.1	
208.09	4356	
208.3	4276.8	
208.52	2506	
208.73	2700.6	
208.94	4297.3	
209.15	4679.6	
209.37	2642.6	
209.58	2732	
209.79	4588.1	
210.01	4177.2	
210.22	2296.5	
210.43	2357.2	
210.65	4225	
210.86	4433.2	
211.07	2598.2	
211.29	2446.6	
211.5	4403.8	
211.71	4240.7	
211.93	2534	
212.14	2489	
212.35	4256.4	
212.56	4281.6	
212.78	2759.3	
212.99	2313.5	
213.2	4788.8	
213.42	4180.6	
213.63	2583.9	
213.84	2643.9	
214.06	3977.2	
214.27	3971.7	
214.48	2654.2	
214.69	2770.9	
214.91	4693.9	
215.12	4726	
215.33	2769.5	
215.55	2915.6	
215.76	4890.5	
215.97	4429.1	
216.18	2666.5	
216.4	2707.4	
216.61	4090.5	
216.82	4510.3	
217.04	2529.2	
217.25	2624.1	
217.46	4594.3	
217.67	4435.2	
217.89	2346.3	
218.1	2365.4	
218.31	4282.3	
218.53	4356.7	
218.74	2637.8	
218.95	2525.8	
219.16	4231.1	
219.38	4788.2	
219.59	2518.3	
219.8	2852.8	
220.01	5029.1	
220.23	4351.3	
220.44	3089	
220.65	2415.9	
220.87	4356.7	
221.08	4624.3	
221.29	2442.5	
221.5	2983.9	
221.72	5281.7	
221.93	4043.4	
222.14	2779.8	
222.35	3133.4	
222.57	4252.3	
222.78	4605.2	
222.99	2706.7	
223.2	2806.4	
223.42	4438.6	
223.63	4472.1	
223.84	2159.9	
224.05	2182.5	
224.27	4959.5	
224.48	4767	
224.69	3176.4	
224.9	2746.3	
225.12	4363.5	
225.33	4246.1	
225.54	2356.5	
225.75	2549.7	
225.97	4040.6	
226.18	4226.3	
226.39	2614.6	
226.6	2553.1	
226.82	4155.3	
227.03	3993.5	
227.24	2727.9	
227.45	2408.4	
227.67	4577.2	
227.88	4711.7	
228.09	3009.8	
228.3	2973	
228.52	4463.9	
228.73	4233.2	
228.94	2610.5	
229.15	2355.2	
229.36	4298.7	
229.58	4300.1	
229.79	2683.5	
230	2960.7	
230.21	4883	
230.43	4308.9	
230.64	2706	
230.85	2779.8	
231.06	4618.2	
231.28	4524	
231.49	2371.5	
231.7	2755.2	
231.91	4507.6	
232.12	4233.2	
232.34	2487.6	
232.55	2696.5	
232.76	4611.3	
232.97	4291.9	
233.18	2510.1	
233.4	2785.2	
233.61	4272.1	
233.82	4120.5	
234.03	2634.4	
234.25	2615.3	
234.46	5421	
234.67	4291.2	
234.88	2806.4	
235.09	2567.5	
235.31	4339	
235.52	4203.1	
235.73	2708.1	
235.94	2392	
236.15	4119.8	
236.37	4894	
236.58	2461.7	
236.79	2628.9	
237	4473.4	
237.21	3951.9	
237.43	2818	
237.64	2349.7	
237.85	6428.6	
238.06	3976.5	
238.27	2775	
238.48	2489	
238.7	4469.4	
238.91	4181.3	
239.12	2628.2	
239.33	2794.8	
239.54	4018.1	
239.76	4192.9	
239.97	2648.7	
240.18	2670.6	
240.39	4842.1	
240.6	4283	
240.82	2790	
241.03	2395.4	
241.24	4216.8	
241.45	4695.3	
241.66	2461	
241.87	2848	
242.09	4723.3	
242.3	4781.3	
242.51	2858.3	
242.72	2643.2	
242.93	4496	
243.14	4273.4	
243.36	3062.4	
243.57	3187.3	
243.78	4741.7	
243.99	4449.6	
244.2	2667.8	
244.41	2441.2	
244.63	3951.2	
244.84	4382	
245.05	2815.3	
245.26	2612.5	
245.47	4507.6	
245.68	4461.8	
245.9	3239.9	
246.11	2833	
246.32	4092.5	
246.53	4432.5	
246.74	3994.2	
246.95	2358.6	
247.16	4123.9	
247.38	4280.9	
247.59	2458.2	
247.8	2707.4	
248.01	3938.2	
248.22	4258.4	
248.43	2456.9	
248.64	2639.8	
248.86	4027.7	
249.07	4139.6	
249.28	2462.3	
249.49	2747.7	
249.7	4561.5	
249.91	4530.8	
250.12	2368.8	
250.34	2404.3	
250.55	4360.1	
250.76	4274.8	
250.97	2727.9	
251.18	2725.8	
251.39	4539	
251.6	4367.6	
251.81	2772.9	
252.03	2721.1	
252.24	4158.1	
252.45	4467.3	
252.66	2418	
252.87	2850.1	
253.08	4263.9	
253.29	5175.9	
253.5	2476	
253.72	3102.7	
253.93	4190.8	
254.14	4840	
254.35	2576.3	
254.56	2614.6	
254.77	4368.3	
254.98	4063.2	
255.19	2574.3	
255.41	3062.4	
255.62	4425	
255.83	4562.2	
256.04	2859	
256.25	2705.4	
256.46	4924.7	
256.67	4069.3	
256.88	2758.6	
257.09	2979.1	
257.31	3982.6	
257.52	4014.7	
257.73	3295.2	
257.94	2596.8	
258.15	4260.5	
258.36	4214.7	
258.57	3023.5	
258.78	2161.3	
258.99	4569.7	
259.2	4087.7	
259.41	2538.8	
259.63	2650.8	
259.84	4728.1	
260.05	4799.1	
260.26	3090.4	
260.47	2519	
260.68	4642.7	
260.89	4199	
261.1	2973	
261.31	2481.5	
261.52	4698	
261.73	4729.4	
261.95	3220.1	
262.16	2840.5	
262.37	4594.3	
262.58	4709	
262.79	3151.8	
263	2608.4	
263.21	4333.5	
263.42	4078.2	
263.63	2783.9	
263.84	2677.4	
264.05	4621.6	
264.26	4685.8	
264.47	3074	
264.69	2770.2	
264.9	4713.7	
265.11	4302.8	
265.32	2498.5	
265.53	2524.5	
265.74	4314.4	
265.95	3858.4	
266.16	2712.2	
266.37	2861	
266.58	4320.5	
266.79	4102.8	
267	2625.5	
267.21	2447.3	
267.42	4003.8	
267.63	4271.4	
267.84	2667.8	
268.06	2406.4	
268.27	4550.6	
268.48	4569.7	
268.69	2620.7	
268.9	2956.6	
269.11	4533.5	
269.32	3853.6	
269.53	2667.8	
269.74	2518.3	
269.95	4304.8	
270.16	3953.9	
270.37	2656.2	
270.58	3008.5	
270.79	4179.9	
271	4582.7	
271.21	2766.1	
271.42	2731.3	
271.63	4442.7	
271.84	3941	
272.05	2264.4	
272.26	2446	
272.47	4267.3	
272.68	4381.3	
272.89	2642.6	
273.11	2843.3	
273.32	4121.2	
273.53	4721.9	
273.74	2746.3	
273.95	2817.3	
274.16	4492.6	
274.37	4217.5	
274.58	2949.8	
274.79	2407	
275	4375.1	
275.21	4543.1	
275.42	3398.3	
275.63	2865.1	
275.84	4511	
276.05	5226.4	
276.26	2786.6	
276.47	2658.3	
276.68	4250.9	
276.89	4830.5	
277.1	2930.6	
277.31	2433	
277.52	4332.8	
277.73	4659.8	
277.94	2375.6	
278.15	2613.9	
278.36	4354	
278.57	4099.4	
278.78	2608.4	
278.99	2809.8	
279.2	4178.5	
279.41	4025.6	
279.62	3216	
279.83	2463.7	
280.04	4919.2	
280.25	4033.8	
280.46	3179.8	
280.67	2695.1	
280.88	4087.7	
281.09	4616.1	
281.3	2739.5	
281.51	3345	
281.72	4085.7	
281.93	4481.6	
282.14	2553.8	
282.35	2728.6	
282.56	4569.7	
282.77	4459.1	
282.98	2644.6	
283.19	3061	
283.4	5234.6	
283.61	4181.3	
283.82	2472.6	
284.03	3182.5	
284.24	4401.1	
284.45	4556.7	
284.66	3193.5	
284.87	2997.5	
285.08	4620.2	
285.29	4687.1	
285.5	2486.2	
285.71	2615.9	
285.92	4551.3	
286.12	4947.9	
286.33	3155.2	
286.54	2671.2	
286.75	4433.2	
286.96	4189.5	
287.17	2493.7	
287.38	3085.6	
287.59	4120.5	
287.8	4141.7	
288.01	2622.8	
288.22	2872.6	
288.43	4357.4	
288.64	3900.7	
288.85	3005.7	
289.06	2925.2	
289.27	4541	
289.48	4762.2	
289.69	3237.2	
289.9	2919	
290.11	4693.3	
290.32	4171	
290.53	3003	
290.74	2816.6	
290.94	4509.6	
291.15	4496	
291.36	2519	
291.57	2869.2	
291.78	4237.2	
291.99	3900	
292.2	2514.9	
292.41	2805.7	
292.62	4565.6	
292.83	4463.2	
293.04	3350.5	
293.25	2579.8	
293.46	4192.9	
293.67	4483.7	
293.88	2553.8	
294.09	2480.1	
294.29	4070	
294.5	4323.3	
294.71	2707.4	
294.92	2566.8	
295.13	4211.3	
295.34	4904.9	
295.55	2396.8	
295.76	2381.8	
295.97	4461.8	
296.18	4860.5	
296.39	2418	
296.6	2532	
296.81	4289.8	
297.01	4513.7	
297.22	2641.2	
297.43	2584.5	
297.64	4212.7	
297.85	4036.5	
298.06	2210.4	
298.27	2332.6	
298.48	4177.2	
298.69	4103.4	
298.9	2708.8	
299.11	2485.6	
299.31	4062.5	
299.52	4077.5	
299.73	2882.9	
299.94	2826.9	
300.15	4330.8	
300.36	4106.2	
300.57	2795.5	
300.78	2746.3	
300.99	4161.5	
301.2	4313	
301.4	2610.5	
301.61	2671.9	
301.82	4397	
302.03	4478.2	
302.24	2944.3	
302.45	2448.7	
302.66	4425	
302.87	4599.7	
303.08	2564.1	
303.29	3260.4	
303.49	4206.5	
303.7	4160.8	
303.91	2370.2	
304.12	3130	
304.33	3927.3	
304.54	4346.5	
304.75	2560.6	
304.96	2557.2	
305.16	4484.4	
305.37	4798.4	
305.58	2350.4	
305.79	2315.6	
306	4444.8	
306.21	3899.3	
306.42	2576.3	
306.63	3551.2	
306.83	4192.9	
307.04	4414.1	
307.25	2718.3	
307.46	2693.8	
307.67	3913	
307.88	4416.1	
308.09	2564.7	
308.29	2565.4	
308.5	4318.5	
308.71	4543.1	
308.92	2714.2	
309.13	2467.1	
309.34	4289.8	
309.55	4218.1	
309.75	3061	
309.96	2811.9	
310.17	4491.2	
310.38	4079.6	
310.59	2845.3	
310.8	2723.8	
311.01	4518.5	
311.21	4221.5	
311.42	2529.2	
311.63	2559.3	
311.84	4141	
312.05	4241.3	
312.26	2820.1	
312.46	2996.9	
312.67	4130.1	
312.88	3947.1	
313.09	2461	
313.3	2458.2	
313.51	4714.4	
313.71	4878.3	
313.92	2548.4	
314.13	2608.4	
314.34	4400.4	
314.55	4246.8	
314.76	2975.7	
314.96	2702	
315.17	4405.9	
315.38	4346.5	
315.59	2568.2	
315.8	2444.6	
316.01	4656.4	
316.21	4777.9	
316.42	2501.9	
316.63	2682.8	
316.84	4200.4	
317.05	4539.7	
317.26	2848.7	
317.46	2618.7	
317.67	4269.3	
317.88	4493.9	
318.09	3028.3	
318.3	2419.3	
318.5	4169.7	
318.71	4369.7	
318.92	3605.8	
319.13	2837.1	
319.34	4600.4	
319.54	4587.4	
319.75	2402.3	
319.96	2264.4	
320.17	4358.8	
320.38	4539.7	
320.58	2329.9	
320.79	2688.3	
321	4546.5	
321.21	4683	
321.42	2727.2	
321.62	2357.2	
321.83	4074.8	
322.04	4242	
322.25	2680.1	
322.46	2500.6	
322.66	4296.6	
322.87	4467.3	
323.08	2902	
323.29	2419.3	
323.5	4842.8	
323.7	3977.2	
323.91	3188	
324.12	2883.5	
324.33	4388.8	
324.53	4443.4	
324.74	2788	
324.95	2865.8	
325.16	3997.6	
325.37	4152.6	
325.57	2460.3	
325.78	2562.7	
325.99	4429.8	
326.2	3979.2	
326.4	3237.2	
326.61	2381.8	
326.82	4261.8	
327.03	4297.3	
327.24	3276.1	
327.44	3039.2	
327.65	4514.4	
327.86	3797.6	
328.07	2880.1	
328.27	2437.8	
328.48	4682.3	
328.69	3985.3	
328.9	3297.9	
329.1	2560.6	
329.31	4229.1	
329.52	4661.9	
329.73	2575.7	
329.93	2637.8	
330.14	4335.5	
330.35	4329.4	
330.56	3729.4	
330.76	2909.5	
330.97	4166.9	
331.18	4263.9	
331.39	2723.8	
331.59	2302.6	
331.8	4625.7	
332.01	4664.6	
332.22	2511.5	
332.42	2806.4	
332.63	4349.2	
332.84	4048.8	
333.05	2779.8	
333.25	2525.1	
333.46	4063.2	
333.67	4291.9	
333.88	2622.1	
334.08	2777	
334.29	5264.6	
334.5	4522.6	
334.7	2453.5	
334.91	3265.1	
335.12	3939.6	
335.33	4394.3	
335.53	2694.4	
335.74	3605.8	
335.95	4239.3	
336.16	3963.5	
336.36	2671.2	
336.57	2992.1	
336.78	3922.5	
336.98	4543.1	
337.19	3190.1	
337.4	2620	
337.61	4965.6	
337.81	3970.3	
338.02	2595.5	
338.23	3055.6	
338.43	4708.3	
338.64	4121.2	
338.85	2500.6	
339.05	3127.9	
339.26	4808.6	
339.47	3928	
339.68	2534	
339.88	3323.9	
340.09	4499.4	
340.3	4533.5	
340.5	2799.6	
340.71	2305.3	
340.92	3978.5	
341.13	4575.8	
341.33	2389.3	
341.54	2791.4	
341.75	4455	
341.95	4141.7	
342.16	2713.6	
342.37	2923.1	
342.57	4037.2	
342.78	4180.6	
342.99	2910.2	
343.19	2370.2	
343.4	4496	
343.61	4398.4	
343.81	2671.9	
344.02	2411.1	
344.23	4481.6	
344.43	4661.2	
344.64	2978.4	
344.85	2878.8	
345.06	4476.9	
345.26	4544.4	
345.47	2825.5	
345.68	3119.1	
345.88	3999.7	
346.09	4551.3	
346.3	2854.2	
346.5	2278	
346.71	4181.3	
346.92	4088.4	
347.12	2449.4	
347.33	2757.9	
347.54	4557.4	
347.74	4709.6	
347.95	2760.7	
348.16	2231.6	
348.36	4147.1	
348.57	4016.7	
348.78	2911.5	
348.98	2948.4	
349.19	4194.2	
349.39	3867.2	
349.6	2414.6	
349.81	2542.2	
350.01	4494.6	
350.22	4050.2	
350.43	2770.2	
350.63	3095.2	
350.84	4185.4	
351.05	4109.6	
351.25	2524.5	
351.46	2390	
351.67	4479.6	
351.87	4063.9	
352.08	2695.8	
352.29	2959.3	
352.49	4514.4	
352.7	4277.5	
352.9	2426.8	
353.11	2922.5	
353.32	4814.8	
353.52	4157.4	
353.73	2495.8	
353.94	2952.5	
354.14	4457.1	
354.35	4238.6	
354.55	2592	
354.76	2742.2	
354.97	4398.4	
355.17	4197	
355.38	2510.1	
355.59	3125.9	
355.79	4093.2	
356	4150.6	
356.2	2718.3	
356.41	2454.8	
356.62	4001	
356.82	4171	
357.03	2900.6	
357.24	2659.6	
357.44	4012	
357.65	4121.9	
357.85	3293.1	
358.06	2780.5	
358.27	3913.7	
358.47	4020.2	
358.68	2497.2	
358.88	2909.5	
359.09	4373.1	
359.3	4508.3	
359.5	3286.3	
359.71	2990	
359.91	4715.1	
360.12	4384.7	
360.33	2951.8	
360.53	3168.2	
360.74	4126	
360.94	4128.7	
361.15	3082.9	
361.36	2605.7	
361.56	4557.4	
361.77	4265.2	
361.97	3295.9	
362.18	2695.8	
362.38	4616.8	
362.59	4024.9	
362.8	2684.2	
363	2491.7	
363.21	3987.4	
363.41	4308.9	
363.62	2839.2	
363.83	3319.1	
364.03	4472.8	
364.24	4784.1	
364.44	3495.9	
364.65	3380.5	
364.85	4244.8	
365.06	4095.9	
365.27	2646.7	
365.47	2723.1	
365.68	4691.2	
365.88	4260.5	
366.09	2880.8	
366.29	2693.8	
366.5	4283	
366.71	4555.4	
366.91	3373.7	
367.12	3031	
367.32	4945.8	
367.53	4437.9	
367.73	3061.7	
367.94	3551.2	
368.14	4517.8	
368.35	4784.1	
368.56	2970.9	
368.76	2643.2	
368.97	4546.5	
369.17	5367.7	
369.38	2723.8	
369.58	2860.3	
369.79	3977.2	
369.99	4793.6	
370.2	3454.2	
370.4	2924.5	
370.61	4352.6	
370.82	5133.6	
371.02	2883.5	
371.23	2535.4	
371.43	4093.9	
371.64	4768.4	
371.84	2906.1	
372.05	3469.9	
372.25	5343.2	
372.46	4439.3	
372.66	2899.9	
372.87	2859.6	
373.07	4461.2	
373.28	5471.5	
373.48	3397.6	
373.69	3170.3	
373.9	4377.2	
374.1	4332.8	
374.31	3371	
374.51	3130.7	
374.72	4786.1	
374.92	4147.8	
375.13	3476.8	
375.33	3020.8	
375.54	4504.2	
375.74	4289.8	
375.95	3186.6	
376.15	3728	
376.36	4671.4	
376.56	4558.1	
376.77	3144.3	
376.97	3365.5	
377.18	5186.1	
377.38	4684.4	
377.59	3514.3	
377.79	2895.1	
378	4526.7	
378.2	4650.9	
378.41	2944.3	
378.61	2895.8	
378.82	4913.8	
379.02	4427	
379.23	3040.6	
379.43	3580.5	
379.64	5023.7	
379.84	4708.3	
380.05	3010.5	
380.25	2929.3	
380.46	4713.1	
380.66	4443.4	
380.87	3653.6	
381.07	3885	
381.28	5036	
381.48	4702.8	
381.69	2912.2	
381.89	3022.8	
382.1	4201.7	
382.3	4699.4	
382.51	3587.4	
382.71	3993.5	
382.91	4562.9	
383.12	4948.6	
383.32	3108.8	
383.53	3239.2	
383.73	4625.7	
383.94	4603.8	
384.14	3261	
384.35	2768.2	
384.55	4325.3	
384.76	4596.3	
384.96	3194.8	
385.17	3342.3	
385.37	4682.3	
385.58	4234.5	
385.78	3235.8	
385.98	2753.8	
386.19	4397	
386.39	4654.4	
386.6	3022.8	
386.8	3201.7	
387.01	4652.3	
387.21	4721.9	
387.42	3297.2	
387.62	3613.3	
387.83	4415.4	
388.03	4416.8	
388.23	3227.6	
388.44	3662.5	
388.64	4141.7	
388.85	4244.1	
389.05	3296.5	
389.26	3670.6	
389.46	5398.4	
389.67	5061.9	
389.87	3414.6	
390.07	3414.6	
390.28	4502.1	
390.48	4288.4	
390.69	2961.4	
390.89	3127.2	
391.1	4488.5	
391.3	4881.7	
391.5	3781.2	
391.71	4044.7	
391.91	4891.9	
392.12	5111.7	
392.32	3829.7	
392.53	3400.3	
392.73	4543.1	
392.93	4554.7	
393.14	3259.7	
393.34	3643.3	
393.55	4875.5	
393.75	4556.7	
393.95	3297.2	
394.16	3174.4	
394.36	4494.6	
394.57	4908.3	
394.77	3031.7	
394.98	3124.5	
395.18	4489.1	
395.38	4457.7	
395.59	3664.5	
395.79	3122.5	
396	4582.7	
396.2	4853	
396.4	3706.8	
396.61	3553.2	
396.81	4874.8	
397.02	4491.2	
397.22	3727.3	
397.42	3771	
397.63	4999.8	
397.83	4519.2	
398.04	3137.5	
398.24	3407.8	
398.44	4850.3	
398.65	4287.1	
398.85	3083.6	
399.05	3128.6	
399.26	4608.6	
399.46	5436.7	
399.67	3398.3	
399.87	3235.8	
400.07	4782	
400.28	4916.5	
400.48	3318.4	
400.69	3845.4	
400.89	4947.9	
401.09	5347.9	
401.3	3236.5	
401.5	3790.1	
401.7	5365	
401.91	5520	
402.11	3483.6	
402.32	3542.3	
402.52	5198.4	
402.72	4992.3	
402.93	3733.4	
403.13	3091.1	
403.33	5569.8	
403.54	4755.4	
403.74	3556.6	
403.94	4018.8	
404.15	4874.2	
404.35	5357.5	
404.56	3386.7	
404.76	4289.8	
404.96	5041.4	
405.17	4904.9	
405.37	3867.2	
405.57	3687	
405.78	5100.8	
405.98	4742.4	
406.18	3424.9	
406.39	3885	
406.59	5067.4	
406.79	4721.9	
407	3334.8	
407.2	3322.5	
407.4	5357.5	
407.61	5160.2	
407.81	3376.4	
408.01	4539.7	
408.22	4425	
408.42	5558.2	
408.62	3997.6	
408.83	3741	
409.03	4934.9	
409.23	4876.9	
409.44	3829	
409.64	3928	
409.84	5576.6	
410.05	5509	
410.25	4014	
410.45	3809.9	
410.66	5364.3	
410.86	6604.7	
411.06	4168.3	
411.27	4078.2	
411.47	6575.3	
411.67	5474.2	
411.88	4173.1	
412.08	4358.8	
412.28	5807.4	
412.49	6065.4	
412.69	4156	
412.89	4184	
413.09	5983.5	
413.3	5937.7	
413.5	4312.3	
413.7	4090.5	
413.91	5509	
414.11	6010.1	
414.31	4209.9	
414.52	4410	
414.72	5917.9	
414.92	5857.2	
415.12	4192.9	
415.33	4518.5	
415.53	6022.4	
415.73	6180.1	
415.94	4627	
416.14	4384.7	
416.34	5639.4	
416.55	5404.6	
416.75	5010	
416.95	4679.6	
417.15	6255.9	
417.36	6445	
417.56	5230.5	
417.76	4677.6	
417.97	6345.3	
418.17	6164.4	
418.37	4545.8	
418.57	4527.4	
418.78	6156.2	
418.98	5904.3	
419.18	4962.9	
419.38	4987.5	
419.59	5900.2	
419.79	5760.9	
419.99	4519.2	
420.2	4613.4	
420.4	6244.9	
420.6	6178.7	
420.8	4422.2	
421.01	4314.4	
421.21	6162.3	
421.41	6143.2	
421.61	4657.1	
421.82	4506.2	
422.02	5952.8	
422.22	6415.6	
422.42	4934.9	
422.63	4674.1	
422.83	5882.4	
423.03	6660.7	
423.23	4669.4	
423.44	4113.7	
423.64	5881.1	
423.84	5657.9	
424.04	4423.6	
424.25	4249.5	
424.45	6460	
424.65	6317.3	
424.85	4156.7	
425.06	4477.5	
425.26	6559.6	
425.46	5853.8	
425.66	4655	
425.87	4526	
426.07	6348.7	
426.27	6168.5	
426.47	4553.3	
426.67	4215.4	
426.88	6531.7	
427.08	6148	
427.28	4833.2	
427.48	4229.7	
427.69	5582.8	
427.89	5891.3	
428.09	4602.5	
428.29	4221.5	
428.5	6192.4	
428.7	6008.1	
428.9	4214	
429.1	4455.7	
429.3	6029.2	
429.51	6173.9	
429.71	4351.3	
429.91	4891.9	
430.11	6240.8	
430.31	6509.8	
430.52	4516.5	
430.72	4715.8	
430.92	6507.1	
431.12	6200.6	
431.32	4371	
431.53	4616.1	
431.73	5730.9	
431.93	6528.9	
432.13	4289.1	
432.33	4279.6	
432.54	5984.2	
432.74	6021.7	
432.94	4305.5	
433.14	4849.6	
433.34	6417.7	
433.55	6140.5	
433.75	4862.6	
433.95	5805.3	
434.15	6290	
434.35	5983.5	
434.56	4394.3	
434.76	4251.6	
434.96	6171.9	
435.16	6391	
435.36	4397	
435.56	5060.5	
435.77	6087.9	
435.97	6139.1	
436.17	5412.8	
436.37	4996.4	
436.57	6025.1	
436.78	6019	
436.98	5896.8	
437.18	5295.4	
437.38	6405.4	
437.58	6118.6	
437.78	5424.4	
437.99	4681.7	
438.19	6467.5	
438.39	6965.1	
438.59	4783.4	
438.79	4403.8	
438.99	6881.2	
439.2	6084.5	
439.4	4357.4	
439.6	4348.5	
439.8	6135.7	
440	6803.4	
440.2	5014.1	
440.4	5010	
440.61	6638.8	
440.81	6759	
441.01	4704.2	
441.21	5099.4	
441.41	6948.1	
441.61	6577.4	
441.81	5398.4	
442.02	5874.3	
442.22	7157.7	
442.42	6744	
442.62	4868.7	
442.82	4787.5	
443.02	7154.2	
443.22	6545.3	
443.43	5106.3	
443.63	4715.8	
443.83	6422.4	
444.03	6302.3	
444.23	5470.1	
444.43	5251.7	
444.63	6680.5	
444.83	7268.9	
445.04	4982.7	
445.24	5644.2	
445.44	6857.3	
445.64	6793.8	
445.84	5320.6	
446.04	5332.2	
446.24	6423.1	
446.44	7090.8	
446.65	4799.1	
446.85	5098.8	
447.05	6584.9	
447.25	6983.6	
447.45	5142.4	
447.65	4770.4	
447.85	6621.8	
448.05	6307.7	
448.25	5292	
448.46	5227.8	
448.66	6623.8	
448.86	6332.3	
449.06	4803.9	
449.26	5315.2	
449.46	6789.7	
449.66	6305.7	
449.86	5152.7	
450.06	5061.2	
450.26	6457.2	
450.47	6784.9	
450.67	5247.6	
450.87	5381.4	
451.07	7014.3	
451.27	6599.2	
451.47	4928.1	
451.67	5388.9	
451.87	6612.2	
452.07	7118.7	
452.27	5085.8	
452.47	5063.3	
452.67	6822.5	
452.88	6868.2	
453.08	4771.1	
453.28	5759.6	
453.48	7455.3	
453.68	6619	
453.88	5085.8	
454.08	5108.3	
454.28	6969.2	
454.48	6707.8	
454.68	5425.1	
454.88	5656.5	
455.08	7185.6	
455.28	6838.9	
455.48	5022.3	
455.68	5456.5	
455.89	7420.5	
456.09	7129.7	
456.29	5274.9	
456.49	5377.3	
456.69	7400	
456.89	6861.4	
457.09	5638.7	
457.29	5854.5	
457.49	7107.8	
457.69	7229.3	
457.89	5684.5	
458.09	5144.5	
458.29	7008.8	
458.49	7599.3	
458.69	5810.1	
458.89	5562.3	
459.09	7641.7	
459.29	7755.7	
459.49	5584.1	
459.69	6102.9	
459.9	7376.8	
460.1	7264.8	
460.3	5556.8	
460.5	5483.8	
460.7	7483.3	
460.9	7165.8	
461.1	5395	
461.3	5929.6	
461.5	7860.1	
461.7	7611.6	
461.9	5659.2	
462.1	5881.8	
462.3	7443.7	
462.5	7700.4	
462.7	5696.8	
462.9	5743.2	
463.1	8355.7	
463.3	8207.6	
463.5	5893.4	
463.7	6479.8	
463.9	7673.7	
464.1	7866.9	
464.3	6171.9	
464.5	6306.4	
464.7	7975.5	
464.9	7918.8	
465.1	6864.1	
465.3	6462	
465.5	8200.1	
465.7	8339.3	
465.9	6719.4	
466.1	6322.8	
466.3	8186.4	
466.5	8074.5	
466.7	7079.1	
466.9	6458.6	
467.1	8346.8	
467.3	8630.1	
467.5	7163.8	
467.7	6499.6	
467.9	8778.3	
468.1	9303.9	
468.3	6944.7	
468.5	7102.4	
468.7	8257.4	
468.9	8153	
469.1	6789.7	
469.3	7099.6	
469.5	9387.9	
469.7	8142	
469.9	7099.6	
470.1	6580.1	
470.3	8497	
470.5	8361.2	
470.7	7402	
470.9	6665.5	
471.1	8185.7	
471.3	8417.8	
471.5	6619.7	
471.69	7562.5	
471.89	8200.7	
472.09	7763.2	
472.29	7056.6	
472.49	7063.4	
472.69	8043.1	
472.89	8362.5	
473.09	6573.3	
473.29	6606.1	
473.49	8177.5	
473.69	7995.3	
473.89	7098.3	
474.09	6664.1	
474.29	8873.2	
474.49	8535.3	
474.69	7021.1	
474.89	6685.3	
475.09	8174.1	
475.29	8139.3	
475.49	6386.9	
475.69	6546.7	
475.88	8966	
476.08	8363.2	
476.28	6495.5	
476.48	6526.9	
476.68	8624	
476.88	8368.7	
477.08	6608.8	
477.28	6641.6	
477.48	8199.4	
477.68	8308.6	
477.88	6311.2	
478.08	6485.9	
478.28	8653.4	
478.48	8086.1	
478.67	6623.8	
478.87	6146.6	
479.07	8612.4	
479.27	8285.4	
479.47	6688	
479.67	6774.7	
479.87	8445.8	
480.07	8764.6	
480.27	6344.6	
480.47	7174	
480.67	8215.8	
480.87	8639	
481.06	6474.3	
481.26	7011.6	
481.46	8377.6	
481.66	8225.3	
481.86	6794.5	
482.06	7217.7	
482.26	8182.3	
482.46	8654.7	
482.66	6819.1	
482.86	6461.3	
483.05	8488.1	
483.25	7972.1	
483.45	8054	
483.65	6756.9	
483.85	8054	
484.05	8232.2	
484.25	6995.9	
484.45	7211.6	
484.65	8619.9	
484.84	8860.9	
485.04	6807.4	
485.24	6719.4	
485.44	8975.6	
485.64	8102.4	
485.84	6475	
486.04	7188.4	
486.24	8368.7	
486.44	8512.7	
486.63	6488.6	
486.83	7021.1	
487.03	8316.8	
487.23	8522.3	
487.43	6555.5	
487.63	7750.2	
487.83	8555.7	
488.02	8686.1	
488.22	7157.7	
488.42	7474.4	
488.62	9073.2	
488.82	8480.6	
489.02	6978.1	
489.22	7071	
489.41	8791.2	
489.61	8928.5	
489.81	6883.2	
490.01	6900.3	
490.21	9095	
490.41	9352.4	
490.61	7015.7	
490.8	6989	
491	8801.5	
491.2	8344.8	
491.4	7380.9	
491.6	6864.1	
491.8	8886.1	
491.99	8677.2	
492.19	6819.7	
492.39	6834.1	
492.59	8929.1	
492.79	8965.3	
492.99	7318.8	
493.18	6833.4	
493.38	9071.1	
493.58	9530.6	
493.78	7266.2	
493.98	7078.5	
494.18	8981.7	
494.37	8648.6	
494.57	7595.2	
494.77	7583.6	
494.97	9293	
495.17	9366	
495.37	7392.5	
495.56	7688.8	
495.76	9541.5	
495.96	9516.9	
496.16	8262.2	
496.36	7684	
496.55	9671.2	
496.75	9406.3	
496.95	8000	
497.15	7971.4	
497.35	9678	
497.54	9625.5	
497.74	7764.5	
497.94	8832.2	
498.14	10127	
498.34	9864.4	
498.53	7738.6	
498.73	8125	
498.93	9381.7	
499.13	9743.6	
499.33	8122.9	
499.52	8228.7	
499.72	9889.6	
499.92	9822.1	
500.12	7913.4	
500.32	8016.4	
500.51	9939.5	
500.71	9890.3	
500.91	8594.6	
501.11	8317.5	
501.31	9930.6	
501.5	10320	
501.7	8805.6	
501.9	8183.7	
502.1	9783.1	
502.29	10107	
502.49	8404.2	
502.69	8636.3	
502.89	10055	
503.09	10062	
503.28	7940.7	
503.48	7959.1	
503.68	9684.2	
503.88	9499.2	
504.07	8456.7	
504.27	7973.4	
504.47	9725.1	
504.67	9812.5	
504.86	8315.4	
505.06	8084	
505.26	9664.4	
505.46	10355	
505.65	8094.3	
505.85	8177.5	
506.05	9637.7	
506.25	9812.5	
506.44	7671.7	
506.64	8139.3	
506.84	9393.3	
507.04	9609.1	
507.23	7675.1	
507.43	7970	
507.63	10276	
507.83	9248.6	
508.02	8007.6	
508.22	7696.3	
508.42	10529	
508.62	9282.8	
508.81	7951.6	
509.01	8178.9	
509.21	9121.7	
509.4	9387.9	
509.6	7976.8	
509.8	7705.8	
510	9323	
510.19	9899.2	
510.39	7580.9	
510.59	7651.2	
510.79	9232.2	
510.98	10102	
511.18	7857.4	
511.38	7773.4	
511.57	9854.8	
511.77	9580.4	
511.97	8257.4	
512.17	7638.9	
512.36	9807.7	
512.56	9482.1	
512.76	7729.7	
512.95	7403.4	
513.15	9904.7	
513.35	8970.8	
513.55	8103.1	
513.74	7639.6	
513.94	9792	
514.14	9341.5	
514.33	8155	
514.53	7993.2	
514.73	9405.6	
514.92	9437.7	
515.12	7675.1	
515.32	7686.7	
515.51	9668.5	
515.71	9711.5	
515.91	8656.1	
516.11	7692.2	
516.3	10512	
516.5	9430.2	
516.7	7953.6	
516.89	8331.8	
517.09	9478	
517.29	9456.2	
517.48	8295.6	
517.68	7850.5	
517.88	9053.4	
518.07	9652.8	
518.27	8224.6	
518.47	7615.7	
518.66	9871.9	
518.86	9250	
519.06	7600	
519.25	7753.6	
519.45	9386.5	
519.65	10144	
519.84	8228.7	
520.04	8567.3	
520.24	10436	
520.43	9823.4	
520.63	8084	
520.83	8035.5	
521.02	9538.8	
521.22	9717.6	
521.42	8117.5	
521.61	8385.7	
521.81	9398.8	
522.01	9554.5	
522.2	8047.2	
522.4	7829.4	
522.6	9790	
522.79	9125.1	
522.99	7879.2	
523.18	7597.3	
523.38	9656.9	
523.58	9650.7	
523.77	8654.7	
523.97	7684	
524.17	10766	
524.36	10385	
524.56	8475.2	
524.76	8351.6	
524.95	9828.2	
525.15	9751.1	
525.34	8307.2	
525.54	8409	
525.74	10239	
525.93	9792.7	
526.13	9118.2	
526.33	8474.5	
526.52	10550	
526.72	10266	
526.91	9281.4	
527.11	8836.3	
527.31	10460	
527.5	10731	
527.7	8872.5	
527.89	8363.9	
528.09	9955.9	
528.29	10245	
528.48	9031.5	
528.68	8750.3	
528.87	10633	
529.07	10608	
529.27	8942.1	
529.46	8662.9	
529.66	10635	
529.85	10839	
530.05	8793.3	
530.25	9035	
530.44	11406	
530.64	10496	
530.83	8893.6	
531.03	9063.6	
531.23	10828	
531.42	10546	
531.62	9213.1	
531.81	8943.5	
532.01	10710	
532.21	10965	
532.4	8962.6	
532.6	9095	
532.79	11415	
532.99	11019	
533.18	9333.3	
533.38	9911.5	
533.58	10938	
533.77	11176	
533.97	9456.2	
534.16	9822.1	
534.36	11426	
534.55	10946	
534.75	9804.3	
534.95	9565.4	
535.14	11535	
535.34	11039	
535.53	9337.4	
535.73	10375	
535.92	11885	
536.12	11005	
536.31	9400.9	
536.51	10043	
536.71	11363	
536.9	10917	
537.1	9376.3	
537.29	9593.4	
537.49	11441	
537.68	10942	
537.88	9732.6	
538.07	9270.5	
538.27	11211	
538.46	11589	
538.66	9196.1	
538.86	9435	
539.05	11170	
539.25	11243	
539.44	9815.2	
539.64	9443.2	
539.83	11118	
540.03	11764	
540.22	9458.9	
540.42	9497.8	
540.61	11341	
540.81	11289	
541	9563.3	
541.2	9949	
541.39	10837	
541.59	11017	
541.78	9837.8	
541.98	9327.8	
542.18	10714	
542.37	10742	
542.57	9491	
542.76	9882.1	
542.96	10753	
543.15	11028	
543.35	9427.5	
543.54	9147.6	
543.74	10725	
543.93	10972	
544.13	9223.4	
544.32	9908.8	
544.52	11133	
544.71	10518	
544.91	8843.8	
545.1	9318.9	
545.3	10682	
545.49	10880	
545.69	8741.4	
545.88	9120.3	
546.08	11589	
546.27	11125	
546.47	9258.9	
546.66	8897.1	
546.86	10935	
547.05	11144	
547.24	8989.2	
547.44	8937.3	
547.63	10391	
547.83	10895	
548.02	9212.4	
548.22	9209.7	
548.41	10278	
548.61	11049	
548.8	8963.3	
549	8891.6	
549.19	10647	
549.39	10859	
549.58	8641.7	
549.78	8991.9	
549.97	10874	
550.17	10383	
550.36	9409.7	
550.55	9819.3	
550.75	10430	
550.94	10932	
551.14	8804.2	
551.33	8841.1	
551.53	10042	
551.72	10555	
551.92	8899.8	
552.11	8815.1	
552.31	10613	
552.5	10546	
552.69	9628.9	
552.89	8598.1	
553.08	10548	
553.28	10385	
553.47	8742.1	
553.67	9303.2	
553.86	10959	
554.06	9937.4	
554.25	8183.7	
554.44	8672.5	
554.64	11181	
554.83	11017	
555.03	8510	
555.22	8781	
555.42	10695	
555.61	10520	
555.8	8677.2	
556	8668.4	
556.19	10084	
556.39	10525	
556.58	8582.4	
556.78	8616.5	
556.97	10443	
557.16	10133	
557.36	9307.3	
557.55	8277.2	
557.75	9795.4	
557.94	10916	
558.13	8583	
558.33	8396.7	
558.52	10725	
558.72	9942.2	
558.91	8545.5	
559.1	8578.3	
559.3	9960	
559.49	9755.2	
559.69	8360.5	
559.88	8634.2	
560.07	10208	
560.27	10598	
560.46	8796	
560.66	8894.3	
560.85	10133	
561.04	9635	
561.24	8294.3	
561.43	8420.6	
561.63	9770.2	
561.82	9988.6	
562.01	9019.3	
562.21	8564.6	
562.4	10111	
562.59	10667	
562.79	8456.7	
562.98	8267.6	
563.18	10133	
563.37	10854	
563.56	8702.5	
563.76	8362.5	
563.95	9932.6	
564.14	10035	
564.34	8720.3	
564.53	8462.2	
564.73	10324	
564.92	10275	
565.11	8679.3	
565.31	8310.7	
565.5	10590	
565.69	9883.5	
565.89	8602.2	
566.08	8636.3	
566.27	10549	
566.47	10753	
566.66	9017.2	
566.85	8325.7	
567.05	10399	
567.24	10033	
567.44	8475.9	
567.63	9189.9	
567.82	10508	
568.02	10320	
568.21	8439	
568.4	8744.1	
568.6	10329	
568.79	10297	
568.98	8452	
569.18	8496.3	
569.37	10365	
569.56	11274	
569.76	8690.2	
569.95	9305.3	
570.14	10535	
570.34	10360	
570.53	8636.3	
570.72	8508.6	
570.91	10817	
571.11	10319	
571.3	8794	
571.49	9321	
571.69	10366	
571.88	10034	
572.07	9031.5	
572.27	9004.2	
572.46	9965.4	
572.65	10507	
572.85	8665	
573.04	8850	
573.23	10750	
573.43	10405	
573.62	8606.2	
573.81	8955.8	
574	10449	
574.2	10395	
574.39	8897.1	
574.58	8829.5	
574.78	11036	
574.97	10660	
575.16	9133.9	
575.36	9291	
575.55	10912	
575.74	10937	
575.93	8651.3	
576.13	9348.3	
576.32	10643	
576.51	10863	
576.71	9007	
576.9	9769.5	
577.09	11142	
577.28	10785	
577.48	9231.6	
577.67	8637	
577.86	10684	
578.05	10793	
578.25	9174.2	
578.44	9099.1	
578.63	10738	
578.83	11369	
579.02	8842.4	
579.21	9671.2	
579.4	10811	
579.6	10770	
579.79	9171.5	
579.98	10409	
580.17	10992	
580.37	11195	
580.56	9000.8	
580.75	9361.3	
580.94	11227	
581.14	11240	
581.33	9555.8	
581.52	8968.1	
581.71	10938	
581.91	11259	
582.1	8972.2	
582.29	9164	
582.48	10702	
582.68	10804	
582.87	9486.9	
583.06	9366.7	
583.25	11103	
583.45	10616	
583.64	9819.3	
583.83	10012	
584.02	10938	
584.21	11163	
584.41	9680.1	
584.6	9291	
584.79	10953	
584.98	11146	
585.18	9125.1	
585.37	9062.9	
585.56	10862	
585.75	11187	
585.94	9103.2	
586.14	9592	
586.33	11344	
586.52	10813	
586.71	9467.1	
586.91	9181.7	
587.1	10525	
587.29	11002	
587.48	9110.7	
587.67	9117.6	
587.87	11038	
588.06	10700	
588.25	9668.5	
588.44	9199.5	
588.63	10670	
588.83	10853	
589.02	8972.8	
589.21	8794	
589.4	10451	
589.59	10518	
589.78	8389.8	
589.98	8525.7	
590.17	10047	
590.36	10282	
590.55	7998.7	
590.74	8257.4	
590.94	10658	
591.13	9832.3	
591.32	8065.6	
591.51	7682.6	
591.7	9924.5	
591.89	9675.3	
592.09	7829.4	
592.28	8038.3	
592.47	9205.6	
592.66	10548	
592.85	7954.3	
593.05	8155.7	
593.24	9775	
593.43	10370	
593.62	8203.5	
593.81	8257.4	
594	9772.2	
594.19	9781.8	
594.39	7959.8	
594.58	8004.1	
594.77	9983.2	
594.96	10190	
595.15	8078.6	
595.34	8272.4	
595.54	9832.3	
595.73	9409.7	
595.92	7611.6	
596.11	8211	
596.3	9984.5	
596.49	9443.2	
596.68	8057.4	
596.88	8225.3	
597.07	9826.8	
597.26	9382.4	
597.45	7778.9	
597.64	8502.5	
597.83	9441.8	
598.02	9907.4	
598.22	7954.3	
598.41	8164.6	
598.6	9650.7	
598.79	9428.2	
598.98	7886	
599.17	8394.6	
599.36	9808.4	
599.55	10348	
599.74	8787.8	
599.94	8844.5	
600.13	9975	
600.32	9370.8	
600.51	7686	
600.7	7875.8	
600.89	10241	
601.08	10387	
601.27	7642.3	
601.47	8170.7	
601.66	9976.3	
601.85	10229	
602.04	8133.2	
602.23	8133.8	
602.42	9512.1	
602.61	9815.9	
602.8	7967.3	
602.99	7869.7	
603.18	9653.4	
603.37	9641.2	
603.57	8165.9	
603.76	8431.5	
603.95	10106	
604.14	9800.2	
604.33	7972.1	
604.52	8091.5	
604.71	9770.9	
604.9	9478	
605.09	8426.7	
605.28	8251.9	
605.47	10167	
605.66	9792	
605.86	8294.3	
606.05	7929.1	
606.24	10134	
606.43	9287.5	
606.62	8139.3	
606.81	8547.5	
607	10095	
607.19	9576.3	
607.38	7598.6	
607.57	7929.1	
607.76	9450.7	
607.95	9020.6	
608.14	8140	
608.33	8441.7	
608.52	9462.3	
608.72	9957.9	
608.91	7699	
609.1	7645.1	
609.29	9469.1	
609.48	9156.5	
609.67	8015.1	
609.86	7665.5	
610.05	9280	
610.24	9366.7	
610.43	7652.6	
610.62	7427.3	
610.81	10038	
611	9804.3	
611.19	7622.5	
611.38	8031.5	
611.57	9568.1	
611.76	10137	
611.95	7496.2	
612.14	7445	
612.33	9464.3	
612.52	9187.2	
612.71	7849.2	
612.9	7346.7	
613.09	8938.7	
613.28	10316	
613.47	7737.9	
613.66	8138.6	
613.85	9536.7	
614.04	9133.9	
614.24	7656.7	
614.43	7256	
614.62	9562.6	
614.81	9538.1	
615	7915.4	
615.19	7980.9	
615.38	9090.3	
615.57	9405	
615.76	7953.6	
615.95	8462.9	
616.14	9641.8	
616.33	9423.4	
616.52	8166.6	
616.71	8164.6	
616.9	9542.2	
617.09	9415.9	
617.28	7692.2	
617.47	8329.1	
617.66	9143.5	
617.85	9084.1	
618.04	8245.1	
618.22	7914.7	
618.41	9189.9	
618.6	9884.2	
618.79	7935.2	
618.98	7945.4	
619.17	10019	
619.36	9119.6	
619.55	8099	
619.74	8019.2	
619.93	9726.5	
620.12	9331.2	
620.31	8393.9	
620.5	8501.1	
620.69	10024	
620.88	10350	
621.07	8802.9	
621.26	8402.8	
621.45	9916.9	
621.64	9893.1	
621.83	8400.1	
622.02	8002.1	
622.21	9925.1	
622.4	9826.2	
622.59	8744.1	
622.78	8612.4	
622.97	9697.1	
623.16	10232	
623.35	8382.3	
623.54	7953.6	
623.72	9716.2	
623.91	9700.5	
624.1	8591.9	
624.29	7845.8	
624.48	10484	
624.67	10066	
624.86	8629.5	
625.05	7979.6	
625.24	10563	
625.43	9753.1	
625.62	9415.9	
625.81	8151.6	
626	10114	
626.19	9891	
626.38	8551	
626.56	8247.2	
626.75	9606.3	
626.94	10195	
627.13	8637	
627.32	7854.6	
627.51	10121	
627.7	10677	
627.89	7901.1	
628.08	8589.9	
628.27	9570.2	
628.46	9625.5	
628.65	8053.3	
628.83	7811	
629.02	9965.4	
629.21	9454.1	
629.4	8371.4	
629.59	8408.3	
629.78	9550.4	
629.97	10077	
630.16	8401.5	
630.35	8129.8	
630.54	10301	
630.72	10211	
630.91	8117.5	
631.1	8370.7	
631.29	9800.2	
631.48	9818.6	
631.67	8534.6	
631.86	8089.5	
632.05	9831.6	
632.24	9650.7	
632.42	7934.5	
632.61	8269.7	
632.8	9640.5	
632.99	9474.6	
633.18	8393.3	
633.37	8476.5	
633.56	9979.8	
633.75	9893.1	
633.93	8458.8	
634.12	8213	
634.31	10365	
634.5	10181	
634.69	8241	
634.88	8458.8	
635.07	9857.6	
635.25	10087	
635.44	8680	
635.63	8943.5	
635.82	9726.5	
636.01	8953	
636.2	8689.5	
636.39	8376.2	
636.57	10436	
636.76	10029	
636.95	8068.3	
637.14	8810.4	
637.33	10033	
637.52	10348	
637.7	7971.4	
637.89	8632.9	
638.08	9798.8	
638.27	10568	
638.46	8512	
638.65	8726.4	
638.83	10570	
639.02	9664.4	
639.21	8473.8	
639.4	8589.9	
639.59	9798.2	
639.78	9585.9	
639.96	7892.2	
640.15	8092.9	
640.34	9742.9	
640.53	9697.1	
640.72	7925.6	
640.91	8015.1	
641.09	9315.5	
641.28	10096	
641.47	8103.1	
641.66	8420.6	
641.85	9708.1	
642.03	9810.5	
642.22	8248.5	
642.41	8007.6	
642.6	9337.4	
642.79	9073.9	
642.97	7854.6	
643.16	8193.2	
643.35	9291.6	
643.54	9114.8	
643.73	7660.8	
643.91	8245.1	
644.1	9103.9	
644.29	9495.7	
644.48	7750.2	
644.67	7748.8	
644.85	8991.3	
645.04	9408.4	
645.23	7518.8	
645.42	7729.7	
645.6	9043.1	
645.79	9520.3	
645.98	7555	
646.17	6971.3	
646.36	8653.4	
646.54	8887.5	
646.73	7788.4	
646.92	7181.5	
647.11	8723	
647.29	9187.9	
647.48	7163.8	
647.67	7033.4	
647.86	9312.8	
648.05	9299.8	
648.23	7245.7	
648.42	7914	
648.61	8960.5	
648.8	8876.6	
648.98	6983.6	
649.17	7200	
649.36	8555.7	
649.55	8345.5	
649.73	7056.6	
649.92	7492.2	
650.11	8486.8	
650.3	8692.3	
650.48	7131	
650.67	7145.4	
650.86	8894.3	
651.05	8342.7	
651.23	7073	
651.42	6966.5	
651.61	8556.4	
651.79	8383.7	
651.98	7236.8	
652.17	6978.1	
652.36	8736	
652.54	8245.8	
652.73	6963.1	
652.92	6907.1	
653.11	8677.9	
653.29	8815.1	
653.48	6620.4	
653.67	7127.6	
653.85	8582.4	
654.04	9157.8	
654.23	7187	
654.42	6903.7	
654.6	8283.4	
654.79	8680.7	
654.98	6606.7	
655.16	6918.7	
655.35	8093.6	
655.54	7726.3	
655.73	6436.1	
655.91	6306.4	
656.1	8207.6	
656.29	7548.1	
656.47	6189	
656.66	6983.6	
656.85	7862.8	
657.03	7902.4	
657.22	6562.4	
657.41	6523.5	
657.59	8039.6	
657.78	7967.3	
657.97	6420.4	
658.16	6827.9	
658.34	8572.8	
658.53	8702.5	
658.72	7391.1	
658.9	7582.9	
659.09	8313.4	
659.28	8295	
659.46	6734.4	
659.65	6707.8	
659.84	8150.2	
660.02	8581	
660.21	6683.9	
660.4	6688.7	
660.58	8658.8	
660.77	8229.4	
660.96	7038.9	
661.14	6563.7	
661.33	8940.1	
661.52	8903.9	
661.7	6486.6	
661.89	8261.5	
662.08	8134.5	
662.26	7744.7	
662.45	6682.5	
662.64	6733	
662.82	8520.9	
663.01	8069.7	
663.2	6662	
663.38	7085.3	
663.57	8372.1	
663.75	8288.1	
663.94	6867.5	
664.13	7458.7	
664.31	8112	
664.5	8400.8	
664.69	6976.7	
664.87	7150.8	
665.06	7980.9	
665.25	8243.8	
665.43	7357.7	
665.62	7299.6	
665.8	8366	
665.99	8000.7	
666.18	6860	
666.36	6782.2	
666.55	8369.4	
666.74	8409	
666.92	6597.9	
667.11	7428	
667.29	8146.8	
667.48	8398.7	
667.67	7184.3	
667.85	6636.8	
668.04	7968.6	
668.22	7964.6	
668.41	6840.9	
668.6	7025.2	
668.78	8001.4	
668.97	8051.2	
669.15	6924.2	
669.34	6383.5	
669.53	7920.2	
669.71	8152.3	
669.9	6446.3	
670.08	6821.8	
670.27	7815	
670.46	8176.9	
670.64	6988.4	
670.83	7014.3	
671.01	7748.1	
671.2	8064.2	
671.38	6632	
671.57	6422.4	
671.76	8621.9	
671.94	8721.6	
672.13	6355.5	
672.31	6985.6	
672.5	8396.7	
672.69	7974.1	
672.87	6464.1	
673.06	6711.9	
673.24	8267.6	
673.43	8039	
673.61	6928.3	
673.8	6597.2	
673.98	8299.1	
674.17	8341.4	
674.36	7044.3	
674.54	6905.1	
674.73	7902.4	
674.91	8290.9	
675.1	6695.5	
675.28	6460.7	
675.47	8002.1	
675.65	8354.3	
675.84	6615.6	
676.03	6863.4	
676.21	7907.2	
676.4	7554.3	
676.58	7017	
676.77	6857.3	
676.95	8796.7	
677.14	7948.8	
677.32	6496.2	
677.51	6506.4	
677.69	8382.3	
677.88	7880.6	
678.06	6457.9	
678.25	6526.9	
678.44	8026	
678.62	7799.3	
678.81	6385.6	
678.99	6840.9	
679.18	8384.4	
679.36	8163.9	
679.55	6629.3	
679.73	6851.8	
679.92	8234.9	
680.1	7925	
680.29	7267.6	
680.47	6568.5	
680.66	7884.7	
680.84	8265.6	
681.03	6340.5	
681.21	6817	
681.4	7793.2	
681.58	7806.9	
681.77	6459.3	
681.95	6460	
682.14	8357.8	
682.32	8447.2	
682.51	6890	
682.69	6258.6	
682.88	7826	
683.06	8039.6	
683.25	6761.7	
683.43	6982.2	
683.62	8007.6	
683.8	8241.7	
683.99	7045	
684.17	6639.5	
684.36	8589.9	
684.54	7851.9	
684.73	6194.4	
684.91	6238.1	
685.1	7961.8	
685.28	7549.5	
685.46	6326.2	
685.65	6322.1	
685.83	7677.2	
686.02	7286.7	
686.2	5796.4	
686.39	5910.4	
686.57	6935.8	
686.76	7856	
686.94	5838.1	
687.13	5958.2	
687.31	7545.4	
687.5	7504.4	
687.68	5725.4	
687.86	6264.7	
688.05	8363.2	
688.23	7148.1	
688.42	6414.2	
688.6	6042.9	
688.79	7350.2	
688.97	7422.5	
689.16	6268.1	
689.34	5698.8	
689.52	7866.2	
689.71	7998	
689.89	6427.9	
690.08	6157.6	
690.26	7722.9	
690.45	7454.6	
690.63	6634.1	
690.81	6335.7	
691	7628	
691.18	7434.1	
691.37	6279.8	
691.55	7389.8	
691.74	7346.7	
691.92	8481.3	
692.1	6145.3	
692.29	5948	
692.47	7648.5	
692.66	7147.4	
692.84	5992.4	
693.02	6281.8	
693.21	7074.4	
693.39	7468.3	
693.58	6410.1	
693.76	6006	
693.94	8116.1	
694.13	8089.5	
694.31	6183.5	
694.5	6642.2	
694.68	7423.9	
694.86	7778.2	
695.05	6460	
695.23	6599.2	
695.42	7989.1	
695.6	9165.3	
695.78	6861.4	
695.97	6391.7	
696.15	8178.2	
696.34	7748.1	
696.52	6213.5	
696.7	6789	
696.89	7893.6	
697.07	7515.4	
697.25	6597.2	
697.44	7345.4	
697.62	7868.3	
697.81	7910.6	
697.99	6335.1	
698.17	6613.6	
698.36	7434.1	
698.54	7813.7	
698.72	6490	
698.91	5871.5	
699.09	7465.5	
699.28	7328.3	
699.46	6248.4	
699.64	6163.7	
699.83	7453.9	
700.01	7838.3	
700.19	6653.2	
700.38	5721.3	
700.56	7886.7	
700.74	7363.8	
700.93	5869.5	
701.11	6477.7	
701.29	7729.7	
701.48	8340	
701.66	6024.4	
701.84	6189	
702.03	7600.7	
702.21	8067.6	
702.39	6014.9	
702.58	6290	
702.76	7911.3	
702.94	7857.4	
703.13	5945.3	
703.31	7197.2	
703.49	7492.2	
703.68	8008.2	
703.86	6072.9	
704.04	6572.6	
704.23	7784.3	
704.41	7804.8	
704.59	6191	
704.78	6740.5	
704.96	8691.6	
705.14	7848.5	
705.33	6060.6	
705.51	6486.6	
705.69	7488.7	
705.87	8030.8	
706.06	6484.6	
706.24	5991.7	
706.42	7729	
706.61	7845.8	
706.79	6598.6	
706.97	5991	
707.16	7404.1	
707.34	7720.2	
707.52	6481.8	
707.7	6070.2	
707.89	7372.7	
708.07	7226.6	
708.25	6448.4	
708.44	6583.5	
708.62	7316.7	
708.8	8004.1	
708.98	6636.1	
709.17	6075.6	
709.35	7592.5	
709.53	7546.1	
709.72	5956.2	
709.9	5958.2	
710.08	7827.3	
710.26	7771.4	
710.45	6737.1	
710.63	6010.8	
710.81	7396.6	
710.99	7421.2	
711.18	6331.6	
711.36	5954.1	
711.54	7296.9	
711.72	7744.7	
711.91	6086.6	
712.09	5707.7	
712.27	7424.6	
712.45	7788.4	
712.64	5991.7	
712.82	5595.7	
713	6987.7	
713.18	6989	
713.37	5489.9	
713.55	6070.2	
713.73	7316	
713.91	6702.3	
714.1	5534.3	
714.28	5246.2	
714.46	7008.1	
714.64	6589	
714.83	4755.4	
715.01	5023.7	
715.19	6391	
715.37	5859.2	
715.55	4653	
715.74	4717.2	
715.92	6576.7	
716.1	5456.5	
716.28	5383.4	
716.47	4786.1	
716.65	6024.4	
716.83	5812.1	
717.01	4727.4	
717.19	4600.4	
717.38	6939.9	
717.56	5610.1	
717.74	4733.5	
717.92	4323.9	
718.1	6307.1	
718.29	5810.1	
718.47	4104.1	
718.65	4552	
718.83	6413.6	
719.01	6389.7	
719.2	4273.4	
719.38	4933.6	
719.56	6245.6	
719.74	7165.8	
719.92	4810.7	
720.11	5244.2	
720.29	6449.1	
720.47	5934.3	
720.65	4487.8	
720.83	4882.4	
721.02	6004	
721.2	5849	
721.38	4767.7	
721.56	4277.5	
721.74	5436.7	
721.92	5441.5	
722.11	4847.5	
722.29	4765.6	
722.47	6206.7	
722.65	5690.6	
722.83	4284.4	
723.01	4625	
723.2	5664	
723.38	5918.6	
723.56	3966.9	
723.74	4571.1	
723.92	5412.1	
724.1	5963.7	
724.29	4186.7	
724.47	4725.3	
724.65	5593.7	
724.83	5403.2	
725.01	4158.1	
725.19	4513.7	
725.37	5390.9	
725.56	5330.2	
725.74	4039.3	
725.92	4130.8	
726.1	5409.4	
726.28	5607.3	
726.46	4341.7	
726.64	4154	
726.83	5624.4	
727.01	5633.3	
727.19	3978.5	
727.37	4446.8	
727.55	5670.1	
727.73	5900.2	
727.91	3932.8	
728.09	3852.9	
728.28	5832.6	
728.46	5959.6	
728.64	4442.7	
728.82	4351.3	
729	6386.9	
729.18	6094.1	
729.36	3964.2	
729.54	5124.7	
729.72	6659.3	
729.91	5697.4	
730.09	5103.5	
730.27	4443.4	
730.45	5722.7	
730.63	5969.1	
730.81	4705.5	
730.99	4195.6	
731.17	6320.7	
731.35	5614.2	
731.53	4503.5	
731.71	4326.7	
731.9	6169.2	
732.08	6118.6	
732.26	4519.9	
732.44	4226.3	
732.62	6216.3	
732.8	5944.6	
732.98	4667.3	
733.16	4042.7	
733.34	6027.2	
733.52	5150	
733.7	4330.1	
733.88	4457.1	
734.07	5787.6	
734.25	5649	
734.43	4061.8	
734.61	4837.3	
734.79	6464.1	
734.97	5637.4	
735.15	4102.1	
735.33	4287.1	
735.51	5757.5	
735.69	5602.6	
735.87	4811.4	
736.05	4354	
736.23	5603.9	
736.41	5394.3	
736.59	4323.3	
736.77	4268	
736.95	5825.1	
737.13	5462.6	
737.32	4040	
737.5	4141	
737.68	6199.2	
737.86	5439.4	
738.04	3907.5	
738.22	4870.8	
738.4	5367.7	
738.58	5526.1	
738.76	4144.4	
738.94	3706.8	
739.12	5401.2	
739.3	5345.2	
739.48	4548.5	
739.66	4300.7	
739.84	5472.9	
740.02	5403.9	
740.2	3723.9	
740.38	3876.8	
740.56	5713.8	
740.74	4974.5	
740.92	4230.4	
741.1	4050.2	
741.28	5348.6	
741.46	5149.3	
741.64	3895.9	
741.82	4276.2	
742	5357.5	
742.18	5277.6	
742.36	4007.2	
742.54	3854.3	
742.72	5719.3	
742.9	4924.7	
743.08	4132.8	
743.26	3509.5	
743.44	5557.5	
743.62	5565.7	
743.8	4205.8	
743.98	3790.1	
744.16	5351.3	
744.34	5225.7	
744.52	4122.6	
744.7	4179.2	
744.88	5489.9	
745.06	5155.4	
745.24	4082.3	
745.42	4152.6	
745.6	5538.4	
745.78	5424.4	
745.96	3528.7	
746.14	3613.3	
746.32	5897.5	
746.5	5421.7	
746.68	3899.3	
746.86	3616	
747.03	5616.9	
747.21	4741.7	
747.39	3932.8	
747.57	3598.3	
747.75	5175.2	
747.93	5339.1	
748.11	3520.5	
748.29	3549.1	
748.47	6081.8	
748.65	5012.7	
748.83	3989.4	
749.01	3726.6	
749.19	5282.4	
749.37	4818.9	
749.55	3762.8	
749.73	3725.3	
749.91	5166.3	
750.09	5072.1	
750.26	3822.9	
750.44	3512.3	
750.62	5083.1	
750.8	4985.4	
750.98	3396.2	
751.16	3494.5	
751.34	5184.8	
751.52	4711.7	
751.7	3979.2	
751.88	3345	
752.06	5396.4	
752.24	5180	
752.42	3295.2	
752.59	3487.7	
752.77	5038	
752.95	5656.5	
753.13	3892.5	
753.31	3525.9	
753.49	4885.1	
753.67	5001.8	
753.85	3672.7	
754.03	3420.1	
754.21	5221.6	
754.38	5297.4	
754.56	3461.1	
754.74	2989.4	
754.92	4702.8	
755.1	5014.1	
755.28	2884.2	
755.46	2922.5	
755.64	5456.5	
755.82	5503.6	
755.99	3041.2	
756.17	3095.2	
756.35	4065.2	
756.53	4833.2	
756.71	2483.5	
756.89	3206.4	
757.07	4657.8	
757.25	4137.6	
757.42	3197.6	
757.6	3678.8	
757.78	4690.5	
757.96	4145.8	
758.14	3044	
758.32	2809.1	
758.5	3885.7	
758.67	4366.3	
758.85	2917	
759.03	2999.6	
759.21	4496.7	
759.39	4132.1	
759.57	2758.6	
759.75	3295.2	
759.92	4945.8	
760.1	4584.7	
760.28	3494.5	
760.46	3644	
760.64	4416.1	
760.82	4291.2	
760.99	3438.5	
761.17	3009.1	
761.35	4836.6	
761.53	4192.9	
761.71	3209.2	
761.89	3442	
762.06	4699.4	
762.24	4487.1	
762.42	3212.6	
762.6	3026.9	
762.78	4478.9	
762.96	4827.7	
763.13	3386	
763.31	3242.6	
763.49	4917.2	
763.67	4433.9	
763.85	3618.1	
764.02	3923.2	
764.2	5055.8	
764.38	4497.3	
764.56	3105.4	
764.74	3642.7	
764.91	5055.8	
765.09	4414.7	
765.27	3009.8	
765.45	2826.9	
765.63	5217.5	
765.8	4982.7	
765.98	2852.1	
766.16	2875.3	
766.34	4229.1	
766.52	4100	
766.69	3405.1	
766.87	2780.5	
767.05	4464.6	
767.23	4894	
767.41	2984.6	
767.58	3151.1	
767.76	4829.8	
767.94	4853	
768.12	3049.4	
768.29	3431.7	
768.47	4379.9	
768.65	4927.4	
768.83	2820.7	
769	3444	
769.18	4291.2	
769.36	4618.9	
769.54	3436.5	
769.72	2798.9	
769.89	4930.1	
770.07	4782.7	
770.25	3080.1	
770.43	3696.6	
770.6	5232.6	
770.78	5394.3	
770.96	3166.2	
771.14	3430.3	
771.31	4767.7	
771.49	4399.7	
771.67	2689.7	
771.85	2806.4	
772.02	3978.5	
772.2	4354	
772.38	3226.9	
772.55	2851.5	
772.73	4575.8	
772.91	4408.6	
773.09	3119.1	
773.26	3246	
773.44	4574.5	
773.62	4437.3	
773.8	2857.6	
773.97	2793.4	
774.15	4538.3	
774.33	4420.9	
774.5	2787.3	
774.68	2971.6	
774.86	4642.7	
775.04	4389.5	
775.21	2874	
775.39	2785.2	
775.57	4489.8	
775.74	4655.7	
775.92	2693.8	
776.1	2570.2	
776.27	4516.5	
776.45	5075.5	
776.63	2864.4	
776.81	2598.2	
776.98	4327.4	
777.16	4830.5	
777.34	2884.2	
777.51	3115.6	
777.69	4351.9	
777.87	4165.6	
778.04	2977.7	
778.22	3258.3	
778.4	4164.2	
778.57	4542.4	
778.75	2551.8	
778.93	2678.7	
779.1	4136.9	
779.28	3945.1	
779.46	2532	
779.64	2767.5	
779.81	4685.1	
779.99	5005.9	
780.17	3149.1	
780.34	3280.8	
780.52	4410	
780.69	4424.3	
780.87	2979.1	
781.05	2723.8	
781.22	4433.2	
781.4	4370.4	
781.58	2854.2	
781.75	2331.3	
781.93	4430.4	
782.11	3967.6	
782.28	3344.3	
782.46	2819.4	
782.64	3939.6	
782.81	4485.1	
782.99	2930.6	
783.17	2753.2	
783.34	4360.1	
783.52	4102.8	
783.69	2906.8	
783.87	3365.5	
784.05	4137.6	
784.22	4057.7	
784.4	3327.3	
784.58	2981.8	
784.75	4573.8	
784.93	4187.4	
785.1	2745	
785.28	3063.8	
785.46	4496	
785.63	4014	
785.81	2794.8	
785.99	2691	
786.16	4203.1	
786.34	4291.2	
786.51	2691	
786.69	2962.7	
786.87	3880.9	
787.04	4188.1	
787.22	2722.4	
787.39	3149.1	
787.57	4106.9	
787.75	4619.5	
787.92	3354.6	
788.1	3175.7	
788.27	3984.7	
788.45	3790.1	
788.63	3089	
788.8	2394.8	
788.98	4349.2	
789.15	3747.1	
789.33	2467.8	
789.5	2769.5	
789.68	4549.2	
789.86	4599.7	
790.03	3000.3	
790.21	2649.4	
790.38	4615.4	
790.56	4132.8	
790.73	2686.3	
790.91	2590	
791.09	4054.3	
791.26	4474.1	
791.44	2841.2	
791.61	2493.1	
791.79	4080.2	
791.96	3971.7	
792.14	2569.5	
792.32	2353.8	
792.49	4038.6	
792.67	4115.7	
792.84	2590	
793.02	2486.9	
793.19	4354	
793.37	4647.5	
793.54	2336	
793.72	2501.3	
793.89	4696	
794.07	4024.9	
794.25	2874.7	
794.42	2378.4	
794.6	4588.8	
794.77	4319.2	
794.95	2988.7	
795.12	2687.6	
795.3	4038.6	
795.47	4296.6	
795.65	2914.3	
795.82	2792.7	
796	3921.2	
796.17	4883	
796.35	2762	
796.52	3119.7	
796.7	4333.5	
796.87	4379.2	
797.05	2745	
797.22	3179.8	
797.4	4393.6	
797.57	4872.8	
797.75	2822.1	
797.92	2702.6	
798.1	4632.5	
798.27	3872.7	
798.45	2417.3	
798.62	2475.3	
798.8	4205.8	
798.97	4467.3	
799.15	2901.3	
799.32	2764.1	
799.5	3771.7	
799.67	4151.2	
799.85	3019.4	
800.02	2391.3	
800.2	4024.9	
800.37	4058.4	
800.55	3052.8	
800.72	2681.5	
800.9	4510.3	
801.07	4622.3	
801.25	3389.4	
801.42	2865.8	
801.6	4544.4	
801.77	4086.4	
801.95	2767.5	
802.12	2612.5	
802.29	4351.9	
802.47	4177.9	
802.64	2944.3	
802.82	2378.4	
802.99	4016.7	
803.17	4453.6	
803.34	2829.6	
803.52	2538.1	
803.69	4838	
803.87	3849.5	
804.04	2747.7	
804.21	2844.6	
804.39	4646.2	
804.56	4052.2	
804.74	2500.6	
804.91	2859	
805.09	3994.9	
805.26	3982.6	
805.44	2537.4	
805.61	2675.3	
805.78	4394.3	
805.96	4232.5	
806.13	2886.3	
806.31	2996.9	
806.48	3730	
806.66	4059.1	
806.83	2895.8	
807	2807.8	
807.18	4029	
807.35	4196.3	
807.53	2733.4	
807.7	2398.9	
807.87	4620.9	
808.05	3989.4	
808.22	2971.6	
808.4	2366.1	
808.57	3894.6	
808.74	3755.3	
808.92	2625.5	
809.09	3203.7	
809.27	4072.7	
809.44	4255	
809.61	2357.9	
809.79	2498.5	
809.96	4764.3	
810.14	4336.2	
810.31	2344.9	
810.48	2938.2	
810.66	4009.9	
810.83	4353.3	
811.01	2633	
811.18	2809.8	
811.35	4411.3	
811.53	3629.7	
811.7	3041.2	
811.87	2869.9	
812.05	4119.1	
812.22	3962.1	
812.39	2584.5	
812.57	2497.2	
812.74	4080.2	
812.92	4878.9	
813.09	2779.1	
813.26	2873.3	
813.44	4769.7	
813.61	3855	
813.78	2355.2	
813.96	2934.1	
814.13	4089.1	
814.3	3885.7	
814.48	3136.1	
814.65	2684.9	
814.82	4664.6	
815	3797.6	
815.17	2783.2	
815.34	3215.3	
815.52	3950.5	
815.69	3888.4	
815.87	2703.3	
816.04	2639.8	
816.21	3930.1	
816.38	3687.7	
816.56	2679.4	
816.73	2538.8	
816.9	4872.8	
817.08	4362.2	
817.25	2603.7	
817.42	3007.1	
817.6	3756	
817.77	3895.2	
817.94	2766.8	
818.12	2525.1	
818.29	3910.9	
818.46	5173.2	
818.64	2686.3	
818.81	2451.4	
818.98	3889.8	
819.16	5012.7	
819.33	2880.8	
819.5	2749.7	
819.67	4184.7	
819.85	4560.1	
820.02	2734	
820.19	2803	
820.37	4170.3	
820.54	3975.1	
820.71	2772.3	
820.88	3283.6	
821.06	4090.5	
821.23	3865.9	
821.4	2776.4	
821.58	2774.3	
821.75	4360.8	
821.92	4109.6	
822.09	2381.1	
822.27	2390.7	
822.44	3981.9	
822.61	3931.4	
822.79	2375	
822.96	4046.8	
823.13	4139.6	
823.3	3765.5	
823.48	2655.5	
823.65	2509.4	
823.82	4422.9	
823.99	3796.3	
824.17	3237.2	
824.34	2469.2	
824.51	4905.6	
824.68	4005.1	
824.86	2582.5	
825.03	2756.6	
825.2	4040	
825.37	4569.7	
825.55	2564.1	
825.72	2738.8	
825.89	4855.7	
826.06	4567	
826.24	2712.9	
826.41	2708.1	
826.58	4638.6	
826.75	4112.3	
826.92	2320.3	
827.1	2470.5	
827.27	5843.5	
827.44	4788.2	
827.61	2605.7	
827.79	2939.5	
827.96	3924.6	
828.13	3909.6	
828.3	2689.7	
828.47	2300.6	
828.65	4341.7	
828.82	4179.9	
828.99	3159.3	
829.16	2848.7	
829.34	4407.2	
829.51	4347.8	
829.68	2723.1	
829.85	2706.7	
830.02	4712.4	
830.2	4463.9	
830.37	2241.2	
830.54	3084.2	
830.71	4847.5	
830.88	4113	
831.05	2197.5	
831.23	2457.6	
831.4	4855.1	
831.57	5006.6	
831.74	2584.5	
831.91	2319.7	
832.09	4361.5	
832.26	4485.1	
832.43	2602.3	
832.6	2882.9	
832.77	4204.5	
832.94	4624.3	
833.12	2215.2	
833.29	2532	
833.46	4275.5	
833.63	5187.5	
833.8	2809.1	
833.97	2627.5	
834.15	4464.6	
834.32	4407.9	
834.49	2732.7	
834.66	2736.1	
834.83	4450.2	
835	3947.8	
835.17	2519.7	
835.35	2514.9	
835.52	4394.9	
835.69	4325.3	
835.86	2651.4	
836.03	2243.2	
836.2	4416.8	
836.37	4207.9	
836.55	2593.4	
836.72	2459.6	
836.89	4226.3	
837.06	4504.2	
837.23	2698.5	
837.4	2775.7	
837.57	4898.1	
837.75	5159.5	
837.92	2428.9	
838.09	2550.4	
838.26	4161.5	
838.43	4530.1	
838.6	2693.8	
838.77	2474.6	
838.94	4971.8	
839.11	4870.1	
839.29	2668.5	
839.46	2142.2	
839.63	4496.7	
839.8	4250.2	
839.97	2495.8	
840.14	2564.1	
840.31	4393.6	
840.48	4526.7	
840.65	2215.2	
840.82	2508.8	
841	4394.9	
841.17	4270.7	
841.34	2349	
841.51	2497.2	
841.68	4450.2	
841.85	4193.6	
842.02	2498.5	
842.19	2077.3	
842.36	4297.3	
842.53	4314.4	
842.7	2350.4	
842.87	2769.5	
843.05	5190.2	
843.22	4197	
843.39	2289.6	
843.56	2468.5	
843.73	4179.2	
843.9	4484.4	
844.07	3489.1	
844.24	2954.5	
844.41	5664.7	
844.58	3995.6	
844.75	2287.6	
844.92	2503.3	
845.09	4371.7	
845.26	4395.6	
845.43	2341.5	
845.6	2519.7	
845.77	4439.3	
845.94	4284.4	
846.12	2588.6	
846.29	2717	
846.46	4576.5	
846.63	4397	
846.8	2386.6	
846.97	2726.5	
847.14	4619.5	
847.31	4384.7	
847.48	2540.8	
847.65	2858.3	
847.82	4367.6	
847.99	4502.8	
848.16	2978.4	
848.33	2771.6	
848.5	4100.7	
848.67	4705.5	
848.84	2302.6	
849.01	2407	
849.18	4154.6	
849.35	3921.2	
849.52	2821.4	
849.69	2323.8	
849.86	4578.6	
850.03	4518.5	
850.2	2417.3	
850.37	2734.7	
850.54	4566.3	
850.71	4122.6	
850.88	2756.6	
851.05	2360.6	
851.22	4350.6	
851.39	4674.8	
851.56	2258.9	
851.73	2618	
851.9	4013.3	
852.07	4535.6	
852.24	2611.8	
852.41	2363.4	
852.58	4407.9	
852.75	4017.4	
852.92	2630.3	
853.09	2340.1	
853.26	4036.5	
853.43	4607.2	
853.6	2390.7	
853.77	2101.9	
853.94	4747.9	
854.11	3990.1	
854.28	3255.6	
854.44	2573.6	
854.61	4937.7	
854.78	4573.1	
854.95	2310.8	
855.12	2816.6	
855.29	3715	
855.46	4712.4	
855.63	2414.6	
855.8	3064.4	
855.97	4105.5	
856.14	4610	
856.31	3086.3	
856.48	2549	
856.65	4195.6	
856.82	3961.5	
856.99	2258.2	
857.16	2545.6	
857.33	5048.2	
857.49	4199	
857.66	2548.4	
857.83	2586.6	
858	4274.1	
858.17	4363.5	
858.34	2251.4	
858.51	2408.4	
858.68	4687.1	
858.85	4704.9	
859.02	2652.8	
859.19	2749.7	
859.36	3997.6	
859.52	3886.4	
859.69	2367.5	
859.86	2763.4	
860.03	3970.3	
860.2	4739.7	
860.37	2220	
860.54	2440.5	
860.71	4463.9	
860.88	4686.4	
861.05	2549	
861.21	2839.2	
861.38	4685.1	
861.55	3805.1	
861.72	2258.9	
861.89	2556.5	
862.06	4532.2	
862.23	4747.2	
862.4	2286.9	
862.56	2381.8	
862.73	4422.9	
862.9	4278.2	
863.07	2679.4	
863.24	2218	
863.41	3934.1	
863.58	4009.9	
863.75	2405.7	
863.91	2652.8	
864.08	4565.6	
864.25	4415.4	
864.42	2828.2	
864.59	3126.6	
864.76	4853.7	
864.93	3967.6	
865.09	2282.8	
865.26	2501.9	
865.43	4706.2	
865.6	4878.3	
865.77	2181.8	
865.94	2333.3	
866.1	4561.5	
866.27	4346.5	
866.44	3332.7	
866.61	2286.2	
866.78	4276.8	
866.95	4487.8	
867.11	2280.1	
867.28	2174.3	
867.45	4618.9	
867.62	3990.1	
867.79	2671.9	
867.96	2351.1	
868.12	3960.1	
868.29	4424.3	
868.46	2373.6	
868.63	3008.5	
868.8	4517.8	
868.97	4484.4	
869.13	2435.7	
869.3	2480.1	
869.47	4378.6	
869.64	4517.8	
869.81	2377	
869.97	2357.2	
870.14	4276.8	
870.31	4663.2	
870.48	2299.9	
870.65	2860.3	
870.81	4248.2	
870.98	4215.4	
871.15	2618.7	
871.32	2413.2	
871.48	4416.8	
871.65	4697.4	
871.82	2322.4	
871.99	2590.7	
872.16	5001.1	
872.32	4605.9	
872.49	2420.7	
872.66	2399.5	
872.83	4517.8	
872.99	4089.8	
873.16	2661.7	
873.33	2344.2	
873.5	4280.3	
873.67	4313.7	
873.83	2472.6	
874	2951.8	
874.17	4364.2	
874.34	4782	
874.5	2915.6	
874.67	2818.7	
874.84	4627.7	
875.01	3847.5	
875.17	3086.3	
875.34	2336	
875.51	4339	
875.68	4997.7	
875.84	2783.9	
876.01	3138.2	
876.18	4485.7	
876.34	4424.3	
876.51	2362.7	
876.68	2361.3	
876.85	4160.1	
877.01	4658.4	
877.18	3151.8	
877.35	2322.4	
877.52	4382	
877.68	3991.5	
877.85	2351.1	
878.02	2351.8	
878.18	4022.2	
878.35	4171.7	
878.52	1966	
878.69	2701.3	
878.85	4625	
879.02	4479.6	
879.19	3202.3	
879.35	2506	
879.52	4526.7	
879.69	4462.5	
879.86	2131.9	
880.02	2559.3	
880.19	4302.8	
880.36	4964.3	
880.52	2564.1	
880.69	2678.1	
880.86	4554.7	
881.02	4541	
881.19	2589.3	
881.36	2504.7	
881.52	4439.3	
881.69	4015.4	
881.86	2540.8	
882.02	2474.6	
882.19	4636.6	
882.36	5150.6	
882.52	2438.4	
882.69	3127.9	
882.86	4388.1	
883.02	4364.2	
883.19	2686.9	
883.36	2599.6	
883.52	4492.6	
883.69	4934.2	
883.86	2402.9	
884.02	2215.2	
884.19	4446.1	
884.36	4334.9	
884.52	2633	
884.69	2542.9	
884.86	4162.8	
885.02	4780.6	
885.19	2596.8	
885.36	2635.1	
885.52	4160.8	
885.69	4399	
885.86	3207.1	
886.02	2862.4	
886.19	4481.6	
886.35	4105.5	
886.52	2585.2	
886.69	3102	
886.85	3979.9	
887.02	4663.9	
887.19	4663.9	
887.35	4663.9	
887.52	4663.9	
887.68	4663.9	
887.85	4663.9	
888.02	4663.9	
888.18	4663.9	
888.35	4663.9	
888.51	4663.9	
888.68	4663.9	
888.85	4663.9	
889.01	4663.9	
889.18	4663.9	
889.35	4663.9	
889.51	4663.9	
889.68	4663.9	
889.84	4663.9	
890.01	4663.9	
890.17	4663.9	
890.34	4663.9	
890.51	4663.9	
890.67	4663.9	
890.84	4663.9	
891	4663.9	
891.17	4663.9	
891.34	4663.9	
891.5	4663.9	
891.67	4663.9	
891.83	4663.9	
892	4663.9	
892.16	4663.9	
892.33	4663.9	
892.5	4663.9	
892.66	4663.9	
892.83	4663.9	
892.99	4663.9	
893.16	4663.9	
893.32	4663.9	
893.49	4663.9	
893.65	4663.9	
893.82	4663.9	
893.99	4663.9	
894.15	4663.9	
894.32	4663.9	
894.48	4663.9	
894.65	4663.9	
894.81	4663.9	
894.98	4663.9	
895.14	4663.9	
895.31	4663.9	
895.47	4663.9	
895.64	4663.9	
895.81	4663.9	
895.97	4663.9	
896.14	4663.9	
896.3	4663.9	
896.47	4663.9	
896.63	4663.9	
896.8	4663.9	
896.96	4663.9	
897.13	4663.9	
897.29	4663.9	
897.46	4663.9	
897.62	4663.9	
897.79	4663.9	
897.95	4663.9	
898.12	4663.9	
898.28	4663.9	
898.45	4663.9	
898.61	4663.9	
898.78	4663.9	
898.94	4663.9	
899.11	4663.9	
899.27	4663.9	
899.44	4663.9	
899.6	4663.9	
899.77	4663.9	
899.93	4663.9	
900.1	4663.9	
900.26	4663.9	
900.43	4663.9	
900.59	4663.9	
900.76	4663.9	
900.92	4663.9	
901.09	4663.9	
901.25	4663.9	
901.42	4663.9	
901.58	4663.9	
901.75	4663.9	
901.91	4663.9	
902.07	4663.9	
902.24	4663.9	
902.4	4663.9	
902.57	4663.9	
902.73	4663.9	
902.9	4663.9	
903.06	4663.9	
903.23	4663.9	
903.39	4663.9	
903.56	4663.9	
903.72	4663.9	
903.88	4663.9	
904.05	4663.9	
904.21	4663.9	
904.38	4663.9	
904.54	4663.9	
904.71	4663.9	
904.87	4663.9	
905.03	4663.9	
905.2	4663.9	
905.36	4663.9	
905.53	4663.9	
905.69	4663.9	
905.86	4663.9	
906.02	4663.9	
906.18	4663.9	
906.35	4663.9	
906.51	4663.9	
906.68	4663.9	
906.84	4663.9	
907.01	4663.9	
907.17	4663.9	
907.33	4663.9	
907.5	4663.9	
907.66	4663.9	
907.83	4663.9	
907.99	4663.9	
908.15	4663.9	
908.32	4663.9	
908.48	4663.9	
908.65	4663.9	
908.81	4663.9	
908.97	4663.9	
909.14	4663.9	
909.3	4663.9	
909.47	4663.9	
909.63	4663.9	
909.79	4663.9	
909.96	4663.9	
910.12	4663.9	
910.28	4663.9	
910.45	4663.9	
910.61	4663.9	
910.78	4663.9	
910.94	4663.9	
911.1	4663.9	
911.27	4663.9	
911.43	4663.9	
911.59	4663.9	
911.76	4663.9	
911.92	4663.9	
912.08	4663.9	
912.25	4663.9	
912.41	4663.9	
912.57	4663.9	
912.74	4663.9	
912.9	4663.9	
913.07	4663.9	
913.23	4663.9	
913.39	4663.9	
913.56	4663.9	
913.72	4663.9	
913.88	4663.9	
914.05	4663.9	
914.21	4663.9	
914.37	4663.9	
914.54	4663.9	
914.7	4663.9	
914.86	4663.9	
915.03	4663.9	
915.19	4663.9	
