Wavelength	Intensities	
nm	a.u.	
179.22	1407.6	
179.44	1407	
179.65	1408.3	
179.86	1405.6	
180.08	1356.4	
180.29	2936.8	
180.51	2431.6	
180.72	4205.8	
180.94	4428.4	
181.15	2107.4	
181.37	2138.8	
181.58	3936.9	
181.79	3951.2	
182.01	2200.2	
182.22	2244.6	
182.44	4191.5	
182.65	3753.2	
182.87	2667.1	
183.08	2492.4	
183.29	4265.2	
183.51	3705.5	
183.72	2203.6	
183.94	2866.5	
184.15	3915.7	
184.37	3865.9	
184.58	2125.1	
184.79	2449.4	
185.01	3794.9	
185.22	4314.4	
185.44	2617.3	
185.65	2366.8	
185.86	4087.1	
186.08	3724.6	
186.29	2097.8	
186.51	2170.2	
186.72	3859.7	
186.94	4243.4	
187.15	2449.4	
187.36	2409.1	
187.58	4853	
187.79	4060.4	
188.01	2390	
188.22	3409.2	
188.43	4554	
188.65	4184.7	
188.86	2222.7	
189.08	2449.4	
189.29	3865.9	
189.5	3785.3	
189.72	2253.4	
189.93	2314.9	
190.15	4187.4	
190.36	4631.1	
190.57	2474.6	
190.79	2390.7	
191	4225	
191.22	4203.1	
191.43	2522.4	
191.64	2241.8	
191.86	4353.3	
192.07	4253.6	
192.29	2246.6	
192.5	2247.3	
192.71	4250.9	
192.93	3895.9	
193.14	2286.9	
193.35	2332.6	
193.57	3840.6	
193.78	4253.6	
194	1973.6	
194.21	2202.9	
194.42	3497.9	
194.64	3962.8	
194.85	2359.3	
195.07	2729.3	
195.28	3943.7	
195.49	3624.2	
195.71	2734.7	
195.92	2189.3	
196.13	4154.6	
196.35	3979.9	
196.56	2882.2	
196.78	2459.6	
196.99	4760.2	
197.2	4386.7	
197.42	2575	
197.63	2437.1	
197.84	3787.4	
198.06	4052.9	
198.27	2293.7	
198.48	2750.4	
198.7	3876.8	
198.91	4056.3	
199.13	2443.2	
199.34	2413.2	
199.55	4354	
199.77	3418.7	
199.98	2265.7	
200.19	2493.1	
200.41	4065.9	
200.62	3814.7	
200.83	2425.5	
201.05	2643.9	
201.26	3994.2	
201.47	3877.5	
201.69	2194.1	
201.9	2263.7	
202.11	4052.2	
202.33	4360.8	
202.54	2337.4	
202.76	2600.2	
202.97	3964.9	
203.18	4121.2	
203.4	2464.4	
203.61	2603	
203.82	4031.8	
204.04	3687	
204.25	2437.8	
204.46	2409.1	
204.68	4046.1	
204.89	4102.1	
205.1	2331.3	
205.32	2168.8	
205.53	4080.2	
205.74	4215.4	
205.96	2024.1	
206.17	2407.7	
206.38	4070.7	
206.6	4219.5	
206.81	2593.4	
207.02	2327.2	
207.24	4085	
207.45	4283	
207.66	2308.1	
207.88	2126.5	
208.09	4062.5	
208.3	3904.8	
208.52	2215.9	
208.73	2394.8	
208.94	3989.4	
209.15	4263.9	
209.37	2332	
209.58	2375	
209.79	4076.1	
210.01	3921.9	
210.22	2070.5	
210.43	2100.5	
210.65	3809.2	
210.86	4087.1	
211.07	2325.8	
211.29	2190.6	
211.5	3936.9	
211.71	3945.8	
211.93	2290.3	
212.14	2222	
212.35	3971	
212.56	3917.8	
212.78	2428.9	
212.99	2076	
213.2	4403.8	
213.42	3923.9	
213.63	2260.3	
213.84	2326.5	
214.06	3759.4	
214.27	3586	
214.48	2321.7	
214.69	2484.2	
214.91	4300.7	
215.12	4252.9	
215.33	2408.4	
215.55	2527.2	
215.76	4562.9	
215.97	4063.9	
216.18	2398.9	
216.4	2416.6	
216.61	3734.8	
216.82	4100	
217.04	2292.4	
217.25	2371.5	
217.46	4220.9	
217.67	4102.1	
217.89	2111.5	
218.1	2138.1	
218.31	3874.1	
218.53	4091.8	
218.74	2372.9	
218.95	2219.3	
219.16	3951.9	
219.38	4360.1	
219.59	2209.1	
219.8	2476.7	
220.01	4498.7	
220.23	4027	
220.44	2651.4	
220.65	2204.3	
220.87	4055.7	
221.08	4283	
221.29	2205.7	
221.5	2539.5	
221.72	4702.1	
221.93	3689.1	
222.14	2386.6	
222.35	2781.8	
222.57	3969.6	
222.78	4244.8	
222.99	2383.8	
223.2	2465.8	
223.42	4012	
223.63	3969	
223.84	1938.1	
224.05	1989.9	
224.27	4382.7	
224.48	4304.1	
224.69	2802.3	
224.9	2433.7	
225.12	4030.4	
225.33	3960.1	
225.54	2122.4	
225.75	2271.9	
225.97	3801	
226.18	3943.7	
226.39	2308.7	
226.6	2288.9	
226.82	3857	
227.03	3749.1	
227.24	2397.5	
227.45	2177	
227.67	4263.9	
227.88	4239.3	
228.09	2674	
228.3	2628.9	
228.52	4052.2	
228.73	3934.1	
228.94	2235.7	
229.15	2166.8	
229.36	3997	
229.58	4041.3	
229.79	2388.6	
230	2489.6	
230.21	4493.9	
230.43	3900	
230.64	2422.1	
230.85	2453.5	
231.06	4200.4	
231.28	4207.9	
231.49	2162.7	
231.7	2449.4	
231.91	4169.7	
232.12	3889.8	
232.34	2233.7	
232.55	2425.5	
232.76	4244.1	
232.97	3983.3	
233.18	2201.6	
233.4	2445.3	
233.61	3954.6	
233.82	3798.3	
234.03	2347.7	
234.25	2322.4	
234.46	4864.6	
234.67	4016.7	
234.88	2464.4	
235.09	2309.4	
235.31	3947.8	
235.52	3891.8	
235.73	2362	
235.94	2134	
236.15	3764.8	
236.37	4471.4	
236.58	2190	
236.79	2341.5	
237	4114.4	
237.21	3698.6	
237.43	2467.1	
237.64	2119.6	
237.85	5637.4	
238.06	3825.6	
238.27	2411.8	
238.48	2198.2	
238.7	4156	
238.91	3949.8	
239.12	2267.1	
239.33	2472.6	
239.54	3700.7	
239.76	3911.6	
239.97	2368.1	
240.18	2369.5	
240.39	4411.3	
240.6	3985.3	
240.82	2537.4	
241.03	2180.4	
241.24	3940.3	
241.45	4240.7	
241.66	2189.3	
241.87	2513.5	
242.09	4344.4	
242.3	4249.5	
242.51	2539.5	
242.72	2317.6	
242.93	4109.6	
243.14	3777.8	
243.36	2680.8	
243.57	2768.9	
243.78	4328	
243.99	4028.4	
244.2	2340.8	
244.41	2179.7	
244.63	3639.2	
244.84	3934.1	
245.05	2466.4	
245.26	2288.9	
245.47	4201.1	
245.68	4046.8	
245.9	2764.8	
246.11	2443.9	
246.32	3718.4	
246.53	4093.2	
246.74	3409.9	
246.95	2126.5	
247.16	3890.5	
247.38	3940.3	
247.59	2215.2	
247.8	2613.2	
248.01	3488.4	
248.22	3971.7	
248.43	2250.7	
248.64	2336	
248.86	3697.9	
249.07	3865.9	
249.28	2283.5	
249.49	2428.9	
249.7	3979.2	
249.91	4104.8	
250.12	2170.8	
250.34	2153.8	
250.55	3969	
250.76	3867.9	
250.97	2401.6	
251.18	2428.9	
251.39	4096.6	
251.6	4011.3	
251.81	2442.5	
252.03	2417.3	
252.24	3687	
252.45	4061.1	
252.66	2166.1	
252.87	2510.8	
253.08	3938.2	
253.29	4575.8	
253.5	2194.1	
253.72	2749.1	
253.93	3872.7	
254.14	4412	
254.35	2286.9	
254.56	2293.7	
254.77	4043.4	
254.98	3768.9	
255.19	2357.9	
255.41	2647.3	
255.62	4077.5	
255.83	4200.4	
256.04	2499.2	
256.25	2352.4	
256.46	4484.4	
256.67	3747.1	
256.88	2471.9	
257.09	2592	
257.31	3519.1	
257.52	3771	
257.73	2861.7	
257.94	2283.5	
258.15	3994.9	
258.36	3835.2	
258.57	2651.4	
258.78	1982.4	
258.99	4227	
259.2	3843.4	
259.41	2226.8	
259.63	2402.3	
259.84	4328.7	
260.05	4360.1	
260.26	2692.4	
260.47	2263.7	
260.68	4273.4	
260.89	3867.9	
261.1	2611.8	
261.31	2272.6	
261.52	4415.4	
261.73	4410.6	
261.95	2800.9	
262.16	2476.7	
262.37	4173.8	
262.58	4283.7	
262.79	2722.4	
263	2261	
263.21	3917.8	
263.42	3730.7	
263.63	2515.6	
263.84	2301.2	
264.05	4013.3	
264.26	4319.2	
264.47	2671.9	
264.69	2398.9	
264.9	4412.7	
265.11	3928	
265.32	2210.4	
265.53	2226.8	
265.74	3964.2	
265.95	3629.7	
266.16	2393.4	
266.37	2556.5	
266.58	4020.2	
266.79	3805.1	
267	2284.9	
267.21	2153.1	
267.42	3705.5	
267.63	3977.8	
267.84	2346.3	
268.06	2140.8	
268.27	4062.5	
268.48	4191.5	
268.69	2357.2	
268.9	2600.9	
269.11	3828.3	
269.32	3590.8	
269.53	2384.5	
269.74	2205.7	
269.95	3890.5	
270.16	3700.7	
270.37	2405	
270.58	2587.9	
270.79	3911.6	
271	4221.5	
271.21	2394.1	
271.42	2366.1	
271.63	4095.9	
271.84	3695.9	
272.05	2046.6	
272.26	2213.9	
272.47	3974.4	
272.68	4027.7	
272.89	2359.9	
273.11	2499.9	
273.32	3715	
273.53	4321.2	
273.74	2432.3	
273.95	2467.8	
274.16	3940.3	
274.37	3889.1	
274.58	2577.7	
274.79	2237.1	
275	4019.5	
275.21	4128.7	
275.42	2938.8	
275.63	2489	
275.84	4122.6	
276.05	4715.1	
276.26	2446.6	
276.47	2342.2	
276.68	4044.7	
276.89	4407.2	
277.1	2525.8	
277.31	2129.2	
277.52	4080.9	
277.73	4383.3	
277.94	2140.8	
278.15	2349.7	
278.36	4118.5	
278.57	3816.7	
278.78	2308.1	
278.99	2491	
279.2	3855.6	
279.41	3787.4	
279.62	2823.5	
279.83	2194.1	
280.04	4543.8	
280.25	3799.7	
280.46	2815.3	
280.67	2357.2	
280.88	3855	
281.09	4197.7	
281.3	2475.3	
281.51	2833	
281.72	3846.8	
281.93	3944.4	
282.14	2262.3	
282.35	2430.3	
282.56	4247.5	
282.77	4121.9	
282.98	2342.9	
283.19	2624.8	
283.4	4747.9	
283.61	3889.8	
283.82	2224.8	
284.03	2723.8	
284.24	4131.4	
284.45	4065.9	
284.66	2839.2	
284.87	2564.1	
285.08	4267.3	
285.29	4326.7	
285.5	2217.3	
285.71	2349.7	
285.92	4128.7	
286.12	4510.3	
286.33	2730.6	
286.54	2417.3	
286.75	4090.5	
286.96	3905.5	
287.17	2275.3	
287.38	2636.4	
287.59	3915	
287.8	3910.9	
288.01	2314.9	
288.22	2506	
288.43	3830.4	
288.64	3565.5	
288.85	2599.6	
289.06	2575	
289.27	4166.3	
289.48	4259.1	
289.69	2777.7	
289.9	2530.6	
290.11	4334.9	
290.32	3885	
290.53	2600.2	
290.74	2405.7	
290.94	4164.2	
291.15	4191.5	
291.36	2294.4	
291.57	2492.4	
291.78	3921.2	
291.99	3649.5	
292.2	2260.3	
292.41	2476	
292.62	4218.8	
292.83	4135.5	
293.04	2919	
293.25	2320.3	
293.46	3912.3	
293.67	4087.7	
293.88	2200.2	
294.09	2234.3	
294.29	3831.1	
294.5	3990.8	
294.71	2379.7	
294.92	2292.4	
295.13	3875.4	
295.34	4530.1	
295.55	2163.3	
295.76	2112.8	
295.97	4174.4	
296.18	4298.7	
296.39	2108	
296.6	2279.4	
296.81	3727.3	
297.01	4156	
297.22	2353.1	
297.43	2329.2	
297.64	3945.8	
297.85	3772.4	
298.06	2036.4	
298.27	2136.7	
298.48	3882.9	
298.69	3835.2	
298.9	2415.9	
299.11	2242.5	
299.31	3800.3	
299.52	3842	
299.73	2550.4	
299.94	2476.7	
300.15	4062.5	
300.36	3825.6	
300.57	2463	
300.78	2428.9	
300.99	3837.2	
301.2	3962.1	
301.4	2345.6	
301.61	2372.9	
301.82	3945.1	
302.03	4169	
302.24	2577	
302.45	2211.8	
302.66	4160.1	
302.87	4012.7	
303.08	2279.4	
303.29	2811.2	
303.49	3953.9	
303.7	3718.4	
303.91	2177	
304.12	2675.3	
304.33	3506.8	
304.54	4070	
304.75	2293	
304.96	2290.3	
305.16	4160.1	
305.37	4394.9	
305.58	2082.1	
305.79	2095.1	
306	4121.9	
306.21	3689.1	
306.42	2304.6	
306.63	3016	
306.83	3885	
307.04	3968.3	
307.25	2398.9	
307.46	2381.1	
307.67	3696.6	
307.88	3977.2	
308.09	2315.6	
308.29	2280.8	
308.5	3998.3	
308.71	4172.4	
308.92	2375.6	
309.13	2221.4	
309.34	4016.7	
309.55	3911.6	
309.75	2700.6	
309.96	2465.8	
310.17	4099.4	
310.38	3765.5	
310.59	2481.5	
310.8	2370.2	
311.01	3880.9	
311.21	4019.5	
311.42	2283.5	
311.63	2248.7	
311.84	3874.1	
312.05	3992.2	
312.26	2482.1	
312.46	2653.5	
312.67	3870.7	
312.88	3534.1	
313.09	2216.6	
313.3	2247.3	
313.51	4295.3	
313.71	4488.5	
313.92	2252.8	
314.13	2298.5	
314.34	4076.8	
314.55	4012.7	
314.76	2607.1	
314.96	2380.4	
315.17	4150.6	
315.38	3822.9	
315.59	2259.6	
315.8	2157.2	
316.01	4220.9	
316.21	4333.5	
316.42	2230.2	
316.63	2413.2	
316.84	3900	
317.05	4067.9	
317.26	2516.3	
317.46	2364.7	
317.67	3927.3	
317.88	4052.2	
318.09	2605.7	
318.3	2148.3	
318.5	3913	
318.71	3989.4	
318.92	3131.3	
319.13	2557.9	
319.34	4136.2	
319.54	4214.7	
319.75	2098.5	
319.96	2066.4	
320.17	4018.1	
320.38	4202.4	
320.58	2099.9	
320.79	2355.8	
321	4229.7	
321.21	4302.8	
321.42	2472.6	
321.62	2110.1	
321.83	3883.6	
322.04	3959.4	
322.25	2354.5	
322.46	2233.7	
322.66	3902.7	
322.87	4138.3	
323.08	2538.8	
323.29	2153.1	
323.5	4492.6	
323.7	3697.3	
323.91	2740.9	
324.12	2542.9	
324.33	4108.9	
324.53	4100	
324.74	2450.1	
324.95	2505.3	
325.16	3703.4	
325.37	3861.8	
325.57	2204.3	
325.78	2240.5	
325.99	4114.4	
326.2	3678.2	
326.4	2781.8	
326.61	2157.2	
326.82	3927.3	
327.03	4001	
327.24	2874.7	
327.44	2656.9	
327.65	4102.1	
327.86	3549.8	
328.07	2502.6	
328.27	2227.5	
328.48	4289.8	
328.69	3690.4	
328.9	2792.1	
329.1	2200.2	
329.31	3932.1	
329.52	4276.8	
329.73	2272.6	
329.93	2357.9	
330.14	4058.4	
330.35	4044.7	
330.56	3204.4	
330.76	2575.7	
330.97	3893.2	
331.18	3934.8	
331.39	2452.1	
331.59	2063	
331.8	4193.6	
332.01	4258.4	
332.22	2297.1	
332.42	2447.3	
332.63	3925.3	
332.84	3676.8	
333.05	2428.9	
333.25	2255.5	
333.46	3721.2	
333.67	3927.3	
333.88	2362	
334.08	2373.6	
334.29	5231.2	
334.5	4076.1	
334.7	2227.5	
334.91	2801.6	
335.12	3648.1	
335.33	4002.4	
335.53	2420	
335.74	3023.5	
335.95	3962.1	
336.16	3522.5	
336.36	2386.6	
336.57	2655.5	
336.78	3411.2	
336.98	4204.5	
337.19	2751.8	
337.4	2310.1	
337.61	4343.1	
337.81	3650.2	
338.02	2321.7	
338.23	2648	
338.43	4272.1	
338.64	3820.1	
338.85	2240.5	
339.05	2743.6	
339.26	4374.5	
339.47	3629.7	
339.68	2284.2	
339.88	2868.5	
340.09	4142.4	
340.3	4242	
340.5	2488.3	
340.71	2115.6	
340.92	3812	
341.13	4216.8	
341.33	2125.8	
341.54	2462.3	
341.75	4024.3	
341.95	3816.7	
342.16	2420.7	
342.37	2521.7	
342.57	3736.2	
342.78	3870	
342.99	2542.9	
343.19	2135.3	
343.4	4136.9	
343.61	4042	
343.81	2329.9	
344.02	2187.2	
344.23	4082.3	
344.43	4235.2	
344.64	2609.1	
344.85	2519	
345.06	4106.2	
345.26	4224.3	
345.47	2549.7	
345.68	2758.6	
345.88	3650.2	
346.09	4169.7	
346.3	2547	
346.5	2045.2	
346.71	3768.9	
346.92	3870	
347.12	2200.9	
347.33	2385.9	
347.54	4148.5	
347.74	4346.5	
347.95	2467.1	
348.16	2062.3	
348.36	3855.6	
348.57	3725.3	
348.78	2581.8	
348.98	2564.7	
349.19	3919.1	
349.39	3592.8	
349.6	2201.6	
349.81	2244.6	
350.01	4186.7	
350.22	3799	
350.43	2517	
350.63	2724.5	
350.84	3819.5	
351.05	3729.4	
351.25	2257.5	
351.46	2119.6	
351.67	3946.4	
351.87	3710.2	
352.08	2367.5	
352.29	2605	
352.49	4121.9	
352.7	4117.1	
352.9	2195.4	
353.11	2545.6	
353.32	4343.7	
353.52	3920.5	
353.73	2242.5	
353.94	2607.7	
354.14	4112.3	
354.35	3753.2	
354.55	2288.9	
354.76	2411.8	
354.97	4039.3	
355.17	3889.8	
355.38	2223.4	
355.59	2661.7	
355.79	3766.9	
356	3922.5	
356.2	2413.9	
356.41	2256.2	
356.62	3749.1	
356.82	3906.8	
357.03	2564.1	
357.24	2310.8	
357.44	3716.4	
357.65	3828.3	
357.85	2882.9	
358.06	2441.9	
358.27	3593.5	
358.47	3625.6	
358.68	2211.1	
358.88	2521	
359.09	4080.9	
359.3	4095.9	
359.5	2785.9	
359.71	2568.8	
359.91	4188.1	
360.12	3880.9	
360.33	2604.3	
360.53	2732.7	
360.74	3864.5	
360.94	3821.5	
361.15	2618.7	
361.36	2321	
361.56	4163.5	
361.77	3922.5	
361.97	2852.1	
362.18	2396.8	
362.38	4175.1	
362.59	3725.9	
362.8	2303.3	
363	2236.4	
363.21	3667.9	
363.41	3846.8	
363.62	2548.4	
363.83	2812.5	
364.03	4203.8	
364.24	4216.8	
364.44	2994.8	
364.65	2900.6	
364.85	3902.7	
365.06	3820.8	
365.27	2381.8	
365.47	2433.7	
365.68	4233.2	
365.88	3945.8	
366.09	2545.6	
366.29	2385.2	
366.5	3788.7	
366.71	4151.9	
366.91	2977.7	
367.12	2608.4	
367.32	4517.8	
367.53	3874.8	
367.73	2717.7	
367.94	3116.3	
368.14	4196.3	
368.35	4081.6	
368.56	2565.4	
368.76	2332	
368.97	4007.2	
369.17	4723.3	
369.38	2355.2	
369.58	2539.5	
369.79	3580.5	
369.99	4375.8	
370.2	3012.6	
370.4	2545.6	
370.61	4020.2	
370.82	4575.2	
371.02	2566.8	
371.23	2237.1	
371.43	3844	
371.64	4390.2	
371.84	2613.2	
372.05	3013.9	
372.25	4732.9	
372.46	3897.3	
372.66	2441.9	
372.87	2515.6	
373.07	3977.8	
373.28	4924.7	
373.48	2951.1	
373.69	2801.6	
373.9	3992.2	
374.1	3979.2	
374.31	2939.5	
374.51	2688.3	
374.72	4216.8	
374.92	3944.4	
375.13	2894.5	
375.33	2654.9	
375.54	4123.2	
375.74	3986	
375.95	2792.7	
376.15	3244.7	
376.36	4280.3	
376.56	4143	
376.77	2721.1	
376.97	2881.5	
377.18	4780	
377.38	4204.5	
377.59	3005.1	
377.79	2610.5	
378	4133.5	
378.2	4203.8	
378.41	2600.9	
378.61	2517	
378.82	4376.5	
379.02	4081.6	
379.23	2678.1	
379.43	3031.7	
379.64	4607.9	
379.84	4207.2	
380.05	2643.2	
380.25	2553.1	
380.46	4255.7	
380.66	4062.5	
380.87	3115.6	
381.07	3319.8	
381.28	4535.6	
381.48	4180.6	
381.69	2578.4	
381.89	2660.3	
382.1	3831.1	
382.3	4164.2	
382.51	3044	
382.71	3345.7	
382.91	3994.9	
383.12	4351.3	
383.32	2780.5	
383.53	2783.2	
383.73	4224.3	
383.94	4136.9	
384.14	2822.8	
384.35	2430.3	
384.55	3743	
384.76	4205.2	
384.96	2786.6	
385.17	2875.3	
385.37	4244.1	
385.58	3803.8	
385.78	2843.3	
385.98	2401.6	
386.19	4054.3	
386.39	4253.6	
386.6	2628.2	
386.8	2751.8	
387.01	4225.6	
387.21	4311	
387.42	2846.7	
387.62	3126.6	
387.83	4053.6	
388.03	3968.3	
388.23	2843.3	
388.44	3091.8	
388.64	3829	
388.85	3758.7	
389.05	2937.5	
389.26	3112.2	
389.46	4900.1	
389.67	4601.8	
389.87	2945	
390.07	2903.3	
390.28	4092.5	
390.48	3939.6	
390.69	2574.3	
390.89	2770.2	
391.1	4165.6	
391.3	4446.8	
391.5	3272	
391.71	3433.1	
391.91	4399	
392.12	4538.3	
392.32	3373	
392.53	2899.2	
392.73	3939.6	
392.93	4162.8	
393.14	2807.8	
393.34	3125.2	
393.55	4336.9	
393.75	4078.2	
393.95	2794.8	
394.16	2761.3	
394.36	4168.3	
394.57	4417.5	
394.77	2691	
394.98	2744.3	
395.18	4064.5	
395.38	4099.4	
395.59	3098.6	
395.79	2749.1	
396	4214	
396.2	4347.2	
396.4	3132.7	
396.61	3086.3	
396.81	4289.1	
397.02	4080.2	
397.22	3209.8	
397.42	3219.4	
397.63	4594.3	
397.83	4146.5	
398.04	2749.7	
398.24	2993.4	
398.44	4397.7	
398.65	3834.5	
398.85	2692.4	
399.05	2729.3	
399.26	4214.7	
399.46	4824.3	
399.67	2955.2	
399.87	2817.3	
400.07	4377.9	
400.28	4395.6	
400.48	2833	
400.69	3282.9	
400.89	4622.3	
401.09	4767	
401.3	2852.1	
401.5	3306.8	
401.7	4737.6	
401.91	4887.1	
402.11	3085.6	
402.32	3048.7	
402.52	4594.3	
402.72	4467.3	
402.93	3214.6	
403.13	2731.3	
403.33	4972.5	
403.54	4357.4	
403.74	3005.7	
403.94	3397.6	
404.15	4198.3	
404.35	4900.8	
404.56	2977.1	
404.76	3606.5	
404.96	4590.9	
405.17	4444.8	
405.37	3348.4	
405.57	3138.9	
405.78	4607.2	
405.98	4179.9	
406.18	2966.8	
406.39	3206.4	
406.59	4377.2	
406.79	4289.1	
407	2893.1	
407.2	2860.3	
407.4	4871.4	
407.61	4700.8	
407.81	3002.3	
408.01	3690.4	
408.22	3900	
408.42	4902.2	
408.62	3449.5	
408.83	3199.6	
409.03	4383.3	
409.23	4515.1	
409.44	3287	
409.64	3306.1	
409.84	4956.8	
410.05	4864.6	
410.25	3392.8	
410.45	3329.3	
410.66	4780	
410.86	5827.2	
411.06	3522.5	
411.27	3486.3	
411.47	5704.3	
411.67	4805.2	
411.88	3547.8	
412.08	3676.8	
412.28	5086.5	
412.49	5319.9	
412.69	3513.6	
412.89	3586.7	
413.09	5296	
413.3	5235.3	
413.5	3653.6	
413.7	3530.7	
413.91	4721.3	
414.11	5339.7	
414.31	3597.6	
414.52	3732.8	
414.72	5172.5	
414.92	5132.2	
415.12	3539.6	
415.33	3841.3	
415.53	5109.7	
415.73	5470.8	
415.94	3912.3	
416.14	3624.9	
416.34	5072.8	
416.55	4726	
416.75	4215.4	
416.95	3973.1	
417.15	5577.3	
417.36	5637.4	
417.56	4419.5	
417.76	3924.6	
417.97	5528.8	
418.17	5343.8	
418.37	3825.6	
418.57	3735.5	
418.78	5480.4	
418.98	5201.8	
419.18	4164.2	
419.38	4117.8	
419.59	5175.2	
419.79	5106.3	
419.99	3784.6	
420.2	3867.9	
420.4	5502.9	
420.6	5474.9	
420.8	3696.6	
421.01	3592.1	
421.21	5440.8	
421.41	5306.3	
421.61	3809.9	
421.82	3811.3	
422.02	5311.7	
422.22	5595.7	
422.42	4132.8	
422.63	3958	
422.83	5166.3	
423.03	5799.2	
423.23	3969	
423.44	3539.6	
423.64	5102.2	
423.84	4894.6	
424.04	3766.2	
424.25	3599.6	
424.45	5588.9	
424.65	5511.8	
424.85	3460.4	
425.06	3721.8	
425.26	5825.8	
425.46	5217.5	
425.66	3950.5	
425.87	3779.9	
426.07	5484.5	
426.27	5301.5	
426.47	3837.2	
426.67	3556	
426.88	5625.1	
427.08	5448.3	
427.28	4037.9	
427.48	3588	
427.69	5046.9	
427.89	5131.5	
428.09	3882.9	
428.29	3510.9	
428.5	5340.4	
428.7	5339.7	
428.9	3601.7	
429.1	3720.5	
429.3	5343.2	
429.51	5322	
429.71	3701.4	
429.91	4126.7	
430.11	5526.8	
430.31	5560.2	
430.52	3882.3	
430.72	3904.1	
430.92	5720.7	
431.12	5492.7	
431.32	3687	
431.53	3923.9	
431.73	5051	
431.93	5707.7	
432.13	3652.9	
432.33	3655.6	
432.54	5341.8	
432.74	5296.7	
432.94	3629.7	
433.14	4105.5	
433.34	5693.4	
433.55	5362.3	
433.75	4025.6	
433.95	4731.5	
434.15	5551.4	
434.35	5278.3	
434.56	3743	
434.76	3573.7	
434.96	5397.1	
435.16	5545.2	
435.36	3739.6	
435.56	4240	
435.77	5362.3	
435.97	5405.3	
436.17	4472.8	
436.37	4275.5	
436.57	5227.8	
436.78	5294.7	
436.98	4913.1	
437.18	4467.3	
437.38	5272.2	
437.58	5198.4	
437.78	4528.7	
437.99	3936.9	
438.19	5661.3	
438.39	6246.3	
438.59	3992.9	
438.79	3749.1	
438.99	6012.8	
439.2	5345.2	
439.4	3727.3	
439.6	3771	
439.8	5233.9	
440	5958.9	
440.2	4248.9	
440.4	4218.8	
440.61	5806.7	
440.81	5845.6	
441.01	3927.3	
441.21	4252.9	
441.41	6058.6	
441.61	5657.9	
441.81	4485.1	
442.02	4790.2	
442.22	6126.2	
442.42	5952.8	
442.62	4028.4	
442.82	4008.6	
443.02	6180.8	
443.22	5790.3	
443.43	4341	
443.63	3959.4	
443.83	5616.2	
444.03	5539.1	
444.23	4584	
444.43	4364.2	
444.63	5870.8	
444.83	6269.5	
445.04	4203.1	
445.24	4636.6	
445.44	5921.4	
445.64	5896.8	
445.84	4388.8	
446.04	4494.6	
446.24	5584.1	
446.44	6085.9	
446.65	4116.4	
446.85	4321.2	
447.05	5737.7	
447.25	5991.7	
447.45	4301.4	
447.65	4026.3	
447.85	5874.3	
448.05	5596.4	
448.25	4446.1	
448.46	4318.5	
448.66	5666.7	
448.86	5633.3	
449.06	4088.4	
449.26	4390.2	
449.46	5944.6	
449.66	5611.4	
449.86	4328.7	
450.06	4198.3	
450.26	5636	
450.47	5939.1	
450.67	4379.2	
450.87	4480.3	
451.07	6202.6	
451.27	5692	
451.47	4108.2	
451.67	4474.8	
451.87	5798.5	
452.07	6287.9	
452.27	4282.3	
452.47	4246.1	
452.67	5958.2	
452.88	5835.3	
453.08	3944.4	
453.28	4740.4	
453.48	6523.5	
453.68	5769.8	
453.88	4328.7	
454.08	4341.7	
454.28	6128.2	
454.48	5903.6	
454.68	4564.2	
454.88	4693.9	
455.08	6229.9	
455.28	6040.8	
455.48	4167.6	
455.68	4532.2	
455.89	6251.1	
456.09	6169.2	
456.29	4504.2	
456.49	4542.4	
456.69	6438.8	
456.89	5941.8	
457.09	4696	
457.29	4884.4	
457.49	6160.3	
457.69	6281.8	
457.89	4709	
458.09	4325.3	
458.29	6116.6	
458.49	6566.5	
458.69	4827.7	
458.89	4595.6	
459.09	6567.8	
459.29	6571.9	
459.49	4651.6	
459.69	4995.7	
459.9	6400.6	
460.1	6330.3	
460.3	4601.8	
460.5	4514.4	
460.7	6567.8	
460.9	6127.5	
461.1	4519.2	
461.3	4969.1	
461.5	6820.4	
461.7	6518.7	
461.9	4730.1	
462.1	4894	
462.3	6496.8	
462.5	6569.2	
462.7	4767	
462.9	4764.3	
463.1	7183.6	
463.3	7016.3	
463.5	5018.9	
463.7	5415.5	
463.9	6637.5	
464.1	6713.9	
464.3	5081.7	
464.5	5135.6	
464.7	6849.8	
464.9	6773.3	
465.1	5659.2	
465.3	5284.4	
465.5	7120.1	
465.7	7194.5	
465.9	5565	
466.1	5300.1	
466.3	6977.4	
466.5	6764.4	
466.7	5836	
466.9	5375.2	
467.1	7258.7	
467.3	7394.5	
467.5	5827.8	
467.7	5380.7	
467.9	7634.1	
468.1	7826	
468.3	5638.1	
468.5	5960.3	
468.7	6993.8	
468.9	6952.2	
469.1	5565.7	
469.3	5868.1	
469.5	7955.7	
469.7	6925.5	
469.9	5771.9	
470.1	5487.2	
470.3	7264.8	
470.5	7129.7	
470.7	6111.1	
470.9	5500.2	
471.1	6962.4	
471.3	7237.5	
471.5	5531.6	
471.69	6158.2	
471.89	7146	
472.09	6784.2	
472.29	5857.2	
472.49	5825.8	
472.69	6929	
472.89	7106.5	
473.09	5486.5	
473.29	5475.6	
473.49	6942.6	
473.69	6698.2	
473.89	5898.2	
474.09	5491.3	
474.29	7517.4	
474.49	7248.4	
474.69	5796.4	
474.89	5504.9	
475.09	7083.2	
475.29	6944.7	
475.49	5358.2	
475.69	5417.6	
475.88	7626.6	
476.08	7086.7	
476.28	5236.7	
476.48	5406.6	
476.68	7507.2	
476.88	7126.9	
477.08	5402.5	
477.28	5496.1	
477.48	7092.1	
477.68	7065.5	
477.88	5290.6	
478.08	5319.9	
478.28	7403.4	
478.48	6992.4	
478.67	5544.5	
478.87	5074.2	
479.07	7202	
479.27	7082.6	
479.47	5532.2	
479.67	5571.8	
479.87	7272.3	
480.07	7367.2	
480.27	5385.5	
480.47	5870.8	
480.67	6966.5	
480.87	7414.3	
481.06	5337.7	
481.26	5798.5	
481.46	7200	
481.66	6981.5	
481.86	5707.7	
482.06	5954.8	
482.26	7088.7	
482.46	7226.6	
482.66	5580	
482.86	5392.3	
483.05	7455.3	
483.25	6865.5	
483.45	6682.5	
483.65	5552	
483.85	6779.5	
484.05	7015	
484.25	5841.5	
484.45	5991	
484.65	7165.8	
484.84	7567.2	
485.04	5575.3	
485.24	5651	
485.44	7838.3	
485.64	7001.3	
485.84	5486.5	
486.04	5870.8	
486.24	7208.8	
486.44	7389.1	
486.63	5387.5	
486.83	5812.8	
487.03	7314.7	
487.23	7310.6	
487.43	5547.3	
487.63	6383.5	
487.83	7301	
488.02	7023.9	
488.22	5803.3	
488.42	6085.2	
488.62	7676.5	
488.82	7160.4	
489.02	5844.9	
489.22	5862	
489.41	7337.9	
489.61	7675.1	
489.81	5709.1	
490.01	5662.6	
490.21	7766.6	
490.41	8011	
490.61	5760.3	
490.8	5778	
491	7456	
491.2	7235.5	
491.4	6075	
491.6	5705.6	
491.8	7402.7	
491.99	7375.4	
492.19	5729.5	
492.39	5792.3	
492.59	7572.7	
492.79	7864.2	
492.99	6166.4	
493.18	5702.9	
493.38	7986.4	
493.58	8196.7	
493.78	6073.6	
493.98	5887.9	
494.18	7541.3	
494.37	7281.9	
494.57	6268.8	
494.77	6231.3	
494.97	7967.3	
495.17	8083.3	
495.37	6225.1	
495.56	6342.6	
495.76	7897.7	
495.96	8157.7	
496.16	6897.6	
496.36	6421.7	
496.55	8335.9	
496.75	7953.6	
496.95	6584.9	
497.15	6577.4	
497.35	8368.7	
497.54	8280.6	
497.74	6524.1	
497.94	7122.2	
498.14	8742.1	
498.34	8383.7	
498.53	6393.8	
498.73	6703.7	
498.93	7936.6	
499.13	8360.5	
499.33	6764.4	
499.52	6756.9	
499.72	8599.4	
499.92	8333.2	
500.12	6541.2	
500.32	6648.4	
500.51	8434.2	
500.71	8312	
500.91	6975.4	
501.11	6855.9	
501.31	8473.8	
501.5	8740	
501.7	7307.2	
501.9	6829.3	
502.1	8402.8	
502.29	8587.8	
502.49	7001.3	
502.69	7129.7	
502.89	8579.6	
503.09	8578.9	
503.28	6487.3	
503.48	6562.4	
503.68	8336.6	
503.88	8061.5	
504.07	6958.3	
504.27	6621.8	
504.47	8354.3	
504.67	8367.3	
504.86	6795.2	
505.06	6687.3	
505.26	8290.9	
505.46	8746.2	
505.65	6742.6	
505.85	6677.7	
506.05	8215.8	
506.25	8471.1	
506.44	6230.6	
506.64	6717.3	
506.84	8057.4	
507.04	8349.6	
507.23	6429.3	
507.43	6520	
507.63	8720.9	
507.83	7888.1	
508.02	6608.8	
508.22	6397.9	
508.42	8888.2	
508.62	7798.7	
508.81	6439.5	
509.01	6804.7	
509.21	7845.8	
509.4	8153	
509.6	6596.5	
509.8	6328.2	
510	7974.8	
510.19	8266.3	
510.39	6280.4	
510.59	6323.4	
510.79	7918.1	
510.98	8499.8	
511.18	6569.2	
511.38	6432.7	
511.57	8501.1	
511.77	8056.7	
511.97	6720.1	
512.17	6449.7	
512.36	8371.4	
512.56	8092.9	
512.76	6378.1	
512.95	6220.4	
513.15	8574.8	
513.35	7715.4	
513.55	6678.4	
513.74	6352.8	
513.94	8266.3	
514.14	8056.7	
514.33	6793.1	
514.53	6533	
514.73	8113.4	
514.92	7953.6	
515.12	6386.9	
515.32	6371.9	
515.51	8155	
515.71	8036.2	
515.91	7100.3	
516.11	6287.9	
516.3	8854.7	
516.5	8006.9	
516.7	6630	
516.89	6826.6	
517.09	8000.7	
517.29	8070.4	
517.48	6835.4	
517.68	6453.1	
517.88	7524.9	
518.07	8293.6	
518.27	6707.1	
518.47	6354.2	
518.66	8484.1	
518.86	8013	
519.06	6282.5	
519.25	6458.6	
519.45	7985.7	
519.65	8632.9	
519.84	6682.5	
520.04	7053.2	
520.24	8825.4	
520.43	8251.3	
520.63	6593.1	
520.83	6592.4	
521.02	8124.3	
521.22	8232.8	
521.42	6779.5	
521.61	6902.3	
521.81	7978.9	
522.01	8282.7	
522.2	6686.6	
522.4	6505.7	
522.6	8400.1	
522.79	7698.3	
522.99	6608.1	
523.18	6346.7	
523.38	8352.3	
523.58	8303.8	
523.77	7104.4	
523.97	6366.5	
524.17	9067.7	
524.36	8886.8	
524.56	7077.1	
524.76	6862.1	
524.95	8531.2	
525.15	8286.1	
525.34	6913.3	
525.54	6888	
525.74	8766	
525.93	8207.6	
526.13	7393.2	
526.33	7092.1	
526.52	8882	
526.72	8728.4	
526.91	7495.6	
527.11	7284.6	
527.31	8886.8	
527.5	9097.1	
527.7	7346.1	
527.89	6866.2	
528.09	8583	
528.29	8767.4	
528.48	7464.2	
528.68	7256	
528.87	9056.8	
529.07	8926.4	
529.27	7344	
529.46	7139.9	
529.66	8998.8	
529.85	9062.9	
530.05	7064.1	
530.25	7401.4	
530.44	9628.9	
530.64	8846.5	
530.83	7379.5	
531.03	7414.3	
531.23	9299.8	
531.42	9026.8	
531.62	7694.2	
531.81	7333.1	
532.01	8889.5	
532.21	9260.2	
532.4	7350.2	
532.6	7463.5	
532.79	9467.8	
532.99	9286.9	
533.18	7555	
533.38	7987.1	
533.58	9263	
533.77	9439.8	
533.97	7733.8	
534.16	8049.9	
534.36	9742.2	
534.55	9226.1	
534.75	8050.6	
534.95	7701	
535.14	9676	
535.34	9237.7	
535.53	7643.7	
535.73	8258.1	
535.92	9955.2	
536.12	9175.6	
536.31	7725.6	
536.51	8212.4	
536.71	9480.7	
536.9	9182.4	
537.1	7662.8	
537.29	7767.3	
537.49	9611.8	
537.68	9287.5	
537.88	7915.4	
538.07	7466.2	
538.27	9469.1	
538.46	9792	
538.66	7492.2	
538.86	7710.6	
539.05	9438.4	
539.25	9549.7	
539.44	7910.6	
539.64	7672.4	
539.83	9342.2	
540.03	9760.6	
540.22	7651.9	
540.42	7772.7	
540.61	9467.1	
540.81	9536	
541	7841	
541.2	8082.6	
541.39	9196.1	
541.59	9244.5	
541.78	8066.3	
541.98	7591.8	
542.18	9060.2	
542.37	8931.9	
542.57	7748.8	
542.76	7940.7	
542.96	8966	
543.15	9168.1	
543.35	7715.4	
543.54	7464.2	
543.74	8586.5	
543.93	9254.8	
544.13	7634.8	
544.32	8074.5	
544.52	9325.1	
544.71	8918.9	
544.91	7158.3	
545.1	7608.9	
545.3	8959.2	
545.49	9040.4	
545.69	7075.7	
545.88	7333.8	
546.08	9724.4	
546.27	9243.8	
546.47	7501.7	
546.66	7208.8	
546.86	9197.4	
547.05	9248.6	
547.24	7305.1	
547.44	7261.4	
547.63	8731.9	
547.83	9011.1	
548.02	7395.9	
548.22	7423.2	
548.41	8660.9	
548.61	9191.3	
548.8	7186.3	
549	7200	
549.19	9071.1	
549.39	9175.6	
549.58	7088	
549.78	7324.2	
549.97	8983.1	
550.17	8715.5	
550.36	7550.9	
550.55	7999.4	
550.75	8763.9	
550.94	9200.8	
551.14	7112.6	
551.33	7171.3	
551.53	8403.5	
551.72	8882	
551.92	7212.9	
552.11	7109.9	
552.31	9005.6	
552.5	8744.1	
552.69	7825.3	
552.89	6935.1	
553.08	9000.1	
553.28	8745.5	
553.47	7107.1	
553.67	7509.9	
553.86	9039.7	
554.06	8318.2	
554.25	6767.9	
554.44	7007.5	
554.64	9417.9	
554.83	9170.1	
555.03	6930.3	
555.22	7110.5	
555.42	8998.8	
555.61	8783.7	
555.8	7048.4	
556	7084.6	
556.19	8424	
556.39	8668.4	
556.58	6999.3	
556.78	7092.8	
556.97	8753.7	
557.16	8668.4	
557.36	7489.4	
557.55	6897.6	
557.75	8237.6	
557.94	9154.4	
558.13	6890.7	
558.33	6842.9	
558.52	9007.6	
558.72	8067.6	
558.91	6821.1	
559.1	6891.4	
559.3	8193.2	
559.49	8219.9	
559.69	6853.9	
559.88	6981.5	
560.07	8563.9	
560.27	8919.6	
560.46	7170.6	
560.66	7197.9	
560.85	8601.5	
561.04	8174.1	
561.24	6799.3	
561.43	6809.5	
561.63	8353.7	
561.82	8419.9	
562.01	7281.2	
562.21	6904.4	
562.4	8587.1	
562.59	8939.4	
562.79	6908.5	
562.98	6765.8	
563.18	8682.7	
563.37	9046.6	
563.56	7040.2	
563.76	6881.2	
563.95	8185	
564.14	8391.9	
564.34	6941.9	
564.53	6736.5	
564.73	8703.2	
564.92	8538	
565.11	7049.1	
565.31	6765.8	
565.5	8920.3	
565.69	8204.2	
565.89	7003.4	
566.08	6918.7	
566.27	8512.7	
566.47	8955.8	
566.66	7320.8	
566.85	6777.4	
567.05	8556.4	
567.24	8435.6	
567.44	6792.4	
567.63	7436.9	
567.82	8759.2	
568.02	8566	
568.21	6791.1	
568.4	6941.9	
568.6	8604.9	
568.79	8518.2	
568.98	6825.9	
569.18	6905.1	
569.37	8570.7	
569.56	9187.9	
569.76	7139.2	
569.95	7489.4	
570.14	8788.5	
570.34	8471.1	
570.53	6907.1	
570.72	6906.4	
570.91	9031.5	
571.11	8663.6	
571.3	7165.8	
571.49	7489.4	
571.69	8844.5	
571.88	8436.3	
572.07	7206.1	
572.27	7240.3	
572.46	8325.7	
572.65	8811.7	
572.85	6948.8	
573.04	7129.7	
573.23	9123.7	
573.43	8760.5	
573.62	6967.9	
573.81	7154.9	
574	8934.6	
574.2	8589.2	
574.39	7144.7	
574.58	7098.9	
574.78	9101.9	
574.97	8894.3	
575.16	7405.5	
575.36	7406.1	
575.55	9131.9	
575.74	9127.1	
575.93	6898.9	
576.13	7552.2	
576.32	8818.6	
576.51	9071.1	
576.71	7283.3	
576.9	7849.9	
577.09	9323.7	
577.28	8991.3	
577.48	7400	
577.67	7091.4	
577.86	8986.5	
578.05	9086.8	
578.25	7394.5	
578.44	7430.7	
578.63	8984.4	
578.83	9411.1	
579.02	7129	
579.21	7767.9	
579.4	8983.8	
579.6	8929.1	
579.79	7468.3	
579.98	8274.5	
580.17	9179.7	
580.37	9330.5	
580.56	7155.6	
580.75	7473.7	
580.94	9167.4	
581.14	9462.3	
581.33	7784.3	
581.52	7330.4	
581.71	9106.6	
581.91	9478.7	
582.1	7290.8	
582.29	7358.4	
582.48	8923.7	
582.68	9024	
582.87	7543.4	
583.06	7529	
583.25	9390.6	
583.45	8839	
583.64	7828	
583.83	8000	
584.02	9183.8	
584.21	9339.4	
584.41	7715.4	
584.6	7489.4	
584.79	9183.8	
584.98	9279.3	
585.18	7362.4	
585.37	7215	
585.56	9055.4	
585.75	9282.8	
585.94	7395.2	
586.14	7677.8	
586.33	9398.1	
586.52	9056.8	
586.71	7662.8	
586.91	7501	
587.1	8728.4	
587.29	9254.8	
587.48	7382.9	
587.67	7239.6	
587.87	9056.8	
588.06	8899.8	
588.25	7831.4	
588.44	7520.1	
588.63	8843.1	
588.83	9100.5	
589.02	7227.3	
589.21	7103.7	
589.4	8808.3	
589.59	8712.1	
589.78	6753.5	
589.98	6782.9	
590.17	8389.2	
590.36	8457.4	
590.55	6482.5	
590.74	6774.7	
590.94	8873.2	
591.13	8224	
591.32	6664.1	
591.51	6301.6	
591.7	8249.9	
591.89	8145.5	
592.09	6290.7	
592.28	6491.4	
592.47	7573.4	
592.66	8604.9	
592.85	6346.7	
593.05	6438.8	
593.24	8082	
593.43	8590.5	
593.62	6592.4	
593.81	6690.7	
594	8268.3	
594.19	8198.7	
594.39	6412.2	
594.58	6423.8	
594.77	8312	
594.96	8512	
595.15	6496.2	
595.34	6727.6	
595.54	8112.7	
595.73	7782.3	
595.92	6184.9	
596.11	6513.9	
596.3	8448.6	
596.49	7965.9	
596.68	6512.5	
596.88	6677.1	
597.07	8253.3	
597.26	7833.5	
597.45	6336.4	
597.64	6856.6	
597.83	7898.3	
598.02	8120.2	
598.22	6330.3	
598.41	6664.1	
598.6	8082	
598.79	7886	
598.98	6350.1	
599.17	6769.9	
599.36	8201.4	
599.55	8563.9	
599.74	7199.3	
599.94	7118.1	
600.13	8271.1	
600.32	7865.6	
600.51	6312.5	
600.7	6354.2	
600.89	8606.9	
601.08	8724.3	
601.27	6296.1	
601.47	6738.5	
601.66	8264.9	
601.85	8445.1	
602.04	6572.6	
602.23	6421.7	
602.42	7937.2	
602.61	8250.6	
602.8	6459.3	
602.99	6349.4	
603.18	8034.9	
603.37	8110	
603.57	6556.2	
603.76	6824.5	
603.95	8458.8	
604.14	8153	
604.33	6404.7	
604.52	6551.5	
604.71	8254	
604.9	7807.5	
605.09	6802.7	
605.28	6687.3	
605.47	8492.2	
605.66	7941.3	
605.86	6675	
606.05	6366.5	
606.24	8628.8	
606.43	7691.5	
606.62	6623.8	
606.81	6845.7	
607	8430.1	
607.19	8010.3	
607.38	6227.2	
607.57	6369.2	
607.76	7813	
607.95	7492.8	
608.14	6683.9	
608.33	6782.2	
608.52	7911.3	
608.72	8230.8	
608.91	6195.1	
609.1	6189.6	
609.29	7931.8	
609.48	7629.4	
609.67	6557.6	
609.86	6175.3	
610.05	7593.2	
610.24	7693.5	
610.43	6216.3	
610.62	6021	
610.81	8438.3	
611	8312	
611.19	6203.3	
611.38	6493.4	
611.57	7956.4	
611.76	8445.1	
611.95	6082.5	
612.14	5965.7	
612.33	7905.8	
612.52	7449.1	
612.71	6318	
612.9	5898.8	
613.09	7514.7	
613.28	8540	
613.47	6128.2	
613.66	6513.2	
613.85	7964.6	
614.04	7668.3	
614.24	6241.5	
614.43	5828.5	
614.62	7928.4	
614.81	7882.6	
615	6339.1	
615.19	6446.3	
615.38	7719.5	
615.57	7869	
615.76	6369.9	
615.95	6795.8	
616.14	8006.2	
616.33	7821.2	
616.52	6588.3	
616.71	6571.2	
616.9	8022.6	
617.09	7836.2	
617.28	6275.7	
617.47	6609.5	
617.66	7647.8	
617.85	7622.5	
618.04	6640.9	
618.22	6328.9	
618.41	7545.4	
618.6	8312.7	
618.79	6450.4	
618.98	6386.2	
619.17	8352.3	
619.36	7542.7	
619.55	6468.9	
619.74	6493.4	
619.93	8075.8	
620.12	7788.4	
620.31	6584.2	
620.5	6709.1	
620.69	8301.8	
620.88	8581	
621.07	6992.4	
621.26	6651.1	
621.45	8243.1	
621.64	8159.8	
621.83	6707.8	
622.02	6361.7	
622.21	8103.1	
622.4	8237.6	
622.59	6962.4	
622.78	6923.5	
622.97	8054.7	
623.16	8322.9	
623.35	6861.4	
623.54	6416.3	
623.72	8093.6	
623.91	8054.7	
624.1	6898.9	
624.29	6393.8	
624.48	8643.8	
624.67	8482.7	
624.86	6746	
625.05	6446.3	
625.24	8806.9	
625.43	8103.8	
625.62	7555.6	
625.81	6541.9	
626	8396	
626.19	8178.9	
626.38	6811.5	
626.56	6614.9	
626.75	7899	
626.94	8443.1	
627.13	6891.4	
627.32	6299.6	
627.51	8410.3	
627.7	8751	
627.89	6452.5	
628.08	6896.9	
628.27	8029.4	
628.46	8098.4	
628.65	6510.5	
628.83	6290	
629.02	8320.9	
629.21	7845.8	
629.4	6607.4	
629.59	6759.7	
629.78	7820.5	
629.97	8385.1	
630.16	6734.4	
630.35	6599.9	
630.54	8745.5	
630.72	8546.9	
630.91	6480.5	
631.1	6721.4	
631.29	8021.9	
631.48	8110.6	
631.67	6809.5	
631.86	6613.6	
632.05	8242.4	
632.24	8226.7	
632.42	6485.9	
632.61	6737.8	
632.8	8045.8	
632.99	7785	
633.18	6780.8	
633.37	6849.1	
633.56	8346.8	
633.75	8336.6	
633.93	6862.7	
634.12	6662	
634.31	8860.2	
634.5	8448.6	
634.69	6632.7	
634.88	6911.2	
635.07	8224	
635.25	8385.1	
635.44	6998.6	
635.63	7176.8	
635.82	8255.4	
636.01	7206.8	
636.2	7008.1	
636.39	6876.4	
636.57	8729.1	
636.76	8242.4	
636.95	6604	
637.14	7094.8	
637.33	8357.1	
637.52	8619.9	
637.7	6513.9	
637.89	7002.7	
638.08	8228.7	
638.27	8704.5	
638.46	6919.4	
638.65	6997.9	
638.83	8811.7	
639.02	7991.2	
639.21	6895.5	
639.4	7075	
639.59	8250.6	
639.78	8159.1	
639.96	6507.8	
640.15	6522.1	
640.34	8209.6	
640.53	7853.3	
640.72	6494.8	
640.91	6553.5	
641.09	7943.4	
641.28	8380.3	
641.47	6634.1	
641.66	6883.2	
641.85	8197.3	
642.03	8137.9	
642.22	6718.7	
642.41	6507.8	
642.6	7965.2	
642.79	7630	
642.97	6451.1	
643.16	6690	
643.35	7901.1	
643.54	7776.8	
643.73	6295.5	
643.91	6610.8	
644.1	7615.7	
644.29	8082	
644.48	6452.5	
644.67	6366.5	
644.85	7357	
645.04	7927	
645.23	6173.3	
645.42	6320.7	
645.6	7606.8	
645.79	8049.2	
645.98	6127.5	
646.17	5680.4	
646.36	7060.7	
646.54	7521.5	
646.73	6352.1	
646.92	5911.1	
647.11	7474.4	
647.29	7767.3	
647.48	5800.5	
647.67	5657.9	
647.86	7828.7	
648.05	7750.9	
648.23	5877.7	
648.42	6408.8	
648.61	7518.1	
648.8	7500.3	
648.98	5747.3	
649.17	5918.6	
649.36	7236.8	
649.55	6923.5	
649.73	5748	
649.92	6073.6	
650.11	7156.3	
650.3	7350.8	
650.48	5767.8	
650.67	5714.5	
650.86	7444.4	
651.05	6961.7	
651.23	5786.9	
651.42	5717.2	
651.61	7200	
651.79	7023.9	
651.98	5909.8	
652.17	5603.9	
652.36	7361.1	
652.54	6845	
652.73	5768.4	
652.92	5636.7	
653.11	7368.6	
653.29	7420.5	
653.48	5411.4	
653.67	5766.4	
653.85	7235.5	
654.04	7662.8	
654.23	5855.1	
654.42	5659.9	
654.6	6941.9	
654.79	7220.5	
654.98	5362.9	
655.16	5631.2	
655.35	6819.7	
655.54	6464.8	
655.73	5329.5	
655.91	5174.5	
656.1	6962.4	
656.29	6421.7	
656.47	5083.7	
656.66	5734.3	
656.85	6792.4	
657.03	6691.4	
657.22	5347.2	
657.41	5345.2	
657.59	6796.5	
657.78	6711.2	
657.97	5231.2	
658.16	5568.4	
658.34	7108.5	
658.53	7355.6	
658.72	5960.3	
658.9	6113.9	
659.09	7036.8	
659.28	6982.9	
659.46	5543.9	
659.65	5443.5	
659.84	6879.1	
660.02	7184.3	
660.21	5602.6	
660.4	5355.4	
660.58	7321.5	
660.77	6845.7	
660.96	5703.6	
661.14	5281.7	
661.33	7494.9	
661.52	7468.3	
661.7	5283.1	
661.89	6618.4	
662.08	6864.8	
662.26	6401.3	
662.45	5439.4	
662.64	5472.2	
662.82	7296.2	
663.01	6762.4	
663.2	5481.7	
663.38	5693.4	
663.57	7060.7	
663.75	6986.3	
663.94	5483.8	
664.13	6054.5	
664.31	6915.3	
664.5	7124.9	
664.69	5744.6	
664.87	5747.3	
665.06	6678.4	
665.25	6976.1	
665.43	5961.6	
665.62	5857.9	
665.8	7026.6	
665.99	6796.5	
666.18	5597.8	
666.36	5509.7	
666.55	7065.5	
666.74	6967.2	
666.92	5489.9	
667.11	5980.8	
667.29	6928.3	
667.48	7036.8	
667.67	5834.7	
667.85	5451	
668.04	6744	
668.22	6729.6	
668.41	5593	
668.6	5687.2	
668.78	6739.9	
668.97	6805.4	
669.15	5636.7	
669.34	5141.1	
669.53	6701.6	
669.71	6827.2	
669.9	5295.4	
670.08	5536.3	
670.27	6558.3	
670.46	6924.9	
670.64	5749.3	
670.83	5776	
671.01	6482.5	
671.2	6766.5	
671.38	5441.5	
671.57	5354.1	
671.76	7213.6	
671.94	7268.2	
672.13	5197.7	
672.31	5680.4	
672.5	7083.9	
672.69	6541.9	
672.87	5302.2	
673.06	5447.6	
673.24	6836.1	
673.43	6780.8	
673.61	5577.3	
673.8	5446.9	
673.98	6920.1	
674.17	6955.6	
674.36	5756.2	
674.54	5615.5	
674.73	6461.3	
674.91	7053.2	
675.1	5457.8	
675.28	5151.3	
675.47	6852.5	
675.65	7030.7	
675.84	5453.7	
676.03	5559.6	
676.21	6737.8	
676.4	6424.5	
676.58	5739.8	
676.77	5634.6	
676.95	7446.4	
677.14	6724.8	
677.32	5197.7	
677.51	5304.2	
677.69	7056.6	
677.88	6660.7	
678.06	5286.5	
678.25	5318.6	
678.44	6838.9	
678.62	6675.7	
678.81	5224.4	
678.99	5509	
679.18	7131.7	
679.36	6858.6	
679.55	5359.5	
679.73	5621.7	
679.92	6845.7	
680.1	6683.9	
680.29	5870.2	
680.47	5368.4	
680.66	6746	
680.84	6924.2	
681.03	5176.6	
681.21	5578.7	
681.4	6574	
681.58	6550.1	
681.77	5279	
681.95	5270.8	
682.14	7075.7	
682.32	7111.9	
682.51	5640.1	
682.69	5160.2	
682.88	6600.6	
683.06	6746	
683.25	5529.5	
683.43	5716.6	
683.62	6893.5	
683.8	6885.3	
683.99	5654.4	
684.17	5433.9	
684.36	7148.1	
684.54	6513.9	
684.73	5068.7	
684.91	5061.2	
685.1	6733	
685.28	6270.2	
685.46	5174.5	
685.65	5169.8	
685.83	6647	
686.02	6294.8	
686.2	4877.6	
686.39	4908.3	
686.57	6152.1	
686.76	6617	
686.94	4816.8	
687.13	4879.6	
687.31	6395.1	
687.5	6264.7	
687.68	4630.5	
687.86	5078.3	
688.05	7161.1	
688.23	6109.8	
688.42	5163.6	
688.6	4876.2	
688.79	6109.8	
688.97	6338.5	
689.16	5119.2	
689.34	4644.1	
689.52	6496.2	
689.71	6689.3	
689.89	5255.8	
690.08	4997	
690.26	6414.9	
690.45	6208.1	
690.63	5356.1	
690.81	5132.2	
691	6551.5	
691.18	6210.1	
691.37	5191.6	
691.55	5984.8	
691.74	6249.7	
691.92	7032.7	
692.1	4975.9	
692.29	4818.2	
692.47	6403.3	
692.66	6113.9	
692.84	4894.6	
693.02	4998.4	
693.21	5973.9	
693.39	6258.6	
693.58	5120.6	
693.76	4851.6	
693.94	6806.8	
694.13	6722.8	
694.31	5011.4	
694.5	5395	
694.68	6253.1	
694.86	6516.6	
695.05	5097.4	
695.23	5348.6	
695.42	6524.1	
695.6	7471	
695.78	5431.2	
695.97	5102.2	
696.15	6735.8	
696.34	6421.7	
696.52	5041.4	
696.7	5431.2	
696.89	6589.7	
697.07	6221.7	
697.25	5267.4	
697.44	5852.4	
697.62	6520	
697.81	6531.7	
697.99	5063.9	
698.17	5222.3	
698.36	6243.6	
698.54	6520	
698.72	5162.2	
698.91	4760.2	
699.09	6340.5	
699.28	6021.7	
699.46	5026.4	
699.64	4958.8	
699.83	6210.1	
700.01	6461.3	
700.19	5253.7	
700.38	4545.8	
700.56	6356.2	
700.74	6193.1	
700.93	4693.9	
701.11	5140.4	
701.29	6485.2	
701.48	6843.6	
701.66	4856.4	
701.84	4906.3	
702.03	6325.5	
702.21	6743.3	
702.39	4776.5	
702.58	5026.4	
702.76	6628.6	
702.94	6536.4	
703.13	4648.9	
703.31	5651.7	
703.49	6385.6	
703.68	6747.4	
703.86	4771.8	
704.04	5141.8	
704.23	6494.1	
704.41	6546.7	
704.59	4943.1	
704.78	5288.5	
704.96	7251.2	
705.14	6434	
705.33	4758.8	
705.51	5094.7	
705.69	6139.1	
705.87	6664.8	
706.06	5097.4	
706.24	4736.3	
706.42	6225.8	
706.61	6448.4	
706.79	5187.5	
706.97	4650.3	
707.16	6035.4	
707.34	6391	
707.52	5113.1	
707.7	4815.5	
707.89	5750	
708.07	5969.1	
708.25	5111	
708.44	5259.9	
708.62	5971.2	
708.8	6507.1	
708.98	5176.6	
709.17	4799.1	
709.35	6170.5	
709.53	6221	
709.72	4621.6	
709.9	4648.9	
710.08	6488	
710.26	6374.6	
710.45	5281	
710.63	4676.9	
710.81	6008.1	
710.99	6133.7	
711.18	5062.6	
711.36	4664.6	
711.54	6064	
711.72	6376.7	
711.91	4728.1	
712.09	4490.5	
712.27	6031.3	
712.45	6173.3	
712.64	4664.6	
712.82	4259.1	
713	5768.4	
713.18	5737.7	
713.37	4236.6	
713.55	4776.5	
713.73	6034	
713.91	5408	
714.1	4282.3	
714.28	4060.4	
714.46	5655.1	
714.64	5349.3	
714.83	3713	
715.01	3931.4	
715.19	5384.8	
715.37	4832.5	
715.55	3657	
715.74	3786	
715.92	5445.5	
716.1	4464.6	
716.28	4274.1	
716.47	3758	
716.65	5020.9	
716.83	4878.3	
717.01	3687	
717.19	3603.7	
717.38	5752.7	
717.56	4724.7	
717.74	3756	
717.92	3422.2	
718.1	5326.1	
718.29	4919.9	
718.47	3292.5	
718.65	3526.6	
718.83	5350.7	
719.01	5267.4	
719.2	3322.5	
719.38	3841.3	
719.56	5238.7	
719.74	5849	
719.92	3735.5	
720.11	4097.3	
720.29	5394.3	
720.47	4879.6	
720.65	3489.7	
720.83	3759.4	
721.02	5070.8	
721.2	4923.3	
721.38	3727.3	
721.56	3407.1	
721.74	4574.5	
721.92	4602.5	
722.11	3829.7	
722.29	3652.9	
722.47	5094.7	
722.65	4745.1	
722.83	3373	
723.01	3642.7	
723.2	4549.9	
723.38	4892.6	
723.56	3110.9	
723.74	3546.4	
723.92	4330.8	
724.1	4941.7	
724.29	3233.7	
724.47	3722.5	
724.65	4708.3	
724.83	4605.2	
725.01	3571	
725.19	3560.1	
725.37	4502.8	
725.56	4502.8	
725.74	3199.6	
725.92	3196.9	
726.1	4488.5	
726.28	4729.4	
726.46	3402.4	
726.64	3265.8	
726.83	4809.3	
727.01	4716.5	
727.19	3158	
727.37	3464.5	
727.55	4810.7	
727.73	4983.4	
727.91	3108.1	
728.09	3090.4	
728.28	4711	
728.46	4992.3	
728.64	3486.3	
728.82	3406.5	
729	5287.9	
729.18	5145.9	
729.36	3147.7	
729.54	3984	
729.72	5499.5	
729.91	4729.4	
730.09	4034.5	
730.27	3457.7	
730.45	4823	
730.63	4927.4	
730.81	3657	
730.99	3345	
731.17	5324	
731.35	4599.7	
731.53	3445.4	
731.71	3351.2	
731.9	5124.7	
732.08	5040.1	
732.26	3526.6	
732.44	3288.4	
732.62	5201.2	
732.8	4980	
732.98	3600.3	
733.16	3273.3	
733.34	5059.8	
733.52	4284.4	
733.7	3420.1	
733.88	3456.3	
734.07	4872.8	
734.25	4787.5	
734.43	3244	
734.61	3672	
734.79	5371.1	
734.97	4675.5	
735.15	3267.9	
735.33	3377.8	
735.51	4810.7	
735.69	4652.3	
735.87	3723.9	
736.05	3396.9	
736.23	4820.9	
736.41	4559.5	
736.59	3429.7	
736.77	3414	
736.95	4953.4	
737.13	4595	
737.32	3179.8	
737.5	3286.3	
737.68	5228.5	
737.86	4616.1	
738.04	3139.5	
738.22	3881.6	
738.4	4684.4	
738.58	4684.4	
738.76	3325.9	
738.94	2984.6	
739.12	4582.7	
739.3	4614.8	
739.48	3596.9	
739.66	3421.5	
739.84	4699.4	
740.02	4547.2	
740.2	3059.7	
740.38	3104	
740.56	4829.8	
740.74	4079.6	
740.92	3437.2	
741.1	3261	
741.28	4625	
741.46	4427	
741.64	3182.5	
741.82	3412.6	
742	4692.6	
742.18	4523.3	
742.36	3247.4	
742.54	3060.3	
742.72	4817.5	
742.9	4205.8	
743.08	3285.6	
743.26	2844.6	
743.44	4794.3	
743.62	4767.7	
743.8	3479.5	
743.98	3024.2	
744.16	4660.5	
744.34	4507.6	
744.52	3377.1	
744.7	3334.1	
744.88	4707.6	
745.06	4569.7	
745.24	3380.5	
745.42	3449.5	
745.6	4851	
745.78	4804.5	
745.96	2894.5	
746.14	3001	
746.32	5068	
746.5	4497.3	
746.68	3232.4	
746.86	2970.9	
747.03	4789.5	
747.21	4146.5	
747.39	3304.7	
747.57	2927.2	
747.75	4491.2	
747.93	4628.4	
748.11	2878.8	
748.29	2926.5	
748.47	5283.1	
748.65	4544.4	
748.83	3262.4	
749.01	3156.6	
749.19	4585.4	
749.37	4143	
749.55	3131.3	
749.73	3192.8	
749.91	4586.8	
750.09	4446.1	
750.26	3190.1	
750.44	2917.7	
750.62	4533.5	
750.8	4343.7	
750.98	2914.3	
751.16	2976.4	
751.34	4614.8	
751.52	4296	
751.7	3349.1	
751.88	2826.9	
752.06	4764.3	
752.24	4630.5	
752.42	2816	
752.59	2966.1	
752.77	4523.3	
752.95	4999.1	
753.13	3272.7	
753.31	2995.5	
753.49	4332.1	
753.67	4470.7	
753.85	3135.4	
754.03	2945	
754.21	4674.1	
754.38	4816.1	
754.56	2923.8	
754.74	2542.2	
754.92	4303.5	
755.1	4442.7	
755.28	2473.3	
755.46	2478.7	
755.64	4869.4	
755.82	4858.5	
755.99	2624.8	
756.17	2614.6	
756.35	3723.2	
756.53	4334.9	
756.71	2152.4	
756.89	2720.4	
757.07	4140.3	
757.25	3809.2	
757.42	2777	
757.6	3136.8	
757.78	4160.8	
757.96	3824.2	
758.14	2616.6	
758.32	2434.4	
758.5	3550.5	
758.67	4022.9	
758.85	2539.5	
759.03	2564.1	
759.21	4042.7	
759.39	3654.3	
759.57	2357.9	
759.75	2832.3	
759.92	4427	
760.1	4160.1	
760.28	3016.7	
760.46	3085.6	
760.64	4078.2	
760.82	4050.9	
760.99	2985.3	
761.17	2632.3	
761.35	4459.8	
761.53	3856.3	
761.71	2777.7	
761.89	2953.9	
762.06	4227	
762.24	4154.6	
762.42	2813.9	
762.6	2588.6	
762.78	4134.2	
762.96	4024.9	
763.13	2966.1	
763.31	2773.6	
763.49	4440.7	
763.67	4087.1	
763.85	3175	
764.02	3332	
764.2	4618.2	
764.38	3994.9	
764.56	2740.9	
764.74	3151.8	
764.91	4518.5	
765.09	4094.6	
765.27	2710.8	
765.45	2536.1	
765.63	4767	
765.8	4438.6	
765.98	2533.3	
766.16	2555.2	
766.34	3691.8	
766.52	3784	
766.69	2977.1	
766.87	2568.8	
767.05	4134.2	
767.23	4425.7	
767.41	2674	
767.58	2758.6	
767.76	4442	
767.94	4399	
768.12	2708.1	
768.29	2970.9	
768.47	3830.4	
768.65	4471.4	
768.83	2525.1	
769	2950.4	
769.18	4001	
769.36	4205.8	
769.54	2975.7	
769.72	2522.4	
769.89	4544.4	
770.07	4321.9	
770.25	2729.3	
770.43	3207.8	
770.6	4560.8	
770.78	4726.7	
770.96	2785.9	
771.14	3011.9	
771.31	4407.9	
771.49	4092.5	
771.67	2417.3	
771.85	2490.3	
772.02	3739.6	
772.2	4005.8	
772.38	2867.8	
772.55	2553.8	
772.73	4209.3	
772.91	4089.8	
773.09	2660.3	
773.26	2783.2	
773.44	4152.6	
773.62	4126.7	
773.8	2620	
773.97	2472.6	
774.15	4182	
774.33	4093.9	
774.5	2471.2	
774.68	2661.7	
774.86	4222.2	
775.04	4075.5	
775.21	2568.2	
775.39	2469.2	
775.57	4036.5	
775.74	4156.7	
775.92	2411.1	
776.1	2321	
776.27	4138.3	
776.45	4614.1	
776.63	2497.8	
776.81	2364.7	
776.98	4054.3	
777.16	4317.1	
777.34	2588.6	
777.51	2700.6	
777.69	4100.7	
777.87	3902.1	
778.04	2669.9	
778.22	2746.3	
778.4	3898	
778.57	4181.3	
778.75	2299.9	
778.93	2406.4	
779.1	3909.6	
779.28	3639.2	
779.46	2282.1	
779.64	2430.9	
779.81	4214	
779.99	4581.3	
780.17	2750.4	
780.34	2800.9	
780.52	4072	
780.69	3999.7	
780.87	2590	
781.05	2437.8	
781.22	4104.1	
781.4	4027	
781.58	2522.4	
781.75	2106	
781.93	4136.2	
782.11	3676.8	
782.28	2855.6	
782.46	2497.2	
782.64	3693.2	
782.81	4113	
782.99	2575	
783.17	2437.8	
783.34	3917.1	
783.52	3797.6	
783.69	2524.5	
783.87	2885.6	
784.05	3901.4	
784.22	3809.9	
784.4	2869.2	
784.58	2570.9	
784.75	4242	
784.93	3893.9	
785.1	2386.6	
785.28	2866.5	
785.46	4197	
785.63	3708.2	
785.81	2538.1	
785.99	2408.4	
786.16	3924.6	
786.34	3953.3	
786.51	2383.8	
786.69	2605	
786.87	3630.4	
787.04	3841.3	
787.22	2395.4	
787.39	2762.7	
787.57	3786.7	
787.75	4192.2	
787.92	2899.9	
788.1	2727.9	
788.27	3696.6	
788.45	3291.8	
788.63	2704	
788.8	2116.2	
788.98	4057	
789.15	3431	
789.33	2208.4	
789.5	2391.3	
789.68	4152.6	
789.86	4182	
790.03	2593.4	
790.21	2323.8	
790.38	4273.4	
790.56	3828.3	
790.73	2349.7	
790.91	2278.7	
791.09	3779.2	
791.26	4046.1	
791.44	2448	
791.61	2222	
791.79	3798.3	
791.96	3690.4	
792.14	2389.3	
792.32	2128.5	
792.49	3677.5	
792.67	3837.2	
792.84	2349	
793.02	2208.4	
793.19	4074.1	
793.37	4215.4	
793.54	2130.6	
793.72	2263.7	
793.89	4341.7	
794.07	3598.3	
794.25	2486.9	
794.42	2141.5	
794.6	4198.3	
794.77	3971.7	
794.95	2566.1	
795.12	2295.1	
795.3	3665.9	
795.47	3945.8	
795.65	2582.5	
795.82	2459.6	
796	3607.2	
796.17	4417.5	
796.35	2420	
796.52	2765.4	
796.7	4017.4	
796.87	4048.8	
797.05	2428.2	
797.22	2772.3	
797.4	4049.5	
797.57	4345.1	
797.75	2522.4	
797.92	2430.3	
798.1	4201.1	
798.27	3381.9	
798.45	2171.5	
798.62	2245.9	
798.8	3902.7	
798.97	4101.4	
799.15	2486.2	
799.32	2512.9	
799.5	3515.7	
799.67	3825.6	
799.85	2598.2	
800.02	2074.6	
800.2	3749.1	
800.37	3774.4	
800.55	2652.1	
800.72	2319	
800.9	4112.3	
801.07	4127.3	
801.25	2929.3	
801.42	2558.6	
801.6	4172.4	
801.77	3760.8	
801.95	2458.9	
802.12	2284.9	
802.29	3970.3	
802.47	3820.1	
802.64	2552.5	
802.82	2063.7	
802.99	3758	
803.17	4058.4	
803.34	2466.4	
803.52	2242.5	
803.69	4257.7	
803.87	3583.9	
804.04	2419.3	
804.21	2509.4	
804.39	4272.1	
804.56	3717.7	
804.74	2235.7	
804.91	2499.2	
805.09	3682.2	
805.26	3688.4	
805.44	2299.9	
805.61	2383.8	
805.78	4060.4	
805.96	3880.2	
806.13	2480.8	
806.31	2569.5	
806.48	3428.3	
806.66	3690.4	
806.83	2489.6	
807	2427.5	
807.18	3693.9	
807.35	3879.5	
807.53	2445.3	
807.7	2156.5	
807.87	4214	
808.05	3672.7	
808.22	2585.9	
808.4	2085.5	
808.57	3543	
808.74	3570.3	
808.92	2344.2	
809.09	2800.3	
809.27	3840.6	
809.44	3850.2	
809.61	2085.5	
809.79	2279.4	
809.96	4397	
810.14	3947.1	
810.31	2142.9	
810.48	2582.5	
810.66	3693.9	
810.83	3986	
811.01	2352.4	
811.18	2474.6	
811.35	3981.9	
811.53	3373.7	
811.7	2628.9	
811.87	2501.9	
812.05	3870.7	
812.22	3666.5	
812.39	2263	
812.57	2149.7	
812.74	3827	
812.92	4386.1	
813.09	2430.9	
813.26	2441.2	
813.44	4216.8	
813.61	3589.4	
813.78	2109.4	
813.96	2475.3	
814.13	3749.8	
814.3	3667.9	
814.48	2738.1	
814.65	2353.1	
814.82	3969.6	
815	3500	
815.17	2453.5	
815.34	2762	
815.52	3635.8	
815.69	3627.6	
815.87	2343.6	
816.04	2336	
816.21	3517.7	
816.38	3520.5	
816.56	2390.7	
816.73	2273.9	
816.9	4418.2	
817.08	3852.9	
817.25	2293	
817.42	2577.7	
817.6	3547.8	
817.77	3589.4	
817.94	2453.5	
818.12	2231.6	
818.29	3633.1	
818.46	4539	
818.64	2369.5	
818.81	2155.1	
818.98	3618.1	
819.16	4427.7	
819.33	2525.8	
819.5	2413.2	
819.67	3893.9	
819.85	4132.1	
820.02	2389.3	
820.19	2473.3	
820.37	3807.2	
820.54	3700	
820.71	2408.4	
820.88	2895.1	
821.06	3788.7	
821.23	3622.9	
821.4	2452.1	
821.58	2454.1	
821.75	3956.7	
821.92	3779.9	
822.09	2095.8	
822.27	2257.5	
822.44	3740.3	
822.61	3656.3	
822.79	2137.4	
822.96	3433.8	
823.13	3768.9	
823.3	3439.2	
823.48	2293	
823.65	2172.2	
823.82	4111	
823.99	3494.5	
824.17	2839.2	
824.34	2174.3	
824.51	4464.6	
824.68	3751.2	
824.86	2278	
825.03	2393.4	
825.2	3756	
825.37	4119.8	
825.55	2287.6	
825.72	2398.2	
825.89	4349.9	
826.06	4188.8	
826.24	2351.1	
826.41	2366.1	
826.58	4283	
826.75	3749.1	
826.92	2128.5	
827.1	2190.6	
827.27	5168.4	
827.44	4308.2	
827.61	2269.8	
827.79	2609.1	
827.96	3734.1	
828.13	3633.1	
828.3	2339.5	
828.47	2094.4	
828.65	3999.7	
828.82	3917.1	
828.99	2708.8	
829.16	2466.4	
829.34	3990.8	
829.51	4041.3	
829.68	2413.2	
829.85	2347	
830.02	4437.3	
830.2	4158.7	
830.37	2041.1	
830.54	2695.1	
830.71	4438.6	
830.88	3833.8	
831.05	1994	
831.23	2172.2	
831.4	4456.4	
831.57	4454.3	
831.74	2288.9	
831.91	2055.5	
832.09	4121.2	
832.26	4160.8	
832.43	2252.8	
832.6	2446.6	
832.77	3932.1	
832.94	4311.7	
833.12	1972.9	
833.29	2252.1	
833.46	3589.4	
833.63	4616.8	
833.8	2434.4	
833.97	2263.7	
834.15	4219.5	
834.32	4039.3	
834.49	2353.1	
834.66	2396.1	
834.83	3928	
835	3692.5	
835.17	2237.1	
835.35	2228.2	
835.52	4080.2	
835.69	3982.6	
835.86	2271.2	
836.03	1979.7	
836.2	4160.1	
836.37	3965.6	
836.55	2263	
836.72	2157.2	
836.89	3933.5	
837.06	4179.9	
837.23	2316.3	
837.4	2420.7	
837.57	4415.4	
837.75	4562.2	
837.92	2140.8	
838.09	2205	
838.26	3940.3	
838.43	4087.7	
838.6	2359.3	
838.77	2181.8	
838.94	4514.4	
839.11	4484.4	
839.29	2285.5	
839.46	1931.2	
839.63	4223.6	
839.8	3840.6	
839.97	2227.5	
840.14	2188.6	
840.31	4073.4	
840.48	4241.3	
840.65	1989.9	
840.82	2217.3	
841	4103.4	
841.17	3885.7	
841.34	2048.7	
841.51	2137.4	
841.68	4154	
841.85	3945.8	
842.02	2143.5	
842.19	1946.9	
842.36	4046.1	
842.53	4145.1	
842.7	2070.5	
842.87	2256.9	
843.05	4587.4	
843.22	3929.4	
843.39	2038.4	
843.56	2185.9	
843.73	3917.1	
843.9	4188.1	
844.07	3001.6	
844.24	2571.6	
844.41	4997.7	
844.58	3768.3	
844.75	2081.4	
844.92	2144.2	
845.09	3872	
845.26	3999	
845.43	2125.1	
845.6	2233.7	
845.77	4143	
845.94	3996.3	
846.12	2250	
846.29	2297.1	
846.46	4274.8	
846.63	4067.9	
846.8	2138.1	
846.97	2384.5	
847.14	4143	
847.31	4033.8	
847.48	2284.2	
847.65	2495.1	
847.82	3624.2	
847.99	4128	
848.16	2527.2	
848.33	2442.5	
848.5	3861.8	
848.67	4249.5	
848.84	2059.6	
849.01	2135.3	
849.18	3869.3	
849.35	3530	
849.52	2390	
849.69	2058.2	
849.86	4290.5	
850.03	4109.6	
850.2	2082.1	
850.37	2327.9	
850.54	4151.2	
850.71	3577.1	
850.88	2413.2	
851.05	2071.2	
851.22	3999.7	
851.39	4192.2	
851.56	1975.6	
851.73	2278	
851.9	3748.5	
852.07	4154.6	
852.24	2233.7	
852.41	2032.3	
852.58	4110.3	
852.75	3753.2	
852.92	2271.2	
853.09	2054.8	
853.26	3433.8	
853.43	4133.5	
853.6	2170.8	
853.77	1863	
853.94	4394.3	
854.11	3715.7	
854.28	2719.7	
854.44	2250.7	
854.61	4476.9	
854.78	4102.1	
854.95	2073.9	
855.12	2394.8	
855.29	3536.2	
855.46	4355.3	
855.63	2103.3	
855.8	2596.1	
855.97	3833.1	
856.14	4259.8	
856.31	2682.2	
856.48	2187.9	
856.65	3996.3	
856.82	3716.4	
856.99	2033	
857.16	2195.4	
857.33	4532.8	
857.49	3893.2	
857.66	2188.6	
857.83	2245.9	
858	3973.1	
858.17	4072	
858.34	1975.6	
858.51	2099.2	
858.68	4243.4	
858.85	4274.8	
859.02	2313.5	
859.19	2366.8	
859.36	3787.4	
859.52	3390.1	
859.69	2116.2	
859.86	2340.1	
860.03	3529.3	
860.2	4292.5	
860.37	2064.4	
860.54	2142.2	
860.71	4075.5	
860.88	4317.8	
861.05	2254.1	
861.21	2540.8	
861.38	4277.5	
861.55	3571.7	
861.72	1972.9	
861.89	2254.8	
862.06	4196.3	
862.23	4332.8	
862.4	2036.4	
862.56	2071.9	
862.73	4086.4	
862.9	3986	
863.07	2342.9	
863.24	1969.5	
863.41	3683.6	
863.58	3753.2	
863.75	2119	
863.91	2394.1	
864.08	4144.4	
864.25	3984	
864.42	2394.8	
864.59	2748.4	
864.76	4300.7	
864.93	3736.2	
865.09	2028.2	
865.26	2200.9	
865.43	4227.7	
865.6	4453	
865.77	1908	
865.94	2077.3	
866.1	4162.2	
866.27	3988.1	
866.44	2810.5	
866.61	2023.4	
866.78	3905.5	
866.95	4128	
867.11	2068.4	
867.28	1895.7	
867.45	4275.5	
867.62	3677.5	
867.79	2271.9	
867.96	2053.4	
868.12	3680.9	
868.29	4090.5	
868.46	2084.1	
868.63	2552.5	
868.8	4117.1	
868.97	4064.5	
869.13	2141.5	
869.3	2165.4	
869.47	4012.7	
869.64	4195.6	
869.81	2057.5	
869.97	2027.5	
870.14	3814	
870.31	4280.3	
870.48	2033.6	
870.65	2465.1	
870.81	3965.6	
870.98	3909.6	
871.15	2304	
871.32	2174.9	
871.48	4034.5	
871.65	4367.6	
871.82	2075.3	
871.99	2190	
872.16	4508.9	
872.32	4203.8	
872.49	2157.9	
872.66	2110.8	
872.83	4197.7	
872.99	3797.6	
873.16	2301.2	
873.33	2052.7	
873.5	3924.6	
873.67	3963.5	
873.83	2228.9	
874	2519	
874.17	4043.4	
874.34	4227	
874.5	2566.8	
874.67	2392.7	
874.84	4219.5	
875.01	3530	
875.17	2639.1	
875.34	2091	
875.51	4030.4	
875.68	4613.4	
875.84	2383.2	
876.01	2779.8	
876.18	4032.5	
876.34	4040.6	
876.51	2052.7	
876.68	2035.7	
876.85	3790.1	
877.01	4268	
877.18	2643.9	
877.35	2028.2	
877.52	4128.7	
877.68	3776.5	
877.85	2097.8	
878.02	2088.9	
878.18	3386	
878.35	3877.5	
878.52	1759.2	
878.69	2370.9	
878.85	4311.7	
879.02	4095.3	
879.19	2757.2	
879.35	2192.7	
879.52	4167.6	
879.69	4076.8	
879.86	1915.5	
880.02	2252.8	
880.19	3979.2	
880.36	4468.7	
880.52	2314.2	
880.69	2355.8	
880.86	4117.8	
881.02	4145.8	
881.19	2242.5	
881.36	2211.8	
881.52	4173.1	
881.69	3747.1	
881.86	2191.3	
882.02	2215.9	
882.19	4214.7	
882.36	4652.3	
882.52	2127.8	
882.69	2697.2	
882.86	3881.6	
883.02	4086.4	
883.19	2376.3	
883.36	2281.4	
883.52	4194.9	
883.69	4478.2	
883.86	2132.6	
884.02	1986.5	
884.19	4065.2	
884.36	3993.5	
884.52	2269.1	
884.69	2250.7	
884.86	3861.1	
885.02	4306.2	
885.19	2211.8	
885.36	2233	
885.52	3689.8	
885.69	4076.8	
885.86	2744.3	
886.02	2530.6	
886.19	4082.3	
886.35	3767.6	
886.52	2280.8	
886.69	2639.8	
886.85	3665.9	
887.02	4248.2	
887.19	4248.2	
887.35	4248.2	
887.52	4248.2	
887.68	4248.2	
887.85	4248.2	
888.02	4248.2	
888.18	4248.2	
888.35	4248.2	
888.51	4248.2	
888.68	4248.2	
888.85	4248.2	
889.01	4248.2	
889.18	4248.2	
889.35	4248.2	
889.51	4248.2	
889.68	4248.2	
889.84	4248.2	
890.01	4248.2	
890.17	4248.2	
890.34	4248.2	
890.51	4248.2	
890.67	4248.2	
890.84	4248.2	
891	4248.2	
891.17	4248.2	
891.34	4248.2	
891.5	4248.2	
891.67	4248.2	
891.83	4248.2	
892	4248.2	
892.16	4248.2	
892.33	4248.2	
892.5	4248.2	
892.66	4248.2	
892.83	4248.2	
892.99	4248.2	
893.16	4248.2	
893.32	4248.2	
893.49	4248.2	
893.65	4248.2	
893.82	4248.2	
893.99	4248.2	
894.15	4248.2	
894.32	4248.2	
894.48	4248.2	
894.65	4248.2	
894.81	4248.2	
894.98	4248.2	
895.14	4248.2	
895.31	4248.2	
895.47	4248.2	
895.64	4248.2	
895.81	4248.2	
895.97	4248.2	
896.14	4248.2	
896.3	4248.2	
896.47	4248.2	
896.63	4248.2	
896.8	4248.2	
896.96	4248.2	
897.13	4248.2	
897.29	4248.2	
897.46	4248.2	
897.62	4248.2	
897.79	4248.2	
897.95	4248.2	
898.12	4248.2	
898.28	4248.2	
898.45	4248.2	
898.61	4248.2	
898.78	4248.2	
898.94	4248.2	
899.11	4248.2	
899.27	4248.2	
899.44	4248.2	
899.6	4248.2	
899.77	4248.2	
899.93	4248.2	
900.1	4248.2	
900.26	4248.2	
900.43	4248.2	
900.59	4248.2	
900.76	4248.2	
900.92	4248.2	
901.09	4248.2	
901.25	4248.2	
901.42	4248.2	
901.58	4248.2	
901.75	4248.2	
901.91	4248.2	
902.07	4248.2	
902.24	4248.2	
902.4	4248.2	
902.57	4248.2	
902.73	4248.2	
902.9	4248.2	
903.06	4248.2	
903.23	4248.2	
903.39	4248.2	
903.56	4248.2	
903.72	4248.2	
903.88	4248.2	
904.05	4248.2	
904.21	4248.2	
904.38	4248.2	
904.54	4248.2	
904.71	4248.2	
904.87	4248.2	
905.03	4248.2	
905.2	4248.2	
905.36	4248.2	
905.53	4248.2	
905.69	4248.2	
905.86	4248.2	
906.02	4248.2	
906.18	4248.2	
906.35	4248.2	
906.51	4248.2	
906.68	4248.2	
906.84	4248.2	
907.01	4248.2	
907.17	4248.2	
907.33	4248.2	
907.5	4248.2	
907.66	4248.2	
907.83	4248.2	
907.99	4248.2	
908.15	4248.2	
908.32	4248.2	
908.48	4248.2	
908.65	4248.2	
908.81	4248.2	
908.97	4248.2	
909.14	4248.2	
909.3	4248.2	
909.47	4248.2	
909.63	4248.2	
909.79	4248.2	
909.96	4248.2	
910.12	4248.2	
910.28	4248.2	
910.45	4248.2	
910.61	4248.2	
910.78	4248.2	
910.94	4248.2	
911.1	4248.2	
911.27	4248.2	
911.43	4248.2	
911.59	4248.2	
911.76	4248.2	
911.92	4248.2	
912.08	4248.2	
912.25	4248.2	
912.41	4248.2	
912.57	4248.2	
912.74	4248.2	
912.9	4248.2	
913.07	4248.2	
913.23	4248.2	
913.39	4248.2	
913.56	4248.2	
913.72	4248.2	
913.88	4248.2	
914.05	4248.2	
914.21	4248.2	
914.37	4248.2	
914.54	4248.2	
914.7	4248.2	
914.86	4248.2	
915.03	4248.2	
915.19	4248.2	
