Wavelength	Intensities	
nm	a.u.	
179.22	1598.6	
179.44	1602.5	
179.65	1594.7	
179.86	1610.4	
180.08	1622.7	
180.29	3500	
180.51	2797.5	
180.72	4734.2	
180.94	5132.2	
181.15	2544.9	
181.37	2501.9	
181.58	4524	
181.79	4674.1	
182.01	2594.1	
182.22	2719.7	
182.44	4729.4	
182.65	4083	
182.87	3332.7	
183.08	2940.2	
183.29	4967	
183.51	4201.1	
183.72	2697.9	
183.94	3713.6	
184.15	4498	
184.37	4379.9	
184.58	2500.6	
184.79	3072.6	
185.01	4245.4	
185.22	4732.2	
185.44	3243.3	
185.65	2876.7	
185.86	4488.5	
186.08	4104.8	
186.29	2481.5	
186.51	2609.1	
186.72	4270.7	
186.94	4822.3	
187.15	2970.2	
187.36	3006.4	
187.58	5875.6	
187.79	4577.9	
188.01	3047.4	
188.22	4459.8	
188.43	5252.4	
188.65	4681	
188.86	2590	
189.08	2943.6	
189.29	4332.1	
189.5	4269.3	
189.72	2790	
189.93	2814.6	
190.15	4799.1	
190.36	5482.4	
190.57	2996.9	
190.79	2907.4	
191	4863.9	
191.22	4848.2	
191.43	3012.6	
191.64	2642.6	
191.86	4995	
192.07	4806.6	
192.29	2674	
192.5	2772.9	
192.71	4791.6	
192.93	4320.5	
193.14	2765.4	
193.35	2843.9	
193.57	4299.4	
193.78	4891.2	
194	2304.6	
194.21	2727.9	
194.42	4130.1	
194.64	4485.1	
194.85	2939.5	
195.07	3352.5	
195.28	4458.4	
195.49	4073.4	
195.71	3504.8	
195.92	2626.9	
196.13	4603.2	
196.35	4612	
196.56	3645.4	
196.78	2947	
196.99	5504.9	
197.2	5108.3	
197.42	3194.8	
197.63	3029.6	
197.84	4129.4	
198.06	4579.9	
198.27	2751.8	
198.48	3457	
198.7	4313	
198.91	4528.7	
199.13	2976.4	
199.34	3015.3	
199.55	4823.6	
199.77	3919.1	
199.98	2730.6	
200.19	3028.3	
200.41	4402.5	
200.62	4178.5	
200.83	3065.1	
201.05	3288.4	
201.26	4448.9	
201.47	4318.5	
201.69	2721.1	
201.9	2681.5	
202.11	4491.9	
202.33	5071.5	
202.54	2800.3	
202.76	3099.9	
202.97	4472.1	
203.18	4588.8	
203.4	3052.8	
203.61	3147.7	
203.82	4525.3	
204.04	4252.9	
204.25	2949.1	
204.46	2985.9	
204.68	4444.8	
204.89	4614.8	
205.1	2903.3	
205.32	2586.6	
205.53	4670.1	
205.74	4799.1	
205.96	2317.6	
206.17	3059.7	
206.38	4605.9	
206.6	4767.7	
206.81	3322.5	
207.02	2817.3	
207.24	4677.6	
207.45	4889.2	
207.66	2880.8	
207.88	2523.1	
208.09	4590.2	
208.3	4439.3	
208.52	2705.4	
208.73	2925.9	
208.94	4445.5	
209.15	4843.4	
209.37	2845.3	
209.58	2930	
209.79	4796.3	
210.01	4390.8	
210.22	2464.4	
210.43	2537.4	
210.65	4417.5	
210.86	4684.4	
211.07	2886.3	
211.29	2624.1	
211.5	4611.3	
211.71	4404.5	
211.93	2736.1	
212.14	2648.7	
212.35	4478.9	
212.56	4462.5	
212.78	2992.1	
212.99	2510.1	
213.2	5068	
213.42	4349.9	
213.63	2748.4	
213.84	2872.6	
214.06	4095.3	
214.27	4113.7	
214.48	2861.7	
214.69	3009.1	
214.91	4952.7	
215.12	4914.4	
215.33	2989.4	
215.55	3229.6	
215.76	5250.3	
215.97	4662.5	
216.18	2910.8	
216.4	2939.5	
216.61	4282.3	
216.82	4796.3	
217.04	2705.4	
217.25	2708.1	
217.46	4842.1	
217.67	4677.6	
217.89	2495.8	
218.1	2513.5	
218.31	4559.5	
218.53	4623.6	
218.74	2840.5	
218.95	2734	
219.16	4436.6	
219.38	5092.6	
219.59	2690.3	
219.8	3071.3	
220.01	5342.5	
220.23	4496.7	
220.44	3323.9	
220.65	2670.6	
220.87	4518.5	
221.08	4896.7	
221.29	2575.7	
221.5	3181.9	
221.72	5597.8	
221.93	4262.5	
222.14	2994.1	
222.35	3442.6	
222.57	4446.1	
222.78	4762.9	
222.99	2872.6	
223.2	3009.1	
223.42	4646.8	
223.63	4719.2	
223.84	2340.1	
224.05	2349.7	
224.27	5268.7	
224.48	5047.6	
224.69	3457.7	
224.9	2992.1	
225.12	4530.8	
225.33	4432.5	
225.54	2506	
225.75	2753.2	
225.97	4205.8	
226.18	4427.7	
226.39	2841.2	
226.6	2737.5	
226.82	4304.8	
227.03	4164.9	
227.24	2994.1	
227.45	2581.1	
227.67	4799.8	
227.88	5003.9	
228.09	3295.9	
228.3	3234.4	
228.52	4677.6	
228.73	4412	
228.94	2798.2	
229.15	2609.8	
229.36	4458.4	
229.58	4438.6	
229.79	2841.9	
230	3198.2	
230.21	5194.3	
230.43	4437.3	
230.64	2960.7	
230.85	2980.5	
231.06	4772.4	
231.28	4734.9	
231.49	2548.4	
231.7	2948.4	
231.91	4730.1	
232.12	4455.7	
232.34	2691	
232.55	2897.9	
232.76	4887.8	
232.97	4524.6	
233.18	2706	
233.4	2949.1	
233.61	4524	
233.82	4313	
234.03	2833.7	
234.25	2789.3	
234.46	5706.3	
234.67	4521.2	
234.88	3020.8	
235.09	2746.3	
235.31	4577.9	
235.52	4375.1	
235.73	2912.9	
235.94	2616.6	
236.15	4284.4	
236.37	5153.4	
236.58	2689	
236.79	2863.1	
237	4672.8	
237.21	4138.9	
237.43	3085.6	
237.64	2491	
237.85	6943.3	
238.06	4215.4	
238.27	2965.5	
238.48	2613.2	
238.7	4718.5	
238.91	4403.8	
239.12	2813.2	
239.33	3026.9	
239.54	4323.3	
239.76	4351.9	
239.97	2866.5	
240.18	2919.7	
240.39	5148.6	
240.6	4601.1	
240.82	3035.8	
241.03	2607.1	
241.24	4462.5	
241.45	4984.8	
241.66	2669.9	
241.87	3125.2	
242.09	5015.5	
242.3	5128.1	
242.51	3096.5	
242.72	2861.7	
242.93	4777.2	
243.14	4440	
243.36	3244.7	
243.57	3443.3	
243.78	5003.9	
243.99	4587.4	
244.2	2891.7	
244.41	2641.2	
244.63	4159.4	
244.84	4594.3	
245.05	3080.1	
245.26	2831	
245.47	4733.5	
245.68	4711	
245.9	3587.4	
246.11	3016	
246.32	4304.8	
246.53	4629.8	
246.74	4352.6	
246.95	2527.9	
247.16	4240	
247.38	4462.5	
247.59	2550.4	
247.8	2925.2	
248.01	4161.5	
248.22	4487.8	
248.43	2665.1	
248.64	2837.1	
248.86	4149.2	
249.07	4316.4	
249.28	2656.2	
249.49	2948.4	
249.7	4772.4	
249.91	4761.5	
250.12	2506	
250.34	2553.8	
250.55	4575.8	
250.76	4470	
250.97	2966.1	
251.18	2973.7	
251.39	4825.7	
251.6	4562.2	
251.81	2989.4	
252.03	2970.9	
252.24	4375.1	
252.45	4653.7	
252.66	2611.2	
252.87	3036.5	
253.08	4456.4	
253.29	5575.9	
253.5	2624.1	
253.72	3391.4	
253.93	4414.7	
254.14	5083.1	
254.35	2759.3	
254.56	2779.8	
254.77	4593.6	
254.98	4201.7	
255.19	2737.5	
255.41	3322.5	
255.62	4590.2	
255.83	4859.1	
256.04	3138.2	
256.25	2981.8	
256.46	5174.5	
256.67	4272.1	
256.88	2979.8	
257.09	3183.9	
257.31	4176.5	
257.52	4235.2	
257.73	3588	
257.94	2803.7	
258.15	4437.3	
258.36	4473.4	
258.57	3259	
258.78	2325.8	
258.99	4780.6	
259.2	4352.6	
259.41	2727.2	
259.63	2813.9	
259.84	4981.3	
260.05	5178.6	
260.26	3461.7	
260.47	2697.9	
260.68	4823.6	
260.89	4318.5	
261.1	3244	
261.31	2650.8	
261.52	4881.7	
261.73	5037.3	
261.95	3420.8	
262.16	3011.9	
262.37	4903.5	
262.58	5002.5	
262.79	3429.7	
263	2791.4	
263.21	4509.6	
263.42	4298.7	
263.63	3046	
263.84	2807.8	
264.05	4751.3	
264.26	4998.4	
264.47	3343.7	
264.69	3052.8	
264.9	5017.5	
265.11	4553.3	
265.32	2675.3	
265.53	2753.2	
265.74	4533.5	
265.95	4063.2	
266.16	2893.8	
266.37	3180.5	
266.58	4568.3	
266.79	4341	
267	2782.5	
267.21	2593.4	
267.42	4125.3	
267.63	4438.6	
267.84	2852.1	
268.06	2592.7	
268.27	4785.4	
268.48	4872.8	
268.69	2848.7	
268.9	3206.4	
269.11	4870.1	
269.32	4070	
269.53	2884.9	
269.74	2665.1	
269.95	4557.4	
270.16	4083.6	
270.37	2881.5	
270.58	3242.6	
270.79	4356	
271	4784.1	
271.21	3081.5	
271.42	2931.3	
271.63	4673.5	
271.84	4130.1	
272.05	2467.8	
272.26	2651.4	
272.47	4407.9	
272.68	4595.6	
272.89	2796.2	
273.11	3103.4	
273.32	4316.4	
273.53	5078.3	
273.74	3062.4	
273.95	3048.7	
274.16	4702.8	
274.37	4442	
274.58	3137.5	
274.79	2635.1	
275	4583.4	
275.21	4752.7	
275.42	3644	
275.63	3120.4	
275.84	4625	
276.05	5566.4	
276.26	2957.3	
276.47	2804.4	
276.68	4419.5	
276.89	5107.6	
277.1	3153.2	
277.31	2572.9	
277.52	4572.4	
277.73	4860.5	
277.94	2495.8	
278.15	2806.4	
278.36	4616.8	
278.57	4285	
278.78	2750.4	
278.99	3037.8	
279.2	4319.8	
279.41	4178.5	
279.62	3534.8	
279.83	2675.3	
280.04	5229.8	
280.25	4143.7	
280.46	3487.7	
280.67	2867.8	
280.88	4238.6	
281.09	4830.5	
281.3	3000.3	
281.51	3626.3	
281.72	4235.9	
281.93	4737.6	
282.14	2717.7	
282.35	2905.4	
282.56	4800.4	
282.77	4701.5	
282.98	2833	
283.19	3260.4	
283.4	5597.8	
283.61	4446.1	
283.82	2696.5	
284.03	3437.2	
284.24	4629.1	
284.45	4761.5	
284.66	3441.3	
284.87	3267.2	
285.08	4816.1	
285.29	4864.6	
285.5	2579.8	
285.71	2861	
285.92	4818.9	
286.12	5257.8	
286.33	3453.6	
286.54	2906.8	
286.75	4730.1	
286.96	4326.7	
287.17	2682.8	
287.38	3309.5	
287.59	4315.1	
287.8	4304.1	
288.01	2808.4	
288.22	3153.2	
288.43	4627.7	
288.64	4057	
288.85	3258.3	
289.06	3146.4	
289.27	4745.8	
289.48	4946.5	
289.69	3472	
289.9	3209.2	
290.11	4915.1	
290.32	4358.8	
290.53	3308.8	
290.74	3043.3	
290.94	4786.8	
291.15	4830.5	
291.36	2735.4	
291.57	3121.8	
291.78	4377.2	
291.99	4029	
292.2	2679.4	
292.41	3020.8	
292.62	4801.8	
292.83	4667.3	
293.04	3652.9	
293.25	2749.1	
293.46	4370.4	
293.67	4825	
293.88	2693.8	
294.09	2648	
294.29	4239.3	
294.5	4581.3	
294.71	2909.5	
294.92	2753.8	
295.13	4382	
295.34	5147.2	
295.55	2547.7	
295.76	2486.9	
295.97	4734.2	
296.18	5151.3	
296.39	2604.3	
296.6	2762	
296.81	4512.4	
297.01	4749.9	
297.22	2868.5	
297.43	2796.8	
297.64	4339.6	
297.85	4216.8	
298.06	2377.7	
298.27	2496.5	
298.48	4409.3	
298.69	4284.4	
298.9	2955.9	
299.11	2711.5	
299.31	4229.7	
299.52	4207.9	
299.73	3130.7	
299.94	3009.1	
300.15	4477.5	
300.36	4257.7	
300.57	3063.8	
300.78	2975	
300.99	4368.3	
301.2	4538.3	
301.4	2798.9	
301.61	2934.7	
301.82	4688.5	
302.03	4714.4	
302.24	3191.4	
302.45	2664.4	
302.66	4642.1	
302.87	4831.2	
303.08	2750.4	
303.29	3588.7	
303.49	4395.6	
303.7	4374.5	
303.91	2504	
304.12	3405.8	
304.33	4125.3	
304.54	4576.5	
304.75	2785.9	
304.96	2682.2	
305.16	4639.3	
305.37	5053	
305.58	2529.2	
305.79	2525.1	
306	4678.9	
306.21	4048.8	
306.42	2788.7	
306.63	3885	
306.83	4369	
307.04	4676.9	
307.25	3033	
307.46	2944.3	
307.67	3988.8	
307.88	4678.2	
308.09	2768.9	
308.29	2757.2	
308.5	4497.3	
308.71	4767.7	
308.92	2925.9	
309.13	2687.6	
309.34	4455.7	
309.55	4388.1	
309.75	3340.2	
309.96	3002.3	
310.17	4730.1	
310.38	4262.5	
310.59	3104	
310.8	2646	
311.01	4380.6	
311.21	4406.5	
311.42	2680.1	
311.63	2719.7	
311.84	4297.3	
312.05	4500.8	
312.26	3056.3	
312.46	3264.5	
312.67	4308.9	
312.88	4143	
313.09	2656.2	
313.3	2627.5	
313.51	4948.6	
313.71	5147.2	
313.92	2680.1	
314.13	2762	
314.34	4646.8	
314.55	4455.7	
314.76	3284.9	
314.96	2938.8	
315.17	4612.7	
315.38	4612	
315.59	2721.1	
315.8	2579.1	
316.01	4831.2	
316.21	5098.1	
316.42	2635.1	
316.63	2915.6	
316.84	4407.2	
317.05	4816.1	
317.26	3079.5	
317.46	2821.4	
317.67	4418.2	
317.88	4686.4	
318.09	3252.2	
318.3	2521	
318.5	4369	
318.71	4634.6	
318.92	3942.3	
319.13	3078.1	
319.34	4805.9	
319.54	4904.9	
319.75	2557.2	
319.96	2452.1	
320.17	4650.3	
320.38	4770.4	
320.58	2511.5	
320.79	2904	
321	4814.8	
321.21	4889.2	
321.42	2925.2	
321.62	2473.9	
321.83	4291.9	
322.04	4479.6	
322.25	2884.2	
322.46	2682.8	
322.66	4573.8	
322.87	4704.9	
323.08	3149.8	
323.29	2547.7	
323.5	5160.9	
323.7	4146.5	
323.91	3446	
324.12	3155.2	
324.33	4539	
324.53	4714.4	
324.74	3035.1	
324.95	3128.6	
325.16	4151.9	
325.37	4388.1	
325.57	2689	
325.78	2726.5	
325.99	4604.5	
326.2	4155.3	
326.4	3584.6	
326.61	2542.9	
326.82	4434.5	
327.03	4525.3	
327.24	3601	
327.44	3381.9	
327.65	4713.7	
327.86	3943.7	
328.07	3021.4	
328.27	2595.5	
328.48	4941.1	
328.69	4181.3	
328.9	3583.3	
329.1	2773.6	
329.31	4427	
329.52	4943.1	
329.73	2747.7	
329.93	2913.6	
330.14	4561.5	
330.35	4580.6	
330.56	4085.7	
330.76	3189.4	
330.97	4336.2	
331.18	4463.2	
331.39	3009.8	
331.59	2486.9	
331.8	4814.8	
332.01	4922.6	
332.22	2751.8	
332.42	3025.5	
332.63	4552	
332.84	4199.7	
333.05	2962.7	
333.25	2727.9	
333.46	4228.4	
333.67	4432.5	
333.88	2868.5	
334.08	2938.2	
334.29	5611.4	
334.5	4800.4	
334.7	2663	
334.91	3525.9	
335.12	4166.9	
335.33	4670.1	
335.53	2938.2	
335.74	4024.9	
335.95	4450.2	
336.16	4164.9	
336.36	2964.8	
336.57	3254.2	
336.78	4104.8	
336.98	4825.7	
337.19	3502.7	
337.4	2865.1	
337.61	5236.7	
337.81	4136.9	
338.02	2792.7	
338.23	3349.8	
338.43	4898.7	
338.64	4265.9	
338.85	2729.3	
339.05	3422.2	
339.26	5060.5	
339.47	4050.9	
339.68	2717.7	
339.88	3719.8	
340.09	4681.7	
340.3	4757.4	
340.5	3023.5	
340.71	2440.5	
340.92	4163.5	
341.13	4918.5	
341.33	2603	
341.54	3031	
341.75	4604.5	
341.95	4351.9	
342.16	3027.6	
342.37	3170.9	
342.57	4209.9	
342.78	4384.7	
342.99	3236.5	
343.19	2519.7	
343.4	4777.9	
343.61	4594.3	
343.81	2858.3	
344.02	2583.2	
344.23	4762.2	
344.43	4874.2	
344.64	3244	
344.85	3173.7	
345.06	4642.7	
345.26	4828.4	
345.47	3035.1	
345.68	3446	
345.88	4163.5	
346.09	4760.8	
346.3	3119.7	
346.5	2482.1	
346.71	4395.6	
346.92	4273.4	
347.12	2576.3	
347.33	3002.3	
347.54	4759.5	
347.74	5010.7	
347.95	3042.6	
348.16	2421.4	
348.36	4332.8	
348.57	4235.9	
348.78	3096.5	
348.98	3183.9	
349.19	4436.6	
349.39	4107.5	
349.6	2597.5	
349.81	2758.6	
350.01	4734.9	
350.22	4248.9	
350.43	2996.2	
350.63	3435.8	
350.84	4450.9	
351.05	4290.5	
351.25	2695.1	
351.46	2558.6	
351.67	4795.7	
351.87	4271.4	
352.08	2904	
352.29	3207.8	
352.49	4765.6	
352.7	4492.6	
352.9	2648.7	
353.11	3177.1	
353.32	5130.2	
353.52	4366.3	
353.73	2740.9	
353.94	3235.8	
354.14	4654.4	
354.35	4433.2	
354.55	2757.2	
354.76	3016	
354.97	4653	
355.17	4414.1	
355.38	2710.8	
355.59	3334.1	
355.79	4351.9	
356	4409.3	
356.2	2982.5	
356.41	2716.3	
356.62	4214.7	
356.82	4455	
357.03	3203	
357.24	2889	
357.44	4279.6	
357.65	4394.9	
357.85	3643.3	
358.06	3024.8	
358.27	4176.5	
358.47	4288.4	
358.68	2722.4	
358.88	3192.8	
359.09	4643.4	
359.3	4827.1	
359.5	3541.6	
359.71	3289.7	
359.91	5092.6	
360.12	4698	
360.33	3198.9	
360.53	3457.7	
360.74	4450.9	
360.94	4403.8	
361.15	3329.3	
361.36	2887.6	
361.56	4937.7	
361.77	4584.7	
361.97	3601	
362.18	3026.2	
362.38	4928.8	
362.59	4377.2	
362.8	2831	
363	2815.3	
363.21	4332.8	
363.41	4640	
363.62	3218.7	
363.83	3730.7	
364.03	4814.8	
364.24	5164.3	
364.44	3885	
364.65	3811.3	
364.85	4585.4	
365.06	4444.8	
365.27	2963.4	
365.47	3123.8	
365.68	5160.9	
365.88	4595	
366.09	3265.1	
366.29	3077.4	
366.5	4659.1	
366.71	4988.2	
366.91	3809.2	
367.12	3415.3	
367.32	5388.9	
367.53	4873.5	
367.73	3469.9	
367.94	3938.9	
368.14	4964.3	
368.35	5231.2	
368.56	3317	
368.76	3064.4	
368.97	4970.4	
369.17	5934.3	
369.38	3105.4	
369.58	3311.6	
369.79	4349.2	
369.99	5214.8	
370.2	3885	
370.4	3346.4	
370.61	4838	
370.82	5594.4	
371.02	3273.3	
371.23	2910.2	
371.43	4487.1	
371.64	5249.6	
371.84	3332	
372.05	3924.6	
372.25	5921.4	
372.46	4909.7	
372.66	3324.5	
372.87	3331.4	
373.07	5038	
373.28	6032.6	
373.48	3945.1	
373.69	3757.3	
373.9	4839.4	
374.1	4794.3	
374.31	3918.4	
374.51	3616	
374.72	5309	
374.92	4691.9	
375.13	4014	
375.33	3510.2	
375.54	5027.1	
375.74	4841.4	
375.95	3760.8	
376.15	4333.5	
376.36	5163.6	
376.56	5079.6	
376.77	3725.3	
376.97	3971.7	
377.18	5852.4	
377.38	5266	
377.59	4113	
377.79	3552.5	
378	5156.1	
378.2	5287.9	
378.41	3551.9	
378.61	3531.4	
378.82	5461.2	
379.02	5085.8	
379.23	3725.3	
379.43	4276.8	
379.64	5514.5	
379.84	5345.2	
380.05	3602.4	
380.25	3560.7	
380.46	5346.6	
380.66	5130.2	
380.87	4367.6	
381.07	4530.8	
381.28	5674.9	
381.48	5319.9	
381.69	3566.2	
381.89	3702	
382.1	4781.3	
382.3	5294.7	
382.51	4239.3	
382.71	4728.8	
382.91	5222.3	
383.12	5504.9	
383.32	3751.9	
383.53	3855.6	
383.73	5216.9	
383.94	5144.5	
384.14	3835.8	
384.35	3383.2	
384.55	4970.4	
384.76	5222.3	
384.96	3755.3	
385.17	3945.8	
385.37	5208	
385.58	4802.5	
385.78	3893.9	
385.98	3308.8	
386.19	4988.2	
386.39	5203.9	
386.6	3574.4	
386.8	3714.3	
387.01	5282.4	
387.21	5363.6	
387.42	3969	
387.62	4309.6	
387.83	4999.1	
388.03	5115.8	
388.23	3821.5	
388.44	4264.6	
388.64	4781.3	
388.85	4901.5	
389.05	4005.1	
389.26	4322.6	
389.46	6045.6	
389.67	5667.4	
389.87	4094.6	
390.07	4094.6	
390.28	5126.1	
390.48	4962.9	
390.69	3639.2	
390.89	3859.1	
391.1	5094.7	
391.3	5601.9	
391.5	4500.1	
391.71	4860.5	
391.91	5553.4	
392.12	5899.5	
392.32	4558.8	
392.53	4085	
392.73	5248.9	
392.93	5256.5	
393.14	3987.4	
393.34	4323.3	
393.55	5500.8	
393.75	5154.1	
393.95	3869.3	
394.16	3809.2	
394.36	5165.7	
394.57	5428.5	
394.77	3633.8	
394.98	3810.6	
395.18	5092.6	
395.38	5161.6	
395.59	4405.2	
395.79	3829	
396	5255.8	
396.2	5519.3	
396.4	4328	
396.61	4316.4	
396.81	5598.5	
397.02	5238.7	
397.22	4560.8	
397.42	4616.8	
397.63	5795.8	
397.83	5298.8	
398.04	3915.7	
398.24	4239.3	
398.44	5566.4	
398.65	5064.6	
398.85	3918.4	
399.05	3896.6	
399.26	5417.6	
399.46	6283.9	
399.67	4214	
399.87	3973.1	
400.07	5514.5	
400.28	5752.7	
400.48	4044.1	
400.69	4674.1	
400.89	5840.8	
401.09	6274.3	
401.3	4161.5	
401.5	4734.9	
401.7	6300.9	
401.91	6505.7	
402.11	4445.5	
402.32	4470	
402.52	6051.7	
402.72	5939.1	
402.93	4607.9	
403.13	4008.6	
403.33	6469.5	
403.54	5517.2	
403.74	4356	
403.94	4771.1	
404.15	5610.8	
404.35	6356.2	
404.56	4144.4	
404.76	5111.7	
404.96	5848.3	
405.17	5626.5	
405.37	4634.6	
405.57	4444.8	
405.78	5929.6	
405.98	5609.4	
406.18	4312.3	
406.39	4704.2	
406.59	5951.4	
406.79	5606.7	
407	4123.2	
407.2	4177.9	
407.4	6199.9	
407.61	6051.7	
407.81	4171.7	
408.01	5464	
408.22	5289.9	
408.42	6473.6	
408.62	4916.5	
408.83	4752	
409.03	5912.5	
409.23	5920	
409.44	4805.2	
409.64	5009.3	
409.84	6654.5	
410.05	6698.9	
410.25	5096	
410.45	5038.7	
410.66	6541.2	
410.86	7941.3	
411.06	5390.9	
411.27	5276.3	
411.47	7856.7	
411.67	6726.9	
411.88	5430.5	
412.08	5670.8	
412.28	7090.1	
412.49	7360.4	
412.69	5519.3	
412.89	5545.2	
413.09	7333.8	
413.3	7262.8	
413.5	5573.2	
413.7	5438.7	
413.91	6876.4	
414.11	7405.5	
414.31	5538.4	
414.52	5885.2	
414.72	7299.6	
414.92	7275.1	
415.12	5485.1	
415.33	5913.2	
415.53	7472.4	
415.73	7630.7	
415.94	6062.7	
416.14	5761.6	
416.34	7053.9	
416.55	6784.9	
416.75	6472.9	
416.95	6110.5	
417.15	7706.5	
417.36	7867.6	
417.56	6684.6	
417.76	6120	
417.97	7805.5	
418.17	7588.4	
418.37	5961.6	
418.57	5974.6	
418.78	7539.9	
418.98	7333.1	
419.18	6498.9	
419.38	6469.5	
419.59	7370	
419.79	7020.4	
419.99	5894.1	
420.2	6024.4	
420.4	7562.5	
420.6	7582.9	
420.8	5802.6	
421.01	5720	
421.21	7572	
421.41	7557	
421.61	5997.1	
421.82	5883.1	
422.02	7358.4	
422.22	7809.6	
422.42	6296.1	
422.63	6072.2	
422.83	7272.3	
423.03	8088.1	
423.23	6085.2	
423.44	5446.2	
423.64	7326.9	
423.84	6944.7	
424.04	5819	
424.25	5571.8	
424.45	7841	
424.65	7656.7	
424.85	5375.9	
425.06	5711.8	
425.26	7914	
425.46	7136.5	
425.66	5990.3	
425.87	5724.8	
426.07	7617.8	
426.27	7446.4	
426.47	5867.4	
426.67	5457.8	
426.88	7770	
427.08	7492.8	
427.28	6128.9	
427.48	5457.8	
427.69	6800.6	
427.89	7176.8	
428.09	5958.9	
428.29	5393	
428.5	7481.9	
428.7	7269.6	
428.9	5495.4	
429.1	5696.1	
429.3	7300.3	
429.51	7439.6	
429.71	5587.5	
429.91	6137.8	
430.11	7559.1	
430.31	7607.5	
430.52	5808.7	
430.72	6016.2	
430.92	7873.1	
431.12	7486.7	
431.32	5636	
431.53	5937.7	
431.73	6894.8	
431.93	7851.2	
432.13	5535	
432.33	5496.7	
432.54	7332.4	
432.74	7311.9	
432.94	5537.7	
433.14	6164.4	
433.34	7686.7	
433.55	7468.9	
433.75	6108.4	
433.95	7301.7	
434.15	7503.1	
434.35	7364.5	
434.56	5734.3	
434.76	5546.6	
434.96	7555	
435.16	7806.9	
435.36	5776	
435.56	6496.8	
435.77	7369.3	
435.97	7556.3	
436.17	6925.5	
436.37	6462	
436.57	7403.4	
436.78	7544	
436.98	7402.7	
437.18	6862.1	
437.38	7854	
437.58	7453.9	
437.78	6898.2	
437.99	6027.2	
438.19	7856	
438.39	8749.6	
438.59	6043.6	
438.79	5674.2	
438.99	8213.7	
439.2	7470.3	
439.4	5608	
439.6	5728.9	
439.8	7429.3	
440	8273.8	
440.2	6421.7	
440.4	6381.5	
440.61	7987.1	
440.81	8315.4	
441.01	6014.2	
441.21	6648.4	
441.41	8336.6	
441.61	8064.2	
441.81	6815	
442.02	7479.9	
442.22	8674.5	
442.42	8225.3	
442.62	6244.3	
442.82	6212.2	
443.02	8611.7	
443.22	7998.7	
443.43	6473.6	
443.63	6243.6	
443.83	7780.2	
444.03	7836.9	
444.23	7075	
444.43	6804	
444.63	8167.3	
444.83	8740	
445.04	6450.4	
445.24	7109.9	
445.44	8432.2	
445.64	8355.7	
445.84	6744.6	
446.04	6856.6	
446.24	7852.6	
446.44	8428.8	
446.65	6220.4	
446.85	6514.6	
447.05	7729	
447.25	8444.5	
447.45	6504.3	
447.65	6081.8	
447.85	8000.7	
448.05	7636.2	
448.25	6709.1	
448.46	6636.1	
448.66	8075.1	
448.86	7730.4	
449.06	6138.4	
449.26	6759	
449.46	8187.1	
449.66	7669.6	
449.86	6527.6	
450.06	6441.5	
450.26	7761.1	
450.47	8107.2	
450.67	6593.1	
450.87	6905.1	
451.07	8329.8	
451.27	8083.3	
451.47	6255.2	
451.67	6833.4	
451.87	7951.6	
452.07	8538.7	
452.27	6397.9	
452.47	6344.6	
452.67	8055.3	
452.88	8295	
453.08	5991.7	
453.28	7287.4	
453.48	8998.8	
453.68	7959.8	
453.88	6434	
454.08	6442.2	
454.28	8425.3	
454.48	8188.5	
454.68	6817.7	
454.88	7065.5	
455.08	8507.3	
455.28	8362.5	
455.48	6232.7	
455.68	6838.2	
455.89	8785.1	
456.09	8596	
456.29	6712.6	
456.49	6823.8	
456.69	8827.4	
456.89	8298.4	
457.09	7086.7	
457.29	7344	
457.49	8612.4	
457.69	8693.6	
457.89	7141.9	
458.09	6658.6	
458.29	8542.1	
458.49	9132.6	
458.69	7400.7	
458.89	7009.5	
459.09	9280.7	
459.29	9276.6	
459.49	7128.3	
459.69	7549.5	
459.9	8914.1	
460.1	8861.6	
460.3	6952.2	
460.5	6916.7	
460.7	8930.5	
460.9	8700.5	
461.1	6851.1	
461.3	7490.8	
461.5	9510.8	
461.7	9164.7	
461.9	7249.1	
462.1	7311.9	
462.3	9040.4	
462.5	9343.5	
462.7	7225.9	
462.9	7408.9	
463.1	9964.7	
463.3	9943.6	
463.5	7515.4	
463.7	8282.7	
463.9	9261.6	
464.1	9551	
464.3	7835.5	
464.5	7894.9	
464.7	9735.4	
464.9	9697.8	
465.1	8705.9	
465.3	8157.1	
465.5	10044	
465.7	10030	
465.9	8423.3	
466.1	8099	
466.3	10002	
466.5	9694.4	
466.7	8856.8	
466.9	8080.6	
467.1	10010	
467.3	10449	
467.5	8889.5	
467.7	8178.9	
467.9	10632	
468.1	11143	
468.3	8637.6	
468.5	9032.2	
468.7	10010	
468.9	9881.4	
469.1	8507.9	
469.3	8991.9	
469.5	11333	
469.7	9806.4	
469.9	8752.3	
470.1	8423.3	
470.3	10122	
470.5	10079	
470.7	9204.9	
470.9	8375.5	
471.1	9970.2	
471.3	10080	
471.5	8424	
471.69	9307.3	
471.89	9841.9	
472.09	9506	
472.29	8773.5	
472.49	8854.1	
472.69	9708.1	
472.89	10028	
473.09	8204.8	
473.29	8151.6	
473.49	9658.9	
473.69	9576.3	
473.89	8733.2	
474.09	8185.7	
474.29	10469	
474.49	10096	
474.69	8688.2	
474.89	8303.1	
475.09	9623.4	
475.29	9660.3	
475.49	7856.7	
475.69	8157.1	
475.88	10550	
476.08	9985.2	
476.28	7894.2	
476.48	8002.8	
476.68	10081	
476.88	9912.9	
477.08	8055.3	
477.28	8287.4	
477.48	9541.5	
477.68	9802.9	
477.88	7849.2	
478.08	8016.4	
478.28	10178	
478.48	9501.9	
478.67	8122.9	
478.87	7531.1	
479.07	10073	
479.27	9671.2	
479.47	8110	
479.67	8207.6	
479.87	9964.1	
480.07	10147	
480.27	7709.2	
480.47	8638.3	
480.67	9629.5	
480.87	10125	
481.06	7856	
481.26	8444.5	
481.46	9742.9	
481.66	9548.3	
481.86	8103.1	
482.06	8686.1	
482.26	9523.7	
482.46	9877.4	
482.66	8082	
482.86	7789.1	
483.05	9812.5	
483.25	9277.3	
483.45	9624.8	
483.65	8118.1	
483.85	9316.2	
484.05	9577.7	
484.25	8271.1	
484.45	8643.1	
484.65	9967.5	
484.84	10221	
485.04	8026.7	
485.24	8131.1	
485.44	10549	
485.64	9361.3	
485.84	7855.3	
486.04	8574.2	
486.24	9661.6	
486.44	9868.5	
486.63	7709.2	
486.83	8327.7	
487.03	9700.5	
487.23	9889.6	
487.43	7820.5	
487.63	9392.7	
487.83	9884.2	
488.02	10268	
488.22	8570.7	
488.42	8901.8	
488.62	10442	
488.82	9715.6	
489.02	8330.5	
489.22	8415.1	
489.41	10326	
489.61	10280	
489.81	8175.5	
490.01	8245.1	
490.21	10479	
490.41	10867	
490.61	8247.2	
490.8	8356.4	
491	10170	
491.2	9669.1	
491.4	8738	
491.6	8189.1	
491.8	10138	
491.99	9938.8	
492.19	7998	
492.39	8107.2	
492.59	10301	
492.79	10426	
492.99	8639.7	
493.18	8193.2	
493.38	10519	
493.58	10909	
493.78	8684.8	
493.98	8364.6	
494.18	10331	
494.37	10104	
494.57	9094.3	
494.77	8922.3	
494.97	10655	
495.17	10905	
495.37	8845.2	
495.56	9153.1	
495.76	11009	
495.96	10826	
496.16	9750.4	
496.36	9099.1	
496.55	11153	
496.75	10877	
496.95	9362.6	
497.15	9241.1	
497.35	11092	
497.54	11151	
497.74	9130.5	
497.94	10304	
498.14	11595	
498.34	11420	
498.53	9009.7	
498.73	9432.9	
498.93	10703	
499.13	11239	
499.33	9415.9	
499.52	9619.3	
499.72	11292	
499.92	11327	
500.12	9264.3	
500.32	9449.3	
500.51	11333	
500.71	11196	
500.91	9916.3	
501.11	9721	
501.31	11374	
501.5	11549	
501.7	10273	
501.9	9520.3	
502.1	11160	
502.29	11456	
502.49	9870.5	
502.69	9971.6	
502.89	11280	
503.09	11311	
503.28	9086.8	
503.48	9202.9	
503.68	10895	
503.88	10740	
504.07	9704	
504.27	9387.2	
504.47	10949	
504.67	10937	
504.86	9648	
505.06	9365.4	
505.26	10836	
505.46	11630	
505.65	9303.2	
505.85	9320.3	
506.05	10663	
506.25	10818	
506.44	8724.3	
506.64	9221.3	
506.84	10424	
507.04	10828	
507.23	8750.3	
507.43	9149	
507.63	11448	
507.83	10340	
508.02	8987.9	
508.22	8790.6	
508.42	11591	
508.62	10244	
508.81	8992.6	
509.01	9325.1	
509.21	10098	
509.4	10306	
509.6	9017.2	
509.8	8516.8	
510	10173	
510.19	11018	
510.39	8469	
510.59	8584.4	
510.79	10176	
510.98	11145	
511.18	8716.8	
511.38	8794.7	
511.57	10759	
511.77	10565	
511.97	9122.3	
512.17	8584.4	
512.36	10666	
512.56	10602	
512.76	8529.1	
512.95	8429.4	
513.15	10891	
513.35	9783.8	
513.55	9140.1	
513.74	8557.1	
513.94	10639	
514.14	10294	
514.33	9222	
514.53	8985.8	
514.73	10345	
514.92	10368	
515.12	8691.6	
515.32	8566.7	
515.51	10509	
515.71	10733	
515.91	9669.1	
516.11	8736.6	
516.3	11477	
516.5	10301	
516.7	9047.2	
516.89	9342.8	
517.09	10383	
517.29	10379	
517.48	9350.3	
517.68	8894.3	
517.88	10164	
518.07	10657	
518.27	9101.2	
518.47	8624	
518.66	11026	
518.86	10175	
519.06	8534.6	
519.25	8743.5	
519.45	10219	
519.65	11238	
519.84	9171.5	
520.04	9661	
520.24	11476	
520.43	10688	
520.63	9052.7	
520.83	8930.5	
521.02	10299	
521.22	10588	
521.42	9116.9	
521.61	9429.5	
521.81	10362	
522.01	10505	
522.2	9080	
522.4	8828.1	
522.6	10838	
522.79	9993.4	
522.99	8957.1	
523.18	8581	
523.38	10716	
523.58	10737	
523.77	9752.4	
523.97	8700.5	
524.17	11843	
524.36	11453	
524.56	9544.9	
524.76	9403.6	
524.95	10929	
525.15	10658	
525.34	9413.8	
525.54	9491.7	
525.74	11233	
525.93	10738	
526.13	10206	
526.33	9532.6	
526.52	11627	
526.72	11275	
526.91	10323	
527.11	9962.7	
527.31	11609	
527.5	11829	
527.7	9837.8	
527.89	9375.6	
528.09	11123	
528.29	11403	
528.48	10084	
528.68	9876.7	
528.87	11611	
529.07	11673	
529.27	9940.2	
529.46	9747.6	
529.66	11661	
529.85	11777	
530.05	9640.5	
530.25	10062	
530.44	12461	
530.64	11430	
530.83	9977.7	
531.03	9977	
531.23	11957	
531.42	11616	
531.62	10394	
531.81	9891.7	
532.01	11925	
532.21	12082	
532.4	10005	
532.6	10247	
532.79	12495	
532.99	12100	
533.18	10389	
533.38	10944	
533.58	11918	
533.77	12312	
533.97	10451	
534.16	10966	
534.36	12597	
534.55	12066	
534.75	11127	
534.95	10536	
535.14	12680	
535.34	12005	
535.53	10351	
535.73	11670	
535.92	12947	
536.12	11964	
536.31	10522	
536.51	11084	
536.71	12344	
536.9	12073	
537.1	10376	
537.29	10540	
537.49	12454	
537.68	11847	
537.88	10764	
538.07	10215	
538.27	12137	
538.46	12783	
538.66	10312	
538.86	10609	
539.05	12263	
539.25	12494	
539.44	10867	
539.64	10368	
539.83	12144	
540.03	12713	
540.22	10309	
540.42	10431	
540.61	12193	
540.81	12224	
541	10694	
541.2	10959	
541.39	11815	
541.59	12000	
541.78	11009	
541.98	10105	
542.18	11638	
542.37	11634	
542.57	10438	
542.76	10791	
542.96	11552	
543.15	11829	
543.35	10338	
543.54	9867.8	
543.74	11742	
543.93	11776	
544.13	10189	
544.32	10802	
544.52	11949	
544.71	11376	
544.91	9476.6	
545.1	10174	
545.3	11355	
545.49	11665	
545.69	9384.5	
545.88	9823.4	
546.08	12339	
546.27	11916	
546.47	10048	
546.66	9598.8	
546.86	11812	
547.05	12073	
547.24	9745.6	
547.44	9775	
547.63	11194	
547.83	11738	
548.02	9935.4	
548.22	9962.7	
548.41	11032	
548.61	11781	
548.8	9607.7	
549	9603.6	
549.19	11291	
549.39	11567	
549.58	9292.3	
549.78	9695.8	
549.97	11571	
550.17	11130	
550.36	10138	
550.55	10621	
550.75	11035	
550.94	11741	
551.14	9371.5	
551.33	9462.3	
551.53	10679	
551.72	11323	
551.92	9513.5	
552.11	9489.6	
552.31	11446	
552.5	11227	
552.69	10380	
552.89	9160.6	
553.08	11313	
553.28	10987	
553.47	9422	
553.67	10061	
553.86	11623	
554.06	10566	
554.25	8979.7	
554.44	9202.9	
554.64	12072	
554.83	11721	
555.03	9209.7	
555.22	9370.8	
555.42	11327	
555.61	11203	
555.8	9278	
556	9351.7	
556.19	10553	
556.39	11238	
556.58	9316.2	
556.78	9301.9	
556.97	11049	
557.16	10782	
557.36	9968.8	
557.55	9016.5	
557.75	10355	
557.94	11609	
558.13	8987.2	
558.33	8821.3	
558.52	11237	
558.72	10499	
558.91	9035	
559.1	9082.7	
559.3	10306	
559.49	10143	
559.69	8804.2	
559.88	9358.5	
560.07	10816	
560.27	11150	
560.46	9414.5	
560.66	9353.1	
560.85	10688	
561.04	10088	
561.24	8768.7	
561.43	8956.4	
561.63	10309	
561.82	10430	
562.01	9674.6	
562.21	9043.8	
562.4	10555	
562.59	11215	
562.79	8955.8	
562.98	8748.9	
563.18	10660	
563.37	11396	
563.56	9202.9	
563.76	8729.8	
563.95	10398	
564.14	10258	
564.34	9007.6	
564.53	8732.5	
564.73	10649	
564.92	10793	
565.11	9046.6	
565.31	8658.8	
565.5	10986	
565.69	10241	
565.89	8841.1	
566.08	9032.2	
566.27	10754	
566.47	11107	
566.66	9484.8	
566.85	8546.9	
567.05	10701	
567.24	10340	
567.44	8774.2	
567.63	9508	
567.82	10800	
568.02	10514	
568.21	8668.4	
568.4	8885.5	
568.6	10488	
568.79	10471	
568.98	8723	
569.18	8680.7	
569.37	10542	
569.56	11676	
569.76	9010.4	
569.95	9499.8	
570.14	10777	
570.34	10591	
570.53	8563.9	
570.72	8600.8	
570.91	10886	
571.11	10397	
571.3	8860.2	
571.49	9327.8	
571.69	10454	
571.88	10034	
572.07	9055.4	
572.27	9075.2	
572.46	9951.1	
572.65	10609	
572.85	8748.9	
573.04	8812.4	
573.23	10793	
573.43	10281	
573.62	8617.2	
573.81	8885.5	
574	10408	
574.2	10226	
574.39	8850.6	
574.58	8722.3	
574.78	10954	
574.97	10466	
575.16	9116.2	
575.36	9163.3	
575.55	10793	
575.74	10839	
575.93	8498.4	
576.13	9171.5	
576.32	10340	
576.51	10680	
576.71	8869.1	
576.9	9553.1	
577.09	10991	
577.28	10495	
577.48	8999.5	
577.67	8514.1	
577.86	10411	
578.05	10532	
578.25	8896.4	
578.44	8928.5	
578.63	10380	
578.83	11222	
579.02	8510	
579.21	9446.6	
579.4	10619	
579.6	10400	
579.79	8977.6	
579.98	10243	
580.17	10672	
580.37	10854	
580.56	8568	
580.75	9172.9	
580.94	10916	
581.14	11015	
581.33	9364.7	
581.52	8662.9	
581.71	10631	
581.91	11195	
582.1	8615.8	
582.29	8942.1	
582.48	10464	
582.68	10414	
582.87	9202.9	
583.06	9002.2	
583.25	10938	
583.45	10388	
583.64	9458.9	
583.83	9851.4	
584.02	10557	
584.21	10860	
584.41	9441.1	
584.6	9008.3	
584.79	10654	
584.98	10908	
585.18	8699.1	
585.37	8762.6	
585.56	10455	
585.75	10842	
585.94	8806.3	
586.14	9263	
586.33	11054	
586.52	10408	
586.71	9011.7	
586.91	8874.5	
587.1	10028	
587.29	10667	
587.48	8739.4	
587.67	8540.7	
587.87	10583	
588.06	10465	
588.25	9316.9	
588.44	8963.3	
588.63	10096	
588.83	10456	
589.02	8474.5	
589.21	8352.3	
589.4	9920.4	
589.59	9942.2	
589.78	7714.7	
589.98	7731.1	
590.17	9312.1	
590.36	9474.6	
590.55	7197.9	
590.74	7676.5	
590.94	10084	
591.13	9153.1	
591.32	7339.2	
591.51	6998.6	
591.7	9314.2	
591.89	9035.6	
592.09	7094.2	
592.28	7469.6	
592.47	8591.2	
592.66	9882.8	
592.85	7181.5	
593.05	7274.4	
593.24	9007.6	
593.43	9635	
593.62	7516	
593.81	7643	
594	9164.7	
594.19	9253.4	
594.39	7309.9	
594.58	7355.6	
594.77	9303.2	
594.96	9600.2	
595.15	7339.2	
595.34	7709.2	
595.54	9161.2	
595.73	8748.9	
595.92	6915.3	
596.11	7542.7	
596.3	9501.2	
596.49	8694.3	
596.68	7341.3	
596.88	7615.7	
597.07	9321	
597.26	8637	
597.45	7103.7	
597.64	7837.6	
597.83	8842.4	
598.02	9237.7	
598.22	7181.5	
598.41	7574.1	
598.6	9140.8	
598.79	8736	
598.98	7240.3	
599.17	7873.8	
599.36	9106	
599.55	9781.8	
599.74	8379.6	
599.94	8315.4	
600.13	9491	
600.32	8723	
600.51	7074.4	
600.7	7153.6	
600.89	9841.9	
601.08	9975	
601.27	7071.6	
601.47	7621.9	
601.66	9389.3	
601.85	9664.4	
602.04	7509.2	
602.23	7597.3	
602.42	8854.7	
602.61	9207	
602.8	7434.1	
602.99	7292.1	
603.18	9093	
603.37	9052.7	
603.57	7652.6	
603.76	7965.9	
603.95	9738.1	
604.14	9260.2	
604.33	7397.3	
604.52	7593.2	
604.71	9296.4	
604.9	8890.9	
605.09	7942.7	
605.28	7812.3	
605.47	9569.5	
605.66	9289.6	
605.86	7709.9	
606.05	7342.7	
606.24	9561.3	
606.43	8540	
606.62	7540.6	
606.81	8004.1	
607	9491.7	
607.19	8936	
607.38	7153.6	
607.57	7299.6	
607.76	8778.3	
607.95	8406.9	
608.14	7542.7	
608.33	7883.3	
608.52	8862.2	
608.72	9379	
608.91	6918	
609.1	6959	
609.29	8856.8	
609.48	8542.1	
609.67	7596.6	
609.86	7036.8	
610.05	8617.2	
610.24	8727.8	
610.43	6937.8	
610.62	6706.4	
610.81	9406.3	
611	9274.6	
611.19	6973.3	
611.38	7427.3	
611.57	8905.9	
611.76	9647.3	
611.95	6770.6	
612.14	6689.3	
612.33	8791.2	
612.52	8458.1	
612.71	7062.1	
612.9	6677.7	
613.09	8202.8	
613.28	9716.2	
613.47	6954.2	
613.66	7548.8	
613.85	8818.6	
614.04	8389.8	
614.24	6943.3	
614.43	6455.9	
614.62	8910.7	
614.81	8921	
615	7296.2	
615.19	7243.7	
615.38	8472.4	
615.57	8690.2	
615.76	7180.9	
615.95	7831.4	
616.14	8972.8	
616.33	8690.9	
616.52	7360.4	
616.71	7395.9	
616.9	8918.2	
617.09	8669.7	
617.28	6978.1	
617.47	7697.6	
617.66	8301.1	
617.85	8284	
618.04	7556.3	
618.22	7132.4	
618.41	8503.2	
618.6	9110.7	
618.79	7210.9	
618.98	7045	
619.17	9331.2	
619.36	8212.4	
619.55	7120.8	
619.74	7174	
619.93	8787.8	
620.12	8490.9	
620.31	7559.7	
620.5	7565.2	
620.69	9196.7	
620.88	9637.7	
621.07	8030.1	
621.26	7516	
621.45	8994.7	
621.64	9036.3	
621.83	7546.1	
622.02	6966.5	
622.21	9085.5	
622.4	8970.1	
622.59	7742.7	
622.78	7716.1	
622.97	8715.5	
623.16	9317.6	
623.35	7576.1	
623.54	6935.1	
623.72	8796.7	
623.91	8839.7	
624.1	7652.6	
624.29	6820.4	
624.48	9538.8	
624.67	9032.2	
624.86	7555	
625.05	7022.5	
625.24	9654.8	
625.43	8707.3	
625.62	8467.7	
625.81	7189.7	
626	9196.1	
626.19	8783.7	
626.38	7468.9	
626.56	7240.9	
626.75	8624.7	
626.94	9040.4	
627.13	7595.2	
627.32	6670.2	
627.51	9004.2	
627.7	9625.5	
627.89	6821.1	
628.08	7500.3	
628.27	8419.2	
628.46	8559.1	
628.65	6892.1	
628.83	6668.9	
629.02	8828.8	
629.21	8369.4	
629.4	7169.3	
629.59	7219.8	
629.78	8387.8	
629.97	8983.1	
630.16	7295.5	
630.35	7009.5	
630.54	9260.9	
630.72	9090.9	
630.91	7032.7	
631.1	7346.1	
631.29	8763.9	
631.48	8781.7	
631.67	7425.9	
631.86	7013.6	
632.05	8614.4	
632.24	8629.5	
632.42	6888	
632.61	7204.1	
632.8	8581.7	
632.99	8293.6	
633.18	7241.6	
633.37	7496.2	
633.56	8812.4	
633.75	8670.4	
633.93	7230.7	
634.12	7116	
634.31	9369.5	
634.5	8979	
634.69	7111.9	
634.88	7294.9	
635.07	8654.7	
635.25	9054.1	
635.44	7615	
635.63	7731.8	
635.82	8585.1	
636.01	8062.9	
636.2	7546.8	
636.39	7310.6	
636.57	9267.7	
636.76	8878.6	
636.95	6920.1	
637.14	7814.4	
637.33	8765.3	
637.52	9228.1	
637.7	6822.5	
637.89	7486.7	
638.08	8691.6	
638.27	9411.8	
638.46	7481.9	
638.65	7630	
638.83	9514.9	
639.02	8382.3	
639.21	7366.5	
639.4	7557	
639.59	8690.2	
639.78	8434.9	
639.96	6780.8	
640.15	6878.4	
640.34	8630.8	
640.53	8537.3	
640.72	6724.8	
640.91	6797.2	
641.09	8201.4	
641.28	8999.5	
641.47	6803.4	
641.66	7324.2	
641.85	8572.8	
642.03	8661.5	
642.22	7158.3	
642.41	6836.1	
642.6	8200.7	
642.79	7822.6	
642.97	6702.3	
643.16	7098.9	
643.35	8102.4	
643.54	7978.9	
643.73	6537.1	
643.91	7033.4	
644.1	7933.1	
644.29	8262.9	
644.48	6587.6	
644.67	6571.9	
644.85	7831.4	
645.04	8114.7	
645.23	6241.5	
645.42	6421.7	
645.6	7758.4	
645.79	8447.9	
645.98	6283.2	
646.17	5706.3	
646.36	7499	
646.54	7749.5	
646.73	6657.3	
646.92	5949.3	
647.11	7425.9	
647.29	8074.5	
647.48	5978.7	
647.67	5705	
647.86	8221.9	
648.05	8131.8	
648.23	6027.2	
648.42	6767.9	
648.61	7793.9	
648.8	7602.7	
648.98	5859.9	
649.17	5995.8	
649.36	7303.1	
649.55	7137.9	
649.73	5960.3	
649.92	6346.7	
650.11	7350.2	
650.3	7539.9	
650.48	5931.6	
650.67	5807.4	
650.86	7701.7	
651.05	6945.3	
651.23	5904.3	
651.42	5852.4	
651.61	7315.3	
651.79	7256.6	
651.98	6058.6	
652.17	5677.7	
652.36	7645.8	
652.54	7019.8	
652.73	5819	
652.92	5711.8	
653.11	7529	
653.29	7724.3	
653.48	5361.6	
653.67	5921.4	
653.85	7360.4	
654.04	8045.1	
654.23	6073.6	
654.42	5767.8	
654.6	7063.4	
654.79	7452.6	
654.98	5395	
655.16	5763	
655.35	6729.6	
655.54	6533.7	
655.73	5385.5	
655.91	5233.9	
656.1	7210.9	
656.29	6525.5	
656.47	5006.6	
656.66	6004	
656.85	6754.2	
657.03	6769.9	
657.22	5383.4	
657.41	5473.5	
657.59	6892.8	
657.78	6845.7	
657.97	5240.8	
658.16	5657.9	
658.34	7435.5	
658.53	7593.2	
658.72	6188.3	
658.9	6550.1	
659.09	7136.5	
659.28	7174.7	
659.46	5576.6	
659.65	5462.6	
659.84	6898.2	
660.02	7331.7	
660.21	5544.5	
660.4	5368.4	
660.58	7469.6	
660.77	6998.6	
660.96	5849.7	
661.14	5197.7	
661.33	7805.5	
661.52	7724.3	
661.7	5214.1	
661.89	7335.8	
662.08	6874.3	
662.26	6473.6	
662.45	5411.4	
662.64	5468.1	
662.82	7343.3	
663.01	6765.8	
663.2	5446.2	
663.38	5888.6	
663.57	7120.1	
663.75	7066.2	
663.94	5595.1	
664.13	6314.6	
664.31	6804.7	
664.5	7226.6	
664.69	5729.5	
664.87	5989.6	
665.06	6684.6	
665.25	7046.4	
665.43	6119.3	
665.62	6147.3	
665.8	7101.7	
665.99	6870.9	
666.18	5603.2	
666.36	5618.3	
666.55	7261.4	
666.74	7097.6	
666.92	5352	
667.11	6343.2	
667.29	6873	
667.48	7161.7	
667.67	6036	
667.85	5486.5	
668.04	6772.6	
668.22	6774.7	
668.41	5572.5	
668.6	5735.7	
668.78	6660.7	
668.97	6773.3	
669.15	5770.5	
669.34	5134.9	
669.53	6761	
669.71	6898.9	
669.9	5270.8	
670.08	5612.8	
670.27	6507.8	
670.46	6964.5	
670.64	5826.5	
670.83	5890.6	
671.01	6465.4	
671.2	6881.9	
671.38	5309	
671.57	5244.8	
671.76	7294.9	
671.94	7628.7	
672.13	5111.7	
672.31	5836.7	
672.5	7148.1	
672.69	6634.1	
672.87	5281	
673.06	5344.5	
673.24	6960.4	
673.43	6670.2	
673.61	5670.8	
673.8	5339.7	
673.98	6917.4	
674.17	7028.6	
674.36	5765	
674.54	5665.4	
674.73	6763.8	
674.91	7081.9	
675.1	5476.3	
675.28	5219.6	
675.47	6698.2	
675.65	7030.7	
675.84	5466	
676.03	5624.4	
676.21	6642.2	
676.4	6238.8	
676.58	5802.6	
676.77	5683.8	
676.95	7539.3	
677.14	6522.1	
677.32	5139	
677.51	5089.2	
677.69	7100.3	
677.88	6441.5	
678.06	5128.8	
678.25	5165.7	
678.44	6692.8	
678.62	6481.1	
678.81	5029.8	
678.99	5490.6	
679.18	7235.5	
679.36	6911.9	
679.55	5319.3	
679.73	5657.9	
679.92	6932.4	
680.1	6534.4	
680.29	5969.1	
680.47	5339.7	
680.66	6607.4	
680.84	7052.5	
681.03	4993.6	
681.21	5534.3	
681.4	6569.2	
681.58	6447.7	
681.77	5182.7	
681.95	5121.3	
682.14	7083.9	
682.32	7187	
682.51	5623.7	
682.69	4960.9	
682.88	6441.5	
683.06	6815.6	
683.25	5469.4	
683.43	5766.4	
683.62	6713.2	
683.8	6917.4	
683.99	5867.4	
684.17	5373.9	
684.36	7361.8	
684.54	6638.8	
684.73	4930.8	
684.91	4947.2	
685.1	6749.4	
685.28	6200.6	
685.46	5216.2	
685.65	5186.8	
685.83	6666.1	
686.02	6244.9	
686.2	4818.9	
686.39	4881	
686.57	5963	
686.76	6916	
686.94	4803.9	
687.13	4883	
687.31	6516.6	
687.5	6328.9	
687.68	4560.8	
687.86	5254.4	
688.05	7371.3	
688.23	5978.7	
688.42	5319.9	
688.6	4904.2	
688.79	6261.3	
688.97	6279.1	
689.16	5205.3	
689.34	4518.5	
689.52	6694.1	
689.71	6993.8	
689.89	5356.1	
690.08	5088.5	
690.26	6567.8	
690.45	6400.6	
690.63	5574.6	
690.81	5079	
691	6436.8	
691.18	6309.8	
691.37	5209.3	
691.55	6498.9	
691.74	6303	
691.92	7544.7	
692.1	5216.2	
692.29	4801.8	
692.47	6524.8	
692.66	6016.2	
692.84	4966.3	
693.02	5238	
693.21	6087.2	
693.39	6471.6	
693.58	5384.1	
693.76	5071.5	
693.94	7232.7	
694.13	7052.5	
694.31	5126.7	
694.5	5771.9	
694.68	6460	
694.86	6726.2	
695.05	5440.8	
695.23	5715.9	
695.42	6985.6	
695.6	8350.9	
695.78	5898.8	
695.97	5261.9	
696.15	7123.5	
696.34	6593.1	
696.52	5195.7	
696.7	5681.1	
696.89	6884.6	
697.07	6466.8	
697.25	5608	
697.44	6479.8	
697.62	6891.4	
697.81	6985.6	
697.99	5432.6	
698.17	5688.6	
698.36	6609.5	
698.54	6881.9	
698.72	5670.1	
698.91	4983.4	
699.09	6659.3	
699.28	6451.8	
699.46	5337.7	
699.64	5328.8	
699.83	6475	
700.01	7130.3	
700.19	5803.3	
700.38	4962.9	
700.56	7214.3	
700.74	6670.2	
700.93	5141.1	
701.11	5743.9	
701.29	7026.6	
701.48	7659.4	
701.66	5316.5	
701.84	5455.8	
702.03	6903.7	
702.21	7294.2	
702.39	5281	
702.58	5581.4	
702.76	7135.1	
702.94	7159	
703.13	5197.7	
703.31	6731.7	
703.49	6809.5	
703.68	7371.3	
703.86	5306.3	
704.04	5965.1	
704.23	7120.8	
704.41	7310.6	
704.59	5575.9	
704.78	6243.6	
704.96	8139.3	
705.14	7245	
705.33	5384.8	
705.51	5825.8	
705.69	6868.9	
705.87	7598.6	
706.06	6046.3	
706.24	5335.6	
706.42	7184.3	
706.61	7422.5	
706.79	6050.4	
706.97	5455.1	
707.16	6938.5	
707.34	7230	
707.52	6037.4	
707.7	5609.4	
707.89	6986.3	
708.07	6770.6	
708.25	6053.8	
708.44	6205.3	
708.62	6977.4	
708.8	7559.7	
708.98	6260	
709.17	5737.7	
709.35	7243.7	
709.53	7179.5	
709.72	5498.8	
709.9	5608	
710.08	7472.4	
710.26	7406.1	
710.45	6563.1	
710.63	5678.3	
710.81	7162.4	
710.99	7161.7	
711.18	6068.1	
711.36	5743.9	
711.54	7046.4	
711.72	7486.7	
711.91	5836.7	
712.09	5400.5	
712.27	7206.8	
712.45	7371.3	
712.64	5849	
712.82	5212.1	
713	6720.1	
713.18	6802	
713.37	5279	
713.55	5994.4	
713.73	7339.9	
713.91	6427.9	
714.1	5414.1	
714.28	5014.1	
714.46	6842.9	
714.64	6354.8	
714.83	4516.5	
715.01	4891.9	
715.19	6290.7	
715.37	5739.1	
715.55	4668.7	
715.74	4764.3	
715.92	6595.8	
716.1	5367	
716.28	5506.3	
716.47	4803.2	
716.65	5957.5	
716.83	5861.3	
717.01	4703.5	
717.19	4741	
717.38	7167.2	
717.56	5683.8	
717.74	4851	
717.92	4400.4	
718.1	6465.4	
718.29	5961.6	
718.47	4180.6	
718.65	4655.7	
718.83	6618.4	
719.01	6616.3	
719.2	4343.1	
719.38	5066.7	
719.56	6349.4	
719.74	7468.9	
719.92	4977.9	
720.11	5498.8	
720.29	6578.1	
720.47	5984.2	
720.65	4584.7	
720.83	5015.5	
721.02	6095.4	
721.2	5960.3	
721.38	4939	
721.56	4470	
721.74	5557.5	
721.92	5630.5	
722.11	5217.5	
722.29	5040.7	
722.47	6411.5	
722.65	5893.4	
722.83	4469.4	
723.01	4911	
723.2	5933.6	
723.38	6111.8	
723.56	4109.6	
723.74	4809.3	
723.92	5689.9	
724.1	6314.6	
724.29	4420.9	
724.47	5161.6	
724.65	5788.9	
724.83	5582.8	
725.01	4330.8	
725.19	4821.6	
725.37	5580	
725.56	5533.6	
725.74	4276.8	
725.92	4477.5	
726.1	5670.8	
726.28	5854.5	
726.46	4703.5	
726.64	4489.8	
726.83	5931.6	
727.01	5943.2	
727.19	4248.9	
727.37	4754.7	
727.55	6075.6	
727.73	6223.1	
727.91	4302.1	
728.09	4190.1	
728.28	6306.4	
728.46	6389.7	
728.64	4849.6	
728.82	4793.6	
729	6984.9	
729.18	6553.5	
729.36	4392.2	
729.54	5786.9	
729.72	7198.6	
729.91	6204	
730.09	5757.5	
730.27	4934.2	
730.45	6148	
730.63	6546	
730.81	5347.9	
730.99	4821.6	
731.17	7004.1	
731.35	6000.5	
731.53	5076.2	
731.71	4861.9	
731.9	6787	
732.08	6744	
732.26	5031.9	
732.44	4773.8	
732.62	6890.7	
732.8	6534.4	
732.98	5225.7	
733.16	4651.6	
733.34	6602	
733.52	5640.1	
733.7	4841.4	
733.88	5055.8	
734.07	6387.6	
734.25	6238.1	
734.43	4605.9	
734.61	5490.6	
734.79	7143.3	
734.97	6175.3	
735.15	4657.1	
735.33	4904.2	
735.51	6445	
735.69	6171.2	
735.87	5472.2	
736.05	4974.5	
736.23	6319.3	
736.41	6098.9	
736.59	4930.1	
736.77	4985.4	
736.95	6559	
737.13	6112.5	
737.32	4666.6	
737.5	4800.4	
737.68	6898.9	
737.86	6118.6	
738.04	4508.3	
738.22	5579.3	
738.4	5986.9	
738.58	6195.1	
738.76	4898.1	
738.94	4317.8	
739.12	6118.6	
739.3	5952.8	
739.48	5239.4	
739.66	5064.6	
739.84	6195.1	
740.02	6168.5	
740.2	4373.1	
740.38	4520.5	
740.56	6369.2	
740.74	5638.1	
740.92	4931.5	
741.1	4834.6	
741.28	5989.6	
741.46	5840.8	
741.64	4640.7	
741.82	4947.2	
742	6054.5	
742.18	5980.8	
742.36	4745.8	
742.54	4502.8	
742.72	6476.4	
742.9	5483.1	
743.08	4978.6	
743.26	4132.8	
743.44	6369.9	
743.62	6267.5	
743.8	4989.5	
743.98	4389.5	
744.16	6097.5	
744.34	5879	
744.52	4914.4	
744.7	4888.5	
744.88	6262.7	
745.06	5830.6	
745.24	4859.8	
745.42	4973.8	
745.6	6344.6	
745.78	6115.9	
745.96	4150.6	
746.14	4362.9	
746.32	6724.2	
746.5	6047.7	
746.68	4587.4	
746.86	4273.4	
747.03	6321.4	
747.21	5364.3	
747.39	4538.3	
747.57	4220.9	
747.75	5823.7	
747.93	6071.5	
748.11	4242.7	
748.29	4206.5	
748.47	6918	
748.65	5636	
748.83	4663.9	
749.01	4548.5	
749.19	5971.9	
749.37	5404.6	
749.55	4458.4	
749.73	4513.7	
749.91	5791.7	
750.09	5640.8	
750.26	4459.8	
750.44	4037.9	
750.62	5766.4	
750.8	5681.1	
750.98	4038.6	
751.16	4280.3	
751.34	5838.1	
751.52	5379.3	
751.7	4734.2	
751.88	3924.6	
752.06	6112.5	
752.24	5806.7	
752.42	3888.4	
752.59	4158.1	
752.77	5689.3	
752.95	6444.3	
753.13	4616.8	
753.31	4203.1	
753.49	5435.3	
753.67	5737.7	
753.85	4374.5	
754.03	4087.7	
754.21	5883.8	
754.38	6055.2	
754.56	4180.6	
754.74	3503.4	
754.92	5292.6	
755.1	5687.9	
755.28	3441.3	
755.46	3431	
755.64	6085.2	
755.82	6079.7	
755.99	3452.9	
756.17	3408.5	
756.35	4350.6	
756.53	5313.1	
756.71	2675.3	
756.89	3459.7	
757.07	4969.7	
757.25	4400.4	
757.42	3625.6	
757.6	4152.6	
757.78	5102.9	
757.96	4469.4	
758.14	3520.5	
758.32	3161.4	
758.5	4174.4	
758.67	4735.6	
758.85	3401.7	
759.03	3431	
759.21	4882.4	
759.39	4506.9	
759.57	3109.5	
759.75	3765.5	
759.92	5342.5	
760.1	4892.6	
760.28	4030.4	
760.46	4188.1	
760.64	4770.4	
760.82	4575.2	
760.99	3975.8	
761.17	3489.1	
761.35	5295.4	
761.53	4558.1	
761.71	3700.7	
761.89	3959.4	
762.06	5243.5	
762.24	4942.4	
762.42	3698.6	
762.6	3525.2	
762.78	4955.4	
762.96	5312.4	
763.13	3966.2	
763.31	3704.1	
763.49	5388.9	
763.67	4922	
763.85	4285.7	
764.02	4567.7	
764.2	5668.1	
764.38	5048.2	
764.56	3629.7	
764.74	4205.2	
764.91	5659.9	
765.09	4919.2	
765.27	3522.5	
765.45	3327.3	
765.63	5788.9	
765.8	5567.1	
765.98	3250.1	
766.16	3360	
766.34	4648.9	
766.52	4524	
766.69	3931.4	
766.87	3281.5	
767.05	4998.4	
767.23	5459.2	
767.41	3463.8	
767.58	3590.8	
767.76	5281	
767.94	5338.4	
768.12	3525.2	
768.29	3965.6	
768.47	4852.3	
768.65	5447.6	
768.83	3205.1	
769	3966.2	
769.18	4697.4	
769.36	5075.5	
769.54	3921.9	
769.72	3269.2	
769.89	5352.7	
770.07	5305.6	
770.25	3460.4	
770.43	4246.8	
770.6	5807.4	
770.78	5947.3	
770.96	3602.4	
771.14	3994.2	
771.31	5265.3	
771.49	4814.1	
771.67	2992.8	
771.85	3135.4	
772.02	4278.2	
772.2	4784.7	
772.38	3596.9	
772.55	3265.1	
772.73	4987.5	
772.91	4807.3	
773.09	3506.1	
773.26	3623.5	
773.44	4968.4	
773.62	4776.5	
773.8	3255.6	
773.97	3058.3	
774.15	4957.4	
774.33	4717.2	
774.5	3200.3	
774.68	3339.6	
774.86	4913.1	
775.04	4750.6	
775.21	3165.5	
775.39	3141.6	
775.57	4875.5	
775.74	5015.5	
775.92	3024.8	
776.1	2958.6	
776.27	4823.6	
776.45	5603.2	
776.63	3141.6	
776.81	2897.2	
776.98	4673.5	
777.16	5236.7	
777.34	3220.8	
777.51	3422.2	
777.69	4648.2	
777.87	4474.8	
778.04	3325.2	
778.22	3571.7	
778.4	4468.7	
778.57	4889.9	
778.75	2754.5	
778.93	2997.5	
779.1	4343.1	
779.28	4197.7	
779.46	2771.6	
779.64	3104.7	
779.81	5035.3	
779.99	5442.8	
780.17	3560.7	
780.34	3618.8	
780.52	4654.4	
780.69	4735.6	
780.87	3316.3	
781.05	2966.8	
781.22	4702.8	
781.4	4682.3	
781.58	3116.3	
781.75	2542.2	
781.93	4671.4	
782.11	4205.2	
782.28	3658.4	
782.46	3056.3	
782.64	4169.7	
782.81	4751.3	
782.99	3181.9	
783.17	3050.8	
783.34	4638.6	
783.52	4277.5	
783.69	3185.3	
783.87	3694.5	
784.05	4384.7	
784.22	4268.6	
784.4	3677.5	
784.58	3267.2	
784.75	4898.7	
784.93	4322.6	
785.1	3082.9	
785.28	3445.4	
785.46	4729.4	
785.63	4228.4	
785.81	3059	
785.99	2896.5	
786.16	4434.5	
786.34	4590.9	
786.51	3001.6	
786.69	3276.1	
786.87	4062.5	
787.04	4401.1	
787.22	2903.3	
787.39	3469.3	
787.57	4322.6	
787.75	4934.2	
787.92	3632.4	
788.1	3539.6	
788.27	4245.4	
788.45	4001	
788.63	3388	
788.8	2573.6	
788.98	4624.3	
789.15	3934.1	
789.33	2642.6	
789.5	3020.1	
789.68	4828.4	
789.86	4925.4	
790.03	3300.6	
790.21	2928.6	
790.38	4853.7	
790.56	4315.1	
790.73	2824.8	
790.91	2870.6	
791.09	4258.4	
791.26	4655.7	
791.44	3051.5	
791.61	2652.1	
791.79	4285.7	
791.96	4220.2	
792.14	2755.9	
792.32	2499.2	
792.49	4218.8	
792.67	4313.7	
792.84	2837.8	
793.02	2629.6	
793.19	4549.9	
793.37	4932.9	
793.54	2464.4	
793.72	2717.7	
793.89	5034.6	
794.07	4166.9	
794.25	3083.6	
794.42	2583.2	
794.6	4883	
794.77	4654.4	
794.95	3234.4	
795.12	2884.2	
795.3	4245.4	
795.47	4569.7	
795.65	3175	
795.82	3049.4	
796	4111	
796.17	5313.1	
796.35	2956.6	
796.52	3446.7	
796.7	4539.7	
796.87	4620.9	
797.05	2920.4	
797.22	3525.2	
797.4	4668.7	
797.57	5233.2	
797.75	3061.7	
797.92	2845.3	
798.1	4819.6	
798.27	4105.5	
798.45	2560	
798.62	2727.9	
798.8	4459.1	
798.97	4760.8	
799.15	3170.3	
799.32	3083.6	
799.5	3907.5	
799.67	4395.6	
799.85	3226.9	
800.02	2531.3	
800.2	4171	
800.37	4306.9	
800.55	3326.6	
800.72	2879.4	
800.9	4687.1	
801.07	4942.4	
801.25	3702.7	
801.42	3132.7	
801.6	4726	
801.77	4418.2	
801.95	2953.2	
802.12	2811.2	
802.29	4495.3	
802.47	4399	
802.64	3157.3	
802.82	2547.7	
802.99	4197	
803.17	4800.4	
803.34	3040.6	
803.52	2727.9	
803.69	5201.2	
803.87	4014	
804.04	3020.8	
804.21	3027.6	
804.39	4894	
804.56	4319.2	
804.74	2664.4	
804.91	3097.9	
805.09	4203.1	
805.26	4196.3	
805.44	2689	
805.61	2903.3	
805.78	4623.6	
805.96	4601.8	
806.13	3076.7	
806.31	3252.2	
806.48	3857.7	
806.66	4216.8	
806.83	3077.4	
807	3037.1	
807.18	4215.4	
807.35	4388.8	
807.53	2968.9	
807.7	2587.3	
807.87	4921.3	
808.05	4186.7	
808.22	3288.4	
808.4	2543.6	
808.57	4135.5	
808.74	3929.4	
808.92	2815.3	
809.09	3433.8	
809.27	4190.1	
809.44	4485.1	
809.61	2542.2	
809.79	2753.8	
809.96	5003.2	
810.14	4616.8	
810.31	2474.6	
810.48	3136.8	
810.66	4259.1	
810.83	4687.1	
811.01	2852.1	
811.18	3069.9	
811.35	4681	
811.53	3795.6	
811.7	3241.9	
811.87	3137.5	
812.05	4253.6	
812.22	4098.7	
812.39	2790	
812.57	2640.5	
812.74	4283.7	
812.92	5221	
813.09	2955.9	
813.26	3130.7	
813.44	5061.9	
813.61	4093.2	
813.78	2510.8	
813.96	3177.8	
814.13	4229.1	
814.3	4060.4	
814.48	3436.5	
814.65	2899.9	
814.82	4967	
815	3974.4	
815.17	2997.5	
815.34	3580.5	
815.52	4156	
815.69	4121.9	
815.87	2925.2	
816.04	2940.2	
816.21	4188.8	
816.38	3843.4	
816.56	2921.1	
816.73	2720.4	
816.9	5130.2	
817.08	4573.8	
817.25	2776.4	
817.42	3275.4	
817.6	3894.6	
817.77	4123.9	
817.94	3018	
818.12	2689.7	
818.29	4078.9	
818.46	5651	
818.64	2874	
818.81	2618	
818.98	4046.8	
819.16	5314.5	
819.33	3191.4	
819.5	3001.6	
819.67	4430.4	
819.85	4803.2	
820.02	2928.6	
820.19	3122.5	
820.37	4367	
820.54	4088.4	
820.71	3020.8	
820.88	3633.8	
821.06	4335.5	
821.23	4064.5	
821.4	2990	
821.58	2997.5	
821.75	4638.6	
821.92	4279.6	
822.09	2495.8	
822.27	2555.2	
822.44	4190.1	
822.61	4106.9	
822.79	2534.7	
822.96	4483.7	
823.13	4362.9	
823.3	3964.9	
823.48	2853.5	
823.65	2540.8	
823.82	4677.6	
823.99	3954.6	
824.17	3501.3	
824.34	2643.2	
824.51	5192.3	
824.68	4167.6	
824.86	2772.9	
825.03	2979.1	
825.2	4229.1	
825.37	4846.9	
825.55	2788.7	
825.72	2988	
825.89	5207.3	
826.06	4872.8	
826.24	2906.1	
826.41	2926.5	
826.58	4924	
826.75	4364.9	
826.92	2446.6	
827.1	2649.4	
827.27	6279.1	
827.44	5125.4	
827.61	2736.8	
827.79	3250.1	
827.96	4055	
828.13	4114.4	
828.3	2927.2	
828.47	2527.2	
828.65	4513.7	
828.82	4384.7	
828.99	3577.8	
829.16	3142.9	
829.34	4700.8	
829.51	4549.9	
829.68	3011.9	
829.85	3000.3	
830.02	4958.1	
830.2	4633.2	
830.37	2357.9	
830.54	3430.3	
830.71	5149.3	
830.88	4215.4	
831.05	2364	
831.23	2699.9	
831.4	5038	
831.57	5320.6	
831.74	2801.6	
831.91	2529.2	
832.09	4531.5	
832.26	4733.5	
832.43	2791.4	
832.6	3111.5	
832.77	4440	
832.94	4913.8	
833.12	2377	
833.29	2751.8	
833.46	4227.7	
833.63	5466	
833.8	3011.2	
833.97	2824.8	
834.15	4728.8	
834.32	4534.2	
834.49	2976.4	
834.66	3003	
834.83	4737	
835	4128.7	
835.17	2740.2	
835.35	2710.8	
835.52	4673.5	
835.69	4498.7	
835.86	2870.6	
836.03	2444.6	
836.2	4702.8	
836.37	4437.3	
836.55	2729.3	
836.72	2693.8	
836.89	4402.5	
837.06	4669.4	
837.23	2861.7	
837.4	3089	
837.57	5122.7	
837.75	5554.8	
837.92	2667.1	
838.09	2762	
838.26	4396.3	
838.43	4721.3	
838.6	2935.4	
838.77	2718.3	
838.94	5332.2	
839.11	5160.9	
839.29	2804.4	
839.46	2329.9	
839.63	4670.7	
839.8	4425	
839.97	2728.6	
840.14	2725.2	
840.31	4582	
840.48	4672.1	
840.65	2391.3	
840.82	2760	
841	4637.3	
841.17	4518.5	
841.34	2514.9	
841.51	2643.2	
841.68	4611.3	
841.85	4447.5	
842.02	2663	
842.19	2271.2	
842.36	4536.3	
842.53	4456.4	
842.7	2609.1	
842.87	2990.7	
843.05	5537	
843.22	4381.3	
843.39	2489	
843.56	2663	
843.73	4346.5	
843.9	4752	
844.07	3844	
844.24	3192.1	
844.41	6109.1	
844.58	4128.7	
844.75	2456.9	
844.92	2663.7	
845.09	4643.4	
845.26	4604.5	
845.43	2575	
845.6	2667.1	
845.77	4650.9	
845.94	4472.1	
846.12	2779.8	
846.29	2927.2	
846.46	4825	
846.63	4577.2	
846.8	2546.3	
846.97	3022.8	
847.14	4953.4	
847.31	4587.4	
847.48	2857.6	
847.65	3084.9	
847.82	4754	
847.99	4699.4	
848.16	3257.6	
848.33	3020.1	
848.5	4282.3	
848.67	4899.4	
848.84	2514.9	
849.01	2654.2	
849.18	4313	
849.35	4048.2	
849.52	3142.3	
849.69	2493.1	
849.86	4788.8	
850.03	4773.8	
850.2	2590	
850.37	3050.1	
850.54	4820.2	
850.71	4406.5	
850.88	3024.8	
851.05	2500.6	
851.22	4524	
851.39	4931.5	
851.56	2403	
851.73	2878.8	
851.9	4138.3	
852.07	4789.5	
852.24	2767.5	
852.41	2513.5	
852.58	4621.6	
852.75	4212.7	
852.92	2826.2	
853.09	2519	
853.26	4272.7	
853.43	4887.8	
853.6	2562	
853.77	2267.8	
853.94	4956.8	
854.11	4173.1	
854.28	3568.2	
854.44	2767.5	
854.61	5205.3	
854.78	4793.6	
854.95	2501.9	
855.12	3050.8	
855.29	3929.4	
855.46	5096	
855.63	2569.5	
855.8	3297.9	
855.97	4299.4	
856.14	4852.3	
856.31	3392.8	
856.48	2755.2	
856.65	4381.3	
856.82	4100	
856.99	2458.9	
857.16	2697.9	
857.33	5367	
857.49	4465.3	
857.66	2716.3	
857.83	2930	
858	4420.9	
858.17	4524	
858.34	2461.7	
858.51	2615.3	
858.68	5006.6	
858.85	4982.7	
859.02	2859	
859.19	3041.9	
859.36	4200.4	
859.52	4157.4	
859.69	2567.5	
859.86	2955.9	
860.03	4227	
860.2	4933.6	
860.37	2388.6	
860.54	2596.1	
860.71	4756.1	
860.88	4975.9	
861.05	2788	
861.21	3089	
861.38	5008	
861.55	3978.5	
861.72	2366.1	
861.89	2821.4	
862.06	4772.4	
862.23	5079.6	
862.4	2450.1	
862.56	2604.3	
862.73	4683.7	
862.9	4529.4	
863.07	2923.1	
863.24	2364	
863.41	4078.9	
863.58	4206.5	
863.75	2618	
863.91	2913.6	
864.08	4842.1	
864.25	4672.8	
864.42	3093.8	
864.59	3412.6	
864.76	5153.4	
864.93	4131.4	
865.09	2494.4	
865.26	2736.8	
865.43	4932.2	
865.6	5160.2	
865.77	2329.2	
865.94	2507.4	
866.1	4883.7	
866.27	4652.3	
866.44	3600.3	
866.61	2484.9	
866.78	4377.2	
866.95	4747.2	
867.11	2468.5	
867.28	2357.2	
867.45	4914.4	
867.62	4113	
867.79	2888.3	
867.96	2533.3	
868.12	4130.1	
868.29	4679.6	
868.46	2547	
868.63	3241.3	
868.8	4825.7	
868.97	4707.6	
869.13	2682.2	
869.3	2645.3	
869.47	4616.8	
869.64	4753.3	
869.81	2588.6	
869.97	2542.2	
870.14	4543.8	
870.31	4986.1	
870.48	2489.6	
870.65	3117	
870.81	4412	
870.98	4395.6	
871.15	2807.1	
871.32	2653.5	
871.48	4605.9	
871.65	5015.5	
871.82	2492.4	
871.99	2766.1	
872.16	5237.3	
872.32	4927.4	
872.49	2603.7	
872.66	2572.9	
872.83	4734.2	
872.99	4280.3	
873.16	2873.3	
873.33	2556.5	
873.5	4510.3	
873.67	4542.4	
873.83	2679.4	
874	3274	
874.17	4583.4	
874.34	5193.6	
874.5	3140.9	
874.67	3076	
874.84	4968.4	
875.01	4042.7	
875.17	3388	
875.34	2555.2	
875.51	4524.6	
875.68	5322	
875.84	2964.8	
876.01	3497.2	
876.18	4786.8	
876.34	4648.2	
876.51	2581.1	
876.68	2520.4	
876.85	4329.4	
877.01	4979.3	
877.18	3469.3	
877.35	2528.6	
877.52	4608.6	
877.68	4159.4	
877.85	2531.3	
878.02	2521.7	
878.18	4401.1	
878.35	4334.2	
878.52	2114.2	
878.69	2921.8	
878.85	4795	
879.02	4663.9	
879.19	3401.7	
879.35	2665.8	
879.52	4755.4	
879.69	4789.5	
879.86	2323.1	
880.02	2825.5	
880.19	4498.7	
880.36	5232.6	
880.52	2818.7	
880.69	2990	
880.86	4742.4	
881.02	4817.5	
881.19	2802.3	
881.36	2729.3	
881.52	4648.2	
881.69	4236.6	
881.86	2725.8	
882.02	2685.6	
882.19	4883.7	
882.36	5474.9	
882.52	2629.6	
882.69	3440.6	
882.86	4543.8	
883.02	4506.2	
883.19	3022.8	
883.36	2822.8	
883.52	4758.8	
883.69	5308.3	
883.86	2553.1	
884.02	2354.5	
884.19	4705.5	
884.36	4491.2	
884.52	2831	
884.69	2711.5	
884.86	4313.7	
885.02	5033.9	
885.19	2807.1	
885.36	2848	
885.52	4392.2	
885.69	4642.7	
885.86	3477.5	
886.02	3179.1	
886.19	4773.1	
886.35	4322.6	
886.52	2783.9	
886.69	3395.5	
886.85	4160.1	
887.02	4947.9	
887.19	4947.9	
887.35	4947.9	
887.52	4947.9	
887.68	4947.9	
887.85	4947.9	
888.02	4947.9	
888.18	4947.9	
888.35	4947.9	
888.51	4947.9	
888.68	4947.9	
888.85	4947.9	
889.01	4947.9	
889.18	4947.9	
889.35	4947.9	
889.51	4947.9	
889.68	4947.9	
889.84	4947.9	
890.01	4947.9	
890.17	4947.9	
890.34	4947.9	
890.51	4947.9	
890.67	4947.9	
890.84	4947.9	
891	4947.9	
891.17	4947.9	
891.34	4947.9	
891.5	4947.9	
891.67	4947.9	
891.83	4947.9	
892	4947.9	
892.16	4947.9	
892.33	4947.9	
892.5	4947.9	
892.66	4947.9	
892.83	4947.9	
892.99	4947.9	
893.16	4947.9	
893.32	4947.9	
893.49	4947.9	
893.65	4947.9	
893.82	4947.9	
893.99	4947.9	
894.15	4947.9	
894.32	4947.9	
894.48	4947.9	
894.65	4947.9	
894.81	4947.9	
894.98	4947.9	
895.14	4947.9	
895.31	4947.9	
895.47	4947.9	
895.64	4947.9	
895.81	4947.9	
895.97	4947.9	
896.14	4947.9	
896.3	4947.9	
896.47	4947.9	
896.63	4947.9	
896.8	4947.9	
896.96	4947.9	
897.13	4947.9	
897.29	4947.9	
897.46	4947.9	
897.62	4947.9	
897.79	4947.9	
897.95	4947.9	
898.12	4947.9	
898.28	4947.9	
898.45	4947.9	
898.61	4947.9	
898.78	4947.9	
898.94	4947.9	
899.11	4947.9	
899.27	4947.9	
899.44	4947.9	
899.6	4947.9	
899.77	4947.9	
899.93	4947.9	
900.1	4947.9	
900.26	4947.9	
900.43	4947.9	
900.59	4947.9	
900.76	4947.9	
900.92	4947.9	
901.09	4947.9	
901.25	4947.9	
901.42	4947.9	
901.58	4947.9	
901.75	4947.9	
901.91	4947.9	
902.07	4947.9	
902.24	4947.9	
902.4	4947.9	
902.57	4947.9	
902.73	4947.9	
902.9	4947.9	
903.06	4947.9	
903.23	4947.9	
903.39	4947.9	
903.56	4947.9	
903.72	4947.9	
903.88	4947.9	
904.05	4947.9	
904.21	4947.9	
904.38	4947.9	
904.54	4947.9	
904.71	4947.9	
904.87	4947.9	
905.03	4947.9	
905.2	4947.9	
905.36	4947.9	
905.53	4947.9	
905.69	4947.9	
905.86	4947.9	
906.02	4947.9	
906.18	4947.9	
906.35	4947.9	
906.51	4947.9	
906.68	4947.9	
906.84	4947.9	
907.01	4947.9	
907.17	4947.9	
907.33	4947.9	
907.5	4947.9	
907.66	4947.9	
907.83	4947.9	
907.99	4947.9	
908.15	4947.9	
908.32	4947.9	
908.48	4947.9	
908.65	4947.9	
908.81	4947.9	
908.97	4947.9	
909.14	4947.9	
909.3	4947.9	
909.47	4947.9	
909.63	4947.9	
909.79	4947.9	
909.96	4947.9	
910.12	4947.9	
910.28	4947.9	
910.45	4947.9	
910.61	4947.9	
910.78	4947.9	
910.94	4947.9	
911.1	4947.9	
911.27	4947.9	
911.43	4947.9	
911.59	4947.9	
911.76	4947.9	
911.92	4947.9	
912.08	4947.9	
912.25	4947.9	
912.41	4947.9	
912.57	4947.9	
912.74	4947.9	
912.9	4947.9	
913.07	4947.9	
913.23	4947.9	
913.39	4947.9	
913.56	4947.9	
913.72	4947.9	
913.88	4947.9	
914.05	4947.9	
914.21	4947.9	
914.37	4947.9	
914.54	4947.9	
914.7	4947.9	
914.86	4947.9	
915.03	4947.9	
915.19	4947.9	
