Wavelength	Intensities	
nm	a.u.	
179.22	1921	
179.44	1914.2	
179.65	1927.8	
179.86	1900.5	
180.08	1954.4	
180.29	4937	
180.51	3501.3	
180.72	5667.4	
180.94	6675	
181.15	3269.2	
181.37	3248.8	
181.58	5480.4	
181.79	5773.2	
182.01	3393.5	
182.22	3671.3	
182.44	5764.3	
182.65	4847.5	
182.87	4552.6	
183.08	4033.1	
183.29	6118	
183.51	5014.8	
183.72	3691.1	
183.94	5328.1	
184.15	5471.5	
184.37	5403.9	
184.58	3219.4	
184.79	4405.2	
185.01	4987.5	
185.22	5744.6	
185.44	4675.5	
185.65	4005.8	
185.86	5354.1	
186.08	4884.4	
186.29	3155.9	
186.51	3401	
186.72	5060.5	
186.94	6012.8	
187.15	3897.3	
187.36	4097.3	
187.58	7800	
187.79	5498.8	
188.01	4221.5	
188.22	6578.1	
188.43	6642.2	
188.65	5739.8	
188.86	3354.6	
189.08	4047.5	
189.29	5201.2	
189.5	5264.6	
189.72	3765.5	
189.93	3854.3	
190.15	5962.3	
190.36	7202.7	
190.57	4174.4	
190.79	3981.3	
191	6112.5	
191.22	6028.5	
191.43	4102.1	
191.64	3410.6	
191.86	6188.3	
192.07	6116.6	
192.29	3547.1	
192.5	3691.1	
192.71	6006.7	
192.93	5135.6	
193.14	3719.8	
193.35	3784.6	
193.57	5184.1	
193.78	6002.6	
194	2987.3	
194.21	3718.4	
194.42	4965	
194.64	5509.7	
194.85	4033.8	
195.07	4754	
195.28	5498.8	
195.49	4676.2	
195.71	5063.9	
195.92	3510.9	
196.13	5630.5	
196.35	5799.8	
196.56	5378	
196.78	4087.1	
196.99	7134.4	
197.2	6578.1	
197.42	4627.7	
197.63	4073.4	
197.84	4900.1	
198.06	5608.7	
198.27	3793.5	
198.48	5066	
198.7	5160.9	
198.91	5292.6	
199.13	4092.5	
199.34	4057.7	
199.55	5846.3	
199.77	4730.8	
199.98	3566.2	
200.19	4178.5	
200.41	5251.7	
200.62	5010.7	
200.83	4296.6	
201.05	4597	
201.26	5354.8	
201.47	5107	
201.69	3594.9	
201.9	3435.1	
202.11	5416.9	
202.33	6423.1	
202.54	3846.8	
202.76	4298.7	
202.97	5571.8	
203.18	5516.5	
203.4	4224.3	
203.61	4160.8	
203.82	5490.6	
204.04	5074.2	
204.25	4112.3	
204.46	4063.9	
204.68	5418.9	
204.89	5658.5	
205.1	4012.7	
205.32	3463.1	
205.53	5875.6	
205.74	6041.5	
205.96	2976.4	
206.17	4203.1	
206.38	5817.6	
206.6	5978.7	
206.81	4689.8	
207.02	3797.6	
207.24	5689.9	
207.45	6137.8	
207.66	3921.9	
207.88	3314.3	
208.09	5645.6	
208.3	5475.6	
208.52	3532.7	
208.73	3861.1	
208.94	5498.8	
209.15	6144.6	
209.37	3835.8	
209.58	4080.2	
209.79	6004.6	
210.01	5200.5	
210.22	3150.5	
210.43	3267.9	
210.65	5456.5	
210.86	5868.1	
211.07	3902.1	
211.29	3549.1	
211.5	5799.8	
211.71	5359.5	
211.93	3525.9	
212.14	3569.6	
212.35	5337.7	
212.56	5599.1	
212.78	4039.3	
212.99	3388	
213.2	6369.9	
213.42	5214.1	
213.63	3696.6	
213.84	3938.9	
214.06	4827.1	
214.27	4958.1	
214.48	3926	
214.69	4136.9	
214.91	6124.8	
215.12	6214.9	
215.33	4179.9	
215.55	4683	
215.76	6707.1	
215.97	5847.6	
216.18	4022.2	
216.4	3852.9	
216.61	5165.7	
216.82	5976	
217.04	3610.6	
217.25	3711.6	
217.46	6161.7	
217.67	5814.9	
217.89	3224.9	
218.1	3300	
218.31	5492.7	
218.53	5612.8	
218.74	3773.7	
218.95	3651.5	
219.16	5332.2	
219.38	6346.7	
219.59	3684.3	
219.8	4434.5	
220.01	7074.4	
220.23	5466	
220.44	4788.2	
220.65	3582.6	
220.87	5547.9	
221.08	6078.4	
221.29	3340.2	
221.5	4446.1	
221.72	7410.2	
221.93	5143.1	
222.14	4146.5	
222.35	4897.4	
222.57	5489.9	
222.78	5803.9	
222.99	3953.9	
223.2	4209.3	
223.42	5735.7	
223.63	5932.3	
223.84	3021.4	
224.05	3014.6	
224.27	6993.8	
224.48	6296.8	
224.69	4850.3	
224.9	4081.6	
225.12	5698.8	
225.33	5358.2	
225.54	3267.9	
225.75	3620.1	
225.97	4989.5	
226.18	5279.7	
226.39	3947.8	
226.6	3672.7	
226.82	5216.2	
227.03	5059.8	
227.24	4171	
227.45	3373	
227.67	5796.4	
227.88	6343.9	
228.09	4528.1	
228.3	4547.2	
228.52	5801.9	
228.73	5419.6	
228.94	3828.3	
229.15	3400.3	
229.36	5390.9	
229.58	5269.4	
229.79	3791.5	
230	4461.2	
230.21	6558.3	
230.43	5543.2	
230.64	4029	
230.85	4276.2	
231.06	5860.6	
231.28	5862	
231.49	3398.3	
231.7	3999	
231.91	5692	
232.12	5455.1	
232.34	3469.9	
232.55	3988.1	
232.76	6114.6	
232.97	5593.7	
233.18	3583.9	
233.4	3975.8	
233.61	5662	
233.82	5293.3	
234.03	3759.4	
234.25	3678.2	
234.46	7529.7	
234.67	5555.5	
234.88	4149.2	
235.09	3649.5	
235.31	5728.9	
235.52	5383.4	
235.73	4035.2	
235.94	3461.1	
236.15	5184.1	
236.37	6513.9	
236.58	3594.9	
236.79	3960.1	
237	5741.1	
237.21	4932.2	
237.43	4204.5	
237.64	3321.1	
237.85	9889	
238.06	5000.5	
238.27	4255	
238.48	3388	
238.7	5800.5	
238.91	5322.7	
239.12	3880.9	
239.33	3916.4	
239.54	5208.7	
239.76	5343.8	
239.97	3868.6	
240.18	3883.6	
240.39	6844.3	
240.6	5720.7	
240.82	4062.5	
241.03	3366.9	
241.24	5454.4	
241.45	6247.7	
241.66	3667.9	
241.87	4267.3	
242.09	6151.4	
242.3	6599.9	
242.51	4279.6	
242.72	3956	
242.93	5923.4	
243.14	5423	
243.36	4526.7	
243.57	4892.6	
243.78	6348.7	
243.99	5683.8	
244.2	3964.9	
244.41	3607.8	
244.63	4995.7	
244.84	5782.1	
245.05	4196.3	
245.26	3945.8	
245.47	5723.4	
245.68	5984.8	
245.9	5248.9	
246.11	4107.5	
246.32	5258.5	
246.53	5737	
246.74	6408.1	
246.95	3329.3	
247.16	4925.4	
247.38	5431.9	
247.59	3310.9	
247.8	3941	
248.01	5142.4	
248.22	5394.3	
248.43	3571.7	
248.64	3798.3	
248.86	4825	
249.07	5150.6	
249.28	3476.8	
249.49	4044.1	
249.7	6053.1	
249.91	6125.5	
250.12	3287.7	
250.34	3333.4	
250.55	5572.5	
250.76	5422.3	
250.97	4092.5	
251.18	4111.6	
251.39	6132.3	
251.6	5661.3	
251.81	4134.8	
252.03	4121.2	
252.24	5148.6	
252.45	5983.5	
252.66	3452.9	
252.87	4388.8	
253.08	5446.9	
253.29	7205.4	
253.5	3463.1	
253.72	4812.7	
253.93	5300.8	
254.14	6449.1	
254.35	3721.8	
254.56	3834.5	
254.77	5744.6	
254.98	5035.3	
255.19	3682.2	
255.41	4710.3	
255.62	5544.5	
255.83	6117.3	
256.04	4250.2	
256.25	4186	
256.46	6531	
256.67	5177.9	
256.88	4056.3	
257.09	4487.1	
257.31	5155.4	
257.52	5212.1	
257.73	5117.9	
257.94	3698.6	
258.15	5295.4	
258.36	5448.3	
258.57	4672.1	
258.78	2960.7	
258.99	5907	
259.2	5282.4	
259.41	3799	
259.63	3853.6	
259.84	6324.1	
260.05	6747.4	
260.26	4911.7	
260.47	3647.4	
260.68	6008.1	
260.89	5359.5	
261.1	4571.1	
261.31	3548.4	
261.52	6025.1	
261.73	6371.2	
261.95	4902.2	
262.16	4250.2	
262.37	6232.7	
262.58	6238.1	
262.79	4846.2	
263	3792.2	
263.21	5367	
263.42	4949.3	
263.63	3831.1	
263.84	3786	
264.05	6019	
264.26	6408.8	
264.47	4660.5	
264.69	4243.4	
264.9	6178.7	
265.11	5702.9	
265.32	3676.1	
265.53	3751.2	
265.74	5599.1	
265.95	4824.3	
266.16	4037.9	
266.37	4390.8	
266.58	5601.9	
266.79	5288.5	
267	3698.6	
267.21	3437.9	
267.42	5004.6	
267.63	5433.9	
267.84	3924.6	
268.06	3377.1	
268.27	5883.8	
268.48	6209.4	
268.69	3830.4	
268.9	4515.1	
269.11	6146	
269.32	4931.5	
269.53	3932.1	
269.74	3601	
269.95	5803.3	
270.16	4807.3	
270.37	3934.1	
270.58	4496.7	
270.79	5304.9	
271	5976	
271.21	4202.4	
271.42	3954.6	
271.63	5623.7	
271.84	5118.6	
272.05	3132.7	
272.26	3525.2	
272.47	5451.7	
272.68	5685.8	
272.89	3771.7	
273.11	4382	
273.32	5315.2	
273.53	6376	
273.74	4285.7	
273.95	4229.7	
274.16	6078.4	
274.37	5470.8	
274.58	4326.7	
274.79	3465.8	
275	5617.6	
275.21	6085.9	
275.42	5145.9	
275.63	4408.6	
275.84	5675.6	
276.05	7243.7	
276.26	4177.2	
276.47	3872	
276.68	5274.2	
276.89	6509.8	
277.1	4390.8	
277.31	3465.2	
277.52	5737	
277.73	5865.4	
277.94	3396.2	
278.15	3805.1	
278.36	5651.7	
278.57	5104.2	
278.78	3755.3	
278.99	4296.6	
279.2	5085.8	
279.41	5040.7	
279.62	4988.2	
279.83	3498.6	
280.04	6697.5	
280.25	4988.9	
280.46	4917.9	
280.67	3966.2	
280.88	5050.3	
281.09	6077	
281.3	4202.4	
281.51	5281.7	
281.72	5154.1	
281.93	5978	
282.14	3623.5	
282.35	3951.2	
282.56	5969.8	
282.77	5947.3	
282.98	3828.3	
283.19	4607.9	
283.4	7363.1	
283.61	5411.4	
283.82	3407.8	
284.03	4850.3	
284.24	5543.9	
284.45	6114.6	
284.66	4874.2	
284.87	4646.2	
285.08	6049.7	
285.29	6176.7	
285.5	3399.6	
285.71	3867.2	
285.92	6070.2	
286.12	6725.5	
286.33	4782.7	
286.54	3837.2	
286.75	5969.1	
286.96	5304.2	
287.17	3512.3	
287.38	4797.7	
287.59	5107.6	
287.8	4992.3	
288.01	3902.1	
288.22	4473.4	
288.43	5955.5	
288.64	4997.7	
288.85	4531.5	
289.06	4375.8	
289.27	5862	
289.48	6416.3	
289.69	4895.3	
289.9	4396.3	
290.11	6098.2	
290.32	5134.9	
290.53	4632.5	
290.74	4295.3	
290.94	5885.2	
291.15	5939.1	
291.36	3682.2	
291.57	4404.5	
291.78	5186.1	
291.99	4897.4	
292.2	3530	
292.41	4259.8	
292.62	6047	
292.83	5781.4	
293.04	5295.4	
293.25	3556.6	
293.46	5259.9	
293.67	6026.5	
293.88	3700.7	
294.09	3521.1	
294.29	5029.8	
294.5	5621	
294.71	3972.4	
294.92	3777.8	
295.13	5233.2	
295.34	6612.2	
295.55	3332.7	
295.76	3409.9	
295.97	5872.2	
296.18	6623.8	
296.39	3530.7	
296.6	3702	
296.81	5571.8	
297.01	5902.9	
297.22	3815.4	
297.43	3671.3	
297.64	5059.2	
297.85	5079	
298.06	3022.1	
298.27	3298.6	
298.48	5513.1	
298.69	5158.2	
298.9	4009.2	
299.11	3661.8	
299.31	5017.5	
299.52	4996.4	
299.73	4259.1	
299.94	4170.3	
300.15	5392.3	
300.36	5055.8	
300.57	4214	
300.78	4250.9	
300.99	5334.3	
301.2	5591	
301.4	3670.6	
301.61	3995.6	
301.82	5770.5	
302.03	5877	
302.24	4478.2	
302.45	3529.3	
302.66	5770.5	
302.87	6249	
303.08	3672.7	
303.29	4992.9	
303.49	5194.3	
303.7	5532.2	
303.91	3233.1	
304.12	4781.3	
304.33	4977.9	
304.54	5648.3	
304.75	3741	
304.96	3557.3	
305.16	5848.3	
305.37	6580.1	
305.58	3229	
305.79	3353.2	
306	5813.5	
306.21	4863.2	
306.42	3680.9	
306.63	5697.4	
306.83	5285.1	
307.04	6100.9	
307.25	4119.1	
307.46	4080.9	
307.67	4666.6	
307.88	5944.6	
308.09	3658.4	
308.29	3833.8	
308.5	5529.5	
308.71	6064	
308.92	3961.5	
309.13	3542.3	
309.34	5441.5	
309.55	5388.2	
309.75	4642.1	
309.96	4266.6	
310.17	5863.3	
310.38	5157.5	
310.59	4392.9	
310.8	3497.9	
311.01	5381.4	
311.21	5356.1	
311.42	3530.7	
311.63	3607.2	
311.84	5188.2	
312.05	5629.9	
312.26	4105.5	
312.46	4574.5	
312.67	5259.2	
312.88	4978.6	
313.09	3512.3	
313.3	3478.1	
313.51	6246.3	
313.71	6658.6	
313.92	3568.9	
314.13	3758	
314.34	5575.9	
314.55	5313.1	
314.76	4588.8	
314.96	4029	
315.17	5479.7	
315.38	6035.4	
315.59	3558.7	
315.8	3428.3	
316.01	6361	
316.21	6420.4	
316.42	3525.2	
316.63	4003.8	
316.84	5316.5	
317.05	6182.1	
317.26	4254.3	
317.46	3786	
317.67	5395	
317.88	5900.2	
318.09	4569	
318.3	3288.4	
318.5	5169.8	
318.71	5807.4	
318.92	5801.2	
319.13	4192.9	
319.34	5917.9	
319.54	6195.1	
319.75	3309.5	
319.96	3203.7	
320.17	5796.4	
320.38	6079.7	
320.58	3300	
320.79	3958	
321	6072.9	
321.21	6274.3	
321.42	3980.6	
321.62	3252.2	
321.83	5066.7	
322.04	5513.8	
322.25	3713.7	
322.46	3585.3	
322.66	5594.4	
322.87	5793.7	
323.08	4457.1	
323.29	3524.6	
323.5	6521.4	
323.7	5028.4	
323.91	4945.2	
324.12	4345.8	
324.33	5557.5	
324.53	5825.8	
324.74	4288.4	
324.95	4417.5	
325.16	4875.5	
325.37	5253.7	
325.57	3601	
325.78	3646.7	
325.99	5464	
326.2	4958.8	
326.4	5054.4	
326.61	3317.7	
326.82	5460.6	
327.03	5584.1	
327.24	5104.9	
327.44	4819.6	
327.65	5712.5	
327.86	4663.9	
328.07	4176.5	
328.27	3431	
328.48	6154.1	
328.69	5008.6	
328.9	5210	
329.1	3861.1	
329.31	5374.6	
329.52	6283.9	
329.73	3534.1	
329.93	4063.2	
330.14	5410.1	
330.35	5761.6	
330.56	5855.8	
330.76	4440	
330.97	5307	
331.18	5627.8	
331.39	3995.6	
331.59	3201	
331.8	6039.5	
332.01	6201.2	
332.22	3713.6	
332.42	4225.6	
332.63	5612.8	
332.84	5162.2	
333.05	3991.5	
333.25	3676.1	
333.46	5268.1	
333.67	5518.6	
333.88	3765.5	
334.08	4136.9	
334.29	7321.5	
334.5	6206	
334.7	3504.8	
334.91	5081	
335.12	4969.1	
335.33	5905	
335.53	3975.8	
335.74	5861.3	
335.95	5202.5	
336.16	5103.5	
336.36	3964.9	
336.57	4567.7	
336.78	4988.2	
336.98	6076.3	
337.19	4926.7	
337.4	3894.6	
337.61	6517.3	
337.81	4956.1	
338.02	3691.1	
338.23	4784.1	
338.43	6307.1	
338.64	5182.7	
338.85	3644.7	
339.05	4732.9	
339.26	6346	
339.47	4930.1	
339.68	3552.5	
339.88	5391.6	
340.09	5786.2	
340.3	5970.5	
340.5	4257.7	
340.71	3222.1	
340.92	4906.9	
341.13	6206	
341.33	3453.6	
341.54	4205.2	
341.75	5747.3	
341.95	5347.2	
342.16	4029.7	
342.37	4410	
342.57	5040.7	
342.78	5406	
342.99	4465.3	
343.19	3194.8	
343.4	5857.2	
343.61	5738.4	
343.81	3837.2	
344.02	3538.9	
344.23	5917.9	
344.43	6357.6	
344.64	4468	
344.85	4369	
345.06	5791.7	
345.26	6123.4	
345.47	4106.9	
345.68	4929.5	
345.88	4850.3	
346.09	5922.7	
346.3	4256.4	
346.5	3189.4	
346.71	5520.6	
346.92	5161.6	
347.12	3299.3	
347.33	4103.4	
347.54	6063.4	
347.74	6384.9	
347.95	4121.9	
348.16	3093.1	
348.36	5292	
348.57	4956.1	
348.78	4046.8	
348.98	4475.5	
349.19	5496.7	
349.39	4962.9	
349.6	3292.5	
349.81	3643.3	
350.01	5694.7	
350.22	5109	
350.43	4033.8	
350.63	4775.2	
350.84	5560.9	
351.05	5307	
351.25	3650.2	
351.46	3281.5	
351.67	6124.1	
351.87	5189.6	
352.08	3851.5	
352.29	4432.5	
352.49	5909.1	
352.7	6018.3	
352.9	3561.4	
353.11	4370.4	
353.32	6714.6	
353.52	5276.9	
353.73	3496.6	
353.94	4468	
354.14	5806.7	
354.35	5636.7	
354.55	3575.8	
354.76	3980.6	
354.97	5726.8	
355.17	5504.9	
355.38	3346.4	
355.59	4760.8	
355.79	5160.2	
356	5623.7	
356.2	3997	
356.41	3504.1	
356.62	4885.1	
356.82	5403.2	
357.03	4243.4	
357.24	3819.5	
357.44	5285.1	
357.65	5283.1	
357.85	5124	
358.06	4050.9	
358.27	4897.4	
358.47	5200.5	
358.68	3408.5	
358.88	4214	
359.09	5799.8	
359.3	6136.4	
359.5	4993.6	
359.71	4377.2	
359.91	6645	
360.12	5929.6	
360.33	4191.5	
360.53	4694.6	
360.74	5243.5	
360.94	5298.1	
361.15	4453	
361.36	3671.3	
361.56	6042.2	
361.77	5446.2	
361.97	4914.4	
362.18	3962.8	
362.38	6053.8	
362.59	5141.8	
362.8	3616	
363	3517.7	
363.21	4878.9	
363.41	5561.6	
363.62	4140.3	
363.83	5187.5	
364.03	5687.9	
364.24	6662	
364.44	5285.8	
364.65	5279	
364.85	5401.9	
365.06	5332.2	
365.27	3772.4	
365.47	3886.4	
365.68	6438.1	
365.88	5454.4	
366.09	4269.3	
366.29	3966.2	
366.5	5682.4	
366.71	6113.9	
366.91	5253	
367.12	4465.3	
367.32	6753.5	
367.53	5944.6	
367.73	4389.5	
367.94	5315.8	
368.14	5907	
368.35	6817	
368.56	4316.4	
368.76	4090.5	
368.97	6082.5	
369.17	7781.6	
369.38	3811.3	
369.58	4202.4	
369.79	5115.8	
369.99	6397.9	
370.2	5151.3	
370.4	4188.1	
370.61	5742.5	
370.82	6972	
371.02	4186.7	
371.23	3533.4	
371.43	5085.1	
371.64	6384.9	
371.84	4203.1	
372.05	5343.2	
372.25	7688.8	
372.46	6133	
372.66	4221.5	
372.87	4155.3	
373.07	6193.1	
373.28	7790.5	
373.48	5173.2	
373.69	4909	
373.9	5640.1	
374.1	5749.3	
374.31	5164.3	
374.51	4674.8	
374.72	6507.1	
374.92	5474.2	
375.13	5369.8	
375.33	4561.5	
375.54	6160.3	
375.74	5585.5	
375.95	4611.3	
376.15	5940.5	
376.36	6107.7	
376.56	5970.5	
376.77	4739.7	
376.97	5179.3	
377.18	7268.9	
377.38	6265.4	
377.59	5557.5	
377.79	4297.3	
378	6094.1	
378.2	6434	
378.41	4356	
378.61	4258.4	
378.82	6574	
379.02	5716.6	
379.23	4472.1	
379.43	5634	
379.64	6625.2	
379.84	6292	
380.05	4331.5	
380.25	4321.2	
380.46	6333	
380.66	5943.2	
380.87	5653.8	
381.07	6083.1	
381.28	7017.7	
381.48	6333	
381.69	4355.3	
381.89	4401.8	
382.1	5365.7	
382.3	6576.7	
382.51	5418.9	
382.71	6404	
382.91	6339.8	
383.12	6900.3	
383.32	4745.8	
383.53	4911	
383.73	6217	
383.94	5978	
384.14	4868	
384.35	3973.7	
384.55	5902.2	
384.76	6318.7	
384.96	4660.5	
385.17	5008	
385.37	6371.2	
385.58	5588.9	
385.78	5005.9	
385.98	3938.2	
386.19	5823.7	
386.39	6213.5	
386.6	4483	
386.8	4788.8	
387.01	6357.6	
387.21	6366.5	
387.42	5156.8	
387.62	5773.9	
387.83	5741.8	
388.03	6333.7	
388.23	4842.8	
388.44	5629.9	
388.64	5563	
388.85	5603.9	
389.05	5191.6	
389.26	5832.6	
389.46	7503.1	
389.67	6916	
389.87	5167.7	
390.07	5260.5	
390.28	6063.4	
390.48	5691.3	
390.69	4508.3	
390.89	4857.1	
391.1	5867.4	
391.3	6731.7	
391.5	5939.8	
391.71	6612.2	
391.91	6543.9	
392.12	7578.2	
392.32	6059.9	
392.53	5176.6	
392.73	5974.6	
392.93	6118	
393.14	4918.5	
393.34	5677.7	
393.55	6649.1	
393.75	6055.8	
393.95	4858.5	
394.16	4842.1	
394.36	5850.4	
394.57	6579.4	
394.77	4514.4	
394.98	4857.1	
395.18	5872.2	
395.38	6139.8	
395.59	5735	
395.79	4790.2	
396	6099.5	
396.2	6606.1	
396.4	5558.9	
396.61	5556.8	
396.81	6741.9	
397.02	6090	
397.22	5914.5	
397.42	6008.1	
397.63	6789	
397.83	6187.6	
398.04	4780	
398.24	5431.2	
398.44	6547.4	
398.65	5758.2	
398.85	4707.6	
399.05	4836.6	
399.26	6115.2	
399.46	7854	
399.67	5235.3	
399.87	4862.6	
400.07	6513.9	
400.28	6861.4	
400.48	5091.3	
400.69	6187.6	
400.89	7177.4	
401.09	7584.3	
401.3	5073.5	
401.5	6122.7	
401.7	7845.1	
401.91	8098.4	
402.11	5285.8	
402.32	5509	
402.52	7109.2	
402.72	6961	
402.93	5694	
403.13	4508.9	
403.33	7722.9	
403.54	6410.8	
403.74	5332.9	
403.94	6192.4	
404.15	6546	
404.35	7765.9	
404.56	5150.6	
404.76	7105.8	
404.96	7129.7	
405.17	6870.9	
405.37	6550.8	
405.57	5698.1	
405.78	7063.4	
405.98	6586.3	
406.18	5276.9	
406.39	6155.5	
406.59	7111.2	
406.79	6692.8	
407	5079	
407.2	5257.8	
407.4	7212.3	
407.61	7441	
407.81	5340.4	
408.01	7564.5	
408.22	6333.7	
408.42	8511.4	
408.62	6605.4	
408.83	6108.4	
409.03	7111.2	
409.23	7012.2	
409.44	6238.8	
409.64	6539.8	
409.84	8229.4	
410.05	8072.4	
410.25	6425.8	
410.45	6304.3	
410.66	7778.2	
410.86	10225	
411.06	6875	
411.27	6643.6	
411.47	10098	
411.67	7989.8	
411.88	6913.3	
412.08	7350.2	
412.28	8660.9	
412.49	9121.7	
412.69	6821.1	
412.89	6817.7	
413.09	9004.2	
413.3	8880	
413.5	7050.5	
413.7	6568.5	
413.91	8131.1	
414.11	9090.3	
414.31	6827.9	
414.52	7457.3	
414.72	8773.5	
414.92	8703.2	
415.12	6922.8	
415.33	7522.2	
415.53	9194	
415.73	9303.9	
415.94	7814.4	
416.14	7223.9	
416.34	8206.2	
416.55	7873.1	
416.75	8523	
416.95	7987.8	
417.15	9275.9	
417.36	9977	
417.56	8899.1	
417.76	7812.3	
417.97	9681.4	
418.17	9372.2	
418.37	7352.9	
418.57	7507.9	
418.78	9001.5	
418.98	8675.2	
419.18	8356.4	
419.38	8164.6	
419.59	8789.9	
419.79	8435.6	
419.99	7323.5	
420.2	7734.5	
420.4	9362.6	
420.6	9497.8	
420.8	7261.4	
421.01	7131	
421.21	9215.2	
421.41	9434.3	
421.61	7690.8	
421.82	7468.9	
422.02	8743.5	
422.22	9553.1	
422.42	8293.6	
422.63	7724.9	
422.83	8757.8	
423.03	10051	
423.23	7867.6	
423.44	6797.9	
423.64	8924.4	
423.84	8569.4	
424.04	7273.7	
424.25	6934.4	
424.45	9803.6	
424.65	9672.6	
424.85	6720.8	
425.06	7278.5	
425.26	9695.1	
425.46	8690.9	
425.66	7802.8	
425.87	7376.8	
426.07	9440.5	
426.27	9312.8	
426.47	7632.8	
426.67	6890	
426.88	9708.7	
427.08	9192	
427.28	7888.1	
427.48	6905.1	
427.69	8064.2	
427.89	8729.1	
428.09	7823.9	
428.29	6973.3	
428.5	9572.9	
428.7	9004.2	
428.9	6906.4	
429.1	7467.6	
429.3	9007	
429.51	9460.3	
429.71	7180.2	
429.91	8121.6	
430.11	9318.9	
430.31	9641.2	
430.52	7568.6	
430.72	7918.8	
430.92	9942.9	
431.12	9388.6	
431.32	7303.1	
431.53	7612.3	
431.73	8411.7	
431.93	10108	
432.13	7267.6	
432.33	7178.1	
432.54	8890.2	
432.74	9325.8	
432.94	7191.8	
433.14	8145.5	
433.34	9443.2	
433.55	9108	
433.75	8260.8	
433.95	10065	
434.15	9355.1	
434.35	9082.7	
434.56	7445	
434.76	7088	
434.96	9344.2	
435.16	9777.7	
435.36	7374.1	
435.56	8584.4	
435.77	9164	
435.97	9353.1	
436.17	9387.2	
436.37	8567.3	
436.57	9162.6	
436.78	8987.2	
436.98	10245	
437.18	9071.8	
437.38	9955.9	
437.58	9265	
437.78	9325.8	
437.99	7688.1	
438.19	9652.1	
438.39	10551	
438.59	7806.9	
438.79	7202	
438.99	10533	
439.2	9422.7	
439.4	7410.9	
439.6	7459.4	
439.8	9790.7	
440	10920	
440.2	8661.5	
440.4	8908.7	
440.61	10281	
440.81	10922	
441.01	7960.5	
441.21	9044.5	
441.41	10798	
441.61	10423	
441.81	9296.4	
442.02	10327	
442.22	11327	
442.42	10460	
442.62	8258.1	
442.82	8118.8	
443.02	10981	
443.22	10110	
443.43	8718.9	
443.63	8351.6	
443.83	9809.8	
444.03	9935.4	
444.23	9558.6	
444.43	9133.3	
444.63	10245	
444.83	11295	
445.04	8410.3	
445.24	9759.9	
445.44	10446	
445.64	10643	
445.84	8942.1	
446.04	9060.2	
446.24	9787.2	
446.44	10892	
446.65	8200.1	
446.85	8731.9	
447.05	9723.8	
447.25	10764	
447.45	8729.1	
447.65	8130.4	
447.85	10152	
448.05	9671.9	
448.25	9266.4	
448.46	9000.1	
448.66	10225	
448.86	9922.4	
449.06	8101.8	
449.26	9225.4	
449.46	10675	
449.66	9616.6	
449.86	8846.5	
450.06	8691.6	
450.26	9928.6	
450.47	10518	
450.67	8866.3	
450.87	9450	
451.07	10501	
451.27	10517	
451.47	8327	
451.67	9037.7	
451.87	10103	
452.07	11171	
452.27	8715.5	
452.47	8604.9	
452.67	10305	
452.88	11034	
453.08	7853.3	
453.28	10171	
453.48	11702	
453.68	10307	
453.88	8737.3	
454.08	8931.9	
454.28	10925	
454.48	10551	
454.68	9559.2	
454.88	10062	
455.08	10980	
455.28	11015	
455.48	8559.1	
455.68	9412.5	
455.89	11762	
456.09	11374	
456.29	9172.2	
456.49	9389.9	
456.69	11692	
456.89	10877	
457.09	9927.9	
457.29	10432	
457.49	11393	
457.69	11556	
457.89	9929.2	
458.09	9184.5	
458.29	11355	
458.49	12019	
458.69	10347	
458.89	9764.7	
459.09	12297	
459.29	12435	
459.49	9868.5	
459.69	10716	
459.9	11755	
460.1	11456	
460.3	9716.2	
460.5	9639.1	
460.7	11919	
460.9	11664	
461.1	9355.8	
461.3	10779	
461.5	12712	
461.7	12280	
461.9	10183	
462.1	10400	
462.3	11981	
462.5	12624	
462.7	10223	
462.9	10426	
463.1	13783	
463.3	13559	
463.5	10524	
463.7	11882	
463.9	12484	
464.1	12821	
464.3	11131	
464.5	11183	
464.7	13328	
464.9	13127	
465.1	12785	
465.3	11682	
465.5	13532	
465.7	13816	
465.9	12133	
466.1	11647	
466.3	13685	
466.5	13230	
466.7	13020	
466.9	11636	
467.1	13437	
467.3	14395	
467.5	13072	
467.7	11919	
467.9	14690	
468.1	15597	
468.3	12517	
468.5	13132	
468.7	13670	
468.9	13457	
469.1	12238	
469.3	12890	
469.5	15680	
469.7	13241	
469.9	12681	
470.1	12054	
470.3	13601	
470.5	13708	
470.7	13265	
470.9	12069	
471.1	13551	
471.3	13702	
471.5	11907	
471.69	13778	
471.89	13223	
472.09	12723	
472.29	12757	
472.49	12790	
472.69	13077	
472.89	13823	
473.09	11820	
473.29	11903	
473.49	13264	
473.69	13183	
473.89	12744	
474.09	12020	
474.29	14454	
474.49	14103	
474.69	12883	
474.89	12054	
475.09	13234	
475.29	13267	
475.49	11370	
475.69	11686	
475.88	14687	
476.08	13496	
476.28	11297	
476.48	11652	
476.68	13812	
476.88	13747	
477.08	11508	
477.28	12002	
477.48	13130	
477.68	13823	
477.88	11465	
478.08	11802	
478.28	14287	
478.48	13318	
478.67	11702	
478.87	11125	
479.07	14095	
479.27	13401	
479.47	12078	
479.67	12081	
479.87	13935	
480.07	14473	
480.27	11219	
480.47	13022	
480.67	13575	
480.87	14214	
481.06	11553	
481.26	12491	
481.46	13370	
481.66	13424	
481.86	12017	
482.06	13198	
482.26	13149	
482.46	14106	
482.66	11996	
482.86	11654	
483.05	13689	
483.25	13063	
483.45	14683	
483.65	12190	
483.85	13300	
484.05	13672	
484.25	12611	
484.45	13326	
484.65	14591	
484.84	14720	
485.04	12143	
485.24	12182	
485.44	14900	
485.64	13259	
485.84	11690	
486.04	13112	
486.24	13659	
486.44	14149	
486.63	11678	
486.83	12621	
487.03	13930	
487.23	14061	
487.43	11965	
487.63	14369	
487.83	14201	
488.02	15210	
488.22	13223	
488.42	13776	
488.62	15149	
488.82	14141	
489.02	12613	
489.22	12930	
489.41	14957	
489.61	14574	
489.81	12447	
490.01	12483	
490.21	14972	
490.41	15541	
490.61	12360	
490.8	12428	
491	14419	
491.2	13517	
491.4	13094	
491.6	12305	
491.8	14186	
491.99	14470	
492.19	12134	
492.39	12577	
492.59	15049	
492.79	15248	
492.99	13665	
493.18	12727	
493.38	15427	
493.58	16341	
493.78	13756	
493.98	13357	
494.18	15186	
494.37	14980	
494.57	14334	
494.77	14281	
494.97	15942	
495.17	16252	
495.37	13791	
495.56	14371	
495.76	16547	
495.96	16138	
496.16	15261	
496.36	14209	
496.55	16465	
496.75	16100	
496.95	14625	
497.15	14423	
497.35	16348	
497.54	16458	
497.74	14400	
497.94	16075	
498.14	17230	
498.34	17024	
498.53	14345	
498.73	15055	
498.93	16049	
499.13	16709	
499.33	15070	
499.52	15358	
499.72	16810	
499.92	17036	
500.12	14698	
500.32	15038	
500.51	17025	
500.71	17006	
500.91	15948	
501.11	15398	
501.31	17196	
501.5	17196	
501.7	16169	
501.9	15115	
502.1	16645	
502.29	16911	
502.49	15501	
502.69	15872	
502.89	16742	
503.09	16964	
503.28	14266	
503.48	14278	
503.68	15878	
503.88	16023	
504.07	15353	
504.27	14699	
504.47	16249	
504.67	16281	
504.86	15145	
505.06	14782	
505.26	15640	
505.46	17480	
505.65	14506	
505.85	14622	
506.05	15554	
506.25	16013	
506.44	13676	
506.64	14511	
506.84	15336	
507.04	16049	
507.23	13693	
507.43	14089	
507.63	17153	
507.83	15195	
508.02	14085	
508.22	13616	
508.42	17262	
508.62	15009	
508.81	14143	
509.01	14559	
509.21	14773	
509.4	15128	
509.6	14181	
509.8	13664	
510	15243	
510.19	16810	
510.39	13714	
510.59	13720	
510.79	15088	
510.98	16531	
511.18	13781	
511.38	13943	
511.57	15909	
511.77	15771	
511.97	14558	
512.17	13478	
512.36	15838	
512.56	15701	
512.76	13601	
512.95	13383	
513.15	16060	
513.35	14714	
513.55	14615	
513.74	13733	
513.94	16125	
514.14	15429	
514.33	14838	
514.53	14573	
514.73	15479	
514.92	15714	
515.12	14167	
515.32	13833	
515.51	15928	
515.71	16457	
515.91	15656	
516.11	14047	
516.3	17916	
516.5	15565	
516.7	14498	
516.89	15273	
517.09	15803	
517.29	15619	
517.48	14965	
517.68	14291	
517.88	15446	
518.07	16146	
518.27	14976	
518.47	13988	
518.66	16697	
518.86	15328	
519.06	13738	
519.25	14201	
519.45	15686	
519.65	17272	
519.84	14749	
520.04	15555	
520.24	17435	
520.43	16091	
520.63	14326	
520.83	14286	
521.02	15315	
521.22	15986	
521.42	14646	
521.61	15334	
521.81	15612	
522.01	15838	
522.2	14710	
522.4	14438	
522.6	16516	
522.79	15306	
522.99	14584	
523.18	14146	
523.38	16434	
523.58	16531	
523.77	16348	
523.97	14308	
524.17	18456	
524.36	17721	
524.56	15836	
524.76	15649	
524.95	16905	
525.15	16473	
525.34	15350	
525.54	15537	
525.74	17376	
525.93	16333	
526.13	16796	
526.33	15627	
526.52	17743	
526.72	17306	
526.91	17019	
527.11	16405	
527.31	18070	
527.5	18519	
527.7	16199	
527.89	15340	
528.09	17016	
528.29	17765	
528.48	16718	
528.68	16405	
528.87	18002	
529.07	17766	
529.27	16003	
529.46	15590	
529.66	17277	
529.85	17738	
530.05	15214	
530.25	16047	
530.44	18879	
530.64	17398	
530.83	15950	
531.03	16245	
531.23	18019	
531.42	17987	
531.62	17209	
531.81	16348	
532.01	18426	
532.21	18975	
532.4	16382	
532.6	16793	
532.79	19566	
532.99	18761	
533.18	16933	
533.38	17821	
533.58	18393	
533.77	19054	
533.97	17254	
534.16	17968	
534.36	19536	
534.55	18436	
534.75	17970	
534.95	17027	
535.14	19315	
535.34	18335	
535.53	16545	
535.73	18671	
535.92	19728	
536.12	18327	
536.31	16720	
536.51	17828	
536.71	18774	
536.9	18354	
537.1	16869	
537.29	16957	
537.49	19226	
537.68	18329	
537.88	17587	
538.07	16803	
538.27	18600	
538.46	19755	
538.66	16610	
538.86	17208	
539.05	18619	
539.25	18983	
539.44	17448	
539.64	16951	
539.83	18305	
540.03	19307	
540.22	16688	
540.42	16821	
540.61	18364	
540.81	18800	
541	16984	
541.2	17774	
541.39	17971	
541.59	18387	
541.78	17423	
541.98	16330	
542.18	17494	
542.37	17412	
542.57	16564	
542.76	17293	
542.96	17359	
543.15	17971	
543.35	16307	
543.54	15617	
543.74	18058	
543.93	17627	
544.13	16039	
544.32	17189	
544.52	17886	
544.71	16932	
544.91	15234	
545.1	16447	
545.3	17099	
545.49	17815	
545.69	15128	
545.88	15707	
546.08	18843	
546.27	18335	
546.47	16212	
546.66	15464	
546.86	17841	
547.05	18576	
547.24	15713	
547.44	15585	
547.63	16756	
547.83	17899	
548.02	15911	
548.22	16131	
548.41	16455	
548.61	17828	
548.8	15324	
549	15206	
549.19	16934	
549.39	17465	
549.58	14895	
549.78	15475	
549.97	17486	
550.17	16802	
550.36	16354	
550.55	17432	
550.75	16832	
550.94	17665	
551.14	15198	
551.33	15454	
551.53	16384	
551.72	17223	
551.92	15633	
552.11	15302	
552.31	17172	
552.5	17263	
552.69	16926	
552.89	14743	
553.08	17214	
553.28	16909	
553.47	15289	
553.67	16466	
553.86	17730	
554.06	16107	
554.25	14432	
554.44	15156	
554.64	18523	
554.83	18065	
555.03	14930	
555.22	15365	
555.42	17303	
555.61	17059	
555.8	14982	
556	15252	
556.19	16266	
556.39	17277	
556.58	15079	
556.78	15082	
556.97	16946	
557.16	16529	
557.36	16337	
557.55	14754	
557.75	15702	
557.94	17662	
558.13	14786	
558.33	14583	
558.52	17306	
558.72	16085	
558.91	14586	
559.1	14721	
559.3	15854	
559.49	15457	
559.69	14136	
559.88	15171	
560.07	16522	
560.27	17040	
560.46	15212	
560.66	15296	
560.85	16209	
561.04	15485	
561.24	14371	
561.43	14451	
561.63	15844	
561.82	16021	
562.01	15904	
562.21	14988	
562.4	16462	
562.59	17363	
562.79	14790	
562.98	14489	
563.18	16391	
563.37	17976	
563.56	15242	
563.76	14411	
563.95	15939	
564.14	15792	
564.34	14831	
564.53	14638	
564.73	16426	
564.92	16966	
565.11	15194	
565.31	14478	
565.5	17023	
565.69	16062	
565.89	14638	
566.08	14956	
566.27	16892	
566.47	17612	
566.66	15653	
566.85	14283	
567.05	16582	
567.24	15939	
567.44	14575	
567.63	15949	
567.82	16803	
568.02	16502	
568.21	14644	
568.4	14924	
568.6	16373	
568.79	16518	
568.98	14283	
569.18	14660	
569.37	16451	
569.56	18299	
569.76	14901	
569.95	15716	
570.14	16470	
570.34	16382	
570.53	14084	
570.72	14035	
570.91	16838	
571.11	15900	
571.3	14464	
571.49	15423	
571.69	15993	
571.88	15518	
572.07	15156	
572.27	14837	
572.46	15578	
572.65	16527	
572.85	14354	
573.04	14861	
573.23	17057	
573.43	16168	
573.62	14155	
573.81	14962	
574	16374	
574.2	16111	
574.39	14755	
574.58	14871	
574.78	17424	
574.97	16559	
575.16	15278	
575.36	15486	
575.55	17055	
575.74	16997	
575.93	14334	
576.13	15664	
576.32	16311	
576.51	17029	
576.71	14917	
576.9	16382	
577.09	17217	
577.28	16813	
577.48	15271	
577.67	14286	
577.86	16384	
578.05	16876	
578.25	15034	
578.44	15229	
578.63	16628	
578.83	17869	
579.02	14406	
579.21	16139	
579.4	16889	
579.6	16666	
579.79	15276	
579.98	17610	
580.17	17300	
580.37	17431	
580.56	14888	
580.75	15859	
580.94	17877	
581.14	17729	
581.33	16352	
581.52	15184	
581.71	17505	
581.91	18091	
582.1	15016	
582.29	15566	
582.48	17074	
582.68	17277	
582.87	16112	
583.06	15943	
583.25	17604	
583.45	17417	
583.64	16546	
583.83	17379	
584.02	16974	
584.21	17572	
584.41	16535	
584.6	15812	
584.79	17302	
584.98	18055	
585.18	15291	
585.37	15129	
585.56	16726	
585.75	17599	
585.94	15370	
586.14	16063	
586.33	17982	
586.52	16993	
586.71	15614	
586.91	15279	
587.1	16118	
587.29	17210	
587.48	14782	
587.67	14890	
587.87	16832	
588.06	16739	
588.25	15873	
588.44	14958	
588.63	15743	
588.83	16292	
589.02	13820	
589.21	13416	
589.4	14716	
589.59	14326	
589.78	11966	
589.98	12076	
590.17	13444	
590.36	13933	
590.55	11110	
590.74	11839	
590.94	15134	
591.13	13609	
591.32	11746	
591.51	11212	
591.7	14101	
591.89	13599	
592.09	11463	
592.28	11974	
592.47	12846	
592.66	14905	
592.85	11583	
593.05	11943	
593.24	13717	
593.43	14588	
593.62	12249	
593.81	12708	
594	13965	
594.19	14123	
594.39	12112	
594.58	12008	
594.77	14126	
594.96	14748	
595.15	11855	
595.34	12452	
595.54	14156	
595.73	13140	
595.92	11187	
596.11	12295	
596.3	14646	
596.49	13399	
596.68	12164	
596.88	12793	
597.07	14549	
597.26	13400	
597.45	11777	
597.64	13225	
597.83	13637	
598.02	14430	
598.22	12051	
598.41	12924	
598.6	14178	
598.79	13677	
598.98	12131	
599.17	13090	
599.36	14448	
599.55	15519	
599.74	14481	
599.94	14237	
600.13	15085	
600.32	13925	
600.51	12274	
600.7	12420	
600.89	15840	
601.08	15806	
601.27	12281	
601.47	13291	
601.66	15141	
601.85	15885	
602.04	13117	
602.23	13226	
602.42	14356	
602.61	14971	
602.8	13140	
602.99	12787	
603.18	14795	
603.37	14980	
603.57	13449	
603.76	14159	
603.95	15713	
604.14	15440	
604.33	13086	
604.52	13542	
604.71	15014	
604.9	14692	
605.09	14057	
605.28	13913	
605.47	15672	
605.66	15283	
605.86	13639	
606.05	13076	
606.24	15667	
606.43	14147	
606.62	13305	
606.81	14172	
607	15451	
607.19	14834	
607.38	12809	
607.57	13031	
607.76	14616	
607.95	14034	
608.14	13253	
608.33	14123	
608.52	14393	
608.72	15399	
608.91	12725	
609.1	12546	
609.29	14474	
609.48	14008	
609.67	13480	
609.86	12455	
610.05	14214	
610.24	14410	
610.43	12403	
610.62	12099	
610.81	15530	
611	15406	
611.19	12515	
611.38	13148	
611.57	14668	
611.76	15984	
611.95	12262	
612.14	12207	
612.33	14498	
612.52	13962	
612.71	12713	
612.9	12047	
613.09	13631	
613.28	15986	
613.47	12405	
613.66	13494	
613.85	14615	
614.04	14110	
614.24	12607	
614.43	11709	
614.62	14741	
614.81	14577	
615	13094	
615.19	13192	
615.38	13982	
615.57	14336	
615.76	12981	
615.95	14050	
616.14	14778	
616.33	14376	
616.52	13236	
616.71	13690	
616.9	14663	
617.09	14653	
617.28	12665	
617.47	13990	
617.66	13883	
617.85	13912	
618.04	13929	
618.22	13261	
618.41	14453	
618.6	15312	
618.79	13156	
618.98	12896	
619.17	15723	
619.36	14109	
619.55	13177	
619.74	13227	
619.93	14901	
620.12	14323	
620.31	13839	
620.5	14030	
620.69	15674	
620.88	16107	
621.07	14651	
621.26	13794	
621.45	15453	
621.64	15231	
621.83	13876	
622.02	13102	
622.21	15335	
622.4	15191	
622.59	14521	
622.78	14190	
622.97	14630	
623.16	15759	
623.35	13834	
623.54	12927	
623.72	14924	
623.91	15055	
624.1	14126	
624.29	12662	
624.48	16216	
624.67	15226	
624.86	13965	
625.05	12945	
625.24	16192	
625.43	14452	
625.62	15541	
625.81	13088	
626	15368	
626.19	14633	
626.38	13848	
626.56	13121	
626.75	14364	
626.94	14993	
627.13	13408	
627.32	12002	
627.51	14733	
627.7	16206	
627.89	12080	
628.08	13289	
628.27	13860	
628.46	14012	
628.65	12332	
628.83	12108	
629.02	14690	
629.21	13941	
629.4	12982	
629.59	13156	
629.78	14098	
629.97	15058	
630.16	13338	
630.35	12703	
630.54	15494	
630.72	15304	
630.91	12757	
631.1	13222	
631.29	14598	
631.48	14859	
631.67	13397	
631.86	12828	
632.05	14240	
632.24	14369	
632.42	12428	
632.61	13066	
632.8	14373	
632.99	14049	
633.18	13259	
633.37	13644	
633.56	14592	
633.75	14663	
633.93	13316	
634.12	12942	
634.31	15486	
634.5	15154	
634.69	13001	
634.88	13480	
635.07	14545	
635.25	15113	
635.44	13925	
635.63	14178	
635.82	14392	
636.01	13854	
636.2	13684	
636.39	13581	
636.57	15418	
636.76	15136	
636.95	12754	
637.14	14274	
637.33	14860	
637.52	15840	
637.7	12549	
637.89	13563	
638.08	14496	
638.27	15819	
638.46	13596	
638.65	13919	
638.83	15761	
639.02	14126	
639.21	13400	
639.4	13902	
639.59	14463	
639.78	14132	
639.96	12491	
640.15	12646	
640.34	14336	
640.53	14486	
640.72	12307	
640.91	12611	
641.09	13789	
641.28	15057	
641.47	12493	
641.66	13347	
641.85	14324	
642.03	14478	
642.22	12966	
642.41	12521	
642.6	13764	
642.79	13007	
642.97	12085	
643.16	12973	
643.35	13493	
643.54	13188	
643.73	11919	
643.91	12627	
644.1	12962	
644.29	13516	
644.48	11568	
644.67	11648	
644.85	12764	
645.04	12969	
645.23	10824	
645.42	11084	
645.6	11996	
645.79	13379	
645.98	10794	
646.17	9702.6	
646.36	11533	
646.54	12061	
646.73	11114	
646.92	9899.9	
647.11	11477	
647.29	12640	
647.48	9875.3	
647.67	9706	
647.86	12850	
648.05	12964	
648.23	10417	
648.42	11818	
648.61	12446	
648.8	12248	
648.98	10215	
649.17	10696	
649.36	11751	
649.55	11443	
649.73	10281	
649.92	11052	
650.11	11710	
650.3	11985	
650.48	10368	
650.67	10049	
650.86	12163	
651.05	11037	
651.23	10279	
651.42	10363	
651.61	11748	
651.79	11709	
651.98	10539	
652.17	10253	
652.36	12185	
652.54	11252	
652.73	10190	
652.92	9940.2	
653.11	12086	
653.29	12137	
653.48	9363.3	
653.67	10342	
653.85	11716	
654.04	12701	
654.23	10279	
654.42	9696.4	
654.6	10906	
654.79	11551	
654.98	9078	
655.16	9609.8	
655.35	10449	
655.54	10531	
655.73	9271.8	
655.91	9185.8	
656.1	11756	
656.29	10722	
656.47	9003.6	
656.66	10869	
656.85	11012	
657.03	11036	
657.22	9698.5	
657.41	9865.1	
657.59	11356	
657.78	11253	
657.97	9564	
658.16	10257	
658.34	12063	
658.53	12402	
658.72	11150	
658.9	11840	
659.09	11559	
659.28	11615	
659.46	10196	
659.65	10020	
659.84	11404	
660.02	11930	
660.21	10017	
660.4	9922.4	
660.58	12417	
660.77	11772	
660.96	10628	
661.14	9656.2	
661.33	13001	
661.52	12817	
661.7	9499.8	
661.89	13388	
662.08	11291	
662.26	10937	
662.45	9865.1	
662.64	9916.3	
662.82	11962	
663.01	11277	
663.2	9895.8	
663.38	10818	
663.57	11966	
663.75	11811	
663.94	10251	
664.13	11524	
664.31	11280	
664.5	12034	
664.69	10339	
664.87	11023	
665.06	11001	
665.25	11778	
665.43	11312	
665.62	11391	
665.8	12106	
665.99	11394	
666.18	10236	
666.36	10344	
666.55	11987	
666.74	11903	
666.92	9824.1	
667.11	11415	
667.29	11304	
667.48	11967	
667.67	11081	
667.85	10186	
668.04	11457	
668.22	11477	
668.41	10210	
668.6	10346	
668.78	11159	
668.97	11348	
669.15	10557	
669.34	9530.6	
669.53	11135	
669.71	11434	
669.9	9616.6	
670.08	10364	
670.27	11035	
670.46	11594	
670.64	10612	
670.83	10761	
671.01	11041	
671.2	11541	
671.38	9698.5	
671.57	9611.1	
671.76	12245	
671.94	12850	
672.13	9564.7	
672.31	10660	
672.5	11749	
672.69	11138	
672.87	9646.6	
673.06	10020	
673.24	11494	
673.43	11082	
673.61	10426	
673.8	9947	
673.98	11736	
674.17	11856	
674.36	10601	
674.54	10389	
674.73	11446	
674.91	11755	
675.1	10165	
675.28	9643.2	
675.47	11249	
675.65	11787	
675.84	9983.8	
676.03	10258	
676.21	10978	
676.4	10469	
676.58	10615	
676.77	10403	
676.95	12557	
677.14	10970	
677.32	9499.8	
677.51	9265.7	
677.69	11784	
677.88	10596	
678.06	9397.4	
678.25	9544.2	
678.44	11211	
678.62	10935	
678.81	9169.4	
678.99	10166	
679.18	11967	
679.36	11542	
679.55	9863.7	
679.73	10469	
679.92	11529	
680.1	10920	
680.29	10983	
680.47	9729.2	
680.66	10735	
680.84	11755	
681.03	9000.8	
681.21	10049	
681.4	10788	
681.58	10649	
681.77	9438.4	
681.95	9292.3	
682.14	11583	
682.32	11990	
682.51	10172	
682.69	9037.7	
682.88	10576	
683.06	11129	
683.25	9932	
683.43	10262	
683.62	10699	
683.8	11070	
683.99	10224	
684.17	9279.3	
684.36	11582	
684.54	10060	
684.73	8016.4	
684.91	8100.4	
685.1	9938.8	
685.28	9281.4	
685.46	8449.9	
685.65	8499.8	
685.83	10081	
686.02	9392	
686.2	7935.2	
686.39	8131.8	
686.57	9248.6	
686.76	10942	
686.94	8039.6	
687.13	8357.1	
687.31	10032	
687.5	9633.6	
687.68	7834.2	
687.86	9070.5	
688.05	11290	
688.23	9217.2	
688.42	9111.4	
688.6	8297.7	
688.79	9629.5	
688.97	9624.1	
689.16	8733.2	
689.34	7548.8	
689.52	10395	
689.71	10479	
689.89	8771.5	
690.08	8060.8	
690.26	9636.4	
690.45	9493	
690.63	8755.7	
690.81	8056	
691	9161.2	
691.18	9073.2	
691.37	7990.5	
691.55	10241	
691.74	8901.2	
691.92	10978	
692.1	8059.4	
692.29	7415.7	
692.47	9140.8	
692.66	8520.2	
692.84	7699.7	
693.02	8350.9	
693.21	8789.2	
693.39	9269.8	
693.58	8563.9	
693.76	7990.5	
693.94	10672	
694.13	10658	
694.31	8203.5	
694.5	9417.2	
694.68	9510.1	
694.86	9953.1	
695.05	8806.9	
695.23	8866.3	
695.42	10387	
695.6	12687	
695.78	9258.9	
695.97	8172.1	
696.15	10146	
696.34	9499.8	
696.52	7895.6	
696.7	8689.5	
696.89	9582.4	
697.07	9061.6	
697.25	8408.3	
697.44	10037	
697.62	9421.3	
697.81	9836.4	
697.99	8062.2	
698.17	8525	
698.36	8712.1	
698.54	9371.5	
698.72	8350.3	
698.91	7103	
699.09	9028.1	
699.28	8853.4	
699.46	7905.2	
699.64	7736.5	
699.83	8818.6	
700.01	10088	
700.19	8689.5	
700.38	7201.3	
700.56	10179	
700.74	9123.7	
700.93	7765.9	
701.11	8558.5	
701.29	9810.5	
701.48	10990	
701.66	8021.9	
701.84	8010.3	
702.03	9402.2	
702.21	10021	
702.39	7587.7	
702.58	8097	
702.76	9664.4	
702.94	9792	
703.13	7482.6	
703.31	9910.8	
703.49	8993.3	
703.68	10421	
703.86	7584.3	
704.04	8740.7	
704.23	9536	
704.41	9965.4	
704.59	7869	
704.78	9145.5	
704.96	10634	
705.14	10025	
705.33	7760.4	
705.51	8538	
705.69	9456.2	
705.87	10295	
706.06	8834.9	
706.24	7680.6	
706.42	9722.4	
706.61	10005	
706.79	8888.2	
706.97	7691.5	
707.16	9119.6	
707.34	9740.1	
707.52	8817.9	
707.7	7980.9	
707.89	9338.7	
708.07	8968.1	
708.25	8787.2	
708.44	8951	
708.62	9234.3	
708.8	10466	
708.98	9120.3	
709.17	8096.3	
709.35	9731.9	
709.53	9570.8	
709.72	7695.6	
709.9	7837.6	
710.08	9891	
710.26	9855.5	
710.45	9303.9	
710.63	8000	
710.81	9482.8	
710.99	9486.9	
711.18	8445.1	
711.36	7856	
711.54	9090.3	
711.72	9791.3	
711.91	7798.7	
712.09	7328.3	
712.27	9031.5	
712.45	9591.3	
712.64	7904.5	
712.82	6718	
713	8189.1	
713.18	8247.9	
713.37	6543.9	
713.55	7755.7	
713.73	8800.1	
713.91	7208.2	
714.1	6391.7	
714.28	5757.5	
714.46	8013	
714.64	7041.6	
714.83	4966.3	
715.01	5760.3	
715.19	6976.1	
715.37	6417.7	
715.55	5400.5	
715.74	5793	
715.92	7860.1	
716.1	5906.3	
716.28	6833.4	
716.47	5855.8	
716.65	6547.4	
716.83	6642.2	
717.01	5624.4	
717.19	5747.3	
717.38	8850	
717.56	6391	
717.74	6158.2	
717.92	5263.3	
718.1	7793.9	
718.29	7103.7	
718.47	5182	
718.65	5905.7	
718.83	8001.4	
719.01	7959.1	
719.2	5170.4	
719.38	6345.3	
719.56	7540.6	
719.74	9180.4	
719.92	5750	
720.11	6807.4	
720.29	7457.3	
720.47	6531	
720.65	5105.6	
720.83	5900.2	
721.02	6699.6	
721.2	6449.7	
721.38	5900.9	
721.56	5180.7	
721.74	6000.5	
721.92	6173.9	
722.11	6404	
722.29	6094.1	
722.47	7462.8	
722.65	6593.8	
722.83	5156.1	
723.01	6118	
723.2	6670.2	
723.38	6941.2	
723.56	4577.9	
723.74	5711.8	
723.92	6193.1	
724.1	7302.4	
724.29	5104.2	
724.47	6226.5	
724.65	6268.1	
724.83	6187.6	
725.01	4947.2	
725.19	5930.2	
725.37	6236.7	
725.56	6332.3	
725.74	4863.2	
725.92	5129.5	
726.1	6247.7	
726.28	6487.3	
726.46	5507	
726.64	5269.4	
726.83	6449.1	
727.01	6705	
727.19	4787.5	
727.37	5646.2	
727.55	6565.8	
727.73	7121.5	
727.91	4821.6	
728.09	4655	
728.28	7210.2	
728.46	7936.6	
728.64	6017.6	
728.82	5924.1	
729	8464.9	
729.18	7719.5	
729.36	5293.3	
729.54	7661.5	
729.72	8999.5	
729.91	7266.9	
730.09	7439.6	
730.27	6193.7	
730.45	7260	
730.63	7897.7	
730.81	6879.1	
730.99	5847.6	
731.17	8454	
731.35	7017	
731.53	6379.4	
731.71	5988.9	
731.9	8112.7	
732.08	8270.4	
732.26	6126.2	
732.44	5834	
732.62	8239.7	
732.8	7733.8	
732.98	6605.4	
733.16	5599.1	
733.34	7843	
733.52	6573.3	
733.7	6164.4	
733.88	6525.5	
734.07	7577.5	
734.25	7408.2	
734.43	5696.8	
734.61	7261.4	
734.79	9086.2	
734.97	7395.2	
735.15	5813.5	
735.33	6230.6	
735.51	7753.6	
735.69	7385	
735.87	7692.2	
736.05	6505	
736.23	7659.4	
736.41	7454.6	
736.59	6365.1	
736.77	6462.7	
736.95	8120.9	
737.13	7578.8	
737.32	6035.4	
737.5	6279.8	
737.68	8718.2	
737.86	7469.6	
738.04	5857.9	
738.22	7813	
738.4	7283.3	
738.58	7516	
738.76	6539.8	
738.94	5515.9	
739.12	7454.6	
739.3	7274.4	
739.48	7144.7	
739.66	7033.4	
739.84	7823.2	
740.02	7765.9	
740.2	5638.7	
740.38	6055.2	
740.56	8245.1	
740.74	7029.3	
740.92	6765.1	
741.1	6582.9	
741.28	7585	
741.46	7436.2	
741.64	6169.8	
741.82	6732.4	
742	7672.4	
742.18	7580.9	
742.36	6408.8	
742.54	6015.6	
742.72	8204.2	
742.9	6874.3	
743.08	6744	
743.26	5548.6	
743.44	8438.3	
743.62	8198	
743.8	6939.9	
743.98	5956.9	
744.16	7891.5	
744.34	7590.5	
744.52	6855.9	
744.7	6793.8	
744.88	7951.6	
745.06	7565.9	
745.24	6819.7	
745.42	7029.3	
745.6	8093.6	
745.78	7847.1	
745.96	5588.9	
746.14	5913.9	
746.32	8778.3	
746.5	8026	
746.68	6483.2	
746.86	5923.4	
747.03	8546.9	
747.21	6765.1	
747.39	6465.4	
747.57	5961.6	
747.75	7692.9	
747.93	8047.8	
748.11	5929.6	
748.29	5785.5	
748.47	9244.5	
748.65	7349.5	
748.83	6610.8	
749.01	6386.2	
749.19	7830.7	
749.37	7013.6	
749.55	6168.5	
749.73	6341.2	
749.91	7420.5	
750.09	7144.7	
750.26	6410.1	
750.44	5765.7	
750.62	7506.5	
750.8	7495.6	
750.98	5614.2	
751.16	5928.9	
751.34	7550.9	
751.52	6888.7	
751.7	6731	
751.88	5603.9	
752.06	8033.5	
752.24	7723.6	
752.42	5471.5	
752.59	5838.8	
752.77	7450.5	
752.95	8684.8	
753.13	6617	
753.31	5973.2	
753.49	7091.4	
753.67	7588.4	
753.85	6296.8	
754.03	5814.9	
754.21	7766.6	
754.38	8069.7	
754.56	5945.9	
754.74	4881.7	
754.92	6850.5	
755.1	7471	
755.28	4782	
755.46	4703.5	
755.64	7847.1	
755.82	7879.2	
755.99	4454.3	
756.17	4570.4	
756.35	5122	
756.53	6761.7	
756.71	3376.4	
756.89	4322.6	
757.07	6207.4	
757.25	5340.4	
757.42	4954.7	
757.6	5884.5	
757.78	6479.1	
757.96	5455.8	
758.14	4752.7	
758.32	4222.2	
758.5	4931.5	
758.67	5790.3	
758.85	4422.2	
759.03	4602.5	
759.21	5887.2	
759.39	5350.7	
759.57	4100	
759.75	5274.9	
759.92	6666.1	
760.1	5946.6	
760.28	5685.2	
760.46	5945.3	
760.64	5725.4	
760.82	5578.7	
760.99	5383.4	
761.17	4765.6	
761.35	6683.9	
761.53	5655.8	
761.71	5020.3	
761.89	5816.2	
762.06	6709.8	
762.24	6210.1	
762.42	5199.8	
762.6	4953.4	
762.78	6296.8	
762.96	7075	
763.13	5623	
763.31	5358.2	
763.49	7243	
763.67	6370.5	
763.85	6296.8	
764.02	6881.2	
764.2	7628	
764.38	6753.5	
764.56	5303.6	
764.74	6262.7	
764.91	7642.3	
765.09	6560.3	
765.27	5039.4	
765.45	4841.4	
765.63	7746.1	
765.8	7604.1	
765.98	4567	
766.16	4810.7	
766.34	6115.9	
766.52	5967.1	
766.69	5834	
766.87	4711	
767.05	6549.4	
767.23	7378.1	
767.41	5030.5	
767.58	5284.4	
767.76	7118.7	
767.94	7149.5	
768.12	5080.3	
768.29	5892.7	
768.47	6565.8	
768.65	7292.1	
768.83	4687.8	
769	5937.1	
769.18	6117.3	
769.36	6855.2	
769.54	5588.2	
769.72	4752.7	
769.89	7059.3	
770.07	7184.3	
770.25	5067.4	
770.43	6287.9	
770.6	7873.1	
770.78	8383	
770.96	5195.7	
771.14	5833.3	
771.31	6930.3	
771.49	6389	
771.67	4330.8	
771.85	4580.6	
772.02	5507	
772.2	6250.4	
772.38	5275.6	
772.55	4812.7	
772.73	6570.6	
772.91	6281.1	
773.09	5173.2	
773.26	5257.8	
773.44	6474.3	
773.62	6170.5	
773.8	4656.4	
773.97	4328	
774.15	6523.5	
774.33	6066.1	
774.5	4524	
774.68	4818.9	
774.86	6643.6	
775.04	6113.2	
775.21	4560.8	
775.39	4579.3	
775.57	6341.9	
775.74	6786.3	
775.92	4386.1	
776.1	4292.5	
776.27	6311.2	
776.45	7596.6	
776.63	4545.8	
776.81	4080.9	
776.98	5967.8	
777.16	7081.9	
777.34	4640	
777.51	4654.4	
777.69	5927.5	
777.87	5653.8	
778.04	4650.9	
778.22	5325.4	
778.4	5620.3	
778.57	6348.7	
778.75	3878.9	
778.93	4226.3	
779.1	5524.1	
779.28	5365.7	
779.46	3931.4	
779.64	4404.5	
779.81	6496.8	
779.99	7419.1	
780.17	5203.9	
780.34	5365	
780.52	5915.9	
780.69	6104.3	
780.87	4678.2	
781.05	4221.5	
781.22	5978	
781.4	5978	
781.58	4360.1	
781.75	3538.9	
781.93	5891.3	
782.11	5333.6	
782.28	5296	
782.46	4299.4	
782.64	5222.3	
782.81	6118	
782.99	4364.9	
783.17	4362.2	
783.34	6016.2	
783.52	5215.5	
783.69	4536.9	
783.87	5347.9	
784.05	5284.4	
784.22	5308.3	
784.4	5273.5	
784.58	4685.1	
784.75	6236.1	
784.93	5270.8	
785.1	4310.3	
785.28	4898.7	
785.46	5933.6	
785.63	5226.4	
785.81	4206.5	
785.99	4068.6	
786.16	5455.1	
786.34	5815.5	
786.51	4091.2	
786.69	4511.7	
786.87	5033.2	
787.04	5492	
787.22	3980.6	
787.39	4919.2	
787.57	5147.9	
787.75	6350.8	
787.92	5129.5	
788.1	5050.3	
788.27	5295.4	
788.45	5024.3	
788.63	4745.1	
788.8	3508.2	
788.98	5718.6	
789.15	4988.2	
789.33	3665.9	
789.5	4263.2	
789.68	6221.7	
789.86	6338.5	
790.03	4700.8	
790.21	4150.6	
790.38	6114.6	
790.56	5329.5	
790.73	3904.1	
790.91	3961.5	
791.09	5211.4	
791.26	5979.4	
791.44	4185.4	
791.61	3633.1	
791.79	5154.1	
791.96	5277.6	
792.14	3729.4	
792.32	3362.1	
792.49	5238	
792.67	5293.3	
792.84	3801	
793.02	3596.9	
793.19	5657.2	
793.37	6385.6	
793.54	3319.8	
793.72	3712.3	
793.89	6574	
794.07	5229.8	
794.25	4332.8	
794.42	3392.8	
794.6	6266.8	
794.77	5853.8	
794.95	4538.3	
795.12	3931.4	
795.3	5210.7	
795.47	5843.5	
795.65	4377.2	
795.82	4259.1	
796	4963.6	
796.17	6976.7	
796.35	4062.5	
796.52	4780	
796.7	5666.7	
796.87	5834.7	
797.05	5040.1	
797.22	4954	
797.4	5758.9	
797.57	6800.6	
797.75	4183.3	
797.92	3962.1	
798.1	6067.4	
798.27	5124.7	
798.45	3393.5	
798.62	3620.1	
798.8	5461.2	
798.97	6053.1	
799.15	4464.6	
799.32	4237.9	
799.5	4755.4	
799.67	5501.5	
799.85	4607.2	
800.02	3304.7	
800.2	5113.1	
800.37	5470.8	
800.55	4763.6	
800.72	3932.1	
800.9	5853.8	
801.07	6380.8	
801.25	5309	
801.42	4311	
801.6	5956.9	
801.77	5648.3	
801.95	3871.3	
802.12	3839.3	
802.29	5672.2	
802.47	5643.5	
802.64	4326.7	
802.82	3301.3	
802.99	5073.5	
803.17	6123.4	
803.34	4178.5	
803.52	3751.2	
803.69	6797.9	
803.87	4863.9	
804.04	4118.5	
804.21	4236.6	
804.39	6169.8	
804.56	5300.1	
804.74	3583.9	
804.91	4340.3	
805.09	5075.5	
805.26	5205.3	
805.44	3649.5	
805.61	3953.3	
805.78	5814.9	
805.96	5836	
806.13	4307.6	
806.31	4649.6	
806.48	4646.2	
806.66	5145.9	
806.83	4294.6	
807	4207.9	
807.18	5100.8	
807.35	5466	
807.53	4183.3	
807.7	3308.8	
807.87	6287.9	
808.05	5165.7	
808.22	4622.9	
808.4	3298.6	
808.57	5113.1	
808.74	4739	
808.92	3766.2	
809.09	4934.2	
809.27	4991.6	
809.44	5664	
809.61	3440.6	
809.79	3756.7	
809.96	6305	
810.14	5870.8	
810.31	3269.2	
810.48	4031.8	
810.66	5212.8	
810.83	5971.2	
811.01	3757.3	
811.18	4624.3	
811.35	5915.2	
811.53	4532.8	
811.7	4663.2	
811.87	4358.8	
812.05	5150	
812.22	5108.3	
812.39	3755.3	
812.57	3657.7	
812.74	5162.2	
812.92	6827.9	
813.09	4003.8	
813.26	4423.6	
813.44	6604.7	
813.61	5078.3	
813.78	3327.3	
813.96	4457.1	
814.13	5134.9	
814.3	4743.8	
814.48	4840	
814.65	3985.3	
814.82	6401.3	
815	4921.3	
815.17	4100	
815.34	5010.7	
815.52	5029.8	
815.69	5027.1	
815.87	4102.8	
816.04	3515.7	
816.21	5146.5	
816.38	4531.5	
816.56	3988.8	
816.73	3686.3	
816.9	6520	
817.08	5893.4	
817.25	3767.6	
817.42	4676.9	
817.6	4621.6	
817.77	5184.8	
817.94	4207.2	
818.12	3680.2	
818.29	4872.1	
818.46	7688.1	
818.64	3879.5	
818.81	3648.1	
818.98	4790.9	
819.16	7073	
819.33	4426.3	
819.5	4160.1	
819.67	5512.4	
819.85	6092.7	
820.02	4029	
820.19	4296.6	
820.37	5389.6	
820.54	4928.1	
820.71	4214.7	
820.88	5317.2	
821.06	5302.9	
821.23	4922.6	
821.4	4263.2	
821.58	4255.7	
821.75	5908.4	
821.92	5280.3	
822.09	3363.4	
822.27	3480.2	
822.44	5168.4	
822.61	5018.2	
822.79	3375.1	
822.96	6597.2	
823.13	5649.7	
823.3	4846.2	
823.48	3955.3	
823.65	3532.1	
823.82	5840.1	
823.99	4657.8	
824.17	4995.7	
824.34	3652.2	
824.51	6769.9	
824.68	5173.2	
824.86	3763.5	
825.03	4266.6	
825.2	5124.7	
825.37	6304.3	
825.55	3691.1	
825.72	4151.2	
825.89	6920.8	
826.06	6384.9	
826.24	4023.6	
826.41	4078.9	
826.58	6276.3	
826.75	5469.4	
826.92	3168.9	
827.1	3474.7	
827.27	8568	
827.44	6844.3	
827.61	3844	
827.79	4656.4	
827.96	4914.4	
828.13	5217.5	
828.3	4028.4	
828.47	3362.8	
828.65	5328.8	
828.82	5345.9	
828.99	5196.4	
829.16	4570.4	
829.34	5753.4	
829.51	5532.2	
829.68	4164.2	
829.85	4295.3	
830.02	6040.8	
830.2	5816.2	
830.37	3166.2	
830.54	5010.7	
830.71	6556.2	
830.88	5072.1	
831.05	3306.8	
831.23	3711.6	
831.4	6318	
831.57	7027.9	
831.74	3862.5	
831.91	3317.7	
832.09	5342.5	
832.26	5795.1	
832.43	4019.5	
832.6	4501.4	
832.77	5367.7	
832.94	6100.2	
833.12	3140.2	
833.29	3939.6	
833.46	5528.8	
833.63	7314	
833.8	4328	
833.97	4013.3	
834.15	5787.6	
834.32	5501.5	
834.49	4173.1	
834.66	4227	
834.83	5998.5	
835	4848.9	
835.17	3870	
835.35	3879.5	
835.52	5610.1	
835.69	5528.2	
835.86	4090.5	
836.03	3383.2	
836.2	5696.8	
836.37	5303.6	
836.55	3936.2	
836.72	3760.8	
836.89	5304.2	
837.06	5749.3	
837.23	4113	
837.4	4476.2	
837.57	6597.2	
837.75	7330.4	
837.92	3641.3	
838.09	3904.8	
838.26	5290.6	
838.43	6054.5	
838.6	4225	
838.77	3759.4	
838.94	6956.3	
839.11	6606.1	
839.29	3982.6	
839.46	3078.1	
839.63	5732.9	
839.8	5459.9	
839.97	3977.8	
840.14	3865.2	
840.31	5500.8	
840.48	5793	
840.65	3221.5	
840.82	3824.2	
841	5755.5	
841.17	5715.9	
841.34	3576.4	
841.51	3605.8	
841.68	5686.5	
841.85	5489.9	
842.02	3658.4	
842.19	3065.1	
842.36	5467.4	
842.53	5499.5	
842.7	3570.3	
842.87	4370.4	
843.05	7218.4	
843.22	5379.3	
843.39	3426.9	
843.56	3641.3	
843.73	5227.1	
843.9	5795.1	
844.07	5821.7	
844.24	4885.8	
844.41	8632.9	
844.58	4981.3	
844.75	3424.9	
844.92	3714.3	
845.09	5742.5	
845.26	5662.6	
845.43	3544.4	
845.6	3721.8	
845.77	5705.6	
845.94	5485.8	
846.12	3927.3	
846.29	4137.6	
846.46	5951.4	
846.63	5731.6	
846.8	3542.3	
846.97	4203.1	
847.14	6227.9	
847.31	5640.1	
847.48	3953.9	
847.65	4473.4	
847.82	6025.8	
847.99	6012.8	
848.16	4667.3	
848.33	4402.5	
848.5	5304.2	
848.67	6195.8	
848.84	3526.6	
849.01	3708.2	
849.18	5143.1	
849.35	4793.6	
849.52	4418.2	
849.69	3452.9	
849.86	5903.6	
850.03	6207.4	
850.2	3571	
850.37	4392.2	
850.54	6113.9	
850.71	5410.1	
850.88	4242.7	
851.05	3469.3	
851.22	5598.5	
851.39	6338.5	
851.56	3338.9	
851.73	4121.9	
851.9	5036	
852.07	5966.4	
852.24	3919.8	
852.41	3487.7	
852.58	5554.8	
852.75	5068	
852.92	3986.7	
853.09	3450.1	
853.26	5295.4	
853.43	6186.9	
853.6	3575.8	
853.77	3011.2	
853.94	6242.9	
854.11	5023.7	
854.28	5270.1	
854.44	3794.2	
854.61	6717.3	
854.78	5805.3	
854.95	3510.2	
855.12	4457.1	
855.29	4603.8	
855.46	6343.9	
855.63	3513.6	
855.8	4899.4	
855.97	5289.9	
856.14	6093.4	
856.31	5020.3	
856.48	3862.5	
856.65	5287.9	
856.82	5030.5	
856.99	3387.3	
857.16	3839.9	
857.33	7025.9	
857.49	5360.9	
857.66	3761.4	
857.83	4114.4	
858	5361.6	
858.17	5543.2	
858.34	3385.3	
858.51	3534.8	
858.68	6445.6	
858.85	6482.5	
859.02	4147.8	
859.19	4415.4	
859.36	4958.8	
859.52	5076.9	
859.69	3619.4	
859.86	4167.6	
860.03	5098.8	
860.2	6342.6	
860.37	3190.7	
860.54	3576.4	
860.71	5899.5	
860.88	6421.1	
861.05	3990.1	
861.21	4482.3	
861.38	6426.5	
861.55	4872.1	
861.72	3239.9	
861.89	3997	
862.06	6007.4	
862.23	6532.3	
862.4	3424.2	
862.56	3670.6	
862.73	5872.9	
862.9	5492	
863.07	4190.8	
863.24	3208.5	
863.41	4918.5	
863.58	5092.6	
863.75	3612.6	
863.91	4089.8	
864.08	6290	
864.25	5893.4	
864.42	4408.6	
864.59	4928.1	
864.76	6731	
864.93	5014.1	
865.09	3441.3	
865.26	3767.6	
865.43	6287.9	
865.6	6670.2	
865.77	3100.6	
865.94	3529.3	
866.1	6300.2	
866.27	6014.9	
866.44	5347.9	
866.61	3368.9	
866.78	5376.6	
866.95	5856.5	
867.11	3414.6	
867.28	3132.7	
867.45	6081.8	
867.62	5136.3	
867.79	4064.5	
867.96	3525.2	
868.12	5038	
868.29	6018.3	
868.46	3033	
868.63	4751.3	
868.8	6201.2	
868.97	5917.9	
869.13	3645.4	
869.3	3688.4	
869.47	5855.8	
869.64	6064	
869.81	3590.8	
869.97	3577.8	
870.14	5722.7	
870.31	6413.6	
870.48	3457.7	
870.65	4449.6	
870.81	5331.5	
870.98	5336.3	
871.15	4022.2	
871.32	3648.8	
871.48	5813.5	
871.65	6487.3	
871.82	3562.1	
871.99	3900.7	
872.16	6890	
872.32	6223.8	
872.49	3534.1	
872.66	3583.9	
872.83	5979.4	
872.99	5250.3	
873.16	4044.1	
873.33	3543.7	
873.5	5583.4	
873.67	5668.8	
873.83	3723.9	
874	4751.3	
874.17	5752.7	
874.34	6852.5	
874.5	4544.4	
874.67	4364.9	
874.84	6346	
875.01	5038	
875.17	5005.9	
875.34	3512.3	
875.51	5625.8	
875.68	6881.9	
875.84	4297.3	
876.01	5225.1	
876.18	5925.5	
876.34	5854.5	
876.51	3601.7	
876.68	3474	
876.85	5424.4	
877.01	6251.1	
877.18	5072.1	
877.35	3556.6	
877.52	5519.3	
877.68	4937	
877.85	3452.9	
878.02	3442	
878.18	5498.8	
878.35	5177.3	
878.52	2798.2	
878.69	3921.2	
878.85	6006.7	
879.02	5881.8	
879.19	4989.5	
879.35	3809.9	
879.52	5902.2	
879.69	6111.8	
879.86	3046	
880.02	3972.4	
880.19	5500.2	
880.36	6681.2	
880.52	4095.3	
880.69	4162.2	
880.86	6021.7	
881.02	6123.4	
881.19	3895.9	
881.36	3852.9	
881.52	5918.6	
881.69	5242.8	
881.86	3799.7	
882.02	3685	
882.19	6263.4	
882.36	7305.8	
882.52	3603.7	
882.69	4955.4	
882.86	5694	
883.02	5574.6	
883.19	4360.8	
883.36	4079.6	
883.52	6040.1	
883.69	6923.5	
883.86	3560.7	
884.02	3185.3	
884.19	6046.3	
884.36	5524.7	
884.52	4044.1	
884.69	3747.8	
884.86	5229.8	
885.02	6646.3	
885.19	3934.8	
885.36	4070	
885.52	5474.2	
885.69	5659.2	
885.86	5156.1	
886.02	4559.5	
886.19	5972.6	
886.35	5351.3	
886.52	3913	
886.69	5024.3	
886.85	4999.8	
887.02	6278.4	
887.19	6278.4	
887.35	6278.4	
887.52	6278.4	
887.68	6278.4	
887.85	6278.4	
888.02	6278.4	
888.18	6278.4	
888.35	6278.4	
888.51	6278.4	
888.68	6278.4	
888.85	6278.4	
889.01	6278.4	
889.18	6278.4	
889.35	6278.4	
889.51	6278.4	
889.68	6278.4	
889.84	6278.4	
890.01	6278.4	
890.17	6278.4	
890.34	6278.4	
890.51	6278.4	
890.67	6278.4	
890.84	6278.4	
891	6278.4	
891.17	6278.4	
891.34	6278.4	
891.5	6278.4	
891.67	6278.4	
891.83	6278.4	
892	6278.4	
892.16	6278.4	
892.33	6278.4	
892.5	6278.4	
892.66	6278.4	
892.83	6278.4	
892.99	6278.4	
893.16	6278.4	
893.32	6278.4	
893.49	6278.4	
893.65	6278.4	
893.82	6278.4	
893.99	6278.4	
894.15	6278.4	
894.32	6278.4	
894.48	6278.4	
894.65	6278.4	
894.81	6278.4	
894.98	6278.4	
895.14	6278.4	
895.31	6278.4	
895.47	6278.4	
895.64	6278.4	
895.81	6278.4	
895.97	6278.4	
896.14	6278.4	
896.3	6278.4	
896.47	6278.4	
896.63	6278.4	
896.8	6278.4	
896.96	6278.4	
897.13	6278.4	
897.29	6278.4	
897.46	6278.4	
897.62	6278.4	
897.79	6278.4	
897.95	6278.4	
898.12	6278.4	
898.28	6278.4	
898.45	6278.4	
898.61	6278.4	
898.78	6278.4	
898.94	6278.4	
899.11	6278.4	
899.27	6278.4	
899.44	6278.4	
899.6	6278.4	
899.77	6278.4	
899.93	6278.4	
900.1	6278.4	
900.26	6278.4	
900.43	6278.4	
900.59	6278.4	
900.76	6278.4	
900.92	6278.4	
901.09	6278.4	
901.25	6278.4	
901.42	6278.4	
901.58	6278.4	
901.75	6278.4	
901.91	6278.4	
902.07	6278.4	
902.24	6278.4	
902.4	6278.4	
902.57	6278.4	
902.73	6278.4	
902.9	6278.4	
903.06	6278.4	
903.23	6278.4	
903.39	6278.4	
903.56	6278.4	
903.72	6278.4	
903.88	6278.4	
904.05	6278.4	
904.21	6278.4	
904.38	6278.4	
904.54	6278.4	
904.71	6278.4	
904.87	6278.4	
905.03	6278.4	
905.2	6278.4	
905.36	6278.4	
905.53	6278.4	
905.69	6278.4	
905.86	6278.4	
906.02	6278.4	
906.18	6278.4	
906.35	6278.4	
906.51	6278.4	
906.68	6278.4	
906.84	6278.4	
907.01	6278.4	
907.17	6278.4	
907.33	6278.4	
907.5	6278.4	
907.66	6278.4	
907.83	6278.4	
907.99	6278.4	
908.15	6278.4	
908.32	6278.4	
908.48	6278.4	
908.65	6278.4	
908.81	6278.4	
908.97	6278.4	
909.14	6278.4	
909.3	6278.4	
909.47	6278.4	
909.63	6278.4	
909.79	6278.4	
909.96	6278.4	
910.12	6278.4	
910.28	6278.4	
910.45	6278.4	
910.61	6278.4	
910.78	6278.4	
910.94	6278.4	
911.1	6278.4	
911.27	6278.4	
911.43	6278.4	
911.59	6278.4	
911.76	6278.4	
911.92	6278.4	
912.08	6278.4	
912.25	6278.4	
912.41	6278.4	
912.57	6278.4	
912.74	6278.4	
912.9	6278.4	
913.07	6278.4	
913.23	6278.4	
913.39	6278.4	
913.56	6278.4	
913.72	6278.4	
913.88	6278.4	
914.05	6278.4	
914.21	6278.4	
914.37	6278.4	
914.54	6278.4	
914.7	6278.4	
914.86	6278.4	
915.03	6278.4	
915.19	6278.4	
