Wavelength	Intensities	
nm	a.u.	
179.22	1663.6	
179.44	1667	
179.65	1660.2	
179.86	1673.9	
180.08	1647.9	
180.29	3842.7	
180.51	2991.4	
180.72	4896	
180.94	5461.9	
181.15	2697.9	
181.37	2658.9	
181.58	4707.6	
181.79	5005.9	
182.01	2803.7	
182.22	2900.6	
182.44	4948.6	
182.65	4331.5	
182.87	3556	
183.08	3180.5	
183.29	5167.7	
183.51	4335.5	
183.72	2914.3	
183.94	4011.3	
184.15	4721.3	
184.37	4609.3	
184.58	2628.9	
184.79	3414	
185.01	4366.3	
185.22	4956.8	
185.44	3580.5	
185.65	3096.5	
185.86	4724	
186.08	4261.1	
186.29	2570.9	
186.51	2750.4	
186.72	4453	
186.94	5051	
187.15	3127.9	
187.36	3163.4	
187.58	6287.9	
187.79	4736.3	
188.01	3259.7	
188.22	4881	
188.43	5556.8	
188.65	4889.9	
188.86	2760.7	
189.08	3204.4	
189.29	4525.3	
189.5	4459.1	
189.72	2975	
189.93	3024.8	
190.15	5052.3	
190.36	5819.6	
190.57	3257.6	
190.79	3133.4	
191	5099.4	
191.22	5048.9	
191.43	3214.6	
191.64	2794.8	
191.86	5246.9	
192.07	5115.1	
192.29	2833.7	
192.5	2957.3	
192.71	5010.7	
192.93	4487.1	
193.14	2937.5	
193.35	3023.5	
193.57	4519.9	
193.78	5134.3	
194	2466.4	
194.21	2919	
194.42	4422.9	
194.64	4696.7	
194.85	3207.8	
195.07	3685.7	
195.28	4677.6	
195.49	4156.7	
195.71	3786.7	
195.92	2855.6	
196.13	4829.8	
196.35	4861.9	
196.56	4014.7	
196.78	3178.4	
196.99	5834.7	
197.2	5483.8	
197.42	3581.2	
197.63	3216.7	
197.84	4272.1	
198.06	4785.4	
198.27	2955.9	
198.48	3842	
198.7	4521.2	
198.91	4682.3	
199.13	3203	
199.34	3181.9	
199.55	5051	
199.77	4070	
199.98	2834.4	
200.19	3251.5	
200.41	4668.7	
200.62	4377.2	
200.83	3262.4	
201.05	3522.5	
201.26	4631.1	
201.47	4450.9	
201.69	2882.2	
201.9	2821.4	
202.11	4653	
202.33	5349.3	
202.54	2965.5	
202.76	3306.8	
202.97	4723.3	
203.18	4769.7	
203.4	3289.7	
203.61	3342.3	
203.82	4743.8	
204.04	4428.4	
204.25	3214.6	
204.46	3136.8	
204.68	4617.5	
204.89	4798.4	
205.1	3140.9	
205.32	2785.2	
205.53	4854.4	
205.74	5068.7	
205.96	2500.6	
206.17	3226.2	
206.38	4902.8	
206.6	5033.2	
206.81	3632.4	
207.02	2990	
207.24	4837.3	
207.45	5116.5	
207.66	3124.5	
207.88	2685.6	
208.09	4807.3	
208.3	4618.2	
208.52	2831	
208.73	3088.3	
208.94	4646.2	
209.15	5134.9	
209.37	3047.4	
209.58	3173	
209.79	5038.7	
210.01	4572.4	
210.22	2563.4	
210.43	2646	
210.65	4582	
210.86	4913.8	
211.07	3092.4	
211.29	2805	
211.5	4875.5	
211.71	4595.6	
211.93	2886.3	
212.14	2849.4	
212.35	4633.9	
212.56	4691.2	
212.78	3225.6	
212.99	2678.1	
213.2	5348.6	
213.42	4515.1	
213.63	2950.4	
213.84	3032.4	
214.06	4197	
214.27	4262.5	
214.48	3054.2	
214.69	3255.6	
214.91	5195.7	
215.12	5171.8	
215.33	3256.3	
215.55	3515	
215.76	5577.3	
215.97	4910.3	
216.18	3166.8	
216.4	3140.2	
216.61	4440	
216.82	4975.9	
217.04	2876.7	
217.25	3005.1	
217.46	5076.9	
217.67	4941.1	
217.89	2607.1	
218.1	2684.2	
218.31	4749.9	
218.53	4844.1	
218.74	2987.3	
218.95	2885.6	
219.16	4629.8	
219.38	5317.9	
219.59	2930.6	
219.8	3411.9	
220.01	5710.4	
220.23	4643.4	
220.44	3652.2	
220.65	2838.5	
220.87	4687.1	
221.08	5150.6	
221.29	2722.4	
221.5	3416.7	
221.72	6006	
221.93	4422.2	
222.14	3183.9	
222.35	3698.6	
222.57	4655	
222.78	5004.6	
222.99	3108.8	
223.2	3308.2	
223.42	4916.5	
223.63	4966.3	
223.84	2420	
224.05	2449.4	
224.27	5625.1	
224.48	5221	
224.69	3734.1	
224.9	3228.3	
225.12	4772.4	
225.33	4665.3	
225.54	2658.9	
225.75	2927.2	
225.97	4351.9	
226.18	4601.8	
226.39	3054.9	
226.6	2910.2	
226.82	4496.7	
227.03	4369.7	
227.24	3179.1	
227.45	2735.4	
227.67	4990.2	
227.88	5280.3	
228.09	3586	
228.3	3500.7	
228.52	4893.3	
228.73	4586.8	
228.94	3034.4	
229.15	2765.4	
229.36	4603.2	
229.58	4642.1	
229.79	3005.1	
230	3441.3	
230.21	5386.8	
230.43	4716.5	
230.64	3167.5	
230.85	3264.5	
231.06	5056.4	
231.28	4972.5	
231.49	2739.5	
231.7	3200.3	
231.91	4940.4	
232.12	4698	
232.34	2785.2	
232.55	3102.7	
232.76	5093.3	
232.97	4726	
233.18	2873.3	
233.4	3180.5	
233.61	4780.6	
233.82	4526.7	
234.03	3026.2	
234.25	2955.2	
234.46	6120.7	
234.67	4684.4	
234.88	3256.3	
235.09	2892.4	
235.31	4834.6	
235.52	4558.1	
235.73	3190.7	
235.94	2729.3	
236.15	4487.8	
236.37	5481	
236.58	2846.7	
236.79	3054.9	
237	4891.9	
237.21	4251.6	
237.43	3262.4	
237.64	2653.5	
237.85	7576.8	
238.06	4382.7	
238.27	3294.5	
238.48	2806.4	
238.7	4930.8	
238.91	4546.5	
239.12	3033.7	
239.33	3218	
239.54	4444.8	
239.76	4588.8	
239.97	3063.8	
240.18	3053.5	
240.39	5513.8	
240.6	4806.6	
240.82	3289	
241.03	2713.6	
241.24	4627	
241.45	5195.7	
241.66	2871.9	
241.87	3344.3	
242.09	5203.2	
242.3	5360.2	
242.51	3359.4	
242.72	3066.5	
242.93	4968.4	
243.14	4624.3	
243.36	3554.6	
243.57	3757.3	
243.78	5280.3	
243.99	4932.9	
244.2	3048.7	
244.41	2819.4	
244.63	4341	
244.84	4853.7	
245.05	3257.6	
245.26	3065.1	
245.47	4883.7	
245.68	4989.5	
245.9	3897.3	
246.11	3170.3	
246.32	4475.5	
246.53	4848.9	
246.74	4769	
246.95	2702	
247.16	4405.2	
247.38	4662.5	
247.59	2667.8	
247.8	3129.3	
248.01	4356.7	
248.22	4679.6	
248.43	2901.3	
248.64	3061.7	
248.86	4304.8	
249.07	4495.3	
249.28	2825.5	
249.49	3179.8	
249.7	5026.4	
249.91	5107	
250.12	2654.2	
250.34	2679.4	
250.55	4716.5	
250.76	4724.7	
250.97	3232.4	
251.18	3216.7	
251.39	5083.7	
251.6	4762.2	
251.81	3249.4	
252.03	3223.5	
252.24	4498.7	
252.45	4941.1	
252.66	2770.9	
252.87	3336.1	
253.08	4691.2	
253.29	5708.4	
253.5	2779.8	
253.72	3702.7	
253.93	4602.5	
254.14	5371.1	
254.35	2983.2	
254.56	2977.1	
254.77	4813.4	
254.98	4409.3	
255.19	2984.6	
255.41	3611.9	
255.62	4789.5	
255.83	5090.6	
256.04	3288.4	
256.25	3181.9	
256.46	5527.5	
256.67	4457.7	
256.88	3192.1	
257.09	3506.1	
257.31	4360.1	
257.52	4386.1	
257.73	3908.2	
257.94	2942.9	
258.15	4575.8	
258.36	4625	
258.57	3620.8	
258.78	2473.9	
258.99	5042.1	
259.2	4497.3	
259.41	2936.1	
259.63	3115.6	
259.84	5229.1	
260.05	5455.8	
260.26	3748.5	
260.47	2926.5	
260.68	5028.4	
260.89	4589.5	
261.1	3488.4	
261.31	2826.2	
261.52	5141.8	
261.73	5341.1	
261.95	3756.7	
262.16	3312.2	
262.37	5109	
262.58	5244.8	
262.79	3755.3	
263	3009.8	
263.21	4689.2	
263.42	4227.7	
263.63	3261	
263.84	2981.2	
264.05	5000.5	
264.26	5197.7	
264.47	3642	
264.69	3192.8	
264.9	5239.4	
265.11	4842.1	
265.32	2874	
265.53	2967.5	
265.74	4764.3	
265.95	4184.7	
266.16	3094.5	
266.37	3435.8	
266.58	4809.3	
266.79	4528.1	
267	2910.8	
267.21	2764.8	
267.42	4336.2	
267.63	4675.5	
267.84	3073.3	
268.06	2707.4	
268.27	5005.9	
268.48	5130.2	
268.69	3040.6	
268.9	3502	
269.11	5142.4	
269.32	4244.8	
269.53	3095.2	
269.74	2927.2	
269.95	4784.7	
270.16	4194.2	
270.37	3093.1	
270.58	3517	
270.79	4589.5	
271	5036	
271.21	3243.3	
271.42	3159.3	
271.63	4821.6	
271.84	4362.9	
272.05	2594.1	
272.26	2803	
272.47	4682.3	
272.68	4838	
272.89	2972.3	
273.11	3337.5	
273.32	4494.6	
273.53	5344.5	
273.74	3213.9	
273.95	3199.6	
274.16	4975.2	
274.37	4676.9	
274.58	3337.5	
274.79	2764.1	
275	4785.4	
275.21	5088.5	
275.42	4006.5	
275.63	3420.8	
275.84	4881	
276.05	5839.4	
276.26	3165.5	
276.47	3056.9	
276.68	4631.8	
276.89	5416.2	
277.1	3426.3	
277.31	2759.3	
277.52	4780.6	
277.73	5090.6	
277.94	2692.4	
278.15	2953.9	
278.36	4852.3	
278.57	4467.3	
278.78	2966.8	
278.99	3306.8	
279.2	4471.4	
279.41	4349.2	
279.62	3801	
279.83	2768.2	
280.04	5522	
280.25	4363.5	
280.46	3808.5	
280.67	3141.6	
280.88	4418.2	
281.09	5105.6	
281.3	3228.3	
281.51	3969.6	
281.72	4477.5	
281.93	4996.4	
282.14	2896.5	
282.35	3178.4	
282.56	5050.3	
282.77	4973.8	
282.98	3031.7	
283.19	3622.9	
283.4	5946.6	
283.61	4628.4	
283.82	2807.8	
284.03	3702.7	
284.24	4777.9	
284.45	5053	
284.66	3797.6	
284.87	3563.5	
285.08	5113.8	
285.29	5194.3	
285.5	2709.5	
285.71	2970.9	
285.92	5087.8	
286.12	5527.5	
286.33	3746.4	
286.54	3040.6	
286.75	5009.3	
286.96	4600.4	
287.17	2851.5	
287.38	3659.7	
287.59	4502.8	
287.8	4460.5	
288.01	3084.9	
288.22	3387.3	
288.43	4919.2	
288.64	4212	
288.85	3495.9	
289.06	3391.4	
289.27	5008.6	
289.48	5235.3	
289.69	3774.4	
289.9	3504.8	
290.11	5184.1	
290.32	4486.4	
290.53	3548.4	
290.74	3257	
290.94	4939.7	
291.15	4976.6	
291.36	2951.8	
291.57	3393.5	
291.78	4575.8	
291.99	4262.5	
292.2	2855.6	
292.41	3340.9	
292.62	5022.3	
292.83	4863.2	
293.04	3969	
293.25	2894.5	
293.46	4546.5	
293.67	5072.8	
293.88	2909.5	
294.09	2872.6	
294.29	4372.4	
294.5	4759.5	
294.71	3103.4	
294.92	2963.4	
295.13	4530.8	
295.34	5472.2	
295.55	2635.1	
295.76	2610.5	
295.97	4941.7	
296.18	5459.9	
296.39	2787.3	
296.6	2942.2	
296.81	4711	
297.01	4985.4	
297.22	3046.7	
297.43	2931.3	
297.64	4436.6	
297.85	4372.4	
298.06	2491.7	
298.27	2671.2	
298.48	4665.3	
298.69	4431.8	
298.9	3119.7	
299.11	2888.3	
299.31	4369	
299.52	4347.8	
299.73	3348.4	
299.94	3293.8	
300.15	4706.2	
300.36	4410	
300.57	3310.9	
300.78	3198.2	
300.99	4528.1	
301.2	4747.2	
301.4	2939.5	
301.61	3077.4	
301.82	4898.1	
302.03	5013.4	
302.24	3459	
302.45	2808.4	
302.66	4851	
302.87	5091.3	
303.08	2944.3	
303.29	3794.9	
303.49	4523.3	
303.7	4693.3	
303.91	2631.6	
304.12	3708.9	
304.33	4287.1	
304.54	4771.8	
304.75	2945.7	
304.96	2832.3	
305.16	4836.6	
305.37	5453.7	
305.58	2631	
305.79	2708.1	
306	4872.1	
306.21	4214	
306.42	2932	
306.63	4288.4	
306.83	4567.7	
307.04	4980.7	
307.25	3159.3	
307.46	3168.9	
307.67	4121.9	
307.88	4885.8	
308.09	2952.5	
308.29	2976.4	
308.5	4688.5	
308.71	5023	
308.92	3093.1	
309.13	2805	
309.34	4655.7	
309.55	4577.2	
309.75	3548.4	
309.96	3281.5	
310.17	4968.4	
310.38	4468.7	
310.59	3429.7	
310.8	2737.5	
311.01	4523.3	
311.21	4629.8	
311.42	2847.4	
311.63	2865.1	
311.84	4509.6	
312.05	4697.4	
312.26	3284.9	
312.46	3495.2	
312.67	4549.2	
312.88	4297.3	
313.09	2816	
313.3	2755.2	
313.51	5204.6	
313.71	5473.5	
313.92	2846	
314.13	2956.6	
314.34	4801.8	
314.55	4621.6	
314.76	3507.5	
314.96	3102	
315.17	4831.8	
315.38	4887.1	
315.59	2859.6	
315.8	2752.5	
316.01	5169.1	
316.21	5370.5	
316.42	2786.6	
316.63	3106.8	
316.84	4589.5	
317.05	5126.1	
317.26	3304.1	
317.46	3018	
317.67	4629.8	
317.88	4949.3	
318.09	3513.6	
318.3	2652.1	
318.5	4548.5	
318.71	4828.4	
318.92	4342.4	
319.13	3332.7	
319.34	5106.3	
319.54	5070.8	
319.75	2652.8	
319.96	2560.6	
320.17	4835.3	
320.38	5097.4	
320.58	2645.3	
320.79	3077.4	
321	5087.8	
321.21	5155.4	
321.42	3117.7	
321.62	2633.7	
321.83	4439.3	
322.04	4704.2	
322.25	3029.6	
322.46	2834.4	
322.66	4724	
322.87	4874.2	
323.08	3397.6	
323.29	2810.5	
323.5	5469.4	
323.7	4354.7	
323.91	3730	
324.12	3360	
324.33	4799.1	
324.53	4911.7	
324.74	3286.3	
324.95	3463.1	
325.16	4287.1	
325.37	4555.4	
325.57	2837.8	
325.78	2919	
325.99	4806.6	
326.2	4287.8	
326.4	3802.4	
326.61	2667.1	
326.82	4638	
327.03	4751.3	
327.24	3872.7	
327.44	3614.7	
327.65	4885.8	
327.86	4069.3	
328.07	3225.6	
328.27	2782.5	
328.48	5185.5	
328.69	4375.1	
328.9	3883.6	
329.1	2979.1	
329.31	4581.3	
329.52	5172.5	
329.73	2876.7	
329.93	3140.2	
330.14	4683.7	
330.35	4774.5	
330.56	4425.7	
330.76	3391.4	
330.97	4556.7	
331.18	4729.4	
331.39	3183.2	
331.59	2618	
331.8	5051.7	
332.01	5170.4	
332.22	2940.9	
332.42	3245.3	
332.63	4830.5	
332.84	4376.5	
333.05	3164.8	
333.25	2911.5	
333.46	4465.9	
333.67	4676.9	
333.88	2984.6	
334.08	3215.3	
334.29	5963	
334.5	5041.4	
334.7	2804.4	
334.91	3816	
335.12	4318.5	
335.33	4916.5	
335.53	3121.8	
335.74	4329.4	
335.95	4573.8	
336.16	4333.5	
336.36	3101.3	
336.57	3587.4	
336.78	4346.5	
336.98	5046.2	
337.19	3721.2	
337.4	3054.2	
337.61	5541.8	
337.81	4326.7	
338.02	2919.7	
338.23	3553.2	
338.43	5181.4	
338.64	4443.4	
338.85	2833.7	
339.05	3691.8	
339.26	5236.7	
339.47	4257.7	
339.68	2887.6	
339.88	4002.4	
340.09	4902.2	
340.3	4969.1	
340.5	3289	
340.71	2580.4	
340.92	4377.9	
341.13	5168.4	
341.33	2786.6	
341.54	3240.6	
341.75	4812	
341.95	4509.6	
342.16	3157.3	
342.37	3358	
342.57	4367	
342.78	4575.2	
342.99	3458.3	
343.19	2673.3	
343.4	4971.1	
343.61	4798.4	
343.81	3002.3	
344.02	2724.5	
344.23	4904.9	
344.43	5244.2	
344.64	3456.3	
344.85	3443.3	
345.06	4887.8	
345.26	5060.5	
345.47	3274.7	
345.68	3739.6	
345.88	4220.9	
346.09	5002.5	
346.3	3244.7	
346.5	2538.8	
346.71	4635.2	
346.92	4452.3	
347.12	2699.9	
347.33	3229	
347.54	5025.7	
347.74	5296	
347.95	3220.1	
348.16	2519	
348.36	4507.6	
348.57	4402.5	
348.78	3277.4	
348.98	3409.9	
349.19	4629.8	
349.39	4223.6	
349.6	2697.2	
349.81	2905.4	
350.01	4896	
350.22	4428.4	
350.43	3225.6	
350.63	3652.9	
350.84	4647.5	
351.05	4418.8	
351.25	2828.9	
351.46	2619.4	
351.67	4999.8	
351.87	4376.5	
352.08	3036.5	
352.29	3407.1	
352.49	4950.6	
352.7	4996.4	
352.9	2754.5	
353.11	3377.8	
353.32	5412.8	
353.52	4510.3	
353.73	2779.8	
353.94	3435.8	
354.14	4853	
354.35	4688.5	
354.55	2818	
354.76	3093.8	
354.97	4832.5	
355.17	4666	
355.38	2750.4	
355.59	3604.4	
355.79	4397.7	
356	4590.2	
356.2	3095.2	
356.41	2717.7	
356.62	4201.7	
356.82	4564.9	
357.03	3321.8	
357.24	3024.8	
357.44	4410	
357.65	4465.9	
357.85	3796.9	
358.06	3095.8	
358.27	4138.9	
358.47	4305.5	
358.68	2682.8	
358.88	3275.4	
359.09	4771.8	
359.3	5012.7	
359.5	3715	
359.71	3356.6	
359.91	5274.2	
360.12	4758.1	
360.33	3309.5	
360.53	3650.2	
360.74	4386.1	
360.94	4412.7	
361.15	3396.9	
361.36	2856.9	
361.56	4924.7	
361.77	4541.7	
361.97	3700	
362.18	2989.4	
362.38	4982.7	
362.59	4285.7	
362.8	2813.2	
363	2697.2	
363.21	4171	
363.41	4614.8	
363.62	3183.2	
363.83	3800.3	
364.03	4732.9	
364.24	5334.3	
364.44	3965.6	
364.65	3906.8	
364.85	4488.5	
365.06	4318.5	
365.27	2934.1	
365.47	2983.2	
365.68	5186.1	
365.88	4485.1	
366.09	3215.3	
366.29	2968.2	
366.5	4632.5	
366.71	4965	
366.91	3845.4	
367.12	3314.3	
367.32	5375.9	
367.53	4881.7	
367.73	3330	
367.94	3973.1	
368.14	4818.2	
368.35	5370.5	
368.56	3263.1	
368.76	2817.3	
368.97	4937.7	
369.17	5985.5	
369.38	2906.8	
369.58	3072	
369.79	4209.9	
369.99	5168.4	
370.2	3777.1	
370.4	3199.6	
370.61	4672.1	
370.82	5546.6	
371.02	3152.5	
371.23	2666.5	
371.43	4160.1	
371.64	5107.6	
371.84	3148.4	
372.05	3860.4	
372.25	5950.7	
372.46	4851	
372.66	3034.4	
372.87	3108.1	
373.07	4786.1	
373.28	6023.8	
373.48	3782.6	
373.69	3530	
373.9	4511	
374.1	4575.2	
374.31	3739.6	
374.51	3433.8	
374.72	5066	
374.92	4305.5	
375.13	3841.3	
375.33	3250.1	
375.54	4731.5	
375.74	4356.7	
375.95	3341.6	
376.15	4171.7	
376.36	4833.2	
376.56	4702.8	
376.77	3354.6	
376.97	3627.6	
377.18	5582.1	
377.38	4839.4	
377.59	3804.4	
377.79	2966.1	
378	4677.6	
378.2	4870.1	
378.41	3042.6	
378.61	3003.7	
378.82	5059.8	
379.02	4448.2	
379.23	3147	
379.43	3888.4	
379.64	5150	
379.84	4767.7	
380.05	2988	
380.25	2983.2	
380.46	4950.6	
380.66	4545.1	
380.87	3929.4	
381.07	4138.3	
381.28	5285.1	
381.48	4841.4	
381.69	3027.6	
381.89	3068.5	
382.1	4160.8	
382.3	4910.3	
382.51	3837.9	
382.71	4349.9	
382.91	4827.1	
383.12	5253	
383.32	3325.2	
383.53	3429.7	
383.73	4712.4	
383.94	4674.8	
384.14	3459	
384.35	2843.9	
384.55	4551.3	
384.76	4898.7	
384.96	3280.2	
385.17	3552.5	
385.37	4857.8	
385.58	4302.1	
385.78	3488.4	
385.98	2766.1	
386.19	4517.1	
386.39	4796.3	
386.6	3130.7	
386.8	3274.7	
387.01	4844.1	
387.21	4968.4	
387.42	3620.1	
387.62	3997.6	
387.83	4424.3	
388.03	4629.1	
388.23	3372.3	
388.44	3834.5	
388.64	4104.1	
388.85	4203.8	
389.05	3495.2	
389.26	3910.9	
389.46	5686.5	
389.67	5264.6	
389.87	3519.1	
390.07	3530.7	
390.28	4529.4	
390.48	4321.2	
390.69	2996.9	
390.89	3209.2	
391.1	4407.2	
391.3	5062.6	
391.5	3995.6	
391.71	4428.4	
391.91	4962.2	
392.12	5485.1	
392.32	4076.1	
392.53	3517.7	
392.73	4513	
392.93	4624.3	
393.14	3340.2	
393.34	3897.3	
393.55	4993.6	
393.75	4583.4	
393.95	3334.8	
394.16	3245.3	
394.36	4422.9	
394.57	4928.1	
394.77	2939.5	
394.98	3239.9	
395.18	4381.3	
395.38	4528.1	
395.59	3813.3	
395.79	3076	
396	4495.3	
396.2	4834.6	
396.4	3688.4	
396.61	3619.4	
396.81	4906.3	
397.02	4416.8	
397.22	3821.5	
397.42	3788.1	
397.63	4981.3	
397.83	4371.7	
398.04	3043.3	
398.24	3416	
398.44	4743.1	
398.65	4078.9	
398.85	2949.1	
399.05	2977.1	
399.26	4379.2	
399.46	5541.1	
399.67	3228.3	
399.87	3060.3	
400.07	4611.3	
400.28	4795	
400.48	3146.4	
400.69	3855	
400.89	4924.7	
401.09	5273.5	
401.3	3055.6	
401.5	3803.8	
401.7	5342.5	
401.91	5567.7	
402.11	3304.1	
402.32	3446	
402.52	5023.7	
402.72	4924	
402.93	3611.9	
403.13	2866.5	
403.33	5571.8	
403.54	4653	
403.74	3429.7	
403.94	4052.2	
404.15	4719.2	
404.35	5523.4	
404.56	3289	
404.76	4463.2	
404.96	4990.9	
405.17	4766.3	
405.37	4070.7	
405.57	3535.5	
405.78	4944.5	
405.98	4622.9	
406.18	3254.9	
406.39	3872.7	
406.59	5015.5	
406.79	4608.6	
407	3108.1	
407.2	3160.7	
407.4	5251	
407.61	5117.9	
407.81	3196.9	
408.01	4486.4	
408.22	4202.4	
408.42	5530.2	
408.62	3819.5	
408.83	3472	
409.03	4557.4	
409.23	4475.5	
409.44	3492.5	
409.64	3683.6	
409.84	5262.6	
410.05	5077.6	
410.25	3556	
410.45	3428.3	
410.66	4720.6	
410.86	6535.1	
411.06	3708.2	
411.27	3574.4	
411.47	6317.3	
411.67	4893.3	
411.88	3756	
412.08	3831.7	
412.28	5270.1	
412.49	5659.2	
412.69	3516.4	
412.89	3566.2	
413.09	5533.6	
413.3	5408	
413.5	3628.3	
413.7	3345	
413.91	4952	
414.11	5491.3	
414.31	3446.7	
414.52	3730	
414.72	5299.5	
414.92	5154.7	
415.12	3510.9	
415.33	3848.1	
415.53	5389.6	
415.73	5535.7	
415.94	4128	
416.14	3660.4	
416.34	4780.6	
416.55	4483.7	
416.75	4521.2	
416.95	4063.9	
417.15	5457.2	
417.36	5918.6	
417.56	4704.2	
417.76	3926.6	
417.97	5567.1	
418.17	5399.8	
418.37	3704.1	
418.57	3721.2	
418.78	5284.4	
418.98	5102.2	
419.18	4387.4	
419.38	4289.8	
419.59	5062.6	
419.79	4795.7	
419.99	3562.1	
420.2	3862.5	
420.4	5404.6	
420.6	5518.6	
420.8	3551.9	
421.01	3491.8	
421.21	5267.4	
421.41	5376.6	
421.61	3846.1	
421.82	3629.7	
422.02	5030.5	
422.22	5679	
422.42	4142.4	
422.63	3893.2	
422.83	5025	
423.03	5932.3	
423.23	4042.7	
423.44	3243.3	
423.64	5124	
423.84	4937	
424.04	3590.8	
424.25	3373.7	
424.45	5710.4	
424.65	5662.6	
424.85	3226.9	
425.06	3567.6	
425.26	5840.8	
425.46	5016.8	
425.66	3990.8	
425.87	3717.1	
426.07	5587.5	
426.27	5438	
426.47	3766.9	
426.67	3441.3	
426.88	5907.7	
427.08	5465.3	
427.28	3989.4	
427.48	3337.5	
427.69	4726.7	
427.89	5098.1	
428.09	3939.6	
428.29	3383.2	
428.5	5499.5	
428.7	5312.4	
428.9	3337.5	
429.1	3594.9	
429.3	5300.1	
429.51	5417.6	
429.71	3640.6	
429.91	4060.4	
430.11	5418.9	
430.31	5569.1	
430.52	3786.7	
430.72	3896.6	
430.92	5775.3	
431.12	5412.8	
431.32	3467.9	
431.53	3798.3	
431.73	4652.3	
431.93	5848.3	
432.13	3445.4	
432.33	3315.7	
432.54	5068	
432.74	5154.1	
432.94	3327.3	
433.14	4044.7	
433.34	5493.3	
433.55	5062.6	
433.75	3901.4	
433.95	5160.2	
434.15	5245.5	
434.35	4970.4	
434.56	3424.2	
434.76	3038.5	
434.96	5154.1	
435.16	5339.1	
435.36	3244.7	
435.56	4135.5	
435.77	4927.4	
435.97	5012.1	
436.17	4556	
436.37	4015.4	
436.57	4871.4	
436.78	4836.6	
436.98	4895.3	
437.18	4489.1	
437.38	5296	
437.58	4998.4	
437.78	4558.8	
437.99	3659.7	
438.19	5463.3	
438.39	5965.7	
438.59	3595.6	
438.79	3225.6	
438.99	5882.4	
439.2	5046.9	
439.4	3300	
439.6	3295.2	
439.8	5147.9	
440	5897.5	
440.2	3990.8	
440.4	4089.8	
440.61	5543.9	
440.81	5820.3	
441.01	3402.4	
441.21	3950.5	
441.41	5800.5	
441.61	5477	
441.81	4177.2	
442.02	4851.6	
442.22	6075	
442.42	5591	
442.62	3399.6	
442.82	3530.7	
443.02	5827.8	
443.22	5117.2	
443.43	3742.3	
443.63	3321.8	
443.83	4999.8	
444.03	4962.2	
444.23	4199.7	
444.43	3930.7	
444.63	5216.2	
444.83	6012.2	
445.04	3496.6	
445.24	4319.2	
445.44	5571.8	
445.64	5545.9	
445.84	4044.7	
446.04	4059.1	
446.24	5057.8	
446.44	5782.1	
446.65	3462.4	
446.85	3777.8	
447.05	5182	
447.25	5729.5	
447.45	3895.2	
447.65	3418.1	
447.85	5359.5	
448.05	5016.8	
448.25	4054.3	
448.46	4011.3	
448.66	5369.1	
448.86	5027.8	
449.06	3336.1	
449.26	4132.8	
449.46	5494	
449.66	4940.4	
449.86	3708.9	
450.06	3718.4	
450.26	4976.6	
450.47	5372.5	
450.67	3967.6	
450.87	4151.2	
451.07	5591	
451.27	5256.5	
451.47	3491.8	
451.67	4050.9	
451.87	5056.4	
452.07	5892.7	
452.27	3579.2	
452.47	3598.3	
452.67	5348.6	
452.88	5563	
453.08	3219.4	
453.28	4536.3	
453.48	6134.3	
453.68	5205.9	
453.88	3512.3	
454.08	3709.6	
454.28	5500.2	
454.48	5160.2	
454.68	4072	
454.88	4378.6	
455.08	5640.8	
455.28	5343.2	
455.48	3420.8	
455.68	3865.9	
455.89	5890.6	
456.09	5639.4	
456.29	3633.8	
456.49	3686.3	
456.69	5776.6	
456.89	5207.3	
457.09	3998.3	
457.29	4218.1	
457.49	5465.3	
457.69	5516.5	
457.89	3866.6	
458.09	3434.4	
458.29	5275.6	
458.49	5794.4	
458.69	4116.4	
458.89	3680.2	
459.09	5941.8	
459.29	6005.3	
459.49	3738.9	
459.69	4351.3	
459.9	5663.3	
460.1	5212.8	
460.3	3752.6	
460.5	3578.5	
460.7	5560.9	
460.9	5312.4	
461.1	3336.1	
461.3	4198.3	
461.5	6083.1	
461.7	5669.5	
461.9	3542.3	
462.1	3923.9	
462.3	5431.2	
462.5	5802.6	
462.7	3566.2	
462.9	3645.4	
463.1	6438.8	
463.3	6161	
463.5	3815.4	
463.7	4362.2	
463.9	5510.4	
464.1	5724.1	
464.3	3809.2	
464.5	4070.7	
464.7	5896.1	
464.9	5537	
465.1	4896	
465.3	4162.2	
465.5	6113.2	
465.7	6084.5	
465.9	4374.5	
466.1	4265.9	
466.3	5886.5	
466.5	5894.1	
466.7	4811.4	
466.9	4085.7	
467.1	5911.8	
467.3	6410.1	
467.5	4787.5	
467.7	3968.3	
467.9	6569.9	
468.1	7165.2	
468.3	4560.8	
468.5	4904.2	
468.7	5682.4	
468.9	5740.5	
469.1	4210.6	
469.3	4651.6	
469.5	7047.1	
469.7	5418.9	
469.9	4539.7	
470.1	4024.3	
470.3	5816.9	
470.5	5819.6	
470.7	4910.3	
470.9	4121.2	
471.1	5570.5	
471.3	5984.2	
471.5	3955.3	
471.69	5322.7	
471.89	5592.3	
472.09	5193	
472.29	4479.6	
472.49	4765.6	
472.69	5314.5	
472.89	5896.1	
473.09	3928	
473.29	4095.3	
473.49	5474.2	
473.69	5541.8	
473.89	4702.8	
474.09	4188.1	
474.29	6501.6	
474.49	6195.1	
474.69	4672.8	
474.89	4209.9	
475.09	5659.9	
475.29	5537	
475.49	3895.2	
475.69	4033.8	
475.88	6788.3	
476.08	5868.1	
476.28	3788.1	
476.48	4069.3	
476.68	6285.2	
476.88	5982.8	
477.08	4105.5	
477.28	4194.9	
477.48	5748	
477.68	6154.8	
477.88	3927.3	
478.08	4164.2	
478.28	6341.9	
478.48	5823.1	
478.67	4175.8	
478.87	3779.2	
479.07	6089.3	
479.27	5830.6	
479.47	4283.7	
479.67	4272.7	
479.87	6083.8	
480.07	6427.2	
480.27	3833.1	
480.47	4883.7	
480.67	5817.6	
480.87	6286.6	
481.06	4061.8	
481.26	4599.1	
481.46	5836	
481.66	5739.1	
481.86	4371.7	
482.06	4923.3	
482.26	5597.1	
482.46	6468.9	
482.66	4274.8	
482.86	3953.3	
483.05	5978	
483.25	5452.4	
483.45	6021	
483.65	4195.6	
483.85	5537	
484.05	5752.1	
484.25	4577.9	
484.45	4859.1	
484.65	6363	
484.84	6239.5	
485.04	4207.9	
485.24	4236.6	
485.44	6614.9	
485.64	5344.5	
485.84	3716.4	
486.04	4597.7	
486.24	5624.4	
486.44	5841.5	
486.63	3647.4	
486.83	4209.9	
487.03	5552	
487.23	5653.1	
487.43	3751.2	
487.63	5232.6	
487.83	5743.9	
488.02	6326.2	
488.22	4297.3	
488.42	4748.6	
488.62	6367.1	
488.82	5495.4	
489.02	4118.5	
489.22	4123.2	
489.41	6206	
489.61	6012.2	
489.81	3960.8	
490.01	3896.6	
490.21	6175.3	
490.41	6705.7	
490.61	4008.6	
490.8	4092.5	
491	5836.7	
491.2	5436.7	
491.4	4485.7	
491.6	3868.6	
491.8	5903.6	
491.99	5883.1	
492.19	3739.6	
492.39	3999	
492.59	6107.7	
492.79	6199.9	
492.99	4594.3	
493.18	3908.2	
493.38	6292.7	
493.58	6724.8	
493.78	4382	
493.98	4086.4	
494.18	6019	
494.37	5563.6	
494.57	4523.3	
494.77	4379.2	
494.97	6194.4	
495.17	6275.7	
495.37	4147.1	
495.56	4366.3	
495.76	6331	
495.96	6126.2	
496.16	5003.9	
496.36	4188.8	
496.55	6197.8	
496.75	5842.9	
496.95	4530.1	
497.15	4429.1	
497.35	6280.4	
497.54	6148	
497.74	4306.9	
497.94	5423.7	
498.14	6718.7	
498.34	6566.5	
498.53	3996.3	
498.73	4596.3	
498.93	5769.8	
499.13	6202.6	
499.33	4435.9	
499.52	4725.3	
499.72	6204	
499.92	6382.2	
500.12	4110.3	
500.32	4362.2	
500.51	6283.9	
500.71	6096.1	
500.91	4878.3	
501.11	4698	
501.31	6210.8	
501.5	6587.6	
501.7	5119.9	
501.9	4436.6	
502.1	6113.9	
502.29	6380.8	
502.49	4784.7	
502.69	5063.9	
502.89	6259.3	
503.09	6218.3	
503.28	4072.7	
503.48	4153.3	
503.68	5864	
503.88	5821.7	
504.07	4912.4	
504.27	4500.8	
504.47	6025.8	
504.67	6152.8	
504.86	4868.7	
505.06	4632.5	
505.26	5996.5	
505.46	7047.7	
505.65	4568.3	
505.85	4691.9	
506.05	5918.6	
506.25	6264.7	
506.44	4058.4	
506.64	4737	
506.84	5823.1	
507.04	6348	
507.23	4335.5	
507.43	4665.3	
507.63	7141.9	
507.83	5853.8	
508.02	4691.9	
508.22	4394.3	
508.42	7322.9	
508.62	5802.6	
508.81	4559.5	
509.01	4967	
509.21	5808.7	
509.4	5966.4	
509.6	4739.7	
509.8	4244.8	
510	5892	
510.19	6833.4	
510.39	4247.5	
510.59	4302.8	
510.79	5774.6	
510.98	6728.3	
511.18	4463.9	
511.38	4434.5	
511.57	6474.3	
511.77	6205.3	
511.97	4883	
512.17	4303.5	
512.36	6445.6	
512.56	6243.6	
512.76	4282.3	
512.95	4057.7	
513.15	6515.3	
513.35	5452.4	
513.55	4833.2	
513.74	4209.3	
513.94	6395.8	
514.14	5965.1	
514.33	4881.7	
514.53	4748.6	
514.73	6004.6	
514.92	6040.1	
515.12	4277.5	
515.32	4172.4	
515.51	6119.3	
515.71	6420.4	
515.91	5473.5	
516.11	4253.6	
516.3	7281.2	
516.5	5814.9	
516.7	4696	
516.89	5027.8	
517.09	5943.9	
517.29	5863.3	
517.48	4954.7	
517.68	4379.9	
517.88	5692.7	
518.07	6174.6	
518.27	4867.3	
518.47	4147.1	
518.66	6534.4	
518.86	5668.8	
519.06	4026.3	
519.25	4315.8	
519.45	5849.7	
519.65	6817	
519.84	4810.7	
520.04	5266	
520.24	7128.3	
520.43	6244.3	
520.63	4618.2	
520.83	4458.4	
521.02	5853.1	
521.22	6274.3	
521.42	4756.7	
521.61	5221.6	
521.81	5948	
522.01	6158.2	
522.2	4749.2	
522.4	4514.4	
522.6	6406.7	
522.79	5448.3	
522.99	4595.6	
523.18	4067.9	
523.38	6242.2	
523.58	6226.5	
523.77	5340.4	
523.97	3990.1	
524.17	7388.4	
524.36	6853.9	
524.56	4919.9	
524.76	4674.8	
524.95	6102.3	
525.15	5870.8	
525.34	4494.6	
525.54	4573.1	
525.74	6342.6	
525.93	5644.2	
526.13	5272.8	
526.33	4568.3	
526.52	6628.6	
526.72	6143.2	
526.91	5332.2	
527.11	4837.3	
527.31	6477.7	
527.5	6747.4	
527.7	4752	
527.89	4075.5	
528.09	5838.1	
528.29	6126.8	
528.48	5026.4	
528.68	4754	
528.87	6460	
529.07	6509.1	
529.27	4780	
529.46	4476.9	
529.66	6300.2	
529.85	6503.7	
530.05	4359.4	
530.25	4861.9	
530.44	7137.2	
530.64	6134.3	
530.83	4616.8	
531.03	4771.1	
531.23	6578.1	
531.42	6385.6	
531.62	5305.6	
531.81	4623.6	
532.01	6596.5	
532.21	6779.5	
532.4	4513.7	
532.6	4715.8	
532.79	7175.4	
532.99	6511.9	
533.18	4833.2	
533.38	5461.2	
533.58	6315.9	
533.77	6688	
533.97	4694.6	
534.16	5301.5	
534.36	6872.3	
534.55	6176	
534.75	5352	
534.95	4713.7	
535.14	6819.1	
535.34	6148	
535.53	4529.4	
535.73	5859.2	
535.92	7238.2	
536.12	6265.4	
536.31	4605.9	
536.51	5488.6	
536.71	6586.3	
536.9	6257.9	
537.1	4803.9	
537.29	4792.2	
537.49	6900.3	
537.68	6152.8	
537.88	5116.5	
538.07	4524.6	
538.27	6365.1	
538.46	7017.7	
538.66	4438.6	
538.86	4749.9	
539.05	6406	
539.25	6762.4	
539.44	4997.7	
539.64	4675.5	
539.83	6337.8	
540.03	7009.5	
540.22	4596.3	
540.42	4703.5	
540.61	6482.5	
540.81	6565.8	
541	5029.1	
541.2	5419.6	
541.39	6186.9	
541.59	6427.9	
541.78	5271.5	
541.98	4693.9	
542.18	5940.5	
542.37	5960.3	
542.57	4957.4	
542.76	5248.9	
542.96	6053.1	
543.15	6522.1	
543.35	4997	
543.54	4570.4	
543.74	6649.8	
543.93	6391.7	
544.13	4933.6	
544.32	5697.4	
544.52	6701	
544.71	6154.8	
544.91	4290.5	
545.1	5169.1	
545.3	6210.8	
545.49	6500.3	
545.69	4382.7	
545.88	4716.5	
546.08	7323.5	
546.27	6989.7	
546.47	5042.1	
546.66	4524	
546.86	6803.4	
547.05	7141.3	
547.24	4726	
547.44	4659.1	
547.63	6109.1	
547.83	6743.3	
548.02	4853	
548.22	5074.9	
548.41	5911.1	
548.61	6877.1	
548.8	4642.1	
549	4605.2	
549.19	6484.6	
549.39	6714.6	
549.58	4398.4	
549.78	4858.5	
549.97	6734.4	
550.17	6288.6	
550.36	5429.8	
550.55	6057.2	
550.75	6288.6	
550.94	6961.7	
551.14	4564.9	
551.33	4867.3	
551.53	5848.3	
551.72	6522.1	
551.92	4858.5	
552.11	4733.5	
552.31	6621.1	
552.5	6564.4	
552.69	5847	
552.89	4468	
553.08	6565.1	
553.28	6276.3	
553.47	4739.7	
553.67	5547.3	
553.86	7051.8	
554.06	5823.7	
554.25	4166.9	
554.44	4571.7	
554.64	7578.2	
554.83	7169.3	
555.03	4547.9	
555.22	4876.2	
555.42	6761	
555.61	6533.7	
555.8	4718.5	
556	4918.5	
556.19	5956.9	
556.39	6774.7	
556.58	4758.8	
556.78	4778.6	
556.97	6489.3	
557.16	6213.5	
557.36	5663.3	
557.55	4476.9	
557.75	5800.5	
557.94	7047.1	
558.13	4563.6	
558.33	4416.1	
558.52	6884.6	
558.72	5958.9	
558.91	4515.8	
559.1	4670.7	
559.3	5885.2	
559.49	5718.6	
559.69	4207.9	
559.88	4853	
560.07	6420.4	
560.27	6873	
560.46	5020.9	
560.66	5147.9	
560.85	6262	
561.04	5759.6	
561.24	4539.7	
561.43	4650.3	
561.63	5880.4	
561.82	6206	
562.01	5456.5	
562.21	4827.1	
562.4	6485.2	
562.59	7046.4	
562.79	4696	
562.98	4434.5	
563.18	6343.2	
563.37	7369.3	
563.56	5036	
563.76	4442	
563.95	6023.8	
564.14	6000.5	
564.34	4796.3	
564.53	4534.9	
564.73	6489.3	
564.92	6550.8	
565.11	4885.8	
565.31	4339.6	
565.5	6737.8	
565.69	5970.5	
565.89	4624.3	
566.08	4739	
566.27	6628.6	
566.47	6835.4	
566.66	5298.1	
566.85	4287.8	
567.05	6456.6	
567.24	6071.5	
567.44	4435.2	
567.63	5366.4	
567.82	6588.3	
568.02	6324.1	
568.21	4487.8	
568.4	4745.1	
568.6	6250.4	
568.79	6182.8	
568.98	4418.2	
569.18	4444.1	
569.37	6288.6	
569.56	7585	
569.76	4760.2	
569.95	5401.9	
570.14	6531.7	
570.34	6419	
570.53	4384.7	
570.72	4420.2	
570.91	6802.7	
571.11	6223.1	
571.3	4766.3	
571.49	5436.7	
571.69	6308.4	
571.88	5928.2	
572.07	5105.6	
572.27	5109.7	
572.46	5915.2	
572.65	6692.1	
572.85	4601.1	
573.04	4846.9	
573.23	6888	
573.43	6318	
573.62	4446.8	
573.81	4853.7	
574	6449.1	
574.2	6127.5	
574.39	4631.8	
574.58	4714.4	
574.78	6901	
574.97	6433.4	
575.16	5017.5	
575.36	5072.8	
575.55	6672.3	
575.74	6747.4	
575.93	4425	
576.13	5091.3	
576.32	6275	
576.51	6586.3	
576.71	4738.3	
576.9	5620.3	
577.09	6905.8	
577.28	6475.7	
577.48	5060.5	
577.67	4279.6	
577.86	6335.7	
578.05	6468.9	
578.25	4697.4	
578.44	4755.4	
578.63	6301.6	
578.83	7198.6	
579.02	4424.3	
579.21	5411.4	
579.4	6530.3	
579.6	6280.4	
579.79	4910.3	
579.98	6334.4	
580.17	6720.1	
580.37	6772.6	
580.56	4512.4	
580.75	5000.5	
580.94	6941.9	
581.14	7064.1	
581.33	5305.6	
581.52	4654.4	
581.71	6622.4	
581.91	7078.5	
582.1	4496.7	
582.29	4818.2	
582.48	6423.1	
582.68	6297.5	
582.87	5119.9	
583.06	4881.7	
583.25	6668.9	
583.45	6124.1	
583.64	5320.6	
583.83	5737	
584.02	6322.8	
584.21	6580.8	
584.41	5393.7	
584.6	4823.6	
584.79	6444.3	
584.98	6770.6	
585.18	4493.9	
585.37	4517.8	
585.56	6128.9	
585.75	6597.2	
585.94	4698.7	
586.14	5111	
586.33	7052.5	
586.52	6309.1	
586.71	5003.2	
586.91	4792.2	
587.1	5971.2	
587.29	6733	
587.48	4840	
587.67	4714.4	
587.87	6625.2	
588.06	6564.4	
588.25	5617.6	
588.44	5140.4	
588.63	6371.9	
588.83	6840.9	
589.02	4925.4	
589.21	4706.9	
589.4	6366.5	
589.59	6238.1	
589.78	4289.8	
589.98	4551.3	
590.17	5982.8	
590.36	6262	
590.55	4080.2	
590.74	4724.7	
590.94	7251.2	
591.13	6318.7	
591.32	4519.9	
591.51	4212.7	
591.7	6612.2	
591.89	6227.9	
592.09	4226.3	
592.28	4564.2	
592.47	5694.7	
592.66	7075.7	
592.85	4285	
593.05	4442	
593.24	6217	
593.43	6722.1	
593.62	4513.7	
593.81	4772.4	
594	6281.1	
594.19	6281.8	
594.39	4429.1	
594.58	4388.1	
594.77	6438.8	
594.96	6802	
595.15	4425.7	
595.34	4747.9	
595.54	6386.9	
595.73	5744.6	
595.92	3928.7	
596.11	4728.1	
596.3	6763.1	
596.49	5870.8	
596.68	4590.2	
596.88	4900.1	
597.07	6558.3	
597.26	5803.3	
597.45	4248.2	
597.64	5026.4	
597.83	5906.3	
598.02	6347.3	
598.22	4307.6	
598.41	4779.3	
598.6	6268.8	
598.79	5876.3	
598.98	4337.6	
599.17	4965	
599.36	6266.8	
599.55	6998.6	
599.74	5698.8	
599.94	5511.1	
600.13	6633.4	
600.32	5799.2	
600.51	4141.7	
600.7	4250.9	
600.89	7047.1	
601.08	7049.1	
601.27	4119.1	
601.47	4670.1	
601.66	6547.4	
601.85	6878.4	
602.04	4606.6	
602.23	4730.8	
602.42	5893.4	
602.61	6260	
602.8	4514.4	
602.99	4379.2	
603.18	6126.8	
603.37	6242.2	
603.57	4784.1	
603.76	5222.3	
603.95	6819.1	
604.14	6399.9	
604.33	4463.2	
604.52	4602.5	
604.71	6240.2	
604.9	5907	
605.09	5062.6	
605.28	4867.3	
605.47	6749.4	
605.66	6391	
605.86	4783.4	
606.05	4385.4	
606.24	6750.8	
606.43	5685.2	
606.62	4597	
606.81	5156.1	
607	6627.2	
607.19	6119.3	
607.38	4248.9	
607.57	4434.5	
607.76	5919.3	
607.95	5504.3	
608.14	4795	
608.33	5098.8	
608.52	5904.3	
608.72	6499.6	
608.91	4170.3	
609.1	4164.9	
609.29	6105.7	
609.48	5705.6	
609.67	4762.9	
609.86	4203.8	
610.05	5842.9	
610.24	5937.1	
610.43	4089.8	
610.62	3834.5	
610.81	6835.4	
611	6594.5	
611.19	4250.2	
611.38	4724	
611.57	6161.7	
611.76	7019.1	
611.95	4026.3	
612.14	3988.8	
612.33	6053.8	
612.52	5768.4	
612.71	4453	
612.9	3917.1	
613.09	5439.4	
613.28	7109.2	
613.47	4372.4	
613.66	4919.9	
613.85	6171.2	
614.04	5770.5	
614.24	4306.2	
614.43	3787.4	
614.62	6223.1	
614.81	6170.5	
615	4718.5	
615.19	4691.9	
615.38	5730.9	
615.57	6018.3	
615.76	4603.8	
615.95	5265.3	
616.14	6337.1	
616.33	6030.6	
616.52	4816.1	
616.71	4941.1	
616.9	6190.3	
617.09	6060.6	
617.28	4366.3	
617.47	5189.6	
617.66	5627.8	
617.85	5613.5	
618.04	4909.7	
618.22	4600.4	
618.41	5896.1	
618.6	6513.9	
618.79	4483	
618.98	4281.6	
619.17	6597.9	
619.36	5431.9	
619.55	4361.5	
619.74	4516.5	
619.93	6227.2	
620.12	5729.5	
620.31	4788.2	
620.5	4884.4	
620.69	6777.4	
620.88	6804.7	
621.07	5368.4	
621.26	4768.4	
621.45	6359.6	
621.64	6245.6	
621.83	4839.4	
622.02	4229.7	
622.21	6352.8	
622.4	6112.5	
622.59	5159.5	
622.78	5024.3	
622.97	5907	
623.16	6528.2	
623.35	4773.8	
623.54	4181.3	
623.72	5935.7	
623.91	6045.6	
624.1	4905.6	
624.29	4016.1	
624.48	6797.9	
624.67	6378.1	
624.86	4894	
625.05	4229.7	
625.24	6901.7	
625.43	5905	
625.62	5969.1	
625.81	4386.1	
626	6509.8	
626.19	6027.9	
626.38	4927.4	
626.56	4520.5	
626.75	5878.4	
626.94	6442.9	
627.13	4997	
627.32	4043.4	
627.51	6393.1	
627.7	7168.6	
627.89	4140.3	
628.08	4928.8	
628.27	5788.2	
628.46	6007.4	
628.65	4440	
628.83	4102.8	
629.02	6386.9	
629.21	5807.4	
629.4	4686.4	
629.59	4803.9	
629.78	5754.8	
629.97	6479.8	
630.16	4755.4	
630.35	4410.6	
630.54	6834.8	
630.72	6615.6	
630.91	4454.3	
631.1	4834.6	
631.29	6305	
631.48	6274.3	
631.67	4884.4	
631.86	4444.8	
632.05	6068.8	
632.24	6008.1	
632.42	4309.6	
632.61	4706.9	
632.8	6130.9	
632.99	5814.2	
633.18	4711.7	
633.37	5013.4	
633.56	6255.2	
633.75	6173.9	
633.93	4805.9	
634.12	4556.7	
634.31	6871.6	
634.5	6442.2	
634.69	4566.3	
634.88	4914.4	
635.07	6059.9	
635.25	6516	
635.44	5129.5	
635.63	5229.1	
635.82	6027.2	
636.01	5509.7	
636.2	5126.7	
636.39	4797	
636.57	6858	
636.76	6478.4	
636.95	4455	
637.14	5390.3	
637.33	6315.9	
637.52	6836.8	
637.7	4254.3	
637.89	5022.3	
638.08	5996.5	
638.27	7088.7	
638.46	4990.9	
638.65	5261.9	
638.83	7055.9	
639.02	5904.3	
639.21	4911.7	
639.4	5209.3	
639.59	6208.8	
639.78	5978.7	
639.96	4379.2	
640.15	4479.6	
640.34	6150.7	
640.53	6262	
640.72	4334.9	
640.91	4499.4	
641.09	5774.6	
641.28	6683.2	
641.47	4527.4	
641.66	5068	
641.85	6218.3	
642.03	6419.7	
642.22	4815.5	
642.41	4592.9	
642.6	5803.3	
642.79	5458.5	
642.97	4471.4	
643.16	4888.5	
643.35	5739.8	
643.54	5717.9	
643.73	4361.5	
643.91	4887.8	
644.1	5672.9	
644.29	6093.4	
644.48	4403.1	
644.67	4465.3	
644.85	5718.6	
645.04	6084.5	
645.23	4211.3	
645.42	4478.2	
645.6	5734.3	
645.79	6551.5	
645.98	4414.1	
646.17	3706.1	
646.36	5618.9	
646.54	5984.8	
646.73	4990.2	
646.92	4171	
647.11	5758.2	
647.29	6405.4	
647.48	4158.7	
647.67	4037.2	
647.86	6655.9	
648.05	6598.6	
648.23	4407.2	
648.42	5339.7	
648.61	6182.8	
648.8	6005.3	
648.98	4186.7	
649.17	4386.7	
649.36	5705.6	
649.55	5416.2	
649.73	4216.1	
649.92	4714.4	
650.11	5586.9	
650.3	5847.6	
650.48	4291.2	
650.67	4144.4	
650.86	6093.4	
651.05	5350.7	
651.23	4259.8	
651.42	4235.2	
651.61	5710.4	
651.79	5696.1	
651.98	4444.1	
652.17	4134.8	
652.36	5999.9	
652.54	5324.7	
652.73	4235.9	
652.92	4130.1	
653.11	6008.1	
653.29	6111.8	
653.48	3704.8	
653.67	4418.8	
653.85	5856.5	
654.04	6604.7	
654.23	4546.5	
654.42	4261.1	
654.6	5523.4	
654.79	5962.3	
654.98	3936.2	
655.16	4340.3	
655.35	5341.8	
655.54	5177.3	
655.73	3965.6	
655.91	3884.3	
656.1	5948.7	
656.29	5188.9	
656.47	3583.3	
656.66	4806.6	
656.85	5414.1	
657.03	5364.3	
657.22	4059.8	
657.41	4016.1	
657.59	5494	
657.78	5384.1	
657.97	3741	
658.16	4237.9	
658.34	6014.9	
658.53	6184.2	
658.72	4840.7	
658.9	5233.9	
659.09	5692	
659.28	5629.2	
659.46	4119.8	
659.65	3997	
659.84	5419.6	
660.02	5869.5	
660.21	4064.5	
660.4	3979.2	
660.58	6098.9	
660.77	5656.5	
660.96	4347.8	
661.14	3681.6	
661.33	6447.7	
661.52	6335.1	
661.7	3674.7	
661.89	6067.4	
662.08	5409.4	
662.26	4978.6	
662.45	3970.3	
662.64	3986.7	
662.82	5856.5	
663.01	5261.9	
663.2	4022.2	
663.38	4485.7	
663.57	5856.5	
663.75	5682.4	
663.94	4208.6	
664.13	5109	
664.31	5441.5	
664.5	5824.4	
664.69	4548.5	
664.87	4767	
665.06	5203.2	
665.25	5651	
665.43	4955.4	
665.62	4898.1	
665.8	5834	
665.99	5458.5	
666.18	4253.6	
666.36	4218.1	
666.55	5879	
666.74	5861.3	
666.92	3993.5	
667.11	5056.4	
667.29	5528.2	
667.48	5860.6	
667.67	4840	
667.85	4159.4	
668.04	5507	
668.22	5401.2	
668.41	4261.1	
668.6	4485.1	
668.78	5286.5	
668.97	5484.5	
669.15	4499.4	
669.34	3771	
669.53	5314.5	
669.71	5530.2	
669.9	3926.6	
670.08	4276.8	
670.27	5336.3	
670.46	5735.7	
670.64	4535.6	
670.83	4681.7	
671.01	5214.1	
671.2	5646.9	
671.38	4001.7	
671.57	3900.7	
671.76	6097.5	
671.94	6515.3	
672.13	3814	
672.31	4561.5	
672.5	5936.4	
672.69	5362.9	
672.87	3938.9	
673.06	4174.4	
673.24	5663.3	
673.43	5401.9	
673.61	4427.7	
673.8	4195.6	
673.98	5812.8	
674.17	5935.7	
674.36	4585.4	
674.54	4549.9	
674.73	5558.2	
674.91	5860.6	
675.1	4248.9	
675.28	3986	
675.47	5474.2	
675.65	5876.3	
675.84	4214.7	
676.03	4381.3	
676.21	5461.2	
676.4	4970.4	
676.58	4706.2	
676.77	4560.8	
676.95	6414.2	
677.14	5343.8	
677.32	3998.3	
677.51	3817.4	
677.69	5944.6	
677.88	5167.7	
678.06	3874.8	
678.25	4029	
678.44	5537.7	
678.62	5325.4	
678.81	3784	
678.99	4360.8	
679.18	6078.4	
679.36	5805.3	
679.55	4194.9	
679.73	4567	
679.92	5732.9	
680.1	5371.8	
680.29	5004.6	
680.47	4089.1	
680.66	5384.8	
680.84	5923.4	
681.03	3737.5	
681.21	4573.8	
681.4	5343.2	
681.58	5340.4	
681.77	4048.2	
681.95	3990.1	
682.14	5980.8	
682.32	6112.5	
682.51	4595.6	
682.69	3816	
682.88	5392.3	
683.06	5692	
683.25	4433.9	
683.43	4711.7	
683.62	5588.2	
683.8	5812.8	
683.99	4820.2	
684.17	4321.9	
684.36	6393.8	
684.54	5548.6	
684.73	3819.5	
684.91	3930.1	
685.1	5732.3	
685.28	5255.8	
685.46	4357.4	
685.65	4373.8	
685.83	5900.2	
686.02	5475.6	
686.2	4007.2	
686.39	4084.3	
686.57	5204.6	
686.76	6262.7	
686.94	4019.5	
687.13	4137.6	
687.31	5763.7	
687.5	5453.1	
687.68	3730	
687.86	4481.6	
688.05	6648.4	
688.23	5087.8	
688.42	4558.8	
688.6	4041.3	
688.79	5356.1	
688.97	5398.4	
689.16	4310.3	
689.34	3529.3	
689.52	5802.6	
689.71	5994.4	
689.89	4420.2	
690.08	4016.7	
690.26	5613.5	
690.45	5355.4	
690.63	4674.8	
690.81	4094.6	
691	5567.7	
691.18	5330.9	
691.37	4258.4	
691.55	5751.4	
691.74	5293.3	
691.92	6657.9	
692.1	4233.2	
692.29	3806.5	
692.47	5441.5	
692.66	5015.5	
692.84	4015.4	
693.02	4295.3	
693.21	5079	
693.39	5397.8	
693.58	4382.7	
693.76	3996.3	
693.94	6199.9	
694.13	6090	
694.31	4034.5	
694.5	4740.4	
694.68	5255.1	
694.86	5508.4	
695.05	4217.5	
695.23	4285	
695.42	5789.6	
695.6	7281.2	
695.78	4645.5	
695.97	3981.9	
696.15	5815.5	
696.34	5406	
696.52	3915.7	
696.7	4459.8	
696.89	5658.5	
697.07	5177.9	
697.25	4418.2	
697.44	5375.9	
697.62	5666.7	
697.81	5748	
697.99	4164.9	
698.17	4529.4	
698.36	5315.2	
698.54	5676.3	
698.72	4446.8	
698.91	3751.2	
699.09	5374.6	
699.28	5233.9	
699.46	4158.7	
699.64	4026.3	
699.83	5236	
700.01	5954.1	
700.19	4691.9	
700.38	3501.3	
700.56	5960.3	
700.74	5308.3	
700.93	3804.4	
701.11	4397	
701.29	5652.4	
701.48	6447.7	
701.66	3945.8	
701.84	4048.2	
702.03	5390.3	
702.21	5872.2	
702.39	3668.6	
702.58	4149.2	
702.76	5738.4	
702.94	5718.6	
703.13	3653.6	
703.31	5360.9	
703.49	5196.4	
703.68	5840.8	
703.86	3829.7	
704.04	4472.8	
704.23	5570.5	
704.41	5777.3	
704.59	3981.3	
704.78	4750.6	
704.96	6711.2	
705.14	5713.2	
705.33	3746.4	
705.51	4355.3	
705.69	5369.1	
705.87	6031.3	
706.06	4517.1	
706.24	3736.9	
706.42	5552.7	
706.61	5783.5	
706.79	4558.8	
706.97	3685	
707.16	5193.6	
707.34	5650.3	
707.52	4487.8	
707.7	3838.6	
707.89	5174.5	
708.07	5006.6	
708.25	4500.8	
708.44	4831.8	
708.62	5275.6	
708.8	6030.6	
708.98	4681.7	
709.17	3981.3	
709.35	5558.9	
709.53	5515.9	
709.72	3741	
709.9	3878.2	
710.08	5735.7	
710.26	5776	
710.45	4905.6	
710.63	3981.3	
710.81	5418.2	
710.99	5519.3	
711.18	4431.8	
711.36	4111.6	
711.54	5347.2	
711.72	5909.1	
711.91	4205.8	
712.09	3867.2	
712.27	5528.8	
712.45	5882.4	
712.64	4312.3	
712.82	3665.2	
713	5175.2	
713.18	5296	
713.37	3674.1	
713.55	4614.8	
713.73	5878.4	
713.91	4969.1	
714.1	3980.6	
714.28	3718.4	
714.46	5708.4	
714.64	5204.6	
714.83	3360.7	
715.01	3960.1	
715.19	5293.3	
715.37	4790.2	
715.55	3749.8	
715.74	3973.1	
715.92	5878.4	
716.1	4422.9	
716.28	4680.3	
716.47	4012.7	
716.65	5051.7	
716.83	5055.8	
717.01	3953.9	
717.19	3960.1	
717.38	6432.7	
717.56	4810	
717.74	4123.2	
717.92	3444.7	
718.1	5673.6	
718.29	5076.9	
718.47	3197.6	
718.65	3698.6	
718.83	5595.7	
719.01	5408.7	
719.2	3112.9	
719.38	3873.4	
719.56	5255.8	
719.74	6348	
719.92	3608.5	
720.11	4336.2	
720.29	5303.6	
720.47	4775.9	
720.65	3305.4	
720.83	3923.9	
721.02	5079	
721.2	4905.6	
721.38	3988.8	
721.56	3435.1	
721.74	4460.5	
721.92	4618.9	
722.11	4314.4	
722.29	4102.1	
722.47	5488.6	
722.65	4919.2	
722.83	3448.1	
723.01	4140.3	
723.2	4984.8	
723.38	5192.3	
723.56	3081.5	
723.74	3859.7	
723.92	4610	
724.1	5386.8	
724.29	3426.9	
724.47	4260.5	
724.65	4818.9	
724.83	4540.3	
725.01	3338.2	
725.19	3941.7	
725.37	4669.4	
725.56	4700.1	
725.74	3241.9	
725.92	3448.1	
726.1	4627.7	
726.28	4834.6	
726.46	3701.4	
726.64	3520.5	
726.83	4888.5	
727.01	5033.2	
727.19	3248.1	
727.37	3758.7	
727.55	4990.2	
727.73	5334.3	
727.91	3221.5	
728.09	3123.8	
728.28	5298.1	
728.46	5417.6	
728.64	3860.4	
728.82	3831.7	
729	6009.4	
729.18	5553.4	
729.36	3198.9	
729.54	4894	
729.72	6118	
729.91	4954.7	
730.09	4596.3	
730.27	3697.3	
730.45	4933.6	
730.63	5337	
730.81	4063.2	
730.99	3425.6	
731.17	5707.7	
731.35	4721.9	
731.53	3786.7	
731.71	3547.1	
731.9	5551.4	
732.08	5548.6	
732.26	3769.6	
732.44	3452.9	
732.62	5591	
732.8	5274.2	
732.98	4065.2	
733.16	3387.3	
733.34	5324.7	
733.52	4424.3	
733.7	3673.4	
733.88	3891.8	
734.07	5173.9	
734.25	5052.3	
734.43	3375.7	
734.61	4453	
734.79	6083.8	
734.97	4973.2	
735.15	3397.6	
735.33	3667.9	
735.51	5197.1	
735.69	4933.6	
735.87	4430.4	
736.05	3774.4	
736.23	5107.6	
736.41	4857.1	
736.59	3668.6	
736.77	3704.8	
736.95	5401.9	
737.13	4963.6	
737.32	3452.2	
737.5	3605.8	
737.68	5856.5	
737.86	4903.5	
738.04	3370.3	
738.22	4571.7	
738.4	4810.7	
738.58	5060.5	
738.76	3749.8	
738.94	3069.9	
739.12	4869.4	
739.3	4800.4	
739.48	4188.1	
739.66	3949.8	
739.84	5034.6	
740.02	5007.3	
740.2	3110.9	
740.38	3306.1	
740.56	5281.7	
740.74	4372.4	
740.92	3891.8	
741.1	3745.7	
741.28	4942.4	
741.46	4788.2	
741.64	3583.3	
741.82	3913.7	
742	4999.1	
742.18	4879.6	
742.36	3694.5	
742.54	3393.5	
742.72	5457.2	
742.9	4444.8	
743.08	3921.2	
743.26	3080.8	
743.44	5439.4	
743.62	5275.6	
743.8	4062.5	
743.98	3353.2	
744.16	5137.7	
744.34	4889.2	
744.52	3930.1	
744.7	3909.6	
744.88	5235.3	
745.06	4904.2	
745.24	3983.3	
745.42	4046.1	
745.6	5395.7	
745.78	5247.6	
745.96	3233.1	
746.14	3414	
746.32	5935.7	
746.5	5312.4	
746.68	3863.8	
746.86	3399.6	
747.03	5644.2	
747.21	4496	
747.39	3831.1	
747.57	3439.2	
747.75	5014.8	
747.93	5285.1	
748.11	3417.4	
748.29	3356.6	
748.47	6222.4	
748.65	4855.7	
748.83	3958	
749.01	3719.1	
749.19	5212.1	
749.37	4554	
749.55	3714.3	
749.73	3710.2	
749.91	5053	
750.09	4847.5	
750.26	3804.4	
750.44	3307.5	
750.62	5008	
750.8	4937	
750.98	3254.2	
751.16	3414.6	
751.34	5091.9	
751.52	4561.5	
751.7	4055	
751.88	3181.9	
752.06	5414.8	
752.24	5228.5	
752.42	3162.7	
752.59	3486.3	
752.77	4900.8	
752.95	5876.3	
753.13	3958	
753.31	3521.1	
753.49	4760.2	
753.67	5052.3	
753.85	3736.2	
754.03	3428.3	
754.21	5373.2	
754.38	5537	
754.56	3626.3	
754.74	3008.5	
754.92	4817.5	
755.1	5228.5	
755.28	2985.3	
755.46	3028.3	
755.64	5887.2	
755.82	6015.6	
755.99	3313.6	
756.17	3394.2	
756.35	4250.2	
756.53	5298.8	
756.71	2604.3	
756.89	3310.9	
757.07	4999.8	
757.25	4382	
757.42	3676.1	
757.6	4176.5	
757.78	5111	
757.96	4388.8	
758.14	3362.8	
758.32	3028.3	
758.5	4015.4	
758.67	4643.4	
758.85	3246	
759.03	3302.7	
759.21	4821.6	
759.39	4354	
759.57	2965.5	
759.75	3777.1	
759.92	5273.5	
760.1	4769.7	
760.28	3964.2	
760.46	4202.4	
760.64	4569	
760.82	4389.5	
760.99	3906.2	
761.17	3293.8	
761.35	5115.1	
761.53	4401.1	
761.71	3439.9	
761.89	3907.5	
762.06	5010.7	
762.24	4693.9	
762.42	3489.1	
762.6	3212.6	
762.78	4612.7	
762.96	5089.9	
763.13	3710.2	
763.31	3437.9	
763.49	5148.6	
763.67	4588.1	
763.85	3981.3	
764.02	4439.3	
764.2	5412.1	
764.38	4749.2	
764.56	3395.5	
764.74	3999	
764.91	5414.1	
765.09	4696	
765.27	3091.1	
765.45	3026.2	
765.63	5555.5	
765.8	5330.2	
765.98	2866.5	
766.16	3043.3	
766.34	4400.4	
766.52	4119.1	
766.69	3758.7	
766.87	2934.1	
767.05	4737.6	
767.23	5221.6	
767.41	3234.4	
767.58	3343.7	
767.76	5112.4	
767.94	5182.7	
768.12	3244.7	
768.29	3727.3	
768.47	4678.2	
768.65	5251	
768.83	2968.9	
769	3809.2	
769.18	4431.8	
769.36	5003.2	
769.54	3808.5	
769.72	3061.7	
769.89	5185.5	
770.07	5195	
770.25	3263.1	
770.43	4188.1	
770.6	5758.9	
770.78	5995.8	
770.96	3446.7	
771.14	3307.5	
771.31	5102.2	
771.49	4658.4	
771.67	2861	
771.85	2999.6	
772.02	4133.5	
772.2	4624.3	
772.38	3596.9	
772.55	3150.5	
772.73	4893.3	
772.91	4716.5	
773.09	3448.8	
773.26	3493.8	
773.44	4866	
773.62	4670.7	
773.8	3167.5	
773.97	2953.2	
774.15	4868	
774.33	4642.1	
774.5	3032.4	
774.68	3317.7	
774.86	4976.6	
775.04	4659.8	
775.21	3078.8	
775.39	3083.6	
775.57	4823	
775.74	5038.7	
775.92	2990	
776.1	2887	
776.27	4810	
776.45	5685.8	
776.63	3060.3	
776.81	2831	
776.98	4610.7	
777.16	5296	
777.34	3188.7	
777.51	3383.2	
777.69	4605.2	
777.87	4410.6	
778.04	3259	
778.22	3639.2	
778.4	4453	
778.57	4889.9	
778.75	2770.2	
778.93	2951.1	
779.1	4321.9	
779.28	4236.6	
779.46	2770.9	
779.64	3039.9	
779.81	5030.5	
779.99	5669.5	
780.17	3654.3	
780.34	3722.5	
780.52	4645.5	
780.69	4782.7	
780.87	3388.7	
781.05	2991.4	
781.22	4713.7	
781.4	4797.7	
781.58	3117	
781.75	2525.8	
781.93	4723.3	
782.11	4269.3	
782.28	3769.6	
782.46	3115.6	
782.64	4203.8	
782.81	4795.7	
782.99	3223.5	
783.17	3152.5	
783.34	4760.2	
783.52	4265.2	
783.69	3311.6	
783.87	3901.4	
784.05	4445.5	
784.22	4295.3	
784.4	3846.8	
784.58	3366.2	
784.75	5022.3	
784.93	4385.4	
785.1	3173	
785.28	3556.6	
785.46	4861.9	
785.63	4258.4	
785.81	3117.7	
785.99	3048.7	
786.16	4491.9	
786.34	4736.3	
786.51	3052.2	
786.69	3423.5	
786.87	4155.3	
787.04	4433.9	
787.22	2971.6	
787.39	3631	
787.57	4329.4	
787.75	5080.3	
787.92	3763.5	
788.1	3709.6	
788.27	4343.7	
788.45	4135.5	
788.63	3490.4	
788.8	2650.8	
788.98	4751.3	
789.15	4024.3	
789.33	2719	
789.5	3164.1	
789.68	4980.7	
789.86	4982	
790.03	3484.3	
790.21	3028.9	
790.38	5031.9	
790.56	4461.8	
790.73	2999.6	
790.91	2984.6	
791.09	4337.6	
791.26	4838	
791.44	3238.5	
791.61	2804.4	
791.79	4336.2	
791.96	4328.7	
792.14	2844.6	
792.32	2536.1	
792.49	4341	
792.67	4420.9	
792.84	2962.7	
793.02	2775.7	
793.19	4665.3	
793.37	5137	
793.54	2582.5	
793.72	2834.4	
793.89	5193	
794.07	4323.3	
794.25	3178.4	
794.42	2607.1	
794.6	5069.4	
794.77	4765.6	
794.95	3448.1	
795.12	3024.2	
795.3	4373.1	
795.47	4743.8	
795.65	3291.1	
795.82	3217.4	
796	4209.9	
796.17	5504.3	
796.35	3089.7	
796.52	3583.9	
796.7	4715.8	
796.87	4786.1	
797.05	3097.2	
797.22	3720.5	
797.4	4792.2	
797.57	5479	
797.75	3220.8	
797.92	3013.2	
798.1	5036	
798.27	4245.4	
798.45	2673.3	
798.62	2854.2	
798.8	4547.2	
798.97	4925.4	
799.15	3392.8	
799.32	3267.2	
799.5	4008.6	
799.67	4541	
799.85	3500	
800.02	2594.1	
800.2	4313	
800.37	4524	
800.55	3628.3	
800.72	3077.4	
800.9	4950.6	
801.07	5142.4	
801.25	3994.9	
801.42	3319.1	
801.6	4900.1	
801.77	4596.3	
801.95	3148.4	
802.12	3008.5	
802.29	4762.9	
802.47	4638.6	
802.64	3339.6	
802.82	2598.2	
802.99	4355.3	
803.17	4995.7	
803.34	3257.6	
803.52	2966.1	
803.69	5497.4	
803.87	4172.4	
804.04	3164.8	
804.21	3288.4	
804.39	5109.7	
804.56	4473.4	
804.74	2836.4	
804.91	3325.2	
805.09	4369.7	
805.26	4425	
805.44	2850.8	
805.61	3072.6	
805.78	4853	
805.96	4796.3	
806.13	3291.1	
806.31	3536.2	
806.48	4026.3	
806.66	4397	
806.83	3348.4	
807	3181.9	
807.18	4371	
807.35	4599.1	
807.53	3203.7	
807.7	2669.2	
807.87	5131.5	
808.05	4375.8	
808.22	3553.9	
808.4	2644.6	
808.57	4304.1	
808.74	4074.8	
808.92	3020.1	
809.09	3678.8	
809.27	4343.7	
809.44	4693.3	
809.61	2657.6	
809.79	2881.5	
809.96	5289.2	
810.14	4789.5	
810.31	2624.1	
810.48	3194.8	
810.66	4367	
810.83	4885.1	
811.01	2997.5	
811.18	3297.9	
811.35	4965	
811.53	3894.6	
811.7	3536.8	
811.87	3321.1	
812.05	4455	
812.22	4341.7	
812.39	2947	
812.57	2861.7	
812.74	4363.5	
812.92	5524.1	
813.09	3185.3	
813.26	3386.7	
813.44	5300.8	
813.61	4283.7	
813.78	2678.7	
813.96	3394.8	
814.13	4412.7	
814.3	4171	
814.48	3700.7	
814.65	3156.6	
814.82	5171.1	
815	4153.3	
815.17	3160.7	
815.34	3794.2	
815.52	4355.3	
815.69	4317.8	
815.87	3146.4	
816.04	3097.9	
816.21	4316.4	
816.38	3982.6	
816.56	3121.1	
816.73	2928.6	
816.9	5400.5	
817.08	4886.5	
817.25	2932.7	
817.42	3546.4	
817.6	4049.5	
817.77	4341.7	
817.94	3246.7	
818.12	2869.2	
818.29	4203.1	
818.46	5945.9	
818.64	3091.8	
818.81	2848	
818.98	4174.4	
819.16	5662	
819.33	3410.6	
819.5	3241.9	
819.67	4624.3	
819.85	5148.6	
820.02	3181.9	
820.19	3347.7	
820.37	4568.3	
820.54	4291.9	
820.71	3243.3	
820.88	3993.5	
821.06	4463.2	
821.23	4215.4	
821.4	3305.4	
821.58	3239.2	
821.75	4839.4	
821.92	4521.2	
822.09	2701.3	
822.27	2746.3	
822.44	4397.7	
822.61	4263.2	
822.79	2691	
822.96	4887.8	
823.13	4599.7	
823.3	4123.2	
823.48	3057.6	
823.65	2800.9	
823.82	4874.8	
823.99	4059.1	
824.17	3837.9	
824.34	2882.9	
824.51	5520	
824.68	4382	
824.86	2947.7	
825.03	3276.8	
825.2	4379.2	
825.37	5111	
825.55	2918.4	
825.72	3233.1	
825.89	5435.3	
826.06	5212.8	
826.24	3150.5	
826.41	3148.4	
826.58	5182.7	
826.75	4548.5	
826.92	2569.5	
827.1	2798.9	
827.27	6734.4	
827.44	5504.9	
827.61	3028.9	
827.79	3549.8	
827.96	4246.1	
828.13	4365.6	
828.3	3101.3	
828.47	2658.9	
828.65	4658.4	
828.82	4584	
828.99	3914.4	
829.16	3404.4	
829.34	4911	
829.51	4719.2	
829.68	3240.6	
829.85	3228.3	
830.02	5193.6	
830.2	4913.8	
830.37	2535.4	
830.54	3771	
830.71	5454.4	
830.88	4418.2	
831.05	2545.6	
831.23	2910.2	
831.4	5283.1	
831.57	5725.4	
831.74	2969.6	
831.91	2679.4	
832.09	4737	
832.26	4864.6	
832.43	3079.5	
832.6	3413.3	
832.77	4625	
832.94	5180	
833.12	2544.9	
833.29	3020.1	
833.46	4319.8	
833.63	5831.9	
833.8	3312.2	
833.97	3067.2	
834.15	4944.5	
834.32	4725.3	
834.49	3179.8	
834.66	3217.4	
834.83	4998.4	
835	4269.3	
835.17	3001	
835.35	2977.7	
835.52	4870.8	
835.69	4703.5	
835.86	3133.4	
836.03	2622.1	
836.2	4900.8	
836.37	4560.1	
836.55	3067.9	
836.72	2904.7	
836.89	4535.6	
837.06	4971.8	
837.23	3181.9	
837.4	3345	
837.57	5454.4	
837.75	5863.3	
837.92	2769.5	
838.09	2955.2	
838.26	4595.6	
838.43	4947.2	
838.6	3200.3	
838.77	2880.8	
838.94	5640.1	
839.11	5478.3	
839.29	3062.4	
839.46	2501.9	
839.63	4910.3	
839.8	4597	
839.97	2956.6	
840.14	2953.2	
840.31	4796.3	
840.48	4864.6	
840.65	2545.6	
840.82	2994.8	
841	4887.1	
841.17	4764.3	
841.34	2770.2	
841.51	2828.2	
841.68	4743.8	
841.85	4628.4	
842.02	2899.9	
842.19	2414.6	
842.36	4704.9	
842.53	4687.1	
842.7	2805.7	
842.87	3248.1	
843.05	5879.7	
843.22	4599.7	
843.39	2717.7	
843.56	2893.1	
843.73	4524	
843.9	4906.3	
844.07	4313.7	
844.24	3527.3	
844.41	6564.4	
844.58	4303.5	
844.75	2721.1	
844.92	2898.6	
845.09	4853.7	
845.26	4840	
845.43	2827.6	
845.6	2928.6	
845.77	4917.2	
845.94	4713.1	
846.12	3083.6	
846.29	3242.6	
846.46	5008	
846.63	4846.9	
846.8	2787.3	
846.97	3260.4	
847.14	5209.3	
847.31	4797	
847.48	3028.9	
847.65	3358	
847.82	5008	
847.99	4970.4	
848.16	3551.2	
848.33	3291.8	
848.5	4519.9	
848.67	5228.5	
848.84	2767.5	
849.01	2865.8	
849.18	4446.8	
849.35	4184	
849.52	3312.9	
849.69	2714.9	
849.86	5081	
850.03	5072.1	
850.2	2704	
850.37	3260.4	
850.54	5075.5	
850.71	4593.6	
850.88	3331.4	
851.05	2745	
851.22	4780	
851.39	5218.2	
851.56	2607.7	
851.73	3129.3	
851.9	4331.5	
852.07	5003.9	
852.24	3052.8	
852.41	2729.9	
852.58	4816.1	
852.75	4388.1	
852.92	3066.5	
853.09	2666.5	
853.26	4450.9	
853.43	5109	
853.6	2789.3	
853.77	2406.4	
853.94	5218.9	
854.11	4308.2	
854.28	3909.6	
854.44	2947.7	
854.61	5556.1	
854.78	5072.8	
854.95	2706.7	
855.12	3367.5	
855.29	4020.8	
855.46	5373.9	
855.63	2770.2	
855.8	3692.5	
855.97	4546.5	
856.14	5137.7	
856.31	3804.4	
856.48	2968.9	
856.65	4547.9	
856.82	4315.8	
856.99	2684.9	
857.16	2950.4	
857.33	5685.2	
857.49	4620.2	
857.66	2962	
857.83	3083.6	
858	4610.7	
858.17	4718.5	
858.34	2620	
858.51	2848	
858.68	5269.4	
858.85	5300.8	
859.02	3146.4	
859.19	3348.4	
859.36	4362.2	
859.52	4378.6	
859.69	2788	
859.86	3220.8	
860.03	4367.6	
860.2	5182.7	
860.37	2566.1	
860.54	2770.9	
860.71	5001.8	
860.88	5287.9	
861.05	3044.6	
861.21	3360.7	
861.38	5320.6	
861.55	4190.8	
861.72	2570.2	
861.89	3063.8	
862.06	5027.8	
862.23	5357.5	
862.4	2719.7	
862.56	2818.7	
862.73	4952	
862.9	4681	
863.07	3136.8	
863.24	2527.9	
863.41	4308.9	
863.58	4326.7	
863.75	2761.3	
863.91	3131.3	
864.08	5128.1	
864.25	4943.8	
864.42	3410.6	
864.59	3781.2	
864.76	5453.1	
864.93	4345.1	
865.09	2669.9	
865.26	2950.4	
865.43	5193.6	
865.6	5423.7	
865.77	2459.6	
865.94	2755.9	
866.1	5132.9	
866.27	4954	
866.44	3924.6	
866.61	2663.7	
866.78	4603.8	
866.95	4915.1	
867.11	2698.5	
867.28	2493.1	
867.45	5148.6	
867.62	4367.6	
867.79	3142.3	
867.96	2749.7	
868.12	4229.7	
868.29	4977.9	
868.46	2784.6	
868.63	3560.7	
868.8	5089.9	
868.97	4996.4	
869.13	2842.6	
869.3	2889	
869.47	4848.2	
869.64	5099.4	
869.81	2756.6	
869.97	2751.8	
870.14	4773.1	
870.31	5235.3	
870.48	2691	
870.65	3365.5	
870.81	4603.2	
870.98	4650.3	
871.15	3104.7	
871.32	2850.1	
871.48	4887.8	
871.65	5294	
871.82	2723.1	
871.99	3020.8	
872.16	5642.2	
872.32	5131.5	
872.49	2777.7	
872.66	2810.5	
872.83	5010	
872.99	4477.5	
873.16	3102.7	
873.33	2727.2	
873.5	4699.4	
873.67	4775.2	
873.83	2900.6	
874	3523.2	
874.17	4847.5	
874.34	5487.9	
874.5	3504.1	
874.67	3426.3	
874.84	5199.1	
875.01	4229.7	
875.17	3758.7	
875.34	2747	
875.51	4771.1	
875.68	5634.6	
875.84	3279.5	
876.01	3887	
876.18	4990.9	
876.34	4961.5	
876.51	2789.3	
876.68	2702.6	
876.85	4537.6	
877.01	5198.4	
877.18	3828.3	
877.35	2702	
877.52	4760.2	
877.68	4313.7	
877.85	2681.5	
878.02	2742.9	
878.18	4594.3	
878.35	4472.8	
878.52	2250.7	
878.69	3033	
878.85	5081.7	
879.02	4910.3	
879.19	3816	
879.35	2968.2	
879.52	4957.4	
879.69	5073.5	
879.86	2438.4	
880.02	3024.2	
880.19	4678.2	
880.36	5553.4	
880.52	3104.7	
880.69	3211.2	
880.86	5046.2	
881.02	5003.2	
881.19	2999.6	
881.36	2901.3	
881.52	4963.6	
881.69	4433.9	
881.86	2928.6	
882.02	2935.4	
882.19	5094.7	
882.36	5900.9	
882.52	2847.4	
882.69	3851.5	
882.86	4796.3	
883.02	4780	
883.19	3321.8	
883.36	3121.8	
883.52	5046.2	
883.69	5594.4	
883.86	2862.4	
884.02	2562	
884.19	4988.9	
884.36	4730.1	
884.52	3079.5	
884.69	2886.3	
884.86	4548.5	
885.02	5347.2	
885.19	3068.5	
885.36	3110.9	
885.52	4648.2	
885.69	4848.2	
885.86	3859.1	
886.02	3404.4	
886.19	5023	
886.35	4595.6	
886.52	3052.2	
886.69	3769.6	
886.85	4362.9	
887.02	5230.5	
887.19	5230.5	
887.35	5230.5	
887.52	5230.5	
887.68	5230.5	
887.85	5230.5	
888.02	5230.5	
888.18	5230.5	
888.35	5230.5	
888.51	5230.5	
888.68	5230.5	
888.85	5230.5	
889.01	5230.5	
889.18	5230.5	
889.35	5230.5	
889.51	5230.5	
889.68	5230.5	
889.84	5230.5	
890.01	5230.5	
890.17	5230.5	
890.34	5230.5	
890.51	5230.5	
890.67	5230.5	
890.84	5230.5	
891	5230.5	
891.17	5230.5	
891.34	5230.5	
891.5	5230.5	
891.67	5230.5	
891.83	5230.5	
892	5230.5	
892.16	5230.5	
892.33	5230.5	
892.5	5230.5	
892.66	5230.5	
892.83	5230.5	
892.99	5230.5	
893.16	5230.5	
893.32	5230.5	
893.49	5230.5	
893.65	5230.5	
893.82	5230.5	
893.99	5230.5	
894.15	5230.5	
894.32	5230.5	
894.48	5230.5	
894.65	5230.5	
894.81	5230.5	
894.98	5230.5	
895.14	5230.5	
895.31	5230.5	
895.47	5230.5	
895.64	5230.5	
895.81	5230.5	
895.97	5230.5	
896.14	5230.5	
896.3	5230.5	
896.47	5230.5	
896.63	5230.5	
896.8	5230.5	
896.96	5230.5	
897.13	5230.5	
897.29	5230.5	
897.46	5230.5	
897.62	5230.5	
897.79	5230.5	
897.95	5230.5	
898.12	5230.5	
898.28	5230.5	
898.45	5230.5	
898.61	5230.5	
898.78	5230.5	
898.94	5230.5	
899.11	5230.5	
899.27	5230.5	
899.44	5230.5	
899.6	5230.5	
899.77	5230.5	
899.93	5230.5	
900.1	5230.5	
900.26	5230.5	
900.43	5230.5	
900.59	5230.5	
900.76	5230.5	
900.92	5230.5	
901.09	5230.5	
901.25	5230.5	
901.42	5230.5	
901.58	5230.5	
901.75	5230.5	
901.91	5230.5	
902.07	5230.5	
902.24	5230.5	
902.4	5230.5	
902.57	5230.5	
902.73	5230.5	
902.9	5230.5	
903.06	5230.5	
903.23	5230.5	
903.39	5230.5	
903.56	5230.5	
903.72	5230.5	
903.88	5230.5	
904.05	5230.5	
904.21	5230.5	
904.38	5230.5	
904.54	5230.5	
904.71	5230.5	
904.87	5230.5	
905.03	5230.5	
905.2	5230.5	
905.36	5230.5	
905.53	5230.5	
905.69	5230.5	
905.86	5230.5	
906.02	5230.5	
906.18	5230.5	
906.35	5230.5	
906.51	5230.5	
906.68	5230.5	
906.84	5230.5	
907.01	5230.5	
907.17	5230.5	
907.33	5230.5	
907.5	5230.5	
907.66	5230.5	
907.83	5230.5	
907.99	5230.5	
908.15	5230.5	
908.32	5230.5	
908.48	5230.5	
908.65	5230.5	
908.81	5230.5	
908.97	5230.5	
909.14	5230.5	
909.3	5230.5	
909.47	5230.5	
909.63	5230.5	
909.79	5230.5	
909.96	5230.5	
910.12	5230.5	
910.28	5230.5	
910.45	5230.5	
910.61	5230.5	
910.78	5230.5	
910.94	5230.5	
911.1	5230.5	
911.27	5230.5	
911.43	5230.5	
911.59	5230.5	
911.76	5230.5	
911.92	5230.5	
912.08	5230.5	
912.25	5230.5	
912.41	5230.5	
912.57	5230.5	
912.74	5230.5	
912.9	5230.5	
913.07	5230.5	
913.23	5230.5	
913.39	5230.5	
913.56	5230.5	
913.72	5230.5	
913.88	5230.5	
914.05	5230.5	
914.21	5230.5	
914.37	5230.5	
914.54	5230.5	
914.7	5230.5	
914.86	5230.5	
915.03	5230.5	
915.19	5230.5	
