Wavelength	Intensities	
nm	a.u.	
179.22	1936.4	
179.44	1931.9	
179.65	1940.8	
179.86	1923	
180.08	1871.2	
180.29	4902.2	
180.51	3532.1	
180.72	5657.2	
180.94	6647	
181.15	3294.5	
181.37	3188.7	
181.58	5506.3	
181.79	5823.7	
182.01	3369.6	
182.22	3653.6	
182.44	5736.4	
182.65	4805.9	
182.87	4567	
183.08	3931.4	
183.29	6113.2	
183.51	5045.5	
183.72	3681.6	
183.94	5369.1	
184.15	5374.6	
184.37	5428.5	
184.58	3203	
184.79	4473.4	
185.01	5041.4	
185.22	5778	
185.44	4743.8	
185.65	3910.3	
185.86	5282.4	
186.08	4933.6	
186.29	3137.5	
186.51	3366.2	
186.72	5031.2	
186.94	5928.9	
187.15	3929.4	
187.36	4072.7	
187.58	7804.8	
187.79	5496.1	
188.01	4173.1	
188.22	6559	
188.43	6685.3	
188.65	5786.2	
188.86	3411.9	
189.08	4098.7	
189.29	5204.6	
189.5	5243.5	
189.72	3736.2	
189.93	3798.3	
190.15	6008.7	
190.36	7152.2	
190.57	4134.2	
190.79	4035.2	
191	6086.6	
191.22	6041.5	
191.43	4115.1	
191.64	3428.3	
191.86	6249	
192.07	6012.8	
192.29	3537.5	
192.5	3766.9	
192.71	5981.4	
192.93	5183.4	
193.14	3718.4	
193.35	3817.4	
193.57	5213.4	
193.78	6013.5	
194	3039.2	
194.21	3637.2	
194.42	4902.8	
194.64	5493.3	
194.85	4003.8	
195.07	4742.4	
195.28	5469.4	
195.49	4766.3	
195.71	4986.8	
195.92	3434.4	
196.13	5603.2	
196.35	5734.3	
196.56	5354.8	
196.78	4084.3	
196.99	7077.8	
197.2	6625.9	
197.42	4655	
197.63	4057	
197.84	4835.3	
198.06	5571.2	
198.27	3758.7	
198.48	4975.2	
198.7	5175.9	
198.91	5305.6	
199.13	4112.3	
199.34	4094.6	
199.55	5806	
199.77	4666	
199.98	3577.8	
200.19	4120.5	
200.41	5358.9	
200.62	5055.1	
200.83	4239.3	
201.05	4517.1	
201.26	5337.7	
201.47	5087.8	
201.69	3611.9	
201.9	3467.2	
202.11	5362.3	
202.33	6435.4	
202.54	3863.2	
202.76	4273.4	
202.97	5519.3	
203.18	5539.1	
203.4	4259.1	
203.61	4141.7	
203.82	5484.5	
204.04	5074.9	
204.25	4129.4	
204.46	4026.3	
204.68	5460.6	
204.89	5655.8	
205.1	3926.6	
205.32	3434.4	
205.53	5872.9	
205.74	5985.5	
205.96	2927.2	
206.17	4187.4	
206.38	5806.7	
206.6	5939.1	
206.81	4683	
207.02	3802.4	
207.24	5717.9	
207.45	6103.6	
207.66	3816	
207.88	3302	
208.09	5594.4	
208.3	5439.4	
208.52	3515.7	
208.73	3902.7	
208.94	5344.5	
209.15	6148	
209.37	3857.7	
209.58	4067.9	
209.79	5915.2	
210.01	5196.4	
210.22	3084.2	
210.43	3264.5	
210.65	5448.3	
210.86	5909.8	
211.07	3868.6	
211.29	3594.2	
211.5	5840.8	
211.71	5388.9	
211.93	3575.8	
212.14	3577.1	
212.35	5393.7	
212.56	5585.5	
212.78	4110.3	
212.99	3371	
213.2	6361	
213.42	5201.8	
213.63	3649.5	
213.84	3964.9	
214.06	4786.8	
214.27	4889.2	
214.48	3863.2	
214.69	4184	
214.91	6105.7	
215.12	6170.5	
215.33	4220.2	
215.55	4631.1	
215.76	6664.1	
215.97	5820.3	
216.18	4019.5	
216.4	3934.1	
216.61	5087.2	
216.82	5966.4	
217.04	3592.1	
217.25	3731.4	
217.46	6052.4	
217.67	5857.9	
217.89	3204.4	
218.1	3330.7	
218.31	5472.9	
218.53	5612.8	
218.74	3732.8	
218.95	3699.3	
219.16	5349.3	
219.38	6407.4	
219.59	3625.6	
219.8	4324.6	
220.01	7044.3	
220.23	5403.2	
220.44	4774.5	
220.65	3554.6	
220.87	5464.7	
221.08	6040.1	
221.29	3284.3	
221.5	4464.6	
221.72	7455.3	
221.93	5111.7	
222.14	4169	
222.35	4860.5	
222.57	5465.3	
222.78	5803.3	
222.99	3843.4	
223.2	4201.1	
223.42	5735	
223.63	5891.3	
223.84	3024.8	
224.05	2949.1	
224.27	6991.1	
224.48	6376	
224.69	4846.2	
224.9	4114.4	
225.12	5659.2	
225.33	5390.9	
225.54	3260.4	
225.75	3626.3	
225.97	5057.1	
226.18	5289.9	
226.39	3930.7	
226.6	3609.9	
226.82	5165.7	
227.03	5046.2	
227.24	4064.5	
227.45	3366.9	
227.67	5821.7	
227.88	6376.7	
228.09	4550.6	
228.3	4557.4	
228.52	5823.1	
228.73	5366.4	
228.94	3726.6	
229.15	3321.8	
229.36	5328.8	
229.58	5270.8	
229.79	3800.3	
230	4510.3	
230.21	6465.4	
230.43	5557.5	
230.64	4080.2	
230.85	4250.9	
231.06	5833.3	
231.28	5887.9	
231.49	3324.5	
231.7	3943	
231.91	5709.7	
232.12	5468.1	
232.34	3476.1	
232.55	3937.6	
232.76	6106.4	
232.97	5602.6	
233.18	3560.1	
233.4	4001	
233.61	5596.4	
233.82	5179.3	
234.03	3770.3	
234.25	3651.5	
234.46	7576.1	
234.67	5479.7	
234.88	4183.3	
235.09	3618.8	
235.31	5768.4	
235.52	5313.8	
235.73	4065.2	
235.94	3428.3	
236.15	5131.5	
236.37	6591	
236.58	3584.6	
236.79	3879.5	
237	5768.4	
237.21	4936.3	
237.43	4223.6	
237.64	3303.4	
237.85	9899.9	
238.06	4941.1	
238.27	4322.6	
238.48	3404.4	
238.7	5746.6	
238.91	5319.3	
239.12	3865.2	
239.33	3955.3	
239.54	5059.8	
239.76	5293.3	
239.97	3822.2	
240.18	3881.6	
240.39	6834.1	
240.6	5756.2	
240.82	4061.8	
241.03	3306.1	
241.24	5423	
241.45	6292.7	
241.66	3614	
241.87	4181.3	
242.09	6202.6	
242.3	6561.7	
242.51	4273.4	
242.72	3932.8	
242.93	5892.7	
243.14	5319.9	
243.36	4556	
243.57	4881	
243.78	6320	
243.99	5794.4	
244.2	3909.6	
244.41	3559.4	
244.63	4966.3	
244.84	5752.7	
245.05	4216.1	
245.26	3902.7	
245.47	5699.5	
245.68	6024.4	
245.9	5218.9	
246.11	4091.8	
246.32	5252.4	
246.53	5690.6	
246.74	6317.3	
246.95	3292.5	
247.16	4946.5	
247.38	5425.1	
247.59	3217.4	
247.8	4018.8	
248.01	5099.4	
248.22	5378.6	
248.43	3586	
248.64	3753.9	
248.86	4812.7	
249.07	5193	
249.28	3442.6	
249.49	4070	
249.7	5940.5	
249.91	6128.9	
250.12	3259	
250.34	3306.8	
250.55	5571.2	
250.76	5423.7	
250.97	4055.7	
251.18	4077.5	
251.39	6107.7	
251.6	5620.3	
251.81	4135.5	
252.03	4117.8	
252.24	5125.4	
252.45	5997.8	
252.66	3401.7	
252.87	4332.1	
253.08	5484.5	
253.29	7201.3	
253.5	3399.6	
253.72	4792.9	
253.93	5279	
254.14	6367.8	
254.35	3714.3	
254.56	3796.9	
254.77	5722	
254.98	5030.5	
255.19	3692.5	
255.41	4721.9	
255.62	5583.4	
255.83	6089.3	
256.04	4204.5	
256.25	4170.3	
256.46	6666.1	
256.67	5065.3	
256.88	4029	
257.09	4590.2	
257.31	5099.4	
257.52	5091.3	
257.73	5085.1	
257.94	3719.8	
258.15	5212.1	
258.36	5464.7	
258.57	4689.2	
258.78	2985.9	
258.99	5908.4	
259.2	5268.1	
259.41	3790.1	
259.63	3794.2	
259.84	6326.2	
260.05	6782.9	
260.26	4913.8	
260.47	3633.8	
260.68	6051.1	
260.89	5410.1	
261.1	4521.9	
261.31	3552.5	
261.52	5989.6	
261.73	6409.5	
261.95	4811.4	
262.16	4186	
262.37	6159.6	
262.58	6265.4	
262.79	4779.3	
263	3807.9	
263.21	5402.5	
263.42	4881.7	
263.63	3837.9	
263.84	3756	
264.05	6018.3	
264.26	6404.7	
264.47	4659.1	
264.69	4248.2	
264.9	6232.7	
265.11	5692.7	
265.32	3582.6	
265.53	3714.3	
265.74	5527.5	
265.95	4824.3	
266.16	3999.7	
266.37	4376.5	
266.58	5552	
266.79	5206.6	
267	3675.4	
267.21	3371.6	
267.42	5023.7	
267.63	5431.9	
267.84	3888.4	
268.06	3325.9	
268.27	5891.3	
268.48	6153.5	
268.69	3794.2	
268.9	4504.8	
269.11	6112.5	
269.32	4943.1	
269.53	3937.6	
269.74	3618.1	
269.95	5835.3	
270.16	4769	
270.37	3898.6	
270.58	4526	
270.79	5242.8	
271	5966.4	
271.21	4162.2	
271.42	3902.1	
271.63	5545.2	
271.84	5039.4	
272.05	3161.4	
272.26	3520.5	
272.47	5515.9	
272.68	5680.4	
272.89	3777.8	
273.11	4331.5	
273.32	5283.1	
273.53	6461.3	
273.74	4221.5	
273.95	4189.5	
274.16	6066.1	
274.37	5505.6	
274.58	4215.4	
274.79	3388.7	
275	5608	
275.21	6134.3	
275.42	5209.3	
275.63	4462.5	
275.84	5700.2	
276.05	7154.9	
276.26	4129.4	
276.47	3815.4	
276.68	5255.1	
276.89	6435.4	
277.1	4471.4	
277.31	3429	
277.52	5681.7	
277.73	5860.6	
277.94	3401	
278.15	3725.9	
278.36	5713.2	
278.57	5090.6	
278.78	3720.5	
278.99	4220.2	
279.2	5045.5	
279.41	4981.3	
279.62	4966.3	
279.83	3539.6	
280.04	6698.9	
280.25	4913.1	
280.46	4918.5	
280.67	3876.1	
280.88	5045.5	
281.09	6080.4	
281.3	4069.3	
281.51	5204.6	
281.72	5918.6	
281.93	6004	
282.14	3661.8	
282.35	3928.7	
282.56	5931.6	
282.77	5881.8	
282.98	3822.2	
283.19	4626.4	
283.4	7329	
283.61	5356.1	
283.82	3351.8	
284.03	4829.8	
284.24	5522	
284.45	6176.7	
284.66	4899.4	
284.87	4667.3	
285.08	6023.1	
285.29	6217.6	
285.5	3306.1	
285.71	3823.6	
285.92	6058.6	
286.12	6733	
286.33	4831.2	
286.54	3786	
286.75	5907.7	
286.96	5323.4	
287.17	3517.7	
287.38	4752.7	
287.59	5030.5	
287.8	4999.8	
288.01	3863.8	
288.22	4440	
288.43	5941.8	
288.64	4977.9	
288.85	4528.1	
289.06	4290.5	
289.27	5861.3	
289.48	6367.8	
289.69	4896	
289.9	4388.8	
290.11	6163.7	
290.32	5158.2	
290.53	4624.3	
290.74	4254.3	
290.94	5836	
291.15	5974.6	
291.36	3794.2	
291.57	4310.3	
291.78	5182.7	
291.99	4842.8	
292.2	3513.6	
292.41	4246.1	
292.62	6020.3	
292.83	5759.6	
293.04	5311.1	
293.25	3517.7	
293.46	5164.3	
293.67	6040.8	
293.88	3634.5	
294.09	3531.4	
294.29	5013.4	
294.5	5585.5	
294.71	3965.6	
294.92	3771	
295.13	5191.6	
295.34	6636.8	
295.55	3289	
295.76	3411.9	
295.97	5872.9	
296.18	6558.3	
296.39	3439.9	
296.6	3686.3	
296.81	5538.4	
297.01	5934.3	
297.22	3815.4	
297.43	3653.6	
297.64	5093.3	
297.85	5109.7	
298.06	3060.3	
298.27	3323.2	
298.48	5463.3	
298.69	5096.7	
298.9	3980.6	
299.11	3586.7	
299.31	4917.2	
299.52	5008.6	
299.73	4298.7	
299.94	4161.5	
300.15	5444.9	
300.36	5027.8	
300.57	4194.9	
300.78	4174.4	
300.99	5302.2	
301.2	5631.2	
301.4	3603.7	
301.61	3992.9	
301.82	5760.9	
302.03	5915.2	
302.24	4498	
302.45	3467.2	
302.66	5730.9	
302.87	6141.2	
303.08	3719.1	
303.29	5067.4	
303.49	5177.3	
303.7	5465.3	
303.91	3261	
304.12	4844.8	
304.33	4932.9	
304.54	5610.1	
304.75	3691.8	
304.96	3521.8	
305.16	5760.9	
305.37	6548.7	
305.58	3208.5	
305.79	3328.6	
306	5788.9	
306.21	4850.3	
306.42	3685.7	
306.63	5638.7	
306.83	5282.4	
307.04	6116.6	
307.25	4074.1	
307.46	3995.6	
307.67	4693.9	
307.88	5954.1	
308.09	3613.3	
308.29	3778.5	
308.5	5504.3	
308.71	6032	
308.92	3906.8	
309.13	3563.5	
309.34	5356.8	
309.55	5314.5	
309.75	4613.4	
309.96	4197	
310.17	5855.8	
310.38	5160.9	
310.59	4512.4	
310.8	3454.2	
311.01	5260.5	
311.21	5337.7	
311.42	3473.4	
311.63	3574.4	
311.84	5153.4	
312.05	5585.5	
312.26	4042	
312.46	4505.5	
312.67	5302.9	
312.88	5002.5	
313.09	3540.9	
313.3	3404.4	
313.51	6279.8	
313.71	6625.9	
313.92	3508.2	
314.13	3717.1	
314.34	5577.3	
314.55	5422.3	
314.76	4527.4	
314.96	4007.9	
315.17	5532.2	
315.38	5993	
315.59	3552.5	
315.8	3388	
316.01	6320.7	
316.21	6382.2	
316.42	3448.1	
316.63	3967.6	
316.84	5323.4	
317.05	6152.8	
317.26	4222.2	
317.46	3766.2	
317.67	5332.2	
317.88	5863.3	
318.09	4497.3	
318.3	3267.9	
318.5	5164.3	
318.71	5844.9	
318.92	5764.3	
319.13	4183.3	
319.34	5958.2	
319.54	6112.5	
319.75	3289	
319.96	3166.8	
320.17	5852.4	
320.38	6020.3	
320.58	3262.4	
320.79	3902.7	
321	6038.8	
321.21	6217.6	
321.42	3895.9	
321.62	3277.4	
321.83	4995	
322.04	5422.3	
322.25	3793.5	
322.46	3603.1	
322.66	5538.4	
322.87	5709.1	
323.08	4446.1	
323.29	3487.7	
323.5	6509.1	
323.7	4964.3	
323.91	4819.6	
324.12	4314.4	
324.33	5517.9	
324.53	5773.2	
324.74	4151.2	
324.95	4423.6	
325.16	4771.8	
325.37	5307.7	
325.57	3580.5	
325.78	3629	
325.99	5523.4	
326.2	4984.8	
326.4	5225.1	
326.61	3309.5	
326.82	5380	
327.03	5546.6	
327.24	5080.3	
327.44	4811.4	
327.65	5681.7	
327.86	4603.2	
328.07	4196.3	
328.27	3410.6	
328.48	6177.4	
328.69	4986.1	
328.9	5107	
329.1	3870.7	
329.31	5360.9	
329.52	6265.4	
329.73	3525.2	
329.93	4018.8	
330.14	5451.7	
330.35	5747.3	
330.56	5879	
330.76	4375.1	
330.97	5211.4	
331.18	5646.2	
331.39	4012	
331.59	3173.7	
331.8	6089.3	
332.01	6154.8	
332.22	3671.3	
332.42	4170.3	
332.63	5574.6	
332.84	5141.1	
333.05	3997.6	
333.25	3635.8	
333.46	5233.9	
333.67	5507.7	
333.88	3753.2	
334.08	4105.5	
334.29	7337.9	
334.5	6181.5	
334.7	3499.3	
334.91	5081	
335.12	5021.6	
335.33	5891.3	
335.53	3911.6	
335.74	5895.4	
335.95	5226.4	
336.16	5057.1	
336.36	3934.8	
336.57	4552	
336.78	4932.2	
336.98	6049	
337.19	4896	
337.4	3885	
337.61	6569.2	
337.81	4990.2	
338.02	3631.7	
338.23	4741.7	
338.43	6226.5	
338.64	5075.5	
338.85	3557.3	
339.05	4714.4	
339.26	6371.2	
339.47	4856.4	
339.68	3552.5	
339.88	5368.4	
340.09	5661.3	
340.3	5863.3	
340.5	4162.2	
340.71	3183.2	
340.92	4908.3	
341.13	6241.5	
341.33	3481.5	
341.54	4190.8	
341.75	5680.4	
341.95	5303.6	
342.16	3999.7	
342.37	4359.4	
342.57	4990.2	
342.78	5443.5	
342.99	4408.6	
343.19	3203	
343.4	5885.2	
343.61	5749.3	
343.81	3814	
344.02	3502.7	
344.23	5917.3	
344.43	6346.7	
344.64	4470.7	
344.85	4352.6	
345.06	5745.9	
345.26	6070.2	
345.47	4105.5	
345.68	4846.2	
345.88	4799.1	
346.09	5948.7	
346.3	4225.6	
346.5	3149.8	
346.71	5498.8	
346.92	5143.8	
347.12	3194.8	
347.33	4163.5	
347.54	6022.4	
347.74	6404.7	
347.95	4083	
348.16	3001.6	
348.36	5250.3	
348.57	4926	
348.78	4093.9	
348.98	4372.4	
349.19	5390.3	
349.39	4834.6	
349.6	3257.6	
349.81	3591.5	
350.01	5731.6	
350.22	5139.7	
350.43	3918.4	
350.63	4776.5	
350.84	5451	
351.05	5157.5	
351.25	3611.9	
351.46	3253.5	
351.67	6059.3	
351.87	5151.3	
352.08	3791.5	
352.29	4384	
352.49	5877	
352.7	5935.7	
352.9	3418.1	
353.11	4330.8	
353.32	6608.8	
353.52	5205.9	
353.73	3386.7	
353.94	4419.5	
354.14	5745.9	
354.35	5541.8	
354.55	3528	
354.76	3981.9	
354.97	5688.6	
355.17	5459.2	
355.38	3333.4	
355.59	4627	
355.79	5083.7	
356	5548.6	
356.2	3890.5	
356.41	3389.4	
356.62	4805.9	
356.82	5282.4	
357.03	4132.8	
357.24	3760.8	
357.44	5097.4	
357.65	5229.8	
357.85	4999.1	
358.06	3901.4	
358.27	4855.7	
358.47	5117.2	
358.68	3211.2	
358.88	4125.3	
359.09	5591.6	
359.3	6029.9	
359.5	4859.1	
359.71	4199.7	
359.91	6503.7	
360.12	5810.8	
360.33	4085.7	
360.53	4643.4	
360.74	5028.4	
360.94	5112.4	
361.15	4318.5	
361.36	3501.3	
361.56	5870.2	
361.77	5277.6	
361.97	4803.2	
362.18	3745.7	
362.38	5834.7	
362.59	4867.3	
362.8	3388.7	
363	3274.7	
363.21	4705.5	
363.41	5451	
363.62	3984.7	
363.83	4999.8	
364.03	5468.1	
364.24	6434	
364.44	5104.9	
364.65	4954	
364.85	5175.9	
365.06	5097.4	
365.27	3644	
365.47	3650.2	
365.68	6184.9	
365.88	5182	
366.09	3986.7	
366.29	3674.7	
366.5	5433.3	
366.71	5891.3	
366.91	4997	
367.12	4248.2	
367.32	6448.4	
367.53	5738.4	
367.73	4056.3	
367.94	5091.3	
368.14	5665.4	
368.35	6583.5	
368.56	4099.4	
368.76	3593.5	
368.97	5755.5	
369.17	7475.1	
369.38	3566.9	
369.58	3874.8	
369.79	4826.4	
369.99	6120	
370.2	4906.9	
370.4	3926.6	
370.61	5511.8	
370.82	6681.2	
371.02	3796.3	
371.23	3112.9	
371.43	4709	
371.64	6034	
371.84	3876.1	
372.05	5058.5	
372.25	7376.8	
372.46	5769.8	
372.66	3812	
372.87	3794.2	
373.07	5824.4	
373.28	7459.4	
373.48	4836.6	
373.69	4518.5	
373.9	5290.6	
374.1	5302.9	
374.31	4775.9	
374.51	4287.8	
374.72	5991	
374.92	4911	
375.13	4874.2	
375.33	4059.1	
375.54	5610.1	
375.74	5087.2	
375.95	4155.3	
376.15	5399.8	
376.36	5605.3	
376.56	5415.5	
376.77	4187.4	
376.97	4656.4	
377.18	6664.8	
377.38	5685.8	
377.59	4988.9	
377.79	3654.3	
378	5432.6	
378.2	5871.5	
378.41	3730	
378.61	3594.2	
378.82	5903.6	
379.02	5016.2	
379.23	3832.4	
379.43	5008.6	
379.64	6025.1	
379.84	5565.7	
380.05	3708.2	
380.25	3648.1	
380.46	5653.1	
380.66	5309	
380.87	5070.8	
381.07	5394.3	
381.28	6369.9	
381.48	5713.8	
381.69	3682.2	
381.89	3762.8	
382.1	4633.9	
382.3	5885.2	
382.51	4889.9	
382.71	5767.1	
382.91	5717.2	
383.12	6273.6	
383.32	4108.9	
383.53	4376.5	
383.73	5628.5	
383.94	5389.6	
384.14	4278.9	
384.35	3375.7	
384.55	5309.7	
384.76	5838.8	
384.96	4070.7	
385.17	4463.2	
385.37	5716.6	
385.58	5019.6	
385.78	4375.1	
385.98	3304.1	
386.19	5255.1	
386.39	5620.3	
386.6	3863.2	
386.8	4138.9	
387.01	5732.9	
387.21	5760.9	
387.42	4510.3	
387.62	5074.2	
387.83	5014.1	
388.03	5640.1	
388.23	4090.5	
388.44	4902.2	
388.64	4719.2	
388.85	4763.6	
389.05	4430.4	
389.26	5035.3	
389.46	6690.7	
389.67	6033.3	
389.87	4342.4	
390.07	4530.1	
390.28	5268.7	
390.48	4913.1	
390.69	3633.1	
390.89	3893.2	
391.1	5042.1	
391.3	5996.5	
391.5	5188.2	
391.71	5734.3	
391.91	5758.9	
392.12	6761	
392.32	5226.4	
392.53	4431.8	
392.73	5180	
392.93	5297.4	
393.14	4093.2	
393.34	4906.3	
393.55	5801.9	
393.75	5332.2	
393.95	4128.7	
394.16	4087.7	
394.36	5053	
394.57	5756.8	
394.77	3577.8	
394.98	3977.2	
395.18	4970.4	
395.38	5027.1	
395.59	4881	
395.79	3759.4	
396	5122	
396.2	5576.6	
396.4	4586.8	
396.61	4593.6	
396.81	5760.9	
397.02	4985.4	
397.22	4812	
397.42	4814.8	
397.63	5760.9	
397.83	4900.8	
398.04	3711.6	
398.24	4169	
398.44	5529.5	
398.65	4541.7	
398.85	3545	
399.05	3636.5	
399.26	4881.7	
399.46	6675	
399.67	3993.5	
399.87	3698.6	
400.07	5250.3	
400.28	5599.1	
400.48	3759.4	
400.69	4828.4	
400.89	5757.5	
401.09	6239.5	
401.3	3645.4	
401.5	4815.5	
401.7	6451.1	
401.91	6679.8	
402.11	3990.1	
402.32	4264.6	
402.52	5842.2	
402.72	5737	
402.93	4453.6	
403.13	3349.8	
403.33	6583.5	
403.54	5399.8	
403.74	4195.6	
403.94	5101.5	
404.15	5429.2	
404.35	6621.1	
404.56	3967.6	
404.76	5913.2	
404.96	5808	
405.17	5558.2	
405.37	5230.5	
405.57	4455	
405.78	5773.2	
405.98	5316.5	
406.18	3919.8	
406.39	4871.4	
406.59	5792.3	
406.79	5451	
407	3790.8	
407.2	3871.3	
407.4	5839.4	
407.61	5993.7	
407.81	3810.6	
408.01	5659.2	
408.22	4717.8	
408.42	6755.6	
408.62	4831.8	
408.83	4192.9	
409.03	5324.7	
409.23	5018.9	
409.44	4231.1	
409.64	4546.5	
409.84	6156.9	
410.05	5935.7	
410.25	4323.9	
410.45	4128	
410.66	5372.5	
410.86	7851.9	
411.06	4446.8	
411.27	4334.2	
411.47	7600.7	
411.67	5515.9	
411.88	4575.2	
412.08	4835.3	
412.28	6106.4	
412.49	6677.7	
412.69	4214	
412.89	4262.5	
413.09	6440.2	
413.3	6237.4	
413.5	4291.2	
413.7	3948.5	
413.91	5498.8	
414.11	6333	
414.31	4149.2	
414.52	4570.4	
414.72	6006	
414.92	5936.4	
415.12	4056.3	
415.33	4685.8	
415.53	6254.5	
415.73	6457.2	
415.94	4988.2	
416.14	4457.1	
416.34	5273.5	
416.55	5044.8	
416.75	5642.8	
416.95	5031.2	
417.15	6224.5	
417.36	6958.3	
417.56	5716.6	
417.76	4805.2	
417.97	6576.7	
418.17	6209.4	
418.37	4338.3	
418.57	4404.5	
418.78	6016.2	
418.98	5771.9	
419.18	5251	
419.38	5263.3	
419.59	5733.6	
419.79	5412.8	
419.99	4362.2	
420.2	4691.2	
420.4	6279.8	
420.6	6451.1	
420.8	4186.7	
421.01	4031.1	
421.21	6003.3	
421.41	6284.5	
421.61	4633.9	
421.82	4280.9	
422.02	5551.4	
422.22	6520.7	
422.42	5100.1	
422.63	4815.5	
422.83	5683.8	
423.03	6830	
423.23	4814.8	
423.44	3857.7	
423.64	5780.7	
423.84	5563	
424.04	4242	
424.25	3914.4	
424.45	6787.7	
424.65	6694.8	
424.85	3730	
425.06	4349.2	
425.26	6705.7	
425.46	5743.2	
425.66	4842.8	
425.87	4511.7	
426.07	6470.9	
426.27	6356.9	
426.47	4614.1	
426.67	4018.1	
426.88	6887.3	
427.08	6266.8	
427.28	4877.6	
427.48	3943	
427.69	5192.3	
427.89	5859.9	
428.09	4866.7	
428.29	4014	
428.5	6475.7	
428.7	5994.4	
428.9	3822.9	
429.1	4494.6	
429.3	5971.9	
429.51	6300.2	
429.71	4188.8	
429.91	4937.7	
430.11	6223.8	
430.31	6706.4	
430.52	4524	
430.72	4689.8	
430.92	6762.4	
431.12	6236.7	
431.32	4092.5	
431.53	4562.9	
431.73	5147.9	
431.93	6883.2	
432.13	3981.3	
432.33	3931.4	
432.54	5573.9	
432.74	5891.3	
432.94	3726.6	
433.14	4883.7	
433.34	6056.5	
433.55	5553.4	
433.75	4793.6	
433.95	6462	
434.15	5872.9	
434.35	5530.9	
434.56	3953.3	
434.76	3407.1	
434.96	5859.2	
435.16	6008.1	
435.36	3818.1	
435.56	4877.6	
435.77	5384.1	
435.97	5597.8	
436.17	5614.8	
436.37	4813.4	
436.57	5362.9	
436.78	5252.4	
436.98	4866.7	
437.18	5443.5	
437.38	5924.8	
437.58	5621.7	
437.78	5581.4	
437.99	4202.4	
438.19	6185.5	
438.39	6969.9	
438.59	4177.9	
438.79	3713	
438.99	6817.7	
439.2	5612.1	
439.4	3833.1	
439.6	3777.1	
439.8	5913.9	
440	6971.3	
440.2	4714.4	
440.4	4857.8	
440.61	6207.4	
440.81	6788.3	
441.01	3792.8	
441.21	4670.7	
441.41	6510.5	
441.61	6204.7	
441.81	4942.4	
442.02	6078.4	
442.22	7152.2	
442.42	6253.8	
442.62	3867.2	
442.82	3989.4	
443.02	6559	
443.22	5645.6	
443.43	4289.8	
443.63	3858.4	
443.83	5402.5	
444.03	5509	
444.23	4996.4	
444.43	4673.5	
444.63	5720.7	
444.83	6975.4	
445.04	3920.5	
445.24	5223	
445.44	6134.3	
445.64	6214.2	
445.84	4756.1	
446.04	4855.1	
446.24	5564.3	
446.44	6624.5	
446.65	4003.8	
446.85	4409.3	
447.05	5991	
447.25	6553.5	
447.45	4473.4	
447.65	3788.1	
447.85	5885.9	
448.05	5634.6	
448.25	4866	
448.46	4633.2	
448.66	5871.5	
448.86	5622.4	
449.06	3661.8	
449.26	4838	
449.46	6236.1	
449.66	5218.2	
449.86	4293.9	
450.06	4291.2	
450.26	5428.5	
450.47	6035.4	
450.67	4659.8	
450.87	5023	
451.07	6088.6	
451.27	5848.3	
451.47	3898.6	
451.67	4409.3	
451.87	5464.7	
452.07	6771.3	
452.27	4059.1	
452.47	4080.9	
452.67	5874.3	
452.88	6461.3	
453.08	3547.1	
453.28	5571.2	
453.48	6993.8	
453.68	5784.1	
453.88	3938.9	
454.08	4177.9	
454.28	6115.2	
454.48	5774.6	
454.68	4748.6	
454.88	5229.8	
455.08	6197.2	
455.28	5878.4	
455.48	3860.4	
455.68	4353.3	
455.89	6603.3	
456.09	6223.8	
456.29	4103.4	
456.49	4120.5	
456.69	6498.2	
456.89	5726.1	
457.09	4659.8	
457.29	4927.4	
457.49	5994.4	
457.69	6029.2	
457.89	4311.7	
458.09	3787.4	
458.29	5689.9	
458.49	6408.8	
458.69	4711.7	
458.89	4145.1	
459.09	6623.1	
459.29	6801.3	
459.49	4290.5	
459.69	5074.2	
459.9	6208.8	
460.1	5590.3	
460.3	4265.9	
460.5	3885.7	
460.7	6159.6	
460.9	5831.9	
461.1	3593.5	
461.3	4767	
461.5	6726.2	
461.7	6309.8	
461.9	3855.6	
462.1	4349.9	
462.3	5732.3	
462.5	6370.5	
462.7	3897.3	
462.9	3951.9	
463.1	7303.7	
463.3	6897.6	
463.5	4171.7	
463.7	5031.9	
463.9	5827.8	
464.1	6191.7	
464.3	4154	
464.5	4405.9	
464.7	6460.7	
464.9	5922	
465.1	5802.6	
465.3	4768.4	
465.5	6793.8	
465.7	6612.9	
465.9	4995	
466.1	4898.7	
466.3	6468.9	
466.5	6340.5	
466.7	5614.8	
466.9	4537.6	
467.1	6130.3	
467.3	7183.6	
467.5	5507	
467.7	4418.2	
467.9	7320.8	
468.1	8097.7	
468.3	5272.8	
468.5	5546.6	
468.7	6121.4	
468.9	6064.7	
469.1	4621.6	
469.3	5317.2	
469.5	8058.1	
469.7	5608	
469.9	5162.2	
470.1	4358.1	
470.3	6083.8	
470.5	6113.9	
470.7	5646.2	
470.9	4473.4	
471.1	5829.9	
471.3	6404.7	
471.5	4258.4	
471.69	6260	
471.89	5717.2	
472.09	5312.4	
472.29	5058.5	
472.49	5636.7	
472.69	5480.4	
472.89	6386.2	
473.09	4209.9	
473.29	4456.4	
473.49	5700.2	
473.69	5891.3	
473.89	5406.6	
474.09	4579.3	
474.29	7159.7	
474.49	6886.6	
474.69	5240.8	
474.89	4650.3	
475.09	5914.5	
475.29	5831.9	
475.49	4133.5	
475.69	4343.7	
475.88	7559.1	
476.08	6225.1	
476.28	4006.5	
476.48	4571.7	
476.68	6657.9	
476.88	6619	
477.08	4411.3	
477.28	4691.9	
477.48	6088.6	
477.68	6763.8	
477.88	4175.8	
478.08	4590.2	
478.28	6958.3	
478.48	6219	
478.67	4577.2	
478.87	4095.3	
479.07	6819.1	
479.27	6262.7	
479.47	4805.9	
479.67	4872.1	
479.87	6543.9	
480.07	7111.2	
480.27	4043.4	
480.47	5780.7	
480.67	6315.9	
480.87	6862.1	
481.06	4384.7	
481.26	5202.5	
481.46	6161	
481.66	6118	
481.86	4805.2	
482.06	5883.8	
482.26	5943.2	
482.46	6869.6	
482.66	4732.9	
482.86	4356	
483.05	6283.2	
483.25	5677.7	
483.45	7238.9	
483.65	4674.8	
483.85	5828.5	
484.05	6096.1	
484.25	5177.3	
484.45	5610.1	
484.65	7019.1	
484.84	6905.8	
485.04	4651.6	
485.24	4609.3	
485.44	7177.4	
485.64	5547.9	
485.84	3812.6	
486.04	5288.5	
486.24	5879	
486.44	6294.8	
486.63	3747.1	
486.83	4569.7	
487.03	5720	
487.23	5879.7	
487.43	3882.9	
487.63	6268.8	
487.83	5920	
488.02	6992.4	
488.22	4812.7	
488.42	5391.6	
488.62	6866.8	
488.82	5705.6	
489.02	4523.3	
489.22	4508.9	
489.41	6752.2	
489.61	6308.4	
489.81	4162.8	
490.01	4244.1	
490.21	6528.9	
490.41	7232.1	
490.61	4171.7	
490.8	4280.9	
491	6033.3	
491.2	5453.7	
491.4	4923.3	
491.6	4039.3	
491.8	6093.4	
491.99	6361.7	
492.19	3900.7	
492.39	4302.8	
492.59	6653.2	
492.79	6645	
492.99	5083.7	
493.18	4131.4	
493.38	6650.4	
493.58	7389.8	
493.78	4758.8	
493.98	4367.6	
494.18	6270.2	
494.37	5668.8	
494.57	4915.8	
494.77	4816.1	
494.97	6337.8	
495.17	6535.1	
495.37	4285	
495.56	4584.7	
495.76	6733.7	
495.96	6388.3	
496.16	5481	
496.36	4323.9	
496.55	6540.5	
496.75	6019.7	
496.95	4752.7	
497.15	4586.1	
497.35	6538.5	
497.54	6430.6	
497.74	4381.3	
497.94	6140.5	
498.14	7113.3	
498.34	6947.4	
498.53	4058.4	
498.73	4861.2	
498.93	5772.5	
499.13	6312.5	
499.33	4531.5	
499.52	5208.7	
499.72	6228.6	
499.92	6700.3	
500.12	4268.6	
500.32	4511	
500.51	6551.5	
500.71	6267.5	
500.91	5315.8	
501.11	4951.3	
501.31	6460	
501.5	6974.7	
501.7	5593	
501.9	4543.1	
502.1	6320	
502.29	6552.8	
502.49	4976.6	
502.69	5492	
502.89	6523.5	
503.09	6513.2	
503.28	4113.7	
503.48	4272.7	
503.68	5784.1	
503.88	5825.1	
504.07	5281	
504.27	4791.6	
504.47	6150.1	
504.67	6395.8	
504.86	5135.6	
505.06	4833.2	
505.26	6017.6	
505.46	7852.6	
505.65	4762.2	
505.85	5068	
506.05	5902.9	
506.25	6415.6	
506.44	4187.4	
506.64	5155.4	
506.84	5909.8	
507.04	6835.4	
507.23	4360.8	
507.43	5042.8	
507.63	7987.8	
507.83	6128.2	
508.02	5048.9	
508.22	4607.9	
508.42	8192.6	
508.62	5898.8	
508.81	4937	
509.01	5473.5	
509.21	5879	
509.4	6122.1	
509.6	5108.3	
509.8	4382.7	
510	6004	
510.19	7539.3	
510.39	4472.8	
510.59	4433.2	
510.79	5863.3	
510.98	7194.5	
511.18	4520.5	
511.38	4644.1	
511.57	6670.2	
511.77	6557.6	
511.97	5301.5	
512.17	4326.7	
512.36	6693.4	
512.56	6698.9	
512.76	4333.5	
512.95	4120.5	
513.15	6821.1	
513.35	5378	
513.55	5229.8	
513.74	4461.8	
513.94	6705.7	
514.14	6096.8	
514.33	5342.5	
514.53	5128.1	
514.73	6033.3	
514.92	6265.4	
515.12	4624.3	
515.32	4362.2	
515.51	6288.6	
515.71	6834.8	
515.91	6193.7	
516.11	4446.8	
516.3	7985.7	
516.5	5866.7	
516.7	4996.4	
516.89	5569.8	
517.09	6085.2	
517.29	5853.8	
517.48	5278.3	
517.68	4707.6	
517.88	5715.2	
518.07	6379.4	
518.27	5161.6	
518.47	4263.2	
518.66	7002	
518.86	5550	
519.06	4069.3	
519.25	4504.8	
519.45	5948.7	
519.65	7387	
519.84	5192.3	
520.04	5846.3	
520.24	7784.3	
520.43	6539.8	
520.63	4866.7	
520.83	4613.4	
521.02	5843.5	
521.22	6457.2	
521.42	5270.1	
521.61	5747.3	
521.81	6081.1	
522.01	6297.5	
522.2	5005.9	
522.4	4860.5	
522.6	6718	
522.79	5545.9	
522.99	4813.4	
523.18	4066.6	
523.38	6380.8	
523.58	6390.3	
523.77	5953.4	
523.97	3949.8	
524.17	8168.7	
524.36	7312.6	
524.56	5270.8	
524.76	4965	
524.95	6201.9	
525.15	5894.7	
525.34	4619.5	
525.54	4652.3	
525.74	6513.2	
525.93	5429.2	
526.13	5828.5	
526.33	4522.6	
526.52	6727.6	
526.72	6131.6	
526.91	5752.1	
527.11	5037.3	
527.31	6722.1	
527.5	7154.9	
527.7	4922.6	
527.89	3893.9	
528.09	5588.9	
528.29	6113.9	
528.48	5322.7	
528.68	5016.8	
528.87	6579.4	
529.07	6664.1	
529.27	4870.8	
529.46	4278.9	
529.66	6195.1	
529.85	6649.1	
530.05	4168.3	
530.25	4998.4	
530.44	7644.4	
530.64	6192.4	
530.83	4568.3	
531.03	4760.8	
531.23	6512.5	
531.42	6426.5	
531.62	5631.2	
531.81	4718.5	
532.01	6565.1	
532.21	7079.1	
532.4	4373.1	
532.6	4717.2	
532.79	7362.4	
532.99	6559.6	
533.18	4687.8	
533.38	5773.9	
533.58	6096.8	
533.77	6858.6	
533.97	4588.8	
534.16	5400.5	
534.36	6997.9	
534.55	6027.2	
534.75	5593.7	
534.95	4671.4	
535.14	6719.4	
535.34	6051.1	
535.53	4339.6	
535.73	6392.4	
535.92	7388.4	
536.12	6321.4	
536.31	4508.3	
536.51	5702.9	
536.71	6617.7	
536.9	6087.2	
537.1	4662.5	
537.29	4726.7	
537.49	7095.5	
537.68	6008.1	
537.88	5121.3	
538.07	4359.4	
538.27	6235.4	
538.46	7188.4	
538.66	4177.9	
538.86	4653.7	
539.05	6254.5	
539.25	6668.2	
539.44	4913.8	
539.64	4567.7	
539.83	6118	
540.03	7154.9	
540.22	4458.4	
540.42	4661.2	
540.61	6467.5	
540.81	6576.7	
541	5130.2	
541.2	5724.1	
541.39	5992.4	
541.59	6396.5	
541.78	5393	
541.98	4553.3	
542.18	5644.9	
542.37	5721.3	
542.57	4967	
542.76	5438	
542.96	5799.2	
543.15	6589	
543.35	5068.7	
543.54	4339	
543.74	6923.5	
543.93	6454.5	
544.13	5130.2	
544.32	6247.7	
544.52	6807.4	
544.71	5943.2	
544.91	4214	
545.1	5513.8	
545.3	6004.6	
545.49	6748.1	
545.69	4167.6	
545.88	4743.8	
546.08	7665.5	
546.27	7238.2	
546.47	5288.5	
546.66	4584	
546.86	6980.8	
547.05	7591.8	
547.24	4866.7	
547.44	4676.2	
547.63	5940.5	
547.83	7068.2	
548.02	5038.7	
548.22	5263.3	
548.41	5782.1	
548.61	7123.5	
548.8	4620.2	
549	4592.9	
549.19	6500.9	
549.39	6747.4	
549.58	4274.8	
549.78	4956.8	
549.97	6872.3	
550.17	6386.9	
550.36	5908.4	
550.55	6868.2	
550.75	6436.8	
550.94	7263.5	
551.14	4580.6	
551.33	5081	
551.53	5750	
551.72	6731	
551.92	5040.1	
552.11	4754.7	
552.31	6823.1	
552.5	6834.8	
552.69	6612.9	
552.89	4556	
553.08	6775.4	
553.28	6451.1	
553.47	4975.9	
553.67	5998.5	
553.86	7557	
554.06	5734.3	
554.25	4070.7	
554.44	4601.1	
554.64	8178.9	
554.83	7718.8	
555.03	4598.4	
555.22	5044.8	
555.42	7008.8	
555.61	6709.8	
555.8	4859.1	
556	5216.9	
556.19	5861.3	
556.39	7193.8	
556.58	4965	
556.78	4936.3	
556.97	6574	
557.16	6238.1	
557.36	6205.3	
557.55	4464.6	
557.75	5622.4	
557.94	7396.6	
558.13	4713.1	
558.33	4437.3	
558.52	7172	
558.72	6004	
558.91	4584	
559.1	4859.1	
559.3	5769.1	
559.49	5518.6	
559.69	4123.2	
559.88	5214.1	
560.07	6665.5	
560.27	7106.5	
560.46	5401.9	
560.66	5524.1	
560.85	6459.3	
561.04	5621.7	
561.24	4569	
561.43	4831.8	
561.63	5905.7	
561.82	6249.7	
562.01	6049.7	
562.21	5096	
562.4	6680.5	
562.59	7535.8	
562.79	4949.3	
562.98	4602.5	
563.18	6486.6	
563.37	7909.3	
563.56	5392.3	
563.76	4407.2	
563.95	5943.9	
564.14	5921.4	
564.34	4835.3	
564.53	4631.1	
564.73	6569.9	
564.92	6887.3	
565.11	5001.1	
565.31	4386.7	
565.5	7096.9	
565.69	6038.1	
565.89	4576.5	
566.08	4873.5	
566.27	6970.6	
566.47	7374.7	
566.66	5548.6	
566.85	4143.7	
567.05	6436.8	
567.24	5855.8	
567.44	4447.5	
567.63	5956.2	
567.82	6799.9	
568.02	6498.2	
568.21	4438.6	
568.4	4891.9	
568.6	6279.8	
568.79	6375.3	
568.98	4272.7	
569.18	4470	
569.37	6229.9	
569.56	8316.8	
569.76	4835.3	
569.95	5796.4	
570.14	6686.6	
570.34	6503	
570.53	4373.1	
570.72	4288.4	
570.91	7071.6	
571.11	6226.5	
571.3	4773.8	
571.49	5764.3	
571.69	6256.5	
571.88	5820.3	
572.07	5365.7	
572.27	5426.4	
572.46	5813.5	
572.65	6870.3	
572.85	4494.6	
573.04	4896.7	
573.23	7036.8	
573.43	6305	
573.62	4312.3	
573.81	4995.7	
574	6346.7	
574.2	6165.8	
574.39	4539	
574.58	4753.3	
574.78	7117.4	
574.97	6353.5	
575.16	5070.1	
575.36	5354.1	
575.55	6647.7	
575.74	6808.8	
575.93	4171.7	
576.13	5277.6	
576.32	6098.2	
576.51	6675	
576.71	4608.6	
576.9	5981.4	
577.09	7048.4	
577.28	6578.1	
577.48	5102.2	
577.67	4071.4	
577.86	6142.5	
578.05	6421.7	
578.25	4648.9	
578.44	4856.4	
578.63	6281.1	
578.83	7423.9	
579.02	4112.3	
579.21	5612.1	
579.4	6482.5	
579.6	6125.5	
579.79	4948.6	
579.98	7151.5	
580.17	6817	
580.37	6834.8	
580.56	4323.3	
580.75	5089.2	
580.94	7305.8	
581.14	7173.4	
581.33	5610.1	
581.52	4475.5	
581.71	6644.3	
581.91	7382.2	
582.1	4124.6	
582.29	4795	
582.48	6328.2	
582.68	6141.9	
582.87	5225.7	
583.06	4844.1	
583.25	6597.9	
583.45	6316.6	
583.64	5470.8	
583.83	6190.3	
584.02	6067.4	
584.21	6510.5	
584.41	5582.1	
584.6	4807.3	
584.79	6247.7	
584.98	7047.1	
585.18	4227	
585.37	4219.5	
585.56	5810.8	
585.75	6601.3	
585.94	4510.3	
586.14	5072.8	
586.33	7236.2	
586.52	6285.2	
586.71	4964.3	
586.91	4745.1	
587.1	5740.5	
587.29	6735.8	
587.48	4780	
587.67	4540.3	
587.87	6585.6	
588.06	6697.5	
588.25	6045.6	
588.44	5325.4	
588.63	6300.2	
588.83	6916	
589.02	4782.7	
589.21	4714.4	
589.4	6193.7	
589.59	6036	
589.78	4050.9	
589.98	4357.4	
590.17	5928.2	
590.36	6468.2	
590.55	3857	
590.74	4861.2	
590.94	7884.7	
591.13	6505	
591.32	4582	
591.51	4097.3	
591.7	6944.7	
591.89	6307.1	
592.09	4160.1	
592.28	4700.8	
592.47	5575.3	
592.66	7365.2	
592.85	4134.2	
593.05	4429.1	
593.24	6244.9	
593.43	6927.6	
593.62	4359.4	
593.81	4953.4	
594	6195.1	
594.19	6437.4	
594.39	4345.8	
594.58	4291.2	
594.77	6539.2	
594.96	7155.6	
595.15	4242.7	
595.34	4905.6	
595.54	6641.6	
595.73	5686.5	
595.92	3674.7	
596.11	4943.8	
596.3	7143.3	
596.49	5767.1	
596.68	4677.6	
596.88	5181.4	
597.07	6860	
597.26	5655.1	
597.45	4169.7	
597.64	5465.3	
597.83	5847	
598.02	6528.9	
598.22	4208.6	
598.41	4972.5	
598.6	6369.9	
598.79	5772.5	
598.98	4379.2	
599.17	5325.4	
599.36	6294.8	
599.55	7556.3	
599.74	6389	
599.94	6152.8	
600.13	6904.4	
600.32	5758.2	
600.51	4085.7	
600.7	4171	
600.89	7666.2	
601.08	7614.3	
601.27	4007.2	
601.47	5040.1	
601.66	6898.2	
601.85	7563.1	
602.04	4651.6	
602.23	5073.5	
602.42	5925.5	
602.61	6589.7	
602.8	4658.4	
602.99	4427	
603.18	6296.8	
603.37	6539.8	
603.57	5041.4	
603.76	5674.2	
603.95	7262.8	
604.14	6834.8	
604.33	4472.8	
604.52	4778.6	
604.71	6428.6	
604.9	6155.5	
605.09	5455.1	
605.28	5221	
605.47	7047.1	
605.66	6798.6	
605.86	5063.3	
606.05	4496.7	
606.24	7036.1	
606.43	5636.7	
606.62	4853.7	
606.81	5638.1	
607	6939.2	
607.19	6214.9	
607.38	4282.3	
607.57	4583.4	
607.76	6023.1	
607.95	5567.1	
608.14	4968.4	
608.33	5563	
608.52	6055.8	
608.72	6946.7	
608.91	4210.6	
609.1	4095.3	
609.29	6172.6	
609.48	5695.4	
609.67	5230.5	
609.86	4299.4	
610.05	5754.1	
610.24	6149.4	
610.43	4020.2	
610.62	3672	
610.81	7346.1	
611	7017.7	
611.19	4199	
611.38	4916.5	
611.57	6413.6	
611.76	7752.9	
611.95	4006.5	
612.14	3926.6	
612.33	6265.4	
612.52	5786.2	
612.71	4575.2	
612.9	3762.1	
613.09	5343.2	
613.28	7724.9	
613.47	4317.1	
613.66	5290.6	
613.85	6316.6	
614.04	5902.9	
614.24	4388.8	
614.43	3611.9	
614.62	6467.5	
614.81	6483.2	
615	5006.6	
615.19	4992.9	
615.38	5778	
615.57	6092	
615.76	4826.4	
615.95	5859.9	
616.14	6561	
616.33	6147.3	
616.52	5095.3	
616.71	5444.2	
616.9	6535.8	
617.09	6244.9	
617.28	4461.8	
617.47	5771.2	
617.66	5556.1	
617.85	5604.6	
618.04	5337.7	
618.22	4783.4	
618.41	5881.1	
618.6	6687.3	
618.79	4659.8	
618.98	4297.3	
619.17	7095.5	
619.36	5344.5	
619.55	4466.6	
619.74	4515.8	
619.93	6266.8	
620.12	5694.7	
620.31	5001.8	
620.5	5165.7	
620.69	6909.2	
620.88	7171.3	
621.07	5910.4	
621.26	4890.5	
621.45	6451.1	
621.64	6373.3	
621.83	4998.4	
622.02	4179.9	
622.21	6436.8	
622.4	6107.7	
622.59	5479	
622.78	5267.4	
622.97	5791	
623.16	6903.7	
623.35	4857.8	
623.54	4004.5	
623.72	6025.1	
623.91	6206.7	
624.1	5154.7	
624.29	3814.7	
624.48	7232.1	
624.67	6527.6	
624.86	4991.6	
625.05	4083.6	
625.24	7319.4	
625.43	5687.9	
625.62	6836.1	
625.81	4299.4	
626	6834.1	
626.19	6025.1	
626.38	5125.4	
626.56	4551.3	
626.75	5840.1	
626.94	6567.2	
627.13	5101.5	
627.32	3830.4	
627.51	6522.8	
627.7	7912.7	
627.89	3994.2	
628.08	5200.5	
628.27	5669.5	
628.46	5958.9	
628.65	4328	
628.83	3900.7	
629.02	6557.6	
629.21	5798.5	
629.4	4703.5	
629.59	4949.9	
629.78	5670.1	
629.97	6668.9	
630.16	4983.4	
630.35	4445.5	
630.54	7150.1	
630.72	6824.5	
630.91	4323.9	
631.1	4966.3	
631.29	6307.7	
631.48	6445	
631.67	5097.4	
631.86	4578.6	
632.05	5870.8	
632.24	5964.4	
632.42	4206.5	
632.61	4838.7	
632.8	6086.6	
632.99	5687.2	
633.18	4761.5	
633.37	5230.5	
633.56	6259.3	
633.75	6124.8	
633.93	4829.8	
634.12	4457.7	
634.31	7119.4	
634.5	6752.8	
634.69	4504.2	
634.88	5051.7	
635.07	6093.4	
635.25	6610.8	
635.44	5493.3	
635.63	5651	
635.82	5909.8	
636.01	5457.2	
636.2	5393	
636.39	4943.8	
636.57	7021.1	
636.76	6814.3	
636.95	4358.8	
637.14	5720	
637.33	6429.3	
637.52	7344.7	
637.7	4098.7	
637.89	5115.8	
638.08	5965.1	
638.27	7534.5	
638.46	5160.2	
638.65	5711.8	
638.83	7467.6	
639.02	5782.1	
639.21	5162.9	
639.4	5643.5	
639.59	6374	
639.78	5989.6	
639.96	4450.9	
640.15	4412.7	
640.34	6261.3	
640.53	6457.9	
640.72	4198.3	
640.91	4574.5	
641.09	5752.7	
641.28	7107.8	
641.47	4463.9	
641.66	5406.6	
641.85	6414.9	
642.03	6696.9	
642.22	5217.5	
642.41	4685.1	
642.6	5828.5	
642.79	5259.2	
642.97	4448.9	
643.16	5193	
643.35	5836.7	
643.54	5664.7	
643.73	4390.8	
643.91	5255.1	
644.1	5571.8	
644.29	6096.1	
644.48	4552.6	
644.67	4577.9	
644.85	5804.6	
645.04	6093.4	
645.23	4156.7	
645.42	4480.3	
645.6	5743.9	
645.79	6924.2	
645.98	4567	
646.17	3588	
646.36	5498.1	
646.54	6213.5	
646.73	5408	
646.92	4209.9	
647.11	5817.6	
647.29	6944.7	
647.48	4282.3	
647.67	4086.4	
647.86	7177.4	
648.05	7162.4	
648.23	4682.3	
648.42	6045.6	
648.61	6460	
648.8	6193.1	
648.98	4304.1	
649.17	4616.1	
649.36	5829.2	
649.55	5279.7	
649.73	4330.8	
649.92	5115.8	
650.11	5584.8	
650.3	6052.4	
650.48	4453.6	
650.67	4180.6	
650.86	6313.2	
651.05	5289.9	
651.23	4411.3	
651.42	4423.6	
651.61	5803.9	
651.79	5959.6	
651.98	4607.2	
652.17	4280.9	
652.36	6316.6	
652.54	5347.9	
652.73	4300.7	
652.92	4190.8	
653.11	6371.2	
653.29	6385.6	
653.48	3598.3	
653.67	4636.6	
653.85	6158.9	
654.04	7248.4	
654.23	4906.3	
654.42	4491.2	
654.6	5754.8	
654.79	6447	
654.98	4022.9	
655.16	4655	
655.35	5464.7	
655.54	5374.6	
655.73	4111.6	
655.91	4117.8	
656.1	6629.3	
656.29	5317.9	
656.47	3609.9	
656.66	5370.5	
656.85	5601.2	
657.03	5600.5	
657.22	4098	
657.41	4228.4	
657.59	5713.8	
657.78	5492	
657.97	3777.1	
658.16	4509.6	
658.34	6283.9	
658.53	6683.2	
658.72	5450.3	
658.9	5946.6	
659.09	5725.4	
659.28	5856.5	
659.46	4283	
659.65	4202.4	
659.84	5554.1	
660.02	6079.7	
660.21	4132.8	
660.4	4043.4	
660.58	6505.7	
660.77	5883.1	
660.96	4682.3	
661.14	3671.3	
661.33	7048.4	
661.52	6943.3	
661.7	3609.2	
661.89	7393.8	
662.08	5490.6	
662.26	5031.9	
662.45	3950.5	
662.64	4080.9	
662.82	6225.1	
663.01	5438.7	
663.2	4188.8	
663.38	4906.9	
663.57	6170.5	
663.75	5963.7	
663.94	4444.1	
664.13	5795.8	
664.31	5454.4	
664.5	6202.6	
664.69	4666	
664.87	5343.8	
665.06	5257.8	
665.25	5997.1	
665.43	5530.2	
665.62	5606.7	
665.8	6392.4	
665.99	5655.1	
666.18	4467.3	
666.36	4614.8	
666.55	6252.4	
666.74	6237.4	
666.92	4106.9	
667.11	5825.1	
667.29	5638.1	
667.48	6315.3	
667.67	5356.8	
667.85	4549.9	
668.04	5751.4	
668.22	5679.7	
668.41	4569	
668.6	4717.8	
668.78	5483.1	
668.97	5714.5	
669.15	4920.6	
669.34	3902.7	
669.53	5467.4	
669.71	5834	
669.9	4104.8	
670.08	4788.2	
670.27	5536.3	
670.46	6103.6	
670.64	4896	
670.83	5219.6	
671.01	5421.7	
671.2	6017.6	
671.38	4223.6	
671.57	4035.9	
671.76	6649.1	
671.94	7277.1	
672.13	3958	
672.31	5119.9	
672.5	6207.4	
672.69	5519.3	
672.87	4164.9	
673.06	4478.9	
673.24	6012.8	
673.43	5543.2	
673.61	4931.5	
673.8	4471.4	
673.98	6256.5	
674.17	6447	
674.36	5080.3	
674.54	4896	
674.73	6042.2	
674.91	6252.4	
675.1	4622.3	
675.28	4251.6	
675.47	5806	
675.65	6305.7	
675.84	4476.9	
676.03	4772.4	
676.21	5610.1	
676.4	5074.2	
676.58	5292	
676.77	4976.6	
676.95	7016.3	
677.14	5517.9	
677.32	4207.2	
677.51	3897.3	
677.69	6263.4	
677.88	5147.2	
678.06	4003.8	
678.25	4173.1	
678.44	5808	
678.62	5537.7	
678.81	3859.1	
678.99	4823	
679.18	6627.9	
679.36	6150.1	
679.55	4399.7	
679.73	5113.1	
679.92	6146	
680.1	5542.5	
680.29	5698.1	
680.47	4417.5	
680.66	5533.6	
680.84	6315.9	
681.03	3745.1	
681.21	4884.4	
681.4	5556.8	
681.58	5496.7	
681.77	4227.7	
681.95	4083.6	
682.14	6427.2	
682.32	6773.3	
682.51	5119.9	
682.69	3950.5	
682.88	5476.3	
683.06	6233.3	
683.25	4803.2	
683.43	5350.7	
683.62	5782.8	
683.8	6171.9	
683.99	5420.3	
684.17	4658.4	
684.36	7025.2	
684.54	5750	
684.73	3908.2	
684.91	4132.8	
685.1	6167.1	
685.28	5567.7	
685.46	4751.3	
685.65	4915.8	
685.83	6441.5	
686.02	5825.1	
686.2	4293.2	
686.39	4446.8	
686.57	5679.7	
686.76	7090.1	
686.94	4314.4	
687.13	4384	
687.31	6279.1	
687.5	5724.8	
687.68	3876.8	
687.86	5182	
688.05	7419.8	
688.23	5253	
688.42	5249.6	
688.6	4275.5	
688.79	5616.9	
688.97	5601.9	
689.16	4734.2	
689.34	3684.3	
689.52	6413.6	
689.71	6690.7	
689.89	4934.9	
690.08	4250.2	
690.26	5925.5	
690.45	5771.2	
690.63	5227.8	
690.81	4367.6	
691	5630.5	
691.18	5571.2	
691.37	4567.7	
691.55	6889.4	
691.74	5550.7	
691.92	7645.8	
692.1	4634.6	
692.29	4072.7	
692.47	5805.3	
692.66	5087.8	
692.84	4248.2	
693.02	4879.6	
693.21	5146.5	
693.39	5754.1	
693.58	4917.9	
693.76	4319.2	
693.94	6917.4	
694.13	6637.5	
694.31	4201.1	
694.5	5382.7	
694.68	5442.1	
694.86	5816.9	
695.05	4543.8	
695.23	4956.8	
695.42	6140.5	
695.6	8484.7	
695.78	5185.5	
695.97	4204.5	
696.15	6158.9	
696.34	5604.6	
696.52	4099.4	
696.7	4924.7	
696.89	5963.7	
697.07	5393	
697.25	4863.9	
697.44	6475.7	
697.62	5956.9	
697.81	6348	
697.99	4545.8	
698.17	5035.3	
698.36	5290.6	
698.54	5989.6	
698.72	4888.5	
698.91	3841.3	
699.09	5563.6	
699.28	5431.2	
699.46	4545.1	
699.64	4489.8	
699.83	5384.8	
700.01	6686.6	
700.19	5229.1	
700.38	3617.4	
700.56	6598.6	
700.74	5448.3	
700.93	4066.6	
701.11	4869.4	
701.29	6062.7	
701.48	7079.8	
701.66	4240.7	
701.84	4233.2	
702.03	5570.5	
702.21	6260.6	
702.39	3807.2	
702.58	4330.8	
702.76	5937.7	
702.94	6096.8	
703.13	3784	
703.31	6333.7	
703.49	5279	
703.68	6866.2	
703.86	4004.5	
704.04	4984.8	
704.23	5791	
704.41	6145.3	
704.59	4162.8	
704.78	5483.1	
704.96	6892.8	
705.14	6208.1	
705.33	3885.7	
705.51	4808.6	
705.69	5621	
705.87	6509.8	
706.06	5079	
706.24	3831.1	
706.42	5876.3	
706.61	6193.1	
706.79	5145.2	
706.97	3939.6	
707.16	5381.4	
707.34	6027.2	
707.52	5156.8	
707.7	4183.3	
707.89	5674.9	
708.07	5240.8	
708.25	5033.2	
708.44	5195	
708.62	5452.4	
708.8	6686.6	
708.98	5339.7	
709.17	4237.9	
709.35	5866.1	
709.53	5915.9	
709.72	3973.7	
709.9	4136.9	
710.08	6178	
710.26	6243.6	
710.45	5754.8	
710.63	4301.4	
710.81	5870.2	
710.99	5903.6	
711.18	5012.7	
711.36	4477.5	
711.54	5692	
711.72	6472.3	
711.91	4563.6	
712.09	3977.8	
712.27	5900.9	
712.45	6612.9	
712.64	4952.7	
712.82	3821.5	
713	5363.6	
713.18	5597.1	
713.37	4091.8	
713.55	5449.6	
713.73	6604.7	
713.91	5143.1	
714.1	4547.9	
714.28	4035.9	
714.46	6380.1	
714.64	5492.7	
714.83	3633.1	
715.01	4517.1	
715.19	5689.9	
715.37	5169.1	
715.55	4192.9	
715.74	4547.2	
715.92	6789	
716.1	4691.2	
716.28	5754.1	
716.47	4799.1	
716.65	5356.8	
716.83	5617.6	
717.01	4595.6	
717.19	4714.4	
717.38	7670.3	
717.56	5185.5	
717.74	4850.3	
717.92	3930.1	
718.1	6494.8	
718.29	5593.7	
718.47	3535.5	
718.65	4213.4	
718.83	6195.1	
719.01	6079.1	
719.2	3278.1	
719.38	4425.7	
719.56	5821	
719.74	7371.3	
719.92	3999	
720.11	5098.8	
720.29	5866.1	
720.47	4979.3	
720.65	3665.9	
720.83	4528.1	
721.02	5429.2	
721.2	5182.7	
721.38	4665.3	
721.56	3887	
721.74	4713.1	
721.92	4985.4	
722.11	5309.7	
722.29	4840	
722.47	6249	
722.65	5368.4	
722.83	3936.2	
723.01	4914.4	
723.2	5515.2	
723.38	5745.2	
723.56	3360	
723.74	4502.8	
723.92	4923.3	
724.1	6195.1	
724.29	3904.8	
724.47	5078.3	
724.65	5007.3	
724.83	4992.9	
725.01	3823.6	
725.19	4704.2	
725.37	5065.3	
725.56	5134.3	
725.74	3631.7	
725.92	3872	
726.1	4956.8	
726.28	5281	
726.46	4356.7	
726.64	4029.7	
726.83	5247.6	
727.01	5522	
727.19	3622.9	
727.37	4505.5	
727.55	5419.6	
727.73	5888.6	
727.91	3603.7	
728.09	3433.1	
728.28	5915.2	
728.46	6572.6	
728.64	4627.7	
728.82	4503.5	
729	7051.2	
729.18	6247	
729.36	3655.6	
729.54	6116.6	
729.72	7252.5	
729.91	5528.2	
730.09	5689.3	
730.27	4283	
730.45	5417.6	
730.63	5976.7	
730.81	4956.1	
730.99	3943.7	
731.17	6541.9	
731.35	5042.8	
731.53	4531.5	
731.71	4104.8	
731.9	6268.8	
732.08	6431.3	
732.26	4426.3	
732.44	4007.2	
732.62	6571.9	
732.8	5946.6	
732.98	4852.3	
733.16	3801	
733.34	6013.5	
733.52	4812	
733.7	4434.5	
733.88	4691.9	
734.07	5868.1	
734.25	5627.1	
734.43	3787.4	
734.61	5466	
734.79	7092.1	
734.97	5431.9	
735.15	3978.5	
735.33	4414.7	
735.51	5876.3	
735.69	5451.7	
735.87	5553.4	
736.05	4593.6	
736.23	5737.7	
736.41	5488.6	
736.59	4395.6	
736.77	4592.9	
736.95	6161.7	
737.13	5489.9	
737.32	4064.5	
737.5	4261.8	
737.68	6806.1	
737.86	5477	
738.04	3873.4	
738.22	5744.6	
738.4	5244.8	
738.58	5637.4	
738.76	4563.6	
738.94	3454.2	
739.12	5421	
739.3	5247.6	
739.48	5165.7	
739.66	4903.5	
739.84	5713.8	
740.02	5690.6	
740.2	3530	
740.38	3962.1	
740.56	6102.9	
740.74	4919.9	
740.92	4608.6	
741.1	4614.8	
741.28	5509.7	
741.46	5360.9	
741.64	4183.3	
741.82	4744.5	
742	5553.4	
742.18	5547.9	
742.36	4455.7	
742.54	3939.6	
742.72	6129.6	
742.9	4861.9	
743.08	4851.6	
743.26	3565.5	
743.44	6370.5	
743.62	6231.3	
743.8	4958.8	
743.98	4040	
744.16	5971.2	
744.34	5651	
744.52	4875.5	
744.7	4870.1	
744.88	6106.4	
745.06	5623	
745.24	5001.1	
745.42	5104.9	
745.6	6187.6	
745.78	6028.5	
745.96	3824.2	
746.14	4140.3	
746.32	6971.3	
746.5	6253.1	
746.68	4729.4	
746.86	4179.2	
747.03	6706.4	
747.21	5006.6	
747.39	4749.9	
747.57	4230.4	
747.75	5849.7	
747.93	6345.3	
748.11	4253.6	
748.29	4062.5	
748.47	7492.8	
748.65	5549.3	
748.83	4883.7	
749.01	4628.4	
749.19	6083.8	
749.37	5282.4	
749.55	4450.2	
749.73	4581.3	
749.91	5722	
750.09	5468.1	
750.26	4670.7	
750.44	4069.3	
750.62	5815.5	
750.8	5775.3	
750.98	3889.8	
751.16	4277.5	
751.34	5836.7	
751.52	5170.4	
751.7	5077.6	
751.88	3863.2	
752.06	6310.5	
752.24	6146	
752.42	3812.6	
752.59	4249.5	
752.77	5787.6	
752.95	7045.7	
753.13	5001.8	
753.31	4353.3	
753.49	5408.7	
753.67	5961	
753.85	4670.7	
754.03	4265.9	
754.21	6237.4	
754.38	6585.6	
754.56	4517.1	
754.74	3487	
754.92	5526.1	
755.1	6288.6	
755.28	3633.1	
755.46	3674.1	
755.64	7129	
755.82	7330.4	
755.99	4025.6	
756.17	4212.7	
756.35	4817.5	
756.53	6473.6	
756.71	3159.3	
756.89	4108.2	
757.07	6040.1	
757.25	5042.1	
757.42	4642.7	
757.6	5495.4	
757.78	6010.8	
757.96	4937	
758.14	4190.1	
758.32	3697.3	
758.5	4508.9	
758.67	5412.1	
758.85	4084.3	
759.03	4234.5	
759.21	5607.3	
759.39	4970.4	
759.57	3637.9	
759.75	4901.5	
759.92	6222.4	
760.1	5462.6	
760.28	5222.3	
760.46	5395	
760.64	5169.1	
760.82	4957.4	
760.99	4957.4	
761.17	4142.4	
761.35	6007.4	
761.53	4982	
761.71	4229.1	
761.89	4986.8	
762.06	5884.5	
762.24	5329.5	
762.42	4259.1	
762.6	4009.9	
762.78	5375.2	
762.96	5328.1	
763.13	4698	
763.31	4319.2	
763.49	6176.7	
763.67	5283.8	
763.85	5223	
764.02	5794.4	
764.2	6430.6	
764.38	5645.6	
764.56	4270.7	
764.74	5182.7	
764.91	6655.2	
765.09	5483.1	
765.27	3905.5	
765.45	3693.9	
765.63	6642.2	
765.8	6526.2	
765.98	3369.6	
766.16	3752.6	
766.34	5001.8	
766.52	4754.7	
766.69	4797.7	
766.87	3579.2	
767.05	5485.1	
767.23	6275.7	
767.41	3912.3	
767.58	4247.5	
767.76	6071.5	
767.94	6154.8	
768.12	4059.1	
768.29	4911	
768.47	5539.8	
768.65	6281.8	
768.83	3665.9	
769	4923.3	
769.18	5126.1	
769.36	5887.2	
769.54	4711	
769.72	3748.5	
769.89	6152.8	
770.07	6338.5	
770.25	4118.5	
770.43	5483.8	
770.6	6989.7	
770.78	7397.9	
770.96	4282.3	
771.14	4982.7	
771.31	6120.7	
771.49	5416.9	
771.67	3476.8	
771.85	3735.5	
772.02	4663.9	
772.2	5463.3	
772.38	4495.3	
772.55	3956	
772.73	5692	
772.91	5519.3	
773.09	4363.5	
773.26	4462.5	
773.44	5708.4	
773.62	5397.1	
773.8	3889.1	
773.97	3633.1	
774.15	5828.5	
774.33	5376.6	
774.5	3785.3	
774.68	4174.4	
774.86	5990.3	
775.04	5398.4	
775.21	3887	
775.39	3892.5	
775.57	5720	
775.74	6204	
775.92	3768.9	
776.1	3640.6	
776.27	5724.1	
776.45	6967.9	
776.63	3911.6	
776.81	3396.9	
776.98	5331.5	
777.16	6497.5	
777.34	4047.5	
777.51	4050.9	
777.69	5372.5	
777.87	5131.5	
778.04	4102.8	
778.22	4777.2	
778.4	5121.3	
778.57	5868.1	
778.75	3343	
778.93	3644.7	
779.1	4956.1	
779.28	4840	
779.46	3397.6	
779.64	3919.8	
779.81	5991.7	
779.99	6946	
780.17	4723.3	
780.34	4911	
780.52	5470.1	
780.69	5696.8	
780.87	4194.9	
781.05	3777.1	
781.22	5486.5	
781.4	5586.9	
781.58	3940.3	
781.75	3110.9	
781.93	5596.4	
782.11	4939.7	
782.28	4919.2	
782.46	3924.6	
782.64	4777.9	
782.81	5819.6	
782.99	4071.4	
783.17	4012	
783.34	5563	
783.52	4816.1	
783.69	4270	
783.87	5143.8	
784.05	4859.8	
784.22	4981.3	
784.4	5079.6	
784.58	4353.3	
784.75	5952.1	
784.93	4965.6	
785.1	4002.4	
785.28	4657.8	
785.46	5609.4	
785.63	4968.4	
785.81	3986.7	
785.99	3871.3	
786.16	5130.8	
786.34	5592.3	
786.51	3816	
786.69	4300.7	
786.87	4664.6	
787.04	5259.2	
787.22	3692.5	
787.39	4721.3	
787.57	4950.6	
787.75	6160.3	
787.92	4919.2	
788.1	4831.2	
788.27	5001.1	
788.45	4764.9	
788.63	4572.4	
788.8	3255.6	
788.98	5565.7	
789.15	4716.5	
789.33	3392.8	
789.5	4040.6	
789.68	5879	
789.86	6027.2	
790.03	4505.5	
790.21	3875.4	
790.38	5901.6	
790.56	5143.8	
790.73	3728.7	
790.91	3788.7	
791.09	5017.5	
791.26	5887.2	
791.44	3999.7	
791.61	3413.3	
791.79	5001.1	
791.96	5087.2	
792.14	3537.5	
792.32	3111.5	
792.49	4990.9	
792.67	5130.2	
792.84	3617.4	
793.02	3478.1	
793.19	5481	
793.37	6189	
793.54	3142.3	
793.72	3560.1	
793.89	6399.9	
794.07	5036.6	
794.25	4179.9	
794.42	3261.7	
794.6	6176	
794.77	5729.5	
794.95	4468.7	
795.12	3935.5	
795.3	5063.9	
795.47	5704.3	
795.65	4306.2	
795.82	4089.1	
796	4814.1	
796.17	6809.5	
796.35	3917.8	
796.52	4688.5	
796.7	5578	
796.87	5729.5	
797.05	4951.3	
797.22	4810.7	
797.4	5672.2	
797.57	6696.2	
797.75	4065.2	
797.92	3843.4	
798.1	5958.9	
798.27	4998.4	
798.45	3305.4	
798.62	3531.4	
798.8	5351.3	
798.97	5896.1	
799.15	4374.5	
799.32	4078.2	
799.5	4599.1	
799.67	5395.7	
799.85	4450.2	
800.02	3236.5	
800.2	5029.8	
800.37	5370.5	
800.55	4611.3	
800.72	3822.9	
800.9	5843.5	
801.07	6235.4	
801.25	5177.9	
801.42	4248.9	
801.6	5844.2	
801.77	5594.4	
801.95	3925.3	
802.12	3773.7	
802.29	5532.9	
802.47	5461.9	
802.64	4220.2	
802.82	3195.5	
802.99	5010	
803.17	6069.5	
803.34	4100.7	
803.52	3667.2	
803.69	6797.9	
803.87	4788.8	
804.04	4052.2	
804.21	4199	
804.39	6205.3	
804.56	5241.4	
804.74	3442	
804.91	4310.3	
805.09	5040.1	
805.26	5133.6	
805.44	3545.7	
805.61	3906.2	
805.78	5691.3	
805.96	5866.7	
806.13	4294.6	
806.31	4633.2	
806.48	4579.9	
806.66	5158.8	
806.83	4286.4	
807	4151.9	
807.18	4986.1	
807.35	5464	
807.53	4143.7	
807.7	3254.9	
807.87	6281.1	
808.05	5117.9	
808.22	4614.1	
808.4	3226.2	
808.57	5108.3	
808.74	4743.1	
808.92	3818.8	
809.09	4790.2	
809.27	4952.7	
809.44	5603.9	
809.61	3327.9	
809.79	3719.1	
809.96	6307.7	
810.14	5844.2	
810.31	3227.6	
810.48	3971.7	
810.66	5208	
810.83	5995.1	
811.01	3735.5	
811.18	4207.9	
811.35	5854.5	
811.53	4540.3	
811.7	4633.2	
811.87	4368.3	
812.05	5098.8	
812.22	4989.5	
812.39	3653.6	
812.57	3566.2	
812.74	5124	
812.92	6866.2	
813.09	3978.5	
813.26	4413.4	
813.44	6565.8	
813.61	5033.2	
813.78	3339.6	
813.96	4525.3	
814.13	5137.7	
814.3	4764.3	
814.48	4836.6	
814.65	3963.5	
814.82	6307.7	
815	4822.3	
815.17	4090.5	
815.34	5030.5	
815.52	5012.7	
815.69	5061.2	
815.87	4149.9	
816.04	3467.2	
816.21	5151.3	
816.38	4464.6	
816.56	3957.4	
816.73	3654.3	
816.9	6488.6	
817.08	5920.7	
817.25	3687.7	
817.42	4695.3	
817.6	4645.5	
817.77	5142.4	
817.94	4229.7	
818.12	3621.5	
818.29	4805.2	
818.46	7681.9	
818.64	3889.8	
818.81	3632.4	
818.98	4758.8	
819.16	7017	
819.33	4436.6	
819.5	4084.3	
819.67	5479.7	
819.85	6103.6	
820.02	4024.9	
820.19	4291.9	
820.37	5318.6	
820.54	4899.4	
820.71	4115.7	
820.88	5205.9	
821.06	5303.6	
821.23	4850.3	
821.4	4225	
821.58	4166.3	
821.75	5829.9	
821.92	5274.9	
822.09	3347.1	
822.27	3538.2	
822.44	5108.3	
822.61	4978.6	
822.79	3304.7	
822.96	6535.8	
823.13	5598.5	
823.3	4820.9	
823.48	3923.2	
823.65	3536.2	
823.82	5831.2	
823.99	4651.6	
824.17	4919.9	
824.34	3580.5	
824.51	6787.7	
824.68	5162.2	
824.86	3790.8	
825.03	4185.4	
825.2	5045.5	
825.37	6194.4	
825.55	3689.8	
825.72	4130.1	
825.89	6856.6	
826.06	6305	
826.24	4053.6	
826.41	4057	
826.58	6229.9	
826.75	5423	
826.92	3170.3	
827.1	3500.7	
827.27	8542.1	
827.44	6778.1	
827.61	3837.9	
827.79	4623.6	
827.96	4786.1	
828.13	5225.7	
828.3	3994.2	
828.47	3296.5	
828.65	5309.7	
828.82	5367.7	
828.99	5156.1	
829.16	4568.3	
829.34	5714.5	
829.51	5496.1	
829.68	4171.7	
829.85	4292.5	
830.02	6014.2	
830.2	5748.6	
830.37	3199.6	
830.54	5076.2	
830.71	6533.7	
830.88	5083.1	
831.05	3197.6	
831.23	3750.5	
831.4	6238.8	
831.57	7035.5	
831.74	3874.8	
831.91	3342.3	
832.09	5360.9	
832.26	5719.3	
832.43	3958	
832.6	4466.6	
832.77	5315.2	
832.94	6206.7	
833.12	3153.2	
833.29	3878.2	
833.46	5520	
833.63	7268.9	
833.8	4364.9	
833.97	4007.2	
834.15	5780.1	
834.32	5485.1	
834.49	4155.3	
834.66	4263.9	
834.83	6040.1	
835	4780	
835.17	3810.6	
835.35	3888.4	
835.52	5666	
835.69	5492.7	
835.86	3994.2	
836.03	3334.8	
836.2	5664.7	
836.37	5293.3	
836.55	3956	
836.72	3715	
836.89	5225.1	
837.06	5704.3	
837.23	4045.4	
837.4	4467.3	
837.57	6571.2	
837.75	7324.9	
837.92	3607.8	
838.09	3862.5	
838.26	5257.8	
838.43	6028.5	
838.6	4209.9	
838.77	3699.3	
838.94	6893.5	
839.11	6584.9	
839.29	3917.1	
839.46	3131.3	
839.63	5727.5	
839.8	5421.7	
839.97	3828.3	
840.14	3864.5	
840.31	5469.4	
840.48	5756.2	
840.65	3169.6	
840.82	3779.2	
841	5699.5	
841.17	5721.3	
841.34	3545	
841.51	3630.4	
841.68	5636.7	
841.85	5347.9	
842.02	3692.5	
842.19	3013.2	
842.36	5489.9	
842.53	5418.9	
842.7	3571.7	
842.87	4354.7	
843.05	7192.5	
843.22	5412.8	
843.39	3374.4	
843.56	3641.3	
843.73	5142.4	
843.9	5780.7	
844.07	5794.4	
844.24	4823	
844.41	8588.5	
844.58	4925.4	
844.75	3442	
844.92	3721.2	
845.09	5696.1	
845.26	5677.7	
845.43	3502.7	
845.6	3756	
845.77	5759.6	
845.94	5403.9	
846.12	3926	
846.29	4147.8	
846.46	5914.5	
846.63	5706.3	
846.8	3502	
846.97	4181.3	
847.14	6217.6	
847.31	5713.2	
847.48	3956.7	
847.65	4392.9	
847.82	5990.3	
847.99	5935	
848.16	4743.1	
848.33	4404.5	
848.5	5296	
848.67	6202.6	
848.84	3492.5	
849.01	3680.9	
849.18	5154.1	
849.35	4780	
849.52	4388.1	
849.69	3431.7	
849.86	5915.9	
850.03	6121.4	
850.2	3548.4	
850.37	4359.4	
850.54	6079.1	
850.71	5403.2	
850.88	4196.3	
851.05	3493.2	
851.22	5571.8	
851.39	6279.8	
851.56	3305.4	
851.73	4035.2	
851.9	5019.6	
852.07	5982.8	
852.24	3893.9	
852.41	3496.6	
852.58	5552	
852.75	5051	
852.92	3966.9	
853.09	3439.9	
853.26	5270.8	
853.43	6170.5	
853.6	3514.3	
853.77	2972.3	
853.94	6275.7	
854.11	5670.1	
854.28	5228.5	
854.44	3790.1	
854.61	6707.1	
854.78	5817.6	
854.95	3484.3	
855.12	4436.6	
855.29	4561.5	
855.46	6374.6	
855.63	3515	
855.8	4900.8	
855.97	5228.5	
856.14	6075.6	
856.31	5051.7	
856.48	3856.3	
856.65	5236	
856.82	4937.7	
856.99	3344.3	
857.16	3785.3	
857.33	7068.9	
857.49	5335	
857.66	3799	
857.83	4087.1	
858	5331.5	
858.17	5470.8	
858.34	3308.8	
858.51	3547.1	
858.68	6452.5	
858.85	6484.6	
859.02	4020.8	
859.19	4364.9	
859.36	4957.4	
859.52	5063.3	
859.69	3492.5	
859.86	4141	
860.03	5061.2	
860.2	6307.1	
860.37	3186.6	
860.54	3562.1	
860.71	5968.5	
860.88	6348	
861.05	3930.7	
861.21	4437.3	
861.38	6413.6	
861.55	4918.5	
861.72	3208.5	
861.89	3932.1	
862.06	6027.9	
862.23	6530.3	
862.4	3418.7	
862.56	3702	
862.73	5756.2	
862.9	5509.7	
863.07	4134.2	
863.24	3136.1	
863.41	4861.2	
863.58	5055.8	
863.75	3611.3	
863.91	4064.5	
864.08	6326.2	
864.25	5838.8	
864.42	4476.9	
864.59	4919.9	
864.76	6691.4	
864.93	5005.9	
865.09	3446.7	
865.26	3774.4	
865.43	6158.2	
865.6	6617.7	
865.77	3094.5	
865.94	3482.2	
866.1	6277	
866.27	6014.9	
866.44	5331.5	
866.61	3282.9	
866.78	5442.1	
866.95	5881.1	
867.11	3374.4	
867.28	3155.2	
867.45	6034	
867.62	5134.9	
867.79	4058.4	
867.96	3491.8	
868.12	4955.4	
868.29	6042.2	
868.46	3519.1	
868.63	4730.1	
868.8	6169.8	
868.97	5900.9	
869.13	3687	
869.3	3684.3	
869.47	5873.6	
869.64	5996.5	
869.81	3586.7	
869.97	3577.1	
870.14	5730.9	
870.31	6443.6	
870.48	3385.3	
870.65	4419.5	
870.81	5352.7	
870.98	5302.9	
871.15	4010.6	
871.32	3609.9	
871.48	5850.4	
871.65	6361.7	
871.82	3487	
871.99	3811.3	
872.16	6851.8	
872.32	6184.9	
872.49	3580.5	
872.66	3558	
872.83	5944.6	
872.99	5227.8	
873.16	4082.3	
873.33	3494.5	
873.5	5587.5	
873.67	5580.7	
873.83	3686.3	
874	4782.7	
874.17	5760.3	
874.34	6829.3	
874.5	4650.3	
874.67	4426.3	
874.84	6374	
875.01	4969.1	
875.17	4971.1	
875.34	3513.6	
875.51	5627.8	
875.68	6842.9	
875.84	4229.1	
876.01	5179.3	
876.18	5921.4	
876.34	5868.8	
876.51	3527.3	
876.68	3472	
876.85	5421.7	
877.01	6197.2	
877.18	5093.3	
877.35	3528	
877.52	5524.1	
877.68	4902.8	
877.85	3422.2	
878.02	3470.6	
878.18	5514.5	
878.35	5174.5	
878.52	2801.6	
878.69	3894.6	
878.85	5896.8	
879.02	5945.9	
879.19	4971.8	
879.35	3795.6	
879.52	5926.1	
879.69	6128.2	
879.86	3042.6	
880.02	3981.3	
880.19	5461.9	
880.36	6591	
880.52	3966.9	
880.69	4169	
880.86	6044.2	
881.02	6144.6	
881.19	3915	
881.36	3869.3	
881.52	5847.6	
881.69	5139.7	
881.86	3752.6	
882.02	3733.4	
882.19	6122.7	
882.36	7230	
882.52	3602.4	
882.69	5042.8	
882.86	5657.9	
883.02	5560.9	
883.19	4291.9	
883.36	4107.5	
883.52	5963.7	
883.69	6933.1	
883.86	3575.8	
884.02	3169.6	
884.19	5974.6	
884.36	5475.6	
884.52	4003.1	
884.69	3765.5	
884.86	5182.7	
885.02	6630	
885.19	4016.1	
885.36	4091.8	
885.52	5537.7	
885.69	5637.4	
885.86	5169.1	
886.02	4532.2	
886.19	5985.5	
886.35	5444.2	
886.52	3908.9	
886.69	4999.1	
886.85	5085.1	
887.02	6371.2	
887.19	6371.2	
887.35	6371.2	
887.52	6371.2	
887.68	6371.2	
887.85	6371.2	
888.02	6371.2	
888.18	6371.2	
888.35	6371.2	
888.51	6371.2	
888.68	6371.2	
888.85	6371.2	
889.01	6371.2	
889.18	6371.2	
889.35	6371.2	
889.51	6371.2	
889.68	6371.2	
889.84	6371.2	
890.01	6371.2	
890.17	6371.2	
890.34	6371.2	
890.51	6371.2	
890.67	6371.2	
890.84	6371.2	
891	6371.2	
891.17	6371.2	
891.34	6371.2	
891.5	6371.2	
891.67	6371.2	
891.83	6371.2	
892	6371.2	
892.16	6371.2	
892.33	6371.2	
892.5	6371.2	
892.66	6371.2	
892.83	6371.2	
892.99	6371.2	
893.16	6371.2	
893.32	6371.2	
893.49	6371.2	
893.65	6371.2	
893.82	6371.2	
893.99	6371.2	
894.15	6371.2	
894.32	6371.2	
894.48	6371.2	
894.65	6371.2	
894.81	6371.2	
894.98	6371.2	
895.14	6371.2	
895.31	6371.2	
895.47	6371.2	
895.64	6371.2	
895.81	6371.2	
895.97	6371.2	
896.14	6371.2	
896.3	6371.2	
896.47	6371.2	
896.63	6371.2	
896.8	6371.2	
896.96	6371.2	
897.13	6371.2	
897.29	6371.2	
897.46	6371.2	
897.62	6371.2	
897.79	6371.2	
897.95	6371.2	
898.12	6371.2	
898.28	6371.2	
898.45	6371.2	
898.61	6371.2	
898.78	6371.2	
898.94	6371.2	
899.11	6371.2	
899.27	6371.2	
899.44	6371.2	
899.6	6371.2	
899.77	6371.2	
899.93	6371.2	
900.1	6371.2	
900.26	6371.2	
900.43	6371.2	
900.59	6371.2	
900.76	6371.2	
900.92	6371.2	
901.09	6371.2	
901.25	6371.2	
901.42	6371.2	
901.58	6371.2	
901.75	6371.2	
901.91	6371.2	
902.07	6371.2	
902.24	6371.2	
902.4	6371.2	
902.57	6371.2	
902.73	6371.2	
902.9	6371.2	
903.06	6371.2	
903.23	6371.2	
903.39	6371.2	
903.56	6371.2	
903.72	6371.2	
903.88	6371.2	
904.05	6371.2	
904.21	6371.2	
904.38	6371.2	
904.54	6371.2	
904.71	6371.2	
904.87	6371.2	
905.03	6371.2	
905.2	6371.2	
905.36	6371.2	
905.53	6371.2	
905.69	6371.2	
905.86	6371.2	
906.02	6371.2	
906.18	6371.2	
906.35	6371.2	
906.51	6371.2	
906.68	6371.2	
906.84	6371.2	
907.01	6371.2	
907.17	6371.2	
907.33	6371.2	
907.5	6371.2	
907.66	6371.2	
907.83	6371.2	
907.99	6371.2	
908.15	6371.2	
908.32	6371.2	
908.48	6371.2	
908.65	6371.2	
908.81	6371.2	
908.97	6371.2	
909.14	6371.2	
909.3	6371.2	
909.47	6371.2	
909.63	6371.2	
909.79	6371.2	
909.96	6371.2	
910.12	6371.2	
910.28	6371.2	
910.45	6371.2	
910.61	6371.2	
910.78	6371.2	
910.94	6371.2	
911.1	6371.2	
911.27	6371.2	
911.43	6371.2	
911.59	6371.2	
911.76	6371.2	
911.92	6371.2	
912.08	6371.2	
912.25	6371.2	
912.41	6371.2	
912.57	6371.2	
912.74	6371.2	
912.9	6371.2	
913.07	6371.2	
913.23	6371.2	
913.39	6371.2	
913.56	6371.2	
913.72	6371.2	
913.88	6371.2	
914.05	6371.2	
914.21	6371.2	
914.37	6371.2	
914.54	6371.2	
914.7	6371.2	
914.86	6371.2	
915.03	6371.2	
915.19	6371.2	
