Wavelength	Intensities	
nm	a.u.	
179.22	1453.4	
179.44	1465	
179.65	1441.8	
179.86	1488.2	
180.08	1539.4	
180.29	3204.4	
180.51	2593.4	
180.72	4436.6	
180.94	4816.1	
181.15	2338.8	
181.37	2339.5	
181.58	4191.5	
181.79	4330.1	
182.01	2407.7	
182.22	2459.6	
182.44	4477.5	
182.65	3917.1	
182.87	2922.5	
183.08	2675.3	
183.29	4625.7	
183.51	3946.4	
183.72	2430.3	
183.94	3222.1	
184.15	4177.9	
184.37	4054.3	
184.58	2299.2	
184.79	2768.2	
185.01	4040.6	
185.22	4528.1	
185.44	2947.7	
185.65	2641.9	
185.86	4261.8	
186.08	3962.1	
186.29	2252.1	
186.51	2360.6	
186.72	4090.5	
186.94	4530.1	
187.15	2611.2	
187.36	2674	
187.58	5393.7	
187.79	4296	
188.01	2676	
188.22	3825.6	
188.43	4805.2	
188.65	4341.7	
188.86	2407	
189.08	2747	
189.29	4050.9	
189.5	4018.1	
189.72	2495.1	
189.93	2562.7	
190.15	4509.6	
190.36	5049.6	
190.57	2722.4	
190.79	2568.8	
191	4499.4	
191.22	4497.3	
191.43	2781.1	
191.64	2390	
191.86	4648.2	
192.07	4476.9	
192.29	2392	
192.5	2480.8	
192.71	4529.4	
192.93	4135.5	
193.14	2499.2	
193.35	2540.2	
193.57	4063.9	
193.78	4493.9	
194	2098.5	
194.21	2465.8	
194.42	3861.8	
194.64	4225.6	
194.85	2639.8	
195.07	2976.4	
195.28	4172.4	
195.49	3829.7	
195.71	3118.4	
195.92	2378.4	
196.13	4389.5	
196.35	4337.6	
196.56	3255.6	
196.78	2708.1	
196.99	5143.8	
197.2	4734.2	
197.42	2904.7	
197.63	2674	
197.84	3882.9	
198.06	4335.5	
198.27	2533.3	
198.48	3084.9	
198.7	4083.6	
198.91	4303.5	
199.13	2686.9	
199.34	2698.5	
199.55	4590.9	
199.77	3710.2	
199.98	2422.1	
200.19	2687.6	
200.41	4166.9	
200.62	3979.2	
200.83	2755.9	
201.05	2966.1	
201.26	4173.8	
201.47	4098	
201.69	2454.8	
201.9	2469.2	
202.11	4218.1	
202.33	4672.8	
202.54	2506	
202.76	2807.1	
202.97	4188.1	
203.18	4310.3	
203.4	2776.4	
203.61	2830.3	
203.82	4257.7	
204.04	4001.7	
204.25	2667.1	
204.46	2657.6	
204.68	4203.1	
204.89	4339	
205.1	2579.8	
205.32	2379.7	
205.53	4363.5	
205.74	4508.3	
205.96	2164	
206.17	2701.3	
206.38	4321.2	
206.6	4465.9	
206.81	2925.2	
207.02	2541.5	
207.24	4356.7	
207.45	4607.2	
207.66	2589.3	
207.88	2329.2	
208.09	4323.3	
208.3	4164.9	
208.52	2448.7	
208.73	2618	
208.94	4179.2	
209.15	4556.7	
209.37	2596.1	
209.58	2618	
209.79	4464.6	
210.01	4113	
210.22	2191.3	
210.43	2317.6	
210.65	4167.6	
210.86	4371	
211.07	2572.2	
211.29	2411.1	
211.5	4278.2	
211.71	4190.8	
211.93	2472.6	
212.14	2419.3	
212.35	4189.5	
212.56	4143	
212.78	2692.4	
212.99	2316.9	
213.2	4697.4	
213.42	4117.8	
213.63	2486.2	
213.84	2579.1	
214.06	3965.6	
214.27	3863.2	
214.48	2595.5	
214.69	2711.5	
214.91	4569.7	
215.12	4536.9	
215.33	2628.9	
215.55	2867.2	
215.76	4877.6	
215.97	4343.1	
216.18	2621.4	
216.4	2665.1	
216.61	3983.3	
216.82	4455	
217.04	2451.4	
217.25	2518.3	
217.46	4541	
217.67	4425	
217.89	2217.3	
218.1	2316.9	
218.31	4194.9	
218.53	4337.6	
218.74	2563.4	
218.95	2465.1	
219.16	4199	
219.38	4708.3	
219.59	2456.9	
219.8	2821.4	
220.01	4974.5	
220.23	4237.9	
220.44	2994.8	
220.65	2407.7	
220.87	4274.8	
221.08	4574.5	
221.29	2379.7	
221.5	2876.7	
221.72	5143.8	
221.93	3956	
222.14	2714.2	
222.35	3091.8	
222.57	4186.7	
222.78	4502.8	
222.99	2660.3	
223.2	2706.7	
223.42	4339.6	
223.63	4382	
223.84	2087.6	
224.05	2147.6	
224.27	4825.7	
224.48	4620.9	
224.69	3091.1	
224.9	2684.2	
225.12	4283	
225.33	4149.9	
225.54	2263.7	
225.75	2489	
225.97	3991.5	
226.18	4152.6	
226.39	2531.3	
226.6	2444.6	
226.82	4098	
227.03	3921.9	
227.24	2637.8	
227.45	2254.1	
227.67	4482.3	
227.88	4573.8	
228.09	2937.5	
228.3	2867.8	
228.52	4377.2	
228.73	4184.7	
228.94	2506.7	
229.15	2359.9	
229.36	4209.3	
229.58	4207.9	
229.79	2622.1	
230	2850.1	
230.21	4837.3	
230.43	4212	
230.64	2624.1	
230.85	2732	
231.06	4470.7	
231.28	4459.1	
231.49	2336.7	
231.7	2680.1	
231.91	4405.9	
232.12	4177.2	
232.34	2464.4	
232.55	2637.1	
232.76	4543.8	
232.97	4224.3	
233.18	2482.1	
233.4	2697.9	
233.61	4257	
233.82	4055.7	
234.03	2512.2	
234.25	2501.3	
234.46	5258.5	
234.67	4244.1	
234.88	2678.1	
235.09	2478.7	
235.31	4210.6	
235.52	4160.1	
235.73	2601.6	
235.94	2353.8	
236.15	4066.6	
236.37	4791.6	
236.58	2402.3	
236.79	2597.5	
237	4377.2	
237.21	3876.8	
237.43	2711.5	
237.64	2314.2	
237.85	6191.7	
238.06	3948.5	
238.27	2675.3	
238.48	2407	
238.7	4394.9	
238.91	4169.7	
239.12	2583.9	
239.33	2696.5	
239.54	4007.2	
239.76	4104.1	
239.97	2600.2	
240.18	2606.4	
240.39	4815.5	
240.6	4234.5	
240.82	2757.9	
241.03	2360.6	
241.24	4154.6	
241.45	4573.1	
241.66	2444.6	
241.87	2783.2	
242.09	4614.8	
242.3	4705.5	
242.51	2792.1	
242.72	2585.2	
242.93	4415.4	
243.14	4114.4	
243.36	2909.5	
243.57	3081.5	
243.78	4622.3	
243.99	4407.9	
244.2	2574.3	
244.41	2340.1	
244.63	3909.6	
244.84	4245.4	
245.05	2723.8	
245.26	2533.3	
245.47	4390.2	
245.68	4399.7	
245.9	3171.6	
246.11	2711.5	
246.32	4009.2	
246.53	4358.8	
246.74	3835.8	
246.95	2299.2	
247.16	4077.5	
247.38	4225.6	
247.59	2364	
247.8	2645.3	
248.01	3838.6	
248.22	4216.1	
248.43	2409.1	
248.64	2563.4	
248.86	3919.1	
249.07	4078.9	
249.28	2459.6	
249.49	2653.5	
249.7	4436.6	
249.91	4410	
250.12	2327.2	
250.34	2367.5	
250.55	4262.5	
250.76	4194.2	
250.97	2699.2	
251.18	2676	
251.39	4504.8	
251.6	4287.8	
251.81	2701.3	
252.03	2704	
252.24	4091.8	
252.45	4362.2	
252.66	2382.5	
252.87	2775	
253.08	4197.7	
253.29	4998.4	
253.5	2395.4	
253.72	3022.8	
253.93	4160.8	
254.14	4678.9	
254.35	2522.4	
254.56	2530.6	
254.77	4291.2	
254.98	3993.5	
255.19	2542.9	
255.41	3002.3	
255.62	4330.1	
255.83	4513	
256.04	2785.9	
256.25	2621.4	
256.46	4837.3	
256.67	4034.5	
256.88	2691	
257.09	2848	
257.31	3842	
257.52	3950.5	
257.73	3231	
257.94	2481.5	
258.15	4232.5	
258.36	4168.3	
258.57	2999.6	
258.78	2131.3	
258.99	4504.2	
259.2	4056.3	
259.41	2466.4	
259.63	2567.5	
259.84	4627.7	
260.05	4748.6	
260.26	3028.3	
260.47	2524.5	
260.68	4539.7	
260.89	4095.3	
261.1	2877.4	
261.31	2406.4	
261.52	4627	
261.73	4657.8	
261.95	3110.2	
262.16	2723.8	
262.37	4478.9	
262.58	4582	
262.79	3043.3	
263	2517	
263.21	4242	
263.42	4028.4	
263.63	2717	
263.84	2523.1	
264.05	4414.7	
264.26	4674.1	
264.47	3010.5	
264.69	2720.4	
264.9	4661.2	
265.11	4180.6	
265.32	2458.2	
265.53	2482.1	
265.74	4227	
265.95	3864.5	
266.16	2570.9	
266.37	2816.6	
266.58	4268.6	
266.79	4005.1	
267	2497.8	
267.21	2379.7	
267.42	3946.4	
267.63	4222.9	
267.84	2564.1	
268.06	2354.5	
268.27	4442	
268.48	4554	
268.69	2546.3	
268.9	2866.5	
269.11	4435.2	
269.32	3824.9	
269.53	2620.7	
269.74	2503.3	
269.95	4292.5	
270.16	3862.5	
270.37	2583.9	
270.58	2924.5	
270.79	4130.1	
271	4508.3	
271.21	2719.7	
271.42	2656.9	
271.63	4391.5	
271.84	3906.8	
272.05	2246.6	
272.26	2393.4	
272.47	4194.9	
272.68	4215.4	
272.89	2539.5	
273.11	2735.4	
273.32	4044.7	
273.53	4560.8	
273.74	2665.1	
273.95	2746.3	
274.16	4349.2	
274.37	4124.6	
274.58	2818	
274.79	2387.9	
275	4326	
275.21	4446.1	
275.42	3192.1	
275.63	2805	
275.84	4336.2	
276.05	5105.6	
276.26	2680.1	
276.47	2572.2	
276.68	4237.2	
276.89	4787.5	
277.1	2831.7	
277.31	2334	
277.52	4315.8	
277.73	4592.2	
277.94	2347	
278.15	2509.4	
278.36	4325.3	
278.57	4045.4	
278.78	2539.5	
278.99	2729.9	
279.2	4113.7	
279.41	4007.2	
279.62	3149.1	
279.83	2349.7	
280.04	4857.8	
280.25	3949.2	
280.46	3123.2	
280.67	2646.7	
280.88	4027	
281.09	4547.2	
281.3	2695.8	
281.51	3242.6	
281.72	4447.5	
281.93	4354	
282.14	2480.8	
282.35	2696.5	
282.56	4500.8	
282.77	4387.4	
282.98	2577.7	
283.19	2936.1	
283.4	5136.3	
283.61	4171	
283.82	2448	
284.03	3030.3	
284.24	4375.8	
284.45	4490.5	
284.66	3128.6	
284.87	2897.2	
285.08	4571.7	
285.29	4542.4	
285.5	2379.7	
285.71	2594.8	
285.92	4437.3	
286.12	4842.1	
286.33	3097.9	
286.54	2570.9	
286.75	4435.9	
286.96	4095.9	
287.17	2471.2	
287.38	2958.6	
287.59	4101.4	
287.8	4071.4	
288.01	2499.9	
288.22	2790	
288.43	4210.6	
288.64	3833.8	
288.85	2974.3	
289.06	2816.6	
289.27	4429.8	
289.48	4554	
289.69	3145	
289.9	2848.7	
290.11	4612.7	
290.32	4108.9	
290.53	2890.4	
290.74	2742.2	
290.94	4455	
291.15	4490.5	
291.36	2494.4	
291.57	2803.7	
291.78	4213.4	
291.99	3840.6	
292.2	2392	
292.41	2764.1	
292.62	4475.5	
292.83	4392.9	
293.04	3237.8	
293.25	2531.3	
293.46	4118.5	
293.67	4462.5	
293.88	2454.1	
294.09	2422.7	
294.29	4017.4	
294.5	4279.6	
294.71	2620	
294.92	2519.7	
295.13	4117.1	
295.34	4854.4	
295.55	2311.5	
295.76	2265.1	
295.97	4425.7	
296.18	4726.7	
296.39	2375.6	
296.6	2519.7	
296.81	4145.8	
297.01	4397.7	
297.22	2567.5	
297.43	2519.7	
297.64	4174.4	
297.85	3961.5	
298.06	2192	
298.27	2302.6	
298.48	4148.5	
298.69	4044.1	
298.9	2705.4	
299.11	2446.6	
299.31	4002.4	
299.52	3996.3	
299.73	2828.2	
299.94	2707.4	
300.15	4231.8	
300.36	4050.2	
300.57	2730.6	
300.78	2703.3	
300.99	4098	
301.2	4240	
301.4	2578.4	
301.61	2666.5	
301.82	4345.1	
302.03	4445.5	
302.24	2863.1	
302.45	2371.5	
302.66	4348.5	
302.87	4399	
303.08	2491.7	
303.29	3138.9	
303.49	4179.9	
303.7	4082.3	
303.91	2285.5	
304.12	2994.8	
304.33	3803.8	
304.54	4335.5	
304.75	2479.4	
304.96	2473.3	
305.16	4394.3	
305.37	4713.7	
305.58	2294.4	
305.79	2333.3	
306	4331.5	
306.21	3840.6	
306.42	2539.5	
306.63	3429	
306.83	4063.2	
307.04	4373.1	
307.25	2659.6	
307.46	2656.2	
307.67	3896.6	
307.88	4331.5	
308.09	2510.8	
308.29	2480.8	
308.5	4246.1	
308.71	4453	
308.92	2592	
309.13	2427.5	
309.34	4227.7	
309.55	4130.1	
309.75	2996.2	
309.96	2689	
310.17	4435.2	
310.38	4024.3	
310.59	2758.6	
310.8	2732.7	
311.01	4151.2	
311.21	4208.6	
311.42	2463	
311.63	2457.6	
311.84	4028.4	
312.05	4169.7	
312.26	2733.4	
312.46	2890.4	
312.67	4108.9	
312.88	3871.3	
313.09	2370.2	
313.3	2439.8	
313.51	4614.1	
313.71	4831.2	
313.92	2450.1	
314.13	2523.8	
314.34	4343.1	
314.55	4245.4	
314.76	2893.1	
314.96	2644.6	
315.17	4396.3	
315.38	4218.8	
315.59	2459.6	
315.8	2364.7	
316.01	4464.6	
316.21	4671.4	
316.42	2448.7	
316.63	2684.2	
316.84	4116.4	
317.05	4389.5	
317.26	2774.3	
317.46	2481.5	
317.67	4160.1	
317.88	4401.8	
318.09	2917	
318.3	2323.1	
318.5	4126.7	
318.71	4285	
318.92	3465.2	
319.13	2792.1	
319.34	4440	
319.54	4511	
319.75	2347.7	
319.96	2200.9	
320.17	4301.4	
320.38	4452.3	
320.58	2339.5	
320.79	2622.1	
321	4507.6	
321.21	4624.3	
321.42	2638.5	
321.62	2340.8	
321.83	4022.2	
322.04	4235.2	
322.25	2594.1	
322.46	2426.8	
322.66	4219.5	
322.87	4420.2	
323.08	2777	
323.29	2340.8	
323.5	4784.1	
323.7	3937.6	
323.91	3074.7	
324.12	2826.9	
324.33	4332.8	
324.53	4354	
324.74	2672.6	
324.95	2837.8	
325.16	3953.9	
325.37	4134.2	
325.57	2427.5	
325.78	2503.3	
325.99	4323.9	
326.2	3918.4	
326.4	3166.8	
326.61	2283.5	
326.82	4155.3	
327.03	4219.5	
327.24	3180.5	
327.44	2961.4	
327.65	4406.5	
327.86	3772.4	
328.07	2742.2	
328.27	2402.3	
328.48	4617.5	
328.69	3917.8	
328.9	3156.6	
329.1	2444.6	
329.31	4166.3	
329.52	4609.3	
329.73	2486.2	
329.93	2575	
330.14	4310.3	
330.35	4283	
330.56	3549.1	
330.76	2871.9	
330.97	4103.4	
331.18	4170.3	
331.39	2693.1	
331.59	2296.5	
331.8	4512.4	
332.01	4472.8	
332.22	2517.6	
332.42	2668.5	
332.63	4228.4	
332.84	3956	
333.05	2662.4	
333.25	2413.9	
333.46	4050.2	
333.67	4218.1	
333.88	2564.1	
334.08	2626.2	
334.29	5119.9	
334.5	4429.8	
334.7	2392	
334.91	3121.1	
335.12	3980.6	
335.33	4341.7	
335.53	2610.5	
335.74	3532.7	
335.95	4146.5	
336.16	3859.7	
336.36	2669.9	
336.57	2887	
336.78	3781.2	
336.98	4493.9	
337.19	3134.1	
337.4	2572.2	
337.61	4836.6	
337.81	3941.7	
338.02	2495.1	
338.23	2958.6	
338.43	4603.8	
338.64	4059.1	
338.85	2470.5	
339.05	3050.1	
339.26	4658.4	
339.47	3891.8	
339.68	2494.4	
339.88	3236.5	
340.09	4381.3	
340.3	4485.7	
340.5	2749.1	
340.71	2245.9	
340.92	4010.6	
341.13	4503.5	
341.33	2306	
341.54	2709.5	
341.75	4301.4	
341.95	4108.9	
342.16	2693.8	
342.37	2807.8	
342.57	3907.5	
342.78	4123.9	
342.99	2846	
343.19	2284.2	
343.4	4411.3	
343.61	4285.7	
343.81	2598.2	
344.02	2322.4	
344.23	4354.7	
344.43	4579.3	
344.64	2892.4	
344.85	2839.2	
345.06	4377.2	
345.26	4416.1	
345.47	2765.4	
345.68	3038.5	
345.88	3932.1	
346.09	4468.7	
346.3	2822.1	
346.5	2220	
346.71	4085.7	
346.92	4014	
347.12	2380.4	
347.33	2682.2	
347.54	4450.9	
347.74	4629.8	
347.95	2684.2	
348.16	2199.5	
348.36	4083	
348.57	3934.1	
348.78	2788	
348.98	2809.8	
349.19	4136.9	
349.39	3808.5	
349.6	2364.7	
349.81	2495.1	
350.01	4378.6	
350.22	3969.6	
350.43	2712.9	
350.63	2971.6	
350.84	4160.1	
351.05	3979.2	
351.25	2452.8	
351.46	2332	
351.67	4407.2	
351.87	3948.5	
352.08	2578.4	
352.29	2836.4	
352.49	4392.2	
352.7	4403.8	
352.9	2325.8	
353.11	2818	
353.32	4712.4	
353.52	4073.4	
353.73	2383.2	
353.94	2863.1	
354.14	4278.9	
354.35	4124.6	
354.55	2452.8	
354.76	2646.7	
354.97	4278.9	
355.17	4102.8	
355.38	2355.2	
355.59	2938.8	
355.79	3992.2	
356	4058.4	
356.2	2601.6	
356.41	2398.2	
356.62	3917.8	
356.82	4069.3	
357.03	2815.3	
357.24	2573.6	
357.44	3882.3	
357.65	4002.4	
357.85	3126.6	
358.06	2661	
358.27	3780.6	
358.47	3855.6	
358.68	2370.2	
358.88	2803	
359.09	4240.7	
359.3	4362.9	
359.5	3086.3	
359.71	2856.9	
359.91	4565.6	
360.12	4175.1	
360.33	2830.3	
360.53	2997.5	
360.74	4022.9	
360.94	4035.9	
361.15	2887.6	
361.36	2495.8	
361.56	4421.6	
361.77	4129.4	
361.97	3104.7	
362.18	2581.8	
362.38	4457.7	
362.59	3863.2	
362.8	2407	
363	2387.2	
363.21	3827.7	
363.41	4135.5	
363.62	2733.4	
363.83	3071.3	
364.03	4392.9	
364.24	4580.6	
364.44	3336.8	
364.65	3176.4	
364.85	4112.3	
365.06	4003.8	
365.27	2519	
365.47	2616.6	
365.68	4581.3	
365.88	4076.1	
366.09	2748.4	
366.29	2544.9	
366.5	4165.6	
366.71	4408.6	
366.91	3180.5	
367.12	2835.1	
367.32	4767.7	
367.53	4242	
367.73	2900.6	
367.94	3306.1	
368.14	4374.5	
368.35	4562.9	
368.56	2798.9	
368.76	2453.5	
368.97	4399	
369.17	5100.8	
369.38	2514.9	
369.58	2656.2	
369.79	3846.8	
369.99	4579.9	
370.2	3252.9	
370.4	2711.5	
370.61	4167.6	
370.82	4973.2	
371.02	2712.2	
371.23	2358.6	
371.43	3926	
371.64	4617.5	
371.84	2712.9	
372.05	3239.9	
372.25	5015.5	
372.46	4225	
372.66	2656.2	
372.87	2668.5	
373.07	4229.1	
373.28	5258.5	
373.48	3154.6	
373.69	2988.7	
373.9	4136.9	
374.1	4132.1	
374.31	3116.3	
374.51	2861	
374.72	4531.5	
374.92	3994.2	
375.13	3183.9	
375.33	2798.9	
375.54	4274.1	
375.74	4095.9	
375.95	2913.6	
376.15	3432.4	
376.36	4362.2	
376.56	4221.5	
376.77	2870.6	
376.97	3103.4	
377.18	4909	
377.38	4347.2	
377.59	3177.1	
377.79	2677.4	
378	4218.1	
378.2	4358.8	
378.41	2652.1	
378.61	2587.3	
378.82	4569	
379.02	4090.5	
379.23	2738.8	
379.43	3237.2	
379.64	4663.9	
379.84	4311	
380.05	2737.5	
380.25	2641.2	
380.46	4358.8	
380.66	4164.9	
380.87	3339.6	
381.07	3472	
381.28	4726	
381.48	4388.8	
381.69	2631	
381.89	2702.6	
382.1	3916.4	
382.3	4338.3	
382.51	3181.9	
382.71	3624.2	
382.91	4258.4	
383.12	4556	
383.32	2843.3	
383.53	2952.5	
383.73	4278.2	
383.94	4242	
384.14	2941.6	
384.35	2495.1	
384.55	4030.4	
384.76	4308.2	
384.96	2885.6	
385.17	3026.2	
385.37	4359.4	
385.58	3932.1	
385.78	2947	
385.98	2495.8	
386.19	4154.6	
386.39	4351.9	
386.6	2730.6	
386.8	2841.9	
387.01	4353.3	
387.21	4448.9	
387.42	3032.4	
387.62	3265.8	
387.83	4122.6	
388.03	4076.1	
388.23	2960	
388.44	3164.8	
388.64	3917.1	
388.85	3893.9	
389.05	3010.5	
389.26	3268.6	
389.46	5046.9	
389.67	4619.5	
389.87	3036.5	
390.07	3026.9	
390.28	4109.6	
390.48	3947.8	
390.69	2631.6	
390.89	2813.9	
391.1	4071.4	
391.3	4476.2	
391.5	3423.5	
391.71	3679.5	
391.91	4471.4	
392.12	4742.4	
392.32	3394.8	
392.53	2996.9	
392.73	4121.9	
392.93	4155.3	
393.14	2867.8	
393.34	3187.3	
393.55	4493.9	
393.75	4147.8	
393.95	2892.4	
394.16	2785.9	
394.36	4134.2	
394.57	4425	
394.77	2671.9	
394.98	2779.8	
395.18	4052.9	
395.38	4143.7	
395.59	3246.7	
395.79	2703.3	
396	4186	
396.2	4406.5	
396.4	3127.9	
396.61	3060.3	
396.81	4354	
397.02	4040	
397.22	3207.1	
397.42	3304.7	
397.63	4545.8	
397.83	4007.9	
398.04	2714.9	
398.24	2906.8	
398.44	4321.9	
398.65	3768.9	
398.85	2656.2	
399.05	2646.7	
399.26	4156	
399.46	4901.5	
399.67	2870.6	
399.87	2747	
400.07	4244.1	
400.28	4405.9	
400.48	2758.6	
400.69	3235.1	
400.89	4622.3	
401.09	4771.1	
401.3	2734	
401.5	3210.5	
401.7	4683.7	
401.91	4887.1	
402.11	2952.5	
402.32	2957.3	
402.52	4518.5	
402.72	4451.6	
402.93	3115	
403.13	2561.3	
403.33	4898.7	
403.54	4271.4	
403.74	3013.2	
403.94	3401	
404.15	4313	
404.35	4906.3	
404.56	2897.2	
404.76	3723.9	
404.96	4534.9	
405.17	4315.1	
405.37	3244.7	
405.57	3058.3	
405.78	4529.4	
405.98	4207.2	
406.18	2880.8	
406.39	3252.9	
406.59	4416.1	
406.79	4169	
407	2739.5	
407.2	2758.6	
407.4	4777.2	
407.61	4612	
407.81	2794.1	
408.01	3820.8	
408.22	3837.2	
408.42	4869.4	
408.62	3289	
408.83	3082.2	
409.03	4237.2	
409.23	4251.6	
409.44	3030.3	
409.64	3172.3	
409.84	4763.6	
410.05	4650.3	
410.25	3125.2	
410.45	3009.8	
410.66	4442	
410.86	5672.2	
411.06	3222.8	
411.27	3155.9	
411.47	5515.2	
411.67	4500.1	
411.88	3253.5	
412.08	3321.1	
412.28	4767	
412.49	4978.6	
412.69	3183.2	
412.89	3124.5	
413.09	4940.4	
413.3	4842.8	
413.5	3189.4	
413.7	3045.3	
413.91	4458.4	
414.11	4932.9	
414.31	3067.9	
414.52	3202.3	
414.72	4803.2	
414.92	4684.4	
415.12	3109.5	
415.33	3363.4	
415.53	4820.2	
415.73	4922.6	
415.94	3530	
416.14	3196.2	
416.34	4490.5	
416.55	4258.4	
416.75	3756.7	
416.95	3562.8	
417.15	5024.3	
417.36	5209.3	
417.56	3933.5	
417.76	3447.4	
417.97	5046.2	
418.17	4893.3	
418.37	3254.9	
418.57	3216.7	
418.78	4980.7	
418.98	4680.3	
419.18	3715	
419.38	3675.4	
419.59	4573.8	
419.79	4509.6	
419.99	3181.9	
420.2	3306.8	
420.4	4979.3	
420.6	4967	
420.8	3168.2	
421.01	3093.8	
421.21	4898.1	
421.41	4830.5	
421.61	3309.5	
421.82	3205.1	
422.02	4665.3	
422.22	5079	
422.42	3525.9	
422.63	3467.2	
422.83	4572.4	
423.03	5309	
423.23	3462.4	
423.44	2871.9	
423.64	4646.8	
423.84	4482.3	
424.04	3204.4	
424.25	2938.8	
424.45	5140.4	
424.65	5064.6	
424.85	2888.3	
425.06	3210.5	
425.26	5267.4	
425.46	4653.7	
425.66	3458.3	
425.87	3257	
426.07	4990.9	
426.27	4880.3	
426.47	3316.3	
426.67	3014.6	
426.88	5269.4	
427.08	4887.8	
427.28	3508.9	
427.48	3065.8	
427.69	4465.9	
427.89	4684.4	
428.09	3375.1	
428.29	2999.6	
428.5	4937	
428.7	4801.8	
428.9	2950.4	
429.1	3134.1	
429.3	4815.5	
429.51	4902.2	
429.71	3147.7	
429.91	3534.1	
430.11	4979.3	
430.31	5155.4	
430.52	3244	
430.72	3347.7	
430.92	5164.3	
431.12	4894.6	
431.32	3047.4	
431.53	3358	
431.73	4386.7	
431.93	5171.8	
432.13	3049.4	
432.33	2945	
432.54	4639.3	
432.74	4635.2	
432.94	2960.7	
433.14	3495.2	
433.34	5073.5	
433.55	4687.8	
433.75	3436.5	
433.95	4276.2	
434.15	4881.7	
434.35	4554	
434.56	3089	
434.76	2800.9	
434.96	4696.7	
435.16	4846.2	
435.36	3002.3	
435.56	3575.8	
435.77	4631.1	
435.97	4673.5	
436.17	3906.2	
436.37	3436.5	
436.57	4507.6	
436.78	4487.1	
436.98	4362.9	
437.18	3835.2	
437.38	4708.3	
437.58	4555.4	
437.78	3824.9	
437.99	3190.7	
438.19	4970.4	
438.39	5629.9	
438.59	3209.2	
438.79	2978.4	
438.99	5295.4	
439.2	4567	
439.4	2908.1	
439.6	2929.3	
439.8	4594.3	
440	5251.7	
440.2	3499.3	
440.4	3455.6	
440.61	5055.1	
440.81	5212.1	
441.01	3017.3	
441.21	3446	
441.41	5201.2	
441.61	4963.6	
441.81	3612.6	
442.02	4088.4	
442.22	5475.6	
442.42	5023	
442.62	3106.1	
442.82	3235.8	
443.02	5302.2	
443.22	4805.2	
443.43	3325.2	
443.63	2994.1	
443.83	4695.3	
444.03	4633.2	
444.23	3661.1	
444.43	3460.4	
444.63	4909.7	
444.83	5428.5	
445.04	3143.6	
445.24	3744.4	
445.44	5083.1	
445.64	4997	
445.84	3553.2	
446.04	3517.7	
446.24	4686.4	
446.44	5196.4	
446.65	3122.5	
446.85	3288.4	
447.05	4896	
447.25	5159.5	
447.45	3414.6	
447.65	3048.7	
447.85	4994.3	
448.05	4605.9	
448.25	3534.1	
448.46	3450.8	
448.66	4917.2	
448.86	4689.2	
449.06	3140.2	
449.26	3605.1	
449.46	5030.5	
449.66	4687.1	
449.86	3385.3	
450.06	3332	
450.26	4689.2	
450.47	4990.9	
450.67	3439.2	
450.87	3594.2	
451.07	5243.5	
451.27	4825.7	
451.47	3153.2	
451.67	3531.4	
451.87	4718.5	
452.07	5421.7	
452.27	3211.2	
452.47	3219.4	
452.67	5016.2	
452.88	5083.1	
453.08	2968.9	
453.28	3868.6	
453.48	5577.3	
453.68	4820.9	
453.88	3250.1	
454.08	3231.7	
454.28	5135.6	
454.48	4868.7	
454.68	3619.4	
454.88	3758.7	
455.08	5219.6	
455.28	4846.2	
455.48	3151.1	
455.68	3487.7	
455.89	5378	
456.09	5150.6	
456.29	3293.8	
456.49	3401.7	
456.69	5250.3	
456.89	4887.8	
457.09	3572.3	
457.29	3734.8	
457.49	5029.1	
457.69	5056.4	
457.89	3493.2	
458.09	3106.8	
458.29	4947.9	
458.49	5344.5	
458.69	3600.3	
458.89	3287	
459.09	5405.3	
459.29	5396.4	
459.49	3366.2	
459.69	3802.4	
459.9	5214.1	
460.1	4932.2	
460.3	3410.6	
460.5	3206.4	
460.7	5151.3	
460.9	4833.9	
461.1	3087	
461.3	3667.2	
461.5	5492	
461.7	5248.9	
461.9	3276.1	
462.1	3558.7	
462.3	5065.3	
462.5	5281	
462.7	3278.1	
462.9	3312.9	
463.1	5857.9	
463.3	5611.4	
463.5	3423.5	
463.7	3841.3	
463.9	5117.2	
464.1	5238	
464.3	3488.4	
464.5	3595.6	
464.7	5400.5	
464.9	5121.3	
465.1	4236.6	
465.3	3739.6	
465.5	5623.7	
465.7	5568.4	
465.9	3943	
466.1	3759.4	
466.3	5372.5	
466.5	5421	
466.7	4206.5	
466.9	3719.8	
467.1	5539.8	
467.3	5795.1	
467.5	4234.5	
467.7	3693.9	
467.9	5965.7	
468.1	6287.3	
468.3	4022.9	
468.5	4218.1	
468.7	5326.1	
468.9	5240.8	
469.1	3839.9	
469.3	4128.7	
469.5	6300.9	
469.7	5143.1	
469.9	4044.1	
470.1	3659.7	
470.3	5456.5	
470.5	5323.4	
470.7	4343.7	
470.9	3691.1	
471.1	5216.9	
471.3	5530.2	
471.5	3680.2	
471.69	4508.9	
471.89	5319.3	
472.09	4917.9	
472.29	3921.9	
472.49	4183.3	
472.69	5001.8	
472.89	5410.7	
473.09	3547.1	
473.29	3715.7	
473.49	5239.4	
473.69	5072.8	
473.89	4105.5	
474.09	3822.9	
474.29	5888.6	
474.49	5700.2	
474.69	4074.1	
474.89	3810.6	
475.09	5233.9	
475.29	5255.8	
475.49	3590.1	
475.69	3678.2	
475.88	6012.2	
476.08	5502.2	
476.28	3491.1	
476.48	3691.1	
476.68	5759.6	
476.88	5532.9	
477.08	3769.6	
477.28	3839.3	
477.48	5422.3	
477.68	5603.9	
477.88	3568.2	
478.08	3618.8	
478.28	5775.3	
478.48	5362.3	
478.67	3788.1	
478.87	3467.2	
479.07	5643.5	
479.27	5452.4	
479.47	3853.6	
479.67	3898	
479.87	5565.7	
480.07	5866.7	
480.27	3512.9	
480.47	4240.7	
480.67	5379.3	
480.87	5798.5	
481.06	3609.9	
481.26	4094.6	
481.46	5480.4	
481.66	5299.5	
481.86	3958.7	
482.06	4303.5	
482.26	5306.3	
482.46	5713.8	
482.66	3851.5	
482.86	3625.6	
483.05	5673.6	
483.25	5100.1	
483.45	5148.6	
483.65	3792.8	
483.85	5085.8	
484.05	5304.2	
484.25	4134.8	
484.45	4103.4	
484.65	5611.4	
484.84	5834	
485.04	3835.8	
485.24	3763.5	
485.44	6008.7	
485.64	5128.1	
485.84	3501.3	
486.04	4085.7	
486.24	5304.9	
486.44	5448.3	
486.63	3467.2	
486.83	3959.4	
487.03	5327.4	
487.23	5287.9	
487.43	3466.5	
487.63	4618.9	
487.83	5376.6	
488.02	5421	
488.22	3938.9	
488.42	4202.4	
488.62	5866.1	
488.82	5150.6	
489.02	3915	
489.22	3816	
489.41	5537	
489.61	5679.7	
489.81	3693.9	
490.01	3641.3	
490.21	5698.8	
490.41	6106.4	
490.61	3674.7	
490.8	3715	
491	5425.1	
491.2	5226.4	
491.4	4033.8	
491.6	3661.1	
491.8	5597.8	
491.99	5502.9	
492.19	3548.4	
492.39	3716.4	
492.59	5735.7	
492.79	5830.6	
492.99	4121.2	
493.18	3708.9	
493.38	5916.6	
493.58	6165.8	
493.78	4020.2	
493.98	3792.2	
494.18	5606	
494.37	5250.3	
494.57	4100.7	
494.77	3979.2	
494.97	5701.5	
495.17	5804.6	
495.37	3793.5	
495.56	4021.5	
495.76	5788.2	
495.96	5800.5	
496.16	4482.3	
496.36	3900.7	
496.55	5921.4	
496.75	5511.8	
496.95	4106.9	
497.15	4117.8	
497.35	5939.8	
497.54	5759.6	
497.74	4022.9	
497.94	4782.7	
498.14	6257.2	
498.34	5959.6	
498.53	3791.5	
498.73	4158.1	
498.93	5462.6	
499.13	5815.5	
499.33	4160.1	
499.52	4325.3	
499.72	5930.9	
499.92	5912.5	
500.12	3894.6	
500.32	4076.1	
500.51	5863.3	
500.71	5722	
500.91	4468.7	
501.11	4289.8	
501.31	5868.1	
501.5	6197.2	
501.7	4702.1	
501.9	4157.4	
502.1	5874.3	
502.29	6063.4	
502.49	4335.5	
502.69	4633.2	
502.89	5963	
503.09	5892.7	
503.28	3910.9	
503.48	3924.6	
503.68	5793.7	
503.88	5528.2	
504.07	4466.6	
504.27	4238.6	
504.47	5773.9	
504.67	5840.8	
504.86	4379.9	
505.06	4220.9	
505.26	5749.3	
505.46	6438.8	
505.65	4147.8	
505.85	4306.2	
506.05	5676.3	
506.25	5951.4	
506.44	3932.8	
506.64	4378.6	
506.84	5625.8	
507.04	5961	
507.23	4012	
507.43	4199.7	
507.63	6514.6	
507.83	5512.4	
508.02	4288.4	
508.22	4068.6	
508.42	6675.7	
508.62	5546.6	
508.81	4149.9	
509.01	4442	
509.21	5556.8	
509.4	5750	
509.6	4274.8	
509.8	4040.6	
510	5676.3	
510.19	6122.1	
510.39	3866.6	
510.59	4029.7	
510.79	5644.2	
510.98	6275	
511.18	4119.8	
511.38	4034.5	
511.57	6126.2	
511.77	5733.6	
511.97	4421.6	
512.17	4033.8	
512.36	6052.4	
512.56	5849	
512.76	4012	
512.95	3871.3	
513.15	6219.7	
513.35	5227.8	
513.55	4478.2	
513.74	3997.6	
513.94	6066.1	
514.14	5780.7	
514.33	4501.4	
514.53	4269.3	
514.73	5731.6	
514.92	5722	
515.12	3982.6	
515.32	3912.3	
515.51	5847.6	
515.71	5867.4	
515.91	4857.1	
516.11	4015.4	
516.3	6666.8	
516.5	5641.5	
516.7	4324.6	
516.89	4591.5	
517.09	5692	
517.29	5752.7	
517.48	4635.2	
517.68	4152.6	
517.88	5273.5	
518.07	5930.2	
518.27	4438.6	
518.47	3921.2	
518.66	6178.7	
518.86	5535.7	
519.06	3848.8	
519.25	4128.7	
519.45	5696.1	
519.65	6333.7	
519.84	4485.1	
520.04	4726.7	
520.24	6585.6	
520.43	6026.5	
520.63	4405.2	
520.83	4192.2	
521.02	5739.1	
521.22	5919.3	
521.42	4430.4	
521.61	4733.5	
521.81	5814.9	
522.01	5900.2	
522.2	4410.6	
522.4	4266.6	
522.6	6105	
522.79	5332.2	
522.99	4244.8	
523.18	3966.9	
523.38	6002.6	
523.58	5956.9	
523.77	4791.6	
523.97	3954.6	
524.17	6750.8	
524.36	6334.4	
524.56	4600.4	
524.76	4433.2	
524.95	5841.5	
525.15	5779.4	
525.34	4299.4	
525.54	4387.4	
525.74	6195.1	
525.93	5611.4	
526.13	4969.7	
526.33	4328.7	
526.52	6319.3	
526.72	6026.5	
526.91	4931.5	
527.11	4577.9	
527.31	6176.7	
527.5	6462.7	
527.7	4545.8	
527.89	4050.2	
528.09	5847	
528.29	6022.4	
528.48	4728.8	
528.68	4559.5	
528.87	6286.6	
529.07	6354.2	
529.27	4638.6	
529.46	4318.5	
529.66	6184.9	
529.85	6216.3	
530.05	4375.1	
530.25	4605.9	
530.44	6870.3	
530.64	6004.6	
530.83	4473.4	
531.03	4605.2	
531.23	6511.2	
531.42	6216.3	
531.62	4995	
531.81	4555.4	
532.01	6287.3	
532.21	6525.5	
532.4	4446.8	
532.6	4614.8	
532.79	6853.9	
532.99	6466.8	
533.18	4715.8	
533.38	5169.1	
533.58	6182.8	
533.77	6531	
533.97	4721.9	
534.16	5038	
534.36	6763.8	
534.55	6182.8	
534.75	5144.5	
534.95	4727.4	
535.14	6709.8	
535.34	6126.2	
535.53	4491.9	
535.73	5393	
535.92	7032.7	
536.12	6186.2	
536.31	4597	
536.51	5276.3	
536.71	6545.3	
536.9	6193.1	
537.1	4638	
537.29	4691.2	
537.49	6668.2	
537.68	6127.5	
537.88	4974.5	
538.07	4476.9	
538.27	6377.4	
538.46	6780.1	
538.66	4440	
538.86	4775.2	
539.05	6398.5	
539.25	6555.5	
539.44	4889.2	
539.64	4645.5	
539.83	6242.2	
540.03	6807.4	
540.22	4566.3	
540.42	4739	
540.61	6497.5	
540.81	6530.3	
541	4830.5	
541.2	5240.1	
541.39	6155.5	
541.59	6388.3	
541.78	5123.3	
541.98	4640	
542.18	6069.5	
542.37	6030.6	
542.57	4831.8	
542.76	5012.7	
542.96	6172.6	
543.15	6307.7	
543.35	4825.7	
543.54	4541.7	
543.74	5980.8	
543.93	6319.3	
544.13	4843.4	
544.32	5335.6	
544.52	6563.1	
544.71	6124.8	
544.91	4361.5	
545.1	4964.3	
545.3	6195.8	
545.49	6327.5	
545.69	4352.6	
545.88	4769	
546.08	6970.6	
546.27	6641.6	
546.47	4831.2	
546.66	4533.5	
546.86	6537.8	
547.05	6694.1	
547.24	4640	
547.44	4530.8	
547.63	6010.1	
547.83	6567.2	
548.02	4708.3	
548.22	4879.6	
548.41	5961	
548.61	6629.3	
548.8	4533.5	
549	4495.3	
549.19	6414.9	
549.39	6528.2	
549.58	4382.7	
549.78	4657.8	
549.97	6503.7	
550.17	6133	
550.36	5155.4	
550.55	5541.8	
550.75	6283.9	
550.94	6702.3	
551.14	4574.5	
551.33	4717.8	
551.53	5891.3	
551.72	6425.2	
551.92	4647.5	
552.11	4648.2	
552.31	6497.5	
552.5	6419.7	
552.69	5520	
552.89	4440	
553.08	6438.1	
553.28	6275.7	
553.47	4631.8	
553.67	5226.4	
553.86	6688.7	
554.06	5788.9	
554.25	4237.9	
554.44	4546.5	
554.64	7163.1	
554.83	6880.5	
555.03	4426.3	
555.22	4698.7	
555.42	6591	
555.61	6456.6	
555.8	4674.8	
556	4711.7	
556.19	6019.7	
556.39	6479.8	
556.58	4648.2	
556.78	4706.2	
556.97	6409.5	
557.16	6227.2	
557.36	5205.9	
557.55	4473.4	
557.75	5862.7	
557.94	6790.4	
558.13	4512.4	
558.33	4392.2	
558.52	6728.9	
558.72	5912.5	
558.91	4463.2	
559.1	4573.8	
559.3	5853.1	
559.49	5780.1	
559.69	4401.8	
559.88	4712.4	
560.07	6372.6	
560.27	6558.3	
560.46	4820.9	
560.66	4859.8	
560.85	6189	
561.04	5763.7	
561.24	4441.4	
561.43	4539.7	
561.63	5954.8	
561.82	6190.3	
562.01	5155.4	
562.21	4711	
562.4	6302.3	
562.59	6769.2	
562.79	4704.9	
562.98	4462.5	
563.18	6284.5	
563.37	6956.9	
563.56	4833.2	
563.76	4511	
563.95	5973.9	
564.14	6021.7	
564.34	4631.8	
564.53	4508.9	
564.73	6394.4	
564.92	6398.5	
565.11	4693.3	
565.31	4373.1	
565.5	6584.9	
565.69	5994.4	
565.89	4619.5	
566.08	4686.4	
566.27	6414.9	
566.47	6673.6	
566.66	5100.1	
566.85	4410	
567.05	6414.9	
567.24	6108.4	
567.44	4469.4	
567.63	5214.1	
567.82	6499.6	
568.02	6240.8	
568.21	4532.8	
568.4	4686.4	
568.6	6220.4	
568.79	6126.8	
568.98	4534.9	
569.18	4496	
569.37	6216.3	
569.56	7081.9	
569.76	4676.9	
569.95	5151.3	
570.14	6464.1	
570.34	6173.3	
570.53	4537.6	
570.72	4384.7	
570.91	6723.5	
571.11	6343.2	
571.3	4704.2	
571.49	5219.6	
571.69	6389	
571.88	6012.8	
572.07	4931.5	
572.27	4956.8	
572.46	5931.6	
572.65	6517.3	
572.85	4595.6	
573.04	4702.1	
573.23	6665.5	
573.43	6320	
573.62	4469.4	
573.81	4745.8	
574	6421.7	
574.2	6227.9	
574.39	4644.1	
574.58	4665.3	
574.78	6688	
574.97	6339.1	
575.16	4962.9	
575.36	4977.2	
575.55	6601.3	
575.74	6638.1	
575.93	4412.7	
576.13	4975.2	
576.32	6285.9	
576.51	6507.1	
576.71	4741	
576.9	5348.6	
577.09	6823.1	
577.28	6521.4	
577.48	4919.2	
577.67	4462.5	
577.86	6414.2	
578.05	6406.7	
578.25	4726	
578.44	4806.6	
578.63	6356.9	
578.83	6963.1	
579.02	4530.1	
579.21	5270.8	
579.4	6428.6	
579.6	6334.4	
579.79	4812.7	
579.98	5919.3	
580.17	6638.1	
580.37	6766.5	
580.56	4640.7	
580.75	5078.3	
580.94	6678.4	
581.14	6982.2	
581.33	5163.6	
581.52	4713.7	
581.71	6556.2	
581.91	7027.9	
582.1	4622.3	
582.29	4818.9	
582.48	6410.1	
582.68	6419	
582.87	5118.6	
583.06	4919.2	
583.25	6685.9	
583.45	6430.6	
583.64	5276.3	
583.83	5560.9	
584.02	6453.1	
584.21	6657.9	
584.41	5238.7	
584.6	4943.1	
584.79	6464.1	
584.98	6652.5	
585.18	4670.7	
585.37	4581.3	
585.56	6374	
585.75	6611.5	
585.94	4823.6	
586.14	5045.5	
586.33	6929	
586.52	6368.5	
586.71	5069.4	
586.91	4893.3	
587.1	6094.8	
587.29	6673	
587.48	4808.6	
587.67	4751.3	
587.87	6622.4	
588.06	6472.3	
588.25	5458.5	
588.44	5003.9	
588.63	6335	
588.83	6621.1	
589.02	4836.6	
589.21	4713.7	
589.4	6343.2	
589.59	6260	
589.78	4377.9	
589.98	4489.1	
590.17	6016.2	
590.36	6161	
590.55	4099.4	
590.74	4607.9	
590.94	6808.8	
591.13	6169.2	
591.32	4445.5	
591.51	4239.3	
591.7	6287.9	
591.89	6133.7	
592.09	4237.9	
592.28	4560.1	
592.47	5656.5	
592.66	6787	
592.85	4302.1	
593.05	4444.1	
593.24	6087.9	
593.43	6539.2	
593.62	4485.7	
593.81	4659.8	
594	6161.7	
594.19	6182.8	
594.39	4427	
594.58	4359.4	
594.77	6320.7	
594.96	6511.9	
595.15	4478.2	
595.34	4618.2	
595.54	6161.7	
595.73	5795.1	
595.92	4131.4	
596.11	4629.8	
596.3	6509.8	
596.49	5891.3	
596.68	4547.2	
596.88	4666.6	
597.07	6311.8	
597.26	5808	
597.45	4297.3	
597.64	4850.3	
597.83	5944.6	
598.02	6288.6	
598.22	4300.1	
598.41	4661.9	
598.6	6199.2	
598.79	5822.4	
598.98	4373.8	
599.17	4817.5	
599.36	6196.5	
599.55	6674.3	
599.74	5361.6	
599.94	5238.7	
600.13	6462.7	
600.32	5866.7	
600.51	4160.1	
600.7	4373.8	
600.89	6851.1	
601.08	6845	
601.27	4218.8	
601.47	4635.2	
601.66	6355.5	
601.85	6670.2	
602.04	4643.4	
602.23	4567.7	
602.42	5965.7	
602.61	6275.7	
602.8	4525.3	
602.99	4433.2	
603.18	6236.7	
603.37	6172.6	
603.57	4651.6	
603.76	4986.1	
603.95	6612.2	
604.14	6255.2	
604.33	4511	
604.52	4594.3	
604.71	6242.2	
604.9	5989.6	
605.09	4917.2	
605.28	4734.9	
605.47	6643.6	
605.66	6309.1	
605.86	4743.8	
606.05	4468	
606.24	6572.6	
606.43	5810.8	
606.62	4719.2	
606.81	4969.7	
607	6513.9	
607.19	6075	
607.38	4264.6	
607.57	4476.2	
607.76	5920	
607.95	5631.2	
608.14	4739	
608.33	4943.8	
608.52	5930.9	
608.72	6374.6	
608.91	4284.4	
609.1	4268.6	
609.29	6129.6	
609.48	5777.3	
609.67	4756.7	
609.86	4341.7	
610.05	5826.5	
610.24	6018.3	
610.43	4274.8	
610.62	4067.9	
610.81	6570.6	
611	6516	
611.19	4377.9	
611.38	4704.9	
611.57	6279.8	
611.76	6716.7	
611.95	4234.5	
612.14	4153.3	
612.33	5982.8	
612.52	5795.8	
612.71	4435.2	
612.9	4141	
613.09	5688.6	
613.28	6871.6	
613.47	4353.3	
613.66	4822.3	
613.85	6162.3	
614.04	5816.9	
614.24	4448.2	
614.43	4003.1	
614.62	6249	
614.81	6137.8	
615	4650.3	
615.19	4648.2	
615.38	5865.4	
615.57	6098.2	
615.76	4608.6	
615.95	5072.1	
616.14	6315.9	
616.33	6059.9	
616.52	4775.9	
616.71	4772.4	
616.9	6251.8	
617.09	6155.5	
617.28	4422.2	
617.47	4984.1	
617.66	5793.7	
617.85	5787.6	
618.04	4810	
618.22	4633.9	
618.41	5839.4	
618.6	6469.5	
618.79	4595.6	
618.98	4459.1	
619.17	6507.8	
619.36	5688.6	
619.55	4571.1	
619.74	4590.9	
619.93	6220.4	
620.12	5877.7	
620.31	4841.4	
620.5	4850.3	
620.69	6460	
620.88	6755.6	
621.07	5217.5	
621.26	4785.4	
621.45	6309.8	
621.64	6315.9	
621.83	4860.5	
622.02	4412	
622.21	6375.3	
622.4	6353.5	
622.59	5096.7	
622.78	5049.6	
622.97	6090.7	
623.16	6513.2	
623.35	4885.1	
623.54	4386.1	
623.72	6240.8	
623.91	6240.8	
624.1	4934.9	
624.29	4337.6	
624.48	6767.2	
624.67	6462.7	
624.86	4885.1	
625.05	4528.1	
625.24	6936.5	
625.43	6129.6	
625.62	5684.5	
625.81	4554.7	
626	6470.9	
626.19	6129.6	
626.38	4958.8	
626.56	4685.1	
626.75	6017.6	
626.94	6424.5	
627.13	4989.5	
627.32	4336.9	
627.51	6459.3	
627.7	6967.9	
627.89	4354	
628.08	5041.4	
628.27	6047	
628.46	6154.1	
628.65	4575.2	
628.83	4311.7	
629.02	6453.1	
629.21	6088.6	
629.4	4815.5	
629.59	4861.2	
629.78	6010.8	
629.97	6452.5	
630.16	4766.3	
630.35	4646.8	
630.54	6836.1	
630.72	6642.2	
630.91	4609.3	
631.1	4767	
631.29	6308.4	
631.48	6271.6	
631.67	4964.3	
631.86	4604.5	
632.05	6255.2	
632.24	6201.9	
632.42	4489.1	
632.61	4812.7	
632.8	6178	
632.99	5928.9	
633.18	4838	
633.37	4977.2	
633.56	6339.1	
633.75	6279.1	
633.93	4868	
634.12	4772.4	
634.31	6879.8	
634.5	6500.9	
634.69	4715.1	
634.88	5009.3	
635.07	6254.5	
635.25	6530.3	
635.44	5155.4	
635.63	5314.5	
635.82	6173.9	
636.01	5467.4	
636.2	5134.3	
636.39	4906.9	
636.57	6925.5	
636.76	6469.5	
636.95	4664.6	
637.14	5181.4	
637.33	6489.3	
637.52	6727.6	
637.7	4462.5	
637.89	5130.2	
638.08	6209.4	
638.27	6909.2	
638.46	5036.6	
638.65	5321.3	
638.83	6952.9	
639.02	6029.9	
639.21	5039.4	
639.4	5180	
639.59	6345.3	
639.78	6191.7	
639.96	4524.6	
640.15	4721.9	
640.34	6343.2	
640.53	6285.9	
640.72	4552	
640.91	4642.7	
641.09	6026.5	
641.28	6749.4	
641.47	4757.4	
641.66	5055.8	
641.85	6324.8	
642.03	6414.2	
642.22	4872.8	
642.41	4725.3	
642.6	6043.6	
642.79	5715.9	
642.97	4648.2	
643.16	4798.4	
643.35	6016.2	
643.54	5879.7	
643.73	4530.8	
643.91	4883.7	
644.1	5931.6	
644.29	6236.1	
644.48	4531.5	
644.67	4594.3	
644.85	5762.3	
645.04	6138.4	
645.23	4415.4	
645.42	4527.4	
645.6	5831.2	
645.79	6394.4	
645.98	4428.4	
646.17	3952.6	
646.36	5597.1	
646.54	5908.4	
646.73	4893.3	
646.92	4252.3	
647.11	5807.4	
647.29	6271.6	
647.48	4194.2	
647.67	4123.2	
647.86	6419.7	
648.05	6371.9	
648.23	4414.1	
648.42	5013.4	
648.61	6119.3	
648.8	6008.1	
648.98	4268	
649.17	4436.6	
649.36	5852.4	
649.55	5558.9	
649.73	4237.9	
649.92	4661.2	
650.11	5683.8	
650.3	5916.6	
650.48	4344.4	
650.67	4287.8	
650.86	6096.8	
651.05	5477.6	
651.23	4259.8	
651.42	4272.7	
651.61	5827.2	
651.79	5618.9	
651.98	4470	
652.17	4212	
652.36	6034	
652.54	5509	
652.73	4304.8	
652.92	4216.1	
653.11	6010.1	
653.29	6085.2	
653.48	3946.4	
653.67	4392.9	
653.85	5832.6	
654.04	6318.7	
654.23	4485.7	
654.42	4287.1	
654.6	5580.7	
654.79	5935	
654.98	4036.5	
655.16	4261.8	
655.35	5481	
655.54	5247.6	
655.73	4037.9	
655.91	3937.6	
656.1	5862.7	
656.29	5262.6	
656.47	3835.2	
656.66	4575.8	
656.85	5559.6	
657.03	5393.7	
657.22	4062.5	
657.41	4091.8	
657.59	5566.4	
657.78	5405.3	
657.97	3847.5	
658.16	4257.7	
658.34	5953.4	
658.53	6085.2	
658.72	4752	
658.9	4898.7	
659.09	5696.1	
659.28	5631.9	
659.46	4190.1	
659.65	4117.1	
659.84	5472.9	
660.02	5941.2	
660.21	4175.1	
660.4	4082.3	
660.58	6003.3	
660.77	5621.7	
660.96	4418.2	
661.14	3859.1	
661.33	6355.5	
661.52	6244.3	
661.7	3895.9	
661.89	5545.9	
662.08	5568.4	
662.26	5164.3	
662.45	4040	
662.64	4106.9	
662.82	5920.7	
663.01	5373.2	
663.2	4099.4	
663.38	4498	
663.57	5819	
663.75	5750	
663.94	4229.7	
664.13	4914.4	
664.31	5563.6	
664.5	5856.5	
664.69	4435.9	
664.87	4654.4	
665.06	5379.3	
665.25	5700.9	
665.43	4795	
665.62	4745.8	
665.8	5782.1	
665.99	5566.4	
666.18	4237.2	
666.36	4279.6	
666.55	5854.5	
666.74	5766.4	
666.92	4147.1	
667.11	4934.9	
667.29	5666	
667.48	5842.9	
667.67	4592.9	
667.85	4172.4	
668.04	5552	
668.22	5464	
668.41	4346.5	
668.6	4512.4	
668.78	5445.5	
668.97	5560.2	
669.15	4440	
669.34	3946.4	
669.53	5525.4	
669.71	5631.2	
669.9	3971	
670.08	4343.7	
670.27	5388.2	
670.46	5791	
670.64	4493.2	
670.83	4568.3	
671.01	5354.8	
671.2	5593	
671.38	4079.6	
671.57	4049.5	
671.76	6056.5	
671.94	6264.1	
672.13	3988.1	
672.31	4532.2	
672.5	5908.4	
672.69	5410.1	
672.87	4108.9	
673.06	4246.8	
673.24	5711.8	
673.43	5543.9	
673.61	4431.1	
673.8	4187.4	
673.98	5780.1	
674.17	5911.1	
674.36	4553.3	
674.54	4384.7	
674.73	5423	
674.91	5881.8	
675.1	4263.9	
675.28	4023.6	
675.47	5515.9	
675.65	5781.4	
675.84	4223.6	
676.03	4387.4	
676.21	5563.6	
676.4	5171.1	
676.58	4584.7	
676.77	4504.8	
676.95	6277	
677.14	5485.8	
677.32	4051.6	
677.51	3992.2	
677.69	5894.7	
677.88	5429.2	
678.06	4005.8	
678.25	4104.1	
678.44	5609.4	
678.62	5408	
678.81	3966.2	
678.99	4403.1	
679.18	6093.4	
679.36	5756.2	
679.55	4171	
679.73	4486.4	
679.92	5735	
680.1	5492.7	
680.29	4762.9	
680.47	4194.2	
680.66	5536.3	
680.84	5854.5	
681.03	3979.2	
681.21	4459.8	
681.4	5482.4	
681.58	5451	
681.77	4098.7	
681.95	4071.4	
682.14	5940.5	
682.32	6041.5	
682.51	4529.4	
682.69	3933.5	
682.88	5495.4	
683.06	5684.5	
683.25	4443.4	
683.43	4607.2	
683.62	5687.9	
683.8	5827.2	
683.99	4683	
684.17	4251.6	
684.36	6244.9	
684.54	5598.5	
684.73	3954.6	
684.91	4012	
685.1	5765	
685.28	5326.1	
685.46	4234.5	
685.65	4245.4	
685.83	5634	
686.02	5394.3	
686.2	3928.7	
686.39	4033.1	
686.57	5215.5	
686.76	5894.1	
686.94	4006.5	
687.13	4093.9	
687.31	5633.3	
687.5	5524.1	
687.68	3787.4	
687.86	4373.8	
688.05	6364.4	
688.23	5166.3	
688.42	4384	
688.6	4056.3	
688.79	5337.7	
688.97	5367	
689.16	4247.5	
689.34	3672	
689.52	5664.7	
689.71	5967.8	
689.89	4383.3	
690.08	4043.4	
690.26	5556.8	
690.45	5381.4	
690.63	4412	
690.81	4203.1	
691	5647.6	
691.18	5373.9	
691.37	4278.2	
691.55	5311.7	
691.74	5365.7	
691.92	6375.3	
692.1	4135.5	
692.29	3981.3	
692.47	5632.6	
692.66	5124.7	
692.84	4008.6	
693.02	4271.4	
693.21	5156.1	
693.39	5569.1	
693.58	4351.9	
693.76	4032.5	
693.94	6056.5	
694.13	5976	
694.31	4147.8	
694.5	4681.7	
694.68	5330.2	
694.86	5592.3	
695.05	4294.6	
695.23	4518.5	
695.42	5801.9	
695.6	6901	
695.78	4677.6	
695.97	4161.5	
696.15	5907.7	
696.34	5547.3	
696.52	4059.8	
696.7	4536.3	
696.89	5758.2	
697.07	5262.6	
697.25	4428.4	
697.44	5081.7	
697.62	5771.2	
697.81	5806	
697.99	4245.4	
698.17	4468.7	
698.36	5451.7	
698.54	5758.2	
698.72	4361.5	
698.91	3980.6	
699.09	5563	
699.28	5350	
699.46	4274.1	
699.64	4235.9	
699.83	5478.3	
700.01	5872.2	
700.19	4645.5	
700.38	3781.9	
700.56	5817.6	
700.74	5489.9	
700.93	4004.5	
701.11	4373.1	
701.29	5772.5	
701.48	6296.1	
701.66	4135.5	
701.84	4210.6	
702.03	5594.4	
702.21	5930.9	
702.39	3969	
702.58	4279.6	
702.76	5866.1	
702.94	5765	
703.13	3981.3	
703.31	5122	
703.49	5556.8	
703.68	5994.4	
703.86	4059.8	
704.04	4625	
704.23	5698.8	
704.41	5925.5	
704.59	4256.4	
704.78	4760.2	
704.96	6631.3	
705.14	5874.9	
705.33	4102.8	
705.51	4426.3	
705.69	5566.4	
705.87	6028.5	
706.06	4579.9	
706.24	4038.6	
706.42	5755.5	
706.61	5877	
706.79	4590.9	
706.97	4033.1	
707.16	5463.3	
707.34	5788.9	
707.52	4596.3	
707.7	4139.6	
707.89	5431.9	
708.07	5397.8	
708.25	4585.4	
708.44	4668.7	
708.62	5500.8	
708.8	6040.8	
708.98	4712.4	
709.17	4171.7	
709.35	5668.8	
709.53	5720.7	
709.72	4075.5	
709.9	4149.2	
710.08	5991.7	
710.26	5970.5	
710.45	4889.2	
710.63	4217.5	
710.81	5582.1	
710.99	5694	
711.18	4510.3	
711.36	4195.6	
711.54	5572.5	
711.72	6001.9	
711.91	4340.3	
712.09	4085.7	
712.27	5668.8	
712.45	5892	
712.64	4386.1	
712.82	3896.6	
713	5416.9	
713.18	5407.3	
713.37	3924.6	
713.55	4472.1	
713.73	5843.5	
713.91	5126.7	
714.1	4035.9	
714.28	3801.7	
714.46	5550.7	
714.64	5165	
714.83	3553.2	
715.01	3945.1	
715.19	5248.3	
715.37	4722.6	
715.55	3613.3	
715.74	3704.1	
715.92	5495.4	
716.1	4471.4	
716.28	4317.1	
716.47	3804.4	
716.65	5023.7	
716.83	4964.3	
717.01	3654.3	
717.19	3678.2	
717.38	5939.8	
717.56	4752	
717.74	3817.4	
717.92	3416.7	
718.1	5369.1	
718.29	5006.6	
718.47	3174.4	
718.65	3532.1	
718.83	5410.7	
719.01	5283.1	
719.2	3222.8	
719.38	3764.8	
719.56	5259.9	
719.74	5926.1	
719.92	3667.2	
720.11	4097.3	
720.29	5356.1	
720.47	4900.8	
720.65	3426.9	
720.83	3820.8	
721.02	5029.8	
721.2	4897.4	
721.38	3799	
721.56	3421.5	
721.74	4601.1	
721.92	4590.2	
722.11	3959.4	
722.29	3819.5	
722.47	5304.2	
722.65	4853.7	
722.83	3414	
723.01	3826.3	
723.2	4800.4	
723.38	5043.5	
723.56	3122.5	
723.74	3658.4	
723.92	4530.8	
724.1	5157.5	
724.29	3391.4	
724.47	3910.9	
724.65	4752.7	
724.83	4672.1	
725.01	3372.3	
725.19	3642	
725.37	4593.6	
725.56	4552.6	
725.74	3270.6	
725.92	3361.4	
726.1	4640	
726.28	4795.7	
726.46	3570.3	
726.64	3419.4	
726.83	4939	
727.01	4894.6	
727.19	3280.2	
727.37	3690.4	
727.55	4895.3	
727.73	5182.7	
727.91	3219.4	
728.09	3131.3	
728.28	5066.7	
728.46	5180	
728.64	3635.1	
728.82	3644	
729	5645.6	
729.18	5375.2	
729.36	3238.5	
729.54	4379.9	
729.72	5798.5	
729.91	4939	
730.09	4228.4	
730.27	3648.1	
730.45	5003.2	
730.63	5240.1	
730.81	3876.8	
730.99	3445.4	
731.17	5589.6	
731.35	4768.4	
731.53	3684.3	
731.71	3558	
731.9	5313.1	
732.08	5344.5	
732.26	3707.5	
732.44	3431	
732.62	5414.8	
732.8	5180	
732.98	3887.7	
733.16	3377.8	
733.34	5248.3	
733.52	4436.6	
733.7	3617.4	
733.88	3674.1	
734.07	5126.7	
734.25	4987.5	
734.43	3368.9	
734.61	4045.4	
734.79	5747.3	
734.97	4829.8	
735.15	3355.9	
735.33	3535.5	
735.51	5080.3	
735.69	4890.5	
735.87	4056.3	
736.05	3640.6	
736.23	4982	
736.41	4780.6	
736.59	3674.1	
736.77	3633.1	
736.95	5210	
737.13	4829.1	
737.32	3428.3	
737.5	3442	
737.68	5549.3	
737.86	4800.4	
738.04	3321.8	
738.22	4270.7	
738.4	4780.6	
738.58	5000.5	
738.76	3529.3	
738.94	3097.9	
739.12	4812.7	
739.3	4792.9	
739.48	3932.8	
739.66	3716.4	
739.84	4969.1	
740.02	4818.9	
740.2	3177.1	
740.38	3243.3	
740.56	5162.9	
740.74	4391.5	
740.92	3583.3	
741.1	3510.2	
741.28	4815.5	
741.46	4625	
741.64	3411.9	
741.82	3689.1	
742	4902.8	
742.18	4758.1	
742.36	3451.5	
742.54	3315.7	
742.72	5140.4	
742.9	4409.3	
743.08	3687.7	
743.26	3050.1	
743.44	5126.7	
743.62	5031.2	
743.8	3732.8	
743.98	3263.8	
744.16	4915.8	
744.34	4701.5	
744.52	3600.3	
744.7	3609.9	
744.88	5061.2	
745.06	4697.4	
745.24	3635.8	
745.42	3775.1	
745.6	5157.5	
745.78	5059.2	
745.96	3085.6	
746.14	3234.4	
746.32	5477	
746.5	4894	
746.68	3438.5	
746.86	3174.4	
747.03	5113.8	
747.21	4408.6	
747.39	3459.7	
747.57	3188.7	
747.75	4739.7	
747.93	4949.3	
748.11	3162.7	
748.29	3178.4	
748.47	5668.1	
748.65	4633.2	
748.83	3492.5	
749.01	3382.6	
749.19	4968.4	
749.37	4363.5	
749.55	3339.6	
749.73	3429.7	
749.91	4838.7	
750.09	4649.6	
750.26	3429	
750.44	3045.3	
750.62	4758.1	
750.8	4674.1	
750.98	3032.4	
751.16	3196.9	
751.34	4877.6	
751.52	4391.5	
751.7	3590.1	
751.88	2959.3	
752.06	5047.6	
752.24	4891.2	
752.42	3027.6	
752.59	3135.4	
752.77	4701.5	
752.95	5350.7	
753.13	3577.1	
753.31	3225.6	
753.49	4563.6	
753.67	4697.4	
753.85	3393.5	
754.03	3142.3	
754.21	4960.2	
754.38	5057.1	
754.56	3171.6	
754.74	2753.2	
754.92	4490.5	
755.1	4683	
755.28	2676	
755.46	2703.3	
755.64	5261.9	
755.82	5280.3	
755.99	2905.4	
756.17	2880.8	
756.35	3930.1	
756.53	4648.2	
756.71	2276.7	
756.89	2957.3	
757.07	4492.6	
757.25	4047.5	
757.42	3095.8	
757.6	3506.1	
757.78	4536.9	
757.96	4033.8	
758.14	2848	
758.32	2595.5	
758.5	3758	
758.67	4194.9	
758.85	2855.6	
759.03	2835.1	
759.21	4365.6	
759.39	3994.2	
759.57	2598.9	
759.75	3147	
759.92	4737	
760.1	4412	
760.28	3329.3	
760.46	3463.8	
760.64	4238.6	
760.82	4151.2	
760.99	3272	
761.17	2862.4	
761.35	4747.2	
761.53	4070	
761.71	3020.8	
761.89	3279.5	
762.06	4530.1	
762.24	4341.7	
762.42	3041.2	
762.6	2874	
762.78	4291.9	
762.96	4647.5	
763.13	3181.9	
763.31	2983.9	
763.49	4707.6	
763.67	4294.6	
763.85	3479.5	
764.02	3750.5	
764.2	4906.9	
764.38	4326.7	
764.56	2972.3	
764.74	3379.8	
764.91	4861.9	
765.09	4246.1	
765.27	2900.6	
765.45	2712.9	
765.63	5053.7	
765.8	4780	
765.98	2683.5	
766.16	2770.9	
766.34	4031.1	
766.52	3979.9	
766.69	3220.1	
766.87	2662.4	
767.05	4367	
767.23	4814.8	
767.41	2853.5	
767.58	2952.5	
767.76	4616.8	
767.94	4727.4	
768.12	2897.2	
768.29	3209.2	
768.47	4192.2	
768.65	4731.5	
768.83	2678.1	
769	3237.2	
769.18	4150.6	
769.36	4477.5	
769.54	3271.3	
769.72	2699.9	
769.89	4721.3	
770.07	4601.8	
770.25	2963.4	
770.43	3601	
770.6	5063.9	
770.78	5180	
770.96	2997.5	
771.14	3294.5	
771.31	4646.8	
771.49	4267.3	
771.67	2551.1	
771.85	2655.5	
772.02	3891.8	
772.2	4206.5	
772.38	3057.6	
772.55	2746.3	
772.73	4427.7	
772.91	4272.7	
773.09	3019.4	
773.26	3084.9	
773.44	4407.2	
773.62	4261.1	
773.8	2766.8	
773.97	2652.8	
774.15	4424.3	
774.33	4316.4	
774.5	2708.8	
774.68	2854.2	
774.86	4496.7	
775.04	4236.6	
775.21	2751.8	
775.39	2678.1	
775.57	4366.3	
775.74	4439.3	
775.92	2579.8	
776.1	2534	
776.27	4346.5	
776.45	4925.4	
776.63	2726.5	
776.81	2506	
776.98	4255.7	
777.16	4716.5	
777.34	2783.2	
777.51	2927.2	
777.69	4242	
777.87	4009.9	
778.04	2917	
778.22	3081.5	
778.4	4085	
778.57	4443.4	
778.75	2474.6	
778.93	2594.8	
779.1	4095.3	
779.28	3809.9	
779.46	2474.6	
779.64	2618.7	
779.81	4536.3	
779.99	4914.4	
780.17	3034.4	
780.34	3039.9	
780.52	4303.5	
780.69	4297.3	
780.87	2919.7	
781.05	2634.4	
781.22	4339.6	
781.4	4248.2	
781.58	2752.5	
781.75	2267.1	
781.93	4360.1	
782.11	3849.5	
782.28	3220.1	
782.46	2729.3	
782.64	3863.8	
782.81	4420.9	
782.99	2804.4	
783.17	2648	
783.34	4237.9	
783.52	3956	
783.69	2765.4	
783.87	3253.5	
784.05	4060.4	
784.22	3932.1	
784.4	3184.6	
784.58	2895.8	
784.75	4528.1	
784.93	4070	
785.1	2691.7	
785.28	2997.5	
785.46	4424.3	
785.63	3912.3	
785.81	2761.3	
785.99	2544.3	
786.16	4151.2	
786.34	4154.6	
786.51	2610.5	
786.69	2869.2	
786.87	3819.5	
787.04	4085	
787.22	2598.9	
787.39	2983.9	
787.57	3957.4	
787.75	4462.5	
787.92	3222.8	
788.1	3071.3	
788.27	3858.4	
788.45	3682.2	
788.63	2955.2	
788.8	2302.6	
788.98	4320.5	
789.15	3672.7	
789.33	2409.8	
789.5	2643.2	
789.68	4454.3	
789.86	4503.5	
790.03	2897.2	
790.21	2600.2	
790.38	4515.1	
790.56	4040.6	
790.73	2591.4	
790.91	2505.3	
791.09	3956.7	
791.26	4302.8	
791.44	2707.4	
791.61	2422.7	
791.79	3991.5	
791.96	3912.3	
792.14	2438.4	
792.32	2270.5	
792.49	3936.9	
792.67	4018.8	
792.84	2550.4	
793.02	2362.7	
793.19	4273.4	
793.37	4550.6	
793.54	2238.4	
793.72	2449.4	
793.89	4540.3	
794.07	3846.8	
794.25	2739.5	
794.42	2300.6	
794.6	4487.8	
794.77	4198.3	
794.95	2867.8	
795.12	2536.1	
795.3	3979.9	
795.47	4184	
795.65	2805.7	
795.82	2726.5	
796	3860.4	
796.17	4757.4	
796.35	2625.5	
796.52	3072.6	
796.7	4232.5	
796.87	4272.7	
797.05	2641.2	
797.22	3109.5	
797.4	4321.2	
797.57	4767.7	
797.75	2704	
797.92	2540.2	
798.1	4457.7	
798.27	3712.3	
798.45	2342.9	
798.62	2410.5	
798.8	4142.4	
798.97	4377.9	
799.15	2820.7	
799.32	2697.9	
799.5	3691.8	
799.67	4031.1	
799.85	2889.7	
800.02	2328.5	
800.2	3943.7	
800.37	3994.9	
800.55	2954.5	
800.72	2580.4	
800.9	4377.9	
801.07	4523.3	
801.25	3255.6	
801.42	2777.7	
801.6	4375.8	
801.77	4026.3	
801.95	2623.4	
802.12	2583.9	
802.29	4204.5	
802.47	4058.4	
802.64	2859	
802.82	2253.4	
802.99	3943	
803.17	4345.8	
803.34	2755.2	
803.52	2477.4	
803.69	4668.7	
803.87	3751.2	
804.04	2736.1	
804.21	2718.3	
804.39	4561.5	
804.56	4004.5	
804.74	2410.5	
804.91	2727.2	
805.09	3958.7	
805.26	3935.5	
805.44	2437.1	
805.61	2655.5	
805.78	4255	
805.96	4227	
806.13	2765.4	
806.31	2902.7	
806.48	3650.8	
806.66	3919.8	
806.83	2791.4	
807	2651.4	
807.18	3951.9	
807.35	4096.6	
807.53	2682.2	
807.7	2347.7	
807.87	4498.7	
808.05	3949.8	
808.22	2938.2	
808.4	2286.9	
808.57	3812.6	
808.74	3720.5	
808.92	2616.6	
809.09	3057.6	
809.27	4009.2	
809.44	4159.4	
809.61	2302.6	
809.79	2450.7	
809.96	4698	
810.14	4207.9	
810.31	2311.5	
810.48	2885.6	
810.66	4000.4	
810.83	4235.2	
811.01	2532.7	
811.18	2751.8	
811.35	4331.5	
811.53	3503.4	
811.7	2899.2	
811.87	2753.8	
812.05	4058.4	
812.22	3915.7	
812.39	2553.1	
812.57	2411.1	
812.74	4047.5	
812.92	4775.2	
813.09	2686.3	
813.26	2742.2	
813.44	4640.7	
813.61	3794.9	
813.78	2281.4	
813.96	2825.5	
814.13	3997	
814.3	3836.5	
814.48	3050.1	
814.65	2598.9	
814.82	4571.1	
815	3745.7	
815.17	2674	
815.34	3046	
815.52	3874.8	
815.69	3889.8	
815.87	2599.6	
816.04	2594.1	
816.21	3817.4	
816.38	3684.3	
816.56	2628.2	
816.73	2484.9	
816.9	4727.4	
817.08	4184	
817.25	2504	
817.42	2882.9	
817.6	3698.6	
817.77	3844	
817.94	2702.6	
818.12	2430.3	
818.29	3832.4	
818.46	5053	
818.64	2602.3	
818.81	2405.7	
818.98	3810.6	
819.16	4838.7	
819.33	2880.1	
819.5	2656.9	
819.67	4147.1	
819.85	4426.3	
820.02	2652.1	
820.19	2798.9	
820.37	4080.2	
820.54	3843.4	
820.71	2711.5	
820.88	3201	
821.06	3999	
821.23	3779.9	
821.4	2738.8	
821.58	2645.3	
821.75	4250.9	
821.92	4039.3	
822.09	2319	
822.27	2428.2	
822.44	3943.7	
822.61	3857	
822.79	2316.3	
822.96	3924.6	
823.13	4018.8	
823.3	3722.5	
823.48	2544.9	
823.65	2387.9	
823.82	4362.9	
823.99	3753.9	
824.17	3115	
824.34	2476	
824.51	4771.8	
824.68	3979.9	
824.86	2551.1	
825.03	2655.5	
825.2	3932.1	
825.37	4472.8	
825.55	2509.4	
825.72	2684.2	
825.89	4718.5	
826.06	4508.9	
826.24	2594.1	
826.41	2633	
826.58	4550.6	
826.75	4040.6	
826.92	2253.4	
827.1	2430.9	
827.27	5688.6	
827.44	4623.6	
827.61	2529.2	
827.79	2854.2	
827.96	3901.4	
828.13	3893.2	
828.3	2608.4	
828.47	2301.9	
828.65	4224.3	
828.82	4139.6	
828.99	3052.2	
829.16	2766.8	
829.34	4302.8	
829.51	4269.3	
829.68	2614.6	
829.85	2646	
830.02	4605.9	
830.2	4373.8	
830.37	2224.8	
830.54	3004.4	
830.71	4805.9	
830.88	4027	
831.05	2153.1	
831.23	2424.1	
831.4	4688.5	
831.57	4929.5	
831.74	2484.9	
831.91	2222.7	
832.09	4282.3	
832.26	4413.4	
832.43	2458.9	
832.6	2752.5	
832.77	4193.6	
832.94	4624.3	
833.12	2141.5	
833.29	2490.3	
833.46	4154.6	
833.63	5059.2	
833.8	2706	
833.97	2540.8	
834.15	4489.8	
834.32	4296	
834.49	2644.6	
834.66	2675.3	
834.83	4347.8	
835	3902.1	
835.17	2476.7	
835.35	2466.4	
835.52	4363.5	
835.69	4240	
835.86	2543.6	
836.03	2209.8	
836.2	4361.5	
836.37	4137.6	
836.55	2470.5	
836.72	2382.5	
836.89	4147.8	
837.06	4394.3	
837.23	2514.2	
837.4	2629.6	
837.57	4855.7	
837.75	5015.5	
837.92	2324.4	
838.09	2481.5	
838.26	4150.6	
838.43	4403.8	
838.6	2631	
838.77	2359.3	
838.94	4859.8	
839.11	4832.5	
839.29	2569.5	
839.46	2070.5	
839.63	4426.3	
839.8	4181.3	
839.97	2491.7	
840.14	2463.7	
840.31	4339	
840.48	4395.6	
840.65	2141.5	
840.82	2421.4	
841	4345.1	
841.17	4218.1	
841.34	2277.3	
841.51	2398.2	
841.68	4334.9	
841.85	4149.2	
842.02	2422.7	
842.19	2069.1	
842.36	4222.9	
842.53	4257	
842.7	2307.4	
842.87	2662.4	
843.05	5045.5	
843.22	4129.4	
843.39	2239.8	
843.56	2445.3	
843.73	4138.9	
843.9	4479.6	
844.07	3343.7	
844.24	2813.2	
844.41	5485.1	
844.58	3935.5	
844.75	2250.7	
844.92	2423.4	
845.09	4283	
845.26	4286.4	
845.43	2340.1	
845.6	2443.9	
845.77	4373.8	
845.94	4255.7	
846.12	2543.6	
846.29	2635.1	
846.46	4519.2	
846.63	4274.8	
846.8	2331.3	
846.97	2675.3	
847.14	4545.1	
847.31	4333.5	
847.48	2492.4	
847.65	2722.4	
847.82	4219.5	
847.99	4401.8	
848.16	2901.3	
848.33	2677.4	
848.5	4037.9	
848.67	4583.4	
848.84	2287.6	
849.01	2383.2	
849.18	4033.1	
849.35	3847.5	
849.52	2704.7	
849.69	2254.1	
849.86	4541.7	
850.03	4462.5	
850.2	2316.9	
850.37	2682.8	
850.54	4437.3	
850.71	4034.5	
850.88	2743.6	
851.05	2301.9	
851.22	4214.7	
851.39	4546.5	
851.56	2196.8	
851.73	2547.7	
851.9	3928	
852.07	4431.8	
852.24	2512.9	
852.41	2304	
852.58	4330.8	
852.75	3949.8	
852.92	2501.9	
853.09	2272.6	
853.26	3859.1	
853.43	4516.5	
853.6	2318.3	
853.77	2035	
853.94	4622.3	
854.11	3863.8	
854.28	3092.4	
854.44	2469.2	
854.61	4798.4	
854.78	4515.1	
854.95	2254.8	
855.12	2729.3	
855.29	3742.3	
855.46	4780	
855.63	2349.7	
855.8	2968.9	
855.97	4037.9	
856.14	4491.2	
856.31	3061.7	
856.48	2467.1	
856.65	4166.9	
856.82	3879.5	
856.99	2261.6	
857.16	2429.6	
857.33	4905.6	
857.49	4123.9	
857.66	2447.3	
857.83	2597.5	
858	4190.8	
858.17	4300.1	
858.34	2190.6	
858.51	2276	
858.68	4688.5	
858.85	4658.4	
859.02	2613.2	
859.19	2678.1	
859.36	3945.1	
859.52	3819.5	
859.69	2344.2	
859.86	2571.6	
860.03	3859.1	
860.2	4569.7	
860.37	2112.1	
860.54	2372.2	
860.71	4431.8	
860.88	4666.6	
861.05	2450.1	
861.21	2775.7	
861.38	4577.2	
861.55	3785.3	
861.72	2198.8	
861.89	2516.3	
862.06	4432.5	
862.23	4612	
862.4	2273.9	
862.56	2291.7	
862.73	4357.4	
862.9	4194.2	
863.07	2572.2	
863.24	2175.6	
863.41	3893.9	
863.58	3966.2	
863.75	2316.9	
863.91	2621.4	
864.08	4488.5	
864.25	4355.3	
864.42	2783.2	
864.59	2991.4	
864.76	4754.7	
864.93	3953.9	
865.09	2213.2	
865.26	2442.5	
865.43	4580.6	
865.6	4709.6	
865.77	2094.4	
865.94	2253.4	
866.1	4498	
866.27	4319.2	
866.44	3184.6	
866.61	2155.1	
866.78	4127.3	
866.95	4390.2	
867.11	2282.8	
867.28	2157.9	
867.45	4582	
867.62	3877.5	
867.79	2639.1	
867.96	2276.7	
868.12	3910.9	
868.29	4356.7	
868.46	2306	
868.63	2889	
868.8	4463.2	
868.97	4367.6	
869.13	2368.1	
869.3	2390	
869.47	4264.6	
869.64	4452.3	
869.81	2294.4	
869.97	2313.5	
870.14	4231.8	
870.31	4614.1	
870.48	2238.4	
870.65	2753.8	
870.81	4196.3	
870.98	4147.8	
871.15	2521.7	
871.32	2362.7	
871.48	4321.9	
871.65	4657.8	
871.82	2252.8	
871.99	2473.3	
872.16	4885.8	
872.32	4624.3	
872.49	2346.3	
872.66	2328.5	
872.83	4448.9	
872.99	4003.1	
873.16	2549.7	
873.33	2317.6	
873.5	4207.2	
873.67	4247.5	
873.83	2447.3	
874	2906.1	
874.17	4337.6	
874.34	4673.5	
874.5	2837.1	
874.67	2703.3	
874.84	4502.1	
875.01	3775.1	
875.17	2957.3	
875.34	2242.5	
875.51	4269.3	
875.68	4952	
875.84	2642.6	
876.01	3003.7	
876.18	4403.8	
876.34	4344.4	
876.51	2313.5	
876.68	2277.3	
876.85	4097.3	
877.01	4577.2	
877.18	3074.7	
877.35	2269.1	
877.52	4361.5	
877.68	3961.5	
877.85	2262.3	
878.02	2244.6	
878.18	3910.3	
878.35	4115.1	
878.52	1981.8	
878.69	2596.1	
878.85	4615.4	
879.02	4358.8	
879.19	3063.1	
879.35	2417.3	
879.52	4399	
879.69	4397.7	
879.86	2080.7	
880.02	2516.3	
880.19	4225	
880.36	4824.3	
880.52	2532	
880.69	2669.9	
880.86	4440	
881.02	4463.2	
881.19	2492.4	
881.36	2440.5	
881.52	4410	
881.69	3974.4	
881.86	2513.5	
882.02	2407	
882.19	4516.5	
882.36	5008	
882.52	2357.9	
882.69	3021.4	
882.86	4192.9	
883.02	4274.1	
883.19	2675.3	
883.36	2496.5	
883.52	4480.3	
883.69	4830.5	
883.86	2334	
884.02	2202.9	
884.19	4372.4	
884.36	4243.4	
884.52	2495.1	
884.69	2484.9	
884.86	4105.5	
885.02	4595	
885.19	2493.7	
885.36	2589.3	
885.52	4087.7	
885.69	4303.5	
885.86	3085.6	
886.02	2829.6	
886.19	4429.1	
886.35	4053.6	
886.52	2524.5	
886.69	3028.9	
886.85	3949.2	
887.02	4613.4	
887.19	4613.4	
887.35	4613.4	
887.52	4613.4	
887.68	4613.4	
887.85	4613.4	
888.02	4613.4	
888.18	4613.4	
888.35	4613.4	
888.51	4613.4	
888.68	4613.4	
888.85	4613.4	
889.01	4613.4	
889.18	4613.4	
889.35	4613.4	
889.51	4613.4	
889.68	4613.4	
889.84	4613.4	
890.01	4613.4	
890.17	4613.4	
890.34	4613.4	
890.51	4613.4	
890.67	4613.4	
890.84	4613.4	
891	4613.4	
891.17	4613.4	
891.34	4613.4	
891.5	4613.4	
891.67	4613.4	
891.83	4613.4	
892	4613.4	
892.16	4613.4	
892.33	4613.4	
892.5	4613.4	
892.66	4613.4	
892.83	4613.4	
892.99	4613.4	
893.16	4613.4	
893.32	4613.4	
893.49	4613.4	
893.65	4613.4	
893.82	4613.4	
893.99	4613.4	
894.15	4613.4	
894.32	4613.4	
894.48	4613.4	
894.65	4613.4	
894.81	4613.4	
894.98	4613.4	
895.14	4613.4	
895.31	4613.4	
895.47	4613.4	
895.64	4613.4	
895.81	4613.4	
895.97	4613.4	
896.14	4613.4	
896.3	4613.4	
896.47	4613.4	
896.63	4613.4	
896.8	4613.4	
896.96	4613.4	
897.13	4613.4	
897.29	4613.4	
897.46	4613.4	
897.62	4613.4	
897.79	4613.4	
897.95	4613.4	
898.12	4613.4	
898.28	4613.4	
898.45	4613.4	
898.61	4613.4	
898.78	4613.4	
898.94	4613.4	
899.11	4613.4	
899.27	4613.4	
899.44	4613.4	
899.6	4613.4	
899.77	4613.4	
899.93	4613.4	
900.1	4613.4	
900.26	4613.4	
900.43	4613.4	
900.59	4613.4	
900.76	4613.4	
900.92	4613.4	
901.09	4613.4	
901.25	4613.4	
901.42	4613.4	
901.58	4613.4	
901.75	4613.4	
901.91	4613.4	
902.07	4613.4	
902.24	4613.4	
902.4	4613.4	
902.57	4613.4	
902.73	4613.4	
902.9	4613.4	
903.06	4613.4	
903.23	4613.4	
903.39	4613.4	
903.56	4613.4	
903.72	4613.4	
903.88	4613.4	
904.05	4613.4	
904.21	4613.4	
904.38	4613.4	
904.54	4613.4	
904.71	4613.4	
904.87	4613.4	
905.03	4613.4	
905.2	4613.4	
905.36	4613.4	
905.53	4613.4	
905.69	4613.4	
905.86	4613.4	
906.02	4613.4	
906.18	4613.4	
906.35	4613.4	
906.51	4613.4	
906.68	4613.4	
906.84	4613.4	
907.01	4613.4	
907.17	4613.4	
907.33	4613.4	
907.5	4613.4	
907.66	4613.4	
907.83	4613.4	
907.99	4613.4	
908.15	4613.4	
908.32	4613.4	
908.48	4613.4	
908.65	4613.4	
908.81	4613.4	
908.97	4613.4	
909.14	4613.4	
909.3	4613.4	
909.47	4613.4	
909.63	4613.4	
909.79	4613.4	
909.96	4613.4	
910.12	4613.4	
910.28	4613.4	
910.45	4613.4	
910.61	4613.4	
910.78	4613.4	
910.94	4613.4	
911.1	4613.4	
911.27	4613.4	
911.43	4613.4	
911.59	4613.4	
911.76	4613.4	
911.92	4613.4	
912.08	4613.4	
912.25	4613.4	
912.41	4613.4	
912.57	4613.4	
912.74	4613.4	
912.9	4613.4	
913.07	4613.4	
913.23	4613.4	
913.39	4613.4	
913.56	4613.4	
913.72	4613.4	
913.88	4613.4	
914.05	4613.4	
914.21	4613.4	
914.37	4613.4	
914.54	4613.4	
914.7	4613.4	
914.86	4613.4	
915.03	4613.4	
915.19	4613.4	
