Wavelength	Intensities	
nm	a.u.	
179.22	1700.3	
179.44	1690.6	
179.65	1710.1	
179.86	1671.1	
180.08	1652.7	
180.29	3796.3	
180.51	2965.5	
180.72	4917.9	
180.94	5459.2	
181.15	2681.5	
181.37	2633.7	
181.58	4709	
181.79	4954.7	
182.01	2791.4	
182.22	2928.6	
182.44	4937	
182.65	4293.9	
182.87	3538.2	
183.08	3174.4	
183.29	5194.3	
183.51	4388.8	
183.72	2917	
183.94	4010.6	
184.15	4718.5	
184.37	4582.7	
184.58	2621.4	
184.79	3452.2	
185.01	4394.9	
185.22	4902.8	
185.44	3559.4	
185.65	3094.5	
185.86	4687.1	
186.08	4317.1	
186.29	2596.1	
186.51	2770.9	
186.72	4434.5	
186.94	5047.6	
187.15	3140.2	
187.36	3179.8	
187.58	6244.9	
187.79	4774.5	
188.01	3258.3	
188.22	4894	
188.43	5472.2	
188.65	4961.5	
188.86	2790.7	
189.08	3235.1	
189.29	4500.8	
189.5	4453	
189.72	2979.1	
189.93	2978.4	
190.15	5065.3	
190.36	5795.1	
190.57	3239.2	
190.79	3140.9	
191	5051.7	
191.22	5068	
191.43	3259	
191.64	2779.8	
191.86	5277.6	
192.07	5053	
192.29	2829.6	
192.5	2978.4	
192.71	5053.7	
192.93	4543.8	
193.14	2922.5	
193.35	3041.2	
193.57	4466.6	
193.78	5033.2	
194	2489.6	
194.21	2890.4	
194.42	4374.5	
194.64	4745.1	
194.85	3153.9	
195.07	3713	
195.28	4678.9	
195.49	4143.7	
195.71	3873.4	
195.92	2763.4	
196.13	4876.2	
196.35	4872.8	
196.56	4008.6	
196.78	3227.6	
196.99	5801.2	
197.2	5378.6	
197.42	3498.6	
197.63	3224.2	
197.84	4322.6	
198.06	4820.2	
198.27	3020.1	
198.48	3777.1	
198.7	4502.8	
198.91	4646.2	
199.13	3194.1	
199.34	3268.6	
199.55	4992.9	
199.77	4100	
199.98	2843.9	
200.19	3168.9	
200.41	4588.8	
200.62	4414.7	
200.83	3335.5	
201.05	3500	
201.26	4627	
201.47	4455.7	
201.69	2930.6	
201.9	2796.8	
202.11	4725.3	
202.33	5365.7	
202.54	2975.7	
202.76	3390.1	
202.97	4762.2	
203.18	4808.6	
203.4	3335.5	
203.61	3401	
203.82	4701.5	
204.04	4521.2	
204.25	3199.6	
204.46	3150.5	
204.68	4673.5	
204.89	4872.8	
205.1	3113.6	
205.32	2768.9	
205.53	4957.4	
205.74	5079.6	
205.96	2446.6	
206.17	3198.2	
206.38	4905.6	
206.6	5026.4	
206.81	3613.3	
207.02	3064.4	
207.24	4881	
207.45	5141.8	
207.66	3104.7	
207.88	2666.5	
208.09	4825.7	
208.3	4597.7	
208.52	2852.8	
208.73	3104.7	
208.94	4692.6	
209.15	5143.1	
209.37	3097.2	
209.58	3209.8	
209.79	4996.4	
210.01	4539	
210.22	2546.3	
210.43	2653.5	
210.65	4630.5	
210.86	4903.5	
211.07	3123.8	
211.29	2839.2	
211.5	4851	
211.71	4587.4	
211.93	2887.6	
212.14	2915.6	
212.35	4636.6	
212.56	4709	
212.78	3217.4	
212.99	2710.8	
213.2	5320.6	
213.42	4532.8	
213.63	2962.7	
213.84	3074	
214.06	4260.5	
214.27	4317.8	
214.48	3125.2	
214.69	3274.7	
214.91	5178.6	
215.12	5142.4	
215.33	3220.8	
215.55	3506.1	
215.76	5533.6	
215.97	4897.4	
216.18	3130	
216.4	3134.1	
216.61	4399.7	
216.82	5009.3	
217.04	2892.4	
217.25	3028.9	
217.46	5075.5	
217.67	4919.9	
217.89	2637.8	
218.1	2663.7	
218.31	4698.7	
218.53	4804.5	
218.74	3027.6	
218.95	2908.1	
219.16	4702.1	
219.38	5321.3	
219.59	2895.8	
219.8	3393.5	
220.01	5755.5	
220.23	4617.5	
220.44	3631.7	
220.65	2871.3	
220.87	4709	
221.08	5122.7	
221.29	2757.9	
221.5	3495.2	
221.72	5980.8	
221.93	4467.3	
222.14	3207.8	
222.35	3713.6	
222.57	4675.5	
222.78	4971.1	
222.99	3124.5	
223.2	3300.6	
223.42	4848.2	
223.63	4956.1	
223.84	2417.3	
224.05	2493.1	
224.27	5597.8	
224.48	5261.9	
224.69	3740.3	
224.9	3261	
225.12	4777.9	
225.33	4679.6	
225.54	2647.3	
225.75	2921.8	
225.97	4349.2	
226.18	4621.6	
226.39	3104	
226.6	2908.1	
226.82	4508.9	
227.03	4363.5	
227.24	3218	
227.45	2739.5	
227.67	4945.2	
227.88	5238.7	
228.09	3612.6	
228.3	3511.6	
228.52	4913.8	
228.73	4618.2	
228.94	2983.9	
229.15	2757.2	
229.36	4638	
229.58	4613.4	
229.79	3054.2	
230	3450.1	
230.21	5470.8	
230.43	4654.4	
230.64	3188.7	
230.85	3343	
231.06	5008	
231.28	4969.1	
231.49	2749.1	
231.7	3151.8	
231.91	4908.3	
232.12	4662.5	
232.34	2800.3	
232.55	3098.6	
232.76	5103.5	
232.97	4768.4	
233.18	2916.3	
233.4	3177.8	
233.61	4805.2	
233.82	4450.9	
234.03	2994.8	
234.25	2943.6	
234.46	6133.7	
234.67	4737	
234.88	3282.9	
235.09	2958.6	
235.31	4762.9	
235.52	4576.5	
235.73	3167.5	
235.94	2799.6	
236.15	4534.2	
236.37	5456.5	
236.58	2873.3	
236.79	3110.2	
237	4909.7	
237.21	4300.7	
237.43	3261.7	
237.64	2672.6	
237.85	7510.6	
238.06	4319.2	
238.27	3271.3	
238.48	2777.7	
238.7	4941.7	
238.91	4620.9	
239.12	3026.2	
239.33	3149.1	
239.54	4378.6	
239.76	4588.8	
239.97	3090.4	
240.18	3116.3	
240.39	5519.3	
240.6	4853.7	
240.82	3240.6	
241.03	2732.7	
241.24	4631.8	
241.45	5227.1	
241.66	2901.3	
241.87	3290.4	
242.09	5232.6	
242.3	5457.2	
242.51	3330	
242.72	3098.6	
242.93	4988.2	
243.14	4581.3	
243.36	3524.6	
243.57	3710.2	
243.78	5294	
243.99	4888.5	
244.2	3109.5	
244.41	2805	
244.63	4304.8	
244.84	4816.1	
245.05	3248.8	
245.26	3110.9	
245.47	4949.9	
245.68	4989.5	
245.9	3870.7	
246.11	3251.5	
246.32	4521.9	
246.53	4825.7	
246.74	4769.7	
246.95	2670.6	
247.16	4377.2	
247.38	4675.5	
247.59	2686.3	
247.8	3146.4	
248.01	4412.7	
248.22	4668	
248.43	2909.5	
248.64	3042.6	
248.86	4265.2	
249.07	4560.8	
249.28	2831.7	
249.49	3185.3	
249.7	5065.3	
249.91	5115.8	
250.12	2720.4	
250.34	2690.3	
250.55	4730.8	
250.76	4694.6	
250.97	3191.4	
251.18	3212.6	
251.39	5111	
251.6	4789.5	
251.81	3177.8	
252.03	3196.9	
252.24	4515.1	
252.45	4888.5	
252.66	2755.9	
252.87	3363.4	
253.08	4696.7	
253.29	5765.7	
253.5	2774.3	
253.72	3707.5	
253.93	4650.9	
254.14	5307.7	
254.35	2942.9	
254.56	3042.6	
254.77	4815.5	
254.98	4375.8	
255.19	2990.7	
255.41	3652.9	
255.62	4819.6	
255.83	5124	
256.04	3319.8	
256.25	3144.3	
256.46	5467.4	
256.67	4414.1	
256.88	3237.8	
257.09	3477.5	
257.31	4388.8	
257.52	4418.8	
257.73	3919.8	
257.94	2949.8	
258.15	4625.7	
258.36	4693.3	
258.57	3594.2	
258.78	2416.6	
258.99	5027.8	
259.2	4539	
259.41	3006.4	
259.63	3039.9	
259.84	5279.7	
260.05	5510.4	
260.26	3730	
260.47	2879.4	
260.68	5069.4	
260.89	4582	
261.1	3523.2	
261.31	2828.2	
261.52	5122	
261.73	5343.2	
261.95	3775.1	
262.16	3283.6	
262.37	5182.7	
262.58	5176.6	
262.79	3719.1	
263	3021.4	
263.21	4737.6	
263.42	4272.7	
263.63	3282.2	
263.84	3011.2	
264.05	5023.7	
264.26	5292	
264.47	3577.8	
264.69	3190.1	
264.9	5212.8	
265.11	4788.2	
265.32	2889.7	
265.53	2951.1	
265.74	4758.1	
265.95	4267.3	
266.16	3171.6	
266.37	3444	
266.58	4799.8	
266.79	4513	
267	2950.4	
267.21	2759.3	
267.42	4354	
267.63	4658.4	
267.84	3126.6	
268.06	2740.2	
268.27	5024.3	
268.48	5118.6	
268.69	3038.5	
268.9	3487	
269.11	5166.3	
269.32	4261.8	
269.53	3138.2	
269.74	2877.4	
269.95	4828.4	
270.16	4213.4	
270.37	3142.9	
270.58	3533.4	
270.79	4575.2	
271	5014.1	
271.21	3248.1	
271.42	3121.8	
271.63	4833.2	
271.84	4358.1	
272.05	2547	
272.26	2829.6	
272.47	4655	
272.68	4774.5	
272.89	3024.8	
273.11	3375.1	
273.32	4490.5	
273.53	5286.5	
273.74	3326.6	
273.95	3169.6	
274.16	5012.7	
274.37	4683.7	
274.58	3447.4	
274.79	2799.6	
275	4831.2	
275.21	5087.8	
275.42	3938.9	
275.63	3428.3	
275.84	4893.3	
276.05	5877	
276.26	3213.3	
276.47	3059.7	
276.68	4635.2	
276.89	5368.4	
277.1	3478.8	
277.31	2714.2	
277.52	4781.3	
277.73	5116.5	
277.94	2732	
278.15	3010.5	
278.36	4830.5	
278.57	4426.3	
278.78	2988	
278.99	3276.1	
279.2	4463.9	
279.41	4376.5	
279.62	3827	
279.83	2807.8	
280.04	5447.6	
280.25	4406.5	
280.46	3844	
280.67	3117	
280.88	4450.9	
281.09	5121.3	
281.3	3220.1	
281.51	3924.6	
281.72	4490.5	
281.93	5001.8	
282.14	2952.5	
282.35	3181.2	
282.56	5141.8	
282.77	4992.9	
282.98	3013.2	
283.19	3522.5	
283.4	5993	
283.61	4660.5	
283.82	2854.2	
284.03	3675.4	
284.24	4817.5	
284.45	5066.7	
284.66	3737.5	
284.87	3558	
285.08	5074.2	
285.29	5181.4	
285.5	2746.3	
285.71	3016	
285.92	5063.9	
286.12	5551.4	
286.33	3699.3	
286.54	3052.8	
286.75	4988.2	
286.96	4582	
287.17	2835.8	
287.38	3646.1	
287.59	4504.2	
287.8	4470.7	
288.01	3076.7	
288.22	3420.1	
288.43	4972.5	
288.64	4291.2	
288.85	3508.2	
289.06	3411.2	
289.27	5047.6	
289.48	5233.2	
289.69	3772.4	
289.9	3451.5	
290.11	5121.3	
290.32	4527.4	
290.53	3556.6	
290.74	3315	
290.94	4960.9	
291.15	5005.9	
291.36	2925.2	
291.57	3410.6	
291.78	4594.3	
291.99	4280.3	
292.2	2881.5	
292.41	3328.6	
292.62	5084.4	
292.83	4954.7	
293.04	3981.9	
293.25	2883.5	
293.46	4549.2	
293.67	4988.9	
293.88	2911.5	
294.09	2856.9	
294.29	4425.7	
294.5	4812.7	
294.71	3070.6	
294.92	2953.2	
295.13	4536.9	
295.34	5440.1	
295.55	2689	
295.76	2707.4	
295.97	5044.1	
296.18	5421	
296.39	2819.4	
296.6	2952.5	
296.81	4678.9	
297.01	5017.5	
297.22	3033	
297.43	2975	
297.64	4495.3	
297.85	4412	
298.06	2530.6	
298.27	2713.6	
298.48	4644.8	
298.69	4465.3	
298.9	3209.2	
299.11	2897.9	
299.31	4343.1	
299.52	4364.2	
299.73	3318.4	
299.94	3245.3	
300.15	4738.3	
300.36	4409.3	
300.57	3331.4	
300.78	3216.7	
300.99	4571.1	
301.2	4718.5	
301.4	2963.4	
301.61	3135.4	
301.82	4868.7	
302.03	4951.3	
302.24	3470.6	
302.45	2812.5	
302.66	4918.5	
302.87	5131.5	
303.08	2953.9	
303.29	3854.3	
303.49	4582.7	
303.7	4667.3	
303.91	2709.5	
304.12	3707.5	
304.33	4291.2	
304.54	4803.2	
304.75	2967.5	
304.96	2838.5	
305.16	4899.4	
305.37	5359.5	
305.58	2610.5	
305.79	2663	
306	4904.2	
306.21	4299.4	
306.42	2897.9	
306.63	4228.4	
306.83	4552.6	
307.04	5025.7	
307.25	3226.9	
307.46	3192.1	
307.67	4134.2	
307.88	4833.9	
308.09	2894.5	
308.29	2960.7	
308.5	4710.3	
308.71	5063.3	
308.92	3127.2	
309.13	2828.2	
309.34	4679.6	
309.55	4659.1	
309.75	3579.2	
309.96	3292.5	
310.17	4955.4	
310.38	4441.4	
310.59	3436.5	
310.8	2800.9	
311.01	4572.4	
311.21	4625	
311.42	2864.4	
311.63	2902.7	
311.84	4556	
312.05	4715.1	
312.26	3266.5	
312.46	3492.5	
312.67	4557.4	
312.88	4332.1	
313.09	2845.3	
313.3	2811.9	
313.51	5248.3	
313.71	5461.2	
313.92	2873.3	
314.13	2988	
314.34	4829.8	
314.55	4629.8	
314.76	3490.4	
314.96	3150.5	
315.17	4853	
315.38	4852.3	
315.59	2882.2	
315.8	2737.5	
316.01	5253	
316.21	5279	
316.42	2790	
316.63	3142.9	
316.84	4611.3	
317.05	5121.3	
317.26	3324.5	
317.46	3054.9	
317.67	4650.3	
317.88	4923.3	
318.09	3506.1	
318.3	2678.7	
318.5	4565.6	
318.71	4879.6	
318.92	4301.4	
319.13	3334.1	
319.34	5079	
319.54	5128.8	
319.75	2690.3	
319.96	2583.2	
320.17	4878.9	
320.38	5098.8	
320.58	2710.8	
320.79	3099.3	
321	5143.8	
321.21	5197.7	
321.42	3145.7	
321.62	2697.9	
321.83	4456.4	
322.04	4695.3	
322.25	3006.4	
322.46	2922.5	
322.66	4730.8	
322.87	4916.5	
323.08	3429.7	
323.29	2813.2	
323.5	5478.3	
323.7	4352.6	
323.91	3713	
324.12	3386	
324.33	4812.7	
324.53	4941.7	
324.74	3264.5	
324.95	3420.8	
325.16	4315.1	
325.37	4579.9	
325.57	2855.6	
325.78	2881.5	
325.99	4832.5	
326.2	4380.6	
326.4	3934.1	
326.61	2723.1	
326.82	4601.1	
327.03	4710.3	
327.24	3882.3	
327.44	3661.8	
327.65	4902.8	
327.86	4080.9	
328.07	3306.1	
328.27	2797.5	
328.48	5158.8	
328.69	4311	
328.9	3906.2	
329.1	2954.5	
329.31	4587.4	
329.52	5253.7	
329.73	2914.3	
329.93	3121.1	
330.14	4758.1	
330.35	4792.9	
330.56	4440	
330.76	3405.8	
330.97	4597.7	
331.18	4708.3	
331.39	3152.5	
331.59	2618.7	
331.8	5072.1	
332.01	5173.2	
332.22	2930	
332.42	3306.8	
332.63	4786.1	
332.84	4453.6	
333.05	3183.2	
333.25	2937.5	
333.46	4499.4	
333.67	4681	
333.88	3028.9	
334.08	3258.3	
334.29	5984.8	
334.5	5098.8	
334.7	2798.9	
334.91	3889.1	
335.12	4341	
335.33	4929.5	
335.53	3139.5	
335.74	4336.2	
335.95	4588.1	
336.16	4367	
336.36	3201.7	
336.57	3578.5	
336.78	4334.2	
336.98	5091.3	
337.19	3814.7	
337.4	3072.6	
337.61	5542.5	
337.81	4351.9	
338.02	2945	
338.23	3617.4	
338.43	5274.9	
338.64	4454.3	
338.85	2936.1	
339.05	3672.7	
339.26	5300.8	
339.47	4268.6	
339.68	2854.9	
339.88	4033.8	
340.09	4945.2	
340.3	5014.1	
340.5	3338.2	
340.71	2633.7	
340.92	4343.7	
341.13	5193.6	
341.33	2793.4	
341.54	3367.5	
341.75	4839.4	
341.95	4542.4	
342.16	3188	
342.37	3390.8	
342.57	4379.2	
342.78	4660.5	
342.99	3452.9	
343.19	2714.9	
343.4	5041.4	
343.61	4842.1	
343.81	3058.3	
344.02	2852.1	
344.23	4965.6	
344.43	5178.6	
344.64	3530	
344.85	3424.9	
345.06	4878.9	
345.26	5096.7	
345.47	3321.1	
345.68	3754.6	
345.88	4278.9	
346.09	5066	
346.3	3336.1	
346.5	2565.4	
346.71	4707.6	
346.92	4549.9	
347.12	2755.9	
347.33	3256.3	
347.54	5065.3	
347.74	5310.4	
347.95	3265.8	
348.16	2582.5	
348.36	4531.5	
348.57	4390.2	
348.78	3344.3	
348.98	3467.2	
349.19	4629.8	
349.39	4264.6	
349.6	2684.9	
349.81	2917	
350.01	4935.6	
350.22	4461.2	
350.43	3193.5	
350.63	3672.7	
350.84	4732.9	
351.05	4484.4	
351.25	2963.4	
351.46	2717.7	
351.67	5083.7	
351.87	4436.6	
352.08	3051.5	
352.29	3493.8	
352.49	5034.6	
352.7	4840.7	
352.9	2822.1	
353.11	3416.7	
353.32	5476.3	
353.52	4563.6	
353.73	2910.8	
353.94	3503.4	
354.14	4942.4	
354.35	4713.1	
354.55	2960	
354.76	3200.3	
354.97	4921.3	
355.17	4706.2	
355.38	2799.6	
355.59	3719.1	
355.79	4510.3	
356	4696.7	
356.2	3251.5	
356.41	2878.8	
356.62	4360.8	
356.82	4635.2	
357.03	3425.6	
357.24	3121.1	
357.44	4529.4	
357.65	4582	
357.85	4000.4	
358.06	3289	
358.27	4316.4	
358.47	4440.7	
358.68	2828.9	
358.88	3424.2	
359.09	4910.3	
359.3	5139.7	
359.5	3903.4	
359.71	3529.3	
359.91	5442.8	
360.12	4949.3	
360.33	3454.9	
360.53	3796.3	
360.74	4570.4	
360.94	4676.2	
361.15	3632.4	
361.36	3056.9	
361.56	5146.5	
361.77	4738.3	
361.97	3896.6	
362.18	3277.4	
362.38	5159.5	
362.59	4577.9	
362.8	3040.6	
363	2974.3	
363.21	4380.6	
363.41	4869.4	
363.62	3387.3	
363.83	4080.2	
364.03	4988.2	
364.24	5550.7	
364.44	4215.4	
364.65	4183.3	
364.85	4767	
365.06	4582	
365.27	3207.8	
365.47	3321.1	
365.68	5446.9	
365.88	4774.5	
366.09	3524.6	
366.29	3280.8	
366.5	4960.2	
366.71	5220.3	
366.91	4196.3	
367.12	3603.1	
367.32	5751.4	
367.53	5145.9	
367.73	3731.4	
367.94	4299.4	
368.14	5236.7	
368.35	5737	
368.56	3650.8	
368.76	3319.8	
368.97	5330.2	
369.17	6410.1	
369.38	3306.1	
369.58	3454.2	
369.79	4573.8	
369.99	5470.1	
370.2	4198.3	
370.4	3580.5	
370.61	5030.5	
370.82	5929.6	
371.02	3526.6	
371.23	3032.4	
371.43	4623.6	
371.64	5526.8	
371.84	3562.1	
372.05	4378.6	
372.25	6335	
372.46	5292.6	
372.66	3601.7	
372.87	3588	
373.07	5376.6	
373.28	6510.5	
373.48	4209.3	
373.69	4100	
373.9	5076.9	
374.1	5072.1	
374.31	4218.1	
374.51	3941.7	
374.72	5669.5	
374.92	4970.4	
375.13	4412.7	
375.33	3846.8	
375.54	5442.8	
375.74	5076.9	
375.95	3986.7	
376.15	4769.7	
376.36	5515.9	
376.56	5425.1	
376.77	4019.5	
376.97	4355.3	
377.18	6270.2	
377.38	5607.3	
377.59	4539.7	
377.79	3848.1	
378	5457.8	
378.2	5726.8	
378.41	3895.9	
378.61	3791.5	
378.82	5902.2	
379.02	5289.9	
379.23	4078.2	
379.43	4764.9	
379.64	6064.7	
379.84	5666.7	
380.05	3945.1	
380.25	3822.9	
380.46	5743.9	
380.66	5425.1	
380.87	4701.5	
381.07	5010	
381.28	6163.7	
381.48	5745.9	
381.69	3860.4	
381.89	3943.7	
382.1	4982.7	
382.3	5768.4	
382.51	4704.2	
382.71	5266.7	
382.91	5649.7	
383.12	6059.3	
383.32	4166.9	
383.53	4255.7	
383.73	5588.2	
383.94	5496.1	
384.14	4306.9	
384.35	3693.9	
384.55	5360.2	
384.76	5676.3	
384.96	4117.1	
385.17	4389.5	
385.37	5633.3	
385.58	5168.4	
385.78	4347.2	
385.98	3571	
386.19	5271.5	
386.39	5680.4	
386.6	3982.6	
386.8	4093.2	
387.01	5651.7	
387.21	5742.5	
387.42	4328.7	
387.62	4760.8	
387.83	5298.1	
388.03	5550	
388.23	4283.7	
388.44	4729.4	
388.64	5044.1	
388.85	5196.4	
389.05	4491.2	
389.26	4940.4	
389.46	6654.5	
389.67	6197.8	
389.87	4595.6	
390.07	4569	
390.28	5573.9	
390.48	5374.6	
390.69	4064.5	
390.89	4291.9	
391.1	5480.4	
391.3	6160.3	
391.5	5087.8	
391.71	5537.7	
391.91	5953.4	
392.12	6642.2	
392.32	5130.2	
392.53	4558.8	
392.73	5608	
392.93	5719.3	
393.14	4395.6	
393.34	4947.2	
393.55	6051.7	
393.75	5675.6	
393.95	4339	
394.16	4353.3	
394.36	5507	
394.57	5908.4	
394.77	4013.3	
394.98	4243.4	
395.18	5519.3	
395.38	5591.6	
395.59	4930.1	
395.79	4291.2	
396	5765	
396.2	6063.4	
396.4	4863.9	
396.61	4932.9	
396.81	6186.9	
397.02	5834.7	
397.22	5170.4	
397.42	5244.8	
397.63	6338.5	
397.83	5819	
398.04	4453	
398.24	4902.8	
398.44	6145.3	
398.65	5581.4	
398.85	4479.6	
399.05	4514.4	
399.26	5993	
399.46	7018.4	
399.67	4805.9	
399.87	4622.9	
400.07	6191.7	
400.28	6345.3	
400.48	4730.8	
400.69	5542.5	
400.89	6681.2	
401.09	6942.6	
401.3	4784.7	
401.5	5524.7	
401.7	7124.2	
401.91	7428	
402.11	5126.1	
402.32	5190.9	
402.52	6784.2	
402.72	6640.9	
402.93	5403.2	
403.13	4571.1	
403.33	7234.1	
403.54	6255.2	
403.74	5137	
403.94	5608	
404.15	6248.4	
404.35	6980.2	
404.56	4764.9	
404.76	6051.1	
404.96	6522.1	
405.17	6402	
405.37	5881.8	
405.57	5281.7	
405.78	6706.4	
405.98	6310.5	
406.18	5022.3	
406.39	5604.6	
406.59	6806.8	
406.79	6434	
407	4842.1	
407.2	4889.9	
407.4	6935.8	
407.61	6888.7	
407.81	4937.7	
408.01	6342.6	
408.22	6068.8	
408.42	7419.8	
408.62	5934.3	
408.83	5725.4	
409.03	6742.6	
409.23	6787.7	
409.44	5875.6	
409.64	6089.3	
409.84	7754.3	
410.05	7815	
410.25	6225.8	
410.45	6050.4	
410.66	7725.6	
410.86	9275.9	
411.06	6694.1	
411.27	6475.7	
411.47	9392	
411.67	7945.4	
411.88	6769.2	
412.08	7021.1	
412.28	8465.6	
412.49	8827.4	
412.69	6842.9	
412.89	6833.4	
413.09	8784.4	
413.3	8797.4	
413.5	6972.7	
413.7	6725.5	
413.91	8306.6	
414.11	8889.5	
414.31	7020.4	
414.52	7378.1	
414.72	8794	
414.92	8816.5	
415.12	6992.4	
415.33	7520.1	
415.53	9065	
415.73	9241.8	
415.94	7755.7	
416.14	7295.5	
416.34	8583.7	
416.55	8255.4	
416.75	8203.5	
416.95	7873.1	
417.15	9400.9	
417.36	9579.7	
417.56	8548.9	
417.76	7801.4	
417.97	9544.9	
418.17	9453.4	
418.37	7540.6	
418.57	7735.2	
418.78	9346.9	
418.98	9080	
419.18	8430.8	
419.38	8243.1	
419.59	9179	
419.79	8793.3	
419.99	7652.6	
420.2	7793.9	
420.4	9459.6	
420.6	9393.4	
420.8	7563.8	
421.01	7419.8	
421.21	9426.8	
421.41	9498.5	
421.61	7853.3	
421.82	7690.1	
422.02	9131.2	
422.22	9674.6	
422.42	8271.1	
422.63	7858.7	
422.83	9241.8	
423.03	9999.5	
423.23	7958.4	
423.44	7305.8	
423.64	9206.3	
423.84	8781.7	
424.04	7659.4	
424.25	7323.5	
424.45	9672.6	
424.65	9624.8	
424.85	7210.2	
425.06	7567.2	
425.26	9901.9	
425.46	9063.6	
425.66	7850.5	
425.87	7619.1	
426.07	9594.7	
426.27	9289.6	
426.47	7819.8	
426.67	7349.5	
426.88	9793.4	
427.08	9413.8	
427.28	8066.3	
427.48	7284.6	
427.69	8585.1	
427.89	8989.9	
428.09	7897.7	
428.29	7326.9	
428.5	9514.9	
428.7	9267.1	
428.9	7346.1	
429.1	7595.9	
429.3	9210.4	
429.51	9516.2	
429.71	7423.2	
429.91	8194.6	
430.11	9578.3	
430.31	9783.8	
430.52	7821.9	
430.72	8082.6	
430.92	9944.9	
431.12	9771.5	
431.32	7659.4	
431.53	7972.7	
431.73	8948.9	
431.93	10019	
432.13	7653.9	
432.33	7619.1	
432.54	9339.4	
432.74	9490.3	
432.94	7707.9	
433.14	8357.8	
433.34	9817.3	
433.55	9592.7	
433.75	8360.5	
433.95	9814.5	
434.15	9831.6	
434.35	9620	
434.56	7933.1	
434.76	7816.4	
434.96	9862.3	
435.16	10113	
435.36	8000	
435.56	8959.9	
435.77	9794.8	
435.97	9931.3	
436.17	9522.4	
436.37	9026.1	
436.57	9871.9	
436.78	10023	
436.98	10120	
437.18	9399.5	
437.38	10516	
437.58	10004	
437.78	9506	
437.99	8610.3	
438.19	10377	
438.39	11422	
438.59	8598.1	
438.79	8056.7	
438.99	10748	
439.2	9902.6	
439.4	7927	
439.6	8052.6	
439.8	9985.9	
440	10765	
440.2	8871.1	
440.4	9015.8	
440.61	10698	
440.81	11059	
441.01	8692.9	
441.21	9581.1	
441.41	11469	
441.61	10959	
441.81	9907.4	
442.02	10613	
442.22	11763	
442.42	11211	
442.62	9072.5	
442.82	8998.8	
443.02	11485	
443.22	10935	
443.43	9518.3	
443.63	9139.4	
443.83	10717	
444.03	10795	
444.23	10164	
444.43	9757.9	
444.63	11254	
444.83	11918	
445.04	9518.3	
445.24	10503	
445.44	11417	
445.64	11530	
445.84	9839.1	
446.04	9908.8	
446.24	10882	
446.44	11606	
446.65	9151.7	
446.85	9549.7	
447.05	10675	
447.25	11455	
447.45	9511.4	
447.65	9036.3	
447.85	11060	
448.05	10522	
448.25	9874.6	
448.46	9729.2	
448.66	11149	
448.86	10805	
449.06	9164.7	
449.26	9815.2	
449.46	11439	
449.66	10669	
449.86	9750.4	
450.06	9605	
450.26	10914	
450.47	11448	
450.67	9848	
450.87	10168	
451.07	11505	
451.27	11449	
451.47	9502.6	
451.67	10300	
451.87	11326	
452.07	11864	
452.27	9798.8	
452.47	9674.6	
452.67	11374	
452.88	11814	
453.08	9232.2	
453.28	10809	
453.48	12595	
453.68	11206	
453.88	9944.3	
454.08	9928.6	
454.28	11899	
454.48	11564	
454.68	10277	
454.88	10628	
455.08	11845	
455.28	12054	
455.48	9717.6	
455.68	10506	
455.89	12634	
456.09	12444	
456.29	10350	
456.49	10666	
456.69	12677	
456.89	12009	
457.09	10935	
457.29	11333	
457.49	12527	
457.69	12723	
457.89	11268	
458.09	10522	
458.29	12675	
458.49	13209	
458.69	11447	
458.89	11331	
459.09	13611	
459.29	13488	
459.49	11272	
459.69	11908	
459.9	13066	
460.1	13231	
460.3	11056	
460.5	11095	
460.7	13324	
460.9	13028	
461.1	10907	
461.3	11869	
461.5	14028	
461.7	13746	
461.9	11845	
462.1	11796	
462.3	13646	
462.5	14052	
462.7	11839	
462.9	12131	
463.1	14810	
463.3	14943	
463.5	12353	
463.7	13330	
463.9	14149	
464.1	14552	
464.3	13084	
464.5	12942	
464.7	14917	
464.9	15040	
465.1	14076	
465.3	13630	
465.5	15150	
465.7	15325	
465.9	13842	
466.1	13093	
466.3	15478	
466.5	15078	
466.7	14542	
466.9	13648	
467.1	15552	
467.3	16011	
467.5	14674	
467.7	13850	
467.9	16322	
468.1	16961	
468.3	14306	
468.5	14872	
468.7	15776	
468.9	15621	
469.1	14530	
469.3	15045	
469.5	17218	
469.7	15756	
469.9	14582	
470.1	14373	
470.3	16191	
470.5	16023	
470.7	15345	
470.9	14255	
471.1	15975	
471.3	15697	
471.5	14333	
471.69	15479	
471.89	15683	
472.09	15134	
472.29	14922	
472.49	14638	
472.69	15692	
472.89	16068	
473.09	14276	
473.29	13957	
473.49	15670	
473.69	15454	
473.89	14625	
474.09	14095	
474.29	16329	
474.49	16027	
474.69	14775	
474.89	14112	
475.09	15519	
475.29	15683	
475.49	13844	
475.69	14048	
475.88	16541	
476.08	15917	
476.28	13848	
476.48	13822	
476.68	15965	
476.88	15693	
477.08	13756	
477.28	14079	
477.48	15227	
477.68	15596	
477.88	13718	
478.08	13767	
478.28	16165	
478.48	15401	
478.67	14024	
478.87	13257	
479.07	16354	
479.27	15654	
479.47	14169	
479.67	14209	
479.87	16125	
480.07	16397	
480.27	13728	
480.47	14642	
480.67	15610	
480.87	16363	
481.06	13882	
481.26	14588	
481.46	15900	
481.66	15766	
481.86	14331	
482.06	15147	
482.26	15720	
482.46	16404	
482.66	14285	
482.86	14105	
483.05	16120	
483.25	15416	
483.45	15987	
483.65	14411	
483.85	15827	
484.05	16008	
484.25	14674	
484.45	15391	
484.65	16620	
484.84	16967	
485.04	14552	
485.24	14631	
485.44	17067	
485.64	15858	
485.84	14439	
486.04	15393	
486.24	16247	
486.44	16737	
486.63	14531	
486.83	15224	
487.03	16499	
487.23	16849	
487.43	14676	
487.63	16393	
487.83	16958	
488.02	17434	
488.22	15842	
488.42	16293	
488.62	17628	
488.82	16785	
489.02	15343	
489.22	15785	
489.41	17423	
489.61	17429	
489.81	15378	
490.01	15550	
490.21	17709	
490.41	18255	
490.61	15623	
490.8	15687	
491	17532	
491.2	16980	
491.4	16077	
491.6	15427	
491.8	17249	
491.99	17053	
492.19	15068	
492.39	15225	
492.59	17635	
492.79	17620	
492.99	15925	
493.18	15504	
493.38	17834	
493.58	18799	
493.78	16270	
493.98	16161	
494.18	18178	
494.37	18066	
494.57	17254	
494.77	16982	
494.97	18858	
495.17	19335	
495.37	17073	
495.56	17438	
495.76	19651	
495.96	19494	
496.16	18293	
496.36	17688	
496.55	19879	
496.75	19616	
496.95	18153	
497.15	18106	
497.35	19824	
497.54	19981	
497.74	18075	
497.94	19245	
498.14	20306	
498.34	20363	
498.53	18076	
498.73	18560	
498.93	19805	
499.13	20240	
499.33	18568	
499.52	18697	
499.72	20646	
499.92	20440	
500.12	18665	
500.32	18802	
500.51	20612	
500.71	20820	
500.91	19481	
501.11	19185	
501.31	20768	
501.5	21029	
501.7	19749	
501.9	18972	
502.1	20547	
502.29	20785	
502.49	19462	
502.69	19488	
502.89	20760	
503.09	20887	
503.28	18323	
503.48	18508	
503.68	19966	
503.88	20089	
504.07	19043	
504.27	18546	
504.47	20295	
504.67	20156	
504.86	18998	
505.06	18616	
505.26	19949	
505.46	20977	
505.65	18432	
505.85	18470	
506.05	19670	
506.25	20054	
506.44	17673	
506.64	17969	
506.84	19381	
507.04	19731	
507.23	17619	
507.43	17969	
507.63	20515	
507.83	19246	
508.02	17961	
508.22	17761	
508.42	20917	
508.62	19237	
508.81	17931	
509.01	18281	
509.21	18931	
509.4	19382	
509.6	17918	
509.8	17542	
510	19169	
510.19	20233	
510.39	17601	
510.59	17724	
510.79	19327	
510.98	20323	
511.18	17755	
511.38	17987	
511.57	20073	
511.77	19813	
511.97	18301	
512.17	17448	
512.36	19860	
512.56	19585	
512.76	17443	
512.95	17443	
513.15	19844	
513.35	18898	
513.55	18157	
513.74	17563	
513.94	19727	
514.14	19264	
514.33	18432	
514.53	18161	
514.73	19349	
514.92	19673	
515.12	17840	
515.32	17917	
515.51	19756	
515.71	19783	
515.91	19060	
516.11	17955	
516.3	21139	
516.5	19577	
516.7	18386	
516.89	18795	
517.09	19766	
517.29	19850	
517.48	18718	
517.68	18192	
517.88	19658	
518.07	20043	
518.27	18574	
518.47	17899	
518.66	20337	
518.86	19405	
519.06	17733	
519.25	18155	
519.45	19574	
519.65	20982	
519.84	18651	
520.04	19272	
520.24	21172	
520.43	20067	
520.63	18202	
520.83	18243	
521.02	19685	
521.22	19884	
521.42	18325	
521.61	18828	
521.81	19579	
522.01	19532	
522.2	18168	
522.4	17897	
522.6	20050	
522.79	19242	
522.99	18319	
523.18	18097	
523.38	20265	
523.58	20386	
523.77	19665	
523.97	18375	
524.17	22044	
524.36	21586	
524.56	19663	
524.76	19576	
524.95	21200	
525.15	20826	
525.34	19742	
525.54	20021	
525.74	21797	
525.93	21039	
526.13	21010	
526.33	20286	
526.52	22458	
526.72	22166	
526.91	21384	
527.11	20829	
527.31	22567	
527.5	22824	
527.7	20876	
527.89	20078	
528.09	22069	
528.29	22683	
528.48	21086	
528.68	20917	
528.87	22826	
529.07	22604	
529.27	21151	
529.46	20876	
529.66	22853	
529.85	23148	
530.05	20818	
530.25	21345	
530.44	24004	
530.64	22479	
530.83	20964	
531.03	21487	
531.23	22992	
531.42	22782	
531.62	21733	
531.81	21194	
532.01	23481	
532.21	23750	
532.4	21554	
532.6	22106	
532.79	24459	
532.99	24133	
533.18	22451	
533.38	23188	
533.58	24180	
533.77	24510	
533.97	22754	
534.16	23317	
534.36	25155	
534.55	24341	
534.75	23409	
534.95	22924	
535.14	25322	
535.34	24527	
535.53	22739	
535.73	24165	
535.92	25621	
536.12	24516	
536.31	22766	
536.51	23503	
536.71	24506	
536.9	24313	
537.1	22497	
537.29	22769	
537.49	24750	
537.68	24234	
537.88	23234	
538.07	22582	
538.27	24462	
538.46	25311	
538.66	22501	
538.86	22802	
539.05	24569	
539.25	24950	
539.44	23632	
539.64	22821	
539.83	24559	
540.03	25223	
540.22	22925	
540.42	22610	
540.61	24434	
540.81	24680	
541	22655	
541.2	23496	
541.39	23840	
541.59	24209	
541.78	23395	
541.98	22350	
542.18	23750	
542.37	23867	
542.57	22569	
542.76	23148	
542.96	23644	
543.15	23840	
543.35	22296	
543.54	21840	
543.74	23632	
543.93	23507	
544.13	21698	
544.32	22666	
544.52	23480	
544.71	22996	
544.91	21288	
545.1	21872	
545.3	23066	
545.49	23530	
545.69	20997	
545.88	21495	
546.08	24204	
546.27	23719	
546.47	21807	
546.66	21317	
546.86	23301	
547.05	23733	
547.24	21351	
547.44	21547	
547.63	22560	
547.83	23452	
548.02	21622	
548.22	21816	
548.41	22356	
548.61	23416	
548.8	20998	
549	21027	
549.19	22676	
549.39	23182	
549.58	20668	
549.78	21086	
549.97	23085	
550.17	22547	
550.36	21425	
550.55	22320	
550.75	22313	
550.94	23008	
551.14	20696	
551.33	20512	
551.53	22073	
551.72	22707	
551.92	20736	
552.11	20580	
552.31	22734	
552.5	22395	
552.69	21685	
552.89	20181	
553.08	22599	
553.28	22151	
553.47	20636	
553.67	21334	
553.86	22850	
554.06	21387	
554.25	19688	
554.44	20268	
554.64	23072	
554.83	22917	
555.03	20149	
555.22	20436	
555.42	22286	
555.61	22151	
555.8	20190	
556	20400	
556.19	21633	
556.39	22124	
556.58	20219	
556.78	20186	
556.97	22018	
557.16	21706	
557.36	21116	
557.55	20043	
557.75	21171	
557.94	22668	
558.13	19840	
558.33	19862	
558.52	22341	
558.72	21497	
558.91	19835	
559.1	19906	
559.3	21331	
559.49	20744	
559.69	19500	
559.88	20169	
560.07	21766	
560.27	22060	
560.46	20309	
560.66	20367	
560.85	21584	
561.04	20707	
561.24	19661	
561.43	19514	
561.63	21052	
561.82	21171	
562.01	20579	
562.21	19791	
562.4	21424	
562.59	22296	
562.79	19783	
562.98	19503	
563.18	21607	
563.37	22690	
563.56	20256	
563.76	20019	
563.95	21437	
564.14	21458	
564.34	20164	
564.53	19914	
564.73	21766	
564.92	22072	
565.11	20329	
565.31	19792	
565.5	22209	
565.69	21584	
565.89	20097	
566.08	20383	
566.27	22292	
566.47	22852	
566.66	20940	
566.85	20338	
567.05	22205	
567.24	21822	
567.44	20349	
567.63	21188	
567.82	22401	
568.02	22135	
568.21	20348	
568.4	20566	
568.6	22154	
568.79	22042	
568.98	20355	
569.18	20531	
569.37	22476	
569.56	23660	
569.76	20867	
569.95	21683	
570.14	22511	
570.34	22773	
570.53	20612	
570.72	20562	
570.91	23151	
571.11	22409	
571.3	20883	
571.49	21414	
571.69	22610	
571.88	21813	
572.07	21426	
572.27	21115	
572.46	22147	
572.65	22739	
572.85	20764	
573.04	21036	
573.23	23078	
573.43	22560	
573.62	20839	
573.81	21259	
574	22820	
574.2	22708	
574.39	21414	
574.58	21466	
574.78	23788	
574.97	23215	
575.16	21902	
575.36	22154	
575.55	23943	
575.74	23767	
575.93	21324	
576.13	22461	
576.32	23383	
576.51	23896	
576.71	22014	
576.9	22941	
577.09	24193	
577.28	23848	
577.48	22263	
577.67	21487	
577.86	23388	
578.05	23935	
578.25	21922	
578.44	22178	
578.63	23554	
578.83	24677	
579.02	21505	
579.21	23038	
579.4	23705	
579.6	23847	
579.79	22263	
579.98	24010	
580.17	24258	
580.37	24356	
580.56	21789	
580.75	22582	
580.94	24389	
581.14	24479	
581.33	22985	
581.52	22255	
581.71	24113	
581.91	24737	
582.1	22239	
582.29	22344	
582.48	23986	
582.68	24150	
582.87	22856	
583.06	22687	
583.25	24376	
583.45	23842	
583.64	23102	
583.83	23640	
584.02	23937	
584.21	24499	
584.41	23077	
584.6	22844	
584.79	24212	
584.98	24811	
585.18	22430	
585.37	22333	
585.56	24070	
585.75	24658	
585.94	22270	
586.14	22859	
586.33	24488	
586.52	24052	
586.71	22702	
586.91	22449	
587.1	23352	
587.29	24123	
587.48	21766	
587.67	21853	
587.87	23738	
588.06	23600	
588.25	22643	
588.44	22174	
588.63	23296	
588.83	23667	
589.02	21358	
589.21	21242	
589.4	22639	
589.59	22673	
589.78	20172	
589.98	20260	
590.17	21564	
590.36	21845	
590.55	19109	
590.74	19162	
590.94	22014	
591.13	20777	
591.32	18897	
591.51	18450	
591.7	21009	
591.89	20654	
592.09	18684	
592.28	19117	
592.47	20451	
592.66	21999	
592.85	19107	
593.05	19356	
593.24	20833	
593.43	21700	
593.62	19585	
593.81	19611	
594	21117	
594.19	21149	
594.39	19237	
594.58	19181	
594.77	21322	
594.96	21619	
595.15	19217	
595.34	19487	
595.54	20865	
595.73	20438	
595.92	18606	
596.11	19097	
596.3	21233	
596.49	20304	
596.68	18900	
596.88	19173	
597.07	20900	
597.26	20236	
597.45	18578	
597.64	19551	
597.83	20603	
598.02	20795	
598.22	18571	
598.41	19036	
598.6	20790	
598.79	20191	
598.98	18720	
599.17	19310	
599.36	20779	
599.55	21353	
599.74	20205	
599.94	19938	
600.13	20953	
600.32	20217	
600.51	18404	
600.7	18622	
600.89	21386	
601.08	21463	
601.27	18543	
601.47	19067	
601.66	20749	
601.85	21223	
602.04	19011	
602.23	19025	
602.42	20114	
602.61	20565	
602.8	18785	
602.99	18410	
603.18	20374	
603.37	20478	
603.57	18921	
603.76	19260	
603.95	20837	
604.14	20803	
604.33	18671	
604.52	18903	
604.71	20492	
604.9	20284	
605.09	19341	
605.28	19244	
605.47	21143	
605.66	20639	
605.86	19195	
606.05	18804	
606.24	20783	
606.43	19900	
606.62	18939	
606.81	19303	
607	20833	
607.19	20397	
607.38	18199	
607.57	18589	
607.76	20108	
607.95	19701	
608.14	18920	
608.33	19246	
608.52	20095	
608.72	20794	
608.91	18095	
609.1	18087	
609.29	19932	
609.48	19471	
609.67	18657	
609.86	18050	
610.05	19707	
610.24	19816	
610.43	18042	
610.62	17628	
610.81	20452	
611	20388	
611.19	17937	
611.38	18507	
611.57	19940	
611.76	20970	
611.95	17830	
612.14	17526	
612.33	19893	
612.52	19531	
612.71	18144	
612.9	17743	
613.09	19211	
613.28	20839	
613.47	17976	
613.66	18510	
613.85	19813	
614.04	19406	
614.24	17899	
614.43	17270	
614.62	20026	
614.81	19934	
615	18224	
615.19	18424	
615.38	19417	
615.57	19869	
615.76	18297	
615.95	19040	
616.14	20097	
616.33	19871	
616.52	18578	
616.71	18671	
616.9	20004	
617.09	19960	
617.28	18065	
617.47	18972	
617.66	19357	
617.85	19491	
618.04	18934	
618.22	18556	
618.41	19976	
618.6	20619	
618.79	18759	
618.98	18620	
619.17	21090	
619.36	19964	
619.55	18882	
619.74	18892	
619.93	20704	
620.12	20278	
620.31	19482	
620.5	19630	
620.69	21585	
620.88	21807	
621.07	20117	
621.26	19647	
621.45	21238	
621.64	21248	
621.83	19693	
622.02	19114	
622.21	21349	
622.4	21360	
622.59	20276	
622.78	19970	
622.97	20939	
623.16	21678	
623.35	19829	
623.54	19286	
623.72	21158	
623.91	21362	
624.1	20054	
624.29	19067	
624.48	22057	
624.67	21614	
624.86	20030	
625.05	19463	
625.24	22174	
625.43	21004	
625.62	20996	
625.81	19737	
626	21474	
626.19	21313	
626.38	20299	
626.56	19741	
626.75	21028	
626.94	21921	
627.13	20024	
627.32	19321	
627.51	21637	
627.7	22374	
627.89	19207	
628.08	20016	
628.27	20981	
628.46	20937	
628.65	19263	
628.83	19013	
629.02	21204	
629.21	20740	
629.4	19648	
629.59	19755	
629.78	20819	
629.97	21379	
630.16	19830	
630.35	19414	
630.54	21929	
630.72	21551	
630.91	19387	
631.1	19645	
631.29	21289	
631.48	21315	
631.67	19924	
631.86	19344	
632.05	21178	
632.24	21037	
632.42	19162	
632.61	19578	
632.8	20803	
632.99	20859	
633.18	19434	
633.37	19910	
633.56	21300	
633.75	21119	
633.93	19607	
634.12	19608	
634.31	21743	
634.5	21666	
634.69	19478	
634.88	19652	
635.07	21116	
635.25	21531	
635.44	20124	
635.63	20333	
635.82	20876	
636.01	20299	
636.2	19712	
636.39	19628	
636.57	21678	
636.76	21150	
636.95	19334	
637.14	20211	
637.33	21138	
637.52	21692	
637.7	19102	
637.89	19726	
638.08	20958	
638.27	21616	
638.46	19760	
638.65	19865	
638.83	21607	
639.02	20555	
639.21	19350	
639.4	19669	
639.59	20708	
639.78	20504	
639.96	18746	
640.15	18708	
640.34	20467	
640.53	20381	
640.72	18481	
640.91	18604	
641.09	19892	
641.28	20721	
641.47	18514	
641.66	19204	
641.85	20428	
642.03	20321	
642.22	18735	
642.41	18325	
642.6	19911	
642.79	19248	
642.97	18159	
643.16	18683	
643.35	19595	
643.54	19423	
643.73	17920	
643.91	18397	
644.1	19213	
644.29	19773	
644.48	17748	
644.67	17838	
644.85	18942	
645.04	19278	
645.23	17073	
645.42	17651	
645.6	18561	
645.79	19210	
645.98	17023	
646.17	16257	
646.36	17808	
646.54	18041	
646.73	16927	
646.92	16176	
647.11	17746	
647.29	18490	
647.48	16263	
647.67	16099	
647.86	18502	
648.05	18691	
648.23	16262	
648.42	17095	
648.61	18136	
648.8	17935	
648.98	15825	
649.17	16158	
649.36	17372	
649.55	17265	
649.73	15938	
649.92	16498	
650.11	17541	
650.3	17762	
650.48	16037	
650.67	15818	
650.86	17853	
651.05	16972	
651.23	15866	
651.42	15751	
651.61	17324	
651.79	17111	
651.98	15926	
652.17	15617	
652.36	17326	
652.54	16648	
652.73	15608	
652.92	15483	
653.11	17353	
653.29	17419	
653.48	15024	
653.67	15609	
653.85	16976	
654.04	17804	
654.23	15553	
654.42	15285	
654.6	16276	
654.79	16605	
654.98	14256	
655.16	14724	
655.35	15591	
655.54	15224	
655.73	13856	
655.91	13745	
656.1	16042	
656.29	15035	
656.47	13556	
656.66	14928	
656.85	15618	
657.03	15829	
657.22	14407	
657.41	14647	
657.59	16180	
657.78	16167	
657.97	14493	
658.16	15037	
658.34	16634	
658.53	17034	
658.72	15661	
658.9	15960	
659.09	16488	
659.28	16460	
659.46	15008	
659.65	14919	
659.84	16212	
660.02	16761	
660.21	14940	
660.4	14778	
660.58	17031	
660.77	16518	
660.96	15330	
661.14	14585	
661.33	17419	
661.52	17242	
661.7	14477	
661.89	16848	
662.08	16264	
662.26	15826	
662.45	14685	
662.64	14657	
662.82	16534	
663.01	16017	
663.2	14620	
663.38	15113	
663.57	16352	
663.75	16251	
663.94	14797	
664.13	15758	
664.31	16043	
664.5	16493	
664.69	15044	
664.87	15498	
665.06	15725	
665.25	16323	
665.43	15505	
665.62	15552	
665.8	16343	
665.99	15896	
666.18	14776	
666.36	14749	
666.55	16311	
666.74	16307	
666.92	14279	
667.11	15503	
667.29	16014	
667.48	16379	
667.67	15095	
667.85	14432	
668.04	15905	
668.22	15894	
668.41	14668	
668.6	14767	
668.78	15763	
668.97	15870	
669.15	14777	
669.34	14068	
669.53	15832	
669.71	16083	
669.9	14113	
670.08	14720	
670.27	15629	
670.46	16014	
670.64	14751	
670.83	14913	
671.01	15514	
671.2	15849	
671.38	14461	
671.57	14055	
671.76	16384	
671.94	16872	
672.13	14177	
672.31	14801	
672.5	16331	
672.69	15666	
672.87	14296	
673.06	14638	
673.24	16126	
673.43	15787	
673.61	14592	
673.8	14378	
673.98	16041	
674.17	16251	
674.36	14975	
674.54	14668	
674.73	15905	
674.91	16163	
675.1	14515	
675.28	14203	
675.47	15731	
675.65	16334	
675.84	14361	
676.03	14586	
676.21	15581	
676.4	15273	
676.58	14922	
676.77	14763	
676.95	16640	
677.14	15561	
677.32	13992	
677.51	13973	
677.69	16163	
677.88	15408	
678.06	13997	
678.25	14188	
678.44	15650	
678.62	15400	
678.81	13817	
678.99	14714	
679.18	16272	
679.36	15954	
679.55	14266	
679.73	14791	
679.92	15938	
680.1	15462	
680.29	15055	
680.47	14306	
680.66	15431	
680.84	16067	
681.03	13793	
681.21	14541	
681.4	15547	
681.58	15397	
681.77	14005	
681.95	13947	
682.14	16153	
682.32	16180	
682.51	14633	
682.69	13592	
682.88	15272	
683.06	15502	
683.25	14273	
683.43	14498	
683.62	15385	
683.8	15776	
683.99	14703	
684.17	14052	
684.36	16024	
684.54	14986	
684.73	13115	
684.91	13129	
685.1	14756	
685.28	14020	
685.46	12847	
685.65	12644	
685.83	14000	
686.02	13474	
686.2	11977	
686.39	12182	
686.57	13226	
686.76	14577	
686.94	12430	
687.13	12529	
687.31	14155	
687.5	14066	
687.68	12063	
687.86	13095	
688.05	15316	
688.23	13723	
688.42	13199	
688.6	12841	
688.79	14091	
688.97	14179	
689.16	13052	
689.34	12336	
689.52	14730	
689.71	14916	
689.89	13491	
690.08	12957	
690.26	14640	
690.45	14548	
690.63	13485	
690.81	13158	
691	14293	
691.18	14322	
691.37	13169	
691.55	14537	
691.74	14225	
691.92	15468	
692.1	12918	
692.29	12681	
692.47	14052	
692.66	13710	
692.84	12762	
693.02	12951	
693.21	13896	
693.39	14208	
693.58	13256	
693.76	12939	
693.94	14952	
694.13	15160	
694.31	13025	
694.5	13786	
694.68	14316	
694.86	14848	
695.05	13641	
695.23	13525	
695.42	15259	
695.6	16726	
695.78	14133	
695.97	13351	
696.15	15446	
696.34	14792	
696.52	13255	
696.7	13854	
696.89	14965	
697.07	14436	
697.25	13389	
697.44	14394	
697.62	14669	
697.81	14713	
697.99	13117	
698.17	13398	
698.36	14199	
698.54	14409	
698.72	13289	
698.91	12446	
699.09	14132	
699.28	14074	
699.46	12815	
699.64	12818	
699.83	13962	
700.01	14574	
700.19	13439	
700.38	12317	
700.56	14625	
700.74	14097	
700.93	12544	
701.11	13147	
701.29	14455	
701.48	15484	
701.66	12813	
701.84	12993	
702.03	14319	
702.21	15061	
702.39	12641	
702.58	13244	
702.76	14816	
702.94	14757	
703.13	12655	
703.31	14322	
703.49	14259	
703.68	14815	
703.86	12514	
704.04	13465	
704.23	14408	
704.41	14752	
704.59	12678	
704.78	13408	
704.96	15496	
705.14	14676	
705.33	12700	
705.51	12984	
705.69	14084	
705.87	14760	
706.06	13378	
706.24	12545	
706.42	14304	
706.61	14581	
706.79	13230	
706.97	12433	
707.16	14016	
707.34	14250	
707.52	12976	
707.7	12651	
707.89	13971	
708.07	13652	
708.25	13081	
708.44	13249	
708.62	13844	
708.8	14475	
708.98	13282	
709.17	12574	
709.35	13999	
709.53	13930	
709.72	12230	
709.9	12177	
710.08	14182	
710.26	14135	
710.45	13152	
710.63	12402	
710.81	13697	
710.99	13761	
711.18	12520	
711.36	12274	
711.54	13414	
711.72	13867	
711.91	12056	
712.09	11712	
712.27	13356	
712.45	13582	
712.64	11828	
712.82	11165	
713	12576	
713.18	12566	
713.37	10949	
713.55	11736	
713.73	12845	
713.91	11818	
714.1	10702	
714.28	10058	
714.46	11824	
714.64	11105	
714.83	9078.6	
715.01	9315.5	
715.19	10555	
715.37	9736.7	
715.55	8583	
715.74	8880.7	
715.92	10643	
716.1	9293	
716.28	9486.2	
716.47	8739.4	
716.65	9632.3	
716.83	9615.9	
717.01	8533.2	
717.19	8462.2	
717.38	10971	
717.56	9407.7	
717.74	8688.8	
717.92	8101.8	
718.1	10321	
718.29	9785.9	
718.47	8042.4	
718.65	8682	
718.83	10750	
719.01	10948	
719.2	8595.3	
719.38	9406.3	
719.56	10804	
719.74	11955	
719.92	9194	
720.11	9725.8	
720.29	10728	
720.47	10066	
720.65	8439	
720.83	8901.2	
721.02	9751.7	
721.2	9607.7	
721.38	8669.7	
721.56	8029.4	
721.74	9021.3	
721.92	9105.3	
722.11	8846.5	
722.29	8579.6	
722.47	9978.4	
722.65	9387.2	
722.83	7781.6	
723.01	8425.3	
723.2	9344.2	
723.38	9511.4	
723.56	7489.4	
723.74	8214.4	
723.92	9005.6	
724.1	9773.6	
724.29	7779.6	
724.47	8521.6	
724.65	9142.8	
724.83	8889.5	
725.01	7628.7	
725.19	8094.3	
725.37	8868.4	
725.56	8884.1	
725.74	7543.4	
725.92	7664.2	
726.1	8972.8	
726.28	9099.8	
726.46	7902.4	
726.64	7672.4	
726.83	9099.8	
727.01	9181.7	
727.19	7463.5	
727.37	7959.8	
727.55	9218.6	
727.73	9406.3	
727.91	7410.2	
728.09	7152.2	
728.28	9474.6	
728.46	9502.6	
728.64	7950.2	
728.82	7979.6	
729	10272	
729.18	9774.3	
729.36	7581.6	
729.54	9089.6	
729.72	10602	
729.91	9456.2	
730.09	9073.2	
730.27	8243.8	
730.45	9413.8	
730.63	9880.8	
730.81	8641.7	
730.99	8073.1	
731.17	10272	
731.35	9367.4	
731.53	8456.7	
731.71	8069.7	
731.9	10137	
732.08	10059	
732.26	8179.6	
732.44	7889.5	
732.62	9943.6	
732.8	9676	
732.98	8391.2	
733.16	7772.7	
733.34	9603.6	
733.52	8673.1	
733.7	7929.1	
733.88	8030.8	
734.07	9320.3	
734.25	9265	
734.43	7546.1	
734.61	8540	
734.79	10339	
734.97	9205.6	
735.15	7680.6	
735.33	7901.7	
735.51	9402.2	
735.69	9129.8	
735.87	8600.1	
736.05	7820.5	
736.23	9244.5	
736.41	8927.8	
736.59	7720.8	
736.77	7892.2	
736.95	9495.1	
737.13	9024.7	
737.32	7443.7	
737.5	7631.4	
737.68	9930.6	
737.86	8852	
738.04	7283.3	
738.22	8444.5	
738.4	8640.4	
738.58	8955.8	
738.76	7616.4	
738.94	6984.3	
739.12	8761.2	
739.3	8757.8	
739.48	7947.5	
739.66	7794.6	
739.84	8919.6	
740.02	8946.9	
740.2	6956.9	
740.38	7177.4	
740.56	9078.6	
740.74	8183	
740.92	7588.4	
741.1	7415.7	
741.28	8524.3	
741.46	8434.9	
741.64	7071.6	
741.82	7476.5	
742	8532.5	
742.18	8456.7	
742.36	7185.6	
742.54	6888	
742.72	8916.2	
742.9	7919.5	
743.08	7370.6	
743.26	6503.7	
743.44	8815.8	
743.62	8815.1	
743.8	7365.9	
743.98	6733.7	
744.16	8472.4	
744.34	8247.2	
744.52	7258	
744.7	7200.7	
744.88	8507.3	
745.06	8187.1	
745.24	7150.1	
745.42	7170.6	
745.6	8517.5	
745.78	8415.1	
745.96	6247.7	
746.14	6335	
746.32	8884.8	
746.5	8235.6	
746.68	6826.6	
746.86	6379.4	
747.03	8491.6	
747.21	7395.2	
747.39	6614.3	
747.57	6221.7	
747.75	7955	
747.93	8181.6	
748.11	6124.8	
748.29	6205.3	
748.47	9142.1	
748.65	7677.2	
748.83	6741.9	
749.01	6484.6	
749.19	8008.9	
749.37	7354.3	
749.55	6275	
749.73	6419	
749.91	7782.3	
750.09	7541.3	
750.26	6408.8	
750.44	6012.2	
750.62	7681.2	
750.8	7631.4	
750.98	5882.4	
751.16	6074.3	
751.34	7711.3	
751.52	7249.8	
751.7	6668.9	
751.88	5802.6	
752.06	7963.9	
752.24	7778.9	
752.42	5700.2	
752.59	5924.1	
752.77	7475.8	
752.95	8357.8	
753.13	6404.7	
753.31	6005.3	
753.49	7279.2	
753.67	7447.1	
753.85	6160.3	
754.03	5796.4	
754.21	7638.9	
754.38	7784.3	
754.56	5727.5	
754.74	5031.2	
754.92	6802.7	
755.1	7161.7	
755.28	4898.7	
755.46	4857.8	
755.64	7366.5	
755.82	7275.8	
755.99	4464.6	
756.17	4419.5	
756.35	5104.2	
756.53	6077.7	
756.71	3373	
756.89	4009.9	
757.07	5697.4	
757.25	5211.4	
757.42	4375.1	
757.6	5158.8	
757.78	6034	
757.96	5402.5	
758.14	4461.8	
758.32	4164.9	
758.5	5091.9	
758.67	5664.7	
758.85	4234.5	
759.03	4326	
759.21	5788.9	
759.39	5335	
759.57	3947.8	
759.75	4786.1	
759.92	6268.8	
760.1	5862	
760.28	5070.8	
760.46	5358.9	
760.64	5733.6	
760.82	5543.2	
760.99	5115.8	
761.17	4563.6	
761.35	6453.8	
761.53	5580	
761.71	4739	
761.89	5144.5	
762.06	6345.3	
762.24	6047.7	
762.42	4911.7	
762.6	4670.7	
762.78	6141.9	
762.96	6486.6	
763.13	5210	
763.31	4939	
763.49	6594.5	
763.67	6082.5	
763.85	5507	
764.02	5888.6	
764.2	6857.3	
764.38	6229.9	
764.56	4897.4	
764.74	5456.5	
764.91	6917.4	
765.09	6055.8	
765.27	4695.3	
765.45	4448.2	
765.63	6956.3	
765.8	6761.7	
765.98	4290.5	
766.16	4505.5	
766.34	5737.7	
766.52	5500.2	
766.69	5029.8	
766.87	4328.7	
767.05	5999.9	
767.23	6484.6	
767.41	4502.8	
767.58	4619.5	
767.76	6374	
767.94	6358.9	
768.12	4540.3	
768.29	4988.2	
768.47	5924.8	
768.65	6439.5	
768.83	4250.2	
769	4919.9	
769.18	5621.7	
769.36	6027.9	
769.54	4864.6	
769.72	4176.5	
769.89	6317.3	
770.07	6262.7	
770.25	4397	
770.43	5247.6	
770.6	6830	
770.78	7032	
770.96	4434.5	
771.14	4858.5	
771.31	6136.4	
771.49	5648.3	
771.67	3822.2	
771.85	3968.3	
772.02	5098.8	
772.2	5601.2	
772.38	4529.4	
772.55	4087.1	
772.73	5780.1	
772.91	5568.4	
773.09	4347.2	
773.26	4368.3	
773.44	5740.5	
773.62	5486.5	
773.8	4004.5	
773.97	3800.3	
774.15	5674.2	
774.33	5475.6	
774.5	3862.5	
774.68	4078.2	
774.86	5746.6	
775.04	5407.3	
775.21	3902.7	
775.39	3835.2	
775.57	5578.7	
775.74	5753.4	
775.92	3760.8	
776.1	3618.8	
776.27	5500.2	
776.45	6358.3	
776.63	3862.5	
776.81	3525.9	
776.98	5304.9	
777.16	5967.8	
777.34	3880.2	
777.51	4104.8	
777.69	5231.9	
777.87	4983.4	
778.04	3954.6	
778.22	4267.3	
778.4	5076.9	
778.57	5588.2	
778.75	3349.1	
778.93	3534.1	
779.1	4883.7	
779.28	4726.7	
779.46	3373.7	
779.64	3642.7	
779.81	5579.3	
779.99	6149.4	
780.17	4149.2	
780.34	4256.4	
780.52	5244.8	
780.69	5348.6	
780.87	3900	
781.05	3543	
781.22	5237.3	
781.4	5201.8	
781.58	3663.1	
781.75	2988.7	
781.93	5201.2	
782.11	4760.2	
782.28	4252.3	
782.46	3560.7	
782.64	4623.6	
782.81	5240.1	
782.99	3682.9	
783.17	3568.2	
783.34	5137	
783.52	4713.7	
783.69	3707.5	
783.87	4220.2	
784.05	4786.8	
784.22	4683	
784.4	4278.9	
784.58	3763.5	
784.75	5414.1	
784.93	4760.8	
785.1	3480.9	
785.28	3937.6	
785.46	5192.3	
785.63	4653	
785.81	3500	
785.99	3371.6	
786.16	4897.4	
786.34	5045.5	
786.51	3435.8	
786.69	3689.1	
786.87	4516.5	
787.04	4792.9	
787.22	3238.5	
787.39	3898.6	
787.57	4635.2	
787.75	5382.7	
787.92	4085.7	
788.1	4007.2	
788.27	4567.7	
788.45	4412.7	
788.63	3861.1	
788.8	2892.4	
788.98	5072.8	
789.15	4316.4	
789.33	3024.8	
789.5	3426.3	
789.68	5251	
789.86	5293.3	
790.03	3709.6	
790.21	3311.6	
790.38	5296.7	
790.56	4706.9	
790.73	3271.3	
790.91	3247.4	
791.09	4615.4	
791.26	5059.8	
791.44	3433.8	
791.61	3040.6	
791.79	4594.3	
791.96	4570.4	
792.14	3104.7	
792.32	2766.8	
792.49	4595	
792.67	4707.6	
792.84	3191.4	
793.02	2972.3	
793.19	4880.3	
793.37	5406.6	
793.54	2822.8	
793.72	3027.6	
793.89	5412.8	
794.07	4491.9	
794.25	3355.3	
794.42	2832.3	
794.6	5332.9	
794.77	4971.1	
794.95	3673.4	
795.12	3252.2	
795.3	4567.7	
795.47	4875.5	
795.65	3522.5	
795.82	3396.2	
796	4378.6	
796.17	5676.3	
796.35	3351.2	
796.52	3873.4	
796.7	4927.4	
796.87	4938.3	
797.05	3323.9	
797.22	3870	
797.4	5003.9	
797.57	5664.7	
797.75	3503.4	
797.92	3192.1	
798.1	5203.2	
798.27	4422.2	
798.45	2811.2	
798.62	3037.8	
798.8	4730.8	
798.97	5126.7	
799.15	3513.6	
799.32	3427.6	
799.5	4234.5	
799.67	4713.7	
799.85	3669.3	
800.02	2800.3	
800.2	4457.1	
800.37	4673.5	
800.55	3691.8	
800.72	3138.9	
800.9	5068.7	
801.07	5342.5	
801.25	4078.2	
801.42	3489.7	
801.6	5063.9	
801.77	4747.9	
801.95	3285.6	
802.12	3110.2	
802.29	4821.6	
802.47	4805.9	
802.64	3475.4	
802.82	2691	
802.99	4493.9	
803.17	5081.7	
803.34	3348.4	
803.52	3065.1	
803.69	5565	
803.87	4285	
804.04	3355.9	
804.21	3418.7	
804.39	5274.2	
804.56	4551.3	
804.74	2910.8	
804.91	3443.3	
805.09	4449.6	
805.26	4488.5	
805.44	2951.8	
805.61	3210.5	
805.78	4922.6	
805.96	4844.8	
806.13	3450.8	
806.31	3647.4	
806.48	4111.6	
806.66	4442.7	
806.83	3468.6	
807	3312.2	
807.18	4451.6	
807.35	4670.1	
807.53	3181.2	
807.7	2798.9	
807.87	5236	
808.05	4468	
808.22	3576.4	
808.4	2752.5	
808.57	4341.7	
808.74	4199	
808.92	3142.9	
809.09	3768.9	
809.27	4390.2	
809.44	4775.2	
809.61	2819.4	
809.79	2964.1	
809.96	5325.4	
810.14	4887.1	
810.31	2733.4	
810.48	3209.2	
810.66	4506.2	
810.83	4898.1	
811.01	3023.5	
811.18	3346.4	
811.35	4989.5	
811.53	3956	
811.7	3610.6	
811.87	3356.6	
812.05	4491.2	
812.22	4397	
812.39	2998.2	
812.57	2891.7	
812.74	4537.6	
812.92	5629.9	
813.09	3218	
813.26	3446.7	
813.44	5384.1	
813.61	4334.9	
813.78	2703.3	
813.96	3465.8	
814.13	4469.4	
814.3	4257.7	
814.48	3846.1	
814.65	3153.2	
814.82	5249.6	
815	4208.6	
815.17	3254.2	
815.34	3870.7	
815.52	4465.9	
815.69	4349.9	
815.87	3144.3	
816.04	3149.1	
816.21	4420.9	
816.38	3991.5	
816.56	3189.4	
816.73	2975	
816.9	5438	
817.08	4966.3	
817.25	3044.6	
817.42	3583.9	
817.6	4031.8	
817.77	4418.2	
817.94	3267.2	
818.12	2953.2	
818.29	4294.6	
818.46	6020.3	
818.64	3107.5	
818.81	2903.3	
818.98	4231.1	
819.16	5693.4	
819.33	3480.9	
819.5	3300.6	
819.67	4633.2	
819.85	5122	
820.02	3182.5	
820.19	3379.1	
820.37	4543.8	
820.54	4352.6	
820.71	3323.2	
820.88	3968.3	
821.06	4584.7	
821.23	4308.9	
821.4	3355.9	
821.58	3317	
821.75	4917.9	
821.92	4492.6	
822.09	2694.4	
822.27	2822.8	
822.44	4416.8	
822.61	4278.9	
822.79	2765.4	
822.96	4899.4	
823.13	4653.7	
823.3	4162.2	
823.48	3088.3	
823.65	2828.9	
823.82	4960.9	
823.99	4096.6	
824.17	3848.8	
824.34	2843.3	
824.51	5528.8	
824.68	4387.4	
824.86	3031.7	
825.03	3246	
825.2	4438.6	
825.37	5106.3	
825.55	2980.5	
825.72	3248.1	
825.89	5541.8	
826.06	5210	
826.24	3183.2	
826.41	3183.2	
826.58	5227.1	
826.75	4613.4	
826.92	2631	
827.1	2880.8	
827.27	6746.7	
827.44	5504.3	
827.61	2992.8	
827.79	3595.6	
827.96	4289.8	
828.13	4450.9	
828.3	3201.7	
828.47	2705.4	
828.65	4678.9	
828.82	4605.2	
828.99	3962.8	
829.16	3433.8	
829.34	4983.4	
829.51	4751.3	
829.68	3272.7	
829.85	3321.1	
830.02	5186.1	
830.2	4958.1	
830.37	2556.5	
830.54	3796.9	
830.71	5466	
830.88	4431.1	
831.05	2585.9	
831.23	2987.3	
831.4	5319.9	
831.57	5756.2	
831.74	3002.3	
831.91	2719.7	
832.09	4730.1	
832.26	4939.7	
832.43	3062.4	
832.6	3419.4	
832.77	4689.8	
832.94	5238.7	
833.12	2553.1	
833.29	3069.9	
833.46	4703.5	
833.63	5882.4	
833.8	3328.6	
833.97	3090.4	
834.15	5023	
834.32	4814.8	
834.49	3244.7	
834.66	3282.2	
834.83	4948.6	
835	4293.2	
835.17	3016.7	
835.35	2988.7	
835.52	4837.3	
835.69	4775.9	
835.86	3136.8	
836.03	2654.9	
836.2	4899.4	
836.37	4614.1	
836.55	3034.4	
836.72	2870.6	
836.89	4595	
837.06	4970.4	
837.23	3136.1	
837.4	3407.8	
837.57	5522	
837.75	5877.7	
837.92	2859.6	
838.09	3032.4	
838.26	4624.3	
838.43	5033.9	
838.6	3209.2	
838.77	2934.1	
838.94	5575.9	
839.11	5487.2	
839.29	3112.9	
839.46	2514.9	
839.63	4932.2	
839.8	4676.2	
839.97	3004.4	
840.14	3004.4	
840.31	4783.4	
840.48	4915.8	
840.65	2549	
840.82	2989.4	
841	4868.7	
841.17	4725.3	
841.34	2785.9	
841.51	2834.4	
841.68	4841.4	
841.85	4618.9	
842.02	2925.2	
842.19	2497.2	
842.36	4750.6	
842.53	4715.1	
842.7	2824.8	
842.87	3276.8	
843.05	5882.4	
843.22	4649.6	
843.39	2671.9	
843.56	2919	
843.73	4584	
843.9	4943.1	
844.07	4226.3	
844.24	3548.4	
844.41	6613.6	
844.58	4388.1	
844.75	2717	
844.92	2940.2	
845.09	4885.8	
845.26	4852.3	
845.43	2820.1	
845.6	2932	
845.77	4900.1	
845.94	4700.8	
846.12	3119.1	
846.29	3183.2	
846.46	5066	
846.63	4861.9	
846.8	2785.9	
846.97	3265.8	
847.14	5163.6	
847.31	4809.3	
847.48	3082.9	
847.65	3355.3	
847.82	5026.4	
847.99	5056.4	
848.16	3602.4	
848.33	3302	
848.5	4537.6	
848.67	5242.1	
848.84	2750.4	
849.01	2874	
849.18	4519.9	
849.35	4233.2	
849.52	3350.5	
849.69	2695.1	
849.86	5073.5	
850.03	5060.5	
850.2	2824.1	
850.37	3235.8	
850.54	5078.3	
850.71	4586.1	
850.88	3272	
851.05	2704.7	
851.22	4776.5	
851.39	5226.4	
851.56	2644.6	
851.73	3137.5	
851.9	4312.3	
852.07	5020.9	
852.24	3005.1	
852.41	2740.2	
852.58	4797	
852.75	4411.3	
852.92	3099.3	
853.09	2725.8	
853.26	4514.4	
853.43	5106.3	
853.6	2742.9	
853.77	2409.8	
853.94	5300.1	
854.11	4300.7	
854.28	3943.7	
854.44	2978.4	
854.61	5496.1	
854.78	5029.1	
854.95	2775.7	
855.12	3376.4	
855.29	4040	
855.46	5319.3	
855.63	2766.1	
855.8	3651.5	
855.97	4505.5	
856.14	5143.8	
856.31	3678.2	
856.48	2959.3	
856.65	4604.5	
856.82	4274.8	
856.99	2643.9	
857.16	2961.4	
857.33	5661.3	
857.49	4588.1	
857.66	2957.3	
857.83	3065.8	
858	4655	
858.17	4734.9	
858.34	2630.3	
858.51	2781.1	
858.68	5297.4	
858.85	5350	
859.02	3145.7	
859.19	3321.1	
859.36	4365.6	
859.52	4358.8	
859.69	2789.3	
859.86	3168.2	
860.03	4365.6	
860.2	5217.5	
860.37	2577.7	
860.54	2817.3	
860.71	4934.2	
860.88	5231.2	
861.05	3024.8	
861.21	3418.1	
861.38	5212.1	
861.55	4212	
861.72	2511.5	
861.89	3077.4	
862.06	4975.9	
862.23	5341.1	
862.4	2663.7	
862.56	2883.5	
862.73	4973.2	
862.9	4683.7	
863.07	3177.8	
863.24	2571.6	
863.41	4289.8	
863.58	4357.4	
863.75	2811.9	
863.91	3171.6	
864.08	5208.7	
864.25	4920.6	
864.42	3360	
864.59	3756	
864.76	5429.2	
864.93	4361.5	
865.09	2687.6	
865.26	2896.5	
865.43	5190.2	
865.6	5491.3	
865.77	2421.4	
865.94	2745	
866.1	5186.8	
866.27	4917.2	
866.44	3957.4	
866.61	2641.2	
866.78	4613.4	
866.95	4947.9	
867.11	2724.5	
867.28	2487.6	
867.45	5128.8	
867.62	4363.5	
867.79	3168.2	
867.96	2753.8	
868.12	4303.5	
868.29	4971.8	
868.46	2731.3	
868.63	3539.6	
868.8	5079	
868.97	4952.7	
869.13	2896.5	
869.3	2896.5	
869.47	4808.6	
869.64	5001.1	
869.81	2777	
869.97	2793.4	
870.14	4823.6	
870.31	5190.2	
870.48	2713.6	
870.65	3349.1	
870.81	4624.3	
870.98	4625	
871.15	3044	
871.32	2848.7	
871.48	4880.3	
871.65	5326.8	
871.82	2686.3	
871.99	2997.5	
872.16	5597.1	
872.32	5155.4	
872.49	2794.8	
872.66	2789.3	
872.83	4995	
872.99	4489.8	
873.16	3134.8	
873.33	2745.6	
873.5	4666	
873.67	4756.7	
873.83	2895.1	
874	3536.2	
874.17	4861.9	
874.34	5461.9	
874.5	3466.5	
874.67	3353.9	
874.84	5243.5	
875.01	4266.6	
875.17	3728.7	
875.34	2703.3	
875.51	4790.9	
875.68	5631.2	
875.84	3317	
876.01	3865.9	
876.18	4950.6	
876.34	4881	
876.51	2762.7	
876.68	2691	
876.85	4559.5	
877.01	5184.8	
877.18	3853.6	
877.35	2698.5	
877.52	4803.9	
877.68	4354	
877.85	2680.8	
878.02	2710.1	
878.18	4554.7	
878.35	4473.4	
878.52	2270.5	
878.69	2981.8	
878.85	5046.2	
879.02	4892.6	
879.19	3761.4	
879.35	2932.7	
879.52	4971.8	
879.69	5038.7	
879.86	2464.4	
880.02	3022.1	
880.19	4697.4	
880.36	5481.7	
880.52	3150.5	
880.69	3220.8	
880.86	4995.7	
881.02	5033.9	
881.19	3026.2	
881.36	2936.8	
881.52	4929.5	
881.69	4404.5	
881.86	2941.6	
882.02	2858.3	
882.19	5111	
882.36	5806.7	
882.52	2813.9	
882.69	3728	
882.86	4825	
883.02	4768.4	
883.19	3242.6	
883.36	3079.5	
883.52	5005.9	
883.69	5555.5	
883.86	2792.7	
884.02	2581.1	
884.19	4934.9	
884.36	4749.9	
884.52	3102.7	
884.69	2921.8	
884.86	4541.7	
885.02	5340.4	
885.19	3030.3	
885.36	3094.5	
885.52	4551.3	
885.69	4819.6	
885.86	3865.2	
886.02	3401	
886.19	5001.1	
886.35	4532.8	
886.52	3005.1	
886.69	3749.1	
886.85	4361.5	
887.02	5195.7	
887.19	5195.7	
887.35	5195.7	
887.52	5195.7	
887.68	5195.7	
887.85	5195.7	
888.02	5195.7	
888.18	5195.7	
888.35	5195.7	
888.51	5195.7	
888.68	5195.7	
888.85	5195.7	
889.01	5195.7	
889.18	5195.7	
889.35	5195.7	
889.51	5195.7	
889.68	5195.7	
889.84	5195.7	
890.01	5195.7	
890.17	5195.7	
890.34	5195.7	
890.51	5195.7	
890.67	5195.7	
890.84	5195.7	
891	5195.7	
891.17	5195.7	
891.34	5195.7	
891.5	5195.7	
891.67	5195.7	
891.83	5195.7	
892	5195.7	
892.16	5195.7	
892.33	5195.7	
892.5	5195.7	
892.66	5195.7	
892.83	5195.7	
892.99	5195.7	
893.16	5195.7	
893.32	5195.7	
893.49	5195.7	
893.65	5195.7	
893.82	5195.7	
893.99	5195.7	
894.15	5195.7	
894.32	5195.7	
894.48	5195.7	
894.65	5195.7	
894.81	5195.7	
894.98	5195.7	
895.14	5195.7	
895.31	5195.7	
895.47	5195.7	
895.64	5195.7	
895.81	5195.7	
895.97	5195.7	
896.14	5195.7	
896.3	5195.7	
896.47	5195.7	
896.63	5195.7	
896.8	5195.7	
896.96	5195.7	
897.13	5195.7	
897.29	5195.7	
897.46	5195.7	
897.62	5195.7	
897.79	5195.7	
897.95	5195.7	
898.12	5195.7	
898.28	5195.7	
898.45	5195.7	
898.61	5195.7	
898.78	5195.7	
898.94	5195.7	
899.11	5195.7	
899.27	5195.7	
899.44	5195.7	
899.6	5195.7	
899.77	5195.7	
899.93	5195.7	
900.1	5195.7	
900.26	5195.7	
900.43	5195.7	
900.59	5195.7	
900.76	5195.7	
900.92	5195.7	
901.09	5195.7	
901.25	5195.7	
901.42	5195.7	
901.58	5195.7	
901.75	5195.7	
901.91	5195.7	
902.07	5195.7	
902.24	5195.7	
902.4	5195.7	
902.57	5195.7	
902.73	5195.7	
902.9	5195.7	
903.06	5195.7	
903.23	5195.7	
903.39	5195.7	
903.56	5195.7	
903.72	5195.7	
903.88	5195.7	
904.05	5195.7	
904.21	5195.7	
904.38	5195.7	
904.54	5195.7	
904.71	5195.7	
904.87	5195.7	
905.03	5195.7	
905.2	5195.7	
905.36	5195.7	
905.53	5195.7	
905.69	5195.7	
905.86	5195.7	
906.02	5195.7	
906.18	5195.7	
906.35	5195.7	
906.51	5195.7	
906.68	5195.7	
906.84	5195.7	
907.01	5195.7	
907.17	5195.7	
907.33	5195.7	
907.5	5195.7	
907.66	5195.7	
907.83	5195.7	
907.99	5195.7	
908.15	5195.7	
908.32	5195.7	
908.48	5195.7	
908.65	5195.7	
908.81	5195.7	
908.97	5195.7	
909.14	5195.7	
909.3	5195.7	
909.47	5195.7	
909.63	5195.7	
909.79	5195.7	
909.96	5195.7	
910.12	5195.7	
910.28	5195.7	
910.45	5195.7	
910.61	5195.7	
910.78	5195.7	
910.94	5195.7	
911.1	5195.7	
911.27	5195.7	
911.43	5195.7	
911.59	5195.7	
911.76	5195.7	
911.92	5195.7	
912.08	5195.7	
912.25	5195.7	
912.41	5195.7	
912.57	5195.7	
912.74	5195.7	
912.9	5195.7	
913.07	5195.7	
913.23	5195.7	
913.39	5195.7	
913.56	5195.7	
913.72	5195.7	
913.88	5195.7	
914.05	5195.7	
914.21	5195.7	
914.37	5195.7	
914.54	5195.7	
914.7	5195.7	
914.86	5195.7	
915.03	5195.7	
915.19	5195.7	
