Wavelength	Intensities	
nm	a.u.	
179.22	1913.8	
179.44	1927.1	
179.65	1900.5	
179.86	1953.8	
180.08	1909.4	
180.29	4969.7	
180.51	3568.2	
180.72	5648.3	
180.94	6690	
181.15	3284.3	
181.37	3246	
181.58	5529.5	
181.79	5832.6	
182.01	3367.5	
182.22	3629.7	
182.44	5840.1	
182.65	4816.1	
182.87	4597.7	
183.08	3994.9	
183.29	6009.4	
183.51	5025	
183.72	3645.4	
183.94	5365	
184.15	5328.1	
184.37	5427.8	
184.58	3188.7	
184.79	4437.9	
185.01	4993.6	
185.22	5728.2	
185.44	4680.3	
185.65	3934.8	
185.86	5285.1	
186.08	4920.6	
186.29	3124.5	
186.51	3405.1	
186.72	5047.6	
186.94	5924.8	
187.15	3881.6	
187.36	3989.4	
187.58	7759.1	
187.79	5520.6	
188.01	4239.3	
188.22	6560.3	
188.43	6662.7	
188.65	5711.8	
188.86	3371.6	
189.08	4001.7	
189.29	5191.6	
189.5	5232.6	
189.72	3751.2	
189.93	3825.6	
190.15	5986.2	
190.36	7120.8	
190.57	4174.4	
190.79	3942.3	
191	6066.1	
191.22	6019.7	
191.43	4117.1	
191.64	3334.1	
191.86	6318	
192.07	6037.4	
192.29	3559.4	
192.5	3783.3	
192.71	5954.8	
192.93	5162.9	
193.14	3691.1	
193.35	3774.4	
193.57	5197.1	
193.78	6038.1	
194	2992.8	
194.21	3644	
194.42	4976.6	
194.64	5475.6	
194.85	4016.1	
195.07	4831.2	
195.28	5444.2	
195.49	4708.3	
195.71	4971.8	
195.92	3489.7	
196.13	5580.7	
196.35	5783.5	
196.56	5372.5	
196.78	4072.7	
196.99	7101	
197.2	6628.6	
197.42	4634.6	
197.63	4147.8	
197.84	4860.5	
198.06	5623.7	
198.27	3704.8	
198.48	4965.6	
198.7	5205.9	
198.91	5371.1	
199.13	4037.2	
199.34	4070	
199.55	5828.5	
199.77	4666	
199.98	3566.9	
200.19	4099.4	
200.41	5276.9	
200.62	5053.7	
200.83	4220.2	
201.05	4546.5	
201.26	5356.8	
201.47	5012.7	
201.69	3635.8	
201.9	3487.7	
202.11	5361.6	
202.33	6399.9	
202.54	3867.9	
202.76	4315.1	
202.97	5475.6	
203.18	5507.7	
203.4	4215.4	
203.61	4162.2	
203.82	5483.1	
204.04	5126.7	
204.25	4130.1	
204.46	4022.9	
204.68	5453.1	
204.89	5626.5	
205.1	3960.8	
205.32	3427.6	
205.53	5850.4	
205.74	5965.1	
205.96	2942.2	
206.17	4214	
206.38	5838.1	
206.6	5992.4	
206.81	4674.8	
207.02	3831.7	
207.24	5670.1	
207.45	6050.4	
207.66	3869.3	
207.88	3272.7	
208.09	5582.1	
208.3	5375.9	
208.52	3516.4	
208.73	3905.5	
208.94	5362.3	
209.15	6100.9	
209.37	3818.1	
209.58	4112.3	
209.79	5999.2	
210.01	5218.9	
210.22	3132.7	
210.43	3192.8	
210.65	5427.1	
210.86	5891.3	
211.07	3867.9	
211.29	3534.8	
211.5	5817.6	
211.71	5362.9	
211.93	3547.1	
212.14	3565.5	
212.35	5320.6	
212.56	5635.3	
212.78	4172.4	
212.99	3394.2	
213.2	6459.3	
213.42	5181.4	
213.63	3658.4	
213.84	3969.6	
214.06	4818.9	
214.27	4909	
214.48	3900.7	
214.69	4130.1	
214.91	6089.3	
215.12	6186.9	
215.33	4149.2	
215.55	4654.4	
215.76	6703	
215.97	5829.2	
216.18	3995.6	
216.4	3918.4	
216.61	5089.2	
216.82	5890	
217.04	3594.2	
217.25	3745.7	
217.46	6066.1	
217.67	5796.4	
217.89	3216	
218.1	3262.4	
218.31	5481.7	
218.53	5577.3	
218.74	3689.1	
218.95	3623.5	
219.16	5346.6	
219.38	6385.6	
219.59	3674.1	
219.8	4352.6	
220.01	7120.1	
220.23	5482.4	
220.44	4813.4	
220.65	3495.2	
220.87	5477.6	
221.08	6068.1	
221.29	3293.1	
221.5	4429.8	
221.72	7498.3	
221.93	5152.7	
222.14	4078.9	
222.35	4846.2	
222.57	5491.3	
222.78	5747.3	
222.99	3902.1	
223.2	4229.7	
223.42	5683.1	
223.63	5915.9	
223.84	2973	
224.05	2973.7	
224.27	6902.3	
224.48	6312.5	
224.69	4840	
224.9	4018.1	
225.12	5644.9	
225.33	5340.4	
225.54	3231.7	
225.75	3646.1	
225.97	4992.9	
226.18	5265.3	
226.39	3958.7	
226.6	3659	
226.82	5124	
227.03	5038.7	
227.24	4034.5	
227.45	3317.7	
227.67	5814.9	
227.88	6413.6	
228.09	4528.7	
228.3	4637.3	
228.52	5924.1	
228.73	5372.5	
228.94	3809.2	
229.15	3360.7	
229.36	5299.5	
229.58	5256.5	
229.79	3865.2	
230	4455.7	
230.21	6438.8	
230.43	5501.5	
230.64	4045.4	
230.85	4259.1	
231.06	5742.5	
231.28	5892.7	
231.49	3328.6	
231.7	3971	
231.91	5742.5	
232.12	5455.8	
232.34	3407.8	
232.55	3961.5	
232.76	6090.7	
232.97	5599.8	
233.18	3576.4	
233.4	4050.9	
233.61	5631.2	
233.82	5200.5	
234.03	3777.8	
234.25	3682.2	
234.46	7565.2	
234.67	5437.4	
234.88	4184.7	
235.09	3581.9	
235.31	5776	
235.52	5316.5	
235.73	4044.7	
235.94	3463.1	
236.15	5096.7	
236.37	6618.4	
236.58	3604.4	
236.79	3945.8	
237	5745.2	
237.21	4915.8	
237.43	4269.3	
237.64	3364.1	
237.85	9898.5	
238.06	5038	
238.27	4248.9	
238.48	3433.8	
238.7	5767.1	
238.91	5265.3	
239.12	3911.6	
239.33	3977.2	
239.54	5229.1	
239.76	5294.7	
239.97	3863.2	
240.18	3855	
240.39	6821.1	
240.6	5706.3	
240.82	4082.3	
241.03	3317	
241.24	5401.2	
241.45	6263.4	
241.66	3562.1	
241.87	4215.4	
242.09	6113.9	
242.3	6549.4	
242.51	4281.6	
242.72	3913.7	
242.93	5889.3	
243.14	5396.4	
243.36	4525.3	
243.57	4900.1	
243.78	6277	
243.99	5828.5	
244.2	3965.6	
244.41	3549.8	
244.63	5027.8	
244.84	5687.2	
245.05	4175.8	
245.26	3931.4	
245.47	5696.8	
245.68	6043.6	
245.9	5250.3	
246.11	4103.4	
246.32	5246.2	
246.53	5657.2	
246.74	6378.7	
246.95	3295.9	
247.16	4915.8	
247.38	5406.6	
247.59	3226.2	
247.8	3986.7	
248.01	5122	
248.22	5443.5	
248.43	3579.2	
248.64	3857	
248.86	4818.9	
249.07	5110.4	
249.28	3439.9	
249.49	4037.2	
249.7	6044.9	
249.91	6072.2	
250.12	3237.8	
250.34	3366.2	
250.55	5530.2	
250.76	5471.5	
250.97	4072.7	
251.18	4040.6	
251.39	6146.6	
251.6	5620.3	
251.81	4144.4	
252.03	4124.6	
252.24	5233.2	
252.45	5965.7	
252.66	3389.4	
252.87	4276.8	
253.08	5455.8	
253.29	7163.8	
253.5	3415.3	
253.72	4778.6	
253.93	5263.3	
254.14	6438.8	
254.35	3728.7	
254.56	3799	
254.77	5690.6	
254.98	5055.1	
255.19	3649.5	
255.41	4749.2	
255.62	5542.5	
255.83	6104.3	
256.04	4205.2	
256.25	4123.2	
256.46	6704.4	
256.67	5113.8	
256.88	4026.3	
257.09	4499.4	
257.31	5070.1	
257.52	5137	
257.73	5095.3	
257.94	3698.6	
258.15	5273.5	
258.36	5449	
258.57	4661.2	
258.78	2964.1	
258.99	5864.7	
259.2	5274.2	
259.41	3704.8	
259.63	3795.6	
259.84	6319.3	
260.05	6754.2	
260.26	4924.7	
260.47	3629	
260.68	6008.1	
260.89	5302.9	
261.1	4488.5	
261.31	3568.2	
261.52	6033.3	
261.73	6411.5	
261.95	4861.9	
262.16	4203.1	
262.37	6171.2	
262.58	6281.8	
262.79	4797	
263	3837.2	
263.21	5532.2	
263.42	4970.4	
263.63	3809.9	
263.84	3741.6	
264.05	5930.9	
264.26	6397.9	
264.47	4701.5	
264.69	4248.9	
264.9	6139.8	
265.11	5633.3	
265.32	3650.2	
265.53	3744.4	
265.74	5565.7	
265.95	4813.4	
266.16	4000.4	
266.37	4458.4	
266.58	5497.4	
266.79	5207.3	
267	3712.3	
267.21	3448.1	
267.42	5038.7	
267.63	5413.5	
267.84	3949.8	
268.06	3312.2	
268.27	5814.2	
268.48	6141.9	
268.69	3831.7	
268.9	4500.1	
269.11	6124.8	
269.32	4925.4	
269.53	3865.9	
269.74	3633.1	
269.95	5814.2	
270.16	4798.4	
270.37	3902.7	
270.58	4511	
270.79	5295.4	
271	5987.6	
271.21	4194.2	
271.42	3938.9	
271.63	5549.3	
271.84	5059.8	
272.05	3137.5	
272.26	3508.2	
272.47	5423	
272.68	5629.9	
272.89	3722.5	
273.11	4349.2	
273.32	5226.4	
273.53	6379.4	
273.74	4280.3	
273.95	4132.1	
274.16	6054.5	
274.37	5468.8	
274.58	4289.8	
274.79	3411.9	
275	5585.5	
275.21	6111.8	
275.42	5252.4	
275.63	4444.1	
275.84	5711.1	
276.05	7189.1	
276.26	4116.4	
276.47	3805.1	
276.68	5263.3	
276.89	6440.2	
277.1	4404.5	
277.31	3448.8	
277.52	5740.5	
277.73	5899.5	
277.94	3388.7	
278.15	3771	
278.36	5669.5	
278.57	5042.8	
278.78	3676.8	
278.99	4222.9	
279.2	5063.9	
279.41	5038	
279.62	4934.9	
279.83	3408.5	
280.04	6691.4	
280.25	4916.5	
280.46	4892.6	
280.67	3910.9	
280.88	5030.5	
281.09	6094.8	
281.3	4106.2	
281.51	5266.7	
281.72	5894.1	
281.93	5974.6	
282.14	3639.9	
282.35	3958.7	
282.56	5935	
282.77	5876.3	
282.98	3784.6	
283.19	4698.7	
283.4	7288.7	
283.61	5386.8	
283.82	3427.6	
284.03	4880.3	
284.24	5578	
284.45	6076.3	
284.66	4835.9	
284.87	4693.3	
285.08	6036	
285.29	6170.5	
285.5	3313.6	
285.71	3825.6	
285.92	6086.6	
286.12	6736.5	
286.33	4821.6	
286.54	3805.1	
286.75	5945.3	
286.96	5309	
287.17	3483.6	
287.38	4774.5	
287.59	5029.1	
287.8	4968.4	
288.01	3898.6	
288.22	4415.4	
288.43	5947.3	
288.64	4977.2	
288.85	4519.2	
289.06	4323.3	
289.27	5885.2	
289.48	6395.8	
289.69	4924.7	
289.9	4401.1	
290.11	6184.9	
290.32	5150	
290.53	4634.6	
290.74	4213.4	
290.94	5888.6	
291.15	5937.7	
291.36	3688.4	
291.57	4425.7	
291.78	5171.1	
291.99	4853	
292.2	3512.3	
292.41	4292.5	
292.62	5967.1	
292.83	5735.7	
293.04	5293.3	
293.25	3527.3	
293.46	5222.3	
293.67	6028.5	
293.88	3679.5	
294.09	3522.5	
294.29	4990.9	
294.5	5580	
294.71	3911.6	
294.92	3775.1	
295.13	5216.2	
295.34	6606.7	
295.55	3307.5	
295.76	3386.7	
295.97	5873.6	
296.18	6628.6	
296.39	3467.9	
296.6	3701.4	
296.81	5560.9	
297.01	5878.4	
297.22	3844.7	
297.43	3644	
297.64	5089.9	
297.85	5056.4	
298.06	3017.3	
298.27	3297.9	
298.48	5483.1	
298.69	5134.9	
298.9	3979.9	
299.11	3585.3	
299.31	4949.9	
299.52	4949.3	
299.73	4261.1	
299.94	4198.3	
300.15	5485.8	
300.36	5036.6	
300.57	4201.7	
300.78	4209.9	
300.99	5322.7	
301.2	5603.9	
301.4	3610.6	
301.61	4003.1	
301.82	5810.8	
302.03	5885.2	
302.24	4468	
302.45	3467.2	
302.66	5743.2	
302.87	6236.1	
303.08	3685.7	
303.29	5059.2	
303.49	5204.6	
303.7	5442.1	
303.91	3237.2	
304.12	4792.2	
304.33	4964.3	
304.54	5543.9	
304.75	3730	
304.96	3488.4	
305.16	5795.8	
305.37	6522.8	
305.58	3170.3	
305.79	3332	
306	5769.1	
306.21	4846.9	
306.42	3676.1	
306.63	5638.1	
306.83	5283.1	
307.04	6029.2	
307.25	4035.2	
307.46	4035.2	
307.67	4628.4	
307.88	5901.6	
308.09	3631.7	
308.29	3775.1	
308.5	5491.3	
308.71	6065.4	
308.92	3900	
309.13	3540.9	
309.34	5425.1	
309.55	5339.1	
309.75	4586.1	
309.96	4217.5	
310.17	5925.5	
310.38	5141.8	
310.59	4405.2	
310.8	3442.6	
311.01	5252.4	
311.21	5276.3	
311.42	3465.2	
311.63	3604.4	
311.84	5202.5	
312.05	5582.1	
312.26	4123.9	
312.46	4470	
312.67	5252.4	
312.88	5001.1	
313.09	3528.7	
313.3	3446.7	
313.51	6228.6	
313.71	6642.2	
313.92	3516.4	
314.13	3757.3	
314.34	5630.5	
314.55	5320.6	
314.76	4573.1	
314.96	3929.4	
315.17	5545.9	
315.38	5954.1	
315.59	3567.6	
315.8	3373.7	
316.01	6358.3	
316.21	6368.5	
316.42	3351.8	
316.63	3904.8	
316.84	5248.9	
317.05	6158.9	
317.26	4207.9	
317.46	3777.8	
317.67	5334.3	
317.88	5838.8	
318.09	4549.2	
318.3	3323.2	
318.5	5138.4	
318.71	5792.3	
318.92	5815.5	
319.13	4139.6	
319.34	5993.7	
319.54	6143.2	
319.75	3293.8	
319.96	3159.3	
320.17	5822.4	
320.38	6077	
320.58	3221.5	
320.79	3907.5	
321	5999.9	
321.21	6166.4	
321.42	3968.3	
321.62	3259.7	
321.83	5027.8	
322.04	5442.1	
322.25	3781.9	
322.46	3568.2	
322.66	5547.9	
322.87	5765.7	
323.08	4468	
323.29	3479.5	
323.5	6546.7	
323.7	5007.3	
323.91	4879.6	
324.12	4332.1	
324.33	5488.6	
324.53	5776	
324.74	4177.2	
324.95	4376.5	
325.16	4827.1	
325.37	5258.5	
325.57	3526.6	
325.78	3614.7	
325.99	5470.8	
326.2	4943.1	
326.4	5231.2	
326.61	3229	
326.82	5392.3	
327.03	5571.2	
327.24	5041.4	
327.44	4855.1	
327.65	5668.8	
327.86	4608.6	
328.07	4255.7	
328.27	3385.3	
328.48	6191.7	
328.69	5000.5	
328.9	5152.7	
329.1	3790.1	
329.31	5356.1	
329.52	6289.3	
329.73	3530	
329.93	4042.7	
330.14	5421	
330.35	5711.8	
330.56	5898.8	
330.76	4411.3	
330.97	5253	
331.18	5672.2	
331.39	3977.8	
331.59	3240.6	
331.8	6010.1	
332.01	6209.4	
332.22	3614	
332.42	4185.4	
332.63	5485.8	
332.84	5158.8	
333.05	4042.7	
333.25	3623.5	
333.46	5203.2	
333.67	5418.2	
333.88	3701.4	
334.08	4117.1	
334.29	7318.1	
334.5	6178	
334.7	3460.4	
334.91	5095.3	
335.12	4964.3	
335.33	5853.8	
335.53	3973.1	
335.74	5892	
335.95	5230.5	
336.16	5076.2	
336.36	3930.7	
336.57	4544.4	
336.78	4934.9	
336.98	6023.1	
337.19	4921.3	
337.4	3884.3	
337.61	6556.9	
337.81	4999.8	
338.02	3630.4	
338.23	4683.7	
338.43	6272.9	
338.64	5074.9	
338.85	3562.8	
339.05	4781.3	
339.26	6295.5	
339.47	4872.1	
339.68	3521.8	
339.88	5335	
340.09	5658.5	
340.3	5962.3	
340.5	4145.8	
340.71	3186.6	
340.92	4886.5	
341.13	6244.9	
341.33	3470.6	
341.54	4175.1	
341.75	5681.7	
341.95	5347.2	
342.16	3989.4	
342.37	4350.6	
342.57	5001.1	
342.78	5375.2	
342.99	4427	
343.19	3166.2	
343.4	5892	
343.61	5668.8	
343.81	3756	
344.02	3497.9	
344.23	5874.3	
344.43	6238.1	
344.64	4438.6	
344.85	4285	
345.06	5715.2	
345.26	6096.8	
345.47	4158.1	
345.68	4838	
345.88	4763.6	
346.09	5939.8	
346.3	4181.3	
346.5	3127.2	
346.71	5474.9	
346.92	5184.8	
347.12	3263.8	
347.33	4149.2	
347.54	5945.9	
347.74	6399.2	
347.95	4106.9	
348.16	3036.5	
348.36	5184.8	
348.57	4981.3	
348.78	4012.7	
348.98	4347.2	
349.19	5421.7	
349.39	4940.4	
349.6	3233.1	
349.81	3642.7	
350.01	5694.7	
350.22	5137.7	
350.43	3900.7	
350.63	4773.1	
350.84	5520	
351.05	5279.7	
351.25	3611.9	
351.46	3235.1	
351.67	6100.2	
351.87	5130.2	
352.08	3812.6	
352.29	4306.2	
352.49	5902.2	
352.7	6010.8	
352.9	3451.5	
353.11	4328	
353.32	6583.5	
353.52	5214.8	
353.73	3393.5	
353.94	4360.8	
354.14	5720	
354.35	5520	
354.55	3534.1	
354.76	3941	
354.97	5748	
355.17	5421.7	
355.38	3286.3	
355.59	4635.9	
355.79	5141.8	
356	5547.9	
356.2	3857	
356.41	3353.2	
356.62	4788.2	
356.82	5313.1	
357.03	4154.6	
357.24	3721.8	
357.44	5126.7	
357.65	5208.7	
357.85	5026.4	
358.06	3900.7	
358.27	4831.2	
358.47	5094.7	
358.68	3220.1	
358.88	4162.8	
359.09	5622.4	
359.3	6051.7	
359.5	4829.1	
359.71	4251.6	
359.91	6488.6	
360.12	5870.8	
360.33	4137.6	
360.53	4560.1	
360.74	5067.4	
360.94	5152	
361.15	4251.6	
361.36	3508.9	
361.56	5866.7	
361.77	5281	
361.97	4835.3	
362.18	3757.3	
362.38	5801.9	
362.59	4934.2	
362.8	3467.9	
363	3277.4	
363.21	4676.9	
363.41	5438	
363.62	3989.4	
363.83	5020.3	
364.03	5450.3	
364.24	6460.7	
364.44	5064.6	
364.65	5062.6	
364.85	5221.6	
365.06	5110.4	
365.27	3627	
365.47	3671.3	
365.68	6180.1	
365.88	5163.6	
366.09	4053.6	
366.29	3715.7	
366.5	5466	
366.71	5961	
366.91	5027.1	
367.12	4232.5	
367.32	6546	
367.53	5737	
367.73	4099.4	
367.94	5155.4	
368.14	5692.7	
368.35	6669.6	
368.56	4092.5	
368.76	3882.9	
368.97	5783.5	
369.17	7484	
369.38	3531.4	
369.58	3910.9	
369.79	4789.5	
369.99	6166.4	
370.2	4842.1	
370.4	3975.1	
370.61	5499.5	
370.82	6697.5	
371.02	3870.7	
371.23	3171.6	
371.43	4665.3	
371.64	6077	
371.84	3886.4	
372.05	5124.7	
372.25	7402	
372.46	5831.9	
372.66	3884.3	
372.87	3739.6	
373.07	5823.7	
373.28	7475.1	
373.48	4886.5	
373.69	4596.3	
373.9	5256.5	
374.1	5257.1	
374.31	4760.2	
374.51	4313	
374.72	6103.6	
374.92	4912.4	
375.13	4933.6	
375.33	4146.5	
375.54	5680.4	
375.74	5131.5	
375.95	4174.4	
376.15	5448.3	
376.36	5670.8	
376.56	5438.7	
376.77	4166.3	
376.97	4558.1	
377.18	6649.8	
377.38	5695.4	
377.59	4996.4	
377.79	3599.6	
378	5469.4	
378.2	5923.4	
378.41	3705.5	
378.61	3648.8	
378.82	5973.9	
379.02	4956.8	
379.23	3886.4	
379.43	5059.2	
379.64	6019	
379.84	5603.9	
380.05	3692.5	
380.25	3674.1	
380.46	5728.9	
380.66	5280.3	
380.87	5085.8	
381.07	5472.2	
381.28	6366.5	
381.48	5692	
381.69	3730.7	
381.89	3801.7	
382.1	4730.8	
382.3	5966.4	
382.51	4954	
382.71	5893.4	
382.91	5844.9	
383.12	6321.4	
383.32	4154.6	
383.53	4359.4	
383.73	5674.2	
383.94	5441.5	
384.14	4320.5	
384.35	3409.9	
384.55	5361.6	
384.76	5827.8	
384.96	4144.4	
385.17	4499.4	
385.37	5756.2	
385.58	5068.7	
385.78	4474.8	
385.98	3300	
386.19	5268.1	
386.39	5629.2	
386.6	3872	
386.8	4143.7	
387.01	5745.2	
387.21	5821.7	
387.42	4590.2	
387.62	5115.1	
387.83	5043.5	
388.03	5733.6	
388.23	4207.9	
388.44	4942.4	
388.64	4747.9	
388.85	4854.4	
389.05	4497.3	
389.26	5089.9	
389.46	6731	
389.67	6104.3	
389.87	4459.1	
390.07	4579.3	
390.28	5311.1	
390.48	4952.7	
390.69	3652.2	
390.89	4013.3	
391.1	5117.9	
391.3	6052.4	
391.5	5214.8	
391.71	5900.2	
391.91	5773.2	
392.12	6789.7	
392.32	5268.7	
392.53	4541.7	
392.73	5192.3	
392.93	5371.1	
393.14	4149.2	
393.34	4957.4	
393.55	5810.8	
393.75	5365	
393.95	4166.9	
394.16	4070.7	
394.36	5042.8	
394.57	5834	
394.77	3562.1	
394.98	4046.1	
395.18	4992.3	
395.38	5184.8	
395.59	4916.5	
395.79	3800.3	
396	5147.9	
396.2	5675.6	
396.4	4639.3	
396.61	4618.9	
396.81	5885.2	
397.02	5074.9	
397.22	4837.3	
397.42	4901.5	
397.63	5815.5	
397.83	4938.3	
398.04	3754.6	
398.24	4278.9	
398.44	5586.2	
398.65	4606.6	
398.85	3484.3	
399.05	3695.9	
399.26	4871.4	
399.46	6648.4	
399.67	4042.7	
399.87	3714.3	
400.07	5271.5	
400.28	5634.6	
400.48	3852.2	
400.69	4958.1	
400.89	5833.3	
401.09	6343.9	
401.3	3704.8	
401.5	4911	
401.7	6606.7	
401.91	6799.9	
402.11	4042.7	
402.32	4393.6	
402.52	5892.7	
402.72	5847.6	
402.93	4571.7	
403.13	3381.9	
403.33	6786.3	
403.54	5441.5	
403.74	4242.7	
403.94	5162.9	
404.15	5463.3	
404.35	6599.2	
404.56	4042	
404.76	5905.7	
404.96	5851.7	
405.17	5627.8	
405.37	5256.5	
405.57	4461.2	
405.78	5856.5	
405.98	5322	
406.18	3986	
406.39	4953.4	
406.59	5926.8	
406.79	5523.4	
407	3756.7	
407.2	3921.9	
407.4	5879.7	
407.61	6039.5	
407.81	3830.4	
408.01	6114.6	
408.22	4728.8	
408.42	6911.9	
408.62	4859.8	
408.83	4326	
409.03	5226.4	
409.23	5063.3	
409.44	4398.4	
409.64	4644.1	
409.84	6207.4	
410.05	6138.4	
410.25	4440	
410.45	4199	
410.66	5446.2	
410.86	8072.4	
411.06	4526.7	
411.27	4372.4	
411.47	7679.2	
411.67	5655.1	
411.88	4709.6	
412.08	4894.6	
412.28	6246.3	
412.49	6862.7	
412.69	4330.1	
412.89	4371.7	
413.09	6594.5	
413.3	6421.1	
413.5	4442.7	
413.7	3990.1	
413.91	5649	
414.11	6594.5	
414.31	4306.2	
414.52	4689.2	
414.72	6157.6	
414.92	6065.4	
415.12	4244.1	
415.33	4818.9	
415.53	6413.6	
415.73	6647	
415.94	5164.3	
416.14	4587.4	
416.34	5356.1	
416.55	5122	
416.75	5765	
416.95	5137.7	
417.15	6348.7	
417.36	7215	
417.56	5857.2	
417.76	5009.3	
417.97	6788.3	
418.17	6367.1	
418.37	4459.8	
418.57	4589.5	
418.78	6227.9	
418.98	5813.5	
419.18	5481.7	
419.38	5400.5	
419.59	5881.1	
419.79	5559.6	
419.99	4459.1	
420.2	4881.7	
420.4	6441.5	
420.6	6635.4	
420.8	4370.4	
421.01	4160.8	
421.21	6142.5	
421.41	6473.6	
421.61	4715.1	
421.82	4446.1	
422.02	5705.6	
422.22	6718.7	
422.42	5281	
422.63	4955.4	
422.83	5868.1	
423.03	7099.6	
423.23	4932.9	
423.44	3904.8	
423.64	5957.5	
423.84	5692	
424.04	4378.6	
424.25	4059.8	
424.45	6925.5	
424.65	6907.1	
424.85	3846.8	
425.06	4487.1	
425.26	6821.1	
425.46	5806.7	
425.66	4983.4	
425.87	4619.5	
426.07	6652.5	
426.27	6512.5	
426.47	4791.6	
426.67	4052.9	
426.88	6969.2	
427.08	6391.7	
427.28	5046.2	
427.48	4068.6	
427.69	5218.9	
427.89	6024.4	
428.09	4945.8	
428.29	4123.2	
428.5	6724.8	
428.7	6222.4	
428.9	3939.6	
429.1	4502.8	
429.3	6066.8	
429.51	6452.5	
429.71	4280.3	
429.91	5150.6	
430.11	6267.5	
430.31	6574	
430.52	4648.2	
430.72	4955.4	
430.92	6935.8	
431.12	6361.7	
431.32	4181.3	
431.53	4610	
431.73	5214.8	
431.93	7060.7	
432.13	4102.1	
432.33	3937.6	
432.54	5703.6	
432.74	6080.4	
432.94	3904.1	
433.14	4967.7	
433.34	6253.8	
433.55	5694	
433.75	4956.1	
433.95	6694.8	
434.15	5952.8	
434.35	5694.7	
434.56	4069.3	
434.76	3563.5	
434.96	5945.3	
435.16	6161.7	
435.36	3908.9	
435.56	5061.2	
435.77	5528.2	
435.97	5687.2	
436.17	5793	
436.37	4997.7	
436.57	5576.6	
436.78	5357.5	
436.98	4965	
437.18	5626.5	
437.38	6141.2	
437.58	5750	
437.78	5808	
437.99	4406.5	
438.19	6380.8	
438.39	7137.2	
438.59	4317.1	
438.79	3755.3	
438.99	6975.4	
439.2	5685.8	
439.4	3953.3	
439.6	3848.8	
439.8	6019	
440	7093.5	
440.2	4859.1	
440.4	4976.6	
440.61	6336.4	
440.81	6949.4	
441.01	3911.6	
441.21	4927.4	
441.41	6663.4	
441.61	6337.1	
441.81	5199.1	
442.02	6240.8	
442.22	7226.6	
442.42	6468.2	
442.62	4000.4	
442.82	4104.1	
443.02	6746	
443.22	5740.5	
443.43	4450.9	
443.63	3946.4	
443.83	5552	
444.03	5593	
444.23	5184.1	
444.43	4833.2	
444.63	5896.1	
444.83	7176.8	
445.04	4057	
445.24	5369.1	
445.44	6297.5	
445.64	6475.7	
445.84	5014.8	
446.04	4938.3	
446.24	5703.6	
446.44	6740.5	
446.65	4151.9	
446.85	4503.5	
447.05	6143.2	
447.25	6673.6	
447.45	4635.2	
447.65	3936.2	
447.85	6067.4	
448.05	5646.2	
448.25	5033.9	
448.46	4824.3	
448.66	5971.9	
448.86	5728.2	
449.06	3734.1	
449.26	5044.8	
449.46	6395.1	
449.66	5315.8	
449.86	4459.8	
450.06	4474.1	
450.26	5513.1	
450.47	6169.8	
450.67	4780	
450.87	5146.5	
451.07	6260	
451.27	6001.9	
451.47	4023.6	
451.67	4540.3	
451.87	5564.3	
452.07	6946	
452.27	4192.9	
452.47	4207.9	
452.67	5951.4	
452.88	6571.2	
453.08	3652.9	
453.28	5651	
453.48	7133.8	
453.68	5914.5	
453.88	4093.9	
454.08	4341	
454.28	6180.8	
454.48	5909.1	
454.68	4863.9	
454.88	5391.6	
455.08	6374	
455.28	5938.4	
455.48	3932.8	
455.68	4457.1	
455.89	6710.5	
456.09	6421.1	
456.29	4279.6	
456.49	4209.3	
456.69	6612.9	
456.89	5922	
457.09	4805.2	
457.29	5072.8	
457.49	6100.2	
457.69	6226.5	
457.89	4452.3	
458.09	3889.1	
458.29	5849.7	
458.49	6610.2	
458.69	4964.3	
458.89	4265.9	
459.09	6700.3	
459.29	6911.2	
459.49	4413.4	
459.69	5236	
459.9	6319.3	
460.1	5752.7	
460.3	4336.9	
460.5	4103.4	
460.7	6283.2	
460.9	6021	
461.1	3661.1	
461.3	4921.3	
461.5	6806.1	
461.7	6431.3	
461.9	4040	
462.1	4545.8	
462.3	5849.7	
462.5	6470.2	
462.7	4077.5	
462.9	4126.7	
463.1	7557.7	
463.3	6997.9	
463.5	4359.4	
463.7	5185.5	
463.9	5946.6	
464.1	6395.8	
464.3	4253.6	
464.5	4659.8	
464.7	6604.7	
464.9	6199.2	
465.1	5960.3	
465.3	4932.2	
465.5	6933.7	
465.7	6829.3	
465.9	5165	
466.1	5119.2	
466.3	6564.4	
466.5	6498.9	
466.7	5860.6	
466.9	4642.7	
467.1	6384.9	
467.3	7299.6	
467.5	5680.4	
467.7	4554.7	
467.9	7557	
468.1	8353.7	
468.3	5429.8	
468.5	5754.8	
468.7	6268.1	
468.9	6326.9	
469.1	4805.9	
469.3	5514.5	
469.5	8266.3	
469.7	5756.8	
469.9	5362.3	
470.1	4524.6	
470.3	6208.1	
470.5	6250.4	
470.7	5827.2	
470.9	4586.1	
471.1	5992.4	
471.3	6571.9	
471.5	4498	
471.69	6417	
471.89	5907	
472.09	5472.9	
472.29	5308.3	
472.49	5750	
472.69	5664.7	
472.89	6584.2	
473.09	4399	
473.29	4690.5	
473.49	5860.6	
473.69	6105	
473.89	5607.3	
474.09	4742.4	
474.29	7341.3	
474.49	7025.9	
474.69	5496.1	
474.89	4972.5	
475.09	6109.8	
475.29	6080.4	
475.49	4304.1	
475.69	4514.4	
475.88	7820.5	
476.08	6369.2	
476.28	4203.1	
476.48	4812	
476.68	6901	
476.88	6734.4	
477.08	4555.4	
477.28	4966.3	
477.48	6250.4	
477.68	6913.9	
477.88	4378.6	
478.08	4721.3	
478.28	7197.9	
478.48	6365.1	
478.67	4766.3	
478.87	4242.7	
479.07	6961.7	
479.27	6442.9	
479.47	5031.9	
479.67	4967.7	
479.87	6766.5	
480.07	7334.5	
480.27	4186	
480.47	5875.6	
480.67	6494.8	
480.87	7051.8	
481.06	4448.2	
481.26	5321.3	
481.46	6353.5	
481.66	6289.3	
481.86	4881	
482.06	6116.6	
482.26	6080.4	
482.46	6997.2	
482.66	4876.9	
482.86	4473.4	
483.05	6345.3	
483.25	5834	
483.45	7400	
483.65	4807.3	
483.85	5969.8	
484.05	6272.2	
484.25	5310.4	
484.45	5697.4	
484.65	7198.6	
484.84	7096.2	
485.04	4754.7	
485.24	4793.6	
485.44	7357.7	
485.64	5688.6	
485.84	3904.1	
486.04	5344.5	
486.24	5958.9	
486.44	6468.2	
486.63	3844	
486.83	4618.2	
487.03	5828.5	
487.23	6054.5	
487.43	3999	
487.63	6443.6	
487.83	6107	
488.02	7155.6	
488.22	4908.3	
488.42	5555.5	
488.62	7050.5	
488.82	5857.2	
489.02	4618.2	
489.22	4576.5	
489.41	6861.4	
489.61	6355.5	
489.81	4313	
490.01	4312.3	
490.21	6713.9	
490.41	7406.1	
490.61	4270.7	
490.8	4419.5	
491	6193.7	
491.2	5571.2	
491.4	5076.9	
491.6	4174.4	
491.8	6271.6	
491.99	6448.4	
492.19	4003.1	
492.39	4335.5	
492.59	6699.6	
492.79	6795.2	
492.99	5158.2	
493.18	4192.9	
493.38	6747.4	
493.58	7491.5	
493.78	4940.4	
493.98	4469.4	
494.18	6410.1	
494.37	5740.5	
494.57	5012.1	
494.77	4829.8	
494.97	6492.1	
495.17	6714.6	
495.37	4375.8	
495.56	4713.1	
495.76	6896.2	
495.96	6485.9	
496.16	5625.8	
496.36	4504.8	
496.55	6627.9	
496.75	6220.4	
496.95	4951.3	
497.15	4767.7	
497.35	6692.1	
497.54	6570.6	
497.74	4551.3	
497.94	6322.1	
498.14	7378.8	
498.34	7017.7	
498.53	4176.5	
498.73	4960.9	
498.93	5872.9	
499.13	6485.2	
499.33	4766.3	
499.52	5253.7	
499.72	6358.3	
499.92	6853.2	
500.12	4338.3	
500.32	4696	
500.51	6703	
500.71	6503	
500.91	5444.2	
501.11	5101.5	
501.31	6595.8	
501.5	7101.7	
501.7	5730.9	
501.9	4594.3	
502.1	6544.6	
502.29	6791.1	
502.49	5066	
502.69	5762.3	
502.89	6730.3	
503.09	6690.7	
503.28	4240	
503.48	4440.7	
503.68	5885.2	
503.88	5898.8	
504.07	5382.7	
504.27	4896.7	
504.47	6274.3	
504.67	6545.3	
504.86	5281	
505.06	5059.2	
505.26	6111.1	
505.46	7970	
505.65	4949.9	
505.85	5201.8	
506.05	6058.6	
506.25	6621.8	
506.44	4308.2	
506.64	5268.7	
506.84	6006	
507.04	7043	
507.23	4571.1	
507.43	5138.4	
507.63	7974.1	
507.83	6272.2	
508.02	5157.5	
508.22	4805.9	
508.42	8310.7	
508.62	6004.6	
508.81	5103.5	
509.01	5532.2	
509.21	5923.4	
509.4	6179.4	
509.6	5185.5	
509.8	4564.2	
510	6135.7	
510.19	7600.7	
510.39	4585.4	
510.59	4618.2	
510.79	5911.8	
510.98	7329	
511.18	4592.9	
511.38	4712.4	
511.57	6777.4	
511.77	6703	
511.97	5467.4	
512.17	4384.7	
512.36	6693.4	
512.56	6748.7	
512.76	4424.3	
512.95	4257.7	
513.15	6963.8	
513.35	5448.3	
513.55	5364.3	
513.74	4523.3	
513.94	6800.6	
514.14	6130.3	
514.33	5484.5	
514.53	5171.8	
514.73	6126.8	
514.92	6341.2	
515.12	4640.7	
515.32	4431.8	
515.51	6437.4	
515.71	7006.1	
515.91	6240.2	
516.11	4525.3	
516.3	8112	
516.5	5976.7	
516.7	5121.3	
516.89	5671.5	
517.09	6182.1	
517.29	5960.3	
517.48	5403.2	
517.68	4726.7	
517.88	5814.9	
518.07	6447.7	
518.27	5322.7	
518.47	4292.5	
518.66	7051.2	
518.86	5668.1	
519.06	4154.6	
519.25	4577.2	
519.45	6033.3	
519.65	7443	
519.84	5227.8	
520.04	5947.3	
520.24	7914	
520.43	6706.4	
520.63	4986.1	
520.83	4739.7	
521.02	5857.9	
521.22	6556.9	
521.42	5347.9	
521.61	5800.5	
521.81	6116.6	
522.01	6314.6	
522.2	5087.8	
522.4	4873.5	
522.6	6736.5	
522.79	5502.2	
522.99	4926.7	
523.18	4158.7	
523.38	6402	
523.58	6439.5	
523.77	6098.2	
523.97	4015.4	
524.17	8207.6	
524.36	7327.6	
524.56	5381.4	
524.76	5032.5	
524.95	6281.1	
525.15	5879	
525.34	4741	
525.54	4640	
525.74	6460.7	
525.93	5544.5	
526.13	5864.7	
526.33	4573.8	
526.52	6810.9	
526.72	6223.8	
526.91	5877.7	
527.11	5076.9	
527.31	6913.3	
527.5	7186.3	
527.7	4926	
527.89	3952.6	
528.09	5659.9	
528.29	6216.3	
528.48	5319.3	
528.68	4990.9	
528.87	6552.8	
529.07	6694.8	
529.27	4937.7	
529.46	4381.3	
529.66	6269.5	
529.85	6723.5	
530.05	4201.7	
530.25	5099.4	
530.44	7746.1	
530.64	6214.2	
530.83	4670.1	
531.03	4856.4	
531.23	6545.3	
531.42	6520.7	
531.62	5655.1	
531.81	4758.8	
532.01	6639.5	
532.21	7105.8	
532.4	4409.3	
532.6	4663.9	
532.79	7632.8	
532.99	6661.4	
533.18	4702.8	
533.38	5769.1	
533.58	6047.7	
533.77	6793.1	
533.97	4624.3	
534.16	5580.7	
534.36	6970.6	
534.55	6025.1	
534.75	5618.9	
534.95	4758.8	
535.14	6834.8	
535.34	6081.1	
535.53	4378.6	
535.73	6354.8	
535.92	7443.7	
536.12	6296.8	
536.31	4590.2	
536.51	5783.5	
536.71	6662.7	
536.9	6170.5	
537.1	4744.5	
537.29	4738.3	
537.49	7036.8	
537.68	6047	
537.88	5231.2	
538.07	4368.3	
538.27	6212.9	
538.46	7344.7	
538.66	4207.9	
538.86	4661.2	
539.05	6310.5	
539.25	6669.6	
539.44	4902.2	
539.64	4638.6	
539.83	6238.1	
540.03	7203.4	
540.22	4530.1	
540.42	4718.5	
540.61	6541.2	
540.81	6563.7	
541	5200.5	
541.2	5781.4	
541.39	6092.7	
541.59	6453.8	
541.78	5401.2	
541.98	4624.3	
542.18	5760.3	
542.37	5678.3	
542.57	4978.6	
542.76	5468.8	
542.96	5852.4	
543.15	6560.3	
543.35	5115.8	
543.54	4388.1	
543.74	6973.3	
543.93	6404.7	
544.13	5155.4	
544.32	6204.7	
544.52	6888	
544.71	5990.3	
544.91	4156	
545.1	5524.1	
545.3	6072.9	
545.49	6744.6	
545.69	4141	
545.88	4762.2	
546.08	7693.5	
546.27	7243.7	
546.47	5360.2	
546.66	4568.3	
546.86	7046.4	
547.05	7660.1	
547.24	4812.7	
547.44	4689.8	
547.63	6012.8	
547.83	7038.2	
548.02	5072.1	
548.22	5322	
548.41	5769.1	
548.61	7145.4	
548.8	4698	
549	4633.9	
549.19	6485.2	
549.39	6736.5	
549.58	4347.2	
549.78	4987.5	
549.97	6905.8	
550.17	6357.6	
550.36	5844.2	
550.55	6879.8	
550.75	6397.2	
550.94	7347.4	
551.14	4612	
551.33	5120.6	
551.53	5689.9	
551.72	6772.6	
551.92	5076.2	
552.11	4835.9	
552.31	6823.1	
552.5	6886	
552.69	6562.4	
552.89	4493.2	
553.08	6761	
553.28	6527.6	
553.47	4812	
553.67	6087.2	
553.86	7452.6	
554.06	5717.9	
554.25	4083	
554.44	4648.2	
554.64	8264.9	
554.83	7694.2	
555.03	4610	
555.22	5089.9	
555.42	7040.2	
555.61	6720.1	
555.8	4883.7	
556	5209.3	
556.19	5844.9	
556.39	7221.1	
556.58	4926	
556.78	4877.6	
556.97	6630.6	
557.16	6290.7	
557.36	6196.5	
557.55	4520.5	
557.75	5565	
557.94	7347.4	
558.13	4672.1	
558.33	4384.7	
558.52	7146	
558.72	6024.4	
558.91	4515.8	
559.1	4784.1	
559.3	5771.2	
559.49	5489.9	
559.69	4106.9	
559.88	5186.8	
560.07	6657.9	
560.27	7026.6	
560.46	5403.9	
560.66	5510.4	
560.85	6450.4	
561.04	5692	
561.24	4571.7	
561.43	4940.4	
561.63	5873.6	
561.82	6214.2	
562.01	6015.6	
562.21	5137.7	
562.4	6698.9	
562.59	7522.9	
562.79	4926.7	
562.98	4550.6	
563.18	6544.6	
563.37	8008.9	
563.56	5427.1	
563.76	4430.4	
563.95	5992.4	
564.14	5874.3	
564.34	4867.3	
564.53	4625	
564.73	6513.2	
564.92	6824.5	
565.11	4975.9	
565.31	4325.3	
565.5	7015	
565.69	5982.8	
565.89	4631.8	
566.08	4821.6	
566.27	6937.2	
566.47	7228.6	
566.66	5414.8	
566.85	4092.5	
567.05	6465.4	
567.24	5867.4	
567.44	4489.1	
567.63	5915.9	
567.82	6737.8	
568.02	6472.9	
568.21	4468.7	
568.4	4917.2	
568.6	6255.2	
568.79	6258.6	
568.98	4289.8	
569.18	4428.4	
569.37	6227.2	
569.56	8271.7	
569.76	4819.6	
569.95	5745.2	
570.14	6657.9	
570.34	6557.6	
570.53	4330.1	
570.72	4261.1	
570.91	7081.9	
571.11	6201.9	
571.3	4827.1	
571.49	5751.4	
571.69	6176.7	
571.88	5821.7	
572.07	5265.3	
572.27	5349.3	
572.46	5850.4	
572.65	6822.5	
572.85	4485.1	
573.04	4853	
573.23	7027.3	
573.43	6301.6	
573.62	4206.5	
573.81	4887.1	
574	6247.7	
574.2	6021	
574.39	4558.8	
574.58	4707.6	
574.78	7038.9	
574.97	6261.3	
575.16	5044.1	
575.36	5244.8	
575.55	6643.6	
575.74	6862.7	
575.93	4175.1	
576.13	5177.3	
576.32	6087.2	
576.51	6605.4	
576.71	4641.4	
576.9	5959.6	
577.09	6999.3	
577.28	6474.3	
577.48	5102.9	
577.67	4062.5	
577.86	6199.2	
578.05	6413.6	
578.25	4676.2	
578.44	4778.6	
578.63	6256.5	
578.83	7397.9	
579.02	4111.6	
579.21	5679.7	
579.4	6347.3	
579.6	6083.1	
579.79	4896.7	
579.98	7133.1	
580.17	6796.5	
580.37	6833.4	
580.56	4334.9	
580.75	5089.9	
580.94	7264.1	
581.14	7141.9	
581.33	5554.8	
581.52	4518.5	
581.71	6611.5	
581.91	7256.6	
582.1	4065.2	
582.29	4735.6	
582.48	6156.9	
582.68	6072.2	
582.87	5233.2	
583.06	4833.2	
583.25	6589.7	
583.45	6418.3	
583.64	5483.1	
583.83	6259.3	
584.02	6013.5	
584.21	6433.4	
584.41	5468.1	
584.6	4693.3	
584.79	6225.1	
584.98	7064.8	
585.18	4149.9	
585.37	4190.8	
585.56	5750.7	
585.75	6526.2	
585.94	4496.7	
586.14	5179.3	
586.33	7295.5	
586.52	6256.5	
586.71	4995.7	
586.91	4782	
587.1	5741.8	
587.29	6698.9	
587.48	4739.7	
587.67	4536.9	
587.87	6683.2	
588.06	6746.7	
588.25	5946.6	
588.44	5300.8	
588.63	6303	
588.83	6922.1	
589.02	4784.7	
589.21	4707.6	
589.4	6319.3	
589.59	6008.7	
589.78	4112.3	
589.98	4333.5	
590.17	5932.3	
590.36	6455.9	
590.55	3845.4	
590.74	4807.3	
590.94	7925	
591.13	6426.5	
591.32	4499.4	
591.51	4085	
591.7	6864.8	
591.89	6344.6	
592.09	4160.8	
592.28	4612	
592.47	5634	
592.66	7520.1	
592.85	4136.2	
593.05	4339.6	
593.24	6163	
593.43	6962.4	
593.62	4345.1	
593.81	5008.6	
594	6168.5	
594.19	6404	
594.39	4358.8	
594.58	4306.9	
594.77	6565.8	
594.96	7195.2	
595.15	4211.3	
595.34	4909.7	
595.54	6599.9	
595.73	5713.8	
595.92	3722.5	
596.11	4910.3	
596.3	7116	
596.49	5780.7	
596.68	4676.2	
596.88	5095.3	
597.07	6883.2	
597.26	5642.8	
597.45	4109.6	
597.64	5407.3	
597.83	5890.6	
598.02	6500.3	
598.22	4290.5	
598.41	4977.2	
598.6	6279.8	
598.79	5762.3	
598.98	4305.5	
599.17	5274.2	
599.36	6322.8	
599.55	7554.3	
599.74	6356.2	
599.94	6150.7	
600.13	6907.8	
600.32	5686.5	
600.51	3986.7	
600.7	4175.8	
600.89	7536.5	
601.08	7598.6	
601.27	3990.8	
601.47	4994.3	
601.66	6870.3	
601.85	7546.8	
602.04	4625.7	
602.23	4801.8	
602.42	5861.3	
602.61	6543.9	
602.8	4642.7	
602.99	4465.3	
603.18	6187.6	
603.37	6497.5	
603.57	5076.9	
603.76	5608.7	
603.95	7294.2	
604.14	6791.7	
604.33	4398.4	
604.52	4747.2	
604.71	6408.1	
604.9	6094.1	
605.09	5406.6	
605.28	5168.4	
605.47	7024.5	
605.66	6669.6	
605.86	5024.3	
606.05	4444.8	
606.24	7047.1	
606.43	5593.7	
606.62	4788.8	
606.81	5594.4	
607	6901	
607.19	6205.3	
607.38	4291.9	
607.57	4514.4	
607.76	5957.5	
607.95	5443.5	
608.14	4907.6	
608.33	5507.7	
608.52	6021	
608.72	6933.7	
608.91	4183.3	
609.1	4035.2	
609.29	6184.9	
609.48	5662	
609.67	5097.4	
609.86	4189.5	
610.05	5705.6	
610.24	6135.7	
610.43	4048.2	
610.62	3673.4	
610.81	7238.2	
611	7041.6	
611.19	4205.8	
611.38	4953.4	
611.57	6402.6	
611.76	7787.1	
611.95	3975.1	
612.14	3902.7	
612.33	6238.8	
612.52	5726.1	
612.71	4520.5	
612.9	3741	
613.09	5340.4	
613.28	7663.5	
613.47	4286.4	
613.66	5324	
613.85	6356.2	
614.04	5939.8	
614.24	4335.5	
614.43	3579.8	
614.62	6431.3	
614.81	6372.6	
615	4950.6	
615.19	4938.3	
615.38	5705.6	
615.57	6042.9	
615.76	4777.2	
615.95	5798.5	
616.14	6509.1	
616.33	6139.8	
616.52	5087.2	
616.71	5335	
616.9	6427.9	
617.09	6247	
617.28	4419.5	
617.47	5687.2	
617.66	5509	
617.85	5507.7	
618.04	5352.7	
618.22	4839.4	
618.41	5816.2	
618.6	6709.8	
618.79	4589.5	
618.98	4255	
619.17	6924.9	
619.36	5285.8	
619.55	4429.8	
619.74	4482.3	
619.93	6280.4	
620.12	5626.5	
620.31	4973.8	
620.5	5165.7	
620.69	6832	
620.88	7135.1	
621.07	5847	
621.26	4944.5	
621.45	6404.7	
621.64	6395.1	
621.83	4890.5	
622.02	4139.6	
622.21	6399.9	
622.4	6165.8	
622.59	5477	
622.78	5218.2	
622.97	5720.7	
623.16	6755.6	
623.35	4819.6	
623.54	4036.5	
623.72	5942.5	
623.91	6110.5	
624.1	5150	
624.29	3749.8	
624.48	7200	
624.67	6425.2	
624.86	4979.3	
625.05	3981.3	
625.24	7346.7	
625.43	5654.4	
625.62	6704.4	
625.81	4229.7	
626	6737.1	
626.19	5896.1	
626.38	5089.9	
626.56	4400.4	
626.75	5733.6	
626.94	6521.4	
627.13	5051	
627.32	3788.7	
627.51	6454.5	
627.7	7866.9	
627.89	3951.9	
628.08	5083.1	
628.27	5671.5	
628.46	5917.9	
628.65	4223.6	
628.83	3859.1	
629.02	6502.3	
629.21	5714.5	
629.4	4721.9	
629.59	4894.6	
629.78	5646.9	
629.97	6671.6	
630.16	4883.7	
630.35	4328.7	
630.54	7058	
630.72	6789.7	
630.91	4338.3	
631.1	4965	
631.29	6249.7	
631.48	6423.1	
631.67	4999.1	
631.86	4446.8	
632.05	5815.5	
632.24	5883.8	
632.42	4174.4	
632.61	4799.8	
632.8	5960.3	
632.99	5623	
633.18	4711	
633.37	5164.3	
633.56	6265.4	
633.75	6135	
633.93	4733.5	
634.12	4427	
634.31	7065.5	
634.5	6687.3	
634.69	4430.4	
634.88	5031.2	
635.07	6016.9	
635.25	6688.7	
635.44	5459.9	
635.63	5629.9	
635.82	5855.8	
636.01	5345.9	
636.2	5350.7	
636.39	4837.3	
636.57	7034.1	
636.76	6761	
636.95	4268.6	
637.14	5752.1	
637.33	6303	
637.52	7270.3	
637.7	4187.4	
637.89	5091.9	
638.08	5896.8	
638.27	7372.7	
638.46	5147.2	
638.65	5603.2	
638.83	7514.7	
639.02	5822.4	
639.21	5091.9	
639.4	5621	
639.59	6299.6	
639.78	5957.5	
639.96	4423.6	
640.15	4380.6	
640.34	6233.3	
640.53	6356.2	
640.72	4201.7	
640.91	4521.2	
641.09	5621	
641.28	7125.6	
641.47	4449.6	
641.66	5401.2	
641.85	6311.2	
642.03	6731	
642.22	5107.6	
642.41	4558.1	
642.6	5737.7	
642.79	5221.6	
642.97	4410.6	
643.16	5172.5	
643.35	5750.7	
643.54	5686.5	
643.73	4308.9	
643.91	5168.4	
644.1	5517.2	
644.29	6106.4	
644.48	4480.3	
644.67	4594.3	
644.85	5788.9	
645.04	6087.2	
645.23	4107.5	
645.42	4402.5	
645.6	5662	
645.79	6876.4	
645.98	4508.3	
646.17	3538.2	
646.36	5447.6	
646.54	6167.8	
646.73	5408	
646.92	4155.3	
647.11	5829.2	
647.29	6914.6	
647.48	4252.9	
647.67	4017.4	
647.86	7195.9	
648.05	7173.4	
648.23	4644.8	
648.42	5963.7	
648.61	6532.3	
648.8	6235.4	
648.98	4276.2	
649.17	4535.6	
649.36	5784.8	
649.55	5199.8	
649.73	4298	
649.92	5037.3	
650.11	5737	
650.3	6030.6	
650.48	4471.4	
650.67	4209.9	
650.86	6359.6	
651.05	5226.4	
651.23	4385.4	
651.42	4392.2	
651.61	5784.8	
651.79	6010.8	
651.98	4595.6	
652.17	4242.7	
652.36	6286.6	
652.54	5391.6	
652.73	4301.4	
652.92	4176.5	
653.11	6380.1	
653.29	6417.7	
653.48	3606.5	
653.67	4676.9	
653.85	6107	
654.04	7195.2	
654.23	4958.1	
654.42	4426.3	
654.6	5722.7	
654.79	6444.3	
654.98	3966.2	
655.16	4569	
655.35	5417.6	
655.54	5342.5	
655.73	4114.4	
655.91	3971	
656.1	6465.4	
656.29	5298.8	
656.47	3545.7	
656.66	5352	
656.85	5492.7	
657.03	5544.5	
657.22	4049.5	
657.41	4138.3	
657.59	5626.5	
657.78	5411.4	
657.97	3731.4	
658.16	4506.9	
658.34	6324.8	
658.53	6662.7	
658.72	5377.3	
658.9	5943.2	
659.09	5612.8	
659.28	5841.5	
659.46	4212	
659.65	4120.5	
659.84	5455.8	
660.02	6027.2	
660.21	4113	
660.4	4014	
660.58	6483.9	
660.77	5804.6	
660.96	4654.4	
661.14	3667.2	
661.33	6984.9	
661.52	6909.8	
661.7	3612.6	
661.89	7429.3	
662.08	5426.4	
662.26	5061.9	
662.45	3921.2	
662.64	4087.7	
662.82	6180.8	
663.01	5352.7	
663.2	4080.9	
663.38	4887.8	
663.57	6087.9	
663.75	5961	
663.94	4392.2	
664.13	5817.6	
664.31	5438.7	
664.5	6228.6	
664.69	4653.7	
664.87	5251	
665.06	5240.8	
665.25	5938.4	
665.43	5487.2	
665.62	5608	
665.8	6328.9	
665.99	5627.1	
666.18	4429.1	
666.36	4567	
666.55	6260.6	
666.74	6216.3	
666.92	4142.4	
667.11	5797.1	
667.29	5591.6	
667.48	6311.2	
667.67	5356.8	
667.85	4443.4	
668.04	5749.3	
668.22	5685.8	
668.41	4533.5	
668.6	4700.1	
668.78	5394.3	
668.97	5709.1	
669.15	4887.8	
669.34	3817.4	
669.53	5519.3	
669.71	5867.4	
669.9	4095.3	
670.08	4749.2	
670.27	5466.7	
670.46	6061.3	
670.64	4939	
670.83	5236.7	
671.01	5378	
671.2	6025.8	
671.38	4121.9	
671.57	3981.9	
671.76	6687.3	
671.94	7299.6	
672.13	3972.4	
672.31	5056.4	
672.5	6199.2	
672.69	5489.9	
672.87	4130.1	
673.06	4406.5	
673.24	5993.7	
673.43	5455.8	
673.61	4923.3	
673.8	4382	
673.98	6228.6	
674.17	6400.6	
674.36	5024.3	
674.54	4947.2	
674.73	5986.2	
674.91	6163	
675.1	4527.4	
675.28	4212	
675.47	5699.5	
675.65	6269.5	
675.84	4410.6	
676.03	4806.6	
676.21	5498.8	
676.4	5022.3	
676.58	5294.7	
676.77	4975.9	
676.95	7043.6	
677.14	5424.4	
677.32	4108.9	
677.51	3925.3	
677.69	6273.6	
677.88	5103.5	
678.06	3974.4	
678.25	4046.1	
678.44	5748	
678.62	5443.5	
678.81	3848.8	
678.99	4721.9	
679.18	6632.7	
679.36	6120.7	
679.55	4444.8	
679.73	5094	
679.92	6076.3	
680.1	5525.4	
680.29	5635.3	
680.47	4455	
680.66	5521.3	
680.84	6358.3	
681.03	3687.7	
681.21	4825.7	
681.4	5530.9	
681.58	5384.8	
681.77	4153.3	
681.95	4131.4	
682.14	6371.2	
682.32	6748.1	
682.51	5053	
682.69	3882.9	
682.88	5388.2	
683.06	6191.7	
683.25	4754	
683.43	5327.4	
683.62	5795.1	
683.8	6181.5	
683.99	5373.2	
684.17	4661.9	
684.36	7054.6	
684.54	5705.6	
684.73	3876.8	
684.91	4164.9	
685.1	6129.6	
685.28	5567.1	
685.46	4810.7	
685.65	4878.9	
685.83	6442.2	
686.02	5764.3	
686.2	4319.8	
686.39	4415.4	
686.57	5644.2	
686.76	7069.6	
686.94	4220.2	
687.13	4444.1	
687.31	6297.5	
687.5	5698.8	
687.68	3809.9	
687.86	5120.6	
688.05	7298.3	
688.23	5190.9	
688.42	5131.5	
688.6	4242.7	
688.79	5597.8	
688.97	5580	
689.16	4647.5	
689.34	3617.4	
689.52	6308.4	
689.71	6576	
689.89	4906.3	
690.08	4217.5	
690.26	5865.4	
690.45	5711.1	
690.63	5203.2	
690.81	4414.7	
691	5563.6	
691.18	5590.3	
691.37	4571.1	
691.55	6862.1	
691.74	5571.8	
691.92	7508.5	
692.1	4588.1	
692.29	4012	
692.47	5723.4	
692.66	5057.1	
692.84	4213.4	
693.02	4857.8	
693.21	5077.6	
693.39	5660.6	
693.58	4872.8	
693.76	4242	
693.94	6897.6	
694.13	6606.7	
694.31	4175.1	
694.5	5211.4	
694.68	5351.3	
694.86	5655.8	
695.05	4494.6	
695.23	4982	
695.42	6091.3	
695.6	8481.3	
695.78	5186.1	
695.97	4186.7	
696.15	6212.2	
696.34	5511.8	
696.52	3975.1	
696.7	4838.7	
696.89	5915.2	
697.07	5367	
697.25	4727.4	
697.44	6471.6	
697.62	5880.4	
697.81	6300.2	
697.99	4487.8	
698.17	4937	
698.36	5220.3	
698.54	5950	
698.72	4859.1	
698.91	3799.7	
699.09	5520	
699.28	5434.6	
699.46	4484.4	
699.64	4326	
699.83	5367	
700.01	6622.4	
700.19	5236	
700.38	3549.8	
700.56	6595.8	
700.74	5412.1	
700.93	3905.5	
701.11	4812.7	
701.29	5982.1	
701.48	7073.7	
701.66	4168.3	
701.84	4143.7	
702.03	5459.2	
702.21	6135	
702.39	3745.1	
702.58	4328	
702.76	5876.3	
702.94	6050.4	
703.13	3755.3	
703.31	6210.8	
703.49	5203.9	
703.68	6124.1	
703.86	3945.1	
704.04	4921.3	
704.23	5739.1	
704.41	6076.3	
704.59	4057	
704.78	5367.7	
704.96	6810.9	
705.14	6096.8	
705.33	3859.7	
705.51	4721.9	
705.69	5535	
705.87	6426.5	
706.06	5032.5	
706.24	3874.1	
706.42	5884.5	
706.61	6104.3	
706.79	5034.6	
706.97	3885	
707.16	5308.3	
707.34	5924.8	
707.52	5063.9	
707.7	4073.4	
707.89	5530.2	
708.07	5180.7	
708.25	5059.8	
708.44	5111.7	
708.62	5416.9	
708.8	6614.9	
708.98	5279	
709.17	4156.7	
709.35	5817.6	
709.53	5868.1	
709.72	3883.6	
709.9	4080.9	
710.08	6100.9	
710.26	6176.7	
710.45	5638.7	
710.63	4244.1	
710.81	5786.9	
710.99	5786.9	
711.18	4897.4	
711.36	4437.9	
711.54	5601.9	
711.72	6335.7	
711.91	4560.8	
712.09	3932.1	
712.27	5851.7	
712.45	6486.6	
712.64	4892.6	
712.82	3809.9	
713	5279.7	
713.18	5523.4	
713.37	4001	
713.55	5287.9	
713.73	6541.9	
713.91	5096.7	
714.1	4534.9	
714.28	4063.2	
714.46	6290	
714.64	5487.2	
714.83	3538.2	
715.01	4489.1	
715.19	5687.2	
715.37	5145.2	
715.55	4165.6	
715.74	4585.4	
715.92	6666.8	
716.1	4661.2	
716.28	5655.8	
716.47	4745.1	
716.65	5396.4	
716.83	5462.6	
717.01	4566.3	
717.19	4642.1	
717.38	7649.2	
717.56	5105.6	
717.74	4825	
717.92	3897.3	
718.1	6367.1	
718.29	5512.4	
718.47	3485.6	
718.65	4124.6	
718.83	6132.3	
719.01	6045.6	
719.2	3172.3	
719.38	4377.9	
719.56	5784.1	
719.74	7339.2	
719.92	3908.2	
720.11	5053.7	
720.29	5857.9	
720.47	4923.3	
720.65	3571	
720.83	4527.4	
721.02	5419.6	
721.2	5143.1	
721.38	4560.1	
721.56	3876.8	
721.74	4713.7	
721.92	4868.7	
722.11	5229.8	
722.29	4777.9	
722.47	6197.2	
722.65	5313.1	
722.83	3873.4	
723.01	4803.9	
723.2	5365	
723.38	5702.2	
723.56	3311.6	
723.74	4519.2	
723.92	4912.4	
724.1	6099.5	
724.29	3812	
724.47	5070.8	
724.65	5042.1	
724.83	4874.8	
725.01	3708.2	
725.19	4692.6	
725.37	4930.8	
725.56	5100.1	
725.74	3571	
725.92	3861.8	
726.1	4891.2	
726.28	5236	
726.46	4313.7	
726.64	3986	
726.83	5163.6	
727.01	5524.7	
727.19	3513.6	
727.37	4429.1	
727.55	5319.9	
727.73	5870.8	
727.91	3530.7	
728.09	3360.7	
728.28	5882.4	
728.46	6536.4	
728.64	4573.8	
728.82	4462.5	
729	6941.2	
729.18	6206	
729.36	3583.9	
729.54	6025.1	
729.72	7208.8	
729.91	5378.6	
730.09	5612.8	
730.27	4241.3	
730.45	5307.7	
730.63	5946.6	
730.81	4891.2	
730.99	3875.4	
731.17	6473.6	
731.35	5016.8	
731.53	4385.4	
731.71	3992.2	
731.9	6165.1	
732.08	6388.3	
732.26	4349.2	
732.44	3910.9	
732.62	6457.2	
732.8	5938.4	
732.98	4768.4	
733.16	3695.2	
733.34	5930.2	
733.52	4666	
733.7	4234.5	
733.88	4632.5	
734.07	5788.9	
734.25	5498.1	
734.43	3696.6	
734.61	5345.2	
734.79	6995.9	
734.97	5315.2	
735.15	3906.8	
735.33	4250.9	
735.51	5751.4	
735.69	5397.1	
735.87	5436.7	
736.05	4536.9	
736.23	5640.8	
736.41	5392.3	
736.59	4269.3	
736.77	4355.3	
736.95	6027.2	
737.13	5470.8	
737.32	3951.2	
737.5	4192.2	
737.68	6638.1	
737.86	5329.5	
738.04	3729.4	
738.22	5749.3	
738.4	5182.7	
738.58	5535.7	
738.76	4468	
738.94	3320.4	
739.12	5323.4	
739.3	5165	
739.48	5042.1	
739.66	4764.3	
739.84	5587.5	
740.02	5563.6	
740.2	3439.2	
740.38	3859.1	
740.56	5928.2	
740.74	4832.5	
740.92	4499.4	
741.1	4465.3	
741.28	5365	
741.46	5294	
741.64	4055	
741.82	4630.5	
742	5516.5	
742.18	5459.9	
742.36	4281.6	
742.54	3859.7	
742.72	6075.6	
742.9	4758.1	
743.08	4743.1	
743.26	3463.1	
743.44	6277	
743.62	6166.4	
743.8	4906.3	
743.98	3950.5	
744.16	5874.3	
744.34	5510.4	
744.52	4786.1	
744.7	4784.1	
744.88	5995.1	
745.06	5557.5	
745.24	4829.8	
745.42	4936.3	
745.6	6064	
745.78	5853.1	
745.96	3683.6	
746.14	4039.3	
746.32	6909.8	
746.5	6168.5	
746.68	4630.5	
746.86	4126	
747.03	6632	
747.21	4854.4	
747.39	4726.7	
747.57	4118.5	
747.75	5760.3	
747.93	6178.7	
748.11	4108.2	
748.29	4011.3	
748.47	7363.1	
748.65	5517.9	
748.83	4833.2	
749.01	4552	
749.19	5953.4	
749.37	5120.6	
749.55	4422.9	
749.73	4545.8	
749.91	5646.2	
750.09	5324.7	
750.26	4544.4	
750.44	3962.1	
750.62	5722.7	
750.8	5645.6	
750.98	3791.5	
751.16	4136.2	
751.34	5748	
751.52	5057.1	
751.7	4941.7	
751.88	3793.5	
752.06	6309.8	
752.24	6122.7	
752.42	3697.9	
752.59	4136.9	
752.77	5632.6	
752.95	7041.6	
753.13	4825.7	
753.31	4264.6	
753.49	5352.7	
753.67	5830.6	
753.85	4596.3	
754.03	4182.6	
754.21	6090	
754.38	6480.5	
754.56	4384	
754.74	3398.9	
754.92	5423.7	
755.1	6212.2	
755.28	3566.2	
755.46	3605.1	
755.64	7048.4	
755.82	7293.5	
755.99	4047.5	
756.17	4198.3	
756.35	4740.4	
756.53	6450.4	
756.71	3124.5	
756.89	4052.9	
757.07	5935	
757.25	5044.8	
757.42	4616.8	
757.6	5533.6	
757.78	5996.5	
757.96	4886.5	
758.14	4255	
758.32	3658.4	
758.5	4477.5	
758.67	5311.1	
758.85	4057	
759.03	4132.8	
759.21	5582.8	
759.39	4957.4	
759.57	3581.9	
759.75	4835.3	
759.92	6200.6	
760.1	5419.6	
760.28	5190.9	
760.46	5389.6	
760.64	5137	
760.82	4846.2	
760.99	4969.1	
761.17	4042.7	
761.35	5990.3	
761.53	4900.1	
761.71	4201.7	
761.89	4905.6	
762.06	5766.4	
762.24	5285.8	
762.42	4231.1	
762.6	4001.7	
762.78	5279	
762.96	5977.3	
763.13	4601.1	
763.31	4291.2	
763.49	6214.2	
763.67	5184.1	
763.85	5145.9	
764.02	5760.3	
764.2	6405.4	
764.38	5569.8	
764.56	4127.3	
764.74	5108.3	
764.91	6468.9	
765.09	5346.6	
765.27	3860.4	
765.45	3581.2	
765.63	6561.7	
765.8	6455.2	
765.98	3340.2	
766.16	3730.7	
766.34	4948.6	
766.52	4668	
766.69	4719.2	
766.87	3553.9	
767.05	5382.1	
767.23	6280.4	
767.41	3927.3	
767.58	4204.5	
767.76	5987.6	
767.94	6118.6	
768.12	3997.6	
768.29	4858.5	
768.47	5536.3	
768.65	6253.8	
768.83	3663.8	
769	4828.4	
769.18	4996.4	
769.36	5834	
769.54	4663.2	
769.72	3680.2	
769.89	6064.7	
770.07	6225.8	
770.25	4026.3	
770.43	5341.1	
770.6	6876.4	
770.78	7411.6	
770.96	4259.1	
771.14	4945.8	
771.31	5999.2	
771.49	5373.9	
771.67	3401.7	
771.85	3659.7	
772.02	4578.6	
772.2	5388.2	
772.38	4419.5	
772.55	3981.3	
772.73	5674.2	
772.91	5502.9	
773.09	4348.5	
773.26	4410	
773.44	5683.1	
773.62	5350	
773.8	3794.2	
773.97	3560.1	
774.15	5769.8	
774.33	5311.1	
774.5	3717.1	
774.68	4160.8	
774.86	5988.3	
775.04	5400.5	
775.21	3838.6	
775.39	3894.6	
775.57	5664.7	
775.74	6096.1	
775.92	3693.2	
776.1	3573	
776.27	5675.6	
776.45	6926.9	
776.63	3865.2	
776.81	3333.4	
776.98	5231.2	
777.16	6423.8	
777.34	4055.7	
777.51	3986	
777.69	5307.7	
777.87	5026.4	
778.04	4031.8	
778.22	4713.1	
778.4	5159.5	
778.57	5778.7	
778.75	3347.7	
778.93	3624.2	
779.1	4913.1	
779.28	4769	
779.46	3351.2	
779.64	3880.9	
779.81	6001.2	
779.99	6976.1	
780.17	4708.3	
780.34	4845.5	
780.52	5423.7	
780.69	5635.3	
780.87	4233.2	
781.05	3813.3	
781.22	5470.1	
781.4	5570.5	
781.58	3932.1	
781.75	3061.7	
781.93	5566.4	
782.11	4915.8	
782.28	4916.5	
782.46	3897.3	
782.64	4745.1	
782.81	5740.5	
782.99	4055	
783.17	3972.4	
783.34	5588.2	
783.52	4784.7	
783.69	4256.4	
783.87	5086.5	
784.05	4977.2	
784.22	4924	
784.4	5022.3	
784.58	4318.5	
784.75	5913.9	
784.93	5013.4	
785.1	4033.8	
785.28	4601.1	
785.46	5612.8	
785.63	4902.8	
785.81	3920.5	
785.99	3817.4	
786.16	5088.5	
786.34	5594.4	
786.51	3790.1	
786.69	4233.8	
786.87	4702.8	
787.04	5238	
787.22	3691.8	
787.39	4702.1	
787.57	4908.3	
787.75	6102.9	
787.92	4835.3	
788.1	4840.7	
788.27	5031.9	
788.45	4767	
788.63	4495.3	
788.8	3190.7	
788.98	5375.9	
789.15	4692.6	
789.33	3398.9	
789.5	4037.2	
789.68	5913.2	
789.86	6055.8	
790.03	4484.4	
790.21	3889.8	
790.38	5984.2	
790.56	5127.4	
790.73	3777.1	
790.91	3751.9	
791.09	4965	
791.26	5826.5	
791.44	4015.4	
791.61	3495.2	
791.79	4981.3	
791.96	5081	
792.14	3549.8	
792.32	3122.5	
792.49	4997.7	
792.67	5130.8	
792.84	3568.2	
793.02	3440.6	
793.19	5450.3	
793.37	6223.8	
793.54	3165.5	
793.72	3527.3	
793.89	6395.8	
794.07	5057.8	
794.25	4241.3	
794.42	3221.5	
794.6	6083.1	
794.77	5742.5	
794.95	4399.7	
795.12	3781.9	
795.3	4999.8	
795.47	5668.8	
795.65	4228.4	
795.82	4093.2	
796	4860.5	
796.17	6763.8	
796.35	3880.2	
796.52	4704.9	
796.7	5560.2	
796.87	5733.6	
797.05	4944.5	
797.22	4844.8	
797.4	5623.7	
797.57	6708.5	
797.75	4090.5	
797.92	3797.6	
798.1	5958.2	
798.27	5064.6	
798.45	3289	
798.62	3591.5	
798.8	5279	
798.97	5857.9	
799.15	4349.2	
799.32	4036.5	
799.5	4558.8	
799.67	5409.4	
799.85	4524.6	
800.02	3153.2	
800.2	4980	
800.37	5369.1	
800.55	4660.5	
800.72	3848.8	
800.9	5833.3	
801.07	6285.9	
801.25	5268.7	
801.42	4274.1	
801.6	5913.2	
801.77	5487.2	
801.95	3966.2	
802.12	3759.4	
802.29	5550.7	
802.47	5559.6	
802.64	4252.9	
802.82	3136.8	
802.99	4977.9	
803.17	6016.2	
803.34	4110.3	
803.52	3694.5	
803.69	6754.9	
803.87	4804.5	
804.04	4068.6	
804.21	4202.4	
804.39	6165.1	
804.56	5194.3	
804.74	3441.3	
804.91	4240.7	
805.09	5016.8	
805.26	5126.1	
805.44	3514.3	
805.61	3899.3	
805.78	5739.1	
805.96	5738.4	
806.13	4239.3	
806.31	4590.2	
806.48	4539.7	
806.66	5111	
806.83	4287.8	
807	4156.7	
807.18	4998.4	
807.35	5406	
807.53	4199	
807.7	3329.3	
807.87	6260.6	
808.05	5066.7	
808.22	4579.3	
808.4	3328.6	
808.57	5114.5	
808.74	4690.5	
808.92	3780.6	
809.09	4825.7	
809.27	4951.3	
809.44	5600.5	
809.61	3301.3	
809.79	3756.7	
809.96	6197.8	
810.14	5922.7	
810.31	3251.5	
810.48	3958	
810.66	5184.1	
810.83	5991	
811.01	3767.6	
811.18	4246.1	
811.35	5816.9	
811.53	4579.3	
811.7	4616.1	
811.87	4304.1	
812.05	5068.7	
812.22	4984.1	
812.39	3642	
812.57	3550.5	
812.74	5087.8	
812.92	6844.3	
813.09	3950.5	
813.26	4399.7	
813.44	6606.1	
813.61	5018.2	
813.78	3319.8	
813.96	4444.1	
814.13	5071.5	
814.3	4762.9	
814.48	4894.6	
814.65	4022.9	
814.82	6357.6	
815	4863.2	
815.17	4071.4	
815.34	5110.4	
815.52	5048.9	
815.69	5008.6	
815.87	4046.1	
816.04	3514.3	
816.21	5097.4	
816.38	4487.8	
816.56	3908.9	
816.73	3637.9	
816.9	6483.2	
817.08	5892.7	
817.25	3719.1	
817.42	4691.9	
817.6	4614.8	
817.77	5120.6	
817.94	4192.9	
818.12	3700.7	
818.29	4881	
818.46	7653.3	
818.64	3857	
818.81	3597.6	
818.98	4760.8	
819.16	6969.9	
819.33	4440	
819.5	4085	
819.67	5461.9	
819.85	6118.6	
820.02	4003.8	
820.19	4235.9	
820.37	5317.9	
820.54	4892.6	
820.71	4207.2	
820.88	5216.2	
821.06	5364.3	
821.23	4852.3	
821.4	4193.6	
821.58	4088.4	
821.75	5882.4	
821.92	5263.3	
822.09	3355.3	
822.27	3579.2	
822.44	5107	
822.61	5003.2	
822.79	3396.9	
822.96	6591.7	
823.13	5580.7	
823.3	4848.2	
823.48	3854.3	
823.65	3500.7	
823.82	5797.8	
823.99	4620.9	
824.17	4992.3	
824.34	3564.1	
824.51	6748.1	
824.68	5165	
824.86	3715	
825.03	4143	
825.2	5083.7	
825.37	6195.1	
825.55	3670	
825.72	4123.9	
825.89	6858.6	
826.06	6373.3	
826.24	3986	
826.41	4044.7	
826.58	6282.5	
826.75	5360.9	
826.92	3177.8	
827.1	3444	
827.27	8568	
827.44	6767.9	
827.61	3801	
827.79	4633.2	
827.96	4887.8	
828.13	5264	
828.3	3949.8	
828.47	3357.3	
828.65	5350	
828.82	5275.6	
828.99	5193	
829.16	4547.9	
829.34	5700.2	
829.51	5491.3	
829.68	4134.2	
829.85	4317.1	
830.02	6005.3	
830.2	5745.9	
830.37	3186.6	
830.54	5036.6	
830.71	6598.6	
830.88	5079.6	
831.05	3229	
831.23	3764.8	
831.4	6244.3	
831.57	7030	
831.74	3817.4	
831.91	3351.8	
832.09	5292.6	
832.26	5788.2	
832.43	3942.3	
832.6	4467.3	
832.77	5311.7	
832.94	6148.7	
833.12	3127.2	
833.29	3941.7	
833.46	5504.9	
833.63	7370	
833.8	4244.1	
833.97	4015.4	
834.15	5759.6	
834.32	5524.1	
834.49	4153.3	
834.66	4293.2	
834.83	5979.4	
835	4825	
835.17	3834.5	
835.35	3855.6	
835.52	5620.3	
835.69	5508.4	
835.86	4126	
836.03	3305.4	
836.2	5655.8	
836.37	5293.3	
836.55	3944.4	
836.72	3738.2	
836.89	5283.1	
837.06	5811.5	
837.23	4046.8	
837.4	4391.5	
837.57	6598.6	
837.75	7288	
837.92	3624.9	
838.09	3848.1	
838.26	5291.3	
838.43	6025.1	
838.6	4152.6	
838.77	3788.1	
838.94	6911.2	
839.11	6616.3	
839.29	3933.5	
839.46	3156.6	
839.63	5697.4	
839.8	5383.4	
839.97	3911.6	
840.14	3829.7	
840.31	5495.4	
840.48	5717.2	
840.65	3154.6	
840.82	3790.1	
841	5747.3	
841.17	5653.8	
841.34	3500.7	
841.51	3584.6	
841.68	5626.5	
841.85	5335	
842.02	3663.8	
842.19	3007.1	
842.36	5460.6	
842.53	5450.3	
842.7	3592.1	
842.87	4316.4	
843.05	7254.6	
843.22	5396.4	
843.39	3294.5	
843.56	3658.4	
843.73	5125.4	
843.9	5739.8	
844.07	5745.9	
844.24	4812	
844.41	8471.8	
844.58	4947.2	
844.75	3405.8	
844.92	3739.6	
845.09	5713.8	
845.26	5674.2	
845.43	3534.8	
845.6	3719.8	
845.77	5699.5	
845.94	5442.1	
846.12	3876.1	
846.29	4109.6	
846.46	5905	
846.63	5750.7	
846.8	3542.3	
846.97	4231.1	
847.14	6238.1	
847.31	5658.5	
847.48	3968.3	
847.65	4392.9	
847.82	6021	
847.99	5938.4	
848.16	4775.9	
848.33	4399	
848.5	5230.5	
848.67	6173.3	
848.84	3478.8	
849.01	3636.5	
849.18	5122	
849.35	4776.5	
849.52	4463.9	
849.69	3473.4	
849.86	5952.1	
850.03	6178.7	
850.2	3543.7	
850.37	4330.1	
850.54	6072.9	
850.71	5325.4	
850.88	4263.9	
851.05	3472	
851.22	5634	
851.39	6261.3	
851.56	3313.6	
851.73	4113	
851.9	5050.3	
852.07	5926.8	
852.24	3914.4	
852.41	3519.1	
852.58	5549.3	
852.75	5055.8	
852.92	4029	
853.09	3443.3	
853.26	5283.8	
853.43	6184.2	
853.6	3487.7	
853.77	2953.9	
853.94	6300.9	
854.11	5640.1	
854.28	5313.1	
854.44	3799	
854.61	6754.2	
854.78	5791	
854.95	3577.1	
855.12	4427.7	
855.29	4559.5	
855.46	6415.6	
855.63	3500.7	
855.8	4893.3	
855.97	5258.5	
856.14	6023.1	
856.31	5038	
856.48	3818.1	
856.65	5257.1	
856.82	4941.7	
856.99	3392.8	
857.16	3855	
857.33	6974.7	
857.49	5306.3	
857.66	3805.1	
857.83	4134.2	
858	5338.4	
858.17	5494.7	
858.34	3304.7	
858.51	3485	
858.68	6422.4	
858.85	6432.7	
859.02	4055.7	
859.19	4323.9	
859.36	5011.4	
859.52	5030.5	
859.69	3547.8	
859.86	4181.3	
860.03	5087.8	
860.2	6296.1	
860.37	3182.5	
860.54	3568.9	
860.71	5905	
860.88	6370.5	
861.05	3961.5	
861.21	4487.8	
861.38	6436.1	
861.55	4866.7	
861.72	3184.6	
861.89	3940.3	
862.06	6049	
862.23	6557.6	
862.4	3444	
862.56	3684.3	
862.73	5870.8	
862.9	5525.4	
863.07	4070	
863.24	3189.4	
863.41	4892.6	
863.58	5063.3	
863.75	3614	
863.91	4092.5	
864.08	6376	
864.25	5864.7	
864.42	4421.6	
864.59	4956.8	
864.76	6629.3	
864.93	5014.1	
865.09	3431.7	
865.26	3787.4	
865.43	6182.1	
865.6	6627.9	
865.77	3051.5	
865.94	3497.9	
866.1	6242.9	
866.27	5987.6	
866.44	5313.1	
866.61	3315	
866.78	5451	
866.95	5872.2	
867.11	3375.1	
867.28	3134.1	
867.45	6084.5	
867.62	5057.1	
867.79	4101.4	
867.96	3493.8	
868.12	4993.6	
868.29	6070.9	
868.46	3513.6	
868.63	4710.3	
868.8	6161	
868.97	5947.3	
869.13	3659	
869.3	3657	
869.47	5859.9	
869.64	6029.2	
869.81	3564.1	
869.97	3495.2	
870.14	5714.5	
870.31	6432	
870.48	3417.4	
870.65	4467.3	
870.81	5309	
870.98	5306.3	
871.15	3956.7	
871.32	3679.5	
871.48	5762.3	
871.65	6501.6	
871.82	3478.1	
871.99	3912.3	
872.16	6919.4	
872.32	6244.9	
872.49	3564.1	
872.66	3521.1	
872.83	5932.3	
872.99	5229.1	
873.16	4071.4	
873.33	3478.1	
873.5	5576.6	
873.67	5578.7	
873.83	3687	
874	4777.9	
874.17	5697.4	
874.34	6793.8	
874.5	4538.3	
874.67	4414.1	
874.84	6346	
875.01	4990.9	
875.17	5031.2	
875.34	3519.1	
875.51	5571.8	
875.68	6784.2	
875.84	4209.9	
876.01	5225.7	
876.18	5884.5	
876.34	5821.7	
876.51	3504.1	
876.68	3442	
876.85	5409.4	
877.01	6283.2	
877.18	5068.7	
877.35	3511.6	
877.52	5533.6	
877.68	4968.4	
877.85	3445.4	
878.02	3489.7	
878.18	5476.3	
878.35	5162.9	
878.52	2788	
878.69	3876.8	
878.85	5943.9	
879.02	5872.2	
879.19	5060.5	
879.35	3819.5	
879.52	5855.1	
879.69	6174.6	
879.86	3006.4	
880.02	3958	
880.19	5436	
880.36	6681.8	
880.52	4124.6	
880.69	4138.9	
880.86	6003.3	
881.02	6087.9	
881.19	3851.5	
881.36	3784.6	
881.52	5842.9	
881.69	5196.4	
881.86	3810.6	
882.02	3699.3	
882.19	6173.3	
882.36	7215.7	
882.52	3625.6	
882.69	5043.5	
882.86	5705.6	
883.02	5571.8	
883.19	4338.3	
883.36	4068.6	
883.52	6025.1	
883.69	6923.5	
883.86	3578.5	
884.02	3168.9	
884.19	6021.7	
884.36	5517.2	
884.52	4011.3	
884.69	3796.9	
884.86	5228.5	
885.02	6613.6	
885.19	3995.6	
885.36	4109.6	
885.52	5438.7	
885.69	5640.1	
885.86	5130.8	
886.02	4545.1	
886.19	5954.8	
886.35	5350.7	
886.52	3926	
886.69	4919.9	
886.85	5043.5	
887.02	6368.5	
887.19	6368.5	
887.35	6368.5	
887.52	6368.5	
887.68	6368.5	
887.85	6368.5	
888.02	6368.5	
888.18	6368.5	
888.35	6368.5	
888.51	6368.5	
888.68	6368.5	
888.85	6368.5	
889.01	6368.5	
889.18	6368.5	
889.35	6368.5	
889.51	6368.5	
889.68	6368.5	
889.84	6368.5	
890.01	6368.5	
890.17	6368.5	
890.34	6368.5	
890.51	6368.5	
890.67	6368.5	
890.84	6368.5	
891	6368.5	
891.17	6368.5	
891.34	6368.5	
891.5	6368.5	
891.67	6368.5	
891.83	6368.5	
892	6368.5	
892.16	6368.5	
892.33	6368.5	
892.5	6368.5	
892.66	6368.5	
892.83	6368.5	
892.99	6368.5	
893.16	6368.5	
893.32	6368.5	
893.49	6368.5	
893.65	6368.5	
893.82	6368.5	
893.99	6368.5	
894.15	6368.5	
894.32	6368.5	
894.48	6368.5	
894.65	6368.5	
894.81	6368.5	
894.98	6368.5	
895.14	6368.5	
895.31	6368.5	
895.47	6368.5	
895.64	6368.5	
895.81	6368.5	
895.97	6368.5	
896.14	6368.5	
896.3	6368.5	
896.47	6368.5	
896.63	6368.5	
896.8	6368.5	
896.96	6368.5	
897.13	6368.5	
897.29	6368.5	
897.46	6368.5	
897.62	6368.5	
897.79	6368.5	
897.95	6368.5	
898.12	6368.5	
898.28	6368.5	
898.45	6368.5	
898.61	6368.5	
898.78	6368.5	
898.94	6368.5	
899.11	6368.5	
899.27	6368.5	
899.44	6368.5	
899.6	6368.5	
899.77	6368.5	
899.93	6368.5	
900.1	6368.5	
900.26	6368.5	
900.43	6368.5	
900.59	6368.5	
900.76	6368.5	
900.92	6368.5	
901.09	6368.5	
901.25	6368.5	
901.42	6368.5	
901.58	6368.5	
901.75	6368.5	
901.91	6368.5	
902.07	6368.5	
902.24	6368.5	
902.4	6368.5	
902.57	6368.5	
902.73	6368.5	
902.9	6368.5	
903.06	6368.5	
903.23	6368.5	
903.39	6368.5	
903.56	6368.5	
903.72	6368.5	
903.88	6368.5	
904.05	6368.5	
904.21	6368.5	
904.38	6368.5	
904.54	6368.5	
904.71	6368.5	
904.87	6368.5	
905.03	6368.5	
905.2	6368.5	
905.36	6368.5	
905.53	6368.5	
905.69	6368.5	
905.86	6368.5	
906.02	6368.5	
906.18	6368.5	
906.35	6368.5	
906.51	6368.5	
906.68	6368.5	
906.84	6368.5	
907.01	6368.5	
907.17	6368.5	
907.33	6368.5	
907.5	6368.5	
907.66	6368.5	
907.83	6368.5	
907.99	6368.5	
908.15	6368.5	
908.32	6368.5	
908.48	6368.5	
908.65	6368.5	
908.81	6368.5	
908.97	6368.5	
909.14	6368.5	
909.3	6368.5	
909.47	6368.5	
909.63	6368.5	
909.79	6368.5	
909.96	6368.5	
910.12	6368.5	
910.28	6368.5	
910.45	6368.5	
910.61	6368.5	
910.78	6368.5	
910.94	6368.5	
911.1	6368.5	
911.27	6368.5	
911.43	6368.5	
911.59	6368.5	
911.76	6368.5	
911.92	6368.5	
912.08	6368.5	
912.25	6368.5	
912.41	6368.5	
912.57	6368.5	
912.74	6368.5	
912.9	6368.5	
913.07	6368.5	
913.23	6368.5	
913.39	6368.5	
913.56	6368.5	
913.72	6368.5	
913.88	6368.5	
914.05	6368.5	
914.21	6368.5	
914.37	6368.5	
914.54	6368.5	
914.7	6368.5	
914.86	6368.5	
915.03	6368.5	
915.19	6368.5	
