Wavelength	Intensities	
nm	a.u.	
179.22	1903.1	
179.44	1904.3	
179.65	1901.9	
179.86	1906.7	
180.08	1931.2	
180.29	4905.6	
180.51	3490.4	
180.72	5697.4	
180.94	6573.3	
181.15	3254.9	
181.37	3187.3	
181.58	5457.8	
181.79	5750.7	
182.01	3437.2	
182.22	3609.9	
182.44	5759.6	
182.65	4812.7	
182.87	4569	
183.08	3970.3	
183.29	6036	
183.51	4999.1	
183.72	3667.9	
183.94	5355.4	
184.15	5373.9	
184.37	5365.7	
184.58	3218.7	
184.79	4331.5	
185.01	4975.2	
185.22	5740.5	
185.44	4712.4	
185.65	3959.4	
185.86	5268.7	
186.08	4881	
186.29	3124.5	
186.51	3347.1	
186.72	5005.9	
186.94	5967.1	
187.15	3889.1	
187.36	4029	
187.58	7740.6	
187.79	5510.4	
188.01	4204.5	
188.22	6433.4	
188.43	6657.3	
188.65	5717.2	
188.86	3345	
189.08	3986	
189.29	5228.5	
189.5	5260.5	
189.72	3722.5	
189.93	3809.2	
190.15	5991	
190.36	7105.8	
190.57	4055.7	
190.79	4006.5	
191	6051.7	
191.22	6018.3	
191.43	4050.2	
191.64	3355.9	
191.86	6198.5	
192.07	6025.8	
192.29	3521.8	
192.5	3690.4	
192.71	5937.7	
192.93	5073.5	
193.14	3663.1	
193.35	3728	
193.57	5160.2	
193.78	5938.4	
194	2928.6	
194.21	3609.2	
194.42	4889.9	
194.64	5433.3	
194.85	3973.1	
195.07	4728.8	
195.28	5415.5	
195.49	4683	
195.71	4982	
195.92	3445.4	
196.13	5642.2	
196.35	5703.6	
196.56	5285.8	
196.78	4009.2	
196.99	7015	
197.2	6636.8	
197.42	4620.2	
197.63	4100.7	
197.84	4774.5	
198.06	5606.7	
198.27	3732.1	
198.48	4998.4	
198.7	5173.2	
198.91	5268.7	
199.13	4034.5	
199.34	4012	
199.55	5810.8	
199.77	4656.4	
199.98	3554.6	
200.19	4050.9	
200.41	5284.4	
200.62	5008	
200.83	4208.6	
201.05	4469.4	
201.26	5375.9	
201.47	5014.1	
201.69	3552.5	
201.9	3447.4	
202.11	5383.4	
202.33	6382.8	
202.54	3855.6	
202.76	4261.1	
202.97	5584.1	
203.18	5532.9	
203.4	4231.1	
203.61	4112.3	
203.82	5486.5	
204.04	5119.2	
204.25	4093.9	
204.46	4028.4	
204.68	5426.4	
204.89	5677	
205.1	3938.2	
205.32	3439.2	
205.53	5805.3	
205.74	5958.9	
205.96	2928.6	
206.17	4162.8	
206.38	5723.4	
206.6	5912.5	
206.81	4709.6	
207.02	3751.9	
207.24	5688.6	
207.45	6034	
207.66	3852.9	
207.88	3308.2	
208.09	5594.4	
208.3	5393.7	
208.52	3562.8	
208.73	3812.6	
208.94	5402.5	
209.15	6116.6	
209.37	3846.8	
209.58	4067.3	
209.79	5904.3	
210.01	5224.4	
210.22	3099.3	
210.43	3310.2	
210.65	5418.2	
210.86	5833.3	
211.07	3867.2	
211.29	3459	
211.5	5758.9	
211.71	5288.5	
211.93	3545	
212.14	3469.9	
212.35	5302.9	
212.56	5596.4	
212.78	4052.9	
212.99	3332	
213.2	6381.5	
213.42	5173.2	
213.63	3655.6	
213.84	3921.9	
214.06	4782.7	
214.27	4838.7	
214.48	3808.5	
214.69	4084.3	
214.91	6076.3	
215.12	6165.8	
215.33	4131.4	
215.55	4584.7	
215.76	6622.4	
215.97	5779.4	
216.18	4045.4	
216.4	3889.8	
216.61	5062.6	
216.82	5874.3	
217.04	3546.4	
217.25	3695.2	
217.46	6121.4	
217.67	5814.9	
217.89	3205.8	
218.1	3263.8	
218.31	5513.1	
218.53	5560.2	
218.74	3703.4	
218.95	3638.6	
219.16	5437.4	
219.38	6285.9	
219.59	3616	
219.8	4324.6	
220.01	7012.9	
220.23	5408.7	
220.44	4810.7	
220.65	3508.2	
220.87	5454.4	
221.08	6042.9	
221.29	3295.9	
221.5	4429.1	
221.72	7395.9	
221.93	5113.1	
222.14	4070	
222.35	4780.6	
222.57	5385.5	
222.78	5745.2	
222.99	3904.8	
223.2	4168.3	
223.42	5773.2	
223.63	5863.3	
223.84	2958.6	
224.05	2942.9	
224.27	6900.3	
224.48	6291.4	
224.69	4851	
224.9	4090.5	
225.12	5631.9	
225.33	5369.8	
225.54	3227.6	
225.75	3644.7	
225.97	5001.1	
226.18	5256.5	
226.39	3952.6	
226.6	3639.9	
226.82	5173.2	
227.03	4968.4	
227.24	3995.6	
227.45	3417.4	
227.67	5776.6	
227.88	6307.1	
228.09	4474.1	
228.3	4552.6	
228.52	5871.5	
228.73	5406	
228.94	3779.2	
229.15	3310.2	
229.36	5240.8	
229.58	5240.8	
229.79	3827.7	
230	4398.4	
230.21	6475	
230.43	5458.5	
230.64	4053.6	
230.85	4146.5	
231.06	5768.4	
231.28	5870.8	
231.49	3373.7	
231.7	3968.3	
231.91	5674.9	
232.12	5444.9	
232.34	3431.7	
232.55	3962.1	
232.76	6078.4	
232.97	5590.3	
233.18	3543	
233.4	3970.3	
233.61	5610.1	
233.82	5116.5	
234.03	3739.6	
234.25	3708.9	
234.46	7500.3	
234.67	5433.9	
234.88	4137.6	
235.09	3577.8	
235.31	5705	
235.52	5218.9	
235.73	4006.5	
235.94	3403	
236.15	5107.6	
236.37	6524.1	
236.58	3551.9	
236.79	3880.9	
237	5645.6	
237.21	4931.5	
237.43	4258.4	
237.64	3291.1	
237.85	9820	
238.06	5000.5	
238.27	4226.3	
238.48	3359.4	
238.7	5743.2	
238.91	5264	
239.12	3882.3	
239.33	3957.4	
239.54	5001.1	
239.76	5336.3	
239.97	3809.2	
240.18	3857	
240.39	6774.7	
240.6	5623.7	
240.82	3964.9	
241.03	3318.4	
241.24	5377.3	
241.45	6242.9	
241.66	3534.1	
241.87	4155.3	
242.09	6170.5	
242.3	6519.4	
242.51	4227.7	
242.72	3896.6	
242.93	5899.5	
243.14	5430.5	
243.36	4450.9	
243.57	4877.6	
243.78	6290	
243.99	5723.4	
244.2	3953.3	
244.41	3598.3	
244.63	4967.7	
244.84	5689.9	
245.05	4205.8	
245.26	3896.6	
245.47	5661.3	
245.68	5968.5	
245.9	5210	
246.11	4117.8	
246.32	5254.4	
246.53	5678.3	
246.74	6303.6	
246.95	3208.5	
247.16	4896	
247.38	5386.2	
247.59	3206.4	
247.8	3903.4	
248.01	5075.5	
248.22	5337	
248.43	3532.7	
248.64	3836.5	
248.86	4818.9	
249.07	5166.3	
249.28	3376.4	
249.49	3933.5	
249.7	5960.3	
249.91	6113.9	
250.12	3237.2	
250.34	3280.8	
250.55	5539.8	
250.76	5395	
250.97	4042.7	
251.18	3998.3	
251.39	6070.2	
251.6	5611.4	
251.81	4128	
252.03	4067.9	
252.24	5158.2	
252.45	5973.2	
252.66	3332.7	
252.87	4289.8	
253.08	5461.2	
253.29	7152.2	
253.5	3407.1	
253.72	4709	
253.93	5257.8	
254.14	6474.3	
254.35	3672	
254.56	3826.3	
254.77	5616.9	
254.98	4984.1	
255.19	3661.8	
255.41	4710.3	
255.62	5503.6	
255.83	6071.5	
256.04	4218.1	
256.25	4094.6	
256.46	6654.5	
256.67	5076.2	
256.88	3999	
257.09	4448.2	
257.31	5083.7	
257.52	5091.9	
257.73	5033.2	
257.94	3642	
258.15	5281	
258.36	5440.1	
258.57	4630.5	
258.78	2962.7	
258.99	5884.5	
259.2	5195	
259.41	3732.8	
259.63	3792.8	
259.84	6222.4	
260.05	6654.5	
260.26	4912.4	
260.47	3579.2	
260.68	5930.9	
260.89	5342.5	
261.1	4499.4	
261.31	3524.6	
261.52	5925.5	
261.73	6305.7	
261.95	4833.2	
262.16	4136.9	
262.37	6131.6	
262.58	6249.7	
262.79	4799.8	
263	3801	
263.21	5334.3	
263.42	4891.2	
263.63	3818.8	
263.84	3734.8	
264.05	6002.6	
264.26	6324.1	
264.47	4708.3	
264.69	4229.1	
264.9	6092.7	
265.11	5595.1	
265.32	3631.7	
265.53	3673.4	
265.74	5527.5	
265.95	4816.1	
266.16	3987.4	
266.37	4371	
266.58	5539.1	
266.79	5244.8	
267	3685.7	
267.21	3422.2	
267.42	4984.8	
267.63	5373.9	
267.84	3875.4	
268.06	3330.7	
268.27	5845.6	
268.48	6152.1	
268.69	3812	
268.9	4526	
269.11	6101.6	
269.32	4872.1	
269.53	3893.2	
269.74	3562.1	
269.95	5700.9	
270.16	4716.5	
270.37	3857	
270.58	4542.4	
270.79	5273.5	
271	6006.7	
271.21	4167.6	
271.42	3937.6	
271.63	5500.8	
271.84	5051.7	
272.05	3123.2	
272.26	3492.5	
272.47	5486.5	
272.68	5665.4	
272.89	3741.6	
273.11	4375.8	
273.32	5213.4	
273.53	6352.1	
273.74	4182.6	
273.95	4100	
274.16	6007.4	
274.37	5535.7	
274.58	4190.1	
274.79	3415.3	
275	5502.2	
275.21	6087.9	
275.42	5166.3	
275.63	4425.7	
275.84	5646.2	
276.05	7193.1	
276.26	4073.4	
276.47	3814	
276.68	5251	
276.89	6445	
277.1	4412	
277.31	3379.8	
277.52	5692	
277.73	5876.3	
277.94	3403.7	
278.15	3755.3	
278.36	5659.9	
278.57	5074.2	
278.78	3670.6	
278.99	4265.9	
279.2	5047.6	
279.41	4958.8	
279.62	4939	
279.83	3459	
280.04	6609.5	
280.25	4915.8	
280.46	4862.6	
280.67	3858.4	
280.88	5026.4	
281.09	6085.2	
281.3	4135.5	
281.51	5112.4	
281.72	5138.4	
281.93	5919.3	
282.14	3620.8	
282.35	3954.6	
282.56	5932.3	
282.77	5852.4	
282.98	3767.6	
283.19	4595	
283.4	7269.6	
283.61	5416.2	
283.82	3396.2	
284.03	4842.8	
284.24	5523.4	
284.45	6036	
284.66	4807.9	
284.87	4630.5	
285.08	5940.5	
285.29	6158.2	
285.5	3283.6	
285.71	3768.9	
285.92	6016.9	
286.12	6673	
286.33	4835.3	
286.54	3735.5	
286.75	5879	
286.96	5309	
287.17	3474	
287.38	4759.5	
287.59	5062.6	
287.8	4947.9	
288.01	3827	
288.22	4387.4	
288.43	5946.6	
288.64	4941.7	
288.85	4563.6	
289.06	4283.7	
289.27	5851	
289.48	6354.8	
289.69	4872.8	
289.9	4307.6	
290.11	6053.8	
290.32	5120.6	
290.53	4560.8	
290.74	4192.2	
290.94	5830.6	
291.15	5835.3	
291.36	3721.2	
291.57	4419.5	
291.78	5186.8	
291.99	4810.7	
292.2	3542.3	
292.41	4222.9	
292.62	5969.1	
292.83	5783.5	
293.04	5201.8	
293.25	3477.5	
293.46	5166.3	
293.67	6019.7	
293.88	3652.2	
294.09	3503.4	
294.29	4904.9	
294.5	5549.3	
294.71	3863.2	
294.92	3717.7	
295.13	5166.3	
295.34	6523.5	
295.55	3247.4	
295.76	3235.1	
295.97	5784.8	
296.18	6616.3	
296.39	3420.1	
296.6	3674.1	
296.81	5563.6	
297.01	5886.5	
297.22	3858.4	
297.43	3663.8	
297.64	5087.8	
297.85	5083.1	
298.06	3031.7	
298.27	3257	
298.48	5520	
298.69	5138.4	
298.9	3936.2	
299.11	3568.2	
299.31	4954	
299.52	4943.1	
299.73	4229.1	
299.94	4122.6	
300.15	5368.4	
300.36	5097.4	
300.57	4218.1	
300.78	4164.2	
300.99	5275.6	
301.2	5538.4	
301.4	3577.8	
301.61	3940.3	
301.82	5758.9	
302.03	5825.8	
302.24	4476.9	
302.45	3437.2	
302.66	5686.5	
302.87	6145.3	
303.08	3627.6	
303.29	4994.3	
303.49	5151.3	
303.7	5453.1	
303.91	3289	
304.12	4706.2	
304.33	4969.7	
304.54	5537.7	
304.75	3683.6	
304.96	3469.3	
305.16	5722	
305.37	6525.5	
305.58	3220.1	
305.79	3318.4	
306	5752.1	
306.21	4821.6	
306.42	3642	
306.63	5550.7	
306.83	5259.2	
307.04	6044.2	
307.25	4037.9	
307.46	3988.8	
307.67	4678.2	
307.88	5859.9	
308.09	3538.9	
308.29	3734.8	
308.5	5491.3	
308.71	6049	
308.92	3953.3	
309.13	3551.9	
309.34	5367	
309.55	5356.1	
309.75	4529.4	
309.96	4184.7	
310.17	5811.5	
310.38	5091.3	
310.59	4395.6	
310.8	3415.3	
311.01	6567.2	
311.21	5296.7	
311.42	3458.3	
311.63	3650.2	
311.84	5175.2	
312.05	5531.6	
312.26	4083	
312.46	4464.6	
312.67	5241.4	
312.88	4967	
313.09	3547.1	
313.3	3450.1	
313.51	6189	
313.71	6504.3	
313.92	3568.2	
314.13	3716.4	
314.34	5596.4	
314.55	5313.8	
314.76	4504.8	
314.96	3941	
315.17	5515.2	
315.38	5864.7	
315.59	3531.4	
315.8	3392.1	
316.01	6299.6	
316.21	6298.9	
316.42	3429.7	
316.63	3939.6	
316.84	5287.2	
317.05	6137.8	
317.26	4179.2	
317.46	3706.8	
317.67	5342.5	
317.88	5856.5	
318.09	4468	
318.3	3274	
318.5	5123.3	
318.71	5787.6	
318.92	5738.4	
319.13	4130.8	
319.34	5947.3	
319.54	6041.5	
319.75	3278.8	
319.96	3124.5	
320.17	5770.5	
320.38	6018.3	
320.58	3200.3	
320.79	3891.1	
321	6032.6	
321.21	6169.8	
321.42	3923.2	
321.62	3223.5	
321.83	5061.9	
322.04	5393.7	
322.25	3698.6	
322.46	3545.7	
322.66	5528.8	
322.87	5676.3	
323.08	4421.6	
323.29	3473.4	
323.5	6559	
323.7	4952.7	
323.91	4831.2	
324.12	4369	
324.33	5485.1	
324.53	5749.3	
324.74	4162.8	
324.95	4324.6	
325.16	4863.2	
325.37	5205.9	
325.57	3526.6	
325.78	3607.2	
325.99	5531.6	
326.2	4842.1	
326.4	5184.8	
326.61	3233.1	
326.82	5367.7	
327.03	5511.8	
327.24	5070.1	
327.44	4788.2	
327.65	5623	
327.86	4614.8	
328.07	4153.3	
328.27	3417.4	
328.48	6068.8	
328.69	4974.5	
328.9	5093.3	
329.1	3789.4	
329.31	5302.2	
329.52	6284.5	
329.73	3525.9	
329.93	3954.6	
330.14	5431.2	
330.35	5679.7	
330.56	5872.9	
330.76	4419.5	
330.97	5223	
331.18	5597.8	
331.39	3958.7	
331.59	3190.7	
331.8	5992.4	
332.01	6209.4	
332.22	3593.5	
332.42	4202.4	
332.63	5529.5	
332.84	5128.1	
333.05	3947.1	
333.25	3616.7	
333.46	5212.1	
333.67	5489.2	
333.88	3658.4	
334.08	4127.3	
334.29	7211.6	
334.5	6124.8	
334.7	3398.9	
334.91	5063.3	
335.12	4985.4	
335.33	5882.4	
335.53	3877.5	
335.74	5832.6	
335.95	5190.9	
336.16	5066	
336.36	3844.7	
336.57	4496.7	
336.78	4953.4	
336.98	6025.8	
337.19	4889.9	
337.4	3898	
337.61	6545.3	
337.81	4970.4	
338.02	3601	
338.23	4669.4	
338.43	6137.8	
338.64	5093.3	
338.85	3506.1	
339.05	4704.9	
339.26	6270.2	
339.47	4845.5	
339.68	3562.1	
339.88	5251.7	
340.09	5634	
340.3	5928.9	
340.5	4186.7	
340.71	3156.6	
340.92	4914.4	
341.13	6196.5	
341.33	3515	
341.54	4134.8	
341.75	5709.1	
341.95	5295.4	
342.16	3964.2	
342.37	4392.2	
342.57	5045.5	
342.78	5348.6	
342.99	4448.9	
343.19	3154.6	
343.4	5868.8	
343.61	5684.5	
343.81	3799	
344.02	3489.7	
344.23	5817.6	
344.43	6219	
344.64	4383.3	
344.85	4276.2	
345.06	5650.3	
345.26	6083.1	
345.47	4121.9	
345.68	4814.1	
345.88	4814.1	
346.09	5849.7	
346.3	4201.7	
346.5	3133.4	
346.71	5408.7	
346.92	5106.3	
347.12	3224.9	
347.33	4078.2	
347.54	6047.7	
347.74	6376.7	
347.95	4060.4	
348.16	3024.2	
348.36	5203.2	
348.57	4903.5	
348.78	4044.7	
348.98	4360.1	
349.19	5362.3	
349.39	4906.9	
349.6	3252.9	
349.81	3635.1	
350.01	5700.9	
350.22	5098.1	
350.43	3909.6	
350.63	4618.9	
350.84	5461.2	
351.05	5218.9	
351.25	3532.7	
351.46	3214.6	
351.67	5978.7	
351.87	5093.3	
352.08	3842	
352.29	4385.4	
352.49	5876.3	
352.7	6024.4	
352.9	3463.1	
353.11	4296	
353.32	6533	
353.52	5158.2	
353.73	3429.7	
353.94	4364.2	
354.14	5678.3	
354.35	5549.3	
354.55	3472	
354.76	3886.4	
354.97	5692	
355.17	5459.2	
355.38	3295.2	
355.59	4603.2	
355.79	5056.4	
356	5479	
356.2	3867.2	
356.41	3330	
356.62	4814.1	
356.82	5243.5	
357.03	4119.8	
357.24	3717.1	
357.44	5084.4	
357.65	5193.6	
357.85	4992.3	
358.06	3847.5	
358.27	4830.5	
358.47	5061.9	
358.68	3214.6	
358.88	4046.1	
359.09	5539.1	
359.3	6005.3	
359.5	4796.3	
359.71	4273.4	
359.91	6445.6	
360.12	5742.5	
360.33	4115.7	
360.53	4524.6	
360.74	4988.2	
360.94	5098.8	
361.15	4275.5	
361.36	3498.6	
361.56	5849.7	
361.77	5335.6	
361.97	4776.5	
362.18	3724.6	
362.38	5803.3	
362.59	4880.3	
362.8	3430.3	
363	3246	
363.21	4635.9	
363.41	5381.4	
363.62	3977.8	
363.83	5026.4	
364.03	5429.2	
364.24	6460.7	
364.44	5042.8	
364.65	4936.3	
364.85	5141.8	
365.06	5056.4	
365.27	3609.9	
365.47	3617.4	
365.68	6191.7	
365.88	5186.8	
366.09	3977.8	
366.29	3657.7	
366.5	5456.5	
366.71	5851.7	
366.91	4942.4	
367.12	4128.7	
367.32	6423.1	
367.53	5722	
367.73	4074.8	
367.94	5053.7	
368.14	5628.5	
368.35	6572.6	
368.56	4048.2	
368.76	3429.7	
368.97	5807.4	
369.17	7502.4	
369.38	3619.4	
369.58	3830.4	
369.79	4830.5	
369.99	6149.4	
370.2	4817.5	
370.4	3943	
370.61	5435.3	
370.82	6532.3	
371.02	3749.8	
371.23	3165.5	
371.43	4661.9	
371.64	5973.2	
371.84	3871.3	
372.05	5044.8	
372.25	7339.9	
372.46	5698.1	
372.66	3801	
372.87	3783.3	
373.07	5793	
373.28	7330.4	
373.48	4790.2	
373.69	4476.2	
373.9	5199.1	
374.1	5220.3	
374.31	4690.5	
374.51	4240	
374.72	6058.6	
374.92	4838.7	
375.13	4878.3	
375.33	4131.4	
375.54	5584.1	
375.74	4994.3	
375.95	4093.2	
376.15	5332.9	
376.36	5552	
376.56	5430.5	
376.77	4135.5	
376.97	4560.8	
377.18	6645.7	
377.38	5691.3	
377.59	4905.6	
377.79	3566.2	
378	5403.9	
378.2	5877	
378.41	3657	
378.61	3594.9	
378.82	5949.3	
379.02	5004.6	
379.23	3831.1	
379.43	4982	
379.64	5945.3	
379.84	5572.5	
380.05	3659	
380.25	3589.4	
380.46	5737	
380.66	5263.3	
380.87	5016.2	
381.07	5385.5	
381.28	6344.6	
381.48	5684.5	
381.69	3730.7	
381.89	3682.9	
382.1	4689.2	
382.3	5924.8	
382.51	4846.2	
382.71	5695.4	
382.91	5721.3	
383.12	6223.8	
383.32	4095.9	
383.53	4272.7	
383.73	5597.8	
383.94	5412.1	
384.14	4203.1	
384.35	3394.8	
384.55	5323.4	
384.76	5767.1	
384.96	4064.5	
385.17	4404.5	
385.37	5723.4	
385.58	4975.2	
385.78	4442.7	
385.98	3306.1	
386.19	5139	
386.39	5593.7	
386.6	3840.6	
386.8	4052.9	
387.01	5720	
387.21	5673.6	
387.42	4506.9	
387.62	5038	
387.83	5007.3	
388.03	5625.1	
388.23	4066.6	
388.44	4915.8	
388.64	4785.4	
388.85	4792.2	
389.05	4400.4	
389.26	5038	
389.46	6643.6	
389.67	6086.6	
389.87	4335.5	
390.07	4490.5	
390.28	5308.3	
390.48	4844.1	
390.69	3624.9	
390.89	3878.9	
391.1	5048.9	
391.3	5914.5	
391.5	5130.2	
391.71	5816.9	
391.91	5674.2	
392.12	6718.7	
392.32	5192.3	
392.53	4429.1	
392.73	5130.2	
392.93	5341.8	
393.14	4098.7	
393.34	4873.5	
393.55	5763.7	
393.75	5285.8	
393.95	4076.1	
394.16	4062.5	
394.36	5091.3	
394.57	5696.1	
394.77	3478.8	
394.98	4048.2	
395.18	4960.9	
395.38	5070.1	
395.59	4916.5	
395.79	3765.5	
396	5186.8	
396.2	5606.7	
396.4	4747.9	
396.61	4519.2	
396.81	5778.7	
397.02	5010	
397.22	4784.7	
397.42	4901.5	
397.63	5772.5	
397.83	4932.9	
398.04	3700	
398.24	4143.7	
398.44	5511.1	
398.65	4588.1	
398.85	3510.2	
399.05	3664.5	
399.26	4915.1	
399.46	6697.5	
399.67	3945.8	
399.87	3773.7	
400.07	5288.5	
400.28	5526.8	
400.48	3796.3	
400.69	4859.1	
400.89	5818.3	
401.09	6253.8	
401.3	3570.3	
401.5	4820.9	
401.7	6455.9	
401.91	6728.9	
402.11	4028.4	
402.32	4224.3	
402.52	5827.2	
402.72	5815.5	
402.93	4531.5	
403.13	3335.5	
403.33	6638.1	
403.54	5338.4	
403.74	4233.2	
403.94	5111	
404.15	5474.9	
404.35	6611.5	
404.56	3969	
404.76	5808.7	
404.96	5819.6	
405.17	5604.6	
405.37	5250.3	
405.57	4403.8	
405.78	5837.4	
405.98	5310.4	
406.18	3947.8	
406.39	4866.7	
406.59	5800.5	
406.79	5488.6	
407	3762.8	
407.2	3970.3	
407.4	5809.4	
407.61	5988.9	
407.81	3842.7	
408.01	5801.2	
408.22	4771.8	
408.42	6853.2	
408.62	4752.7	
408.83	4231.8	
409.03	5298.8	
409.23	5100.8	
409.44	4273.4	
409.64	4590.9	
409.84	6100.9	
410.05	6001.9	
410.25	4394.3	
410.45	4169	
410.66	5390.3	
410.86	7884.7	
411.06	4459.8	
411.27	4368.3	
411.47	7557	
411.67	5547.3	
411.88	4644.1	
412.08	4853	
412.28	6158.2	
412.49	6695.5	
412.69	4289.8	
412.89	4242	
413.09	6441.5	
413.3	6277	
413.5	4289.8	
413.7	4003.1	
413.91	5556.8	
414.11	6440.9	
414.31	4170.3	
414.52	4553.3	
414.72	6068.8	
414.92	5959.6	
415.12	4178.5	
415.33	4721.9	
415.53	6335	
415.73	6548	
415.94	5101.5	
416.14	4439.3	
416.34	5264	
416.55	5169.8	
416.75	5696.1	
416.95	5060.5	
417.15	6246.3	
417.36	7101.7	
417.56	5788.9	
417.76	4885.8	
417.97	6632.7	
418.17	6311.8	
418.37	4438.6	
418.57	4405.9	
418.78	6099.5	
418.98	5789.6	
419.18	5373.2	
419.38	5300.8	
419.59	5812.1	
419.79	5466	
419.99	4349.9	
420.2	4796.3	
420.4	6391	
420.6	6569.2	
420.8	4280.9	
421.01	4208.6	
421.21	6088.6	
421.41	6367.8	
421.61	4706.9	
421.82	4337.6	
422.02	5680.4	
422.22	6638.8	
422.42	5195.7	
422.63	4939	
422.83	5837.4	
423.03	7021.1	
423.23	4966.3	
423.44	3935.5	
423.64	5825.8	
423.84	5651.7	
424.04	4309.6	
424.25	4026.3	
424.45	6815	
424.65	6799.9	
424.85	3803.8	
425.06	4416.8	
425.26	6813.6	
425.46	5755.5	
425.66	4941.1	
425.87	4644.8	
426.07	6546.7	
426.27	6468.2	
426.47	4739	
426.67	4108.9	
426.88	6929	
427.08	6348.7	
427.28	4899.4	
427.48	4023.6	
427.69	5322.7	
427.89	5974.6	
428.09	4874.8	
428.29	4088.4	
428.5	6657.9	
428.7	6176.7	
428.9	3981.3	
429.1	4670.1	
429.3	6030.6	
429.51	6404	
429.71	4328.7	
429.91	5022.3	
430.11	6326.2	
430.31	6524.1	
430.52	4586.8	
430.72	4861.2	
430.92	6892.1	
431.12	6351.4	
431.32	4212	
431.53	4702.1	
431.73	5222.3	
431.93	6937.8	
432.13	4142.4	
432.33	3964.9	
432.54	5715.2	
432.74	6116.6	
432.94	3882.9	
433.14	4993.6	
433.34	6255.9	
433.55	5704.3	
433.75	4859.1	
433.95	6576.7	
434.15	6000.5	
434.35	5648.3	
434.56	4141	
434.76	3610.6	
434.96	5944.6	
435.16	6173.9	
435.36	3899.3	
435.56	5041.4	
435.77	5501.5	
435.97	5708.4	
436.17	5741.8	
436.37	4955.4	
436.57	5518.6	
436.78	5357.5	
436.98	6163.7	
437.18	5568.4	
437.38	6138.4	
437.58	5752.7	
437.78	5758.2	
437.99	4330.1	
438.19	6371.9	
438.39	7376.1	
438.59	4271.4	
438.79	3887.7	
438.99	6939.2	
439.2	5708.4	
439.4	4014	
439.6	3893.2	
439.8	6010.8	
440	7104.4	
440.2	4909.7	
440.4	4984.8	
440.61	6384.2	
440.81	6890.7	
441.01	4022.9	
441.21	4848.2	
441.41	6721.4	
441.61	6354.2	
441.81	5152.7	
442.02	6210.8	
442.22	7278.5	
442.42	6462	
442.62	4034.5	
442.82	4108.9	
443.02	6750.8	
443.22	5812.1	
443.43	4520.5	
443.63	4015.4	
443.83	5618.3	
444.03	5679	
444.23	5189.6	
444.43	4823	
444.63	5891.3	
444.83	7188.4	
445.04	4149.2	
445.24	5454.4	
445.44	6360.3	
445.64	6430.6	
445.84	5010.7	
446.04	4937.7	
446.24	5711.1	
446.44	6806.1	
446.65	4244.1	
446.85	4485.1	
447.05	5930.9	
447.25	6713.9	
447.45	4696.7	
447.65	4050.9	
447.85	6078.4	
448.05	5735	
448.25	5057.1	
448.46	4825.7	
448.66	6036	
448.86	5791.7	
449.06	3840.6	
449.26	5075.5	
449.46	6382.2	
449.66	5480.4	
449.86	4589.5	
450.06	4484.4	
450.26	5634	
450.47	6238.1	
450.67	4835.3	
450.87	5117.2	
451.07	6271.6	
451.27	6043.6	
451.47	4059.8	
451.67	4648.9	
451.87	5687.2	
452.07	6911.9	
452.27	4287.1	
452.47	4377.2	
452.67	6016.2	
452.88	6632	
453.08	3748.5	
453.28	5713.2	
453.48	7219.8	
453.68	6021	
453.88	4151.9	
454.08	4437.9	
454.28	6349.4	
454.48	5976.7	
454.68	4958.1	
454.88	5520	
455.08	6394.4	
455.28	6083.1	
455.48	4063.9	
455.68	4607.2	
455.89	6834.1	
456.09	6475.7	
456.29	4334.9	
456.49	4362.2	
456.69	6637.5	
456.89	5943.9	
457.09	4865.3	
457.29	5185.5	
457.49	6219	
457.69	6326.9	
457.89	4530.8	
458.09	4000.4	
458.29	5940.5	
458.49	6620.4	
458.69	4992.3	
458.89	4418.2	
459.09	6815.6	
459.29	7000.6	
459.49	4569	
459.69	5372.5	
459.9	6434.7	
460.1	5898.8	
460.3	4465.3	
460.5	4255	
460.7	6380.8	
460.9	6079.1	
461.1	3820.1	
461.3	5087.8	
461.5	6969.2	
461.7	6653.9	
461.9	4120.5	
462.1	4732.2	
462.3	5965.1	
462.5	6633.4	
462.7	4304.8	
462.9	4261.8	
463.1	7678.5	
463.3	7257.3	
463.5	4450.9	
463.7	5287.2	
463.9	6145.3	
464.1	6525.5	
464.3	4494.6	
464.5	4845.5	
464.7	6793.8	
464.9	6361.7	
465.1	6172.6	
465.3	5087.2	
465.5	7105.1	
465.7	6991.8	
465.9	5303.6	
466.1	5241.4	
466.3	6809.5	
466.5	6746	
466.7	5961.6	
466.9	4903.5	
467.1	6534.4	
467.3	7484	
467.5	5902.2	
467.7	4691.2	
467.9	7740.6	
468.1	8568.7	
468.3	5568.4	
468.5	5904.3	
468.7	6540.5	
468.9	6453.8	
469.1	5029.8	
469.3	5756.2	
469.5	8355.7	
469.7	5941.8	
469.9	5536.3	
470.1	4746.5	
470.3	6461.3	
470.5	6478.4	
470.7	6019	
470.9	4838.7	
471.1	6240.2	
471.3	6817.7	
471.5	4700.1	
471.69	6652.5	
471.89	6167.8	
472.09	5694.7	
472.29	5487.9	
472.49	5939.8	
472.69	5893.4	
472.89	6757.6	
473.09	4575.8	
473.29	4882.4	
473.49	6097.5	
473.69	6369.2	
473.89	5803.3	
474.09	4900.8	
474.29	7556.3	
474.49	7215.7	
474.69	5732.3	
474.89	5113.8	
475.09	6338.5	
475.29	6217	
475.49	4603.2	
475.69	4691.2	
475.88	7980.3	
476.08	6593.1	
476.28	4448.2	
476.48	4946.5	
476.68	7197.2	
476.88	6913.9	
477.08	4797.7	
477.28	5143.8	
477.48	6485.2	
477.68	7183.6	
477.88	4654.4	
478.08	4965	
478.28	7397.3	
478.48	6547.4	
478.67	4970.4	
478.87	4470	
479.07	7144.7	
479.27	6678.4	
479.47	5290.6	
479.67	5171.8	
479.87	7084.6	
480.07	7490.8	
480.27	4441.4	
480.47	6111.1	
480.67	6684.6	
480.87	7245.7	
481.06	4737	
481.26	5578	
481.46	6579.4	
481.66	6503	
481.86	5163.6	
482.06	6294.1	
482.26	6332.3	
482.46	7364.5	
482.66	5136.3	
482.86	4784.1	
483.05	6593.8	
483.25	6059.3	
483.45	7617.1	
483.65	5122.7	
483.85	6240.8	
484.05	6470.2	
484.25	5608	
484.45	6070.2	
484.65	7382.2	
484.84	7336.5	
485.04	5048.9	
485.24	5001.1	
485.44	7641	
485.64	6074.3	
485.84	4237.9	
486.04	5653.8	
486.24	6256.5	
486.44	6656.6	
486.63	4203.8	
486.83	4998.4	
487.03	6191.7	
487.23	6329.6	
487.43	4356.7	
487.63	6722.8	
487.83	6404.7	
488.02	7375.4	
488.22	5199.8	
488.42	5880.4	
488.62	7292.1	
488.82	6129.6	
489.02	4973.8	
489.22	4896.7	
489.41	7146	
489.61	6758.3	
489.81	4622.9	
490.01	4719.9	
490.21	7010.9	
490.41	7724.9	
490.61	4605.2	
490.8	4807.3	
491	6560.3	
491.2	5915.2	
491.4	5356.8	
491.6	4500.1	
491.8	6539.8	
491.99	6761.7	
492.19	4392.2	
492.39	4751.3	
492.59	7058.7	
492.79	7100.3	
492.99	5540.4	
493.18	4584.7	
493.38	7134.4	
493.58	7756.3	
493.78	5215.5	
493.98	4874.2	
494.18	6780.8	
494.37	6223.8	
494.57	5471.5	
494.77	5234.6	
494.97	6912.6	
495.17	7088	
495.37	4823.6	
495.56	5133.6	
495.76	7277.8	
495.96	6856.6	
496.16	6022.4	
496.36	4928.1	
496.55	7078.5	
496.75	6621.8	
496.95	5339.7	
497.15	5095.3	
497.35	7099.6	
497.54	7040.9	
497.74	5017.5	
497.94	6685.3	
498.14	7699.7	
498.34	7496.9	
498.53	4683.7	
498.73	5428.5	
498.93	6341.9	
499.13	6944.7	
499.33	5181.4	
499.52	5782.8	
499.72	6868.9	
499.92	7239.6	
500.12	4846.2	
500.32	5115.1	
500.51	7187	
500.71	6949.4	
500.91	5931.6	
501.11	5573.2	
501.31	7077.1	
501.5	7502.4	
501.7	6247	
501.9	5169.1	
502.1	6956.9	
502.29	7218.4	
502.49	5607.3	
502.69	6111.1	
502.89	7205.4	
503.09	7137.9	
503.28	4754	
503.48	4866.7	
503.68	6440.9	
503.88	6518	
504.07	5845.6	
504.27	5369.8	
504.47	6840.9	
504.67	7044.3	
504.86	5744.6	
505.06	5478.3	
505.26	6606.7	
505.46	8350.9	
505.65	5328.1	
505.85	5693.4	
506.05	6526.2	
506.25	7038.2	
506.44	4793.6	
506.64	5762.3	
506.84	6410.8	
507.04	7419.1	
507.23	4971.1	
507.43	5672.2	
507.63	8469	
507.83	6714.6	
508.02	5511.1	
508.22	5221	
508.42	8733.2	
508.62	6500.9	
508.81	5571.2	
509.01	6002.6	
509.21	6356.2	
509.4	6624.5	
509.6	5675.6	
509.8	4989.5	
510	6595.1	
510.19	8094.9	
510.39	5003.9	
510.59	5072.1	
510.79	6393.8	
510.98	7874.4	
511.18	5091.3	
511.38	5243.5	
511.57	7296.2	
511.77	7082.6	
511.97	5888.6	
512.17	4935.6	
512.36	7335.8	
512.56	7258.7	
512.76	5022.3	
512.95	4800.4	
513.15	7432.1	
513.35	5962.3	
513.55	5875.6	
513.74	4993.6	
513.94	7372	
514.14	6633.4	
514.33	5976.7	
514.53	5644.9	
514.73	6653.2	
514.92	6901	
515.12	5187.5	
515.32	4941.1	
515.51	6980.2	
515.71	7485.3	
515.91	6756.2	
516.11	5005.2	
516.3	8568.7	
516.5	6563.1	
516.7	5619.6	
516.89	6199.2	
517.09	6655.9	
517.29	6508.4	
517.48	5823.7	
517.68	5349.3	
517.88	6402	
518.07	6993.1	
518.27	5790.3	
518.47	4837.3	
518.66	7558.4	
518.86	6146.6	
519.06	4657.1	
519.25	5177.9	
519.45	6500.9	
519.65	7946.8	
519.84	5754.8	
520.04	6424.5	
520.24	8333.2	
520.43	7153.6	
520.63	5550	
520.83	5311.1	
521.02	6427.2	
521.22	7108.5	
521.42	5897.5	
521.61	6290.7	
521.81	6662	
522.01	6864.1	
522.2	5607.3	
522.4	5426.4	
522.6	7294.9	
522.79	6028.5	
522.99	5495.4	
523.18	4714.4	
523.38	6972	
523.58	6937.2	
523.77	6653.2	
523.97	4627.7	
524.17	8684.1	
524.36	7735.9	
524.56	5922	
524.76	5640.8	
524.95	6847	
525.15	6442.2	
525.34	5397.1	
525.54	5366.4	
525.74	7148.8	
525.93	6118	
526.13	6554.9	
526.33	5241.4	
526.52	7429.3	
526.72	7002	
526.91	6559	
527.11	5745.2	
527.31	7464.8	
527.5	7847.8	
527.7	5595.7	
527.89	4640.7	
528.09	6317.3	
528.29	6808.8	
528.48	6029.2	
528.68	5690.6	
528.87	7282.6	
529.07	7441	
529.27	5636.7	
529.46	5145.9	
529.66	6989	
529.85	7411.6	
530.05	4895.3	
530.25	5770.5	
530.44	8415.8	
530.64	6918	
530.83	5380	
531.03	5575.3	
531.23	7311.9	
531.42	7194.5	
531.62	6281.1	
531.81	5496.7	
532.01	7317.4	
532.21	7820.5	
532.4	5167.7	
532.6	5536.3	
532.79	8260.8	
532.99	7335.1	
533.18	5469.4	
533.38	6554.2	
533.58	6864.1	
533.77	7679.2	
533.97	5422.3	
534.16	6294.8	
534.36	7834.2	
534.55	6866.2	
534.75	6433.4	
534.95	5565.7	
535.14	7743.4	
535.34	6876.4	
535.53	5188.2	
535.73	7252.5	
535.92	8290.2	
536.12	7111.9	
536.31	5341.8	
536.51	6528.9	
536.71	7406.8	
536.9	6948.1	
537.1	5546.6	
537.29	5664.7	
537.49	7889.5	
537.68	6928.3	
537.88	6072.2	
538.07	5216.9	
538.27	7013.6	
538.46	8091.5	
538.66	5080.3	
538.86	5462.6	
539.05	7057.3	
539.25	7518.8	
539.44	5735	
539.64	5507.7	
539.83	6908.5	
540.03	8004.8	
540.22	5289.9	
540.42	5517.2	
540.61	7308.5	
540.81	7367.2	
541	5933	
541.2	6549.4	
541.39	6816.3	
541.59	7217	
541.78	6210.1	
541.98	5474.9	
542.18	6526.9	
542.37	6493.4	
542.57	5852.4	
542.76	6283.2	
542.96	6602	
543.15	7395.2	
543.35	5984.2	
543.54	5221.6	
543.74	7739.3	
543.93	7225.2	
544.13	5856.5	
544.32	6956.3	
544.52	7589.1	
544.71	6842.9	
544.91	4968.4	
545.1	6246.3	
545.3	6829.3	
545.49	7517.4	
545.69	5001.1	
545.88	5683.1	
546.08	8434.2	
546.27	8036.2	
546.47	6104.3	
546.66	5356.1	
546.86	7750.2	
547.05	8412.4	
547.24	5588.9	
547.44	5457.8	
547.63	6698.9	
547.83	7894.2	
548.02	5823.1	
548.22	6133.7	
548.41	6573.3	
548.61	7907.2	
548.8	5433.3	
549	5404.6	
549.19	7242.3	
549.39	7499.7	
549.58	5087.2	
549.78	5738.4	
549.97	7604.1	
550.17	7200	
550.36	6634.7	
550.55	7604.1	
550.75	7133.8	
550.94	8112	
551.14	5428.5	
551.33	5818.3	
551.53	6489.3	
551.72	7485.3	
551.92	5838.8	
552.11	5544.5	
552.31	7560.4	
552.5	7599.3	
552.69	7300.3	
552.89	5239.4	
553.08	7435.5	
553.28	7279.8	
553.47	5599.8	
553.67	6819.7	
553.86	8260.8	
554.06	6511.9	
554.25	4812	
554.44	5387.5	
554.64	8989.2	
554.83	8471.8	
555.03	5436	
555.22	5737	
555.42	7766.6	
555.61	7414.3	
555.8	5679	
556	5895.4	
556.19	6561.7	
556.39	7842.4	
556.58	5715.9	
556.78	5649.7	
556.97	7329.7	
557.16	7104.4	
557.36	6861.4	
557.55	5193	
557.75	6374.6	
557.94	8075.1	
558.13	5440.8	
558.33	5193	
558.52	7912	
558.72	6786.3	
558.91	5304.9	
559.1	5509	
559.3	6564.4	
559.49	6259.3	
559.69	4872.1	
559.88	5896.8	
560.07	7368.6	
560.27	7811	
560.46	6118.6	
560.66	6257.2	
560.85	7139.9	
561.04	6367.1	
561.24	5348.6	
561.43	5535.7	
561.63	6609.5	
561.82	6855.9	
562.01	6792.4	
562.21	5783.5	
562.4	7413	
562.59	8287.4	
562.79	5638.7	
562.98	5316.5	
563.18	7316	
563.37	8654.7	
563.56	6118.6	
563.76	5183.4	
563.95	6716.7	
564.14	6619.7	
564.34	5625.1	
564.53	5382.1	
564.73	7182.2	
564.92	7572	
565.11	5730.2	
565.31	5106.3	
565.5	7807.5	
565.69	6720.1	
565.89	5359.5	
566.08	5623.7	
566.27	7677.2	
566.47	8002.1	
566.66	6244.9	
566.85	4842.8	
567.05	7213.6	
567.24	6650.4	
567.44	5302.9	
567.63	6709.8	
567.82	7526.3	
568.02	7195.9	
568.21	5253.7	
568.4	5629.2	
568.6	7021.1	
568.79	7115.3	
568.98	5094.7	
569.18	5112.4	
569.37	7024.5	
569.56	9013.1	
569.76	5515.2	
569.95	6559.6	
570.14	7491.5	
570.34	7311.2	
570.53	5111	
570.72	5081.7	
570.91	7916.8	
571.11	6990.4	
571.3	5637.4	
571.49	6516.6	
571.69	7041.6	
571.88	6616.3	
572.07	6098.9	
572.27	6068.8	
572.46	6564.4	
572.65	7664.9	
572.85	5300.8	
573.04	5703.6	
573.23	7838.9	
573.43	7062.1	
573.62	5035.3	
573.81	5708.4	
574	7093.5	
574.2	6924.2	
574.39	5354.1	
574.58	5595.1	
574.78	7925.6	
574.97	7167.9	
575.16	5855.8	
575.36	6070.2	
575.55	7475.1	
575.74	7703.8	
575.93	4991.6	
576.13	6074.3	
576.32	6854.6	
576.51	7440.3	
576.71	5456.5	
576.9	6808.8	
577.09	7875.8	
577.28	7341.3	
577.48	5955.5	
577.67	4889.9	
577.86	6998.6	
578.05	7295.5	
578.25	5535.7	
578.44	5670.8	
578.63	7122.8	
578.83	8279.3	
579.02	4965.6	
579.21	6553.5	
579.4	7281.2	
579.6	6954.2	
579.79	5749.3	
579.98	7965.2	
580.17	7623.9	
580.37	7745.4	
580.56	5170.4	
580.75	5922	
580.94	8160.5	
581.14	8021.9	
581.33	6382.8	
581.52	5330.9	
581.71	7437.5	
581.91	8241	
582.1	4922.6	
582.29	5624.4	
582.48	7110.5	
582.68	6950.1	
582.87	6101.6	
583.06	5725.4	
583.25	7495.6	
583.45	6838.2	
583.64	6356.2	
583.83	7122.2	
584.02	6971.3	
584.21	7318.8	
584.41	6440.2	
584.6	5680.4	
584.79	7042.3	
584.98	7854.6	
585.18	5175.2	
585.37	5136.3	
585.56	6708.5	
585.75	7359.7	
585.94	5374.6	
586.14	5991.7	
586.33	8129.8	
586.52	7074.4	
586.71	5838.8	
586.91	5590.3	
587.1	6578.1	
587.29	7619.1	
587.48	5664	
587.67	5466.7	
587.87	7514.7	
588.06	7578.8	
588.25	6907.1	
588.44	6210.1	
588.63	7225.2	
588.83	7789.8	
589.02	5668.1	
589.21	5479.7	
589.4	7021.1	
589.59	6910.5	
589.78	4883.7	
589.98	5083.1	
590.17	6639.5	
590.36	7178.1	
590.55	4569.7	
590.74	5501.5	
590.94	8614.4	
591.13	7140.6	
591.32	5294	
591.51	4803.9	
591.7	7587.7	
591.89	7074.4	
592.09	4818.2	
592.28	5425.8	
592.47	6307.7	
592.66	8196	
592.85	4828.4	
593.05	5131.5	
593.24	6896.2	
593.43	7668.3	
593.62	5130.2	
593.81	5647.6	
594	6947.4	
594.19	7134.4	
594.39	5139.7	
594.58	5055.8	
594.77	7236.8	
594.96	7882.6	
595.15	5062.6	
595.34	5655.8	
595.54	7357.7	
595.73	6399.9	
595.92	4428.4	
596.11	5590.3	
596.3	7858.1	
596.49	6544.6	
596.68	5326.8	
596.88	5769.1	
597.07	7646.4	
597.26	6322.1	
597.45	4861.9	
597.64	6050.4	
597.83	6591	
598.02	7279.2	
598.22	4980	
598.41	5629.2	
598.6	7077.8	
598.79	6505.7	
598.98	4997	
599.17	6002.6	
599.36	7028.6	
599.55	8254.7	
599.74	7102.4	
599.94	6813.6	
600.13	7626	
600.32	6459.3	
600.51	4776.5	
600.7	4878.3	
600.89	8368	
601.08	8335.9	
601.27	4700.1	
601.47	5692	
601.66	7580.2	
601.85	8193.2	
602.04	5370.5	
602.23	5704.3	
602.42	6535.8	
602.61	7301	
602.8	5274.9	
602.99	5075.5	
603.18	6888	
603.37	7238.2	
603.57	5842.2	
603.76	6287.3	
603.95	7972.7	
604.14	7548.8	
604.33	5164.3	
604.52	5579.3	
604.71	7191.1	
604.9	6731	
605.09	6135.7	
605.28	5980.1	
605.47	7819.8	
605.66	7496.9	
605.86	5745.9	
606.05	5194.3	
606.24	7775.5	
606.43	6322.1	
606.62	5556.1	
606.81	6305	
607	7699	
607.19	6940.6	
607.38	4969.1	
607.57	5216.9	
607.76	6657.9	
607.95	6206	
608.14	5651	
608.33	6186.2	
608.52	6705.7	
608.72	7661.5	
608.91	4854.4	
609.1	4814.1	
609.29	6876.4	
609.48	6365.1	
609.67	5819.6	
609.86	4864.6	
610.05	6472.3	
610.24	6853.2	
610.43	4784.7	
610.62	4357.4	
610.81	7959.8	
611	7702.4	
611.19	4894	
611.38	5578.7	
611.57	7134.4	
611.76	8510	
611.95	4647.5	
612.14	4567	
612.33	6964.5	
612.52	6466.8	
612.71	5265.3	
612.9	4437.9	
613.09	5993	
613.28	8385.7	
613.47	4928.1	
613.66	5929.6	
613.85	7086.7	
614.04	6548	
614.24	5082.4	
614.43	4293.9	
614.62	7157	
614.81	7125.6	
615	5708.4	
615.19	5599.1	
615.38	6417.7	
615.57	6748.7	
615.76	5483.8	
615.95	6380.8	
616.14	7214.3	
616.33	6875	
616.52	5796.4	
616.71	6178	
616.9	7155.6	
617.09	6927.6	
617.28	5122	
617.47	6368.5	
617.66	6251.1	
617.85	6193.7	
618.04	5962.3	
618.22	5481	
618.41	6522.8	
618.6	7434.8	
618.79	5315.8	
618.98	4992.9	
619.17	7623.9	
619.36	6007.4	
619.55	5069.4	
619.74	5199.1	
619.93	6985.6	
620.12	6401.3	
620.31	5818.3	
620.5	5961.6	
620.69	7527	
620.88	7922.2	
621.07	6591.7	
621.26	5610.1	
621.45	7197.2	
621.64	7135.1	
621.83	5696.1	
622.02	4894.6	
622.21	7176.1	
622.4	6815.6	
622.59	6204	
622.78	5965.1	
622.97	6522.8	
623.16	7447.8	
623.35	5609.4	
623.54	4781.3	
623.72	6739.2	
623.91	6841.6	
624.1	5881.8	
624.29	4543.8	
624.48	7897	
624.67	7154.2	
624.86	5745.9	
625.05	4802.5	
625.24	8030.1	
625.43	6386.2	
625.62	7494.9	
625.81	5009.3	
626	7487.4	
626.19	6811.5	
626.38	5779.4	
626.56	5195	
626.75	6592.4	
626.94	7335.8	
627.13	5808	
627.32	4520.5	
627.51	7189.7	
627.7	8684.8	
627.89	4696.7	
628.08	5850.4	
628.27	6356.2	
628.46	6574.7	
628.65	5048.9	
628.83	4636.6	
629.02	7163.1	
629.21	6474.3	
629.4	5418.9	
629.59	5584.8	
629.78	6341.2	
629.97	7372	
630.16	5724.1	
630.35	5214.1	
630.54	7779.6	
630.72	7583.6	
630.91	5092.6	
631.1	5737.7	
631.29	7027.9	
631.48	7126.9	
631.67	5783.5	
631.86	5338.4	
632.05	6623.8	
632.24	6701	
632.42	4856.4	
632.61	5559.6	
632.8	6776.7	
632.99	6393.1	
633.18	5507	
633.37	5890	
633.56	6973.3	
633.75	6835.4	
633.93	5427.8	
634.12	5166.3	
634.31	7909.3	
634.5	7423.2	
634.69	5183.4	
634.88	5829.2	
635.07	6746	
635.25	7434.1	
635.44	6200.6	
635.63	6367.8	
635.82	6646.3	
636.01	6107.7	
636.2	6106.4	
636.39	5612.8	
636.57	7852.6	
636.76	7405.5	
636.95	5063.3	
637.14	6488	
637.33	7082.6	
637.52	8086.7	
637.7	4822.3	
637.89	5765.7	
638.08	6652.5	
638.27	8215.1	
638.46	5881.8	
638.65	6311.2	
638.83	8256	
639.02	6582.9	
639.21	5887.9	
639.4	6278.4	
639.59	7030	
639.78	6652.5	
639.96	5134.3	
640.15	5152	
640.34	6960.4	
640.53	7068.9	
640.72	4835.9	
640.91	5235.3	
641.09	6451.8	
641.28	7752.9	
641.47	5192.3	
641.66	6027.2	
641.85	7116.7	
642.03	7354.3	
642.22	5873.6	
642.41	5347.2	
642.6	6503.7	
642.79	5962.3	
642.97	5184.1	
643.16	5911.8	
643.35	6506.4	
643.54	6298.2	
643.73	4968.4	
643.91	5915.2	
644.1	6264.1	
644.29	6804.7	
644.48	5242.1	
644.67	5259.2	
644.85	6462	
645.04	6697.5	
645.23	4827.1	
645.42	5071.5	
645.6	6389.7	
645.79	7554.3	
645.98	5143.8	
646.17	4141.7	
646.36	6139.8	
646.54	6847	
646.73	6002.6	
646.92	4789.5	
647.11	6465.4	
647.29	7508.5	
647.48	4891.9	
647.67	4702.8	
647.86	7742.7	
648.05	7755	
648.23	5285.8	
648.42	6562.4	
648.61	7078.5	
648.8	6761.7	
648.98	4832.5	
649.17	5212.8	
649.36	6411.5	
649.55	5882.4	
649.73	4908.3	
649.92	5634.6	
650.11	6312.5	
650.3	6609.5	
650.48	5053.7	
650.67	4767.7	
650.86	6955.6	
651.05	5840.1	
651.23	5068	
651.42	4958.8	
651.61	6313.2	
651.79	6468.2	
651.98	5182	
652.17	4857.8	
652.36	6890.7	
652.54	5937.1	
652.73	4924.7	
652.92	4805.2	
653.11	6924.2	
653.29	6995.2	
653.48	4162.2	
653.67	5235.3	
653.85	6759.7	
654.04	7823.9	
654.23	5539.1	
654.42	5016.2	
654.6	6360.3	
654.79	6996.5	
654.98	4549.9	
655.16	5188.2	
655.35	5943.2	
655.54	5885.2	
655.73	4653	
655.91	4603.2	
656.1	7058.7	
656.29	5797.8	
656.47	4087.7	
656.66	5831.9	
656.85	6053.8	
657.03	6048.3	
657.22	4599.7	
657.41	4728.1	
657.59	6148.7	
657.78	5981.4	
657.97	4325.3	
658.16	5044.8	
658.34	6830.7	
658.53	7223.9	
658.72	5928.9	
658.9	6521.4	
659.09	6188.3	
659.28	6369.9	
659.46	4847.5	
659.65	4730.8	
659.84	6037.4	
660.02	6576	
660.21	4623.6	
660.4	4561.5	
660.58	7090.1	
660.77	6397.2	
660.96	5247.6	
661.14	4167.6	
661.33	7505.1	
661.52	7495.6	
661.7	4173.1	
661.89	8000.7	
662.08	6054.5	
662.26	5608	
662.45	4582	
662.64	4664.6	
662.82	6703	
663.01	5887.2	
663.2	4618.2	
663.38	5393	
663.57	6664.8	
663.75	6492.7	
663.94	5023	
664.13	6395.1	
664.31	5980.1	
664.5	6783.6	
664.69	5413.5	
664.87	5810.1	
665.06	5741.1	
665.25	6440.2	
665.43	6052.4	
665.62	6152.8	
665.8	6883.2	
665.99	6108.4	
666.18	4934.2	
666.36	5111.7	
666.55	6835.4	
666.74	6738.5	
666.92	4637.3	
667.11	6260.6	
667.29	6176	
667.48	6784.9	
667.67	5856.5	
667.85	4971.8	
668.04	6248.4	
668.22	6226.5	
668.41	5118.6	
668.6	5268.1	
668.78	6005.3	
668.97	6204.7	
669.15	5493.3	
669.34	4345.8	
669.53	6027.2	
669.71	6333	
669.9	4567	
670.08	5213.4	
670.27	6062	
670.46	6513.9	
670.64	5430.5	
670.83	5665.4	
671.01	5887.2	
671.2	6567.8	
671.38	4565.6	
671.57	4544.4	
671.76	7124.2	
671.94	7777.5	
672.13	4472.8	
672.31	5608	
672.5	6766.5	
672.69	5990.3	
672.87	4661.9	
673.06	4926	
673.24	6634.1	
673.43	6036	
673.61	5414.1	
673.8	4965	
673.98	6776	
674.17	6950.8	
674.36	5578	
674.54	5413.5	
674.73	6465.4	
674.91	6688.7	
675.1	5111	
675.28	4724.7	
675.47	6287.3	
675.65	6830.7	
675.84	4955.4	
676.03	5297.4	
676.21	6022.4	
676.4	5671.5	
676.58	5756.8	
676.77	5551.4	
676.95	7577.5	
677.14	5995.8	
677.32	4670.7	
677.51	4433.9	
677.69	6784.9	
677.88	5657.9	
678.06	4494.6	
678.25	4591.5	
678.44	6333.7	
678.62	6032.6	
678.81	4335.5	
678.99	5324	
679.18	7080.5	
679.36	6718	
679.55	4854.4	
679.73	5537	
679.92	6652.5	
680.1	6050.4	
680.29	6167.1	
680.47	4953.4	
680.66	5966.4	
680.84	6897.6	
681.03	4162.8	
681.21	5298.1	
681.4	6029.2	
681.58	5964.4	
681.77	4696.7	
681.95	4602.5	
682.14	6902.3	
682.32	7243.7	
682.51	5612.8	
682.69	4403.8	
682.88	5874.3	
683.06	6619.7	
683.25	5273.5	
683.43	5754.1	
683.62	6259.3	
683.8	6726.2	
683.99	5836.7	
684.17	5251.7	
684.36	7550.2	
684.54	6161.7	
684.73	4364.9	
684.91	4617.5	
685.1	6657.9	
685.28	6078.4	
685.46	5182.7	
685.65	5384.8	
685.83	6887.3	
686.02	6227.9	
686.2	4723.3	
686.39	4805.2	
686.57	5763.7	
686.76	7511.9	
686.94	4652.3	
687.13	4898.7	
687.31	6675.7	
687.5	6176	
687.68	4265.9	
687.86	5569.1	
688.05	7920.2	
688.23	5642.8	
688.42	5588.9	
688.6	4730.1	
688.79	6012.2	
688.97	6064	
689.16	5158.2	
689.34	4003.1	
689.52	6829.3	
689.71	7049.1	
689.89	5385.5	
690.08	4704.9	
690.26	6270.2	
690.45	6208.1	
690.63	5616.2	
690.81	4897.4	
691	6003.3	
691.18	5943.9	
691.37	5067.4	
691.55	7262.1	
691.74	5966.4	
691.92	8085.4	
692.1	5081	
692.29	4360.8	
692.47	6254.5	
692.66	5481.7	
692.84	4622.3	
693.02	5337	
693.21	5569.1	
693.39	6149.4	
693.58	5270.8	
693.76	4760.2	
693.94	7413.6	
694.13	7113.3	
694.31	4660.5	
694.5	5766.4	
694.68	5904.3	
694.86	6210.8	
695.05	4982	
695.23	5487.9	
695.42	6598.6	
695.6	8996.7	
695.78	5601.2	
695.97	4691.2	
696.15	6701	
696.34	5977.3	
696.52	4519.2	
696.7	5426.4	
696.89	6435.4	
697.07	5850.4	
697.25	5243.5	
697.44	6836.1	
697.62	6380.8	
697.81	6735.8	
697.99	4913.8	
698.17	5482.4	
698.36	5753.4	
698.54	6389.7	
698.72	5313.1	
698.91	4263.2	
699.09	6023.1	
699.28	5881.8	
699.46	4985.4	
699.64	4827.1	
699.83	5768.4	
700.01	7107.1	
700.19	5674.9	
700.38	4028.4	
700.56	7073.7	
700.74	5870.8	
700.93	4388.8	
701.11	5239.4	
701.29	6512.5	
701.48	7516	
701.66	4623.6	
701.84	4626.4	
702.03	6001.2	
702.21	6617	
702.39	4223.6	
702.58	4835.3	
702.76	6324.8	
702.94	6556.2	
703.13	4209.3	
703.31	6746.7	
703.49	5687.2	
703.68	7122.8	
703.86	4426.3	
704.04	5431.9	
704.23	6266.1	
704.41	6685.9	
704.59	4605.2	
704.78	5915.2	
704.96	7415.7	
705.14	6664.8	
705.33	4318.5	
705.51	5240.1	
705.69	6143.9	
705.87	6883.2	
706.06	5509.7	
706.24	4374.5	
706.42	6365.8	
706.61	6620.4	
706.79	5515.9	
706.97	4358.1	
707.16	5767.1	
707.34	6485.9	
707.52	5477.6	
707.7	4576.5	
707.89	5943.9	
708.07	5614.8	
708.25	5468.8	
708.44	5560.9	
708.62	5867.4	
708.8	7073.7	
708.98	5757.5	
709.17	4668.7	
709.35	6366.5	
709.53	6352.1	
709.72	4347.8	
709.9	4584	
710.08	6592.4	
710.26	6578.8	
710.45	6103.6	
710.63	4672.8	
710.81	6215.6	
710.99	6275.7	
711.18	5319.3	
711.36	4862.6	
711.54	5981.4	
711.72	6828.6	
711.91	4966.3	
712.09	4354	
712.27	6250.4	
712.45	7005.4	
712.64	5297.4	
712.82	4191.5	
713	5692.7	
713.18	5920	
713.37	4396.3	
713.55	5896.1	
713.73	6886.6	
713.91	5543.9	
714.1	4879.6	
714.28	4375.1	
714.46	6655.2	
714.64	5815.5	
714.83	3857	
715.01	4791.6	
715.19	5967.8	
715.37	5390.9	
715.55	4446.1	
715.74	4866	
715.92	7010.9	
716.1	4867.3	
716.28	5930.9	
716.47	4971.1	
716.65	5610.1	
716.83	5889.3	
717.01	4814.8	
717.19	4898.7	
717.38	7838.9	
717.56	5335.6	
717.74	5079	
717.92	4116.4	
718.1	6620.4	
718.29	5793.7	
718.47	3653.6	
718.65	4435.9	
718.83	6437.4	
719.01	6300.2	
719.2	3567.6	
719.38	4637.3	
719.56	6022.4	
719.74	7634.1	
719.92	4186.7	
720.11	5356.1	
720.29	6109.8	
720.47	5234.6	
720.65	3848.8	
720.83	4832.5	
721.02	5731.6	
721.2	5480.4	
721.38	4884.4	
721.56	4137.6	
721.74	4907.6	
721.92	5184.8	
722.11	5405.3	
722.29	5088.5	
722.47	6356.2	
722.65	5601.9	
722.83	4112.3	
723.01	5112.4	
723.2	5592.3	
723.38	5967.8	
723.56	3493.8	
723.74	4749.9	
723.92	5114.5	
724.1	6356.2	
724.29	4038.6	
724.47	5243.5	
724.65	5218.2	
724.83	5139.7	
725.01	3878.9	
725.19	4820.2	
725.37	5218.9	
725.56	5296	
725.74	3771.7	
725.92	4049.5	
726.1	5111	
726.28	5455.8	
726.46	4519.2	
726.64	4190.1	
726.83	5475.6	
727.01	5731.6	
727.19	3754.6	
727.37	4638.6	
727.55	5515.2	
727.73	6055.2	
727.91	3770.3	
728.09	3607.8	
728.28	6150.1	
728.46	6703.7	
728.64	4707.6	
728.82	4723.3	
729	7273	
729.18	6460	
729.36	3791.5	
729.54	6257.2	
729.72	7419.1	
729.91	5656.5	
730.09	5807.4	
730.27	4517.1	
730.45	5511.8	
730.63	6206.7	
730.81	5116.5	
730.99	4073.4	
731.17	6731	
731.35	5232.6	
731.53	4659.1	
731.71	4201.7	
731.9	6378.7	
732.08	6597.9	
732.26	4543.8	
732.44	4231.1	
732.62	6713.2	
732.8	6158.2	
732.98	5002.5	
733.16	3960.1	
733.34	6159.6	
733.52	4896	
733.7	4578.6	
733.88	4792.2	
734.07	5952.8	
734.25	5732.9	
734.43	4005.8	
734.61	5593	
734.79	7273.7	
734.97	5683.8	
735.15	4121.9	
735.33	4445.5	
735.51	5968.5	
735.69	5575.9	
735.87	5653.8	
736.05	4684.4	
736.23	5822.4	
736.41	5571.2	
736.59	4502.8	
736.77	4619.5	
736.95	6226.5	
737.13	5685.8	
737.32	4151.2	
737.5	4352.6	
737.68	6792.4	
737.86	5582.8	
738.04	3933.5	
738.22	5876.3	
738.4	5368.4	
738.58	5717.9	
738.76	4708.3	
738.94	3566.9	
739.12	5541.8	
739.3	5407.3	
739.48	5317.2	
739.66	4983.4	
739.84	5793	
740.02	5853.1	
740.2	3634.5	
740.38	4047.5	
740.56	6177.4	
740.74	4997	
740.92	4694.6	
741.1	4657.8	
741.28	5582.1	
741.46	5481.7	
741.64	4200.4	
741.82	4842.8	
742	5700.2	
742.18	5666	
742.36	4492.6	
742.54	4062.5	
742.72	6303.6	
742.9	4983.4	
743.08	4839.4	
743.26	3681.6	
743.44	6513.2	
743.62	6320	
743.8	5110.4	
743.98	4113	
744.16	6004	
744.34	5728.2	
744.52	5000.5	
744.7	4893.3	
744.88	6219.7	
745.06	5741.1	
745.24	5011.4	
745.42	5212.1	
745.6	6317.3	
745.78	6078.4	
745.96	3828.3	
746.14	4198.3	
746.32	7081.9	
746.5	6331.6	
746.68	4809.3	
746.86	4196.3	
747.03	6725.5	
747.21	5036	
747.39	4831.8	
747.57	4270.7	
747.75	5915.9	
747.93	6310.5	
748.11	4268.6	
748.29	4214	
748.47	7560.4	
748.65	5620.3	
748.83	5034.6	
749.01	4747.9	
749.19	6139.8	
749.37	5318.6	
749.55	4567.7	
749.73	4603.8	
749.91	5776	
750.09	5523.4	
750.26	4715.8	
750.44	4052.9	
750.62	5843.5	
750.8	5813.5	
750.98	3996.3	
751.16	4319.2	
751.34	5851	
751.52	5148.6	
751.7	5128.8	
751.88	3900	
752.06	6400.6	
752.24	6197.8	
752.42	3842.7	
752.59	4362.2	
752.77	5829.2	
752.95	7112.6	
753.13	5003.9	
753.31	4433.2	
753.49	5494.7	
753.67	5993.7	
753.85	4711	
754.03	4216.1	
754.21	6296.8	
754.38	6690.7	
754.56	4603.8	
754.74	3500.7	
754.92	5535	
755.1	6305.7	
755.28	3623.5	
755.46	3717.1	
755.64	7091.4	
755.82	7280.5	
755.99	4095.9	
756.17	4189.5	
756.35	4810.7	
756.53	6423.1	
756.71	3108.1	
756.89	4169	
757.07	6004.6	
757.25	5069.4	
757.42	4617.5	
757.6	5467.4	
757.78	6090.7	
757.96	5008.6	
758.14	4320.5	
758.32	3743.7	
758.5	4528.1	
758.67	5397.8	
758.85	4095.3	
759.03	4237.2	
759.21	5638.7	
759.39	5025.7	
759.57	3663.1	
759.75	4866	
759.92	6255.2	
760.1	5494.7	
760.28	5234.6	
760.46	5464.7	
760.64	5250.3	
760.82	4968.4	
760.99	4984.1	
761.17	4192.9	
761.35	6077	
761.53	5014.8	
761.71	4274.8	
761.89	5038	
762.06	5935.7	
762.24	5361.6	
762.42	4341.7	
762.6	4069.3	
762.78	5395	
762.96	6104.3	
763.13	4685.8	
763.31	4413.4	
763.49	6298.2	
763.67	5339.7	
763.85	5246.2	
764.02	5808	
764.2	6549.4	
764.38	5713.8	
764.56	4244.8	
764.74	5207.3	
764.91	6643.6	
765.09	5498.8	
765.27	3979.9	
765.45	3706.1	
765.63	6634.1	
765.8	6485.2	
765.98	3463.8	
766.16	3828.3	
766.34	5048.2	
766.52	4861.2	
766.69	4831.8	
766.87	3701.4	
767.05	5525.4	
767.23	6243.6	
767.41	4014.7	
767.58	4304.1	
767.76	6112.5	
767.94	6174.6	
768.12	4111	
768.29	4924	
768.47	5619.6	
768.65	6339.8	
768.83	3721.8	
769	4875.5	
769.18	5098.1	
769.36	5877.7	
769.54	4922.6	
769.72	3796.3	
769.89	6201.2	
770.07	6278.4	
770.25	4131.4	
770.43	5537	
770.6	7075.7	
770.78	7428.7	
770.96	4388.8	
771.14	5030.5	
771.31	6109.8	
771.49	5425.8	
771.67	3499.3	
771.85	3795.6	
772.02	4668.7	
772.2	5423	
772.38	4512.4	
772.55	4001.7	
772.73	5784.8	
772.91	5563.6	
773.09	4410	
773.26	4504.2	
773.44	5732.3	
773.62	5455.8	
773.8	3956.7	
773.97	3630.4	
774.15	5762.3	
774.33	5412.1	
774.5	3822.9	
774.68	4245.4	
774.86	5993	
775.04	5390.3	
775.21	3917.8	
775.39	3936.2	
775.57	5788.9	
775.74	6233.3	
775.92	3769.6	
776.1	3734.1	
776.27	5702.2	
776.45	7071	
776.63	3891.8	
776.81	3453.6	
776.98	5359.5	
777.16	6533	
777.34	4083.6	
777.51	4083.6	
777.69	5311.1	
777.87	5087.2	
778.04	4117.1	
778.22	4829.1	
778.4	5180	
778.57	5851	
778.75	3378.5	
778.93	3695.9	
779.1	4949.3	
779.28	4835.9	
779.46	3437.9	
779.64	3926.6	
779.81	6054.5	
779.99	6955.6	
780.17	4724	
780.34	4942.4	
780.52	5491.3	
780.69	5702.9	
780.87	4212	
781.05	3822.9	
781.22	5490.6	
781.4	5498.1	
781.58	3908.9	
781.75	3121.8	
781.93	5516.5	
782.11	4982	
782.28	4905.6	
782.46	3929.4	
782.64	4786.1	
782.81	5760.3	
782.99	4092.5	
783.17	3962.1	
783.34	5698.8	
783.52	4865.3	
783.69	4291.2	
783.87	5072.1	
784.05	4939	
784.22	4947.2	
784.4	5113.1	
784.58	4311	
784.75	5915.2	
784.93	5003.9	
785.1	4012.7	
785.28	4664.6	
785.46	5615.5	
785.63	4942.4	
785.81	4007.2	
785.99	3823.6	
786.16	5158.2	
786.34	5605.3	
786.51	3870.7	
786.69	4252.9	
786.87	4711.7	
787.04	5266.7	
787.22	3740.3	
787.39	4755.4	
787.57	4982.7	
787.75	6124.8	
787.92	4879.6	
788.1	4805.9	
788.27	5037.3	
788.45	4745.8	
788.63	4500.1	
788.8	3265.8	
788.98	5453.7	
789.15	4710.3	
789.33	3336.1	
789.5	4086.4	
789.68	5995.1	
789.86	6084.5	
790.03	4488.5	
790.21	3848.1	
790.38	5882.4	
790.56	5124	
790.73	3743.7	
790.91	3822.9	
791.09	5000.5	
791.26	5780.7	
791.44	4053.6	
791.61	3477.5	
791.79	5014.1	
791.96	5071.5	
792.14	3565.5	
792.32	3090.4	
792.49	5008	
792.67	5112.4	
792.84	3665.9	
793.02	3415.3	
793.19	5472.9	
793.37	6226.5	
793.54	3147.7	
793.72	3484.3	
793.89	6416.3	
794.07	5035.3	
794.25	4145.1	
794.42	3248.1	
794.6	6118.6	
794.77	5705.6	
794.95	4424.3	
795.12	3913	
795.3	4988.9	
795.47	5615.5	
795.65	4250.2	
795.82	4137.6	
796	4811.4	
796.17	6782.9	
796.35	3997	
796.52	4726	
796.7	5588.2	
796.87	5644.2	
797.05	4963.6	
797.22	4840.7	
797.4	5640.8	
797.57	6701	
797.75	4150.6	
797.92	3760.8	
798.1	5978	
798.27	5000.5	
798.45	3267.2	
798.62	3549.1	
798.8	5338.4	
798.97	5894.1	
799.15	4315.8	
799.32	4123.9	
799.5	4587.4	
799.67	5371.8	
799.85	4467.3	
800.02	3196.9	
800.2	4941.7	
800.37	5343.8	
800.55	4609.3	
800.72	3827.7	
800.9	5754.8	
801.07	6278.4	
801.25	5198.4	
801.42	4215.4	
801.6	5844.2	
801.77	5570.5	
801.95	3936.9	
802.12	3717.7	
802.29	5537	
802.47	5551.4	
802.64	4216.8	
802.82	3150.5	
802.99	4958.8	
803.17	6001.9	
803.34	4072.7	
803.52	3664.5	
803.69	6708.5	
803.87	4755.4	
804.04	4095.3	
804.21	4218.1	
804.39	6152.8	
804.56	5247.6	
804.74	3444.7	
804.91	4274.1	
805.09	5066	
805.26	5108.3	
805.44	3547.1	
805.61	3829	
805.78	5711.8	
805.96	5666.7	
806.13	4256.4	
806.31	4583.4	
806.48	4585.4	
806.66	5100.8	
806.83	4188.1	
807	4112.3	
807.18	5018.2	
807.35	5376.6	
807.53	4121.9	
807.7	3294.5	
807.87	6197.8	
808.05	5102.9	
808.22	4586.8	
808.4	3295.2	
808.57	5102.2	
808.74	4715.8	
808.92	3755.3	
809.09	4821.6	
809.27	4900.8	
809.44	5605.3	
809.61	3351.2	
809.79	3710.2	
809.96	6224.5	
810.14	5812.8	
810.31	3248.8	
810.48	4044.7	
810.66	5133.6	
810.83	5988.9	
811.01	3756.7	
811.18	4235.9	
811.35	5802.6	
811.53	4497.3	
811.7	4597.7	
811.87	4241.3	
812.05	5065.3	
812.22	4995.7	
812.39	3632.4	
812.57	3530	
812.74	5096.7	
812.92	6756.9	
813.09	3966.9	
813.26	4319.8	
813.44	6492.7	
813.61	5001.8	
813.78	3334.8	
813.96	4498	
814.13	5111	
814.3	4730.8	
814.48	4837.3	
814.65	3974.4	
814.82	6361.7	
815	4892.6	
815.17	4036.5	
815.34	5069.4	
815.52	4967.7	
815.69	5007.3	
815.87	4019.5	
816.04	3509.5	
816.21	5077.6	
816.38	4478.9	
816.56	3873.4	
816.73	3607.2	
816.9	6419	
817.08	5838.1	
817.25	3639.2	
817.42	4676.9	
817.6	4658.4	
817.77	5152	
817.94	4201.7	
818.12	3697.3	
818.29	4861.9	
818.46	7572	
818.64	3848.1	
818.81	3536.8	
818.98	4771.1	
819.16	7016.3	
819.33	4359.4	
819.5	4068.6	
819.67	5482.4	
819.85	6148	
820.02	4010.6	
820.19	4279.6	
820.37	5300.1	
820.54	4899.4	
820.71	4125.3	
820.88	5073.5	
821.06	5345.2	
821.23	4891.9	
821.4	4184	
821.58	4091.8	
821.75	5825.1	
821.92	5259.9	
822.09	3296.5	
822.27	3479.5	
822.44	5083.1	
822.61	5024.3	
822.79	3347.1	
822.96	6466.8	
823.13	5650.3	
823.3	4748.6	
823.48	3886.4	
823.65	3481.5	
823.82	5793	
823.99	4594.3	
824.17	4951.3	
824.34	3530	
824.51	6661.4	
824.68	5144.5	
824.86	3692.5	
825.03	4242.7	
825.2	5040.1	
825.37	6164.4	
825.55	3615.3	
825.72	4134.2	
825.89	6847.7	
826.06	6298.9	
826.24	4054.3	
826.41	4026.3	
826.58	6193.1	
826.75	5343.2	
826.92	3134.8	
827.1	3489.7	
827.27	8492.2	
827.44	6748.1	
827.61	3775.1	
827.79	4613.4	
827.96	4828.4	
828.13	5132.2	
828.3	3989.4	
828.47	3347.7	
828.65	5350.7	
828.82	5255.1	
828.99	5130.2	
829.16	4498	
829.34	5670.1	
829.51	5462.6	
829.68	4124.6	
829.85	4276.8	
830.02	5993	
830.2	5737.7	
830.37	3186.6	
830.54	5055.8	
830.71	6533.7	
830.88	5098.1	
831.05	3242.6	
831.23	3747.8	
831.4	6236.1	
831.57	7015	
831.74	3816.7	
831.91	3353.9	
832.09	5326.1	
832.26	5771.9	
832.43	3948.5	
832.6	4481.6	
832.77	5341.8	
832.94	6109.1	
833.12	3122.5	
833.29	3896.6	
833.46	4915.8	
833.63	7306.5	
833.8	4227	
833.97	3923.9	
834.15	5749.3	
834.32	5469.4	
834.49	4080.2	
834.66	4171	
834.83	5950.7	
835	4827.7	
835.17	3800.3	
835.35	3830.4	
835.52	5638.1	
835.69	5480.4	
835.86	4078.2	
836.03	3274	
836.2	5638.7	
836.37	5268.1	
836.55	3926.6	
836.72	3692.5	
836.89	5287.9	
837.06	5716.6	
837.23	4068.6	
837.4	4461.8	
837.57	6544.6	
837.75	7279.2	
837.92	3566.2	
838.09	3829	
838.26	5190.2	
838.43	6018.3	
838.6	4196.3	
838.77	3731.4	
838.94	6866.2	
839.11	6597.9	
839.29	3946.4	
839.46	3102	
839.63	5657.2	
839.8	5412.8	
839.97	3821.5	
840.14	3846.8	
840.31	5480.4	
840.48	5734.3	
840.65	3158	
840.82	3749.1	
841	5696.1	
841.17	5651.7	
841.34	3555.3	
841.51	3608.5	
841.68	5585.5	
841.85	5418.2	
842.02	3636.5	
842.19	3003.7	
842.36	5444.2	
842.53	5460.6	
842.7	3495.2	
842.87	4375.8	
843.05	7286.7	
843.22	5370.5	
843.39	3307.5	
843.56	3611.9	
843.73	5145.9	
843.9	5787.6	
844.07	5781.4	
844.24	4748.6	
844.41	8472.4	
844.58	4911	
844.75	3398.3	
844.92	3670	
845.09	5670.1	
845.26	5679	
845.43	3509.5	
845.6	3699.3	
845.77	5704.3	
845.94	5418.9	
846.12	3887.7	
846.29	4139.6	
846.46	5893.4	
846.63	5732.9	
846.8	3534.1	
846.97	4174.4	
847.14	6173.9	
847.31	5616.2	
847.48	3891.8	
847.65	4405.2	
847.82	6018.3	
847.99	5980.8	
848.16	4727.4	
848.33	4356.7	
848.5	5236.7	
848.67	6148	
848.84	3492.5	
849.01	3687.7	
849.18	5083.1	
849.35	4745.1	
849.52	4422.9	
849.69	3460.4	
849.86	5855.8	
850.03	6092	
850.2	3554.6	
850.37	4265.9	
850.54	6053.8	
850.71	5350.7	
850.88	4248.9	
851.05	3448.1	
851.22	5591.6	
851.39	6206.7	
851.56	3311.6	
851.73	4008.6	
851.9	5001.1	
852.07	5908.4	
852.24	3850.9	
852.41	3467.2	
852.58	5571.8	
852.75	5085.1	
852.92	3908.2	
853.09	3418.7	
853.26	5298.1	
853.43	6122.1	
853.6	3424.2	
853.77	2992.8	
853.94	6268.1	
854.11	5590.3	
854.28	5256.5	
854.44	3812	
854.61	6640.2	
854.78	5767.8	
854.95	3491.8	
855.12	4422.9	
855.29	4566.3	
855.46	6225.8	
855.63	3457	
855.8	4896	
855.97	5231.9	
856.14	6015.6	
856.31	4970.4	
856.48	3829	
856.65	5214.8	
856.82	4951.3	
856.99	3306.8	
857.16	3835.2	
857.33	7024.5	
857.49	5311.7	
857.66	3765.5	
857.83	4100.7	
858	5274.2	
858.17	5484.5	
858.34	3298.6	
858.51	3512.9	
858.68	6378.7	
858.85	6464.1	
859.02	4115.7	
859.19	4291.9	
859.36	4956.1	
859.52	4999.1	
859.69	3540.9	
859.86	4162.8	
860.03	5059.2	
860.2	6291.4	
860.37	3160.7	
860.54	3557.3	
860.71	5916.6	
860.88	6369.9	
861.05	3944.4	
861.21	4390.2	
861.38	6362.4	
861.55	4861.2	
861.72	3195.5	
861.89	3938.9	
862.06	6040.1	
862.23	6507.8	
862.4	3392.1	
862.56	3653.6	
862.73	5777.3	
862.9	5434.6	
863.07	4117.8	
863.24	3176.4	
863.41	4870.8	
863.58	4973.8	
863.75	3528.7	
863.91	4067.9	
864.08	6322.8	
864.25	5862.7	
864.42	4437.3	
864.59	4950.6	
864.76	6621.1	
864.93	5014.1	
865.09	3459	
865.26	3805.8	
865.43	6206	
865.6	6568.5	
865.77	3037.1	
865.94	3496.6	
866.1	6256.5	
866.27	5997.8	
866.44	5347.9	
866.61	3327.3	
866.78	5407.3	
866.95	5830.6	
867.11	3341.6	
867.28	3097.2	
867.45	6040.8	
867.62	5063.3	
867.79	3995.6	
867.96	3493.8	
868.12	4939.7	
868.29	5935	
868.46	3405.1	
868.63	4719.2	
868.8	6091.3	
868.97	5891.3	
869.13	3674.7	
869.3	3672.7	
869.47	5853.1	
869.64	6011.5	
869.81	3533.4	
869.97	3482.9	
870.14	5664.7	
870.31	6398.5	
870.48	3387.3	
870.65	4442.7	
870.81	5309	
870.98	5295.4	
871.15	4006.5	
871.32	3687.7	
871.48	5809.4	
871.65	6411.5	
871.82	3523.9	
871.99	3831.7	
872.16	6920.8	
872.32	6219	
872.49	3512.3	
872.66	3550.5	
872.83	5846.3	
872.99	5195.7	
873.16	4013.3	
873.33	3418.7	
873.5	5567.7	
873.67	5623	
873.83	3695.9	
874	4702.1	
874.17	5679	
874.34	6795.8	
874.5	4571.7	
874.67	4326.7	
874.84	6297.5	
875.01	4990.9	
875.17	4961.5	
875.34	3462.4	
875.51	5640.8	
875.68	6796.5	
875.84	4220.9	
876.01	5139.7	
876.18	5900.2	
876.34	5818.3	
876.51	3505.4	
876.68	3431.7	
876.85	5376.6	
877.01	6148	
877.18	5012.7	
877.35	3442.6	
877.52	5481.7	
877.68	4925.4	
877.85	3398.3	
878.02	3416.7	
878.18	5510.4	
878.35	5164.3	
878.52	2805.7	
878.69	3943	
878.85	5874.3	
879.02	5853.8	
879.19	4990.2	
879.35	3779.2	
879.52	5836	
879.69	6123.4	
879.86	2997.5	
880.02	3935.5	
880.19	5421.7	
880.36	6594.5	
880.52	4010.6	
880.69	4160.8	
880.86	5943.9	
881.02	6100.2	
881.19	3858.4	
881.36	3775.8	
881.52	5895.4	
881.69	5190.9	
881.86	3743.7	
882.02	3743	
882.19	6171.2	
882.36	7322.9	
882.52	3572.3	
882.69	4933.6	
882.86	5719.3	
883.02	5597.8	
883.19	4279.6	
883.36	4008.6	
883.52	5973.2	
883.69	6913.9	
883.86	3502.7	
884.02	3136.1	
884.19	5887.2	
884.36	5433.9	
884.52	3955.3	
884.69	3676.8	
884.86	5257.8	
885.02	6560.3	
885.19	3904.8	
885.36	4040.6	
885.52	5513.1	
885.69	5691.3	
885.86	5064.6	
886.02	4511.7	
886.19	5952.8	
886.35	5430.5	
886.52	3885.7	
886.69	4985.4	
886.85	5038.7	
887.02	6343.9	
887.19	6343.9	
887.35	6343.9	
887.52	6343.9	
887.68	6343.9	
887.85	6343.9	
888.02	6343.9	
888.18	6343.9	
888.35	6343.9	
888.51	6343.9	
888.68	6343.9	
888.85	6343.9	
889.01	6343.9	
889.18	6343.9	
889.35	6343.9	
889.51	6343.9	
889.68	6343.9	
889.84	6343.9	
890.01	6343.9	
890.17	6343.9	
890.34	6343.9	
890.51	6343.9	
890.67	6343.9	
890.84	6343.9	
891	6343.9	
891.17	6343.9	
891.34	6343.9	
891.5	6343.9	
891.67	6343.9	
891.83	6343.9	
892	6343.9	
892.16	6343.9	
892.33	6343.9	
892.5	6343.9	
892.66	6343.9	
892.83	6343.9	
892.99	6343.9	
893.16	6343.9	
893.32	6343.9	
893.49	6343.9	
893.65	6343.9	
893.82	6343.9	
893.99	6343.9	
894.15	6343.9	
894.32	6343.9	
894.48	6343.9	
894.65	6343.9	
894.81	6343.9	
894.98	6343.9	
895.14	6343.9	
895.31	6343.9	
895.47	6343.9	
895.64	6343.9	
895.81	6343.9	
895.97	6343.9	
896.14	6343.9	
896.3	6343.9	
896.47	6343.9	
896.63	6343.9	
896.8	6343.9	
896.96	6343.9	
897.13	6343.9	
897.29	6343.9	
897.46	6343.9	
897.62	6343.9	
897.79	6343.9	
897.95	6343.9	
898.12	6343.9	
898.28	6343.9	
898.45	6343.9	
898.61	6343.9	
898.78	6343.9	
898.94	6343.9	
899.11	6343.9	
899.27	6343.9	
899.44	6343.9	
899.6	6343.9	
899.77	6343.9	
899.93	6343.9	
900.1	6343.9	
900.26	6343.9	
900.43	6343.9	
900.59	6343.9	
900.76	6343.9	
900.92	6343.9	
901.09	6343.9	
901.25	6343.9	
901.42	6343.9	
901.58	6343.9	
901.75	6343.9	
901.91	6343.9	
902.07	6343.9	
902.24	6343.9	
902.4	6343.9	
902.57	6343.9	
902.73	6343.9	
902.9	6343.9	
903.06	6343.9	
903.23	6343.9	
903.39	6343.9	
903.56	6343.9	
903.72	6343.9	
903.88	6343.9	
904.05	6343.9	
904.21	6343.9	
904.38	6343.9	
904.54	6343.9	
904.71	6343.9	
904.87	6343.9	
905.03	6343.9	
905.2	6343.9	
905.36	6343.9	
905.53	6343.9	
905.69	6343.9	
905.86	6343.9	
906.02	6343.9	
906.18	6343.9	
906.35	6343.9	
906.51	6343.9	
906.68	6343.9	
906.84	6343.9	
907.01	6343.9	
907.17	6343.9	
907.33	6343.9	
907.5	6343.9	
907.66	6343.9	
907.83	6343.9	
907.99	6343.9	
908.15	6343.9	
908.32	6343.9	
908.48	6343.9	
908.65	6343.9	
908.81	6343.9	
908.97	6343.9	
909.14	6343.9	
909.3	6343.9	
909.47	6343.9	
909.63	6343.9	
909.79	6343.9	
909.96	6343.9	
910.12	6343.9	
910.28	6343.9	
910.45	6343.9	
910.61	6343.9	
910.78	6343.9	
910.94	6343.9	
911.1	6343.9	
911.27	6343.9	
911.43	6343.9	
911.59	6343.9	
911.76	6343.9	
911.92	6343.9	
912.08	6343.9	
912.25	6343.9	
912.41	6343.9	
912.57	6343.9	
912.74	6343.9	
912.9	6343.9	
913.07	6343.9	
913.23	6343.9	
913.39	6343.9	
913.56	6343.9	
913.72	6343.9	
913.88	6343.9	
914.05	6343.9	
914.21	6343.9	
914.37	6343.9	
914.54	6343.9	
914.7	6343.9	
914.86	6343.9	
915.03	6343.9	
915.19	6343.9	
