Wavelength	Intensities	
nm	a.u.	
179.22	1659.5	
179.44	1666.4	
179.65	1652.7	
179.86	1680	
180.08	1686.8	
180.29	3732.8	
180.51	2957.3	
180.72	4936.3	
180.94	5474.2	
181.15	2667.1	
181.37	2623.4	
181.58	4685.8	
181.79	4852.3	
182.01	2732	
182.22	2887	
182.44	4945.8	
182.65	4252.9	
182.87	3512.9	
183.08	3157.3	
183.29	5134.9	
183.51	4341	
183.72	2877.4	
183.94	3906.2	
184.15	4627	
184.37	4530.1	
184.58	2585.9	
184.79	3332.7	
185.01	4340.3	
185.22	4898.1	
185.44	3498.6	
185.65	3078.1	
185.86	4660.5	
186.08	4285.7	
186.29	2530.6	
186.51	2713.6	
186.72	4425.7	
186.94	5009.3	
187.15	3082.2	
187.36	3130	
187.58	6150.7	
187.79	4678.2	
188.01	3151.8	
188.22	4788.2	
188.43	5485.8	
188.65	4832.5	
188.86	2739.5	
189.08	3184.6	
189.29	4468.7	
189.5	4410.6	
189.72	2883.5	
189.93	2949.8	
190.15	4986.8	
190.36	5809.4	
190.57	3115	
190.79	3066.5	
191	5024.3	
191.22	5059.8	
191.43	3195.5	
191.64	2761.3	
191.86	5171.8	
192.07	4982.7	
192.29	2821.4	
192.5	2890.4	
192.71	5074.2	
192.93	4471.4	
193.14	2887.6	
193.35	2947	
193.57	4432.5	
193.78	5033.2	
194	2436.4	
194.21	2903.3	
194.42	4309.6	
194.64	4586.8	
194.85	3070.6	
195.07	3640.6	
195.28	4581.3	
195.49	4162.2	
195.71	3705.5	
195.92	2779.1	
196.13	4802.5	
196.35	4819.6	
196.56	3999.7	
196.78	3134.1	
196.99	5705	
197.2	5365	
197.42	3538.2	
197.63	3132	
197.84	4255	
198.06	4812	
198.27	2967.5	
198.48	3707.5	
198.7	4453	
198.91	4654.4	
199.13	3155.2	
199.34	3121.8	
199.55	5008.6	
199.77	4024.3	
199.98	2856.2	
200.19	3211.2	
200.41	4577.2	
200.62	4339	
200.83	3277.4	
201.05	3452.9	
201.26	4615.4	
201.47	4414.7	
201.69	2861.7	
201.9	2791.4	
202.11	4648.2	
202.33	5234.6	
202.54	2983.9	
202.76	3265.8	
202.97	4640	
203.18	4790.2	
203.4	3257	
203.61	3248.1	
203.82	4655	
204.04	4440.7	
204.25	3175.7	
204.46	3101.3	
204.68	4633.2	
204.89	4771.1	
205.1	3086.3	
205.32	2718.3	
205.53	4836.6	
205.74	4990.9	
205.96	2387.2	
206.17	3199.6	
206.38	4831.8	
206.6	4909.7	
206.81	3542.3	
207.02	3005.1	
207.24	4831.2	
207.45	5090.6	
207.66	3098.6	
207.88	2648	
208.09	4753.3	
208.3	4585.4	
208.52	2835.8	
208.73	3120.4	
208.94	4636.6	
209.15	5045.5	
209.37	3022.8	
209.58	3102.7	
209.79	4984.8	
210.01	4475.5	
210.22	2510.8	
210.43	2632.3	
210.65	4616.1	
210.86	4859.1	
211.07	3016.7	
211.29	2771.6	
211.5	4858.5	
211.71	4599.7	
211.93	2837.8	
212.14	2824.8	
212.35	4605.2	
212.56	4625.7	
212.78	3162.7	
212.99	2632.3	
213.2	5269.4	
213.42	4491.2	
213.63	2922.5	
213.84	3052.8	
214.06	4183.3	
214.27	4265.2	
214.48	3055.6	
214.69	3204.4	
214.91	5145.2	
215.12	5126.7	
215.33	3229.6	
215.55	3467.9	
215.76	5448.3	
215.97	4799.1	
216.18	3061	
216.4	3086.3	
216.61	4408.6	
216.82	4974.5	
217.04	2876.7	
217.25	2925.9	
217.46	5011.4	
217.67	4910.3	
217.89	2579.1	
218.1	2684.2	
218.31	4716.5	
218.53	4751.3	
218.74	2981.2	
218.95	2856.9	
219.16	4590.9	
219.38	5274.9	
219.59	2852.1	
219.8	3340.2	
220.01	5662	
220.23	4638	
220.44	3586.7	
220.65	2811.2	
220.87	4717.2	
221.08	5047.6	
221.29	2720.4	
221.5	3437.9	
221.72	5906.3	
221.93	4387.4	
222.14	3176.4	
222.35	3724.6	
222.57	4640.7	
222.78	4961.5	
222.99	3024.2	
223.2	3212.6	
223.42	4853.7	
223.63	4943.1	
223.84	2441.2	
224.05	2437.8	
224.27	5578	
224.48	5253.7	
224.69	3667.2	
224.9	3209.8	
225.12	4743.8	
225.33	4541.7	
225.54	2610.5	
225.75	2847.4	
225.97	4356.7	
226.18	4610.7	
226.39	2958.6	
226.6	2835.8	
226.82	4470.7	
227.03	4317.1	
227.24	3111.5	
227.45	2704	
227.67	4954.7	
227.88	5198.4	
228.09	3486.3	
228.3	3442.6	
228.52	4870.8	
228.73	4548.5	
228.94	2922.5	
229.15	2680.1	
229.36	4597.7	
229.58	4646.2	
229.79	3043.3	
230	3343	
230.21	5393	
230.43	4603.8	
230.64	3145	
230.85	3228.3	
231.06	4993.6	
231.28	4919.9	
231.49	2686.3	
231.7	3046.7	
231.91	4858.5	
232.12	4637.3	
232.34	2789.3	
232.55	3074.7	
232.76	5023	
232.97	4658.4	
233.18	2805	
233.4	3147	
233.61	4737	
233.82	4443.4	
234.03	2966.8	
234.25	2961.4	
234.46	6037.4	
234.67	4622.9	
234.88	3256.3	
235.09	2880.1	
235.31	4759.5	
235.52	4582	
235.73	3084.9	
235.94	2684.9	
236.15	4383.3	
236.37	5360.9	
236.58	2880.1	
236.79	3059.7	
237	4810.7	
237.21	4194.9	
237.43	3200.3	
237.64	2663	
237.85	7434.8	
238.06	4349.9	
238.27	3233.7	
238.48	2723.8	
238.7	4902.8	
238.91	4541	
239.12	2992.8	
239.33	3136.8	
239.54	4338.3	
239.76	4539.7	
239.97	3042.6	
240.18	3010.5	
240.39	5438.7	
240.6	4741.7	
240.82	3181.9	
241.03	2644.6	
241.24	4546.5	
241.45	5208	
241.66	2747.7	
241.87	3289.7	
242.09	5125.4	
242.3	5385.5	
242.51	3290.4	
242.72	3047.4	
242.93	4951.3	
243.14	4561.5	
243.36	3416	
243.57	3670	
243.78	5214.8	
243.99	4805.2	
244.2	3070.6	
244.41	2804.4	
244.63	4322.6	
244.84	4785.4	
245.05	3230.3	
245.26	3025.5	
245.47	4889.2	
245.68	4892.6	
245.9	3879.5	
246.11	3142.9	
246.32	4438.6	
246.53	4820.2	
246.74	4677.6	
246.95	2628.9	
247.16	4347.8	
247.38	4630.5	
247.59	2676.7	
247.8	3050.8	
248.01	4336.9	
248.22	4607.9	
248.43	2781.1	
248.64	2973	
248.86	4206.5	
249.07	4461.8	
249.28	2802.3	
249.49	3069.9	
249.7	4990.9	
249.91	5000.5	
250.12	2647.3	
250.34	2676.7	
250.55	4687.1	
250.76	4630.5	
250.97	3127.9	
251.18	3168.2	
251.39	5040.1	
251.6	4736.3	
251.81	3190.1	
252.03	3135.4	
252.24	4455.7	
252.45	4869.4	
252.66	2714.9	
252.87	3347.1	
253.08	4648.9	
253.29	5689.3	
253.5	2729.3	
253.72	3629.7	
253.93	4556.7	
254.14	5296	
254.35	2900.6	
254.56	3003.7	
254.77	4770.4	
254.98	4328	
255.19	2991.4	
255.41	3605.8	
255.62	4766.3	
255.83	5041.4	
256.04	3231.7	
256.25	3085.6	
256.46	5509	
256.67	4367	
256.88	3146.4	
257.09	3429.7	
257.31	4272.1	
257.52	4411.3	
257.73	3822.9	
257.94	2906.8	
258.15	4583.4	
258.36	4611.3	
258.57	3581.9	
258.78	2405	
258.99	5000.5	
259.2	4515.1	
259.41	2891.7	
259.63	3056.9	
259.84	5186.1	
260.05	5373.9	
260.26	3720.5	
260.47	2865.1	
260.68	5044.1	
260.89	4534.2	
261.1	3438.5	
261.31	2830.3	
261.52	5115.8	
261.73	5256.5	
261.95	3638.6	
262.16	3210.5	
262.37	5074.9	
262.58	5177.9	
262.79	3642	
263	2954.5	
263.21	4635.9	
263.42	4177.9	
263.63	3236.5	
263.84	3009.8	
264.05	5041.4	
264.26	5190.9	
264.47	3484.3	
264.69	3172.3	
264.9	5136.3	
265.11	4765.6	
265.32	2904.7	
265.53	2902	
265.74	4758.8	
265.95	4148.5	
266.16	3140.9	
266.37	3344.3	
266.58	4686.4	
266.79	4492.6	
267	2918.4	
267.21	2721.1	
267.42	4265.2	
267.63	4629.1	
267.84	2981.8	
268.06	2628.2	
268.27	5012.1	
268.48	5104.2	
268.69	2959.3	
268.9	3402.4	
269.11	5113.1	
269.32	4246.8	
269.53	3015.3	
269.74	2874	
269.95	4805.2	
270.16	4199	
270.37	3053.5	
270.58	3459.7	
270.79	4527.4	
271	4971.8	
271.21	3186.6	
271.42	3074.7	
271.63	4821.6	
271.84	4210.6	
272.05	2539.5	
272.26	2752.5	
272.47	4644.8	
272.68	4763.6	
272.89	2979.1	
273.11	3271.3	
273.32	4409.3	
273.53	5187.5	
273.74	3193.5	
273.95	3178.4	
274.16	5000.5	
274.37	4700.8	
274.58	3362.1	
274.79	2755.2	
275	4706.2	
275.21	4986.8	
275.42	3864.5	
275.63	3426.3	
275.84	4835.9	
276.05	5725.4	
276.26	3140.9	
276.47	2998.2	
276.68	4575.2	
276.89	5327.4	
277.1	3355.9	
277.31	2724.5	
277.52	4738.3	
277.73	5010.7	
277.94	2707.4	
278.15	2929.3	
278.36	4807.3	
278.57	4402.5	
278.78	2962	
278.99	3228.3	
279.2	4440.7	
279.41	4388.1	
279.62	3733.4	
279.83	2796.2	
280.04	5457.2	
280.25	4336.9	
280.46	3726.6	
280.67	3057.6	
280.88	4373.8	
281.09	5059.8	
281.3	3187.3	
281.51	3909.6	
281.72	4410.6	
281.93	4924	
282.14	2899.9	
282.35	3087.7	
282.56	5025.7	
282.77	4912.4	
282.98	2987.3	
283.19	3487	
283.4	5839.4	
283.61	4547.2	
283.82	2770.2	
284.03	3670	
284.24	4752.7	
284.45	5049.6	
284.66	3667.9	
284.87	3502	
285.08	5061.2	
285.29	5131.5	
285.5	2706.7	
285.71	2990.7	
285.92	5042.1	
286.12	5486.5	
286.33	3681.6	
286.54	3007.8	
286.75	4929.5	
286.96	4565.6	
287.17	2822.1	
287.38	3515.7	
287.59	4457.7	
287.8	4405.2	
288.01	3009.8	
288.22	3324.5	
288.43	4876.2	
288.64	4210.6	
288.85	3493.2	
289.06	3344.3	
289.27	4966.3	
289.48	5187.5	
289.69	3641.3	
289.9	3357.3	
290.11	5124.7	
290.32	4416.8	
290.53	3480.9	
290.74	3236.5	
290.94	4965	
291.15	4911	
291.36	2899.2	
291.57	3328.6	
291.78	4570.4	
291.99	4162.8	
292.2	2838.5	
292.41	3282.9	
292.62	4986.1	
292.83	4821.6	
293.04	3931.4	
293.25	2803.7	
293.46	4524.6	
293.67	4980	
293.88	2871.3	
294.09	2790.7	
294.29	4340.3	
294.5	4746.5	
294.71	3116.3	
294.92	2969.6	
295.13	4498	
295.34	5418.9	
295.55	2665.8	
295.76	2628.2	
295.97	4870.8	
296.18	5346.6	
296.39	2742.9	
296.6	2877.4	
296.81	4628.4	
297.01	4908.3	
297.22	3024.2	
297.43	2928.6	
297.64	4486.4	
297.85	4367	
298.06	2441.9	
298.27	2637.1	
298.48	4646.8	
298.69	4395.6	
298.9	3133.4	
299.11	2856.2	
299.31	4289.8	
299.52	4336.2	
299.73	3287	
299.94	3219.4	
300.15	4667.3	
300.36	4399.7	
300.57	3186	
300.78	3192.1	
300.99	4525.3	
301.2	4685.1	
301.4	2875.3	
301.61	3054.2	
301.82	4847.5	
302.03	4927.4	
302.24	3404.4	
302.45	2783.2	
302.66	4803.2	
302.87	5063.9	
303.08	2928.6	
303.29	3818.1	
303.49	4455	
303.7	4601.8	
303.91	2629.6	
304.12	3642	
304.33	4217.5	
304.54	4749.2	
304.75	2836.4	
304.96	2776.4	
305.16	4909	
305.37	5338.4	
305.58	2603.7	
305.79	2635.7	
306	4868	
306.21	4179.2	
306.42	2850.1	
306.63	4111.6	
306.83	4481	
307.04	4919.2	
307.25	3127.2	
307.46	3128.6	
307.67	4149.2	
307.88	4823.6	
308.09	2912.2	
308.29	2936.1	
308.5	4670.7	
308.71	4979.3	
308.92	3063.8	
309.13	2770.9	
309.34	4565.6	
309.55	4599.1	
309.75	3510.2	
309.96	3217.4	
310.17	4892.6	
310.38	4377.9	
310.59	3304.1	
310.8	2760.7	
311.01	4532.2	
311.21	4598.4	
311.42	2816.6	
311.63	2842.6	
311.84	4496	
312.05	4646.8	
312.26	3235.1	
312.46	3416	
312.67	4575.2	
312.88	4275.5	
313.09	2772.3	
313.3	2753.2	
313.51	5155.4	
313.71	5416.9	
313.92	2814.6	
314.13	2971.6	
314.34	4789.5	
314.55	4564.9	
314.76	3420.1	
314.96	3035.8	
315.17	4765.6	
315.38	4840.7	
315.59	2854.9	
315.8	2702	
316.01	5127.4	
316.21	5279.7	
316.42	2768.9	
316.63	3110.9	
316.84	4554.7	
317.05	5042.8	
317.26	3310.9	
317.46	2968.9	
317.67	4597	
317.88	4919.9	
318.09	3456.3	
318.3	2670.6	
318.5	4461.2	
318.71	4805.2	
318.92	4295.3	
319.13	3287.7	
319.34	4903.5	
319.54	5065.3	
319.75	2654.2	
319.96	2562.7	
320.17	4848.9	
320.38	5017.5	
320.58	2619.4	
320.79	3043.3	
321	5037.3	
321.21	5175.9	
321.42	3089	
321.62	2639.1	
321.83	4418.2	
322.04	4637.3	
322.25	2978.4	
322.46	2810.5	
322.66	4697.4	
322.87	4902.2	
323.08	3316.3	
323.29	2734	
323.5	5439.4	
323.7	4341.7	
323.91	3675.4	
324.12	3328.6	
324.33	4698	
324.53	4833.2	
324.74	3201.7	
324.95	3315	
325.16	4241.3	
325.37	4515.1	
325.57	2839.8	
325.78	2873.3	
325.99	4689.8	
326.2	4237.9	
326.4	3859.1	
326.61	2641.2	
326.82	4586.8	
327.03	4728.8	
327.24	3803.1	
327.44	3540.3	
327.65	4859.8	
327.86	4029.7	
328.07	3265.1	
328.27	2726.5	
328.48	5119.2	
328.69	4334.2	
328.9	3822.9	
329.1	2936.8	
329.31	4522.6	
329.52	5149.3	
329.73	2849.4	
329.93	3067.9	
330.14	4699.4	
330.35	4749.2	
330.56	4343.7	
330.76	3391.4	
330.97	4557.4	
331.18	4705.5	
331.39	3072	
331.59	2585.9	
331.8	5010	
332.01	5133.6	
332.22	2856.2	
332.42	3175	
332.63	4721.9	
332.84	4355.3	
333.05	3112.9	
333.25	2834.4	
333.46	4425	
333.67	4686.4	
333.88	2935.4	
334.08	3127.2	
334.29	5835.3	
334.5	5066	
334.7	2771.6	
334.91	3783.3	
335.12	4283.7	
335.33	4911.7	
335.53	3076.7	
335.74	4313.7	
335.95	4539	
336.16	4365.6	
336.36	3060.3	
336.57	3485.6	
336.78	4323.9	
336.98	5003.9	
337.19	3697.9	
337.4	2964.8	
337.61	5457.2	
337.81	4280.9	
338.02	2901.3	
338.23	3517	
338.43	5177.3	
338.64	4373.8	
338.85	2850.8	
339.05	3625.6	
339.26	5206.6	
339.47	4253.6	
339.68	2845.3	
339.88	3913.7	
340.09	4866	
340.3	4922.6	
340.5	3203.7	
340.71	2594.1	
340.92	4347.8	
341.13	5072.1	
341.33	2708.1	
341.54	3212.6	
341.75	4775.2	
341.95	4474.1	
342.16	3093.1	
342.37	3323.2	
342.57	4272.7	
342.78	4560.8	
342.99	3393.5	
343.19	2633.7	
343.4	4877.6	
343.61	4794.3	
343.81	3015.3	
344.02	2724.5	
344.23	4912.4	
344.43	5117.9	
344.64	3453.6	
344.85	3366.2	
345.06	4831.2	
345.26	5008.6	
345.47	3208.5	
345.68	3687.7	
345.88	4212.7	
346.09	4892.6	
346.3	3265.8	
346.5	2543.6	
346.71	4573.1	
346.92	4411.3	
347.12	2709.5	
347.33	3127.2	
347.54	4987.5	
347.74	5255.8	
347.95	3161.4	
348.16	2506.7	
348.36	4511.7	
348.57	4330.8	
348.78	3241.3	
348.98	3343	
349.19	4595	
349.39	4158.7	
349.6	2669.9	
349.81	2841.9	
350.01	4874.8	
350.22	4382	
350.43	3136.8	
350.63	3664.5	
350.84	4668	
351.05	4407.9	
351.25	2833	
351.46	2679.4	
351.67	4986.8	
351.87	4336.9	
352.08	3001.6	
352.29	3362.1	
352.49	4886.5	
352.7	4694.6	
352.9	2747.7	
353.11	3308.2	
353.32	5385.5	
353.52	4524	
353.73	2808.4	
353.94	3401.7	
354.14	4863.2	
354.35	4630.5	
354.55	2852.1	
354.76	3134.1	
354.97	4767.7	
355.17	4566.3	
355.38	2733.4	
355.59	3579.8	
355.79	4403.1	
356	4586.8	
356.2	3074	
356.41	2764.8	
356.62	4209.3	
356.82	4513	
357.03	3302.7	
357.24	2979.1	
357.44	4365.6	
357.65	4470.7	
357.85	3858.4	
358.06	3084.2	
358.27	4132.8	
358.47	4293.9	
358.68	2711.5	
358.88	3317	
359.09	4728.1	
359.3	5029.1	
359.5	3753.9	
359.71	3373	
359.91	5276.9	
360.12	4769.7	
360.33	3265.8	
360.53	3612.6	
360.74	4426.3	
360.94	4403.8	
361.15	3429	
361.36	2880.1	
361.56	4986.8	
361.77	4606.6	
361.97	3715	
362.18	2997.5	
362.38	5023.7	
362.59	4304.8	
362.8	2842.6	
363	2786.6	
363.21	4182	
363.41	4672.1	
363.62	3168.2	
363.83	3849.5	
364.03	4815.5	
364.24	5255.8	
364.44	4000.4	
364.65	3980.6	
364.85	4531.5	
365.06	4304.8	
365.27	2955.2	
365.47	3033	
365.68	5269.4	
365.88	4485.7	
366.09	3198.9	
366.29	3028.9	
366.5	4642.7	
366.71	4925.4	
366.91	3845.4	
367.12	3378.5	
367.32	5451	
367.53	4835.3	
367.73	3346.4	
367.94	4017.4	
368.14	4895.3	
368.35	5378	
368.56	3359.4	
368.76	2872.6	
368.97	5015.5	
369.17	6033.3	
369.38	2949.8	
369.58	3186.6	
369.79	4239.3	
369.99	5214.8	
370.2	3919.1	
370.4	3173	
370.61	4687.8	
370.82	5638.7	
371.02	3191.4	
371.23	2712.2	
371.43	4211.3	
371.64	5214.8	
371.84	3235.1	
372.05	3938.2	
372.25	5963.7	
372.46	4877.6	
372.66	3201	
372.87	3158.7	
373.07	4975.9	
373.28	6066.8	
373.48	3856.3	
373.69	3711.6	
373.9	4616.8	
374.1	4629.8	
374.31	3826.3	
374.51	3433.1	
374.72	5185.5	
374.92	4425	
375.13	3903.4	
375.33	3362.1	
375.54	4888.5	
375.74	4520.5	
375.95	3431	
376.15	4313.7	
376.36	4953.4	
376.56	4794.3	
376.77	3463.8	
376.97	3745.1	
377.18	5694	
377.38	4925.4	
377.59	3911.6	
377.79	3133.4	
378	4830.5	
378.2	5032.5	
378.41	3226.9	
378.61	3099.3	
378.82	5178.6	
379.02	4514.4	
379.23	3311.6	
379.43	4039.3	
379.64	5309	
379.84	4965.6	
380.05	3202.3	
380.25	3067.2	
380.46	5059.8	
380.66	4731.5	
380.87	4114.4	
381.07	4310.3	
381.28	5430.5	
381.48	4996.4	
381.69	3155.9	
381.89	3287	
382.1	4330.8	
382.3	5059.8	
382.51	3966.2	
382.71	4528.1	
382.91	4949.9	
383.12	5366.4	
383.32	3408.5	
383.53	3556	
383.73	4939	
383.94	4834.6	
384.14	3605.1	
384.35	2952.5	
384.55	4658.4	
384.76	4998.4	
384.96	3472	
385.17	3635.8	
385.37	5033.9	
385.58	4483.7	
385.78	3654.3	
385.98	2891.7	
386.19	4663.2	
386.39	4940.4	
386.6	3245.3	
386.8	3410.6	
387.01	5003.9	
387.21	5012.1	
387.42	3721.8	
387.62	4116.4	
387.83	4635.9	
388.03	4866	
388.23	3523.9	
388.44	4047.5	
388.64	4362.9	
388.85	4388.8	
389.05	3751.2	
389.26	4106.9	
389.46	5860.6	
389.67	5339.7	
389.87	3758	
390.07	3751.9	
390.28	4801.1	
390.48	4459.8	
390.69	3201.7	
390.89	3395.5	
391.1	4645.5	
391.3	5223.7	
391.5	4290.5	
391.71	4661.2	
391.91	5154.7	
392.12	5653.8	
392.32	4333.5	
392.53	3732.8	
392.73	4787.5	
392.93	4810.7	
393.14	3620.1	
393.34	4191.5	
393.55	5080.3	
393.75	4773.8	
393.95	3534.1	
394.16	3487	
394.36	4673.5	
394.57	5129.5	
394.77	3201.7	
394.98	3420.1	
395.18	4601.1	
395.38	4736.3	
395.59	4091.2	
395.79	3339.6	
396	4803.2	
396.2	5072.8	
396.4	3939.6	
396.61	3903.4	
396.81	5186.8	
397.02	4637.3	
397.22	4103.4	
397.42	4103.4	
397.63	5246.9	
397.83	4642.1	
398.04	3311.6	
398.24	3667.2	
398.44	5074.2	
398.65	4334.9	
398.85	3195.5	
399.05	3259.7	
399.26	4735.6	
399.46	5838.8	
399.67	3618.1	
399.87	3358	
400.07	4949.3	
400.28	5115.8	
400.48	3439.9	
400.69	4183.3	
400.89	5287.9	
401.09	5691.3	
401.3	3413.3	
401.5	4182.6	
401.7	5768.4	
401.91	5965.1	
402.11	3693.2	
402.32	3810.6	
402.52	5390.9	
402.72	5241.4	
402.93	3999	
403.13	3133.4	
403.33	5939.1	
403.54	4979.3	
403.74	3761.4	
403.94	4305.5	
404.15	5018.9	
404.35	5864	
404.56	3578.5	
404.76	4779.3	
404.96	5327.4	
405.17	5100.8	
405.37	4401.8	
405.57	3941	
405.78	5356.1	
405.98	4964.3	
406.18	3560.1	
406.39	4245.4	
406.59	5361.6	
406.79	5027.8	
407	3476.8	
407.2	3520.5	
407.4	5584.8	
407.61	5472.2	
407.81	3500	
408.01	4969.1	
408.22	4587.4	
408.42	5963	
408.62	4311	
408.83	3934.8	
409.03	5074.9	
409.23	5018.2	
409.44	4035.9	
409.64	4189.5	
409.84	5778.7	
410.05	5738.4	
410.25	4160.1	
410.45	4036.5	
410.66	5437.4	
410.86	7127.6	
411.06	4375.1	
411.27	4240.7	
411.47	7047.7	
411.67	5565.7	
411.88	4392.9	
412.08	4524.6	
412.28	5920	
412.49	6385.6	
412.69	4232.5	
412.89	4327.4	
413.09	6267.5	
413.3	6161	
413.5	4422.9	
413.7	4162.8	
413.91	5689.9	
414.11	6255.2	
414.31	4229.7	
414.52	4549.9	
414.72	6063.4	
414.92	5935	
415.12	4316.4	
415.33	4709	
415.53	6235.4	
415.73	6343.2	
415.94	4892.6	
416.14	4461.2	
416.34	5590.3	
416.55	5382.1	
416.75	5308.3	
416.95	4881	
417.15	6367.1	
417.36	6735.8	
417.56	5545.2	
417.76	4817.5	
417.97	6494.8	
418.17	6291.4	
418.37	4609.3	
418.57	4625	
418.78	6277.7	
418.98	5973.2	
419.18	5184.1	
419.38	5134.3	
419.59	5896.8	
419.79	5711.8	
419.99	4552	
420.2	4685.8	
420.4	6346.7	
420.6	6384.9	
420.8	4408.6	
421.01	4401.8	
421.21	6247.7	
421.41	6255.2	
421.61	4762.9	
421.82	4506.9	
422.02	5971.9	
422.22	6563.1	
422.42	4995.7	
422.63	4881.7	
422.83	5906.3	
423.03	6877.8	
423.23	4801.1	
423.44	4171.7	
423.64	5946.6	
423.84	5689.9	
424.04	4491.9	
424.25	4199	
424.45	6589.7	
424.65	6579.4	
424.85	4074.1	
425.06	4503.5	
425.26	6708.5	
425.46	5888.6	
425.66	4816.8	
425.87	4605.9	
426.07	6485.2	
426.27	6293.4	
426.47	4694.6	
426.67	4244.8	
426.88	6692.1	
427.08	6279.8	
427.28	4897.4	
427.48	4211.3	
427.69	5558.9	
427.89	5960.3	
428.09	4783.4	
428.29	4163.5	
428.5	6401.3	
428.7	6114.6	
428.9	4210.6	
429.1	4517.1	
429.3	6124.1	
429.51	6297.5	
429.71	4431.1	
429.91	4972.5	
430.11	6351.4	
430.31	6527.6	
430.52	4709	
430.72	4833.9	
430.92	6712.6	
431.12	6370.5	
431.32	4388.1	
431.53	4652.3	
431.73	5610.1	
431.93	6726.9	
432.13	4388.1	
432.33	4283.7	
432.54	6019	
432.74	6130.9	
432.94	4271.4	
433.14	4965	
433.34	6440.2	
433.55	6112.5	
433.75	4960.2	
433.95	6156.2	
434.15	6346.7	
434.35	5946.6	
434.56	4362.2	
434.76	4155.3	
434.96	6220.4	
435.16	6455.2	
435.36	4380.6	
435.56	5147.2	
435.77	6017.6	
435.97	6147.3	
436.17	5592.3	
436.37	5074.9	
436.57	5963.7	
436.78	5946.6	
436.98	5078.3	
437.18	5551.4	
437.38	6421.7	
437.58	6094.8	
437.78	5643.5	
437.99	4642.7	
438.19	6514.6	
438.39	7077.1	
438.59	4663.2	
438.79	4235.2	
438.99	6858.6	
439.2	6066.1	
439.4	4247.5	
439.6	4304.8	
439.8	6255.2	
440	7047.7	
440.2	5132.2	
440.4	5095.3	
440.61	6647.7	
440.81	6999.3	
441.01	4551.3	
441.21	5217.5	
441.41	7057.3	
441.61	6691.4	
441.81	5472.9	
442.02	6100.9	
442.22	7309.9	
442.42	6838.2	
442.62	4683.7	
442.82	4710.3	
443.02	7005.4	
443.22	6417	
443.43	4971.1	
443.63	4607.9	
443.83	6257.2	
444.03	6284.5	
444.23	5519.3	
444.43	5264	
444.63	6548	
444.83	7281.9	
445.04	4940.4	
445.24	5713.2	
445.44	6770.6	
445.64	6927.6	
445.84	5303.6	
446.04	5322	
446.24	6326.9	
446.44	7030	
446.65	4757.4	
446.85	5010	
447.05	6451.1	
447.25	7025.9	
447.45	5099.4	
447.65	4579.3	
447.85	6594.5	
448.05	6210.1	
448.25	5386.8	
448.46	5195	
448.66	6584.9	
448.86	6292	
449.06	4625.7	
449.26	5399.8	
449.46	6774.7	
449.66	6093.4	
449.86	5066	
450.06	5048.2	
450.26	6303.6	
450.47	6741.2	
450.67	5216.9	
450.87	5464	
451.07	6906.4	
451.27	6595.8	
451.47	4790.9	
451.67	5408	
451.87	6468.2	
452.07	7124.2	
452.27	4969.1	
452.47	4928.1	
452.67	6642.9	
452.88	6952.9	
453.08	4502.8	
453.28	5920	
453.48	7466.9	
453.68	6487.3	
453.88	4911	
454.08	5030.5	
454.28	6925.5	
454.48	6645.7	
454.68	5395	
454.88	5719.3	
455.08	7023.9	
455.28	6783.6	
455.48	4799.1	
455.68	5350	
455.89	7380.9	
456.09	7069.6	
456.29	5105.6	
456.49	5242.1	
456.69	7302.4	
456.89	6646.3	
457.09	5483.1	
457.29	5789.6	
457.49	6961.7	
457.69	7122.2	
457.89	5529.5	
458.09	5018.2	
458.29	6869.6	
458.49	7400.7	
458.69	5773.2	
458.89	5359.5	
459.09	7625.3	
459.29	7613	
459.49	5367	
459.69	6004.6	
459.9	7223.9	
460.1	6948.8	
460.3	5405.3	
460.5	5175.2	
460.7	7379.5	
460.9	6882.5	
461.1	4973.8	
461.3	5924.1	
461.5	7757.7	
461.7	7455.3	
461.9	5320.6	
462.1	5727.5	
462.3	7191.1	
462.5	7542	
462.7	5418.9	
462.9	5504.3	
463.1	8222.6	
463.3	8056.7	
463.5	5705.6	
463.7	6369.9	
463.9	7425.9	
464.1	7653.3	
464.3	5870.2	
464.5	5982.8	
464.7	7934.5	
464.9	7595.9	
465.1	6858.6	
465.3	6138.4	
465.5	8131.1	
465.7	8114.7	
465.9	6505.7	
466.1	6181.5	
466.3	7960.5	
466.5	7924.3	
466.7	6980.8	
466.9	6164.4	
467.1	7922.2	
467.3	8480.6	
467.5	6959.7	
467.7	6158.2	
467.9	8693.6	
468.1	9254.8	
468.3	6690.7	
468.5	6994.5	
468.7	7861.5	
468.9	7795.3	
469.1	6407.4	
469.3	6862.1	
469.5	9297.8	
469.7	7716.1	
469.9	6744.6	
470.1	6326.2	
470.3	8064.2	
470.5	7941.3	
470.7	7138.5	
470.9	6411.5	
471.1	7830.1	
471.3	8054	
471.5	6247.7	
471.69	7516.7	
471.89	7761.1	
472.09	7368.6	
472.29	6734.4	
472.49	6904.4	
472.69	7541.3	
472.89	8037.6	
473.09	6164.4	
473.29	6287.9	
473.49	7708.6	
473.69	7705.8	
473.89	6840.2	
474.09	6412.9	
474.29	8566.7	
474.49	8253.3	
474.69	6791.1	
474.89	6333.7	
475.09	7658.7	
475.29	7656	
475.49	6017.6	
475.69	6081.1	
475.88	8768.7	
476.08	8172.1	
476.28	5991.7	
476.48	6180.8	
476.68	8305.2	
476.88	8123.6	
477.08	6157.6	
477.28	6342.6	
477.48	7789.8	
477.68	8115.4	
477.88	5917.9	
478.08	6257.9	
478.28	8396.7	
478.48	7889.5	
478.67	6333	
478.87	5830.6	
479.07	8346.8	
479.27	8038.3	
479.47	6438.8	
479.67	6440.9	
479.87	8266.3	
480.07	8536.6	
480.27	5965.7	
480.47	7019.8	
480.67	7896.3	
480.87	8483.4	
481.06	6186.2	
481.26	6763.8	
481.46	8038.3	
481.66	7884.7	
481.86	6498.2	
482.06	7212.3	
482.26	7823.2	
482.46	8376.9	
482.66	6417.7	
482.86	6068.8	
483.05	8072.4	
483.25	7623.2	
483.45	8139.3	
483.65	6430.6	
483.85	7752.2	
484.05	7942.7	
484.25	6713.9	
484.45	7146.7	
484.65	8471.1	
484.84	8656.1	
485.04	6434.7	
485.24	6402.6	
485.44	8765.3	
485.64	7705.1	
485.84	6021	
486.04	6961.7	
486.24	7940	
486.44	8193.9	
486.63	5967.1	
486.83	6570.6	
487.03	7922.2	
487.23	8033.5	
487.43	6044.9	
487.63	7727	
487.83	8116.8	
488.02	8621.3	
488.22	6698.9	
488.42	7273	
488.62	8722.3	
488.82	7894.2	
489.02	6636.8	
489.22	6569.9	
489.41	8621.3	
489.61	8411.7	
489.81	6438.8	
490.01	6364.4	
490.21	8603.5	
490.41	9101.9	
490.61	6481.1	
490.8	6481.1	
491	8306.6	
491.2	7832.8	
491.4	6898.2	
491.6	6335.7	
491.8	8274.5	
491.99	8280.6	
492.19	6194.4	
492.39	6343.2	
492.59	8488.1	
492.79	8718.2	
492.99	6930.3	
493.18	6356.9	
493.38	8799.4	
493.58	9210.4	
493.78	6901.7	
493.98	6673.6	
494.18	8549.6	
494.37	8191.2	
494.57	7197.9	
494.77	7169.3	
494.97	8830.2	
495.17	8938	
495.37	6973.3	
495.56	7178.1	
495.76	9253.4	
495.96	8994.7	
496.16	7811.6	
496.36	7115.3	
496.55	9151.7	
496.75	8705.2	
496.95	7312.6	
497.15	7345.4	
497.35	9189.9	
497.54	9077.3	
497.74	7165.2	
497.94	8459.5	
498.14	9596.1	
498.34	9402.2	
498.53	6935.8	
498.73	7477.1	
498.93	8727.8	
499.13	9153.7	
499.33	7479.2	
499.52	7793.9	
499.72	9303.9	
499.92	9260.9	
500.12	7348.8	
500.32	7445	
500.51	9292.3	
500.71	9245.9	
500.91	7933.1	
501.11	7731.1	
501.31	9286.2	
501.5	9624.1	
501.7	8221.2	
501.9	7477.1	
502.1	9144.2	
502.29	9402.2	
502.49	7748.8	
502.69	8057.4	
502.89	9345.6	
503.09	9317.6	
503.28	7115.3	
503.48	7182.2	
503.68	8827.4	
503.88	8761.2	
504.07	7716.1	
504.27	7454.6	
504.47	9051.3	
504.67	9108.7	
504.86	7822.6	
505.06	7488.7	
505.26	8836.3	
505.46	9957.9	
505.65	7390.4	
505.85	7627.3	
506.05	8804.9	
506.25	9125.7	
506.44	6918	
506.64	7475.8	
506.84	8612.4	
507.04	9125.1	
507.23	7132.4	
507.43	7471.7	
507.63	9856.2	
507.83	8721.6	
508.02	7420.5	
508.22	7191.8	
508.42	10123	
508.62	8583.7	
508.81	7359.7	
509.01	7668.3	
509.21	8532.5	
509.4	8688.8	
509.6	7451.2	
509.8	7042.3	
510	8684.8	
510.19	9647.3	
510.39	6896.9	
510.59	7133.1	
510.79	8707.3	
510.98	9556.5	
511.18	7228	
511.38	7244.3	
511.57	9300.5	
511.77	8985.8	
511.97	7720.8	
512.17	7009.5	
512.36	9149.6	
512.56	8985.8	
512.76	6965.8	
512.95	6849.8	
513.15	9375.6	
513.35	8318.8	
513.55	7619.8	
513.74	7010.2	
513.94	9196.1	
514.14	8722.3	
514.33	7765.9	
514.53	7477.8	
514.73	8770.1	
514.92	8908	
515.12	7173.4	
515.32	7102.4	
515.51	8975.6	
515.71	9226.1	
515.91	8301.8	
516.11	7068.2	
516.3	10228	
516.5	8774.9	
516.7	7572	
516.89	7933.1	
517.09	8843.1	
517.29	8759.2	
517.48	7828	
517.68	7387.7	
517.88	8540.7	
518.07	9079.3	
518.27	7664.9	
518.47	7037.5	
518.66	9370.8	
518.86	8573.5	
519.06	6942.6	
519.25	7277.1	
519.45	8728.4	
519.65	9738.8	
519.84	7712.7	
520.04	8159.8	
520.24	10079	
520.43	9213.8	
520.63	7492.8	
520.83	7398.6	
521.02	8779	
521.22	9127.8	
521.42	7645.8	
521.61	7958.4	
521.81	8798.8	
522.01	8964	
522.2	7537.2	
522.4	7344	
522.6	9271.8	
522.79	8424.7	
522.99	7422.5	
523.18	6984.3	
523.38	9168.1	
523.58	9133.3	
523.77	8312.7	
523.97	7032	
524.17	10385	
524.36	10045	
524.56	8159.1	
524.76	7768.6	
524.95	9204.3	
525.15	9045.2	
525.34	7716.7	
525.54	7797.3	
525.74	9691.7	
525.93	8949.6	
526.13	8676.6	
526.33	7922.9	
526.52	9941.5	
526.72	9514.9	
526.91	8751.7	
527.11	8123.6	
527.31	9891	
527.5	10235	
527.7	8202.1	
527.89	7563.8	
528.09	9297.8	
528.29	9729.2	
528.48	8441	
528.68	8139.3	
528.87	9891.7	
529.07	9914.2	
529.27	8129.1	
529.46	7899.7	
529.66	9748.3	
529.85	10074	
530.05	7770	
530.25	8328.4	
530.44	10616	
530.64	9601.6	
530.83	8092.9	
531.03	8172.8	
531.23	9994.8	
531.42	9856.2	
531.62	8692.9	
531.81	8122.2	
532.01	10168	
532.21	10290	
532.4	8155	
532.6	8365.3	
532.79	10781	
532.99	10314	
533.18	8548.2	
533.38	9216.5	
533.58	10068	
533.77	10383	
533.97	8536.6	
534.16	8987.9	
534.36	10707	
534.55	10030	
534.75	9179	
534.95	8535.9	
535.14	10718	
535.34	9939.5	
535.53	8286.1	
535.73	9566.1	
535.92	11046	
536.12	10125	
536.31	8377.6	
536.51	9280.7	
536.71	10335	
536.9	10076	
537.1	8404.9	
537.29	8600.1	
537.49	10651	
537.68	9858.9	
537.88	8883.4	
538.07	8325	
538.27	10176	
538.46	10876	
538.66	8115.4	
538.86	8519.5	
539.05	10297	
539.25	10432	
539.44	8833.6	
539.64	8428.8	
539.83	10118	
540.03	10783	
540.22	8346.2	
540.42	8420.6	
540.61	10330	
540.81	10301	
541	8692.3	
541.2	9141.4	
541.39	9872.6	
541.59	10064	
541.78	9038.4	
541.98	8402.8	
542.18	9714.9	
542.37	9628.2	
542.57	8620.6	
542.76	8994.7	
542.96	9731.9	
543.15	10109	
543.35	8545.5	
543.54	8107.2	
543.74	10138	
543.93	9852.8	
544.13	8424.7	
544.32	9163.3	
544.52	10084	
544.71	9583.1	
544.91	7780.2	
545.1	8499.8	
545.3	9676.7	
545.49	10100	
545.69	7739.3	
545.88	8168.7	
546.08	10640	
546.27	10382	
546.47	8578.9	
546.66	8038.3	
546.86	10248	
547.05	10521	
547.24	8096.3	
547.44	8076.5	
547.63	9540.1	
547.83	10202	
548.02	8359.1	
548.22	8484.1	
548.41	9359.2	
548.61	10265	
548.8	8003.5	
549	7930.4	
549.19	9896.5	
549.39	9980.4	
549.58	7722.9	
549.78	8125.7	
549.97	10056	
550.17	9600.2	
550.36	8731.2	
550.55	9317.6	
550.75	9591.3	
550.94	10275	
551.14	7897.7	
551.33	8005.5	
551.53	9110.7	
551.72	9838.4	
551.92	8146.8	
552.11	7955.7	
552.31	9892.4	
552.5	9786.6	
552.69	9050	
552.89	7714	
553.08	9742.9	
553.28	9548.3	
553.47	7925	
553.67	8687.5	
553.86	10192	
554.06	9000.1	
554.25	7450.5	
554.44	7842.4	
554.64	10646	
554.83	10456	
555.03	7705.8	
555.22	7948.2	
555.42	9917.6	
555.61	9686.9	
555.8	7861.5	
556	7965.2	
556.19	9215.9	
556.39	9824.1	
556.58	7805.5	
556.78	7773.4	
556.97	9526.5	
557.16	9313.5	
557.36	8733.2	
557.55	7632.1	
557.75	8931.9	
557.94	10165	
558.13	7743.4	
558.33	7496.2	
558.52	10054	
558.72	9177.6	
558.91	7612.3	
559.1	7761.8	
559.3	8903.9	
559.49	8831.5	
559.69	7299.6	
559.88	7922.2	
560.07	9508	
560.27	9869.2	
560.46	8116.1	
560.66	8123.6	
560.85	9432.3	
561.04	8758.5	
561.24	7542	
561.43	7632.1	
561.63	8985.1	
561.82	9234.3	
562.01	8426	
562.21	7848.5	
562.4	9440.5	
562.59	10038	
562.79	7795.3	
562.98	7608.9	
563.18	9460.3	
563.37	10372	
563.56	8021.2	
563.76	7620.5	
563.95	9121	
564.14	9135.3	
564.34	7897.7	
564.53	7603.4	
564.73	9579	
564.92	9596.8	
565.11	8055.3	
565.31	7481.2	
565.5	10031	
565.69	9056.1	
565.89	7791.2	
566.08	7925	
566.27	9819.3	
566.47	10135	
566.66	8327	
566.85	7460.1	
567.05	9593.4	
567.24	9250.7	
567.44	7597.3	
567.63	8639	
567.82	9725.1	
568.02	9438.4	
568.21	7735.9	
568.4	7869	
568.6	9499.8	
568.79	9360.6	
568.98	7690.8	
569.18	7696.9	
569.37	9445.9	
569.56	10843	
569.76	8007.6	
569.95	8602.2	
570.14	9767.4	
570.34	9609.8	
570.53	7637.6	
570.72	7515.4	
570.91	10137	
571.11	9501.2	
571.3	7914	
571.49	8574.8	
571.69	9606.3	
571.88	9153.1	
572.07	8331.1	
572.27	8219.2	
572.46	9121	
572.65	9878	
572.85	7754.3	
573.04	8116.8	
573.23	10080	
573.43	9572.2	
573.62	7703.1	
573.81	8078.6	
574	9590.6	
574.2	9394	
574.39	7920.2	
574.58	8064.2	
574.78	10239	
574.97	9758.6	
575.16	8292.9	
575.36	8452.6	
575.55	10057	
575.74	10103	
575.93	7685.3	
576.13	8541.4	
576.32	9594.1	
576.51	9972.2	
576.71	8132.5	
576.9	8989.9	
577.09	10314	
577.28	9902.6	
577.48	8399.4	
577.67	7813	
577.86	9630.9	
578.05	9914.9	
578.25	8181	
578.44	8171.4	
578.63	9782.5	
578.83	10636	
579.02	7837.6	
579.21	8898.4	
579.4	9943.6	
579.6	9691	
579.79	8304.5	
579.98	9781.8	
580.17	10133	
580.37	10320	
580.56	7916.8	
580.75	8461.5	
580.94	10385	
581.14	10432	
581.33	8754.4	
581.52	8080.6	
581.71	10006	
581.91	10581	
582.1	7931.8	
582.29	8287.4	
582.48	9804.3	
582.68	9769.5	
582.87	8602.8	
583.06	8289.5	
583.25	10256	
583.45	9594.1	
583.64	8906.6	
583.83	9264.3	
584.02	9948.3	
584.21	10066	
584.41	8741.4	
584.6	8333.2	
584.79	9840.5	
584.98	10362	
585.18	7914	
585.37	8002.1	
585.56	9669.1	
585.75	10133	
585.94	8207.6	
586.14	8501.1	
586.33	10529	
586.52	9806.4	
586.71	8470.4	
586.91	8236.2	
587.1	9349.7	
587.29	10160	
587.48	8104.5	
587.67	8079.9	
587.87	10007	
588.06	10006	
588.25	8961.2	
588.44	8355.7	
588.63	9633	
588.83	10185	
589.02	8064.2	
589.21	7886	
589.4	9521	
589.59	9536.7	
589.78	7351.5	
589.98	7477.8	
590.17	8953.7	
590.36	9331.9	
590.55	6992.4	
590.74	7491.5	
590.94	10064	
591.13	9075.9	
591.32	7296.2	
591.51	6928.3	
591.7	9251.4	
591.89	8986.5	
592.09	7031.4	
592.28	7397.9	
592.47	8510	
592.66	9919.7	
592.85	7092.8	
593.05	7299.6	
593.24	9078	
593.43	9635	
593.62	7365.2	
593.81	7594.6	
594	9071.8	
594.19	9237	
594.39	7376.1	
594.58	7282.6	
594.77	9308.7	
594.96	9621.4	
595.15	7319.4	
595.34	7621.2	
595.54	9198.8	
595.73	8713.4	
595.92	6664.8	
596.11	7560.4	
596.3	9482.8	
596.49	8675.9	
596.68	7284.6	
596.88	7645.1	
597.07	9296.4	
597.26	8530.5	
597.45	7028.6	
597.64	7778.2	
597.83	8837.7	
598.02	9103.9	
598.22	7053.2	
598.41	7507.9	
598.6	9006.3	
598.79	8573.5	
598.98	7141.9	
599.17	7634.1	
599.36	9068.4	
599.55	9763.3	
599.74	8357.8	
599.94	8264.9	
600.13	9284.1	
600.32	8675.9	
600.51	6879.8	
600.7	6991.1	
600.89	9810.5	
601.08	9897.8	
601.27	6858	
601.47	7494.2	
601.66	9396.1	
601.85	9669.8	
602.04	7359.7	
602.23	7378.1	
602.42	8690.9	
602.61	9063.6	
602.8	7131.7	
602.99	7013.6	
603.18	8877.3	
603.37	9073.2	
603.57	7431.4	
603.76	7840.3	
603.95	9463.7	
604.14	9159.2	
604.33	7162.4	
604.52	7271	
604.71	9022.7	
604.9	8686.1	
605.09	7794.6	
605.28	7559.7	
605.47	9585.2	
605.66	9073.9	
605.86	7537.9	
606.05	7120.8	
606.24	9432.9	
606.43	8370	
606.62	7339.2	
606.81	7735.2	
607	9279.3	
607.19	8785.8	
607.38	6917.4	
607.57	7021.1	
607.76	8677.9	
607.95	8221.9	
608.14	7403.4	
608.33	7782.3	
608.52	8659.5	
608.72	9200.8	
608.91	6828.6	
609.1	6793.1	
609.29	8677.9	
609.48	8339.3	
609.67	7416.4	
609.86	6861.4	
610.05	8355.7	
610.24	8586.5	
610.43	6749.4	
610.62	6440.9	
610.81	9330.5	
611	9225.4	
611.19	6753.5	
611.38	7291.5	
611.57	8925	
611.76	9653.4	
611.95	6691.4	
612.14	6445	
612.33	8612.4	
612.52	8280.6	
612.71	6934.4	
612.9	6440.9	
613.09	8101.8	
613.28	9745.6	
613.47	6887.3	
613.66	7447.1	
613.85	8739.4	
614.04	8299.7	
614.24	6916.7	
614.43	6422.4	
614.62	8927.8	
614.81	8763.9	
615	7185.6	
615.19	7221.1	
615.38	8314.8	
615.57	8570.1	
615.76	7111.2	
615.95	7900.4	
616.14	8905.3	
616.33	8568	
616.52	7452.6	
616.71	7447.8	
616.9	8898.4	
617.09	8703.9	
617.28	7031.4	
617.47	7681.9	
617.66	8234.9	
617.85	8211	
618.04	7602.1	
618.22	7236.2	
618.41	8534.6	
618.6	9182.4	
618.79	7204.1	
618.98	7072.3	
619.17	9471.2	
619.36	8177.5	
619.55	7192.5	
619.74	7120.1	
619.93	8940.7	
620.12	8570.7	
620.31	7496.9	
620.5	7675.1	
620.69	9216.5	
620.88	9605	
621.07	8157.7	
621.26	7501.7	
621.45	8954.4	
621.64	9072.5	
621.83	7649.2	
622.02	7033.4	
622.21	9097.1	
622.4	9058.8	
622.59	8054.7	
622.78	7883.3	
622.97	8728.4	
623.16	9384.5	
623.35	7684.7	
623.54	7022.5	
623.72	8791.9	
623.91	8886.1	
624.1	7830.1	
624.29	7017	
624.48	9673.9	
624.67	9277.3	
624.86	7671	
625.05	7090.8	
625.24	9836.4	
625.43	8660.2	
625.62	8825.4	
625.81	7244.3	
626	9449.3	
626.19	8889.5	
626.38	7720.2	
626.56	7321.5	
626.75	8682.7	
626.94	9256.8	
627.13	7715.4	
627.32	6939.9	
627.51	9315.5	
627.7	10056	
627.89	6966.5	
628.08	7774.8	
628.27	8621.9	
628.46	8807.6	
628.65	7205.4	
628.83	6825.2	
629.02	9123.7	
629.21	8512.7	
629.4	7421.2	
629.59	7555.6	
629.78	8703.2	
629.97	9246.6	
630.16	7649.8	
630.35	7238.9	
630.54	9657.5	
630.72	9358.5	
630.91	7293.5	
631.1	7542	
631.29	9032.2	
631.48	9067.7	
631.67	7672.4	
631.86	7241.6	
632.05	8806.9	
632.24	8819.9	
632.42	6996.5	
632.61	7516.7	
632.8	8805.6	
632.99	8583.7	
633.18	7602.1	
633.37	7686	
633.56	9057.5	
633.75	8962.6	
633.93	7577.5	
634.12	7283.9	
634.31	9620.7	
634.5	9313.5	
634.69	7317.4	
634.88	7591.8	
635.07	8811.7	
635.25	9371.5	
635.44	7929.7	
635.63	8060.8	
635.82	8801.5	
636.01	8200.1	
636.2	7738.6	
636.39	7520.8	
636.57	9557.9	
636.76	9142.8	
636.95	7158.3	
637.14	8075.8	
637.33	9089.6	
637.52	9639.8	
637.7	6972.7	
637.89	7679.2	
638.08	8807.6	
638.27	9711.5	
638.46	7696.9	
638.65	7899.7	
638.83	9732.6	
639.02	8652.7	
639.21	7574.1	
639.4	7893.6	
639.59	8810.4	
639.78	8672.5	
639.96	7060	
640.15	7109.2	
640.34	8805.6	
640.53	8826.1	
640.72	6982.9	
640.91	7047.7	
641.09	8361.2	
641.28	9255.5	
641.47	7021.8	
641.66	7589.8	
641.85	8767.4	
642.03	8964	
642.22	7428.7	
642.41	7047.7	
642.6	8417.8	
642.79	7951.6	
642.97	6930.3	
643.16	7379.5	
643.35	8353.7	
643.54	8097	
643.73	6809.5	
643.91	7338.6	
644.1	8086.7	
644.29	8593.3	
644.48	6834.8	
644.67	6867.5	
644.85	8108.6	
645.04	8495.7	
645.23	6617	
645.42	6754.9	
645.6	8062.9	
645.79	8853.4	
645.98	6700.3	
646.17	5973.2	
646.36	7810.3	
646.54	8105.9	
646.73	7118.7	
646.92	6422.4	
647.11	7884	
647.29	8590.5	
647.48	6452.5	
647.67	6188.3	
647.86	8723	
648.05	8710.7	
648.23	6551.5	
648.42	7453.9	
648.61	8376.2	
648.8	8161.2	
648.98	6310.5	
649.17	6542.6	
649.36	7795.9	
649.55	7437.5	
649.73	6356.2	
649.92	6836.1	
650.11	7800.7	
650.3	8000.7	
650.48	6439.5	
650.67	6217.6	
650.86	8179.6	
651.05	7482.6	
651.23	6354.2	
651.42	6246.3	
651.61	7830.1	
651.79	7734.5	
651.98	6432.7	
652.17	6120.7	
652.36	8122.2	
652.54	7383.6	
652.73	6278.4	
652.92	6069.5	
653.11	8016.4	
653.29	8124.3	
653.48	5797.8	
653.67	6447.7	
653.85	7866.2	
654.04	8623.3	
654.23	6438.8	
654.42	6193.7	
654.6	7501.7	
654.79	7922.2	
654.98	5722	
655.16	6153.5	
655.35	7150.1	
655.54	6999.3	
655.73	5763	
655.91	5646.9	
656.1	7729	
656.29	6935.1	
656.47	5414.1	
656.66	6574.7	
656.85	7296.9	
657.03	7291.5	
657.22	5804.6	
657.41	5933.6	
657.59	7368.6	
657.78	7194.5	
657.97	5696.8	
658.16	6178	
658.34	7798.7	
658.53	8102.4	
658.72	6858.6	
658.9	7116	
659.09	7582.3	
659.28	7595.9	
659.46	6026.5	
659.65	5922	
659.84	7325.6	
660.02	7850.5	
660.21	5957.5	
660.4	5871.5	
660.58	7977.5	
660.77	7533.1	
660.96	6292.7	
661.14	5669.5	
661.33	8386.4	
661.52	8260.1	
661.7	5593.7	
661.89	8036.9	
662.08	7296.2	
662.26	6932.4	
662.45	5871.5	
662.64	5926.8	
662.82	7765.9	
663.01	7151.5	
663.2	5857.2	
663.38	6316.6	
663.57	7701	
663.75	7572.7	
663.94	6081.8	
664.13	6823.1	
664.31	7244.3	
664.5	7667.6	
664.69	6309.8	
664.87	6552.1	
665.06	7057.3	
665.25	7570.7	
665.43	6775.4	
665.62	6788.3	
665.8	7742.7	
665.99	7326.9	
666.18	6073.6	
666.36	6106.4	
666.55	7749.5	
666.74	7630.7	
666.92	5818.3	
667.11	6865.5	
667.29	7352.2	
667.48	7752.2	
667.67	6483.2	
667.85	5889.3	
668.04	7286	
668.22	7225.2	
668.41	6081.1	
668.6	6219.7	
668.78	7166.5	
668.97	7302.4	
669.15	6257.2	
669.34	5630.5	
669.53	7230.7	
669.71	7437.5	
669.9	5717.2	
670.08	6134.3	
670.27	7154.9	
670.46	7564.5	
670.64	6276.3	
670.83	6508.4	
671.01	7009.5	
671.2	7439.6	
671.38	5797.1	
671.57	5664.7	
671.76	7916.1	
671.94	8254.7	
672.13	5666	
672.31	6356.9	
672.5	7627.3	
672.69	7137.2	
672.87	5760.9	
673.06	6017.6	
673.24	7549.5	
673.43	7169.3	
673.61	6255.9	
673.8	5900.2	
673.98	7561.1	
674.17	7648.5	
674.36	6396.5	
674.54	6204	
674.73	7349.5	
674.91	7685.3	
675.1	5981.4	
675.28	5797.1	
675.47	7284.6	
675.65	7769.3	
675.84	5964.4	
676.03	6153.5	
676.21	7099.6	
676.4	6821.1	
676.58	6397.9	
676.77	6280.4	
676.95	8126.3	
677.14	7171.3	
677.32	5667.4	
677.51	5561.6	
677.69	7677.2	
677.88	6922.1	
678.06	5649.7	
678.25	5758.9	
678.44	7295.5	
678.62	7061.4	
678.81	5547.3	
678.99	6205.3	
679.18	7864.2	
679.36	7520.8	
679.55	5888.6	
679.73	6229.9	
679.92	7501.7	
680.1	7146	
680.29	6730.3	
680.47	5805.3	
680.66	7097.6	
680.84	7651.9	
681.03	5463.3	
681.21	6165.1	
681.4	7061.4	
681.58	7063.4	
681.77	5678.3	
681.95	5709.7	
682.14	7718.1	
682.32	7904.5	
682.51	6320	
682.69	5483.8	
682.88	6993.1	
683.06	7374.7	
683.25	6071.5	
683.43	6377.4	
683.62	7294.2	
683.8	7527	
683.99	6548.7	
684.17	6017.6	
684.36	8008.2	
684.54	7157	
684.73	5464	
684.91	5444.2	
685.1	7280.5	
685.28	6806.8	
685.46	5775.3	
685.65	5823.7	
685.83	7267.6	
686.02	6787.7	
686.2	5391.6	
686.39	5464	
686.57	6608.1	
686.76	7689.4	
686.94	5475.6	
687.13	5597.1	
687.31	7152.9	
687.5	6907.1	
687.68	5183.4	
687.86	5976	
688.05	8127	
688.23	6524.1	
688.42	5999.9	
688.6	5465.3	
688.79	6814.3	
688.97	6920.1	
689.16	5774.6	
689.34	5108.3	
689.52	7329.7	
689.71	7565.2	
689.89	5988.3	
690.08	5532.2	
690.26	7130.3	
690.45	6978.8	
690.63	6098.2	
690.81	5672.9	
691	6977.4	
691.18	6872.3	
691.37	5788.9	
691.55	7245	
691.74	6859.3	
691.92	8216.5	
692.1	5668.1	
692.29	5345.9	
692.47	6914.6	
692.66	6464.8	
692.84	5501.5	
693.02	5786.2	
693.21	6482.5	
693.39	6918.7	
693.58	5879	
693.76	5485.8	
693.94	7783	
694.13	7614.3	
694.31	5645.6	
694.5	6327.5	
694.68	6827.9	
694.86	7202	
695.05	5887.9	
695.23	5880.4	
695.42	7346.1	
695.6	8882.7	
695.78	6309.8	
695.97	5670.8	
696.15	7452.6	
696.34	7018.4	
696.52	5619.6	
696.7	6133	
696.89	7236.8	
697.07	6787	
697.25	5984.2	
697.44	6948.1	
697.62	7246.4	
697.81	7370	
697.99	5743.9	
698.17	6094.1	
698.36	6761.7	
698.54	7214.3	
698.72	5926.8	
698.91	5311.7	
699.09	6899.6	
699.28	6747.4	
699.46	5825.1	
699.64	5697.4	
699.83	6703	
700.01	7431.4	
700.19	6217	
700.38	5091.3	
700.56	7490.1	
700.74	6836.8	
700.93	5380	
701.11	5901.6	
701.29	7162.4	
701.48	7942	
701.66	5610.8	
701.84	5646.9	
702.03	6980.8	
702.21	7410.2	
702.39	5309.7	
702.58	5783.5	
702.76	7378.8	
702.94	7246.4	
703.13	5272.2	
703.31	6959.7	
703.49	6879.8	
703.68	7806.9	
703.86	5422.3	
704.04	6079.7	
704.23	7133.1	
704.41	7417.1	
704.59	5608	
704.78	6371.2	
704.96	8301.8	
705.14	7307.2	
705.33	5441.5	
705.51	5937.7	
705.69	7023.2	
705.87	7568.6	
706.06	6081.8	
706.24	5357.5	
706.42	7187	
706.61	7420.5	
706.79	6286.6	
706.97	5365.7	
707.16	6812.2	
707.34	7155.6	
707.52	6006	
707.7	5540.4	
707.89	6862.7	
708.07	6740.5	
708.25	6098.2	
708.44	6253.1	
708.62	6766.5	
708.8	7623.9	
708.98	6328.2	
709.17	5563	
709.35	7026.6	
709.53	7144	
709.72	5295.4	
709.9	5421	
710.08	7347.4	
710.26	7276.4	
710.45	6377.4	
710.63	5561.6	
710.81	7012.9	
710.99	7049.8	
711.18	5961.6	
711.36	5564.3	
711.54	6847	
711.72	7379.5	
711.91	5625.1	
712.09	5268.1	
712.27	6957.6	
712.45	7359.7	
712.64	5737	
712.82	5082.4	
713	6587.6	
713.18	6720.8	
713.37	5125.4	
713.55	5907	
713.73	7215.7	
713.91	6319.3	
714.1	5351.3	
714.28	4889.9	
714.46	6855.2	
714.64	6305	
714.83	4503.5	
715.01	4859.1	
715.19	6229.9	
715.37	5760.9	
715.55	4711.7	
715.74	4875.5	
715.92	6681.2	
716.1	5371.1	
716.28	5631.9	
716.47	4847.5	
716.65	5859.9	
716.83	5941.2	
717.01	4789.5	
717.19	4755.4	
717.38	7307.2	
717.56	5575.9	
717.74	4951.3	
717.92	4315.1	
718.1	6522.8	
718.29	6019.7	
718.47	4153.3	
718.65	4581.3	
718.83	6608.8	
719.01	6543.3	
719.2	4162.8	
719.38	4873.5	
719.56	6281.1	
719.74	7400	
719.92	4723.3	
720.11	5339.7	
720.29	6404.7	
720.47	5778.7	
720.65	4389.5	
720.83	4925.4	
721.02	5982.8	
721.2	5842.2	
721.38	4878.9	
721.56	4309.6	
721.74	5471.5	
721.92	5457.8	
722.11	5110.4	
722.29	4986.8	
722.47	6292	
722.65	5786.2	
722.83	4263.9	
723.01	4919.2	
723.2	5826.5	
723.38	6011.5	
723.56	3913	
723.74	4762.2	
723.92	5463.3	
724.1	6208.8	
724.29	4246.1	
724.47	5096.7	
724.65	5580.7	
724.83	5483.1	
725.01	4199	
725.19	4687.8	
725.37	5482.4	
725.56	5425.1	
725.74	4049.5	
725.92	4207.9	
726.1	5492	
726.28	5668.8	
726.46	4470.7	
726.64	4330.1	
726.83	5698.8	
727.01	5741.1	
727.19	4115.7	
727.37	4575.2	
727.55	5773.9	
727.73	6076.3	
727.91	3995.6	
728.09	3951.2	
728.28	6155.5	
728.46	6236.7	
728.64	4615.4	
728.82	4616.1	
729	6825.9	
729.18	6319.3	
729.36	4110.3	
729.54	5672.9	
729.72	7023.2	
729.91	5822.4	
730.09	5464	
730.27	4603.8	
730.45	5804.6	
730.63	6197.8	
730.81	5020.3	
730.99	4392.9	
731.17	6708.5	
731.35	5660.6	
731.53	4671.4	
731.71	4478.9	
731.9	6449.7	
732.08	6501.6	
732.26	4674.8	
732.44	4443.4	
732.62	6555.5	
732.8	6178.7	
732.98	4900.1	
733.16	4255	
733.34	6185.5	
733.52	5313.1	
733.7	4552.6	
733.88	4777.9	
734.07	6065.4	
734.25	5905.7	
734.43	4232.5	
734.61	5245.5	
734.79	6909.2	
734.97	5775.3	
735.15	4279.6	
735.33	4538.3	
735.51	6034	
735.69	5792.3	
735.87	5271.5	
736.05	4675.5	
736.23	5967.1	
736.41	5647.6	
736.59	4599.7	
736.77	4543.1	
736.95	6236.1	
737.13	5689.3	
737.32	4289.1	
737.5	4443.4	
737.68	6583.5	
737.86	5683.8	
738.04	4128	
738.22	5401.2	
738.4	5637.4	
738.58	5799.8	
738.76	4540.3	
738.94	3877.5	
739.12	5694	
739.3	5595.7	
739.48	4876.9	
739.66	4788.8	
739.84	5846.3	
740.02	5794.4	
740.2	3900.7	
740.38	4119.8	
740.56	6146	
740.74	5214.8	
740.92	4605.9	
741.1	4485.1	
741.28	5682.4	
741.46	5495.4	
741.64	4229.1	
741.82	4586.8	
742	5667.4	
742.18	5628.5	
742.36	4337.6	
742.54	4168.3	
742.72	6111.8	
742.9	5154.7	
743.08	4599.1	
743.26	3763.5	
743.44	6069.5	
743.62	6100.9	
743.8	4739	
743.98	4076.8	
744.16	5847	
744.34	5601.9	
744.52	4602.5	
744.7	4681	
744.88	5942.5	
745.06	5538.4	
745.24	4626.4	
745.42	4708.3	
745.6	6001.9	
745.78	5840.1	
745.96	3814.7	
746.14	4026.3	
746.32	6450.4	
746.5	5876.3	
746.68	4395.6	
746.86	3966.9	
747.03	6178	
747.21	5031.9	
747.39	4389.5	
747.57	3981.9	
747.75	5639.4	
747.93	5920	
748.11	3943	
748.29	3915	
748.47	6748.1	
748.65	5401.9	
748.83	4479.6	
749.01	4266.6	
749.19	5758.2	
749.37	5141.1	
749.55	4227.7	
749.73	4268.6	
749.91	5586.9	
750.09	5418.2	
750.26	4228.4	
750.44	3838.6	
750.62	5572.5	
750.8	5504.9	
750.98	3756	
751.16	4013.3	
751.34	5639.4	
751.52	5051	
751.7	4547.2	
751.88	3722.5	
752.06	5896.1	
752.24	5700.2	
752.42	3689.8	
752.59	4002.4	
752.77	5537	
752.95	6329.6	
753.13	4416.8	
753.31	4093.2	
753.49	5238	
753.67	5484.5	
753.85	4211.3	
754.03	3870.7	
754.21	5801.2	
754.38	5988.9	
754.56	3984	
754.74	3362.8	
754.92	5155.4	
755.1	5575.9	
755.28	3322.5	
755.46	3347.1	
755.64	6164.4	
755.82	6159.6	
755.99	3476.8	
756.17	3518.4	
756.35	4371.7	
756.53	5371.8	
756.71	2674.6	
756.89	3416.7	
757.07	5118.6	
757.25	4502.1	
757.42	3723.2	
757.6	4319.8	
757.78	5227.1	
757.96	4530.1	
758.14	3596.2	
758.32	3203.7	
758.5	4191.5	
758.67	4786.8	
758.85	3457.7	
759.03	3485.6	
759.21	4981.3	
759.39	4529.4	
759.57	3112.2	
759.75	3914.4	
759.92	5393	
760.1	4975.9	
760.28	4158.7	
760.46	4332.8	
760.64	4730.8	
760.82	4614.8	
760.99	4020.2	
761.17	3512.9	
761.35	5272.8	
761.53	4515.8	
761.71	3641.3	
761.89	3994.9	
762.06	5239.4	
762.24	4926	
762.42	3690.4	
762.6	3493.2	
762.78	4842.1	
762.96	5391.6	
763.13	3942.3	
763.31	3695.2	
763.49	5386.2	
763.67	4835.9	
763.85	4315.8	
764.02	4632.5	
764.2	5737.7	
764.38	4986.1	
764.56	3648.8	
764.74	4254.3	
764.91	5670.8	
765.09	4866	
765.27	3438.5	
765.45	3249.4	
765.63	5800.5	
765.8	5591	
765.98	3087.7	
766.16	3312.2	
766.34	4663.2	
766.52	4431.8	
766.69	3964.2	
766.87	3198.9	
767.05	4902.8	
767.23	5466.7	
767.41	3474.7	
767.58	3574.4	
767.76	5338.4	
767.94	5346.6	
768.12	3485	
768.29	3988.8	
768.47	4833.9	
768.65	5426.4	
768.83	3216	
769	3923.9	
769.18	4602.5	
769.36	5142.4	
769.54	3986.7	
769.72	3218	
769.89	5373.2	
770.07	5378.6	
770.25	3429	
770.43	4347.8	
770.6	5926.8	
770.78	6083.8	
770.96	3570.3	
771.14	4016.7	
771.31	5313.1	
771.49	4831.2	
771.67	3050.8	
771.85	3183.2	
772.02	4316.4	
772.2	4739.7	
772.38	3693.9	
772.55	3297.2	
772.73	5033.2	
772.91	4807.3	
773.09	3555.3	
773.26	3713.6	
773.44	4969.1	
773.62	4702.1	
773.8	3273.3	
773.97	3043.3	
774.15	5017.5	
774.33	4742.4	
774.5	3127.9	
774.68	3399.6	
774.86	5137.7	
775.04	4750.6	
775.21	3201	
775.39	3209.8	
775.57	4964.3	
775.74	5139	
775.92	3083.6	
776.1	2989.4	
776.27	4856.4	
776.45	5745.2	
776.63	3179.8	
776.81	2864.4	
776.98	4668.7	
777.16	5421.7	
777.34	3302.7	
777.51	3534.1	
777.69	4669.4	
777.87	4484.4	
778.04	3391.4	
778.22	3754.6	
778.4	4532.2	
778.57	4962.2	
778.75	2826.2	
778.93	3024.2	
779.1	4370.4	
779.28	4336.9	
779.46	2825.5	
779.64	3129.3	
779.81	5121.3	
779.99	5657.9	
780.17	3722.5	
780.34	3781.2	
780.52	4752.7	
780.69	4779.3	
780.87	3433.1	
781.05	3063.8	
781.22	4779.3	
781.4	4736.3	
781.58	3158.7	
781.75	2596.8	
781.93	4817.5	
782.11	4251.6	
782.28	3807.2	
782.46	3158.7	
782.64	4179.2	
782.81	4867.3	
782.99	3230.3	
783.17	3189.4	
783.34	4809.3	
783.52	4326	
783.69	3321.1	
783.87	3929.4	
784.05	4351.3	
784.22	4311.7	
784.4	3953.3	
784.58	3477.5	
784.75	5059.8	
784.93	4390.2	
785.1	3177.8	
785.28	3613.3	
785.46	4835.3	
785.63	4300.1	
785.81	3167.5	
785.99	3016.7	
786.16	4503.5	
786.34	4706.2	
786.51	3063.8	
786.69	3424.2	
786.87	4123.9	
787.04	4524.6	
787.22	3009.1	
787.39	3634.5	
787.57	4354	
787.75	5143.8	
787.92	3813.3	
788.1	3665.2	
788.27	4284.4	
788.45	4110.3	
788.63	3532.1	
788.8	2651.4	
788.98	4672.8	
789.15	4012	
789.33	2717.7	
789.5	3158	
789.68	4987.5	
789.86	5107	
790.03	3524.6	
790.21	3073.3	
790.38	5013.4	
790.56	4484.4	
790.73	3032.4	
790.91	3010.5	
791.09	4355.3	
791.26	4818.2	
791.44	3227.6	
791.61	2806.4	
791.79	4363.5	
791.96	4368.3	
792.14	2882.9	
792.32	2562	
792.49	4331.5	
792.67	4491.2	
792.84	2979.1	
793.02	2800.3	
793.19	4707.6	
793.37	5136.3	
793.54	2613.2	
793.72	2807.8	
793.89	5192.3	
794.07	4302.1	
794.25	3297.2	
794.42	2567.5	
794.6	5085.8	
794.77	4798.4	
794.95	3466.5	
795.12	3022.1	
795.3	4312.3	
795.47	4775.2	
795.65	3299.3	
795.82	3181.2	
796	4222.2	
796.17	5492	
796.35	3149.1	
796.52	3615.3	
796.7	4731.5	
796.87	4787.5	
797.05	3098.6	
797.22	3709.6	
797.4	4766.3	
797.57	5421	
797.75	3268.6	
797.92	3041.9	
798.1	4977.2	
798.27	4236.6	
798.45	2660.3	
798.62	2818	
798.8	4596.3	
798.97	4898.7	
799.15	3323.9	
799.32	3185.3	
799.5	4057	
799.67	4548.5	
799.85	3475.4	
800.02	2633.7	
800.2	4298	
800.37	4476.9	
800.55	3532.7	
800.72	3048.1	
800.9	4822.3	
801.07	5167	
801.25	3981.3	
801.42	3281.5	
801.6	4969.1	
801.77	4577.9	
801.95	3095.8	
802.12	2985.9	
802.29	4658.4	
802.47	4594.3	
802.64	3278.8	
802.82	2583.2	
802.99	4316.4	
803.17	4947.9	
803.34	3235.1	
803.52	2911.5	
803.69	5412.1	
803.87	4102.8	
804.04	3185.3	
804.21	3235.1	
804.39	5086.5	
804.56	4442.7	
804.74	2757.9	
804.91	3217.4	
805.09	4311	
805.26	4334.9	
805.44	2850.8	
805.61	3054.2	
805.78	4801.1	
805.96	4807.3	
806.13	3317.7	
806.31	3503.4	
806.48	4023.6	
806.66	4360.1	
806.83	3337.5	
807	3198.9	
807.18	4347.2	
807.35	4573.1	
807.53	3003	
807.7	2676.7	
807.87	5092.6	
808.05	4370.4	
808.22	3461.7	
808.4	2670.6	
808.57	4332.1	
808.74	4086.4	
808.92	2978.4	
809.09	3632.4	
809.27	4322.6	
809.44	4648.2	
809.61	2673.3	
809.79	2927.9	
809.96	5209.3	
810.14	4891.2	
810.31	2658.3	
810.48	3181.2	
810.66	4374.5	
810.83	4878.9	
811.01	2962	
811.18	3202.3	
811.35	4885.1	
811.53	3892.5	
811.7	3588.7	
811.87	3300.6	
812.05	4403.1	
812.22	4307.6	
812.39	2907.4	
812.57	2820.1	
812.74	4403.8	
812.92	5500.2	
813.09	3154.6	
813.26	3274	
813.44	5306.3	
813.61	4221.5	
813.78	2605	
813.96	3396.2	
814.13	4394.3	
814.3	4201.1	
814.48	3688.4	
814.65	3106.8	
814.82	5074.9	
815	4098.7	
815.17	3152.5	
815.34	3761.4	
815.52	4336.2	
815.69	4274.8	
815.87	3123.8	
816.04	3054.2	
816.21	4340.3	
816.38	3966.2	
816.56	3087.7	
816.73	2912.2	
816.9	5337	
817.08	4829.1	
817.25	2965.5	
817.42	3535.5	
817.6	4036.5	
817.77	4315.8	
817.94	3272	
818.12	2865.8	
818.29	4165.6	
818.46	5890.6	
818.64	3037.8	
818.81	2803	
818.98	4190.8	
819.16	5630.5	
819.33	3431.7	
819.5	3164.8	
819.67	4563.6	
819.85	5039.4	
820.02	3117	
820.19	3261	
820.37	4528.1	
820.54	4217.5	
820.71	3233.7	
820.88	3871.3	
821.06	4515.8	
821.23	4152.6	
821.4	3223.5	
821.58	3237.2	
821.75	4795.7	
821.92	4488.5	
822.09	2648	
822.27	2753.2	
822.44	4381.3	
822.61	4295.3	
822.79	2677.4	
822.96	4855.1	
823.13	4572.4	
823.3	4105.5	
823.48	3027.6	
823.65	2720.4	
823.82	4856.4	
823.99	4032.5	
824.17	3793.5	
824.34	2779.1	
824.51	5550.7	
824.68	4362.9	
824.86	2936.1	
825.03	3246	
825.2	4360.1	
825.37	5056.4	
825.55	2957.9	
825.72	3129.3	
825.89	5412.1	
826.06	5107	
826.24	3077.4	
826.41	3110.9	
826.58	5130.8	
826.75	4562.9	
826.92	2626.9	
827.1	2729.9	
827.27	6645	
827.44	5437.4	
827.61	2988.7	
827.79	3525.2	
827.96	4186.7	
828.13	4345.1	
828.3	3111.5	
828.47	2616.6	
828.65	4612.7	
828.82	4583.4	
828.99	3818.8	
829.16	3375.7	
829.34	4792.2	
829.51	4726.7	
829.68	3168.9	
829.85	3211.2	
830.02	5200.5	
830.2	4797	
830.37	2505.3	
830.54	3661.1	
830.71	5315.2	
830.88	4361.5	
831.05	2496.5	
831.23	2877.4	
831.4	5232.6	
831.57	5600.5	
831.74	3003.7	
831.91	2639.1	
832.09	4633.2	
832.26	4831.2	
832.43	2990	
832.6	3398.3	
832.77	4614.8	
832.94	5154.7	
833.12	2531.3	
833.29	2983.2	
833.46	4652.3	
833.63	5751.4	
833.8	3289.7	
833.97	3022.8	
834.15	4885.8	
834.32	4745.1	
834.49	3144.3	
834.66	3213.3	
834.83	4892.6	
835	4166.9	
835.17	2970.2	
835.35	2957.3	
835.52	4820.2	
835.69	4640	
835.86	3087	
836.03	2587.9	
836.2	4848.2	
836.37	4539.7	
836.55	2960	
836.72	2852.1	
836.89	4551.3	
837.06	4885.1	
837.23	3115.6	
837.4	3287	
837.57	5425.1	
837.75	5786.2	
837.92	2788	
838.09	2949.1	
838.26	4586.8	
838.43	4954.7	
838.6	3132	
838.77	2859.6	
838.94	5550.7	
839.11	5433.3	
839.29	3053.5	
839.46	2388.6	
839.63	4894.6	
839.8	4601.1	
839.97	2991.4	
840.14	2873.3	
840.31	4708.3	
840.48	4853.7	
840.65	2519.7	
840.82	2897.9	
841	4869.4	
841.17	4716.5	
841.34	2706	
841.51	2823.5	
841.68	4781.3	
841.85	4595.6	
842.02	2851.5	
842.19	2387.2	
842.36	4696	
842.53	4683.7	
842.7	2803.7	
842.87	3269.2	
843.05	5799.8	
843.22	4608.6	
843.39	2624.8	
843.56	2819.4	
843.73	4522.6	
843.9	4949.9	
844.07	4195.6	
844.24	3498.6	
844.41	6423.1	
844.58	4270	
844.75	2650.1	
844.92	2852.8	
845.09	4762.9	
845.26	4831.2	
845.43	2686.9	
845.6	2867.8	
845.77	4816.8	
845.94	4630.5	
846.12	2991.4	
846.29	3173	
846.46	5052.3	
846.63	4718.5	
846.8	2712.2	
846.97	3170.9	
847.14	5107.6	
847.31	4775.9	
847.48	2992.8	
847.65	3315	
847.82	4973.8	
847.99	4924	
848.16	3568.9	
848.33	3274	
848.5	4467.3	
848.67	5122	
848.84	2668.5	
849.01	2835.8	
849.18	4405.9	
849.35	4194.9	
849.52	3327.9	
849.69	2657.6	
849.86	5030.5	
850.03	5039.4	
850.2	2708.1	
850.37	3190.1	
850.54	5050.3	
850.71	4541	
850.88	3201	
851.05	2722.4	
851.22	4689.2	
851.39	5149.3	
851.56	2542.9	
851.73	3103.4	
851.9	4306.9	
852.07	5005.2	
852.24	2953.9	
852.41	2674	
852.58	4709	
852.75	4382	
852.92	3003	
853.09	2627.5	
853.26	4445.5	
853.43	5104.9	
853.6	2667.1	
853.77	2359.9	
853.94	5118.6	
854.11	4255	
854.28	3861.8	
854.44	2953.9	
854.61	5459.9	
854.78	5040.7	
854.95	2659.6	
855.12	3280.8	
855.29	3955.3	
855.46	5327.4	
855.63	2719.7	
855.8	3592.1	
855.97	4422.2	
856.14	5115.1	
856.31	3728.7	
856.48	2882.9	
856.65	4502.1	
856.82	4255	
856.99	2612.5	
857.16	2908.8	
857.33	5625.1	
857.49	4538.3	
857.66	2881.5	
857.83	3050.8	
858	4583.4	
858.17	4707.6	
858.34	2592.7	
858.51	2768.9	
858.68	5224.4	
858.85	5212.1	
859.02	3138.2	
859.19	3298.6	
859.36	4356	
859.52	4311	
859.69	2742.9	
859.86	3189.4	
860.03	4320.5	
860.2	5148.6	
860.37	2523.1	
860.54	2770.9	
860.71	4930.1	
860.88	5253.7	
861.05	3010.5	
861.21	3353.2	
861.38	5208	
861.55	4194.9	
861.72	2497.8	
861.89	2971.6	
862.06	4967	
862.23	5380.7	
862.4	2623.4	
862.56	2809.1	
862.73	4881	
862.9	4603.2	
863.07	3078.1	
863.24	2503.3	
863.41	4255.7	
863.58	4349.2	
863.75	2791.4	
863.91	3099.9	
864.08	5066	
864.25	4891.9	
864.42	3308.2	
864.59	3679.5	
864.76	5392.3	
864.93	4272.1	
865.09	2652.1	
865.26	2895.1	
865.43	5092.6	
865.6	5414.8	
865.77	2462.3	
865.94	2699.2	
866.1	5064.6	
866.27	4829.8	
866.44	3886.4	
866.61	2627.5	
866.78	4586.1	
866.95	4887.1	
867.11	2654.2	
867.28	2430.3	
867.45	5097.4	
867.62	4296	
867.79	3150.5	
867.96	2683.5	
868.12	4217.5	
868.29	4944.5	
868.46	2676.7	
868.63	3517.7	
868.8	5031.2	
868.97	4826.4	
869.13	2837.8	
869.3	2813.9	
869.47	4784.1	
869.64	4975.9	
869.81	2720.4	
869.97	2736.1	
870.14	4728.1	
870.31	5219.6	
870.48	2660.3	
870.65	3257	
870.81	4581.3	
870.98	4552	
871.15	3071.3	
871.32	2841.2	
871.48	4825	
871.65	5284.4	
871.82	2663.7	
871.99	2962.7	
872.16	5558.2	
872.32	5137.7	
872.49	2749.7	
872.66	2758.6	
872.83	4953.4	
872.99	4429.8	
873.16	3072	
873.33	2689.7	
873.5	4650.9	
873.67	4699.4	
873.83	2867.2	
874	3505.4	
874.17	4801.1	
874.34	5383.4	
874.5	3425.6	
874.67	3288.4	
874.84	5214.8	
875.01	4156.7	
875.17	3635.8	
875.34	2740.9	
875.51	4761.5	
875.68	5577.3	
875.84	3206.4	
876.01	3813.3	
876.18	4942.4	
876.34	4847.5	
876.51	2699.2	
876.68	2661	
876.85	4593.6	
877.01	5113.8	
877.18	3728.7	
877.35	2661.7	
877.52	4693.3	
877.68	4268	
877.85	2695.1	
878.02	2663.7	
878.18	4502.1	
878.35	4470	
878.52	2237.1	
878.69	3135.4	
878.85	4990.9	
879.02	4908.3	
879.19	3719.1	
879.35	2874	
879.52	4944.5	
879.69	4978.6	
879.86	2446	
880.02	2960.7	
880.19	4653	
880.36	5492.7	
880.52	3035.1	
880.69	3145.7	
880.86	4956.8	
881.02	4996.4	
881.19	2980.5	
881.36	2894.5	
881.52	4859.8	
881.69	4425.7	
881.86	2904	
882.02	2857.6	
882.19	5081.7	
882.36	5787.6	
882.52	2846	
882.69	3647.4	
882.86	4751.3	
883.02	4719.2	
883.19	3188	
883.36	3026.9	
883.52	4943.8	
883.69	5536.3	
883.86	2785.2	
884.02	2464.4	
884.19	4969.7	
884.36	4713.1	
884.52	3025.5	
884.69	2874.7	
884.86	4461.8	
885.02	5300.1	
885.19	2966.1	
885.36	3055.6	
885.52	4590.9	
885.69	4748.6	
885.86	3768.9	
886.02	3367.5	
886.19	4949.9	
886.35	4487.1	
886.52	3022.1	
886.69	3598.3	
886.85	4337.6	
887.02	5138.4	
887.19	5138.4	
887.35	5138.4	
887.52	5138.4	
887.68	5138.4	
887.85	5138.4	
888.02	5138.4	
888.18	5138.4	
888.35	5138.4	
888.51	5138.4	
888.68	5138.4	
888.85	5138.4	
889.01	5138.4	
889.18	5138.4	
889.35	5138.4	
889.51	5138.4	
889.68	5138.4	
889.84	5138.4	
890.01	5138.4	
890.17	5138.4	
890.34	5138.4	
890.51	5138.4	
890.67	5138.4	
890.84	5138.4	
891	5138.4	
891.17	5138.4	
891.34	5138.4	
891.5	5138.4	
891.67	5138.4	
891.83	5138.4	
892	5138.4	
892.16	5138.4	
892.33	5138.4	
892.5	5138.4	
892.66	5138.4	
892.83	5138.4	
892.99	5138.4	
893.16	5138.4	
893.32	5138.4	
893.49	5138.4	
893.65	5138.4	
893.82	5138.4	
893.99	5138.4	
894.15	5138.4	
894.32	5138.4	
894.48	5138.4	
894.65	5138.4	
894.81	5138.4	
894.98	5138.4	
895.14	5138.4	
895.31	5138.4	
895.47	5138.4	
895.64	5138.4	
895.81	5138.4	
895.97	5138.4	
896.14	5138.4	
896.3	5138.4	
896.47	5138.4	
896.63	5138.4	
896.8	5138.4	
896.96	5138.4	
897.13	5138.4	
897.29	5138.4	
897.46	5138.4	
897.62	5138.4	
897.79	5138.4	
897.95	5138.4	
898.12	5138.4	
898.28	5138.4	
898.45	5138.4	
898.61	5138.4	
898.78	5138.4	
898.94	5138.4	
899.11	5138.4	
899.27	5138.4	
899.44	5138.4	
899.6	5138.4	
899.77	5138.4	
899.93	5138.4	
900.1	5138.4	
900.26	5138.4	
900.43	5138.4	
900.59	5138.4	
900.76	5138.4	
900.92	5138.4	
901.09	5138.4	
901.25	5138.4	
901.42	5138.4	
901.58	5138.4	
901.75	5138.4	
901.91	5138.4	
902.07	5138.4	
902.24	5138.4	
902.4	5138.4	
902.57	5138.4	
902.73	5138.4	
902.9	5138.4	
903.06	5138.4	
903.23	5138.4	
903.39	5138.4	
903.56	5138.4	
903.72	5138.4	
903.88	5138.4	
904.05	5138.4	
904.21	5138.4	
904.38	5138.4	
904.54	5138.4	
904.71	5138.4	
904.87	5138.4	
905.03	5138.4	
905.2	5138.4	
905.36	5138.4	
905.53	5138.4	
905.69	5138.4	
905.86	5138.4	
906.02	5138.4	
906.18	5138.4	
906.35	5138.4	
906.51	5138.4	
906.68	5138.4	
906.84	5138.4	
907.01	5138.4	
907.17	5138.4	
907.33	5138.4	
907.5	5138.4	
907.66	5138.4	
907.83	5138.4	
907.99	5138.4	
908.15	5138.4	
908.32	5138.4	
908.48	5138.4	
908.65	5138.4	
908.81	5138.4	
908.97	5138.4	
909.14	5138.4	
909.3	5138.4	
909.47	5138.4	
909.63	5138.4	
909.79	5138.4	
909.96	5138.4	
910.12	5138.4	
910.28	5138.4	
910.45	5138.4	
910.61	5138.4	
910.78	5138.4	
910.94	5138.4	
911.1	5138.4	
911.27	5138.4	
911.43	5138.4	
911.59	5138.4	
911.76	5138.4	
911.92	5138.4	
912.08	5138.4	
912.25	5138.4	
912.41	5138.4	
912.57	5138.4	
912.74	5138.4	
912.9	5138.4	
913.07	5138.4	
913.23	5138.4	
913.39	5138.4	
913.56	5138.4	
913.72	5138.4	
913.88	5138.4	
914.05	5138.4	
914.21	5138.4	
914.37	5138.4	
914.54	5138.4	
914.7	5138.4	
914.86	5138.4	
915.03	5138.4	
915.19	5138.4	
