Wavelength	Intensities	
nm	a.u.	
179.22	1907.7	
179.44	1899.8	
179.65	1915.5	
179.86	1884.1	
180.08	1914.9	
180.29	4887.1	
180.51	3539.6	
180.72	5628.5	
180.94	6619.7	
181.15	3228.3	
181.37	3177.8	
181.58	5509	
181.79	5834	
182.01	3396.2	
182.22	3651.5	
182.44	5799.8	
182.65	4805.9	
182.87	4557.4	
183.08	3990.8	
183.29	6105	
183.51	4954.7	
183.72	3685.7	
183.94	5326.1	
184.15	5421	
184.37	5366.4	
184.58	3170.9	
184.79	4430.4	
185.01	5046.2	
185.22	5789.6	
185.44	4740.4	
185.65	3902.7	
185.86	5320.6	
186.08	4891.2	
186.29	3155.2	
186.51	3385.3	
186.72	5040.7	
186.94	5903.6	
187.15	3884.3	
187.36	4052.2	
187.58	7679.9	
187.79	5551.4	
188.01	4221.5	
188.22	6535.1	
188.43	6654.5	
188.65	5699.5	
188.86	3365.5	
189.08	4003.1	
189.29	5233.2	
189.5	5199.1	
189.72	3718.4	
189.93	3792.2	
190.15	5875.6	
190.36	7183.6	
190.57	4132.1	
190.79	3950.5	
191	6060.6	
191.22	6004.6	
191.43	4111.6	
191.64	3416	
191.86	6271.6	
192.07	5979.4	
192.29	3555.3	
192.5	3748.5	
192.71	5995.8	
192.93	5106.3	
193.14	3650.2	
193.35	3817.4	
193.57	5184.8	
193.78	6023.8	
194	2969.6	
194.21	3569.6	
194.42	4901.5	
194.64	5365.7	
194.85	4033.8	
195.07	4754	
195.28	5457.2	
195.49	4684.4	
195.71	4986.8	
195.92	3508.9	
196.13	5633.3	
196.35	5692.7	
196.56	5332.9	
196.78	3991.5	
196.99	7034.1	
197.2	6574.7	
197.42	4605.9	
197.63	4084.3	
197.84	4854.4	
198.06	5598.5	
198.27	3747.8	
198.48	4958.1	
198.7	5171.8	
198.91	5340.4	
199.13	4070.7	
199.34	4061.8	
199.55	5831.2	
199.77	4685.1	
199.98	3577.1	
200.19	4170.3	
200.41	5405.3	
200.62	5004.6	
200.83	4220.2	
201.05	4603.8	
201.26	5349.3	
201.47	5036	
201.69	3609.2	
201.9	3452.9	
202.11	5368.4	
202.33	6374.6	
202.54	3866.6	
202.76	4387.4	
202.97	5503.6	
203.18	5522	
203.4	4246.8	
203.61	4179.9	
203.82	5489.2	
204.04	5085.1	
204.25	4119.1	
204.46	3960.8	
204.68	5432.6	
204.89	5680.4	
205.1	3972.4	
205.32	3384.6	
205.53	5768.4	
205.74	6018.3	
205.96	2974.3	
206.17	4176.5	
206.38	5840.8	
206.6	5961	
206.81	4648.2	
207.02	3837.9	
207.24	5648.3	
207.45	6043.6	
207.66	3870	
207.88	3311.6	
208.09	5601.9	
208.3	5427.8	
208.52	3525.9	
208.73	3872	
208.94	5379.3	
209.15	6141.9	
209.37	3882.3	
209.58	4051.6	
209.79	6008.1	
210.01	5274.2	
210.22	3125.2	
210.43	3231	
210.65	5466	
210.86	5829.2	
211.07	3870	
211.29	3590.1	
211.5	5780.7	
211.71	5356.1	
211.93	3531.4	
212.14	3519.1	
212.35	5331.5	
212.56	5579.3	
212.78	4056.3	
212.99	3364.1	
213.2	6443.6	
213.42	5177.9	
213.63	3663.8	
213.84	3993.5	
214.06	4798.4	
214.27	4932.2	
214.48	3878.2	
214.69	4137.6	
214.91	6114.6	
215.12	6166.4	
215.33	4208.6	
215.55	4598.4	
215.76	6672.3	
215.97	5822.4	
216.18	4024.9	
216.4	3876.8	
216.61	5106.3	
216.82	5900.9	
217.04	3586	
217.25	3706.8	
217.46	6101.6	
217.67	5785.5	
217.89	3224.2	
218.1	3309.5	
218.31	5529.5	
218.53	5579.3	
218.74	3816.7	
218.95	3590.8	
219.16	5330.9	
219.38	6314.6	
219.59	3649.5	
219.8	4313.7	
220.01	6958.3	
220.23	5403.9	
220.44	4780	
220.65	3559.4	
220.87	5447.6	
221.08	6047.7	
221.29	3259.7	
221.5	4369.7	
221.72	7460.8	
221.93	5085.1	
222.14	4114.4	
222.35	4792.2	
222.57	5388.9	
222.78	5745.9	
222.99	3872	
223.2	4219.5	
223.42	5685.2	
223.63	5842.9	
223.84	2974.3	
224.05	2927.9	
224.27	6984.9	
224.48	6346	
224.69	4835.3	
224.9	4023.6	
225.12	5621.7	
225.33	5386.8	
225.54	3247.4	
225.75	3640.6	
225.97	5005.2	
226.18	5258.5	
226.39	3964.2	
226.6	3678.2	
226.82	5119.2	
227.03	5008.6	
227.24	4136.9	
227.45	3401.7	
227.67	5789.6	
227.88	6353.5	
228.09	4575.2	
228.3	4635.9	
228.52	5910.4	
228.73	5357.5	
228.94	3777.1	
229.15	3366.2	
229.36	5358.2	
229.58	5248.3	
229.79	3790.1	
230	4497.3	
230.21	6483.2	
230.43	5500.8	
230.64	4048.2	
230.85	4267.3	
231.06	5884.5	
231.28	5820.3	
231.49	3390.1	
231.7	3876.1	
231.91	5737	
232.12	5457.8	
232.34	3442	
232.55	3931.4	
232.76	6059.9	
232.97	5601.2	
233.18	3588.7	
233.4	4061.8	
233.61	5664.7	
233.82	5163.6	
234.03	3731.4	
234.25	3722.5	
234.46	7574.8	
234.67	5483.1	
234.88	4149.2	
235.09	3627	
235.31	5767.1	
235.52	5284.4	
235.73	4035.2	
235.94	3346.4	
236.15	5146.5	
236.37	6619	
236.58	3590.8	
236.79	3891.1	
237	5716.6	
237.21	4906.9	
237.43	4272.1	
237.64	3299.3	
237.85	9848	
238.06	5000.5	
238.27	4206.5	
238.48	3386	
238.7	5767.1	
238.91	5227.1	
239.12	3891.8	
239.33	3992.9	
239.54	5016.2	
239.76	5340.4	
239.97	3882.9	
240.18	3908.2	
240.39	6789.7	
240.6	5682.4	
240.82	3999.7	
241.03	3308.8	
241.24	5354.1	
241.45	6301.6	
241.66	3554.6	
241.87	4246.1	
242.09	6201.9	
242.3	6563.7	
242.51	4212.7	
242.72	3844.7	
242.93	5892.7	
243.14	5356.8	
243.36	4513	
243.57	4894.6	
243.78	6312.5	
243.99	5651	
244.2	3988.8	
244.41	3551.9	
244.63	4982.7	
244.84	5689.9	
245.05	4171.7	
245.26	3954.6	
245.47	5687.2	
245.68	6010.1	
245.9	5246.9	
246.11	4087.7	
246.32	5294	
246.53	5611.4	
246.74	6354.2	
246.95	3304.1	
247.16	4928.8	
247.38	5414.1	
247.59	3266.5	
247.8	3894.6	
248.01	5128.8	
248.22	5387.5	
248.43	3553.9	
248.64	3823.6	
248.86	4831.2	
249.07	5160.9	
249.28	3414	
249.49	3998.3	
249.7	5979.4	
249.91	6026.5	
250.12	3239.2	
250.34	3328.6	
250.55	5586.2	
250.76	5424.4	
250.97	4097.3	
251.18	4067.3	
251.39	6182.8	
251.6	5615.5	
251.81	4136.2	
252.03	4101.4	
252.24	5128.1	
252.45	5916.6	
252.66	3357.3	
252.87	4348.5	
253.08	5442.8	
253.29	7158.3	
253.5	3401	
253.72	4714.4	
253.93	5313.8	
254.14	6505	
254.35	3651.5	
254.56	3855.6	
254.77	5758.2	
254.98	5055.8	
255.19	3618.8	
255.41	4802.5	
255.62	5542.5	
255.83	6046.3	
256.04	4184.7	
256.25	4112.3	
256.46	6674.3	
256.67	5086.5	
256.88	4038.6	
257.09	4498	
257.31	5118.6	
257.52	5096	
257.73	5096.7	
257.94	3706.1	
258.15	5258.5	
258.36	5431.9	
258.57	4691.9	
258.78	3026.2	
258.99	5900.9	
259.2	5231.9	
259.41	3779.2	
259.63	3839.9	
259.84	6288.6	
260.05	6750.1	
260.26	4833.9	
260.47	3659.7	
260.68	6001.2	
260.89	5328.1	
261.1	4560.1	
261.31	3540.9	
261.52	5977.3	
261.73	6381.5	
261.95	4835.9	
262.16	4244.1	
262.37	6158.9	
262.58	6199.2	
262.79	4812	
263	3789.4	
263.21	5406	
263.42	4935.6	
263.63	3851.5	
263.84	3695.2	
264.05	5945.9	
264.26	6367.8	
264.47	4696.7	
264.69	4208.6	
264.9	6135	
265.11	5636	
265.32	3601.7	
265.53	3670	
265.74	5598.5	
265.95	4826.4	
266.16	3910.9	
266.37	4380.6	
266.58	5528.2	
266.79	5269.4	
267	3678.8	
267.21	3413.3	
267.42	5005.2	
267.63	5440.8	
267.84	3881.6	
268.06	3387.3	
268.27	5849	
268.48	6137.8	
268.69	3801	
268.9	4489.8	
269.11	6145.3	
269.32	4922.6	
269.53	3908.2	
269.74	3601	
269.95	5730.9	
270.16	4815.5	
270.37	3885.7	
270.58	4452.3	
270.79	5278.3	
271	5954.8	
271.21	4209.9	
271.42	3958.7	
271.63	5567.1	
271.84	5053	
272.05	3089.7	
272.26	3442.6	
272.47	5445.5	
272.68	5639.4	
272.89	3731.4	
273.11	4326	
273.32	5315.8	
273.53	6324.1	
273.74	4192.9	
273.95	4151.2	
274.16	6038.8	
274.37	5489.9	
274.58	4270	
274.79	3369.6	
275	5545.9	
275.21	6147.3	
275.42	5140.4	
275.63	4394.3	
275.84	5655.1	
276.05	7167.2	
276.26	4132.8	
276.47	3895.2	
276.68	5279	
276.89	6494.1	
277.1	4433.2	
277.31	3458.3	
277.52	5661.3	
277.73	5885.9	
277.94	3388.7	
278.15	3736.9	
278.36	5612.8	
278.57	5101.5	
278.78	3714.3	
278.99	4245.4	
279.2	5049.6	
279.41	5023.7	
279.62	4861.2	
279.83	3437.9	
280.04	6705	
280.25	4909	
280.46	4910.3	
280.67	3884.3	
280.88	5060.5	
281.09	6059.9	
281.3	4105.5	
281.51	5225.1	
281.72	5157.5	
281.93	5966.4	
282.14	3659.7	
282.35	3914.4	
282.56	5856.5	
282.77	5963	
282.98	3781.2	
283.19	4610.7	
283.4	7280.5	
283.61	5401.9	
283.82	3387.3	
284.03	4860.5	
284.24	5508.4	
284.45	6103.6	
284.66	4864.6	
284.87	4691.2	
285.08	6022.4	
285.29	6139.1	
285.5	3269.2	
285.71	3829	
285.92	6024.4	
286.12	6706.4	
286.33	4758.8	
286.54	3805.1	
286.75	5934.3	
286.96	5308.3	
287.17	3518.4	
287.38	4715.1	
287.59	5063.9	
287.8	5033.2	
288.01	3844.7	
288.22	4353.3	
288.43	5967.1	
288.64	4958.1	
288.85	4498	
289.06	4296.6	
289.27	5920.7	
289.48	6363	
289.69	4827.1	
289.9	4447.5	
290.11	6068.1	
290.32	5120.6	
290.53	4598.4	
290.74	4291.9	
290.94	5816.9	
291.15	5887.2	
291.36	3698.6	
291.57	4404.5	
291.78	5147.2	
291.99	4862.6	
292.2	3489.7	
292.41	4282.3	
292.62	6014.9	
292.83	5745.2	
293.04	5203.9	
293.25	3543	
293.46	5235.3	
293.67	6032.6	
293.88	3677.5	
294.09	3509.5	
294.29	5006.6	
294.5	5626.5	
294.71	3956	
294.92	3761.4	
295.13	5229.8	
295.34	6555.5	
295.55	3294.5	
295.76	3356.6	
295.97	5825.8	
296.18	6673	
296.39	3493.2	
296.6	3665.9	
296.81	5651	
297.01	5894.7	
297.22	3855.6	
297.43	3604.4	
297.64	5068.7	
297.85	5081.7	
298.06	3023.5	
298.27	3325.2	
298.48	5522.7	
298.69	5154.1	
298.9	3973.1	
299.11	3609.2	
299.31	4919.2	
299.52	5009.3	
299.73	4253.6	
299.94	4214.7	
300.15	5410.1	
300.36	5075.5	
300.57	4190.8	
300.78	4174.4	
300.99	5328.1	
301.2	5555.5	
301.4	3591.5	
301.61	4012.7	
301.82	5759.6	
302.03	5917.3	
302.24	4459.8	
302.45	3478.1	
302.66	5793	
302.87	6223.1	
303.08	3681.6	
303.29	5013.4	
303.49	5179.3	
303.7	5467.4	
303.91	3260.4	
304.12	4769	
304.33	4939	
304.54	5580.7	
304.75	3712.3	
304.96	3493.8	
305.16	5766.4	
305.37	6485.2	
305.58	3212.6	
305.79	3336.1	
306	5724.8	
306.21	4837.3	
306.42	3700.7	
306.63	5572.5	
306.83	5311.1	
307.04	6063.4	
307.25	4028.4	
307.46	4026.3	
307.67	4645.5	
307.88	5888.6	
308.09	3613.3	
308.29	3770.3	
308.5	5552.7	
308.71	6078.4	
308.92	3932.1	
309.13	3523.9	
309.34	5403.9	
309.55	5346.6	
309.75	4551.3	
309.96	4186.7	
310.17	5863.3	
310.38	5065.3	
310.59	4417.5	
310.8	3421.5	
311.01	5934.3	
311.21	5308.3	
311.42	3493.8	
311.63	3645.4	
311.84	5213.4	
312.05	5539.1	
312.26	4040.6	
312.46	4450.2	
312.67	5258.5	
312.88	4993.6	
313.09	3568.9	
313.3	3414.6	
313.51	6253.1	
313.71	6576.7	
313.92	3540.3	
314.13	3734.1	
314.34	5540.4	
314.55	5344.5	
314.76	4539	
314.96	3970.3	
315.17	5535	
315.38	5890.6	
315.59	3579.8	
315.8	3384.6	
316.01	6333	
316.21	6352.1	
316.42	3444.7	
316.63	3928	
316.84	5346.6	
317.05	6146	
317.26	4182.6	
317.46	3704.1	
317.67	5384.8	
317.88	5794.4	
318.09	4430.4	
318.3	3308.2	
318.5	5134.3	
318.71	5751.4	
318.92	5686.5	
319.13	4131.4	
319.34	5899.5	
319.54	6195.1	
319.75	3239.2	
319.96	3150.5	
320.17	5806	
320.38	5997.8	
320.58	3250.1	
320.79	3846.8	
321	6053.8	
321.21	6173.3	
321.42	3910.9	
321.62	3220.8	
321.83	5014.8	
322.04	5411.4	
322.25	3777.1	
322.46	3589.4	
322.66	5549.3	
322.87	5700.9	
323.08	4432.5	
323.29	3452.2	
323.5	6512.5	
323.7	4969.7	
323.91	4903.5	
324.12	4334.2	
324.33	5503.6	
324.53	5709.7	
324.74	4179.9	
324.95	4394.3	
325.16	4833.9	
325.37	5292	
325.57	3576.4	
325.78	3616	
325.99	5449.6	
326.2	4973.8	
326.4	5057.1	
326.61	3281.5	
326.82	5401.9	
327.03	5491.3	
327.24	5061.2	
327.44	4819.6	
327.65	5668.1	
327.86	4589.5	
328.07	4173.1	
328.27	3407.1	
328.48	6123.4	
328.69	4979.3	
328.9	5102.9	
329.1	3816	
329.31	5274.2	
329.52	6309.1	
329.73	3592.1	
329.93	4015.4	
330.14	5446.9	
330.35	5688.6	
330.56	5892	
330.76	4448.9	
330.97	5235.3	
331.18	5646.9	
331.39	3973.1	
331.59	3197.6	
331.8	6073.6	
332.01	6159.6	
332.22	3639.2	
332.42	4207.9	
332.63	5566.4	
332.84	5180	
333.05	3956.7	
333.25	3622.9	
333.46	5225.7	
333.67	5472.9	
333.88	3657.7	
334.08	4166.9	
334.29	7294.2	
334.5	6112.5	
334.7	3487.7	
334.91	5165	
335.12	5006.6	
335.33	5915.2	
335.53	3933.5	
335.74	5856.5	
335.95	5225.1	
336.16	5116.5	
336.36	3923.9	
336.57	4540.3	
336.78	4993.6	
336.98	6040.8	
337.19	4884.4	
337.4	3917.1	
337.61	6632.7	
337.81	4967	
338.02	3602.4	
338.23	4664.6	
338.43	6208.8	
338.64	5103.5	
338.85	3528	
339.05	4734.9	
339.26	6305.7	
339.47	4880.3	
339.68	3585.3	
339.88	5250.3	
340.09	5655.8	
340.3	5885.2	
340.5	4195.6	
340.71	3180.5	
340.92	4917.2	
341.13	6193.7	
341.33	3429.7	
341.54	4196.3	
341.75	5635.3	
341.95	5285.1	
342.16	3994.9	
342.37	4345.8	
342.57	4990.2	
342.78	5426.4	
342.99	4407.2	
343.19	3184.6	
343.4	5808.7	
343.61	5618.9	
343.81	3768.3	
344.02	3510.9	
344.23	5849	
344.43	6336.4	
344.64	4437.9	
344.85	4300.1	
345.06	5702.9	
345.26	6107	
345.47	4069.3	
345.68	4863.2	
345.88	4805.2	
346.09	5966.4	
346.3	4181.3	
346.5	3160.7	
346.71	5440.8	
346.92	5173.9	
347.12	3214.6	
347.33	4083.6	
347.54	6023.8	
347.74	6392.4	
347.95	4106.2	
348.16	3013.2	
348.36	5244.8	
348.57	4906.9	
348.78	4069.3	
348.98	4429.1	
349.19	5377.3	
349.39	4922	
349.6	3263.8	
349.81	3621.5	
350.01	5674.2	
350.22	5167.7	
350.43	3872.7	
350.63	4697.4	
350.84	5515.9	
351.05	5240.1	
351.25	3563.5	
351.46	3246.7	
351.67	6043.6	
351.87	5095.3	
352.08	3848.1	
352.29	4332.1	
352.49	5888.6	
352.7	6010.1	
352.9	3450.8	
353.11	4328.7	
353.32	6531.7	
353.52	5224.4	
353.73	3414	
353.94	4405.9	
354.14	5720	
354.35	5504.3	
354.55	3536.8	
354.76	3913.7	
354.97	5698.1	
355.17	5502.9	
355.38	3304.7	
355.59	4668	
355.79	5096.7	
356	5473.5	
356.2	3888.4	
356.41	3387.3	
356.62	4802.5	
356.82	5338.4	
357.03	4144.4	
357.24	3728.7	
357.44	5081.7	
357.65	5228.5	
357.85	4952.7	
358.06	3923.2	
358.27	4838.7	
358.47	5100.8	
358.68	3271.3	
358.88	4187.4	
359.09	5658.5	
359.3	5986.9	
359.5	4853	
359.71	4274.1	
359.91	6481.1	
360.12	5842.2	
360.33	4089.1	
360.53	4626.4	
360.74	5059.8	
360.94	5117.2	
361.15	4296.6	
361.36	3540.3	
361.56	5868.8	
361.77	5228.5	
361.97	4792.2	
362.18	3779.9	
362.38	5815.5	
362.59	4917.2	
362.8	3478.8	
363	3328.6	
363.21	4756.7	
363.41	5421.7	
363.62	3979.2	
363.83	5014.1	
364.03	5487.9	
364.24	6480.5	
364.44	5132.2	
364.65	5056.4	
364.85	5270.1	
365.06	5119.9	
365.27	3618.8	
365.47	3642	
365.68	6240.8	
365.88	5251.7	
366.09	4036.5	
366.29	3741	
366.5	5496.7	
366.71	5961.6	
366.91	5022.3	
367.12	4260.5	
367.32	6528.2	
367.53	5771.2	
367.73	4074.8	
367.94	5109.7	
368.14	5735.7	
368.35	6634.7	
368.56	4141	
368.76	3461.1	
368.97	5799.8	
369.17	7561.1	
369.38	3601.7	
369.58	3867.9	
369.79	4863.2	
369.99	6163.7	
370.2	4913.1	
370.4	3961.5	
370.61	5483.8	
370.82	6662	
371.02	3915.7	
371.23	3209.2	
371.43	4731.5	
371.64	6109.8	
371.84	3841.3	
372.05	5080.3	
372.25	7410.9	
372.46	5786.2	
372.66	3803.8	
372.87	3762.1	
373.07	5847	
373.28	7469.6	
373.48	4897.4	
373.69	4623.6	
373.9	5235.3	
374.1	5343.2	
374.31	4800.4	
374.51	4330.8	
374.72	6151.4	
374.92	4989.5	
375.13	5020.9	
375.33	4132.8	
375.54	5709.7	
375.74	5127.4	
375.95	4183.3	
376.15	5390.9	
376.36	5641.5	
376.56	5510.4	
376.77	4280.9	
376.97	4693.3	
377.18	6701	
377.38	5691.3	
377.59	5050.3	
377.79	3709.6	
378	5500.2	
378.2	6007.4	
378.41	3754.6	
378.61	3713	
378.82	6030.6	
379.02	5127.4	
379.23	3923.9	
379.43	5079	
379.64	6100.9	
379.84	5697.4	
380.05	3704.1	
380.25	3683.6	
380.46	5821.7	
380.66	5356.1	
380.87	5087.8	
381.07	5509	
381.28	6457.2	
381.48	5776.6	
381.69	3768.3	
381.89	3876.8	
382.1	4754.7	
382.3	5964.4	
382.51	4906.9	
382.71	5871.5	
382.91	5830.6	
383.12	6337.8	
383.32	4218.1	
383.53	4420.2	
383.73	5616.2	
383.94	5468.8	
384.14	4330.1	
384.35	3449.5	
384.55	5401.9	
384.76	5853.1	
384.96	4158.1	
385.17	4511	
385.37	5842.9	
385.58	5102.9	
385.78	4499.4	
385.98	3414	
386.19	5290.6	
386.39	5754.8	
386.6	3842.7	
386.8	4220.9	
387.01	5870.8	
387.21	5814.2	
387.42	4582.7	
387.62	5161.6	
387.83	5143.1	
388.03	5743.2	
388.23	4249.5	
388.44	5040.7	
388.64	4804.5	
388.85	4941.1	
389.05	4554	
389.26	5225.1	
389.46	6806.1	
389.67	6194.4	
389.87	4552.6	
390.07	4603.8	
390.28	5468.1	
390.48	5014.8	
390.69	3794.9	
390.89	4057	
391.1	5208.7	
391.3	6189.6	
391.5	5253.7	
391.71	5952.1	
391.91	5838.1	
392.12	6886.6	
392.32	5383.4	
392.53	4573.8	
392.73	5288.5	
392.93	5457.2	
393.14	4216.1	
393.34	5005.2	
393.55	5911.8	
393.75	5478.3	
393.95	4302.8	
394.16	4162.2	
394.36	5214.1	
394.57	5903.6	
394.77	3743.7	
394.98	4117.8	
395.18	5149.3	
395.38	5423	
395.59	5005.9	
395.79	3923.9	
396	5269.4	
396.2	5775.3	
396.4	4932.2	
396.61	4778.6	
396.81	5951.4	
397.02	5141.1	
397.22	5031.9	
397.42	5048.9	
397.63	5936.4	
397.83	5150	
398.04	3845.4	
398.24	4405.9	
398.44	5713.8	
398.65	4756.7	
398.85	3764.2	
399.05	3812.6	
399.26	5104.9	
399.46	6761.7	
399.67	4316.4	
399.87	3979.2	
400.07	5530.2	
400.28	5806	
400.48	4032.5	
400.69	5070.1	
400.89	6070.9	
401.09	6552.8	
401.3	3910.9	
401.5	5018.2	
401.7	6708.5	
401.91	6986.3	
402.11	4192.2	
402.32	4523.3	
402.52	5983.5	
402.72	5949.3	
402.93	4650.9	
403.13	3536.8	
403.33	6804	
403.54	5520	
403.74	4371.7	
403.94	5296.7	
404.15	5603.2	
404.35	6739.9	
404.56	4207.2	
404.76	6089.3	
404.96	6112.5	
405.17	5823.7	
405.37	5408.7	
405.57	4713.7	
405.78	6085.2	
405.98	5530.2	
406.18	4155.3	
406.39	5116.5	
406.59	6068.8	
406.79	5635.3	
407	4036.5	
407.2	4145.8	
407.4	6069.5	
407.61	6303	
407.81	4090.5	
408.01	6326.9	
408.22	5104.2	
408.42	7170.6	
408.62	5128.1	
408.83	4635.2	
409.03	5642.8	
409.23	5480.4	
409.44	4672.1	
409.64	5005.2	
409.84	6526.2	
410.05	6389.7	
410.25	4732.9	
410.45	4530.8	
410.66	5833.3	
410.86	8385.7	
411.06	4961.5	
411.27	4854.4	
411.47	8137.9	
411.67	6001.9	
411.88	5079	
412.08	5272.8	
412.28	6649.8	
412.49	7163.1	
412.69	4728.1	
412.89	4809.3	
413.09	6954.9	
413.3	6766.5	
413.5	4882.4	
413.7	4425.7	
413.91	6010.1	
414.11	6943.3	
414.31	4703.5	
414.52	5097.4	
414.72	6593.8	
414.92	6481.8	
415.12	4641.4	
415.33	5235.3	
415.53	6888.7	
415.73	7080.5	
415.94	5582.8	
416.14	4945.2	
416.34	5862.7	
416.55	5629.9	
416.75	6268.1	
416.95	5686.5	
417.15	6885.3	
417.36	7598.6	
417.56	6389	
417.76	5456.5	
417.97	7238.2	
418.17	6875	
418.37	4981.3	
418.57	5111	
418.78	6651.8	
418.98	6376.7	
419.18	5952.1	
419.38	5929.6	
419.59	6371.2	
419.79	5989.6	
419.99	4932.9	
420.2	5358.2	
420.4	6855.2	
420.6	7032.7	
420.8	4858.5	
421.01	4758.1	
421.21	6781.5	
421.41	7008.1	
421.61	5322.7	
421.82	5075.5	
422.02	6178.7	
422.22	7211.6	
422.42	5892	
422.63	5504.3	
422.83	6375.3	
423.03	7623.2	
423.23	5496.1	
423.44	4375.8	
423.64	6414.9	
423.84	6242.2	
424.04	4947.9	
424.25	4624.3	
424.45	7441.6	
424.65	7396.6	
424.85	4366.3	
425.06	5012.1	
425.26	7321.5	
425.46	6419	
425.66	5458.5	
425.87	5174.5	
426.07	7120.1	
426.27	6981.5	
426.47	5371.8	
426.67	4721.9	
426.88	7546.8	
427.08	6939.9	
427.28	5588.2	
427.48	4556	
427.69	5890	
427.89	6577.4	
428.09	5532.2	
428.29	4702.8	
428.5	7146	
428.7	6698.2	
428.9	4496.7	
429.1	5238	
429.3	6704.4	
429.51	7005.4	
429.71	4924	
429.91	5686.5	
430.11	6986.3	
430.31	7172	
430.52	5255.1	
430.72	5477	
430.92	7557	
431.12	7037.5	
431.32	4881.7	
431.53	5345.2	
431.73	5870.2	
431.93	7643	
432.13	4874.2	
432.33	4687.1	
432.54	6324.1	
432.74	6777.4	
432.94	4607.9	
433.14	5678.3	
433.34	6886	
433.55	6403.3	
433.75	5633.3	
433.95	7444.4	
434.15	6703.7	
434.35	6406.7	
434.56	4834.6	
434.76	4322.6	
434.96	6695.5	
435.16	6948.8	
435.36	4690.5	
435.56	5799.8	
435.77	6294.1	
435.97	6433.4	
436.17	6518.7	
436.37	5766.4	
436.57	6269.5	
436.78	6189.6	
436.98	7530.4	
437.18	6394.4	
437.38	6896.9	
437.58	6536.4	
437.78	6495.5	
437.99	5063.9	
438.19	6965.8	
438.39	8463.6	
438.59	5054.4	
438.79	4583.4	
438.99	7770	
439.2	6562.4	
439.4	4790.9	
439.6	4698	
439.8	6919.4	
440	7969.3	
440.2	5738.4	
440.4	5846.3	
440.61	7249.1	
440.81	7826	
441.01	4922	
441.21	5844.2	
441.41	7623.2	
441.61	7264.8	
441.81	6048.3	
442.02	7118.1	
442.22	8198	
442.42	7404.8	
442.62	4954	
442.82	5059.2	
443.02	7657.4	
443.22	6758.3	
443.43	5414.1	
443.63	4992.3	
443.83	6492.7	
444.03	6628.6	
444.23	6264.7	
444.43	5801.2	
444.63	6857.3	
444.83	8210.3	
445.04	5113.1	
445.24	6343.9	
445.44	7297.6	
445.64	7361.1	
445.84	5965.7	
446.04	5795.1	
446.24	6629.3	
446.44	7644.4	
446.65	5105.6	
446.85	5477.6	
447.05	6787	
447.25	7657.4	
447.45	5537	
447.65	4977.9	
447.85	7019.1	
448.05	6643.6	
448.25	5859.2	
448.46	5838.1	
448.66	7000.6	
448.86	6746	
449.06	4739	
449.26	6008.7	
449.46	7359.7	
449.66	6438.1	
449.86	5535	
450.06	5513.1	
450.26	6593.8	
450.47	7170.6	
450.67	5817.6	
450.87	6137.8	
451.07	7229.3	
451.27	7087.3	
451.47	5133.6	
451.67	5640.1	
451.87	6748.1	
452.07	7914.7	
452.27	5274.2	
452.47	5259.9	
452.67	7053.9	
452.88	7608.9	
453.08	4642.1	
453.28	6798.6	
453.48	8144.1	
453.68	7029.3	
453.88	5256.5	
454.08	5486.5	
454.28	7374.7	
454.48	7064.1	
454.68	6037.4	
454.88	6626.5	
455.08	7509.2	
455.28	7248.4	
455.48	5153.4	
455.68	5758.2	
455.89	8017.8	
456.09	7693.5	
456.29	5492	
456.49	5569.8	
456.69	7907.9	
456.89	7254.6	
457.09	6069.5	
457.29	6421.7	
457.49	7531.7	
457.69	7580.9	
457.89	5890.6	
458.09	5287.9	
458.29	7185	
458.49	7884	
458.69	6290	
458.89	5668.1	
459.09	8130.4	
459.29	8318.2	
459.49	5821.7	
459.69	6634.1	
459.9	7755	
460.1	7245	
460.3	5657.9	
460.5	5609.4	
460.7	7757	
460.9	7438.9	
461.1	5255.8	
461.3	6595.1	
461.5	8387.1	
461.7	7983	
461.9	5563.6	
462.1	6059.9	
462.3	7428	
462.5	8084.7	
462.7	5694	
462.9	5788.2	
463.1	9177.6	
463.3	8759.8	
463.5	5970.5	
463.7	6879.8	
463.9	7769.3	
464.1	8116.1	
464.3	6079.7	
464.5	6364.4	
464.7	8265.6	
464.9	8019.8	
465.1	7797.3	
465.3	6793.8	
465.5	8662.2	
465.7	8626.7	
465.9	6938.5	
466.1	6864.8	
466.3	8512.7	
466.5	8234.9	
466.7	7634.8	
466.9	6622.4	
467.1	8284	
467.3	9235	
467.5	7585.7	
467.7	6470.2	
467.9	9361.3	
468.1	10349	
468.3	7292.8	
468.5	7742	
468.7	8306.6	
468.9	8241	
469.1	6895.5	
469.3	7520.8	
469.5	10213	
469.7	7778.2	
469.9	7331.7	
470.1	6503.7	
470.3	8231.5	
470.5	8292.9	
470.7	7933.1	
470.9	6653.2	
471.1	7970	
471.3	8546.2	
471.5	6452.5	
471.69	8419.2	
471.89	7852.6	
472.09	7443.7	
472.29	7266.2	
472.49	7691.5	
472.69	7626.6	
472.89	8484.1	
473.09	6307.1	
473.29	6530.3	
473.49	7794.6	
473.69	8053.3	
473.89	7475.1	
474.09	6718.7	
474.29	9392	
474.49	8960.5	
474.69	7509.2	
474.89	6916	
475.09	7978.2	
475.29	8018.5	
475.49	6280.4	
475.69	6509.1	
475.88	9686.9	
476.08	8366.6	
476.28	6174.6	
476.48	6677.7	
476.68	8758.5	
476.88	8664.3	
477.08	6520.7	
477.28	6873.7	
477.48	8181	
477.68	8847.2	
477.88	6312.5	
478.08	6682.5	
478.28	9130.5	
478.48	8292.2	
478.67	6726.2	
478.87	6059.9	
479.07	8976.9	
479.27	8452	
479.47	6869.6	
479.67	7058.7	
479.87	8763.9	
480.07	9315.5	
480.27	6202.6	
480.47	7856	
480.67	8497.7	
480.87	9086.2	
481.06	6441.5	
481.26	7301	
481.46	8318.2	
481.66	8285.4	
481.86	6969.9	
482.06	7995.3	
482.26	8118.1	
482.46	9065.7	
482.66	6989.7	
482.86	6560.3	
483.05	8507.9	
483.25	7851.2	
483.45	9432.3	
483.65	6988.4	
483.85	8148.9	
484.05	8420.6	
484.25	7341.3	
484.45	7924.3	
484.65	9374.9	
484.84	9239.1	
485.04	6847.7	
485.24	6870.9	
485.44	9555.1	
485.64	7807.5	
485.84	6176	
486.04	7660.1	
486.24	8201.4	
486.44	8714.1	
486.63	6217	
486.83	6953.5	
487.03	8210.3	
487.23	8312	
487.43	6326.2	
487.63	8740.7	
487.83	8387.1	
488.02	9465.7	
488.22	7318.8	
488.42	7957.7	
488.62	9356.5	
488.82	8211	
489.02	6879.8	
489.22	7007.5	
489.41	9254.8	
489.61	8845.9	
489.81	6737.1	
490.01	6677.1	
490.21	9101.2	
490.41	9765.4	
490.61	6675	
490.8	6744.6	
491	8488.8	
491.2	7858.1	
491.4	7478.5	
491.6	6434	
491.8	8619.9	
491.99	8815.8	
492.19	6421.1	
492.39	6902.3	
492.59	9183.8	
492.79	9239.8	
492.99	7693.5	
493.18	6804	
493.38	9402.9	
493.58	10137	
493.78	7559.1	
493.98	7159.7	
494.18	9111.4	
494.37	8531.2	
494.57	7833.5	
494.77	7735.2	
494.97	9290.3	
495.17	9688.9	
495.37	7226.6	
495.56	7613	
495.76	9828.2	
495.96	9497.1	
496.16	8511.4	
496.36	7376.1	
496.55	9664.4	
496.75	9157.2	
496.95	7784.3	
497.15	7691.5	
497.35	9614.5	
497.54	9577.7	
497.74	7527.7	
497.94	9346.2	
498.14	10221	
498.34	10036	
498.53	7159	
498.73	8008.2	
498.93	8909.3	
499.13	9594.7	
499.33	7881.3	
499.52	8344.8	
499.72	9613.8	
499.92	9866.4	
500.12	7599.3	
500.32	7763.2	
500.51	9898.5	
500.71	9614.5	
500.91	8565.3	
501.11	8214.4	
501.31	9779.7	
501.5	10285	
501.7	8872.5	
501.9	7768.6	
502.1	9609.1	
502.29	9871.9	
502.49	8245.1	
502.69	8765.3	
502.89	9706	
503.09	9799.5	
503.28	7326.3	
503.48	7412.3	
503.68	8892.3	
503.88	9067.7	
504.07	8414.4	
504.27	7783.6	
504.47	9481.4	
504.67	9561.3	
504.86	8298.4	
505.06	7924.3	
505.26	9056.1	
505.46	10921	
505.65	7854.6	
505.85	8216.5	
506.05	8959.9	
506.25	9527.8	
506.44	7127.6	
506.64	8291.5	
506.84	8991.3	
507.04	9940.2	
507.23	7470.3	
507.43	8006.2	
507.63	10946	
507.83	9235.7	
508.02	8027.4	
508.22	7708.6	
508.42	11239	
508.62	9022	
508.81	7858.1	
509.01	8620.6	
509.21	8868.4	
509.4	9146.9	
509.6	8163.9	
509.8	7511.3	
510	9069.1	
510.19	10636	
510.39	7501	
510.59	7578.2	
510.79	8880.7	
510.98	10368	
511.18	7659.4	
511.38	7726.3	
511.57	9772.9	
511.77	9596.1	
511.97	8399.4	
512.17	7293.5	
512.36	9743.6	
512.56	9802.9	
512.76	7479.9	
512.95	7253.9	
513.15	9919.7	
513.35	8539.3	
513.55	8416.5	
513.74	7542.7	
513.94	9787.9	
514.14	9239.1	
514.33	8460.2	
514.53	8292.2	
514.73	9228.8	
514.92	9466.4	
515.12	7793.9	
515.32	7658.7	
515.51	9507.4	
515.71	10135	
515.91	9379	
516.11	7567.2	
516.3	11181	
516.5	9067	
516.7	8112	
516.89	8755.1	
517.09	9330.5	
517.29	9213.8	
517.48	8453.3	
517.68	7906.5	
517.88	8933.9	
518.07	9643.2	
518.27	8448.6	
518.47	7397.9	
518.66	10121	
518.86	8854.7	
519.06	7274.4	
519.25	7731.1	
519.45	9193.3	
519.65	10609	
519.84	8413.1	
520.04	9021.3	
520.24	11000	
520.43	9750.4	
520.63	8099.7	
520.83	7712.7	
521.02	8957.8	
521.22	9588.6	
521.42	8297	
521.61	8898.4	
521.81	9202.9	
522.01	9427.5	
522.2	8183.7	
522.4	8009.6	
522.6	9983.8	
522.79	8822.6	
522.99	8100.4	
523.18	7412.3	
523.38	9700.5	
523.58	9775.6	
523.77	9549.7	
523.97	7520.1	
524.17	11652	
524.36	10839	
524.56	8931.2	
524.76	8538	
524.95	9852.1	
525.15	9459.6	
525.34	8338	
525.54	8278.6	
525.74	10117	
525.93	9131.9	
526.13	9581.8	
526.33	8371.4	
526.52	10492	
526.72	10004	
526.91	9645.9	
527.11	8898.4	
527.31	10593	
527.5	11073	
527.7	8829.5	
527.89	7811.6	
528.09	9566.7	
528.29	10212	
528.48	9225.4	
528.68	8852.7	
528.87	10528	
529.07	10563	
529.27	8678.6	
529.46	8166.6	
529.66	10005	
529.85	10506	
530.05	7912	
530.25	8861.6	
530.44	11606	
530.64	10047	
530.83	8452	
531.03	8751	
531.23	10634	
531.42	10497	
531.62	9578.3	
531.81	8765.3	
532.01	10802	
532.21	11344	
532.4	8572.1	
532.6	9018.6	
532.79	11833	
532.99	10758	
533.18	8973.5	
533.38	9976.3	
533.58	10468	
533.77	11142	
533.97	8984.4	
534.16	9887.6	
534.36	11526	
534.55	10412	
534.75	9931.3	
534.95	8957.8	
535.14	11186	
535.34	10360	
535.53	8733.2	
535.73	10615	
535.92	11676	
536.12	10564	
536.31	8731.2	
536.51	10041	
536.71	10888	
536.9	10457	
537.1	8929.1	
537.29	9103.2	
537.49	11337	
537.68	10404	
537.88	9540.8	
538.07	8727.1	
538.27	10763	
538.46	11820	
538.66	8530.5	
538.86	9111.4	
539.05	10682	
539.25	11059	
539.44	9301.9	
539.64	8992.6	
539.83	10401	
540.03	11559	
540.22	8791.9	
540.42	9024	
540.61	10761	
540.81	10898	
541	9476.6	
541.2	10107	
541.39	10183	
541.59	10641	
541.78	9785.9	
541.98	8800.8	
542.18	9914.2	
542.37	9875.3	
542.57	9050.7	
542.76	9678.7	
542.96	9953.8	
543.15	10666	
543.35	9167.4	
543.54	8450.6	
543.74	10989	
543.93	10524	
544.13	9125.1	
544.32	10236	
544.52	10946	
544.71	10094	
544.91	8179.6	
545.1	9570.8	
545.3	10045	
545.49	10711	
545.69	8239.7	
545.88	8766	
546.08	11742	
546.27	11264	
546.47	9318.3	
546.66	8611	
546.86	11104	
547.05	11594	
547.24	8856.8	
547.44	8716.2	
547.63	9893.1	
547.83	11149	
548.02	9058.2	
548.22	9239.1	
548.41	9704	
548.61	11116	
548.8	8570.1	
549	8521.6	
549.19	10412	
549.39	10721	
549.58	8261.5	
549.78	8882	
549.97	10758	
550.17	10273	
550.36	9697.8	
550.55	10712	
550.75	10173	
550.94	11150	
551.14	8429.4	
551.33	8890.9	
551.53	9605.7	
551.72	10697	
551.92	8993.3	
552.11	8635.6	
552.31	10672	
552.5	10735	
552.69	10337	
552.89	8277.9	
553.08	10619	
553.28	10271	
553.47	8650.6	
553.67	9823.4	
553.86	11256	
554.06	9613.2	
554.25	7916.1	
554.44	8478.6	
554.64	11966	
554.83	11555	
555.03	8421.2	
555.22	8794.7	
555.42	10808	
555.61	10426	
555.8	8615.8	
556	9006.3	
556.19	9549.7	
556.39	10867	
556.58	8591.9	
556.78	8643.1	
556.97	10409	
557.16	9999.5	
557.36	9916.9	
557.55	8264.2	
557.75	9334	
557.94	11204	
558.13	8401.5	
558.33	8118.1	
558.52	10892	
558.72	9766.8	
558.91	8260.1	
559.1	8510.7	
559.3	9468.4	
559.49	9124.4	
559.69	7795.9	
559.88	8781	
560.07	10374	
560.27	10711	
560.46	9017.2	
560.66	9116.9	
560.85	10026	
561.04	9236.3	
561.24	8205.5	
561.43	8348.2	
561.63	9543.5	
561.82	9814.5	
562.01	9718.3	
562.21	8781.7	
562.4	10368	
562.59	11245	
562.79	8652	
562.98	8290.2	
563.18	10113	
563.37	11813	
563.56	9173.5	
563.76	8260.8	
563.95	9775	
564.14	9604.3	
564.34	8669.7	
564.53	8300.4	
564.73	10124	
564.92	10658	
565.11	8782.4	
565.31	8076.5	
565.5	10824	
565.69	9793.4	
565.89	8292.2	
566.08	8612.4	
566.27	10710	
566.47	11100	
566.66	9279.3	
566.85	7834.8	
567.05	10318	
567.24	9684.8	
567.44	8312	
567.63	9610.4	
567.82	10561	
568.02	10391	
568.21	8290.2	
568.4	8738.7	
568.6	10152	
568.79	10228	
568.98	8113.4	
569.18	8406.9	
569.37	10082	
569.56	12306	
569.76	8715.5	
569.95	9642.5	
570.14	10570	
570.34	10384	
570.53	8174.8	
570.72	8074.5	
570.91	10996	
571.11	10073	
571.3	8660.2	
571.49	9614.5	
571.69	10095	
571.88	9712.2	
572.07	9164.7	
572.27	9252	
572.46	9721	
572.65	10817	
572.85	8436.3	
573.04	8818.6	
573.23	11030	
573.43	10293	
573.62	8297.7	
573.81	8950.3	
574	10335	
574.2	10160	
574.39	8623.3	
574.58	8839.7	
574.78	11269	
574.97	10513	
575.16	9166	
575.36	9350.3	
575.55	10906	
575.74	10968	
575.93	8320.2	
576.13	9409.7	
576.32	10155	
576.51	10824	
576.71	8636.3	
576.9	10202	
577.09	11148	
577.28	10683	
577.48	9183.1	
577.67	8277.9	
577.86	10312	
578.05	10616	
578.25	8850.6	
578.44	8934.6	
578.63	10475	
578.83	11592	
579.02	8329.1	
579.21	9848.7	
579.4	10611	
579.6	10324	
579.79	9081.4	
579.98	11239	
580.17	11043	
580.37	11084	
580.56	8525.7	
580.75	9346.2	
580.94	11536	
581.14	11460	
581.33	9848	
581.52	8687.5	
581.71	10980	
581.91	11525	
582.1	8420.6	
582.29	9002.2	
582.48	10619	
582.68	10510	
582.87	9542.9	
583.06	9149.6	
583.25	10905	
583.45	10249	
583.64	9783.8	
583.83	10587	
584.02	10370	
584.21	10811	
584.41	9814.5	
584.6	9023.4	
584.79	10621	
584.98	11327	
585.18	8467.7	
585.37	8492.2	
585.56	10133	
585.75	10885	
585.94	8701.8	
586.14	9398.8	
586.33	11400	
586.52	10479	
586.71	9160.6	
586.91	8888.9	
587.1	9815.9	
587.29	10820	
587.48	8779.6	
587.67	8680.7	
587.87	10767	
588.06	10746	
588.25	9972.2	
588.44	9308.7	
588.63	10322	
588.83	10861	
589.02	8575.5	
589.21	8443.1	
589.4	9909.4	
589.59	9672.6	
589.78	7606.8	
589.98	7912	
590.17	9315.5	
590.36	9928.6	
590.55	7304.4	
590.74	8168	
590.94	11321	
591.13	9942.9	
591.32	7933.8	
591.51	7550.9	
591.7	10411	
591.89	9882.1	
592.09	7632.1	
592.28	8125.7	
592.47	9101.9	
592.66	11015	
592.85	7723.6	
593.05	7944.8	
593.24	9726.5	
593.43	10386	
593.62	7935.2	
593.81	8542.8	
594	9757.9	
594.19	9990.7	
594.39	7876.5	
594.58	7825.3	
594.77	10102	
594.96	10630	
595.15	7712	
595.34	8381	
595.54	10107	
595.73	9153.1	
595.92	7132.4	
596.11	8269	
596.3	10593	
596.49	9200.8	
596.68	8054.7	
596.88	8512	
597.07	10333	
597.26	9161.9	
597.45	7505.8	
597.64	8809.7	
597.83	9301.2	
598.02	9987.3	
598.22	7587.7	
598.41	8333.2	
598.6	9759.9	
598.79	9178.3	
598.98	7679.9	
599.17	8650.6	
599.36	9778.4	
599.55	10948	
599.74	9800.9	
599.94	9693.7	
600.13	10392	
600.32	9184.5	
600.51	7512.6	
600.7	7638.9	
600.89	11026	
601.08	11043	
601.27	7394.5	
601.47	8352.3	
601.66	10229	
601.85	10946	
602.04	8135.9	
602.23	8165.3	
602.42	9252.7	
602.61	9944.9	
602.8	7989.8	
602.99	7765.9	
603.18	9664.4	
603.37	9928.6	
603.57	8398	
603.76	8910.7	
603.95	10666	
604.14	10293	
604.33	7846.5	
604.52	8226.7	
604.71	9839.1	
604.9	9555.8	
605.09	8801.5	
605.28	8652.7	
605.47	10439	
605.66	10144	
605.86	8461.5	
606.05	7781.6	
606.24	10369	
606.43	8944.8	
606.62	8153.6	
606.81	8988.5	
607	10336	
607.19	9610.4	
607.38	7604.1	
607.57	7802.8	
607.76	9329.2	
607.95	8840.4	
608.14	8301.8	
608.33	8910.7	
608.52	9377.6	
608.72	10307	
608.91	7515.4	
609.1	7406.8	
609.29	9516.9	
609.48	8980.3	
609.67	8503.2	
609.86	7481.9	
610.05	9005.6	
610.24	9402.2	
610.43	7377.5	
610.62	7010.2	
610.81	10654	
611	10257	
611.19	7532.4	
611.38	8245.1	
611.57	9687.6	
611.76	11127	
611.95	7238.2	
612.14	7023.2	
612.33	9481.4	
612.52	8952.4	
612.71	7795.9	
612.9	7033.4	
613.09	8684.1	
613.28	11085	
613.47	7403.4	
613.66	8515.5	
613.85	9693.7	
614.04	9084.8	
614.24	7679.2	
614.43	6808.1	
614.62	9840.5	
614.81	9663	
615	8213.7	
615.19	8245.1	
615.38	9015.8	
615.57	9318.9	
615.76	8028.7	
615.95	8994.7	
616.14	9774.3	
616.33	9385.2	
616.52	8448.6	
616.71	8611	
616.9	9766.1	
617.09	9606.3	
617.28	7737.9	
617.47	9009	
617.66	8871.1	
617.85	8938	
618.04	8687.5	
618.22	8225.3	
618.41	9239.1	
618.6	10154	
618.79	8051.2	
618.98	7764.5	
619.17	10402	
619.36	8783.7	
619.55	7902.4	
619.74	7918.8	
619.93	9816.6	
620.12	9243.8	
620.31	8547.5	
620.5	8718.9	
620.69	10350	
620.88	10832	
621.07	9459.6	
621.26	8381	
621.45	10000	
621.64	10012	
621.83	8570.1	
622.02	7791.2	
622.21	10017	
622.4	9826.2	
622.59	9213.8	
622.78	8884.1	
622.97	9350.3	
623.16	10470	
623.35	8509.3	
623.54	7666.2	
623.72	9645.3	
623.91	9804.3	
624.1	8875.9	
624.29	7456.7	
624.48	10909	
624.67	10105	
624.86	8601.5	
625.05	7656.7	
625.24	10974	
625.43	9352.4	
625.62	10466	
625.81	7967.3	
626	10466	
626.19	9603.6	
626.38	8839	
626.56	8099	
626.75	9454.8	
626.94	10260	
627.13	8684.8	
627.32	7358.4	
627.51	10058	
627.7	11617	
627.89	7493.5	
628.08	8749.6	
628.27	9248.6	
628.46	9516.2	
628.65	7807.5	
628.83	7410.9	
629.02	10027	
629.21	9307.3	
629.4	8165.9	
629.59	8546.9	
629.78	9228.8	
629.97	10292	
630.16	8588.5	
630.35	8048.5	
630.54	10791	
630.72	10449	
630.91	7942.7	
631.1	8508.6	
631.29	9908.8	
631.48	10088	
631.67	8716.2	
631.86	8201.4	
632.05	9541.5	
632.24	9593.4	
632.42	7712.7	
632.61	8376.9	
632.8	9699.9	
632.99	9265.7	
633.18	8378.9	
633.37	8825.4	
633.56	9895.8	
633.75	9744.2	
633.93	8336.6	
634.12	8076.5	
634.31	10759	
634.5	10399	
634.69	8102.4	
634.88	8645.8	
635.07	9673.2	
635.25	10311	
635.44	9018.6	
635.63	9196.7	
635.82	9536.7	
636.01	9020.6	
636.2	9007.6	
636.39	8607.6	
636.57	10705	
636.76	10342	
636.95	7971.4	
637.14	9344.9	
637.33	9908.8	
637.52	10974	
637.7	7636.9	
637.89	8645.8	
638.08	9534	
638.27	11095	
638.46	8606.9	
638.65	9241.8	
638.83	11049	
639.02	9340.1	
639.21	8566.7	
639.4	9103.2	
639.59	9819.3	
639.78	9377.6	
639.96	7753.6	
640.15	7870.3	
640.34	9632.3	
640.53	9832.3	
640.72	7621.2	
640.91	7894.9	
641.09	9106	
641.28	10532	
641.47	7901.7	
641.66	8715.5	
641.85	9671.2	
642.03	10105	
642.22	8491.6	
642.41	7906.5	
642.6	9108.7	
642.79	8514.8	
642.97	7735.9	
643.16	8438.3	
643.35	9170.1	
643.54	8929.8	
643.73	7581.6	
643.91	8473.8	
644.1	8706.6	
644.29	9382.4	
644.48	7684	
644.67	7660.8	
644.85	8896.4	
645.04	9176.3	
645.23	7193.8	
645.42	7522.9	
645.6	8740.7	
645.79	9885.5	
645.98	7494.2	
646.17	6488.6	
646.36	8443.8	
646.54	9093	
646.73	8176.2	
646.92	6956.3	
647.11	8606.9	
647.29	9719.7	
647.48	7042.3	
647.67	6797.2	
647.86	9915.6	
648.05	9961.3	
648.23	7441	
648.42	8698.4	
648.61	9320.3	
648.8	9093	
648.98	7096.9	
649.17	7481.2	
649.36	8602.8	
649.55	8140.7	
649.73	7141.3	
649.92	7852.6	
650.11	8490.9	
650.3	8908.7	
650.48	7238.2	
650.67	6933.1	
650.86	9089.6	
651.05	8002.8	
651.23	7159	
651.42	7099.6	
651.61	8594.6	
651.79	8642.4	
651.98	7375.4	
652.17	6999.3	
652.36	9020.6	
652.54	8012.3	
652.73	7000.6	
652.92	6824.5	
653.11	8998.1	
653.29	9057.5	
653.48	6205.3	
653.67	7242.3	
653.85	8636.3	
654.04	9778.4	
654.23	7470.3	
654.42	6909.8	
654.6	8091.5	
654.79	8776.2	
654.98	6301.6	
655.16	6981.5	
655.35	7724.3	
655.54	7716.7	
655.73	6581.5	
655.91	6468.2	
656.1	8933.9	
656.29	7786.4	
656.47	6137.1	
656.66	7826.7	
656.85	8107.2	
657.03	8085.4	
657.22	6548	
657.41	6726.2	
657.59	8228.7	
657.78	7976.2	
657.97	6304.3	
658.16	7070.3	
658.34	8790.6	
658.53	9321	
658.72	7904.5	
658.9	8519.5	
659.09	8213	
659.28	8438.3	
659.46	6840.2	
659.65	6799.9	
659.84	8059.4	
660.02	8622.6	
660.21	6568.5	
660.4	6601.3	
660.58	9015.8	
660.77	8448.6	
660.96	7255.3	
661.14	6309.1	
661.33	9483.5	
661.52	9446.6	
661.7	6188.3	
661.89	9906.7	
662.08	7927.7	
662.26	7551.5	
662.45	6452.5	
662.64	6565.1	
662.82	8645.2	
663.01	7952.3	
663.2	6612.2	
663.38	7300.3	
663.57	8557.8	
663.75	8510.7	
663.94	6839.5	
664.13	8127.7	
664.31	7940	
664.5	8691.6	
664.69	7290.8	
664.87	7656.7	
665.06	7623.9	
665.25	8439.7	
665.43	7944.8	
665.62	8028	
665.8	8791.2	
665.99	8094.9	
666.18	6797.2	
666.36	6906.4	
666.55	8704.5	
666.74	8687.5	
666.92	6471.6	
667.11	8121.6	
667.29	8021.2	
667.48	8689.5	
667.67	7790.5	
667.85	6864.1	
668.04	8112	
668.22	8104.5	
668.41	6901	
668.6	7161.1	
668.78	7920.9	
668.97	8038.3	
669.15	7303.7	
669.34	6247.7	
669.53	7916.8	
669.71	8234.2	
669.9	6460	
670.08	7103.7	
670.27	7908.6	
670.46	8480.6	
670.64	7245	
670.83	7562.5	
671.01	7731.1	
671.2	8434.2	
671.38	6475	
671.57	6458.6	
671.76	9050	
671.94	9569.5	
672.13	6318.7	
672.31	7429.3	
672.5	8604.9	
672.69	7814.4	
672.87	6456.6	
673.06	6718.7	
673.24	8429.4	
673.43	7845.8	
673.61	7258	
673.8	6733.7	
673.98	8594.6	
674.17	8788.5	
674.36	7404.8	
674.54	7236.8	
674.73	8325	
674.91	8602.8	
675.1	6881.2	
675.28	6554.9	
675.47	8121.6	
675.65	8735.3	
675.84	6799.3	
676.03	7180.2	
676.21	7919.5	
676.4	7413	
676.58	7561.1	
676.77	7260.7	
676.95	9338.7	
677.14	7770.7	
677.32	6457.2	
677.51	6260.6	
677.69	8598.7	
677.88	7561.1	
678.06	6345.3	
678.25	6520.7	
678.44	8032.1	
678.62	7845.1	
678.81	6205.3	
678.99	7118.7	
679.18	8938	
679.36	8434.2	
679.55	6767.2	
679.73	7346.7	
679.92	8510	
680.1	7908.6	
680.29	8039.6	
680.47	6747.4	
680.66	7778.2	
680.84	8764.6	
681.03	6019.7	
681.21	7115.3	
681.4	7900.4	
681.58	7671.7	
681.77	6441.5	
681.95	6339.8	
682.14	8806.9	
682.32	9025.4	
682.51	7428	
682.69	6154.8	
682.88	7815	
683.06	8417.8	
683.25	7045.7	
683.43	7460.8	
683.62	7971.4	
683.8	8394.6	
683.99	7516	
684.17	6735.8	
684.36	9090.3	
684.54	7688.8	
684.73	5840.8	
684.91	6055.2	
685.1	8032.8	
685.28	7363.1	
685.46	6644.3	
685.65	6789.7	
685.83	8376.9	
686.02	7694.9	
686.2	6204.7	
686.39	6241.5	
686.57	7516	
686.76	8961.9	
686.94	6211.5	
687.13	6436.8	
687.31	8306.6	
687.5	7778.9	
687.68	5897.5	
687.86	7172	
688.05	9347.6	
688.23	7240.3	
688.42	7161.1	
688.6	6363	
688.79	7701.7	
688.97	7701.7	
689.16	6741.9	
689.34	5672.9	
689.52	8411	
689.71	8651.3	
689.89	7088.7	
690.08	6363	
690.26	7940	
690.45	7824.6	
690.63	7241.6	
690.81	6412.9	
691	7658.7	
691.18	7630.7	
691.37	6621.1	
691.55	8878.6	
691.74	7522.9	
691.92	9632.3	
692.1	6653.2	
692.29	6084.5	
692.47	7830.7	
692.66	7049.1	
692.84	6279.8	
693.02	6935.1	
693.21	7338.6	
693.39	7767.3	
693.58	6918.7	
693.76	6473.6	
693.94	9105.3	
694.13	8863.6	
694.31	6412.9	
694.5	7497.6	
694.68	7704.5	
694.86	8142	
695.05	6783.6	
695.23	7206.8	
695.42	8412.4	
695.6	10841	
695.78	7429.3	
695.97	6435.4	
696.15	8411	
696.34	7737.9	
696.52	6257.9	
696.7	7096.2	
696.89	8115.4	
697.07	7451.9	
697.25	6894.8	
697.44	8560.5	
697.62	8019.2	
697.81	8519.6	
697.99	6639.5	
698.17	7140.6	
698.36	7413	
698.54	8097.7	
698.72	6956.9	
698.91	6029.2	
699.09	7760.4	
699.28	7556.3	
699.46	6599.2	
699.64	6547.4	
699.83	7528.3	
700.01	8732.5	
700.19	7476.5	
700.38	5824.4	
700.56	8830.8	
700.74	7688.8	
700.93	6229.2	
701.11	7101	
701.29	8269.7	
701.48	9336	
701.66	6582.2	
701.84	6528.9	
702.03	7763.8	
702.21	8516.1	
702.39	6087.2	
702.58	6698.9	
702.76	8197.3	
702.94	8359.1	
703.13	6075.6	
703.31	8587.8	
703.49	7550.9	
703.68	8933.9	
703.86	6307.7	
704.04	7294.9	
704.23	8089.5	
704.41	8556.4	
704.59	6436.1	
704.78	7697.6	
704.96	9273.2	
705.14	8573.5	
705.33	6219.7	
705.51	7090.1	
705.69	7964.6	
705.87	8794	
706.06	7390.4	
706.24	6167.8	
706.42	8276.5	
706.61	8518.2	
706.79	7386.3	
706.97	6227.9	
707.16	7707.2	
707.34	8316.1	
707.52	7333.1	
707.7	6528.2	
707.89	7857.4	
708.07	7434.1	
708.25	7380.9	
708.44	7479.2	
708.62	7763.2	
708.8	8904.6	
708.98	7646.4	
709.17	6617	
709.35	8305.2	
709.53	8258.8	
709.72	6183.5	
709.9	6457.9	
710.08	8454.7	
710.26	8523	
710.45	7980.3	
710.63	6562.4	
710.81	8135.2	
710.99	8133.8	
711.18	7212.9	
711.36	6652.5	
711.54	7928.4	
711.72	8555.7	
711.91	6693.4	
712.09	6152.8	
712.27	8045.8	
712.45	8691.6	
712.64	7035.5	
712.82	5856.5	
713	7344.7	
713.18	7496.2	
713.37	5976.7	
713.55	7146	
713.73	8285.4	
713.91	6785.6	
714.1	6100.2	
714.28	5582.1	
714.46	7864.2	
714.64	6985.6	
714.83	5040.7	
715.01	5876.3	
715.19	7042.3	
715.37	6477.7	
715.55	5562.3	
715.74	5920.7	
715.92	7979.6	
716.1	5912.5	
716.28	6976.7	
716.47	6003.3	
716.65	6704.4	
716.83	6867.5	
717.01	5864.7	
717.19	5997.8	
717.38	9007	
717.56	6481.8	
717.74	6264.7	
717.92	5413.5	
718.1	7845.1	
718.29	7091.4	
718.47	5112.4	
718.65	5787.6	
718.83	7899.7	
719.01	7740	
719.2	4951.3	
719.38	6070.9	
719.56	7359	
719.74	8983.1	
719.92	5586.2	
720.11	6640.2	
720.29	7347.4	
720.47	6516.6	
720.65	5024.3	
720.83	5970.5	
721.02	6791.7	
721.2	6502.3	
721.38	6035.4	
721.56	5248.9	
721.74	6029.9	
721.92	6364.4	
722.11	6511.2	
722.29	6196.5	
722.47	7580.9	
722.65	6660.7	
722.83	5294.7	
723.01	6260.6	
723.2	6710.5	
723.38	7047.1	
723.56	4652.3	
723.74	5832.6	
723.92	6280.4	
724.1	7445	
724.29	5102.2	
724.47	6421.7	
724.65	6350.1	
724.83	6294.1	
725.01	5027.1	
725.19	6034	
725.37	6357.6	
725.56	6471.6	
725.74	4889.9	
725.92	5190.2	
726.1	6268.1	
726.28	6593.1	
726.46	5644.9	
726.64	5328.8	
726.83	6588.3	
727.01	6879.1	
727.19	4951.3	
727.37	5710.4	
727.55	6733	
727.73	7222.5	
727.91	4868	
728.09	4767.7	
728.28	7299.6	
728.46	8012.3	
728.64	6032.6	
728.82	5920.7	
729	8499.1	
729.18	7694.9	
729.36	5207.3	
729.54	7511.9	
729.72	8858.8	
729.91	7059.3	
730.09	7228.6	
730.27	5942.5	
730.45	6903	
730.63	7620.5	
730.81	6571.9	
730.99	5532.9	
731.17	8156.4	
731.35	6671.6	
731.53	6171.2	
731.71	5735	
731.9	7855.3	
732.08	8028.7	
732.26	5936.4	
732.44	5653.8	
732.62	8028.7	
732.8	7581.6	
732.98	6428.6	
733.16	5412.1	
733.34	7573.4	
733.52	6322.8	
733.7	5943.2	
733.88	6288.6	
734.07	7429.3	
734.25	7119.4	
734.43	5394.3	
734.61	7068.9	
734.79	8802.9	
734.97	6990.4	
735.15	5514.5	
735.33	5879	
735.51	7445.7	
735.69	7090.8	
735.87	7070.3	
736.05	6130.9	
736.23	7297.6	
736.41	7025.2	
736.59	5994.4	
736.77	6127.5	
736.95	7832.1	
737.13	7149.5	
737.32	5622.4	
737.5	5908.4	
737.68	8364.6	
737.86	7063.4	
738.04	5438.7	
738.22	7385.7	
738.4	6807.4	
738.58	7138.5	
738.76	6120	
738.94	5026.4	
739.12	6995.9	
739.3	6895.5	
739.48	6744	
739.66	6526.2	
739.84	7292.8	
740.02	7197.9	
740.2	5104.9	
740.38	5524.7	
740.56	7709.2	
740.74	6567.8	
740.92	6210.8	
741.1	6134.3	
741.28	7084.6	
741.46	6939.2	
741.64	5679	
741.82	6196.5	
742	7087.3	
742.18	7066.9	
742.36	5897.5	
742.54	5477	
742.72	7739.3	
742.9	6410.1	
743.08	6363	
743.26	5145.9	
743.44	7916.1	
743.62	7807.5	
743.8	6487.3	
743.98	5516.5	
744.16	7408.9	
744.34	7100.3	
744.52	6415.6	
744.7	6265.4	
744.88	7563.8	
745.06	7158.3	
745.24	6354.8	
745.42	6498.2	
745.6	7673.1	
745.78	7392.5	
745.96	5098.8	
746.14	5511.1	
746.32	8471.8	
746.5	7580.2	
746.68	6107	
746.86	5567.1	
747.03	8131.1	
747.21	6391	
747.39	6010.1	
747.57	5570.5	
747.75	7165.2	
747.93	7673.1	
748.11	5567.1	
748.29	5427.8	
748.47	8776.2	
748.65	6958.3	
748.83	6306.4	
749.01	5978.7	
749.19	7430.7	
749.37	6542.6	
749.55	5876.3	
749.73	5941.8	
749.91	7123.5	
750.09	6744	
750.26	6005.3	
750.44	5412.8	
750.62	7209.5	
750.8	7061.4	
750.98	5150.6	
751.16	5559.6	
751.34	7210.2	
751.52	6488.6	
751.7	6446.3	
751.88	5275.6	
752.06	7644.4	
752.24	7517.4	
752.42	5151.3	
752.59	5510.4	
752.77	7032.7	
752.95	8339.3	
753.13	6287.9	
753.31	5739.1	
753.49	6724.2	
753.67	7207.5	
753.85	6035.4	
754.03	5515.9	
754.21	7455.3	
754.38	7812.3	
754.56	5615.5	
754.74	4570.4	
754.92	6574.7	
755.1	7280.5	
755.28	4513.7	
755.46	4464.6	
755.64	7805.5	
755.82	7827.3	
755.99	4483.7	
756.17	4667.3	
756.35	5091.3	
756.53	6760.3	
756.71	3376.4	
756.89	4389.5	
757.07	6340.5	
757.25	5426.4	
757.42	5094	
757.6	5928.9	
757.78	6589	
757.96	5522	
758.14	4790.2	
758.32	4307.6	
758.5	5046.2	
758.67	5896.1	
758.85	4553.3	
759.03	4722.6	
759.21	6064.7	
759.39	5502.9	
759.57	4141.7	
759.75	5432.6	
759.92	6759	
760.1	5991.7	
760.28	5777.3	
760.46	6094.8	
760.64	5913.9	
760.82	5537.7	
760.99	5684.5	
761.17	4878.3	
761.35	6724.2	
761.53	5776.6	
761.71	5007.3	
761.89	5769.8	
762.06	6663.4	
762.24	6283.9	
762.42	5154.7	
762.6	5005.2	
762.78	6305.7	
762.96	6976.1	
763.13	5695.4	
763.31	5270.8	
763.49	7109.2	
763.67	6231.3	
763.85	6178.7	
764.02	6784.2	
764.2	7444.4	
764.38	6543.9	
764.56	5157.5	
764.74	6076.3	
764.91	7649.2	
765.09	6429.3	
765.27	4802.5	
765.45	4629.1	
765.63	7531.1	
765.8	7417.1	
765.98	4386.7	
766.16	4711	
766.34	5961.6	
766.52	5672.9	
766.69	5660.6	
766.87	4511.7	
767.05	6345.3	
767.23	7139.9	
767.41	4914.4	
767.58	5083.7	
767.76	6926.2	
767.94	6936.5	
768.12	4918.5	
768.29	5745.9	
768.47	6378.7	
768.65	7150.1	
768.83	4494.6	
769	5732.9	
769.18	5902.9	
769.36	6649.1	
769.54	5704.3	
769.72	4515.8	
769.89	6917.4	
770.07	7043	
770.25	4829.8	
770.43	6191	
770.6	7660.8	
770.78	8110.6	
770.96	5046.2	
771.14	4927.4	
771.31	6783.6	
771.49	6182.1	
771.67	4209.9	
771.85	4422.2	
772.02	5341.8	
772.2	6114.6	
772.38	5178.6	
772.55	4703.5	
772.73	6399.9	
772.91	6106.4	
773.09	5044.1	
773.26	5157.5	
773.44	6370.5	
773.62	6044.2	
773.8	4543.1	
773.97	4263.2	
774.15	6406	
774.33	5993	
774.5	4399.7	
774.68	4752	
774.86	6595.8	
775.04	5975.3	
775.21	4502.8	
775.39	4386.7	
775.57	6226.5	
775.74	6728.9	
775.92	4244.8	
776.1	4161.5	
776.27	6214.2	
776.45	7539.9	
776.63	4389.5	
776.81	3946.4	
776.98	5825.8	
777.16	6978.1	
777.34	4574.5	
777.51	4544.4	
777.69	5818.3	
777.87	5558.9	
778.04	4572.4	
778.22	5210	
778.4	5659.9	
778.57	6271.6	
778.75	3814.7	
778.93	4128.7	
779.1	5348.6	
779.28	5187.5	
779.46	3823.6	
779.64	4303.5	
779.81	6356.9	
779.99	7338.6	
780.17	5147.2	
780.34	5292	
780.52	5856.5	
780.69	5986.2	
780.87	4603.2	
781.05	4147.1	
781.22	5948	
781.4	5957.5	
781.58	4315.8	
781.75	3472.7	
781.93	5993.7	
782.11	5301.5	
782.28	5218.9	
782.46	4343.7	
782.64	5109	
782.81	6148	
782.99	4373.8	
783.17	4367	
783.34	5984.2	
783.52	5127.4	
783.69	4517.8	
783.87	5313.8	
784.05	5150.6	
784.22	5232.6	
784.4	5385.5	
784.58	4650.9	
784.75	6171.9	
784.93	5255.1	
785.1	4270.7	
785.28	4911	
785.46	5905.7	
785.63	5225.7	
785.81	4259.8	
785.99	4067.3	
786.16	5403.9	
786.34	5751.4	
786.51	4116.4	
786.69	4547.9	
786.87	4960.9	
787.04	5495.4	
787.22	3941.7	
787.39	4882.4	
787.57	5189.6	
787.75	6292.7	
787.92	5141.8	
788.1	5061.2	
788.27	5257.1	
788.45	4958.8	
788.63	4782.7	
788.8	3416.7	
788.98	5610.1	
789.15	4936.3	
789.33	3576.4	
789.5	4228.4	
789.68	6103.6	
789.86	6294.1	
790.03	4659.1	
790.21	4147.1	
790.38	6115.9	
790.56	5279.7	
790.73	3930.1	
790.91	3978.5	
791.09	5173.2	
791.26	5956.9	
791.44	4235.2	
791.61	3575.1	
791.79	5150	
791.96	5236	
792.14	3736.2	
792.32	3326.6	
792.49	5203.9	
792.67	5302.9	
792.84	3771	
793.02	3629	
793.19	5621	
793.37	6429.9	
793.54	3294.5	
793.72	3691.1	
793.89	6475	
794.07	5180.7	
794.25	4356.7	
794.42	3393.5	
794.6	6254.5	
794.77	5847	
794.95	4536.9	
795.12	4003.8	
795.3	5147.2	
795.47	5796.4	
795.65	4422.9	
795.82	4219.5	
796	4937	
796.17	6955.6	
796.35	4046.1	
796.52	4775.2	
796.7	5681.7	
796.87	5871.5	
797.05	4993.6	
797.22	4961.5	
797.4	5726.8	
797.57	6849.8	
797.75	4179.9	
797.92	3917.8	
798.1	6057.9	
798.27	5079.6	
798.45	3366.2	
798.62	3705.5	
798.8	5471.5	
798.97	6000.5	
799.15	4480.3	
799.32	4158.7	
799.5	4696	
799.67	5517.9	
799.85	4614.1	
800.02	3335.5	
800.2	5120.6	
800.37	5424.4	
800.55	4681	
800.72	4014.7	
800.9	5923.4	
801.07	6404	
801.25	5309	
801.42	4375.8	
801.6	5963.7	
801.77	5656.5	
801.95	3998.3	
802.12	3845.4	
802.29	5642.8	
802.47	5593.7	
802.64	4314.4	
802.82	3287	
802.99	5083.1	
803.17	6098.2	
803.34	4149.9	
803.52	3788.1	
803.69	6767.2	
803.87	4861.9	
804.04	4145.1	
804.21	4304.8	
804.39	6259.3	
804.56	5324	
804.74	3520.5	
804.91	4346.5	
805.09	5114.5	
805.26	5250.3	
805.44	3597.6	
805.61	4014.7	
805.78	5837.4	
805.96	5778.7	
806.13	4357.4	
806.31	4643.4	
806.48	4662.5	
806.66	5214.1	
806.83	4286.4	
807	4244.8	
807.18	5070.1	
807.35	5500.2	
807.53	4218.8	
807.7	3381.9	
807.87	6330.3	
808.05	5171.1	
808.22	4670.7	
808.4	3293.1	
808.57	5171.8	
808.74	4792.2	
808.92	3875.4	
809.09	4924	
809.27	4954.7	
809.44	5665.4	
809.61	3349.8	
809.79	3707.5	
809.96	6303	
810.14	5952.8	
810.31	3303.4	
810.48	4074.1	
810.66	5206.6	
810.83	6005.3	
811.01	3842	
811.18	4272.1	
811.35	5890	
811.53	4603.8	
811.7	4635.2	
811.87	4366.3	
812.05	5163.6	
812.22	5019.6	
812.39	3730.7	
812.57	3602.4	
812.74	5139.7	
812.92	6892.1	
813.09	4022.9	
813.26	4394.9	
813.44	6537.1	
813.61	5028.4	
813.78	3309.5	
813.96	4537.6	
814.13	5150.6	
814.3	4847.5	
814.48	4915.1	
814.65	4023.6	
814.82	6454.5	
815	4904.9	
815.17	4186	
815.34	5075.5	
815.52	5047.6	
815.69	5041.4	
815.87	4136.9	
816.04	3467.9	
816.21	5139	
816.38	4511	
816.56	3986	
816.73	3687.7	
816.9	6470.9	
817.08	5968.5	
817.25	3782.6	
817.42	4749.9	
817.6	4674.8	
817.77	5234.6	
817.94	4188.8	
818.12	3656.3	
818.29	4849.6	
818.46	7707.2	
818.64	3842	
818.81	3590.1	
818.98	4788.8	
819.16	7015	
819.33	4408.6	
819.5	4124.6	
819.67	5530.2	
819.85	6180.8	
820.02	4063.9	
820.19	4351.3	
820.37	5380	
820.54	4943.8	
820.71	4237.9	
820.88	5257.1	
821.06	5424.4	
821.23	4919.2	
821.4	4212.7	
821.58	4147.8	
821.75	5870.8	
821.92	5253	
822.09	3339.6	
822.27	3452.9	
822.44	5195	
822.61	5074.2	
822.79	3401	
822.96	6614.3	
823.13	5634	
823.3	4852.3	
823.48	3909.6	
823.65	3556.6	
823.82	5877.7	
823.99	4714.4	
824.17	5030.5	
824.34	3581.9	
824.51	6777.4	
824.68	5226.4	
824.86	3751.2	
825.03	4260.5	
825.2	5105.6	
825.37	6209.4	
825.55	3732.1	
825.72	4230.4	
825.89	6848.4	
826.06	6311.2	
826.24	4082.3	
826.41	4070	
826.58	6232	
826.75	5494	
826.92	3136.1	
827.1	3549.8	
827.27	8546.9	
827.44	6794.5	
827.61	3892.5	
827.79	4679.6	
827.96	4928.1	
828.13	5250.3	
828.3	4022.9	
828.47	3388.7	
828.65	5408.7	
828.82	5339.7	
828.99	5291.3	
829.16	4534.9	
829.34	5847.6	
829.51	5581.4	
829.68	4201.1	
829.85	4425	
830.02	6035.4	
830.2	5776	
830.37	3222.8	
830.54	5069.4	
830.71	6589.7	
830.88	5097.4	
831.05	3265.8	
831.23	3821.5	
831.4	6283.2	
831.57	7088.7	
831.74	3897.3	
831.91	3433.8	
832.09	5347.2	
832.26	5791.7	
832.43	3971.7	
832.6	4491.2	
832.77	5396.4	
832.94	6194.4	
833.12	3168.2	
833.29	3941	
833.46	4981.3	
833.63	7278.5	
833.8	4301.4	
833.97	4009.9	
834.15	5842.9	
834.32	5542.5	
834.49	4169	
834.66	4199	
834.83	6008.7	
835	4838	
835.17	3857	
835.35	3913	
835.52	5663.3	
835.69	5549.3	
835.86	4063.9	
836.03	3336.1	
836.2	5744.6	
836.37	5332.9	
836.55	3973.1	
836.72	3750.5	
836.89	5307.7	
837.06	5735.7	
837.23	4064.5	
837.4	4419.5	
837.57	6605.4	
837.75	7299.6	
837.92	3621.5	
838.09	3872	
838.26	5287.9	
838.43	6131.6	
838.6	4201.7	
838.77	3724.6	
838.94	6952.2	
839.11	6585.6	
839.29	3999.7	
839.46	3099.9	
839.63	5685.2	
839.8	5397.1	
839.97	3906.2	
840.14	3890.5	
840.31	5492.7	
840.48	5737	
840.65	3168.2	
840.82	3812.6	
841	5727.5	
841.17	5685.8	
841.34	3559.4	
841.51	3603.1	
841.68	5653.1	
841.85	5414.8	
842.02	3706.8	
842.19	3069.2	
842.36	5464.7	
842.53	5525.4	
842.7	3598.3	
842.87	4348.5	
843.05	7229.3	
843.22	5433.9	
843.39	3384.6	
843.56	3653.6	
843.73	5189.6	
843.9	5840.8	
844.07	5848.3	
844.24	4810	
844.41	8473.1	
844.58	5005.9	
844.75	3429	
844.92	3731.4	
845.09	5773.9	
845.26	5722.7	
845.43	3541.6	
845.6	3725.9	
845.77	5757.5	
845.94	5492.7	
846.12	3972.4	
846.29	4187.4	
846.46	6016.9	
846.63	5707	
846.8	3577.8	
846.97	4168.3	
847.14	6151.4	
847.31	5679.7	
847.48	3988.1	
847.65	4420.2	
847.82	6023.1	
847.99	5983.5	
848.16	4730.8	
848.33	4442.7	
848.5	5260.5	
848.67	6223.8	
848.84	3478.8	
849.01	3743.7	
849.18	5126.1	
849.35	4845.5	
849.52	4435.2	
849.69	3482.2	
849.86	5897.5	
850.03	6182.8	
850.2	3543.7	
850.37	4329.4	
850.54	6107	
850.71	5356.8	
850.88	4313	
851.05	3483.6	
851.22	5644.9	
851.39	6296.1	
851.56	3370.3	
851.73	4104.8	
851.9	5025	
852.07	6052.4	
852.24	3913	
852.41	3517	
852.58	5604.6	
852.75	5156.8	
852.92	3957.4	
853.09	3451.5	
853.26	5255.1	
853.43	6154.1	
853.6	3506.1	
853.77	3027.6	
853.94	6280.4	
854.11	5737.7	
854.28	5248.9	
854.44	3846.1	
854.61	6697.5	
854.78	5793	
854.95	3573.7	
855.12	4415.4	
855.29	4600.4	
855.46	6390.3	
855.63	3512.3	
855.8	4956.1	
855.97	5255.1	
856.14	6096.8	
856.31	4999.1	
856.48	3873.4	
856.65	5259.9	
856.82	5023	
856.99	3405.8	
857.16	3827	
857.33	7063.4	
857.49	5420.3	
857.66	3749.1	
857.83	4073.4	
858	5343.2	
858.17	5460.6	
858.34	3327.3	
858.51	3487	
858.68	6459.3	
858.85	6471.6	
859.02	4095.9	
859.19	4353.3	
859.36	5003.9	
859.52	5091.3	
859.69	3554.6	
859.86	4209.9	
860.03	5023	
860.2	6292	
860.37	3203	
860.54	3564.8	
860.71	5969.8	
860.88	6401.3	
861.05	3990.8	
861.21	4498	
861.38	6432	
861.55	4884.4	
861.72	3195.5	
861.89	3936.2	
862.06	6027.2	
862.23	6497.5	
862.4	3489.7	
862.56	3760.1	
862.73	5819.6	
862.9	5498.1	
863.07	4132.8	
863.24	3209.2	
863.41	4917.2	
863.58	5020.9	
863.75	3575.8	
863.91	4166.3	
864.08	6343.9	
864.25	5861.3	
864.42	4472.8	
864.59	4965	
864.76	6679.8	
864.93	5007.3	
865.09	3435.1	
865.26	3750.5	
865.43	6244.3	
865.6	6639.5	
865.77	3089	
865.94	3529.3	
866.1	6297.5	
866.27	6027.2	
866.44	5305.6	
866.61	3393.5	
866.78	5490.6	
866.95	5837.4	
867.11	3434.4	
867.28	3143.6	
867.45	6040.8	
867.62	5104.9	
867.79	4090.5	
867.96	3506.8	
868.12	5000.5	
868.29	6023.8	
868.46	3501.3	
868.63	4745.8	
868.8	6229.2	
868.97	5957.5	
869.13	3725.9	
869.3	3694.5	
869.47	5799.2	
869.64	6045.6	
869.81	3601	
869.97	3578.5	
870.14	5710.4	
870.31	6445.6	
870.48	3398.9	
870.65	4391.5	
870.81	5362.3	
870.98	5318.6	
871.15	4055	
871.32	3637.9	
871.48	5865.4	
871.65	6484.6	
871.82	3493.2	
871.99	3860.4	
872.16	6883.9	
872.32	6206.7	
872.49	3517.7	
872.66	3576.4	
872.83	5961	
872.99	5242.1	
873.16	4077.5	
873.33	3486.3	
873.5	5520.6	
873.67	5616.2	
873.83	3725.3	
874	4738.3	
874.17	5735.7	
874.34	6819.7	
874.5	4557.4	
874.67	4379.9	
874.84	6374.6	
875.01	5008.6	
875.17	4960.2	
875.34	3532.7	
875.51	5638.7	
875.68	6817.7	
875.84	4263.2	
876.01	5247.6	
876.18	5848.3	
876.34	5861.3	
876.51	3550.5	
876.68	3440.6	
876.85	5379.3	
877.01	6217	
877.18	5165	
877.35	3535.5	
877.52	5514.5	
877.68	5007.3	
877.85	3417.4	
878.02	3474.7	
878.18	5509	
878.35	5213.4	
878.52	2822.8	
878.69	3973.1	
878.85	5943.9	
879.02	5857.2	
879.19	5044.8	
879.35	3889.8	
879.52	5926.8	
879.69	6127.5	
879.86	3061	
880.02	3943.7	
880.19	5485.8	
880.36	6720.8	
880.52	4027	
880.69	4220.2	
880.86	6050.4	
881.02	6094.8	
881.19	3891.8	
881.36	3801	
881.52	5938.4	
881.69	5218.9	
881.86	3777.1	
882.02	3747.8	
882.19	6186.9	
882.36	7237.5	
882.52	3650.2	
882.69	5012.7	
882.86	5666.7	
883.02	5634	
883.19	4374.5	
883.36	4050.9	
883.52	6019.7	
883.69	6855.2	
883.86	3596.2	
884.02	3261.7	
884.19	6018.3	
884.36	5491.3	
884.52	4001	
884.69	3729.4	
884.86	5227.1	
885.02	6574	
885.19	3891.1	
885.36	4052.2	
885.52	5458.5	
885.69	5652.4	
885.86	5156.8	
886.02	4558.8	
886.19	5979.4	
886.35	5428.5	
886.52	3880.9	
886.69	4967	
886.85	5068.7	
887.02	6363	
887.19	6363	
887.35	6363	
887.52	6363	
887.68	6363	
887.85	6363	
888.02	6363	
888.18	6363	
888.35	6363	
888.51	6363	
888.68	6363	
888.85	6363	
889.01	6363	
889.18	6363	
889.35	6363	
889.51	6363	
889.68	6363	
889.84	6363	
890.01	6363	
890.17	6363	
890.34	6363	
890.51	6363	
890.67	6363	
890.84	6363	
891	6363	
891.17	6363	
891.34	6363	
891.5	6363	
891.67	6363	
891.83	6363	
892	6363	
892.16	6363	
892.33	6363	
892.5	6363	
892.66	6363	
892.83	6363	
892.99	6363	
893.16	6363	
893.32	6363	
893.49	6363	
893.65	6363	
893.82	6363	
893.99	6363	
894.15	6363	
894.32	6363	
894.48	6363	
894.65	6363	
894.81	6363	
894.98	6363	
895.14	6363	
895.31	6363	
895.47	6363	
895.64	6363	
895.81	6363	
895.97	6363	
896.14	6363	
896.3	6363	
896.47	6363	
896.63	6363	
896.8	6363	
896.96	6363	
897.13	6363	
897.29	6363	
897.46	6363	
897.62	6363	
897.79	6363	
897.95	6363	
898.12	6363	
898.28	6363	
898.45	6363	
898.61	6363	
898.78	6363	
898.94	6363	
899.11	6363	
899.27	6363	
899.44	6363	
899.6	6363	
899.77	6363	
899.93	6363	
900.1	6363	
900.26	6363	
900.43	6363	
900.59	6363	
900.76	6363	
900.92	6363	
901.09	6363	
901.25	6363	
901.42	6363	
901.58	6363	
901.75	6363	
901.91	6363	
902.07	6363	
902.24	6363	
902.4	6363	
902.57	6363	
902.73	6363	
902.9	6363	
903.06	6363	
903.23	6363	
903.39	6363	
903.56	6363	
903.72	6363	
903.88	6363	
904.05	6363	
904.21	6363	
904.38	6363	
904.54	6363	
904.71	6363	
904.87	6363	
905.03	6363	
905.2	6363	
905.36	6363	
905.53	6363	
905.69	6363	
905.86	6363	
906.02	6363	
906.18	6363	
906.35	6363	
906.51	6363	
906.68	6363	
906.84	6363	
907.01	6363	
907.17	6363	
907.33	6363	
907.5	6363	
907.66	6363	
907.83	6363	
907.99	6363	
908.15	6363	
908.32	6363	
908.48	6363	
908.65	6363	
908.81	6363	
908.97	6363	
909.14	6363	
909.3	6363	
909.47	6363	
909.63	6363	
909.79	6363	
909.96	6363	
910.12	6363	
910.28	6363	
910.45	6363	
910.61	6363	
910.78	6363	
910.94	6363	
911.1	6363	
911.27	6363	
911.43	6363	
911.59	6363	
911.76	6363	
911.92	6363	
912.08	6363	
912.25	6363	
912.41	6363	
912.57	6363	
912.74	6363	
912.9	6363	
913.07	6363	
913.23	6363	
913.39	6363	
913.56	6363	
913.72	6363	
913.88	6363	
914.05	6363	
914.21	6363	
914.37	6363	
914.54	6363	
914.7	6363	
914.86	6363	
915.03	6363	
915.19	6363	
