Wavelength	Intensities	
nm	a.u.	
179.22	1757.3	
179.44	1773.2	
179.65	1741.5	
179.86	1804.9	
180.08	1752.4	
180.29	4179.2	
180.51	3102.7	
180.72	5176.6	
180.94	5914.5	
181.15	2882.9	
181.37	2840.5	
181.58	5032.5	
181.79	5213.4	
182.01	2996.9	
182.22	3198.9	
182.44	5251	
182.65	4491.2	
182.87	3968.3	
183.08	3521.1	
183.29	5481.7	
183.51	4611.3	
183.72	3203.7	
183.94	4565.6	
184.15	4928.8	
184.37	4912.4	
184.58	2867.8	
184.79	3782.6	
185.01	4650.9	
185.22	5231.2	
185.44	3992.9	
185.65	3390.1	
185.86	4890.5	
186.08	4529.4	
186.29	2794.1	
186.51	2964.1	
186.72	4649.6	
186.94	5397.1	
187.15	3431.7	
187.36	3498.6	
187.58	6785.6	
187.79	5000.5	
188.01	3612.6	
188.22	5500.2	
188.43	5950.7	
188.65	5180	
188.86	2960.7	
189.08	3520.5	
189.29	4757.4	
189.5	4798.4	
189.72	3302.7	
189.93	3351.8	
190.15	5412.1	
190.36	6345.3	
190.57	3548.4	
190.79	3460.4	
191	5488.6	
191.22	5445.5	
191.43	3581.9	
191.64	2959.3	
191.86	5633.3	
192.07	5397.1	
192.29	3105.4	
192.5	3191.4	
192.71	5388.2	
192.93	4733.5	
193.14	3250.8	
193.35	3328.6	
193.57	4718.5	
193.78	5419.6	
194	2675.3	
194.21	3231.7	
194.42	4502.1	
194.64	4972.5	
194.85	3493.2	
195.07	4076.1	
195.28	4974.5	
195.49	4340.3	
195.71	4248.2	
195.92	3048.7	
196.13	5120.6	
196.35	5143.1	
196.56	4475.5	
196.78	3553.9	
196.99	6272.9	
197.2	5846.3	
197.42	3902.1	
197.63	3577.8	
197.84	4537.6	
198.06	5084.4	
198.27	3219.4	
198.48	4285	
198.7	4752.7	
198.91	4930.8	
199.13	3534.1	
199.34	3510.2	
199.55	5372.5	
199.77	4321.9	
199.98	3172.3	
200.19	3601.7	
200.41	4905.6	
200.62	4575.2	
200.83	3695.2	
201.05	3903.4	
201.26	4889.9	
201.47	4699.4	
201.69	3190.1	
201.9	3071.3	
202.11	4932.2	
202.33	5717.2	
202.54	3334.1	
202.76	3701.4	
202.97	5029.1	
203.18	5094	
203.4	3658.4	
203.61	3578.5	
203.82	5038.7	
204.04	4640	
204.25	3540.9	
204.46	3500	
204.68	4949.9	
204.89	5158.8	
205.1	3427.6	
205.32	3026.2	
205.53	5266.7	
205.74	5412.8	
205.96	2677.4	
206.17	3600.3	
206.38	5207.3	
206.6	5358.2	
206.81	4111.6	
207.02	3269.9	
207.24	5163.6	
207.45	5455.8	
207.66	3381.9	
207.88	2931.3	
208.09	5074.2	
208.3	4964.3	
208.52	3108.8	
208.73	3413.3	
208.94	4950.6	
209.15	5552	
209.37	3354.6	
209.58	3820.8	
209.79	5435.3	
210.01	4773.8	
210.22	2783.9	
210.43	2923.8	
210.65	4941.1	
210.86	5231.9	
211.07	3356.6	
211.29	3132	
211.5	5228.5	
211.71	4944.5	
211.93	3136.1	
212.14	3102	
212.35	4923.3	
212.56	5027.1	
212.78	3580.5	
212.99	2953.9	
213.2	5745.9	
213.42	4732.9	
213.63	3252.9	
213.84	3426.9	
214.06	4489.1	
214.27	4533.5	
214.48	3371	
214.69	3591.5	
214.91	5474.2	
215.12	5539.8	
215.33	3620.8	
215.55	3848.8	
215.76	5959.6	
215.97	5208	
216.18	3473.4	
216.4	3459.7	
216.61	4709	
216.82	5307	
217.04	3165.5	
217.25	3261	
217.46	5471.5	
217.67	5249.6	
217.89	2819.4	
218.1	2974.3	
218.31	5001.8	
218.53	5078.3	
218.74	3302.7	
218.95	3202.3	
219.16	4915.8	
219.38	5715.2	
219.59	3212.6	
219.8	3744.4	
220.01	6167.8	
220.23	4922	
220.44	4049.5	
220.65	3119.1	
220.87	5005.9	
221.08	5434.6	
221.29	2973	
221.5	3872	
221.72	6520	
221.93	4701.5	
222.14	3611.9	
222.35	4123.9	
222.57	4925.4	
222.78	5302.9	
222.99	3339.6	
223.2	3605.1	
223.42	5192.3	
223.63	5263.3	
223.84	2660.3	
224.05	2622.8	
224.27	6182.8	
224.48	5666.7	
224.69	4148.5	
224.9	3510.2	
225.12	5171.8	
225.33	4997	
225.54	2846.7	
225.75	3173.7	
225.97	4602.5	
226.18	4892.6	
226.39	3320.4	
226.6	3168.2	
226.82	4775.9	
227.03	4625	
227.24	3490.4	
227.45	2949.1	
227.67	5274.2	
227.88	5646.2	
228.09	3926	
228.3	3881.6	
228.52	5259.9	
228.73	4926.7	
228.94	3302	
229.15	2969.6	
229.36	4927.4	
229.58	4886.5	
229.79	3333.4	
230	3852.2	
230.21	5879	
230.43	5010	
230.64	3501.3	
230.85	3629	
231.06	5337	
231.28	5321.3	
231.49	2938.8	
231.7	3448.1	
231.91	5248.9	
232.12	4939	
232.34	3036.5	
232.55	3427.6	
232.76	5466.7	
232.97	5066	
233.18	3158.7	
233.4	3514.3	
233.61	5093.3	
233.82	4631.8	
234.03	3306.1	
234.25	3202.3	
234.46	6595.1	
234.67	4967	
234.88	3616	
235.09	3189.4	
235.31	5145.9	
235.52	4816.8	
235.73	3530.7	
235.94	3009.8	
236.15	4714.4	
236.37	5866.1	
236.58	3173.7	
236.79	3373	
237	5189.6	
237.21	4519.2	
237.43	3633.8	
237.64	2922.5	
237.85	8368.7	
238.06	4630.5	
238.27	3659	
238.48	3006.4	
238.7	5191.6	
238.91	4822.3	
239.12	3334.1	
239.33	3454.2	
239.54	4572.4	
239.76	4833.2	
239.97	3367.5	
240.18	3383.9	
240.39	5964.4	
240.6	5103.5	
240.82	3499.3	
241.03	2921.8	
241.24	4913.8	
241.45	5645.6	
241.66	3115	
241.87	3654.3	
242.09	5502.2	
242.3	5801.2	
242.51	3640.6	
242.72	3375.1	
242.93	5327.4	
243.14	4911	
243.36	3891.1	
243.57	4196.3	
243.78	5598.5	
243.99	5266	
244.2	3399.6	
244.41	3091.1	
244.63	4562.9	
244.84	5204.6	
245.05	3608.5	
245.26	3394.8	
245.47	5169.1	
245.68	5304.2	
245.9	4371.7	
246.11	3549.8	
246.32	4772.4	
246.53	5149.3	
246.74	5315.2	
246.95	2941.6	
247.16	4573.8	
247.38	4929.5	
247.59	2870.6	
247.8	3438.5	
248.01	4634.6	
248.22	4912.4	
248.43	3109.5	
248.64	3336.8	
248.86	4451.6	
249.07	4734.9	
249.28	3100.6	
249.49	3477.5	
249.7	5401.2	
249.91	5475.6	
250.12	2908.8	
250.34	2932.7	
250.55	5085.8	
250.76	4998.4	
250.97	3547.8	
251.18	3545	
251.39	5446.9	
251.6	5063.3	
251.81	3594.9	
252.03	3563.5	
252.24	4725.3	
252.45	5367.7	
252.66	2938.2	
252.87	3690.4	
253.08	4965.6	
253.29	6298.2	
253.5	2995.5	
253.72	4061.1	
253.93	4840	
254.14	5740.5	
254.35	3253.5	
254.56	3321.1	
254.77	5130.8	
254.98	4674.1	
255.19	3228.3	
255.41	4061.8	
255.62	5074.2	
255.83	5476.3	
256.04	3624.9	
256.25	3536.2	
256.46	5948	
256.67	4698	
256.88	3504.1	
257.09	3868.6	
257.31	4563.6	
257.52	4698.7	
257.73	4327.4	
257.94	3248.8	
258.15	4916.5	
258.36	4965	
258.57	4017.4	
258.78	2680.8	
258.99	5358.9	
259.2	4843.4	
259.41	3254.9	
259.63	3307.5	
259.84	5565	
260.05	5969.1	
260.26	4149.9	
260.47	3238.5	
260.68	5403.2	
260.89	4876.2	
261.1	3851.5	
261.31	3060.3	
261.52	5474.2	
261.73	5700.2	
261.95	4088.4	
262.16	3642	
262.37	5509	
262.58	5578	
262.79	4112.3	
263	3335.5	
263.21	4998.4	
263.42	4810.7	
263.63	3360.7	
263.84	3287.7	
264.05	5362.3	
264.26	5621.7	
264.47	4018.8	
264.69	3604.4	
264.9	5618.3	
265.11	5098.8	
265.32	3177.8	
265.53	3212.6	
265.74	5031.2	
265.95	4459.8	
266.16	3466.5	
266.37	3715.7	
266.58	5100.8	
266.79	4724.7	
267	3236.5	
267.21	2995.5	
267.42	4631.1	
267.63	4958.8	
267.84	3369.6	
268.06	2920.4	
268.27	5339.1	
268.48	5489.2	
268.69	3351.8	
268.9	3908.2	
269.11	5510.4	
269.32	4504.2	
269.53	3336.1	
269.74	3168.9	
269.95	5213.4	
270.16	4451.6	
270.37	3416.7	
270.58	3860.4	
270.79	4825.7	
271	5403.9	
271.21	3633.1	
271.42	3428.3	
271.63	5180	
271.84	4676.2	
272.05	2805	
272.26	3095.2	
272.47	4971.1	
272.68	5103.5	
272.89	3283.6	
273.11	3688.4	
273.32	4788.2	
273.53	5730.2	
273.74	3598.3	
273.95	3528	
274.16	5375.2	
274.37	4970.4	
274.58	3794.2	
274.79	2987.3	
275	5095.3	
275.21	5467.4	
275.42	4386.7	
275.63	3746.4	
275.84	5181.4	
276.05	6374	
276.26	3579.8	
276.47	3383.9	
276.68	4861.9	
276.89	5737.7	
277.1	3831.7	
277.31	3018	
277.52	5205.3	
277.73	5314.5	
277.94	2990	
278.15	3315	
278.36	5163.6	
278.57	4678.9	
278.78	3286.3	
278.99	3620.8	
279.2	4685.8	
279.41	4557.4	
279.62	4211.3	
279.83	3049.4	
280.04	5916.6	
280.25	4565.6	
280.46	4130.1	
280.67	3421.5	
280.88	4644.8	
281.09	5464	
281.3	3466.5	
281.51	4424.3	
281.72	4705.5	
281.93	5303.6	
282.14	3209.2	
282.35	3405.8	
282.56	5408.7	
282.77	5313.1	
282.98	3338.9	
283.19	4003.1	
283.4	6421.7	
283.61	4880.3	
283.82	3117.7	
284.03	4135.5	
284.24	5097.4	
284.45	5492	
284.66	4149.9	
284.87	3947.1	
285.08	5396.4	
285.29	5608	
285.5	2893.8	
285.71	3345	
285.92	5431.2	
286.12	5987.6	
286.33	4059.1	
286.54	3362.1	
286.75	5378	
286.96	4855.7	
287.17	3107.5	
287.38	4028.4	
287.59	4698.7	
287.8	4620.9	
288.01	3360	
288.22	3770.3	
288.43	5272.8	
288.64	4525.3	
288.85	3864.5	
289.06	3740.3	
289.27	5319.3	
289.48	5634	
289.69	4218.8	
289.9	3851.5	
290.11	5504.3	
290.32	4698	
290.53	3908.2	
290.74	3605.8	
290.94	5250.3	
291.15	5346.6	
291.36	3140.9	
291.57	3783.3	
291.78	4764.9	
291.99	4452.3	
292.2	3124.5	
292.41	3666.5	
292.62	5321.3	
292.83	5193.6	
293.04	4439.3	
293.25	3144.3	
293.46	4836.6	
293.67	5448.3	
293.88	3168.9	
294.09	3082.9	
294.29	4633.2	
294.5	5036	
294.71	3408.5	
294.92	3245.3	
295.13	4801.1	
295.34	5872.9	
295.55	2902.7	
295.76	2878.8	
295.97	5335.6	
296.18	5877.7	
296.39	3074	
296.6	3171.6	
296.81	4981.3	
297.01	5275.6	
297.22	3337.5	
297.43	3231	
297.64	4728.8	
297.85	4661.9	
298.06	2702	
298.27	2927.2	
298.48	4967.7	
298.69	4702.1	
298.9	3500.7	
299.11	3168.2	
299.31	4613.4	
299.52	4624.3	
299.73	3665.2	
299.94	3592.1	
300.15	4990.2	
300.36	4682.3	
300.57	3578.5	
300.78	3548.4	
300.99	4849.6	
301.2	5070.1	
301.4	3190.7	
301.61	3455.6	
301.82	5127.4	
302.03	5316.5	
302.24	3829	
302.45	3022.8	
302.66	5188.2	
302.87	5479.7	
303.08	3244.7	
303.29	4244.1	
303.49	4767.7	
303.7	4962.2	
303.91	2895.1	
304.12	4061.1	
304.33	4522.6	
304.54	5103.5	
304.75	3276.1	
304.96	3058.3	
305.16	5279.7	
305.37	5842.9	
305.58	2809.8	
305.79	2964.1	
306	5240.8	
306.21	4487.8	
306.42	3269.2	
306.63	4720.6	
306.83	4845.5	
307.04	5403.2	
307.25	3528	
307.46	3469.3	
307.67	4367	
307.88	5276.3	
308.09	3168.9	
308.29	3280.2	
308.5	5043.5	
308.71	5429.8	
308.92	3467.9	
309.13	3077.4	
309.34	4864.6	
309.55	4890.5	
309.75	3960.8	
309.96	3603.7	
310.17	5335.6	
310.38	4736.3	
310.59	3796.9	
310.8	3041.9	
311.01	4846.2	
311.21	4852.3	
311.42	3092.4	
311.63	3181.2	
311.84	4758.8	
312.05	5027.1	
312.26	3522.5	
312.46	3842.7	
312.67	4844.8	
312.88	4549.2	
313.09	3103.4	
313.3	3037.8	
313.51	5649.7	
313.71	5875.6	
313.92	3119.7	
314.13	3240.6	
314.34	5124	
314.55	4868.7	
314.76	3919.1	
314.96	3410.6	
315.17	5066.7	
315.38	5250.3	
315.59	3119.1	
315.8	2953.9	
316.01	5648.3	
316.21	5702.9	
316.42	3039.2	
316.63	3438.5	
316.84	4855.1	
317.05	5510.4	
317.26	3606.5	
317.46	3275.4	
317.67	4943.8	
317.88	5275.6	
318.09	3893.9	
318.3	2875.3	
318.5	4791.6	
318.71	5184.8	
318.92	4961.5	
319.13	3631.7	
319.34	5361.6	
319.54	5481.7	
319.75	2914.9	
319.96	2809.1	
320.17	5207.3	
320.38	5446.9	
320.58	2850.8	
320.79	3411.2	
321	5430.5	
321.21	5555.5	
321.42	3430.3	
321.62	2947	
321.83	4642.1	
322.04	4993.6	
322.25	3301.3	
322.46	3161.4	
322.66	5050.3	
322.87	5221.6	
323.08	3786.7	
323.29	3014.6	
323.5	5813.5	
323.7	4586.8	
323.91	4083.6	
324.12	3777.8	
324.33	5020.9	
324.53	5292	
324.74	3595.6	
324.95	3781.9	
325.16	4483	
325.37	4808.6	
325.57	3133.4	
325.78	3201	
325.99	5074.9	
326.2	4545.8	
326.4	4273.4	
326.61	2944.3	
326.82	4913.1	
327.03	5053	
327.24	4302.8	
327.44	4028.4	
327.65	5194.3	
327.86	4270.7	
328.07	3633.1	
328.27	2988	
328.48	5511.1	
328.69	4567.7	
328.9	4406.5	
329.1	3298.6	
329.31	4914.4	
329.52	5595.1	
329.73	3141.6	
329.93	3431.7	
330.14	4994.3	
330.35	5158.8	
330.56	4968.4	
330.76	3750.5	
330.97	4818.9	
331.18	5076.2	
331.39	3444.7	
331.59	2845.3	
331.8	5457.2	
332.01	5489.9	
332.22	3200.3	
332.42	3629.7	
332.63	5079.6	
332.84	4693.9	
333.05	3464.5	
333.25	3181.9	
333.46	4739	
333.67	4977.9	
333.88	3231.7	
334.08	3601.7	
334.29	6569.9	
334.5	5505.6	
334.7	3070.6	
334.91	4319.8	
335.12	4649.6	
335.33	5248.3	
335.53	3421.5	
335.74	4912.4	
335.95	4803.9	
336.16	4616.1	
336.36	3424.9	
336.57	3918.4	
336.78	4565.6	
336.98	5434.6	
337.19	4173.1	
337.4	3356.6	
337.61	5924.8	
337.81	4590.9	
338.02	3195.5	
338.23	4003.1	
338.43	5599.8	
338.64	4685.8	
338.85	3170.3	
339.05	4054.3	
339.26	5704.3	
339.47	4493.9	
339.68	3134.1	
339.88	4513	
340.09	5173.2	
340.3	5353.4	
340.5	3646.7	
340.71	2880.1	
340.92	4599.1	
341.13	5536.3	
341.33	3033.7	
341.54	3680.2	
341.75	5184.1	
341.95	4851	
342.16	3510.2	
342.37	3784	
342.57	4605.9	
342.78	4906.9	
342.99	3800.3	
343.19	2879.4	
343.4	5324	
343.61	5180.7	
343.81	3355.3	
344.02	3067.9	
344.23	5360.2	
344.43	5608.7	
344.64	3850.2	
344.85	3760.1	
345.06	5184.8	
345.26	5447.6	
345.47	3624.2	
345.68	4164.9	
345.88	4476.9	
346.09	5398.4	
346.3	3662.5	
346.5	2785.2	
346.71	4894	
346.92	4719.2	
347.12	2902	
347.33	3593.5	
347.54	5325.4	
347.74	5733.6	
347.95	3590.1	
348.16	2760	
348.36	4835.9	
348.57	4653.7	
348.78	3592.1	
348.98	3827.7	
349.19	4915.1	
349.39	4471.4	
349.6	2960	
349.81	3195.5	
350.01	5201.8	
350.22	4730.1	
350.43	3524.6	
350.63	4067.9	
350.84	4973.8	
351.05	4778.6	
351.25	3160.7	
351.46	2907.4	
351.67	5442.1	
351.87	4685.1	
352.08	3377.1	
352.29	3790.8	
352.49	5312.4	
352.7	5133.6	
352.9	3072.6	
353.11	3708.2	
353.32	5911.1	
353.52	4852.3	
353.73	3034.4	
353.94	3781.2	
354.14	5193	
354.35	5074.9	
354.55	3155.2	
354.76	3501.3	
354.97	5204.6	
355.17	4983.4	
355.38	3011.2	
355.59	4035.9	
355.79	4709.6	
356	4977.9	
356.2	3466.5	
356.41	3065.1	
356.62	4490.5	
356.82	4872.8	
357.03	3764.8	
357.24	3362.8	
357.44	4676.2	
357.65	4848.2	
357.85	4386.1	
358.06	3542.3	
358.27	4568.3	
358.47	4666.6	
358.68	3012.6	
358.88	3680.2	
359.09	5174.5	
359.3	5500.8	
359.5	4254.3	
359.71	3859.1	
359.91	5849	
360.12	5271.5	
360.33	3681.6	
360.53	4131.4	
360.74	4747.9	
360.94	4827.7	
361.15	3900	
361.36	3225.6	
361.56	5479.7	
361.77	4988.9	
361.97	4254.3	
362.18	3445.4	
362.38	5485.1	
362.59	4674.8	
362.8	3244	
363	3088.3	
363.21	4477.5	
363.41	5053.7	
363.62	3648.8	
363.83	4507.6	
364.03	5174.5	
364.24	5907.7	
364.44	4651.6	
364.65	4588.1	
364.85	4928.8	
365.06	4693.3	
365.27	3388.7	
365.47	3397.6	
365.68	5814.9	
365.88	4922.6	
366.09	3712.3	
366.29	3436.5	
366.5	5149.3	
366.71	5519.3	
366.91	4489.1	
367.12	3852.2	
367.32	6055.2	
367.53	5430.5	
367.73	3861.8	
367.94	4655	
368.14	5386.8	
368.35	6038.1	
368.56	3860.4	
368.76	3630.4	
368.97	5484.5	
369.17	6885.3	
369.38	3393.5	
369.58	3627.6	
369.79	4662.5	
369.99	5759.6	
370.2	4493.9	
370.4	3745.1	
370.61	5240.8	
370.82	6248.4	
371.02	3663.8	
371.23	3064.4	
371.43	4642.7	
371.64	5728.9	
371.84	3692.5	
372.05	4630.5	
372.25	6729.6	
372.46	5506.3	
372.66	3687.7	
372.87	3629	
373.07	5527.5	
373.28	6910.5	
373.48	4504.2	
373.69	4232.5	
373.9	5193	
374.1	5138.4	
374.31	4528.7	
374.51	4101.4	
374.72	5844.9	
374.92	4902.8	
375.13	4653	
375.33	3944.4	
375.54	5488.6	
375.74	5002.5	
375.95	4052.2	
376.15	5050.3	
376.36	5558.9	
376.56	5466.7	
376.77	4157.4	
376.97	4427.7	
377.18	6494.8	
377.38	5602.6	
377.59	4750.6	
377.79	3744.4	
378	5466	
378.2	5842.2	
378.41	3801.7	
378.61	3660.4	
378.82	5897.5	
379.02	5137.7	
379.23	3969	
379.43	4917.9	
379.64	6019.7	
379.84	5640.8	
380.05	3824.2	
380.25	3794.9	
380.46	5735.7	
380.66	5330.9	
380.87	4937.7	
381.07	5204.6	
381.28	6247	
381.48	5692	
381.69	3851.5	
381.89	3837.9	
382.1	4861.2	
382.3	5853.8	
382.51	4807.9	
382.71	5498.1	
382.91	5746.6	
383.12	6126.2	
383.32	4155.3	
383.53	4328	
383.73	5619.6	
383.94	5452.4	
384.14	4332.1	
384.35	3545.7	
384.55	5375.9	
384.76	5748.6	
384.96	4165.6	
385.17	4416.1	
385.37	5735	
385.58	5113.8	
385.78	4369	
385.98	3439.2	
386.19	5322	
386.39	5660.6	
386.6	3928	
386.8	4164.2	
387.01	5698.1	
387.21	5812.8	
387.42	4553.3	
387.62	4987.5	
387.83	5212.8	
388.03	5634	
388.23	4205.8	
388.44	4917.2	
388.64	5009.3	
388.85	5087.8	
389.05	4525.3	
389.26	5054.4	
389.46	6755.6	
389.67	6233.3	
389.87	4552	
390.07	4642.7	
390.28	5518.6	
390.48	5225.1	
390.69	3936.9	
390.89	4193.6	
391.1	5373.9	
391.3	6139.1	
391.5	5163.6	
391.71	5676.3	
391.91	5971.9	
392.12	6731	
392.32	5319.3	
392.53	4602.5	
392.73	5519.3	
392.93	5627.1	
393.14	4336.9	
393.34	5031.2	
393.55	5941.8	
393.75	5551.4	
393.95	4336.2	
394.16	4246.8	
394.36	5407.3	
394.57	5910.4	
394.77	3919.1	
394.98	4220.9	
395.18	5283.8	
395.38	5556.8	
395.59	4979.3	
395.79	4147.1	
396	5547.3	
396.2	5978.7	
396.4	5000.5	
396.61	4928.1	
396.81	6174.6	
397.02	5498.8	
397.22	5210.7	
397.42	5218.2	
397.63	6199.2	
397.83	5489.2	
398.04	4192.2	
398.24	4731.5	
398.44	5978.7	
398.65	5175.2	
398.85	4119.8	
399.05	4250.2	
399.26	5639.4	
399.46	7003.4	
399.67	4522.6	
399.87	4286.4	
400.07	5895.4	
400.28	6188.3	
400.48	4419.5	
400.69	5291.3	
400.89	6420.4	
401.09	6716	
401.3	4425.7	
401.5	5353.4	
401.7	6974	
401.91	7176.8	
402.11	4795.7	
402.32	4880.3	
402.52	6537.8	
402.72	6410.1	
402.93	5158.2	
403.13	4094.6	
403.33	7058.7	
403.54	5867.4	
403.74	4767	
403.94	5387.5	
404.15	5982.1	
404.35	6968.6	
404.56	4491.2	
404.76	5975.3	
404.96	6338.5	
405.17	6133	
405.37	5612.8	
405.57	5001.8	
405.78	6516	
405.98	6053.8	
406.18	4731.5	
406.39	5479	
406.59	6585.6	
406.79	6125.5	
407	4496	
407.2	4550.6	
407.4	6600.6	
407.61	6603.3	
407.81	4596.3	
408.01	6188.3	
408.22	5597.8	
408.42	7343.3	
408.62	5631.9	
408.83	5242.1	
409.03	6227.2	
409.23	6307.1	
409.44	5447.6	
409.64	5617.6	
409.84	7368.6	
410.05	7321.5	
410.25	5705.6	
410.45	5485.1	
410.66	6993.8	
410.86	8944.8	
411.06	5993	
411.27	5853.1	
411.47	8841.1	
411.67	7210.9	
411.88	6085.2	
412.08	6329.6	
412.28	7708.6	
412.49	8175.5	
412.69	6015.6	
412.89	6079.7	
413.09	8086.1	
413.3	8017.1	
413.5	6205.3	
413.7	5896.1	
413.91	7439.6	
414.11	8161.8	
414.31	6199.2	
414.52	6583.5	
414.72	7888.8	
414.92	7873.8	
415.12	6056.5	
415.33	6534.4	
415.53	8226	
415.73	8461.5	
415.94	6919.4	
416.14	6337.1	
416.34	7505.8	
416.55	7273	
416.75	7449.8	
416.95	6978.1	
417.15	8360.5	
417.36	8884.8	
417.56	7705.1	
417.76	6893.5	
417.97	8526.4	
418.17	8461.5	
418.37	6608.1	
418.57	6662	
418.78	8269.7	
418.98	8032.1	
419.18	7559.1	
419.38	7314.7	
419.59	8036.9	
419.79	7702.4	
419.99	6514.6	
420.2	6817.7	
420.4	8404.2	
420.6	8544.1	
420.8	6495.5	
421.01	6358.3	
421.21	8301.1	
421.41	8405.5	
421.61	6759.7	
421.82	6589	
422.02	8023.3	
422.22	8701.1	
422.42	7243.7	
422.63	6830.7	
422.83	8071	
423.03	9101.2	
423.23	6960.4	
423.44	6126.2	
423.64	8066.3	
423.84	7675.1	
424.04	6554.9	
424.25	6214.9	
424.45	8862.2	
424.65	8727.1	
424.85	6037.4	
425.06	6589.7	
425.26	8834.9	
425.46	7892.2	
425.66	6842.9	
425.87	6689.3	
426.07	8528.4	
426.27	8380.3	
426.47	6733	
426.67	6177.4	
426.88	8815.1	
427.08	8371.4	
427.28	7060	
427.48	6165.8	
427.69	7443.7	
427.89	8008.9	
428.09	7023.9	
428.29	6163	
428.5	8530.5	
428.7	8163.9	
428.9	6161	
429.1	6639.5	
429.3	8168	
429.51	8480	
429.71	6374	
429.91	7095.5	
430.11	8528.4	
430.31	8674.5	
430.52	6749.4	
430.72	7119.4	
430.92	8969.4	
431.12	8625.4	
431.32	6620.4	
431.53	7014.3	
431.73	7783.6	
431.93	9129.2	
432.13	6426.5	
432.33	6455.9	
432.54	8084.7	
432.74	8368.7	
432.94	6387.6	
433.14	7212.3	
433.34	8634.2	
433.55	8339.3	
433.75	7382.2	
433.95	8921	
434.15	8487.5	
434.35	8396	
434.56	6722.8	
434.76	6429.9	
434.96	8599.4	
435.16	8975.6	
435.36	6674.3	
435.56	7702.4	
435.77	8428.8	
435.97	8582.4	
436.17	8235.6	
436.37	7701	
436.57	8415.8	
436.78	8543.4	
436.98	7516.7	
437.18	8178.2	
437.38	9224.1	
437.58	8571.4	
437.78	8259.5	
437.99	7157	
438.19	9087.5	
438.39	9729.2	
438.59	7126.9	
438.79	6679.1	
438.99	9548.3	
439.2	8467.7	
439.4	6498.2	
439.6	6629.3	
439.8	8706.6	
440	9620	
440.2	7535.8	
440.4	7752.2	
440.61	9347.6	
440.81	9782.5	
441.01	7195.2	
441.21	8055.3	
441.41	9992	
441.61	9479.4	
441.81	8421.2	
442.02	9239.8	
442.22	10349	
442.42	9685.5	
442.62	7352.2	
442.82	7438.9	
443.02	9973.6	
443.22	9201.5	
443.43	7832.1	
443.63	7460.8	
443.83	9050.7	
444.03	9035	
444.23	8669.1	
444.43	8290.9	
444.63	9509.4	
444.83	10442	
445.04	7791.8	
445.24	8781.7	
445.44	9893.7	
445.64	9890.3	
445.84	8282	
446.04	8311.3	
446.24	9076.6	
446.44	10037	
446.65	7470.3	
446.85	7925	
447.05	9260.9	
447.25	9881.4	
447.45	7854.6	
447.65	7401.4	
447.85	9397.4	
448.05	8954.4	
448.25	8277.9	
448.46	8183.7	
448.66	9472.5	
448.86	9167.4	
449.06	7435.5	
449.26	8301.1	
449.46	9742.9	
449.66	8900.5	
449.86	8065.6	
450.06	7979.6	
450.26	9207	
450.47	9818	
450.67	8278.6	
450.87	8477.2	
451.07	9881.4	
451.27	9698.5	
451.47	7683.3	
451.67	8339.3	
451.87	9451.4	
452.07	10251	
452.27	8071	
452.47	7876.5	
452.67	9673.2	
452.88	10136	
453.08	7406.8	
453.28	9187.9	
453.48	10777	
453.68	9665.7	
453.88	7936.6	
454.08	8066.3	
454.28	10071	
454.48	9766.8	
454.68	8555.7	
454.88	8953.7	
455.08	10121	
455.28	10169	
455.48	7869.7	
455.68	8562.6	
455.89	10854	
456.09	10492	
456.29	8301.1	
456.49	8537.3	
456.69	10786	
456.89	10267	
457.09	9044.5	
457.29	9338.7	
457.49	10482	
457.69	10671	
457.89	9011.7	
458.09	8464.3	
458.29	10572	
458.49	11151	
458.69	9542.9	
458.89	9117.6	
459.09	11449	
459.29	11549	
459.49	9195.4	
459.69	9762.7	
459.9	10930	
460.1	10837	
460.3	8914.1	
460.5	8817.9	
460.7	11138	
460.9	10802	
461.1	8616.5	
461.3	9771.5	
461.5	11716	
461.7	11404	
461.9	9363.3	
462.1	9539.4	
462.3	11185	
462.5	11586	
462.7	9445.9	
462.9	9530.6	
463.1	12473	
463.3	12491	
463.5	9756.5	
463.7	10766	
463.9	11646	
464.1	11966	
464.3	10371	
464.5	10395	
464.7	12356	
464.9	12270	
465.1	11553	
465.3	10796	
465.5	12673	
465.7	12815	
465.9	11254	
466.1	10718	
466.3	12757	
466.5	12420	
466.7	11933	
466.9	10630	
467.1	12697	
467.3	13375	
467.5	11879	
467.7	11001	
467.9	13647	
468.1	14321	
468.3	11531	
468.5	11978	
468.7	12800	
468.9	12673	
469.1	11319	
469.3	12155	
469.5	14460	
469.7	12691	
469.9	11673	
470.1	11374	
470.3	12969	
470.5	13021	
470.7	12331	
470.9	11338	
471.1	12927	
471.3	12934	
471.5	11256	
471.69	12711	
471.89	12538	
472.09	12034	
472.29	11813	
472.49	11888	
472.69	12537	
472.89	12990	
473.09	11108	
473.29	11069	
473.49	12547	
473.69	12426	
473.89	11823	
474.09	11238	
474.29	13629	
474.49	13218	
474.69	11885	
474.89	11198	
475.09	12524	
475.29	12626	
475.49	10680	
475.69	11063	
475.88	13703	
476.08	12907	
476.28	10831	
476.48	10918	
476.68	13106	
476.88	12970	
477.08	10948	
477.28	11121	
477.48	12349	
477.68	12868	
477.88	10738	
478.08	10887	
478.28	13346	
478.48	12584	
478.67	11138	
478.87	10474	
479.07	13394	
479.27	12765	
479.47	11258	
479.67	11325	
479.87	13126	
480.07	13650	
480.27	10774	
480.47	12084	
480.67	12613	
480.87	13418	
481.06	11015	
481.26	11874	
481.46	12865	
481.66	12972	
481.86	11432	
482.06	12348	
482.26	12630	
482.46	13429	
482.66	11394	
482.86	11056	
483.05	12988	
483.25	12415	
483.45	13372	
483.65	11476	
483.85	12732	
484.05	13041	
484.25	11865	
484.45	12400	
484.65	13808	
484.84	13975	
485.04	11608	
485.24	11581	
485.44	14134	
485.64	12755	
485.84	11052	
486.04	12220	
486.24	13231	
486.44	13438	
486.63	11280	
486.83	12091	
487.03	13237	
487.23	13486	
487.43	11280	
487.63	13351	
487.83	13557	
488.02	14385	
488.22	12411	
488.42	12898	
488.62	14334	
488.82	13465	
489.02	12064	
489.22	12312	
489.41	14167	
489.61	14089	
489.81	11983	
490.01	12142	
490.21	14452	
490.41	14982	
490.61	12217	
490.8	12319	
491	14073	
491.2	13388	
491.4	12634	
491.6	11964	
491.8	13881	
491.99	13790	
492.19	11545	
492.39	11751	
492.59	14063	
492.79	14147	
492.99	12478	
493.18	11998	
493.38	14496	
493.58	15338	
493.78	12849	
493.98	12513	
494.18	14446	
494.37	14203	
494.57	13523	
494.77	13301	
494.97	15089	
495.17	15325	
495.37	13170	
495.56	13443	
495.76	15764	
495.96	15510	
496.16	14472	
496.36	13844	
496.55	15884	
496.75	15457	
496.95	14076	
497.15	14020	
497.35	15814	
497.54	15872	
497.74	13811	
497.94	15296	
498.14	16478	
498.34	16259	
498.53	13750	
498.73	14294	
498.93	15388	
499.13	16009	
499.33	14334	
499.52	14693	
499.72	16249	
499.92	16333	
500.12	14350	
500.32	14494	
500.51	16386	
500.71	16374	
500.91	15240	
501.11	14825	
501.31	16512	
501.5	16721	
501.7	15414	
501.9	14476	
502.1	16184	
502.29	16610	
502.49	15085	
502.69	15324	
502.89	16471	
503.09	16523	
503.28	13897	
503.48	14131	
503.68	15578	
503.88	15702	
504.07	14796	
504.27	14258	
504.47	15965	
504.67	15976	
504.86	14803	
505.06	14384	
505.26	15697	
505.46	17111	
505.65	14280	
505.85	14440	
506.05	15444	
506.25	15812	
506.44	13560	
506.64	14136	
506.84	15177	
507.04	15685	
507.23	13562	
507.43	13921	
507.63	16761	
507.83	15335	
508.02	14065	
508.22	13780	
508.42	17082	
508.62	15408	
508.81	13868	
509.01	14638	
509.21	15020	
509.4	15316	
509.6	14021	
509.8	13532	
510	15126	
510.19	16377	
510.39	13512	
510.59	13861	
510.79	15277	
510.98	16425	
511.18	13923	
511.38	14111	
511.57	16083	
511.77	15851	
511.97	14544	
512.17	13693	
512.36	15996	
512.56	15786	
512.76	13544	
512.95	13317	
513.15	15992	
513.35	14765	
513.55	14411	
513.74	13676	
513.94	15926	
514.14	15394	
514.33	14577	
514.53	14433	
514.73	15339	
514.92	15737	
515.12	13814	
515.32	13716	
515.51	15771	
515.71	16144	
515.91	15184	
516.11	13873	
516.3	17260	
516.5	15492	
516.7	14323	
516.89	14912	
517.09	15678	
517.29	15529	
517.48	14820	
517.68	14067	
517.88	15332	
518.07	15930	
518.27	14678	
518.47	13693	
518.66	16397	
518.86	15342	
519.06	13693	
519.25	14132	
519.45	15520	
519.65	16797	
519.84	14564	
520.04	15371	
520.24	17335	
520.43	16237	
520.63	14506	
520.83	14247	
521.02	15631	
521.22	15939	
521.42	14429	
521.61	14936	
521.81	15333	
522.01	15646	
522.2	14290	
522.4	14055	
522.6	16061	
522.79	15169	
522.99	14265	
523.18	13929	
523.38	16058	
523.58	16127	
523.77	15772	
523.97	14237	
524.17	17953	
524.36	17490	
524.56	15567	
524.76	15326	
524.95	16836	
525.15	16567	
525.34	15535	
525.54	15593	
525.74	17401	
525.93	16582	
526.13	16658	
526.33	15866	
526.52	17843	
526.72	17600	
526.91	16798	
527.11	16306	
527.31	17895	
527.5	18329	
527.7	16173	
527.89	15580	
528.09	17203	
528.29	17777	
528.48	16492	
528.68	16210	
528.87	18079	
529.07	17897	
529.27	16354	
529.46	16087	
529.66	18051	
529.85	18486	
530.05	16274	
530.25	16599	
530.44	19346	
530.64	17770	
530.83	16170	
531.03	16525	
531.23	18155	
531.42	17905	
531.62	16969	
531.81	16176	
532.01	18389	
532.21	18788	
532.4	16567	
532.6	16974	
532.79	19710	
532.99	19153	
533.18	17318	
533.38	18161	
533.58	18873	
533.77	19354	
533.97	17477	
534.16	18204	
534.36	19790	
534.55	18986	
534.75	18347	
534.95	17512	
535.14	20036	
535.34	19215	
535.53	17258	
535.73	19024	
535.92	20305	
536.12	18999	
536.31	17379	
536.51	18241	
536.71	19167	
536.9	18813	
537.1	17243	
537.29	17502	
537.49	19418	
537.68	18785	
537.88	17798	
538.07	17139	
538.27	19174	
538.46	19944	
538.66	17126	
538.86	17527	
539.05	19227	
539.25	19663	
539.44	17983	
539.64	17588	
539.83	18940	
540.03	19858	
540.22	17427	
540.42	17309	
540.61	19118	
540.81	19239	
541	17402	
541.2	18136	
541.39	18564	
541.59	18998	
541.78	17935	
541.98	17100	
542.18	18333	
542.37	18311	
542.57	17183	
542.76	17938	
542.96	18182	
543.15	18863	
543.35	17167	
543.54	16709	
543.74	18607	
543.93	18488	
544.13	16793	
544.32	17638	
544.52	18423	
544.71	17844	
544.91	16032	
545.1	16921	
545.3	17922	
545.49	18492	
545.69	16132	
545.88	16469	
546.08	19345	
546.27	18813	
546.47	16861	
546.66	16239	
546.86	18589	
547.05	18893	
547.24	16285	
547.44	16442	
547.63	17673	
547.83	18629	
548.02	16697	
548.22	16785	
548.41	17483	
548.61	18642	
548.8	16057	
549	16178	
549.19	17746	
549.39	18151	
549.58	15827	
549.78	16319	
549.97	18264	
550.17	17719	
550.36	16787	
550.55	17621	
550.75	17555	
550.94	18329	
551.14	15781	
551.33	16034	
551.53	17077	
551.72	17870	
551.92	16000	
552.11	15822	
552.31	17791	
552.5	17845	
552.69	17287	
552.89	15605	
553.08	17770	
553.28	17557	
553.47	15865	
553.67	16705	
553.86	18220	
554.06	16842	
554.25	15024	
554.44	15655	
554.64	18662	
554.83	18405	
555.03	15520	
555.22	15816	
555.42	17834	
555.61	17499	
555.8	15735	
556	15882	
556.19	16831	
556.39	17814	
556.58	15571	
556.78	15506	
556.97	17419	
557.16	17150	
557.36	16575	
557.55	15459	
557.75	16513	
557.94	18028	
558.13	15472	
558.33	15199	
558.52	17940	
558.72	16841	
558.91	15338	
559.1	15582	
559.3	16621	
559.49	16208	
559.69	14808	
559.88	15603	
560.07	17160	
560.27	17601	
560.46	15791	
560.66	15846	
560.85	17068	
561.04	16324	
561.24	15177	
561.43	15095	
561.63	16466	
561.82	16701	
562.01	16208	
562.21	15399	
562.4	16930	
562.59	17875	
562.79	15242	
562.98	15027	
563.18	16989	
563.37	18228	
563.56	15824	
563.76	15332	
563.95	16723	
564.14	16625	
564.34	15523	
564.53	15251	
564.73	17126	
564.92	17506	
565.11	15739	
565.31	15126	
565.5	17765	
565.69	16957	
565.89	15545	
566.08	15849	
566.27	17741	
566.47	18112	
566.66	16330	
566.85	15441	
567.05	17391	
567.24	17053	
567.44	15435	
567.63	16706	
567.82	17760	
568.02	17410	
568.21	15799	
568.4	15788	
568.6	17371	
568.79	17415	
568.98	15459	
569.18	15543	
569.37	17518	
569.56	19282	
569.76	16113	
569.95	17014	
570.14	17964	
570.34	17802	
570.53	15713	
570.72	15758	
570.91	18333	
571.11	17565	
571.3	16109	
571.49	16787	
571.69	17720	
571.88	17247	
572.07	16683	
572.27	16481	
572.46	17288	
572.65	18171	
572.85	16063	
573.04	16206	
573.23	18326	
573.43	17611	
573.62	15937	
573.81	16386	
574	18075	
574.2	17754	
574.39	16468	
574.58	16724	
574.78	18936	
574.97	18345	
575.16	16956	
575.36	17290	
575.55	18867	
575.74	18988	
575.93	16307	
576.13	17387	
576.32	18200	
576.51	18856	
576.71	16834	
576.9	18000	
577.09	19071	
577.28	18595	
577.48	17219	
577.67	16430	
577.86	18298	
578.05	18753	
578.25	17090	
578.44	17053	
578.63	18575	
578.83	19587	
579.02	16517	
579.21	17877	
579.4	18767	
579.6	18696	
579.79	17209	
579.98	19062	
580.17	19065	
580.37	19208	
580.56	16559	
580.75	17522	
580.94	19336	
581.14	19349	
581.33	17855	
581.52	16938	
581.71	19109	
581.91	19616	
582.1	16702	
582.29	17115	
582.48	18855	
582.68	18877	
582.87	17651	
583.06	17408	
583.25	19072	
583.45	18753	
583.64	17994	
583.83	18585	
584.02	18793	
584.21	19202	
584.41	17827	
584.6	17475	
584.79	18890	
584.98	19620	
585.18	17103	
585.37	17032	
585.56	18656	
585.75	19306	
585.94	16930	
586.14	17827	
586.33	19431	
586.52	18882	
586.71	17354	
586.91	17218	
587.1	18088	
587.29	18966	
587.48	16791	
587.67	16809	
587.87	18570	
588.06	18544	
588.25	17748	
588.44	17165	
588.63	18303	
588.83	18755	
589.02	16543	
589.21	16293	
589.4	17703	
589.59	17755	
589.78	15467	
589.98	15416	
590.17	16866	
590.36	17349	
590.55	14432	
590.74	14832	
590.94	17629	
591.13	16442	
591.32	14538	
591.51	14051	
591.7	16752	
591.89	16490	
592.09	14442	
592.28	14862	
592.47	16035	
592.66	17845	
592.85	14860	
593.05	14809	
593.24	16548	
593.43	17371	
593.62	15072	
593.81	15429	
594	16756	
594.19	16844	
594.39	14754	
594.58	14844	
594.77	16989	
594.96	17371	
595.15	14762	
595.34	15218	
595.54	16842	
595.73	16070	
595.92	14003	
596.11	14799	
596.3	16987	
596.49	15898	
596.68	14636	
596.88	15119	
597.07	16938	
597.26	15865	
597.45	14303	
597.64	15397	
597.83	16174	
598.02	16838	
598.22	14478	
598.41	15011	
598.6	16412	
598.79	15952	
598.98	14311	
599.17	15211	
599.36	16561	
599.55	17234	
599.74	16014	
599.94	15862	
600.13	16755	
600.32	15870	
600.51	14061	
600.7	14253	
600.89	17242	
601.08	17314	
601.27	14179	
601.47	14976	
601.66	16709	
601.85	17243	
602.04	14639	
602.23	14708	
602.42	15821	
602.61	16354	
602.8	14503	
602.99	14148	
603.18	15999	
603.37	16425	
603.57	14742	
603.76	15215	
603.95	16853	
604.14	16559	
604.33	14283	
604.52	14642	
604.71	16343	
604.9	15936	
605.09	14962	
605.28	14981	
605.47	16813	
605.66	16509	
605.86	14845	
606.05	14344	
606.24	16678	
606.43	15567	
606.62	14732	
606.81	15020	
607	16575	
607.19	15994	
607.38	14001	
607.57	14240	
607.76	15748	
607.95	15362	
608.14	14478	
608.33	15042	
608.52	15696	
608.72	16496	
608.91	13802	
609.1	13739	
609.29	15702	
609.48	15160	
609.67	14524	
609.86	13652	
610.05	15356	
610.24	15596	
610.43	13749	
610.62	13276	
610.81	16542	
611	16249	
611.19	13799	
611.38	14239	
611.57	15874	
611.76	16815	
611.95	13557	
612.14	13336	
612.33	15795	
612.52	15296	
612.71	13977	
612.9	13271	
613.09	14909	
613.28	16793	
613.47	13733	
613.66	14598	
613.85	15795	
614.04	15253	
614.24	13736	
614.43	12994	
614.62	15933	
614.81	15769	
615	14195	
615.19	14281	
615.38	15171	
615.57	15593	
615.76	14189	
615.95	15057	
616.14	15915	
616.33	15618	
616.52	14453	
616.71	14585	
616.9	15755	
617.09	15754	
617.28	13967	
617.47	14889	
617.66	15142	
617.85	15314	
618.04	14654	
618.22	14453	
618.41	15629	
618.6	16599	
618.79	14468	
618.98	14284	
619.17	16740	
619.36	15426	
619.55	14550	
619.74	14461	
619.93	16303	
620.12	15896	
620.31	15076	
620.5	15324	
620.69	17167	
620.88	17421	
621.07	15939	
621.26	15228	
621.45	16815	
621.64	16771	
621.83	15282	
622.02	14672	
622.21	16895	
622.4	16776	
622.59	15836	
622.78	15700	
622.97	16389	
623.16	17168	
623.35	15422	
623.54	14607	
623.72	16592	
623.91	16827	
624.1	15636	
624.29	14661	
624.48	17698	
624.67	16909	
624.86	15659	
625.05	14728	
625.24	17695	
625.43	16391	
625.62	16942	
625.81	14867	
626	17099	
626.19	16698	
626.38	15711	
626.56	15057	
626.75	16548	
626.94	17275	
627.13	15687	
627.32	14681	
627.51	17183	
627.7	18196	
627.89	14638	
628.08	15638	
628.27	16260	
628.46	16436	
628.65	14710	
628.83	14609	
629.02	16848	
629.21	16292	
629.4	15281	
629.59	15333	
629.78	16268	
629.97	17118	
630.16	15467	
630.35	14938	
630.54	17547	
630.72	17370	
630.91	14994	
631.1	15335	
631.29	16749	
631.48	16886	
631.67	15463	
631.86	14782	
632.05	16428	
632.24	16419	
632.42	14556	
632.61	15014	
632.8	16298	
632.99	16161	
633.18	15246	
633.37	15347	
633.56	16569	
633.75	16576	
633.93	15001	
634.12	14885	
634.31	17184	
634.5	16994	
634.69	14916	
634.88	15191	
635.07	16541	
635.25	16918	
635.44	15563	
635.63	15730	
635.82	16197	
636.01	15614	
636.2	15332	
636.39	15132	
636.57	17032	
636.76	16664	
636.95	14464	
637.14	15645	
637.33	16489	
637.52	17225	
637.7	14270	
637.89	15180	
638.08	16253	
638.27	17112	
638.46	15087	
638.65	15378	
638.83	17216	
639.02	15861	
639.21	14928	
639.4	15360	
639.59	16083	
639.78	15838	
639.96	14201	
640.15	14244	
640.34	15900	
640.53	15969	
640.72	13847	
640.91	14111	
641.09	15276	
641.28	16378	
641.47	14027	
641.66	14888	
641.85	15923	
642.03	16039	
642.22	14444	
642.41	13995	
642.6	15359	
642.79	14784	
642.97	13723	
643.16	14469	
643.35	15169	
643.54	14915	
643.73	13542	
643.91	14209	
644.1	14702	
644.29	15296	
644.48	13467	
644.67	13528	
644.85	14784	
645.04	14834	
645.23	12921	
645.42	13209	
645.6	14373	
645.79	15355	
645.98	12945	
646.17	11966	
646.36	13843	
646.54	14187	
646.73	13214	
646.92	12293	
647.11	13785	
647.29	14631	
647.48	12267	
647.67	12104	
647.86	14806	
648.05	14939	
648.23	12516	
648.42	13385	
648.61	14326	
648.8	14091	
648.98	12162	
649.17	12372	
649.36	13672	
649.55	13390	
649.73	12123	
649.92	12743	
650.11	13695	
650.3	14011	
650.48	12221	
650.67	12116	
650.86	14014	
651.05	13056	
651.23	12121	
651.42	11951	
651.61	13482	
651.79	13386	
651.98	12155	
652.17	11841	
652.36	13748	
652.54	13059	
652.73	11936	
652.92	11871	
653.11	13800	
653.29	13781	
653.48	11321	
653.67	11979	
653.85	13473	
654.04	14270	
654.23	11994	
654.42	11596	
654.6	12797	
654.79	13292	
654.98	10925	
655.16	11287	
655.35	12223	
655.54	11880	
655.73	10544	
655.91	10540	
656.1	12738	
656.29	11828	
656.47	10292	
656.66	11725	
656.85	12345	
657.03	12467	
657.22	10927	
657.41	11142	
657.59	12644	
657.78	12551	
657.97	10912	
658.16	11566	
658.34	13267	
658.53	13701	
658.72	12317	
658.9	12587	
659.09	12817	
659.28	12843	
659.46	11329	
659.65	11228	
659.84	12669	
660.02	13236	
660.21	11140	
660.4	11175	
660.58	13444	
660.77	13023	
660.96	11797	
661.14	10932	
661.33	13945	
661.52	13809	
661.7	10858	
661.89	13848	
662.08	12580	
662.26	12233	
662.45	11069	
662.64	11058	
662.82	13047	
663.01	12511	
663.2	11068	
663.38	11721	
663.57	12852	
663.75	12803	
663.94	11381	
664.13	12365	
664.31	12397	
664.5	13044	
664.69	11491	
664.87	12123	
665.06	12135	
665.25	12914	
665.43	12192	
665.62	12187	
665.8	13018	
665.99	12445	
666.18	11251	
666.36	11327	
666.55	12948	
666.74	13004	
666.92	10953	
667.11	12215	
667.29	12441	
667.48	12882	
667.67	11832	
667.85	11022	
668.04	12430	
668.22	12467	
668.41	11249	
668.6	11389	
668.78	12184	
668.97	12478	
669.15	11442	
669.34	10572	
669.53	12263	
669.71	12575	
669.9	10664	
670.08	11319	
670.27	12155	
670.46	12623	
670.64	11460	
670.83	11722	
671.01	12000	
671.2	12475	
671.38	10780	
671.57	10665	
671.76	13132	
671.94	13612	
672.13	10581	
672.31	11433	
672.5	12760	
672.69	12311	
672.87	10877	
673.06	11097	
673.24	12570	
673.43	12183	
673.61	11314	
673.8	11044	
673.98	12689	
674.17	12862	
674.36	11387	
674.54	11289	
674.73	12411	
674.91	12775	
675.1	11095	
675.28	10723	
675.47	12362	
675.65	12660	
675.84	10942	
676.03	11308	
676.21	12122	
676.4	11696	
676.58	11529	
676.77	11404	
676.95	13313	
677.14	11864	
677.32	10572	
677.51	10525	
677.69	12762	
677.88	11811	
678.06	10570	
678.25	10694	
678.44	12387	
678.62	12104	
678.81	10356	
678.99	11183	
679.18	12962	
679.36	12575	
679.55	10759	
679.73	11333	
679.92	12497	
680.1	11974	
680.29	11844	
680.47	10707	
680.66	11941	
680.84	12783	
681.03	10270	
681.21	11140	
681.4	12036	
681.58	11915	
681.77	10658	
681.95	10480	
682.14	12560	
682.32	12875	
682.51	11341	
682.69	10191	
682.88	11774	
683.06	12148	
683.25	10932	
683.43	11306	
683.62	12221	
683.8	12352	
683.99	11354	
684.17	10768	
684.36	13026	
684.54	11905	
684.73	9913.5	
684.91	10041	
685.1	11834	
685.28	11080	
685.46	10191	
685.65	10013	
685.83	11500	
686.02	10918	
686.2	9518.3	
686.39	9576.3	
686.57	10727	
686.76	12170	
686.94	9631.6	
687.13	9902.6	
687.31	11576	
687.5	11211	
687.68	9430.2	
687.86	10477	
688.05	12678	
688.23	10894	
688.42	10522	
688.6	9940.2	
688.79	11265	
688.97	11298	
689.16	10307	
689.34	9383.8	
689.52	11914	
689.71	12147	
689.89	10617	
690.08	10057	
690.26	11643	
690.45	11488	
690.63	10637	
690.81	10187	
691	11359	
691.18	11240	
691.37	10193	
691.55	11840	
691.74	11090	
691.92	12680	
692.1	10058	
692.29	9607.7	
692.47	11254	
692.66	10648	
692.84	9738.8	
693.02	10028	
693.21	10856	
693.39	11214	
693.58	10267	
693.76	9901.9	
693.94	12198	
694.13	12228	
694.31	9927.2	
694.5	10936	
694.68	11285	
694.86	11670	
695.05	10323	
695.23	10532	
695.42	12162	
695.6	13865	
695.78	11058	
695.97	10171	
696.15	12087	
696.34	11617	
696.52	9994.1	
696.7	10610	
696.89	11786	
697.07	11226	
697.25	10450	
697.44	11553	
697.62	11649	
697.81	11827	
697.99	10025	
698.17	10514	
698.36	10875	
698.54	11510	
698.72	10400	
698.91	9488.9	
699.09	11249	
699.28	10975	
699.46	10025	
699.64	9802.3	
699.83	10915	
700.01	11815	
700.19	10480	
700.38	9212.4	
700.56	11942	
700.74	10974	
700.93	9643.2	
701.11	10362	
701.29	11608	
701.48	12544	
701.66	9762	
701.84	9978.4	
702.03	11213	
702.21	11890	
702.39	9461.6	
702.58	10097	
702.76	11624	
702.94	11660	
703.13	9446.6	
703.31	11544	
703.49	11025	
703.68	11874	
703.86	9667.1	
704.04	10430	
704.23	11438	
704.41	11737	
704.59	9775	
704.78	10683	
704.96	12359	
705.14	11673	
705.33	9583.1	
705.51	10216	
705.69	11140	
705.87	11897	
706.06	10416	
706.24	9499.8	
706.42	11500	
706.61	11680	
706.79	10322	
706.97	9505.3	
707.16	11051	
707.34	11324	
707.52	10344	
707.7	9585.2	
707.89	10997	
708.07	10748	
708.25	10371	
708.44	10499	
708.62	10892	
708.8	11742	
708.98	10458	
709.17	9619.3	
709.35	11287	
709.53	11254	
709.72	9324.4	
709.9	9766.8	
710.08	11349	
710.26	11387	
710.45	10581	
710.63	9558.6	
710.81	10957	
710.99	11088	
711.18	9983.2	
711.36	9549.7	
711.54	10806	
711.72	11332	
711.91	9544.2	
712.09	8994.7	
712.27	10736	
712.45	11217	
712.64	9501.9	
712.82	8622.6	
713	9984.5	
713.18	10213	
713.37	8564.6	
713.55	9629.5	
713.73	10807	
713.91	9578.3	
714.1	8557.1	
714.28	8086.7	
714.46	10008	
714.64	9218.6	
714.83	7116.7	
715.01	7670.3	
715.19	8929.1	
715.37	8284.7	
715.55	7116	
715.74	7453.9	
715.92	9367.4	
716.1	7679.9	
716.28	8299.1	
716.47	7347.4	
716.65	8219.9	
716.83	8243.8	
717.01	7193.8	
717.19	7178.8	
717.38	10063	
717.56	7909.3	
717.74	7369.3	
717.92	6702.3	
718.1	9014.5	
718.29	8371.4	
718.47	6503	
718.65	7234.8	
718.83	9223.4	
719.01	9305.3	
719.2	6820.4	
719.38	7785	
719.56	9181	
719.74	10492	
719.92	7546.8	
720.11	8166.6	
720.29	9144.9	
720.47	8324.3	
720.65	6836.1	
720.83	7395.2	
721.02	8346.8	
721.2	8105.2	
721.38	7375.4	
721.56	6589	
721.74	7574.1	
721.92	7747.5	
722.11	7596.6	
722.29	7354.9	
722.47	8659.5	
722.65	7983	
722.83	6632.7	
723.01	7224.6	
723.2	8020.5	
723.38	8344.8	
723.56	6066.8	
723.74	7021.1	
723.92	7722.2	
724.1	8567.3	
724.29	6453.1	
724.47	7452.6	
724.65	7743.4	
724.83	7634.1	
725.01	6277.7	
725.19	7021.1	
725.37	7511.3	
725.56	7593.2	
725.74	6199.2	
725.92	6522.1	
726.1	7535.2	
726.28	7821.9	
726.46	6657.9	
726.64	6414.9	
726.83	7793.2	
727.01	7894.9	
727.19	6047	
727.37	6763.1	
727.55	7905.8	
727.73	8226.7	
727.91	6105.7	
728.09	5945.3	
728.28	8300.4	
728.46	8569.4	
728.64	6886.6	
728.82	6805.4	
729	9133.3	
729.18	8665.6	
729.36	6147.3	
729.54	8147.5	
729.72	9456.8	
729.91	8158.4	
730.09	7907.9	
730.27	6856.6	
730.45	8091.5	
730.63	8594	
730.81	7363.1	
730.99	6630.6	
731.17	9052.7	
731.35	7949.5	
731.53	7149.5	
731.71	6838.2	
731.9	8763.3	
732.08	8852	
732.26	6953.5	
732.44	6625.2	
732.62	8841.1	
732.8	8596	
732.98	7169.9	
733.16	6421.7	
733.34	8381	
733.52	7311.2	
733.7	6800.6	
733.88	6906.4	
734.07	8168.7	
734.25	8068.3	
734.43	6318	
734.61	7546.8	
734.79	9295	
734.97	7974.1	
735.15	6385.6	
735.33	6655.9	
735.51	8165.3	
735.69	7886	
735.87	7555.6	
736.05	6782.9	
736.23	8063.5	
736.41	7774.1	
736.59	6704.4	
736.77	6749.4	
736.95	8413.7	
737.13	7934.5	
737.32	6267.5	
737.5	6495.5	
737.68	8825.4	
737.86	7765.9	
738.04	6164.4	
738.22	7570.7	
738.4	7556.3	
738.58	7761.1	
738.76	6542.6	
738.94	5734.3	
739.12	7649.2	
739.3	7552.2	
739.48	7094.2	
739.66	6837.5	
739.84	7780.9	
740.02	7862.8	
740.2	5820.3	
740.38	6121.4	
740.56	8123.6	
740.74	7075	
740.92	6567.8	
741.1	6492.1	
741.28	7539.9	
741.46	7299	
741.64	6057.9	
741.82	6542.6	
742	7611.6	
742.18	7493.5	
742.36	6323.4	
742.54	5926.1	
742.72	8030.1	
742.9	6837.5	
743.08	6571.2	
743.26	5493.3	
743.44	8028.7	
743.62	7975.5	
743.8	6614.9	
743.98	5763.7	
744.16	7609.6	
744.34	7420.5	
744.52	6451.8	
744.7	6385.6	
744.88	7674.4	
745.06	7298.3	
745.24	6494.8	
745.42	6493.4	
745.6	7763.8	
745.78	7555	
745.96	5436	
746.14	5644.9	
746.32	8306.6	
746.5	7629.4	
746.68	6073.6	
746.86	5638.7	
747.03	7881.3	
747.21	6516.6	
747.39	6013.5	
747.57	5618.3	
747.75	7210.2	
747.93	7564.5	
748.11	5528.8	
748.29	5440.8	
748.47	8548.2	
748.65	6959.7	
748.83	6130.9	
749.01	5877.7	
749.19	7283.9	
749.37	6614.9	
749.55	5756.2	
749.73	5820.3	
749.91	7037.5	
750.09	6752.8	
750.26	5829.2	
750.44	5252.4	
750.62	7036.8	
750.8	6970.6	
750.98	5237.3	
751.16	5443.5	
751.34	7084.6	
751.52	6520.7	
751.7	6111.1	
751.88	5125.4	
752.06	7504.4	
752.24	7175.4	
752.42	5076.9	
752.59	5361.6	
752.77	6882.5	
752.95	7928.4	
753.13	6001.9	
753.31	5406.6	
753.49	6627.9	
753.67	6950.1	
753.85	5668.8	
754.03	5224.4	
754.21	7123.5	
754.38	7449.8	
754.56	5317.9	
754.74	4541	
754.92	6332.3	
755.1	6868.9	
755.28	4461.2	
755.46	4333.5	
755.64	7427.3	
755.82	7434.8	
755.99	4344.4	
756.17	4325.3	
756.35	5031.2	
756.53	6326.9	
756.71	3300.6	
756.89	4060.4	
757.07	5854.5	
757.25	5119.9	
757.42	4603.2	
757.6	5331.5	
757.78	6146.6	
757.96	5289.9	
758.14	4498.7	
758.32	4040.6	
758.5	4913.8	
758.67	5654.4	
758.85	4216.1	
759.03	4293.2	
759.21	5773.9	
759.39	5250.3	
759.57	3966.2	
759.75	4823	
759.92	6285.9	
760.1	5744.6	
760.28	5184.8	
760.46	5450.3	
760.64	5544.5	
760.82	5296	
760.99	5142.4	
761.17	4414.1	
761.35	6318.7	
761.53	5470.8	
761.71	4582	
761.89	5126.7	
762.06	6292.7	
762.24	5857.9	
762.42	4775.9	
762.6	4519.9	
762.78	5843.5	
762.96	6380.8	
763.13	5038.7	
763.31	4758.1	
763.49	6550.1	
763.67	5839.4	
763.85	5477	
764.02	5872.9	
764.2	6753.5	
764.38	6022.4	
764.56	4638.6	
764.74	5384.8	
764.91	6755.6	
765.09	5869.5	
765.27	4379.2	
765.45	4150.6	
765.63	6872.3	
765.8	6736.5	
765.98	3957.4	
766.16	4162.2	
766.34	5428.5	
766.52	5286.5	
766.69	5023	
766.87	4095.3	
767.05	5798.5	
767.23	6369.2	
767.41	4266.6	
767.58	4468	
767.76	6287.3	
767.94	6337.8	
768.12	4384.7	
768.29	4874.8	
768.47	5752.1	
768.65	6419.7	
768.83	3998.3	
769	5008.6	
769.18	5442.1	
769.36	6005.3	
769.54	4924.7	
769.72	3936.2	
769.89	6203.3	
770.07	6305.7	
770.25	4347.2	
770.43	5311.1	
770.6	6808.8	
770.78	7224.6	
770.96	4397	
771.14	4945.8	
771.31	6145.3	
771.49	5528.8	
771.67	3618.1	
771.85	3896.6	
772.02	4860.5	
772.2	5489.9	
772.38	4421.6	
772.55	4022.2	
772.73	5748.6	
772.91	5566.4	
773.09	4368.3	
773.26	4418.8	
773.44	5667.4	
773.62	5412.1	
773.8	3908.2	
773.97	3625.6	
774.15	5736.4	
774.33	5375.9	
774.5	3811.3	
774.68	4131.4	
774.86	5820.3	
775.04	5398.4	
775.21	3872.7	
775.39	3782.6	
775.57	5651.7	
775.74	5902.9	
775.92	3720.5	
776.1	3585.3	
776.27	5556.1	
776.45	6658.6	
776.63	3760.1	
776.81	3450.1	
776.98	5261.2	
777.16	6059.3	
777.34	3886.4	
777.51	4187.4	
777.69	5284.4	
777.87	5059.2	
778.04	3990.1	
778.22	4458.4	
778.4	5040.7	
778.57	5627.1	
778.75	3334.1	
778.93	3576.4	
779.1	4882.4	
779.28	4724.7	
779.46	3283.6	
779.64	3706.1	
779.81	5733.6	
779.99	6477.7	
780.17	4317.8	
780.34	4436.6	
780.52	5223.7	
780.69	5423.7	
780.87	4023.6	
781.05	3611.3	
781.22	5287.9	
781.4	5427.1	
781.58	3710.2	
781.75	2985.9	
781.93	5244.2	
782.11	4771.1	
782.28	4448.9	
782.46	3779.2	
782.64	4621.6	
782.81	5411.4	
782.99	3734.8	
783.17	3728	
783.34	5351.3	
783.52	4664.6	
783.69	3884.3	
783.87	4573.1	
784.05	4826.4	
784.22	4750.6	
784.4	4549.9	
784.58	3997.6	
784.75	5565.7	
784.93	4766.3	
785.1	3692.5	
785.28	4232.5	
785.46	5346.6	
785.63	4761.5	
785.81	3687	
785.99	3558.7	
786.16	4917.9	
786.34	5248.3	
786.51	3573	
786.69	3898	
786.87	4500.1	
787.04	4962.9	
787.22	3433.1	
787.39	4274.1	
787.57	4734.9	
787.75	5664.7	
787.92	4387.4	
788.1	4360.1	
788.27	4757.4	
788.45	4532.2	
788.63	4077.5	
788.8	3031	
788.98	5079.6	
789.15	4417.5	
789.33	3203	
789.5	3652.9	
789.68	5520	
789.86	5634.6	
790.03	4053.6	
790.21	3512.9	
790.38	5555.5	
790.56	4902.2	
790.73	3426.3	
790.91	3418.7	
791.09	4712.4	
791.26	5356.1	
791.44	3610.6	
791.61	3175	
791.79	4694.6	
791.96	4752.7	
792.14	3306.8	
792.32	2889.7	
792.49	4749.2	
792.67	4847.5	
792.84	3319.8	
793.02	3141.6	
793.19	5072.8	
793.37	5681.1	
793.54	2907.4	
793.72	3226.9	
793.89	5771.2	
794.07	4653.7	
794.25	3620.8	
794.42	2953.2	
794.6	5621.7	
794.77	5281	
794.95	3928	
795.12	3504.1	
795.3	4698.7	
795.47	5259.2	
795.65	3842	
795.82	3610.6	
796	4579.3	
796.17	6149.4	
796.35	3547.8	
796.52	4153.3	
796.7	5187.5	
796.87	5294	
797.05	3595.6	
797.22	4255.7	
797.4	5221	
797.57	6079.7	
797.75	3668.6	
797.92	3431	
798.1	5466	
798.27	4579.9	
798.45	2985.3	
798.62	3175.7	
798.8	4960.9	
798.97	5414.1	
799.15	3781.2	
799.32	3676.8	
799.5	4314.4	
799.67	4937.7	
799.85	3917.1	
800.02	2920.4	
800.2	4642.1	
800.37	4937	
800.55	4106.2	
800.72	3440.6	
800.9	5323.4	
801.07	5683.1	
801.25	4516.5	
801.42	3787.4	
801.6	5360.2	
801.77	5020.9	
801.95	3547.1	
802.12	3325.2	
802.29	5162.2	
802.47	5108.3	
802.64	3766.2	
802.82	2852.1	
802.99	4676.2	
803.17	5489.2	
803.34	3682.2	
803.52	3287	
803.69	6032.6	
803.87	4450.2	
804.04	3629	
804.21	3697.3	
804.39	5554.8	
804.56	4833.9	
804.74	3142.9	
804.91	3751.9	
805.09	4688.5	
805.26	4745.1	
805.44	3206.4	
805.61	3448.8	
805.78	5234.6	
805.96	5215.5	
806.13	3770.3	
806.31	4024.3	
806.48	4280.3	
806.66	4709.6	
806.83	3676.8	
807	3611.9	
807.18	4658.4	
807.35	4963.6	
807.53	3611.9	
807.7	2992.1	
807.87	5614.2	
808.05	4672.8	
808.22	3962.1	
808.4	2969.6	
808.57	4631.8	
808.74	4381.3	
808.92	3354.6	
809.09	4235.9	
809.27	4582	
809.44	5104.9	
809.61	2957.9	
809.79	3320.4	
809.96	5707.7	
810.14	5317.2	
810.31	2928.6	
810.48	3489.1	
810.66	4764.9	
810.83	5339.1	
811.01	3330	
811.18	3680.9	
811.35	5296.7	
811.53	4161.5	
811.7	3991.5	
811.87	3763.5	
812.05	4712.4	
812.22	4650.3	
812.39	3233.1	
812.57	3147	
812.74	4732.2	
812.92	6068.1	
813.09	3556.6	
813.26	3848.8	
813.44	5839.4	
813.61	4626.4	
813.78	2905.4	
813.96	3857	
814.13	4708.3	
814.3	4419.5	
814.48	4141	
814.65	3477.5	
814.82	5666	
815	4468.7	
815.17	3528	
815.34	4298.7	
815.52	4583.4	
815.69	4616.8	
815.87	3502	
816.04	3528.7	
816.21	4695.3	
816.38	4227	
816.56	3451.5	
816.73	3222.1	
816.9	5826.5	
817.08	5261.2	
817.25	3271.3	
817.42	4070.7	
817.6	4281.6	
817.77	4700.1	
817.94	3610.6	
818.12	3261	
818.29	4433.9	
818.46	6682.5	
818.64	3347.7	
818.81	3192.8	
818.98	4414.1	
819.16	6163.7	
819.33	3848.8	
819.5	3614.7	
819.67	5017.5	
819.85	5496.1	
820.02	3521.8	
820.19	3694.5	
820.37	4921.3	
820.54	4581.3	
820.71	3656.3	
820.88	4448.9	
821.06	4842.8	
821.23	4433.9	
821.4	3702.7	
821.58	3597.6	
821.75	5228.5	
821.92	4790.9	
822.09	2970.9	
822.27	3052.8	
822.44	4660.5	
822.61	4623.6	
822.79	2970.2	
822.96	5559.6	
823.13	5010	
823.3	4461.2	
823.48	3387.3	
823.65	3132.7	
823.82	5317.9	
823.99	4214	
824.17	4279.6	
824.34	3123.8	
824.51	6027.9	
824.68	4728.8	
824.86	3235.8	
825.03	3646.1	
825.2	4657.8	
825.37	5591	
825.55	3222.1	
825.72	3618.8	
825.89	5948	
826.06	5608	
826.24	3452.9	
826.41	3508.2	
826.58	5621.7	
826.75	4901.5	
826.92	2829.6	
827.1	3115	
827.27	7455.3	
827.44	5966.4	
827.61	3347.7	
827.79	3984	
827.96	4476.2	
828.13	4690.5	
828.3	3465.8	
828.47	2923.8	
828.65	4917.9	
828.82	4847.5	
828.99	4420.2	
829.16	3854.3	
829.34	5232.6	
829.51	5034.6	
829.68	3602.4	
829.85	3674.7	
830.02	5543.2	
830.2	5220.3	
830.37	2801.6	
830.54	4230.4	
830.71	5840.8	
830.88	4666	
831.05	2841.2	
831.23	3252.2	
831.4	5693.4	
831.57	6185.5	
831.74	3274	
831.91	2933.4	
832.09	4907.6	
832.26	5233.9	
832.43	3373	
832.6	3835.2	
832.77	4928.1	
832.94	5530.2	
833.12	2815.3	
833.29	3369.6	
833.46	4772.4	
833.63	6391	
833.8	3706.8	
833.97	3406.5	
834.15	5259.2	
834.32	5037.3	
834.49	3586.7	
834.66	3634.5	
834.83	5330.2	
835	4453	
835.17	3304.7	
835.35	3326.6	
835.52	5116.5	
835.69	5049.6	
835.86	3484.3	
836.03	2874	
836.2	5238	
836.37	4867.3	
836.55	3366.2	
836.72	3261.7	
836.89	4849.6	
837.06	5304.2	
837.23	3475.4	
837.4	3734.8	
837.57	5900.9	
837.75	6407.4	
837.92	3198.9	
838.09	3362.1	
838.26	4832.5	
838.43	5428.5	
838.6	3538.9	
838.77	3263.1	
838.94	6194.4	
839.11	5905.7	
839.29	3414.6	
839.46	2738.8	
839.63	5247.6	
839.8	4916.5	
839.97	3325.9	
840.14	3338.2	
840.31	5065.3	
840.48	5265.3	
840.65	2809.1	
840.82	3264.5	
841	5197.1	
841.17	5107	
841.34	3077.4	
841.51	3115	
841.68	5137.7	
841.85	4910.3	
842.02	3165.5	
842.19	2632.3	
842.36	4998.4	
842.53	4959.5	
842.7	3052.2	
842.87	3739.6	
843.05	6408.1	
843.22	4876.2	
843.39	2972.3	
843.56	3132	
843.73	4743.8	
843.9	5266	
844.07	4909.7	
844.24	4080.9	
844.41	7281.9	
844.58	4583.4	
844.75	3034.4	
844.92	3185.3	
845.09	5205.3	
845.26	5152.7	
845.43	3067.2	
845.6	3220.1	
845.77	5221	
845.94	4963.6	
846.12	3355.3	
846.29	3561.4	
846.46	5419.6	
846.63	5203.2	
846.8	3054.9	
846.97	3576.4	
847.14	5576.6	
847.31	5145.2	
847.48	3405.1	
847.65	3792.8	
847.82	5364.3	
847.99	5370.5	
848.16	4004.5	
848.33	3723.2	
848.5	4785.4	
848.67	5597.8	
848.84	3044	
849.01	3236.5	
849.18	4773.8	
849.35	4457.1	
849.52	3781.2	
849.69	3004.4	
849.86	5389.6	
850.03	5529.5	
850.2	3032.4	
850.37	3728.7	
850.54	5494	
850.71	4859.1	
850.88	3603.7	
851.05	2964.8	
851.22	5106.3	
851.39	5606.7	
851.56	2880.8	
851.73	3457.7	
851.9	4627.7	
852.07	5348.6	
852.24	3354.6	
852.41	2985.3	
852.58	5127.4	
852.75	4653.7	
852.92	3452.2	
853.09	3001	
853.26	4846.9	
853.43	5539.1	
853.6	3061	
853.77	2600.2	
853.94	5635.3	
854.11	4541.7	
854.28	4445.5	
854.44	3261.7	
854.61	5969.8	
854.78	5357.5	
854.95	3019.4	
855.12	3725.9	
855.29	4242	
855.46	5683.1	
855.63	3067.2	
855.8	4165.6	
855.97	4812.7	
856.14	5483.8	
856.31	4194.2	
856.48	3305.4	
856.65	4779.3	
856.82	4528.7	
856.99	2913.6	
857.16	3305.4	
857.33	6117.3	
857.49	4923.3	
857.66	3276.1	
857.83	3543	
858	4869.4	
858.17	5110.4	
858.34	2903.3	
858.51	3099.3	
858.68	5696.1	
858.85	5694	
859.02	3459.7	
859.19	3775.1	
859.36	4579.9	
859.52	4616.1	
859.69	3106.8	
859.86	3568.9	
860.03	4620.2	
860.2	5613.5	
860.37	2823.5	
860.54	3081.5	
860.71	5335.6	
860.88	5731.6	
861.05	3390.8	
861.21	3812	
861.38	5681.7	
861.55	4475.5	
861.72	2795.5	
861.89	3377.8	
862.06	5428.5	
862.23	5826.5	
862.4	2976.4	
862.56	3151.8	
862.73	5240.8	
862.9	5001.8	
863.07	3557.3	
863.24	2821.4	
863.41	4540.3	
863.58	4586.1	
863.75	3130.7	
863.91	3481.5	
864.08	5585.5	
864.25	5337	
864.42	3763.5	
864.59	4203.1	
864.76	5944.6	
864.93	4583.4	
865.09	3007.1	
865.26	3222.8	
865.43	5567.1	
865.6	5881.1	
865.77	2710.1	
865.94	3020.1	
866.1	5534.3	
866.27	5328.1	
866.44	4468.7	
866.61	2840.5	
866.78	4945.8	
866.95	5323.4	
867.11	2937.5	
867.28	2730.6	
867.45	5440.1	
867.62	4610	
867.79	3434.4	
867.96	3013.9	
868.12	4600.4	
868.29	5325.4	
868.46	2674	
868.63	3956	
868.8	5496.1	
868.97	5311.7	
869.13	3211.2	
869.3	3161.4	
869.47	5219.6	
869.64	5451.7	
869.81	3121.8	
869.97	3078.1	
870.14	5108.3	
870.31	5759.6	
870.48	2996.9	
870.65	3734.1	
870.81	4911	
870.98	4911.7	
871.15	3504.8	
871.32	3191.4	
871.48	5227.1	
871.65	5796.4	
871.82	3019.4	
871.99	3379.8	
872.16	6131.6	
872.32	5578.7	
872.49	3059.7	
872.66	3082.2	
872.83	5367.7	
872.99	4777.2	
873.16	3448.1	
873.33	3013.9	
873.5	5050.3	
873.67	5088.5	
873.83	3232.4	
874	4032.5	
874.17	5107	
874.34	5976.7	
874.5	3807.9	
874.67	3719.1	
874.84	5659.2	
875.01	4539	
875.17	4207.2	
875.34	2996.2	
875.51	5139	
875.68	6023.1	
875.84	3609.9	
876.01	4334.9	
876.18	5328.8	
876.34	5244.8	
876.51	3024.2	
876.68	3000.3	
876.85	4840.7	
877.01	5528.2	
877.18	4277.5	
877.35	3029.6	
877.52	5014.1	
877.68	4517.1	
877.85	3012.6	
878.02	3001.6	
878.18	4915.8	
878.35	4771.8	
878.52	2419.3	
878.69	3405.8	
878.85	5403.9	
879.02	5331.5	
879.19	4153.3	
879.35	3273.3	
879.52	5242.8	
879.69	5463.3	
879.86	2680.1	
880.02	3390.1	
880.19	4977.2	
880.36	6004	
880.52	3482.2	
880.69	3621.5	
880.86	5380	
881.02	5384.8	
881.19	3328.6	
881.36	3297.2	
881.52	5205.9	
881.69	4712.4	
881.86	3284.9	
882.02	3166.2	
882.19	5539.8	
882.36	6397.2	
882.52	3076	
882.69	4161.5	
882.86	5069.4	
883.02	5037.3	
883.19	3676.8	
883.36	3422.8	
883.52	5414.1	
883.69	6090	
883.86	3057.6	
884.02	2785.2	
884.19	5324.7	
884.36	5009.3	
884.52	3400.3	
884.69	3216.7	
884.86	4797.7	
885.02	5812.1	
885.19	3416	
885.36	3449.5	
885.52	4942.4	
885.69	5140.4	
885.86	4301.4	
886.02	3764.8	
886.19	5375.9	
886.35	4840	
886.52	3331.4	
886.69	4190.1	
886.85	4620.9	
887.02	5689.9	
887.19	5689.9	
887.35	5689.9	
887.52	5689.9	
887.68	5689.9	
887.85	5689.9	
888.02	5689.9	
888.18	5689.9	
888.35	5689.9	
888.51	5689.9	
888.68	5689.9	
888.85	5689.9	
889.01	5689.9	
889.18	5689.9	
889.35	5689.9	
889.51	5689.9	
889.68	5689.9	
889.84	5689.9	
890.01	5689.9	
890.17	5689.9	
890.34	5689.9	
890.51	5689.9	
890.67	5689.9	
890.84	5689.9	
891	5689.9	
891.17	5689.9	
891.34	5689.9	
891.5	5689.9	
891.67	5689.9	
891.83	5689.9	
892	5689.9	
892.16	5689.9	
892.33	5689.9	
892.5	5689.9	
892.66	5689.9	
892.83	5689.9	
892.99	5689.9	
893.16	5689.9	
893.32	5689.9	
893.49	5689.9	
893.65	5689.9	
893.82	5689.9	
893.99	5689.9	
894.15	5689.9	
894.32	5689.9	
894.48	5689.9	
894.65	5689.9	
894.81	5689.9	
894.98	5689.9	
895.14	5689.9	
895.31	5689.9	
895.47	5689.9	
895.64	5689.9	
895.81	5689.9	
895.97	5689.9	
896.14	5689.9	
896.3	5689.9	
896.47	5689.9	
896.63	5689.9	
896.8	5689.9	
896.96	5689.9	
897.13	5689.9	
897.29	5689.9	
897.46	5689.9	
897.62	5689.9	
897.79	5689.9	
897.95	5689.9	
898.12	5689.9	
898.28	5689.9	
898.45	5689.9	
898.61	5689.9	
898.78	5689.9	
898.94	5689.9	
899.11	5689.9	
899.27	5689.9	
899.44	5689.9	
899.6	5689.9	
899.77	5689.9	
899.93	5689.9	
900.1	5689.9	
900.26	5689.9	
900.43	5689.9	
900.59	5689.9	
900.76	5689.9	
900.92	5689.9	
901.09	5689.9	
901.25	5689.9	
901.42	5689.9	
901.58	5689.9	
901.75	5689.9	
901.91	5689.9	
902.07	5689.9	
902.24	5689.9	
902.4	5689.9	
902.57	5689.9	
902.73	5689.9	
902.9	5689.9	
903.06	5689.9	
903.23	5689.9	
903.39	5689.9	
903.56	5689.9	
903.72	5689.9	
903.88	5689.9	
904.05	5689.9	
904.21	5689.9	
904.38	5689.9	
904.54	5689.9	
904.71	5689.9	
904.87	5689.9	
905.03	5689.9	
905.2	5689.9	
905.36	5689.9	
905.53	5689.9	
905.69	5689.9	
905.86	5689.9	
906.02	5689.9	
906.18	5689.9	
906.35	5689.9	
906.51	5689.9	
906.68	5689.9	
906.84	5689.9	
907.01	5689.9	
907.17	5689.9	
907.33	5689.9	
907.5	5689.9	
907.66	5689.9	
907.83	5689.9	
907.99	5689.9	
908.15	5689.9	
908.32	5689.9	
908.48	5689.9	
908.65	5689.9	
908.81	5689.9	
908.97	5689.9	
909.14	5689.9	
909.3	5689.9	
909.47	5689.9	
909.63	5689.9	
909.79	5689.9	
909.96	5689.9	
910.12	5689.9	
910.28	5689.9	
910.45	5689.9	
910.61	5689.9	
910.78	5689.9	
910.94	5689.9	
911.1	5689.9	
911.27	5689.9	
911.43	5689.9	
911.59	5689.9	
911.76	5689.9	
911.92	5689.9	
912.08	5689.9	
912.25	5689.9	
912.41	5689.9	
912.57	5689.9	
912.74	5689.9	
912.9	5689.9	
913.07	5689.9	
913.23	5689.9	
913.39	5689.9	
913.56	5689.9	
913.72	5689.9	
913.88	5689.9	
914.05	5689.9	
914.21	5689.9	
914.37	5689.9	
914.54	5689.9	
914.7	5689.9	
914.86	5689.9	
915.03	5689.9	
915.19	5689.9	
