Wavelength	Intensities	
nm	a.u.	
179.22	1741.5	
179.44	1731.2	
179.65	1751.7	
179.86	1710.7	
180.08	1702.5	
180.29	3974.4	
180.51	3027.6	
180.72	5015.5	
180.94	5706.3	
181.15	2797.5	
181.37	2716.3	
181.58	4894	
181.79	5045.5	
182.01	2829.6	
182.22	3089.7	
182.44	5075.5	
182.65	4403.8	
182.87	3760.8	
183.08	3315	
183.29	5337.7	
183.51	4481	
183.72	3093.1	
183.94	4275.5	
184.15	4828.4	
184.37	4724.7	
184.58	2766.8	
184.79	3579.8	
185.01	4560.8	
185.22	5143.8	
185.44	3774.4	
185.65	3188.7	
185.86	4810	
186.08	4437.9	
186.29	2730.6	
186.51	2858.3	
186.72	4556	
186.94	5240.8	
187.15	3302	
187.36	3325.9	
187.58	6561.7	
187.79	4882.4	
188.01	3431.7	
188.22	5216.9	
188.43	5700.9	
188.65	5076.9	
188.86	2882.2	
189.08	3377.8	
189.29	4655	
189.5	4646.8	
189.72	3120.4	
189.93	3112.9	
190.15	5216.2	
190.36	6124.1	
190.57	3416.7	
190.79	3250.1	
191	5311.7	
191.22	5281	
191.43	3435.8	
191.64	2900.6	
191.86	5434.6	
192.07	5283.1	
192.29	3030.3	
192.5	3123.8	
192.71	5269.4	
192.93	4632.5	
193.14	3084.9	
193.35	3143.6	
193.57	4602.5	
193.78	5259.2	
194	2613.9	
194.21	3014.6	
194.42	4471.4	
194.64	4845.5	
194.85	3335.5	
195.07	3842	
195.28	4782.7	
195.49	4263.2	
195.71	4041.3	
195.92	2965.5	
196.13	4974.5	
196.35	5048.9	
196.56	4268.6	
196.78	3336.1	
196.99	6092.7	
197.2	5670.1	
197.42	3786.7	
197.63	3414.6	
197.84	4382.7	
198.06	5023.7	
198.27	3075.4	
198.48	4003.8	
198.7	4621.6	
198.91	4852.3	
199.13	3397.6	
199.34	3383.9	
199.55	5180	
199.77	4250.2	
199.98	3027.6	
200.19	3450.8	
200.41	4799.1	
200.62	4535.6	
200.83	3503.4	
201.05	3803.1	
201.26	4797.7	
201.47	4562.9	
201.69	3055.6	
201.9	2947.7	
202.11	4803.9	
202.33	5554.1	
202.54	3164.1	
202.76	3535.5	
202.97	4831.8	
203.18	4924.7	
203.4	3491.1	
203.61	3519.1	
203.82	4960.9	
204.04	4588.1	
204.25	3401	
204.46	3393.5	
204.68	4812.7	
204.89	5018.2	
205.1	3297.9	
205.32	2854.2	
205.53	5074.2	
205.74	5221.6	
205.96	2552.5	
206.17	3467.9	
206.38	5048.2	
206.6	5188.9	
206.81	3843.4	
207.02	3204.4	
207.24	4993.6	
207.45	5304.2	
207.66	3252.9	
207.88	2806.4	
208.09	5005.9	
208.3	4821.6	
208.52	2994.8	
208.73	3241.9	
208.94	4858.5	
209.15	5347.2	
209.37	3267.9	
209.58	3654.9	
209.79	5195	
210.01	4699.4	
210.22	2662.4	
210.43	2759.3	
210.65	4764.9	
210.86	5038	
211.07	3254.2	
211.29	3018.7	
211.5	5005.2	
211.71	4799.1	
211.93	3003	
212.14	2941.6	
212.35	4803.9	
212.56	4876.9	
212.78	3367.5	
212.99	2857.6	
213.2	5517.9	
213.42	4643.4	
213.63	3092.4	
213.84	3256.3	
214.06	4373.8	
214.27	4451.6	
214.48	3216	
214.69	3389.4	
214.91	5324.7	
215.12	5397.1	
215.33	3418.7	
215.55	3739.6	
215.76	5730.9	
215.97	5100.8	
216.18	3289	
216.4	3293.8	
216.61	4582	
216.82	5164.3	
217.04	3046.7	
217.25	3102.7	
217.46	5268.7	
217.67	5131.5	
217.89	2736.8	
218.1	2805.7	
218.31	4893.3	
218.53	4970.4	
218.74	3165.5	
218.95	3051.5	
219.16	4790.2	
219.38	5487.2	
219.59	3041.9	
219.8	3538.9	
220.01	5968.5	
220.23	4854.4	
220.44	3878.9	
220.65	2982.5	
220.87	4889.9	
221.08	5311.7	
221.29	2861.7	
221.5	3632.4	
221.72	6284.5	
221.93	4576.5	
222.14	3426.9	
222.35	3910.9	
222.57	4852.3	
222.78	5115.8	
222.99	3214.6	
223.2	3403	
223.42	5094	
223.63	5128.8	
223.84	2555.9	
224.05	2562	
224.27	5892	
224.48	5505.6	
224.69	4161.5	
224.9	3385.3	
225.12	4962.9	
225.33	4804.5	
225.54	2742.9	
225.75	3070.6	
225.97	4463.2	
226.18	4749.2	
226.39	3250.1	
226.6	3034.4	
226.82	4668.7	
227.03	4496.7	
227.24	3364.1	
227.45	2835.1	
227.67	5125.4	
227.88	5423.7	
228.09	3790.1	
228.3	3728	
228.52	5111.7	
228.73	4752.7	
228.94	3145	
229.15	2831	
229.36	4803.2	
229.58	4755.4	
229.79	3231.7	
230	3628.3	
230.21	5623.7	
230.43	4850.3	
230.64	3375.7	
230.85	3495.2	
231.06	5142.4	
231.28	5111	
231.49	2848	
231.7	3352.5	
231.91	5061.9	
232.12	4809.3	
232.34	2957.9	
232.55	3296.5	
232.76	5302.2	
232.97	4990.2	
233.18	2992.1	
233.4	3332	
233.61	4997.7	
233.82	4627	
234.03	3175	
234.25	3100.6	
234.46	6415.6	
234.67	4885.1	
234.88	3463.1	
235.09	3061.7	
235.31	5057.1	
235.52	4690.5	
235.73	3325.2	
235.94	2924.5	
236.15	4585.4	
236.37	5754.8	
236.58	3004.4	
236.79	3278.8	
237	5051.7	
237.21	4427.7	
237.43	3516.4	
237.64	2775.7	
237.85	7976.2	
238.06	4500.1	
238.27	3472	
238.48	2899.2	
238.7	5089.9	
238.91	4689.8	
239.12	3259.7	
239.33	3325.9	
239.54	4517.1	
239.76	4768.4	
239.97	3226.2	
240.18	3246.7	
240.39	5752.7	
240.6	5008	
240.82	3358	
241.03	2834.4	
241.24	4798.4	
241.45	5459.2	
241.66	3013.9	
241.87	3499.3	
242.09	5392.3	
242.3	5662	
242.51	3512.3	
242.72	3238.5	
242.93	5182	
243.14	4805.2	
243.36	3771.7	
243.57	3970.3	
243.78	5528.8	
243.99	5103.5	
244.2	3291.8	
244.41	2983.2	
244.63	4498.7	
244.84	5027.1	
245.05	3443.3	
245.26	3229	
245.47	5036.6	
245.68	5154.1	
245.9	4164.9	
246.11	3448.1	
246.32	4667.3	
246.53	5035.3	
246.74	5059.8	
246.95	2804.4	
247.16	4502.8	
247.38	4808.6	
247.59	2823.5	
247.8	3276.8	
248.01	4459.8	
248.22	4791.6	
248.43	3011.2	
248.64	3202.3	
248.86	4427.7	
249.07	4661.9	
249.28	2954.5	
249.49	3383.9	
249.7	5242.8	
249.91	5285.8	
250.12	2798.9	
250.34	2837.1	
250.55	4931.5	
250.76	4847.5	
250.97	3379.1	
251.18	3392.1	
251.39	5268.1	
251.6	4941.7	
251.81	3411.9	
252.03	3337.5	
252.24	4635.9	
252.45	5188.9	
252.66	2897.2	
252.87	3603.1	
253.08	4905.6	
253.29	6048.3	
253.5	2899.9	
253.72	3910.9	
253.93	4762.9	
254.14	5588.9	
254.35	3119.1	
254.56	3209.8	
254.77	5004.6	
254.98	4502.1	
255.19	3136.1	
255.41	3840.6	
255.62	4964.3	
255.83	5322	
256.04	3469.3	
256.25	3323.9	
256.46	5747.3	
256.67	4575.2	
256.88	3361.4	
257.09	3700	
257.31	4498.7	
257.52	4539	
257.73	4134.2	
257.94	3125.9	
258.15	4755.4	
258.36	4838.7	
258.57	3901.4	
258.78	2549	
258.99	5211.4	
259.2	4697.4	
259.41	3131.3	
259.63	3217.4	
259.84	5513.8	
260.05	5746.6	
260.26	3990.1	
260.47	3016.7	
260.68	5193	
260.89	4708.3	
261.1	3708.9	
261.31	3020.1	
261.52	5339.7	
261.73	5595.7	
261.95	3932.1	
262.16	3527.3	
262.37	5260.5	
262.58	5451.7	
262.79	3908.2	
263	3181.9	
263.21	4878.9	
263.42	4628.4	
263.63	3487.7	
263.84	3162.7	
264.05	5230.5	
264.26	5477.6	
264.47	3846.8	
264.69	3312.9	
264.9	5403.9	
265.11	4962.2	
265.32	3033.7	
265.53	3066.5	
265.74	4949.3	
265.95	4354.7	
266.16	3291.1	
266.37	3592.1	
266.58	4932.2	
266.79	4679.6	
267	3111.5	
267.21	2895.1	
267.42	4513.7	
267.63	4812	
267.84	3258.3	
268.06	2861.7	
268.27	5197.1	
268.48	5356.8	
268.69	3183.2	
268.9	3710.9	
269.11	5321.3	
269.32	4373.1	
269.53	3278.1	
269.74	3028.9	
269.95	4992.9	
270.16	4331.5	
270.37	3307.5	
270.58	3725.9	
270.79	4685.1	
271	5205.9	
271.21	3437.2	
271.42	3280.2	
271.63	4984.8	
271.84	4481	
272.05	2655.5	
272.26	2934.7	
272.47	4789.5	
272.68	4935.6	
272.89	3145.7	
273.11	3538.9	
273.32	4612.7	
273.53	5513.1	
273.74	3486.3	
273.95	3375.7	
274.16	5233.9	
274.37	4881.7	
274.58	3539.6	
274.79	2898.6	
275	4964.3	
275.21	5343.2	
275.42	4219.5	
275.63	3639.9	
275.84	5059.8	
276.05	6116.6	
276.26	3431	
276.47	3186.6	
276.68	4683.7	
276.89	5599.8	
277.1	3614	
277.31	2949.8	
277.52	5020.3	
277.73	5250.3	
277.94	2881.5	
278.15	3160.7	
278.36	4948.6	
278.57	4587.4	
278.78	3116.3	
278.99	3483.6	
279.2	4604.5	
279.41	4519.2	
279.62	4113	
279.83	2960.7	
280.04	5806	
280.25	4492.6	
280.46	4020.8	
280.67	3287	
280.88	4565.6	
281.09	5376.6	
281.3	3411.2	
281.51	4228.4	
281.72	4602.5	
281.93	5210.7	
282.14	3052.2	
282.35	3317.7	
282.56	5203.9	
282.77	5166.3	
282.98	3222.8	
283.19	3859.7	
283.4	6210.8	
283.61	4792.2	
283.82	2930.6	
284.03	3919.8	
284.24	4988.9	
284.45	5266	
284.66	4020.8	
284.87	3770.3	
285.08	5246.9	
285.29	5397.1	
285.5	2904.7	
285.71	3188.7	
285.92	5270.1	
286.12	5780.1	
286.33	3963.5	
286.54	3186	
286.75	5200.5	
286.96	4713.7	
287.17	2997.5	
287.38	3849.5	
287.59	4605.9	
287.8	4610	
288.01	3200.3	
288.22	3601.7	
288.43	5131.5	
288.64	4380.6	
288.85	3766.9	
289.06	3588.7	
289.27	5221.6	
289.48	5489.2	
289.69	3994.2	
289.9	3602.4	
290.11	5370.5	
290.32	4597.7	
290.53	3721.2	
290.74	3470.6	
290.94	5155.4	
291.15	5130.8	
291.36	3084.9	
291.57	3627.6	
291.78	4675.5	
291.99	4384.7	
292.2	3037.1	
292.41	3500	
292.62	5221	
292.83	5016.2	
293.04	4220.9	
293.25	3030.3	
293.46	4677.6	
293.67	5254.4	
293.88	3107.5	
294.09	3003.7	
294.29	4502.1	
294.5	4966.3	
294.71	3297.2	
294.92	3147	
295.13	4690.5	
295.34	5625.1	
295.55	2803	
295.76	2867.8	
295.97	5150	
296.18	5657.2	
296.39	2913.6	
296.6	3065.1	
296.81	4906.9	
297.01	5183.4	
297.22	3196.2	
297.43	3125.2	
297.64	4618.2	
297.85	4522.6	
298.06	2620.7	
298.27	2818	
298.48	4739	
298.69	4601.8	
298.9	3364.1	
299.11	3016.7	
299.31	4473.4	
299.52	4478.9	
299.73	3561.4	
299.94	3482.9	
300.15	4860.5	
300.36	4603.2	
300.57	3446	
300.78	3412.6	
300.99	4726.7	
301.2	4867.3	
301.4	3105.4	
301.61	3311.6	
301.82	5126.7	
302.03	5157.5	
302.24	3677.5	
302.45	2947.7	
302.66	5029.1	
302.87	5317.9	
303.08	3089.7	
303.29	4073.4	
303.49	4665.3	
303.7	4806.6	
303.91	2806.4	
304.12	3869.3	
304.33	4427	
304.54	4980.7	
304.75	3109.5	
304.96	2991.4	
305.16	5045.5	
305.37	5602.6	
305.58	2799.6	
305.79	2846	
306	5115.1	
306.21	4355.3	
306.42	3091.8	
306.63	4500.1	
306.83	4710.3	
307.04	5156.8	
307.25	3388	
307.46	3350.5	
307.67	4262.5	
307.88	5130.2	
308.09	3078.1	
308.29	3123.8	
308.5	4940.4	
308.71	5229.1	
308.92	3291.1	
309.13	3023.5	
309.34	4757.4	
309.55	4782.7	
309.75	3800.3	
309.96	3463.8	
310.17	5165	
310.38	4552	
310.59	3641.3	
310.8	2901.3	
311.01	4932.9	
311.21	4822.3	
311.42	2999.6	
311.63	3056.9	
311.84	4670.7	
312.05	4939	
312.26	3431	
312.46	3655.6	
312.67	4736.3	
312.88	4405.2	
313.09	3000.3	
313.3	2937.5	
313.51	5410.1	
313.71	5725.4	
313.92	2984.6	
314.13	3120.4	
314.34	4962.9	
314.55	4753.3	
314.76	3685	
314.96	3278.8	
315.17	4970.4	
315.38	5156.8	
315.59	3021.4	
315.8	2930	
316.01	5414.8	
316.21	5531.6	
316.42	2974.3	
316.63	3298.6	
316.84	4746.5	
317.05	5279.7	
317.26	3532.1	
317.46	3136.8	
317.67	4775.9	
317.88	5111.7	
318.09	3678.8	
318.3	2788	
318.5	4636.6	
318.71	5001.8	
318.92	4632.5	
319.13	3494.5	
319.34	5248.3	
319.54	5303.6	
319.75	2826.9	
319.96	2699.9	
320.17	5114.5	
320.38	5274.9	
320.58	2747	
320.79	3224.9	
321	5322	
321.21	5402.5	
321.42	3289.7	
321.62	2746.3	
321.83	4573.1	
322.04	4828.4	
322.25	3157.3	
322.46	3026.9	
322.66	4877.6	
322.87	5053.7	
323.08	3627	
323.29	2923.8	
323.5	5672.2	
323.7	4476.2	
323.91	3954.6	
324.12	3566.9	
324.33	4966.3	
324.53	5068	
324.74	3502.7	
324.95	3599.6	
325.16	4371.7	
325.37	4643.4	
325.57	2998.9	
325.78	3013.2	
325.99	4941.7	
326.2	4429.1	
326.4	4233.2	
326.61	2790.7	
326.82	4774.5	
327.03	4971.8	
327.24	4179.9	
327.44	3870	
327.65	5109.7	
327.86	4207.9	
328.07	3517.7	
328.27	2878.8	
328.48	5351.3	
328.69	4463.9	
328.9	4132.1	
329.1	3190.7	
329.31	4757.4	
329.52	5482.4	
329.73	3052.8	
329.93	3371	
330.14	4859.8	
330.35	5035.3	
330.56	4737.6	
330.76	3624.2	
330.97	4685.8	
331.18	4882.4	
331.39	3301.3	
331.59	2768.9	
331.8	5251	
332.01	5326.8	
332.22	3096.5	
332.42	3461.7	
332.63	4928.8	
332.84	4516.5	
333.05	3323.9	
333.25	3036.5	
333.46	4605.2	
333.67	4861.9	
333.88	3131.3	
334.08	3414.6	
334.29	6160.3	
334.5	5264.6	
334.7	2975	
334.91	4029.7	
335.12	4543.8	
335.33	5084.4	
335.53	3286.3	
335.74	4663.2	
335.95	4709	
336.16	4505.5	
336.36	3303.4	
336.57	3753.9	
336.78	4453	
336.98	5234.6	
337.19	3964.9	
337.4	3286.3	
337.61	5722	
337.81	4473.4	
338.02	3140.9	
338.23	3839.3	
338.43	5459.9	
338.64	4579.3	
338.85	3022.1	
339.05	3830.4	
339.26	5556.8	
339.47	4393.6	
339.68	2989.4	
339.88	4270.7	
340.09	5068	
340.3	5199.8	
340.5	3455.6	
340.71	2728.6	
340.92	4463.9	
341.13	5313.1	
341.33	2945.7	
341.54	3504.8	
341.75	5029.1	
341.95	4692.6	
342.16	3383.9	
342.37	3593.5	
342.57	4539	
342.78	4805.9	
342.99	3650.8	
343.19	2757.2	
343.4	5156.1	
343.61	5005.9	
343.81	3183.2	
344.02	2978.4	
344.23	5158.8	
344.43	5414.8	
344.64	3734.1	
344.85	3541.6	
345.06	5074.2	
345.26	5287.2	
345.47	3450.8	
345.68	4024.9	
345.88	4399	
346.09	5243.5	
346.3	3555.3	
346.5	2682.8	
346.71	4825	
346.92	4589.5	
347.12	2864.4	
347.33	3339.6	
347.54	5289.9	
347.74	5548.6	
347.95	3439.2	
348.16	2674.6	
348.36	4673.5	
348.57	4571.7	
348.78	3405.1	
348.98	3645.4	
349.19	4827.1	
349.39	4334.2	
349.6	2852.8	
349.81	3086.3	
350.01	5059.8	
350.22	4582.7	
350.43	3347.7	
350.63	3925.3	
350.84	4833.9	
351.05	4648.9	
351.25	3045.3	
351.46	2806.4	
351.67	5245.5	
351.87	4545.1	
352.08	3235.8	
352.29	3607.2	
352.49	5203.9	
352.7	5247.6	
352.9	2949.8	
353.11	3614	
353.32	5651	
353.52	4684.4	
353.73	2934.1	
353.94	3723.9	
354.14	5084.4	
354.35	4846.2	
354.55	3107.5	
354.76	3308.2	
354.97	5025.7	
355.17	4818.9	
355.38	2925.2	
355.59	3906.2	
355.79	4597.7	
356	4832.5	
356.2	3308.2	
356.41	2977.1	
356.62	4410	
356.82	4749.9	
357.03	3544.4	
357.24	3189.4	
357.44	4640	
357.65	4692.6	
357.85	4158.7	
358.06	3408.5	
358.27	4403.1	
358.47	4584.7	
358.68	2910.2	
358.88	3504.1	
359.09	5036	
359.3	5307	
359.5	4052.2	
359.71	3605.1	
359.91	5588.9	
360.12	5085.8	
360.33	3571	
360.53	3914.4	
360.74	4676.2	
360.94	4708.3	
361.15	3668.6	
361.36	3106.8	
361.56	5234.6	
361.77	4863.2	
361.97	4063.9	
362.18	3297.2	
362.38	5301.5	
362.59	4547.2	
362.8	3059	
363	2990.7	
363.21	4426.3	
363.41	4962.2	
363.62	3464.5	
363.83	4197.7	
364.03	5049.6	
364.24	5655.1	
364.44	4390.2	
364.65	4239.3	
364.85	4810.7	
365.06	4603.8	
365.27	3218.7	
365.47	3337.5	
365.68	5566.4	
365.88	4830.5	
366.09	3556.6	
366.29	3347.7	
366.5	5001.8	
366.71	5370.5	
366.91	4283.7	
367.12	3710.9	
367.32	5814.2	
367.53	5219.6	
367.73	3691.8	
367.94	4347.8	
368.14	5230.5	
368.35	5847	
368.56	3622.9	
368.76	3125.9	
368.97	5360.2	
369.17	6536.4	
369.38	3227.6	
369.58	3540.9	
369.79	4528.1	
369.99	5664.7	
370.2	4348.5	
370.4	3566.9	
370.61	5113.8	
370.82	5994.4	
371.02	3547.1	
371.23	2962	
371.43	4566.3	
371.64	5569.8	
371.84	3606.5	
372.05	4424.3	
372.25	6575.3	
372.46	5283.1	
372.66	3568.2	
372.87	3534.1	
373.07	5368.4	
373.28	6620.4	
373.48	4297.3	
373.69	4120.5	
373.9	5014.1	
374.1	5058.5	
374.31	4334.2	
374.51	3932.1	
374.72	5650.3	
374.92	4825	
375.13	4386.7	
375.33	3805.1	
375.54	5353.4	
375.74	4993.6	
375.95	3940.3	
376.15	4857.1	
376.36	5429.8	
376.56	5280.3	
376.77	3968.3	
376.97	4344.4	
377.18	6237.4	
377.38	5500.2	
377.59	4551.3	
377.79	3631	
378	5296.7	
378.2	5634.6	
378.41	3782.6	
378.61	3628.3	
378.82	5766.4	
379.02	5062.6	
379.23	3822.9	
379.43	4706.2	
379.64	5798.5	
379.84	5492.7	
380.05	3745.1	
380.25	3661.1	
380.46	5612.8	
380.66	5246.2	
380.87	4742.4	
381.07	4903.5	
381.28	6093.4	
381.48	5565	
381.69	3715.7	
381.89	3752.6	
382.1	4783.4	
382.3	5638.1	
382.51	4519.9	
382.71	5242.1	
382.91	5512.4	
383.12	5935.7	
383.32	4005.8	
383.53	4181.3	
383.73	5494.7	
383.94	5337.7	
384.14	4120.5	
384.35	3407.1	
384.55	5251	
384.76	5565	
384.96	4048.8	
385.17	4173.1	
385.37	5574.6	
385.58	5041.4	
385.78	4257.7	
385.98	3422.2	
386.19	5204.6	
386.39	5513.1	
386.6	3805.1	
386.8	3990.1	
387.01	5556.1	
387.21	5666	
387.42	4321.2	
387.62	4717.2	
387.83	5114.5	
388.03	5446.2	
388.23	4072.7	
388.44	4679.6	
388.64	4935.6	
388.85	4962.9	
389.05	4328.7	
389.26	4792.9	
389.46	6562.4	
389.67	6003.3	
389.87	4363.5	
390.07	4371.7	
390.28	5360.9	
390.48	5096	
390.69	3837.2	
390.89	4035.9	
391.1	5258.5	
391.3	5851.7	
391.5	4913.8	
391.71	5371.8	
391.91	5773.2	
392.12	6472.3	
392.32	4986.8	
392.53	4453	
392.73	5382.7	
392.93	5458.5	
393.14	4179.2	
393.34	4965.6	
393.55	5835.3	
393.75	5364.3	
393.95	4233.8	
394.16	4132.1	
394.36	5361.6	
394.57	5778.7	
394.77	3812	
394.98	4052.9	
395.18	5287.9	
395.38	5367.7	
395.59	4818.2	
395.79	4051.6	
396	5479	
396.2	5836	
396.4	4713.7	
396.61	4658.4	
396.81	5899.5	
397.02	5397.8	
397.22	4847.5	
397.42	4964.3	
397.63	6032	
397.83	5413.5	
398.04	4159.4	
398.24	4522.6	
398.44	5837.4	
398.65	5117.9	
398.85	4033.8	
399.05	4151.9	
399.26	5518.6	
399.46	6779.5	
399.67	4434.5	
399.87	4155.3	
400.07	5763	
400.28	6053.8	
400.48	4292.5	
400.69	5173.2	
400.89	6225.1	
401.09	6605.4	
401.3	4281.6	
401.5	5160.9	
401.7	6737.1	
401.91	6911.9	
402.11	4614.8	
402.32	4685.8	
402.52	6337.8	
402.72	6206	
402.93	4856.4	
403.13	4033.1	
403.33	6876.4	
403.54	5716.6	
403.74	4670.1	
403.94	5252.4	
404.15	5873.6	
404.35	6814.3	
404.56	4554.7	
404.76	5901.6	
404.96	6287.9	
405.17	6051.1	
405.37	5441.5	
405.57	4948.6	
405.78	6378.1	
405.98	5891.3	
406.18	4562.2	
406.39	5225.1	
406.59	6346	
406.79	6012.2	
407	4392.2	
407.2	4394.9	
407.4	6469.5	
407.61	6606.1	
407.81	4603.2	
408.01	6184.2	
408.22	5658.5	
408.42	7260.7	
408.62	5565.7	
408.83	5156.8	
409.03	6316.6	
409.23	6219	
409.44	5382.7	
409.64	5424.4	
409.84	7191.8	
410.05	7172.7	
410.25	5591	
410.45	5373.9	
410.66	6878.4	
410.86	8698.4	
411.06	5877	
411.27	5730.2	
411.47	8686.8	
411.67	7129.7	
411.88	5937.1	
412.08	6211.5	
412.28	7597.3	
412.49	7932.5	
412.69	5969.1	
412.89	5980.1	
413.09	7864.2	
413.3	7816.4	
413.5	6070.9	
413.7	5855.1	
413.91	7338.6	
414.11	7944.1	
414.31	5980.8	
414.52	6319.3	
414.72	7810.3	
414.92	7751.6	
415.12	6018.3	
415.33	6432.7	
415.53	8099	
415.73	8233.5	
415.94	6711.9	
416.14	6258.6	
416.34	7335.8	
416.55	7138.5	
416.75	7215	
416.95	6828.6	
417.15	8220.5	
417.36	8692.3	
417.56	7472.4	
417.76	6695.5	
417.97	8432.2	
418.17	8232.2	
418.37	6485.2	
418.57	6552.1	
418.78	8169.3	
418.98	7867.6	
419.18	7205.4	
419.38	7085.3	
419.59	7884.7	
419.79	7514	
419.99	6447	
420.2	6726.9	
420.4	8231.5	
420.6	8432.2	
420.8	6442.2	
421.01	6275	
421.21	8320.9	
421.41	8276.5	
421.61	6666.8	
421.82	6408.1	
422.02	7872.4	
422.22	8452	
422.42	7050.5	
422.63	6610.2	
422.83	7885.4	
423.03	8883.4	
423.23	6772.6	
423.44	6042.2	
423.64	7923.6	
423.84	7634.1	
424.04	6376	
424.25	6157.6	
424.45	8505.2	
424.65	8483.4	
424.85	5955.5	
425.06	6353.5	
425.26	8699.1	
425.46	7774.8	
425.66	6831.3	
425.87	6516	
426.07	8376.9	
426.27	8272.4	
426.47	6655.9	
426.67	6111.8	
426.88	8683.4	
427.08	8242.4	
427.28	6931	
427.48	6036	
427.69	7439.6	
427.89	7921.5	
428.09	6764.4	
428.29	6201.9	
428.5	8453.3	
428.7	8064.9	
428.9	6087.2	
429.1	6551.5	
429.3	8094.9	
429.51	8367.3	
429.71	6407.4	
429.91	7103	
430.11	8458.1	
430.31	8684.8	
430.52	6709.1	
430.72	6935.1	
430.92	8794.7	
431.12	8437.6	
431.32	6509.8	
431.53	6755.6	
431.73	7701.7	
431.93	8894.3	
432.13	6406.7	
432.33	6457.2	
432.54	8153	
432.74	8307.2	
432.94	6462.7	
433.14	7122.8	
433.34	8569.4	
433.55	8262.9	
433.75	7217	
433.95	8628.8	
434.15	8477.9	
434.35	8224	
434.56	6643.6	
434.76	6430.6	
434.96	8517.5	
435.16	8821.3	
435.36	6602.7	
435.56	7658	
435.77	8385.1	
435.97	8567.3	
436.17	8167.3	
436.37	7574.8	
436.57	8448.6	
436.78	8409.6	
436.98	8766	
437.18	8021.2	
437.38	9059.5	
437.58	8534.6	
437.78	8140.7	
437.99	7167.2	
438.19	8898.4	
438.39	9545.6	
438.59	6935.1	
438.79	6535.8	
438.99	9415.9	
439.2	8468.4	
439.4	6607.4	
439.6	6630.6	
439.8	8783.7	
440	9644.6	
440.2	7769.3	
440.4	7689.4	
440.61	9329.2	
440.81	9645.3	
441.01	7153.6	
441.21	7922.2	
441.41	9829.6	
441.61	9374.2	
441.81	8151.6	
442.02	8863.6	
442.22	10094	
442.42	9491.7	
442.62	7423.2	
442.82	7334.5	
443.02	9911.5	
443.22	9216.5	
443.43	7798.7	
443.63	7456.7	
443.83	8946.2	
444.03	8955.8	
444.23	8583	
444.43	8153.6	
444.63	9427.5	
444.83	10234	
445.04	7735.2	
445.24	8614.4	
445.44	9641.8	
445.64	9670.5	
445.84	8101.8	
446.04	8135.9	
446.24	9071.1	
446.44	9802.3	
446.65	7380.9	
446.85	7860.8	
447.05	9194.7	
447.25	9843.2	
447.45	7916.1	
447.65	7462.8	
447.85	9402.2	
448.05	8836.3	
448.25	8272.4	
448.46	8009.6	
448.66	9290.3	
448.86	9066.4	
449.06	7385.7	
449.26	8279.3	
449.46	9785.9	
449.66	8986.5	
449.86	8045.1	
450.06	7950.9	
450.26	9241.1	
450.47	9637.1	
450.67	8187.1	
450.87	8449.9	
451.07	9870.5	
451.27	9753.8	
451.47	7702.4	
451.67	8223.3	
451.87	9560.6	
452.07	10284	
452.27	8118.8	
452.47	7965.9	
452.67	9739.5	
452.88	10004	
453.08	7379.5	
453.28	9103.2	
453.48	10789	
453.68	9534	
453.88	8026	
454.08	8196.7	
454.28	10187	
454.48	9858.2	
454.68	8672.5	
454.88	8895.7	
455.08	10330	
455.28	10198	
455.48	7893.6	
455.68	8627.4	
455.89	10778	
456.09	10535	
456.29	8377.6	
456.49	8585.8	
456.69	10777	
456.89	10093	
457.09	9105.3	
457.29	9337.4	
457.49	10591	
457.69	10692	
457.89	9159.2	
458.09	8520.9	
458.29	10617	
458.49	11123	
458.69	9528.5	
458.89	9096.4	
459.09	11471	
459.29	11512	
459.49	9151	
459.69	9802.9	
459.9	10951	
460.1	10858	
460.3	9022.7	
460.5	8944.8	
460.7	11105	
460.9	10859	
461.1	8813.8	
461.3	9880.1	
461.5	11846	
461.7	11617	
461.9	9452.1	
462.1	9637.1	
462.3	11366	
462.5	11773	
462.7	9607	
462.9	9747	
463.1	12649	
463.3	12603	
463.5	9839.8	
463.7	10965	
463.9	11778	
464.1	12110	
464.3	10378	
464.5	10451	
464.7	12348	
464.9	12344	
465.1	11495	
465.3	10847	
465.5	12711	
465.7	12760	
465.9	11230	
466.1	10782	
466.3	12762	
466.5	12475	
466.7	11891	
466.9	10789	
467.1	12745	
467.3	13332	
467.5	12015	
467.7	10979	
467.9	13601	
468.1	14220	
468.3	11625	
468.5	11976	
468.7	12856	
468.9	12798	
469.1	11460	
469.3	12099	
469.5	14502	
469.7	12755	
469.9	11637	
470.1	11503	
470.3	13095	
470.5	13034	
470.7	12299	
470.9	11372	
471.1	12897	
471.3	13049	
471.5	11295	
471.69	12708	
471.89	12672	
472.09	12316	
472.29	11888	
472.49	11949	
472.69	12722	
472.89	13136	
473.09	11183	
473.29	11091	
473.49	12684	
473.69	12608	
473.89	11757	
474.09	11209	
474.29	13633	
474.49	13352	
474.69	11942	
474.89	11319	
475.09	12710	
475.29	12904	
475.49	10936	
475.69	11287	
475.88	13883	
476.08	13029	
476.28	10937	
476.48	11061	
476.68	13168	
476.88	12958	
477.08	10941	
477.28	11391	
477.48	12689	
477.68	13109	
477.88	11049	
478.08	11177	
478.28	13574	
478.48	12859	
478.67	11368	
478.87	10665	
479.07	13587	
479.27	12842	
479.47	11503	
479.67	11434	
479.87	13398	
480.07	13886	
480.27	11081	
480.47	12196	
480.67	13031	
480.87	13682	
481.06	11232	
481.26	12020	
481.46	13124	
481.66	13055	
481.86	11652	
482.06	12439	
482.26	12877	
482.46	13374	
482.66	11664	
482.86	11293	
483.05	13401	
483.25	12722	
483.45	13565	
483.65	11816	
483.85	13068	
484.05	13245	
484.25	12093	
484.45	12613	
484.65	13978	
484.84	14144	
485.04	11845	
485.24	11898	
485.44	14457	
485.64	13049	
485.84	11573	
486.04	12484	
486.24	13403	
486.44	13663	
486.63	11567	
486.83	12358	
487.03	13629	
487.23	13913	
487.43	11741	
487.63	13654	
487.83	14014	
488.02	14597	
488.22	12788	
488.42	13258	
488.62	14657	
488.82	13794	
489.02	12393	
489.22	12721	
489.41	14541	
489.61	14529	
489.81	12363	
490.01	12447	
490.21	14657	
490.41	15299	
490.61	12607	
490.8	12588	
491	14483	
491.2	13767	
491.4	12904	
491.6	12232	
491.8	14214	
491.99	14157	
492.19	12136	
492.39	12298	
492.59	14705	
492.79	14819	
492.99	13171	
493.18	12658	
493.38	15083	
493.58	15763	
493.78	13460	
493.98	13149	
494.18	14967	
494.37	14896	
494.57	13946	
494.77	13781	
494.97	15681	
495.17	15988	
495.37	13783	
495.56	14110	
495.76	16361	
495.96	16059	
496.16	14975	
496.36	14270	
496.55	16242	
496.75	16040	
496.95	14550	
497.15	14386	
497.35	16321	
497.54	16519	
497.74	14341	
497.94	15888	
498.14	17058	
498.34	16792	
498.53	14358	
498.73	14924	
498.93	16113	
499.13	16643	
499.33	14922	
499.52	15253	
499.72	16939	
499.92	16761	
500.12	14792	
500.32	15100	
500.51	16898	
500.71	16870	
500.91	15646	
501.11	15203	
501.31	17009	
501.5	17253	
501.7	15922	
501.9	15167	
502.1	16771	
502.29	17116	
502.49	15627	
502.69	15817	
502.89	17053	
503.09	17081	
503.28	14502	
503.48	14502	
503.68	16184	
503.88	16303	
504.07	15331	
504.27	14780	
504.47	16601	
504.67	16669	
504.86	15268	
505.06	14953	
505.26	16214	
505.46	17489	
505.65	14747	
505.85	14934	
506.05	16019	
506.25	16365	
506.44	14102	
506.64	14806	
506.84	15820	
507.04	16438	
507.23	14192	
507.43	14638	
507.63	17242	
507.83	15968	
508.02	14750	
508.22	14345	
508.42	17589	
508.62	15814	
508.81	14411	
509.01	15086	
509.21	15708	
509.4	16108	
509.6	14747	
509.8	14345	
510	15953	
510.19	17057	
510.39	14356	
510.59	14433	
510.79	15911	
510.98	17006	
511.18	14683	
511.38	14663	
511.57	16765	
511.77	16365	
511.97	15049	
512.17	14343	
512.36	16620	
512.56	16389	
512.76	14379	
512.95	14108	
513.15	16648	
513.35	15591	
513.55	15024	
513.74	14360	
513.94	16684	
514.14	16206	
514.33	15289	
514.53	15167	
514.73	16145	
514.92	16399	
515.12	14582	
515.32	14497	
515.51	16518	
515.71	16892	
515.91	15851	
516.11	14739	
516.3	17908	
516.5	16324	
516.7	15167	
516.89	15656	
517.09	16445	
517.29	16502	
517.48	15317	
517.68	14937	
517.88	16257	
518.07	16638	
518.27	15552	
518.47	14632	
518.66	17146	
518.86	16247	
519.06	14530	
519.25	14883	
519.45	16462	
519.65	17606	
519.84	15446	
520.04	16122	
520.24	18059	
520.43	16938	
520.63	15132	
520.83	15069	
521.02	16200	
521.22	16606	
521.42	15117	
521.61	15698	
521.81	16352	
522.01	16584	
522.2	15307	
522.4	14982	
522.6	17103	
522.79	16053	
522.99	15329	
523.18	15029	
523.38	17290	
523.58	17384	
523.77	16784	
523.97	15365	
524.17	19011	
524.36	18447	
524.56	16734	
524.76	16432	
524.95	17918	
525.15	17677	
525.34	16430	
525.54	16744	
525.74	18531	
525.93	17823	
526.13	17522	
526.33	16801	
526.52	18956	
526.72	18611	
526.91	17949	
527.11	17358	
527.31	18959	
527.5	19491	
527.7	17456	
527.89	16740	
528.09	18467	
528.29	19155	
528.48	17919	
528.68	17557	
528.87	19409	
529.07	19125	
529.27	17554	
529.46	17321	
529.66	19129	
529.85	19437	
530.05	17212	
530.25	17601	
530.44	20231	
530.64	18869	
530.83	17490	
531.03	17559	
531.23	19518	
531.42	19278	
531.62	18438	
531.81	17808	
532.01	19937	
532.21	20369	
532.4	18013	
532.6	18475	
532.79	20889	
532.99	20634	
533.18	18629	
533.38	19372	
533.58	20207	
533.77	20662	
533.97	19012	
534.16	19452	
534.36	21179	
534.55	20583	
534.75	19670	
534.95	19078	
535.14	21454	
535.34	20562	
535.53	18747	
535.73	20214	
535.92	21569	
536.12	20352	
536.31	18709	
536.51	19633	
536.71	20695	
536.9	20364	
537.1	18623	
537.29	18996	
537.49	20858	
537.68	20301	
537.88	19336	
538.07	18722	
538.27	20658	
538.46	21303	
538.66	18738	
538.86	19194	
539.05	20755	
539.25	21106	
539.44	19595	
539.64	18998	
539.83	20506	
540.03	21211	
540.22	18724	
540.42	18755	
540.61	20398	
540.81	20743	
541	18844	
541.2	19715	
541.39	19957	
541.59	20497	
541.78	19405	
541.98	18709	
542.18	19977	
542.37	19888	
542.57	18699	
542.76	19451	
542.96	19594	
543.15	20167	
543.35	18669	
543.54	18067	
543.74	20061	
543.93	20009	
544.13	18326	
544.32	19266	
544.52	19980	
544.71	19568	
544.91	17687	
545.1	18381	
545.3	19635	
545.49	19974	
545.69	17539	
545.88	17995	
546.08	20785	
546.27	20256	
546.47	18329	
546.66	17873	
546.86	20166	
547.05	20379	
547.24	17892	
547.44	17946	
547.63	19284	
547.83	20123	
548.02	18292	
548.22	18304	
548.41	18994	
548.61	20033	
548.8	17645	
549	17669	
549.19	19341	
549.39	19873	
549.58	17490	
549.78	17905	
549.97	19730	
550.17	19299	
550.36	18275	
550.55	19087	
550.75	19070	
550.94	19884	
551.14	17441	
551.33	17549	
551.53	18620	
551.72	19497	
551.92	17582	
552.11	17458	
552.31	19473	
552.5	19420	
552.69	18677	
552.89	17109	
553.08	19270	
553.28	19078	
553.47	17359	
553.67	18222	
553.86	19665	
554.06	18342	
554.25	16672	
554.44	17173	
554.64	20091	
554.83	19901	
555.03	17154	
555.22	17408	
555.42	19275	
555.61	19146	
555.8	17165	
556	17380	
556.19	18336	
556.39	19149	
556.58	17220	
556.78	17249	
556.97	18820	
557.16	18819	
557.36	18236	
557.55	17051	
557.75	18075	
557.94	19686	
558.13	16903	
558.33	16830	
558.52	19480	
558.72	18380	
558.91	16782	
559.1	17005	
559.3	18181	
559.49	17903	
559.69	16516	
559.88	17292	
560.07	18545	
560.27	19100	
560.46	17307	
560.66	17504	
560.85	18542	
561.04	17873	
561.24	16675	
561.43	16739	
561.63	18122	
561.82	18282	
562.01	17767	
562.21	17068	
562.4	18629	
562.59	19556	
562.79	16993	
562.98	16726	
563.18	18660	
563.37	20031	
563.56	17414	
563.76	16874	
563.95	18581	
564.14	18568	
564.34	17337	
564.53	16924	
564.73	18900	
564.92	19309	
565.11	17509	
565.31	17133	
565.5	19542	
565.69	18624	
565.89	17301	
566.08	17519	
566.27	19370	
566.47	19962	
566.66	18067	
566.85	17141	
567.05	19325	
567.24	18769	
567.44	17520	
567.63	18449	
567.82	19494	
568.02	19209	
568.21	17395	
568.4	17849	
568.6	19280	
568.79	19370	
568.98	17513	
569.18	17752	
569.37	19531	
569.56	21042	
569.76	17936	
569.95	18988	
570.14	19744	
570.34	19895	
570.53	17614	
570.72	17667	
570.91	20263	
571.11	19590	
571.3	18132	
571.49	18876	
571.69	19638	
571.88	19276	
572.07	18699	
572.27	18520	
572.46	19265	
572.65	20076	
572.85	17914	
573.04	18404	
573.23	20538	
573.43	19989	
573.62	18051	
573.81	18486	
574	20172	
574.2	19949	
574.39	18606	
574.58	18739	
574.78	21054	
574.97	20579	
575.16	19070	
575.36	19512	
575.55	20897	
575.74	21057	
575.93	18415	
576.13	19510	
576.32	20414	
576.51	21009	
576.71	18979	
576.9	20142	
577.09	21235	
577.28	20818	
577.48	19298	
577.67	18590	
577.86	20523	
578.05	20901	
578.25	19139	
578.44	19265	
578.63	20836	
578.83	21772	
579.02	18667	
579.21	20106	
579.4	20854	
579.6	20904	
579.79	19321	
579.98	21179	
580.17	21231	
580.37	21343	
580.56	18913	
580.75	19657	
580.94	21392	
581.14	21543	
581.33	19967	
581.52	19254	
581.71	21301	
581.91	21801	
582.1	19205	
582.29	19443	
582.48	20965	
582.68	21131	
582.87	19755	
583.06	19639	
583.25	21454	
583.45	21070	
583.64	20246	
583.83	20682	
584.02	20949	
584.21	21476	
584.41	20074	
584.6	19686	
584.79	21270	
584.98	21926	
585.18	19250	
585.37	19163	
585.56	20967	
585.75	21578	
585.94	19312	
586.14	19964	
586.33	21544	
586.52	21095	
586.71	19409	
586.91	19405	
587.1	20406	
587.29	21104	
587.48	19028	
587.67	18908	
587.87	20753	
588.06	20736	
588.25	19921	
588.44	19314	
588.63	20381	
588.83	20850	
589.02	18761	
589.21	18380	
589.4	19935	
589.59	19822	
589.78	17459	
589.98	17594	
590.17	18874	
590.36	19091	
590.55	16537	
590.74	16899	
590.94	19684	
591.13	18624	
591.32	16808	
591.51	16496	
591.7	19006	
591.89	18785	
592.09	16788	
592.28	17169	
592.47	18266	
592.66	19972	
592.85	16925	
593.05	17098	
593.24	18776	
593.43	19488	
593.62	17135	
593.81	17604	
594	18955	
594.19	19071	
594.39	16978	
594.58	17088	
594.77	19114	
594.96	19416	
595.15	16829	
595.34	17326	
595.54	18973	
595.73	18136	
595.92	16215	
596.11	16942	
596.3	19032	
596.49	18288	
596.68	16651	
596.88	17146	
597.07	18921	
597.26	18008	
597.45	16292	
597.64	17326	
597.83	18246	
598.02	18834	
598.22	16460	
598.41	17012	
598.6	18622	
598.79	18078	
598.98	16477	
599.17	17293	
599.36	18499	
599.55	19170	
599.74	17955	
599.94	18013	
600.13	18921	
600.32	17870	
600.51	16225	
600.7	16320	
600.89	19229	
601.08	19306	
601.27	16198	
601.47	16888	
601.66	18595	
601.85	18989	
602.04	16677	
602.23	16739	
602.42	17900	
602.61	18239	
602.8	16482	
602.99	16146	
603.18	18094	
603.37	18260	
603.57	16688	
603.76	17255	
603.95	18725	
604.14	18595	
604.33	16267	
604.52	16680	
604.71	18714	
604.9	18015	
605.09	17025	
605.28	16883	
605.47	18944	
605.66	18345	
605.86	16918	
606.05	16446	
606.24	18712	
606.43	17677	
606.62	16519	
606.81	17111	
607	18565	
607.19	18091	
607.38	15975	
607.57	16247	
607.76	17815	
607.95	17280	
608.14	16729	
608.33	16995	
608.52	17620	
608.72	18557	
608.91	15824	
609.1	15913	
609.29	17856	
609.48	17450	
609.67	16438	
609.86	15911	
610.05	17385	
610.24	17591	
610.43	15724	
610.62	15427	
610.81	18417	
611	18267	
611.19	15708	
611.38	16326	
611.57	17921	
611.76	18844	
611.95	15631	
612.14	15548	
612.33	17629	
612.52	17283	
612.71	16036	
612.9	15562	
613.09	17064	
613.28	18986	
613.47	15827	
613.66	16436	
613.85	17720	
614.04	17395	
614.24	15735	
614.43	15242	
614.62	17980	
614.81	17833	
615	16102	
615.19	16383	
615.38	17288	
615.57	17750	
615.76	16277	
615.95	17109	
616.14	18070	
616.33	17681	
616.52	16625	
616.71	16712	
616.9	17893	
617.09	17820	
617.28	16126	
617.47	17086	
617.66	17299	
617.85	17506	
618.04	17055	
618.22	16521	
618.41	17901	
618.6	18895	
618.79	16677	
618.98	16612	
619.17	18989	
619.36	17779	
619.55	16814	
619.74	16770	
619.93	18641	
620.12	18272	
620.31	17368	
620.5	17602	
620.69	19464	
620.88	19629	
621.07	18175	
621.26	17606	
621.45	19121	
621.64	19184	
621.83	17617	
622.02	16972	
622.21	19082	
622.4	19045	
622.59	18039	
622.78	18153	
622.97	18712	
623.16	19716	
623.35	17785	
623.54	17042	
623.72	18985	
623.91	19118	
624.1	18031	
624.29	17175	
624.48	20142	
624.67	19439	
624.86	17955	
625.05	17147	
625.24	20190	
625.43	19041	
625.62	19181	
625.81	17494	
626	19721	
626.19	19232	
626.38	18189	
626.56	17827	
626.75	19125	
626.94	19876	
627.13	18186	
627.32	17141	
627.51	19579	
627.7	20603	
627.89	17246	
628.08	18116	
628.27	18844	
628.46	19189	
628.65	17366	
628.83	17195	
629.02	19322	
629.21	18995	
629.4	17699	
629.59	17901	
629.78	18920	
629.97	19574	
630.16	17837	
630.35	17572	
630.54	20022	
630.72	19720	
630.91	17462	
631.1	18020	
631.29	19272	
631.48	19354	
631.67	17891	
631.86	17407	
632.05	19049	
632.24	19123	
632.42	17208	
632.61	17806	
632.8	18919	
632.99	18834	
633.18	17811	
633.37	17842	
633.56	19319	
633.75	19064	
633.93	17674	
634.12	17671	
634.31	19791	
634.5	19604	
634.69	17647	
634.88	17670	
635.07	19040	
635.25	19478	
635.44	18113	
635.63	18422	
635.82	18830	
636.01	18342	
636.2	17937	
636.39	17581	
636.57	19814	
636.76	19222	
636.95	17111	
637.14	18067	
637.33	18983	
637.52	19929	
637.7	16746	
637.89	17829	
638.08	18979	
638.27	19749	
638.46	17724	
638.65	17955	
638.83	19667	
639.02	18564	
639.21	17461	
639.4	17770	
639.59	18676	
639.78	18429	
639.96	16576	
640.15	16808	
640.34	18474	
640.53	18474	
640.72	16445	
640.91	16631	
641.09	17898	
641.28	18899	
641.47	16645	
641.66	17286	
641.85	18443	
642.03	18426	
642.22	16956	
642.41	16390	
642.6	17917	
642.79	17333	
642.97	16164	
643.16	16790	
643.35	17682	
643.54	17499	
643.73	16013	
643.91	16640	
644.1	17032	
644.29	17819	
644.48	15732	
644.67	15976	
644.85	17135	
645.04	17354	
645.23	15370	
645.42	15662	
645.6	16787	
645.79	17573	
645.98	15168	
646.17	14358	
646.36	16067	
646.54	16521	
646.73	15319	
646.92	14579	
647.11	15979	
647.29	16900	
647.48	14718	
647.67	14397	
647.86	17161	
648.05	17079	
648.23	14816	
648.42	15751	
648.61	16591	
648.8	16496	
648.98	14368	
649.17	14650	
649.36	15868	
649.55	15666	
649.73	14439	
649.92	15087	
650.11	15969	
650.3	16267	
650.48	14385	
650.67	14272	
650.86	16239	
651.05	15480	
651.23	14354	
651.42	14266	
651.61	15670	
651.79	15650	
651.98	14528	
652.17	14149	
652.36	15917	
652.54	15163	
652.73	14189	
652.92	13948	
653.11	15748	
653.29	15882	
653.48	13334	
653.67	14117	
653.85	15586	
654.04	16330	
654.23	14036	
654.42	13708	
654.6	14679	
654.79	15173	
654.98	12896	
655.16	13191	
655.35	13919	
655.54	13980	
655.73	12500	
655.91	12438	
656.1	14717	
656.29	13789	
656.47	12312	
656.66	13783	
656.85	14377	
657.03	14440	
657.22	13005	
657.41	13196	
657.59	14711	
657.78	14676	
657.97	12981	
658.16	13548	
658.34	15201	
658.53	15614	
658.72	14315	
658.9	14570	
659.09	14855	
659.28	14989	
659.46	13446	
659.65	13421	
659.84	14698	
660.02	15211	
660.21	13387	
660.4	13198	
660.58	15500	
660.77	14986	
660.96	13764	
661.14	12949	
661.33	15780	
661.52	15755	
661.7	13010	
661.89	15526	
662.08	14621	
662.26	14330	
662.45	13123	
662.64	13067	
662.82	15063	
663.01	14540	
663.2	13015	
663.38	13774	
663.57	14918	
663.75	14928	
663.94	13449	
664.13	14189	
664.31	14537	
664.5	15024	
664.69	13422	
664.87	13997	
665.06	14337	
665.25	14887	
665.43	14104	
665.62	14103	
665.8	14934	
665.99	14586	
666.18	13256	
666.36	13317	
666.55	14935	
666.74	14898	
666.92	13006	
667.11	14050	
667.29	14634	
667.48	14966	
667.67	13932	
667.85	13011	
668.04	14383	
668.22	14534	
668.41	13203	
668.6	13493	
668.78	14330	
668.97	14474	
669.15	13547	
669.34	12567	
669.53	14265	
669.71	14549	
669.9	12760	
670.08	13295	
670.27	14199	
670.46	14616	
670.64	13414	
670.83	13643	
671.01	14078	
671.2	14537	
671.38	12925	
671.57	12698	
671.76	15170	
671.94	15555	
672.13	12835	
672.31	13532	
672.5	14838	
672.69	14342	
672.87	12963	
673.06	13177	
673.24	14721	
673.43	14485	
673.61	13396	
673.8	13063	
673.98	14653	
674.17	14930	
674.36	13412	
674.54	13347	
674.73	14497	
674.91	14740	
675.1	13026	
675.28	12800	
675.47	14402	
675.65	14810	
675.84	13091	
676.03	13233	
676.21	14164	
676.4	13805	
676.58	13570	
676.77	13561	
676.95	15401	
677.14	14164	
677.32	12734	
677.51	12650	
677.69	14851	
677.88	14070	
678.06	12731	
678.25	12833	
678.44	14466	
678.62	14100	
678.81	12465	
678.99	13396	
679.18	15083	
679.36	14808	
679.55	12938	
679.73	13433	
679.92	14635	
680.1	14214	
680.29	13941	
680.47	13087	
680.66	14126	
680.84	14755	
681.03	12420	
681.21	13308	
681.4	14255	
681.58	14030	
681.77	12756	
681.95	12685	
682.14	14765	
682.32	14889	
682.51	13346	
682.69	12392	
682.88	13932	
683.06	14207	
683.25	13063	
683.43	13383	
683.62	14129	
683.8	14540	
683.99	13481	
684.17	12828	
684.36	15008	
684.54	13926	
684.73	11891	
684.91	11930	
685.1	13606	
685.28	13003	
685.46	11921	
685.65	11901	
685.83	13196	
686.02	12796	
686.2	11372	
686.39	11368	
686.57	12811	
686.76	13997	
686.94	11604	
687.13	11879	
687.31	13508	
687.5	13257	
687.68	11329	
687.86	12285	
688.05	14711	
688.23	12880	
688.42	12494	
688.6	11944	
688.79	13335	
688.97	13240	
689.16	12354	
689.34	11456	
689.52	14001	
689.71	14143	
689.89	12656	
690.08	12031	
690.26	13698	
690.45	13638	
690.63	12663	
690.81	12286	
691	13424	
691.18	13478	
691.37	12194	
691.55	13908	
691.74	13310	
691.92	14754	
692.1	12173	
692.29	11559	
692.47	13250	
692.66	12857	
692.84	11877	
693.02	12235	
693.21	13041	
693.39	13355	
693.58	12557	
693.76	12019	
693.94	14366	
694.13	14336	
694.31	12168	
694.5	13120	
694.68	13556	
694.86	13956	
695.05	12532	
695.23	12741	
695.42	14256	
695.6	15995	
695.78	13162	
695.97	12389	
696.15	14344	
696.34	13807	
696.52	12177	
696.7	12841	
696.89	13914	
697.07	13447	
697.25	12536	
697.44	13721	
697.62	13842	
697.81	13851	
697.99	12249	
698.17	12625	
698.36	13115	
698.54	13747	
698.72	12545	
698.91	11662	
699.09	13387	
699.28	13227	
699.46	12115	
699.64	11998	
699.83	13040	
700.01	13881	
700.19	12738	
700.38	11449	
700.56	14044	
700.74	13299	
700.93	11742	
701.11	12375	
701.29	13665	
701.48	14550	
701.66	11917	
701.84	12231	
702.03	13457	
702.21	14252	
702.39	11641	
702.58	12278	
702.76	13893	
702.94	13865	
703.13	11695	
703.31	13554	
703.49	13241	
703.68	13985	
703.86	11824	
704.04	12736	
704.23	13689	
704.41	13883	
704.59	11881	
704.78	12633	
704.96	14829	
705.14	13936	
705.33	11771	
705.51	12318	
705.69	13337	
705.87	14041	
706.06	12468	
706.24	11706	
706.42	13489	
706.61	13781	
706.79	12446	
706.97	11555	
707.16	13112	
707.34	13533	
707.52	12308	
707.7	11754	
707.89	13108	
708.07	12954	
708.25	12211	
708.44	12616	
708.62	12895	
708.8	13855	
708.98	12507	
709.17	11721	
709.35	13233	
709.53	13160	
709.72	11318	
709.9	11605	
710.08	13348	
710.26	13420	
710.45	12478	
710.63	11544	
710.81	13022	
710.99	12964	
711.18	11906	
711.36	11429	
711.54	12773	
711.72	13267	
711.91	11411	
712.09	10905	
712.27	12644	
712.45	13275	
712.64	11187	
712.82	10505	
713	11932	
713.18	12007	
713.37	10400	
713.55	11138	
713.73	12372	
713.91	11148	
714.1	10189	
714.28	9581.8	
714.46	11498	
714.64	10646	
714.83	8708.6	
715.01	9106.6	
715.19	10227	
715.37	9629.5	
715.55	8671.8	
715.74	8770.8	
715.92	10617	
716.1	9041.1	
716.28	9397.4	
716.47	8609	
716.65	9548.3	
716.83	9658.2	
717.01	8469	
717.19	8453.3	
717.38	11028	
717.56	9241.8	
717.74	8711.4	
717.92	8056	
718.1	10280	
718.29	9714.2	
718.47	7983	
718.65	8634.9	
718.83	10654	
719.01	10734	
719.2	8296.3	
719.38	9243.8	
719.56	10563	
719.74	11880	
719.92	8978.3	
720.11	9545.6	
720.29	10434	
720.47	9721	
720.65	8256	
720.83	8751.7	
721.02	9630.9	
721.2	9363.3	
721.38	8528.4	
721.56	7910.6	
721.74	8920.3	
721.92	8941.4	
722.11	8717.5	
722.29	8553.7	
722.47	9910.1	
722.65	9293.7	
722.83	7856	
723.01	8372.1	
723.2	9331.9	
723.38	9519.6	
723.56	7354.3	
723.74	8171.4	
723.92	8875.2	
724.1	9839.1	
724.29	7668.3	
724.47	8570.1	
724.65	8965.3	
724.83	8826.1	
725.01	7460.8	
725.19	8135.9	
725.37	8765.3	
725.56	8738	
725.74	7330.4	
725.92	7620.5	
726.1	8740.7	
726.28	9072.5	
726.46	7804.1	
726.64	7568.6	
726.83	8918.9	
727.01	9095.7	
727.19	7273.7	
727.37	7871	
727.55	9168.1	
727.73	9338.7	
727.91	7169.9	
728.09	7097.6	
728.28	9397.4	
728.46	9636.4	
728.64	7982.3	
728.82	7905.2	
729	10238	
729.18	9797.5	
729.36	7441	
729.54	9088.9	
729.72	10619	
729.91	9321.7	
730.09	9112.8	
730.27	8105.9	
730.45	9278	
730.63	9872.6	
730.81	8594.6	
730.99	7900.4	
731.17	10226	
731.35	9121.7	
731.53	8236.9	
731.71	7903.1	
731.9	9966.1	
732.08	10053	
732.26	8019.8	
732.44	7772.7	
732.62	9950.4	
732.8	9673.2	
732.98	8323.6	
733.16	7593.9	
733.34	9583.1	
733.52	8510.7	
733.7	7785.7	
733.88	8040.3	
734.07	9311.4	
734.25	9204.9	
734.43	7453.2	
734.61	8542.8	
734.79	10327	
734.97	9066.4	
735.15	7443.7	
735.33	7766.6	
735.51	9149.6	
735.69	8919.6	
735.87	8531.2	
736.05	7763.8	
736.23	9099.8	
736.41	8767.4	
736.59	7596.6	
736.77	7668.3	
736.95	9358.5	
737.13	8873.8	
737.32	7319.4	
737.5	7539.3	
737.68	9740.1	
737.86	8718.9	
738.04	7140.6	
738.22	8444.5	
738.4	8598.7	
738.58	8744.8	
738.76	7589.8	
738.94	6750.1	
739.12	8592.6	
739.3	8477.9	
739.48	7941.3	
739.66	7690.1	
739.84	8751.7	
740.02	8773.5	
740.2	6830	
740.38	7033.4	
740.56	8969.4	
740.74	8032.8	
740.92	7533.8	
741.1	7354.9	
741.28	8495	
741.46	8320.2	
741.64	6952.9	
741.82	7335.8	
742	8432.9	
742.18	8344.8	
742.36	7083.2	
742.54	6830	
742.72	8852.7	
742.9	7699	
743.08	7313.3	
743.26	6382.8	
743.44	8766	
743.62	8778.3	
743.8	7336.5	
743.98	6610.8	
744.16	8355	
744.34	8160.5	
744.52	7240.3	
744.7	7120.1	
744.88	8516.8	
745.06	8026.7	
745.24	7089.4	
745.42	7152.9	
745.6	8391.2	
745.78	8161.8	
745.96	6173.3	
746.14	6343.9	
746.32	8965.3	
746.5	8213.7	
746.68	6639.5	
746.86	6227.9	
747.03	8540.7	
747.21	7279.2	
747.39	6710.5	
747.57	6283.9	
747.75	7817.1	
747.93	8107.9	
748.11	6141.9	
748.29	6095.4	
748.47	9125.7	
748.65	7577.5	
748.83	6687.3	
749.01	6554.2	
749.19	7950.9	
749.37	7291.5	
749.55	6393.8	
749.73	6451.1	
749.91	7658	
750.09	7432.1	
750.26	6411.5	
750.44	5910.4	
750.62	7701.7	
750.8	7543.4	
750.98	5786.2	
751.16	6090.7	
751.34	7629.4	
751.52	7110.5	
751.7	6666.8	
751.88	5696.1	
752.06	7935.2	
752.24	7740	
752.42	5651	
752.59	5934.3	
752.77	7507.2	
752.95	8473.8	
753.13	6593.8	
753.31	6004	
753.49	7180.9	
753.67	7493.5	
753.85	6268.1	
754.03	5765	
754.21	7754.3	
754.38	7886.7	
754.56	5799.8	
754.74	4943.1	
754.92	6760.3	
755.1	7305.1	
755.28	4871.4	
755.46	4801.8	
755.64	7619.8	
755.82	7505.8	
755.99	4628.4	
756.17	4544.4	
756.35	5255.8	
756.53	6316.6	
756.71	3439.9	
756.89	4202.4	
757.07	5905	
757.25	5286.5	
757.42	4721.9	
757.6	5373.2	
757.78	6173.9	
757.96	5516.5	
758.14	4668	
758.32	4246.8	
758.5	5170.4	
758.67	5858.6	
758.85	4493.9	
759.03	4494.6	
759.21	5937.7	
759.39	5464.7	
759.57	4084.3	
759.75	4986.1	
759.92	6488	
760.1	6013.5	
760.28	5395	
760.46	5582.8	
760.64	5890.6	
760.82	5610.1	
760.99	5156.8	
761.17	4676.9	
761.35	6569.9	
761.53	5746.6	
761.71	4876.2	
761.89	5384.1	
762.06	6437.4	
762.24	6112.5	
762.42	4975.2	
762.6	4787.5	
762.78	6211.5	
762.96	6647.7	
763.13	5330.9	
763.31	5067.4	
763.49	6759.7	
763.67	6126.2	
763.85	5705.6	
764.02	6087.2	
764.2	6987.7	
764.38	6363	
764.56	4885.1	
764.74	5545.9	
764.91	7052.5	
765.09	6188.3	
765.27	4657.8	
765.45	4489.1	
765.63	7099.6	
765.8	6868.9	
765.98	4293.9	
766.16	4450.2	
766.34	5728.2	
766.52	5565.7	
766.69	5157.5	
766.87	4372.4	
767.05	6102.3	
767.23	6581.5	
767.41	4553.3	
767.58	4674.1	
767.76	6473.6	
767.94	6507.1	
768.12	4572.4	
768.29	5089.9	
768.47	5991.7	
768.65	6609.5	
768.83	4240	
769	5109	
769.18	5627.1	
769.36	6117.3	
769.54	5007.3	
769.72	4186	
769.89	6401.3	
770.07	6458.6	
770.25	4369.7	
770.43	5404.6	
770.6	6888.7	
770.78	7189.7	
770.96	4618.9	
771.14	4997	
771.31	6208.1	
771.49	5642.8	
771.67	3848.8	
771.85	3979.9	
772.02	5079.6	
772.2	5624.4	
772.38	4594.3	
772.55	4201.7	
772.73	5904.3	
772.91	5657.2	
773.09	4457.7	
773.26	4478.9	
773.44	5807.4	
773.62	5512.4	
773.8	3990.8	
773.97	3812	
774.15	5801.2	
774.33	5479	
774.5	3962.8	
774.68	4165.6	
774.86	5926.8	
775.04	5495.4	
775.21	3938.9	
775.39	3948.5	
775.57	5663.3	
775.74	5859.2	
775.92	3743.7	
776.1	3669.3	
776.27	5588.9	
776.45	6541.2	
776.63	3917.8	
776.81	3551.2	
776.98	5367.7	
777.16	6065.4	
777.34	3994.2	
777.51	4158.1	
777.69	5371.8	
777.87	5096	
778.04	4002.4	
778.22	4407.9	
778.4	5139.7	
778.57	5646.9	
778.75	3428.3	
778.93	3638.6	
779.1	4939.7	
779.28	4781.3	
779.46	3336.8	
779.64	3752.6	
779.81	5726.8	
779.99	6341.2	
780.17	4365.6	
780.34	4430.4	
780.52	5270.8	
780.69	5363.6	
780.87	4001.7	
781.05	3668.6	
781.22	5279.7	
781.4	5314.5	
781.58	3757.3	
781.75	3111.5	
781.93	5293.3	
782.11	4769	
782.28	4422.9	
782.46	3696.6	
782.64	4664.6	
782.81	5457.2	
782.99	3787.4	
783.17	3742.3	
783.34	5270.8	
783.52	4729.4	
783.69	3847.5	
783.87	4478.9	
784.05	4854.4	
784.22	4747.2	
784.4	4444.1	
784.58	3917.1	
784.75	5551.4	
784.93	4807.9	
785.1	3633.8	
785.28	4114.4	
785.46	5341.1	
785.63	4717.8	
785.81	3627	
785.99	3455.6	
786.16	4913.1	
786.34	5169.1	
786.51	3515	
786.69	3825.6	
786.87	4564.9	
787.04	4907.6	
787.22	3409.2	
787.39	4116.4	
787.57	4768.4	
787.75	5616.9	
787.92	4298.7	
788.1	4189.5	
788.27	4723.3	
788.45	4506.2	
788.63	3997	
788.8	2946.3	
788.98	5117.2	
789.15	4397.7	
789.33	3147	
789.5	3609.2	
789.68	5456.5	
789.86	5492.7	
790.03	3895.9	
790.21	3461.1	
790.38	5458.5	
790.56	4786.1	
790.73	3383.9	
790.91	3362.1	
791.09	4715.1	
791.26	5240.1	
791.44	3594.2	
791.61	3163.4	
791.79	4679.6	
791.96	4725.3	
792.14	3164.1	
792.32	2895.1	
792.49	4694.6	
792.67	4742.4	
792.84	3320.4	
793.02	3102	
793.19	5118.6	
793.37	5584.8	
793.54	2813.2	
793.72	3139.5	
793.89	5558.2	
794.07	4624.3	
794.25	3661.1	
794.42	2920.4	
794.6	5505.6	
794.77	5179.3	
794.95	3805.8	
795.12	3385.3	
795.3	4661.2	
795.47	5101.5	
795.65	3674.1	
795.82	3551.2	
796	4472.1	
796.17	5986.9	
796.35	3454.2	
796.52	4018.1	
796.7	5061.2	
796.87	5161.6	
797.05	3445.4	
797.22	4089.1	
797.4	5156.1	
797.57	5944.6	
797.75	3535.5	
797.92	3398.3	
798.1	5359.5	
798.27	4549.9	
798.45	2968.2	
798.62	3123.2	
798.8	4857.1	
798.97	5235.3	
799.15	3743	
799.32	3573	
799.5	4292.5	
799.67	4903.5	
799.85	3822.9	
800.02	2856.9	
800.2	4580.6	
800.37	4779.3	
800.55	3925.3	
800.72	3343.7	
800.9	5206.6	
801.07	5515.2	
801.25	4420.2	
801.42	3635.8	
801.6	5264.6	
801.77	4912.4	
801.95	3381.9	
802.12	3250.1	
802.29	5036.6	
802.47	4961.5	
802.64	3670	
802.82	2849.4	
802.99	4617.5	
803.17	5358.2	
803.34	3519.8	
803.52	3205.8	
803.69	5839.4	
803.87	4326	
804.04	3481.5	
804.21	3588.7	
804.39	5434.6	
804.56	4641.4	
804.74	3042.6	
804.91	3629.7	
805.09	4592.2	
805.26	4661.9	
805.44	3149.8	
805.61	3318.4	
805.78	5139	
805.96	5110.4	
806.13	3598.3	
806.31	3813.3	
806.48	4220.2	
806.66	4581.3	
806.83	3619.4	
807	3545	
807.18	4592.2	
807.35	4885.8	
807.53	3506.1	
807.7	2884.2	
807.87	5459.9	
808.05	4601.8	
808.22	3816	
808.4	2874	
808.57	4599.1	
808.74	4263.9	
808.92	3237.8	
809.09	4037.9	
809.27	4537.6	
809.44	4949.3	
809.61	2906.1	
809.79	3249.4	
809.96	5520.6	
810.14	5119.9	
810.31	2839.2	
810.48	3358	
810.66	4610	
810.83	5224.4	
811.01	3235.1	
811.18	3571	
811.35	5142.4	
811.53	4098.7	
811.7	3910.3	
811.87	3619.4	
812.05	4599.7	
812.22	4534.2	
812.39	3074.7	
812.57	3050.1	
812.74	4563.6	
812.92	5847	
813.09	3411.9	
813.26	3616.7	
813.44	5688.6	
813.61	4502.8	
813.78	2887.6	
813.96	3731.4	
814.13	4642.7	
814.3	4374.5	
814.48	3934.1	
814.65	3405.1	
814.82	5440.1	
815	4352.6	
815.17	3450.1	
815.34	4111.6	
815.52	4509.6	
815.69	4491.9	
815.87	3408.5	
816.04	3310.2	
816.21	4564.9	
816.38	4142.4	
816.56	3324.5	
816.73	3107.5	
816.9	5700.2	
817.08	5076.9	
817.25	3153.9	
817.42	3824.2	
817.6	4218.8	
817.77	4543.1	
817.94	3500	
818.12	3082.9	
818.29	4390.8	
818.46	6301.6	
818.64	3332.7	
818.81	3039.2	
818.98	4317.8	
819.16	5952.8	
819.33	3654.9	
819.5	3421.5	
819.67	4832.5	
819.85	5311.1	
820.02	3375.1	
820.19	3543	
820.37	4746.5	
820.54	4476.2	
820.71	3433.1	
820.88	4250.9	
821.06	4747.2	
821.23	4392.2	
821.4	3487.7	
821.58	3469.3	
821.75	5108.3	
821.92	4693.3	
822.09	2843.9	
822.27	3087.7	
822.44	4568.3	
822.61	4495.3	
822.79	2927.2	
822.96	5247.6	
823.13	4823.6	
823.3	4296	
823.48	3271.3	
823.65	2972.3	
823.82	5128.1	
823.99	4177.9	
824.17	4149.2	
824.34	3025.5	
824.51	5808.7	
824.68	4646.2	
824.86	3175	
825.03	3500.7	
825.2	4650.3	
825.37	5369.8	
825.55	3115	
825.72	3371	
825.89	5798.5	
826.06	5425.1	
826.24	3343	
826.41	3368.2	
826.58	5427.8	
826.75	4729.4	
826.92	2777	
827.1	2990	
827.27	7148.8	
827.44	5805.3	
827.61	3220.1	
827.79	3812	
827.96	4382	
828.13	4613.4	
828.3	3334.8	
828.47	2835.1	
828.65	4819.6	
828.82	4721.3	
828.99	4169	
829.16	3618.8	
829.34	5155.4	
829.51	4907.6	
829.68	3448.1	
829.85	3510.2	
830.02	5379.3	
830.2	5113.8	
830.37	2705.4	
830.54	4078.9	
830.71	5698.8	
830.88	4561.5	
831.05	2738.8	
831.23	3086.3	
831.4	5541.1	
831.57	6050.4	
831.74	3211.9	
831.91	2872.6	
832.09	4870.1	
832.26	5060.5	
832.43	3258.3	
832.6	3573.7	
832.77	4863.2	
832.94	5431.9	
833.12	2646	
833.29	3236.5	
833.46	4702.1	
833.63	6233.3	
833.8	3504.8	
833.97	3269.2	
834.15	5156.1	
834.32	4948.6	
834.49	3376.4	
834.66	3490.4	
834.83	5148.6	
835	4349.9	
835.17	3210.5	
835.35	3135.4	
835.52	5031.9	
835.69	4891.2	
835.86	3360	
836.03	2769.5	
836.2	5023.7	
836.37	4764.3	
836.55	3250.8	
836.72	3123.8	
836.89	4745.1	
837.06	5151.3	
837.23	3333.4	
837.4	3577.8	
837.57	5756.8	
837.75	6141.2	
837.92	3003	
838.09	3140.2	
838.26	4709.6	
838.43	5246.9	
838.6	3461.1	
838.77	3099.9	
838.94	5871.5	
839.11	5752.7	
839.29	3256.3	
839.46	2606.4	
839.63	5081	
839.8	4834.6	
839.97	3188.7	
840.14	3140.9	
840.31	4995.7	
840.48	5088.5	
840.65	2678.1	
840.82	3151.1	
841	5082.4	
841.17	4960.9	
841.34	3008.5	
841.51	3048.1	
841.68	5039.4	
841.85	4797.7	
842.02	3085.6	
842.19	2570.2	
842.36	4870.8	
842.53	4885.1	
842.7	2943.6	
842.87	3510.9	
843.05	6176	
843.22	4817.5	
843.39	2802.3	
843.56	3005.1	
843.73	4662.5	
843.9	5129.5	
844.07	4567.7	
844.24	3783.3	
844.41	6937.2	
844.58	4464.6	
844.75	2914.9	
844.92	3119.1	
845.09	5069.4	
845.26	5034.6	
845.43	2866.5	
845.6	3106.8	
845.77	5093.3	
845.94	4834.6	
846.12	3223.5	
846.29	3493.2	
846.46	5238	
846.63	5016.2	
846.8	2919.7	
846.97	3417.4	
847.14	5444.2	
847.31	4995	
847.48	3280.2	
847.65	3550.5	
847.82	5234.6	
847.99	5226.4	
848.16	3855	
848.33	3552.5	
848.5	4693.3	
848.67	5343.2	
848.84	2898.6	
849.01	3041.2	
849.18	4605.2	
849.35	4360.8	
849.52	3645.4	
849.69	2870.6	
849.86	5228.5	
850.03	5372.5	
850.2	2935.4	
850.37	3515	
850.54	5287.2	
850.71	4786.8	
850.88	3472.7	
851.05	2857.6	
851.22	4939.7	
851.39	5454.4	
851.56	2749.7	
851.73	3315	
851.9	4504.2	
852.07	5208.7	
852.24	3243.3	
852.41	2904.7	
852.58	4941.7	
852.75	4542.4	
852.92	3239.2	
853.09	2891.7	
853.26	4683.7	
853.43	5319.9	
853.6	2901.3	
853.77	2554.5	
853.94	5493.3	
854.11	4426.3	
854.28	4190.8	
854.44	3175.7	
854.61	5754.1	
854.78	5256.5	
854.95	2910.8	
855.12	3619.4	
855.29	4171.7	
855.46	5379.3	
855.63	2889	
855.8	3938.2	
855.97	4685.8	
856.14	5302.2	
856.31	4026.3	
856.48	3179.8	
856.65	4702.1	
856.82	4481.6	
856.99	2784.6	
857.16	3075.4	
857.33	5898.1	
857.49	4795	
857.66	3072	
857.83	3300	
858	4799.1	
858.17	4933.6	
858.34	2767.5	
858.51	2911.5	
858.68	5494	
858.85	5528.2	
859.02	3383.9	
859.19	3513.6	
859.36	4522.6	
859.52	4547.9	
859.69	2919.7	
859.86	3391.4	
860.03	4514.4	
860.2	5477.6	
860.37	2694.4	
860.54	2953.9	
860.71	5213.4	
860.88	5502.9	
861.05	3247.4	
861.21	3605.1	
861.38	5511.8	
861.55	4345.8	
861.72	2706	
861.89	3230.3	
862.06	5213.4	
862.23	5568.4	
862.4	2856.2	
862.56	3033.7	
862.73	5040.7	
862.9	4849.6	
863.07	3371.6	
863.24	2696.5	
863.41	4420.2	
863.58	4521.9	
863.75	3006.4	
863.91	3306.8	
864.08	5408	
864.25	5181.4	
864.42	3587.4	
864.59	3939.6	
864.76	5742.5	
864.93	4520.5	
865.09	2868.5	
865.26	3084.9	
865.43	5320.6	
865.6	5692	
865.77	2553.1	
865.94	2874	
866.1	5372.5	
866.27	5154.7	
866.44	4328.7	
866.61	2818	
866.78	4784.1	
866.95	5062.6	
867.11	2906.8	
867.28	2620	
867.45	5293.3	
867.62	4523.3	
867.79	3305.4	
867.96	2919.7	
868.12	4405.2	
868.29	5186.8	
868.46	2905.4	
868.63	3805.1	
868.8	5289.2	
868.97	5154.7	
869.13	3033	
869.3	3014.6	
869.47	5042.8	
869.64	5242.8	
869.81	2940.2	
869.97	2972.3	
870.14	4995.7	
870.31	5497.4	
870.48	2897.2	
870.65	3573.7	
870.81	4732.9	
870.98	4754.7	
871.15	3216.7	
871.32	3044.6	
871.48	5061.9	
871.65	5539.8	
871.82	2906.8	
871.99	3156.6	
872.16	5826.5	
872.32	5336.3	
872.49	2979.1	
872.66	2955.2	
872.83	5190.2	
872.99	4617.5	
873.16	3260.4	
873.33	2865.1	
873.5	4843.4	
873.67	4917.2	
873.83	3056.9	
874	3809.2	
874.17	4999.8	
874.34	5755.5	
874.5	3736.9	
874.67	3515	
874.84	5373.9	
875.01	4356.7	
875.17	3989.4	
875.34	2921.1	
875.51	4945.8	
875.68	5907	
875.84	3485.6	
876.01	4126	
876.18	5180	
876.34	5181.4	
876.51	2925.2	
876.68	2835.8	
876.85	4708.3	
877.01	5424.4	
877.18	4063.2	
877.35	2889	
877.52	4952.7	
877.68	4409.3	
877.85	2846.7	
878.02	2828.9	
878.18	4764.9	
878.35	4663.9	
878.52	2340.8	
878.69	3261.7	
878.85	5242.1	
879.02	5148.6	
879.19	4036.5	
879.35	3129.3	
879.52	5176.6	
879.69	5239.4	
879.86	2525.1	
880.02	3252.2	
880.19	4851.6	
880.36	5732.9	
880.52	3295.2	
880.69	3368.2	
880.86	5185.5	
881.02	5230.5	
881.19	3138.2	
881.36	3181.2	
881.52	5150.6	
881.69	4628.4	
881.86	3086.3	
882.02	3056.3	
882.19	5332.9	
882.36	6154.1	
882.52	2951.1	
882.69	3982.6	
882.86	4961.5	
883.02	4913.1	
883.19	3487.7	
883.36	3254.2	
883.52	5250.3	
883.69	5834	
883.86	2930	
884.02	2654.2	
884.19	5146.5	
884.36	4870.8	
884.52	3286.3	
884.69	3069.9	
884.86	4645.5	
885.02	5680.4	
885.19	3187.3	
885.36	3310.9	
885.52	4805.2	
885.69	5008.6	
885.86	4126.7	
886.02	3641.3	
886.19	5220.3	
886.35	4744.5	
886.52	3173.7	
886.69	3936.9	
886.85	4478.9	
887.02	5449.6	
887.19	5449.6	
887.35	5449.6	
887.52	5449.6	
887.68	5449.6	
887.85	5449.6	
888.02	5449.6	
888.18	5449.6	
888.35	5449.6	
888.51	5449.6	
888.68	5449.6	
888.85	5449.6	
889.01	5449.6	
889.18	5449.6	
889.35	5449.6	
889.51	5449.6	
889.68	5449.6	
889.84	5449.6	
890.01	5449.6	
890.17	5449.6	
890.34	5449.6	
890.51	5449.6	
890.67	5449.6	
890.84	5449.6	
891	5449.6	
891.17	5449.6	
891.34	5449.6	
891.5	5449.6	
891.67	5449.6	
891.83	5449.6	
892	5449.6	
892.16	5449.6	
892.33	5449.6	
892.5	5449.6	
892.66	5449.6	
892.83	5449.6	
892.99	5449.6	
893.16	5449.6	
893.32	5449.6	
893.49	5449.6	
893.65	5449.6	
893.82	5449.6	
893.99	5449.6	
894.15	5449.6	
894.32	5449.6	
894.48	5449.6	
894.65	5449.6	
894.81	5449.6	
894.98	5449.6	
895.14	5449.6	
895.31	5449.6	
895.47	5449.6	
895.64	5449.6	
895.81	5449.6	
895.97	5449.6	
896.14	5449.6	
896.3	5449.6	
896.47	5449.6	
896.63	5449.6	
896.8	5449.6	
896.96	5449.6	
897.13	5449.6	
897.29	5449.6	
897.46	5449.6	
897.62	5449.6	
897.79	5449.6	
897.95	5449.6	
898.12	5449.6	
898.28	5449.6	
898.45	5449.6	
898.61	5449.6	
898.78	5449.6	
898.94	5449.6	
899.11	5449.6	
899.27	5449.6	
899.44	5449.6	
899.6	5449.6	
899.77	5449.6	
899.93	5449.6	
900.1	5449.6	
900.26	5449.6	
900.43	5449.6	
900.59	5449.6	
900.76	5449.6	
900.92	5449.6	
901.09	5449.6	
901.25	5449.6	
901.42	5449.6	
901.58	5449.6	
901.75	5449.6	
901.91	5449.6	
902.07	5449.6	
902.24	5449.6	
902.4	5449.6	
902.57	5449.6	
902.73	5449.6	
902.9	5449.6	
903.06	5449.6	
903.23	5449.6	
903.39	5449.6	
903.56	5449.6	
903.72	5449.6	
903.88	5449.6	
904.05	5449.6	
904.21	5449.6	
904.38	5449.6	
904.54	5449.6	
904.71	5449.6	
904.87	5449.6	
905.03	5449.6	
905.2	5449.6	
905.36	5449.6	
905.53	5449.6	
905.69	5449.6	
905.86	5449.6	
906.02	5449.6	
906.18	5449.6	
906.35	5449.6	
906.51	5449.6	
906.68	5449.6	
906.84	5449.6	
907.01	5449.6	
907.17	5449.6	
907.33	5449.6	
907.5	5449.6	
907.66	5449.6	
907.83	5449.6	
907.99	5449.6	
908.15	5449.6	
908.32	5449.6	
908.48	5449.6	
908.65	5449.6	
908.81	5449.6	
908.97	5449.6	
909.14	5449.6	
909.3	5449.6	
909.47	5449.6	
909.63	5449.6	
909.79	5449.6	
909.96	5449.6	
910.12	5449.6	
910.28	5449.6	
910.45	5449.6	
910.61	5449.6	
910.78	5449.6	
910.94	5449.6	
911.1	5449.6	
911.27	5449.6	
911.43	5449.6	
911.59	5449.6	
911.76	5449.6	
911.92	5449.6	
912.08	5449.6	
912.25	5449.6	
912.41	5449.6	
912.57	5449.6	
912.74	5449.6	
912.9	5449.6	
913.07	5449.6	
913.23	5449.6	
913.39	5449.6	
913.56	5449.6	
913.72	5449.6	
913.88	5449.6	
914.05	5449.6	
914.21	5449.6	
914.37	5449.6	
914.54	5449.6	
914.7	5449.6	
914.86	5449.6	
915.03	5449.6	
915.19	5449.6	
