Wavelength	Intensities	
nm	a.u.	
179.22	1706.5	
179.44	1707.7	
179.65	1705.3	
179.86	1710.1	
180.08	1744.9	
180.29	4009.2	
180.51	3067.2	
180.72	5049.6	
180.94	5786.9	
181.15	2800.3	
181.37	2828.2	
181.58	4870.8	
181.79	5143.8	
182.01	2912.2	
182.22	3065.8	
182.44	5172.5	
182.65	4409.3	
182.87	3736.2	
183.08	3362.1	
183.29	5307	
183.51	4440.7	
183.72	3033	
183.94	4313	
184.15	4830.5	
184.37	4770.4	
184.58	2708.1	
184.79	3594.2	
185.01	4515.1	
185.22	5124	
185.44	3736.9	
185.65	3249.4	
185.86	4784.7	
186.08	4384	
186.29	2671.2	
186.51	2829.6	
186.72	4517.1	
186.94	5231.2	
187.15	3257.6	
187.36	3371	
187.58	6557.6	
187.79	4885.1	
188.01	3430.3	
188.22	5174.5	
188.43	5761.6	
188.65	5028.4	
188.86	2891	
189.08	3375.7	
189.29	4637.3	
189.5	4603.8	
189.72	3056.9	
189.93	3159.3	
190.15	5247.6	
190.36	6064	
190.57	3401	
190.79	3317.7	
191	5195	
191.22	5197.1	
191.43	3399.6	
191.64	2871.3	
191.86	5412.8	
192.07	5208.7	
192.29	2990	
192.5	3077.4	
192.71	5261.9	
192.93	4655.7	
193.14	3087.7	
193.35	3136.1	
193.57	4590.9	
193.78	5248.3	
194	2544.9	
194.21	3065.8	
194.42	4483.7	
194.64	4818.2	
194.85	3306.8	
195.07	3871.3	
195.28	4804.5	
195.49	4295.3	
195.71	4048.2	
195.92	2916.3	
196.13	4984.8	
196.35	4947.9	
196.56	4299.4	
196.78	3390.8	
196.99	6027.9	
197.2	5689.9	
197.42	3741.6	
197.63	3394.2	
197.84	4369.7	
198.06	5028.4	
198.27	3104	
198.48	4020.8	
198.7	4642.7	
198.91	4842.1	
199.13	3349.8	
199.34	3431	
199.55	5147.9	
199.77	4188.8	
199.98	2987.3	
200.19	3334.8	
200.41	4711.7	
200.62	4519.2	
200.83	3450.1	
201.05	3784.6	
201.26	4783.4	
201.47	4527.4	
201.69	3015.3	
201.9	2968.9	
202.11	4807.9	
202.33	5522	
202.54	3162.7	
202.76	3518.4	
202.97	4855.7	
203.18	4934.2	
203.4	3424.2	
203.61	3525.2	
203.82	4878.3	
204.04	4536.9	
204.25	3422.2	
204.46	3392.8	
204.68	4809.3	
204.89	4978.6	
205.1	3288.4	
205.32	2919	
205.53	5074.9	
205.74	5257.8	
205.96	2547.7	
206.17	3450.1	
206.38	5089.2	
206.6	5197.7	
206.81	3817.4	
207.02	3143.6	
207.24	5000.5	
207.45	5287.9	
207.66	3231.7	
207.88	2826.9	
208.09	4967.7	
208.3	4792.2	
208.52	2997.5	
208.73	3329.3	
208.94	4763.6	
209.15	5366.4	
209.37	3205.8	
209.58	3629.7	
209.79	5208.7	
210.01	4663.9	
210.22	2686.9	
210.43	2719.7	
210.65	4749.2	
210.86	5111.7	
211.07	3222.1	
211.29	2973.7	
211.5	5075.5	
211.71	4721.3	
211.93	2995.5	
212.14	2997.5	
212.35	4779.3	
212.56	4874.8	
212.78	3366.9	
212.99	2839.8	
213.2	5520	
213.42	4622.3	
213.63	3089	
213.84	3267.9	
214.06	4341	
214.27	4420.9	
214.48	3236.5	
214.69	3379.8	
214.91	5358.9	
215.12	5330.9	
215.33	3425.6	
215.55	3733.4	
215.76	5723.4	
215.97	5066.7	
216.18	3306.8	
216.4	3276.1	
216.61	4549.2	
216.82	5151.3	
217.04	2990.7	
217.25	3104	
217.46	5287.9	
217.67	5047.6	
217.89	2723.8	
218.1	2835.8	
218.31	4869.4	
218.53	4918.5	
218.74	3149.8	
218.95	3026.2	
219.16	4756.7	
219.38	5487.2	
219.59	2988.7	
219.8	3544.4	
220.01	5919.3	
220.23	4827.1	
220.44	3919.1	
220.65	3018	
220.87	4829.8	
221.08	5269.4	
221.29	2836.4	
221.5	3637.9	
221.72	6311.8	
221.93	4546.5	
222.14	3377.1	
222.35	3953.3	
222.57	4760.2	
222.78	5119.2	
222.99	3301.3	
223.2	3421.5	
223.42	4979.3	
223.63	5143.1	
223.84	2551.8	
224.05	2572.2	
224.27	5833.3	
224.48	5421.7	
224.69	3904.8	
224.9	3359.4	
225.12	4951.3	
225.33	4749.2	
225.54	2736.1	
225.75	3069.9	
225.97	4474.8	
226.18	4739	
226.39	3229	
226.6	3050.1	
226.82	4616.1	
227.03	4444.8	
227.24	3346.4	
227.45	2833	
227.67	5109.7	
227.88	5528.2	
228.09	3715.7	
228.3	3697.3	
228.52	5064.6	
228.73	4757.4	
228.94	3151.8	
229.15	2846	
229.36	4807.9	
229.58	4771.1	
229.79	3193.5	
230	3558.7	
230.21	5663.3	
230.43	4855.7	
230.64	3367.5	
230.85	3426.3	
231.06	5147.9	
231.28	5141.1	
231.49	2825.5	
231.7	3317	
231.91	5042.1	
232.12	4865.3	
232.34	2927.2	
232.55	3220.1	
232.76	5257.1	
232.97	4885.8	
233.18	2987.3	
233.4	3299.3	
233.61	4969.7	
233.82	4616.8	
234.03	3097.9	
234.25	3099.9	
234.46	6392.4	
234.67	4868.7	
234.88	3419.4	
235.09	2996.9	
235.31	4986.1	
235.52	4721.3	
235.73	3380.5	
235.94	2910.8	
236.15	4622.3	
236.37	5655.1	
236.58	3059.7	
236.79	3256.3	
237	5050.3	
237.21	4410.6	
237.43	3453.6	
237.64	2754.5	
237.85	7879.9	
238.06	4504.2	
238.27	3457	
238.48	2895.8	
238.7	5094.7	
238.91	4690.5	
239.12	3175.7	
239.33	3287.7	
239.54	4653.7	
239.76	4733.5	
239.97	3228.3	
240.18	3274.7	
240.39	5793.7	
240.6	5008	
240.82	3409.2	
241.03	2813.9	
241.24	4788.2	
241.45	5515.9	
241.66	2980.5	
241.87	3493.8	
242.09	5365	
242.3	5611.4	
242.51	3528	
242.72	3257	
242.93	5099.4	
243.14	4734.2	
243.36	3715.7	
243.57	3963.5	
243.78	5435.3	
243.99	4960.9	
244.2	3236.5	
244.41	2914.3	
244.63	4447.5	
244.84	4994.3	
245.05	3457.7	
245.26	3216.7	
245.47	5100.1	
245.68	5139	
245.9	4188.1	
246.11	3371.6	
246.32	4625.7	
246.53	5020.9	
246.74	5066.7	
246.95	2785.9	
247.16	4463.9	
247.38	4821.6	
247.59	2785.2	
247.8	3272	
248.01	4493.9	
248.22	4757.4	
248.43	3018	
248.64	3168.2	
248.86	4325.3	
249.07	4612	
249.28	2923.1	
249.49	3325.2	
249.7	5239.4	
249.91	5298.8	
250.12	2747.7	
250.34	2852.8	
250.55	4895.3	
250.76	4834.6	
250.97	3329.3	
251.18	3434.4	
251.39	5270.8	
251.6	4926	
251.81	3411.2	
252.03	3377.8	
252.24	4635.9	
252.45	5165.7	
252.66	2866.5	
252.87	3562.1	
253.08	4848.9	
253.29	6053.8	
253.5	2882.9	
253.72	3871.3	
253.93	4713.1	
254.14	5564.3	
254.35	3093.1	
254.56	3172.3	
254.77	4975.9	
254.98	4472.8	
255.19	3110.2	
255.41	3829.7	
255.62	4929.5	
255.83	5269.4	
256.04	3451.5	
256.25	3377.1	
256.46	5699.5	
256.67	4588.1	
256.88	3328.6	
257.09	3665.9	
257.31	4481	
257.52	4545.8	
257.73	4163.5	
257.94	3110.2	
258.15	4732.9	
258.36	4778.6	
258.57	3805.1	
258.78	2516.3	
258.99	5233.2	
259.2	4633.2	
259.41	3152.5	
259.63	3175	
259.84	5433.3	
260.05	5740.5	
260.26	3954.6	
260.47	3048.7	
260.68	5207.3	
260.89	4722.6	
261.1	3665.2	
261.31	2994.1	
261.52	5359.5	
261.73	5559.6	
261.95	3979.9	
262.16	3423.5	
262.37	5323.4	
262.58	5500.2	
262.79	3902.1	
263	3108.1	
263.21	4889.2	
263.42	4685.1	
263.63	3390.1	
263.84	3156.6	
264.05	5189.6	
264.26	5500.2	
264.47	3816	
264.69	3357.3	
264.9	5409.4	
265.11	4988.9	
265.32	3045.3	
265.53	3149.8	
265.74	4890.5	
265.95	4333.5	
266.16	3290.4	
266.37	3571	
266.58	4893.3	
266.79	4620.2	
267	3079.5	
267.21	2891	
267.42	4502.8	
267.63	4776.5	
267.84	3209.2	
268.06	2826.9	
268.27	5100.1	
268.48	5294	
268.69	3154.6	
268.9	3642.7	
269.11	5388.2	
269.32	4351.3	
269.53	3183.9	
269.74	3022.1	
269.95	5080.3	
270.16	4315.8	
270.37	3261.7	
270.58	3685.7	
270.79	4716.5	
271	5164.3	
271.21	3407.8	
271.42	3302	
271.63	4945.8	
271.84	4472.8	
272.05	2656.9	
272.26	2952.5	
272.47	4801.1	
272.68	4928.1	
272.89	3164.1	
273.11	3521.8	
273.32	4655.7	
273.53	5440.8	
273.74	3498.6	
273.95	3368.2	
274.16	5238	
274.37	4817.5	
274.58	3517	
274.79	2940.9	
275	4949.9	
275.21	5221.6	
275.42	4218.8	
275.63	3610.6	
275.84	5036	
276.05	6069.5	
276.26	3379.1	
276.47	3211.9	
276.68	4739	
276.89	5578.7	
277.1	3624.2	
277.31	2862.4	
277.52	4982.7	
277.73	5187.5	
277.94	2814.6	
278.15	3151.1	
278.36	4962.2	
278.57	4562.2	
278.78	3120.4	
278.99	3452.2	
279.2	4600.4	
279.41	4504.8	
279.62	4020.2	
279.83	2960.7	
280.04	5735	
280.25	4419.5	
280.46	3977.8	
280.67	3250.1	
280.88	4540.3	
281.09	5339.7	
281.3	3426.9	
281.51	4278.2	
281.72	4623.6	
281.93	5180.7	
282.14	3082.2	
282.35	3326.6	
282.56	5187.5	
282.77	5115.1	
282.98	3207.1	
283.19	3818.1	
283.4	6168.5	
283.61	4764.9	
283.82	2970.2	
284.03	3960.8	
284.24	4910.3	
284.45	5283.8	
284.66	3947.1	
284.87	3796.3	
285.08	5253.7	
285.29	5358.9	
285.5	2808.4	
285.71	3224.2	
285.92	5270.1	
286.12	5787.6	
286.33	3923.2	
286.54	3175.7	
286.75	5226.4	
286.96	4684.4	
287.17	2958.6	
287.38	3747.8	
287.59	4582.7	
287.8	4565.6	
288.01	3182.5	
288.22	3620.8	
288.43	5107.6	
288.64	4405.2	
288.85	3717.7	
289.06	3592.1	
289.27	5171.1	
289.48	5486.5	
289.69	4029	
289.9	3629	
290.11	5343.8	
290.32	4607.2	
290.53	3749.8	
290.74	3515.7	
290.94	5160.2	
291.15	5169.8	
291.36	3093.8	
291.57	3554.6	
291.78	4671.4	
291.99	4349.2	
292.2	2985.3	
292.41	3448.8	
292.62	5244.2	
292.83	5117.2	
293.04	4237.9	
293.25	3011.2	
293.46	4666.6	
293.67	5261.2	
293.88	3034.4	
294.09	2963.4	
294.29	4514.4	
294.5	4898.7	
294.71	3304.1	
294.92	3136.8	
295.13	4631.8	
295.34	5683.1	
295.55	2771.6	
295.76	2767.5	
295.97	5153.4	
296.18	5745.2	
296.39	2891	
296.6	3091.1	
296.81	4895.3	
297.01	5124.7	
297.22	3194.1	
297.43	3078.8	
297.64	4580.6	
297.85	4485.7	
298.06	2602.3	
298.27	2811.2	
298.48	4831.8	
298.69	4546.5	
298.9	3285.6	
299.11	3013.2	
299.31	4476.2	
299.52	4487.1	
299.73	3478.8	
299.94	3436.5	
300.15	4825	
300.36	4533.5	
300.57	3489.1	
300.78	3380.5	
300.99	4639.3	
301.2	4855.1	
301.4	3069.2	
301.61	3309.5	
301.82	5042.1	
302.03	5123.3	
302.24	3676.1	
302.45	2942.2	
302.66	5036.6	
302.87	5311.1	
303.08	3087.7	
303.29	4039.3	
303.49	4635.9	
303.7	4805.9	
303.91	2726.5	
304.12	3865.2	
304.33	4415.4	
304.54	4939	
304.75	3102.7	
304.96	2977.1	
305.16	5068.7	
305.37	5627.8	
305.58	2740.9	
305.79	2822.8	
306	5029.8	
306.21	4379.2	
306.42	3094.5	
306.63	4527.4	
306.83	4653	
307.04	5124	
307.25	3367.5	
307.46	3367.5	
307.67	4246.1	
307.88	5077.6	
308.09	3057.6	
308.29	3114.3	
308.5	4861.9	
308.71	5199.1	
308.92	3267.2	
309.13	2965.5	
309.34	4807.9	
309.55	4717.8	
309.75	3758	
309.96	3477.5	
310.17	5108.3	
310.38	4596.3	
310.59	3581.2	
310.8	2910.2	
311.01	4688.5	
311.21	4734.9	
311.42	3017.3	
311.63	2995.5	
311.84	4601.8	
312.05	4870.8	
312.26	3436.5	
312.46	3684.3	
312.67	4696.7	
312.88	4443.4	
313.09	2983.2	
313.3	2914.3	
313.51	5397.8	
313.71	5723.4	
313.92	2982.5	
314.13	3095.8	
314.34	4939.7	
314.55	4752	
314.76	3733.4	
314.96	3300.6	
315.17	4920.6	
315.38	5074.2	
315.59	2967.5	
315.8	2838.5	
316.01	5404.6	
316.21	5560.2	
316.42	2970.2	
316.63	3248.1	
316.84	4698	
317.05	5333.6	
317.26	3478.8	
317.46	3145	
317.67	4842.8	
317.88	5131.5	
318.09	3691.8	
318.3	2811.9	
318.5	4626.4	
318.71	5031.9	
318.92	4599.1	
319.13	3430.3	
319.34	5166.3	
319.54	5252.4	
319.75	2802.3	
319.96	2681.5	
320.17	5088.5	
320.38	5234.6	
320.58	2760.7	
320.79	3280.2	
321	5269.4	
321.21	5392.3	
321.42	3298.6	
321.62	2757.9	
321.83	4571.1	
322.04	4857.8	
322.25	3159.3	
322.46	2996.9	
322.66	4912.4	
322.87	5014.1	
323.08	3623.5	
323.29	2925.9	
323.5	5618.9	
323.7	4489.8	
323.91	3854.3	
324.12	3583.3	
324.33	4887.1	
324.53	5091.3	
324.74	3459.7	
324.95	3565.5	
325.16	4401.1	
325.37	4690.5	
325.57	3022.1	
325.78	3042.6	
325.99	4904.9	
326.2	4424.3	
326.4	4231.8	
326.61	2783.9	
326.82	4732.9	
327.03	4905.6	
327.24	4168.3	
327.44	3937.6	
327.65	5081.7	
327.86	4194.2	
328.07	3433.1	
328.27	2910.8	
328.48	5368.4	
328.69	4503.5	
328.9	4151.9	
329.1	3151.1	
329.31	4774.5	
329.52	5399.8	
329.73	2995.5	
329.93	3284.3	
330.14	4862.6	
330.35	4938.3	
330.56	4685.1	
330.76	3571.7	
330.97	4648.2	
331.18	4881.7	
331.39	3279.5	
331.59	2733.4	
331.8	5249.6	
332.01	5360.9	
332.22	3067.9	
332.42	3414.6	
332.63	4856.4	
332.84	4586.8	
333.05	3300	
333.25	3040.6	
333.46	4580.6	
333.67	4816.8	
333.88	3092.4	
334.08	3407.8	
334.29	6189	
334.5	5283.1	
334.7	2902	
334.91	4098.7	
335.12	4433.2	
335.33	5088.5	
335.53	3298.6	
335.74	4691.9	
335.95	4701.5	
336.16	4486.4	
336.36	3322.5	
336.57	3723.9	
336.78	4411.3	
336.98	5253	
337.19	3947.1	
337.4	3235.8	
337.61	5697.4	
337.81	4459.8	
338.02	3017.3	
338.23	3830.4	
338.43	5401.2	
338.64	4543.1	
338.85	2967.5	
339.05	3835.8	
339.26	5429.8	
339.47	4340.3	
339.68	2996.9	
339.88	4300.1	
340.09	5025	
340.3	5151.3	
340.5	3433.1	
340.71	2747	
340.92	4422.2	
341.13	5343.2	
341.33	2912.2	
341.54	3485.6	
341.75	4980.7	
341.95	4724.7	
342.16	3340.2	
342.37	3556.6	
342.57	4473.4	
342.78	4684.4	
342.99	3606.5	
343.19	2710.8	
343.4	5107.6	
343.61	4973.2	
343.81	3181.9	
344.02	2878.1	
344.23	5134.3	
344.43	5440.1	
344.64	3688.4	
344.85	3609.9	
345.06	5034.6	
345.26	5252.4	
345.47	3446	
345.68	3923.2	
345.88	4374.5	
346.09	5243.5	
346.3	3473.4	
346.5	2647.3	
346.71	4771.8	
346.92	4568.3	
347.12	2857.6	
347.33	3400.3	
347.54	5218.9	
347.74	5481.7	
347.95	3388	
348.16	2620	
348.36	4685.8	
348.57	4574.5	
348.78	3423.5	
348.98	3663.1	
349.19	4746.5	
349.39	4352.6	
349.6	2802.3	
349.81	3027.6	
350.01	5063.3	
350.22	4543.1	
350.43	3316.3	
350.63	3932.8	
350.84	4780.6	
351.05	4607.2	
351.25	3004.4	
351.46	2798.9	
351.67	5208.7	
351.87	4592.9	
352.08	3246.7	
352.29	3575.1	
352.49	5208	
352.7	5242.8	
352.9	2938.8	
353.11	3601	
353.32	5694	
353.52	4681	
353.73	2940.2	
353.94	3656.3	
354.14	5074.2	
354.35	4937.7	
354.55	3043.3	
354.76	3324.5	
354.97	5041.4	
355.17	4878.9	
355.38	2887	
355.59	3871.3	
355.79	4587.4	
356	4827.7	
356.2	3369.6	
356.41	2951.1	
356.62	4383.3	
356.82	4783.4	
357.03	3601	
357.24	3196.2	
357.44	4607.9	
357.65	4694.6	
357.85	4193.6	
358.06	3377.1	
358.27	4404.5	
358.47	4566.3	
358.68	2897.9	
358.88	3606.5	
359.09	5071.5	
359.3	5319.3	
359.5	4078.9	
359.71	3699.3	
359.91	5657.9	
360.12	5076.2	
360.33	3655.6	
360.53	3957.4	
360.74	4668	
360.94	4729.4	
361.15	3788.1	
361.36	3155.2	
361.56	5281.7	
361.77	4880.3	
361.97	4065.2	
362.18	3381.9	
362.38	5314.5	
362.59	4568.3	
362.8	3136.1	
363	3007.8	
363.21	4374.5	
363.41	5002.5	
363.62	3521.1	
363.83	4197.7	
364.03	5055.8	
364.24	5640.1	
364.44	4414.7	
364.65	4365.6	
364.85	4878.3	
365.06	4536.9	
365.27	3287	
365.47	3323.9	
365.68	5631.9	
365.88	4876.9	
366.09	3591.5	
366.29	3303.4	
366.5	5078.3	
366.71	5365.7	
366.91	4386.1	
367.12	3704.1	
367.32	5895.4	
367.53	5275.6	
367.73	3706.8	
367.94	4450.9	
368.14	5250.3	
368.35	5844.2	
368.56	3605.1	
368.76	3106.8	
368.97	5378.6	
369.17	6528.2	
369.38	3275.4	
369.58	3504.1	
369.79	4513.7	
369.99	5601.9	
370.2	4303.5	
370.4	3597.6	
370.61	5080.3	
370.82	6049	
371.02	3528	
371.23	2966.8	
371.43	4505.5	
371.64	5560.2	
371.84	3558.7	
372.05	4429.8	
372.25	6523.5	
372.46	5277.6	
372.66	3551.9	
372.87	3489.1	
373.07	5339.1	
373.28	6650.4	
373.48	4366.3	
373.69	4082.3	
373.9	4982.7	
374.1	5066	
374.31	4282.3	
374.51	3893.9	
374.72	5644.2	
374.92	4797.7	
375.13	4440.7	
375.33	3846.1	
375.54	5314.5	
375.74	4913.1	
375.95	3912.3	
376.15	4833.9	
376.36	5407.3	
376.56	5255.8	
376.77	3943.7	
376.97	4317.8	
377.18	6249.7	
377.38	5442.1	
377.59	4562.9	
377.79	3616	
378	5281.7	
378.2	5631.9	
378.41	3657.7	
378.61	3549.8	
378.82	5752.7	
379.02	5037.3	
379.23	3764.8	
379.43	4654.4	
379.64	5786.2	
379.84	5513.1	
380.05	3680.2	
380.25	3589.4	
380.46	5614.2	
380.66	5209.3	
380.87	4721.9	
381.07	4942.4	
381.28	6033.3	
381.48	5499.5	
381.69	3622.9	
381.89	3702.7	
382.1	4669.4	
382.3	5588.9	
382.51	4533.5	
382.71	5178.6	
382.91	5490.6	
383.12	5906.3	
383.32	3912.3	
383.53	4134.8	
383.73	5378	
383.94	5261.2	
384.14	4012.7	
384.35	3312.2	
384.55	5100.1	
384.76	5492.7	
384.96	3892.5	
385.17	4138.3	
385.37	5490.6	
385.58	4827.7	
385.78	4100	
385.98	3260.4	
386.19	5104.9	
386.39	5405.3	
386.6	3751.9	
386.8	3872	
387.01	5421.7	
387.21	5578.7	
387.42	4212	
387.62	4688.5	
387.83	5019.6	
388.03	5415.5	
388.23	4015.4	
388.44	4671.4	
388.64	4831.2	
388.85	4899.4	
389.05	4278.9	
389.26	4765.6	
389.46	6335	
389.67	5978	
389.87	4310.3	
390.07	4283	
390.28	5255.8	
390.48	4900.1	
390.69	3622.2	
390.89	3953.3	
391.1	5112.4	
391.3	5815.5	
391.5	4863.9	
391.71	5264.6	
391.91	5648.3	
392.12	6354.8	
392.32	4924.7	
392.53	4280.9	
392.73	5201.8	
392.93	5278.3	
393.14	4014	
393.34	4865.3	
393.55	5558.2	
393.75	5244.2	
393.95	3926	
394.16	3876.8	
394.36	5109.7	
394.57	5615.5	
394.77	3593.5	
394.98	3864.5	
395.18	5030.5	
395.38	5236.7	
395.59	4703.5	
395.79	3841.3	
396	5229.8	
396.2	5636	
396.4	4584	
396.61	4482.3	
396.81	5738.4	
397.02	5174.5	
397.22	4720.6	
397.42	4753.3	
397.63	5839.4	
397.83	5133.6	
398.04	3811.3	
398.24	4251.6	
398.44	5606.7	
398.65	4816.1	
398.85	3662.5	
399.05	3861.1	
399.26	5126.7	
399.46	6445	
399.67	4108.2	
399.87	3898	
400.07	5449	
400.28	5777.3	
400.48	4025.6	
400.69	4808.6	
400.89	5886.5	
401.09	6292	
401.3	3915.7	
401.5	4788.2	
401.7	6453.8	
401.91	6623.8	
402.11	4227.7	
402.32	4401.8	
402.52	5907.7	
402.72	5830.6	
402.93	4527.4	
403.13	3521.1	
403.33	6454.5	
403.54	5298.1	
403.74	4140.3	
403.94	4801.1	
404.15	5395	
404.35	6416.3	
404.56	4090.5	
404.76	5545.9	
404.96	5929.6	
405.17	5722	
405.37	4980.7	
405.57	4554	
405.78	5942.5	
405.98	5489.2	
406.18	4112.3	
406.39	4835.9	
406.59	5845.6	
406.79	5449.6	
407	3810.6	
407.2	3948.5	
407.4	5919.3	
407.61	6004	
407.81	4020.2	
408.01	5861.3	
408.22	5122.7	
408.42	6737.1	
408.62	5043.5	
408.83	4627.7	
409.03	5746.6	
409.23	5649.7	
409.44	4686.4	
409.64	5010.7	
409.84	6580.8	
410.05	6464.8	
410.25	4928.1	
410.45	4724.7	
410.66	6157.6	
410.86	7985	
411.06	5181.4	
411.27	4961.5	
411.47	7918.1	
411.67	6287.3	
411.88	5196.4	
412.08	5398.4	
412.28	6753.5	
412.49	7170.6	
412.69	5075.5	
412.89	5005.2	
413.09	7036.8	
413.3	6972	
413.5	5180.7	
413.7	4853	
413.91	6439.5	
414.11	7024.5	
414.31	4972.5	
414.52	5409.4	
414.72	6842.3	
414.92	6742.6	
415.12	4967	
415.33	5447.6	
415.53	7042.3	
415.73	7109.2	
415.94	5661.3	
416.14	5222.3	
416.34	6307.1	
416.55	6079.7	
416.75	6177.4	
416.95	5771.2	
417.15	7065.5	
417.36	7623.2	
417.56	6365.8	
417.76	5622.4	
417.97	7393.2	
418.17	7141.3	
418.37	5323.4	
418.57	5367.7	
418.78	6980.2	
418.98	6668.2	
419.18	5988.3	
419.38	5900.2	
419.59	6677.1	
419.79	6305	
419.99	5203.9	
420.2	5518.6	
420.4	7082.6	
420.6	7189.1	
420.8	5083.1	
421.01	5101.5	
421.21	6991.1	
421.41	6980.2	
421.61	5427.8	
421.82	5178.6	
422.02	6597.2	
422.22	7281.9	
422.42	5805.3	
422.63	5472.2	
422.83	6653.9	
423.03	7572	
423.23	5566.4	
423.44	4719.9	
423.64	6567.8	
423.84	6414.2	
424.04	5122.7	
424.25	4816.8	
424.45	7291.5	
424.65	7231.4	
424.85	4680.3	
425.06	5088.5	
425.26	7456	
425.46	6452.5	
425.66	5516.5	
425.87	5217.5	
426.07	7148.8	
426.27	6894.1	
426.47	5356.1	
426.67	4806.6	
426.88	7384.3	
427.08	6952.2	
427.28	5644.2	
427.48	4734.9	
427.69	6098.2	
427.89	6519.4	
428.09	5510.4	
428.29	4750.6	
428.5	7075	
428.7	6696.9	
428.9	4731.5	
429.1	5108.3	
429.3	6782.9	
429.51	6957.6	
429.71	4986.1	
429.91	5615.5	
430.11	6986.3	
430.31	7176.1	
430.52	5320.6	
430.72	5502.2	
430.92	7380.2	
431.12	6976.7	
431.32	4961.5	
431.53	5249.6	
431.73	6098.9	
431.93	7412.3	
432.13	4871.4	
432.33	4803.2	
432.54	6554.9	
432.74	6724.2	
432.94	4773.8	
433.14	5561.6	
433.34	7055.9	
433.55	6625.9	
433.75	5455.8	
433.95	6961.7	
434.15	6840.9	
434.35	6533.7	
434.56	4899.4	
434.76	4602.5	
434.96	6779.5	
435.16	7013.6	
435.36	4820.9	
435.56	5843.5	
435.77	6505.7	
435.97	6661.4	
436.17	6289.3	
436.37	5764.3	
436.57	6565.8	
436.78	6464.8	
436.98	5770.5	
437.18	6196.5	
437.38	6939.9	
437.58	6614.3	
437.78	6208.1	
437.99	5164.3	
438.19	7008.8	
438.39	7596.6	
438.59	5036	
438.79	4586.1	
438.99	7428	
439.2	6498.2	
439.4	4713.1	
439.6	4808.6	
439.8	6873	
440	7679.2	
440.2	5779.4	
440.4	5806	
440.61	7342.7	
440.81	7645.1	
441.01	5091.3	
441.21	5777.3	
441.41	7537.2	
441.61	7260	
441.81	5928.9	
442.02	6652.5	
442.22	7834.8	
442.42	7240.3	
442.62	5048.2	
442.82	5102.2	
443.02	7626	
443.22	6898.2	
443.43	5498.1	
443.63	5135.6	
443.83	6713.9	
444.03	6701.6	
444.23	6135	
444.43	5726.1	
444.63	7026.6	
444.83	7979.6	
445.04	5202.5	
445.24	6240.8	
445.44	7274.4	
445.64	7325.6	
445.84	5807.4	
446.04	5834	
446.24	6659.3	
446.44	7493.5	
446.65	5134.9	
446.85	5442.8	
447.05	6969.2	
447.25	7428.7	
447.45	5511.1	
447.65	5048.2	
447.85	6963.1	
448.05	6607.4	
448.25	5838.8	
448.46	5646.9	
448.66	6954.2	
448.86	6671.6	
449.06	4961.5	
449.26	5780.1	
449.46	7256	
449.66	6517.3	
449.86	5524.7	
450.06	5442.8	
450.26	6607.4	
450.47	7125.6	
450.67	5593.7	
450.87	5846.3	
451.07	7169.9	
451.27	6964.5	
451.47	5078.3	
451.67	5538.4	
451.87	6780.1	
452.07	7640.3	
452.27	5257.1	
452.47	5233.9	
452.67	6989.7	
452.88	7318.1	
453.08	4738.3	
453.28	6286.6	
453.48	7877.2	
453.68	6861.4	
453.88	5208.7	
454.08	5338.4	
454.28	7193.1	
454.48	6990.4	
454.68	5818.3	
454.88	6178	
455.08	7363.1	
455.28	7198.6	
455.48	5131.5	
455.68	5681.7	
455.89	7791.8	
456.09	7468.9	
456.29	5408	
456.49	5550.7	
456.69	7628.7	
456.89	6995.9	
457.09	5846.3	
457.29	6139.1	
457.49	7346.7	
457.69	7421.8	
457.89	5814.9	
458.09	5309	
458.29	7172.7	
458.49	7767.3	
458.69	6047.7	
458.89	5632.6	
459.09	7916.1	
459.29	7973.4	
459.49	5679	
459.69	6238.1	
459.9	7527.7	
460.1	7071	
460.3	5557.5	
460.5	5398.4	
460.7	7546.1	
460.9	7159.7	
461.1	5132.9	
461.3	6091.3	
461.5	8037.6	
461.7	7748.1	
461.9	5583.4	
462.1	5834	
462.3	7410.9	
462.5	7805.5	
462.7	5641.5	
462.9	5727.5	
463.1	8603.5	
463.3	8433.5	
463.5	5905.7	
463.7	6679.1	
463.9	7608.2	
464.1	7781.6	
464.3	5994.4	
464.5	6156.2	
464.7	8054	
464.9	7837.6	
465.1	7202	
465.3	6423.1	
465.5	8262.9	
465.7	8328.4	
465.9	6615.6	
466.1	6429.9	
466.3	8173.4	
466.5	8058.1	
466.7	7185.6	
466.9	6351.4	
467.1	8076.5	
467.3	8768.7	
467.5	7123.5	
467.7	6212.9	
467.9	8956.4	
468.1	9578.3	
468.3	6836.1	
468.5	7271.7	
468.7	8012.3	
468.9	7917.4	
469.1	6442.2	
469.3	7004.1	
469.5	9480	
469.7	7677.2	
469.9	6834.1	
470.1	6279.8	
470.3	8050.6	
470.5	7998.7	
470.7	7285.3	
470.9	6334.4	
471.1	7802.8	
471.3	8090.8	
471.5	6227.2	
471.69	7575.4	
471.89	7633.5	
472.09	7245	
472.29	6812.2	
472.49	7049.1	
472.69	7430	
472.89	8001.4	
473.09	6066.8	
473.29	6111.1	
473.49	7552.2	
473.69	7611.6	
473.89	6783.6	
474.09	6228.6	
474.29	8621.3	
474.49	8297	
474.69	6825.9	
474.89	6382.2	
475.09	7696.9	
475.29	7596.6	
475.49	5937.7	
475.69	6097.5	
475.88	8899.1	
476.08	7961.1	
476.28	5731.6	
476.48	6059.9	
476.68	8193.2	
476.88	8002.8	
477.08	6026.5	
477.28	6260	
477.48	7669.6	
477.68	8107.2	
477.88	5855.1	
478.08	6117.3	
478.28	8474.5	
478.48	7729	
478.67	6171.2	
478.87	5688.6	
479.07	8268.3	
479.27	7761.8	
479.47	6330.3	
479.67	6289.3	
479.87	8046.5	
480.07	8529.1	
480.27	5754.8	
480.47	6955.6	
480.67	7784.3	
480.87	8314.1	
481.06	5982.8	
481.26	6612.9	
481.46	7814.4	
481.66	7664.2	
481.86	6349.4	
482.06	6971.3	
482.26	7493.5	
482.46	8205.5	
482.66	6240.8	
482.86	5870.2	
483.05	7877.2	
483.25	7294.2	
483.45	8100.4	
483.65	6147.3	
483.85	7471	
484.05	7751.6	
484.25	6610.2	
484.45	6952.9	
484.65	8344.1	
484.84	8408.3	
485.04	6152.8	
485.24	6165.8	
485.44	8680.7	
485.64	7253.9	
485.84	5595.7	
486.04	6650.4	
486.24	7656	
486.44	7882.6	
486.63	5601.9	
486.83	6328.2	
487.03	7584.3	
487.23	7680.6	
487.43	5788.2	
487.63	7550.2	
487.83	7741.3	
488.02	8438.3	
488.22	6471.6	
488.42	6939.2	
488.62	8447.9	
488.82	7596.6	
489.02	6141.2	
489.22	6240.2	
489.41	8333.9	
489.61	8080.6	
489.81	6032.6	
490.01	6045.6	
490.21	8276.5	
490.41	8793.3	
490.61	5975.3	
490.8	6055.8	
491	7912	
491.2	7394.5	
491.4	6582.2	
491.6	5808	
491.8	7783	
491.99	7847.1	
492.19	5744.6	
492.39	6023.1	
492.59	8227.4	
492.79	8366	
492.99	6692.1	
493.18	6042.9	
493.38	8477.2	
493.58	9045.9	
493.78	6523.5	
493.98	6257.2	
494.18	8202.1	
494.37	7672.4	
494.57	6862.7	
494.77	6662	
494.97	8400.1	
495.17	8573.5	
495.37	6414.2	
495.56	6647.7	
495.76	8769.4	
495.96	8391.9	
496.16	7315.3	
496.36	6475	
496.55	8623.3	
496.75	8182.3	
496.95	6777.4	
497.15	6668.9	
497.35	8499.1	
497.54	8439	
497.74	6506.4	
497.94	8047.8	
498.14	9145.5	
498.34	8959.9	
498.53	6363	
498.73	6956.9	
498.93	8015.1	
499.13	8469	
499.33	6761	
499.52	7146	
499.72	8630.1	
499.92	8720.9	
500.12	6529.6	
500.32	6733	
500.51	8664.3	
500.71	8486.8	
500.91	7337.2	
501.11	6992.4	
501.31	8668.4	
501.5	8995.4	
501.7	7578.2	
501.9	6766.5	
502.1	8437.6	
502.29	8704.5	
502.49	7172.7	
502.69	7496.2	
502.89	8709.3	
503.09	8616.5	
503.28	6244.9	
503.48	6348	
503.68	7993.2	
503.88	7989.8	
504.07	7058.7	
504.27	6720.1	
504.47	8261.5	
504.67	8455.4	
504.86	6976.1	
505.06	6802	
505.26	8085.4	
505.46	9301.9	
505.65	6647.7	
505.85	6829.3	
506.05	8016.4	
506.25	8344.8	
506.44	6191.7	
506.64	6794.5	
506.84	7802.8	
507.04	8546.9	
507.23	6311.2	
507.43	6778.8	
507.63	9331.2	
507.83	8005.5	
508.02	6707.8	
508.22	6355.5	
508.42	9511.4	
508.62	7736.5	
508.81	6513.2	
509.01	6988.4	
509.21	7658	
509.4	7997.3	
509.6	6748.7	
509.8	6197.8	
510	7861.5	
510.19	8976.2	
510.39	6179.4	
510.59	6341.9	
510.79	7827.3	
510.98	8834.9	
511.18	6403.3	
511.38	6349.4	
511.57	8362.5	
511.77	8069.7	
511.97	6863.4	
512.17	6163	
512.36	8355	
512.56	8189.8	
512.76	6099.5	
512.95	5954.1	
513.15	8475.2	
513.35	7299.6	
513.55	6829.3	
513.74	6192.4	
513.94	8381	
514.14	7806.9	
514.33	6805.4	
514.53	6697.5	
514.73	7851.2	
514.92	7907.9	
515.12	6293.4	
515.32	6139.1	
515.51	7998.7	
515.71	8333.9	
515.91	7436.2	
516.11	6128.2	
516.3	9271.2	
516.5	7692.9	
516.7	6645	
516.89	7017.7	
517.09	7831.4	
517.29	7707.2	
517.48	6706.4	
517.68	6395.1	
517.88	7596.6	
518.07	8001.4	
518.27	6763.8	
518.47	5933	
518.66	8517.5	
518.86	7447.1	
519.06	5908.4	
519.25	6139.8	
519.45	7623.9	
519.65	8785.8	
519.84	6697.5	
520.04	7173.4	
520.24	9183.8	
520.43	8160.5	
520.63	6517.3	
520.83	6220.4	
521.02	7561.1	
521.22	8020.5	
521.42	6567.2	
521.61	7045.7	
521.81	7766.6	
522.01	7966.6	
522.2	6634.1	
522.4	6403.3	
522.6	8325	
522.79	7225.2	
522.99	6378.1	
523.18	5899.5	
523.38	8080.6	
523.58	7978.2	
523.77	7431.4	
523.97	5876.3	
524.17	9452.7	
524.36	8888.2	
524.56	6961	
524.76	6628.6	
524.95	8009.6	
525.15	7782.3	
525.34	6528.2	
525.54	6492.1	
525.74	8325	
525.93	7484	
526.13	7323.5	
526.33	6466.1	
526.52	8639.7	
526.72	8108.6	
526.91	7408.9	
527.11	6795.8	
527.31	8564.6	
527.5	8757.1	
527.7	6790.4	
527.89	6064.7	
528.09	7831.4	
528.29	8239.7	
528.48	7096.9	
528.68	6826.6	
528.87	8540.7	
529.07	8535.3	
529.27	6776	
529.46	6413.6	
529.66	8196	
529.85	8520.9	
530.05	6263.4	
530.25	6855.9	
530.44	9217.9	
530.64	8131.1	
530.83	6580.8	
531.03	6668.2	
531.23	8559.1	
531.42	8311.3	
531.62	7302.4	
531.81	6720.1	
532.01	8726.4	
532.21	8886.1	
532.4	6551.5	
532.6	6862.1	
532.79	9275.9	
532.99	8697	
533.18	6901.7	
533.38	7597.3	
533.58	8338	
533.77	8812.4	
533.97	6932.4	
534.16	7445	
534.36	9018.6	
534.55	8376.2	
534.75	7584.3	
534.95	6879.1	
535.14	9002.9	
535.34	8343.4	
535.53	6551.5	
535.73	8021.9	
535.92	9365.4	
536.12	8358.4	
536.31	6620.4	
536.51	7590.5	
536.71	8655.4	
536.9	8240.3	
537.1	6696.2	
537.29	6898.2	
537.49	8986.5	
537.68	8275.8	
537.88	7143.3	
538.07	6442.2	
538.27	8453.3	
538.46	9171.5	
538.66	6472.9	
538.86	6887.3	
539.05	8488.8	
539.25	8779.6	
539.44	7019.1	
539.64	6707.8	
539.83	8281.3	
540.03	9024	
540.22	6503	
540.42	6589.7	
540.61	8505.9	
540.81	8531.2	
541	7054.6	
541.2	7453.9	
541.39	8117.5	
541.59	8377.6	
541.78	7254.6	
541.98	6584.2	
542.18	7949.5	
542.37	7850.5	
542.57	6862.1	
542.76	7231.4	
542.96	7924.3	
543.15	8356.4	
543.35	6789	
543.54	6365.1	
543.74	8523.6	
543.93	8291.5	
544.13	6832	
544.32	7656.7	
544.52	8600.1	
544.71	7890.8	
544.91	6098.9	
545.1	6986.3	
545.3	7940	
545.49	8388.5	
545.69	6062.7	
545.88	6537.1	
546.08	9211.1	
546.27	8808.3	
546.47	6920.8	
546.66	6334.4	
546.86	8601.5	
547.05	8979	
547.24	6573.3	
547.44	6484.6	
547.63	7714.7	
547.83	8557.8	
548.02	6670.9	
548.22	6824.5	
548.41	7675.8	
548.61	8679.3	
548.8	6358.3	
549	6378.1	
549.19	8137.3	
549.39	8438.3	
549.58	6059.3	
549.78	6516.6	
549.97	8377.6	
550.17	7918.8	
550.36	7204.1	
550.55	7895.6	
550.75	7997.3	
550.94	8669.1	
551.14	6183.5	
551.33	6520.7	
551.53	7483.3	
551.72	8236.9	
551.92	6569.9	
552.11	6322.1	
552.31	8299.1	
552.5	8247.2	
552.69	7659.4	
552.89	6121.4	
553.08	8277.9	
553.28	7996.6	
553.47	6388.3	
553.67	7138.5	
553.86	8684.8	
554.06	7448.5	
554.25	5805.3	
554.44	6150.7	
554.64	9401.5	
554.83	8910	
555.03	6199.9	
555.22	6494.1	
555.42	8344.1	
555.61	8149.6	
555.8	6297.5	
556	6489.3	
556.19	7458.7	
556.39	8411.7	
556.58	6306.4	
556.78	6393.8	
556.97	8107.9	
557.16	7799.3	
557.36	7225.9	
557.55	6010.1	
557.75	7213.6	
557.94	8713.4	
558.13	6092.7	
558.33	5883.1	
558.52	8445.8	
558.72	7456.7	
558.91	5978.7	
559.1	6231.3	
559.3	7390.4	
559.49	7182.2	
559.69	5691.3	
559.88	6483.9	
560.07	7956.4	
560.27	8239	
560.46	6652.5	
560.66	6695.5	
560.85	7832.1	
561.04	7109.2	
561.24	5926.1	
561.43	6066.1	
561.63	7345.4	
561.82	7632.1	
562.01	6993.8	
562.21	6290.7	
562.4	7862.2	
562.59	8652	
562.79	6191	
562.98	6014.9	
563.18	7914	
563.37	8932.6	
563.56	6591	
563.76	5853.1	
563.95	7503.1	
564.14	7341.3	
564.34	6206.7	
564.53	6047	
564.73	7840.3	
564.92	8034.9	
565.11	6253.8	
565.31	5834.7	
565.5	8336.6	
565.69	7320.8	
565.89	6052.4	
566.08	6189.6	
566.27	8131.8	
566.47	8497	
566.66	6707.8	
566.85	5654.4	
567.05	7903.1	
567.24	7439.6	
567.44	5874.9	
567.63	6949.4	
567.82	8070.4	
568.02	7771.4	
568.21	5925.5	
568.4	6172.6	
568.6	7686.7	
568.79	7647.8	
568.98	5793	
569.18	5881.8	
569.37	7759.1	
569.56	9175.6	
569.76	6201.2	
569.95	6929	
570.14	8039	
570.34	7859.4	
570.53	5831.2	
570.72	5773.2	
570.91	8283.4	
571.11	7610.9	
571.3	6165.8	
571.49	6890.7	
571.69	7775.5	
571.88	7318.1	
572.07	6554.9	
572.27	6561	
572.46	7273	
572.65	8057.4	
572.85	5943.9	
573.04	6256.5	
573.23	8378.9	
573.43	7772	
573.62	5776.6	
573.81	6255.9	
574	7849.2	
574.2	7644.4	
574.39	6126.8	
574.58	6212.9	
574.78	8408.3	
574.97	7862.8	
575.16	6509.1	
575.36	6514.6	
575.55	8192.6	
575.74	8144.8	
575.93	5795.8	
576.13	6600.6	
576.32	7655.3	
576.51	8093.6	
576.71	6029.2	
576.9	7178.1	
577.09	8297	
577.28	7927	
577.48	6380.8	
577.67	5738.4	
577.86	7612.3	
578.05	7890.1	
578.25	6294.8	
578.44	6255.9	
578.63	7676.5	
578.83	8605.6	
579.02	5812.1	
579.21	6950.8	
579.4	7869	
579.6	7671	
579.79	6322.8	
579.98	7941.3	
580.17	8176.9	
580.37	8233.5	
580.56	5917.9	
580.75	6436.8	
580.94	8514.1	
581.14	8489.5	
581.33	6698.2	
581.52	6028.5	
581.71	7993.9	
581.91	8583.7	
582.1	5792.3	
582.29	6281.1	
582.48	7746.1	
582.68	7802.8	
582.87	6596.5	
583.06	6298.9	
583.25	8035.5	
583.45	7464.8	
583.64	6815	
583.83	7261.4	
584.02	7728.4	
584.21	8025.3	
584.41	6691.4	
584.6	6306.4	
584.79	7757	
584.98	8312	
585.18	5853.1	
585.37	5833.3	
585.56	7585	
585.75	8069	
585.94	6045.6	
586.14	6494.8	
586.33	8509.3	
586.52	7633.5	
586.71	6365.8	
586.91	6155.5	
587.1	7247.1	
587.29	8081.3	
587.48	6103.6	
587.67	6056.5	
587.87	7907.9	
588.06	7925.6	
588.25	6959	
588.44	6454.5	
588.63	7691.5	
588.83	8102.4	
589.02	6065.4	
589.21	5966.4	
589.4	7545.4	
589.59	7326.3	
589.78	5406.6	
589.98	5587.5	
590.17	7085.3	
590.36	7364.5	
590.55	5048.9	
590.74	5711.1	
590.94	8394.6	
591.13	7368.6	
591.32	5598.5	
591.51	5311.1	
591.7	7690.8	
591.89	7283.9	
592.09	5271.5	
592.28	5632.6	
592.47	6694.1	
592.66	8195.3	
592.85	5229.1	
593.05	5414.8	
593.24	7174.7	
593.43	7841	
593.62	5543.2	
593.81	5883.8	
594	7248.4	
594.19	7385.7	
594.39	5485.8	
594.58	5402.5	
594.77	7489.4	
594.96	7899	
595.15	5381.4	
595.34	5833.3	
595.54	7386.3	
595.73	6772.6	
595.92	4874.8	
596.11	5746.6	
596.3	7870.3	
596.49	6879.8	
596.68	5599.8	
596.88	5973.9	
597.07	7627.3	
597.26	6721.4	
597.45	5255.8	
597.64	6154.8	
597.83	6971.3	
598.02	7436.2	
598.22	5262.6	
598.41	5807.4	
598.6	7323.5	
598.79	6822.5	
598.98	5335	
599.17	6121.4	
599.36	7344.7	
599.55	8159.1	
599.74	6891.4	
599.94	6723.5	
600.13	7711.3	
600.32	6727.6	
600.51	5171.8	
600.7	5233.2	
600.89	8155	
601.08	8221.2	
601.27	5137.7	
601.47	5870.2	
601.66	7601.4	
601.85	8087.4	
602.04	5591.6	
602.23	5757.5	
602.42	6925.5	
602.61	7380.2	
602.8	5527.5	
602.99	5364.3	
603.18	7169.9	
603.37	7326.3	
603.57	5844.9	
603.76	6270.2	
603.95	7856.7	
604.14	7494.2	
604.33	5442.1	
604.52	5677	
604.71	7395.9	
604.9	6972.7	
605.09	6170.5	
605.28	6019	
605.47	7786.4	
605.66	7502.4	
605.86	5840.8	
606.05	5375.9	
606.24	7774.8	
606.43	6636.1	
606.62	5708.4	
606.81	6206	
607	7623.2	
607.19	6999.3	
607.38	5167	
607.57	5349.3	
607.76	6943.3	
607.95	6520	
608.14	5724.1	
608.33	6146	
608.52	6998.6	
608.72	7556.3	
608.91	5124	
609.1	5019.6	
609.29	7019.1	
609.48	6631.3	
609.67	5746.6	
609.86	5120.6	
610.05	6715.3	
610.24	6932.4	
610.43	5008.6	
610.62	4735.6	
610.81	7887.4	
611	7639.6	
611.19	5140.4	
611.38	5634.6	
611.57	7215.7	
611.76	8125	
611.95	4921.3	
612.14	4812	
612.33	7000.6	
612.52	6655.2	
612.71	5324.7	
612.9	4757.4	
613.09	6358.3	
613.28	8131.1	
613.47	5283.1	
613.66	5817.6	
613.85	7129	
614.04	6681.8	
614.24	5264.6	
614.43	4597	
614.62	7208.8	
614.81	7146.7	
615	5618.9	
615.19	5539.1	
615.38	6636.8	
615.57	6861.4	
615.76	5520.6	
615.95	6265.4	
616.14	7260.7	
616.33	6937.2	
616.52	5687.2	
616.71	5917.3	
616.9	7138.5	
617.09	7100.3	
617.28	5254.4	
617.47	6173.9	
617.66	6528.2	
617.85	6470.9	
618.04	5938.4	
618.22	5459.9	
618.41	6736.5	
618.6	7436.9	
618.79	5418.2	
618.98	5214.8	
619.17	7654.6	
619.36	6346.7	
619.55	5199.1	
619.74	5317.2	
619.93	7090.8	
620.12	6550.1	
620.31	5769.8	
620.5	5881.8	
620.69	7484.6	
620.88	7760.4	
621.07	6340.5	
621.26	5588.9	
621.45	7122.8	
621.64	7167.9	
621.83	5713.8	
622.02	5079.6	
622.21	7255.3	
622.4	7088.7	
622.59	6085.9	
622.78	5946.6	
622.97	6711.2	
623.16	7454.6	
623.35	5684.5	
623.54	5050.3	
623.72	6838.2	
623.91	6947.4	
624.1	5881.8	
624.29	4844.8	
624.48	7894.2	
624.67	7170.6	
624.86	5732.3	
625.05	5025	
625.24	7950.9	
625.43	6659.3	
625.62	6999.3	
625.81	5231.9	
626	7393.2	
626.19	6913.3	
626.38	5849	
626.56	5369.8	
626.75	6754.2	
626.94	7286	
627.13	5790.3	
627.32	4775.2	
627.51	7250.5	
627.7	8157.1	
627.89	4870.1	
628.08	5847	
628.27	6571.2	
628.46	6804	
628.65	5121.3	
628.83	4945.8	
629.02	7249.1	
629.21	6638.1	
629.4	5436	
629.59	5602.6	
629.78	6624.5	
629.97	7350.8	
630.16	5620.3	
630.35	5287.2	
630.54	7755.7	
630.72	7478.5	
630.91	5300.8	
631.1	5726.8	
631.29	7066.9	
631.48	7108.5	
631.67	5842.2	
631.86	5386.2	
632.05	6860	
632.24	6809.5	
632.42	5102.9	
632.61	5510.4	
632.8	6953.5	
632.99	6561.7	
633.18	5636.7	
633.37	5866.1	
633.56	7092.1	
633.75	7006.1	
633.93	5607.3	
634.12	5306.3	
634.31	7712	
634.5	7382.9	
634.69	5288.5	
634.88	5816.2	
635.07	6939.9	
635.25	7436.2	
635.44	6087.2	
635.63	6123.4	
635.82	6765.1	
636.01	6346	
636.2	5972.6	
636.39	5631.2	
636.57	7683.3	
636.76	7273	
636.95	5246.2	
637.14	6248.4	
637.33	7148.8	
637.52	7733.1	
637.7	4973.2	
637.89	5760.3	
638.08	6821.8	
638.27	7879.9	
638.46	5841.5	
638.65	6102.9	
638.83	7881.9	
639.02	6724.2	
639.21	5686.5	
639.4	6165.8	
639.59	7045.7	
639.78	6767.9	
639.96	5266.7	
640.15	5274.9	
640.34	7007.5	
640.53	7055.3	
640.72	5061.2	
640.91	5259.9	
641.09	6466.8	
641.28	7491.5	
641.47	5214.8	
641.66	5821.7	
641.85	7026.6	
642.03	7139.2	
642.22	5691.3	
642.41	5343.2	
642.6	6583.5	
642.79	6120.7	
642.97	5193.6	
643.16	5701.5	
643.35	6561	
643.54	6445	
643.73	5107.6	
643.91	5723.4	
644.1	6361.7	
644.29	6813.6	
644.48	5109	
644.67	5216.2	
644.85	6398.5	
645.04	6791.1	
645.23	4838	
645.42	5070.1	
645.6	6346.7	
645.79	7148.1	
645.98	5039.4	
646.17	4277.5	
646.36	6223.1	
646.54	6597.2	
646.73	5702.9	
646.92	4797.7	
647.11	6288.6	
647.29	7059.3	
647.48	4813.4	
647.67	4560.1	
647.86	7354.3	
648.05	7227.3	
648.23	5024.3	
648.42	6015.6	
648.61	6789	
648.8	6595.1	
648.98	4739	
649.17	4972.5	
649.36	6323.4	
649.55	5937.1	
649.73	4827.1	
649.92	5401.2	
650.11	6224.5	
650.3	6484.6	
650.48	4889.9	
650.67	4726.7	
650.86	6713.2	
651.05	5829.2	
651.23	4849.6	
651.42	4816.8	
651.61	6256.5	
651.79	6292.7	
651.98	5109	
652.17	4760.8	
652.36	6539.2	
652.54	5874.3	
652.73	4771.1	
652.92	4579.9	
653.11	6615.6	
653.29	6630.6	
653.48	4221.5	
653.67	4926	
653.85	6474.3	
654.04	7169.3	
654.23	5120.6	
654.42	4785.4	
654.6	6125.5	
654.79	6602.7	
654.98	4401.1	
655.16	4825	
655.35	5797.1	
655.54	5651	
655.73	4464.6	
655.91	4302.1	
656.1	6539.8	
656.29	5686.5	
656.47	4074.1	
656.66	5427.1	
656.85	5977.3	
657.03	5921.4	
657.22	4499.4	
657.41	4519.2	
657.59	5965.7	
657.78	5785.5	
657.97	4188.1	
658.16	4812	
658.34	6543.3	
658.53	6814.3	
658.72	5424.4	
658.9	5863.3	
659.09	6144.6	
659.28	6094.1	
659.46	4580.6	
659.65	4482.3	
659.84	5899.5	
660.02	6399.9	
660.21	4617.5	
660.4	4430.4	
660.58	6673.6	
660.77	6163.7	
660.96	4954	
661.14	4189.5	
661.33	7034.8	
661.52	6967.9	
661.7	4165.6	
661.89	6946	
662.08	5815.5	
662.26	5489.9	
662.45	4437.9	
662.64	4514.4	
662.82	6406	
663.01	5816.2	
663.2	4495.3	
663.38	4985.4	
663.57	6337.8	
663.75	6226.5	
663.94	4788.2	
664.13	5674.9	
664.31	5915.9	
664.5	6414.2	
664.69	4928.8	
664.87	5281.7	
665.06	5668.8	
665.25	6185.5	
665.43	5477.6	
665.62	5449	
665.8	6446.3	
665.99	5911.1	
666.18	4700.1	
666.36	4791.6	
666.55	6500.9	
666.74	6299.6	
666.92	4512.4	
667.11	5689.3	
667.29	5981.4	
667.48	6404	
667.67	5349.3	
667.85	4627.7	
668.04	5957.5	
668.22	5909.1	
668.41	4835.9	
668.6	4981.3	
668.78	5765	
668.97	5943.9	
669.15	5010	
669.34	4206.5	
669.53	5807.4	
669.71	6102.3	
669.9	4382	
670.08	4834.6	
670.27	5727.5	
670.46	6318	
670.64	4992.9	
670.83	5212.1	
671.01	5646.2	
671.2	6166.4	
671.38	4468	
671.57	4313	
671.76	6666.8	
671.94	7059.3	
672.13	4335.5	
672.31	5171.8	
672.5	6328.9	
672.69	5856.5	
672.87	4465.9	
673.06	4698	
673.24	6186.2	
673.43	5876.3	
673.61	5059.8	
673.8	4600.4	
673.98	6292.7	
674.17	6477	
674.36	5066.7	
674.54	4989.5	
674.73	6063.4	
674.91	6386.9	
675.1	4763.6	
675.28	4416.1	
675.47	5980.8	
675.65	6361	
675.84	4683	
676.03	4841.4	
676.21	5847.6	
676.4	5399.1	
676.58	5272.2	
676.77	5062.6	
676.95	6984.9	
677.14	5797.8	
677.32	4418.2	
677.51	4240.7	
677.69	6406.7	
677.88	5552.7	
678.06	4336.9	
678.25	4441.4	
678.44	5954.8	
678.62	5753.4	
678.81	4160.8	
678.99	4871.4	
679.18	6683.2	
679.36	6297.5	
679.55	4605.9	
679.73	5023.7	
679.92	6224.5	
680.1	5778	
680.29	5532.2	
680.47	4569	
680.66	5857.9	
680.84	6428.6	
681.03	4090.5	
681.21	4957.4	
681.4	5767.1	
681.58	5724.1	
681.77	4446.8	
681.95	4339.6	
682.14	6480.5	
682.32	6635.4	
682.51	5046.9	
682.69	4163.5	
682.88	5685.8	
683.06	6206	
683.25	4897.4	
683.43	5201.2	
683.62	6012.8	
683.8	6213.5	
683.99	5308.3	
684.17	4706.2	
684.36	6889.4	
684.54	5899.5	
684.73	4123.9	
684.91	4255.7	
685.1	6108.4	
685.28	5633.3	
685.46	4759.5	
685.65	4760.2	
685.83	6299.6	
686.02	5844.9	
686.2	4373.8	
686.39	4515.1	
686.57	5488.6	
686.76	6688	
686.94	4317.8	
687.13	4485.7	
687.31	6123.4	
687.5	5812.1	
687.68	4003.1	
687.86	4930.8	
688.05	7151.5	
688.23	5374.6	
688.42	4982	
688.6	4357.4	
688.79	5651	
688.97	5747.3	
689.16	4655.7	
689.34	3887.7	
689.52	6245.6	
689.71	6471.6	
689.89	4845.5	
690.08	4397.7	
690.26	5946.6	
690.45	5872.2	
690.63	5031.9	
690.81	4479.6	
691	5796.4	
691.18	5664.7	
691.37	4625	
691.55	6212.9	
691.74	5633.3	
691.92	7176.1	
692.1	4599.1	
692.29	4218.1	
692.47	5845.6	
692.66	5335	
692.84	4308.2	
693.02	4754	
693.21	5291.3	
693.39	5851.7	
693.58	4787.5	
693.76	4282.3	
693.94	6642.2	
694.13	6458.6	
694.31	4326	
694.5	5107	
694.68	5610.8	
694.86	5890.6	
695.05	4596.3	
695.23	4714.4	
695.42	6158.2	
695.6	7899	
695.78	5013.4	
695.97	4364.2	
696.15	6216.3	
696.34	5670.1	
696.52	4195.6	
696.7	4899.4	
696.89	6013.5	
697.07	5520	
697.25	4805.9	
697.44	5851	
697.62	5987.6	
697.81	6189.6	
697.99	4509.6	
698.17	4868	
698.36	5499.5	
698.54	5978.7	
698.72	4778.6	
698.91	4019.5	
699.09	5675.6	
699.28	5531.6	
699.46	4552.6	
699.64	4417.5	
699.83	5466.7	
700.01	6366.5	
700.19	5059.2	
700.38	3823.6	
700.56	6419.7	
700.74	5580.7	
700.93	4149.9	
701.11	4740.4	
701.29	5986.9	
701.48	6821.8	
701.66	4289.1	
701.84	4317.8	
702.03	5689.3	
702.21	6207.4	
702.39	3971.7	
702.58	4429.1	
702.76	5996.5	
702.94	6038.1	
703.13	3927.3	
703.31	5726.1	
703.49	5481	
703.68	6607.4	
703.86	4104.8	
704.04	4819.6	
704.23	5890.6	
704.41	6102.9	
704.59	4256.4	
704.78	5184.1	
704.96	7041.6	
705.14	6140.5	
705.33	4020.2	
705.51	4702.8	
705.69	5655.1	
705.87	6303	
706.06	4891.2	
706.24	4002.4	
706.42	5937.1	
706.61	6111.8	
706.79	4979.3	
706.97	3962.1	
707.16	5524.7	
707.34	5956.2	
707.52	4835.9	
707.7	4268	
707.89	5528.8	
708.07	5295.4	
708.25	4838.7	
708.44	4913.1	
708.62	5493.3	
708.8	6400.6	
708.98	5123.3	
709.17	4261.8	
709.35	5854.5	
709.53	5793	
709.72	3997	
709.9	4427.7	
710.08	6130.9	
710.26	6108.4	
710.45	5262.6	
710.63	4317.1	
710.81	5747.3	
710.99	5819	
711.18	4786.8	
711.36	4367	
711.54	5694.7	
711.72	6207.4	
711.91	4517.1	
712.09	4004.5	
712.27	5787.6	
712.45	6244.3	
712.64	4682.3	
712.82	3862.5	
713	5470.1	
713.18	5498.1	
713.37	4040.6	
713.55	4867.3	
713.73	6226.5	
713.91	5231.2	
714.1	4314.4	
714.28	3896.6	
714.46	5917.3	
714.64	5348.6	
714.83	3510.9	
715.01	4150.6	
715.19	5500.2	
715.37	4932.9	
715.55	3964.9	
715.74	4154.6	
715.92	6179.4	
716.1	4594.3	
716.28	5105.6	
716.47	4274.8	
716.65	5205.3	
716.83	5307.7	
717.01	4160.8	
717.19	4186.7	
717.38	6849.1	
717.56	4961.5	
717.74	4319.2	
717.92	3659	
718.1	5937.7	
718.29	5214.1	
718.47	3397.6	
718.65	3876.8	
718.83	5773.2	
719.01	5734.3	
719.2	3272	
719.38	4165.6	
719.56	5489.2	
719.74	6694.8	
719.92	3785.3	
720.11	4654.4	
720.29	5539.1	
720.47	4917.2	
720.65	3459.7	
720.83	4091.8	
721.02	5235.3	
721.2	5003.9	
721.38	4227.7	
721.56	3592.8	
721.74	4611.3	
721.92	4812	
722.11	4610	
722.29	4378.6	
722.47	5708.4	
722.65	5120.6	
722.83	3652.2	
723.01	4351.9	
723.2	5134.9	
723.38	5431.2	
723.56	3188	
723.74	4113	
723.92	4751.3	
724.1	5678.3	
724.29	3609.9	
724.47	4493.2	
724.65	4897.4	
724.83	4766.3	
725.01	3544.4	
725.19	4231.8	
725.37	4779.3	
725.56	4803.9	
725.74	3392.8	
725.92	3614.7	
726.1	4711.7	
726.28	5100.8	
726.46	3934.8	
726.64	3719.8	
726.83	5044.1	
727.01	5186.1	
727.19	3411.9	
727.37	4033.1	
727.55	5109.7	
727.73	5484.5	
727.91	3325.2	
728.09	3249.4	
728.28	5560.9	
728.46	5741.8	
728.64	4049.5	
728.82	4044.1	
729	6296.1	
729.18	5776.6	
729.36	3395.5	
729.54	5197.7	
729.72	6497.5	
729.91	5201.8	
730.09	4918.5	
730.27	3895.9	
730.45	5149.3	
730.63	5581.4	
730.81	4437.3	
730.99	3644	
731.17	5971.9	
731.35	4860.5	
731.53	4078.2	
731.71	3720.5	
731.9	5762.3	
732.08	5864.7	
732.26	4029.7	
732.44	3688.4	
732.62	5922.7	
732.8	5544.5	
732.98	4300.7	
733.16	3557.3	
733.34	5631.2	
733.52	4611.3	
733.7	3918.4	
733.88	4135.5	
734.07	5410.1	
734.25	5172.5	
734.43	3586	
734.61	4691.9	
734.79	6406	
734.97	5121.3	
735.15	3655.6	
735.33	3885.7	
735.51	5529.5	
735.69	5189.6	
735.87	4717.8	
736.05	4050.2	
736.23	5239.4	
736.41	5070.8	
736.59	3938.2	
736.77	4022.2	
736.95	5608.7	
737.13	5167	
737.32	3747.1	
737.5	3812.6	
737.68	6042.9	
737.86	5067.4	
738.04	3508.2	
738.22	4926	
738.4	5035.3	
738.58	5276.9	
738.76	4052.9	
738.94	3237.8	
739.12	5122.7	
739.3	5026.4	
739.48	4471.4	
739.66	4235.9	
739.84	5350	
740.02	5232.6	
740.2	3346.4	
740.38	3519.1	
740.56	5571.8	
740.74	4641.4	
740.92	4108.9	
741.1	3953.3	
741.28	5162.2	
741.46	4937.7	
741.64	3759.4	
741.82	4108.9	
742	5203.2	
742.18	5156.1	
742.36	3927.3	
742.54	3652.9	
742.72	5614.2	
742.9	4579.3	
743.08	4216.8	
743.26	3283.6	
743.44	5684.5	
743.62	5591.6	
743.8	4330.1	
743.98	3629	
744.16	5412.1	
744.34	5117.2	
744.52	4289.8	
744.7	4188.1	
744.88	5571.8	
745.06	5162.2	
745.24	4252.3	
745.42	4413.4	
745.6	5651	
745.78	5500.2	
745.96	3462.4	
746.14	3642.7	
746.32	6177.4	
746.5	5621	
746.68	4138.9	
746.86	3607.2	
747.03	5935.7	
747.21	4683.7	
747.39	4037.2	
747.57	3673.4	
747.75	5378	
747.93	5626.5	
748.11	3600.3	
748.29	3604.4	
748.47	6548	
748.65	5131.5	
748.83	4217.5	
749.01	4019.5	
749.19	5494	
749.37	4818.9	
749.55	3926.6	
749.73	4023.6	
749.91	5326.8	
750.09	5011.4	
750.26	3954.6	
750.44	3535.5	
750.62	5256.5	
750.8	5166.3	
750.98	3473.4	
751.16	3682.2	
751.34	5328.1	
751.52	4772.4	
751.7	4268.6	
751.88	3424.9	
752.06	5751.4	
752.24	5395.7	
752.42	3381.9	
752.59	3684.3	
752.77	5201.2	
752.95	6194.4	
753.13	4218.8	
753.31	3807.2	
753.49	4937.7	
753.67	5274.2	
753.85	4004.5	
754.03	3670.6	
754.21	5516.5	
754.38	5845.6	
754.56	3877.5	
754.74	3084.2	
754.92	4977.2	
755.1	5473.5	
755.28	3193.5	
755.46	3166.2	
755.64	6230.6	
755.82	6308.4	
755.99	3491.8	
756.17	3530.7	
756.35	4358.8	
756.53	5591	
756.71	2691.7	
756.89	3405.1	
757.07	5251	
757.25	4548.5	
757.42	3844	
757.6	4511.7	
757.78	5293.3	
757.96	4491.9	
758.14	3575.8	
758.32	3195.5	
758.5	4098	
758.67	4829.8	
758.85	3470.6	
759.03	3545.7	
759.21	4969.7	
759.39	4549.2	
759.57	3104.7	
759.75	3992.2	
759.92	5442.1	
760.1	4975.9	
760.28	4231.1	
760.46	4379.9	
760.64	4703.5	
760.82	4548.5	
760.99	3936.9	
761.17	3543.7	
761.35	5335	
761.53	4556	
761.71	3588	
761.89	4104.8	
762.06	5243.5	
762.24	4827.1	
762.42	3662.5	
762.6	3387.3	
762.78	4848.9	
762.96	5314.5	
763.13	3946.4	
763.31	3691.8	
763.49	5337.7	
763.67	4812	
763.85	4317.1	
764.02	4754.7	
764.2	5631.9	
764.38	4913.8	
764.56	3573.7	
764.74	4216.8	
764.91	5712.5	
765.09	4823	
765.27	3357.3	
765.45	3189.4	
765.63	5802.6	
765.8	5637.4	
765.98	3037.8	
766.16	3194.1	
766.34	4514.4	
766.52	4346.5	
766.69	4014.7	
766.87	3144.3	
767.05	4835.9	
767.23	5388.9	
767.41	3384.6	
767.58	3581.9	
767.76	5393	
767.94	5379.3	
768.12	3459.7	
768.29	4014.7	
768.47	4898.1	
768.65	5480.4	
768.83	3164.1	
769	4042	
769.18	4620.9	
769.36	5106.3	
769.54	4053.6	
769.72	3180.5	
769.89	5430.5	
770.07	5452.4	
770.25	3528.7	
770.43	4487.1	
770.6	6033.3	
770.78	6270.9	
770.96	3627	
771.14	4111	
771.31	5365.7	
771.49	4822.3	
771.67	2979.1	
771.85	3128.6	
772.02	4274.1	
772.2	4744.5	
772.38	3705.5	
772.55	3378.5	
772.73	5115.1	
772.91	4891.9	
773.09	3647.4	
773.26	3689.1	
773.44	5036	
773.62	4767.7	
773.8	3295.9	
773.97	3080.8	
774.15	5063.3	
774.33	4826.4	
774.5	3172.3	
774.68	3477.5	
774.86	5209.3	
775.04	4838	
775.21	3269.9	
775.39	3241.9	
775.57	5064.6	
775.74	5269.4	
775.92	3155.9	
776.1	3054.9	
776.27	4962.9	
776.45	5942.5	
776.63	3318.4	
776.81	2951.8	
776.98	4709.6	
777.16	5594.4	
777.34	3396.2	
777.51	3659	
777.69	4691.2	
777.87	4518.5	
778.04	3465.8	
778.22	3894.6	
778.4	4629.1	
778.57	5110.4	
778.75	2914.9	
778.93	3104	
779.1	4468.7	
779.28	4319.2	
779.46	2876	
779.64	3236.5	
779.81	5259.9	
779.99	5855.1	
780.17	3892.5	
780.34	3953.9	
780.52	4826.4	
780.69	4937	
780.87	3512.3	
781.05	3233.1	
781.22	4849.6	
781.4	4935.6	
781.58	3321.1	
781.75	2686.3	
781.93	4913.1	
782.11	4410.6	
782.28	4001	
782.46	3294.5	
782.64	4293.9	
782.81	5056.4	
782.99	3450.8	
783.17	3318.4	
783.34	4956.8	
783.52	4422.9	
783.69	3546.4	
783.87	4186	
784.05	4455	
784.22	4420.2	
784.4	4055	
784.58	3556.6	
784.75	5236.7	
784.93	4459.1	
785.1	3336.8	
785.28	3826.3	
785.46	4997.7	
785.63	4394.9	
785.81	3307.5	
785.99	3210.5	
786.16	4631.1	
786.34	4906.9	
786.51	3216.7	
786.69	3534.8	
786.87	4174.4	
787.04	4668.7	
787.22	3102	
787.39	3843.4	
787.57	4429.1	
787.75	5343.8	
787.92	4011.3	
788.1	3944.4	
788.27	4453.6	
788.45	4207.2	
788.63	3711.6	
788.8	2747	
788.98	4969.7	
789.15	4160.8	
789.33	2833.7	
789.5	3362.8	
789.68	5219.6	
789.86	5241.4	
790.03	3666.5	
790.21	3218.7	
790.38	5169.8	
790.56	4575.8	
790.73	3136.8	
790.91	3124.5	
791.09	4457.1	
791.26	5033.9	
791.44	3353.9	
791.61	2937.5	
791.79	4470	
791.96	4459.8	
792.14	2998.9	
792.32	2643.9	
792.49	4470.7	
792.67	4592.9	
792.84	3082.2	
793.02	2876.7	
793.19	4855.1	
793.37	5389.6	
793.54	2669.9	
793.72	2978.4	
793.89	5388.2	
794.07	4414.1	
794.25	3491.1	
794.42	2796.8	
794.6	5269.4	
794.77	4980	
794.95	3596.2	
795.12	3162.1	
795.3	4457.1	
795.47	4945.2	
795.65	3550.5	
795.82	3404.4	
796	4305.5	
796.17	5758.9	
796.35	3292.5	
796.52	3853.6	
796.7	4902.2	
796.87	5020.9	
797.05	3258.3	
797.22	3904.1	
797.4	4954	
797.57	5740.5	
797.75	3407.8	
797.92	3186	
798.1	5240.8	
798.27	4391.5	
798.45	2820.7	
798.62	2950.4	
798.8	4762.2	
798.97	5080.3	
799.15	3547.8	
799.32	3317	
799.5	4168.3	
799.67	4701.5	
799.85	3663.1	
800.02	2718.3	
800.2	4520.5	
800.37	4651.6	
800.55	3820.8	
800.72	3178.4	
800.9	5063.3	
801.07	5358.9	
801.25	4244.8	
801.42	3543	
801.6	5150.6	
801.77	4778.6	
801.95	3321.1	
802.12	3135.4	
802.29	4879.6	
802.47	4867.3	
802.64	3462.4	
802.82	2676	
802.99	4425	
803.17	5193.6	
803.34	3388.7	
803.52	3123.2	
803.69	5684.5	
803.87	4272.7	
804.04	3363.4	
804.21	3448.8	
804.39	5344.5	
804.56	4579.3	
804.74	2958.6	
804.91	3521.8	
805.09	4491.9	
805.26	4498.7	
805.44	2978.4	
805.61	3267.2	
805.78	5051	
805.96	4970.4	
806.13	3523.9	
806.31	3765.5	
806.48	4112.3	
806.66	4536.3	
806.83	3553.2	
807	3458.3	
807.18	4465.3	
807.35	4753.3	
807.53	3413.3	
807.7	2800.3	
807.87	5384.1	
808.05	4479.6	
808.22	3700	
808.4	2789.3	
808.57	4493.9	
808.74	4254.3	
808.92	3140.2	
809.09	3981.9	
809.27	4457.1	
809.44	4819.6	
809.61	2816.6	
809.79	3045.3	
809.96	5475.6	
810.14	5009.3	
810.31	2753.8	
810.48	3309.5	
810.66	4532.2	
810.83	5124.7	
811.01	3153.9	
811.18	3484.3	
811.35	5074.2	
811.53	3983.3	
811.7	3760.8	
811.87	3487.7	
812.05	4539.7	
812.22	4455.7	
812.39	3065.8	
812.57	2985.9	
812.74	4598.4	
812.92	5779.4	
813.09	3354.6	
813.26	3517.7	
813.44	5560.2	
813.61	4435.2	
813.78	2806.4	
813.96	3625.6	
814.13	4532.2	
814.3	4249.5	
814.48	3964.2	
814.65	3312.2	
814.82	5348.6	
815	4271.4	
815.17	3350.5	
815.34	4028.4	
815.52	4431.1	
815.69	4382.7	
815.87	3308.8	
816.04	3280.8	
816.21	4617.5	
816.38	4048.8	
816.56	3218	
816.73	3072	
816.9	5605.3	
817.08	5033.9	
817.25	3136.8	
817.42	3815.4	
817.6	4180.6	
817.77	4485.7	
817.94	3448.8	
818.12	3034.4	
818.29	4289.1	
818.46	6286.6	
818.64	3183.9	
818.81	2968.2	
818.98	4274.1	
819.16	5952.8	
819.33	3564.1	
819.5	3332	
819.67	4851.6	
819.85	5286.5	
820.02	3316.3	
820.19	3575.1	
820.37	4691.9	
820.54	4405.2	
820.71	3433.1	
820.88	4169.7	
821.06	4709.6	
821.23	4293.2	
821.4	3456.3	
821.58	3394.8	
821.75	5006.6	
821.92	4582.7	
822.09	2845.3	
822.27	2875.3	
822.44	4515.8	
822.61	4444.8	
822.79	2837.8	
822.96	5260.5	
823.13	4848.2	
823.3	4261.1	
823.48	3226.9	
823.65	2947	
823.82	5107	
823.99	4190.1	
824.17	4087.7	
824.34	2989.4	
824.51	5760.9	
824.68	4586.1	
824.86	3124.5	
825.03	3434.4	
825.2	4554	
825.37	5287.2	
825.55	3050.8	
825.72	3349.8	
825.89	5737.7	
826.06	5412.8	
826.24	3333.4	
826.41	3295.9	
826.58	5450.3	
826.75	4734.2	
826.92	2711.5	
827.1	2900.6	
827.27	7037.5	
827.44	5687.9	
827.61	3148.4	
827.79	3720.5	
827.96	4362.9	
828.13	4500.8	
828.3	3273.3	
828.47	2740.2	
828.65	4804.5	
828.82	4709.6	
828.99	4139.6	
829.16	3554.6	
829.34	5091.3	
829.51	4879.6	
829.68	3325.9	
829.85	3452.2	
830.02	5333.6	
830.2	5087.2	
830.37	2725.8	
830.54	4018.8	
830.71	5591	
830.88	4547.9	
831.05	2669.9	
831.23	3046	
831.4	5467.4	
831.57	5997.1	
831.74	3142.3	
831.91	2815.3	
832.09	4827.1	
832.26	5023	
832.43	3212.6	
832.6	3562.8	
832.77	4713.7	
832.94	5298.1	
833.12	2643.9	
833.29	3186.6	
833.46	4421.6	
833.63	6132.3	
833.8	3506.8	
833.97	3215.3	
834.15	5106.3	
834.32	4838	
834.49	3355.9	
834.66	3438.5	
834.83	5170.4	
835	4395.6	
835.17	3097.9	
835.35	3110.9	
835.52	4954	
835.69	4917.2	
835.86	3306.8	
836.03	2769.5	
836.2	5058.5	
836.37	4737.6	
836.55	3190.1	
836.72	3004.4	
836.89	4666	
837.06	5111	
837.23	3308.2	
837.4	3558	
837.57	5674.2	
837.75	6191.7	
837.92	3013.9	
838.09	3160	
838.26	4701.5	
838.43	5250.3	
838.6	3405.1	
838.77	3020.1	
838.94	5847	
839.11	5758.9	
839.29	3284.3	
839.46	2648	
839.63	5051.7	
839.8	4770.4	
839.97	3163.4	
840.14	3112.2	
840.31	4891.9	
840.48	5066	
840.65	2686.3	
840.82	3068.5	
841	5063.3	
841.17	4912.4	
841.34	2897.9	
841.51	2992.8	
841.68	4914.4	
841.85	4756.1	
842.02	3034.4	
842.19	2560.6	
842.36	4846.9	
842.53	4871.4	
842.7	2915.6	
842.87	3433.8	
843.05	6103.6	
843.22	4678.9	
843.39	2811.2	
843.56	3004.4	
843.73	4654.4	
843.9	5093.3	
844.07	4545.1	
844.24	3824.9	
844.41	6907.8	
844.58	4450.2	
844.75	2806.4	
844.92	3069.9	
845.09	4960.2	
845.26	4988.9	
845.43	2902	
845.6	3073.3	
845.77	5065.3	
845.94	4801.8	
846.12	3206.4	
846.29	3350.5	
846.46	5232.6	
846.63	4966.3	
846.8	2906.8	
846.97	3424.9	
847.14	5368.4	
847.31	5016.2	
847.48	3219.4	
847.65	3549.8	
847.82	5189.6	
847.99	5159.5	
848.16	3812.6	
848.33	3491.8	
848.5	4628.4	
848.67	5312.4	
848.84	2868.5	
849.01	2993.4	
849.18	4554.7	
849.35	4330.8	
849.52	3502	
849.69	2831	
849.86	5198.4	
850.03	5300.8	
850.2	2925.2	
850.37	3469.3	
850.54	5261.9	
850.71	4758.8	
850.88	3463.8	
851.05	2828.9	
851.22	4949.3	
851.39	5383.4	
851.56	2767.5	
851.73	3211.2	
851.9	4457.7	
852.07	5193	
852.24	3164.1	
852.41	2840.5	
852.58	4892.6	
852.75	4592.2	
852.92	3237.8	
853.09	2894.5	
853.26	4693.9	
853.43	5416.2	
853.6	2917	
853.77	2493.7	
853.94	5371.1	
854.11	4461.2	
854.28	4200.4	
854.44	3132.7	
854.61	5815.5	
854.78	5257.1	
854.95	2899.2	
855.12	3577.8	
855.29	4174.4	
855.46	5591.6	
855.63	2909.5	
855.8	3894.6	
855.97	4683	
856.14	5298.8	
856.31	3950.5	
856.48	3155.2	
856.65	4677.6	
856.82	4412	
856.99	2870.6	
857.16	3110.9	
857.33	5927.5	
857.49	4715.1	
857.66	3110.9	
857.83	3325.9	
858	4769	
858.17	4912.4	
858.34	2756.6	
858.51	2916.3	
858.68	5565	
858.85	5541.8	
859.02	3344.3	
859.19	3545.7	
859.36	4485.7	
859.52	4451.6	
859.69	2884.9	
859.86	3408.5	
860.03	4511	
860.2	5434.6	
860.37	2637.1	
860.54	2918.4	
860.71	5223	
860.88	5465.3	
861.05	3231	
861.21	3640.6	
861.38	5425.1	
861.55	4380.6	
861.72	2675.3	
861.89	3218	
862.06	5204.6	
862.23	5546.6	
862.4	2850.1	
862.56	2999.6	
862.73	5073.5	
862.9	4823.6	
863.07	3360.7	
863.24	2658.9	
863.41	4389.5	
863.58	4459.8	
863.75	2945	
863.91	3326.6	
864.08	5365	
864.25	5121.3	
864.42	3543	
864.59	3999	
864.76	5607.3	
864.93	4500.8	
865.09	2828.2	
865.26	3024.8	
865.43	5374.6	
865.6	5715.2	
865.77	2574.3	
865.94	2870.6	
866.1	5335	
866.27	5117.2	
866.44	4161.5	
866.61	2800.3	
866.78	4807.3	
866.95	5129.5	
867.11	2834.4	
867.28	2575	
867.45	5279	
867.62	4513.7	
867.79	3251.5	
867.96	2881.5	
868.12	4451.6	
868.29	5175.2	
868.46	2912.2	
868.63	3742.3	
868.8	5328.1	
868.97	5117.9	
869.13	3007.1	
869.3	2970.2	
869.47	5027.1	
869.64	5272.8	
869.81	2867.2	
869.97	2929.3	
870.14	4943.1	
870.31	5464	
870.48	2846	
870.65	3588.7	
870.81	4748.6	
870.98	4702.8	
871.15	3241.3	
871.32	2994.8	
871.48	5015.5	
871.65	5569.1	
871.82	2846	
871.99	3163.4	
872.16	5899.5	
872.32	5378.6	
872.49	2951.8	
872.66	2925.9	
872.83	5216.2	
872.99	4648.2	
873.16	3236.5	
873.33	2852.8	
873.5	4827.1	
873.67	4895.3	
873.83	3080.1	
874	3765.5	
874.17	5029.1	
874.34	5799.2	
874.5	3658.4	
874.67	3578.5	
874.84	5394.3	
875.01	4390.2	
875.17	3966.9	
875.34	2884.9	
875.51	4961.5	
875.68	5864.7	
875.84	3532.1	
876.01	4114.4	
876.18	5107.6	
876.34	5073.5	
876.51	2880.8	
876.68	2841.9	
876.85	4793.6	
877.01	5332.2	
877.18	4029.7	
877.35	2841.2	
877.52	4949.3	
877.68	4422.9	
877.85	2824.8	
878.02	2828.2	
878.18	4711.7	
878.35	4626.4	
878.52	2374.3	
878.69	3183.2	
878.85	5261.9	
879.02	5142.4	
879.19	3986.7	
879.35	3111.5	
879.52	5154.1	
879.69	5294	
879.86	2577	
880.02	3190.7	
880.19	4829.1	
880.36	5773.2	
880.52	3253.5	
880.69	3398.3	
880.86	5226.4	
881.02	5284.4	
881.19	3145	
881.36	3114.3	
881.52	5080.3	
881.69	4581.3	
881.86	3106.8	
882.02	3041.9	
882.19	5358.2	
882.36	6172.6	
882.52	2950.4	
882.69	3959.4	
882.86	4971.8	
883.02	4902.2	
883.19	3462.4	
883.36	3252.9	
883.52	5207.3	
883.69	5840.1	
883.86	2934.1	
884.02	2666.5	
884.19	5150	
884.36	4861.2	
884.52	3222.1	
884.69	3048.7	
884.86	4676.9	
885.02	5619.6	
885.19	3202.3	
885.36	3335.5	
885.52	4805.9	
885.69	4984.8	
885.86	4090.5	
886.02	3671.3	
886.19	5208.7	
886.35	4713.1	
886.52	3147.7	
886.69	3988.8	
886.85	4440.7	
887.02	5417.6	
887.19	5417.6	
887.35	5417.6	
887.52	5417.6	
887.68	5417.6	
887.85	5417.6	
888.02	5417.6	
888.18	5417.6	
888.35	5417.6	
888.51	5417.6	
888.68	5417.6	
888.85	5417.6	
889.01	5417.6	
889.18	5417.6	
889.35	5417.6	
889.51	5417.6	
889.68	5417.6	
889.84	5417.6	
890.01	5417.6	
890.17	5417.6	
890.34	5417.6	
890.51	5417.6	
890.67	5417.6	
890.84	5417.6	
891	5417.6	
891.17	5417.6	
891.34	5417.6	
891.5	5417.6	
891.67	5417.6	
891.83	5417.6	
892	5417.6	
892.16	5417.6	
892.33	5417.6	
892.5	5417.6	
892.66	5417.6	
892.83	5417.6	
892.99	5417.6	
893.16	5417.6	
893.32	5417.6	
893.49	5417.6	
893.65	5417.6	
893.82	5417.6	
893.99	5417.6	
894.15	5417.6	
894.32	5417.6	
894.48	5417.6	
894.65	5417.6	
894.81	5417.6	
894.98	5417.6	
895.14	5417.6	
895.31	5417.6	
895.47	5417.6	
895.64	5417.6	
895.81	5417.6	
895.97	5417.6	
896.14	5417.6	
896.3	5417.6	
896.47	5417.6	
896.63	5417.6	
896.8	5417.6	
896.96	5417.6	
897.13	5417.6	
897.29	5417.6	
897.46	5417.6	
897.62	5417.6	
897.79	5417.6	
897.95	5417.6	
898.12	5417.6	
898.28	5417.6	
898.45	5417.6	
898.61	5417.6	
898.78	5417.6	
898.94	5417.6	
899.11	5417.6	
899.27	5417.6	
899.44	5417.6	
899.6	5417.6	
899.77	5417.6	
899.93	5417.6	
900.1	5417.6	
900.26	5417.6	
900.43	5417.6	
900.59	5417.6	
900.76	5417.6	
900.92	5417.6	
901.09	5417.6	
901.25	5417.6	
901.42	5417.6	
901.58	5417.6	
901.75	5417.6	
901.91	5417.6	
902.07	5417.6	
902.24	5417.6	
902.4	5417.6	
902.57	5417.6	
902.73	5417.6	
902.9	5417.6	
903.06	5417.6	
903.23	5417.6	
903.39	5417.6	
903.56	5417.6	
903.72	5417.6	
903.88	5417.6	
904.05	5417.6	
904.21	5417.6	
904.38	5417.6	
904.54	5417.6	
904.71	5417.6	
904.87	5417.6	
905.03	5417.6	
905.2	5417.6	
905.36	5417.6	
905.53	5417.6	
905.69	5417.6	
905.86	5417.6	
906.02	5417.6	
906.18	5417.6	
906.35	5417.6	
906.51	5417.6	
906.68	5417.6	
906.84	5417.6	
907.01	5417.6	
907.17	5417.6	
907.33	5417.6	
907.5	5417.6	
907.66	5417.6	
907.83	5417.6	
907.99	5417.6	
908.15	5417.6	
908.32	5417.6	
908.48	5417.6	
908.65	5417.6	
908.81	5417.6	
908.97	5417.6	
909.14	5417.6	
909.3	5417.6	
909.47	5417.6	
909.63	5417.6	
909.79	5417.6	
909.96	5417.6	
910.12	5417.6	
910.28	5417.6	
910.45	5417.6	
910.61	5417.6	
910.78	5417.6	
910.94	5417.6	
911.1	5417.6	
911.27	5417.6	
911.43	5417.6	
911.59	5417.6	
911.76	5417.6	
911.92	5417.6	
912.08	5417.6	
912.25	5417.6	
912.41	5417.6	
912.57	5417.6	
912.74	5417.6	
912.9	5417.6	
913.07	5417.6	
913.23	5417.6	
913.39	5417.6	
913.56	5417.6	
913.72	5417.6	
913.88	5417.6	
914.05	5417.6	
914.21	5417.6	
914.37	5417.6	
914.54	5417.6	
914.7	5417.6	
914.86	5417.6	
915.03	5417.6	
915.19	5417.6	
