Wavelength	Intensities	
nm	a.u.	
179.22	1714.5	
179.44	1720.3	
179.65	1708.7	
179.86	1731.9	
180.08	1691.6	
180.29	4072	
180.51	3001	
180.72	5056.4	
180.94	5677	
181.15	2750.4	
181.37	2773.6	
181.58	4853.7	
181.79	5126.7	
182.01	2896.5	
182.22	3042.6	
182.44	5136.3	
182.65	4381.3	
182.87	3751.9	
183.08	3349.1	
183.29	5386.2	
183.51	4528.7	
183.72	3082.2	
183.94	4290.5	
184.15	4800.4	
184.37	4734.9	
184.58	2757.2	
184.79	3618.1	
185.01	4549.2	
185.22	5139.7	
185.44	3762.1	
185.65	3267.2	
185.86	4790.2	
186.08	4451.6	
186.29	2726.5	
186.51	2825.5	
186.72	4564.2	
186.94	5183.4	
187.15	3305.4	
187.36	3358.7	
187.58	6559.6	
187.79	4883.7	
188.01	3420.1	
188.22	5161.6	
188.43	5690.6	
188.65	5024.3	
188.86	2911.5	
189.08	3340.2	
189.29	4663.2	
189.5	4620.9	
189.72	3115.6	
189.93	3175	
190.15	5204.6	
190.36	6078.4	
190.57	3409.9	
190.79	3244	
191	5210.7	
191.22	5214.8	
191.43	3428.3	
191.64	2876	
191.86	5446.2	
192.07	5241.4	
192.29	2965.5	
192.5	3113.6	
192.71	5241.4	
192.93	4628.4	
193.14	3084.2	
193.35	3179.1	
193.57	4636.6	
193.78	5221.6	
194	2558.6	
194.21	3045.3	
194.42	4455	
194.64	4811.4	
194.85	3328.6	
195.07	3855.6	
195.28	4754.7	
195.49	4273.4	
195.71	4001	
195.92	2864.4	
196.13	4961.5	
196.35	5023	
196.56	4297.3	
196.78	3322.5	
196.99	6067.4	
197.2	5665.4	
197.42	3687	
197.63	3330	
197.84	4414.1	
198.06	4980	
198.27	3121.1	
198.48	4010.6	
198.7	4622.3	
198.91	4804.5	
199.13	3377.1	
199.34	3380.5	
199.55	5237.3	
199.77	4229.7	
199.98	3024.2	
200.19	3414.6	
200.41	4727.4	
200.62	4529.4	
200.83	3463.1	
201.05	3741	
201.26	4752.7	
201.47	4569.7	
201.69	3020.8	
201.9	2938.2	
202.11	4827.1	
202.33	5586.2	
202.54	3250.1	
202.76	3560.7	
202.97	4891.9	
203.18	4919.2	
203.4	3448.1	
203.61	3521.8	
203.82	4883	
204.04	4597	
204.25	3377.8	
204.46	3272.7	
204.68	4827.1	
204.89	4969.1	
205.1	3348.4	
205.32	2897.9	
205.53	5097.4	
205.74	5230.5	
205.96	2494.4	
206.17	3428.3	
206.38	5132.2	
206.6	5199.1	
206.81	3850.2	
207.02	3078.1	
207.24	5018.2	
207.45	5269.4	
207.66	3266.5	
207.88	2830.3	
208.09	4973.2	
208.3	4788.2	
208.52	2995.5	
208.73	3284.9	
208.94	4791.6	
209.15	5327.4	
209.37	3198.2	
209.58	3617.4	
209.79	5206.6	
210.01	4678.2	
210.22	2695.1	
210.43	2724.5	
210.65	4768.4	
210.86	5093.3	
211.07	3210.5	
211.29	2981.2	
211.5	5010.7	
211.71	4708.3	
211.93	3013.2	
212.14	2954.5	
212.35	4757.4	
212.56	4881.7	
212.78	3349.8	
212.99	2808.4	
213.2	5526.1	
213.42	4610.7	
213.63	3069.2	
213.84	3243.3	
214.06	4352.6	
214.27	4427.7	
214.48	3193.5	
214.69	3454.9	
214.91	5304.9	
215.12	5305.6	
215.33	3377.8	
215.55	3675.4	
215.76	5724.1	
215.97	5044.8	
216.18	3292.5	
216.4	3278.8	
216.61	4534.2	
216.82	5142.4	
217.04	3047.4	
217.25	3105.4	
217.46	5296	
217.67	5108.3	
217.89	2724.5	
218.1	2792.7	
218.31	4862.6	
218.53	5017.5	
218.74	3163.4	
218.95	3056.3	
219.16	4816.1	
219.38	5521.3	
219.59	3010.5	
219.8	3556.6	
220.01	5956.2	
220.23	4866	
220.44	3836.5	
220.65	2916.3	
220.87	4848.2	
221.08	5286.5	
221.29	2845.3	
221.5	3586	
221.72	6239.5	
221.93	4540.3	
222.14	3377.8	
222.35	3936.2	
222.57	4773.8	
222.78	5107	
222.99	3277.4	
223.2	3436.5	
223.42	5026.4	
223.63	5089.9	
223.84	2540.2	
224.05	2553.8	
224.27	5895.4	
224.48	5482.4	
224.69	3923.2	
224.9	3383.2	
225.12	4956.8	
225.33	4755.4	
225.54	2778.4	
225.75	3019.4	
225.97	4521.2	
226.18	4684.4	
226.39	3215.3	
226.6	3061.7	
226.82	4620.2	
227.03	4507.6	
227.24	3394.8	
227.45	2871.3	
227.67	5145.9	
227.88	5501.5	
228.09	3775.1	
228.3	3713	
228.52	5109.7	
228.73	4754.7	
228.94	3145.7	
229.15	2840.5	
229.36	4766.3	
229.58	4753.3	
229.79	3192.1	
230	3593.5	
230.21	5601.9	
230.43	4819.6	
230.64	3323.9	
230.85	3497.9	
231.06	5190.9	
231.28	5173.9	
231.49	2861	
231.7	3278.1	
231.91	5054.4	
232.12	4786.1	
232.34	2971.6	
232.55	3293.1	
232.76	5332.9	
232.97	4935.6	
233.18	3003	
233.4	3331.4	
233.61	4928.8	
233.82	4565.6	
234.03	3163.4	
234.25	3048.7	
234.46	6391	
234.67	4910.3	
234.88	3424.2	
235.09	3059	
235.31	5030.5	
235.52	4736.3	
235.73	3358.7	
235.94	2874	
236.15	4622.9	
236.37	5672.2	
236.58	2964.8	
236.79	3287.7	
237	5035.3	
237.21	4391.5	
237.43	3469.3	
237.64	2791.4	
237.85	7921.5	
238.06	4479.6	
238.27	3470.6	
238.48	2863.1	
238.7	5098.8	
238.91	4733.5	
239.12	3216.7	
239.33	3309.5	
239.54	4580.6	
239.76	4716.5	
239.97	3224.2	
240.18	3244	
240.39	5801.2	
240.6	4917.2	
240.82	3361.4	
241.03	2828.2	
241.24	4762.2	
241.45	5387.5	
241.66	2988.7	
241.87	3491.1	
242.09	5313.1	
242.3	5640.8	
242.51	3502	
242.72	3254.2	
242.93	5186.8	
243.14	4771.8	
243.36	3741.6	
243.57	3934.1	
243.78	5404.6	
243.99	4965	
244.2	3255.6	
244.41	2994.1	
244.63	4465.3	
244.84	5040.7	
245.05	3460.4	
245.26	3246.7	
245.47	5051.7	
245.68	5134.3	
245.9	4147.8	
246.11	3425.6	
246.32	4655	
246.53	4997	
246.74	5046.2	
246.95	2762.7	
247.16	4499.4	
247.38	4753.3	
247.59	2743.6	
247.8	3294.5	
248.01	4554.7	
248.22	4796.3	
248.43	2950.4	
248.64	3223.5	
248.86	4384.7	
249.07	4660.5	
249.28	2945.7	
249.49	3306.1	
249.7	5158.8	
249.91	5295.4	
250.12	2792.7	
250.34	2882.2	
250.55	4878.3	
250.76	4827.7	
250.97	3309.5	
251.18	3358.7	
251.39	5346.6	
251.6	4904.2	
251.81	3342.3	
252.03	3381.9	
252.24	4620.9	
252.45	5150	
252.66	2889	
252.87	3523.9	
253.08	4861.2	
253.29	6022.4	
253.5	2911.5	
253.72	3874.1	
253.93	4697.4	
254.14	5561.6	
254.35	3130	
254.56	3218.7	
254.77	4973.8	
254.98	4481	
255.19	3097.2	
255.41	3848.8	
255.62	4933.6	
255.83	5226.4	
256.04	3465.8	
256.25	3345	
256.46	5729.5	
256.67	4600.4	
256.88	3388.7	
257.09	3684.3	
257.31	4496.7	
257.52	4575.8	
257.73	4108.9	
257.94	3120.4	
258.15	4754.7	
258.36	4794.3	
258.57	3827.7	
258.78	2532	
258.99	5141.1	
259.2	4666	
259.41	3117	
259.63	3216.7	
259.84	5446.2	
260.05	5708.4	
260.26	3958.7	
260.47	3039.9	
260.68	5248.9	
260.89	4732.9	
261.1	3663.8	
261.31	3027.6	
261.52	5276.9	
261.73	5511.8	
261.95	3895.9	
262.16	3476.8	
262.37	5337	
262.58	5427.1	
262.79	3869.3	
263	3151.8	
263.21	4808.6	
263.42	4666	
263.63	3404.4	
263.84	3172.3	
264.05	5209.3	
264.26	5480.4	
264.47	3779.9	
264.69	3317	
264.9	5472.9	
265.11	4920.6	
265.32	3001	
265.53	3103.4	
265.74	4894	
265.95	4327.4	
266.16	3319.1	
266.37	3536.8	
266.58	4970.4	
266.79	4662.5	
267	3086.3	
267.21	2937.5	
267.42	4435.9	
267.63	4814.8	
267.84	3238.5	
268.06	2884.2	
268.27	5169.8	
268.48	5287.9	
268.69	3177.8	
268.9	3668.6	
269.11	5304.2	
269.32	4382	
269.53	3274	
269.74	3052.2	
269.95	5013.4	
270.16	4360.1	
270.37	3282.2	
270.58	3688.4	
270.79	4726	
271	5217.5	
271.21	3422.2	
271.42	3253.5	
271.63	4985.4	
271.84	4480.3	
272.05	2655.5	
272.26	2964.8	
272.47	4829.8	
272.68	4956.8	
272.89	3132.7	
273.11	3564.8	
273.32	4642.7	
273.53	5498.8	
273.74	3488.4	
273.95	3428.3	
274.16	5189.6	
274.37	4823	
274.58	3569.6	
274.79	2859.6	
275	4952.7	
275.21	5280.3	
275.42	4222.2	
275.63	3614.7	
275.84	5048.9	
276.05	6144.6	
276.26	3415.3	
276.47	3207.8	
276.68	4747.2	
276.89	5556.8	
277.1	3640.6	
277.31	2878.8	
277.52	5027.1	
277.73	5264	
277.94	2891	
278.15	3130	
278.36	4947.2	
278.57	4568.3	
278.78	3125.9	
278.99	3463.1	
279.2	4638.6	
279.41	4513.7	
279.62	4022.9	
279.83	2955.9	
280.04	5674.2	
280.25	4438.6	
280.46	3958	
280.67	3293.1	
280.88	4571.1	
281.09	5322	
281.3	3431	
281.51	4172.4	
281.72	4558.1	
281.93	5192.3	
282.14	3067.2	
282.35	3264.5	
282.56	5187.5	
282.77	5167.7	
282.98	3151.8	
283.19	3753.2	
283.4	6216.3	
283.61	4744.5	
283.82	2937.5	
284.03	3906.8	
284.24	4971.1	
284.45	5240.8	
284.66	3985.3	
284.87	3805.8	
285.08	5296.7	
285.29	5414.1	
285.5	2808.4	
285.71	3192.8	
285.92	5261.2	
286.12	5785.5	
286.33	3891.1	
286.54	3217.4	
286.75	5178.6	
286.96	4716.5	
287.17	2942.9	
287.38	3803.8	
287.59	4512.4	
287.8	4516.5	
288.01	3168.2	
288.22	3534.8	
288.43	5112.4	
288.64	4377.2	
288.85	3748.5	
289.06	3586	
289.27	5161.6	
289.48	5438.7	
289.69	3964.9	
289.9	3601	
290.11	5397.8	
290.32	4627.7	
290.53	3735.5	
290.74	3437.9	
290.94	5169.1	
291.15	5268.7	
291.36	3067.9	
291.57	3596.9	
291.78	4682.3	
291.99	4325.3	
292.2	3002.3	
292.41	3486.3	
292.62	5216.9	
292.83	5100.1	
293.04	4197	
293.25	2971.6	
293.46	4682.3	
293.67	5205.3	
293.88	3069.2	
294.09	2963.4	
294.29	4551.3	
294.5	4896.7	
294.71	3282.9	
294.92	3105.4	
295.13	4661.2	
295.34	5668.8	
295.55	2788.7	
295.76	2772.9	
295.97	5082.4	
296.18	5624.4	
296.39	2917	
296.6	3046.7	
296.81	4889.2	
297.01	5112.4	
297.22	3129.3	
297.43	3082.2	
297.64	4632.5	
297.85	4505.5	
298.06	2594.8	
298.27	2818	
298.48	4868.7	
298.69	4618.2	
298.9	3334.8	
299.11	3018.7	
299.31	4434.5	
299.52	4472.1	
299.73	3511.6	
299.94	3480.9	
300.15	4827.7	
300.36	4590.2	
300.57	3446	
300.78	3377.8	
300.99	4734.9	
301.2	4941.1	
301.4	3087.7	
301.61	3297.9	
301.82	5089.2	
302.03	5148.6	
302.24	3657.7	
302.45	2925.9	
302.66	5056.4	
302.87	5325.4	
303.08	3044	
303.29	4019.5	
303.49	4688.5	
303.7	4761.5	
303.91	2807.8	
304.12	3941	
304.33	4398.4	
304.54	4920.6	
304.75	3158	
304.96	2952.5	
305.16	5079.6	
305.37	5648.3	
305.58	2717.7	
305.79	2839.2	
306	5074.9	
306.21	4385.4	
306.42	3049.4	
306.63	4499.4	
306.83	4738.3	
307.04	5163.6	
307.25	3330.7	
307.46	3256.3	
307.67	4263.2	
307.88	5119.2	
308.09	3038.5	
308.29	3115.6	
308.5	4863.9	
308.71	5231.2	
308.92	3274	
309.13	2951.8	
309.34	4762.2	
309.55	4757.4	
309.75	3784	
309.96	3465.2	
310.17	5116.5	
310.38	4586.8	
310.59	3593.5	
310.8	2877.4	
311.01	5367	
311.21	4754.7	
311.42	2979.1	
311.63	3013.2	
311.84	4655.7	
312.05	4859.8	
312.26	3409.9	
312.46	3664.5	
312.67	4733.5	
312.88	4455	
313.09	3009.1	
313.3	2910.2	
313.51	5382.7	
313.71	5696.1	
313.92	2971.6	
314.13	3108.8	
314.34	4975.2	
314.55	4729.4	
314.76	3751.9	
314.96	3289.7	
315.17	4896	
315.38	5197.7	
315.59	3014.6	
315.8	2864.4	
316.01	5402.5	
316.21	5496.7	
316.42	2922.5	
316.63	3325.9	
316.84	4741.7	
317.05	5332.9	
317.26	3456.3	
317.46	3138.2	
317.67	4771.8	
317.88	5099.4	
318.09	3725.3	
318.3	2827.6	
318.5	4662.5	
318.71	4983.4	
318.92	4598.4	
319.13	3454.2	
319.34	5170.4	
319.54	5367.7	
319.75	2825.5	
319.96	2688.3	
320.17	5066.7	
320.38	5250.3	
320.58	2755.2	
320.79	3231	
321	5244.8	
321.21	5397.8	
321.42	3258.3	
321.62	2781.1	
321.83	4552.6	
322.04	4775.2	
322.25	3175	
322.46	3029.6	
322.66	4929.5	
322.87	5040.1	
323.08	3599	
323.29	2910.2	
323.5	5639.4	
323.7	4460.5	
323.91	4003.1	
324.12	3592.1	
324.33	4886.5	
324.53	5074.2	
324.74	3441.3	
324.95	3561.4	
325.16	4429.8	
325.37	4682.3	
325.57	3068.5	
325.78	3025.5	
325.99	4987.5	
326.2	4430.4	
326.4	4089.1	
326.61	2826.9	
326.82	4737	
327.03	4893.3	
327.24	4074.8	
327.44	3794.9	
327.65	5059.8	
327.86	4184.7	
328.07	3493.8	
328.27	2927.9	
328.48	5326.1	
328.69	4423.6	
328.9	4116.4	
329.1	3125.2	
329.31	4757.4	
329.52	5393	
329.73	2938.2	
329.93	3292.5	
330.14	4835.9	
330.35	4962.9	
330.56	4717.2	
330.76	3580.5	
330.97	4731.5	
331.18	4881.7	
331.39	3300	
331.59	2730.6	
331.8	5241.4	
332.01	5384.8	
332.22	3105.4	
332.42	3434.4	
332.63	4946.5	
332.84	4566.3	
333.05	3349.8	
333.25	3050.8	
333.46	4622.9	
333.67	4820.9	
333.88	3129.3	
334.08	3379.1	
334.29	6144.6	
334.5	5231.9	
334.7	2923.8	
334.91	4111	
335.12	4438.6	
335.33	5127.4	
335.53	3264.5	
335.74	4651.6	
335.95	4721.3	
336.16	4532.2	
336.36	3263.8	
336.57	3713.6	
336.78	4432.5	
336.98	5212.8	
337.19	3990.8	
337.4	3220.8	
337.61	5709.7	
337.81	4449.6	
338.02	3052.8	
338.23	3837.2	
338.43	5433.3	
338.64	4549.9	
338.85	3006.4	
339.05	3843.4	
339.26	5455.1	
339.47	4356.7	
339.68	3003	
339.88	4232.5	
340.09	5050.3	
340.3	5212.1	
340.5	3411.2	
340.71	2725.2	
340.92	4449.6	
341.13	5339.1	
341.33	2951.1	
341.54	3427.6	
341.75	5022.3	
341.95	4654.4	
342.16	3320.4	
342.37	3589.4	
342.57	4515.8	
342.78	4683.7	
342.99	3628.3	
343.19	2727.9	
343.4	5149.3	
343.61	4944.5	
343.81	3178.4	
344.02	2951.1	
344.23	5174.5	
344.43	5406	
344.64	3614	
344.85	3566.2	
345.06	5113.8	
345.26	5270.1	
345.47	3510.9	
345.68	3920.5	
345.88	4393.6	
346.09	5175.2	
346.3	3431	
346.5	2707.4	
346.71	4743.1	
346.92	4567.7	
347.12	2873.3	
347.33	3403.7	
347.54	5259.9	
347.74	5489.2	
347.95	3433.1	
348.16	2614.6	
348.36	4663.2	
348.57	4493.9	
348.78	3422.2	
348.98	3583.9	
349.19	4798.4	
349.39	4390.8	
349.6	2810.5	
349.81	3053.5	
350.01	5044.8	
350.22	4620.9	
350.43	3334.1	
350.63	3885	
350.84	4798.4	
351.05	4607.9	
351.25	3018.7	
351.46	2772.3	
351.67	5198.4	
351.87	4530.8	
352.08	3210.5	
352.29	3614.7	
352.49	5089.9	
352.7	5188.2	
352.9	2892.4	
353.11	3576.4	
353.32	5590.3	
353.52	4663.9	
353.73	2927.2	
353.94	3601.7	
354.14	4999.1	
354.35	4784.7	
354.55	3031.7	
354.76	3294.5	
354.97	5049.6	
355.17	4758.8	
355.38	2905.4	
355.59	3774.4	
355.79	4599.1	
356	4803.2	
356.2	3303.4	
356.41	2910.8	
356.62	4355.3	
356.82	4784.1	
357.03	3507.5	
357.24	3138.2	
357.44	4555.4	
357.65	4670.7	
357.85	4098.7	
358.06	3336.8	
358.27	4362.2	
358.47	4517.8	
358.68	2879.4	
358.88	3459	
359.09	5045.5	
359.3	5244.8	
359.5	4030.4	
359.71	3635.8	
359.91	5596.4	
360.12	5024.3	
360.33	3469.3	
360.53	3786.7	
360.74	4565.6	
360.94	4608.6	
361.15	3683.6	
361.36	3097.9	
361.56	5139.7	
361.77	4789.5	
361.97	4024.3	
362.18	3265.1	
362.38	5178.6	
362.59	4476.9	
362.8	3019.4	
363	2898.6	
363.21	4343.7	
363.41	4842.1	
363.62	3371.6	
363.83	4090.5	
364.03	4973.8	
364.24	5588.9	
364.44	4280.3	
364.65	4166.3	
364.85	4747.9	
365.06	4504.8	
365.27	3141.6	
365.47	3173.7	
365.68	5505.6	
365.88	4721.3	
366.09	3451.5	
366.29	3186	
366.5	4911.7	
366.71	5212.1	
366.91	4156	
367.12	3652.2	
367.32	5660.6	
367.53	5150	
367.73	3566.9	
367.94	4269.3	
368.14	5141.1	
368.35	5720	
368.56	3520.5	
368.76	3032.4	
368.97	5210.7	
369.17	6378.1	
369.38	3188.7	
369.58	3394.2	
369.79	4414.1	
369.99	5457.2	
370.2	4106.9	
370.4	3457	
370.61	4953.4	
370.82	5873.6	
371.02	3449.5	
371.23	2841.2	
371.43	4431.8	
371.64	5477	
371.84	3370.3	
372.05	4244.8	
372.25	6315.3	
372.46	5106.3	
372.66	3437.9	
372.87	3330.7	
373.07	5140.4	
373.28	6383.5	
373.48	4097.3	
373.69	3870	
373.9	4817.5	
374.1	4896	
374.31	4106.9	
374.51	3715	
374.72	5448.3	
374.92	4536.3	
375.13	4216.1	
375.33	3580.5	
375.54	5085.8	
375.74	4652.3	
375.95	3666.5	
376.15	4550.6	
376.36	5212.8	
376.56	5016.2	
376.77	3664.5	
376.97	4007.2	
377.18	5953.4	
377.38	5194.3	
377.59	4171.7	
377.79	3341.6	
378	5080.3	
378.2	5266.7	
378.41	3410.6	
378.61	3293.1	
378.82	5421	
379.02	4758.1	
379.23	3477.5	
379.43	4338.3	
379.64	5477	
379.84	5147.2	
380.05	3394.2	
380.25	3295.9	
380.46	5230.5	
380.66	4921.3	
380.87	4382	
381.07	4625.7	
381.28	5732.3	
381.48	5204.6	
381.69	3430.3	
381.89	3458.3	
382.1	4451.6	
382.3	5288.5	
382.51	4256.4	
382.71	4914.4	
382.91	5238.7	
383.12	5627.8	
383.32	3659	
383.53	3799.7	
383.73	5109	
383.94	5028.4	
384.14	3799.7	
384.35	3178.4	
384.55	4885.1	
384.76	5252.4	
384.96	3738.2	
385.17	3904.8	
385.37	5225.1	
385.58	4638	
385.78	3911.6	
385.98	3130	
386.19	4887.1	
386.39	5177.3	
386.6	3461.1	
386.8	3645.4	
387.01	5270.1	
387.21	5336.3	
387.42	3921.2	
387.62	4390.8	
387.83	4809.3	
388.03	5100.8	
388.23	3746.4	
388.44	4269.3	
388.64	4542.4	
388.85	4573.8	
389.05	3917.1	
389.26	4371.7	
389.46	6059.3	
389.67	5586.2	
389.87	3904.8	
390.07	4008.6	
390.28	4953.4	
390.48	4665.3	
390.69	3392.1	
390.89	3644	
391.1	4846.9	
391.3	5469.4	
391.5	4508.9	
391.71	4962.2	
391.91	5367	
392.12	5982.1	
392.32	4557.4	
392.53	4012.7	
392.73	4897.4	
392.93	4961.5	
393.14	3726.6	
393.34	4339.6	
393.55	5452.4	
393.75	4961.5	
393.95	3776.5	
394.16	3693.9	
394.36	4885.1	
394.57	5384.8	
394.77	3319.8	
394.98	3622.9	
395.18	4824.3	
395.38	4965.6	
395.59	4316.4	
395.79	3544.4	
396	4928.8	
396.2	5263.3	
396.4	4116.4	
396.61	4042.7	
396.81	5425.1	
397.02	4842.1	
397.22	4342.4	
397.42	4399.7	
397.63	5513.1	
397.83	4827.1	
398.04	3491.1	
398.24	3895.2	
398.44	5283.8	
398.65	4532.2	
398.85	3407.8	
399.05	3487.7	
399.26	4891.9	
399.46	6045.6	
399.67	3794.9	
399.87	3586.7	
400.07	5127.4	
400.28	5357.5	
400.48	3608.5	
400.69	4405.2	
400.89	5574.6	
401.09	5829.9	
401.3	3578.5	
401.5	4379.9	
401.7	6023.8	
401.91	6186.2	
402.11	3869.3	
402.32	4021.5	
402.52	5634	
402.72	5528.8	
402.93	4232.5	
403.13	3359.4	
403.33	6130.9	
403.54	5139.7	
403.74	3969	
403.94	4588.1	
404.15	5241.4	
404.35	6116.6	
404.56	3779.9	
404.76	5108.3	
404.96	5474.2	
405.17	5312.4	
405.37	4659.8	
405.57	4148.5	
405.78	5547.3	
405.98	5127.4	
406.18	3777.8	
406.39	4488.5	
406.59	5544.5	
406.79	5177.9	
407	3607.8	
407.2	3711.6	
407.4	5717.2	
407.61	5692.7	
407.81	3717.7	
408.01	5139	
408.22	4713.7	
408.42	6174.6	
408.62	4514.4	
408.83	4094.6	
409.03	5254.4	
409.23	5128.1	
409.44	4134.2	
409.64	4290.5	
409.84	6001.9	
410.05	5913.9	
410.25	4256.4	
410.45	4121.9	
410.66	5571.2	
410.86	7402	
411.06	4460.5	
411.27	4371	
411.47	7184.3	
411.67	5679.7	
411.88	4528.7	
412.08	4722.6	
412.28	6121.4	
412.49	6526.2	
412.69	4384	
412.89	4346.5	
413.09	6419.7	
413.3	6287.9	
413.5	4524	
413.7	4231.1	
413.91	5753.4	
414.11	6358.3	
414.31	4341	
414.52	4700.8	
414.72	6202.6	
414.92	6083.8	
415.12	4347.8	
415.33	4840	
415.53	6370.5	
415.73	6566.5	
415.94	5050.3	
416.14	4590.9	
416.34	5711.8	
416.55	5546.6	
416.75	5559.6	
416.95	5101.5	
417.15	6393.8	
417.36	6953.5	
417.56	5660.6	
417.76	4995	
417.97	6752.2	
418.17	6423.1	
418.37	4663.9	
418.57	4656.4	
418.78	6324.1	
418.98	6029.2	
419.18	5392.3	
419.38	5257.1	
419.59	6067.4	
419.79	5814.9	
419.99	4591.5	
420.2	4915.1	
420.4	6464.8	
420.6	6500.9	
420.8	4524	
421.01	4472.1	
421.21	6304.3	
421.41	6384.2	
421.61	4812	
421.82	4571.1	
422.02	6062	
422.22	6701.6	
422.42	5266.7	
422.63	4946.5	
422.83	6047.7	
423.03	6935.1	
423.23	4945.2	
423.44	4237.2	
423.64	6057.9	
423.84	5926.8	
424.04	4560.1	
424.25	4332.8	
424.45	6853.2	
424.65	6728.3	
424.85	4149.2	
425.06	4686.4	
425.26	6892.1	
425.46	6081.1	
425.66	4992.3	
425.87	4778.6	
426.07	6551.5	
426.27	6472.9	
426.47	4853	
426.67	4337.6	
426.88	6877.8	
427.08	6426.5	
427.28	5058.5	
427.48	4354	
427.69	5643.5	
427.89	6067.4	
428.09	4928.8	
428.29	4323.9	
428.5	6513.2	
428.7	6251.1	
428.9	4272.7	
429.1	4668	
429.3	6281.8	
429.51	6488	
429.71	4547.2	
429.91	5151.3	
430.11	6436.1	
430.31	6639.5	
430.52	4719.2	
430.72	5012.1	
430.92	6913.9	
431.12	6507.1	
431.32	4511	
431.53	4847.5	
431.73	5698.8	
431.93	6937.2	
432.13	4439.3	
432.33	4330.1	
432.54	6004	
432.74	6263.4	
432.94	4295.3	
433.14	5128.8	
433.34	6548.7	
433.55	6172.6	
433.75	5061.2	
433.95	6327.5	
434.15	6326.2	
434.35	5982.8	
434.56	4486.4	
434.76	4123.9	
434.96	6291.4	
435.16	6488.6	
435.36	4446.1	
435.56	5301.5	
435.77	6070.2	
435.97	6169.8	
436.17	5800.5	
436.37	5197.7	
436.57	6070.9	
436.78	5990.3	
436.98	5158.8	
437.18	5653.1	
437.38	6492.1	
437.58	6195.1	
437.78	5809.4	
437.99	4786.8	
438.19	6594.5	
438.39	7225.2	
438.59	4786.8	
438.79	4358.1	
438.99	7081.2	
439.2	6138.4	
439.4	4478.2	
439.6	4368.3	
439.8	6303.6	
440	7101	
440.2	5132.9	
440.4	5192.3	
440.61	6712.6	
440.81	7075	
441.01	4562.2	
441.21	5273.5	
441.41	7124.2	
441.61	6705.7	
441.81	5548.6	
442.02	6238.1	
442.22	7415.7	
442.42	6848.4	
442.62	4653	
442.82	4674.1	
443.02	7179.5	
443.22	6431.3	
443.43	5027.1	
443.63	4704.2	
443.83	6249	
444.03	6262.7	
444.23	5610.1	
444.43	5307	
444.63	6636.8	
444.83	7397.9	
445.04	4870.1	
445.24	5757.5	
445.44	6905.1	
445.64	6906.4	
445.84	5419.6	
446.04	5441.5	
446.24	6453.1	
446.44	7171.3	
446.65	4769.7	
446.85	5095.3	
447.05	6702.3	
447.25	7154.9	
447.45	5231.9	
447.65	4711	
447.85	6630.6	
448.05	6300.9	
448.25	5532.2	
448.46	5324	
448.66	6601.3	
448.86	6339.1	
449.06	4622.3	
449.26	5477	
449.46	6896.2	
449.66	6176	
449.86	5104.2	
450.06	5121.3	
450.26	6313.9	
450.47	6806.8	
450.67	5360.2	
450.87	5591.6	
451.07	6953.5	
451.27	6735.1	
451.47	4843.4	
451.67	5210	
451.87	6476.4	
452.07	7300.3	
452.27	5059.2	
452.47	4988.2	
452.67	6715.3	
452.88	7029.3	
453.08	4501.4	
453.28	5996.5	
453.48	7627.3	
453.68	6696.2	
453.88	4927.4	
454.08	5074.9	
454.28	6952.9	
454.48	6673	
454.68	5448.3	
454.88	5847.6	
455.08	7159.7	
455.28	6845.7	
455.48	4802.5	
455.68	5311.1	
455.89	7515.4	
456.09	7203.4	
456.29	5149.3	
456.49	5199.8	
456.69	7360.4	
456.89	6933.1	
457.09	5530.9	
457.29	5809.4	
457.49	7045	
457.69	7108.5	
457.89	5479.7	
458.09	4972.5	
458.29	6961	
458.49	7420.5	
458.69	5753.4	
458.89	5262.6	
459.09	7643	
459.29	7696.3	
459.49	5459.2	
459.69	6054.5	
459.9	7296.9	
460.1	7004.7	
460.3	5307.7	
460.5	5188.2	
460.7	7408.2	
460.9	6977.4	
461.1	4937	
461.3	5896.8	
461.5	7809.6	
461.7	7465.5	
461.9	5304.9	
462.1	5679	
462.3	7136.5	
462.5	7571.3	
462.7	5478.3	
462.9	5398.4	
463.1	8331.8	
463.3	8124.3	
463.5	5560.2	
463.7	6439.5	
463.9	7421.2	
464.1	7636.2	
464.3	5730.9	
464.5	5963	
464.7	7898.3	
464.9	7555	
465.1	6959.7	
465.3	6296.1	
465.5	8057.4	
465.7	8054	
465.9	6521.4	
466.1	6192.4	
466.3	7955	
466.5	7837.6	
466.7	7040.9	
466.9	6164.4	
467.1	7884.7	
467.3	8515.5	
467.5	6982.9	
467.7	6158.2	
467.9	8711.4	
468.1	9331.2	
468.3	6735.8	
468.5	7031.4	
468.7	7892.2	
468.9	7810.3	
469.1	6427.2	
469.3	6892.1	
469.5	9356.5	
469.7	7594.6	
469.9	6828.6	
470.1	6227.2	
470.3	7964.6	
470.5	7937.9	
470.7	7216.4	
470.9	6275	
471.1	7718.1	
471.3	8123.6	
471.5	6172.6	
471.69	7561.8	
471.89	7750.9	
472.09	7299	
472.29	6812.9	
472.49	7090.8	
472.69	7462.8	
472.89	8058.1	
473.09	6086.6	
473.29	6219.7	
473.49	7627.3	
473.69	7613.7	
473.89	6914.6	
474.09	6297.5	
474.29	8654	
474.49	8389.2	
474.69	6883.2	
474.89	6341.9	
475.09	7729	
475.29	7660.1	
475.49	6015.6	
475.69	6169.8	
475.88	8937.3	
476.08	8090.2	
476.28	5940.5	
476.48	6178	
476.68	8357.8	
476.88	8208.9	
477.08	6143.2	
477.28	6463.4	
477.48	7796.6	
477.68	8240.3	
477.88	5976.7	
478.08	6214.2	
478.28	8551.6	
478.48	7845.8	
478.67	6224.5	
478.87	5861.3	
479.07	8317.5	
479.27	7981.6	
479.47	6462	
479.67	6495.5	
479.87	8197.3	
480.07	8663.6	
480.27	5877.7	
480.47	7077.1	
480.67	7980.3	
480.87	8458.1	
481.06	6216.3	
481.26	6834.1	
481.46	8060.1	
481.66	7901.7	
481.86	6546	
482.06	7174	
482.26	7742.7	
482.46	8581	
482.66	6457.9	
482.86	6180.8	
483.05	8116.1	
483.25	7511.3	
483.45	8327.7	
483.65	6515.3	
483.85	7661.5	
484.05	7872.4	
484.25	6774	
484.45	7197.9	
484.65	8529.1	
484.84	8685.4	
485.04	6424.5	
485.24	6446.3	
485.44	8879.3	
485.64	7562.5	
485.84	5999.2	
486.04	7066.2	
486.24	7892.9	
486.44	8114.1	
486.63	5869.5	
486.83	6595.1	
487.03	7811.6	
487.23	8015.7	
487.43	6044.2	
487.63	7801.4	
487.83	8031.5	
488.02	8647.9	
488.22	6822.5	
488.42	7297.6	
488.62	8705.2	
488.82	7868.3	
489.02	6558.3	
489.22	6630	
489.41	8652	
489.61	8476.5	
489.81	6369.9	
490.01	6458.6	
490.21	8605.6	
490.41	9227.5	
490.61	6451.1	
490.8	6561	
491	8370	
491.2	7764.5	
491.4	7049.8	
491.6	6404.7	
491.8	8406.9	
491.99	8312.7	
492.19	6173.9	
492.39	6474.3	
492.59	8658.8	
492.79	8736	
492.99	7056.6	
493.18	6409.5	
493.38	8744.8	
493.58	9362.6	
493.78	6911.9	
493.98	6645	
494.18	8523	
494.37	8123.6	
494.57	7275.1	
494.77	7104.4	
494.97	8780.3	
495.17	9064.3	
495.37	6844.3	
495.56	7069.6	
495.76	9155.1	
495.96	8972.8	
496.16	7940	
496.36	7108.5	
496.55	9188.6	
496.75	8763.9	
496.95	7494.9	
497.15	7373.4	
497.35	9096.4	
497.54	9153.1	
497.74	7277.8	
497.94	8469	
498.14	9681.4	
498.34	9577	
498.53	6969.2	
498.73	7476.5	
498.93	8600.8	
499.13	9175.6	
499.33	7463.5	
499.52	7824.6	
499.72	9260.9	
499.92	9346.2	
500.12	7176.8	
500.32	7443.7	
500.51	9400.9	
500.71	9156.5	
500.91	8076.5	
501.11	7799.3	
501.31	9406.3	
501.5	9759.9	
501.7	8326.4	
501.9	7496.2	
502.1	9194	
502.29	9594.7	
502.49	7877.2	
502.69	8189.8	
502.89	9377	
503.09	9483.5	
503.28	7171.3	
503.48	7246.4	
503.68	8875.9	
503.88	8821.3	
504.07	7963.2	
504.27	7527.7	
504.47	9164.7	
504.67	9211.1	
504.86	7870.3	
505.06	7587	
505.26	8906.6	
505.46	10272	
505.65	7538.6	
505.85	7756.3	
506.05	8852	
506.25	9250.7	
506.44	6954.9	
506.64	7727.7	
506.84	8733.9	
507.04	9345.6	
507.23	7279.2	
507.43	7630.7	
507.63	10239	
507.83	8839	
508.02	7583.6	
508.22	7079.1	
508.42	10458	
508.62	8731.2	
508.81	7605.5	
509.01	7965.9	
509.21	8667	
509.4	8860.2	
509.6	7632.8	
509.8	7169.9	
510	8893	
510.19	9861.7	
510.39	7113.3	
510.59	7193.1	
510.79	8768	
510.98	9726.5	
511.18	7320.8	
511.38	7466.9	
511.57	9439.1	
511.77	9247.9	
511.97	7923.6	
512.17	7264.8	
512.36	9351	
512.56	9271.2	
512.76	7195.9	
512.95	6980.2	
513.15	9516.9	
513.35	8320.2	
513.55	7793.2	
513.74	7221.1	
513.94	9400.9	
514.14	8786.5	
514.33	7989.8	
514.53	7731.8	
514.73	8945.5	
514.92	9003.6	
515.12	7223.9	
515.32	7194.5	
515.51	9146.9	
515.71	9451.4	
515.91	8468.4	
516.11	7237.5	
516.3	10376	
516.5	8862.2	
516.7	7741.3	
516.89	8170	
517.09	9017.2	
517.29	8974.9	
517.48	7987.1	
517.68	7441	
517.88	8791.2	
518.07	9263.6	
518.27	7897	
518.47	7230	
518.66	9629.5	
518.86	8689.5	
519.06	6989	
519.25	7372	
519.45	8863.6	
519.65	9977	
519.84	7846.5	
520.04	8424.7	
520.24	10399	
520.43	9413.8	
520.63	7673.7	
520.83	7496.2	
521.02	9001.5	
521.22	9392	
521.42	7927.7	
521.61	8329.1	
521.81	9021.3	
522.01	9090.9	
522.2	7679.2	
522.4	7551.5	
522.6	9407.7	
522.79	8426.7	
522.99	7554.3	
523.18	7127.6	
523.38	9278.7	
523.58	9204.3	
523.77	8609.7	
523.97	7134.4	
524.17	10692	
524.36	10129	
524.56	8422.6	
524.76	7973.4	
524.95	9463.7	
525.15	9131.9	
525.34	7897.7	
525.54	7982.3	
525.74	9810.5	
525.93	9151	
526.13	8830.2	
526.33	7983.7	
526.52	10151	
526.72	9678.7	
526.91	9083.4	
527.11	8434.2	
527.31	10206	
527.5	10438	
527.7	8362.5	
527.89	7576.8	
528.09	9245.2	
528.29	9714.9	
528.48	8729.1	
528.68	8377.6	
528.87	10144	
529.07	10189	
529.27	8361.2	
529.46	8049.9	
529.66	10081	
529.85	10304	
530.05	8177.5	
530.25	8600.8	
530.44	11053	
530.64	9885.5	
530.83	8325.7	
531.03	8601.5	
531.23	10244	
531.42	10031	
531.62	9002.9	
531.81	8385.1	
532.01	10312	
532.21	10554	
532.4	8366.6	
532.6	8606.2	
532.79	11054	
532.99	10426	
533.18	8684.1	
533.38	9514.9	
533.58	10241	
533.77	10785	
533.97	8832.2	
534.16	9389.3	
534.36	11022	
534.55	10215	
534.75	9490.3	
534.95	8857.5	
535.14	11044	
535.34	10303	
535.53	8623.3	
535.73	10109	
535.92	11508	
536.12	10530	
536.31	8725.7	
536.51	9697.8	
536.71	10781	
536.9	10380	
537.1	8789.2	
537.29	8897.1	
537.49	11062	
537.68	10340	
537.88	9267.7	
538.07	8583	
538.27	10514	
538.46	11303	
538.66	8559.8	
538.86	8839	
539.05	10446	
539.25	10879	
539.44	9204.9	
539.64	8812.4	
539.83	10434	
540.03	11305	
540.22	8789.2	
540.42	8838.4	
540.61	10777	
540.81	10738	
541	9176.9	
541.2	9717.6	
541.39	10240	
541.59	10575	
541.78	9503.9	
541.98	8779	
542.18	10072	
542.37	10084	
542.57	9073.2	
542.76	9489.6	
542.96	10124	
543.15	10590	
543.35	9120.3	
543.54	8713.4	
543.74	10733	
543.93	10568	
544.13	8884.8	
544.32	9715.6	
544.52	10702	
544.71	10131	
544.91	8247.9	
545.1	9196.1	
545.3	10055	
545.49	10555	
545.69	8232.2	
545.88	8720.9	
546.08	11448	
546.27	10980	
546.47	9089.6	
546.66	8714.8	
546.86	10892	
547.05	11112	
547.24	8662.2	
547.44	8510	
547.63	9992.7	
547.83	10789	
548.02	8910	
548.22	8988.5	
548.41	9839.8	
548.61	10817	
548.8	8488.1	
549	8478.6	
549.19	10309	
549.39	10596	
549.58	8332.5	
549.78	8728.4	
549.97	10636	
550.17	10097	
550.36	9414.5	
550.55	10166	
550.75	10099	
550.94	10903	
551.14	8384.4	
551.33	8688.2	
551.53	9656.2	
551.72	10408	
551.92	8634.9	
552.11	8546.2	
552.31	10467	
552.5	10461	
552.69	9895.8	
552.89	8189.1	
553.08	10400	
553.28	10137	
553.47	8521.6	
553.67	9471.9	
553.86	10946	
554.06	9570.2	
554.25	7901.1	
554.44	8421.9	
554.64	11436	
554.83	11114	
555.03	8378.2	
555.22	8695.7	
555.42	10528	
555.61	10340	
555.8	8530.5	
556	8740.7	
556.19	9735.4	
556.39	10555	
556.58	8506.6	
556.78	8524.3	
556.97	10244	
557.16	9994.8	
557.36	9368.8	
557.55	8254.7	
557.75	9468.4	
557.94	10899	
558.13	8365.3	
558.33	8174.1	
558.52	10726	
558.72	9802.9	
558.91	8298.4	
559.1	8492.9	
559.3	9685.5	
559.49	9402.9	
559.69	7984.3	
559.88	8703.2	
560.07	10150	
560.27	10563	
560.46	8768	
560.66	8894.3	
560.85	10140	
561.04	9447.3	
561.24	8224.6	
561.43	8363.9	
561.63	9557.9	
561.82	9815.2	
562.01	9252	
562.21	8470.4	
562.4	10131	
562.59	10820	
562.79	8467	
562.98	8087.4	
563.18	10078	
563.37	11223	
563.56	8787.2	
563.76	8092.9	
563.95	9751.7	
564.14	9749.7	
564.34	8507.3	
564.53	8356.4	
564.73	10230	
564.92	10409	
565.11	8694.3	
565.31	8155	
565.5	10578	
565.69	9841.2	
565.89	8346.8	
566.08	8585.8	
566.27	10521	
566.47	10894	
566.66	9153.1	
566.85	8121.6	
567.05	10277	
567.24	9739.5	
567.44	8338.6	
567.63	9377	
567.82	10466	
568.02	10247	
568.21	8419.9	
568.4	8680	
568.6	10144	
568.79	10228	
568.98	8281.3	
569.18	8399.4	
569.37	10232	
569.56	11701	
569.76	8656.1	
569.95	9409.7	
570.14	10548	
570.34	10434	
570.53	8380.3	
570.72	8355.7	
570.91	10997	
571.11	10331	
571.3	8852.7	
571.49	9470.5	
571.69	10412	
571.88	9987.9	
572.07	9099.8	
572.27	9148.3	
572.46	9863.7	
572.65	10598	
572.85	8677.9	
573.04	8871.8	
573.23	10966	
573.43	10379	
573.62	8396	
573.81	8967.4	
574	10488	
574.2	10235	
574.39	8763.3	
574.58	8853.4	
574.78	11139	
574.97	10576	
575.16	9220.6	
575.36	9337.4	
575.55	10918	
575.74	11039	
575.93	8510	
576.13	9465.7	
576.32	10483	
576.51	11026	
576.71	8999.5	
576.9	10060	
577.09	11334	
577.28	10742	
577.48	9269.8	
577.67	8621.9	
577.86	10549	
578.05	10737	
578.25	9086.2	
578.44	9218.6	
578.63	10602	
578.83	11619	
579.02	8611.7	
579.21	9895.1	
579.4	10871	
579.6	10726	
579.79	9202.9	
579.98	10884	
580.17	11127	
580.37	11125	
580.56	8876.6	
580.75	9429.5	
580.94	11445	
581.14	11379	
581.33	9758.6	
581.52	8917.5	
581.71	11031	
581.91	11590	
582.1	8787.2	
582.29	9162.6	
582.48	10798	
582.68	10675	
582.87	9602.9	
583.06	9275.9	
583.25	11041	
583.45	10545	
583.64	9807	
583.83	10359	
584.02	10710	
584.21	11118	
584.41	9903.3	
584.6	9348.3	
584.79	10886	
584.98	11388	
585.18	8876.6	
585.37	8911.4	
585.56	10598	
585.75	11095	
585.94	9101.2	
586.14	9620	
586.33	11490	
586.52	10825	
586.71	9484.1	
586.91	9275.9	
587.1	10294	
587.29	11138	
587.48	9161.2	
587.67	9030.2	
587.87	11049	
588.06	10992	
588.25	9984.5	
588.44	9464.3	
588.63	10721	
588.83	11177	
589.02	9112.1	
589.21	9065.7	
589.4	10501	
589.59	10556	
589.78	8441	
589.98	8643.1	
590.17	10043	
590.36	10511	
590.55	8008.2	
590.74	8480	
590.94	11333	
591.13	10185	
591.32	8378.9	
591.51	7895.6	
591.7	10416	
591.89	10022	
592.09	7989.8	
592.28	8313.4	
592.47	9408.4	
592.66	11046	
592.85	8159.1	
593.05	8324.3	
593.24	10017	
593.43	10662	
593.62	8382.3	
593.81	8678.6	
594	10126	
594.19	10208	
594.39	8243.8	
594.58	8255.4	
594.77	10409	
594.96	10746	
595.15	8258.8	
595.34	8760.5	
595.54	10307	
595.73	9620.7	
595.92	7683.3	
596.11	8520.2	
596.3	10668	
596.49	9658.9	
596.68	8391.9	
596.88	8727.8	
597.07	10321	
597.26	9426.8	
597.45	8008.2	
597.64	8967.4	
597.83	9720.3	
598.02	10216	
598.22	8020.5	
598.41	8551	
598.6	10049	
598.79	9611.8	
598.98	8065.6	
599.17	8781.7	
599.36	10148	
599.55	10865	
599.74	9676.7	
599.94	9360.6	
600.13	10461	
600.32	9523.1	
600.51	7808.2	
600.7	8006.9	
600.89	10967	
601.08	10990	
601.27	7848.5	
601.47	8598.7	
601.66	10346	
601.85	10753	
602.04	8378.9	
602.23	8409.6	
602.42	9675.3	
602.61	10161	
602.8	8308.6	
602.99	8036.2	
603.18	9809.1	
603.37	10073	
603.57	8527.7	
603.76	8982.4	
603.95	10580	
604.14	10219	
604.33	8110.6	
604.52	8388.5	
604.71	10071	
604.9	9678	
605.09	8839.7	
605.28	8733.9	
605.47	10546	
605.66	10219	
605.86	8587.8	
606.05	8155.7	
606.24	10602	
606.43	9306.7	
606.62	8483.4	
606.81	9072.5	
607	10363	
607.19	9724.4	
607.38	8037.6	
607.57	8144.1	
607.76	9617.9	
607.95	9236.3	
608.14	8458.1	
608.33	8869.8	
608.52	9667.1	
608.72	10361	
608.91	7862.2	
609.1	7789.1	
609.29	9695.8	
609.48	9350.3	
609.67	8507.9	
609.86	7769.3	
610.05	9442.5	
610.24	9665.7	
610.43	7857.4	
610.62	7498.3	
610.81	10506	
611	10320	
611.19	7933.1	
611.38	8273.8	
611.57	9856.2	
611.76	10846	
611.95	7659.4	
612.14	7552.9	
612.33	9770.9	
612.52	9441.1	
612.71	8059.4	
612.9	7522.2	
613.09	9138.7	
613.28	10952	
613.47	7985.7	
613.66	8633.6	
613.85	9858.2	
614.04	9487.6	
614.24	7944.8	
614.43	7378.1	
614.62	9924.5	
614.81	9845.3	
615	8352.3	
615.19	8296.3	
615.38	9301.9	
615.57	9658.2	
615.76	8292.9	
615.95	9027.4	
616.14	10077	
616.33	9734	
616.52	8455.4	
616.71	8669.1	
616.9	9932.6	
617.09	9856.2	
617.28	8059.4	
617.47	8929.8	
617.66	9334	
617.85	9318.3	
618.04	8692.3	
618.22	8272.4	
618.41	9585.2	
618.6	10325	
618.79	8353	
618.98	8123.6	
619.17	10628	
619.36	9168.8	
619.55	8260.8	
619.74	8292.9	
619.93	10025	
620.12	9589.3	
620.31	8751	
620.5	8839.7	
620.69	10760	
620.88	10895	
621.07	9400.2	
621.26	8611	
621.45	10264	
621.64	10313	
621.83	8804.9	
622.02	8128.4	
622.21	10287	
622.4	10217	
622.59	9157.8	
622.78	9108	
622.97	9902.6	
623.16	10694	
623.35	8882	
623.54	8157.1	
623.72	9990	
623.91	10185	
624.1	9055.4	
624.29	7965.2	
624.48	11012	
624.67	10303	
624.86	8985.1	
625.05	8267.6	
625.24	11259	
625.43	9901.2	
625.62	10193	
625.81	8494.3	
626	10542	
626.19	10075	
626.38	8929.1	
626.56	8542.1	
626.75	9872.6	
626.94	10519	
627.13	9045.2	
627.32	8054	
627.51	10465	
627.7	11445	
627.89	8140	
628.08	9082.1	
628.27	9854.8	
628.46	9945.6	
628.65	8344.8	
628.83	8106.5	
629.02	10428	
629.21	9892.4	
629.4	8629.5	
629.59	8861.6	
629.78	9846	
629.97	10475	
630.16	8791.2	
630.35	8512	
630.54	10903	
630.72	10614	
630.91	8447.2	
631.1	8832.9	
631.29	10240	
631.48	10389	
631.67	9040.4	
631.86	8504.5	
632.05	10053	
632.24	10137	
632.42	8113.4	
632.61	8738	
632.8	10064	
632.99	9781.8	
633.18	8763.3	
633.37	8987.9	
633.56	10308	
633.75	10225	
633.93	8849.3	
634.12	8476.5	
634.31	11034	
634.5	10609	
634.69	8608.3	
634.88	8933.9	
635.07	10206	
635.25	10655	
635.44	9248.6	
635.63	9421.3	
635.82	9972.9	
636.01	9482.8	
636.2	9052.7	
636.39	8853.4	
636.57	10847	
636.76	10504	
636.95	8377.6	
637.14	9464.3	
637.33	10428	
637.52	10903	
637.7	8221.9	
637.89	8968.7	
638.08	9999.5	
638.27	11037	
638.46	9060.2	
638.65	9338.7	
638.83	11095	
639.02	9841.2	
639.21	8940.7	
639.4	9337.4	
639.59	10157	
639.78	10032	
639.96	8392.6	
640.15	8416.5	
640.34	10145	
640.53	10070	
640.72	8125	
640.91	8359.1	
641.09	9635.7	
641.28	10667	
641.47	8374.8	
641.66	9007.6	
641.85	10135	
642.03	10288	
642.22	8815.1	
642.41	8346.8	
642.6	9667.1	
642.79	9215.2	
642.97	8184.4	
643.16	8736.6	
643.35	9724.4	
643.54	9473.2	
643.73	8197.3	
643.91	8726.4	
644.1	9430.9	
644.29	9865.7	
644.48	8168	
644.67	8213.7	
644.85	9411.8	
645.04	9768.8	
645.23	7847.1	
645.42	8187.1	
645.6	9329.9	
645.79	10265	
645.98	7876.5	
646.17	7187	
646.36	9042.5	
646.54	9482.1	
646.73	8515.5	
646.92	7703.1	
647.11	9217.9	
647.29	9921.7	
647.48	7676.5	
647.67	7430.7	
647.86	10139	
648.05	10094	
648.23	7876.5	
648.42	8819.2	
648.61	9648.7	
648.8	9528.5	
648.98	7533.1	
649.17	7774.8	
649.36	9011.7	
649.55	8615.1	
649.73	7495.6	
649.92	8045.1	
650.11	8980.3	
650.3	9284.8	
650.48	7739.3	
650.67	7491.5	
650.86	9539.4	
651.05	8688.8	
651.23	7705.1	
651.42	7613	
651.61	9108.7	
651.79	8959.2	
651.98	7752.9	
652.17	7378.1	
652.36	9355.1	
652.54	8587.1	
652.73	7434.8	
652.92	7264.1	
653.11	9294.4	
653.29	9491	
653.48	6935.1	
653.67	7769.3	
653.85	9192	
654.04	10026	
654.23	7780.2	
654.42	7511.9	
654.6	8700.5	
654.79	9179	
654.98	7086.7	
655.16	7443	
655.35	8343.4	
655.54	8172.1	
655.73	6883.2	
655.91	6780.1	
656.1	8951	
656.29	7976.2	
656.47	6445.6	
656.66	7771.4	
656.85	8372.1	
657.03	8366.6	
657.22	7016.3	
657.41	7051.2	
657.59	8577.6	
657.78	8439	
657.97	6777.4	
658.16	7390.4	
658.34	9151	
658.53	9441.1	
658.72	8129.1	
658.9	8437.6	
659.09	8825.4	
659.28	8721.6	
659.46	7268.9	
659.65	7172	
659.84	8606.2	
660.02	9017.9	
660.21	7228.6	
660.4	7114.6	
660.58	9377.6	
660.77	8852.7	
660.96	7577.5	
661.14	6820.4	
661.33	9691	
661.52	9654.1	
661.7	6855.9	
661.89	9469.8	
662.08	8495.7	
662.26	8120.2	
662.45	7053.9	
662.64	7135.1	
662.82	9164	
663.01	8391.9	
663.2	7055.3	
663.38	7662.1	
663.57	8944.8	
663.75	8823.3	
663.94	7358.4	
664.13	8277.2	
664.31	8487.5	
664.5	9061.6	
664.69	7471	
664.87	7856	
665.06	8295.6	
665.25	8885.5	
665.43	8075.8	
665.62	8145.5	
665.8	9029.5	
665.99	8587.1	
666.18	7333.1	
666.36	7371.3	
666.55	9081.4	
666.74	9006.3	
666.92	7016.3	
667.11	8238.3	
667.29	8568.7	
667.48	8955.8	
667.67	7927.7	
667.85	7219.1	
668.04	8579.6	
668.22	8534.6	
668.41	7403.4	
668.6	7616.4	
668.78	8372.1	
668.97	8651.3	
669.15	7563.8	
669.34	6746	
669.53	8438.3	
669.71	8662.9	
669.9	6956.3	
670.08	7402	
670.27	8380.3	
670.46	8831.5	
670.64	7568.6	
670.83	7728.4	
671.01	8344.8	
671.2	8793.3	
671.38	7058.7	
671.57	6942.6	
671.76	9236.3	
671.94	9656.2	
672.13	6942.6	
672.31	7665.5	
672.5	8918.2	
672.69	8379.6	
672.87	7073.7	
673.06	7279.2	
673.24	8768.7	
673.43	8529.1	
673.61	7573.4	
673.8	7135.8	
673.98	8925	
674.17	8950.3	
674.36	7743.4	
674.54	7522.2	
674.73	8654.7	
674.91	8994	
675.1	7385	
675.28	6982.2	
675.47	8543.4	
675.65	9008.3	
675.84	7316	
676.03	7417.1	
676.21	8503.8	
676.4	7980.3	
676.58	7758.4	
676.77	7670.3	
676.95	9581.1	
677.14	8374.8	
677.32	6939.2	
677.51	6823.8	
677.69	9053.4	
677.88	8167.3	
678.06	6830	
678.25	6979.5	
678.44	8502.5	
678.62	8314.8	
678.81	6768.5	
678.99	7446.4	
679.18	9212.4	
679.36	8877.3	
679.55	7200.7	
679.73	7630.7	
679.92	8811	
680.1	8359.8	
680.29	8103.8	
680.47	7162.4	
680.66	8370.7	
680.84	8918.2	
681.03	6612.2	
681.21	7551.5	
681.4	8404.9	
681.58	8282.7	
681.77	7062.1	
681.95	6918	
682.14	9065	
682.32	9266.4	
682.51	7740.6	
682.69	6744	
682.88	8318.8	
683.06	8696.4	
683.25	7436.2	
683.43	7730.4	
683.62	8542.1	
683.8	8804.9	
683.99	7869.7	
684.17	7258	
684.36	9429.5	
684.54	8436.9	
684.73	6752.2	
684.91	6921.5	
685.1	8729.1	
685.28	8213	
685.46	7151.5	
685.65	7124.9	
685.83	8538.7	
686.02	7959.8	
686.2	6456.6	
686.39	6559	
686.57	7776.8	
686.76	8927.1	
686.94	6551.5	
687.13	6736.5	
687.31	8406.2	
687.5	8178.9	
687.68	6335	
687.86	7161.7	
688.05	9555.8	
688.23	7718.8	
688.42	7319.4	
688.6	6746.7	
688.79	8036.2	
688.97	8103.1	
689.16	7098.9	
689.34	6256.5	
689.52	8782.4	
689.71	8817.9	
689.89	7271.7	
690.08	6801.3	
690.26	8365.3	
690.45	8385.7	
690.63	7492.8	
690.81	7028.6	
691	8294.3	
691.18	8236.9	
691.37	7137.2	
691.55	8705.2	
691.74	8125.7	
691.92	9530.6	
692.1	7069.6	
692.29	6644.3	
692.47	8243.1	
692.66	7767.3	
692.84	6690.7	
693.02	7065.5	
693.21	7767.3	
693.39	8236.2	
693.58	7217	
693.76	6711.9	
693.94	9202.2	
694.13	8957.8	
694.31	6853.9	
694.5	7670.3	
694.68	8099	
694.86	8464.9	
695.05	7196.6	
695.23	7267.6	
695.42	8765.3	
695.6	10452	
695.78	7713.3	
695.97	7019.1	
696.15	8941.4	
696.34	8333.9	
696.52	6935.8	
696.7	7544	
696.89	8632.2	
697.07	8196	
697.25	7387.7	
697.44	8492.9	
697.62	8602.8	
697.81	8737.3	
697.99	7127.6	
698.17	7505.1	
698.36	8008.2	
698.54	8601.5	
698.72	7397.9	
698.91	6597.2	
699.09	8219.2	
699.28	8142	
699.46	7083.9	
699.64	6884.6	
699.83	8078.6	
700.01	8927.8	
700.19	7559.7	
700.38	6343.2	
700.56	8888.9	
700.74	8161.8	
700.93	6618.4	
701.11	7236.8	
701.29	8557.8	
701.48	9335.3	
701.66	6845.7	
701.84	6969.9	
702.03	8279.3	
702.21	8836.3	
702.39	6541.2	
702.58	7115.3	
702.76	8705.2	
702.94	8641.7	
703.13	6613.6	
703.31	8539.3	
703.49	8187.8	
703.68	8812.4	
703.86	6720.1	
704.04	7430	
704.23	8449.2	
704.41	8802.9	
704.59	6865.5	
704.78	7705.8	
704.96	9758.6	
705.14	8776.9	
705.33	6722.8	
705.51	7325.6	
705.69	8292.2	
705.87	8940.1	
706.06	7466.9	
706.24	6691.4	
706.42	8559.8	
706.61	8711.4	
706.79	7530.4	
706.97	6589.7	
707.16	8084.7	
707.34	8499.8	
707.52	7305.8	
707.7	6738.5	
707.89	8059.4	
708.07	7957	
708.25	7442.3	
708.44	7542.7	
708.62	8107.9	
708.8	8914.1	
708.98	7597.3	
709.17	6893.5	
709.35	8425.3	
709.53	8341.4	
709.72	6636.1	
709.9	6893.5	
710.08	8624	
710.26	8562.6	
710.45	7746.1	
710.63	6744.6	
710.81	8224.6	
710.99	8230.8	
711.18	7306.5	
711.36	6834.1	
711.54	8039.6	
711.72	8588.5	
711.91	6830	
712.09	6368.5	
712.27	8220.5	
712.45	8598.1	
712.64	7020.4	
712.82	6166.4	
713	7674.4	
713.18	7776.1	
713.37	6241.5	
713.55	7206.1	
713.73	8426	
713.91	7381.6	
714.1	6449.7	
714.28	6175.3	
714.46	8026.7	
714.64	7322.2	
714.83	5453.1	
715.01	5928.2	
715.19	7232.1	
715.37	6673	
715.55	5513.8	
715.74	5771.2	
715.92	7694.9	
716.1	6223.8	
716.28	6514.6	
716.47	5806	
716.65	6718	
716.83	6665.5	
717.01	5608	
717.19	5575.3	
717.38	8346.8	
717.56	6449.7	
717.74	5797.8	
717.92	5091.9	
718.1	7337.9	
718.29	6685.3	
718.47	4859.8	
718.65	5377.3	
718.83	7349.5	
719.01	7326.9	
719.2	4864.6	
719.38	5752.7	
719.56	7238.9	
719.74	8397.4	
719.92	5543.2	
720.11	6304.3	
720.29	7285.3	
720.47	6610.2	
720.65	5174.5	
720.83	5726.8	
721.02	6796.5	
721.2	6585.6	
721.38	5677	
721.56	5038.7	
721.74	6070.2	
721.92	6180.8	
722.11	5945.9	
722.29	5752.1	
722.47	7169.3	
722.65	6507.8	
722.83	5061.9	
723.01	5705	
723.2	6524.1	
723.38	6791.7	
723.56	4599.7	
723.74	5429.2	
723.92	6195.1	
724.1	7066.9	
724.29	4967.7	
724.47	5832.6	
724.65	6320.7	
724.83	6119.3	
725.01	4874.2	
725.19	5454.4	
725.37	6061.3	
725.56	6121.4	
725.74	4674.8	
725.92	4915.8	
726.1	6088.6	
726.28	6365.1	
726.46	5173.9	
726.64	4988.9	
726.83	6339.1	
727.01	6404.7	
727.19	4657.8	
727.37	5260.5	
727.55	6323.4	
727.73	6776	
727.91	4646.2	
728.09	4534.9	
728.28	6753.5	
728.46	6982.9	
728.64	5295.4	
728.82	5254.4	
729	7427.3	
729.18	7008.8	
729.36	4581.3	
729.54	6410.1	
729.72	7749.5	
729.91	6410.8	
730.09	6137.1	
730.27	5203.2	
730.45	6425.2	
730.63	6890	
730.81	5644.9	
730.99	4973.2	
731.17	7294.9	
731.35	6127.5	
731.53	5279.7	
731.71	5013.4	
731.9	7023.2	
732.08	7088.7	
732.26	5200.5	
732.44	4940.4	
732.62	7203.4	
732.8	6708.5	
732.98	5528.2	
733.16	4706.2	
733.34	6759.7	
733.52	5702.9	
733.7	5101.5	
733.88	5280.3	
734.07	6511.9	
734.25	6392.4	
734.43	4672.1	
734.61	5819.6	
734.79	7462.8	
734.97	6321.4	
735.15	4727.4	
735.33	5009.3	
735.51	6558.3	
735.69	6261.3	
735.87	5773.9	
736.05	5102.2	
736.23	6377.4	
736.41	6085.2	
736.59	4982	
736.77	5036.6	
736.95	6625.2	
737.13	6160.3	
737.32	4743.8	
737.5	4872.8	
737.68	7012.9	
737.86	6031.3	
738.04	4554.7	
738.22	5912.5	
738.4	5912.5	
738.58	6205.3	
738.76	4953.4	
738.94	4148.5	
739.12	6034	
739.3	5930.2	
739.48	5352.7	
739.66	5134.3	
739.84	6240.2	
740.02	6100.9	
740.2	4226.3	
740.38	4433.9	
740.56	6468.9	
740.74	5522	
740.92	4889.2	
741.1	4851.6	
741.28	5981.4	
741.46	5827.8	
741.64	4583.4	
741.82	4975.2	
742	6001.2	
742.18	5921.4	
742.36	4727.4	
742.54	4413.4	
742.72	6384.9	
742.9	5390.9	
743.08	4902.2	
743.26	3994.2	
743.44	6440.2	
743.62	6285.2	
743.8	5089.2	
743.98	4295.3	
744.16	6085.2	
744.34	5792.3	
744.52	4891.2	
744.7	4845.5	
744.88	6242.9	
745.06	5818.3	
745.24	4900.1	
745.42	4999.8	
745.6	6241.5	
745.78	6055.8	
745.96	4061.1	
746.14	4286.4	
746.32	6797.9	
746.5	6135	
746.68	4639.3	
746.86	4245.4	
747.03	6514.6	
747.21	5255.8	
747.39	4661.2	
747.57	4212	
747.75	5844.9	
747.93	6090.7	
748.11	4209.3	
748.29	4149.2	
748.47	7032	
748.65	5633.3	
748.83	4741	
749.01	4506.2	
749.19	5995.8	
749.37	5322.7	
749.55	4412	
749.73	4504.2	
749.91	5745.2	
750.09	5565.7	
750.26	4475.5	
750.44	3998.3	
750.62	5788.9	
750.8	5676.3	
750.98	3926.6	
751.16	4173.1	
751.34	5767.8	
751.52	5256.5	
751.7	4721.9	
751.88	3845.4	
752.06	6083.8	
752.24	5848.3	
752.42	3834.5	
752.59	4129.4	
752.77	5659.2	
752.95	6561.7	
753.13	4661.9	
753.31	4155.3	
753.49	5360.2	
753.67	5754.1	
753.85	4453.6	
754.03	4050.9	
754.21	5842.2	
754.38	6162.3	
754.56	4123.9	
754.74	3441.3	
754.92	5291.3	
755.1	5752.1	
755.28	3405.8	
755.46	3434.4	
755.64	6353.5	
755.82	6447.7	
755.99	3704.8	
756.17	3846.1	
756.35	4568.3	
756.53	5767.8	
756.71	2900.6	
756.89	3592.1	
757.07	5420.3	
757.25	4760.2	
757.42	4053.6	
757.6	4668	
757.78	5406.6	
757.96	4631.1	
758.14	3745.1	
758.32	3362.1	
758.5	4356	
758.67	4967	
758.85	3592.1	
759.03	3742.3	
759.21	5171.1	
759.39	4691.9	
759.57	3278.8	
759.75	4247.5	
759.92	5686.5	
760.1	5144.5	
760.28	4474.8	
760.46	4657.8	
760.64	4964.3	
760.82	4774.5	
760.99	4123.2	
761.17	3661.8	
761.35	5511.8	
761.53	4709	
761.71	3771	
761.89	4290.5	
762.06	5414.1	
762.24	5015.5	
762.42	3820.8	
762.6	3602.4	
762.78	5061.2	
762.96	5482.4	
763.13	4127.3	
763.31	3872	
763.49	5561.6	
763.67	5007.3	
763.85	4463.9	
764.02	4896.7	
764.2	5788.9	
764.38	5190.9	
764.56	3768.3	
764.74	4390.8	
764.91	5859.9	
765.09	5060.5	
765.27	3553.9	
765.45	3374.4	
765.63	5980.8	
765.8	5793.7	
765.98	3226.2	
766.16	3424.2	
766.34	4754.7	
766.52	4530.1	
766.69	4122.6	
766.87	3310.9	
767.05	5022.3	
767.23	5634	
767.41	3579.8	
767.58	3799.7	
767.76	5505.6	
767.94	5535.7	
768.12	3656.3	
768.29	4127.3	
768.47	5103.5	
768.65	5663.3	
768.83	3323.2	
769	4159.4	
769.18	4756.1	
769.36	5264	
769.54	4220.2	
769.72	3370.3	
769.89	5621.7	
770.07	5571.2	
770.25	3652.2	
770.43	4631.8	
770.6	6117.3	
770.78	6410.1	
770.96	3753.9	
771.14	4212.7	
771.31	5494	
771.49	4969.7	
771.67	3135.4	
771.85	3259.7	
772.02	4412.7	
772.2	4928.1	
772.38	3934.8	
772.55	3490.4	
772.73	5198.4	
772.91	4986.8	
773.09	3745.1	
773.26	3884.3	
773.44	5143.8	
773.62	4908.3	
773.8	3398.3	
773.97	3263.8	
774.15	5208.7	
774.33	4939.7	
774.5	3339.6	
774.68	3603.7	
774.86	5289.2	
775.04	4919.2	
775.21	3389.4	
775.39	3359.4	
775.57	5152.7	
775.74	5405.3	
775.92	3254.2	
776.1	3183.2	
776.27	5091.9	
776.45	6108.4	
776.63	3380.5	
776.81	3123.2	
776.98	4829.8	
777.16	5632.6	
777.34	3494.5	
777.51	3740.3	
777.69	4946.5	
777.87	4711.7	
778.04	3599	
778.22	3947.1	
778.4	4719.2	
778.57	5186.8	
778.75	3027.6	
778.93	3227.6	
779.1	4571.7	
779.28	4392.9	
779.46	2962	
779.64	3377.8	
779.81	5328.8	
779.99	6025.1	
780.17	3961.5	
780.34	4065.9	
780.52	4900.8	
780.69	4991.6	
780.87	3659	
781.05	3319.8	
781.22	5015.5	
781.4	4973.2	
781.58	3403.7	
781.75	2743.6	
781.93	4988.9	
782.11	4457.7	
782.28	4074.8	
782.46	3457	
782.64	4397.7	
782.81	5167.7	
782.99	3503.4	
783.17	3489.7	
783.34	5021.6	
783.52	4520.5	
783.69	3534.8	
783.87	4239.3	
784.05	4558.8	
784.22	4593.6	
784.4	4206.5	
784.58	3660.4	
784.75	5228.5	
784.93	4607.2	
785.1	3369.6	
785.28	3859.7	
785.46	5076.9	
785.63	4544.4	
785.81	3473.4	
785.99	3322.5	
786.16	4708.3	
786.34	4923.3	
786.51	3333.4	
786.69	3597.6	
786.87	4331.5	
787.04	4756.1	
787.22	3214.6	
787.39	3898.6	
787.57	4522.6	
787.75	5371.8	
787.92	4087.7	
788.1	3981.9	
788.27	4485.1	
788.45	4217.5	
788.63	3848.1	
788.8	2796.2	
788.98	4922	
789.15	4222.2	
789.33	3008.5	
789.5	3390.8	
789.68	5233.9	
789.86	5344.5	
790.03	3812	
790.21	3355.9	
790.38	5297.4	
790.56	4653	
790.73	3220.1	
790.91	3230.3	
791.09	4579.9	
791.26	5091.3	
791.44	3435.1	
791.61	2968.2	
791.79	4525.3	
791.96	4515.1	
792.14	3076	
792.32	2748.4	
792.49	4521.2	
792.67	4638	
792.84	3182.5	
793.02	2994.8	
793.19	5216.2	
793.37	5459.2	
793.54	2795.5	
793.72	2991.4	
793.89	5530.2	
794.07	4475.5	
794.25	3468.6	
794.42	2882.2	
794.6	5335	
794.77	4948.6	
794.95	3689.8	
795.12	3253.5	
795.3	4586.8	
795.47	4962.9	
795.65	3560.1	
795.82	3383.2	
796	4401.1	
796.17	5815.5	
796.35	3336.8	
796.52	3906.2	
796.7	4992.3	
796.87	5012.7	
797.05	3328.6	
797.22	3990.8	
797.4	4965	
797.57	5706.3	
797.75	3484.3	
797.92	3245.3	
798.1	5242.1	
798.27	4443.4	
798.45	2919.7	
798.62	3049.4	
798.8	4801.8	
798.97	5192.3	
799.15	3620.8	
799.32	3424.2	
799.5	4212.7	
799.67	4810	
799.85	3709.6	
800.02	2777.7	
800.2	4515.1	
800.37	4696.7	
800.55	3818.8	
800.72	3194.8	
800.9	5129.5	
801.07	5432.6	
801.25	4265.9	
801.42	3563.5	
801.6	5213.4	
801.77	4793.6	
801.95	3307.5	
802.12	3140.9	
802.29	4915.1	
802.47	4838.7	
802.64	3538.2	
802.82	2796.8	
802.99	4502.1	
803.17	5219.6	
803.34	3444.7	
803.52	3129.3	
803.69	5752.1	
803.87	4272.1	
804.04	3416.7	
804.21	3463.1	
804.39	5416.2	
804.56	4642.1	
804.74	2923.1	
804.91	3535.5	
805.09	4495.3	
805.26	4572.4	
805.44	3028.9	
805.61	3280.2	
805.78	5071.5	
805.96	5007.3	
806.13	3476.1	
806.31	3764.2	
806.48	4174.4	
806.66	4526.7	
806.83	3558	
807	3447.4	
807.18	4491.2	
807.35	4807.9	
807.53	3477.5	
807.7	2840.5	
807.87	5376.6	
808.05	4462.5	
808.22	3734.8	
808.4	2777.7	
808.57	4459.1	
808.74	4261.8	
808.92	3206.4	
809.09	3959.4	
809.27	4477.5	
809.44	4920.6	
809.61	2846	
809.79	3121.1	
809.96	5498.1	
810.14	5068	
810.31	2775.7	
810.48	3338.2	
810.66	4588.8	
810.83	5091.9	
811.01	3194.8	
811.18	3475.4	
811.35	5125.4	
811.53	4016.7	
811.7	3781.9	
811.87	3462.4	
812.05	4551.3	
812.22	4443.4	
812.39	3123.2	
812.57	3020.8	
812.74	4569	
812.92	5801.2	
813.09	3347.7	
813.26	3562.1	
813.44	5560.2	
813.61	4401.1	
813.78	2796.2	
813.96	3683.6	
814.13	4537.6	
814.3	4283.7	
814.48	3914.4	
814.65	3270.6	
814.82	5403.9	
815	4317.1	
815.17	3381.9	
815.34	4051.6	
815.52	4432.5	
815.69	4418.8	
815.87	3333.4	
816.04	3338.2	
816.21	4471.4	
816.38	4105.5	
816.56	3281.5	
816.73	3074.7	
816.9	5612.8	
817.08	5087.2	
817.25	3072	
817.42	3773.7	
817.6	4210.6	
817.77	4545.8	
817.94	3424.9	
818.12	3041.9	
818.29	4350.6	
818.46	6298.9	
818.64	3224.2	
818.81	2971.6	
818.98	4308.9	
819.16	5880.4	
819.33	3606.5	
819.5	3432.4	
819.67	4820.9	
819.85	5372.5	
820.02	3324.5	
820.19	3465.2	
820.37	4700.1	
820.54	4404.5	
820.71	3442.6	
820.88	4229.1	
821.06	4694.6	
821.23	4313.7	
821.4	3495.2	
821.58	3414	
821.75	5055.8	
821.92	4640.7	
822.09	2815.3	
822.27	2942.9	
822.44	4493.2	
822.61	4445.5	
822.79	2871.3	
822.96	5167.7	
823.13	4807.3	
823.3	4272.1	
823.48	3263.1	
823.65	2972.3	
823.82	5128.1	
823.99	4202.4	
824.17	4027.7	
824.34	3016.7	
824.51	5796.4	
824.68	4605.9	
824.86	3201.7	
825.03	3402.4	
825.2	4516.5	
825.37	5365	
825.55	3053.5	
825.72	3370.3	
825.89	5791	
826.06	5389.6	
826.24	3352.5	
826.41	3302	
826.58	5408.7	
826.75	4750.6	
826.92	2743.6	
827.1	2919	
827.27	7019.8	
827.44	5745.2	
827.61	3196.9	
827.79	3790.1	
827.96	4339	
828.13	4580.6	
828.3	3274	
828.47	2816	
828.65	4821.6	
828.82	4772.4	
828.99	4100	
829.16	3622.2	
829.34	5031.9	
829.51	4886.5	
829.68	3383.2	
829.85	3490.4	
830.02	5361.6	
830.2	5063.9	
830.37	2668.5	
830.54	3992.2	
830.71	5656.5	
830.88	4559.5	
831.05	2703.3	
831.23	3063.1	
831.4	5495.4	
831.57	5955.5	
831.74	3164.8	
831.91	2831.7	
832.09	4882.4	
832.26	5032.5	
832.43	3226.2	
832.6	3633.1	
832.77	4813.4	
832.94	5352.7	
833.12	2698.5	
833.29	3188	
833.46	4894	
833.63	6112.5	
833.8	3485.6	
833.97	3248.8	
834.15	5132.9	
834.32	4900.1	
834.49	3366.9	
834.66	3428.3	
834.83	5162.9	
835	4375.1	
835.17	3130.7	
835.35	3115	
835.52	4956.1	
835.69	4837.3	
835.86	3319.1	
836.03	2692.4	
836.2	5059.8	
836.37	4747.2	
836.55	3220.8	
836.72	3074	
836.89	4692.6	
837.06	5117.9	
837.23	3278.8	
837.4	3569.6	
837.57	5691.3	
837.75	6171.2	
837.92	2952.5	
838.09	3205.8	
838.26	4702.8	
838.43	5191.6	
838.6	3409.9	
838.77	3063.8	
838.94	5829.2	
839.11	5634	
839.29	3248.1	
839.46	2594.1	
839.63	5072.1	
839.8	4828.4	
839.97	3167.5	
840.14	3140.2	
840.31	4909	
840.48	5128.8	
840.65	2652.1	
840.82	3133.4	
841	5046.9	
841.17	4909.7	
841.34	2892.4	
841.51	2967.5	
841.68	4984.8	
841.85	4768.4	
842.02	2998.2	
842.19	2578.4	
842.36	4844.1	
842.53	4819.6	
842.7	2969.6	
842.87	3497.9	
843.05	6148	
843.22	4743.8	
843.39	2815.3	
843.56	3052.2	
843.73	4644.8	
843.9	5151.3	
844.07	4538.3	
844.24	3814.7	
844.41	6912.6	
844.58	4457.1	
844.75	2856.2	
844.92	3074.7	
845.09	5051.7	
845.26	4999.8	
845.43	2923.8	
845.6	3065.1	
845.77	5038	
845.94	4816.1	
846.12	3173.7	
846.29	3351.2	
846.46	5310.4	
846.63	5021.6	
846.8	2947.7	
846.97	3411.9	
847.14	5335.6	
847.31	4954	
847.48	3245.3	
847.65	3564.1	
847.82	5230.5	
847.99	5188.9	
848.16	3744.4	
848.33	3547.1	
848.5	4700.8	
848.67	5301.5	
848.84	2855.6	
849.01	3020.1	
849.18	4573.1	
849.35	4376.5	
849.52	3562.1	
849.69	2833	
849.86	5236	
850.03	5278.3	
850.2	2975	
850.37	3541.6	
850.54	5274.2	
850.71	4713.1	
850.88	3448.8	
851.05	2834.4	
851.22	4932.9	
851.39	5412.1	
851.56	2734.7	
851.73	3311.6	
851.9	4450.9	
852.07	5195	
852.24	3162.1	
852.41	2887	
852.58	4989.5	
852.75	4567.7	
852.92	3215.3	
853.09	2863.1	
853.26	4673.5	
853.43	5339.1	
853.6	2877.4	
853.77	2573.6	
853.94	5442.1	
854.11	4451.6	
854.28	4158.1	
854.44	3115	
854.61	5776.6	
854.78	5266	
854.95	2899.9	
855.12	3486.3	
855.29	4142.4	
855.46	5470.8	
855.63	2900.6	
855.8	3916.4	
855.97	4603.2	
856.14	5307.7	
856.31	4013.3	
856.48	3125.2	
856.65	4688.5	
856.82	4385.4	
856.99	2794.1	
857.16	3097.2	
857.33	5924.1	
857.49	4764.9	
857.66	3114.3	
857.83	3296.5	
858	4784.7	
858.17	4911.7	
858.34	2737.5	
858.51	2897.2	
858.68	5558.9	
858.85	5530.2	
859.02	3360	
859.19	3523.9	
859.36	4405.2	
859.52	4457.1	
859.69	2961.4	
859.86	3411.2	
860.03	4513	
860.2	5392.3	
860.37	2667.8	
860.54	2938.8	
860.71	5179.3	
860.88	5487.2	
861.05	3203.7	
861.21	3648.1	
861.38	5463.3	
861.55	4370.4	
861.72	2681.5	
861.89	3206.4	
862.06	5259.9	
862.23	5588.9	
862.4	2825.5	
862.56	2980.5	
862.73	5020.9	
862.9	4841.4	
863.07	3367.5	
863.24	2612.5	
863.41	4403.1	
863.58	4509.6	
863.75	2926.5	
863.91	3359.4	
864.08	5395.7	
864.25	5108.3	
864.42	3522.5	
864.59	3932.1	
864.76	5675.6	
864.93	4476.9	
865.09	2784.6	
865.26	3065.8	
865.43	5370.5	
865.6	5664.7	
865.77	2568.2	
865.94	2891	
866.1	5356.8	
866.27	5108.3	
866.44	4229.1	
866.61	2795.5	
866.78	4802.5	
866.95	5154.1	
867.11	2841.2	
867.28	2593.4	
867.45	5279.7	
867.62	4465.3	
867.79	3295.2	
867.96	2921.8	
868.12	4403.1	
868.29	5233.9	
868.46	2933.4	
868.63	3751.9	
868.8	5314.5	
868.97	5071.5	
869.13	3009.8	
869.3	3001	
869.47	5040.7	
869.64	5215.5	
869.81	2902.7	
869.97	2953.2	
870.14	4922	
870.31	5487.2	
870.48	2850.8	
870.65	3594.9	
870.81	4762.2	
870.98	4816.8	
871.15	3243.3	
871.32	2971.6	
871.48	5068.7	
871.65	5525.4	
871.82	2865.1	
871.99	3180.5	
872.16	5836.7	
872.32	5332.9	
872.49	2951.1	
872.66	2925.9	
872.83	5143.8	
872.99	4559.5	
873.16	3255.6	
873.33	2880.8	
873.5	4833.9	
873.67	4894.6	
873.83	3038.5	
874	3762.1	
874.17	4998.4	
874.34	5715.9	
874.5	3644	
874.67	3573.7	
874.84	5472.2	
875.01	4361.5	
875.17	3987.4	
875.34	2866.5	
875.51	4941.7	
875.68	5827.8	
875.84	3426.9	
876.01	4054.3	
876.18	5107.6	
876.34	5059.2	
876.51	2862.4	
876.68	2893.1	
876.85	4708.3	
877.01	5416.2	
877.18	3953.9	
877.35	2861.7	
877.52	4885.8	
877.68	4398.4	
877.85	2850.1	
878.02	2861.7	
878.18	4773.1	
878.35	4666	
878.52	2384.5	
878.69	3168.2	
878.85	5281	
879.02	5092.6	
879.19	4036.5	
879.35	3108.8	
879.52	5130.8	
879.69	5236.7	
879.86	2550.4	
880.02	3207.8	
880.19	4876.2	
880.36	5758.9	
880.52	3263.8	
880.69	3414	
880.86	5189.6	
881.02	5193.6	
881.19	3158	
881.36	3084.2	
881.52	5074.9	
881.69	4582	
881.86	3147.7	
882.02	3079.5	
882.19	5337.7	
882.36	6094.1	
882.52	2942.9	
882.69	4014	
882.86	5014.1	
883.02	4921.3	
883.19	3456.3	
883.36	3253.5	
883.52	5251.7	
883.69	5881.1	
883.86	2912.9	
884.02	2647.3	
884.19	5217.5	
884.36	4883.7	
884.52	3238.5	
884.69	3074	
884.86	4687.8	
885.02	5542.5	
885.19	3245.3	
885.36	3278.8	
885.52	4831.2	
885.69	4965	
885.86	4134.2	
886.02	3608.5	
886.19	5208.7	
886.35	4675.5	
886.52	3109.5	
886.69	3943	
886.85	4467.3	
887.02	5449	
887.19	5449	
887.35	5449	
887.52	5449	
887.68	5449	
887.85	5449	
888.02	5449	
888.18	5449	
888.35	5449	
888.51	5449	
888.68	5449	
888.85	5449	
889.01	5449	
889.18	5449	
889.35	5449	
889.51	5449	
889.68	5449	
889.84	5449	
890.01	5449	
890.17	5449	
890.34	5449	
890.51	5449	
890.67	5449	
890.84	5449	
891	5449	
891.17	5449	
891.34	5449	
891.5	5449	
891.67	5449	
891.83	5449	
892	5449	
892.16	5449	
892.33	5449	
892.5	5449	
892.66	5449	
892.83	5449	
892.99	5449	
893.16	5449	
893.32	5449	
893.49	5449	
893.65	5449	
893.82	5449	
893.99	5449	
894.15	5449	
894.32	5449	
894.48	5449	
894.65	5449	
894.81	5449	
894.98	5449	
895.14	5449	
895.31	5449	
895.47	5449	
895.64	5449	
895.81	5449	
895.97	5449	
896.14	5449	
896.3	5449	
896.47	5449	
896.63	5449	
896.8	5449	
896.96	5449	
897.13	5449	
897.29	5449	
897.46	5449	
897.62	5449	
897.79	5449	
897.95	5449	
898.12	5449	
898.28	5449	
898.45	5449	
898.61	5449	
898.78	5449	
898.94	5449	
899.11	5449	
899.27	5449	
899.44	5449	
899.6	5449	
899.77	5449	
899.93	5449	
900.1	5449	
900.26	5449	
900.43	5449	
900.59	5449	
900.76	5449	
900.92	5449	
901.09	5449	
901.25	5449	
901.42	5449	
901.58	5449	
901.75	5449	
901.91	5449	
902.07	5449	
902.24	5449	
902.4	5449	
902.57	5449	
902.73	5449	
902.9	5449	
903.06	5449	
903.23	5449	
903.39	5449	
903.56	5449	
903.72	5449	
903.88	5449	
904.05	5449	
904.21	5449	
904.38	5449	
904.54	5449	
904.71	5449	
904.87	5449	
905.03	5449	
905.2	5449	
905.36	5449	
905.53	5449	
905.69	5449	
905.86	5449	
906.02	5449	
906.18	5449	
906.35	5449	
906.51	5449	
906.68	5449	
906.84	5449	
907.01	5449	
907.17	5449	
907.33	5449	
907.5	5449	
907.66	5449	
907.83	5449	
907.99	5449	
908.15	5449	
908.32	5449	
908.48	5449	
908.65	5449	
908.81	5449	
908.97	5449	
909.14	5449	
909.3	5449	
909.47	5449	
909.63	5449	
909.79	5449	
909.96	5449	
910.12	5449	
910.28	5449	
910.45	5449	
910.61	5449	
910.78	5449	
910.94	5449	
911.1	5449	
911.27	5449	
911.43	5449	
911.59	5449	
911.76	5449	
911.92	5449	
912.08	5449	
912.25	5449	
912.41	5449	
912.57	5449	
912.74	5449	
912.9	5449	
913.07	5449	
913.23	5449	
913.39	5449	
913.56	5449	
913.72	5449	
913.88	5449	
914.05	5449	
914.21	5449	
914.37	5449	
914.54	5449	
914.7	5449	
914.86	5449	
915.03	5449	
915.19	5449	
