Wavelength	Intensities	
nm	a.u.	
179.22	1914.5	
179.44	1905.3	
179.65	1923.7	
179.86	1886.9	
180.08	1930.6	
180.29	4891.2	
180.51	3527.3	
180.72	5661.3	
180.94	6665.5	
181.15	3182.5	
181.37	3227.6	
181.58	5511.8	
181.79	5797.8	
182.01	3403.7	
182.22	3650.8	
182.44	5763	
182.65	4871.4	
182.87	4560.8	
183.08	4029.7	
183.29	6108.4	
183.51	5033.2	
183.72	3630.4	
183.94	5402.5	
184.15	5417.6	
184.37	5429.2	
184.58	3209.2	
184.79	4433.9	
185.01	5035.3	
185.22	5754.1	
185.44	4734.9	
185.65	3915	
185.86	5270.8	
186.08	4889.9	
186.29	3127.2	
186.51	3388.7	
186.72	5057.1	
186.94	5944.6	
187.15	3956.7	
187.36	4016.1	
187.58	7776.8	
187.79	5545.9	
188.01	4240	
188.22	6576	
188.43	6648.4	
188.65	5799.2	
188.86	3429.7	
189.08	4011.3	
189.29	5251.7	
189.5	5270.1	
189.72	3774.4	
189.93	3868.6	
190.15	6012.8	
190.36	7187.7	
190.57	4115.7	
190.79	3966.2	
191	6077.7	
191.22	6038.1	
191.43	4155.3	
191.64	3354.6	
191.86	6205.3	
192.07	6065.4	
192.29	3557.3	
192.5	3708.9	
192.71	5983.5	
192.93	5170.4	
193.14	3715.7	
193.35	3843.4	
193.57	5193	
193.78	5958.9	
194	3018.7	
194.21	3630.4	
194.42	4965.6	
194.64	5459.2	
194.85	4110.3	
195.07	4789.5	
195.28	5474.2	
195.49	4696.7	
195.71	4975.2	
195.92	3463.1	
196.13	5638.7	
196.35	5748.6	
196.56	5388.9	
196.78	4111	
196.99	7065.5	
197.2	6630	
197.42	4582.7	
197.63	4065.9	
197.84	4889.9	
198.06	5641.5	
198.27	3798.3	
198.48	5010	
198.7	5234.6	
198.91	5325.4	
199.13	4055.7	
199.34	4111.6	
199.55	5845.6	
199.77	4738.3	
199.98	3582.6	
200.19	4127.3	
200.41	5323.4	
200.62	4980	
200.83	4300.7	
201.05	4592.2	
201.26	5317.9	
201.47	5098.8	
201.69	3611.9	
201.9	3488.4	
202.11	5397.1	
202.33	6412.9	
202.54	3885.7	
202.76	4296.6	
202.97	5534.3	
203.18	5523.4	
203.4	4272.1	
203.61	4216.1	
203.82	5540.4	
204.04	5124.7	
204.25	4131.4	
204.46	3963.5	
204.68	5457.8	
204.89	5681.7	
205.1	4011.3	
205.32	3366.9	
205.53	5874.3	
205.74	5976.7	
205.96	2935.4	
206.17	4152.6	
206.38	5836.7	
206.6	5918.6	
206.81	4677.6	
207.02	3852.9	
207.24	5666.7	
207.45	6059.9	
207.66	3938.9	
207.88	3325.9	
208.09	5665.4	
208.3	5440.1	
208.52	3540.9	
208.73	3869.3	
208.94	5458.5	
209.15	6150.7	
209.37	3885	
209.58	4110.3	
209.79	5923.4	
210.01	5253.7	
210.22	3107.5	
210.43	3217.4	
210.65	5455.1	
210.86	5825.8	
211.07	3885.7	
211.29	3607.2	
211.5	5812.1	
211.71	5342.5	
211.93	3580.5	
212.14	3588.7	
212.35	5377.3	
212.56	5593	
212.78	4139.6	
212.99	3411.2	
213.2	6393.8	
213.42	5147.2	
213.63	3708.9	
213.84	3953.9	
214.06	4799.1	
214.27	4901.5	
214.48	3848.8	
214.69	4127.3	
214.91	6067.4	
215.12	6137.1	
215.33	4213.4	
215.55	4627.7	
215.76	6744	
215.97	5822.4	
216.18	4024.3	
216.4	3925.3	
216.61	5083.1	
216.82	5913.2	
217.04	3607.8	
217.25	3737.5	
217.46	6131.6	
217.67	5834	
217.89	3171.6	
218.1	3361.4	
218.31	5528.8	
218.53	5617.6	
218.74	3762.8	
218.95	3642	
219.16	5340.4	
219.38	6352.8	
219.59	3577.8	
219.8	4386.7	
220.01	7014.3	
220.23	5440.8	
220.44	4782	
220.65	3522.5	
220.87	5481.7	
221.08	6015.6	
221.29	3315.7	
221.5	4419.5	
221.72	7501.7	
221.93	5127.4	
222.14	4150.5	
222.35	4861.9	
222.57	5430.5	
222.78	5823.7	
222.99	3846.1	
223.2	4215.4	
223.42	5782.1	
223.63	5884.5	
223.84	3022.8	
224.05	2974.3	
224.27	6894.8	
224.48	6344.6	
224.69	4845.5	
224.9	4104.1	
225.12	5637.4	
225.33	5358.2	
225.54	3260.4	
225.75	3627.6	
225.97	5044.1	
226.18	5270.1	
226.39	4001	
226.6	3685	
226.82	5193.6	
227.03	5060.5	
227.24	4123.9	
227.45	3379.1	
227.67	5770.5	
227.88	6455.9	
228.09	4542.4	
228.3	4670.1	
228.52	5844.2	
228.73	5421.7	
228.94	3782.6	
229.15	3358.7	
229.36	5355.4	
229.58	5261.9	
229.79	3852.2	
230	4437.9	
230.21	6533	
230.43	5541.8	
230.64	4094.6	
230.85	4280.9	
231.06	5825.1	
231.28	5917.3	
231.49	3388.7	
231.7	3956.7	
231.91	5722.7	
232.12	5461.2	
232.34	3444.7	
232.55	3932.8	
232.76	6093.4	
232.97	5653.8	
233.18	3569.6	
233.4	4047.5	
233.61	5659.9	
233.82	5295.4	
234.03	3729.4	
234.25	3649.5	
234.46	7637.6	
234.67	5522	
234.88	4170.3	
235.09	3592.8	
235.31	5770.5	
235.52	5287.2	
235.73	4060.4	
235.94	3406.5	
236.15	5200.5	
236.37	6630	
236.58	3596.2	
236.79	3930.1	
237	5713.8	
237.21	4903.5	
237.43	4248.2	
237.64	3314.3	
237.85	9923.8	
238.06	4973.2	
238.27	4294.6	
238.48	3386.7	
238.7	5767.1	
238.91	5289.9	
239.12	3911.6	
239.33	3925.3	
239.54	5006.6	
239.76	5393.7	
239.97	3826.3	
240.18	3891.1	
240.39	6839.5	
240.6	5694	
240.82	4044.1	
241.03	3328.6	
241.24	5401.2	
241.45	6328.2	
241.66	3628.3	
241.87	4265.2	
242.09	6163.7	
242.3	6533.7	
242.51	4302.8	
242.72	3900.7	
242.93	5917.3	
243.14	5409.4	
243.36	4567	
243.57	4903.5	
243.78	6312.5	
243.99	5794.4	
244.2	3917.1	
244.41	3579.2	
244.63	4988.9	
244.84	5772.5	
245.05	4214	
245.26	3985.3	
245.47	5684.5	
245.68	6010.1	
245.9	5201.8	
246.11	4190.1	
246.32	5344.5	
246.53	5709.7	
246.74	6368.5	
246.95	3302.7	
247.16	4932.2	
247.38	5432.6	
247.59	3267.9	
247.8	3970.3	
248.01	5084.4	
248.22	5437.4	
248.43	3564.8	
248.64	3781.2	
248.86	4808.6	
249.07	5162.2	
249.28	3416	
249.49	4069.3	
249.7	6032	
249.91	6096.1	
250.12	3275.4	
250.34	3294.5	
250.55	5513.1	
250.76	5381.4	
250.97	4033.8	
251.18	4113.7	
251.39	6183.5	
251.6	5653.1	
251.81	4185.4	
252.03	4135.5	
252.24	5139	
252.45	5969.1	
252.66	3397.6	
252.87	4377.2	
253.08	5464	
253.29	7150.8	
253.5	3380.5	
253.72	4782.7	
253.93	5218.2	
254.14	6517.3	
254.35	3732.8	
254.56	3861.1	
254.77	5696.1	
254.98	5010.7	
255.19	3701.4	
255.41	4801.1	
255.62	5500.8	
255.83	6104.3	
256.04	4223.6	
256.25	4106.2	
256.46	6705	
256.67	5061.9	
256.88	4019.5	
257.09	4592.9	
257.31	5145.9	
257.52	5146.5	
257.73	5075.5	
257.94	3708.2	
258.15	5237.3	
258.36	5487.2	
258.57	4717.2	
258.78	2969.6	
258.99	5896.8	
259.2	5233.2	
259.41	3822.2	
259.63	3935.5	
259.84	6278.4	
260.05	6776	
260.26	4952	
260.47	3663.1	
260.68	6047.7	
260.89	5380.7	
261.1	4498.7	
261.31	3536.2	
261.52	6032	
261.73	6406.7	
261.95	4841.4	
262.16	4191.5	
262.37	6128.9	
262.58	6272.9	
262.79	4930.1	
263	3800.3	
263.21	5448.3	
263.42	4987.5	
263.63	3842	
263.84	3792.8	
264.05	6000.5	
264.26	6367.1	
264.47	4713.7	
264.69	4204.5	
264.9	6143.9	
265.11	5655.8	
265.32	3613.3	
265.53	3806.5	
265.74	5572.5	
265.95	4866	
266.16	4016.1	
266.37	4426.3	
266.58	5546.6	
266.79	5248.3	
267	3665.9	
267.21	3479.5	
267.42	5016.2	
267.63	5452.4	
267.84	3855	
268.06	3349.1	
268.27	5833.3	
268.48	6201.2	
268.69	3835.2	
268.9	4518.5	
269.11	6128.2	
269.32	4915.1	
269.53	3934.1	
269.74	3633.8	
269.95	5825.8	
270.16	4797.7	
270.37	3907.5	
270.58	4559.5	
270.79	5279.7	
271	5989.6	
271.21	4218.1	
271.42	3956.7	
271.63	5545.9	
271.84	5093.3	
272.05	3102	
272.26	3483.6	
272.47	5487.2	
272.68	5665.4	
272.89	3748.5	
273.11	4383.3	
273.32	5265.3	
273.53	6417	
273.74	4257.7	
273.95	4182	
274.16	6113.2	
274.37	5511.1	
274.58	4214.7	
274.79	3437.2	
275	5597.1	
275.21	6130.3	
275.42	5187.5	
275.63	4448.2	
275.84	5701.5	
276.05	7212.9	
276.26	4156	
276.47	3851.5	
276.68	5305.6	
276.89	6496.8	
277.1	4466.6	
277.31	3437.9	
277.52	5689.9	
277.73	5861.3	
277.94	3431	
278.15	3791.5	
278.36	5667.4	
278.57	5104.2	
278.78	3706.1	
278.99	4252.9	
279.2	5023	
279.41	5061.2	
279.62	4928.8	
279.83	3487.7	
280.04	6675	
280.25	4886.5	
280.46	5017.5	
280.67	3866.6	
280.88	5042.8	
281.09	6109.8	
281.3	4158.1	
281.51	5249.6	
281.72	5937.7	
281.93	6022.4	
282.14	3613.3	
282.35	3947.1	
282.56	5964.4	
282.77	5831.2	
282.98	3802.4	
283.19	4635.9	
283.4	7319.4	
283.61	5390.3	
283.82	3405.8	
284.03	4922.6	
284.24	5572.5	
284.45	6068.1	
284.66	4934.9	
284.87	4685.1	
285.08	5974.6	
285.29	6166.4	
285.5	3336.8	
285.71	3857	
285.92	6120	
286.12	6708.5	
286.33	4880.3	
286.54	3791.5	
286.75	5920	
286.96	5360.2	
287.17	3465.2	
287.38	4709.6	
287.59	5041.4	
287.8	4942.4	
288.01	3891.1	
288.22	4400.4	
288.43	5968.5	
288.64	4924.7	
288.85	4485.7	
289.06	4384.7	
289.27	6047.7	
289.48	6425.8	
289.69	4862.6	
289.9	4493.2	
290.11	6128.9	
290.32	5220.3	
290.53	4594.3	
290.74	4235.2	
290.94	5890	
291.15	5960.3	
291.36	3725.3	
291.57	4407.9	
291.78	5164.3	
291.99	4854.4	
292.2	3523.9	
292.41	4186.7	
292.62	6035.4	
292.83	5808.7	
293.04	5228.5	
293.25	3522.5	
293.46	5254.4	
293.67	6049.7	
293.88	3661.8	
294.09	3515.7	
294.29	4969.1	
294.5	5564.3	
294.71	3947.1	
294.92	3812.6	
295.13	5221	
295.34	6599.9	
295.55	3371	
295.76	3314.3	
295.97	5867.4	
296.18	6625.2	
296.39	3448.8	
296.6	3713	
296.81	5572.5	
297.01	5866.7	
297.22	3813.3	
297.43	3666.5	
297.64	5105.6	
297.85	5105.6	
298.06	3003	
298.27	3295.9	
298.48	5528.8	
298.69	5214.1	
298.9	4006.5	
299.11	3579.2	
299.31	4996.4	
299.52	4951.3	
299.73	4256.4	
299.94	4181.3	
300.15	5437.4	
300.36	5027.1	
300.57	4229.1	
300.78	4147.8	
300.99	5330.9	
301.2	5589.6	
301.4	3617.4	
301.61	4012.7	
301.82	5794.4	
302.03	5879	
302.24	4456.4	
302.45	3486.3	
302.66	5778.7	
302.87	6206.7	
303.08	3670.6	
303.29	5042.1	
303.49	5237.3	
303.7	5461.9	
303.91	3251.5	
304.12	4816.1	
304.33	4967.7	
304.54	5582.8	
304.75	3720.5	
304.96	3549.1	
305.16	5771.2	
305.37	6524.8	
305.58	3216.7	
305.79	3339.6	
306	5790.3	
306.21	4881	
306.42	3589.4	
306.63	5644.9	
306.83	5310.4	
307.04	6066.1	
307.25	4044.7	
307.46	4059.1	
307.67	4670.1	
307.88	5921.4	
308.09	3573	
308.29	3824.2	
308.5	5573.9	
308.71	6084.5	
308.92	3934.1	
309.13	3536.2	
309.34	5411.4	
309.55	5376.6	
309.75	4607.2	
309.96	4207.2	
310.17	5883.1	
310.38	5152	
310.59	4462.5	
310.8	3462.4	
311.01	6540.5	
311.21	5304.9	
311.42	3549.8	
311.63	3670.6	
311.84	5205.3	
312.05	5542.5	
312.26	4103.4	
312.46	4530.8	
312.67	5320.6	
312.88	4995.7	
313.09	3559.4	
313.3	3517	
313.51	6253.8	
313.71	6581.5	
313.92	3498.6	
314.13	3743	
314.34	5611.4	
314.55	5365	
314.76	4621.6	
314.96	4036.5	
315.17	5515.2	
315.38	6012.8	
315.59	3590.1	
315.8	3436.5	
316.01	6330.3	
316.21	6395.8	
316.42	3400.3	
316.63	3934.8	
316.84	5292	
317.05	6176	
317.26	4184.7	
317.46	3736.2	
317.67	5375.9	
317.88	5862	
318.09	4522.6	
318.3	3327.3	
318.5	5170.4	
318.71	5814.2	
318.92	5775.3	
319.13	4121.9	
319.34	5978.7	
319.54	6107.7	
319.75	3266.5	
319.96	3151.1	
320.17	5859.9	
320.38	5955.5	
320.58	3219.4	
320.79	3910.3	
321	6057.9	
321.21	6202.6	
321.42	3934.1	
321.62	3247.4	
321.83	5042.1	
322.04	5437.4	
322.25	3759.4	
322.46	3567.6	
322.66	5625.8	
322.87	5730.9	
323.08	4457.7	
323.29	3487	
323.5	6533	
323.7	5036	
323.91	4911.7	
324.12	4327.4	
324.33	5557.5	
324.53	5801.2	
324.74	4199.7	
324.95	4455.7	
325.16	4900.1	
325.37	5255.1	
325.57	3533.4	
325.78	3644	
325.99	5561.6	
326.2	4918.5	
326.4	5217.5	
326.61	3282.9	
326.82	5380.7	
327.03	5611.4	
327.24	5096.7	
327.44	4850.3	
327.65	5693.4	
327.86	4586.1	
328.07	4168.3	
328.27	3330	
328.48	6120	
328.69	5001.8	
328.9	5162.9	
329.1	3796.9	
329.31	5342.5	
329.52	6324.8	
329.73	3506.1	
329.93	4032.5	
330.14	5467.4	
330.35	5736.4	
330.56	5828.5	
330.76	4433.9	
330.97	5287.2	
331.18	5685.2	
331.39	3982.6	
331.59	3224.2	
331.8	6036	
332.01	6227.9	
332.22	3710.2	
332.42	4207.2	
332.63	5580.7	
332.84	5141.1	
333.05	4045.4	
333.25	3620.1	
333.46	5211.4	
333.67	5478.3	
333.88	3728	
334.08	4155.3	
334.29	7261.4	
334.5	6180.8	
334.7	3502	
334.91	5170.4	
335.12	5034.6	
335.33	5836	
335.53	3963.5	
335.74	5920	
335.95	5212.8	
336.16	5049.6	
336.36	3960.1	
336.57	4539.7	
336.78	4982	
336.98	6117.3	
337.19	4892.6	
337.4	3920.5	
337.61	6576.7	
337.81	4982	
338.02	3697.9	
338.23	4717.2	
338.43	6249.7	
338.64	5110.4	
338.85	3605.1	
339.05	4762.2	
339.26	6350.1	
339.47	4919.2	
339.68	3556	
339.88	5331.5	
340.09	5695.4	
340.3	5978	
340.5	4153.3	
340.71	3204.4	
340.92	4918.5	
341.13	6155.5	
341.33	3470.6	
341.54	4203.1	
341.75	5687.2	
341.95	5331.5	
342.16	4019.5	
342.37	4382.7	
342.57	5061.2	
342.78	5435.3	
342.99	4435.2	
343.19	3208.5	
343.4	5924.1	
343.61	5708.4	
343.81	3760.8	
344.02	3523.9	
344.23	5874.9	
344.43	6259.3	
344.64	4476.9	
344.85	4374.5	
345.06	5778.7	
345.26	6019.7	
345.47	4158.1	
345.68	4898.7	
345.88	4765.6	
346.09	5936.4	
346.3	4237.2	
346.5	3166.8	
346.71	5456.5	
346.92	5172.5	
347.12	3267.9	
347.33	4126.7	
347.54	6047.7	
347.74	6485.9	
347.95	4047.5	
348.16	3005.7	
348.36	5249.6	
348.57	4967.7	
348.78	4117.8	
348.98	4421.6	
349.19	5416.9	
349.39	4915.1	
349.6	3312.2	
349.81	3615.3	
350.01	5752.1	
350.22	5171.8	
350.43	3966.9	
350.63	4814.8	
350.84	5492.7	
351.05	5264	
351.25	3603.1	
351.46	3272	
351.67	6065.4	
351.87	5147.2	
352.08	3827.7	
352.29	4437.3	
352.49	5922	
352.7	6054.5	
352.9	3460.4	
353.11	4407.9	
353.32	6598.6	
353.52	5292.6	
353.73	3465.8	
353.94	4420.2	
354.14	5768.4	
354.35	5683.8	
354.55	3588	
354.76	3951.9	
354.97	5741.1	
355.17	5492	
355.38	3360.7	
355.59	4680.3	
355.79	5190.2	
356	5666	
356.2	3951.9	
356.41	3454.2	
356.62	4907.6	
356.82	5433.3	
357.03	4255.7	
357.24	3892.5	
357.44	5165	
357.65	5307.7	
357.85	5104.9	
358.06	4035.2	
358.27	4934.2	
358.47	5215.5	
358.68	3379.8	
358.88	4211.3	
359.09	5750.7	
359.3	6133	
359.5	4985.4	
359.71	4433.9	
359.91	6671.6	
360.12	5948.7	
360.33	4235.9	
360.53	4777.2	
360.74	5265.3	
360.94	5290.6	
361.15	4493.2	
361.36	3644	
361.56	6017.6	
361.77	5477	
361.97	4975.2	
362.18	3913.7	
362.38	6049	
362.59	5139.7	
362.8	3634.5	
363	3422.8	
363.21	4906.3	
363.41	5624.4	
363.62	4208.6	
363.83	5223.7	
364.03	5677.7	
364.24	6737.1	
364.44	5321.3	
364.65	5350	
364.85	5465.3	
365.06	5328.1	
365.27	3842.7	
365.47	3919.1	
365.68	6465.4	
365.88	5395.7	
366.09	4244.8	
366.29	3942.3	
366.5	5692.7	
366.71	6196.5	
366.91	5354.8	
367.12	4445.5	
367.32	6794.5	
367.53	6024.4	
367.73	4366.3	
367.94	5346.6	
368.14	5920.7	
368.35	6968.6	
368.56	4368.3	
368.76	4148.5	
368.97	6077	
369.17	7759.1	
369.38	3872.7	
369.58	4174.4	
369.79	5132.9	
369.99	6429.9	
370.2	5212.8	
370.4	4235.2	
370.61	5735.7	
370.82	7026.6	
371.02	4180.6	
371.23	3469.9	
371.43	5013.4	
371.64	6365.1	
371.84	4165.6	
372.05	5425.1	
372.25	7707.2	
372.46	6143.2	
372.66	4184.7	
372.87	4164.9	
373.07	6148.7	
373.28	7847.8	
373.48	5274.9	
373.69	4932.2	
373.9	5659.9	
374.1	5699.5	
374.31	5193	
374.51	4766.3	
374.72	6563.1	
374.92	5380.7	
375.13	5410.7	
375.33	4550.6	
375.54	6204	
375.74	5552	
375.95	4666.6	
376.15	5943.2	
376.36	6150.1	
376.56	6004	
376.77	4715.1	
376.97	5211.4	
377.18	7350.2	
377.38	6335	
377.59	5589.6	
377.79	4297.3	
378	6093.4	
378.2	6582.9	
378.41	4298	
378.61	4240.7	
378.82	6579.4	
379.02	5680.4	
379.23	4521.9	
379.43	5709.1	
379.64	6667.5	
379.84	6335.7	
380.05	4351.9	
380.25	4261.1	
380.46	6363.7	
380.66	5973.2	
380.87	5676.3	
381.07	6096.8	
381.28	6985.6	
381.48	6362.4	
381.69	4354	
381.89	4387.4	
382.1	5308.3	
382.3	6507.1	
382.51	5460.6	
382.71	6415.6	
382.91	6385.6	
383.12	6908.5	
383.32	4730.1	
383.53	4932.2	
383.73	6190.3	
383.94	6020.3	
384.14	4856.4	
384.35	3976.5	
384.55	5924.1	
384.76	6390.3	
384.96	4671.4	
385.17	4999.1	
385.37	6338.5	
385.58	5603.9	
385.78	5066.7	
385.98	3899.3	
386.19	5829.2	
386.39	6244.3	
386.6	4469.4	
386.8	4767	
387.01	6372.6	
387.21	6398.5	
387.42	5169.8	
387.62	5728.9	
387.83	5668.8	
388.03	6444.3	
388.23	4843.4	
388.44	5597.8	
388.64	5427.1	
388.85	5529.5	
389.05	5160.2	
389.26	5864	
389.46	7488.1	
389.67	6881.2	
389.87	5165.7	
390.07	5237.3	
390.28	6001.2	
390.48	5623.7	
390.69	4465.9	
390.89	4776.5	
391.1	5836	
391.3	6818.4	
391.5	5964.4	
391.71	6617	
391.91	6486.6	
392.12	7567.9	
392.32	5972.6	
392.53	5221.6	
392.73	5823.1	
392.93	6135	
393.14	4891.9	
393.34	5609.4	
393.55	6498.9	
393.75	6054.5	
393.95	4825	
394.16	4812	
394.36	5807.4	
394.57	6552.8	
394.77	4324.6	
394.98	4797.7	
395.18	5908.4	
395.38	6064	
395.59	5775.3	
395.79	4669.4	
396	6066.1	
396.2	6567.2	
396.4	5583.4	
396.61	5503.6	
396.81	6780.8	
397.02	5995.8	
397.22	5879.7	
397.42	5915.2	
397.63	6749.4	
397.83	5965.1	
398.04	4722.6	
398.24	5242.8	
398.44	6535.1	
398.65	5578	
398.85	4601.8	
399.05	4801.8	
399.26	5969.1	
399.46	7757	
399.67	5059.2	
399.87	4885.1	
400.07	6407.4	
400.28	6695.5	
400.48	4957.4	
400.69	6038.8	
400.89	7094.2	
401.09	7480.5	
401.3	4900.8	
401.5	6021	
401.7	7672.4	
401.91	7920.2	
402.11	5134.3	
402.32	5352.7	
402.52	6963.8	
402.72	6794.5	
402.93	5528.8	
403.13	4385.4	
403.33	7729	
403.54	6346.7	
403.74	5305.6	
403.94	6132.3	
404.15	6432.7	
404.35	7685.3	
404.56	5076.9	
404.76	6933.1	
404.96	6957.6	
405.17	6689.3	
405.37	6638.8	
405.57	5599.8	
405.78	7047.1	
405.98	6454.5	
406.18	5102.2	
406.39	6133	
406.59	6962.4	
406.79	6606.1	
407	4937	
407.2	4952	
407.4	7064.8	
407.61	7213.6	
407.81	5146.5	
408.01	7069.6	
408.22	6106.4	
408.42	8246.5	
408.62	6428.6	
408.83	5877.7	
409.03	6941.9	
409.23	6724.2	
409.44	6029.9	
409.64	6328.9	
409.84	7866.9	
410.05	7890.1	
410.25	6305.7	
410.45	5953.4	
410.66	7354.3	
410.86	9864.4	
411.06	6483.9	
411.27	6441.5	
411.47	9807	
411.67	7629.4	
411.88	6632.7	
412.08	6977.4	
412.28	8342.7	
412.49	8867	
412.69	6449.7	
412.89	6449.1	
413.09	8692.9	
413.3	8609.7	
413.5	6660	
413.7	6146.6	
413.91	7723.6	
414.11	8699.1	
414.31	6449.1	
414.52	6911.9	
414.72	8441	
414.92	8292.2	
415.12	6414.2	
415.33	6967.2	
415.53	8757.1	
415.73	8915.5	
415.94	7391.1	
416.14	6815	
416.34	7647.1	
416.55	7483.3	
416.75	8146.8	
416.95	7389.8	
417.15	8801.5	
417.36	9469.1	
417.56	8369.4	
417.76	7333.8	
417.97	9224.7	
418.17	8834.9	
418.37	6786.3	
418.57	6969.2	
418.78	8613.8	
418.98	8193.9	
419.18	7833.5	
419.38	7648.5	
419.59	8264.9	
419.79	7850.5	
419.99	6834.1	
420.2	7121.5	
420.4	8727.8	
420.6	8899.8	
420.8	6698.9	
421.01	6509.8	
421.21	8614.4	
421.41	8859.5	
421.61	7126.9	
421.82	6753.5	
422.02	8035.5	
422.22	9027.4	
422.42	7687.4	
422.63	7126.2	
422.83	8224	
423.03	9441.1	
423.23	7146.7	
423.44	6184.9	
423.64	8230.8	
423.84	7962.5	
424.04	6580.1	
424.25	6242.2	
424.45	9182.4	
424.65	9082.1	
424.85	6081.8	
425.06	6593.1	
425.26	9047.2	
425.46	8064.2	
425.66	7069.6	
425.87	6769.2	
426.07	8755.1	
426.27	8644.5	
426.47	6907.1	
426.67	6249.7	
426.88	9075.9	
427.08	8581	
427.28	7210.2	
427.48	6270.9	
427.69	7388.4	
427.89	8080.6	
428.09	7155.6	
428.29	6266.1	
428.5	8827.4	
428.7	8409	
428.9	6163	
429.1	6839.5	
429.3	8237.6	
429.51	8691.6	
429.71	6412.9	
429.91	7348.8	
430.11	8627.4	
430.31	8949.6	
430.52	6880.5	
430.72	7197.9	
430.92	9280	
431.12	8707.3	
431.32	6567.8	
431.53	6915.3	
431.73	7624.6	
431.93	9377.6	
432.13	6460.7	
432.33	6268.8	
432.54	8084.7	
432.74	8540	
432.94	6411.5	
433.14	7388.4	
433.34	8660.2	
433.55	8198	
433.75	7420.5	
433.95	9170.1	
434.15	8400.8	
434.35	8168	
434.56	6548	
434.76	6070.9	
434.96	8451.3	
435.16	8845.2	
435.36	6487.3	
435.56	7670.3	
435.77	8190.5	
435.97	8372.8	
436.17	8447.2	
436.37	7596.6	
436.57	8107.9	
436.78	8108.6	
436.98	9377.6	
437.18	8116.1	
437.38	8948.9	
437.58	8241	
437.78	8213	
437.99	6794.5	
438.19	8817.9	
438.39	9662.3	
438.59	6812.9	
438.79	6202.6	
438.99	9526.5	
439.2	8286.1	
439.4	6447	
439.6	6365.1	
439.8	8687.5	
440	9763.3	
440.2	7613	
440.4	7795.9	
440.61	9215.2	
440.81	9834.3	
441.01	6805.4	
441.21	7800	
441.41	9631.6	
441.61	9142.1	
441.81	8107.2	
442.02	9184.5	
442.22	10056	
442.42	9273.9	
442.62	6952.9	
442.82	6967.9	
443.02	9646.6	
443.22	8781	
443.43	7424.6	
443.63	6995.2	
443.83	8507.3	
444.03	8615.8	
444.23	8236.9	
444.43	7797.3	
444.63	8944.2	
444.83	10226	
445.04	7081.9	
445.24	8273.8	
445.44	9166.7	
445.64	9269.8	
445.84	7785	
446.04	7788.4	
446.24	8485.4	
446.44	9632.3	
446.65	6939.2	
446.85	7411.6	
447.05	8585.8	
447.25	9524.4	
447.45	7482.6	
447.65	6756.9	
447.85	8831.5	
448.05	8350.3	
448.25	7899	
448.46	7679.2	
448.66	8893.6	
448.86	8526.4	
449.06	6606.7	
449.26	7933.1	
449.46	9211.8	
449.66	8259.5	
449.86	7455.3	
450.06	7351.5	
450.26	8472.4	
450.47	9065.7	
450.67	7559.1	
450.87	7973.4	
451.07	9158.5	
451.27	8979	
451.47	6906.4	
451.67	7535.2	
451.87	8655.4	
452.07	9729.9	
452.27	7251.9	
452.47	7043	
452.67	8828.1	
452.88	9559.2	
453.08	6479.8	
453.28	8588.5	
453.48	10252	
453.68	8777.6	
453.88	7146	
454.08	7430	
454.28	9301.9	
454.48	8964	
454.68	7821.9	
454.88	8505.2	
455.08	9427.5	
455.28	9301.2	
455.48	6970.6	
455.68	7813.7	
455.89	10035	
456.09	9712.8	
456.29	7447.8	
456.49	7559.7	
456.69	9944.9	
456.89	9158.5	
457.09	8219.9	
457.29	8529.1	
457.49	9620	
457.69	9831.6	
457.89	7977.5	
458.09	7406.1	
458.29	9337.4	
458.49	10109	
458.69	8490.2	
458.89	7849.9	
459.09	10441	
459.29	10532	
459.49	8094.9	
459.69	8843.8	
459.9	9914.9	
460.1	9538.1	
460.3	7835.5	
460.5	7634.8	
460.7	9970.9	
460.9	9618.6	
461.1	7331	
461.3	8712.1	
461.5	10731	
461.7	10259	
461.9	7900.4	
462.1	8335.9	
462.3	9864.4	
462.5	10453	
462.7	7982.3	
462.9	8213.7	
463.1	11547	
463.3	11217	
463.5	8387.1	
463.7	9486.9	
463.9	10159	
464.1	10453	
464.3	8578.3	
464.5	8895	
464.7	10730	
464.9	10667	
465.1	10267	
465.3	9284.1	
465.5	11014	
465.7	11206	
465.9	9468.4	
466.1	9291	
466.3	11127	
466.5	10810	
466.7	10391	
466.9	9200.2	
467.1	10840	
467.3	11736	
467.5	10385	
467.7	9045.9	
467.9	12012	
468.1	13020	
468.3	9882.1	
468.5	10469	
468.7	10897	
468.9	10756	
469.1	9433.6	
469.3	10197	
469.5	12981	
469.7	10442	
469.9	9800.9	
470.1	9194	
470.3	10787	
470.5	10923	
470.7	10462	
470.9	9220.6	
471.1	10623	
471.3	11045	
471.5	9003.6	
471.69	11062	
471.89	10398	
472.09	9837.1	
472.29	9938.1	
472.49	10136	
472.69	10203	
472.89	11012	
473.09	8902.5	
473.29	8880	
473.49	10371	
473.69	10436	
473.89	9942.9	
474.09	9049.3	
474.29	11667	
474.49	11343	
474.69	9919.7	
474.89	9212.4	
475.09	10449	
475.29	10496	
475.49	8688.2	
475.69	8945.5	
475.88	11974	
476.08	10760	
476.28	8488.1	
476.48	8961.2	
476.68	11234	
476.88	10885	
477.08	8708	
477.28	9125.1	
477.48	10353	
477.68	11015	
477.88	8565.3	
478.08	8961.9	
478.28	11411	
478.48	10482	
478.67	9028.8	
478.87	8370.7	
479.07	11323	
479.27	10566	
479.47	9166.7	
479.67	9265	
479.87	10979	
480.07	11576	
480.27	8350.3	
480.47	10092	
480.67	10606	
480.87	11328	
481.06	8684.1	
481.26	9490.3	
481.46	10630	
481.66	10432	
481.86	9172.9	
482.06	10241	
482.26	10276	
482.46	11351	
482.66	9022	
482.86	8720.9	
483.05	10626	
483.25	10004	
483.45	11681	
483.65	9039.7	
483.85	10282	
484.05	10621	
484.25	9577	
484.45	10230	
484.65	11470	
484.84	11583	
485.04	8985.1	
485.24	9141.4	
485.44	11789	
485.64	10028	
485.84	8507.9	
486.04	9876	
486.24	10413	
486.44	10914	
486.63	8454.7	
486.83	9299.1	
487.03	10464	
487.23	10688	
487.43	8567.3	
487.63	11022	
487.83	10816	
488.02	11800	
488.22	9804.3	
488.42	10243	
488.62	11602	
488.82	10636	
489.02	9267.1	
489.22	9256.8	
489.41	11462	
489.61	11249	
489.81	8961.9	
490.01	9089.6	
490.21	11427	
490.41	12208	
490.61	8959.2	
490.8	9132.6	
491	10864	
491.2	10094	
491.4	9716.9	
491.6	8706.6	
491.8	10917	
491.99	10983	
492.19	8578.9	
492.39	8958.5	
492.59	11469	
492.79	11484	
492.99	10002	
493.18	9071.1	
493.38	11570	
493.58	12522	
493.78	9976.3	
493.98	9469.8	
494.18	11400	
494.37	10959	
494.57	10258	
494.77	10064	
494.97	11832	
495.17	12170	
495.37	9787.2	
495.56	10068	
495.76	12405	
495.96	11916	
496.16	11077	
496.36	9960.6	
496.55	12239	
496.75	11800	
496.95	10382	
497.15	10136	
497.35	12033	
497.54	12168	
497.74	9898.5	
497.94	11889	
498.14	12945	
498.34	12721	
498.53	9672.6	
498.73	10686	
498.93	11544	
499.13	12214	
499.33	10536	
499.52	10877	
499.72	12240	
499.92	12506	
500.12	10190	
500.32	10451	
500.51	12427	
500.71	12279	
500.91	11223	
501.11	10776	
501.31	12306	
501.5	12783	
501.7	11456	
501.9	10449	
502.1	12122	
502.29	12424	
502.49	10942	
502.69	11247	
502.89	12295	
503.09	12309	
503.28	9741.5	
503.48	9899.9	
503.68	11382	
503.88	11450	
504.07	10834	
504.27	10303	
504.47	11818	
504.67	11872	
504.86	10596	
505.06	10297	
505.26	11381	
505.46	13138	
505.65	10220	
505.85	10355	
506.05	11141	
506.25	11721	
506.44	9383.1	
506.64	10373	
506.84	11033	
507.04	11916	
507.23	9413.8	
507.43	10045	
507.63	12966	
507.83	11172	
508.02	9975	
508.22	9596.8	
508.42	13194	
508.62	10908	
508.81	9785.9	
509.01	10242	
509.21	10607	
509.4	10919	
509.6	9979.1	
509.8	9314.8	
510	10939	
510.19	12510	
510.39	9307.3	
510.59	9452.7	
510.79	10807	
510.98	12221	
511.18	9428.2	
511.38	9628.9	
511.57	11768	
511.77	11510	
511.97	10235	
512.17	9164.7	
512.36	11703	
512.56	11533	
512.76	9332.6	
512.95	9102.5	
513.15	11736	
513.35	10455	
513.55	10281	
513.74	9445.9	
513.94	11789	
514.14	11179	
514.33	10458	
514.53	10163	
514.73	11103	
514.92	11385	
515.12	9668.5	
515.32	9565.4	
515.51	11488	
515.71	12168	
515.91	11338	
516.11	9679.4	
516.3	13259	
516.5	11095	
516.7	10116	
516.89	10756	
517.09	11196	
517.29	11218	
517.48	10675	
517.68	9899.2	
517.88	11024	
518.07	11740	
518.27	10510	
518.47	9453.4	
518.66	12194	
518.86	10862	
519.06	9275.3	
519.25	9796.8	
519.45	11189	
519.65	12764	
519.84	10402	
520.04	11248	
520.24	13161	
520.43	11817	
520.63	10115	
520.83	9751.7	
521.02	11036	
521.22	11765	
521.42	10414	
521.61	10921	
521.81	11176	
522.01	11379	
522.2	10315	
522.4	10031	
522.6	12023	
522.79	10903	
522.99	10209	
523.18	9568.1	
523.38	11792	
523.58	11875	
523.77	11639	
523.97	9654.1	
524.17	13758	
524.36	12970	
524.56	11084	
524.76	10730	
524.95	12095	
525.15	11622	
525.34	10585	
525.54	10643	
525.74	12372	
525.93	11391	
526.13	11798	
526.33	10542	
526.52	12913	
526.72	12190	
526.91	11951	
527.11	11088	
527.31	12917	
527.5	13299	
527.7	11052	
527.89	10097	
528.09	11703	
528.29	12483	
528.48	11497	
528.68	11000	
528.87	12792	
529.07	12745	
529.27	11010	
529.46	10226	
529.66	12235	
529.85	12765	
530.05	10288	
530.25	11017	
530.44	13870	
530.64	12254	
530.83	10653	
531.03	11042	
531.23	12813	
531.42	12620	
531.62	11955	
531.81	11024	
532.01	13058	
532.21	13488	
532.4	10845	
532.6	11247	
532.79	14003	
532.99	13241	
533.18	11344	
533.38	12341	
533.58	12725	
533.77	13474	
533.97	11279	
534.16	12124	
534.36	13768	
534.55	12762	
534.75	12314	
534.95	11285	
535.14	13623	
535.34	12719	
535.53	10969	
535.73	12996	
535.92	14107	
536.12	12878	
536.31	11116	
536.51	12338	
536.71	13139	
536.9	12734	
537.1	11191	
537.29	11361	
537.49	13637	
537.68	12629	
537.88	11856	
538.07	11060	
538.27	12886	
538.46	13904	
538.66	10824	
538.86	11490	
539.05	13050	
539.25	13449	
539.44	11650	
539.64	11147	
539.83	12854	
540.03	13809	
540.22	11037	
540.42	11223	
540.61	12934	
540.81	13154	
541	11548	
541.2	12366	
541.39	12527	
541.59	12863	
541.78	11961	
541.98	10906	
542.18	12030	
542.37	12043	
542.57	11255	
542.76	11717	
542.96	11974	
543.15	12687	
543.35	11221	
543.54	10443	
543.74	12865	
543.93	12329	
544.13	11052	
544.32	12000	
544.52	12635	
544.71	11780	
544.91	10056	
545.1	11228	
545.3	12018	
545.49	12679	
545.69	9903.3	
545.88	10516	
546.08	13639	
546.27	13052	
546.47	11139	
546.66	10301	
546.86	12936	
547.05	13439	
547.24	10642	
547.44	10597	
547.63	11697	
547.83	12925	
548.02	10884	
548.22	11125	
548.41	11469	
548.61	12835	
548.8	10142	
549	10292	
549.19	12094	
549.39	12407	
549.58	9873.9	
549.78	10457	
549.97	12542	
550.17	11867	
550.36	11298	
550.55	12503	
550.75	12017	
550.94	12879	
551.14	10208	
551.33	10607	
551.53	11325	
551.72	12357	
551.92	10595	
552.11	10357	
552.31	12439	
552.5	12464	
552.69	12170	
552.89	9946.3	
553.08	12353	
553.28	11970	
553.47	10332	
553.67	11524	
553.86	12881	
554.06	11222	
554.25	9624.8	
554.44	10167	
554.64	13751	
554.83	13148	
555.03	10085	
555.22	10478	
555.42	12478	
555.61	12153	
555.8	10381	
556	10605	
556.19	11289	
556.39	12490	
556.58	10421	
556.78	10292	
556.97	11968	
557.16	11846	
557.36	11621	
557.55	9944.9	
557.75	10942	
557.94	12840	
558.13	9921	
558.33	9775.6	
558.52	12555	
558.72	11503	
558.91	9916.9	
559.1	10014	
559.3	11075	
559.49	10776	
559.69	9377.6	
559.88	10467	
560.07	11885	
560.27	12250	
560.46	10592	
560.66	10737	
560.85	11637	
561.04	10750	
561.24	9673.9	
561.43	9977.7	
561.63	11002	
561.82	11351	
562.01	11204	
562.21	10201	
562.4	11783	
562.59	12878	
562.79	10139	
562.98	9726.5	
563.18	11787	
563.37	13156	
563.56	10512	
563.76	9673.2	
563.95	11200	
564.14	11115	
564.34	9999.5	
564.53	9878	
564.73	11645	
564.92	12140	
565.11	10243	
565.31	9581.1	
565.5	12271	
565.69	11234	
565.89	9811.8	
566.08	10065	
566.27	12146	
566.47	12477	
566.66	10732	
566.85	9358.5	
567.05	11699	
567.24	11112	
567.44	9712.2	
567.63	11064	
567.82	11806	
568.02	11763	
568.21	9617.9	
568.4	10053	
568.6	11426	
568.79	11498	
568.98	9404.3	
569.18	9493.7	
569.37	11437	
569.56	13471	
569.76	9865.1	
569.95	10923	
570.14	11717	
570.34	11672	
570.53	9314.8	
570.72	9169.4	
570.91	12054	
571.11	11064	
571.3	9661	
571.49	10561	
571.69	11092	
571.88	10687	
572.07	10251	
572.27	10183	
572.46	10641	
572.65	11721	
572.85	9443.9	
573.04	9777	
573.23	12016	
573.43	11303	
573.62	9179	
573.81	9904.7	
574	11290	
574.2	11051	
574.39	9639.1	
574.58	9717.6	
574.78	12192	
574.97	11400	
575.16	10163	
575.36	10271	
575.55	11652	
575.74	11861	
575.93	9068.4	
576.13	10318	
576.32	11066	
576.51	11592	
576.71	9549	
576.9	11036	
577.09	11912	
577.28	11640	
577.48	10058	
577.67	9073.2	
577.86	11129	
578.05	11479	
578.25	9797.5	
578.44	9802.9	
578.63	11226	
578.83	12472	
579.02	9113.5	
579.21	10765	
579.4	11518	
579.6	11211	
579.79	9899.2	
579.98	12141	
580.17	11827	
580.37	11987	
580.56	9409.1	
580.75	10155	
580.94	12534	
581.14	12325	
581.33	10724	
581.52	9675.3	
581.71	11884	
581.91	12510	
582.1	9376.3	
582.29	9985.2	
582.48	11548	
582.68	11538	
582.87	10603	
583.06	10101	
583.25	11824	
583.45	11439	
583.64	10812	
583.83	11600	
584.02	11392	
584.21	11998	
584.41	10823	
584.6	10144	
584.79	11542	
584.98	12432	
585.18	9557.9	
585.37	9462.3	
585.56	11060	
585.75	11862	
585.94	9695.1	
586.14	10411	
586.33	12372	
586.52	11499	
586.71	10115	
586.91	9775.6	
587.1	10772	
587.29	12103	
587.48	9551.7	
587.67	9406.3	
587.87	11456	
588.06	11523	
588.25	10705	
588.44	9843.2	
588.63	10895	
588.83	11402	
589.02	8983.1	
589.21	8783.1	
589.4	10245	
589.59	10011	
589.78	7759.8	
589.98	7870.3	
590.17	9366.7	
590.36	9929.9	
590.55	7106.5	
590.74	7983	
590.94	11161	
591.13	9758.6	
591.32	7744.7	
591.51	7288	
591.7	10133	
591.89	9676	
592.09	7467.6	
592.28	8067.6	
592.47	8858.8	
592.66	10925	
592.85	7475.1	
593.05	7684.7	
593.24	9533.3	
593.43	10371	
593.62	7822.6	
593.81	8422.6	
594	9734.7	
594.19	10048	
594.39	7881.9	
594.58	7854	
594.77	10118	
594.96	10714	
595.15	7755.7	
595.34	8369.4	
595.54	10023	
595.73	9065.7	
595.92	7105.1	
596.11	8285.4	
596.3	10541	
596.49	9254.8	
596.68	8069.7	
596.88	8576.9	
597.07	10371	
597.26	9115.5	
597.45	7623.9	
597.64	8914.1	
597.83	9381.1	
598.02	10090	
598.22	7769.3	
598.41	8643.8	
598.6	9966.8	
598.79	9366	
598.98	7882.6	
599.17	8886.1	
599.36	9970.2	
599.55	11249	
599.74	10097	
599.94	9844.6	
600.13	10639	
600.32	9469.8	
600.51	7778.9	
600.7	8087.4	
600.89	11394	
601.08	11475	
601.27	7819.8	
601.47	8873.2	
601.66	10837	
601.85	11390	
602.04	8480.6	
602.23	8865.7	
602.42	9779.1	
602.61	10550	
602.8	8561.2	
602.99	8295.6	
603.18	10202	
603.37	10533	
603.57	8998.1	
603.76	9659.6	
603.95	11335	
604.14	10755	
604.33	8426.7	
604.52	8873.8	
604.71	10536	
604.9	10095	
605.09	9385.8	
605.28	9257.5	
605.47	11049	
605.66	10759	
605.86	9100.5	
606.05	8466.3	
606.24	11138	
606.43	9579.7	
606.62	8773.5	
606.81	9549.7	
607	10917	
607.19	10284	
607.38	8178.2	
607.57	8460.8	
607.76	9942.9	
607.95	9437	
608.14	8823.3	
608.33	9466.4	
608.52	9946.3	
608.72	11002	
608.91	8155.7	
609.1	7995.3	
609.29	10132	
609.48	9503.9	
609.67	8978.3	
609.86	8090.8	
610.05	9601.6	
610.24	10033	
610.43	7898.3	
610.62	7572.7	
610.81	11105	
611	10936	
611.19	8004.8	
611.38	8761.2	
611.57	10177	
611.76	11680	
611.95	7795.9	
612.14	7690.1	
612.33	10052	
612.52	9572.2	
612.71	8373.5	
612.9	7524.9	
613.09	9189.2	
613.28	11563	
613.47	8021.2	
613.66	9101.9	
613.85	10186	
614.04	9637.1	
614.24	8119.5	
614.43	7387.7	
614.62	10227	
614.81	10202	
615	8688.8	
615.19	8755.7	
615.38	9562.6	
615.57	9885.5	
615.76	8576.2	
615.95	9591.3	
616.14	10359	
616.33	9985.2	
616.52	8879.3	
616.71	9196.1	
616.9	10214	
617.09	10215	
617.28	8245.1	
617.47	9482.1	
617.66	9304.6	
617.85	9402.9	
618.04	9228.1	
618.22	8574.8	
618.41	9738.1	
618.6	10639	
618.79	8516.1	
618.98	8226.7	
619.17	10986	
619.36	9281.4	
619.55	8353.7	
619.74	8466.3	
619.93	10187	
620.12	9643.2	
620.31	9045.9	
620.5	9154.4	
620.69	10832	
620.88	11209	
621.07	9894.4	
621.26	8892.3	
621.45	10411	
621.64	10455	
621.83	9105.3	
622.02	8175.5	
622.21	10456	
622.4	10258	
622.59	9514.2	
622.78	9275.3	
622.97	9823.4	
623.16	10750	
623.35	8971.5	
623.54	8077.2	
623.72	9969.5	
623.91	10180	
624.1	9139.4	
624.29	7846.5	
624.48	11269	
624.67	10458	
624.86	9017.9	
625.05	8049.9	
625.24	11238	
625.43	9658.2	
625.62	10765	
625.81	8221.9	
626	10677	
626.19	9881.4	
626.38	8979	
626.56	8237.6	
626.75	9693.7	
626.94	10365	
627.13	8837	
627.32	7507.2	
627.51	10078	
627.7	11548	
627.89	7507.9	
628.08	8662.2	
628.27	9244.5	
628.46	9405	
628.65	7770.7	
628.83	7443.7	
629.02	10077	
629.21	9227.5	
629.4	8256	
629.59	8574.2	
629.78	9361.3	
629.97	10332	
630.16	8647.9	
630.35	8054	
630.54	10834	
630.72	10521	
630.91	7996	
631.1	8572.8	
631.29	9914.9	
631.48	10114	
631.67	8698.4	
631.86	8137.9	
632.05	9420.7	
632.24	9620	
632.42	7679.9	
632.61	8426	
632.8	9721.7	
632.99	9278	
633.18	8510	
633.37	8834.9	
633.56	9984.5	
633.75	9837.1	
633.93	8472.4	
634.12	8197.3	
634.31	10795	
634.5	10536	
634.69	8200.7	
634.88	8651.3	
635.07	9737.4	
635.25	10402	
635.44	9115.5	
635.63	9316.9	
635.82	9592.7	
636.01	9081.4	
636.2	8993.3	
636.39	8621.9	
636.57	10759	
636.76	10464	
636.95	8064.9	
637.14	9456.2	
637.33	10071	
637.52	11125	
637.7	7775.5	
637.89	8839	
638.08	9728.5	
638.27	11170	
638.46	8856.1	
638.65	9332.6	
638.83	10990	
639.02	9460.9	
639.21	8731.9	
639.4	9253.4	
639.59	9950.4	
639.78	9542.9	
639.96	7943.4	
640.15	8026.7	
640.34	9674.6	
640.53	9931.3	
640.72	7633.5	
640.91	7992.5	
641.09	9149.6	
641.28	10538	
641.47	7991.2	
641.66	8871.1	
641.85	9846	
642.03	10137	
642.22	8615.8	
642.41	8022.6	
642.6	9247.3	
642.79	8505.9	
642.97	7701.7	
643.16	8520.9	
643.35	9174.2	
643.54	8867.7	
643.73	7583.6	
643.91	8405.5	
644.1	8682.7	
644.29	9237.7	
644.48	7551.5	
644.67	7457.3	
644.85	8733.2	
645.04	9019.9	
645.23	6980.8	
645.42	7226.6	
645.6	8442.4	
645.79	9486.9	
645.98	7049.1	
646.17	5993.7	
646.36	7997.3	
646.54	8535.3	
646.73	7737.9	
646.92	6457.2	
647.11	8045.8	
647.29	9228.8	
647.48	6601.3	
647.67	6328.9	
647.86	9458.2	
648.05	9477.3	
648.23	6959.7	
648.42	8313.4	
648.61	8938.7	
648.8	8686.1	
648.98	6683.9	
649.17	7005.4	
649.36	8296.3	
649.55	7771.4	
649.73	6767.2	
649.92	7591.8	
650.11	8200.1	
650.3	8503.2	
650.48	6829.3	
650.67	6633.4	
650.86	8659.5	
651.05	7633.5	
651.23	6834.1	
651.42	6706.4	
651.61	8135.2	
651.79	8318.8	
651.98	6991.8	
652.17	6638.1	
652.36	8712.7	
652.54	7771.4	
652.73	6752.2	
652.92	6556.2	
653.11	8729.1	
653.29	8796.7	
653.48	5938.4	
653.67	7008.1	
653.85	8393.9	
654.04	9508	
654.23	7088	
654.42	6653.9	
654.6	7875.8	
654.79	8497.7	
654.98	6062	
655.16	6647.7	
655.35	7462.1	
655.54	7393.2	
655.73	6180.1	
655.91	6137.8	
656.1	8742.8	
656.29	7481.9	
656.47	5772.5	
656.66	7585	
656.85	7795.3	
657.03	7866.2	
657.22	6300.2	
657.41	6423.8	
657.59	7993.9	
657.78	7778.2	
657.97	6114.6	
658.16	6948.8	
658.34	8628.8	
658.53	9057.5	
658.72	7830.7	
658.9	8303.1	
659.09	8068.3	
659.28	8165.9	
659.46	6682.5	
659.65	6617	
659.84	7926.3	
660.02	8415.8	
660.21	6535.8	
660.4	6483.2	
660.58	8974.2	
660.77	8344.8	
660.96	7036.8	
661.14	6102.3	
661.33	9457.5	
661.52	9301.9	
661.7	6111.8	
661.89	9923.1	
662.08	7903.1	
662.26	7445	
662.45	6391.7	
662.64	6459.3	
662.82	8458.1	
663.01	7767.3	
663.2	6534.4	
663.38	7283.3	
663.57	8460.2	
663.75	8349.6	
663.94	6802	
664.13	8144.1	
664.31	7841.7	
664.5	8633.6	
664.69	6987	
664.87	7649.8	
665.06	7550.9	
665.25	8455.4	
665.43	7898.3	
665.62	7966.6	
665.8	8699.8	
665.99	7972.1	
666.18	6877.1	
666.36	6909.2	
666.55	8643.8	
666.74	8470.4	
666.92	6464.8	
667.11	8051.9	
667.29	7931.8	
667.48	8616.5	
667.67	7735.9	
667.85	6886.6	
668.04	8015.1	
668.22	8055.3	
668.41	6866.8	
668.6	7075	
668.78	7805.5	
668.97	7997.3	
669.15	7292.8	
669.34	6220.4	
669.53	7834.8	
669.71	8137.3	
669.9	6331.6	
670.08	7056.6	
670.27	7811	
670.46	8359.1	
670.64	7219.1	
670.83	7525.6	
671.01	7658.7	
671.2	8310.7	
671.38	6437.4	
671.57	6308.4	
671.76	8954.4	
671.94	9543.5	
672.13	6239.5	
672.31	7350.2	
672.5	8436.9	
672.69	7783.6	
672.87	6429.9	
673.06	6710.5	
673.24	8387.8	
673.43	7763.8	
673.61	7167.2	
673.8	6694.8	
673.98	8500.4	
674.17	8705.2	
674.36	7319.4	
674.54	7232.1	
674.73	8279.3	
674.91	8492.2	
675.1	6811.5	
675.28	6526.2	
675.47	8020.5	
675.65	8588.5	
675.84	6694.1	
676.03	7011.6	
676.21	7784.3	
676.4	7278.5	
676.58	7518.1	
676.77	7210.9	
676.95	9353.8	
677.14	7737.2	
677.32	6381.5	
677.51	6150.7	
677.69	8441.7	
677.88	7372	
678.06	6214.9	
678.25	6331.6	
678.44	8079.2	
678.62	7746.8	
678.81	6034	
678.99	6958.3	
679.18	8815.1	
679.36	8461.5	
679.55	6574.7	
679.73	7273.7	
679.92	8299.1	
680.1	7748.8	
680.29	7941.3	
680.47	6622.4	
680.66	7664.9	
680.84	8568.7	
681.03	5874.3	
681.21	7106.5	
681.4	7668.3	
681.58	7499.7	
681.77	6365.8	
681.95	6307.1	
682.14	8503.8	
682.32	8849.3	
682.51	7249.8	
682.69	6004	
682.88	7488.1	
683.06	8234.2	
683.25	6918.7	
683.43	7338.6	
683.62	7828	
683.8	8227.4	
683.99	7376.8	
684.17	6593.1	
684.36	9026.1	
684.54	7561.1	
684.73	5621	
684.91	5834	
685.1	7756.3	
685.28	7037.5	
685.46	6209.4	
685.65	6302.3	
685.83	7800.7	
686.02	7193.8	
686.2	5713.8	
686.39	5815.5	
686.57	7181.5	
686.76	8589.9	
686.94	5783.5	
687.13	5983.5	
687.31	7771.4	
687.5	7286.7	
687.68	5378	
687.86	6749.4	
688.05	8928.5	
688.23	6784.2	
688.42	6789.7	
688.6	5871.5	
688.79	7313.3	
688.97	7279.8	
689.16	6275	
689.34	5218.2	
689.52	8113.4	
689.71	8148.9	
689.89	6631.3	
690.08	5792.3	
690.26	7453.9	
690.45	7314.7	
690.63	6645.7	
690.81	5864.7	
691	7008.1	
691.18	7005.4	
691.37	5963.7	
691.55	8194.6	
691.74	6874.3	
691.92	9055.4	
692.1	5941.8	
692.29	5440.8	
692.47	7185	
692.66	6431.3	
692.84	5553.4	
693.02	6285.2	
693.21	6708.5	
693.39	7186.3	
693.58	6377.4	
693.76	5927.5	
693.94	8544.1	
694.13	8299.1	
694.31	5898.2	
694.5	7112.6	
694.68	7202.7	
694.86	7657.4	
695.05	6444.3	
695.23	6889.4	
695.42	8072.4	
695.6	10445	
695.78	7015.7	
695.97	6072.2	
696.15	7976.2	
696.34	7374.7	
696.52	5707.7	
696.7	6461.3	
696.89	7696.9	
697.07	7085.3	
697.25	6396.5	
697.44	8038.3	
697.62	7529	
697.81	7868.3	
697.99	6093.4	
698.17	6630.6	
698.36	6838.2	
698.54	7502.4	
698.72	6519.4	
698.91	5390.9	
699.09	7164.5	
699.28	7046.4	
699.46	6148.7	
699.64	6065.4	
699.83	7027.9	
700.01	8320.9	
700.19	6887.3	
700.38	5296	
700.56	8377.6	
700.74	7306.5	
700.93	5749.3	
701.11	6664.8	
701.29	7839.6	
701.48	9039.7	
701.66	6098.2	
701.84	6126.8	
702.03	7501	
702.21	8060.8	
702.39	5741.8	
702.58	6268.8	
702.76	7841.7	
702.94	7945.4	
703.13	5698.1	
703.31	8310.7	
703.49	7116.7	
703.68	8159.8	
703.86	5815.5	
704.04	6987.7	
704.23	7748.8	
704.41	8170	
704.59	6085.2	
704.78	7374.1	
704.96	8905.9	
705.14	8218.5	
705.33	5950.7	
705.51	6860	
705.69	7624.6	
705.87	8496.3	
706.06	7176.8	
706.24	6006	
706.42	8019.2	
706.61	8310	
706.79	7180.2	
706.97	5994.4	
707.16	7415	
707.34	8106.5	
707.52	7060.7	
707.7	6341.2	
707.89	7681.2	
708.07	7327.6	
708.25	7266.2	
708.44	7314.7	
708.62	7645.1	
708.8	8802.9	
708.98	7493.5	
709.17	6438.1	
709.35	8108.6	
709.53	8150.9	
709.72	6158.9	
709.9	6345.3	
710.08	8318.2	
710.26	8319.5	
710.45	7881.3	
710.63	6516	
710.81	8022.6	
710.99	8032.8	
711.18	7049.8	
711.36	6647	
711.54	7758.4	
711.72	8464.3	
711.91	6556.9	
712.09	5924.1	
712.27	7771.4	
712.45	8432.9	
712.64	6735.8	
712.82	5541.1	
713	7019.1	
713.18	7152.9	
713.37	5534.3	
713.55	6696.9	
713.73	7846.5	
713.91	6284.5	
714.1	5728.2	
714.28	5023	
714.46	7247.8	
714.64	6366.5	
714.83	4330.8	
715.01	5176.6	
715.19	6408.8	
715.37	5792.3	
715.55	4876.2	
715.74	5197.7	
715.92	7387.7	
716.1	5352	
716.28	6371.2	
716.47	5343.8	
716.65	6027.9	
716.83	6158.2	
717.01	5169.8	
717.19	5331.5	
717.38	8342.7	
717.56	5896.8	
717.74	5609.4	
717.92	4739.7	
718.1	7283.9	
718.29	6475.7	
718.47	4457.7	
718.65	5228.5	
718.83	7350.2	
719.01	7257.3	
719.2	4561.5	
719.38	5686.5	
719.56	6901	
719.74	8572.8	
719.92	5093.3	
720.11	6197.8	
720.29	6862.7	
720.47	5953.4	
720.65	4483	
720.83	5415.5	
721.02	6223.8	
721.2	6006	
721.38	5435.3	
721.56	4591.5	
721.74	5460.6	
721.92	5720.7	
722.11	6017.6	
722.29	5627.1	
722.47	6965.1	
722.65	6182.8	
722.83	4632.5	
723.01	5700.9	
723.2	6262	
723.38	6550.1	
723.56	4106.9	
723.74	5289.9	
723.92	5782.1	
724.1	6935.8	
724.29	4568.3	
724.47	5881.1	
724.65	5816.2	
724.83	5731.6	
725.01	4549.2	
725.19	5508.4	
725.37	5850.4	
725.56	5950	
725.74	4432.5	
725.92	4706.9	
726.1	5775.3	
726.28	6110.5	
726.46	5169.8	
726.64	4857.8	
726.83	6100.9	
727.01	6269.5	
727.19	4462.5	
727.37	5328.8	
727.55	6193.1	
727.73	6767.2	
727.91	4456.4	
728.09	4281.6	
728.28	6808.8	
728.46	7496.2	
728.64	5578	
728.82	5581.4	
729	8117.5	
729.18	7427.3	
729.36	4857.1	
729.54	7361.1	
729.72	8572.1	
729.91	6845.7	
730.09	7036.8	
730.27	5796.4	
730.45	6769.9	
730.63	7593.9	
730.81	6464.1	
730.99	5521.3	
731.17	8039	
731.35	6593.1	
731.53	6029.9	
731.71	5638.7	
731.9	7750.9	
732.08	8000	
732.26	5887.2	
732.44	5555.5	
732.62	7881.9	
732.8	7419.1	
732.98	6254.5	
733.16	5266	
733.34	7462.1	
733.52	6243.6	
733.7	5879	
733.88	6148.7	
734.07	7357	
734.25	7124.9	
734.43	5335	
734.61	6959	
734.79	8708.6	
734.97	7092.1	
735.15	5588.2	
735.33	5862.7	
735.51	7404.1	
735.69	7139.9	
735.87	7168.6	
736.05	6224.5	
736.23	7324.9	
736.41	7111.9	
736.59	6014.2	
736.77	6237.4	
736.95	7841.7	
737.13	7360.4	
737.32	5820.3	
737.5	6056.5	
737.68	8499.8	
737.86	7178.8	
738.04	5684.5	
738.22	7656	
738.4	7033.4	
738.58	7324.9	
738.76	6325.5	
738.94	5303.6	
739.12	7266.2	
739.3	7118.1	
739.48	7034.8	
739.66	6839.5	
739.84	7610.9	
740.02	7623.9	
740.2	5410.7	
740.38	5858.6	
740.56	8062.2	
740.74	6802	
740.92	6524.8	
741.1	6432.7	
741.28	7390.4	
741.46	7315.3	
741.64	6081.8	
741.82	6565.1	
742	7517.4	
742.18	7503.1	
742.36	6381.5	
742.54	5909.1	
742.72	8043.1	
742.9	6802	
743.08	6691.4	
743.26	5487.2	
743.44	8318.2	
743.62	8135.9	
743.8	6885.3	
743.98	5865.4	
744.16	7799.3	
744.34	7478.5	
744.52	6797.9	
744.7	6668.2	
744.88	7931.8	
745.06	7513.3	
745.24	6794.5	
745.42	6901	
745.6	7981.6	
745.78	7772.7	
745.96	5482.4	
746.14	5773.2	
746.32	8851.3	
746.5	7961.8	
746.68	6494.1	
746.86	5893.4	
747.03	8490.2	
747.21	6709.1	
747.39	6484.6	
747.57	5896.8	
747.75	7607.5	
747.93	7945.4	
748.11	5844.2	
748.29	5776	
748.47	9194.7	
748.65	7249.1	
748.83	6617	
749.01	6349.4	
749.19	7802.1	
749.37	7012.9	
749.55	6193.7	
749.73	6305	
749.91	7394.5	
750.09	7224.6	
750.26	6272.2	
750.44	5808.7	
750.62	7486.7	
750.8	7469.6	
750.98	5578	
751.16	5896.1	
751.34	7482.6	
751.52	6849.1	
751.7	6734.4	
751.88	5584.1	
752.06	8015.7	
752.24	7780.9	
752.42	5478.3	
752.59	5879	
752.77	7366.5	
752.95	8720.9	
753.13	6638.1	
753.31	5978	
753.49	7089.4	
753.67	7545.4	
753.85	6240.2	
754.03	5847	
754.21	7811	
754.38	8090.2	
754.56	5845.6	
754.74	4862.6	
754.92	6823.1	
755.1	7570.7	
755.28	4673.5	
755.46	4602.5	
755.64	7787.1	
755.82	7893.6	
755.99	4513.7	
756.17	4541	
756.35	5032.5	
756.53	6660.7	
756.71	3272	
756.89	4276.2	
757.07	6242.2	
757.25	5326.8	
757.42	4909.7	
757.6	5900.9	
757.78	6423.1	
757.96	5373.2	
758.14	4713.1	
758.32	4156	
758.5	4874.2	
758.67	5677	
758.85	4402.5	
759.03	4487.8	
759.21	5850.4	
759.39	5298.1	
759.57	3975.1	
759.75	5228.5	
759.92	6565.8	
760.1	5801.9	
760.28	5599.8	
760.46	5887.9	
760.64	5721.3	
760.82	5498.1	
760.99	5601.2	
761.17	4717.2	
761.35	6737.1	
761.53	5682.4	
761.71	4942.4	
761.89	5750.7	
762.06	6746	
762.24	6196.5	
762.42	5160.9	
762.6	4985.4	
762.78	6405.4	
762.96	6332.3	
763.13	5708.4	
763.31	5438.7	
763.49	7286.7	
763.67	6379.4	
763.85	6287.9	
764.02	6889.4	
764.2	7584.3	
764.38	6742.6	
764.56	5329.5	
764.74	6206	
764.91	7778.9	
765.09	6590.4	
765.27	5053	
765.45	4807.3	
765.63	7829.4	
765.8	7631.4	
765.98	4529.4	
766.16	4909.7	
766.34	6150.7	
766.52	5874.3	
766.69	5923.4	
766.87	4747.2	
767.05	6531	
767.23	7365.2	
767.41	5031.9	
767.58	5255.1	
767.76	7180.2	
767.94	7201.3	
768.12	5128.8	
768.29	5968.5	
768.47	6594.5	
768.65	7302.4	
768.83	4743.8	
769	5919.3	
769.18	6113.2	
769.36	6899.6	
769.54	5723.4	
769.72	4757.4	
769.89	7107.8	
770.07	7319.4	
770.25	5025.7	
770.43	6333.7	
770.6	7957.7	
770.78	8277.2	
770.96	5212.8	
771.14	5921.4	
771.31	7025.9	
771.49	6387.6	
771.67	4272.7	
771.85	4569	
772.02	5543.9	
772.2	6333.7	
772.38	5355.4	
772.55	4789.5	
772.73	6543.3	
772.91	6315.3	
773.09	5147.9	
773.26	5272.2	
773.44	6457.9	
773.62	6154.1	
773.8	4647.5	
773.97	4354	
774.15	6537.1	
774.33	6098.9	
774.5	4522.6	
774.68	4899.4	
774.86	6574	
775.04	6107.7	
775.21	4610.7	
775.39	4576.5	
775.57	6382.2	
775.74	6821.8	
775.92	4422.9	
776.1	4289.1	
776.27	6367.8	
776.45	7617.1	
776.63	4520.5	
776.81	4051.6	
776.98	5903.6	
777.16	7125.6	
777.34	4661.2	
777.51	4624.3	
777.69	5898.8	
777.87	5732.9	
778.04	4672.8	
778.22	5309.7	
778.4	5694.7	
778.57	6339.8	
778.75	3859.1	
778.93	4209.9	
779.1	5446.2	
779.28	5290.6	
779.46	3912.3	
779.64	4423.6	
779.81	6504.3	
779.99	7441.6	
780.17	5239.4	
780.34	5388.9	
780.52	5925.5	
780.69	6141.2	
780.87	4732.2	
781.05	4242	
781.22	5875.6	
781.4	5987.6	
781.58	4360.1	
781.75	3449.5	
781.93	5946.6	
782.11	5275.6	
782.28	5290.6	
782.46	4344.4	
782.64	5171.1	
782.81	6202.6	
782.99	4401.8	
783.17	4373.1	
783.34	6025.8	
783.52	5169.1	
783.69	4614.8	
783.87	5388.9	
784.05	5199.1	
784.22	5242.8	
784.4	5352.7	
784.58	4630.5	
784.75	6157.6	
784.93	5293.3	
785.1	4238.6	
785.28	4891.2	
785.46	5904.3	
785.63	5237.3	
785.81	4182.6	
785.99	4080.9	
786.16	5383.4	
786.34	5824.4	
786.51	4118.5	
786.69	4560.1	
786.87	4962.2	
787.04	5543.9	
787.22	3967.6	
787.39	4984.8	
787.57	5244.2	
787.75	6369.2	
787.92	5160.9	
788.1	5101.5	
788.27	5291.3	
788.45	4993.6	
788.63	4803.9	
788.8	3469.3	
788.98	5643.5	
789.15	4973.2	
789.33	3577.8	
789.5	4256.4	
789.68	6163	
789.86	6303.6	
790.03	4764.9	
790.21	4063.2	
790.38	6156.2	
790.56	5301.5	
790.73	3976.5	
790.91	3988.1	
791.09	5142.4	
791.26	5969.1	
791.44	4162.8	
791.61	3616.7	
791.79	5163.6	
791.96	5246.2	
792.14	3670	
792.32	3267.9	
792.49	5204.6	
792.67	5296	
792.84	3802.4	
793.02	3561.4	
793.19	5651	
793.37	6450.4	
793.54	3327.9	
793.72	3635.1	
793.89	6550.8	
794.07	5156.8	
794.25	4348.5	
794.42	3318.4	
794.6	6240.2	
794.77	5857.2	
794.95	4573.1	
795.12	3972.4	
795.3	5150.6	
795.47	5810.8	
795.65	4442	
795.82	4245.4	
796	4919.9	
796.17	6965.8	
796.35	4045.4	
796.52	4830.5	
796.7	5703.6	
796.87	5806	
797.05	5007.3	
797.22	4900.8	
797.4	5810.1	
797.57	6806.1	
797.75	4192.9	
797.92	3923.2	
798.1	6129.6	
798.27	5121.3	
798.45	3371	
798.62	3631.7	
798.8	5426.4	
798.97	5984.2	
799.15	4435.9	
799.32	4222.2	
799.5	4689.2	
799.67	5571.8	
799.85	4524	
800.02	3370.3	
800.2	5111	
800.37	5412.1	
800.55	4723.3	
800.72	3956.7	
800.9	5898.1	
801.07	6362.4	
801.25	5367.7	
801.42	4259.1	
801.6	5958.9	
801.77	5663.3	
801.95	4018.1	
802.12	3833.8	
802.29	5640.8	
802.47	5598.5	
802.64	4274.8	
802.82	3215.3	
802.99	5033.2	
803.17	6138.4	
803.34	4113	
803.52	3749.1	
803.69	6793.8	
803.87	4817.5	
804.04	4132.1	
804.21	4225	
804.39	6187.6	
804.56	5293.3	
804.74	3516.4	
804.91	4304.1	
805.09	5111	
805.26	5227.1	
805.44	3581.9	
805.61	3947.1	
805.78	5793	
805.96	5811.5	
806.13	4304.8	
806.31	4644.1	
806.48	4586.1	
806.66	5186.1	
806.83	4270.7	
807	4177.9	
807.18	5081	
807.35	5479	
807.53	4197.7	
807.7	3317.7	
807.87	6300.2	
808.05	5109.7	
808.22	4598.4	
808.4	3344.3	
808.57	5145.2	
808.74	4709	
808.92	3809.9	
809.09	4868.7	
809.27	4991.6	
809.44	5657.2	
809.61	3387.3	
809.79	3737.5	
809.96	6275	
810.14	5888.6	
810.31	3255.6	
810.48	3990.8	
810.66	5218.9	
810.83	6025.1	
811.01	3777.1	
811.18	4236.6	
811.35	5854.5	
811.53	4593.6	
811.7	4635.2	
811.87	4305.5	
812.05	5098.1	
812.22	5042.8	
812.39	3700	
812.57	3575.1	
812.74	5107	
812.92	6828.6	
813.09	3994.2	
813.26	4411.3	
813.44	6485.2	
813.61	5046.2	
813.78	3327.9	
813.96	4511.7	
814.13	5127.4	
814.3	4801.1	
814.48	4859.8	
814.65	4045.4	
814.82	6351.4	
815	4943.1	
815.17	4189.5	
815.34	5043.5	
815.52	5027.8	
815.69	5048.2	
815.87	4090.5	
816.04	3540.3	
816.21	5253.7	
816.38	4493.2	
816.56	3953.3	
816.73	3647.4	
816.9	6518	
817.08	5867.4	
817.25	3743.7	
817.42	4714.4	
817.6	4698.7	
817.77	5126.1	
817.94	4230.4	
818.12	3745.1	
818.29	4842.8	
818.46	7723.6	
818.64	3827.7	
818.81	3667.2	
818.98	4755.4	
819.16	7005.4	
819.33	4410	
819.5	4149.2	
819.67	5468.8	
819.85	6259.3	
820.02	4040	
820.19	4306.2	
820.37	5332.2	
820.54	4876.9	
820.71	4183.3	
820.88	5233.2	
821.06	5350.7	
821.23	4870.1	
821.4	4271.4	
821.58	4147.1	
821.75	5840.1	
821.92	5260.5	
822.09	3379.8	
822.27	3547.8	
822.44	5132.2	
822.61	5011.4	
822.79	3386	
822.96	6584.9	
823.13	5671.5	
823.3	4831.2	
823.48	3916.4	
823.65	3556.6	
823.82	5854.5	
823.99	4659.1	
824.17	5011.4	
824.34	3581.2	
824.51	6778.1	
824.68	5277.6	
824.86	3734.1	
825.03	4254.3	
825.2	5128.1	
825.37	6303	
825.55	3725.3	
825.72	4203.8	
825.89	6881.9	
826.06	6333.7	
826.24	4028.4	
826.41	4052.2	
826.58	6227.9	
826.75	5412.1	
826.92	3162.7	
827.1	3517	
827.27	8553.7	
827.44	6774.7	
827.61	3822.2	
827.79	4706.2	
827.96	4846.2	
828.13	5235.3	
828.3	3964.9	
828.47	3353.9	
828.65	5298.8	
828.82	5309	
828.99	5268.1	
829.16	4511	
829.34	5732.3	
829.51	5507.7	
829.68	4209.3	
829.85	4301.4	
830.02	6011.5	
830.2	5806	
830.37	3187.3	
830.54	5024.3	
830.71	6612.9	
830.88	5091.9	
831.05	3287	
831.23	3784	
831.4	6289.3	
831.57	7091.4	
831.74	3865.9	
831.91	3393.5	
832.09	5329.5	
832.26	5780.1	
832.43	4031.8	
832.6	4469.4	
832.77	5317.2	
832.94	6085.9	
833.12	3122.5	
833.29	4014.7	
833.46	5532.2	
833.63	7373.4	
833.8	4341.7	
833.97	3981.9	
834.15	5801.9	
834.32	5485.8	
834.49	4106.9	
834.66	4280.3	
834.83	6022.4	
835	4877.6	
835.17	3856.3	
835.35	3847.5	
835.52	5582.8	
835.69	5588.9	
835.86	4072.7	
836.03	3329.3	
836.2	5711.1	
836.37	5343.2	
836.55	3999.7	
836.72	3708.9	
836.89	5289.9	
837.06	5771.2	
837.23	4029.7	
837.4	4472.8	
837.57	6573.3	
837.75	7334.5	
837.92	3646.1	
838.09	3913.7	
838.26	5290.6	
838.43	6064.7	
838.6	4149.2	
838.77	3713	
838.94	6944	
839.11	6653.2	
839.29	3992.2	
839.46	3149.8	
839.63	5699.5	
839.8	5488.6	
839.97	3870	
840.14	3882.9	
840.31	5495.4	
840.48	5784.1	
840.65	3215.3	
840.82	3789.4	
841	5684.5	
841.17	5719.3	
841.34	3643.3	
841.51	3578.5	
841.68	5656.5	
841.85	5364.3	
842.02	3732.1	
842.19	3051.5	
842.36	5493.3	
842.53	5481	
842.7	3546.4	
842.87	4401.8	
843.05	7253.9	
843.22	5437.4	
843.39	3390.8	
843.56	3672	
843.73	5117.9	
843.9	5793	
844.07	5797.8	
844.24	4775.9	
844.41	8507.9	
844.58	4978.6	
844.75	3472.7	
844.92	3749.1	
845.09	5737	
845.26	5714.5	
845.43	3551.2	
845.6	3771.7	
845.77	5743.2	
845.94	5432.6	
846.12	3917.8	
846.29	4143	
846.46	5955.5	
846.63	5737	
846.8	3552.5	
846.97	4249.5	
847.14	6211.5	
847.31	5665.4	
847.48	4035.9	
847.65	4407.9	
847.82	5976	
847.99	5950.7	
848.16	4796.3	
848.33	4429.1	
848.5	5284.4	
848.67	6260.6	
848.84	3498.6	
849.01	3717.7	
849.18	5138.4	
849.35	4803.9	
849.52	4407.2	
849.69	3437.9	
849.86	5934.3	
850.03	6148	
850.2	3568.9	
850.37	4353.3	
850.54	6086.6	
850.71	5416.2	
850.88	4203.1	
851.05	3493.8	
851.22	5632.6	
851.39	6290	
851.56	3336.8	
851.73	4054.3	
851.9	4960.9	
852.07	5936.4	
852.24	3976.5	
852.41	3497.9	
852.58	5601.2	
852.75	5059.8	
852.92	3976.5	
853.09	3457	
853.26	5278.3	
853.43	6192.4	
853.6	3528	
853.77	2961.4	
853.94	6314.6	
854.11	5672.2	
854.28	5319.9	
854.44	3837.9	
854.61	6718.7	
854.78	5828.5	
854.95	3528.7	
855.12	4527.4	
855.29	4638.6	
855.46	6324.8	
855.63	3522.5	
855.8	4909	
855.97	5283.8	
856.14	6047	
856.31	4964.3	
856.48	3819.5	
856.65	5264.6	
856.82	4973.8	
856.99	3376.4	
857.16	3809.9	
857.33	6974.7	
857.49	5376.6	
857.66	3820.1	
857.83	4070	
858	5335	
858.17	5541.1	
858.34	3357.3	
858.51	3560.1	
858.68	6470.9	
858.85	6470.9	
859.02	4063.2	
859.19	4361.5	
859.36	4967.7	
859.52	5035.3	
859.69	3571	
859.86	4157.4	
860.03	5112.4	
860.2	6333.7	
860.37	3229	
860.54	3570.3	
860.71	5913.9	
860.88	6439.5	
861.05	3981.3	
861.21	4468	
861.38	6447	
861.55	4906.9	
861.72	3220.8	
861.89	3918.4	
862.06	6086.6	
862.23	6556.2	
862.4	3484.3	
862.56	3667.2	
862.73	5814.2	
862.9	5552	
863.07	4143.7	
863.24	3218	
863.41	4887.1	
863.58	5025	
863.75	3603.1	
863.91	4104.8	
864.08	6363.7	
864.25	5898.1	
864.42	4526	
864.59	4959.5	
864.76	6661.4	
864.93	5032.5	
865.09	3472	
865.26	3809.2	
865.43	6190.3	
865.6	6655.2	
865.77	3087.7	
865.94	3461.7	
866.1	6258.6	
866.27	5982.1	
866.44	5377.3	
866.61	3361.4	
866.78	5401.9	
866.95	5898.2	
867.11	3337.5	
867.28	3108.8	
867.45	6024.4	
867.62	5140.4	
867.79	4061.1	
867.96	3507.5	
868.12	5022.3	
868.29	5992.4	
868.46	3548.4	
868.63	4723.3	
868.8	6227.2	
868.97	5885.2	
869.13	3723.9	
869.3	3756	
869.47	5752.7	
869.64	6087.9	
869.81	3546.4	
869.97	3551.2	
870.14	5795.8	
870.31	6401.3	
870.48	3478.8	
870.65	4393.6	
870.81	5315.2	
870.98	5333.6	
871.15	4022.9	
871.32	3676.8	
871.48	5816.9	
871.65	6472.9	
871.82	3486.3	
871.99	3823.6	
872.16	6859.3	
872.32	6328.9	
872.49	3515	
872.66	3631.7	
872.83	5921.4	
872.99	5203.2	
873.16	4072	
873.33	3491.1	
873.5	5593.7	
873.67	5580	
873.83	3739.6	
874	4724	
874.17	5687.9	
874.34	6803.4	
874.5	4508.9	
874.67	4434.5	
874.84	6403.3	
875.01	5032.5	
875.17	5015.5	
875.34	3528.7	
875.51	5657.9	
875.68	6819.1	
875.84	4281.6	
876.01	5220.3	
876.18	5953.4	
876.34	5778.7	
876.51	3515.7	
876.68	3422.8	
876.85	5387.5	
877.01	6290.7	
877.18	5063.9	
877.35	3468.6	
877.52	5477.6	
877.68	4930.1	
877.85	3417.4	
878.02	3450.1	
878.18	5492.7	
878.35	5203.2	
878.52	2800.9	
878.69	3901.4	
878.85	5976.7	
879.02	5889.3	
879.19	5019.6	
879.35	3831.7	
879.52	5909.8	
879.69	6201.2	
879.86	3020.1	
880.02	3934.1	
880.19	5426.4	
880.36	6651.1	
880.52	4043.4	
880.69	4235.2	
880.86	6067.4	
881.02	6054.5	
881.19	3856.3	
881.36	3815.4	
881.52	5892	
881.69	5228.5	
881.86	3781.2	
882.02	3760.1	
882.19	6111.8	
882.36	7239.6	
882.52	3559.4	
882.69	5060.5	
882.86	5730.9	
883.02	5638.7	
883.19	4345.8	
883.36	4053.6	
883.52	6055.2	
883.69	6867.5	
883.86	3560.7	
884.02	3162.1	
884.19	5973.2	
884.36	5512.4	
884.52	3948.5	
884.69	3771.7	
884.86	5248.3	
885.02	6621.8	
885.19	3978.5	
885.36	4086.4	
885.52	5537.7	
885.69	5666	
885.86	5186.8	
886.02	4553.3	
886.19	5966.4	
886.35	5401.9	
886.52	3920.5	
886.69	4969.1	
886.85	5020.3	
887.02	6346	
887.19	6346	
887.35	6346	
887.52	6346	
887.68	6346	
887.85	6346	
888.02	6346	
888.18	6346	
888.35	6346	
888.51	6346	
888.68	6346	
888.85	6346	
889.01	6346	
889.18	6346	
889.35	6346	
889.51	6346	
889.68	6346	
889.84	6346	
890.01	6346	
890.17	6346	
890.34	6346	
890.51	6346	
890.67	6346	
890.84	6346	
891	6346	
891.17	6346	
891.34	6346	
891.5	6346	
891.67	6346	
891.83	6346	
892	6346	
892.16	6346	
892.33	6346	
892.5	6346	
892.66	6346	
892.83	6346	
892.99	6346	
893.16	6346	
893.32	6346	
893.49	6346	
893.65	6346	
893.82	6346	
893.99	6346	
894.15	6346	
894.32	6346	
894.48	6346	
894.65	6346	
894.81	6346	
894.98	6346	
895.14	6346	
895.31	6346	
895.47	6346	
895.64	6346	
895.81	6346	
895.97	6346	
896.14	6346	
896.3	6346	
896.47	6346	
896.63	6346	
896.8	6346	
896.96	6346	
897.13	6346	
897.29	6346	
897.46	6346	
897.62	6346	
897.79	6346	
897.95	6346	
898.12	6346	
898.28	6346	
898.45	6346	
898.61	6346	
898.78	6346	
898.94	6346	
899.11	6346	
899.27	6346	
899.44	6346	
899.6	6346	
899.77	6346	
899.93	6346	
900.1	6346	
900.26	6346	
900.43	6346	
900.59	6346	
900.76	6346	
900.92	6346	
901.09	6346	
901.25	6346	
901.42	6346	
901.58	6346	
901.75	6346	
901.91	6346	
902.07	6346	
902.24	6346	
902.4	6346	
902.57	6346	
902.73	6346	
902.9	6346	
903.06	6346	
903.23	6346	
903.39	6346	
903.56	6346	
903.72	6346	
903.88	6346	
904.05	6346	
904.21	6346	
904.38	6346	
904.54	6346	
904.71	6346	
904.87	6346	
905.03	6346	
905.2	6346	
905.36	6346	
905.53	6346	
905.69	6346	
905.86	6346	
906.02	6346	
906.18	6346	
906.35	6346	
906.51	6346	
906.68	6346	
906.84	6346	
907.01	6346	
907.17	6346	
907.33	6346	
907.5	6346	
907.66	6346	
907.83	6346	
907.99	6346	
908.15	6346	
908.32	6346	
908.48	6346	
908.65	6346	
908.81	6346	
908.97	6346	
909.14	6346	
909.3	6346	
909.47	6346	
909.63	6346	
909.79	6346	
909.96	6346	
910.12	6346	
910.28	6346	
910.45	6346	
910.61	6346	
910.78	6346	
910.94	6346	
911.1	6346	
911.27	6346	
911.43	6346	
911.59	6346	
911.76	6346	
911.92	6346	
912.08	6346	
912.25	6346	
912.41	6346	
912.57	6346	
912.74	6346	
912.9	6346	
913.07	6346	
913.23	6346	
913.39	6346	
913.56	6346	
913.72	6346	
913.88	6346	
914.05	6346	
914.21	6346	
914.37	6346	
914.54	6346	
914.7	6346	
914.86	6346	
915.03	6346	
915.19	6346	
