Wavelength	Intensities	
nm	a.u.	
179.22	1697.6	
179.44	1708.3	
179.65	1686.8	
179.86	1729.9	
180.08	1691.6	
180.29	3932.8	
180.51	3031.7	
180.72	4946.5	
180.94	5563	
181.15	2706	
181.37	2712.9	
181.58	4780.6	
181.79	5024.3	
182.01	2813.2	
182.22	2966.1	
182.44	5018.2	
182.65	4286.4	
182.87	3634.5	
183.08	3277.4	
183.29	5231.9	
183.51	4398.4	
183.72	2985.9	
183.94	4095.9	
184.15	4743.8	
184.37	4689.8	
184.58	2640.5	
184.79	3449.5	
185.01	4461.2	
185.22	5070.1	
185.44	3628.3	
185.65	3183.9	
185.86	4671.4	
186.08	4352.6	
186.29	2634.4	
186.51	2811.2	
186.72	4498	
186.94	5081.7	
187.15	3168.9	
187.36	3229.6	
187.58	6378.7	
187.79	4849.6	
188.01	3306.1	
188.22	5020.9	
188.43	5551.4	
188.65	4973.2	
188.86	2798.9	
189.08	3226.9	
189.29	4555.4	
189.5	4526.7	
189.72	2992.1	
189.93	3064.4	
190.15	5171.1	
190.36	5997.1	
190.57	3246.7	
190.79	3197.6	
191	5127.4	
191.22	5108.3	
191.43	3325.9	
191.64	2779.1	
191.86	5322.7	
192.07	5098.1	
192.29	2925.2	
192.5	2963.4	
192.71	5122	
192.93	4576.5	
193.14	2995.5	
193.35	3069.9	
193.57	4525.3	
193.78	5199.1	
194	2488.3	
194.21	2929.3	
194.42	4323.9	
194.64	4717.2	
194.85	3213.3	
195.07	3783.3	
195.28	4721.9	
195.49	4249.5	
195.71	3882.3	
195.92	2846	
196.13	4895.3	
196.35	4960.2	
196.56	4121.2	
196.78	3194.1	
196.99	5948	
197.2	5514.5	
197.42	3664.5	
197.63	3228.3	
197.84	4315.8	
198.06	4857.8	
198.27	3059	
198.48	3910.9	
198.7	4567	
198.91	4698.7	
199.13	3269.2	
199.34	3280.2	
199.55	5120.6	
199.77	4108.9	
199.98	2932.7	
200.19	3318.4	
200.41	4683	
200.62	4390.8	
200.83	3398.9	
201.05	3639.2	
201.26	4653	
201.47	4474.8	
201.69	2951.8	
201.9	2879.4	
202.11	4695.3	
202.33	5466.7	
202.54	3075.4	
202.76	3414	
202.97	4786.1	
203.18	4839.4	
203.4	3371.6	
203.61	3416	
203.82	4731.5	
204.04	4482.3	
204.25	3280.8	
204.46	3182.5	
204.68	4711	
204.89	4848.2	
205.1	3215.3	
205.32	2813.2	
205.53	4960.9	
205.74	5087.8	
205.96	2454.8	
206.17	3325.9	
206.38	4953.4	
206.6	5062.6	
206.81	3727.3	
207.02	3064.4	
207.24	4901.5	
207.45	5222.3	
207.66	3173	
207.88	2717	
208.09	4886.5	
208.3	4709.6	
208.52	2909.5	
208.73	3201	
208.94	4715.1	
209.15	5263.3	
209.37	3095.2	
209.58	3257	
209.79	5146.5	
210.01	4581.3	
210.22	2635.7	
210.43	2671.2	
210.65	4666.6	
210.86	4981.3	
211.07	3106.8	
211.29	2866.5	
211.5	4949.9	
211.71	4651.6	
211.93	2886.3	
212.14	2919.7	
212.35	4642.7	
212.56	4775.9	
212.78	3286.3	
212.99	2740.2	
213.2	5399.8	
213.42	4552	
213.63	3009.8	
213.84	3173.7	
214.06	4255	
214.27	4320.5	
214.48	3174.4	
214.69	3315.7	
214.91	5196.4	
215.12	5231.9	
215.33	3303.4	
215.55	3564.1	
215.76	5612.8	
215.97	4934.2	
216.18	3192.1	
216.4	3135.4	
216.61	4441.4	
216.82	5023.7	
217.04	2935.4	
217.25	3018	
217.46	5150	
217.67	4992.9	
217.89	2706.7	
218.1	2722.4	
218.31	4765.6	
218.53	4877.6	
218.74	3104.7	
218.95	2950.4	
219.16	4689.2	
219.38	5421.7	
219.59	2983.9	
219.8	3414.6	
220.01	5791	
220.23	4741.7	
220.44	3746.4	
220.65	2856.9	
220.87	4847.5	
221.08	5193	
221.29	2794.1	
221.5	3477.5	
221.72	6148	
221.93	4503.5	
222.14	3305.4	
222.35	3839.9	
222.57	4732.9	
222.78	5038.7	
222.99	3161.4	
223.2	3314.3	
223.42	4918.5	
223.63	4988.9	
223.84	2497.2	
224.05	2477.4	
224.27	5754.1	
224.48	5364.3	
224.69	3777.1	
224.9	3274	
225.12	4836.6	
225.33	4674.8	
225.54	2706.7	
225.75	2970.2	
225.97	4444.8	
226.18	4631.8	
226.39	3131.3	
226.6	2983.9	
226.82	4554.7	
227.03	4405.9	
227.24	3263.8	
227.45	2811.9	
227.67	5037.3	
227.88	5342.5	
228.09	3599.6	
228.3	3601	
228.52	5042.1	
228.73	4672.1	
228.94	3063.1	
229.15	2779.1	
229.36	4673.5	
229.58	4639.3	
229.79	3091.8	
230	3484.3	
230.21	5535.7	
230.43	4743.8	
230.64	3231	
230.85	3315.7	
231.06	5063.9	
231.28	5073.5	
231.49	2767.5	
231.7	3226.2	
231.91	5001.8	
232.12	4685.8	
232.34	2895.8	
232.55	3153.9	
232.76	5133.6	
232.97	4805.2	
233.18	2955.2	
233.4	3261	
233.61	4853.7	
233.82	4545.1	
234.03	3045.3	
234.25	3012.6	
234.46	6176	
234.67	4794.3	
234.88	3321.8	
235.09	2924.5	
235.31	4870.1	
235.52	4618.2	
235.73	3220.8	
235.94	2794.8	
236.15	4532.8	
236.37	5550.7	
236.58	2904.7	
236.79	3153.2	
237	4934.9	
237.21	4297.3	
237.43	3377.1	
237.64	2699.9	
237.85	7748.1	
238.06	4371.7	
238.27	3320.4	
238.48	2815.3	
238.7	4956.1	
238.91	4599.7	
239.12	3076.7	
239.33	3217.4	
239.54	4483	
239.76	4648.2	
239.97	3148.4	
240.18	3103.4	
240.39	5623.7	
240.6	4871.4	
240.82	3259.7	
241.03	2777.7	
241.24	4681.7	
241.45	5234.6	
241.66	2893.1	
241.87	3388	
242.09	5298.8	
242.3	5532.2	
242.51	3351.8	
242.72	3154.6	
242.93	5040.1	
243.14	4626.4	
243.36	3637.9	
243.57	3872.7	
243.78	5380	
243.99	4949.9	
244.2	3140.2	
244.41	2800.9	
244.63	4412	
244.84	4886.5	
245.05	3296.5	
245.26	3111.5	
245.47	4986.8	
245.68	5046.9	
245.9	4031.8	
246.11	3334.1	
246.32	4547.2	
246.53	4909.7	
246.74	4912.4	
246.95	2738.8	
247.16	4413.4	
247.38	4736.3	
247.59	2707.4	
247.8	3141.6	
248.01	4427	
248.22	4693.9	
248.43	2897.2	
248.64	3099.9	
248.86	4311	
249.07	4526	
249.28	2812.5	
249.49	3249.4	
249.7	5113.1	
249.91	5167.7	
250.12	2717.7	
250.34	2740.9	
250.55	4782	
250.76	4713.7	
250.97	3261.7	
251.18	3209.2	
251.39	5142.4	
251.6	4837.3	
251.81	3254.2	
252.03	3259.7	
252.24	4569.7	
252.45	5028.4	
252.66	2822.1	
252.87	3407.1	
253.08	4762.9	
253.29	5800.5	
253.5	2819.4	
253.72	3810.6	
253.93	4655.7	
254.14	5412.8	
254.35	3033	
254.56	3065.1	
254.77	4896.7	
254.98	4465.9	
255.19	3046	
255.41	3731.4	
255.62	4826.4	
255.83	5163.6	
256.04	3400.3	
256.25	3226.2	
256.46	5612.1	
256.67	4457.1	
256.88	3293.1	
257.09	3548.4	
257.31	4415.4	
257.52	4449.6	
257.73	3988.8	
257.94	3001.6	
258.15	4689.8	
258.36	4717.2	
258.57	3653.6	
258.78	2454.8	
258.99	5047.6	
259.2	4551.3	
259.41	2984.6	
259.63	3076	
259.84	5314.5	
260.05	5553.4	
260.26	3852.2	
260.47	2971.6	
260.68	5164.3	
260.89	4624.3	
261.1	3562.8	
261.31	2898.6	
261.52	5199.8	
261.73	5382.7	
261.95	3811.3	
262.16	3358	
262.37	5229.1	
262.58	5285.1	
262.79	3808.5	
263	3074	
263.21	4761.5	
263.42	4274.8	
263.63	3322.5	
263.84	3075.4	
264.05	5050.3	
264.26	5277.6	
264.47	3690.4	
264.69	3246.7	
264.9	5283.1	
265.11	4853.7	
265.32	2936.8	
265.53	2981.8	
265.74	4776.5	
265.95	4272.7	
266.16	3186.6	
266.37	3485.6	
266.58	4807.9	
266.79	4556.7	
267	3026.9	
267.21	2862.4	
267.42	4370.4	
267.63	4699.4	
267.84	3124.5	
268.06	2735.4	
268.27	5048.9	
268.48	5169.1	
268.69	3132.7	
268.9	3543.7	
269.11	5283.1	
269.32	4282.3	
269.53	3128.6	
269.74	2904	
269.95	4875.5	
270.16	4264.6	
270.37	3196.2	
270.58	3628.3	
270.79	4653	
271	5063.3	
271.21	3345.7	
271.42	3218.7	
271.63	4895.3	
271.84	4360.8	
272.05	2585.2	
272.26	2870.6	
272.47	4700.8	
272.68	4904.2	
272.89	3083.6	
273.11	3409.9	
273.32	4531.5	
273.53	5339.7	
273.74	3396.2	
273.95	3243.3	
274.16	5059.8	
274.37	4702.1	
274.58	3432.4	
274.79	2846.7	
275	4857.8	
275.21	5174.5	
275.42	4006.5	
275.63	3444	
275.84	4939.7	
276.05	5950	
276.26	3294.5	
276.47	3110.9	
276.68	4635.9	
276.89	5494	
277.1	3449.5	
277.31	2806.4	
277.52	4844.8	
277.73	5126.1	
277.94	2772.9	
278.15	3049.4	
278.36	4893.3	
278.57	4509.6	
278.78	3032.4	
278.99	3338.2	
279.2	4532.2	
279.41	4451.6	
279.62	3873.4	
279.83	2867.8	
280.04	5631.2	
280.25	4429.1	
280.46	3844	
280.67	3136.1	
280.88	4450.9	
281.09	5147.9	
281.3	3293.1	
281.51	4054.3	
281.72	4493.2	
281.93	5026.4	
282.14	2990	
282.35	3209.2	
282.56	5147.2	
282.77	5007.3	
282.98	3114.3	
283.19	3597.6	
283.4	6042.9	
283.61	4658.4	
283.82	2848	
284.03	3830.4	
284.24	4890.5	
284.45	5116.5	
284.66	3866.6	
284.87	3654.3	
285.08	5185.5	
285.29	5316.5	
285.5	2742.9	
285.71	3078.8	
285.92	5150.6	
286.12	5639.4	
286.33	3800.3	
286.54	3114.3	
286.75	5107	
286.96	4625	
287.17	2871.9	
287.38	3745.1	
287.59	4506.2	
287.8	4504.8	
288.01	3071.3	
288.22	3416	
288.43	4995	
288.64	4306.2	
288.85	3646.1	
289.06	3488.4	
289.27	5042.8	
289.48	5313.8	
289.69	3822.2	
289.9	3525.2	
290.11	5253.7	
290.32	4506.9	
290.53	3578.5	
290.74	3308.8	
290.94	5036	
291.15	5045.5	
291.36	3051.5	
291.57	3420.1	
291.78	4584	
291.99	4307.6	
292.2	2892.4	
292.41	3397.6	
292.62	5128.1	
292.83	4958.8	
293.04	4044.1	
293.25	2971.6	
293.46	4577.2	
293.67	5152.7	
293.88	2947	
294.09	2895.8	
294.29	4409.3	
294.5	4842.1	
294.71	3168.9	
294.92	3044.6	
295.13	4579.9	
295.34	5580.7	
295.55	2745.6	
295.76	2724.5	
295.97	5031.2	
296.18	5473.5	
296.39	2850.8	
296.6	2982.5	
296.81	4744.5	
297.01	5027.1	
297.22	3061.7	
297.43	2968.9	
297.64	4558.8	
297.85	4459.8	
298.06	2563.4	
298.27	2696.5	
298.48	4718.5	
298.69	4481.6	
298.9	3229.6	
299.11	2933.4	
299.31	4417.5	
299.52	4388.8	
299.73	3392.8	
299.94	3300	
300.15	4772.4	
300.36	4524	
300.57	3284.3	
300.78	3300.6	
300.99	4547.2	
301.2	4753.3	
301.4	2983.2	
301.61	3191.4	
301.82	4958.8	
302.03	4997	
302.24	3518.4	
302.45	2875.3	
302.66	4947.2	
302.87	5184.8	
303.08	2954.5	
303.29	3905.5	
303.49	4579.3	
303.7	4685.8	
303.91	2667.8	
304.12	3788.1	
304.33	4352.6	
304.54	4871.4	
304.75	3026.9	
304.96	2909.5	
305.16	4953.4	
305.37	5415.5	
305.58	2687.6	
305.79	2740.2	
306	4971.1	
306.21	4227.7	
306.42	3028.9	
306.63	4275.5	
306.83	4597.7	
307.04	5048.9	
307.25	3216.7	
307.46	3220.8	
307.67	4157.4	
307.88	4965	
308.09	3013.2	
308.29	3047.4	
308.5	4823.6	
308.71	5124	
308.92	3148.4	
309.13	2917	
309.34	4667.3	
309.55	4640	
309.75	3628.3	
309.96	3380.5	
310.17	5010	
310.38	4493.9	
310.59	3439.9	
310.8	2817.3	
311.01	4570.4	
311.21	4668.7	
311.42	2920.4	
311.63	2983.9	
311.84	4556	
312.05	4780.6	
312.26	3276.8	
312.46	3556	
312.67	4657.1	
312.88	4336.9	
313.09	2826.2	
313.3	2811.2	
313.51	5266	
313.71	5524.7	
313.92	2880.8	
314.13	2991.4	
314.34	4919.9	
314.55	4688.5	
314.76	3620.1	
314.96	3150.5	
315.17	4797	
315.38	5053	
315.59	2919.7	
315.8	2772.9	
316.01	5268.7	
316.21	5341.8	
316.42	2834.4	
316.63	3183.9	
316.84	4617.5	
317.05	5203.2	
317.26	3396.9	
317.46	3035.1	
317.67	4714.4	
317.88	4969.7	
318.09	3609.2	
318.3	2745	
318.5	4568.3	
318.71	4898.1	
318.92	4427	
319.13	3374.4	
319.34	5095.3	
319.54	5189.6	
319.75	2718.3	
319.96	2656.9	
320.17	4954	
320.38	5128.1	
320.58	2708.8	
320.79	3136.8	
321	5130.2	
321.21	5254.4	
321.42	3244.7	
321.62	2738.1	
321.83	4457.7	
322.04	4726.7	
322.25	3093.8	
322.46	2850.8	
322.66	4833.9	
322.87	4958.8	
323.08	3435.8	
323.29	2835.8	
323.5	5511.8	
323.7	4369	
323.91	3842	
324.12	3430.3	
324.33	4816.1	
324.53	4962.2	
324.74	3338.2	
324.95	3472.7	
325.16	4311	
325.37	4564.2	
325.57	2923.8	
325.78	3016	
325.99	4805.2	
326.2	4373.1	
326.4	3917.8	
326.61	2683.5	
326.82	4642.7	
327.03	4823	
327.24	3960.8	
327.44	3725.3	
327.65	4917.2	
327.86	4140.3	
328.07	3353.2	
328.27	2847.4	
328.48	5246.9	
328.69	4397.7	
328.9	4039.3	
329.1	3061.7	
329.31	4709	
329.52	5351.3	
329.73	2928.6	
329.93	3210.5	
330.14	4813.4	
330.35	4870.8	
330.56	4507.6	
330.76	3441.3	
330.97	4629.8	
331.18	4885.8	
331.39	3224.2	
331.59	2681.5	
331.8	5156.1	
332.01	5264.6	
332.22	2974.3	
332.42	3358	
332.63	4803.2	
332.84	4412	
333.05	3232.4	
333.25	2938.8	
333.46	4479.6	
333.67	4670.7	
333.88	3018.7	
334.08	3291.1	
334.29	5995.1	
334.5	5183.4	
334.7	2847.4	
334.91	4010.6	
335.12	4382	
335.33	5001.8	
335.53	3201	
335.74	4439.3	
335.95	4594.3	
336.16	4380.6	
336.36	3144.3	
336.57	3586.7	
336.78	4332.8	
336.98	5150.6	
337.19	3820.8	
337.4	3138.2	
337.61	5504.9	
337.81	4336.2	
338.02	2975.7	
338.23	3710.2	
338.43	5272.8	
338.64	4479.6	
338.85	2917.7	
339.05	3738.9	
339.26	5429.8	
339.47	4300.1	
339.68	2949.1	
339.88	4141	
340.09	4904.9	
340.3	5059.2	
340.5	3368.2	
340.71	2694.4	
340.92	4359.4	
341.13	5201.8	
341.33	2857.6	
341.54	3377.8	
341.75	4852.3	
341.95	4627	
342.16	3200.3	
342.37	3486.3	
342.57	4363.5	
342.78	4641.4	
342.99	3476.1	
343.19	2698.5	
343.4	5090.6	
343.61	4895.3	
343.81	3091.8	
344.02	2880.8	
344.23	5041.4	
344.43	5279	
344.64	3548.4	
344.85	3463.1	
345.06	4949.9	
345.26	5137	
345.47	3366.2	
345.68	3825.6	
345.88	4248.2	
346.09	5096.7	
346.3	3378.5	
346.5	2602.3	
346.71	4667.3	
346.92	4480.3	
347.12	2777	
347.33	3250.8	
347.54	5056.4	
347.74	5360.9	
347.95	3295.2	
348.16	2610.5	
348.36	4600.4	
348.57	4401.1	
348.78	3356.6	
348.98	3534.1	
349.19	4709	
349.39	4259.8	
349.6	2744.3	
349.81	2983.9	
350.01	4956.8	
350.22	4497.3	
350.43	3235.8	
350.63	3719.8	
350.84	4768.4	
351.05	4546.5	
351.25	2991.4	
351.46	2706.7	
351.67	5091.9	
351.87	4464.6	
352.08	3138.2	
352.29	3526.6	
352.49	5083.7	
352.7	5117.9	
352.9	2818.7	
353.11	3504.1	
353.32	5603.2	
353.52	4646.8	
353.73	2929.3	
353.94	3561.4	
354.14	5031.2	
354.35	4799.8	
354.55	3001.6	
354.76	3206.4	
354.97	4916.5	
355.17	4747.9	
355.38	2846.7	
355.59	3719.1	
355.79	4535.6	
356	4757.4	
356.2	3262.4	
356.41	2908.1	
356.62	4366.3	
356.82	4730.1	
357.03	3475.4	
357.24	3120.4	
357.44	4527.4	
357.65	4610	
357.85	4003.8	
358.06	3312.2	
358.27	4371	
358.47	4528.7	
358.68	2851.5	
358.88	3503.4	
359.09	4959.5	
359.3	5125.4	
359.5	3956.7	
359.71	3546.4	
359.91	5449.6	
360.12	5018.2	
360.33	3525.9	
360.53	3792.8	
360.74	4539.7	
360.94	4682.3	
361.15	3637.9	
361.36	3065.8	
361.56	5173.2	
361.77	4804.5	
361.97	3956	
362.18	3226.2	
362.38	5184.8	
362.59	4514.4	
362.8	3011.2	
363	2944.3	
363.21	4363.5	
363.41	4876.9	
363.62	3435.1	
363.83	4003.8	
364.03	4965.6	
364.24	5558.9	
364.44	4184	
364.65	4188.1	
364.85	4732.9	
365.06	4569.7	
365.27	3147.7	
365.47	3198.2	
365.68	5446.2	
365.88	4754	
366.09	3521.8	
366.29	3211.2	
366.5	4942.4	
366.71	5180.7	
366.91	4151.9	
367.12	3582.6	
367.32	5694.7	
367.53	5119.2	
367.73	3569.6	
367.94	4238.6	
368.14	5075.5	
368.35	5659.9	
368.56	3544.4	
368.76	3130	
368.97	5195	
369.17	6322.1	
369.38	3152.5	
369.58	3353.2	
369.79	4419.5	
369.99	5436.7	
370.2	4146.5	
370.4	3431.7	
370.61	4995	
370.82	5853.1	
371.02	3392.1	
371.23	2921.1	
371.43	4519.9	
371.64	5395.7	
371.84	3499.3	
372.05	4206.5	
372.25	6272.2	
372.46	5156.8	
372.66	3429	
372.87	3463.8	
373.07	5184.1	
373.28	6444.3	
373.48	4119.1	
373.69	3937.6	
373.9	4884.4	
374.1	4918.5	
374.31	4104.1	
374.51	3751.2	
374.72	5504.9	
374.92	4692.6	
375.13	4279.6	
375.33	3685.7	
375.54	5103.5	
375.74	4855.1	
375.95	3801	
376.15	4553.3	
376.36	5216.2	
376.56	5146.5	
376.77	3702.7	
376.97	4048.8	
377.18	6012.8	
377.38	5353.4	
377.59	4252.3	
377.79	3489.1	
378	5087.2	
378.2	5382.7	
378.41	3513.6	
378.61	3442	
378.82	5543.9	
379.02	4957.4	
379.23	3595.6	
379.43	4414.1	
379.64	5597.1	
379.84	5313.1	
380.05	3540.9	
380.25	3474	
380.46	5339.7	
380.66	5047.6	
380.87	4449.6	
381.07	4657.1	
381.28	5765.7	
381.48	5348.6	
381.69	3528	
381.89	3605.8	
382.1	4678.9	
382.3	5380	
382.51	4220.2	
382.71	4955.4	
382.91	5233.9	
383.12	5612.1	
383.32	3755.3	
383.53	3885.7	
383.73	5172.5	
383.94	5097.4	
384.14	3914.4	
384.35	3254.2	
384.55	4926	
384.76	5369.1	
384.96	3781.9	
385.17	3941	
385.37	5280.3	
385.58	4803.2	
385.78	3877.5	
385.98	3216.7	
386.19	4953.4	
386.39	5279.7	
386.6	3582.6	
386.8	3762.8	
387.01	5273.5	
387.21	5346.6	
387.42	3981.9	
387.62	4420.9	
387.83	4885.8	
388.03	5177.3	
388.23	3796.3	
388.44	4348.5	
388.64	4659.8	
388.85	4763.6	
389.05	4005.1	
389.26	4486.4	
389.46	6221	
389.67	5715.9	
389.87	4077.5	
390.07	4115.7	
390.28	5048.9	
390.48	4822.3	
390.69	3497.2	
390.89	3763.5	
391.1	4984.8	
391.3	5552	
391.5	4563.6	
391.71	4999.1	
391.91	5500.8	
392.12	6054.5	
392.32	4666	
392.53	4072.7	
392.73	5086.5	
392.93	5114.5	
393.14	3827.7	
393.34	4617.5	
393.55	5386.2	
393.75	5049.6	
393.95	3799.7	
394.16	3731.4	
394.36	4976.6	
394.57	5439.4	
394.77	3414.6	
394.98	3682.9	
395.18	4926	
395.38	5025.7	
395.59	4355.3	
395.79	3691.1	
396	5146.5	
396.2	5453.7	
396.4	4264.6	
396.61	4240	
396.81	5489.2	
397.02	4989.5	
397.22	4426.3	
397.42	4454.3	
397.63	5616.2	
397.83	4995.7	
398.04	3692.5	
398.24	4021.5	
398.44	5386.2	
398.65	4696	
398.85	3614	
399.05	3642.7	
399.26	5078.3	
399.46	6173.3	
399.67	3949.8	
399.87	3781.9	
400.07	5312.4	
400.28	5504.9	
400.48	3842	
400.69	4591.5	
400.89	5558.2	
401.09	5995.8	
401.3	3788.1	
401.5	4577.9	
401.7	6107	
401.91	6338.5	
402.11	4059.8	
402.32	4099.4	
402.52	5701.5	
402.72	5618.3	
402.93	4311	
403.13	3476.1	
403.33	6254.5	
403.54	5169.1	
403.74	3984	
403.94	4546.5	
404.15	5264.6	
404.35	6101.6	
404.56	3849.5	
404.76	5150.6	
404.96	5686.5	
405.17	5464.7	
405.37	4717.2	
405.57	4242	
405.78	5721.3	
405.98	5332.2	
406.18	3975.1	
406.39	4465.9	
406.59	5640.8	
406.79	5233.2	
407	3737.5	
407.2	3812.6	
407.4	5874.9	
407.61	5746.6	
407.81	3883.6	
408.01	5370.5	
408.22	4985.4	
408.42	6344.6	
408.62	4745.1	
408.83	4373.8	
409.03	5511.1	
409.23	5390.9	
409.44	4379.9	
409.64	4585.4	
409.84	6250.4	
410.05	6161	
410.25	4514.4	
410.45	4387.4	
410.66	5824.4	
410.86	7606.8	
411.06	4777.9	
411.27	4650.3	
411.47	7441	
411.67	5890	
411.88	4749.9	
412.08	5012.1	
412.28	6382.2	
412.49	6787.7	
412.69	4709	
412.89	4726	
413.09	6630.6	
413.3	6477.7	
413.5	4750.6	
413.7	4521.9	
413.91	6048.3	
414.11	6662	
414.31	4692.6	
414.52	4947.2	
414.72	6369.9	
414.92	6304.3	
415.12	4578.6	
415.33	5003.9	
415.53	6599.2	
415.73	6724.8	
415.94	5226.4	
416.14	4800.4	
416.34	5978.7	
416.55	5735	
416.75	5651.7	
416.95	5358.2	
417.15	6688.7	
417.36	7195.2	
417.56	5909.8	
417.76	5218.9	
417.97	6863.4	
418.17	6713.2	
418.37	5016.2	
418.57	5007.3	
418.78	6602	
418.98	6369.9	
419.18	5626.5	
419.38	5508.4	
419.59	6252.4	
419.79	6060.6	
419.99	4788.2	
420.2	5021.6	
420.4	6679.8	
420.6	6714.6	
420.8	4788.8	
421.01	4739.7	
421.21	6576.7	
421.41	6665.5	
421.61	5064.6	
421.82	4829.8	
422.02	6247	
422.22	6892.8	
422.42	5369.1	
422.63	5152	
422.83	6232	
423.03	7217.7	
423.23	5122.7	
423.44	4408.6	
423.64	6299.6	
423.84	6022.4	
424.04	4717.8	
424.25	4451.6	
424.45	6863.4	
424.65	6834.1	
424.85	4393.6	
425.06	4759.5	
425.26	6987	
425.46	6228.6	
425.66	5033.9	
425.87	4863.2	
426.07	6713.9	
426.27	6532.3	
426.47	4941.7	
426.67	4444.1	
426.88	6942.6	
427.08	6446.3	
427.28	5098.1	
427.48	4476.9	
427.69	5806	
427.89	6234	
428.09	5057.8	
428.29	4496	
428.5	6583.5	
428.7	6387.6	
428.9	4453.6	
429.1	4778.6	
429.3	6391	
429.51	6543.3	
429.71	4640.7	
429.91	5266	
430.11	6648.4	
430.31	6724.2	
430.52	4829.8	
430.72	5150.6	
430.92	6900.3	
431.12	6539.2	
431.32	4629.8	
431.53	4875.5	
431.73	5804.6	
431.93	6982.2	
432.13	4562.2	
432.33	4556	
432.54	6165.1	
432.74	6338.5	
432.94	4515.1	
433.14	5244.8	
433.34	6688.7	
433.55	6255.9	
433.75	5223.7	
433.95	6461.3	
434.15	6432	
434.35	6199.9	
434.56	4607.2	
434.76	4306.9	
434.96	6396.5	
435.16	6619.7	
435.36	4584	
435.56	5358.9	
435.77	6153.5	
435.97	6348	
436.17	5903.6	
436.37	5302.2	
436.57	6079.7	
436.78	6178.7	
436.98	5269.4	
437.18	5774.6	
437.38	6619.7	
437.58	6324.8	
437.78	5825.1	
437.99	4879.6	
438.19	6554.2	
438.39	7151.5	
438.59	4815.5	
438.79	4414.7	
438.99	7090.1	
439.2	6153.5	
439.4	4422.9	
439.6	4471.4	
439.8	6444.3	
440	7339.2	
440.2	5349.3	
440.4	5317.9	
440.61	6860.7	
440.81	7279.8	
441.01	4710.3	
441.21	5352	
441.41	7153.6	
441.61	6780.1	
441.81	5591.6	
442.02	6299.6	
442.22	7453.2	
442.42	6954.2	
442.62	4788.8	
442.82	4863.2	
443.02	7211.6	
443.22	6528.2	
443.43	5187.5	
443.63	4747.9	
443.83	6355.5	
444.03	6404.7	
444.23	5761.6	
444.43	5376.6	
444.63	6737.1	
444.83	7555	
445.04	4947.2	
445.24	5758.2	
445.44	6937.8	
445.64	6921.5	
445.84	5431.9	
446.04	5436.7	
446.24	6422.4	
446.44	7111.9	
446.65	4772.4	
446.85	5125.4	
447.05	6551.5	
447.25	7089.4	
447.45	5200.5	
447.65	4755.4	
447.85	6647.7	
448.05	6292	
448.25	5420.3	
448.46	5263.3	
448.66	6619	
448.86	6312.5	
449.06	4617.5	
449.26	5393	
449.46	6868.2	
449.66	6231.3	
449.86	5125.4	
450.06	5094	
450.26	6335	
450.47	6732.4	
450.67	5309.7	
450.87	5479	
451.07	6935.8	
451.27	6662.7	
451.47	4773.1	
451.67	5204.6	
451.87	6455.2	
452.07	7219.1	
452.27	5012.7	
452.47	4970.4	
452.67	6711.9	
452.88	6922.1	
453.08	4508.3	
453.28	5844.9	
453.48	7476.5	
453.68	6511.9	
453.88	4816.8	
454.08	5020.3	
454.28	6906.4	
454.48	6593.1	
454.68	5345.9	
454.88	5799.2	
455.08	6987	
455.28	6731	
455.48	4833.9	
455.68	5218.9	
455.89	7376.8	
456.09	7068.9	
456.29	5100.8	
456.49	5160.2	
456.69	7229.3	
456.89	7122.2	
457.09	5499.5	
457.29	5796.4	
457.49	6937.8	
457.69	7053.9	
457.89	5436	
458.09	4942.4	
458.29	6843.6	
458.49	7428.7	
458.69	5657.2	
458.89	5288.5	
459.09	7578.8	
459.29	7478.5	
459.49	5274.9	
459.69	5895.4	
459.9	7185	
460.1	6836.1	
460.3	5277.6	
460.5	5018.9	
460.7	7192.5	
460.9	6863.4	
461.1	4944.5	
461.3	5809.4	
461.5	7712	
461.7	7329.7	
461.9	5257.1	
462.1	5540.4	
462.3	7001.3	
462.5	7359.7	
462.7	5232.6	
462.9	5331.5	
463.1	8174.1	
463.3	7968	
463.5	5484.5	
463.7	6278.4	
463.9	7196.6	
464.1	7418.4	
464.3	5629.9	
464.5	5825.1	
464.7	7701.7	
464.9	7395.9	
465.1	6743.3	
465.3	6022.4	
465.5	7922.9	
465.7	7950.9	
465.9	6300.2	
466.1	5984.2	
466.3	7797.3	
466.5	7595.9	
466.7	6731	
466.9	5892.7	
467.1	7728.4	
467.3	8263.6	
467.5	6758.3	
467.7	5857.2	
467.9	8458.8	
468.1	9121.7	
468.3	6491.4	
468.5	6827.9	
468.7	7599.3	
468.9	7520.8	
469.1	6159.6	
469.3	6613.6	
469.5	9056.1	
469.7	7319.4	
469.9	6449.7	
470.1	5966.4	
470.3	7685.3	
470.5	7730.4	
470.7	6854.6	
470.9	5999.9	
471.1	7490.8	
471.3	7716.7	
471.5	5895.4	
471.69	7234.1	
471.89	7430.7	
472.09	6937.2	
472.29	6344.6	
472.49	6696.9	
472.69	7216.4	
472.89	7670.3	
473.09	5764.3	
473.29	5760.9	
473.49	7300.3	
473.69	7316.7	
473.89	6417.7	
474.09	5935	
474.29	8283.4	
474.49	7912	
474.69	6500.9	
474.89	6091.3	
475.09	7412.3	
475.29	7327.6	
475.49	5603.2	
475.69	5827.2	
475.88	8522.3	
476.08	7675.8	
476.28	5487.2	
476.48	5836	
476.68	7946.1	
476.88	7692.2	
477.08	5814.2	
477.28	5954.8	
477.48	7334.5	
477.68	7793.2	
477.88	5634.6	
478.08	5854.5	
478.28	8085.4	
478.48	7484.6	
478.67	5873.6	
478.87	5466.7	
479.07	7937.9	
479.27	7574.8	
479.47	5971.2	
479.67	5992.4	
479.87	7777.5	
480.07	8094.9	
480.27	5503.6	
480.47	6647	
480.67	7516	
480.87	8062.2	
481.06	5723.4	
481.26	6399.9	
481.46	7531.1	
481.66	7439.6	
481.86	6025.8	
482.06	6687.3	
482.26	7253.2	
482.46	7860.1	
482.66	5979.4	
482.86	5584.1	
483.05	7607.5	
483.25	7055.9	
483.45	7740.6	
483.65	5951.4	
483.85	7212.9	
484.05	7385	
484.25	6312.5	
484.45	6573.3	
484.65	8066.3	
484.84	8023.9	
485.04	5943.9	
485.24	5878.4	
485.44	8340	
485.64	6993.8	
485.84	5449	
486.04	6407.4	
486.24	7427.3	
486.44	7604.1	
486.63	5382.7	
486.83	6069.5	
487.03	7359.7	
487.23	7421.8	
487.43	5476.3	
487.63	7210.9	
487.83	7544.7	
488.02	8110	
488.22	6210.8	
488.42	6589	
488.62	8129.8	
488.82	7281.9	
489.02	5938.4	
489.22	5965.7	
489.41	7995.3	
489.61	7725.6	
489.81	5722	
490.01	5818.3	
490.21	7938.6	
490.41	8482.7	
490.61	5709.7	
490.8	5859.2	
491	7597.3	
491.2	7090.8	
491.4	6284.5	
491.6	5579.3	
491.8	7545.4	
491.99	7606.8	
492.19	5558.2	
492.39	5687.9	
492.59	7903.8	
492.79	7989.8	
492.99	6450.4	
493.18	5763	
493.38	8089.5	
493.58	8638.3	
493.78	6307.1	
493.98	5976	
494.18	7909.9	
494.37	7458.7	
494.57	6467.5	
494.77	6376.7	
494.97	8066.9	
495.17	8190.5	
495.37	6105.7	
495.56	6444.3	
495.76	8503.2	
495.96	8219.2	
496.16	7094.8	
496.36	6370.5	
496.55	8319.5	
496.75	7891.5	
496.95	6526.2	
497.15	6450.4	
497.35	8193.9	
497.54	8173.4	
497.74	6281.8	
497.94	7198.6	
498.14	8780.3	
498.34	8630.1	
498.53	6162.3	
498.73	6674.3	
498.93	7793.2	
499.13	8272.4	
499.33	6531	
499.52	6830.7	
499.72	8319.5	
499.92	8434.9	
500.12	6364.4	
500.32	6512.5	
500.51	8402.8	
500.71	8273.8	
500.91	6969.9	
501.11	6765.1	
501.31	8327	
501.5	8670.4	
501.7	7262.8	
501.9	6479.1	
502.1	8287.4	
502.29	8479.3	
502.49	6901.7	
502.69	7186.3	
502.89	8352.3	
503.09	8300.4	
503.28	6138.4	
503.48	6150.1	
503.68	7858.1	
503.88	7794.6	
504.07	6798.6	
504.27	6592.4	
504.47	8056	
504.67	8178.2	
504.86	6793.1	
505.06	6580.8	
505.26	7868.3	
505.46	8967.4	
505.65	6450.4	
505.85	6550.1	
506.05	7757	
506.25	8181	
506.44	5967.8	
506.64	6587	
506.84	7660.8	
507.04	8171.4	
507.23	6101.6	
507.43	6499.6	
507.63	9067	
507.83	7750.2	
508.02	6530.3	
508.22	6122.1	
508.42	9247.3	
508.62	7650.5	
508.81	6290.7	
509.01	6709.1	
509.21	7525.6	
509.4	7753.6	
509.6	6475.7	
509.8	6090.7	
510	7791.8	
510.19	8632.2	
510.39	6069.5	
510.59	6161	
510.79	7655.3	
510.98	8551	
511.18	6185.5	
511.38	6218.3	
511.57	8224.6	
511.77	7919.5	
511.97	6722.1	
512.17	6075.6	
512.36	8189.1	
512.56	8000.7	
512.76	5998.5	
512.95	5717.9	
513.15	8342.7	
513.35	7193.8	
513.55	6664.1	
513.74	6024.4	
513.94	8230.1	
514.14	7767.3	
514.33	6762.4	
514.53	6617.7	
514.73	7793.9	
514.92	7879.2	
515.12	6122.7	
515.32	6032.6	
515.51	7884.7	
515.71	8229.4	
515.91	7276.4	
516.11	6081.1	
516.3	9060.2	
516.5	7615	
516.7	6494.8	
516.89	6870.3	
517.09	7735.9	
517.29	7725.6	
517.48	6767.2	
517.68	6272.9	
517.88	7520.1	
518.07	8000.7	
518.27	6513.9	
518.47	5973.9	
518.66	8339.3	
518.86	7432.1	
519.06	5745.9	
519.25	6090.7	
519.45	7568.6	
519.65	8731.2	
519.84	6612.9	
520.04	7107.8	
520.24	9045.2	
520.43	8048.5	
520.63	6421.1	
520.83	6101.6	
521.02	7552.2	
521.22	8006.2	
521.42	6459.3	
521.61	6878.4	
521.81	7650.5	
522.01	7898.3	
522.2	6445.6	
522.4	6253.8	
522.6	8221.9	
522.79	7221.8	
522.99	6277	
523.18	5941.8	
523.38	7946.8	
523.58	7956.4	
523.77	7225.9	
523.97	5926.8	
524.17	9344.9	
524.36	8729.1	
524.56	6964.5	
524.76	6601.3	
524.95	7974.8	
525.15	7795.9	
525.34	6444.3	
525.54	6476.4	
525.74	8318.2	
525.93	7588.4	
526.13	7347.4	
526.33	6545.3	
526.52	8559.8	
526.72	8103.1	
526.91	7398.6	
527.11	6782.9	
527.31	8541.4	
527.5	8869.8	
527.7	6793.1	
527.89	6109.1	
528.09	7897	
528.29	8275.8	
528.48	7049.8	
528.68	6802.7	
528.87	8460.2	
529.07	8518.2	
529.27	6784.2	
529.46	6434.7	
529.66	8239	
529.85	8491.6	
530.05	6268.8	
530.25	6837.5	
530.44	9194.7	
530.64	8169.3	
530.83	6557.6	
531.03	6662	
531.23	8658.1	
531.42	8333.9	
531.62	7292.8	
531.81	6603.3	
532.01	8672.5	
532.21	8905.9	
532.4	6647.7	
532.6	6786.3	
532.79	9268.4	
532.99	8747.6	
533.18	6904.4	
533.38	7612.3	
533.58	8370.7	
533.77	8788.5	
533.97	6838.2	
534.16	7449.8	
534.36	9140.1	
534.55	8406.9	
534.75	7608.2	
534.95	6924.2	
535.14	9052	
535.34	8310.7	
535.53	6623.1	
535.73	7954.3	
535.92	9301.2	
536.12	8393.9	
536.31	6735.8	
536.51	7570	
536.71	8666.3	
536.9	8262.9	
537.1	6857.3	
537.29	6952.9	
537.49	9045.9	
537.68	8237.6	
537.88	7255.3	
538.07	6575.3	
538.27	8436.3	
538.46	9146.2	
538.66	6541.2	
538.86	6854.6	
539.05	8589.2	
539.25	8826.1	
539.44	7130.3	
539.64	6803.4	
539.83	8363.9	
540.03	9009	
540.22	6657.9	
540.42	6713.2	
540.61	8602.8	
540.81	8548.9	
541	6976.7	
541.2	7560.4	
541.39	8283.4	
541.59	8387.8	
541.78	7328.3	
541.98	6575.3	
542.18	7957	
542.37	7965.2	
542.57	6969.2	
542.76	7231.4	
542.96	7980.3	
543.15	8393.3	
543.35	6891.4	
543.54	6439.5	
543.74	8600.8	
543.93	8305.9	
544.13	6855.9	
544.32	7659.4	
544.52	8540.7	
544.71	7956.4	
544.91	6221	
545.1	7044.3	
545.3	8018.5	
545.49	8420.6	
545.69	6133.7	
545.88	6518.7	
546.08	9225.4	
546.27	8834.3	
546.47	6811.5	
546.66	6440.2	
546.86	8570.1	
547.05	8942.1	
547.24	6512.5	
547.44	6415.6	
547.63	7828	
547.83	8538.7	
548.02	6776.7	
548.22	6839.5	
548.41	7681.9	
548.61	8764.6	
548.8	6346.7	
549	6423.1	
549.19	8270.4	
549.39	8515.5	
549.58	6087.2	
549.78	6597.9	
549.97	8454.7	
550.17	8049.9	
550.36	7258.7	
550.55	7871	
550.75	8026.7	
550.94	8668.4	
551.14	6278.4	
551.33	6531.7	
551.53	7473	
551.72	8254.7	
551.92	6603.3	
552.11	6469.5	
552.31	8301.8	
552.5	8404.2	
552.69	7656	
552.89	6102.3	
553.08	8357.8	
553.28	8028	
553.47	6382.8	
553.67	7186.3	
553.86	8677.9	
554.06	7509.2	
554.25	5912.5	
554.44	6253.8	
554.64	9327.8	
554.83	8902.5	
555.03	6211.5	
555.22	6522.1	
555.42	8424.7	
555.61	8201.4	
555.8	6343.2	
556	6589.7	
556.19	7524.2	
556.39	8348.2	
556.58	6421.1	
556.78	6406	
556.97	8057.4	
557.16	7892.9	
557.36	7251.2	
557.55	6213.5	
557.75	7345.4	
557.94	8673.1	
558.13	6161	
558.33	5986.9	
558.52	8488.1	
558.72	7606.2	
558.91	6021.7	
559.1	6260	
559.3	7453.2	
559.49	7230	
559.69	5875.6	
559.88	6504.3	
560.07	8062.9	
560.27	8256	
560.46	6708.5	
560.66	6713.9	
560.85	7868.3	
561.04	7340.6	
561.24	6038.1	
561.43	6173.3	
561.63	7456	
561.82	7731.8	
562.01	7047.1	
562.21	6406.7	
562.4	7971.4	
562.59	8625.4	
562.79	6298.9	
562.98	6100.9	
563.18	7891.5	
563.37	8909.3	
563.56	6648.4	
563.76	5966.4	
563.95	7534.5	
564.14	7499.7	
564.34	6298.9	
564.53	6014.2	
564.73	7917.4	
564.92	8147.5	
565.11	6364.4	
565.31	5972.6	
565.5	8353	
565.69	7481.2	
565.89	6122.1	
566.08	6356.9	
566.27	8233.5	
566.47	8471.1	
566.66	6783.6	
566.85	5790.3	
567.05	8013	
567.24	7602.7	
567.44	6034.7	
567.63	7045.7	
567.82	8169.3	
568.02	7774.8	
568.21	6059.3	
568.4	6279.8	
568.6	7856	
568.79	7817.1	
568.98	5987.6	
569.18	6058.6	
569.37	7862.8	
569.56	9184.5	
569.76	6352.8	
569.95	6965.1	
570.14	8082.7	
570.34	7944.1	
570.53	6029.2	
570.72	5928.2	
570.91	8405.5	
571.11	7773.4	
571.3	6268.8	
571.49	6959.7	
571.69	7783.6	
571.88	7389.1	
572.07	6660	
572.27	6694.1	
572.46	7432.1	
572.65	8241	
572.85	6059.9	
573.04	6332.3	
573.23	8357.8	
573.43	7878.5	
573.62	5929.6	
573.81	6373.3	
574	7962.5	
574.2	7700.4	
574.39	6139.8	
574.58	6326.9	
574.78	8517.5	
574.97	7896.3	
575.16	6632.7	
575.36	6737.1	
575.55	8225.3	
575.74	8341.4	
575.93	5907	
576.13	6640.9	
576.32	7805.5	
576.51	8198	
576.71	6379.4	
576.9	7146	
577.09	8387.8	
577.28	8011.7	
577.48	6544.6	
577.67	5855.8	
577.86	7866.2	
578.05	8120.9	
578.25	6299.6	
578.44	6365.1	
578.63	7909.3	
578.83	8826.7	
579.02	5974.6	
579.21	7090.1	
579.4	8041	
579.6	7832.8	
579.79	6498.9	
579.98	7959.8	
580.17	8312	
580.37	8373.5	
580.56	6083.1	
580.75	6577.4	
580.94	8552.3	
581.14	8680.7	
581.33	6904.4	
581.52	6212.2	
581.71	8185.7	
581.91	8716.8	
582.1	5999.9	
582.29	6382.8	
582.48	7929.7	
582.68	7911.3	
582.87	6795.8	
583.06	6488	
583.25	8262.9	
583.45	7741.3	
583.64	7029.3	
583.83	7430	
584.02	7907.2	
584.21	8140	
584.41	6934.4	
584.6	6481.8	
584.79	7974.8	
584.98	8465.6	
585.18	6079.1	
585.37	5976.7	
585.56	7636.9	
585.75	8242.4	
585.94	6234.7	
586.14	6725.5	
586.33	8676.6	
586.52	7942	
586.71	6606.7	
586.91	6349.4	
587.1	7423.2	
587.29	8245.1	
587.48	6253.1	
587.67	6208.1	
587.87	8099	
588.06	8055.3	
588.25	7108.5	
588.44	6645	
588.63	7813	
588.83	8209.6	
589.02	6256.5	
589.21	6130.3	
589.4	7746.1	
589.59	7621.2	
589.78	5610.1	
589.98	5715.2	
590.17	7235.5	
590.36	7617.8	
590.55	5261.2	
590.74	5831.2	
590.94	8532.5	
591.13	7505.1	
591.32	5708.4	
591.51	5350.7	
591.7	7765.9	
591.89	7521.5	
592.09	5439.4	
592.28	5834.7	
592.47	6887.3	
592.66	8306.6	
592.85	5507.7	
593.05	5603.2	
593.24	7377.5	
593.43	7991.2	
593.62	5660.6	
593.81	5937.7	
594	7443	
594.19	7580.2	
594.39	5554.8	
594.58	5571.2	
594.77	7616.4	
594.96	8090.2	
595.15	5504.3	
595.34	6018.3	
595.54	7484	
595.73	6954.2	
595.92	5102.9	
596.11	5922.7	
596.3	7948.2	
596.49	7054.6	
596.68	5734.3	
596.88	6140.5	
597.07	7746.8	
597.26	7007.5	
597.45	5402.5	
597.64	6252.4	
597.83	7060.7	
598.02	7503.1	
598.22	5451	
598.41	5986.9	
598.6	7444.4	
598.79	7014.3	
598.98	5489.2	
599.17	6148	
599.36	7423.2	
599.55	8256	
599.74	6989	
599.94	6767.2	
600.13	7879.9	
600.32	6989	
600.51	5298.1	
600.7	5421	
600.89	8257.4	
601.08	8314.1	
601.27	5242.1	
601.47	5900.9	
601.66	7808.9	
601.85	8153.6	
602.04	5855.1	
602.23	5836	
602.42	7066.2	
602.61	7544.7	
602.8	5642.8	
602.99	5477	
603.18	7320.1	
603.37	7425.9	
603.57	5942.5	
603.76	6358.9	
603.95	8008.2	
604.14	7637.6	
604.33	5610.1	
604.52	5736.4	
604.71	7508.5	
604.9	7096.2	
605.09	6241.5	
605.28	6068.8	
605.47	7919.5	
605.66	7647.1	
605.86	5928.2	
606.05	5581.4	
606.24	7868.3	
606.43	6766.5	
606.62	5813.5	
606.81	6324.1	
607	7815.7	
607.19	7164.5	
607.38	5399.8	
607.57	5543.9	
607.76	7046.4	
607.95	6636.1	
608.14	5859.2	
608.33	6406	
608.52	7083.9	
608.72	7703.1	
608.91	5239.4	
609.1	5244.8	
609.29	7131.7	
609.48	6765.8	
609.67	5905	
609.86	5351.3	
610.05	6845	
610.24	7134.4	
610.43	5141.1	
610.62	4893.3	
610.81	7907.2	
611	7748.1	
611.19	5259.9	
611.38	5823.1	
611.57	7324.9	
611.76	8153.6	
611.95	5152	
612.14	5032.5	
612.33	7150.1	
612.52	6830	
612.71	5457.2	
612.9	4997.7	
613.09	6495.5	
613.28	8220.5	
613.47	5491.3	
613.66	5926.8	
613.85	7296.9	
614.04	6806.1	
614.24	5367.7	
614.43	4853.7	
614.62	7346.1	
614.81	7276.4	
615	5783.5	
615.19	5757.5	
615.38	6785.6	
615.57	7064.8	
615.76	5667.4	
615.95	6315.3	
616.14	7365.2	
616.33	7119.4	
616.52	5929.6	
616.71	5974.6	
616.9	7330.4	
617.09	7142.6	
617.28	5445.5	
617.47	6234.7	
617.66	6738.5	
617.85	6693.4	
618.04	6033.3	
618.22	5676.3	
618.41	6976.1	
618.6	7576.1	
618.79	5678.3	
618.98	5476.3	
619.17	7737.9	
619.36	6487.3	
619.55	5501.5	
619.74	5571.2	
619.93	7228.6	
620.12	6873.7	
620.31	5955.5	
620.5	6066.1	
620.69	7674.4	
620.88	8004.8	
621.07	6528.2	
621.26	5857.2	
621.45	7388.4	
621.64	7477.8	
621.83	6025.8	
622.02	5374.6	
622.21	7453.9	
622.4	7267.6	
622.59	6377.4	
622.78	6233.3	
622.97	7045.7	
623.16	7734.5	
623.35	5965.1	
623.54	5328.1	
623.72	7111.9	
623.91	7154.2	
624.1	6158.2	
624.29	5165	
624.48	8046.5	
624.67	7588.4	
624.86	6053.8	
625.05	5326.8	
625.24	8078.6	
625.43	6963.1	
625.62	7243	
625.81	5528.2	
626	7693.5	
626.19	7149.5	
626.38	6057.9	
626.56	5652.4	
626.75	6987	
626.94	7542	
627.13	6016.2	
627.32	5210	
627.51	7543.4	
627.7	8325	
627.89	5225.1	
628.08	6122.1	
628.27	6860.7	
628.46	6981.5	
628.65	5418.2	
628.83	5175.2	
629.02	7552.9	
629.21	6905.1	
629.4	5756.2	
629.59	5974.6	
629.78	6937.2	
629.97	7600	
630.16	5937.1	
630.35	5603.9	
630.54	8013	
630.72	7682.6	
630.91	5586.9	
631.1	5894.7	
631.29	7313.3	
631.48	7378.8	
631.67	6008.1	
631.86	5547.3	
632.05	7064.8	
632.24	7185.6	
632.42	5341.1	
632.61	5773.2	
632.8	7097.6	
632.99	6844.3	
633.18	5827.8	
633.37	6044.9	
633.56	7366.5	
633.75	7197.9	
633.93	5831.9	
634.12	5642.8	
634.31	7959.1	
634.5	7548.1	
634.69	5565.7	
634.88	5967.1	
635.07	7213.6	
635.25	7644.4	
635.44	6204	
635.63	6383.5	
635.82	7072.3	
636.01	6536.4	
636.2	6214.2	
636.39	5932.3	
636.57	7924.3	
636.76	7528.3	
636.95	5528.8	
637.14	6427.2	
637.33	7363.1	
637.52	7958.4	
637.7	5290.6	
637.89	6018.3	
638.08	7059.3	
638.27	8116.1	
638.46	6066.1	
638.65	6349.4	
638.83	8091.5	
639.02	6933.7	
639.21	5951.4	
639.4	6275.7	
639.59	7221.1	
639.78	7012.2	
639.96	5421	
640.15	5519.3	
640.34	7200	
640.53	7275.1	
640.72	5218.2	
640.91	5454.4	
641.09	6677.7	
641.28	7735.2	
641.47	5500.2	
641.66	6064	
641.85	7232.1	
642.03	7348.8	
642.22	5910.4	
642.41	5586.2	
642.6	6765.8	
642.79	6361	
642.97	5371.8	
643.16	5909.8	
643.35	6802.7	
643.54	6597.9	
643.73	5302.2	
643.91	5825.1	
644.1	6580.1	
644.29	7026.6	
644.48	5346.6	
644.67	5365.7	
644.85	6636.1	
645.04	6899.6	
645.23	5098.8	
645.42	5278.3	
645.6	6608.8	
645.79	7467.6	
645.98	5248.3	
646.17	4554	
646.36	6322.1	
646.54	6752.8	
646.73	5844.9	
646.92	4971.8	
647.11	6464.1	
647.29	7234.1	
647.48	4962.9	
647.67	4777.2	
647.86	7449.1	
648.05	7379.5	
648.23	5196.4	
648.42	6089.3	
648.61	6968.6	
648.8	6792.4	
648.98	4975.2	
649.17	5223	
649.36	6503.7	
649.55	6117.3	
649.73	5044.1	
649.92	5461.2	
650.11	6400.6	
650.3	6584.2	
650.48	5104.2	
650.67	4883	
650.86	6807.4	
651.05	6036.7	
651.23	5014.1	
651.42	4907.6	
651.61	6455.9	
651.79	6324.1	
651.98	5154.7	
652.17	4898.7	
652.36	6733.7	
652.54	6085.2	
652.73	4943.1	
652.92	4787.5	
653.11	6797.2	
653.29	6926.2	
653.48	4467.3	
653.67	5118.6	
653.85	6607.4	
654.04	7374.1	
654.23	5205.9	
654.42	5024.3	
654.6	6187.6	
654.79	6651.8	
654.98	4560.1	
655.16	4947.9	
655.35	5952.8	
655.54	5794.4	
655.73	4574.5	
655.91	4509.6	
656.1	6617	
656.29	5778	
656.47	4261.1	
656.66	5515.2	
656.85	6104.3	
657.03	6108.4	
657.22	4729.4	
657.41	4698.7	
657.59	6156.9	
657.78	6035.4	
657.97	4491.2	
658.16	4962.9	
658.34	6668.2	
658.53	6929.6	
658.72	5554.8	
658.9	5941.8	
659.09	6347.3	
659.28	6270.9	
659.46	4782	
659.65	4730.8	
659.84	6100.2	
660.02	6473.6	
660.21	4774.5	
660.4	4541	
660.58	6788.3	
660.77	6298.2	
660.96	5101.5	
661.14	4420.9	
661.33	7135.8	
661.52	7012.2	
661.7	4328	
661.89	6821.1	
662.08	6051.7	
662.26	5627.1	
662.45	4583.4	
662.64	4622.9	
662.82	6547.4	
663.01	5935	
663.2	4709.6	
663.38	5165	
663.57	6509.1	
663.75	6423.1	
663.94	4926.7	
664.13	5821	
664.31	6085.2	
664.5	6531	
664.69	5107.6	
664.87	5426.4	
665.06	5840.8	
665.25	6327.5	
665.43	5677	
665.62	5715.2	
665.8	6549.4	
665.99	6109.1	
666.18	4851.6	
666.36	4939.7	
666.55	6700.3	
666.74	6473.6	
666.92	4657.8	
667.11	5725.4	
667.29	6174.6	
667.48	6516	
667.67	5490.6	
667.85	4769	
668.04	6061.3	
668.22	6081.8	
668.41	4916.5	
668.6	5117.9	
668.78	5980.8	
668.97	6111.8	
669.15	5166.3	
669.34	4411.3	
669.53	6012.8	
669.71	6222.4	
669.9	4584.7	
670.08	4983.4	
670.27	5885.2	
670.46	6369.9	
670.64	5141.1	
670.83	5373.9	
671.01	5801.2	
671.2	6253.8	
671.38	4578.6	
671.57	4550.6	
671.76	6832	
671.94	7135.1	
672.13	4390.8	
672.31	5233.9	
672.5	6563.1	
672.69	5984.8	
672.87	4666	
673.06	4863.2	
673.24	6397.2	
673.43	6036	
673.61	5010	
673.8	4765.6	
673.98	6343.2	
674.17	6583.5	
674.36	5233.9	
674.54	5165	
674.73	6210.1	
674.91	6526.2	
675.1	4849.6	
675.28	4571.1	
675.47	6186.2	
675.65	6521.4	
675.84	4805.9	
676.03	5068.7	
676.21	5997.8	
676.4	5615.5	
676.58	5451	
676.77	5173.2	
676.95	7058.7	
677.14	5971.9	
677.32	4519.9	
677.51	4429.1	
677.69	6533.7	
677.88	5735.7	
678.06	4485.1	
678.25	4629.1	
678.44	6118.6	
678.62	5915.2	
678.81	4421.6	
678.99	5042.1	
679.18	6703.7	
679.36	6440.9	
679.55	4737	
679.73	5147.2	
679.92	6347.3	
680.1	5992.4	
680.29	5692	
680.47	4759.5	
680.66	5937.1	
680.84	6580.8	
681.03	4283	
681.21	4977.2	
681.4	5972.6	
681.58	5901.6	
681.77	4575.2	
681.95	4617.5	
682.14	6648.4	
682.32	6733	
682.51	5202.5	
682.69	4396.3	
682.88	5860.6	
683.06	6261.3	
683.25	5004.6	
683.43	5313.1	
683.62	6199.2	
683.8	6433.4	
683.99	5453.7	
684.17	4910.3	
684.36	6989	
684.54	6133	
684.73	4341	
684.91	4453	
685.1	6275	
685.28	5715.9	
685.46	4838.7	
685.65	4844.8	
685.83	6377.4	
686.02	5917.3	
686.2	4486.4	
686.39	4578.6	
686.57	5591.6	
686.76	6754.2	
686.94	4459.1	
687.13	4627	
687.31	6245.6	
687.5	5967.8	
687.68	4272.7	
687.86	5010	
688.05	7257.3	
688.23	5563	
688.42	5054.4	
688.6	4512.4	
688.79	5827.2	
688.97	5906.3	
689.16	4825.7	
689.34	4030.4	
689.52	6435.4	
689.71	6627.2	
689.89	5109.7	
690.08	4520.5	
690.26	6173.3	
690.45	5950.7	
690.63	5191.6	
690.81	4691.2	
691	5971.2	
691.18	5835.3	
691.37	4746.5	
691.55	6323.4	
691.74	5836	
691.92	7303.1	
692.1	4788.8	
692.29	4287.8	
692.47	5912.5	
692.66	5510.4	
692.84	4511	
693.02	4895.3	
693.21	5540.4	
693.39	5922	
693.58	4939.7	
693.76	4522.6	
693.94	6808.8	
694.13	6684.6	
694.31	4486.4	
694.5	5227.8	
694.68	5763	
694.86	6126.2	
695.05	4749.9	
695.23	4887.1	
695.42	6341.2	
695.6	7916.1	
695.78	5243.5	
695.97	4625	
696.15	6410.8	
696.34	5895.4	
696.52	4468	
696.7	5038	
696.89	6113.9	
697.07	5737	
697.25	4942.4	
697.44	5913.9	
697.62	6196.5	
697.81	6384.9	
697.99	4782	
698.17	5041.4	
698.36	5743.2	
698.54	6132.3	
698.72	4955.4	
698.91	4305.5	
699.09	5874.9	
699.28	5745.9	
699.46	4715.8	
699.64	4571.7	
699.83	5785.5	
700.01	6559	
700.19	5225.1	
700.38	4056.3	
700.56	6545.3	
700.74	5788.9	
700.93	4386.7	
701.11	4956.8	
701.29	6200.6	
701.48	6969.2	
701.66	4554.7	
701.84	4567.7	
702.03	5979.4	
702.21	6417.7	
702.39	4249.5	
702.58	4629.1	
702.76	6230.6	
702.94	6272.2	
703.13	4227	
703.31	5975.3	
703.49	5738.4	
703.68	6376	
703.86	4395.6	
704.04	5083.1	
704.23	6080.4	
704.41	6376	
704.59	4536.3	
704.78	5328.1	
704.96	7262.8	
705.14	6234.7	
705.33	4365.6	
705.51	4919.9	
705.69	5926.8	
705.87	6516	
706.06	5111.7	
706.24	4279.6	
706.42	6122.7	
706.61	6315.9	
706.79	5068	
706.97	4304.1	
707.16	5752.1	
707.34	6144.6	
707.52	5072.8	
707.7	4418.8	
707.89	5799.8	
708.07	5694	
708.25	5088.5	
708.44	5175.2	
708.62	5734.3	
708.8	6637.5	
708.98	5281.7	
709.17	4558.8	
709.35	6102.3	
709.53	6088.6	
709.72	4300.1	
709.9	4626.4	
710.08	6273.6	
710.26	6236.1	
710.45	5469.4	
710.63	4611.3	
710.81	5972.6	
710.99	6020.3	
711.18	5003.9	
711.36	4596.3	
711.54	5870.2	
711.72	6424.5	
711.91	4766.3	
712.09	4248.2	
712.27	6097.5	
712.45	6431.3	
712.64	4842.1	
712.82	4109.6	
713	5672.9	
713.18	5786.9	
713.37	4230.4	
713.55	5095.3	
713.73	6404	
713.91	5378.6	
714.1	4501.4	
714.28	4130.8	
714.46	6077	
714.64	5547.9	
714.83	3753.2	
715.01	4348.5	
715.19	5681.7	
715.37	5102.9	
715.55	4067.9	
715.74	4298	
715.92	6251.1	
716.1	4739	
716.28	5096.7	
716.47	4367.6	
716.65	5399.1	
716.83	5348.6	
717.01	4250.2	
717.19	4312.3	
717.38	6882.5	
717.56	5107	
717.74	4429.8	
717.92	3830.4	
718.1	6038.8	
718.29	5452.4	
718.47	3571	
718.65	4076.1	
718.83	5982.8	
719.01	5903.6	
719.2	3494.5	
719.38	4303.5	
719.56	5685.2	
719.74	6825.2	
719.92	4009.2	
720.11	4801.8	
720.29	5734.3	
720.47	5098.8	
720.65	3673.4	
720.83	4295.3	
721.02	5413.5	
721.2	5203.9	
721.38	4387.4	
721.56	3788.7	
721.74	4819.6	
721.92	4960.9	
722.11	4676.2	
722.29	4450.2	
722.47	5857.9	
722.65	5278.3	
722.83	3806.5	
723.01	4444.8	
723.2	5244.8	
723.38	5592.3	
723.56	3425.6	
723.74	4216.8	
723.92	4930.1	
724.1	5756.8	
724.29	3771.7	
724.47	4568.3	
724.65	5135.6	
724.83	4979.3	
725.01	3663.1	
725.19	4334.2	
725.37	5005.2	
725.56	4957.4	
725.74	3573.7	
725.92	3719.8	
726.1	4937	
726.28	5176.6	
726.46	4040.6	
726.64	3825.6	
726.83	5243.5	
727.01	5371.1	
727.19	3650.8	
727.37	4130.8	
727.55	5320.6	
727.73	5641.5	
727.91	3599.6	
728.09	3416	
728.28	5698.8	
728.46	5848.3	
728.64	4263.2	
728.82	4212	
729	6421.7	
729.18	5967.8	
729.36	3576.4	
729.54	5252.4	
729.72	6657.9	
729.91	5376.6	
730.09	5025.7	
730.27	4070.7	
730.45	5300.8	
730.63	5745.2	
730.81	4554.7	
730.99	3905.5	
731.17	6176.7	
731.35	5056.4	
731.53	4224.3	
731.71	4057.7	
731.9	5952.8	
732.08	5973.9	
732.26	4184.7	
732.44	3936.2	
732.62	6131.6	
732.8	5749.3	
732.98	4444.1	
733.16	3706.8	
733.34	5729.5	
733.52	4772.4	
733.7	4097.3	
733.88	4280.9	
734.07	5618.9	
734.25	5403.2	
734.43	3783.3	
734.61	4841.4	
734.79	6445.6	
734.97	5339.1	
735.15	3862.5	
735.33	4154	
735.51	5628.5	
735.69	5343.2	
735.87	5073.5	
736.05	4236.6	
736.23	5526.1	
736.41	5223	
736.59	4126.7	
736.77	4216.8	
736.95	5814.9	
737.13	5315.8	
737.32	3892.5	
737.5	4016.1	
737.68	6237.4	
737.86	5287.2	
738.04	3756	
738.22	5082.4	
738.4	5184.1	
738.58	5438.7	
738.76	4144.4	
738.94	3434.4	
739.12	5304.2	
739.3	5210.7	
739.48	4577.2	
739.66	4440.7	
739.84	5429.8	
740.02	5437.4	
740.2	3545	
740.38	3719.8	
740.56	5663.3	
740.74	4852.3	
740.92	4232.5	
741.1	4147.8	
741.28	5301.5	
741.46	5094	
741.64	3969	
741.82	4293.2	
742	5350	
742.18	5315.8	
742.36	4089.1	
742.54	3754.6	
742.72	5767.1	
742.9	4857.1	
743.08	4367.6	
743.26	3454.9	
743.44	5856.5	
743.62	5765	
743.8	4431.8	
743.98	3774.4	
744.16	5530.9	
744.34	5287.9	
744.52	4330.1	
744.7	4315.8	
744.88	5657.2	
745.06	5299.5	
745.24	4343.1	
745.42	4448.9	
745.6	5786.9	
745.78	5601.2	
745.96	3571	
746.14	3762.1	
746.32	6252.4	
746.5	5716.6	
746.68	4176.5	
746.86	3805.1	
747.03	5918.6	
747.21	4782.7	
747.39	4191.5	
747.57	3741.6	
747.75	5421.7	
747.93	5677.7	
748.11	3758.7	
748.29	3758	
748.47	6626.5	
748.65	5202.5	
748.83	4354	
749.01	4050.2	
749.19	5570.5	
749.37	4906.3	
749.55	3980.6	
749.73	4077.5	
749.91	5341.8	
750.09	5142.4	
750.26	4143.7	
750.44	3674.7	
750.62	5374.6	
750.8	5272.2	
750.98	3564.1	
751.16	3878.2	
751.34	5452.4	
751.52	4947.9	
751.7	4366.3	
751.88	3560.7	
752.06	5748.6	
752.24	5538.4	
752.42	3525.2	
752.59	3819.5	
752.77	5321.3	
752.95	6268.8	
753.13	4276.2	
753.31	3858.4	
753.49	5070.8	
753.67	5365	
753.85	4107.5	
754.03	3780.6	
754.21	5659.2	
754.38	5921.4	
754.56	3847.5	
754.74	3236.5	
754.92	5032.5	
755.1	5481	
755.28	3253.5	
755.46	3276.8	
755.64	6215.6	
755.82	6224.5	
755.99	3475.4	
756.17	3463.8	
756.35	4355.3	
756.53	5484.5	
756.71	2714.2	
756.89	3414.6	
757.07	5132.9	
757.25	4500.8	
757.42	3749.1	
757.6	4410.6	
757.78	5232.6	
757.96	4547.2	
758.14	3473.4	
758.32	3226.2	
758.5	4179.9	
758.67	4812	
758.85	3422.2	
759.03	3480.2	
759.21	4960.9	
759.39	4521.9	
759.57	3108.1	
759.75	3981.3	
759.92	5457.2	
760.1	4936.3	
760.28	4207.9	
760.46	4353.3	
760.64	4728.8	
760.82	4564.9	
760.99	4046.8	
761.17	3528	
761.35	5404.6	
761.53	4527.4	
761.71	3614	
761.89	4077.5	
762.06	5245.5	
762.24	4831.8	
762.42	3657	
762.6	3440.6	
762.78	4825.7	
762.96	5327.4	
763.13	3891.8	
763.31	3663.1	
763.49	5369.1	
763.67	4818.2	
763.85	4256.4	
764.02	4668	
764.2	5649	
764.38	4951.3	
764.56	3530	
764.74	4282.3	
764.91	5602.6	
765.09	4842.8	
765.27	3420.8	
765.45	3203.7	
765.63	5771.9	
765.8	5629.9	
765.98	3094.5	
766.16	3255.6	
766.34	4573.1	
766.52	4382.7	
766.69	3990.1	
766.87	3156.6	
767.05	4914.4	
767.23	5423.7	
767.41	3409.9	
767.58	3609.9	
767.76	5324.7	
767.94	5367.7	
768.12	3408.5	
768.29	3925.3	
768.47	4893.3	
768.65	5429.2	
768.83	3205.1	
769	3964.2	
769.18	4638	
769.36	5083.7	
769.54	4029	
769.72	3215.3	
769.89	5434.6	
770.07	5382.1	
770.25	3427.6	
770.43	4422.2	
770.6	6003.3	
770.78	6093.4	
770.96	3610.6	
771.14	3532.1	
771.31	5302.9	
771.49	4850.3	
771.67	3039.2	
771.85	3160	
772.02	4276.2	
772.2	4769	
772.38	3747.1	
772.55	3319.1	
772.73	4967.7	
772.91	4801.8	
773.09	3533.4	
773.26	3631	
773.44	5058.5	
773.62	4732.9	
773.8	3286.3	
773.97	3125.2	
774.15	5028.4	
774.33	4756.7	
774.5	3190.1	
774.68	3422.2	
774.86	5160.2	
775.04	4801.1	
775.21	3301.3	
775.39	3155.2	
775.57	5001.1	
775.74	5199.8	
775.92	3091.1	
776.1	3010.5	
776.27	4934.9	
776.45	5836	
776.63	3225.6	
776.81	2983.9	
776.98	4726.7	
777.16	5462.6	
777.34	3337.5	
777.51	3593.5	
777.69	4689.8	
777.87	4469.4	
778.04	3381.2	
778.22	3746.4	
778.4	4500.1	
778.57	5030.5	
778.75	2890.4	
778.93	3058.3	
779.1	4444.1	
779.28	4263.9	
779.46	2863.7	
779.64	3165.5	
779.81	5182.7	
779.99	5739.8	
780.17	3688.4	
780.34	3868.6	
780.52	4805.2	
780.69	4855.7	
780.87	3400.3	
781.05	3166.8	
781.22	4816.1	
781.4	4830.5	
781.58	3219.4	
781.75	2633.7	
781.93	4882.4	
782.11	4360.1	
782.28	3928.7	
782.46	3199.6	
782.64	4276.8	
782.81	4928.8	
782.99	3364.8	
783.17	3229.6	
783.34	4813.4	
783.52	4343.7	
783.69	3441.3	
783.87	4066.6	
784.05	4375.8	
784.22	4348.5	
784.4	3970.3	
784.58	3461.7	
784.75	5089.9	
784.93	4448.9	
785.1	3257	
785.28	3705.5	
785.46	4911	
785.63	4359.4	
785.81	3244	
785.99	3127.2	
786.16	4557.4	
786.34	4784.7	
786.51	3145	
786.69	3463.8	
786.87	4213.4	
787.04	4561.5	
787.22	3039.9	
787.39	3728	
787.57	4428.4	
787.75	5145.9	
787.92	3870.7	
788.1	3793.5	
788.27	4358.1	
788.45	4209.9	
788.63	3670.6	
788.8	2682.8	
788.98	4715.1	
789.15	4129.4	
789.33	2844.6	
789.5	3196.2	
789.68	5093.3	
789.86	5124.7	
790.03	3500	
790.21	3123.8	
790.38	5119.9	
790.56	4547.2	
790.73	3091.1	
790.91	3090.4	
791.09	4345.8	
791.26	5000.5	
791.44	3303.4	
791.61	2818.7	
791.79	4396.3	
791.96	4358.8	
792.14	2934.7	
792.32	2608.4	
792.49	4437.9	
792.67	4506.2	
792.84	3074	
793.02	2835.8	
793.19	4771.8	
793.37	5252.4	
793.54	2611.2	
793.72	2917	
793.89	5267.4	
794.07	4392.2	
794.25	3261.7	
794.42	2691	
794.6	5208.7	
794.77	4889.2	
794.95	3538.2	
795.12	3123.8	
795.3	4431.8	
795.47	4838	
795.65	3461.1	
795.82	3259.7	
796	4270.7	
796.17	5595.1	
796.35	3168.9	
796.52	3722.5	
796.7	4780	
796.87	4876.2	
797.05	3153.9	
797.22	3766.2	
797.4	4891.2	
797.57	5496.7	
797.75	3369.6	
797.92	3162.1	
798.1	5107.6	
798.27	4290.5	
798.45	2747.7	
798.62	2908.8	
798.8	4602.5	
798.97	5005.2	
799.15	3466.5	
799.32	3306.8	
799.5	4113.7	
799.67	4608.6	
799.85	3577.1	
800.02	2705.4	
800.2	4395.6	
800.37	4550.6	
800.55	3640.6	
800.72	3104	
800.9	4971.1	
801.07	5281.7	
801.25	4068.6	
801.42	3349.1	
801.6	5030.5	
801.77	4687.1	
801.95	3162.7	
802.12	3061.7	
802.29	4813.4	
802.47	4709	
802.64	3416	
802.82	2677.4	
802.99	4433.9	
803.17	5059.8	
803.34	3334.1	
803.52	2983.2	
803.69	5520	
803.87	4176.5	
804.04	3317.7	
804.21	3369.6	
804.39	5231.2	
804.56	4498.7	
804.74	2863.1	
804.91	3392.1	
805.09	4330.1	
805.26	4475.5	
805.44	2912.9	
805.61	3102	
805.78	4890.5	
805.96	4891.2	
806.13	3382.6	
806.31	3640.6	
806.48	4044.7	
806.66	4442	
806.83	3426.9	
807	3269.9	
807.18	4431.1	
807.35	4615.4	
807.53	3276.8	
807.7	2725.2	
807.87	5296	
808.05	4471.4	
808.22	3637.2	
808.4	2728.6	
808.57	4349.9	
808.74	4159.4	
808.92	3155.9	
809.09	3846.8	
809.27	4422.9	
809.44	4769	
809.61	2746.3	
809.79	3028.9	
809.96	5319.3	
810.14	4940.4	
810.31	2687.6	
810.48	3175	
810.66	4466.6	
810.83	4984.1	
811.01	3097.9	
811.18	3375.7	
811.35	4958.8	
811.53	3961.5	
811.7	3646.7	
811.87	3426.9	
812.05	4503.5	
812.22	4383.3	
812.39	2924.5	
812.57	2899.9	
812.74	4489.8	
812.92	5656.5	
813.09	3228.3	
813.26	3407.1	
813.44	5466.7	
813.61	4315.8	
813.78	2718.3	
813.96	3507.5	
814.13	4452.3	
814.3	4197	
814.48	3816	
814.65	3181.2	
814.82	5281	
815	4162.2	
815.17	3287	
815.34	3920.5	
815.52	4325.3	
815.69	4334.2	
815.87	3219.4	
816.04	3206.4	
816.21	4426.3	
816.38	4012	
816.56	3181.2	
816.73	2978.4	
816.9	5459.9	
817.08	4947.2	
817.25	3001	
817.42	3667.9	
817.6	4104.1	
817.77	4374.5	
817.94	3365.5	
818.12	2972.3	
818.29	4236.6	
818.46	6191.7	
818.64	3067.9	
818.81	2927.9	
818.98	4229.1	
819.16	5762.3	
819.33	3531.4	
819.5	3332	
819.67	4679.6	
819.85	5184.8	
820.02	3242.6	
820.19	3381.2	
820.37	4608.6	
820.54	4359.4	
820.71	3341.6	
820.88	4001	
821.06	4567.7	
821.23	4300.1	
821.4	3379.8	
821.58	3330.7	
821.75	4944.5	
821.92	4563.6	
822.09	2755.9	
822.27	2810.5	
822.44	4446.8	
822.61	4319.2	
822.79	2783.9	
822.96	5003.9	
823.13	4690.5	
823.3	4180.6	
823.48	3243.3	
823.65	2906.8	
823.82	4973.2	
823.99	4124.6	
824.17	3941	
824.34	2902.7	
824.51	5644.9	
824.68	4493.9	
824.86	3007.8	
825.03	3274.7	
825.2	4476.9	
825.37	5210	
825.55	2987.3	
825.72	3254.2	
825.89	5597.1	
826.06	5208.7	
826.24	3223.5	
826.41	3222.8	
826.58	5281.7	
826.75	4590.2	
826.92	2610.5	
827.1	2895.1	
827.27	6847.7	
827.44	5610.8	
827.61	3055.6	
827.79	3628.3	
827.96	4313.7	
828.13	4419.5	
828.3	3218	
828.47	2755.2	
828.65	4636.6	
828.82	4615.4	
828.99	3962.1	
829.16	3522.5	
829.34	4967	
829.51	4767	
829.68	3253.5	
829.85	3376.4	
830.02	5234.6	
830.2	4997	
830.37	2577.7	
830.54	3817.4	
830.71	5537.7	
830.88	4449.6	
831.05	2591.4	
831.23	3009.8	
831.4	5377.3	
831.57	5803.3	
831.74	3045.3	
831.91	2702.6	
832.09	4763.6	
832.26	4954.7	
832.43	3089.7	
832.6	3427.6	
832.77	4681	
832.94	5264	
833.12	2587.3	
833.29	3119.1	
833.46	4739.7	
833.63	5952.8	
833.8	3364.8	
833.97	3077.4	
834.15	5061.2	
834.32	4809.3	
834.49	3244	
834.66	3290.4	
834.83	5052.3	
835	4315.8	
835.17	3048.7	
835.35	2999.6	
835.52	4918.5	
835.69	4724	
835.86	3170.9	
836.03	2668.5	
836.2	4952	
836.37	4659.1	
836.55	3168.2	
836.72	2970.2	
836.89	4563.6	
837.06	5042.8	
837.23	3196.9	
837.4	3407.8	
837.57	5580.7	
837.75	5963	
837.92	2925.9	
838.09	3096.5	
838.26	4612.7	
838.43	5107.6	
838.6	3259.7	
838.77	2964.1	
838.94	5664.7	
839.11	5543.9	
839.29	3175	
839.46	2515.6	
839.63	4939.7	
839.8	4724	
839.97	2999.6	
840.14	2994.1	
840.31	4784.1	
840.48	4995	
840.65	2529.9	
840.82	2985.3	
841	4885.1	
841.17	4814.1	
841.34	2844.6	
841.51	2914.9	
841.68	4875.5	
841.85	4629.8	
842.02	2921.1	
842.19	2493.1	
842.36	4751.3	
842.53	4777.9	
842.7	2844.6	
842.87	3389.4	
843.05	6026.5	
843.22	4697.4	
843.39	2665.1	
843.56	2954.5	
843.73	4556.7	
843.9	5044.1	
844.07	4393.6	
844.24	3685	
844.41	6693.4	
844.58	4356	
844.75	2757.9	
844.92	2973.7	
845.09	4892.6	
845.26	4883	
845.43	2805	
845.6	2965.5	
845.77	4930.8	
845.94	4749.2	
846.12	3092.4	
846.29	3218.7	
846.46	5057.1	
846.63	4895.3	
846.8	2801.6	
846.97	3288.4	
847.14	5216.2	
847.31	4912.4	
847.48	3174.4	
847.65	3454.9	
847.82	5079	
847.99	5023.7	
848.16	3597.6	
848.33	3431.7	
848.5	4542.4	
848.67	5283.8	
848.84	2748.4	
849.01	2926.5	
849.18	4519.9	
849.35	4276.2	
849.52	3445.4	
849.69	2794.8	
849.86	5121.3	
850.03	5172.5	
850.2	2846	
850.37	3396.9	
850.54	5169.8	
850.71	4619.5	
850.88	3341.6	
851.05	2807.1	
851.22	4794.3	
851.39	5346.6	
851.56	2667.8	
851.73	3204.4	
851.9	4362.2	
852.07	5112.4	
852.24	3079.5	
852.41	2760.7	
852.58	4812	
852.75	4416.1	
852.92	3102	
853.09	2738.1	
853.26	4536.9	
853.43	5232.6	
853.6	2836.4	
853.77	2469.9	
853.94	5309.7	
854.11	4356.7	
854.28	4005.8	
854.44	3039.9	
854.61	5649.7	
854.78	5160.9	
854.95	2783.2	
855.12	3417.4	
855.29	4076.8	
855.46	5468.8	
855.63	2817.3	
855.8	3762.1	
855.97	4543.1	
856.14	5139.7	
856.31	3874.1	
856.48	3018.7	
856.65	4621.6	
856.82	4343.1	
856.99	2715.6	
857.16	3049.4	
857.33	5750	
857.49	4682.3	
857.66	3021.4	
857.83	3190.1	
858	4665.3	
858.17	4843.4	
858.34	2703.3	
858.51	2863.1	
858.68	5431.2	
858.85	5421.7	
859.02	3236.5	
859.19	3371	
859.36	4432.5	
859.52	4361.5	
859.69	2807.8	
859.86	3257.6	
860.03	4416.8	
860.2	5291.3	
860.37	2604.3	
860.54	2873.3	
860.71	5078.3	
860.88	5341.1	
861.05	3098.6	
861.21	3486.3	
861.38	5354.8	
861.55	4262.5	
861.72	2616.6	
861.89	3099.3	
862.06	5128.1	
862.23	5417.6	
862.4	2767.5	
862.56	2863.1	
862.73	4937	
862.9	4737	
863.07	3220.1	
863.24	2573.6	
863.41	4319.2	
863.58	4361.5	
863.75	2848.7	
863.91	3215.3	
864.08	5270.8	
864.25	5019.6	
864.42	3452.2	
864.59	3840.6	
864.76	5549.3	
864.93	4349.2	
865.09	2751.8	
865.26	2970.2	
865.43	5282.4	
865.6	5525.4	
865.77	2494.4	
865.94	2781.1	
866.1	5283.1	
866.27	4974.5	
866.44	4071.4	
866.61	2673.3	
866.78	4663.9	
866.95	4981.3	
867.11	2740.9	
867.28	2549	
867.45	5150.6	
867.62	4367.6	
867.79	3142.3	
867.96	2780.5	
868.12	4289.1	
868.29	5089.9	
868.46	2792.1	
868.63	3686.3	
868.8	5149.3	
868.97	5030.5	
869.13	2902	
869.3	2906.1	
869.47	4953.4	
869.64	5119.2	
869.81	2820.1	
869.97	2838.5	
870.14	4876.9	
870.31	5339.7	
870.48	2717.7	
870.65	3484.3	
870.81	4681.7	
870.98	4634.6	
871.15	3143.6	
871.32	2867.2	
871.48	4950.6	
871.65	5363.6	
871.82	2812.5	
871.99	3063.8	
872.16	5707	
872.32	5253	
872.49	2857.6	
872.66	2854.2	
872.83	5042.8	
872.99	4477.5	
873.16	3186.6	
873.33	2781.1	
873.5	4786.8	
873.67	4844.8	
873.83	2958.6	
874	3661.8	
874.17	4848.2	
874.34	5579.3	
874.5	3587.4	
874.67	3419.4	
874.84	5331.5	
875.01	4277.5	
875.17	3839.9	
875.34	2800.3	
875.51	4782.7	
875.68	5683.1	
875.84	3272.7	
876.01	3919.1	
876.18	5059.8	
876.34	4939.7	
876.51	2805	
876.68	2744.3	
876.85	4623.6	
877.01	5215.5	
877.18	3893.9	
877.35	2792.1	
877.52	4835.9	
877.68	4353.3	
877.85	2821.4	
878.02	2714.9	
878.18	4676.2	
878.35	4528.1	
878.52	2299.9	
878.69	3099.3	
878.85	5173.9	
879.02	4993.6	
879.19	3887	
879.35	2998.2	
879.52	5004.6	
879.69	5124.7	
879.86	2484.2	
880.02	3127.2	
880.19	4738.3	
880.36	5584.8	
880.52	3161.4	
880.69	3255.6	
880.86	5114.5	
881.02	5143.1	
881.19	3024.2	
881.36	2984.6	
881.52	5033.2	
881.69	4452.3	
881.86	2969.6	
882.02	2940.9	
882.19	5183.4	
882.36	5899.5	
882.52	2902.7	
882.69	3814	
882.86	4847.5	
883.02	4833.9	
883.19	3316.3	
883.36	3183.2	
883.52	5067.4	
883.69	5684.5	
883.86	2859.6	
884.02	2596.8	
884.19	5055.8	
884.36	4776.5	
884.52	3096.5	
884.69	3009.1	
884.86	4552.6	
885.02	5409.4	
885.19	3063.8	
885.36	3224.9	
885.52	4725.3	
885.69	4905.6	
885.86	3926.6	
886.02	3515.7	
886.19	5123.3	
886.35	4564.2	
886.52	3117	
886.69	3798.3	
886.85	4356	
887.02	5324.7	
887.19	5324.7	
887.35	5324.7	
887.52	5324.7	
887.68	5324.7	
887.85	5324.7	
888.02	5324.7	
888.18	5324.7	
888.35	5324.7	
888.51	5324.7	
888.68	5324.7	
888.85	5324.7	
889.01	5324.7	
889.18	5324.7	
889.35	5324.7	
889.51	5324.7	
889.68	5324.7	
889.84	5324.7	
890.01	5324.7	
890.17	5324.7	
890.34	5324.7	
890.51	5324.7	
890.67	5324.7	
890.84	5324.7	
891	5324.7	
891.17	5324.7	
891.34	5324.7	
891.5	5324.7	
891.67	5324.7	
891.83	5324.7	
892	5324.7	
892.16	5324.7	
892.33	5324.7	
892.5	5324.7	
892.66	5324.7	
892.83	5324.7	
892.99	5324.7	
893.16	5324.7	
893.32	5324.7	
893.49	5324.7	
893.65	5324.7	
893.82	5324.7	
893.99	5324.7	
894.15	5324.7	
894.32	5324.7	
894.48	5324.7	
894.65	5324.7	
894.81	5324.7	
894.98	5324.7	
895.14	5324.7	
895.31	5324.7	
895.47	5324.7	
895.64	5324.7	
895.81	5324.7	
895.97	5324.7	
896.14	5324.7	
896.3	5324.7	
896.47	5324.7	
896.63	5324.7	
896.8	5324.7	
896.96	5324.7	
897.13	5324.7	
897.29	5324.7	
897.46	5324.7	
897.62	5324.7	
897.79	5324.7	
897.95	5324.7	
898.12	5324.7	
898.28	5324.7	
898.45	5324.7	
898.61	5324.7	
898.78	5324.7	
898.94	5324.7	
899.11	5324.7	
899.27	5324.7	
899.44	5324.7	
899.6	5324.7	
899.77	5324.7	
899.93	5324.7	
900.1	5324.7	
900.26	5324.7	
900.43	5324.7	
900.59	5324.7	
900.76	5324.7	
900.92	5324.7	
901.09	5324.7	
901.25	5324.7	
901.42	5324.7	
901.58	5324.7	
901.75	5324.7	
901.91	5324.7	
902.07	5324.7	
902.24	5324.7	
902.4	5324.7	
902.57	5324.7	
902.73	5324.7	
902.9	5324.7	
903.06	5324.7	
903.23	5324.7	
903.39	5324.7	
903.56	5324.7	
903.72	5324.7	
903.88	5324.7	
904.05	5324.7	
904.21	5324.7	
904.38	5324.7	
904.54	5324.7	
904.71	5324.7	
904.87	5324.7	
905.03	5324.7	
905.2	5324.7	
905.36	5324.7	
905.53	5324.7	
905.69	5324.7	
905.86	5324.7	
906.02	5324.7	
906.18	5324.7	
906.35	5324.7	
906.51	5324.7	
906.68	5324.7	
906.84	5324.7	
907.01	5324.7	
907.17	5324.7	
907.33	5324.7	
907.5	5324.7	
907.66	5324.7	
907.83	5324.7	
907.99	5324.7	
908.15	5324.7	
908.32	5324.7	
908.48	5324.7	
908.65	5324.7	
908.81	5324.7	
908.97	5324.7	
909.14	5324.7	
909.3	5324.7	
909.47	5324.7	
909.63	5324.7	
909.79	5324.7	
909.96	5324.7	
910.12	5324.7	
910.28	5324.7	
910.45	5324.7	
910.61	5324.7	
910.78	5324.7	
910.94	5324.7	
911.1	5324.7	
911.27	5324.7	
911.43	5324.7	
911.59	5324.7	
911.76	5324.7	
911.92	5324.7	
912.08	5324.7	
912.25	5324.7	
912.41	5324.7	
912.57	5324.7	
912.74	5324.7	
912.9	5324.7	
913.07	5324.7	
913.23	5324.7	
913.39	5324.7	
913.56	5324.7	
913.72	5324.7	
913.88	5324.7	
914.05	5324.7	
914.21	5324.7	
914.37	5324.7	
914.54	5324.7	
914.7	5324.7	
914.86	5324.7	
915.03	5324.7	
915.19	5324.7	
