Wavelength	Intensities	
nm	a.u.	
179.22	1551	
179.44	1536	
179.65	1566	
179.86	1505.9	
180.08	1479.3	
180.29	3265.1	
180.51	2703.3	
180.72	4545.1	
180.94	4843.4	
181.15	2369.5	
181.37	2390.7	
181.58	4315.1	
181.79	4459.8	
182.01	2461.7	
182.22	2575	
182.44	4526.7	
182.65	3975.8	
182.87	2976.4	
183.08	2780.5	
183.29	4768.4	
183.51	4048.8	
183.72	2568.2	
183.94	3418.1	
184.15	4290.5	
184.37	4164.2	
184.58	2352.4	
184.79	2863.1	
185.01	4105.5	
185.22	4611.3	
185.44	3016	
185.65	2706.7	
185.86	4369	
186.08	4059.1	
186.29	2320.3	
186.51	2425.5	
186.72	4113	
186.94	4564.2	
187.15	2745	
187.36	2831	
187.58	5556.8	
187.79	4365.6	
188.01	2807.8	
188.22	4022.9	
188.43	4960.2	
188.65	4482.3	
188.86	2486.2	
189.08	2859	
189.29	4154	
189.5	4133.5	
189.72	2602.3	
189.93	2644.6	
190.15	4615.4	
190.36	5156.1	
190.57	2806.4	
190.79	2733.4	
191	4557.4	
191.22	4640	
191.43	2831.7	
191.64	2473.9	
191.86	4716.5	
192.07	4588.8	
192.29	2516.3	
192.5	2579.8	
192.71	4648.9	
192.93	4212.7	
193.14	2510.1	
193.35	2645.3	
193.57	4145.1	
193.78	4685.8	
194	2205	
194.21	2507.4	
194.42	3986.7	
194.64	4281.6	
194.85	2755.2	
195.07	3104.7	
195.28	4252.3	
195.49	3933.5	
195.71	3202.3	
195.92	2476	
196.13	4427	
196.35	4435.9	
196.56	3390.8	
196.78	2794.1	
196.99	5191.6	
197.2	4845.5	
197.42	3020.8	
197.63	2796.8	
197.84	3966.9	
198.06	4474.1	
198.27	2620.7	
198.48	3177.8	
198.7	4166.3	
198.91	4370.4	
199.13	2799.6	
199.34	2773.6	
199.55	4694.6	
199.77	3728.7	
199.98	2568.2	
200.19	2805.7	
200.41	4352.6	
200.62	4068.6	
200.83	2824.1	
201.05	3002.3	
201.26	4315.8	
201.47	4158.7	
201.69	2572.9	
201.9	2512.9	
202.11	4354	
202.33	4784.7	
202.54	2634.4	
202.76	2933.4	
202.97	4283.7	
203.18	4493.9	
203.4	2822.8	
203.61	2923.8	
203.82	4370.4	
204.04	4126.7	
204.25	2794.8	
204.46	2710.1	
204.68	4332.8	
204.89	4449.6	
205.1	2721.1	
205.32	2462.3	
205.53	4466.6	
205.74	4646.2	
205.96	2202.2	
206.17	2798.9	
206.38	4502.8	
206.6	4599.7	
206.81	3031.7	
207.02	2587.9	
207.24	4437.9	
207.45	4681.7	
207.66	2749.7	
207.88	2408.4	
208.09	4379.9	
208.3	4287.1	
208.52	2527.2	
208.73	2745.6	
208.94	4328	
209.15	4674.8	
209.37	2721.8	
209.58	2725.8	
209.79	4595	
210.01	4246.8	
210.22	2309.4	
210.43	2387.9	
210.65	4240.7	
210.86	4446.1	
211.07	2666.5	
211.29	2506	
211.5	4395.6	
211.71	4261.8	
211.93	2534	
212.14	2557.9	
212.35	4331.5	
212.56	4257.7	
212.78	2797.5	
212.99	2352.4	
213.2	4833.2	
213.42	4212	
213.63	2598.9	
213.84	2666.5	
214.06	3993.5	
214.27	4004.5	
214.48	2641.9	
214.69	2784.6	
214.91	4713.1	
215.12	4739.7	
215.33	2774.3	
215.55	2947.7	
215.76	4971.1	
215.97	4457.7	
216.18	2679.4	
216.4	2731.3	
216.61	4104.1	
216.82	4535.6	
217.04	2592	
217.25	2633	
217.46	4585.4	
217.67	4471.4	
217.89	2355.8	
218.1	2417.3	
218.31	4358.1	
218.53	4412	
218.74	2695.1	
218.95	2564.1	
219.16	4287.1	
219.38	4816.1	
219.59	2537.4	
219.8	2930	
220.01	5036	
220.23	4325.3	
220.44	3120.4	
220.65	2498.5	
220.87	4373.1	
221.08	4704.2	
221.29	2473.3	
221.5	2970.2	
221.72	5266.7	
221.93	4059.1	
222.14	2761.3	
222.35	3194.8	
222.57	4289.1	
222.78	4579.3	
222.99	2740.9	
223.2	2807.1	
223.42	4436.6	
223.63	4515.1	
223.84	2202.9	
224.05	2262.3	
224.27	4916.5	
224.48	4776.5	
224.69	3227.6	
224.9	2854.9	
225.12	4387.4	
225.33	4310.3	
225.54	2365.4	
225.75	2583.9	
225.97	4103.4	
226.18	4278.2	
226.39	2682.8	
226.6	2555.9	
226.82	4189.5	
227.03	4022.9	
227.24	2736.8	
227.45	2422.1	
227.67	4622.3	
227.88	4640	
228.09	3055.6	
228.3	3015.3	
228.52	4493.9	
228.73	4278.9	
228.94	2646	
229.15	2430.9	
229.36	4287.8	
229.58	4338.3	
229.79	2703.3	
230	2972.3	
230.21	4912.4	
230.43	4220.9	
230.64	2778.4	
230.85	2776.4	
231.06	4543.8	
231.28	4477.5	
231.49	2407	
231.7	2786.6	
231.91	4497.3	
232.12	4300.1	
232.34	2501.3	
232.55	2632.3	
232.76	4650.9	
232.97	4346.5	
233.18	2519.7	
233.4	2789.3	
233.61	4365.6	
233.82	4116.4	
234.03	2612.5	
234.25	2630.3	
234.46	5457.2	
234.67	4367	
234.88	2835.8	
235.09	2561.3	
235.31	4352.6	
235.52	4213.4	
235.73	2733.4	
235.94	2440.5	
236.15	4147.1	
236.37	4925.4	
236.58	2471.9	
236.79	2639.1	
237	4504.8	
237.21	4028.4	
237.43	2872.6	
237.64	2390	
237.85	6415.6	
238.06	4047.5	
238.27	2814.6	
238.48	2486.2	
238.7	4490.5	
238.91	4207.9	
239.12	2634.4	
239.33	2743.6	
239.54	4053.6	
239.76	4212.7	
239.97	2703.3	
240.18	2725.8	
240.39	4895.3	
240.6	4420.9	
240.82	2869.9	
241.03	2375	
241.24	4302.1	
241.45	4685.8	
241.66	2514.2	
241.87	2910.8	
242.09	4777.9	
242.3	4872.1	
242.51	2880.1	
242.72	2643.2	
242.93	4508.3	
243.14	4256.4	
243.36	3063.8	
243.57	3192.8	
243.78	4762.2	
243.99	4434.5	
244.2	2680.1	
244.41	2440.5	
244.63	4033.8	
244.84	4362.2	
245.05	2844.6	
245.26	2646	
245.47	4463.9	
245.68	4544.4	
245.9	3323.9	
246.11	2790	
246.32	4105.5	
246.53	4467.3	
246.74	3960.1	
246.95	2364	
247.16	4150.5	
247.38	4366.3	
247.59	2458.2	
247.8	2727.9	
248.01	4000.4	
248.22	4262.5	
248.43	2529.9	
248.64	2727.9	
248.86	4036.5	
249.07	4138.3	
249.28	2461.7	
249.49	2740.9	
249.7	4540.3	
249.91	4598.4	
250.12	2439.8	
250.34	2445.3	
250.55	4412.7	
250.76	4277.5	
250.97	2805	
251.18	2850.8	
251.39	4602.5	
251.6	4394.9	
251.81	2841.2	
252.03	2765.4	
252.24	4181.3	
252.45	4487.1	
252.66	2441.9	
252.87	2831.7	
253.08	4296	
253.29	5176.6	
253.5	2470.5	
253.72	3157.3	
253.93	4263.9	
254.14	4812	
254.35	2594.8	
254.56	2626.9	
254.77	4387.4	
254.98	4042.7	
255.19	2635.1	
255.41	3079.5	
255.62	4376.5	
255.83	4601.8	
256.04	2880.1	
256.25	2709.5	
256.46	4969.7	
256.67	4131.4	
256.88	2766.1	
257.09	2955.2	
257.31	3964.9	
257.52	4052.2	
257.73	3292.5	
257.94	2633.7	
258.15	4246.1	
258.36	4265.9	
258.57	3050.1	
258.78	2211.1	
258.99	4577.2	
259.2	4201.1	
259.41	2572.9	
259.63	2712.9	
259.84	4813.4	
260.05	4855.7	
260.26	3092.4	
260.47	2555.2	
260.68	4576.5	
260.89	4197.7	
261.1	3071.3	
261.31	2544.3	
261.52	4735.6	
261.73	4792.9	
261.95	3195.5	
262.16	2803.7	
262.37	4666	
262.58	4753.3	
262.79	3151.8	
263	2658.3	
263.21	4350.6	
263.42	4138.9	
263.63	2800.9	
263.84	2652.1	
264.05	4500.8	
264.26	4780.6	
264.47	3117	
264.69	2790	
264.9	4795.7	
265.11	4333.5	
265.32	2572.9	
265.53	2526.5	
265.74	4384	
265.95	3912.3	
266.16	2684.9	
266.37	2907.4	
266.58	4337.6	
266.79	4134.2	
267	2611.8	
267.21	2462.3	
267.42	4023.6	
267.63	4303.5	
267.84	2647.3	
268.06	2387.9	
268.27	4541.7	
268.48	4628.4	
268.69	2697.9	
268.9	3018.7	
269.11	4549.2	
269.32	3919.1	
269.53	2691.7	
269.74	2512.9	
269.95	4370.4	
270.16	3900	
270.37	2750.4	
270.58	3051.5	
270.79	4237.2	
271	4560.1	
271.21	2826.9	
271.42	2751.8	
271.63	4449.6	
271.84	3987.4	
272.05	2318.3	
272.26	2492.4	
272.47	4278.9	
272.68	4388.8	
272.89	2628.2	
273.11	2929.3	
273.32	4127.3	
273.53	4733.5	
273.74	2807.1	
273.95	2824.8	
274.16	4504.8	
274.37	4293.9	
274.58	2964.1	
274.79	2504.7	
275	4433.2	
275.21	4579.9	
275.42	3372.3	
275.63	2957.3	
275.84	4499.4	
276.05	5261.2	
276.26	2822.8	
276.47	2671.2	
276.68	4287.1	
276.89	4881.7	
277.1	2949.8	
277.31	2407	
277.52	4375.1	
277.73	4712.4	
277.94	2425.5	
278.15	2583.9	
278.36	4433.9	
278.57	4128.7	
278.78	2650.1	
278.99	2866.5	
279.2	4211.3	
279.41	4098.7	
279.62	3321.1	
279.83	2446	
280.04	4966.3	
280.25	4119.8	
280.46	3261.7	
280.67	2724.5	
280.88	4130.1	
281.09	4602.5	
281.3	2777	
281.51	3340.9	
281.72	4148.5	
281.93	4439.3	
282.14	2632.3	
282.35	2772.9	
282.56	4585.4	
282.77	4510.3	
282.98	2684.2	
283.19	3089	
283.4	5246.2	
283.61	4224.3	
283.82	2473.9	
284.03	3198.2	
284.24	4478.2	
284.45	4586.8	
284.66	3259.7	
284.87	3017.3	
285.08	4656.4	
285.29	4644.8	
285.5	2443.2	
285.71	2668.5	
285.92	4633.9	
286.12	4966.3	
286.33	3154.6	
286.54	2710.8	
286.75	4541	
286.96	4236.6	
287.17	2534	
287.38	3092.4	
287.59	4164.9	
287.8	4212.7	
288.01	2597.5	
288.22	2946.3	
288.43	4440	
288.64	3952.6	
288.85	3009.1	
289.06	2925.2	
289.27	4562.2	
289.48	4718.5	
289.69	3198.9	
289.9	2934.1	
290.11	4684.4	
290.32	4201.7	
290.53	3023.5	
290.74	2832.3	
290.94	4556	
291.15	4506.2	
291.36	2593.4	
291.57	2942.2	
291.78	4263.9	
291.99	3963.5	
292.2	2590.7	
292.41	2868.5	
292.62	4585.4	
292.83	4524	
293.04	3394.8	
293.25	2620.7	
293.46	4207.9	
293.67	4562.9	
293.88	2543.6	
294.09	2537.4	
294.29	4062.5	
294.5	4345.1	
294.71	2704.7	
294.92	2671.9	
295.13	4246.1	
295.34	4901.5	
295.55	2428.9	
295.76	2371.5	
295.97	4569	
296.18	4864.6	
296.39	2501.9	
296.6	2580.4	
296.81	4288.4	
297.01	4548.5	
297.22	2656.9	
297.43	2626.9	
297.64	4225.6	
297.85	4085.7	
298.06	2269.1	
298.27	2398.2	
298.48	4202.4	
298.69	4106.9	
298.9	2749.1	
299.11	2603.7	
299.31	4071.4	
299.52	4048.2	
299.73	2920.4	
299.94	2865.8	
300.15	4370.4	
300.36	4147.1	
300.57	2846.7	
300.78	2813.9	
300.99	4118.5	
301.2	4351.9	
301.4	2620.7	
301.61	2728.6	
301.82	4443.4	
302.03	4505.5	
302.24	3000.3	
302.45	2501.9	
302.66	4465.9	
302.87	4543.8	
303.08	2613.9	
303.29	3243.3	
303.49	4252.3	
303.7	4201.7	
303.91	2409.8	
304.12	3143.6	
304.33	3929.4	
304.54	4404.5	
304.75	2614.6	
304.96	2568.8	
305.16	4446.1	
305.37	4861.2	
305.58	2351.8	
305.79	2396.8	
306	4476.9	
306.21	3930.7	
306.42	2583.9	
306.63	3565.5	
306.83	4194.2	
307.04	4464.6	
307.25	2747	
307.46	2693.8	
307.67	3941	
307.88	4449.6	
308.09	2624.8	
308.29	2579.1	
308.5	4339.6	
308.71	4517.8	
308.92	2717	
309.13	2534.7	
309.34	4366.3	
309.55	4265.9	
309.75	3082.9	
309.96	2843.3	
310.17	4541.7	
310.38	4061.1	
310.59	2938.8	
310.8	2860.3	
311.01	4205.2	
311.21	4341.7	
311.42	2534	
311.63	2527.9	
311.84	4242.7	
312.05	4310.3	
312.26	2829.6	
312.46	2979.8	
312.67	4201.1	
312.88	3945.1	
313.09	2515.6	
313.3	2546.3	
313.51	4725.3	
313.71	4908.3	
313.92	2535.4	
314.13	2614.6	
314.34	4412.7	
314.55	4298.7	
314.76	2979.8	
314.96	2711.5	
315.17	4454.3	
315.38	4367	
315.59	2574.3	
315.8	2452.8	
316.01	4664.6	
316.21	4820.2	
316.42	2501.9	
316.63	2710.8	
316.84	4215.4	
317.05	4595.6	
317.26	2879.4	
317.46	2633.7	
317.67	4308.9	
317.88	4496.7	
318.09	3067.2	
318.3	2426.8	
318.5	4223.6	
318.71	4392.2	
318.92	3639.9	
319.13	2905.4	
319.34	4534.9	
319.54	4648.2	
319.75	2403	
319.96	2301.9	
320.17	4453.6	
320.38	4615.4	
320.58	2349.7	
320.79	2722.4	
321	4628.4	
321.21	4687.8	
321.42	2742.9	
321.62	2396.8	
321.83	4167.6	
322.04	4336.2	
322.25	2684.9	
322.46	2499.9	
322.66	4316.4	
322.87	4503.5	
323.08	2932.7	
323.29	2467.8	
323.5	4945.8	
323.7	4020.2	
323.91	3228.3	
324.12	2968.2	
324.33	4435.9	
324.53	4457.1	
324.74	2786.6	
324.95	2948.4	
325.16	4043.4	
325.37	4240	
325.57	2478.7	
325.78	2571.6	
325.99	4453.6	
326.2	3948.5	
326.4	3263.1	
326.61	2363.4	
326.82	4249.5	
327.03	4339	
327.24	3271.3	
327.44	3157.3	
327.65	4461.2	
327.86	3793.5	
328.07	2840.5	
328.27	2509.4	
328.48	4676.9	
328.69	4037.9	
328.9	3314.3	
329.1	2618.7	
329.31	4312.3	
329.52	4674.8	
329.73	2548.4	
329.93	2693.8	
330.14	4392.2	
330.35	4404.5	
330.56	3725.9	
330.76	2965.5	
330.97	4200.4	
331.18	4275.5	
331.39	2760	
331.59	2368.8	
331.8	4616.1	
332.01	4689.2	
332.22	2605.7	
332.42	2781.1	
332.63	4460.5	
332.84	4080.9	
333.05	2780.5	
333.25	2521.7	
333.46	4090.5	
333.67	4287.8	
333.88	2657.6	
334.08	2768.9	
334.29	5306.3	
334.5	4562.2	
334.7	2499.2	
334.91	3301.3	
335.12	4001.7	
335.33	4483	
335.53	2778.4	
335.74	3608.5	
335.95	4269.3	
336.16	4029.7	
336.36	2703.3	
336.57	3033	
336.78	3962.1	
336.98	4552.6	
337.19	3269.9	
337.4	2708.1	
337.61	4960.2	
337.81	4009.2	
338.02	2578.4	
338.23	3083.6	
338.43	4718.5	
338.64	4161.5	
338.85	2559.3	
339.05	3199.6	
339.26	4799.8	
339.47	3994.2	
339.68	2585.9	
339.88	3316.3	
340.09	4495.3	
340.3	4618.9	
340.5	2875.3	
340.71	2302.6	
340.92	4063.2	
341.13	4615.4	
341.33	2461	
341.54	2784.6	
341.75	4432.5	
341.95	4166.9	
342.16	2766.1	
342.37	2936.1	
342.57	4014.7	
342.78	4199	
342.99	2992.1	
343.19	2405.7	
343.4	4523.3	
343.61	4427	
343.81	2732	
344.02	2473.9	
344.23	4545.1	
344.43	4700.8	
344.64	3028.3	
344.85	2965.5	
345.06	4469.4	
345.26	4592.9	
345.47	2927.2	
345.68	3192.8	
345.88	3988.8	
346.09	4519.9	
346.3	2876.7	
346.5	2318.3	
346.71	4215.4	
346.92	4117.8	
347.12	2519.7	
347.33	2824.8	
347.54	4553.3	
347.74	4821.6	
347.95	2794.1	
348.16	2295.1	
348.36	4227	
348.57	4089.8	
348.78	2922.5	
348.98	2911.5	
349.19	4275.5	
349.39	3919.8	
349.6	2486.9	
349.81	2627.5	
350.01	4544.4	
350.22	4100.7	
350.43	2848	
350.63	3174.4	
350.84	4263.9	
351.05	4140.3	
351.25	2577.7	
351.46	2445.3	
351.67	4521.9	
351.87	4134.8	
352.08	2703.3	
352.29	3000.3	
352.49	4562.2	
352.7	4427	
352.9	2550.4	
353.11	2985.9	
353.32	4880.3	
353.52	4220.9	
353.73	2567.5	
353.94	3086.3	
354.14	4547.9	
354.35	4279.6	
354.55	2632.3	
354.76	2839.8	
354.97	4508.3	
355.17	4287.1	
355.38	2585.9	
355.59	3165.5	
355.79	4156.7	
356	4237.9	
356.2	2844.6	
356.41	2592	
356.62	4109.6	
356.82	4300.1	
357.03	3005.7	
357.24	2758.6	
357.44	4160.1	
357.65	4242	
357.85	3362.8	
358.06	2945	
358.27	4064.5	
358.47	4077.5	
358.68	2587.9	
358.88	3051.5	
359.09	4506.9	
359.3	4661.2	
359.5	3377.8	
359.71	3094.5	
359.91	4876.2	
360.12	4527.4	
360.33	3097.2	
360.53	3332	
360.74	4308.9	
360.94	4293.9	
361.15	3175.7	
361.36	2767.5	
361.56	4752	
361.77	4416.1	
361.97	3409.9	
362.18	2882.2	
362.38	4749.2	
362.59	4205.2	
362.8	2749.7	
363	2672.6	
363.21	4188.1	
363.41	4491.2	
363.62	3044	
363.83	3553.9	
364.03	4737	
364.24	4963.6	
364.44	3671.3	
364.65	3627.6	
364.85	4462.5	
365.06	4315.8	
365.27	2908.8	
365.47	3001.6	
365.68	4965	
365.88	4490.5	
366.09	3163.4	
366.29	2932.7	
366.5	4561.5	
366.71	4807.9	
366.91	3706.8	
367.12	3230.3	
367.32	5258.5	
367.53	4694.6	
367.73	3289	
367.94	3803.1	
368.14	4782.7	
368.35	5099.4	
368.56	3149.1	
368.76	2957.9	
368.97	4831.8	
369.17	5595.1	
369.38	2995.5	
369.58	3140.2	
369.79	4274.8	
369.99	5126.1	
370.2	3700	
370.4	3185.3	
370.61	4701.5	
370.82	5453.1	
371.02	3166.2	
371.23	2797.5	
371.43	4409.3	
371.64	5054.4	
371.84	3274	
372.05	3811.3	
372.25	5656.5	
372.46	4784.1	
372.66	3299.3	
372.87	3241.3	
373.07	4915.1	
373.28	5848.3	
373.48	3793.5	
373.69	3638.6	
373.9	4779.3	
374.1	4791.6	
374.31	3827.7	
374.51	3568.9	
374.72	5173.9	
374.92	4581.3	
375.13	3943	
375.33	3533.4	
375.54	4986.1	
375.74	4802.5	
375.95	3706.8	
376.15	4262.5	
376.36	5114.5	
376.56	5014.1	
376.77	3674.1	
376.97	3913	
377.18	5834.7	
377.38	5262.6	
377.59	4077.5	
377.79	3539.6	
378	5111.7	
378.2	5289.9	
378.41	3585.3	
378.61	3485	
378.82	5457.2	
379.02	5059.2	
379.23	3677.5	
379.43	4214	
379.64	5658.5	
379.84	5266.7	
380.05	3590.8	
380.25	3525.2	
380.46	5339.1	
380.66	5137	
380.87	4258.4	
381.07	4448.9	
381.28	5605.3	
381.48	5308.3	
381.69	3616	
381.89	3665.9	
382.1	4811.4	
382.3	5247.6	
382.51	4167.6	
382.71	4682.3	
382.91	5214.1	
383.12	5608.7	
383.32	3744.4	
383.53	3842	
383.73	5219.6	
383.94	5156.8	
384.14	3851.5	
384.35	3325.9	
384.55	4947.2	
384.76	5231.2	
384.96	3827.7	
385.17	3871.3	
385.37	5280.3	
385.58	4837.3	
385.78	3893.2	
385.98	3353.2	
386.19	5013.4	
386.39	5274.2	
386.6	3672.7	
386.8	3784.6	
387.01	5280.3	
387.21	5362.3	
387.42	3998.3	
387.62	4311	
387.83	5066	
388.03	5119.2	
388.23	3969	
388.44	4301.4	
388.64	4917.2	
388.85	4980.7	
389.05	4040	
389.26	4387.4	
389.46	6163.7	
389.67	5784.8	
389.87	4236.6	
390.07	4154	
390.28	5244.8	
390.48	5034.6	
390.69	3787.4	
390.89	4012	
391.1	5274.2	
391.3	5710.4	
391.5	4574.5	
391.71	4850.3	
391.91	5697.4	
392.12	6027.9	
392.32	4713.1	
392.53	4193.6	
392.73	5283.1	
392.93	5360.9	
393.14	4108.9	
393.34	4358.1	
393.55	5676.3	
393.75	5313.1	
393.95	4058.4	
394.16	3948.5	
394.36	5332.2	
394.57	5576.6	
394.77	3805.8	
394.98	3883.6	
395.18	5333.6	
395.38	5289.2	
395.59	4558.8	
395.79	4027	
396	5498.1	
396.2	5761.6	
396.4	4549.9	
396.61	4507.6	
396.81	5829.2	
397.02	5515.9	
397.22	4819.6	
397.42	4764.3	
397.63	6019.7	
397.83	5595.1	
398.04	4195.6	
398.24	4588.8	
398.44	5770.5	
398.65	5279.7	
398.85	4172.4	
399.05	4214	
399.26	5768.4	
399.46	6492.1	
399.67	4562.2	
399.87	4390.2	
400.07	5982.1	
400.28	6050.4	
400.48	4456.4	
400.69	5050.3	
400.89	6139.1	
401.09	6503.7	
401.3	4451.6	
401.5	5063.9	
401.7	6664.8	
401.91	6814.3	
402.11	4785.4	
402.32	4784.1	
402.52	6435.4	
402.72	6260.6	
402.93	4911.7	
403.13	4253.6	
403.33	6663.4	
403.54	5840.8	
403.74	4629.1	
403.94	5101.5	
404.15	5834.7	
404.35	6539.8	
404.56	4493.9	
404.76	5398.4	
404.96	6173.9	
405.17	6026.5	
405.37	4918.5	
405.57	4876.2	
405.78	6306.4	
405.98	5874.9	
406.18	4706.9	
406.39	5059.8	
406.59	6334.4	
406.79	5956.9	
407	4508.9	
407.2	4604.5	
407.4	6653.2	
407.61	6474.3	
407.81	4732.9	
408.01	5881.8	
408.22	5829.2	
408.42	7062.1	
408.62	5631.9	
408.83	5383.4	
409.03	6580.8	
409.23	6677.1	
409.44	5573.9	
409.64	5754.1	
409.84	7468.9	
410.05	7509.2	
410.25	5901.6	
410.45	5829.9	
410.66	7476.5	
410.86	8784.4	
411.06	6405.4	
411.27	6152.8	
411.47	8867	
411.67	7702.4	
411.88	6361.7	
412.08	6679.1	
412.28	8120.9	
412.49	8397.4	
412.69	6607.4	
412.89	6479.1	
413.09	8325	
413.3	8412.4	
413.5	6687.3	
413.7	6498.9	
413.91	7918.1	
414.11	8517.5	
414.31	6647.7	
414.52	7041.6	
414.72	8389.8	
414.92	8411	
415.12	6734.4	
415.33	7116	
415.53	8576.9	
415.73	8751.7	
415.94	7281.9	
416.14	6906.4	
416.34	8378.9	
416.55	7989.1	
416.75	7687.4	
416.95	7393.2	
417.15	8966	
417.36	9043.1	
417.56	7955	
417.76	7458.7	
417.97	9095.7	
418.17	9029.5	
418.37	7273	
418.57	7335.1	
418.78	8950.3	
418.98	8699.8	
419.18	7849.9	
419.38	7690.1	
419.59	8746.2	
419.79	8428.1	
419.99	7243.7	
420.2	7404.8	
420.4	8979.7	
420.6	8953.7	
420.8	7264.8	
421.01	7110.5	
421.21	9066.4	
421.41	9002.2	
421.61	7392.5	
421.82	7294.2	
422.02	8853.4	
422.22	9220	
422.42	7739.3	
422.63	7310.6	
422.83	8749.6	
423.03	9494.4	
423.23	7437.5	
423.44	6944.7	
423.64	8761.9	
423.84	8435.6	
424.04	7191.1	
424.25	6976.1	
424.45	9038.4	
424.65	9111.4	
424.85	6851.8	
425.06	7152.9	
425.26	9324.4	
425.46	8615.1	
425.66	7366.5	
425.87	7195.9	
426.07	8936.7	
426.27	8761.9	
426.47	7296.2	
426.67	6886.6	
426.88	9176.3	
427.08	8740.7	
427.28	7664.9	
427.48	6796.5	
427.69	8272.4	
427.89	8575.5	
428.09	7403.4	
428.29	6919.4	
428.5	8864.3	
428.7	8830.2	
428.9	6995.9	
429.1	7169.9	
429.3	8789.9	
429.51	8996	
429.71	7107.8	
429.91	7626	
430.11	9159.9	
430.31	9478.7	
430.52	7426.6	
430.72	7563.1	
430.92	9447.3	
431.12	9123.7	
431.32	7436.9	
431.53	7530.4	
431.73	8620.6	
431.93	9443.2	
432.13	7287.4	
432.33	7266.2	
432.54	8914.8	
432.74	9137.4	
432.94	7336.5	
433.14	7791.2	
433.34	9418.6	
433.55	9296.4	
433.75	7915.4	
433.95	8912.8	
434.15	9357.9	
434.35	9153.1	
434.56	7522.2	
434.76	7548.1	
434.96	9359.9	
435.16	9759.9	
435.36	7603.4	
435.56	8445.1	
435.77	9487.6	
435.97	9552.4	
436.17	8856.1	
436.37	8516.1	
436.57	9482.1	
436.78	9623.4	
436.98	8279.3	
437.18	8741.4	
437.38	9994.1	
437.58	9594.1	
437.78	8779	
437.99	8120.2	
438.19	9821.4	
438.39	10195	
438.59	8101.8	
438.79	7607.5	
438.99	10117	
439.2	9416.6	
439.4	7528.3	
439.6	7708.6	
439.8	9587.2	
440	10247	
440.2	8535.3	
440.4	8489.5	
440.61	10233	
440.81	10507	
441.01	8302.5	
441.21	8940.7	
441.41	10864	
441.61	10370	
441.81	9331.9	
442.02	9731.3	
442.22	11071	
442.42	10690	
442.62	8638.3	
442.82	8629.5	
443.02	10939	
443.22	10512	
443.43	9005.6	
443.63	8662.2	
443.83	10217	
444.03	10311	
444.23	9601.6	
444.43	9208.4	
444.63	10897	
444.83	11244	
445.04	9121.7	
445.24	9705.3	
445.44	10823	
445.64	10983	
445.84	9138	
446.04	9333.3	
446.24	10327	
446.44	10974	
446.65	8641.1	
446.85	9075.9	
447.05	10282	
447.25	10893	
447.45	9019.3	
447.65	8581	
447.85	10574	
448.05	9969.5	
448.25	9364	
448.46	9196.1	
448.66	10464	
448.86	10213	
449.06	8781.7	
449.26	9187.9	
449.46	10896	
449.66	10382	
449.86	9373.6	
450.06	9220.6	
450.26	10538	
450.47	10911	
450.67	9142.8	
450.87	9533.3	
451.07	11140	
451.27	10882	
451.47	8985.1	
451.67	9714.2	
451.87	10873	
452.07	11297	
452.27	9403.6	
452.47	9213.1	
452.67	11037	
452.88	11181	
453.08	8716.8	
453.28	9904	
453.48	11829	
453.68	10735	
453.88	9432.3	
454.08	9454.8	
454.28	11379	
454.48	11127	
454.68	9798.2	
454.88	9927.2	
455.08	11470	
455.28	11437	
455.48	9359.2	
455.68	9995.5	
455.89	11936	
456.09	11710	
456.29	9902.6	
456.49	10137	
456.69	12162	
456.89	11420	
457.09	10358	
457.29	10701	
457.49	11934	
457.69	12268	
457.89	10790	
458.09	10148	
458.29	12207	
458.49	12638	
458.69	11040	
458.89	10813	
459.09	12908	
459.29	12831	
459.49	10709	
459.69	11215	
459.9	12478	
460.1	12721	
460.3	10606	
460.5	10543	
460.7	12865	
460.9	12460	
461.1	10509	
461.3	11477	
461.5	13336	
461.7	13082	
461.9	11334	
462.1	11176	
462.3	13116	
462.5	13389	
462.7	11358	
462.9	11604	
463.1	14169	
463.3	14263	
463.5	11710	
463.7	12713	
463.9	13774	
464.1	13852	
464.3	12517	
464.5	12327	
464.7	14242	
464.9	14429	
465.1	13327	
465.3	12695	
465.5	14485	
465.7	14844	
465.9	13251	
466.1	12476	
466.3	14691	
466.5	14433	
466.7	13875	
466.9	12882	
467.1	15043	
467.3	15273	
467.5	13953	
467.7	13323	
467.9	15440	
468.1	16003	
468.3	13535	
468.5	14131	
468.7	15100	
468.9	14878	
469.1	13722	
469.3	14315	
469.5	16337	
469.7	15318	
469.9	13739	
470.1	13635	
470.3	15428	
470.5	15410	
470.7	14276	
470.9	13583	
471.1	15457	
471.3	15023	
471.5	13659	
471.69	14567	
471.89	15167	
472.09	14714	
472.29	14094	
472.49	13761	
472.69	15153	
472.89	15191	
473.09	13457	
473.29	13274	
473.49	14891	
473.69	14823	
473.89	13923	
474.09	13336	
474.29	15544	
474.49	15300	
474.69	13878	
474.89	13476	
475.09	14951	
475.29	14873	
475.49	13162	
475.69	13530	
475.88	15674	
476.08	15207	
476.28	13108	
476.48	13088	
476.68	15214	
476.88	14868	
477.08	13028	
477.28	13361	
477.48	14540	
477.68	14879	
477.88	13119	
478.08	13068	
478.28	15307	
478.48	14718	
478.67	13402	
478.87	12598	
479.07	15348	
479.27	14780	
479.47	13295	
479.67	13603	
479.87	15274	
480.07	15465	
480.27	13165	
480.47	13817	
480.67	14901	
480.87	15446	
481.06	13267	
481.26	13799	
481.46	15208	
481.66	14904	
481.86	13667	
482.06	14050	
482.26	14943	
482.46	15286	
482.66	13475	
482.86	13286	
483.05	15341	
483.25	14699	
483.45	15128	
483.65	13638	
483.85	14972	
484.05	15272	
484.25	13958	
484.45	14492	
484.65	15589	
484.84	16073	
485.04	13813	
485.24	13934	
485.44	16275	
485.64	15235	
485.84	13783	
486.04	14573	
486.24	15593	
486.44	15780	
486.63	13835	
486.83	14441	
487.03	15883	
487.23	16192	
487.43	14023	
487.63	15526	
487.83	16296	
488.02	16398	
488.22	15000	
488.42	15312	
488.62	16763	
488.82	16137	
489.02	14665	
489.22	15080	
489.41	16498	
489.61	16842	
489.81	14627	
490.01	14876	
490.21	16825	
490.41	17260	
490.61	14941	
490.8	14969	
491	16840	
491.2	16173	
491.4	15120	
491.6	14676	
491.8	16469	
491.99	16379	
492.19	14445	
492.39	14537	
492.59	16651	
492.79	16792	
492.99	15253	
493.18	14758	
493.38	17150	
493.58	17783	
493.78	15427	
493.98	15337	
494.18	17188	
494.37	17196	
494.57	16250	
494.77	16167	
494.97	17987	
495.17	18330	
495.37	16376	
495.56	16586	
495.76	18584	
495.96	18631	
496.16	17434	
496.36	16964	
496.55	19002	
496.75	18759	
496.95	17123	
497.15	17152	
497.35	18854	
497.54	19164	
497.74	17115	
497.94	18314	
498.14	19542	
498.34	19252	
498.53	17163	
498.73	17692	
498.93	18932	
499.13	19313	
499.33	17749	
499.52	17780	
499.72	19708	
499.92	19432	
500.12	17628	
500.32	17946	
500.51	19759	
500.71	19875	
500.91	18430	
501.11	18039	
501.31	19830	
501.5	19949	
501.7	18780	
501.9	18179	
502.1	19565	
502.29	19963	
502.49	18463	
502.69	18355	
502.89	19753	
503.09	19785	
503.28	17338	
503.48	17587	
503.68	19071	
503.88	19175	
504.07	17941	
504.27	17486	
504.47	19364	
504.67	19106	
504.86	17785	
505.06	17596	
505.26	18904	
505.46	19642	
505.65	17320	
505.85	17344	
506.05	18776	
506.25	18934	
506.44	16760	
506.64	17053	
506.84	18490	
507.04	18566	
507.23	16657	
507.43	16918	
507.63	19287	
507.83	18351	
508.02	16914	
508.22	16688	
508.42	19525	
508.62	18226	
508.81	16664	
509.01	17185	
509.21	18015	
509.4	18361	
509.6	16884	
509.8	16636	
510	18168	
510.19	18876	
510.39	16493	
510.59	16651	
510.79	18327	
510.98	19184	
511.18	16906	
511.38	17008	
511.57	18950	
511.77	18659	
511.97	17101	
512.17	16687	
512.36	18824	
512.56	18370	
512.76	16517	
512.95	16373	
513.15	18829	
513.35	17961	
513.55	17021	
513.74	16563	
513.94	18752	
514.14	18421	
514.33	17195	
514.53	17012	
514.73	18557	
514.92	18629	
515.12	16821	
515.32	16804	
515.51	18800	
515.71	18855	
515.91	17746	
516.11	16857	
516.3	19744	
516.5	18652	
516.7	17331	
516.89	17512	
517.09	18709	
517.29	18770	
517.48	17557	
517.68	17174	
517.88	18404	
518.07	18873	
518.27	17445	
518.47	16931	
518.66	19048	
518.86	18627	
519.06	16696	
519.25	16976	
519.45	18483	
519.65	19584	
519.84	17462	
520.04	17875	
520.24	19846	
520.43	19161	
520.63	17135	
520.83	17239	
521.02	18574	
521.22	18965	
521.42	17063	
521.61	17574	
521.81	18512	
522.01	18430	
522.2	17204	
522.4	16868	
522.6	18967	
522.79	18197	
522.99	17252	
523.18	17019	
523.38	19211	
523.58	19240	
523.77	18400	
523.97	17475	
524.17	20663	
524.36	20191	
524.56	18527	
524.76	18353	
524.95	20094	
525.15	19851	
525.34	18428	
525.54	18750	
525.74	20565	
525.93	20190	
526.13	19740	
526.33	19166	
526.52	21186	
526.72	20858	
526.91	19935	
527.11	19565	
527.31	21117	
527.5	21384	
527.7	19809	
527.89	19199	
528.09	20811	
528.29	21433	
528.48	19822	
528.68	19613	
528.87	21536	
529.07	21224	
529.27	19850	
529.46	19577	
529.66	21506	
529.85	21988	
530.05	19569	
530.25	20026	
530.44	22399	
530.64	21283	
530.83	19810	
531.03	19984	
531.23	21781	
531.42	21506	
531.62	20324	
531.81	19905	
532.01	22082	
532.21	22235	
532.4	20435	
532.6	20814	
532.79	22786	
532.99	22730	
533.18	21032	
533.38	21655	
533.58	22764	
533.77	22954	
533.97	21448	
534.16	21755	
534.36	23568	
534.55	23019	
534.75	21902	
534.95	21588	
535.14	23763	
535.34	22853	
535.53	21267	
535.73	22479	
535.92	23946	
536.12	22931	
536.31	21361	
536.51	21856	
536.71	23089	
536.9	22788	
537.1	21061	
537.29	21181	
537.49	23251	
537.68	22610	
537.88	21687	
538.07	21016	
538.27	22992	
538.46	23374	
538.66	21168	
538.86	21487	
539.05	23019	
539.25	23263	
539.44	21863	
539.64	21345	
539.83	22973	
540.03	23596	
540.22	21377	
540.42	21024	
540.61	22906	
540.81	23233	
541	21095	
541.2	21729	
541.39	22499	
541.59	22868	
541.78	21880	
541.98	20693	
542.18	22316	
542.37	22185	
542.57	20798	
542.76	21429	
542.96	22059	
543.15	22489	
543.35	20766	
543.54	20366	
543.74	21643	
543.93	21948	
544.13	20427	
544.32	20882	
544.52	22082	
544.71	21545	
544.91	19704	
545.1	20245	
545.3	21486	
545.49	21861	
545.69	19618	
545.88	19749	
546.08	22496	
546.27	21896	
546.47	20194	
546.66	19822	
546.86	21915	
547.05	22028	
547.24	19842	
547.44	19882	
547.63	21147	
547.83	21736	
548.02	19965	
548.22	19953	
548.41	21101	
548.61	21609	
548.8	19528	
549	19663	
549.19	21194	
549.39	21558	
549.58	19227	
549.78	19709	
549.97	21499	
550.17	21083	
550.36	19751	
550.55	20394	
550.75	20809	
550.94	21308	
551.14	19191	
551.33	19076	
551.53	20433	
551.72	21121	
551.92	19183	
552.11	19153	
552.31	21109	
552.5	20648	
552.69	19934	
552.89	18687	
553.08	21061	
553.28	20549	
553.47	19043	
553.67	19687	
553.86	21026	
554.06	20080	
554.25	18457	
554.44	18850	
554.64	21403	
554.83	21134	
555.03	18712	
555.22	18955	
555.42	20812	
555.61	20633	
555.8	18684	
556	18668	
556.19	20181	
556.39	20474	
556.58	18729	
556.78	18585	
556.97	20425	
557.16	20206	
557.36	19371	
557.55	18510	
557.75	19699	
557.94	20820	
558.13	18412	
558.33	18496	
558.52	20738	
558.72	19911	
558.91	18393	
559.1	18468	
559.3	19815	
559.49	19548	
559.69	18133	
559.88	18516	
560.07	20093	
560.27	20293	
560.46	18406	
560.66	18585	
560.85	19968	
561.04	19364	
561.24	18159	
561.43	18004	
561.63	19601	
561.82	19584	
562.01	18721	
562.21	18236	
562.4	19796	
562.59	20445	
562.79	18198	
562.98	17980	
563.18	19895	
563.37	20748	
563.56	18504	
563.76	18333	
563.95	19873	
564.14	19815	
564.34	18503	
564.53	18251	
564.73	20276	
564.92	20470	
565.11	18856	
565.31	18261	
565.5	20656	
565.69	19919	
565.89	18569	
566.08	18803	
566.27	20424	
566.47	20874	
566.66	19146	
566.85	18555	
567.05	20551	
567.24	20119	
567.44	18813	
567.63	19432	
567.82	20783	
568.02	20439	
568.21	18647	
568.4	18951	
568.6	20458	
568.79	20504	
568.98	18564	
569.18	18867	
569.37	20716	
569.56	21847	
569.76	19168	
569.95	19627	
570.14	20703	
570.34	20872	
570.53	18781	
570.72	18821	
570.91	21347	
571.11	20761	
571.3	19101	
571.49	19528	
571.69	20742	
571.88	20313	
572.07	19504	
572.27	19245	
572.46	20487	
572.65	20860	
572.85	19149	
573.04	19228	
573.23	21313	
573.43	20861	
573.62	19300	
573.81	19546	
574	21147	
574.2	21056	
574.39	19540	
574.58	19660	
574.78	21962	
574.97	21532	
575.16	20089	
575.36	20282	
575.55	22044	
575.74	21842	
575.93	19545	
576.13	20633	
576.32	21441	
576.51	22019	
576.71	20099	
576.9	20861	
577.09	22143	
577.28	21857	
577.48	20360	
577.67	19915	
577.86	21846	
578.05	21948	
578.25	20190	
578.44	20239	
578.63	21807	
578.83	22465	
579.02	19813	
579.21	20871	
579.4	21987	
579.6	21935	
579.79	20362	
579.98	21575	
580.17	22149	
580.37	22431	
580.56	20113	
580.75	20771	
580.94	22332	
581.14	22582	
581.33	20955	
581.52	20300	
581.71	22393	
581.91	22552	
582.1	20295	
582.29	20480	
582.48	22115	
582.68	22351	
582.87	20833	
583.06	20821	
583.25	22434	
583.45	22092	
583.64	21243	
583.83	21499	
584.02	22336	
584.21	22689	
584.41	21011	
584.6	20932	
584.79	22410	
584.98	22788	
585.18	20710	
585.37	20684	
585.56	22203	
585.75	22668	
585.94	20511	
586.14	20972	
586.33	22700	
586.52	22099	
586.71	20618	
586.91	20484	
587.1	21397	
587.29	22171	
587.48	20047	
587.67	20248	
587.87	21788	
588.06	21612	
588.25	20608	
588.44	20257	
588.63	21340	
588.83	21640	
589.02	19678	
589.21	19276	
589.4	20843	
589.59	21011	
589.78	18527	
589.98	18567	
590.17	19842	
590.36	20011	
590.55	17380	
590.74	17471	
590.94	20037	
591.13	19114	
591.32	17387	
591.51	16987	
591.7	19124	
591.89	19106	
592.09	17256	
592.28	17382	
592.47	18530	
592.66	20008	
592.85	17404	
593.05	17581	
593.24	19267	
593.43	19737	
593.62	17642	
593.81	17980	
594	19536	
594.19	19364	
594.39	17666	
594.58	17554	
594.77	19529	
594.96	19622	
595.15	17529	
595.34	17795	
595.54	19003	
595.73	18744	
595.92	17036	
596.11	17408	
596.3	19263	
596.49	18647	
596.68	17350	
596.88	17427	
597.07	19181	
597.26	18633	
597.45	16979	
597.64	17703	
597.83	18793	
598.02	19099	
598.22	17157	
598.41	17400	
598.6	18860	
598.79	18586	
598.98	17138	
599.17	17680	
599.36	18990	
599.55	19422	
599.74	18306	
599.94	18015	
600.13	19110	
600.32	18535	
600.51	16841	
600.7	16941	
600.89	19463	
601.08	19476	
601.27	16941	
601.47	17385	
601.66	19066	
601.85	19291	
602.04	17375	
602.23	17152	
602.42	18539	
602.61	18968	
602.8	16839	
602.99	16838	
603.18	18636	
603.37	18621	
603.57	17066	
603.76	17566	
603.95	19172	
604.14	18845	
604.33	16968	
604.52	17038	
604.71	19126	
604.9	18446	
605.09	17364	
605.28	17221	
605.47	19301	
605.66	18752	
605.86	17270	
606.05	17050	
606.24	18962	
606.43	18105	
606.62	17162	
606.81	17533	
607	19009	
607.19	18490	
607.38	16644	
607.57	16832	
607.76	18221	
607.95	17989	
608.14	17045	
608.33	17204	
608.52	18381	
608.72	18908	
608.91	16414	
609.1	16431	
609.29	18312	
609.48	17811	
609.67	16709	
609.86	16328	
610.05	17999	
610.24	17897	
610.43	16304	
610.62	15994	
610.81	18565	
611	18600	
611.19	16402	
611.38	16668	
611.57	18234	
611.76	18919	
611.95	16196	
612.14	16041	
612.33	18090	
612.52	17845	
612.71	16313	
612.9	15964	
613.09	17615	
613.28	18877	
613.47	16240	
613.66	16660	
613.85	18114	
614.04	17703	
614.24	16238	
614.43	15713	
614.62	18269	
614.81	18121	
615	16435	
615.19	16539	
615.38	17828	
615.57	18140	
615.76	16551	
615.95	17034	
616.14	18359	
616.33	18097	
616.52	16873	
616.71	16729	
616.9	18306	
617.09	18096	
617.28	16388	
617.47	16972	
617.66	17817	
617.85	17782	
618.04	17064	
618.22	16793	
618.41	18230	
618.6	19039	
618.79	16914	
618.98	16909	
619.17	19201	
619.36	18178	
619.55	17119	
619.74	17256	
619.93	18832	
620.12	18645	
620.31	17634	
620.5	17783	
620.69	19430	
620.88	19716	
621.07	18181	
621.26	17894	
621.45	19310	
621.64	19489	
621.83	18010	
622.02	17488	
622.21	19394	
622.4	19517	
622.59	18165	
622.78	18146	
622.97	19168	
623.16	19897	
623.35	18097	
623.54	17548	
623.72	19438	
623.91	19474	
624.1	18172	
624.29	17492	
624.48	20100	
624.67	19719	
624.86	18366	
625.05	17615	
625.24	20255	
625.43	19406	
625.62	19027	
625.81	17820	
626	19702	
626.19	19432	
626.38	18161	
626.56	17944	
626.75	19489	
626.94	19798	
627.13	18114	
627.32	17421	
627.51	19725	
627.7	20218	
627.89	17423	
628.08	18128	
628.27	19050	
628.46	19220	
628.65	17394	
628.83	17383	
629.02	19476	
629.21	18895	
629.4	17781	
629.59	17828	
629.78	18975	
629.97	19517	
630.16	18019	
630.35	17714	
630.54	20041	
630.72	19652	
630.91	17656	
631.1	17791	
631.29	19260	
631.48	19383	
631.67	18064	
631.86	17624	
632.05	19512	
632.24	19237	
632.42	17415	
632.61	17761	
632.8	19054	
632.99	19026	
633.18	18045	
633.37	17892	
633.56	19362	
633.75	19391	
633.93	17944	
634.12	17801	
634.31	19962	
634.5	19586	
634.69	17820	
634.88	17959	
635.07	19329	
635.25	19556	
635.44	18173	
635.63	18374	
635.82	19211	
636.01	18510	
636.2	17951	
636.39	17832	
636.57	19744	
636.76	19286	
636.95	17576	
637.14	18052	
637.33	19282	
637.52	19822	
637.7	17359	
637.89	18051	
638.08	19269	
638.27	19792	
638.46	17989	
638.65	17941	
638.83	19650	
639.02	18858	
639.21	17719	
639.4	17913	
639.59	18981	
639.78	18882	
639.96	16991	
640.15	17001	
640.34	18866	
640.53	18716	
640.72	16896	
640.91	16978	
641.09	18248	
641.28	19018	
641.47	16959	
641.66	17288	
641.85	18727	
642.03	18478	
642.22	16947	
642.41	16860	
642.6	18189	
642.79	17812	
642.97	16477	
643.16	16991	
643.35	18015	
643.54	17887	
643.73	16524	
643.91	16812	
644.1	17511	
644.29	18064	
644.48	16086	
644.67	16100	
644.85	17511	
645.04	17707	
645.23	15616	
645.42	16027	
645.6	17011	
645.79	17543	
645.98	15287	
646.17	14795	
646.36	16464	
646.54	16667	
646.73	15401	
646.92	14828	
647.11	16300	
647.29	16827	
647.48	14773	
647.67	14530	
647.86	16838	
648.05	16940	
648.23	14643	
648.42	15380	
648.61	16402	
648.8	16532	
648.98	14461	
649.17	14695	
649.36	15917	
649.55	15926	
649.73	14334	
649.92	14833	
650.11	16223	
650.3	16281	
650.48	14597	
650.67	14487	
650.86	16417	
651.05	15651	
651.23	14369	
651.42	14375	
651.61	15923	
651.79	15558	
651.98	14466	
652.17	14229	
652.36	16008	
652.54	15298	
652.73	14273	
652.92	14188	
653.11	15812	
653.29	15979	
653.48	13626	
653.67	14108	
653.85	15637	
654.04	16167	
654.23	14037	
654.42	13785	
654.6	14890	
654.79	15269	
654.98	13085	
655.16	13283	
655.35	14347	
655.54	13994	
655.73	12642	
655.91	12656	
656.1	14400	
656.29	13945	
656.47	12443	
656.66	13399	
656.85	14343	
657.03	14431	
657.22	12890	
657.41	13240	
657.59	14686	
657.78	14605	
657.97	13203	
658.16	13472	
658.34	15083	
658.53	15571	
658.72	13962	
658.9	14315	
659.09	15013	
659.28	15085	
659.46	13511	
659.65	13440	
659.84	14805	
660.02	15335	
660.21	13525	
660.4	13464	
660.58	15399	
660.77	15016	
660.96	13764	
661.14	13260	
661.33	15652	
661.52	15645	
661.7	13149	
661.89	14993	
662.08	14844	
662.26	14545	
662.45	13342	
662.64	13248	
662.82	15216	
663.01	14637	
663.2	13252	
663.38	13699	
663.57	14930	
663.75	14934	
663.94	13480	
664.13	13951	
664.31	14646	
664.5	15029	
664.69	13508	
664.87	13774	
665.06	14548	
665.25	15045	
665.43	13891	
665.62	13959	
665.8	14829	
665.99	14522	
666.18	13312	
666.36	13300	
666.55	14818	
666.74	14854	
666.92	13076	
667.11	13849	
667.29	14560	
667.48	14661	
667.67	13591	
667.85	13052	
668.04	14437	
668.22	14534	
668.41	13234	
668.6	13514	
668.78	14399	
668.97	14388	
669.15	13327	
669.34	12740	
669.53	14501	
669.71	14665	
669.9	12800	
670.08	13163	
670.27	14276	
670.46	14670	
670.64	13172	
670.83	13479	
671.01	14174	
671.2	14437	
671.38	12871	
671.57	12872	
671.76	14927	
671.94	15124	
672.13	12798	
672.31	13297	
672.5	14836	
672.69	14293	
672.87	12844	
673.06	13068	
673.24	14648	
673.43	14402	
673.61	13135	
673.8	12918	
673.98	14570	
674.17	14636	
674.36	13338	
674.54	13128	
674.73	14192	
674.91	14640	
675.1	13132	
675.28	12788	
675.47	14423	
675.65	14692	
675.84	12895	
676.03	13174	
676.21	14110	
676.4	13831	
676.58	13264	
676.77	13233	
676.95	15182	
677.14	14089	
677.32	12622	
677.51	12564	
677.69	14625	
677.88	14114	
678.06	12686	
678.25	12763	
678.44	14321	
678.62	14159	
678.81	12454	
678.99	13089	
679.18	14622	
679.36	14421	
679.55	12773	
679.73	13219	
679.92	14358	
680.1	14119	
680.29	13469	
680.47	12738	
680.66	14063	
680.84	14574	
681.03	12537	
681.21	13084	
681.4	14087	
681.58	13932	
681.77	12585	
681.95	12579	
682.14	14470	
682.32	14620	
682.51	13091	
682.69	12385	
682.88	13881	
683.06	13973	
683.25	12779	
683.43	12968	
683.62	14089	
683.8	14197	
683.99	12921	
684.17	12635	
684.36	14533	
684.54	13705	
684.73	11913	
684.91	11779	
685.1	13360	
685.28	12898	
685.46	11398	
685.65	11359	
685.83	12661	
686.02	12157	
686.2	10790	
686.39	10837	
686.57	11917	
686.76	12884	
686.94	10999	
687.13	11101	
687.31	12592	
687.5	12572	
687.68	10864	
687.86	11396	
688.05	13546	
688.23	12419	
688.42	11676	
688.6	11444	
688.79	12680	
688.97	12693	
689.16	11665	
689.34	11025	
689.52	13205	
689.71	13451	
689.89	11950	
690.08	11564	
690.26	13234	
690.45	13058	
690.63	12031	
690.81	11793	
691	13039	
691.18	12881	
691.37	11694	
691.55	12751	
691.74	12678	
691.92	13753	
692.1	11482	
692.29	11160	
692.47	12816	
692.66	12387	
692.84	11169	
693.02	11437	
693.21	12390	
693.39	12670	
693.58	11743	
693.76	11252	
693.94	13504	
694.13	13506	
694.31	11635	
694.5	12201	
694.68	12986	
694.86	13355	
695.05	12034	
695.23	12244	
695.42	13641	
695.6	14923	
695.78	12512	
695.97	11900	
696.15	13673	
696.34	13272	
696.52	11892	
696.7	12145	
696.89	13398	
697.07	12900	
697.25	11773	
697.44	12611	
697.62	13216	
697.81	13120	
697.99	11747	
698.17	11988	
698.36	12675	
698.54	13099	
698.72	11732	
698.91	11133	
699.09	12742	
699.28	12528	
699.46	11340	
699.64	11302	
699.83	12564	
700.01	12968	
700.19	11738	
700.38	10901	
700.56	12992	
700.74	12592	
700.93	11203	
701.11	11536	
701.29	12934	
701.48	13694	
701.66	11359	
701.84	11478	
702.03	12866	
702.21	13291	
702.39	11243	
702.58	11542	
702.76	13283	
702.94	13117	
703.13	11204	
703.31	12493	
703.49	12886	
703.68	13228	
703.86	11120	
704.04	11837	
704.23	12877	
704.41	13116	
704.59	11374	
704.78	11729	
704.96	13757	
705.14	12911	
705.33	11183	
705.51	11419	
705.69	12791	
705.87	13238	
706.06	11587	
706.24	11038	
706.42	12884	
706.61	12911	
706.79	11583	
706.97	10944	
707.16	12458	
707.34	12571	
707.52	11372	
707.7	11095	
707.89	12301	
708.07	12254	
708.25	11543	
708.44	11650	
708.62	12287	
708.8	12908	
708.98	11367	
709.17	11114	
709.35	12458	
709.53	12377	
709.72	10855	
709.9	10759	
710.08	12593	
710.26	12603	
710.45	11459	
710.63	10775	
710.81	12140	
710.99	12128	
711.18	10938	
711.36	10662	
711.54	12012	
711.72	12401	
711.91	10539	
712.09	10157	
712.27	11871	
712.45	12157	
712.64	10191	
712.82	9744.9	
713	11104	
713.18	11183	
713.37	9585.2	
713.55	10071	
713.73	11407	
713.91	10549	
714.1	9196.1	
714.28	8817.9	
714.46	10394	
714.64	9815.9	
714.83	7946.8	
715.01	7936.6	
715.19	9205.6	
715.37	8678.6	
715.55	7385.7	
715.74	7536.5	
715.92	9267.1	
716.1	8127.7	
716.28	7997.3	
716.47	7322.2	
716.65	8474.5	
716.83	8426	
717.01	7175.4	
717.19	7121.5	
717.38	9520.3	
717.56	8166.6	
717.74	7261.4	
717.92	6851.1	
718.1	8832.9	
718.29	8452.6	
718.47	6851.8	
718.65	7302.4	
718.83	9355.1	
719.01	9385.8	
719.2	7293.5	
719.38	8030.8	
719.56	9374.9	
719.74	10231	
719.92	7818.5	
720.11	8272.4	
720.29	9407.7	
720.47	8842.4	
720.65	7249.8	
720.83	7656	
721.02	8679.3	
721.2	8370	
721.38	7197.9	
721.56	6731.7	
721.74	7937.2	
721.92	7848.5	
722.11	7400	
722.29	7177.4	
722.47	8586.5	
722.65	8141.4	
722.83	6637.5	
723.01	6980.8	
723.2	7987.1	
723.38	8355.7	
723.56	6380.8	
723.74	6879.1	
723.92	7758.4	
724.1	8343.4	
724.29	6551.5	
724.47	7157.7	
724.65	8040.3	
724.83	7807.5	
725.01	6477	
725.19	6839.5	
725.37	7622.5	
725.56	7682.6	
725.74	6322.8	
725.92	6409.5	
726.1	7703.1	
726.28	7902.4	
726.46	6650.4	
726.64	6409.5	
726.83	7852.6	
727.01	7856	
727.19	6249	
727.37	6665.5	
727.55	7943.4	
727.73	8133.2	
727.91	6139.1	
728.09	6111.8	
728.28	7965.9	
728.46	8224	
728.64	6632	
728.82	6648.4	
729	8677.9	
729.18	8469	
729.36	6319.3	
729.54	7499	
729.72	9050	
729.91	8210.3	
730.09	7589.1	
730.27	6954.9	
730.45	8096.3	
730.63	8447.2	
730.81	7157.7	
730.99	6728.3	
731.17	8878.6	
731.35	8069	
731.53	7071	
731.71	6791.1	
731.9	8722.3	
732.08	8570.7	
732.26	6814.3	
732.44	6720.8	
732.62	8647.2	
732.8	8236.9	
732.98	7010.9	
733.16	6445.6	
733.34	8307.9	
733.52	7423.9	
733.7	6603.3	
733.88	6759.7	
734.07	8084	
734.25	7993.9	
734.43	6348.7	
734.61	7073.7	
734.79	8838.4	
734.97	7950.9	
735.15	6337.8	
735.33	6590.4	
735.51	8017.8	
735.69	7845.8	
735.87	7065.5	
736.05	6546.7	
736.23	7874.4	
736.41	7608.9	
736.59	6521.4	
736.77	6552.8	
736.95	8135.2	
737.13	7658.7	
737.32	6251.1	
737.5	6384.2	
737.68	8378.9	
737.86	7626.6	
738.04	6189.6	
738.22	7012.2	
738.4	7573.4	
738.58	7717.4	
738.76	6312.5	
738.94	5837.4	
739.12	7516	
739.3	7426.6	
739.48	6567.8	
739.66	6456.6	
739.84	7675.1	
740.02	7567.9	
740.2	5876.3	
740.38	5900.9	
740.56	7780.2	
740.74	7035.5	
740.92	6285.2	
741.1	6140.5	
741.28	7404.8	
741.46	7177.4	
741.64	5982.1	
741.82	6192.4	
742	7348.1	
742.18	7174	
742.36	5965.7	
742.54	5830.6	
742.72	7654.6	
742.9	6851.1	
743.08	6003.3	
743.26	5427.8	
743.44	7522.2	
743.62	7486	
743.8	6182.8	
743.98	5563	
744.16	7296.9	
744.34	7087.3	
744.52	5906.3	
744.7	5973.9	
744.88	7279.2	
745.06	6979.5	
745.24	5894.1	
745.42	5962.3	
745.6	7301	
745.78	7194.5	
745.96	5222.3	
746.14	5330.9	
746.32	7582.3	
746.5	6955.6	
746.68	5533.6	
746.86	5290.6	
747.03	7243	
747.21	6349.4	
747.39	5554.8	
747.57	5160.2	
747.75	6827.2	
747.93	6975.4	
748.11	5134.3	
748.29	5152.7	
748.47	7747.5	
748.65	6565.8	
748.83	5477.6	
749.01	5442.1	
749.19	6873	
749.37	6251.1	
749.55	5339.7	
749.73	5304.2	
749.91	6732.4	
750.09	6556.9	
750.26	5301.5	
750.44	4934.9	
750.62	6687.3	
750.8	6552.1	
750.98	4888.5	
751.16	5156.1	
751.34	6761	
751.52	6296.8	
751.7	5426.4	
751.88	4848.2	
752.06	6863.4	
752.24	6668.2	
752.42	4794.3	
752.59	4999.8	
752.77	6498.2	
752.95	7148.1	
753.13	5353.4	
753.31	4999.8	
753.49	6269.5	
753.67	6461.3	
753.85	5094	
754.03	4889.2	
754.21	6615.6	
754.38	6679.1	
754.56	4719.9	
754.74	4272.1	
754.92	5932.3	
755.1	6164.4	
755.28	4044.1	
755.46	3999	
755.64	6388.3	
755.82	6220.4	
755.99	3743.7	
756.17	3697.9	
756.35	4616.1	
756.53	5300.1	
756.71	2945.7	
756.89	3604.4	
757.07	5042.8	
757.25	4607.9	
757.42	3680.9	
757.6	4167.6	
757.78	5251.7	
757.96	4821.6	
758.14	3708.9	
758.32	3488.4	
758.5	4564.2	
758.67	5000.5	
758.85	3522.5	
759.03	3599	
759.21	5119.9	
759.39	4729.4	
759.57	3349.1	
759.75	3861.1	
759.92	5532.9	
760.1	5208.7	
760.28	4186.7	
760.46	4321.9	
760.64	5100.1	
760.82	5086.5	
760.99	4252.9	
761.17	3833.1	
761.35	5694	
761.53	5061.9	
761.71	4005.1	
761.89	4302.8	
762.06	5624.4	
762.24	5320.6	
762.42	4018.1	
762.6	3992.2	
762.78	5436.7	
762.96	5675.6	
763.13	4388.1	
763.31	4119.1	
763.49	5851	
763.67	5431.9	
763.85	4641.4	
764.02	4914.4	
764.2	6080.4	
764.38	5476.3	
764.56	4063.2	
764.74	4550.6	
764.91	6077.7	
765.09	5337	
765.27	4009.2	
765.45	3803.8	
765.63	6133	
765.8	5862	
765.98	3756	
766.16	3844.7	
766.34	5144.5	
766.52	5028.4	
766.69	4290.5	
766.87	3717.1	
767.05	5395	
767.23	5734.3	
767.41	3852.9	
767.58	4004.5	
767.76	5596.4	
767.94	5592.3	
768.12	3850.9	
768.29	4197.7	
768.47	5227.1	
768.65	5694	
768.83	3618.8	
769	4157.4	
769.18	5074.9	
769.36	5289.2	
769.54	4129.4	
769.72	3635.8	
769.89	5623.7	
770.07	5498.1	
770.25	3865.9	
770.43	4431.8	
770.6	5930.9	
770.78	6018.3	
770.96	3848.8	
771.14	4123.2	
771.31	5441.5	
771.49	5121.3	
771.67	3360	
771.85	3431	
772.02	4725.3	
772.2	5093.3	
772.38	3874.8	
772.55	3534.8	
772.73	5217.5	
772.91	5061.9	
773.09	3681.6	
773.26	3811.3	
773.44	5131.5	
773.62	5042.8	
773.8	3502.7	
773.97	3396.2	
774.15	5094.7	
774.33	5031.2	
774.5	3407.1	
774.68	3555.3	
774.86	5196.4	
775.04	4867.3	
775.21	3466.5	
775.39	3358	
775.57	4982	
775.74	5152.7	
775.92	3213.9	
776.1	3179.1	
776.27	4965	
776.45	5623.7	
776.63	3351.8	
776.81	3130.7	
776.98	4787.5	
777.16	5288.5	
777.34	3372.3	
777.51	3502.7	
777.69	4769	
777.87	4632.5	
778.04	3486.3	
778.22	3662.5	
778.4	4642.1	
778.57	4967	
778.75	2989.4	
778.93	3127.9	
779.1	4594.3	
779.28	4411.3	
779.46	2947.7	
779.64	3140.9	
779.81	5048.2	
779.99	5397.8	
780.17	3590.1	
780.34	3552.5	
780.52	4813.4	
780.69	4757.4	
780.87	3410.6	
781.05	3145	
781.22	4775.9	
781.4	4759.5	
781.58	3173.7	
781.75	2768.9	
781.93	4908.3	
782.11	4316.4	
782.28	3665.9	
782.46	3119.1	
782.64	4302.8	
782.81	4814.1	
782.99	3224.2	
783.17	3115	
783.34	4700.8	
783.52	4421.6	
783.69	3190.7	
783.87	3606.5	
784.05	4456.4	
784.22	4319.8	
784.4	3598.3	
784.58	3291.1	
784.75	4892.6	
784.93	4496	
785.1	3061	
785.28	3367.5	
785.46	4799.1	
785.63	4270	
785.81	3085.6	
785.99	2975	
786.16	4498.7	
786.34	4597	
786.51	2978.4	
786.69	3217.4	
786.87	4220.9	
787.04	4487.8	
787.22	2909.5	
787.39	3377.8	
787.57	4309.6	
787.75	4820.9	
787.92	3523.9	
788.1	3391.4	
788.27	4208.6	
788.45	4009.2	
788.63	3301.3	
788.8	2642.6	
788.98	4557.4	
789.15	3975.1	
789.33	2736.8	
789.5	2945	
789.68	4770.4	
789.86	4857.1	
790.03	3202.3	
790.21	2920.4	
790.38	4842.1	
790.56	4354	
790.73	2907.4	
790.91	2861.7	
791.09	4265.9	
791.26	4634.6	
791.44	3033	
791.61	2672.6	
791.79	4285.7	
791.96	4226.3	
792.14	2781.8	
792.32	2591.4	
792.49	4258.4	
792.67	4343.1	
792.84	2773.6	
793.02	2693.8	
793.19	4531.5	
793.37	4827.1	
793.54	2512.2	
793.72	2684.2	
793.89	4876.2	
794.07	4212.7	
794.25	2973.7	
794.42	2596.1	
794.6	4774.5	
794.77	4520.5	
794.95	3116.3	
795.12	2857.6	
795.3	4200.4	
795.47	4455	
795.65	3069.9	
795.82	2962.7	
796	4087.1	
796.17	5005.2	
796.35	2947	
796.52	3312.9	
796.7	4528.7	
796.87	4504.2	
797.05	2889.7	
797.22	3287	
797.4	4573.8	
797.57	5037.3	
797.75	3024.2	
797.92	2808.4	
798.1	4685.8	
798.27	4012	
798.45	2555.2	
798.62	2704	
798.8	4375.1	
798.97	4583.4	
799.15	2975	
799.32	2975	
799.5	3931.4	
799.67	4334.2	
799.85	3159.3	
800.02	2465.1	
800.2	4156	
800.37	4184	
800.55	3165.5	
800.72	2806.4	
800.9	4582	
801.07	4785.4	
801.25	3553.2	
801.42	3030.3	
801.6	4595.6	
801.77	4256.4	
801.95	2858.3	
802.12	2751.8	
802.29	4440	
802.47	4313	
802.64	3004.4	
802.82	2484.9	
802.99	4174.4	
803.17	4534.2	
803.34	2882.2	
803.52	2691	
803.69	4926	
803.87	3959.4	
804.04	2882.9	
804.21	2964.8	
804.39	4790.2	
804.56	4115.1	
804.74	2633	
804.91	2985.3	
805.09	4091.8	
805.26	4104.8	
805.44	2652.8	
805.61	2800.9	
805.78	4530.8	
805.96	4462.5	
806.13	2927.2	
806.31	3183.9	
806.48	3831.7	
806.66	4112.3	
806.83	2995.5	
807	2935.4	
807.18	4081.6	
807.35	4256.4	
807.53	2845.3	
807.7	2535.4	
807.87	4734.2	
808.05	4113	
808.22	3034.4	
808.4	2461	
808.57	3941.7	
808.74	3872.7	
808.92	2671.2	
809.09	3286.3	
809.27	4132.8	
809.44	4289.8	
809.61	2410.5	
809.79	2665.1	
809.96	4831.8	
810.14	4382.7	
810.31	2420.7	
810.48	2997.5	
810.66	4088.4	
810.83	4421.6	
811.01	2748.4	
811.18	2856.2	
811.35	4457.1	
811.53	3657	
811.7	3134.8	
811.87	2958.6	
812.05	4188.8	
812.22	4020.8	
812.39	2653.5	
812.57	2529.2	
812.74	4160.1	
812.92	4890.5	
813.09	2847.4	
813.26	2914.9	
813.44	4829.8	
813.61	3997	
813.78	2459.6	
813.96	2991.4	
814.13	4126	
814.3	3944.4	
814.48	3248.8	
814.65	2759.3	
814.82	4711.7	
815	3865.9	
815.17	2850.1	
815.34	3304.7	
815.52	4024.9	
815.69	4050.2	
815.87	2777.7	
816.04	2742.2	
816.21	3995.6	
816.38	3820.8	
816.56	2773.6	
816.73	2649.4	
816.9	4919.9	
817.08	4413.4	
817.25	2622.1	
817.42	3061	
817.6	3811.3	
817.77	3973.7	
817.94	2853.5	
818.12	2589.3	
818.29	3926.6	
818.46	5231.2	
818.64	2715.6	
818.81	2603.7	
818.98	3964.9	
819.16	4936.3	
819.33	2984.6	
819.5	2832.3	
819.67	4308.9	
819.85	4558.8	
820.02	2775.7	
820.19	2905.4	
820.37	4229.1	
820.54	3987.4	
820.71	2854.9	
820.88	3386	
821.06	4231.1	
821.23	3918.4	
821.4	2874.7	
821.58	2827.6	
821.75	4408.6	
821.92	4164.9	
822.09	2411.8	
822.27	2501.9	
822.44	4052.2	
822.61	3979.2	
822.79	2475.3	
822.96	4067.3	
823.13	4225	
823.3	3827.7	
823.48	2704	
823.65	2499.2	
823.82	4530.8	
823.99	3854.3	
824.17	3343	
824.34	2519	
824.51	4915.8	
824.68	4107.5	
824.86	2624.8	
825.03	2804.4	
825.2	4035.2	
825.37	4620.2	
825.55	2622.1	
825.72	2793.4	
825.89	4888.5	
826.06	4664.6	
826.24	2742.9	
826.41	2714.2	
826.58	4638.6	
826.75	4194.2	
826.92	2372.9	
827.1	2528.6	
827.27	5841.5	
827.44	4874.8	
827.61	2618.7	
827.79	3046.7	
827.96	4024.3	
828.13	4020.2	
828.3	2770.2	
828.47	2405	
828.65	4427	
828.82	4296.6	
828.99	3253.5	
829.16	2925.2	
829.34	4459.1	
829.51	4424.3	
829.68	2774.3	
829.85	2825.5	
830.02	4768.4	
830.2	4514.4	
830.37	2301.2	
830.54	3156.6	
830.71	4892.6	
830.88	4105.5	
831.05	2260.3	
831.23	2539.5	
831.4	4884.4	
831.57	5095.3	
831.74	2647.3	
831.91	2326.5	
832.09	4426.3	
832.26	4489.8	
832.43	2623.4	
832.6	2934.1	
832.77	4317.1	
832.94	4726.7	
833.12	2289.6	
833.29	2629.6	
833.46	4044.1	
833.63	5233.9	
833.8	2887	
833.97	2635.7	
834.15	4612.7	
834.32	4413.4	
834.49	2704	
834.66	2768.2	
834.83	4485.1	
835	4039.3	
835.17	2592.7	
835.35	2563.4	
835.52	4490.5	
835.69	4355.3	
835.86	2664.4	
836.03	2290.3	
836.2	4517.8	
836.37	4203.1	
836.55	2643.9	
836.72	2511.5	
836.89	4244.8	
837.06	4586.8	
837.23	2678.7	
837.4	2861	
837.57	4919.2	
837.75	5231.2	
837.92	2479.4	
838.09	2607.7	
838.26	4247.5	
838.43	4528.1	
838.6	2763.4	
838.77	2488.3	
838.94	4992.3	
839.11	4898.1	
839.29	2719	
839.46	2176.3	
839.63	4539	
839.8	4261.1	
839.97	2584.5	
840.14	2572.9	
840.31	4423.6	
840.48	4554.7	
840.65	2263.7	
840.82	2590.7	
841	4468.7	
841.17	4391.5	
841.34	2379.7	
841.51	2485.6	
841.68	4498.7	
841.85	4277.5	
842.02	2477.4	
842.19	2186.5	
842.36	4386.7	
842.53	4412	
842.7	2417.3	
842.87	2783.9	
843.05	5265.3	
843.22	4270	
843.39	2353.1	
843.56	2523.1	
843.73	4216.1	
843.9	4563.6	
844.07	3530.7	
844.24	2990.7	
844.41	5653.1	
844.58	4024.9	
844.75	2379.1	
844.92	2509.4	
845.09	4395.6	
845.26	4422.9	
845.43	2409.8	
845.6	2551.8	
845.77	4511	
845.94	4250.9	
846.12	2628.9	
846.29	2720.4	
846.46	4681.7	
846.63	4410.6	
846.8	2406.4	
846.97	2744.3	
847.14	4690.5	
847.31	4408.6	
847.48	2658.9	
847.65	2837.8	
847.82	4421.6	
847.99	4531.5	
848.16	3044	
848.33	2799.6	
848.5	4155.3	
848.67	4698.7	
848.84	2368.8	
849.01	2517	
849.18	4181.3	
849.35	3928.7	
849.52	2878.8	
849.69	2349	
849.86	4544.4	
850.03	4555.4	
850.2	2431.6	
850.37	2803	
850.54	4605.2	
850.71	4187.4	
850.88	2807.8	
851.05	2397.5	
851.22	4345.1	
851.39	4725.3	
851.56	2247.3	
851.73	2656.9	
851.9	4033.8	
852.07	4529.4	
852.24	2668.5	
852.41	2345.6	
852.58	4461.8	
852.75	4077.5	
852.92	2633.7	
853.09	2362.7	
853.26	4048.2	
853.43	4607.9	
853.6	2463.7	
853.77	2127.2	
853.94	4692.6	
854.11	4002.4	
854.28	3306.1	
854.44	2578.4	
854.61	4918.5	
854.78	4594.3	
854.95	2423.4	
855.12	2877.4	
855.29	3794.2	
855.46	4866	
855.63	2405	
855.8	3101.3	
855.97	4191.5	
856.14	4689.8	
856.31	3123.2	
856.48	2564.7	
856.65	4245.4	
856.82	3989.4	
856.99	2369.5	
857.16	2544.9	
857.33	5086.5	
857.49	4245.4	
857.66	2515.6	
857.83	2689.7	
858	4293.9	
858.17	4412	
858.34	2263.7	
858.51	2471.2	
858.68	4745.1	
858.85	4732.9	
859.02	2676	
859.19	2797.5	
859.36	4057	
859.52	3900	
859.69	2425.5	
859.86	2736.8	
860.03	3994.9	
860.2	4728.1	
860.37	2258.2	
860.54	2417.3	
860.71	4489.1	
860.88	4755.4	
861.05	2613.9	
861.21	2932.7	
861.38	4700.1	
861.55	3867.2	
861.72	2239.8	
861.89	2581.8	
862.06	4562.9	
862.23	4799.8	
862.4	2355.8	
862.56	2461	
862.73	4477.5	
862.9	4276.8	
863.07	2646.7	
863.24	2236.4	
863.41	4000.4	
863.58	4072.7	
863.75	2441.2	
863.91	2768.9	
864.08	4610	
864.25	4457.7	
864.42	2847.4	
864.59	3192.1	
864.76	4837.3	
864.93	4044.7	
865.09	2319.7	
865.26	2529.9	
865.43	4706.2	
865.6	4883	
865.77	2164	
865.94	2341.5	
866.1	4643.4	
866.27	4411.3	
866.44	3334.8	
866.61	2315.6	
866.78	4240.7	
866.95	4485.1	
867.11	2394.8	
867.28	2190.6	
867.45	4646.8	
867.62	4014	
867.79	2639.1	
867.96	2374.3	
868.12	3945.8	
868.29	4498	
868.46	2376.3	
868.63	2975	
868.8	4561.5	
868.97	4514.4	
869.13	2441.9	
869.3	2454.8	
869.47	4396.3	
869.64	4587.4	
869.81	2355.8	
869.97	2453.5	
870.14	4276.2	
870.31	4709.6	
870.48	2297.8	
870.65	2831.7	
870.81	4253.6	
870.98	4235.9	
871.15	2686.9	
871.32	2444.6	
871.48	4405.2	
871.65	4777.9	
871.82	2347	
871.99	2594.8	
872.16	5036	
872.32	4654.4	
872.49	2450.1	
872.66	2422.1	
872.83	4588.1	
872.99	4097.3	
873.16	2622.8	
873.33	2386.6	
873.5	4293.9	
873.67	4306.2	
873.83	2539.5	
874	2998.9	
874.17	4403.8	
874.34	4838	
874.5	2906.8	
874.67	2747.7	
874.84	4710.3	
875.01	3857.7	
875.17	3145	
875.34	2368.1	
875.51	4366.3	
875.68	5085.1	
875.84	2746.3	
876.01	3140.2	
876.18	4521.2	
876.34	4452.3	
876.51	2412.5	
876.68	2379.7	
876.85	4169.7	
877.01	4715.8	
877.18	3153.2	
877.35	2349	
877.52	4445.5	
877.68	4018.8	
877.85	2411.8	
878.02	2367.5	
878.18	4027	
878.35	4170.3	
878.52	2038.4	
878.69	2715.6	
878.85	4621.6	
879.02	4443.4	
879.19	3173.7	
879.35	2544.3	
879.52	4539.7	
879.69	4500.8	
879.86	2157.9	
880.02	2600.2	
880.19	4272.7	
880.36	4883.7	
880.52	2633	
880.69	2729.3	
880.86	4570.4	
881.02	4536.9	
881.19	2596.8	
881.36	2526.5	
881.52	4498.7	
881.69	4069.3	
881.86	2580.4	
882.02	2461	
882.19	4606.6	
882.36	5176.6	
882.52	2411.8	
882.69	3157.3	
882.86	4344.4	
883.02	4350.6	
883.19	2725.8	
883.36	2621.4	
883.52	4548.5	
883.69	4956.1	
883.86	2407.7	
884.02	2218	
884.19	4492.6	
884.36	4286.4	
884.52	2625.5	
884.69	2554.5	
884.86	4186	
885.02	4797	
885.19	2598.9	
885.36	2650.1	
885.52	4162.2	
885.69	4404.5	
885.86	3193.5	
886.02	2871.3	
886.19	4530.8	
886.35	4151.9	
886.52	2628.9	
886.69	3065.1	
886.85	3973.1	
887.02	4666.6	
887.19	4666.6	
887.35	4666.6	
887.52	4666.6	
887.68	4666.6	
887.85	4666.6	
888.02	4666.6	
888.18	4666.6	
888.35	4666.6	
888.51	4666.6	
888.68	4666.6	
888.85	4666.6	
889.01	4666.6	
889.18	4666.6	
889.35	4666.6	
889.51	4666.6	
889.68	4666.6	
889.84	4666.6	
890.01	4666.6	
890.17	4666.6	
890.34	4666.6	
890.51	4666.6	
890.67	4666.6	
890.84	4666.6	
891	4666.6	
891.17	4666.6	
891.34	4666.6	
891.5	4666.6	
891.67	4666.6	
891.83	4666.6	
892	4666.6	
892.16	4666.6	
892.33	4666.6	
892.5	4666.6	
892.66	4666.6	
892.83	4666.6	
892.99	4666.6	
893.16	4666.6	
893.32	4666.6	
893.49	4666.6	
893.65	4666.6	
893.82	4666.6	
893.99	4666.6	
894.15	4666.6	
894.32	4666.6	
894.48	4666.6	
894.65	4666.6	
894.81	4666.6	
894.98	4666.6	
895.14	4666.6	
895.31	4666.6	
895.47	4666.6	
895.64	4666.6	
895.81	4666.6	
895.97	4666.6	
896.14	4666.6	
896.3	4666.6	
896.47	4666.6	
896.63	4666.6	
896.8	4666.6	
896.96	4666.6	
897.13	4666.6	
897.29	4666.6	
897.46	4666.6	
897.62	4666.6	
897.79	4666.6	
897.95	4666.6	
898.12	4666.6	
898.28	4666.6	
898.45	4666.6	
898.61	4666.6	
898.78	4666.6	
898.94	4666.6	
899.11	4666.6	
899.27	4666.6	
899.44	4666.6	
899.6	4666.6	
899.77	4666.6	
899.93	4666.6	
900.1	4666.6	
900.26	4666.6	
900.43	4666.6	
900.59	4666.6	
900.76	4666.6	
900.92	4666.6	
901.09	4666.6	
901.25	4666.6	
901.42	4666.6	
901.58	4666.6	
901.75	4666.6	
901.91	4666.6	
902.07	4666.6	
902.24	4666.6	
902.4	4666.6	
902.57	4666.6	
902.73	4666.6	
902.9	4666.6	
903.06	4666.6	
903.23	4666.6	
903.39	4666.6	
903.56	4666.6	
903.72	4666.6	
903.88	4666.6	
904.05	4666.6	
904.21	4666.6	
904.38	4666.6	
904.54	4666.6	
904.71	4666.6	
904.87	4666.6	
905.03	4666.6	
905.2	4666.6	
905.36	4666.6	
905.53	4666.6	
905.69	4666.6	
905.86	4666.6	
906.02	4666.6	
906.18	4666.6	
906.35	4666.6	
906.51	4666.6	
906.68	4666.6	
906.84	4666.6	
907.01	4666.6	
907.17	4666.6	
907.33	4666.6	
907.5	4666.6	
907.66	4666.6	
907.83	4666.6	
907.99	4666.6	
908.15	4666.6	
908.32	4666.6	
908.48	4666.6	
908.65	4666.6	
908.81	4666.6	
908.97	4666.6	
909.14	4666.6	
909.3	4666.6	
909.47	4666.6	
909.63	4666.6	
909.79	4666.6	
909.96	4666.6	
910.12	4666.6	
910.28	4666.6	
910.45	4666.6	
910.61	4666.6	
910.78	4666.6	
910.94	4666.6	
911.1	4666.6	
911.27	4666.6	
911.43	4666.6	
911.59	4666.6	
911.76	4666.6	
911.92	4666.6	
912.08	4666.6	
912.25	4666.6	
912.41	4666.6	
912.57	4666.6	
912.74	4666.6	
912.9	4666.6	
913.07	4666.6	
913.23	4666.6	
913.39	4666.6	
913.56	4666.6	
913.72	4666.6	
913.88	4666.6	
914.05	4666.6	
914.21	4666.6	
914.37	4666.6	
914.54	4666.6	
914.7	4666.6	
914.86	4666.6	
915.03	4666.6	
915.19	4666.6	
