Wavelength	Intensities	
nm	a.u.	
179.22	1768.8	
179.44	1768.1	
179.65	1769.4	
179.86	1766.7	
180.08	1756.5	
180.29	4216.8	
180.51	3147.7	
180.72	5205.9	
180.94	5939.8	
181.15	2909.5	
181.37	2852.8	
181.58	5027.8	
181.79	5262.6	
182.01	3001	
182.22	3225.6	
182.44	5290.6	
182.65	4504.2	
182.87	3973.7	
183.08	3551.9	
183.29	5542.5	
183.51	4528.7	
183.72	3177.1	
183.94	4471.4	
184.15	4965.6	
184.37	4923.3	
184.58	2852.1	
184.79	3815.4	
185.01	4628.4	
185.22	5294.7	
185.44	3970.3	
185.65	3381.9	
185.86	4877.6	
186.08	4508.3	
186.29	2746.3	
186.51	3003.7	
186.72	4621.6	
186.94	5396.4	
187.15	3408.5	
187.36	3558	
187.58	6762.4	
187.79	5031.9	
188.01	3597.6	
188.22	5545.9	
188.43	5900.9	
188.65	5176.6	
188.86	3043.3	
189.08	3542.3	
189.29	4824.3	
189.5	4773.1	
189.72	3250.8	
189.93	3287.7	
190.15	5452.4	
190.36	6298.2	
190.57	3618.1	
190.79	3462.4	
191	5457.2	
191.22	5425.8	
191.43	3565.5	
191.64	3013.9	
191.86	5541.1	
192.07	5397.8	
192.29	3083.6	
192.5	3191.4	
192.71	5386.2	
192.93	4737	
193.14	3269.9	
193.35	3306.8	
193.57	4751.3	
193.78	5386.8	
194	2650.1	
194.21	3174.4	
194.42	4540.3	
194.64	4932.9	
194.85	3478.8	
195.07	4113	
195.28	4975.9	
195.49	4295.3	
195.71	4257	
195.92	3056.9	
196.13	5115.8	
196.35	5199.1	
196.56	4496.7	
196.78	3506.8	
196.99	6341.9	
197.2	5866.1	
197.42	3887	
197.63	3519.8	
197.84	4514.4	
198.06	5064.6	
198.27	3242.6	
198.48	4248.9	
198.7	4792.9	
198.91	4930.8	
199.13	3488.4	
199.34	3489.7	
199.55	5388.9	
199.77	4351.9	
199.98	3153.9	
200.19	3556	
200.41	4843.4	
200.62	4595.6	
200.83	3695.2	
201.05	3894.6	
201.26	4924	
201.47	4650.3	
201.69	3143.6	
201.9	3096.5	
202.11	4954.7	
202.33	5730.2	
202.54	3383.9	
202.76	3688.4	
202.97	5017.5	
203.18	5059.8	
203.4	3676.8	
203.61	3618.8	
203.82	5059.2	
204.04	4669.4	
204.25	3566.9	
204.46	3455.6	
204.68	4942.4	
204.89	5156.8	
205.1	3504.8	
205.32	3034.4	
205.53	5260.5	
205.74	5419.6	
205.96	2590	
206.17	3624.9	
206.38	5253.7	
206.6	5385.5	
206.81	4083	
207.02	3338.9	
207.24	5172.5	
207.45	5485.8	
207.66	3405.8	
207.88	2916.3	
208.09	5145.2	
208.3	4999.8	
208.52	3148.4	
208.73	3465.8	
208.94	4919.2	
209.15	5480.4	
209.37	3377.1	
209.58	3801.7	
209.79	5373.2	
210.01	4773.8	
210.22	2789.3	
210.43	2930	
210.65	4924.7	
210.86	5224.4	
211.07	3357.3	
211.29	3096.5	
211.5	5199.8	
211.71	4884.4	
211.93	3145.7	
212.14	3136.1	
212.35	4904.2	
212.56	5074.9	
212.78	3537.5	
212.99	2962.7	
213.2	5689.9	
213.42	4767.7	
213.63	3213.9	
213.84	3464.5	
214.06	4459.8	
214.27	4505.5	
214.48	3339.6	
214.69	3622.2	
214.91	5504.9	
215.12	5614.2	
215.33	3589.4	
215.55	3919.8	
215.76	6035.4	
215.97	5213.4	
216.18	3544.4	
216.4	3414.6	
216.61	4711	
216.82	5378	
217.04	3208.5	
217.25	3282.9	
217.46	5485.1	
217.67	5270.1	
217.89	2824.8	
218.1	2919.7	
218.31	4998.4	
218.53	5145.2	
218.74	3254.2	
218.95	3202.3	
219.16	4944.5	
219.38	5719.3	
219.59	3225.6	
219.8	3708.2	
220.01	6158.2	
220.23	4992.9	
220.44	4118.5	
220.65	3120.4	
220.87	4992.3	
221.08	5420.3	
221.29	2897.2	
221.5	3891.1	
221.72	6500.3	
221.93	4655.7	
222.14	3586	
222.35	4177.9	
222.57	4958.8	
222.78	5295.4	
222.99	3383.9	
223.2	3601	
223.42	5199.1	
223.63	5238	
223.84	2631	
224.05	2676	
224.27	6139.8	
224.48	5683.1	
224.69	4174.4	
224.9	3534.8	
225.12	5140.4	
225.33	4916.5	
225.54	2823.5	
225.75	3187.3	
225.97	4591.5	
226.18	4877.6	
226.39	3390.8	
226.6	3213.3	
226.82	4754.7	
227.03	4608.6	
227.24	3528	
227.45	2947.7	
227.67	5272.8	
227.88	5681.7	
228.09	3917.8	
228.3	3963.5	
228.52	5279.7	
228.73	4917.2	
228.94	3248.1	
229.15	2941.6	
229.36	4924.7	
229.58	4846.9	
229.79	3347.1	
230	3808.5	
230.21	5825.8	
230.43	5076.2	
230.64	3553.9	
230.85	3646.1	
231.06	5354.1	
231.28	5298.8	
231.49	2960.7	
231.7	3465.8	
231.91	5233.9	
232.12	4975.2	
232.34	3076.7	
232.55	3452.9	
232.76	5445.5	
232.97	5080.3	
233.18	3134.1	
233.4	3528.7	
233.61	5099.4	
233.82	4734.9	
234.03	3293.1	
234.25	3196.9	
234.46	6645.7	
234.67	4980.7	
234.88	3568.2	
235.09	3164.1	
235.31	5111.7	
235.52	4870.8	
235.73	3543	
235.94	3015.3	
236.15	4766.3	
236.37	5886.5	
236.58	3108.8	
236.79	3416	
237	5206.6	
237.21	4520.5	
237.43	3614.7	
237.64	2869.2	
237.85	8413.7	
238.06	4582.7	
238.27	3680.2	
238.48	2986.6	
238.7	5193.6	
238.91	4807.3	
239.12	3336.1	
239.33	3431.7	
239.54	4634.6	
239.76	4848.2	
239.97	3338.2	
240.18	3379.8	
240.39	5958.2	
240.6	5124.7	
240.82	3572.3	
241.03	2960	
241.24	4965.6	
241.45	5653.8	
241.66	3084.2	
241.87	3654.3	
242.09	5578.7	
242.3	5879.7	
242.51	3672	
242.72	3345	
242.93	5339.1	
243.14	4881	
243.36	3942.3	
243.57	4184	
243.78	5625.1	
243.99	5246.9	
244.2	3361.4	
244.41	3144.3	
244.63	4542.4	
244.84	5176.6	
245.05	3579.8	
245.26	3398.9	
245.47	5158.2	
245.68	5393.7	
245.9	4417.5	
246.11	3629.7	
246.32	4720.6	
246.53	5129.5	
246.74	5406.6	
246.95	2940.2	
247.16	4552.6	
247.38	4940.4	
247.59	2936.8	
247.8	3356.6	
248.01	4659.1	
248.22	4894	
248.43	3124.5	
248.64	3320.4	
248.86	4471.4	
249.07	4762.9	
249.28	3024.2	
249.49	3477.5	
249.7	5412.1	
249.91	5497.4	
250.12	2861.7	
250.34	2951.1	
250.55	5074.2	
250.76	4972.5	
250.97	3473.4	
251.18	3559.4	
251.39	5504.9	
251.6	5075.5	
251.81	3526.6	
252.03	3524.6	
252.24	4756.7	
252.45	5377.3	
252.66	2995.5	
252.87	3717.7	
253.08	4975.9	
253.29	6325.5	
253.5	2984.6	
253.72	4140.3	
253.93	4873.5	
254.14	5784.1	
254.35	3292.5	
254.56	3354.6	
254.77	5150	
254.98	4631.8	
255.19	3241.3	
255.41	4007.9	
255.62	5079	
255.83	5461.2	
256.04	3600.3	
256.25	3493.8	
256.46	5980.8	
256.67	4696	
256.88	3485.6	
257.09	3846.8	
257.31	4631.1	
257.52	4682.3	
257.73	4377.2	
257.94	3222.1	
258.15	4874.8	
258.36	4991.6	
258.57	4003.1	
258.78	2658.3	
258.99	5324	
259.2	4745.1	
259.41	3265.1	
259.63	3355.9	
259.84	5636	
260.05	5978	
260.26	4214	
260.47	3158.7	
260.68	5408.7	
260.89	4836.6	
261.1	3890.5	
261.31	3106.1	
261.52	5489.2	
261.73	5635.3	
261.95	4149.2	
262.16	3626.3	
262.37	5512.4	
262.58	5593	
262.79	4143.7	
263	3276.1	
263.21	4917.2	
263.42	4816.1	
263.63	3321.1	
263.84	3306.1	
264.05	5457.2	
264.26	5688.6	
264.47	4040.6	
264.69	3626.3	
264.9	5580.7	
265.11	5110.4	
265.32	3214.6	
265.53	3213.3	
265.74	5020.3	
265.95	4457.1	
266.16	3474.7	
266.37	3769.6	
266.58	5089.2	
266.79	4786.8	
267	3216	
267.21	3035.8	
267.42	4611.3	
267.63	4955.4	
267.84	3361.4	
268.06	2947	
268.27	5364.3	
268.48	5524.7	
268.69	3294.5	
268.9	3878.2	
269.11	5545.9	
269.32	4513	
269.53	3383.2	
269.74	3169.6	
269.95	5244.8	
270.16	4439.3	
270.37	3381.9	
270.58	3878.2	
270.79	4831.2	
271	5384.8	
271.21	3579.8	
271.42	3435.1	
271.63	5117.2	
271.84	4610	
272.05	2751.8	
272.26	3063.8	
272.47	4960.2	
272.68	5132.2	
272.89	3300.6	
273.11	3705.5	
273.32	4764.3	
273.53	5655.1	
273.74	3635.8	
273.95	3561.4	
274.16	5388.2	
274.37	4981.3	
274.58	3722.5	
274.79	3059	
275	5092.6	
275.21	5454.4	
275.42	4437.9	
275.63	3801.7	
275.84	5212.8	
276.05	6356.9	
276.26	3579.8	
276.47	3404.4	
276.68	4859.8	
276.89	5766.4	
277.1	3833.8	
277.31	3024.2	
277.52	5152	
277.73	5375.2	
277.94	2951.1	
278.15	3340.9	
278.36	5137.7	
278.57	4661.2	
278.78	3244	
278.99	3699.3	
279.2	4700.1	
279.41	4612	
279.62	4271.4	
279.83	3058.3	
280.04	5930.2	
280.25	4646.2	
280.46	4220.9	
280.67	3426.9	
280.88	4655	
281.09	5474.2	
281.3	3605.8	
281.51	4421.6	
281.72	4700.1	
281.93	5363.6	
282.14	3173.7	
282.35	3482.9	
282.56	5405.3	
282.77	5323.4	
282.98	3308.2	
283.19	4027.7	
283.4	6509.8	
283.61	4920.6	
283.82	3046.7	
284.03	4126.7	
284.24	5126.1	
284.45	5447.6	
284.66	4218.8	
284.87	3982.6	
285.08	5398.4	
285.29	5591	
285.5	2965.5	
285.71	3318.4	
285.92	5436.7	
286.12	5995.8	
286.33	4122.6	
286.54	3372.3	
286.75	5388.9	
286.96	4850.3	
287.17	3097.2	
287.38	4020.2	
287.59	4703.5	
287.8	4672.1	
288.01	3266.5	
288.22	3819.5	
288.43	5324.7	
288.64	4506.2	
288.85	3868.6	
289.06	3723.2	
289.27	5333.6	
289.48	5669.5	
289.69	4194.2	
289.9	3797.6	
290.11	5514.5	
290.32	4759.5	
290.53	3921.2	
290.74	3698.6	
290.94	5370.5	
291.15	5331.5	
291.36	3250.1	
291.57	3790.1	
291.78	4789.5	
291.99	4453	
292.2	3113.6	
292.41	3669.3	
292.62	5391.6	
292.83	5262.6	
293.04	4514.4	
293.25	3078.8	
293.46	4792.2	
293.67	5408	
293.88	3269.9	
294.09	3071.3	
294.29	4602.5	
294.5	5033.2	
294.71	3485	
294.92	3296.5	
295.13	4766.3	
295.34	5887.2	
295.55	2906.1	
295.76	2911.5	
295.97	5259.2	
296.18	5905.7	
296.39	3058.3	
296.6	3261.7	
296.81	4991.6	
297.01	5319.3	
297.22	3326.6	
297.43	3229.6	
297.64	4725.3	
297.85	4656.4	
298.06	2688.3	
298.27	2917.7	
298.48	5014.1	
298.69	4744.5	
298.9	3441.3	
299.11	3225.6	
299.31	4548.5	
299.52	4554	
299.73	3700	
299.94	3588.7	
300.15	4955.4	
300.36	4625.7	
300.57	3666.5	
300.78	3661.1	
300.99	4827.7	
301.2	5042.1	
301.4	3189.4	
301.61	3452.9	
301.82	5264.6	
302.03	5322	
302.24	3909.6	
302.45	3047.4	
302.66	5227.1	
302.87	5480.4	
303.08	3213.3	
303.29	4280.9	
303.49	4775.9	
303.7	4925.4	
303.91	2920.4	
304.12	4098	
304.33	4569.7	
304.54	5094.7	
304.75	3229	
304.96	3105.4	
305.16	5207.3	
305.37	5812.1	
305.58	2835.8	
305.79	2926.5	
306	5261.2	
306.21	4456.4	
306.42	3215.3	
306.63	4762.9	
306.83	4820.2	
307.04	5362.9	
307.25	3530.7	
307.46	3506.1	
307.67	4330.8	
307.88	5325.4	
308.09	3216	
308.29	3312.9	
308.5	4986.1	
308.71	5397.1	
308.92	3466.5	
309.13	3087	
309.34	4886.5	
309.55	4892.6	
309.75	3928.7	
309.96	3641.3	
310.17	5315.2	
310.38	4675.5	
310.59	3805.1	
310.8	3007.8	
311.01	4799.8	
311.21	4919.9	
311.42	3112.9	
311.63	3152.5	
311.84	4740.4	
312.05	5040.1	
312.26	3547.1	
312.46	3872.7	
312.67	4809.3	
312.88	4552.6	
313.09	3097.2	
313.3	3026.2	
313.51	5608	
313.71	5909.1	
313.92	3105.4	
314.13	3300	
314.34	5155.4	
314.55	4927.4	
314.76	3876.8	
314.96	3457.7	
315.17	5072.8	
315.38	5250.3	
315.59	3145	
315.8	3011.2	
316.01	5651.7	
316.21	5771.2	
316.42	3024.8	
316.63	3430.3	
316.84	4849.6	
317.05	5502.9	
317.26	3685	
317.46	3315	
317.67	4913.8	
317.88	5254.4	
318.09	3910.9	
318.3	2919	
318.5	4784.7	
318.71	5141.1	
318.92	4849.6	
319.13	3642	
319.34	5387.5	
319.54	5489.9	
319.75	2966.8	
319.96	2764.8	
320.17	5231.9	
320.38	5444.2	
320.58	2893.8	
320.79	3407.1	
321	5451	
321.21	5544.5	
321.42	3470.6	
321.62	2828.2	
321.83	4637.3	
322.04	4926.7	
322.25	3323.2	
322.46	3168.9	
322.66	5085.1	
322.87	5160.9	
323.08	3806.5	
323.29	3093.1	
323.5	5861.3	
323.7	4554.7	
323.91	4134.8	
324.12	3747.1	
324.33	5031.9	
324.53	5202.5	
324.74	3606.5	
324.95	3753.2	
325.16	4511.7	
325.37	4831.2	
325.57	3102.7	
325.78	3184.6	
325.99	5043.5	
326.2	4519.2	
326.4	4318.5	
326.61	2913.6	
326.82	4929.5	
327.03	5065.3	
327.24	4302.8	
327.44	4057	
327.65	5166.3	
327.86	4315.8	
328.07	3685.7	
328.27	2994.8	
328.48	5494	
328.69	4607.2	
328.9	4454.3	
329.1	3319.8	
329.31	4899.4	
329.52	5636.7	
329.73	3088.3	
329.93	3452.9	
330.14	4956.1	
330.35	5145.2	
330.56	5018.2	
330.76	3766.2	
330.97	4804.5	
331.18	5169.8	
331.39	3499.3	
331.59	2818	
331.8	5416.9	
332.01	5538.4	
332.22	3211.9	
332.42	3599	
332.63	5088.5	
332.84	4685.1	
333.05	3512.9	
333.25	3178.4	
333.46	4730.1	
333.67	4936.3	
333.88	3278.1	
334.08	3581.2	
334.29	6424.5	
334.5	5478.3	
334.7	3069.2	
334.91	4341.7	
335.12	4594.3	
335.33	5220.3	
335.53	3492.5	
335.74	4949.9	
335.95	4820.9	
336.16	4615.4	
336.36	3394.8	
336.57	3899.3	
336.78	4616.8	
336.98	5380.7	
337.19	4119.1	
337.4	3358	
337.61	5925.5	
337.81	4559.5	
338.02	3212.6	
338.23	3994.9	
338.43	5656.5	
338.64	4679.6	
338.85	3140.2	
339.05	4094.6	
339.26	5733.6	
339.47	4512.4	
339.68	3109.5	
339.88	4569	
340.09	5240.8	
340.3	5357.5	
340.5	3621.5	
340.71	2854.2	
340.92	4610	
341.13	5511.1	
341.33	3032.4	
341.54	3636.5	
341.75	5170.4	
341.95	4826.4	
342.16	3514.3	
342.37	3741	
342.57	4539.7	
342.78	4913.8	
342.99	3844.7	
343.19	2817.3	
343.4	5253.7	
343.61	5145.9	
343.81	3348.4	
344.02	3054.9	
344.23	5280.3	
344.43	5599.8	
344.64	3845.4	
344.85	3764.2	
345.06	5152.7	
345.26	5417.6	
345.47	3567.6	
345.68	4173.8	
345.88	4492.6	
346.09	5360.9	
346.3	3651.5	
346.5	2756.6	
346.71	4913.8	
346.92	4689.2	
347.12	2948.4	
347.33	3554.6	
347.54	5413.5	
347.74	5688.6	
347.95	3560.1	
348.16	2734	
348.36	4785.4	
348.57	4602.5	
348.78	3562.8	
348.98	3734.1	
349.19	4934.9	
349.39	4503.5	
349.6	2937.5	
349.81	3217.4	
350.01	5152	
350.22	4719.9	
350.43	3447.4	
350.63	4111	
350.84	4968.4	
351.05	4755.4	
351.25	3141.6	
351.46	2874.7	
351.67	5393	
351.87	4653	
352.08	3379.1	
352.29	3852.2	
352.49	5287.2	
352.7	5085.8	
352.9	3013.9	
353.11	3762.1	
353.32	5841.5	
353.52	4802.5	
353.73	2981.8	
353.94	3829	
354.14	5168.4	
354.35	5055.1	
354.55	3115.6	
354.76	3430.3	
354.97	5148.6	
355.17	4931.5	
355.38	2963.4	
355.59	4036.5	
355.79	4704.9	
356	4989.5	
356.2	3386.7	
356.41	3031	
356.62	4495.3	
356.82	4861.2	
357.03	3717.7	
357.24	3312.9	
357.44	4753.3	
357.65	4790.2	
357.85	4308.9	
358.06	3450.1	
358.27	4468.7	
358.47	4640.7	
358.68	2912.2	
358.88	3655.6	
359.09	5132.2	
359.3	5402.5	
359.5	4202.4	
359.71	3687	
359.91	5715.2	
360.12	5218.2	
360.33	3610.6	
360.53	3988.8	
360.74	4739	
360.94	4744.5	
361.15	3779.9	
361.36	3095.8	
361.56	5368.4	
361.77	4867.3	
361.97	4128	
362.18	3354.6	
362.38	5315.2	
362.59	4566.3	
362.8	3100.6	
363	2962.7	
363.21	4412	
363.41	4924	
363.62	3535.5	
363.83	4358.8	
364.03	5111	
364.24	5845.6	
364.44	4440.7	
364.65	4326.7	
364.85	4823.6	
365.06	4539	
365.27	3187.3	
365.47	3288.4	
365.68	5638.7	
365.88	4771.8	
366.09	3529.3	
366.29	3267.9	
366.5	4994.3	
366.71	5338.4	
366.91	4338.3	
367.12	3710.2	
367.32	5811.5	
367.53	5275.6	
367.73	3648.8	
367.94	4452.3	
368.14	5212.8	
368.35	5838.8	
368.56	3639.9	
368.76	3136.8	
368.97	5407.3	
369.17	6613.6	
369.38	3185.3	
369.58	3456.3	
369.79	4496	
369.99	5600.5	
370.2	4292.5	
370.4	3560.7	
370.61	5079.6	
370.82	6083.8	
371.02	3507.5	
371.23	2920.4	
371.43	4498	
371.64	5542.5	
371.84	3515.7	
372.05	4375.8	
372.25	6555.5	
372.46	5179.3	
372.66	3461.7	
372.87	3422.2	
373.07	5255.8	
373.28	6600.6	
373.48	4205.8	
373.69	3962.1	
373.9	4857.8	
374.1	4883	
374.31	4222.2	
374.51	3779.2	
374.72	5593.7	
374.92	4692.6	
375.13	4336.2	
375.33	3666.5	
375.54	5218.2	
375.74	4771.1	
375.95	3760.1	
376.15	4678.9	
376.36	5193	
376.56	5039.4	
376.77	3761.4	
376.97	4125.3	
377.18	6016.9	
377.38	5273.5	
377.59	4369	
377.79	3405.8	
378	5033.9	
378.2	5333.6	
378.41	3390.8	
378.61	3327.9	
378.82	5442.8	
379.02	4810.7	
379.23	3559.4	
379.43	4351.3	
379.64	5599.1	
379.84	5203.2	
380.05	3413.3	
380.25	3327.3	
380.46	5287.2	
380.66	4903.5	
380.87	4461.2	
381.07	4788.8	
381.28	5819.6	
381.48	5315.8	
381.69	3384.6	
381.89	3467.2	
382.1	4497.3	
382.3	5401.9	
382.51	4339.6	
382.71	5051	
382.91	5287.9	
383.12	5709.7	
383.32	3709.6	
383.53	3892.5	
383.73	5209.3	
383.94	5034.6	
384.14	3875.4	
384.35	3127.2	
384.55	4909.7	
384.76	5285.1	
384.96	3682.9	
385.17	3958	
385.37	5374.6	
385.58	4728.1	
385.78	4021.5	
385.98	3078.8	
386.19	4889.2	
386.39	5212.1	
386.6	3485	
386.8	3725.3	
387.01	5304.2	
387.21	5413.5	
387.42	4050.2	
387.62	4561.5	
387.83	4786.8	
388.03	5193.6	
388.23	3738.2	
388.44	4409.3	
388.64	4560.1	
388.85	4602.5	
389.05	4016.7	
389.26	4480.3	
389.46	6151.4	
389.67	5655.8	
389.87	3917.8	
390.07	4046.8	
390.28	5017.5	
390.48	4669.4	
390.69	3436.5	
390.89	3629	
391.1	4807.3	
391.3	5537.7	
391.5	4659.8	
391.71	5055.1	
391.91	5342.5	
392.12	6208.1	
392.32	4674.8	
392.53	4010.6	
392.73	4894	
392.93	5034.6	
393.14	3775.8	
393.34	4407.9	
393.55	5336.3	
393.75	5030.5	
393.95	3787.4	
394.16	3695.2	
394.36	4881	
394.57	5338.4	
394.77	3417.4	
394.98	3697.3	
395.18	4744.5	
395.38	4944.5	
395.59	4429.8	
395.79	3553.2	
396	4929.5	
396.2	5228.5	
396.4	4163.5	
396.61	4180.6	
396.81	5341.8	
397.02	4842.1	
397.22	4379.2	
397.42	4402.5	
397.63	5431.2	
397.83	4727.4	
398.04	3496.6	
398.24	3922.5	
398.44	5197.7	
398.65	4456.4	
398.85	3408.5	
399.05	3467.2	
399.26	4801.1	
399.46	6146.6	
399.67	3713.6	
399.87	3520.5	
400.07	5096.7	
400.28	5289.9	
400.48	3611.9	
400.69	4360.1	
400.89	5423	
401.09	5858.6	
401.3	3450.1	
401.5	4467.3	
401.7	6010.1	
401.91	6270.2	
402.11	3778.5	
402.32	4005.8	
402.52	5516.5	
402.72	5468.1	
402.93	4173.8	
403.13	3293.8	
403.33	6169.2	
403.54	5173.2	
403.74	3984.7	
403.94	4626.4	
404.15	5244.8	
404.35	6077.7	
404.56	3723.9	
404.76	5197.7	
404.96	5502.9	
405.17	5351.3	
405.37	4694.6	
405.57	4167.6	
405.78	5511.1	
405.98	5149.3	
406.18	3777.1	
406.39	4502.1	
406.59	5547.9	
406.79	5242.1	
407	3567.6	
407.2	3653.6	
407.4	5547.9	
407.61	5702.9	
407.81	3704.8	
408.01	5158.2	
408.22	4577.2	
408.42	6157.6	
408.62	4472.1	
408.83	3975.1	
409.03	5160.2	
409.23	5025	
409.44	4093.9	
409.64	4357.4	
409.84	5840.8	
410.05	5796.4	
410.25	4240.7	
410.45	4049.5	
410.66	5343.8	
410.86	7432.8	
411.06	4362.9	
411.27	4199	
411.47	7124.9	
411.67	5501.5	
411.88	4440.7	
412.08	4587.4	
412.28	5991	
412.49	6473.6	
412.69	4237.9	
412.89	4252.9	
413.09	6277.7	
413.3	6130.3	
413.5	4301.4	
413.7	4018.8	
413.91	5556.1	
414.11	6290.7	
414.31	4129.4	
414.52	4489.8	
414.72	5988.9	
414.92	5923.4	
415.12	4128	
415.33	4589.5	
415.53	6135	
415.73	6346.7	
415.94	4866.7	
416.14	4396.3	
416.34	5481	
416.55	5187.5	
416.75	5401.9	
416.95	4930.8	
417.15	6204.7	
417.36	6761.7	
417.56	5543.9	
417.76	4713.1	
417.97	6522.8	
418.17	6173.9	
418.37	4448.9	
418.57	4476.9	
418.78	6094.1	
418.98	5873.6	
419.18	5113.1	
419.38	5124	
419.59	5814.9	
419.79	5567.7	
419.99	4423.6	
420.2	4716.5	
420.4	6248.4	
420.6	6384.9	
420.8	4306.9	
421.01	4168.3	
421.21	6036.7	
421.41	6226.5	
421.61	4620.9	
421.82	4389.5	
422.02	5700.2	
422.22	6470.2	
422.42	4924	
422.63	4765.6	
422.83	5791	
423.03	6777.4	
423.23	4818.9	
423.44	3932.8	
423.64	5866.1	
423.84	5634.6	
424.04	4293.9	
424.25	4025.6	
424.45	6552.8	
424.65	6586.3	
424.85	3876.1	
425.06	4339	
425.26	6653.9	
425.46	5702.9	
425.66	4768.4	
425.87	4523.3	
426.07	6362.4	
426.27	6286.6	
426.47	4622.3	
426.67	4087.1	
426.88	6698.2	
427.08	6253.1	
427.28	4775.2	
427.48	4131.4	
427.69	5413.5	
427.89	5880.4	
428.09	4785.4	
428.29	4085.7	
428.5	6388.3	
428.7	6072.9	
428.9	3941.7	
429.1	4452.3	
429.3	6036.7	
429.51	6306.4	
429.71	4302.8	
429.91	4887.8	
430.11	6300.2	
430.31	6406	
430.52	4560.1	
430.72	4743.1	
430.92	6653.9	
431.12	6247	
431.32	4212	
431.53	4592.2	
431.73	5359.5	
431.93	6739.9	
432.13	4160.8	
432.33	4080.2	
432.54	5743.9	
432.74	6047.7	
432.94	4067.9	
433.14	4885.1	
433.34	6311.2	
433.55	5872.2	
433.75	4777.9	
433.95	6253.8	
434.15	6031.3	
434.35	5804.6	
434.56	4209.9	
434.76	3828.3	
434.96	6008.7	
435.16	6256.5	
435.36	4086.4	
435.56	4976.6	
435.77	5675.6	
435.97	5829.2	
436.17	5515.9	
436.37	4937	
436.57	5660.6	
436.78	5624.4	
436.98	4961.5	
437.18	5492	
437.38	6193.7	
437.58	5868.8	
437.78	5577.3	
437.99	4463.9	
438.19	6326.9	
438.39	6955.6	
438.59	4474.8	
438.79	3949.8	
438.99	6828.6	
439.2	5858.6	
439.4	4095.9	
439.6	3973.1	
439.8	5996.5	
440	6888	
440.2	4870.8	
440.4	4943.8	
440.61	6439.5	
440.81	6905.8	
441.01	4302.1	
441.21	4965.6	
441.41	6741.9	
441.61	6344.6	
441.81	5099.4	
442.02	5978	
442.22	7127.6	
442.42	6528.2	
442.62	4259.1	
442.82	4369.7	
443.02	6748.7	
443.22	6001.9	
443.43	4681.7	
443.63	4261.1	
443.83	5817.6	
444.03	5810.1	
444.23	5238.7	
444.43	4898.1	
444.63	6157.6	
444.83	7098.9	
445.04	4301.4	
445.24	5367	
445.44	6491.4	
445.64	6492.7	
445.84	5032.5	
446.04	5092.6	
446.24	5929.6	
446.44	6782.2	
446.65	4367	
446.85	4676.2	
447.05	6073.6	
447.25	6672.3	
447.45	4830.5	
447.65	4285.7	
447.85	6222.4	
448.05	5915.2	
448.25	5153.4	
448.46	4964.3	
448.66	6200.6	
448.86	5933	
449.06	4145.1	
449.26	5041.4	
449.46	6462	
449.66	5759.6	
449.86	4632.5	
450.06	4663.2	
450.26	5833.3	
450.47	6270.9	
450.67	4870.8	
450.87	5180.7	
451.07	6462.7	
451.27	6217	
451.47	4360.8	
451.67	4783.4	
451.87	5991.7	
452.07	6870.9	
452.27	4523.3	
452.47	4502.1	
452.67	6269.5	
452.88	6569.2	
453.08	4080.9	
453.28	5622.4	
453.48	7235.5	
453.68	6172.6	
453.88	4457.7	
454.08	4634.6	
454.28	6531.7	
454.48	6203.3	
454.68	5081	
454.88	5457.8	
455.08	6571.2	
455.28	6362.4	
455.48	4340.3	
455.68	4844.8	
455.89	7019.1	
456.09	6638.1	
456.29	4583.4	
456.49	4698.7	
456.69	6873	
456.89	6239.5	
457.09	5031.9	
457.29	5333.6	
457.49	6488	
457.69	6606.7	
457.89	4924.7	
458.09	4354	
458.29	6270.9	
458.49	6833.4	
458.69	5234.6	
458.89	4748.6	
459.09	7043	
459.29	7152.9	
459.49	4892.6	
459.69	5472.2	
459.9	6697.5	
460.1	6361.7	
460.3	4777.9	
460.5	4513	
460.7	6696.2	
460.9	6381.5	
461.1	4372.4	
461.3	5321.3	
461.5	7228.6	
461.7	6917.4	
461.9	4678.2	
462.1	5027.8	
462.3	6522.1	
462.5	6933.1	
462.7	4768.4	
462.9	4734.2	
463.1	7813.7	
463.3	7400	
463.5	4935.6	
463.7	5678.3	
463.9	6631.3	
464.1	6918.7	
464.3	5039.4	
464.5	5225.7	
464.7	7073.7	
464.9	6869.6	
465.1	6318	
465.3	5525.4	
465.5	7431.4	
465.7	7333.8	
465.9	5727.5	
466.1	5525.4	
466.3	7183.6	
466.5	7120.1	
466.7	6264.1	
466.9	5328.1	
467.1	7103.7	
467.3	7828	
467.5	6270.9	
467.7	5337.7	
467.9	8047.8	
468.1	8724.3	
468.3	5961	
468.5	6261.3	
468.7	7027.3	
468.9	6986.3	
469.1	5584.8	
469.3	6114.6	
469.5	8605.6	
469.7	6700.3	
469.9	5918.6	
470.1	5367	
470.3	7019.8	
470.5	7110.5	
470.7	6427.2	
470.9	5384.1	
471.1	6881.2	
471.3	7310.6	
471.5	5287.2	
471.69	6797.2	
471.89	6820.4	
472.09	6356.2	
472.29	5923.4	
472.49	6217.6	
472.69	6609.5	
472.89	7200	
473.09	5173.9	
473.29	5294	
473.49	6711.2	
473.69	6826.6	
473.89	6113.2	
474.09	5492.7	
474.29	7854	
474.49	7633.5	
474.69	6030.6	
474.89	5542.5	
475.09	6898.2	
475.29	6768.5	
475.49	5154.1	
475.69	5326.8	
475.88	8219.9	
476.08	7198.6	
476.28	5083.1	
476.48	5386.8	
476.68	7561.8	
476.88	7409.6	
477.08	5374.6	
477.28	5591.6	
477.48	7032	
477.68	7528.3	
477.88	5183.4	
478.08	5492	
478.28	7671	
478.48	7008.8	
478.67	5498.8	
478.87	4961.5	
479.07	7626	
479.27	7182.9	
479.47	5643.5	
479.67	5709.7	
479.87	7437.5	
480.07	7871	
480.27	5062.6	
480.47	6367.8	
480.67	7135.1	
480.87	7663.5	
481.06	5271.5	
481.26	6029.2	
481.46	7173.4	
481.66	7017.7	
481.86	5771.2	
482.06	6499.6	
482.26	6938.5	
482.46	7761.1	
482.66	5616.2	
482.86	5268.1	
483.05	7234.8	
483.25	6660	
483.45	7621.9	
483.65	5581.4	
483.85	6819.7	
484.05	7098.9	
484.25	5991	
484.45	6383.5	
484.65	7722.2	
484.84	7751.6	
485.04	5599.8	
485.24	5555.5	
485.44	8105.2	
485.64	6712.6	
485.84	5033.2	
486.04	6118	
486.24	6967.9	
486.44	7193.8	
486.63	4932.2	
486.83	5579.3	
487.03	6850.5	
487.23	7012.9	
487.43	5082.4	
487.63	6992.4	
487.83	7075	
488.02	7922.2	
488.22	5806.7	
488.42	6345.3	
488.62	7774.8	
488.82	6900.3	
489.02	5532.2	
489.22	5529.5	
489.41	7714.7	
489.61	7389.8	
489.81	5371.8	
490.01	5379.3	
490.21	7661.5	
490.41	8170.7	
490.61	5358.2	
490.8	5524.1	
491	7293.5	
491.2	6735.1	
491.4	5964.4	
491.6	5209.3	
491.8	7269.6	
491.99	7330.4	
492.19	5195	
492.39	5375.9	
492.59	7595.9	
492.79	7641.7	
492.99	6089.3	
493.18	5366.4	
493.38	7701.7	
493.58	8285.4	
493.78	5880.4	
493.98	5540.4	
494.18	7526.3	
494.37	7077.1	
494.57	6111.1	
494.77	6014.9	
494.97	7673.7	
495.17	7843	
495.37	5656.5	
495.56	5964.4	
495.76	7896.3	
495.96	7643	
496.16	6662.7	
496.36	5811.5	
496.55	7899.7	
496.75	7419.8	
496.95	6195.8	
497.15	6019	
497.35	7804.1	
497.54	7832.8	
497.74	5845.6	
497.94	7296.9	
498.14	8443.8	
498.34	8247.2	
498.53	5524.1	
498.73	6259.3	
498.93	7264.8	
499.13	7864.2	
499.33	6069.5	
499.52	6434	
499.72	7868.3	
499.92	8064.2	
500.12	5809.4	
500.32	6050.4	
500.51	8082.6	
500.71	7772	
500.91	6671.6	
501.11	6359.6	
501.31	7973.4	
501.5	8385.7	
501.7	6868.2	
501.9	5995.8	
502.1	7843	
502.29	8176.2	
502.49	6435.4	
502.69	6850.5	
502.89	7986.4	
503.09	7970.7	
503.28	5670.1	
503.48	5799.2	
503.68	7435.5	
503.88	7332.4	
504.07	6602.7	
504.27	6143.9	
504.47	7735.2	
504.67	7804.1	
504.86	6554.9	
505.06	6253.8	
505.26	7492.2	
505.46	8935.3	
505.65	6201.2	
505.85	6327.5	
506.05	7402	
506.25	7906.5	
506.44	5605.3	
506.64	6427.9	
506.84	7342	
507.04	8105.2	
507.23	5801.2	
507.43	6252.4	
507.63	8942.1	
507.83	7481.9	
508.02	6240.8	
508.22	5997.1	
508.42	9204.3	
508.62	7363.8	
508.81	6156.9	
509.01	6607.4	
509.21	7296.2	
509.4	7562.5	
509.6	6282.5	
509.8	5812.1	
510	7451.9	
510.19	8604.9	
510.39	5799.2	
510.59	5831.2	
510.79	7306.5	
510.98	8416.5	
511.18	5955.5	
511.38	5963.7	
511.57	8036.2	
511.77	7735.9	
511.97	6537.1	
512.17	5888.6	
512.36	7999.4	
512.56	7988.4	
512.76	5774.6	
512.95	5531.6	
513.15	8135.9	
513.35	6935.8	
513.55	6502.3	
513.74	5797.1	
513.94	8032.8	
514.14	7459.4	
514.33	6678.4	
514.53	6436.1	
514.73	7518.8	
514.92	7603.4	
515.12	5847.6	
515.32	5705.6	
515.51	7651.9	
515.71	8043.1	
515.91	7091.4	
516.11	5793	
516.3	9081.4	
516.5	7365.2	
516.7	6337.8	
516.89	6753.5	
517.09	7503.1	
517.29	7501.7	
517.48	6520	
517.68	6087.9	
517.88	7184.3	
518.07	7783	
518.27	6458.6	
518.47	5694.7	
518.66	8206.2	
518.86	7157	
519.06	5532.9	
519.25	5876.3	
519.45	7357	
519.65	8607.6	
519.84	6517.3	
520.04	7014.3	
520.24	8878.6	
520.43	7944.8	
520.63	6255.9	
520.83	6029.2	
521.02	7266.2	
521.22	7909.3	
521.42	6403.3	
521.61	6897.6	
521.81	7467.6	
522.01	7671	
522.2	6307.1	
522.4	6103.6	
522.6	7965.9	
522.79	6947.4	
522.99	6113.9	
523.18	5601.9	
523.38	7819.1	
523.58	7724.9	
523.77	7171.3	
523.97	5621.7	
524.17	9372.9	
524.36	8679.3	
524.56	6718	
524.76	6456.6	
524.95	7802.8	
525.15	7523.6	
525.34	6308.4	
525.54	6329.6	
525.74	8019.2	
525.93	7264.1	
526.13	7231.4	
526.33	6296.8	
526.52	8383	
526.72	7928.4	
526.91	7223.9	
527.11	6584.9	
527.31	8448.6	
527.5	8720.9	
527.7	6560.3	
527.89	5776	
528.09	7511.9	
528.29	7877.9	
528.48	6920.1	
528.68	6569.2	
528.87	8286.8	
529.07	8370.7	
529.27	6602	
529.46	6234.7	
529.66	8099	
529.85	8310.7	
530.05	6102.3	
530.25	6703.7	
530.44	9201.5	
530.64	7977.5	
530.83	6375.3	
531.03	6552.1	
531.23	8341.4	
531.42	8112.7	
531.62	7167.9	
531.81	6516.6	
532.01	8458.1	
532.21	8731.9	
532.4	6290.7	
532.6	6566.5	
532.79	9162.6	
532.99	8438.3	
533.18	6681.2	
533.38	7496.9	
533.58	8073.8	
533.77	8654.7	
533.97	6653.2	
534.16	7221.1	
534.36	8764.6	
534.55	8065.6	
534.75	7458.7	
534.95	6559	
535.14	8834.9	
535.34	8129.1	
535.53	6352.1	
535.73	7959.1	
535.92	9293.7	
536.12	8241.7	
536.31	6501.6	
536.51	7449.1	
536.71	8514.1	
536.9	8155.7	
537.1	6613.6	
537.29	6763.8	
537.49	8914.1	
537.68	7975.5	
537.88	7049.1	
538.07	6342.6	
538.27	8269	
538.46	9058.8	
538.66	6247	
538.86	6638.8	
539.05	8300.4	
539.25	8615.8	
539.44	7001.3	
539.64	6544.6	
539.83	8137.9	
540.03	9035	
540.22	6418.3	
540.42	6617	
540.61	8460.2	
540.81	8487.5	
541	6970.6	
541.2	7447.8	
541.39	7950.9	
541.59	8267.6	
541.78	7192.5	
541.98	6508.4	
542.18	7770.7	
542.37	7690.8	
542.57	6801.3	
542.76	7217	
542.96	7802.8	
543.15	8338.6	
543.35	6848.4	
543.54	6258.6	
543.74	8585.1	
543.93	8268.3	
544.13	6763.8	
544.32	7649.8	
544.52	8566	
544.71	7932.5	
544.91	5999.2	
545.1	6972.7	
545.3	7876.5	
545.49	8419.9	
545.69	6029.2	
545.88	6503.7	
546.08	9148.3	
546.27	8842.4	
546.47	6855.9	
546.66	6308.4	
546.86	8585.8	
547.05	9043.1	
547.24	6546	
547.44	6399.2	
547.63	7759.8	
547.83	8680	
548.02	6738.5	
548.22	6823.1	
548.41	7626	
548.61	8639	
548.8	6346.7	
549	6356.2	
549.19	8161.2	
549.39	8488.1	
549.58	6002.6	
549.78	6636.8	
549.97	8425.3	
550.17	8088.8	
550.36	7285.3	
550.55	8127.7	
550.75	8022.6	
550.94	8691.6	
551.14	6283.9	
551.33	6646.3	
551.53	7443.7	
551.72	8240.3	
551.92	6567.2	
552.11	6367.1	
552.31	8320.9	
552.5	8371.4	
552.69	7735.9	
552.89	6143.2	
553.08	8297	
553.28	7996	
553.47	6419.7	
553.67	7305.8	
553.86	8787.8	
554.06	7339.2	
554.25	5796.4	
554.44	6214.9	
554.64	9383.8	
554.83	9039.7	
555.03	6222.4	
555.22	6534.4	
555.42	8402.8	
555.61	8173.4	
555.8	6277	
556	6626.5	
556.19	7472.4	
556.39	8473.8	
556.58	6409.5	
556.78	6468.9	
556.97	8118.1	
557.16	7794.6	
557.36	7430.7	
557.55	6082.5	
557.75	7264.8	
557.94	8781.7	
558.13	6242.2	
558.33	5988.3	
558.52	8639.7	
558.72	7623.9	
558.91	6081.1	
559.1	6281.8	
559.3	7447.8	
559.49	7190.4	
559.69	5795.8	
559.88	6599.9	
560.07	8120.9	
560.27	8477.9	
560.46	6759.7	
560.66	6847	
560.85	8024.6	
561.04	7265.5	
561.24	6021	
561.43	6230.6	
561.63	7449.8	
561.82	7687.4	
562.01	7176.8	
562.21	6447	
562.4	8084.7	
562.59	8890.2	
562.79	6315.3	
562.98	6050.4	
563.18	7992.5	
563.37	9130.5	
563.56	6664.1	
563.76	6049.7	
563.95	7529.7	
564.14	7470.3	
564.34	6369.2	
564.53	6124.1	
564.73	7942	
564.92	8290.9	
565.11	6463.4	
565.31	5956.9	
565.5	8481.3	
565.69	7535.8	
565.89	6168.5	
566.08	6370.5	
566.27	8377.6	
566.47	8678.6	
566.66	6924.2	
566.85	5787.6	
567.05	8041.7	
567.24	7507.2	
567.44	6126.8	
567.63	7260	
567.82	8244.4	
568.02	7958.4	
568.21	6098.2	
568.4	6487.3	
568.6	7895.6	
568.79	7899.7	
568.98	5901.6	
569.18	6107	
569.37	7835.5	
569.56	9570.8	
569.76	6326.2	
569.95	7129	
570.14	8144.1	
570.34	8123.6	
570.53	6055.8	
570.72	6012.2	
570.91	8632.2	
571.11	7916.8	
571.3	6405.4	
571.49	7204.8	
571.69	7901.7	
571.88	7566.6	
572.07	6832	
572.27	6888.7	
572.46	7510.6	
572.65	8412.4	
572.85	6298.9	
573.04	6453.8	
573.23	8572.1	
573.43	7985.7	
573.62	6049	
573.81	6591.7	
574	8011.7	
574.2	7903.8	
574.39	6320	
574.58	6429.9	
574.78	8701.1	
574.97	8072.4	
575.16	6721.4	
575.36	6868.2	
575.55	8443.8	
575.74	8503.8	
575.93	5992.4	
576.13	6898.2	
576.32	7935.2	
576.51	8340.7	
576.71	6379.4	
576.9	7538.6	
577.09	8625.4	
577.28	8256.7	
577.48	6774.7	
577.67	6027.9	
577.86	7879.2	
578.05	8105.9	
578.25	6518	
578.44	6634.1	
578.63	8083.3	
578.83	9070.5	
579.02	6051.1	
579.21	7286.7	
579.4	8267.6	
579.6	7944.1	
579.79	6659.3	
579.98	8452	
580.17	8527.1	
580.37	8551	
580.56	6190.3	
580.75	6827.2	
580.94	8843.1	
581.14	8776.9	
581.33	7161.1	
581.52	6322.8	
581.71	8408.3	
581.91	8891.6	
582.1	6077.7	
582.29	6509.1	
582.48	8016.4	
582.68	8123.6	
582.87	6950.1	
583.06	6655.2	
583.25	8380.3	
583.45	7881.9	
583.64	7150.1	
583.83	7712	
584.02	8088.8	
584.21	8409.6	
584.41	7188.4	
584.6	6580.8	
584.79	8153.6	
584.98	8640.4	
585.18	6182.8	
585.37	6143.9	
585.56	7817.8	
585.75	8406.2	
585.94	6397.2	
586.14	6869.6	
586.33	8869.1	
586.52	8082	
586.71	6849.1	
586.91	6485.9	
587.1	7598.6	
587.29	8445.8	
587.48	6495.5	
587.67	6381.5	
587.87	8411.7	
588.06	8353	
588.25	7418.4	
588.44	6897.6	
588.63	8090.2	
588.83	8413.7	
589.02	6447	
589.21	6382.8	
589.4	7962.5	
589.59	7787.1	
589.78	5775.3	
589.98	6013.5	
590.17	7481.2	
590.36	7886.7	
590.55	5477.6	
590.74	6089.3	
590.94	8959.9	
591.13	7859.4	
591.32	6007.4	
591.51	5544.5	
591.7	8057.4	
591.89	7713.3	
592.09	5640.8	
592.28	6061.3	
592.47	7124.9	
592.66	8662.2	
592.85	5711.8	
593.05	5938.4	
593.24	7612.3	
593.43	8381.7	
593.62	5945.3	
593.81	6367.1	
594	7694.2	
594.19	7800	
594.39	5784.8	
594.58	5777.3	
594.77	7996	
594.96	8388.5	
595.15	5794.4	
595.34	6314.6	
595.54	7912	
595.73	7191.1	
595.92	5367.7	
596.11	6167.1	
596.3	8314.1	
596.49	7318.8	
596.68	6047.7	
596.88	6384.2	
597.07	8114.7	
597.26	7138.5	
597.45	5541.1	
597.64	6559.6	
597.83	7425.9	
598.02	7779.6	
598.22	5643.5	
598.41	6212.9	
598.6	7701	
598.79	7221.1	
598.98	5728.9	
599.17	6461.3	
599.36	7638.2	
599.55	8665.6	
599.74	7428.7	
599.94	7145.4	
600.13	8208.3	
600.32	7240.9	
600.51	5511.1	
600.7	5665.4	
600.89	8613.8	
601.08	8702.5	
601.27	5466	
601.47	6206	
601.66	8028.7	
601.85	8527.1	
602.04	5985.5	
602.23	6207.4	
602.42	7223.2	
602.61	7753.6	
602.8	5926.8	
602.99	5694.7	
603.18	7579.5	
603.37	7743.4	
603.57	6253.8	
603.76	6716.7	
603.95	8405.5	
604.14	7953.6	
604.33	5793.7	
604.52	6095.4	
604.71	7658.7	
604.9	7388.4	
605.09	6585.6	
605.28	6464.8	
605.47	8212.4	
605.66	7912	
605.86	6328.9	
606.05	5864	
606.24	8190.5	
606.43	7022.5	
606.62	6093.4	
606.81	6688	
607	8061.5	
607.19	7489.4	
607.38	5515.2	
607.57	5729.5	
607.76	7314	
607.95	6842.9	
608.14	6166.4	
608.33	6648.4	
608.52	7320.8	
608.72	8034.9	
608.91	5518.6	
609.1	5472.9	
609.29	7396.6	
609.48	7035.5	
609.67	6249.7	
609.86	5510.4	
610.05	7133.1	
610.24	7337.9	
610.43	5427.1	
610.62	5091.9	
610.81	8335.9	
611	8101.1	
611.19	5470.1	
611.38	6103.6	
611.57	7623.9	
611.76	8645.8	
611.95	5292	
612.14	5158.8	
612.33	7436.2	
612.52	7043.6	
612.71	5763.7	
612.9	5119.9	
613.09	6778.1	
613.28	8652.7	
613.47	5715.9	
613.66	6334.4	
613.85	7580.9	
614.04	7075.7	
614.24	5655.8	
614.43	4982.7	
614.62	7641.7	
614.81	7561.1	
615	6089.3	
615.19	6068.1	
615.38	7062.1	
615.57	7314.7	
615.76	5941.8	
615.95	6819.7	
616.14	7740.6	
616.33	7430.7	
616.52	6210.1	
616.71	6333.7	
616.9	7603.4	
617.09	7502.4	
617.28	5681.1	
617.47	6739.2	
617.66	6935.8	
617.85	6957.6	
618.04	6396.5	
618.22	5979.4	
618.41	7185.6	
618.6	7962.5	
618.79	5899.5	
618.98	5625.1	
619.17	8221.2	
619.36	6782.2	
619.55	5758.9	
619.74	5812.8	
619.93	7559.7	
620.12	7095.5	
620.31	6139.1	
620.5	6364.4	
620.69	8049.9	
620.88	8385.1	
621.07	6936.5	
621.26	6159.6	
621.45	7708.6	
621.64	7739.3	
621.83	6338.5	
622.02	5578	
622.21	7809.6	
622.4	7587.7	
622.59	6704.4	
622.78	6565.8	
622.97	7143.3	
623.16	8084.7	
623.35	6290.7	
623.54	5565	
623.72	7402.7	
623.91	7524.9	
624.1	6450.4	
624.29	5348.6	
624.48	8404.2	
624.67	7871	
624.86	6372.6	
625.05	5552.7	
625.24	8523	
625.43	7225.9	
625.62	7734.5	
625.81	5808.7	
626	8056.7	
626.19	7469.6	
626.38	6337.8	
626.56	5933.6	
626.75	7303.7	
626.94	7922.2	
627.13	6455.9	
627.32	5371.1	
627.51	7819.8	
627.7	8826.7	
627.89	5507.7	
628.08	6313.9	
628.27	7212.3	
628.46	7395.2	
628.65	5705	
628.83	5365.7	
629.02	7737.2	
629.21	7246.4	
629.4	6111.1	
629.59	6210.1	
629.78	7195.2	
629.97	7957	
630.16	6251.1	
630.35	5882.4	
630.54	8427.4	
630.72	8158.4	
630.91	5854.5	
631.1	6319.3	
631.29	7643	
631.48	7742.7	
631.67	6352.1	
631.86	5880.4	
632.05	7350.2	
632.24	7378.1	
632.42	5659.2	
632.61	6122.1	
632.8	7455.3	
632.99	7103	
633.18	6053.1	
633.37	6471.6	
633.56	7666.2	
633.75	7514	
633.93	6100.9	
634.12	5902.9	
634.31	8364.6	
634.5	7993.2	
634.69	5870.2	
634.88	6314.6	
635.07	7404.1	
635.25	7950.9	
635.44	6565.1	
635.63	6821.1	
635.82	7361.8	
636.01	6873.7	
636.2	6556.2	
636.39	6141.2	
636.57	8193.9	
636.76	7905.2	
636.95	5724.1	
637.14	6882.5	
637.33	7677.2	
637.52	8432.9	
637.7	5514.5	
637.89	6342.6	
638.08	7363.8	
638.27	8477.2	
638.46	6376	
638.65	6713.9	
638.83	8456.7	
639.02	7174.7	
639.21	6293.4	
639.4	6737.8	
639.59	7595.2	
639.78	7294.9	
639.96	5605.3	
640.15	5736.4	
640.34	7473	
640.53	7605.5	
640.72	5516.5	
640.91	5782.8	
641.09	6965.1	
641.28	8041.7	
641.47	5812.8	
641.66	6399.9	
641.85	7547.4	
642.03	7688.1	
642.22	6294.8	
642.41	5843.5	
642.6	7150.1	
642.79	6625.9	
642.97	5647.6	
643.16	6213.5	
643.35	7090.8	
643.54	6905.1	
643.73	5542.5	
643.91	6171.2	
644.1	6872.3	
644.29	7282.6	
644.48	5608.7	
644.67	5725.4	
644.85	6923.5	
645.04	7243	
645.23	5341.1	
645.42	5573.2	
645.6	6906.4	
645.79	7808.2	
645.98	5570.5	
646.17	4741.7	
646.36	6649.1	
646.54	7120.1	
646.73	6266.8	
646.92	5246.2	
647.11	6855.2	
647.29	7712.7	
647.48	5319.9	
647.67	5134.9	
647.86	7891.5	
648.05	7795.3	
648.23	5504.9	
648.42	6607.4	
648.61	7327.6	
648.8	7203.4	
648.98	5218.2	
649.17	5504.3	
649.36	6822.5	
649.55	6370.5	
649.73	5239.4	
649.92	5885.9	
650.11	6634.1	
650.3	6946.7	
650.48	5326.1	
650.67	5143.8	
650.86	7154.2	
651.05	6309.1	
651.23	5380	
651.42	5289.2	
651.61	6823.8	
651.79	6810.9	
651.98	5517.2	
652.17	5194.3	
652.36	7093.5	
652.54	6298.9	
652.73	5248.3	
652.92	5156.8	
653.11	7182.9	
653.29	7219.1	
653.48	4702.1	
653.67	5513.1	
653.85	6911.9	
654.04	7753.6	
654.23	5723.4	
654.42	5339.7	
654.6	6503	
654.79	7035.5	
654.98	4876.2	
655.16	5327.4	
655.35	6255.9	
655.54	6147.3	
655.73	4927.4	
655.91	4711.7	
656.1	6978.1	
656.29	6075.6	
656.47	4472.8	
656.66	5883.1	
656.85	6340.5	
657.03	6387.6	
657.22	4959.5	
657.41	5016.2	
657.59	6490.7	
657.78	6236.7	
657.97	4641.4	
658.16	5339.1	
658.34	6995.9	
658.53	7350.8	
658.72	6044.9	
658.9	6329.6	
659.09	6644.3	
659.28	6674.3	
659.46	5077.6	
659.65	4941.7	
659.84	6390.3	
660.02	6783.6	
660.21	4906.3	
660.4	4847.5	
660.58	7187	
660.77	6614.3	
660.96	5462.6	
661.14	4548.5	
661.33	7506.5	
661.52	7492.8	
661.7	4537.6	
661.89	7550.9	
662.08	6304.3	
662.26	5970.5	
662.45	4801.8	
662.64	4979.3	
662.82	6888	
663.01	6202.6	
663.2	4952	
663.38	5593.7	
663.57	6784.9	
663.75	6737.8	
663.94	5140.4	
664.13	6256.5	
664.31	6313.2	
664.5	6870.9	
664.69	5536.3	
664.87	5859.9	
665.06	6146.6	
665.25	6634.7	
665.43	6004.6	
665.62	6014.2	
665.8	6885.3	
665.99	6488	
666.18	5234.6	
666.36	5229.1	
666.55	6926.9	
666.74	6883.2	
666.92	4889.2	
667.11	6253.8	
667.29	6438.8	
667.48	6913.3	
667.67	5909.8	
667.85	5110.4	
668.04	6429.9	
668.22	6470.2	
668.41	5248.9	
668.6	5416.2	
668.78	6270.2	
668.97	6461.3	
669.15	5550.7	
669.34	4661.2	
669.53	6270.9	
669.71	6610.8	
669.9	4761.5	
670.08	5376.6	
670.27	6189.6	
670.46	6751.5	
670.64	5610.8	
670.83	5786.2	
671.01	6115.2	
671.2	6666.1	
671.38	4917.2	
671.57	4853.7	
671.76	7176.8	
671.94	7625.3	
672.13	4792.2	
672.31	5653.1	
672.5	6894.1	
672.69	6283.2	
672.87	4816.1	
673.06	5172.5	
673.24	6747.4	
673.43	6275	
673.61	5485.1	
673.8	5113.8	
673.98	6808.1	
674.17	6970.6	
674.36	5617.6	
674.54	5515.9	
674.73	6546	
674.91	6844.3	
675.1	5165	
675.28	4904.9	
675.47	6479.1	
675.65	6894.8	
675.84	5144.5	
676.03	5335.6	
676.21	6325.5	
676.4	5782.1	
676.58	5743.2	
676.77	5631.2	
676.95	7468.3	
677.14	6241.5	
677.32	4765.6	
677.51	4689.2	
677.69	6848.4	
677.88	6039.5	
678.06	4756.7	
678.25	4881.7	
678.44	6398.5	
678.62	6220.4	
678.81	4656.4	
678.99	5347.9	
679.18	7149.5	
679.36	6692.8	
679.55	5024.3	
679.73	5521.3	
679.92	6750.1	
680.1	6293.4	
680.29	6065.4	
680.47	5041.4	
680.66	6239.5	
680.84	6884.6	
681.03	4528.7	
681.21	5362.9	
681.4	6223.8	
681.58	6189	
681.77	4909	
681.95	4814.1	
682.14	6984.3	
682.32	7217.7	
682.51	5591	
682.69	4651.6	
682.88	6168.5	
683.06	6685.9	
683.25	5365	
683.43	5707.7	
683.62	6456.6	
683.8	6800.6	
683.99	5847.6	
684.17	5236.7	
684.36	7501	
684.54	6427.2	
684.73	4603.2	
684.91	4820.9	
685.1	6680.5	
685.28	6096.8	
685.46	5266.7	
685.65	5229.8	
685.83	6812.9	
686.02	6256.5	
686.2	4838.7	
686.39	4904.9	
686.57	6102.9	
686.76	7330.4	
686.94	4797.7	
687.13	4924	
687.31	6608.8	
687.5	6257.9	
687.68	4479.6	
687.86	5527.5	
688.05	7795.3	
688.23	5782.8	
688.42	5473.5	
688.6	4862.6	
688.79	6108.4	
688.97	6182.1	
689.16	5158.2	
689.34	4326	
689.52	6765.1	
689.71	6956.3	
689.89	5351.3	
690.08	4799.1	
690.26	6374.6	
690.45	6238.1	
690.63	5547.3	
690.81	4902.8	
691	6223.1	
691.18	6135.7	
691.37	5105.6	
691.55	6900.3	
691.74	6070.2	
691.92	7708.6	
692.1	5044.1	
692.29	4651.6	
692.47	6324.1	
692.66	5711.1	
692.84	4782.7	
693.02	5206.6	
693.21	5784.8	
693.39	6207.4	
693.58	5283.8	
693.76	4779.3	
693.94	7191.8	
694.13	6927.6	
694.31	4792.2	
694.5	5653.8	
694.68	6053.8	
694.86	6332.3	
695.05	5148.6	
695.23	5145.2	
695.42	6645.7	
695.6	8464.3	
695.78	5578.7	
695.97	4814.8	
696.15	6724.2	
696.34	6139.1	
696.52	4704.9	
696.7	5386.2	
696.89	6435.4	
697.07	5955.5	
697.25	5160.2	
697.44	6467.5	
697.62	6455.9	
697.81	6646.3	
697.99	4999.8	
698.17	5383.4	
698.36	5977.3	
698.54	6459.3	
698.72	5214.1	
698.91	4480.3	
699.09	6087.9	
699.28	5958.2	
699.46	4984.8	
699.64	4853.7	
699.83	5921.4	
700.01	6979.5	
700.19	5514.5	
700.38	4272.7	
700.56	6912.6	
700.74	6032	
700.93	4575.8	
701.11	5282.4	
701.29	6501.6	
701.48	7342.7	
701.66	4742.4	
701.84	4788.8	
702.03	6127.5	
702.21	6673	
702.39	4457.1	
702.58	4862.6	
702.76	6420.4	
702.94	6568.5	
703.13	4365.6	
703.31	6398.5	
703.49	5915.9	
703.68	6739.9	
703.86	4581.3	
704.04	5369.8	
704.23	6293.4	
704.41	6546.7	
704.59	4676.9	
704.78	5735	
704.96	7246.4	
705.14	6571.2	
705.33	4528.7	
705.51	5229.8	
705.69	6110.5	
705.87	6852.5	
706.06	5362.3	
706.24	4423.6	
706.42	6433.4	
706.61	6562.4	
706.79	5406.6	
706.97	4423.6	
707.16	5905.7	
707.34	6396.5	
707.52	5416.2	
707.7	4624.3	
707.89	5961	
708.07	5754.8	
708.25	5409.4	
708.44	5474.2	
708.62	5945.9	
708.8	6954.2	
708.98	5565	
709.17	4756.7	
709.35	6285.9	
709.53	6328.2	
709.72	4506.2	
709.9	4825	
710.08	6527.6	
710.26	6557.6	
710.45	5780.7	
710.63	4745.1	
710.81	6186.2	
710.99	6238.8	
711.18	5242.8	
711.36	4822.3	
711.54	6084.5	
711.72	6694.1	
711.91	4922.6	
712.09	4413.4	
712.27	6294.1	
712.45	6675	
712.64	5057.8	
712.82	4220.9	
713	5779.4	
713.18	6004	
713.37	4390.8	
713.55	5477.6	
713.73	6698.2	
713.91	5526.1	
714.1	4668.7	
714.28	4354.7	
714.46	6363	
714.64	5756.8	
714.83	3880.2	
715.01	4624.3	
715.19	5857.9	
715.37	5304.2	
715.55	4257.7	
715.74	4552.6	
715.92	6582.2	
716.1	4891.9	
716.28	5522	
716.47	4621.6	
716.65	5565	
716.83	5577.3	
717.01	4517.8	
717.19	4609.3	
717.38	7256.6	
717.56	5287.9	
717.74	4695.3	
717.92	4005.8	
718.1	6337.8	
718.29	5582.1	
718.47	3666.5	
718.65	4217.5	
718.83	6193.1	
719.01	6119.3	
719.2	3565.5	
719.38	4481.6	
719.56	5868.1	
719.74	7176.8	
719.92	4181.3	
720.11	5013.4	
720.29	5993.7	
720.47	5216.9	
720.65	3832.4	
720.83	4532.8	
721.02	5556.8	
721.2	5357.5	
721.38	4590.9	
721.56	3951.9	
721.74	4918.5	
721.92	5076.2	
722.11	4998.4	
722.29	4653.7	
722.47	6131.6	
722.65	5395.7	
722.83	3960.1	
723.01	4721.9	
723.2	5455.8	
723.38	5722	
723.56	3557.3	
723.74	4491.9	
723.92	5061.9	
724.1	6066.8	
724.29	3844	
724.47	4863.9	
724.65	5216.2	
724.83	5033.2	
725.01	3781.2	
725.19	4545.1	
725.37	5155.4	
725.56	5192.3	
725.74	3702	
725.92	3873.4	
726.1	5053	
726.28	5300.8	
726.46	4246.8	
726.64	3939.6	
726.83	5393	
727.01	5577.3	
727.19	3679.5	
727.37	4362.2	
727.55	5467.4	
727.73	5834.7	
727.91	3687.7	
728.09	3564.1	
728.28	5852.4	
728.46	6142.5	
728.64	4429.8	
728.82	4388.1	
729	6696.2	
729.18	6028.5	
729.36	3751.2	
729.54	5653.8	
729.72	6879.8	
729.91	5494	
730.09	5355.4	
730.27	4222.9	
730.45	5441.5	
730.63	5870.2	
730.81	4747.9	
730.99	3994.2	
731.17	6365.8	
731.35	5163.6	
731.53	4386.1	
731.71	4048.2	
731.9	6161	
732.08	6249.7	
732.26	4302.1	
732.44	3984.7	
732.62	6350.1	
732.8	5832.6	
732.98	4663.9	
733.16	3902.7	
733.34	5870.2	
733.52	4798.4	
733.7	4271.4	
733.88	4458.4	
734.07	5751.4	
734.25	5520	
734.43	3820.1	
734.61	5133.6	
734.79	6774.7	
734.97	5456.5	
735.15	3944.4	
735.33	4202.4	
735.51	5750.7	
735.69	5442.8	
735.87	5128.8	
736.05	4382.7	
736.23	5636	
736.41	5342.5	
736.59	4245.4	
736.77	4347.8	
736.95	5950.7	
737.13	5425.8	
737.32	3944.4	
737.5	4182.6	
737.68	6408.8	
737.86	5389.6	
738.04	3753.2	
738.22	5400.5	
738.4	5252.4	
738.58	5488.6	
738.76	4311	
738.94	3469.3	
739.12	5396.4	
739.3	5253	
739.48	4825	
739.66	4618.9	
739.84	5581.4	
740.02	5528.2	
740.2	3587.4	
740.38	3834.5	
740.56	5815.5	
740.74	4901.5	
740.92	4456.4	
741.1	4339.6	
741.28	5433.3	
741.46	5201.2	
741.64	4007.2	
741.82	4468.7	
742	5483.1	
742.18	5392.3	
742.36	4201.7	
742.54	3873.4	
742.72	5873.6	
742.9	4807.3	
743.08	4526	
743.26	3521.1	
743.44	5982.8	
743.62	5840.1	
743.8	4640.7	
743.98	3837.2	
744.16	5723.4	
744.34	5385.5	
744.52	4530.1	
744.7	4489.1	
744.88	5760.9	
745.06	5376.6	
745.24	4583.4	
745.42	4661.9	
745.6	5914.5	
745.78	5701.5	
745.96	3595.6	
746.14	3884.3	
746.32	6451.1	
746.5	5875.6	
746.68	4360.1	
746.86	3922.5	
747.03	6155.5	
747.21	4851	
747.39	4369	
747.57	3885	
747.75	5545.9	
747.93	5897.5	
748.11	3884.3	
748.29	3833.8	
748.47	6875.7	
748.65	5367	
748.83	4473.4	
749.01	4240	
749.19	5719.3	
749.37	4998.4	
749.55	4188.1	
749.73	4218.1	
749.91	5471.5	
750.09	5233.2	
750.26	4203.8	
750.44	3773	
750.62	5470.8	
750.8	5393	
750.98	3638.6	
751.16	3906.8	
751.34	5522	
751.52	4987.5	
751.7	4564.9	
751.88	3600.3	
752.06	5920	
752.24	5705	
752.42	3624.9	
752.59	3876.8	
752.77	5408	
752.95	6429.9	
753.13	4553.3	
753.31	3964.9	
753.49	5200.5	
753.67	5576.6	
753.85	4192.9	
754.03	3836.5	
754.21	5841.5	
754.38	6036	
754.56	4022.2	
754.74	3352.5	
754.92	5182	
755.1	5754.8	
755.28	3387.3	
755.46	3409.2	
755.64	6486.6	
755.82	6630	
755.99	3698.6	
756.17	3799.7	
756.35	4545.1	
756.53	5760.3	
756.71	2885.6	
756.89	3699.3	
757.07	5453.1	
757.25	4702.1	
757.42	4067.9	
757.6	4779.3	
757.78	5519.3	
757.96	4703.5	
758.14	3814	
758.32	3366.2	
758.5	4304.8	
758.67	5039.4	
758.85	3672.7	
759.03	3738.2	
759.21	5124	
759.39	4645.5	
759.57	3274.7	
759.75	4268	
759.92	5707.7	
760.1	5178.6	
760.28	4492.6	
760.46	4781.3	
760.64	4909	
760.82	4797.7	
760.99	4227.7	
761.17	3741.6	
761.35	5579.3	
761.53	4696	
761.71	3802.4	
761.89	4394.9	
762.06	5466	
762.24	5039.4	
762.42	3849.5	
762.6	3618.1	
762.78	4970.4	
762.96	5470.8	
763.13	4166.9	
763.31	3910.3	
763.49	5712.5	
763.67	4909	
763.85	4529.4	
764.02	5034.6	
764.2	5898.8	
764.38	5177.3	
764.56	3817.4	
764.74	4453.6	
764.91	5976	
765.09	5015.5	
765.27	3530.7	
765.45	3332	
765.63	6033.3	
765.8	5847.6	
765.98	3164.1	
766.16	3435.8	
766.34	4724.7	
766.52	4538.3	
766.69	4188.1	
766.87	3310.2	
767.05	5001.1	
767.23	5655.8	
767.41	3566.9	
767.58	3789.4	
767.76	5501.5	
767.94	5612.8	
768.12	3620.1	
768.29	4222.2	
768.47	5130.2	
768.65	5697.4	
768.83	3311.6	
769	4286.4	
769.18	4792.9	
769.36	5342.5	
769.54	4275.5	
769.72	3367.5	
769.89	5638.1	
770.07	5659.2	
770.25	3640.6	
770.43	4745.1	
770.6	6207.4	
770.78	6538.5	
770.96	3794.9	
771.14	4322.6	
771.31	5511.8	
771.49	4984.1	
771.67	3133.4	
771.85	3276.8	
772.02	4405.2	
772.2	4919.9	
772.38	3938.2	
772.55	3519.8	
772.73	5240.1	
772.91	5054.4	
773.09	3824.2	
773.26	3951.2	
773.44	5172.5	
773.62	4928.8	
773.8	3440.6	
773.97	3254.2	
774.15	5228.5	
774.33	4934.9	
774.5	3353.2	
774.68	3655.6	
774.86	5433.3	
775.04	4941.7	
775.21	3453.6	
775.39	3418.1	
775.57	5196.4	
775.74	5498.8	
775.92	3331.4	
776.1	3213.9	
776.27	5188.2	
776.45	6240.2	
776.63	3411.9	
776.81	3110.9	
776.98	4881	
777.16	5786.2	
777.34	3618.1	
777.51	3809.9	
777.69	4894.6	
777.87	4699.4	
778.04	3580.5	
778.22	4089.8	
778.4	4778.6	
778.57	5279.7	
778.75	3044	
778.93	3263.1	
779.1	4564.9	
779.28	4416.1	
779.46	3016	
779.64	3387.3	
779.81	5451.7	
779.99	6114.6	
780.17	4069.3	
780.34	4229.1	
780.52	4957.4	
780.69	5139.7	
780.87	3708.2	
781.05	3312.9	
781.22	5059.2	
781.4	5059.2	
781.58	3443.3	
781.75	2775	
781.93	5081	
782.11	4561.5	
782.28	4172.4	
782.46	3421.5	
782.64	4461.8	
782.81	5240.8	
782.99	3544.4	
783.17	3478.1	
783.34	5094.7	
783.52	4524	
783.69	3703.4	
783.87	4343.1	
784.05	4554.7	
784.22	4538.3	
784.4	4342.4	
784.58	3732.1	
784.75	5377.3	
784.93	4656.4	
785.1	3454.9	
785.28	3971	
785.46	5101.5	
785.63	4614.8	
785.81	3499.3	
785.99	3315.7	
786.16	4730.1	
786.34	5022.3	
786.51	3328.6	
786.69	3751.2	
786.87	4389.5	
787.04	4743.1	
787.22	3297.2	
787.39	4035.2	
787.57	4588.8	
787.75	5527.5	
787.92	4199.7	
788.1	4152.6	
788.27	4578.6	
788.45	4406.5	
788.63	3981.3	
788.8	2843.9	
788.98	5030.5	
789.15	4272.1	
789.33	2995.5	
789.5	3504.1	
789.68	5352	
789.86	5433.3	
790.03	3873.4	
790.21	3338.2	
790.38	5342.5	
790.56	4706.2	
790.73	3354.6	
790.91	3291.1	
791.09	4660.5	
791.26	5237.3	
791.44	3508.2	
791.61	2981.8	
791.79	4597.7	
791.96	4634.6	
792.14	3148.4	
792.32	2780.5	
792.49	4574.5	
792.67	4683.7	
792.84	3194.1	
793.02	2998.2	
793.19	4994.3	
793.37	5544.5	
793.54	2764.1	
793.72	3039.9	
793.89	5634.6	
794.07	4581.3	
794.25	3506.8	
794.42	2887	
794.6	5472.9	
794.77	5116.5	
794.95	3819.5	
795.12	3340.2	
795.3	4632.5	
795.47	5104.2	
795.65	3728	
795.82	3534.1	
796	4422.9	
796.17	6004.6	
796.35	3453.6	
796.52	4044.1	
796.7	5073.5	
796.87	5115.1	
797.05	3448.8	
797.22	4190.1	
797.4	5127.4	
797.57	5966.4	
797.75	3544.4	
797.92	3328.6	
798.1	5392.3	
798.27	4450.9	
798.45	2930.6	
798.62	3131.3	
798.8	4863.9	
798.97	5240.1	
799.15	3794.9	
799.32	3560.7	
799.5	4326	
799.67	4937	
799.85	3861.1	
800.02	2853.5	
800.2	4559.5	
800.37	4845.5	
800.55	3983.3	
800.72	3401.7	
800.9	5263.3	
801.07	5677	
801.25	4431.8	
801.42	3689.1	
801.6	5319.3	
801.77	4903.5	
801.95	3416	
802.12	3269.2	
802.29	5104.2	
802.47	4973.2	
802.64	3716.4	
802.82	2805	
802.99	4562.9	
803.17	5374.6	
803.34	3532.1	
803.52	3192.8	
803.69	5943.9	
803.87	4394.3	
804.04	3561.4	
804.21	3610.6	
804.39	5516.5	
804.56	4715.1	
804.74	3048.7	
804.91	3695.2	
805.09	4578.6	
805.26	4660.5	
805.44	3090.4	
805.61	3374.4	
805.78	5215.5	
805.96	5152	
806.13	3648.1	
806.31	3994.9	
806.48	4232.5	
806.66	4688.5	
806.83	3653.6	
807	3644	
807.18	4615.4	
807.35	4924.7	
807.53	3579.8	
807.7	2898.6	
807.87	5581.4	
808.05	4629.8	
808.22	3920.5	
808.4	2895.8	
808.57	4575.2	
808.74	4265.2	
808.92	3281.5	
809.09	4160.1	
809.27	4632.5	
809.44	5048.2	
809.61	2912.2	
809.79	3252.2	
809.96	5679.7	
810.14	5222.3	
810.31	2837.1	
810.48	3530	
810.66	4643.4	
810.83	5324.7	
811.01	3284.9	
811.18	3614	
811.35	5283.1	
811.53	4149.9	
811.7	3983.3	
811.87	3672.7	
812.05	4718.5	
812.22	4581.3	
812.39	3216	
812.57	3099.9	
812.74	4687.1	
812.92	5991.7	
813.09	3487.7	
813.26	3771	
813.44	5862.7	
813.61	4502.8	
813.78	2916.3	
813.96	3852.9	
814.13	4677.6	
814.3	4442	
814.48	4123.2	
814.65	3467.2	
814.82	5595.7	
815	4438.6	
815.17	3566.2	
815.34	4321.9	
815.52	4591.5	
815.69	4541.7	
815.87	3536.2	
816.04	3467.9	
816.21	4632.5	
816.38	4189.5	
816.56	3422.8	
816.73	3240.6	
816.9	5819	
817.08	5293.3	
817.25	3273.3	
817.42	3979.2	
817.6	4267.3	
817.77	4616.1	
817.94	3650.8	
818.12	3171.6	
818.29	4457.1	
818.46	6619.7	
818.64	3294.5	
818.81	3092.4	
818.98	4369	
819.16	6139.1	
819.33	3766.2	
819.5	3571.7	
819.67	4930.8	
819.85	5494.7	
820.02	3502	
820.19	3697.9	
820.37	4807.9	
820.54	4573.1	
820.71	3590.1	
820.88	4448.9	
821.06	4769.7	
821.23	4470.7	
821.4	3626.3	
821.58	3568.9	
821.75	5272.2	
821.92	4778.6	
822.09	2945	
822.27	3166.8	
822.44	4639.3	
822.61	4555.4	
822.79	2972.3	
822.96	5503.6	
823.13	4980.7	
823.3	4387.4	
823.48	3365.5	
823.65	3081.5	
823.82	5236.7	
823.99	4287.1	
824.17	4246.8	
824.34	3085.6	
824.51	5966.4	
824.68	4709.6	
824.86	3257	
825.03	3552.5	
825.2	4683.7	
825.37	5520	
825.55	3220.1	
825.72	3560.1	
825.89	6021.7	
826.06	5667.4	
826.24	3505.4	
826.41	3466.5	
826.58	5605.3	
826.75	4873.5	
826.92	2787.3	
827.1	3086.3	
827.27	7414.3	
827.44	5958.2	
827.61	3340.2	
827.79	3938.2	
827.96	4492.6	
828.13	4737	
828.3	3500.7	
828.47	2957.9	
828.65	4898.7	
828.82	4906.3	
828.99	4392.2	
829.16	3835.2	
829.34	5234.6	
829.51	5026.4	
829.68	3551.9	
829.85	3650.8	
830.02	5502.2	
830.2	5197.7	
830.37	2777.7	
830.54	4246.8	
830.71	5836	
830.88	4642.7	
831.05	2817.3	
831.23	3185.3	
831.4	5650.3	
831.57	6190.3	
831.74	3246	
831.91	2979.1	
832.09	4972.5	
832.26	5180.7	
832.43	3388.7	
832.6	3797.6	
832.77	4942.4	
832.94	5535	
833.12	2794.8	
833.29	3341.6	
833.46	4612.7	
833.63	6430.6	
833.8	3695.9	
833.97	3467.2	
834.15	5263.3	
834.32	5048.9	
834.49	3556.6	
834.66	3663.1	
834.83	5352.7	
835	4458.4	
835.17	3263.1	
835.35	3277.4	
835.52	5144.5	
835.69	5020.3	
835.86	3437.9	
836.03	2878.1	
836.2	5186.8	
836.37	4865.3	
836.55	3358	
836.72	3176.4	
836.89	4852.3	
837.06	5292	
837.23	3489.1	
837.4	3779.9	
837.57	5896.8	
837.75	6415.6	
837.92	3151.8	
838.09	3337.5	
838.26	4842.8	
838.43	5408	
838.6	3607.2	
838.77	3211.2	
838.94	6118	
839.11	5868.1	
839.29	3418.1	
839.46	2717.7	
839.63	5220.3	
839.8	4959.5	
839.97	3316.3	
840.14	3283.6	
840.31	4949.3	
840.48	5192.3	
840.65	2783.9	
840.82	3218.7	
841	5142.4	
841.17	5152	
841.34	3031	
841.51	3118.4	
841.68	5177.3	
841.85	4928.8	
842.02	3161.4	
842.19	2674.6	
842.36	4962.9	
842.53	4947.2	
842.7	3112.2	
842.87	3720.5	
843.05	6388.3	
843.22	4874.2	
843.39	2919	
843.56	3163.4	
843.73	4766.3	
843.9	5263.3	
844.07	4871.4	
844.24	4011.3	
844.41	7332.4	
844.58	4524	
844.75	2983.9	
844.92	3236.5	
845.09	5169.8	
845.26	5176.6	
845.43	3045.3	
845.6	3206.4	
845.77	5201.2	
845.94	4909.7	
846.12	3323.2	
846.29	3564.8	
846.46	5345.9	
846.63	5172.5	
846.8	3033	
846.97	3624.9	
847.14	5504.3	
847.31	5160.9	
847.48	3439.9	
847.65	3754.6	
847.82	5393.7	
847.99	5355.4	
848.16	4018.8	
848.33	3727.3	
848.5	4752	
848.67	5560.2	
848.84	3013.9	
849.01	3140.2	
849.18	4678.2	
849.35	4446.1	
849.52	3723.9	
849.69	3002.3	
849.86	5304.9	
850.03	5500.2	
850.2	3061	
850.37	3654.9	
850.54	5460.6	
850.71	4906.3	
850.88	3674.1	
851.05	2990	
851.22	5094	
851.39	5635.3	
851.56	2811.2	
851.73	3491.1	
851.9	4579.3	
852.07	5340.4	
852.24	3323.9	
852.41	2978.4	
852.58	5098.8	
852.75	4621.6	
852.92	3407.8	
853.09	2968.9	
853.26	4831.8	
853.43	5532.9	
853.6	3017.3	
853.77	2646.7	
853.94	5606	
854.11	5163.6	
854.28	4423.6	
854.44	3312.9	
854.61	5945.9	
854.78	5465.3	
854.95	3055.6	
855.12	3843.4	
855.29	4253.6	
855.46	5621	
855.63	3054.2	
855.8	4154.6	
855.97	4851	
856.14	5472.9	
856.31	4283	
856.48	3263.8	
856.65	4835.9	
856.82	4538.3	
856.99	2918.4	
857.16	3272	
857.33	6137.1	
857.49	4909.7	
857.66	3254.9	
857.83	3556.6	
858	4899.4	
858.17	5040.1	
858.34	2899.9	
858.51	3084.2	
858.68	5717.2	
858.85	5716.6	
859.02	3472.7	
859.19	3690.4	
859.36	4582	
859.52	4627.7	
859.69	3088.3	
859.86	3587.4	
860.03	4600.4	
860.2	5608	
860.37	2788	
860.54	3093.1	
860.71	5353.4	
860.88	5674.9	
861.05	3402.4	
861.21	3764.8	
861.38	5639.4	
861.55	4461.2	
861.72	2784.6	
861.89	3388	
862.06	5495.4	
862.23	5797.8	
862.4	2917	
862.56	3118.4	
862.73	5290.6	
862.9	4954	
863.07	3569.6	
863.24	2792.1	
863.41	4499.4	
863.58	4600.4	
863.75	3097.2	
863.91	3495.2	
864.08	5588.9	
864.25	5284.4	
864.42	3742.3	
864.59	4202.4	
864.76	5928.9	
864.93	4554	
865.09	2964.8	
865.26	3287.7	
865.43	5547.3	
865.6	5889.3	
865.77	2649.4	
865.94	3030.3	
866.1	5580.7	
866.27	5300.1	
866.44	4470	
866.61	2887.6	
866.78	4964.3	
866.95	5305.6	
867.11	2960	
867.28	2727.2	
867.45	5418.9	
867.62	4558.8	
867.79	3590.1	
867.96	3007.1	
868.12	4582	
868.29	5364.3	
868.46	2689.7	
868.63	4047.5	
868.8	5491.3	
868.97	5306.3	
869.13	3172.3	
869.3	3140.9	
869.47	5210	
869.64	5455.1	
869.81	3040.6	
869.97	3067.9	
870.14	5131.5	
870.31	5730.2	
870.48	2973	
870.65	3751.9	
870.81	4896.7	
870.98	4863.9	
871.15	3406.5	
871.32	3147	
871.48	5218.9	
871.65	5737	
871.82	3022.1	
871.99	3396.2	
872.16	6133	
872.32	5628.5	
872.49	3091.1	
872.66	3020.8	
872.83	5357.5	
872.99	4755.4	
873.16	3503.4	
873.33	3039.2	
873.5	5099.4	
873.67	5050.3	
873.83	3223.5	
874	4013.3	
874.17	5111.7	
874.34	6060.6	
874.5	3868.6	
874.67	3747.8	
874.84	5614.8	
875.01	4590.9	
875.17	4197	
875.34	3056.9	
875.51	5100.8	
875.68	6055.8	
875.84	3607.2	
876.01	4401.1	
876.18	5317.9	
876.34	5273.5	
876.51	3048.7	
876.68	2973	
876.85	4878.3	
877.01	5535	
877.18	4245.4	
877.35	2961.4	
877.52	5100.1	
877.68	4524.6	
877.85	3036.5	
878.02	2960.7	
878.18	4991.6	
878.35	4775.9	
878.52	2443.2	
878.69	3397.6	
878.85	5442.1	
879.02	5265.3	
879.19	4225.6	
879.35	3237.2	
879.52	5284.4	
879.69	5460.6	
879.86	2663.7	
880.02	3377.8	
880.19	4941.1	
880.36	6055.2	
880.52	3476.8	
880.69	3580.5	
880.86	5375.2	
881.02	5484.5	
881.19	3319.1	
881.36	3299.3	
881.52	5257.8	
881.69	4727.4	
881.86	3296.5	
882.02	3175	
882.19	5531.6	
882.36	6330.3	
882.52	3113.6	
882.69	4206.5	
882.86	5113.1	
883.02	5079.6	
883.19	3629.7	
883.36	3369.6	
883.52	5362.3	
883.69	6105	
883.86	3048.1	
884.02	2755.2	
884.19	5360.2	
884.36	5036	
884.52	3407.8	
884.69	3233.7	
884.86	4778.6	
885.02	5847	
885.19	3426.9	
885.36	3493.8	
885.52	4990.9	
885.69	5120.6	
885.86	4249.5	
886.02	3871.3	
886.19	5367	
886.35	4873.5	
886.52	3351.8	
886.69	4223.6	
886.85	4549.2	
887.02	5651.7	
887.19	5651.7	
887.35	5651.7	
887.52	5651.7	
887.68	5651.7	
887.85	5651.7	
888.02	5651.7	
888.18	5651.7	
888.35	5651.7	
888.51	5651.7	
888.68	5651.7	
888.85	5651.7	
889.01	5651.7	
889.18	5651.7	
889.35	5651.7	
889.51	5651.7	
889.68	5651.7	
889.84	5651.7	
890.01	5651.7	
890.17	5651.7	
890.34	5651.7	
890.51	5651.7	
890.67	5651.7	
890.84	5651.7	
891	5651.7	
891.17	5651.7	
891.34	5651.7	
891.5	5651.7	
891.67	5651.7	
891.83	5651.7	
892	5651.7	
892.16	5651.7	
892.33	5651.7	
892.5	5651.7	
892.66	5651.7	
892.83	5651.7	
892.99	5651.7	
893.16	5651.7	
893.32	5651.7	
893.49	5651.7	
893.65	5651.7	
893.82	5651.7	
893.99	5651.7	
894.15	5651.7	
894.32	5651.7	
894.48	5651.7	
894.65	5651.7	
894.81	5651.7	
894.98	5651.7	
895.14	5651.7	
895.31	5651.7	
895.47	5651.7	
895.64	5651.7	
895.81	5651.7	
895.97	5651.7	
896.14	5651.7	
896.3	5651.7	
896.47	5651.7	
896.63	5651.7	
896.8	5651.7	
896.96	5651.7	
897.13	5651.7	
897.29	5651.7	
897.46	5651.7	
897.62	5651.7	
897.79	5651.7	
897.95	5651.7	
898.12	5651.7	
898.28	5651.7	
898.45	5651.7	
898.61	5651.7	
898.78	5651.7	
898.94	5651.7	
899.11	5651.7	
899.27	5651.7	
899.44	5651.7	
899.6	5651.7	
899.77	5651.7	
899.93	5651.7	
900.1	5651.7	
900.26	5651.7	
900.43	5651.7	
900.59	5651.7	
900.76	5651.7	
900.92	5651.7	
901.09	5651.7	
901.25	5651.7	
901.42	5651.7	
901.58	5651.7	
901.75	5651.7	
901.91	5651.7	
902.07	5651.7	
902.24	5651.7	
902.4	5651.7	
902.57	5651.7	
902.73	5651.7	
902.9	5651.7	
903.06	5651.7	
903.23	5651.7	
903.39	5651.7	
903.56	5651.7	
903.72	5651.7	
903.88	5651.7	
904.05	5651.7	
904.21	5651.7	
904.38	5651.7	
904.54	5651.7	
904.71	5651.7	
904.87	5651.7	
905.03	5651.7	
905.2	5651.7	
905.36	5651.7	
905.53	5651.7	
905.69	5651.7	
905.86	5651.7	
906.02	5651.7	
906.18	5651.7	
906.35	5651.7	
906.51	5651.7	
906.68	5651.7	
906.84	5651.7	
907.01	5651.7	
907.17	5651.7	
907.33	5651.7	
907.5	5651.7	
907.66	5651.7	
907.83	5651.7	
907.99	5651.7	
908.15	5651.7	
908.32	5651.7	
908.48	5651.7	
908.65	5651.7	
908.81	5651.7	
908.97	5651.7	
909.14	5651.7	
909.3	5651.7	
909.47	5651.7	
909.63	5651.7	
909.79	5651.7	
909.96	5651.7	
910.12	5651.7	
910.28	5651.7	
910.45	5651.7	
910.61	5651.7	
910.78	5651.7	
910.94	5651.7	
911.1	5651.7	
911.27	5651.7	
911.43	5651.7	
911.59	5651.7	
911.76	5651.7	
911.92	5651.7	
912.08	5651.7	
912.25	5651.7	
912.41	5651.7	
912.57	5651.7	
912.74	5651.7	
912.9	5651.7	
913.07	5651.7	
913.23	5651.7	
913.39	5651.7	
913.56	5651.7	
913.72	5651.7	
913.88	5651.7	
914.05	5651.7	
914.21	5651.7	
914.37	5651.7	
914.54	5651.7	
914.7	5651.7	
914.86	5651.7	
915.03	5651.7	
915.19	5651.7	
