Wavelength	Intensities	
nm	a.u.	
179.22	1708.7	
179.44	1716.9	
179.65	1700.5	
179.86	1733.3	
180.08	1741.5	
180.29	4094.6	
180.51	3039.9	
180.72	5062.6	
180.94	5758.9	
181.15	2839.8	
181.37	2816.6	
181.58	4873.5	
181.79	5095.3	
182.01	2931.3	
182.22	3111.5	
182.44	5140.4	
182.65	4414.7	
182.87	3822.2	
183.08	3399.6	
183.29	5423.7	
183.51	4508.3	
183.72	3119.1	
183.94	4326	
184.15	4865.3	
184.37	4766.3	
184.58	2708.1	
184.79	3590.1	
185.01	4527.4	
185.22	5111.7	
185.44	3801	
185.65	3272	
185.86	4858.5	
186.08	4422.9	
186.29	2732	
186.51	2934.7	
186.72	4567	
186.94	5281.7	
187.15	3285.6	
187.36	3392.1	
187.58	6606.7	
187.79	4986.8	
188.01	3520.5	
188.22	5296	
188.43	5815.5	
188.65	5085.1	
188.86	2960	
189.08	3405.1	
189.29	4688.5	
189.5	4681	
189.72	3104.7	
189.93	3241.3	
190.15	5187.5	
190.36	6105.7	
190.57	3452.2	
190.79	3305.4	
191	5282.4	
191.22	5264.6	
191.43	3485.6	
191.64	2906.8	
191.86	5481	
192.07	5283.8	
192.29	3005.7	
192.5	3163.4	
192.71	5319.9	
192.93	4642.1	
193.14	3078.1	
193.35	3184.6	
193.57	4654.4	
193.78	5272.2	
194	2549.7	
194.21	3039.9	
194.42	4490.5	
194.64	4885.1	
194.85	3352.5	
195.07	3829	
195.28	4847.5	
195.49	4272.1	
195.71	4102.1	
195.92	2961.4	
196.13	5025.7	
196.35	5065.3	
196.56	4287.1	
196.78	3395.5	
196.99	6072.9	
197.2	5730.9	
197.42	3753.9	
197.63	3401.7	
197.84	4414.7	
198.06	4980.7	
198.27	3140.2	
198.48	4081.6	
198.7	4704.9	
198.91	4841.4	
199.13	3401.7	
199.34	3398.9	
199.55	5216.2	
199.77	4233.2	
199.98	3034.4	
200.19	3434.4	
200.41	4803.9	
200.62	4546.5	
200.83	3508.2	
201.05	3766.9	
201.26	4784.7	
201.47	4590.9	
201.69	3071.3	
201.9	2981.2	
202.11	4853.7	
202.33	5591	
202.54	3225.6	
202.76	3594.9	
202.97	4880.3	
203.18	4991.6	
203.4	3525.9	
203.61	3586.7	
203.82	4879.6	
204.04	4530.8	
204.25	3467.9	
204.46	3360	
204.68	4835.3	
204.89	5042.8	
205.1	3301.3	
205.32	2953.9	
205.53	5148.6	
205.74	5299.5	
205.96	2579.1	
206.17	3396.9	
206.38	5098.1	
206.6	5246.9	
206.81	3865.2	
207.02	3166.8	
207.24	5034.6	
207.45	5380.7	
207.66	3229.6	
207.88	2854.2	
208.09	5020.9	
208.3	4805.9	
208.52	3020.8	
208.73	3324.5	
208.94	4889.2	
209.15	5431.9	
209.37	3258.3	
209.58	3686.3	
209.79	5287.2	
210.01	4669.4	
210.22	2714.2	
210.43	2810.5	
210.65	4859.1	
210.86	5203.9	
211.07	3261	
211.29	2993.4	
211.5	5084.4	
211.71	4748.6	
211.93	3011.2	
212.14	3019.4	
212.35	4810	
212.56	4884.4	
212.78	3411.9	
212.99	2816	
213.2	5593.7	
213.42	4681.7	
213.63	3084.2	
213.84	3292.5	
214.06	4377.2	
214.27	4430.4	
214.48	3280.8	
214.69	3442	
214.91	5338.4	
215.12	5421.7	
215.33	3469.9	
215.55	3769.6	
215.76	5806	
215.97	5094.7	
216.18	3320.4	
216.4	3288.4	
216.61	4591.5	
216.82	5238.7	
217.04	3018.7	
217.25	3185.3	
217.46	5312.4	
217.67	5155.4	
217.89	2768.2	
218.1	2827.6	
218.31	4941.1	
218.53	5020.3	
218.74	3164.8	
218.95	3112.2	
219.16	4782	
219.38	5584.8	
219.59	3063.1	
219.8	3568.9	
220.01	5967.8	
220.23	4906.3	
220.44	3921.2	
220.65	2993.4	
220.87	4855.7	
221.08	5337.7	
221.29	2831	
221.5	3648.8	
221.72	6316.6	
221.93	4597	
222.14	3463.1	
222.35	4001	
222.57	4826.4	
222.78	5162.2	
222.99	3276.8	
223.2	3431.7	
223.42	5067.4	
223.63	5177.3	
223.84	2626.2	
224.05	2611.2	
224.27	5946.6	
224.48	5550	
224.69	4198.3	
224.9	3386	
225.12	4990.2	
225.33	4847.5	
225.54	2772.9	
225.75	3015.3	
225.97	4539.7	
226.18	4784.1	
226.39	3244.7	
226.6	3123.8	
226.82	4658.4	
227.03	4552.6	
227.24	3371	
227.45	2845.3	
227.67	5132.2	
227.88	5560.2	
228.09	3807.2	
228.3	3748.5	
228.52	5158.2	
228.73	4816.8	
228.94	3161.4	
229.15	2918.4	
229.36	4815.5	
229.58	4794.3	
229.79	3219.4	
230	3694.5	
230.21	5664	
230.43	4911	
230.64	3384.6	
230.85	3482.9	
231.06	5179.3	
231.28	5182	
231.49	2824.8	
231.7	3336.1	
231.91	5105.6	
232.12	4820.2	
232.34	2934.7	
232.55	3300	
232.76	5347.9	
232.97	5015.5	
233.18	3009.1	
233.4	3387.3	
233.61	4993.6	
233.82	4673.5	
234.03	3164.1	
234.25	3119.1	
234.46	6479.1	
234.67	4852.3	
234.88	3465.8	
235.09	3056.3	
235.31	5026.4	
235.52	4762.2	
235.73	3355.3	
235.94	2897.9	
236.15	4594.3	
236.37	5691.3	
236.58	3053.5	
236.79	3291.1	
237	5091.9	
237.21	4431.1	
237.43	3489.1	
237.64	2772.3	
237.85	8116.8	
238.06	4531.5	
238.27	3527.3	
238.48	2891.7	
238.7	5128.8	
238.91	4674.8	
239.12	3233.7	
239.33	3324.5	
239.54	4599.7	
239.76	4791.6	
239.97	3236.5	
240.18	3310.2	
240.39	5848.3	
240.6	5021.6	
240.82	3382.6	
241.03	2819.4	
241.24	4846.9	
241.45	5475.6	
241.66	3015.3	
241.87	3606.5	
242.09	5453.1	
242.3	5692	
242.51	3527.3	
242.72	3228.3	
242.93	5212.1	
243.14	4766.3	
243.36	3779.2	
243.57	4021.5	
243.78	5513.8	
243.99	5109.7	
244.2	3248.1	
244.41	3025.5	
244.63	4506.2	
244.84	5036.6	
245.05	3558	
245.26	3226.2	
245.47	5044.1	
245.68	5188.2	
245.9	4176.5	
246.11	3438.5	
246.32	4680.3	
246.53	5011.4	
246.74	5074.9	
246.95	2844.6	
247.16	4521.2	
247.38	4862.6	
247.59	2836.4	
247.8	3300	
248.01	4548.5	
248.22	4797	
248.43	3035.8	
248.64	3231	
248.86	4457.7	
249.07	4621.6	
249.28	2951.8	
249.49	3368.9	
249.7	5229.1	
249.91	5290.6	
250.12	2803	
250.34	2865.1	
250.55	4924.7	
250.76	4833.9	
250.97	3414	
251.18	3419.4	
251.39	5397.1	
251.6	4960.2	
251.81	3450.8	
252.03	3386	
252.24	4663.9	
252.45	5182	
252.66	2929.3	
252.87	3575.8	
253.08	4828.4	
253.29	6061.3	
253.5	2908.8	
253.72	3918.4	
253.93	4786.1	
254.14	5613.5	
254.35	3168.9	
254.56	3226.9	
254.77	5050.3	
254.98	4551.3	
255.19	3065.8	
255.41	3857	
255.62	4945.8	
255.83	5274.2	
256.04	3485	
256.25	3418.7	
256.46	5836	
256.67	4556	
256.88	3369.6	
257.09	3721.2	
257.31	4532.8	
257.52	4586.8	
257.73	4158.7	
257.94	3158	
258.15	4769	
258.36	4821.6	
258.57	3878.2	
258.78	2591.4	
258.99	5255.1	
259.2	4679.6	
259.41	3173	
259.63	3237.8	
259.84	5488.6	
260.05	5789.6	
260.26	3981.9	
260.47	3092.4	
260.68	5308.3	
260.89	4740.4	
261.1	3722.5	
261.31	2994.8	
261.52	5412.8	
261.73	5601.2	
261.95	4018.8	
262.16	3468.6	
262.37	5390.9	
262.58	5454.4	
262.79	4012	
263	3166.2	
263.21	4847.5	
263.42	4673.5	
263.63	3451.5	
263.84	3158.7	
264.05	5243.5	
264.26	5538.4	
264.47	3830.4	
264.69	3498.6	
264.9	5427.1	
265.11	4971.8	
265.32	3070.6	
265.53	3123.2	
265.74	4934.2	
265.95	4368.3	
266.16	3349.8	
266.37	3682.9	
266.58	4958.8	
266.79	4691.2	
267	3142.3	
267.21	2947	
267.42	4489.1	
267.63	4823.6	
267.84	3256.3	
268.06	2860.3	
268.27	5194.3	
268.48	5399.1	
268.69	3233.7	
268.9	3707.5	
269.11	5397.8	
269.32	4412	
269.53	3257.6	
269.74	3058.3	
269.95	5085.8	
270.16	4363.5	
270.37	3285.6	
270.58	3759.4	
270.79	4666	
271	5242.8	
271.21	3472.7	
271.42	3374.4	
271.63	4964.3	
271.84	4485.1	
272.05	2719.7	
272.26	3005.1	
272.47	4933.6	
272.68	4973.8	
272.89	3167.5	
273.11	3557.3	
273.32	4675.5	
273.53	5505.6	
273.74	3480.9	
273.95	3457.7	
274.16	5271.5	
274.37	4851	
274.58	3590.1	
274.79	2923.1	
275	5036	
275.21	5330.9	
275.42	4304.8	
275.63	3609.9	
275.84	5086.5	
276.05	6094.8	
276.26	3476.1	
276.47	3214.6	
276.68	4811.4	
276.89	5606.7	
277.1	3618.1	
277.31	2940.9	
277.52	5061.9	
277.73	5254.4	
277.94	2875.3	
278.15	3168.9	
278.36	5016.8	
278.57	4562.9	
278.78	3140.2	
278.99	3575.1	
279.2	4603.2	
279.41	4524	
279.62	4072	
279.83	2975	
280.04	5769.8	
280.25	4503.5	
280.46	4044.1	
280.67	3358	
280.88	4564.9	
281.09	5278.3	
281.3	3419.4	
281.51	4254.3	
281.72	4654.4	
281.93	5183.4	
282.14	3080.1	
282.35	3355.3	
282.56	5270.8	
282.77	5186.8	
282.98	3189.4	
283.19	3814.7	
283.4	6214.9	
283.61	4824.3	
283.82	2964.8	
284.03	3954.6	
284.24	4998.4	
284.45	5270.8	
284.66	4012.7	
284.87	3807.9	
285.08	5312.4	
285.29	5361.6	
285.5	2854.9	
285.71	3235.1	
285.92	5274.2	
286.12	5847	
286.33	3994.2	
286.54	3220.8	
286.75	5182	
286.96	4743.1	
287.17	2945.7	
287.38	3908.9	
287.59	4610	
287.8	4545.1	
288.01	3254.9	
288.22	3642.7	
288.43	5199.1	
288.64	4441.4	
288.85	3767.6	
289.06	3588	
289.27	5453.1	
289.48	5532.2	
289.69	4037.2	
289.9	3672	
290.11	5399.1	
290.32	4669.4	
290.53	3762.1	
290.74	3467.9	
290.94	5126.7	
291.15	5208.7	
291.36	3089.7	
291.57	3691.8	
291.78	4681	
291.99	4391.5	
292.2	3065.8	
292.41	3500.7	
292.62	5306.3	
292.83	5059.2	
293.04	4330.8	
293.25	3028.9	
293.46	4760.8	
293.67	5263.3	
293.88	3085.6	
294.09	2921.1	
294.29	4556.7	
294.5	4978.6	
294.71	3321.8	
294.92	3159.3	
295.13	4738.3	
295.34	5659.9	
295.55	2801.6	
295.76	2966.8	
295.97	5214.8	
296.18	5713.2	
296.39	2950.4	
296.6	3094.5	
296.81	4893.3	
297.01	5174.5	
297.22	3235.1	
297.43	3117.7	
297.64	4616.1	
297.85	4549.2	
298.06	2621.4	
298.27	2847.4	
298.48	4850.3	
298.69	4615.4	
298.9	3330.7	
299.11	3048.7	
299.31	4487.8	
299.52	4484.4	
299.73	3599	
299.94	3475.4	
300.15	4876.9	
300.36	4620.9	
300.57	3573	
300.78	3467.9	
300.99	4690.5	
301.2	4935.6	
301.4	3151.8	
301.61	3335.5	
301.82	5133.6	
302.03	5173.2	
302.24	3724.6	
302.45	2994.1	
302.66	5087.2	
302.87	5391.6	
303.08	3146.4	
303.29	4095.9	
303.49	4678.9	
303.7	4816.8	
303.91	2848.7	
304.12	3962.1	
304.33	4470	
304.54	4997	
304.75	3106.8	
304.96	2993.4	
305.16	5120.6	
305.37	5683.1	
305.58	2751.8	
305.79	2796.8	
306	5136.3	
306.21	4341.7	
306.42	3158	
306.63	4579.3	
306.83	4747.9	
307.04	5256.5	
307.25	3429.7	
307.46	3335.5	
307.67	4261.1	
307.88	5184.1	
308.09	3090.4	
308.29	3182.5	
308.5	4921.3	
308.71	5297.4	
308.92	3267.2	
309.13	2964.1	
309.34	4788.2	
309.55	4783.4	
309.75	3807.2	
309.96	3480.2	
310.17	5117.9	
310.38	4656.4	
310.59	3660.4	
310.8	2938.8	
311.01	5692.7	
311.21	4784.1	
311.42	3033.7	
311.63	3102	
311.84	4709.6	
312.05	4888.5	
312.26	3414.6	
312.46	3739.6	
312.67	4732.2	
312.88	4516.5	
313.09	3027.6	
313.3	2968.9	
313.51	5476.3	
313.71	5712.5	
313.92	3015.3	
314.13	3167.5	
314.34	5070.8	
314.55	4778.6	
314.76	3809.2	
314.96	3297.2	
315.17	4984.1	
315.38	5208.7	
315.59	3067.2	
315.8	2897.2	
316.01	5437.4	
316.21	5611.4	
316.42	2937.5	
316.63	3312.2	
316.84	4801.8	
317.05	5360.9	
317.26	3530.7	
317.46	3194.1	
317.67	4790.2	
317.88	5150	
318.09	3512.3	
318.3	2797.5	
318.5	4696	
318.71	5034.6	
318.92	4664.6	
319.13	3564.1	
319.34	5235.3	
319.54	5369.8	
319.75	2833	
319.96	2724.5	
320.17	5138.4	
320.38	5339.1	
320.58	2779.8	
320.79	3186	
321	5271.5	
321.21	5350	
321.42	3315.7	
321.62	2821.4	
321.83	4589.5	
322.04	4909.7	
322.25	3180.5	
322.46	3059	
322.66	4921.3	
322.87	5089.9	
323.08	3604.4	
323.29	2962.7	
323.5	5659.9	
323.7	4513.7	
323.91	3958	
324.12	3602.4	
324.33	4960.2	
324.53	5147.9	
324.74	3488.4	
324.95	3685	
325.16	4393.6	
325.37	4714.4	
325.57	3085.6	
325.78	3086.3	
325.99	4901.5	
326.2	4447.5	
326.4	4248.2	
326.61	2837.1	
326.82	4797.7	
327.03	4924.7	
327.24	4104.8	
327.44	3924.6	
327.65	5096.7	
327.86	4250.2	
328.07	3513.6	
328.27	2953.2	
328.48	5370.5	
328.69	4491.2	
328.9	4208.6	
329.1	3206.4	
329.31	4803.2	
329.52	5473.5	
329.73	3018.7	
329.93	3312.2	
330.14	4878.9	
330.35	5003.9	
330.56	4763.6	
330.76	3661.1	
330.97	4731.5	
331.18	4946.5	
331.39	3359.4	
331.59	2763.4	
331.8	5370.5	
332.01	5432.6	
332.22	3138.9	
332.42	3457	
332.63	4958.1	
332.84	4645.5	
333.05	3364.8	
333.25	3075.4	
333.46	4675.5	
333.67	4816.1	
333.88	3205.8	
334.08	3445.4	
334.29	6242.9	
334.5	5352.7	
334.7	2929.3	
334.91	4186	
335.12	4448.2	
335.33	5161.6	
335.53	3339.6	
335.74	4685.8	
335.95	4741	
336.16	4498	
336.36	3280.8	
336.57	3796.9	
336.78	4445.5	
336.98	5346.6	
337.19	3988.8	
337.4	3226.9	
337.61	5685.2	
337.81	4476.2	
338.02	3093.8	
338.23	3846.8	
338.43	5438	
338.64	4597	
338.85	3088.3	
339.05	3945.8	
339.26	5539.8	
339.47	4411.3	
339.68	3029.6	
339.88	4362.2	
340.09	5062.6	
340.3	5210	
340.5	3465.2	
340.71	2704.7	
340.92	4451.6	
341.13	5384.8	
341.33	2969.6	
341.54	3505.4	
341.75	5028.4	
341.95	4738.3	
342.16	3414	
342.37	3573	
342.57	4540.3	
342.78	4827.1	
342.99	3697.3	
343.19	2784.6	
343.4	5197.1	
343.61	5010	
343.81	3239.9	
344.02	2959.3	
344.23	5171.8	
344.43	5403.2	
344.64	3696.6	
344.85	3599.6	
345.06	5077.6	
345.26	5283.1	
345.47	3489.1	
345.68	3992.2	
345.88	4386.7	
346.09	5139.7	
346.3	3558	
346.5	2734	
346.71	4773.1	
346.92	4668	
347.12	2887	
347.33	3465.8	
347.54	5289.9	
347.74	5541.1	
347.95	3389.4	
348.16	2666.5	
348.36	4730.8	
348.57	4557.4	
348.78	3463.1	
348.98	3659	
349.19	4808.6	
349.39	4419.5	
349.6	2860.3	
349.81	3084.2	
350.01	5058.5	
350.22	4631.8	
350.43	3344.3	
350.63	3974.4	
350.84	4889.2	
351.05	4642.7	
351.25	3096.5	
351.46	2824.1	
351.67	5251	
351.87	4616.8	
352.08	3241.3	
352.29	3622.9	
352.49	5204.6	
352.7	5214.8	
352.9	2993.4	
353.11	3649.5	
353.32	5688.6	
353.52	4712.4	
353.73	2969.6	
353.94	3685.7	
354.14	5152.7	
354.35	4904.2	
354.55	3080.8	
354.76	3368.9	
354.97	5089.9	
355.17	4810	
355.38	2889.7	
355.59	3847.5	
355.79	4612	
356	4896	
356.2	3336.1	
356.41	3016.7	
356.62	4498	
356.82	4832.5	
357.03	3607.8	
357.24	3285.6	
357.44	4716.5	
357.65	4812	
357.85	4253.6	
358.06	3431.7	
358.27	4455	
358.47	4668	
358.68	3014.6	
358.88	3598.3	
359.09	5108.3	
359.3	5365.7	
359.5	4128.7	
359.71	3703.4	
359.91	5680.4	
360.12	5210.7	
360.33	3693.9	
360.53	4057.7	
360.74	4717.2	
360.94	4835.3	
361.15	3816.7	
361.36	3244	
361.56	5367	
361.77	4923.3	
361.97	4083.6	
362.18	3481.5	
362.38	5387.5	
362.59	4717.2	
362.8	3237.2	
363	3186	
363.21	4504.8	
363.41	5022.3	
363.62	3640.6	
363.83	4315.1	
364.03	5148.6	
364.24	5803.3	
364.44	4459.8	
364.65	4386.7	
364.85	4973.8	
365.06	4813.4	
365.27	3391.4	
365.47	3448.8	
365.68	5750	
365.88	4952	
366.09	3707.5	
366.29	3452.9	
366.5	5138.4	
366.71	5459.2	
366.91	4434.5	
367.12	3855.6	
367.32	5968.5	
367.53	5356.8	
367.73	3908.9	
367.94	4565.6	
368.14	5372.5	
368.35	6031.3	
368.56	3820.1	
368.76	3371.6	
368.97	5472.9	
369.17	6630	
369.38	3452.2	
369.58	3642.7	
369.79	4702.8	
369.99	5717.9	
370.2	4425.7	
370.4	3749.1	
370.61	5201.8	
370.82	6180.1	
371.02	3704.8	
371.23	3218.7	
371.43	4795	
371.64	5689.9	
371.84	3781.9	
372.05	4599.7	
372.25	6649.8	
372.46	5412.1	
372.66	3740.3	
372.87	3768.9	
373.07	5520.6	
373.28	6736.5	
373.48	4528.7	
373.69	4254.3	
373.9	5300.8	
374.1	5254.4	
374.31	4501.4	
374.51	4160.1	
374.72	5802.6	
374.92	5064.6	
375.13	4633.9	
375.33	4058.4	
375.54	5615.5	
375.74	5226.4	
375.95	4181.3	
376.15	5084.4	
376.36	5669.5	
376.56	5524.7	
376.77	4239.3	
376.97	4504.2	
377.18	6522.8	
377.38	5788.2	
377.59	4798.4	
377.79	3896.6	
378	5655.8	
378.2	5903.6	
378.41	3964.9	
378.61	4002.4	
378.82	6060.6	
379.02	5479.7	
379.23	4125.3	
379.43	4931.5	
379.64	6210.1	
379.84	5854.5	
380.05	4063.9	
380.25	3988.1	
380.46	5896.1	
380.66	5565.7	
380.87	4949.3	
381.07	5239.4	
381.28	6349.4	
381.48	5853.1	
381.69	4044.7	
381.89	4098.7	
382.1	5174.5	
382.3	5953.4	
382.51	4825.7	
382.71	5492.7	
382.91	5771.2	
383.12	6191.7	
383.32	4301.4	
383.53	4412.7	
383.73	5718.6	
383.94	5600.5	
384.14	4386.7	
384.35	3827.7	
384.55	5544.5	
384.76	5746.6	
384.96	4276.8	
385.17	4486.4	
385.37	5859.9	
385.58	5265.3	
385.78	4438.6	
385.98	3671.3	
386.19	5435.3	
386.39	5724.1	
386.6	4043.4	
386.8	4221.5	
387.01	5758.2	
387.21	5825.8	
387.42	4502.1	
387.62	4938.3	
387.83	5365.7	
388.03	5695.4	
388.23	4365.6	
388.44	4885.8	
388.64	5209.3	
388.85	5267.4	
389.05	4585.4	
389.26	4977.2	
389.46	6812.2	
389.67	6305	
389.87	4642.7	
390.07	4618.9	
390.28	5689.9	
390.48	5375.2	
390.69	4123.2	
390.89	4313	
391.1	5508.4	
391.3	6141.9	
391.5	5209.3	
391.71	5609.4	
391.91	6009.4	
392.12	6662.7	
392.32	5229.1	
392.53	4564.9	
392.73	5619.6	
392.93	5705	
393.14	4420.9	
393.34	5197.7	
393.55	6011.5	
393.75	5649.7	
393.95	4358.1	
394.16	4331.5	
394.36	5569.8	
394.57	5996.5	
394.77	4010.6	
394.98	4301.4	
395.18	5431.2	
395.38	5516.5	
395.59	4936.3	
395.79	4258.4	
396	5687.9	
396.2	6063.4	
396.4	4982.7	
396.61	4853.7	
396.81	6196.5	
397.02	5721.3	
397.22	5159.5	
397.42	5201.2	
397.63	6281.8	
397.83	5666.7	
398.04	4365.6	
398.24	4847.5	
398.44	6120	
398.65	5397.1	
398.85	4326	
399.05	4377.9	
399.26	5769.8	
399.46	6980.2	
399.67	4698.7	
399.87	4522.6	
400.07	6042.9	
400.28	6282.5	
400.48	4591.5	
400.69	5454.4	
400.89	6470.9	
401.09	6896.2	
401.3	4639.3	
401.5	5395.7	
401.7	7038.2	
401.91	7281.2	
402.11	4906.3	
402.32	5014.8	
402.52	6621.1	
402.72	6492.1	
402.93	5199.8	
403.13	4306.9	
403.33	7062.8	
403.54	6051.1	
403.74	4857.1	
403.94	5377.3	
404.15	6047.7	
404.35	6939.9	
404.56	4599.7	
404.76	5911.8	
404.96	6315.3	
405.17	6156.9	
405.37	5246.2	
405.57	5099.4	
405.78	6530.3	
405.98	6071.5	
406.18	4727.4	
406.39	5404.6	
406.59	6526.2	
406.79	6134.3	
407	4558.8	
407.2	4633.9	
407.4	6528.2	
407.61	6661.4	
407.81	4640.7	
408.01	6197.8	
408.22	5695.4	
408.42	7178.1	
408.62	5588.2	
408.83	5239.4	
409.03	6422.4	
409.23	6307.7	
409.44	5429.2	
409.64	5646.9	
409.84	7305.8	
410.05	7265.5	
410.25	5708.4	
410.45	5543.9	
410.66	7041.6	
410.86	8923.7	
411.06	5978	
411.27	5949.3	
411.47	8799.4	
411.67	7285.3	
411.88	6070.9	
412.08	6423.8	
412.28	7757.7	
412.49	8194.6	
412.69	6135.7	
412.89	6189	
413.09	8085.4	
413.3	8056	
413.5	6282.5	
413.7	5930.2	
413.91	7556.3	
414.11	8109.3	
414.31	6234	
414.52	6599.9	
414.72	7921.5	
414.92	7933.1	
415.12	6149.4	
415.33	6638.1	
415.53	8228.7	
415.73	8340.7	
415.94	6909.2	
416.14	6346	
416.34	7509.2	
416.55	7323.5	
416.75	7281.9	
416.95	6963.8	
417.15	8400.8	
417.36	8753.7	
417.56	7651.9	
417.76	6864.1	
417.97	8548.9	
418.17	8372.1	
418.37	6626.5	
418.57	6733.7	
418.78	8282.7	
418.98	8041.7	
419.18	7300.3	
419.38	7277.8	
419.59	8013.7	
419.79	7666.2	
419.99	6490	
420.2	6799.3	
420.4	8348.9	
420.6	8402.1	
420.8	6447.7	
421.01	6289.3	
421.21	8299.7	
421.41	8300.4	
421.61	6796.5	
421.82	6483.2	
422.02	7950.9	
422.22	8619.9	
422.42	7193.8	
422.63	6780.1	
422.83	7895.6	
423.03	8993.3	
423.23	6840.2	
423.44	6047	
423.64	7989.1	
423.84	7575.4	
424.04	6358.9	
424.25	6134.3	
424.45	8677.2	
424.65	8525	
424.85	5954.1	
425.06	6423.1	
425.26	8657.4	
425.46	7764.5	
425.66	6689.3	
425.87	6488	
426.07	8344.8	
426.27	8103.8	
426.47	6554.9	
426.67	6042.2	
426.88	8569.4	
427.08	8047.8	
427.28	6873.7	
427.48	5984.8	
427.69	7290.1	
427.89	7819.8	
428.09	6634.1	
428.29	6044.2	
428.5	8316.8	
428.7	7944.8	
428.9	5889.3	
429.1	6336.4	
429.3	7976.2	
429.51	8187.8	
429.71	6231.3	
429.91	6818.4	
430.11	8222.6	
430.31	8477.9	
430.52	6466.8	
430.72	6683.9	
430.92	8648.6	
431.12	8204.8	
431.32	6267.5	
431.53	6557.6	
431.73	7385.7	
431.93	8719.6	
432.13	6143.2	
432.33	6113.2	
432.54	7794.6	
432.74	8061.5	
432.94	6118.6	
433.14	6870.9	
433.34	8268.3	
433.55	8045.8	
433.75	6898.2	
433.95	8392.6	
434.15	8125	
434.35	7914.7	
434.56	6270.2	
434.76	6075	
434.96	8153	
435.16	8467.7	
435.36	6245.6	
435.56	7161.7	
435.77	7945.4	
435.97	8172.1	
436.17	7767.3	
436.37	7146.7	
436.57	7996	
436.78	8054	
436.98	8471.8	
437.18	7572.7	
437.38	8570.7	
437.58	8146.8	
437.78	7725.6	
437.99	6684.6	
438.19	8466.3	
438.39	9572.2	
438.59	6603.3	
438.79	6245.6	
438.99	8888.2	
439.2	8073.8	
439.4	6072.2	
439.6	6190.3	
439.8	8200.1	
440	9050.7	
440.2	6977.4	
440.4	7073.7	
440.61	8614.4	
440.81	9065.7	
441.01	6554.2	
441.21	7372	
441.41	9196.7	
441.61	8880	
441.81	7603.4	
442.02	8348.2	
442.22	9561.3	
442.42	8979.7	
442.62	6771.9	
442.82	6711.2	
443.02	9223.4	
443.22	8595.3	
443.43	7215	
443.63	6767.2	
443.83	8310.7	
444.03	8389.8	
444.23	7808.2	
444.43	7380.9	
444.63	8783.7	
444.83	9695.1	
445.04	7079.1	
445.24	7876.5	
445.44	8955.1	
445.64	8974.9	
445.84	7436.9	
446.04	7642.3	
446.24	8460.8	
446.44	9221.3	
446.65	6764.4	
446.85	7096.2	
447.05	8341.4	
447.25	9010.4	
447.45	7165.2	
447.65	6675	
447.85	8531.8	
448.05	8207.6	
448.25	7406.8	
448.46	7228.6	
448.66	8594	
448.86	8320.2	
449.06	6535.8	
449.26	7298.3	
449.46	8826.7	
449.66	8138.6	
449.86	7141.3	
450.06	7068.9	
450.26	8263.6	
450.47	8822	
450.67	7155.6	
450.87	7566.6	
451.07	8897.1	
451.27	8695.7	
451.47	6749.4	
451.67	7251.2	
451.87	8454	
452.07	9232.9	
452.27	7002	
452.47	6943.3	
452.67	8726.4	
452.88	9071.8	
453.08	6456.6	
453.28	8004.1	
453.48	9661	
453.68	8496.3	
453.88	6991.8	
454.08	7049.8	
454.28	8927.8	
454.48	8681.3	
454.68	7449.1	
454.88	7798	
455.08	9015.8	
455.28	8918.2	
455.48	6737.1	
455.68	7425.3	
455.89	9523.7	
456.09	9268.4	
456.29	7171.3	
456.49	7359	
456.69	9465.7	
456.89	8777.6	
457.09	7665.5	
457.29	8076.5	
457.49	9224.1	
457.69	9332.6	
457.89	7830.1	
458.09	7179.5	
458.29	9091.6	
458.49	9671.9	
458.69	8046.5	
458.89	7626.6	
459.09	9925.8	
459.29	9979.8	
459.49	7651.9	
459.69	8348.2	
459.9	9597.5	
460.1	9305.3	
460.3	7567.2	
460.5	7408.2	
460.7	9560.6	
460.9	9258.9	
461.1	7229.3	
461.3	8220.5	
461.5	10131	
461.7	9814.5	
461.9	7686.7	
462.1	7894.2	
462.3	9553.1	
462.5	10041	
462.7	7792.5	
462.9	7933.8	
463.1	10800	
463.3	10654	
463.5	8172.1	
463.7	8946.2	
463.9	9908.1	
464.1	10044	
464.3	8345.5	
464.5	8493.6	
464.7	10314	
464.9	10249	
465.1	9602.9	
465.3	8948.3	
465.5	10602	
465.7	10724	
465.9	9228.1	
466.1	8736.6	
466.3	10660	
466.5	10335	
466.7	9736	
466.9	8826.1	
467.1	10547	
467.3	11209	
467.5	9671.2	
467.7	8773.5	
467.9	11397	
468.1	12069	
468.3	9366.7	
468.5	9740.1	
468.7	10615	
468.9	10500	
469.1	9129.8	
469.3	9710.1	
469.5	12217	
469.7	10450	
469.9	9424.8	
470.1	9065.7	
470.3	10747	
470.5	10745	
470.7	9933.3	
470.9	9065	
471.1	10567	
471.3	10731	
471.5	8931.9	
471.69	10309	
471.89	10359	
472.09	9946.3	
472.29	9432.3	
472.49	9553.8	
472.69	10077	
472.89	10641	
473.09	8770.8	
473.29	8809	
473.49	10174	
473.69	10182	
473.89	9493	
474.09	8912.8	
474.29	11305	
474.49	10915	
474.69	9428.2	
474.89	8930.5	
475.09	10263	
475.29	10204	
475.49	8372.1	
475.69	8712.7	
475.88	11382	
476.08	10509	
476.28	8308.6	
476.48	8591.9	
476.68	10658	
476.88	10528	
477.08	8563.2	
477.28	8841.1	
477.48	10076	
477.68	10457	
477.88	8277.9	
478.08	8551.6	
478.28	10871	
478.48	10131	
478.67	8559.1	
478.87	7997.3	
479.07	10705	
479.27	10234	
479.47	8799.4	
479.67	8714.8	
479.87	10641	
480.07	10957	
480.27	8281.3	
480.47	9337.4	
480.67	10154	
480.87	10802	
481.06	8428.8	
481.26	9069.8	
481.46	10292	
481.66	10103	
481.86	8753	
482.06	9407.7	
482.26	10004	
482.46	10708	
482.66	8646.5	
482.86	8430.8	
483.05	10327	
483.25	9676	
483.45	10587	
483.65	8574.2	
483.85	9869.8	
484.05	10168	
484.25	9015.8	
484.45	9444.5	
484.65	10746	
484.84	11021	
485.04	8563.2	
485.24	8712.7	
485.44	11198	
485.64	9830.9	
485.84	8239.7	
486.04	9182.4	
486.24	10187	
486.44	10425	
486.63	8231.5	
486.83	8977.6	
487.03	10090	
487.23	10357	
487.43	8301.1	
487.63	10231	
487.83	10474	
488.02	11135	
488.22	9180.4	
488.42	9704	
488.62	11139	
488.82	10309	
489.02	8884.1	
489.22	8971.5	
489.41	10964	
489.61	10899	
489.81	8735.3	
490.01	8677.9	
490.21	11085	
490.41	11582	
490.61	8712.7	
490.8	8848.6	
491	10796	
491.2	10169	
491.4	9300.5	
491.6	8624	
491.8	10586	
491.99	10573	
492.19	8469.7	
492.39	8663.6	
492.59	10871	
492.79	10950	
492.99	9289.6	
493.18	8677.2	
493.38	11084	
493.58	11569	
493.78	9330.5	
493.98	8881.4	
494.18	10848	
494.37	10540	
494.57	9653.4	
494.77	9472.5	
494.97	11250	
495.17	11432	
495.37	9323	
495.56	9584.5	
495.76	11873	
495.96	11404	
496.16	10433	
496.36	9673.2	
496.55	11749	
496.75	11336	
496.95	10066	
497.15	9837.1	
497.35	11667	
497.54	11672	
497.74	9610.4	
497.94	11176	
498.14	12261	
498.34	11990	
498.53	9521.7	
498.73	10150	
498.93	11218	
499.13	11800	
499.33	10058	
499.52	10202	
499.72	11879	
499.92	11882	
500.12	9847.3	
500.32	10034	
500.51	12004	
500.71	11804	
500.91	10701	
501.11	10341	
501.31	12048	
501.5	12265	
501.7	10884	
501.9	10022	
502.1	11717	
502.29	12091	
502.49	10505	
502.69	10660	
502.89	11968	
503.09	11970	
503.28	9538.1	
503.48	9644.6	
503.68	11262	
503.88	11332	
504.07	10435	
504.27	9946.3	
504.47	11566	
504.67	11549	
504.86	10398	
505.06	9958.6	
505.26	11193	
505.46	12570	
505.65	9796.1	
505.85	10015	
506.05	11060	
506.25	11467	
506.44	9202.9	
506.64	9910.1	
506.84	10895	
507.04	11518	
507.23	9202.2	
507.43	9718.3	
507.63	12395	
507.83	10924	
508.02	9640.5	
508.22	9411.1	
508.42	12497	
508.62	10768	
508.81	9372.2	
509.01	9968.1	
509.21	10461	
509.4	10787	
509.6	9525.1	
509.8	9206.3	
510	10782	
510.19	11832	
510.39	9012.4	
510.59	9211.8	
510.79	10630	
510.98	11752	
511.18	9368.8	
511.38	9393.4	
511.57	11372	
511.77	11042	
511.97	9824.1	
512.17	9111.4	
512.36	11298	
512.56	11065	
512.76	9084.1	
512.95	8826.1	
513.15	11430	
513.35	10294	
513.55	9795.4	
513.74	9000.1	
513.94	11293	
514.14	10765	
514.33	9866.4	
514.53	9638.4	
514.73	10884	
514.92	10950	
515.12	9214.5	
515.32	9098.4	
515.51	11046	
515.71	11454	
515.91	10598	
516.11	9214.5	
516.3	12362	
516.5	10793	
516.7	9713.5	
516.89	10152	
517.09	10886	
517.29	10854	
517.48	9860.3	
517.68	9479.4	
517.88	10693	
518.07	11245	
518.27	9929.2	
518.47	9043.1	
518.66	11630	
518.86	10482	
519.06	8964.6	
519.25	9314.8	
519.45	10675	
519.65	12008	
519.84	9768.8	
520.04	10487	
520.24	12343	
520.43	11215	
520.63	9708.7	
520.83	9425.4	
521.02	10726	
521.22	11239	
521.42	9764.7	
521.61	10193	
521.81	10919	
522.01	11033	
522.2	9639.1	
522.4	9474.6	
522.6	11316	
522.79	10298	
522.99	9491	
523.18	9052.7	
523.38	11262	
523.58	11246	
523.77	10620	
523.97	9240.4	
524.17	12766	
524.36	12153	
524.56	10279	
524.76	10092	
524.95	11411	
525.15	11211	
525.34	10000	
525.54	9998.2	
525.74	11940	
525.93	11187	
526.13	11085	
526.33	10175	
526.52	12297	
526.72	11856	
526.91	11133	
527.11	10593	
527.31	12306	
527.5	12751	
527.7	10628	
527.89	9873.3	
528.09	11498	
528.29	11949	
528.48	10865	
528.68	10537	
528.87	12291	
529.07	12322	
529.27	10630	
529.46	10352	
529.66	12301	
529.85	12667	
530.05	10337	
530.25	10921	
530.44	13433	
530.64	12176	
530.83	10597	
531.03	10828	
531.23	12589	
531.42	12265	
531.62	11234	
531.81	10611	
532.01	12788	
532.21	12889	
532.4	10598	
532.6	10922	
532.79	13220	
532.99	12892	
533.18	11047	
533.38	11892	
533.58	12638	
533.77	13189	
533.97	11320	
534.16	11870	
534.36	13511	
534.55	12755	
534.75	11970	
534.95	11314	
535.14	13504	
535.34	12846	
535.53	11060	
535.73	12545	
535.92	13941	
536.12	12809	
536.31	11223	
536.51	12081	
536.71	13220	
536.9	12838	
537.1	11226	
537.29	11273	
537.49	13407	
537.68	12671	
537.88	11631	
538.07	10942	
538.27	12785	
538.46	13719	
538.66	10887	
538.86	11452	
539.05	13017	
539.25	13327	
539.44	11731	
539.64	11217	
539.83	12988	
540.03	13689	
540.22	11162	
540.42	11273	
540.61	12955	
540.81	13276	
541	11526	
541.2	11959	
541.39	12653	
541.59	12861	
541.78	11776	
541.98	11103	
542.18	12241	
542.37	12338	
542.57	11389	
542.76	11817	
542.96	12278	
543.15	12765	
543.35	11316	
543.54	10837	
543.74	12937	
543.93	12713	
544.13	10997	
544.32	11941	
544.52	12856	
544.71	12143	
544.91	10258	
545.1	11228	
545.3	12083	
545.49	12610	
545.69	10190	
545.88	10746	
546.08	13439	
546.27	12962	
546.47	11043	
546.66	10360	
546.86	12635	
547.05	13146	
547.24	10771	
547.44	10558	
547.63	11967	
547.83	12854	
548.02	10871	
548.22	11087	
548.41	11831	
548.61	12813	
548.8	10327	
549	10438	
549.19	12275	
549.39	12493	
549.58	10165	
549.78	10698	
549.97	12540	
550.17	12069	
550.36	11135	
550.55	12087	
550.75	12045	
550.94	12660	
551.14	10179	
551.33	10479	
551.53	11469	
551.72	12332	
551.92	10494	
552.11	10320	
552.31	12288	
552.5	12081	
552.69	11772	
552.89	9993.4	
553.08	12086	
553.28	11989	
553.47	10386	
553.67	11252	
553.86	12696	
554.06	11250	
554.25	9598.1	
554.44	10064	
554.64	13169	
554.83	12810	
555.03	10019	
555.22	10429	
555.42	12250	
555.61	12006	
555.8	10157	
556	10346	
556.19	11331	
556.39	12265	
556.58	10139	
556.78	10191	
556.97	11895	
557.16	11617	
557.36	11088	
557.55	9951.1	
557.75	11034	
557.94	12400	
558.13	9850.7	
558.33	9757.2	
558.52	12301	
558.72	11313	
558.91	9865.7	
559.1	9911.5	
559.3	11119	
559.49	10952	
559.69	9349	
559.88	10126	
560.07	11684	
560.27	11972	
560.46	10256	
560.66	10465	
560.85	11466	
561.04	10841	
561.24	9576.3	
561.43	9729.2	
561.63	11030	
561.82	11326	
562.01	10793	
562.21	9967.5	
562.4	11483	
562.59	12245	
562.79	9895.1	
562.98	9560.6	
563.18	11430	
563.37	12613	
563.56	10126	
563.76	9617.9	
563.95	11107	
564.14	11071	
564.34	9932	
564.53	9716.9	
564.73	11557	
564.92	11684	
565.11	10047	
565.31	9478.7	
565.5	11933	
565.69	11002	
565.89	9716.2	
566.08	9875.3	
566.27	11792	
566.47	12134	
566.66	10446	
566.85	9371.5	
567.05	11564	
567.24	11119	
567.44	9549	
567.63	10598	
567.82	11760	
568.02	11420	
568.21	9521.7	
568.4	9776.3	
568.6	11329	
568.79	11346	
568.98	9449.3	
569.18	9500.5	
569.37	11328	
569.56	12790	
569.76	9779.7	
569.95	10507	
570.14	11600	
570.34	11430	
570.53	9527.8	
570.72	9442.5	
570.91	12002	
571.11	11243	
571.3	9663	
571.49	10340	
571.69	11214	
571.88	10796	
572.07	10037	
572.27	9930.6	
572.46	10830	
572.65	11560	
572.85	9516.9	
573.04	9795.4	
573.23	11783	
573.43	11128	
573.62	9261.6	
573.81	9784.5	
574	11289	
574.2	11032	
574.39	9627.5	
574.58	9673.9	
574.78	11912	
574.97	11297	
575.16	9972.2	
575.36	10047	
575.55	11645	
575.74	11684	
575.93	9315.5	
576.13	10182	
576.32	11133	
576.51	11684	
576.71	9583.1	
576.9	10782	
577.09	11921	
577.28	11411	
577.48	9947	
577.67	9187.9	
577.86	11240	
578.05	11372	
578.25	9706.7	
578.44	9716.2	
578.63	11243	
578.83	12242	
579.02	9285.5	
579.21	10393	
579.4	11402	
579.6	11272	
579.79	9794.1	
579.98	11467	
580.17	11769	
580.37	11801	
580.56	9338.7	
580.75	9990	
580.94	11938	
581.14	11920	
581.33	10264	
581.52	9510.1	
581.71	11462	
581.91	12065	
582.1	9286.2	
582.29	9796.1	
582.48	11211	
582.68	11299	
582.87	10196	
583.06	9842.5	
583.25	11515	
583.45	11238	
583.64	10333	
583.83	10833	
584.02	11198	
584.21	11593	
584.41	10276	
584.6	9743.6	
584.79	11448	
584.98	11953	
585.18	9379	
585.37	9394.7	
585.56	11025	
585.75	11607	
585.94	9510.8	
586.14	10135	
586.33	11980	
586.52	11228	
586.71	9912.9	
586.91	9622	
587.1	10604	
587.29	11477	
587.48	9484.8	
587.67	9361.3	
587.87	11243	
588.06	11237	
588.25	10369	
588.44	9743.6	
588.63	10852	
588.83	11260	
589.02	9266.4	
589.21	9056.8	
589.4	10626	
589.59	10550	
589.78	8325	
589.98	8460.2	
590.17	9899.2	
590.36	10262	
590.55	7781.6	
590.74	8389.2	
590.94	11107	
591.13	9896.5	
591.32	8077.2	
591.51	7699.7	
591.7	10106	
591.89	9800.2	
592.09	7735.2	
592.28	8030.8	
592.47	9176.9	
592.66	10776	
592.85	7693.5	
593.05	7925.6	
593.24	9695.8	
593.43	10275	
593.62	8006.2	
593.81	8469.7	
594	9741.5	
594.19	9959.3	
594.39	8026	
594.58	7989.1	
594.77	10038	
594.96	10535	
595.15	7991.9	
595.34	8410.3	
595.54	9981.1	
595.73	9308.7	
595.92	7385	
596.11	8272.4	
596.3	10350	
596.49	9302.6	
596.68	8041.7	
596.88	8419.2	
597.07	10103	
597.26	9213.1	
597.45	7665.5	
597.64	8662.2	
597.83	9504.6	
598.02	9919	
598.22	7765.2	
598.41	8366	
598.6	9846.6	
598.79	9301.2	
598.98	7854.6	
599.17	8607.6	
599.36	9829.6	
599.55	10531	
599.74	9376.3	
599.94	9283.4	
600.13	10187	
600.32	9310.1	
600.51	7636.9	
600.7	7752.2	
600.89	10716	
601.08	10736	
601.27	7606.2	
601.47	8363.9	
601.66	10168	
601.85	10619	
602.04	8234.9	
602.23	8321.6	
602.42	9480.7	
602.61	9897.2	
602.8	8135.2	
602.99	7976.8	
603.18	9729.9	
603.37	9946.3	
603.57	8376.9	
603.76	8803.5	
603.95	10517	
604.14	10178	
604.33	7925	
604.52	8171.4	
604.71	9960	
604.9	9559.9	
605.09	8596	
605.28	8539.3	
605.47	10386	
605.66	10025	
605.86	8480.6	
606.05	7992.5	
606.24	10256	
606.43	9140.1	
606.62	8247.2	
606.81	8816.5	
607	10180	
607.19	9613.8	
607.38	7637.6	
607.57	7879.9	
607.76	9413.1	
607.95	9002.9	
608.14	8259.5	
608.33	8637	
608.52	9405	
608.72	10064	
608.91	7536.5	
609.1	7499	
609.29	9472.5	
609.48	8955.8	
609.67	8166.6	
609.86	7555	
610.05	9142.1	
610.24	9366.7	
610.43	7509.2	
610.62	7072.3	
610.81	10210	
611	10056	
611.19	7542.7	
611.38	8054.7	
611.57	9539.4	
611.76	10509	
611.95	7322.9	
612.14	7165.2	
612.33	9357.9	
612.52	9015.2	
612.71	7736.5	
612.9	7108.5	
613.09	8733.2	
613.28	10507	
613.47	7547.4	
613.66	8187.8	
613.85	9437	
614.04	9061.6	
614.24	7494.2	
614.43	6990.4	
614.62	9544.9	
614.81	9411.1	
615	7993.9	
615.19	7942.7	
615.38	8880	
615.57	9283.4	
615.76	7801.4	
615.95	8499.1	
616.14	9543.5	
616.33	9273.9	
616.52	8042.4	
616.71	8219.2	
616.9	9383.8	
617.09	9300.5	
617.28	7484.6	
617.47	8430.1	
617.66	8710	
617.85	8699.8	
618.04	8213.7	
618.22	7779.6	
618.41	9032.2	
618.6	9802.9	
618.79	7670.3	
618.98	7526.3	
619.17	9995.5	
619.36	8633.6	
619.55	7716.7	
619.74	7682.6	
619.93	9495.1	
620.12	8966.7	
620.31	8085.4	
620.5	8333.9	
620.69	9889.6	
620.88	10272	
621.07	8766	
621.26	8069.7	
621.45	9643.2	
621.64	9551	
621.83	8202.1	
622.02	7540.6	
622.21	9623.4	
622.4	9530.6	
622.59	8582.4	
622.78	8493.6	
622.97	9183.1	
623.16	9895.1	
623.35	8178.2	
623.54	7413.6	
623.72	9280	
623.91	9334.6	
624.1	8256.7	
624.29	7236.2	
624.48	10208	
624.67	9658.2	
624.86	8149.6	
625.05	7511.9	
625.24	10344	
625.43	9099.1	
625.62	9461.6	
625.81	7595.2	
626	9712.2	
626.19	9208.4	
626.38	8186.4	
626.56	7722.9	
626.75	9090.3	
626.94	9640.5	
627.13	8206.9	
627.32	7180.9	
627.51	9628.9	
627.7	10480	
627.89	7238.2	
628.08	8132.5	
628.27	8929.8	
628.46	9075.2	
628.65	7434.1	
628.83	7146.7	
629.02	9488.2	
629.21	8812.4	
629.4	7740	
629.59	7965.2	
629.78	8848.6	
629.97	9614.5	
630.16	7993.2	
630.35	7615	
630.54	10002	
630.72	9785.9	
630.91	7552.9	
631.1	8017.1	
631.29	9400.2	
631.48	9349.7	
631.67	8049.9	
631.86	7652.6	
632.05	9189.2	
632.24	9141.4	
632.42	7303.7	
632.61	7742	
632.8	9090.3	
632.99	8773.5	
633.18	7857.4	
633.37	8079.9	
633.56	9305.3	
633.75	9248.6	
633.93	7853.3	
634.12	7587.7	
634.31	9935.4	
634.5	9656.2	
634.69	7520.8	
634.88	7996.6	
635.07	9200.8	
635.25	9596.1	
635.44	8309.3	
635.63	8488.8	
635.82	9089.6	
636.01	8523.6	
636.2	8160.5	
636.39	7909.3	
636.57	9856.9	
636.76	9548.3	
636.95	7408.2	
637.14	8484.7	
637.33	9399.5	
637.52	10053	
637.7	7264.1	
637.89	8021.2	
638.08	9028.1	
638.27	10030	
638.46	8031.5	
638.65	8439	
638.83	10105	
639.02	8850.6	
639.21	7871.7	
639.4	8360.5	
639.59	9247.9	
639.78	8945.5	
639.96	7375.4	
640.15	7381.6	
640.34	9105.3	
640.53	9113.5	
640.72	7120.8	
640.91	7405.5	
641.09	8686.1	
641.28	9606.3	
641.47	7385.7	
641.66	8004.8	
641.85	9095	
642.03	9251.4	
642.22	7789.8	
642.41	7375.4	
642.6	8594.6	
642.79	8172.8	
642.97	7133.1	
643.16	7695.6	
643.35	8564.6	
643.54	8368.7	
643.73	7071	
643.91	7647.1	
644.1	8277.9	
644.29	8807.6	
644.48	6963.1	
644.67	7155.6	
644.85	8302.5	
645.04	8649.9	
645.23	6773.3	
645.42	6950.1	
645.6	8215.1	
645.79	9104.6	
645.98	6784.2	
646.17	6120.7	
646.36	7849.2	
646.54	8320.9	
646.73	7278.5	
646.92	6456.6	
647.11	7916.1	
647.29	8744.8	
647.48	6436.8	
647.67	6206.7	
647.86	8901.2	
648.05	8789.9	
648.23	6592.4	
648.42	7552.2	
648.61	8351.6	
648.8	8226.7	
648.98	6253.8	
649.17	6574	
649.36	7806.9	
649.55	7459.4	
649.73	6415.6	
649.92	6897.6	
650.11	7819.1	
650.3	8049.9	
650.48	6467.5	
650.67	6394.4	
650.86	8220.5	
651.05	7380.2	
651.23	6408.8	
651.42	6381.5	
651.61	7825.3	
651.79	7815.7	
651.98	6536.4	
652.17	6238.8	
652.36	8148.2	
652.54	7429.3	
652.73	6262	
652.92	6154.8	
653.11	8180.3	
653.29	8154.3	
653.48	5658.5	
653.67	6520.7	
653.85	7852.6	
654.04	8762.6	
654.23	6606.1	
654.42	6303.6	
654.6	7573.4	
654.79	8039.6	
654.98	5928.2	
655.16	6297.5	
655.35	7251.2	
655.54	7002.7	
655.73	5771.2	
655.91	5677.7	
656.1	7894.2	
656.29	6950.1	
656.47	5323.4	
656.66	6754.9	
656.85	7210.9	
657.03	7294.2	
657.22	5851.7	
657.41	5873.6	
657.59	7407.5	
657.78	7190.4	
657.97	5631.9	
658.16	6168.5	
658.34	7916.1	
658.53	8269	
658.72	6960.4	
658.9	7365.9	
659.09	7562.5	
659.28	7577.5	
659.46	6044.2	
659.65	6012.2	
659.84	7350.8	
660.02	7781.6	
660.21	6087.2	
660.4	5862.7	
660.58	8115.4	
660.77	7576.8	
660.96	6378.7	
661.14	5654.4	
661.33	8441.7	
661.52	8316.1	
661.7	5612.1	
661.89	8310	
662.08	7350.8	
662.26	6915.3	
662.45	5815.5	
662.64	5888.6	
662.82	7866.2	
663.01	7253.2	
663.2	5859.2	
663.38	6452.5	
663.57	7802.1	
663.75	7644.4	
663.94	6087.9	
664.13	7119.4	
664.31	7313.3	
664.5	7690.1	
664.69	6268.1	
664.87	6688.7	
665.06	7030.7	
665.25	7621.9	
665.43	6885.3	
665.62	6915.3	
665.8	7807.5	
665.99	7314.7	
666.18	6089.3	
666.36	6168.5	
666.55	7911.3	
666.74	7705.8	
666.92	5853.8	
667.11	7080.5	
667.29	7404.8	
667.48	7795.9	
667.67	6610.2	
667.85	5943.2	
668.04	7264.8	
668.22	7293.5	
668.41	6084.5	
668.6	6320	
668.78	7111.9	
668.97	7331	
669.15	6356.2	
669.34	5500.8	
669.53	7168.6	
669.71	7379.5	
669.9	5657.2	
670.08	6212.2	
670.27	7119.4	
670.46	7571.3	
670.64	6353.5	
670.83	6512.5	
671.01	7040.9	
671.2	7456.7	
671.38	5744.6	
671.57	5700.9	
671.76	8015.1	
671.94	8354.3	
672.13	5542.5	
672.31	6432	
672.5	7701	
672.69	7077.1	
672.87	5757.5	
673.06	5967.1	
673.24	7485.3	
673.43	7144	
673.61	6219.7	
673.8	5861.3	
673.98	7540.6	
674.17	7773.4	
674.36	6392.4	
674.54	6305	
674.73	7356.3	
674.91	7722.9	
675.1	5987.6	
675.28	5753.4	
675.47	7282.6	
675.65	7653.9	
675.84	5883.8	
676.03	6162.3	
676.21	7133.8	
676.4	6748.7	
676.58	6524.8	
676.77	6334.4	
676.95	8249.9	
677.14	7120.1	
677.32	5631.9	
677.51	5552	
677.69	7630.7	
677.88	6836.8	
678.06	5560.9	
678.25	5628.5	
678.44	7240.9	
678.62	7036.1	
678.81	5439.4	
678.99	6163	
679.18	7841	
679.36	7561.1	
679.55	5824.4	
679.73	6303.6	
679.92	7524.2	
680.1	7047.7	
680.29	6786.3	
680.47	5834	
680.66	6986.3	
680.84	7709.2	
681.03	5382.7	
681.21	6040.1	
681.4	7058.7	
681.58	6938.5	
681.77	5640.1	
681.95	5641.5	
682.14	7684	
682.32	7901.1	
682.51	6369.2	
682.69	5424.4	
682.88	6972	
683.06	7380.2	
683.25	6072.2	
683.43	6421.7	
683.62	7168.6	
683.8	7492.8	
683.99	6505	
684.17	5955.5	
684.36	8140.7	
684.54	7105.8	
684.73	5337.7	
684.91	5437.4	
685.1	7301	
685.28	6760.3	
685.46	5803.3	
685.65	5844.9	
685.83	7294.2	
686.02	6736.5	
686.2	5317.2	
686.39	5384.1	
686.57	6589	
686.76	7772.7	
686.94	5354.8	
687.13	5451	
687.31	7148.8	
687.5	6892.1	
687.68	5054.4	
687.86	5949.3	
688.05	8133.8	
688.23	6493.4	
688.42	5996.5	
688.6	5483.8	
688.79	6863.4	
688.97	6769.2	
689.16	5750.7	
689.34	4997.7	
689.52	7299	
689.71	7575.4	
689.89	6018.3	
690.08	5478.3	
690.26	7095.5	
690.45	6890	
690.63	6132.3	
690.81	5591.6	
691	6884.6	
691.18	6748.1	
691.37	5754.1	
691.55	7421.2	
691.74	6787.7	
691.92	8290.2	
692.1	5720.7	
692.29	5273.5	
692.47	6939.2	
692.66	6453.1	
692.84	5411.4	
693.02	5861.3	
693.21	6445.6	
693.39	6987.7	
693.58	5955.5	
693.76	5484.5	
693.94	7814.4	
694.13	7705.1	
694.31	5560.9	
694.5	6386.9	
694.68	6769.2	
694.86	7167.9	
695.05	5882.4	
695.23	6005.3	
695.42	7566.6	
695.6	9219.3	
695.78	6434.7	
695.97	5733.6	
696.15	7662.8	
696.34	7150.8	
696.52	5632.6	
696.7	6250.4	
696.89	7471.7	
697.07	6945.3	
697.25	6155.5	
697.44	7293.5	
697.62	7410.9	
697.81	7580.9	
697.99	5968.5	
698.17	6311.8	
698.36	6896.9	
698.54	7443	
698.72	6242.9	
698.91	5423.7	
699.09	7145.4	
699.28	7093.5	
699.46	5986.2	
699.64	5870.2	
699.83	6956.9	
700.01	7930.4	
700.19	6484.6	
700.38	5368.4	
700.56	7942	
700.74	7107.8	
700.93	5572.5	
701.11	6283.2	
701.29	7595.9	
701.48	8462.2	
701.66	5917.9	
701.84	5966.4	
702.03	7408.2	
702.21	7912.7	
702.39	5686.5	
702.58	6184.2	
702.76	7701	
702.94	7892.2	
703.13	5664.7	
703.31	7594.6	
703.49	7184.3	
703.68	8320.2	
703.86	5867.4	
704.04	6602.7	
704.23	7570.7	
704.41	7961.1	
704.59	6014.9	
704.78	6911.2	
704.96	8666.3	
705.14	8036.2	
705.33	5913.9	
705.51	6569.2	
705.69	7476.5	
705.87	8221.2	
706.06	6768.5	
706.24	5909.8	
706.42	7812.3	
706.61	8009.6	
706.79	6817.7	
706.97	6001.9	
707.16	7444.4	
707.34	7826	
707.52	6778.1	
707.7	6115.2	
707.89	7548.8	
708.07	7340.6	
708.25	6878.4	
708.44	6956.3	
708.62	7483.3	
708.8	8391.2	
708.98	7030	
709.17	6299.6	
709.35	7865.6	
709.53	7840.3	
709.72	6053.8	
709.9	6417	
710.08	8165.3	
710.26	8130.4	
710.45	7307.8	
710.63	6340.5	
710.81	7772.7	
710.99	7834.8	
711.18	6817.7	
711.36	6359.6	
711.54	7645.1	
711.72	8277.2	
711.91	6406	
712.09	6050.4	
712.27	7761.1	
712.45	8262.2	
712.64	6564.4	
712.82	5833.3	
713	7288.7	
713.18	7390.4	
713.37	5838.1	
713.55	6778.1	
713.73	8004.8	
713.91	6974	
714.1	6039.5	
714.28	5623.7	
714.46	7552.9	
714.64	6881.2	
714.83	5084.4	
715.01	5571.8	
715.19	6806.1	
715.37	6316.6	
715.55	5205.9	
715.74	5474.9	
715.92	7365.2	
716.1	5845.6	
716.28	6294.8	
716.47	5520.6	
716.65	6417.7	
716.83	6496.2	
717.01	5354.1	
717.19	5366.4	
717.38	8090.8	
717.56	6085.9	
717.74	5484.5	
717.92	4898.1	
718.1	7152.2	
718.29	6461.3	
718.47	4655.7	
718.65	5177.3	
718.83	7254.6	
719.01	7107.1	
719.2	4769.7	
719.38	5649.7	
719.56	7051.8	
719.74	8298.4	
719.92	5433.3	
720.11	6240.8	
720.29	7182.9	
720.47	6424.5	
720.65	5060.5	
720.83	5612.1	
721.02	6659.3	
721.2	6397.9	
721.38	5577.3	
721.56	4988.9	
721.74	5926.8	
721.92	6040.8	
722.11	5872.2	
722.29	5683.1	
722.47	7092.8	
722.65	6479.8	
722.83	4980.7	
723.01	5608.7	
723.2	6426.5	
723.38	6709.1	
723.56	4513	
723.74	5448.3	
723.92	6032.6	
724.1	6923.5	
724.29	4919.9	
724.47	5798.5	
724.65	6226.5	
724.83	6016.2	
725.01	4820.2	
725.19	5492	
725.37	6072.9	
725.56	6108.4	
725.74	4675.5	
725.92	4933.6	
726.1	6113.2	
726.28	6321.4	
726.46	5172.5	
726.64	5007.3	
726.83	6251.8	
727.01	6475	
727.19	4721.9	
727.37	5324.7	
727.55	6404	
727.73	6789.7	
727.91	4653	
728.09	4605.2	
728.28	6852.5	
728.46	7107.1	
728.64	5405.3	
728.82	5395.7	
729	7664.2	
729.18	7094.8	
729.36	4713.7	
729.54	6588.3	
729.72	7886	
729.91	6606.7	
730.09	6360.3	
730.27	5431.2	
730.45	6567.2	
730.63	7029.3	
730.81	5898.1	
730.99	5165.7	
731.17	7505.1	
731.35	6408.8	
731.53	5519.3	
731.71	5244.2	
731.9	7234.1	
732.08	7356.3	
732.26	5468.1	
732.44	5218.2	
732.62	7415.7	
732.8	7055.9	
732.98	5786.2	
733.16	4942.4	
733.34	7010.2	
733.52	5916.6	
733.7	5342.5	
733.88	5596.4	
734.07	6761.7	
734.25	6567.8	
734.43	4904.9	
734.61	6123.4	
734.79	7849.2	
734.97	6544.6	
735.15	4985.4	
735.33	5296	
735.51	6858.6	
735.69	6500.3	
735.87	6107.7	
736.05	5415.5	
736.23	6738.5	
736.41	6429.9	
736.59	5322	
736.77	5410.7	
736.95	6976.7	
737.13	6521.4	
737.32	5044.1	
737.5	5172.5	
737.68	7404.1	
737.86	6393.8	
738.04	4818.9	
738.22	6264.7	
738.4	6229.9	
738.58	6536.4	
738.76	5292	
738.94	4530.8	
739.12	6410.1	
739.3	6282.5	
739.48	5681.7	
739.66	5567.7	
739.84	6493.4	
740.02	6552.8	
740.2	4565.6	
740.38	4861.9	
740.56	6767.9	
740.74	5862	
740.92	5352.7	
741.1	5258.5	
741.28	6343.9	
741.46	6132.3	
741.64	4873.5	
741.82	5388.9	
742	6417	
742.18	6316.6	
742.36	5070.1	
742.54	4796.3	
742.72	6808.8	
742.9	5730.2	
743.08	5268.7	
743.26	4300.1	
743.44	6868.2	
743.62	6684.6	
743.8	5451	
743.98	4709.6	
744.16	6475.7	
744.34	6270.2	
744.52	5311.7	
744.7	5259.2	
744.88	6592.4	
745.06	6207.4	
745.24	5305.6	
745.42	5453.7	
745.6	6696.9	
745.78	6480.5	
745.96	4302.1	
746.14	4721.3	
746.32	7189.1	
746.5	6541.9	
746.68	5106.3	
746.86	4553.3	
747.03	6881.2	
747.21	5586.2	
747.39	4945.2	
747.57	4571.7	
747.75	6213.5	
747.93	6524.1	
748.11	4521.2	
748.29	4520.5	
748.47	7548.8	
748.65	5958.2	
748.83	5141.8	
749.01	4915.1	
749.19	6350.1	
749.37	5668.8	
749.55	4757.4	
749.73	4909.7	
749.91	6115.2	
750.09	5895.4	
750.26	4885.8	
750.44	4455.7	
750.62	6112.5	
750.8	6011.5	
750.98	4334.2	
751.16	4539	
751.34	6257.2	
751.52	5580	
751.7	5124.7	
751.88	4265.2	
752.06	6507.1	
752.24	6253.1	
752.42	4209.9	
752.59	4491.9	
752.77	6033.3	
752.95	6982.2	
753.13	5046.9	
753.31	4575.2	
753.49	5782.8	
753.67	6098.2	
753.85	4732.9	
754.03	4457.7	
754.21	6316.6	
754.38	6565.8	
754.56	4437.9	
754.74	3747.1	
754.92	5620.3	
755.1	6106.4	
755.28	3676.8	
755.46	3688.4	
755.64	6701.6	
755.82	6739.9	
755.99	3833.8	
756.17	3891.8	
756.35	4638	
756.53	5887.9	
756.71	2981.2	
756.89	3715.7	
757.07	5489.9	
757.25	4810.7	
757.42	4194.9	
757.6	4782	
757.78	5651	
757.96	4788.8	
758.14	3888.4	
758.32	3547.1	
758.5	4459.1	
758.67	5217.5	
758.85	3787.4	
759.03	3829.7	
759.21	5270.8	
759.39	4883	
759.57	3425.6	
759.75	4318.5	
759.92	5828.5	
760.1	5322.7	
760.28	4603.2	
760.46	4861.9	
760.64	5051.7	
760.82	4899.4	
760.99	4373.8	
761.17	3973.7	
761.35	5821	
761.53	4869.4	
761.71	3999	
761.89	4554	
762.06	5672.9	
762.24	5258.5	
762.42	4152.6	
762.6	3910.9	
762.78	5236	
762.96	5787.6	
763.13	4366.3	
763.31	4143.7	
763.49	5840.8	
763.67	5266	
763.85	4832.5	
764.02	5246.2	
764.2	6154.8	
764.38	5401.9	
764.56	4017.4	
764.74	4720.6	
764.91	6225.8	
765.09	5296.7	
765.27	3878.9	
765.45	3674.7	
765.63	6305	
765.8	6040.1	
765.98	3443.3	
766.16	3700	
766.34	4949.9	
766.52	4712.4	
766.69	4394.9	
766.87	3525.2	
767.05	5296	
767.23	5832.6	
767.41	3779.2	
767.58	4087.1	
767.76	5762.3	
767.94	5841.5	
768.12	3842	
768.29	4437.9	
768.47	5335	
768.65	5890	
768.83	3584.6	
769	4461.8	
769.18	5002.5	
769.36	5525.4	
769.54	4450.9	
769.72	3586	
769.89	5773.2	
770.07	5853.8	
770.25	3861.1	
770.43	4805.9	
770.6	6348.7	
770.78	6660	
770.96	3969.6	
771.14	4489.1	
771.31	5691.3	
771.49	5186.8	
771.67	3354.6	
771.85	3499.3	
772.02	4528.7	
772.2	5165.7	
772.38	4086.4	
772.55	3633.8	
772.73	5341.8	
772.91	5204.6	
773.09	3956.7	
773.26	4056.3	
773.44	5356.8	
773.62	5074.2	
773.8	3621.5	
773.97	3452.2	
774.15	5382.1	
774.33	5089.9	
774.5	3434.4	
774.68	3782.6	
774.86	5421.7	
775.04	5057.8	
775.21	3506.1	
775.39	3491.1	
775.57	5289.2	
775.74	5558.2	
775.92	3439.2	
776.1	3269.9	
776.27	5231.2	
776.45	6246.3	
776.63	3532.1	
776.81	3220.1	
776.98	4950.6	
777.16	5852.4	
777.34	3624.2	
777.51	3960.1	
777.69	4946.5	
777.87	4754.7	
778.04	3693.9	
778.22	4119.1	
778.4	4805.2	
778.57	5354.8	
778.75	3026.9	
778.93	3355.9	
779.1	4700.1	
779.28	4500.1	
779.46	3117.7	
779.64	3420.8	
779.81	5505.6	
779.99	6144.6	
780.17	4085.7	
780.34	4163.5	
780.52	5066	
780.69	5181.4	
780.87	3724.6	
781.05	3346.4	
781.22	5112.4	
781.4	5153.4	
781.58	3460.4	
781.75	2779.8	
781.93	5107.6	
782.11	4583.4	
782.28	4212.7	
782.46	3483.6	
782.64	4477.5	
782.81	5195.7	
782.99	3596.9	
783.17	3510.9	
783.34	5107	
783.52	4504.2	
783.69	3643.3	
783.87	4308.2	
784.05	4609.3	
784.22	4586.1	
784.4	4207.2	
784.58	3747.1	
784.75	5421.7	
784.93	4641.4	
785.1	3463.1	
785.28	3951.9	
785.46	5088.5	
785.63	4576.5	
785.81	3477.5	
785.99	3355.9	
786.16	4741	
786.34	5067.4	
786.51	3353.2	
786.69	3650.2	
786.87	4410.6	
787.04	4806.6	
787.22	3312.2	
787.39	4043.4	
787.57	4576.5	
787.75	5366.4	
787.92	4190.1	
788.1	4085.7	
788.27	4616.1	
788.45	4359.4	
788.63	3857.7	
788.8	2861.7	
788.98	5061.9	
789.15	4250.2	
789.33	3024.8	
789.5	3444.7	
789.68	5328.8	
789.86	5400.5	
790.03	3775.1	
790.21	3329.3	
790.38	5356.1	
790.56	4715.1	
790.73	3289	
790.91	3229.6	
791.09	4574.5	
791.26	5199.1	
791.44	3426.9	
791.61	2987.3	
791.79	4610	
791.96	4566.3	
792.14	3085.6	
792.32	2782.5	
792.49	4566.3	
792.67	4693.9	
792.84	3183.2	
793.02	3017.3	
793.19	4960.9	
793.37	5522	
793.54	2788	
793.72	3048.1	
793.89	5504.9	
794.07	4547.9	
794.25	3444.7	
794.42	2871.9	
794.6	5449	
794.77	5085.8	
794.95	3789.4	
795.12	3276.8	
795.3	4590.9	
795.47	5030.5	
795.65	3579.2	
795.82	3483.6	
796	4467.3	
796.17	5868.8	
796.35	3340.9	
796.52	4014	
796.7	5037.3	
796.87	5063.9	
797.05	3368.2	
797.22	4020.8	
797.4	5100.8	
797.57	5819	
797.75	3491.8	
797.92	3213.3	
798.1	5333.6	
798.27	4429.8	
798.45	2908.8	
798.62	3046.7	
798.8	4877.6	
798.97	5244.2	
799.15	3632.4	
799.32	3452.9	
799.5	4229.1	
799.67	4825.7	
799.85	3799.7	
800.02	2819.4	
800.2	4546.5	
800.37	4802.5	
800.55	3877.5	
800.72	3252.2	
800.9	5141.1	
801.07	5546.6	
801.25	4339	
801.42	3618.8	
801.6	5175.9	
801.77	4903.5	
801.95	3381.2	
802.12	3302	
802.29	5036.6	
802.47	4926.7	
802.64	3651.5	
802.82	2721.1	
802.99	4551.3	
803.17	5264	
803.34	3510.2	
803.52	3173	
803.69	5805.3	
803.87	4317.8	
804.04	3452.9	
804.21	3500.7	
804.39	5407.3	
804.56	4672.1	
804.74	3033	
804.91	3626.3	
805.09	4547.2	
805.26	4666	
805.44	3007.1	
805.61	3310.2	
805.78	5101.5	
805.96	5078.3	
806.13	3601.7	
806.31	3833.8	
806.48	4190.1	
806.66	4610	
806.83	3588	
807	3480.2	
807.18	4542.4	
807.35	4829.8	
807.53	3508.9	
807.7	2867.2	
807.87	5474.2	
808.05	4533.5	
808.22	3749.8	
808.4	2872.6	
808.57	4486.4	
808.74	4235.2	
808.92	3253.5	
809.09	3984	
809.27	4508.9	
809.44	4943.8	
809.61	2844.6	
809.79	3141.6	
809.96	5563	
810.14	5077.6	
810.31	2806.4	
810.48	3397.6	
810.66	4603.8	
810.83	5167.7	
811.01	3190.1	
811.18	3538.2	
811.35	5179.3	
811.53	4102.1	
811.7	3837.9	
811.87	3596.9	
812.05	4628.4	
812.22	4505.5	
812.39	3149.8	
812.57	3018	
812.74	4648.2	
812.92	5876.3	
813.09	3333.4	
813.26	3605.1	
813.44	5639.4	
813.61	4465.3	
813.78	2865.8	
813.96	3687.7	
814.13	4562.9	
814.3	4360.1	
814.48	4022.2	
814.65	3304.7	
814.82	5429.8	
815	4330.1	
815.17	3452.2	
815.34	4106.2	
815.52	4513	
815.69	4504.8	
815.87	3362.8	
816.04	3371	
816.21	4546.5	
816.38	4101.4	
816.56	3368.2	
816.73	3140.2	
816.9	5683.1	
817.08	5093.3	
817.25	3138.9	
817.42	3832.4	
817.6	4213.4	
817.77	4579.3	
817.94	3509.5	
818.12	3094.5	
818.29	4344.4	
818.46	6412.2	
818.64	3241.9	
818.81	3031	
818.98	4283	
819.16	6001.2	
819.33	3687.7	
819.5	3410.6	
819.67	4849.6	
819.85	5369.1	
820.02	3368.2	
820.19	3598.3	
820.37	4717.8	
820.54	4468	
820.71	3467.2	
820.88	4287.1	
821.06	4762.9	
821.23	4300.7	
821.4	3508.9	
821.58	3492.5	
821.75	5095.3	
821.92	4691.9	
822.09	2839.8	
822.27	3026.2	
822.44	4584.7	
822.61	4433.9	
822.79	2919	
822.96	5317.2	
823.13	4919.2	
823.3	4292.5	
823.48	3283.6	
823.65	2991.4	
823.82	5104.2	
823.99	4216.8	
824.17	4080.2	
824.34	3004.4	
824.51	5851.7	
824.68	4556	
824.86	3157.3	
825.03	3487	
825.2	4588.8	
825.37	5407.3	
825.55	3167.5	
825.72	3425.6	
825.89	5871.5	
826.06	5447.6	
826.24	3296.5	
826.41	3359.4	
826.58	5526.1	
826.75	4751.3	
826.92	2731.3	
827.1	2955.2	
827.27	7187.7	
827.44	5694	
827.61	3234.4	
827.79	3818.1	
827.96	4422.2	
828.13	4578.6	
828.3	3327.3	
828.47	2874	
828.65	4817.5	
828.82	4733.5	
828.99	4197.7	
829.16	3681.6	
829.34	5094	
829.51	4933.6	
829.68	3345.7	
829.85	3508.9	
830.02	5339.7	
830.2	5102.2	
830.37	2700.6	
830.54	4065.9	
830.71	5696.8	
830.88	4600.4	
831.05	2740.2	
831.23	3087	
831.4	5497.4	
831.57	6090.7	
831.74	3218	
831.91	2822.1	
832.09	4856.4	
832.26	5092.6	
832.43	3209.2	
832.6	3640.6	
832.77	4843.4	
832.94	5370.5	
833.12	2662.4	
833.29	3260.4	
833.46	4905.6	
833.63	6194.4	
833.8	3565.5	
833.97	3346.4	
834.15	5135.6	
834.32	4913.1	
834.49	3444	
834.66	3506.1	
834.83	5253	
835	4405.2	
835.17	3192.1	
835.35	3135.4	
835.52	5029.1	
835.69	4962.9	
835.86	3246.7	
836.03	2749.7	
836.2	5023.7	
836.37	4738.3	
836.55	3254.2	
836.72	3090.4	
836.89	4734.2	
837.06	5182.7	
837.23	3324.5	
837.4	3588	
837.57	5771.2	
837.75	6212.2	
837.92	3013.9	
838.09	3227.6	
838.26	4771.1	
838.43	5251.7	
838.6	3440.6	
838.77	3089	
838.94	5882.4	
839.11	5701.5	
839.29	3315	
839.46	2627.5	
839.63	5152	
839.8	4895.3	
839.97	3153.2	
840.14	3196.9	
840.31	4880.3	
840.48	5075.5	
840.65	2729.3	
840.82	3170.9	
841	5040.1	
841.17	4986.1	
841.34	2947.7	
841.51	3005.1	
841.68	4997	
841.85	4823	
842.02	3082.9	
842.19	2562	
842.36	4856.4	
842.53	4881	
842.7	2945	
842.87	3556.6	
843.05	6163	
843.22	4792.9	
843.39	2870.6	
843.56	3085.6	
843.73	4670.1	
843.9	5132.9	
844.07	4644.8	
844.24	3876.1	
844.41	6929	
844.58	4409.3	
844.75	2850.1	
844.92	3121.8	
845.09	5078.3	
845.26	5068	
845.43	2859.6	
845.6	3116.3	
845.77	5077.6	
845.94	4843.4	
846.12	3237.2	
846.29	3403	
846.46	5221.6	
846.63	5066	
846.8	2956.6	
846.97	3469.3	
847.14	5440.8	
847.31	5014.8	
847.48	3278.8	
847.65	3597.6	
847.82	5261.2	
847.99	5229.8	
848.16	3817.4	
848.33	3603.1	
848.5	4655	
848.67	5459.2	
848.84	2903.3	
849.01	3044.6	
849.18	4620.2	
849.35	4358.8	
849.52	3586.7	
849.69	2883.5	
849.86	5251.7	
850.03	5317.2	
850.2	2947	
850.37	3504.8	
850.54	5286.5	
850.71	4786.1	
850.88	3502.7	
851.05	2892.4	
851.22	4971.8	
851.39	5465.3	
851.56	2735.4	
851.73	3343.7	
851.9	4522.6	
852.07	5211.4	
852.24	3258.3	
852.41	2925.9	
852.58	4957.4	
852.75	4564.9	
852.92	3280.8	
853.09	2867.2	
853.26	4726	
853.43	5370.5	
853.6	2934.7	
853.77	2536.8	
853.94	5461.2	
854.11	4453	
854.28	4238.6	
854.44	3178.4	
854.61	5784.8	
854.78	5304.9	
854.95	2906.1	
855.12	3576.4	
855.29	4154	
855.46	5660.6	
855.63	2972.3	
855.8	3979.9	
855.97	4688.5	
856.14	5313.1	
856.31	4079.6	
856.48	3137.5	
856.65	4717.2	
856.82	4448.2	
856.99	2852.8	
857.16	3108.1	
857.33	5963	
857.49	4800.4	
857.66	3211.9	
857.83	3401	
858	4786.8	
858.17	4954.7	
858.34	2760	
858.51	2899.9	
858.68	5603.9	
858.85	5528.8	
859.02	3361.4	
859.19	3551.9	
859.36	4479.6	
859.52	4534.2	
859.69	2935.4	
859.86	3441.3	
860.03	4494.6	
860.2	5492	
860.37	2706	
860.54	2962.7	
860.71	5204.6	
860.88	5525.4	
861.05	3247.4	
861.21	3667.9	
861.38	5524.7	
861.55	4371	
861.72	2720.4	
861.89	3261.7	
862.06	5304.2	
862.23	5586.9	
862.4	2843.9	
862.56	3017.3	
862.73	5137.7	
862.9	4837.3	
863.07	3365.5	
863.24	2661.7	
863.41	4429.8	
863.58	4554	
863.75	3013.2	
863.91	3373.7	
864.08	5460.6	
864.25	5112.4	
864.42	3622.9	
864.59	4030.4	
864.76	5734.3	
864.93	4541.7	
865.09	2873.3	
865.26	3156.6	
865.43	5433.3	
865.6	5676.3	
865.77	2616.6	
865.94	2859.6	
866.1	5423.7	
866.27	5224.4	
866.44	4292.5	
866.61	2763.4	
866.78	4805.2	
866.95	5125.4	
867.11	2865.1	
867.28	2649.4	
867.45	5333.6	
867.62	4516.5	
867.79	3352.5	
867.96	2922.5	
868.12	4491.2	
868.29	5242.8	
868.46	2924.5	
868.63	3835.8	
868.8	5359.5	
868.97	5156.1	
869.13	3050.1	
869.3	3033.7	
869.47	5077.6	
869.64	5297.4	
869.81	2959.3	
869.97	3013.9	
870.14	5005.9	
870.31	5546.6	
870.48	2855.6	
870.65	3607.2	
870.81	4767.7	
870.98	4756.7	
871.15	3334.8	
871.32	3080.8	
871.48	5159.5	
871.65	5622.4	
871.82	2863.7	
871.99	3182.5	
872.16	5914.5	
872.32	5352.7	
872.49	2973	
872.66	2957.3	
872.83	5212.1	
872.99	4640	
873.16	3306.8	
873.33	2903.3	
873.5	4941.1	
873.67	4949.3	
873.83	3065.1	
874	3818.1	
874.17	4950.6	
874.34	5807.4	
874.5	3706.8	
874.67	3581.9	
874.84	5453.7	
875.01	4401.8	
875.17	4043.4	
875.34	2894.5	
875.51	5020.9	
875.68	5876.3	
875.84	3508.2	
876.01	4134.2	
876.18	5143.1	
876.34	5090.6	
876.51	2977.1	
876.68	2912.2	
876.85	4727.4	
877.01	5429.8	
877.18	4075.5	
877.35	2867.8	
877.52	4950.6	
877.68	4451.6	
877.85	2829.6	
878.02	2817.3	
878.18	4777.2	
878.35	4661.2	
878.52	2385.9	
878.69	3244.7	
878.85	5216.2	
879.02	5188.2	
879.19	4051.6	
879.35	3163.4	
879.52	5147.2	
879.69	5273.5	
879.86	2613.9	
880.02	3257.6	
880.19	4844.8	
880.36	5765	
880.52	3277.4	
880.69	3422.2	
880.86	5236	
881.02	5269.4	
881.19	3177.8	
881.36	3164.1	
881.52	5191.6	
881.69	4630.5	
881.86	3157.3	
882.02	3068.5	
882.19	5405.3	
882.36	6165.1	
882.52	3011.9	
882.69	3997	
882.86	4987.5	
883.02	4963.6	
883.19	3465.2	
883.36	3315.7	
883.52	5287.2	
883.69	5853.1	
883.86	2918.4	
884.02	2752.5	
884.19	5135.6	
884.36	4950.6	
884.52	3258.3	
884.69	3110.2	
884.86	4683	
885.02	5620.3	
885.19	3252.2	
885.36	3323.2	
885.52	4844.8	
885.69	5021.6	
885.86	4136.2	
886.02	3708.2	
886.19	5191.6	
886.35	4751.3	
886.52	3226.9	
886.69	4012	
886.85	4504.8	
887.02	5477.6	
887.19	5477.6	
887.35	5477.6	
887.52	5477.6	
887.68	5477.6	
887.85	5477.6	
888.02	5477.6	
888.18	5477.6	
888.35	5477.6	
888.51	5477.6	
888.68	5477.6	
888.85	5477.6	
889.01	5477.6	
889.18	5477.6	
889.35	5477.6	
889.51	5477.6	
889.68	5477.6	
889.84	5477.6	
890.01	5477.6	
890.17	5477.6	
890.34	5477.6	
890.51	5477.6	
890.67	5477.6	
890.84	5477.6	
891	5477.6	
891.17	5477.6	
891.34	5477.6	
891.5	5477.6	
891.67	5477.6	
891.83	5477.6	
892	5477.6	
892.16	5477.6	
892.33	5477.6	
892.5	5477.6	
892.66	5477.6	
892.83	5477.6	
892.99	5477.6	
893.16	5477.6	
893.32	5477.6	
893.49	5477.6	
893.65	5477.6	
893.82	5477.6	
893.99	5477.6	
894.15	5477.6	
894.32	5477.6	
894.48	5477.6	
894.65	5477.6	
894.81	5477.6	
894.98	5477.6	
895.14	5477.6	
895.31	5477.6	
895.47	5477.6	
895.64	5477.6	
895.81	5477.6	
895.97	5477.6	
896.14	5477.6	
896.3	5477.6	
896.47	5477.6	
896.63	5477.6	
896.8	5477.6	
896.96	5477.6	
897.13	5477.6	
897.29	5477.6	
897.46	5477.6	
897.62	5477.6	
897.79	5477.6	
897.95	5477.6	
898.12	5477.6	
898.28	5477.6	
898.45	5477.6	
898.61	5477.6	
898.78	5477.6	
898.94	5477.6	
899.11	5477.6	
899.27	5477.6	
899.44	5477.6	
899.6	5477.6	
899.77	5477.6	
899.93	5477.6	
900.1	5477.6	
900.26	5477.6	
900.43	5477.6	
900.59	5477.6	
900.76	5477.6	
900.92	5477.6	
901.09	5477.6	
901.25	5477.6	
901.42	5477.6	
901.58	5477.6	
901.75	5477.6	
901.91	5477.6	
902.07	5477.6	
902.24	5477.6	
902.4	5477.6	
902.57	5477.6	
902.73	5477.6	
902.9	5477.6	
903.06	5477.6	
903.23	5477.6	
903.39	5477.6	
903.56	5477.6	
903.72	5477.6	
903.88	5477.6	
904.05	5477.6	
904.21	5477.6	
904.38	5477.6	
904.54	5477.6	
904.71	5477.6	
904.87	5477.6	
905.03	5477.6	
905.2	5477.6	
905.36	5477.6	
905.53	5477.6	
905.69	5477.6	
905.86	5477.6	
906.02	5477.6	
906.18	5477.6	
906.35	5477.6	
906.51	5477.6	
906.68	5477.6	
906.84	5477.6	
907.01	5477.6	
907.17	5477.6	
907.33	5477.6	
907.5	5477.6	
907.66	5477.6	
907.83	5477.6	
907.99	5477.6	
908.15	5477.6	
908.32	5477.6	
908.48	5477.6	
908.65	5477.6	
908.81	5477.6	
908.97	5477.6	
909.14	5477.6	
909.3	5477.6	
909.47	5477.6	
909.63	5477.6	
909.79	5477.6	
909.96	5477.6	
910.12	5477.6	
910.28	5477.6	
910.45	5477.6	
910.61	5477.6	
910.78	5477.6	
910.94	5477.6	
911.1	5477.6	
911.27	5477.6	
911.43	5477.6	
911.59	5477.6	
911.76	5477.6	
911.92	5477.6	
912.08	5477.6	
912.25	5477.6	
912.41	5477.6	
912.57	5477.6	
912.74	5477.6	
912.9	5477.6	
913.07	5477.6	
913.23	5477.6	
913.39	5477.6	
913.56	5477.6	
913.72	5477.6	
913.88	5477.6	
914.05	5477.6	
914.21	5477.6	
914.37	5477.6	
914.54	5477.6	
914.7	5477.6	
914.86	5477.6	
915.03	5477.6	
915.19	5477.6	
