Wavelength	Intensities	
nm	a.u.	
179.22	1920.5	
179.44	1916.6	
179.65	1924.4	
179.86	1908.7	
180.08	1936	
180.29	5108.3	
180.51	3584.6	
180.72	5793	
180.94	6850.5	
181.15	3350.5	
181.37	3286.3	
181.58	5615.5	
181.79	5948	
182.01	3530.7	
182.22	3744.4	
182.44	5921.4	
182.65	4910.3	
182.87	4743.1	
183.08	4087.7	
183.29	6208.1	
183.51	5070.8	
183.72	3802.4	
183.94	5563	
184.15	5482.4	
184.37	5533.6	
184.58	3237.2	
184.79	4622.3	
185.01	5124	
185.22	5866.7	
185.44	4902.2	
185.65	4085.7	
185.86	5436.7	
186.08	5056.4	
186.29	3228.3	
186.51	3407.1	
186.72	5143.8	
186.94	6108.4	
187.15	4015.4	
187.36	4128.7	
187.58	8046.5	
187.79	5580	
188.01	4369.7	
188.22	6819.7	
188.43	6830.7	
188.65	5866.7	
188.86	3463.1	
189.08	4108.9	
189.29	5362.3	
189.5	5310.4	
189.72	3835.2	
189.93	3960.8	
190.15	6096.8	
190.36	7367.9	
190.57	4300.1	
190.79	4137.6	
191	6205.3	
191.22	6163.7	
191.43	4226.3	
191.64	3500	
191.86	6465.4	
192.07	6096.1	
192.29	3631.7	
192.5	3851.5	
192.71	6101.6	
192.93	5248.3	
193.14	3832.4	
193.35	3891.8	
193.57	5340.4	
193.78	6092	
194	3031.7	
194.21	3823.6	
194.42	5054.4	
194.64	5551.4	
194.85	4143.7	
195.07	4919.9	
195.28	5664	
195.49	4811.4	
195.71	5202.5	
195.92	3588	
196.13	5732.9	
196.35	5819	
196.56	5485.1	
196.78	4156	
196.99	7200.7	
197.2	6826.6	
197.42	4740.4	
197.63	4203.1	
197.84	4928.1	
198.06	5737.7	
198.27	3853.6	
198.48	5124.7	
198.7	5292	
198.91	5416.9	
199.13	4171	
199.34	4201.7	
199.55	5930.9	
199.77	4775.2	
199.98	3673.4	
200.19	4291.2	
200.41	5379.3	
200.62	5104.9	
200.83	4345.8	
201.05	4689.8	
201.26	5469.4	
201.47	5125.4	
201.69	3682.2	
201.9	3553.2	
202.11	5456.5	
202.33	6554.2	
202.54	4018.1	
202.76	4403.1	
202.97	5641.5	
203.18	5640.8	
203.4	4392.2	
203.61	4221.5	
203.82	5599.8	
204.04	5167.7	
204.25	4281.6	
204.46	4182.6	
204.68	5576.6	
204.89	5786.9	
205.1	4126.7	
205.32	3520.5	
205.53	5937.7	
205.74	6109.1	
205.96	2974.3	
206.17	4327.4	
206.38	5930.2	
206.6	6102.9	
206.81	4784.1	
207.02	3879.5	
207.24	5739.8	
207.45	6239.5	
207.66	4027.7	
207.88	3401.7	
208.09	5763	
208.3	5582.1	
208.52	3668.6	
208.73	4052.9	
208.94	5558.2	
209.15	6294.1	
209.37	4066.6	
209.58	4210.6	
209.79	6078.4	
210.01	5337	
210.22	3155.9	
210.43	3465.8	
210.65	5531.6	
210.86	6019.7	
211.07	3977.8	
211.29	3695.9	
211.5	5937.7	
211.71	5509.7	
211.93	3653.6	
212.14	3631	
212.35	5470.1	
212.56	5737.7	
212.78	4243.4	
212.99	3433.1	
213.2	6523.5	
213.42	5280.3	
213.63	3820.8	
213.84	4056.3	
214.06	4891.2	
214.27	5027.1	
214.48	3982.6	
214.69	4283	
214.91	6170.5	
215.12	6305	
215.33	4285	
215.55	4782	
215.76	6897.6	
215.97	5909.8	
216.18	4113	
216.4	4040.6	
216.61	5175.2	
216.82	6067.4	
217.04	3711.6	
217.25	3853.6	
217.46	6256.5	
217.67	5956.2	
217.89	3258.3	
218.1	3404.4	
218.31	5640.8	
218.53	5768.4	
218.74	3855	
218.95	3715.7	
219.16	5526.8	
219.38	6488.6	
219.59	3803.8	
219.8	4459.8	
220.01	7265.5	
220.23	5558.2	
220.44	4976.6	
220.65	3631	
220.87	5590.3	
221.08	6289.3	
221.29	3362.1	
221.5	4603.2	
221.72	7666.2	
221.93	5210.7	
222.14	4252.9	
222.35	4977.2	
222.57	5524.7	
222.78	5903.6	
222.99	3971	
223.2	4326.7	
223.42	5897.5	
223.63	6014.9	
223.84	3073.3	
224.05	3056.3	
224.27	7163.8	
224.48	6499.6	
224.69	5019.6	
224.9	4204.5	
225.12	5800.5	
225.33	5532.9	
225.54	3302.7	
225.75	3755.3	
225.97	5109	
226.18	5396.4	
226.39	4042.7	
226.6	3741	
226.82	5306.3	
227.03	5143.8	
227.24	4280.9	
227.45	3478.1	
227.67	5959.6	
227.88	6512.5	
228.09	4756.7	
228.3	4737.6	
228.52	5973.9	
228.73	5528.8	
228.94	3895.9	
229.15	3465.2	
229.36	5428.5	
229.58	5319.9	
229.79	3933.5	
230	4600.4	
230.21	6590.4	
230.43	5685.2	
230.64	4211.3	
230.85	4379.2	
231.06	5997.8	
231.28	6017.6	
231.49	3438.5	
231.7	4072	
231.91	5836.7	
232.12	5507	
232.34	3508.2	
232.55	4067.3	
232.76	6212.9	
232.97	5745.2	
233.18	3713	
233.4	4125.3	
233.61	5808	
233.82	5285.8	
234.03	3861.8	
234.25	3760.8	
234.46	7803.4	
234.67	5670.1	
234.88	4315.8	
235.09	3736.2	
235.31	5938.4	
235.52	5448.3	
235.73	4214	
235.94	3502.7	
236.15	5266	
236.37	6719.4	
236.58	3698.6	
236.79	4069.3	
237	5896.8	
237.21	5046.2	
237.43	4309.6	
237.64	3387.3	
237.85	10334	
238.06	5083.1	
238.27	4428.4	
238.48	3521.1	
238.7	5928.9	
238.91	5431.9	
239.12	4045.4	
239.33	4134.8	
239.54	5076.2	
239.76	5460.6	
239.97	3958.7	
240.18	4017.4	
240.39	6978.1	
240.6	5831.9	
240.82	4182	
241.03	3428.3	
241.24	5621	
241.45	6444.3	
241.66	3676.1	
241.87	4333.5	
242.09	6285.9	
242.3	6768.5	
242.51	4383.3	
242.72	4025.6	
242.93	6050.4	
243.14	5440.8	
243.36	4700.1	
243.57	5079.6	
243.78	6409.5	
243.99	5763	
244.2	4103.4	
244.41	3621.5	
244.63	5025	
244.84	5870.8	
245.05	4402.5	
245.26	4006.5	
245.47	5831.2	
245.68	6141.9	
245.9	5427.1	
246.11	4294.6	
246.32	5347.9	
246.53	5820.3	
246.74	6654.5	
246.95	3428.3	
247.16	5009.3	
247.38	5529.5	
247.59	3347.7	
247.8	4027	
248.01	5225.7	
248.22	5446.2	
248.43	3606.5	
248.64	3947.8	
248.86	4939.7	
249.07	5275.6	
249.28	3538.2	
249.49	4145.1	
249.7	6126.2	
249.91	6273.6	
250.12	3316.3	
250.34	3434.4	
250.55	5616.9	
250.76	5466.7	
250.97	4154	
251.18	4184.7	
251.39	6334.4	
251.6	5713.8	
251.81	4282.3	
252.03	4296	
252.24	5224.4	
252.45	6119.3	
252.66	3526.6	
252.87	4546.5	
253.08	5560.2	
253.29	7367.9	
253.5	3479.5	
253.72	4909	
253.93	5403.2	
254.14	6606.1	
254.35	3840.6	
254.56	3928	
254.77	5816.9	
254.98	5132.2	
255.19	3762.8	
255.41	4930.8	
255.62	5652.4	
255.83	6251.1	
256.04	4420.9	
256.25	4301.4	
256.46	6894.1	
256.67	5190.9	
256.88	4139.6	
257.09	4642.1	
257.31	5238	
257.52	5220.3	
257.73	5234.6	
257.94	3818.8	
258.15	5370.5	
258.36	5580.7	
258.57	4852.3	
258.78	3092.4	
258.99	6168.5	
259.2	5384.1	
259.41	3852.9	
259.63	3917.8	
259.84	6415.6	
260.05	6885.3	
260.26	5169.8	
260.47	3748.5	
260.68	6151.4	
260.89	5419.6	
261.1	4670.7	
261.31	3672	
261.52	6146.6	
261.73	6511.2	
261.95	5015.5	
262.16	4367	
262.37	6333	
262.58	6409.5	
262.79	4937.7	
263	3891.8	
263.21	5539.8	
263.42	5026.4	
263.63	4027	
263.84	3900.7	
264.05	6175.3	
264.26	6498.9	
264.47	4780	
264.69	4424.3	
264.9	6277.7	
265.11	5799.8	
265.32	3776.5	
265.53	3829.7	
265.74	5703.6	
265.95	4962.2	
266.16	4146.5	
266.37	4591.5	
266.58	5639.4	
266.79	5405.3	
267	3829.7	
267.21	3518.4	
267.42	5112.4	
267.63	5524.7	
267.84	3993.5	
268.06	3403	
268.27	5978.7	
268.48	6356.9	
268.69	3958	
268.9	4704.2	
269.11	6309.8	
269.32	4986.8	
269.53	4102.1	
269.74	3707.5	
269.95	5930.2	
270.16	4897.4	
270.37	4054.3	
270.58	4693.3	
270.79	5397.8	
271	6045.6	
271.21	4296.6	
271.42	4089.1	
271.63	5708.4	
271.84	5186.8	
272.05	3200.3	
272.26	3620.1	
272.47	5538.4	
272.68	5810.1	
272.89	3844.7	
273.11	4524.6	
273.32	5319.9	
273.53	6579.4	
273.74	4427	
273.95	4249.5	
274.16	6262	
274.37	5616.9	
274.58	4401.8	
274.79	3506.8	
275	5698.1	
275.21	6260	
275.42	5331.5	
275.63	4588.8	
275.84	5792.3	
276.05	7397.3	
276.26	4277.5	
276.47	3983.3	
276.68	5313.1	
276.89	6643.6	
277.1	4641.4	
277.31	3546.4	
277.52	5894.1	
277.73	5974.6	
277.94	3502	
278.15	3855.6	
278.36	5735.7	
278.57	5192.3	
278.78	3923.9	
278.99	4418.8	
279.2	5105.6	
279.41	5119.2	
279.62	5118.6	
279.83	3594.2	
280.04	6898.2	
280.25	5003.2	
280.46	5152	
280.67	4033.1	
280.88	5104.9	
281.09	6235.4	
281.3	4304.1	
281.51	5395.7	
281.72	5279	
281.93	6110.5	
282.14	3715	
282.35	4050.9	
282.56	6034.7	
282.77	6059.3	
282.98	3867.9	
283.19	4725.3	
283.4	7427.3	
283.61	5472.9	
283.82	3599.6	
284.03	5078.3	
284.24	5642.8	
284.45	6284.5	
284.66	4983.4	
284.87	4830.5	
285.08	6191	
285.29	6338.5	
285.5	3429	
285.71	4004.5	
285.92	6268.8	
286.12	6893.5	
286.33	4960.2	
286.54	3906.2	
286.75	6124.1	
286.96	5348.6	
287.17	3542.3	
287.38	4895.3	
287.59	5160.2	
287.8	5085.1	
288.01	3956	
288.22	4561.5	
288.43	6127.5	
288.64	5045.5	
288.85	4725.3	
289.06	4496.7	
289.27	6025.8	
289.48	6550.1	
289.69	5092.6	
289.9	4500.8	
290.11	6223.8	
290.32	5292.6	
290.53	4771.8	
290.74	4332.1	
290.94	5976	
291.15	6085.9	
291.36	3835.8	
291.57	4543.1	
291.78	5311.7	
291.99	4903.5	
292.2	3627.6	
292.41	4433.9	
292.62	6154.8	
292.83	5967.1	
293.04	5393	
293.25	3635.8	
293.46	5331.5	
293.67	6182.8	
293.88	3745.1	
294.09	3745.1	
294.29	5037.3	
294.5	5735	
294.71	4050.9	
294.92	3846.8	
295.13	5284.4	
295.34	6683.2	
295.55	3389.4	
295.76	3477.5	
295.97	5991.7	
296.18	6795.8	
296.39	3549.1	
296.6	3790.8	
296.81	5681.1	
297.01	5998.5	
297.22	3987.4	
297.43	3713.6	
297.64	5221	
297.85	5190.9	
298.06	3112.9	
298.27	3358	
298.48	5628.5	
298.69	5248.9	
298.9	4094.6	
299.11	3729.4	
299.31	5056.4	
299.52	5064.6	
299.73	4364.9	
299.94	4298.7	
300.15	5535	
300.36	5075.5	
300.57	4297.3	
300.78	4305.5	
300.99	5410.1	
301.2	5674.9	
301.4	3736.2	
301.61	4113.7	
301.82	5933.6	
302.03	6025.8	
302.24	4607.9	
302.45	3573	
302.66	5870.2	
302.87	6385.6	
303.08	3784.6	
303.29	5201.8	
303.49	5291.3	
303.7	5626.5	
303.91	3323.9	
304.12	4996.4	
304.33	5039.4	
304.54	5724.8	
304.75	3771.7	
304.96	3683.6	
305.16	5866.1	
305.37	6676.4	
305.58	3276.1	
305.79	3445.4	
306	5917.3	
306.21	4988.9	
306.42	3697.9	
306.63	5825.1	
306.83	5393.7	
307.04	6234.7	
307.25	4165.6	
307.46	4134.2	
307.67	4747.9	
307.88	6092.7	
308.09	3716.4	
308.29	3876.8	
308.5	5658.5	
308.71	6165.8	
308.92	4091.8	
309.13	3660.4	
309.34	5395	
309.55	5442.8	
309.75	4764.9	
309.96	4328.7	
310.17	6049	
310.38	5257.8	
310.59	4601.8	
310.8	4205.8	
311.01	6360.3	
311.21	5401.2	
311.42	3583.9	
311.63	3768.9	
311.84	5327.4	
312.05	5715.2	
312.26	4188.8	
312.46	4651.6	
312.67	5381.4	
312.88	5085.8	
313.09	3707.5	
313.3	3547.8	
313.51	6382.8	
313.71	6784.2	
313.92	3600.3	
314.13	3847.5	
314.34	5758.9	
314.55	5464	
314.76	4760.2	
314.96	4104.8	
315.17	5624.4	
315.38	5948.7	
315.59	3644	
315.8	3449.5	
316.01	6542.6	
316.21	6519.4	
316.42	3493.8	
316.63	4057.7	
316.84	5438.7	
317.05	6321.4	
317.26	4299.4	
317.46	3890.5	
317.67	5446.9	
317.88	5953.4	
318.09	4673.5	
318.3	3388	
318.5	5278.3	
318.71	5977.3	
318.92	5943.9	
319.13	4350.6	
319.34	6161.7	
319.54	6235.4	
319.75	3428.3	
319.96	3244	
320.17	5954.1	
320.38	6176.7	
320.58	3320.4	
320.79	3945.8	
321	6240.8	
321.21	6178.7	
321.42	4040.6	
321.62	3368.9	
321.83	5101.5	
322.04	5599.1	
322.25	3865.9	
322.46	3667.2	
322.66	5697.4	
322.87	5859.2	
323.08	4531.5	
323.29	3605.1	
323.5	6688	
323.7	5066	
323.91	5093.3	
324.12	4472.8	
324.33	5628.5	
324.53	5903.6	
324.74	4257	
324.95	4547.2	
325.16	4880.3	
325.37	5331.5	
325.57	3654.9	
325.78	3717.7	
325.99	5577.3	
326.2	4962.9	
326.4	5339.7	
326.61	3381.2	
326.82	5539.1	
327.03	5690.6	
327.24	5250.3	
327.44	4984.8	
327.65	5840.1	
327.86	4707.6	
328.07	4325.3	
328.27	3492.5	
328.48	6236.7	
328.69	5089.2	
328.9	5329.5	
329.1	3970.3	
329.31	5443.5	
329.52	6421.1	
329.73	3675.4	
329.93	4130.1	
330.14	5535	
330.35	5884.5	
330.56	6156.9	
330.76	4524	
330.97	5378	
331.18	5733.6	
331.39	4117.1	
331.59	3289	
331.8	6150.7	
332.01	6358.9	
332.22	3784	
332.42	4316.4	
332.63	5730.2	
332.84	5228.5	
333.05	4123.2	
333.25	3744.4	
333.46	5344.5	
333.67	5583.4	
333.88	3829.7	
334.08	4289.1	
334.29	7539.3	
334.5	6298.9	
334.7	3607.2	
334.91	5279	
335.12	5109.7	
335.33	6014.9	
335.53	4034.5	
335.74	6029.2	
335.95	5319.3	
336.16	5194.3	
336.36	4089.1	
336.57	4696	
336.78	5066	
336.98	6195.1	
337.19	5048.2	
337.4	4035.9	
337.61	6751.5	
337.81	5061.9	
338.02	3715	
338.23	4873.5	
338.43	6400.6	
338.64	5128.8	
338.85	3666.5	
339.05	4880.3	
339.26	6428.6	
339.47	4966.3	
339.68	3676.8	
339.88	5511.1	
340.09	5850.4	
340.3	6077.7	
340.5	4320.5	
340.71	3281.5	
340.92	4991.6	
341.13	6309.8	
341.33	3581.9	
341.54	4403.8	
341.75	5795.8	
341.95	5462.6	
342.16	4156	
342.37	4494.6	
342.57	5122	
342.78	5495.4	
342.99	4597	
343.19	3263.8	
343.4	5984.8	
343.61	5848.3	
343.81	3938.2	
344.02	3557.3	
344.23	5961.6	
344.43	6453.1	
344.64	4582.7	
344.85	4493.2	
345.06	5885.2	
345.26	6253.8	
345.47	4231.8	
345.68	5036.6	
345.88	4874.8	
346.09	6075.6	
346.3	4316.4	
346.5	3247.4	
346.71	5523.4	
346.92	5261.2	
347.12	3333.4	
347.33	4221.5	
347.54	6189	
347.74	6578.8	
347.95	4222.2	
348.16	3120.4	
348.36	5326.1	
348.57	5170.4	
348.78	4215.4	
348.98	4595	
349.19	5538.4	
349.39	4953.4	
349.6	3341.6	
349.81	3734.1	
350.01	5771.2	
350.22	5250.3	
350.43	4020.2	
350.63	4875.5	
350.84	5669.5	
351.05	5365	
351.25	3725.9	
351.46	3287	
351.67	6171.9	
351.87	5175.2	
352.08	3887.7	
352.29	4536.3	
352.49	6002.6	
352.7	5751.4	
352.9	3530	
353.11	4464.6	
353.32	6744.6	
353.52	5367.7	
353.73	3481.5	
353.94	4523.3	
354.14	5869.5	
354.35	5675.6	
354.55	3574.4	
354.76	4054.3	
354.97	5823.7	
355.17	5565	
355.38	3385.3	
355.59	4874.8	
355.79	5248.9	
356	5685.8	
356.2	4009.9	
356.41	3459	
356.62	4931.5	
356.82	5425.1	
357.03	4276.2	
357.24	3876.8	
357.44	5211.4	
357.65	5352.7	
357.85	5227.8	
358.06	3992.9	
358.27	4968.4	
358.47	5136.3	
358.68	3307.5	
358.88	4265.2	
359.09	5736.4	
359.3	6189.6	
359.5	5029.8	
359.71	4374.5	
359.91	6587.6	
360.12	5935.7	
360.33	4200.4	
360.53	4693.9	
360.74	5151.3	
360.94	5216.2	
361.15	4434.5	
361.36	3627.6	
361.56	6029.9	
361.77	5394.3	
361.97	4964.3	
362.18	3855.6	
362.38	6032	
362.59	5029.8	
362.8	3549.1	
363	3323.2	
363.21	4752.7	
363.41	5555.5	
363.62	4084.3	
363.83	5193	
364.03	5560.9	
364.24	6602.7	
364.44	5227.1	
364.65	5281.7	
364.85	5298.8	
365.06	4932.9	
365.27	3723.9	
365.47	3751.9	
365.68	6314.6	
365.88	5344.5	
366.09	4161.5	
366.29	3829.7	
366.5	5597.8	
366.71	5997.8	
366.91	5154.1	
367.12	4306.9	
367.32	6669.6	
367.53	5859.9	
367.73	4222.2	
367.94	5225.1	
368.14	5829.2	
368.35	6748.7	
368.56	4198.3	
368.76	3556	
368.97	5922	
369.17	7725.6	
369.38	3708.9	
369.58	3948.5	
369.79	4865.3	
369.99	6247	
370.2	5057.1	
370.4	4037.9	
370.61	5638.1	
370.82	6829.3	
371.02	3936.2	
371.23	3226.2	
371.43	4762.2	
371.64	6158.9	
371.84	3995.6	
372.05	5286.5	
372.25	7613	
372.46	5920.7	
372.66	3975.8	
372.87	3889.1	
373.07	5956.9	
373.28	7682.6	
373.48	5018.2	
373.69	4667.3	
373.9	5341.8	
374.1	5373.9	
374.31	4919.2	
374.51	4386.1	
374.72	6239.5	
374.92	4973.8	
375.13	5128.1	
375.33	4203.1	
375.54	5731.6	
375.74	5156.1	
375.95	4240	
376.15	5530.2	
376.36	5729.5	
376.56	5542.5	
376.77	4290.5	
376.97	4760.2	
377.18	6873.7	
377.38	5812.8	
377.59	5156.8	
377.79	3736.2	
378	5604.6	
378.2	6042.9	
378.41	3811.3	
378.61	3748.5	
378.82	6068.1	
379.02	5068.7	
379.23	3931.4	
379.43	5177.9	
379.64	6126.8	
379.84	5784.8	
380.05	3822.2	
380.25	3728	
380.46	5849	
380.66	5438	
380.87	5162.2	
381.07	5659.9	
381.28	6550.8	
381.48	5868.8	
381.69	3831.1	
381.89	3864.5	
382.1	4781.3	
382.3	6061.3	
382.51	5042.1	
382.71	6014.2	
382.91	5954.8	
383.12	6434	
383.32	4277.5	
383.53	4481	
383.73	5658.5	
383.94	5547.9	
384.14	4382	
384.35	3517.7	
384.55	5442.1	
384.76	5938.4	
384.96	4250.9	
385.17	4570.4	
385.37	5925.5	
385.58	5170.4	
385.78	4708.3	
385.98	3412.6	
386.19	5320.6	
386.39	5754.1	
386.6	4031.8	
386.8	4173.8	
387.01	5893.4	
387.21	5848.3	
387.42	4668.7	
387.62	5289.2	
387.83	5128.8	
388.03	5879.7	
388.23	4230.4	
388.44	5122	
388.64	4854.4	
388.85	4909	
389.05	4625.7	
389.26	5266	
389.46	6894.8	
389.67	6277	
389.87	4531.5	
390.07	4666.6	
390.28	5451	
390.48	5008.6	
390.69	3756.7	
390.89	4052.2	
391.1	5193.6	
391.3	6199.9	
391.5	5352.7	
391.71	6011.5	
391.91	5855.1	
392.12	7012.9	
392.32	5436.7	
392.53	4584	
392.73	5275.6	
392.93	5485.8	
393.14	4216.1	
393.34	5202.5	
393.55	6010.8	
393.75	5389.6	
393.95	4288.4	
394.16	4248.9	
394.36	5173.9	
394.57	5907	
394.77	3660.4	
394.98	4189.5	
395.18	5119.9	
395.38	5382.1	
395.59	5082.4	
395.79	3882.3	
396	5251.7	
396.2	5756.2	
396.4	4823	
396.61	4696.7	
396.81	5965.1	
397.02	5163.6	
397.22	5013.4	
397.42	5100.8	
397.63	5932.3	
397.83	5051	
398.04	3749.8	
398.24	4334.9	
398.44	5680.4	
398.65	4642.7	
398.85	3631.7	
399.05	3790.1	
399.26	5011.4	
399.46	6806.8	
399.67	4123.2	
399.87	3870.7	
400.07	5308.3	
400.28	5731.6	
400.48	3916.4	
400.69	5017.5	
400.89	6510.5	
401.09	6482.5	
401.3	3732.8	
401.5	5109	
401.7	6679.8	
401.91	6980.8	
402.11	4238.6	
402.32	4441.4	
402.52	6057.2	
402.72	5941.8	
402.93	4693.9	
403.13	3474	
403.33	6809.5	
403.54	5530.9	
403.74	4334.9	
403.94	5328.8	
404.15	5610.1	
404.35	6816.3	
404.56	4150.6	
404.76	6070.2	
404.96	5928.2	
405.17	5762.3	
405.37	5395.7	
405.57	4648.9	
405.78	6014.9	
405.98	5434.6	
406.18	4827.7	
406.39	5109.7	
406.59	5982.8	
406.79	5603.9	
407	3887.7	
407.2	3986.7	
407.4	6051.7	
407.61	6177.4	
407.81	3995.6	
408.01	6341.2	
408.22	4814.1	
408.42	6902.3	
408.62	5031.9	
408.83	4417.5	
409.03	5431.2	
409.23	5197.7	
409.44	4461.2	
409.64	4830.5	
409.84	6337.8	
410.05	6173.3	
410.25	4454.3	
410.45	4311.7	
410.66	5510.4	
410.86	8284.7	
411.06	4642.1	
411.27	4588.1	
411.47	7874.4	
411.67	5773.9	
411.88	4853	
412.08	4997	
412.28	6384.2	
412.49	6858.6	
412.69	4397.7	
412.89	4464.6	
413.09	6696.2	
413.3	6511.9	
413.5	4519.9	
413.7	4076.8	
413.91	5759.6	
414.11	6647	
414.31	4378.6	
414.52	4747.9	
414.72	6300.9	
414.92	6248.4	
415.12	4371.7	
415.33	4909.7	
415.53	6581.5	
415.73	6811.5	
415.94	5282.4	
416.14	4767.7	
416.34	5471.5	
416.55	5134.9	
416.75	5971.9	
416.95	5294.7	
417.15	6515.3	
417.36	7307.8	
417.56	6112.5	
417.76	5055.8	
417.97	6914.6	
418.17	6578.8	
418.37	4625.7	
418.57	4780	
418.78	6282.5	
418.98	6001.9	
419.18	5659.2	
419.38	5619.6	
419.59	6053.8	
419.79	5633.3	
419.99	4597	
420.2	5011.4	
420.4	6637.5	
420.6	6765.1	
420.8	4446.1	
421.01	4354.7	
421.21	6350.1	
421.41	6632	
421.61	4957.4	
421.82	4573.1	
422.02	5835.3	
422.22	6927.6	
422.42	5419.6	
422.63	5169.1	
422.83	5997.1	
423.03	7258	
423.23	5177.3	
423.44	4073.4	
423.64	6075.6	
423.84	5903.6	
424.04	4562.9	
424.25	4265.9	
424.45	7144.7	
424.65	7090.1	
424.85	3949.8	
425.06	4639.3	
425.26	6987.7	
425.46	5516.5	
425.66	5210.7	
425.87	4796.3	
426.07	6842.3	
426.27	6694.1	
426.47	5000.5	
426.67	4278.2	
426.88	7217	
427.08	6605.4	
427.28	5174.5	
427.48	4240	
427.69	5446.2	
427.89	6124.1	
428.09	5211.4	
428.29	4300.7	
428.5	6879.1	
428.7	6337.1	
428.9	4144.4	
429.1	4803.2	
429.3	6249	
429.51	6774	
429.71	4560.1	
429.91	5328.8	
430.11	6524.8	
430.31	7133.8	
430.52	4876.2	
430.72	5051	
430.92	7195.9	
431.12	6655.9	
431.32	4445.5	
431.53	4941.7	
431.73	5418.2	
431.93	7202.7	
432.13	4319.2	
432.33	4203.1	
432.54	5944.6	
432.74	6336.4	
432.94	4063.9	
433.14	5343.8	
433.34	6466.1	
433.55	5910.4	
433.75	5197.7	
433.95	7006.8	
434.15	6228.6	
434.35	5861.3	
434.56	4308.9	
434.76	3773	
434.96	6088.6	
435.16	6379.4	
435.36	4169	
435.56	5313.1	
435.77	5683.1	
435.97	5891.3	
436.17	6117.3	
436.37	5259.2	
436.57	5701.5	
436.78	5629.2	
436.98	6969.2	
437.18	5875.6	
437.38	6404.7	
437.58	5974.6	
437.78	6065.4	
437.99	4635.9	
438.19	6514.6	
438.39	7419.8	
438.59	4552.6	
438.79	3966.2	
438.99	7221.8	
439.2	6021.7	
439.4	4199	
439.6	4063.2	
439.8	6298.9	
440	7395.9	
440.2	5124	
440.4	5273.5	
440.61	6595.1	
440.81	7217	
441.01	4276.2	
441.21	5184.1	
441.41	6975.4	
441.61	6656.6	
441.81	5459.9	
442.02	6587	
442.22	7555.6	
442.42	6787.7	
442.62	4227	
442.82	4366.3	
443.02	7030	
443.22	5988.9	
443.43	4741.7	
443.63	4306.2	
443.83	5794.4	
444.03	5891.3	
444.23	5532.9	
444.43	5134.9	
444.63	6106.4	
444.83	7494.2	
445.04	4364.9	
445.24	5816.2	
445.44	6571.9	
445.64	6772.6	
445.84	5287.9	
446.04	5182.7	
446.24	6001.9	
446.44	7103	
446.65	4479.6	
446.85	4784.7	
447.05	6287.9	
447.25	7027.3	
447.45	4981.3	
447.65	4272.1	
447.85	6335.7	
448.05	5995.8	
448.25	5377.3	
448.46	5134.9	
448.66	6319.3	
448.86	6001.9	
449.06	4065.2	
449.26	5380	
449.46	6702.3	
449.66	5641.5	
449.86	4762.2	
450.06	4779.3	
450.26	5861.3	
450.47	6453.8	
450.67	5110.4	
450.87	5434.6	
451.07	6533.7	
451.27	6301.6	
451.47	4341.7	
451.67	4934.2	
451.87	5919.3	
452.07	7307.2	
452.27	4550.6	
452.47	4484.4	
452.67	6295.5	
452.88	6896.2	
453.08	3940.3	
453.28	6008.1	
453.48	7493.5	
453.68	6257.2	
453.88	4398.4	
454.08	4675.5	
454.28	6521.4	
454.48	6279.8	
454.68	5232.6	
454.88	5808.7	
455.08	6739.2	
455.28	6331	
455.48	4297.3	
455.68	4882.4	
455.89	7197.9	
456.09	6832	
456.29	4584.7	
456.49	4607.2	
456.69	6980.2	
456.89	6217	
457.09	5134.3	
457.29	5463.3	
457.49	6478.4	
457.69	6632	
457.89	4940.4	
458.09	4320.5	
458.29	6237.4	
458.49	6933.7	
458.69	5340.4	
458.89	4693.3	
459.09	7201.3	
459.29	7310.6	
459.49	4826.4	
459.69	5701.5	
459.9	6787.7	
460.1	6189	
460.3	4732.9	
460.5	4494.6	
460.7	6716.7	
460.9	6391.7	
461.1	4061.1	
461.3	5502.2	
461.5	7387.7	
461.7	6885.3	
461.9	4481	
462.1	5011.4	
462.3	6315.9	
462.5	6928.3	
462.7	4571.1	
462.9	4633.2	
463.1	8016.4	
463.3	7587	
463.5	4782	
463.7	5675.6	
463.9	6400.6	
464.1	6889.4	
464.3	4837.3	
464.5	5074.2	
464.7	7055.3	
464.9	6592.4	
465.1	6612.2	
465.3	5438.7	
465.5	7557	
465.7	7357	
465.9	5671.5	
466.1	5600.5	
466.3	7132.4	
466.5	7012.9	
466.7	6337.8	
466.9	5240.8	
467.1	6866.8	
467.3	7887.4	
467.5	6288.6	
467.7	5096	
467.9	8110	
468.1	9034.3	
468.3	5967.8	
468.5	6347.3	
468.7	6855.9	
468.9	6834.8	
469.1	5351.3	
469.3	6111.8	
469.5	8938	
469.7	6277.7	
469.9	5867.4	
470.1	5148.6	
470.3	6842.3	
470.5	6886	
470.7	6431.3	
470.9	5178.6	
471.1	6590.4	
471.3	7147.4	
471.5	5040.1	
471.69	7140.6	
471.89	6503.7	
472.09	6068.1	
472.29	5896.1	
472.49	6333.7	
472.69	6173.3	
472.89	7156.3	
473.09	4930.1	
473.29	5191.6	
473.49	6378.7	
473.69	6718	
473.89	6277.7	
474.09	5296	
474.29	7945.4	
474.49	7598	
474.69	6013.5	
474.89	5438	
475.09	6653.9	
475.29	6574	
475.49	4823	
475.69	5059.2	
475.88	8455.4	
476.08	6939.2	
476.28	4744.5	
476.48	5401.9	
476.68	7576.1	
476.88	7333.1	
477.08	5184.8	
477.28	5421.7	
477.48	6738.5	
477.68	7486.7	
477.88	4912.4	
478.08	5297.4	
478.28	7777.5	
478.48	6926.2	
478.67	5338.4	
478.87	4851.6	
479.07	7598.6	
479.27	7076.4	
479.47	5575.9	
479.67	5598.5	
479.87	7350.2	
480.07	8077.9	
480.27	4777.2	
480.47	6513.2	
480.67	7008.8	
480.87	7696.3	
481.06	5130.8	
481.26	5985.5	
481.46	6923.5	
481.66	6824.5	
481.86	5526.8	
482.06	6746.7	
482.26	6612.9	
482.46	7759.8	
482.66	5521.3	
482.86	4989.5	
483.05	6957.6	
483.25	6479.8	
483.45	8111.3	
483.65	5495.4	
483.85	6638.1	
484.05	6868.9	
484.25	5957.5	
484.45	6399.9	
484.65	7800.7	
484.84	7687.4	
485.04	5347.2	
485.24	5403.2	
485.44	8008.2	
485.64	6237.4	
485.84	4556.7	
486.04	6055.2	
486.24	6597.2	
486.44	7000	
486.63	4500.8	
486.83	5421.7	
487.03	6457.9	
487.23	6770.6	
487.43	4637.3	
487.63	7109.9	
487.83	6737.1	
488.02	7850.5	
488.22	5621.7	
488.42	6260	
488.62	7724.3	
488.82	6584.9	
489.02	5223.7	
489.22	5339.1	
489.41	7563.8	
489.61	7083.9	
489.81	5025	
490.01	5006.6	
490.21	7383.6	
490.41	8105.9	
490.61	4782.7	
490.8	5142.4	
491	6909.8	
491.2	6251.8	
491.4	5775.3	
491.6	4855.7	
491.8	6947.4	
491.99	7103.7	
492.19	4717.8	
492.39	5055.8	
492.59	7519.5	
492.79	7453.9	
492.99	5899.5	
493.18	4942.4	
493.38	7567.2	
493.58	8286.1	
493.78	5657.9	
493.98	5168.4	
494.18	7160.4	
494.37	6560.3	
494.57	5841.5	
494.77	5707.7	
494.97	7273	
495.17	7514.7	
495.37	5270.8	
495.56	5548.6	
495.76	7683.3	
495.96	7301.7	
496.16	6485.9	
496.36	5358.2	
496.55	7468.9	
496.75	7042.3	
496.95	5744.6	
497.15	5573.9	
497.35	7540.6	
497.54	7456.7	
497.74	5339.7	
497.94	7193.1	
498.14	8176.9	
498.34	8016.4	
498.53	4971.1	
498.73	5849	
498.93	6716.7	
499.13	7352.2	
499.33	5554.8	
499.52	6266.8	
499.72	7251.9	
499.92	7711.3	
500.12	5222.3	
500.32	5532.2	
500.51	7651.9	
500.71	7365.9	
500.91	6400.6	
501.11	5980.8	
501.31	7485.3	
501.5	8032.8	
501.7	6703	
501.9	5522	
502.1	7352.9	
502.29	7683.3	
502.49	6055.8	
502.69	6640.9	
502.89	7607.5	
503.09	7525.6	
503.28	5104.2	
503.48	5259.9	
503.68	6714.6	
503.88	6825.9	
504.07	6309.1	
504.27	5749.3	
504.47	7211.6	
504.67	7466.2	
504.86	6282.5	
505.06	5926.8	
505.26	6939.9	
505.46	8940.1	
505.65	5774.6	
505.85	6127.5	
506.05	6898.2	
506.25	7458.7	
506.44	5161.6	
506.64	6186.9	
506.84	6888	
507.04	7893.6	
507.23	5448.3	
507.43	6010.1	
507.63	9018.6	
507.83	7108.5	
508.02	6010.8	
508.22	4932.2	
508.42	9267.7	
508.62	6840.9	
508.81	5890	
509.01	6525.5	
509.21	6838.9	
509.4	7013.6	
509.6	6096.1	
509.8	5473.5	
510	7043.6	
510.19	8551.6	
510.39	5457.2	
510.59	5490.6	
510.79	6771.3	
510.98	8246.5	
511.18	5465.3	
511.38	5636	
511.57	7707.2	
511.77	7645.1	
511.97	6390.3	
512.17	5318.6	
512.36	7731.1	
512.56	7771.4	
512.76	5428.5	
512.95	5153.4	
513.15	7830.1	
513.35	6363.7	
513.55	6263.4	
513.74	5474.9	
513.94	7722.2	
514.14	7072.3	
514.33	6391	
514.53	6121.4	
514.73	7031.4	
514.92	7254.6	
515.12	5553.4	
515.32	5315.2	
515.51	7299.6	
515.71	7964.6	
515.91	7215	
516.11	5392.3	
516.3	9155.8	
516.5	6838.9	
516.7	6001.2	
516.89	6615.6	
517.09	7041.6	
517.29	6862.1	
517.48	6435.4	
517.68	5642.2	
517.88	6789.7	
518.07	7428.7	
518.27	6264.7	
518.47	5216.2	
518.66	8038.3	
518.86	6517.3	
519.06	5098.1	
519.25	5606.7	
519.45	6895.5	
519.65	8503.8	
519.84	6261.3	
520.04	7019.1	
520.24	8925.7	
520.43	7671.7	
520.63	5950.7	
520.83	5716.6	
521.02	6804.7	
521.22	7554.3	
521.42	6307.1	
521.61	6852.5	
521.81	7038.2	
522.01	7206.8	
522.2	6102.3	
522.4	5822.4	
522.6	7710.6	
522.79	6384.9	
522.99	5888.6	
523.18	5109.7	
523.38	7325.6	
523.58	7316.7	
523.77	7101.7	
523.97	5092.6	
524.17	9329.9	
524.36	8402.1	
524.56	6443.6	
524.76	6008.7	
524.95	7275.1	
525.15	6944.7	
525.34	5824.4	
525.54	5831.9	
525.74	7662.1	
525.93	6638.1	
526.13	7065.5	
526.33	5715.9	
526.52	7967.3	
526.72	7390.4	
526.91	6998.6	
527.11	6242.9	
527.31	8000	
527.5	8469.7	
527.7	6123.4	
527.89	5068.7	
528.09	6752.8	
528.29	7407.5	
528.48	6495.5	
528.68	6164.4	
528.87	7790.5	
529.07	7913.4	
529.27	6043.6	
529.46	5640.8	
529.66	7481.2	
529.85	7904.5	
530.05	5407.3	
530.25	6233.3	
530.44	8890.2	
530.64	7372.7	
530.83	5851	
531.03	6033.3	
531.23	7847.8	
531.42	7752.2	
531.62	6920.1	
531.81	5952.1	
532.01	7892.9	
532.21	8370.7	
532.4	5621.7	
532.6	6052.4	
532.79	8731.2	
532.99	7855.3	
533.18	6029.9	
533.38	7051.2	
533.58	7418.4	
533.77	8228.1	
533.97	5893.4	
534.16	6954.2	
534.36	8417.8	
534.55	7365.9	
534.75	7002.7	
534.95	6021.7	
535.14	8319.5	
535.34	7473	
535.53	5746.6	
535.73	7818.5	
535.92	8974.9	
536.12	7715.4	
536.31	5798.5	
536.51	7189.7	
536.71	7962.5	
536.9	7492.8	
537.1	6061.3	
537.29	6146	
537.49	8363.9	
537.68	7443	
537.88	6505	
538.07	5721.3	
538.27	7557	
538.46	8696.4	
538.66	5539.8	
538.86	6085.9	
539.05	7645.8	
539.25	8125	
539.44	6301.6	
539.64	5992.4	
539.83	7549.5	
540.03	8604.9	
540.22	5834.7	
540.42	5984.2	
540.61	7910.6	
540.81	7909.9	
541	6554.9	
541.2	7168.6	
541.39	7380.9	
541.59	7780.2	
541.78	6769.2	
541.98	5878.4	
542.18	7027.3	
542.37	7024.5	
542.57	6400.6	
542.76	6842.3	
542.96	7171.3	
543.15	7917.4	
543.35	6405.4	
543.54	5667.4	
543.74	8303.8	
543.93	7746.1	
544.13	6391.7	
544.32	7526.3	
544.52	8197.3	
544.71	7319.4	
544.91	5455.8	
545.1	6889.4	
545.3	7365.2	
545.49	8077.2	
545.69	5453.7	
545.88	6154.8	
546.08	9119.6	
546.27	8665	
546.47	6641.6	
546.66	5879.7	
546.86	8340	
547.05	8899.1	
547.24	6171.2	
547.44	5977.3	
547.63	7204.1	
547.83	8501.1	
548.02	6367.8	
548.22	6617	
548.41	7066.2	
548.61	8495.7	
548.8	5910.4	
549	5892	
549.19	7688.8	
549.39	8113.4	
549.58	5581.4	
549.78	6267.5	
549.97	8165.3	
550.17	7653.9	
550.36	7168.6	
550.55	8246.5	
550.75	7694.2	
550.94	8642.4	
551.14	5874.9	
551.33	6324.1	
551.53	6980.2	
551.72	8090.8	
551.92	6323.4	
552.11	6125.5	
552.31	8044.4	
552.5	7989.1	
552.69	7866.2	
552.89	5733.6	
553.08	8013.7	
553.28	7739.3	
553.47	6147.3	
553.67	7357.7	
553.86	8788.5	
554.06	7018.4	
554.25	5233.2	
554.44	5902.9	
554.64	9626.8	
554.83	8995.4	
555.03	5842.9	
555.22	6257.9	
555.42	8225.3	
555.61	7935.9	
555.8	6105	
556	6401.3	
556.19	7029.3	
556.39	8497	
556.58	6118	
556.78	6111.8	
556.97	7802.1	
557.16	7490.8	
557.36	7490.1	
557.55	5760.9	
557.75	6835.4	
557.94	8701.8	
558.13	6016.9	
558.33	5630.5	
558.52	8474.5	
558.72	7305.8	
558.91	5850.4	
559.1	6160.3	
559.3	7025.9	
559.49	6668.2	
559.69	5340.4	
559.88	6423.8	
560.07	7845.8	
560.27	8270.4	
560.46	6618.4	
560.66	6810.2	
560.85	7636.9	
561.04	6825.2	
561.24	5737.7	
561.43	6039.5	
561.63	7118.1	
561.82	7407.5	
562.01	7348.1	
562.21	6286.6	
562.4	7843.7	
562.59	8905.9	
562.79	6119.3	
562.98	5743.2	
563.18	7745.4	
563.37	9330.5	
563.56	6685.9	
563.76	5638.7	
563.95	7175.4	
564.14	7103	
564.34	6072.9	
564.53	5886.5	
564.73	7701	
564.92	8083.3	
565.11	6273.6	
565.31	5621.7	
565.5	8338.6	
565.69	7283.3	
565.89	5838.1	
566.08	6097.5	
566.27	8186.4	
566.47	8518.2	
566.66	6856.6	
566.85	5310.4	
567.05	7692.9	
567.24	7098.3	
567.44	5724.8	
567.63	7212.9	
567.82	7990.5	
568.02	7739.3	
568.21	5737	
568.4	6174.6	
568.6	7550.9	
568.79	7663.5	
568.98	5530.9	
569.18	5693.4	
569.37	7509.2	
569.56	9672.6	
569.76	6160.3	
569.95	7134.4	
570.14	7912.7	
570.34	7892.9	
570.53	5565.7	
570.72	5565	
570.91	8426	
571.11	7501	
571.3	6078.4	
571.49	7041.6	
571.69	7509.2	
571.88	7041.6	
572.07	6668.2	
572.27	6698.2	
572.46	7109.9	
572.65	8211	
572.85	5766.4	
573.04	6173.9	
573.23	8410.3	
573.43	7645.8	
573.62	5490.6	
573.81	6206.7	
574	7576.1	
574.2	7384.3	
574.39	5924.1	
574.58	6071.5	
574.78	8501.1	
574.97	7664.2	
575.16	6434	
575.36	6627.9	
575.55	8161.2	
575.74	8187.1	
575.93	5461.9	
576.13	6551.5	
576.32	7423.2	
576.51	8072.4	
576.71	5961.6	
576.9	7355.6	
577.09	8471.8	
577.28	7872.4	
577.48	6377.4	
577.67	5426.4	
577.86	7515.4	
578.05	7808.9	
578.25	6073.6	
578.44	6294.8	
578.63	7676.5	
578.83	8818.6	
579.02	5427.8	
579.21	7176.1	
579.4	7824.6	
579.6	7445.7	
579.79	6234.7	
579.98	8732.5	
580.17	8151.6	
580.37	8234.9	
580.56	5658.5	
580.75	6477	
580.94	8761.9	
581.14	8555.7	
581.33	7010.9	
581.52	5900.2	
581.71	8026.7	
581.91	8768.7	
582.1	5483.1	
582.29	6211.5	
582.48	7720.2	
582.68	7499	
582.87	6580.1	
583.06	6256.5	
583.25	8025.3	
583.45	7344	
583.64	6952.2	
583.83	7634.8	
584.02	7387	
584.21	7940.7	
584.41	6956.9	
584.6	6180.8	
584.79	7658.7	
584.98	8529.1	
585.18	5550.7	
585.37	5626.5	
585.56	7168.6	
585.75	8049.2	
585.94	5886.5	
586.14	6664.1	
586.33	8626	
586.52	7697.6	
586.71	6481.1	
586.91	6203.3	
587.1	7058.7	
587.29	8155.7	
587.48	6156.2	
587.67	5924.8	
587.87	8017.1	
588.06	8073.1	
588.25	7381.6	
588.44	6683.2	
588.63	7737.2	
588.83	8322.9	
589.02	6055.8	
589.21	6009.4	
589.4	7605.5	
589.59	7410.9	
589.78	5354.1	
589.98	5670.8	
590.17	7120.8	
590.36	7701	
590.55	5091.9	
590.74	6051.1	
590.94	9227.5	
591.13	7647.1	
591.32	5672.2	
591.51	5198.4	
591.7	8085.4	
591.89	7562.5	
592.09	5360.9	
592.28	5872.9	
592.47	6783.6	
592.66	8726.4	
592.85	5310.4	
593.05	5565.7	
593.24	7283.9	
593.43	8134.5	
593.62	5628.5	
593.81	6100.9	
594	7389.1	
594.19	7669.6	
594.39	5520	
594.58	5468.1	
594.77	7817.8	
594.96	8387.1	
595.15	5470.1	
595.34	6167.8	
595.54	7906.5	
595.73	6972.7	
595.92	4807.3	
596.11	6025.8	
596.3	8376.9	
596.49	7064.8	
596.68	5870.8	
596.88	6324.1	
597.07	8075.1	
597.26	6773.3	
597.45	5259.9	
597.64	6655.9	
597.83	7045.7	
598.02	7785	
598.22	5424.4	
598.41	6169.2	
598.6	7539.3	
598.79	6913.3	
598.98	5451.7	
599.17	6524.8	
599.36	7561.1	
599.55	8798.1	
599.74	7615.7	
599.94	7348.1	
600.13	8146.8	
600.32	6868.9	
600.51	5188.2	
600.7	5316.5	
600.89	8844.5	
601.08	8901.8	
601.27	5106.3	
601.47	6186.2	
601.66	8017.1	
601.85	8800.8	
602.04	5868.1	
602.23	6068.1	
602.42	7058	
602.61	7696.3	
602.8	5730.2	
602.99	5504.3	
603.18	7326.3	
603.37	7740	
603.57	6218.3	
603.76	6797.9	
603.95	8441.7	
604.14	7977.5	
604.33	5545.9	
604.52	5928.2	
604.71	7542	
604.9	7165.8	
605.09	6626.5	
605.28	6414.2	
605.47	8226.7	
605.66	7981.6	
605.86	6242.9	
606.05	5674.9	
606.24	8269.7	
606.43	6759	
606.62	5993	
606.81	6766.5	
607	8145.5	
607.19	7431.4	
607.38	5378	
607.57	5674.9	
607.76	7086	
607.95	6635.4	
608.14	6070.9	
608.33	6769.9	
608.52	7232.7	
608.72	8042.4	
608.91	5270.1	
609.1	5179.3	
609.29	7345.4	
609.48	6761	
609.67	6261.3	
609.86	5337.7	
610.05	6885.3	
610.24	7250.5	
610.43	5096.7	
610.62	4801.8	
610.81	8425.3	
611	8181	
611.19	5299.5	
611.38	6062.7	
611.57	7492.2	
611.76	9041.1	
611.95	5054.4	
612.14	4981.3	
612.33	7279.2	
612.52	6804.7	
612.71	5713.2	
612.9	4770.4	
613.09	6467.5	
613.28	8945.5	
613.47	5321.3	
613.66	6403.3	
613.85	7487.4	
614.04	6954.2	
614.24	5516.5	
614.43	4627	
614.62	7578.8	
614.81	7576.8	
615	6064.7	
615.19	6071.5	
615.38	6817	
615.57	7172.7	
615.76	5915.9	
615.95	6915.3	
616.14	7557.7	
616.33	7277.8	
616.52	6285.9	
616.71	6478.4	
616.9	7592.5	
617.09	7357.7	
617.28	5550	
617.47	7086.7	
617.66	6606.7	
617.85	6703.7	
618.04	6523.5	
618.22	5952.1	
618.41	6928.3	
618.6	7897.7	
618.79	5692.7	
618.98	5456.5	
619.17	8189.8	
619.36	6421.1	
619.55	5510.4	
619.74	5681.7	
619.93	7414.3	
620.12	6864.8	
620.31	6231.3	
620.5	6399.2	
620.69	8035.5	
620.88	8452	
621.07	7140.6	
621.26	6014.2	
621.45	7623.2	
621.64	7602.7	
621.83	6279.1	
622.02	5304.2	
622.21	7689.4	
622.4	7397.3	
622.59	6748.7	
622.78	6419.7	
622.97	6951.5	
623.16	7940.7	
623.35	6062.7	
623.54	5193	
623.72	7210.9	
623.91	7326.3	
624.1	6395.8	
624.29	5010	
624.48	8467.7	
624.67	7686.7	
624.86	6272.9	
625.05	5255.1	
625.24	8495.7	
625.43	6777.4	
625.62	8105.2	
625.81	5473.5	
626	7952.3	
626.19	7124.9	
626.38	6312.5	
626.56	5700.2	
626.75	7016.3	
626.94	7533.1	
627.13	6296.8	
627.32	4995	
627.51	7710.6	
627.7	9155.8	
627.89	5122.7	
628.08	6324.1	
628.27	6860	
628.46	7095.5	
628.65	5476.3	
628.83	5132.9	
629.02	7651.9	
629.21	6982.9	
629.4	5956.2	
629.59	6150.1	
629.78	6811.5	
629.97	7872.4	
630.16	6180.8	
630.35	5602.6	
630.54	8314.8	
630.72	8032.8	
630.91	5558.9	
631.1	6242.9	
631.29	7505.8	
631.48	7649.2	
631.67	6246.3	
631.86	5728.9	
632.05	7051.2	
632.24	7170.6	
632.42	5255.8	
632.61	6057.2	
632.8	7289.4	
632.99	6812.2	
633.18	5962.3	
633.37	6430.6	
633.56	7467.6	
633.75	7354.9	
633.93	5940.5	
634.12	5599.8	
634.31	8336.6	
634.5	8007.6	
634.69	5679.7	
634.88	6219	
635.07	7215	
635.25	7847.8	
635.44	6643.6	
635.63	6973.3	
635.82	7033.4	
636.01	6619	
636.2	6593.1	
636.39	6110.5	
636.57	8289.5	
636.76	7984.3	
636.95	5503.6	
637.14	7037.5	
637.33	7537.9	
637.52	8621.9	
637.7	5262.6	
637.89	6310.5	
638.08	7112.6	
638.27	8705.9	
638.46	6343.2	
638.65	6892.8	
638.83	8757.1	
639.02	6892.8	
639.21	6308.4	
639.4	6841.6	
639.59	7556.3	
639.78	7091.4	
639.96	5600.5	
640.15	5573.2	
640.34	7322.9	
640.53	7613.7	
640.72	5261.2	
640.91	5638.7	
641.09	6744.6	
641.28	8218.5	
641.47	5607.3	
641.66	6581.5	
641.85	7562.5	
642.03	7843.7	
642.22	6275	
642.41	5682.4	
642.6	6928.3	
642.79	6288.6	
642.97	5524.7	
643.16	6285.9	
643.35	6924.9	
643.54	6700.3	
643.73	5403.9	
643.91	6414.9	
644.1	6575.3	
644.29	7251.9	
644.48	5611.4	
644.67	5662.6	
644.85	6810.9	
645.04	7219.1	
645.23	5227.8	
645.42	5477.6	
645.6	6716.7	
645.79	7911.3	
645.98	5496.7	
646.17	4500.1	
646.36	6546.7	
646.54	7211.6	
646.73	6508.4	
646.92	5177.9	
647.11	6799.9	
647.29	8041	
647.48	5245.5	
647.67	5112.4	
647.86	8216.5	
648.05	8176.9	
648.23	5674.2	
648.42	7036.1	
648.61	7503.1	
648.8	7171.3	
648.98	5229.1	
649.17	5577.3	
649.36	6760.3	
649.55	6225.8	
649.73	5275.6	
649.92	6107.7	
650.11	6611.5	
650.3	7043.6	
650.48	5483.8	
650.67	5230.5	
650.86	7331.7	
651.05	6215.6	
651.23	5444.2	
651.42	5360.9	
651.61	6728.3	
651.79	6916.7	
651.98	5600.5	
652.17	5164.3	
652.36	7255.3	
652.54	6338.5	
652.73	5297.4	
652.92	5058.5	
653.11	7327.6	
653.29	7437.5	
653.48	4550.6	
653.67	5585.5	
653.85	7120.1	
654.04	8260.1	
654.23	5881.8	
654.42	5374.6	
654.6	6630	
654.79	7320.1	
654.98	4868	
655.16	5433.3	
655.35	6242.9	
655.54	6242.2	
655.73	4910.3	
655.91	4887.8	
656.1	7484	
656.29	6126.8	
656.47	4440	
656.66	6223.1	
656.85	6410.1	
657.03	6397.9	
657.22	4915.8	
657.41	5046.2	
657.59	6530.3	
657.78	6322.1	
657.97	4696.7	
658.16	5390.9	
658.34	7200.7	
658.53	7681.2	
658.72	6362.4	
658.9	6907.1	
659.09	6510.5	
659.28	6705	
659.46	5171.8	
659.65	5047.6	
659.84	6421.7	
660.02	6839.5	
660.21	4987.5	
660.4	4898.1	
660.58	7493.5	
660.77	6754.2	
660.96	5496.1	
661.14	4526.7	
661.33	7943.4	
661.52	7886	
661.7	4498	
661.89	8546.9	
662.08	6376	
662.26	5901.6	
662.45	4780.6	
662.64	4947.9	
662.82	7077.1	
663.01	6181.5	
663.2	4992.3	
663.38	5778	
663.57	6911.2	
663.75	6826.6	
663.94	5326.8	
664.13	6669.6	
664.31	6339.1	
664.5	7093.5	
664.69	5498.1	
664.87	6238.8	
665.06	6031.3	
665.25	6844.3	
665.43	6413.6	
665.62	6597.2	
665.8	7224.6	
665.99	6462.7	
666.18	5323.4	
666.36	5395	
666.55	7217.7	
666.74	7060	
666.92	4982	
667.11	6668.9	
667.29	6496.2	
667.48	7185.6	
667.67	6304.3	
667.85	5403.2	
668.04	6587	
668.22	6476.4	
668.41	5414.1	
668.6	5588.9	
668.78	6303.6	
668.97	6577.4	
669.15	5864	
669.34	4749.9	
669.53	6304.3	
669.71	6687.3	
669.9	4922	
670.08	5591.6	
670.27	6336.4	
670.46	6972	
670.64	5813.5	
670.83	6107	
671.01	6249	
671.2	6887.3	
671.38	5025.7	
671.57	4847.5	
671.76	7501	
671.94	8165.9	
672.13	4759.5	
672.31	6014.2	
672.5	7049.1	
672.69	6260.6	
672.87	4915.8	
673.06	5327.4	
673.24	6890.7	
673.43	6354.2	
673.61	5812.1	
673.8	5287.2	
673.98	7132.4	
674.17	7290.8	
674.36	5942.5	
674.54	5782.1	
674.73	6861.4	
674.91	7140.6	
675.1	5419.6	
675.28	5128.8	
675.47	6670.9	
675.65	7223.9	
675.84	5234.6	
676.03	5636	
676.21	6359.6	
676.4	5924.8	
676.58	6176	
676.77	5887.2	
676.95	7973.4	
677.14	6349.4	
677.32	4962.9	
677.51	4697.4	
677.69	7116.7	
677.88	5950.7	
678.06	4876.2	
678.25	4911.7	
678.44	6582.2	
678.62	6336.4	
678.81	4637.3	
678.99	5683.1	
679.18	7513.3	
679.36	7027.9	
679.55	5246.2	
679.73	5953.4	
679.92	7008.1	
680.1	6359.6	
680.29	6577.4	
680.47	5257.1	
680.66	6291.4	
680.84	7210.9	
681.03	4505.5	
681.21	5775.3	
681.4	6267.5	
681.58	6257.2	
681.77	5001.8	
681.95	4922.6	
682.14	7245.7	
682.32	7627.3	
682.51	5928.2	
682.69	4728.1	
682.88	6333.7	
683.06	7050.5	
683.25	5692	
683.43	6180.1	
683.62	6563.7	
683.8	7033.4	
683.99	6297.5	
684.17	5582.8	
684.36	8030.8	
684.54	6655.9	
684.73	4720.6	
684.91	4967	
685.1	6995.9	
685.28	6353.5	
685.46	5539.1	
685.65	5647.6	
685.83	7238.9	
686.02	6572.6	
686.2	5047.6	
686.39	5150	
686.57	6152.8	
686.76	7903.8	
686.94	5049.6	
687.13	5175.9	
687.31	7101	
687.5	6507.1	
687.68	4656.4	
687.86	5987.6	
688.05	8208.9	
688.23	5997.8	
688.42	6051.7	
688.6	5104.2	
688.79	6455.2	
688.97	6427.2	
689.16	5557.5	
689.34	4429.8	
689.52	7213.6	
689.71	7376.1	
689.89	5776	
690.08	5140.4	
690.26	6688	
690.45	6674.3	
690.63	6044.2	
690.81	5221.6	
691	6412.9	
691.18	6357.6	
691.37	5463.3	
691.55	7866.2	
691.74	6292	
691.92	8584.4	
692.1	5400.5	
692.29	4842.8	
692.47	6586.3	
692.66	5856.5	
692.84	5020.9	
693.02	5642.8	
693.21	5911.1	
693.39	6513.2	
693.58	5707.7	
693.76	5120.6	
693.94	7811.6	
694.13	7516.7	
694.31	5057.1	
694.5	6223.1	
694.68	6303	
694.86	6666.1	
695.05	5436	
695.23	5837.4	
695.42	7036.8	
695.6	9637.1	
695.78	6111.8	
695.97	5156.1	
696.15	7196.6	
696.34	6449.7	
696.52	4914.4	
696.7	5844.9	
696.89	6902.3	
697.07	6307.1	
697.25	5724.8	
697.44	7421.2	
697.62	6800.6	
697.81	7288	
697.99	5470.1	
698.17	5926.1	
698.36	6120.7	
698.54	6851.8	
698.72	5767.8	
698.91	4750.6	
699.09	6481.1	
699.28	6348	
699.46	5365.7	
699.64	5291.3	
699.83	6196.5	
700.01	7587	
700.19	6102.3	
700.38	4461.2	
700.56	7539.9	
700.74	6306.4	
700.93	4854.4	
701.11	5810.1	
701.29	6969.2	
701.48	8064.9	
701.66	5100.8	
701.84	5152	
702.03	6465.4	
702.21	7193.8	
702.39	4735.6	
702.58	5297.4	
702.76	6819.7	
702.94	7074.4	
703.13	4707.6	
703.31	7285.3	
703.49	6059.9	
703.68	7788.4	
703.86	4894	
704.04	5875.6	
704.23	6662	
704.41	7112.6	
704.59	4974.5	
704.78	6381.5	
704.96	7940.7	
705.14	7192.5	
705.33	4808.6	
705.51	5750.7	
705.69	6509.8	
705.87	7409.6	
706.06	6014.2	
706.24	4799.1	
706.42	6746	
706.61	7136.5	
706.79	6073.6	
706.97	4847.5	
707.16	6315.9	
707.34	6935.8	
707.52	5973.9	
707.7	5098.8	
707.89	6470.2	
708.07	6120.7	
708.25	6020.3	
708.44	6095.4	
708.62	6389	
708.8	7560.4	
708.98	6345.3	
709.17	5201.2	
709.35	6847.7	
709.53	6823.1	
709.72	4853.7	
709.9	5024.3	
710.08	7044.3	
710.26	7153.6	
710.45	6688	
710.63	5201.8	
710.81	6739.2	
710.99	6776	
711.18	5915.2	
711.36	5385.5	
711.54	6579.4	
711.72	7379.5	
711.91	5408.7	
712.09	4804.5	
712.27	6816.3	
712.45	7456	
712.64	5812.8	
712.82	4681	
713	6184.2	
713.18	6425.8	
713.37	4866.7	
713.55	6404	
713.73	7488.1	
713.91	5941.8	
714.1	5359.5	
714.28	4835.9	
714.46	7155.6	
714.64	6322.8	
714.83	4254.3	
715.01	5190.9	
715.19	6365.8	
715.37	5790.3	
715.55	4863.9	
715.74	5166.3	
715.92	7481.9	
716.1	5343.8	
716.28	6386.9	
716.47	5404.6	
716.65	6002.6	
716.83	6121.4	
717.01	5221.6	
717.19	5342.5	
717.38	8347.5	
717.56	5810.1	
717.74	5474.2	
717.92	4557.4	
718.1	7024.5	
718.29	6195.8	
718.47	4083	
718.65	4823	
718.83	6905.1	
719.01	6745.3	
719.2	3900	
719.38	5143.1	
719.56	6520.7	
719.74	8145.5	
719.92	4578.6	
720.11	5834	
720.29	6523.5	
720.47	5709.1	
720.65	4287.1	
720.83	5181.4	
721.02	6061.3	
721.2	5801.2	
721.38	5281.7	
721.56	4476.2	
721.74	5316.5	
721.92	5525.4	
722.11	5847.6	
722.29	5454.4	
722.47	6896.9	
722.65	5994.4	
722.83	4528.7	
723.01	5541.1	
723.2	6056.5	
723.38	6336.4	
723.56	3896.6	
723.74	5180.7	
723.92	5542.5	
724.1	6832	
724.29	4431.8	
724.47	5745.2	
724.65	5532.2	
724.83	5509.7	
725.01	4338.3	
725.19	5338.4	
725.37	5617.6	
725.56	5654.4	
725.74	4165.6	
725.92	4437.9	
726.1	5502.2	
726.28	5789.6	
726.46	4983.4	
726.64	4646.2	
726.83	5810.8	
727.01	6098.2	
727.19	4157.4	
727.37	5087.8	
727.55	5950.7	
727.73	6536.4	
727.91	4070.7	
728.09	3938.9	
728.28	6577.4	
728.46	7242.3	
728.64	5195	
728.82	5051.7	
729	7679.2	
729.18	6871.6	
729.36	4293.9	
729.54	6777.4	
729.72	7923.6	
729.91	6037.4	
730.09	6311.2	
730.27	4920.6	
730.45	5900.9	
730.63	6668.2	
730.81	5570.5	
730.99	4569	
731.17	7170.6	
731.35	5627.1	
731.53	5111	
731.71	4717.8	
731.9	6858	
732.08	7135.1	
732.26	4984.1	
732.44	4619.5	
732.62	7116	
732.8	6539.2	
732.98	5427.8	
733.16	4414.1	
733.34	6627.9	
733.52	5302.9	
733.7	5029.1	
733.88	5329.5	
734.07	6444.3	
734.25	6193.1	
734.43	4361.5	
734.61	6152.8	
734.79	7737.2	
734.97	5984.8	
735.15	4498	
735.33	4836.6	
735.51	6440.9	
735.69	6062.7	
735.87	6126.8	
736.05	5203.2	
736.23	6270.2	
736.41	5982.1	
736.59	4941.1	
736.77	5099.4	
736.95	6666.8	
737.13	6135.7	
737.32	4497.3	
737.5	4785.4	
737.68	7292.1	
737.86	5968.5	
738.04	4261.1	
738.22	6409.5	
738.4	5767.8	
738.58	6106.4	
738.76	5073.5	
738.94	3900	
739.12	5935	
739.3	5775.3	
739.48	5726.8	
739.66	5425.8	
739.84	6157.6	
740.02	6189	
740.2	3968.3	
740.38	4414.1	
740.56	6612.2	
740.74	5375.2	
740.92	5117.9	
741.1	5062.6	
741.28	6029.2	
741.46	5877.7	
741.64	4662.5	
741.82	5249.6	
742	6025.8	
742.18	6038.1	
742.36	4881	
742.54	4431.1	
742.72	6748.7	
742.9	5282.4	
743.08	5372.5	
743.26	4089.8	
743.44	6931	
743.62	6738.5	
743.8	5483.1	
743.98	4403.1	
744.16	6438.1	
744.34	6040.8	
744.52	5406	
744.7	5350.7	
744.88	6538.5	
745.06	6107	
745.24	5446.2	
745.42	5595.7	
745.6	6649.8	
745.78	6483.2	
745.96	4205.2	
746.14	4536.3	
746.32	7558.4	
746.5	6711.2	
746.68	5224.4	
746.86	4602.5	
747.03	7235.5	
747.21	5356.1	
747.39	5145.9	
747.57	4577.9	
747.75	6318.7	
747.93	6739.2	
748.11	4595	
748.29	4487.8	
748.47	7996.6	
748.65	5937.7	
748.83	5367	
749.01	5071.5	
749.19	6493.4	
749.37	5664	
749.55	4890.5	
749.73	5080.3	
749.91	6063.4	
750.09	5814.2	
750.26	5072.1	
750.44	4423.6	
750.62	6175.3	
750.8	6143.2	
750.98	4255	
751.16	4685.8	
751.34	6281.1	
751.52	5498.8	
751.7	5519.3	
751.88	4259.1	
752.06	6837.5	
752.24	6571.9	
752.42	4204.5	
752.59	4629.1	
752.77	6117.3	
752.95	7475.1	
753.13	5421	
753.31	4710.3	
753.49	5756.2	
753.67	6320.7	
753.85	5084.4	
754.03	4660.5	
754.21	6634.1	
754.38	6956.9	
754.56	4862.6	
754.74	3788.7	
754.92	5800.5	
755.1	6676.4	
755.28	3874.1	
755.46	3943	
755.64	7531.1	
755.82	7645.8	
755.99	4300.7	
756.17	4478.2	
756.35	4988.2	
756.53	6683.9	
756.71	3277.4	
756.89	4309.6	
757.07	6285.2	
757.25	5236.7	
757.42	4842.8	
757.6	5862	
757.78	6307.7	
757.96	5144.5	
758.14	4535.6	
758.32	3994.2	
758.5	4702.8	
758.67	5661.3	
758.85	4277.5	
759.03	4512.4	
759.21	5823.1	
759.39	5264	
759.57	3848.8	
759.75	5177.3	
759.92	6512.5	
760.1	5666	
760.28	5599.1	
760.46	5732.3	
760.64	5397.8	
760.82	5096.7	
760.99	5334.3	
761.17	4397	
761.35	6316.6	
761.53	5212.8	
761.71	4543.1	
761.89	5225.1	
762.06	6177.4	
762.24	5649	
762.42	4517.8	
762.6	4385.4	
762.78	5617.6	
762.96	6293.4	
763.13	4992.3	
763.31	4586.8	
763.49	6498.2	
763.67	5516.5	
763.85	5518.6	
764.02	6214.2	
764.2	6756.2	
764.38	5901.6	
764.56	4507.6	
764.74	5445.5	
764.91	6832.7	
765.09	5679	
765.27	4154	
765.45	3974.4	
765.63	6956.3	
765.8	6819.1	
765.98	3608.5	
766.16	4023.6	
766.34	5288.5	
766.52	5026.4	
766.69	5098.1	
766.87	3805.8	
767.05	5670.1	
767.23	6423.8	
767.41	4198.3	
767.58	4539.7	
767.76	6375.3	
767.94	6472.3	
768.12	4262.5	
768.29	5145.9	
768.47	5802.6	
768.65	6647.7	
768.83	3935.5	
769	5169.1	
769.18	5321.3	
769.36	6165.1	
769.54	5213.4	
769.72	3962.1	
769.89	6398.5	
770.07	6565.1	
770.25	4304.8	
770.43	5737	
770.6	7200.7	
770.78	7793.9	
770.96	4515.1	
771.14	5294	
771.31	6380.8	
771.49	5670.1	
771.67	3651.5	
771.85	3928	
772.02	4829.8	
772.2	5692	
772.38	4744.5	
772.55	4223.6	
772.73	5972.6	
772.91	5715.2	
773.09	4626.4	
773.26	4672.1	
773.44	5866.1	
773.62	5577.3	
773.8	4074.8	
773.97	3810.6	
774.15	5986.9	
774.33	5540.4	
774.5	3984.7	
774.68	4408.6	
774.86	6206	
775.04	5612.8	
775.21	4039.3	
775.39	4043.4	
775.57	5913.9	
775.74	6418.3	
775.92	3893.9	
776.1	3814	
776.27	5924.1	
776.45	7233.4	
776.63	4075.5	
776.81	3551.9	
776.98	5470.1	
777.16	6681.8	
777.34	4273.4	
777.51	4564.2	
777.69	5485.1	
777.87	5264	
778.04	4155.3	
778.22	5010.7	
778.4	5288.5	
778.57	6044.9	
778.75	3537.5	
778.93	3874.8	
779.1	5135.6	
779.28	5034.6	
779.46	3538.9	
779.64	4120.5	
779.81	6225.8	
779.99	7212.9	
780.17	4959.5	
780.34	5155.4	
780.52	5688.6	
780.69	5834	
780.87	4500.8	
781.05	3962.8	
781.22	5675.6	
781.4	5755.5	
781.58	4146.5	
781.75	3203.7	
781.93	5752.1	
782.11	5122.7	
782.28	5179.3	
782.46	4080.9	
782.64	4902.8	
782.81	5986.2	
782.99	4272.1	
783.17	4205.8	
783.34	5901.6	
783.52	4992.9	
783.69	4384.7	
783.87	5304.9	
784.05	5046.2	
784.22	5114.5	
784.4	5225.7	
784.58	4527.4	
784.75	6097.5	
784.93	5117.2	
785.1	4131.4	
785.28	4858.5	
785.46	5812.1	
785.63	5123.3	
785.81	4153.3	
785.99	4004.5	
786.16	5248.9	
786.34	5772.5	
786.51	4069.3	
786.69	4440.7	
786.87	4803.2	
787.04	5442.1	
787.22	3891.1	
787.39	4972.5	
787.57	5057.1	
787.75	6341.9	
787.92	5095.3	
788.1	5046.9	
788.27	5183.4	
788.45	4883	
788.63	4735.6	
788.8	3347.7	
788.98	5528.2	
789.15	4837.3	
789.33	3509.5	
789.5	4212.7	
789.68	6183.5	
789.86	6306.4	
790.03	4704.9	
790.21	4053.6	
790.38	6138.4	
790.56	5238.7	
790.73	3914.4	
790.91	3905.5	
791.09	5127.4	
791.26	5997.1	
791.44	4183.3	
791.61	3618.1	
791.79	5144.5	
791.96	5246.2	
792.14	3637.2	
792.32	3195.5	
792.49	5183.4	
792.67	5317.9	
792.84	3807.2	
793.02	3532.1	
793.19	5627.1	
793.37	6466.1	
793.54	3241.3	
793.72	3695.2	
793.89	6625.2	
794.07	5175.9	
794.25	4358.1	
794.42	3370.3	
794.6	6312.5	
794.77	5893.4	
794.95	4554.7	
795.12	3991.5	
795.3	5119.9	
795.47	5892	
795.65	4431.8	
795.82	4323.3	
796	4909.7	
796.17	7039.6	
796.35	4085	
796.52	4813.4	
796.7	5693.4	
796.87	5897.5	
797.05	5081	
797.22	5048.9	
797.4	5804.6	
797.57	6934.4	
797.75	4265.9	
797.92	3967.6	
798.1	6134.3	
798.27	5157.5	
798.45	3366.9	
798.62	3674.7	
798.8	5487.9	
798.97	6077.7	
799.15	4571.7	
799.32	4282.3	
799.5	4711.7	
799.67	5541.1	
799.85	4658.4	
800.02	3269.9	
800.2	5129.5	
800.37	5483.8	
800.55	4841.4	
800.72	3981.3	
800.9	5956.9	
801.07	6507.8	
801.25	5393.7	
801.42	4425.7	
801.6	6024.4	
801.77	5776	
801.95	4062.5	
802.12	3910.9	
802.29	5597.8	
802.47	5748.6	
802.64	4362.9	
802.82	3235.1	
802.99	5066	
803.17	6282.5	
803.34	4295.3	
803.52	3845.4	
803.69	6962.4	
803.87	4926	
804.04	4195.6	
804.21	4373.1	
804.39	6275	
804.56	5362.9	
804.74	3586	
804.91	4429.1	
805.09	5134.3	
805.26	5290.6	
805.44	3657.7	
805.61	4037.2	
805.78	5847	
805.96	5927.5	
806.13	4459.8	
806.31	4771.8	
806.48	4710.3	
806.66	5238	
806.83	4425.7	
807	4351.3	
807.18	5130.2	
807.35	5595.1	
807.53	4327.4	
807.7	3353.9	
807.87	6434	
808.05	5211.4	
808.22	4848.9	
808.4	3379.1	
808.57	5198.4	
808.74	4794.3	
808.92	3961.5	
809.09	5018.9	
809.27	5065.3	
809.44	5745.9	
809.61	3433.1	
809.79	3859.7	
809.96	6425.2	
810.14	5982.8	
810.31	3336.8	
810.48	4132.8	
810.66	5341.1	
810.83	6120.7	
811.01	3883.6	
811.18	4388.1	
811.35	6031.3	
811.53	4658.4	
811.7	4746.5	
811.87	4449.6	
812.05	5178.6	
812.22	5185.5	
812.39	3749.8	
812.57	3633.8	
812.74	5218.9	
812.92	7108.5	
813.09	4115.1	
813.26	4489.1	
813.44	6731	
813.61	5133.6	
813.78	3450.8	
813.96	4709	
814.13	5254.4	
814.3	4848.2	
814.48	4984.1	
814.65	4132.8	
814.82	6488	
815	5005.9	
815.17	4217.5	
815.34	5267.4	
815.52	5126.1	
815.69	5103.5	
815.87	4245.4	
816.04	4183.3	
816.21	5159.5	
816.38	4601.1	
816.56	4087.1	
816.73	3773	
816.9	6631.3	
817.08	6113.2	
817.25	3843.4	
817.42	4866	
817.6	4739.7	
817.77	5272.2	
817.94	4306.2	
818.12	3788.1	
818.29	4866	
818.46	7951.6	
818.64	3945.8	
818.81	3691.8	
818.98	4848.9	
819.16	7210.9	
819.33	4579.3	
819.5	4214	
819.67	5637.4	
819.85	6358.3	
820.02	4181.3	
820.19	4453.6	
820.37	5498.8	
820.54	5003.2	
820.71	4298	
820.88	5389.6	
821.06	5437.4	
821.23	4954.7	
821.4	4398.4	
821.58	4276.2	
821.75	5984.2	
821.92	5384.1	
822.09	3448.1	
822.27	3588	
822.44	5270.1	
822.61	5122	
822.79	3523.9	
822.96	6812.9	
823.13	5769.1	
823.3	4929.5	
823.48	4019.5	
823.65	3652.9	
823.82	5961.6	
823.99	4718.5	
824.17	5184.1	
824.34	3713.6	
824.51	7022.5	
824.68	5311.7	
824.86	3821.5	
825.03	4378.6	
825.2	5270.8	
825.37	6384.9	
825.55	3830.4	
825.72	4215.4	
825.89	7024.5	
826.06	6567.2	
826.24	4174.4	
826.41	4164.9	
826.58	6425.2	
826.75	5591	
826.92	3251.5	
827.1	3656.3	
827.27	8806.3	
827.44	6952.9	
827.61	3923.9	
827.79	4822.3	
827.96	4954	
828.13	5314.5	
828.3	4089.1	
828.47	3499.3	
828.65	5413.5	
828.82	5351.3	
828.99	5319.9	
829.16	4658.4	
829.34	5842.9	
829.51	5587.5	
829.68	4263.9	
829.85	4493.2	
830.02	6176.7	
830.2	5904.3	
830.37	3205.8	
830.54	5240.8	
830.71	6745.3	
830.88	5180	
831.05	3393.5	
831.23	3897.3	
831.4	6419	
831.57	7145.4	
831.74	4004.5	
831.91	3424.9	
832.09	5453.1	
832.26	5907.7	
832.43	4096.6	
832.6	4616.8	
832.77	5472.9	
832.94	6288.6	
833.12	3234.4	
833.29	4071.4	
833.46	5114.5	
833.63	7496.9	
833.8	4466.6	
833.97	4141.7	
834.15	5884.5	
834.32	5634.6	
834.49	4320.5	
834.66	4448.9	
834.83	6104.3	
835	4972.5	
835.17	3960.1	
835.35	3973.1	
835.52	5778.7	
835.69	5639.4	
835.86	4182.6	
836.03	3472	
836.2	5763.7	
836.37	5453.7	
836.55	4182	
836.72	3958.7	
836.89	5443.5	
837.06	5952.8	
837.23	4231.8	
837.4	4595	
837.57	6761	
837.75	7510.6	
837.92	3731.4	
838.09	3957.4	
838.26	5383.4	
838.43	6163.7	
838.6	4301.4	
838.77	3837.2	
838.94	7037.5	
839.11	6785.6	
839.29	4141.7	
839.46	3187.3	
839.63	5859.2	
839.8	5539.1	
839.97	4010.6	
840.14	3988.8	
840.31	5607.3	
840.48	5830.6	
840.65	3281.5	
840.82	3888.4	
841	5873.6	
841.17	5805.3	
841.34	3691.1	
841.51	3715.7	
841.68	5739.8	
841.85	5522	
842.02	3840.6	
842.19	3125.2	
842.36	5522	
842.53	5606	
842.7	3721.2	
842.87	4508.9	
843.05	7401.4	
843.22	5538.4	
843.39	3461.7	
843.56	3741	
843.73	5255.1	
843.9	5884.5	
844.07	6074.3	
844.24	5050.3	
844.41	8880.7	
844.58	5058.5	
844.75	3575.8	
844.92	3867.2	
845.09	5884.5	
845.26	5774.6	
845.43	3607.8	
845.6	3827.7	
845.77	5896.8	
845.94	5575.3	
846.12	4062.5	
846.29	4339	
846.46	6068.1	
846.63	5825.1	
846.8	3639.2	
846.97	4373.1	
847.14	6327.5	
847.31	5764.3	
847.48	4042.7	
847.65	4509.6	
847.82	6152.8	
847.99	6109.8	
848.16	4925.4	
848.33	4550.6	
848.5	5364.3	
848.67	6294.8	
848.84	3625.6	
849.01	3829	
849.18	5216.2	
849.35	4859.1	
849.52	4638	
849.69	3544.4	
849.86	6032	
850.03	6245.6	
850.2	3601	
850.37	4502.1	
850.54	6257.9	
850.71	5508.4	
850.88	4390.2	
851.05	3580.5	
851.22	5706.3	
851.39	6432	
851.56	3429.7	
851.73	4188.1	
851.9	5055.1	
852.07	6115.2	
852.24	4050.2	
852.41	3629.7	
852.58	5672.9	
852.75	5198.4	
852.92	4076.1	
853.09	3558	
853.26	5400.5	
853.43	6379.4	
853.6	3591.5	
853.77	3098.6	
853.94	6429.3	
854.11	5768.4	
854.28	5455.8	
854.44	3969	
854.61	6931	
854.78	6163	
854.95	3590.1	
855.12	4609.3	
855.29	4676.2	
855.46	6490	
855.63	3632.4	
855.8	5107.6	
855.97	5304.2	
856.14	6147.3	
856.31	5190.2	
856.48	3970.3	
856.65	5364.3	
856.82	5098.1	
856.99	3474	
857.16	3956	
857.33	7134.4	
857.49	5490.6	
857.66	3915.7	
857.83	4229.7	
858	5451.7	
858.17	5675.6	
858.34	3454.2	
858.51	3702.7	
858.68	6578.1	
858.85	6673	
859.02	4281.6	
859.19	4560.1	
859.36	5106.3	
859.52	5139	
859.69	3643.3	
859.86	4322.6	
860.03	5201.8	
860.2	6427.2	
860.37	3287.7	
860.54	3709.6	
860.71	6099.5	
860.88	6542.6	
861.05	4051.6	
861.21	4620.2	
861.38	6552.8	
861.55	5011.4	
861.72	3259	
861.89	4084.3	
862.06	6124.1	
862.23	6706.4	
862.4	3577.1	
862.56	3816	
862.73	5977.3	
862.9	5614.2	
863.07	4359.4	
863.24	3276.8	
863.41	5013.4	
863.58	5090.6	
863.75	3747.1	
863.91	4259.8	
864.08	6514.6	
864.25	6034.7	
864.42	4624.3	
864.59	5102.9	
864.76	6858	
864.93	5130.2	
865.09	3590.8	
865.26	3865.9	
865.43	6352.1	
865.6	6811.5	
865.77	3174.4	
865.94	3652.2	
866.1	6469.5	
866.27	6183.5	
866.44	5618.9	
866.61	3452.2	
866.78	5581.4	
866.95	5956.9	
867.11	3515	
867.28	3232.4	
867.45	6174.6	
867.62	5171.8	
867.79	4309.6	
867.96	3604.4	
868.12	5148.6	
868.29	6219.7	
868.46	3624.9	
868.63	4949.3	
868.8	6315.9	
868.97	6045.6	
869.13	3815.4	
869.3	3766.2	
869.47	5974.6	
869.64	6208.1	
869.81	3609.2	
869.97	3665.2	
870.14	5893.4	
870.31	6557.6	
870.48	3553.9	
870.65	4577.9	
870.81	5425.1	
870.98	5420.3	
871.15	4144.4	
871.32	3796.3	
871.48	5909.1	
871.65	6647.7	
871.82	3586	
871.99	4003.1	
872.16	7077.8	
872.32	6499.6	
872.49	3682.9	
872.66	3704.8	
872.83	6105.7	
872.99	5342.5	
873.16	4222.2	
873.33	3596.2	
873.5	5676.3	
873.67	5777.3	
873.83	3790.1	
874	4909.7	
874.17	5836.7	
874.34	6995.9	
874.5	4739.7	
874.67	4599.7	
874.84	6515.3	
875.01	5102.9	
875.17	5142.4	
875.34	3603.1	
875.51	5800.5	
875.68	6956.9	
875.84	4414.1	
876.01	5412.1	
876.18	5999.9	
876.34	5996.5	
876.51	3710.9	
876.68	3639.2	
876.85	5483.8	
877.01	6339.1	
877.18	5231.2	
877.35	3635.8	
877.52	5638.7	
877.68	5005.9	
877.85	3572.3	
878.02	3573	
878.18	5595.1	
878.35	5281.7	
878.52	2893.8	
878.69	4085	
878.85	6118	
879.02	6037.4	
879.19	5141.1	
879.35	3951.2	
879.52	5995.8	
879.69	6288.6	
879.86	3070.6	
880.02	4043.4	
880.19	5616.9	
880.36	6961	
880.52	4233.8	
880.69	4336.2	
880.86	6193.7	
881.02	6203.3	
881.19	4031.8	
881.36	3991.5	
881.52	5979.4	
881.69	5355.4	
881.86	3949.2	
882.02	3831.7	
882.19	6393.1	
882.36	7510.6	
882.52	3703.4	
882.69	5242.8	
882.86	5750	
883.02	5722	
883.19	4414.1	
883.36	4222.2	
883.52	6107.7	
883.69	7034.8	
883.86	3680.2	
884.02	3289.7	
884.19	6111.1	
884.36	5585.5	
884.52	4134.2	
884.69	3848.1	
884.86	5289.9	
885.02	6804	
885.19	4074.1	
885.36	4197.7	
885.52	5584.8	
885.69	5834.7	
885.86	5339.7	
886.02	4686.4	
886.19	6114.6	
886.35	5547.3	
886.52	4053.6	
886.69	5154.7	
886.85	5162.2	
887.02	6558.3	
887.19	6558.3	
887.35	6558.3	
887.52	6558.3	
887.68	6558.3	
887.85	6558.3	
888.02	6558.3	
888.18	6558.3	
888.35	6558.3	
888.51	6558.3	
888.68	6558.3	
888.85	6558.3	
889.01	6558.3	
889.18	6558.3	
889.35	6558.3	
889.51	6558.3	
889.68	6558.3	
889.84	6558.3	
890.01	6558.3	
890.17	6558.3	
890.34	6558.3	
890.51	6558.3	
890.67	6558.3	
890.84	6558.3	
891	6558.3	
891.17	6558.3	
891.34	6558.3	
891.5	6558.3	
891.67	6558.3	
891.83	6558.3	
892	6558.3	
892.16	6558.3	
892.33	6558.3	
892.5	6558.3	
892.66	6558.3	
892.83	6558.3	
892.99	6558.3	
893.16	6558.3	
893.32	6558.3	
893.49	6558.3	
893.65	6558.3	
893.82	6558.3	
893.99	6558.3	
894.15	6558.3	
894.32	6558.3	
894.48	6558.3	
894.65	6558.3	
894.81	6558.3	
894.98	6558.3	
895.14	6558.3	
895.31	6558.3	
895.47	6558.3	
895.64	6558.3	
895.81	6558.3	
895.97	6558.3	
896.14	6558.3	
896.3	6558.3	
896.47	6558.3	
896.63	6558.3	
896.8	6558.3	
896.96	6558.3	
897.13	6558.3	
897.29	6558.3	
897.46	6558.3	
897.62	6558.3	
897.79	6558.3	
897.95	6558.3	
898.12	6558.3	
898.28	6558.3	
898.45	6558.3	
898.61	6558.3	
898.78	6558.3	
898.94	6558.3	
899.11	6558.3	
899.27	6558.3	
899.44	6558.3	
899.6	6558.3	
899.77	6558.3	
899.93	6558.3	
900.1	6558.3	
900.26	6558.3	
900.43	6558.3	
900.59	6558.3	
900.76	6558.3	
900.92	6558.3	
901.09	6558.3	
901.25	6558.3	
901.42	6558.3	
901.58	6558.3	
901.75	6558.3	
901.91	6558.3	
902.07	6558.3	
902.24	6558.3	
902.4	6558.3	
902.57	6558.3	
902.73	6558.3	
902.9	6558.3	
903.06	6558.3	
903.23	6558.3	
903.39	6558.3	
903.56	6558.3	
903.72	6558.3	
903.88	6558.3	
904.05	6558.3	
904.21	6558.3	
904.38	6558.3	
904.54	6558.3	
904.71	6558.3	
904.87	6558.3	
905.03	6558.3	
905.2	6558.3	
905.36	6558.3	
905.53	6558.3	
905.69	6558.3	
905.86	6558.3	
906.02	6558.3	
906.18	6558.3	
906.35	6558.3	
906.51	6558.3	
906.68	6558.3	
906.84	6558.3	
907.01	6558.3	
907.17	6558.3	
907.33	6558.3	
907.5	6558.3	
907.66	6558.3	
907.83	6558.3	
907.99	6558.3	
908.15	6558.3	
908.32	6558.3	
908.48	6558.3	
908.65	6558.3	
908.81	6558.3	
908.97	6558.3	
909.14	6558.3	
909.3	6558.3	
909.47	6558.3	
909.63	6558.3	
909.79	6558.3	
909.96	6558.3	
910.12	6558.3	
910.28	6558.3	
910.45	6558.3	
910.61	6558.3	
910.78	6558.3	
910.94	6558.3	
911.1	6558.3	
911.27	6558.3	
911.43	6558.3	
911.59	6558.3	
911.76	6558.3	
911.92	6558.3	
912.08	6558.3	
912.25	6558.3	
912.41	6558.3	
912.57	6558.3	
912.74	6558.3	
912.9	6558.3	
913.07	6558.3	
913.23	6558.3	
913.39	6558.3	
913.56	6558.3	
913.72	6558.3	
913.88	6558.3	
914.05	6558.3	
914.21	6558.3	
914.37	6558.3	
914.54	6558.3	
914.7	6558.3	
914.86	6558.3	
915.03	6558.3	
915.19	6558.3	
