Wavelength	Intensities	
nm	a.u.	
179.22	1736.8	
179.44	1735.7	
179.65	1738	
179.86	1733.3	
180.08	1768.8	
180.29	4150.5	
180.51	3128.6	
180.72	5078.3	
180.94	5779.4	
181.15	2867.8	
181.37	2812.5	
181.58	5014.8	
181.79	5162.9	
182.01	2944.3	
182.22	3108.1	
182.44	5218.9	
182.65	4468	
182.87	3883.6	
183.08	3424.2	
183.29	5483.1	
183.51	4567	
183.72	3210.5	
183.94	4386.7	
184.15	4920.6	
184.37	4896	
184.58	2805	
184.79	3736.9	
185.01	4549.9	
185.22	5242.1	
185.44	3964.2	
185.65	3412.6	
185.86	4874.8	
186.08	4472.8	
186.29	2752.5	
186.51	2909.5	
186.72	4604.5	
186.94	5298.1	
187.15	3367.5	
187.36	3492.5	
187.58	6707.1	
187.79	5020.9	
188.01	3572.3	
188.22	5427.8	
188.43	5947.3	
188.65	5138.4	
188.86	2939.5	
189.08	3496.6	
189.29	4786.1	
189.5	4696	
189.72	3193.5	
189.93	3287	
190.15	5324	
190.36	6240.8	
190.57	3441.3	
190.79	3420.8	
191	5304.2	
191.22	5342.5	
191.43	3494.5	
191.64	2944.3	
191.86	5548.6	
192.07	5385.5	
192.29	3078.1	
192.5	3167.5	
192.71	5393	
192.93	4741.7	
193.14	3193.5	
193.35	3294.5	
193.57	4728.8	
193.78	5384.1	
194	2637.8	
194.21	3190.7	
194.42	4571.7	
194.64	4993.6	
194.85	3441.3	
195.07	3966.9	
195.28	4926	
195.49	4332.8	
195.71	4177.9	
195.92	3038.5	
196.13	5117.9	
196.35	5087.8	
196.56	4384.7	
196.78	3449.5	
196.99	6204.7	
197.2	5826.5	
197.42	3851.5	
197.63	3536.2	
197.84	4456.4	
198.06	5072.1	
198.27	3260.4	
198.48	4192.2	
198.7	4745.8	
198.91	4896	
199.13	3472	
199.34	3450.1	
199.55	5326.1	
199.77	4269.3	
199.98	3091.8	
200.19	3480.2	
200.41	4877.6	
200.62	4532.2	
200.83	3637.9	
201.05	3921.9	
201.26	4853.7	
201.47	4554	
201.69	3185.3	
201.9	3014.6	
202.11	4917.2	
202.33	5668.1	
202.54	3287.7	
202.76	3634.5	
202.97	4945.8	
203.18	5048.9	
203.4	3599.6	
203.61	3623.5	
203.82	4992.3	
204.04	4653.7	
204.25	3540.3	
204.46	3460.4	
204.68	4916.5	
204.89	5074.9	
205.1	3431.7	
205.32	3009.8	
205.53	5257.8	
205.74	5341.1	
205.96	2593.4	
206.17	3518.4	
206.38	5242.1	
206.6	5324.7	
206.81	3988.8	
207.02	3269.2	
207.24	5102.2	
207.45	5453.1	
207.66	3308.2	
207.88	2955.2	
208.09	5016.2	
208.3	4843.4	
208.52	3114.3	
208.73	3358	
208.94	4898.7	
209.15	5479.7	
209.37	3332	
209.58	3809.2	
209.79	5299.5	
210.01	4769	
210.22	2765.4	
210.43	2871.3	
210.65	4956.8	
210.86	5218.9	
211.07	3379.1	
211.29	3082.2	
211.5	5188.2	
211.71	4870.1	
211.93	3056.9	
212.14	3102	
212.35	4939.7	
212.56	5002.5	
212.78	3499.3	
212.99	2893.1	
213.2	5623.7	
213.42	4739.7	
213.63	3224.9	
213.84	3357.3	
214.06	4456.4	
214.27	4496.7	
214.48	3327.3	
214.69	3575.1	
214.91	5489.2	
215.12	5489.9	
215.33	3525.9	
215.55	3828.3	
215.76	5904.3	
215.97	5218.2	
216.18	3433.1	
216.4	3361.4	
216.61	4638.6	
216.82	5289.9	
217.04	3114.3	
217.25	3265.8	
217.46	5401.9	
217.67	5184.8	
217.89	2833	
218.1	2876.7	
218.31	4978.6	
218.53	5022.3	
218.74	3252.9	
218.95	3155.9	
219.16	4868.7	
219.38	5608	
219.59	3159.3	
219.8	3682.2	
220.01	6100.2	
220.23	4917.9	
220.44	3988.1	
220.65	3038.5	
220.87	4952	
221.08	5460.6	
221.29	2943.6	
221.5	3803.8	
221.72	6417.7	
221.93	4691.2	
222.14	3491.8	
222.35	4041.3	
222.57	4961.5	
222.78	5246.2	
222.99	3338.2	
223.2	3492.5	
223.42	5161.6	
223.63	5244.2	
223.84	2618	
224.05	2609.1	
224.27	6085.9	
224.48	5629.2	
224.69	4076.8	
224.9	3478.8	
225.12	5014.1	
225.33	4895.3	
225.54	2861.7	
225.75	3140.2	
225.97	4582	
226.18	4838	
226.39	3332.7	
226.6	3141.6	
226.82	4777.2	
227.03	4547.9	
227.24	3448.1	
227.45	2971.6	
227.67	5220.3	
227.88	5640.1	
228.09	3867.9	
228.3	3862.5	
228.52	5246.2	
228.73	4832.5	
228.94	3246	
229.15	2925.2	
229.36	4835.3	
229.58	4848.2	
229.79	3294.5	
230	3713	
230.21	5780.1	
230.43	4959.5	
230.64	3435.8	
230.85	3585.3	
231.06	5342.5	
231.28	5262.6	
231.49	2979.8	
231.7	3408.5	
231.91	5171.8	
232.12	4943.8	
232.34	3082.2	
232.55	3317	
232.76	5395.7	
232.97	4983.4	
233.18	3114.3	
233.4	3406.5	
233.61	5076.2	
233.82	4706.9	
234.03	3230.3	
234.25	3228.3	
234.46	6571.9	
234.67	4915.8	
234.88	3556.6	
235.09	3168.9	
235.31	5079	
235.52	4812	
235.73	3429.7	
235.94	2960	
236.15	4648.2	
236.37	5793.7	
236.58	3074	
236.79	3333.4	
237	5171.1	
237.21	4479.6	
237.43	3577.1	
237.64	2880.8	
237.85	8320.9	
238.06	4548.5	
238.27	3620.8	
238.48	2919.7	
238.7	5191.6	
238.91	4831.2	
239.12	3289	
239.33	3322.5	
239.54	4630.5	
239.76	4797	
239.97	3364.8	
240.18	3352.5	
240.39	5919.3	
240.6	5122	
240.82	3519.1	
241.03	2906.1	
241.24	4943.8	
241.45	5676.3	
241.66	3098.6	
241.87	3556	
242.09	5483.1	
242.3	5809.4	
242.51	3622.9	
242.72	3343.7	
242.93	5212.8	
243.14	4900.1	
243.36	3839.9	
243.57	4123.9	
243.78	5659.9	
243.99	5197.1	
244.2	3357.3	
244.41	3070.6	
244.63	4598.4	
244.84	5086.5	
245.05	3546.4	
245.26	3387.3	
245.47	5186.1	
245.68	5363.6	
245.9	4341.7	
246.11	3506.1	
246.32	4776.5	
246.53	5091.3	
246.74	5343.2	
246.95	2866.5	
247.16	4552.6	
247.38	5007.3	
247.59	2871.3	
247.8	3371	
248.01	4532.8	
248.22	4902.2	
248.43	3073.3	
248.64	3359.4	
248.86	4428.4	
249.07	4668	
249.28	3031	
249.49	3439.2	
249.7	5356.8	
249.91	5438	
250.12	2833	
250.34	2935.4	
250.55	4992.3	
250.76	4932.9	
250.97	3506.1	
251.18	3483.6	
251.39	5422.3	
251.6	5005.9	
251.81	3531.4	
252.03	3480.2	
252.24	4693.9	
252.45	5266	
252.66	2971.6	
252.87	3672	
253.08	4907.6	
253.29	6193.1	
253.5	2996.9	
253.72	4014.7	
253.93	4823	
254.14	5679.7	
254.35	3225.6	
254.56	3328.6	
254.77	5128.1	
254.98	4614.1	
255.19	3198.2	
255.41	3996.3	
255.62	5076.2	
255.83	5537	
256.04	3650.2	
256.25	3519.8	
256.46	5924.1	
256.67	4658.4	
256.88	3480.2	
257.09	3793.5	
257.31	4601.8	
257.52	4607.2	
257.73	4298	
257.94	3159.3	
258.15	4839.4	
258.36	4919.9	
258.57	3966.9	
258.78	2666.5	
258.99	5367.7	
259.2	4780	
259.41	3201	
259.63	3312.2	
259.84	5571.2	
260.05	5851	
260.26	4055	
260.47	3161.4	
260.68	5438.7	
260.89	4857.8	
261.1	3855.6	
261.31	3077.4	
261.52	5416.2	
261.73	5668.1	
261.95	4050.2	
262.16	3579.2	
262.37	5475.6	
262.58	5557.5	
262.79	4095.9	
263	3246	
263.21	4936.3	
263.42	4767.7	
263.63	3312.9	
263.84	3235.8	
264.05	5356.8	
264.26	5612.8	
264.47	3912.3	
264.69	3624.2	
264.9	5517.2	
265.11	5059.8	
265.32	3104	
265.53	3178.4	
265.74	5023	
265.95	4404.5	
266.16	3382.6	
266.37	3775.1	
266.58	5024.3	
266.79	4711.7	
267	3239.9	
267.21	2984.6	
267.42	4583.4	
267.63	4906.9	
267.84	3304.1	
268.06	2897.9	
268.27	5295.4	
268.48	5430.5	
268.69	3301.3	
268.9	3815.4	
269.11	5481.7	
269.32	4479.6	
269.53	3399.6	
269.74	3117.7	
269.95	5125.4	
270.16	4414.1	
270.37	3371	
270.58	3848.1	
270.79	4806.6	
271	5370.5	
271.21	3532.7	
271.42	3406.5	
271.63	5018.9	
271.84	4592.2	
272.05	2753.2	
272.26	2980.5	
272.47	4932.9	
272.68	5052.3	
272.89	3275.4	
273.11	3659	
273.32	4733.5	
273.53	5653.1	
273.74	3583.9	
273.95	3521.1	
274.16	5408	
274.37	4934.2	
274.58	3689.1	
274.79	2967.5	
275	5093.3	
275.21	5436	
275.42	4360.1	
275.63	3724.6	
275.84	5169.8	
276.05	6311.8	
276.26	3519.8	
276.47	3257	
276.68	4832.5	
276.89	5726.8	
277.1	3738.9	
277.31	2963.4	
277.52	5111.7	
277.73	5347.9	
277.94	2958.6	
278.15	3304.7	
278.36	5059.2	
278.57	4644.1	
278.78	3261	
278.99	3646.1	
279.2	4633.9	
279.41	4614.1	
279.62	4227	
279.83	2977.7	
280.04	5842.9	
280.25	4608.6	
280.46	4128.7	
280.67	3386.7	
280.88	4672.1	
281.09	5455.8	
281.3	3510.9	
281.51	4394.9	
281.72	4728.8	
281.93	5322	
282.14	3201	
282.35	3403	
282.56	5313.8	
282.77	5294.7	
282.98	3270.6	
283.19	3910.3	
283.4	6331.6	
283.61	4863.9	
283.82	3040.6	
284.03	4100.7	
284.24	5051.7	
284.45	5482.4	
284.66	4092.5	
284.87	3902.1	
285.08	5414.1	
285.29	5552	
285.5	2957.9	
285.71	3354.6	
285.92	5416.9	
286.12	5941.8	
286.33	4083	
286.54	3313.6	
286.75	5299.5	
286.96	4804.5	
287.17	3013.9	
287.38	3968.3	
287.59	4658.4	
287.8	4663.2	
288.01	3272.7	
288.22	3711.6	
288.43	5227.8	
288.64	4485.7	
288.85	3882.3	
289.06	3714.3	
289.27	5304.2	
289.48	5610.8	
289.69	4115.7	
289.9	3775.8	
290.11	5494.7	
290.32	4699.4	
290.53	3919.8	
290.74	3623.5	
290.94	5268.1	
291.15	5308.3	
291.36	3231.7	
291.57	3678.8	
291.78	4777.2	
291.99	4461.8	
292.2	3042.6	
292.41	3644.7	
292.62	5374.6	
292.83	5167	
293.04	4397	
293.25	3127.2	
293.46	4774.5	
293.67	5342.5	
293.88	3188.7	
294.09	3060.3	
294.29	4603.8	
294.5	5016.8	
294.71	3411.9	
294.92	3248.1	
295.13	4702.8	
295.34	5894.7	
295.55	2925.9	
295.76	2846.7	
295.97	5313.8	
296.18	5820.3	
296.39	3053.5	
296.6	3175.7	
296.81	4995	
297.01	5291.3	
297.22	3325.9	
297.43	3175.7	
297.64	4679.6	
297.85	4592.2	
298.06	2708.1	
298.27	2919	
298.48	4964.3	
298.69	4653	
298.9	3379.1	
299.11	3142.9	
299.31	4562.2	
299.52	4519.2	
299.73	3621.5	
299.94	3554.6	
300.15	4956.8	
300.36	4670.7	
300.57	3629.7	
300.78	3510.9	
300.99	4820.9	
301.2	5009.3	
301.4	3207.8	
301.61	3431.7	
301.82	5281	
302.03	5276.9	
302.24	3770.3	
302.45	3056.9	
302.66	5173.9	
302.87	5497.4	
303.08	3167.5	
303.29	4248.2	
303.49	4747.2	
303.7	4953.4	
303.91	2932	
304.12	4045.4	
304.33	4543.8	
304.54	5072.8	
304.75	3181.2	
304.96	3054.2	
305.16	5156.1	
305.37	5758.9	
305.58	2809.8	
305.79	2940.2	
306	5186.8	
306.21	4427	
306.42	3136.1	
306.63	4699.4	
306.83	4786.1	
307.04	5350	
307.25	3436.5	
307.46	3426.9	
307.67	4342.4	
307.88	5265.3	
308.09	3152.5	
308.29	3261.7	
308.5	4971.1	
308.71	5378	
308.92	3405.1	
309.13	3056.3	
309.34	4857.1	
309.55	4869.4	
309.75	3939.6	
309.96	3517.7	
310.17	5229.8	
310.38	4670.7	
310.59	3737.5	
310.8	3009.1	
311.01	5764.3	
311.21	4903.5	
311.42	3093.8	
311.63	3140.9	
311.84	4809.3	
312.05	5005.2	
312.26	3485	
312.46	3792.2	
312.67	4811.4	
312.88	4528.7	
313.09	3089	
313.3	3020.8	
313.51	5535.7	
313.71	5879	
313.92	3091.1	
314.13	3260.4	
314.34	5152	
314.55	4902.2	
314.76	3874.8	
314.96	3424.9	
315.17	5041.4	
315.38	5255.1	
315.59	3132	
315.8	2920.4	
316.01	5604.6	
316.21	5720.7	
316.42	3017.3	
316.63	3415.3	
316.84	4833.9	
317.05	5468.8	
317.26	3623.5	
317.46	3242.6	
317.67	4948.6	
317.88	5276.9	
318.09	3874.1	
318.3	2936.8	
318.5	4729.4	
318.71	5137	
318.92	4801.8	
319.13	3566.2	
319.34	5351.3	
319.54	5408	
319.75	2917.7	
319.96	2779.8	
320.17	5206.6	
320.38	5401.2	
320.58	2850.1	
320.79	3319.1	
321	5364.3	
321.21	5441.5	
321.42	3424.2	
321.62	2859.6	
321.83	4657.1	
322.04	4937.7	
322.25	3260.4	
322.46	3140.2	
322.66	4987.5	
322.87	5190.2	
323.08	3744.4	
323.29	3001	
323.5	5791	
323.7	4578.6	
323.91	4088.4	
324.12	3733.4	
324.33	4988.2	
324.53	5222.3	
324.74	3531.4	
324.95	3812.6	
325.16	4479.6	
325.37	4861.2	
325.57	3058.3	
325.78	3167.5	
325.99	5012.7	
326.2	4545.1	
326.4	4372.4	
326.61	2824.8	
326.82	4887.8	
327.03	5001.8	
327.24	4255.7	
327.44	4085	
327.65	5214.1	
327.86	4197.7	
328.07	3590.8	
328.27	2986.6	
328.48	5481.7	
328.69	4586.1	
328.9	4318.5	
329.1	3254.9	
329.31	4872.1	
329.52	5634	
329.73	3166.2	
329.93	3414	
330.14	4970.4	
330.35	5122	
330.56	4917.2	
330.76	3792.2	
330.97	4801.8	
331.18	5005.9	
331.39	3446.7	
331.59	2871.3	
331.8	5385.5	
332.01	5560.2	
332.22	3200.3	
332.42	3542.3	
332.63	5009.3	
332.84	4676.2	
333.05	3452.9	
333.25	3170.3	
333.46	4757.4	
333.67	4939.7	
333.88	3227.6	
334.08	3536.2	
334.29	6317.3	
334.5	5443.5	
334.7	3018.7	
334.91	4246.8	
335.12	4573.1	
335.33	5240.8	
335.53	3401	
335.74	4892.6	
335.95	4835.9	
336.16	4590.2	
336.36	3396.9	
336.57	3890.5	
336.78	4556.7	
336.98	5408.7	
337.19	4160.8	
337.4	3369.6	
337.61	5833.3	
337.81	4549.2	
338.02	3159.3	
338.23	3930.7	
338.43	5577.3	
338.64	4648.2	
338.85	3085.6	
339.05	4042	
339.26	5650.3	
339.47	4456.4	
339.68	3143.6	
339.88	4407.9	
340.09	5192.3	
340.3	5316.5	
340.5	3543.7	
340.71	2840.5	
340.92	4555.4	
341.13	5482.4	
341.33	3026.2	
341.54	3593.5	
341.75	5102.9	
341.95	4809.3	
342.16	3437.2	
342.37	3695.2	
342.57	4619.5	
342.78	4895.3	
342.99	3765.5	
343.19	2823.5	
343.4	5270.8	
343.61	5160.2	
343.81	3312.2	
344.02	2994.1	
344.23	5232.6	
344.43	5651.7	
344.64	3775.1	
344.85	3694.5	
345.06	5149.3	
345.26	5438.7	
345.47	3588.7	
345.68	4111	
345.88	4516.5	
346.09	5299.5	
346.3	3671.3	
346.5	2779.1	
346.71	4913.1	
346.92	4712.4	
347.12	2929.3	
347.33	3562.1	
347.54	5335.6	
347.74	5719.3	
347.95	3501.3	
348.16	2749.1	
348.36	4716.5	
348.57	4654.4	
348.78	3532.7	
348.98	3780.6	
349.19	4879.6	
349.39	4524.6	
349.6	2928.6	
349.81	3175	
350.01	5147.9	
350.22	4663.9	
350.43	3485	
350.63	4067.3	
350.84	4891.9	
351.05	4797.7	
351.25	3121.1	
351.46	2918.4	
351.67	5467.4	
351.87	4713.7	
352.08	3336.8	
352.29	3750.5	
352.49	5222.3	
352.7	5378	
352.9	3013.2	
353.11	3684.3	
353.32	5817.6	
353.52	4817.5	
353.73	3025.5	
353.94	3805.8	
354.14	5201.8	
354.35	4978.6	
354.55	3087.7	
354.76	3423.5	
354.97	5147.2	
355.17	4915.8	
355.38	2996.9	
355.59	4029.7	
355.79	4657.8	
356	4997	
356.2	3414	
356.41	3022.8	
356.62	4491.2	
356.82	4873.5	
357.03	3679.5	
357.24	3355.9	
357.44	4703.5	
357.65	4799.1	
357.85	4279.6	
358.06	3498.6	
358.27	4467.3	
358.47	4648.9	
358.68	2930.6	
358.88	3637.2	
359.09	5150	
359.3	5409.4	
359.5	4193.6	
359.71	3772.4	
359.91	5765.7	
360.12	5216.9	
360.33	3682.2	
360.53	4062.5	
360.74	4738.3	
360.94	4820.9	
361.15	3829.7	
361.36	3229.6	
361.56	5391.6	
361.77	4949.3	
361.97	4162.2	
362.18	3400.3	
362.38	5403.2	
362.59	4670.7	
362.8	3168.2	
363	3061.7	
363.21	4516.5	
363.41	5022.3	
363.62	3553.9	
363.83	4361.5	
364.03	5159.5	
364.24	5882.4	
364.44	4474.1	
364.65	4430.4	
364.85	4915.8	
365.06	4705.5	
365.27	3400.3	
365.47	3381.2	
365.68	5666	
365.88	4965.6	
366.09	3700	
366.29	3416	
366.5	5117.9	
366.71	5421	
366.91	4471.4	
367.12	3887.7	
367.32	5982.8	
367.53	5331.5	
367.73	3768.9	
367.94	4624.3	
368.14	5340.4	
368.35	6008.7	
368.56	3763.5	
368.76	3320.4	
368.97	5501.5	
369.17	6726.2	
369.38	3391.4	
369.58	3653.6	
369.79	4702.8	
369.99	5781.4	
370.2	4447.5	
370.4	3689.1	
370.61	5244.2	
370.82	6182.8	
371.02	3646.1	
371.23	3129.3	
371.43	4684.4	
371.64	5737	
371.84	3716.4	
372.05	4650.3	
372.25	6733.7	
372.46	5473.5	
372.66	3661.1	
372.87	3635.8	
373.07	5602.6	
373.28	6795.8	
373.48	4479.6	
373.69	4248.9	
373.9	5184.8	
374.1	5163.6	
374.31	4546.5	
374.51	4145.1	
374.72	5819	
374.92	4936.3	
375.13	4644.1	
375.33	3938.2	
375.54	5427.1	
375.74	5045.5	
375.95	4064.5	
376.15	5051.7	
376.36	5612.1	
376.56	5442.8	
376.77	4118.5	
376.97	4407.9	
377.18	6436.1	
377.38	5694	
377.59	4746.5	
377.79	3794.9	
378	5494	
378.2	5799.2	
378.41	3817.4	
378.61	3738.9	
378.82	5918.6	
379.02	5227.1	
379.23	4016.1	
379.43	4792.9	
379.64	6070.9	
379.84	5711.1	
380.05	3893.9	
380.25	3777.1	
380.46	5735.7	
380.66	5429.8	
380.87	4937.7	
381.07	5207.3	
381.28	6236.7	
381.48	5719.3	
381.69	3880.2	
381.89	3910.3	
382.1	5000.5	
382.3	5820.3	
382.51	4825.7	
382.71	5460.6	
382.91	5664.7	
383.12	6159.6	
383.32	4106.9	
383.53	4378.6	
383.73	5580.7	
383.94	5496.7	
384.14	4296.6	
384.35	3543	
384.55	5343.2	
384.76	5720.7	
384.96	4201.7	
385.17	4416.1	
385.37	5781.4	
385.58	5122.7	
385.78	4405.9	
385.98	3544.4	
386.19	5356.8	
386.39	5740.5	
386.6	3965.6	
386.8	4166.9	
387.01	5775.3	
387.21	5807.4	
387.42	4518.5	
387.62	4960.9	
387.83	5304.9	
388.03	5687.9	
388.23	4306.2	
388.44	4884.4	
388.64	4958.1	
388.85	5124	
389.05	4566.3	
389.26	5010	
389.46	6707.8	
389.67	6152.8	
389.87	4568.3	
390.07	4614.8	
390.28	5582.1	
390.48	5228.5	
390.69	3962.1	
390.89	4264.6	
391.1	5453.7	
391.3	6169.8	
391.5	5259.9	
391.71	5667.4	
391.91	6072.9	
392.12	6713.2	
392.32	5264	
392.53	4660.5	
392.73	5533.6	
392.93	5630.5	
393.14	4416.1	
393.34	5018.2	
393.55	5958.9	
393.75	5571.2	
393.95	4403.1	
394.16	4290.5	
394.36	5513.1	
394.57	6031.3	
394.77	4029.7	
394.98	4354	
395.18	5542.5	
395.38	5616.2	
395.59	5123.3	
395.79	4216.1	
396	5673.6	
396.2	5999.9	
396.4	4930.1	
396.61	4949.9	
396.81	6210.1	
397.02	5646.9	
397.22	5231.2	
397.42	5212.1	
397.63	6296.1	
397.83	5644.2	
398.04	4318.5	
398.24	4734.9	
398.44	6156.2	
398.65	5669.5	
398.85	4220.2	
399.05	4375.8	
399.26	5757.5	
399.46	7032.7	
399.67	4721.9	
399.87	4488.5	
400.07	6076.3	
400.28	6281.8	
400.48	4603.8	
400.69	5500.8	
400.89	6475.7	
401.09	6856.6	
401.3	4491.2	
401.5	5391.6	
401.7	7082.6	
401.91	7266.9	
402.11	4944.5	
402.32	5011.4	
402.52	6608.1	
402.72	6429.9	
402.93	5167.7	
403.13	4256.4	
403.33	7142.6	
403.54	6049	
403.74	4902.8	
403.94	5556.1	
404.15	6141.2	
404.35	7098.3	
404.56	4769	
404.76	6129.6	
404.96	6546	
405.17	6322.1	
405.37	5684.5	
405.57	5229.8	
405.78	6674.3	
405.98	6157.6	
406.18	4841.4	
406.39	5512.4	
406.59	6647.7	
406.79	6266.8	
407	4693.3	
407.2	4747.2	
407.4	6714.6	
407.61	6840.9	
407.81	4920.6	
408.01	6563.7	
408.22	5944.6	
408.42	7605.5	
408.62	5952.8	
408.83	5455.8	
409.03	6679.8	
409.23	6585.6	
409.44	5677	
409.64	5843.5	
409.84	7611.6	
410.05	7546.1	
410.25	5952.8	
410.45	5831.2	
410.66	7230.7	
410.86	9183.1	
411.06	6305.7	
411.27	6118	
411.47	9198.8	
411.67	7525.6	
411.88	6423.1	
412.08	6580.8	
412.28	8084	
412.49	8477.2	
412.69	6309.1	
412.89	6414.2	
413.09	8428.1	
413.3	8319.5	
413.5	6537.1	
413.7	6256.5	
413.91	7793.2	
414.11	8456.7	
414.31	6541.9	
414.52	6854.6	
414.72	8246.5	
414.92	8278.6	
415.12	6438.1	
415.33	6873.7	
415.53	8633.6	
415.73	8750.3	
415.94	7212.9	
416.14	6782.2	
416.34	7879.9	
416.55	7671	
416.75	7745.4	
416.95	7401.4	
417.15	8726.4	
417.36	9222.7	
417.56	8059.4	
417.76	7309.2	
417.97	9015.2	
418.17	8810.4	
418.37	6997.2	
418.57	7079.1	
418.78	8685.4	
418.98	8404.2	
419.18	7750.9	
419.38	7622.5	
419.59	8389.8	
419.79	7993.2	
419.99	6987.7	
420.2	7203.4	
420.4	8847.2	
420.6	8888.9	
420.8	6905.8	
421.01	6840.9	
421.21	8816.5	
421.41	8819.2	
421.61	7262.1	
421.82	6966.5	
422.02	8422.6	
422.22	9076.6	
422.42	7582.9	
422.63	7202.7	
422.83	8472.4	
423.03	9429.5	
423.23	7324.9	
423.44	6531	
423.64	8465.6	
423.84	8191.2	
424.04	6965.1	
424.25	6688.7	
424.45	9153.7	
424.65	9121.7	
424.85	6520	
425.06	6924.9	
425.26	9262.3	
425.46	8371.4	
425.66	7412.3	
425.87	7010.9	
426.07	8973.5	
426.27	8817.9	
426.47	7143.3	
426.67	6588.3	
426.88	9144.9	
427.08	8808.3	
427.28	7463.5	
427.48	6568.5	
427.69	7941.3	
427.89	8445.1	
428.09	7305.8	
428.29	6668.9	
428.5	8960.5	
428.7	8661.5	
428.9	6622.4	
429.1	6995.9	
429.3	8632.9	
429.51	8951.7	
429.71	6885.3	
429.91	7703.1	
430.11	9021.3	
430.31	9217.9	
430.52	7257.3	
430.72	7503.1	
430.92	9463	
431.12	9098.4	
431.32	7088	
431.53	7350.8	
431.73	8240.3	
431.93	9503.9	
432.13	7023.9	
432.33	7010.2	
432.54	8663.6	
432.74	8959.2	
432.94	7037.5	
433.14	7716.7	
433.34	9195.4	
433.55	8936.7	
433.75	7819.1	
433.95	9385.2	
434.15	9035	
434.35	8875.9	
434.56	7165.2	
434.76	6981.5	
434.96	9142.1	
435.16	9429.5	
435.36	7279.2	
435.56	8199.4	
435.77	9040.4	
435.97	9125.7	
436.17	8885.5	
436.37	8214.4	
436.57	8961.9	
436.78	9124.4	
436.98	8182.3	
437.18	8632.9	
437.38	9721	
437.58	9156.5	
437.78	8746.9	
437.99	7657.4	
438.19	9535.3	
438.39	10236	
438.59	7567.9	
438.79	7090.8	
438.99	10021	
439.2	9060.9	
439.4	7100.3	
439.6	7258.7	
439.8	9413.1	
440	10366	
440.2	8249.2	
440.4	8472.4	
440.61	9893.1	
440.81	10331	
441.01	7830.1	
441.21	8675.2	
441.41	10516	
441.61	10002	
441.81	8916.9	
442.02	9717.6	
442.22	10768	
442.42	10193	
442.62	8015.1	
442.82	7948.8	
443.02	10688	
443.22	9929.2	
443.43	8552.3	
443.63	8110	
443.83	9681.4	
444.03	9733.3	
444.23	9302.6	
444.43	8908.7	
444.63	10272	
444.83	11135	
445.04	8477.9	
445.24	9396.1	
445.44	10423	
445.64	10469	
445.84	8832.9	
446.04	8916.2	
446.24	9751.1	
446.44	10619	
446.65	8113.4	
446.85	8639.7	
447.05	9908.8	
447.25	10634	
447.45	8649.3	
447.65	8181.6	
447.85	10107	
448.05	9614.5	
448.25	8990.6	
448.46	8852	
448.66	10134	
448.86	9801.6	
449.06	8155	
449.26	9028.1	
449.46	10542	
449.66	9750.4	
449.86	8859.5	
450.06	8786.5	
450.26	9966.1	
450.47	10476	
450.67	8961.9	
450.87	9279.3	
451.07	10620	
451.27	10560	
451.47	8486.8	
451.67	9066.4	
451.87	10337	
452.07	11118	
452.27	8845.2	
452.47	8697.7	
452.67	10443	
452.88	10799	
453.08	8134.5	
453.28	9865.7	
453.48	11625	
453.68	10398	
453.88	8805.6	
454.08	8949.6	
454.28	11048	
454.48	10702	
454.68	9493.7	
454.88	9839.8	
455.08	11224	
455.28	11095	
455.48	8761.2	
455.68	9570.2	
455.89	11682	
456.09	11492	
456.29	9274.6	
456.49	9627.5	
456.69	11723	
456.89	10959	
457.09	9939.5	
457.29	10382	
457.49	11404	
457.69	11713	
457.89	10179	
458.09	9572.2	
458.29	11699	
458.49	12235	
458.69	10474	
458.89	10131	
459.09	12527	
459.29	12536	
459.49	10106	
459.69	10801	
459.9	11987	
460.1	11966	
460.3	9880.8	
460.5	9868.5	
460.7	12270	
460.9	11929	
461.1	9779.7	
461.3	10912	
461.5	13033	
461.7	12693	
461.9	10469	
462.1	10677	
462.3	12451	
462.5	12826	
462.7	10613	
462.9	10901	
463.1	13815	
463.3	13728	
463.5	11039	
463.7	12110	
463.9	12922	
464.1	13276	
464.3	11555	
464.5	11623	
464.7	13635	
464.9	13659	
465.1	12812	
465.3	12109	
465.5	13921	
465.7	14212	
465.9	12581	
466.1	12001	
466.3	14180	
466.5	13650	
466.7	13342	
466.9	12184	
467.1	14098	
467.3	14675	
467.5	13319	
467.7	12443	
467.9	14928	
468.1	15771	
468.3	12878	
468.5	13532	
468.7	14213	
468.9	14091	
469.1	12770	
469.3	13577	
469.5	16099	
469.7	14085	
469.9	13005	
470.1	12809	
470.3	14422	
470.5	14433	
470.7	13853	
470.9	12760	
471.1	14274	
471.3	14339	
471.5	12670	
471.69	13984	
471.89	14011	
472.09	13747	
472.29	13463	
472.49	13300	
472.69	14017	
472.89	14575	
473.09	12683	
473.29	12396	
473.49	13887	
473.69	13949	
473.89	13356	
474.09	12620	
474.29	15109	
474.49	14703	
474.69	13400	
474.89	12700	
475.09	14106	
475.29	14158	
475.49	12320	
475.69	12646	
475.88	15182	
476.08	14503	
476.28	12308	
476.48	12455	
476.68	14534	
476.88	14301	
477.08	12311	
477.28	12656	
477.48	13801	
477.68	14334	
477.88	12265	
478.08	12439	
478.28	14930	
478.48	14156	
478.67	12691	
478.87	11949	
479.07	14971	
479.27	14238	
479.47	12799	
479.67	12913	
479.87	14672	
480.07	15165	
480.27	12372	
480.47	13577	
480.67	14443	
480.87	15031	
481.06	12577	
481.26	13382	
481.46	14560	
481.66	14450	
481.86	13050	
482.06	13878	
482.26	14173	
482.46	14892	
482.66	13009	
482.86	12773	
483.05	14915	
483.25	14185	
483.45	15087	
483.65	13129	
483.85	14631	
484.05	14721	
484.25	13606	
484.45	14166	
484.65	15419	
484.84	15592	
485.04	13265	
485.24	13320	
485.44	15827	
485.64	14582	
485.84	12986	
486.04	14240	
486.24	14853	
486.44	15145	
486.63	13057	
486.83	13781	
487.03	15190	
487.23	15412	
487.43	13233	
487.63	15253	
487.83	15417	
488.02	16311	
488.22	14341	
488.42	14838	
488.62	16025	
488.82	15455	
489.02	13947	
489.22	14170	
489.41	16058	
489.61	16052	
489.81	13734	
490.01	13936	
490.21	16312	
490.41	16907	
490.61	14072	
490.8	14187	
491	15979	
491.2	15165	
491.4	14429	
491.6	13743	
491.8	15612	
491.99	15668	
492.19	13533	
492.39	13861	
492.59	16203	
492.79	16305	
492.99	14883	
493.18	14238	
493.38	16655	
493.58	17573	
493.78	15019	
493.98	14655	
494.18	16630	
494.37	16433	
494.57	15644	
494.77	15483	
494.97	17384	
495.17	17800	
495.37	15548	
495.56	15748	
495.76	18161	
495.96	17787	
496.16	16703	
496.36	16111	
496.55	18277	
496.75	17826	
496.95	16241	
497.15	16143	
497.35	18014	
497.54	18224	
497.74	16098	
497.94	17560	
498.14	18835	
498.34	18682	
498.53	16195	
498.73	16892	
498.93	17861	
499.13	18474	
499.33	16862	
499.52	17043	
499.72	18845	
499.92	18856	
500.12	16845	
500.32	16935	
500.51	18933	
500.71	18974	
500.91	17596	
501.11	17360	
501.31	18968	
501.5	19065	
501.7	17970	
501.9	16947	
502.1	18693	
502.29	19117	
502.49	17479	
502.69	17737	
502.89	18800	
503.09	19017	
503.28	16253	
503.48	16535	
503.68	18013	
503.88	18311	
504.07	17296	
504.27	16722	
504.47	18505	
504.67	18315	
504.86	17159	
505.06	16921	
505.26	17888	
505.46	19484	
505.65	16597	
505.85	16763	
506.05	17722	
506.25	18266	
506.44	15877	
506.64	16520	
506.84	17552	
507.04	18288	
507.23	15950	
507.43	16429	
507.63	19169	
507.83	17813	
508.02	16521	
508.22	16339	
508.42	19647	
508.62	17755	
508.81	16460	
509.01	16797	
509.21	17322	
509.4	17711	
509.6	16600	
509.8	16208	
510	17704	
510.19	18996	
510.39	15991	
510.59	16211	
510.79	17800	
510.98	18892	
511.18	16566	
511.38	16607	
511.57	18337	
511.77	18300	
511.97	16898	
512.17	16040	
512.36	18366	
512.56	18262	
512.76	16171	
512.95	15882	
513.15	18443	
513.35	17414	
513.55	16905	
513.74	16208	
513.94	18618	
514.14	18208	
514.33	17085	
514.53	17082	
514.73	18036	
514.92	18321	
515.12	16492	
515.32	16415	
515.51	18398	
515.71	18673	
515.91	17892	
516.11	16599	
516.3	19923	
516.5	18165	
516.7	16955	
516.89	17593	
517.09	18051	
517.29	18099	
517.48	17319	
517.68	16883	
517.88	18037	
518.07	18613	
518.27	17248	
518.47	16517	
518.66	19088	
518.86	18020	
519.06	16279	
519.25	16698	
519.45	18254	
519.65	19655	
519.84	17400	
520.04	18213	
520.24	19944	
520.43	18961	
520.63	17103	
520.83	16938	
521.02	18137	
521.22	18644	
521.42	17076	
521.61	17685	
521.81	18249	
522.01	18464	
522.2	17182	
522.4	16810	
522.6	19105	
522.79	18115	
522.99	17115	
523.18	17021	
523.38	19028	
523.58	19268	
523.77	18710	
523.97	17297	
524.17	21005	
524.36	20482	
524.56	18644	
524.76	18525	
524.95	19998	
525.15	19631	
525.34	18699	
525.54	18882	
525.74	20684	
525.93	19899	
526.13	19835	
526.33	19131	
526.52	21129	
526.72	20749	
526.91	20000	
527.11	19581	
527.31	21217	
527.5	21839	
527.7	19644	
527.89	19130	
528.09	20740	
528.29	21341	
528.48	20177	
528.68	19852	
528.87	21693	
529.07	21294	
529.27	19752	
529.46	19457	
529.66	21416	
529.85	21825	
530.05	19360	
530.25	19889	
530.44	22745	
530.64	21231	
530.83	19633	
531.03	20070	
531.23	21801	
531.42	21489	
531.62	20747	
531.81	20045	
532.01	22244	
532.21	22803	
532.4	20411	
532.6	20910	
532.79	23385	
532.99	22855	
533.18	21149	
533.38	21821	
533.58	22725	
533.77	23212	
533.97	21337	
534.16	21993	
534.36	23736	
534.55	23036	
534.75	22458	
534.95	21668	
535.14	24018	
535.34	23049	
535.53	21187	
535.73	22891	
535.92	24066	
536.12	22872	
536.31	21192	
536.51	22063	
536.71	23070	
536.9	22608	
537.1	21301	
537.29	21627	
537.49	23370	
537.68	22714	
537.88	21975	
538.07	21215	
538.27	23191	
538.46	23900	
538.66	21163	
538.86	21807	
539.05	23445	
539.25	23675	
539.44	22147	
539.64	21350	
539.83	23085	
540.03	23683	
540.22	21288	
540.42	21104	
540.61	23068	
540.81	23227	
541	21379	
541.2	22242	
541.39	22562	
541.59	22922	
541.78	21932	
541.98	20922	
542.18	22498	
542.37	22241	
542.57	21151	
542.76	21948	
542.96	22292	
543.15	22487	
543.35	21103	
543.54	20560	
543.74	22433	
543.93	22434	
544.13	20566	
544.32	21417	
544.52	22347	
544.71	21611	
544.91	19956	
545.1	20914	
545.3	21926	
545.49	22483	
545.69	19932	
545.88	20312	
546.08	23066	
546.27	22678	
546.47	20685	
546.66	20083	
546.86	22386	
547.05	22953	
547.24	20296	
547.44	20387	
547.63	21427	
547.83	22599	
548.02	20666	
548.22	20558	
548.41	21311	
548.61	22532	
548.8	19996	
549	20069	
549.19	21792	
549.39	22134	
549.58	19651	
549.78	20121	
549.97	22015	
550.17	21392	
550.36	20623	
550.55	21639	
550.75	21388	
550.94	22168	
551.14	19513	
551.33	19714	
551.53	20857	
551.72	21833	
551.92	19880	
552.11	19722	
552.31	21738	
552.5	21499	
552.69	21058	
552.89	19314	
553.08	21605	
553.28	21280	
553.47	19499	
553.67	20358	
553.86	21798	
554.06	20564	
554.25	18901	
554.44	19632	
554.64	22346	
554.83	22192	
555.03	19415	
555.22	19734	
555.42	21657	
555.61	21300	
555.8	19437	
556	19598	
556.19	20456	
556.39	21502	
556.58	19495	
556.78	19332	
556.97	21160	
557.16	20928	
557.36	20363	
557.55	19220	
557.75	20249	
557.94	21947	
558.13	19260	
558.33	19114	
558.52	21615	
558.72	20650	
558.91	19077	
559.1	19042	
559.3	20557	
559.49	20018	
559.69	18535	
559.88	19477	
560.07	20991	
560.27	21409	
560.46	19580	
560.66	19624	
560.85	20766	
561.04	19947	
561.24	18876	
561.43	18873	
561.63	20243	
561.82	20562	
562.01	19951	
562.21	19248	
562.4	20777	
562.59	21847	
562.79	19172	
562.98	19086	
563.18	20932	
563.37	22342	
563.56	19859	
563.76	19411	
563.95	20669	
564.14	20639	
564.34	19633	
564.53	19283	
564.73	21219	
564.92	21559	
565.11	19798	
565.31	19407	
565.5	21822	
565.69	20976	
565.89	19658	
566.08	19927	
566.27	21746	
566.47	22266	
566.66	20503	
566.85	19498	
567.05	21685	
567.24	21229	
567.44	19700	
567.63	20775	
567.82	21869	
568.02	21590	
568.21	19839	
568.4	20165	
568.6	21644	
568.79	21711	
568.98	19824	
569.18	20121	
569.37	21976	
569.56	23594	
569.76	20548	
569.95	21183	
570.14	22128	
570.34	22173	
570.53	20028	
570.72	20063	
570.91	22720	
571.11	21983	
571.3	20395	
571.49	21288	
571.69	22068	
571.88	21551	
572.07	21056	
572.27	20945	
572.46	21804	
572.65	22389	
572.85	20467	
573.04	20781	
573.23	23016	
573.43	22291	
573.62	20502	
573.81	20953	
574	22612	
574.2	22520	
574.39	21143	
574.58	21117	
574.78	23589	
574.97	22988	
575.16	21659	
575.36	21787	
575.55	23552	
575.74	23625	
575.93	20931	
576.13	22367	
576.32	23083	
576.51	23652	
576.71	21514	
576.9	22754	
577.09	23819	
577.28	23529	
577.48	21853	
577.67	21272	
577.86	23077	
578.05	23612	
578.25	21880	
578.44	21850	
578.63	23411	
578.83	24552	
579.02	21409	
579.21	22922	
579.4	23599	
579.6	23487	
579.79	21882	
579.98	23797	
580.17	23810	
580.37	24059	
580.56	21583	
580.75	22305	
580.94	24346	
581.14	24220	
581.33	22712	
581.52	21807	
581.71	23939	
581.91	24384	
582.1	21642	
582.29	22135	
582.48	23730	
582.68	23903	
582.87	22454	
583.06	22274	
583.25	23941	
583.45	23862	
583.64	23043	
583.83	23472	
584.02	23703	
584.21	24185	
584.41	22685	
584.6	22351	
584.79	23902	
584.98	24447	
585.18	22074	
585.37	21845	
585.56	23461	
585.75	24203	
585.94	21958	
586.14	22640	
586.33	24296	
586.52	23861	
586.71	22065	
586.91	21835	
587.1	22850	
587.29	23851	
587.48	21368	
587.67	21665	
587.87	23447	
588.06	23262	
588.25	22499	
588.44	21853	
588.63	23036	
588.83	23490	
589.02	21242	
589.21	21001	
589.4	22330	
589.59	22287	
589.78	20030	
589.98	19920	
590.17	21231	
590.36	21624	
590.55	18749	
590.74	19089	
590.94	22068	
591.13	20649	
591.32	19095	
591.51	18654	
591.7	21199	
591.89	21033	
592.09	18976	
592.28	19474	
592.47	20408	
592.66	22374	
592.85	19085	
593.05	19369	
593.24	20994	
593.43	21756	
593.62	19473	
593.81	19746	
594	21194	
594.19	21280	
594.39	19233	
594.58	19302	
594.77	21310	
594.96	21698	
595.15	19144	
595.34	19624	
595.54	21043	
595.73	20381	
595.92	18299	
596.11	19180	
596.3	21185	
596.49	20461	
596.68	18912	
596.88	19456	
597.07	21143	
597.26	20161	
597.45	18605	
597.64	19549	
597.83	20283	
598.02	21005	
598.22	18681	
598.41	19189	
598.6	20754	
598.79	20277	
598.98	18729	
599.17	19529	
599.36	20678	
599.55	21298	
599.74	20319	
599.94	20058	
600.13	21119	
600.32	20104	
600.51	18363	
600.7	18729	
600.89	21421	
601.08	21543	
601.27	18355	
601.47	19170	
601.66	20925	
601.85	21395	
602.04	18932	
602.23	18922	
602.42	20040	
602.61	20562	
602.8	18609	
602.99	18426	
603.18	20333	
603.37	20504	
603.57	18684	
603.76	19344	
603.95	20908	
604.14	20639	
604.33	18549	
604.52	18908	
604.71	20551	
604.9	20177	
605.09	19300	
605.28	19289	
605.47	21082	
605.66	20606	
605.86	19140	
606.05	18586	
606.24	20964	
606.43	19622	
606.62	18858	
606.81	19342	
607	20591	
607.19	20165	
607.38	18143	
607.57	18452	
607.76	19889	
607.95	19408	
608.14	18797	
608.33	19332	
608.52	19920	
608.72	20725	
608.91	18078	
609.1	18054	
609.29	19817	
609.48	19432	
609.67	18637	
609.86	17827	
610.05	19411	
610.24	19726	
610.43	17985	
610.62	17434	
610.81	20487	
611	20478	
611.19	17901	
611.38	18335	
611.57	19925	
611.76	20988	
611.95	17711	
612.14	17530	
612.33	19770	
612.52	19310	
612.71	18202	
612.9	17517	
613.09	18987	
613.28	21057	
613.47	17959	
613.66	18532	
613.85	19976	
614.04	19512	
614.24	17923	
614.43	17238	
614.62	19998	
614.81	19793	
615	18263	
615.19	18484	
615.38	19308	
615.57	19950	
615.76	18350	
615.95	19082	
616.14	20110	
616.33	19929	
616.52	18772	
616.71	18858	
616.9	19953	
617.09	20135	
617.28	18211	
617.47	19219	
617.66	19491	
617.85	19553	
618.04	19323	
618.22	18588	
618.41	20097	
618.6	21016	
618.79	18854	
618.98	18829	
619.17	21417	
619.36	20093	
619.55	19112	
619.74	19071	
619.93	20937	
620.12	20377	
620.31	19761	
620.5	20050	
620.69	21660	
620.88	22155	
621.07	20564	
621.26	19800	
621.45	21547	
621.64	21500	
621.83	20071	
622.02	19390	
622.21	21554	
622.4	21566	
622.59	20537	
622.78	20484	
622.97	20986	
623.16	22042	
623.35	20129	
623.54	19554	
623.72	21308	
623.91	21387	
624.1	20425	
624.29	19264	
624.48	22416	
624.67	21827	
624.86	20372	
625.05	19726	
625.24	22533	
625.43	21263	
625.62	21732	
625.81	19806	
626	22075	
626.19	21784	
626.38	20584	
626.56	19923	
626.75	21524	
626.94	22359	
627.13	20478	
627.32	19506	
627.51	22031	
627.7	22894	
627.89	19493	
628.08	20467	
628.27	21271	
628.46	21388	
628.65	19695	
628.83	19556	
629.02	21840	
629.21	21250	
629.4	20186	
629.59	20177	
629.78	21321	
629.97	21913	
630.16	20426	
630.35	19996	
630.54	22511	
630.72	22106	
630.91	19799	
631.1	20157	
631.29	21739	
631.48	21756	
631.67	20303	
631.86	19747	
632.05	21525	
632.24	21371	
632.42	19501	
632.61	19976	
632.8	21375	
632.99	21029	
633.18	20087	
633.37	20294	
633.56	21542	
633.75	21625	
633.93	20053	
634.12	19761	
634.31	22042	
634.5	21879	
634.69	19802	
634.88	20009	
635.07	21262	
635.25	21841	
635.44	20406	
635.63	20721	
635.82	21183	
636.01	20760	
636.2	20154	
636.39	19972	
636.57	22050	
636.76	21652	
636.95	19422	
637.14	20466	
637.33	21406	
637.52	22077	
637.7	19185	
637.89	19870	
638.08	21280	
638.27	22036	
638.46	20105	
638.65	20007	
638.83	21857	
639.02	20697	
639.21	19583	
639.4	19933	
639.59	20951	
639.78	20564	
639.96	18785	
640.15	18903	
640.34	20602	
640.53	20668	
640.72	18637	
640.91	18695	
641.09	20004	
641.28	21051	
641.47	18509	
641.66	19461	
641.85	20559	
642.03	20549	
642.22	19127	
642.41	18680	
642.6	19981	
642.79	19331	
642.97	18322	
643.16	19004	
643.35	19676	
643.54	19459	
643.73	18161	
643.91	18800	
644.1	19150	
644.29	20028	
644.48	18027	
644.67	17982	
644.85	19214	
645.04	19432	
645.23	17220	
645.42	17628	
645.6	18712	
645.79	19652	
645.98	17174	
646.17	16329	
646.36	18015	
646.54	18217	
646.73	17244	
646.92	16413	
647.11	17875	
647.29	18710	
647.48	16415	
647.67	16247	
647.86	18893	
648.05	19217	
648.23	16599	
648.42	17540	
648.61	18391	
648.8	18260	
648.98	16154	
649.17	16447	
649.36	17688	
649.55	17420	
649.73	16262	
649.92	16956	
650.11	17904	
650.3	17993	
650.48	16220	
650.67	16322	
650.86	18120	
651.05	17218	
651.23	16100	
651.42	15931	
651.61	17552	
651.79	17238	
651.98	16296	
652.17	15781	
652.36	17611	
652.54	16874	
652.73	15749	
652.92	15646	
653.11	17643	
653.29	17688	
653.48	15088	
653.67	15799	
653.85	17238	
654.04	18067	
654.23	15759	
654.42	15403	
654.6	16440	
654.79	16873	
654.98	14433	
655.16	14730	
655.35	15601	
655.54	15381	
655.73	14020	
655.91	14018	
656.1	16258	
656.29	15470	
656.47	13911	
656.66	15266	
656.85	16041	
657.03	16191	
657.22	14682	
657.41	14843	
657.59	16286	
657.78	16328	
657.97	14612	
658.16	15367	
658.34	16799	
658.53	17300	
658.72	15889	
658.9	16365	
659.09	16577	
659.28	16612	
659.46	14996	
659.65	14984	
659.84	16322	
660.02	16897	
660.21	14999	
660.4	14844	
660.58	17215	
660.77	16615	
660.96	15460	
661.14	14650	
661.33	17577	
661.52	17511	
661.7	14528	
661.89	17432	
662.08	16273	
662.26	15881	
662.45	14685	
662.64	14796	
662.82	16807	
663.01	16260	
663.2	14670	
663.38	15424	
663.57	16546	
663.75	16617	
663.94	15001	
664.13	16019	
664.31	16096	
664.5	16744	
664.69	15175	
664.87	15543	
665.06	15738	
665.25	16564	
665.43	15672	
665.62	15752	
665.8	16561	
665.99	16135	
666.18	14761	
666.36	15029	
666.55	16516	
666.74	16614	
666.92	14580	
667.11	15894	
667.29	16126	
667.48	16483	
667.67	15397	
667.85	14724	
668.04	16090	
668.22	16161	
668.41	14798	
668.6	15093	
668.78	15904	
668.97	16085	
669.15	15142	
669.34	14241	
669.53	15920	
669.71	16204	
669.9	14291	
670.08	14853	
670.27	15892	
670.46	16309	
670.64	15055	
670.83	15227	
671.01	15672	
671.2	16054	
671.38	14502	
671.57	14284	
671.76	16648	
671.94	17208	
672.13	14142	
672.31	14952	
672.5	16484	
672.69	15879	
672.87	14433	
673.06	14769	
673.24	16270	
673.43	15891	
673.61	14919	
673.8	14509	
673.98	16336	
674.17	16442	
674.36	15072	
674.54	14851	
674.73	16060	
674.91	16394	
675.1	14805	
675.28	14300	
675.47	15904	
675.65	16414	
675.84	14564	
676.03	14846	
676.21	15760	
676.4	15373	
676.58	15217	
676.77	15244	
676.95	16977	
677.14	15704	
677.32	14186	
677.51	14345	
677.69	16271	
677.88	15523	
678.06	14286	
678.25	14314	
678.44	16079	
678.62	15724	
678.81	14042	
678.99	14882	
679.18	16653	
679.36	16360	
679.55	14466	
679.73	15128	
679.92	16165	
680.1	15819	
680.29	15519	
680.47	14543	
680.66	15666	
680.84	16241	
681.03	13928	
681.21	14853	
681.4	15779	
681.58	15655	
681.77	14342	
681.95	14093	
682.14	16324	
682.32	16569	
682.51	14980	
682.69	13831	
682.88	15500	
683.06	15919	
683.25	14615	
683.43	14994	
683.62	15841	
683.8	16062	
683.99	14933	
684.17	14328	
684.36	16579	
684.54	15395	
684.73	13435	
684.91	13455	
685.1	15017	
685.28	14456	
685.46	13130	
685.65	13218	
685.83	14603	
686.02	14212	
686.2	12642	
686.39	12894	
686.57	14177	
686.76	15578	
686.94	13073	
687.13	13162	
687.31	14896	
687.5	14571	
687.68	12769	
687.86	13854	
688.05	16090	
688.23	14319	
688.42	13871	
688.6	13391	
688.79	14747	
688.97	14735	
689.16	13804	
689.34	13003	
689.52	15498	
689.71	15589	
689.89	14118	
690.08	13577	
690.26	15139	
690.45	15100	
690.63	14223	
690.81	13729	
691	14971	
691.18	15018	
691.37	13733	
691.55	15335	
691.74	14668	
691.92	16266	
692.1	13648	
692.29	13110	
692.47	14733	
692.66	14193	
692.84	13187	
693.02	13646	
693.21	14579	
693.39	14672	
693.58	13940	
693.76	13454	
693.94	15845	
694.13	15849	
694.31	13687	
694.5	14606	
694.68	14938	
694.86	15328	
695.05	14247	
695.23	14502	
695.42	15771	
695.6	17644	
695.78	14810	
695.97	13919	
696.15	15866	
696.34	15344	
696.52	13736	
696.7	14338	
696.89	15450	
697.07	14808	
697.25	14133	
697.44	15253	
697.62	15334	
697.81	15501	
697.99	13623	
698.17	14229	
698.36	14573	
698.54	15093	
698.72	13878	
698.91	13079	
699.09	14789	
699.28	14653	
699.46	13647	
699.64	13457	
699.83	14569	
700.01	15241	
700.19	13988	
700.38	12897	
700.56	15313	
700.74	14808	
700.93	13114	
701.11	13971	
701.29	15112	
701.48	16138	
701.66	13446	
701.84	13702	
702.03	14997	
702.21	15614	
702.39	13097	
702.58	13829	
702.76	15266	
702.94	15358	
703.13	13138	
703.31	15223	
703.49	14666	
703.68	15808	
703.86	13264	
704.04	14209	
704.23	14872	
704.41	15314	
704.59	13332	
704.78	14282	
704.96	15898	
705.14	15328	
705.33	13312	
705.51	13767	
705.69	14742	
705.87	15496	
706.06	13891	
706.24	13035	
706.42	14959	
706.61	15228	
706.79	13904	
706.97	12994	
707.16	14455	
707.34	14754	
707.52	13704	
707.7	13270	
707.89	14595	
708.07	14285	
708.25	13704	
708.44	13995	
708.62	14382	
708.8	15248	
708.98	13760	
709.17	13029	
709.35	14608	
709.53	14569	
709.72	12757	
709.9	13048	
710.08	14737	
710.26	14762	
710.45	13785	
710.63	12968	
710.81	14380	
710.99	14364	
711.18	13349	
711.36	12712	
711.54	14134	
711.72	14465	
711.91	12557	
712.09	12154	
712.27	13959	
712.45	14308	
712.64	12575	
712.82	11813	
713	13124	
713.18	13230	
713.37	11667	
713.55	12479	
713.73	13713	
713.91	12309	
714.1	11346	
714.28	10698	
714.46	12637	
714.64	11731	
714.83	9719.7	
715.01	10031	
715.19	11170	
715.37	10675	
715.55	9459.6	
715.74	9630.9	
715.92	11604	
716.1	9959.3	
716.28	10377	
716.47	9488.9	
716.65	10352	
716.83	10494	
717.01	9299.8	
717.19	9300.5	
717.38	12215	
717.56	10106	
717.74	9385.8	
717.92	8933.9	
718.1	11248	
718.29	10608	
718.47	8781.7	
718.65	9460.3	
718.83	11682	
719.01	11738	
719.2	9337.4	
719.38	10231	
719.56	11670	
719.74	12974	
719.92	9824.1	
720.11	10517	
720.29	11445	
720.47	10679	
720.65	9135.3	
720.83	9596.1	
721.02	10516	
721.2	10181	
721.38	9380.4	
721.56	8621.3	
721.74	9756.5	
721.92	9785.2	
722.11	9537.4	
722.29	9352.4	
722.47	10722	
722.65	10116	
722.83	8574.2	
723.01	9230.9	
723.2	10048	
723.38	10405	
723.56	8156.4	
723.74	9034.3	
723.92	9645.9	
724.1	10574	
724.29	8482.7	
724.47	9468.4	
724.65	9753.1	
724.83	9612.5	
725.01	8322.9	
725.19	8950.3	
725.37	9604.3	
725.56	9493.7	
725.74	8204.8	
725.92	8410.3	
726.1	9594.7	
726.28	9839.8	
726.46	8548.2	
726.64	8378.9	
726.83	9554.5	
727.01	9968.1	
727.19	7952.9	
727.37	8775.5	
727.55	9846	
727.73	10161	
727.91	8015.7	
728.09	7868.3	
728.28	10195	
728.46	10525	
728.64	8783.1	
728.82	8707.3	
729	11062	
729.18	10480	
729.36	8145.5	
729.54	10107	
729.72	11537	
729.91	10185	
730.09	9969.5	
730.27	9042.5	
730.45	10071	
730.63	10613	
730.81	9418.6	
730.99	8791.2	
731.17	11129	
731.35	9874.6	
731.53	9114.1	
731.71	8885.5	
731.9	10719	
732.08	10729	
732.26	8917.5	
732.44	8646.5	
732.62	10841	
732.8	10503	
732.98	9200.8	
733.16	8387.8	
733.34	10328	
733.52	9257.5	
733.7	8677.2	
733.88	8837.7	
734.07	10091	
734.25	9904	
734.43	8171.4	
734.61	9398.1	
734.79	11159	
734.97	9801.6	
735.15	8236.2	
735.33	8677.2	
735.51	10046	
735.69	9671.2	
735.87	9227.5	
736.05	8566	
736.23	9812.5	
736.41	9471.2	
736.59	8406.9	
736.77	8460.2	
736.95	10236	
737.13	9683.5	
737.32	8116.1	
737.5	8272.4	
737.68	10552	
737.86	9434.3	
738.04	7851.9	
738.22	9277.3	
738.4	9296.4	
738.58	9329.2	
738.76	8210.3	
738.94	7513.3	
739.12	9299.1	
739.3	9159.2	
739.48	8695.7	
739.66	8555.7	
739.84	9490.3	
740.02	9369.5	
740.2	7474.4	
740.38	7660.1	
740.56	9713.5	
740.74	8692.3	
740.92	8170.7	
741.1	8064.2	
741.28	9110.7	
741.46	8966	
741.64	7623.2	
741.82	8026.7	
742	9069.1	
742.18	8952.4	
742.36	7723.6	
742.54	7453.9	
742.72	9478	
742.9	8323.6	
743.08	8041	
743.26	6878.4	
743.44	9460.3	
743.62	9366	
743.8	8072.4	
743.98	7216.4	
744.16	9103.9	
744.34	8849.3	
744.52	7795.9	
744.7	7712.7	
744.88	9024.7	
745.06	8614.4	
745.24	7752.2	
745.42	7847.8	
745.6	9099.8	
745.78	8800.1	
745.96	6716.7	
746.14	6939.2	
746.32	9449.3	
746.5	8852.7	
746.68	7342	
746.86	6760.3	
747.03	9151	
747.21	7788.4	
747.39	7208.2	
747.57	6726.2	
747.75	8373.5	
747.93	8626.7	
748.11	6810.9	
748.29	6705.7	
748.47	9639.8	
748.65	8114.7	
748.83	7258.7	
749.01	7111.2	
749.19	8555	
749.37	7869.7	
749.55	6896.9	
749.73	7054.6	
749.91	8194.6	
750.09	7983	
750.26	6963.8	
750.44	6385.6	
750.62	8254.7	
750.8	8120.2	
750.98	6422.4	
751.16	6694.1	
751.34	8231.5	
751.52	7658.7	
751.7	7260.7	
751.88	6234	
752.06	8456.1	
752.24	8251.3	
752.42	6077.7	
752.59	6475.7	
752.77	7968	
752.95	9005.6	
753.13	7057.3	
753.31	6505	
753.49	7666.9	
753.67	8014.4	
753.85	6595.8	
754.03	6326.2	
754.21	8189.8	
754.38	8355	
754.56	6211.5	
754.74	5457.2	
754.92	7264.8	
755.1	7784.3	
755.28	5184.1	
755.46	5128.1	
755.64	7959.8	
755.82	7966.6	
755.99	4926	
756.17	4823	
756.35	5478.3	
756.53	6664.8	
756.71	3672.7	
756.89	4416.1	
757.07	6209.4	
757.25	5588.9	
757.42	4966.3	
757.6	5686.5	
757.78	6536.4	
757.96	5815.5	
758.14	4947.2	
758.32	4618.9	
758.5	5495.4	
758.67	6156.2	
758.85	4706.9	
759.03	4874.2	
759.21	6173.9	
759.39	5713.2	
759.57	4401.1	
759.75	5350	
759.92	6834.8	
760.1	6333.7	
760.28	5668.8	
760.46	5917.3	
760.64	6159.6	
760.82	5951.4	
760.99	5487.2	
761.17	5040.1	
761.35	6888.7	
761.53	6062.7	
761.71	5213.4	
761.89	5773.9	
762.06	6838.2	
762.24	6414.9	
762.42	5346.6	
762.6	5132.2	
762.78	6472.9	
762.96	7041.6	
763.13	5698.8	
763.31	5342.5	
763.49	7094.8	
763.67	6450.4	
763.85	6136.4	
764.02	6548.7	
764.2	7438.9	
764.38	6615.6	
764.56	5330.9	
764.74	5986.2	
764.91	7414.3	
765.09	6462	
765.27	4982.7	
765.45	4780	
765.63	7519.5	
765.8	7195.2	
765.98	4514.4	
766.16	4834.6	
766.34	6078.4	
766.52	5925.5	
766.69	5555.5	
766.87	4635.2	
767.05	6385.6	
767.23	6959.7	
767.41	4835.3	
767.58	4967	
767.76	6771.9	
767.94	6797.2	
768.12	4872.1	
768.29	5461.9	
768.47	6279.1	
768.65	6847.7	
768.83	4540.3	
769	5404.6	
769.18	5904.3	
769.36	6463.4	
769.54	5439.4	
769.72	4472.8	
769.89	6718.7	
770.07	6707.8	
770.25	4733.5	
770.43	5809.4	
770.6	7211.6	
770.78	7522.9	
770.96	4818.2	
771.14	5233.2	
771.31	6511.2	
771.49	6001.9	
771.67	4059.1	
771.85	4240	
772.02	5315.2	
772.2	5874.3	
772.38	4789.5	
772.55	4459.1	
772.73	6137.8	
772.91	5885.9	
773.09	4690.5	
773.26	4752.7	
773.44	6013.5	
773.62	5717.2	
773.8	4248.2	
773.97	4089.8	
774.15	6006	
774.33	5729.5	
774.5	4115.1	
774.68	4421.6	
774.86	5924.1	
775.04	5747.3	
775.21	4192.2	
775.39	4108.2	
775.57	5951.4	
775.74	6206.7	
775.92	4005.8	
776.1	3894.6	
776.27	5811.5	
776.45	6813.6	
776.63	4132.1	
776.81	3710.9	
776.98	5515.9	
777.16	6327.5	
777.34	4172.4	
777.51	4392.9	
777.69	5526.1	
777.87	5335.6	
778.04	4204.5	
778.22	4724	
778.4	5300.8	
778.57	5887.9	
778.75	3577.1	
778.93	3869.3	
779.1	5117.9	
779.28	4962.2	
779.46	3602.4	
779.64	3934.1	
779.81	5942.5	
779.99	6567.8	
780.17	4582.7	
780.34	4670.1	
780.52	5386.8	
780.69	5562.3	
780.87	4207.2	
781.05	3839.9	
781.22	5505.6	
781.4	5538.4	
781.58	3922.5	
781.75	3194.8	
781.93	5513.1	
782.11	4939	
782.28	4620.9	
782.46	3844	
782.64	4803.2	
782.81	5625.1	
782.99	3986	
783.17	3908.9	
783.34	5532.9	
783.52	4889.9	
783.69	4046.1	
783.87	4672.1	
784.05	4868	
784.22	4861.9	
784.4	4697.4	
784.58	4108.2	
784.75	5671.5	
784.93	4962.9	
785.1	3803.8	
785.28	4341.7	
785.46	5479.7	
785.63	4883.7	
785.81	3790.8	
785.99	3594.9	
786.16	5055.8	
786.34	5363.6	
786.51	3657.7	
786.69	3969.6	
786.87	4619.5	
787.04	5105.6	
787.22	3514.3	
787.39	4327.4	
787.57	4874.8	
787.75	5732.9	
787.92	4472.8	
788.1	4425.7	
788.27	4841.4	
788.45	4618.2	
788.63	4168.3	
788.8	3127.9	
788.98	5176.6	
789.15	4565.6	
789.33	3278.1	
789.5	3733.4	
789.68	5504.3	
789.86	5683.8	
790.03	4087.1	
790.21	3637.2	
790.38	5590.3	
790.56	4943.8	
790.73	3515.7	
790.91	3495.9	
791.09	4749.9	
791.26	5451.7	
791.44	3685.7	
791.61	3279.5	
791.79	4818.9	
791.96	4810	
792.14	3390.8	
792.32	3002.3	
792.49	4827.7	
792.67	4891.2	
792.84	3431.7	
793.02	3218.7	
793.19	5130.8	
793.37	5754.1	
793.54	3039.9	
793.72	3317.7	
793.89	5783.5	
794.07	4776.5	
794.25	3743	
794.42	3044.6	
794.6	5683.8	
794.77	5322.7	
794.95	4052.9	
795.12	3564.1	
795.3	4820.9	
795.47	5247.6	
795.65	3839.3	
795.82	3665.2	
796	4657.1	
796.17	6131.6	
796.35	3607.2	
796.52	4198.3	
796.7	5238	
796.87	5318.6	
797.05	3570.3	
797.22	4259.1	
797.4	5266.7	
797.57	6045.6	
797.75	3701.4	
797.92	3474	
798.1	5489.9	
798.27	4655.7	
798.45	3061.7	
798.62	3265.8	
798.8	4952.7	
798.97	5449.6	
799.15	3876.1	
799.32	3703.4	
799.5	4384	
799.67	5050.3	
799.85	3972.4	
800.02	3007.1	
800.2	4666.6	
800.37	4965.6	
800.55	4104.1	
800.72	3446	
800.9	5384.8	
801.07	5700.2	
801.25	4633.2	
801.42	3790.1	
801.6	5361.6	
801.77	5125.4	
801.95	3553.2	
802.12	3392.8	
802.29	5182	
802.47	5111	
802.64	3809.9	
802.82	2915.6	
802.99	4677.6	
803.17	5420.3	
803.34	3662.5	
803.52	3292.5	
803.69	6019.7	
803.87	4459.8	
804.04	3623.5	
804.21	3639.9	
804.39	5644.2	
804.56	4771.1	
804.74	3169.6	
804.91	3741.6	
805.09	4721.3	
805.26	4749.2	
805.44	3168.2	
805.61	3472.7	
805.78	5315.2	
805.96	5164.3	
806.13	3714.3	
806.31	3994.2	
806.48	4321.9	
806.66	4797.7	
806.83	3781.2	
807	3707.5	
807.18	4583.4	
807.35	4980	
807.53	3647.4	
807.7	2972.3	
807.87	5608.7	
808.05	4671.4	
808.22	3947.1	
808.4	2965.5	
808.57	4689.2	
808.74	4400.4	
808.92	3332	
809.09	4193.6	
809.27	4657.8	
809.44	5114.5	
809.61	2977.1	
809.79	3308.2	
809.96	5672.2	
810.14	5216.9	
810.31	2891	
810.48	3542.3	
810.66	4730.1	
810.83	5296	
811.01	3321.1	
811.18	3695.9	
811.35	5319.9	
811.53	4208.6	
811.7	3964.9	
811.87	3706.8	
812.05	4698	
812.22	4646.8	
812.39	3278.8	
812.57	3173.7	
812.74	4729.4	
812.92	6051.1	
813.09	3547.1	
813.26	3725.3	
813.44	5791.7	
813.61	4645.5	
813.78	2973	
813.96	3859.1	
814.13	4751.3	
814.3	4363.5	
814.48	4177.2	
814.65	3497.2	
814.82	5583.4	
815	4481.6	
815.17	3528.7	
815.34	4316.4	
815.52	4607.9	
815.69	4573.8	
815.87	3474.7	
816.04	3437.9	
816.21	4657.1	
816.38	4239.3	
816.56	3426.9	
816.73	3209.2	
816.9	5811.5	
817.08	5260.5	
817.25	3286.3	
817.42	4047.5	
817.6	4341.7	
817.77	4603.2	
817.94	3663.1	
818.12	3195.5	
818.29	4441.4	
818.46	6591.7	
818.64	3334.1	
818.81	3134.1	
818.98	4412.7	
819.16	6125.5	
819.33	3840.6	
819.5	3587.4	
819.67	4967	
819.85	5529.5	
820.02	3525.9	
820.19	3676.8	
820.37	4895.3	
820.54	4646.2	
820.71	3656.3	
820.88	4415.4	
821.06	4857.8	
821.23	4486.4	
821.4	3660.4	
821.58	3609.9	
821.75	5259.9	
821.92	4774.5	
822.09	2939.5	
822.27	3188.7	
822.44	4648.2	
822.61	4552.6	
822.79	3004.4	
822.96	5444.9	
823.13	5065.3	
823.3	4377.2	
823.48	3375.1	
823.65	3070.6	
823.82	5282.4	
823.99	4349.9	
824.17	4243.4	
824.34	3158	
824.51	5975.3	
824.68	4660.5	
824.86	3241.9	
825.03	3627	
825.2	4661.2	
825.37	5574.6	
825.55	3231	
825.72	3577.8	
825.89	5994.4	
826.06	5556.1	
826.24	3436.5	
826.41	3477.5	
826.58	5554.8	
826.75	4889.2	
826.92	2807.1	
827.1	3102.7	
827.27	7335.1	
827.44	5847.6	
827.61	3229	
827.79	3905.5	
827.96	4484.4	
828.13	4666.6	
828.3	3447.4	
828.47	2935.4	
828.65	4911.7	
828.82	4828.4	
828.99	4348.5	
829.16	3799.7	
829.34	5165.7	
829.51	5036	
829.68	3590.1	
829.85	3687.7	
830.02	5532.9	
830.2	5244.8	
830.37	2779.1	
830.54	4167.6	
830.71	5879.7	
830.88	4617.5	
831.05	2837.1	
831.23	3243.3	
831.4	5631.9	
831.57	6214.9	
831.74	3264.5	
831.91	2888.3	
832.09	4917.2	
832.26	5216.9	
832.43	3354.6	
832.6	3779.9	
832.77	4898.1	
832.94	5506.3	
833.12	2780.5	
833.29	3278.8	
833.46	5016.2	
833.63	6357.6	
833.8	3662.5	
833.97	3401.7	
834.15	5215.5	
834.32	5063.9	
834.49	3502.7	
834.66	3618.8	
834.83	5392.3	
835	4465.3	
835.17	3340.9	
835.35	3312.2	
835.52	5160.2	
835.69	5036	
835.86	3482.9	
836.03	2843.9	
836.2	5189.6	
836.37	4886.5	
836.55	3383.2	
836.72	3134.8	
836.89	4828.4	
837.06	5264	
837.23	3428.3	
837.4	3706.8	
837.57	5877	
837.75	6323.4	
837.92	3134.1	
838.09	3311.6	
838.26	4807.9	
838.43	5423	
838.6	3566.9	
838.77	3231.7	
838.94	6082.5	
839.11	5857.2	
839.29	3430.3	
839.46	2723.8	
839.63	5231.2	
839.8	4933.6	
839.97	3291.8	
840.14	3272.7	
840.31	5053	
840.48	5208.7	
840.65	2794.1	
840.82	3258.3	
841	5144.5	
841.17	5036.6	
841.34	3027.6	
841.51	3130	
841.68	5171.1	
841.85	4972.5	
842.02	3208.5	
842.19	2661	
842.36	5025.7	
842.53	5037.3	
842.7	3091.1	
842.87	3637.9	
843.05	6356.2	
843.22	4906.3	
843.39	2896.5	
843.56	3173.7	
843.73	4805.9	
843.9	5253.7	
844.07	4843.4	
844.24	3997	
844.41	7169.9	
844.58	4540.3	
844.75	2955.9	
844.92	3183.9	
845.09	5167.7	
845.26	5122	
845.43	3049.4	
845.6	3210.5	
845.77	5209.3	
845.94	4941.7	
846.12	3360.7	
846.29	3549.8	
846.46	5377.3	
846.63	5162.2	
846.8	3050.1	
846.97	3601	
847.14	5474.2	
847.31	5072.1	
847.48	3338.9	
847.65	3710.9	
847.82	5362.9	
847.99	5272.8	
848.16	3917.1	
848.33	3697.9	
848.5	4784.1	
848.67	5535.7	
848.84	2990.7	
849.01	3181.2	
849.18	4698.7	
849.35	4449.6	
849.52	3711.6	
849.69	2969.6	
849.86	5337.7	
850.03	5435.3	
850.2	3041.9	
850.37	3614	
850.54	5374.6	
850.71	4874.2	
850.88	3585.3	
851.05	2977.1	
851.22	5085.8	
851.39	5573.2	
851.56	2872.6	
851.73	3403.7	
851.9	4571.7	
852.07	5302.9	
852.24	3358.7	
852.41	2968.9	
852.58	5074.9	
852.75	4633.9	
852.92	3361.4	
853.09	2976.4	
853.26	4756.1	
853.43	5448.3	
853.6	3072.6	
853.77	2616.6	
853.94	5606	
854.11	4517.1	
854.28	4389.5	
854.44	3221.5	
854.61	5893.4	
854.78	5345.2	
854.95	2999.6	
855.12	3754.6	
855.29	4218.8	
855.46	5758.2	
855.63	3023.5	
855.8	4042	
855.97	4775.2	
856.14	5455.8	
856.31	4118.5	
856.48	3273.3	
856.65	4815.5	
856.82	4503.5	
856.99	2889	
857.16	3236.5	
857.33	6151.4	
857.49	4857.1	
857.66	3239.2	
857.83	3411.2	
858	4836.6	
858.17	5029.8	
858.34	2878.1	
858.51	3022.8	
858.68	5677	
858.85	5673.6	
859.02	3485	
859.19	3620.8	
859.36	4547.2	
859.52	4538.3	
859.69	3012.6	
859.86	3532.1	
860.03	4584.7	
860.2	5571.8	
860.37	2743.6	
860.54	3049.4	
860.71	5307.7	
860.88	5658.5	
861.05	3327.9	
861.21	3768.3	
861.38	5623.7	
861.55	4448.2	
861.72	2742.2	
861.89	3355.3	
862.06	5356.8	
862.23	5696.8	
862.4	2904.7	
862.56	3137.5	
862.73	5165.7	
862.9	4881	
863.07	3452.9	
863.24	2991.4	
863.41	4508.9	
863.58	4533.5	
863.75	3049.4	
863.91	3454.2	
864.08	5509	
864.25	5248.9	
864.42	3697.9	
864.59	4114.4	
864.76	5847	
864.93	4607.2	
865.09	2974.3	
865.26	3237.2	
865.43	5531.6	
865.6	5797.8	
865.77	2682.2	
865.94	2943.6	
866.1	5502.2	
866.27	5287.2	
866.44	4392.2	
866.61	2868.5	
866.78	4857.8	
866.95	5244.8	
867.11	2922.5	
867.28	2719.7	
867.45	5453.7	
867.62	4564.9	
867.79	3437.9	
867.96	2998.2	
868.12	4547.9	
868.29	5289.9	
868.46	3011.9	
868.63	3968.3	
868.8	5422.3	
868.97	5233.9	
869.13	3158	
869.3	3114.3	
869.47	5177.9	
869.64	5380.7	
869.81	2992.8	
869.97	2964.1	
870.14	5122	
870.31	5583.4	
870.48	2932.7	
870.65	3708.2	
870.81	4804.5	
870.98	4858.5	
871.15	3345	
871.32	3118.4	
871.48	5190.9	
871.65	5707.7	
871.82	2984.6	
871.99	3257	
872.16	6031.3	
872.32	5537.7	
872.49	3036.5	
872.66	3007.1	
872.83	5322	
872.99	4657.1	
873.16	3448.8	
873.33	2970.2	
873.5	4982.7	
873.67	5056.4	
873.83	3138.2	
874	3905.5	
874.17	5085.8	
874.34	5961.6	
874.5	3827	
874.67	3733.4	
874.84	5603.2	
875.01	4508.3	
875.17	4084.3	
875.34	2985.3	
875.51	5087.2	
875.68	6001.2	
875.84	3570.3	
876.01	4242	
876.18	5266	
876.34	5248.9	
876.51	2974.3	
876.68	2922.5	
876.85	4819.6	
877.01	5510.4	
877.18	4185.4	
877.35	2941.6	
877.52	5029.8	
877.68	4517.8	
877.85	2919.7	
878.02	2930.6	
878.18	4931.5	
878.35	4662.5	
878.52	2459.6	
878.69	3342.3	
878.85	5382.1	
879.02	5261.9	
879.19	4151.2	
879.35	3301.3	
879.52	5219.6	
879.69	5427.8	
879.86	2627.5	
880.02	3310.9	
880.19	4885.1	
880.36	5934.3	
880.52	3409.2	
880.69	3545	
880.86	5355.4	
881.02	5384.8	
881.19	3213.9	
881.36	3238.5	
881.52	5226.4	
881.69	4685.1	
881.86	3205.1	
882.02	3140.2	
882.19	5440.1	
882.36	6332.3	
882.52	3081.5	
882.69	4103.4	
882.86	5109	
883.02	5016.8	
883.19	3607.2	
883.36	3459.7	
883.52	5276.3	
883.69	6025.8	
883.86	3065.1	
884.02	2740.2	
884.19	5285.1	
884.36	4966.3	
884.52	3402.4	
884.69	3156.6	
884.86	4754	
885.02	5768.4	
885.19	3335.5	
885.36	3392.1	
885.52	4933.6	
885.69	5096.7	
885.86	4242.7	
886.02	3713	
886.19	5291.3	
886.35	4831.2	
886.52	3279.5	
886.69	4145.1	
886.85	4547.2	
887.02	5604.6	
887.19	5604.6	
887.35	5604.6	
887.52	5604.6	
887.68	5604.6	
887.85	5604.6	
888.02	5604.6	
888.18	5604.6	
888.35	5604.6	
888.51	5604.6	
888.68	5604.6	
888.85	5604.6	
889.01	5604.6	
889.18	5604.6	
889.35	5604.6	
889.51	5604.6	
889.68	5604.6	
889.84	5604.6	
890.01	5604.6	
890.17	5604.6	
890.34	5604.6	
890.51	5604.6	
890.67	5604.6	
890.84	5604.6	
891	5604.6	
891.17	5604.6	
891.34	5604.6	
891.5	5604.6	
891.67	5604.6	
891.83	5604.6	
892	5604.6	
892.16	5604.6	
892.33	5604.6	
892.5	5604.6	
892.66	5604.6	
892.83	5604.6	
892.99	5604.6	
893.16	5604.6	
893.32	5604.6	
893.49	5604.6	
893.65	5604.6	
893.82	5604.6	
893.99	5604.6	
894.15	5604.6	
894.32	5604.6	
894.48	5604.6	
894.65	5604.6	
894.81	5604.6	
894.98	5604.6	
895.14	5604.6	
895.31	5604.6	
895.47	5604.6	
895.64	5604.6	
895.81	5604.6	
895.97	5604.6	
896.14	5604.6	
896.3	5604.6	
896.47	5604.6	
896.63	5604.6	
896.8	5604.6	
896.96	5604.6	
897.13	5604.6	
897.29	5604.6	
897.46	5604.6	
897.62	5604.6	
897.79	5604.6	
897.95	5604.6	
898.12	5604.6	
898.28	5604.6	
898.45	5604.6	
898.61	5604.6	
898.78	5604.6	
898.94	5604.6	
899.11	5604.6	
899.27	5604.6	
899.44	5604.6	
899.6	5604.6	
899.77	5604.6	
899.93	5604.6	
900.1	5604.6	
900.26	5604.6	
900.43	5604.6	
900.59	5604.6	
900.76	5604.6	
900.92	5604.6	
901.09	5604.6	
901.25	5604.6	
901.42	5604.6	
901.58	5604.6	
901.75	5604.6	
901.91	5604.6	
902.07	5604.6	
902.24	5604.6	
902.4	5604.6	
902.57	5604.6	
902.73	5604.6	
902.9	5604.6	
903.06	5604.6	
903.23	5604.6	
903.39	5604.6	
903.56	5604.6	
903.72	5604.6	
903.88	5604.6	
904.05	5604.6	
904.21	5604.6	
904.38	5604.6	
904.54	5604.6	
904.71	5604.6	
904.87	5604.6	
905.03	5604.6	
905.2	5604.6	
905.36	5604.6	
905.53	5604.6	
905.69	5604.6	
905.86	5604.6	
906.02	5604.6	
906.18	5604.6	
906.35	5604.6	
906.51	5604.6	
906.68	5604.6	
906.84	5604.6	
907.01	5604.6	
907.17	5604.6	
907.33	5604.6	
907.5	5604.6	
907.66	5604.6	
907.83	5604.6	
907.99	5604.6	
908.15	5604.6	
908.32	5604.6	
908.48	5604.6	
908.65	5604.6	
908.81	5604.6	
908.97	5604.6	
909.14	5604.6	
909.3	5604.6	
909.47	5604.6	
909.63	5604.6	
909.79	5604.6	
909.96	5604.6	
910.12	5604.6	
910.28	5604.6	
910.45	5604.6	
910.61	5604.6	
910.78	5604.6	
910.94	5604.6	
911.1	5604.6	
911.27	5604.6	
911.43	5604.6	
911.59	5604.6	
911.76	5604.6	
911.92	5604.6	
912.08	5604.6	
912.25	5604.6	
912.41	5604.6	
912.57	5604.6	
912.74	5604.6	
912.9	5604.6	
913.07	5604.6	
913.23	5604.6	
913.39	5604.6	
913.56	5604.6	
913.72	5604.6	
913.88	5604.6	
914.05	5604.6	
914.21	5604.6	
914.37	5604.6	
914.54	5604.6	
914.7	5604.6	
914.86	5604.6	
915.03	5604.6	
915.19	5604.6	
