Wavelength	Intensities	
nm	a.u.	
179.22	1734.1	
179.44	1730.2	
179.65	1738	
179.86	1722.3	
180.08	1710.7	
180.29	4080.2	
180.51	3106.8	
180.72	5056.4	
180.94	5691.3	
181.15	2781.1	
181.37	2754.5	
181.58	4836.6	
181.79	5071.5	
182.01	2925.2	
182.22	3035.1	
182.44	5109.7	
182.65	4368.3	
182.87	3668.6	
183.08	3332	
183.29	5324.7	
183.51	4453	
183.72	3020.1	
183.94	4257	
184.15	4803.2	
184.37	4734.2	
184.58	2710.8	
184.79	3545	
185.01	4490.5	
185.22	5139	
185.44	3729.4	
185.65	3224.2	
185.86	4762.2	
186.08	4375.8	
186.29	2684.2	
186.51	2839.2	
186.72	4559.5	
186.94	5218.9	
187.15	3261	
187.36	3336.8	
187.58	6527.6	
187.79	4858.5	
188.01	3429.7	
188.22	5141.1	
188.43	5681.7	
188.65	5020.3	
188.86	2856.2	
189.08	3329.3	
189.29	4633.9	
189.5	4624.3	
189.72	3081.5	
189.93	3188	
190.15	5209.3	
190.36	6088.6	
190.57	3349.8	
190.79	3222.8	
191	5294.7	
191.22	5256.5	
191.43	3436.5	
191.64	2883.5	
191.86	5365	
192.07	5123.3	
192.29	2979.1	
192.5	3093.1	
192.71	5188.2	
192.93	4562.2	
193.14	3046.7	
193.35	3166.2	
193.57	4623.6	
193.78	5269.4	
194	2526.5	
194.21	3016	
194.42	4428.4	
194.64	4784.7	
194.85	3338.2	
195.07	3850.2	
195.28	4743.1	
195.49	4261.8	
195.71	4006.5	
195.92	2914.3	
196.13	4928.8	
196.35	5036	
196.56	4209.9	
196.78	3306.1	
196.99	6052.4	
197.2	5692	
197.42	3693.9	
197.63	3363.4	
197.84	4324.6	
198.06	5020.3	
198.27	3082.9	
198.48	3971.7	
198.7	4626.4	
198.91	4760.8	
199.13	3373	
199.34	3358.7	
199.55	5198.4	
199.77	4149.9	
199.98	2937.5	
200.19	3412.6	
200.41	4772.4	
200.62	4420.9	
200.83	3463.1	
201.05	3689.8	
201.26	4786.8	
201.47	4550.6	
201.69	3007.1	
201.9	2955.9	
202.11	4764.3	
202.33	5491.3	
202.54	3168.9	
202.76	3525.2	
202.97	4809.3	
203.18	4896.7	
203.4	3462.4	
203.61	3414.6	
203.82	4846.9	
204.04	4568.3	
204.25	3364.1	
204.46	3309.5	
204.68	4825	
204.89	4973.8	
205.1	3229.6	
205.32	2950.4	
205.53	5040.7	
205.74	5184.1	
205.96	2569.5	
206.17	3407.1	
206.38	5063.9	
206.6	5139.7	
206.81	3824.9	
207.02	3152.5	
207.24	5007.3	
207.45	5286.5	
207.66	3227.6	
207.88	2811.9	
208.09	4880.3	
208.3	4773.8	
208.52	3035.1	
208.73	3209.8	
208.94	4755.4	
209.15	5395.7	
209.37	3237.8	
209.58	3343	
209.79	5258.5	
210.01	4636.6	
210.22	2626.2	
210.43	2767.5	
210.65	4752.7	
210.86	5068.7	
211.07	3188	
211.29	2979.8	
211.5	5018.9	
211.71	4739.7	
211.93	2991.4	
212.14	3001	
212.35	4728.8	
212.56	4844.1	
212.78	3355.3	
212.99	2808.4	
213.2	5497.4	
213.42	4626.4	
213.63	3064.4	
213.84	3233.1	
214.06	4319.2	
214.27	4404.5	
214.48	3209.2	
214.69	3411.2	
214.91	5304.9	
215.12	5356.8	
215.33	3450.8	
215.55	3657	
215.76	5736.4	
215.97	5056.4	
216.18	3218.7	
216.4	3233.1	
216.61	4521.9	
216.82	5097.4	
217.04	3025.5	
217.25	3102.7	
217.46	5288.5	
217.67	5101.5	
217.89	2698.5	
218.1	2793.4	
218.31	4866.7	
218.53	4957.4	
218.74	3119.7	
218.95	3007.8	
219.16	4775.9	
219.38	5468.8	
219.59	2953.2	
219.8	3572.3	
220.01	5978	
220.23	4846.2	
220.44	3804.4	
220.65	2962.7	
220.87	4863.9	
221.08	5269.4	
221.29	2843.9	
221.5	3588	
221.72	6257.9	
221.93	4589.5	
222.14	3385.3	
222.35	3926	
222.57	4792.9	
222.78	5143.8	
222.99	3252.2	
223.2	3439.9	
223.42	5038.7	
223.63	5143.8	
223.84	2583.9	
224.05	2514.9	
224.27	5859.9	
224.48	5431.2	
224.69	3947.1	
224.9	3398.9	
225.12	4917.2	
225.33	4768.4	
225.54	2742.9	
225.75	3074	
225.97	4501.4	
226.18	4796.3	
226.39	3237.8	
226.6	3035.8	
226.82	4576.5	
227.03	4497.3	
227.24	3365.5	
227.45	2823.5	
227.67	5069.4	
227.88	5441.5	
228.09	3680.9	
228.3	3697.9	
228.52	5090.6	
228.73	4754	
228.94	3145	
229.15	2800.9	
229.36	4756.7	
229.58	4706.9	
229.79	3202.3	
230	3667.2	
230.21	5601.2	
230.43	4868.7	
230.64	3347.1	
230.85	3406.5	
231.06	5141.1	
231.28	5098.1	
231.49	2794.1	
231.7	3330.7	
231.91	5072.8	
232.12	4856.4	
232.34	2887.6	
232.55	3242.6	
232.76	5260.5	
232.97	4928.8	
233.18	2970.2	
233.4	3267.2	
233.61	4964.3	
233.82	4612	
234.03	3108.8	
234.25	3084.9	
234.46	6331	
234.67	4786.8	
234.88	3420.8	
235.09	3046	
235.31	4987.5	
235.52	4723.3	
235.73	3327.9	
235.94	2837.8	
236.15	4606.6	
236.37	5670.8	
236.58	2941.6	
236.79	3201	
237	5031.2	
237.21	4386.1	
237.43	3434.4	
237.64	2790.7	
237.85	7930.4	
238.06	4461.2	
238.27	3463.1	
238.48	2890.4	
238.7	5064.6	
238.91	4674.8	
239.12	3192.1	
239.33	3304.7	
239.54	4511.7	
239.76	4706.2	
239.97	3188.7	
240.18	3216	
240.39	5713.8	
240.6	4979.3	
240.82	3332.7	
241.03	2775	
241.24	4768.4	
241.45	5398.4	
241.66	2979.1	
241.87	3528	
242.09	5388.2	
242.3	5612.1	
242.51	3519.1	
242.72	3211.2	
242.93	5120.6	
243.14	4770.4	
243.36	3686.3	
243.57	3908.9	
243.78	5359.5	
243.99	4987.5	
244.2	3214.6	
244.41	2922.5	
244.63	4430.4	
244.84	4984.1	
245.05	3465.8	
245.26	3197.6	
245.47	5039.4	
245.68	5148.6	
245.9	4143	
246.11	3376.4	
246.32	4680.3	
246.53	4955.4	
246.74	5034.6	
246.95	2771.6	
247.16	4420.2	
247.38	4853	
247.59	2788.7	
247.8	3263.8	
248.01	4489.8	
248.22	4754	
248.43	2983.9	
248.64	3179.1	
248.86	4379.9	
249.07	4621.6	
249.28	2930.6	
249.49	3306.1	
249.7	5180	
249.91	5250.3	
250.12	2750.4	
250.34	2826.9	
250.55	4893.3	
250.76	4856.4	
250.97	3311.6	
251.18	3328.6	
251.39	5232.6	
251.6	4925.4	
251.81	3419.4	
252.03	3374.4	
252.24	4599.7	
252.45	5089.9	
252.66	2857.6	
252.87	3493.2	
253.08	4799.8	
253.29	5942.5	
253.5	2899.2	
253.72	3834.5	
253.93	4713.1	
254.14	5524.1	
254.35	3104.7	
254.56	3190.7	
254.77	4938.3	
254.98	4474.1	
255.19	3127.9	
255.41	3852.2	
255.62	4929.5	
255.83	5276.3	
256.04	3386.7	
256.25	3328.6	
256.46	5700.9	
256.67	4555.4	
256.88	3338.9	
257.09	3639.2	
257.31	4453.6	
257.52	4514.4	
257.73	4100.7	
257.94	3108.8	
258.15	4736.3	
258.36	4775.9	
258.57	3799.7	
258.78	2536.1	
258.99	5182.7	
259.2	4626.4	
259.41	3032.4	
259.63	3162.1	
259.84	5402.5	
260.05	5679	
260.26	3917.1	
260.47	3024.2	
260.68	5250.3	
260.89	4717.2	
261.1	3666.5	
261.31	2965.5	
261.52	5294	
261.73	5567.7	
261.95	3892.5	
262.16	3487.7	
262.37	5313.8	
262.58	5358.2	
262.79	3916.4	
263	3140.2	
263.21	4812	
263.42	4640.7	
263.63	3379.1	
263.84	3099.9	
264.05	5171.1	
264.26	5513.1	
264.47	3822.9	
264.69	3299.3	
264.9	5357.5	
265.11	4936.3	
265.32	3007.1	
265.53	3074	
265.74	4891.2	
265.95	4321.2	
266.16	3283.6	
266.37	3648.1	
266.58	4911	
266.79	4569.7	
267	3076	
267.21	2867.2	
267.42	4448.2	
267.63	4743.8	
267.84	3214.6	
268.06	2809.8	
268.27	5149.3	
268.48	5296	
268.69	3166.8	
268.9	3650.2	
269.11	5312.4	
269.32	4362.2	
269.53	3212.6	
269.74	2998.9	
269.95	4932.2	
270.16	4309.6	
270.37	3284.3	
270.58	3724.6	
270.79	4666	
271	5233.2	
271.21	3441.3	
271.42	3299.3	
271.63	4979.3	
271.84	4503.5	
272.05	2653.5	
272.26	2963.4	
272.47	4815.5	
272.68	4945.8	
272.89	3169.6	
273.11	3568.2	
273.32	4618.9	
273.53	5480.4	
273.74	3437.9	
273.95	3352.5	
274.16	5174.5	
274.37	4800.4	
274.58	3517.7	
274.79	2888.3	
275	4891.2	
275.21	5229.1	
275.42	4149.2	
275.63	3584.6	
275.84	5018.9	
276.05	6077	
276.26	3372.3	
276.47	3176.4	
276.68	4739	
276.89	5570.5	
277.1	3551.2	
277.31	2855.6	
277.52	4992.3	
277.73	5260.5	
277.94	2801.6	
278.15	3076.7	
278.36	4928.1	
278.57	4508.3	
278.78	3105.4	
278.99	3411.9	
279.2	4563.6	
279.41	4463.2	
279.62	4037.9	
279.83	2923.1	
280.04	5763	
280.25	4445.5	
280.46	3964.9	
280.67	3233.7	
280.88	4513.7	
281.09	5257.8	
281.3	3396.9	
281.51	4171.7	
281.72	4580.6	
281.93	5150	
282.14	3048.7	
282.35	3251.5	
282.56	5189.6	
282.77	5147.2	
282.98	3186.6	
283.19	3673.4	
283.4	6122.7	
283.61	4702.1	
283.82	2926.5	
284.03	3884.3	
284.24	4900.1	
284.45	5246.2	
284.66	3945.1	
284.87	3731.4	
285.08	5263.3	
285.29	5343.8	
285.5	2843.3	
285.71	3213.9	
285.92	5231.2	
286.12	5738.4	
286.33	3917.8	
286.54	3202.3	
286.75	5172.5	
286.96	4677.6	
287.17	2968.9	
287.38	3812	
287.59	4584	
287.8	4556.7	
288.01	3183.2	
288.22	3526.6	
288.43	5061.2	
288.64	4338.3	
288.85	3723.2	
289.06	3529.3	
289.27	5128.1	
289.48	5442.1	
289.69	3936.2	
289.9	3579.2	
290.11	5268.1	
290.32	4644.8	
290.53	3710.9	
290.74	3450.1	
290.94	5135.6	
291.15	5108.3	
291.36	3038.5	
291.57	3607.2	
291.78	4650.3	
291.99	4330.1	
292.2	3011.2	
292.41	3491.1	
292.62	5219.6	
292.83	5053.7	
293.04	4201.1	
293.25	3039.9	
293.46	4678.2	
293.67	5255.8	
293.88	3011.2	
294.09	2956.6	
294.29	4459.1	
294.5	4909	
294.71	3306.8	
294.92	3104.7	
295.13	4603.8	
295.34	5702.2	
295.55	2792.1	
295.76	2744.3	
295.97	5151.3	
296.18	5541.8	
296.39	2908.8	
296.6	3078.8	
296.81	4855.7	
297.01	5149.3	
297.22	3167.5	
297.43	3078.1	
297.64	4579.3	
297.85	4488.5	
298.06	2591.4	
298.27	2796.2	
298.48	4759.5	
298.69	4528.1	
298.9	3276.1	
299.11	3059.7	
299.31	4458.4	
299.52	4446.1	
299.73	3513.6	
299.94	3419.4	
300.15	4835.9	
300.36	4570.4	
300.57	3420.1	
300.78	3451.5	
300.99	4663.2	
301.2	4819.6	
301.4	3061.7	
301.61	3265.1	
301.82	5091.9	
302.03	5132.9	
302.24	3614	
302.45	2873.3	
302.66	5063.3	
302.87	5300.1	
303.08	3027.6	
303.29	4032.5	
303.49	4686.4	
303.7	4814.8	
303.91	2752.5	
304.12	3904.8	
304.33	4344.4	
304.54	4956.8	
304.75	3079.5	
304.96	2895.1	
305.16	5063.9	
305.37	5608.7	
305.58	2729.9	
305.79	2823.5	
306	5076.2	
306.21	4362.2	
306.42	3026.9	
306.63	4486.4	
306.83	4678.2	
307.04	5210.7	
307.25	3330	
307.46	3318.4	
307.67	4232.5	
307.88	5076.9	
308.09	3080.8	
308.29	3090.4	
308.5	4891.2	
308.71	5241.4	
308.92	3260.4	
309.13	2966.8	
309.34	4736.3	
309.55	4735.6	
309.75	3725.9	
309.96	3431	
310.17	5081.7	
310.38	4528.1	
310.59	3537.5	
310.8	2925.9	
311.01	4666	
311.21	4734.9	
311.42	2964.1	
311.63	3007.8	
311.84	4636.6	
312.05	4857.8	
312.26	3352.5	
312.46	3620.1	
312.67	4668.7	
312.88	4431.1	
313.09	2965.5	
313.3	2891.7	
313.51	5428.5	
313.71	5631.2	
313.92	2940.2	
314.13	3093.8	
314.34	4954.7	
314.55	4784.7	
314.76	3757.3	
314.96	3261	
315.17	4971.8	
315.38	5111	
315.59	3025.5	
315.8	2887.6	
316.01	5390.9	
316.21	5498.8	
316.42	2914.9	
316.63	3264.5	
316.84	4655	
317.05	5270.8	
317.26	3478.8	
317.46	3110.9	
317.67	4716.5	
317.88	5040.7	
318.09	3707.5	
318.3	2742.2	
318.5	4579.3	
318.71	5010.7	
318.92	4556.7	
319.13	3443.3	
319.34	5192.3	
319.54	5316.5	
319.75	2775.7	
319.96	2689.7	
320.17	5029.1	
320.38	5244.8	
320.58	2762.7	
320.79	3196.9	
321	5252.4	
321.21	5297.4	
321.42	3297.2	
321.62	2735.4	
321.83	4453	
322.04	4778.6	
322.25	3175	
322.46	3001	
322.66	4865.3	
322.87	5011.4	
323.08	3639.9	
323.29	2921.1	
323.5	5636.7	
323.7	4436.6	
323.91	3911.6	
324.12	3528.7	
324.33	4837.3	
324.53	5012.7	
324.74	3386.7	
324.95	3575.1	
325.16	4382	
325.37	4640	
325.57	2983.9	
325.78	3057.6	
325.99	4909.7	
326.2	4411.3	
326.4	4049.5	
326.61	2768.2	
326.82	4730.8	
327.03	4901.5	
327.24	4023.6	
327.44	3846.8	
327.65	5058.5	
327.86	4133.5	
328.07	3422.8	
328.27	2891.7	
328.48	5367.7	
328.69	4493.2	
328.9	4127.3	
329.1	3153.2	
329.31	4741	
329.52	5391.6	
329.73	2983.2	
329.93	3349.1	
330.14	4837.3	
330.35	4939.7	
330.56	4663.2	
330.76	3616.7	
330.97	4686.4	
331.18	4887.8	
331.39	3268.6	
331.59	2698.5	
331.8	5204.6	
332.01	5341.1	
332.22	3054.9	
332.42	3368.2	
332.63	4954.7	
332.84	4472.8	
333.05	3310.2	
333.25	3021.4	
333.46	4595	
333.67	4785.4	
333.88	3115.6	
334.08	3360.7	
334.29	6176	
334.5	5298.1	
334.7	2912.2	
334.91	4057.7	
335.12	4432.5	
335.33	5109.7	
335.53	3284.9	
335.74	4665.3	
335.95	4673.5	
336.16	4440	
336.36	3421.5	
336.57	3687	
336.78	4422.2	
336.98	5228.5	
337.19	3923.9	
337.4	3177.8	
337.61	5707	
337.81	4417.5	
338.02	3055.6	
338.23	3716.4	
338.43	5333.6	
338.64	4585.4	
338.85	3044.6	
339.05	3850.9	
339.26	5469.4	
339.47	4355.3	
339.68	3005.1	
339.88	4234.5	
340.09	5067.4	
340.3	5154.7	
340.5	3433.1	
340.71	2719	
340.92	4463.9	
341.13	5311.7	
341.33	2884.9	
341.54	3476.1	
341.75	4950.6	
341.95	4666.6	
342.16	3327.9	
342.37	3547.8	
342.57	4471.4	
342.78	4759.5	
342.99	3613.3	
343.19	2677.4	
343.4	5131.5	
343.61	4945.8	
343.81	3196.9	
344.02	2886.3	
344.23	5117.9	
344.43	5406.6	
344.64	3634.5	
344.85	3551.2	
345.06	4984.1	
345.26	5218.2	
345.47	3397.6	
345.68	3930.1	
345.88	4387.4	
346.09	5210.7	
346.3	3482.2	
346.5	2657.6	
346.71	4770.4	
346.92	4595.6	
347.12	2837.8	
347.33	3410.6	
347.54	5237.3	
347.74	5495.4	
347.95	3416.7	
348.16	2619.4	
348.36	4608.6	
348.57	4502.1	
348.78	3400.3	
348.98	3620.1	
349.19	4692.6	
349.39	4350.6	
349.6	2753.8	
349.81	2975.7	
350.01	4979.3	
350.22	4552.6	
350.43	3318.4	
350.63	3854.3	
350.84	4781.3	
351.05	4533.5	
351.25	2990	
351.46	2756.6	
351.67	5169.1	
351.87	4489.1	
352.08	3194.1	
352.29	3571	
352.49	5085.1	
352.7	5199.8	
352.9	2912.2	
353.11	3553.2	
353.32	5595.7	
353.52	4603.8	
353.73	2876	
353.94	3636.5	
354.14	5055.8	
354.35	4833.9	
354.55	2982.5	
354.76	3254.2	
354.97	5017.5	
355.17	4764.3	
355.38	2880.1	
355.59	3786.7	
355.79	4571.7	
356	4807.9	
356.2	3261.7	
356.41	2954.5	
356.62	4395.6	
356.82	4800.4	
357.03	3509.5	
357.24	3149.8	
357.44	4508.3	
357.65	4646.2	
357.85	4110.3	
358.06	3259	
358.27	4340.3	
358.47	4536.9	
358.68	2848	
358.88	3467.2	
359.09	4941.1	
359.3	5173.2	
359.5	3995.6	
359.71	3499.3	
359.91	5569.8	
360.12	5002.5	
360.33	3458.3	
360.53	3807.2	
360.74	4588.1	
360.94	4588.1	
361.15	3610.6	
361.36	2983.9	
361.56	5128.1	
361.77	4743.8	
361.97	3895.2	
362.18	3192.8	
362.38	5180.7	
362.59	4461.2	
362.8	3050.8	
363	2856.2	
363.21	4304.1	
363.41	4805.9	
363.62	3334.1	
363.83	4077.5	
364.03	4923.3	
364.24	5546.6	
364.44	4161.5	
364.65	4165.6	
364.85	4714.4	
365.06	4457.7	
365.27	3067.9	
365.47	3179.1	
365.68	5423.7	
365.88	4708.3	
366.09	3501.3	
366.29	3097.9	
366.5	4801.1	
366.71	5194.3	
366.91	4184	
367.12	3560.1	
367.32	5691.3	
367.53	5094.7	
367.73	3536.8	
367.94	4198.3	
368.14	5094	
368.35	5625.8	
368.56	3463.1	
368.76	3006.4	
368.97	5154.7	
369.17	6294.8	
369.38	3110.2	
369.58	3327.3	
369.79	4351.3	
369.99	5444.9	
370.2	4094.6	
370.4	3390.1	
370.61	4940.4	
370.82	5870.2	
371.02	3341.6	
371.23	2784.6	
371.43	4385.4	
371.64	5378	
371.84	3336.1	
372.05	4189.5	
372.25	6290.7	
372.46	5040.7	
372.66	3381.9	
372.87	3324.5	
373.07	5119.2	
373.28	6379.4	
373.48	4067.3	
373.69	3866.6	
373.9	4770.4	
374.1	4814.8	
374.31	4014	
374.51	3620.1	
374.72	5375.2	
374.92	4596.3	
375.13	4201.7	
375.33	3522.5	
375.54	5045.5	
375.74	4702.1	
375.95	3651.5	
376.15	4508.9	
376.36	5069.4	
376.56	4993.6	
376.77	3667.9	
376.97	3962.8	
377.18	5982.1	
377.38	5210	
377.59	4192.9	
377.79	3286.3	
378	4928.1	
378.2	5296.7	
378.41	3351.2	
378.61	3247.4	
378.82	5401.9	
379.02	4763.6	
379.23	3437.9	
379.43	4214.7	
379.64	5488.6	
379.84	5076.9	
380.05	3342.3	
380.25	3283.6	
380.46	5180	
380.66	4835.3	
380.87	4289.8	
381.07	4535.6	
381.28	5710.4	
381.48	5146.5	
381.69	3321.1	
381.89	3426.9	
382.1	4470.7	
382.3	5309.7	
382.51	4202.4	
382.71	4857.8	
382.91	5190.9	
383.12	5544.5	
383.32	3549.1	
383.53	3751.2	
383.73	5063.9	
383.94	4915.8	
384.14	3749.8	
384.35	3071.3	
384.55	4833.9	
384.76	5112.4	
384.96	3635.8	
385.17	3881.6	
385.37	5180	
385.58	4632.5	
385.78	3841.3	
385.98	3011.9	
386.19	4797.7	
386.39	5124.7	
386.6	3417.4	
386.8	3609.9	
387.01	5159.5	
387.21	5274.2	
387.42	3893.2	
387.62	4279.6	
387.83	4737	
388.03	5010.7	
388.23	3716.4	
388.44	4130.8	
388.64	4456.4	
388.85	4485.1	
389.05	3874.8	
389.26	4331.5	
389.46	6042.2	
389.67	5532.9	
389.87	3816	
390.07	3975.8	
390.28	4952.7	
390.48	4603.2	
390.69	3334.8	
390.89	3510.9	
391.1	4773.1	
391.3	5437.4	
391.5	4440.7	
391.71	4851.6	
391.91	5282.4	
392.12	5926.8	
392.32	4508.3	
392.53	3922.5	
392.73	4815.5	
392.93	4981.3	
393.14	3674.1	
393.34	4263.9	
393.55	5278.3	
393.75	4890.5	
393.95	3668.6	
394.16	3601	
394.36	4839.4	
394.57	5205.9	
394.77	3331.4	
394.98	3558.7	
395.18	4733.5	
395.38	4775.2	
395.59	4258.4	
395.79	3414	
396	4868.7	
396.2	5258.5	
396.4	4063.2	
396.61	3986.7	
396.81	5291.3	
397.02	4746.5	
397.22	4263.2	
397.42	4313	
397.63	5337.7	
397.83	4717.2	
398.04	3401.7	
398.24	3747.8	
398.44	5113.8	
398.65	4386.1	
398.85	3346.4	
399.05	3416	
399.26	4754.7	
399.46	6034.7	
399.67	3682.2	
399.87	3479.5	
400.07	5079	
400.28	5208.7	
400.48	3536.2	
400.69	4269.3	
400.89	5739.8	
401.09	5821.7	
401.3	3518.4	
401.5	4319.8	
401.7	5859.9	
401.91	6118.6	
402.11	3814.7	
402.32	3922.5	
402.52	5482.4	
402.72	5356.1	
402.93	4149.2	
403.13	3248.8	
403.33	6119.3	
403.54	5010	
403.74	3855.6	
403.94	4444.1	
404.15	5119.2	
404.35	5982.1	
404.56	3668.6	
404.76	4982	
404.96	5445.5	
405.17	5231.2	
405.37	4558.8	
405.57	4033.8	
405.78	5433.3	
405.98	5061.2	
406.18	3745.7	
406.39	4384	
406.59	5425.8	
406.79	5121.3	
407	3552.5	
407.2	3621.5	
407.4	5516.5	
407.61	5575.9	
407.81	3579.8	
408.01	4808.6	
408.22	4560.8	
408.42	6057.9	
408.62	4437.3	
408.83	3953.9	
409.03	5085.8	
409.23	5053	
409.44	4038.6	
409.64	4166.3	
409.84	5819	
410.05	5812.1	
410.25	4205.2	
410.45	3997	
410.66	5414.8	
410.86	7215	
411.06	4317.8	
411.27	4315.1	
411.47	7086	
411.67	5556.1	
411.88	4359.4	
412.08	4572.4	
412.28	5954.8	
412.49	6343.9	
412.69	4204.5	
412.89	4261.1	
413.09	6303.6	
413.3	6130.9	
413.5	4328	
413.7	4083.6	
413.91	5572.5	
414.11	6232.7	
414.31	4194.9	
414.52	4536.3	
414.72	6006	
414.92	5928.2	
415.12	4165.6	
415.33	4655	
415.53	6162.3	
415.73	6333.7	
415.94	4863.9	
416.14	4358.8	
416.34	5500.8	
416.55	5340.4	
416.75	5371.1	
416.95	4949.3	
417.15	6278.4	
417.36	6744	
417.56	5544.5	
417.76	4807.9	
417.97	6500.9	
418.17	6287.9	
418.37	4560.8	
418.57	4494.6	
418.78	6176.7	
418.98	5823.1	
419.18	5161.6	
419.38	5102.9	
419.59	5864	
419.79	5620.3	
419.99	4405.9	
420.2	4712.4	
420.4	6259.3	
420.6	6419.7	
420.8	4320.5	
421.01	4292.5	
421.21	6180.1	
421.41	6206	
421.61	4627	
421.82	4470.7	
422.02	5840.8	
422.22	6490	
422.42	4995	
422.63	4817.5	
422.83	5891.3	
423.03	6766.5	
423.23	4821.6	
423.44	3989.4	
423.64	5951.4	
423.84	5644.2	
424.04	4442.7	
424.25	4130.8	
424.45	6672.3	
424.65	6541.9	
424.85	4008.6	
425.06	4389.5	
425.26	6697.5	
425.46	5799.8	
425.66	4845.5	
425.87	4535.6	
426.07	6351.4	
426.27	6262	
426.47	4661.2	
426.67	4175.8	
426.88	6713.9	
427.08	6279.8	
427.28	4818.2	
427.48	4160.8	
427.69	5425.1	
427.89	5946.6	
428.09	4793.6	
428.29	4218.1	
428.5	6412.9	
428.7	6026.5	
428.9	4093.9	
429.1	4448.9	
429.3	6052.4	
429.51	6255.2	
429.71	4346.5	
429.91	4924.7	
430.11	6290.7	
430.31	6419.7	
430.52	4607.9	
430.72	4746.5	
430.92	6701.6	
431.12	6272.2	
431.32	4308.9	
431.53	4681	
431.73	5477	
431.93	6686.6	
432.13	4276.2	
432.33	4141	
432.54	5865.4	
432.74	6049	
432.94	4130.1	
433.14	4932.9	
433.34	6287.3	
433.55	5886.5	
433.75	4854.4	
433.95	6165.1	
434.15	6099.5	
434.35	5842.2	
434.56	4303.5	
434.76	3919.8	
434.96	6016.9	
435.16	6225.1	
435.36	4177.9	
435.56	5059.2	
435.77	5846.3	
435.97	6014.2	
436.17	5537.7	
436.37	4924.7	
436.57	5782.8	
436.78	5807.4	
436.98	4940.4	
437.18	5451.7	
437.38	6223.1	
437.58	5984.2	
437.78	5563.6	
437.99	4546.5	
438.19	6448.4	
438.39	6999.3	
438.59	4515.1	
438.79	4171	
438.99	6873	
439.2	5923.4	
439.4	4190.1	
439.6	4164.9	
439.8	6101.6	
440	6923.5	
440.2	4908.3	
440.4	4978.6	
440.61	6449.7	
440.81	6832.7	
441.01	4384	
441.21	5138.4	
441.41	6793.1	
441.61	6488.6	
441.81	5264	
442.02	6021.7	
442.22	7173.4	
442.42	6679.8	
442.62	4450.9	
442.82	4507.6	
443.02	6860	
443.22	6223.1	
443.43	4827.1	
443.63	4373.1	
443.83	6049	
444.03	6053.8	
444.23	5334.3	
444.43	5089.9	
444.63	6378.1	
444.83	7143.3	
445.04	4584.7	
445.24	5588.2	
445.44	6627.9	
445.64	6659.3	
445.84	5205.9	
446.04	5167.7	
446.24	6093.4	
446.44	6888.7	
446.65	4545.1	
446.85	4875.5	
447.05	6386.2	
447.25	6881.2	
447.45	4885.1	
447.65	4401.1	
447.85	6462.7	
448.05	5990.3	
448.25	5184.1	
448.46	5052.3	
448.66	6366.5	
448.86	6092	
449.06	4388.8	
449.26	5201.8	
449.46	6622.4	
449.66	5906.3	
449.86	4777.2	
450.06	4878.9	
450.26	6051.1	
450.47	6476.4	
450.67	5040.1	
450.87	5198.4	
451.07	6628.6	
451.27	6427.2	
451.47	4520.5	
451.67	4915.8	
451.87	6151.4	
452.07	7093.5	
452.27	4757.4	
452.47	4683	
452.67	6464.8	
452.88	6731.7	
453.08	4307.6	
453.28	5713.8	
453.48	7290.1	
453.68	6340.5	
453.88	4616.1	
454.08	4812.7	
454.28	6701.6	
454.48	6426.5	
454.68	5199.8	
454.88	5606	
455.08	6748.1	
455.28	6470.9	
455.48	4558.1	
455.68	5000.5	
455.89	7127.6	
456.09	6823.8	
456.29	4838	
456.49	4872.1	
456.69	7094.2	
456.89	6588.3	
457.09	5173.9	
457.29	5560.9	
457.49	6738.5	
457.69	6769.2	
457.89	5160.9	
458.09	4708.3	
458.29	6530.3	
458.49	7118.7	
458.69	5410.7	
458.89	5029.8	
459.09	7299.6	
459.29	7364.5	
459.49	5106.3	
459.69	5707.7	
459.9	6976.7	
460.1	6565.1	
460.3	5008	
460.5	4854.4	
460.7	6979.5	
460.9	6570.6	
461.1	4607.9	
461.3	5530.9	
461.5	7405.5	
461.7	7075	
461.9	4926	
462.1	5223.7	
462.3	6705	
462.5	7131.7	
462.7	4972.5	
462.9	4988.2	
463.1	7962.5	
463.3	7757	
463.5	5176.6	
463.7	5899.5	
463.9	6984.3	
464.1	7233.4	
464.3	5315.2	
464.5	5582.8	
464.7	7477.8	
464.9	7148.8	
465.1	6565.1	
465.3	5811.5	
465.5	7662.8	
465.7	7705.8	
465.9	6003.3	
466.1	5898.2	
466.3	7546.8	
466.5	7418.4	
466.7	6544.6	
466.9	5728.2	
467.1	7514.7	
467.3	8103.1	
467.5	6556.2	
467.7	5680.4	
467.9	8194.6	
468.1	8882.7	
468.3	6227.2	
468.5	6583.5	
468.7	7359.7	
468.9	7343.3	
469.1	5917.3	
469.3	6426.5	
469.5	8820.6	
469.7	7102.4	
469.9	6276.3	
470.1	5788.2	
470.3	7531.7	
470.5	7554.3	
470.7	6705	
470.9	5844.9	
471.1	7314	
471.3	7677.2	
471.5	5759.6	
471.69	7088.7	
471.89	7260	
472.09	6929.6	
472.29	6310.5	
472.49	6535.8	
472.69	6971.3	
472.89	7544	
473.09	5618.3	
473.29	5728.2	
473.49	7233.4	
473.69	7217.7	
473.89	6404	
474.09	5814.2	
474.29	8115.4	
474.49	7897.7	
474.69	6410.1	
474.89	5987.6	
475.09	7330.4	
475.29	7197.9	
475.49	5532.2	
475.69	5687.2	
475.88	8454	
476.08	7654.6	
476.28	5425.1	
476.48	5733.6	
476.68	7940	
476.88	7731.8	
477.08	5681.1	
477.28	5929.6	
477.48	7374.1	
477.68	7738.6	
477.88	5510.4	
478.08	5730.9	
478.28	7976.8	
478.48	7279.2	
478.67	5900.9	
478.87	5374.6	
479.07	7980.3	
479.27	7466.2	
479.47	6051.1	
479.67	6023.8	
479.87	7746.1	
480.07	8094.3	
480.27	5459.2	
480.47	6692.8	
480.67	7474.4	
480.87	8028	
481.06	5722	
481.26	6366.5	
481.46	7458	
481.66	7363.1	
481.86	6095.4	
482.06	6800.6	
482.26	7346.1	
482.46	8024.6	
482.66	6045.6	
482.86	5646.2	
483.05	7631.4	
483.25	7083.2	
483.45	7818.5	
483.65	5965.1	
483.85	7185.6	
484.05	7421.8	
484.25	6210.1	
484.45	6631.3	
484.65	8006.2	
484.84	8130.4	
485.04	5888.6	
485.24	5963.7	
485.44	8437.6	
485.64	7060	
485.84	5379.3	
486.04	6435.4	
486.24	7378.1	
486.44	7678.5	
486.63	5427.8	
486.83	6075	
487.03	7322.2	
487.23	7490.1	
487.43	5530.2	
487.63	7290.1	
487.83	7548.1	
488.02	8228.1	
488.22	6201.9	
488.42	6740.5	
488.62	8097.7	
488.82	7338.6	
489.02	6028.5	
489.22	6091.3	
489.41	8039.6	
489.61	7888.1	
489.81	5815.5	
490.01	5821.7	
490.21	8086.7	
490.41	8639	
490.61	5942.5	
490.8	5975.3	
491	7735.2	
491.2	7187	
491.4	6416.3	
491.6	5794.4	
491.8	7767.9	
491.99	7770.7	
492.19	5644.2	
492.39	5891.3	
492.59	8097	
492.79	8146.1	
492.99	6479.1	
493.18	5823.7	
493.38	8221.9	
493.58	8683.4	
493.78	6325.5	
493.98	6058.6	
494.18	7937.9	
494.37	7520.8	
494.57	6630	
494.77	6462	
494.97	8182.3	
495.17	8308.6	
495.37	6268.1	
495.56	6410.1	
495.76	8459.5	
495.96	8234.2	
496.16	7189.1	
496.36	6469.5	
496.55	8437.6	
496.75	8152.3	
496.95	6771.3	
497.15	6691.4	
497.35	8554.4	
497.54	8454	
497.74	6486.6	
497.94	7902.4	
498.14	8933.2	
498.34	8804.2	
498.53	6258.6	
498.73	6773.3	
498.93	7909.3	
499.13	8476.5	
499.33	6682.5	
499.52	7122.2	
499.72	8473.8	
499.92	8714.1	
500.12	6477.7	
500.32	6710.5	
500.51	8600.8	
500.71	8464.3	
500.91	7284.6	
501.11	6995.2	
501.31	8562.6	
501.5	8938	
501.7	7580.2	
501.9	6808.1	
502.1	8454	
502.29	8813.8	
502.49	7155.6	
502.69	7519.5	
502.89	8798.1	
503.09	8697.7	
503.28	6373.3	
503.48	6445.6	
503.68	8223.3	
503.88	8033.5	
504.07	7181.5	
504.27	6815	
504.47	8258.1	
504.67	8506.6	
504.86	7103.7	
505.06	6905.1	
505.26	8164.6	
505.46	9387.9	
505.65	6836.8	
505.85	6916	
506.05	8110	
506.25	8535.9	
506.44	6365.1	
506.64	6871.6	
506.84	8032.8	
507.04	8690.9	
507.23	6474.3	
507.43	6838.2	
507.63	9512.1	
507.83	8115.4	
508.02	6851.1	
508.22	6537.8	
508.42	9622	
508.62	8015.1	
508.81	6806.1	
509.01	7160.4	
509.21	7926.3	
509.4	8169.3	
509.6	6901	
509.8	6335.7	
510	8127	
510.19	9101.2	
510.39	6322.1	
510.59	6479.1	
510.79	7984.3	
510.98	9007.6	
511.18	6651.1	
511.38	6661.4	
511.57	8701.1	
511.77	8442.4	
511.97	7067.5	
512.17	6438.1	
512.36	8729.8	
512.56	8490.2	
512.76	6453.8	
512.95	6207.4	
513.15	8690.2	
513.35	7585	
513.55	7037.5	
513.74	6367.8	
513.94	8641.1	
514.14	8112	
514.33	7124.9	
514.53	6917.4	
514.73	8187.1	
514.92	8226	
515.12	6524.8	
515.32	6460	
515.51	8343.4	
515.71	8671.1	
515.91	7792.5	
516.11	6436.1	
516.3	9635	
516.5	8141.4	
516.7	6980.2	
516.89	7331.7	
517.09	8175.5	
517.29	8120.9	
517.48	7203.4	
517.68	6673	
517.88	7970.7	
518.07	8484.7	
518.27	7137.2	
518.47	6326.9	
518.66	8887.5	
518.86	7843	
519.06	6264.1	
519.25	6582.2	
519.45	8143.4	
519.65	9143.5	
519.84	7046.4	
520.04	7626.6	
520.24	9511.4	
520.43	8613.8	
520.63	6945.3	
520.83	6798.6	
521.02	7980.9	
521.22	8533.9	
521.42	7146	
521.61	7561.1	
521.81	8228.1	
522.01	8331.8	
522.2	6933.7	
522.4	6712.6	
522.6	8718.2	
522.79	7663.5	
522.99	6809.5	
523.18	6393.1	
523.38	8495	
523.58	8379.6	
523.77	7778.2	
523.97	6379.4	
524.17	9927.2	
524.36	9211.1	
524.56	7369.3	
524.76	7158.3	
524.95	8497.7	
525.15	8217.1	
525.34	7109.2	
525.54	7051.8	
525.74	8970.8	
525.93	8118.8	
526.13	8031.5	
526.33	7073	
526.52	9207	
526.72	8740.7	
526.91	8085.4	
527.11	7496.2	
527.31	9192.6	
527.5	9525.1	
527.7	7385	
527.89	6685.9	
528.09	8444.5	
528.29	8873.2	
528.48	7684	
528.68	7512.6	
528.87	9085.5	
529.07	9171.5	
529.27	7468.9	
529.46	7097.6	
529.66	9031.5	
529.85	9278	
530.05	7060	
530.25	7595.2	
530.44	10062	
530.64	8927.8	
530.83	7309.2	
531.03	7550.9	
531.23	9280.7	
531.42	9106	
531.62	8019.2	
531.81	7442.3	
532.01	9364	
532.21	9630.9	
532.4	7297.6	
532.6	7542	
532.79	10062	
532.99	9394	
533.18	7719.5	
533.38	8400.1	
533.58	9213.8	
533.77	9668.5	
533.97	7712.7	
534.16	8293.6	
534.36	9912.9	
534.55	9178.3	
534.75	8495	
534.95	7765.9	
535.14	9914.9	
535.34	9281.4	
535.53	7538.6	
535.73	9063.6	
535.92	10352	
536.12	9424.1	
536.31	7645.1	
536.51	8589.2	
536.71	9682.1	
536.9	9342.2	
537.1	7699	
537.29	7804.8	
537.49	9921.7	
537.68	9184.5	
537.88	8203.5	
538.07	7559.7	
538.27	9424.1	
538.46	10171	
538.66	7442.3	
538.86	7872.4	
539.05	9468.4	
539.25	9735.4	
539.44	8101.8	
539.64	7712	
539.83	9394.7	
540.03	10152	
540.22	7762.5	
540.42	7714.7	
540.61	9525.1	
540.81	9633	
541	8125.7	
541.2	8576.9	
541.39	9196.1	
541.59	9405	
541.78	8329.8	
541.98	7625.3	
542.18	8931.2	
542.37	8921.6	
542.57	7970.7	
542.76	8427.4	
542.96	9048.6	
543.15	9517.6	
543.35	8050.6	
543.54	7537.9	
543.74	9667.1	
543.93	9367.4	
544.13	7866.9	
544.32	8812.4	
544.52	9563.3	
544.71	9036.3	
544.91	7194.5	
545.1	8127	
545.3	8948.3	
545.49	9526.5	
545.69	7217	
545.88	7630	
546.08	10372	
546.27	9800.9	
546.47	8006.9	
546.66	7496.9	
546.86	9734	
547.05	10092	
547.24	7693.5	
547.44	7582.9	
547.63	8862.2	
547.83	9774.3	
548.02	7843	
548.22	8045.1	
548.41	8748.2	
548.61	9762	
548.8	7424.6	
549	7428	
549.19	9338.7	
549.39	9562.6	
549.58	7262.1	
549.78	7720.8	
549.97	9550.4	
550.17	9127.8	
550.36	8290.9	
550.55	9000.8	
550.75	9185.1	
550.94	9697.1	
551.14	7421.2	
551.33	7574.1	
551.53	8609	
551.72	9370.1	
551.92	7645.1	
552.11	7527.7	
552.31	9459.6	
552.5	9254.8	
552.69	8748.2	
552.89	7253.2	
553.08	9404.3	
553.28	8996.7	
553.47	7555	
553.67	8346.8	
553.86	9874.6	
554.06	8497	
554.25	6972.7	
554.44	7343.3	
554.64	10421	
554.83	9966.8	
555.03	7268.2	
555.22	7606.2	
555.42	9519.6	
555.61	9208.4	
555.8	7479.2	
556	7688.1	
556.19	8696.4	
556.39	9529.9	
556.58	7447.8	
556.78	7511.3	
556.97	9209.7	
557.16	8933.2	
557.36	8327.7	
557.55	7262.8	
557.75	8356.4	
557.94	9789.3	
558.13	7208.2	
558.33	7122.2	
558.52	9647.3	
558.72	8718.9	
558.91	7195.2	
559.1	7382.9	
559.3	8559.8	
559.49	8287.4	
559.69	6894.8	
559.88	7611.6	
560.07	9115.5	
560.27	9570.2	
560.46	7799.3	
560.66	7791.2	
560.85	9085.5	
561.04	8397.4	
561.24	7171.3	
561.43	7211.6	
561.63	8629.5	
561.82	8783.1	
562.01	8140.7	
562.21	7484.6	
562.4	9062.9	
562.59	9845.3	
562.79	7380.9	
562.98	7217.7	
563.18	9051.3	
563.37	10056	
563.56	7698.3	
563.76	7181.5	
563.95	8676.6	
564.14	8606.9	
564.34	7425.3	
564.53	7131.7	
564.73	9100.5	
564.92	9254.1	
565.11	7560.4	
565.31	6993.8	
565.5	9534.7	
565.69	8650.6	
565.89	7330.4	
566.08	7533.1	
566.27	9364.7	
566.47	9678	
566.66	7965.2	
566.85	6991.8	
567.05	9211.1	
567.24	8691.6	
567.44	7172.7	
567.63	8239.7	
567.82	9369.5	
568.02	9181	
568.21	7273.7	
568.4	7576.1	
568.6	9071.1	
568.79	8951	
568.98	7228.6	
569.18	7202.7	
569.37	9141.4	
569.56	10561	
569.76	7516	
569.95	8332.5	
570.14	9333.3	
570.34	9273.9	
570.53	7294.9	
570.72	7215.7	
570.91	9768.8	
571.11	9012.4	
571.3	7602.7	
571.49	8295	
571.69	9140.1	
571.88	8761.2	
572.07	7959.8	
572.27	7900.4	
572.46	8728.4	
572.65	9516.2	
572.85	7483.3	
573.04	7649.2	
573.23	9704.6	
573.43	9228.1	
573.62	7235.5	
573.81	7729.7	
574	9260.2	
574.2	8934.6	
574.39	7540.6	
574.58	7607.5	
574.78	9870.5	
574.97	9372.9	
575.16	7965.2	
575.36	8045.8	
575.55	9662.3	
575.74	9684.8	
575.93	7292.8	
576.13	8211	
576.32	9258.9	
576.51	9621.4	
576.71	7725.6	
576.9	8814.5	
577.09	9842.5	
577.28	9476.6	
577.48	7978.2	
577.67	7294.2	
577.86	9278	
578.05	9511.4	
578.25	7726.3	
578.44	7845.1	
578.63	9364	
578.83	10288	
579.02	7357.7	
579.21	8489.5	
579.4	9510.8	
579.6	9306.7	
579.79	7911.3	
579.98	9566.1	
580.17	9824.1	
580.37	9915.6	
580.56	7495.6	
580.75	8040.3	
580.94	9994.8	
581.14	10088	
581.33	8435.6	
581.52	7636.9	
581.71	9698.5	
581.91	10147	
582.1	7426.6	
582.29	7794.6	
582.48	9387.9	
582.68	9424.8	
582.87	8139.3	
583.06	7948.8	
583.25	9760.6	
583.45	9208.4	
583.64	8570.1	
583.83	8987.2	
584.02	9351.7	
584.21	9727.9	
584.41	8431.5	
584.6	7878.5	
584.79	9460.3	
584.98	9953.1	
585.18	7592.5	
585.37	7507.9	
585.56	9199.5	
585.75	9808.4	
585.94	7667.6	
586.14	8199.4	
586.33	10239	
586.52	9456.2	
586.71	8092.9	
586.91	7910.6	
587.1	8868.4	
587.29	9813.9	
587.48	7700.4	
587.67	7762.5	
587.87	9618.6	
588.06	9590	
588.25	8667.7	
588.44	8221.2	
588.63	9422.7	
588.83	9824.1	
589.02	7773.4	
589.21	7544.7	
589.4	9380.4	
589.59	9159.9	
589.78	7093.5	
589.98	7256	
590.17	8742.1	
590.36	9179.7	
590.55	6868.2	
590.74	7324.2	
590.94	10049	
591.13	8987.2	
591.32	7062.1	
591.51	6698.9	
591.7	9237	
591.89	8858.1	
592.09	6855.2	
592.28	7064.8	
592.47	8198.7	
592.66	9775.6	
592.85	6862.1	
593.05	7077.1	
593.24	8744.8	
593.43	9334	
593.62	7101.7	
593.81	7369.3	
594	8794.7	
594.19	8946.9	
594.39	6989	
594.58	7013.6	
594.77	9053.4	
594.96	9383.1	
595.15	6942.6	
595.34	7492.2	
595.54	9014.5	
595.73	8435.6	
595.92	6475	
596.11	7273.7	
596.3	9377	
596.49	8466.3	
596.68	7141.9	
596.88	7468.3	
597.07	9145.5	
597.26	8325.7	
597.45	6767.2	
597.64	7683.3	
597.83	8477.2	
598.02	8939.4	
598.22	6856.6	
598.41	7320.8	
598.6	8854.7	
598.79	8307.9	
598.98	6851.1	
599.17	7563.8	
599.36	8829.5	
599.55	9579.7	
599.74	8454.7	
599.94	8193.2	
600.13	9232.9	
600.32	8351.6	
600.51	6583.5	
600.7	6741.9	
600.89	9769.5	
601.08	9745.6	
601.27	6638.1	
601.47	7316	
601.66	9097.1	
601.85	9570.2	
602.04	7178.1	
602.23	7126.2	
602.42	8469	
602.61	8980.3	
602.8	6980.8	
602.99	6827.9	
603.18	8640.4	
603.37	8835.6	
603.57	7348.1	
603.76	7724.9	
603.95	9390.6	
604.14	8964	
604.33	6905.8	
604.52	7078.5	
604.71	8970.1	
604.9	8531.2	
605.09	7645.8	
605.28	7449.8	
605.47	9305.3	
605.66	8999.5	
605.86	7358.4	
606.05	6857.3	
606.24	9284.8	
606.43	8144.1	
606.62	7204.1	
606.81	7756.3	
607	9181.7	
607.19	8603.5	
607.38	6778.1	
607.57	6879.8	
607.76	8533.2	
607.95	7901.1	
608.14	7197.9	
608.33	7707.9	
608.52	8381	
608.72	9154.4	
608.91	6649.8	
609.1	6574	
609.29	8571.4	
609.48	8049.2	
609.67	7281.9	
609.86	6625.9	
610.05	8203.5	
610.24	8434.9	
610.43	6559.6	
610.62	6243.6	
610.81	9300.5	
611	9071.8	
611.19	6630	
611.38	7174.7	
611.57	8794	
611.76	9631.6	
611.95	6419	
612.14	6373.3	
612.33	8516.1	
612.52	8141.4	
612.71	6903.7	
612.9	6280.4	
613.09	7714	
613.28	9596.1	
613.47	6744	
613.66	7384.3	
613.85	8649.3	
614.04	8177.5	
614.24	6681.8	
614.43	6132.3	
614.62	8686.8	
614.81	8656.1	
615	7165.8	
615.19	7103.7	
615.38	8101.1	
615.57	8353.7	
615.76	7030	
615.95	7776.8	
616.14	8793.3	
616.33	8510	
616.52	7304.4	
616.71	7451.9	
616.9	8677.2	
617.09	8473.1	
617.28	6782.2	
617.47	7610.3	
617.66	8015.1	
617.85	8041	
618.04	7361.1	
618.22	7012.9	
618.41	8364.6	
618.6	9050.7	
618.79	7035.5	
618.98	6845.7	
619.17	9226.8	
619.36	7881.9	
619.55	6924.2	
619.74	6987.7	
619.93	8666.3	
620.12	8233.5	
620.31	7376.8	
620.5	7631.4	
620.69	9101.9	
620.88	9372.2	
621.07	8040.3	
621.26	7354.3	
621.45	8975.6	
621.64	8873.2	
621.83	7411.6	
622.02	6814.3	
622.21	9045.2	
622.4	8788.5	
622.59	7821.9	
622.78	7786.4	
622.97	8556.4	
623.16	9253.4	
623.35	7457.3	
623.54	6763.1	
623.72	8611.7	
623.91	8747.6	
624.1	7675.8	
624.29	6637.5	
624.48	9624.8	
624.67	9061.6	
624.86	7514.7	
625.05	6840.2	
625.24	9590.6	
625.43	8530.5	
625.62	8856.1	
625.81	7027.9	
626	9181	
626.19	8692.3	
626.38	7488.7	
626.56	7129.7	
626.75	8654	
626.94	9112.1	
627.13	7572.7	
627.32	6625.2	
627.51	9060.2	
627.7	9994.1	
627.89	6666.8	
628.08	7645.1	
628.27	8440.4	
628.46	8604.9	
628.65	6952.2	
628.83	6756.9	
629.02	8983.1	
629.21	8333.9	
629.4	7240.9	
629.59	7454.6	
629.78	8449.9	
629.97	9103.2	
630.16	7561.8	
630.35	7057.3	
630.54	9562	
630.72	9355.1	
630.91	7135.8	
631.1	7489.4	
631.29	8839	
631.48	8903.9	
631.67	7564.5	
631.86	7085.3	
632.05	8644.5	
632.24	8594.6	
632.42	6825.2	
632.61	7429.3	
632.8	8600.1	
632.99	8344.8	
633.18	7265.5	
633.37	7647.8	
633.56	8845.2	
633.75	8803.5	
633.93	7346.7	
634.12	7127.6	
634.31	9592.7	
634.5	9149.6	
634.69	7134.4	
634.88	7461.4	
635.07	8704.5	
635.25	9211.1	
635.44	7908.6	
635.63	7974.8	
635.82	8568	
636.01	8172.8	
636.2	7749.5	
636.39	7441.6	
636.57	9506	
636.76	9159.9	
636.95	7052.5	
637.14	8023.3	
637.33	9021.3	
637.52	9531.2	
637.7	6813.6	
637.89	7574.8	
638.08	8706.6	
638.27	9613.8	
638.46	7641	
638.65	7890.8	
638.83	9748.3	
639.02	8390.5	
639.21	7565.2	
639.4	7823.9	
639.59	8834.3	
639.78	8609.7	
639.96	6907.1	
640.15	6941.9	
640.34	8723	
640.53	8832.2	
640.72	6732.4	
640.91	7000	
641.09	8307.9	
641.28	9257.5	
641.47	7063.4	
641.66	7603.4	
641.85	8780.3	
642.03	8863.6	
642.22	7348.1	
642.41	7012.2	
642.6	8302.5	
642.79	7922.9	
642.97	6886	
643.16	7361.1	
643.35	8335.9	
643.54	8152.3	
643.73	6717.3	
643.91	7301	
644.1	8083.3	
644.29	8553.7	
644.48	6920.8	
644.67	6878.4	
644.85	8219.9	
645.04	8443.1	
645.23	6547.4	
645.42	6781.5	
645.6	8125.7	
645.79	8896.4	
645.98	6669.6	
646.17	5947.3	
646.36	7875.1	
646.54	8281.3	
646.73	7226.6	
646.92	6381.5	
647.11	7926.3	
647.29	8812.4	
647.48	6412.2	
647.67	6189.6	
647.86	9002.9	
648.05	8869.1	
648.23	6651.8	
648.42	7630.7	
648.61	8397.4	
648.8	8258.1	
648.98	6305	
649.17	6563.1	
649.36	7872.4	
649.55	7575.4	
649.73	6270.9	
649.92	6882.5	
650.11	7796.6	
650.3	8005.5	
650.48	6462.7	
650.67	6370.5	
650.86	8337.3	
651.05	7452.6	
651.23	6499.6	
651.42	6377.4	
651.61	7882.6	
651.79	7797.3	
651.98	6509.8	
652.17	6222.4	
652.36	8136.6	
652.54	7418.4	
652.73	6251.1	
652.92	6237.4	
653.11	8180.3	
653.29	8279.3	
653.48	5779.4	
653.67	6547.4	
653.85	8039	
654.04	8850	
654.23	6655.2	
654.42	6251.8	
654.6	7645.7	
654.79	8100.4	
654.98	5808.7	
655.16	6421.1	
655.35	7363.8	
655.54	7086	
655.73	5857.9	
655.91	5734.3	
656.1	7942	
656.29	6937.8	
656.47	5507	
656.66	6705.7	
656.85	7277.1	
657.03	7310.6	
657.22	5840.8	
657.41	5972.6	
657.59	7374.7	
657.78	7351.5	
657.97	5703.6	
658.16	6303.6	
658.34	8004.8	
658.53	8314.8	
658.72	6901.7	
658.9	7316.7	
659.09	7616.4	
659.28	7696.9	
659.46	6042.2	
659.65	6113.9	
659.84	7369.3	
660.02	7899	
660.21	6096.1	
660.4	5907	
660.58	8061.5	
660.77	7600.7	
660.96	6438.8	
661.14	5699.5	
661.33	8445.8	
661.52	8413.7	
661.7	5640.8	
661.89	8307.2	
662.08	7449.8	
662.26	7050.5	
662.45	5853.1	
662.64	5971.2	
662.82	7916.1	
663.01	7296.2	
663.2	5928.9	
663.38	6594.5	
663.57	7729	
663.75	7651.2	
663.94	6169.2	
664.13	7121.5	
664.31	7357.7	
664.5	7795.9	
664.69	6322.8	
664.87	6776.7	
665.06	7144	
665.25	7746.8	
665.43	7009.5	
665.62	7000.6	
665.8	7884.7	
665.99	7452.6	
666.18	6218.3	
666.36	6292.7	
666.55	7957.7	
666.74	7765.9	
666.92	5910.4	
667.11	7116.7	
667.29	7471.7	
667.48	7795.3	
667.67	6768.5	
667.85	6096.8	
668.04	7387.7	
668.22	7443	
668.41	6215.6	
668.6	6438.8	
668.78	7319.4	
668.97	7412.3	
669.15	6494.8	
669.34	5666	
669.53	7284.6	
669.71	7507.2	
669.9	5806.7	
670.08	6262.7	
670.27	7153.6	
670.46	7655.3	
670.64	6516	
670.83	6596.5	
671.01	7122.8	
671.2	7580.9	
671.38	5821	
671.57	5797.1	
671.76	8170.7	
671.94	8544.8	
672.13	5722	
672.31	6587.6	
672.5	7837.6	
672.69	7243.7	
672.87	5931.6	
673.06	6167.1	
673.24	7722.9	
673.43	7324.9	
673.61	6387.6	
673.8	6072.9	
673.98	7747.5	
674.17	7862.8	
674.36	6534.4	
674.54	6432.7	
674.73	7484.6	
674.91	7819.8	
675.1	6173.3	
675.28	5864	
675.47	7353.6	
675.65	7786.4	
675.84	6092.7	
676.03	6275	
676.21	7254.6	
676.4	6873	
676.58	6733.7	
676.77	6540.5	
676.95	8404.2	
677.14	7222.5	
677.32	5750	
677.51	5660.6	
677.69	7869.7	
677.88	7000.6	
678.06	5858.6	
678.25	5849	
678.44	7438.9	
678.62	7274.4	
678.81	5611.4	
678.99	6367.8	
679.18	8052.6	
679.36	7712	
679.55	6042.2	
679.73	6468.9	
679.92	7659.4	
680.1	7290.1	
680.29	7038.2	
680.47	6038.1	
680.66	7267.6	
680.84	7824.6	
681.03	5521.3	
681.21	6434.7	
681.4	7197.9	
681.58	7109.2	
681.77	5862	
681.95	5861.3	
682.14	7873.1	
682.32	8120.2	
682.51	6593.1	
682.69	5611.4	
682.88	7226.6	
683.06	7560.4	
683.25	6289.3	
683.43	6631.3	
683.62	7428	
683.8	7714.7	
683.99	6773.3	
684.17	6186.9	
684.36	8387.8	
684.54	7353.6	
684.73	5649.7	
684.91	5789.6	
685.1	7630.7	
685.28	7069.6	
685.46	6094.8	
685.65	6135	
685.83	7574.8	
686.02	7090.1	
686.2	5604.6	
686.39	5666.7	
686.57	6718.7	
686.76	7877.9	
686.94	5601.2	
687.13	5723.4	
687.31	7374.1	
687.5	7105.1	
687.68	5337	
687.86	6196.5	
688.05	8430.1	
688.23	6695.5	
688.42	6275	
688.6	5639.4	
688.79	7051.2	
688.97	7043.6	
689.16	6012.2	
689.34	5256.5	
689.52	7506.5	
689.71	7817.8	
689.89	6255.9	
690.08	5783.5	
690.26	7273.7	
690.45	7247.8	
690.63	6367.8	
690.81	5957.5	
691	7243	
691.18	7202.7	
691.37	6051.1	
691.55	7588.4	
691.74	7100.3	
691.92	8635.6	
692.1	6003.3	
692.29	5573.9	
692.47	7216.4	
692.66	6709.1	
692.84	5634	
693.02	6130.9	
693.21	6821.8	
693.39	7167.9	
693.58	6167.8	
693.76	5705	
693.94	7903.8	
694.13	7863.5	
694.31	5757.5	
694.5	6542.6	
694.68	6954.2	
694.86	7296.2	
695.05	6001.9	
695.23	6124.1	
695.42	7604.1	
695.6	9424.1	
695.78	6586.3	
695.97	5951.4	
696.15	7761.8	
696.34	7226.6	
696.52	5685.8	
696.7	6411.5	
696.89	7595.2	
697.07	7048.4	
697.25	6245.6	
697.44	7329.7	
697.62	7505.1	
697.81	7609.6	
697.99	6033.3	
698.17	6378.1	
698.36	7032.7	
698.54	7473.7	
698.72	6303	
698.91	5517.2	
699.09	7185	
699.28	7047.1	
699.46	6014.9	
699.64	5870.8	
699.83	6956.9	
700.01	7789.8	
700.19	6448.4	
700.38	5294.7	
700.56	7865.6	
700.74	7021.8	
700.93	5623	
701.11	6219	
701.29	7436.2	
701.48	8301.8	
701.66	5771.2	
701.84	5883.1	
702.03	7182.2	
702.21	7625.3	
702.39	5464.7	
702.58	5990.3	
702.76	7518.8	
702.94	7528.3	
703.13	5595.7	
703.31	7370.6	
703.49	7052.5	
703.68	8069	
703.86	5664.7	
704.04	6396.5	
704.23	7365.2	
704.41	7633.5	
704.59	5750.7	
704.78	6667.5	
704.96	8612.4	
705.14	7630	
705.33	5659.9	
705.51	6169.8	
705.69	7185	
705.87	7944.1	
706.06	6388.3	
706.24	5565	
706.42	7415	
706.61	7674.4	
706.79	6382.8	
706.97	5524.7	
707.16	7070.3	
707.34	7484	
707.52	6375.3	
707.7	5684.5	
707.89	7103.7	
708.07	6813.6	
708.25	6423.1	
708.44	6485.9	
708.62	6972.7	
708.8	7906.5	
708.98	6603.3	
709.17	5831.2	
709.35	7386.3	
709.53	7357.7	
709.72	5552.7	
709.9	5938.4	
710.08	7651.9	
710.26	7560.4	
710.45	6692.8	
710.63	5754.8	
710.81	7189.1	
710.99	7295.5	
711.18	6221.7	
711.36	5809.4	
711.54	7116.7	
711.72	7657.4	
711.91	5883.8	
712.09	5446.2	
712.27	7186.3	
712.45	7594.6	
712.64	6017.6	
712.82	5276.9	
713	6797.9	
713.18	6926.2	
713.37	5429.2	
713.55	6260	
713.73	7490.1	
713.91	6521.4	
714.1	5597.8	
714.28	5165	
714.46	7186.3	
714.64	6631.3	
714.83	4758.1	
715.01	5295.4	
715.19	6553.5	
715.37	5958.2	
715.55	4868	
715.74	5128.1	
715.92	7052.5	
716.1	5535.7	
716.28	5948	
716.47	5187.5	
716.65	6121.4	
716.83	6152.1	
717.01	4964.3	
717.19	5036.6	
717.38	7696.3	
717.56	5870.2	
717.74	5125.4	
717.92	4483	
718.1	6791.1	
718.29	6122.7	
718.47	4164.2	
718.65	4724.7	
718.83	6690.7	
719.01	6681.2	
719.2	4304.1	
719.38	5134.3	
719.56	6499.6	
719.74	7656.7	
719.92	4877.6	
720.11	5634	
720.29	6675.7	
720.47	6015.6	
720.65	4542.4	
720.83	5151.3	
721.02	6229.2	
721.2	5918.6	
721.38	5072.1	
721.56	4493.2	
721.74	5490.6	
721.92	5590.3	
722.11	5406	
722.29	5225.7	
722.47	6576	
722.65	5931.6	
722.83	4506.9	
723.01	5158.2	
723.2	5911.1	
723.38	6266.8	
723.56	4044.1	
723.74	4909.7	
723.92	5606.7	
724.1	6503	
724.29	4417.5	
724.47	5276.3	
724.65	5781.4	
724.83	5578	
725.01	4278.9	
725.19	4902.8	
725.37	5571.2	
725.56	5591.6	
725.74	4207.9	
725.92	4384.7	
726.1	5566.4	
726.28	5849	
726.46	4687.8	
726.64	4461.8	
726.83	5870.2	
727.01	5913.2	
727.19	4116.4	
727.37	4723.3	
727.55	5825.8	
727.73	6247	
727.91	4070.7	
728.09	3956	
728.28	6288.6	
728.46	6523.5	
728.64	4838.7	
728.82	4782	
729	7043.6	
729.18	6401.3	
729.36	4192.9	
729.54	5919.3	
729.72	7230.7	
729.91	5849	
730.09	5631.9	
730.27	4735.6	
730.45	5915.2	
730.63	6301.6	
730.81	5152.7	
730.99	4422.2	
731.17	6732.4	
731.35	5684.5	
731.53	4856.4	
731.71	4556	
731.9	6504.3	
732.08	6617	
732.26	4763.6	
732.44	4425.7	
732.62	6589	
732.8	6239.5	
732.98	5031.9	
733.16	4329.4	
733.34	6281.1	
733.52	5253	
733.7	4643.4	
733.88	4769.7	
734.07	6017.6	
734.25	5818.3	
734.43	4268	
734.61	5341.8	
734.79	7098.3	
734.97	5782.1	
735.15	4287.8	
735.33	4521.2	
735.51	6096.1	
735.69	5789.6	
735.87	5349.3	
736.05	4683.7	
736.23	5896.8	
736.41	5678.3	
736.59	4534.9	
736.77	4595.6	
736.95	6196.5	
737.13	5713.2	
737.32	4237.2	
737.5	4427.7	
737.68	6693.4	
737.86	5674.2	
738.04	4183.3	
738.22	5530.9	
738.4	5509.7	
738.58	5771.2	
738.76	4558.1	
738.94	3801	
739.12	5631.2	
739.3	5526.8	
739.48	4959.5	
739.66	4764.9	
739.84	5753.4	
740.02	5765.7	
740.2	3898	
740.38	4115.1	
740.56	6006	
740.74	5180	
740.92	4592.2	
741.1	4491.9	
741.28	5619.6	
741.46	5460.6	
741.64	4193.6	
741.82	4635.9	
742	5592.3	
742.18	5562.3	
742.36	4316.4	
742.54	4048.2	
742.72	6048.3	
742.9	4991.6	
743.08	4633.2	
743.26	3723.2	
743.44	6125.5	
743.62	6047	
743.8	4757.4	
743.98	4000.4	
744.16	5806	
744.34	5577.3	
744.52	4640.7	
744.7	4500.1	
744.88	5945.3	
745.06	5517.9	
745.24	4635.2	
745.42	4731.5	
745.6	5982.8	
745.78	5806.7	
745.96	3681.6	
746.14	3956.7	
746.32	6509.8	
746.5	5944.6	
746.68	4429.1	
746.86	4023.6	
747.03	6195.8	
747.21	4937.7	
747.39	4422.2	
747.57	4007.2	
747.75	5567.1	
747.93	5874.9	
748.11	3922.5	
748.29	3882.3	
748.47	6827.2	
748.65	5328.1	
748.83	4517.1	
749.01	4270.7	
749.19	5745.9	
749.37	5055.8	
749.55	4162.2	
749.73	4217.5	
749.91	5540.4	
750.09	5321.3	
750.26	4233.2	
750.44	3781.2	
750.62	5509.7	
750.8	5478.3	
750.98	3672.7	
751.16	3924.6	
751.34	5599.1	
751.52	5058.5	
751.7	4523.3	
751.88	3686.3	
752.06	5922	
752.24	5620.3	
752.42	3568.2	
752.59	3893.2	
752.77	5451	
752.95	6313.2	
753.13	4468.7	
753.31	3945.8	
753.49	5196.4	
753.67	5489.2	
753.85	4194.2	
754.03	3845.4	
754.21	5776.6	
754.38	6004.6	
754.56	3923.9	
754.74	3285.6	
754.92	5158.8	
755.1	5590.3	
755.28	3291.8	
755.46	3310.9	
755.64	6307.1	
755.82	6367.8	
755.99	3600.3	
756.17	3708.9	
756.35	4475.5	
756.53	5633.3	
756.71	2822.8	
756.89	3517.7	
757.07	5280.3	
757.25	4646.2	
757.42	3927.3	
757.6	4537.6	
757.78	5343.2	
757.96	4586.8	
758.14	3627	
758.32	3267.2	
758.5	4248.2	
758.67	4918.5	
758.85	3499.3	
759.03	3568.9	
759.21	5072.1	
759.39	4544.4	
759.57	3159.3	
759.75	4049.5	
759.92	5583.4	
760.1	5055.1	
760.28	4347.2	
760.46	4496.7	
760.64	4850.3	
760.82	4623.6	
760.99	4222.2	
761.17	3560.1	
761.35	5510.4	
761.53	4567.7	
761.71	3686.3	
761.89	4237.9	
762.06	5295.4	
762.24	4923.3	
762.42	3744.4	
762.6	3539.6	
762.78	4910.3	
762.96	5440.8	
763.13	4002.4	
763.31	3763.5	
763.49	5494.7	
763.67	4848.2	
763.85	4412.7	
764.02	4760.8	
764.2	5750	
764.38	5016.8	
764.56	3650.8	
764.74	4300.7	
764.91	5799.8	
765.09	4870.8	
765.27	3486.3	
765.45	3219.4	
765.63	5880.4	
765.8	5716.6	
765.98	3111.5	
766.16	3310.9	
766.34	4634.6	
766.52	4414.7	
766.69	4020.8	
766.87	3210.5	
767.05	5002.5	
767.23	5480.4	
767.41	3487	
767.58	3608.5	
767.76	5382.1	
767.94	5441.5	
768.12	3487	
768.29	4011.3	
768.47	4991.6	
768.65	5568.4	
768.83	3201.7	
769	4112.3	
769.18	4660.5	
769.36	5193	
769.54	4104.1	
769.72	3275.4	
769.89	5451	
770.07	5501.5	
770.25	3642.7	
770.43	4472.1	
770.6	6077	
770.78	6300.2	
770.96	3676.1	
771.14	4147.8	
771.31	5380	
771.49	4846.9	
771.67	3047.4	
771.85	3198.9	
772.02	4301.4	
772.2	4877.6	
772.38	3757.3	
772.55	3341.6	
772.73	5095.3	
772.91	4941.7	
773.09	3710.2	
773.26	3777.8	
773.44	5038.7	
773.62	4835.3	
773.8	3325.9	
773.97	3155.2	
774.15	5136.3	
774.33	4834.6	
774.5	3237.8	
774.68	3561.4	
774.86	5197.7	
775.04	4882.4	
775.21	3319.8	
775.39	3322.5	
775.57	5107	
775.74	5316.5	
775.92	3177.1	
776.1	3078.8	
776.27	5086.5	
776.45	6040.8	
776.63	3293.8	
776.81	2995.5	
776.98	4810	
777.16	5572.5	
777.34	3417.4	
777.51	3657	
777.69	4795.7	
777.87	4644.1	
778.04	3517	
778.22	3934.8	
778.4	4663.9	
778.57	5147.9	
778.75	2887	
778.93	3134.8	
779.1	4530.8	
779.28	4341.7	
779.46	2957.9	
779.64	3292.5	
779.81	5324.7	
779.99	5952.1	
780.17	3923.2	
780.34	4031.8	
780.52	4871.4	
780.69	5005.2	
780.87	3562.1	
781.05	3203.7	
781.22	4906.9	
781.4	4929.5	
781.58	3365.5	
781.75	2712.9	
781.93	5013.4	
782.11	4377.9	
782.28	4045.4	
782.46	3303.4	
782.64	4354	
782.81	5023	
782.99	3447.4	
783.17	3360	
783.34	4932.9	
783.52	4405.9	
783.69	3564.8	
783.87	4175.1	
784.05	4465.9	
784.22	4473.4	
784.4	4152.6	
784.58	3646.1	
784.75	5260.5	
784.93	4572.4	
785.1	3355.9	
785.28	3777.1	
785.46	4986.1	
785.63	4419.5	
785.81	3343	
785.99	3224.2	
786.16	4627.7	
786.34	4871.4	
786.51	3272.7	
786.69	3624.9	
786.87	4234.5	
787.04	4691.9	
787.22	3179.8	
787.39	3841.3	
787.57	4483.7	
787.75	5326.1	
787.92	3973.1	
788.1	3969.6	
788.27	4495.3	
788.45	4263.9	
788.63	3759.4	
788.8	2763.4	
788.98	4830.5	
789.15	4197.7	
789.33	2938.2	
789.5	3315	
789.68	5170.4	
789.86	5291.3	
790.03	3670.6	
790.21	3278.8	
790.38	5214.8	
790.56	4611.3	
790.73	3146.4	
790.91	3170.3	
791.09	4489.8	
791.26	5022.3	
791.44	3416.7	
791.61	2906.8	
791.79	4500.1	
791.96	4522.6	
792.14	3059	
792.32	2725.2	
792.49	4480.3	
792.67	4571.7	
792.84	3097.9	
793.02	2890.4	
793.19	4829.1	
793.37	5353.4	
793.54	2665.8	
793.72	3005.1	
793.89	5442.1	
794.07	4492.6	
794.25	3471.3	
794.42	2816.6	
794.6	5296	
794.77	4967.7	
794.95	3696.6	
795.12	3196.2	
795.3	4474.1	
795.47	4924.7	
795.65	3493.8	
795.82	3410.6	
796	4364.2	
796.17	5730.9	
796.35	3291.1	
796.52	3819.5	
796.7	4909	
796.87	5024.3	
797.05	3298.6	
797.22	3949.8	
797.4	4978.6	
797.57	5690.6	
797.75	3452.2	
797.92	3225.6	
798.1	5254.4	
798.27	4385.4	
798.45	2850.8	
798.62	2957.9	
798.8	4721.9	
798.97	5083.7	
799.15	3531.4	
799.32	3422.8	
799.5	4158.1	
799.67	4766.3	
799.85	3629.7	
800.02	2725.8	
800.2	4498	
800.37	4689.8	
800.55	3801	
800.72	3246	
800.9	5115.1	
801.07	5362.3	
801.25	4246.8	
801.42	3472	
801.6	5090.6	
801.77	4814.1	
801.95	3295.2	
802.12	3121.8	
802.29	4898.1	
802.47	4814.1	
802.64	3536.8	
802.82	2721.8	
802.99	4498	
803.17	5175.2	
803.34	3377.8	
803.52	3082.9	
803.69	5714.5	
803.87	4250.2	
804.04	3373	
804.21	3399.6	
804.39	5341.1	
804.56	4592.2	
804.74	2874.7	
804.91	3561.4	
805.09	4502.8	
805.26	4542.4	
805.44	2970.2	
805.61	3269.9	
805.78	5072.8	
805.96	4997.7	
806.13	3465.2	
806.31	3701.4	
806.48	4101.4	
806.66	4543.1	
806.83	3530	
807	3422.2	
807.18	4478.2	
807.35	4765.6	
807.53	3379.1	
807.7	2777	
807.87	5443.5	
808.05	4479.6	
808.22	3714.3	
808.4	2779.1	
808.57	4408.6	
808.74	4268.6	
808.92	3162.7	
809.09	3953.3	
809.27	4418.2	
809.44	4852.3	
809.61	2809.1	
809.79	3048.1	
809.96	5496.1	
810.14	5025.7	
810.31	2775	
810.48	3312.2	
810.66	4536.3	
810.83	5068	
811.01	3115.6	
811.18	3448.1	
811.35	5092.6	
811.53	4038.6	
811.7	3774.4	
811.87	3476.8	
812.05	4571.7	
812.22	4455.7	
812.39	3086.3	
812.57	2959.3	
812.74	4578.6	
812.92	5758.2	
813.09	3338.2	
813.26	3532.1	
813.44	5614.8	
813.61	4371.7	
813.78	2768.9	
813.96	3595.6	
814.13	4559.5	
814.3	4308.9	
814.48	3929.4	
814.65	3252.9	
814.82	5340.4	
815	4229.1	
815.17	3355.9	
815.34	4037.9	
815.52	4437.9	
815.69	4420.9	
815.87	3332.7	
816.04	3276.8	
816.21	4503.5	
816.38	4042.7	
816.56	3271.3	
816.73	3073.3	
816.9	5568.4	
817.08	5051.7	
817.25	3084.2	
817.42	3822.9	
817.6	4164.2	
817.77	4481	
817.94	3419.4	
818.12	3027.6	
818.29	4382	
818.46	6282.5	
818.64	3206.4	
818.81	3033	
818.98	4319.2	
819.16	5867.4	
819.33	3603.1	
819.5	3393.5	
819.67	4778.6	
819.85	5252.4	
820.02	3319.1	
820.19	3572.3	
820.37	4668.7	
820.54	4389.5	
820.71	3439.9	
820.88	4173.8	
821.06	4713.7	
821.23	4304.1	
821.4	3435.1	
821.58	3407.1	
821.75	4986.1	
821.92	4680.3	
822.09	2826.2	
822.27	2899.2	
822.44	4516.5	
822.61	4430.4	
822.79	2856.9	
822.96	5228.5	
823.13	4773.8	
823.3	4285.7	
823.48	3220.1	
823.65	2908.1	
823.82	5091.9	
823.99	4126	
824.17	4033.8	
824.34	2985.9	
824.51	5698.1	
824.68	4586.8	
824.86	3051.5	
825.03	3474	
825.2	4450.9	
825.37	5304.2	
825.55	3084.9	
825.72	3424.9	
825.89	5744.6	
826.06	5347.2	
826.24	3264.5	
826.41	3307.5	
826.58	5413.5	
826.75	4701.5	
826.92	2663.7	
827.1	2910.8	
827.27	7019.8	
827.44	5738.4	
827.61	3140.2	
827.79	3745.1	
827.96	4316.4	
828.13	4573.1	
828.3	3308.8	
828.47	2770.2	
828.65	4782	
828.82	4656.4	
828.99	4136.2	
829.16	3579.2	
829.34	5029.1	
829.51	4844.8	
829.68	3385.3	
829.85	3422.8	
830.02	5319.3	
830.2	5096	
830.37	2674.6	
830.54	3907.5	
830.71	5657.9	
830.88	4515.1	
831.05	2672.6	
831.23	3030.3	
831.4	5464.7	
831.57	5959.6	
831.74	3157.3	
831.91	2848.7	
832.09	4781.3	
832.26	5015.5	
832.43	3167.5	
832.6	3592.1	
832.77	4721.9	
832.94	5349.3	
833.12	2604.3	
833.29	3218	
833.46	4903.5	
833.63	6126.2	
833.8	3468.6	
833.97	3175.7	
834.15	5077.6	
834.32	4857.1	
834.49	3423.5	
834.66	3345	
834.83	5201.2	
835	4408.6	
835.17	3110.9	
835.35	3117	
835.52	4959.5	
835.69	4867.3	
835.86	3318.4	
836.03	2760	
836.2	5025	
836.37	4737.6	
836.55	3217.4	
836.72	2994.1	
836.89	4718.5	
837.06	5140.4	
837.23	3268.6	
837.4	3543	
837.57	5656.5	
837.75	6141.2	
837.92	2951.1	
838.09	3152.5	
838.26	4699.4	
838.43	5184.8	
838.6	3361.4	
838.77	3020.1	
838.94	5785.5	
839.11	5687.9	
839.29	3258.3	
839.46	2553.8	
839.63	5055.1	
839.8	4769.7	
839.97	3128.6	
840.14	3158	
840.31	4886.5	
840.48	5107	
840.65	2645.3	
840.82	3101.3	
841	5007.3	
841.17	4966.3	
841.34	2910.8	
841.51	2994.8	
841.68	4975.2	
841.85	4757.4	
842.02	3006.4	
842.19	2574.3	
842.36	4857.8	
842.53	4846.9	
842.7	2929.3	
842.87	3457	
843.05	6135	
843.22	4750.6	
843.39	2831	
843.56	3021.4	
843.73	4612.7	
843.9	5068	
844.07	4558.1	
844.24	3771	
844.41	6914.6	
844.58	4384.7	
844.75	2850.1	
844.92	3037.8	
845.09	5003.2	
845.26	4928.8	
845.43	2850.8	
845.6	3050.8	
845.77	5044.8	
845.94	4760.8	
846.12	3167.5	
846.29	3289	
846.46	5193.6	
846.63	5013.4	
846.8	2889.7	
846.97	3355.9	
847.14	5372.5	
847.31	4885.8	
847.48	3251.5	
847.65	3525.2	
847.82	5235.3	
847.99	5134.3	
848.16	3777.8	
848.33	3523.9	
848.5	4614.8	
848.67	5328.8	
848.84	2842.6	
849.01	2990	
849.18	4604.5	
849.35	4308.9	
849.52	3568.2	
849.69	2876	
849.86	5119.9	
850.03	5258.5	
850.2	2921.1	
850.37	3431	
850.54	5262.6	
850.71	4764.3	
850.88	3403	
851.05	2865.8	
851.22	4887.8	
851.39	5424.4	
851.56	2695.8	
851.73	3223.5	
851.9	4470	
852.07	5204.6	
852.24	3141.6	
852.41	2833.7	
852.58	4925.4	
852.75	4504.8	
852.92	3207.8	
853.09	2872.6	
853.26	4709	
853.43	5289.2	
853.6	2874	
853.77	2502.6	
853.94	5342.5	
854.11	4463.2	
854.28	4164.2	
854.44	3130	
854.61	5700.2	
854.78	5210.7	
854.95	2903.3	
855.12	3508.9	
855.29	4121.9	
855.46	5593	
855.63	2876.7	
855.8	3883.6	
855.97	4660.5	
856.14	5307	
856.31	3932.1	
856.48	3099.9	
856.65	4674.8	
856.82	4437.9	
856.99	2854.2	
857.16	3087.7	
857.33	5939.1	
857.49	4758.1	
857.66	3099.9	
857.83	3248.1	
858	4752	
858.17	4912.4	
858.34	2719	
858.51	2889.7	
858.68	5464	
858.85	5504.3	
859.02	3234.4	
859.19	3516.4	
859.36	4462.5	
859.52	4460.5	
859.69	2912.2	
859.86	3375.1	
860.03	4525.3	
860.2	5421.7	
860.37	2628.9	
860.54	2937.5	
860.71	5165	
860.88	5469.4	
861.05	3148.4	
861.21	3553.9	
861.38	5440.1	
861.55	4340.3	
861.72	2646.7	
861.89	3127.9	
862.06	5207.3	
862.23	5588.2	
862.4	2817.3	
862.56	2949.1	
862.73	5031.2	
862.9	4805.9	
863.07	3244.7	
863.24	2638.5	
863.41	4373.1	
863.58	4485.7	
863.75	2964.8	
863.91	3327.9	
864.08	5372.5	
864.25	5079	
864.42	3626.3	
864.59	3905.5	
864.76	5683.1	
864.93	4455.7	
865.09	2811.9	
865.26	3035.8	
865.43	5362.3	
865.6	5701.5	
865.77	2578.4	
865.94	2802.3	
866.1	5388.9	
866.27	5080.3	
866.44	4173.1	
866.61	2794.1	
866.78	4760.2	
866.95	5045.5	
867.11	2816	
867.28	2555.2	
867.45	5307.7	
867.62	4511.7	
867.79	3317.7	
867.96	2879.4	
868.12	4443.4	
868.29	5145.9	
868.46	2866.5	
868.63	3812.6	
868.8	5265.3	
868.97	5091.3	
869.13	3007.8	
869.3	2983.2	
869.47	4975.2	
869.64	5234.6	
869.81	2930.6	
869.97	2869.2	
870.14	4958.8	
870.31	5522.7	
870.48	2831.7	
870.65	3510.2	
870.81	4745.8	
870.98	4727.4	
871.15	3257	
871.32	3011.9	
871.48	5063.3	
871.65	5535.7	
871.82	2869.9	
871.99	3134.8	
872.16	5840.1	
872.32	5270.1	
872.49	2947.7	
872.66	2892.4	
872.83	5232.6	
872.99	4591.5	
873.16	3275.4	
873.33	2843.9	
873.5	4824.3	
873.67	4877.6	
873.83	3016	
874	3730	
874.17	4932.9	
874.34	5711.1	
874.5	3646.7	
874.67	3523.2	
874.84	5421	
875.01	4371	
875.17	3868.6	
875.34	2805.7	
875.51	4872.1	
875.68	5763	
875.84	3403	
876.01	4090.5	
876.18	5105.6	
876.34	5087.2	
876.51	2901.3	
876.68	2800.3	
876.85	4711.7	
877.01	5375.9	
877.18	4021.5	
877.35	2827.6	
877.52	4938.3	
877.68	4386.7	
877.85	2827.6	
878.02	2831.7	
878.18	4732.9	
878.35	4601.8	
878.52	2354.5	
878.69	3145.7	
878.85	5227.1	
879.02	5094	
879.19	3977.2	
879.35	3069.9	
879.52	5167	
879.69	5210.7	
879.86	2530.6	
880.02	3207.1	
880.19	4814.8	
880.36	5719.3	
880.52	3288.4	
880.69	3358	
880.86	5185.5	
881.02	5177.3	
881.19	3145	
881.36	3139.5	
881.52	5107.6	
881.69	4541.7	
881.86	3052.2	
882.02	3035.8	
882.19	5300.8	
882.36	6151.4	
882.52	2889.7	
882.69	3931.4	
882.86	4972.5	
883.02	4900.1	
883.19	3456.3	
883.36	3291.8	
883.52	5216.2	
883.69	5834	
883.86	2925.9	
884.02	2671.2	
884.19	5172.5	
884.36	4838.7	
884.52	3244.7	
884.69	3057.6	
884.86	4596.3	
885.02	5575.3	
885.19	3209.2	
885.36	3261	
885.52	4743.8	
885.69	4921.3	
885.86	4070	
886.02	3639.2	
886.19	5210.7	
886.35	4567.7	
886.52	3189.4	
886.69	3933.5	
886.85	4455.7	
887.02	5444.9	
887.19	5444.9	
887.35	5444.9	
887.52	5444.9	
887.68	5444.9	
887.85	5444.9	
888.02	5444.9	
888.18	5444.9	
888.35	5444.9	
888.51	5444.9	
888.68	5444.9	
888.85	5444.9	
889.01	5444.9	
889.18	5444.9	
889.35	5444.9	
889.51	5444.9	
889.68	5444.9	
889.84	5444.9	
890.01	5444.9	
890.17	5444.9	
890.34	5444.9	
890.51	5444.9	
890.67	5444.9	
890.84	5444.9	
891	5444.9	
891.17	5444.9	
891.34	5444.9	
891.5	5444.9	
891.67	5444.9	
891.83	5444.9	
892	5444.9	
892.16	5444.9	
892.33	5444.9	
892.5	5444.9	
892.66	5444.9	
892.83	5444.9	
892.99	5444.9	
893.16	5444.9	
893.32	5444.9	
893.49	5444.9	
893.65	5444.9	
893.82	5444.9	
893.99	5444.9	
894.15	5444.9	
894.32	5444.9	
894.48	5444.9	
894.65	5444.9	
894.81	5444.9	
894.98	5444.9	
895.14	5444.9	
895.31	5444.9	
895.47	5444.9	
895.64	5444.9	
895.81	5444.9	
895.97	5444.9	
896.14	5444.9	
896.3	5444.9	
896.47	5444.9	
896.63	5444.9	
896.8	5444.9	
896.96	5444.9	
897.13	5444.9	
897.29	5444.9	
897.46	5444.9	
897.62	5444.9	
897.79	5444.9	
897.95	5444.9	
898.12	5444.9	
898.28	5444.9	
898.45	5444.9	
898.61	5444.9	
898.78	5444.9	
898.94	5444.9	
899.11	5444.9	
899.27	5444.9	
899.44	5444.9	
899.6	5444.9	
899.77	5444.9	
899.93	5444.9	
900.1	5444.9	
900.26	5444.9	
900.43	5444.9	
900.59	5444.9	
900.76	5444.9	
900.92	5444.9	
901.09	5444.9	
901.25	5444.9	
901.42	5444.9	
901.58	5444.9	
901.75	5444.9	
901.91	5444.9	
902.07	5444.9	
902.24	5444.9	
902.4	5444.9	
902.57	5444.9	
902.73	5444.9	
902.9	5444.9	
903.06	5444.9	
903.23	5444.9	
903.39	5444.9	
903.56	5444.9	
903.72	5444.9	
903.88	5444.9	
904.05	5444.9	
904.21	5444.9	
904.38	5444.9	
904.54	5444.9	
904.71	5444.9	
904.87	5444.9	
905.03	5444.9	
905.2	5444.9	
905.36	5444.9	
905.53	5444.9	
905.69	5444.9	
905.86	5444.9	
906.02	5444.9	
906.18	5444.9	
906.35	5444.9	
906.51	5444.9	
906.68	5444.9	
906.84	5444.9	
907.01	5444.9	
907.17	5444.9	
907.33	5444.9	
907.5	5444.9	
907.66	5444.9	
907.83	5444.9	
907.99	5444.9	
908.15	5444.9	
908.32	5444.9	
908.48	5444.9	
908.65	5444.9	
908.81	5444.9	
908.97	5444.9	
909.14	5444.9	
909.3	5444.9	
909.47	5444.9	
909.63	5444.9	
909.79	5444.9	
909.96	5444.9	
910.12	5444.9	
910.28	5444.9	
910.45	5444.9	
910.61	5444.9	
910.78	5444.9	
910.94	5444.9	
911.1	5444.9	
911.27	5444.9	
911.43	5444.9	
911.59	5444.9	
911.76	5444.9	
911.92	5444.9	
912.08	5444.9	
912.25	5444.9	
912.41	5444.9	
912.57	5444.9	
912.74	5444.9	
912.9	5444.9	
913.07	5444.9	
913.23	5444.9	
913.39	5444.9	
913.56	5444.9	
913.72	5444.9	
913.88	5444.9	
914.05	5444.9	
914.21	5444.9	
914.37	5444.9	
914.54	5444.9	
914.7	5444.9	
914.86	5444.9	
915.03	5444.9	
915.19	5444.9	
