Wavelength	Intensities	
nm	a.u.	
179.22	1939.4	
179.44	1945.6	
179.65	1933.3	
179.86	1957.9	
180.08	1944.2	
180.29	5076.9	
180.51	3592.8	
180.72	5739.8	
180.94	6835.4	
181.15	3310.2	
181.37	3203	
181.58	5571.2	
181.79	5883.1	
182.01	3402.4	
182.22	3699.3	
182.44	5872.2	
182.65	4911	
182.87	4653	
183.08	4106.2	
183.29	6128.2	
183.51	5054.4	
183.72	3820.1	
183.94	5460.6	
184.15	5494.7	
184.37	5550	
184.58	3280.2	
184.79	4641.4	
185.01	5100.8	
185.22	5924.1	
185.44	4795.7	
185.65	4034.5	
185.86	5376.6	
186.08	4946.5	
186.29	3252.9	
186.51	3426.9	
186.72	5094	
186.94	6066.1	
187.15	4021.5	
187.36	4140.3	
187.58	7918.1	
187.79	5610.1	
188.01	4296	
188.22	6802	
188.43	6845	
188.65	5811.5	
188.86	3418.1	
189.08	4083	
189.29	5324	
189.5	5307	
189.72	3867.9	
189.93	3880.2	
190.15	6021.7	
190.36	7344	
190.57	4200.4	
190.79	4113.7	
191	6163	
191.22	6141.2	
191.43	4197.7	
191.64	3448.8	
191.86	6409.5	
192.07	6115.9	
192.29	3638.6	
192.5	3857.7	
192.71	6057.2	
192.93	5201.2	
193.14	3786.7	
193.35	3864.5	
193.57	5324	
193.78	6083.8	
194	3051.5	
194.21	3718.4	
194.42	5033.9	
194.64	5520	
194.85	4137.6	
195.07	4854.4	
195.28	5642.2	
195.49	4781.3	
195.71	5122.7	
195.92	3561.4	
196.13	5686.5	
196.35	5822.4	
196.56	5459.2	
196.78	4124.6	
196.99	7169.9	
197.2	6701.6	
197.42	4725.3	
197.63	4201.7	
197.84	4883.7	
198.06	5709.1	
198.27	3883.6	
198.48	5143.8	
198.7	5229.1	
198.91	5395.7	
199.13	4130.1	
199.34	4134.2	
199.55	5948.7	
199.77	4751.3	
199.98	3642.7	
200.19	4203.8	
200.41	5298.8	
200.62	5128.8	
200.83	4361.5	
201.05	4668	
201.26	5388.2	
201.47	5127.4	
201.69	3652.9	
201.9	3502.7	
202.11	5468.8	
202.33	6540.5	
202.54	3934.1	
202.76	4414.7	
202.97	5626.5	
203.18	5608.7	
203.4	4358.1	
203.61	4280.9	
203.82	5539.8	
204.04	5156.8	
204.25	4262.5	
204.46	4087.7	
204.68	5504.3	
204.89	5805.3	
205.1	4061.8	
205.32	3497.2	
205.53	5984.2	
205.74	6064.7	
205.96	2953.2	
206.17	4237.2	
206.38	5894.1	
206.6	6026.5	
206.81	4742.4	
207.02	3875.4	
207.24	5750.7	
207.45	6181.5	
207.66	3985.3	
207.88	3335.5	
208.09	5654.4	
208.3	5488.6	
208.52	3654.3	
208.73	4000.4	
208.94	5532.9	
209.15	6272.9	
209.37	3950.5	
209.58	4184	
209.79	6066.1	
210.01	5285.8	
210.22	3152.5	
210.43	3302	
210.65	5499.5	
210.86	5948.7	
211.07	3973.7	
211.29	3615.3	
211.5	5871.5	
211.71	5469.4	
211.93	3613.3	
212.14	3678.8	
212.35	5457.8	
212.56	5704.3	
212.78	4164.9	
212.99	3449.5	
213.2	6505.7	
213.42	5240.1	
213.63	3794.9	
213.84	4025.6	
214.06	4853	
214.27	4947.2	
214.48	3931.4	
214.69	4261.1	
214.91	6224.5	
215.12	6289.3	
215.33	4332.8	
215.55	4780.6	
215.76	6817.7	
215.97	5879	
216.18	4136.9	
216.4	3992.2	
216.61	5141.8	
216.82	6019.7	
217.04	3668.6	
217.25	3779.2	
217.46	6214.9	
217.67	5930.9	
217.89	3263.8	
218.1	3373	
218.31	5578	
218.53	5674.9	
218.74	3798.3	
218.95	3709.6	
219.16	5470.1	
219.38	6446.3	
219.59	3685.7	
219.8	4485.7	
220.01	7251.2	
220.23	5517.9	
220.44	4961.5	
220.65	3547.8	
220.87	5565.7	
221.08	6179.4	
221.29	3379.1	
221.5	4577.2	
221.72	7600.7	
221.93	5221	
222.14	4216.8	
222.35	4995	
222.57	5492.7	
222.78	5893.4	
222.99	3938.9	
223.2	4310.3	
223.42	5832.6	
223.63	5976.7	
223.84	3048.7	
224.05	3033.7	
224.27	7108.5	
224.48	6443.6	
224.69	4941.7	
224.9	4199	
225.12	5760.3	
225.33	5484.5	
225.54	3295.2	
225.75	3714.3	
225.97	5100.8	
226.18	5406.6	
226.39	3994.9	
226.6	3741.6	
226.82	5224.4	
227.03	5125.4	
227.24	4188.8	
227.45	3465.2	
227.67	5920	
227.88	6490.7	
228.09	4625	
228.3	4667.3	
228.52	6001.2	
228.73	5488.6	
228.94	3855	
229.15	3405.1	
229.36	5355.4	
229.58	5324	
229.79	3949.2	
230	4629.8	
230.21	6602	
230.43	5629.9	
230.64	4143.7	
230.85	4313	
231.06	5964.4	
231.28	5986.2	
231.49	3386	
231.7	4048.2	
231.91	5824.4	
232.12	5522	
232.34	3513.6	
232.55	4017.4	
232.76	6184.9	
232.97	5748	
233.18	3651.5	
233.4	4117.8	
233.61	5735	
233.82	5309	
234.03	3838.6	
234.25	3756	
234.46	7714	
234.67	5556.1	
234.88	4280.9	
235.09	3708.9	
235.31	5914.5	
235.52	5429.2	
235.73	4122.6	
235.94	3466.5	
236.15	5169.8	
236.37	6747.4	
236.58	3675.4	
236.79	4016.1	
237	5824.4	
237.21	5031.2	
237.43	4283.7	
237.64	3416.7	
237.85	10150	
238.06	5063.9	
238.27	4322.6	
238.48	3475.4	
238.7	5913.2	
238.91	5406	
239.12	3964.9	
239.33	4046.8	
239.54	5083.1	
239.76	5428.5	
239.97	3938.2	
240.18	3956.7	
240.39	6989	
240.6	5787.6	
240.82	4093.9	
241.03	3358.7	
241.24	5470.1	
241.45	6406	
241.66	3622.9	
241.87	4297.3	
242.09	6199.9	
242.3	6610.8	
242.51	4401.8	
242.72	3932.1	
242.93	5984.2	
243.14	5438.7	
243.36	4605.2	
243.57	5016.8	
243.78	6401.3	
243.99	5904.3	
244.2	4052.2	
244.41	3580.5	
244.63	5040.1	
244.84	5826.5	
245.05	4313	
245.26	4053.6	
245.47	5762.3	
245.68	6096.1	
245.9	5329.5	
246.11	4193.6	
246.32	5343.2	
246.53	5766.4	
246.74	6519.4	
246.95	3390.8	
247.16	4939	
247.38	5472.2	
247.59	3314.3	
247.8	4046.8	
248.01	5190.2	
248.22	5434.6	
248.43	3590.1	
248.64	3934.1	
248.86	4853	
249.07	5273.5	
249.28	3527.3	
249.49	4097.3	
249.7	6128.2	
249.91	6255.2	
250.12	3259.7	
250.34	3376.4	
250.55	5636	
250.76	5474.2	
250.97	4098.7	
251.18	4181.3	
251.39	6215.6	
251.6	5736.4	
251.81	4219.5	
252.03	4181.3	
252.24	5199.8	
252.45	6079.1	
252.66	3429.7	
252.87	4450.2	
253.08	5492.7	
253.29	7343.3	
253.5	3503.4	
253.72	4887.8	
253.93	5367	
254.14	6584.9	
254.35	3805.8	
254.56	3904.8	
254.77	5829.9	
254.98	5089.9	
255.19	3750.5	
255.41	4866.7	
255.62	5569.1	
255.83	6248.4	
256.04	4394.9	
256.25	4263.9	
256.46	6815	
256.67	5143.8	
256.88	4141	
257.09	4640.7	
257.31	5183.4	
257.52	5190.9	
257.73	5195.7	
257.94	3829	
258.15	5330.2	
258.36	5580.7	
258.57	4821.6	
258.78	3026.9	
258.99	6034.7	
259.2	5343.2	
259.41	3869.3	
259.63	3975.1	
259.84	6378.1	
260.05	6929.6	
260.26	5087.2	
260.47	3716.4	
260.68	6122.1	
260.89	5444.9	
261.1	4644.1	
261.31	3632.4	
261.52	6153.5	
261.73	6463.4	
261.95	4864.6	
262.16	4296	
262.37	6314.6	
262.58	6333.7	
262.79	4968.4	
263	3909.6	
263.21	5554.1	
263.42	4969.1	
263.63	3950.5	
263.84	3839.3	
264.05	6135.7	
264.26	6477.7	
264.47	4817.5	
264.69	4293.9	
264.9	6265.4	
265.11	5756.2	
265.32	3734.1	
265.53	3768.9	
265.74	5627.8	
265.95	4870.8	
266.16	4033.1	
266.37	4539.7	
266.58	5664	
266.79	5362.9	
267	3770.3	
267.21	3533.4	
267.42	5099.4	
267.63	5480.4	
267.84	3975.1	
268.06	3420.1	
268.27	5907.7	
268.48	6279.8	
268.69	3833.1	
268.9	4615.4	
269.11	6264.1	
269.32	5000.5	
269.53	3992.2	
269.74	3707.5	
269.95	5894.1	
270.16	4818.9	
270.37	4018.8	
270.58	4638.6	
270.79	5339.7	
271	6064.7	
271.21	4288.4	
271.42	4045.4	
271.63	5708.4	
271.84	5141.8	
272.05	3176.4	
272.26	3592.1	
272.47	5580.7	
272.68	5750	
272.89	3844.7	
273.11	4481	
273.32	5348.6	
273.53	6530.3	
273.74	4356	
273.95	4225.6	
274.16	6156.9	
274.37	5652.4	
274.58	4340.3	
274.79	3465.2	
275	5589.6	
275.21	6241.5	
275.42	5280.3	
275.63	4564.2	
275.84	5766.4	
276.05	7359.7	
276.26	4231.1	
276.47	3992.9	
276.68	5396.4	
276.89	6593.8	
277.1	4524	
277.31	3496.6	
277.52	5788.2	
277.73	5950	
277.94	3493.8	
278.15	3895.9	
278.36	5764.3	
278.57	5143.1	
278.78	3859.1	
278.99	4306.9	
279.2	5122	
279.41	5070.1	
279.62	5076.9	
279.83	3560.1	
280.04	6769.2	
280.25	5034.6	
280.46	5054.4	
280.67	4018.8	
280.88	5081.7	
281.09	6206.7	
281.3	4231.8	
281.51	5368.4	
281.72	5229.1	
281.93	6023.8	
282.14	3741.6	
282.35	4016.7	
282.56	5981.4	
282.77	5986.9	
282.98	3919.1	
283.19	4739	
283.4	7487.4	
283.61	5427.8	
283.82	3548.4	
284.03	4980	
284.24	5634	
284.45	6246.3	
284.66	5045.5	
284.87	4799.8	
285.08	6096.8	
285.29	6303	
285.5	3365.5	
285.71	3873.4	
285.92	6212.9	
286.12	6890	
286.33	4944.5	
286.54	3874.1	
286.75	6062.7	
286.96	5348.6	
287.17	3551.9	
287.38	4930.8	
287.59	5129.5	
287.8	5073.5	
288.01	3936.2	
288.22	4506.2	
288.43	6055.8	
288.64	5009.3	
288.85	4666	
289.06	4442	
289.27	5989.6	
289.48	6535.1	
289.69	5018.2	
289.9	4493.9	
290.11	6192.4	
290.32	5188.9	
290.53	4734.9	
290.74	4362.2	
290.94	5997.1	
291.15	6096.1	
291.36	3823.6	
291.57	4479.6	
291.78	5275.6	
291.99	4915.1	
292.2	3590.8	
292.41	4372.4	
292.62	6068.8	
292.83	5841.5	
293.04	5332.2	
293.25	3657.7	
293.46	5259.9	
293.67	6112.5	
293.88	3716.4	
294.09	3606.5	
294.29	5031.2	
294.5	5687.9	
294.71	4007.2	
294.92	3805.1	
295.13	5307.7	
295.34	6711.2	
295.55	3407.8	
295.76	3453.6	
295.97	5941.2	
296.18	6780.1	
296.39	3530.7	
296.6	3756.7	
296.81	5631.2	
297.01	5967.1	
297.22	3920.5	
297.43	3779.2	
297.64	5134.3	
297.85	5142.4	
298.06	3074	
298.27	3393.5	
298.48	5621	
298.69	5257.1	
298.9	4140.3	
299.11	3650.8	
299.31	5057.8	
299.52	4996.4	
299.73	4374.5	
299.94	4234.5	
300.15	5544.5	
300.36	5154.1	
300.57	4286.4	
300.78	4265.2	
300.99	5341.8	
301.2	5659.9	
301.4	3693.2	
301.61	4113.7	
301.82	5859.2	
302.03	5991.7	
302.24	4588.8	
302.45	3568.2	
302.66	5829.9	
302.87	6354.2	
303.08	3736.2	
303.29	5094	
303.49	5215.5	
303.7	5582.1	
303.91	3324.5	
304.12	4861.2	
304.33	5041.4	
304.54	5570.5	
304.75	3771	
304.96	3620.8	
305.16	5901.6	
305.37	6653.9	
305.58	3253.5	
305.79	3438.5	
306	5926.1	
306.21	4941.7	
306.42	3695.9	
306.63	5694	
306.83	5345.2	
307.04	6171.9	
307.25	4141	
307.46	4139.6	
307.67	4719.2	
307.88	5994.4	
308.09	3661.8	
308.29	3895.9	
308.5	5591.6	
308.71	6126.8	
308.92	4023.6	
309.13	3639.9	
309.34	5360.2	
309.55	5492	
309.75	4650.3	
309.96	4338.3	
310.17	5949.3	
310.38	5218.9	
310.59	4561.5	
310.8	3502.7	
311.01	5332.2	
311.21	5416.9	
311.42	3581.9	
311.63	3691.1	
311.84	5289.2	
312.05	5735.7	
312.26	4191.5	
312.46	4633.9	
312.67	5354.8	
312.88	5018.2	
313.09	3676.8	
313.3	3592.1	
313.51	6367.8	
313.71	6763.8	
313.92	3639.2	
314.13	3846.8	
314.34	5763.7	
314.55	5416.2	
314.76	4665.3	
314.96	4070	
315.17	5571.8	
315.38	5960.3	
315.59	3643.3	
315.8	3417.4	
316.01	6442.2	
316.21	6493.4	
316.42	3562.1	
316.63	4042.7	
316.84	5380.7	
317.05	6291.4	
317.26	4314.4	
317.46	3838.6	
317.67	5500.8	
317.88	5921.4	
318.09	4621.6	
318.3	3337.5	
318.5	5238.7	
318.71	5829.9	
318.92	5892	
319.13	4331.5	
319.34	6006.7	
319.54	6192.4	
319.75	3383.9	
319.96	3268.6	
320.17	5954.8	
320.38	6136.4	
320.58	3283.6	
320.79	3953.9	
321	6120	
321.21	6214.9	
321.42	4007.2	
321.62	3298.6	
321.83	5112.4	
322.04	5506.3	
322.25	3893.2	
322.46	3613.3	
322.66	5664	
322.87	5866.7	
323.08	4500.8	
323.29	3603.7	
323.5	6632	
323.7	5022.3	
323.91	4994.3	
324.12	4456.4	
324.33	5578.7	
324.53	5919.3	
324.74	4334.2	
324.95	4527.4	
325.16	4880.3	
325.37	5347.2	
325.57	3662.5	
325.78	3678.2	
325.99	5618.3	
326.2	4980.7	
326.4	5156.8	
326.61	3341.6	
326.82	5458.5	
327.03	5664.7	
327.24	5239.4	
327.44	4953.4	
327.65	5817.6	
327.86	4646.8	
328.07	4290.5	
328.27	3517	
328.48	6249.7	
328.69	5078.3	
328.9	5233.9	
329.1	3953.3	
329.31	5418.9	
329.52	6426.5	
329.73	3586.7	
329.93	4115.7	
330.14	5500.2	
330.35	5786.9	
330.56	6030.6	
330.76	4471.4	
330.97	5366.4	
331.18	5723.4	
331.39	4061.1	
331.59	3274	
331.8	6140.5	
332.01	6197.8	
332.22	3792.8	
332.42	4374.5	
332.63	5623	
332.84	5212.1	
333.05	4108.9	
333.25	3679.5	
333.46	5326.8	
333.67	5541.1	
333.88	3794.2	
334.08	4200.4	
334.29	7917.4	
334.5	6216.3	
334.7	3532.7	
334.91	5220.3	
335.12	5058.5	
335.33	6004.6	
335.53	4025.6	
335.74	6015.6	
335.95	5246.9	
336.16	5149.3	
336.36	4014.7	
336.57	4687.8	
336.78	5027.1	
336.98	6152.8	
337.19	4965	
337.4	3982.6	
337.61	6672.3	
337.81	5033.2	
338.02	3713	
338.23	4792.9	
338.43	6337.8	
338.64	5169.8	
338.85	3660.4	
339.05	4814.1	
339.26	6417	
339.47	4962.9	
339.68	3648.1	
339.88	5466.7	
340.09	5768.4	
340.3	6092	
340.5	4308.9	
340.71	3222.1	
340.92	5001.8	
341.13	6289.3	
341.33	3532.1	
341.54	4327.4	
341.75	5825.8	
341.95	5332.2	
342.16	4083	
342.37	4442.7	
342.57	5084.4	
342.78	5516.5	
342.99	4521.9	
343.19	3209.2	
343.4	6012.2	
343.61	5810.8	
343.81	3852.2	
344.02	3545.7	
344.23	5992.4	
344.43	6378.1	
344.64	4526.7	
344.85	4437.9	
345.06	5792.3	
345.26	6143.2	
345.47	4238.6	
345.68	5006.6	
345.88	4876.9	
346.09	6082.5	
346.3	4337.6	
346.5	3246.7	
346.71	5551.4	
346.92	5215.5	
347.12	3291.8	
347.33	4214.7	
347.54	6111.8	
347.74	6516.6	
347.95	4193.6	
348.16	3102	
348.36	5343.8	
348.57	5100.8	
348.78	4122.6	
348.98	4465.9	
349.19	5498.8	
349.39	4953.4	
349.6	3286.3	
349.81	3761.4	
350.01	5819	
350.22	5231.2	
350.43	4015.4	
350.63	4894	
350.84	5564.3	
351.05	5353.4	
351.25	3623.5	
351.46	3338.9	
351.67	6090.7	
351.87	5181.4	
352.08	3984	
352.29	4492.6	
352.49	6016.2	
352.7	5678.3	
352.9	3564.1	
353.11	4492.6	
353.32	6748.7	
353.52	5336.3	
353.73	3515	
353.94	4515.1	
354.14	5844.2	
354.35	5638.7	
354.55	3579.8	
354.76	4040	
354.97	5744.6	
355.17	5562.3	
355.38	3440.6	
355.59	4773.1	
355.79	5283.1	
356	5669.5	
356.2	3984	
356.41	3508.9	
356.62	4943.1	
356.82	5440.1	
357.03	4280.9	
357.24	3891.1	
357.44	5251.7	
357.65	5300.8	
357.85	5183.4	
358.06	4095.9	
358.27	4990.9	
358.47	5201.2	
358.68	3345	
358.88	4272.1	
359.09	5840.8	
359.3	6281.1	
359.5	5060.5	
359.71	4473.4	
359.91	6654.5	
360.12	6000.5	
360.33	4311	
360.53	4838.7	
360.74	5242.8	
360.94	5253.7	
361.15	4551.3	
361.36	3651.5	
361.56	6090.7	
361.77	5503.6	
361.97	5040.7	
362.18	3981.3	
362.38	6069.5	
362.59	5111	
362.8	3738.2	
363	3442	
363.21	4924.7	
363.41	5588.9	
363.62	4255	
363.83	5330.2	
364.03	5711.1	
364.24	6808.8	
364.44	5386.8	
364.65	5375.2	
364.85	5540.4	
365.06	5155.4	
365.27	3900	
365.47	3847.5	
365.68	6488.6	
365.88	5459.9	
366.09	4293.2	
366.29	3956	
366.5	5772.5	
366.71	6232.7	
366.91	5358.2	
367.12	4477.5	
367.32	6870.3	
367.53	6055.8	
367.73	4434.5	
367.94	5516.5	
368.14	6007.4	
368.35	7004.1	
368.56	4496.7	
368.76	3665.2	
368.97	6114.6	
369.17	7886.7	
369.38	3917.8	
369.58	4130.1	
369.79	5135.6	
369.99	6534.4	
370.2	5255.1	
370.4	4291.9	
370.61	5831.2	
370.82	7051.8	
371.02	4195.6	
371.23	3459.7	
371.43	5020.3	
371.64	6412.2	
371.84	4248.2	
372.05	5557.5	
372.25	7911.3	
372.46	6154.1	
372.66	4255.7	
372.87	4209.9	
373.07	6296.8	
373.28	7929.7	
373.48	5350	
373.69	5072.8	
373.9	5711.1	
374.1	5709.7	
374.31	5230.5	
374.51	4766.3	
374.72	6597.2	
374.92	5380.7	
375.13	5425.8	
375.33	4627.7	
375.54	6162.3	
375.74	5627.8	
375.95	4640.7	
376.15	6070.9	
376.36	6176	
376.56	6005.3	
376.77	4848.2	
376.97	5309.7	
377.18	7406.8	
377.38	6317.3	
377.59	5687.2	
377.79	4344.4	
378	6120.7	
378.2	6657.9	
378.41	4395.6	
378.61	4285.7	
378.82	6635.4	
379.02	5728.9	
379.23	4558.8	
379.43	5789.6	
379.64	6808.8	
379.84	6363	
380.05	4351.9	
380.25	4328	
380.46	6394.4	
380.66	6014.2	
380.87	5810.8	
381.07	6188.3	
381.28	7079.8	
381.48	6415.6	
381.69	4405.2	
381.89	4420.9	
382.1	5286.5	
382.3	6640.9	
382.51	5658.5	
382.71	6514.6	
382.91	6433.4	
383.12	7018.4	
383.32	4728.8	
383.53	5034.6	
383.73	6184.9	
383.94	5974.6	
384.14	4888.5	
384.35	3909.6	
384.55	5883.8	
384.76	6448.4	
384.96	4734.2	
385.17	5083.1	
385.37	6375.3	
385.58	5646.9	
385.78	5112.4	
385.98	3867.2	
386.19	5797.8	
386.39	6294.8	
386.6	4452.3	
386.8	4769	
387.01	6386.2	
387.21	6472.9	
387.42	5154.1	
387.62	5803.9	
387.83	5623	
388.03	6470.2	
388.23	4855.1	
388.44	5714.5	
388.64	5366.4	
388.85	5509	
389.05	5251.7	
389.26	5885.9	
389.46	7521.5	
389.67	6877.1	
389.87	5242.1	
390.07	5300.1	
390.28	6062	
390.48	5666.7	
390.69	4422.9	
390.89	4788.2	
391.1	5776	
391.3	6890	
391.5	6027.2	
391.71	6692.8	
391.91	6497.5	
392.12	7664.2	
392.32	6001.9	
392.53	5186.8	
392.73	5847	
392.93	6128.2	
393.14	4904.9	
393.34	5633.3	
393.55	6606.7	
393.75	6039.5	
393.95	4926	
394.16	4760.2	
394.36	5758.9	
394.57	6533	
394.77	4270.7	
394.98	4694.6	
395.18	5795.8	
395.38	6045.6	
395.59	5755.5	
395.79	4654.4	
396	5950.7	
396.2	6492.1	
396.4	5566.4	
396.61	5539.8	
396.81	6758.3	
397.02	6012.8	
397.22	5901.6	
397.42	5939.8	
397.63	6765.1	
397.83	5908.4	
398.04	4691.9	
398.24	5246.2	
398.44	6525.5	
398.65	5569.8	
398.85	4518.5	
399.05	4668	
399.26	5940.5	
399.46	7802.1	
399.67	5102.2	
399.87	4805.9	
400.07	6382.8	
400.28	6791.1	
400.48	4952	
400.69	6134.3	
400.89	7074.4	
401.09	7519.5	
401.3	4870.1	
401.5	6109.8	
401.7	7806.9	
401.91	8060.8	
402.11	5202.5	
402.32	5496.7	
402.52	7003.4	
402.72	6807.4	
402.93	5554.8	
403.13	4260.5	
403.33	7645.1	
403.54	6270.2	
403.74	5169.8	
403.94	6084.5	
404.15	6356.9	
404.35	7619.8	
404.56	5013.4	
404.76	6933.1	
404.96	6928.3	
405.17	6805.4	
405.37	6096.8	
405.57	5641.5	
405.78	7084.6	
405.98	6399.9	
406.18	5139.7	
406.39	6049.7	
406.59	6933.1	
406.79	6507.8	
407	4820.2	
407.2	4941.1	
407.4	6919.4	
407.61	7184.3	
407.81	5016.8	
408.01	7600.7	
408.22	6021.7	
408.42	8214.4	
408.62	6339.8	
408.83	5755.5	
409.03	6930.3	
409.23	6707.1	
409.44	5976.7	
409.64	6336.4	
409.84	7867.6	
410.05	7731.8	
410.25	6150.1	
410.45	5920.7	
410.66	7317.4	
410.86	9844.6	
411.06	6472.3	
411.27	6287.9	
411.47	9720.3	
411.67	7537.2	
411.88	6548.7	
412.08	6944.7	
412.28	8273.8	
412.49	8693.6	
412.69	6303	
412.89	6384.9	
413.09	8595.3	
413.3	8479.3	
413.5	6482.5	
413.7	6049.7	
413.91	7668.3	
414.11	8699.8	
414.31	6316.6	
414.52	6832	
414.72	8304.5	
414.92	8160.5	
415.12	6406	
415.33	6845.7	
415.53	8551.6	
415.73	8809	
415.94	7319.4	
416.14	6698.9	
416.34	7587.7	
416.55	7308.5	
416.75	8054	
416.95	7408.9	
417.15	8607.6	
417.36	9448.6	
417.56	8271.7	
417.76	7256.6	
417.97	9204.3	
418.17	8782.4	
418.37	6768.5	
418.57	6975.4	
418.78	8409	
418.98	8041.7	
419.18	7755	
419.38	7656.7	
419.59	8198	
419.79	7634.1	
419.99	6647	
420.2	7023.9	
420.4	8641.1	
420.6	8858.8	
420.8	6609.5	
421.01	6471.6	
421.21	8542.8	
421.41	8722.3	
421.61	7064.8	
421.82	6650.4	
422.02	7897	
422.22	8938	
422.42	7724.3	
422.63	7010.2	
422.83	8116.8	
423.03	9345.6	
423.23	7084.6	
423.44	6004	
423.64	8074.5	
423.84	7804.1	
424.04	6528.2	
424.25	6124.1	
424.45	9139.4	
424.65	8976.9	
424.85	5831.2	
425.06	6490	
425.26	8945.5	
425.46	7431.4	
425.66	7024.5	
425.87	6759	
426.07	8636.3	
426.27	8542.1	
426.47	6822.5	
426.67	6115.9	
426.88	8923.7	
427.08	8385.7	
427.28	7153.6	
427.48	6042.9	
427.69	7249.1	
427.89	7984.3	
428.09	6989.7	
428.29	6108.4	
428.5	8645.8	
428.7	8150.2	
428.9	5982.1	
429.1	6635.4	
429.3	8088.1	
429.51	8591.9	
429.71	6287.3	
429.91	7260.7	
430.11	8406.9	
430.31	9101.9	
430.52	6711.9	
430.72	7047.1	
430.92	9026.8	
431.12	8470.4	
431.32	6270.2	
431.53	6713.2	
431.73	7296.2	
431.93	9112.1	
432.13	6213.5	
432.33	6081.1	
432.54	7892.9	
432.74	8215.8	
432.94	6075.6	
433.14	7217	
433.34	8419.9	
433.55	7854.6	
433.75	7073.7	
433.95	9084.1	
434.15	8234.9	
434.35	7909.3	
434.56	6255.9	
434.76	5827.2	
434.96	8276.5	
435.16	8541.4	
435.36	6095.4	
435.56	7336.5	
435.77	7876.5	
435.97	8031.5	
436.17	8176.9	
436.37	7378.1	
436.57	7869	
436.78	7774.8	
436.98	9264.3	
437.18	8083.3	
437.38	8608.3	
437.58	8032.1	
437.78	8021.9	
437.99	6555.5	
438.19	8533.9	
438.39	9860.3	
438.59	6427.9	
438.79	5941.8	
438.99	9220	
439.2	7907.2	
439.4	6158.2	
439.6	6121.4	
439.8	8490.2	
440	9677.3	
440.2	7352.9	
440.4	7474.4	
440.61	8912.8	
440.81	9557.9	
441.01	6517.3	
441.21	7522.2	
441.41	9316.2	
441.61	8897.1	
441.81	7742.7	
442.02	8818.6	
442.22	9819.3	
442.42	9053.4	
442.62	6632	
442.82	6579.4	
443.02	9321.7	
443.22	8418.5	
443.43	7124.2	
443.63	6621.1	
443.83	8249.2	
444.03	8321.6	
444.23	8061.5	
444.43	7503.1	
444.63	8696.4	
444.83	9873.3	
445.04	6802	
445.24	8181.6	
445.44	8946.2	
445.64	9032.9	
445.84	7453.2	
446.04	7554.3	
446.24	8204.8	
446.44	9267.1	
446.65	6647.7	
446.85	7032.7	
447.05	8289.5	
447.25	9232.9	
447.45	7161.7	
447.65	6496.2	
447.85	8514.1	
448.05	8121.6	
448.25	7544	
448.46	7374.7	
448.66	8479.3	
448.86	8256.7	
449.06	6330.3	
449.26	7514.7	
449.46	8993.3	
449.66	7972.7	
449.86	7170.6	
450.06	6995.9	
450.26	8133.2	
450.47	8757.8	
450.67	7250.5	
450.87	7658	
451.07	8774.9	
451.27	8682.7	
451.47	6602.7	
451.67	7245	
451.87	8176.2	
452.07	9392	
452.27	6855.9	
452.47	6768.5	
452.67	8444.5	
452.88	9108.7	
453.08	6057.2	
453.28	8217.1	
453.48	9827.5	
453.68	8348.9	
453.88	6717.3	
454.08	6987.7	
454.28	8841.8	
454.48	8510	
454.68	7589.8	
454.88	8095.6	
455.08	9015.2	
455.28	8849.3	
455.48	6589	
455.68	7217.7	
455.89	9581.1	
456.09	9216.5	
456.29	6944.7	
456.49	7139.9	
456.69	9459.6	
456.89	8628.1	
457.09	7660.1	
457.29	8023.3	
457.49	8976.9	
457.69	9241.1	
457.89	7523.6	
458.09	6866.2	
458.29	8758.5	
458.49	9559.2	
458.69	7984.3	
458.89	7307.8	
459.09	9830.9	
459.29	9957.2	
459.49	7423.2	
459.69	8264.2	
459.9	9338.7	
460.1	8873.8	
460.3	7223.2	
460.5	7131	
460.7	9349	
460.9	9064.3	
461.1	6762.4	
461.3	8186.4	
461.5	10069	
461.7	9559.9	
461.9	7329	
462.1	7834.8	
462.3	9107.3	
462.5	9765.4	
462.7	7351.5	
462.9	7541.3	
463.1	10978	
463.3	10553	
463.5	7705.8	
463.7	8736	
463.9	9525.8	
464.1	9898.5	
464.3	7991.9	
464.5	8169.3	
464.7	10231	
464.9	9770.2	
465.1	9489.6	
465.3	8531.8	
465.5	10501	
465.7	10505	
465.9	8877.9	
466.1	8645.8	
466.3	10253	
466.5	9998.2	
466.7	9585.9	
466.9	8365.3	
467.1	10080	
467.3	11069	
467.5	9610.4	
467.7	8320.2	
467.9	11340	
468.1	12205	
468.3	9179	
468.5	9691	
468.7	10131	
468.9	10176	
469.1	8656.8	
469.3	9361.3	
469.5	12236	
469.7	9667.8	
469.9	9230.2	
470.1	8411	
470.3	10161	
470.5	10178	
470.7	9710.8	
470.9	8503.2	
471.1	9947	
471.3	10306	
471.5	8298.4	
471.69	10348	
471.89	9835.7	
472.09	9176.9	
472.29	9161.2	
472.49	9434.3	
472.69	9458.2	
472.89	10235	
473.09	8093.6	
473.29	8269.7	
473.49	9645.3	
473.69	9638.4	
473.89	9325.1	
474.09	8429.4	
474.29	11015	
474.49	10691	
474.69	9280	
474.89	8477.2	
475.09	9714.9	
475.29	9700.5	
475.49	7913.4	
475.69	8161.8	
475.88	11403	
476.08	9924.5	
476.28	7835.5	
476.48	8272.4	
476.68	10355	
476.88	10254	
477.08	8102.4	
477.28	8461.5	
477.48	9676	
477.68	10417	
477.88	7933.1	
478.08	8183.7	
478.28	10643	
478.48	9873.3	
478.67	8279.9	
478.87	7697.6	
479.07	10661	
479.27	9856.9	
479.47	8618.5	
479.67	8442.4	
479.87	10345	
480.07	11078	
480.27	7707.2	
480.47	9491.7	
480.67	9999.5	
480.87	10679	
481.06	8065.6	
481.26	8957.1	
481.46	9913.5	
481.66	9826.2	
481.86	8426	
482.06	9540.8	
482.26	9583.8	
482.46	10586	
482.66	8436.9	
482.86	7983.7	
483.05	10003	
483.25	9351	
483.45	11028	
483.65	8416.5	
483.85	9486.9	
484.05	9911.5	
484.25	8988.5	
484.45	9347.6	
484.65	10798	
484.84	10885	
485.04	8386.4	
485.24	8379.6	
485.44	10998	
485.64	9282.1	
485.84	7744.7	
486.04	9085.5	
486.24	9626.8	
486.44	10112	
486.63	7584.3	
486.83	8408.3	
487.03	9578.3	
487.23	9768.8	
487.43	7666.2	
487.63	10318	
487.83	9860.3	
488.02	10905	
488.22	8761.2	
488.42	9463	
488.62	10770	
488.82	9761.3	
489.02	8327	
489.22	8480.6	
489.41	10548	
489.61	10228	
489.81	8137.3	
490.01	8134.5	
490.21	10542	
490.41	11226	
490.61	7850.5	
490.8	8105.9	
491	9970.2	
491.2	9155.8	
491.4	8712.7	
491.6	7656.7	
491.8	9792.7	
491.99	9980.4	
492.19	7604.1	
492.39	8090.2	
492.59	10583	
492.79	10606	
492.99	9100.5	
493.18	8144.8	
493.38	10662	
493.58	11540	
493.78	8903.9	
493.98	8513.4	
494.18	10458	
494.37	9840.5	
494.57	9297.1	
494.77	9022.7	
494.97	10813	
495.17	11080	
495.37	8586.5	
495.56	8996.7	
495.76	11267	
495.96	10885	
496.16	9962	
496.36	8776.2	
496.55	11031	
496.75	10537	
496.95	9180.4	
497.15	9106	
497.35	10955	
497.54	10979	
497.74	8926.4	
497.94	10768	
498.14	11853	
498.34	11566	
498.53	8633.6	
498.73	9408.4	
498.93	10471	
499.13	10938	
499.33	9272.5	
499.52	9824.1	
499.72	10966	
499.92	11355	
500.12	8966	
500.32	9114.1	
500.51	11272	
500.71	11009	
500.91	9959.3	
501.11	9613.2	
501.31	11236	
501.5	11640	
501.7	10322	
501.9	9096.4	
502.1	10974	
502.29	11322	
502.49	9650.7	
502.69	10123	
502.89	11110	
503.09	11131	
503.28	8589.9	
503.48	8681.3	
503.68	10331	
503.88	10253	
504.07	9734	
504.27	9146.9	
504.47	10741	
504.67	10804	
504.86	9543.5	
505.06	9308	
505.26	10308	
505.46	12182	
505.65	9075.9	
505.85	9256.1	
506.05	10165	
506.25	10590	
506.44	8368	
506.64	9370.1	
506.84	10030	
507.04	11105	
507.23	8562.6	
507.43	9181.7	
507.63	12169	
507.83	10327	
508.02	9118.9	
508.22	8666.3	
508.42	12429	
508.62	10129	
508.81	9344.9	
509.01	9658.9	
509.21	9805.7	
509.4	10142	
509.6	9231.6	
509.8	8502.5	
510	10148	
510.19	11643	
510.39	8538.7	
510.59	8540.7	
510.79	9940.2	
510.98	11409	
511.18	8624.7	
511.38	8817.9	
511.57	10686	
511.77	10638	
511.97	9329.2	
512.17	8267.6	
512.36	10713	
512.56	10669	
512.76	8436.9	
512.95	8212.4	
513.15	10874	
513.35	9407.7	
513.55	9336.7	
513.74	8452	
513.94	10742	
514.14	10031	
514.33	9366	
514.53	9052	
514.73	9936.1	
514.92	10223	
515.12	8689.5	
515.32	8305.2	
515.51	10228	
515.71	10949	
515.91	10129	
516.11	8460.8	
516.3	12173	
516.5	9824.8	
516.7	9108.7	
516.89	9614.5	
517.09	10069	
517.29	9869.8	
517.48	9196.7	
517.68	8649.3	
517.88	9661	
518.07	10360	
518.27	9175.6	
518.47	8177.5	
518.66	11000	
518.86	9531.9	
519.06	7910.6	
519.25	8436.3	
519.45	9892.4	
519.65	11505	
519.84	9102.5	
520.04	9847.3	
520.24	11828	
520.43	10491	
520.63	8712.7	
520.83	8424	
521.02	9506	
521.22	10361	
521.42	8950.3	
521.61	9594.1	
521.81	9804.3	
522.01	10062	
522.2	8905.3	
522.4	8668.4	
522.6	10568	
522.79	9262.3	
522.99	8799.4	
523.18	8051.2	
523.38	10375	
523.58	10338	
523.77	10241	
523.97	8014.4	
524.17	12341	
524.36	11418	
524.56	9434.3	
524.76	9170.1	
524.95	10350	
525.15	10045	
525.34	8901.8	
525.54	8867.7	
525.74	10772	
525.93	9816.6	
526.13	10265	
526.33	8938.7	
526.52	11093	
526.72	10647	
526.91	10225	
527.11	9441.8	
527.31	11185	
527.5	11662	
527.7	9347.6	
527.89	8275.8	
528.09	10068	
528.29	10678	
528.48	9821.4	
528.68	9470.5	
528.87	11056	
529.07	10940	
529.27	9213.1	
529.46	8750.3	
529.66	10458	
529.85	10900	
530.05	8480	
530.25	9346.9	
530.44	12036	
530.64	10458	
530.83	8925.7	
531.03	9286.2	
531.23	10934	
531.42	10842	
531.62	10057	
531.81	9105.3	
532.01	11044	
532.21	11683	
532.4	8949.6	
532.6	9330.5	
532.79	12059	
532.99	11283	
533.18	9287.5	
533.38	10297	
533.58	10824	
533.77	11596	
533.97	9364	
534.16	10191	
534.36	11820	
534.55	10797	
534.75	10355	
534.95	9394.7	
535.14	11609	
535.34	10801	
535.53	8941.4	
535.73	11026	
535.92	12137	
536.12	10869	
536.31	8957.1	
536.51	10371	
536.71	11088	
536.9	10738	
537.1	9287.5	
537.29	9314.2	
537.49	11645	
537.68	10632	
537.88	9837.1	
538.07	8976.2	
538.27	10793	
538.46	12074	
538.66	8824	
538.86	9219.3	
539.05	10978	
539.25	11378	
539.44	9630.9	
539.64	9125.7	
539.83	10678	
540.03	11785	
540.22	8969.4	
540.42	9112.8	
540.61	10851	
540.81	11069	
541	9560.6	
541.2	10237	
541.39	10501	
541.59	10743	
541.78	9987.9	
541.98	8796	
542.18	10004	
542.37	9925.1	
542.57	9293.7	
542.76	9944.9	
542.96	10064	
543.15	10881	
543.35	9155.8	
543.54	8566	
543.74	11037	
543.93	10691	
544.13	9258.2	
544.32	10495	
544.52	11037	
544.71	10122	
544.91	8300.4	
545.1	9731.3	
545.3	10201	
545.49	10893	
545.69	8182.3	
545.88	8814.5	
546.08	11864	
546.27	11381	
546.47	9470.5	
546.66	8568	
546.86	11118	
547.05	11750	
547.24	8926.4	
547.44	8658.8	
547.63	9856.2	
547.83	11200	
548.02	9144.2	
548.22	9234.3	
548.41	9664.4	
548.61	11176	
548.8	8535.3	
549	8597.4	
549.19	10367	
549.39	10738	
549.58	8223.3	
549.78	8813.8	
549.97	10738	
550.17	10214	
550.36	9772.2	
550.55	10882	
550.75	10228	
550.94	11151	
551.14	8336.6	
551.33	8774.2	
551.53	9486.9	
551.72	10605	
551.92	8881.4	
552.11	8533.9	
552.31	10585	
552.5	10584	
552.69	10380	
552.89	8108.6	
553.08	10428	
553.28	10175	
553.47	8566	
553.67	9733.3	
553.86	11192	
554.06	9353.8	
554.25	7653.9	
554.44	8348.9	
554.64	11970	
554.83	11406	
555.03	8297	
555.22	8513.4	
555.42	10565	
555.61	10330	
555.8	8377.6	
556	8796	
556.19	9425.4	
556.39	10684	
556.58	8470.4	
556.78	8449.2	
556.97	10152	
557.16	9938.1	
557.36	9824.1	
557.55	8030.8	
557.75	9152.4	
557.94	10948	
558.13	8144.8	
558.33	7860.1	
558.52	10794	
558.72	9532.6	
558.91	8001.4	
559.1	8279.9	
559.3	9247.3	
559.49	8928.5	
559.69	7531.1	
559.88	8594.6	
560.07	9977	
560.27	10418	
560.46	8749.6	
560.66	9002.9	
560.85	9797.5	
561.04	8926.4	
561.24	7864.9	
561.43	8187.8	
561.63	9245.9	
561.82	9499.2	
562.01	9450.7	
562.21	8436.3	
562.4	9997.5	
562.59	11045	
562.79	8338	
562.98	7942.7	
563.18	9918.3	
563.37	11538	
563.56	8834.9	
563.76	7746.8	
563.95	9280	
564.14	9127.1	
564.34	8219.2	
564.53	8032.1	
564.73	9818.6	
564.92	10223	
565.11	8454	
565.31	7732.4	
565.5	10501	
565.69	9362.6	
565.89	7983	
566.08	8288.8	
566.27	10234	
566.47	10739	
566.66	8924.4	
566.85	7462.1	
567.05	9864.4	
567.24	9115.5	
567.44	7901.7	
567.63	9393.3	
567.82	10057	
568.02	9743.6	
568.21	7881.3	
568.4	8312	
568.6	9648.7	
568.79	9805.7	
568.98	7685.3	
569.18	7847.8	
569.37	9609.8	
569.56	11866	
569.76	8223.3	
569.95	9224.7	
570.14	10049	
570.34	10049	
570.53	7640.3	
570.72	7711.3	
570.91	10617	
571.11	9631.6	
571.3	8279.9	
571.49	9114.8	
571.69	9693.7	
571.88	9209	
572.07	8847.2	
572.27	8727.8	
572.46	9259.5	
572.65	10313	
572.85	7903.8	
573.04	8328.4	
573.23	10483	
573.43	9737.4	
573.62	7724.9	
573.81	8348.2	
574	9828.9	
574.2	9620	
574.39	8131.8	
574.58	8253.3	
574.78	10730	
574.97	9904	
575.16	8668.4	
575.36	8843.1	
575.55	10331	
575.74	10506	
575.93	7691.5	
576.13	8801.5	
576.32	9594.1	
576.51	10248	
576.71	8191.9	
576.9	9551.7	
577.09	10584	
577.28	10135	
577.48	8675.9	
577.67	7533.1	
577.86	9721	
578.05	10017	
578.25	8206.2	
578.44	8386.4	
578.63	9794.8	
578.83	11077	
579.02	7676.5	
579.21	9378.3	
579.4	10002	
579.6	9617.9	
579.79	8423.3	
579.98	10733	
580.17	10277	
580.37	10402	
580.56	7819.8	
580.75	8710.7	
580.94	10947	
581.14	10748	
581.33	9200.2	
581.52	7991.9	
581.71	10256	
581.91	10957	
582.1	7675.1	
582.29	8267	
582.48	9740.1	
582.68	9678.7	
582.87	8817.2	
583.06	8353	
583.25	10175	
583.45	9966.8	
583.64	9065.7	
583.83	9838.4	
584.02	9593.4	
584.21	10007	
584.41	8987.9	
584.6	8250.6	
584.79	9801.6	
584.98	10578	
585.18	7652.6	
585.37	7734.5	
585.56	9283.4	
585.75	10082	
585.94	7957.7	
586.14	8660.2	
586.33	10701	
586.52	9685.5	
586.71	8421.9	
586.91	8147.5	
587.1	9058.2	
587.29	10131	
587.48	8085.4	
587.67	7950.2	
587.87	10080	
588.06	10124	
588.25	9327.8	
588.44	8622.6	
588.63	9599.5	
588.83	10309	
589.02	7948.8	
589.21	7892.9	
589.4	9379	
589.59	9206.3	
589.78	7107.8	
589.98	7338.6	
590.17	8766	
590.36	9352.4	
590.55	6630.6	
590.74	7586.4	
590.94	10864	
591.13	9316.2	
591.32	7389.1	
591.51	6915.3	
591.7	9862.3	
591.89	9217.2	
592.09	7083.9	
592.28	7580.2	
592.47	8439.7	
592.66	10437	
592.85	7005.4	
593.05	7249.1	
593.24	9089.6	
593.43	9848	
593.62	7256	
593.81	7860.1	
594	8979	
594.19	9423.4	
594.39	7169.9	
594.58	7163.1	
594.77	9396.8	
594.96	10072	
595.15	7053.9	
595.34	7793.9	
595.54	9420.7	
595.73	8473.8	
595.92	6344.6	
596.11	7666.2	
596.3	9989.3	
596.49	8598.1	
596.68	7380.9	
596.88	7966.6	
597.07	9629.5	
597.26	8310.7	
597.45	6915.3	
597.64	8177.5	
597.83	8497	
598.02	9271.2	
598.22	6916.7	
598.41	7695.6	
598.6	9082.1	
598.79	8434.2	
598.98	6991.8	
599.17	8021.9	
599.36	9097.8	
599.55	10322	
599.74	9100.5	
599.94	8809.7	
600.13	9586.5	
600.32	8353.7	
600.51	6669.6	
600.7	6801.3	
600.89	10301	
601.08	10241	
601.27	6539.8	
601.47	7585.7	
601.66	9539.4	
601.85	10118	
602.04	7249.8	
602.23	7517.4	
602.42	8460.2	
602.61	9107.3	
602.8	7145.4	
602.99	6959.7	
603.18	8824	
603.37	9094.3	
603.57	7579.5	
603.76	8176.9	
603.95	9841.9	
604.14	9424.8	
604.33	6974.7	
604.52	7316.7	
604.71	9014.5	
604.9	8600.8	
605.09	7918.1	
605.28	7770	
605.47	9564	
605.66	9242.5	
605.86	7637.6	
606.05	6932.4	
606.24	9584.5	
606.43	8039.6	
606.62	7252.5	
606.81	8083.3	
607	9422.7	
607.19	8662.9	
607.38	6684.6	
607.57	6949.4	
607.76	8475.2	
607.95	7976.8	
608.14	7382.9	
608.33	7949.5	
608.52	8451.3	
608.72	9438.4	
608.91	6655.2	
609.1	6523.5	
609.29	8630.1	
609.48	7904.5	
609.67	7404.1	
609.86	6514.6	
610.05	8100.4	
610.24	8482	
610.43	6421.7	
610.62	6021	
610.81	9700.5	
611	9338.7	
611.19	6503	
611.38	7258.7	
611.57	8758.5	
611.76	10234	
611.95	6278.4	
612.14	6120	
612.33	8463.6	
612.52	8040.3	
612.71	7005.4	
612.9	6010.8	
613.09	7645.1	
613.28	10130	
613.47	6575.3	
613.66	7585.7	
613.85	8667	
614.04	8221.2	
614.24	6693.4	
614.43	5790.3	
614.62	8827.4	
614.81	8753	
615	7285.3	
615.19	7223.2	
615.38	8070.4	
615.57	8482	
615.76	7047.1	
615.95	8056	
616.14	8766	
616.33	8458.8	
616.52	7416.4	
616.71	7604.8	
616.9	8811.7	
617.09	8594.6	
617.28	6654.5	
617.47	8177.5	
617.66	7823.9	
617.85	7858.7	
618.04	7757	
618.22	7058.7	
618.41	8146.8	
618.6	9183.8	
618.79	6941.2	
618.98	6634.1	
619.17	9463.7	
619.36	7641	
619.55	6821.1	
619.74	6824.5	
619.93	8664.3	
620.12	8109.3	
620.31	7504.4	
620.5	7585.7	
620.69	9438.4	
620.88	9619.3	
621.07	8338	
621.26	7255.3	
621.45	8862.2	
621.64	8882.7	
621.83	7410.2	
622.02	6516	
622.21	8890.2	
622.4	8538.7	
622.59	7954.3	
622.78	7760.4	
622.97	8223.3	
623.16	9288.9	
623.35	7246.4	
623.54	6436.8	
623.72	8385.7	
623.91	8555	
624.1	7576.1	
624.29	6212.2	
624.48	9691	
624.67	8897.1	
624.86	7468.9	
625.05	6532.3	
625.24	9893.7	
625.43	8064.9	
625.62	9265.7	
625.81	6726.9	
626	9233.6	
626.19	8455.4	
626.38	7528.3	
626.56	6875	
626.75	8325.7	
626.94	9030.9	
627.13	7549.5	
627.32	6209.4	
627.51	8922.3	
627.7	10346	
627.89	6071.5	
628.08	7570	
628.27	8013	
628.46	8348.2	
628.65	6716.7	
628.83	6237.4	
629.02	8825.4	
629.21	8153	
629.4	7088.7	
629.59	7311.9	
629.78	8041.7	
629.97	9171.5	
630.16	7410.2	
630.35	6767.9	
630.54	9539.4	
630.72	9248.6	
630.91	6724.2	
631.1	7322.9	
631.29	8686.1	
631.48	8863.6	
631.67	7363.1	
631.86	6842.3	
632.05	8286.8	
632.24	8338.6	
632.42	6504.3	
632.61	7129	
632.8	8431.5	
632.99	7987.8	
633.18	7161.1	
633.37	7582.3	
633.56	8655.4	
633.75	8432.2	
633.93	7071	
634.12	6718	
634.31	9501.9	
634.5	9041.1	
634.69	6881.2	
634.88	7349.5	
635.07	8318.8	
635.25	9044.5	
635.44	7776.1	
635.63	7927	
635.82	8088.1	
636.01	7731.8	
636.2	7758.4	
636.39	7216.4	
636.57	9374.9	
636.76	9125.7	
636.95	6575.3	
637.14	8080.6	
637.33	8686.8	
637.52	9692.4	
637.7	6375.3	
637.89	7365.2	
638.08	8278.6	
638.27	9819.3	
638.46	7361.8	
638.65	7914.7	
638.83	9771.5	
639.02	7968.6	
639.21	7351.5	
639.4	7857.4	
639.59	8568.7	
639.78	8127	
639.96	6610.2	
640.15	6570.6	
640.34	8411.7	
640.53	8545.5	
640.72	6342.6	
640.91	6692.8	
641.09	7798.7	
641.28	9241.1	
641.47	6599.2	
641.66	7563.1	
641.85	8472.4	
642.03	8850	
642.22	7292.8	
642.41	6778.1	
642.6	7920.9	
642.79	7331	
642.97	6503	
643.16	7314	
643.35	7867.6	
643.54	7709.9	
643.73	6423.8	
643.91	7218.4	
644.1	7572.7	
644.29	8178.2	
644.48	6509.1	
644.67	6554.9	
644.85	7752.9	
645.04	8108.6	
645.23	6038.8	
645.42	6365.8	
645.6	7576.8	
645.79	8873.8	
645.98	6438.8	
646.17	5451.7	
646.36	7349.5	
646.54	8036.9	
646.73	7286.7	
646.92	5993	
647.11	7552.2	
647.29	8790.6	
647.48	6118.6	
647.67	5799.8	
647.86	8969.4	
648.05	9000.1	
648.23	6518	
648.42	7820.5	
648.61	8294.3	
648.8	8000.7	
648.98	6025.1	
649.17	6402	
649.36	7630	
649.55	6971.3	
649.73	6091.3	
649.92	6885.3	
650.11	7477.8	
650.3	7788.4	
650.48	6219	
650.67	5920	
650.86	8185	
651.05	7002.7	
651.23	6199.9	
651.42	6193.7	
651.61	7542.7	
651.79	7666.2	
651.98	6332.3	
652.17	5948.7	
652.36	7952.9	
652.54	7068.2	
652.73	6029.9	
652.92	5812.1	
653.11	8023.9	
653.29	8045.8	
653.48	5199.1	
653.67	6332.3	
653.85	7755.7	
654.04	8872.5	
654.23	6584.2	
654.42	5986.9	
654.6	7270.3	
654.79	7903.8	
654.98	5496.1	
655.16	5961	
655.35	6755.6	
655.54	6808.1	
655.73	5565	
655.91	5438	
656.1	8140.7	
656.29	6753.5	
656.47	5069.4	
656.66	6892.8	
656.85	7050.5	
657.03	7129.7	
657.22	5627.8	
657.41	5741.8	
657.59	7162.4	
657.78	6937.8	
657.97	5270.8	
658.16	6074.3	
658.34	7843	
658.53	8269.7	
658.72	7044.3	
658.9	7576.8	
659.09	7227.3	
659.28	7367.9	
659.46	5700.2	
659.65	5671.5	
659.84	7006.1	
660.02	7459.4	
660.21	5563.6	
660.4	5528.2	
660.58	8117.5	
660.77	7391.8	
660.96	6185.5	
661.14	5108.3	
661.33	8596.7	
661.52	8459.5	
661.7	5069.4	
661.89	9104.6	
662.08	6879.1	
662.26	6499.6	
662.45	5463.3	
662.64	5582.1	
662.82	7589.1	
663.01	6709.8	
663.2	5608	
663.38	6374	
663.57	7578.2	
663.75	7375.4	
663.94	5852.4	
664.13	7326.3	
664.31	6877.1	
664.5	7577.5	
664.69	6042.2	
664.87	6840.2	
665.06	6537.8	
665.25	7454.6	
665.43	7010.9	
665.62	7047.7	
665.8	7770.7	
665.99	6944	
666.18	5877	
666.36	5983.5	
666.55	7664.2	
666.74	7555.6	
666.92	5516.5	
667.11	7238.9	
667.29	7075.7	
667.48	7728.4	
667.67	6774.7	
667.85	5917.9	
668.04	7071.6	
668.22	7101	
668.41	5879	
668.6	6070.9	
668.78	6786.3	
668.97	7008.1	
669.15	6301.6	
669.34	5190.9	
669.53	6822.5	
669.71	7169.9	
669.9	5378.6	
670.08	6087.9	
670.27	6769.2	
670.46	7507.9	
670.64	6305	
670.83	6539.2	
671.01	6694.8	
671.2	7385.7	
671.38	5371.8	
671.57	5332.2	
671.76	8046.5	
671.94	8590.5	
672.13	5272.2	
672.31	6462.7	
672.5	7534.5	
672.69	6778.8	
672.87	5421	
673.06	5772.5	
673.24	7363.8	
673.43	6870.3	
673.61	6309.8	
673.8	5810.8	
673.98	7608.2	
674.17	7810.3	
674.36	6385.6	
674.54	6244.9	
674.73	7296.2	
674.91	7685.3	
675.1	5928.9	
675.28	5475.6	
675.47	7071	
675.65	7647.1	
675.84	5685.8	
676.03	6051.7	
676.21	6808.8	
676.4	6333	
676.58	6612.9	
676.77	6253.8	
676.95	8355.7	
677.14	6755.6	
677.32	5397.8	
677.51	5122.7	
677.69	7598.6	
677.88	6328.9	
678.06	5205.3	
678.25	5396.4	
678.44	7061.4	
678.62	6777.4	
678.81	5085.8	
678.99	6123.4	
679.18	7884.7	
679.36	7419.1	
679.55	5671.5	
679.73	6401.3	
679.92	7415	
680.1	6688	
680.29	6937.2	
680.47	5660.6	
680.66	6689.3	
680.84	7629.4	
681.03	4910.3	
681.21	6081.1	
681.4	6780.8	
681.58	6646.3	
681.77	5457.8	
681.95	5290.6	
682.14	7668.3	
682.32	8000.7	
682.51	6343.2	
682.69	5106.3	
682.88	6688	
683.06	7352.2	
683.25	6036	
683.43	6482.5	
683.62	6888	
683.8	7363.8	
683.99	6546	
684.17	5922.7	
684.36	8338.6	
684.54	6881.9	
684.73	5002.5	
684.91	5352.7	
685.1	7197.9	
685.28	6590.4	
685.46	5878.4	
685.65	5958.2	
685.83	7591.1	
686.02	6853.2	
686.2	5389.6	
686.39	5495.4	
686.57	6535.1	
686.76	8243.1	
686.94	5402.5	
687.13	5520.6	
687.31	7402.7	
687.5	6854.6	
687.68	4941.1	
687.86	6398.5	
688.05	8652.7	
688.23	6339.8	
688.42	6412.2	
688.6	5395	
688.79	6745.3	
688.97	6720.1	
689.16	5853.8	
689.34	4700.1	
689.52	7521.5	
689.71	7750.9	
689.89	6102.3	
690.08	5336.3	
690.26	7021.8	
690.45	6976.1	
690.63	6353.5	
690.81	5625.1	
691	6733.7	
691.18	6665.5	
691.37	5769.8	
691.55	8121.6	
691.74	6715.3	
691.92	8824	
692.1	5857.2	
692.29	5075.5	
692.47	6893.5	
692.66	6102.9	
692.84	5373.2	
693.02	6006.7	
693.21	6279.8	
693.39	6817.7	
693.58	6038.8	
693.76	5513.8	
693.94	8058.8	
694.13	7796.6	
694.31	5309	
694.5	6559	
694.68	6630	
694.86	6935.1	
695.05	5713.8	
695.23	5809.4	
695.42	7339.9	
695.6	9901.2	
695.78	6393.8	
695.97	5431.2	
696.15	7371.3	
696.34	6725.5	
696.52	5188.2	
696.7	6071.5	
696.89	7135.8	
697.07	6498.2	
697.25	5991.7	
697.44	7656.7	
697.62	7132.4	
697.81	7477.1	
697.99	5638.7	
698.17	6197.8	
698.36	6382.8	
698.54	7128.3	
698.72	6100.2	
698.91	5004.6	
699.09	6679.8	
699.28	6574.7	
699.46	5641.5	
699.64	5563	
699.83	6467.5	
700.01	7857.4	
700.19	6373.3	
700.38	4637.3	
700.56	7815	
700.74	6565.8	
700.93	5145.9	
701.11	5984.2	
701.29	7180.9	
701.48	8310	
701.66	5350.7	
701.84	5360.2	
702.03	6652.5	
702.21	7341.3	
702.39	4857.1	
702.58	5487.9	
702.76	7023.2	
702.94	7180.2	
703.13	4877.6	
703.31	7561.8	
703.49	6369.2	
703.68	7393.2	
703.86	5132.9	
704.04	6135	
704.23	6878.4	
704.41	7359.7	
704.59	5279	
704.78	6618.4	
704.96	8029.4	
705.14	7365.2	
705.33	5010	
705.51	5944.6	
705.69	6757.6	
705.87	7632.1	
706.06	6242.2	
706.24	4914.4	
706.42	7016.3	
706.61	7293.5	
706.79	6260.6	
706.97	4914.4	
707.16	6484.6	
707.34	7107.8	
707.52	6195.8	
707.7	5328.8	
707.89	6610.2	
708.07	6341.2	
708.25	6163	
708.44	6279.1	
708.62	6602.7	
708.8	7757.7	
708.98	6404.7	
709.17	5309	
709.35	6987.7	
709.53	7032.7	
709.72	5024.3	
709.9	5264	
710.08	7199.3	
710.26	7266.2	
710.45	6821.1	
710.63	5401.2	
710.81	6920.8	
710.99	6909.2	
711.18	6106.4	
711.36	5551.4	
711.54	6794.5	
711.72	7512.6	
711.91	5608.7	
712.09	4991.6	
712.27	6916.7	
712.45	7666.9	
712.64	5907	
712.82	4746.5	
713	6351.4	
713.18	6498.2	
713.37	4965	
713.55	6284.5	
713.73	7558.4	
713.91	5988.9	
714.1	5496.1	
714.28	4965.6	
714.46	7206.8	
714.64	6344.6	
714.83	4319.8	
715.01	5300.8	
715.19	6460	
715.37	5853.1	
715.55	5068	
715.74	5367.7	
715.92	7565.9	
716.1	5392.3	
716.28	6437.4	
716.47	5477.6	
716.65	6103.6	
716.83	6208.1	
717.01	5297.4	
717.19	5421	
717.38	8479.3	
717.56	5870.2	
717.74	5611.4	
717.92	4716.5	
718.1	7209.5	
718.29	6358.3	
718.47	4240.7	
718.65	4986.1	
718.83	7075	
719.01	6817.7	
719.2	4078.2	
719.38	5242.1	
719.56	6569.2	
719.74	8130.4	
719.92	4746.5	
720.11	5899.5	
720.29	6670.2	
720.47	5714.5	
720.65	4330.1	
720.83	5326.8	
721.02	6111.1	
721.2	5829.9	
721.38	5474.9	
721.56	4546.5	
721.74	5368.4	
721.92	5685.2	
722.11	5967.8	
722.29	5700.2	
722.47	6965.8	
722.65	6092	
722.83	4551.3	
723.01	5616.9	
723.2	6165.8	
723.38	6468.9	
723.56	3964.9	
723.74	5267.4	
723.92	5593	
724.1	6858.6	
724.29	4516.5	
724.47	5769.1	
724.65	5657.9	
724.83	5632.6	
725.01	4391.5	
725.19	5401.9	
725.37	5659.9	
725.56	5753.4	
725.74	4235.2	
725.92	4529.4	
726.1	5631.9	
726.28	5963.7	
726.46	5032.5	
726.64	4681	
726.83	5874.9	
727.01	6232	
727.19	4221.5	
727.37	5171.8	
727.55	6055.8	
727.73	6614.9	
727.91	4229.7	
728.09	4046.8	
728.28	6683.2	
728.46	7318.8	
728.64	5227.1	
728.82	5216.9	
729	7765.9	
729.18	6952.2	
729.36	4321.9	
729.54	6816.3	
729.72	8038.3	
729.91	6144.6	
730.09	6378.7	
730.27	5119.2	
730.45	6016.9	
730.63	6723.5	
730.81	5674.9	
730.99	4662.5	
731.17	7301.7	
731.35	5705	
731.53	5291.3	
731.71	4763.6	
731.9	6914.6	
732.08	7232.7	
732.26	5032.5	
732.44	4694.6	
732.62	7247.8	
732.8	6664.8	
732.98	5546.6	
733.16	4505.5	
733.34	6681.2	
733.52	5371.8	
733.7	5094	
733.88	5345.2	
734.07	6531	
734.25	6276.3	
734.43	4492.6	
734.61	6180.1	
734.79	7899.7	
734.97	6085.9	
735.15	4634.6	
735.33	5011.4	
735.51	6490	
735.69	6167.8	
735.87	6218.3	
736.05	5232.6	
736.23	6367.1	
736.41	6108.4	
736.59	5069.4	
736.77	5171.8	
736.95	6804.7	
737.13	6214.2	
737.32	4717.2	
737.5	4960.9	
737.68	7359.7	
737.86	6077	
738.04	4448.2	
738.22	6481.1	
738.4	5806	
738.58	6177.4	
738.76	5130.2	
738.94	3934.8	
739.12	5950.7	
739.3	5894.7	
739.48	5845.6	
739.66	5550.7	
739.84	6366.5	
740.02	6249.7	
740.2	4037.2	
740.38	4487.8	
740.56	6743.3	
740.74	5491.3	
740.92	5274.9	
741.1	5144.5	
741.28	6117.3	
741.46	5968.5	
741.64	4809.3	
741.82	5348.6	
742	6150.1	
742.18	6122.7	
742.36	5012.1	
742.54	4517.8	
742.72	6759.7	
742.9	5388.9	
743.08	5358.9	
743.26	4065.2	
743.44	7008.1	
743.62	6819.1	
743.8	5560.9	
743.98	4545.8	
744.16	6495.5	
744.34	6188.3	
744.52	5449.6	
744.7	5347.9	
744.88	6605.4	
745.06	6206.7	
745.24	5564.3	
745.42	5668.1	
745.6	6776.7	
745.78	6499.6	
745.96	4299.4	
746.14	4650.3	
746.32	7573.4	
746.5	6795.2	
746.68	5268.1	
746.86	4637.3	
747.03	7249.8	
747.21	5402.5	
747.39	5307	
747.57	4703.5	
747.75	6378.7	
747.93	6758.3	
748.11	4748.6	
748.29	4610	
748.47	8018.5	
748.65	6088.6	
748.83	5451.7	
749.01	5099.4	
749.19	6556.2	
749.37	5677.7	
749.55	4989.5	
749.73	5081.7	
749.91	6205.3	
750.09	5917.3	
750.26	5210	
750.44	4567	
750.62	6295.5	
750.8	6234	
750.98	4373.1	
751.16	4704.9	
751.34	6323.4	
751.52	5652.4	
751.7	5571.8	
751.88	4343.1	
752.06	6880.5	
752.24	6663.4	
752.42	4278.9	
752.59	4642.7	
752.77	6192.4	
752.95	7502.4	
753.13	5468.1	
753.31	4848.9	
753.49	5875.6	
753.67	6375.3	
753.85	5119.9	
754.03	4752	
754.21	6731.7	
754.38	7032	
754.56	4892.6	
754.74	3925.3	
754.92	5923.4	
755.1	6701	
755.28	3932.8	
755.46	3980.6	
755.64	7548.8	
755.82	7685.3	
755.99	4325.3	
756.17	4472.1	
756.35	5010	
756.53	6722.1	
756.71	3317.7	
756.89	4302.1	
757.07	6262	
757.25	5335.6	
757.42	5002.5	
757.6	5882.4	
757.78	6321.4	
757.96	5225.1	
758.14	4597	
758.32	4029.7	
758.5	4772.4	
758.67	5722	
758.85	4390.8	
759.03	4583.4	
759.21	5895.4	
759.39	5223.7	
759.57	3879.5	
759.75	5161.6	
759.92	6526.2	
760.1	5690.6	
760.28	5537.7	
760.46	5816.9	
760.64	5485.1	
760.82	5188.2	
760.99	5161.6	
761.17	4483	
761.35	6370.5	
761.53	5259.9	
761.71	4657.1	
761.89	5379.3	
762.06	6259.3	
762.24	5626.5	
762.42	4647.5	
762.6	4431.8	
762.78	5692.7	
762.96	6419.7	
763.13	5033.9	
763.31	4673.5	
763.49	6574	
763.67	5632.6	
763.85	5595.1	
764.02	6228.6	
764.2	6824.5	
764.38	5945.9	
764.56	4504.8	
764.74	5522.7	
764.91	6969.9	
765.09	5795.8	
765.27	4184.7	
765.45	4093.2	
765.63	7010.9	
765.8	6809.5	
765.98	3685	
766.16	4089.8	
766.34	5323.4	
766.52	5134.9	
766.69	5152.7	
766.87	3908.9	
767.05	5819	
767.23	6527.6	
767.41	4241.3	
767.58	4613.4	
767.76	6361	
767.94	6489.3	
768.12	4344.4	
768.29	5236	
768.47	5896.8	
768.65	6623.8	
768.83	3952.6	
769	5240.1	
769.18	5443.5	
769.36	6221.7	
769.54	5309	
769.72	4059.8	
769.89	6425.8	
770.07	6635.4	
770.25	4427	
770.43	5779.4	
770.6	7241.6	
770.78	7804.1	
770.96	4584.7	
771.14	4468	
771.31	6368.5	
771.49	5712.5	
771.67	3729.4	
771.85	4001.7	
772.02	4865.3	
772.2	5738.4	
772.38	4866.7	
772.55	4255.7	
772.73	5976	
772.91	5802.6	
773.09	4663.9	
773.26	4719.2	
773.44	5894.7	
773.62	5702.2	
773.8	4101.4	
773.97	3814	
774.15	6029.2	
774.33	5581.4	
774.5	4040.6	
774.68	4416.1	
774.86	6214.2	
775.04	5692.7	
775.21	4100	
775.39	4135.5	
775.57	5907.7	
775.74	6411.5	
775.92	3889.8	
776.1	3885.7	
776.27	5941.8	
776.45	7264.1	
776.63	4126	
776.81	3609.9	
776.98	5532.9	
777.16	6789	
777.34	4272.7	
777.51	4248.2	
777.69	5581.4	
777.87	5299.5	
778.04	4288.4	
778.22	4975.2	
778.4	5315.8	
778.57	6040.8	
778.75	3463.8	
778.93	3898.6	
779.1	5126.1	
779.28	4984.8	
779.46	3559.4	
779.64	4101.4	
779.81	6186.2	
779.99	7162.4	
780.17	5018.2	
780.34	5087.8	
780.52	5631.9	
780.69	5855.1	
780.87	4462.5	
781.05	4022.2	
781.22	5629.2	
781.4	5791	
781.58	4173.8	
781.75	3220.8	
781.93	5735.7	
782.11	5096	
782.28	5135.6	
782.46	4091.2	
782.64	4878.9	
782.81	5959.6	
782.99	4187.4	
783.17	4237.2	
783.34	5843.5	
783.52	4956.1	
783.69	4465.3	
783.87	5351.3	
784.05	4997	
784.22	5144.5	
784.4	5257.1	
784.58	4519.2	
784.75	6130.3	
784.93	5115.8	
785.1	4211.3	
785.28	4927.4	
785.46	5855.8	
785.63	5182	
785.81	4144.4	
785.99	3988.8	
786.16	5279	
786.34	5703.6	
786.51	4012	
786.69	4407.9	
786.87	4814.1	
787.04	5418.2	
787.22	3823.6	
787.39	4908.3	
787.57	5152	
787.75	6281.8	
787.92	5126.7	
788.1	5055.1	
788.27	5167	
788.45	4921.3	
788.63	4660.5	
788.8	3309.5	
788.98	5537	
789.15	4861.9	
789.33	3476.1	
789.5	4212	
789.68	6200.6	
789.86	6318.7	
790.03	4651.6	
790.21	4051.6	
790.38	6085.9	
790.56	5223.7	
790.73	3864.5	
790.91	3917.1	
791.09	5091.9	
791.26	6016.9	
791.44	4177.9	
791.61	3562.1	
791.79	5109.7	
791.96	5241.4	
792.14	3652.2	
792.32	3206.4	
792.49	5147.2	
792.67	5233.2	
792.84	3837.9	
793.02	3553.9	
793.19	5673.6	
793.37	6371.9	
793.54	3227.6	
793.72	3616	
793.89	6579.4	
794.07	5179.3	
794.25	4373.8	
794.42	3310.9	
794.6	6288.6	
794.77	5927.5	
794.95	4633.9	
795.12	3962.1	
795.3	5173.9	
795.47	5866.7	
795.65	4386.1	
795.82	4227.7	
796	4938.3	
796.17	7023.9	
796.35	4102.8	
796.52	4820.9	
796.7	5710.4	
796.87	5847.6	
797.05	5081.7	
797.22	5055.1	
797.4	5747.3	
797.57	6901	
797.75	4219.5	
797.92	3997.6	
798.1	6118	
798.27	5135.6	
798.45	3372.3	
798.62	3710.9	
798.8	5397.8	
798.97	6068.8	
799.15	4508.9	
799.32	4249.5	
799.5	4689.8	
799.67	5575.3	
799.85	4620.2	
800.02	3321.8	
800.2	5104.9	
800.37	5438	
800.55	4814.8	
800.72	4018.1	
800.9	6004	
801.07	6495.5	
801.25	5353.4	
801.42	4351.3	
801.6	6019.7	
801.77	5672.2	
801.95	4074.1	
802.12	3903.4	
802.29	5657.9	
802.47	5692	
802.64	4339.6	
802.82	3212.6	
802.99	5061.2	
803.17	6234	
803.34	4221.5	
803.52	3823.6	
803.69	6905.1	
803.87	4902.8	
804.04	4216.8	
804.21	4332.1	
804.39	6301.6	
804.56	5328.8	
804.74	3578.5	
804.91	4443.4	
805.09	5128.1	
805.26	5273.5	
805.44	3616.7	
805.61	3975.8	
805.78	5855.8	
805.96	5915.9	
806.13	4420.2	
806.31	4771.1	
806.48	4644.1	
806.66	5226.4	
806.83	4362.9	
807	4298.7	
807.18	5084.4	
807.35	5507.7	
807.53	3967.6	
807.7	3346.4	
807.87	6447	
808.05	5242.1	
808.22	4758.8	
808.4	3405.1	
808.57	5180	
808.74	4790.9	
808.92	3910.9	
809.09	5055.1	
809.27	5099.4	
809.44	5737.7	
809.61	3448.8	
809.79	3859.7	
809.96	6386.9	
810.14	5970.5	
810.31	3308.2	
810.48	4115.7	
810.66	5331.5	
810.83	6157.6	
811.01	3948.5	
811.18	4335.5	
811.35	5983.5	
811.53	4584	
811.7	4771.1	
811.87	4391.5	
812.05	5229.8	
812.22	5089.9	
812.39	3766.9	
812.57	3629.7	
812.74	5220.3	
812.92	6979.5	
813.09	4098	
813.26	4547.9	
813.44	6715.3	
813.61	5126.1	
813.78	3373.7	
813.96	4644.8	
814.13	5188.2	
814.3	4803.2	
814.48	4962.9	
814.65	4126.7	
814.82	6484.6	
815	4956.1	
815.17	4214	
815.34	5148.6	
815.52	5041.4	
815.69	5091.9	
815.87	4249.5	
816.04	3631	
816.21	5231.2	
816.38	4541	
816.56	4016.1	
816.73	3786	
816.9	6579.4	
817.08	5979.4	
817.25	3796.3	
817.42	4921.3	
817.6	4719.2	
817.77	5195	
817.94	4356.7	
818.12	3776.5	
818.29	4894.6	
818.46	7880.6	
818.64	3905.5	
818.81	3687	
818.98	4819.6	
819.16	7160.4	
819.33	4532.2	
819.5	4203.8	
819.67	5612.1	
819.85	6272.9	
820.02	4132.8	
820.19	4433.9	
820.37	5433.9	
820.54	4982	
820.71	4328	
820.88	5500.8	
821.06	5472.2	
821.23	5005.2	
821.4	4346.5	
821.58	4216.1	
821.75	6007.4	
821.92	5321.3	
822.09	3454.2	
822.27	3562.8	
822.44	5257.1	
822.61	5094	
822.79	3502.7	
822.96	6778.1	
823.13	5741.1	
823.3	4900.1	
823.48	3983.3	
823.65	3590.1	
823.82	5946.6	
823.99	4734.2	
824.17	5089.9	
824.34	3650.8	
824.51	6959	
824.68	5316.5	
824.86	3752.6	
825.03	4313	
825.2	5193	
825.37	6384.9	
825.55	3793.5	
825.72	4206.5	
825.89	7043	
826.06	6525.5	
826.24	4168.3	
826.41	4162.2	
826.58	6366.5	
826.75	5515.2	
826.92	3239.2	
827.1	3541.6	
827.27	8759.2	
827.44	6942.6	
827.61	3890.5	
827.79	4758.1	
827.96	4858.5	
828.13	5296	
828.3	4076.8	
828.47	3442	
828.65	5419.6	
828.82	5367	
828.99	5344.5	
829.16	4657.8	
829.34	5898.8	
829.51	5586.9	
829.68	4218.8	
829.85	4434.5	
830.02	6132.3	
830.2	5894.1	
830.37	3250.8	
830.54	5154.1	
830.71	6696.9	
830.88	5158.2	
831.05	3285.6	
831.23	3881.6	
831.4	6368.5	
831.57	7239.6	
831.74	3966.9	
831.91	3469.9	
832.09	5429.2	
832.26	5821	
832.43	4098.7	
832.6	4619.5	
832.77	5427.8	
832.94	6281.1	
833.12	3201.7	
833.29	4015.4	
833.46	5614.2	
833.63	7537.2	
833.8	4458.4	
833.97	4105.5	
834.15	5836.7	
834.32	5597.1	
834.49	4268	
834.66	4354.7	
834.83	6141.9	
835	4928.1	
835.17	3900.7	
835.35	3945.1	
835.52	5716.6	
835.69	5671.5	
835.86	4150.5	
836.03	3429	
836.2	5801.9	
836.37	5443.5	
836.55	4061.1	
836.72	3832.4	
836.89	5316.5	
837.06	5887.9	
837.23	4138.3	
837.4	4614.8	
837.57	6733	
837.75	7428	
837.92	3691.1	
838.09	3978.5	
838.26	5362.9	
838.43	6136.4	
838.6	4287.1	
838.77	3814.7	
838.94	7036.1	
839.11	6784.9	
839.29	4089.1	
839.46	3182.5	
839.63	5777.3	
839.8	5526.1	
839.97	3984.7	
840.14	3967.6	
840.31	5600.5	
840.48	5826.5	
840.65	3243.3	
840.82	3887	
841	5775.3	
841.17	5862.7	
841.34	3695.2	
841.51	3712.3	
841.68	5757.5	
841.85	5468.8	
842.02	3786.7	
842.19	3091.1	
842.36	5533.6	
842.53	5552.7	
842.7	3599.6	
842.87	4515.1	
843.05	7415.7	
843.22	5547.3	
843.39	3446	
843.56	3695.9	
843.73	5278.3	
843.9	5824.4	
844.07	5945.9	
844.24	5029.8	
844.41	8731.2	
844.58	5031.9	
844.75	3487	
844.92	3808.5	
845.09	5829.9	
845.26	5827.8	
845.43	3573	
845.6	3805.1	
845.77	5800.5	
845.94	5507.7	
846.12	4063.9	
846.29	4261.1	
846.46	5964.4	
846.63	5836	
846.8	3628.3	
846.97	4367	
847.14	6299.6	
847.31	5748.6	
847.48	4090.5	
847.65	4561.5	
847.82	6119.3	
847.99	6102.3	
848.16	4852.3	
848.33	4541.7	
848.5	5362.3	
848.67	6337.8	
848.84	3602.4	
849.01	3724.6	
849.18	5197.1	
849.35	4828.4	
849.52	4515.1	
849.69	3527.3	
849.86	6070.2	
850.03	6302.3	
850.2	3646.1	
850.37	4476.2	
850.54	6257.9	
850.71	5453.1	
850.88	4409.3	
851.05	3555.3	
851.22	5698.8	
851.39	6421.1	
851.56	3423.5	
851.73	4168.3	
851.9	5066	
852.07	6107.7	
852.24	4051.6	
852.41	3619.4	
852.58	5728.2	
852.75	5190.9	
852.92	4137.6	
853.09	3501.3	
853.26	5432.6	
853.43	6311.8	
853.6	3575.1	
853.77	3042.6	
853.94	6373.3	
854.11	5784.1	
854.28	5469.4	
854.44	3919.8	
854.61	6900.3	
854.78	6153.5	
854.95	3601.7	
855.12	4536.3	
855.29	4722.6	
855.46	6631.3	
855.63	3616.7	
855.8	5004.6	
855.97	5322	
856.14	6164.4	
856.31	5162.2	
856.48	3955.3	
856.65	5326.1	
856.82	5056.4	
856.99	3502	
857.16	3958	
857.33	7096.9	
857.49	5418.2	
857.66	3880.9	
857.83	4225.6	
858	5429.8	
858.17	5634.6	
858.34	3363.4	
858.51	3611.9	
858.68	6550.1	
858.85	6580.1	
859.02	4214.7	
859.19	4553.3	
859.36	5034.6	
859.52	5089.9	
859.69	3631	
859.86	4304.1	
860.03	5178.6	
860.2	6474.3	
860.37	3266.5	
860.54	3702.7	
860.71	6068.1	
860.88	6551.5	
861.05	4078.9	
861.21	4601.8	
861.38	6567.8	
861.55	5005.2	
861.72	3279.5	
861.89	4018.1	
862.06	6196.5	
862.23	6664.1	
862.4	3535.5	
862.56	3773.7	
862.73	5983.5	
862.9	5588.2	
863.07	4226.3	
863.24	3263.1	
863.41	4989.5	
863.58	5139.7	
863.75	3685	
863.91	4176.5	
864.08	6453.1	
864.25	6021	
864.42	4565.6	
864.59	5119.9	
864.76	6845.7	
864.93	5125.4	
865.09	3502.7	
865.26	3861.8	
865.43	6315.3	
865.6	6805.4	
865.77	3100.6	
865.94	3605.8	
866.1	6381.5	
866.27	6180.1	
866.44	5418.2	
866.61	3434.4	
866.78	5488.6	
866.95	6013.5	
867.11	3491.1	
867.28	3148.4	
867.45	6198.5	
867.62	5138.4	
867.79	4233.8	
867.96	3606.5	
868.12	5079	
868.29	6137.1	
868.46	3614	
868.63	4803.9	
868.8	6247.7	
868.97	6034	
869.13	3790.1	
869.3	3732.8	
869.47	5905.7	
869.64	6168.5	
869.81	3634.5	
869.97	3616.7	
870.14	5866.1	
870.31	6532.3	
870.48	3504.1	
870.65	4562.9	
870.81	5431.2	
870.98	5356.8	
871.15	4115.1	
871.32	3722.5	
871.48	5900.2	
871.65	6591.7	
871.82	3619.4	
871.99	3947.1	
872.16	7067.5	
872.32	6513.2	
872.49	3641.3	
872.66	3687.7	
872.83	6044.2	
872.99	5296.7	
873.16	4128	
873.33	3632.4	
873.5	5666.7	
873.67	5711.8	
873.83	3788.7	
874	4869.4	
874.17	5801.2	
874.34	6939.9	
874.5	4691.2	
874.67	4511	
874.84	6422.4	
875.01	5133.6	
875.17	5147.9	
875.34	3554.6	
875.51	5756.2	
875.68	7002	
875.84	4371	
876.01	5342.5	
876.18	6029.2	
876.34	5936.4	
876.51	3615.3	
876.68	3595.6	
876.85	5458.5	
877.01	6292.7	
877.18	5241.4	
877.35	3562.1	
877.52	5622.4	
877.68	5006.6	
877.85	3463.1	
878.02	3521.8	
878.18	5653.8	
878.35	5304.2	
878.52	2910.8	
878.69	4047.5	
878.85	6061.3	
879.02	6008.1	
879.19	5127.4	
879.35	3913	
879.52	5905	
879.69	6250.4	
879.86	3032.4	
880.02	4119.1	
880.19	5589.6	
880.36	6819.1	
880.52	4160.1	
880.69	4338.3	
880.86	6081.1	
881.02	6248.4	
881.19	3988.8	
881.36	3898	
881.52	5991	
881.69	5301.5	
881.86	3865.2	
882.02	3838.6	
882.19	6265.4	
882.36	7427.3	
882.52	3715.7	
882.69	5145.9	
882.86	5775.3	
883.02	5691.3	
883.19	4398.4	
883.36	4209.3	
883.52	6182.1	
883.69	6966.5	
883.86	3682.2	
884.02	3254.9	
884.19	6098.9	
884.36	5635.3	
884.52	4150.6	
884.69	3813.3	
884.86	5313.8	
885.02	6744	
885.19	3994.9	
885.36	4129.4	
885.52	5599.1	
885.69	5819	
885.86	5257.8	
886.02	4711.7	
886.19	6070.9	
886.35	5523.4	
886.52	4000.4	
886.69	5162.9	
886.85	5161.6	
887.02	6547.4	
887.19	6547.4	
887.35	6547.4	
887.52	6547.4	
887.68	6547.4	
887.85	6547.4	
888.02	6547.4	
888.18	6547.4	
888.35	6547.4	
888.51	6547.4	
888.68	6547.4	
888.85	6547.4	
889.01	6547.4	
889.18	6547.4	
889.35	6547.4	
889.51	6547.4	
889.68	6547.4	
889.84	6547.4	
890.01	6547.4	
890.17	6547.4	
890.34	6547.4	
890.51	6547.4	
890.67	6547.4	
890.84	6547.4	
891	6547.4	
891.17	6547.4	
891.34	6547.4	
891.5	6547.4	
891.67	6547.4	
891.83	6547.4	
892	6547.4	
892.16	6547.4	
892.33	6547.4	
892.5	6547.4	
892.66	6547.4	
892.83	6547.4	
892.99	6547.4	
893.16	6547.4	
893.32	6547.4	
893.49	6547.4	
893.65	6547.4	
893.82	6547.4	
893.99	6547.4	
894.15	6547.4	
894.32	6547.4	
894.48	6547.4	
894.65	6547.4	
894.81	6547.4	
894.98	6547.4	
895.14	6547.4	
895.31	6547.4	
895.47	6547.4	
895.64	6547.4	
895.81	6547.4	
895.97	6547.4	
896.14	6547.4	
896.3	6547.4	
896.47	6547.4	
896.63	6547.4	
896.8	6547.4	
896.96	6547.4	
897.13	6547.4	
897.29	6547.4	
897.46	6547.4	
897.62	6547.4	
897.79	6547.4	
897.95	6547.4	
898.12	6547.4	
898.28	6547.4	
898.45	6547.4	
898.61	6547.4	
898.78	6547.4	
898.94	6547.4	
899.11	6547.4	
899.27	6547.4	
899.44	6547.4	
899.6	6547.4	
899.77	6547.4	
899.93	6547.4	
900.1	6547.4	
900.26	6547.4	
900.43	6547.4	
900.59	6547.4	
900.76	6547.4	
900.92	6547.4	
901.09	6547.4	
901.25	6547.4	
901.42	6547.4	
901.58	6547.4	
901.75	6547.4	
901.91	6547.4	
902.07	6547.4	
902.24	6547.4	
902.4	6547.4	
902.57	6547.4	
902.73	6547.4	
902.9	6547.4	
903.06	6547.4	
903.23	6547.4	
903.39	6547.4	
903.56	6547.4	
903.72	6547.4	
903.88	6547.4	
904.05	6547.4	
904.21	6547.4	
904.38	6547.4	
904.54	6547.4	
904.71	6547.4	
904.87	6547.4	
905.03	6547.4	
905.2	6547.4	
905.36	6547.4	
905.53	6547.4	
905.69	6547.4	
905.86	6547.4	
906.02	6547.4	
906.18	6547.4	
906.35	6547.4	
906.51	6547.4	
906.68	6547.4	
906.84	6547.4	
907.01	6547.4	
907.17	6547.4	
907.33	6547.4	
907.5	6547.4	
907.66	6547.4	
907.83	6547.4	
907.99	6547.4	
908.15	6547.4	
908.32	6547.4	
908.48	6547.4	
908.65	6547.4	
908.81	6547.4	
908.97	6547.4	
909.14	6547.4	
909.3	6547.4	
909.47	6547.4	
909.63	6547.4	
909.79	6547.4	
909.96	6547.4	
910.12	6547.4	
910.28	6547.4	
910.45	6547.4	
910.61	6547.4	
910.78	6547.4	
910.94	6547.4	
911.1	6547.4	
911.27	6547.4	
911.43	6547.4	
911.59	6547.4	
911.76	6547.4	
911.92	6547.4	
912.08	6547.4	
912.25	6547.4	
912.41	6547.4	
912.57	6547.4	
912.74	6547.4	
912.9	6547.4	
913.07	6547.4	
913.23	6547.4	
913.39	6547.4	
913.56	6547.4	
913.72	6547.4	
913.88	6547.4	
914.05	6547.4	
914.21	6547.4	
914.37	6547.4	
914.54	6547.4	
914.7	6547.4	
914.86	6547.4	
915.03	6547.4	
915.19	6547.4	
