Wavelength	Intensities	
nm	a.u.	
179.22	1916.6	
179.44	1921.7	
179.65	1911.4	
179.86	1931.9	
180.08	1912.1	
180.29	4980	
180.51	3568.2	
180.72	5614.8	
180.94	6657.9	
181.15	3231.7	
181.37	3222.1	
181.58	5556.8	
181.79	5798.5	
182.01	3402.4	
182.22	3644	
182.44	5847	
182.65	4846.9	
182.87	4532.8	
183.08	3956.7	
183.29	6102.9	
183.51	4930.1	
183.72	3650.8	
183.94	5311.7	
184.15	5386.8	
184.37	5401.9	
184.58	3238.5	
184.79	4468	
185.01	4984.8	
185.22	5776.6	
185.44	4627	
185.65	3910.9	
185.86	5246.9	
186.08	4883.7	
186.29	3115	
186.51	3396.9	
186.72	5046.9	
186.94	5944.6	
187.15	3960.8	
187.36	4087.7	
187.58	7830.7	
187.79	5480.4	
188.01	4240.7	
188.22	6617	
188.43	6657.3	
188.65	5759.6	
188.86	3405.1	
189.08	4036.5	
189.29	5255.8	
189.5	5231.9	
189.72	3788.7	
189.93	3784	
190.15	5997.1	
190.36	7151.5	
190.57	4163.5	
190.79	4005.1	
191	6086.6	
191.22	6016.2	
191.43	4046.1	
191.64	3326.6	
191.86	6249	
192.07	6033.3	
192.29	3540.3	
192.5	3756.7	
192.71	6036.7	
192.93	5133.6	
193.14	3622.2	
193.35	3771.7	
193.57	5195.7	
193.78	5915.9	
194	2975	
194.21	3624.2	
194.42	4971.1	
194.64	5451	
194.85	4017.4	
195.07	4738.3	
195.28	5528.8	
195.49	4696	
195.71	5002.5	
195.92	3477.5	
196.13	5632.6	
196.35	5760.3	
196.56	5268.7	
196.78	4079.6	
196.99	7087.3	
197.2	6604	
197.42	4653.7	
197.63	4086.4	
197.84	4840.7	
198.06	5662.6	
198.27	3733.4	
198.48	5017.5	
198.7	5188.2	
198.91	5279.7	
199.13	4083	
199.34	4084.3	
199.55	5872.9	
199.77	4744.5	
199.98	3531.4	
200.19	4102.1	
200.41	5380.7	
200.62	5025	
200.83	4190.1	
201.05	4587.4	
201.26	5309	
201.47	5015.5	
201.69	3615.3	
201.9	3476.1	
202.11	5425.8	
202.33	6414.9	
202.54	3907.5	
202.76	4274.8	
202.97	5509	
203.18	5538.4	
203.4	4264.6	
203.61	4138.9	
203.82	5470.8	
204.04	5102.9	
204.25	4115.1	
204.46	4047.5	
204.68	5502.2	
204.89	5694	
205.1	4009.9	
205.32	3390.8	
205.53	5844.2	
205.74	6025.1	
205.96	2939.5	
206.17	4132.8	
206.38	5779.4	
206.6	5929.6	
206.81	4686.4	
207.02	3753.9	
207.24	5673.6	
207.45	6081.1	
207.66	3869.3	
207.88	3328.6	
208.09	5602.6	
208.3	5457.8	
208.52	3520.5	
208.73	3845.4	
208.94	5433.3	
209.15	6189.6	
209.37	3904.1	
209.58	4061.8	
209.79	5974.6	
210.01	5208	
210.22	3095.2	
210.43	3237.2	
210.65	5385.5	
210.86	5819	
211.07	3887	
211.29	3504.1	
211.5	5796.4	
211.71	5373.2	
211.93	3523.9	
212.14	3545.7	
212.35	5372.5	
212.56	5636	
212.78	4084.3	
212.99	3322.5	
213.2	6356.2	
213.42	5221	
213.63	3697.3	
213.84	3953.9	
214.06	4842.8	
214.27	4932.9	
214.48	3904.1	
214.69	4152.6	
214.91	6085.9	
215.12	6167.1	
215.33	4176.5	
215.55	4588.1	
215.76	6664.8	
215.97	5810.1	
216.18	4016.7	
216.4	3883.6	
216.61	5102.2	
216.82	5882.4	
217.04	3579.8	
217.25	3732.1	
217.46	6056.5	
217.67	5901.6	
217.89	3143.6	
218.1	3306.8	
218.31	5514.5	
218.53	5646.2	
218.74	3751.9	
218.95	3628.3	
219.16	5365.7	
219.38	6369.2	
219.59	3711.6	
219.8	4325.3	
220.01	7090.1	
220.23	5461.2	
220.44	4797	
220.65	3486.3	
220.87	5476.3	
221.08	6077.7	
221.29	3273.3	
221.5	4469.4	
221.72	7507.2	
221.93	5154.7	
222.14	4134.2	
222.35	4852.3	
222.57	5439.4	
222.78	5786.2	
222.99	3872.7	
223.2	4232.5	
223.42	5751.4	
223.63	5857.2	
223.84	2983.9	
224.05	2957.3	
224.27	6972.7	
224.48	6347.3	
224.69	4802.5	
224.9	4070.7	
225.12	5611.4	
225.33	5400.5	
225.54	3221.5	
225.75	3652.9	
225.97	4982.7	
226.18	5237.3	
226.39	3940.3	
226.6	3670	
226.82	5161.6	
227.03	5051.7	
227.24	4041.3	
227.45	3381.2	
227.67	5778	
227.88	6382.8	
228.09	4519.9	
228.3	4627	
228.52	5920.7	
228.73	5379.3	
228.94	3813.3	
229.15	3409.2	
229.36	5330.2	
229.58	5252.4	
229.79	3774.4	
230	4412.7	
230.21	6519.4	
230.43	5500.8	
230.64	4059.1	
230.85	4188.1	
231.06	5905.7	
231.28	5810.8	
231.49	3375.1	
231.7	3948.5	
231.91	5778.7	
232.12	5438	
232.34	3468.6	
232.55	3971	
232.76	6083.1	
232.97	5581.4	
233.18	3585.3	
233.4	3991.5	
233.61	5643.5	
233.82	5132.2	
234.03	3745.7	
234.25	3706.8	
234.46	7567.9	
234.67	5440.8	
234.88	4214	
235.09	3581.9	
235.31	5788.9	
235.52	5282.4	
235.73	4018.1	
235.94	3362.8	
236.15	5228.5	
236.37	6596.5	
236.58	3588.7	
236.79	3918.4	
237	5816.2	
237.21	4896.7	
237.43	4214	
237.64	3321.8	
237.85	9929.2	
238.06	4992.3	
238.27	4293.9	
238.48	3371	
238.7	5800.5	
238.91	5274.9	
239.12	3885	
239.33	3945.8	
239.54	5182	
239.76	5369.1	
239.97	3846.8	
240.18	3899.3	
240.39	6752.2	
240.6	5718.6	
240.82	3992.9	
241.03	3299.3	
241.24	5410.7	
241.45	6234	
241.66	3556	
241.87	4184	
242.09	6158.9	
242.3	6576.7	
242.51	4231.8	
242.72	3897.3	
242.93	5881.8	
243.14	5402.5	
243.36	4557.4	
243.57	4891.2	
243.78	6288.6	
243.99	5793.7	
244.2	3957.4	
244.41	3547.8	
244.63	5011.4	
244.84	5763.7	
245.05	4156	
245.26	3943.7	
245.47	5697.4	
245.68	5956.9	
245.9	5233.2	
246.11	4129.4	
246.32	5277.6	
246.53	5687.9	
246.74	6330.3	
246.95	3255.6	
247.16	4880.3	
247.38	5417.6	
247.59	3276.8	
247.8	3930.7	
248.01	5085.1	
248.22	5320.6	
248.43	3557.3	
248.64	3809.2	
248.86	4788.2	
249.07	5205.3	
249.28	3435.1	
249.49	4035.9	
249.7	5942.5	
249.91	6126.2	
250.12	3259	
250.34	3282.9	
250.55	5518.6	
250.76	5449.6	
250.97	4027.7	
251.18	4077.5	
251.39	6158.2	
251.6	5639.4	
251.81	4190.1	
252.03	4070	
252.24	5122	
252.45	5930.9	
252.66	3359.4	
252.87	4386.1	
253.08	5510.4	
253.29	7105.8	
253.5	3406.5	
253.72	4753.3	
253.93	5225.1	
254.14	6492.7	
254.35	3705.5	
254.56	3840.6	
254.77	5687.2	
254.98	4969.1	
255.19	3633.8	
255.41	4775.9	
255.62	5515.2	
255.83	6156.2	
256.04	4235.2	
256.25	4126	
256.46	6688	
256.67	5117.2	
256.88	4058.4	
257.09	4561.5	
257.31	5095.3	
257.52	5122.7	
257.73	5043.5	
257.94	3692.5	
258.15	5266	
258.36	5494.7	
258.57	4682.3	
258.78	2957.9	
258.99	5924.1	
259.2	5285.1	
259.41	3754.6	
259.63	3803.8	
259.84	6286.6	
260.05	6802.7	
260.26	4908.3	
260.47	3616	
260.68	6050.4	
260.89	5316.5	
261.1	4489.8	
261.31	3518.4	
261.52	5984.2	
261.73	6407.4	
261.95	4811.4	
262.16	4196.3	
262.37	6168.5	
262.58	6241.5	
262.79	4780.6	
263	3809.9	
263.21	5491.3	
263.42	4981.3	
263.63	3867.2	
263.84	3718.4	
264.05	6019.7	
264.26	6403.3	
264.47	4639.3	
264.69	4194.2	
264.9	6154.1	
265.11	5595.7	
265.32	3603.1	
265.53	3723.2	
265.74	5582.1	
265.95	4823.6	
266.16	3996.3	
266.37	4465.9	
266.58	5588.9	
266.79	5292.6	
267	3699.3	
267.21	3392.8	
267.42	4990.9	
267.63	5408	
267.84	3920.5	
268.06	3340.2	
268.27	5829.2	
268.48	6166.4	
268.69	3812	
268.9	4536.3	
269.11	6097.5	
269.32	4914.4	
269.53	3930.7	
269.74	3615.3	
269.95	5756.2	
270.16	4766.3	
270.37	3906.8	
270.58	4574.5	
270.79	5254.4	
271	5925.5	
271.21	4177.2	
271.42	3968.3	
271.63	5509.7	
271.84	5033.2	
272.05	3134.8	
272.26	3476.8	
272.47	5430.5	
272.68	5640.1	
272.89	3760.1	
273.11	4386.7	
273.32	5282.4	
273.53	6373.3	
273.74	4289.8	
273.95	4071.4	
274.16	6030.6	
274.37	5521.3	
274.58	4341	
274.79	3366.9	
275	5560.2	
275.21	6181.5	
275.42	5210	
275.63	4394.9	
275.84	5673.6	
276.05	7159	
276.26	4146.5	
276.47	3833.8	
276.68	5233.2	
276.89	6492.7	
277.1	4394.9	
277.31	3475.4	
277.52	5733.6	
277.73	5819.6	
277.94	3379.1	
278.15	3785.3	
278.36	5701.5	
278.57	5042.8	
278.78	3716.4	
278.99	4284.4	
279.2	5084.4	
279.41	5022.3	
279.62	4952	
279.83	3455.6	
280.04	6690	
280.25	4901.5	
280.46	4896.7	
280.67	3919.1	
280.88	5042.8	
281.09	6088.6	
281.3	4093.2	
281.51	5240.8	
281.72	5948.7	
281.93	5980.1	
282.14	3597.6	
282.35	3991.5	
282.56	5953.4	
282.77	5973.2	
282.98	3747.1	
283.19	4632.5	
283.4	7273.7	
283.61	5427.1	
283.82	3365.5	
284.03	4842.1	
284.24	5524.7	
284.45	6086.6	
284.66	4942.4	
284.87	4695.3	
285.08	6027.9	
285.29	6189.6	
285.5	3303.4	
285.71	3764.8	
285.92	6111.8	
286.12	6739.2	
286.33	4808.6	
286.54	3809.2	
286.75	5924.8	
286.96	5328.8	
287.17	3489.7	
287.38	4723.3	
287.59	5042.8	
287.8	4995	
288.01	3884.3	
288.22	4420.9	
288.43	5749.3	
288.64	5014.1	
288.85	4573.8	
289.06	4300.1	
289.27	5911.8	
289.48	6372.6	
289.69	4886.5	
289.9	4441.4	
290.11	6100.9	
290.32	5160.9	
290.53	4622.3	
290.74	4248.2	
290.94	5868.1	
291.15	5956.9	
291.36	3703.4	
291.57	4386.1	
291.78	5166.3	
291.99	4817.5	
292.2	3506.1	
292.41	4253.6	
292.62	5991	
292.83	5813.5	
293.04	5265.3	
293.25	3559.4	
293.46	5195.7	
293.67	6032.6	
293.88	3683.6	
294.09	3528.7	
294.29	4952	
294.5	5627.8	
294.71	3896.6	
294.92	3742.3	
295.13	5198.4	
295.34	6583.5	
295.55	3289.7	
295.76	3430.3	
295.97	5892	
296.18	6582.2	
296.39	3437.9	
296.6	3667.9	
296.81	5506.3	
297.01	5838.1	
297.22	3826.3	
297.43	3663.1	
297.64	5027.1	
297.85	5123.3	
298.06	3028.9	
298.27	3280.2	
298.48	5513.8	
298.69	5149.3	
298.9	3990.1	
299.11	3616.7	
299.31	4967.7	
299.52	4950.6	
299.73	4291.2	
299.94	4179.2	
300.15	5408	
300.36	5033.9	
300.57	4240.7	
300.78	4203.1	
300.99	5307	
301.2	5547.3	
301.4	3601.7	
301.61	4049.5	
301.82	5732.3	
302.03	5845.6	
302.24	4519.2	
302.45	3519.8	
302.66	5760.3	
302.87	6220.4	
303.08	3704.1	
303.29	5034.6	
303.49	5170.4	
303.7	5481	
303.91	3292.5	
304.12	4783.4	
304.33	4972.5	
304.54	5593	
304.75	3663.8	
304.96	3529.3	
305.16	5859.2	
305.37	6508.4	
305.58	3209.2	
305.79	3298.6	
306	5737.7	
306.21	4863.2	
306.42	3697.9	
306.63	5615.5	
306.83	5238	
307.04	6091.3	
307.25	4078.9	
307.46	4029	
307.67	4646.8	
307.88	5903.6	
308.09	3627	
308.29	3723.9	
308.5	5501.5	
308.71	6061.3	
308.92	3921.9	
309.13	3577.8	
309.34	5406	
309.55	5324	
309.75	4578.6	
309.96	4151.2	
310.17	5853.1	
310.38	5190.2	
310.59	4393.6	
310.8	3424.2	
311.01	5224.4	
311.21	5311.1	
311.42	3497.2	
311.63	3657	
311.84	5182.7	
312.05	5509.7	
312.26	4066.6	
312.46	4534.9	
312.67	5236	
312.88	4931.5	
313.09	3551.9	
313.3	3504.1	
313.51	6234.7	
313.71	6638.8	
313.92	3557.3	
314.13	3733.4	
314.34	5646.9	
314.55	5367.7	
314.76	4582	
314.96	3979.2	
315.17	5517.9	
315.38	5985.5	
315.59	3534.8	
315.8	3402.4	
316.01	6328.9	
316.21	6393.8	
316.42	3448.8	
316.63	3880.9	
316.84	5380.7	
317.05	6168.5	
317.26	4214	
317.46	3767.6	
317.67	5352.7	
317.88	5850.4	
318.09	4525.3	
318.3	3300	
318.5	5167.7	
318.71	5750.7	
318.92	5804.6	
319.13	4196.3	
319.34	5929.6	
319.54	6042.2	
319.75	3334.1	
319.96	3169.6	
320.17	5808	
320.38	6040.1	
320.58	3217.4	
320.79	3844	
321	6049	
321.21	6204	
321.42	3909.6	
321.62	3248.1	
321.83	5115.8	
322.04	5461.9	
322.25	3734.1	
322.46	3590.1	
322.66	5603.9	
322.87	5722.7	
323.08	4393.6	
323.29	3483.6	
323.5	6534.4	
323.7	4965.6	
323.91	4900.1	
324.12	4334.9	
324.33	5508.4	
324.53	5801.9	
324.74	4215.4	
324.95	4429.8	
325.16	4815.5	
325.37	5290.6	
325.57	3545.7	
325.78	3639.9	
325.99	5480.4	
326.2	4982	
326.4	5233.2	
326.61	3259.7	
326.82	5394.3	
327.03	5560.2	
327.24	5053.7	
327.44	4808.6	
327.65	5685.8	
327.86	4551.3	
328.07	4193.6	
328.27	3415.3	
328.48	6152.1	
328.69	4997.7	
328.9	5231.9	
329.1	3768.9	
329.31	5351.3	
329.52	6284.5	
329.73	3515	
329.93	4072	
330.14	5433.9	
330.35	5737	
330.56	5907	
330.76	4412.7	
330.97	5275.6	
331.18	5637.4	
331.39	3971	
331.59	3168.9	
331.8	6059.9	
332.01	6139.1	
332.22	3677.5	
332.42	4199.7	
332.63	5551.4	
332.84	5154.1	
333.05	4011.3	
333.25	3646.1	
333.46	5242.8	
333.67	5471.5	
333.88	3691.1	
334.08	4184.7	
334.29	7344	
334.5	6198.5	
334.7	3438.5	
334.91	5076.2	
335.12	4973.8	
335.33	5900.2	
335.53	3931.4	
335.74	5855.8	
335.95	5242.8	
336.16	5049.6	
336.36	3887.7	
336.57	4557.4	
336.78	4988.9	
336.98	6047	
337.19	4825	
337.4	3869.3	
337.61	6557.6	
337.81	4962.2	
338.02	3637.9	
338.23	4706.2	
338.43	6244.3	
338.64	5115.8	
338.85	3540.3	
339.05	4675.5	
339.26	6313.9	
339.47	4938.3	
339.68	3577.1	
339.88	5272.2	
340.09	5725.4	
340.3	5933	
340.5	4227	
340.71	3205.1	
340.92	4911	
341.13	6240.2	
341.33	3484.3	
341.54	4218.1	
341.75	5694	
341.95	5322	
342.16	4037.9	
342.37	4374.5	
342.57	5055.8	
342.78	5378	
342.99	4490.5	
343.19	3186.6	
343.4	5870.2	
343.61	5674.2	
343.81	3780.6	
344.02	3501.3	
344.23	5833.3	
344.43	6322.1	
344.64	4444.1	
344.85	4309.6	
345.06	5745.9	
345.26	6056.5	
345.47	4138.3	
345.68	4894	
345.88	4768.4	
346.09	5920	
346.3	4227	
346.5	3159.3	
346.71	5455.8	
346.92	5154.7	
347.12	3282.9	
347.33	4118.5	
347.54	5993	
347.74	6375.3	
347.95	4103.4	
348.16	3013.2	
348.36	5296.7	
348.57	4959.5	
348.78	4111.6	
348.98	4388.1	
349.19	5398.4	
349.39	4867.3	
349.6	3219.4	
349.81	3592.8	
350.01	5685.8	
350.22	5175.9	
350.43	3887.7	
350.63	4795.7	
350.84	5496.1	
351.05	5213.4	
351.25	3620.1	
351.46	3251.5	
351.67	6047.7	
351.87	5110.4	
352.08	3813.3	
352.29	4362.9	
352.49	5872.9	
352.7	6004	
352.9	3443.3	
353.11	4328	
353.32	6618.4	
353.52	5214.1	
353.73	3414	
353.94	4369	
354.14	5696.8	
354.35	5532.2	
354.55	3495.2	
354.76	3856.3	
354.97	5678.3	
355.17	5467.4	
355.38	3336.1	
355.59	4685.8	
355.79	5136.3	
356	5494	
356.2	3887	
356.41	3366.2	
356.62	4847.5	
356.82	5323.4	
357.03	4187.4	
357.24	3763.5	
357.44	5091.9	
357.65	5241.4	
357.85	4980	
358.06	3923.9	
358.27	4788.2	
358.47	5059.2	
358.68	3243.3	
358.88	4162.2	
359.09	5591	
359.3	6064	
359.5	4811.4	
359.71	4234.5	
359.91	6515.3	
360.12	5777.3	
360.33	4065.9	
360.53	4588.8	
360.74	5096	
360.94	5139.7	
361.15	4268	
361.36	3536.8	
361.56	5843.5	
361.77	5289.9	
361.97	4771.8	
362.18	3754.6	
362.38	5865.4	
362.59	4917.2	
362.8	3459	
363	3213.9	
363.21	4698.7	
363.41	5391.6	
363.62	3956.7	
363.83	5025.7	
364.03	5452.4	
364.24	6453.8	
364.44	5047.6	
364.65	5148.6	
364.85	5241.4	
365.06	5039.4	
365.27	3592.8	
365.47	3626.3	
365.68	6210.8	
365.88	5216.2	
366.09	3989.4	
366.29	3684.3	
366.5	5497.4	
366.71	5933.6	
366.91	5012.7	
367.12	4152.6	
367.32	6533.7	
367.53	5661.3	
367.73	4117.8	
367.94	5091.9	
368.14	5683.1	
368.35	6634.7	
368.56	4027	
368.76	3459.7	
368.97	5805.3	
369.17	7565.9	
369.38	3633.1	
369.58	3848.8	
369.79	4842.8	
369.99	6216.3	
370.2	4911	
370.4	3895.9	
370.61	5522.7	
370.82	6759	
371.02	3844.7	
371.23	3111.5	
371.43	4706.9	
371.64	6057.9	
371.84	3872.7	
372.05	5118.6	
372.25	7365.2	
372.46	5810.8	
372.66	3815.4	
372.87	3779.9	
373.07	5796.4	
373.28	7444.4	
373.48	4906.9	
373.69	4559.5	
373.9	5255.8	
374.1	5251	
374.31	4782	
374.51	4331.5	
374.72	6084.5	
374.92	4917.2	
375.13	4902.2	
375.33	4087.1	
375.54	5650.3	
375.74	5084.4	
375.95	4174.4	
376.15	5426.4	
376.36	5663.3	
376.56	5460.6	
376.77	4216.1	
376.97	4666.6	
377.18	6724.8	
377.38	5713.2	
377.59	5029.8	
377.79	3628.3	
378	5475.6	
378.2	5869.5	
378.41	3772.4	
378.61	3567.6	
378.82	5973.9	
379.02	5027.1	
379.23	3856.3	
379.43	5011.4	
379.64	6018.3	
379.84	5662.6	
380.05	3734.8	
380.25	3594.9	
380.46	5825.8	
380.66	5315.2	
380.87	5061.2	
381.07	5467.4	
381.28	6354.2	
381.48	5730.9	
381.69	3760.1	
381.89	3792.8	
382.1	4754	
382.3	5951.4	
382.51	4900.8	
382.71	5847.6	
382.91	5757.5	
383.12	6335	
383.32	4153.3	
383.53	4401.1	
383.73	5598.5	
383.94	5451	
384.14	4272.7	
384.35	3366.9	
384.55	5331.5	
384.76	5807.4	
384.96	4169.7	
385.17	4431.8	
385.37	5728.9	
385.58	5025.7	
385.78	4426.3	
385.98	3306.1	
386.19	5253	
386.39	5629.9	
386.6	3872	
386.8	4160.1	
387.01	5748	
387.21	5767.1	
387.42	4503.5	
387.62	5111.7	
387.83	5055.1	
388.03	5641.5	
388.23	4109.6	
388.44	4943.8	
388.64	4684.4	
388.85	4890.5	
389.05	4517.1	
389.26	5094	
389.46	6685.9	
389.67	6172.6	
389.87	4406.5	
390.07	4557.4	
390.28	5371.1	
390.48	4876.2	
390.69	3641.3	
390.89	3943	
391.1	5083.7	
391.3	6048.3	
391.5	5150	
391.71	5816.2	
391.91	5693.4	
392.12	6874.3	
392.32	5251	
392.53	4470	
392.73	5162.9	
392.93	5388.2	
393.14	4156	
393.34	4930.1	
393.55	5928.9	
393.75	5352.7	
393.95	4200.4	
394.16	4085.7	
394.36	5067.4	
394.57	5799.2	
394.77	3575.8	
394.98	4031.1	
395.18	4988.9	
395.38	5245.5	
395.59	4932.2	
395.79	3728.7	
396	5138.4	
396.2	5646.9	
396.4	4545.8	
396.61	4571.7	
396.81	5815.5	
397.02	4999.1	
397.22	4882.4	
397.42	4869.4	
397.63	5759.6	
397.83	4949.3	
398.04	3729.4	
398.24	4147.1	
398.44	5579.3	
398.65	4507.6	
398.85	3516.4	
399.05	3717.1	
399.26	4861.9	
399.46	6720.8	
399.67	3998.3	
399.87	3736.2	
400.07	5231.2	
400.28	5621	
400.48	3816.7	
400.69	4897.4	
400.89	5885.9	
401.09	6324.1	
401.3	3670	
401.5	4907.6	
401.7	6555.5	
401.91	6834.8	
402.11	4048.8	
402.32	4319.2	
402.52	5870.8	
402.72	5873.6	
402.93	4581.3	
403.13	3447.4	
403.33	6655.2	
403.54	5389.6	
403.74	4273.4	
403.94	5200.5	
404.15	5373.9	
404.35	6624.5	
404.56	3982.6	
404.76	5887.9	
404.96	5793	
405.17	5645.6	
405.37	5260.5	
405.57	4422.9	
405.78	5779.4	
405.98	5373.2	
406.18	3975.1	
406.39	4898.7	
406.59	5977.3	
406.79	5503.6	
407	3790.1	
407.2	3900	
407.4	5842.9	
407.61	6113.2	
407.81	3820.1	
408.01	6186.2	
408.22	4728.1	
408.42	6844.3	
408.62	4857.1	
408.83	4306.2	
409.03	5439.4	
409.23	5079.6	
409.44	4287.8	
409.64	4567.7	
409.84	6176.7	
410.05	6043.6	
410.25	4391.5	
410.45	4201.1	
410.66	5430.5	
410.86	7987.1	
411.06	4547.2	
411.27	4401.1	
411.47	7606.8	
411.67	5601.2	
411.88	4622.9	
412.08	4898.1	
412.28	6221.7	
412.49	6827.2	
412.69	4336.9	
412.89	4296.6	
413.09	6580.1	
413.3	6307.7	
413.5	4409.3	
413.7	3971.7	
413.91	5554.8	
414.11	6447	
414.31	4203.1	
414.52	4553.3	
414.72	6199.9	
414.92	5932.3	
415.12	4184.7	
415.33	4787.5	
415.53	6322.8	
415.73	6554.9	
415.94	5108.3	
416.14	4548.5	
416.34	5329.5	
416.55	5098.1	
416.75	5728.9	
416.95	5130.2	
417.15	6337.8	
417.36	7130.3	
417.56	5827.8	
417.76	4827.7	
417.97	6757.6	
418.17	6333	
418.37	4436.6	
418.57	4521.2	
418.78	6143.9	
418.98	5868.1	
419.18	5493.3	
419.38	5381.4	
419.59	5855.8	
419.79	5468.1	
419.99	4425	
420.2	4812	
420.4	6399.9	
420.6	6592.4	
420.8	4250.9	
421.01	4196.3	
421.21	6023.1	
421.41	6356.2	
421.61	4832.5	
421.82	4367	
422.02	5686.5	
422.22	6671.6	
422.42	5237.3	
422.63	4886.5	
422.83	5801.2	
423.03	7055.9	
423.23	4941.7	
423.44	3803.8	
423.64	5866.7	
423.84	5664	
424.04	4374.5	
424.25	4035.9	
424.45	6905.1	
424.65	6825.2	
424.85	3772.4	
425.06	4418.8	
425.26	6805.4	
425.46	5754.1	
425.66	4902.8	
425.87	4536.3	
426.07	6543.3	
426.27	6412.2	
426.47	4729.4	
426.67	4026.3	
426.88	7007.5	
427.08	6390.3	
427.28	4947.9	
427.48	3926.6	
427.69	5248.3	
427.89	5958.2	
428.09	4941.1	
428.29	4041.3	
428.5	6774.7	
428.7	6083.1	
428.9	3956.7	
429.1	4586.8	
429.3	5965.1	
429.51	6445.6	
429.71	4265.9	
429.91	5023	
430.11	6270.2	
430.31	6536.4	
430.52	4517.8	
430.72	4816.1	
430.92	6843.6	
431.12	6358.3	
431.32	4192.2	
431.53	4636.6	
431.73	5150.6	
431.93	6947.4	
432.13	4153.3	
432.33	3977.2	
432.54	5629.2	
432.74	6083.1	
432.94	3811.3	
433.14	4955.4	
433.34	6207.4	
433.55	5644.9	
433.75	4894	
433.95	6625.9	
434.15	5924.1	
434.35	5638.7	
434.56	4099.4	
434.76	3501.3	
434.96	5900.2	
435.16	6185.5	
435.36	3845.4	
435.56	5026.4	
435.77	5457.8	
435.97	5645.6	
436.17	5759.6	
436.37	4965	
436.57	5481.7	
436.78	5264	
436.98	6787.7	
437.18	5552	
437.38	6100.2	
437.58	5723.4	
437.78	5739.8	
437.99	4299.4	
438.19	6277.7	
438.39	7049.8	
438.59	4360.8	
438.79	3756.7	
438.99	6952.2	
439.2	5625.8	
439.4	3923.2	
439.6	3785.3	
439.8	5980.8	
440	7083.9	
440.2	4777.2	
440.4	4892.6	
440.61	6285.2	
440.81	6806.8	
441.01	3928	
441.21	4825.7	
441.41	6648.4	
441.61	6273.6	
441.81	5158.2	
442.02	6209.4	
442.22	7179.5	
442.42	6447.7	
442.62	3916.4	
442.82	4016.7	
443.02	6634.7	
443.22	5696.8	
443.43	4358.8	
443.63	3908.9	
443.83	5477.6	
444.03	5646.2	
444.23	5184.8	
444.43	4782	
444.63	5832.6	
444.83	7154.9	
445.04	3904.1	
445.24	5358.2	
445.44	6252.4	
445.64	6435.4	
445.84	4931.5	
446.04	4893.3	
446.24	5644.2	
446.44	6745.3	
446.65	4138.9	
446.85	4454.3	
447.05	6045.6	
447.25	6635.4	
447.45	4571.7	
447.65	3947.8	
447.85	6006.7	
448.05	5656.5	
448.25	5036.6	
448.46	4745.1	
448.66	5984.2	
448.86	5672.9	
449.06	3684.3	
449.26	4988.2	
449.46	6277	
449.66	5292.6	
449.86	4386.7	
450.06	4399.7	
450.26	5550	
450.47	6091.3	
450.67	4704.2	
450.87	5124.7	
451.07	6156.2	
451.27	5927.5	
451.47	3969	
451.67	4516.5	
451.87	5620.3	
452.07	6842.3	
452.27	4099.4	
452.47	4209.9	
452.67	5909.1	
452.88	6529.6	
453.08	3614.7	
453.28	5629.2	
453.48	7055.3	
453.68	5868.1	
453.88	4038.6	
454.08	4291.2	
454.28	6197.2	
454.48	5820.3	
454.68	4859.1	
454.88	5442.1	
455.08	6279.1	
455.28	5969.1	
455.48	3945.1	
455.68	4458.4	
455.89	6768.5	
456.09	6384.9	
456.29	4142.4	
456.49	4192.2	
456.69	6560.3	
456.89	5766.4	
457.09	4669.4	
457.29	4965	
457.49	6038.1	
457.69	6169.8	
457.89	4363.5	
458.09	3786.7	
458.29	5739.1	
458.49	6457.2	
458.69	4842.1	
458.89	4242	
459.09	6725.5	
459.29	6842.9	
459.49	4375.1	
459.69	5194.3	
459.9	6241.5	
460.1	5697.4	
460.3	4261.8	
460.5	4085	
460.7	6186.9	
460.9	5952.1	
461.1	3536.8	
461.3	4928.1	
461.5	6794.5	
461.7	6439.5	
461.9	3941	
462.1	4552.6	
462.3	5780.1	
462.5	6463.4	
462.7	4070	
462.9	4068.6	
463.1	7367.9	
463.3	7032	
463.5	4266.6	
463.7	5124	
463.9	5873.6	
464.1	6306.4	
464.3	4222.2	
464.5	4567.7	
464.7	6526.9	
464.9	6070.2	
465.1	5938.4	
465.3	4820.2	
465.5	6896.2	
465.7	6875.7	
465.9	5147.2	
466.1	5065.3	
466.3	6584.2	
466.5	6425.8	
466.7	5758.9	
466.9	4596.3	
467.1	6298.2	
467.3	7273	
467.5	5651	
467.7	4427.7	
467.9	7463.5	
468.1	8277.2	
468.3	5325.4	
468.5	5729.5	
468.7	6158.2	
468.9	6177.4	
469.1	4749.2	
469.3	5446.2	
469.5	8147.5	
469.7	5714.5	
469.9	5352	
470.1	4403.1	
470.3	6170.5	
470.5	6213.5	
470.7	5803.9	
470.9	4592.9	
471.1	5887.2	
471.3	6550.8	
471.5	4364.9	
471.69	6382.8	
471.89	5861.3	
472.09	5425.1	
472.29	5218.2	
472.49	5781.4	
472.69	5599.1	
472.89	6507.8	
473.09	4274.8	
473.29	4587.4	
473.49	5750.7	
473.69	6025.8	
473.89	5481.7	
474.09	4640.7	
474.29	7297.6	
474.49	6987	
474.69	5440.1	
474.89	4797.7	
475.09	6013.5	
475.29	5971.9	
475.49	4319.2	
475.69	4451.6	
475.88	7701.7	
476.08	6331.6	
476.28	4136.9	
476.48	4713.7	
476.68	6853.2	
476.88	6675	
477.08	4545.1	
477.28	4810	
477.48	6141.2	
477.68	6823.1	
477.88	4306.2	
478.08	4663.9	
478.28	7098.9	
478.48	6281.1	
478.67	4703.5	
478.87	4226.3	
479.07	6870.9	
479.27	6350.8	
479.47	4947.9	
479.67	4976.6	
479.87	6812.2	
480.07	7300.3	
480.27	4114.4	
480.47	5825.8	
480.67	6483.9	
480.87	7023.9	
481.06	4428.4	
481.26	5289.2	
481.46	6294.8	
481.66	6219.7	
481.86	4931.5	
482.06	5964.4	
482.26	6064	
482.46	7057.3	
482.66	4822.3	
482.86	4373.8	
483.05	6298.2	
483.25	5696.1	
483.45	7378.8	
483.65	4777.9	
483.85	5920.7	
484.05	6206.7	
484.25	5259.9	
484.45	5672.9	
484.65	7088	
484.84	7068.9	
485.04	4699.4	
485.24	4612.7	
485.44	7304.4	
485.64	5585.5	
485.84	3852.2	
486.04	5390.9	
486.24	5903.6	
486.44	6321.4	
486.63	3818.1	
486.83	4592.9	
487.03	5767.1	
487.23	5962.3	
487.43	3941.7	
487.63	6293.4	
487.83	5991	
488.02	7118.7	
488.22	4922	
488.42	5435.3	
488.62	6957.6	
488.82	5798.5	
489.02	4548.5	
489.22	4498.7	
489.41	6821.1	
489.61	6311.2	
489.81	4222.2	
490.01	4198.3	
490.21	6639.5	
490.41	7299.6	
490.61	4160.8	
490.8	4328	
491	6129.6	
491.2	5509.7	
491.4	5039.4	
491.6	4107.5	
491.8	6195.1	
491.99	6346.7	
492.19	3907.5	
492.39	4360.1	
492.59	6729.6	
492.79	6711.9	
492.99	5139	
493.18	4169.7	
493.38	6750.8	
493.58	7426.6	
493.78	4852.3	
493.98	4518.5	
494.18	6306.4	
494.37	5689.9	
494.57	4902.8	
494.77	4809.3	
494.97	6476.4	
495.17	6681.2	
495.37	4355.3	
495.56	4685.1	
495.76	6877.8	
495.96	6481.8	
496.16	5584.1	
496.36	4374.5	
496.55	6553.5	
496.75	6082.5	
496.95	4902.2	
497.15	4683	
497.35	6576.7	
497.54	6505	
497.74	4432.5	
497.94	6126.2	
498.14	7229.3	
498.34	7032.7	
498.53	4100	
498.73	4917.2	
498.93	5761.6	
499.13	6445	
499.33	4633.2	
499.52	5129.5	
499.72	6319.3	
499.92	6765.8	
500.12	4256.4	
500.32	4575.8	
500.51	6631.3	
500.71	6397.2	
500.91	5382.1	
501.11	4999.1	
501.31	6585.6	
501.5	7020.4	
501.7	5642.8	
501.9	4584	
502.1	6396.5	
502.29	6731.7	
502.49	5057.1	
502.69	5625.1	
502.89	6641.6	
503.09	6589.7	
503.28	4129.4	
503.48	4281.6	
503.68	5788.9	
503.88	5853.8	
504.07	5304.2	
504.27	4846.9	
504.47	6270.9	
504.67	6507.1	
504.86	5222.3	
505.06	4943.1	
505.26	5986.2	
505.46	7922.2	
505.65	4840	
505.85	5084.4	
506.05	5890	
506.25	6494.8	
506.44	4212.7	
506.64	5188.2	
506.84	5892	
507.04	6883.9	
507.23	4386.1	
507.43	5074.2	
507.63	7961.8	
507.83	6208.8	
508.02	5005.2	
508.22	4670.7	
508.42	8231.5	
508.62	5969.1	
508.81	5300.1	
509.01	5538.4	
509.21	5793.7	
509.4	6128.2	
509.6	5186.1	
509.8	4511	
510	6105.7	
510.19	7550.9	
510.39	4437.9	
510.59	4473.4	
510.79	5822.4	
510.98	7238.2	
511.18	4517.1	
511.38	4661.2	
511.57	6756.9	
511.77	6608.8	
511.97	5397.8	
512.17	4338.3	
512.36	6789.7	
512.56	6719.4	
512.76	4470	
512.95	4209.9	
513.15	6819.1	
513.35	5385.5	
513.55	5369.8	
513.74	4425.7	
513.94	6773.3	
514.14	6060.6	
514.33	5419.6	
514.53	5125.4	
514.73	6086.6	
514.92	6337.1	
515.12	4603.2	
515.32	4323.9	
515.51	6353.5	
515.71	6912.6	
515.91	6154.8	
516.11	4471.4	
516.3	8006.9	
516.5	5909.8	
516.7	5100.8	
516.89	5617.6	
517.09	6097.5	
517.29	5910.4	
517.48	5362.3	
517.68	4765.6	
517.88	5803.9	
518.07	6436.1	
518.27	5270.8	
518.47	4231.1	
518.66	7006.8	
518.86	5534.3	
519.06	4067.3	
519.25	4558.1	
519.45	5951.4	
519.65	7380.9	
519.84	5235.3	
520.04	5909.8	
520.24	7858.7	
520.43	6634.7	
520.63	4960.2	
520.83	4640	
521.02	5827.8	
521.22	6462	
521.42	5219.6	
521.61	5805.3	
521.81	6100.2	
522.01	6314.6	
522.2	4979.3	
522.4	4829.8	
522.6	6663.4	
522.79	5422.3	
522.99	4915.1	
523.18	4046.1	
523.38	6383.5	
523.58	6344.6	
523.77	6013.5	
523.97	3960.8	
524.17	8176.2	
524.36	7317.4	
524.56	5324	
524.76	4950.6	
524.95	6150.7	
525.15	5786.9	
525.34	4689.8	
525.54	4662.5	
525.74	6434.7	
525.93	5392.3	
526.13	5854.5	
526.33	4531.5	
526.52	6794.5	
526.72	6199.9	
526.91	5828.5	
527.11	5021.6	
527.31	6788.3	
527.5	7187.7	
527.7	4906.9	
527.89	3839.9	
528.09	5599.1	
528.29	6169.8	
528.48	5335	
528.68	4949.9	
528.87	6509.1	
529.07	6709.1	
529.27	4776.5	
529.46	4390.8	
529.66	6137.8	
529.85	6671.6	
530.05	4113	
530.25	4958.1	
530.44	7615	
530.64	6107.7	
530.83	4600.4	
531.03	4846.9	
531.23	6500.9	
531.42	6419.7	
531.62	5547.9	
531.81	4745.1	
532.01	6567.2	
532.21	7068.2	
532.4	4358.8	
532.6	4622.3	
532.79	7612.3	
532.99	6475.7	
533.18	4645.5	
533.38	5696.1	
533.58	5978	
533.77	6818.4	
533.97	4554.7	
534.16	5477.6	
534.36	7060.7	
534.55	5947.3	
534.75	5542.5	
534.95	4659.1	
535.14	6743.3	
535.34	5978	
535.53	4343.1	
535.73	6347.3	
535.92	7411.6	
536.12	6234.7	
536.31	4375.1	
536.51	5629.2	
536.71	6612.9	
536.9	6120.7	
537.1	4589.5	
537.29	4759.5	
537.49	7029.3	
537.68	5934.3	
537.88	5188.2	
538.07	4278.9	
538.27	6133.7	
538.46	7174	
538.66	4184	
538.86	4588.1	
539.05	6243.6	
539.25	6629.3	
539.44	4813.4	
539.64	4599.7	
539.83	6122.1	
540.03	7095.5	
540.22	4403.8	
540.42	4663.9	
540.61	6429.3	
540.81	6531	
541	5086.5	
541.2	5677	
541.39	5947.3	
541.59	6452.5	
541.78	5350.7	
541.98	4531.5	
542.18	5611.4	
542.37	5576.6	
542.57	4913.1	
542.76	5373.9	
542.96	5757.5	
543.15	6530.3	
543.35	4989.5	
543.54	4347.2	
543.74	6817.7	
543.93	6447	
544.13	5017.5	
544.32	6149.4	
544.52	6808.8	
544.71	5877.7	
544.91	4111	
545.1	5470.8	
545.3	5937.7	
545.49	6696.2	
545.69	4073.4	
545.88	4760.2	
546.08	7578.2	
546.27	7236.2	
546.47	5329.5	
546.66	4498.7	
546.86	6923.5	
547.05	7622.5	
547.24	4764.3	
547.44	4639.3	
547.63	5914.5	
547.83	7005.4	
548.02	5058.5	
548.22	5262.6	
548.41	5720.7	
548.61	7105.1	
548.8	4614.1	
549	4559.5	
549.19	6414.2	
549.39	6634.1	
549.58	4240	
549.78	4904.9	
549.97	6841.6	
550.17	6277	
550.36	5842.2	
550.55	6803.4	
550.75	6355.5	
550.94	7241.6	
551.14	4575.8	
551.33	5098.8	
551.53	5638.7	
551.72	6627.2	
551.92	4973.2	
552.11	4735.6	
552.31	6763.1	
552.5	6885.3	
552.69	6645.7	
552.89	4358.8	
553.08	6699.6	
553.28	6386.2	
553.47	4786.8	
553.67	5999.2	
553.86	7469.6	
554.06	5717.2	
554.25	4011.3	
554.44	4642.1	
554.64	8263.6	
554.83	7603.4	
555.03	4602.5	
555.22	4999.8	
555.42	6924.2	
555.61	6692.8	
555.8	4789.5	
556	5090.6	
556.19	5760.9	
556.39	7073.7	
556.58	4864.6	
556.78	4886.5	
556.97	6578.8	
557.16	6182.8	
557.36	6137.8	
557.55	4510.3	
557.75	5582.1	
557.94	7277.8	
558.13	4636.6	
558.33	4345.8	
558.52	7099.6	
558.72	6010.1	
558.91	4514.4	
559.1	4778.6	
559.3	5720.7	
559.49	5485.1	
559.69	4056.3	
559.88	5193	
560.07	6638.8	
560.27	6951.5	
560.46	5332.2	
560.66	5467.4	
560.85	6380.8	
561.04	5560.9	
561.24	4482.3	
561.43	4829.8	
561.63	5838.1	
561.82	6154.1	
562.01	6027.9	
562.21	5068	
562.4	6617.7	
562.59	7511.9	
562.79	4904.9	
562.98	4528.7	
563.18	6406.7	
563.37	8031.5	
563.56	5402.5	
563.76	4386.7	
563.95	5826.5	
564.14	5819	
564.34	4861.9	
564.53	4542.4	
564.73	6473.6	
564.92	6780.8	
565.11	4953.4	
565.31	4322.6	
565.5	6978.1	
565.69	5900.9	
565.89	4532.2	
566.08	4807.9	
566.27	6809.5	
566.47	7205.4	
566.66	5429.2	
566.85	4060.4	
567.05	6433.4	
567.24	5758.2	
567.44	4420.9	
567.63	5842.9	
567.82	6725.5	
568.02	6457.2	
568.21	4477.5	
568.4	4831.8	
568.6	6216.3	
568.79	6229.9	
568.98	4188.8	
569.18	4345.8	
569.37	6155.5	
569.56	8285.4	
569.76	4746.5	
569.95	5718.6	
570.14	6765.1	
570.34	6507.1	
570.53	4233.2	
570.72	4240.7	
570.91	7111.2	
571.11	6156.2	
571.3	4772.4	
571.49	5702.2	
571.69	6221.7	
571.88	5701.5	
572.07	5276.9	
572.27	5333.6	
572.46	5683.1	
572.65	6839.5	
572.85	4457.1	
573.04	4825	
573.23	6920.1	
573.43	6276.3	
573.62	4158.1	
573.81	4898.7	
574	6292	
574.2	6072.2	
574.39	4511	
574.58	4756.7	
574.78	7048.4	
574.97	6229.9	
575.16	5005.9	
575.36	5203.9	
575.55	6626.5	
575.74	6810.2	
575.93	4100	
576.13	5201.2	
576.32	6034.7	
576.51	6621.8	
576.71	4544.4	
576.9	5911.1	
577.09	6997.2	
577.28	6456.6	
577.48	5046.9	
577.67	3915.7	
577.86	6044.9	
578.05	6410.1	
578.25	4685.8	
578.44	4880.3	
578.63	6246.3	
578.83	7411.6	
579.02	4059.1	
579.21	5630.5	
579.4	6377.4	
579.6	6030.6	
579.79	4900.1	
579.98	7180.9	
580.17	6711.9	
580.37	6814.3	
580.56	4304.1	
580.75	5128.8	
580.94	7263.5	
581.14	7122.8	
581.33	5509.7	
581.52	4363.5	
581.71	6638.8	
581.91	7318.1	
582.1	4014.7	
582.29	4741.7	
582.48	6214.2	
582.68	6154.1	
582.87	5190.2	
583.06	4844.8	
583.25	6535.8	
583.45	5789.6	
583.64	5443.5	
583.83	6156.9	
584.02	6014.2	
584.21	6497.5	
584.41	5490.6	
584.6	4678.9	
584.79	6207.4	
584.98	6908.5	
585.18	4161.5	
585.37	4208.6	
585.56	5689.9	
585.75	6537.8	
585.94	4446.1	
586.14	5101.5	
586.33	7189.1	
586.52	6183.5	
586.71	4975.9	
586.91	4714.4	
587.1	5663.3	
587.29	7068.2	
587.48	4704.9	
587.67	4579.3	
587.87	6662.7	
588.06	6685.3	
588.25	5910.4	
588.44	5236	
588.63	6324.1	
588.83	6887.3	
589.02	4683	
589.21	4606.6	
589.4	6195.8	
589.59	5991	
589.78	3971	
589.98	4356.7	
590.17	5786.2	
590.36	6413.6	
590.55	3816.7	
590.74	4803.9	
590.94	7847.8	
591.13	6438.8	
591.32	4484.4	
591.51	4041.3	
591.7	6812.2	
591.89	6232	
592.09	4117.1	
592.28	4623.6	
592.47	5482.4	
592.66	7426.6	
592.85	4042	
593.05	4345.8	
593.24	6096.8	
593.43	6853.9	
593.62	4335.5	
593.81	4960.2	
594	6068.1	
594.19	6368.5	
594.39	4323.3	
594.58	4177.9	
594.77	6485.9	
594.96	7083.9	
595.15	4199.7	
595.34	4919.9	
595.54	6598.6	
595.73	5615.5	
595.92	3702	
596.11	4876.9	
596.3	7075	
596.49	5772.5	
596.68	4681.7	
596.88	5085.1	
597.07	6829.3	
597.26	5518.6	
597.45	4194.2	
597.64	5348.6	
597.83	5864	
598.02	6507.8	
598.22	4235.2	
598.41	4906.9	
598.6	6298.9	
598.79	5694.7	
598.98	4220.9	
599.17	5238.7	
599.36	6334.4	
599.55	7603.4	
599.74	6390.3	
599.94	6148	
600.13	6913.9	
600.32	5711.1	
600.51	4012	
600.7	4184.7	
600.89	7535.8	
601.08	7538.6	
601.27	4014.7	
601.47	4985.4	
601.66	6780.8	
601.85	7471	
602.04	4659.1	
602.23	4779.3	
602.42	5917.3	
602.61	6529.6	
602.8	4610	
602.99	4398.4	
603.18	6261.3	
603.37	6505	
603.57	5102.2	
603.76	5599.1	
603.95	7283.9	
604.14	6808.1	
604.33	4447.5	
604.52	4803.9	
604.71	6416.3	
604.9	6063.4	
605.09	5461.2	
605.28	5221.6	
605.47	7031.4	
605.66	6724.8	
605.86	5042.8	
606.05	4512.4	
606.24	7115.3	
606.43	5628.5	
606.62	4730.1	
606.81	5589.6	
607	6967.2	
607.19	6165.1	
607.38	4263.2	
607.57	4521.2	
607.76	6041.5	
607.95	5459.2	
608.14	4966.3	
608.33	5559.6	
608.52	5969.8	
608.72	6931	
608.91	4113.7	
609.1	4036.5	
609.29	6128.2	
609.48	5634.6	
609.67	5112.4	
609.86	4218.8	
610.05	5745.2	
610.24	6111.1	
610.43	4015.4	
610.62	3715	
610.81	7268.9	
611	7036.8	
611.19	4186	
611.38	4919.2	
611.57	6458.6	
611.76	7817.8	
611.95	3967.6	
612.14	3896.6	
612.33	6251.1	
612.52	5732.9	
612.71	4584.7	
612.9	3708.2	
613.09	5354.8	
613.28	7744.1	
613.47	4242.7	
613.66	5248.9	
613.85	6315.9	
614.04	5844.2	
614.24	4346.5	
614.43	3556.6	
614.62	6513.2	
614.81	6489.3	
615	5041.4	
615.19	4945.8	
615.38	5760.3	
615.57	6111.8	
615.76	4782	
615.95	5767.8	
616.14	6486.6	
616.33	6119.3	
616.52	5137	
616.71	5483.8	
616.9	6472.9	
617.09	6263.4	
617.28	4468	
617.47	5778	
617.66	5547.3	
617.85	5588.9	
618.04	5384.8	
618.22	4686.4	
618.41	5897.5	
618.6	6703.7	
618.79	4618.2	
618.98	4343.7	
619.17	7033.4	
619.36	5366.4	
619.55	4461.2	
619.74	4575.2	
619.93	6304.3	
620.12	5651	
620.31	5122	
620.5	5161.6	
620.69	6825.9	
620.88	7146.7	
621.07	5820.3	
621.26	4894.6	
621.45	6377.4	
621.64	6425.8	
621.83	5020.9	
622.02	4127.3	
622.21	6417	
622.4	6182.1	
622.59	5536.3	
622.78	5208.7	
622.97	5757.5	
623.16	6862.7	
623.35	4855.1	
623.54	4035.2	
623.72	5969.1	
623.91	6171.9	
624.1	5212.1	
624.29	3824.2	
624.48	7186.3	
624.67	6479.8	
624.86	5115.1	
625.05	4050.9	
625.24	7352.2	
625.43	5708.4	
625.62	6816.3	
625.81	4268.6	
626	6812.9	
626.19	5900.9	
626.38	5052.3	
626.56	4491.9	
626.75	5777.3	
626.94	6567.8	
627.13	5135.6	
627.32	3773	
627.51	6503	
627.7	7915.4	
627.89	3982.6	
628.08	5085.8	
628.27	5678.3	
628.46	5876.3	
628.65	4303.5	
628.83	3899.3	
629.02	6442.9	
629.21	5780.7	
629.4	4692.6	
629.59	4896.7	
629.78	5674.2	
629.97	6666.1	
630.16	4990.2	
630.35	4450.9	
630.54	7162.4	
630.72	6838.9	
630.91	4365.6	
631.1	5016.2	
631.29	6287.9	
631.48	6433.4	
631.67	5076.2	
631.86	4567.7	
632.05	5871.5	
632.24	5977.3	
632.42	4199	
632.61	4847.5	
632.8	6055.2	
632.99	5655.8	
633.18	4783.4	
633.37	5205.9	
633.56	6350.8	
633.75	6101.6	
633.93	4784.7	
634.12	4452.3	
634.31	7119.4	
634.5	6732.4	
634.69	4513.7	
634.88	5098.8	
635.07	6049.7	
635.25	6658.6	
635.44	5513.1	
635.63	5679.7	
635.82	5890	
636.01	5436	
636.2	5400.5	
636.39	4923.3	
636.57	7084.6	
636.76	6805.4	
636.95	4331.5	
637.14	5848.3	
637.33	6445	
637.52	7406.1	
637.7	4162.8	
637.89	5140.4	
638.08	5999.2	
638.27	7443.7	
638.46	5260.5	
638.65	5696.1	
638.83	7545.4	
639.02	5893.4	
639.21	5216.9	
639.4	5670.1	
639.59	6472.3	
639.78	5973.2	
639.96	4525.3	
640.15	4461.2	
640.34	6298.9	
640.53	6459.3	
640.72	4139.6	
640.91	4523.3	
641.09	5684.5	
641.28	7113.3	
641.47	4517.1	
641.66	5441.5	
641.85	6374.6	
642.03	6661.4	
642.22	5207.3	
642.41	4696	
642.6	5903.6	
642.79	5193	
642.97	4450.2	
643.16	5160.2	
643.35	5831.2	
643.54	5723.4	
643.73	4429.1	
643.91	5272.2	
644.1	5535	
644.29	6142.5	
644.48	4556	
644.67	4603.2	
644.85	5780.7	
645.04	6133.7	
645.23	4207.2	
645.42	4431.1	
645.6	5711.1	
645.79	6959	
645.98	4467.3	
646.17	3530	
646.36	5528.8	
646.54	6193.7	
646.73	5407.3	
646.92	4157.4	
647.11	5836	
647.29	6917.4	
647.48	4259.1	
647.67	4130.8	
647.86	7172.7	
648.05	7130.3	
648.23	4695.3	
648.42	5938.4	
648.61	6545.3	
648.8	6154.8	
648.98	4285	
649.17	4662.5	
649.36	5864.7	
649.55	5313.8	
649.73	4334.9	
649.92	5123.3	
650.11	5709.1	
650.3	6122.1	
650.48	4479.6	
650.67	4144.4	
650.86	6370.5	
651.05	5172.5	
651.23	4458.4	
651.42	4436.6	
651.61	5827.8	
651.79	6024.4	
651.98	4633.9	
652.17	4235.9	
652.36	6356.9	
652.54	5394.3	
652.73	4345.1	
652.92	4144.4	
653.11	6365.8	
653.29	6432.7	
653.48	3670	
653.67	4684.4	
653.85	6180.1	
654.04	7245	
654.23	4959.5	
654.42	4494.6	
654.6	5808	
654.79	6457.2	
654.98	3967.6	
655.16	4565.6	
655.35	5443.5	
655.54	5371.8	
655.73	4142.4	
655.91	4066.6	
656.1	6605.4	
656.29	5332.9	
656.47	3575.1	
656.66	5377.3	
656.85	5653.8	
657.03	5553.4	
657.22	4147.1	
657.41	4256.4	
657.59	5735.7	
657.78	5444.2	
657.97	3793.5	
658.16	4574.5	
658.34	6369.9	
658.53	6711.9	
658.72	5474.2	
658.9	6021.7	
659.09	5739.1	
659.28	5838.1	
659.46	4310.3	
659.65	4220.2	
659.84	5582.1	
660.02	6027.2	
660.21	4110.3	
660.4	4057	
660.58	6577.4	
660.77	5903.6	
660.96	4724.7	
661.14	3747.1	
661.33	7045	
661.52	6952.2	
661.7	3661.1	
661.89	7606.2	
662.08	5543.2	
662.26	5054.4	
662.45	4024.3	
662.64	4175.8	
662.82	6234	
663.01	5386.8	
663.2	4193.6	
663.38	4933.6	
663.57	6208.8	
663.75	6017.6	
663.94	4528.7	
664.13	5879.7	
664.31	5502.2	
664.5	6260	
664.69	4763.6	
664.87	5357.5	
665.06	5244.8	
665.25	6023.8	
665.43	5564.3	
665.62	5657.9	
665.8	6464.1	
665.99	5685.8	
666.18	4567.7	
666.36	4715.8	
666.55	6343.2	
666.74	6270.9	
666.92	4123.2	
667.11	5912.5	
667.29	5730.9	
667.48	6397.9	
667.67	5439.4	
667.85	4556	
668.04	5774.6	
668.22	5728.2	
668.41	4609.3	
668.6	4795.7	
668.78	5563	
668.97	5794.4	
669.15	4939.7	
669.34	3947.8	
669.53	5537	
669.71	5926.1	
669.9	4091.2	
670.08	4823.6	
670.27	5568.4	
670.46	6148	
670.64	5057.1	
670.83	5283.1	
671.01	5461.9	
671.2	6084.5	
671.38	4192.2	
671.57	4114.4	
671.76	6789.7	
671.94	7294.9	
672.13	4007.2	
672.31	5219.6	
672.5	6217.6	
672.69	5565.7	
672.87	4243.4	
673.06	4571.1	
673.24	6121.4	
673.43	5617.6	
673.61	5033.2	
673.8	4538.3	
673.98	6399.9	
674.17	6464.8	
674.36	5136.3	
674.54	5014.1	
674.73	6126.2	
674.91	6281.8	
675.1	4698	
675.28	4311	
675.47	5823.1	
675.65	6437.4	
675.84	4544.4	
676.03	4948.6	
676.21	5624.4	
676.4	5118.6	
676.58	5393	
676.77	5097.4	
676.95	7150.1	
677.14	5569.8	
677.32	4257	
677.51	3952.6	
677.69	6350.1	
677.88	5153.4	
678.06	4029	
678.25	4166.3	
678.44	5883.8	
678.62	5566.4	
678.81	3926	
678.99	4954	
679.18	6724.8	
679.36	6232.7	
679.55	4494.6	
679.73	5166.3	
679.92	6195.8	
680.1	5520	
680.29	5740.5	
680.47	4493.2	
680.66	5649.7	
680.84	6460	
681.03	3746.4	
681.21	4971.8	
681.4	5610.1	
681.58	5479	
681.77	4238.6	
681.95	4200.4	
682.14	6494.8	
682.32	6832	
682.51	5248.3	
682.69	3998.3	
682.88	5545.9	
683.06	6321.4	
683.25	4876.9	
683.43	5429.2	
683.62	5774.6	
683.8	6263.4	
683.99	5444.2	
684.17	4791.6	
684.36	7210.2	
684.54	5836	
684.73	3902.7	
684.91	4225	
685.1	6212.9	
685.28	5665.4	
685.46	4932.9	
685.65	4926	
685.83	6548	
686.02	5856.5	
686.2	4360.8	
686.39	4491.2	
686.57	5477	
686.76	7159.7	
686.94	4349.2	
687.13	4546.5	
687.31	6377.4	
687.5	5816.2	
687.68	3908.2	
687.86	5233.9	
688.05	7531.1	
688.23	5204.6	
688.42	5216.2	
688.6	4326.7	
688.79	5724.8	
688.97	5677	
689.16	4774.5	
689.34	3644.7	
689.52	6500.9	
689.71	6647.7	
689.89	5012.1	
690.08	4293.2	
690.26	5974.6	
690.45	5806	
690.63	5240.8	
690.81	4474.8	
691	5614.2	
691.18	5582.8	
691.37	4648.9	
691.55	6900.3	
691.74	5554.1	
691.92	7629.4	
692.1	4653	
692.29	3989.4	
692.47	5784.1	
692.66	5085.1	
692.84	4270.7	
693.02	4980.7	
693.21	5194.3	
693.39	5688.6	
693.58	4962.9	
693.76	4388.8	
693.94	6937.2	
694.13	6782.9	
694.31	4197.7	
694.5	5358.9	
694.68	5503.6	
694.86	5823.7	
695.05	4686.4	
695.23	5085.1	
695.42	6175.3	
695.6	8658.8	
695.78	5213.4	
695.97	4278.9	
696.15	6183.5	
696.34	5560.2	
696.52	4027	
696.7	4893.3	
696.89	6029.2	
697.07	5367	
697.25	4816.8	
697.44	6507.8	
697.62	5969.8	
697.81	6362.4	
697.99	4552	
698.17	5027.8	
698.36	5288.5	
698.54	6057.2	
698.72	4873.5	
698.91	3882.9	
699.09	5597.8	
699.28	5472.2	
699.46	4570.4	
699.64	4497.3	
699.83	5399.8	
700.01	6780.1	
700.19	5255.1	
700.38	3585.3	
700.56	6569.2	
700.74	5477.6	
700.93	4042	
701.11	4843.4	
701.29	6063.4	
701.48	7154.2	
701.66	4209.9	
701.84	4275.5	
702.03	5550	
702.21	6202.6	
702.39	3756.7	
702.58	4369	
702.76	5987.6	
702.94	6125.5	
703.13	3816	
703.31	6312.5	
703.49	5148.6	
703.68	6274.3	
703.86	4008.6	
704.04	4994.3	
704.23	5859.2	
704.41	6272.9	
704.59	4109.6	
704.78	5483.1	
704.96	6917.4	
705.14	6298.2	
705.33	3923.2	
705.51	4795	
705.69	5654.4	
705.87	6496.2	
706.06	5083.7	
706.24	3859.1	
706.42	6015.6	
706.61	6139.8	
706.79	5111.7	
706.97	3915.7	
707.16	5399.8	
707.34	6036.7	
707.52	5134.9	
707.7	4170.3	
707.89	5608.7	
708.07	5287.9	
708.25	5098.8	
708.44	5242.8	
708.62	5505.6	
708.8	6588.3	
708.98	5332.9	
709.17	4297.3	
709.35	5913.2	
709.53	5980.1	
709.72	3932.8	
709.9	4171	
710.08	6191	
710.26	6266.1	
710.45	5712.5	
710.63	4361.5	
710.81	5836	
710.99	5861.3	
711.18	4964.3	
711.36	4522.6	
711.54	5678.3	
711.72	6544.6	
711.91	4523.3	
712.09	3960.8	
712.27	5920.7	
712.45	7026.6	
712.64	4941.1	
712.82	3828.3	
713	5377.3	
713.18	5550	
713.37	3969.6	
713.55	5362.3	
713.73	6467.5	
713.91	5071.5	
714.1	4491.9	
714.28	4018.1	
714.46	6321.4	
714.64	5515.2	
714.83	3557.3	
715.01	4489.1	
715.19	5661.3	
715.37	5098.8	
715.55	4203.1	
715.74	4545.1	
715.92	6729.6	
716.1	4627.7	
716.28	5704.3	
716.47	4746.5	
716.65	5380	
716.83	5427.8	
717.01	4588.8	
717.19	4703.5	
717.38	7664.9	
717.56	5156.8	
717.74	4855.1	
717.92	3954.6	
718.1	6442.9	
718.29	5575.3	
718.47	3481.5	
718.65	4166.3	
718.83	6223.1	
719.01	6092	
719.2	3209.2	
719.38	4437.9	
719.56	5797.8	
719.74	7404.8	
719.92	3990.8	
720.11	5094.7	
720.29	5911.1	
720.47	4953.4	
720.65	3567.6	
720.83	4507.6	
721.02	5421.7	
721.2	5122.7	
721.38	4696	
721.56	3884.3	
721.74	4674.1	
721.92	4923.3	
722.11	5175.9	
722.29	4857.8	
722.47	6208.8	
722.65	5363.6	
722.83	3921.9	
723.01	4921.3	
723.2	5449.6	
723.38	5696.8	
723.56	3276.8	
723.74	4524	
723.92	4928.1	
724.1	6115.2	
724.29	3871.3	
724.47	5040.7	
724.65	5009.3	
724.83	4876.9	
725.01	3782.6	
725.19	4617.5	
725.37	4974.5	
725.56	5123.3	
725.74	3556.6	
725.92	3895.2	
726.1	4926	
726.28	5273.5	
726.46	4355.3	
726.64	3999.7	
726.83	5227.1	
727.01	5559.6	
727.19	3531.4	
727.37	4415.4	
727.55	5318.6	
727.73	5937.7	
727.91	3510.2	
728.09	3411.2	
728.28	5891.3	
728.46	6542.6	
728.64	4565.6	
728.82	4450.2	
729	7038.9	
729.18	6258.6	
729.36	3719.8	
729.54	6159.6	
729.72	7329.7	
729.91	5465.3	
730.09	5653.1	
730.27	4336.9	
730.45	5307	
730.63	6043.6	
730.81	4995	
730.99	3962.1	
731.17	6507.8	
731.35	5020.3	
731.53	4455.7	
731.71	4088.4	
731.9	6305.7	
732.08	6488	
732.26	4351.3	
732.44	4023.6	
732.62	6554.2	
732.8	5993.7	
732.98	4854.4	
733.16	3757.3	
733.34	6012.2	
733.52	4752	
733.7	4395.6	
733.88	4707.6	
734.07	5842.9	
734.25	5604.6	
734.43	3805.8	
734.61	5419.6	
734.79	7139.2	
734.97	5436	
735.15	3986	
735.33	4291.2	
735.51	5841.5	
735.69	5504.9	
735.87	5550.7	
736.05	4609.3	
736.23	5711.1	
736.41	5452.4	
736.59	4390.8	
736.77	4487.1	
736.95	6146	
737.13	5644.2	
737.32	4033.1	
737.5	4292.5	
737.68	6721.4	
737.86	5451	
738.04	3807.9	
738.22	5915.9	
738.4	5248.9	
738.58	5617.6	
738.76	4519.9	
738.94	3378.5	
739.12	5345.9	
739.3	5290.6	
739.48	5155.4	
739.66	4853	
739.84	5669.5	
740.02	5652.4	
740.2	3513.6	
740.38	3941	
740.56	6068.8	
740.74	4889.9	
740.92	4622.9	
741.1	4503.5	
741.28	5543.9	
741.46	5384.8	
741.64	4150.6	
741.82	4750.6	
742	5536.3	
742.18	5567.7	
742.36	4427	
742.54	4001.7	
742.72	6183.5	
742.9	4889.9	
743.08	4844.8	
743.26	3604.4	
743.44	6443.6	
743.62	6314.6	
743.8	5065.3	
743.98	4059.8	
744.16	5972.6	
744.34	5645.6	
744.52	4986.1	
744.7	4861.2	
744.88	6111.8	
745.06	5625.1	
745.24	5068	
745.42	5120.6	
745.6	6237.4	
745.78	5995.8	
745.96	3794.9	
746.14	4094.6	
746.32	7086	
746.5	6294.1	
746.68	4808.6	
746.86	4191.5	
747.03	6759	
747.21	4884.4	
747.39	4762.9	
747.57	4231.8	
747.75	5825.1	
747.93	6347.3	
748.11	4208.6	
748.29	4087.7	
748.47	7491.5	
748.65	5550.7	
748.83	4908.3	
749.01	4728.8	
749.19	6072.2	
749.37	5234.6	
749.55	4562.2	
749.73	4617.5	
749.91	5761.6	
750.09	5472.2	
750.26	4737	
750.44	4077.5	
750.62	5814.9	
750.8	5777.3	
750.98	3905.5	
751.16	4335.5	
751.34	5912.5	
751.52	5172.5	
751.7	5107.6	
751.88	3870	
752.06	6335.7	
752.24	6092.7	
752.42	3777.8	
752.59	4234.5	
752.77	5773.9	
752.95	7126.2	
753.13	5025	
753.31	4336.2	
753.49	5441.5	
753.67	5899.5	
753.85	4709	
754.03	4230.4	
754.21	6262.7	
754.38	6649.8	
754.56	4500.1	
754.74	3483.6	
754.92	5530.9	
755.1	6297.5	
755.28	3648.8	
755.46	3662.5	
755.64	7204.1	
755.82	7281.2	
755.99	4057.7	
756.17	4211.3	
756.35	4795	
756.53	6462	
756.71	3087.7	
756.89	4029.7	
757.07	6007.4	
757.25	5050.3	
757.42	4597	
757.6	5576.6	
757.78	5999.2	
757.96	4937	
758.14	4248.9	
758.32	3762.8	
758.5	4472.8	
758.67	5728.2	
758.85	4020.2	
759.03	4194.2	
759.21	5624.4	
759.39	4977.2	
759.57	3599.6	
759.75	4879.6	
759.92	6240.8	
760.1	5384.8	
760.28	5193.6	
760.46	5460.6	
760.64	5122.7	
760.82	4912.4	
760.99	4957.4	
761.17	4121.2	
761.35	6033.3	
761.53	4990.9	
761.71	4242.7	
761.89	4975.9	
762.06	5868.8	
762.24	5347.2	
762.42	4274.1	
762.6	4042.7	
762.78	5326.1	
762.96	5356.8	
763.13	4689.8	
763.31	4315.8	
763.49	6241.5	
763.67	5295.4	
763.85	5235.3	
764.02	5809.4	
764.2	6507.1	
764.38	5676.3	
764.56	4247.5	
764.74	5163.6	
764.91	6537.1	
765.09	5469.4	
765.27	3896.6	
765.45	3665.2	
765.63	6633.4	
765.8	6514.6	
765.98	3411.2	
766.16	3783.3	
766.34	4985.4	
766.52	4816.8	
766.69	4809.3	
766.87	3587.4	
767.05	5494	
767.23	6374	
767.41	3946.4	
767.58	4240	
767.76	6102.3	
767.94	6179.4	
768.12	4026.3	
768.29	4936.3	
768.47	5580.7	
768.65	6327.5	
768.83	3760.1	
769	4962.9	
769.18	5115.8	
769.36	5870.8	
769.54	4713.7	
769.72	3788.1	
769.89	6143.2	
770.07	6300.2	
770.25	4111	
770.43	5423	
770.6	7014.3	
770.78	7417.7	
770.96	4263.9	
771.14	4988.9	
771.31	6118	
771.49	5367.7	
771.67	3503.4	
771.85	3722.5	
772.02	4622.3	
772.2	5442.8	
772.38	4505.5	
772.55	4042.7	
772.73	5768.4	
772.91	5485.1	
773.09	4403.8	
773.26	4478.9	
773.44	5688.6	
773.62	5334.3	
773.8	3843.4	
773.97	3588	
774.15	5780.7	
774.33	5330.9	
774.5	3754.6	
774.68	4160.8	
774.86	5810.8	
775.04	5412.1	
775.21	3850.9	
775.39	3845.4	
775.57	5721.3	
775.74	6146	
775.92	3715	
776.1	3679.5	
776.27	5705.6	
776.45	6957.6	
776.63	3885	
776.81	3383.9	
776.98	5345.2	
777.16	6518	
777.34	4076.1	
777.51	4022.9	
777.69	5323.4	
777.87	5098.8	
778.04	4098.7	
778.22	4858.5	
778.4	5135.6	
778.57	5786.2	
778.75	3331.4	
778.93	3684.3	
779.1	4926.7	
779.28	4815.5	
779.46	3425.6	
779.64	3930.7	
779.81	6014.9	
779.99	6940.6	
780.17	4780	
780.34	4906.9	
780.52	5397.8	
780.69	5638.7	
780.87	4276.2	
781.05	3827	
781.22	5464	
781.4	5616.9	
781.58	3958	
781.75	3142.3	
781.93	5595.7	
782.11	4930.8	
782.28	4813.4	
782.46	3945.8	
782.64	4766.3	
782.81	5742.5	
782.99	4109.6	
783.17	3972.4	
783.34	5661.3	
783.52	4821.6	
783.69	4245.4	
783.87	5092.6	
784.05	4926.7	
784.22	4949.3	
784.4	5100.1	
784.58	4339	
784.75	5895.4	
784.93	4991.6	
785.1	3955.3	
785.28	4644.1	
785.46	5598.5	
785.63	4957.4	
785.81	3997.6	
785.99	3790.1	
786.16	5117.2	
786.34	5563.6	
786.51	3865.9	
786.69	4278.9	
786.87	4674.1	
787.04	5251.7	
787.22	3710.9	
787.39	4756.1	
787.57	4980.7	
787.75	6090.7	
787.92	4838	
788.1	4840	
788.27	4980	
788.45	4716.5	
788.63	4570.4	
788.8	3187.3	
788.98	5341.1	
789.15	4720.6	
789.33	3396.9	
789.5	4103.4	
789.68	5948	
789.86	6117.3	
790.03	4467.3	
790.21	3916.4	
790.38	5950	
790.56	5133.6	
790.73	3726.6	
790.91	3779.2	
791.09	4979.3	
791.26	5811.5	
791.44	3999	
791.61	3482.2	
791.79	4993.6	
791.96	5091.9	
792.14	3543.7	
792.32	3091.8	
792.49	5014.8	
792.67	5070.1	
792.84	3633.1	
793.02	3398.9	
793.19	5459.9	
793.37	6288.6	
793.54	3163.4	
793.72	3493.2	
793.89	6367.1	
794.07	5041.4	
794.25	4183.3	
794.42	3222.1	
794.6	6167.1	
794.77	5791.7	
794.95	4416.1	
795.12	3856.3	
795.3	5025	
795.47	5647.6	
795.65	4291.2	
795.82	4086.4	
796	4788.8	
796.17	6828.6	
796.35	3929.4	
796.52	4661.9	
796.7	5566.4	
796.87	5693.4	
797.05	4965	
797.22	4830.5	
797.4	5576.6	
797.57	6727.6	
797.75	4101.4	
797.92	3796.3	
798.1	5943.9	
798.27	5022.3	
798.45	3237.8	
798.62	3521.8	
798.8	5354.8	
798.97	5853.8	
799.15	4331.5	
799.32	4078.9	
799.5	4564.9	
799.67	5417.6	
799.85	4538.3	
800.02	3190.1	
800.2	5059.2	
800.37	5380.7	
800.55	4631.1	
800.72	3768.9	
800.9	5844.2	
801.07	6312.5	
801.25	5196.4	
801.42	4274.8	
801.6	5864.7	
801.77	5606	
801.95	3977.8	
802.12	3764.2	
802.29	5541.8	
802.47	5557.5	
802.64	4191.5	
802.82	3160.7	
802.99	4977.9	
803.17	6027.9	
803.34	4111	
803.52	3687.7	
803.69	6711.2	
803.87	4758.1	
804.04	4072.7	
804.21	4180.6	
804.39	6143.2	
804.56	5237.3	
804.74	3465.2	
804.91	4301.4	
805.09	5041.4	
805.26	5184.1	
805.44	3536.8	
805.61	3885	
805.78	5726.1	
805.96	5765	
806.13	4238.6	
806.31	4642.1	
806.48	4586.8	
806.66	5115.8	
806.83	4206.5	
807	4164.2	
807.18	5016.2	
807.35	5459.9	
807.53	4083	
807.7	3232.4	
807.87	6284.5	
808.05	5171.1	
808.22	4590.2	
808.4	3269.9	
808.57	5126.7	
808.74	4693.3	
808.92	3806.5	
809.09	4855.1	
809.27	4958.1	
809.44	5625.8	
809.61	3319.8	
809.79	3717.7	
809.96	6279.8	
810.14	5920.7	
810.31	3220.8	
810.48	4011.3	
810.66	5190.9	
810.83	5995.8	
811.01	3764.2	
811.18	4250.2	
811.35	5836	
811.53	4545.8	
811.7	4659.1	
811.87	4331.5	
812.05	5053.7	
812.22	4958.8	
812.39	3697.3	
812.57	3512.3	
812.74	5100.8	
812.92	6924.9	
813.09	3986	
813.26	4437.3	
813.44	6586.3	
813.61	4993.6	
813.78	3345	
813.96	4442.7	
814.13	5126.7	
814.3	4720.6	
814.48	4812.7	
814.65	4006.5	
814.82	6309.8	
815	4906.9	
815.17	4123.2	
815.34	5017.5	
815.52	4993.6	
815.69	5037.3	
815.87	4051.6	
816.04	3506.1	
816.21	5139.7	
816.38	4493.9	
816.56	3995.6	
816.73	3677.5	
816.9	6471.6	
817.08	5914.5	
817.25	3764.2	
817.42	4748.6	
817.6	4665.3	
817.77	5122.7	
817.94	4176.5	
818.12	3626.3	
818.29	4812	
818.46	7647.1	
818.64	3852.9	
818.81	3597.6	
818.98	4797	
819.16	6954.2	
819.33	4394.3	
819.5	4104.1	
819.67	5504.3	
819.85	6099.5	
820.02	4086.4	
820.19	4300.7	
820.37	5332.2	
820.54	4864.6	
820.71	4161.5	
820.88	5200.5	
821.06	5384.8	
821.23	4864.6	
821.4	4158.1	
821.58	4147.8	
821.75	5912.5	
821.92	5216.9	
822.09	3306.8	
822.27	3432.4	
822.44	5098.8	
822.61	5003.2	
822.79	3390.1	
822.96	6575.3	
823.13	5604.6	
823.3	4799.8	
823.48	3910.9	
823.65	3522.5	
823.82	5838.1	
823.99	4654.4	
824.17	4963.6	
824.34	3577.1	
824.51	6782.9	
824.68	5164.3	
824.86	3666.5	
825.03	4195.6	
825.2	5044.1	
825.37	6238.8	
825.55	3690.4	
825.72	4111.6	
825.89	6830	
826.06	6318	
826.24	4020.8	
826.41	4030.4	
826.58	6209.4	
826.75	5427.1	
826.92	3130	
827.1	3525.9	
827.27	8549.6	
827.44	6790.4	
827.61	3792.2	
827.79	4668	
827.96	4807.9	
828.13	5201.2	
828.3	3965.6	
828.47	3364.8	
828.65	5319.3	
828.82	5277.6	
828.99	5253	
829.16	4485.7	
829.34	5750.7	
829.51	5494.7	
829.68	4121.2	
829.85	4259.8	
830.02	6002.6	
830.2	5786.2	
830.37	3199.6	
830.54	4980	
830.71	6503	
830.88	5089.9	
831.05	3221.5	
831.23	3748.5	
831.4	6250.4	
831.57	7035.5	
831.74	3803.8	
831.91	3379.1	
832.09	5365	
832.26	5705.6	
832.43	4009.9	
832.6	4470	
832.77	5322	
832.94	6113.2	
833.12	3133.4	
833.29	3921.2	
833.46	5194.3	
833.63	7380.2	
833.8	4261.8	
833.97	3988.8	
834.15	5739.1	
834.32	5504.9	
834.49	4126.7	
834.66	4283	
834.83	5979.4	
835	4827.7	
835.17	3773	
835.35	3856.3	
835.52	5623.7	
835.69	5516.5	
835.86	4057.7	
836.03	3278.1	
836.2	5668.1	
836.37	5279.7	
836.55	4039.3	
836.72	3732.1	
836.89	5240.1	
837.06	5762.3	
837.23	4005.1	
837.4	4467.3	
837.57	6563.7	
837.75	7339.9	
837.92	3533.4	
838.09	3850.2	
838.26	5240.8	
838.43	6058.6	
838.6	4182.6	
838.77	3745.1	
838.94	6869.6	
839.11	6628.6	
839.29	3934.1	
839.46	3094.5	
839.63	5711.8	
839.8	5437.4	
839.97	3798.3	
840.14	3796.9	
840.31	5519.3	
840.48	5747.3	
840.65	3189.4	
840.82	3708.2	
841	5692	
841.17	5645.6	
841.34	3584.6	
841.51	3557.3	
841.68	5597.1	
841.85	5293.3	
842.02	3702	
842.19	3034.4	
842.36	5421	
842.53	5472.2	
842.7	3517.7	
842.87	4397.7	
843.05	7288.7	
843.22	5375.2	
843.39	3359.4	
843.56	3636.5	
843.73	5162.9	
843.9	5779.4	
844.07	5840.1	
844.24	4817.5	
844.41	8483.4	
844.58	4943.8	
844.75	3444.7	
844.92	3723.9	
845.09	5694.7	
845.26	5710.4	
845.43	3499.3	
845.6	3715	
845.77	5640.8	
845.94	5449.6	
846.12	3952.6	
846.29	4151.9	
846.46	5924.1	
846.63	5655.8	
846.8	3506.8	
846.97	4230.4	
847.14	6210.1	
847.31	5656.5	
847.48	4017.4	
847.65	4388.8	
847.82	6047	
847.99	5964.4	
848.16	4757.4	
848.33	4398.4	
848.5	5275.6	
848.67	6229.2	
848.84	3464.5	
849.01	3670	
849.18	5144.5	
849.35	4794.3	
849.52	4448.9	
849.69	3434.4	
849.86	5911.1	
850.03	6190.3	
850.2	3631	
850.37	4307.6	
850.54	6058.6	
850.71	5317.2	
850.88	4257	
851.05	3443.3	
851.22	5604.6	
851.39	6339.8	
851.56	3308.2	
851.73	4074.8	
851.9	4963.6	
852.07	5953.4	
852.24	3885.7	
852.41	3526.6	
852.58	5618.9	
852.75	5069.4	
852.92	3997.6	
853.09	3398.3	
853.26	5307	
853.43	6178.7	
853.6	3502	
853.77	2975.7	
853.94	6262.7	
854.11	5641.5	
854.28	5251	
854.44	3826.3	
854.61	6787.7	
854.78	5760.9	
854.95	3510.9	
855.12	4465.3	
855.29	4579.3	
855.46	6425.2	
855.63	3493.8	
855.8	4932.9	
855.97	5255.8	
856.14	6121.4	
856.31	5036	
856.48	3837.9	
856.65	5261.9	
856.82	5034.6	
856.99	3365.5	
857.16	3814.7	
857.33	7027.3	
857.49	5403.2	
857.66	3800.3	
857.83	4117.8	
858	5274.9	
858.17	5541.1	
858.34	3357.3	
858.51	3498.6	
858.68	6422.4	
858.85	6488.6	
859.02	4118.5	
859.19	4385.4	
859.36	4919.2	
859.52	5068	
859.69	3561.4	
859.86	4175.1	
860.03	5102.9	
860.2	6259.3	
860.37	3184.6	
860.54	3543	
860.71	5940.5	
860.88	6457.9	
861.05	3961.5	
861.21	4474.8	
861.38	6421.7	
861.55	4902.2	
861.72	3160.7	
861.89	3882.3	
862.06	6002.6	
862.23	6563.7	
862.4	3403.7	
862.56	3693.9	
862.73	5810.1	
862.9	5537	
863.07	4094.6	
863.24	3186.6	
863.41	4885.1	
863.58	5008.6	
863.75	3595.6	
863.91	4077.5	
864.08	6323.4	
864.25	5909.8	
864.42	4446.8	
864.59	4956.1	
864.76	6685.9	
864.93	5031.2	
865.09	3386.7	
865.26	3772.4	
865.43	6165.1	
865.6	6598.6	
865.77	3085.6	
865.94	3496.6	
866.1	6222.4	
866.27	5976.7	
866.44	5326.1	
866.61	3379.1	
866.78	5425.8	
866.95	5862.7	
867.11	3339.6	
867.28	3074	
867.45	6031.3	
867.62	5096.7	
867.79	4129.4	
867.96	3493.2	
868.12	4990.9	
868.29	6061.3	
868.46	3037.1	
868.63	4692.6	
868.8	6146.6	
868.97	5888.6	
869.13	3637.9	
869.3	3688.4	
869.47	5797.1	
869.64	6024.4	
869.81	3544.4	
869.97	3517.7	
870.14	5763.7	
870.31	6422.4	
870.48	3435.1	
870.65	4546.5	
870.81	5345.2	
870.98	5268.7	
871.15	3943.7	
871.32	3583.9	
871.48	5843.5	
871.65	6410.8	
871.82	3497.2	
871.99	3861.1	
872.16	6870.9	
872.32	6279.1	
872.49	3509.5	
872.66	3531.4	
872.83	5962.3	
872.99	5174.5	
873.16	4077.5	
873.33	3491.8	
873.5	5537	
873.67	5588.2	
873.83	3722.5	
874	4769	
874.17	5687.9	
874.34	6834.1	
874.5	4605.9	
874.67	4453	
874.84	6388.3	
875.01	4977.9	
875.17	4981.3	
875.34	3478.1	
875.51	5637.4	
875.68	6828.6	
875.84	4344.4	
876.01	5192.3	
876.18	5913.9	
876.34	5855.8	
876.51	3538.9	
876.68	3506.8	
876.85	5416.2	
877.01	6246.3	
877.18	5042.1	
877.35	3459	
877.52	5499.5	
877.68	4895.3	
877.85	3377.8	
878.02	3420.1	
878.18	5474.9	
878.35	5253.7	
878.52	2777	
878.69	4025.6	
878.85	5915.2	
879.02	5941.8	
879.19	5046.2	
879.35	3784	
879.52	5892.7	
879.69	6176	
879.86	3023.5	
880.02	3940.3	
880.19	5472.9	
880.36	6653.2	
880.52	4070.7	
880.69	4194.2	
880.86	6052.4	
881.02	6091.3	
881.19	3827	
881.36	3857.7	
881.52	5913.2	
881.69	5237.3	
881.86	3837.9	
882.02	3732.1	
882.19	6095.4	
882.36	7301.7	
882.52	3592.1	
882.69	5018.9	
882.86	5712.5	
883.02	5546.6	
883.19	4345.1	
883.36	4054.3	
883.52	6037.4	
883.69	6908.5	
883.86	3609.2	
884.02	3157.3	
884.19	5969.1	
884.36	5524.7	
884.52	3945.8	
884.69	3699.3	
884.86	5197.7	
885.02	6584.2	
885.19	3971.7	
885.36	4108.9	
885.52	5456.5	
885.69	5665.4	
885.86	5087.8	
886.02	4541	
886.19	5950	
886.35	5440.8	
886.52	3885	
886.69	4954	
886.85	5074.9	
887.02	6326.2	
887.19	6326.2	
887.35	6326.2	
887.52	6326.2	
887.68	6326.2	
887.85	6326.2	
888.02	6326.2	
888.18	6326.2	
888.35	6326.2	
888.51	6326.2	
888.68	6326.2	
888.85	6326.2	
889.01	6326.2	
889.18	6326.2	
889.35	6326.2	
889.51	6326.2	
889.68	6326.2	
889.84	6326.2	
890.01	6326.2	
890.17	6326.2	
890.34	6326.2	
890.51	6326.2	
890.67	6326.2	
890.84	6326.2	
891	6326.2	
891.17	6326.2	
891.34	6326.2	
891.5	6326.2	
891.67	6326.2	
891.83	6326.2	
892	6326.2	
892.16	6326.2	
892.33	6326.2	
892.5	6326.2	
892.66	6326.2	
892.83	6326.2	
892.99	6326.2	
893.16	6326.2	
893.32	6326.2	
893.49	6326.2	
893.65	6326.2	
893.82	6326.2	
893.99	6326.2	
894.15	6326.2	
894.32	6326.2	
894.48	6326.2	
894.65	6326.2	
894.81	6326.2	
894.98	6326.2	
895.14	6326.2	
895.31	6326.2	
895.47	6326.2	
895.64	6326.2	
895.81	6326.2	
895.97	6326.2	
896.14	6326.2	
896.3	6326.2	
896.47	6326.2	
896.63	6326.2	
896.8	6326.2	
896.96	6326.2	
897.13	6326.2	
897.29	6326.2	
897.46	6326.2	
897.62	6326.2	
897.79	6326.2	
897.95	6326.2	
898.12	6326.2	
898.28	6326.2	
898.45	6326.2	
898.61	6326.2	
898.78	6326.2	
898.94	6326.2	
899.11	6326.2	
899.27	6326.2	
899.44	6326.2	
899.6	6326.2	
899.77	6326.2	
899.93	6326.2	
900.1	6326.2	
900.26	6326.2	
900.43	6326.2	
900.59	6326.2	
900.76	6326.2	
900.92	6326.2	
901.09	6326.2	
901.25	6326.2	
901.42	6326.2	
901.58	6326.2	
901.75	6326.2	
901.91	6326.2	
902.07	6326.2	
902.24	6326.2	
902.4	6326.2	
902.57	6326.2	
902.73	6326.2	
902.9	6326.2	
903.06	6326.2	
903.23	6326.2	
903.39	6326.2	
903.56	6326.2	
903.72	6326.2	
903.88	6326.2	
904.05	6326.2	
904.21	6326.2	
904.38	6326.2	
904.54	6326.2	
904.71	6326.2	
904.87	6326.2	
905.03	6326.2	
905.2	6326.2	
905.36	6326.2	
905.53	6326.2	
905.69	6326.2	
905.86	6326.2	
906.02	6326.2	
906.18	6326.2	
906.35	6326.2	
906.51	6326.2	
906.68	6326.2	
906.84	6326.2	
907.01	6326.2	
907.17	6326.2	
907.33	6326.2	
907.5	6326.2	
907.66	6326.2	
907.83	6326.2	
907.99	6326.2	
908.15	6326.2	
908.32	6326.2	
908.48	6326.2	
908.65	6326.2	
908.81	6326.2	
908.97	6326.2	
909.14	6326.2	
909.3	6326.2	
909.47	6326.2	
909.63	6326.2	
909.79	6326.2	
909.96	6326.2	
910.12	6326.2	
910.28	6326.2	
910.45	6326.2	
910.61	6326.2	
910.78	6326.2	
910.94	6326.2	
911.1	6326.2	
911.27	6326.2	
911.43	6326.2	
911.59	6326.2	
911.76	6326.2	
911.92	6326.2	
912.08	6326.2	
912.25	6326.2	
912.41	6326.2	
912.57	6326.2	
912.74	6326.2	
912.9	6326.2	
913.07	6326.2	
913.23	6326.2	
913.39	6326.2	
913.56	6326.2	
913.72	6326.2	
913.88	6326.2	
914.05	6326.2	
914.21	6326.2	
914.37	6326.2	
914.54	6326.2	
914.7	6326.2	
914.86	6326.2	
915.03	6326.2	
915.19	6326.2	
