Wavelength	Intensities	
nm	a.u.	
179.22	1894.9	
179.44	1894	
179.65	1895.7	
179.86	1892.3	
180.08	1876.6	
180.29	4754	
180.51	3485.6	
180.72	5634.6	
180.94	6429.9	
181.15	3183.9	
181.37	3108.8	
181.58	5430.5	
181.79	5655.8	
182.01	3238.5	
182.22	3511.6	
182.44	5692.7	
182.65	4748.6	
182.87	4420.2	
183.08	3886.4	
183.29	5988.3	
183.51	4930.8	
183.72	3540.3	
183.94	5128.8	
184.15	5329.5	
184.37	5302.9	
184.58	3119.1	
184.79	4262.5	
185.01	4919.9	
185.22	5634.6	
185.44	4467.3	
185.65	3832.4	
185.86	5259.9	
186.08	4846.9	
186.29	3043.3	
186.51	3312.2	
186.72	4967	
186.94	5828.5	
187.15	3837.2	
187.36	3892.5	
187.58	7546.1	
187.79	5431.2	
188.01	4083	
188.22	6331.6	
188.43	6548	
188.65	5672.9	
188.86	3245.3	
189.08	3904.1	
189.29	5143.1	
189.5	5151.3	
189.72	3625.6	
189.93	3687	
190.15	5853.1	
190.36	6990.4	
190.57	3994.2	
190.79	3827.7	
191	5941.8	
191.22	5838.8	
191.43	3985.3	
191.64	3282.9	
191.86	6116.6	
192.07	5794.4	
192.29	3477.5	
192.5	3680.2	
192.71	5892.7	
192.93	5078.3	
193.14	3566.2	
193.35	3738.2	
193.57	5163.6	
193.78	5866.1	
194	2912.9	
194.21	3518.4	
194.42	4897.4	
194.64	5356.1	
194.85	3908.2	
195.07	4556.7	
195.28	5318.6	
195.49	4645.5	
195.71	4784.7	
195.92	3362.1	
196.13	5485.8	
196.35	5585.5	
196.56	5041.4	
196.78	3908.2	
196.99	6868.9	
197.2	6467.5	
197.42	4502.1	
197.63	3929.4	
197.84	4771.1	
198.06	5522	
198.27	3624.2	
198.48	4830.5	
198.7	5086.5	
198.91	5161.6	
199.13	3941	
199.34	3974.4	
199.55	5689.3	
199.77	4687.1	
199.98	3473.4	
200.19	3980.6	
200.41	5177.9	
200.62	4931.5	
200.83	4060.4	
201.05	4382.7	
201.26	5196.4	
201.47	5048.2	
201.69	3545	
201.9	3390.1	
202.11	5280.3	
202.33	6294.8	
202.54	3698.6	
202.76	4201.1	
202.97	5417.6	
203.18	5383.4	
203.4	4102.8	
203.61	3984	
203.82	5370.5	
204.04	5023	
204.25	3997	
204.46	3876.1	
204.68	5157.5	
204.89	5572.5	
205.1	3841.3	
205.32	3331.4	
205.53	5678.3	
205.74	5881.8	
205.96	2852.8	
206.17	4029.7	
206.38	5631.9	
206.6	5819.6	
206.81	4511.7	
207.02	3661.1	
207.24	5554.1	
207.45	5988.3	
207.66	3735.5	
207.88	3256.3	
208.09	5532.2	
208.3	5299.5	
208.52	3419.4	
208.73	3856.3	
208.94	5313.1	
209.15	5971.2	
209.37	3787.4	
209.58	3971	
209.79	5821	
210.01	5116.5	
210.22	3009.1	
210.43	3191.4	
210.65	5315.8	
210.86	5713.8	
211.07	3769.6	
211.29	3450.8	
211.5	5649	
211.71	5244.8	
211.93	3444.7	
212.14	3445.4	
212.35	5245.5	
212.56	5511.8	
212.78	3941.7	
212.99	3263.8	
213.2	6316.6	
213.42	5094.7	
213.63	3553.9	
213.84	3843.4	
214.06	4703.5	
214.27	4824.3	
214.48	3734.1	
214.69	3990.8	
214.91	6021.7	
215.12	6011.5	
215.33	4059.8	
215.55	4487.1	
215.76	6491.4	
215.97	5692	
216.18	3849.5	
216.4	3801.7	
216.61	4997.7	
216.82	5794.4	
217.04	3531.4	
217.25	3562.1	
217.46	5894.1	
217.67	5726.8	
217.89	3144.3	
218.1	3153.2	
218.31	5319.3	
218.53	5514.5	
218.74	3665.2	
218.95	3614.7	
219.16	5257.1	
219.38	6219.7	
219.59	3507.5	
219.8	4227.7	
220.01	6822.5	
220.23	5312.4	
220.44	4629.8	
220.65	3459.7	
220.87	5422.3	
221.08	5959.6	
221.29	3216	
221.5	4256.4	
221.72	7270.3	
221.93	5042.8	
222.14	3990.1	
222.35	4665.3	
222.57	5348.6	
222.78	5655.8	
222.99	3777.8	
223.2	4078.2	
223.42	5646.9	
223.63	5772.5	
223.84	2910.8	
224.05	2902	
224.27	6851.8	
224.48	6193.1	
224.69	4660.5	
224.9	3946.4	
225.12	5446.2	
225.33	5306.3	
225.54	3163.4	
225.75	3594.2	
225.97	4926	
226.18	5181.4	
226.39	3805.1	
226.6	3617.4	
226.82	5079.6	
227.03	4968.4	
227.24	3891.1	
227.45	3259	
227.67	5709.1	
227.88	6220.4	
228.09	4383.3	
228.3	4474.1	
228.52	5761.6	
228.73	5224.4	
228.94	3686.3	
229.15	3221.5	
229.36	5238.7	
229.58	5148.6	
229.79	3725.9	
230	4281.6	
230.21	6336.4	
230.43	5374.6	
230.64	3880.2	
230.85	4076.1	
231.06	5712.5	
231.28	5763	
231.49	3295.2	
231.7	3878.2	
231.91	5646.2	
232.12	5369.1	
232.34	3368.9	
232.55	3836.5	
232.76	5950.7	
232.97	5502.2	
233.18	3474	
233.4	3923.2	
233.61	5533.6	
233.82	5053	
234.03	3614	
234.25	3590.8	
234.46	7392.5	
234.67	5329.5	
234.88	4052.2	
235.09	3502	
235.31	5628.5	
235.52	5219.6	
235.73	3936.9	
235.94	3320.4	
236.15	5062.6	
236.37	6376.7	
236.58	3460.4	
236.79	3750.5	
237	5608	
237.21	4845.5	
237.43	4111.6	
237.64	3181.2	
237.85	9531.9	
238.06	4898.7	
238.27	4109.6	
238.48	3346.4	
238.7	5692.7	
238.91	5141.1	
239.12	3781.9	
239.33	3816.7	
239.54	4931.5	
239.76	5252.4	
239.97	3745.7	
240.18	3778.5	
240.39	6583.5	
240.6	5592.3	
240.82	3918.4	
241.03	3216	
241.24	5231.2	
241.45	6172.6	
241.66	3461.7	
241.87	4061.8	
242.09	6035.4	
242.3	6391.7	
242.51	4154.6	
242.72	3812	
242.93	5787.6	
243.14	5276.9	
243.36	4435.9	
243.57	4704.2	
243.78	6113.9	
243.99	5710.4	
244.2	3865.2	
244.41	3476.8	
244.63	4872.1	
244.84	5629.2	
245.05	4027	
245.26	3834.5	
245.47	5549.3	
245.68	5848.3	
245.9	5044.1	
246.11	4020.8	
246.32	5205.9	
246.53	5515.2	
246.74	6167.1	
246.95	3218.7	
247.16	4848.2	
247.38	5333.6	
247.59	3147	
247.8	3797.6	
248.01	4998.4	
248.22	5304.2	
248.43	3467.9	
248.64	3702.7	
248.86	4731.5	
249.07	5065.3	
249.28	3318.4	
249.49	3902.7	
249.7	5837.4	
249.91	5953.4	
250.12	3175	
250.34	3228.3	
250.55	5395.7	
250.76	5347.9	
250.97	3936.2	
251.18	3893.9	
251.39	5909.1	
251.6	5507	
251.81	4024.3	
252.03	4018.1	
252.24	5132.2	
252.45	5817.6	
252.66	3323.2	
252.87	4223.6	
253.08	5355.4	
253.29	6924.2	
253.5	3300.6	
253.72	4591.5	
253.93	5160.2	
254.14	6311.2	
254.35	3560.7	
254.56	3722.5	
254.77	5512.4	
254.98	4936.3	
255.19	3530.7	
255.41	4489.1	
255.62	5410.1	
255.83	5968.5	
256.04	4043.4	
256.25	3961.5	
256.46	6591	
256.67	4993.6	
256.88	3945.1	
257.09	4339	
257.31	4940.4	
257.52	4950.6	
257.73	4900.1	
257.94	3586	
258.15	5220.3	
258.36	5337.7	
258.57	4496	
258.78	2930	
258.99	5785.5	
259.2	5158.2	
259.41	3599.6	
259.63	3721.2	
259.84	6110.5	
260.05	6432	
260.26	4723.3	
260.47	3643.3	
260.68	5882.4	
260.89	5211.4	
261.1	4368.3	
261.31	3472.7	
261.52	5873.6	
261.73	6315.9	
261.95	4664.6	
262.16	4081.6	
262.37	5967.8	
262.58	6050.4	
262.79	4677.6	
263	3706.8	
263.21	5358.2	
263.42	5221.6	
263.63	3761.4	
263.84	3639.2	
264.05	5907.7	
264.26	6233.3	
264.47	4514.4	
264.69	4082.3	
264.9	6008.1	
265.11	5601.2	
265.32	3479.5	
265.53	3635.1	
265.74	5429.8	
265.95	4772.4	
266.16	3887.7	
266.37	4263.9	
266.58	5473.5	
266.79	5134.3	
267	3534.8	
267.21	3293.1	
267.42	4910.3	
267.63	5317.2	
267.84	3763.5	
268.06	3252.2	
268.27	5717.2	
268.48	6032.6	
268.69	3706.1	
268.9	4369	
269.11	5987.6	
269.32	4913.1	
269.53	3792.2	
269.74	3519.1	
269.95	5686.5	
270.16	4716.5	
270.37	3817.4	
270.58	4391.5	
270.79	5162.9	
271	5812.1	
271.21	4024.9	
271.42	3805.1	
271.63	5462.6	
271.84	4930.8	
272.05	3032.4	
272.26	3397.6	
272.47	5324.7	
272.68	5493.3	
272.89	3659.7	
273.11	4218.8	
273.32	5118.6	
273.53	6263.4	
273.74	4117.8	
273.95	4003.8	
274.16	5926.8	
274.37	5374.6	
274.58	4103.4	
274.79	3319.1	
275	5412.1	
275.21	5948.7	
275.42	5014.8	
275.63	4238.6	
275.84	5584.8	
276.05	6932.4	
276.26	3978.5	
276.47	3736.2	
276.68	5192.3	
276.89	6274.3	
277.1	4200.4	
277.31	3352.5	
277.52	5559.6	
277.73	5726.8	
277.94	3252.2	
278.15	3689.1	
278.36	5537	
278.57	5029.1	
278.78	3596.2	
278.99	4115.1	
279.2	4963.6	
279.41	4931.5	
279.62	4771.1	
279.83	3379.1	
280.04	6468.9	
280.25	4956.8	
280.46	4768.4	
280.67	3789.4	
280.88	4986.1	
281.09	6001.2	
281.3	4048.8	
281.51	5011.4	
281.72	5068	
281.93	5838.1	
282.14	3540.9	
282.35	3838.6	
282.56	5872.2	
282.77	5826.5	
282.98	3697.3	
283.19	4433.2	
283.4	7083.2	
283.61	5224.4	
283.82	3360	
284.03	4698	
284.24	5466.7	
284.45	5983.5	
284.66	4737.6	
284.87	4545.8	
285.08	5888.6	
285.29	6032	
285.5	3225.6	
285.71	3733.4	
285.92	5935.7	
286.12	6554.9	
286.33	4668	
286.54	3650.2	
286.75	5823.7	
286.96	5220.3	
287.17	3360	
287.38	4573.8	
287.59	5038.7	
287.8	4928.1	
288.01	3735.5	
288.22	4330.1	
288.43	5819.6	
288.64	4851.6	
288.85	4360.8	
289.06	4181.3	
289.27	5741.1	
289.48	6283.9	
289.69	4698.7	
289.9	4231.8	
290.11	5939.1	
290.32	5058.5	
290.53	4478.9	
290.74	4048.8	
290.94	5745.2	
291.15	5803.9	
291.36	3657	
291.57	4255	
291.78	5108.3	
291.99	4710.3	
292.2	3406.5	
292.41	4192.9	
292.62	5890	
292.83	5664	
293.04	5128.1	
293.25	3510.9	
293.46	5144.5	
293.67	5855.1	
293.88	3568.2	
294.09	3411.9	
294.29	4870.8	
294.5	5442.1	
294.71	3876.1	
294.92	3652.9	
295.13	5182	
295.34	6468.2	
295.55	3248.8	
295.76	3313.6	
295.97	5694.7	
296.18	6443.6	
296.39	3354.6	
296.6	3608.5	
296.81	5438.7	
297.01	5726.1	
297.22	3732.8	
297.43	3508.2	
297.64	5011.4	
297.85	5010	
298.06	3003.7	
298.27	3185.3	
298.48	5361.6	
298.69	5061.9	
298.9	3879.5	
299.11	3495.2	
299.31	4891.2	
299.52	4851.6	
299.73	4093.9	
299.94	4001	
300.15	5312.4	
300.36	4947.2	
300.57	4081.6	
300.78	4059.1	
300.99	5270.1	
301.2	5410.1	
301.4	3501.3	
301.61	3902.7	
301.82	5636	
302.03	5723.4	
302.24	4326.7	
302.45	3383.9	
302.66	5599.1	
302.87	6113.2	
303.08	3587.4	
303.29	4790.2	
303.49	5130.2	
303.7	5341.8	
303.91	3194.1	
304.12	4640.7	
304.33	4887.8	
304.54	5488.6	
304.75	3572.3	
304.96	3431.7	
305.16	5670.1	
305.37	6400.6	
305.58	3119.7	
305.79	3193.5	
306	5689.9	
306.21	4775.2	
306.42	3465.2	
306.63	5373.9	
306.83	5175.9	
307.04	5879.7	
307.25	3933.5	
307.46	3893.9	
307.67	4600.4	
307.88	5731.6	
308.09	3560.1	
308.29	3717.1	
308.5	5386.2	
308.71	5900.9	
308.92	3839.9	
309.13	3414	
309.34	5220.3	
309.55	5307	
309.75	4482.3	
309.96	4020.2	
310.17	5781.4	
310.38	5057.8	
310.59	4249.5	
310.8	3351.2	
311.01	5128.1	
311.21	5224.4	
311.42	3411.9	
311.63	3510.9	
311.84	5085.1	
312.05	5450.3	
312.26	3964.2	
312.46	4326	
312.67	5166.3	
312.88	4857.8	
313.09	3480.2	
313.3	3409.9	
313.51	6133	
313.71	6487.3	
313.92	3419.4	
314.13	3631.7	
314.34	5523.4	
314.55	5310.4	
314.76	4431.8	
314.96	3878.9	
315.17	5427.8	
315.38	5719.3	
315.59	3445.4	
315.8	3310.2	
316.01	6152.8	
316.21	6244.9	
316.42	3327.9	
316.63	3810.6	
316.84	5255.1	
317.05	5980.8	
317.26	4103.4	
317.46	3671.3	
317.67	5308.3	
317.88	5733.6	
318.09	4387.4	
318.3	3235.1	
318.5	5029.8	
318.71	5607.3	
318.92	5569.8	
319.13	4020.2	
319.34	5828.5	
319.54	5987.6	
319.75	3252.9	
319.96	3130	
320.17	5658.5	
320.38	5906.3	
320.58	3152.5	
320.79	3808.5	
321	5870.8	
321.21	5957.5	
321.42	3807.9	
321.62	3183.9	
321.83	4992.3	
322.04	5350	
322.25	3686.3	
322.46	3429.7	
322.66	5432.6	
322.87	5626.5	
323.08	4271.4	
323.29	3397.6	
323.5	6374	
323.7	4851	
323.91	4699.4	
324.12	4225.6	
324.33	5431.9	
324.53	5707.7	
324.74	3988.8	
324.95	4263.9	
325.16	4782.7	
325.37	5177.9	
325.57	3444	
325.78	3496.6	
325.99	5372.5	
326.2	4901.5	
326.4	4972.5	
326.61	3143.6	
326.82	5242.8	
327.03	5462.6	
327.24	4820.2	
327.44	4609.3	
327.65	5532.2	
327.86	4571.7	
328.07	4093.2	
328.27	3344.3	
328.48	5948.7	
328.69	4905.6	
328.9	4942.4	
329.1	3690.4	
329.31	5218.9	
329.52	6124.1	
329.73	3468.6	
329.93	3910.3	
330.14	5345.2	
330.35	5569.1	
330.56	5685.8	
330.76	4283.7	
330.97	5110.4	
331.18	5552	
331.39	3818.8	
331.59	3095.2	
331.8	5896.1	
332.01	6073.6	
332.22	3549.8	
332.42	4075.5	
332.63	5438.7	
332.84	4975.2	
333.05	3866.6	
333.25	3538.2	
333.46	5121.3	
333.67	5343.8	
333.88	3585.3	
334.08	4010.6	
334.29	7078.5	
334.5	6035.4	
334.7	3367.5	
334.91	4980.7	
335.12	4926	
335.33	5690.6	
335.53	3824.2	
335.74	5681.1	
335.95	5133.6	
336.16	4985.4	
336.36	3849.5	
336.57	4414.7	
336.78	4857.8	
336.98	5960.3	
337.19	4677.6	
337.4	3751.2	
337.61	6392.4	
337.81	4828.4	
338.02	3607.2	
338.23	4521.2	
338.43	6100.2	
338.64	5010.7	
338.85	3500	
339.05	4519.9	
339.26	6141.2	
339.47	4807.3	
339.68	3535.5	
339.88	5099.4	
340.09	5579.3	
340.3	5790.3	
340.5	4036.5	
340.71	3089	
340.92	4813.4	
341.13	6084.5	
341.33	3382.6	
341.54	4085	
341.75	5485.1	
341.95	5251	
342.16	3895.2	
342.37	4192.2	
342.57	4910.3	
342.78	5299.5	
342.99	4300.1	
343.19	3109.5	
343.4	5755.5	
343.61	5641.5	
343.81	3736.9	
344.02	3369.6	
344.23	5696.1	
344.43	6181.5	
344.64	4315.8	
344.85	4206.5	
345.06	5646.9	
345.26	5967.8	
345.47	3990.8	
345.68	4704.2	
345.88	4741.7	
346.09	5865.4	
346.3	4078.2	
346.5	3096.5	
346.71	5300.8	
346.92	5051	
347.12	3173	
347.33	4003.8	
347.54	5849.7	
347.74	6312.5	
347.95	3956.7	
348.16	2971.6	
348.36	5106.3	
348.57	5005.2	
348.78	3919.8	
348.98	4220.9	
349.19	5340.4	
349.39	4811.4	
349.6	3164.1	
349.81	3479.5	
350.01	5569.1	
350.22	5039.4	
350.43	3824.9	
350.63	4620.9	
350.84	5386.2	
351.05	5160.9	
351.25	3537.5	
351.46	3156.6	
351.67	5902.9	
351.87	5023.7	
352.08	3748.5	
352.29	4228.4	
352.49	5793	
352.7	5510.4	
352.9	3362.8	
353.11	4242.7	
353.32	6429.9	
353.52	5119.2	
353.73	3326.6	
353.94	4246.1	
354.14	5638.7	
354.35	5433.3	
354.55	3431	
354.76	3859.1	
354.97	5556.1	
355.17	5338.4	
355.38	3258.3	
355.59	4539.7	
355.79	5002.5	
356	5461.9	
356.2	3777.1	
356.41	3351.8	
356.62	4784.1	
356.82	5239.4	
357.03	4049.5	
357.24	3673.4	
357.44	5102.9	
357.65	5140.4	
357.85	4859.8	
358.06	3824.9	
358.27	4771.1	
358.47	5038	
358.68	3231	
358.88	4078.2	
359.09	5542.5	
359.3	5884.5	
359.5	4673.5	
359.71	4191.5	
359.91	6348	
360.12	5646.2	
360.33	4029.7	
360.53	4479.6	
360.74	5043.5	
360.94	5125.4	
361.15	4238.6	
361.36	3453.6	
361.56	5812.8	
361.77	5255.8	
361.97	4709	
362.18	3722.5	
362.38	5824.4	
362.59	4883	
362.8	3444	
363	3237.2	
363.21	4683	
363.41	5337.7	
363.62	3904.1	
363.83	4938.3	
364.03	5414.1	
364.24	6379.4	
364.44	5005.9	
364.65	5016.8	
364.85	5149.3	
365.06	4893.3	
365.27	3599.6	
365.47	3610.6	
365.68	6201.9	
365.88	5133.6	
366.09	3981.9	
366.29	3670	
366.5	5433.9	
366.71	5854.5	
366.91	4847.5	
367.12	4125.3	
367.32	6468.2	
367.53	5712.5	
367.73	4085.7	
367.94	5018.9	
368.14	5648.3	
368.35	6528.2	
368.56	4098.7	
368.76	3450.1	
368.97	5769.8	
369.17	7331.7	
369.38	3585.3	
369.58	3842	
369.79	4845.5	
369.99	6036.7	
370.2	4809.3	
370.4	3967.6	
370.61	5457.2	
370.82	6595.8	
371.02	3891.8	
371.23	3210.5	
371.43	4721.9	
371.64	6036.7	
371.84	3827.7	
372.05	5072.8	
372.25	7300.3	
372.46	5745.9	
372.66	3876.8	
372.87	3844.7	
373.07	5801.9	
373.28	7383.6	
373.48	4787.5	
373.69	4531.5	
373.9	5259.2	
374.1	5311.7	
374.31	4774.5	
374.51	4291.2	
374.72	6105.7	
374.92	4937.7	
375.13	4889.2	
375.33	4132.1	
375.54	5638.1	
375.74	5126.7	
375.95	4205.2	
376.15	5388.2	
376.36	5620.3	
376.56	5502.9	
376.77	4231.1	
376.97	4711	
377.18	6720.8	
377.38	5736.4	
377.59	4995	
377.79	3728.7	
378	5564.3	
378.2	5997.8	
378.41	3785.3	
378.61	3693.9	
378.82	6027.9	
379.02	5117.2	
379.23	3941	
379.43	5025.7	
379.64	6073.6	
379.84	5687.9	
380.05	3810.6	
380.25	3784.6	
380.46	5822.4	
380.66	5403.9	
380.87	5078.3	
381.07	5382.7	
381.28	6363.7	
381.48	5868.8	
381.69	3869.3	
381.89	3880.2	
382.1	4790.2	
382.3	6000.5	
382.51	4897.4	
382.71	5750.7	
382.91	5882.4	
383.12	6337.1	
383.32	4211.3	
383.53	4388.1	
383.73	5642.2	
383.94	5436	
384.14	4326	
384.35	3539.6	
384.55	5450.3	
384.76	5866.7	
384.96	4250.9	
385.17	4504.2	
385.37	5913.2	
385.58	5176.6	
385.78	4564.9	
385.98	3444	
386.19	5325.4	
386.39	5684.5	
386.6	3953.3	
386.8	4217.5	
387.01	5869.5	
387.21	5831.9	
387.42	4635.2	
387.62	5207.3	
387.83	5185.5	
388.03	5779.4	
388.23	4269.3	
388.44	4996.4	
388.64	4807.3	
388.85	4986.8	
389.05	4562.2	
389.26	5223.7	
389.46	6841.6	
389.67	6258.6	
389.87	4550.6	
390.07	4643.4	
390.28	5463.3	
390.48	5097.4	
390.69	3803.1	
390.89	4120.5	
391.1	5269.4	
391.3	6168.5	
391.5	5216.9	
391.71	5877	
391.91	5849	
392.12	6914.6	
392.32	5391.6	
392.53	4629.1	
392.73	5362.9	
392.93	5510.4	
393.14	4246.8	
393.34	5085.1	
393.55	5997.1	
393.75	5476.3	
393.95	4281.6	
394.16	4285.7	
394.36	5308.3	
394.57	5953.4	
394.77	3818.8	
394.98	4147.8	
395.18	5212.1	
395.38	5323.4	
395.59	4989.5	
395.79	4039.3	
396	5317.2	
396.2	5816.9	
396.4	4807.3	
396.61	4725.3	
396.81	5991	
397.02	5264.6	
397.22	5074.9	
397.42	5087.2	
397.63	5960.3	
397.83	5229.1	
398.04	3969	
398.24	4407.2	
398.44	5769.8	
398.65	4873.5	
398.85	3793.5	
399.05	3891.8	
399.26	5204.6	
399.46	6866.2	
399.67	4276.8	
399.87	4071.4	
400.07	5533.6	
400.28	5917.9	
400.48	4154	
400.69	5171.8	
400.89	6138.4	
401.09	6522.1	
401.3	4024.9	
401.5	5141.1	
401.7	6830.7	
401.91	7020.4	
402.11	4399.7	
402.32	4649.6	
402.52	6189	
402.72	6126.2	
402.93	4845.5	
403.13	3741	
403.33	6930.3	
403.54	5635.3	
403.74	4506.2	
403.94	5401.2	
404.15	5772.5	
404.35	6789.7	
404.56	4313	
404.76	6066.8	
404.96	6183.5	
405.17	5911.8	
405.37	5569.1	
405.57	4742.4	
405.78	6133	
405.98	5643.5	
406.18	4367	
406.39	5236.7	
406.59	6141.2	
406.79	5831.2	
407	4158.7	
407.2	4214	
407.4	6217.6	
407.61	6403.3	
407.81	4199.7	
408.01	6017.6	
408.22	5158.8	
408.42	7139.9	
408.62	5264	
408.83	4668	
409.03	5751.4	
409.23	5590.3	
409.44	4833.2	
409.64	5083.1	
409.84	6652.5	
410.05	6587	
410.25	4969.7	
410.45	4723.3	
410.66	6077	
410.86	8480	
411.06	5080.3	
411.27	5072.8	
411.47	8188.5	
411.67	6205.3	
411.88	5251	
412.08	5484.5	
412.28	6904.4	
412.49	7395.2	
412.69	5094.7	
412.89	5087.8	
413.09	7221.8	
413.3	7062.8	
413.5	5162.2	
413.7	4789.5	
413.91	6356.9	
414.11	7219.8	
414.31	5053.7	
414.52	5428.5	
414.72	6889.4	
414.92	6791.7	
415.12	5020.9	
415.33	5565	
415.53	7162.4	
415.73	7354.3	
415.94	5941.8	
416.14	5388.2	
416.34	6210.8	
416.55	6042.2	
416.75	6485.2	
416.95	5963.7	
417.15	7133.8	
417.36	7858.1	
417.56	6649.1	
417.76	5792.3	
417.97	7660.1	
418.17	7278.5	
418.37	5349.3	
418.57	5498.8	
418.78	7094.2	
418.98	6825.9	
419.18	6315.3	
419.38	6192.4	
419.59	6884.6	
419.79	6432	
419.99	5367	
420.2	5720	
420.4	7293.5	
420.6	7491.5	
420.8	5309.7	
421.01	5166.3	
421.21	7090.1	
421.41	7367.9	
421.61	5685.8	
421.82	5390.3	
422.02	6693.4	
422.22	7604.1	
422.42	6210.1	
422.63	5847.6	
422.83	6783.6	
423.03	7950.9	
423.23	5857.2	
423.44	4865.3	
423.64	6820.4	
423.84	6629.3	
424.04	5315.8	
424.25	4979.3	
424.45	7791.2	
424.65	7719.5	
424.85	4752.7	
425.06	5311.7	
425.26	7732.4	
425.46	6332.3	
425.66	5870.8	
425.87	5548.6	
426.07	7531.1	
426.27	7400	
426.47	5696.1	
426.67	5120.6	
426.88	7766.6	
427.08	7322.9	
427.28	5859.9	
427.48	5027.1	
427.69	6254.5	
427.89	6870.3	
428.09	5902.2	
428.29	5072.1	
428.5	7553.6	
428.7	7048.4	
428.9	4933.6	
429.1	5488.6	
429.3	7032.7	
429.51	7437.5	
429.71	5283.1	
429.91	6059.9	
430.11	7308.5	
430.31	7539.9	
430.52	5593	
430.72	5851.7	
430.92	7864.2	
431.12	7359	
431.32	5358.2	
431.53	5640.1	
431.73	6330.3	
431.93	8029.4	
432.13	5145.2	
432.33	5138.4	
432.54	6772.6	
432.74	7146.7	
432.94	4990.2	
433.14	6088.6	
433.34	7311.2	
433.55	6788.3	
433.75	6081.1	
433.95	7728.4	
434.15	7134.4	
434.35	6842.3	
434.56	5292	
434.76	4779.3	
434.96	7113.3	
435.16	7438.2	
435.36	5149.3	
435.56	6239.5	
435.77	6780.1	
435.97	6946.7	
436.17	6979.5	
436.37	6206	
436.57	6864.8	
436.78	6727.6	
436.98	7864.2	
437.18	6795.2	
437.38	7498.3	
437.58	7103.7	
437.78	6959.7	
437.99	5631.9	
438.19	7532.4	
438.39	8275.8	
438.59	5630.5	
438.79	5060.5	
438.99	8191.9	
439.2	6995.2	
439.4	5162.9	
439.6	5156.8	
439.8	7329.7	
440	8307.9	
440.2	6095.4	
440.4	6222.4	
440.61	7653.9	
440.81	8216.5	
441.01	5403.9	
441.21	6273.6	
441.41	8103.8	
441.61	7754.3	
441.81	6605.4	
442.02	7570	
442.22	8634.9	
442.42	7915.4	
442.62	5563.6	
442.82	5623	
443.02	8168	
443.22	7340.6	
443.43	5986.9	
443.63	5584.8	
443.83	7172	
444.03	7201.3	
444.23	6902.3	
444.43	6295.5	
444.63	7522.9	
444.83	8715.5	
445.04	5694	
445.24	7005.4	
445.44	7939.3	
445.64	7980.9	
445.84	6508.4	
446.04	6479.1	
446.24	7331.7	
446.44	8329.1	
446.65	5728.9	
446.85	6123.4	
447.05	7567.9	
447.25	8201.4	
447.45	6210.1	
447.65	5580.7	
447.85	7610.3	
448.05	7172	
448.25	6561	
448.46	6408.8	
448.66	7590.5	
448.86	7299.6	
449.06	5460.6	
449.26	6606.7	
449.46	7915.4	
449.66	7053.2	
449.86	6105	
450.06	6055.8	
450.26	7183.6	
450.47	7780.2	
450.67	6350.1	
450.87	6715.3	
451.07	7911.3	
451.27	7691.5	
451.47	5705	
451.67	6282.5	
451.87	7363.1	
452.07	8456.7	
452.27	5988.9	
452.47	5965.1	
452.67	7628.7	
452.88	8185.7	
453.08	5337.7	
453.28	7353.6	
453.48	8914.8	
453.68	7692.9	
453.88	5936.4	
454.08	6136.4	
454.28	8084	
454.48	7654.6	
454.68	6681.2	
454.88	7179.5	
455.08	8188.5	
455.28	7998.7	
455.48	5747.3	
455.68	6401.3	
455.89	8656.8	
456.09	8315.4	
456.29	6161	
456.49	6167.1	
456.69	8534.6	
456.89	7835.5	
457.09	6827.9	
457.29	7044.3	
457.49	8218.5	
457.69	8257.4	
457.89	6582.2	
458.09	6079.7	
458.29	7955.7	
458.49	8645.2	
458.69	6925.5	
458.89	6455.9	
459.09	8988.5	
459.29	9099.8	
459.49	6617	
459.69	7432.1	
459.9	8578.9	
460.1	8091.5	
460.3	6518	
460.5	6341.2	
460.7	8519.6	
460.9	8277.9	
461.1	6039.5	
461.3	7269.6	
461.5	9202.9	
461.7	8789.9	
461.9	6531	
462.1	6822.5	
462.3	8331.8	
462.5	9007.6	
462.7	6535.1	
462.9	6643.6	
463.1	9921.7	
463.3	9581.1	
463.5	6788.3	
463.7	7896.3	
463.9	8559.1	
464.1	8983.1	
464.3	7068.9	
464.5	7307.8	
464.7	9291	
464.9	8958.5	
465.1	8585.1	
465.3	7696.9	
465.5	9693.7	
465.7	9668.5	
465.9	7909.3	
466.1	7769.3	
466.3	9514.9	
466.5	9266.4	
466.7	8723.7	
466.9	7591.1	
467.1	9281.4	
467.3	10173	
467.5	8697	
467.7	7569.3	
467.9	10427	
468.1	11279	
468.3	8370.7	
468.5	8800.8	
468.7	9346.2	
468.9	9240.4	
469.1	7881.3	
469.3	8562.6	
469.5	11217	
469.7	9011.1	
469.9	8338.6	
470.1	7707.2	
470.3	9422	
470.5	9352.4	
470.7	9017.9	
470.9	7830.1	
471.1	9194.7	
471.3	9569.5	
471.5	7550.9	
471.69	9491.7	
471.89	9056.8	
472.09	8673.1	
472.29	8413.1	
472.49	8700.5	
472.69	8868.4	
472.89	9688.9	
473.09	7638.2	
473.29	7647.1	
473.49	9086.8	
473.69	9187.9	
473.89	8605.6	
474.09	7819.8	
474.29	10414	
474.49	10070	
474.69	8578.9	
474.89	7889.5	
475.09	9246.6	
475.29	9179.7	
475.49	7464.8	
475.69	7682.6	
475.88	10709	
476.08	9435.7	
476.28	7322.2	
476.48	7765.2	
476.68	9858.2	
476.88	9701.2	
477.08	7609.6	
477.28	7918.1	
477.48	9217.9	
477.68	9946.3	
477.88	7399.3	
478.08	7761.8	
478.28	10144	
478.48	9391.3	
478.67	7831.4	
478.87	7204.1	
479.07	10036	
479.27	9415.2	
479.47	8073.8	
479.67	8047.8	
479.87	9880.1	
480.07	10484	
480.27	7314	
480.47	8872.5	
480.67	9572.9	
480.87	10164	
481.06	7664.2	
481.26	8415.8	
481.46	9521	
481.66	9472.5	
481.86	8114.1	
482.06	9159.2	
482.26	9216.5	
482.46	10119	
482.66	8073.1	
482.86	7682.6	
483.05	9596.1	
483.25	8995.4	
483.45	10464	
483.65	8052.6	
483.85	9255.5	
484.05	9479.4	
484.25	8551	
484.45	9050.7	
484.65	10356	
484.84	10472	
485.04	7988.4	
485.24	8023.3	
485.44	10620	
485.64	9096.4	
485.84	7358.4	
486.04	8801.5	
486.24	9435.7	
486.44	9828.2	
486.63	7362.4	
486.83	8313.4	
487.03	9370.8	
487.23	9713.5	
487.43	7522.2	
487.63	9788.6	
487.83	9751.1	
488.02	10611	
488.22	8490.2	
488.42	9161.9	
488.62	10547	
488.82	9654.8	
489.02	8232.8	
489.22	8352.3	
489.41	10436	
489.61	10161	
489.81	8027.4	
490.01	8094.3	
490.21	10462	
490.41	11148	
490.61	8109.3	
490.8	8125	
491	10016	
491.2	9314.2	
491.4	8813.1	
491.6	7961.8	
491.8	9965.4	
491.99	10066	
492.19	7679.2	
492.39	8156.4	
492.59	10443	
492.79	10472	
492.99	8913.4	
493.18	7998	
493.38	10621	
493.58	11425	
493.78	8756.4	
493.98	8392.6	
494.18	10393	
494.37	9910.1	
494.57	9123	
494.77	8987.2	
494.97	10771	
495.17	10908	
495.37	8658.8	
495.56	8974.9	
495.76	11262	
495.96	10833	
496.16	10056	
496.36	8957.1	
496.55	11205	
496.75	10748	
496.95	9430.2	
497.15	9204.3	
497.35	11183	
497.54	11241	
497.74	9011.7	
497.94	10788	
498.14	11843	
498.34	11602	
498.53	8705.9	
498.73	9572.9	
498.93	10589	
499.13	11090	
499.33	9493.7	
499.52	10001	
499.72	11208	
499.92	11442	
500.12	9136.7	
500.32	9487.6	
500.51	11547	
500.71	11378	
500.91	10292	
501.11	9973.6	
501.31	11516	
501.5	11877	
501.7	10568	
501.9	9510.8	
502.1	11257	
502.29	11662	
502.49	9992.7	
502.69	10403	
502.89	11520	
503.09	11401	
503.28	8933.9	
503.48	9107.3	
503.68	10694	
503.88	10798	
504.07	10114	
504.27	9633	
504.47	11139	
504.67	11282	
504.86	10064	
505.06	9699.9	
505.26	10783	
505.46	12532	
505.65	9634.3	
505.85	9854.1	
506.05	10737	
506.25	11167	
506.44	8859.5	
506.64	9820	
506.84	10633	
507.04	11630	
507.23	9116.2	
507.43	9680.7	
507.63	12563	
507.83	10747	
508.02	9623.4	
508.22	9280.7	
508.42	12796	
508.62	10705	
508.81	9522.4	
509.01	10042	
509.21	10370	
509.4	10856	
509.6	9773.6	
509.8	9211.8	
510	10728	
510.19	12211	
510.39	9177.6	
510.59	9185.1	
510.79	10600	
510.98	11942	
511.18	9353.8	
511.38	9495.7	
511.57	11432	
511.77	11302	
511.97	10058	
512.17	9052.7	
512.36	11510	
512.56	11345	
512.76	9209	
512.95	8944.2	
513.15	11508	
513.35	10225	
513.55	9933.3	
513.74	9164.7	
513.94	11568	
514.14	10837	
514.33	10122	
514.53	9844.6	
514.73	10944	
514.92	11066	
515.12	9386.5	
515.32	9246.6	
515.51	11199	
515.71	11618	
515.91	10882	
516.11	9344.2	
516.3	12745	
516.5	10753	
516.7	9899.9	
516.89	10465	
517.09	11033	
517.29	10950	
517.48	10120	
517.68	9611.8	
517.88	10753	
518.07	11344	
518.27	10144	
518.47	9211.8	
518.66	11849	
518.86	10486	
519.06	9011.7	
519.25	9465	
519.45	10939	
519.65	12300	
519.84	10112	
520.04	10764	
520.24	12777	
520.43	11595	
520.63	9915.6	
520.83	9591.3	
521.02	10813	
521.22	11488	
521.42	10173	
521.61	10610	
521.81	10966	
522.01	11120	
522.2	9897.2	
522.4	9671.2	
522.6	11546	
522.79	10525	
522.99	9803.6	
523.18	9165.3	
523.38	11424	
523.58	11480	
523.77	11228	
523.97	9321.7	
524.17	13329	
524.36	12607	
524.56	10718	
524.76	10419	
524.95	11663	
525.15	11333	
525.34	10266	
525.54	10323	
525.74	12104	
525.93	11172	
526.13	11559	
526.33	10395	
526.52	12581	
526.72	11976	
526.91	11630	
527.11	10935	
527.31	12614	
527.5	13121	
527.7	10892	
527.89	9861.7	
528.09	11641	
528.29	12248	
528.48	11205	
528.68	10872	
528.87	12651	
529.07	12732	
529.27	10915	
529.46	10489	
529.66	12400	
529.85	12952	
530.05	10418	
530.25	11207	
530.44	13834	
530.64	12366	
530.83	10815	
531.03	11110	
531.23	12853	
531.42	12579	
531.62	11623	
531.81	10862	
532.01	12929	
532.21	13474	
532.4	10864	
532.6	11204	
532.79	14171	
532.99	13158	
533.18	11406	
533.38	12360	
533.58	12856	
533.77	13543	
533.97	11501	
534.16	12214	
534.36	13861	
534.55	12908	
534.75	12420	
534.95	11588	
535.14	13822	
535.34	12910	
535.53	11319	
535.73	13321	
535.92	14433	
536.12	13071	
536.31	11551	
536.51	12663	
536.71	13321	
536.9	13065	
537.1	11544	
537.29	11744	
537.49	13756	
537.68	12894	
537.88	12013	
538.07	11290	
538.27	13150	
538.46	14382	
538.66	11285	
538.86	11718	
539.05	13223	
539.25	13768	
539.44	12088	
539.64	11637	
539.83	13183	
540.03	14245	
540.22	11462	
540.42	11575	
540.61	13401	
540.81	13512	
541	11956	
541.2	12682	
541.39	12906	
541.59	13296	
541.78	12349	
541.98	11299	
542.18	12641	
542.37	12667	
542.57	11762	
542.76	12446	
542.96	12677	
543.15	13362	
543.35	11708	
543.54	11085	
543.74	13573	
543.93	13213	
544.13	11633	
544.32	12786	
544.52	13381	
544.71	12671	
544.91	10691	
545.1	12002	
545.3	12622	
545.49	13389	
545.69	10639	
545.88	11320	
546.08	14347	
546.27	13870	
546.47	11878	
546.66	11169	
546.86	13566	
547.05	14020	
547.24	11273	
547.44	11219	
547.63	12375	
547.83	13727	
548.02	11672	
548.22	11774	
548.41	12207	
548.61	13636	
548.8	11155	
549	11030	
549.19	12904	
549.39	13278	
549.58	10782	
549.78	11431	
549.97	13353	
550.17	12866	
550.36	12135	
550.55	13219	
550.75	12876	
550.94	13685	
551.14	11092	
551.33	11352	
551.53	12078	
551.72	13107	
551.92	11357	
552.11	11100	
552.31	13101	
552.5	13228	
552.69	12809	
552.89	10676	
553.08	12982	
553.28	12779	
553.47	11177	
553.67	12295	
553.86	13668	
554.06	12012	
554.25	10294	
554.44	10901	
554.64	14321	
554.83	13963	
555.03	10830	
555.22	11182	
555.42	13239	
555.61	12941	
555.8	11035	
556	11349	
556.19	12097	
556.39	13360	
556.58	11105	
556.78	11015	
556.97	12857	
557.16	12496	
557.36	12243	
557.55	10615	
557.75	11751	
557.94	13686	
558.13	10813	
558.33	10648	
558.52	13355	
558.72	12243	
558.91	10645	
559.1	10948	
559.3	12024	
559.49	11738	
559.69	10241	
559.88	11327	
560.07	12713	
560.27	13207	
560.46	11518	
560.66	11575	
560.85	12513	
561.04	11737	
561.24	10687	
561.43	10832	
561.63	11903	
561.82	12329	
562.01	12020	
562.21	11140	
562.4	12618	
562.59	13682	
562.79	11019	
562.98	10730	
563.18	12682	
563.37	14038	
563.56	11452	
563.76	10568	
563.95	12265	
564.14	12211	
564.34	11064	
564.53	10746	
564.73	12665	
564.92	13207	
565.11	11241	
565.31	10764	
565.5	13254	
565.69	12338	
565.89	10972	
566.08	11151	
566.27	13298	
566.47	13747	
566.66	11797	
566.85	10570	
567.05	12856	
567.24	12393	
567.44	10838	
567.63	12191	
567.82	13132	
568.02	12981	
568.21	10944	
568.4	11322	
568.6	12870	
568.79	12925	
568.98	10796	
569.18	10965	
569.37	12813	
569.56	14713	
569.76	11265	
569.95	12314	
570.14	13252	
570.34	13162	
570.53	11024	
570.72	10892	
570.91	13760	
571.11	12863	
571.3	11426	
571.49	12276	
571.69	12881	
571.88	12481	
572.07	12032	
572.27	11987	
572.46	12580	
572.65	13520	
572.85	11392	
573.04	11579	
573.23	13792	
573.43	13132	
573.62	11080	
573.81	11825	
574	13284	
574.2	12996	
574.39	11432	
574.58	11626	
574.78	14079	
574.97	13362	
575.16	12087	
575.36	12351	
575.55	13866	
575.74	14045	
575.93	11267	
576.13	12369	
576.32	13330	
576.51	13820	
576.71	11850	
576.9	13110	
577.09	14113	
577.28	13751	
577.48	12105	
577.67	11268	
577.86	13302	
578.05	13792	
578.25	11972	
578.44	12013	
578.63	13416	
578.83	14642	
579.02	11383	
579.21	12942	
579.4	13659	
579.6	13454	
579.79	12201	
579.98	14300	
580.17	14076	
580.37	14158	
580.56	11588	
580.75	12432	
580.94	14659	
581.14	14384	
581.33	12827	
581.52	11722	
581.71	13942	
581.91	14575	
582.1	11466	
582.29	12071	
582.48	13603	
582.68	13632	
582.87	12594	
583.06	12303	
583.25	13936	
583.45	13809	
583.64	12850	
583.83	13668	
584.02	13510	
584.21	13922	
584.41	12891	
584.6	12198	
584.79	13691	
584.98	14496	
585.18	11738	
585.37	11689	
585.56	13205	
585.75	14018	
585.94	11853	
586.14	12651	
586.33	14579	
586.52	13608	
586.71	12326	
586.91	12142	
587.1	13106	
587.29	13973	
587.48	11992	
587.67	11764	
587.87	13891	
588.06	13842	
588.25	13099	
588.44	12394	
588.63	13394	
588.83	14016	
589.02	11911	
589.21	11692	
589.4	13121	
589.59	13059	
589.78	10887	
589.98	11210	
590.17	12501	
590.36	13175	
590.55	10322	
590.74	11056	
590.94	14108	
591.13	12732	
591.32	10850	
591.51	10364	
591.7	13139	
591.89	12686	
592.09	10410	
592.28	10832	
592.47	11935	
592.66	13854	
592.85	10486	
593.05	10899	
593.24	12536	
593.43	13403	
593.62	10959	
593.81	11355	
594	12672	
594.19	12947	
594.39	10662	
594.58	10728	
594.77	12926	
594.96	13544	
595.15	10645	
595.34	11333	
595.54	12918	
595.73	12088	
595.92	9941.5	
596.11	11000	
596.3	13437	
596.49	12156	
596.68	10875	
596.88	11291	
597.07	12960	
597.26	11820	
597.45	10422	
597.64	11625	
597.83	12179	
598.02	12748	
598.22	10430	
598.41	11116	
598.6	12592	
598.79	11990	
598.98	10421	
599.17	11428	
599.36	12626	
599.55	13615	
599.74	12527	
599.94	12220	
600.13	13050	
600.32	11958	
600.51	10322	
600.7	10337	
600.89	13631	
601.08	13651	
601.27	10173	
601.47	11155	
601.66	12836	
601.85	13638	
602.04	10821	
602.23	11035	
602.42	11964	
602.61	12494	
602.8	10742	
602.99	10393	
603.18	12336	
603.37	12630	
603.57	11102	
603.76	11619	
603.95	13277	
604.14	12814	
604.33	10589	
604.52	10849	
604.71	12464	
604.9	12205	
605.09	11655	
605.28	11342	
605.47	13052	
605.66	12722	
605.86	11133	
606.05	10527	
606.24	13172	
606.43	11672	
606.62	10898	
606.81	11620	
607	12951	
607.19	12371	
607.38	10219	
607.57	10497	
607.76	12095	
607.95	11511	
608.14	10865	
608.33	11465	
608.52	12007	
608.72	12874	
608.91	10090	
609.1	10101	
609.29	12097	
609.48	11748	
609.67	11047	
609.86	10154	
610.05	11639	
610.24	12052	
610.43	9931.3	
610.62	9648	
610.81	13082	
611	12881	
611.19	10129	
611.38	10710	
611.57	12291	
611.76	13506	
611.95	9898.5	
612.14	9741.5	
612.33	12078	
612.52	11671	
612.71	10458	
612.9	9568.1	
613.09	11199	
613.28	13574	
613.47	10124	
613.66	11138	
613.85	12191	
614.04	11751	
614.24	10271	
614.43	9463.7	
614.62	12319	
614.81	12172	
615	10819	
615.19	10792	
615.38	11606	
615.57	11999	
615.76	10679	
615.95	11559	
616.14	12379	
616.33	12085	
616.52	11077	
616.71	11370	
616.9	12314	
617.09	12243	
617.28	10314	
617.47	11542	
617.66	11551	
617.85	11589	
618.04	11303	
618.22	10755	
618.41	11899	
618.6	12915	
618.79	10732	
618.98	10445	
619.17	13207	
619.36	11493	
619.55	10718	
619.74	10721	
619.93	12602	
620.12	11942	
620.31	11262	
620.5	11440	
620.69	13568	
620.88	13665	
621.07	12243	
621.26	11396	
621.45	12911	
621.64	12861	
621.83	11409	
622.02	10579	
622.21	12962	
622.4	12794	
622.59	12080	
622.78	11844	
622.97	12354	
623.16	13340	
623.35	11368	
623.54	10558	
623.72	12617	
623.91	12662	
624.1	11736	
624.29	10347	
624.48	13798	
624.67	13024	
624.86	11656	
625.05	10750	
625.24	13939	
625.43	12318	
625.62	13300	
625.81	10931	
626	13219	
626.19	12727	
626.38	11768	
626.56	11121	
626.75	12499	
626.94	13445	
627.13	11780	
627.32	10529	
627.51	13161	
627.7	14448	
627.89	10766	
628.08	11686	
628.27	12468	
628.46	12543	
628.65	11002	
628.83	10675	
629.02	13003	
629.21	12319	
629.4	11271	
629.59	11547	
629.78	12416	
629.97	13400	
630.16	11632	
630.35	10996	
630.54	13762	
630.72	13576	
630.91	10968	
631.1	11579	
631.29	12979	
631.48	13123	
631.67	11589	
631.86	11082	
632.05	12534	
632.24	12676	
632.42	10762	
632.61	11502	
632.8	12615	
632.99	12404	
633.18	11520	
633.37	11772	
633.56	12930	
633.75	12837	
633.93	11286	
634.12	10994	
634.31	13663	
634.5	13321	
634.69	11209	
634.88	11609	
635.07	12715	
635.25	13300	
635.44	12000	
635.63	12374	
635.82	12519	
636.01	12096	
636.2	11884	
636.39	11531	
636.57	13706	
636.76	13287	
636.95	10938	
637.14	12239	
637.33	12914	
637.52	14003	
637.7	10739	
637.89	11641	
638.08	12553	
638.27	13889	
638.46	11754	
638.65	12165	
638.83	13979	
639.02	12343	
639.21	11658	
639.4	12088	
639.59	12828	
639.78	12362	
639.96	10785	
640.15	10843	
640.34	12652	
640.53	12706	
640.72	10354	
640.91	10830	
641.09	11975	
641.28	13315	
641.47	10865	
641.66	11603	
641.85	12708	
642.03	12776	
642.22	11400	
642.41	10861	
642.6	12091	
642.79	11510	
642.97	10610	
643.16	11245	
643.35	12097	
643.54	11705	
643.73	10460	
643.91	11344	
644.1	11590	
644.29	12359	
644.48	10446	
644.67	10504	
644.85	11780	
645.04	12076	
645.23	10045	
645.42	10327	
645.6	11592	
645.79	12668	
645.98	10196	
646.17	9277.3	
646.36	11202	
646.54	11678	
646.73	10830	
646.92	9650	
647.11	11363	
647.29	12359	
647.48	9844.6	
647.67	9544.2	
647.86	12496	
648.05	12667	
648.23	10062	
648.42	11490	
648.61	11910	
648.8	11708	
648.98	9642.5	
649.17	10084	
649.36	11170	
649.55	10761	
649.73	9637.1	
649.92	10562	
650.11	11188	
650.3	11527	
650.48	9832.3	
650.67	9562	
650.86	11673	
651.05	10712	
651.23	9802.9	
651.42	9692.4	
651.61	11207	
651.79	11155	
651.98	9865.7	
652.17	9622	
652.36	11490	
652.54	10627	
652.73	9579.7	
652.92	9358.5	
653.11	11525	
653.29	11597	
653.48	8865	
653.67	9893.7	
653.85	11287	
654.04	12292	
654.23	9956.5	
654.42	9478.7	
654.6	10740	
654.79	11249	
654.98	8850	
655.16	9309.4	
655.35	10091	
655.54	10113	
655.73	8703.2	
655.91	8577.6	
656.1	11080	
656.29	9884.9	
656.47	8232.8	
656.66	9936.1	
656.85	10248	
657.03	10329	
657.22	8903.2	
657.41	9024.7	
657.59	10535	
657.78	10313	
657.97	8661.5	
658.16	9475.3	
658.34	11127	
658.53	11635	
658.72	10206	
658.9	10733	
659.09	10543	
659.28	10831	
659.46	9166	
659.65	9169.4	
659.84	10544	
660.02	10972	
660.21	8999.5	
660.4	8991.3	
660.58	11388	
660.77	10791	
660.96	9649.3	
661.14	8683.4	
661.33	11888	
661.52	11764	
661.7	8613.8	
661.89	12198	
662.08	10361	
662.26	9975.7	
662.45	8902.5	
662.64	9001.5	
662.82	11014	
663.01	10253	
663.2	8942.8	
663.38	9661	
663.57	10910	
663.75	10837	
663.94	9338.7	
664.13	10455	
664.31	10308	
664.5	10957	
664.69	9358.5	
664.87	10002	
665.06	10066	
665.25	10871	
665.43	10261	
665.62	10413	
665.8	11144	
665.99	10361	
666.18	9226.8	
666.36	9338.1	
666.55	11119	
666.74	10974	
666.92	8886.1	
667.11	10412	
667.29	10444	
667.48	10948	
667.67	10065	
667.85	9060.2	
668.04	10463	
668.22	10401	
668.41	9245.2	
668.6	9251.4	
668.78	10238	
668.97	10348	
669.15	9621.4	
669.34	8598.7	
669.53	10245	
669.71	10517	
669.9	8751	
670.08	9469.8	
670.27	10225	
670.46	10755	
670.64	9546.9	
670.83	9911.5	
671.01	10053	
671.2	10612	
671.38	8829.5	
671.57	8664.3	
671.76	11268	
671.94	11925	
672.13	8673.8	
672.31	9693	
672.5	10988	
672.69	10257	
672.87	8789.2	
673.06	9130.5	
673.24	10782	
673.43	10284	
673.61	9460.9	
673.8	9030.9	
673.98	10873	
674.17	11106	
674.36	9687.6	
674.54	9539.4	
674.73	10644	
674.91	10928	
675.1	9224.7	
675.28	8840.4	
675.47	10473	
675.65	10908	
675.84	9131.2	
676.03	9469.8	
676.21	10200	
676.4	9804.3	
676.58	9882.8	
676.77	9621.4	
676.95	11676	
677.14	10247	
677.32	8710.7	
677.51	8576.2	
677.69	10933	
677.88	9884.2	
678.06	8592.6	
678.25	8808.3	
678.44	10492	
678.62	10183	
678.81	8424	
678.99	9534.7	
679.18	11274	
679.36	10820	
679.55	9146.2	
679.73	9672.6	
679.92	10816	
680.1	10299	
680.29	10335	
680.47	9153.1	
680.66	10131	
680.84	11015	
681.03	8389.8	
681.21	9439.8	
681.4	10183	
681.58	10086	
681.77	8797.4	
681.95	8770.8	
682.14	11064	
682.32	11381	
682.51	9775	
682.69	8496.3	
682.88	10084	
683.06	10707	
683.25	9361.3	
683.43	9807.7	
683.62	10417	
683.8	10791	
683.99	10023	
684.17	9236.3	
684.36	11604	
684.54	10290	
684.73	8320.9	
684.91	8526.4	
685.1	10446	
685.28	9912.2	
685.46	8966	
685.65	9064.3	
685.83	10514	
686.02	9883.5	
686.2	8273.1	
686.39	8480	
686.57	9639.1	
686.76	11129	
686.94	8438.3	
687.13	8559.1	
687.31	10453	
687.5	9962	
687.68	8041	
687.86	9314.8	
688.05	11757	
688.23	9608.4	
688.42	9394	
688.6	8538.7	
688.79	10129	
688.97	9985.2	
689.16	9024	
689.34	8029.4	
689.52	10766	
689.71	10981	
689.89	9417.2	
690.08	8717.5	
690.26	10490	
690.45	10247	
690.63	9624.8	
690.81	8997.4	
691	10107	
691.18	10177	
691.37	9063.6	
691.55	11241	
691.74	10045	
691.92	12000	
692.1	9035	
692.29	8419.9	
692.47	10160	
692.66	9536	
692.84	8693.6	
693.02	9193.3	
693.21	9710.1	
693.39	10114	
693.58	9413.8	
693.76	8828.8	
693.94	11364	
694.13	11379	
694.31	8786.5	
694.5	9855.5	
694.68	10079	
694.86	10532	
695.05	9286.9	
695.23	9389.3	
695.42	11009	
695.6	13254	
695.78	9979.8	
695.97	9058.2	
696.15	11087	
696.34	10481	
696.52	8790.6	
696.7	9601.6	
696.89	10634	
697.07	10183	
697.25	9557.2	
697.44	11039	
697.62	10604	
697.81	10986	
697.99	9224.1	
698.17	9622	
698.36	10052	
698.54	10751	
698.72	9562.6	
698.91	8535.9	
699.09	10296	
699.28	10145	
699.46	9199.5	
699.64	9007.6	
699.83	10021	
700.01	11286	
700.19	9773.6	
700.38	8382.3	
700.56	11252	
700.74	10227	
700.93	8691.6	
701.11	9507.4	
701.29	10729	
701.48	11882	
701.66	8907.3	
701.84	9031.5	
702.03	10390	
702.21	11041	
702.39	8475.2	
702.58	9204.9	
702.76	10838	
702.94	10948	
703.13	8655.4	
703.31	11043	
703.49	10168	
703.68	11613	
703.86	8769.4	
704.04	9757.9	
704.23	10523	
704.41	10988	
704.59	8984.4	
704.78	10107	
704.96	11736	
705.14	11032	
705.33	8751	
705.51	9451.4	
705.69	10383	
705.87	11255	
706.06	9738.1	
706.24	8686.8	
706.42	10775	
706.61	10941	
706.79	9882.1	
706.97	8654.7	
707.16	10227	
707.34	10785	
707.52	9738.1	
707.7	8925.7	
707.89	10262	
708.07	10021	
708.25	9663.7	
708.44	10234	
708.62	10228	
708.8	11351	
708.98	9994.1	
709.17	8965.3	
709.35	10582	
709.53	10611	
709.72	8581.7	
709.9	9066.4	
710.08	10780	
710.26	10815	
710.45	10158	
710.63	9061.6	
710.81	10392	
710.99	10443	
711.18	9470.5	
711.36	9013.1	
711.54	10146	
711.72	10886	
711.91	8906.6	
712.09	8383.7	
712.27	10327	
712.45	10891	
712.64	9131.9	
712.82	8037.6	
713	9637.7	
713.18	9877.4	
713.37	8280.6	
713.55	9310.1	
713.73	10451	
713.91	9102.5	
714.1	8378.9	
714.28	7760.4	
714.46	9889	
714.64	8975.6	
714.83	6989	
715.01	7649.2	
715.19	8804.9	
715.37	8145.5	
715.55	7200	
715.74	7483.3	
715.92	9617.9	
716.1	7705.8	
716.28	8643.1	
716.47	7559.1	
716.65	8299.1	
716.83	8400.8	
717.01	7257.3	
717.19	7335.1	
717.38	10454	
717.56	7931.8	
717.74	7525.6	
717.92	6858.6	
718.1	9256.1	
718.29	8519.5	
718.47	6518	
718.65	7264.1	
718.83	9308	
719.01	9274.6	
719.2	6614.3	
719.38	7721.5	
719.56	9002.2	
719.74	10592	
719.92	7306.5	
720.11	8245.8	
720.29	9004.9	
720.47	8079.9	
720.65	6726.2	
720.83	7544	
721.02	8305.2	
721.2	8076.5	
721.38	7408.9	
721.56	6641.6	
721.74	7580.9	
721.92	7754.3	
722.11	7826.7	
722.29	7468.3	
722.47	8918.2	
722.65	8017.1	
722.83	6571.2	
723.01	7509.9	
723.2	8130.4	
723.38	8400.1	
723.56	6087.9	
723.74	7252.5	
723.92	7637.6	
724.1	8832.2	
724.29	6594.5	
724.47	7664.9	
724.65	7753.6	
724.83	7638.2	
725.01	6365.1	
725.19	7262.8	
725.37	7680.6	
725.56	7754.3	
725.74	6180.8	
725.92	6505.7	
726.1	7608.2	
726.28	7941.3	
726.46	6824.5	
726.64	6496.2	
726.83	7837.6	
727.01	8096.3	
727.19	6085.2	
727.37	6978.1	
727.55	7871.7	
727.73	8502.5	
727.91	6143.2	
728.09	5915.9	
728.28	8462.2	
728.46	8897.1	
728.64	7071	
728.82	6993.1	
729	9465.7	
729.18	8748.2	
729.36	6257.9	
729.54	8499.1	
729.72	9827.5	
729.91	8170.7	
730.09	8242.4	
730.27	7030.7	
730.45	8043.1	
730.63	8779	
730.81	7676.5	
730.99	6679.1	
731.17	9284.1	
731.35	7787.7	
731.53	7224.6	
731.71	6845	
731.9	8910	
732.08	9123	
732.26	7096.2	
732.44	6680.5	
732.62	9084.8	
732.8	8626.7	
732.98	7435.5	
733.16	6339.1	
733.34	8595.3	
733.52	7417.1	
733.7	6841.6	
733.88	7219.8	
734.07	8289.5	
734.25	8104.5	
734.43	6309.1	
734.61	7933.1	
734.79	9553.8	
734.97	7967.3	
735.15	6454.5	
735.33	6825.9	
735.51	8290.9	
735.69	7944.1	
735.87	8131.8	
736.05	7002	
736.23	8121.6	
736.41	7881.3	
736.59	6735.8	
736.77	6967.2	
736.95	8545.5	
737.13	7964.6	
737.32	6411.5	
737.5	6657.9	
737.68	9113.5	
737.86	7811.6	
738.04	6188.3	
738.22	7991.2	
738.4	7561.8	
738.58	7920.2	
738.76	6822.5	
738.94	5700.9	
739.12	7685.3	
739.3	7564.5	
739.48	7398.6	
739.66	7040.2	
739.84	8010.3	
740.02	7962.5	
740.2	5778	
740.38	6105	
740.56	8271.7	
740.74	7219.8	
740.92	6798.6	
741.1	6673.6	
741.28	7677.8	
741.46	7544	
741.64	6225.8	
741.82	6769.2	
742	7688.8	
742.18	7648.5	
742.36	6404	
742.54	6022.4	
742.72	8224	
742.9	6871.6	
743.08	6802.7	
743.26	5627.1	
743.44	8419.2	
743.62	8204.8	
743.8	6954.9	
743.98	6062	
744.16	7879.9	
744.34	7508.5	
744.52	6763.8	
744.7	6676.4	
744.88	7973.4	
745.06	7468.9	
745.24	6802	
745.42	6856.6	
745.6	7990.5	
745.78	7762.5	
745.96	5635.3	
746.14	5911.8	
746.32	8722.3	
746.5	7913.4	
746.68	6436.1	
746.86	5835.3	
747.03	8365.3	
747.21	6715.3	
747.39	6378.7	
747.57	5826.5	
747.75	7477.1	
747.93	7969.3	
748.11	5823.1	
748.29	5730.9	
748.47	9086.8	
748.65	7247.8	
748.83	6569.9	
749.01	6263.4	
749.19	7712	
749.37	6882.5	
749.55	6115.2	
749.73	6165.1	
749.91	7304.4	
750.09	7107.8	
750.26	6131.6	
750.44	5574.6	
750.62	7305.1	
750.8	7273	
750.98	5504.9	
751.16	5770.5	
751.34	7359	
751.52	6733	
751.7	6627.9	
751.88	5470.1	
752.06	7886.7	
752.24	7606.2	
752.42	5316.5	
752.59	5707.7	
752.77	7197.2	
752.95	8433.5	
753.13	6515.3	
753.31	5848.3	
753.49	6931.7	
753.67	7399.3	
753.85	6150.7	
754.03	5652.4	
754.21	7645.8	
754.38	7879.2	
754.56	5773.2	
754.74	4795	
754.92	6792.4	
755.1	7460.8	
755.28	4725.3	
755.46	4711	
755.64	7983	
755.82	8070.4	
755.99	4719.9	
756.17	4804.5	
756.35	5400.5	
756.53	6911.9	
756.71	3659.7	
756.89	4532.8	
757.07	6505.7	
757.25	5685.2	
757.42	5174.5	
757.6	6021.7	
757.78	6666.1	
757.96	5678.3	
758.14	4969.7	
758.32	4499.4	
758.5	5281.7	
758.67	6152.1	
758.85	4816.1	
759.03	4855.7	
759.21	6273.6	
759.39	5688.6	
759.57	4365.6	
759.75	5485.1	
759.92	6836.8	
760.1	6182.8	
760.28	5836	
760.46	6163	
760.64	6014.2	
760.82	5757.5	
760.99	5748	
761.17	4999.1	
761.35	6832.7	
761.53	5809.4	
761.71	5092.6	
761.89	5780.1	
762.06	6722.8	
762.24	6298.2	
762.42	5224.4	
762.6	4937.7	
762.78	6291.4	
762.96	6969.2	
763.13	5596.4	
763.31	5375.2	
763.49	7120.1	
763.67	6333	
763.85	6125.5	
764.02	6680.5	
764.2	7354.3	
764.38	6543.9	
764.56	5121.3	
764.74	5954.8	
764.91	7477.8	
765.09	6345.3	
765.27	4794.3	
765.45	4551.3	
765.63	7489.4	
765.8	7285.3	
765.98	4315.8	
766.16	4638	
766.34	5890.6	
766.52	5683.1	
766.69	5586.2	
766.87	4524	
767.05	6242.2	
767.23	7131.7	
767.41	4780	
767.58	5011.4	
767.76	6854.6	
767.94	6840.9	
768.12	4854.4	
768.29	5573.2	
768.47	6307.1	
768.65	6998.6	
768.83	4477.5	
769	5598.5	
769.18	5831.9	
769.36	6537.8	
769.54	5589.6	
769.72	4466.6	
769.89	6838.2	
770.07	6916	
770.25	4780.6	
770.43	5941.8	
770.6	7514	
770.78	7966.6	
770.96	4928.8	
771.14	5564.3	
771.31	6666.8	
771.49	5999.9	
771.67	4077.5	
771.85	4305.5	
772.02	5262.6	
772.2	6028.5	
772.38	5074.9	
772.55	4571.1	
772.73	6236.1	
772.91	6031.3	
773.09	4998.4	
773.26	5027.8	
773.44	6204.7	
773.62	5812.8	
773.8	4405.9	
773.97	4101.4	
774.15	6251.8	
774.33	5834	
774.5	4271.4	
774.68	4636.6	
774.86	6457.9	
775.04	5871.5	
775.21	4386.1	
775.39	4337.6	
775.57	6146.6	
775.74	6519.4	
775.92	4238.6	
776.1	4092.5	
776.27	6055.8	
776.45	7322.9	
776.63	4287.1	
776.81	3821.5	
776.98	5741.1	
777.16	6784.9	
777.34	4410.6	
777.51	4777.9	
777.69	5647.6	
777.87	5507.7	
778.04	4434.5	
778.22	5092.6	
778.4	5496.7	
778.57	6124.8	
778.75	3715	
778.93	4052.2	
779.1	5286.5	
779.28	5141.1	
779.46	3723.9	
779.64	4177.9	
779.81	6318	
779.99	7133.1	
780.17	5032.5	
780.34	5155.4	
780.52	5756.8	
780.69	5942.5	
780.87	4524.6	
781.05	4049.5	
781.22	5772.5	
781.4	5838.1	
781.58	4287.1	
781.75	3388.7	
781.93	5866.1	
782.11	5119.2	
782.28	5029.8	
782.46	4202.4	
782.64	5004.6	
782.81	5945.3	
782.99	4270	
783.17	4217.5	
783.34	5840.8	
783.52	5083.7	
783.69	4420.2	
783.87	5261.2	
784.05	5104.9	
784.22	5178.6	
784.4	5225.1	
784.58	4519.2	
784.75	6066.1	
784.93	5218.9	
785.1	4173.8	
785.28	4787.5	
785.46	5807.4	
785.63	5144.5	
785.81	4130.8	
785.99	3999.7	
786.16	5302.9	
786.34	5689.9	
786.51	4005.1	
786.69	4390.2	
786.87	4839.4	
787.04	5429.8	
787.22	3887.7	
787.39	4783.4	
787.57	5128.8	
787.75	6214.2	
787.92	4998.4	
788.1	4947.2	
788.27	5141.1	
788.45	4902.2	
788.63	4653	
788.8	3367.5	
788.98	5485.1	
789.15	4786.8	
789.33	3457	
789.5	4158.1	
789.68	6026.5	
789.86	6130.9	
790.03	4556.7	
790.21	3989.4	
790.38	6053.8	
790.56	5228.5	
790.73	3839.3	
790.91	3902.1	
791.09	5115.8	
791.26	5877.7	
791.44	4098.7	
791.61	3550.5	
791.79	5126.1	
791.96	5139	
792.14	3657	
792.32	3218	
792.49	5098.8	
792.67	5231.9	
792.84	3682.2	
793.02	3534.8	
793.19	5526.1	
793.37	6263.4	
793.54	3217.4	
793.72	3594.2	
793.89	6353.5	
794.07	5059.8	
794.25	4206.5	
794.42	3332.7	
794.6	6177.4	
794.77	5810.1	
794.95	4496	
795.12	3904.8	
795.3	5148.6	
795.47	5648.3	
795.65	4290.5	
795.82	4063.9	
796	4922	
796.17	6699.6	
796.35	3984	
796.52	4726	
796.7	5576.6	
796.87	5627.1	
797.05	4906.3	
797.22	4865.3	
797.4	5708.4	
797.57	6651.1	
797.75	4080.9	
797.92	3917.8	
798.1	5984.2	
798.27	5042.1	
798.45	3345.7	
798.62	3604.4	
798.8	5373.2	
798.97	5892.7	
799.15	4288.4	
799.32	4130.8	
799.5	4621.6	
799.67	5421.7	
799.85	4435.2	
800.02	3257.6	
800.2	5016.2	
800.37	5342.5	
800.55	4648.2	
800.72	3831.1	
800.9	5757.5	
801.07	6208.1	
801.25	5130.2	
801.42	4195.6	
801.6	5828.5	
801.77	5522.7	
801.95	3837.9	
802.12	3731.4	
802.29	5529.5	
802.47	5529.5	
802.64	4235.2	
802.82	3247.4	
802.99	4982.7	
803.17	6026.5	
803.34	4117.8	
803.52	3695.2	
803.69	6686.6	
803.87	4724	
804.04	4095.9	
804.21	4160.8	
804.39	6075	
804.56	5238	
804.74	3465.2	
804.91	4242	
805.09	5106.3	
805.26	5113.8	
805.44	3553.2	
805.61	3907.5	
805.78	5654.4	
805.96	5743.2	
806.13	4233.8	
806.31	4551.3	
806.48	4584.7	
806.66	5096.7	
806.83	4170.3	
807	4131.4	
807.18	4975.2	
807.35	5393	
807.53	4035.2	
807.7	3265.1	
807.87	6126.2	
808.05	5089.9	
808.22	4482.3	
808.4	3244	
808.57	5100.1	
808.74	4644.1	
808.92	3702	
809.09	4731.5	
809.27	4931.5	
809.44	5531.6	
809.61	3315	
809.79	3681.6	
809.96	6124.1	
810.14	5814.2	
810.31	3201.7	
810.48	3943	
810.66	5195.7	
810.83	5838.8	
811.01	3754.6	
811.18	4162.8	
811.35	5726.8	
811.53	4464.6	
811.7	4575.8	
811.87	4222.2	
812.05	5022.3	
812.22	4945.8	
812.39	3590.8	
812.57	3472.7	
812.74	5084.4	
812.92	6694.8	
813.09	3925.3	
813.26	4257	
813.44	6424.5	
813.61	4971.1	
813.78	3216	
813.96	4349.9	
814.13	5029.8	
814.3	4747.2	
814.48	4687.8	
814.65	3933.5	
814.82	6208.1	
815	4840	
815.17	4020.2	
815.34	4909	
815.52	4950.6	
815.69	4995.7	
815.87	4016.7	
816.04	3425.6	
816.21	5055.8	
816.38	4475.5	
816.56	3834.5	
816.73	3545	
816.9	6343.2	
817.08	5825.1	
817.25	3679.5	
817.42	4594.3	
817.6	4582.7	
817.77	5078.3	
817.94	4096.6	
818.12	3564.8	
818.29	4791.6	
818.46	7445	
818.64	3806.5	
818.81	3534.8	
818.98	4662.5	
819.16	6805.4	
819.33	4263.2	
819.5	3998.3	
819.67	5421	
819.85	6046.3	
820.02	3948.5	
820.19	4177.2	
820.37	5232.6	
820.54	4840	
820.71	4130.8	
820.88	5064.6	
821.06	5259.9	
821.23	4846.2	
821.4	4116.4	
821.58	4037.2	
821.75	5799.8	
821.92	5229.8	
822.09	3336.1	
822.27	3384.6	
822.44	5104.9	
822.61	4954.7	
822.79	3378.5	
822.96	6294.1	
823.13	5519.3	
823.3	4670.7	
823.48	3810.6	
823.65	3442	
823.82	5750	
823.99	4612.7	
824.17	4830.5	
824.34	3483.6	
824.51	6609.5	
824.68	5132.9	
824.86	3605.8	
825.03	4064.5	
825.2	5078.3	
825.37	6148.7	
825.55	3618.8	
825.72	4001.7	
825.89	6694.8	
826.06	6167.1	
826.24	3947.1	
826.41	3972.4	
826.58	6130.9	
826.75	5286.5	
826.92	3079.5	
827.1	3480.2	
827.27	8269	
827.44	6578.1	
827.61	3759.4	
827.79	4547.9	
827.96	4789.5	
828.13	5140.4	
828.3	3830.4	
828.47	3300.6	
828.65	5208	
828.82	5199.1	
828.99	4984.1	
829.16	4385.4	
829.34	5621.7	
829.51	5470.1	
829.68	4012.7	
829.85	4208.6	
830.02	5991	
830.2	5674.9	
830.37	3131.3	
830.54	4873.5	
830.71	6436.1	
830.88	5009.3	
831.05	3252.2	
831.23	3644.7	
831.4	6191	
831.57	6942.6	
831.74	3744.4	
831.91	3298.6	
832.09	5244.8	
832.26	5664.7	
832.43	3811.3	
832.6	4290.5	
832.77	5300.8	
832.94	6004.6	
833.12	3055.6	
833.29	3822.2	
833.46	4903.5	
833.63	7072.3	
833.8	4184.7	
833.97	3897.3	
834.15	5679.7	
834.32	5404.6	
834.49	4072	
834.66	4066.6	
834.83	5889.3	
835	4807.9	
835.17	3774.4	
835.35	3756.7	
835.52	5588.9	
835.69	5423.7	
835.86	3966.9	
836.03	3297.9	
836.2	5578	
836.37	5169.8	
836.55	3880.2	
836.72	3636.5	
836.89	5180.7	
837.06	5682.4	
837.23	3926	
837.4	4339.6	
837.57	6426.5	
837.75	7118.7	
837.92	3573.7	
838.09	3802.4	
838.26	5194.3	
838.43	5926.8	
838.6	4011.3	
838.77	3617.4	
838.94	6700.3	
839.11	6476.4	
839.29	3843.4	
839.46	3013.9	
839.63	5565.7	
839.8	5326.1	
839.97	3798.3	
840.14	3731.4	
840.31	5439.4	
840.48	5616.2	
840.65	3093.8	
840.82	3833.1	
841	5569.1	
841.17	5556.8	
841.34	3471.3	
841.51	3534.8	
841.68	5537	
841.85	5283.1	
842.02	3610.6	
842.19	2998.2	
842.36	5376.6	
842.53	5416.9	
842.7	3439.2	
842.87	4205.8	
843.05	7013.6	
843.22	5343.8	
843.39	3272	
843.56	3486.3	
843.73	5092.6	
843.9	5642.2	
844.07	5600.5	
844.24	4632.5	
844.41	8174.1	
844.58	4866	
844.75	3315	
844.92	3639.9	
845.09	5621	
845.26	5593.7	
845.43	3414	
845.6	3558	
845.77	5611.4	
845.94	5312.4	
846.12	3793.5	
846.29	3981.3	
846.46	5836.7	
846.63	5644.2	
846.8	3426.3	
846.97	4115.7	
847.14	6120	
847.31	5498.1	
847.48	3864.5	
847.65	4307.6	
847.82	5896.1	
847.99	5857.9	
848.16	4672.1	
848.33	4260.5	
848.5	5206.6	
848.67	6049.7	
848.84	3478.8	
849.01	3611.9	
849.18	5050.3	
849.35	4732.2	
849.52	4277.5	
849.69	3340.2	
849.86	5808	
850.03	6023.8	
850.2	3431	
850.37	4197	
850.54	5927.5	
850.71	5319.3	
850.88	4131.4	
851.05	3386	
851.22	5541.1	
851.39	6152.1	
851.56	3249.4	
851.73	3834.5	
851.9	4906.9	
852.07	5868.1	
852.24	3743	
852.41	3383.2	
852.58	5428.5	
852.75	4990.9	
852.92	3901.4	
853.09	3309.5	
853.26	5171.1	
853.43	6006	
853.6	3421.5	
853.77	2967.5	
853.94	6167.1	
854.11	4882.4	
854.28	5027.8	
854.44	3721.8	
854.61	6535.1	
854.78	5958.9	
854.95	3394.2	
855.12	4289.8	
855.29	4489.8	
855.46	6104.3	
855.63	3434.4	
855.8	4740.4	
855.97	5167.7	
856.14	5960.3	
856.31	4827.7	
856.48	3746.4	
856.65	5145.9	
856.82	4850.3	
856.99	3267.2	
857.16	3639.9	
857.33	6748.7	
857.49	5274.2	
857.66	3691.1	
857.83	3963.5	
858	5229.1	
858.17	5478.3	
858.34	3250.8	
858.51	3422.8	
858.68	6289.3	
858.85	6264.1	
859.02	3930.1	
859.19	4255	
859.36	4894.6	
859.52	4934.9	
859.69	3395.5	
859.86	4013.3	
860.03	5023.7	
860.2	6237.4	
860.37	3078.1	
860.54	3492.5	
860.71	5786.9	
860.88	6191.7	
861.05	3796.9	
861.21	4297.3	
861.38	6223.8	
861.55	4825	
861.72	3112.2	
861.89	3874.8	
862.06	5866.1	
862.23	6378.1	
862.4	3294.5	
862.56	3597.6	
862.73	5702.9	
862.9	5406	
863.07	4001	
863.24	3103.4	
863.41	4820.9	
863.58	4900.1	
863.75	3506.1	
863.91	3981.9	
864.08	6152.8	
864.25	5755.5	
864.42	4277.5	
864.59	4756.1	
864.76	6510.5	
864.93	4952.7	
865.09	3349.1	
865.26	3629	
865.43	6132.3	
865.6	6483.9	
865.77	2983.9	
865.94	3383.2	
866.1	6152.8	
866.27	5858.6	
866.44	5128.1	
866.61	3265.8	
866.78	5300.8	
866.95	5748.6	
867.11	3320.4	
867.28	3050.1	
867.45	5843.5	
867.62	5063.9	
867.79	3945.1	
867.96	3369.6	
868.12	4928.8	
868.29	5786.9	
868.46	2977.1	
868.63	4555.4	
868.8	6025.8	
868.97	5721.3	
869.13	3549.1	
869.3	3525.2	
869.47	5734.3	
869.64	5879.7	
869.81	3424.2	
869.97	3455.6	
870.14	5610.8	
870.31	6282.5	
870.48	3277.4	
870.65	4270	
870.81	5248.3	
870.98	5319.3	
871.15	3820.1	
871.32	3504.8	
871.48	5711.8	
871.65	6295.5	
871.82	3379.1	
871.99	3780.6	
872.16	6684.6	
872.32	6210.8	
872.49	3454.9	
872.66	3454.2	
872.83	5847.6	
872.99	5108.3	
873.16	3903.4	
873.33	3414	
873.5	5473.5	
873.67	5438.7	
873.83	3601	
874	4587.4	
874.17	5578.7	
874.34	6645	
874.5	4465.9	
874.67	4217.5	
874.84	6260	
875.01	4862.6	
875.17	4829.8	
875.34	3431	
875.51	5535	
875.68	6638.8	
875.84	4171	
876.01	5018.2	
876.18	5778	
876.34	5797.1	
876.51	3423.5	
876.68	3336.8	
876.85	5264.6	
877.01	6111.8	
877.18	4995.7	
877.35	3429	
877.52	5395.7	
877.68	4872.8	
877.85	3386.7	
878.02	3378.5	
878.18	5381.4	
878.35	5046.2	
878.52	2676.7	
878.69	3870.7	
878.85	5847.6	
879.02	5763	
879.19	4840	
879.35	3692.5	
879.52	5812.8	
879.69	5976.7	
879.86	2939.5	
880.02	3831.7	
880.19	5338.4	
880.36	6522.1	
880.52	3906.8	
880.69	4054.3	
880.86	5842.9	
881.02	5925.5	
881.19	3702.7	
881.36	3735.5	
881.52	5779.4	
881.69	5117.2	
881.86	3639.2	
882.02	3646.1	
882.19	5973.9	
882.36	7045	
882.52	3511.6	
882.69	4774.5	
882.86	5493.3	
883.02	5458.5	
883.19	4202.4	
883.36	3906.8	
883.52	5873.6	
883.69	6677.1	
883.86	3515	
884.02	3084.2	
884.19	5771.9	
884.36	5386.8	
884.52	3892.5	
884.69	3609.9	
884.86	5160.2	
885.02	6423.1	
885.19	3818.1	
885.36	3949.2	
885.52	5384.1	
885.69	5535	
885.86	4862.6	
886.02	4403.8	
886.19	5802.6	
886.35	5283.8	
886.52	3759.4	
886.69	4782	
886.85	4971.8	
887.02	6158.2	
887.19	6158.2	
887.35	6158.2	
887.52	6158.2	
887.68	6158.2	
887.85	6158.2	
888.02	6158.2	
888.18	6158.2	
888.35	6158.2	
888.51	6158.2	
888.68	6158.2	
888.85	6158.2	
889.01	6158.2	
889.18	6158.2	
889.35	6158.2	
889.51	6158.2	
889.68	6158.2	
889.84	6158.2	
890.01	6158.2	
890.17	6158.2	
890.34	6158.2	
890.51	6158.2	
890.67	6158.2	
890.84	6158.2	
891	6158.2	
891.17	6158.2	
891.34	6158.2	
891.5	6158.2	
891.67	6158.2	
891.83	6158.2	
892	6158.2	
892.16	6158.2	
892.33	6158.2	
892.5	6158.2	
892.66	6158.2	
892.83	6158.2	
892.99	6158.2	
893.16	6158.2	
893.32	6158.2	
893.49	6158.2	
893.65	6158.2	
893.82	6158.2	
893.99	6158.2	
894.15	6158.2	
894.32	6158.2	
894.48	6158.2	
894.65	6158.2	
894.81	6158.2	
894.98	6158.2	
895.14	6158.2	
895.31	6158.2	
895.47	6158.2	
895.64	6158.2	
895.81	6158.2	
895.97	6158.2	
896.14	6158.2	
896.3	6158.2	
896.47	6158.2	
896.63	6158.2	
896.8	6158.2	
896.96	6158.2	
897.13	6158.2	
897.29	6158.2	
897.46	6158.2	
897.62	6158.2	
897.79	6158.2	
897.95	6158.2	
898.12	6158.2	
898.28	6158.2	
898.45	6158.2	
898.61	6158.2	
898.78	6158.2	
898.94	6158.2	
899.11	6158.2	
899.27	6158.2	
899.44	6158.2	
899.6	6158.2	
899.77	6158.2	
899.93	6158.2	
900.1	6158.2	
900.26	6158.2	
900.43	6158.2	
900.59	6158.2	
900.76	6158.2	
900.92	6158.2	
901.09	6158.2	
901.25	6158.2	
901.42	6158.2	
901.58	6158.2	
901.75	6158.2	
901.91	6158.2	
902.07	6158.2	
902.24	6158.2	
902.4	6158.2	
902.57	6158.2	
902.73	6158.2	
902.9	6158.2	
903.06	6158.2	
903.23	6158.2	
903.39	6158.2	
903.56	6158.2	
903.72	6158.2	
903.88	6158.2	
904.05	6158.2	
904.21	6158.2	
904.38	6158.2	
904.54	6158.2	
904.71	6158.2	
904.87	6158.2	
905.03	6158.2	
905.2	6158.2	
905.36	6158.2	
905.53	6158.2	
905.69	6158.2	
905.86	6158.2	
906.02	6158.2	
906.18	6158.2	
906.35	6158.2	
906.51	6158.2	
906.68	6158.2	
906.84	6158.2	
907.01	6158.2	
907.17	6158.2	
907.33	6158.2	
907.5	6158.2	
907.66	6158.2	
907.83	6158.2	
907.99	6158.2	
908.15	6158.2	
908.32	6158.2	
908.48	6158.2	
908.65	6158.2	
908.81	6158.2	
908.97	6158.2	
909.14	6158.2	
909.3	6158.2	
909.47	6158.2	
909.63	6158.2	
909.79	6158.2	
909.96	6158.2	
910.12	6158.2	
910.28	6158.2	
910.45	6158.2	
910.61	6158.2	
910.78	6158.2	
910.94	6158.2	
911.1	6158.2	
911.27	6158.2	
911.43	6158.2	
911.59	6158.2	
911.76	6158.2	
911.92	6158.2	
912.08	6158.2	
912.25	6158.2	
912.41	6158.2	
912.57	6158.2	
912.74	6158.2	
912.9	6158.2	
913.07	6158.2	
913.23	6158.2	
913.39	6158.2	
913.56	6158.2	
913.72	6158.2	
913.88	6158.2	
914.05	6158.2	
914.21	6158.2	
914.37	6158.2	
914.54	6158.2	
914.7	6158.2	
914.86	6158.2	
915.03	6158.2	
915.19	6158.2	
