Wavelength	Intensities	
nm	a.u.	
179.22	1941.3	
179.44	1943.2	
179.65	1939.4	
179.86	1946.9	
180.08	1928.5	
180.29	5066.7	
180.51	3571.7	
180.72	5701.5	
180.94	6741.9	
181.15	3226.9	
181.37	3246.7	
181.58	5571.8	
181.79	5905.7	
182.01	3442.6	
182.22	3712.3	
182.44	5822.4	
182.65	4867.3	
182.87	4619.5	
183.08	4113	
183.29	6262	
183.51	5076.9	
183.72	3758.7	
183.94	5484.5	
184.15	5506.3	
184.37	5539.1	
184.58	3290.4	
184.79	4525.3	
185.01	5072.8	
185.22	5900.9	
185.44	4844.1	
185.65	4008.6	
185.86	5356.1	
186.08	5019.6	
186.29	3196.9	
186.51	3448.1	
186.72	5160.2	
186.94	6107	
187.15	3985.3	
187.36	4112.3	
187.58	7900.4	
187.79	5638.7	
188.01	4352.6	
188.22	6799.3	
188.43	6802.7	
188.65	5861.3	
188.86	3422.2	
189.08	4155.3	
189.29	5386.2	
189.5	5358.2	
189.72	3829.7	
189.93	3923.2	
190.15	6023.8	
190.36	7300.3	
190.57	4197.7	
190.79	4139.6	
191	6178.7	
191.22	6119.3	
191.43	4248.2	
191.64	3467.2	
191.86	6410.1	
192.07	6055.8	
192.29	3677.5	
192.5	3829	
192.71	6165.8	
192.93	5257.8	
193.14	3838.6	
193.35	3927.3	
193.57	5272.8	
193.78	6116.6	
194	3091.8	
194.21	3787.4	
194.42	5007.3	
194.64	5552.7	
194.85	4171	
195.07	4898.1	
195.28	5530.9	
195.49	4803.9	
195.71	5137	
195.92	3657.7	
196.13	5786.2	
196.35	5868.1	
196.56	5432.6	
196.78	4144.4	
196.99	7192.5	
197.2	6727.6	
197.42	4751.3	
197.63	4197.7	
197.84	4980.7	
198.06	5740.5	
198.27	3846.1	
198.48	5148.6	
198.7	5307	
198.91	5400.5	
199.13	4191.5	
199.34	4177.9	
199.55	5966.4	
199.77	4756.7	
199.98	3704.1	
200.19	4280.9	
200.41	5365.7	
200.62	5076.2	
200.83	4352.6	
201.05	4718.5	
201.26	5464.7	
201.47	5156.8	
201.69	3738.2	
201.9	3565.5	
202.11	5537	
202.33	6563.1	
202.54	3959.4	
202.76	4354	
202.97	5655.1	
203.18	5638.1	
203.4	4368.3	
203.61	4311	
203.82	5599.8	
204.04	5161.6	
204.25	4291.9	
204.46	4093.9	
204.68	5492	
204.89	5846.3	
205.1	4054.3	
205.32	3512.9	
205.53	5946.6	
205.74	6134.3	
205.96	2978.4	
206.17	4280.9	
206.38	5933	
206.6	6070.2	
206.81	4860.5	
207.02	3968.3	
207.24	5788.2	
207.45	6204.7	
207.66	3965.6	
207.88	3349.1	
208.09	5763	
208.3	5537.7	
208.52	3633.8	
208.73	4078.2	
208.94	5560.2	
209.15	6271.6	
209.37	3937.6	
209.58	4212	
209.79	6116.6	
210.01	5307.7	
210.22	3194.8	
210.43	3417.4	
210.65	5551.4	
210.86	5957.5	
211.07	3994.2	
211.29	3660.4	
211.5	5915.2	
211.71	5455.1	
211.93	3711.6	
212.14	3613.3	
212.35	5457.2	
212.56	5681.7	
212.78	4241.3	
212.99	3454.9	
213.2	6523.5	
213.42	5231.9	
213.63	3816	
213.84	4051.6	
214.06	4892.6	
214.27	4975.2	
214.48	4008.6	
214.69	4299.4	
214.91	6250.4	
215.12	6298.9	
215.33	4336.2	
215.55	4754	
215.76	6802	
215.97	5969.8	
216.18	4093.2	
216.4	4087.7	
216.61	5216.9	
216.82	6012.8	
217.04	3684.3	
217.25	3842	
217.46	6275	
217.67	5937.1	
217.89	3237.8	
218.1	3390.1	
218.31	5589.6	
218.53	5715.9	
218.74	3871.3	
218.95	3713.6	
219.16	5446.2	
219.38	6507.1	
219.59	3768.3	
219.8	4545.8	
220.01	7212.3	
220.23	5575.3	
220.44	4937.7	
220.65	3695.9	
220.87	5656.5	
221.08	6178.7	
221.29	3405.8	
221.5	4536.3	
221.72	7606.8	
221.93	5222.3	
222.14	4278.2	
222.35	4990.2	
222.57	5575.9	
222.78	5907.7	
222.99	3974.4	
223.2	4335.5	
223.42	5883.1	
223.63	6020.3	
223.84	3106.1	
224.05	3032.4	
224.27	7187.7	
224.48	6485.9	
224.69	4951.3	
224.9	4182	
225.12	5737	
225.33	5532.2	
225.54	3367.5	
225.75	3713.6	
225.97	5092.6	
226.18	5378	
226.39	4027.7	
226.6	3708.2	
226.82	5278.3	
227.03	5033.9	
227.24	4186.7	
227.45	3461.1	
227.67	5926.8	
227.88	6513.9	
228.09	4738.3	
228.3	4712.4	
228.52	6042.9	
228.73	5532.2	
228.94	3972.4	
229.15	3520.5	
229.36	5423	
229.58	5312.4	
229.79	3917.8	
230	4638	
230.21	6612.9	
230.43	5627.1	
230.64	4162.2	
230.85	4375.8	
231.06	6022.4	
231.28	5949.3	
231.49	3450.1	
231.7	4042.7	
231.91	5838.1	
232.12	5533.6	
232.34	3575.8	
232.55	4102.8	
232.76	6238.1	
232.97	5758.9	
233.18	3695.2	
233.4	4132.8	
233.61	5821.7	
233.82	5213.4	
234.03	3882.3	
234.25	3865.2	
234.46	7733.1	
234.67	5574.6	
234.88	4261.1	
235.09	3735.5	
235.31	5898.8	
235.52	5455.1	
235.73	4183.3	
235.94	3518.4	
236.15	5248.9	
236.37	6769.2	
236.58	3717.7	
236.79	4050.2	
237	5876.3	
237.21	5081	
237.43	4341.7	
237.64	3330	
237.85	10094	
238.06	5073.5	
238.27	4414.7	
238.48	3476.8	
238.7	5851	
238.91	5309.7	
239.12	3995.6	
239.33	4029	
239.54	5111	
239.76	5477	
239.97	3953.9	
240.18	4017.4	
240.39	6970.6	
240.6	5839.4	
240.82	4179.9	
241.03	3372.3	
241.24	5558.9	
241.45	6431.3	
241.66	3692.5	
241.87	4346.5	
242.09	6315.3	
242.3	6696.2	
242.51	4384.7	
242.72	4042.7	
242.93	6046.3	
243.14	5449.6	
243.36	4586.1	
243.57	4980	
243.78	6388.3	
243.99	5952.1	
244.2	4065.2	
244.41	3716.4	
244.63	5072.1	
244.84	5923.4	
245.05	4364.9	
245.26	4005.1	
245.47	5868.8	
245.68	6213.5	
245.9	5388.9	
246.11	4332.1	
246.32	5361.6	
246.53	5782.1	
246.74	6556.2	
246.95	3369.6	
247.16	4970.4	
247.38	5556.8	
247.59	3311.6	
247.8	4045.4	
248.01	5225.1	
248.22	5489.2	
248.43	3652.9	
248.64	3930.7	
248.86	4828.4	
249.07	5272.8	
249.28	3457.7	
249.49	4104.8	
249.7	6087.9	
249.91	6272.9	
250.12	3362.8	
250.34	3400.3	
250.55	5599.8	
250.76	5525.4	
250.97	4122.6	
251.18	4214.7	
251.39	6226.5	
251.6	5771.2	
251.81	4261.1	
252.03	4254.3	
252.24	5212.1	
252.45	6111.1	
252.66	3452.2	
252.87	4468	
253.08	5576.6	
253.29	7374.1	
253.5	3542.3	
253.72	4870.1	
253.93	5362.3	
254.14	6636.1	
254.35	3833.1	
254.56	3920.5	
254.77	5804.6	
254.98	5145.9	
255.19	3781.2	
255.41	4892.6	
255.62	5651.7	
255.83	6205.3	
256.04	4341	
256.25	4230.4	
256.46	6823.8	
256.67	5215.5	
256.88	4149.9	
257.09	4711	
257.31	5243.5	
257.52	5247.6	
257.73	5246.2	
257.94	3893.2	
258.15	5369.1	
258.36	5547.3	
258.57	4835.9	
258.78	3018.7	
258.99	6107.7	
259.2	5431.2	
259.41	3788.7	
259.63	3953.3	
259.84	6428.6	
260.05	6960.4	
260.26	5048.2	
260.47	3691.8	
260.68	6171.2	
260.89	5461.9	
261.1	4713.1	
261.31	3686.3	
261.52	6102.3	
261.73	6563.7	
261.95	4878.9	
262.16	4405.2	
262.37	6285.2	
262.58	6374.6	
262.79	4967	
263	3958.7	
263.21	5516.5	
263.42	5056.4	
263.63	4006.5	
263.84	3885	
264.05	6160.3	
264.26	6552.8	
264.47	4784.7	
264.69	4384	
264.9	6315.3	
265.11	5769.1	
265.32	3765.5	
265.53	3831.1	
265.74	5724.8	
265.95	4946.5	
266.16	4158.1	
266.37	4569	
266.58	5687.2	
266.79	5365	
267	3807.2	
267.21	3560.7	
267.42	5061.2	
267.63	5492.7	
267.84	4027	
268.06	3405.1	
268.27	5982.8	
268.48	6292	
268.69	3956	
268.9	4664.6	
269.11	6251.8	
269.32	5029.1	
269.53	4005.8	
269.74	3755.3	
269.95	5844.9	
270.16	4848.9	
270.37	4038.6	
270.58	4650.9	
270.79	5352	
271	6051.7	
271.21	4326	
271.42	4097.3	
271.63	5713.2	
271.84	5145.9	
272.05	3223.5	
272.26	3594.2	
272.47	5588.9	
272.68	5740.5	
272.89	3917.1	
273.11	4497.3	
273.32	5382.1	
273.53	6569.9	
273.74	4340.3	
273.95	4261.1	
274.16	6253.1	
274.37	5586.2	
274.58	4395.6	
274.79	3544.4	
275	5659.9	
275.21	6236.1	
275.42	5341.1	
275.63	4532.8	
275.84	5840.1	
276.05	7366.5	
276.26	4308.9	
276.47	4012	
276.68	5376.6	
276.89	6582.9	
277.1	4530.8	
277.31	3605.1	
277.52	5751.4	
277.73	6006	
277.94	3536.2	
278.15	3906.2	
278.36	5795.8	
278.57	5195	
278.78	3845.4	
278.99	4359.4	
279.2	5131.5	
279.41	5124	
279.62	5074.2	
279.83	3601	
280.04	6863.4	
280.25	5095.3	
280.46	5091.3	
280.67	4061.8	
280.88	5152.7	
281.09	6218.3	
281.3	4247.5	
281.51	5385.5	
281.72	6035.4	
281.93	6059.3	
282.14	3769.6	
282.35	4056.3	
282.56	6025.8	
282.77	5993	
282.98	3923.9	
283.19	4779.3	
283.4	7478.5	
283.61	5453.7	
283.82	3600.3	
284.03	5047.6	
284.24	5722.7	
284.45	6240.2	
284.66	5014.8	
284.87	4833.2	
285.08	6140.5	
285.29	6323.4	
285.5	3409.2	
285.71	4001.7	
285.92	6206	
286.12	6891.4	
286.33	4961.5	
286.54	3922.5	
286.75	6085.2	
286.96	5410.1	
287.17	3571	
287.38	4950.6	
287.59	5152.7	
287.8	5054.4	
288.01	3962.1	
288.22	4497.3	
288.43	6135.7	
288.64	5097.4	
288.85	4671.4	
289.06	4455	
289.27	5972.6	
289.48	6524.1	
289.69	5009.3	
289.9	4542.4	
290.11	6196.5	
290.32	5214.8	
290.53	4737.6	
290.74	4452.3	
290.94	6020.3	
291.15	6102.9	
291.36	3826.3	
291.57	4545.1	
291.78	5281.7	
291.99	4902.2	
292.2	3630.4	
292.41	4407.9	
292.62	6081.1	
292.83	5920.7	
293.04	5441.5	
293.25	3643.3	
293.46	5296.7	
293.67	6137.8	
293.88	3781.2	
294.09	3637.9	
294.29	5023.7	
294.5	5674.9	
294.71	4075.5	
294.92	3899.3	
295.13	5348.6	
295.34	6675	
295.55	3368.2	
295.76	3500.7	
295.97	5978	
296.18	6825.9	
296.39	3558.7	
296.6	3797.6	
296.81	5707	
297.01	6029.9	
297.22	3981.3	
297.43	3763.5	
297.64	5179.3	
297.85	5231.2	
298.06	3118.4	
298.27	3366.2	
298.48	5570.5	
298.69	5282.4	
298.9	4139.6	
299.11	3712.3	
299.31	5053	
299.52	5103.5	
299.73	4412	
299.94	4323.9	
300.15	5615.5	
300.36	5152.7	
300.57	4306.2	
300.78	4299.4	
300.99	5393.7	
301.2	5748	
301.4	3746.4	
301.61	4111	
301.82	5917.3	
302.03	5962.3	
302.24	4612	
302.45	3594.9	
302.66	5883.8	
302.87	6410.1	
303.08	3795.6	
303.29	5218.9	
303.49	5285.1	
303.7	5585.5	
303.91	3355.9	
304.12	4988.9	
304.33	5074.2	
304.54	5670.1	
304.75	3824.2	
304.96	3630.4	
305.16	5905	
305.37	6713.2	
305.58	3308.2	
305.79	3462.4	
306	5887.2	
306.21	4956.1	
306.42	3736.9	
306.63	5792.3	
306.83	5459.9	
307.04	6241.5	
307.25	4244.1	
307.46	4174.4	
307.67	4768.4	
307.88	6063.4	
308.09	3719.8	
308.29	3915	
308.5	5691.3	
308.71	6221	
308.92	4081.6	
309.13	3639.2	
309.34	5372.5	
309.55	5498.1	
309.75	4780.6	
309.96	4306.2	
310.17	6049	
310.38	5288.5	
310.59	4573.1	
310.8	4244.1	
311.01	5395	
311.21	5422.3	
311.42	3575.8	
311.63	3772.4	
311.84	5342.5	
312.05	5688.6	
312.26	4248.9	
312.46	4630.5	
312.67	5420.3	
312.88	5091.3	
313.09	3648.1	
313.3	3571	
313.51	6457.9	
313.71	6743.3	
313.92	3667.9	
314.13	3889.8	
314.34	5778	
314.55	5468.8	
314.76	4712.4	
314.96	4089.1	
315.17	5610.1	
315.38	5979.4	
315.59	3655.6	
315.8	3454.9	
316.01	6541.9	
316.21	6579.4	
316.42	3469.3	
316.63	4041.3	
316.84	5440.8	
317.05	6288.6	
317.26	4363.5	
317.46	3895.9	
317.67	5451	
317.88	6021.7	
318.09	4674.8	
318.3	3407.1	
318.5	5315.8	
318.71	5913.2	
318.92	5958.9	
319.13	4312.3	
319.34	6117.3	
319.54	6224.5	
319.75	3372.3	
319.96	3297.9	
320.17	6061.3	
320.38	6139.8	
320.58	3310.2	
320.79	4006.5	
321	6184.2	
321.21	6235.4	
321.42	4115.1	
321.62	3354.6	
321.83	5146.5	
322.04	5591.6	
322.25	3856.3	
322.46	3691.1	
322.66	5694	
322.87	5782.8	
323.08	4552.6	
323.29	3567.6	
323.5	6645	
323.7	5156.1	
323.91	4997.7	
324.12	4536.9	
324.33	5653.1	
324.53	5978	
324.74	4388.8	
324.95	4605.2	
325.16	4935.6	
325.37	5365	
325.57	3685	
325.78	3793.5	
325.99	5653.1	
326.2	5040.7	
326.4	5210	
326.61	3375.1	
326.82	5517.2	
327.03	5698.8	
327.24	5248.3	
327.44	4862.6	
327.65	5866.7	
327.86	4745.1	
328.07	4347.2	
328.27	3487.7	
328.48	6303.6	
328.69	5141.1	
328.9	5353.4	
329.1	3988.1	
329.31	5452.4	
329.52	6421.1	
329.73	3695.2	
329.93	4177.2	
330.14	5557.5	
330.35	5859.2	
330.56	6053.1	
330.76	4629.1	
330.97	5403.9	
331.18	5773.2	
331.39	4085.7	
331.59	3285.6	
331.8	6190.3	
332.01	6316.6	
332.22	3769.6	
332.42	4364.9	
332.63	5714.5	
332.84	5281	
333.05	4139.6	
333.25	3769.6	
333.46	5319.9	
333.67	5629.2	
333.88	3792.2	
334.08	4238.6	
334.29	8278.6	
334.5	6253.8	
334.7	3579.2	
334.91	5225.1	
335.12	5090.6	
335.33	6048.3	
335.53	4078.2	
335.74	6042.9	
335.95	5354.8	
336.16	5199.1	
336.36	4102.8	
336.57	4689.2	
336.78	5042.1	
336.98	6206	
337.19	5098.8	
337.4	3972.4	
337.61	6751.5	
337.81	5117.9	
338.02	3753.2	
338.23	4897.4	
338.43	6365.8	
338.64	5206.6	
338.85	3705.5	
339.05	4846.9	
339.26	6474.3	
339.47	4991.6	
339.68	3704.1	
339.88	5532.9	
340.09	5815.5	
340.3	6037.4	
340.5	4320.5	
340.71	3254.2	
340.92	5042.8	
341.13	6310.5	
341.33	3573.7	
341.54	4390.8	
341.75	5870.2	
341.95	5466.7	
342.16	4145.1	
342.37	4551.3	
342.57	5176.6	
342.78	5525.4	
342.99	4648.2	
343.19	3250.8	
343.4	5984.8	
343.61	5866.1	
343.81	3951.2	
344.02	3659	
344.23	6073.6	
344.43	6488	
344.64	4575.8	
344.85	4418.2	
345.06	5828.5	
345.26	6193.1	
345.47	4223.6	
345.68	4996.4	
345.88	4928.8	
346.09	6141.2	
346.3	4358.8	
346.5	3307.5	
346.71	5635.3	
346.92	5312.4	
347.12	3395.5	
347.33	4308.2	
347.54	6185.5	
347.74	6665.5	
347.95	4263.9	
348.16	3147	
348.36	5378.6	
348.57	5193	
348.78	4251.6	
348.98	4554	
349.19	5612.8	
349.39	5040.1	
349.6	3423.5	
349.81	3805.1	
350.01	5925.5	
350.22	5286.5	
350.43	4095.9	
350.63	4978.6	
350.84	5573.9	
351.05	5394.3	
351.25	3801	
351.46	3392.1	
351.67	6163.7	
351.87	5303.6	
352.08	3992.9	
352.29	4517.1	
352.49	6091.3	
352.7	6200.6	
352.9	3615.3	
353.11	4553.3	
353.32	6828.6	
353.52	5401.2	
353.73	3583.9	
353.94	4586.8	
354.14	5892	
354.35	5827.8	
354.55	3692.5	
354.76	4114.4	
354.97	5951.4	
355.17	5700.9	
355.38	3539.6	
355.59	4872.8	
355.79	5356.1	
356	5728.2	
356.2	4149.9	
356.41	3610.6	
356.62	5061.2	
356.82	5563	
357.03	4411.3	
357.24	4033.8	
357.44	5403.9	
357.65	5470.1	
357.85	5335.6	
358.06	4203.8	
358.27	5087.2	
358.47	5270.8	
358.68	3560.1	
358.88	4446.1	
359.09	5977.3	
359.3	6337.1	
359.5	5227.1	
359.71	4590.2	
359.91	6778.8	
360.12	6133.7	
360.33	4449.6	
360.53	4930.1	
360.74	5460.6	
360.94	5439.4	
361.15	4642.1	
361.36	3902.7	
361.56	6258.6	
361.77	5643.5	
361.97	5244.8	
362.18	4100.7	
362.38	6257.2	
362.59	5299.5	
362.8	3832.4	
363	3653.6	
363.21	5079	
363.41	5819.6	
363.62	4386.1	
363.83	5449	
364.03	5840.1	
364.24	6913.3	
364.44	5591.6	
364.65	5552	
364.85	5629.2	
365.06	5270.8	
365.27	4063.2	
365.47	4063.9	
365.68	6746	
365.88	5590.3	
366.09	4522.6	
366.29	4168.3	
366.5	5996.5	
366.71	6460.7	
366.91	5534.3	
367.12	4672.1	
367.32	7051.8	
367.53	6263.4	
367.73	4629.8	
367.94	5591	
368.14	6232	
368.35	7140.6	
368.56	4582	
368.76	3908.2	
368.97	6298.2	
369.17	8194.6	
369.38	4138.3	
369.58	4415.4	
369.79	5393.7	
369.99	6701	
370.2	5535	
370.4	4526.7	
370.61	6081.1	
370.82	7256.6	
371.02	4453.6	
371.23	3762.8	
371.43	5248.9	
371.64	6707.1	
371.84	4482.3	
372.05	5743.9	
372.25	8176.2	
372.46	6462.7	
372.66	4534.9	
372.87	4511.7	
373.07	6518	
373.28	8215.1	
373.48	5588.9	
373.69	5313.1	
373.9	5956.9	
374.1	6103.6	
374.31	5521.3	
374.51	5122	
374.72	6905.8	
374.92	5754.1	
375.13	5754.8	
375.33	4976.6	
375.54	6481.8	
375.74	5962.3	
375.95	5044.8	
376.15	6256.5	
376.36	6525.5	
376.56	6377.4	
376.77	5158.2	
376.97	5632.6	
377.18	7736.5	
377.38	6712.6	
377.59	5994.4	
377.79	4676.9	
378	6540.5	
378.2	6963.8	
378.41	4765.6	
378.61	4642.7	
378.82	7026.6	
379.02	6142.5	
379.23	5010.7	
379.43	6182.8	
379.64	7079.8	
379.84	6792.4	
380.05	4792.2	
380.25	4716.5	
380.46	6817	
380.66	6464.1	
380.87	6164.4	
381.07	6568.5	
381.28	7531.1	
381.48	6836.8	
381.69	4775.9	
381.89	4883.7	
382.1	5692	
382.3	7032.7	
382.51	5972.6	
382.71	6928.3	
382.91	6834.8	
383.12	7452.6	
383.32	5197.1	
383.53	5415.5	
383.73	6690.7	
383.94	6458.6	
384.14	5313.8	
384.35	4459.8	
384.55	6417.7	
384.76	6924.2	
384.96	5212.8	
385.17	5484.5	
385.37	6896.9	
385.58	6082.5	
385.78	5539.8	
385.98	4334.9	
386.19	6260.6	
386.39	6752.8	
386.6	4924	
386.8	5214.8	
387.01	6814.3	
387.21	6892.1	
387.42	5637.4	
387.62	6312.5	
387.83	6116.6	
388.03	6870.3	
388.23	5321.3	
388.44	6158.9	
388.64	5855.1	
388.85	6162.3	
389.05	5752.7	
389.26	6302.3	
389.46	7989.8	
389.67	7503.1	
389.87	5758.2	
390.07	5799.2	
390.28	6636.8	
390.48	6219	
390.69	4978.6	
390.89	5345.2	
391.1	6462.7	
391.3	7340.6	
391.5	6634.7	
391.71	7264.1	
391.91	7171.3	
392.12	8223.3	
392.32	6601.3	
392.53	5836	
392.73	6510.5	
392.93	6704.4	
393.14	5591	
393.34	6408.1	
393.55	7232.7	
393.75	6630	
393.95	5482.4	
394.16	5418.9	
394.36	6474.3	
394.57	7158.3	
394.77	4946.5	
394.98	5369.8	
395.18	6520	
395.38	6668.9	
395.59	6378.7	
395.79	5349.3	
396	6604	
396.2	7159	
396.4	6431.3	
396.61	6267.5	
396.81	7542.7	
397.02	6788.3	
397.22	6707.8	
397.42	6681.8	
397.63	7484.6	
397.83	6780.1	
398.04	5445.5	
398.24	6068.1	
398.44	7309.9	
398.65	6470.9	
398.85	5365	
399.05	5536.3	
399.26	6832.7	
399.46	8582.4	
399.67	5946.6	
399.87	5648.3	
400.07	7227.3	
400.28	7636.2	
400.48	5795.8	
400.69	6952.2	
400.89	7907.2	
401.09	8378.9	
401.3	5775.3	
401.5	6998.6	
401.7	8771.5	
401.91	8879.3	
402.11	6144.6	
402.32	6376.7	
402.52	8103.1	
402.72	7893.6	
402.93	6643.6	
403.13	5350.7	
403.33	8746.2	
403.54	7215	
403.74	6234	
403.94	7157.7	
404.15	7282.6	
404.35	8649.3	
404.56	5970.5	
404.76	7829.4	
404.96	7808.9	
405.17	7634.1	
405.37	7434.1	
405.57	6538.5	
405.78	8012.3	
405.98	7359	
406.18	6152.1	
406.39	7144	
406.59	8138.6	
406.79	7672.4	
407	5940.5	
407.2	6130.9	
407.4	8125.7	
407.61	8367.3	
407.81	6128.2	
408.01	8318.8	
408.22	7139.2	
408.42	9310.7	
408.62	7468.9	
408.83	6944.7	
409.03	8045.8	
409.23	7922.9	
409.44	7271	
409.64	7606.8	
409.84	9266.4	
410.05	9323.7	
410.25	7733.1	
410.45	7335.8	
410.66	8940.1	
410.86	11517	
411.06	8063.5	
411.27	7901.7	
411.47	11512	
411.67	9325.1	
411.88	8220.5	
412.08	8692.9	
412.28	10050	
412.49	10600	
412.69	8342.1	
412.89	8292.9	
413.09	10423	
413.3	10351	
413.5	8437.6	
413.7	8064.9	
413.91	9543.5	
414.11	10650	
414.31	8398	
414.52	9016.5	
414.72	10293	
414.92	10327	
415.12	8454.7	
415.33	9041.8	
415.53	10783	
415.73	10894	
415.94	9415.2	
416.14	8893	
416.34	9723.8	
416.55	9529.9	
416.75	10236	
416.95	9537.4	
417.15	10918	
417.36	11537	
417.56	10535	
417.76	9626.8	
417.97	11292	
418.17	11163	
418.37	9045.2	
418.57	9289.6	
418.78	10802	
418.98	10466	
419.18	10220	
419.38	9998.2	
419.59	10716	
419.79	10022	
419.99	9084.8	
420.2	9577.7	
420.4	11064	
420.6	11183	
420.8	8847.9	
421.01	8800.8	
421.21	10867	
421.41	11224	
421.61	9455.5	
421.82	9047.9	
422.02	10489	
422.22	11389	
422.42	10055	
422.63	9414.5	
422.83	10606	
423.03	11890	
423.23	9531.2	
423.44	8558.5	
423.64	10685	
423.84	10313	
424.04	9024	
424.25	8565.3	
424.45	11533	
424.65	11427	
424.85	8383.7	
425.06	8961.9	
425.26	11452	
425.46	9878	
425.66	9394.7	
425.87	9205.6	
426.07	11185	
426.27	11078	
426.47	9348.3	
426.67	8546.9	
426.88	11592	
427.08	10966	
427.28	9663	
427.48	8560.5	
427.69	9764	
427.89	10504	
428.09	9566.1	
428.29	8568	
428.5	11244	
428.7	10783	
428.9	8632.2	
429.1	9110	
429.3	10805	
429.51	11315	
429.71	8910	
429.91	9801.6	
430.11	11114	
430.31	11476	
430.52	9342.2	
430.72	9794.1	
430.92	11899	
431.12	11267	
431.32	9171.5	
431.53	9521.7	
431.73	10188	
431.93	11923	
432.13	8991.3	
432.33	9075.2	
432.54	10691	
432.74	11152	
432.94	9013.1	
433.14	10065	
433.34	11255	
433.55	10998	
433.75	10056	
433.95	12255	
434.15	11257	
434.35	11032	
434.56	9280.7	
434.76	9043.1	
434.96	11314	
435.16	11832	
435.36	9297.8	
435.56	10727	
435.77	11175	
435.97	11406	
436.17	11604	
436.37	10711	
436.57	11241	
436.78	11329	
436.98	12488	
437.18	11282	
437.38	12295	
437.58	11456	
437.78	11554	
437.99	10096	
438.19	11991	
438.39	13459	
438.59	9983.2	
438.79	9424.1	
438.99	12585	
439.2	11518	
439.4	9436.4	
439.6	9473.2	
439.8	11816	
440	13001	
440.2	10587	
440.4	10793	
440.61	12250	
440.81	12937	
441.01	10099	
441.21	11295	
441.41	13184	
441.61	12729	
441.81	11669	
442.02	12727	
442.22	13775	
442.42	12897	
442.62	10553	
442.82	10564	
443.02	13228	
443.22	12453	
443.43	11099	
443.63	10512	
443.83	12000	
444.03	12244	
444.23	12006	
444.43	11503	
444.63	12738	
444.83	13973	
445.04	10990	
445.24	12375	
445.44	13059	
445.64	13259	
445.84	11589	
446.04	11761	
446.24	12395	
446.44	13510	
446.65	10660	
446.85	11273	
447.05	12150	
447.25	13364	
447.45	11098	
447.65	10467	
447.85	12584	
448.05	12058	
448.25	11762	
448.46	11417	
448.66	12661	
448.86	12354	
449.06	10430	
449.26	11785	
449.46	13164	
449.66	12063	
449.86	11411	
450.06	11316	
450.26	12435	
450.47	13105	
450.67	11450	
450.87	12010	
451.07	13175	
451.27	13126	
451.47	10890	
451.67	11761	
451.87	12787	
452.07	13639	
452.27	11486	
452.47	11185	
452.67	12933	
452.88	13671	
453.08	10476	
453.28	12958	
453.48	14506	
453.68	12940	
453.88	11499	
454.08	11627	
454.28	13670	
454.48	13306	
454.68	12138	
454.88	12706	
455.08	13701	
455.28	13831	
455.48	11229	
455.68	12245	
455.89	14544	
456.09	14300	
456.29	11877	
456.49	12342	
456.69	14636	
456.89	13682	
457.09	12811	
457.29	13424	
457.49	14353	
457.69	14683	
457.89	12934	
458.09	12102	
458.29	14309	
458.49	15059	
458.69	13478	
458.89	12977	
459.09	15580	
459.29	15663	
459.49	12971	
459.69	14016	
459.9	15113	
460.1	14958	
460.3	12880	
460.5	12715	
460.7	15219	
460.9	14886	
461.1	12557	
461.3	13964	
461.5	16180	
461.7	15689	
461.9	13441	
462.1	13643	
462.3	15464	
462.5	16026	
462.7	13674	
462.9	13994	
463.1	17292	
463.3	17253	
463.5	14159	
463.7	15649	
463.9	16051	
464.1	16613	
464.3	15022	
464.5	14964	
464.7	16991	
464.9	17116	
465.1	16735	
465.3	15627	
465.5	17473	
465.7	17638	
465.9	16099	
466.1	15455	
466.3	17772	
466.5	17185	
466.7	17298	
466.9	15591	
467.1	17506	
467.3	18601	
467.5	17186	
467.7	16012	
467.9	18725	
468.1	19854	
468.3	16647	
468.5	17343	
468.7	17842	
468.9	17565	
469.1	16606	
469.3	17411	
469.5	20062	
469.7	17518	
469.9	16739	
470.1	16419	
470.3	17973	
470.5	18049	
470.7	17774	
470.9	16348	
471.1	18142	
471.3	17966	
471.5	16363	
471.69	18348	
471.89	17471	
472.09	17046	
472.29	17204	
472.49	17211	
472.69	17500	
472.89	18142	
473.09	16292	
473.29	16064	
473.49	17441	
473.69	17649	
473.89	17212	
474.09	16216	
474.29	18853	
474.49	18478	
474.69	17125	
474.89	16249	
475.09	17492	
475.29	17608	
475.49	15703	
475.69	16137	
475.88	19067	
476.08	17811	
476.28	15849	
476.48	16018	
476.68	18136	
476.88	17993	
477.08	15869	
477.28	16420	
477.48	17363	
477.68	18056	
477.88	15673	
478.08	16085	
478.28	18571	
478.48	17504	
478.67	16238	
478.87	15352	
479.07	18718	
479.27	17645	
479.47	16460	
479.67	16443	
479.87	18381	
480.07	19062	
480.27	15797	
480.47	17421	
480.67	17877	
480.87	18785	
481.06	16034	
481.26	16995	
481.46	18062	
481.66	18035	
481.86	16722	
482.06	17744	
482.26	17835	
482.46	18891	
482.66	16591	
482.86	16391	
483.05	18295	
483.25	17751	
483.45	19256	
483.65	16636	
483.85	18043	
484.05	18315	
484.25	17270	
484.45	18190	
484.65	19191	
484.84	19704	
485.04	16976	
485.24	17064	
485.44	19770	
485.64	17843	
485.84	16665	
486.04	18034	
486.24	18497	
486.44	18996	
486.63	16472	
486.83	17520	
487.03	18727	
487.23	19127	
487.43	16702	
487.63	19456	
487.83	19165	
488.02	20136	
488.22	18258	
488.42	19046	
488.62	20142	
488.82	19268	
489.02	17682	
489.22	18191	
489.41	20046	
489.61	19916	
489.81	17663	
490.01	17699	
490.21	20203	
490.41	20887	
490.61	17914	
490.8	17984	
491	19801	
491.2	18908	
491.4	18525	
491.6	17643	
491.8	19733	
491.99	19617	
492.19	17318	
492.39	17830	
492.59	20266	
492.79	20209	
492.99	18665	
493.18	17787	
493.38	20299	
493.58	21685	
493.78	18975	
493.98	18539	
494.18	20553	
494.37	20521	
494.57	19968	
494.77	19718	
494.97	21404	
495.17	22031	
495.37	19558	
495.56	20012	
495.76	22536	
495.96	22111	
496.16	21342	
496.36	20416	
496.55	22624	
496.75	22399	
496.95	20845	
497.15	20781	
497.35	22623	
497.54	22834	
497.74	20510	
497.94	22482	
498.14	23573	
498.34	23442	
498.53	20372	
498.73	21364	
498.93	22530	
499.13	22912	
499.33	21356	
499.52	21815	
499.72	23279	
499.92	23281	
500.12	21185	
500.32	21540	
500.51	23629	
500.71	23642	
500.91	22507	
501.11	22020	
501.31	23713	
501.5	23928	
501.7	22915	
501.9	21756	
502.1	23319	
502.29	23733	
502.49	22339	
502.69	22495	
502.89	23429	
503.09	23723	
503.28	20904	
503.48	20964	
503.68	22442	
503.88	22725	
504.07	22076	
504.27	21196	
504.47	22965	
504.67	22846	
504.86	21792	
505.06	21489	
505.26	22235	
505.46	24417	
505.65	21171	
505.85	21446	
506.05	22232	
506.25	22684	
506.44	20220	
506.64	20957	
506.84	21818	
507.04	22858	
507.23	20284	
507.43	20910	
507.63	23741	
507.83	22132	
508.02	20805	
508.22	20594	
508.42	24372	
508.62	21972	
508.81	20611	
509.01	21534	
509.21	21471	
509.4	22124	
509.6	20899	
509.8	20547	
510	21925	
510.19	23679	
510.39	20271	
510.59	20592	
510.79	21895	
510.98	23639	
511.18	20611	
511.38	21022	
511.57	22849	
511.77	22822	
511.97	21685	
512.17	20256	
512.36	22826	
512.56	22688	
512.76	20381	
512.95	20033	
513.15	22855	
513.35	21480	
513.55	21300	
513.74	20581	
513.94	22793	
514.14	22183	
514.33	21728	
514.53	21491	
514.73	22177	
514.92	22620	
515.12	20950	
515.32	20739	
515.51	22664	
515.71	23239	
515.91	22714	
516.11	20921	
516.3	24767	
516.5	22467	
516.7	21432	
516.89	22252	
517.09	22651	
517.29	22575	
517.48	22056	
517.68	21223	
517.88	22283	
518.07	22979	
518.27	21997	
518.47	20756	
518.66	23644	
518.86	22296	
519.06	20594	
519.25	21174	
519.45	22487	
519.65	24430	
519.84	21856	
520.04	22894	
520.24	24761	
520.43	23488	
520.63	21556	
520.83	21353	
521.02	22580	
521.22	23203	
521.42	21805	
521.61	22521	
521.81	22542	
522.01	22546	
522.2	21632	
522.4	21180	
522.6	23348	
522.79	22259	
522.99	21510	
523.18	21206	
523.38	23528	
523.58	23816	
523.77	23690	
523.97	21613	
524.17	26166	
524.36	25131	
524.56	23605	
524.76	23108	
524.95	24603	
525.15	24354	
525.34	23350	
525.54	23339	
525.74	25217	
525.93	24475	
526.13	24927	
526.33	23875	
526.52	26179	
526.72	25507	
526.91	25374	
527.11	24748	
527.31	26428	
527.5	26945	
527.7	24745	
527.89	23772	
528.09	25401	
528.29	26313	
528.48	25042	
528.68	24703	
528.87	26628	
529.07	26521	
529.27	24715	
529.46	24510	
529.66	26387	
529.85	27044	
530.05	24572	
530.25	25176	
530.44	28231	
530.64	26368	
530.83	24862	
531.03	25359	
531.23	26939	
531.42	26744	
531.62	25982	
531.81	25154	
532.01	27349	
532.21	28000	
532.4	25409	
532.6	25980	
532.79	28745	
532.99	28239	
533.18	26319	
533.38	27456	
533.58	28029	
533.77	28839	
533.97	26777	
534.16	27726	
534.36	29272	
534.55	28209	
534.75	27903	
534.95	27067	
535.14	29781	
535.34	28338	
535.53	26542	
535.73	28736	
535.92	30023	
536.12	28567	
536.31	26750	
536.51	27898	
536.71	28644	
536.9	28102	
537.1	26619	
537.29	27048	
537.49	28865	
537.68	27932	
537.88	27437	
538.07	26437	
538.27	28622	
538.46	29399	
538.66	26465	
538.86	27166	
539.05	28616	
539.25	29151	
539.44	27753	
539.64	26968	
539.83	28401	
540.03	29275	
540.22	26896	
540.42	26742	
540.61	28390	
540.81	28766	
541	26828	
541.2	28084	
541.39	27863	
541.59	28256	
541.78	27514	
541.98	26258	
542.18	27542	
542.37	27400	
542.57	26503	
542.76	27656	
542.96	27247	
543.15	28007	
543.35	26391	
543.54	25590	
543.74	27979	
543.93	27552	
544.13	25821	
544.32	27048	
544.52	27581	
544.71	26754	
544.91	24950	
545.1	26161	
545.3	26932	
545.49	27725	
545.69	24986	
545.88	25433	
546.08	28210	
546.27	28224	
546.47	26081	
546.66	25147	
546.86	27685	
547.05	28273	
547.24	25410	
547.44	25486	
547.63	26259	
547.83	27830	
548.02	25827	
548.22	26030	
548.41	26214	
548.61	27716	
548.8	24985	
549	25069	
549.19	26480	
549.39	27208	
549.58	24486	
549.78	25260	
549.97	27099	
550.17	26559	
550.36	25724	
550.55	27166	
550.75	26446	
550.94	27358	
551.14	24651	
551.33	24747	
551.53	25693	
551.72	26850	
551.92	24688	
552.11	24496	
552.31	26589	
552.5	26665	
552.69	26314	
552.89	24116	
553.08	26607	
553.28	26218	
553.47	24692	
553.67	25798	
553.86	27097	
554.06	25289	
554.25	23473	
554.44	24259	
554.64	27807	
554.83	27314	
555.03	24269	
555.22	24687	
555.42	26491	
555.61	26200	
555.8	24369	
556	24466	
556.19	25294	
556.39	26729	
556.58	24134	
556.78	24289	
556.97	25972	
557.16	25753	
557.36	25490	
557.55	23862	
557.75	24853	
557.94	27048	
558.13	23908	
558.33	23869	
558.52	26724	
558.72	25611	
558.91	24000	
559.1	23998	
559.3	25127	
559.49	24514	
559.69	23270	
559.88	24450	
560.07	25781	
560.27	26202	
560.46	24439	
560.66	24604	
560.85	25488	
561.04	24695	
561.24	23687	
561.43	23610	
561.63	24899	
561.82	25131	
562.01	24993	
562.21	24178	
562.4	25568	
562.59	27037	
562.79	23988	
562.98	23884	
563.18	25620	
563.37	27411	
563.56	24578	
563.76	23993	
563.95	25370	
564.14	25460	
564.34	24560	
564.53	24154	
564.73	25953	
564.92	26643	
565.11	24662	
565.31	24161	
565.5	26710	
565.69	25757	
565.89	24345	
566.08	24877	
566.27	26693	
566.47	27525	
566.66	25489	
566.85	24262	
567.05	26426	
567.24	25836	
567.44	24662	
567.63	26127	
567.82	26803	
568.02	26579	
568.21	24604	
568.4	24988	
568.6	26659	
568.79	26682	
568.98	24545	
569.18	25050	
569.37	26813	
569.56	28870	
569.76	25477	
569.95	26611	
570.14	27205	
570.34	27348	
570.53	24895	
570.72	25121	
570.91	27888	
571.11	26880	
571.3	25469	
571.49	26469	
571.69	27035	
571.88	26557	
572.07	26467	
572.27	26127	
572.46	26697	
572.65	27783	
572.85	25570	
573.04	26130	
573.23	28189	
573.43	27303	
573.62	25358	
573.81	26248	
574	27756	
574.2	27621	
574.39	26169	
574.58	26258	
574.78	29066	
574.97	28303	
575.16	27078	
575.36	27387	
575.55	28949	
575.74	29046	
575.93	26280	
576.13	27682	
576.32	28194	
576.51	29156	
576.71	26916	
576.9	28491	
577.09	29403	
577.28	28666	
577.48	27393	
577.67	26384	
577.86	28579	
578.05	29077	
578.25	27173	
578.44	27230	
578.63	28748	
578.83	30282	
579.02	26621	
579.21	28525	
579.4	29080	
579.6	28902	
579.79	27519	
579.98	29957	
580.17	29687	
580.37	29829	
580.56	27053	
580.75	27940	
580.94	30065	
581.14	30053	
581.33	28532	
581.52	27343	
581.71	29470	
581.91	30113	
582.1	27115	
582.29	27482	
582.48	29321	
582.68	29214	
582.87	28082	
583.06	27981	
583.25	29579	
583.45	29039	
583.64	28837	
583.83	29576	
584.02	29105	
584.21	29653	
584.41	28586	
584.6	28155	
584.79	29657	
584.98	30543	
585.18	27366	
585.37	27607	
585.56	28790	
585.75	29924	
585.94	27383	
586.14	28336	
586.33	30081	
586.52	29268	
586.71	28036	
586.91	27537	
587.1	28125	
587.29	29366	
587.48	26914	
587.67	26979	
587.87	28987	
588.06	28781	
588.25	28020	
588.44	27334	
588.63	28176	
588.83	28882	
589.02	26533	
589.21	26120	
589.4	27442	
589.59	27439	
589.78	24772	
589.98	24869	
590.17	26191	
590.36	26811	
590.55	23558	
590.74	24109	
590.94	27552	
591.13	25742	
591.32	23639	
591.51	23124	
591.7	26245	
591.89	25899	
592.09	23614	
592.28	24125	
592.47	24935	
592.66	27519	
592.85	23958	
593.05	24180	
593.24	25810	
593.43	26811	
593.62	24281	
593.81	24922	
594	25883	
594.19	26299	
594.39	24058	
594.58	24012	
594.77	26239	
594.96	26921	
595.15	23817	
595.34	24617	
595.54	26108	
595.73	25077	
595.92	23072	
596.11	24174	
596.3	26415	
596.49	25157	
596.68	23823	
596.88	24378	
597.07	26179	
597.26	24834	
597.45	23229	
597.64	24826	
597.83	25244	
598.02	26019	
598.22	23221	
598.41	24255	
598.6	25531	
598.79	24909	
598.98	23281	
599.17	24541	
599.36	25498	
599.55	26875	
599.74	25641	
599.94	25426	
600.13	26026	
600.32	24711	
600.51	23152	
600.7	23388	
600.89	26611	
601.08	26718	
601.27	23104	
601.47	24141	
601.66	25829	
601.85	26514	
602.04	23832	
602.23	23803	
602.42	24861	
602.61	25495	
602.8	23467	
602.99	23121	
603.18	25043	
603.37	25604	
603.57	23661	
603.76	24483	
603.95	26019	
604.14	25883	
604.33	23409	
604.52	23943	
604.71	25570	
604.9	25178	
605.09	24289	
605.28	24209	
605.47	26131	
605.66	25684	
605.86	23963	
606.05	23302	
606.24	25863	
606.43	24427	
606.62	23733	
606.81	24561	
607	25656	
607.19	25167	
607.38	22793	
607.57	23369	
607.76	24696	
607.95	24207	
608.14	23595	
608.33	24352	
608.52	24548	
608.72	25735	
608.91	22747	
609.1	22526	
609.29	24742	
609.48	24036	
609.67	23444	
609.86	22485	
610.05	24081	
610.24	24527	
610.43	22435	
610.62	22070	
610.81	25541	
611	25344	
611.19	22556	
611.38	23330	
611.57	24778	
611.76	26166	
611.95	22162	
612.14	21953	
612.33	24255	
612.52	24153	
612.71	22805	
612.9	22019	
613.09	23488	
613.28	26094	
613.47	22303	
613.66	23563	
613.85	24557	
614.04	24152	
614.24	22557	
614.43	21809	
614.62	24806	
614.81	24703	
615	23091	
615.19	23324	
615.38	23896	
615.57	24587	
615.76	23070	
615.95	24226	
616.14	25056	
616.33	24628	
616.52	23551	
616.71	23866	
616.9	24831	
617.09	24742	
617.28	22901	
617.47	24370	
617.66	24123	
617.85	24071	
618.04	24171	
618.22	23650	
618.41	25026	
618.6	26098	
618.79	23867	
618.98	23717	
619.17	26665	
619.36	24761	
619.55	23985	
619.74	23906	
619.93	25953	
620.12	25507	
620.31	24803	
620.5	25152	
620.69	27186	
620.88	27550	
621.07	25978	
621.26	25120	
621.45	26782	
621.64	26934	
621.83	25368	
622.02	24461	
622.21	26695	
622.4	26680	
622.59	25942	
622.78	25698	
622.97	26282	
623.16	27505	
623.35	25225	
623.54	24593	
623.72	26654	
623.91	26886	
624.1	25841	
624.29	24369	
624.48	28003	
624.67	26982	
624.86	25933	
625.05	24738	
625.24	28134	
625.43	26470	
625.62	27513	
625.81	25232	
626	27496	
626.19	27038	
626.38	26190	
626.56	25285	
626.75	26710	
626.94	27731	
627.13	26009	
627.32	24591	
627.51	27429	
627.7	28878	
627.89	24591	
628.08	25998	
628.27	26435	
628.46	26570	
628.65	24757	
628.83	24680	
629.02	26953	
629.21	26282	
629.4	25386	
629.59	25519	
629.78	26507	
629.97	27406	
630.16	25755	
630.35	24992	
630.54	27839	
630.72	27554	
630.91	24928	
631.1	25682	
631.29	27113	
631.48	27296	
631.67	25585	
631.86	25093	
632.05	26680	
632.24	26581	
632.42	24401	
632.61	25430	
632.8	26417	
632.99	26198	
633.18	25425	
633.37	25544	
633.56	26641	
633.75	26691	
633.93	25279	
634.12	25021	
634.31	27583	
634.5	27297	
634.69	25035	
634.88	25321	
635.07	26464	
635.25	26974	
635.44	25783	
635.63	26256	
635.82	26252	
636.01	25817	
636.2	25540	
636.39	25329	
636.57	27330	
636.76	26819	
636.95	24712	
637.14	25844	
637.33	26679	
637.52	27895	
637.7	24313	
637.89	25205	
638.08	26167	
638.27	27759	
638.46	25585	
638.65	25644	
638.83	27395	
639.02	25829	
639.21	24991	
639.4	25688	
639.59	26160	
639.78	25694	
639.96	23806	
640.15	24051	
640.34	25920	
640.53	26046	
640.72	23618	
640.91	23840	
641.09	24834	
641.28	26357	
641.47	23653	
641.66	24762	
641.85	25605	
642.03	25684	
642.22	24226	
642.41	23711	
642.6	24961	
642.79	24169	
642.97	23085	
643.16	24191	
643.35	24839	
643.54	24521	
643.73	23234	
643.91	23854	
644.1	23997	
644.29	24902	
644.48	22649	
644.67	22956	
644.85	23955	
645.04	24342	
645.23	22007	
645.42	22427	
645.6	23425	
645.79	24475	
645.98	22053	
646.17	20597	
646.36	22520	
646.54	22946	
646.73	21908	
646.92	20871	
647.11	22281	
647.29	23604	
647.48	20966	
647.67	20579	
647.86	23623	
648.05	23999	
648.23	21287	
648.42	22575	
648.61	23016	
648.8	22900	
648.98	20575	
649.17	20894	
649.36	22276	
649.55	21867	
649.73	20502	
649.92	21573	
650.11	22369	
650.3	22554	
650.48	20764	
650.67	20743	
650.86	22867	
651.05	21636	
651.23	20578	
651.42	20542	
651.61	22005	
651.79	21926	
651.98	20796	
652.17	20362	
652.36	22210	
652.54	21125	
652.73	20207	
652.92	19893	
653.11	22119	
653.29	22171	
653.48	19202	
653.67	20342	
653.85	21812	
654.04	22790	
654.23	20181	
654.42	19522	
654.6	20431	
654.79	21039	
654.98	18424	
655.16	18888	
655.35	19501	
655.54	19467	
655.73	18136	
655.91	17892	
656.1	20529	
656.29	19364	
656.47	17696	
656.66	19628	
656.85	19990	
657.03	20172	
657.22	18806	
657.41	19030	
657.59	20445	
657.78	20383	
657.97	18664	
658.16	19541	
658.34	21220	
658.53	21663	
658.72	20457	
658.9	20952	
659.09	20819	
659.28	20991	
659.46	19475	
659.65	19189	
659.84	20654	
660.02	21315	
660.21	19189	
660.4	19120	
660.58	21513	
660.77	20982	
660.96	19905	
661.14	18939	
661.33	22132	
661.52	22263	
661.7	18714	
661.89	22831	
662.08	20510	
662.26	20145	
662.45	19015	
662.64	19070	
662.82	21074	
663.01	20251	
663.2	18850	
663.38	19757	
663.57	20884	
663.75	20893	
663.94	19387	
664.13	20508	
664.31	20279	
664.5	20988	
664.69	19641	
664.87	20190	
665.06	19981	
665.25	21095	
665.43	20408	
665.62	20477	
665.8	21039	
665.99	20162	
666.18	19140	
666.36	19283	
666.55	20900	
666.74	20856	
666.92	18703	
667.11	20283	
667.29	20304	
667.48	20831	
667.67	20008	
667.85	19046	
668.04	20166	
668.22	20372	
668.41	18981	
668.6	19316	
668.78	20071	
668.97	20278	
669.15	19386	
669.34	18340	
669.53	20106	
669.71	20487	
669.9	18512	
670.08	19215	
670.27	19943	
670.46	20588	
670.64	19242	
670.83	19669	
671.01	19794	
671.2	20354	
671.38	18678	
671.57	18406	
671.76	21111	
671.94	21937	
672.13	18427	
672.31	19486	
672.5	20938	
672.69	20134	
672.87	18583	
673.06	19071	
673.24	20650	
673.43	20131	
673.61	19269	
673.8	18899	
673.98	20662	
674.17	20964	
674.36	19438	
674.54	19255	
674.73	20215	
674.91	20525	
675.1	19019	
675.28	18503	
675.47	20236	
675.65	20754	
675.84	18787	
676.03	19401	
676.21	19865	
676.4	19434	
676.58	19621	
676.77	19504	
676.95	21384	
677.14	20000	
677.32	18461	
677.51	18398	
677.69	20672	
677.88	19588	
678.06	18453	
678.25	18409	
678.44	20488	
678.62	20028	
678.81	18182	
678.99	19424	
679.18	21217	
679.36	20676	
679.55	18847	
679.73	19535	
679.92	20448	
680.1	19936	
680.29	20334	
680.47	18768	
680.66	19880	
680.84	20504	
681.03	17990	
681.21	19232	
681.4	19868	
681.58	19763	
681.77	18378	
681.95	18406	
682.14	20560	
682.32	21042	
682.51	19279	
682.69	17797	
682.88	19615	
683.06	20121	
683.25	18881	
683.43	19220	
683.62	19836	
683.8	20269	
683.99	19322	
684.17	18602	
684.36	20794	
684.54	19158	
684.73	16944	
684.91	17161	
685.1	18974	
685.28	18140	
685.46	17123	
685.65	17061	
685.83	18619	
686.02	18025	
686.2	16377	
686.39	16673	
686.57	17712	
686.76	19551	
686.94	16706	
687.13	17004	
687.31	18737	
687.5	18434	
687.68	16488	
687.86	17998	
688.05	20312	
688.23	18133	
688.42	17992	
688.6	17298	
688.79	18538	
688.97	18588	
689.16	17860	
689.34	16524	
689.52	19644	
689.71	19768	
689.89	18164	
690.08	17477	
690.26	19123	
690.45	19068	
690.63	18284	
690.81	17696	
691	18715	
691.18	18869	
691.37	17680	
691.55	19754	
691.74	18548	
691.92	20540	
692.1	17425	
692.29	16778	
692.47	18571	
692.66	17716	
692.84	17008	
693.02	17705	
693.21	18204	
693.39	18520	
693.58	17952	
693.76	17341	
693.94	19988	
694.13	20026	
694.31	17658	
694.5	18938	
694.68	18848	
694.86	19435	
695.05	18299	
695.23	18594	
695.42	20096	
695.6	22483	
695.78	19143	
695.97	17879	
696.15	19940	
696.34	19273	
696.52	17537	
696.7	18446	
696.89	19335	
697.07	18645	
697.25	18081	
697.44	19723	
697.62	19217	
697.81	19456	
697.99	17555	
698.17	18198	
698.36	18267	
698.54	18945	
698.72	17865	
698.91	16740	
699.09	18470	
699.28	18392	
699.46	17483	
699.64	17105	
699.83	18314	
700.01	19340	
700.19	17952	
700.38	16586	
700.56	19618	
700.74	18437	
700.93	17047	
701.11	17996	
701.29	19075	
701.48	20284	
701.66	17272	
701.84	17382	
702.03	18585	
702.21	19652	
702.39	16758	
702.58	17675	
702.76	19133	
702.94	19285	
703.13	16911	
703.31	19593	
703.49	18446	
703.68	19520	
703.86	17131	
704.04	18172	
704.23	18938	
704.41	19421	
704.59	17122	
704.78	18195	
704.96	20085	
705.14	19275	
705.33	17002	
705.51	17681	
705.69	18514	
705.87	19437	
706.06	17891	
706.24	16782	
706.42	18822	
706.61	19411	
706.79	17948	
706.97	16645	
707.16	18116	
707.34	18575	
707.52	17555	
707.7	16903	
707.89	18305	
708.07	17905	
708.25	17789	
708.44	18091	
708.62	18132	
708.8	19123	
708.98	17856	
709.17	16839	
709.35	18452	
709.53	18430	
709.72	16444	
709.9	16807	
710.08	18480	
710.26	18598	
710.45	18075	
710.63	16598	
710.81	17995	
710.99	17922	
711.18	17089	
711.36	16360	
711.54	17572	
711.72	18315	
711.91	16161	
712.09	15559	
712.27	17464	
712.45	17965	
712.64	16100	
712.82	15147	
713	16472	
713.18	16483	
713.37	14789	
713.55	15811	
713.73	16931	
713.91	15139	
714.1	14317	
714.28	13433	
714.46	15580	
714.64	14396	
714.83	12151	
715.01	12665	
715.19	13625	
715.37	12970	
715.55	11823	
715.74	12280	
715.92	14325	
716.1	12085	
716.28	13121	
716.47	12064	
716.65	12578	
716.83	12742	
717.01	11800	
717.19	11788	
717.38	15045	
717.56	12399	
717.74	12209	
717.92	11262	
718.1	13804	
718.29	13233	
718.47	11339	
718.65	12301	
718.83	14530	
719.01	14620	
719.2	11805	
719.38	13115	
719.56	14400	
719.74	16068	
719.92	12471	
720.11	13484	
720.29	14114	
720.47	13093	
720.65	11407	
720.83	12242	
721.02	12767	
721.2	12586	
721.38	11885	
721.56	10989	
721.74	11763	
721.92	11932	
722.11	12163	
722.29	12001	
722.47	13364	
722.65	12424	
722.83	10864	
723.01	11790	
723.2	12367	
723.38	12694	
723.56	10283	
723.74	11484	
723.92	11789	
724.1	13196	
724.29	10799	
724.47	11941	
724.65	11878	
724.83	11740	
725.01	10559	
725.19	11460	
725.37	11673	
725.56	11936	
725.74	10394	
725.92	10783	
726.1	11710	
726.28	12041	
726.46	11009	
726.64	10630	
726.83	11815	
727.01	12136	
727.19	10285	
727.37	11185	
727.55	12039	
727.73	12484	
727.91	10185	
728.09	10003	
728.28	12604	
728.46	13272	
728.64	11239	
728.82	11277	
729	13781	
729.18	13175	
729.36	10546	
729.54	12923	
729.72	14515	
729.91	12707	
730.09	12806	
730.27	11541	
730.45	12449	
730.63	13300	
730.81	12190	
730.99	11286	
731.17	13803	
731.35	12329	
731.53	11798	
731.71	11363	
731.9	13437	
732.08	13622	
732.26	11403	
732.44	11092	
732.62	13687	
732.8	13083	
732.98	11782	
733.16	10727	
733.34	12874	
733.52	11548	
733.7	11112	
733.88	11469	
734.07	12496	
734.25	12396	
734.43	10494	
734.61	12212	
734.79	14005	
734.97	12338	
735.15	10692	
735.33	11099	
735.51	12514	
735.69	12099	
735.87	12160	
736.05	11135	
736.23	12341	
736.41	12174	
736.59	10895	
736.77	11054	
736.95	12855	
737.13	12255	
737.32	10576	
737.5	10882	
737.68	13299	
737.86	11906	
738.04	10139	
738.22	12098	
738.4	11484	
738.58	11789	
738.76	10798	
738.94	9735.4	
739.12	11657	
739.3	11615	
739.48	11488	
739.66	11281	
739.84	11899	
740.02	11985	
740.2	9746.3	
740.38	10102	
740.56	12284	
740.74	11088	
740.92	10759	
741.1	10556	
741.28	11522	
741.46	11320	
741.64	9964.1	
741.82	10613	
742	11539	
742.18	11413	
742.36	10092	
742.54	9839.1	
742.72	11861	
742.9	10667	
743.08	10551	
743.26	9138.7	
743.44	11957	
743.62	11846	
743.8	10522	
743.98	9608.4	
744.16	11475	
744.34	11163	
744.52	10395	
744.7	10288	
744.88	11514	
745.06	10877	
745.24	10267	
745.42	10422	
745.6	11284	
745.78	11080	
745.96	8804.2	
746.14	9191.3	
746.32	12101	
746.5	11187	
746.68	9605	
746.86	9044.5	
747.03	11808	
747.21	9731.9	
747.39	9550.4	
747.57	8972.2	
747.75	10586	
747.93	11052	
748.11	8896.4	
748.29	8888.2	
748.47	12321	
748.65	10318	
748.83	9775	
749.01	9417.9	
749.19	10869	
749.37	9961.3	
749.55	9166	
749.73	9315.5	
749.91	10237	
750.09	10071	
750.26	9215.9	
750.44	8576.9	
750.62	10477	
750.8	10343	
750.98	8402.8	
751.16	8846.5	
751.34	10383	
751.52	9684.2	
751.7	9540.1	
751.88	8299.1	
752.06	10803	
752.24	10473	
752.42	8181	
752.59	8598.7	
752.77	10135	
752.95	11487	
753.13	9374.9	
753.31	8730.5	
753.49	9874.6	
753.67	10249	
753.85	8955.1	
754.03	8368.7	
754.21	10346	
754.38	10730	
754.56	8391.2	
754.74	7244.3	
754.92	9115.5	
755.1	9818.6	
755.28	6868.9	
755.46	6628.6	
755.64	9893.7	
755.82	9714.2	
755.99	6107	
756.17	6044.2	
756.35	6438.1	
756.53	8067.6	
756.71	4562.2	
756.89	5657.9	
757.07	7611.6	
757.25	6705	
757.42	6421.7	
757.6	7520.1	
757.78	8177.5	
757.96	7088.7	
758.14	6419	
758.32	5891.3	
758.5	6578.8	
758.67	7400.7	
758.85	6156.9	
759.03	6291.4	
759.21	7572.7	
759.39	6977.4	
759.57	5653.8	
759.75	6968.6	
759.92	8353.7	
760.1	7684	
760.28	7425.3	
760.46	7819.1	
760.64	7498.3	
760.82	7301.7	
760.99	7266.9	
761.17	6645	
761.35	8576.9	
761.53	7492.2	
761.71	6796.5	
761.89	7697.6	
762.06	8591.9	
762.24	8061.5	
762.42	7051.8	
762.6	6851.1	
762.78	8204.8	
762.96	8873.8	
763.13	7587.7	
763.31	7238.9	
763.49	9170.1	
763.67	8144.8	
763.85	8140.7	
764.02	8815.1	
764.2	9310.1	
764.38	8563.2	
764.56	6947.4	
764.74	7922.9	
764.91	9424.1	
765.09	8189.8	
765.27	6688.7	
765.45	6429.9	
765.63	9343.5	
765.8	9191.3	
765.98	6025.1	
766.16	6481.8	
766.34	7637.6	
766.52	7383.6	
766.69	7373.4	
766.87	6173.3	
767.05	8040.3	
767.23	8609	
767.41	6450.4	
767.58	6690.7	
767.76	8530.5	
767.94	8529.1	
768.12	6398.5	
768.29	7235.5	
768.47	7966.6	
768.65	8632.2	
768.83	5936.4	
769	7228.6	
769.18	7338.6	
769.36	7974.1	
769.54	7120.1	
769.72	5831.9	
769.89	8331.8	
770.07	8488.8	
770.25	6188.3	
770.43	7510.6	
770.6	9010.4	
770.78	9516.2	
770.96	6263.4	
771.14	6111.8	
771.31	7962.5	
771.49	7317.4	
771.67	5369.8	
771.85	5599.1	
772.02	6464.8	
772.2	7230.7	
772.38	6353.5	
772.55	5827.2	
772.73	7524.9	
772.91	7277.1	
773.09	6118	
773.26	6158.9	
773.44	7415.7	
773.62	7015	
773.8	5502.2	
773.97	5259.2	
774.15	7396.6	
774.33	6919.4	
774.5	5384.1	
774.68	5745.2	
774.86	7476.5	
775.04	6890.7	
775.21	5297.4	
775.39	5356.8	
775.57	7204.1	
775.74	7630	
775.92	5106.3	
776.1	5086.5	
776.27	7060.7	
776.45	8473.1	
776.63	5278.3	
776.81	4738.3	
776.98	6625.2	
777.16	7909.3	
777.34	5338.4	
777.51	5667.4	
777.69	6634.7	
777.87	6335.7	
778.04	5384.1	
778.22	6016.9	
778.4	6322.8	
778.57	6989.7	
778.75	4508.3	
778.93	4797.7	
779.1	6015.6	
779.28	5923.4	
779.46	4516.5	
779.64	5044.1	
779.81	7107.1	
779.99	8057.4	
780.17	5872.9	
780.34	6042.2	
780.52	6455.2	
780.69	6695.5	
780.87	5341.1	
781.05	4775.2	
781.22	6559	
781.4	6597.2	
781.58	4954.7	
781.75	3979.2	
781.93	6484.6	
782.11	5879.7	
782.28	5801.9	
782.46	4864.6	
782.64	5682.4	
782.81	6550.1	
782.99	4922.6	
783.17	4902.8	
783.34	6562.4	
783.52	5697.4	
783.69	5141.1	
783.87	5953.4	
784.05	5593.7	
784.22	5771.2	
784.4	5961	
784.58	5156.8	
784.75	6705.7	
784.93	5770.5	
785.1	4761.5	
785.28	5423	
785.46	6410.8	
785.63	5668.8	
785.81	4655.7	
785.99	4565.6	
786.16	5792.3	
786.34	6267.5	
786.51	4543.1	
786.69	4952.7	
786.87	5356.8	
787.04	5894.7	
787.22	4349.2	
787.39	5431.2	
787.57	5568.4	
787.75	6884.6	
787.92	5569.1	
788.1	5557.5	
788.27	5667.4	
788.45	5479	
788.63	5233.9	
788.8	3772.4	
788.98	6031.3	
789.15	5294.7	
789.33	3941.7	
789.5	4650.3	
789.68	6648.4	
789.86	6725.5	
790.03	5068.7	
790.21	4475.5	
790.38	6530.3	
790.56	5672.9	
790.73	4344.4	
790.91	4384.7	
791.09	5555.5	
791.26	6365.1	
791.44	4554	
791.61	3977.2	
791.79	5506.3	
791.96	5631.9	
792.14	4128	
792.32	3662.5	
792.49	5549.3	
792.67	5644.2	
792.84	4184.7	
793.02	3968.3	
793.19	5982.1	
793.37	6805.4	
793.54	3644	
793.72	3990.8	
793.89	6896.9	
794.07	5528.8	
794.25	4521.2	
794.42	3710.2	
794.6	6612.2	
794.77	6294.1	
794.95	4898.1	
795.12	4393.6	
795.3	5457.2	
795.47	6218.3	
795.65	4760.2	
795.82	4613.4	
796	5277.6	
796.17	7358.4	
796.35	4407.9	
796.52	5191.6	
796.7	6059.3	
796.87	6125.5	
797.05	5378.6	
797.22	5344.5	
797.4	6090	
797.57	7188.4	
797.75	4515.1	
797.92	4483	
798.1	6432.7	
798.27	5498.1	
798.45	3650.8	
798.62	3959.4	
798.8	5696.8	
798.97	6245.6	
799.15	4821.6	
799.32	4543.8	
799.5	5020.9	
799.67	5836.7	
799.85	4894	
800.02	3585.3	
800.2	5362.9	
800.37	5704.3	
800.55	5101.5	
800.72	4201.1	
800.9	6234	
801.07	6706.4	
801.25	5670.1	
801.42	4683	
801.6	6328.2	
801.77	5943.9	
801.95	4332.8	
802.12	4092.5	
802.29	5928.2	
802.47	5972.6	
802.64	4573.8	
802.82	3543.7	
802.99	5266	
803.17	6443.6	
803.34	4475.5	
803.52	4034.5	
803.69	7125.6	
803.87	5125.4	
804.04	4447.5	
804.21	4601.1	
804.39	6477.7	
804.56	5577.3	
804.74	3785.3	
804.91	4603.8	
805.09	5301.5	
805.26	5466	
805.44	3826.3	
805.61	4225.6	
805.78	6087.2	
805.96	6083.8	
806.13	4653.7	
806.31	4890.5	
806.48	4876.2	
806.66	5436	
806.83	4588.8	
807	4500.1	
807.18	5290.6	
807.35	5752.1	
807.53	4418.8	
807.7	3514.3	
807.87	6631.3	
808.05	5299.5	
808.22	4896.7	
808.4	3560.1	
808.57	5326.1	
808.74	4940.4	
808.92	3999	
809.09	5162.2	
809.27	5210	
809.44	5808	
809.61	3589.4	
809.79	3966.9	
809.96	6531	
810.14	6157.6	
810.31	3477.5	
810.48	4196.3	
810.66	5408.7	
810.83	6251.8	
811.01	4055.7	
811.18	4546.5	
811.35	6077	
811.53	4752.7	
811.7	4888.5	
811.87	4583.4	
812.05	5274.9	
812.22	5248.9	
812.39	3900.7	
812.57	3801.7	
812.74	5377.3	
812.92	7133.8	
813.09	4186.7	
813.26	4606.6	
813.44	6848.4	
813.61	5212.1	
813.78	3530	
813.96	4750.6	
814.13	5306.3	
814.3	4988.9	
814.48	5145.2	
814.65	4321.9	
814.82	6623.1	
815	5137	
815.17	4332.8	
815.34	5316.5	
815.52	5294.7	
815.69	5277.6	
815.87	4334.2	
816.04	3728	
816.21	5335.6	
816.38	4639.3	
816.56	4148.5	
816.73	3892.5	
816.9	6711.9	
817.08	6094.8	
817.25	3927.3	
817.42	4947.9	
817.6	4818.9	
817.77	5287.2	
817.94	4437.9	
818.12	3835.8	
818.29	5033.9	
818.46	7983.7	
818.64	4048.8	
818.81	3806.5	
818.98	4927.4	
819.16	7248.4	
819.33	4601.1	
819.5	4326	
819.67	5692.7	
819.85	6443.6	
820.02	4261.8	
820.19	4561.5	
820.37	5504.9	
820.54	5134.3	
820.71	4411.3	
820.88	5464	
821.06	5612.1	
821.23	5044.1	
821.4	4411.3	
821.58	4336.9	
821.75	6162.3	
821.92	5434.6	
822.09	3534.8	
822.27	3661.8	
822.44	5347.9	
822.61	5198.4	
822.79	3594.9	
822.96	6769.9	
823.13	5889.3	
823.3	5012.7	
823.48	4126	
823.65	3752.6	
823.82	6012.2	
823.99	4798.4	
824.17	5228.5	
824.34	3766.9	
824.51	7034.1	
824.68	5407.3	
824.86	3903.4	
825.03	4378.6	
825.2	5267.4	
825.37	6439.5	
825.55	3881.6	
825.72	4359.4	
825.89	7126.2	
826.06	6533.7	
826.24	4283	
826.41	4241.3	
826.58	6420.4	
826.75	5590.3	
826.92	3261.7	
827.1	3705.5	
827.27	8791.2	
827.44	7096.2	
827.61	3992.9	
827.79	4855.7	
827.96	4975.9	
828.13	5427.1	
828.3	4117.1	
828.47	3519.1	
828.65	5498.8	
828.82	5458.5	
828.99	5488.6	
829.16	4743.8	
829.34	5950	
829.51	5827.8	
829.68	4392.9	
829.85	4511	
830.02	6138.4	
830.2	5959.6	
830.37	3347.7	
830.54	5299.5	
830.71	6759.7	
830.88	5258.5	
831.05	3386	
831.23	3972.4	
831.4	6481.8	
831.57	7301	
831.74	3972.4	
831.91	3608.5	
832.09	5403.2	
832.26	5917.9	
832.43	4153.3	
832.6	4696	
832.77	5520.6	
832.94	6287.3	
833.12	3337.5	
833.29	4062.5	
833.46	5749.3	
833.63	7574.1	
833.8	4526	
833.97	4117.1	
834.15	5900.9	
834.32	5687.2	
834.49	4307.6	
834.66	4456.4	
834.83	6167.8	
835	5012.7	
835.17	3997.6	
835.35	4009.9	
835.52	5802.6	
835.69	5709.7	
835.86	4289.1	
836.03	3511.6	
836.2	5884.5	
836.37	5468.8	
836.55	4172.4	
836.72	3884.3	
836.89	5477.6	
837.06	5997.8	
837.23	4230.4	
837.4	4607.2	
837.57	6765.8	
837.75	7473	
837.92	3761.4	
838.09	4076.8	
838.26	5423.7	
838.43	6195.8	
838.6	4354.7	
838.77	3902.1	
838.94	7113.3	
839.11	6785.6	
839.29	4152.6	
839.46	3274.7	
839.63	5857.9	
839.8	5642.2	
839.97	4016.1	
840.14	4007.2	
840.31	5597.8	
840.48	5909.8	
840.65	3300	
840.82	4049.5	
841	5847	
841.17	5872.9	
841.34	3780.6	
841.51	3792.2	
841.68	5823.7	
841.85	5556.8	
842.02	3850.9	
842.19	3182.5	
842.36	5614.2	
842.53	5586.2	
842.7	3720.5	
842.87	4558.8	
843.05	7443.7	
843.22	5536.3	
843.39	3487.7	
843.56	3790.8	
843.73	5292.6	
843.9	5943.9	
844.07	6040.1	
844.24	5039.4	
844.41	8811	
844.58	5082.4	
844.75	3587.4	
844.92	3885	
845.09	5896.1	
845.26	5881.1	
845.43	3642.7	
845.6	3889.1	
845.77	5893.4	
845.94	5585.5	
846.12	4080.9	
846.29	4373.8	
846.46	6094.1	
846.63	5872.2	
846.8	3665.2	
846.97	4357.4	
847.14	6367.8	
847.31	5752.1	
847.48	4152.6	
847.65	4569.7	
847.82	6202.6	
847.99	6193.1	
848.16	4868.7	
848.33	4598.4	
848.5	5412.1	
848.67	6410.1	
848.84	3668.6	
849.01	3833.8	
849.18	5275.6	
849.35	4940.4	
849.52	4590.9	
849.69	3645.4	
849.86	6109.1	
850.03	6318	
850.2	3631	
850.37	4519.9	
850.54	6285.9	
850.71	5548.6	
850.88	4410.6	
851.05	3623.5	
851.22	5765	
851.39	6478.4	
851.56	3424.2	
851.73	4245.4	
851.9	5132.2	
852.07	6109.8	
852.24	4027.7	
852.41	3622.9	
852.58	5662.6	
852.75	5240.1	
852.92	4085	
853.09	3529.3	
853.26	5453.1	
853.43	6334.4	
853.6	3672	
853.77	3104	
853.94	6459.3	
854.11	5870.8	
854.28	5430.5	
854.44	3956	
854.61	6782.2	
854.78	6205.3	
854.95	3631.7	
855.12	4599.1	
855.29	4756.7	
855.46	6522.1	
855.63	3576.4	
855.8	5128.1	
855.97	5381.4	
856.14	6213.5	
856.31	5197.7	
856.48	4025.6	
856.65	5364.3	
856.82	5029.1	
856.99	3582.6	
857.16	3921.9	
857.33	7191.1	
857.49	5472.2	
857.66	3979.2	
857.83	4276.2	
858	5453.1	
858.17	5730.9	
858.34	3491.1	
858.51	3630.4	
858.68	6556.9	
858.85	6677.1	
859.02	4240	
859.19	4546.5	
859.36	5120.6	
859.52	5187.5	
859.69	3687.7	
859.86	4303.5	
860.03	5158.2	
860.2	6427.2	
860.37	3296.5	
860.54	3696.6	
860.71	6090	
860.88	6549.4	
861.05	4130.1	
861.21	4616.8	
861.38	6543.9	
861.55	5040.1	
861.72	3327.3	
861.89	4089.8	
862.06	6215.6	
862.23	6716.7	
862.4	3553.9	
862.56	3801	
862.73	5982.8	
862.9	5583.4	
863.07	4326	
863.24	3269.2	
863.41	5027.8	
863.58	5128.1	
863.75	3709.6	
863.91	4194.2	
864.08	6475	
864.25	6002.6	
864.42	4598.4	
864.59	5117.2	
864.76	6783.6	
864.93	5140.4	
865.09	3586.7	
865.26	3904.8	
865.43	6378.7	
865.6	6734.4	
865.77	3168.9	
865.94	3581.2	
866.1	6447	
866.27	6146	
866.44	5583.4	
866.61	3435.8	
866.78	5517.9	
866.95	5950	
867.11	3499.3	
867.28	3222.1	
867.45	6223.1	
867.62	5165	
867.79	4252.3	
867.96	3608.5	
868.12	5103.5	
868.29	6111.1	
868.46	3139.5	
868.63	4870.8	
868.8	6307.1	
868.97	6081.8	
869.13	3812	
869.3	3772.4	
869.47	5953.4	
869.64	6153.5	
869.81	3682.2	
869.97	3650.2	
870.14	5793	
870.31	6589.7	
870.48	3589.4	
870.65	4601.1	
870.81	5466.7	
870.98	5346.6	
871.15	4088.4	
871.32	3816.7	
871.48	5898.2	
871.65	6602.7	
871.82	3622.9	
871.99	4017.4	
872.16	7061.4	
872.32	6434	
872.49	3670.6	
872.66	3693.2	
872.83	6040.1	
872.99	5268.1	
873.16	4160.1	
873.33	3603.1	
873.5	5722.7	
873.67	5715.9	
873.83	3851.5	
874	4883.7	
874.17	5847	
874.34	6989.7	
874.5	4693.3	
874.67	4571.7	
874.84	6548.7	
875.01	5145.9	
875.17	5128.1	
875.34	3653.6	
875.51	5723.4	
875.68	6931.7	
875.84	4397	
876.01	5388.9	
876.18	6020.3	
876.34	6016.9	
876.51	3670	
876.68	3552.5	
876.85	5522	
877.01	6397.2	
877.18	5233.9	
877.35	3601	
877.52	5614.8	
877.68	5031.9	
877.85	3545.7	
878.02	3593.5	
878.18	5659.2	
878.35	5272.2	
878.52	2899.9	
878.69	4022.2	
878.85	6083.8	
879.02	6010.1	
879.19	5177.3	
879.35	3960.8	
879.52	5945.3	
879.69	6232.7	
879.86	3103.4	
880.02	4080.9	
880.19	5526.1	
880.36	6887.3	
880.52	4205.2	
880.69	4315.8	
880.86	6152.1	
881.02	6257.2	
881.19	3974.4	
881.36	3969	
881.52	5994.4	
881.69	5302.9	
881.86	3952.6	
882.02	3831.7	
882.19	6320.7	
882.36	7455.3	
882.52	3661.1	
882.69	5159.5	
882.86	5774.6	
883.02	5623	
883.19	4422.2	
883.36	4210.6	
883.52	6066.8	
883.69	7066.9	
883.86	3657.7	
884.02	3265.1	
884.19	6061.3	
884.36	5570.5	
884.52	4094.6	
884.69	3846.1	
884.86	5350.7	
885.02	6731.7	
885.19	4068.6	
885.36	4222.9	
885.52	5631.9	
885.69	5756.2	
885.86	5275.6	
886.02	4656.4	
886.19	6096.8	
886.35	5536.3	
886.52	4022.9	
886.69	5083.1	
886.85	5158.2	
887.02	6483.9	
887.19	6483.9	
887.35	6483.9	
887.52	6483.9	
887.68	6483.9	
887.85	6483.9	
888.02	6483.9	
888.18	6483.9	
888.35	6483.9	
888.51	6483.9	
888.68	6483.9	
888.85	6483.9	
889.01	6483.9	
889.18	6483.9	
889.35	6483.9	
889.51	6483.9	
889.68	6483.9	
889.84	6483.9	
890.01	6483.9	
890.17	6483.9	
890.34	6483.9	
890.51	6483.9	
890.67	6483.9	
890.84	6483.9	
891	6483.9	
891.17	6483.9	
891.34	6483.9	
891.5	6483.9	
891.67	6483.9	
891.83	6483.9	
892	6483.9	
892.16	6483.9	
892.33	6483.9	
892.5	6483.9	
892.66	6483.9	
892.83	6483.9	
892.99	6483.9	
893.16	6483.9	
893.32	6483.9	
893.49	6483.9	
893.65	6483.9	
893.82	6483.9	
893.99	6483.9	
894.15	6483.9	
894.32	6483.9	
894.48	6483.9	
894.65	6483.9	
894.81	6483.9	
894.98	6483.9	
895.14	6483.9	
895.31	6483.9	
895.47	6483.9	
895.64	6483.9	
895.81	6483.9	
895.97	6483.9	
896.14	6483.9	
896.3	6483.9	
896.47	6483.9	
896.63	6483.9	
896.8	6483.9	
896.96	6483.9	
897.13	6483.9	
897.29	6483.9	
897.46	6483.9	
897.62	6483.9	
897.79	6483.9	
897.95	6483.9	
898.12	6483.9	
898.28	6483.9	
898.45	6483.9	
898.61	6483.9	
898.78	6483.9	
898.94	6483.9	
899.11	6483.9	
899.27	6483.9	
899.44	6483.9	
899.6	6483.9	
899.77	6483.9	
899.93	6483.9	
900.1	6483.9	
900.26	6483.9	
900.43	6483.9	
900.59	6483.9	
900.76	6483.9	
900.92	6483.9	
901.09	6483.9	
901.25	6483.9	
901.42	6483.9	
901.58	6483.9	
901.75	6483.9	
901.91	6483.9	
902.07	6483.9	
902.24	6483.9	
902.4	6483.9	
902.57	6483.9	
902.73	6483.9	
902.9	6483.9	
903.06	6483.9	
903.23	6483.9	
903.39	6483.9	
903.56	6483.9	
903.72	6483.9	
903.88	6483.9	
904.05	6483.9	
904.21	6483.9	
904.38	6483.9	
904.54	6483.9	
904.71	6483.9	
904.87	6483.9	
905.03	6483.9	
905.2	6483.9	
905.36	6483.9	
905.53	6483.9	
905.69	6483.9	
905.86	6483.9	
906.02	6483.9	
906.18	6483.9	
906.35	6483.9	
906.51	6483.9	
906.68	6483.9	
906.84	6483.9	
907.01	6483.9	
907.17	6483.9	
907.33	6483.9	
907.5	6483.9	
907.66	6483.9	
907.83	6483.9	
907.99	6483.9	
908.15	6483.9	
908.32	6483.9	
908.48	6483.9	
908.65	6483.9	
908.81	6483.9	
908.97	6483.9	
909.14	6483.9	
909.3	6483.9	
909.47	6483.9	
909.63	6483.9	
909.79	6483.9	
909.96	6483.9	
910.12	6483.9	
910.28	6483.9	
910.45	6483.9	
910.61	6483.9	
910.78	6483.9	
910.94	6483.9	
911.1	6483.9	
911.27	6483.9	
911.43	6483.9	
911.59	6483.9	
911.76	6483.9	
911.92	6483.9	
912.08	6483.9	
912.25	6483.9	
912.41	6483.9	
912.57	6483.9	
912.74	6483.9	
912.9	6483.9	
913.07	6483.9	
913.23	6483.9	
913.39	6483.9	
913.56	6483.9	
913.72	6483.9	
913.88	6483.9	
914.05	6483.9	
914.21	6483.9	
914.37	6483.9	
914.54	6483.9	
914.7	6483.9	
914.86	6483.9	
915.03	6483.9	
915.19	6483.9	
