Wavelength	Intensities	
nm	a.u.	
179.22	1881.6	
179.44	1877	
179.65	1886.2	
179.86	1867.7	
180.08	1882.1	
180.29	4747.2	
180.51	3421.5	
180.72	5472.2	
180.94	6408.8	
181.15	3160	
181.37	3110.2	
181.58	5351.3	
181.79	5608.7	
182.01	3242.6	
182.22	3469.9	
182.44	5625.8	
182.65	4741.7	
182.87	4311.7	
183.08	3833.8	
183.29	5928.2	
183.51	4872.1	
183.72	3500.7	
183.94	5102.2	
184.15	5266.7	
184.37	5276.3	
184.58	3123.2	
184.79	4244.1	
185.01	4889.9	
185.22	5610.1	
185.44	4482.3	
185.65	3756	
185.86	5173.9	
186.08	4792.2	
186.29	2997.5	
186.51	3280.2	
186.72	4930.1	
186.94	5793	
187.15	3727.3	
187.36	3861.1	
187.58	7470.3	
187.79	5359.5	
188.01	4031.1	
188.22	6221	
188.43	6406	
188.65	5569.8	
188.86	3265.1	
189.08	3852.2	
189.29	5085.1	
189.5	5054.4	
189.72	3533.4	
189.93	3682.2	
190.15	5826.5	
190.36	6902.3	
190.57	3994.2	
190.79	3833.8	
191	5926.8	
191.22	5830.6	
191.43	3943	
191.64	3217.4	
191.86	6123.4	
192.07	5799.2	
192.29	3379.1	
192.5	3590.8	
192.71	5826.5	
192.93	4984.1	
193.14	3538.9	
193.35	3624.9	
193.57	5083.7	
193.78	5726.1	
194	2914.9	
194.21	3494.5	
194.42	4854.4	
194.64	5319.9	
194.85	3828.3	
195.07	4529.4	
195.28	5339.7	
195.49	4614.1	
195.71	4761.5	
195.92	3387.3	
196.13	5509	
196.35	5540.4	
196.56	5042.8	
196.78	3908.2	
196.99	6869.6	
197.2	6381.5	
197.42	4459.1	
197.63	3945.8	
197.84	4790.2	
198.06	5465.3	
198.27	3601	
198.48	4759.5	
198.7	5096	
198.91	5140.4	
199.13	3930.1	
199.34	3885	
199.55	5655.1	
199.77	4618.2	
199.98	3424.2	
200.19	3952.6	
200.41	5150	
200.62	4923.3	
200.83	4132.8	
201.05	4319.2	
201.26	5202.5	
201.47	4879.6	
201.69	3454.2	
201.9	3345.7	
202.11	5268.7	
202.33	6235.4	
202.54	3697.3	
202.76	4160.8	
202.97	5352	
203.18	5401.2	
203.4	4027	
203.61	4020.8	
203.82	5329.5	
204.04	4966.3	
204.25	3938.2	
204.46	3813.3	
204.68	5354.8	
204.89	5494.7	
205.1	3799	
205.32	3317	
205.53	5672.9	
205.74	5757.5	
205.96	2826.9	
206.17	4036.5	
206.38	5618.9	
206.6	5803.3	
206.81	4429.1	
207.02	3680.2	
207.24	5519.3	
207.45	5937.7	
207.66	3691.8	
207.88	3186	
208.09	5473.5	
208.3	5287.9	
208.52	3453.6	
208.73	3744.4	
208.94	5248.3	
209.15	5934.3	
209.37	3729.4	
209.58	3920.5	
209.79	5776.6	
210.01	5099.4	
210.22	3007.1	
210.43	3195.5	
210.65	5270.1	
210.86	5771.9	
211.07	3746.4	
211.29	3422.8	
211.5	5578.7	
211.71	5205.9	
211.93	3439.2	
212.14	3415.3	
212.35	5227.1	
212.56	5446.2	
212.78	3956.7	
212.99	3212.6	
213.2	6165.1	
213.42	5050.3	
213.63	3513.6	
213.84	3753.2	
214.06	4747.9	
214.27	4789.5	
214.48	3708.2	
214.69	3930.1	
214.91	5929.6	
215.12	6041.5	
215.33	4043.4	
215.55	4411.3	
215.76	6491.4	
215.97	5573.2	
216.18	3847.5	
216.4	3853.6	
216.61	4959.5	
216.82	5760.3	
217.04	3486.3	
217.25	3584.6	
217.46	5842.9	
217.67	5634.6	
217.89	3051.5	
218.1	3195.5	
218.31	5328.8	
218.53	5467.4	
218.74	3603.1	
218.95	3455.6	
219.16	5225.1	
219.38	6113.9	
219.59	3529.3	
219.8	4152.6	
220.01	6722.1	
220.23	5281	
220.44	4569	
220.65	3375.1	
220.87	5360.9	
221.08	5900.9	
221.29	3194.1	
221.5	4235.9	
221.72	7202.7	
221.93	4987.5	
222.14	3956	
222.35	4596.3	
222.57	5315.8	
222.78	5637.4	
222.99	3764.8	
223.2	4050.9	
223.42	5587.5	
223.63	5704.3	
223.84	2846.7	
224.05	2841.9	
224.27	6764.4	
224.48	6121.4	
224.69	4670.7	
224.9	4016.7	
225.12	5522.7	
225.33	5223	
225.54	3152.5	
225.75	3483.6	
225.97	4920.6	
226.18	5137	
226.39	3803.8	
226.6	3485	
226.82	5100.8	
227.03	4911.7	
227.24	3897.3	
227.45	3281.5	
227.67	5658.5	
227.88	6165.1	
228.09	4378.6	
228.3	4348.5	
228.52	5644.9	
228.73	5251.7	
228.94	3553.2	
229.15	3259.7	
229.36	5238	
229.58	5086.5	
229.79	3665.2	
230	4295.3	
230.21	6305	
230.43	5345.9	
230.64	3879.5	
230.85	4089.1	
231.06	5656.5	
231.28	5690.6	
231.49	3258.3	
231.7	3793.5	
231.91	5610.8	
232.12	5332.9	
232.34	3305.4	
232.55	3812	
232.76	5878.4	
232.97	5486.5	
233.18	3404.4	
233.4	3895.2	
233.61	5488.6	
233.82	5068	
234.03	3622.2	
234.25	3532.1	
234.46	7215.7	
234.67	5322	
234.88	3932.1	
235.09	3556.6	
235.31	5547.9	
235.52	5117.9	
235.73	3880.9	
235.94	3262.4	
236.15	5014.8	
236.37	6407.4	
236.58	3422.2	
236.79	3768.3	
237	5584.1	
237.21	4851	
237.43	4000.4	
237.64	3181.2	
237.85	9429.5	
238.06	4923.3	
238.27	4109.6	
238.48	3304.1	
238.7	5603.9	
238.91	5102.2	
239.12	3666.5	
239.33	3781.9	
239.54	5082.4	
239.76	5197.7	
239.97	3736.2	
240.18	3731.4	
240.39	6594.5	
240.6	5500.2	
240.82	3895.2	
241.03	3222.1	
241.24	5257.1	
241.45	6182.8	
241.66	3383.2	
241.87	4058.4	
242.09	5989.6	
242.3	6370.5	
242.51	4124.6	
242.72	3776.5	
242.93	5715.2	
243.14	5222.3	
243.36	4327.4	
243.57	4689.8	
243.78	6057.9	
243.99	5679	
244.2	3751.9	
244.41	3429	
244.63	4881	
244.84	5580.7	
245.05	4007.2	
245.26	3792.2	
245.47	5577.3	
245.68	5817.6	
245.9	5028.4	
246.11	3906.8	
246.32	5161.6	
246.53	5443.5	
246.74	6041.5	
246.95	3212.6	
247.16	4803.9	
247.38	5225.1	
247.59	3186	
247.8	3777.1	
248.01	4999.8	
248.22	5180	
248.43	3408.5	
248.64	3677.5	
248.86	4721.9	
249.07	5034.6	
249.28	3345.7	
249.49	3833.8	
249.7	5756.2	
249.91	5988.9	
250.12	3117.7	
250.34	3205.1	
250.55	5414.8	
250.76	5240.8	
250.97	3930.7	
251.18	3932.1	
251.39	5913.9	
251.6	5455.8	
251.81	3937.6	
252.03	3928	
252.24	5043.5	
252.45	5758.2	
252.66	3297.2	
252.87	4154	
253.08	5328.1	
253.29	6913.9	
253.5	3305.4	
253.72	4561.5	
253.93	5159.5	
254.14	6195.8	
254.35	3546.4	
254.56	3708.9	
254.77	5497.4	
254.98	4888.5	
255.19	3511.6	
255.41	4520.5	
255.62	5390.9	
255.83	5907	
256.04	4083.6	
256.25	3931.4	
256.46	6476.4	
256.67	4964.3	
256.88	3891.8	
257.09	4307.6	
257.31	4955.4	
257.52	4984.1	
257.73	4851.6	
257.94	3579.8	
258.15	5132.9	
258.36	5302.9	
258.57	4487.8	
258.78	2855.6	
258.99	5778	
259.2	5160.9	
259.41	3607.8	
259.63	3729.4	
259.84	6066.8	
260.05	6498.9	
260.26	4749.9	
260.47	3494.5	
260.68	5804.6	
260.89	5191.6	
261.1	4349.9	
261.31	3423.5	
261.52	5833.3	
261.73	6268.8	
261.95	4572.4	
262.16	4024.3	
262.37	5975.3	
262.58	6071.5	
262.79	4607.9	
263	3619.4	
263.21	5285.8	
263.42	5188.9	
263.63	3680.9	
263.84	3674.1	
264.05	5833.3	
264.26	6161.7	
264.47	4453	
264.69	4042	
264.9	5929.6	
265.11	5471.5	
265.32	3499.3	
265.53	3548.4	
265.74	5421	
265.95	4745.1	
266.16	3855	
266.37	4176.5	
266.58	5413.5	
266.79	5085.1	
267	3622.2	
267.21	3265.8	
267.42	4857.8	
267.63	5280.3	
267.84	3733.4	
268.06	3209.8	
268.27	5717.9	
268.48	5954.8	
268.69	3622.2	
268.9	4323.3	
269.11	5915.2	
269.32	4819.6	
269.53	3717.1	
269.74	3469.9	
269.95	5559.6	
270.16	4702.1	
270.37	3753.2	
270.58	4365.6	
270.79	5135.6	
271	5756.8	
271.21	4003.8	
271.42	3751.2	
271.63	5434.6	
271.84	4987.5	
272.05	3056.3	
272.26	3390.8	
272.47	5304.2	
272.68	5457.2	
272.89	3633.8	
273.11	4153.3	
273.32	5132.2	
273.53	6180.1	
273.74	4050.2	
273.95	3983.3	
274.16	5860.6	
274.37	5288.5	
274.58	4196.3	
274.79	3280.8	
275	5467.4	
275.21	5881.8	
275.42	4941.1	
275.63	4213.4	
275.84	5552	
276.05	6905.1	
276.26	3956	
276.47	3713	
276.68	5134.3	
276.89	6236.7	
277.1	4268	
277.31	3313.6	
277.52	5534.3	
277.73	5717.2	
277.94	3313.6	
278.15	3655.6	
278.36	5501.5	
278.57	4954.7	
278.78	3639.2	
278.99	4076.8	
279.2	4975.9	
279.41	4881.7	
279.62	4719.9	
279.83	3337.5	
280.04	6432.7	
280.25	4969.1	
280.46	4693.3	
280.67	3727.3	
280.88	4946.5	
281.09	5935	
281.3	3900.7	
281.51	5054.4	
281.72	5065.3	
281.93	5765.7	
282.14	3482.2	
282.35	3780.6	
282.56	5786.9	
282.77	5737.7	
282.98	3634.5	
283.19	4455	
283.4	7086.7	
283.61	5240.8	
283.82	3326.6	
284.03	4624.3	
284.24	5461.2	
284.45	5929.6	
284.66	4657.8	
284.87	4470.7	
285.08	5856.5	
285.29	5951.4	
285.5	3216	
285.71	3702	
285.92	5856.5	
286.12	6458.6	
286.33	4558.8	
286.54	3661.8	
286.75	5720	
286.96	5240.1	
287.17	3385.3	
287.38	4526	
287.59	4945.8	
287.8	4872.8	
288.01	3725.9	
288.22	4276.8	
288.43	5771.2	
288.64	4856.4	
288.85	4322.6	
289.06	4151.2	
289.27	5694	
289.48	6216.3	
289.69	4594.3	
289.9	4212.7	
290.11	5952.8	
290.32	5070.8	
290.53	4445.5	
290.74	4059.1	
290.94	5722.7	
291.15	5808.7	
291.36	3590.8	
291.57	4203.1	
291.78	5031.9	
291.99	4723.3	
292.2	3367.5	
292.41	4093.2	
292.62	5841.5	
292.83	5563	
293.04	4952	
293.25	3487.7	
293.46	5064.6	
293.67	5856.5	
293.88	3538.9	
294.09	3417.4	
294.29	4864.6	
294.5	5442.8	
294.71	3775.8	
294.92	3605.1	
295.13	5105.6	
295.34	6326.9	
295.55	3205.1	
295.76	3302	
295.97	5766.4	
296.18	6374.6	
296.39	3332	
296.6	3501.3	
296.81	5378	
297.01	5718.6	
297.22	3671.3	
297.43	3519.1	
297.64	5014.1	
297.85	4952	
298.06	2931.3	
298.27	3147	
298.48	5305.6	
298.69	5031.9	
298.9	3811.3	
299.11	3475.4	
299.31	4835.3	
299.52	4874.2	
299.73	4126	
299.94	4046.1	
300.15	5307.7	
300.36	4937.7	
300.57	4038.6	
300.78	3984	
300.99	5212.8	
301.2	5363.6	
301.4	3467.9	
301.61	3848.8	
301.82	5573.2	
302.03	5694.7	
302.24	4304.1	
302.45	3357.3	
302.66	5629.2	
302.87	5992.4	
303.08	3546.4	
303.29	4861.2	
303.49	5028.4	
303.7	5331.5	
303.91	3153.2	
304.12	4570.4	
304.33	4845.5	
304.54	5492.7	
304.75	3542.3	
304.96	3452.2	
305.16	5642.8	
305.37	6347.3	
305.58	3083.6	
305.79	3226.2	
306	5601.9	
306.21	4745.8	
306.42	3504.8	
306.63	5338.4	
306.83	5193	
307.04	5810.8	
307.25	3868.6	
307.46	3863.8	
307.67	4585.4	
307.88	5739.1	
308.09	3450.8	
308.29	3584.6	
308.5	5370.5	
308.71	5840.8	
308.92	3883.6	
309.13	3404.4	
309.34	5201.2	
309.55	5244.2	
309.75	4366.3	
309.96	4020.2	
310.17	5680.4	
310.38	4970.4	
310.59	4268.6	
310.8	3317.7	
311.01	5911.1	
311.21	5173.9	
311.42	3411.9	
311.63	3443.3	
311.84	5060.5	
312.05	5384.1	
312.26	3949.2	
312.46	4227.7	
312.67	5113.1	
312.88	4904.9	
313.09	3442.6	
313.3	3337.5	
313.51	6066.1	
313.71	6426.5	
313.92	3434.4	
314.13	3598.3	
314.34	5489.9	
314.55	5169.1	
314.76	4398.4	
314.96	3798.3	
315.17	5373.9	
315.38	5681.1	
315.59	3457	
315.8	3275.4	
316.01	6174.6	
316.21	6199.9	
316.42	3335.5	
316.63	3839.9	
316.84	5235.3	
317.05	5941.8	
317.26	4012.7	
317.46	3594.9	
317.67	5242.8	
317.88	5707	
318.09	4347.8	
318.3	3151.8	
318.5	5057.1	
318.71	5591	
318.92	5524.1	
319.13	4033.8	
319.34	5795.1	
319.54	5934.3	
319.75	3171.6	
319.96	3029.6	
320.17	5706.3	
320.38	5857.2	
320.58	3117	
320.79	3715.7	
321	5854.5	
321.21	5941.2	
321.42	3768.9	
321.62	3134.8	
321.83	4909	
322.04	5296.7	
322.25	3627	
322.46	3502.7	
322.66	5414.1	
322.87	5580	
323.08	4214	
323.29	3376.4	
323.5	6283.9	
323.7	4909	
323.91	4650.3	
324.12	4178.5	
324.33	5361.6	
324.53	5629.9	
324.74	4003.1	
324.95	4218.1	
325.16	4756.1	
325.37	5136.3	
325.57	3474.7	
325.78	3549.1	
325.99	5374.6	
326.2	4857.1	
326.4	4872.8	
326.61	3169.6	
326.82	5218.9	
327.03	5421	
327.24	4816.8	
327.44	4552.6	
327.65	5551.4	
327.86	4524	
328.07	4035.9	
328.27	3254.2	
328.48	5991	
328.69	4911.7	
328.9	4934.9	
329.1	3661.8	
329.31	5197.1	
329.52	6098.9	
329.73	3427.6	
329.93	3895.2	
330.14	5327.4	
330.35	5524.7	
330.56	5596.4	
330.76	4169	
330.97	5193	
331.18	5457.2	
331.39	3830.4	
331.59	3152.5	
331.8	5831.9	
332.01	5982.1	
332.22	3570.3	
332.42	4016.1	
332.63	5424.4	
332.84	5038.7	
333.05	3812	
333.25	3503.4	
333.46	5152.7	
333.67	5288.5	
333.88	3567.6	
334.08	4012.7	
334.29	7015	
334.5	5942.5	
334.7	3351.8	
334.91	4902.8	
335.12	4876.9	
335.33	5737.7	
335.53	3811.3	
335.74	5574.6	
335.95	5143.8	
336.16	4962.9	
336.36	3809.9	
336.57	4328	
336.78	4874.8	
336.98	5898.1	
337.19	4685.1	
337.4	3754.6	
337.61	6417	
337.81	4911	
338.02	3528	
338.23	4521.9	
338.43	6040.1	
338.64	5025	
338.85	3466.5	
339.05	4524.6	
339.26	6128.9	
339.47	4816.1	
339.68	3441.3	
339.88	5119.9	
340.09	5567.1	
340.3	5790.3	
340.5	4052.2	
340.71	3131.3	
340.92	4879.6	
341.13	5947.3	
341.33	3368.2	
341.54	3986.7	
341.75	5583.4	
341.95	5144.5	
342.16	3862.5	
342.37	4173.8	
342.57	4917.9	
342.78	5253	
342.99	4256.4	
343.19	3108.1	
343.4	5704.3	
343.61	5594.4	
343.81	3645.4	
344.02	3393.5	
344.23	5685.8	
344.43	6126.2	
344.64	4229.1	
344.85	4192.9	
345.06	5532.2	
345.26	5868.8	
345.47	3949.2	
345.68	4644.1	
345.88	4734.9	
346.09	5779.4	
346.3	4059.1	
346.5	3061.7	
346.71	5299.5	
346.92	5056.4	
347.12	3213.3	
347.33	3947.1	
347.54	5899.5	
347.74	6186.9	
347.95	3925.3	
348.16	2998.2	
348.36	5164.3	
348.57	4930.1	
348.78	3915	
348.98	4269.3	
349.19	5242.1	
349.39	4797.7	
349.6	3184.6	
349.81	3514.3	
350.01	5610.8	
350.22	5083.7	
350.43	3836.5	
350.63	4545.1	
350.84	5393	
351.05	5156.8	
351.25	3497.9	
351.46	3165.5	
351.67	5794.4	
351.87	5008	
352.08	3730.7	
352.29	4271.4	
352.49	5781.4	
352.7	5455.1	
352.9	3373.7	
353.11	4246.8	
353.32	6382.2	
353.52	5139.7	
353.73	3380.5	
353.94	4286.4	
354.14	5684.5	
354.35	5440.8	
354.55	3496.6	
354.76	3837.9	
354.97	5565	
355.17	5403.9	
355.38	3324.5	
355.59	4536.3	
355.79	5050.3	
356	5492	
356.2	3854.3	
356.41	3360.7	
356.62	4832.5	
356.82	5319.3	
357.03	4117.8	
357.24	3693.2	
357.44	5101.5	
357.65	5188.2	
357.85	4958.1	
358.06	3928.7	
358.27	4855.1	
358.47	5109.7	
358.68	3277.4	
358.88	4158.1	
359.09	5608.7	
359.3	6030.6	
359.5	4804.5	
359.71	4362.9	
359.91	6363	
360.12	5793	
360.33	4118.5	
360.53	4572.4	
360.74	5196.4	
360.94	5210	
361.15	4364.2	
361.36	3615.3	
361.56	5927.5	
361.77	5365.7	
361.97	4814.1	
362.18	3846.8	
362.38	5918.6	
362.59	5046.2	
362.8	3555.3	
363	3438.5	
363.21	4887.1	
363.41	5511.1	
363.62	4068.6	
363.83	5134.3	
364.03	5586.9	
364.24	6544.6	
364.44	5169.8	
364.65	5156.8	
364.85	5397.1	
365.06	5044.1	
365.27	3804.4	
365.47	3908.2	
365.68	6445	
365.88	5371.1	
366.09	4226.3	
366.29	3872.7	
366.5	5644.2	
366.71	6049.7	
366.91	5146.5	
367.12	4354	
367.32	6698.2	
367.53	5976.7	
367.73	4368.3	
367.94	5274.9	
368.14	5847	
368.35	6795.2	
368.56	4304.8	
368.76	3716.4	
368.97	6004.6	
369.17	7615	
369.38	3799.7	
369.58	4075.5	
369.79	5051.7	
369.99	6345.3	
370.2	5046.9	
370.4	4181.3	
370.61	5702.2	
370.82	6857.3	
371.02	4052.2	
371.23	3459	
371.43	5040.7	
371.64	6384.2	
371.84	4270.7	
372.05	5307.7	
372.25	7516	
372.46	6085.9	
372.66	4228.4	
372.87	4102.8	
373.07	6201.2	
373.28	7650.5	
373.48	5153.4	
373.69	4922.6	
373.9	5677.7	
374.1	5644.9	
374.31	5229.8	
374.51	4734.2	
374.72	6546	
374.92	5418.9	
375.13	5451.7	
375.33	4518.5	
375.54	6172.6	
375.74	5614.2	
375.95	4712.4	
376.15	5922.7	
376.36	6199.9	
376.56	6034.7	
376.77	4834.6	
376.97	5205.3	
377.18	7197.2	
377.38	6345.3	
377.59	5549.3	
377.79	4381.3	
378	6184.2	
378.2	6597.9	
378.41	4513	
378.61	4381.3	
378.82	6642.2	
379.02	5854.5	
379.23	4545.8	
379.43	5638.1	
379.64	6767.9	
379.84	6391.7	
380.05	4450.2	
380.25	4418.8	
380.46	6451.1	
380.66	6079.1	
380.87	5747.3	
381.07	6113.2	
381.28	7144.7	
381.48	6462.7	
381.69	4502.8	
381.89	4486.4	
382.1	5360.2	
382.3	6525.5	
382.51	5535	
382.71	6350.8	
382.91	6457.2	
383.12	6894.1	
383.32	4827.1	
383.53	5023	
383.73	6257.9	
383.94	6113.9	
384.14	4901.5	
384.35	4078.2	
384.55	5984.8	
384.76	6432	
384.96	4744.5	
385.17	4995	
385.37	6458.6	
385.58	5645.6	
385.78	5042.8	
385.98	3962.1	
386.19	5874.3	
386.39	6251.1	
386.6	4582	
386.8	4840.7	
387.01	6485.9	
387.21	6497.5	
387.42	5195	
387.62	5799.2	
387.83	5821.7	
388.03	6488.6	
388.23	4941.7	
388.44	5629.9	
388.64	5537.7	
388.85	5809.4	
389.05	5351.3	
389.26	5984.2	
389.46	7606.8	
389.67	6993.8	
389.87	5383.4	
390.07	5371.1	
390.28	6237.4	
390.48	5843.5	
390.69	4620.9	
390.89	4915.8	
391.1	6024.4	
391.3	6958.3	
391.5	6096.1	
391.71	6563.7	
391.91	6709.1	
392.12	7761.8	
392.32	6201.2	
392.53	5401.2	
392.73	6146.6	
392.93	6228.6	
393.14	5026.4	
393.34	5807.4	
393.55	6621.8	
393.75	6238.1	
393.95	4973.8	
394.16	4925.4	
394.36	5980.1	
394.57	6669.6	
394.77	4534.9	
394.98	4912.4	
395.18	6075.6	
395.38	6180.8	
395.59	5924.8	
395.79	4951.3	
396	6259.3	
396.2	6817	
396.4	5829.2	
396.61	5708.4	
396.81	7043.6	
397.02	6347.3	
397.22	6132.3	
397.42	6139.1	
397.63	7113.3	
397.83	6374.6	
398.04	5009.3	
398.24	5594.4	
398.44	6896.2	
398.65	5960.3	
398.85	5020.3	
399.05	5079.6	
399.26	6383.5	
399.46	8146.8	
399.67	5485.1	
399.87	5241.4	
400.07	6879.8	
400.28	7215.7	
400.48	5331.5	
400.69	6456.6	
400.89	7528.3	
401.09	7789.8	
401.3	5339.1	
401.5	6449.7	
401.7	8162.5	
401.91	8410.3	
402.11	5673.6	
402.32	5793.7	
402.52	7415.7	
402.72	7204.8	
402.93	5949.3	
403.13	4704.2	
403.33	7998.7	
403.54	6533	
403.74	5428.5	
403.94	6270.9	
404.15	6641.6	
404.35	7881.3	
404.56	5376.6	
404.76	7212.3	
404.96	7253.9	
405.17	7172.7	
405.37	6769.9	
405.57	6124.1	
405.78	7420.5	
405.98	6774	
406.18	5519.3	
406.39	6268.8	
406.59	7286.7	
406.79	6869.6	
407	5186.8	
407.2	5352.7	
407.4	7368.6	
407.61	7613.7	
407.81	5560.2	
408.01	7589.1	
408.22	6647.7	
408.42	8633.6	
408.62	6942.6	
408.83	6528.9	
409.03	7530.4	
409.23	7445.7	
409.44	6681.8	
409.64	7111.2	
409.84	8627.4	
410.05	8566.7	
410.25	6976.1	
410.45	6763.1	
410.66	8282	
410.86	10665	
411.06	7352.9	
411.27	7223.2	
411.47	10583	
411.67	8584.4	
411.88	7513.3	
412.08	7958.4	
412.28	9129.2	
412.49	9806.4	
412.69	7489.4	
412.89	7519.5	
413.09	9518.3	
413.3	9469.1	
413.5	7596.6	
413.7	7415	
413.91	8759.8	
414.11	9654.1	
414.31	7542.7	
414.52	8039.6	
414.72	9377	
414.92	9442.5	
415.12	7650.5	
415.33	8082.6	
415.53	9841.2	
415.73	10004	
415.94	8467	
416.14	7965.9	
416.34	8930.5	
416.55	8620.6	
416.75	9179.7	
416.95	8672.5	
417.15	9965.4	
417.36	10585	
417.56	9501.9	
417.76	8671.8	
417.97	10456	
418.17	10214	
418.37	8139.3	
418.57	8420.6	
418.78	9877.4	
418.98	9514.9	
419.18	9156.5	
419.38	8877.9	
419.59	9555.8	
419.79	9122.3	
419.99	8018.5	
420.2	8473.8	
420.4	10129	
420.6	10248	
420.8	8020.5	
421.01	8033.5	
421.21	10092	
421.41	10093	
421.61	8490.9	
421.82	8169.3	
422.02	9572.2	
422.22	10290	
422.42	8942.8	
422.63	8409	
422.83	9574.9	
423.03	10801	
423.23	8594	
423.44	7631.4	
423.64	9659.6	
423.84	9321.7	
424.04	7994.6	
424.25	7727.7	
424.45	10430	
424.65	10298	
424.85	7499.7	
425.06	8090.2	
425.26	10403	
425.46	9066.4	
425.66	8518.9	
425.87	8142.7	
426.07	10157	
426.27	9987.9	
426.47	8370.7	
426.67	7644.4	
426.88	10347	
427.08	9850.7	
427.28	8613.1	
427.48	7582.9	
427.69	8783.1	
427.89	9435.7	
428.09	8630.8	
428.29	7651.9	
428.5	10144	
428.7	9710.8	
428.9	7588.4	
429.1	8061.5	
429.3	9738.1	
429.51	10191	
429.71	7887.4	
429.91	8837	
430.11	10025	
430.31	10429	
430.52	8414.4	
430.72	8714.1	
430.92	10661	
431.12	10159	
431.32	8120.2	
431.53	8349.6	
431.73	9265.7	
431.93	10737	
432.13	8071	
432.33	7988.4	
432.54	9758.6	
432.74	10129	
432.94	8003.5	
433.14	8954.4	
433.34	10284	
433.55	9960.6	
433.75	9017.2	
433.95	10852	
434.15	10167	
434.35	9949.7	
434.56	8229.4	
434.76	8067.6	
434.96	10198	
435.16	10630	
435.36	8286.8	
435.56	9459.6	
435.77	10043	
435.97	10267	
436.17	10193	
436.37	9590	
436.57	10116	
436.78	10281	
436.98	10520	
437.18	10010	
437.38	10913	
437.58	10137	
437.78	10060	
437.99	8600.1	
438.19	10509	
438.39	11228	
438.59	8506.6	
438.79	7998	
438.99	11167	
439.2	10128	
439.4	8215.1	
439.6	8382.3	
439.8	10644	
440	11742	
440.2	9752.4	
440.4	9815.2	
440.61	11357	
440.81	11918	
441.01	9032.9	
441.21	10034	
441.41	12005	
441.61	11348	
441.81	10257	
442.02	11310	
442.22	12319	
442.42	11505	
442.62	9156.5	
442.82	9142.8	
443.02	11922	
443.22	11281	
443.43	9793.4	
443.63	9258.2	
443.83	11000	
444.03	11043	
444.23	10667	
444.43	10312	
444.63	11446	
444.83	12569	
445.04	9704.6	
445.24	10833	
445.44	11554	
445.64	11746	
445.84	10004	
446.04	10117	
446.24	10836	
446.44	11825	
446.65	9214.5	
446.85	9792	
447.05	10699	
447.25	11777	
447.45	9740.1	
447.65	9194	
447.85	11187	
448.05	10746	
448.25	10289	
448.46	10099	
448.66	11275	
448.86	11009	
449.06	9198.1	
449.26	10270	
449.46	11800	
449.66	10766	
449.86	10094	
450.06	9828.2	
450.26	11112	
450.47	11616	
450.67	10019	
450.87	10448	
451.07	11722	
451.27	11654	
451.47	9450.7	
451.67	10327	
451.87	11336	
452.07	12194	
452.27	9909.4	
452.47	9699.9	
452.67	11272	
452.88	11984	
453.08	8979.7	
453.28	11125	
453.48	12775	
453.68	11323	
453.88	9843.2	
454.08	9923.1	
454.28	12130	
454.48	11777	
454.68	10615	
454.88	11097	
455.08	12288	
455.28	12259	
455.48	9718.3	
455.68	10634	
455.89	12852	
456.09	12582	
456.29	10341	
456.49	10612	
456.69	12934	
456.89	12002	
457.09	11080	
457.29	11615	
457.49	12641	
457.69	12897	
457.89	11198	
458.09	10568	
458.29	12556	
458.49	13340	
458.69	11518	
458.89	11070	
459.09	13716	
459.29	13703	
459.49	11139	
459.69	11960	
459.9	13082	
460.1	12831	
460.3	10972	
460.5	10869	
460.7	13201	
460.9	12947	
461.1	10645	
461.3	12153	
461.5	14166	
461.7	13712	
461.9	11517	
462.1	11839	
462.3	13558	
462.5	14041	
462.7	11632	
462.9	11774	
463.1	15072	
463.3	14960	
463.5	12155	
463.7	13423	
463.9	14138	
464.1	14452	
464.3	12772	
464.5	12798	
464.7	14739	
464.9	14710	
465.1	14157	
465.3	13254	
465.5	14911	
465.7	15207	
465.9	13755	
466.1	13145	
466.3	15251	
466.5	14795	
466.7	14710	
466.9	13251	
467.1	15090	
467.3	16132	
467.5	14679	
467.7	13492	
467.9	16398	
468.1	17229	
468.3	14181	
468.5	14869	
468.7	15397	
468.9	15243	
469.1	13988	
469.3	14704	
469.5	17427	
469.7	15126	
469.9	14277	
470.1	13839	
470.3	15380	
470.5	15440	
470.7	15042	
470.9	13779	
471.1	15272	
471.3	15343	
471.5	13653	
471.69	15315	
471.89	14964	
472.09	14398	
472.29	14441	
472.49	14438	
472.69	14827	
472.89	15440	
473.09	13528	
473.29	13426	
473.49	14713	
473.69	14839	
473.89	14169	
474.09	13497	
474.29	16092	
474.49	15724	
474.69	14453	
474.89	13767	
475.09	14881	
475.29	14928	
475.49	12985	
475.69	13418	
475.88	16407	
476.08	15061	
476.28	13054	
476.48	13327	
476.68	15335	
476.88	15289	
477.08	13092	
477.28	13585	
477.48	14664	
477.68	15293	
477.88	13046	
478.08	13387	
478.28	15918	
478.48	14927	
478.67	13473	
478.87	12514	
479.07	15830	
479.27	14944	
479.47	13666	
479.67	13600	
479.87	15649	
480.07	16029	
480.27	12950	
480.47	14575	
480.67	15123	
480.87	15905	
481.06	13300	
481.26	14156	
481.46	15065	
481.66	15088	
481.86	13667	
482.06	14796	
482.26	14771	
482.46	15610	
482.66	13678	
482.86	13429	
483.05	15464	
483.25	14833	
483.45	16170	
483.65	13796	
483.85	15048	
484.05	15358	
484.25	14283	
484.45	14978	
484.65	16253	
484.84	16400	
485.04	13818	
485.24	13852	
485.44	16609	
485.64	15027	
485.84	13499	
486.04	14712	
486.24	15343	
486.44	15873	
486.63	13511	
486.83	14379	
487.03	15528	
487.23	15892	
487.43	13641	
487.63	16297	
487.83	16036	
488.02	16920	
488.22	14868	
488.42	15515	
488.62	16693	
488.82	15870	
489.02	14268	
489.22	14692	
489.41	16761	
489.61	16654	
489.81	14284	
490.01	14403	
490.21	16824	
490.41	17316	
490.61	14350	
490.8	14313	
491	16168	
491.2	15272	
491.4	14726	
491.6	13878	
491.8	15750	
491.99	15963	
492.19	13747	
492.39	14194	
492.59	16701	
492.79	16948	
492.99	15465	
493.18	14521	
493.38	17172	
493.58	18316	
493.78	15378	
493.98	15093	
494.18	17235	
494.37	16889	
494.57	16278	
494.77	16106	
494.97	17860	
495.17	18258	
495.37	16093	
495.56	16311	
495.76	18727	
495.96	18236	
496.16	17259	
496.36	16436	
496.55	18473	
496.75	18020	
496.95	16520	
497.15	16474	
497.35	18343	
497.54	18420	
497.74	16324	
497.94	18170	
498.14	19271	
498.34	19187	
498.53	16470	
498.73	17190	
498.93	18324	
499.13	18781	
499.33	17138	
499.52	17344	
499.72	19198	
499.92	19059	
500.12	16931	
500.32	17207	
500.51	19192	
500.71	19096	
500.91	18028	
501.11	17578	
501.31	19095	
501.5	19448	
501.7	18392	
501.9	17298	
502.1	18893	
502.29	19267	
502.49	17965	
502.69	17931	
502.89	19043	
503.09	18912	
503.28	16457	
503.48	16490	
503.68	18060	
503.88	18176	
504.07	17443	
504.27	16806	
504.47	18507	
504.67	18450	
504.86	17333	
505.06	16929	
505.26	17969	
505.46	19657	
505.65	16643	
505.85	16765	
506.05	17645	
506.25	18317	
506.44	15848	
506.64	16578	
506.84	17559	
507.04	18398	
507.23	16161	
507.43	16698	
507.63	19477	
507.83	17905	
508.02	16634	
508.22	16317	
508.42	19741	
508.62	17509	
508.81	16316	
509.01	17024	
509.21	17233	
509.4	17744	
509.6	16604	
509.8	16149	
510	17604	
510.19	19345	
510.39	15991	
510.59	16195	
510.79	17773	
510.98	19149	
511.18	16337	
511.38	16493	
511.57	18279	
511.77	18282	
511.97	16982	
512.17	15862	
512.36	18175	
512.56	18125	
512.76	15965	
512.95	15851	
513.15	18469	
513.35	17146	
513.55	16930	
513.74	16073	
513.94	18508	
514.14	17857	
514.33	17038	
514.53	16718	
514.73	17733	
514.92	18065	
515.12	16314	
515.32	16160	
515.51	18024	
515.71	18697	
515.91	17859	
516.11	16375	
516.3	20033	
516.5	17810	
516.7	16749	
516.89	17467	
517.09	17741	
517.29	17951	
517.48	17262	
517.68	16503	
517.88	17683	
518.07	18379	
518.27	17118	
518.47	16158	
518.66	18742	
518.86	17653	
519.06	16131	
519.25	16438	
519.45	17869	
519.65	19523	
519.84	17045	
520.04	18002	
520.24	19736	
520.43	18316	
520.63	16525	
520.83	16288	
521.02	17533	
521.22	17941	
521.42	16721	
521.61	17285	
521.81	17796	
522.01	17964	
522.2	16862	
522.4	16572	
522.6	18679	
522.79	17506	
522.99	16941	
523.18	16480	
523.38	18892	
523.58	19076	
523.77	18817	
523.97	16976	
524.17	21056	
524.36	20364	
524.56	18574	
524.76	18376	
524.95	19802	
525.15	19270	
525.34	18303	
525.54	18219	
525.74	20183	
525.93	19368	
526.13	19641	
526.33	18531	
526.52	20581	
526.72	20203	
526.91	19914	
527.11	19216	
527.31	21010	
527.5	21483	
527.7	19456	
527.89	18573	
528.09	20351	
528.29	21089	
528.48	19919	
528.68	19508	
528.87	21267	
529.07	21009	
529.27	19050	
529.46	18675	
529.66	20788	
529.85	20991	
530.05	18560	
530.25	19264	
530.44	22186	
530.64	20535	
530.83	19107	
531.03	19443	
531.23	21248	
531.42	21260	
531.62	20525	
531.81	19714	
532.01	21941	
532.21	22532	
532.4	19916	
532.6	20694	
532.79	23206	
532.99	22659	
533.18	20855	
533.38	21517	
533.58	22264	
533.77	22821	
533.97	20908	
534.16	21773	
534.36	23258	
534.55	22546	
534.75	22199	
534.95	20990	
535.14	23394	
535.34	22466	
535.53	20590	
535.73	22472	
535.92	23694	
536.12	22177	
536.31	20579	
536.51	21978	
536.71	22418	
536.9	22270	
537.1	20881	
537.29	21069	
537.49	23178	
537.68	22227	
537.88	21459	
538.07	20549	
538.27	22664	
538.46	23684	
538.66	20661	
538.86	21244	
539.05	22889	
539.25	23020	
539.44	21809	
539.64	20966	
539.83	22438	
540.03	23409	
540.22	20723	
540.42	20564	
540.61	22325	
540.81	22670	
541	20921	
541.2	21928	
541.39	22005	
541.59	22420	
541.78	21514	
541.98	20362	
542.18	21559	
542.37	21564	
542.57	20736	
542.76	21527	
542.96	21276	
543.15	22104	
543.35	20487	
543.54	19964	
543.74	21985	
543.93	21625	
544.13	20255	
544.32	21113	
544.52	21964	
544.71	21310	
544.91	19380	
545.1	20539	
545.3	21464	
545.49	21945	
545.69	19214	
545.88	19839	
546.08	22915	
546.27	22274	
546.47	20296	
546.66	19472	
546.86	22070	
547.05	22437	
547.24	19866	
547.44	19712	
547.63	20894	
547.83	22018	
548.02	20104	
548.22	20003	
548.41	20616	
548.61	21876	
548.8	19313	
549	19353	
549.19	21045	
549.39	21674	
549.58	18912	
549.78	19591	
549.97	21438	
550.17	20812	
550.36	20089	
550.55	21228	
550.75	20731	
550.94	21541	
551.14	19039	
551.33	19280	
551.53	20265	
551.72	21099	
551.92	19297	
552.11	19073	
552.31	21055	
552.5	21131	
552.69	20700	
552.89	18578	
553.08	20923	
553.28	20532	
553.47	18956	
553.67	19985	
553.86	21442	
554.06	19852	
554.25	18073	
554.44	18658	
554.64	21917	
554.83	21622	
555.03	18701	
555.22	18978	
555.42	20867	
555.61	20470	
555.8	18667	
556	18945	
556.19	19630	
556.39	20955	
556.58	18637	
556.78	18587	
556.97	20482	
557.16	20190	
557.36	20001	
557.55	18412	
557.75	19398	
557.94	21340	
558.13	18380	
558.33	18216	
558.52	20945	
558.72	19644	
558.91	18161	
559.1	18256	
559.3	19349	
559.49	18856	
559.69	17617	
559.88	18492	
560.07	20080	
560.27	20589	
560.46	18716	
560.66	18796	
560.85	19905	
561.04	18984	
561.24	17871	
561.43	17927	
561.63	19116	
561.82	19430	
562.01	19197	
562.21	18424	
562.4	19878	
562.59	20994	
562.79	18312	
562.98	18075	
563.18	20043	
563.37	21457	
563.56	18832	
563.76	18064	
563.95	19570	
564.14	19463	
564.34	18520	
564.53	18144	
564.73	20038	
564.92	20502	
565.11	18673	
565.31	18039	
565.5	20828	
565.69	19640	
565.89	18330	
566.08	18575	
566.27	20575	
566.47	21145	
566.66	19273	
566.85	18079	
567.05	20399	
567.24	19859	
567.44	18417	
567.63	19691	
567.82	20276	
568.02	20164	
568.21	18317	
568.4	18706	
568.6	20347	
568.79	20282	
568.98	18325	
569.18	18690	
569.37	20504	
569.56	22444	
569.76	19086	
569.95	19886	
570.14	20496	
570.34	20620	
570.53	18448	
570.72	18333	
570.91	21011	
571.11	20384	
571.3	19015	
571.49	19796	
571.69	20456	
571.88	20078	
572.07	19623	
572.27	19351	
572.46	20022	
572.65	20769	
572.85	18763	
573.04	19222	
573.23	21448	
573.43	20719	
573.62	18764	
573.81	19350	
574	20979	
574.2	20749	
574.39	19398	
574.58	19367	
574.78	21997	
574.97	21140	
575.16	19856	
575.36	20208	
575.55	21604	
575.74	21738	
575.93	18927	
576.13	20249	
576.32	21032	
576.51	21775	
576.71	19460	
576.9	20903	
577.09	21806	
577.28	21363	
577.48	19832	
577.67	18923	
577.86	21054	
578.05	21609	
578.25	19731	
578.44	19716	
578.63	21156	
578.83	22442	
579.02	19232	
579.21	20740	
579.4	21399	
579.6	21218	
579.79	19748	
579.98	21930	
580.17	21706	
580.37	21911	
580.56	19210	
580.75	20122	
580.94	22174	
581.14	22020	
581.33	20635	
581.52	19466	
581.71	21860	
581.91	22331	
582.1	19387	
582.29	19796	
582.48	21479	
582.68	21413	
582.87	20261	
583.06	19895	
583.25	21707	
583.45	21085	
583.64	20738	
583.83	21437	
584.02	21070	
584.21	21640	
584.41	20420	
584.6	19868	
584.79	21358	
584.98	22282	
585.18	19312	
585.37	19185	
585.56	20879	
585.75	21711	
585.94	19246	
586.14	19998	
586.33	21790	
586.52	21193	
586.71	19530	
586.91	19251	
587.1	20173	
587.29	21173	
587.48	19040	
587.67	19015	
587.87	20853	
588.06	20876	
588.25	20037	
588.44	19415	
588.63	20482	
588.83	21014	
589.02	18696	
589.21	18340	
589.4	19668	
589.59	19482	
589.78	17004	
589.98	17081	
590.17	18591	
590.36	19122	
590.55	16112	
590.74	16589	
590.94	20127	
591.13	18497	
591.32	16860	
591.51	16438	
591.7	19252	
591.89	18931	
592.09	16707	
592.28	17045	
592.47	18112	
592.66	19959	
592.85	16561	
593.05	16802	
593.24	18716	
593.43	19577	
593.62	17194	
593.81	17458	
594	18796	
594.19	18900	
594.39	16874	
594.58	16844	
594.77	18964	
594.96	19458	
595.15	16625	
595.34	17361	
595.54	18686	
595.73	17903	
595.92	15746	
596.11	16813	
596.3	19146	
596.49	17937	
596.68	16652	
596.88	17181	
597.07	18920	
597.26	17845	
597.45	16200	
597.64	17405	
597.83	17988	
598.02	18441	
598.22	16173	
598.41	16821	
598.6	18366	
598.79	17688	
598.98	16057	
599.17	17021	
599.36	18247	
599.55	19185	
599.74	18101	
599.94	17995	
600.13	18658	
600.32	17433	
600.51	15872	
600.7	16005	
600.89	19177	
601.08	19313	
601.27	15806	
601.47	16637	
601.66	18476	
601.85	19031	
602.04	16438	
602.23	16420	
602.42	17430	
602.61	18107	
602.8	16117	
602.99	15894	
603.18	17778	
603.37	18164	
603.57	16292	
603.76	17057	
603.95	18712	
604.14	18535	
604.33	15978	
604.52	16476	
604.71	18174	
604.9	17558	
605.09	17032	
605.28	16817	
605.47	18585	
605.66	18144	
605.86	16439	
606.05	15871	
606.24	18482	
606.43	17086	
606.62	16184	
606.81	16896	
607	18127	
607.19	17647	
607.38	15532	
607.57	15852	
607.76	17410	
607.95	16659	
608.14	16064	
608.33	16750	
608.52	17066	
608.72	18141	
608.91	15359	
609.1	15261	
609.29	17426	
609.48	16782	
609.67	16156	
609.86	15145	
610.05	16759	
610.24	17029	
610.43	14926	
610.62	14693	
610.81	18004	
611	17935	
611.19	15040	
611.38	15719	
611.57	17304	
611.76	18632	
611.95	14828	
612.14	14677	
612.33	17106	
612.52	16619	
612.71	15420	
612.9	14697	
613.09	16206	
613.28	18521	
613.47	15129	
613.66	16016	
613.85	17122	
614.04	16744	
614.24	15143	
614.43	14313	
614.62	17309	
614.81	17149	
615	15686	
615.19	15720	
615.38	16448	
615.57	17051	
615.76	15449	
615.95	16539	
616.14	17232	
616.33	16858	
616.52	15798	
616.71	16054	
616.9	17178	
617.09	17167	
617.28	15294	
617.47	16431	
617.66	16474	
617.85	16548	
618.04	16504	
618.22	15826	
618.41	17157	
618.6	18153	
618.79	15927	
618.98	15567	
619.17	18477	
619.36	16833	
619.55	16000	
619.74	15956	
619.93	17778	
620.12	17249	
620.31	16664	
620.5	16807	
620.69	18713	
620.88	18824	
621.07	17416	
621.26	16533	
621.45	18079	
621.64	18064	
621.83	16806	
622.02	15807	
622.21	18236	
622.4	17903	
622.59	17350	
622.78	17065	
622.97	17674	
623.16	18596	
623.35	16687	
623.54	15793	
623.72	17797	
623.91	17988	
624.1	17068	
624.29	15669	
624.48	19173	
624.67	18264	
624.86	16933	
625.05	15947	
625.24	19179	
625.43	17663	
625.62	18478	
625.81	16286	
626	18686	
626.19	18198	
626.38	17163	
626.56	16512	
626.75	17926	
626.94	18730	
627.13	17053	
627.32	15846	
627.51	18486	
627.7	19615	
627.89	15928	
628.08	17012	
628.27	17653	
628.46	17939	
628.65	16258	
628.83	15881	
629.02	18482	
629.21	17692	
629.4	16579	
629.59	16784	
629.78	17791	
629.97	18641	
630.16	16808	
630.35	16343	
630.54	19037	
630.72	18689	
630.91	16358	
631.1	16724	
631.29	18191	
631.48	18386	
631.67	16836	
631.86	16226	
632.05	17865	
632.24	17931	
632.42	16044	
632.61	16707	
632.8	17953	
632.99	17491	
633.18	16560	
633.37	16948	
633.56	17916	
633.75	17940	
633.93	16577	
634.12	16215	
634.31	18917	
634.5	18510	
634.69	16337	
634.88	16647	
635.07	17731	
635.25	18290	
635.44	17119	
635.63	17305	
635.82	17591	
636.01	17069	
636.2	16883	
636.39	16653	
636.57	18770	
636.76	18219	
636.95	15883	
637.14	17419	
637.33	18060	
637.52	18882	
637.7	15710	
637.89	16628	
638.08	17582	
638.27	18865	
638.46	16526	
638.65	16954	
638.83	18812	
639.02	17116	
639.21	16415	
639.4	16793	
639.59	17550	
639.78	17134	
639.96	15446	
640.15	15520	
640.34	17413	
640.53	17451	
640.72	15177	
640.91	15412	
641.09	16662	
641.28	17967	
641.47	15436	
641.66	16196	
641.85	17390	
642.03	17320	
642.22	15938	
642.41	15356	
642.6	16627	
642.79	16012	
642.97	14862	
643.16	15778	
643.35	16455	
643.54	16193	
643.73	14801	
643.91	15674	
644.1	15935	
644.29	16516	
644.48	14711	
644.67	14607	
644.85	15879	
645.04	16247	
645.23	14079	
645.42	14386	
645.6	15597	
645.79	16611	
645.98	14203	
646.17	13184	
646.36	15024	
646.54	15451	
646.73	14395	
646.92	13517	
647.11	15074	
647.29	15954	
647.48	13487	
647.67	13123	
647.86	16150	
648.05	16258	
648.23	13640	
648.42	14929	
648.61	15543	
648.8	15236	
648.98	13258	
649.17	13641	
649.36	14739	
649.55	14420	
649.73	13383	
649.92	14107	
650.11	14776	
650.3	15008	
650.48	13270	
650.67	13011	
650.86	15127	
651.05	14173	
651.23	13303	
651.42	13181	
651.61	14696	
651.79	14620	
651.98	13456	
652.17	12879	
652.36	14924	
652.54	14067	
652.73	12854	
652.92	12747	
653.11	14803	
653.29	14870	
653.48	11994	
653.67	12999	
653.85	14434	
654.04	15392	
654.23	12866	
654.42	12311	
654.6	13345	
654.79	14008	
654.98	11528	
655.16	11842	
655.35	12742	
655.54	12767	
655.73	11576	
655.91	11457	
656.1	13991	
656.29	13117	
656.47	11299	
656.66	13080	
656.85	13556	
657.03	13564	
657.22	11963	
657.41	12116	
657.59	13646	
657.78	13422	
657.97	11686	
658.16	12555	
658.34	14263	
658.53	14603	
658.72	13287	
658.9	13752	
659.09	13665	
659.28	13846	
659.46	12230	
659.65	12063	
659.84	13433	
660.02	14078	
660.21	12028	
660.4	11977	
660.58	14294	
660.77	13687	
660.96	12570	
661.14	11655	
661.33	14814	
661.52	14668	
661.7	11512	
661.89	15119	
662.08	13273	
662.26	12839	
662.45	11792	
662.64	11729	
662.82	13867	
663.01	13114	
663.2	11712	
663.38	12507	
663.57	13768	
663.75	13617	
663.94	12102	
664.13	13055	
664.31	13199	
664.5	13760	
664.69	12162	
664.87	12813	
665.06	12859	
665.25	13475	
665.43	13012	
665.62	12942	
665.8	13839	
665.99	13078	
666.18	11959	
666.36	12112	
666.55	13693	
666.74	13567	
666.92	11466	
667.11	13020	
667.29	13104	
667.48	13673	
667.67	12754	
667.85	11765	
668.04	13114	
668.22	13178	
668.41	11830	
668.6	11936	
668.78	12862	
668.97	13110	
669.15	12140	
669.34	11266	
669.53	12760	
669.71	13084	
669.9	11268	
670.08	11918	
670.27	12880	
670.46	13306	
670.64	12147	
670.83	12505	
671.01	12688	
671.2	13259	
671.38	11489	
671.57	11202	
671.76	13842	
671.94	14544	
672.13	11239	
672.31	12159	
672.5	13641	
672.69	12829	
672.87	11502	
673.06	11622	
673.24	13306	
673.43	12957	
673.61	12082	
673.8	11632	
673.98	13386	
674.17	13571	
674.36	12123	
674.54	12008	
674.73	13017	
674.91	13312	
675.1	11731	
675.28	11350	
675.47	13009	
675.65	13609	
675.84	11551	
676.03	11955	
676.21	12766	
676.4	12266	
676.58	12345	
676.77	12168	
676.95	14130	
677.14	12594	
677.32	11313	
677.51	11180	
677.69	13350	
677.88	12327	
678.06	11199	
678.25	11246	
678.44	13175	
678.62	12749	
678.81	10905	
678.99	12000	
679.18	13721	
679.36	13288	
679.55	11602	
679.73	12250	
679.92	13242	
680.1	12712	
680.29	12816	
680.47	11504	
680.66	12623	
680.84	13377	
681.03	10848	
681.21	11990	
681.4	12734	
681.58	12587	
681.77	11243	
681.95	11239	
682.14	13529	
682.32	13691	
682.51	12095	
682.69	10940	
682.88	12499	
683.06	13137	
683.25	11710	
683.43	12361	
683.62	12760	
683.8	13145	
683.99	12349	
684.17	11520	
684.36	13687	
684.54	12221	
684.73	10332	
684.91	10312	
685.1	12200	
685.28	11623	
685.46	10672	
685.65	10804	
685.83	12432	
686.02	11915	
686.2	10517	
686.39	10679	
686.57	11742	
686.76	13506	
686.94	10701	
687.13	10780	
687.31	12514	
687.5	12185	
687.68	10309	
687.86	11586	
688.05	13846	
688.23	11890	
688.42	11641	
688.6	11013	
688.79	12424	
688.97	12358	
689.16	11471	
689.34	10412	
689.52	13230	
689.71	13241	
689.89	11855	
690.08	10867	
690.26	12705	
690.45	12469	
690.63	11696	
690.81	11306	
691	12383	
691.18	12339	
691.37	11292	
691.55	13289	
691.74	12098	
691.92	14176	
692.1	11264	
692.29	10781	
692.47	12446	
692.66	11825	
692.84	10992	
693.02	11558	
693.21	12118	
693.39	12510	
693.58	11734	
693.76	11252	
693.94	13859	
694.13	13648	
694.31	11455	
694.5	12463	
694.68	12667	
694.86	13076	
695.05	11853	
695.23	11970	
695.42	13551	
695.6	15742	
695.78	12514	
695.97	11503	
696.15	13628	
696.34	13001	
696.52	11344	
696.7	12101	
696.89	13231	
697.07	12579	
697.25	12011	
697.44	13481	
697.62	13236	
697.81	13486	
697.99	11734	
698.17	12119	
698.36	12524	
698.54	13243	
698.72	12035	
698.91	11024	
699.09	12816	
699.28	12719	
699.46	11779	
699.64	11605	
699.83	12619	
700.01	13781	
700.19	12495	
700.38	10966	
700.56	13953	
700.74	12947	
700.93	11480	
701.11	12209	
701.29	13585	
701.48	14640	
701.66	11710	
701.84	11992	
702.03	13183	
702.21	13932	
702.39	11374	
702.58	12280	
702.76	13629	
702.94	13825	
703.13	11482	
703.31	13921	
703.49	13103	
703.68	14575	
703.86	11660	
704.04	12716	
704.23	13545	
704.41	13886	
704.59	11870	
704.78	13007	
704.96	14693	
705.14	13942	
705.33	11774	
705.51	12353	
705.69	13372	
705.87	14225	
706.06	12804	
706.24	11596	
706.42	13764	
706.61	14023	
706.79	12683	
706.97	11675	
707.16	13177	
707.34	13784	
707.52	12717	
707.7	12023	
707.89	13342	
708.07	13070	
708.25	12812	
708.44	13257	
708.62	13296	
708.8	14381	
708.98	13112	
709.17	12125	
709.35	13630	
709.53	13624	
709.72	11763	
709.9	12140	
710.08	13987	
710.26	13936	
710.45	13311	
710.63	11847	
710.81	13611	
710.99	13624	
711.18	12589	
711.36	12168	
711.54	13397	
711.72	13942	
711.91	12058	
712.09	11448	
712.27	13232	
712.45	13933	
712.64	12012	
712.82	11224	
713	12622	
713.18	12598	
713.37	11056	
713.55	11919	
713.73	13131	
713.91	11527	
714.1	10724	
714.28	10050	
714.46	12005	
714.64	11230	
714.83	9042.5	
715.01	9753.1	
715.19	10942	
715.37	10219	
715.55	9178.3	
715.74	9471.2	
715.92	11533	
716.1	9645.3	
716.28	10386	
716.47	9488.9	
716.65	10127	
716.83	10452	
717.01	9331.9	
717.19	9385.8	
717.38	12363	
717.56	10117	
717.74	9738.1	
717.92	9062.3	
718.1	11514	
718.29	10882	
718.47	8912.8	
718.65	9802.3	
718.83	11994	
719.01	11960	
719.2	9263	
719.38	10282	
719.56	11628	
719.74	13210	
719.92	9891	
720.11	10808	
720.29	11469	
720.47	10632	
720.65	8959.2	
720.83	9766.8	
721.02	10515	
721.2	10311	
721.38	9517.6	
721.56	8910	
721.74	9663.7	
721.92	9906.7	
722.11	10058	
722.29	9672.6	
722.47	11119	
722.65	10294	
722.83	8852.7	
723.01	9802.3	
723.2	10380	
723.38	10720	
723.56	8249.9	
723.74	9484.8	
723.92	9886.9	
724.1	11164	
724.29	8770.1	
724.47	9842.5	
724.65	9957.9	
724.83	9881.4	
725.01	8558.5	
725.19	9463	
725.37	9897.2	
725.56	10017	
725.74	8479.3	
725.92	8740	
726.1	9822.7	
726.28	10179	
726.46	9054.1	
726.64	8790.6	
726.83	10085	
727.01	10323	
727.19	8462.9	
727.37	9301.2	
727.55	10270	
727.73	10776	
727.91	8487.5	
728.09	8324.3	
728.28	10803	
728.46	11385	
728.64	9518.3	
728.82	9543.5	
729	11987	
729.18	11424	
729.36	8890.9	
729.54	11078	
729.72	12525	
729.91	10853	
730.09	10866	
730.27	9732.6	
730.45	10864	
730.63	11553	
730.81	10363	
730.99	9536	
731.17	12031	
731.35	10585	
731.53	10067	
731.71	9648	
731.9	11660	
732.08	11810	
732.26	9774.3	
732.44	9396.1	
732.62	11841	
732.8	11437	
732.98	10132	
733.16	9095	
733.34	11226	
733.52	10016	
733.7	9534	
733.88	9927.9	
734.07	10994	
734.25	10888	
734.43	9196.7	
734.61	10712	
734.79	12272	
734.97	10709	
735.15	9179	
735.33	9473.2	
735.51	11009	
735.69	10658	
735.87	10490	
736.05	9691	
736.23	10905	
736.41	10575	
736.59	9545.6	
736.77	9622	
736.95	11258	
737.13	10813	
737.32	9143.5	
737.5	9372.2	
737.68	11755	
737.86	10570	
738.04	8880.7	
738.22	10708	
738.4	10339	
738.58	10525	
738.76	9483.5	
738.94	8485.4	
739.12	10419	
739.3	10346	
739.48	10198	
739.66	9822.7	
739.84	10686	
740.02	10671	
740.2	8538	
740.38	8923	
740.56	11030	
740.74	9856.2	
740.92	9463.7	
741.1	9306	
741.28	10335	
741.46	10145	
741.64	8908.7	
741.82	9376.3	
742	10402	
742.18	10286	
742.36	9037	
742.54	8656.1	
742.72	10840	
742.9	9601.6	
743.08	9437	
743.26	8200.1	
743.44	10894	
743.62	10697	
743.8	9464.3	
743.98	8466.3	
744.16	10350	
744.34	10113	
744.52	9252	
744.7	9171.5	
744.88	10406	
745.06	9930.6	
745.24	9253.4	
745.42	9351.7	
745.6	10397	
745.78	10189	
745.96	7904.5	
746.14	8177.5	
746.32	11088	
746.5	10287	
746.68	8765.3	
746.86	8170	
747.03	10763	
747.21	8983.1	
747.39	8628.1	
747.57	8136.6	
747.75	9736.7	
747.93	10236	
748.11	8088.8	
748.29	7994.6	
748.47	11336	
748.65	9515.5	
748.83	8760.5	
749.01	8390.5	
749.19	9937.4	
749.37	9098.4	
749.55	8356.4	
749.73	8463.6	
749.91	9618.6	
750.09	9387.2	
750.26	8398	
750.44	7871.7	
750.62	9711.5	
750.8	9630.2	
750.98	7676.5	
751.16	7924.3	
751.34	9704.6	
751.52	8983.8	
751.7	8856.8	
751.88	7655.3	
752.06	9994.1	
752.24	9838.4	
752.42	7578.8	
752.59	7845.1	
752.77	9448.6	
752.95	10718	
753.13	8634.2	
753.31	7968.6	
753.49	9131.2	
753.67	9583.1	
753.85	8264.2	
754.03	7749.5	
754.21	9673.9	
754.38	9970.9	
754.56	7714	
754.74	6739.9	
754.92	8610.3	
755.1	9303.2	
755.28	6481.8	
755.46	6303	
755.64	9323	
755.82	9120.3	
755.99	5637.4	
756.17	5705	
756.35	6148.7	
756.53	7602.1	
756.71	4356	
756.89	5223	
757.07	7196.6	
757.25	6389	
757.42	5950	
757.6	7002	
757.78	7722.9	
757.96	6825.2	
758.14	6165.8	
758.32	5606.7	
758.5	6313.9	
758.67	7109.2	
758.85	5920	
759.03	5902.9	
759.21	7238.9	
759.39	6700.3	
759.57	5368.4	
759.75	6517.3	
759.92	8029.4	
760.1	7202.7	
760.28	6963.1	
760.46	7313.3	
760.64	7197.9	
760.82	6995.9	
760.99	6969.9	
761.17	6246.3	
761.35	8183	
761.53	7153.6	
761.71	6490.7	
761.89	7157	
762.06	8170.7	
762.24	7735.2	
762.42	6644.3	
762.6	6438.8	
762.78	7750.9	
762.96	8464.3	
763.13	7144.7	
763.31	6863.4	
763.49	8703.9	
763.67	7862.8	
763.85	7613.7	
764.02	8141.4	
764.2	8942.8	
764.38	8131.1	
764.56	6760.3	
764.74	7495.6	
764.91	9017.9	
765.09	7847.8	
765.27	6354.8	
765.45	6147.3	
765.63	9011.7	
765.8	8757.1	
765.98	5862.7	
766.16	6075.6	
766.34	7399.3	
766.52	7047.1	
766.69	6995.2	
766.87	5915.9	
767.05	7735.2	
767.23	8509.3	
767.41	6238.8	
767.58	6335	
767.76	8159.8	
767.94	8184.4	
768.12	6191.7	
768.29	6854.6	
768.47	7531.7	
768.65	8305.9	
768.83	5762.3	
769	6784.2	
769.18	7130.3	
769.36	7785	
769.54	6761	
769.72	5644.2	
769.89	8004.1	
770.07	8049.9	
770.25	5883.1	
770.43	7182.9	
770.6	8700.5	
770.78	9063.6	
770.96	6038.1	
771.14	6707.8	
771.31	7746.1	
771.49	7070.3	
771.67	5122.7	
771.85	5403.2	
772.02	6350.1	
772.2	7019.1	
772.38	5945.9	
772.55	5538.4	
772.73	7230	
772.91	6956.9	
773.09	5819	
773.26	5931.6	
773.44	7120.1	
773.62	6776.7	
773.8	5283.1	
773.97	5093.3	
774.15	7128.3	
774.33	6731.7	
774.5	5130.8	
774.68	5555.5	
774.86	7043	
775.04	6689.3	
775.21	5158.8	
775.39	5068.7	
775.57	6948.8	
775.74	7305.8	
775.92	4911.7	
776.1	4855.7	
776.27	6797.9	
776.45	8036.2	
776.63	4966.3	
776.81	4645.5	
776.98	6413.6	
777.16	7481.9	
777.34	5123.3	
777.51	5386.2	
777.69	6455.9	
777.87	6186.9	
778.04	5091.9	
778.22	5717.2	
778.4	6133.7	
778.57	6720.1	
778.75	4354.7	
778.93	4599.7	
779.1	5871.5	
779.28	5728.2	
779.46	4260.5	
779.64	4830.5	
779.81	6766.5	
779.99	7622.5	
780.17	5500.2	
780.34	5638.1	
780.52	6302.3	
780.69	6442.2	
780.87	5010.7	
781.05	4614.8	
781.22	6246.3	
781.4	6326.2	
781.58	4715.1	
781.75	3868.6	
781.93	6253.1	
782.11	5635.3	
782.28	5432.6	
782.46	4588.1	
782.64	5455.1	
782.81	6344.6	
782.99	4666.6	
783.17	4632.5	
783.34	6252.4	
783.52	5448.3	
783.69	4777.9	
783.87	5583.4	
784.05	5537.7	
784.22	5522	
784.4	5536.3	
784.58	4821.6	
784.75	6395.8	
784.93	5492	
785.1	4497.3	
785.28	5124.7	
785.46	6139.8	
785.63	5455.1	
785.81	4415.4	
785.99	4289.1	
786.16	5606.7	
786.34	5981.4	
786.51	4283.7	
786.69	4704.2	
786.87	5205.9	
787.04	5713.8	
787.22	4132.1	
787.39	5052.3	
787.57	5390.9	
787.75	6458.6	
787.92	5246.2	
788.1	5184.1	
788.27	5453.1	
788.45	5189.6	
788.63	4921.3	
788.8	3595.6	
788.98	5859.2	
789.15	5044.1	
789.33	3790.8	
789.5	4389.5	
789.68	6236.7	
789.86	6334.4	
790.03	4739.7	
790.21	4229.1	
790.38	6263.4	
790.56	5455.8	
790.73	4059.8	
790.91	4087.1	
791.09	5317.2	
791.26	6029.2	
791.44	4307.6	
791.61	3754.6	
791.79	5279	
791.96	5380.7	
792.14	3842	
792.32	3449.5	
792.49	5322	
792.67	5388.9	
792.84	3917.1	
793.02	3738.2	
793.19	5674.9	
793.37	6404	
793.54	3396.2	
793.72	3768.3	
793.89	6527.6	
794.07	5242.8	
794.25	4343.7	
794.42	3486.3	
794.6	6267.5	
794.77	5887.2	
794.95	4554.7	
795.12	3982.6	
795.3	5250.3	
795.47	5820.3	
795.65	4426.3	
795.82	4156	
796	5065.3	
796.17	6796.5	
796.35	4143	
796.52	4737	
796.7	5702.2	
796.87	5859.2	
797.05	5065.3	
797.22	4964.3	
797.4	5757.5	
797.57	6758.3	
797.75	4192.2	
797.92	3967.6	
798.1	6117.3	
798.27	5072.8	
798.45	3475.4	
798.62	3660.4	
798.8	5500.2	
798.97	5960.3	
799.15	4441.4	
799.32	4230.4	
799.5	4792.9	
799.67	5534.3	
799.85	4541.7	
800.02	3325.9	
800.2	5135.6	
800.37	5423.7	
800.55	4745.8	
800.72	3951.2	
800.9	5930.2	
801.07	6347.3	
801.25	5256.5	
801.42	4270	
801.6	5902.2	
801.77	5634.6	
801.95	4012.7	
802.12	3866.6	
802.29	5638.1	
802.47	5571.8	
802.64	4246.1	
802.82	3274.7	
802.99	5042.1	
803.17	6053.1	
803.34	4137.6	
803.52	3768.3	
803.69	6684.6	
803.87	4932.9	
804.04	4137.6	
804.21	4243.4	
804.39	6178	
804.56	5324.7	
804.74	3564.8	
804.91	4232.5	
805.09	5048.9	
805.26	5218.9	
805.44	3599.6	
805.61	3870.7	
805.78	5719.3	
805.96	5793.7	
806.13	4219.5	
806.31	4597.7	
806.48	4657.8	
806.66	5177.3	
806.83	4258.4	
807	4234.5	
807.18	5045.5	
807.35	5430.5	
807.53	4130.1	
807.7	3284.9	
807.87	6141.9	
808.05	5083.1	
808.22	4493.2	
808.4	3307.5	
808.57	5139.7	
808.74	4704.9	
808.92	3754.6	
809.09	4746.5	
809.27	4980	
809.44	5620.3	
809.61	3346.4	
809.79	3667.2	
809.96	6216.3	
810.14	5788.2	
810.31	3204.4	
810.48	3954.6	
810.66	5091.9	
810.83	5861.3	
811.01	3755.3	
811.18	4136.9	
811.35	5791	
811.53	4556.7	
811.7	4540.3	
811.87	4257.7	
812.05	5059.2	
812.22	4975.9	
812.39	3730.7	
812.57	3553.2	
812.74	5102.9	
812.92	6653.2	
813.09	3918.4	
813.26	4222.9	
813.44	6407.4	
813.61	4990.2	
813.78	3316.3	
813.96	4395.6	
814.13	5104.2	
814.3	4741.7	
814.48	4684.4	
814.65	3891.8	
814.82	6223.8	
815	4896.7	
815.17	4083.6	
815.34	4935.6	
815.52	5040.7	
815.69	4981.3	
815.87	4001.7	
816.04	3523.2	
816.21	5046.9	
816.38	4502.1	
816.56	3891.1	
816.73	3599.6	
816.9	6378.7	
817.08	5756.8	
817.25	3642.7	
817.42	4569.7	
817.6	4618.9	
817.77	5077.6	
817.94	4131.4	
818.12	3562.1	
818.29	4777.9	
818.46	7445.7	
818.64	3823.6	
818.81	3556	
818.98	4780.6	
819.16	6878.4	
819.33	4304.8	
819.5	4057	
819.67	5416.2	
819.85	6025.8	
820.02	3976.5	
820.19	4261.1	
820.37	5248.3	
820.54	4891.2	
820.71	4156.7	
820.88	5045.5	
821.06	5275.6	
821.23	4832.5	
821.4	4148.5	
821.58	4067.3	
821.75	5738.4	
821.92	5185.5	
822.09	3295.2	
822.27	3403.7	
822.44	5048.9	
822.61	4909.7	
822.79	3313.6	
822.96	6337.1	
823.13	5542.5	
823.3	4800.4	
823.48	3833.8	
823.65	3472	
823.82	5737.7	
823.99	4649.6	
824.17	4807.3	
824.34	3520.5	
824.51	6525.5	
824.68	5135.6	
824.86	3648.8	
825.03	4072	
825.2	5042.1	
825.37	6103.6	
825.55	3629	
825.72	4010.6	
825.89	6740.5	
826.06	6137.8	
826.24	3907.5	
826.41	3954.6	
826.58	6055.2	
826.75	5374.6	
826.92	3069.2	
827.1	3480.9	
827.27	8286.8	
827.44	6576	
827.61	3734.1	
827.79	4491.9	
827.96	4795.7	
828.13	5109	
828.3	3907.5	
828.47	3331.4	
828.65	5274.9	
828.82	5192.3	
828.99	4987.5	
829.16	4380.6	
829.34	5647.6	
829.51	5397.1	
829.68	4010.6	
829.85	4207.9	
830.02	5905.7	
830.2	5695.4	
830.37	3121.8	
830.54	4829.1	
830.71	6452.5	
830.88	4968.4	
831.05	3177.8	
831.23	3646.1	
831.4	6148	
831.57	6915.3	
831.74	3790.1	
831.91	3312.2	
832.09	5315.8	
832.26	5622.4	
832.43	3845.4	
832.6	4343.1	
832.77	5265.3	
832.94	6012.8	
833.12	3106.1	
833.29	3824.9	
833.46	4913.8	
833.63	7110.5	
833.8	4170.3	
833.97	3880.9	
834.15	5714.5	
834.32	5421	
834.49	4022.9	
834.66	4190.1	
834.83	5849.7	
835	4825.7	
835.17	3691.1	
835.35	3697.3	
835.52	5523.4	
835.69	5498.1	
835.86	3948.5	
836.03	3233.7	
836.2	5580	
836.37	5246.9	
836.55	3794.2	
836.72	3637.9	
836.89	5271.5	
837.06	5767.1	
837.23	3942.3	
837.4	4273.4	
837.57	6444.3	
837.75	7027.3	
837.92	3483.6	
838.09	3756	
838.26	5228.5	
838.43	5899.5	
838.6	4052.2	
838.77	3647.4	
838.94	6731	
839.11	6410.1	
839.29	3868.6	
839.46	3038.5	
839.63	5595.7	
839.8	5371.8	
839.97	3742.3	
840.14	3734.8	
840.31	5320.6	
840.48	5634	
840.65	3124.5	
840.82	3785.3	
841	5579.3	
841.17	5556.1	
841.34	3379.8	
841.51	3481.5	
841.68	5487.9	
841.85	5238	
842.02	3645.4	
842.19	2967.5	
842.36	5346.6	
842.53	5315.8	
842.7	3402.4	
842.87	4207.9	
843.05	7043.6	
843.22	5266	
843.39	3275.4	
843.56	3566.2	
843.73	5064.6	
843.9	5674.2	
844.07	5532.2	
844.24	4600.4	
844.41	8130.4	
844.58	4840	
844.75	3321.8	
844.92	3626.3	
845.09	5578	
845.26	5548.6	
845.43	3390.8	
845.6	3615.3	
845.77	5623.7	
845.94	5331.5	
846.12	3829	
846.29	4027	
846.46	5815.5	
846.63	5593	
846.8	3450.1	
846.97	4089.8	
847.14	6055.8	
847.31	5547.9	
847.48	3845.4	
847.65	4236.6	
847.82	5907.7	
847.99	5823.1	
848.16	4485.1	
848.33	4225.6	
848.5	5130.8	
848.67	6051.1	
848.84	3401.7	
849.01	3607.8	
849.18	5038.7	
849.35	4759.5	
849.52	4269.3	
849.69	3387.3	
849.86	5831.2	
850.03	6001.2	
850.2	3462.4	
850.37	4174.4	
850.54	5913.2	
850.71	5280.3	
850.88	4059.8	
851.05	3418.1	
851.22	5507.7	
851.39	6081.8	
851.56	3199.6	
851.73	3831.7	
851.9	4913.8	
852.07	5780.1	
852.24	3742.3	
852.41	3390.8	
852.58	5464.7	
852.75	4986.8	
852.92	3807.2	
853.09	3338.9	
853.26	5199.1	
853.43	6035.4	
853.6	3416	
853.77	2932	
853.94	6158.9	
854.11	4940.4	
854.28	5005.2	
854.44	3698.6	
854.61	6516.6	
854.78	5962.3	
854.95	3422.8	
855.12	4261.1	
855.29	4522.6	
855.46	6279.1	
855.63	3412.6	
855.8	4664.6	
855.97	5103.5	
856.14	5943.9	
856.31	4786.8	
856.48	3725.3	
856.65	5160.9	
856.82	4856.4	
856.99	3229.6	
857.16	3622.9	
857.33	6782.9	
857.49	5266	
857.66	3620.1	
857.83	3956	
858	5213.4	
858.17	5455.8	
858.34	3269.2	
858.51	3417.4	
858.68	6268.8	
858.85	6284.5	
859.02	3935.5	
859.19	4196.3	
859.36	4899.4	
859.52	4977.9	
859.69	3411.2	
859.86	3974.4	
860.03	5001.1	
860.2	6135.7	
860.37	3066.5	
860.54	3379.8	
860.71	5794.4	
860.88	6204.7	
861.05	3850.9	
861.21	4320.5	
861.38	6237.4	
861.55	4779.3	
861.72	3041.2	
861.89	3797.6	
862.06	5878.4	
862.23	6287.9	
862.4	3295.2	
862.56	3619.4	
862.73	5663.3	
862.9	5332.9	
863.07	4017.4	
863.24	3055.6	
863.41	4796.3	
863.58	4930.8	
863.75	3489.1	
863.91	3938.9	
864.08	6097.5	
864.25	5760.3	
864.42	4251.6	
864.59	4770.4	
864.76	6399.2	
864.93	4938.3	
865.09	3279.5	
865.26	3643.3	
865.43	6032	
865.6	6343.9	
865.77	3003	
865.94	3353.9	
866.1	6066.8	
866.27	5744.6	
866.44	5075.5	
866.61	3209.2	
866.78	5279.7	
866.95	5702.2	
867.11	3268.6	
867.28	3020.1	
867.45	5906.3	
867.62	4944.5	
867.79	3894.6	
867.96	3360.7	
868.12	4906.9	
868.29	5840.1	
868.46	2949.8	
868.63	4528.7	
868.8	5977.3	
868.97	5726.8	
869.13	3549.8	
869.3	3561.4	
869.47	5678.3	
869.64	5886.5	
869.81	3401.7	
869.97	3419.4	
870.14	5566.4	
870.31	6161	
870.48	3299.3	
870.65	4326.7	
870.81	5210	
870.98	5286.5	
871.15	3876.8	
871.32	3530	
871.48	5636.7	
871.65	6266.1	
871.82	3382.6	
871.99	3725.9	
872.16	6692.1	
872.32	6075.6	
872.49	3422.2	
872.66	3386.7	
872.83	5784.1	
872.99	5033.2	
873.16	3887.7	
873.33	3326.6	
873.5	5375.9	
873.67	5430.5	
873.83	3603.7	
874	4514.4	
874.17	5569.8	
874.34	6511.9	
874.5	4377.2	
874.67	4210.6	
874.84	6141.2	
875.01	4863.2	
875.17	4803.2	
875.34	3383.2	
875.51	5517.9	
875.68	6642.2	
875.84	4119.8	
876.01	4937	
876.18	5726.8	
876.34	5737.7	
876.51	3349.8	
876.68	3349.8	
876.85	5274.2	
877.01	6001.2	
877.18	4825	
877.35	3355.3	
877.52	5355.4	
877.68	4812	
877.85	3327.9	
878.02	3358.7	
878.18	5343.2	
878.35	5072.1	
878.52	2722.4	
878.69	3731.4	
878.85	5752.1	
879.02	5720.7	
879.19	4796.3	
879.35	3651.5	
879.52	5651.7	
879.69	5860.6	
879.86	2936.1	
880.02	3797.6	
880.19	5265.3	
880.36	6389	
880.52	3893.9	
880.69	4029.7	
880.86	5770.5	
881.02	5928.2	
881.19	3734.8	
881.36	3694.5	
881.52	5717.2	
881.69	5046.2	
881.86	3588	
882.02	3525.9	
882.19	5978.7	
882.36	6947.4	
882.52	3500	
882.69	4727.4	
882.86	5529.5	
883.02	5453.7	
883.19	4124.6	
883.36	3846.1	
883.52	5837.4	
883.69	6580.8	
883.86	3433.1	
884.02	3089	
884.19	5810.1	
884.36	5373.2	
884.52	3790.8	
884.69	3608.5	
884.86	5132.9	
885.02	6361	
885.19	3759.4	
885.36	3904.8	
885.52	5384.8	
885.69	5438	
885.86	4843.4	
886.02	4302.8	
886.19	5762.3	
886.35	5201.2	
886.52	3727.3	
886.69	4741.7	
886.85	4893.3	
887.02	6173.3	
887.19	6173.3	
887.35	6173.3	
887.52	6173.3	
887.68	6173.3	
887.85	6173.3	
888.02	6173.3	
888.18	6173.3	
888.35	6173.3	
888.51	6173.3	
888.68	6173.3	
888.85	6173.3	
889.01	6173.3	
889.18	6173.3	
889.35	6173.3	
889.51	6173.3	
889.68	6173.3	
889.84	6173.3	
890.01	6173.3	
890.17	6173.3	
890.34	6173.3	
890.51	6173.3	
890.67	6173.3	
890.84	6173.3	
891	6173.3	
891.17	6173.3	
891.34	6173.3	
891.5	6173.3	
891.67	6173.3	
891.83	6173.3	
892	6173.3	
892.16	6173.3	
892.33	6173.3	
892.5	6173.3	
892.66	6173.3	
892.83	6173.3	
892.99	6173.3	
893.16	6173.3	
893.32	6173.3	
893.49	6173.3	
893.65	6173.3	
893.82	6173.3	
893.99	6173.3	
894.15	6173.3	
894.32	6173.3	
894.48	6173.3	
894.65	6173.3	
894.81	6173.3	
894.98	6173.3	
895.14	6173.3	
895.31	6173.3	
895.47	6173.3	
895.64	6173.3	
895.81	6173.3	
895.97	6173.3	
896.14	6173.3	
896.3	6173.3	
896.47	6173.3	
896.63	6173.3	
896.8	6173.3	
896.96	6173.3	
897.13	6173.3	
897.29	6173.3	
897.46	6173.3	
897.62	6173.3	
897.79	6173.3	
897.95	6173.3	
898.12	6173.3	
898.28	6173.3	
898.45	6173.3	
898.61	6173.3	
898.78	6173.3	
898.94	6173.3	
899.11	6173.3	
899.27	6173.3	
899.44	6173.3	
899.6	6173.3	
899.77	6173.3	
899.93	6173.3	
900.1	6173.3	
900.26	6173.3	
900.43	6173.3	
900.59	6173.3	
900.76	6173.3	
900.92	6173.3	
901.09	6173.3	
901.25	6173.3	
901.42	6173.3	
901.58	6173.3	
901.75	6173.3	
901.91	6173.3	
902.07	6173.3	
902.24	6173.3	
902.4	6173.3	
902.57	6173.3	
902.73	6173.3	
902.9	6173.3	
903.06	6173.3	
903.23	6173.3	
903.39	6173.3	
903.56	6173.3	
903.72	6173.3	
903.88	6173.3	
904.05	6173.3	
904.21	6173.3	
904.38	6173.3	
904.54	6173.3	
904.71	6173.3	
904.87	6173.3	
905.03	6173.3	
905.2	6173.3	
905.36	6173.3	
905.53	6173.3	
905.69	6173.3	
905.86	6173.3	
906.02	6173.3	
906.18	6173.3	
906.35	6173.3	
906.51	6173.3	
906.68	6173.3	
906.84	6173.3	
907.01	6173.3	
907.17	6173.3	
907.33	6173.3	
907.5	6173.3	
907.66	6173.3	
907.83	6173.3	
907.99	6173.3	
908.15	6173.3	
908.32	6173.3	
908.48	6173.3	
908.65	6173.3	
908.81	6173.3	
908.97	6173.3	
909.14	6173.3	
909.3	6173.3	
909.47	6173.3	
909.63	6173.3	
909.79	6173.3	
909.96	6173.3	
910.12	6173.3	
910.28	6173.3	
910.45	6173.3	
910.61	6173.3	
910.78	6173.3	
910.94	6173.3	
911.1	6173.3	
911.27	6173.3	
911.43	6173.3	
911.59	6173.3	
911.76	6173.3	
911.92	6173.3	
912.08	6173.3	
912.25	6173.3	
912.41	6173.3	
912.57	6173.3	
912.74	6173.3	
912.9	6173.3	
913.07	6173.3	
913.23	6173.3	
913.39	6173.3	
913.56	6173.3	
913.72	6173.3	
913.88	6173.3	
914.05	6173.3	
914.21	6173.3	
914.37	6173.3	
914.54	6173.3	
914.7	6173.3	
914.86	6173.3	
915.03	6173.3	
915.19	6173.3	
