Wavelength	Intensities	
nm	a.u.	
179.22	1894.2	
179.44	1898.1	
179.65	1890.3	
179.86	1906	
180.08	1926.5	
180.29	4995	
180.51	3577.8	
180.72	5696.8	
180.94	6708.5	
181.15	3275.4	
181.37	3243.3	
181.58	5562.3	
181.79	5849	
182.01	3458.3	
182.22	3728.7	
182.44	5836.7	
182.65	4848.9	
182.87	4673.5	
183.08	4100.7	
183.29	6132.3	
183.51	5109	
183.72	3749.1	
183.94	5466	
184.15	5408.7	
184.37	5436.7	
184.58	3208.5	
184.79	4516.5	
185.01	5048.9	
185.22	5812.1	
185.44	4731.5	
185.65	3971.7	
185.86	5333.6	
186.08	4954.7	
186.29	3166.2	
186.51	3459.7	
186.72	5079	
186.94	5996.5	
187.15	3926	
187.36	4108.9	
187.58	7850.5	
187.79	5597.1	
188.01	4313.7	
188.22	6664.8	
188.43	6709.1	
188.65	5812.1	
188.86	3390.8	
189.08	4119.1	
189.29	5311.1	
189.5	5303.6	
189.72	3814.7	
189.93	3857.7	
190.15	6021	
190.36	7290.1	
190.57	4164.2	
190.79	4040	
191	6202.6	
191.22	6064	
191.43	4169	
191.64	3459.7	
191.86	6360.3	
192.07	6133.7	
192.29	3545.7	
192.5	3790.8	
192.71	6060.6	
192.93	5218.9	
193.14	3724.6	
193.35	3896.6	
193.57	5268.1	
193.78	6122.7	
194	3039.2	
194.21	3721.2	
194.42	4986.8	
194.64	5492.7	
194.85	4102.1	
195.07	4851.6	
195.28	5496.1	
195.49	4756.7	
195.71	5073.5	
195.92	3562.1	
196.13	5657.2	
196.35	5809.4	
196.56	5466.7	
196.78	4155.3	
196.99	7150.8	
197.2	6692.1	
197.42	4723.3	
197.63	4125.3	
197.84	4887.1	
198.06	5700.9	
198.27	3795.6	
198.48	5081.7	
198.7	5195.7	
198.91	5363.6	
199.13	4084.3	
199.34	4154	
199.55	5903.6	
199.77	4689.8	
199.98	3586	
200.19	4219.5	
200.41	5383.4	
200.62	5111.7	
200.83	4350.6	
201.05	4609.3	
201.26	5412.8	
201.47	5144.5	
201.69	3704.1	
201.9	3519.8	
202.11	5395	
202.33	6490.7	
202.54	3949.2	
202.76	4362.2	
202.97	5606	
203.18	5583.4	
203.4	4400.4	
203.61	4241.3	
203.82	5485.1	
204.04	5156.1	
204.25	4188.8	
204.46	4131.4	
204.68	5455.8	
204.89	5748.6	
205.1	4058.4	
205.32	3502	
205.53	5900.2	
205.74	6047.7	
205.96	2942.2	
206.17	4234.5	
206.38	5865.4	
206.6	6010.1	
206.81	4757.4	
207.02	3870.7	
207.24	5784.1	
207.45	6199.2	
207.66	3924.6	
207.88	3350.5	
208.09	5603.9	
208.3	5466.7	
208.52	3644.7	
208.73	4074.8	
208.94	5431.2	
209.15	6197.8	
209.37	3897.3	
209.58	4132.1	
209.79	6042.2	
210.01	5283.1	
210.22	3125.9	
210.43	3269.9	
210.65	5429.2	
210.86	5954.8	
211.07	3969.6	
211.29	3573	
211.5	5874.9	
211.71	5397.8	
211.93	3590.8	
212.14	3624.2	
212.35	5381.4	
212.56	5621.7	
212.78	4159.4	
212.99	3422.2	
213.2	6471.6	
213.42	5270.1	
213.63	3753.9	
213.84	3979.2	
214.06	4789.5	
214.27	4995	
214.48	3953.3	
214.69	4268.6	
214.91	6223.8	
215.12	6307.7	
215.33	4228.4	
215.55	4764.9	
215.76	6793.1	
215.97	5860.6	
216.18	4134.2	
216.4	3989.4	
216.61	5147.2	
216.82	6026.5	
217.04	3590.1	
217.25	3814.7	
217.46	6183.5	
217.67	5933.6	
217.89	3208.5	
218.1	3371.6	
218.31	5567.1	
218.53	5625.1	
218.74	3739.6	
218.95	3671.3	
219.16	5449	
219.38	6425.2	
219.59	3705.5	
219.8	4493.2	
220.01	7095.5	
220.23	5509.7	
220.44	4925.4	
220.65	3568.9	
220.87	5534.3	
221.08	6150.1	
221.29	3308.8	
221.5	4486.4	
221.72	7577.5	
221.93	5147.2	
222.14	4177.2	
222.35	4913.1	
222.57	5542.5	
222.78	5900.2	
222.99	4031.8	
223.2	4236.6	
223.42	5799.8	
223.63	5977.3	
223.84	3042.6	
224.05	3003	
224.27	7128.3	
224.48	6418.3	
224.69	4916.5	
224.9	4147.8	
225.12	5700.2	
225.33	5492.7	
225.54	3315.7	
225.75	3704.1	
225.97	5023.7	
226.18	5332.9	
226.39	4033.8	
226.6	3770.3	
226.82	5215.5	
227.03	5058.5	
227.24	4159.4	
227.45	3410.6	
227.67	5831.9	
227.88	6511.9	
228.09	4670.1	
228.3	4706.9	
228.52	5902.2	
228.73	5432.6	
228.94	3865.9	
229.15	3381.9	
229.36	5384.1	
229.58	5367.7	
229.79	3850.2	
230	4525.3	
230.21	6582.9	
230.43	5588.2	
230.64	4119.1	
230.85	4293.2	
231.06	5914.5	
231.28	5950	
231.49	3448.1	
231.7	4005.1	
231.91	5796.4	
232.12	5500.8	
232.34	3539.6	
232.55	3972.4	
232.76	6119.3	
232.97	5639.4	
233.18	3644	
233.4	4113.7	
233.61	5694.7	
233.82	5165	
234.03	3811.3	
234.25	3691.1	
234.46	7645.1	
234.67	5542.5	
234.88	4228.4	
235.09	3720.5	
235.31	5882.4	
235.52	5442.1	
235.73	4138.3	
235.94	3460.4	
236.15	5216.9	
236.37	6698.9	
236.58	3619.4	
236.79	4027.7	
237	5800.5	
237.21	4987.5	
237.43	4257	
237.64	3336.1	
237.85	10116	
238.06	5079.6	
238.27	4418.8	
238.48	3470.6	
238.7	5877.7	
238.91	5343.8	
239.12	3924.6	
239.33	3971	
239.54	5265.3	
239.76	5339.1	
239.97	3926.6	
240.18	3936.9	
240.39	6956.9	
240.6	5801.2	
240.82	4064.5	
241.03	3375.7	
241.24	5525.4	
241.45	6391	
241.66	3547.8	
241.87	4281.6	
242.09	6266.1	
242.3	6636.8	
242.51	4345.1	
242.72	4008.6	
242.93	6013.5	
243.14	5413.5	
243.36	4607.2	
243.57	5004.6	
243.78	6305	
243.99	5870.8	
244.2	3974.4	
244.41	3592.1	
244.63	4988.9	
244.84	5862.7	
245.05	4242.7	
245.26	3951.9	
245.47	5799.8	
245.68	6130.3	
245.9	5336.3	
246.11	4138.3	
246.32	5307	
246.53	5755.5	
246.74	6508.4	
246.95	3340.2	
247.16	4936.3	
247.38	5520	
247.59	3303.4	
247.8	3934.1	
248.01	5216.9	
248.22	5427.1	
248.43	3602.4	
248.64	3882.3	
248.86	4795	
249.07	5201.8	
249.28	3461.7	
249.49	4155.3	
249.7	6105.7	
249.91	6178	
250.12	3310.9	
250.34	3367.5	
250.55	5574.6	
250.76	5479	
250.97	4097.3	
251.18	4154.6	
251.39	6213.5	
251.6	5754.1	
251.81	4227	
252.03	4171	
252.24	5218.9	
252.45	6019	
252.66	3418.7	
252.87	4456.4	
253.08	5522.7	
253.29	7317.4	
253.5	3446	
253.72	4835.3	
253.93	5335.6	
254.14	6567.8	
254.35	3783.3	
254.56	3930.1	
254.77	5717.9	
254.98	5102.9	
255.19	3704.8	
255.41	4820.9	
255.62	5517.9	
255.83	6189	
256.04	4296.6	
256.25	4141.7	
256.46	6780.1	
256.67	5146.5	
256.88	4108.9	
257.09	4567	
257.31	5195.7	
257.52	5179.3	
257.73	5154.1	
257.94	3768.9	
258.15	5312.4	
258.36	5545.2	
258.57	4792.2	
258.78	3009.8	
258.99	5986.2	
259.2	5312.4	
259.41	3765.5	
259.63	3883.6	
259.84	6341.2	
260.05	6890.7	
260.26	5016.2	
260.47	3683.6	
260.68	6090	
260.89	5385.5	
261.1	4603.8	
261.31	3575.1	
261.52	6132.3	
261.73	6393.8	
261.95	4920.6	
262.16	4328.7	
262.37	6208.8	
262.58	6300.2	
262.79	4862.6	
263	3880.2	
263.21	5489.2	
263.42	4941.7	
263.63	3890.5	
263.84	3835.8	
264.05	6100.9	
264.26	6488.6	
264.47	4754	
264.69	4240.7	
264.9	6221.7	
265.11	5686.5	
265.32	3700	
265.53	3775.1	
265.74	5649.7	
265.95	4883	
266.16	4090.5	
266.37	4499.4	
266.58	5580.7	
266.79	5322.7	
267	3717.1	
267.21	3471.3	
267.42	5085.8	
267.63	5515.2	
267.84	3969.6	
268.06	3360.7	
268.27	5937.7	
268.48	6307.7	
268.69	3838.6	
268.9	4554.7	
269.11	6240.8	
269.32	4986.8	
269.53	3979.2	
269.74	3682.9	
269.95	5784.8	
270.16	4841.4	
270.37	3969	
270.58	4625.7	
270.79	5298.1	
271	6023.1	
271.21	4192.9	
271.42	4026.3	
271.63	5615.5	
271.84	5137.7	
272.05	3123.8	
272.26	3563.5	
272.47	5487.2	
272.68	5687.9	
272.89	3820.8	
273.11	4459.8	
273.32	5326.8	
273.53	6411.5	
273.74	4315.1	
273.95	4166.3	
274.16	6223.1	
274.37	5593	
274.58	4401.1	
274.79	3455.6	
275	5646.9	
275.21	6148	
275.42	5205.9	
275.63	4530.1	
275.84	5742.5	
276.05	7304.4	
276.26	4207.9	
276.47	3963.5	
276.68	5331.5	
276.89	6587	
277.1	4507.6	
277.31	3487.7	
277.52	5802.6	
277.73	5934.3	
277.94	3436.5	
278.15	3859.1	
278.36	5702.9	
278.57	5089.2	
278.78	3774.4	
278.99	4284.4	
279.2	5149.3	
279.41	5119.2	
279.62	5013.4	
279.83	3528	
280.04	6787.7	
280.25	5027.1	
280.46	5065.3	
280.67	3969.6	
280.88	5093.3	
281.09	6194.4	
281.3	4216.8	
281.51	5312.4	
281.72	5205.3	
281.93	6090	
282.14	3706.8	
282.35	4010.6	
282.56	6017.6	
282.77	5985.5	
282.98	3822.2	
283.19	4711	
283.4	7405.5	
283.61	5403.2	
283.82	3442.6	
284.03	4975.2	
284.24	5543.2	
284.45	6176.7	
284.66	4933.6	
284.87	4724.7	
285.08	6103.6	
285.29	6236.7	
285.5	3345.7	
285.71	3888.4	
285.92	6191	
286.12	6924.9	
286.33	4931.5	
286.54	3885	
286.75	5928.9	
286.96	5374.6	
287.17	3538.2	
287.38	4923.3	
287.59	5136.3	
287.8	5020.9	
288.01	3934.8	
288.22	4563.6	
288.43	6126.8	
288.64	5042.8	
288.85	4650.3	
289.06	4397	
289.27	5967.1	
289.48	6528.9	
289.69	4990.9	
289.9	4480.3	
290.11	6126.2	
290.32	5219.6	
290.53	4721.9	
290.74	4334.2	
290.94	5984.8	
291.15	5953.4	
291.36	3729.4	
291.57	4429.1	
291.78	5242.1	
291.99	4915.1	
292.2	3611.3	
292.41	4347.2	
292.62	6109.1	
292.83	5871.5	
293.04	5319.9	
293.25	3552.5	
293.46	5309.7	
293.67	6174.6	
293.88	3715.7	
294.09	3606.5	
294.29	5009.3	
294.5	5672.9	
294.71	4008.6	
294.92	3830.4	
295.13	5289.9	
295.34	6691.4	
295.55	3300.6	
295.76	3487	
295.97	5968.5	
296.18	6689.3	
296.39	3495.2	
296.6	3735.5	
296.81	5630.5	
297.01	5924.1	
297.22	3867.2	
297.43	3716.4	
297.64	5160.9	
297.85	5094.7	
298.06	3045.3	
298.27	3351.2	
298.48	5524.7	
298.69	5197.1	
298.9	3988.8	
299.11	3648.8	
299.31	5027.1	
299.52	5033.2	
299.73	4363.5	
299.94	4248.2	
300.15	5487.9	
300.36	5119.2	
300.57	4299.4	
300.78	4212	
300.99	5394.3	
301.2	5683.1	
301.4	3708.9	
301.61	4088.4	
301.82	5831.9	
302.03	5912.5	
302.24	4597.7	
302.45	3510.2	
302.66	5807.4	
302.87	6311.2	
303.08	3748.5	
303.29	5224.4	
303.49	5167	
303.7	5498.8	
303.91	3327.3	
304.12	4848.9	
304.33	5031.2	
304.54	5646.9	
304.75	3737.5	
304.96	3579.2	
305.16	5847.6	
305.37	6604.7	
305.58	3217.4	
305.79	3383.2	
306	5825.1	
306.21	4952	
306.42	3798.3	
306.63	5803.3	
306.83	5350.7	
307.04	6157.6	
307.25	4080.2	
307.46	4100.7	
307.67	4710.3	
307.88	6016.2	
308.09	3631.7	
308.29	3828.3	
308.5	5610.8	
308.71	6128.2	
308.92	4002.4	
309.13	3590.1	
309.34	5328.8	
309.55	5370.5	
309.75	4656.4	
309.96	4244.1	
310.17	5928.9	
310.38	5195.7	
310.59	4481	
310.8	4248.9	
311.01	5367.7	
311.21	5356.1	
311.42	3545	
311.63	3657.7	
311.84	5265.3	
312.05	5641.5	
312.26	4161.5	
312.46	4585.4	
312.67	5279.7	
312.88	5031.2	
313.09	3620.1	
313.3	3525.9	
313.51	6406	
313.71	6699.6	
313.92	3628.3	
314.13	3783.3	
314.34	5702.9	
314.55	5392.3	
314.76	4725.3	
314.96	4054.3	
315.17	5589.6	
315.38	5925.5	
315.59	3590.8	
315.8	3424.2	
316.01	6405.4	
316.21	6490	
316.42	3452.9	
316.63	4009.2	
316.84	5332.2	
317.05	6175.3	
317.26	4261.1	
317.46	3853.6	
317.67	5453.1	
317.88	5903.6	
318.09	4631.8	
318.3	3347.1	
318.5	5180	
318.71	5833.3	
318.92	5879	
319.13	4294.6	
319.34	6028.5	
319.54	6167.1	
319.75	3330	
319.96	3209.8	
320.17	5869.5	
320.38	6111.8	
320.58	3263.8	
320.79	3936.9	
321	6070.2	
321.21	6193.7	
321.42	4029.7	
321.62	3287	
321.83	5069.4	
322.04	5533.6	
322.25	3760.1	
322.46	3604.4	
322.66	5668.8	
322.87	5778.7	
323.08	4456.4	
323.29	3538.9	
323.5	6592.4	
323.7	5070.1	
323.91	4913.8	
324.12	4423.6	
324.33	5608	
324.53	5842.2	
324.74	4244.1	
324.95	4473.4	
325.16	4861.9	
325.37	5296	
325.57	3610.6	
325.78	3700.7	
325.99	5551.4	
326.2	4927.4	
326.4	5137	
326.61	3315.7	
326.82	5530.9	
327.03	5636	
327.24	5142.4	
327.44	4947.2	
327.65	5801.9	
327.86	4684.4	
328.07	4265.2	
328.27	3454.2	
328.48	6226.5	
328.69	5101.5	
328.9	5269.4	
329.1	3891.1	
329.31	5378.6	
329.52	6348.7	
329.73	3588	
329.93	4072	
330.14	5511.8	
330.35	5778	
330.56	6023.1	
330.76	4445.5	
330.97	5322.7	
331.18	5695.4	
331.39	4014	
331.59	3188.7	
331.8	6126.2	
332.01	6255.9	
332.22	3706.1	
332.42	4242	
332.63	5645.6	
332.84	5199.1	
333.05	4061.8	
333.25	3657.7	
333.46	5244.2	
333.67	5558.2	
333.88	3723.2	
334.08	4222.9	
334.29	8750.3	
334.5	6260	
334.7	3461.7	
334.91	5184.1	
335.12	5046.9	
335.33	5913.2	
335.53	4018.1	
335.74	5988.3	
335.95	5248.3	
336.16	5104.9	
336.36	3985.3	
336.57	4632.5	
336.78	5008.6	
336.98	6137.1	
337.19	4988.2	
337.4	3940.3	
337.61	6706.4	
337.81	5024.3	
338.02	3671.3	
338.23	4833.2	
338.43	6363.7	
338.64	5167.7	
338.85	3670	
339.05	4821.6	
339.26	6435.4	
339.47	4914.4	
339.68	3605.8	
339.88	5435.3	
340.09	5803.9	
340.3	6059.9	
340.5	4279.6	
340.71	3201.7	
340.92	4933.6	
341.13	6221	
341.33	3507.5	
341.54	4322.6	
341.75	5795.8	
341.95	5380.7	
342.16	4075.5	
342.37	4469.4	
342.57	5055.8	
342.78	5447.6	
342.99	4490.5	
343.19	3222.8	
343.4	5879.7	
343.61	5769.8	
343.81	3841.3	
344.02	3514.3	
344.23	5958.9	
344.43	6423.8	
344.64	4508.9	
344.85	4365.6	
345.06	5797.1	
345.26	6120.7	
345.47	4231.1	
345.68	4945.2	
345.88	4909	
346.09	6060.6	
346.3	4311.7	
346.5	3171.6	
346.71	5429.8	
346.92	5201.8	
347.12	3295.2	
347.33	4168.3	
347.54	6141.9	
347.74	6467.5	
347.95	4138.3	
348.16	3057.6	
348.36	5297.4	
348.57	4990.2	
348.78	4095.9	
348.98	4507.6	
349.19	5544.5	
349.39	4967.7	
349.6	3322.5	
349.81	3676.1	
350.01	5696.1	
350.22	5188.9	
350.43	3964.9	
350.63	4885.1	
350.84	5525.4	
351.05	5297.4	
351.25	3672.7	
351.46	3244.7	
351.67	6133	
351.87	5155.4	
352.08	3937.6	
352.29	4430.4	
352.49	5942.5	
352.7	5689.9	
352.9	3510.9	
353.11	4352.6	
353.32	6675	
353.52	5289.2	
353.73	3450.8	
353.94	4493.9	
354.14	5806	
354.35	5617.6	
354.55	3590.1	
354.76	4009.2	
354.97	5726.8	
355.17	5533.6	
355.38	3420.1	
355.59	4745.1	
355.79	5115.8	
356	5621	
356.2	3948.5	
356.41	3365.5	
356.62	4919.2	
356.82	5401.9	
357.03	4256.4	
357.24	3818.1	
357.44	5197.7	
357.65	5279	
357.85	5113.1	
358.06	3977.2	
358.27	4855.7	
358.47	5092.6	
358.68	3241.3	
358.88	4207.9	
359.09	5740.5	
359.3	6135	
359.5	4936.3	
359.71	4325.3	
359.91	6640.9	
360.12	5891.3	
360.33	4130.1	
360.53	4678.2	
360.74	5120.6	
360.94	5175.2	
361.15	4440	
361.36	3558	
361.56	5930.2	
361.77	5352.7	
361.97	4868.7	
362.18	3818.1	
362.38	5950	
362.59	4978.6	
362.8	3477.5	
363	3334.1	
363.21	4727.4	
363.41	5464	
363.62	4072.7	
363.83	5107	
364.03	5565.7	
364.24	6603.3	
364.44	5177.9	
364.65	5015.5	
364.85	5259.9	
365.06	4865.3	
365.27	3657.7	
365.47	3659	
365.68	6289.3	
365.88	5255.8	
366.09	4074.8	
366.29	3760.1	
366.5	5522	
366.71	5993	
366.91	5091.9	
367.12	4216.8	
367.32	6560.3	
367.53	5781.4	
367.73	4171	
367.94	5194.3	
368.14	5717.2	
368.35	6664.8	
368.56	4108.2	
368.76	3891.1	
368.97	5830.6	
369.17	7716.7	
369.38	3635.8	
369.58	3893.2	
369.79	4907.6	
369.99	6257.9	
370.2	4928.8	
370.4	4032.5	
370.61	5513.1	
370.82	6744.6	
371.02	3876.8	
371.23	3192.8	
371.43	4708.3	
371.64	6106.4	
371.84	3908.9	
372.05	5196.4	
372.25	7468.9	
372.46	5840.1	
372.66	3837.2	
372.87	3821.5	
373.07	5888.6	
373.28	7548.8	
373.48	4633.9	
373.69	4642.7	
373.9	5337.7	
374.1	5322.7	
374.31	4829.8	
374.51	4330.8	
374.72	6094.8	
374.92	4973.8	
375.13	4992.9	
375.33	4166.9	
375.54	5672.9	
375.74	5108.3	
375.95	4181.3	
376.15	5406	
376.36	5643.5	
376.56	5517.9	
376.77	4234.5	
376.97	4734.2	
377.18	6780.1	
377.38	5730.9	
377.59	5073.5	
377.79	3604.4	
378	5470.8	
378.2	5965.7	
378.41	3695.2	
378.61	3599.6	
378.82	6010.1	
379.02	5027.8	
379.23	3859.1	
379.43	5066.7	
379.64	6052.4	
379.84	5654.4	
380.05	3680.9	
380.25	3605.1	
380.46	5801.2	
380.66	5311.1	
380.87	5091.9	
381.07	5495.4	
381.28	6481.1	
381.48	5783.5	
381.69	3755.3	
381.89	3790.8	
382.1	4655	
382.3	5976.7	
382.51	4962.2	
382.71	5857.2	
382.91	5859.2	
383.12	6383.5	
383.32	4141	
383.53	4442.7	
383.73	5595.1	
383.94	5454.4	
384.14	4324.6	
384.35	3340.9	
384.55	5429.8	
384.76	5854.5	
384.96	4102.1	
385.17	4481.6	
385.37	5799.8	
385.58	5139.7	
385.78	4506.2	
385.98	3313.6	
386.19	5280.3	
386.39	5681.1	
386.6	3926	
386.8	4108.9	
387.01	5840.1	
387.21	5827.8	
387.42	4573.1	
387.62	5155.4	
387.83	5143.8	
388.03	5736.4	
388.23	4151.9	
388.44	5029.1	
388.64	4651.6	
388.85	4789.5	
389.05	4505.5	
389.26	5119.9	
389.46	6761.7	
389.67	6133	
389.87	4479.6	
390.07	4649.6	
390.28	5410.1	
390.48	4947.2	
390.69	3677.5	
390.89	4044.7	
391.1	5106.3	
391.3	6077.7	
391.5	5236.7	
391.71	5935	
391.91	5776.6	
392.12	6849.8	
392.32	5347.9	
392.53	4521.9	
392.73	5210.7	
392.93	5427.8	
393.14	4150.6	
393.34	5001.1	
393.55	5966.4	
393.75	5390.3	
393.95	4216.1	
394.16	4145.8	
394.36	5117.9	
394.57	5841.5	
394.77	3580.5	
394.98	4064.5	
395.18	5035.3	
395.38	5263.3	
395.59	4951.3	
395.79	3868.6	
396	5126.7	
396.2	5646.9	
396.4	4678.2	
396.61	4636.6	
396.81	5857.9	
397.02	5074.2	
397.22	4931.5	
397.42	4945.8	
397.63	5843.5	
397.83	4941.7	
398.04	3757.3	
398.24	4257.7	
398.44	5659.9	
398.65	4632.5	
398.85	3584.6	
399.05	3715	
399.26	4890.5	
399.46	6692.8	
399.67	4078.9	
399.87	3779.2	
400.07	5278.3	
400.28	5721.3	
400.48	3845.4	
400.69	4985.4	
400.89	5855.1	
401.09	6283.9	
401.3	3663.8	
401.5	4946.5	
401.7	6498.9	
401.91	6901	
402.11	4115.7	
402.32	4359.4	
402.52	5905	
402.72	5927.5	
402.93	4555.4	
403.13	3433.8	
403.33	6789.7	
403.54	5466	
403.74	4293.9	
403.94	5248.3	
404.15	5483.8	
404.35	6678.4	
404.56	4076.1	
404.76	5971.2	
404.96	5913.9	
405.17	5670.1	
405.37	5385.5	
405.57	4500.1	
405.78	5943.2	
405.98	5403.2	
406.18	4006.5	
406.39	4986.8	
406.59	5890.6	
406.79	5552	
407	3801.7	
407.2	3936.2	
407.4	5897.5	
407.61	6107.7	
407.81	3884.3	
408.01	6188.3	
408.22	4734.9	
408.42	6858	
408.62	4906.9	
408.83	4315.1	
409.03	5398.4	
409.23	5063.3	
409.44	4326.7	
409.64	4726.7	
409.84	6173.9	
410.05	6088.6	
410.25	4451.6	
410.45	4238.6	
410.66	5482.4	
410.86	8021.2	
411.06	4556	
411.27	4467.3	
411.47	7737.9	
411.67	5601.9	
411.88	4666	
412.08	4851.6	
412.28	6277	
412.49	6835.4	
412.69	4354.7	
412.89	4358.8	
413.09	6609.5	
413.3	6421.7	
413.5	4457.1	
413.7	3938.2	
413.91	5666.7	
414.11	6531	
414.31	4202.4	
414.52	4650.9	
414.72	6143.2	
414.92	6041.5	
415.12	4203.8	
415.33	4770.4	
415.53	6398.5	
415.73	6580.1	
415.94	5199.1	
416.14	4538.3	
416.34	5369.1	
416.55	5186.1	
416.75	5823.7	
416.95	5155.4	
417.15	6329.6	
417.36	7153.6	
417.56	5943.9	
417.76	4911	
417.97	6747.4	
418.17	6343.9	
418.37	4465.9	
418.57	4574.5	
418.78	6142.5	
418.98	5872.9	
419.18	5483.1	
419.38	5453.7	
419.59	5943.9	
419.79	5509.7	
419.99	4469.4	
420.2	4956.1	
420.4	6377.4	
420.6	6602.7	
420.8	4398.4	
421.01	4179.9	
421.21	6182.1	
421.41	6443.6	
421.61	4827.7	
421.82	4445.5	
422.02	5726.8	
422.22	6773.3	
422.42	5296.7	
422.63	5007.3	
422.83	5841.5	
423.03	7047.7	
423.23	5060.5	
423.44	3902.1	
423.64	6019	
423.84	5765	
424.04	4403.8	
424.25	4027.7	
424.45	6965.1	
424.65	6901	
424.85	3875.4	
425.06	4450.2	
425.26	6881.2	
425.46	5384.1	
425.66	5006.6	
425.87	4611.3	
426.07	6701.6	
426.27	6541.9	
426.47	4876.9	
426.67	4185.4	
426.88	7008.8	
427.08	6473.6	
427.28	5038	
427.48	4152.6	
427.69	5324.7	
427.89	6008.1	
428.09	5062.6	
428.29	4143	
428.5	6771.3	
428.7	6219.7	
428.9	4042.7	
429.1	4687.8	
429.3	6127.5	
429.51	6629.3	
429.71	4397.7	
429.91	5155.4	
430.11	6399.2	
430.31	6650.4	
430.52	4695.3	
430.72	4935.6	
430.92	7074.4	
431.12	6464.8	
431.32	4334.9	
431.53	4799.1	
431.73	5296	
431.93	7104.4	
432.13	4166.9	
432.33	4052.2	
432.54	5836	
432.74	6160.3	
432.94	3990.1	
433.14	5091.3	
433.34	6324.1	
433.55	5726.8	
433.75	5013.4	
433.95	6771.9	
434.15	6034.7	
434.35	5698.1	
434.56	4192.2	
434.76	3657.7	
434.96	6071.5	
435.16	6288.6	
435.36	3991.5	
435.56	5162.2	
435.77	5621	
435.97	5821	
436.17	5933	
436.37	5060.5	
436.57	5614.8	
436.78	5508.4	
436.98	5685.2	
437.18	5776	
437.38	6236.7	
437.58	5840.8	
437.78	5835.3	
437.99	4489.1	
438.19	6442.9	
438.39	7246.4	
438.59	4421.6	
438.79	3930.1	
438.99	7133.1	
439.2	5791.7	
439.4	4052.2	
439.6	3992.9	
439.8	6198.5	
440	7228	
440.2	4982	
440.4	5138.4	
440.61	6415.6	
440.81	7038.9	
441.01	4072	
441.21	5065.3	
441.41	6784.9	
441.61	6513.2	
441.81	5284.4	
442.02	6379.4	
442.22	7342	
442.42	6569.2	
442.62	4160.1	
442.82	4171	
443.02	6839.5	
443.22	5857.2	
443.43	4567.7	
443.63	4169.7	
443.83	5753.4	
444.03	5786.9	
444.23	5378.6	
444.43	4997	
444.63	5965.7	
444.83	7299	
445.04	4183.3	
445.24	5616.2	
445.44	6457.2	
445.64	6572.6	
445.84	5143.1	
446.04	5130.8	
446.24	5825.8	
446.44	6964.5	
446.65	4335.5	
446.85	4683.7	
447.05	6292	
447.25	6827.9	
447.45	4768.4	
447.65	4111	
447.85	6150.1	
448.05	5909.8	
448.25	5155.4	
448.46	4976.6	
448.66	6165.8	
448.86	5877.7	
449.06	3916.4	
449.26	5216.9	
449.46	6503	
449.66	5513.8	
449.86	4657.8	
450.06	4610.7	
450.26	5640.1	
450.47	6325.5	
450.67	5020.3	
450.87	5240.8	
451.07	6337.8	
451.27	6150.7	
451.47	4207.9	
451.67	4765.6	
451.87	5806.7	
452.07	7071	
452.27	4395.6	
452.47	4427	
452.67	6110.5	
452.88	6780.8	
453.08	3834.5	
453.28	5910.4	
453.48	7344	
453.68	6130.3	
453.88	4241.3	
454.08	4529.4	
454.28	6414.2	
454.48	6090.7	
454.68	5120.6	
454.88	5654.4	
455.08	6561	
455.28	6234.7	
455.48	4161.5	
455.68	4700.8	
455.89	7025.9	
456.09	6701.6	
456.29	4459.1	
456.49	4486.4	
456.69	6769.2	
456.89	6071.5	
457.09	5020.9	
457.29	5340.4	
457.49	6386.2	
457.69	6496.2	
457.89	4734.9	
458.09	4216.1	
458.29	6161.7	
458.49	6807.4	
458.69	5125.4	
458.89	4550.6	
459.09	7056.6	
459.29	7211.6	
459.49	4709	
459.69	5476.3	
459.9	6627.2	
460.1	6028.5	
460.3	4571.1	
460.5	4298.7	
460.7	6497.5	
460.9	6207.4	
461.1	3928.7	
461.3	5303.6	
461.5	7120.8	
461.7	6801.3	
461.9	4276.8	
462.1	4846.2	
462.3	6145.3	
462.5	6731	
462.7	4345.1	
462.9	4406.5	
463.1	7791.2	
463.3	7387	
463.5	4620.9	
463.7	5461.9	
463.9	6235.4	
464.1	6639.5	
464.3	4616.8	
464.5	4941.7	
464.7	6998.6	
464.9	6404.7	
465.1	6343.9	
465.3	5258.5	
465.5	7251.9	
465.7	7154.9	
465.9	5474.2	
466.1	5449	
466.3	6884.6	
466.5	6849.8	
466.7	6167.1	
466.9	5025.7	
467.1	6737.8	
467.3	7599.3	
467.5	6031.3	
467.7	4909.7	
467.9	7946.8	
468.1	8815.8	
468.3	5825.1	
468.5	6172.6	
468.7	6679.1	
468.9	6585.6	
469.1	5183.4	
469.3	5967.1	
469.5	8629.5	
469.7	6094.1	
469.9	5677.7	
470.1	4926.7	
470.3	6616.3	
470.5	6626.5	
470.7	6221	
470.9	5018.2	
471.1	6346.7	
471.3	6888	
471.5	4776.5	
471.69	6926.9	
471.89	6314.6	
472.09	5837.4	
472.29	5633.3	
472.49	6184.2	
472.69	6087.2	
472.89	6929	
473.09	4711.7	
473.29	4960.2	
473.49	6248.4	
473.69	6519.4	
473.89	5995.1	
474.09	5126.7	
474.29	7838.9	
474.49	7462.1	
474.69	5890.6	
474.89	5313.8	
475.09	6425.8	
475.29	6373.3	
475.49	4698	
475.69	4889.2	
475.88	8252.6	
476.08	6744.6	
476.28	4552	
476.48	5181.4	
476.68	7318.8	
476.88	7195.2	
477.08	4995	
477.28	5251.7	
477.48	6621.8	
477.68	7316	
477.88	4712.4	
478.08	5201.2	
478.28	7601.4	
478.48	6810.2	
478.67	5152.7	
478.87	4659.8	
479.07	7407.5	
479.27	6919.4	
479.47	5426.4	
479.67	5376.6	
479.87	7245	
480.07	7785.7	
480.27	4607.2	
480.47	6311.8	
480.67	6912.6	
480.87	7470.3	
481.06	4922.6	
481.26	5758.9	
481.46	6823.8	
481.66	6759.7	
481.86	5410.1	
482.06	6534.4	
482.26	6508.4	
482.46	7715.4	
482.66	5358.9	
482.86	4811.4	
483.05	6836.8	
483.25	6275.7	
483.45	7815	
483.65	5303.6	
483.85	6401.3	
484.05	6729.6	
484.25	5732.9	
484.45	6177.4	
484.65	7700.4	
484.84	7533.8	
485.04	5113.8	
485.24	5169.1	
485.44	7836.2	
485.64	6143.9	
485.84	4445.5	
486.04	5828.5	
486.24	6521.4	
486.44	6860.7	
486.63	4369	
486.83	5193	
487.03	6307.1	
487.23	6503.7	
487.43	4477.5	
487.63	6965.8	
487.83	6617.7	
488.02	7552.2	
488.22	5442.1	
488.42	6094.1	
488.62	7497.6	
488.82	6336.4	
489.02	5089.9	
489.22	5109	
489.41	7385	
489.61	6893.5	
489.81	4845.5	
490.01	4833.2	
490.21	7163.1	
490.41	7912	
490.61	4798.4	
490.8	4965.6	
491	6719.4	
491.2	6120.7	
491.4	5611.4	
491.6	4569	
491.8	6768.5	
491.99	6985.6	
492.19	4551.3	
492.39	4949.9	
492.59	7310.6	
492.79	7266.2	
492.99	5723.4	
493.18	4775.2	
493.38	7268.2	
493.58	8043.7	
493.78	5443.5	
493.98	5096.7	
494.18	6932.4	
494.37	6367.8	
494.57	5571.2	
494.77	5478.3	
494.97	7115.3	
495.17	7275.1	
495.37	5061.2	
495.56	5330.9	
495.76	7490.8	
495.96	7193.1	
496.16	6219	
496.36	5118.6	
496.55	7309.2	
496.75	6831.3	
496.95	5560.9	
497.15	5403.2	
497.35	7260.7	
497.54	7189.1	
497.74	5150.6	
497.94	6962.4	
498.14	7981.6	
498.34	7733.1	
498.53	4799.1	
498.73	5646.2	
498.93	6546	
499.13	7186.3	
499.33	5370.5	
499.52	5938.4	
499.72	7091.4	
499.92	7550.2	
500.12	5059.8	
500.32	5329.5	
500.51	7435.5	
500.71	7201.3	
500.91	6165.1	
501.11	5750.7	
501.31	7367.9	
501.5	7784.3	
501.7	6399.9	
501.9	5242.8	
502.1	7182.9	
502.29	7533.8	
502.49	5795.8	
502.69	6435.4	
502.89	7388.4	
503.09	7372.7	
503.28	4954	
503.48	5014.8	
503.68	6609.5	
503.88	6693.4	
504.07	6065.4	
504.27	5558.9	
504.47	6987	
504.67	7234.8	
504.86	6013.5	
505.06	5734.3	
505.26	6791.7	
505.46	8733.9	
505.65	5611.4	
505.85	5922	
506.05	6724.8	
506.25	7197.2	
506.44	4971.8	
506.64	6074.3	
506.84	6693.4	
507.04	7618.4	
507.23	5223.7	
507.43	5864	
507.63	8803.5	
507.83	6993.8	
508.02	5806.7	
508.22	5384.8	
508.42	9065.7	
508.62	6688.7	
508.81	5694.7	
509.01	6313.2	
509.21	6569.2	
509.4	6811.5	
509.6	5874.3	
509.8	5219.6	
510	6912.6	
510.19	8291.5	
510.39	5294	
510.59	5303.6	
510.79	6586.3	
510.98	8111.3	
511.18	5310.4	
511.38	5530.2	
511.57	7498.3	
511.77	7357	
511.97	6199.9	
512.17	5077.6	
512.36	7447.1	
512.56	7521.5	
512.76	5271.5	
512.95	4956.8	
513.15	7567.2	
513.35	6206.7	
513.55	6154.1	
513.74	5262.6	
513.94	7594.6	
514.14	6926.2	
514.33	6251.8	
514.53	5847	
514.73	6818.4	
514.92	7072.3	
515.12	5401.2	
515.32	5180	
515.51	7137.9	
515.71	7781.6	
515.91	6989	
516.11	5204.6	
516.3	8912.8	
516.5	6721.4	
516.7	5809.4	
516.89	6465.4	
517.09	6904.4	
517.29	6713.9	
517.48	6223.1	
517.68	5494.7	
517.88	6565.1	
518.07	7218.4	
518.27	6020.3	
518.47	5048.2	
518.66	7847.8	
518.86	6440.2	
519.06	4883.7	
519.25	5382.7	
519.45	6790.4	
519.65	8247.9	
519.84	6029.2	
520.04	6755.6	
520.24	8662.9	
520.43	7483.3	
520.63	5756.2	
520.83	5511.1	
521.02	6613.6	
521.22	7328.3	
521.42	6057.2	
521.61	6659.3	
521.81	6871.6	
522.01	7094.2	
522.2	5864.7	
522.4	5709.1	
522.6	7499	
522.79	6288.6	
522.99	5636.7	
523.18	4818.2	
523.38	7279.2	
523.58	7167.2	
523.77	6936.5	
523.97	4926.7	
524.17	9039.1	
524.36	8219.9	
524.56	6217.6	
524.76	5887.2	
524.95	7118.7	
525.15	6694.1	
525.34	5586.2	
525.54	5582.1	
525.74	7421.8	
525.93	6384.2	
526.13	6854.6	
526.33	5575.9	
526.52	7836.2	
526.72	7137.2	
526.91	6759	
527.11	6043.6	
527.31	7836.9	
527.5	8170	
527.7	5905.7	
527.89	4858.5	
528.09	6662.7	
528.29	7175.4	
528.48	6268.8	
528.68	5943.9	
528.87	7623.2	
529.07	7677.2	
529.27	5887.2	
529.46	5408	
529.66	7289.4	
529.85	7750.2	
530.05	5232.6	
530.25	6059.9	
530.44	8675.9	
530.64	7174	
530.83	5598.5	
531.03	5810.8	
531.23	7610.3	
531.42	7460.1	
531.62	6655.2	
531.81	5711.1	
532.01	7705.1	
532.21	8182.3	
532.4	5477.6	
532.6	5873.6	
532.79	8652.7	
532.99	7643	
533.18	5837.4	
533.38	6839.5	
533.58	7140.6	
533.77	7964.6	
533.97	5777.3	
534.16	6683.9	
534.36	8236.9	
534.55	7200.7	
534.75	6807.4	
534.95	5831.2	
535.14	7952.3	
535.34	7126.2	
535.53	5545.2	
535.73	7613	
535.92	8593.3	
536.12	7457.3	
536.31	5617.6	
536.51	6813.6	
536.71	7748.1	
536.9	7343.3	
537.1	5878.4	
537.29	5858.6	
537.49	8214.4	
537.68	7138.5	
537.88	6329.6	
538.07	5542.5	
538.27	7320.8	
538.46	8526.4	
538.66	5459.2	
538.86	5859.2	
539.05	7489.4	
539.25	7943.4	
539.44	6178	
539.64	5788.9	
539.83	7303.1	
540.03	8394.6	
540.22	5648.3	
540.42	5820.3	
540.61	7658.7	
540.81	7780.2	
541	6326.9	
541.2	6896.2	
541.39	7074.4	
541.59	7581.6	
541.78	6618.4	
541.98	5663.3	
542.18	6835.4	
542.37	6814.3	
542.57	6189	
542.76	6681.8	
542.96	6962.4	
543.15	7740.6	
543.35	6211.5	
543.54	5515.9	
543.74	8113.4	
543.93	7588.4	
544.13	6209.4	
544.32	7318.1	
544.52	7936.6	
544.71	7092.8	
544.91	5305.6	
545.1	6595.8	
545.3	7130.3	
545.49	7842.4	
545.69	5233.9	
545.88	5922	
546.08	8839	
546.27	8476.5	
546.47	6498.2	
546.66	5668.1	
546.86	8084	
547.05	8766	
547.24	5906.3	
547.44	5782.1	
547.63	7109.2	
547.83	8303.8	
548.02	6186.2	
548.22	6418.3	
548.41	6895.5	
548.61	8290.2	
548.8	5707.7	
549	5689.3	
549.19	7563.8	
549.39	7763.2	
549.58	5494	
549.78	6073.6	
549.97	8012.3	
550.17	7453.2	
550.36	6984.9	
550.55	7946.8	
550.75	7450.5	
550.94	8395.3	
551.14	5742.5	
551.33	6183.5	
551.53	6755.6	
551.72	7864.9	
551.92	6298.2	
552.11	5958.9	
552.31	7880.6	
552.5	8025.3	
552.69	7694.9	
552.89	5548.6	
553.08	7858.1	
553.28	7574.8	
553.47	5878.4	
553.67	7160.4	
553.86	8594	
554.06	6804.7	
554.25	5091.3	
554.44	5814.2	
554.64	9336.7	
554.83	8782.4	
555.03	5672.9	
555.22	6068.1	
555.42	8073.8	
555.61	7821.9	
555.8	5952.1	
556	6256.5	
556.19	6922.1	
556.39	8213.7	
556.58	5947.3	
556.78	5949.3	
556.97	7725.6	
557.16	7402	
557.36	7284.6	
557.55	5622.4	
557.75	6684.6	
557.94	8467	
558.13	5668.1	
558.33	5493.3	
558.52	8318.8	
558.72	7138.5	
558.91	5597.1	
559.1	5782.8	
559.3	6819.1	
559.49	6528.9	
559.69	5175.9	
559.88	6234.7	
560.07	7690.8	
560.27	8132.5	
560.46	6511.9	
560.66	6618.4	
560.85	7516.7	
561.04	6601.3	
561.24	5583.4	
561.43	5827.2	
561.63	7032.7	
561.82	7193.8	
562.01	7178.8	
562.21	6118	
562.4	7705.1	
562.59	8664.3	
562.79	6135	
562.98	5570.5	
563.18	7501	
563.37	9099.1	
563.56	6496.8	
563.76	5472.2	
563.95	7018.4	
564.14	6926.2	
564.34	5956.9	
564.53	5683.1	
564.73	7539.9	
564.92	7867.6	
565.11	6084.5	
565.31	5492.7	
565.5	8098.4	
565.69	7006.8	
565.89	5647.6	
566.08	5997.8	
566.27	8028	
566.47	8382.3	
566.66	6623.8	
566.85	5231.2	
567.05	7649.2	
567.24	6926.2	
567.44	5488.6	
567.63	7065.5	
567.82	7866.2	
568.02	7550.9	
568.21	5588.9	
568.4	6001.9	
568.6	7423.2	
568.79	7421.2	
568.98	5356.8	
569.18	5612.8	
569.37	7367.2	
569.56	9476.6	
569.76	5890	
569.95	6900.3	
570.14	7760.4	
570.34	7683.3	
570.53	5399.1	
570.72	5379.3	
570.91	8256.7	
571.11	7352.9	
571.3	5905	
571.49	6828.6	
571.69	7408.2	
571.88	6967.2	
572.07	6527.6	
572.27	6568.5	
572.46	6951.5	
572.65	8069.7	
572.85	5624.4	
573.04	5979.4	
573.23	8206.9	
573.43	7506.5	
573.62	5356.8	
573.81	6044.2	
574	7413	
574.2	7314.7	
574.39	5692	
574.58	5905	
574.78	8228.1	
574.97	7514.7	
575.16	6273.6	
575.36	6451.1	
575.55	7861.5	
575.74	8090.8	
575.93	5288.5	
576.13	6451.8	
576.32	7299.6	
576.51	7843	
576.71	5806.7	
576.9	7230	
577.09	8234.2	
577.28	7730.4	
577.48	6355.5	
577.67	5221.6	
577.86	7292.1	
578.05	7696.9	
578.25	5889.3	
578.44	6027.2	
578.63	7505.1	
578.83	8588.5	
579.02	5333.6	
579.21	6897.6	
579.4	7671.7	
579.6	7295.5	
579.79	6089.3	
579.98	8393.9	
580.17	8075.8	
580.37	8060.1	
580.56	5614.8	
580.75	6310.5	
580.94	8552.3	
581.14	8334.6	
581.33	6742.6	
581.52	5681.7	
581.71	7875.8	
581.91	8525.7	
582.1	5286.5	
582.29	5990.3	
582.48	7458.7	
582.68	7367.2	
582.87	6569.2	
583.06	6080.4	
583.25	7776.8	
583.45	7107.1	
583.64	6774.7	
583.83	7500.3	
584.02	7256.6	
584.21	7860.8	
584.41	6726.2	
584.6	6031.3	
584.79	7417.1	
584.98	8338	
585.18	5416.9	
585.37	5412.1	
585.56	7040.2	
585.75	7766.6	
585.94	5818.3	
586.14	6408.1	
586.33	8454.7	
586.52	7590.5	
586.71	6257.2	
586.91	5941.8	
587.1	6892.8	
587.29	8023.3	
587.48	5911.1	
587.67	5819.6	
587.87	7905.2	
588.06	7939.3	
588.25	7154.2	
588.44	6490	
588.63	7534.5	
588.83	8213	
589.02	5976	
589.21	5866.1	
589.4	7399.3	
589.59	7149.5	
589.78	5196.4	
589.98	5476.3	
590.17	6938.5	
590.36	7552.2	
590.55	4924	
590.74	5909.8	
590.94	9045.2	
591.13	7451.2	
591.32	5556.1	
591.51	5080.3	
591.7	7982.3	
591.89	7462.8	
592.09	5229.8	
592.28	5655.8	
592.47	6604	
592.66	8512	
592.85	5201.2	
593.05	5465.3	
593.24	7262.8	
593.43	8032.1	
593.62	5485.8	
593.81	6001.9	
594	7177.4	
594.19	7496.2	
594.39	5480.4	
594.58	5315.2	
594.77	7634.8	
594.96	8321.6	
595.15	5320.6	
595.34	6010.1	
595.54	7788.4	
595.73	6750.1	
595.92	4766.3	
596.11	5824.4	
596.3	8196.7	
596.49	6828.6	
596.68	5696.1	
596.88	6218.3	
597.07	7933.8	
597.26	6608.8	
597.45	5158.8	
597.64	6445.6	
597.83	6939.2	
598.02	7586.4	
598.22	5289.9	
598.41	6095.4	
598.6	7271	
598.79	6738.5	
598.98	5399.8	
599.17	6293.4	
599.36	7385	
599.55	8611	
599.74	7459.4	
599.94	7150.8	
600.13	7963.2	
600.32	6791.1	
600.51	5122.7	
600.7	5165	
600.89	8757.8	
601.08	8702.5	
601.27	5081	
601.47	6110.5	
601.66	7930.4	
601.85	8573.5	
602.04	5653.8	
602.23	5905	
602.42	6853.9	
602.61	7623.2	
602.8	5694.7	
602.99	5364.3	
603.18	7252.5	
603.37	7525.6	
603.57	6053.8	
603.76	6671.6	
603.95	8366.6	
604.14	7845.1	
604.33	5473.5	
604.52	5913.2	
604.71	7421.2	
604.9	7064.1	
605.09	6483.2	
605.28	6262.7	
605.47	8067.6	
605.66	7818.5	
605.86	6148.7	
606.05	5547.3	
606.24	8104.5	
606.43	6713.2	
606.62	5803.9	
606.81	6679.1	
607	7968	
607.19	7282.6	
607.38	5258.5	
607.57	5572.5	
607.76	7040.2	
607.95	6493.4	
608.14	5993	
608.33	6481.8	
608.52	7032.7	
608.72	7981.6	
608.91	5139.7	
609.1	5051	
609.29	7145.4	
609.48	6655.9	
609.67	6150.7	
609.86	5232.6	
610.05	6730.3	
610.24	7131.7	
610.43	4958.8	
610.62	4734.2	
610.81	8298.4	
611	8008.2	
611.19	5176.6	
611.38	5922.7	
611.57	7384.3	
611.76	8862.9	
611.95	4952	
612.14	4885.1	
612.33	7219.8	
612.52	6716	
612.71	5537	
612.9	4715.1	
613.09	6355.5	
613.28	8791.2	
613.47	5259.9	
613.66	6319.3	
613.85	7266.9	
614.04	6868.2	
614.24	5317.2	
614.43	4552	
614.62	7557	
614.81	7387	
615	5909.1	
615.19	5998.5	
615.38	6681.8	
615.57	7105.1	
615.76	5773.9	
615.95	6787.7	
616.14	7555.6	
616.33	7196.6	
616.52	6159.6	
616.71	6362.4	
616.9	7462.1	
617.09	7352.2	
617.28	5474.9	
617.47	6788.3	
617.66	6574	
617.85	6565.8	
618.04	6320	
618.22	5696.1	
618.41	6892.8	
618.6	7740	
618.79	5623	
618.98	5367.7	
619.17	8101.8	
619.36	6362.4	
619.55	5428.5	
619.74	5534.3	
619.93	7360.4	
620.12	6695.5	
620.31	6135	
620.5	6225.8	
620.69	7849.9	
620.88	8357.1	
621.07	6970.6	
621.26	5930.2	
621.45	7528.3	
621.64	7481.9	
621.83	6052.4	
622.02	5212.8	
622.21	7533.8	
622.4	7269.6	
622.59	6632	
622.78	6307.1	
622.97	6836.1	
623.16	7897	
623.35	5952.1	
623.54	5147.9	
623.72	6984.9	
623.91	7262.8	
624.1	6284.5	
624.29	4885.8	
624.48	8308.6	
624.67	7490.1	
624.86	6121.4	
625.05	5163.6	
625.24	8503.8	
625.43	6758.3	
625.62	7943.4	
625.81	5298.1	
626	7859.4	
626.19	7042.3	
626.38	6253.1	
626.56	5601.9	
626.75	6918.7	
626.94	7673.7	
627.13	6232.7	
627.32	4855.1	
627.51	7569.3	
627.7	9083.4	
627.89	5049.6	
628.08	6233.3	
628.27	6752.8	
628.46	6870.9	
628.65	5309.7	
628.83	4956.8	
629.02	7519.5	
629.21	6825.2	
629.4	5788.9	
629.59	6045.6	
629.78	6739.2	
629.97	7759.1	
630.16	6035.4	
630.35	5442.8	
630.54	8228.1	
630.72	7917.4	
630.91	5408.7	
631.1	6029.9	
631.29	7395.9	
631.48	7643.7	
631.67	6227.9	
631.86	5629.2	
632.05	6924.2	
632.24	7025.2	
632.42	5281.7	
632.61	5878.4	
632.8	7151.5	
632.99	6728.9	
633.18	5851.7	
633.37	6266.1	
633.56	7394.5	
633.75	7210.2	
633.93	5872.2	
634.12	5477	
634.31	8215.8	
634.5	7832.1	
634.69	5548.6	
634.88	6111.1	
635.07	7135.8	
635.25	7857.4	
635.44	6520	
635.63	6783.6	
635.82	6972.7	
636.01	6543.9	
636.2	6429.9	
636.39	5911.1	
636.57	8145.5	
636.76	7929.7	
636.95	5375.2	
637.14	6892.8	
637.33	7497.6	
637.52	8396	
637.7	5168.4	
637.89	6232.7	
638.08	7004.7	
638.27	8598.1	
638.46	6257.2	
638.65	6771.3	
638.83	8628.8	
639.02	6873	
639.21	6182.1	
639.4	6682.5	
639.59	7452.6	
639.78	6978.8	
639.96	5487.9	
640.15	5485.8	
640.34	7304.4	
640.53	7476.5	
640.72	5197.7	
640.91	5484.5	
641.09	6726.2	
641.28	8196.7	
641.47	5501.5	
641.66	6444.3	
641.85	7393.2	
642.03	7728.4	
642.22	6189	
642.41	5649.7	
642.6	6825.2	
642.79	6203.3	
642.97	5441.5	
643.16	6201.9	
643.35	6894.8	
643.54	6623.1	
643.73	5405.3	
643.91	6216.3	
644.1	6498.2	
644.29	7068.9	
644.48	5526.8	
644.67	5508.4	
644.85	6733	
645.04	7131	
645.23	5106.3	
645.42	5391.6	
645.6	6638.8	
645.79	7931.8	
645.98	5414.1	
646.17	4473.4	
646.36	6384.2	
646.54	7077.1	
646.73	6300.9	
646.92	5152	
647.11	6670.9	
647.29	7833.5	
647.48	5109	
647.67	4932.9	
647.86	8073.1	
648.05	7980.9	
648.23	5467.4	
648.42	6911.9	
648.61	7485.3	
648.8	7160.4	
648.98	5188.2	
649.17	5476.3	
649.36	6643.6	
649.55	6165.8	
649.73	5126.1	
649.92	6011.5	
650.11	6594.5	
650.3	6944	
650.48	5341.8	
650.67	5122.7	
650.86	7288.7	
651.05	6066.8	
651.23	5382.1	
651.42	5257.1	
651.61	6687.3	
651.79	6868.9	
651.98	5515.2	
652.17	5063.9	
652.36	7223.2	
652.54	6200.6	
652.73	5183.4	
652.92	4910.3	
653.11	7232.7	
653.29	7326.9	
653.48	4414.1	
653.67	5554.1	
653.85	6971.3	
654.04	8118.1	
654.23	5785.5	
654.42	5246.9	
654.6	6596.5	
654.79	7247.1	
654.98	4786.1	
655.16	5399.1	
655.35	6208.8	
655.54	6128.2	
655.73	4863.2	
655.91	4788.8	
656.1	7397.3	
656.29	6081.1	
656.47	4348.5	
656.66	6117.3	
656.85	6349.4	
657.03	6339.8	
657.22	4950.6	
657.41	4947.9	
657.59	6470.9	
657.78	6218.3	
657.97	4545.1	
658.16	5353.4	
658.34	7109.9	
658.53	7508.5	
658.72	6256.5	
658.9	6802	
659.09	6467.5	
659.28	6583.5	
659.46	5128.8	
659.65	5044.8	
659.84	6277.7	
660.02	6881.2	
660.21	4861.9	
660.4	4787.5	
660.58	7344	
660.77	6685.9	
660.96	5552.7	
661.14	4504.8	
661.33	7847.1	
661.52	7750.2	
661.7	4418.2	
661.89	8341.4	
662.08	6277	
662.26	5866.1	
662.45	4728.1	
662.64	4961.5	
662.82	6986.3	
663.01	6182.8	
663.2	4906.9	
663.38	5638.1	
663.57	6883.2	
663.75	6814.3	
663.94	5227.8	
664.13	6605.4	
664.31	6236.7	
664.5	6954.2	
664.69	5644.2	
664.87	6185.5	
665.06	6057.2	
665.25	6771.3	
665.43	6382.2	
665.62	6445.6	
665.8	7119.4	
665.99	6422.4	
666.18	5270.8	
666.36	5387.5	
666.55	7067.5	
666.74	6981.5	
666.92	4819.6	
667.11	6637.5	
667.29	6399.9	
667.48	7036.1	
667.67	6187.6	
667.85	5272.8	
668.04	6465.4	
668.22	6444.3	
668.41	5287.2	
668.6	5474.2	
668.78	6242.2	
668.97	6570.6	
669.15	5656.5	
669.34	4631.1	
669.53	6319.3	
669.71	6597.2	
669.9	4840.7	
670.08	5498.8	
670.27	6206.7	
670.46	6862.7	
670.64	5760.9	
670.83	5946.6	
671.01	6183.5	
671.2	6825.2	
671.38	4915.1	
671.57	4812	
671.76	7410.2	
671.94	8041.7	
672.13	4775.9	
672.31	5910.4	
672.5	7007.5	
672.69	6274.3	
672.87	4937	
673.06	5267.4	
673.24	6831.3	
673.43	6211.5	
673.61	5803.9	
673.8	5242.8	
673.98	7078.5	
674.17	7204.1	
674.36	5819.6	
674.54	5654.4	
674.73	6756.2	
674.91	7062.8	
675.1	5399.8	
675.28	5029.1	
675.47	6597.2	
675.65	7104.4	
675.84	5160.2	
676.03	5584.1	
676.21	6262.7	
676.4	5821	
676.58	6095.4	
676.77	5799.8	
676.95	7841.7	
677.14	6306.4	
677.32	4925.4	
677.51	4701.5	
677.69	7085.3	
677.88	5869.5	
678.06	4791.6	
678.25	4945.8	
678.44	6568.5	
678.62	6307.1	
678.81	4606.6	
678.99	5552.7	
679.18	7333.1	
679.36	6984.9	
679.55	5158.8	
679.73	5814.2	
679.92	6973.3	
680.1	6242.9	
680.29	6467.5	
680.47	5190.2	
680.66	6236.7	
680.84	7177.4	
681.03	4455.7	
681.21	5586.2	
681.4	6311.8	
681.58	6154.1	
681.77	4984.8	
681.95	4924.7	
682.14	7288	
682.32	7604.1	
682.51	5908.4	
682.69	4656.4	
682.88	6219.7	
683.06	6965.8	
683.25	5561.6	
683.43	6058.6	
683.62	6563.7	
683.8	6962.4	
683.99	6210.8	
684.17	5444.2	
684.36	7932.5	
684.54	6488.6	
684.73	4650.3	
684.91	4947.9	
685.1	6914.6	
685.28	6275	
685.46	5511.8	
685.65	5575.3	
685.83	7172.7	
686.02	6500.9	
686.2	4980	
686.39	5143.1	
686.57	6296.8	
686.76	7763.8	
686.94	4986.8	
687.13	5122	
687.31	6972	
687.5	6453.8	
687.68	4607.2	
687.86	5896.8	
688.05	8299.7	
688.23	5983.5	
688.42	5954.8	
688.6	4974.5	
688.79	6312.5	
688.97	6364.4	
689.16	5440.1	
689.34	4398.4	
689.52	7143.3	
689.71	7311.2	
689.89	5670.1	
690.08	5030.5	
690.26	6692.8	
690.45	6475.7	
690.63	6026.5	
690.81	5187.5	
691	6376.7	
691.18	6308.4	
691.37	5330.9	
691.55	7688.8	
691.74	6262	
691.92	8428.8	
692.1	5393	
692.29	4796.3	
692.47	6524.1	
692.66	5748.6	
692.84	4984.8	
693.02	5614.8	
693.21	5896.8	
693.39	6376.7	
693.58	5659.2	
693.76	5079	
693.94	7714.7	
694.13	7400	
694.31	4971.8	
694.5	6064.7	
694.68	6238.1	
694.86	6541.2	
695.05	5337	
695.23	5468.1	
695.42	6977.4	
695.6	9452.1	
695.78	6059.3	
695.97	5098.8	
696.15	7035.5	
696.34	6352.8	
696.52	4851	
696.7	5735.7	
696.89	6741.9	
697.07	6227.9	
697.25	5623	
697.44	7313.3	
697.62	6726.9	
697.81	7203.4	
697.99	5322.7	
698.17	5896.1	
698.36	6066.8	
698.54	6809.5	
698.72	5660.6	
698.91	4554.7	
699.09	6313.9	
699.28	6229.9	
699.46	5350.7	
699.64	5202.5	
699.83	6135	
700.01	7527.7	
700.19	6010.8	
700.38	4431.8	
700.56	7490.8	
700.74	6252.4	
700.93	4766.3	
701.11	5745.9	
701.29	6870.3	
701.48	8029.4	
701.66	5057.1	
701.84	5037.3	
702.03	6364.4	
702.21	7034.8	
702.39	4637.3	
702.58	5212.1	
702.76	6763.1	
702.94	6997.9	
703.13	4599.1	
703.31	7192.5	
703.49	6060.6	
703.68	7062.1	
703.86	4861.9	
704.04	5829.2	
704.23	6623.8	
704.41	7022.5	
704.59	5003.2	
704.78	6341.9	
704.96	7715.4	
705.14	7165.2	
705.33	4763.6	
705.51	5621	
705.69	6480.5	
705.87	7354.3	
706.06	5954.1	
706.24	4758.1	
706.42	6757.6	
706.61	7049.1	
706.79	5915.9	
706.97	4757.4	
707.16	6193.7	
707.34	6920.1	
707.52	5910.4	
707.7	5031.2	
707.89	6426.5	
708.07	6051.1	
708.25	5967.8	
708.44	6031.3	
708.62	6309.8	
708.8	7485.3	
708.98	6185.5	
709.17	5084.4	
709.35	6675	
709.53	6750.1	
709.72	4783.4	
709.9	5001.8	
710.08	6962.4	
710.26	7055.3	
710.45	6556.9	
710.63	5173.9	
710.81	6652.5	
710.99	6718.7	
711.18	5825.8	
711.36	5305.6	
711.54	6502.3	
711.72	7308.5	
711.91	5422.3	
712.09	4818.9	
712.27	6717.3	
712.45	7434.1	
712.64	5668.8	
712.82	4554.7	
713	6205.3	
713.18	6408.8	
713.37	4812	
713.55	6171.2	
713.73	7396.6	
713.91	5870.2	
714.1	5350	
714.28	4790.2	
714.46	7044.3	
714.64	6210.1	
714.83	4165.6	
715.01	5167	
715.19	6365.1	
715.37	5711.8	
715.55	4824.3	
715.74	5158.2	
715.92	7318.8	
716.1	5253	
716.28	6286.6	
716.47	5346.6	
716.65	6007.4	
716.83	6024.4	
717.01	5158.2	
717.19	5310.4	
717.38	8258.1	
717.56	5714.5	
717.74	5461.2	
717.92	4533.5	
718.1	6959.7	
718.29	6102.9	
718.47	4081.6	
718.65	4792.2	
718.83	6798.6	
719.01	6693.4	
719.2	3865.2	
719.38	5095.3	
719.56	6451.1	
719.74	8079.9	
719.92	4655.7	
720.11	5797.8	
720.29	6510.5	
720.47	5595.7	
720.65	4255	
720.83	5168.4	
721.02	6009.4	
721.2	5712.5	
721.38	5295.4	
721.56	4487.1	
721.74	5279.7	
721.92	5500.8	
722.11	5780.7	
722.29	5462.6	
722.47	6799.9	
722.65	5931.6	
722.83	4493.2	
723.01	5482.4	
723.2	5945.9	
723.38	6294.1	
723.56	3831.1	
723.74	5126.1	
723.92	5433.3	
724.1	6722.8	
724.29	4377.2	
724.47	5717.9	
724.65	5542.5	
724.83	5474.9	
725.01	4301.4	
725.19	5215.5	
725.37	5552.7	
725.56	5637.4	
725.74	4163.5	
725.92	4422.9	
726.1	5509	
726.28	5812.1	
726.46	4849.6	
726.64	4576.5	
726.83	5741.8	
727.01	6068.1	
727.19	4088.4	
727.37	5001.8	
727.55	5802.6	
727.73	6367.8	
727.91	4067.9	
728.09	3932.8	
728.28	6535.8	
728.46	7124.2	
728.64	5141.8	
728.82	5066	
729	7583.6	
729.18	6819.7	
729.36	4289.8	
729.54	6738.5	
729.72	7894.2	
729.91	6062	
730.09	6242.2	
730.27	4888.5	
730.45	5926.8	
730.63	6611.5	
730.81	5598.5	
730.99	4528.7	
731.17	7172	
731.35	5606	
731.53	5017.5	
731.71	4612	
731.9	6878.4	
732.08	7051.2	
732.26	4973.2	
732.44	4621.6	
732.62	7028.6	
732.8	6596.5	
732.98	5395	
733.16	4440.7	
733.34	6560.3	
733.52	5302.2	
733.7	4954	
733.88	5216.2	
734.07	6389	
734.25	6118	
734.43	4293.2	
734.61	6052.4	
734.79	7707.2	
734.97	5997.1	
735.15	4484.4	
735.33	4902.2	
735.51	6423.8	
735.69	6021.7	
735.87	6065.4	
736.05	5095.3	
736.23	6180.1	
736.41	5925.5	
736.59	4957.4	
736.77	5055.8	
736.95	6700.3	
737.13	6100.9	
737.32	4521.2	
737.5	4865.3	
737.68	7226.6	
737.86	5973.9	
738.04	4322.6	
738.22	6384.9	
738.4	5796.4	
738.58	6019	
738.76	5086.5	
738.94	3945.1	
739.12	5924.1	
739.3	5771.2	
739.48	5693.4	
739.66	5335.6	
739.84	6191.7	
740.02	6154.1	
740.2	3985.3	
740.38	4416.1	
740.56	6642.9	
740.74	5373.2	
740.92	5124.7	
741.1	5054.4	
741.28	5948.7	
741.46	5778	
741.64	4612	
741.82	5207.3	
742	5996.5	
742.18	5984.8	
742.36	4866	
742.54	4414.7	
742.72	6619	
742.9	5325.4	
743.08	5315.8	
743.26	4089.8	
743.44	6853.2	
743.62	6682.5	
743.8	5481	
743.98	4530.8	
744.16	6421.7	
744.34	6049	
744.52	5352	
744.7	5335	
744.88	6505	
745.06	6065.4	
745.24	5373.9	
745.42	5526.1	
745.6	6580.8	
745.78	6372.6	
745.96	4171.7	
746.14	4485.1	
746.32	7454.6	
746.5	6673.6	
746.68	5195	
746.86	4567.7	
747.03	7175.4	
747.21	5330.9	
747.39	5147.9	
747.57	4560.8	
747.75	6303	
747.93	6671.6	
748.11	4599.1	
748.29	4453	
748.47	7912.7	
748.65	5989.6	
748.83	5303.6	
749.01	5047.6	
749.19	6483.9	
749.37	5618.9	
749.55	4919.9	
749.73	5008	
749.91	6074.3	
750.09	5784.1	
750.26	5034.6	
750.44	4375.8	
750.62	6167.8	
750.8	6146.6	
750.98	4201.1	
751.16	4657.8	
751.34	6215.6	
751.52	5506.3	
751.7	5504.9	
751.88	4276.8	
752.06	6690	
752.24	6546.7	
752.42	4176.5	
752.59	4555.4	
752.77	6127.5	
752.95	7445.7	
753.13	5338.4	
753.31	4674.8	
753.49	5763	
753.67	6270.9	
753.85	5042.8	
754.03	4590.9	
754.21	6593.8	
754.38	6890	
754.56	4848.2	
754.74	3787.4	
754.92	5784.1	
755.1	6553.5	
755.28	3811.3	
755.46	3934.1	
755.64	7469.6	
755.82	7610.3	
755.99	4313	
756.17	4477.5	
756.35	4962.9	
756.53	6631.3	
756.71	3282.2	
756.89	4272.7	
757.07	6189.6	
757.25	5198.4	
757.42	4795	
757.6	5808.7	
757.78	6238.8	
757.96	5186.1	
758.14	4479.6	
758.32	3898	
758.5	4667.3	
758.67	5631.9	
758.85	4267.3	
759.03	4360.8	
759.21	5790.3	
759.39	5223	
759.57	3853.6	
759.75	5044.8	
759.92	6498.9	
760.1	5616.9	
760.28	5477	
760.46	5665.4	
760.64	5382.1	
760.82	5113.8	
760.99	5205.3	
761.17	4337.6	
761.35	6250.4	
761.53	5202.5	
761.71	4489.8	
761.89	5307.7	
762.06	6152.1	
762.24	5537	
762.42	4499.4	
762.6	4308.9	
762.78	5515.2	
762.96	6309.1	
763.13	4895.3	
763.31	4575.8	
763.49	6516	
763.67	5560.9	
763.85	5481	
764.02	6066.1	
764.2	6655.9	
764.38	5852.4	
764.56	4444.1	
764.74	5401.2	
764.91	6864.1	
765.09	5657.2	
765.27	4113.7	
765.45	3847.5	
765.63	6827.2	
765.8	6702.3	
765.98	3614.7	
766.16	4006.5	
766.34	5208.7	
766.52	5051	
766.69	5032.5	
766.87	3867.9	
767.05	5651.7	
767.23	6490	
767.41	4244.8	
767.58	4473.4	
767.76	6327.5	
767.94	6390.3	
768.12	4299.4	
768.29	5165.7	
768.47	5840.8	
768.65	6592.4	
768.83	3858.4	
769	5148.6	
769.18	5268.7	
769.36	6064	
769.54	5169.8	
769.72	3917.8	
769.89	6370.5	
770.07	6475	
770.25	4304.8	
770.43	5667.4	
770.6	7159	
770.78	7675.8	
770.96	4433.9	
771.14	4358.1	
771.31	6300.9	
771.49	5662.6	
771.67	3642	
771.85	3890.5	
772.02	4797.7	
772.2	5599.1	
772.38	4673.5	
772.55	4185.4	
772.73	5901.6	
772.91	5686.5	
773.09	4539	
773.26	4638	
773.44	5870.2	
773.62	5529.5	
773.8	4037.9	
773.97	3772.4	
774.15	5963	
774.33	5517.9	
774.5	3969.6	
774.68	4376.5	
774.86	6144.6	
775.04	5567.1	
775.21	4063.2	
775.39	4021.5	
775.57	5905	
775.74	6356.9	
775.92	3866.6	
776.1	3801.7	
776.27	5892	
776.45	7245	
776.63	4010.6	
776.81	3625.6	
776.98	5451.7	
777.16	6664.8	
777.34	4222.2	
777.51	4211.3	
777.69	5443.5	
777.87	5255.8	
778.04	4223.6	
778.22	4997	
778.4	5297.4	
778.57	5972.6	
778.75	3483.6	
778.93	3767.6	
779.1	5036	
779.28	4932.2	
779.46	3494.5	
779.64	4115.1	
779.81	6162.3	
779.99	7160.4	
780.17	4876.9	
780.34	5052.3	
780.52	5554.1	
780.69	5803.9	
780.87	4394.9	
781.05	3918.4	
781.22	5672.9	
781.4	5739.8	
781.58	4089.8	
781.75	3222.1	
781.93	5642.8	
782.11	5025.7	
782.28	5092.6	
782.46	4095.9	
782.64	4892.6	
782.81	5890	
782.99	4217.5	
783.17	4122.6	
783.34	5797.1	
783.52	5016.2	
783.69	4379.9	
783.87	5161.6	
784.05	5129.5	
784.22	5079	
784.4	5247.6	
784.58	4460.5	
784.75	6025.1	
784.93	5051.7	
785.1	4141	
785.28	4823	
785.46	5722	
785.63	5028.4	
785.81	4037.9	
785.99	4012	
786.16	5249.6	
786.34	5644.9	
786.51	3959.4	
786.69	4417.5	
786.87	4807.9	
787.04	5459.2	
787.22	3849.5	
787.39	4859.8	
787.57	5052.3	
787.75	6234.7	
787.92	5016.2	
788.1	4975.9	
788.27	5137	
788.45	4807.9	
788.63	4665.3	
788.8	3316.3	
788.98	5496.1	
789.15	4820.9	
789.33	3460.4	
789.5	4164.9	
789.68	6105.7	
789.86	6183.5	
790.03	4609.3	
790.21	4034.5	
790.38	6051.7	
790.56	5214.8	
790.73	3796.9	
790.91	3867.2	
791.09	5132.2	
791.26	5933.6	
791.44	4079.6	
791.61	3531.4	
791.79	5072.1	
791.96	5197.7	
792.14	3655.6	
792.32	3247.4	
792.49	5108.3	
792.67	5234.6	
792.84	3790.8	
793.02	3534.1	
793.19	5600.5	
793.37	6353.5	
793.54	3229.6	
793.72	3615.3	
793.89	6534.4	
794.07	5099.4	
794.25	4316.4	
794.42	3317	
794.6	6265.4	
794.77	5847.6	
794.95	4541	
795.12	3975.8	
795.3	5069.4	
795.47	5785.5	
795.65	4385.4	
795.82	4204.5	
796	4884.4	
796.17	6963.1	
796.35	4024.3	
796.52	4807.3	
796.7	5705	
796.87	5758.2	
797.05	5093.3	
797.22	5021.6	
797.4	5731.6	
797.57	6795.2	
797.75	4197.7	
797.92	3935.5	
798.1	6077	
798.27	5100.8	
798.45	3327.9	
798.62	3693.2	
798.8	5434.6	
798.97	6011.5	
799.15	4413.4	
799.32	4222.2	
799.5	4640	
799.67	5536.3	
799.85	4613.4	
800.02	3306.8	
800.2	5022.3	
800.37	5429.8	
800.55	4823.6	
800.72	3921.2	
800.9	5892	
801.07	6411.5	
801.25	5340.4	
801.42	4370.4	
801.6	6001.9	
801.77	5681.1	
801.95	4076.8	
802.12	3809.9	
802.29	5621	
802.47	5603.9	
802.64	4291.9	
802.82	3226.2	
802.99	4990.2	
803.17	6134.3	
803.34	4184	
803.52	3761.4	
803.69	6806.8	
803.87	4855.7	
804.04	4124.6	
804.21	4326	
804.39	6282.5	
804.56	5325.4	
804.74	3571	
804.91	4373.1	
805.09	5120.6	
805.26	5244.2	
805.44	3646.7	
805.61	3952.6	
805.78	5862.7	
805.96	5880.4	
806.13	4347.8	
806.31	4668.7	
806.48	4593.6	
806.66	5188.9	
806.83	4369	
807	4262.5	
807.18	5110.4	
807.35	5471.5	
807.53	4274.1	
807.7	3301.3	
807.87	6374.6	
808.05	5219.6	
808.22	4667.3	
808.4	3347.1	
808.57	5240.1	
808.74	4780.6	
808.92	3883.6	
809.09	4990.9	
809.27	5026.4	
809.44	5717.2	
809.61	3416	
809.79	3803.8	
809.96	6348	
810.14	6012.8	
810.31	3292.5	
810.48	4091.2	
810.66	5264.6	
810.83	6058.6	
811.01	3857	
811.18	4366.3	
811.35	5953.4	
811.53	4569	
811.7	4762.9	
811.87	4383.3	
812.05	5165.7	
812.22	5078.3	
812.39	3723.2	
812.57	3660.4	
812.74	5142.4	
812.92	6924.9	
813.09	4108.2	
813.26	4461.8	
813.44	6669.6	
813.61	5104.9	
813.78	3377.8	
813.96	4618.9	
814.13	5229.8	
814.3	4810	
814.48	5003.9	
814.65	4119.8	
814.82	6478.4	
815	4979.3	
815.17	4168.3	
815.34	5108.3	
815.52	5069.4	
815.69	5089.9	
815.87	4186	
816.04	3568.9	
816.21	5267.4	
816.38	4508.9	
816.56	4030.4	
816.73	3717.7	
816.9	6602.7	
817.08	5999.2	
817.25	3764.2	
817.42	4857.1	
817.6	4734.9	
817.77	5205.3	
817.94	4302.1	
818.12	3780.6	
818.29	4883	
818.46	7758.4	
818.64	3894.6	
818.81	3606.5	
818.98	4866	
819.16	7081.9	
819.33	4458.4	
819.5	4207.2	
819.67	5591.6	
819.85	6273.6	
820.02	4154.6	
820.19	4354.7	
820.37	5386.8	
820.54	4993.6	
820.71	4308.9	
820.88	5281.7	
821.06	5482.4	
821.23	4958.1	
821.4	4313.7	
821.58	4210.6	
821.75	5961.6	
821.92	5343.8	
822.09	3463.8	
822.27	3682.2	
822.44	5184.8	
822.61	5071.5	
822.79	3461.7	
822.96	6735.8	
823.13	5692.7	
823.3	4898.7	
823.48	4022.2	
823.65	3567.6	
823.82	5938.4	
823.99	4676.9	
824.17	5051.7	
824.34	3591.5	
824.51	6906.4	
824.68	5216.9	
824.86	3790.1	
825.03	4285	
825.2	5182	
825.37	6338.5	
825.55	3767.6	
825.72	4210.6	
825.89	6950.8	
826.06	6460.7	
826.24	4070	
826.41	4138.9	
826.58	6300.9	
826.75	5454.4	
826.92	3187.3	
827.1	3545	
827.27	8742.1	
827.44	6967.9	
827.61	3880.2	
827.79	4730.8	
827.96	4898.1	
828.13	5311.7	
828.3	4025.6	
828.47	3417.4	
828.65	5365	
828.82	5318.6	
828.99	5326.1	
829.16	4589.5	
829.34	5797.8	
829.51	5602.6	
829.68	4259.1	
829.85	4395.6	
830.02	6092.7	
830.2	5788.9	
830.37	3226.2	
830.54	5176.6	
830.71	6681.8	
830.88	5140.4	
831.05	3308.2	
831.23	3804.4	
831.4	6330.3	
831.57	7189.7	
831.74	3951.9	
831.91	3439.9	
832.09	5416.2	
832.26	5780.7	
832.43	4003.1	
832.6	4512.4	
832.77	5417.6	
832.94	6190.3	
833.12	3156.6	
833.29	3992.2	
833.46	4994.3	
833.63	7453.2	
833.8	4401.8	
833.97	4087.1	
834.15	5825.8	
834.32	5522	
834.49	4196.3	
834.66	4342.4	
834.83	6040.8	
835	4845.5	
835.17	3895.2	
835.35	3943	
835.52	5752.1	
835.69	5552.7	
835.86	4080.2	
836.03	3368.2	
836.2	5783.5	
836.37	5393.7	
836.55	4017.4	
836.72	3805.1	
836.89	5332.9	
837.06	5921.4	
837.23	4148.5	
837.4	4501.4	
837.57	6656.6	
837.75	7468.9	
837.92	3750.5	
838.09	3941.7	
838.26	5337.7	
838.43	6110.5	
838.6	4246.1	
838.77	3798.3	
838.94	7025.9	
839.11	6683.2	
839.29	4052.2	
839.46	3160	
839.63	5728.2	
839.8	5468.8	
839.97	3917.8	
840.14	3901.4	
840.31	5580.7	
840.48	5852.4	
840.65	3254.9	
840.82	3834.5	
841	5826.5	
841.17	5709.1	
841.34	3641.3	
841.51	3670.6	
841.68	5687.9	
841.85	5493.3	
842.02	3770.3	
842.19	3057.6	
842.36	5541.1	
842.53	5464	
842.7	3642	
842.87	4492.6	
843.05	7379.5	
843.22	5502.9	
843.39	3419.4	
843.56	3690.4	
843.73	5214.1	
843.9	5862	
844.07	5948.7	
844.24	4982.7	
844.41	8659.5	
844.58	5016.2	
844.75	3487	
844.92	3801	
845.09	5801.9	
845.26	5782.8	
845.43	3558	
845.6	3784.6	
845.77	5750	
845.94	5440.1	
846.12	4046.8	
846.29	4270	
846.46	6008.7	
846.63	5834.7	
846.8	3539.6	
846.97	4328	
847.14	6261.3	
847.31	5742.5	
847.48	4059.1	
847.65	4502.1	
847.82	6075	
847.99	6083.8	
848.16	4830.5	
848.33	4444.1	
848.5	5300.1	
848.67	6221	
848.84	3591.5	
849.01	3674.1	
849.18	5234.6	
849.35	4855.1	
849.52	4496	
849.69	3482.2	
849.86	5975.3	
850.03	6233.3	
850.2	3640.6	
850.37	4227	
850.54	6202.6	
850.71	5421.7	
850.88	4350.6	
851.05	3555.3	
851.22	5664	
851.39	6335.1	
851.56	3426.3	
851.73	4165.6	
851.9	5047.6	
852.07	6011.5	
852.24	4029	
852.41	3564.1	
852.58	5633.3	
852.75	5137	
852.92	4018.8	
853.09	3482.9	
853.26	5313.8	
853.43	6279.8	
853.6	3562.1	
853.77	3031	
853.94	6389.7	
854.11	5758.9	
854.28	5402.5	
854.44	3870	
854.61	6816.3	
854.78	6151.4	
854.95	3571.7	
855.12	4615.4	
855.29	4615.4	
855.46	6559	
855.63	3539.6	
855.8	5055.1	
855.97	5384.8	
856.14	6096.8	
856.31	5104.9	
856.48	3908.2	
856.65	5302.9	
856.82	4977.9	
856.99	3463.8	
857.16	3882.9	
857.33	7155.6	
857.49	5472.9	
857.66	3879.5	
857.83	4171	
858	5370.5	
858.17	5615.5	
858.34	3394.2	
858.51	3549.1	
858.68	6513.9	
858.85	6649.8	
859.02	4185.4	
859.19	4459.1	
859.36	4991.6	
859.52	5113.1	
859.69	3568.9	
859.86	4267.3	
860.03	5141.8	
860.2	6380.8	
860.37	3233.7	
860.54	3656.3	
860.71	6008.1	
860.88	6563.7	
861.05	4005.8	
861.21	4539	
861.38	6509.1	
861.55	4978.6	
861.72	3217.4	
861.89	4002.4	
862.06	6054.5	
862.23	6694.8	
862.4	3517.7	
862.56	3751.9	
862.73	5842.2	
862.9	5594.4	
863.07	4226.3	
863.24	3274	
863.41	4896	
863.58	5109.7	
863.75	3671.3	
863.91	4138.3	
864.08	6422.4	
864.25	5956.9	
864.42	4583.4	
864.59	5128.1	
864.76	6742.6	
864.93	5126.7	
865.09	3475.4	
865.26	3787.4	
865.43	6309.8	
865.6	6753.5	
865.77	3142.9	
865.94	3562.1	
866.1	6356.9	
866.27	6115.9	
866.44	5432.6	
866.61	3467.9	
866.78	5452.4	
866.95	5925.5	
867.11	3426.3	
867.28	3185.3	
867.45	6142.5	
867.62	5182.7	
867.79	4262.5	
867.96	3574.4	
868.12	5086.5	
868.29	6078.4	
868.46	3592.8	
868.63	4814.1	
868.8	6260.6	
868.97	5954.8	
869.13	3751.2	
869.3	3699.3	
869.47	5878.4	
869.64	6144.6	
869.81	3627.6	
869.97	3635.1	
870.14	5762.3	
870.31	6550.1	
870.48	3477.5	
870.65	4526.7	
870.81	5421	
870.98	5363.6	
871.15	4052.2	
871.32	3721.2	
871.48	5842.2	
871.65	6564.4	
871.82	3575.1	
871.99	3964.2	
872.16	6920.1	
872.32	6484.6	
872.49	3596.9	
872.66	3654.9	
872.83	6049	
872.99	5270.8	
873.16	4122.6	
873.33	3540.3	
873.5	5640.1	
873.67	5668.8	
873.83	3743.7	
874	4827.7	
874.17	5799.8	
874.34	6939.2	
874.5	4669.4	
874.67	4531.5	
874.84	6527.6	
875.01	5095.3	
875.17	5157.5	
875.34	3548.4	
875.51	5696.1	
875.68	6868.9	
875.84	4301.4	
876.01	5332.2	
876.18	6014.2	
876.34	5941.2	
876.51	3607.8	
876.68	3519.8	
876.85	5464.7	
877.01	6303	
877.18	5223	
877.35	3532.7	
877.52	5530.9	
877.68	4967	
877.85	3530.7	
878.02	3540.3	
878.18	5534.3	
878.35	5282.4	
878.52	2891	
878.69	4166.3	
878.85	6003.3	
879.02	5982.8	
879.19	5173.9	
879.35	3883.6	
879.52	5940.5	
879.69	6249	
879.86	3083.6	
880.02	3996.3	
880.19	5535.7	
880.36	6825.9	
880.52	4156.7	
880.69	4315.1	
880.86	6119.3	
881.02	6176.7	
881.19	3930.1	
881.36	3938.2	
881.52	5977.3	
881.69	5265.3	
881.86	3849.5	
882.02	3827.7	
882.19	6280.4	
882.36	7323.5	
882.52	3703.4	
882.69	5117.2	
882.86	5793.7	
883.02	5651	
883.19	4408.6	
883.36	4085	
883.52	6167.8	
883.69	6939.9	
883.86	3618.1	
884.02	3228.3	
884.19	6100.9	
884.36	5539.8	
884.52	4080.9	
884.69	3802.4	
884.86	5291.3	
885.02	6771.9	
885.19	4077.5	
885.36	4142.4	
885.52	5541.1	
885.69	5697.4	
885.86	5197.7	
886.02	4635.2	
886.19	6037.4	
886.35	5476.3	
886.52	3951.9	
886.69	5059.2	
886.85	5117.2	
887.02	6482.5	
887.19	6482.5	
887.35	6482.5	
887.52	6482.5	
887.68	6482.5	
887.85	6482.5	
888.02	6482.5	
888.18	6482.5	
888.35	6482.5	
888.51	6482.5	
888.68	6482.5	
888.85	6482.5	
889.01	6482.5	
889.18	6482.5	
889.35	6482.5	
889.51	6482.5	
889.68	6482.5	
889.84	6482.5	
890.01	6482.5	
890.17	6482.5	
890.34	6482.5	
890.51	6482.5	
890.67	6482.5	
890.84	6482.5	
891	6482.5	
891.17	6482.5	
891.34	6482.5	
891.5	6482.5	
891.67	6482.5	
891.83	6482.5	
892	6482.5	
892.16	6482.5	
892.33	6482.5	
892.5	6482.5	
892.66	6482.5	
892.83	6482.5	
892.99	6482.5	
893.16	6482.5	
893.32	6482.5	
893.49	6482.5	
893.65	6482.5	
893.82	6482.5	
893.99	6482.5	
894.15	6482.5	
894.32	6482.5	
894.48	6482.5	
894.65	6482.5	
894.81	6482.5	
894.98	6482.5	
895.14	6482.5	
895.31	6482.5	
895.47	6482.5	
895.64	6482.5	
895.81	6482.5	
895.97	6482.5	
896.14	6482.5	
896.3	6482.5	
896.47	6482.5	
896.63	6482.5	
896.8	6482.5	
896.96	6482.5	
897.13	6482.5	
897.29	6482.5	
897.46	6482.5	
897.62	6482.5	
897.79	6482.5	
897.95	6482.5	
898.12	6482.5	
898.28	6482.5	
898.45	6482.5	
898.61	6482.5	
898.78	6482.5	
898.94	6482.5	
899.11	6482.5	
899.27	6482.5	
899.44	6482.5	
899.6	6482.5	
899.77	6482.5	
899.93	6482.5	
900.1	6482.5	
900.26	6482.5	
900.43	6482.5	
900.59	6482.5	
900.76	6482.5	
900.92	6482.5	
901.09	6482.5	
901.25	6482.5	
901.42	6482.5	
901.58	6482.5	
901.75	6482.5	
901.91	6482.5	
902.07	6482.5	
902.24	6482.5	
902.4	6482.5	
902.57	6482.5	
902.73	6482.5	
902.9	6482.5	
903.06	6482.5	
903.23	6482.5	
903.39	6482.5	
903.56	6482.5	
903.72	6482.5	
903.88	6482.5	
904.05	6482.5	
904.21	6482.5	
904.38	6482.5	
904.54	6482.5	
904.71	6482.5	
904.87	6482.5	
905.03	6482.5	
905.2	6482.5	
905.36	6482.5	
905.53	6482.5	
905.69	6482.5	
905.86	6482.5	
906.02	6482.5	
906.18	6482.5	
906.35	6482.5	
906.51	6482.5	
906.68	6482.5	
906.84	6482.5	
907.01	6482.5	
907.17	6482.5	
907.33	6482.5	
907.5	6482.5	
907.66	6482.5	
907.83	6482.5	
907.99	6482.5	
908.15	6482.5	
908.32	6482.5	
908.48	6482.5	
908.65	6482.5	
908.81	6482.5	
908.97	6482.5	
909.14	6482.5	
909.3	6482.5	
909.47	6482.5	
909.63	6482.5	
909.79	6482.5	
909.96	6482.5	
910.12	6482.5	
910.28	6482.5	
910.45	6482.5	
910.61	6482.5	
910.78	6482.5	
910.94	6482.5	
911.1	6482.5	
911.27	6482.5	
911.43	6482.5	
911.59	6482.5	
911.76	6482.5	
911.92	6482.5	
912.08	6482.5	
912.25	6482.5	
912.41	6482.5	
912.57	6482.5	
912.74	6482.5	
912.9	6482.5	
913.07	6482.5	
913.23	6482.5	
913.39	6482.5	
913.56	6482.5	
913.72	6482.5	
913.88	6482.5	
914.05	6482.5	
914.21	6482.5	
914.37	6482.5	
914.54	6482.5	
914.7	6482.5	
914.86	6482.5	
915.03	6482.5	
915.19	6482.5	
