Wavelength	Intensities	
nm	a.u.	
179.22	1679	
179.44	1680	
179.65	1678	
179.86	1682.1	
180.08	1635.6	
180.29	3931.4	
180.51	3019.4	
180.72	4934.9	
180.94	5500.8	
181.15	2680.8	
181.37	2683.5	
181.58	4739	
181.79	4935.6	
182.01	2800.9	
182.22	2968.9	
182.44	4979.3	
182.65	4308.9	
182.87	3588	
183.08	3213.3	
183.29	5205.9	
183.51	4362.9	
183.72	2910.2	
183.94	4117.8	
184.15	4691.9	
184.37	4636.6	
184.58	2691	
184.79	3389.4	
185.01	4434.5	
185.22	4946.5	
185.44	3571	
185.65	3102	
185.86	4720.6	
186.08	4313	
186.29	2596.8	
186.51	2787.3	
186.72	4461.8	
186.94	5066	
187.15	3129.3	
187.36	3263.8	
187.58	6261.3	
187.79	4764.3	
188.01	3257.6	
188.22	4900.8	
188.43	5552	
188.65	4902.8	
188.86	2720.4	
189.08	3195.5	
189.29	4501.4	
189.5	4518.5	
189.72	2977.1	
189.93	3046	
190.15	5074.2	
190.36	5836.7	
190.57	3292.5	
190.79	3196.2	
191	5127.4	
191.22	5108.3	
191.43	3241.9	
191.64	2796.8	
191.86	5227.1	
192.07	5100.1	
192.29	2866.5	
192.5	2985.9	
192.71	5091.9	
192.93	4520.5	
193.14	3017.3	
193.35	3014.6	
193.57	4483.7	
193.78	5113.1	
194	2479.4	
194.21	2975.7	
194.42	4338.3	
194.64	4710.3	
194.85	3134.1	
195.07	3663.1	
195.28	4678.2	
195.49	4154	
195.71	3861.1	
195.92	2822.1	
196.13	4860.5	
196.35	4878.9	
196.56	4053.6	
196.78	3246	
196.99	5788.2	
197.2	5502.2	
197.42	3574.4	
197.63	3250.8	
197.84	4242	
198.06	4840	
198.27	2938.2	
198.48	3773	
198.7	4496	
198.91	4679.6	
199.13	3237.8	
199.34	3200.3	
199.55	5064.6	
199.77	4097.3	
199.98	2901.3	
200.19	3290.4	
200.41	4640.7	
200.62	4362.9	
200.83	3364.1	
201.05	3539.6	
201.26	4635.9	
201.47	4431.8	
201.69	2884.2	
201.9	2824.1	
202.11	4687.8	
202.33	5367	
202.54	3072.6	
202.76	3389.4	
202.97	4713.7	
203.18	4773.8	
203.4	3329.3	
203.61	3343.7	
203.82	4713.7	
204.04	4438.6	
204.25	3289.7	
204.46	3141.6	
204.68	4729.4	
204.89	4867.3	
205.1	3160	
205.32	2797.5	
205.53	4956.8	
205.74	5104.2	
205.96	2456.2	
206.17	3215.3	
206.38	4903.5	
206.6	5004.6	
206.81	3662.5	
207.02	3009.1	
207.24	4851.6	
207.45	5122.7	
207.66	3060.3	
207.88	2719	
208.09	4739.7	
208.3	4657.8	
208.52	2888.3	
208.73	3156.6	
208.94	4661.9	
209.15	5149.3	
209.37	3082.9	
209.58	3205.1	
209.79	5029.8	
210.01	4548.5	
210.22	2629.6	
210.43	2663	
210.65	4639.3	
210.86	4974.5	
211.07	3065.8	
211.29	2874	
211.5	4908.3	
211.71	4601.1	
211.93	2918.4	
212.14	2897.9	
212.35	4655.7	
212.56	4745.8	
212.78	3210.5	
212.99	2684.9	
213.2	5381.4	
213.42	4528.1	
213.63	2964.8	
213.84	3128.6	
214.06	4272.1	
214.27	4263.9	
214.48	3126.6	
214.69	3252.2	
214.91	5173.9	
215.12	5191.6	
215.33	3276.8	
215.55	3484.3	
215.76	5590.3	
215.97	4947.2	
216.18	3183.2	
216.4	3136.1	
216.61	4471.4	
216.82	5063.3	
217.04	2897.9	
217.25	2985.3	
217.46	5076.2	
217.67	4958.8	
217.89	2620	
218.1	2717	
218.31	4770.4	
218.53	4862.6	
218.74	3053.5	
218.95	2938.2	
219.16	4694.6	
219.38	5328.1	
219.59	2869.9	
219.8	3429.7	
220.01	5691.3	
220.23	4689.8	
220.44	3664.5	
220.65	2850.1	
220.87	4738.3	
221.08	5140.4	
221.29	2743.6	
221.5	3393.5	
221.72	6034	
221.93	4421.6	
222.14	3242.6	
222.35	3702.7	
222.57	4689.2	
222.78	4964.3	
222.99	3077.4	
223.2	3272	
223.42	4849.6	
223.63	4956.1	
223.84	2491.7	
224.05	2463.7	
224.27	5741.1	
224.48	5280.3	
224.69	3786	
224.9	3254.2	
225.12	4804.5	
225.33	4607.9	
225.54	2667.1	
225.75	2922.5	
225.97	4376.5	
226.18	4629.1	
226.39	3134.8	
226.6	2926.5	
226.82	4508.3	
227.03	4378.6	
227.24	3224.9	
227.45	2770.9	
227.67	4984.8	
227.88	5302.2	
228.09	3545.7	
228.3	3487.7	
228.52	4971.1	
228.73	4649.6	
228.94	3009.8	
229.15	2732.7	
229.36	4687.1	
229.58	4698.7	
229.79	3074.7	
230	3473.4	
230.21	5418.9	
230.43	4723.3	
230.64	3227.6	
230.85	3251.5	
231.06	5090.6	
231.28	5027.1	
231.49	2712.2	
231.7	3193.5	
231.91	4891.9	
232.12	4671.4	
232.34	2820.1	
232.55	3139.5	
232.76	5142.4	
232.97	4784.7	
233.18	2876	
233.4	3203	
233.61	4814.8	
233.82	4577.9	
234.03	3044.6	
234.25	2992.1	
234.46	6143.2	
234.67	4730.8	
234.88	3294.5	
235.09	2946.3	
235.31	4818.2	
235.52	4597.7	
235.73	3212.6	
235.94	2745	
236.15	4489.1	
236.37	5422.3	
236.58	2859	
236.79	3077.4	
237	4846.9	
237.21	4301.4	
237.43	3330	
237.64	2651.4	
237.85	7577.5	
238.06	4377.2	
238.27	3343.7	
238.48	2769.5	
238.7	4910.3	
238.91	4595	
239.12	3105.4	
239.33	3162.1	
239.54	4444.1	
239.76	4603.8	
239.97	3094.5	
240.18	3124.5	
240.39	5545.9	
240.6	4842.8	
240.82	3233.7	
241.03	2762	
241.24	4648.9	
241.45	5260.5	
241.66	2879.4	
241.87	3306.1	
242.09	5225.7	
242.3	5461.9	
242.51	3338.2	
242.72	3077.4	
242.93	4992.9	
243.14	4683	
243.36	3562.1	
243.57	3719.1	
243.78	5298.8	
243.99	4942.4	
244.2	3091.8	
244.41	2828.9	
244.63	4360.8	
244.84	4876.2	
245.05	3282.9	
245.26	3046	
245.47	4947.9	
245.68	4999.8	
245.9	3921.9	
246.11	3254.9	
246.32	4537.6	
246.53	4872.1	
246.74	4820.9	
246.95	2678.7	
247.16	4409.3	
247.38	4670.1	
247.59	2706	
247.8	3085.6	
248.01	4383.3	
248.22	4650.9	
248.43	2836.4	
248.64	3091.8	
248.86	4310.3	
249.07	4510.3	
249.28	2851.5	
249.49	3207.8	
249.7	5057.1	
249.91	5113.8	
250.12	2680.8	
250.34	2690.3	
250.55	4756.1	
250.76	4692.6	
250.97	3224.9	
251.18	3244.7	
251.39	5117.9	
251.6	4748.6	
251.81	3313.6	
252.03	3241.9	
252.24	4523.3	
252.45	5030.5	
252.66	2772.9	
252.87	3363.4	
253.08	4704.2	
253.29	5786.9	
253.5	2818	
253.72	3760.8	
253.93	4616.1	
254.14	5352	
254.35	2982.5	
254.56	3069.2	
254.77	4851.6	
254.98	4398.4	
255.19	2977.7	
255.41	3666.5	
255.62	4820.2	
255.83	5108.3	
256.04	3333.4	
256.25	3207.1	
256.46	5552.7	
256.67	4473.4	
256.88	3180.5	
257.09	3499.3	
257.31	4364.9	
257.52	4448.2	
257.73	3908.2	
257.94	2945.7	
258.15	4629.8	
258.36	4661.9	
258.57	3664.5	
258.78	2484.9	
258.99	5004.6	
259.2	4539	
259.41	2936.8	
259.63	3115.6	
259.84	5317.9	
260.05	5546.6	
260.26	3740.3	
260.47	2950.4	
260.68	5130.2	
260.89	4552.6	
261.1	3490.4	
261.31	2897.9	
261.52	5210	
261.73	5371.1	
261.95	3753.2	
262.16	3306.8	
262.37	5151.3	
262.58	5250.3	
262.79	3734.8	
263	3016.7	
263.21	4693.3	
263.42	4302.8	
263.63	3216	
263.84	2989.4	
264.05	5030.5	
264.26	5261.2	
264.47	3616	
264.69	3207.1	
264.9	5238	
265.11	4793.6	
265.32	2859.6	
265.53	2955.9	
265.74	4808.6	
265.95	4204.5	
266.16	3141.6	
266.37	3408.5	
266.58	4798.4	
266.79	4517.1	
267	2966.1	
267.21	2761.3	
267.42	4391.5	
267.63	4653	
267.84	3058.3	
268.06	2741.5	
268.27	5034.6	
268.48	5176.6	
268.69	3063.1	
268.9	3553.9	
269.11	5205.3	
269.32	4244.8	
269.53	3087.7	
269.74	2901.3	
269.95	4827.1	
270.16	4250.9	
270.37	3084.9	
270.58	3578.5	
270.79	4611.3	
271	5036.6	
271.21	3265.8	
271.42	3142.3	
271.63	4802.5	
271.84	4338.3	
272.05	2605.7	
272.26	2848.7	
272.47	4706.2	
272.68	4816.8	
272.89	3029.6	
273.11	3376.4	
273.32	4497.3	
273.53	5223.7	
273.74	3303.4	
273.95	3217.4	
274.16	4996.4	
274.37	4654.4	
274.58	3399.6	
274.79	2805	
275	4804.5	
275.21	5103.5	
275.42	3984	
275.63	3420.8	
275.84	4953.4	
276.05	5853.8	
276.26	3259.7	
276.47	3035.8	
276.68	4642.7	
276.89	5390.3	
277.1	3446	
277.31	2800.3	
277.52	4854.4	
277.73	5074.9	
277.94	2729.9	
278.15	3051.5	
278.36	4866	
278.57	4458.4	
278.78	2952.5	
278.99	3349.1	
279.2	4493.2	
279.41	4373.1	
279.62	3870.7	
279.83	2805.7	
280.04	5484.5	
280.25	4383.3	
280.46	3831.7	
280.67	3114.3	
280.88	4422.9	
281.09	5116.5	
281.3	3253.5	
281.51	3994.9	
281.72	4498.7	
281.93	4990.2	
282.14	2909.5	
282.35	3179.8	
282.56	5008	
282.77	4943.1	
282.98	3061	
283.19	3541.6	
283.4	5981.4	
283.61	4615.4	
283.82	2831.7	
284.03	3743	
284.24	4808.6	
284.45	5160.9	
284.66	3805.8	
284.87	3586.7	
285.08	5109	
285.29	5162.9	
285.5	2699.2	
285.71	3059.7	
285.92	5099.4	
286.12	5576.6	
286.33	3713.6	
286.54	3097.9	
286.75	5019.6	
286.96	4599.7	
287.17	2878.8	
287.38	3653.6	
287.59	4455	
287.8	4460.5	
288.01	3077.4	
288.22	3407.8	
288.43	4917.2	
288.64	4242	
288.85	3547.1	
289.06	3425.6	
289.27	5051.7	
289.48	5247.6	
289.69	3824.2	
289.9	3471.3	
290.11	5203.2	
290.32	4481.6	
290.53	3558	
290.74	3332.7	
290.94	4965	
291.15	4999.1	
291.36	2970.9	
291.57	3433.1	
291.78	4576.5	
291.99	4242	
292.2	2887	
292.41	3343.7	
292.62	5113.1	
292.83	4930.8	
293.04	4023.6	
293.25	2890.4	
293.46	4567.7	
293.67	5099.4	
293.88	2913.6	
294.09	2876.7	
294.29	4380.6	
294.5	4780.6	
294.71	3111.5	
294.92	2961.4	
295.13	4534.9	
295.34	5482.4	
295.55	2708.1	
295.76	2698.5	
295.97	5030.5	
296.18	5483.1	
296.39	2805	
296.6	2975.7	
296.81	4699.4	
297.01	5011.4	
297.22	3072.6	
297.43	2955.2	
297.64	4526.7	
297.85	4431.8	
298.06	2488.3	
298.27	2716.3	
298.48	4680.3	
298.69	4481	
298.9	3193.5	
299.11	2874	
299.31	4424.3	
299.52	4363.5	
299.73	3336.1	
299.94	3334.8	
300.15	4715.8	
300.36	4466.6	
300.57	3329.3	
300.78	3191.4	
300.99	4686.4	
301.2	4780.6	
301.4	2954.5	
301.61	3137.5	
301.82	4919.9	
302.03	5006.6	
302.24	3489.1	
302.45	2835.1	
302.66	4896	
302.87	5186.8	
303.08	3002.3	
303.29	3838.6	
303.49	4501.4	
303.7	4648.2	
303.91	2696.5	
304.12	3685.7	
304.33	4334.2	
304.54	4715.1	
304.75	2969.6	
304.96	2832.3	
305.16	4914.4	
305.37	5473.5	
305.58	2676.7	
305.79	2721.1	
306	4956.1	
306.21	4238.6	
306.42	2963.4	
306.63	4231.1	
306.83	4565.6	
307.04	4992.9	
307.25	3201.7	
307.46	3216	
307.67	4194.2	
307.88	4984.1	
308.09	2946.3	
308.29	3034.4	
308.5	4777.9	
308.71	5053	
308.92	3107.5	
309.13	2812.5	
309.34	4701.5	
309.55	4675.5	
309.75	3618.8	
309.96	3241.9	
310.17	5005.2	
310.38	4420.9	
310.59	3410.6	
310.8	2778.4	
311.01	5410.1	
311.21	4612	
311.42	2854.2	
311.63	2886.3	
311.84	4542.4	
312.05	4769.7	
312.26	3284.9	
312.46	3521.1	
312.67	4608.6	
312.88	4351.9	
313.09	2854.9	
313.3	2869.9	
313.51	5257.1	
313.71	5501.5	
313.92	2848	
314.13	2988	
314.34	4884.4	
314.55	4682.3	
314.76	3568.9	
314.96	3102	
315.17	4827.7	
315.38	4881.7	
315.59	2926.5	
315.8	2764.8	
316.01	5248.9	
316.21	5330.2	
316.42	2816.6	
316.63	3183.9	
316.84	4640	
317.05	5101.5	
317.26	3308.2	
317.46	3010.5	
317.67	4665.3	
317.88	4970.4	
318.09	3516.4	
318.3	2746.3	
318.5	4518.5	
318.71	4816.8	
318.92	4429.1	
319.13	3296.5	
319.34	5031.2	
319.54	5118.6	
319.75	2728.6	
319.96	2629.6	
320.17	4901.5	
320.38	5035.3	
320.58	2638.5	
320.79	3138.2	
321	5034.6	
321.21	5194.3	
321.42	3155.9	
321.62	2710.8	
321.83	4492.6	
322.04	4638	
322.25	3072	
322.46	2859	
322.66	4764.3	
322.87	4941.7	
323.08	3407.1	
323.29	2768.9	
323.5	5474.2	
323.7	4330.8	
323.91	3743	
324.12	3390.8	
324.33	4775.9	
324.53	4947.9	
324.74	3250.8	
324.95	3422.8	
325.16	4315.1	
325.37	4573.8	
325.57	2849.4	
325.78	2936.8	
325.99	4778.6	
326.2	4283.7	
326.4	3943.7	
326.61	2677.4	
326.82	4634.6	
327.03	4756.7	
327.24	3899.3	
327.44	3677.5	
327.65	4905.6	
327.86	4110.3	
328.07	3261	
328.27	2785.2	
328.48	5214.1	
328.69	4345.1	
328.9	4004.5	
329.1	2997.5	
329.31	4599.1	
329.52	5199.1	
329.73	2908.1	
329.93	3140.9	
330.14	4754	
330.35	4808.6	
330.56	4471.4	
330.76	3478.1	
330.97	4564.2	
331.18	4808.6	
331.39	3149.8	
331.59	2621.4	
331.8	5126.7	
332.01	5141.1	
332.22	2977.1	
332.42	3234.4	
332.63	4808.6	
332.84	4366.3	
333.05	3164.8	
333.25	2924.5	
333.46	4504.8	
333.67	4670.7	
333.88	3038.5	
334.08	3276.1	
334.29	5987.6	
334.5	5050.3	
334.7	2811.2	
334.91	3904.1	
335.12	4361.5	
335.33	4947.9	
335.53	3186	
335.74	4429.1	
335.95	4621.6	
336.16	4347.8	
336.36	3181.2	
336.57	3574.4	
336.78	4321.2	
336.98	5048.2	
337.19	3793.5	
337.4	3115	
337.61	5569.1	
337.81	4369	
338.02	2949.8	
338.23	3645.4	
338.43	5227.1	
338.64	4458.4	
338.85	2896.5	
339.05	3689.1	
339.26	5319.3	
339.47	4263.2	
339.68	2879.4	
339.88	4072	
340.09	4932.2	
340.3	5064.6	
340.5	3348.4	
340.71	2666.5	
340.92	4357.4	
341.13	5159.5	
341.33	2783.9	
341.54	3305.4	
341.75	4863.2	
341.95	4540.3	
342.16	3176.4	
342.37	3386.7	
342.57	4315.1	
342.78	4619.5	
342.99	3465.2	
343.19	2673.3	
343.4	4962.9	
343.61	4835.3	
343.81	3084.9	
344.02	2765.4	
344.23	4921.3	
344.43	5216.9	
344.64	3535.5	
344.85	3375.1	
345.06	4930.1	
345.26	5085.8	
345.47	3305.4	
345.68	3713.6	
345.88	4317.1	
346.09	4997	
346.3	3321.8	
346.5	2547.7	
346.71	4601.1	
346.92	4500.1	
347.12	2794.1	
347.33	3310.9	
347.54	5069.4	
347.74	5286.5	
347.95	3246	
348.16	2527.2	
348.36	4504.8	
348.57	4366.3	
348.78	3267.9	
348.98	3414.6	
349.19	4601.1	
349.39	4257.7	
349.6	2754.5	
349.81	2889	
350.01	4893.3	
350.22	4446.1	
350.43	3175	
350.63	3747.1	
350.84	4678.9	
351.05	4450.9	
351.25	2899.9	
351.46	2668.5	
351.67	5029.1	
351.87	4429.1	
352.08	3032.4	
352.29	3463.8	
352.49	4969.7	
352.7	5027.1	
352.9	2814.6	
353.11	3371	
353.32	5449.6	
353.52	4543.1	
353.73	2814.6	
353.94	3459	
354.14	4872.8	
354.35	4683.7	
354.55	2876	
354.76	3160.7	
354.97	4873.5	
355.17	4661.9	
355.38	2762	
355.59	3697.3	
355.79	4432.5	
356	4587.4	
356.2	3078.1	
356.41	2797.5	
356.62	4239.3	
356.82	4601.1	
357.03	3347.7	
357.24	2987.3	
357.44	4397.7	
357.65	4519.2	
357.85	3875.4	
358.06	3174.4	
358.27	4194.9	
358.47	4311	
358.68	2677.4	
358.88	3334.8	
359.09	4765.6	
359.3	5074.9	
359.5	3830.4	
359.71	3377.1	
359.91	5382.1	
360.12	4868	
360.33	3280.8	
360.53	3586	
360.74	4435.2	
360.94	4467.3	
361.15	3465.2	
361.36	2936.1	
361.56	4984.8	
361.77	4582.7	
361.97	3753.2	
362.18	3065.8	
362.38	4992.9	
362.59	4302.8	
362.8	2872.6	
363	2697.9	
363.21	4163.5	
363.41	4648.2	
363.62	3213.3	
363.83	3904.8	
364.03	4771.8	
364.24	5301.5	
364.44	4020.8	
364.65	3953.9	
364.85	4572.4	
365.06	4350.6	
365.27	2969.6	
365.47	3044	
365.68	5242.8	
365.88	4566.3	
366.09	3287	
366.29	2990.7	
366.5	4625.7	
366.71	4966.3	
366.91	3940.3	
367.12	3397.6	
367.32	5440.1	
367.53	4924	
367.73	3388	
367.94	4074.1	
368.14	4925.4	
368.35	5408.7	
368.56	3313.6	
368.76	3149.1	
368.97	4998.4	
369.17	6109.8	
369.38	2970.2	
369.58	3184.6	
369.79	4252.9	
369.99	5219.6	
370.2	3941.7	
370.4	3206.4	
370.61	4760.8	
370.82	5634	
371.02	3167.5	
371.23	2636.4	
371.43	4231.8	
371.64	5195	
371.84	3196.2	
372.05	3973.1	
372.25	5993.7	
372.46	4919.9	
372.66	3211.2	
372.87	3177.8	
373.07	4974.5	
373.28	6171.2	
373.48	3863.2	
373.69	3700	
373.9	4614.8	
374.1	4676.9	
374.31	3903.4	
374.51	3480.9	
374.72	5169.8	
374.92	4433.9	
375.13	3904.8	
375.33	3406.5	
375.54	4845.5	
375.74	4525.3	
375.95	3478.8	
376.15	4318.5	
376.36	4956.8	
376.56	4843.4	
376.77	3487.7	
376.97	3796.9	
377.18	5684.5	
377.38	4999.1	
377.59	3919.8	
377.79	3104	
378	4821.6	
378.2	5124	
378.41	3205.1	
378.61	3104.7	
378.82	5229.8	
379.02	4593.6	
379.23	3304.7	
379.43	4104.1	
379.64	5255.1	
379.84	4980	
380.05	3173.7	
380.25	3149.1	
380.46	5096	
380.66	4743.1	
380.87	4107.5	
381.07	4388.8	
381.28	5485.1	
381.48	5040.1	
381.69	3220.1	
381.89	3239.9	
382.1	4315.8	
382.3	5057.1	
382.51	3966.9	
382.71	4618.9	
382.91	4997	
383.12	5408.7	
383.32	3480.2	
383.53	3616	
383.73	4910.3	
383.94	4881	
384.14	3648.1	
384.35	2938.8	
384.55	4709	
384.76	5012.7	
384.96	3500.7	
385.17	3685	
385.37	5061.2	
385.58	4486.4	
385.78	3667.2	
385.98	2942.2	
386.19	4704.2	
386.39	4964.3	
386.6	3259.7	
386.8	3459.7	
387.01	5003.9	
387.21	5114.5	
387.42	3740.3	
387.62	4085	
387.83	4637.3	
388.03	4891.2	
388.23	3517	
388.44	4044.7	
388.64	4440.7	
388.85	4407.2	
389.05	3691.1	
389.26	4102.8	
389.46	5846.3	
389.67	5337	
389.87	3726.6	
390.07	3697.9	
390.28	4748.6	
390.48	4448.2	
390.69	3246.7	
390.89	3424.9	
391.1	4635.2	
391.3	5221.6	
391.5	4228.4	
391.71	4616.8	
391.91	5128.8	
392.12	5751.4	
392.32	4322.6	
392.53	3758	
392.73	4717.8	
392.93	4829.8	
393.14	3575.8	
393.34	4106.9	
393.55	5233.9	
393.75	4766.3	
393.95	3547.8	
394.16	3475.4	
394.36	4634.6	
394.57	5171.1	
394.77	3141.6	
394.98	3365.5	
395.18	4690.5	
395.38	4674.8	
395.59	4059.8	
395.79	3315.7	
396	4752.7	
396.2	5045.5	
396.4	3990.1	
396.61	3859.7	
396.81	5124.7	
397.02	4657.1	
397.22	4097.3	
397.42	4156	
397.63	5254.4	
397.83	4662.5	
398.04	3305.4	
398.24	3672	
398.44	4984.1	
398.65	4367.6	
398.85	3263.1	
399.05	3304.1	
399.26	4672.8	
399.46	5821	
399.67	3542.3	
399.87	3362.1	
400.07	4964.3	
400.28	5188.2	
400.48	3435.8	
400.69	4166.9	
400.89	5281.7	
401.09	5608.7	
401.3	3437.9	
401.5	4186	
401.7	5736.4	
401.91	5978	
402.11	3695.9	
402.32	3835.8	
402.52	5389.6	
402.72	5254.4	
402.93	4010.6	
403.13	3182.5	
403.33	5891.3	
403.54	4950.6	
403.74	3733.4	
403.94	4388.1	
404.15	5016.8	
404.35	5788.2	
404.56	3622.2	
404.76	4800.4	
404.96	5279.7	
405.17	5151.3	
405.37	4429.8	
405.57	3949.2	
405.78	5321.3	
405.98	5001.1	
406.18	3579.2	
406.39	4188.1	
406.59	5367.7	
406.79	4990.2	
407	3461.7	
407.2	3472	
407.4	5584.8	
407.61	5442.1	
407.81	3532.7	
408.01	4625.7	
408.22	4622.9	
408.42	5958.2	
408.62	4334.9	
408.83	3979.2	
409.03	5076.2	
409.23	5002.5	
409.44	3919.1	
409.64	4143	
409.84	5787.6	
410.05	5707.7	
410.25	4113	
410.45	4014	
410.66	5373.9	
410.86	7116.7	
411.06	4278.9	
411.27	4239.3	
411.47	6993.1	
411.67	5492.7	
411.88	4456.4	
412.08	4552	
412.28	5934.3	
412.49	6361.7	
412.69	4213.4	
412.89	4182.6	
413.09	6198.5	
413.3	6130.9	
413.5	4342.4	
413.7	4078.9	
413.91	5597.8	
414.11	6174.6	
414.31	4165.6	
414.52	4528.7	
414.72	5974.6	
414.92	5868.1	
415.12	4190.8	
415.33	4609.3	
415.53	6178.7	
415.73	6245.6	
415.94	4868	
416.14	4463.2	
416.34	5532.2	
416.55	5265.3	
416.75	5309.7	
416.95	4880.3	
417.15	6267.5	
417.36	6661.4	
417.56	5421.7	
417.76	4749.9	
417.97	6470.9	
418.17	6238.8	
418.37	4483.7	
418.57	4571.1	
418.78	6163	
418.98	5868.1	
419.18	5221	
419.38	5113.8	
419.59	5849	
419.79	5630.5	
419.99	4473.4	
420.2	4717.8	
420.4	6262	
420.6	6290.7	
420.8	4339.6	
421.01	4260.5	
421.21	6102.9	
421.41	6225.8	
421.61	4643.4	
421.82	4448.9	
422.02	5855.1	
422.22	6528.9	
422.42	5062.6	
422.63	4810.7	
422.83	5897.5	
423.03	6731.7	
423.23	4776.5	
423.44	4081.6	
423.64	5902.9	
423.84	5720	
424.04	4415.4	
424.25	4110.3	
424.45	6531.7	
424.65	6488.6	
424.85	4027	
425.06	4443.4	
425.26	6700.3	
425.46	5838.1	
425.66	4773.1	
425.87	4606.6	
426.07	6401.3	
426.27	6202.6	
426.47	4704.2	
426.67	4185.4	
426.88	6689.3	
427.08	6254.5	
427.28	4865.3	
427.48	4103.4	
427.69	5507	
427.89	5904.3	
428.09	4807.3	
428.29	4131.4	
428.5	6404.7	
428.7	6108.4	
428.9	4079.6	
429.1	4503.5	
429.3	6047.7	
429.51	6213.5	
429.71	4397	
429.91	4975.9	
430.11	6309.1	
430.31	6473.6	
430.52	4596.3	
430.72	4767	
430.92	6713.2	
431.12	6288.6	
431.32	4333.5	
431.53	4689.8	
431.73	5565.7	
431.93	6659.3	
432.13	4271.4	
432.33	4235.2	
432.54	5932.3	
432.74	6077.7	
432.94	4191.5	
433.14	4930.1	
433.34	6361.7	
433.55	5951.4	
433.75	4920.6	
433.95	6173.9	
434.15	6195.8	
434.35	5852.4	
434.56	4313.7	
434.76	4022.2	
434.96	6115.9	
435.16	6342.6	
435.36	4340.3	
435.56	5138.4	
435.77	5907.7	
435.97	6073.6	
436.17	5574.6	
436.37	5101.5	
436.57	5935	
436.78	5882.4	
436.98	6263.4	
437.18	5444.2	
437.38	6425.2	
437.58	6025.1	
437.78	5545.2	
437.99	4618.2	
438.19	6455.2	
438.39	6978.1	
438.59	4577.2	
438.79	4224.3	
438.99	6870.3	
439.2	6075	
439.4	4233.8	
439.6	4220.9	
439.8	6152.8	
440	6978.8	
440.2	5029.1	
440.4	5003.9	
440.61	6541.9	
440.81	6952.9	
441.01	4492.6	
441.21	5128.1	
441.41	6849.8	
441.61	6554.2	
441.81	5389.6	
442.02	6089.3	
442.22	7256.6	
442.42	6711.2	
442.62	4633.9	
442.82	4622.3	
443.02	6961.7	
443.22	6349.4	
443.43	4909	
443.63	4600.4	
443.83	6171.2	
444.03	6190.3	
444.23	5431.9	
444.43	5175.2	
444.63	6519.4	
444.83	7291.5	
445.04	4819.6	
445.24	5580.7	
445.44	6795.2	
445.64	6756.2	
445.84	5260.5	
446.04	5288.5	
446.24	6219	
446.44	6954.2	
446.65	4669.4	
446.85	5013.4	
447.05	6238.1	
447.25	6919.4	
447.45	5046.9	
447.65	4564.2	
447.85	6565.8	
448.05	6236.7	
448.25	5274.9	
448.46	5104.2	
448.66	6472.9	
448.86	6242.9	
449.06	4504.2	
449.26	5294	
449.46	6699.6	
449.66	6084.5	
449.86	5044.1	
450.06	4941.1	
450.26	6176	
450.47	6602	
450.67	5177.3	
450.87	5408.7	
451.07	6724.2	
451.27	6551.5	
451.47	4644.1	
451.67	5352	
451.87	6329.6	
452.07	7146	
452.27	4913.1	
452.47	4826.4	
452.67	6574.7	
452.88	6875	
453.08	4430.4	
453.28	5799.2	
453.48	7389.1	
453.68	6501.6	
453.88	4811.4	
454.08	4939.7	
454.28	6834.1	
454.48	6582.2	
454.68	5385.5	
454.88	5654.4	
455.08	6901	
455.28	6731	
455.48	4745.8	
455.68	5216.9	
455.89	7225.9	
456.09	7038.2	
456.29	5016.8	
456.49	5120.6	
456.69	7219.8	
456.89	6572.6	
457.09	5467.4	
457.29	5707.7	
457.49	6971.3	
457.69	7041.6	
457.89	5347.9	
458.09	4911.7	
458.29	6767.2	
458.49	7370.6	
458.69	5662	
458.89	5175.9	
459.09	7437.5	
459.29	7577.5	
459.49	5295.4	
459.69	5919.3	
459.9	7253.2	
460.1	6911.2	
460.3	5242.8	
460.5	5132.2	
460.7	7256.6	
460.9	6874.3	
461.1	4868.7	
461.3	5737.7	
461.5	7671.7	
461.7	7331	
461.9	5236.7	
462.1	5483.1	
462.3	7014.3	
462.5	7423.9	
462.7	5317.2	
462.9	5321.3	
463.1	8191.2	
463.3	8012.3	
463.5	5530.9	
463.7	6296.1	
463.9	7329	
464.1	7568.6	
464.3	5734.3	
464.5	5841.5	
464.7	7722.9	
464.9	7507.9	
465.1	6699.6	
465.3	6111.8	
465.5	7906.5	
465.7	8037.6	
465.9	6289.3	
466.1	6152.1	
466.3	7845.1	
466.5	7818.5	
466.7	6881.9	
466.9	6085.9	
467.1	7857.4	
467.3	8426	
467.5	6824.5	
467.7	6006.7	
467.9	8565.3	
468.1	9217.9	
468.3	6535.8	
468.5	6889.4	
468.7	7811	
468.9	7641.7	
469.1	6294.8	
469.3	6868.9	
469.5	9217.9	
469.7	7559.7	
469.9	6608.1	
470.1	6154.1	
470.3	7913.4	
470.5	7862.8	
470.7	7051.2	
470.9	6300.2	
471.1	7656	
471.3	7978.2	
471.5	6022.4	
471.69	7451.9	
471.89	7655.3	
472.09	7200	
472.29	6591	
472.49	6894.1	
472.69	7417.1	
472.89	7966.6	
473.09	6057.9	
473.29	6205.3	
473.49	7549.5	
473.69	7629.4	
473.89	6801.3	
474.09	6177.4	
474.29	8552.3	
474.49	8264.9	
474.69	6764.4	
474.89	6339.8	
475.09	7602.7	
475.29	7580.9	
475.49	5945.9	
475.69	6077	
475.88	8750.3	
476.08	7965.2	
476.28	5872.9	
476.48	6030.6	
476.68	8191.9	
476.88	8013.7	
477.08	6088.6	
477.28	6251.1	
477.48	7632.8	
477.68	8089.5	
477.88	5877	
478.08	6130.9	
478.28	8292.9	
478.48	7715.4	
478.67	6146.6	
478.87	5741.8	
479.07	8272.4	
479.27	7823.9	
479.47	6358.9	
479.67	6381.5	
479.87	8131.8	
480.07	8431.5	
480.27	5851	
480.47	6908.5	
480.67	7800	
480.87	8300.4	
481.06	6033.3	
481.26	6685.9	
481.46	7821.2	
481.66	7775.5	
481.86	6398.5	
482.06	7021.8	
482.26	7666.9	
482.46	8363.2	
482.66	6333.7	
482.86	5980.8	
483.05	7997.3	
483.25	7557	
483.45	8118.1	
483.65	6255.2	
483.85	7559.1	
484.05	7776.8	
484.25	6633.4	
484.45	6929.6	
484.65	8453.3	
484.84	8411	
485.04	6293.4	
485.24	6315.9	
485.44	8716.8	
485.64	7499	
485.84	5843.5	
486.04	6746.7	
486.24	7825.3	
486.44	7943.4	
486.63	5891.3	
486.83	6472.9	
487.03	7773.4	
487.23	7925	
487.43	5926.8	
487.63	7619.1	
487.83	7989.8	
488.02	8566	
488.22	6653.2	
488.42	7073	
488.62	8615.1	
488.82	7742.7	
489.02	6427.9	
489.22	6496.2	
489.41	8428.8	
489.61	8292.2	
489.81	6282.5	
490.01	6281.8	
490.21	8533.9	
490.41	8982.4	
490.61	6310.5	
490.8	6419	
491	8172.1	
491.2	7714.7	
491.4	6829.3	
491.6	6213.5	
491.8	8200.7	
491.99	8101.1	
492.19	6141.9	
492.39	6191	
492.59	8462.2	
492.79	8545.5	
492.99	6909.2	
493.18	6256.5	
493.38	8652	
493.58	9130.5	
493.78	6901	
493.98	6533	
494.18	8474.5	
494.37	8157.7	
494.57	6997.9	
494.77	6924.2	
494.97	8613.1	
495.17	8888.2	
495.37	6806.8	
495.56	7012.9	
495.76	9058.8	
495.96	8872.5	
496.16	7689.4	
496.36	6986.3	
496.55	9028.1	
496.75	8587.8	
496.95	7249.8	
497.15	7125.6	
497.35	9046.6	
497.54	8901.2	
497.74	7032	
497.94	8198.7	
498.14	9514.9	
498.34	9315.5	
498.53	6833.4	
498.73	7290.1	
498.93	8491.6	
499.13	9105.3	
499.33	7247.1	
499.52	7445.7	
499.72	9118.9	
499.92	9170.1	
500.12	7106.5	
500.32	7273	
500.51	9257.5	
500.71	9028.8	
500.91	7810.3	
501.11	7661.5	
501.31	9253.4	
501.5	9465	
501.7	8125	
501.9	7271	
502.1	9022.7	
502.29	9359.2	
502.49	7784.3	
502.69	7987.1	
502.89	9261.6	
503.09	9236.3	
503.28	6969.2	
503.48	6993.1	
503.68	8730.5	
503.88	8619.2	
504.07	7684	
504.27	7342.7	
504.47	8985.8	
504.67	8954.4	
504.86	7635.5	
505.06	7362.4	
505.26	8806.3	
505.46	9837.8	
505.65	7367.2	
505.85	7469.6	
506.05	8687.5	
506.25	9041.1	
506.44	6877.8	
506.64	7442.3	
506.84	8529.1	
507.04	9025.4	
507.23	6954.2	
507.43	7389.8	
507.63	9928.6	
507.83	8652.7	
508.02	7327.6	
508.22	7120.1	
508.42	10127	
508.62	8566.7	
508.81	7249.1	
509.01	7707.2	
509.21	8437.6	
509.4	8731.9	
509.6	7467.6	
509.8	7047.1	
510	8723.7	
510.19	9544.9	
510.39	6874.3	
510.59	7092.1	
510.79	8581	
510.98	9551.7	
511.18	7155.6	
511.38	7167.2	
511.57	9228.1	
511.77	8939.4	
511.97	7658.7	
512.17	6996.5	
512.36	9144.9	
512.56	8928.5	
512.76	6952.9	
512.95	6769.9	
513.15	9322.4	
513.35	8185.7	
513.55	7604.1	
513.74	6944.7	
513.94	9155.8	
514.14	8665.6	
514.33	7670.3	
514.53	7328.3	
514.73	8723	
514.92	8774.2	
515.12	7095.5	
515.32	7031.4	
515.51	8927.1	
515.71	9121	
515.91	8361.9	
516.11	7048.4	
516.3	10065	
516.5	8672.5	
516.7	7487.4	
516.89	7935.2	
517.09	8776.2	
517.29	8799.4	
517.48	7708.6	
517.68	7258.7	
517.88	8462.2	
518.07	9045.2	
518.27	7658	
518.47	6970.6	
518.66	9478	
518.86	8475.9	
519.06	6837.5	
519.25	7193.1	
519.45	8802.2	
519.65	9798.8	
519.84	7657.4	
520.04	8198.7	
520.24	10132	
520.43	9192	
520.63	7593.2	
520.83	7378.1	
521.02	8733.2	
521.22	9115.5	
521.42	7569.3	
521.61	8074.5	
521.81	8781	
522.01	8940.7	
522.2	7565.2	
522.4	7447.8	
522.6	9368.1	
522.79	8369.4	
522.99	7537.9	
523.18	7027.9	
523.38	9205.6	
523.58	9171.5	
523.77	8378.9	
523.97	7133.8	
524.17	10518	
524.36	9997.5	
524.56	8097.7	
524.76	7960.5	
524.95	9269.8	
525.15	9086.2	
525.34	7801.4	
525.54	7798	
525.74	9687.6	
525.93	8924.4	
526.13	8747.6	
526.33	7940.7	
526.52	10061	
526.72	9605.7	
526.91	8869.8	
527.11	8323.6	
527.31	9934	
527.5	10258	
527.7	8339.3	
527.89	7600.7	
528.09	9354.4	
528.29	9813.9	
528.48	8576.9	
528.68	8363.2	
528.87	10162	
529.07	10100	
529.27	8297.7	
529.46	8077.9	
529.66	9982.5	
529.85	10204	
530.05	7972.1	
530.25	8536.6	
530.44	10935	
530.64	9846.6	
530.83	8196.7	
531.03	8460.2	
531.23	10291	
531.42	9983.8	
531.62	8862.9	
531.81	8364.6	
532.01	10397	
532.21	10535	
532.4	8312.7	
532.6	8566	
532.79	10952	
532.99	10419	
533.18	8626	
533.38	9389.9	
533.58	10222	
533.77	10684	
533.97	8817.9	
534.16	9408.4	
534.36	10958	
534.55	10282	
534.75	9422	
534.95	8788.5	
535.14	11022	
535.34	10387	
535.53	8609.7	
535.73	9964.7	
535.92	11320	
536.12	10313	
536.31	8705.9	
536.51	9539.4	
536.71	10631	
536.9	10305	
537.1	8736	
537.29	8902.5	
537.49	11000	
537.68	10225	
537.88	9221.3	
538.07	8546.2	
538.27	10494	
538.46	11188	
538.66	8515.5	
538.86	8830.8	
539.05	10586	
539.25	10795	
539.44	9201.5	
539.64	8751.7	
539.83	10341	
540.03	11079	
540.22	8834.9	
540.42	8708.6	
540.61	10634	
540.81	10685	
541	9192	
541.2	9643.2	
541.39	10183	
541.59	10478	
541.78	9372.9	
541.98	8764.6	
542.18	10024	
542.37	10017	
542.57	8876.6	
542.76	9452.7	
542.96	10063	
543.15	10469	
543.35	8897.1	
543.54	8480.6	
543.74	10483	
543.93	10351	
544.13	8710	
544.32	9519.6	
544.52	10546	
544.71	9961.3	
544.91	8213.7	
545.1	8996.7	
545.3	10038	
545.49	10458	
545.69	8111.3	
545.88	8623.3	
546.08	11168	
546.27	10763	
546.47	8856.8	
546.66	8393.3	
546.86	10647	
547.05	11056	
547.24	8514.1	
547.44	8492.9	
547.63	9809.1	
547.83	10580	
548.02	8746.2	
548.22	8846.5	
548.41	9693.7	
548.61	10647	
548.8	8424	
549	8413.1	
549.19	10346	
549.39	10511	
549.58	8164.6	
549.78	8600.8	
549.97	10492	
550.17	10081	
550.36	9096.4	
550.55	9905.3	
550.75	10029	
550.94	10673	
551.14	8275.2	
551.33	8473.1	
551.53	9614.5	
551.72	10227	
551.92	8471.8	
552.11	8359.8	
552.31	10343	
552.5	10149	
552.69	9530.6	
552.89	8082	
553.08	10202	
553.28	10008	
553.47	8329.8	
553.67	9164	
553.86	10649	
554.06	9446.6	
554.25	7796.6	
554.44	8127	
554.64	11206	
554.83	10775	
555.03	8135.9	
555.22	8449.9	
555.42	10360	
555.61	10179	
555.8	8346.8	
556	8405.5	
556.19	9463	
556.39	10362	
556.58	8312	
556.78	8319.5	
556.97	10058	
557.16	9760.6	
557.36	9188.6	
557.55	7987.1	
557.75	9325.1	
557.94	10664	
558.13	8125.7	
558.33	8002.1	
558.52	10423	
558.72	9548.3	
558.91	8071.7	
559.1	8100.4	
559.3	9370.8	
559.49	9130.5	
559.69	7715.4	
559.88	8365.3	
560.07	9897.8	
560.27	10186	
560.46	8449.2	
560.66	8650.6	
560.85	9771.5	
561.04	9145.5	
561.24	7972.7	
561.43	7923.6	
561.63	9305.3	
561.82	9562	
562.01	8888.2	
562.21	8235.6	
562.4	9771.5	
562.59	10479	
562.79	8164.6	
562.98	7840.3	
563.18	9871.2	
563.37	10802	
563.56	8624	
563.76	7892.9	
563.95	9478.7	
564.14	9493	
564.34	8215.1	
564.53	8005.5	
564.73	9935.4	
564.92	10053	
565.11	8352.3	
565.31	7852.6	
565.5	10325	
565.69	9371.5	
565.89	8129.8	
566.08	8180.3	
566.27	10080	
566.47	10529	
566.66	8683.4	
566.85	7750.2	
567.05	9904.7	
567.24	9515.5	
567.44	8009.6	
567.63	8994	
567.82	10135	
568.02	9798.2	
568.21	8004.1	
568.4	8234.2	
568.6	9811.8	
568.79	9777.7	
568.98	7973.4	
569.18	7955	
569.37	9888.3	
569.56	11161	
569.76	8320.9	
569.95	9030.9	
570.14	10163	
570.34	9971.6	
570.53	8000	
570.72	8049.9	
570.91	10441	
571.11	9753.1	
571.3	8291.5	
571.49	8965.3	
571.69	9815.2	
571.88	9452.1	
572.07	8613.8	
572.27	8632.9	
572.46	9437	
572.65	10162	
572.85	8102.4	
573.04	8376.2	
573.23	10471	
573.43	9926.5	
573.62	7894.9	
573.81	8346.2	
574	9952.4	
574.2	9802.9	
574.39	8281.3	
574.58	8380.3	
574.78	10583	
574.97	10062	
575.16	8640.4	
575.36	8694.3	
575.55	10424	
575.74	10466	
575.93	7989.8	
576.13	8784.4	
576.32	9904.7	
576.51	10289	
576.71	8428.8	
576.9	9288.9	
577.09	10629	
577.28	10245	
577.48	8602.2	
577.67	7948.8	
577.86	9901.2	
578.05	10243	
578.25	8525	
578.44	8583	
578.63	9979.8	
578.83	10911	
579.02	8090.8	
579.21	9211.1	
579.4	10172	
579.6	9924.5	
579.79	8492.9	
579.98	10120	
580.17	10319	
580.37	10502	
580.56	8144.1	
580.75	8706.6	
580.94	10697	
581.14	10575	
581.33	9017.9	
581.52	8288.1	
581.71	10290	
581.91	10781	
582.1	8125	
582.29	8525.7	
582.48	10092	
582.68	10092	
582.87	8781	
583.06	8529.8	
583.25	10306	
583.45	10234	
583.64	9165.3	
583.83	9648.7	
584.02	10043	
584.21	10309	
584.41	8981	
584.6	8479.3	
584.79	10130	
584.98	10654	
585.18	8165.9	
585.37	8239.7	
585.56	9826.8	
585.75	10344	
585.94	8348.9	
586.14	8834.3	
586.33	10722	
586.52	10087	
586.71	8632.9	
586.91	8404.2	
587.1	9514.2	
587.29	10258	
587.48	8330.5	
587.67	8275.2	
587.87	10148	
588.06	10131	
588.25	9212.4	
588.44	8723.7	
588.63	9888.3	
588.83	10294	
589.02	8267	
589.21	8060.8	
589.4	9733.3	
589.59	9631.6	
589.78	7607.5	
589.98	7686.7	
590.17	9191.3	
590.36	9535.3	
590.55	7164.5	
590.74	7606.2	
590.94	10316	
591.13	9332.6	
591.32	7421.2	
591.51	7066.2	
591.7	9566.7	
591.89	9125.1	
592.09	7265.5	
592.28	7584.3	
592.47	8626	
592.66	10109	
592.85	7253.2	
593.05	7415	
593.24	9122.3	
593.43	9787.2	
593.62	7429.3	
593.81	7811.6	
594	9169.4	
594.19	9308	
594.39	7396.6	
594.58	7381.6	
594.77	9336.7	
594.96	9682.1	
595.15	7413.6	
595.34	7811	
595.54	9258.9	
595.73	8758.5	
595.92	6837.5	
596.11	7623.2	
596.3	9783.1	
596.49	8781.7	
596.68	7539.3	
596.88	7767.9	
597.07	9477.3	
597.26	8629.5	
597.45	7176.1	
597.64	7905.2	
597.83	8921	
598.02	9265.7	
598.22	7159.7	
598.41	7630.7	
598.6	9258.2	
598.79	8630.1	
598.98	7210.2	
599.17	7835.5	
599.36	9194.7	
599.55	9908.8	
599.74	8607.6	
599.94	8406.9	
600.13	9578.3	
600.32	8714.8	
600.51	6963.1	
600.7	7137.9	
600.89	9861	
601.08	9920.4	
601.27	6916.7	
601.47	7572	
601.66	9509.4	
601.85	9898.5	
602.04	7411.6	
602.23	7606.2	
602.42	8812.4	
602.61	9167.4	
602.8	7266.9	
602.99	7104.4	
603.18	9045.9	
603.37	9147.6	
603.57	7591.8	
603.76	8022.6	
603.95	9647.3	
604.14	9243.8	
604.33	7311.9	
604.52	7413.6	
604.71	9052.7	
604.9	8816.5	
605.09	7958.4	
605.28	7736.5	
605.47	9506	
605.66	9161.2	
605.86	7660.1	
606.05	7179.5	
606.24	9546.3	
606.43	8508.6	
606.62	7508.5	
606.81	8075.8	
607	9353.1	
607.19	8940.1	
607.38	7039.6	
607.57	7144.7	
607.76	8604.2	
607.95	8307.2	
608.14	7522.2	
608.33	7916.8	
608.52	8701.8	
608.72	9373.6	
608.91	6860.7	
609.1	6884.6	
609.29	8859.5	
609.48	8348.2	
609.67	7619.8	
609.86	6854.6	
610.05	8487.5	
610.24	8738.7	
610.43	6802.7	
610.62	6438.8	
610.81	9559.9	
611	9273.2	
611.19	6810.2	
611.38	7333.1	
611.57	8980.3	
611.76	9721	
611.95	6772.6	
612.14	6557.6	
612.33	8735.3	
612.52	8354.3	
612.71	7094.2	
612.9	6485.2	
613.09	8153	
613.28	9723.1	
613.47	6993.1	
613.66	7551.5	
613.85	8825.4	
614.04	8439	
614.24	6944.7	
614.43	6414.2	
614.62	8769.4	
614.81	8854.1	
615	7309.2	
615.19	7225.2	
615.38	8404.2	
615.57	8637	
615.76	7288	
615.95	7861.5	
616.14	8940.7	
616.33	8623.3	
616.52	7501	
616.71	7552.9	
616.9	8936.7	
617.09	8704.5	
617.28	6959.7	
617.47	7798.7	
617.66	8380.3	
617.85	8208.9	
618.04	7591.8	
618.22	7287.4	
618.41	8574.8	
618.6	9244.5	
618.79	7208.2	
618.98	7067.5	
619.17	9397.4	
619.36	8146.1	
619.55	7213.6	
619.74	7219.1	
619.93	8854.1	
620.12	8459.5	
620.31	7582.3	
620.5	7792.5	
620.69	9327.1	
620.88	9634.3	
621.07	8202.8	
621.26	7511.9	
621.45	9156.5	
621.64	9054.1	
621.83	7603.4	
622.02	7042.3	
622.21	9110.7	
622.4	8980.3	
622.59	7985	
622.78	7918.8	
622.97	8738.7	
623.16	9441.8	
623.35	7610.9	
623.54	6912.6	
623.72	8825.4	
623.91	8854.7	
624.1	7817.1	
624.29	6950.8	
624.48	9749	
624.67	9169.4	
624.86	7691.5	
625.05	7041.6	
625.24	9864.4	
625.43	8648.6	
625.62	8927.1	
625.81	7206.8	
626	9386.5	
626.19	8849.3	
626.38	7746.1	
626.56	7445.7	
626.75	8716.2	
626.94	9306.7	
627.13	7799.3	
627.32	6813.6	
627.51	9279.3	
627.7	9992.7	
627.89	7045.7	
628.08	7802.1	
628.27	8586.5	
628.46	8756.4	
628.65	7068.2	
628.83	6855.2	
629.02	9212.4	
629.21	8658.8	
629.4	7514	
629.59	7636.2	
629.78	8571.4	
629.97	9231.6	
630.16	7661.5	
630.35	7249.1	
630.54	9677.3	
630.72	9493.7	
630.91	7307.2	
631.1	7724.9	
631.29	9087.5	
631.48	9142.1	
631.67	7769.3	
631.86	7230.7	
632.05	8834.3	
632.24	8743.5	
632.42	7106.5	
632.61	7496.2	
632.8	8841.8	
632.99	8586.5	
633.18	7546.1	
633.37	7720.8	
633.56	9087.5	
633.75	8879.3	
633.93	7625.3	
634.12	7348.1	
634.31	9692.4	
634.5	9285.5	
634.69	7258	
634.88	7660.1	
635.07	8910.7	
635.25	9289.6	
635.44	7918.1	
635.63	8043.7	
635.82	8774.2	
636.01	8335.9	
636.2	7922.9	
636.39	7544.7	
636.57	9587.2	
636.76	9196.1	
636.95	7243.7	
637.14	8107.2	
637.33	9071.8	
637.52	9568.8	
637.7	6843.6	
637.89	7662.1	
638.08	8837.7	
638.27	9742.2	
638.46	7686.7	
638.65	8030.8	
638.83	9748.3	
639.02	8692.9	
639.21	7580.9	
639.4	7933.1	
639.59	8958.5	
639.78	8679.3	
639.96	7052.5	
640.15	7055.9	
640.34	8846.5	
640.53	8844.5	
640.72	6865.5	
640.91	7058.7	
641.09	8349.6	
641.28	9336	
641.47	7052.5	
641.66	7538.6	
641.85	8863.6	
642.03	8942.8	
642.22	7452.6	
642.41	7146.7	
642.6	8389.2	
642.79	7981.6	
642.97	6866.8	
643.16	7346.7	
643.35	8340.7	
643.54	8191.9	
643.73	6831.3	
643.91	7406.8	
644.1	8098.4	
644.29	8548.2	
644.48	6849.1	
644.67	6908.5	
644.85	8159.1	
645.04	8454	
645.23	6561	
645.42	6732.4	
645.6	8060.1	
645.79	8871.1	
645.98	6657.9	
646.17	5997.1	
646.36	7776.8	
646.54	8207.6	
646.73	7179.5	
646.92	6329.6	
647.11	7897	
647.29	8651.3	
647.48	6371.2	
647.67	6201.9	
647.86	8804.2	
648.05	8644.5	
648.23	6526.9	
648.42	7374.7	
648.61	8402.1	
648.8	8114.1	
648.98	6324.8	
649.17	6558.3	
649.36	7843	
649.55	7496.2	
649.73	6283.9	
649.92	6833.4	
650.11	7676.5	
650.3	7975.5	
650.48	6443.6	
650.67	6354.8	
650.86	8186.4	
651.05	7370.6	
651.23	6414.9	
651.42	6279.8	
651.61	7836.2	
651.79	7670.3	
651.98	6431.3	
652.17	6150.1	
652.36	8011.7	
652.54	7339.9	
652.73	6199.2	
652.92	6064	
653.11	8061.5	
653.29	8106.5	
653.48	5683.1	
653.67	6384.2	
653.85	7742.7	
654.04	8543.4	
654.23	6474.3	
654.42	6114.6	
654.6	7391.8	
654.79	7952.9	
654.98	5792.3	
655.16	6152.1	
655.35	7084.6	
655.54	6976.7	
655.73	5782.1	
655.91	5576.6	
656.1	7794.6	
656.29	6911.9	
656.47	5375.9	
656.66	6599.9	
656.85	7292.1	
657.03	7215	
657.22	5823.7	
657.41	5838.1	
657.59	7354.9	
657.78	7239.6	
657.97	5584.8	
658.16	6056.5	
658.34	7765.9	
658.53	8141.4	
658.72	6788.3	
658.9	7049.8	
659.09	7491.5	
659.28	7483.3	
659.46	5987.6	
659.65	5900.2	
659.84	7219.8	
660.02	7744.1	
660.21	5965.7	
660.4	5733.6	
660.58	7914	
660.77	7435.5	
660.96	6283.2	
661.14	5537.7	
661.33	8338.6	
661.52	8213	
661.7	5498.1	
661.89	8016.4	
662.08	7208.2	
662.26	6840.2	
662.45	5709.7	
662.64	5771.9	
662.82	7735.9	
663.01	7159.7	
663.2	5763.7	
663.38	6303.6	
663.57	7550.9	
663.75	7462.8	
663.94	6013.5	
664.13	6943.3	
664.31	7163.8	
664.5	7621.9	
664.69	6292.7	
664.87	6497.5	
665.06	6985.6	
665.25	7417.7	
665.43	6704.4	
665.62	6701	
665.8	7598	
665.99	7222.5	
666.18	5915.2	
666.36	5989.6	
666.55	7658.7	
666.74	7527.7	
666.92	5752.7	
667.11	6885.3	
667.29	7331.7	
667.48	7657.4	
667.67	6533	
667.85	5819.6	
668.04	7118.7	
668.22	7220.5	
668.41	6068.8	
668.6	6180.1	
668.78	7023.2	
668.97	7310.6	
669.15	6252.4	
669.34	5502.9	
669.53	7081.9	
669.71	7284.6	
669.9	5628.5	
670.08	6086.6	
670.27	7010.9	
670.46	7477.1	
670.64	6221	
670.83	6462.7	
671.01	6890	
671.2	7327.6	
671.38	5715.9	
671.57	5579.3	
671.76	7804.8	
671.94	8222.6	
672.13	5603.9	
672.31	6287.3	
672.5	7538.6	
672.69	7054.6	
672.87	5705.6	
673.06	5939.8	
673.24	7425.9	
673.43	7060	
673.61	6158.9	
673.8	5836.7	
673.98	7474.4	
674.17	7630.7	
674.36	6274.3	
674.54	6209.4	
674.73	7234.1	
674.91	7618.4	
675.1	5902.9	
675.28	5701.5	
675.47	7180.9	
675.65	7516.7	
675.84	5939.1	
676.03	6017.6	
676.21	7099.6	
676.4	6699.6	
676.58	6384.2	
676.77	6251.1	
676.95	8102.4	
677.14	7014.3	
677.32	5530.9	
677.51	5545.9	
677.69	7567.2	
677.88	6910.5	
678.06	5559.6	
678.25	5629.2	
678.44	7247.8	
678.62	7002	
678.81	5453.7	
678.99	6055.8	
679.18	7770	
679.36	7443.7	
679.55	5801.9	
679.73	6215.6	
679.92	7432.1	
680.1	7012.2	
680.29	6641.6	
680.47	5861.3	
680.66	7064.8	
680.84	7626.6	
681.03	5339.1	
681.21	6098.2	
681.4	7037.5	
681.58	6895.5	
681.77	5710.4	
681.95	5602.6	
682.14	7589.8	
682.32	7847.8	
682.51	6283.2	
682.69	5413.5	
682.88	6933.7	
683.06	7314	
683.25	6045.6	
683.43	6350.8	
683.62	7269.6	
683.8	7455.3	
683.99	6492.1	
684.17	5985.5	
684.36	8028.7	
684.54	7068.9	
684.73	5345.9	
684.91	5420.3	
685.1	7285.3	
685.28	6756.2	
685.46	5786.9	
685.65	5795.1	
685.83	7326.9	
686.02	6909.8	
686.2	5384.8	
686.39	5449	
686.57	6621.8	
686.76	7679.9	
686.94	5430.5	
687.13	5554.1	
687.31	7155.6	
687.5	6956.3	
687.68	5147.9	
687.86	5889.3	
688.05	8214.4	
688.23	6576	
688.42	6018.3	
688.6	5529.5	
688.79	6895.5	
688.97	6879.1	
689.16	5859.9	
689.34	5144.5	
689.52	7495.6	
689.71	7591.8	
689.89	6090	
690.08	5642.2	
690.26	7225.2	
690.45	7069.6	
690.63	6139.1	
690.81	5761.6	
691	7120.8	
691.18	6929	
691.37	5897.5	
691.55	7378.1	
691.74	6880.5	
691.92	8387.8	
692.1	5799.8	
692.29	5563	
692.47	7094.8	
692.66	6518.7	
692.84	5651.7	
693.02	5971.2	
693.21	6696.2	
693.39	7078.5	
693.58	6092	
693.76	5633.3	
693.94	7868.3	
694.13	7760.4	
694.31	5765.7	
694.5	6474.3	
694.68	6985.6	
694.86	7330.4	
695.05	6069.5	
695.23	6045.6	
695.42	7526.3	
695.6	9173.5	
695.78	6470.2	
695.97	5917.3	
696.15	7708.6	
696.34	7210.2	
696.52	5788.9	
696.7	6313.9	
696.89	7514.7	
697.07	7045	
697.25	6191.7	
697.44	7329	
697.62	7542	
697.81	7667.6	
697.99	6086.6	
698.17	6413.6	
698.36	7093.5	
698.54	7662.1	
698.72	6293.4	
698.91	5531.6	
699.09	7152.2	
699.28	7088.7	
699.46	6048.3	
699.64	5980.1	
699.83	7127.6	
700.01	7861.5	
700.19	6602	
700.38	5500.8	
700.56	8032.8	
700.74	7231.4	
700.93	5724.8	
701.11	6350.1	
701.29	7635.5	
701.48	8394.6	
701.66	5948.7	
701.84	6068.1	
702.03	7432.1	
702.21	7933.1	
702.39	5814.9	
702.58	6182.8	
702.76	7767.9	
702.94	7794.6	
703.13	5831.2	
703.31	7543.4	
703.49	7284.6	
703.68	8214.4	
703.86	5964.4	
704.04	6628.6	
704.23	7654.6	
704.41	7888.1	
704.59	6065.4	
704.78	6792.4	
704.96	8847.2	
705.14	7933.1	
705.33	6002.6	
705.51	6520.7	
705.69	7505.8	
705.87	8068.3	
706.06	6725.5	
706.24	5890.6	
706.42	7853.3	
706.61	8024.6	
706.79	6787	
706.97	5880.4	
707.16	7422.5	
707.34	7884	
707.52	6657.9	
707.7	6139.8	
707.89	7516	
708.07	7339.2	
708.25	6782.9	
708.44	6847.7	
708.62	7464.2	
708.8	8302.5	
708.98	6910.5	
709.17	6240.8	
709.35	7829.4	
709.53	7833.5	
709.72	6032	
709.9	6124.8	
710.08	8035.5	
710.26	8017.8	
710.45	7223.2	
710.63	6256.5	
710.81	7802.8	
710.99	7712	
711.18	6708.5	
711.36	6189.6	
711.54	7559.7	
711.72	8167.3	
711.91	6404.7	
712.09	5959.6	
712.27	7763.8	
712.45	8082	
712.64	6489.3	
712.82	5753.4	
713	7249.1	
713.18	7333.1	
713.37	5782.1	
713.55	6636.8	
713.73	7903.8	
713.91	7002	
714.1	5914.5	
714.28	5602.6	
714.46	7499	
714.64	6918	
714.83	5102.2	
715.01	5593.7	
715.19	6861.4	
715.37	6233.3	
715.55	5136.3	
715.74	5423.7	
715.92	7260	
716.1	5860.6	
716.28	6264.1	
716.47	5442.8	
716.65	6441.5	
716.83	6519.4	
717.01	5430.5	
717.19	5341.1	
717.38	7937.2	
717.56	6283.2	
717.74	5504.3	
717.92	4936.3	
718.1	7164.5	
718.29	6568.5	
718.47	4756.7	
718.65	5298.8	
718.83	7205.4	
719.01	7212.9	
719.2	4853	
719.38	5627.1	
719.56	6972.7	
719.74	8077.2	
719.92	5403.2	
720.11	6161	
720.29	7092.8	
720.47	6502.3	
720.65	4996.4	
720.83	5567.1	
721.02	6657.9	
721.2	6470.2	
721.38	5488.6	
721.56	4987.5	
721.74	5993	
721.92	6090.7	
722.11	5878.4	
722.29	5629.9	
722.47	6985.6	
722.65	6397.2	
722.83	5011.4	
723.01	5563.6	
723.2	6470.2	
723.38	6680.5	
723.56	4592.9	
723.74	5418.2	
723.92	6117.3	
724.1	6972	
724.29	4939.7	
724.47	5685.8	
724.65	6290	
724.83	6090.7	
725.01	4842.8	
725.19	5386.2	
725.37	6150.1	
725.56	6168.5	
725.74	4728.1	
725.92	4969.1	
726.1	6132.3	
726.28	6341.9	
726.46	5190.9	
726.64	4977.2	
726.83	6347.3	
727.01	6479.8	
727.19	4680.3	
727.37	5306.3	
727.55	6557.6	
727.73	6900.3	
727.91	4702.8	
728.09	4649.6	
728.28	6782.9	
728.46	6937.2	
728.64	5425.1	
728.82	5352.7	
729	7619.1	
729.18	7125.6	
729.36	4875.5	
729.54	6416.3	
729.72	7840.3	
729.91	6581.5	
730.09	6329.6	
730.27	5459.9	
730.45	6563.7	
730.63	6982.9	
730.81	5837.4	
730.99	5221.6	
731.17	7561.1	
731.35	6423.1	
731.53	5489.2	
731.71	5280.3	
731.9	7176.8	
732.08	7253.2	
732.26	5418.9	
732.44	5238	
732.62	7312.6	
732.8	7035.5	
732.98	5765	
733.16	4977.2	
733.34	6991.8	
733.52	5934.3	
733.7	5340.4	
733.88	5597.1	
734.07	6763.1	
734.25	6664.1	
734.43	5014.1	
734.61	6044.9	
734.79	7738.6	
734.97	6531	
735.15	5045.5	
735.33	5307	
735.51	6808.8	
735.69	6541.2	
735.87	6015.6	
736.05	5386.2	
736.23	6711.2	
736.41	6406.7	
736.59	5251	
736.77	5367	
736.95	7022.5	
737.13	6468.2	
737.32	4989.5	
737.5	5177.3	
737.68	7334.5	
737.86	6346.7	
738.04	4872.1	
738.22	6158.9	
738.4	6242.9	
738.58	6551.5	
738.76	5214.1	
738.94	4555.4	
739.12	6368.5	
739.3	6259.3	
739.48	5646.9	
739.66	5511.8	
739.84	6518.7	
740.02	6475	
740.2	4642.7	
740.38	4801.8	
740.56	6820.4	
740.74	5926.8	
740.92	5337	
741.1	5169.8	
741.28	6383.5	
741.46	6201.2	
741.64	4905.6	
741.82	5244.2	
742	6421.7	
742.18	6288.6	
742.36	5185.5	
742.54	4771.8	
742.72	6788.3	
742.9	5755.5	
743.08	5318.6	
743.26	4371	
743.44	6848.4	
743.62	6664.1	
743.8	5378	
743.98	4762.2	
744.16	6480.5	
744.34	6262	
744.52	5230.5	
744.7	5234.6	
744.88	6528.9	
745.06	6269.5	
745.24	5198.4	
745.42	5312.4	
745.6	6630.6	
745.78	6503.7	
745.96	4425.7	
746.14	4605.2	
746.32	7162.4	
746.5	6479.8	
746.68	4941.7	
746.86	4610	
747.03	6817	
747.21	5625.1	
747.39	4979.3	
747.57	4599.7	
747.75	6195.8	
747.93	6438.8	
748.11	4534.2	
748.29	4472.1	
748.47	7336.5	
748.65	6022.4	
748.83	5069.4	
749.01	4915.8	
749.19	6337.1	
749.37	5685.2	
749.55	4844.1	
749.73	4812	
749.91	6151.4	
750.09	5868.1	
750.26	4838	
750.44	4431.1	
750.62	6109.1	
750.8	5986.2	
750.98	4317.1	
751.16	4537.6	
751.34	6124.1	
751.52	5617.6	
751.7	5046.9	
751.88	4260.5	
752.06	6499.6	
752.24	6260.6	
752.42	4232.5	
752.59	4503.5	
752.77	5982.1	
752.95	6883.2	
753.13	5025.7	
753.31	4566.3	
753.49	5715.9	
753.67	6051.1	
753.85	4731.5	
754.03	4437.3	
754.21	6255.2	
754.38	6431.3	
754.56	4485.7	
754.74	3770.3	
754.92	5621.7	
755.1	6023.8	
755.28	3714.3	
755.46	3687.7	
755.64	6585.6	
755.82	6599.2	
755.99	3794.2	
756.17	3792.8	
756.35	4587.4	
756.53	5685.8	
756.71	2902.7	
756.89	3576.4	
757.07	5388.2	
757.25	4776.5	
757.42	3961.5	
757.6	4643.4	
757.78	5543.2	
757.96	4766.3	
758.14	3822.2	
758.32	3536.2	
758.5	4492.6	
758.67	5098.8	
758.85	3732.1	
759.03	3757.3	
759.21	5243.5	
759.39	4722.6	
759.57	3411.9	
759.75	4194.9	
759.92	5722.7	
760.1	5285.1	
760.28	4522.6	
760.46	4675.5	
760.64	5093.3	
760.82	4904.9	
760.99	4352.6	
761.17	3825.6	
761.35	5670.8	
761.53	4884.4	
761.71	3967.6	
761.89	4475.5	
762.06	5644.9	
762.24	5240.8	
762.42	4041.3	
762.6	3801.7	
762.78	5174.5	
762.96	5735.7	
763.13	4340.3	
763.31	4101.4	
763.49	5801.2	
763.67	5255.8	
763.85	4687.1	
764.02	5070.1	
764.2	6098.9	
764.38	5407.3	
764.56	3988.8	
764.74	4603.2	
764.91	6129.6	
765.09	5314.5	
765.27	3862.5	
765.45	3533.4	
765.63	6167.8	
765.8	5980.1	
765.98	3463.1	
766.16	3618.8	
766.34	4974.5	
766.52	4755.4	
766.69	4279.6	
766.87	3539.6	
767.05	5291.3	
767.23	5847	
767.41	3801	
767.58	3936.9	
767.76	5631.2	
767.94	5672.9	
768.12	3768.9	
768.29	4273.4	
768.47	5261.2	
768.65	5810.8	
768.83	3487.7	
769	4255	
769.18	4956.8	
769.36	5429.8	
769.54	4302.8	
769.72	3549.8	
769.89	5692.7	
770.07	5647.6	
770.25	3768.3	
770.43	4729.4	
770.6	6233.3	
770.78	6430.6	
770.96	3902.1	
771.14	4348.5	
771.31	5606	
771.49	5149.3	
771.67	3255.6	
771.85	3436.5	
772.02	4565.6	
772.2	4987.5	
772.38	3931.4	
772.55	3567.6	
772.73	5274.9	
772.91	5110.4	
773.09	3840.6	
773.26	3936.9	
773.44	5219.6	
773.62	5027.1	
773.8	3555.3	
773.97	3292.5	
774.15	5318.6	
774.33	4978.6	
774.5	3400.3	
774.68	3646.1	
774.86	5406	
775.04	5029.1	
775.21	3438.5	
775.39	3424.9	
775.57	5162.2	
775.74	5390.9	
775.92	3267.2	
776.1	3204.4	
776.27	5111.7	
776.45	6040.1	
776.63	3478.1	
776.81	3118.4	
776.98	4926.7	
777.16	5545.9	
777.34	3478.8	
777.51	3747.8	
777.69	4866	
777.87	4633.9	
778.04	3637.9	
778.22	3956	
778.4	4736.3	
778.57	5219.6	
778.75	3008.5	
778.93	3184.6	
779.1	4606.6	
779.28	4403.1	
779.46	3065.1	
779.64	3351.2	
779.81	5288.5	
779.99	5887.2	
780.17	3952.6	
780.34	4021.5	
780.52	4884.4	
780.69	5018.9	
780.87	3610.6	
781.05	3224.9	
781.22	4971.8	
781.4	5016.8	
781.58	3407.8	
781.75	2769.5	
781.93	4986.8	
782.11	4410	
782.28	4024.9	
782.46	3381.2	
782.64	4429.1	
782.81	5107	
782.99	3413.3	
783.17	3347.7	
783.34	4984.8	
783.52	4519.2	
783.69	3511.6	
783.87	4109.6	
784.05	4575.8	
784.22	4511	
784.4	4033.8	
784.58	3581.9	
784.75	5244.8	
784.93	4640	
785.1	3336.8	
785.28	3761.4	
785.46	4999.1	
785.63	4462.5	
785.81	3299.3	
785.99	3187.3	
786.16	4691.9	
786.34	4863.2	
786.51	3250.8	
786.69	3599.6	
786.87	4238.6	
787.04	4601.1	
787.22	3153.2	
787.39	3772.4	
787.57	4493.9	
787.75	5167.7	
787.92	4026.3	
788.1	3893.9	
788.27	4440.7	
788.45	4296	
788.63	3691.8	
788.8	2797.5	
788.98	4830.5	
789.15	4169.7	
789.33	2899.2	
789.5	3306.1	
789.68	5100.8	
789.86	5236.7	
790.03	3646.1	
790.21	3170.3	
790.38	5195.7	
790.56	4605.9	
790.73	3166.2	
790.91	3112.9	
791.09	4481	
791.26	5012.1	
791.44	3328.6	
791.61	2882.9	
791.79	4493.9	
791.96	4470	
792.14	3003	
792.32	2650.1	
792.49	4517.8	
792.67	4582	
792.84	3073.3	
793.02	2859	
793.19	5112.4	
793.37	5335.6	
793.54	2682.8	
793.72	2956.6	
793.89	5313.8	
794.07	4397.7	
794.25	3300	
794.42	2764.1	
794.6	5210.7	
794.77	4937.7	
794.95	3576.4	
795.12	3146.4	
795.3	4479.6	
795.47	4884.4	
795.65	3449.5	
795.82	3334.8	
796	4315.8	
796.17	5661.3	
796.35	3214.6	
796.52	3713	
796.7	4824.3	
796.87	4928.1	
797.05	3197.6	
797.22	3781.2	
797.4	4896.7	
797.57	5559.6	
797.75	3328.6	
797.92	3126.6	
798.1	5126.7	
798.27	4359.4	
798.45	2764.1	
798.62	2912.9	
798.8	4672.1	
798.97	4981.3	
799.15	3515	
799.32	3305.4	
799.5	4156.7	
799.67	4655	
799.85	3540.3	
800.02	2725.8	
800.2	4422.9	
800.37	4582.7	
800.55	3574.4	
800.72	3128.6	
800.9	4949.9	
801.07	5290.6	
801.25	4115.1	
801.42	3418.7	
801.6	5035.3	
801.77	4650.9	
801.95	3223.5	
802.12	3030.3	
802.29	4817.5	
802.47	4696.7	
802.64	3439.2	
802.82	2674	
802.99	4379.2	
803.17	5081.7	
803.34	3293.1	
803.52	3019.4	
803.69	5539.1	
803.87	4292.5	
804.04	3318.4	
804.21	3362.8	
804.39	5209.3	
804.56	4539.7	
804.74	2835.1	
804.91	3407.1	
805.09	4360.8	
805.26	4416.8	
805.44	2968.2	
805.61	3168.9	
805.78	4894.6	
805.96	4887.1	
806.13	3381.9	
806.31	3641.3	
806.48	4062.5	
806.66	4478.9	
806.83	3435.1	
807	3357.3	
807.18	4425.7	
807.35	4672.8	
807.53	3297.9	
807.7	2715.6	
807.87	5210.7	
808.05	4430.4	
808.22	3576.4	
808.4	2777.7	
808.57	4333.5	
808.74	4209.9	
808.92	3093.1	
809.09	3828.3	
809.27	4414.7	
809.44	4747.9	
809.61	2697.9	
809.79	2987.3	
809.96	5325.4	
810.14	4868.7	
810.31	2700.6	
810.48	3225.6	
810.66	4436.6	
810.83	4969.1	
811.01	3063.1	
811.18	3289	
811.35	4913.1	
811.53	3962.1	
811.7	3637.2	
811.87	3358	
812.05	4444.8	
812.22	4344.4	
812.39	2995.5	
812.57	2916.3	
812.74	4530.1	
812.92	5586.2	
813.09	3239.9	
813.26	3438.5	
813.44	5463.3	
813.61	4338.3	
813.78	2744.3	
813.96	3476.1	
814.13	4448.2	
814.3	4221.5	
814.48	3784	
814.65	3150.5	
814.82	5200.5	
815	4191.5	
815.17	3246	
815.34	3876.8	
815.52	4375.1	
815.69	4352.6	
815.87	3186	
816.04	3211.9	
816.21	4390.2	
816.38	4054.3	
816.56	3133.4	
816.73	2976.4	
816.9	5416.2	
817.08	4945.8	
817.25	2994.8	
817.42	3615.3	
817.6	4125.3	
817.77	4382	
817.94	3326.6	
818.12	2929.3	
818.29	4201.1	
818.46	6062.7	
818.64	3089.7	
818.81	2853.5	
818.98	4192.9	
819.16	5668.1	
819.33	3487	
819.5	3276.8	
819.67	4657.1	
819.85	5089.9	
820.02	3198.9	
820.19	3407.1	
820.37	4538.3	
820.54	4339.6	
820.71	3324.5	
820.88	4032.5	
821.06	4547.2	
821.23	4256.4	
821.4	3337.5	
821.58	3287	
821.75	4887.8	
821.92	4562.2	
822.09	2721.8	
822.27	2792.7	
822.44	4429.1	
822.61	4377.2	
822.79	2755.9	
822.96	4947.9	
823.13	4732.9	
823.3	4149.2	
823.48	3144.3	
823.65	2829.6	
823.82	4922.6	
823.99	4100	
824.17	3895.2	
824.34	2851.5	
824.51	5565	
824.68	4419.5	
824.86	3005.7	
825.03	3293.1	
825.2	4440	
825.37	5182.7	
825.55	3015.3	
825.72	3290.4	
825.89	5558.2	
826.06	5212.8	
826.24	3203.7	
826.41	3209.2	
826.58	5272.2	
826.75	4648.2	
826.92	2618.7	
827.1	2832.3	
827.27	6807.4	
827.44	5517.9	
827.61	3094.5	
827.79	3580.5	
827.96	4284.4	
828.13	4436.6	
828.3	3218	
828.47	2756.6	
828.65	4719.9	
828.82	4627	
828.99	3928.7	
829.16	3444	
829.34	4968.4	
829.51	4766.3	
829.68	3228.3	
829.85	3347.1	
830.02	5152.7	
830.2	4923.3	
830.37	2581.8	
830.54	3763.5	
830.71	5491.3	
830.88	4462.5	
831.05	2618	
831.23	2975	
831.4	5308.3	
831.57	5759.6	
831.74	3071.3	
831.91	2725.8	
832.09	4764.9	
832.26	4950.6	
832.43	3054.9	
832.6	3457	
832.77	4673.5	
832.94	5314.5	
833.12	2599.6	
833.29	3082.9	
833.46	4696	
833.63	5904.3	
833.8	3355.3	
833.97	3095.2	
834.15	4964.3	
834.32	4753.3	
834.49	3190.1	
834.66	3349.8	
834.83	5057.1	
835	4296.6	
835.17	3006.4	
835.35	3008.5	
835.52	4851.6	
835.69	4743.8	
835.86	3194.8	
836.03	2678.1	
836.2	4943.8	
836.37	4649.6	
836.55	3072	
836.72	2934.1	
836.89	4631.8	
837.06	4962.2	
837.23	3193.5	
837.4	3403	
837.57	5459.2	
837.75	5902.9	
837.92	2895.1	
838.09	3053.5	
838.26	4644.8	
838.43	5073.5	
838.6	3161.4	
838.77	2919	
838.94	5634.6	
839.11	5532.2	
839.29	3154.6	
839.46	2510.8	
839.63	4940.4	
839.8	4649.6	
839.97	2974.3	
840.14	2988.7	
840.31	4810	
840.48	4916.5	
840.65	2567.5	
840.82	2983.2	
841	4910.3	
841.17	4793.6	
841.34	2786.6	
841.51	2887.6	
841.68	4864.6	
841.85	4728.1	
842.02	2945.7	
842.19	2467.1	
842.36	4752.7	
842.53	4754	
842.7	2811.9	
842.87	3330.7	
843.05	5956.9	
843.22	4702.1	
843.39	2697.9	
843.56	2885.6	
843.73	4607.2	
843.9	4969.1	
844.07	4319.8	
844.24	3644	
844.41	6673.6	
844.58	4280.9	
844.75	2741.5	
844.92	2888.3	
845.09	4850.3	
845.26	4853	
845.43	2805	
845.6	2934.7	
845.77	4895.3	
845.94	4713.1	
846.12	3070.6	
846.29	3229.6	
846.46	5053.7	
846.63	4887.8	
846.8	2798.2	
846.97	3194.1	
847.14	5203.9	
847.31	4845.5	
847.48	3137.5	
847.65	3387.3	
847.82	5102.9	
847.99	5055.1	
848.16	3646.1	
848.33	3345	
848.5	4519.9	
848.67	5239.4	
848.84	2712.2	
849.01	2922.5	
849.18	4488.5	
849.35	4236.6	
849.52	3330	
849.69	2719.7	
849.86	5020.9	
850.03	5111.7	
850.2	2742.9	
850.37	3345	
850.54	5072.1	
850.71	4624.3	
850.88	3323.9	
851.05	2755.2	
851.22	4759.5	
851.39	5198.4	
851.56	2637.1	
851.73	3136.1	
851.9	4377.9	
852.07	5062.6	
852.24	3055.6	
852.41	2795.5	
852.58	4803.2	
852.75	4430.4	
852.92	3094.5	
853.09	2686.3	
853.26	4506.2	
853.43	5159.5	
853.6	2738.8	
853.77	2467.8	
853.94	5257.8	
854.11	4323.9	
854.28	3964.2	
854.44	3018	
854.61	5589.6	
854.78	5120.6	
854.95	2733.4	
855.12	3439.9	
855.29	4061.1	
855.46	5396.4	
855.63	2792.1	
855.8	3718.4	
855.97	4539	
856.14	5170.4	
856.31	3803.1	
856.48	3005.7	
856.65	4581.3	
856.82	4377.2	
856.99	2641.9	
857.16	3025.5	
857.33	5729.5	
857.49	4665.3	
857.66	2944.3	
857.83	3179.8	
858	4625	
858.17	4741.7	
858.34	2624.1	
858.51	2813.9	
858.68	5339.1	
858.85	5289.9	
859.02	3177.1	
859.19	3342.3	
859.36	4388.8	
859.52	4341.7	
859.69	2766.8	
859.86	3181.9	
860.03	4419.5	
860.2	5261.2	
860.37	2577	
860.54	2822.1	
860.71	5016.2	
860.88	5294	
861.05	3026.9	
861.21	3437.2	
861.38	5300.1	
861.55	4206.5	
861.72	2583.2	
861.89	3099.9	
862.06	5064.6	
862.23	5341.1	
862.4	2693.8	
862.56	2888.3	
862.73	4980	
862.9	4634.6	
863.07	3192.1	
863.24	2587.9	
863.41	4362.9	
863.58	4426.3	
863.75	2799.6	
863.91	3153.9	
864.08	5166.3	
864.25	4945.2	
864.42	3394.8	
864.59	3765.5	
864.76	5514.5	
864.93	4374.5	
865.09	2648	
865.26	2947.7	
865.43	5187.5	
865.6	5495.4	
865.77	2449.4	
865.94	2735.4	
866.1	5163.6	
866.27	4947.9	
866.44	4018.1	
866.61	2679.4	
866.78	4630.5	
866.95	4923.3	
867.11	2742.2	
867.28	2542.9	
867.45	5163.6	
867.62	4396.3	
867.79	3226.2	
867.96	2785.2	
868.12	4318.5	
868.29	5022.3	
868.46	2800.9	
868.63	3568.9	
868.8	5107.6	
868.97	4984.1	
869.13	2899.2	
869.3	2902	
869.47	4900.8	
869.64	5074.9	
869.81	2785.9	
869.97	2725.8	
870.14	4808.6	
870.31	5299.5	
870.48	2732	
870.65	3416	
870.81	4648.2	
870.98	4591.5	
871.15	3123.8	
871.32	2835.8	
871.48	4912.4	
871.65	5314.5	
871.82	2719.7	
871.99	3022.1	
872.16	5679	
872.32	5229.8	
872.49	2893.1	
872.66	2836.4	
872.83	5040.7	
872.99	4464.6	
873.16	3185.3	
873.33	2747.7	
873.5	4739	
873.67	4824.3	
873.83	2882.9	
874	3633.1	
874.17	4883	
874.34	5557.5	
874.5	3522.5	
874.67	3366.9	
874.84	5264.6	
875.01	4297.3	
875.17	3779.2	
875.34	2798.9	
875.51	4734.2	
875.68	5651	
875.84	3278.1	
876.01	3927.3	
876.18	4996.4	
876.34	4952	
876.51	2790.7	
876.68	2734	
876.85	4578.6	
877.01	5246.9	
877.18	3835.2	
877.35	2779.8	
877.52	4784.1	
877.68	4371.7	
877.85	2692.4	
878.02	2710.1	
878.18	4582.7	
878.35	4528.1	
878.52	2265.7	
878.69	3046	
878.85	5094.7	
879.02	4981.3	
879.19	3832.4	
879.35	2970.9	
879.52	4975.9	
879.69	5092.6	
879.86	2473.3	
880.02	3088.3	
880.19	4728.1	
880.36	5591	
880.52	3086.3	
880.69	3226.9	
880.86	5081.7	
881.02	5027.1	
881.19	3017.3	
881.36	2968.2	
881.52	4951.3	
881.69	4419.5	
881.86	2962	
882.02	2920.4	
882.19	5126.7	
882.36	5849	
882.52	2863.1	
882.69	3789.4	
882.86	4825.7	
883.02	4799.8	
883.19	3278.8	
883.36	3142.9	
883.52	5076.9	
883.69	5616.2	
883.86	2824.8	
884.02	2605.7	
884.19	4986.8	
884.36	4733.5	
884.52	3133.4	
884.69	2930	
884.86	4484.4	
885.02	5432.6	
885.19	3026.9	
885.36	3094.5	
885.52	4605.9	
885.69	4872.1	
885.86	3843.4	
886.02	3500	
886.19	5057.8	
886.35	4461.8	
886.52	3050.1	
886.69	3731.4	
886.85	4418.2	
887.02	5242.1	
887.19	5242.1	
887.35	5242.1	
887.52	5242.1	
887.68	5242.1	
887.85	5242.1	
888.02	5242.1	
888.18	5242.1	
888.35	5242.1	
888.51	5242.1	
888.68	5242.1	
888.85	5242.1	
889.01	5242.1	
889.18	5242.1	
889.35	5242.1	
889.51	5242.1	
889.68	5242.1	
889.84	5242.1	
890.01	5242.1	
890.17	5242.1	
890.34	5242.1	
890.51	5242.1	
890.67	5242.1	
890.84	5242.1	
891	5242.1	
891.17	5242.1	
891.34	5242.1	
891.5	5242.1	
891.67	5242.1	
891.83	5242.1	
892	5242.1	
892.16	5242.1	
892.33	5242.1	
892.5	5242.1	
892.66	5242.1	
892.83	5242.1	
892.99	5242.1	
893.16	5242.1	
893.32	5242.1	
893.49	5242.1	
893.65	5242.1	
893.82	5242.1	
893.99	5242.1	
894.15	5242.1	
894.32	5242.1	
894.48	5242.1	
894.65	5242.1	
894.81	5242.1	
894.98	5242.1	
895.14	5242.1	
895.31	5242.1	
895.47	5242.1	
895.64	5242.1	
895.81	5242.1	
895.97	5242.1	
896.14	5242.1	
896.3	5242.1	
896.47	5242.1	
896.63	5242.1	
896.8	5242.1	
896.96	5242.1	
897.13	5242.1	
897.29	5242.1	
897.46	5242.1	
897.62	5242.1	
897.79	5242.1	
897.95	5242.1	
898.12	5242.1	
898.28	5242.1	
898.45	5242.1	
898.61	5242.1	
898.78	5242.1	
898.94	5242.1	
899.11	5242.1	
899.27	5242.1	
899.44	5242.1	
899.6	5242.1	
899.77	5242.1	
899.93	5242.1	
900.1	5242.1	
900.26	5242.1	
900.43	5242.1	
900.59	5242.1	
900.76	5242.1	
900.92	5242.1	
901.09	5242.1	
901.25	5242.1	
901.42	5242.1	
901.58	5242.1	
901.75	5242.1	
901.91	5242.1	
902.07	5242.1	
902.24	5242.1	
902.4	5242.1	
902.57	5242.1	
902.73	5242.1	
902.9	5242.1	
903.06	5242.1	
903.23	5242.1	
903.39	5242.1	
903.56	5242.1	
903.72	5242.1	
903.88	5242.1	
904.05	5242.1	
904.21	5242.1	
904.38	5242.1	
904.54	5242.1	
904.71	5242.1	
904.87	5242.1	
905.03	5242.1	
905.2	5242.1	
905.36	5242.1	
905.53	5242.1	
905.69	5242.1	
905.86	5242.1	
906.02	5242.1	
906.18	5242.1	
906.35	5242.1	
906.51	5242.1	
906.68	5242.1	
906.84	5242.1	
907.01	5242.1	
907.17	5242.1	
907.33	5242.1	
907.5	5242.1	
907.66	5242.1	
907.83	5242.1	
907.99	5242.1	
908.15	5242.1	
908.32	5242.1	
908.48	5242.1	
908.65	5242.1	
908.81	5242.1	
908.97	5242.1	
909.14	5242.1	
909.3	5242.1	
909.47	5242.1	
909.63	5242.1	
909.79	5242.1	
909.96	5242.1	
910.12	5242.1	
910.28	5242.1	
910.45	5242.1	
910.61	5242.1	
910.78	5242.1	
910.94	5242.1	
911.1	5242.1	
911.27	5242.1	
911.43	5242.1	
911.59	5242.1	
911.76	5242.1	
911.92	5242.1	
912.08	5242.1	
912.25	5242.1	
912.41	5242.1	
912.57	5242.1	
912.74	5242.1	
912.9	5242.1	
913.07	5242.1	
913.23	5242.1	
913.39	5242.1	
913.56	5242.1	
913.72	5242.1	
913.88	5242.1	
914.05	5242.1	
914.21	5242.1	
914.37	5242.1	
914.54	5242.1	
914.7	5242.1	
914.86	5242.1	
915.03	5242.1	
915.19	5242.1	
