Wavelength	Intensities	
nm	a.u.	
179.22	1711.9	
179.44	1713.1	
179.65	1710.7	
179.86	1715.5	
180.08	1718.9	
180.29	4080.9	
180.51	3079.5	
180.72	5003.9	
180.94	5659.2	
181.15	2749.1	
181.37	2796.8	
181.58	4841.4	
181.79	5094	
182.01	2896.5	
182.22	3003	
182.44	5070.8	
182.65	4394.9	
182.87	3725.3	
183.08	3356.6	
183.29	5354.8	
183.51	4478.9	
183.72	3027.6	
183.94	4304.8	
184.15	4835.9	
184.37	4777.2	
184.58	2756.6	
184.79	3658.4	
185.01	4513.7	
185.22	5091.9	
185.44	3776.5	
185.65	3293.1	
185.86	4807.3	
186.08	4476.2	
186.29	2683.5	
186.51	2893.1	
186.72	4521.9	
186.94	5247.6	
187.15	3328.6	
187.36	3419.4	
187.58	6511.2	
187.79	4880.3	
188.01	3468.6	
188.22	5209.3	
188.43	5737.7	
188.65	5086.5	
188.86	2885.6	
189.08	3348.4	
189.29	4638.6	
189.5	4619.5	
189.72	3117	
189.93	3197.6	
190.15	5236.7	
190.36	6126.8	
190.57	3462.4	
190.79	3283.6	
191	5244.2	
191.22	5180.7	
191.43	3414.6	
191.64	2957.3	
191.86	5434.6	
192.07	5184.1	
192.29	2952.5	
192.5	3069.2	
192.71	5210.7	
192.93	4649.6	
193.14	3065.1	
193.35	3201.7	
193.57	4670.1	
193.78	5278.3	
194	2573.6	
194.21	2994.8	
194.42	4483.7	
194.64	4809.3	
194.85	3333.4	
195.07	3846.1	
195.28	4775.9	
195.49	4248.2	
195.71	3993.5	
195.92	2925.2	
196.13	4971.1	
196.35	4999.1	
196.56	4306.2	
196.78	3312.2	
196.99	5984.2	
197.2	5591.6	
197.42	3706.1	
197.63	3371.6	
197.84	4406.5	
198.06	4984.1	
198.27	3105.4	
198.48	3988.8	
198.7	4627	
198.91	4831.8	
199.13	3409.9	
199.34	3364.8	
199.55	5195.7	
199.77	4241.3	
199.98	3081.5	
200.19	3410.6	
200.41	4771.8	
200.62	4506.9	
200.83	3470.6	
201.05	3738.9	
201.26	4772.4	
201.47	4602.5	
201.69	3061.7	
201.9	2941.6	
202.11	4844.8	
202.33	5566.4	
202.54	3244	
202.76	3534.1	
202.97	4885.8	
203.18	4891.9	
203.4	3500.7	
203.61	3456.3	
203.82	4848.2	
204.04	4584.7	
204.25	3357.3	
204.46	3315.7	
204.68	4814.8	
204.89	4965.6	
205.1	3293.8	
205.32	2908.8	
205.53	5160.2	
205.74	5210	
205.96	2527.2	
206.17	3439.9	
206.38	5104.2	
206.6	5208	
206.81	3829.7	
207.02	3178.4	
207.24	5024.3	
207.45	5279.7	
207.66	3239.2	
207.88	2798.2	
208.09	4980.7	
208.3	4857.1	
208.52	2994.8	
208.73	3279.5	
208.94	4844.1	
209.15	5395.7	
209.37	3197.6	
209.58	3362.8	
209.79	5182	
210.01	4704.2	
210.22	2665.1	
210.43	2796.2	
210.65	4797.7	
210.86	5120.6	
211.07	3247.4	
211.29	2980.5	
211.5	5022.3	
211.71	4732.2	
211.93	3032.4	
212.14	2969.6	
212.35	4719.2	
212.56	4862.6	
212.78	3401.7	
212.99	2859	
213.2	5491.3	
213.42	4679.6	
213.63	3074	
213.84	3272.7	
214.06	4379.9	
214.27	4377.9	
214.48	3261	
214.69	3409.9	
214.91	5389.6	
215.12	5393.7	
215.33	3381.2	
215.55	3702.7	
215.76	5810.8	
215.97	5110.4	
216.18	3360	
216.4	3248.8	
216.61	4531.5	
216.82	5213.4	
217.04	3008.5	
217.25	3149.8	
217.46	5325.4	
217.67	5115.8	
217.89	2725.8	
218.1	2807.8	
218.31	4881	
218.53	4970.4	
218.74	3190.1	
218.95	3041.2	
219.16	4773.1	
219.38	5507.7	
219.59	3072.6	
219.8	3619.4	
220.01	5946.6	
220.23	4842.1	
220.44	3822.2	
220.65	2992.1	
220.87	4904.2	
221.08	5298.8	
221.29	2867.8	
221.5	3657	
221.72	6287.9	
221.93	4570.4	
222.14	3405.1	
222.35	3943	
222.57	4798.4	
222.78	5085.8	
222.99	3255.6	
223.2	3429.7	
223.42	5051.7	
223.63	5158.2	
223.84	2536.1	
224.05	2568.2	
224.27	5851.7	
224.48	5438	
224.69	3961.5	
224.9	3411.2	
225.12	4959.5	
225.33	4795	
225.54	2757.9	
225.75	3061.7	
225.97	4509.6	
226.18	4776.5	
226.39	3267.2	
226.6	3049.4	
226.82	4574.5	
227.03	4500.1	
227.24	3325.2	
227.45	2831	
227.67	5104.9	
227.88	5529.5	
228.09	3737.5	
228.3	3732.1	
228.52	5126.1	
228.73	4758.8	
228.94	3106.8	
229.15	2891	
229.36	4810.7	
229.58	4751.3	
229.79	3254.9	
230	3723.2	
230.21	5627.1	
230.43	4855.1	
230.64	3338.2	
230.85	3447.4	
231.06	5223	
231.28	5169.8	
231.49	2837.1	
231.7	3317.7	
231.91	5079	
232.12	4844.8	
232.34	2926.5	
232.55	3261	
232.76	5349.3	
232.97	4930.1	
233.18	3033	
233.4	3321.8	
233.61	4986.8	
233.82	4662.5	
234.03	3084.2	
234.25	3117	
234.46	6394.4	
234.67	4887.1	
234.88	3435.8	
235.09	3051.5	
235.31	4999.8	
235.52	4706.2	
235.73	3353.2	
235.94	2810.5	
236.15	4601.8	
236.37	5697.4	
236.58	3021.4	
236.79	3205.8	
237	5068	
237.21	4399.7	
237.43	3465.8	
237.64	2793.4	
237.85	8000.7	
238.06	4493.9	
238.27	3472	
238.48	2896.5	
238.7	5038	
238.91	4720.6	
239.12	3187.3	
239.33	3328.6	
239.54	4556.7	
239.76	4746.5	
239.97	3224.2	
240.18	3254.2	
240.39	5746.6	
240.6	4954.7	
240.82	3433.8	
241.03	2811.9	
241.24	4745.1	
241.45	5392.3	
241.66	3026.9	
241.87	3521.8	
242.09	5391.6	
242.3	5636.7	
242.51	3532.7	
242.72	3244.7	
242.93	5159.5	
243.14	4800.4	
243.36	3685.7	
243.57	3998.3	
243.78	5460.6	
243.99	5006.6	
244.2	3246.7	
244.41	2966.8	
244.63	4457.7	
244.84	5018.2	
245.05	3459	
245.26	3186	
245.47	5008.6	
245.68	5141.1	
245.9	4189.5	
246.11	3418.1	
246.32	4653.7	
246.53	4999.8	
246.74	5079.6	
246.95	2807.1	
247.16	4458.4	
247.38	4801.1	
247.59	2764.1	
247.8	3240.6	
248.01	4474.8	
248.22	4753.3	
248.43	2954.5	
248.64	3187.3	
248.86	4351.3	
249.07	4650.9	
249.28	2949.1	
249.49	3318.4	
249.7	5227.1	
249.91	5258.5	
250.12	2816	
250.34	2875.3	
250.55	4929.5	
250.76	4861.9	
250.97	3326.6	
251.18	3393.5	
251.39	5309	
251.6	4923.3	
251.81	3429	
252.03	3343.7	
252.24	4645.5	
252.45	5187.5	
252.66	2889	
252.87	3498.6	
253.08	4853.7	
253.29	5967.1	
253.5	2902	
253.72	3904.8	
253.93	4673.5	
254.14	5561.6	
254.35	3144.3	
254.56	3143.6	
254.77	4949.9	
254.98	4528.7	
255.19	3121.1	
255.41	3886.4	
255.62	4966.3	
255.83	5345.9	
256.04	3475.4	
256.25	3416	
256.46	5730.9	
256.67	4671.4	
256.88	3372.3	
257.09	3607.8	
257.31	4494.6	
257.52	4507.6	
257.73	4161.5	
257.94	3134.8	
258.15	4726.7	
258.36	4818.2	
258.57	3808.5	
258.78	2510.1	
258.99	5221.6	
259.2	4726	
259.41	3076	
259.63	3177.1	
259.84	5441.5	
260.05	5760.9	
260.26	3952.6	
260.47	3065.1	
260.68	5272.8	
260.89	4763.6	
261.1	3733.4	
261.31	2994.1	
261.52	5352	
261.73	5577.3	
261.95	3887	
262.16	3521.1	
262.37	5426.4	
262.58	5404.6	
262.79	3915	
263	3153.2	
263.21	4900.8	
263.42	4669.4	
263.63	3423.5	
263.84	3190.7	
264.05	5184.8	
264.26	5540.4	
264.47	3784	
264.69	3398.3	
264.9	5397.8	
265.11	4977.2	
265.32	3041.9	
265.53	3090.4	
265.74	4974.5	
265.95	4360.1	
266.16	3334.8	
266.37	3547.1	
266.58	4908.3	
266.79	4661.2	
267	3059	
267.21	2895.1	
267.42	4445.5	
267.63	4868	
267.84	3255.6	
268.06	2820.7	
268.27	5146.5	
268.48	5312.4	
268.69	3195.5	
268.9	3670.6	
269.11	5346.6	
269.32	4359.4	
269.53	3272.7	
269.74	3001.6	
269.95	5012.7	
270.16	4319.8	
270.37	3308.8	
270.58	3666.5	
270.79	4727.4	
271	5217.5	
271.21	3445.4	
271.42	3292.5	
271.63	4988.2	
271.84	4500.8	
272.05	2693.1	
272.26	2935.4	
272.47	4869.4	
272.68	4945.8	
272.89	3162.7	
273.11	3581.2	
273.32	4610	
273.53	5517.2	
273.74	3506.8	
273.95	3403.7	
274.16	5211.4	
274.37	4826.4	
274.58	3575.1	
274.79	2899.9	
275	4941.1	
275.21	5296	
275.42	4194.2	
275.63	3599.6	
275.84	5071.5	
276.05	6095.4	
276.26	3373	
276.47	3168.9	
276.68	4720.6	
276.89	5636	
277.1	3638.6	
277.31	2885.6	
277.52	4993.6	
277.73	5195	
277.94	2843.9	
278.15	3115.6	
278.36	4973.2	
278.57	4542.4	
278.78	3154.6	
278.99	3482.9	
279.2	4640.7	
279.41	4502.1	
279.62	4055.7	
279.83	2920.4	
280.04	5754.1	
280.25	4422.2	
280.46	4006.5	
280.67	3305.4	
280.88	4556	
281.09	5322.7	
281.3	3406.5	
281.51	4231.1	
281.72	4617.5	
281.93	5205.9	
282.14	3063.1	
282.35	3314.3	
282.56	5223.7	
282.77	5188.9	
282.98	3166.2	
283.19	3757.3	
283.4	6207.4	
283.61	4707.6	
283.82	2940.2	
284.03	3969	
284.24	4972.5	
284.45	5344.5	
284.66	4022.2	
284.87	3773.7	
285.08	5221	
285.29	5368.4	
285.5	2841.2	
285.71	3192.1	
285.92	5216.9	
286.12	5771.2	
286.33	3877.5	
286.54	3278.8	
286.75	5177.3	
286.96	4719.9	
287.17	2979.1	
287.38	3872	
287.59	4631.8	
287.8	4574.5	
288.01	3222.1	
288.22	3559.4	
288.43	5141.8	
288.64	4399.7	
288.85	3779.9	
289.06	3517	
289.27	5182	
289.48	5486.5	
289.69	3954.6	
289.9	3646.1	
290.11	5356.1	
290.32	4614.8	
290.53	3760.1	
290.74	3446.7	
290.94	5154.7	
291.15	5220.3	
291.36	3074	
291.57	3604.4	
291.78	4671.4	
291.99	4394.9	
292.2	3006.4	
292.41	3463.8	
292.62	5251	
292.83	5105.6	
293.04	4233.8	
293.25	3018.7	
293.46	4735.6	
293.67	5276.3	
293.88	3099.9	
294.09	3024.8	
294.29	4537.6	
294.5	4939	
294.71	3338.2	
294.92	3140.9	
295.13	4677.6	
295.34	5667.4	
295.55	2828.2	
295.76	2809.1	
295.97	5141.8	
296.18	5700.2	
296.39	2937.5	
296.6	3071.3	
296.81	4891.9	
297.01	5141.1	
297.22	3192.8	
297.43	3099.9	
297.64	4657.1	
297.85	4565.6	
298.06	2673.3	
298.27	2820.1	
298.48	4839.4	
298.69	4571.7	
298.9	3293.8	
299.11	3041.2	
299.31	4498	
299.52	4515.1	
299.73	3533.4	
299.94	3480.2	
300.15	4859.8	
300.36	4532.8	
300.57	3384.6	
300.78	3363.4	
300.99	4735.6	
301.2	4884.4	
301.4	3089.7	
301.61	3276.8	
301.82	5071.5	
302.03	5216.2	
302.24	3630.4	
302.45	2973.7	
302.66	5056.4	
302.87	5249.6	
303.08	3124.5	
303.29	4053.6	
303.49	4661.2	
303.7	4808.6	
303.91	2823.5	
304.12	3889.1	
304.33	4428.4	
304.54	5010.7	
304.75	3123.2	
304.96	2994.8	
305.16	5045.5	
305.37	5625.1	
305.58	2767.5	
305.79	2846	
306	5026.4	
306.21	4365.6	
306.42	3080.8	
306.63	4530.1	
306.83	4652.3	
307.04	5177.9	
307.25	3332	
307.46	3306.8	
307.67	4291.9	
307.88	5111	
308.09	3064.4	
308.29	3088.3	
308.5	4924.7	
308.71	5192.3	
308.92	3288.4	
309.13	2995.5	
309.34	4829.1	
309.55	4779.3	
309.75	3759.4	
309.96	3426.9	
310.17	5161.6	
310.38	4620.2	
310.59	3665.2	
310.8	2891.7	
311.01	4667.3	
311.21	4789.5	
311.42	2974.3	
311.63	3026.2	
311.84	4668	
312.05	4877.6	
312.26	3399.6	
312.46	3756.7	
312.67	4734.9	
312.88	4451.6	
313.09	2978.4	
313.3	2964.8	
313.51	5445.5	
313.71	5721.3	
313.92	2998.9	
314.13	3123.2	
314.34	4979.3	
314.55	4773.8	
314.76	3747.8	
314.96	3322.5	
315.17	4968.4	
315.38	5139.7	
315.59	3056.3	
315.8	2943.6	
316.01	5393.7	
316.21	5518.6	
316.42	2918.4	
316.63	3296.5	
316.84	4704.2	
317.05	5314.5	
317.26	3457.7	
317.46	3164.8	
317.67	4749.9	
317.88	5094	
318.09	3702	
318.3	2801.6	
318.5	4666	
318.71	5018.2	
318.92	4608.6	
319.13	3450.8	
319.34	5268.7	
319.54	5315.8	
319.75	2854.9	
319.96	2708.1	
320.17	5076.2	
320.38	5272.2	
320.58	2805.7	
320.79	3293.1	
321	5251	
321.21	5331.5	
321.42	3325.9	
321.62	2759.3	
321.83	4595.6	
322.04	4874.2	
322.25	3142.3	
322.46	3030.3	
322.66	4912.4	
322.87	5081	
323.08	3615.3	
323.29	2921.1	
323.5	5573.9	
323.7	4490.5	
323.91	3919.8	
324.12	3578.5	
324.33	4924	
324.53	5051.7	
324.74	3447.4	
324.95	3607.8	
325.16	4343.7	
325.37	4697.4	
325.57	3007.1	
325.78	3042.6	
325.99	4915.1	
326.2	4430.4	
326.4	4098	
326.61	2822.1	
326.82	4772.4	
327.03	4884.4	
327.24	4046.8	
327.44	3893.9	
327.65	5091.9	
327.86	4233.2	
328.07	3461.7	
328.27	2915.6	
328.48	5365	
328.69	4474.1	
328.9	4177.2	
329.1	3219.4	
329.31	4773.8	
329.52	5429.8	
329.73	3036.5	
329.93	3302	
330.14	4868	
330.35	4975.9	
330.56	4685.1	
330.76	3614	
330.97	4708.3	
331.18	4965.6	
331.39	3332.7	
331.59	2755.9	
331.8	5250.3	
332.01	5384.8	
332.22	3108.8	
332.42	3437.2	
332.63	4923.3	
332.84	4599.7	
333.05	3394.2	
333.25	3063.1	
333.46	4645.5	
333.67	4847.5	
333.88	3156.6	
334.08	3427.6	
334.29	6200.6	
334.5	5225.1	
334.7	2988	
334.91	4162.8	
335.12	4476.9	
335.33	5170.4	
335.53	3327.9	
335.74	4668	
335.95	4712.4	
336.16	4442.7	
336.36	3310.9	
336.57	3752.6	
336.78	4418.2	
336.98	5287.9	
337.19	4013.3	
337.4	3220.8	
337.61	5743.2	
337.81	4450.9	
338.02	3088.3	
338.23	3838.6	
338.43	5401.9	
338.64	4589.5	
338.85	3060.3	
339.05	3880.9	
339.26	5494	
339.47	4423.6	
339.68	3033	
339.88	4263.2	
340.09	5079	
340.3	5180	
340.5	3509.5	
340.71	2764.1	
340.92	4469.4	
341.13	5423	
341.33	2945	
341.54	3500.7	
341.75	5039.4	
341.95	4746.5	
342.16	3379.1	
342.37	3663.8	
342.57	4524	
342.78	4766.3	
342.99	3662.5	
343.19	2818	
343.4	5190.9	
343.61	5014.8	
343.81	3192.8	
344.02	2917.7	
344.23	5176.6	
344.43	5428.5	
344.64	3695.2	
344.85	3596.9	
345.06	5048.9	
345.26	5311.7	
345.47	3450.8	
345.68	3979.2	
345.88	4443.4	
346.09	5205.3	
346.3	3485	
346.5	2718.3	
346.71	4842.8	
346.92	4615.4	
347.12	2890.4	
347.33	3431	
347.54	5251	
347.74	5559.6	
347.95	3395.5	
348.16	2643.2	
348.36	4739.7	
348.57	4515.1	
348.78	3431	
348.98	3617.4	
349.19	4774.5	
349.39	4414.1	
349.6	2920.4	
349.81	3085.6	
350.01	5095.3	
350.22	4596.3	
350.43	3362.8	
350.63	3958	
350.84	4814.8	
351.05	4616.8	
351.25	3058.3	
351.46	2816	
351.67	5312.4	
351.87	4612.7	
352.08	3252.9	
352.29	3631	
352.49	5215.5	
352.7	5252.4	
352.9	2981.2	
353.11	3670.6	
353.32	5731.6	
353.52	4719.2	
353.73	3013.2	
353.94	3695.9	
354.14	5108.3	
354.35	4929.5	
354.55	3080.1	
354.76	3335.5	
354.97	5104.2	
355.17	4839.4	
355.38	2954.5	
355.59	3923.2	
355.79	4654.4	
356	4894	
356.2	3362.1	
356.41	2951.1	
356.62	4459.1	
356.82	4847.5	
357.03	3659	
357.24	3243.3	
357.44	4698	
357.65	4733.5	
357.85	4158.1	
358.06	3432.4	
358.27	4467.3	
358.47	4651.6	
358.68	2996.9	
358.88	3625.6	
359.09	5097.4	
359.3	5331.5	
359.5	4100.7	
359.71	3729.4	
359.91	5752.1	
360.12	5254.4	
360.33	3620.1	
360.53	3962.8	
360.74	4708.3	
360.94	4726.7	
361.15	3852.9	
361.36	3221.5	
361.56	5348.6	
361.77	4940.4	
361.97	4189.5	
362.18	3436.5	
362.38	5362.9	
362.59	4693.9	
362.8	3210.5	
363	3092.4	
363.21	4515.8	
363.41	5043.5	
363.62	3611.3	
363.83	4380.6	
364.03	5213.4	
364.24	5836.7	
364.44	4563.6	
364.65	4431.1	
364.85	5028.4	
365.06	4733.5	
365.27	3351.2	
365.47	3435.1	
365.68	5709.1	
365.88	4988.2	
366.09	3732.8	
366.29	3499.3	
366.5	5213.4	
366.71	5517.9	
366.91	4488.5	
367.12	3880.2	
367.32	6001.2	
367.53	5388.2	
367.73	3900	
367.94	4610	
368.14	5415.5	
368.35	6005.3	
368.56	3863.2	
368.76	3431	
368.97	5539.8	
369.17	6680.5	
369.38	3431	
369.58	3738.2	
369.79	4755.4	
369.99	5771.2	
370.2	4424.3	
370.4	3757.3	
370.61	5221.6	
370.82	6211.5	
371.02	3718.4	
371.23	3162.1	
371.43	4771.8	
371.64	5738.4	
371.84	3727.3	
372.05	4625	
372.25	6753.5	
372.46	5487.2	
372.66	3810.6	
372.87	3756.7	
373.07	5613.5	
373.28	6812.9	
373.48	4571.7	
373.69	4332.1	
373.9	5238.7	
374.1	5242.1	
374.31	4528.1	
374.51	4164.9	
374.72	5894.1	
374.92	5139	
375.13	4814.1	
375.33	4105.5	
375.54	5659.2	
375.74	5205.3	
375.95	4265.2	
376.15	5180.7	
376.36	5743.9	
376.56	5612.1	
376.77	4293.2	
376.97	4595	
377.18	6526.2	
377.38	5877	
377.59	4909	
377.79	4016.7	
378	5728.2	
378.2	6049	
378.41	4116.4	
378.61	4045.4	
378.82	6182.1	
379.02	5552	
379.23	4265.9	
379.43	5120.6	
379.64	6260.6	
379.84	5969.1	
380.05	4110.3	
380.25	4121.9	
380.46	6036.7	
380.66	5707.7	
380.87	5072.1	
381.07	5362.9	
381.28	6474.3	
381.48	6040.1	
381.69	4085.7	
381.89	4160.1	
382.1	5237.3	
382.3	6054.5	
382.51	4977.2	
382.71	5670.8	
382.91	5914.5	
383.12	6360.3	
383.32	4362.9	
383.53	4539.7	
383.73	5933.6	
383.94	5767.1	
384.14	4536.9	
384.35	3875.4	
384.55	5631.9	
384.76	5902.9	
384.96	4418.8	
385.17	4700.1	
385.37	6071.5	
385.58	5384.1	
385.78	4627	
385.98	3771.7	
386.19	5553.4	
386.39	5853.8	
386.6	4214	
386.8	4380.6	
387.01	5976	
387.21	6031.3	
387.42	4676.2	
387.62	5162.2	
387.83	5592.3	
388.03	5909.8	
388.23	4468	
388.44	5093.3	
388.64	5325.4	
388.85	5512.4	
389.05	4788.2	
389.26	5226.4	
389.46	7053.2	
389.67	6509.1	
389.87	4916.5	
390.07	4906.3	
390.28	5993.7	
390.48	5559.6	
390.69	4364.9	
390.89	4679.6	
391.1	5796.4	
391.3	6434.7	
391.5	5439.4	
391.71	5924.1	
391.91	6345.3	
392.12	7011.6	
392.32	5573.2	
392.53	4933.6	
392.73	5945.3	
392.93	5986.2	
393.14	4687.1	
393.34	5285.8	
393.55	6226.5	
393.75	5922.7	
393.95	4737	
394.16	4574.5	
394.36	5812.8	
394.57	6225.8	
394.77	4306.2	
394.98	4519.2	
395.18	5782.8	
395.38	5831.2	
395.59	5298.1	
395.79	4542.4	
396	6004.6	
396.2	6396.5	
396.4	5313.1	
396.61	5219.6	
396.81	6460.7	
397.02	6049	
397.22	5649.7	
397.42	5709.1	
397.63	6746.7	
397.83	6207.4	
398.04	4724.7	
398.24	5212.1	
398.44	6470.2	
398.65	5838.8	
398.85	4756.1	
399.05	4830.5	
399.26	6242.2	
399.46	7451.2	
399.67	5165	
399.87	4945.8	
400.07	6542.6	
400.28	6817.7	
400.48	5112.4	
400.69	5926.1	
400.89	7380.9	
401.09	7339.9	
401.3	5124	
401.5	5920	
401.7	7610.9	
401.91	7802.1	
402.11	5574.6	
402.32	5599.8	
402.52	7214.3	
402.72	7026.6	
402.93	5757.5	
403.13	4815.5	
403.33	7646.4	
403.54	6434	
403.74	5382.7	
403.94	6008.7	
404.15	6550.8	
404.35	7449.1	
404.56	5110.4	
404.76	6468.9	
404.96	6863.4	
405.17	6726.2	
405.37	6091.3	
405.57	5714.5	
405.78	7104.4	
405.98	6676.4	
406.18	5410.7	
406.39	6028.5	
406.59	7174.7	
406.79	6801.3	
407	5146.5	
407.2	5180	
407.4	7180.2	
407.61	7258.7	
407.81	5353.4	
408.01	6939.2	
408.22	6406	
408.42	8012.3	
408.62	6397.9	
408.83	6085.2	
409.03	7197.2	
409.23	7254.6	
409.44	6320	
409.64	6518	
409.84	8268.3	
410.05	8254	
410.25	6729.6	
410.45	6565.1	
410.66	8127.7	
410.86	9889.6	
411.06	7148.8	
411.27	6935.1	
411.47	9939.5	
411.67	8378.9	
411.88	7210.9	
412.08	7636.2	
412.28	9011.7	
412.49	9399.5	
412.69	7324.9	
412.89	7425.3	
413.09	9398.8	
413.3	9316.2	
413.5	7572	
413.7	7346.1	
413.91	8721.6	
414.11	9544.9	
414.31	7575.4	
414.52	7971.4	
414.72	9278	
414.92	9347.6	
415.12	7587	
415.33	8018.5	
415.53	9702.6	
415.73	9826.2	
415.94	8311.3	
416.14	7894.2	
416.34	9069.1	
416.55	8856.1	
416.75	8838.4	
416.95	8470.4	
417.15	9878.7	
417.36	10311	
417.56	9318.3	
417.76	8509.3	
417.97	10245	
418.17	10048	
418.37	8260.8	
418.57	8364.6	
418.78	9976.3	
418.98	9697.1	
419.18	9103.9	
419.38	8848.6	
419.59	9648	
419.79	9126.4	
419.99	8129.1	
420.2	8454	
420.4	10063	
420.6	10139	
420.8	8135.2	
421.01	7886.7	
421.21	10052	
421.41	10071	
421.61	8462.9	
421.82	8291.5	
422.02	9762	
422.22	10330	
422.42	9001.5	
422.63	8368.7	
422.83	9732.6	
423.03	10719	
423.23	8534.6	
423.44	7746.8	
423.64	9680.7	
423.84	9445.2	
424.04	8168.7	
424.25	7794.6	
424.45	10224	
424.65	10250	
424.85	7677.2	
425.06	8118.1	
425.26	10335	
425.46	9559.9	
425.66	8471.1	
425.87	8249.9	
426.07	10004	
426.27	9947	
426.47	8355	
426.67	7729	
426.88	10327	
427.08	9902.6	
427.28	8630.8	
427.48	7723.6	
427.69	9059.5	
427.89	9501.9	
428.09	8474.5	
428.29	7797.3	
428.5	10105	
428.7	9760.6	
428.9	7785.7	
429.1	8157.7	
429.3	9736	
429.51	10070	
429.71	7957	
429.91	8709.3	
430.11	10157	
430.31	10423	
430.52	8346.8	
430.72	8783.1	
430.92	10608	
431.12	10193	
431.32	8312.7	
431.53	8532.5	
431.73	9531.2	
431.93	10751	
432.13	8125	
432.33	8161.2	
432.54	9781.8	
432.74	10163	
432.94	8272.4	
433.14	8933.9	
433.34	10444	
433.55	10235	
433.75	9016.5	
433.95	10506	
434.15	10432	
434.35	10132	
434.56	8428.1	
434.76	8376.2	
434.96	10391	
435.16	10762	
435.36	8530.5	
435.56	9564	
435.77	10335	
435.97	10410	
436.17	10079	
436.37	9503.3	
436.57	10363	
436.78	10473	
436.98	9563.3	
437.18	10044	
437.38	11120	
437.58	10623	
437.78	10142	
437.99	9058.8	
438.19	10925	
438.39	11533	
438.59	9107.3	
438.79	8507.9	
438.99	11335	
439.2	10370	
439.4	8439.7	
439.6	8516.8	
439.8	10649	
440	11510	
440.2	9536.7	
440.4	9670.5	
440.61	11370	
440.81	11755	
441.01	9293.7	
441.21	10165	
441.41	12130	
441.61	11543	
441.81	10423	
442.02	11114	
442.22	12288	
442.42	11721	
442.62	9641.2	
442.82	9495.1	
443.02	12142	
443.22	11530	
443.43	10139	
443.63	9553.1	
443.83	11245	
444.03	11303	
444.23	10918	
444.43	10440	
444.63	11998	
444.83	12635	
445.04	10206	
445.24	11037	
445.44	12038	
445.64	12158	
445.84	10400	
446.04	10535	
446.24	11268	
446.44	12258	
446.65	9672.6	
446.85	10116	
447.05	11305	
447.25	12042	
447.45	10034	
447.65	9667.1	
447.85	11576	
448.05	11083	
448.25	10479	
448.46	10389	
448.66	11691	
448.86	11307	
449.06	9622	
449.26	10344	
449.46	12074	
449.66	11163	
449.86	10329	
450.06	10172	
450.26	11531	
450.47	12032	
450.67	10360	
450.87	10785	
451.07	12115	
451.27	12012	
451.47	10043	
451.67	10608	
451.87	11801	
452.07	12492	
452.27	10443	
452.47	10247	
452.67	12087	
452.88	12357	
453.08	9684.8	
453.28	11355	
453.48	13166	
453.68	11774	
453.88	10350	
454.08	10444	
454.28	12454	
454.48	12181	
454.68	10944	
454.88	11274	
455.08	12448	
455.28	12665	
455.48	10178	
455.68	11193	
455.89	13159	
456.09	13041	
456.29	10811	
456.49	11082	
456.69	13355	
456.89	12523	
457.09	11528	
457.29	11957	
457.49	13079	
457.69	13268	
457.89	11827	
458.09	11094	
458.29	13359	
458.49	13902	
458.69	12233	
458.89	11875	
459.09	14190	
459.29	14190	
459.49	11859	
459.69	12578	
459.9	13799	
460.1	13816	
460.3	11695	
460.5	11589	
460.7	13981	
460.9	13596	
461.1	11516	
461.3	12550	
461.5	14625	
461.7	14300	
461.9	12418	
462.1	12409	
462.3	14211	
462.5	14794	
462.7	12399	
462.9	12731	
463.1	15500	
463.3	15506	
463.5	12854	
463.7	14103	
463.9	14898	
464.1	15122	
464.3	13772	
464.5	13474	
464.7	15635	
464.9	15700	
465.1	14854	
465.3	14171	
465.5	15873	
465.7	16104	
465.9	14558	
466.1	13902	
466.3	16253	
466.5	15649	
466.7	15390	
466.9	14192	
467.1	16140	
467.3	16810	
467.5	15464	
467.7	14527	
467.9	16941	
468.1	17758	
468.3	15033	
468.5	15534	
468.7	16401	
468.9	16143	
469.1	15107	
469.3	15687	
469.5	18148	
469.7	16449	
469.9	15246	
470.1	15130	
470.3	16690	
470.5	16724	
470.7	15992	
470.9	14939	
471.1	16651	
471.3	16433	
471.5	15080	
471.69	16191	
471.89	16225	
472.09	15769	
472.29	15686	
472.49	15399	
472.69	16173	
472.89	16791	
473.09	14980	
473.29	14629	
473.49	16236	
473.69	15997	
473.89	15456	
474.09	14762	
474.29	17004	
474.49	16740	
474.69	15361	
474.89	14902	
475.09	16090	
475.29	16231	
475.49	14242	
475.69	14830	
475.88	17130	
476.08	16509	
476.28	14315	
476.48	14547	
476.68	16565	
476.88	16272	
477.08	14429	
477.28	14730	
477.48	15853	
477.68	16204	
477.88	14321	
478.08	14496	
478.28	16823	
478.48	16051	
478.67	14635	
478.87	13845	
479.07	16865	
479.27	16107	
479.47	14734	
479.67	15029	
479.87	16698	
480.07	16997	
480.27	14296	
480.47	15439	
480.67	16313	
480.87	16912	
481.06	14558	
481.26	15347	
481.46	16476	
481.66	16398	
481.86	15012	
482.06	15636	
482.26	16255	
482.46	16867	
482.66	14891	
482.86	14666	
483.05	16746	
483.25	16030	
483.45	16777	
483.65	15034	
483.85	16404	
484.05	16649	
484.25	15407	
484.45	16024	
484.65	17233	
484.84	17707	
485.04	15143	
485.24	15322	
485.44	17718	
485.64	16458	
485.84	15023	
486.04	16074	
486.24	16852	
486.44	17083	
486.63	15008	
486.83	15971	
487.03	17172	
487.23	17407	
487.43	15150	
487.63	17068	
487.83	17441	
488.02	18224	
488.22	16304	
488.42	16896	
488.62	18178	
488.82	17453	
489.02	15917	
489.22	16292	
489.41	18079	
489.61	18153	
489.81	15896	
490.01	16057	
490.21	18434	
490.41	18940	
490.61	16242	
490.8	16266	
491	18107	
491.2	17438	
491.4	16576	
491.6	15968	
491.8	17703	
491.99	17746	
492.19	15539	
492.39	15722	
492.59	18129	
492.79	18275	
492.99	16644	
493.18	16055	
493.38	18396	
493.58	19514	
493.78	17101	
493.98	16752	
494.18	18728	
494.37	18630	
494.57	17859	
494.77	17673	
494.97	19461	
495.17	19854	
495.37	17868	
495.56	18066	
495.76	20332	
495.96	20198	
496.16	19206	
496.36	18555	
496.55	20424	
496.75	20153	
496.95	18819	
497.15	18618	
497.35	20422	
497.54	20679	
497.74	18443	
497.94	20164	
498.14	21276	
498.34	21077	
498.53	18574	
498.73	19126	
498.93	20357	
499.13	20889	
499.33	19236	
499.52	19424	
499.72	21500	
499.92	21278	
500.12	19193	
500.32	19489	
500.51	21316	
500.71	21467	
500.91	20188	
501.11	19829	
501.31	21553	
501.5	21643	
501.7	20489	
501.9	19549	
502.1	21238	
502.29	21609	
502.49	20114	
502.69	20070	
502.89	21443	
503.09	21255	
503.28	18918	
503.48	19061	
503.68	20566	
503.88	20753	
504.07	19667	
504.27	19241	
504.47	20946	
504.67	20745	
504.86	19626	
505.06	19250	
505.26	20411	
505.46	21666	
505.65	19054	
505.85	19105	
506.05	20270	
506.25	20456	
506.44	18226	
506.64	18688	
506.84	19852	
507.04	20434	
507.23	18237	
507.43	18590	
507.63	21163	
507.83	19897	
508.02	18688	
508.22	18391	
508.42	21509	
508.62	19882	
508.81	18260	
509.01	19067	
509.21	19540	
509.4	19899	
509.6	18493	
509.8	18156	
510	19785	
510.19	20932	
510.39	18040	
510.59	18234	
510.79	19867	
510.98	21076	
511.18	18505	
511.38	18690	
511.57	20709	
511.77	20419	
511.97	18939	
512.17	18315	
512.36	20469	
512.56	20260	
512.76	18263	
512.95	17882	
513.15	20494	
513.35	19471	
513.55	18826	
513.74	18212	
513.94	20421	
514.14	20020	
514.33	19031	
514.53	18892	
514.73	19912	
514.92	20284	
515.12	18549	
515.32	18348	
515.51	20286	
515.71	20709	
515.91	19743	
516.11	18509	
516.3	21773	
516.5	20233	
516.7	19038	
516.89	19662	
517.09	20228	
517.29	20398	
517.48	19303	
517.68	18798	
517.88	20054	
518.07	20729	
518.27	19245	
518.47	18500	
518.66	20928	
518.86	20026	
519.06	18353	
519.25	18614	
519.45	20112	
519.65	21485	
519.84	19208	
520.04	20054	
520.24	21802	
520.43	20799	
520.63	19029	
520.83	18900	
521.02	20163	
521.22	20517	
521.42	18918	
521.61	19392	
521.81	19965	
522.01	20228	
522.2	18859	
522.4	18667	
522.6	20668	
522.79	19908	
522.99	18798	
523.18	18748	
523.38	20764	
523.58	20983	
523.77	20503	
523.97	19174	
524.17	22747	
524.36	22152	
524.56	20590	
524.76	20344	
524.95	21816	
525.15	21442	
525.34	20246	
525.54	20747	
525.74	22668	
525.93	21934	
526.13	21608	
526.33	21149	
526.52	23049	
526.72	22788	
526.91	22191	
527.11	21554	
527.31	23077	
527.5	23484	
527.7	21679	
527.89	20988	
528.09	22673	
528.29	23520	
528.48	21924	
528.68	21527	
528.87	23436	
529.07	23452	
529.27	21794	
529.46	21650	
529.66	23479	
529.85	23868	
530.05	21597	
530.25	22074	
530.44	24718	
530.64	23285	
530.83	21773	
531.03	22040	
531.23	23845	
531.42	23442	
531.62	22575	
531.81	21747	
532.01	24165	
532.21	24460	
532.4	22352	
532.6	22815	
532.79	25103	
532.99	24902	
533.18	23274	
533.38	24004	
533.58	24957	
533.77	25291	
533.97	23552	
534.16	24073	
534.36	25825	
534.55	25086	
534.75	24079	
534.95	23690	
535.14	25952	
535.34	25213	
535.53	23425	
535.73	24956	
535.92	26237	
536.12	25075	
536.31	23449	
536.51	24370	
536.71	25183	
536.9	24866	
537.1	23180	
537.29	23496	
537.49	25512	
537.68	24974	
537.88	23907	
538.07	23184	
538.27	25366	
538.46	25897	
538.66	23273	
538.86	23914	
539.05	25384	
539.25	25528	
539.44	24331	
539.64	23563	
539.83	25194	
540.03	26041	
540.22	23493	
540.42	23197	
540.61	25157	
540.81	25310	
541	23451	
541.2	24245	
541.39	24453	
541.59	24914	
541.78	24114	
541.98	23013	
542.18	24429	
542.37	24389	
542.57	23130	
542.76	24053	
542.96	24135	
543.15	24689	
543.35	22999	
543.54	22436	
543.74	24303	
543.93	24432	
544.13	22541	
544.32	23457	
544.52	24126	
544.71	23558	
544.91	21885	
545.1	22574	
545.3	23591	
545.49	24146	
545.69	21797	
545.88	22165	
546.08	25028	
546.27	24558	
546.47	22556	
546.66	21987	
546.86	24026	
547.05	24451	
547.24	22061	
547.44	22103	
547.63	23114	
547.83	24311	
548.02	22252	
548.22	22305	
548.41	22984	
548.61	23942	
548.8	21618	
549	21728	
549.19	23479	
549.39	23997	
549.58	21333	
549.78	21770	
549.97	23644	
550.17	23163	
550.36	22170	
550.55	23012	
550.75	23062	
550.94	23746	
551.14	21128	
551.33	21302	
551.53	22580	
551.72	23426	
551.92	21489	
552.11	21413	
552.31	23288	
552.5	23001	
552.69	22664	
552.89	20874	
553.08	23254	
553.28	22955	
553.47	21240	
553.67	22136	
553.86	23404	
554.06	22128	
554.25	20328	
554.44	21039	
554.64	23909	
554.83	23672	
555.03	21022	
555.22	21190	
555.42	23087	
555.61	22818	
555.8	20925	
556	21026	
556.19	22124	
556.39	22866	
556.58	20808	
556.78	20809	
556.97	22682	
557.16	22482	
557.36	21938	
557.55	20751	
557.75	21856	
557.94	23348	
558.13	20701	
558.33	20595	
558.52	23081	
558.72	22102	
558.91	20609	
559.1	20643	
559.3	21956	
559.49	21409	
559.69	20054	
559.88	20883	
560.07	22395	
560.27	22706	
560.46	20855	
560.66	21044	
560.85	22400	
561.04	21469	
561.24	20334	
561.43	20212	
561.63	21639	
561.82	21845	
562.01	21367	
562.21	20530	
562.4	22100	
562.59	23086	
562.79	20266	
562.98	20323	
563.18	22103	
563.37	23460	
563.56	21030	
563.76	20558	
563.95	22032	
564.14	22048	
564.34	21014	
564.53	20660	
564.73	22438	
564.92	22894	
565.11	21192	
565.31	20631	
565.5	23123	
565.69	22259	
565.89	20849	
566.08	21124	
566.27	23074	
566.47	23436	
566.66	21837	
566.85	20883	
567.05	22935	
567.24	22565	
567.44	21057	
567.63	21889	
567.82	23064	
568.02	22918	
568.21	21166	
568.4	21308	
568.6	22913	
568.79	22794	
568.98	21003	
569.18	21087	
569.37	23102	
569.56	24582	
569.76	21629	
569.95	22484	
570.14	23360	
570.34	23430	
570.53	21279	
570.72	21300	
570.91	23853	
571.11	23288	
571.3	21663	
571.49	22305	
571.69	23238	
571.88	22752	
572.07	22233	
572.27	22042	
572.46	23008	
572.65	23727	
572.85	21768	
573.04	21903	
573.23	23963	
573.43	23384	
573.62	21738	
573.81	22143	
574	23752	
574.2	23584	
574.39	22236	
574.58	22403	
574.78	24666	
574.97	24204	
575.16	22877	
575.36	23005	
575.55	24737	
575.74	24780	
575.93	22224	
576.13	23477	
576.32	24267	
576.51	24705	
576.71	22667	
576.9	24001	
577.09	25165	
577.28	24443	
577.48	23021	
577.67	22361	
577.86	24406	
578.05	24828	
578.25	23001	
578.44	23000	
578.63	24505	
578.83	25538	
579.02	22459	
579.21	23909	
579.4	24636	
579.6	24654	
579.79	23160	
579.98	24918	
580.17	24894	
580.37	25422	
580.56	22703	
580.75	23459	
580.94	25523	
581.14	25236	
581.33	23946	
581.52	22961	
581.71	25124	
581.91	25546	
582.1	22920	
582.29	23120	
582.48	24812	
582.68	24942	
582.87	23623	
583.06	23492	
583.25	25279	
583.45	24713	
583.64	24180	
583.83	24732	
584.02	24810	
584.21	25474	
584.41	23948	
584.6	23706	
584.79	25322	
584.98	25864	
585.18	23349	
585.37	23007	
585.56	24844	
585.75	25621	
585.94	23339	
586.14	23868	
586.33	25487	
586.52	24948	
586.71	23479	
586.91	23224	
587.1	24049	
587.29	24953	
587.48	22689	
587.67	22835	
587.87	24610	
588.06	24365	
588.25	23561	
588.44	22938	
588.63	23992	
588.83	24456	
589.02	22243	
589.21	22010	
589.4	23490	
589.59	23502	
589.78	20882	
589.98	21079	
590.17	22230	
590.36	22750	
590.55	19817	
590.74	19998	
590.94	22814	
591.13	21631	
591.32	19645	
591.51	19228	
591.7	21758	
591.89	21665	
592.09	19527	
592.28	20093	
592.47	21267	
592.66	22792	
592.85	19893	
593.05	20126	
593.24	21801	
593.43	22472	
593.62	20163	
593.81	20478	
594	21923	
594.19	22110	
594.39	20125	
594.58	19883	
594.77	22093	
594.96	22541	
595.15	19975	
595.34	20448	
595.54	21798	
595.73	21188	
595.92	19436	
596.11	20035	
596.3	22136	
596.49	21179	
596.68	19712	
596.88	20148	
597.07	21743	
597.26	21036	
597.45	19544	
597.64	20384	
597.83	21192	
598.02	21765	
598.22	19503	
598.41	19921	
598.6	21524	
598.79	21101	
598.98	19375	
599.17	20143	
599.36	21513	
599.55	22268	
599.74	20917	
599.94	20979	
600.13	21805	
600.32	20829	
600.51	19108	
600.7	19385	
600.89	22117	
601.08	22161	
601.27	19095	
601.47	19800	
601.66	21446	
601.85	21980	
602.04	19684	
602.23	19467	
602.42	21056	
602.61	21391	
602.8	19371	
602.99	19125	
603.18	21042	
603.37	21453	
603.57	19546	
603.76	20120	
603.95	21799	
604.14	21446	
604.33	19422	
604.52	19671	
604.71	21536	
604.9	20863	
605.09	20143	
605.28	19990	
605.47	21947	
605.66	21511	
605.86	19793	
606.05	19323	
606.24	21574	
606.43	20607	
606.62	19615	
606.81	20145	
607	21484	
607.19	20840	
607.38	18983	
607.57	19245	
607.76	20826	
607.95	20317	
608.14	19553	
608.33	20013	
608.52	20744	
608.72	21446	
608.91	18871	
609.1	18805	
609.29	20710	
609.48	20190	
609.67	19394	
609.86	18679	
610.05	20246	
610.24	20457	
610.43	18557	
610.62	18310	
610.81	21227	
611	21219	
611.19	18632	
611.38	19058	
611.57	20730	
611.76	21685	
611.95	18516	
612.14	18245	
612.33	20427	
612.52	20149	
612.71	18953	
612.9	18316	
613.09	19947	
613.28	21727	
613.47	18616	
613.66	19353	
613.85	20719	
614.04	20043	
614.24	18697	
614.43	18019	
614.62	20611	
614.81	20585	
615	18895	
615.19	19080	
615.38	19972	
615.57	20507	
615.76	19091	
615.95	19816	
616.14	20875	
616.33	20556	
616.52	19318	
616.71	19542	
616.9	20649	
617.09	20635	
617.28	18770	
617.47	19595	
617.66	20093	
617.85	20113	
618.04	19772	
618.22	19422	
618.41	20540	
618.6	21623	
618.79	19412	
618.98	19267	
619.17	21818	
619.36	20537	
619.55	19498	
619.74	19694	
619.93	21569	
620.12	20958	
620.31	20325	
620.5	20402	
620.69	22145	
620.88	22565	
621.07	21226	
621.26	20381	
621.45	22020	
621.64	22271	
621.83	20512	
622.02	19964	
622.21	22007	
622.4	21960	
622.59	21060	
622.78	20925	
622.97	21629	
623.16	22619	
623.35	20745	
623.54	19919	
623.72	22019	
623.91	22076	
624.1	20930	
624.29	20031	
624.48	22951	
624.67	22306	
624.86	20931	
625.05	20177	
625.24	22978	
625.43	21816	
625.62	22058	
625.81	20254	
626	22479	
626.19	22128	
626.38	20995	
626.56	20479	
626.75	21966	
626.94	22748	
627.13	20851	
627.32	19852	
627.51	22476	
627.7	23292	
627.89	19950	
628.08	20982	
628.27	21597	
628.46	21782	
628.65	20096	
628.83	19920	
629.02	22035	
629.21	21763	
629.4	20461	
629.59	20656	
629.78	21764	
629.97	22267	
630.16	20742	
630.35	20310	
630.54	22781	
630.72	22392	
630.91	20314	
631.1	20478	
631.29	22109	
631.48	22235	
631.67	20737	
631.86	20188	
632.05	21848	
632.24	21828	
632.42	19813	
632.61	20515	
632.8	21739	
632.99	21407	
633.18	20389	
633.37	20650	
633.56	21896	
633.75	21910	
633.93	20383	
634.12	20378	
634.31	22486	
634.5	22425	
634.69	20199	
634.88	20534	
635.07	21800	
635.25	22270	
635.44	20920	
635.63	21190	
635.82	21563	
636.01	21191	
636.2	20566	
636.39	20381	
636.57	22427	
636.76	21810	
636.95	19899	
637.14	20867	
637.33	21913	
637.52	22685	
637.7	19598	
637.89	20566	
638.08	21751	
638.27	22651	
638.46	20383	
638.65	20695	
638.83	22433	
639.02	21218	
639.21	20151	
639.4	20641	
639.59	21291	
639.78	21106	
639.96	19229	
640.15	19510	
640.34	21285	
640.53	21164	
640.72	19145	
640.91	19164	
641.09	20530	
641.28	21609	
641.47	19186	
641.66	19895	
641.85	21076	
642.03	20848	
642.22	19478	
642.41	19211	
642.6	20641	
642.79	20036	
642.97	18766	
643.16	19333	
643.35	20363	
643.54	20101	
643.73	18633	
643.91	19080	
644.1	19772	
644.29	20323	
644.48	18363	
644.67	18416	
644.85	19562	
645.04	19918	
645.23	17904	
645.42	18196	
645.6	19200	
645.79	20016	
645.98	17591	
646.17	16728	
646.36	18660	
646.54	18626	
646.73	17580	
646.92	16851	
647.11	18260	
647.29	19240	
647.48	16866	
647.67	16552	
647.86	19065	
648.05	19334	
648.23	16806	
648.42	17836	
648.61	18590	
648.8	18512	
648.98	16423	
649.17	16784	
649.36	17964	
649.55	17836	
649.73	16415	
649.92	17045	
650.11	18081	
650.3	18358	
650.48	16543	
650.67	16369	
650.86	18370	
651.05	17687	
651.23	16435	
651.42	16327	
651.61	17741	
651.79	17665	
651.98	16451	
652.17	16142	
652.36	17953	
652.54	17219	
652.73	16153	
652.92	16116	
653.11	17916	
653.29	18031	
653.48	15410	
653.67	16190	
653.85	17510	
654.04	18444	
654.23	16070	
654.42	15767	
654.6	16737	
654.79	17228	
654.98	14837	
655.16	15061	
655.35	15972	
655.54	15732	
655.73	14384	
655.91	14219	
656.1	16489	
656.29	15527	
656.47	14143	
656.66	15447	
656.85	16156	
657.03	16285	
657.22	14969	
657.41	15131	
657.59	16627	
657.78	16559	
657.97	14990	
658.16	15389	
658.34	17222	
658.53	17571	
658.72	16202	
658.9	16650	
659.09	16980	
659.28	16955	
659.46	15383	
659.65	15279	
659.84	16767	
660.02	17295	
660.21	15272	
660.4	15220	
660.58	17446	
660.77	16935	
660.96	15889	
661.14	15007	
661.33	17910	
661.52	17787	
661.7	15052	
661.89	17762	
662.08	16565	
662.26	16284	
662.45	15024	
662.64	15203	
662.82	17231	
663.01	16541	
663.2	15037	
663.38	15791	
663.57	16805	
663.75	16804	
663.94	15327	
664.13	16223	
664.31	16410	
664.5	16877	
664.69	15474	
664.87	15780	
665.06	16261	
665.25	16941	
665.43	16077	
665.62	16051	
665.8	16901	
665.99	16531	
666.18	14990	
666.36	15280	
666.55	16755	
666.74	16845	
666.92	14868	
667.11	15982	
667.29	16438	
667.48	16836	
667.67	15659	
667.85	15066	
668.04	16247	
668.22	16352	
668.41	15100	
668.6	15266	
668.78	16191	
668.97	16352	
669.15	15289	
669.34	14493	
669.53	16137	
669.71	16425	
669.9	14490	
670.08	15129	
670.27	16019	
670.46	16552	
670.64	15116	
670.83	15595	
671.01	15978	
671.2	16428	
671.38	14783	
671.57	14596	
671.76	16847	
671.94	17372	
672.13	14574	
672.31	15134	
672.5	16760	
672.69	16181	
672.87	14826	
673.06	14934	
673.24	16559	
673.43	16339	
673.61	15052	
673.8	14829	
673.98	16496	
674.17	16589	
674.36	15204	
674.54	15122	
674.73	16240	
674.91	16483	
675.1	15020	
675.28	14575	
675.47	16260	
675.65	16678	
675.84	14890	
676.03	15129	
676.21	16083	
676.4	15561	
676.58	15322	
676.77	15321	
676.95	17115	
677.14	15962	
677.32	14504	
677.51	14461	
677.69	16590	
677.88	15776	
678.06	14500	
678.25	14586	
678.44	16195	
678.62	15796	
678.81	14205	
678.99	14966	
679.18	16645	
679.36	16432	
679.55	14747	
679.73	15131	
679.92	16312	
680.1	15930	
680.29	15652	
680.47	14506	
680.66	15922	
680.84	16499	
681.03	14087	
681.21	15005	
681.4	15916	
681.58	15773	
681.77	14408	
681.95	14356	
682.14	16338	
682.32	16730	
682.51	15050	
682.69	14219	
682.88	15595	
683.06	15862	
683.25	14724	
683.43	15126	
683.62	15852	
683.8	16123	
683.99	15175	
684.17	14539	
684.36	16704	
684.54	15479	
684.73	13612	
684.91	13558	
685.1	15228	
685.28	14517	
685.46	13265	
685.65	13107	
685.83	14524	
686.02	14100	
686.2	12598	
686.39	12693	
686.57	13900	
686.76	15227	
686.94	12887	
687.13	13018	
687.31	14726	
687.5	14517	
687.68	12755	
687.86	13573	
688.05	15985	
688.23	14179	
688.42	13753	
688.6	13308	
688.79	14672	
688.97	14665	
689.16	13721	
689.34	12917	
689.52	15343	
689.71	15530	
689.89	14015	
690.08	13532	
690.26	15304	
690.45	14916	
690.63	14047	
690.81	13608	
691	14896	
691.18	14898	
691.37	13567	
691.55	15107	
691.74	14591	
691.92	16102	
692.1	13434	
692.29	12899	
692.47	14745	
692.66	14190	
692.84	13134	
693.02	13417	
693.21	14406	
693.39	14502	
693.58	13777	
693.76	13280	
693.94	15713	
694.13	15532	
694.31	13549	
694.5	14356	
694.68	14782	
694.86	15265	
695.05	14033	
695.23	14095	
695.42	15752	
695.6	17452	
695.78	14651	
695.97	13926	
696.15	15874	
696.34	15233	
696.52	13736	
696.7	14229	
696.89	15337	
697.07	14677	
697.25	13938	
697.44	14923	
697.62	15119	
697.81	15109	
697.99	13562	
698.17	13995	
698.36	14422	
698.54	14891	
698.72	13658	
698.91	13007	
699.09	14597	
699.28	14386	
699.46	13306	
699.64	13144	
699.83	14385	
700.01	15089	
700.19	13845	
700.38	12666	
700.56	15167	
700.74	14476	
700.93	12910	
701.11	13605	
701.29	14875	
701.48	15896	
701.66	13345	
701.84	13408	
702.03	14662	
702.21	15404	
702.39	12932	
702.58	13620	
702.76	15028	
702.94	15198	
703.13	12938	
703.31	14931	
703.49	14593	
703.68	15494	
703.86	13052	
704.04	13885	
704.23	14782	
704.41	15139	
704.59	13196	
704.78	13941	
704.96	15998	
705.14	15023	
705.33	12949	
705.51	13299	
705.69	14628	
705.87	15169	
706.06	13764	
706.24	12889	
706.42	14696	
706.61	14947	
706.79	13658	
706.97	12736	
707.16	14247	
707.34	14653	
707.52	13349	
707.7	13059	
707.89	14323	
708.07	14014	
708.25	13438	
708.44	13664	
708.62	14110	
708.8	15035	
708.98	13600	
709.17	12848	
709.35	14384	
709.53	14367	
709.72	12542	
709.9	12871	
710.08	14560	
710.26	14567	
710.45	13650	
710.63	12596	
710.81	13958	
710.99	14033	
711.18	13061	
711.36	12530	
711.54	13738	
711.72	14269	
711.91	12447	
712.09	11903	
712.27	13585	
712.45	14077	
712.64	12347	
712.82	11570	
713	13029	
713.18	12896	
713.37	11228	
713.55	12009	
713.73	13358	
713.91	12122	
714.1	11014	
714.28	10378	
714.46	12207	
714.64	11388	
714.83	9368.1	
715.01	9723.8	
715.19	10886	
715.37	10148	
715.55	9009	
715.74	9239.8	
715.92	11135	
716.1	9621.4	
716.28	9899.9	
716.47	9086.8	
716.65	9990.7	
716.83	9964.1	
717.01	8895	
717.19	8876.6	
717.38	11658	
717.56	9743.6	
717.74	9073.9	
717.92	8514.8	
718.1	10716	
718.29	10254	
718.47	8419.9	
718.65	9106	
718.83	11196	
719.01	11260	
719.2	8874.5	
719.38	9790	
719.56	11109	
719.74	12406	
719.92	9490.3	
720.11	10247	
720.29	11133	
720.47	10408	
720.65	8832.9	
720.83	9291.6	
721.02	10164	
721.2	9947.7	
721.38	8910.7	
721.56	8431.5	
721.74	9355.8	
721.92	9407.7	
722.11	9133.3	
722.29	8846.5	
722.47	10240	
722.65	9708.1	
722.83	8245.1	
723.01	8740.7	
723.2	9703.3	
723.38	10032	
723.56	7755.7	
723.74	8530.5	
723.92	9317.6	
724.1	10169	
724.29	8045.1	
724.47	8936.7	
724.65	9391.3	
724.83	9226.1	
725.01	7909.9	
725.19	8512.7	
725.37	9144.9	
725.56	9247.3	
725.74	7788.4	
725.92	7970	
726.1	9200.2	
726.28	9417.9	
726.46	8201.4	
726.64	7976.8	
726.83	9315.5	
727.01	9546.3	
727.19	7691.5	
727.37	8276.5	
727.55	9569.5	
727.73	9839.1	
727.91	7658.7	
728.09	7478.5	
728.28	9746.3	
728.46	9884.2	
728.64	8416.5	
728.82	8356.4	
729	10576	
729.18	10241	
729.36	7838.3	
729.54	9522.4	
729.72	11053	
729.91	9767.4	
730.09	9465	
730.27	8575.5	
730.45	9779.7	
730.63	10177	
730.81	8972.8	
730.99	8430.8	
731.17	10785	
731.35	9519.6	
731.53	8675.2	
731.71	8462.2	
731.9	10378	
732.08	10431	
732.26	8565.3	
732.44	8269.7	
732.62	10450	
732.8	10124	
732.98	8683.4	
733.16	8001.4	
733.34	9955.9	
733.52	8935.3	
733.7	8183.7	
733.88	8502.5	
734.07	9677.3	
734.25	9543.5	
734.43	7901.7	
734.61	8963.3	
734.79	10765	
734.97	9432.9	
735.15	7922.2	
735.33	8249.2	
735.51	9630.2	
735.69	9465.7	
735.87	8916.9	
736.05	8218.5	
736.23	9424.8	
736.41	9254.8	
736.59	8082.6	
736.77	8181	
736.95	9852.8	
737.13	9330.5	
737.32	7708.6	
737.5	7955	
737.68	10145	
737.86	9159.9	
738.04	7501	
738.22	8867	
738.4	8972.8	
738.58	9153.7	
738.76	7871	
738.94	7064.1	
739.12	8998.8	
739.3	9011.1	
739.48	8268.3	
739.66	8149.6	
739.84	9155.1	
740.02	9184.5	
740.2	7207.5	
740.38	7424.6	
740.56	9443.2	
740.74	8413.1	
740.92	7882.6	
741.1	7718.1	
741.28	8819.2	
741.46	8610.3	
741.64	7405.5	
741.82	7823.9	
742	8803.5	
742.18	8577.6	
742.36	7447.1	
742.54	7212.9	
742.72	9133.3	
742.9	8125	
743.08	7634.1	
743.26	6696.9	
743.44	9196.7	
743.62	8987.9	
743.8	7700.4	
743.98	7068.2	
744.16	8742.1	
744.34	8495.7	
744.52	7546.1	
744.7	7441.6	
744.88	8918.2	
745.06	8391.9	
745.24	7436.2	
745.42	7540.6	
745.6	8696.4	
745.78	8541.4	
745.96	6468.9	
746.14	6645	
746.32	9218.6	
746.5	8596.7	
746.68	7096.9	
746.86	6660.7	
747.03	8829.5	
747.21	7552.9	
747.39	7036.1	
747.57	6505.7	
747.75	8193.9	
747.93	8361.9	
748.11	6471.6	
748.29	6442.2	
748.47	9346.9	
748.65	7881.9	
748.83	6932.4	
749.01	6746	
749.19	8327	
749.37	7577.5	
749.55	6655.9	
749.73	6718	
749.91	8019.2	
750.09	7764.5	
750.26	6667.5	
750.44	6232	
750.62	7892.2	
750.8	7793.9	
750.98	6079.7	
751.16	6309.8	
751.34	7950.9	
751.52	7410.9	
751.7	6907.8	
751.88	6017.6	
752.06	8246.5	
752.24	7950.9	
752.42	5877.7	
752.59	6151.4	
752.77	7752.9	
752.95	8705.2	
753.13	6755.6	
753.31	6226.5	
753.49	7454.6	
753.67	7746.8	
753.85	6453.8	
754.03	6068.8	
754.21	7838.3	
754.38	8043.7	
754.56	5984.2	
754.74	5229.1	
754.92	7052.5	
755.1	7443.7	
755.28	5069.4	
755.46	4928.8	
755.64	7759.8	
755.82	7636.2	
755.99	4674.1	
756.17	4632.5	
756.35	5359.5	
756.53	6460.7	
756.71	3521.1	
756.89	4167.6	
757.07	6079.7	
757.25	5459.2	
757.42	4684.4	
757.6	5411.4	
757.78	6361	
757.96	5667.4	
758.14	4737	
758.32	4388.1	
758.5	5256.5	
758.67	5930.9	
758.85	4521.9	
759.03	4607.9	
759.21	6035.4	
759.39	5566.4	
759.57	4223.6	
759.75	5036.6	
759.92	6577.4	
760.1	6036.7	
760.28	5378	
760.46	5649.7	
760.64	5941.8	
760.82	5763.7	
760.99	5375.9	
761.17	4820.2	
761.35	6660.7	
761.53	5873.6	
761.71	4941.7	
761.89	5433.9	
762.06	6688.7	
762.24	6236.7	
762.42	5079.6	
762.6	4977.2	
762.78	6275.7	
762.96	6815	
763.13	5510.4	
763.31	5220.3	
763.49	6907.8	
763.67	6281.8	
763.85	5737	
764.02	6239.5	
764.2	7137.2	
764.38	6424.5	
764.56	4992.9	
764.74	5697.4	
764.91	7216.4	
765.09	6267.5	
765.27	4883.7	
765.45	4654.4	
765.63	7194.5	
765.8	7049.8	
765.98	4435.2	
766.16	4663.2	
766.34	5885.2	
766.52	5741.1	
766.69	5304.9	
766.87	4423.6	
767.05	6198.5	
767.23	6694.8	
767.41	4620.2	
767.58	4818.9	
767.76	6554.2	
767.94	6584.9	
768.12	4734.2	
768.29	5218.2	
768.47	6096.1	
768.65	6624.5	
768.83	4347.8	
769	5244.8	
769.18	5796.4	
769.36	6267.5	
769.54	5139	
769.72	4338.3	
769.89	6501.6	
770.07	6532.3	
770.25	4532.2	
770.43	5470.8	
770.6	6986.3	
770.78	7343.3	
770.96	4685.1	
771.14	5096	
771.31	6327.5	
771.49	5801.9	
771.67	3941.7	
771.85	4133.5	
772.02	5267.4	
772.2	5767.8	
772.38	4597	
772.55	4209.3	
772.73	5952.1	
772.91	5817.6	
773.09	4503.5	
773.26	4558.8	
773.44	5874.9	
773.62	5685.2	
773.8	4065.2	
773.97	3959.4	
774.15	5849	
774.33	5638.1	
774.5	4003.8	
774.68	4306.9	
774.86	5942.5	
775.04	5535.7	
775.21	4054.3	
775.39	3992.9	
775.57	5773.9	
775.74	5947.3	
775.92	3880.2	
776.1	3783.3	
776.27	5654.4	
776.45	6691.4	
776.63	4007.2	
776.81	3591.5	
776.98	5408.7	
777.16	6228.6	
777.34	4048.2	
777.51	4313	
777.69	5391.6	
777.87	5163.6	
778.04	4042.7	
778.22	4490.5	
778.4	5197.1	
778.57	5678.3	
778.75	3521.1	
778.93	3718.4	
779.1	5007.3	
779.28	4877.6	
779.46	3454.2	
779.64	3801	
779.81	5767.8	
779.99	6382.8	
780.17	4433.9	
780.34	4468	
780.52	5322.7	
780.69	5496.7	
780.87	4083.6	
781.05	3777.8	
781.22	5343.8	
781.4	5426.4	
781.58	3768.9	
781.75	3119.1	
781.93	5375.9	
782.11	4900.1	
782.28	4453	
782.46	3779.2	
782.64	4666.6	
782.81	5494	
782.99	3777.1	
783.17	3759.4	
783.34	5368.4	
783.52	4793.6	
783.69	3897.3	
783.87	4519.9	
784.05	4834.6	
784.22	4826.4	
784.4	4491.2	
784.58	3943.7	
784.75	5584.1	
784.93	4896	
785.1	3651.5	
785.28	4155.3	
785.46	5344.5	
785.63	4774.5	
785.81	3700.7	
785.99	3556.6	
786.16	4941.1	
786.34	5235.3	
786.51	3536.2	
786.69	3860.4	
786.87	4524	
787.04	4952.7	
787.22	3439.2	
787.39	4168.3	
787.57	4791.6	
787.75	5631.2	
787.92	4310.3	
788.1	4209.9	
788.27	4764.9	
788.45	4522.6	
788.63	4042.7	
788.8	3007.1	
788.98	5134.9	
789.15	4427	
789.33	3175.7	
789.5	3599.6	
789.68	5465.3	
789.86	5538.4	
790.03	3915	
790.21	3456.3	
790.38	5436	
790.56	4825.7	
790.73	3405.8	
790.91	3370.3	
791.09	4762.2	
791.26	5281	
791.44	3560.7	
791.61	3122.5	
791.79	4755.4	
791.96	4715.1	
792.14	3257.6	
792.32	2880.1	
792.49	4687.1	
792.67	4838.7	
792.84	3336.8	
793.02	3099.9	
793.19	5077.6	
793.37	5590.3	
793.54	2871.3	
793.72	3211.2	
793.89	5658.5	
794.07	4625.7	
794.25	3627	
794.42	2933.4	
794.6	5494.7	
794.77	5171.1	
794.95	3766.9	
795.12	3414	
795.3	4676.9	
795.47	5169.8	
795.65	3679.5	
795.82	3601.7	
796	4575.8	
796.17	5879.7	
796.35	3496.6	
796.52	4073.4	
796.7	5070.8	
796.87	5069.4	
797.05	3366.2	
797.22	4076.8	
797.4	5132.9	
797.57	5819	
797.75	3566.9	
797.92	3373	
798.1	5365	
798.27	4555.4	
798.45	2903.3	
798.62	3102	
798.8	4852.3	
798.97	5279.7	
799.15	3723.9	
799.32	3539.6	
799.5	4317.1	
799.67	4863.2	
799.85	3764.2	
800.02	2935.4	
800.2	4608.6	
800.37	4868.7	
800.55	3947.1	
800.72	3334.8	
800.9	5283.8	
801.07	5485.1	
801.25	4412.7	
801.42	3633.1	
801.6	5252.4	
801.77	4905.6	
801.95	3393.5	
802.12	3215.3	
802.29	5050.3	
802.47	4930.8	
802.64	3637.2	
802.82	2883.5	
802.99	4493.9	
803.17	5266.7	
803.34	3521.8	
803.52	3218	
803.69	5814.2	
803.87	4409.3	
804.04	3504.1	
804.21	3538.9	
804.39	5427.1	
804.56	4707.6	
804.74	3013.2	
804.91	3655.6	
805.09	4627	
805.26	4676.9	
805.44	3092.4	
805.61	3366.2	
805.78	5041.4	
805.96	5040.7	
806.13	3609.2	
806.31	3873.4	
806.48	4231.8	
806.66	4626.4	
806.83	3616.7	
807	3519.1	
807.18	4614.1	
807.35	4848.2	
807.53	3518.4	
807.7	2889.7	
807.87	5392.3	
808.05	4579.3	
808.22	3816.7	
808.4	2905.4	
808.57	4526	
808.74	4261.8	
808.92	3222.8	
809.09	4055.7	
809.27	4519.2	
809.44	4925.4	
809.61	2903.3	
809.79	3144.3	
809.96	5522.7	
810.14	5128.1	
810.31	2813.2	
810.48	3381.2	
810.66	4573.1	
810.83	5171.8	
811.01	3238.5	
811.18	3577.1	
811.35	5187.5	
811.53	4079.6	
811.7	3854.3	
811.87	3524.6	
812.05	4631.1	
812.22	4506.9	
812.39	3155.9	
812.57	3062.4	
812.74	4622.9	
812.92	5770.5	
813.09	3383.9	
813.26	3592.8	
813.44	5644.2	
813.61	4412.7	
813.78	2908.1	
813.96	3722.5	
814.13	4577.2	
814.3	4341	
814.48	4016.1	
814.65	3362.1	
814.82	5440.1	
815	4315.1	
815.17	3448.8	
815.34	4093.9	
815.52	4538.3	
815.69	4529.4	
815.87	3444	
816.04	3351.8	
816.21	4592.2	
816.38	4181.3	
816.56	3340.2	
816.73	3121.8	
816.9	5575.3	
817.08	5145.9	
817.25	3100.6	
817.42	3859.7	
817.6	4194.2	
817.77	4524.6	
817.94	3525.2	
818.12	3048.7	
818.29	4388.8	
818.46	6305.7	
818.64	3230.3	
818.81	3064.4	
818.98	4343.7	
819.16	5948.7	
819.33	3659	
819.5	3407.1	
819.67	4846.9	
819.85	5357.5	
820.02	3388	
820.19	3534.1	
820.37	4748.6	
820.54	4448.2	
820.71	3464.5	
820.88	4231.8	
821.06	4675.5	
821.23	4354.7	
821.4	3492.5	
821.58	3462.4	
821.75	5008	
821.92	4741	
822.09	2884.9	
822.27	2912.9	
822.44	4602.5	
822.61	4482.3	
822.79	2856.2	
822.96	5194.3	
823.13	4863.2	
823.3	4216.1	
823.48	3274	
823.65	2968.9	
823.82	5139.7	
823.99	4237.2	
824.17	4090.5	
824.34	3066.5	
824.51	5771.9	
824.68	4580.6	
824.86	3161.4	
825.03	3435.1	
825.2	4553.3	
825.37	5414.1	
825.55	3176.4	
825.72	3392.8	
825.89	5782.8	
826.06	5409.4	
826.24	3360	
826.41	3367.5	
826.58	5434.6	
826.75	4775.9	
826.92	2740.9	
827.1	2976.4	
827.27	7024.5	
827.44	5782.1	
827.61	3212.6	
827.79	3781.9	
827.96	4379.2	
828.13	4561.5	
828.3	3379.8	
828.47	2835.1	
828.65	4828.4	
828.82	4758.8	
828.99	4127.3	
829.16	3667.2	
829.34	5103.5	
829.51	4902.8	
829.68	3375.1	
829.85	3462.4	
830.02	5399.1	
830.2	5137	
830.37	2702.6	
830.54	3995.6	
830.71	5649.7	
830.88	4577.9	
831.05	2721.8	
831.23	3127.2	
831.4	5477	
831.57	6013.5	
831.74	3156.6	
831.91	2826.2	
832.09	4829.1	
832.26	5038.7	
832.43	3275.4	
832.6	3661.1	
832.77	4840	
832.94	5388.9	
833.12	2669.2	
833.29	3272.7	
833.46	4891.9	
833.63	6144.6	
833.8	3491.1	
833.97	3237.2	
834.15	5141.8	
834.32	4890.5	
834.49	3444	
834.66	3381.2	
834.83	5186.8	
835	4420.9	
835.17	3181.9	
835.35	3190.1	
835.52	5025.7	
835.69	4909	
835.86	3336.8	
836.03	2803.7	
836.2	5071.5	
836.37	4761.5	
836.55	3209.8	
836.72	3048.7	
836.89	4712.4	
837.06	5129.5	
837.23	3306.8	
837.4	3546.4	
837.57	5708.4	
837.75	6136.4	
837.92	2996.2	
838.09	3133.4	
838.26	4831.8	
838.43	5287.9	
838.6	3383.9	
838.77	3069.2	
838.94	5886.5	
839.11	5662	
839.29	3269.9	
839.46	2577	
839.63	5038.7	
839.8	4815.5	
839.97	3178.4	
840.14	3168.2	
840.31	4957.4	
840.48	5162.9	
840.65	2734	
840.82	3084.2	
841	5034.6	
841.17	4989.5	
841.34	2911.5	
841.51	2985.9	
841.68	5009.3	
841.85	4757.4	
842.02	3038.5	
842.19	2613.2	
842.36	4883.7	
842.53	4848.2	
842.7	2956.6	
842.87	3452.2	
843.05	6139.8	
843.22	4838	
843.39	2767.5	
843.56	3048.7	
843.73	4667.3	
843.9	5137.7	
844.07	4598.4	
844.24	3813.3	
844.41	6929.6	
844.58	4432.5	
844.75	2813.9	
844.92	3049.4	
845.09	5034.6	
845.26	4984.1	
845.43	2986.6	
845.6	3084.9	
845.77	5031.9	
845.94	4862.6	
846.12	3200.3	
846.29	3422.2	
846.46	5245.5	
846.63	4979.3	
846.8	2930.6	
846.97	3457	
847.14	5362.9	
847.31	5015.5	
847.48	3229	
847.65	3589.4	
847.82	5218.2	
847.99	5144.5	
848.16	3782.6	
848.33	3512.3	
848.5	4650.3	
848.67	5378	
848.84	2882.9	
849.01	3044.6	
849.18	4617.5	
849.35	4389.5	
849.52	3617.4	
849.69	2859.6	
849.86	5214.8	
850.03	5317.2	
850.2	2908.1	
850.37	3513.6	
850.54	5241.4	
850.71	4797	
850.88	3453.6	
851.05	2882.2	
851.22	4895.3	
851.39	5431.2	
851.56	2759.3	
851.73	3368.9	
851.9	4500.1	
852.07	5190.2	
852.24	3236.5	
852.41	2900.6	
852.58	4939	
852.75	4554	
852.92	3265.1	
853.09	2838.5	
853.26	4626.4	
853.43	5347.2	
853.6	2953.9	
853.77	2517.6	
853.94	5407.3	
854.11	4453	
854.28	4179.9	
854.44	3138.9	
854.61	5728.2	
854.78	5268.7	
854.95	2847.4	
855.12	3583.9	
855.29	4190.8	
855.46	5486.5	
855.63	2926.5	
855.8	3972.4	
855.97	4600.4	
856.14	5270.1	
856.31	4042	
856.48	3156.6	
856.65	4756.7	
856.82	4428.4	
856.99	2835.8	
857.16	3155.9	
857.33	5916.6	
857.49	4754.7	
857.66	3106.1	
857.83	3267.2	
858	4758.1	
858.17	4899.4	
858.34	2775	
858.51	2928.6	
858.68	5484.5	
858.85	5495.4	
859.02	3330	
859.19	3551.2	
859.36	4453	
859.52	4506.2	
859.69	2943.6	
859.86	3343	
860.03	4547.9	
860.2	5425.8	
860.37	2661.7	
860.54	2962	
860.71	5183.4	
860.88	5483.8	
861.05	3225.6	
861.21	3622.2	
861.38	5438	
861.55	4319.2	
861.72	2683.5	
861.89	3238.5	
862.06	5236.7	
862.23	5560.9	
862.4	2795.5	
862.56	3001.6	
862.73	5070.8	
862.9	4831.2	
863.07	3391.4	
863.24	2698.5	
863.41	4412.7	
863.58	4487.1	
863.75	2936.8	
863.91	3325.9	
864.08	5370.5	
864.25	5143.1	
864.42	3571.7	
864.59	3928	
864.76	5681.1	
864.93	4487.8	
865.09	2834.4	
865.26	3113.6	
865.43	5406	
865.6	5634.6	
865.77	2533.3	
865.94	2831.7	
866.1	5375.2	
866.27	5102.9	
866.44	4194.2	
866.61	2816	
866.78	4764.9	
866.95	5113.8	
867.11	2861	
867.28	2579.8	
867.45	5287.2	
867.62	4450.9	
867.79	3309.5	
867.96	2930	
868.12	4400.4	
868.29	5171.8	
868.46	2891	
868.63	3771.7	
868.8	5303.6	
868.97	5123.3	
869.13	3076.7	
869.3	3039.2	
869.47	5032.5	
869.64	5233.9	
869.81	2884.9	
869.97	2910.2	
870.14	4937	
870.31	5451	
870.48	2815.3	
870.65	3567.6	
870.81	4734.2	
870.98	4775.9	
871.15	3257	
871.32	3001	
871.48	5087.2	
871.65	5481	
871.82	2852.1	
871.99	3179.8	
872.16	5896.1	
872.32	5373.9	
872.49	2904.7	
872.66	2931.3	
872.83	5236	
872.99	4639.3	
873.16	3244.7	
873.33	2884.9	
873.5	4847.5	
873.67	4919.9	
873.83	3052.8	
874	3839.9	
874.17	4987.5	
874.34	5742.5	
874.5	3669.3	
874.67	3556	
874.84	5380.7	
875.01	4348.5	
875.17	3967.6	
875.34	2897.9	
875.51	4922	
875.68	5820.3	
875.84	3469.9	
876.01	4092.5	
876.18	5175.9	
876.34	5075.5	
876.51	2873.3	
876.68	2849.4	
876.85	4657.8	
877.01	5388.9	
877.18	4029	
877.35	2915.6	
877.52	4870.8	
877.68	4440	
877.85	2846	
878.02	2871.3	
878.18	4761.5	
878.35	4616.1	
878.52	2384.5	
878.69	3183.2	
878.85	5260.5	
879.02	5138.4	
879.19	3949.8	
879.35	3121.8	
879.52	5112.4	
879.69	5219.6	
879.86	2518.3	
880.02	3214.6	
880.19	4835.9	
880.36	5715.2	
880.52	3291.1	
880.69	3377.1	
880.86	5189.6	
881.02	5231.9	
881.19	3130.7	
881.36	3140.2	
881.52	5091.9	
881.69	4581.3	
881.86	3145.7	
882.02	3039.9	
882.19	5311.1	
882.36	6124.8	
882.52	2987.3	
882.69	3988.1	
882.86	4953.4	
883.02	4898.1	
883.19	3466.5	
883.36	3248.1	
883.52	5216.2	
883.69	5835.3	
883.86	2936.1	
884.02	2685.6	
884.19	5150	
884.36	4833.9	
884.52	3207.8	
884.69	3106.1	
884.86	4685.1	
885.02	5601.2	
885.19	3228.3	
885.36	3274	
885.52	4752.7	
885.69	4948.6	
885.86	4038.6	
886.02	3608.5	
886.19	5218.2	
886.35	4692.6	
886.52	3147.7	
886.69	3973.7	
886.85	4485.1	
887.02	5468.8	
887.19	5468.8	
887.35	5468.8	
887.52	5468.8	
887.68	5468.8	
887.85	5468.8	
888.02	5468.8	
888.18	5468.8	
888.35	5468.8	
888.51	5468.8	
888.68	5468.8	
888.85	5468.8	
889.01	5468.8	
889.18	5468.8	
889.35	5468.8	
889.51	5468.8	
889.68	5468.8	
889.84	5468.8	
890.01	5468.8	
890.17	5468.8	
890.34	5468.8	
890.51	5468.8	
890.67	5468.8	
890.84	5468.8	
891	5468.8	
891.17	5468.8	
891.34	5468.8	
891.5	5468.8	
891.67	5468.8	
891.83	5468.8	
892	5468.8	
892.16	5468.8	
892.33	5468.8	
892.5	5468.8	
892.66	5468.8	
892.83	5468.8	
892.99	5468.8	
893.16	5468.8	
893.32	5468.8	
893.49	5468.8	
893.65	5468.8	
893.82	5468.8	
893.99	5468.8	
894.15	5468.8	
894.32	5468.8	
894.48	5468.8	
894.65	5468.8	
894.81	5468.8	
894.98	5468.8	
895.14	5468.8	
895.31	5468.8	
895.47	5468.8	
895.64	5468.8	
895.81	5468.8	
895.97	5468.8	
896.14	5468.8	
896.3	5468.8	
896.47	5468.8	
896.63	5468.8	
896.8	5468.8	
896.96	5468.8	
897.13	5468.8	
897.29	5468.8	
897.46	5468.8	
897.62	5468.8	
897.79	5468.8	
897.95	5468.8	
898.12	5468.8	
898.28	5468.8	
898.45	5468.8	
898.61	5468.8	
898.78	5468.8	
898.94	5468.8	
899.11	5468.8	
899.27	5468.8	
899.44	5468.8	
899.6	5468.8	
899.77	5468.8	
899.93	5468.8	
900.1	5468.8	
900.26	5468.8	
900.43	5468.8	
900.59	5468.8	
900.76	5468.8	
900.92	5468.8	
901.09	5468.8	
901.25	5468.8	
901.42	5468.8	
901.58	5468.8	
901.75	5468.8	
901.91	5468.8	
902.07	5468.8	
902.24	5468.8	
902.4	5468.8	
902.57	5468.8	
902.73	5468.8	
902.9	5468.8	
903.06	5468.8	
903.23	5468.8	
903.39	5468.8	
903.56	5468.8	
903.72	5468.8	
903.88	5468.8	
904.05	5468.8	
904.21	5468.8	
904.38	5468.8	
904.54	5468.8	
904.71	5468.8	
904.87	5468.8	
905.03	5468.8	
905.2	5468.8	
905.36	5468.8	
905.53	5468.8	
905.69	5468.8	
905.86	5468.8	
906.02	5468.8	
906.18	5468.8	
906.35	5468.8	
906.51	5468.8	
906.68	5468.8	
906.84	5468.8	
907.01	5468.8	
907.17	5468.8	
907.33	5468.8	
907.5	5468.8	
907.66	5468.8	
907.83	5468.8	
907.99	5468.8	
908.15	5468.8	
908.32	5468.8	
908.48	5468.8	
908.65	5468.8	
908.81	5468.8	
908.97	5468.8	
909.14	5468.8	
909.3	5468.8	
909.47	5468.8	
909.63	5468.8	
909.79	5468.8	
909.96	5468.8	
910.12	5468.8	
910.28	5468.8	
910.45	5468.8	
910.61	5468.8	
910.78	5468.8	
910.94	5468.8	
911.1	5468.8	
911.27	5468.8	
911.43	5468.8	
911.59	5468.8	
911.76	5468.8	
911.92	5468.8	
912.08	5468.8	
912.25	5468.8	
912.41	5468.8	
912.57	5468.8	
912.74	5468.8	
912.9	5468.8	
913.07	5468.8	
913.23	5468.8	
913.39	5468.8	
913.56	5468.8	
913.72	5468.8	
913.88	5468.8	
914.05	5468.8	
914.21	5468.8	
914.37	5468.8	
914.54	5468.8	
914.7	5468.8	
914.86	5468.8	
915.03	5468.8	
915.19	5468.8	
