Wavelength	Intensities	
nm	a.u.	
179.22	1927.3	
179.44	1927.5	
179.65	1927.1	
179.86	1927.8	
180.08	1936.7	
180.29	5076.9	
180.51	3563.5	
180.72	5670.8	
180.94	6690.7	
181.15	3280.8	
181.37	3182.5	
181.58	5627.1	
181.79	5892	
182.01	3438.5	
182.22	3713	
182.44	5875.6	
182.65	4874.2	
182.87	4625.7	
183.08	4123.9	
183.29	6214.9	
183.51	5095.3	
183.72	3717.7	
183.94	5458.5	
184.15	5473.5	
184.37	5528.2	
184.58	3304.7	
184.79	4563.6	
185.01	5077.6	
185.22	5829.2	
185.44	4810	
185.65	3946.4	
185.86	5352	
186.08	4922	
186.29	3177.1	
186.51	3405.8	
186.72	5145.9	
186.94	6027.9	
187.15	3965.6	
187.36	4113.7	
187.58	7921.5	
187.79	5647.6	
188.01	4259.1	
188.22	6705.7	
188.43	6752.2	
188.65	5822.4	
188.86	3409.9	
189.08	4084.3	
189.29	5254.4	
189.5	5304.2	
189.72	3785.3	
189.93	3904.8	
190.15	6036	
190.36	7300.3	
190.57	4138.3	
190.79	3984	
191	6170.5	
191.22	6108.4	
191.43	4227.7	
191.64	3416	
191.86	6334.4	
192.07	6085.2	
192.29	3652.2	
192.5	3822.2	
192.71	6089.3	
192.93	5219.6	
193.14	3783.3	
193.35	3899.3	
193.57	5250.3	
193.78	5952.1	
194	3065.1	
194.21	3682.2	
194.42	5010.7	
194.64	5599.8	
194.85	4099.4	
195.07	4838.7	
195.28	5583.4	
195.49	4797	
195.71	5124	
195.92	3529.3	
196.13	5668.8	
196.35	5836.7	
196.56	5470.8	
196.78	4149.2	
196.99	7189.1	
197.2	6698.2	
197.42	4728.8	
197.63	4159.4	
197.84	4891.2	
198.06	5685.8	
198.27	3826.3	
198.48	5158.2	
198.7	5264	
198.91	5345.2	
199.13	4143.7	
199.34	4121.9	
199.55	5874.3	
199.77	4799.1	
199.98	3596.2	
200.19	4231.1	
200.41	5408	
200.62	5089.2	
200.83	4360.1	
201.05	4670.1	
201.26	5387.5	
201.47	5045.5	
201.69	3652.2	
201.9	3530.7	
202.11	5434.6	
202.33	6477	
202.54	3984.7	
202.76	4351.3	
202.97	5565	
203.18	5541.1	
203.4	4384.7	
203.61	4200.4	
203.82	5554.1	
204.04	5137	
204.25	4219.5	
204.46	4063.2	
204.68	5495.4	
204.89	5752.1	
205.1	4037.9	
205.32	3485.6	
205.53	5892	
205.74	6057.2	
205.96	3018	
206.17	4282.3	
206.38	5845.6	
206.6	6072.2	
206.81	4709	
207.02	3891.8	
207.24	5803.9	
207.45	6114.6	
207.66	3945.8	
207.88	3361.4	
208.09	5685.8	
208.3	5496.7	
208.52	3595.6	
208.73	4027.7	
208.94	5439.4	
209.15	6211.5	
209.37	3906.8	
209.58	4151.9	
209.79	6053.1	
210.01	5241.4	
210.22	3181.9	
210.43	3232.4	
210.65	5526.8	
210.86	5920	
211.07	3940.3	
211.29	3646.1	
211.5	5909.8	
211.71	5410.1	
211.93	3609.9	
212.14	3568.9	
212.35	5431.9	
212.56	5651.7	
212.78	4215.4	
212.99	3428.3	
213.2	6451.8	
213.42	5272.8	
213.63	3775.8	
213.84	4021.5	
214.06	4872.8	
214.27	4969.7	
214.48	4001	
214.69	4240.7	
214.91	6168.5	
215.12	6286.6	
215.33	4317.1	
215.55	4688.5	
215.76	6754.2	
215.97	5814.9	
216.18	4063.9	
216.4	3989.4	
216.61	5145.2	
216.82	5978.7	
217.04	3672	
217.25	3790.8	
217.46	6075.6	
217.67	5925.5	
217.89	3239.2	
218.1	3349.8	
218.31	5543.2	
218.53	5630.5	
218.74	3840.6	
218.95	3706.8	
219.16	5415.5	
219.38	6410.8	
219.59	3770.3	
219.8	4468	
220.01	7117.4	
220.23	5580	
220.44	4958.8	
220.65	3624.9	
220.87	5582.1	
221.08	6165.8	
221.29	3405.1	
221.5	4545.8	
221.72	7554.3	
221.93	5190.2	
222.14	4217.5	
222.35	4916.5	
222.57	5515.9	
222.78	5865.4	
222.99	3962.8	
223.2	4268.6	
223.42	5864	
223.63	5947.3	
223.84	3045.3	
224.05	3028.3	
224.27	7150.8	
224.48	6397.2	
224.69	4927.4	
224.9	4171	
225.12	5669.5	
225.33	5462.6	
225.54	3318.4	
225.75	3725.3	
225.97	5071.5	
226.18	5358.9	
226.39	3990.8	
226.6	3727.3	
226.82	5235.3	
227.03	5048.9	
227.24	4178.5	
227.45	3400.3	
227.67	5877	
227.88	6468.9	
228.09	4666.6	
228.3	4637.3	
228.52	5924.8	
228.73	5425.8	
228.94	3901.4	
229.15	3416.7	
229.36	5387.5	
229.58	5336.3	
229.79	3913.7	
230	4564.2	
230.21	6522.8	
230.43	5637.4	
230.64	4127.3	
230.85	4317.8	
231.06	5949.3	
231.28	5970.5	
231.49	3377.8	
231.7	4041.3	
231.91	5888.6	
232.12	5579.3	
232.34	3556	
232.55	4083.6	
232.76	6128.2	
232.97	5714.5	
233.18	3646.7	
233.4	4126.7	
233.61	5705.6	
233.82	5334.3	
234.03	3895.2	
234.25	3764.8	
234.46	7689.4	
234.67	5577.3	
234.88	4197	
235.09	3693.9	
235.31	5793	
235.52	5390.9	
235.73	4136.9	
235.94	3456.3	
236.15	5188.9	
236.37	6707.1	
236.58	3627.6	
236.79	4033.8	
237	5864.7	
237.21	4970.4	
237.43	4334.9	
237.64	3332.7	
237.85	10114	
238.06	5006.6	
238.27	4387.4	
238.48	3442.6	
238.7	5885.2	
238.91	5342.5	
239.12	3977.8	
239.33	4044.7	
239.54	5086.5	
239.76	5459.9	
239.97	3935.5	
240.18	4015.4	
240.39	6969.2	
240.6	5778	
240.82	4162.8	
241.03	3380.5	
241.24	5484.5	
241.45	6407.4	
241.66	3590.1	
241.87	4336.2	
242.09	6239.5	
242.3	6598.6	
242.51	4368.3	
242.72	4042.7	
242.93	5985.5	
243.14	5452.4	
243.36	4656.4	
243.57	5000.5	
243.78	6384.2	
243.99	5872.2	
244.2	3997	
244.41	3616	
244.63	5070.8	
244.84	5812.8	
245.05	4277.5	
245.26	4025.6	
245.47	5773.2	
245.68	6144.6	
245.9	5298.8	
246.11	4215.4	
246.32	5331.5	
246.53	5758.9	
246.74	6485.2	
246.95	3318.4	
247.16	4934.2	
247.38	5524.7	
247.59	3277.4	
247.8	3997	
248.01	5177.3	
248.22	5457.8	
248.43	3614	
248.64	3873.4	
248.86	4838.7	
249.07	5240.1	
249.28	3501.3	
249.49	4067.3	
249.7	6085.2	
249.91	6259.3	
250.12	3306.8	
250.34	3417.4	
250.55	5586.2	
250.76	5513.1	
250.97	4111	
251.18	4181.3	
251.39	6217	
251.6	5720.7	
251.81	4210.6	
252.03	4209.9	
252.24	5245.5	
252.45	6060.6	
252.66	3432.4	
252.87	4439.3	
253.08	5500.8	
253.29	7377.5	
253.5	3495.9	
253.72	4851	
253.93	5371.1	
254.14	6550.1	
254.35	3771	
254.56	3940.3	
254.77	5783.5	
254.98	5107.6	
255.19	3741.6	
255.41	4805.9	
255.62	5603.9	
255.83	6202.6	
256.04	4280.9	
256.25	4184	
256.46	6766.5	
256.67	5165	
256.88	4090.5	
257.09	4621.6	
257.31	5185.5	
257.52	5186.1	
257.73	5128.8	
257.94	3747.8	
258.15	5318.6	
258.36	5522	
258.57	4784.1	
258.78	3054.2	
258.99	5999.2	
259.2	5331.5	
259.41	3833.8	
259.63	3898.6	
259.84	6404.7	
260.05	6913.3	
260.26	5030.5	
260.47	3702	
260.68	6074.3	
260.89	5427.1	
261.1	4610	
261.31	3644	
261.52	6068.1	
261.73	6506.4	
261.95	4934.9	
262.16	4248.2	
262.37	6321.4	
262.58	6334.4	
262.79	4879.6	
263	3859.1	
263.21	5522	
263.42	5002.5	
263.63	3926	
263.84	3860.4	
264.05	6094.8	
264.26	6477.7	
264.47	4784.7	
264.69	4386.7	
264.9	6271.6	
265.11	5711.8	
265.32	3695.2	
265.53	3792.8	
265.74	5616.2	
265.95	4930.1	
266.16	4106.9	
266.37	4506.2	
266.58	5625.1	
266.79	5352.7	
267	3801.7	
267.21	3482.9	
267.42	5085.8	
267.63	5470.8	
267.84	4011.3	
268.06	3422.2	
268.27	5953.4	
268.48	6242.2	
268.69	3826.3	
268.9	4661.9	
269.11	6299.6	
269.32	4967.7	
269.53	3986	
269.74	3680.2	
269.95	5829.9	
270.16	4840	
270.37	4061.8	
270.58	4616.8	
270.79	5341.8	
271	6011.5	
271.21	4311	
271.42	3999	
271.63	5700.9	
271.84	5160.9	
272.05	3188	
272.26	3508.2	
272.47	5556.1	
272.68	5747.3	
272.89	3805.8	
273.11	4472.8	
273.32	5292	
273.53	6526.9	
273.74	4297.3	
273.95	4212	
274.16	6185.5	
274.37	5576.6	
274.58	4330.1	
274.79	3488.4	
275	5608	
275.21	6220.4	
275.42	5248.3	
275.63	4454.3	
275.84	5778.7	
276.05	7290.1	
276.26	4231.1	
276.47	3930.7	
276.68	5289.9	
276.89	6545.3	
277.1	4567.7	
277.31	3489.7	
277.52	5808.7	
277.73	5892	
277.94	3437.9	
278.15	3898.6	
278.36	5663.3	
278.57	5126.1	
278.78	3850.9	
278.99	4377.9	
279.2	5148.6	
279.41	5095.3	
279.62	5035.3	
279.83	3549.8	
280.04	6763.1	
280.25	5080.3	
280.46	5103.5	
280.67	3994.2	
280.88	5060.5	
281.09	6245.6	
281.3	4204.5	
281.51	5343.2	
281.72	5185.5	
281.93	6045.6	
282.14	3732.8	
282.35	3994.2	
282.56	6031.3	
282.77	6008.7	
282.98	3827	
283.19	4782.7	
283.4	7395.9	
283.61	5401.9	
283.82	3536.2	
284.03	4974.5	
284.24	5670.1	
284.45	6161.7	
284.66	4950.6	
284.87	4740.4	
285.08	6042.2	
285.29	6266.8	
285.5	3406.5	
285.71	3876.8	
285.92	6164.4	
286.12	6818.4	
286.33	4939	
286.54	3844.7	
286.75	6034.7	
286.96	5406.6	
287.17	3506.1	
287.38	4883.7	
287.59	5137	
287.8	5023.7	
288.01	3955.3	
288.22	4498	
288.43	6088.6	
288.64	5041.4	
288.85	4711.7	
289.06	4412.7	
289.27	5966.4	
289.48	6453.8	
289.69	4982.7	
289.9	4438.6	
290.11	6242.2	
290.32	5215.5	
290.53	4717.2	
290.74	4327.4	
290.94	5956.2	
291.15	5986.2	
291.36	3756	
291.57	4493.2	
291.78	5248.9	
291.99	4868.7	
292.2	3617.4	
292.41	4371.7	
292.62	6155.5	
292.83	5917.3	
293.04	5421.7	
293.25	3655.6	
293.46	5294.7	
293.67	6109.1	
293.88	3745.1	
294.09	3581.9	
294.29	4969.1	
294.5	5653.8	
294.71	4027	
294.92	3853.6	
295.13	5285.1	
295.34	6701.6	
295.55	3357.3	
295.76	3502	
295.97	5931.6	
296.18	6729.6	
296.39	3499.3	
296.6	3780.6	
296.81	5651	
297.01	5956.2	
297.22	3902.1	
297.43	3768.3	
297.64	5088.5	
297.85	5063.3	
298.06	3024.2	
298.27	3337.5	
298.48	5570.5	
298.69	5251	
298.9	4051.6	
299.11	3678.8	
299.31	4977.2	
299.52	5023	
299.73	4355.3	
299.94	4197	
300.15	5517.2	
300.36	5085.8	
300.57	4331.5	
300.78	4257	
300.99	5419.6	
301.2	5648.3	
301.4	3682.9	
301.61	4039.3	
301.82	5886.5	
302.03	6001.9	
302.24	4584.7	
302.45	3565.5	
302.66	5788.9	
302.87	6325.5	
303.08	3787.4	
303.29	5146.5	
303.49	5242.8	
303.7	5530.2	
303.91	3318.4	
304.12	4847.5	
304.33	5003.2	
304.54	5597.8	
304.75	3774.4	
304.96	3528	
305.16	5831.9	
305.37	6614.3	
305.58	3252.2	
305.79	3376.4	
306	5905	
306.21	4925.4	
306.42	3751.2	
306.63	5748	
306.83	5335.6	
307.04	6171.2	
307.25	4094.6	
307.46	4201.1	
307.67	4719.9	
307.88	6064	
308.09	3696.6	
308.29	3840.6	
308.5	5641.5	
308.71	6150.1	
308.92	4006.5	
309.13	3618.8	
309.34	5348.6	
309.55	5376.6	
309.75	4641.4	
309.96	4335.5	
310.17	5927.5	
310.38	5208	
310.59	4488.5	
310.8	3493.8	
311.01	5399.1	
311.21	5414.8	
311.42	3533.4	
311.63	3685	
311.84	5246.9	
312.05	5669.5	
312.26	4147.8	
312.46	4578.6	
312.67	5329.5	
312.88	5089.9	
313.09	3633.1	
313.3	3498.6	
313.51	6345.3	
313.71	6701.6	
313.92	3613.3	
314.13	3738.2	
314.34	5769.1	
314.55	5357.5	
314.76	4690.5	
314.96	4031.1	
315.17	5576.6	
315.38	5979.4	
315.59	3682.2	
315.8	3467.9	
316.01	6417.7	
316.21	6483.9	
316.42	3522.5	
316.63	3943	
316.84	5405.3	
317.05	6206	
317.26	4265.9	
317.46	3862.5	
317.67	5504.3	
317.88	5910.4	
318.09	4635.2	
318.3	3389.4	
318.5	5210.7	
318.71	5858.6	
318.92	5943.9	
319.13	4299.4	
319.34	6014.2	
319.54	6172.6	
319.75	3371	
319.96	3223.5	
320.17	5935	
320.38	6056.5	
320.58	3310.9	
320.79	3927.3	
321	6130.3	
321.21	6244.3	
321.42	3993.5	
321.62	3289.7	
321.83	5131.5	
322.04	5571.8	
322.25	3835.8	
322.46	3636.5	
322.66	5627.8	
322.87	5798.5	
323.08	4473.4	
323.29	3579.8	
323.5	6633.4	
323.7	5059.2	
323.91	4950.6	
324.12	4435.2	
324.33	5552.7	
324.53	5888.6	
324.74	4245.4	
324.95	4491.2	
325.16	4863.9	
325.37	5360.2	
325.57	3659	
325.78	3753.2	
325.99	5614.8	
326.2	5013.4	
326.4	5154.1	
326.61	3370.3	
326.82	5457.8	
327.03	5606	
327.24	5123.3	
327.44	4944.5	
327.65	5793	
327.86	4687.1	
328.07	4273.4	
328.27	3509.5	
328.48	6228.6	
328.69	5054.4	
328.9	5204.6	
329.1	3979.2	
329.31	5418.2	
329.52	6320.7	
329.73	3625.6	
329.93	4106.2	
330.14	5539.8	
330.35	5825.8	
330.56	5997.8	
330.76	4553.3	
330.97	5291.3	
331.18	5728.2	
331.39	4031.1	
331.59	3245.3	
331.8	6182.1	
332.01	6329.6	
332.22	3688.4	
332.42	4302.1	
332.63	5604.6	
332.84	5236	
333.05	4052.9	
333.25	3681.6	
333.46	5311.7	
333.67	5562.3	
333.88	3747.8	
334.08	4209.9	
334.29	7452.6	
334.5	6287.9	
334.7	3497.9	
334.91	5143.8	
335.12	5124.7	
335.33	5950	
335.53	4032.5	
335.74	6049.7	
335.95	5276.3	
336.16	5103.5	
336.36	3994.9	
336.57	4605.9	
336.78	4975.2	
336.98	6152.1	
337.19	5018.2	
337.4	3943.7	
337.61	6703.7	
337.81	5074.9	
338.02	3685.7	
338.23	4844.8	
338.43	6339.8	
338.64	5148.6	
338.85	3621.5	
339.05	4812	
339.26	6359.6	
339.47	4938.3	
339.68	3599	
339.88	5455.8	
340.09	5824.4	
340.3	5971.9	
340.5	4303.5	
340.71	3254.9	
340.92	4947.9	
341.13	6311.2	
341.33	3498.6	
341.54	4299.4	
341.75	5774.6	
341.95	5349.3	
342.16	4115.1	
342.37	4453	
342.57	5028.4	
342.78	5476.3	
342.99	4514.4	
343.19	3274	
343.4	5954.8	
343.61	5743.9	
343.81	3885.7	
344.02	3573.7	
344.23	5997.8	
344.43	6381.5	
344.64	4499.4	
344.85	4367	
345.06	5830.6	
345.26	6168.5	
345.47	4179.9	
345.68	4942.4	
345.88	4833.2	
346.09	6031.3	
346.3	4290.5	
346.5	3261.7	
346.71	5532.9	
346.92	5217.5	
347.12	3304.1	
347.33	4202.4	
347.54	6070.9	
347.74	6515.3	
347.95	4156	
348.16	3081.5	
348.36	5298.8	
348.57	5107	
348.78	4078.2	
348.98	4520.5	
349.19	5412.1	
349.39	4998.4	
349.6	3343	
349.81	3653.6	
350.01	5735	
350.22	5219.6	
350.43	3947.8	
350.63	4840	
350.84	5586.9	
351.05	5248.3	
351.25	3645.4	
351.46	3277.4	
351.67	6005.3	
351.87	5177.9	
352.08	3885.7	
352.29	4381.3	
352.49	6015.6	
352.7	5671.5	
352.9	3538.2	
353.11	4437.3	
353.32	6661.4	
353.52	5304.9	
353.73	3461.7	
353.94	4443.4	
354.14	5831.2	
354.35	5617.6	
354.55	3594.9	
354.76	4020.8	
354.97	5821	
355.17	5522.7	
355.38	3323.2	
355.59	4752.7	
355.79	5170.4	
356	5621	
356.2	3936.2	
356.41	3402.4	
356.62	4932.2	
356.82	5422.3	
357.03	4276.2	
357.24	3803.1	
357.44	5132.9	
357.65	5359.5	
357.85	5123.3	
358.06	3990.1	
358.27	4894	
358.47	5091.9	
358.68	3252.2	
358.88	4207.9	
359.09	5725.4	
359.3	6135	
359.5	4970.4	
359.71	4384.7	
359.91	6559.6	
360.12	5890.6	
360.33	4212	
360.53	4711.7	
360.74	5122.7	
360.94	5183.4	
361.15	4388.1	
361.36	3604.4	
361.56	5953.4	
361.77	5407.3	
361.97	4896	
362.18	3829	
362.38	5967.8	
362.59	4993.6	
362.8	3577.1	
363	3398.3	
363.21	4786.1	
363.41	5537.7	
363.62	4091.8	
363.83	5189.6	
364.03	5538.4	
364.24	6558.3	
364.44	5224.4	
364.65	5180	
364.85	5342.5	
365.06	4936.3	
365.27	3728	
365.47	3667.9	
365.68	6311.2	
365.88	5304.2	
366.09	4151.2	
366.29	3787.4	
366.5	5571.8	
366.71	5970.5	
366.91	5152.7	
367.12	4321.2	
367.32	6568.5	
367.53	5821.7	
367.73	4169.7	
367.94	5172.5	
368.14	5799.8	
368.35	6730.3	
368.56	4192.9	
368.76	3532.7	
368.97	5864.7	
369.17	7664.9	
369.38	3685	
369.58	3984	
369.79	4945.8	
369.99	6198.5	
370.2	4968.4	
370.4	4033.1	
370.61	5552	
370.82	6837.5	
371.02	3955.3	
371.23	3242.6	
371.43	4777.2	
371.64	6178.7	
371.84	3945.1	
372.05	5248.3	
372.25	7563.1	
372.46	5877.7	
372.66	3878.9	
372.87	3902.1	
373.07	5939.8	
373.28	7568.6	
373.48	5060.5	
373.69	4702.1	
373.9	5315.2	
374.1	5401.2	
374.31	4973.8	
374.51	4391.5	
374.72	6172.6	
374.92	5025	
375.13	4965	
375.33	4207.2	
375.54	5646.2	
375.74	5091.9	
375.95	4293.2	
376.15	5608.7	
376.36	5697.4	
376.56	5502.9	
376.77	4271.4	
376.97	4806.6	
377.18	6831.3	
377.38	5825.1	
377.59	5141.1	
377.79	3741	
378	5577.3	
378.2	5999.2	
378.41	3850.9	
378.61	3676.8	
378.82	6036.7	
379.02	5099.4	
379.23	3921.2	
379.43	5142.4	
379.64	6103.6	
379.84	5758.9	
380.05	3762.1	
380.25	3678.2	
380.46	5869.5	
380.66	5373.9	
380.87	5199.1	
381.07	5604.6	
381.28	6486.6	
381.48	5842.9	
381.69	3855.6	
381.89	3796.3	
382.1	4797.7	
382.3	6044.9	
382.51	5016.8	
382.71	5965.1	
382.91	5899.5	
383.12	6378.1	
383.32	4183.3	
383.53	4451.6	
383.73	5662	
383.94	5498.8	
384.14	4358.1	
384.35	3507.5	
384.55	5443.5	
384.76	5932.3	
384.96	4190.1	
385.17	4571.7	
385.37	5811.5	
385.58	5196.4	
385.78	4557.4	
385.98	3412.6	
386.19	5316.5	
386.39	5722	
386.6	3943	
386.8	4262.5	
387.01	5807.4	
387.21	5873.6	
387.42	4659.1	
387.62	5274.9	
387.83	5183.4	
388.03	5836.7	
388.23	4222.9	
388.44	5104.9	
388.64	4784.1	
388.85	4910.3	
389.05	4619.5	
389.26	5246.2	
389.46	6807.4	
389.67	6251.8	
389.87	4445.5	
390.07	4640.7	
390.28	5441.5	
390.48	4984.1	
390.69	3766.9	
390.89	4038.6	
391.1	5200.5	
391.3	6139.1	
391.5	5292	
391.71	5960.3	
391.91	5894.7	
392.12	6917.4	
392.32	5406.6	
392.53	4597.7	
392.73	5249.6	
392.93	5437.4	
393.14	4240	
393.34	5100.1	
393.55	6018.3	
393.75	5444.9	
393.95	4314.4	
394.16	4169.7	
394.36	5149.3	
394.57	5895.4	
394.77	3637.9	
394.98	4158.1	
395.18	5123.3	
395.38	5189.6	
395.59	4993.6	
395.79	3939.6	
396	5302.2	
396.2	5660.6	
396.4	4725.3	
396.61	4642.1	
396.81	5866.1	
397.02	5190.2	
397.22	5005.9	
397.42	5050.3	
397.63	5840.1	
397.83	5056.4	
398.04	3738.9	
398.24	4294.6	
398.44	5670.8	
398.65	4659.1	
398.85	3581.9	
399.05	3767.6	
399.26	4953.4	
399.46	6724.8	
399.67	4155.3	
399.87	3820.1	
400.07	5368.4	
400.28	5707.7	
400.48	3939.6	
400.69	5027.1	
400.89	6388.3	
401.09	6364.4	
401.3	3738.9	
401.5	5000.5	
401.7	6682.5	
401.91	6935.1	
402.11	4075.5	
402.32	4456.4	
402.52	5948.7	
402.72	5881.8	
402.93	4575.8	
403.13	3476.1	
403.33	6806.8	
403.54	5454.4	
403.74	4425.7	
403.94	5239.4	
404.15	5568.4	
404.35	6752.8	
404.56	4138.3	
404.76	6038.1	
404.96	5960.3	
405.17	5748	
405.37	5080.3	
405.57	4610	
405.78	5967.1	
405.98	5411.4	
406.18	4040.6	
406.39	5008.6	
406.59	5954.8	
406.79	5634	
407	3893.9	
407.2	3978.5	
407.4	5953.4	
407.61	6240.2	
407.81	3958	
408.01	6103.6	
408.22	4782	
408.42	6886	
408.62	4973.8	
408.83	4382.7	
409.03	5433.3	
409.23	5180	
409.44	4372.4	
409.64	4756.7	
409.84	6299.6	
410.05	6171.9	
410.25	4540.3	
410.45	4263.2	
410.66	5497.4	
410.86	8107.2	
411.06	4623.6	
411.27	4523.3	
411.47	7866.9	
411.67	5698.1	
411.88	4783.4	
412.08	4924.7	
412.28	6366.5	
412.49	6839.5	
412.69	4437.3	
412.89	4484.4	
413.09	6651.1	
413.3	6470.2	
413.5	4515.1	
413.7	4089.8	
413.91	5713.8	
414.11	6630	
414.31	4233.2	
414.52	4678.2	
414.72	6296.1	
414.92	6041.5	
415.12	4335.5	
415.33	4770.4	
415.53	6502.3	
415.73	6707.1	
415.94	5186.8	
416.14	4580.6	
416.34	5394.3	
416.55	5244.2	
416.75	5861.3	
416.95	5168.4	
417.15	6453.8	
417.36	7300.3	
417.56	6017.6	
417.76	4946.5	
417.97	6862.1	
418.17	6468.9	
418.37	4645.5	
418.57	4605.2	
418.78	6183.5	
418.98	5974.6	
419.18	5568.4	
419.38	5492.7	
419.59	5995.8	
419.79	5547.9	
419.99	4504.2	
420.2	4913.8	
420.4	6538.5	
420.6	6648.4	
420.8	4423.6	
421.01	4231.1	
421.21	6227.2	
421.41	6521.4	
421.61	4917.2	
421.82	4532.8	
422.02	5878.4	
422.22	6808.1	
422.42	5269.4	
422.63	5074.9	
422.83	5908.4	
423.03	7144.7	
423.23	5028.4	
423.44	3971.7	
423.64	6039.5	
423.84	5853.8	
424.04	4461.2	
424.25	4134.2	
424.45	7040.9	
424.65	6941.9	
424.85	3925.3	
425.06	4515.8	
425.26	6888	
425.46	5431.9	
425.66	5055.1	
425.87	4742.4	
426.07	6708.5	
426.27	6592.4	
426.47	4883	
426.67	4194.9	
426.88	7085.3	
427.08	6531.7	
427.28	5064.6	
427.48	4146.5	
427.69	5354.1	
427.89	6128.9	
428.09	5072.8	
428.29	4229.7	
428.5	6832.7	
428.7	6243.6	
428.9	4067.9	
429.1	4577.9	
429.3	6170.5	
429.51	6568.5	
429.71	4394.9	
429.91	5274.2	
430.11	6437.4	
430.31	6684.6	
430.52	4713.1	
430.72	4900.1	
430.92	7052.5	
431.12	6537.8	
431.32	4311	
431.53	4729.4	
431.73	5347.9	
431.93	7204.1	
432.13	4255	
432.33	4108.2	
432.54	5786.9	
432.74	6206.7	
432.94	4012.7	
433.14	5104.2	
433.34	6296.8	
433.55	5769.8	
433.75	5070.1	
433.95	6871.6	
434.15	6106.4	
434.35	5720.7	
434.56	4170.3	
434.76	3640.6	
434.96	6036.7	
435.16	6338.5	
435.36	4030.4	
435.56	5156.8	
435.77	5640.8	
435.97	5814.2	
436.17	5932.3	
436.37	5083.7	
436.57	5649.7	
436.78	5534.3	
436.98	5142.4	
437.18	5735.7	
437.38	6371.2	
437.58	5862	
437.78	5905.7	
437.99	4472.1	
438.19	6455.2	
438.39	7256.6	
438.59	4425.7	
438.79	3875.4	
438.99	7089.4	
439.2	5798.5	
439.4	4052.9	
439.6	3951.9	
439.8	6217	
440	7298.3	
440.2	4987.5	
440.4	5130.2	
440.61	6442.9	
440.81	7049.8	
441.01	4108.2	
441.21	5013.4	
441.41	6799.3	
441.61	6442.2	
441.81	5306.3	
442.02	6425.2	
442.22	7446.4	
442.42	6591.7	
442.62	4095.3	
442.82	4256.4	
443.02	6865.5	
443.22	5859.9	
443.43	4623.6	
443.63	4119.8	
443.83	5680.4	
444.03	5743.2	
444.23	5366.4	
444.43	5040.7	
444.63	6023.1	
444.83	7363.8	
445.04	4191.5	
445.24	5521.3	
445.44	6524.8	
445.64	6569.9	
445.84	5099.4	
446.04	5125.4	
446.24	5796.4	
446.44	6962.4	
446.65	4355.3	
446.85	4614.8	
447.05	6333	
447.25	6858	
447.45	4758.8	
447.65	4058.4	
447.85	6215.6	
448.05	5916.6	
448.25	5226.4	
448.46	4932.2	
448.66	6118	
448.86	5805.3	
449.06	3898.6	
449.26	5126.7	
449.46	6548	
449.66	5515.9	
449.86	4642.7	
450.06	4616.8	
450.26	5751.4	
450.47	6331.6	
450.67	4995.7	
450.87	5244.8	
451.07	6339.1	
451.27	6203.3	
451.47	4201.7	
451.67	4820.9	
451.87	5833.3	
452.07	7092.8	
452.27	4407.9	
452.47	4348.5	
452.67	6097.5	
452.88	6657.3	
453.08	3803.1	
453.28	5856.5	
453.48	7303.1	
453.68	6062	
453.88	4297.3	
454.08	4539.7	
454.28	6425.8	
454.48	6092.7	
454.68	5049.6	
454.88	5610.1	
455.08	6517.3	
455.28	6221.7	
455.48	4160.1	
455.68	4702.1	
455.89	6984.3	
456.09	6584.2	
456.29	4458.4	
456.49	4429.8	
456.69	6813.6	
456.89	6025.1	
457.09	4912.4	
457.29	5295.4	
457.49	6363.7	
457.69	6490	
457.89	4690.5	
458.09	4121.2	
458.29	5977.3	
458.49	6836.1	
458.69	5050.3	
458.89	4535.6	
459.09	7002.7	
459.29	7158.3	
459.49	4653	
459.69	5426.4	
459.9	6640.9	
460.1	5936.4	
460.3	4564.9	
460.5	4330.1	
460.7	6499.6	
460.9	6168.5	
461.1	3899.3	
461.3	5261.2	
461.5	7086.7	
461.7	6676.4	
461.9	4314.4	
462.1	4831.8	
462.3	6055.8	
462.5	6754.9	
462.7	4318.5	
462.9	4396.3	
463.1	7836.9	
463.3	7332.4	
463.5	4580.6	
463.7	5452.4	
463.9	6139.8	
464.1	6595.1	
464.3	4653	
464.5	4931.5	
464.7	6881.2	
464.9	6436.8	
465.1	6240.8	
465.3	5216.2	
465.5	7247.1	
465.7	7120.8	
465.9	5447.6	
466.1	5442.8	
466.3	6910.5	
466.5	6723.5	
466.7	6152.8	
466.9	5003.9	
467.1	6649.1	
467.3	7685.3	
467.5	6064	
467.7	4838.7	
467.9	7853.3	
468.1	8793.3	
468.3	5768.4	
468.5	6186.2	
468.7	6530.3	
468.9	6601.3	
469.1	5132.2	
469.3	5834	
469.5	8542.1	
469.7	6081.1	
469.9	5705	
470.1	4831.8	
470.3	6563.1	
470.5	6629.3	
470.7	6171.9	
470.9	4982	
471.1	6309.1	
471.3	6894.1	
471.5	4775.9	
471.69	6812.2	
471.89	6221	
472.09	5826.5	
472.29	5697.4	
472.49	6095.4	
472.69	5971.9	
472.89	6898.2	
473.09	4725.3	
473.29	4937.7	
473.49	6192.4	
473.69	6473.6	
473.89	5885.9	
474.09	5051	
474.29	7675.8	
474.49	7414.3	
474.69	5890	
474.89	5223.7	
475.09	6425.2	
475.29	6369.2	
475.49	4635.9	
475.69	4869.4	
475.88	8120.9	
476.08	6705.7	
476.28	4518.5	
476.48	5124	
476.68	7272.3	
476.88	7082.6	
477.08	4908.3	
477.28	5258.5	
477.48	6543.3	
477.68	7326.3	
477.88	4662.5	
478.08	4999.8	
478.28	7514.7	
478.48	6673.6	
478.67	5109.7	
478.87	4598.4	
479.07	7314	
479.27	6840.9	
479.47	5371.8	
479.67	5289.2	
479.87	7102.4	
480.07	7695.6	
480.27	4484.4	
480.47	6297.5	
480.67	6805.4	
480.87	7397.3	
481.06	4864.6	
481.26	5764.3	
481.46	6698.2	
481.66	6646.3	
481.86	5285.1	
482.06	6475	
482.26	6414.9	
482.46	7469.6	
482.66	5302.2	
482.86	4805.9	
483.05	6752.2	
483.25	6167.8	
483.45	7800	
483.65	5211.4	
483.85	6383.5	
484.05	6644.3	
484.25	5679.7	
484.45	6160.3	
484.65	7570	
484.84	7521.5	
485.04	5091.3	
485.24	5087.2	
485.44	7791.8	
485.64	5950	
485.84	4306.9	
486.04	5792.3	
486.24	6384.2	
486.44	6842.3	
486.63	4315.8	
486.83	5128.1	
487.03	6268.8	
487.23	6433.4	
487.43	4333.5	
487.63	6839.5	
487.83	6479.8	
488.02	7514.7	
488.22	5350	
488.42	6039.5	
488.62	7422.5	
488.82	6267.5	
489.02	5058.5	
489.22	5001.8	
489.41	7279.8	
489.61	6774.7	
489.81	4673.5	
490.01	4796.3	
490.21	7164.5	
490.41	7830.1	
490.61	4744.5	
490.8	4813.4	
491	6640.9	
491.2	6040.1	
491.4	5543.2	
491.6	4561.5	
491.8	6673	
491.99	6904.4	
492.19	4427	
492.39	4900.8	
492.59	7157.7	
492.79	7208.8	
492.99	5597.8	
493.18	4668.7	
493.38	7272.3	
493.58	7952.9	
493.78	5423.7	
493.98	4928.8	
494.18	6872.3	
494.37	6244.3	
494.57	5505.6	
494.77	5374.6	
494.97	7057.3	
495.17	7254.6	
495.37	4953.4	
495.56	5283.1	
495.76	7429.3	
495.96	7026.6	
496.16	6210.1	
496.36	5035.3	
496.55	7194.5	
496.75	6672.3	
496.95	5997.8	
497.15	5329.5	
497.35	7131.7	
497.54	7101.7	
497.74	5142.4	
497.94	6806.1	
498.14	7884.7	
498.34	7666.9	
498.53	4756.7	
498.73	5547.9	
498.93	6524.8	
499.13	7045	
499.33	5275.6	
499.52	5828.5	
499.72	6956.3	
499.92	7410.2	
500.12	4922	
500.32	5282.4	
500.51	7322.9	
500.71	7027.9	
500.91	6023.8	
501.11	5585.5	
501.31	7210.2	
501.5	7679.2	
501.7	6283.2	
501.9	5261.9	
502.1	7019.8	
502.29	7313.3	
502.49	5719.3	
502.69	6210.1	
502.89	7291.5	
503.09	7217.7	
503.28	4782	
503.48	4956.8	
503.68	6456.6	
503.88	6489.3	
504.07	5978	
504.27	5449.6	
504.47	6886.6	
504.67	7118.7	
504.86	5885.2	
505.06	5567.7	
505.26	6579.4	
505.46	8553.7	
505.65	5531.6	
505.85	5741.1	
506.05	6561.7	
506.25	7109.2	
506.44	4829.1	
506.64	5871.5	
506.84	6491.4	
507.04	7664.2	
507.23	5140.4	
507.43	5803.3	
507.63	8688.2	
507.83	6807.4	
508.02	5777.3	
508.22	5344.5	
508.42	8992.6	
508.62	6597.9	
508.81	5634.6	
509.01	6200.6	
509.21	6475.7	
509.4	6760.3	
509.6	5727.5	
509.8	5072.1	
510	6763.1	
510.19	8237.6	
510.39	5152.7	
510.59	5167	
510.79	6528.9	
510.98	7962.5	
511.18	5250.3	
511.38	5411.4	
511.57	7394.5	
511.77	7350.8	
511.97	6098.2	
512.17	5043.5	
512.36	7414.3	
512.56	7371.3	
512.76	5014.8	
512.95	4790.2	
513.15	7531.1	
513.35	6111.1	
513.55	5991.7	
513.74	5130.8	
513.94	7494.9	
514.14	6795.8	
514.33	6126.2	
514.53	5909.8	
514.73	6770.6	
514.92	6928.3	
515.12	5233.2	
515.32	5033.9	
515.51	7060	
515.71	7657.4	
515.91	6958.3	
516.11	5210	
516.3	8814.5	
516.5	6611.5	
516.7	5707	
516.89	6390.3	
517.09	6795.8	
517.29	6565.1	
517.48	6123.4	
517.68	5486.5	
517.88	6537.1	
518.07	7094.8	
518.27	5877.7	
518.47	4934.9	
518.66	7639.6	
518.86	6234.7	
519.06	4820.9	
519.25	5260.5	
519.45	6664.8	
519.65	8198	
519.84	5918.6	
520.04	6621.1	
520.24	8609	
520.43	7329	
520.63	5697.4	
520.83	5449	
521.02	6542.6	
521.22	7283.3	
521.42	5984.8	
521.61	6520.7	
521.81	6747.4	
522.01	6967.2	
522.2	5735	
522.4	5593.7	
522.6	7383.6	
522.79	6172.6	
522.99	5656.5	
523.18	4764.9	
523.38	7042.3	
523.58	7020.4	
523.77	6851.8	
523.97	4651.6	
524.17	8923	
524.36	8103.1	
524.56	6113.2	
524.76	5809.4	
524.95	6965.1	
525.15	6597.9	
525.34	5505.6	
525.54	5429.2	
525.74	7239.6	
525.93	6278.4	
526.13	6682.5	
526.33	5417.6	
526.52	7638.2	
526.72	7077.1	
526.91	6683.9	
527.11	5852.4	
527.31	7574.8	
527.5	8090.2	
527.7	5713.8	
527.89	4738.3	
528.09	6472.9	
528.29	7005.4	
528.48	6204	
528.68	5779.4	
528.87	7451.9	
529.07	7520.1	
529.27	5780.7	
529.46	5225.1	
529.66	7131.7	
529.85	7630.7	
530.05	5072.1	
530.25	6036.7	
530.44	8593.3	
530.64	7098.3	
530.83	5487.2	
531.03	5684.5	
531.23	7400.7	
531.42	7332.4	
531.62	6479.8	
531.81	5581.4	
532.01	7475.1	
532.21	7964.6	
532.4	5258.5	
532.6	5707	
532.79	8373.5	
532.99	7492.8	
533.18	5698.8	
533.38	6739.9	
533.58	7098.3	
533.77	7878.5	
533.97	5597.8	
534.16	6476.4	
534.36	8047.2	
534.55	7032.7	
534.75	6638.8	
534.95	5694.7	
535.14	7894.9	
535.34	7051.8	
535.53	5365	
535.73	7417.1	
535.92	8482.7	
536.12	7296.9	
536.31	5572.5	
536.51	6765.1	
536.71	7644.4	
536.9	7111.9	
537.1	5662.6	
537.29	5791.7	
537.49	8056.7	
537.68	6993.1	
537.88	6152.1	
538.07	5411.4	
538.27	7230.7	
538.46	8319.5	
538.66	5216.9	
538.86	5677	
539.05	7253.9	
539.25	7818.5	
539.44	6047	
539.64	5674.2	
539.83	7146	
540.03	8295	
540.22	5488.6	
540.42	5679.7	
540.61	7539.3	
540.81	7623.2	
541	6128.9	
541.2	6806.1	
541.39	7037.5	
541.59	7440.3	
541.78	6427.9	
541.98	5602.6	
542.18	6688	
542.37	6694.1	
542.57	6036.7	
542.76	6567.8	
542.96	6788.3	
543.15	7593.9	
543.35	6077.7	
543.54	5350	
543.74	7989.8	
543.93	7476.5	
544.13	6096.1	
544.32	7210.9	
544.52	7839.6	
544.71	6954.9	
544.91	5184.8	
545.1	6487.3	
545.3	6972	
545.49	7776.8	
545.69	5152.7	
545.88	5756.2	
546.08	8776.2	
546.27	8251.3	
546.47	6370.5	
546.66	5549.3	
546.86	8004.1	
547.05	8689.5	
547.24	5817.6	
547.44	5664.7	
547.63	6870.3	
547.83	8178.9	
548.02	6066.8	
548.22	6320.7	
548.41	6739.9	
548.61	8161.8	
548.8	5578	
549	5572.5	
549.19	7431.4	
549.39	7799.3	
549.58	5286.5	
549.78	5958.9	
549.97	7848.5	
550.17	7369.3	
550.36	6860.7	
550.55	7867.6	
550.75	7398.6	
550.94	8362.5	
551.14	5565.7	
551.33	6017.6	
551.53	6696.9	
551.72	7705.8	
551.92	6054.5	
552.11	5768.4	
552.31	7825.3	
552.5	7839.6	
552.69	7625.3	
552.89	5380	
553.08	7734.5	
553.28	7321.5	
553.47	5824.4	
553.67	7120.1	
553.86	8513.4	
554.06	6741.9	
554.25	5065.3	
554.44	5687.2	
554.64	9268.4	
554.83	8774.9	
555.03	5583.4	
555.22	6051.7	
555.42	7961.8	
555.61	7731.8	
555.8	5811.5	
556	6238.1	
556.19	6737.1	
556.39	8256.7	
556.58	5901.6	
556.78	5838.1	
556.97	7603.4	
557.16	7260.7	
557.36	7206.1	
557.55	5490.6	
557.75	6528.2	
557.94	8397.4	
558.13	5640.1	
558.33	5430.5	
558.52	8198	
558.72	6972.7	
558.91	5547.3	
559.1	5832.6	
559.3	6782.9	
559.49	6417	
559.69	5048.2	
559.88	6171.9	
560.07	7593.2	
560.27	8040.3	
560.46	6310.5	
560.66	6503	
560.85	7366.5	
561.04	6606.1	
561.24	5522	
561.43	5761.6	
561.63	6734.4	
561.82	7093.5	
562.01	7053.2	
562.21	6055.8	
562.4	7585	
562.59	8578.3	
562.79	5928.2	
562.98	5430.5	
563.18	7468.3	
563.37	8985.8	
563.56	6390.3	
563.76	5392.3	
563.95	6901.7	
564.14	6790.4	
564.34	5819.6	
564.53	5620.3	
564.73	7531.1	
564.92	7806.9	
565.11	5967.1	
565.31	5292	
565.5	8084	
565.69	6997.2	
565.89	5561.6	
566.08	5909.1	
566.27	7894.9	
566.47	8335.2	
566.66	6470.2	
566.85	5092.6	
567.05	7536.5	
567.24	6838.9	
567.44	5436.7	
567.63	6937.8	
567.82	7770.7	
568.02	7526.3	
568.21	5488.6	
568.4	5950	
568.6	7320.8	
568.79	7264.1	
568.98	5302.9	
569.18	5487.9	
569.37	7251.2	
569.56	9381.1	
569.76	5735	
569.95	6864.8	
570.14	7754.3	
570.34	7673.1	
570.53	5386.2	
570.72	5270.1	
570.91	8151.6	
571.11	7258	
571.3	5839.4	
571.49	6827.9	
571.69	7256	
571.88	6881.2	
572.07	6394.4	
572.27	6453.8	
572.46	6864.1	
572.65	7954.3	
572.85	5529.5	
573.04	5909.8	
573.23	8125.7	
573.43	7382.9	
573.62	5190.2	
573.81	5988.9	
574	7357.7	
574.2	7228	
574.39	5603.2	
574.58	5857.9	
574.78	8199.4	
574.97	7427.3	
575.16	6180.8	
575.36	6393.8	
575.55	7771.4	
575.74	7996.6	
575.93	5246.2	
576.13	6370.5	
576.32	7225.9	
576.51	7806.9	
576.71	5679	
576.9	7135.1	
577.09	8181	
577.28	7688.1	
577.48	6199.2	
577.67	5150.6	
577.86	7249.8	
578.05	7563.8	
578.25	5834	
578.44	5972.6	
578.63	7430.7	
578.83	8578.9	
579.02	5184.1	
579.21	6870.9	
579.4	7616.4	
579.6	7271	
579.79	6077	
579.98	8335.9	
580.17	7970	
580.37	7995.3	
580.56	5465.3	
580.75	6220.4	
580.94	8542.1	
581.14	8307.2	
581.33	6708.5	
581.52	5577.3	
581.71	7765.2	
581.91	8452.6	
582.1	5236	
582.29	5927.5	
582.48	7359	
582.68	7269.6	
582.87	6412.9	
583.06	6019.7	
583.25	7733.1	
583.45	7460.8	
583.64	6612.2	
583.83	7481.2	
584.02	7273	
584.21	7686.7	
584.41	6653.9	
584.6	5877.7	
584.79	7415	
584.98	8201.4	
585.18	5375.9	
585.37	5348.6	
585.56	6939.2	
585.75	7743.4	
585.94	5602.6	
586.14	6404	
586.33	8406.9	
586.52	7345.4	
586.71	6189.6	
586.91	5937.7	
587.1	6825.2	
587.29	7953.6	
587.48	5960.3	
587.67	5668.8	
587.87	7778.2	
588.06	7878.5	
588.25	7152.9	
588.44	6412.2	
588.63	7499	
588.83	8176.9	
589.02	5972.6	
589.21	5907	
589.4	7397.3	
589.59	7167.9	
589.78	5213.4	
589.98	5461.2	
590.17	6969.9	
590.36	7495.6	
590.55	4928.8	
590.74	5861.3	
590.94	8981.7	
591.13	7426.6	
591.32	5487.9	
591.51	5052.3	
591.7	7903.1	
591.89	7350.8	
592.09	5150	
592.28	5666.7	
592.47	6568.5	
592.66	8497	
592.85	5174.5	
593.05	5433.9	
593.24	7164.5	
593.43	7988.4	
593.62	5416.9	
593.81	5988.9	
594	7163.8	
594.19	7414.3	
594.39	5428.5	
594.58	5294.7	
594.77	7617.8	
594.96	8226	
595.15	5245.5	
595.34	5984.8	
595.54	7714.7	
595.73	6632.7	
595.92	4663.9	
596.11	5940.5	
596.3	8099	
596.49	6854.6	
596.68	5597.8	
596.88	6164.4	
597.07	7901.7	
597.26	6552.1	
597.45	5107	
597.64	6388.3	
597.83	6935.8	
598.02	7486.7	
598.22	5227.8	
598.41	6004	
598.6	7293.5	
598.79	6727.6	
598.98	5314.5	
599.17	6294.1	
599.36	7320.1	
599.55	8637.6	
599.74	7411.6	
599.94	7074.4	
600.13	7889.5	
600.32	6718	
600.51	4987.5	
600.7	5178.6	
600.89	8626	
601.08	8663.6	
601.27	4910.3	
601.47	6017.6	
601.66	7888.8	
601.85	8603.5	
602.04	5698.8	
602.23	5746.6	
602.42	6825.9	
602.61	7503.8	
602.8	5580.7	
602.99	5349.3	
603.18	7201.3	
603.37	7465.5	
603.57	5979.4	
603.76	6503.7	
603.95	8254	
604.14	7718.1	
604.33	5423	
604.52	5813.5	
604.71	7390.4	
604.9	7046.4	
605.09	6395.1	
605.28	6215.6	
605.47	8011.7	
605.66	7782.3	
605.86	6046.3	
606.05	5464.7	
606.24	8044.4	
606.43	6581.5	
606.62	5758.9	
606.81	6565.1	
607	7939.3	
607.19	7178.1	
607.38	5257.8	
607.57	5464.7	
607.76	6941.2	
607.95	6436.1	
608.14	5866.7	
608.33	6488	
608.52	6954.2	
608.72	7920.2	
608.91	5104.9	
609.1	5001.8	
609.29	7165.2	
609.48	6551.5	
609.67	6090	
609.86	5131.5	
610.05	6642.2	
610.24	7025.2	
610.43	4952.7	
610.62	4628.4	
610.81	8248.5	
611	7968	
611.19	5083.1	
611.38	5877.7	
611.57	7297.6	
611.76	8767.4	
611.95	4899.4	
612.14	4790.2	
612.33	7221.8	
612.52	6597.9	
612.71	5533.6	
612.9	4671.4	
613.09	6257.2	
613.28	8690.9	
613.47	5302.2	
613.66	6162.3	
613.85	7283.9	
614.04	6844.3	
614.24	5347.9	
614.43	4490.5	
614.62	7542.7	
614.81	7352.9	
615	5906.3	
615.19	5994.4	
615.38	6686.6	
615.57	6982.9	
615.76	5748.6	
615.95	6744	
616.14	7421.8	
616.33	7101	
616.52	6028.5	
616.71	6253.8	
616.9	7391.8	
617.09	7238.9	
617.28	5378.6	
617.47	6935.8	
617.66	6471.6	
617.85	6457.9	
618.04	6354.2	
618.22	5706.3	
618.41	6772.6	
618.6	7668.3	
618.79	5586.9	
618.98	5273.5	
619.17	8061.5	
619.36	6307.1	
619.55	5421	
619.74	5439.4	
619.93	7357.7	
620.12	6678.4	
620.31	6086.6	
620.5	6195.8	
620.69	7834.2	
620.88	8222.6	
621.07	6941.9	
621.26	5882.4	
621.45	7489.4	
621.64	7484	
621.83	6034.7	
622.02	5155.4	
622.21	7471	
622.4	7150.1	
622.59	6584.2	
622.78	6281.8	
622.97	6742.6	
623.16	7792.5	
623.35	5945.3	
623.54	4947.2	
623.72	6972.7	
623.91	7157	
624.1	6178	
624.29	4807.3	
624.48	8279.3	
624.67	7461.4	
624.86	6129.6	
625.05	5111	
625.24	8331.1	
625.43	6649.1	
625.62	7961.1	
625.81	5254.4	
626	7809.6	
626.19	6990.4	
626.38	6164.4	
626.56	5565	
626.75	6860	
626.94	7608.2	
627.13	6213.5	
627.32	4863.9	
627.51	7500.3	
627.7	8948.3	
627.89	5016.8	
628.08	6126.8	
628.27	6670.2	
628.46	6964.5	
628.65	5300.8	
628.83	4927.4	
629.02	7537.2	
629.21	6755.6	
629.4	5739.8	
629.59	5973.9	
629.78	6800.6	
629.97	7800	
630.16	6034.7	
630.35	5418.2	
630.54	8117.5	
630.72	7927.7	
630.91	5362.9	
631.1	6066.8	
631.29	7291.5	
631.48	7532.4	
631.67	6150.1	
631.86	5550	
632.05	6907.1	
632.24	7004.1	
632.42	5210	
632.61	5874.3	
632.8	7110.5	
632.99	6651.1	
633.18	5804.6	
633.37	6298.9	
633.56	7303.7	
633.75	7089.4	
633.93	5849	
634.12	5414.1	
634.31	8118.1	
634.5	7695.6	
634.69	5529.5	
634.88	5989.6	
635.07	7070.3	
635.25	7700.4	
635.44	6543.9	
635.63	6714.6	
635.82	6929.6	
636.01	6397.2	
636.2	6451.8	
636.39	5941.8	
636.57	8196	
636.76	7812.3	
636.95	5378	
637.14	6877.8	
637.33	7424.6	
637.52	8500.4	
637.7	5107	
637.89	6176	
638.08	6961.7	
638.27	8679.3	
638.46	6216.3	
638.65	6767.2	
638.83	8523	
639.02	6851.1	
639.21	6152.1	
639.4	6657.3	
639.59	7363.1	
639.78	6917.4	
639.96	5415.5	
640.15	5403.2	
640.34	7141.9	
640.53	7363.8	
640.72	5086.5	
640.91	5490.6	
641.09	6647	
641.28	8047.8	
641.47	5420.3	
641.66	6322.1	
641.85	7349.5	
642.03	7653.3	
642.22	6217	
642.41	5660.6	
642.6	6778.1	
642.79	6151.4	
642.97	5404.6	
643.16	6131.6	
643.35	6751.5	
643.54	6547.4	
643.73	5265.3	
643.91	6159.6	
644.1	6451.8	
644.29	7148.8	
644.48	5451.7	
644.67	5537.7	
644.85	6718	
645.04	7017	
645.23	5098.8	
645.42	5330.2	
645.6	6610.8	
645.79	7834.8	
645.98	5358.9	
646.17	4423.6	
646.36	6343.2	
646.54	7111.9	
646.73	6368.5	
646.92	5006.6	
647.11	6677.1	
647.29	7821.9	
647.48	5139	
647.67	4863.2	
647.86	8091.5	
648.05	8062.9	
648.23	5528.2	
648.42	6890	
648.61	7434.1	
648.8	7084.6	
648.98	5139	
649.17	5418.9	
649.36	6606.1	
649.55	6073.6	
649.73	5107.6	
649.92	6010.1	
650.11	6567.8	
650.3	6836.1	
650.48	5319.3	
650.67	5082.4	
650.86	7174.7	
651.05	6094.8	
651.23	5307.7	
651.42	5218.9	
651.61	6683.9	
651.79	6774.7	
651.98	5481.7	
652.17	5046.2	
652.36	7135.1	
652.54	6162.3	
652.73	5141.1	
652.92	4952.7	
653.11	7230.7	
653.29	7208.8	
653.48	4453	
653.67	5495.4	
653.85	6941.9	
654.04	8157.1	
654.23	5740.5	
654.42	5337.7	
654.6	6534.4	
654.79	7272.3	
654.98	4743.8	
655.16	5375.9	
655.35	6158.2	
655.54	6083.8	
655.73	4827.7	
655.91	4745.1	
656.1	7256.6	
656.29	6014.9	
656.47	4277.5	
656.66	6105	
656.85	6313.9	
657.03	6322.8	
657.22	4883.7	
657.41	4975.9	
657.59	6407.4	
657.78	6217	
657.97	4523.3	
658.16	5393	
658.34	7069.6	
658.53	7466.9	
658.72	6165.1	
658.9	6799.9	
659.09	6483.2	
659.28	6600.6	
659.46	4990.9	
659.65	4945.8	
659.84	6232	
660.02	6780.8	
660.21	4842.8	
660.4	4731.5	
660.58	7302.4	
660.77	6660	
660.96	5480.4	
661.14	4455	
661.33	7857.4	
661.52	7776.1	
661.7	4349.9	
661.89	8363.9	
662.08	6283.9	
662.26	5808	
662.45	4718.5	
662.64	4901.5	
662.82	6950.1	
663.01	6085.2	
663.2	4881.7	
663.38	5690.6	
663.57	6894.8	
663.75	6692.1	
663.94	5223.7	
664.13	6616.3	
664.31	6214.2	
664.5	7000	
664.69	5401.2	
664.87	6102.3	
665.06	5952.8	
665.25	6765.8	
665.43	6335.7	
665.62	6442.9	
665.8	7114	
665.99	6440.9	
666.18	5223	
666.36	5400.5	
666.55	7058.7	
666.74	7013.6	
666.92	4800.4	
667.11	6610.2	
667.29	6397.2	
667.48	7027.9	
667.67	6166.4	
667.85	5160.9	
668.04	6527.6	
668.22	6358.3	
668.41	5296	
668.6	5534.3	
668.78	6217.6	
668.97	6452.5	
669.15	5694	
669.34	4534.9	
669.53	6178	
669.71	6593.8	
669.9	4839.4	
670.08	5494	
670.27	6268.1	
670.46	6879.8	
670.64	5728.2	
670.83	6004.6	
671.01	6113.9	
671.2	6804	
671.38	4810.7	
671.57	4696.7	
671.76	7411.6	
671.94	7961.1	
672.13	4659.8	
672.31	5889.3	
672.5	6948.8	
672.69	6220.4	
672.87	4863.2	
673.06	5205.9	
673.24	6776.7	
673.43	6299.6	
673.61	5759.6	
673.8	5171.8	
673.98	7068.9	
674.17	7199.3	
674.36	5760.3	
674.54	5637.4	
674.73	6751.5	
674.91	6963.1	
675.1	5395.7	
675.28	5044.1	
675.47	6571.9	
675.65	7113.3	
675.84	5158.2	
676.03	5565.7	
676.21	6247	
676.4	5709.7	
676.58	6115.9	
676.77	5814.9	
676.95	7849.9	
677.14	6220.4	
677.32	4871.4	
677.51	4632.5	
677.69	7046.4	
677.88	5854.5	
678.06	4625	
678.25	4872.8	
678.44	6554.2	
678.62	6210.1	
678.81	4549.9	
678.99	5623.7	
679.18	7382.2	
679.36	7002	
679.55	5134.9	
679.73	5843.5	
679.92	6921.5	
680.1	6242.9	
680.29	6494.8	
680.47	5141.8	
680.66	6223.1	
680.84	7118.7	
681.03	4448.9	
681.21	5735	
681.4	6244.3	
681.58	6061.3	
681.77	4953.4	
681.95	4882.4	
682.14	7132.4	
682.32	7514	
682.51	5862.7	
682.69	4603.8	
682.88	6193.7	
683.06	7034.8	
683.25	5522.7	
683.43	6081.1	
683.62	6535.8	
683.8	6977.4	
683.99	6190.3	
684.17	5458.5	
684.36	8001.4	
684.54	6504.3	
684.73	4691.2	
684.91	4876.9	
685.1	6933.1	
685.28	6331	
685.46	5485.8	
685.65	5584.8	
685.83	7208.8	
686.02	6470.9	
686.2	4943.1	
686.39	5085.8	
686.57	6117.3	
686.76	7756.3	
686.94	4937	
687.13	5085.8	
687.31	7010.2	
687.5	6367.1	
687.68	4485.1	
687.86	5943.9	
688.05	8217.1	
688.23	5935	
688.42	5892.7	
688.6	4978.6	
688.79	6294.8	
688.97	6309.1	
689.16	5423.7	
689.34	4309.6	
689.52	7172.7	
689.71	7267.6	
689.89	5700.2	
690.08	4949.3	
690.26	6708.5	
690.45	6505	
690.63	5905.7	
690.81	5113.1	
691	6361.7	
691.18	6315.3	
691.37	5376.6	
691.55	7744.1	
691.74	6257.9	
691.92	8403.5	
692.1	5331.5	
692.29	4691.9	
692.47	6503.7	
692.66	5746.6	
692.84	4937.7	
693.02	5472.9	
693.21	5886.5	
693.39	6411.5	
693.58	5640.1	
693.76	5009.3	
693.94	7672.4	
694.13	7453.9	
694.31	4894.6	
694.5	6043.6	
694.68	6161.7	
694.86	6446.3	
695.05	5365.7	
695.23	5698.8	
695.42	6926.2	
695.6	9432.9	
695.78	6006	
695.97	5011.4	
696.15	6945.3	
696.34	6397.2	
696.52	4799.1	
696.7	5656.5	
696.89	6723.5	
697.07	6113.9	
697.25	5633.3	
697.44	7208.2	
697.62	6660	
697.81	7078.5	
697.99	5349.3	
698.17	5827.8	
698.36	6056.5	
698.54	6741.2	
698.72	5655.1	
698.91	4558.1	
699.09	6285.9	
699.28	6173.3	
699.46	5408	
699.64	5201.2	
699.83	6073.6	
700.01	7464.8	
700.19	5975.3	
700.38	4341.7	
700.56	7288	
700.74	6217	
700.93	4837.3	
701.11	5651	
701.29	6798.6	
701.48	7875.8	
701.66	4949.3	
701.84	5050.3	
702.03	6281.1	
702.21	7027.3	
702.39	4557.4	
702.58	5184.1	
702.76	6728.9	
702.94	6870.3	
703.13	4604.5	
703.31	7137.9	
703.49	6055.2	
703.68	7664.2	
703.86	4717.8	
704.04	5857.9	
704.23	6651.8	
704.41	7006.8	
704.59	4888.5	
704.78	6252.4	
704.96	7684.7	
705.14	6892.1	
705.33	4732.9	
705.51	5659.9	
705.69	6374.6	
705.87	7305.8	
706.06	5928.2	
706.24	4667.3	
706.42	6746.7	
706.61	7037.5	
706.79	5902.9	
706.97	4669.4	
707.16	6152.1	
707.34	6820.4	
707.52	5884.5	
707.7	4913.1	
707.89	6293.4	
708.07	6053.8	
708.25	5926.8	
708.44	6078.4	
708.62	6242.9	
708.8	7444.4	
708.98	6131.6	
709.17	5057.8	
709.35	6692.8	
709.53	6710.5	
709.72	4689.2	
709.9	5311.7	
710.08	6989.7	
710.26	7111.9	
710.45	6472.3	
710.63	5079.6	
710.81	6613.6	
710.99	6721.4	
711.18	5755.5	
711.36	5253	
711.54	6457.2	
711.72	7286	
711.91	5377.3	
712.09	4810	
712.27	6693.4	
712.45	7303.7	
712.64	5698.1	
712.82	4556	
713	6165.1	
713.18	6276.3	
713.37	4739.7	
713.55	6075	
713.73	7374.7	
713.91	5860.6	
714.1	5304.2	
714.28	4759.5	
714.46	7109.9	
714.64	6284.5	
714.83	4205.8	
715.01	5157.5	
715.19	6366.5	
715.37	5727.5	
715.55	4791.6	
715.74	5163.6	
715.92	7311.9	
716.1	5227.8	
716.28	6340.5	
716.47	5366.4	
716.65	5939.1	
716.83	6124.1	
717.01	5223.7	
717.19	5221.6	
717.38	8267.6	
717.56	5584.8	
717.74	5375.2	
717.92	4412	
718.1	7007.5	
718.29	6148.7	
718.47	4052.9	
718.65	4646.2	
718.83	6767.9	
719.01	6661.4	
719.2	3816.7	
719.38	5066.7	
719.56	6406.7	
719.74	8067.6	
719.92	4622.3	
720.11	5789.6	
720.29	6520	
720.47	5578	
720.65	4170.3	
720.83	5154.1	
721.02	6019.7	
721.2	5728.9	
721.38	5199.1	
721.56	4396.3	
721.74	5196.4	
721.92	5429.8	
722.11	5764.3	
722.29	5410.1	
722.47	6765.1	
722.65	5973.9	
722.83	4481.6	
723.01	5463.3	
723.2	5970.5	
723.38	6279.1	
723.56	3805.1	
723.74	5060.5	
723.92	5444.2	
724.1	6639.5	
724.29	4363.5	
724.47	5649.7	
724.65	5532.2	
724.83	5450.3	
725.01	4214.7	
725.19	5177.9	
725.37	5492	
725.56	5597.8	
725.74	4089.8	
725.92	4356	
726.1	5371.8	
726.28	5682.4	
726.46	4824.3	
726.64	4541.7	
726.83	5678.3	
727.01	6075.6	
727.19	4029.7	
727.37	4965.6	
727.55	5843.5	
727.73	6311.2	
727.91	4023.6	
728.09	3836.5	
728.28	6429.3	
728.46	7044.3	
728.64	5072.1	
728.82	5025	
729	7532.4	
729.18	6701	
729.36	4134.2	
729.54	6688.7	
729.72	7799.3	
729.91	5934.3	
730.09	6173.3	
730.27	4817.5	
730.45	5750.7	
730.63	6438.1	
730.81	5435.3	
730.99	4418.8	
731.17	7043	
731.35	5506.3	
731.53	4959.5	
731.71	4562.9	
731.9	6764.4	
732.08	7045.7	
732.26	4839.4	
732.44	4552	
732.62	7052.5	
732.8	6468.2	
732.98	5380	
733.16	4240	
733.34	6401.3	
733.52	5165.7	
733.7	4803.9	
733.88	5212.1	
734.07	6281.8	
734.25	5965.1	
734.43	4194.9	
734.61	5965.7	
734.79	7536.5	
734.97	5870.8	
735.15	4459.8	
735.33	4760.8	
735.51	6229.9	
735.69	5867.4	
735.87	6014.9	
736.05	5059.2	
736.23	6096.1	
736.41	5876.3	
736.59	4718.5	
736.77	4947.2	
736.95	6514.6	
737.13	5945.9	
737.32	4449.6	
737.5	4632.5	
737.68	7210.2	
737.86	5853.1	
738.04	4207.2	
738.22	6244.9	
738.4	5640.8	
738.58	5949.3	
738.76	4933.6	
738.94	3779.2	
739.12	5726.1	
739.3	5618.9	
739.48	5547.3	
739.66	5218.2	
739.84	6040.1	
740.02	6020.3	
740.2	3872.7	
740.38	4263.9	
740.56	6456.6	
740.74	5189.6	
740.92	5007.3	
741.1	4926	
741.28	5844.2	
741.46	5625.8	
741.64	4433.2	
741.82	5070.1	
742	5868.1	
742.18	5829.2	
742.36	4786.8	
742.54	4248.9	
742.72	6439.5	
742.9	5186.1	
743.08	5158.8	
743.26	3894.6	
743.44	6678.4	
743.62	6501.6	
743.8	5268.7	
743.98	4306.2	
744.16	6260	
744.34	5948.7	
744.52	5222.3	
744.7	5129.5	
744.88	6405.4	
745.06	5886.5	
745.24	5304.9	
745.42	5388.9	
745.6	6456.6	
745.78	6285.2	
745.96	4005.1	
746.14	4376.5	
746.32	7301	
746.5	6457.9	
746.68	4981.3	
746.86	4418.2	
747.03	6955.6	
747.21	5195.7	
747.39	4948.6	
747.57	4463.2	
747.75	6171.9	
747.93	6540.5	
748.11	4435.2	
748.29	4359.4	
748.47	7792.5	
748.65	5767.8	
748.83	5182.7	
749.01	4902.8	
749.19	6245.6	
749.37	5410.7	
749.55	4642.7	
749.73	4718.5	
749.91	5909.1	
750.09	5643.5	
750.26	4841.4	
750.44	4268	
750.62	5982.8	
750.8	5949.3	
750.98	4020.2	
751.16	4479.6	
751.34	5996.5	
751.52	5299.5	
751.7	5262.6	
751.88	4071.4	
752.06	6561	
752.24	6326.2	
752.42	3979.9	
752.59	4426.3	
752.77	5926.1	
752.95	7262.1	
753.13	5186.8	
753.31	4535.6	
753.49	5528.2	
753.67	6091.3	
753.85	4894	
754.03	4418.8	
754.21	6383.5	
754.38	6752.8	
754.56	4681	
754.74	3616	
754.92	5715.9	
755.1	6376.7	
755.28	3776.5	
755.46	3842	
755.64	7365.2	
755.82	7626.6	
755.99	4257.7	
756.17	4428.4	
756.35	4910.3	
756.53	6691.4	
756.71	3252.9	
756.89	4241.3	
757.07	6179.4	
757.25	5194.3	
757.42	4808.6	
757.6	5683.8	
757.78	6161.7	
757.96	4997	
758.14	4365.6	
758.32	3822.2	
758.5	4648.9	
758.67	5490.6	
758.85	4194.2	
759.03	4424.3	
759.21	5737.7	
759.39	5125.4	
759.57	3719.8	
759.75	5038	
759.92	6311.2	
760.1	5553.4	
760.28	5370.5	
760.46	5626.5	
760.64	5289.9	
760.82	5051.7	
760.99	5126.7	
761.17	4239.3	
761.35	6170.5	
761.53	5052.3	
761.71	4300.7	
761.89	5018.9	
762.06	6057.9	
762.24	5416.2	
762.42	4361.5	
762.6	4178.5	
762.78	5494	
762.96	6244.3	
763.13	4742.4	
763.31	4471.4	
763.49	6311.2	
763.67	5400.5	
763.85	5330.2	
764.02	5931.6	
764.2	6521.4	
764.38	5724.8	
764.56	4296.6	
764.74	5306.3	
764.91	6675.7	
765.09	5509.7	
765.27	3928.7	
765.45	3794.2	
765.63	6777.4	
765.8	6645	
765.98	3473.4	
766.16	3877.5	
766.34	5141.1	
766.52	4902.2	
766.69	4927.4	
766.87	3714.3	
767.05	5511.8	
767.23	6273.6	
767.41	3962.8	
767.58	4275.5	
767.76	6132.3	
767.94	6200.6	
768.12	4106.2	
768.29	5025	
768.47	5631.9	
768.65	6361	
768.83	3760.8	
769	5016.2	
769.18	5143.1	
769.36	5922	
769.54	4971.8	
769.72	3814.7	
769.89	6214.2	
770.07	6389.7	
770.25	4173.1	
770.43	5584.8	
770.6	7077.8	
770.78	7583.6	
770.96	4403.1	
771.14	5079.6	
771.31	6125.5	
771.49	5427.1	
771.67	3471.3	
771.85	3777.1	
772.02	4677.6	
772.2	5511.8	
772.38	4603.8	
772.55	4036.5	
772.73	5819.6	
772.91	5572.5	
773.09	4470	
773.26	4560.1	
773.44	5748	
773.62	5386.8	
773.8	3912.3	
773.97	3646.7	
774.15	5890.6	
774.33	5421	
774.5	3867.2	
774.68	4214.7	
774.86	6081.1	
775.04	5496.7	
775.21	3908.2	
775.39	3941	
775.57	5796.4	
775.74	6214.2	
775.92	3826.3	
776.1	3691.8	
776.27	5795.8	
776.45	7095.5	
776.63	3997	
776.81	3426.3	
776.98	5451	
777.16	6598.6	
777.34	4127.3	
777.51	4526.7	
777.69	5416.2	
777.87	5165	
778.04	4065.2	
778.22	4847.5	
778.4	5192.3	
778.57	5907.7	
778.75	3439.2	
778.93	3704.1	
779.1	4980.7	
779.28	4882.4	
779.46	3426.9	
779.64	3916.4	
779.81	6070.9	
779.99	7079.1	
780.17	4883	
780.34	5020.3	
780.52	5491.3	
780.69	5756.2	
780.87	4408.6	
781.05	3893.9	
781.22	5606.7	
781.4	5654.4	
781.58	4055	
781.75	3105.4	
781.93	5651.7	
782.11	5065.3	
782.28	4988.2	
782.46	3986	
782.64	4880.3	
782.81	5765.7	
782.99	4153.3	
783.17	4117.8	
783.34	5773.2	
783.52	4852.3	
783.69	4401.8	
783.87	5246.2	
784.05	4973.2	
784.22	4975.2	
784.4	5173.2	
784.58	4427.7	
784.75	6019.7	
784.93	5018.9	
785.1	4109.6	
785.28	4795.7	
785.46	5754.1	
785.63	4974.5	
785.81	4056.3	
785.99	3885.7	
786.16	5242.1	
786.34	5630.5	
786.51	3953.9	
786.69	4351.9	
786.87	4853	
787.04	5348.6	
787.22	3810.6	
787.39	4875.5	
787.57	5057.1	
787.75	6213.5	
787.92	5020.3	
788.1	4960.9	
788.27	5098.8	
788.45	4883.7	
788.63	4644.1	
788.8	3261	
788.98	5575.9	
789.15	4735.6	
789.33	3480.9	
789.5	4139.6	
789.68	6051.7	
789.86	6155.5	
790.03	4575.2	
790.21	3989.4	
790.38	6067.4	
790.56	5187.5	
790.73	3797.6	
790.91	3913.7	
791.09	5114.5	
791.26	5954.8	
791.44	4085	
791.61	3523.9	
791.79	5066	
791.96	5141.8	
792.14	3624.2	
792.32	3183.9	
792.49	5113.1	
792.67	5189.6	
792.84	3743	
793.02	3540.3	
793.19	5584.1	
793.37	6379.4	
793.54	3243.3	
793.72	3576.4	
793.89	6531	
794.07	5091.3	
794.25	4115.1	
794.42	3289	
794.6	6247	
794.77	5793	
794.95	4594.3	
795.12	4014.7	
795.3	5104.9	
795.47	5752.1	
795.65	4401.8	
795.82	4237.2	
796	4933.6	
796.17	6975.4	
796.35	4031.1	
796.52	4825.7	
796.7	5666.7	
796.87	5767.8	
797.05	5046.9	
797.22	4984.1	
797.4	5761.6	
797.57	6829.3	
797.75	4149.9	
797.92	3934.8	
798.1	6076.3	
798.27	5127.4	
798.45	3344.3	
798.62	3556	
798.8	5470.1	
798.97	5973.9	
799.15	4444.1	
799.32	4237.2	
799.5	4647.5	
799.67	5522	
799.85	4575.8	
800.02	3236.5	
800.2	5038.7	
800.37	5425.8	
800.55	4811.4	
800.72	3926	
800.9	5927.5	
801.07	6393.8	
801.25	5437.4	
801.42	4300.1	
801.6	5990.3	
801.77	5664	
801.95	4012	
802.12	3859.1	
802.29	5702.9	
802.47	5705.6	
802.64	4291.9	
802.82	3231	
802.99	5048.2	
803.17	6156.9	
803.34	4242	
803.52	3798.3	
803.69	6804	
803.87	4873.5	
804.04	4119.8	
804.21	4293.2	
804.39	6277	
804.56	5344.5	
804.74	3526.6	
804.91	4351.9	
805.09	5121.3	
805.26	5251	
805.44	3586.7	
805.61	4011.3	
805.78	5853.8	
805.96	5810.1	
806.13	4381.3	
806.31	4719.2	
806.48	4598.4	
806.66	5230.5	
806.83	4329.4	
807	4264.6	
807.18	5073.5	
807.35	5570.5	
807.53	4280.9	
807.7	3323.2	
807.87	6351.4	
808.05	5178.6	
808.22	4689.2	
808.4	3368.2	
808.57	5223.7	
808.74	4790.2	
808.92	3862.5	
809.09	4979.3	
809.27	4987.5	
809.44	5713.8	
809.61	3424.9	
809.79	3812.6	
809.96	6372.6	
810.14	5992.4	
810.31	3262.4	
810.48	4095.3	
810.66	5274.9	
810.83	6063.4	
811.01	3907.5	
811.18	4304.8	
811.35	5928.9	
811.53	4642.7	
811.7	4732.9	
811.87	4386.7	
812.05	5112.4	
812.22	5072.1	
812.39	3702.7	
812.57	3623.5	
812.74	5166.3	
812.92	6941.2	
813.09	4083	
813.26	4491.2	
813.44	6692.8	
813.61	5154.7	
813.78	3407.8	
813.96	4634.6	
814.13	5222.3	
814.3	4827.1	
814.48	4990.9	
814.65	4115.7	
814.82	6422.4	
815	4978.6	
815.17	4181.3	
815.34	5165.7	
815.52	5106.3	
815.69	5090.6	
815.87	4186.7	
816.04	3609.2	
816.21	5205.3	
816.38	4552	
816.56	4011.3	
816.73	3773.7	
816.9	6619.7	
817.08	5997.8	
817.25	3725.9	
817.42	4795	
817.6	4734.9	
817.77	5200.5	
817.94	4339	
818.12	3736.9	
818.29	4903.5	
818.46	7804.1	
818.64	3909.6	
818.81	3617.4	
818.98	4817.5	
819.16	7099.6	
819.33	4478.2	
819.5	4153.3	
819.67	5579.3	
819.85	6236.7	
820.02	4123.2	
820.19	4360.1	
820.37	5398.4	
820.54	4986.8	
820.71	4235.2	
820.88	5350.7	
821.06	5416.2	
821.23	4939.7	
821.4	4337.6	
821.58	4231.8	
821.75	5941.8	
821.92	5305.6	
822.09	3425.6	
822.27	3562.8	
822.44	5159.5	
822.61	5002.5	
822.79	3461.7	
822.96	6731.7	
823.13	5745.2	
823.3	4925.4	
823.48	3997.6	
823.65	3648.1	
823.82	5874.9	
823.99	4731.5	
824.17	5134.9	
824.34	3605.1	
824.51	6867.5	
824.68	5239.4	
824.86	3837.2	
825.03	4282.3	
825.2	5191.6	
825.37	6371.9	
825.55	3743.7	
825.72	4248.2	
825.89	6939.2	
826.06	6414.9	
826.24	4103.4	
826.41	4153.3	
826.58	6311.8	
826.75	5562.3	
826.92	3228.3	
827.1	3578.5	
827.27	8748.2	
827.44	6916	
827.61	3850.9	
827.79	4708.3	
827.96	4845.5	
828.13	5331.5	
828.3	4068.6	
828.47	3444	
828.65	5375.9	
828.82	5350	
828.99	5339.7	
829.16	4644.1	
829.34	5831.9	
829.51	5568.4	
829.68	4230.4	
829.85	4383.3	
830.02	6087.9	
830.2	5826.5	
830.37	3237.8	
830.54	5118.6	
830.71	6660.7	
830.88	5131.5	
831.05	3317.7	
831.23	3814.7	
831.4	6367.8	
831.57	7246.4	
831.74	3914.4	
831.91	3361.4	
832.09	5393	
832.26	5839.4	
832.43	4002.4	
832.6	4528.7	
832.77	5399.1	
832.94	6189.6	
833.12	3205.8	
833.29	4018.1	
833.46	5019.6	
833.63	7391.1	
833.8	4380.6	
833.97	4019.5	
834.15	5841.5	
834.32	5543.2	
834.49	4230.4	
834.66	4360.1	
834.83	6042.9	
835	4860.5	
835.17	3855.6	
835.35	3947.8	
835.52	5640.1	
835.69	5609.4	
835.86	4141	
836.03	3394.2	
836.2	5767.1	
836.37	5431.9	
836.55	4046.1	
836.72	3848.1	
836.89	5362.9	
837.06	5913.9	
837.23	4132.8	
837.4	4569.7	
837.57	6683.2	
837.75	7514.7	
837.92	3746.4	
838.09	3950.5	
838.26	5352.7	
838.43	6064.7	
838.6	4252.3	
838.77	3750.5	
838.94	7030	
839.11	6619.7	
839.29	4065.2	
839.46	3183.9	
839.63	5797.8	
839.8	5483.1	
839.97	3990.8	
840.14	3909.6	
840.31	5601.9	
840.48	5834	
840.65	3238.5	
840.82	3955.3	
841	5835.3	
841.17	5771.9	
841.34	3651.5	
841.51	3620.8	
841.68	5727.5	
841.85	5470.1	
842.02	3730.7	
842.19	3080.1	
842.36	5507.7	
842.53	5530.2	
842.7	3611.9	
842.87	4416.8	
843.05	7379.5	
843.22	5491.3	
843.39	3429	
843.56	3675.4	
843.73	5197.7	
843.9	5881.1	
844.07	5902.9	
844.24	4961.5	
844.41	8701.8	
844.58	5008.6	
844.75	3474	
844.92	3790.8	
845.09	5825.1	
845.26	5795.8	
845.43	3590.8	
845.6	3857	
845.77	5827.8	
845.94	5539.1	
846.12	4004.5	
846.29	4233.8	
846.46	6004.6	
846.63	5748	
846.8	3623.5	
846.97	4344.4	
847.14	6307.7	
847.31	5782.1	
847.48	4067.3	
847.65	4485.7	
847.82	6124.1	
847.99	6064	
848.16	4861.9	
848.33	4452.3	
848.5	5354.1	
848.67	6304.3	
848.84	3623.5	
849.01	3751.9	
849.18	5197.7	
849.35	4878.3	
849.52	4530.8	
849.69	3578.5	
849.86	6040.1	
850.03	6275	
850.2	3624.2	
850.37	4459.8	
850.54	6176	
850.71	5449	
850.88	4348.5	
851.05	3613.3	
851.22	5689.3	
851.39	6410.8	
851.56	3377.1	
851.73	4170.3	
851.9	5069.4	
852.07	6083.8	
852.24	4029.7	
852.41	3580.5	
852.58	5697.4	
852.75	5168.4	
852.92	4010.6	
853.09	3547.8	
853.26	5380.7	
853.43	6267.5	
853.6	3568.2	
853.77	3046	
853.94	6361	
854.11	5763	
854.28	5349.3	
854.44	3948.5	
854.61	6894.1	
854.78	6149.4	
854.95	3570.3	
855.12	4579.3	
855.29	4614.8	
855.46	6496.2	
855.63	3580.5	
855.8	5043.5	
855.97	5329.5	
856.14	6212.2	
856.31	5192.3	
856.48	3911.6	
856.65	5318.6	
856.82	5043.5	
856.99	3466.5	
857.16	3911.6	
857.33	7092.8	
857.49	5411.4	
857.66	3876.1	
857.83	4215.4	
858	5358.9	
858.17	5657.9	
858.34	3426.9	
858.51	3651.5	
858.68	6561	
858.85	6597.2	
859.02	4173.1	
859.19	4508.9	
859.36	5018.9	
859.52	5044.1	
859.69	3651.5	
859.86	4291.9	
860.03	5167.7	
860.2	6440.2	
860.37	3233.7	
860.54	3606.5	
860.71	6001.2	
860.88	6479.1	
861.05	4035.9	
861.21	4600.4	
861.38	6539.2	
861.55	4949.3	
861.72	3252.9	
861.89	4093.9	
862.06	6109.1	
862.23	6664.1	
862.4	3524.6	
862.56	3731.4	
862.73	5869.5	
862.9	5602.6	
863.07	4291.2	
863.24	3261.7	
863.41	4939.7	
863.58	5042.1	
863.75	3679.5	
863.91	4166.3	
864.08	6447	
864.25	5958.2	
864.42	4515.8	
864.59	5072.1	
864.76	6821.1	
864.93	5132.9	
865.09	3458.3	
865.26	3809.2	
865.43	6351.4	
865.6	6736.5	
865.77	3140.9	
865.94	3582.6	
866.1	6402	
866.27	6128.9	
866.44	5429.8	
866.61	3445.4	
866.78	5534.3	
866.95	5958.9	
867.11	3463.8	
867.28	3156.6	
867.45	6151.4	
867.62	5193	
867.79	4153.3	
867.96	3550.5	
868.12	5117.2	
868.29	6122.1	
868.46	3095.2	
868.63	4822.3	
868.8	6250.4	
868.97	6038.8	
869.13	3726.6	
869.3	3756	
869.47	5886.5	
869.64	6219.7	
869.81	3705.5	
869.97	3595.6	
870.14	5816.9	
870.31	6554.2	
870.48	3585.3	
870.65	4547.2	
870.81	5369.8	
870.98	5371.8	
871.15	4085.7	
871.32	3730	
871.48	5908.4	
871.65	6530.3	
871.82	3607.2	
871.99	3958.7	
872.16	7032.7	
872.32	6359.6	
872.49	3650.8	
872.66	3658.4	
872.83	6054.5	
872.99	5288.5	
873.16	4144.4	
873.33	3607.2	
873.5	5679	
873.67	5754.8	
873.83	3773.7	
874	4876.2	
874.17	5823.7	
874.34	6939.9	
874.5	4698.7	
874.67	4556.7	
874.84	6505.7	
875.01	5038	
875.17	5132.2	
875.34	3571.7	
875.51	5753.4	
875.68	6894.1	
875.84	4369.7	
876.01	5348.6	
876.18	6011.5	
876.34	5953.4	
876.51	3661.1	
876.68	3511.6	
876.85	5468.8	
877.01	6277	
877.18	5161.6	
877.35	3571	
877.52	5603.9	
877.68	4992.9	
877.85	3552.5	
878.02	3552.5	
878.18	5595.7	
878.35	5290.6	
878.52	2894.5	
878.69	4068.6	
878.85	6021	
879.02	5987.6	
879.19	5139.7	
879.35	3887.7	
879.52	6001.9	
879.69	6239.5	
879.86	3107.5	
880.02	4019.5	
880.19	5530.9	
880.36	6849.8	
880.52	4142.4	
880.69	4274.8	
880.86	6109.1	
881.02	6211.5	
881.19	3965.6	
881.36	3905.5	
881.52	5991	
881.69	5277.6	
881.86	3867.9	
882.02	3728.7	
882.19	6279.8	
882.36	7382.9	
882.52	3648.8	
882.69	5134.3	
882.86	5822.4	
883.02	5638.1	
883.19	4385.4	
883.36	4145.1	
883.52	6194.4	
883.69	7065.5	
883.86	3627	
884.02	3297.2	
884.19	6081.1	
884.36	5576.6	
884.52	4070	
884.69	3776.5	
884.86	5304.2	
885.02	6695.5	
885.19	4067.9	
885.36	4170.3	
885.52	5609.4	
885.69	5730.2	
885.86	5244.2	
886.02	4629.1	
886.19	6050.4	
886.35	5438.7	
886.52	4005.1	
886.69	5135.6	
886.85	5140.4	
887.02	6474.3	
887.19	6474.3	
887.35	6474.3	
887.52	6474.3	
887.68	6474.3	
887.85	6474.3	
888.02	6474.3	
888.18	6474.3	
888.35	6474.3	
888.51	6474.3	
888.68	6474.3	
888.85	6474.3	
889.01	6474.3	
889.18	6474.3	
889.35	6474.3	
889.51	6474.3	
889.68	6474.3	
889.84	6474.3	
890.01	6474.3	
890.17	6474.3	
890.34	6474.3	
890.51	6474.3	
890.67	6474.3	
890.84	6474.3	
891	6474.3	
891.17	6474.3	
891.34	6474.3	
891.5	6474.3	
891.67	6474.3	
891.83	6474.3	
892	6474.3	
892.16	6474.3	
892.33	6474.3	
892.5	6474.3	
892.66	6474.3	
892.83	6474.3	
892.99	6474.3	
893.16	6474.3	
893.32	6474.3	
893.49	6474.3	
893.65	6474.3	
893.82	6474.3	
893.99	6474.3	
894.15	6474.3	
894.32	6474.3	
894.48	6474.3	
894.65	6474.3	
894.81	6474.3	
894.98	6474.3	
895.14	6474.3	
895.31	6474.3	
895.47	6474.3	
895.64	6474.3	
895.81	6474.3	
895.97	6474.3	
896.14	6474.3	
896.3	6474.3	
896.47	6474.3	
896.63	6474.3	
896.8	6474.3	
896.96	6474.3	
897.13	6474.3	
897.29	6474.3	
897.46	6474.3	
897.62	6474.3	
897.79	6474.3	
897.95	6474.3	
898.12	6474.3	
898.28	6474.3	
898.45	6474.3	
898.61	6474.3	
898.78	6474.3	
898.94	6474.3	
899.11	6474.3	
899.27	6474.3	
899.44	6474.3	
899.6	6474.3	
899.77	6474.3	
899.93	6474.3	
900.1	6474.3	
900.26	6474.3	
900.43	6474.3	
900.59	6474.3	
900.76	6474.3	
900.92	6474.3	
901.09	6474.3	
901.25	6474.3	
901.42	6474.3	
901.58	6474.3	
901.75	6474.3	
901.91	6474.3	
902.07	6474.3	
902.24	6474.3	
902.4	6474.3	
902.57	6474.3	
902.73	6474.3	
902.9	6474.3	
903.06	6474.3	
903.23	6474.3	
903.39	6474.3	
903.56	6474.3	
903.72	6474.3	
903.88	6474.3	
904.05	6474.3	
904.21	6474.3	
904.38	6474.3	
904.54	6474.3	
904.71	6474.3	
904.87	6474.3	
905.03	6474.3	
905.2	6474.3	
905.36	6474.3	
905.53	6474.3	
905.69	6474.3	
905.86	6474.3	
906.02	6474.3	
906.18	6474.3	
906.35	6474.3	
906.51	6474.3	
906.68	6474.3	
906.84	6474.3	
907.01	6474.3	
907.17	6474.3	
907.33	6474.3	
907.5	6474.3	
907.66	6474.3	
907.83	6474.3	
907.99	6474.3	
908.15	6474.3	
908.32	6474.3	
908.48	6474.3	
908.65	6474.3	
908.81	6474.3	
908.97	6474.3	
909.14	6474.3	
909.3	6474.3	
909.47	6474.3	
909.63	6474.3	
909.79	6474.3	
909.96	6474.3	
910.12	6474.3	
910.28	6474.3	
910.45	6474.3	
910.61	6474.3	
910.78	6474.3	
910.94	6474.3	
911.1	6474.3	
911.27	6474.3	
911.43	6474.3	
911.59	6474.3	
911.76	6474.3	
911.92	6474.3	
912.08	6474.3	
912.25	6474.3	
912.41	6474.3	
912.57	6474.3	
912.74	6474.3	
912.9	6474.3	
913.07	6474.3	
913.23	6474.3	
913.39	6474.3	
913.56	6474.3	
913.72	6474.3	
913.88	6474.3	
914.05	6474.3	
914.21	6474.3	
914.37	6474.3	
914.54	6474.3	
914.7	6474.3	
914.86	6474.3	
915.03	6474.3	
915.19	6474.3	
