Wavelength	Intensities	
nm	a.u.	
179.22	1937.9	
179.44	1945.9	
179.65	1929.9	
179.86	1962	
180.08	1915.5	
180.29	5104.2	
180.51	3654.9	
180.72	5742.5	
180.94	6782.9	
181.15	3335.5	
181.37	3308.2	
181.58	5560.9	
181.79	5922.7	
182.01	3492.5	
182.22	3710.9	
182.44	5840.1	
182.65	4952.7	
182.87	4726	
183.08	4109.6	
183.29	6224.5	
183.51	5118.6	
183.72	3818.8	
183.94	5575.3	
184.15	5487.9	
184.37	5578	
184.58	3235.1	
184.79	4623.6	
185.01	5101.5	
185.22	5896.1	
185.44	4916.5	
185.65	4009.2	
185.86	5380.7	
186.08	4995	
186.29	3196.2	
186.51	3515.7	
186.72	5182.7	
186.94	6081.8	
187.15	4015.4	
187.36	4133.5	
187.58	8075.8	
187.79	5665.4	
188.01	4399.7	
188.22	6799.9	
188.43	6855.2	
188.65	5909.8	
188.86	3469.3	
189.08	4154.6	
189.29	5355.4	
189.5	5320.6	
189.72	3855	
189.93	3940.3	
190.15	6114.6	
190.36	7383.6	
190.57	4274.8	
190.79	4132.1	
191	6263.4	
191.22	6128.9	
191.43	4276.2	
191.64	3456.3	
191.86	6472.3	
192.07	6102.9	
192.29	3619.4	
192.5	3880.9	
192.71	6122.1	
192.93	5248.3	
193.14	3806.5	
193.35	3865.2	
193.57	5299.5	
193.78	6098.2	
194	3061.7	
194.21	3768.3	
194.42	5057.1	
194.64	5580.7	
194.85	4128.7	
195.07	4919.9	
195.28	5590.3	
195.49	4769.7	
195.71	5193.6	
195.92	3564.1	
196.13	5697.4	
196.35	5896.8	
196.56	5527.5	
196.78	4235.2	
196.99	7316	
197.2	6836.8	
197.42	4780.6	
197.63	4240	
197.84	4979.3	
198.06	5757.5	
198.27	3852.9	
198.48	5242.1	
198.7	5289.9	
198.91	5432.6	
199.13	4169.7	
199.34	4244.8	
199.55	5912.5	
199.77	4788.2	
199.98	3731.4	
200.19	4216.8	
200.41	5299.5	
200.62	5087.8	
200.83	4463.9	
201.05	4727.4	
201.26	5446.9	
201.47	5180.7	
201.69	3754.6	
201.9	3573	
202.11	5532.9	
202.33	6583.5	
202.54	3960.1	
202.76	4442.7	
202.97	5666	
203.18	5655.1	
203.4	4341	
203.61	4257	
203.82	5645.6	
204.04	5206.6	
204.25	4231.8	
204.46	4148.5	
204.68	5563.6	
204.89	5781.4	
205.1	4102.1	
205.32	3538.2	
205.53	5971.2	
205.74	6100.2	
205.96	3013.2	
206.17	4319.2	
206.38	5886.5	
206.6	6096.1	
206.81	4824.3	
207.02	3888.4	
207.24	5831.2	
207.45	6182.8	
207.66	4007.2	
207.88	3388	
208.09	5706.3	
208.3	5528.2	
208.52	3678.2	
208.73	4056.3	
208.94	5539.1	
209.15	6305	
209.37	3972.4	
209.58	4212	
209.79	6099.5	
210.01	5291.3	
210.22	3193.5	
210.43	3373	
210.65	5591	
210.86	5960.3	
211.07	4037.2	
211.29	3687	
211.5	5920	
211.71	5403.2	
211.93	3627	
212.14	3665.2	
212.35	5448.3	
212.56	5724.8	
212.78	4237.9	
212.99	3472	
213.2	6503	
213.42	5302.2	
213.63	3780.6	
213.84	4135.5	
214.06	4846.2	
214.27	4967.7	
214.48	3988.8	
214.69	4270.7	
214.91	6255.2	
215.12	6374.6	
215.33	4315.1	
215.55	4741	
215.76	6860	
215.97	5957.5	
216.18	4153.3	
216.4	4095.9	
216.61	5171.8	
216.82	6070.9	
217.04	3760.8	
217.25	3825.6	
217.46	6216.3	
217.67	6014.9	
217.89	3280.2	
218.1	3417.4	
218.31	5645.6	
218.53	5728.2	
218.74	3800.3	
218.95	3721.2	
219.16	5451.7	
219.38	6513.2	
219.59	3749.1	
219.8	4548.5	
220.01	7242.3	
220.23	5558.9	
220.44	4903.5	
220.65	3716.4	
220.87	5620.3	
221.08	6232.7	
221.29	3432.4	
221.5	4540.3	
221.72	7681.2	
221.93	5237.3	
222.14	4197.7	
222.35	5004.6	
222.57	5543.2	
222.78	5928.2	
222.99	4028.4	
223.2	4353.3	
223.42	5918.6	
223.63	6033.3	
223.84	3003	
224.05	3067.2	
224.27	7135.8	
224.48	6477.7	
224.69	4985.4	
224.9	4220.2	
225.12	5782.1	
225.33	5488.6	
225.54	3377.8	
225.75	3756	
225.97	5014.1	
226.18	5360.2	
226.39	4083.6	
226.6	3810.6	
226.82	5261.9	
227.03	5198.4	
227.24	4216.8	
227.45	3416.7	
227.67	5913.2	
227.88	6571.9	
228.09	4690.5	
228.3	4736.3	
228.52	6037.4	
228.73	5520.6	
228.94	3924.6	
229.15	3426.9	
229.36	5429.2	
229.58	5326.1	
229.79	3922.5	
230	4611.3	
230.21	6624.5	
230.43	5672.2	
230.64	4104.1	
230.85	4360.1	
231.06	5914.5	
231.28	5990.3	
231.49	3463.1	
231.7	4078.9	
231.91	5860.6	
232.12	5626.5	
232.34	3547.1	
232.55	4104.1	
232.76	6217	
232.97	5737	
233.18	3672.7	
233.4	4162.2	
233.61	5772.5	
233.82	5302.2	
234.03	3904.1	
234.25	3812	
234.46	7739.3	
234.67	5545.9	
234.88	4351.9	
235.09	3722.5	
235.31	5902.9	
235.52	5400.5	
235.73	4255	
235.94	3500.7	
236.15	5316.5	
236.37	6737.1	
236.58	3685.7	
236.79	4044.7	
237	5857.2	
237.21	5035.3	
237.43	4362.9	
237.64	3343.7	
237.85	10306	
238.06	5104.2	
238.27	4463.2	
238.48	3515.7	
238.7	5927.5	
238.91	5421.7	
239.12	4057.7	
239.33	4029.7	
239.54	5208.7	
239.76	5459.2	
239.97	3958.7	
240.18	4018.8	
240.39	7052.5	
240.6	5910.4	
240.82	4115.1	
241.03	3454.9	
241.24	5527.5	
241.45	6466.1	
241.66	3646.1	
241.87	4349.2	
242.09	6326.2	
242.3	6694.1	
242.51	4402.5	
242.72	4027.7	
242.93	6078.4	
243.14	5464.7	
243.36	4725.3	
243.57	5117.2	
243.78	6463.4	
243.99	5928.2	
244.2	4089.8	
244.41	3701.4	
244.63	5087.8	
244.84	5922	
245.05	4330.8	
245.26	4020.2	
245.47	5816.9	
245.68	6129.6	
245.9	5426.4	
246.11	4232.5	
246.32	5418.2	
246.53	5745.2	
246.74	6630.6	
246.95	3373.7	
247.16	5012.1	
247.38	5552.7	
247.59	3327.3	
247.8	4143	
248.01	5215.5	
248.22	5493.3	
248.43	3649.5	
248.64	3967.6	
248.86	4867.3	
249.07	5279.7	
249.28	3523.9	
249.49	4187.4	
249.7	6127.5	
249.91	6257.9	
250.12	3330	
250.34	3412.6	
250.55	5616.9	
250.76	5541.8	
250.97	4186	
251.18	4243.4	
251.39	6327.5	
251.6	5719.3	
251.81	4329.4	
252.03	4280.3	
252.24	5295.4	
252.45	6111.8	
252.66	3497.2	
252.87	4493.9	
253.08	5636.7	
253.29	7370.6	
253.5	3555.3	
253.72	4968.4	
253.93	5427.8	
254.14	6628.6	
254.35	3853.6	
254.56	3963.5	
254.77	5823.1	
254.98	5172.5	
255.19	3796.3	
255.41	4876.9	
255.62	5656.5	
255.83	6293.4	
256.04	4364.2	
256.25	4241.3	
256.46	6876.4	
256.67	5203.2	
256.88	4234.5	
257.09	4665.3	
257.31	5244.8	
257.52	5227.8	
257.73	5276.9	
257.94	3816.7	
258.15	5404.6	
258.36	5603.2	
258.57	4855.1	
258.78	3044.6	
258.99	6142.5	
259.2	5418.2	
259.41	3886.4	
259.63	3985.3	
259.84	6403.3	
260.05	6914.6	
260.26	5098.1	
260.47	3695.9	
260.68	6146	
260.89	5500.2	
261.1	4666.6	
261.31	3667.9	
261.52	6126.2	
261.73	6466.1	
261.95	5006.6	
262.16	4377.2	
262.37	6349.4	
262.58	6414.2	
262.79	5003.9	
263	3900	
263.21	5556.1	
263.42	5097.4	
263.63	3988.8	
263.84	3850.2	
264.05	6170.5	
264.26	6536.4	
264.47	4868.7	
264.69	4360.1	
264.9	6290.7	
265.11	5849	
265.32	3706.1	
265.53	3831.7	
265.74	5670.8	
265.95	4924	
266.16	4166.3	
266.37	4581.3	
266.58	5696.1	
266.79	5415.5	
267	3831.1	
267.21	3532.1	
267.42	5075.5	
267.63	5517.9	
267.84	4040.6	
268.06	3425.6	
268.27	5978.7	
268.48	6321.4	
268.69	3925.3	
268.9	4650.9	
269.11	6241.5	
269.32	5012.7	
269.53	4089.1	
269.74	3712.3	
269.95	5922.7	
270.16	4863.9	
270.37	4024.9	
270.58	4698	
270.79	5393	
271	6075.6	
271.21	4377.2	
271.42	4100	
271.63	5730.9	
271.84	5150	
272.05	3237.2	
272.26	3676.8	
272.47	5577.3	
272.68	5793	
272.89	3906.2	
273.11	4527.4	
273.32	5373.9	
273.53	6570.6	
273.74	4448.2	
273.95	4297.3	
274.16	6241.5	
274.37	5694.7	
274.58	4485.1	
274.79	3473.4	
275	5673.6	
275.21	6285.9	
275.42	5321.3	
275.63	4553.3	
275.84	5857.9	
276.05	7340.6	
276.26	4233.2	
276.47	3936.9	
276.68	5393	
276.89	6629.3	
277.1	4616.1	
277.31	3523.2	
277.52	5853.8	
277.73	5997.1	
277.94	3476.1	
278.15	3916.4	
278.36	5699.5	
278.57	5169.8	
278.78	3850.9	
278.99	4398.4	
279.2	5197.7	
279.41	5087.8	
279.62	5109	
279.83	3551.2	
280.04	6878.4	
280.25	5083.1	
280.46	5141.1	
280.67	4040.6	
280.88	5167	
281.09	6305	
281.3	4245.4	
281.51	5378	
281.72	6023.1	
281.93	6173.3	
282.14	3684.3	
282.35	4067.9	
282.56	6126.2	
282.77	6092	
282.98	3861.8	
283.19	4816.8	
283.4	7509.9	
283.61	5502.9	
283.82	3565.5	
284.03	5028.4	
284.24	5624.4	
284.45	6191	
284.66	5040.1	
284.87	4797	
285.08	6171.2	
285.29	6309.1	
285.5	3368.2	
285.71	3969.6	
285.92	6292.7	
286.12	6913.9	
286.33	4976.6	
286.54	3895.2	
286.75	6120	
286.96	5388.2	
287.17	3617.4	
287.38	4879.6	
287.59	5210.7	
287.8	5091.9	
288.01	3977.2	
288.22	4578.6	
288.43	6065.4	
288.64	5049.6	
288.85	4769	
289.06	4492.6	
289.27	6049.7	
289.48	6589.7	
289.69	5068.7	
289.9	4582	
290.11	6269.5	
290.32	5240.8	
290.53	4796.3	
290.74	4390.8	
290.94	6023.8	
291.15	6062	
291.36	3838.6	
291.57	4515.1	
291.78	5246.9	
291.99	4926	
292.2	3654.9	
292.41	4446.8	
292.62	6193.7	
292.83	5925.5	
293.04	5466	
293.25	3655.6	
293.46	5281	
293.67	6171.2	
293.88	3758	
294.09	3596.9	
294.29	5054.4	
294.5	5713.8	
294.71	4092.5	
294.92	3876.8	
295.13	5328.8	
295.34	6719.4	
295.55	3380.5	
295.76	3545	
295.97	5993	
296.18	6815	
296.39	3564.1	
296.6	3822.9	
296.81	5681.1	
297.01	6012.8	
297.22	3954.6	
297.43	3732.8	
297.64	5156.8	
297.85	5229.8	
298.06	3130	
298.27	3384.6	
298.48	5602.6	
298.69	5238	
298.9	4085.7	
299.11	3693.9	
299.31	5094	
299.52	5083.1	
299.73	4349.2	
299.94	4298.7	
300.15	5552	
300.36	5167.7	
300.57	4332.1	
300.78	4315.1	
300.99	5472.9	
301.2	5694	
301.4	3716.4	
301.61	4145.1	
301.82	5904.3	
302.03	6006	
302.24	4679.6	
302.45	3561.4	
302.66	5863.3	
302.87	6367.8	
303.08	3773.7	
303.29	5257.1	
303.49	5289.9	
303.7	5615.5	
303.91	3325.2	
304.12	5001.1	
304.33	5068.7	
304.54	5738.4	
304.75	3855	
304.96	3629.7	
305.16	5912.5	
305.37	6672.3	
305.58	3263.8	
305.79	3463.1	
306	5859.9	
306.21	4969.1	
306.42	3761.4	
306.63	5862.7	
306.83	5421.7	
307.04	6180.8	
307.25	4160.8	
307.46	4171	
307.67	4737	
307.88	6053.1	
308.09	3678.2	
308.29	3919.1	
308.5	5612.1	
308.71	6211.5	
308.92	4132.8	
309.13	3695.9	
309.34	5388.2	
309.55	5477	
309.75	4699.4	
309.96	4351.3	
310.17	5985.5	
310.38	5299.5	
310.59	4574.5	
310.8	3563.5	
311.01	5347.2	
311.21	5406.6	
311.42	3502	
311.63	3727.3	
311.84	5264	
312.05	5738.4	
312.26	4200.4	
312.46	4647.5	
312.67	5369.8	
312.88	5091.9	
313.09	3670	
313.3	3615.3	
313.51	6435.4	
313.71	6827.2	
313.92	3702.7	
314.13	3910.3	
314.34	5754.8	
314.55	5417.6	
314.76	4776.5	
314.96	4128.7	
315.17	5622.4	
315.38	5994.4	
315.59	3632.4	
315.8	3487	
316.01	6497.5	
316.21	6548.7	
316.42	3521.8	
316.63	4075.5	
316.84	5420.3	
317.05	6389	
317.26	4368.3	
317.46	3842	
317.67	5512.4	
317.88	6015.6	
318.09	4668.7	
318.3	3379.1	
318.5	5264.6	
318.71	5881.1	
318.92	5988.3	
319.13	4280.9	
319.34	6147.3	
319.54	6242.2	
319.75	3392.8	
319.96	3201.7	
320.17	6014.2	
320.38	6169.2	
320.58	3366.9	
320.79	4061.1	
321	6148.7	
321.21	6218.3	
321.42	4059.8	
321.62	3364.8	
321.83	5213.4	
322.04	5561.6	
322.25	3884.3	
322.46	3657	
322.66	5724.8	
322.87	5879.7	
323.08	4516.5	
323.29	3691.8	
323.5	6657.9	
323.7	5108.3	
323.91	5005.9	
324.12	4498	
324.33	5616.2	
324.53	5851	
324.74	4257	
324.95	4549.9	
325.16	4906.3	
325.37	5417.6	
325.57	3692.5	
325.78	3732.1	
325.99	5584.1	
326.2	5036	
326.4	5434.6	
326.61	3397.6	
326.82	5498.1	
327.03	5689.3	
327.24	5223.7	
327.44	5009.3	
327.65	5864.7	
327.86	4697.4	
328.07	4304.1	
328.27	3512.3	
328.48	6299.6	
328.69	5154.1	
328.9	5319.3	
329.1	3979.9	
329.31	5433.9	
329.52	6449.1	
329.73	3674.1	
329.93	4177.9	
330.14	5537	
330.35	5788.9	
330.56	6100.9	
330.76	4521.2	
330.97	5330.2	
331.18	5812.8	
331.39	4037.9	
331.59	3317	
331.8	6168.5	
332.01	6384.9	
332.22	3792.2	
332.42	4339.6	
332.63	5669.5	
332.84	5228.5	
333.05	4151.9	
333.25	3764.8	
333.46	5352.7	
333.67	5556.1	
333.88	3829	
334.08	4356.7	
334.29	7590.5	
334.5	6268.1	
334.7	3493.8	
334.91	5328.8	
335.12	5109	
335.33	6044.2	
335.53	4079.6	
335.74	6193.1	
335.95	5334.3	
336.16	5195	
336.36	4079.6	
336.57	4748.6	
336.78	5072.8	
336.98	6231.3	
337.19	5066.7	
337.4	4074.1	
337.61	6737.8	
337.81	5067.4	
338.02	3728.7	
338.23	4939.7	
338.43	6369.2	
338.64	5209.3	
338.85	3665.2	
339.05	4935.6	
339.26	6451.1	
339.47	5065.3	
339.68	3670.6	
339.88	5525.4	
340.09	5797.1	
340.3	6040.1	
340.5	4354	
340.71	3356.6	
340.92	5090.6	
341.13	6377.4	
341.33	3576.4	
341.54	4373.8	
341.75	5784.8	
341.95	5461.9	
342.16	4171	
342.37	4478.2	
342.57	5177.9	
342.78	5551.4	
342.99	4569.7	
343.19	3225.6	
343.4	5980.8	
343.61	5824.4	
343.81	3870	
344.02	3611.3	
344.23	6017.6	
344.43	6434	
344.64	4608.6	
344.85	4496.7	
345.06	5909.8	
345.26	6204	
345.47	4246.1	
345.68	4999.1	
345.88	4967	
346.09	6113.9	
346.3	4347.2	
346.5	3229	
346.71	5655.1	
346.92	5259.2	
347.12	3332	
347.33	4209.9	
347.54	6158.9	
347.74	6614.3	
347.95	4298.7	
348.16	3151.1	
348.36	5353.4	
348.57	5077.6	
348.78	4199.7	
348.98	4571.7	
349.19	5556.1	
349.39	5004.6	
349.6	3397.6	
349.81	3742.3	
350.01	5788.2	
350.22	5311.7	
350.43	4089.1	
350.63	4876.2	
350.84	5668.8	
351.05	5401.2	
351.25	3672.7	
351.46	3306.1	
351.67	6251.1	
351.87	5248.9	
352.08	3934.1	
352.29	4525.3	
352.49	6085.9	
352.7	5711.1	
352.9	3600.3	
353.11	4450.9	
353.32	6793.1	
353.52	5338.4	
353.73	3494.5	
353.94	4557.4	
354.14	5884.5	
354.35	5657.2	
354.55	3626.3	
354.76	4078.2	
354.97	5864	
355.17	5627.8	
355.38	3380.5	
355.59	4859.1	
355.79	5165	
356	5682.4	
356.2	4048.8	
356.41	3533.4	
356.62	4924.7	
356.82	5414.8	
357.03	4393.6	
357.24	3972.4	
357.44	5229.1	
357.65	5370.5	
357.85	5205.3	
358.06	4102.1	
358.27	5003.9	
358.47	5216.9	
358.68	3379.8	
358.88	4295.3	
359.09	5909.8	
359.3	6252.4	
359.5	5066.7	
359.71	4440.7	
359.91	6766.5	
360.12	6011.5	
360.33	4226.3	
360.53	4822.3	
360.74	5216.9	
360.94	5275.6	
361.15	4522.6	
361.36	3725.3	
361.56	6105	
361.77	5537	
361.97	5023	
362.18	3952.6	
362.38	6127.5	
362.59	5057.1	
362.8	3680.2	
363	3507.5	
363.21	4885.1	
363.41	5665.4	
363.62	4169.7	
363.83	5312.4	
364.03	5672.2	
364.24	6816.3	
364.44	5375.2	
364.65	5359.5	
364.85	5436	
365.06	5067.4	
365.27	3816.7	
365.47	3867.2	
365.68	6440.2	
365.88	5366.4	
366.09	4289.1	
366.29	3889.8	
366.5	5682.4	
366.71	6180.8	
366.91	5322	
367.12	4415.4	
367.32	6776	
367.53	6035.4	
367.73	4354.7	
367.94	5401.2	
368.14	5880.4	
368.35	6987.7	
368.56	4331.5	
368.76	3652.9	
368.97	6016.2	
369.17	7906.5	
369.38	3829.7	
369.58	4107.5	
369.79	5061.9	
369.99	6500.3	
370.2	5212.1	
370.4	4256.4	
370.61	5737.7	
370.82	7040.9	
371.02	4097.3	
371.23	3396.9	
371.43	4894.6	
371.64	6404.7	
371.84	4117.8	
372.05	5452.4	
372.25	7776.1	
372.46	6148	
372.66	4138.3	
372.87	4080.2	
373.07	6177.4	
373.28	7813	
373.48	5171.8	
373.69	4871.4	
373.9	5589.6	
374.1	5573.2	
374.31	5186.8	
374.51	4570.4	
374.72	6425.2	
374.92	5242.8	
375.13	5313.1	
375.33	4519.2	
375.54	6025.8	
375.74	5344.5	
375.95	4511	
376.15	5842.2	
376.36	5999.9	
376.56	5833.3	
376.77	4602.5	
376.97	5053	
377.18	7080.5	
377.38	6100.2	
377.59	5425.8	
377.79	4014	
378	5926.8	
378.2	6331.6	
378.41	4126	
378.61	3990.8	
378.82	6395.8	
379.02	5448.3	
379.23	4250.2	
379.43	5464.7	
379.64	6446.3	
379.84	6107	
380.05	4035.2	
380.25	3995.6	
380.46	6190.3	
380.66	5806.7	
380.87	5552.7	
381.07	5913.2	
381.28	6803.4	
381.48	6148.7	
381.69	4176.5	
381.89	4168.3	
382.1	5027.1	
382.3	6305	
382.51	5319.3	
382.71	6244.3	
382.91	6210.8	
383.12	6722.1	
383.32	4528.1	
383.53	4773.1	
383.73	5973.9	
383.94	5746.6	
384.14	4603.2	
384.35	3732.8	
384.55	5762.3	
384.76	6215.6	
384.96	4427.7	
385.17	4862.6	
385.37	6184.2	
385.58	5385.5	
385.78	4843.4	
385.98	3594.9	
386.19	5603.9	
386.39	5999.2	
386.6	4255	
386.8	4461.2	
387.01	6070.9	
387.21	6124.1	
387.42	4971.1	
387.62	5639.4	
387.83	5403.2	
388.03	6110.5	
388.23	4511	
388.44	5388.2	
388.64	5150	
388.85	5245.5	
389.05	4868	
389.26	5641.5	
389.46	7188.4	
389.67	6549.4	
389.87	4876.2	
390.07	4932.2	
390.28	5729.5	
390.48	5268.7	
390.69	4078.2	
390.89	4340.3	
391.1	5496.1	
391.3	6471.6	
391.5	5722	
391.71	6319.3	
391.91	6183.5	
392.12	7271.7	
392.32	5717.9	
392.53	4879.6	
392.73	5551.4	
392.93	5750.7	
393.14	4569	
393.34	5405.3	
393.55	6310.5	
393.75	5704.3	
393.95	4505.5	
394.16	4449.6	
394.36	5472.2	
394.57	6102.3	
394.77	3930.7	
394.98	4499.4	
395.18	5424.4	
395.38	5550.7	
395.59	5393.7	
395.79	4220.9	
396	5564.3	
396.2	6087.9	
396.4	5158.2	
396.61	5074.2	
396.81	6277.7	
397.02	5545.9	
397.22	5480.4	
397.42	5444.2	
397.63	6288.6	
397.83	5437.4	
398.04	4211.3	
398.24	4749.9	
398.44	6065.4	
398.65	4991.6	
398.85	3958.7	
399.05	4209.3	
399.26	5368.4	
399.46	7201.3	
399.67	4526.7	
399.87	4238.6	
400.07	5786.2	
400.28	6214.2	
400.48	4403.8	
400.69	5509.7	
400.89	6505.7	
401.09	6872.3	
401.3	4270.7	
401.5	5514.5	
401.7	7176.1	
401.91	7404.1	
402.11	4657.1	
402.32	4926	
402.52	6462.7	
402.72	6397.2	
402.93	5072.8	
403.13	3915.7	
403.33	7143.3	
403.54	5889.3	
403.74	4711.7	
403.94	5688.6	
404.15	5943.9	
404.35	7214.3	
404.56	4543.1	
404.76	6465.4	
404.96	6374	
405.17	6154.1	
405.37	5862	
405.57	5063.3	
405.78	6443.6	
405.98	5821	
406.18	4538.3	
406.39	5492.7	
406.59	6387.6	
406.79	5929.6	
407	4272.7	
407.2	4397.7	
407.4	6288.6	
407.61	6610.2	
407.81	4386.1	
408.01	6741.2	
408.22	5362.9	
408.42	7404.8	
408.62	5495.4	
408.83	4939.7	
409.03	5996.5	
409.23	5710.4	
409.44	5097.4	
409.64	5304.9	
409.84	6902.3	
410.05	6814.3	
410.25	5167.7	
410.45	4925.4	
410.66	6221.7	
410.86	8938	
411.06	5382.1	
411.27	5196.4	
411.47	8644.5	
411.67	6456.6	
411.88	5493.3	
412.08	5726.8	
412.28	7117.4	
412.49	7653.3	
412.69	5126.1	
412.89	5193.6	
413.09	7395.9	
413.3	7281.9	
413.5	5305.6	
413.7	4790.2	
413.91	6431.3	
414.11	7402	
414.31	5047.6	
414.52	5513.1	
414.72	7055.9	
414.92	6890.7	
415.12	5109	
415.33	5672.9	
415.53	7299	
415.73	7474.4	
415.94	6005.3	
416.14	5421.7	
416.34	6173.9	
416.55	5893.4	
416.75	6708.5	
416.95	6032	
417.15	7249.8	
417.36	7996	
417.56	6891.4	
417.76	5843.5	
417.97	7629.4	
418.17	7316.7	
418.37	5362.3	
418.57	5475.6	
418.78	7031.4	
418.98	6724.8	
419.18	6382.8	
419.38	6283.2	
419.59	6797.9	
419.79	6371.2	
419.99	5345.9	
420.2	5784.1	
420.4	7192.5	
420.6	7512.6	
420.8	5244.8	
421.01	5050.3	
421.21	7098.3	
421.41	7367.9	
421.61	5665.4	
421.82	5278.3	
422.02	6539.8	
422.22	7493.5	
422.42	6156.2	
422.63	5825.8	
422.83	6705	
423.03	7997.3	
423.23	5798.5	
423.44	4683	
423.64	6834.8	
423.84	6440.2	
424.04	5192.3	
424.25	4870.1	
424.45	7735.9	
424.65	7664.2	
424.85	4567.7	
425.06	5239.4	
425.26	7661.5	
425.46	6039.5	
425.66	5795.1	
425.87	5356.1	
426.07	7419.1	
426.27	7340.6	
426.47	5507.7	
426.67	4869.4	
426.88	7738.6	
427.08	7126.2	
427.28	5797.8	
427.48	4784.7	
427.69	6026.5	
427.89	6670.2	
428.09	5786.2	
428.29	4853.7	
428.5	7479.9	
428.7	6922.1	
428.9	4601.1	
429.1	5251	
429.3	6740.5	
429.51	7223.2	
429.71	5074.2	
429.91	5866.7	
430.11	7120.1	
430.31	7309.2	
430.52	5412.8	
430.72	5702.2	
430.92	7687.4	
431.12	7122.8	
431.32	5006.6	
431.53	5406.6	
431.73	5894.1	
431.93	7777.5	
432.13	4919.9	
432.33	4771.8	
432.54	6504.3	
432.74	6887.3	
432.94	4666.6	
433.14	5797.1	
433.34	6974.7	
433.55	6502.3	
433.75	5737.7	
433.95	7596.6	
434.15	6782.2	
434.35	6438.8	
434.56	4868	
434.76	4277.5	
434.96	6729.6	
435.16	7019.1	
435.36	4702.1	
435.56	5898.8	
435.77	6322.1	
435.97	6573.3	
436.17	6658.6	
436.37	5919.3	
436.57	6308.4	
436.78	6187.6	
436.98	6355.5	
437.18	6467.5	
437.38	6961	
437.58	6595.1	
437.78	6635.4	
437.99	5123.3	
438.19	7023.9	
438.39	7909.3	
438.59	5096.7	
438.79	4561.5	
438.99	7783.6	
439.2	6470.2	
439.4	4721.3	
439.6	4597	
439.8	6827.2	
440	7998	
440.2	5734.3	
440.4	5843.5	
440.61	7202.7	
440.81	7862.8	
441.01	4850.3	
441.21	5778	
441.41	7567.9	
441.61	7210.2	
441.81	6105.7	
442.02	7189.7	
442.22	8144.1	
442.42	7254.6	
442.62	4779.3	
442.82	4988.2	
443.02	7651.2	
443.22	6674.3	
443.43	5360.9	
443.63	4793.6	
443.83	6436.8	
444.03	6382.2	
444.23	6190.3	
444.43	5749.3	
444.63	6813.6	
444.83	8113.4	
445.04	4891.9	
445.24	6372.6	
445.44	7164.5	
445.64	7296.9	
445.84	5808.7	
446.04	5872.2	
446.24	6538.5	
446.44	7569.3	
446.65	4924	
446.85	5354.1	
447.05	6929	
447.25	7537.2	
447.45	5450.3	
447.65	4810	
447.85	6782.9	
448.05	6535.1	
448.25	5904.3	
448.46	5646.2	
448.66	6810.9	
448.86	6572.6	
449.06	4560.8	
449.26	5857.9	
449.46	7199.3	
449.66	6154.8	
449.86	5322.7	
450.06	5278.3	
450.26	6383.5	
450.47	6936.5	
450.67	5575.9	
450.87	5955.5	
451.07	7008.8	
451.27	6814.3	
451.47	4817.5	
451.67	5406.6	
451.87	6451.8	
452.07	7774.8	
452.27	5070.8	
452.47	5086.5	
452.67	6733	
452.88	7309.9	
453.08	4369.7	
453.28	6542.6	
453.48	8004.1	
453.68	6679.1	
453.88	4870.1	
454.08	5184.1	
454.28	7065.5	
454.48	6703.7	
454.68	5780.1	
454.88	6311.8	
455.08	7139.9	
455.28	6931.7	
455.48	4730.1	
455.68	5385.5	
455.89	7692.2	
456.09	7201.3	
456.29	5061.2	
456.49	5110.4	
456.69	7522.2	
456.89	6679.8	
457.09	5695.4	
457.29	5987.6	
457.49	7026.6	
457.69	7159	
457.89	5403.9	
458.09	4760.2	
458.29	6668.9	
458.49	7499.7	
458.69	5801.2	
458.89	5231.2	
459.09	7707.9	
459.29	7899	
459.49	5367	
459.69	6205.3	
459.9	7269.6	
460.1	6671.6	
460.3	5219.6	
460.5	4989.5	
460.7	7173.4	
460.9	6898.2	
461.1	4560.8	
461.3	5933.6	
461.5	7807.5	
461.7	7365.2	
461.9	4923.3	
462.1	5569.8	
462.3	6773.3	
462.5	7441.6	
462.7	5012.1	
462.9	5082.4	
463.1	8498.4	
463.3	8087.4	
463.5	5335.6	
463.7	6166.4	
463.9	6984.9	
464.1	7361.8	
464.3	5350	
464.5	5670.8	
464.7	7629.4	
464.9	7153.6	
465.1	7073.7	
465.3	5943.2	
465.5	8026.7	
465.7	7848.5	
465.9	6222.4	
466.1	6057.2	
466.3	7706.5	
466.5	7523.6	
466.7	6944.7	
466.9	5706.3	
467.1	7410.9	
467.3	8467	
467.5	6791.7	
467.7	5609.4	
467.9	8647.2	
468.1	9733.3	
468.3	6595.1	
468.5	6891.4	
468.7	7385.7	
468.9	7420.5	
469.1	5868.8	
469.3	6671.6	
469.5	9506.7	
469.7	6840.2	
469.9	6472.3	
470.1	5644.2	
470.3	7320.1	
470.5	7329	
470.7	6993.8	
470.9	5717.9	
471.1	7021.8	
471.3	7677.2	
471.5	5442.8	
471.69	7664.9	
471.89	6936.5	
472.09	6461.3	
472.29	6445	
472.49	6825.2	
472.69	6718.7	
472.89	7621.2	
473.09	5431.2	
473.29	5623	
473.49	6845.7	
473.69	7084.6	
473.89	6696.9	
474.09	5763.7	
474.29	8482	
474.49	8141.4	
474.69	6545.3	
474.89	5896.1	
475.09	7150.1	
475.29	7038.9	
475.49	5344.5	
475.69	5541.8	
475.88	8828.1	
476.08	7404.1	
476.28	5206.6	
476.48	5802.6	
476.68	7892.2	
476.88	7763.2	
477.08	5612.8	
477.28	5838.8	
477.48	7167.2	
477.68	7916.1	
477.88	5315.8	
478.08	5773.9	
478.28	8216.5	
478.48	7251.9	
478.67	5681.7	
478.87	5212.1	
479.07	8000	
479.27	7466.2	
479.47	6023.1	
479.67	5924.1	
479.87	7716.7	
480.07	8314.1	
480.27	5113.8	
480.47	6944	
480.67	7431.4	
480.87	7996	
481.06	5430.5	
481.26	6354.2	
481.46	7296.2	
481.66	7306.5	
481.86	5905.7	
482.06	7043	
482.26	6973.3	
482.46	8166.6	
482.66	5848.3	
482.86	5460.6	
483.05	7350.2	
483.25	6796.5	
483.45	8423.3	
483.65	5810.8	
483.85	6942.6	
484.05	7206.1	
484.25	6319.3	
484.45	6799.3	
484.65	8183.7	
484.84	8114.7	
485.04	5597.8	
485.24	5627.1	
485.44	8353.7	
485.64	6536.4	
485.84	4857.8	
486.04	6376.7	
486.24	6879.1	
486.44	7400.7	
486.63	4876.2	
486.83	5651.7	
487.03	6757.6	
487.23	6980.8	
487.43	4955.4	
487.63	7499	
487.83	7036.1	
488.02	8092.2	
488.22	5906.3	
488.42	6579.4	
488.62	7987.1	
488.82	6849.1	
489.02	5542.5	
489.22	5558.2	
489.41	7895.6	
489.61	7382.2	
489.81	5216.9	
490.01	5258.5	
490.21	7656.7	
490.41	8410.3	
490.61	5190.2	
490.8	5356.1	
491	7156.3	
491.2	6450.4	
491.4	6030.6	
491.6	5058.5	
491.8	7208.2	
491.99	7331.7	
492.19	5001.1	
492.39	5410.7	
492.59	7742.7	
492.79	7760.4	
492.99	6226.5	
493.18	5134.9	
493.38	7753.6	
493.58	8521.6	
493.78	5941.2	
493.98	5535	
494.18	7389.8	
494.37	6773.3	
494.57	6098.9	
494.77	5975.3	
494.97	7505.8	
495.17	7827.3	
495.37	5446.9	
495.56	5799.8	
495.76	7878.5	
495.96	7606.2	
496.16	6741.2	
496.36	5500.2	
496.55	7703.1	
496.75	7217	
496.95	5938.4	
497.15	5832.6	
497.35	7746.8	
497.54	7602.7	
497.74	5656.5	
497.94	7455.3	
498.14	8424.7	
498.34	8144.1	
498.53	5244.8	
498.73	6041.5	
498.93	6983.6	
499.13	7562.5	
499.33	5880.4	
499.52	6550.1	
499.72	7496.2	
499.92	7970.7	
500.12	5488.6	
500.32	5750.7	
500.51	7897.7	
500.71	7602.1	
500.91	6613.6	
501.11	6191	
501.31	7675.1	
501.5	8174.8	
501.7	6867.5	
501.9	5718.6	
502.1	7537.2	
502.29	7808.2	
502.49	6224.5	
502.69	6760.3	
502.89	7735.9	
503.09	7720.2	
503.28	5278.3	
503.48	5464.7	
503.68	6940.6	
503.88	7007.5	
504.07	6498.2	
504.27	5872.9	
504.47	7406.1	
504.67	7552.9	
504.86	6325.5	
505.06	5949.3	
505.26	7087.3	
505.46	9090.3	
505.65	5897.5	
505.85	6166.4	
506.05	7017	
506.25	7492.8	
506.44	5252.4	
506.64	6318.7	
506.84	6967.9	
507.04	8030.1	
507.23	5477	
507.43	6167.1	
507.63	9133.9	
507.83	7143.3	
508.02	6109.8	
508.22	5670.1	
508.42	9342.2	
508.62	6952.2	
508.81	6135	
509.01	6544.6	
509.21	6900.3	
509.4	7062.1	
509.6	6143.2	
509.8	5514.5	
510	7086.7	
510.19	8712.1	
510.39	5526.8	
510.59	5556.1	
510.79	6758.3	
510.98	8353	
511.18	5603.9	
511.38	5697.4	
511.57	7740	
511.77	7536.5	
511.97	6414.9	
512.17	5373.2	
512.36	7677.8	
512.56	7680.6	
512.76	5440.1	
512.95	5172.5	
513.15	7839.6	
513.35	6366.5	
513.55	6305	
513.74	5446.9	
513.94	7823.9	
514.14	7104.4	
514.33	6466.8	
514.53	6167.1	
514.73	7049.1	
514.92	7276.4	
515.12	5593.7	
515.32	5335.6	
515.51	7357	
515.71	7951.6	
515.91	7196.6	
516.11	5370.5	
516.3	9129.2	
516.5	6842.3	
516.7	6006	
516.89	6600.6	
517.09	7059.3	
517.29	6924.2	
517.48	6408.1	
517.68	5713.8	
517.88	6686.6	
518.07	7402	
518.27	6171.9	
518.47	5194.3	
518.66	7963.9	
518.86	6450.4	
519.06	4982.7	
519.25	5533.6	
519.45	6920.8	
519.65	8575.5	
519.84	6158.2	
520.04	6892.1	
520.24	8831.5	
520.43	7621.2	
520.63	5872.9	
520.83	5553.4	
521.02	6696.2	
521.22	7416.4	
521.42	6326.9	
521.61	6807.4	
521.81	6958.3	
522.01	7178.8	
522.2	6033.3	
522.4	5769.8	
522.6	7673.1	
522.79	6427.9	
522.99	5810.8	
523.18	5105.6	
523.38	7324.2	
523.58	7333.8	
523.77	7098.3	
523.97	4949.9	
524.17	9217.2	
524.36	8310.7	
524.56	6257.2	
524.76	5967.1	
524.95	7161.7	
525.15	6793.8	
525.34	5704.3	
525.54	5707.7	
525.74	7514.7	
525.93	6414.2	
526.13	6997.2	
526.33	5529.5	
526.52	7841.7	
526.72	7305.1	
526.91	6906.4	
527.11	6063.4	
527.31	7920.9	
527.5	8290.2	
527.7	5952.1	
527.89	4887.1	
528.09	6538.5	
528.29	7205.4	
528.48	6354.2	
528.68	5993	
528.87	7582.9	
529.07	7725.6	
529.27	5784.1	
529.46	5422.3	
529.66	7197.9	
529.85	7727.7	
530.05	5138.4	
530.25	5973.2	
530.44	8657.4	
530.64	7136.5	
530.83	5594.4	
531.03	5876.3	
531.23	7540.6	
531.42	7481.9	
531.62	6715.3	
531.81	5741.1	
532.01	7620.5	
532.21	8136.6	
532.4	5386.2	
532.6	5876.3	
532.79	8658.1	
532.99	7677.2	
533.18	5825.8	
533.38	6884.6	
533.58	7071.6	
533.77	7982.3	
533.97	5709.7	
534.16	6634.7	
534.36	8147.5	
534.55	7059.3	
534.75	6774	
534.95	5748	
535.14	7879.2	
535.34	7117.4	
535.53	5393.7	
535.73	7531.1	
535.92	8499.8	
536.12	7393.8	
536.31	5456.5	
536.51	6797.2	
536.71	7589.1	
536.9	7130.3	
537.1	5762.3	
537.29	5803.3	
537.49	8073.1	
537.68	7000.6	
537.88	6158.2	
538.07	5382.1	
538.27	7271	
538.46	8359.8	
538.66	5190.2	
538.86	5677.7	
539.05	7261.4	
539.25	7752.2	
539.44	5968.5	
539.64	5661.3	
539.83	7136.5	
540.03	8221.9	
540.22	5479	
540.42	5691.3	
540.61	7488.7	
540.81	7487.4	
541	6143.9	
541.2	6725.5	
541.39	6972.7	
541.59	7432.1	
541.78	6489.3	
541.98	5539.8	
542.18	6685.3	
542.37	6679.1	
542.57	5924.8	
542.76	6487.3	
542.96	6660.7	
543.15	7508.5	
543.35	6065.4	
543.54	5255.8	
543.74	7949.5	
543.93	7404.1	
544.13	6008.7	
544.32	7198.6	
544.52	7844.4	
544.71	6845	
544.91	5048.9	
545.1	6460	
545.3	6976.7	
545.49	7656.7	
545.69	5043.5	
545.88	5618.9	
546.08	8733.9	
546.27	8262.9	
546.47	6220.4	
546.66	5517.9	
546.86	7974.8	
547.05	8548.2	
547.24	5745.2	
547.44	5616.2	
547.63	6740.5	
547.83	8088.8	
548.02	5951.4	
548.22	6209.4	
548.41	6556.2	
548.61	8079.9	
548.8	5500.8	
549	5414.8	
549.19	7365.2	
549.39	7674.4	
549.58	5176.6	
549.78	5790.3	
549.97	7707.9	
550.17	7237.5	
550.36	6721.4	
550.55	7827.3	
550.75	7185.6	
550.94	8292.9	
551.14	5368.4	
551.33	5879.7	
551.53	6457.2	
551.72	7545.4	
551.92	5922	
552.11	5629.2	
552.31	7670.3	
552.5	7690.8	
552.69	7560.4	
552.89	5274.2	
553.08	7589.8	
553.28	7335.8	
553.47	5679.7	
553.67	6875.7	
553.86	8312.7	
554.06	6561.7	
554.25	4794.3	
554.44	5517.2	
554.64	9185.1	
554.83	8549.6	
555.03	5455.1	
555.22	5852.4	
555.42	7881.9	
555.61	7524.9	
555.8	5665.4	
556	6006	
556.19	6584.2	
556.39	8136.6	
556.58	5686.5	
556.78	5722	
556.97	7433.4	
557.16	7060	
557.36	6999.3	
557.55	5285.1	
557.75	6371.2	
557.94	8216.5	
558.13	5463.3	
558.33	5150	
558.52	7926.3	
558.72	6827.2	
558.91	5274.9	
559.1	5659.9	
559.3	6492.7	
559.49	6258.6	
559.69	4832.5	
559.88	5978.7	
560.07	7396.6	
560.27	7914.7	
560.46	6145.3	
560.66	6352.8	
560.85	7148.8	
561.04	6371.9	
561.24	5280.3	
561.43	5532.2	
561.63	6559.6	
561.82	6898.9	
562.01	6897.6	
562.21	5838.1	
562.4	7333.8	
562.59	8277.9	
562.79	5672.2	
562.98	5279.7	
563.18	7190.4	
563.37	8776.2	
563.56	6196.5	
563.76	5136.3	
563.95	6655.9	
564.14	6540.5	
564.34	5535	
564.53	5375.2	
564.73	7259.4	
564.92	7570.7	
565.11	5694.7	
565.31	5039.4	
565.5	7791.2	
565.69	6653.9	
565.89	5274.9	
566.08	5558.9	
566.27	7746.1	
566.47	8019.8	
566.66	6274.3	
566.85	4752	
567.05	7194.5	
567.24	6617	
567.44	5216.9	
567.63	6625.2	
567.82	7435.5	
568.02	7135.8	
568.21	5157.5	
568.4	5639.4	
568.6	7016.3	
568.79	7027.9	
568.98	4971.8	
569.18	5093.3	
569.37	7030	
569.56	9203.6	
569.76	5455.1	
569.95	6521.4	
570.14	7485.3	
570.34	7272.3	
570.53	5024.3	
570.72	4981.3	
570.91	7807.5	
571.11	6920.1	
571.3	5575.3	
571.49	6515.3	
571.69	6944	
571.88	6499.6	
572.07	6093.4	
572.27	6062	
572.46	6468.2	
572.65	7628	
572.85	5260.5	
573.04	5620.3	
573.23	7797.3	
573.43	6956.9	
573.62	4947.2	
573.81	5666	
574	6959	
574.2	6837.5	
574.39	5271.5	
574.58	5577.3	
574.78	7897	
574.97	7062.8	
575.16	5797.1	
575.36	6015.6	
575.55	7418.4	
575.74	7596.6	
575.93	4848.9	
576.13	5931.6	
576.32	6759	
576.51	7392.5	
576.71	5298.8	
576.9	6756.9	
577.09	7741.3	
577.28	7228	
577.48	5728.9	
577.67	4748.6	
577.86	6884.6	
578.05	7148.1	
578.25	5397.8	
578.44	5582.1	
578.63	6931.7	
578.83	8224.6	
579.02	4849.6	
579.21	6438.1	
579.4	7163.8	
579.6	6780.1	
579.79	5582.1	
579.98	7951.6	
580.17	7600	
580.37	7527	
580.56	5050.3	
580.75	5805.3	
580.94	8047.2	
581.14	7862.8	
581.33	6306.4	
581.52	5163.6	
581.71	7395.9	
581.91	8043.7	
582.1	4695.3	
582.29	5509	
582.48	7035.5	
582.68	6792.4	
582.87	5969.8	
583.06	5583.4	
583.25	7212.9	
583.45	6538.5	
583.64	6201.2	
583.83	7045	
584.02	6771.3	
584.21	7213.6	
584.41	6263.4	
584.6	5451	
584.79	6874.3	
584.98	7727	
585.18	4827.7	
585.37	4909.7	
585.56	6434	
585.75	7290.1	
585.94	5126.1	
586.14	5925.5	
586.33	7988.4	
586.52	6950.1	
586.71	5719.3	
586.91	5436	
587.1	6331	
587.29	7479.9	
587.48	5390.9	
587.67	5309.7	
587.87	7282.6	
588.06	7473	
588.25	6773.3	
588.44	6059.3	
588.63	7110.5	
588.83	7672.4	
589.02	5353.4	
589.21	5384.1	
589.4	6885.3	
589.59	6703.7	
589.78	4693.9	
589.98	5051	
590.17	6462.7	
590.36	7124.2	
590.55	4444.1	
590.74	5492.7	
590.94	8613.8	
591.13	7105.8	
591.32	5153.4	
591.51	4616.8	
591.7	7509.9	
591.89	6899.6	
592.09	4704.9	
592.28	5335.6	
592.47	6160.3	
592.66	8114.7	
592.85	4698.7	
593.05	4900.8	
593.24	6756.2	
593.43	7593.2	
593.62	4921.3	
593.81	5510.4	
594	6733.7	
594.19	6978.1	
594.39	4914.4	
594.58	4874.2	
594.77	7212.3	
594.96	7790.5	
595.15	4886.5	
595.34	5591	
595.54	7235.5	
595.73	6239.5	
595.92	4189.5	
596.11	5436.7	
596.3	7714.7	
596.49	6364.4	
596.68	5251	
596.88	5703.6	
597.07	7487.4	
597.26	6111.8	
597.45	4689.8	
597.64	5982.8	
597.83	6428.6	
598.02	6982.2	
598.22	4784.7	
598.41	5485.8	
598.6	6823.1	
598.79	6199.2	
598.98	4772.4	
599.17	5777.3	
599.36	6996.5	
599.55	8107.2	
599.74	7090.8	
599.94	6754.2	
600.13	7461.4	
600.32	6281.8	
600.51	4485.1	
600.7	4713.1	
600.89	8152.3	
601.08	8234.9	
601.27	4478.9	
601.47	5531.6	
601.66	7341.3	
601.85	8097	
602.04	5216.2	
602.23	5709.7	
602.42	6379.4	
602.61	7079.1	
602.8	5130.2	
602.99	4915.8	
603.18	6673.6	
603.37	7002	
603.57	5640.1	
603.76	6163	
603.95	7873.8	
604.14	7261.4	
604.33	4946.5	
604.52	5324	
604.71	6946	
604.9	6539.8	
605.09	5950	
605.28	5765	
605.47	7626.6	
605.66	7260	
605.86	5580.7	
606.05	4954.7	
606.24	7615	
606.43	6063.4	
606.62	5292.6	
606.81	6173.3	
607	7435.5	
607.19	6677.7	
607.38	4759.5	
607.57	5000.5	
607.76	6430.6	
607.95	5886.5	
608.14	5434.6	
608.33	6092.7	
608.52	6492.7	
608.72	7389.8	
608.91	4610	
609.1	4551.3	
609.29	6520	
609.48	6107.7	
609.67	5591	
609.86	4631.8	
610.05	6149.4	
610.24	6610.2	
610.43	4440.7	
610.62	4086.4	
610.81	7845.1	
611	7406.8	
611.19	4595	
611.38	5395.7	
611.57	6886.6	
611.76	8303.1	
611.95	4446.1	
612.14	4243.4	
612.33	6673	
612.52	6181.5	
612.71	5018.2	
612.9	4136.9	
613.09	5741.1	
613.28	8193.9	
613.47	4725.3	
613.66	5762.3	
613.85	6783.6	
614.04	6342.6	
614.24	4819.6	
614.43	3939.6	
614.62	6933.1	
614.81	6883.2	
615	5455.1	
615.19	5486.5	
615.38	6139.8	
615.57	6496.2	
615.76	5198.4	
615.95	6177.4	
616.14	6943.3	
616.33	6547.4	
616.52	5515.9	
616.71	5776.6	
616.9	6961.7	
617.09	6671.6	
617.28	4827.1	
617.47	6433.4	
617.66	5921.4	
617.85	5945.9	
618.04	5843.5	
618.22	5200.5	
618.41	6214.9	
618.6	7173.4	
618.79	5088.5	
618.98	4678.2	
619.17	7541.3	
619.36	5698.1	
619.55	4831.2	
619.74	4950.6	
619.93	6704.4	
620.12	6100.2	
620.31	5441.5	
620.5	5595.1	
620.69	7245	
620.88	7655.3	
621.07	6379.4	
621.26	5301.5	
621.45	6765.1	
621.64	6909.2	
621.83	5418.9	
622.02	4579.3	
622.21	6869.6	
622.4	6591	
622.59	6054.5	
622.78	5797.8	
622.97	6202.6	
623.16	7293.5	
623.35	5332.2	
623.54	4435.9	
623.72	6422.4	
623.91	6567.2	
624.1	5633.3	
624.29	4229.7	
624.48	7686	
624.67	6876.4	
624.86	5495.4	
625.05	4451.6	
625.24	7770.7	
625.43	6062	
625.62	7360.4	
625.81	4625	
626	7197.2	
626.19	6369.9	
626.38	5497.4	
626.56	4849.6	
626.75	6256.5	
626.94	6656.6	
627.13	5579.3	
627.32	4165.6	
627.51	7019.1	
627.7	8297.7	
627.89	4356.7	
628.08	5550	
628.27	6045.6	
628.46	6348.7	
628.65	4624.3	
628.83	4255.7	
629.02	6903	
629.21	6176	
629.4	5147.9	
629.59	5363.6	
629.78	6089.3	
629.97	7136.5	
630.16	5399.1	
630.35	4779.3	
630.54	7542.7	
630.72	7220.5	
630.91	4744.5	
631.1	5353.4	
631.29	6683.2	
631.48	6896.2	
631.67	5450.3	
631.86	4947.9	
632.05	6221	
632.24	6332.3	
632.42	4573.8	
632.61	5190.9	
632.8	6552.1	
632.99	6057.9	
633.18	5113.1	
633.37	5657.9	
633.56	6647	
633.75	6501.6	
633.93	5130.8	
634.12	4868.7	
634.31	7509.9	
634.5	7146	
634.69	4842.1	
634.88	5458.5	
635.07	6410.1	
635.25	7035.5	
635.44	5872.2	
635.63	6093.4	
635.82	6303.6	
636.01	5735.7	
636.2	5827.2	
636.39	5280.3	
636.57	7446.4	
636.76	7177.4	
636.95	4673.5	
637.14	6175.3	
637.33	6742.6	
637.52	7762.5	
637.7	4521.9	
637.89	5522.7	
638.08	6326.9	
638.27	7986.4	
638.46	5534.3	
638.65	6077	
638.83	7981.6	
639.02	6167.8	
639.21	5517.9	
639.4	6031.3	
639.59	6704.4	
639.78	6287.9	
639.96	4769.7	
640.15	4827.1	
640.34	6551.5	
640.53	6822.5	
640.72	4507.6	
640.91	4918.5	
641.09	6070.9	
641.28	7464.8	
641.47	4911	
641.66	5818.3	
641.85	6728.3	
642.03	7040.9	
642.22	5529.5	
642.41	4977.2	
642.6	6100.2	
642.79	5525.4	
642.97	4747.9	
643.16	5622.4	
643.35	6070.9	
643.54	5991.7	
643.73	4710.3	
643.91	5571.8	
644.1	5844.2	
644.29	6431.3	
644.48	4885.8	
644.67	4877.6	
644.85	6169.2	
645.04	6457.9	
645.23	4458.4	
645.42	4705.5	
645.6	6010.1	
645.79	7316.7	
645.98	4898.7	
646.17	3870	
646.36	5786.9	
646.54	6522.1	
646.73	5829.9	
646.92	4456.4	
647.11	6136.4	
647.29	7314.7	
647.48	4601.8	
647.67	4493.9	
647.86	7524.2	
648.05	7528.3	
648.23	5014.1	
648.42	6348.7	
648.61	6875.7	
648.8	6586.3	
648.98	4610	
649.17	4974.5	
649.36	6031.3	
649.55	5521.3	
649.73	4687.8	
649.92	5471.5	
650.11	6002.6	
650.3	6427.2	
650.48	4800.4	
650.67	4517.8	
650.86	6632	
651.05	5529.5	
651.23	4789.5	
651.42	4790.2	
651.61	6072.2	
651.79	6322.1	
651.98	4970.4	
652.17	4520.5	
652.36	6624.5	
652.54	5651.7	
652.73	4580.6	
652.92	4455.7	
653.11	6652.5	
653.29	6787.7	
653.48	3859.1	
653.67	5003.9	
653.85	6400.6	
654.04	7557.7	
654.23	5259.9	
654.42	4765.6	
654.6	6087.2	
654.79	6800.6	
654.98	4248.2	
655.16	4886.5	
655.35	5633.3	
655.54	5550.7	
655.73	4411.3	
655.91	4297.3	
656.1	6886	
656.29	5551.4	
656.47	3796.3	
656.66	5660.6	
656.85	5849.7	
657.03	5800.5	
657.22	4364.2	
657.41	4470.7	
657.59	5893.4	
657.78	5679	
657.97	3970.3	
658.16	4859.1	
658.34	6610.8	
658.53	7077.1	
658.72	5758.2	
658.9	6407.4	
659.09	5936.4	
659.28	6016.9	
659.46	4450.2	
659.65	4443.4	
659.84	5737	
660.02	6285.9	
660.21	4309.6	
660.4	4293.2	
660.58	6811.5	
660.77	6040.1	
660.96	4954.7	
661.14	3856.3	
661.33	7324.2	
661.52	7212.9	
661.7	3874.8	
661.89	7899.7	
662.08	5766.4	
662.26	5274.2	
662.45	4155.3	
662.64	4358.1	
662.82	6376	
663.01	5616.2	
663.2	4410	
663.38	5218.9	
663.57	6360.3	
663.75	6237.4	
663.94	4757.4	
664.13	6083.1	
664.31	5685.8	
664.5	6457.9	
664.69	4840	
664.87	5584.1	
665.06	5449	
665.25	6208.1	
665.43	5788.9	
665.62	5941.8	
665.8	6669.6	
665.99	5884.5	
666.18	4669.4	
666.36	4786.8	
666.55	6527.6	
666.74	6408.8	
666.92	4336.9	
667.11	6117.3	
667.29	5865.4	
667.48	6536.4	
667.67	5704.3	
667.85	4739	
668.04	6019	
668.22	5883.1	
668.41	4731.5	
668.6	4930.1	
668.78	5629.9	
668.97	5930.2	
669.15	5146.5	
669.34	4070	
669.53	5662	
669.71	6081.1	
669.9	4282.3	
670.08	5025.7	
670.27	5673.6	
670.46	6331.6	
670.64	5193.6	
670.83	5440.1	
671.01	5588.9	
671.2	6258.6	
671.38	4332.8	
671.57	4250.9	
671.76	6915.3	
671.94	7519.5	
672.13	4162.8	
672.31	5448.3	
672.5	6462	
672.69	5681.1	
672.87	4363.5	
673.06	4721.3	
673.24	6275.7	
673.43	5729.5	
673.61	5197.7	
673.8	4713.7	
673.98	6555.5	
674.17	6703	
674.36	5284.4	
674.54	5137.7	
674.73	6331	
674.91	6462.7	
675.1	4794.3	
675.28	4473.4	
675.47	6044.9	
675.65	6598.6	
675.84	4651.6	
676.03	4982.7	
676.21	5640.8	
676.4	5236	
676.58	5541.1	
676.77	5197.1	
676.95	7321.5	
677.14	5709.1	
677.32	4358.8	
677.51	4085.7	
677.69	6592.4	
677.88	5299.5	
678.06	4110.3	
678.25	4270	
678.44	6016.2	
678.62	5731.6	
678.81	4003.8	
678.99	5063.9	
679.18	6879.1	
679.36	6357.6	
679.55	4644.8	
679.73	5337.7	
679.92	6367.1	
680.1	5690.6	
680.29	5989.6	
680.47	4615.4	
680.66	5642.2	
680.84	6620.4	
681.03	3846.8	
681.21	5094.7	
681.4	5748.6	
681.58	5573.2	
681.77	4366.3	
681.95	4273.4	
682.14	6646.3	
682.32	7050.5	
682.51	5365	
682.69	4098.7	
682.88	5688.6	
683.06	6450.4	
683.25	5072.8	
683.43	5477.6	
683.62	6000.5	
683.8	6415.6	
683.99	5687.9	
684.17	4972.5	
684.36	7318.1	
684.54	6005.3	
684.73	4162.8	
684.91	4447.5	
685.1	6453.1	
685.28	5839.4	
685.46	5076.2	
685.65	5130.8	
685.83	6731	
686.02	6094.8	
686.2	4522.6	
686.39	4710.3	
686.57	5720	
686.76	7351.5	
686.94	4515.1	
687.13	4601.8	
687.31	6534.4	
687.5	5967.8	
687.68	4090.5	
687.86	5474.2	
688.05	7745.4	
688.23	5446.2	
688.42	5474.9	
688.6	4544.4	
688.79	5823.7	
688.97	5853.8	
689.16	4939	
689.34	3753.9	
689.52	6620.4	
689.71	6844.3	
689.89	5231.9	
690.08	4453.6	
690.26	6129.6	
690.45	5957.5	
690.63	5445.5	
690.81	4580.6	
691	5782.1	
691.18	5791.7	
691.37	4828.4	
691.55	7253.2	
691.74	5816.2	
691.92	7929.7	
692.1	4883.7	
692.29	4234.5	
692.47	5998.5	
692.66	5220.3	
692.84	4476.2	
693.02	4984.1	
693.21	5398.4	
693.39	5949.3	
693.58	5104.2	
693.76	4513	
693.94	7222.5	
694.13	6908.5	
694.31	4393.6	
694.5	5575.3	
694.68	5676.3	
694.86	5974.6	
695.05	4805.2	
695.23	5240.1	
695.42	6382.2	
695.6	8955.8	
695.78	5487.2	
695.97	4533.5	
696.15	6389.7	
696.34	5819.6	
696.52	4300.1	
696.7	5158.2	
696.89	6236.7	
697.07	5636	
697.25	5117.9	
697.44	6867.5	
697.62	6143.9	
697.81	6567.8	
697.99	4779.3	
698.17	5302.9	
698.36	5503.6	
698.54	6221.7	
698.72	5237.3	
698.91	4126.7	
699.09	5803.3	
699.28	5724.8	
699.46	4823.6	
699.64	4605.2	
699.83	5567.1	
700.01	7081.9	
700.19	5541.8	
700.38	3820.1	
700.56	6870.9	
700.74	5701.5	
700.93	4216.1	
701.11	5123.3	
701.29	6315.3	
701.48	7479.2	
701.66	4476.2	
701.84	4487.8	
702.03	5798.5	
702.21	6463.4	
702.39	4003.1	
702.58	4574.5	
702.76	6184.9	
702.94	6340.5	
703.13	3994.2	
703.31	6707.1	
703.49	5470.8	
703.68	6639.5	
703.86	4211.3	
704.04	5279.7	
704.23	6023.1	
704.41	6457.9	
704.59	4414.7	
704.78	5849.7	
704.96	7189.1	
705.14	6600.6	
705.33	4194.9	
705.51	5104.9	
705.69	5853.1	
705.87	6751.5	
706.06	5418.2	
706.24	4073.4	
706.42	6149.4	
706.61	6470.2	
706.79	5397.8	
706.97	4207.9	
707.16	5544.5	
707.34	6289.3	
707.52	5362.9	
707.7	4441.4	
707.89	5735.7	
708.07	5470.8	
708.25	5410.1	
708.44	5507	
708.62	5698.8	
708.8	6994.5	
708.98	5698.8	
709.17	4525.3	
709.35	6184.2	
709.53	6191.7	
709.72	4158.1	
709.9	4356	
710.08	6407.4	
710.26	6464.8	
710.45	6006	
710.63	4704.9	
710.81	6092	
710.99	6130.9	
711.18	5278.3	
711.36	4740.4	
711.54	5914.5	
711.72	6774	
711.91	4814.8	
712.09	4256.4	
712.27	6229.9	
712.45	6854.6	
712.64	5239.4	
712.82	4023.6	
713	5652.4	
713.18	5870.2	
713.37	4316.4	
713.55	5880.4	
713.73	6926.2	
713.91	5403.9	
714.1	4851	
714.28	4343.7	
714.46	6727.6	
714.64	5832.6	
714.83	3857.7	
715.01	4738.3	
715.19	6010.8	
715.37	5418.9	
715.55	4549.9	
715.74	4873.5	
715.92	7114.6	
716.1	4941.1	
716.28	6104.3	
716.47	5119.9	
716.65	5735	
716.83	5783.5	
717.01	4950.6	
717.19	4988.2	
717.38	8081.3	
717.56	5458.5	
717.74	5139.7	
717.92	4212.7	
718.1	6733	
718.29	5853.8	
718.47	3740.3	
718.65	4435.2	
718.83	6513.2	
719.01	6331.6	
719.2	3504.8	
719.38	4723.3	
719.56	6054.5	
719.74	7846.5	
719.92	4266.6	
720.11	5430.5	
720.29	6167.1	
720.47	5253.7	
720.65	3863.8	
720.83	4825.7	
721.02	5658.5	
721.2	5414.1	
721.38	4993.6	
721.56	4113	
721.74	4963.6	
721.92	5236	
722.11	5514.5	
722.29	5184.1	
722.47	6503.7	
722.65	5629.9	
722.83	4213.4	
723.01	5230.5	
723.2	5770.5	
723.38	6066.8	
723.56	3545	
723.74	4945.2	
723.92	5186.1	
724.1	6520	
724.29	4098	
724.47	5356.1	
724.65	5292	
724.83	5165.7	
725.01	3967.6	
725.19	4976.6	
725.37	5273.5	
725.56	5392.3	
725.74	3906.2	
725.92	4154	
726.1	5181.4	
726.28	5542.5	
726.46	4568.3	
726.64	4289.8	
726.83	5522	
727.01	5778.7	
727.19	3848.1	
727.37	4764.3	
727.55	5596.4	
727.73	6171.2	
727.91	3790.1	
728.09	3614	
728.28	6174.6	
728.46	6868.9	
728.64	4846.2	
728.82	4745.8	
729	7414.3	
729.18	6465.4	
729.36	3846.1	
729.54	6410.1	
729.72	7630	
729.91	5741.8	
730.09	5913.2	
730.27	4527.4	
730.45	5582.1	
730.63	6272.2	
730.81	5182	
730.99	4180.6	
731.17	6739.2	
731.35	5289.2	
731.53	4735.6	
731.71	4300.1	
731.9	6554.9	
732.08	6808.8	
732.26	4618.9	
732.44	4289.1	
732.62	6727.6	
732.8	6208.1	
732.98	5109	
733.16	4065.2	
733.34	6193.1	
733.52	4943.8	
733.7	4701.5	
733.88	4894	
734.07	6055.8	
734.25	5749.3	
734.43	4063.9	
734.61	5743.2	
734.79	7371.3	
734.97	5633.3	
735.15	4180.6	
735.33	4552.6	
735.51	6075	
735.69	5657.2	
735.87	5748	
736.05	4759.5	
736.23	5872.2	
736.41	5662	
736.59	4558.1	
736.77	4724	
736.95	6350.1	
737.13	5709.7	
737.32	4215.4	
737.5	4491.9	
737.68	6948.1	
737.86	5606	
738.04	4029	
738.22	6141.9	
738.4	5435.3	
738.58	5751.4	
738.76	4695.3	
738.94	3566.9	
739.12	5556.8	
739.3	5421.7	
739.48	5409.4	
739.66	5087.8	
739.84	5839.4	
740.02	5879.7	
740.2	3654.3	
740.38	4104.1	
740.56	6279.8	
740.74	5092.6	
740.92	4863.9	
741.1	4762.2	
741.28	5663.3	
741.46	5489.2	
741.64	4311.7	
741.82	4898.1	
742	5750	
742.18	5691.3	
742.36	4564.2	
742.54	4166.3	
742.72	6318	
742.9	4983.4	
743.08	5036	
743.26	3648.8	
743.44	6626.5	
743.62	6429.3	
743.8	5208.7	
743.98	4191.5	
744.16	6166.4	
744.34	5817.6	
744.52	5088.5	
744.7	5029.1	
744.88	6279.8	
745.06	5803.9	
745.24	5175.9	
745.42	5309.7	
745.6	6340.5	
745.78	6152.8	
745.96	3939.6	
746.14	4271.4	
746.32	7195.2	
746.5	6460.7	
746.68	4941.7	
746.86	4324.6	
747.03	6887.3	
747.21	5019.6	
747.39	4947.9	
747.57	4328.7	
747.75	5941.8	
747.93	6433.4	
748.11	4333.5	
748.29	4233.8	
748.47	7672.4	
748.65	5713.2	
748.83	5048.9	
749.01	4800.4	
749.19	6258.6	
749.37	5339.1	
749.55	4649.6	
749.73	4769	
749.91	5900.2	
750.09	5584.8	
750.26	4806.6	
750.44	4184	
750.62	5952.1	
750.8	5843.5	
750.98	3973.7	
751.16	4404.5	
751.34	5972.6	
751.52	5289.9	
751.7	5240.8	
751.88	3945.8	
752.06	6490.7	
752.24	6382.2	
752.42	3989.4	
752.59	4304.1	
752.77	5855.8	
752.95	7262.1	
753.13	5143.8	
753.31	4510.3	
753.49	5498.8	
753.67	6049	
753.85	4779.3	
754.03	4392.2	
754.21	6374	
754.38	6801.3	
754.56	4595.6	
754.74	3538.9	
754.92	5616.9	
755.1	6414.9	
755.28	3669.3	
755.46	3816.7	
755.64	7372	
755.82	7509.9	
755.99	4312.3	
756.17	4469.4	
756.35	4945.2	
756.53	6733	
756.71	3232.4	
756.89	4235.2	
757.07	6273.6	
757.25	5241.4	
757.42	4845.5	
757.6	5738.4	
757.78	6162.3	
757.96	4995	
758.14	4420.2	
758.32	3916.4	
758.5	4644.1	
758.67	5543.2	
758.85	4282.3	
759.03	4361.5	
759.21	5778.7	
759.39	5127.4	
759.57	3730	
759.75	5088.5	
759.92	6408.1	
760.1	5626.5	
760.28	5453.7	
760.46	5651	
760.64	5280.3	
760.82	5025	
760.99	5180.7	
761.17	4273.4	
761.35	6183.5	
761.53	5053	
761.71	4379.9	
761.89	5139	
762.06	6047	
762.24	5385.5	
762.42	4341.7	
762.6	4180.6	
762.78	5421.7	
762.96	6132.3	
763.13	4745.8	
763.31	4494.6	
763.49	6372.6	
763.67	5408	
763.85	5332.9	
764.02	6054.5	
764.2	6619	
764.38	5750	
764.56	4305.5	
764.74	5271.5	
764.91	6784.9	
765.09	5534.3	
765.27	3951.9	
765.45	3768.9	
765.63	6744.6	
765.8	6637.5	
765.98	3480.2	
766.16	3852.9	
766.34	5042.1	
766.52	4773.1	
766.69	4953.4	
766.87	3736.9	
767.05	5517.9	
767.23	6349.4	
767.41	4056.3	
767.58	4356.7	
767.76	6205.3	
767.94	6264.1	
768.12	4149.9	
768.29	5096	
768.47	5677.7	
768.65	6528.9	
768.83	3792.2	
769	5017.5	
769.18	5176.6	
769.36	5941.8	
769.54	5055.1	
769.72	3899.3	
769.89	6298.9	
770.07	6440.9	
770.25	4239.3	
770.43	5627.1	
770.6	7213.6	
770.78	7599.3	
770.96	4407.9	
771.14	5218.9	
771.31	6223.8	
771.49	5517.2	
771.67	3530.7	
771.85	3801	
772.02	4683	
772.2	5560.2	
772.38	4659.8	
772.55	4132.1	
772.73	5823.1	
772.91	5649	
773.09	4549.2	
773.26	4596.3	
773.44	5759.6	
773.62	5489.9	
773.8	3974.4	
773.97	3676.8	
774.15	5900.9	
774.33	5474.9	
774.5	3828.3	
774.68	4306.9	
774.86	6158.9	
775.04	5530.2	
775.21	4026.3	
775.39	4040	
775.57	5841.5	
775.74	6287.3	
775.92	3798.3	
776.1	3836.5	
776.27	5898.8	
776.45	7164.5	
776.63	3967.6	
776.81	3489.1	
776.98	5435.3	
777.16	6610.8	
777.34	4217.5	
777.51	4518.5	
777.69	5418.9	
777.87	5221	
778.04	4180.6	
778.22	4985.4	
778.4	5218.2	
778.57	5937.7	
778.75	3482.2	
778.93	3741	
779.1	5052.3	
779.28	4845.5	
779.46	3469.9	
779.64	4028.4	
779.81	6110.5	
779.99	7150.8	
780.17	4947.9	
780.34	5083.7	
780.52	5528.8	
780.69	5829.2	
780.87	4315.1	
781.05	3923.2	
781.22	5592.3	
781.4	5739.8	
781.58	4065.2	
781.75	3151.1	
781.93	5673.6	
782.11	5079	
782.28	5100.1	
782.46	4052.2	
782.64	4844.8	
782.81	5819.6	
782.99	4179.9	
783.17	4151.2	
783.34	5847	
783.52	4905.6	
783.69	4414.7	
783.87	5315.8	
784.05	4950.6	
784.22	5115.8	
784.4	5307.7	
784.58	4575.8	
784.75	6031.3	
784.93	5114.5	
785.1	4102.8	
785.28	4859.1	
785.46	5832.6	
785.63	5057.1	
785.81	4082.3	
785.99	4024.9	
786.16	5229.1	
786.34	5680.4	
786.51	3969	
786.69	4404.5	
786.87	4823.6	
787.04	5462.6	
787.22	3825.6	
787.39	4873.5	
787.57	5036.6	
787.75	6256.5	
787.92	5070.8	
788.1	5029.1	
788.27	5134.3	
788.45	4842.1	
788.63	4724.7	
788.8	3321.1	
788.98	5544.5	
789.15	4808.6	
789.33	3474.7	
789.5	4218.1	
789.68	6133	
789.86	6270.9	
790.03	4689.2	
790.21	3971	
790.38	6051.7	
790.56	5239.4	
790.73	3890.5	
790.91	3979.9	
791.09	5103.5	
791.26	5961	
791.44	4144.4	
791.61	3577.8	
791.79	5057.1	
791.96	5171.8	
792.14	3704.1	
792.32	3240.6	
792.49	5107	
792.67	5242.8	
792.84	3738.9	
793.02	3573.7	
793.19	5616.2	
793.37	6406	
793.54	3247.4	
793.72	3650.2	
793.89	6582.9	
794.07	5220.3	
794.25	4399.7	
794.42	3376.4	
794.6	6236.1	
794.77	5900.9	
794.95	4592.9	
795.12	3981.9	
795.3	5120.6	
795.47	5845.6	
795.65	4427.7	
795.82	4258.4	
796	4969.1	
796.17	7137.2	
796.35	4066.6	
796.52	4872.1	
796.7	5777.3	
796.87	5844.9	
797.05	5150.6	
797.22	5014.1	
797.4	5810.1	
797.57	6916.7	
797.75	4228.4	
797.92	4002.4	
798.1	6118.6	
798.27	5171.1	
798.45	3384.6	
798.62	3719.1	
798.8	5502.9	
798.97	5996.5	
799.15	4508.3	
799.32	4249.5	
799.5	4666.6	
799.67	5571.8	
799.85	4574.5	
800.02	3309.5	
800.2	5113.8	
800.37	5496.7	
800.55	4825.7	
800.72	4001.7	
800.9	5967.8	
801.07	6495.5	
801.25	5424.4	
801.42	4421.6	
801.6	6133	
801.77	5795.1	
801.95	4061.8	
802.12	3933.5	
802.29	5677.7	
802.47	5716.6	
802.64	4362.2	
802.82	3208.5	
802.99	5103.5	
803.17	6199.9	
803.34	4293.9	
803.52	3784	
803.69	6944	
803.87	4948.6	
804.04	4188.8	
804.21	4362.2	
804.39	6339.8	
804.56	5396.4	
804.74	3609.9	
804.91	4408.6	
805.09	5193.6	
805.26	5290.6	
805.44	3657	
805.61	4035.2	
805.78	5908.4	
805.96	5933.6	
806.13	4407.9	
806.31	4788.2	
806.48	4661.2	
806.66	5221	
806.83	4424.3	
807	4345.1	
807.18	5075.5	
807.35	5550	
807.53	4274.8	
807.7	3385.3	
807.87	6418.3	
808.05	5264.6	
808.22	4789.5	
808.4	3406.5	
808.57	5256.5	
808.74	4805.2	
808.92	3885	
809.09	5021.6	
809.27	5078.3	
809.44	5804.6	
809.61	3435.1	
809.79	3876.1	
809.96	6433.4	
810.14	5978.7	
810.31	3342.3	
810.48	4148.5	
810.66	5317.2	
810.83	6182.1	
811.01	3919.1	
811.18	4436.6	
811.35	6014.2	
811.53	4610.7	
811.7	4799.1	
811.87	4452.3	
812.05	5216.2	
812.22	5140.4	
812.39	3764.2	
812.57	3738.9	
812.74	5224.4	
812.92	7077.8	
813.09	4160.8	
813.26	4523.3	
813.44	6804.7	
813.61	5145.9	
813.78	3425.6	
813.96	4636.6	
814.13	5234.6	
814.3	4829.8	
814.48	5045.5	
814.65	4129.4	
814.82	6639.5	
815	5036	
815.17	4271.4	
815.34	5207.3	
815.52	5210	
815.69	5139	
815.87	4233.8	
816.04	4121.2	
816.21	5286.5	
816.38	4591.5	
816.56	4128	
816.73	3788.1	
816.9	6649.8	
817.08	6106.4	
817.25	3863.8	
817.42	4848.2	
817.6	4782	
817.77	5268.7	
817.94	4318.5	
818.12	3768.3	
818.29	4934.2	
818.46	7968.6	
818.64	3937.6	
818.81	3723.9	
818.98	4836.6	
819.16	7193.8	
819.33	4601.1	
819.5	4268.6	
819.67	5594.4	
819.85	6353.5	
820.02	4183.3	
820.19	4468.7	
820.37	5468.8	
820.54	4960.9	
820.71	4339	
820.88	5452.4	
821.06	5498.1	
821.23	4975.2	
821.4	4364.9	
821.58	4319.2	
821.75	6012.2	
821.92	5366.4	
822.09	3465.2	
822.27	3583.9	
822.44	5257.1	
822.61	5140.4	
822.79	3530.7	
822.96	6814.3	
823.13	5753.4	
823.3	5000.5	
823.48	4070	
823.65	3635.1	
823.82	5911.8	
823.99	4783.4	
824.17	5129.5	
824.34	3742.3	
824.51	6988.4	
824.68	5311.7	
824.86	3916.4	
825.03	4330.1	
825.2	5255.1	
825.37	6434.7	
825.55	3807.9	
825.72	4284.4	
825.89	7103	
826.06	6535.8	
826.24	4138.3	
826.41	4163.5	
826.58	6453.1	
826.75	5536.3	
826.92	3241.3	
827.1	3637.2	
827.27	8888.9	
827.44	7048.4	
827.61	3889.8	
827.79	4832.5	
827.96	4952.7	
828.13	5369.8	
828.3	4126.7	
828.47	3512.3	
828.65	5462.6	
828.82	5382.1	
828.99	5427.1	
829.16	4670.1	
829.34	5875.6	
829.51	5623	
829.68	4255	
829.85	4513	
830.02	6161.7	
830.2	5916.6	
830.37	3259	
830.54	5212.1	
830.71	6744.6	
830.88	5227.1	
831.05	3392.1	
831.23	3872	
831.4	6400.6	
831.57	7281.2	
831.74	3938.9	
831.91	3444.7	
832.09	5428.5	
832.26	5856.5	
832.43	4138.3	
832.6	4640.7	
832.77	5453.7	
832.94	6292	
833.12	3265.8	
833.29	4059.8	
833.46	5641.5	
833.63	7556.3	
833.8	4496.7	
833.97	4098.7	
834.15	5897.5	
834.32	5670.1	
834.49	4281.6	
834.66	4458.4	
834.83	6113.2	
835	4890.5	
835.17	3937.6	
835.35	3970.3	
835.52	5751.4	
835.69	5688.6	
835.86	4240	
836.03	3424.2	
836.2	5812.1	
836.37	5402.5	
836.55	4095.9	
836.72	3824.2	
836.89	5391.6	
837.06	5954.8	
837.23	4191.5	
837.4	4597	
837.57	6779.5	
837.75	7479.9	
837.92	3762.8	
838.09	4037.2	
838.26	5343.2	
838.43	6215.6	
838.6	4369.7	
838.77	3851.5	
838.94	7146.7	
839.11	6798.6	
839.29	4098	
839.46	3227.6	
839.63	5803.9	
839.8	5629.9	
839.97	4011.3	
840.14	3970.3	
840.31	5565	
840.48	5921.4	
840.65	3297.2	
840.82	3848.8	
841	5892.7	
841.17	5817.6	
841.34	3706.1	
841.51	3697.9	
841.68	5713.2	
841.85	5498.8	
842.02	3855.6	
842.19	3124.5	
842.36	5565	
842.53	5612.1	
842.7	3660.4	
842.87	4586.8	
843.05	7508.5	
843.22	5476.3	
843.39	3454.9	
843.56	3838.6	
843.73	5266.7	
843.9	5882.4	
844.07	6067.4	
844.24	4997	
844.41	8795.3	
844.58	5016.2	
844.75	3512.9	
844.92	3861.8	
845.09	5825.1	
845.26	5854.5	
845.43	3639.9	
845.6	3845.4	
845.77	5810.1	
845.94	5534.3	
846.12	4057	
846.29	4349.9	
846.46	6071.5	
846.63	5855.8	
846.8	3710.9	
846.97	4328	
847.14	6361	
847.31	5791.7	
847.48	4139.6	
847.65	4533.5	
847.82	6172.6	
847.99	6199.9	
848.16	4930.8	
848.33	4556.7	
848.5	5343.8	
848.67	6382.8	
848.84	3621.5	
849.01	3829.7	
849.18	5259.2	
849.35	4900.8	
849.52	4657.8	
849.69	3599	
849.86	6033.3	
850.03	6358.9	
850.2	3653.6	
850.37	4487.1	
850.54	6244.9	
850.71	5502.2	
850.88	4422.9	
851.05	3583.3	
851.22	5777.3	
851.39	6481.8	
851.56	3469.3	
851.73	4237.9	
851.9	5100.8	
852.07	6055.8	
852.24	4061.1	
852.41	3682.9	
852.58	5711.8	
852.75	5217.5	
852.92	4114.4	
853.09	3525.2	
853.26	5425.8	
853.43	6367.8	
853.6	3659	
853.77	3084.9	
853.94	6448.4	
854.11	5806.7	
854.28	5577.3	
854.44	4006.5	
854.61	6926.2	
854.78	6173.9	
854.95	3652.9	
855.12	4607.2	
855.29	4653.7	
855.46	6515.3	
855.63	3607.2	
855.8	5118.6	
855.97	5343.8	
856.14	6258.6	
856.31	5260.5	
856.48	3985.3	
856.65	5273.5	
856.82	5106.3	
856.99	3553.9	
857.16	4019.5	
857.33	7201.3	
857.49	5461.2	
857.66	3988.8	
857.83	4266.6	
858	5471.5	
858.17	5707	
858.34	3495.2	
858.51	3704.8	
858.68	6594.5	
858.85	6673.6	
859.02	4220.2	
859.19	4517.1	
859.36	5070.1	
859.52	5152.7	
859.69	3678.2	
859.86	4307.6	
860.03	5174.5	
860.2	6488	
860.37	3283.6	
860.54	3667.2	
860.71	6072.9	
860.88	6479.8	
861.05	4066.6	
861.21	4590.9	
861.38	6632	
861.55	4932.2	
861.72	3288.4	
861.89	4100.7	
862.06	6207.4	
862.23	6767.2	
862.4	3526.6	
862.56	3812.6	
862.73	5928.2	
862.9	5685.8	
863.07	4345.1	
863.24	3265.1	
863.41	4990.2	
863.58	5174.5	
863.75	3783.3	
863.91	4214	
864.08	6552.8	
864.25	6005.3	
864.42	4601.1	
864.59	5162.9	
864.76	6919.4	
864.93	5193	
865.09	3574.4	
865.26	3918.4	
865.43	6343.2	
865.6	6854.6	
865.77	3170.3	
865.94	3583.9	
866.1	6482.5	
866.27	6186.9	
866.44	5585.5	
866.61	3474.7	
866.78	5530.2	
866.95	6025.1	
867.11	3500	
867.28	3255.6	
867.45	6244.9	
867.62	5194.3	
867.79	4205.8	
867.96	3629	
868.12	5100.1	
868.29	6141.2	
868.46	3646.7	
868.63	4914.4	
868.8	6330.3	
868.97	6062.7	
869.13	3900	
869.3	3866.6	
869.47	6001.9	
869.64	6189.6	
869.81	3710.9	
869.97	3592.1	
870.14	5859.2	
870.31	6624.5	
870.48	3517	
870.65	4584.7	
870.81	5459.9	
870.98	5419.6	
871.15	4184	
871.32	3734.8	
871.48	5978	
871.65	6587	
871.82	3588.7	
871.99	4033.1	
872.16	7139.9	
872.32	6595.1	
872.49	3739.6	
872.66	3655.6	
872.83	6171.9	
872.99	5323.4	
873.16	4250.9	
873.33	3606.5	
873.5	5694	
873.67	5731.6	
873.83	3849.5	
874	4993.6	
874.17	5900.9	
874.34	7049.8	
874.5	4768.4	
874.67	4587.4	
874.84	6580.8	
875.01	5231.2	
875.17	5227.8	
875.34	3592.8	
875.51	5849	
875.68	7027.9	
875.84	4459.8	
876.01	5461.9	
876.18	6070.9	
876.34	5999.2	
876.51	3670	
876.68	3589.4	
876.85	5529.5	
877.01	6395.1	
877.18	5240.8	
877.35	3659	
877.52	5615.5	
877.68	5034.6	
877.85	3534.1	
878.02	3596.9	
878.18	5614.2	
878.35	5296	
878.52	2907.4	
878.69	4121.2	
878.85	6140.5	
879.02	6054.5	
879.19	5237.3	
879.35	3941	
879.52	6057.9	
879.69	6336.4	
879.86	3093.8	
880.02	4042	
880.19	5558.9	
880.36	6942.6	
880.52	4224.3	
880.69	4356	
880.86	6163.7	
881.02	6244.3	
881.19	4041.3	
881.36	4013.3	
881.52	6004	
881.69	5360.2	
881.86	3917.1	
882.02	3811.3	
882.19	6348.7	
882.36	7534.5	
882.52	3725.9	
882.69	5236	
882.86	5823.1	
883.02	5729.5	
883.19	4500.8	
883.36	4241.3	
883.52	6154.8	
883.69	7107.1	
883.86	3692.5	
884.02	3256.3	
884.19	6129.6	
884.36	5583.4	
884.52	4164.2	
884.69	3888.4	
884.86	5339.1	
885.02	6795.2	
885.19	4113.7	
885.36	4204.5	
885.52	5668.1	
885.69	5840.1	
885.86	5385.5	
886.02	4655	
886.19	6154.8	
886.35	5523.4	
886.52	4056.3	
886.69	5185.5	
886.85	5185.5	
887.02	6524.8	
887.19	6524.8	
887.35	6524.8	
887.52	6524.8	
887.68	6524.8	
887.85	6524.8	
888.02	6524.8	
888.18	6524.8	
888.35	6524.8	
888.51	6524.8	
888.68	6524.8	
888.85	6524.8	
889.01	6524.8	
889.18	6524.8	
889.35	6524.8	
889.51	6524.8	
889.68	6524.8	
889.84	6524.8	
890.01	6524.8	
890.17	6524.8	
890.34	6524.8	
890.51	6524.8	
890.67	6524.8	
890.84	6524.8	
891	6524.8	
891.17	6524.8	
891.34	6524.8	
891.5	6524.8	
891.67	6524.8	
891.83	6524.8	
892	6524.8	
892.16	6524.8	
892.33	6524.8	
892.5	6524.8	
892.66	6524.8	
892.83	6524.8	
892.99	6524.8	
893.16	6524.8	
893.32	6524.8	
893.49	6524.8	
893.65	6524.8	
893.82	6524.8	
893.99	6524.8	
894.15	6524.8	
894.32	6524.8	
894.48	6524.8	
894.65	6524.8	
894.81	6524.8	
894.98	6524.8	
895.14	6524.8	
895.31	6524.8	
895.47	6524.8	
895.64	6524.8	
895.81	6524.8	
895.97	6524.8	
896.14	6524.8	
896.3	6524.8	
896.47	6524.8	
896.63	6524.8	
896.8	6524.8	
896.96	6524.8	
897.13	6524.8	
897.29	6524.8	
897.46	6524.8	
897.62	6524.8	
897.79	6524.8	
897.95	6524.8	
898.12	6524.8	
898.28	6524.8	
898.45	6524.8	
898.61	6524.8	
898.78	6524.8	
898.94	6524.8	
899.11	6524.8	
899.27	6524.8	
899.44	6524.8	
899.6	6524.8	
899.77	6524.8	
899.93	6524.8	
900.1	6524.8	
900.26	6524.8	
900.43	6524.8	
900.59	6524.8	
900.76	6524.8	
900.92	6524.8	
901.09	6524.8	
901.25	6524.8	
901.42	6524.8	
901.58	6524.8	
901.75	6524.8	
901.91	6524.8	
902.07	6524.8	
902.24	6524.8	
902.4	6524.8	
902.57	6524.8	
902.73	6524.8	
902.9	6524.8	
903.06	6524.8	
903.23	6524.8	
903.39	6524.8	
903.56	6524.8	
903.72	6524.8	
903.88	6524.8	
904.05	6524.8	
904.21	6524.8	
904.38	6524.8	
904.54	6524.8	
904.71	6524.8	
904.87	6524.8	
905.03	6524.8	
905.2	6524.8	
905.36	6524.8	
905.53	6524.8	
905.69	6524.8	
905.86	6524.8	
906.02	6524.8	
906.18	6524.8	
906.35	6524.8	
906.51	6524.8	
906.68	6524.8	
906.84	6524.8	
907.01	6524.8	
907.17	6524.8	
907.33	6524.8	
907.5	6524.8	
907.66	6524.8	
907.83	6524.8	
907.99	6524.8	
908.15	6524.8	
908.32	6524.8	
908.48	6524.8	
908.65	6524.8	
908.81	6524.8	
908.97	6524.8	
909.14	6524.8	
909.3	6524.8	
909.47	6524.8	
909.63	6524.8	
909.79	6524.8	
909.96	6524.8	
910.12	6524.8	
910.28	6524.8	
910.45	6524.8	
910.61	6524.8	
910.78	6524.8	
910.94	6524.8	
911.1	6524.8	
911.27	6524.8	
911.43	6524.8	
911.59	6524.8	
911.76	6524.8	
911.92	6524.8	
912.08	6524.8	
912.25	6524.8	
912.41	6524.8	
912.57	6524.8	
912.74	6524.8	
912.9	6524.8	
913.07	6524.8	
913.23	6524.8	
913.39	6524.8	
913.56	6524.8	
913.72	6524.8	
913.88	6524.8	
914.05	6524.8	
914.21	6524.8	
914.37	6524.8	
914.54	6524.8	
914.7	6524.8	
914.86	6524.8	
915.03	6524.8	
915.19	6524.8	
