Wavelength	Intensities	
nm	a.u.	
179.22	1891	
179.44	1897.8	
179.65	1884.1	
179.86	1911.4	
180.08	1925.1	
180.29	5107	
180.51	3528	
180.72	5711.8	
180.94	6744.6	
181.15	3325.2	
181.37	3263.1	
181.58	5612.8	
181.79	5912.5	
182.01	3453.6	
182.22	3676.8	
182.44	5892	
182.65	4865.3	
182.87	4668	
183.08	4096.6	
183.29	6217	
183.51	5038	
183.72	3706.1	
183.94	5518.6	
184.15	5516.5	
184.37	5514.5	
184.58	3328.6	
184.79	4567	
185.01	5036.6	
185.22	5884.5	
185.44	4756.7	
185.65	4015.4	
185.86	5391.6	
186.08	4914.4	
186.29	3191.4	
186.51	3447.4	
186.72	5171.8	
186.94	5969.1	
187.15	3964.9	
187.36	4104.8	
187.58	7925.6	
187.79	5623.7	
188.01	4312.3	
188.22	6724.8	
188.43	6812.9	
188.65	5785.5	
188.86	3432.4	
189.08	4156	
189.29	5322	
189.5	5245.5	
189.72	3816	
189.93	3862.5	
190.15	6064	
190.36	7298.3	
190.57	4189.5	
190.79	4108.2	
191	6158.2	
191.22	6100.9	
191.43	4214	
191.64	3486.3	
191.86	6327.5	
192.07	6172.6	
192.29	3624.9	
192.5	3848.8	
192.71	6086.6	
192.93	5201.8	
193.14	3779.9	
193.35	3857	
193.57	5251	
193.78	6086.6	
194	3026.2	
194.21	3762.8	
194.42	4995.7	
194.64	5513.8	
194.85	4113	
195.07	4811.4	
195.28	5505.6	
195.49	4707.6	
195.71	5065.3	
195.92	3587.4	
196.13	5663.3	
196.35	5824.4	
196.56	5509.7	
196.78	4152.6	
196.99	7159.7	
197.2	6679.1	
197.42	4698	
197.63	4204.5	
197.84	4883.7	
198.06	5749.3	
198.27	3765.5	
198.48	5179.3	
198.7	5231.2	
198.91	5367	
199.13	4205.8	
199.34	4200.4	
199.55	5935	
199.77	4780	
199.98	3641.3	
200.19	4285.7	
200.41	5341.8	
200.62	5095.3	
200.83	4335.5	
201.05	4681	
201.26	5407.3	
201.47	5144.5	
201.69	3711.6	
201.9	3519.1	
202.11	5481.7	
202.33	6486.6	
202.54	3934.1	
202.76	4380.6	
202.97	5623	
203.18	5563	
203.4	4351.3	
203.61	4204.5	
203.82	5544.5	
204.04	5162.2	
204.25	4257.7	
204.46	4109.6	
204.68	5473.5	
204.89	5788.2	
205.1	4072	
205.32	3508.2	
205.53	5918.6	
205.74	6004.6	
205.96	3029.6	
206.17	4257	
206.38	5898.8	
206.6	6006.7	
206.81	4809.3	
207.02	3893.9	
207.24	5845.6	
207.45	6337.8	
207.66	4017.4	
207.88	3373.7	
208.09	5687.2	
208.3	5517.2	
208.52	3603.7	
208.73	4026.3	
208.94	5512.4	
209.15	6230.6	
209.37	3967.6	
209.58	4158.7	
209.79	6072.2	
210.01	5311.7	
210.22	3134.8	
210.43	3302	
210.65	5545.9	
210.86	5981.4	
211.07	3967.6	
211.29	3601	
211.5	5911.8	
211.71	5408.7	
211.93	3609.2	
212.14	3624.9	
212.35	5367.7	
212.56	5698.1	
212.78	4189.5	
212.99	3453.6	
213.2	6483.9	
213.42	5263.3	
213.63	3790.1	
213.84	4065.9	
214.06	4864.6	
214.27	4944.5	
214.48	4003.1	
214.69	4209.3	
214.91	6205.3	
215.12	6293.4	
215.33	4272.7	
215.55	4754	
215.76	6801.3	
215.97	5922	
216.18	4111	
216.4	4008.6	
216.61	5169.1	
216.82	6032.6	
217.04	3650.2	
217.25	3814.7	
217.46	6197.2	
217.67	5874.9	
217.89	3304.7	
218.1	3391.4	
218.31	5586.9	
218.53	5729.5	
218.74	3807.2	
218.95	3728.7	
219.16	5429.8	
219.38	6463.4	
219.59	3717.1	
219.8	4473.4	
220.01	7120.1	
220.23	5571.8	
220.44	4909.7	
220.65	3624.9	
220.87	5593.7	
221.08	6171.2	
221.29	3370.3	
221.5	4519.2	
221.72	7596.6	
221.93	5163.6	
222.14	4169	
222.35	4943.8	
222.57	5518.6	
222.78	5839.4	
222.99	3957.4	
223.2	4334.2	
223.42	5876.3	
223.63	5943.2	
223.84	3067.9	
224.05	3039.9	
224.27	7076.4	
224.48	6455.2	
224.69	4958.1	
224.9	4175.8	
225.12	5748	
225.33	5485.1	
225.54	3304.7	
225.75	3710.9	
225.97	5053	
226.18	5315.2	
226.39	4021.5	
226.6	3687.7	
226.82	5242.8	
227.03	5134.9	
227.24	4201.1	
227.45	3448.1	
227.67	5870.2	
227.88	6503	
228.09	4625.7	
228.3	4685.1	
228.52	5934.3	
228.73	5454.4	
228.94	3864.5	
229.15	3416	
229.36	5396.4	
229.58	5358.9	
229.79	3857	
230	4532.8	
230.21	6599.2	
230.43	5627.8	
230.64	4117.1	
230.85	4358.1	
231.06	5958.2	
231.28	5954.1	
231.49	3472	
231.7	4048.2	
231.91	5838.8	
232.12	5569.8	
232.34	3544.4	
232.55	4067.9	
232.76	6178	
232.97	5730.9	
233.18	3631	
233.4	4147.1	
233.61	5761.6	
233.82	5253	
234.03	3838.6	
234.25	3773	
234.46	7725.6	
234.67	5574.6	
234.88	4305.5	
235.09	3669.3	
235.31	5853.1	
235.52	5374.6	
235.73	4153.3	
235.94	3486.3	
236.15	5223	
236.37	6721.4	
236.58	3713	
236.79	4005.1	
237	5885.2	
237.21	5016.2	
237.43	4267.3	
237.64	3297.9	
237.85	10198	
238.06	5079	
238.27	4416.1	
238.48	3442	
238.7	5894.7	
238.91	5360.2	
239.12	4079.6	
239.33	4042.7	
239.54	5026.4	
239.76	5408	
239.97	3928	
240.18	3995.6	
240.39	6940.6	
240.6	5810.8	
240.82	4150.5	
241.03	3360.7	
241.24	5471.5	
241.45	6384.2	
241.66	3644.7	
241.87	4317.1	
242.09	6184.9	
242.3	6668.9	
242.51	4383.3	
242.72	3973.7	
242.93	5956.2	
243.14	5498.1	
243.36	4681.7	
243.57	4997.7	
243.78	6450.4	
243.99	5855.8	
244.2	4031.1	
244.41	3637.2	
244.63	5068	
244.84	5872.9	
245.05	4232.5	
245.26	4005.8	
245.47	5801.9	
245.68	6115.2	
245.9	5361.6	
246.11	4229.1	
246.32	5313.8	
246.53	5756.2	
246.74	6466.8	
246.95	3327.3	
247.16	4992.3	
247.38	5506.3	
247.59	3340.9	
247.8	4005.1	
248.01	5156.8	
248.22	5393	
248.43	3554.6	
248.64	3928	
248.86	4884.4	
249.07	5259.9	
249.28	3562.8	
249.49	4016.1	
249.7	6123.4	
249.91	6227.2	
250.12	3327.3	
250.34	3338.2	
250.55	5603.2	
250.76	5495.4	
250.97	4156	
251.18	4244.8	
251.39	6208.8	
251.6	5709.1	
251.81	4270	
252.03	4240.7	
252.24	5208.7	
252.45	6068.8	
252.66	3449.5	
252.87	4500.8	
253.08	5578	
253.29	7333.8	
253.5	3471.3	
253.72	4907.6	
253.93	5363.6	
254.14	6584.9	
254.35	3825.6	
254.56	3864.5	
254.77	5799.8	
254.98	5134.9	
255.19	3753.9	
255.41	4850.3	
255.62	5632.6	
255.83	6193.1	
256.04	4302.8	
256.25	4152.6	
256.46	6772.6	
256.67	5215.5	
256.88	4098	
257.09	4669.4	
257.31	5192.3	
257.52	5191.6	
257.73	5216.9	
257.94	3764.8	
258.15	5337	
258.36	5554.8	
258.57	4797	
258.78	3035.1	
258.99	6040.1	
259.2	5375.9	
259.41	3855	
259.63	3965.6	
259.84	6392.4	
260.05	6890	
260.26	5064.6	
260.47	3680.9	
260.68	6109.8	
260.89	5448.3	
261.1	4598.4	
261.31	3636.5	
261.52	6122.1	
261.73	6527.6	
261.95	4940.4	
262.16	4319.8	
262.37	6227.9	
262.58	6354.2	
262.79	4904.2	
263	3890.5	
263.21	5543.9	
263.42	4991.6	
263.63	3945.1	
263.84	3845.4	
264.05	6048.3	
264.26	6518	
264.47	4816.1	
264.69	4322.6	
264.9	6234.7	
265.11	5765	
265.32	3688.4	
265.53	3801	
265.74	5651.7	
265.95	4881	
266.16	4120.5	
266.37	4443.4	
266.58	5645.6	
266.79	5345.2	
267	3781.2	
267.21	3490.4	
267.42	5061.2	
267.63	5560.2	
267.84	3981.9	
268.06	3409.2	
268.27	5935.7	
268.48	6289.3	
268.69	3932.1	
268.9	4659.8	
269.11	6201.9	
269.32	5007.3	
269.53	3971.7	
269.74	3697.9	
269.95	5874.9	
270.16	4831.8	
270.37	4000.4	
270.58	4662.5	
270.79	5352.7	
271	6010.8	
271.21	4280.3	
271.42	4043.4	
271.63	5628.5	
271.84	5105.6	
272.05	3207.1	
272.26	3567.6	
272.47	5520.6	
272.68	5707	
272.89	3818.1	
273.11	4465.3	
273.32	5347.2	
273.53	6530.3	
273.74	4333.5	
273.95	4196.3	
274.16	6234	
274.37	5586.2	
274.58	4408.6	
274.79	3467.9	
275	5645.6	
275.21	6225.1	
275.42	5231.2	
275.63	4478.2	
275.84	5784.8	
276.05	7289.4	
276.26	4246.8	
276.47	3923.9	
276.68	5347.2	
276.89	6562.4	
277.1	4578.6	
277.31	3505.4	
277.52	5790.3	
277.73	5956.2	
277.94	3409.2	
278.15	3876.1	
278.36	5742.5	
278.57	5195	
278.78	3794.2	
278.99	4313.7	
279.2	5132.9	
279.41	5053.7	
279.62	5084.4	
279.83	3526.6	
280.04	6699.6	
280.25	5014.1	
280.46	4975.2	
280.67	4018.1	
280.88	5104.9	
281.09	6247	
281.3	4199	
281.51	5369.1	
281.72	5208	
281.93	6053.1	
282.14	3697.9	
282.35	4044.7	
282.56	6039.5	
282.77	6017.6	
282.98	3872	
283.19	4782.7	
283.4	7450.5	
283.61	5490.6	
283.82	3549.1	
284.03	5035.3	
284.24	5609.4	
284.45	6166.4	
284.66	4995.7	
284.87	4784.7	
285.08	6120.7	
285.29	6287.9	
285.5	3403.7	
285.71	3936.2	
285.92	6164.4	
286.12	6909.8	
286.33	4928.8	
286.54	3914.4	
286.75	6010.8	
286.96	5349.3	
287.17	3528	
287.38	4907.6	
287.59	5131.5	
287.8	5089.9	
288.01	3921.9	
288.22	4486.4	
288.43	6090	
288.64	5033.9	
288.85	4657.1	
289.06	4501.4	
289.27	5955.5	
289.48	6514.6	
289.69	4995	
289.9	4552	
290.11	6206	
290.32	5210	
290.53	4729.4	
290.74	4364.2	
290.94	5962.3	
291.15	6148	
291.36	3807.2	
291.57	4541	
291.78	5229.8	
291.99	4896	
292.2	3634.5	
292.41	4332.8	
292.62	6141.2	
292.83	5892	
293.04	5410.1	
293.25	3663.8	
293.46	5266.7	
293.67	6148.7	
293.88	3738.2	
294.09	3602.4	
294.29	5035.3	
294.5	5662.6	
294.71	4036.5	
294.92	3877.5	
295.13	5311.7	
295.34	6645	
295.55	3370.3	
295.76	3517.7	
295.97	5989.6	
296.18	6789.7	
296.39	3526.6	
296.6	3797.6	
296.81	5573.2	
297.01	5963	
297.22	3895.2	
297.43	3760.8	
297.64	5094	
297.85	5154.7	
298.06	3095.2	
298.27	3353.2	
298.48	5644.2	
298.69	5212.1	
298.9	3992.9	
299.11	3702.7	
299.31	4990.2	
299.52	5051.7	
299.73	4305.5	
299.94	4302.8	
300.15	5493.3	
300.36	5119.9	
300.57	4312.3	
300.78	4238.6	
300.99	5378	
301.2	5668.8	
301.4	3681.6	
301.61	4046.8	
301.82	5840.1	
302.03	5982.8	
302.24	4623.6	
302.45	3558	
302.66	5792.3	
302.87	6390.3	
303.08	3816	
303.29	5096	
303.49	5287.9	
303.7	5586.2	
303.91	3358	
304.12	4919.9	
304.33	5042.1	
304.54	5627.8	
304.75	3759.4	
304.96	3579.8	
305.16	5892	
305.37	6716.7	
305.58	3231.7	
305.79	3399.6	
306	5872.2	
306.21	4959.5	
306.42	3764.8	
306.63	5792.3	
306.83	5383.4	
307.04	6180.8	
307.25	4136.2	
307.46	4131.4	
307.67	4698	
307.88	5961.6	
308.09	3622.9	
308.29	3866.6	
308.5	5591	
308.71	6117.3	
308.92	4022.2	
309.13	3588	
309.34	5388.2	
309.55	5441.5	
309.75	4699.4	
309.96	4280.3	
310.17	5984.2	
310.38	5192.3	
310.59	4502.1	
310.8	3457	
311.01	5332.2	
311.21	5373.2	
311.42	3571	
311.63	3665.9	
311.84	5296.7	
312.05	5646.9	
312.26	4164.9	
312.46	4596.3	
312.67	5310.4	
312.88	5120.6	
313.09	3616.7	
313.3	3519.8	
313.51	6346	
313.71	6790.4	
313.92	3586.7	
314.13	3822.2	
314.34	5715.2	
314.55	5440.8	
314.76	4653.7	
314.96	4104.1	
315.17	5558.2	
315.38	5976	
315.59	3645.4	
315.8	3491.1	
316.01	6449.1	
316.21	6513.2	
316.42	3532.7	
316.63	4070.7	
316.84	5446.2	
317.05	6287.3	
317.26	4315.1	
317.46	3837.9	
317.67	5440.8	
317.88	5938.4	
318.09	4582.7	
318.3	3361.4	
318.5	5235.3	
318.71	5847.6	
318.92	5915.9	
319.13	4259.1	
319.34	6006	
319.54	6255.9	
319.75	3380.5	
319.96	3227.6	
320.17	5896.1	
320.38	6128.2	
320.58	3270.6	
320.79	3986.7	
321	6176.7	
321.21	6221.7	
321.42	3979.2	
321.62	3321.1	
321.83	5112.4	
322.04	5547.3	
322.25	3843.4	
322.46	3657	
322.66	5609.4	
322.87	5780.7	
323.08	4539	
323.29	3595.6	
323.5	6681.8	
323.7	5037.3	
323.91	4980	
324.12	4466.6	
324.33	5635.3	
324.53	5859.2	
324.74	4328	
324.95	4482.3	
325.16	4921.3	
325.37	5307.7	
325.57	3689.8	
325.78	3675.4	
325.99	5649	
326.2	5044.8	
326.4	5158.8	
326.61	3392.8	
326.82	5457.8	
327.03	5634	
327.24	5196.4	
327.44	4958.8	
327.65	5761.6	
327.86	4674.8	
328.07	4300.7	
328.27	3517	
328.48	6306.4	
328.69	5137	
328.9	5260.5	
329.1	3868.6	
329.31	5408	
329.52	6419.7	
329.73	3640.6	
329.93	4137.6	
330.14	5545.9	
330.35	5812.1	
330.56	6036	
330.76	4503.5	
330.97	5324	
331.18	5715.9	
331.39	4069.3	
331.59	3244	
331.8	6182.8	
332.01	6261.3	
332.22	3729.4	
332.42	4340.3	
332.63	5655.8	
332.84	5224.4	
333.05	4063.2	
333.25	3685	
333.46	5364.3	
333.67	5571.2	
333.88	3779.9	
334.08	4218.1	
334.29	7572	
334.5	6281.1	
334.7	3577.1	
334.91	5218.9	
335.12	5079.6	
335.33	6102.3	
335.53	4043.4	
335.74	5994.4	
335.95	5304.9	
336.16	5169.8	
336.36	4051.6	
336.57	4610.7	
336.78	5017.5	
336.98	6158.2	
337.19	4910.3	
337.4	3956.7	
337.61	6711.2	
337.81	5023	
338.02	3751.2	
338.23	4817.5	
338.43	6285.9	
338.64	5223	
338.85	3712.3	
339.05	4829.1	
339.26	6378.7	
339.47	4945.2	
339.68	3689.1	
339.88	5423.7	
340.09	5762.3	
340.3	6065.4	
340.5	4271.4	
340.71	3226.9	
340.92	4985.4	
341.13	6335.7	
341.33	3531.4	
341.54	4358.1	
341.75	5750.7	
341.95	5413.5	
342.16	4115.1	
342.37	4442	
342.57	5076.9	
342.78	5561.6	
342.99	4551.3	
343.19	3260.4	
343.4	5950.7	
343.61	5813.5	
343.81	3901.4	
344.02	3596.9	
344.23	6060.6	
344.43	6511.9	
344.64	4494.6	
344.85	4411.3	
345.06	5846.3	
345.26	6191.7	
345.47	4260.5	
345.68	4984.1	
345.88	4907.6	
346.09	6043.6	
346.3	4366.3	
346.5	3254.9	
346.71	5532.9	
346.92	5208	
347.12	3320.4	
347.33	4287.1	
347.54	6092.7	
347.74	6556.9	
347.95	4154	
348.16	3130	
348.36	5343.8	
348.57	5210	
348.78	4164.2	
348.98	4461.8	
349.19	5543.2	
349.39	5025.7	
349.6	3368.2	
349.81	3738.9	
350.01	5830.6	
350.22	5309.7	
350.43	4074.1	
350.63	4975.9	
350.84	5631.2	
351.05	5332.2	
351.25	3708.9	
351.46	3343.7	
351.67	6205.3	
351.87	5285.8	
352.08	3930.7	
352.29	4499.4	
352.49	6057.2	
352.7	5741.1	
352.9	3617.4	
353.11	4468.7	
353.32	6709.8	
353.52	5380	
353.73	3567.6	
353.94	4500.1	
354.14	5923.4	
354.35	5739.8	
354.55	3689.1	
354.76	4122.6	
354.97	5866.7	
355.17	5636.7	
355.38	3504.8	
355.59	4900.8	
355.79	5268.1	
356	5677.7	
356.2	4087.1	
356.41	3650.2	
356.62	5025	
356.82	5530.9	
357.03	4373.1	
357.24	3962.1	
357.44	5304.9	
357.65	5433.3	
357.85	5285.8	
358.06	4111.6	
358.27	5023	
358.47	5261.9	
358.68	3465.8	
358.88	4339.6	
359.09	5885.2	
359.3	6343.9	
359.5	5103.5	
359.71	4576.5	
359.91	6807.4	
360.12	6121.4	
360.33	4380.6	
360.53	4925.4	
360.74	5365	
360.94	5408	
361.15	4645.5	
361.36	3799	
361.56	6175.3	
361.77	5547.3	
361.97	5090.6	
362.18	4046.1	
362.38	6172.6	
362.59	5131.5	
362.8	3761.4	
363	3609.2	
363.21	5070.8	
363.41	5728.9	
363.62	4292.5	
363.83	5403.2	
364.03	5827.8	
364.24	6821.1	
364.44	5490.6	
364.65	5385.5	
364.85	5551.4	
365.06	5163.6	
365.27	3990.8	
365.47	3960.1	
365.68	6553.5	
365.88	5525.4	
366.09	4366.3	
366.29	4106.9	
366.5	5823.1	
366.71	6292.7	
366.91	5393.7	
367.12	4540.3	
367.32	6925.5	
367.53	6094.1	
367.73	4486.4	
367.94	5505.6	
368.14	6059.9	
368.35	7031.4	
368.56	4447.5	
368.76	4287.1	
368.97	6152.8	
369.17	7995.3	
369.38	3945.8	
369.58	4229.7	
369.79	5201.2	
369.99	6543.9	
370.2	5279	
370.4	4300.1	
370.61	5874.3	
370.82	7153.6	
371.02	4192.2	
371.23	3594.2	
371.43	5125.4	
371.64	6508.4	
371.84	4280.9	
372.05	5539.1	
372.25	7868.3	
372.46	6231.3	
372.66	4272.1	
372.87	4320.5	
373.07	6270.9	
373.28	7996	
373.48	5343.8	
373.69	5060.5	
373.9	5725.4	
374.1	5780.7	
374.31	5272.2	
374.51	4829.8	
374.72	6651.8	
374.92	5447.6	
375.13	5560.2	
375.33	4654.4	
375.54	6193.1	
375.74	5603.2	
375.95	4702.8	
376.15	6111.1	
376.36	6225.1	
376.56	5949.3	
376.77	4807.3	
376.97	5309.7	
377.18	7294.9	
377.38	6386.2	
377.59	5650.3	
377.79	4332.1	
378	6120.7	
378.2	6563.1	
378.41	4396.3	
378.61	4329.4	
378.82	6590.4	
379.02	5707	
379.23	4483.7	
379.43	5797.1	
379.64	6631.3	
379.84	6315.3	
380.05	4384	
380.25	4292.5	
380.46	6399.9	
380.66	5958.9	
380.87	5719.3	
381.07	6139.1	
381.28	7105.8	
381.48	6421.7	
381.69	4419.5	
381.89	4452.3	
382.1	5368.4	
382.3	6563.7	
382.51	5507.7	
382.71	6489.3	
382.91	6400.6	
383.12	6916	
383.32	4788.2	
383.53	4975.2	
383.73	6113.2	
383.94	6083.1	
384.14	4869.4	
384.35	4047.5	
384.55	5899.5	
384.76	6389	
384.96	4701.5	
385.17	5066.7	
385.37	6331	
385.58	5627.1	
385.78	5106.3	
385.98	3943	
386.19	5871.5	
386.39	6284.5	
386.6	4460.5	
386.8	4690.5	
387.01	6376	
387.21	6438.8	
387.42	5139.7	
387.62	5825.1	
387.83	5691.3	
388.03	6384.2	
388.23	4831.8	
388.44	5627.1	
388.64	5393	
388.85	5556.1	
389.05	5283.8	
389.26	5907	
389.46	7518.8	
389.67	6892.1	
389.87	5173.9	
390.07	5242.1	
390.28	6073.6	
390.48	5684.5	
390.69	4451.6	
390.89	4747.9	
391.1	5844.9	
391.3	6797.2	
391.5	5960.3	
391.71	6611.5	
391.91	6514.6	
392.12	7600	
392.32	6015.6	
392.53	5201.2	
392.73	5924.1	
392.93	6084.5	
393.14	4803.9	
393.34	5674.2	
393.55	6618.4	
393.75	6085.2	
393.95	4833.2	
394.16	4741.7	
394.36	5863.3	
394.57	6527.6	
394.77	4328.7	
394.98	4828.4	
395.18	5738.4	
395.38	6064	
395.59	5707.7	
395.79	4681.7	
396	6025.8	
396.2	6436.1	
396.4	5494	
396.61	5464.7	
396.81	6689.3	
397.02	5942.5	
397.22	5739.1	
397.42	5799.2	
397.63	6629.3	
397.83	5971.2	
398.04	4587.4	
398.24	5151.3	
398.44	6460.7	
398.65	5486.5	
398.85	4461.8	
399.05	4650.3	
399.26	5847	
399.46	7636.9	
399.67	5050.3	
399.87	4715.8	
400.07	6240.8	
400.28	6688	
400.48	4843.4	
400.69	5948.7	
400.89	6873.7	
401.09	7355.6	
401.3	4746.5	
401.5	5877	
401.7	7627.3	
401.91	7848.5	
402.11	5082.4	
402.32	5295.4	
402.52	6911.2	
402.72	6698.2	
402.93	5416.2	
403.13	4229.1	
403.33	7541.3	
403.54	6234	
403.74	5113.8	
403.94	6066.8	
404.15	6283.2	
404.35	7507.9	
404.56	4897.4	
404.76	6872.3	
404.96	6814.3	
405.17	6580.1	
405.37	5969.8	
405.57	5465.3	
405.78	6959	
405.98	6292	
406.18	4949.9	
406.39	5896.1	
406.59	6868.2	
406.79	6408.8	
407	4754.7	
407.2	4825	
407.4	6832	
407.61	7090.8	
407.81	4898.1	
408.01	7020.4	
408.22	5895.4	
408.42	8019.8	
408.62	6087.2	
408.83	5644.2	
409.03	6646.3	
409.23	6393.8	
409.44	5730.9	
409.64	6078.4	
409.84	7558.4	
410.05	7576.1	
410.25	5902.9	
410.45	5631.2	
410.66	6995.2	
410.86	9566.1	
411.06	6122.7	
411.27	5976.7	
411.47	9445.9	
411.67	7194.5	
411.88	6236.1	
412.08	6548.7	
412.28	7880.6	
412.49	8423.3	
412.69	5978	
412.89	6121.4	
413.09	8193.9	
413.3	8191.9	
413.5	6163	
413.7	5782.1	
413.91	7284.6	
414.11	8250.6	
414.31	6005.3	
414.52	6516.6	
414.72	7925.6	
414.92	7826	
415.12	5988.3	
415.33	6549.4	
415.53	8227.4	
415.73	8456.1	
415.94	6931.7	
416.14	6322.1	
416.34	7091.4	
416.55	6935.1	
416.75	7559.1	
416.95	6993.1	
417.15	8215.1	
417.36	8955.1	
417.56	7838.3	
417.76	6835.4	
417.97	8656.8	
418.17	8307.9	
418.37	6383.5	
418.57	6466.8	
418.78	8028.7	
418.98	7655.3	
419.18	7310.6	
419.38	7243.7	
419.59	7694.9	
419.79	7328.3	
419.99	6366.5	
420.2	6670.2	
420.4	8279.9	
420.6	8439	
420.8	6210.8	
421.01	6077	
421.21	8092.2	
421.41	8271.7	
421.61	6683.9	
421.82	6274.3	
422.02	7589.8	
422.22	8542.8	
422.42	7247.8	
422.63	6706.4	
422.83	7752.2	
423.03	8981	
423.23	6759.7	
423.44	5614.2	
423.64	7744.7	
423.84	7449.1	
424.04	6151.4	
424.25	5842.9	
424.45	8643.1	
424.65	8631.5	
424.85	5566.4	
425.06	6135.7	
425.26	8595.3	
425.46	7210.9	
425.66	6723.5	
425.87	6376.7	
426.07	8417.8	
426.27	8193.2	
426.47	6462.7	
426.67	5852.4	
426.88	8699.8	
427.08	8122.9	
427.28	6790.4	
427.48	5840.1	
427.69	6973.3	
427.89	7616.4	
428.09	6721.4	
428.29	5884.5	
428.5	8395.3	
428.7	7849.2	
428.9	5709.1	
429.1	6373.3	
429.3	7772.7	
429.51	8239.7	
429.71	6016.2	
429.91	6926.2	
430.11	8073.1	
430.31	8388.5	
430.52	6370.5	
430.72	6712.6	
430.92	8831.5	
431.12	8239.7	
431.32	6139.1	
431.53	6455.9	
431.73	7138.5	
431.93	8805.6	
432.13	5932.3	
432.33	5869.5	
432.54	7611.6	
432.74	8002.1	
432.94	5866.7	
433.14	6929	
433.34	8169.3	
433.55	7641.7	
433.75	6776	
433.95	8683.4	
434.15	7912	
434.35	7629.4	
434.56	5948	
434.76	5585.5	
434.96	7953.6	
435.16	8219.2	
435.36	5973.9	
435.56	7146.7	
435.77	7594.6	
435.97	7808.9	
436.17	7937.9	
436.37	7094.8	
436.57	7545.4	
436.78	7527	
436.98	8867.7	
437.18	7670.3	
437.38	8367.3	
437.58	7786.4	
437.78	7711.3	
437.99	6315.9	
438.19	8271.1	
438.39	9808.4	
438.59	6232	
438.79	5701.5	
438.99	8929.8	
439.2	7741.3	
439.4	5947.3	
439.6	5847	
439.8	8168	
440	9376.3	
440.2	7074.4	
440.4	7263.5	
440.61	8603.5	
440.81	9111.4	
441.01	6227.9	
441.21	7227.3	
441.41	9032.2	
441.61	8552.3	
441.81	7467.6	
442.02	8578.3	
442.22	9504.6	
442.42	8660.2	
442.62	6410.8	
442.82	6290	
443.02	9092.3	
443.22	8112	
443.43	6749.4	
443.63	6339.1	
443.83	7840.3	
444.03	8038.3	
444.23	7674.4	
444.43	7179.5	
444.63	8350.3	
444.83	9609.8	
445.04	6487.3	
445.24	7757.7	
445.44	8557.1	
445.64	8740	
445.84	7160.4	
446.04	7200	
446.24	7908.6	
446.44	9033.6	
446.65	6328.9	
446.85	6703	
447.05	8260.1	
447.25	8970.1	
447.45	6892.8	
447.65	6193.7	
447.85	8268.3	
448.05	7885.4	
448.25	7399.3	
448.46	7118.7	
448.66	8262.9	
448.86	7960.5	
449.06	6139.1	
449.26	7367.9	
449.46	8677.9	
449.66	7669.6	
449.86	6751.5	
450.06	6746.7	
450.26	7856	
450.47	8480.6	
450.67	7059.3	
450.87	7462.8	
451.07	8507.9	
451.27	8364.6	
451.47	6315.9	
451.67	6978.1	
451.87	7912.7	
452.07	9223.4	
452.27	6636.8	
452.47	6571.9	
452.67	8212.4	
452.88	8961.2	
453.08	5896.8	
453.28	8045.1	
453.48	9676.7	
453.68	8196	
453.88	6505.7	
454.08	6741.2	
454.28	8712.1	
454.48	8398.7	
454.68	7400.7	
454.88	7935.9	
455.08	8775.5	
455.28	8637.6	
455.48	6386.2	
455.68	7059.3	
455.89	9370.8	
456.09	9039.1	
456.29	6777.4	
456.49	6877.1	
456.69	9242.5	
456.89	8355.7	
457.09	7436.2	
457.29	7862.2	
457.49	8855.4	
457.69	9118.2	
457.89	7342.7	
458.09	6694.8	
458.29	8600.8	
458.49	9365.4	
458.69	7748.1	
458.89	7085.3	
459.09	9664.4	
459.29	9779.7	
459.49	7186.3	
459.69	8033.5	
459.9	9152.4	
460.1	8644.5	
460.3	7020.4	
460.5	6861.4	
460.7	9164.7	
460.9	8880.7	
461.1	6495.5	
461.3	7927.7	
461.5	9747.6	
461.7	9469.1	
461.9	7093.5	
462.1	7526.3	
462.3	8939.4	
462.5	9538.1	
462.7	7077.1	
462.9	7294.2	
463.1	10783	
463.3	10268	
463.5	7505.8	
463.7	8470.4	
463.9	9226.8	
464.1	9620.7	
464.3	7713.3	
464.5	7870.3	
464.7	9965.4	
464.9	9583.8	
465.1	9353.1	
465.3	8244.4	
465.5	10224	
465.7	10192	
465.9	8639.7	
466.1	8327.7	
466.3	10180	
466.5	9843.2	
466.7	9338.7	
466.9	8069.7	
467.1	9821.4	
467.3	10856	
467.5	9317.6	
467.7	8079.9	
467.9	11048	
468.1	12033	
468.3	8894.3	
468.5	9318.3	
468.7	9784.5	
468.9	9754.5	
469.1	8385.1	
469.3	9120.3	
469.5	11955	
469.7	9383.1	
469.9	8840.4	
470.1	8197.3	
470.3	9836.4	
470.5	9833	
470.7	9437.7	
470.9	8258.1	
471.1	9472.5	
471.3	10028	
471.5	7959.8	
471.69	10030	
471.89	9334	
472.09	8962.6	
472.29	8954.4	
472.49	9117.6	
472.69	9083.4	
472.89	10080	
473.09	7882.6	
473.29	7890.1	
473.49	9292.3	
473.69	9439.1	
473.89	8995.4	
474.09	8183.7	
474.29	10746	
474.49	10479	
474.69	9062.9	
474.89	8170.7	
475.09	9382.4	
475.29	9469.8	
475.49	7708.6	
475.69	7960.5	
475.88	11157	
476.08	9738.1	
476.28	7555.6	
476.48	8021.9	
476.68	10213	
476.88	10014	
477.08	7783	
477.28	8115.4	
477.48	9523.7	
477.68	10249	
477.88	7640.3	
478.08	8114.7	
478.28	10482	
478.48	9559.2	
478.67	8110.6	
478.87	7460.1	
479.07	10365	
479.27	9735.4	
479.47	8330.5	
479.67	8330.5	
479.87	10148	
480.07	10699	
480.27	7608.9	
480.47	9250.7	
480.67	9769.5	
480.87	10564	
481.06	7844.4	
481.26	8696.4	
481.46	9718.3	
481.66	9663	
481.86	8339.3	
482.06	9340.1	
482.26	9379	
482.46	10520	
482.66	8269.7	
482.86	7854.6	
483.05	9853.5	
483.25	9243.8	
483.45	10955	
483.65	8199.4	
483.85	9426.8	
484.05	9742.9	
484.25	8751	
484.45	9249.3	
484.65	10654	
484.84	10610	
485.04	8275.8	
485.24	8259.5	
485.44	10966	
485.64	9065	
485.84	7565.2	
486.04	8960.5	
486.24	9564.7	
486.44	10086	
486.63	7511.9	
486.83	8409.6	
487.03	9562.6	
487.23	9782.5	
487.43	7691.5	
487.63	10202	
487.83	9826.2	
488.02	10932	
488.22	8839	
488.42	9446.6	
488.62	10702	
488.82	9679.4	
489.02	8278.6	
489.22	8419.9	
489.41	10577	
489.61	10189	
489.81	8111.3	
490.01	8103.1	
490.21	10606	
490.41	11207	
490.61	8046.5	
490.8	8198.7	
491	9969.5	
491.2	9207	
491.4	8766.7	
491.6	7862.2	
491.8	9863	
491.99	10115	
492.19	7713.3	
492.39	8099.7	
492.59	10593	
492.79	10671	
492.99	9146.2	
493.18	8243.8	
493.38	10834	
493.58	11626	
493.78	9004.2	
493.98	8618.5	
494.18	10469	
494.37	10007	
494.57	9302.6	
494.77	9212.4	
494.97	10743	
495.17	11131	
495.37	8743.5	
495.56	9033.6	
495.76	11316	
495.96	10857	
496.16	10148	
496.36	8862.2	
496.55	11088	
496.75	10610	
496.95	9323	
497.15	9148.3	
497.35	11025	
497.54	11031	
497.74	8890.9	
497.94	10631	
498.14	11891	
498.34	11686	
498.53	8669.1	
498.73	9519	
498.93	10387	
499.13	11155	
499.33	9387.9	
499.52	9829.6	
499.72	11134	
499.92	11432	
500.12	9064.3	
500.32	9247.3	
500.51	11329	
500.71	11179	
500.91	10074	
501.11	9631.6	
501.31	11209	
501.5	11668	
501.7	10351	
501.9	9268.4	
502.1	11045	
502.29	11379	
502.49	9787.2	
502.69	10216	
502.89	11191	
503.09	11191	
503.28	8619.9	
503.48	8857.5	
503.68	10328	
503.88	10370	
504.07	9840.5	
504.27	9312.1	
504.47	10777	
504.67	10804	
504.86	9697.8	
505.06	9364.7	
505.26	10355	
505.46	12259	
505.65	9126.4	
505.85	9331.9	
506.05	10183	
506.25	10750	
506.44	8431.5	
506.64	9495.1	
506.84	10114	
507.04	11154	
507.23	8752.3	
507.43	9325.8	
507.63	12193	
507.83	10340	
508.02	9235	
508.22	8872.5	
508.42	12402	
508.62	10130	
508.81	9091.6	
509.01	9744.9	
509.21	9911.5	
509.4	10286	
509.6	9357.2	
509.8	8671.1	
510	10242	
510.19	11813	
510.39	8624	
510.59	8811.7	
510.79	10071	
510.98	11594	
511.18	8686.1	
511.38	8847.9	
511.57	10886	
511.77	10796	
511.97	9538.1	
512.17	8438.3	
512.36	10921	
512.56	10867	
512.76	8600.1	
512.95	8359.1	
513.15	11081	
513.35	9590	
513.55	9557.2	
513.74	8657.4	
513.94	10944	
514.14	10269	
514.33	9678	
514.53	9405.6	
514.73	10301	
514.92	10541	
515.12	8733.9	
515.32	8699.1	
515.51	10729	
515.71	11260	
515.91	10531	
516.11	8850	
516.3	12457	
516.5	10083	
516.7	9170.1	
516.89	9927.9	
517.09	10264	
517.29	10286	
517.48	9696.4	
517.68	9039.1	
517.88	10114	
518.07	10666	
518.27	9566.7	
518.47	8484.1	
518.66	11301	
518.86	9866.4	
519.06	8307.2	
519.25	8809.7	
519.45	10177	
519.65	11926	
519.84	9590	
520.04	10327	
520.24	12100	
520.43	10798	
520.63	9052	
520.83	8798.8	
521.02	10047	
521.22	10683	
521.42	9396.1	
521.61	9987.9	
521.81	10305	
522.01	10482	
522.2	9335.3	
522.4	9084.1	
522.6	11135	
522.79	9828.2	
522.99	9211.1	
523.18	8572.8	
523.38	10775	
523.58	10854	
523.77	10626	
523.97	8625.4	
524.17	12826	
524.36	11912	
524.56	10050	
524.76	9785.9	
524.95	10985	
525.15	10532	
525.34	9490.3	
525.54	9455.5	
525.74	11290	
525.93	10247	
526.13	10687	
526.33	9478.7	
526.52	11655	
526.72	11176	
526.91	10815	
527.11	9986.6	
527.31	11848	
527.5	12243	
527.7	9922.4	
527.89	9029.5	
528.09	10703	
528.29	11428	
528.48	10400	
528.68	10002	
528.87	11753	
529.07	11632	
529.27	9855.5	
529.46	9241.1	
529.66	11111	
529.85	11536	
530.05	9074.5	
530.25	9882.1	
530.44	12727	
530.64	11037	
530.83	9620	
531.03	9961.3	
531.23	11574	
531.42	11718	
531.62	10836	
531.81	10033	
532.01	11998	
532.21	12467	
532.4	9705.3	
532.6	10140	
532.79	12841	
532.99	11987	
533.18	10185	
533.38	11187	
533.58	11493	
533.77	12413	
533.97	10116	
534.16	10976	
534.36	12610	
534.55	11619	
534.75	11207	
534.95	10180	
535.14	12424	
535.34	11595	
535.53	9783.1	
535.73	11923	
535.92	12887	
536.12	11758	
536.31	9833.7	
536.51	11209	
536.71	11942	
536.9	11652	
537.1	10023	
537.29	10228	
537.49	12372	
537.68	11531	
537.88	10681	
538.07	9757.9	
538.27	11688	
538.46	12863	
538.66	9850.7	
538.86	10167	
539.05	11733	
539.25	12185	
539.44	10505	
539.64	9946.3	
539.83	11595	
540.03	12547	
540.22	9840.5	
540.42	9951.1	
540.61	11745	
540.81	11951	
541	10553	
541.2	11167	
541.39	11320	
541.59	11790	
541.78	10869	
541.98	9682.8	
542.18	10900	
542.37	10933	
542.57	10178	
542.76	10740	
542.96	10873	
543.15	11639	
543.35	10045	
543.54	9411.1	
543.74	11903	
543.93	11464	
544.13	9998.2	
544.32	11219	
544.52	11753	
544.71	10897	
544.91	9125.7	
545.1	10498	
545.3	10942	
545.49	11817	
545.69	9068.4	
545.88	9751.7	
546.08	12635	
546.27	12209	
546.47	10230	
546.66	9435.7	
546.86	11930	
547.05	12523	
547.24	9784.5	
547.44	9600.2	
547.63	10788	
547.83	12025	
548.02	10062	
548.22	10093	
548.41	10550	
548.61	11948	
548.8	9443.9	
549	9418.6	
549.19	11222	
549.39	11642	
549.58	9050.7	
549.78	9695.8	
549.97	11644	
550.17	11138	
550.36	10570	
550.55	11654	
550.75	11009	
550.94	11996	
551.14	9312.1	
551.33	9819.3	
551.53	10516	
551.72	11533	
551.92	9691	
552.11	9477.3	
552.31	11527	
552.5	11632	
552.69	11196	
552.89	9094.3	
553.08	11333	
553.28	11021	
553.47	9431.6	
553.67	10722	
553.86	12101	
554.06	10347	
554.25	8582.4	
554.44	9256.1	
554.64	12920	
554.83	12415	
555.03	9237	
555.22	9697.8	
555.42	11559	
555.61	11342	
555.8	9450.7	
556	9767.4	
556.19	10375	
556.39	11727	
556.58	9538.8	
556.78	9429.5	
556.97	11196	
557.16	10854	
557.36	10772	
557.55	9185.1	
557.75	10132	
557.94	11972	
558.13	9237.7	
558.33	8916.9	
558.52	11632	
558.72	10634	
558.91	8994.7	
559.1	9326.4	
559.3	10199	
559.49	9873.3	
559.69	8529.8	
559.88	9587.2	
560.07	11105	
560.27	11514	
560.46	9808.4	
560.66	9987.9	
560.85	10852	
561.04	10030	
561.24	8971.5	
561.43	9234.3	
561.63	10245	
561.82	10514	
562.01	10499	
562.21	9432.9	
562.4	11116	
562.59	12134	
562.79	9328.5	
562.98	9093.7	
563.18	10989	
563.37	12588	
563.56	9852.8	
563.76	8871.1	
563.95	10391	
564.14	10430	
564.34	9346.9	
564.53	9059.5	
564.73	10947	
564.92	11447	
565.11	9611.1	
565.31	8911.4	
565.5	11699	
565.69	10481	
565.89	9097.1	
566.08	9434.3	
566.27	11451	
566.47	11889	
566.66	10090	
566.85	8606.2	
567.05	11067	
567.24	10459	
567.44	9043.8	
567.63	10477	
567.82	11244	
568.02	11001	
568.21	9003.6	
568.4	9508.7	
568.6	10878	
568.79	11008	
568.98	8822.6	
569.18	9050.7	
569.37	10925	
569.56	13028	
569.76	9357.9	
569.95	10376	
570.14	11272	
570.34	11115	
570.53	8839	
570.72	8847.9	
570.91	11602	
571.11	10788	
571.3	9346.2	
571.49	10357	
571.69	10910	
571.88	10326	
572.07	10013	
572.27	9884.9	
572.46	10443	
572.65	11462	
572.85	9108.7	
573.04	9442.5	
573.23	11718	
573.43	10959	
573.62	8880.7	
573.81	9542.9	
574	10989	
574.2	10802	
574.39	9361.9	
574.58	9452.7	
574.78	11949	
574.97	11094	
575.16	9770.9	
575.36	10216	
575.55	11480	
575.74	11721	
575.93	8905.9	
576.13	10157	
576.32	10823	
576.51	11555	
576.71	9370.8	
576.9	10845	
577.09	11762	
577.28	11426	
577.48	9908.1	
577.67	8899.1	
577.86	11002	
578.05	11326	
578.25	9566.7	
578.44	9658.9	
578.63	11121	
578.83	12413	
579.02	8975.6	
579.21	10574	
579.4	11258	
579.6	10937	
579.79	9738.8	
579.98	12053	
580.17	11748	
580.37	11794	
580.56	9154.4	
580.75	10019	
580.94	12312	
581.14	12112	
581.33	10506	
581.52	9344.2	
581.71	11602	
581.91	12366	
582.1	9058.2	
582.29	9698.5	
582.48	11238	
582.68	11145	
582.87	10222	
583.06	9903.3	
583.25	11622	
583.45	11451	
583.64	10507	
583.83	11387	
584.02	11001	
584.21	11583	
584.41	10532	
584.6	9832.3	
584.79	11189	
584.98	12144	
585.18	9202.9	
585.37	9217.2	
585.56	10726	
585.75	11622	
585.94	9375.6	
586.14	10202	
586.33	12201	
586.52	11103	
586.71	9891	
586.91	9450	
587.1	10411	
587.29	11544	
587.48	9512.8	
587.67	9258.2	
587.87	11254	
588.06	11430	
588.25	10760	
588.44	9855.5	
588.63	10828	
588.83	11456	
589.02	9127.1	
589.21	8870.4	
589.4	10408	
589.59	10217	
589.78	7965.9	
589.98	8353.7	
590.17	9728.5	
590.36	10303	
590.55	7535.2	
590.74	8439	
590.94	11678	
591.13	10177	
591.32	8362.5	
591.51	7868.3	
591.7	10854	
591.89	10202	
592.09	8054	
592.28	8555	
592.47	9473.9	
592.66	11366	
592.85	8044.4	
593.05	8317.5	
593.24	10067	
593.43	10871	
593.62	8347.5	
593.81	8927.1	
594	10183	
594.19	10419	
594.39	8292.9	
594.58	8277.9	
594.77	10406	
594.96	11131	
595.15	8082	
595.34	8755.7	
595.54	10499	
595.73	9557.9	
595.92	7481.9	
596.11	8680.7	
596.3	10948	
596.49	9654.8	
596.68	8431.5	
596.88	9019.9	
597.07	10740	
597.26	9480.7	
597.45	7988.4	
597.64	9294.4	
597.83	9752.4	
598.02	10425	
598.22	8025.3	
598.41	8836.3	
598.6	10292	
598.79	9619.3	
598.98	8229.4	
599.17	9213.8	
599.36	10224	
599.55	11546	
599.74	10407	
599.94	10068	
600.13	10813	
600.32	9568.8	
600.51	7944.1	
600.7	8036.9	
600.89	11453	
601.08	11618	
601.27	7934.5	
601.47	8951.7	
601.66	10683	
601.85	11419	
602.04	8519.5	
602.23	8880.7	
602.42	9717.6	
602.61	10446	
602.8	8609	
602.99	8353.7	
603.18	10236	
603.37	10442	
603.57	9011.1	
603.76	9594.7	
603.95	11259	
604.14	10862	
604.33	8452	
604.52	8722.3	
604.71	10482	
604.9	9960.6	
605.09	9310.7	
605.28	9236.3	
605.47	11040	
605.66	10757	
605.86	9027.4	
606.05	8426	
606.24	10965	
606.43	9503.3	
606.62	8720.3	
606.81	9497.8	
607	10819	
607.19	10131	
607.38	8146.8	
607.57	8406.2	
607.76	9862.3	
607.95	9268.4	
608.14	8763.9	
608.33	9346.9	
608.52	9822.7	
608.72	10774	
608.91	8023.9	
609.1	7877.9	
609.29	9936.7	
609.48	9442.5	
609.67	8959.9	
609.86	7955.7	
610.05	9541.5	
610.24	10003	
610.43	7743.4	
610.62	7438.2	
610.81	11083	
611	10907	
611.19	7896.3	
611.38	8667.7	
611.57	10284	
611.76	11541	
611.95	7726.3	
612.14	7569.3	
612.33	10021	
612.52	9513.5	
612.71	8330.5	
612.9	7524.2	
613.09	9110	
613.28	11469	
613.47	8026.7	
613.66	9036.3	
613.85	10142	
614.04	9559.2	
614.24	8107.9	
614.43	7277.8	
614.62	10266	
614.81	10247	
615	8739.4	
615.19	8723	
615.38	9473.2	
615.57	9837.8	
615.76	8523.6	
615.95	9525.1	
616.14	10243	
616.33	10003	
616.52	8873.2	
616.71	9076.6	
616.9	10175	
617.09	10145	
617.28	8198.7	
617.47	9480.7	
617.66	9370.1	
617.85	9406.3	
618.04	9130.5	
618.22	8583	
618.41	9731.3	
618.6	10704	
618.79	8502.5	
618.98	8148.2	
619.17	10953	
619.36	9315.5	
619.55	8324.3	
619.74	8570.1	
619.93	10301	
620.12	9688.9	
620.31	9045.9	
620.5	9366	
620.69	10858	
620.88	11299	
621.07	9896.5	
621.26	8916.9	
621.45	10431	
621.64	10495	
621.83	9139.4	
622.02	8210.3	
622.21	10520	
622.4	10263	
622.59	9543.5	
622.78	9289.6	
622.97	9867.8	
623.16	10897	
623.35	8906.6	
623.54	8072.4	
623.72	10122	
623.91	10242	
624.1	9187.2	
624.29	7942.7	
624.48	11402	
624.67	10572	
624.86	9153.7	
625.05	8197.3	
625.24	11408	
625.43	9779.1	
625.62	10960	
625.81	8353	
626	10776	
626.19	10065	
626.38	9198.8	
626.56	8538	
626.75	9813.2	
626.94	10697	
627.13	9049.3	
627.32	7749.5	
627.51	10463	
627.7	11907	
627.89	7936.6	
628.08	9104.6	
628.27	9613.2	
628.46	9896.5	
628.65	8241.7	
628.83	7920.9	
629.02	10440	
629.21	9704	
629.4	8675.2	
629.59	8908.7	
629.78	9657.5	
629.97	10661	
630.16	8996	
630.35	8348.2	
630.54	11149	
630.72	10858	
630.91	8434.9	
631.1	8973.5	
631.29	10252	
631.48	10532	
631.67	9015.8	
631.86	8505.2	
632.05	9891	
632.24	9920.4	
632.42	8122.2	
632.61	8884.1	
632.8	9990	
632.99	9703.3	
633.18	8815.8	
633.37	9176.9	
633.56	10178	
633.75	10076	
633.93	8843.8	
634.12	8415.1	
634.31	11146	
634.5	10778	
634.69	8514.1	
634.88	9079.3	
635.07	10028	
635.25	10682	
635.44	9493	
635.63	9611.1	
635.82	9938.8	
636.01	9389.3	
636.2	9423.4	
636.39	8895.7	
636.57	11124	
636.76	10789	
636.95	8357.1	
637.14	9791.3	
637.33	10308	
637.52	11363	
637.7	8036.9	
637.89	9039.7	
638.08	9871.9	
638.27	11413	
638.46	9147.6	
638.65	9536	
638.83	11399	
639.02	9633	
639.21	9047.2	
639.4	9538.8	
639.59	10161	
639.78	9734.7	
639.96	8263.6	
640.15	8191.2	
640.34	10033	
640.53	10321	
640.72	7935.2	
640.91	8262.9	
641.09	9435.7	
641.28	10942	
641.47	8321.6	
641.66	9017.2	
641.85	10148	
642.03	10358	
642.22	8843.8	
642.41	8303.1	
642.6	9564	
642.79	8785.1	
642.97	8090.2	
643.16	8897.7	
643.35	9476.6	
643.54	9299.8	
643.73	7855.3	
643.91	8771.5	
644.1	8949.6	
644.29	9675.3	
644.48	7944.1	
644.67	7883.3	
644.85	9217.2	
645.04	9456.8	
645.23	7364.5	
645.42	7664.9	
645.6	8872.5	
645.79	10099	
645.98	7664.2	
646.17	6621.1	
646.36	8526.4	
646.54	9215.9	
646.73	8357.1	
646.92	7206.8	
647.11	8753	
647.29	9941.5	
647.48	7277.1	
647.67	7079.8	
647.86	10187	
648.05	10193	
648.23	7616.4	
648.42	8927.1	
648.61	9501.2	
648.8	9237	
648.98	7283.3	
649.17	7606.2	
649.36	8822	
649.55	8339.3	
649.73	7273.7	
649.92	8059.4	
650.11	8755.1	
650.3	8968.7	
650.48	7388.4	
650.67	7128.3	
650.86	9270.5	
651.05	8166.6	
651.23	7359	
651.42	7362.4	
651.61	8704.5	
651.79	8854.7	
651.98	7617.1	
652.17	7163.1	
652.36	9166	
652.54	8227.4	
652.73	7176.1	
652.92	6985.6	
653.11	9234.3	
653.29	9249.3	
653.48	6302.3	
653.67	7459.4	
653.85	8982.4	
654.04	10053	
654.23	7595.2	
654.42	7120.1	
654.6	8352.3	
654.79	8974.9	
654.98	6424.5	
655.16	7006.1	
655.35	7875.1	
655.54	7814.4	
655.73	6596.5	
655.91	6569.2	
656.1	9173.5	
656.29	7888.1	
656.47	6178	
656.66	8005.5	
656.85	8222.6	
657.03	8317.5	
657.22	6822.5	
657.41	6880.5	
657.59	8411.7	
657.78	8146.8	
657.97	6430.6	
658.16	7299	
658.34	9058.8	
658.53	9512.1	
658.72	8200.1	
658.9	8781.7	
659.09	8444.5	
659.28	8585.1	
659.46	6932.4	
659.65	6907.8	
659.84	8234.9	
660.02	8836.3	
660.21	6792.4	
660.4	6769.2	
660.58	9259.5	
660.77	8627.4	
660.96	7488.7	
661.14	6423.1	
661.33	9805	
661.52	9695.1	
661.7	6409.5	
661.89	10400	
662.08	8154.3	
662.26	7744.7	
662.45	6574	
662.64	6732.4	
662.82	8930.5	
663.01	7990.5	
663.2	6857.3	
663.38	7647.8	
663.57	8787.2	
663.75	8630.8	
663.94	7123.5	
664.13	8473.1	
664.31	8134.5	
664.5	8865.7	
664.69	7539.9	
664.87	7993.9	
665.06	7828.7	
665.25	8639	
665.43	8176.2	
665.62	8267	
665.8	8974.2	
665.99	8230.1	
666.18	7076.4	
666.36	7200	
666.55	8940.1	
666.74	8944.8	
666.92	6617.7	
667.11	8419.2	
667.29	8202.8	
667.48	8858.1	
667.67	8084.7	
667.85	7069.6	
668.04	8270.4	
668.22	8263.6	
668.41	7097.6	
668.6	7356.3	
668.78	8034.9	
668.97	8306.6	
669.15	7544.7	
669.34	6393.1	
669.53	8087.4	
669.71	8439.7	
669.9	6654.5	
670.08	7322.9	
670.27	8065.6	
670.46	8637.6	
670.64	7505.1	
670.83	7747.5	
671.01	7963.9	
671.2	8632.2	
671.38	6700.3	
671.57	6534.4	
671.76	9244.5	
671.94	9835.7	
672.13	6492.7	
672.31	7677.2	
672.5	8802.9	
672.69	7887.4	
672.87	6705.7	
673.06	7120.1	
673.24	8605.6	
673.43	8083.3	
673.61	7436.2	
673.8	7053.2	
673.98	8785.8	
674.17	9022	
674.36	7574.8	
674.54	7421.2	
674.73	8605.6	
674.91	8746.9	
675.1	7208.2	
675.28	6771.3	
675.47	8328.4	
675.65	8908.7	
675.84	7073.7	
676.03	7329.7	
676.21	8049.9	
676.4	7582.3	
676.58	7911.3	
676.77	7598	
676.95	9725.1	
677.14	8013	
677.32	6647.7	
677.51	6512.5	
677.69	8807.6	
677.88	7672.4	
678.06	6560.3	
678.25	6612.9	
678.44	8402.1	
678.62	8041.7	
678.81	6305.7	
678.99	7338.6	
679.18	9194	
679.36	8718.9	
679.55	6875	
679.73	7720.2	
679.92	8676.6	
680.1	8021.9	
680.29	8305.2	
680.47	6941.2	
680.66	7916.1	
680.84	8866.3	
681.03	6234.7	
681.21	7453.2	
681.4	7978.2	
681.58	7960.5	
681.77	6638.1	
681.95	6619.7	
682.14	8884.1	
682.32	9280.7	
682.51	7626	
682.69	6275	
682.88	7984.3	
683.06	8568	
683.25	7320.8	
683.43	7743.4	
683.62	8254.7	
683.8	8722.3	
683.99	7809.6	
684.17	7023.9	
684.36	9474.6	
684.54	8045.1	
684.73	5982.1	
684.91	6149.4	
685.1	8191.2	
685.28	7623.9	
685.46	6810.9	
685.65	6839.5	
685.83	8452	
686.02	7912.7	
686.2	6315.3	
686.39	6541.2	
686.57	7656.7	
686.76	9266.4	
686.94	6442.9	
687.13	6490	
687.31	8475.2	
687.5	7954.3	
687.68	5971.9	
687.86	7327.6	
688.05	9790	
688.23	7341.3	
688.42	7455.3	
688.6	6508.4	
688.79	7817.1	
688.97	7883.3	
689.16	6993.1	
689.34	5797.8	
689.52	8723.7	
689.71	8804.2	
689.89	7246.4	
690.08	6505	
690.26	8023.9	
690.45	7940	
690.63	7256	
690.81	6503	
691	7770.7	
691.18	7772.7	
691.37	6685.9	
691.55	9128.5	
691.74	7712	
691.92	9719	
692.1	6856.6	
692.29	6100.9	
692.47	7902.4	
692.66	7101.7	
692.84	6446.3	
693.02	7025.2	
693.21	7391.8	
693.39	7858.7	
693.58	7122.2	
693.76	6620.4	
693.94	9269.8	
694.13	9044.5	
694.31	6600.6	
694.5	7745.4	
694.68	7821.9	
694.86	8256.7	
695.05	6988.4	
695.23	7466.2	
695.42	8582.4	
695.6	11092	
695.78	7602.1	
695.97	6647.7	
696.15	8528.4	
696.34	7913.4	
696.52	6347.3	
696.7	7202	
696.89	8281.3	
697.07	7611.6	
697.25	7150.8	
697.44	8789.9	
697.62	8202.1	
697.81	8657.4	
697.99	6874.3	
698.17	7268.9	
698.36	7485.3	
698.54	8258.1	
698.72	7116	
698.91	6094.8	
699.09	7778.2	
699.28	7752.9	
699.46	6820.4	
699.64	6784.9	
699.83	7626.6	
700.01	9059.5	
700.19	7466.9	
700.38	5862	
700.56	9022.7	
700.74	7776.8	
700.93	6318.7	
701.11	7249.8	
701.29	8512	
701.48	9520.3	
701.66	6692.8	
701.84	6670.2	
702.03	7976.2	
702.21	8642.4	
702.39	6150.7	
702.58	6818.4	
702.76	8451.3	
702.94	8493.6	
703.13	6255.2	
703.31	8648.6	
703.49	7591.8	
703.68	8652.7	
703.86	6325.5	
704.04	7548.8	
704.23	8165.3	
704.41	8632.2	
704.59	6563.7	
704.78	7883.3	
704.96	9400.9	
705.14	8659.5	
705.33	6337.1	
705.51	7203.4	
705.69	7991.2	
705.87	9002.2	
706.06	7575.4	
706.24	6282.5	
706.42	8404.2	
706.61	8708	
706.79	7600	
706.97	6350.8	
707.16	7832.8	
707.34	8450.6	
707.52	7516	
707.7	6657.9	
707.89	7988.4	
708.07	7705.8	
708.25	7513.3	
708.44	7719.5	
708.62	7998.7	
708.8	9228.8	
708.98	7867.6	
709.17	6772.6	
709.35	8361.2	
709.53	8336.6	
709.72	6402.6	
709.9	6568.5	
710.08	8595.3	
710.26	8640.4	
710.45	8169.3	
710.63	6737.8	
710.81	8247.9	
710.99	8239.7	
711.18	7392.5	
711.36	6796.5	
711.54	8128.4	
711.72	8845.9	
711.91	6876.4	
712.09	6249	
712.27	8248.5	
712.45	8934.6	
712.64	7124.2	
712.82	5954.8	
713	7487.4	
713.18	7703.8	
713.37	6170.5	
713.55	7507.2	
713.73	8535.9	
713.91	6944	
714.1	6414.9	
714.28	5803.3	
714.46	7936.6	
714.64	7164.5	
714.83	5111.7	
715.01	6014.9	
715.19	7236.2	
715.37	6546	
715.55	5662	
715.74	6018.3	
715.92	8122.2	
716.1	6100.9	
716.28	7181.5	
716.47	6164.4	
716.65	6761	
716.83	6864.8	
717.01	5954.8	
717.19	6026.5	
717.38	9198.1	
717.56	6499.6	
717.74	6322.8	
717.92	5463.3	
718.1	7931.8	
718.29	7107.8	
718.47	5098.8	
718.65	5907	
718.83	7947.5	
719.01	7875.8	
719.2	5044.8	
719.38	6140.5	
719.56	7555	
719.74	9258.9	
719.92	5697.4	
720.11	6821.1	
720.29	7586.4	
720.47	6576	
720.65	5132.2	
720.83	6061.3	
721.02	6948.1	
721.2	6649.8	
721.38	6147.3	
721.56	5312.4	
721.74	6158.9	
721.92	6378.1	
722.11	6628.6	
722.29	6262	
722.47	7662.8	
722.65	6896.9	
722.83	5411.4	
723.01	6343.9	
723.2	6918.7	
723.38	7229.3	
723.56	4808.6	
723.74	6055.8	
723.92	6358.3	
724.1	7621.9	
724.29	5261.2	
724.47	6521.4	
724.65	6438.8	
724.83	6369.9	
725.01	5201.2	
725.19	6173.3	
725.37	6489.3	
725.56	6599.2	
725.74	4965.6	
725.92	5328.8	
726.1	6410.1	
726.28	6725.5	
726.46	5795.1	
726.64	5398.4	
726.83	6642.2	
727.01	6958.3	
727.19	4954	
727.37	5881.1	
727.55	6799.9	
727.73	7357.7	
727.91	4965	
728.09	4850.3	
728.28	7346.7	
728.46	8130.4	
728.64	6090	
728.82	6056.5	
729	8613.1	
729.18	7825.3	
729.36	5269.4	
729.54	7741.3	
729.72	8947.6	
729.91	7108.5	
730.09	7341.3	
730.27	5962.3	
730.45	7033.4	
730.63	7715.4	
730.81	6722.1	
730.99	5651.7	
731.17	8353	
731.35	6825.9	
731.53	6285.9	
731.71	5738.4	
731.9	7981.6	
732.08	8134.5	
732.26	6105.7	
732.44	5685.2	
732.62	8153.6	
732.8	7720.8	
732.98	6519.4	
733.16	5500.2	
733.34	7607.5	
733.52	6414.9	
733.7	6028.5	
733.88	6413.6	
734.07	7551.5	
734.25	7282.6	
734.43	5504.3	
734.61	7186.3	
734.79	8914.8	
734.97	7104.4	
735.15	5637.4	
735.33	6046.3	
735.51	7516.7	
735.69	7153.6	
735.87	7544	
736.05	6253.8	
736.23	7402	
736.41	7138.5	
736.59	6040.8	
736.77	6140.5	
736.95	7865.6	
737.13	7296.2	
737.32	5720.7	
737.5	6016.9	
737.68	8443.8	
737.86	7184.3	
738.04	5515.2	
738.22	7484.6	
738.4	6938.5	
738.58	7300.3	
738.76	6208.8	
738.94	5076.9	
739.12	7039.6	
739.3	6952.9	
739.48	6806.8	
739.66	6550.1	
739.84	7423.2	
740.02	7379.5	
740.2	5205.3	
740.38	5582.1	
740.56	7786.4	
740.74	6650.4	
740.92	6262	
741.1	6267.5	
741.28	7138.5	
741.46	6978.8	
741.64	5778.7	
741.82	6371.9	
742	7139.2	
742.18	7084.6	
742.36	5986.9	
742.54	5483.1	
742.72	7722.9	
742.9	6365.8	
743.08	6391	
743.26	5152	
743.44	7991.9	
743.62	7819.1	
743.8	6591.7	
743.98	5541.8	
744.16	7535.8	
744.34	7194.5	
744.52	6507.1	
744.7	6371.2	
744.88	7644.4	
745.06	7058	
745.24	6472.3	
745.42	6586.3	
745.6	7739.3	
745.78	7382.9	
745.96	5221	
746.14	5526.8	
746.32	8530.5	
746.5	7697.6	
746.68	6117.3	
746.86	5587.5	
747.03	8181	
747.21	6350.1	
747.39	6100.2	
747.57	5549.3	
747.75	7225.2	
747.93	7676.5	
748.11	5554.1	
748.29	5404.6	
748.47	8895	
748.65	6907.8	
748.83	6330.3	
749.01	5969.1	
749.19	7416.4	
749.37	6539.8	
749.55	5903.6	
749.73	6054.5	
749.91	7102.4	
750.09	6847.7	
750.26	5969.1	
750.44	5414.8	
750.62	7118.7	
750.8	7081.9	
750.98	5223.7	
751.16	5543.2	
751.34	7190.4	
751.52	6453.8	
751.7	6451.1	
751.88	5175.9	
752.06	7652.6	
752.24	7459.4	
752.42	5094.7	
752.59	5527.5	
752.77	7056.6	
752.95	8367.3	
753.13	6289.3	
753.31	5644.2	
753.49	6655.2	
753.67	7148.1	
753.85	5961	
754.03	5504.9	
754.21	7384.3	
754.38	7884.7	
754.56	5668.8	
754.74	4637.3	
754.92	6581.5	
755.1	7294.9	
755.28	4506.2	
755.46	4549.9	
755.64	7924.3	
755.82	8047.2	
755.99	4631.8	
756.17	4780.6	
756.35	5200.5	
756.53	6889.4	
756.71	3532.7	
756.89	4486.4	
757.07	6457.2	
757.25	5479	
757.42	5185.5	
757.6	6125.5	
757.78	6600.6	
757.96	5576.6	
758.14	4842.1	
758.32	4306.9	
758.5	5113.1	
758.67	5966.4	
758.85	4607.2	
759.03	4760.8	
759.21	6180.8	
759.39	5473.5	
759.57	4188.8	
759.75	5440.1	
759.92	6822.5	
760.1	6050.4	
760.28	5847	
760.46	6051.7	
760.64	5855.8	
760.82	5646.2	
760.99	5748.6	
761.17	4795	
761.35	6739.2	
761.53	5685.8	
761.71	5028.4	
761.89	5773.2	
762.06	6668.9	
762.24	6182.8	
762.42	5140.4	
762.6	4885.8	
762.78	6142.5	
762.96	6954.2	
763.13	5588.9	
763.31	5246.2	
763.49	7112.6	
763.67	6187.6	
763.85	6118	
764.02	6769.2	
764.2	7359.7	
764.38	6529.6	
764.56	5079	
764.74	6070.2	
764.91	7511.3	
765.09	6367.8	
765.27	4729.4	
765.45	4614.8	
765.63	7498.3	
765.8	7348.1	
765.98	4260.5	
766.16	4617.5	
766.34	5827.8	
766.52	5616.9	
766.69	5673.6	
766.87	4469.4	
767.05	6232	
767.23	7002.7	
767.41	4775.2	
767.58	5005.2	
767.76	6845.7	
767.94	6941.2	
768.12	4863.9	
768.29	5646.9	
768.47	6422.4	
768.65	7129	
768.83	4461.8	
769	5704.3	
769.18	5842.2	
769.36	6681.8	
769.54	5638.1	
769.72	4457.1	
769.89	6864.8	
770.07	7038.2	
770.25	4807.9	
770.43	6189.6	
770.6	7675.1	
770.78	8259.5	
770.96	4979.3	
771.14	5710.4	
771.31	6693.4	
771.49	6133.7	
771.67	3992.9	
771.85	4371.7	
772.02	5270.1	
772.2	6055.8	
772.38	5199.8	
772.55	4633.2	
772.73	6293.4	
772.91	6087.9	
773.09	4988.9	
773.26	5084.4	
773.44	6287.3	
773.62	5962.3	
773.8	4478.2	
773.97	4216.8	
774.15	6323.4	
774.33	5890	
774.5	4388.1	
774.68	4726.7	
774.86	6531	
775.04	5906.3	
775.21	4443.4	
775.39	4433.2	
775.57	6224.5	
775.74	6707.1	
775.92	4289.1	
776.1	4181.3	
776.27	6163.7	
776.45	7468.3	
776.63	4400.4	
776.81	3943	
776.98	5793	
777.16	6963.8	
777.34	4566.3	
777.51	4532.8	
777.69	5772.5	
777.87	5562.3	
778.04	4524.6	
778.22	5292	
778.4	5547.3	
778.57	6264.1	
778.75	3824.2	
778.93	4130.8	
779.1	5357.5	
779.28	5208.7	
779.46	3782.6	
779.64	4313	
779.81	6417	
779.99	7360.4	
780.17	5170.4	
780.34	5328.8	
780.52	5843.5	
780.69	6126.8	
780.87	4681	
781.05	4141	
781.22	5890.6	
781.4	5968.5	
781.58	4265.9	
781.75	3422.2	
781.93	5912.5	
782.11	5222.3	
782.28	5288.5	
782.46	4293.9	
782.64	5082.4	
782.81	6131.6	
782.99	4383.3	
783.17	4300.7	
783.34	6011.5	
783.52	5193	
783.69	4536.9	
783.87	5442.8	
784.05	5199.8	
784.22	5264.6	
784.4	5422.3	
784.58	4673.5	
784.75	6212.2	
784.93	5255.8	
785.1	4287.1	
785.28	4943.1	
785.46	5958.9	
785.63	5259.2	
785.81	4224.3	
785.99	4071.4	
786.16	5428.5	
786.34	5819.6	
786.51	4182	
786.69	4537.6	
786.87	4959.5	
787.04	5516.5	
787.22	3974.4	
787.39	4973.2	
787.57	5187.5	
787.75	6414.2	
787.92	5212.1	
788.1	5138.4	
788.27	5285.8	
788.45	4998.4	
788.63	4812	
788.8	3398.3	
788.98	5793.7	
789.15	4918.5	
789.33	3584.6	
789.5	4351.3	
789.68	6161.7	
789.86	6262	
790.03	4724.7	
790.21	4116.4	
790.38	6118	
790.56	5396.4	
790.73	3999	
790.91	3992.2	
791.09	5215.5	
791.26	6112.5	
791.44	4235.2	
791.61	3652.2	
791.79	5223	
791.96	5352	
792.14	3810.6	
792.32	3317	
792.49	5245.5	
792.67	5308.3	
792.84	3832.4	
793.02	3627.6	
793.19	5732.9	
793.37	6511.9	
793.54	3325.2	
793.72	3712.3	
793.89	6711.2	
794.07	5214.8	
794.25	4429.1	
794.42	3437.2	
794.6	6320.7	
794.77	5974.6	
794.95	4730.1	
795.12	4139.6	
795.3	5184.8	
795.47	5893.4	
795.65	4493.2	
795.82	4255.7	
796	5019.6	
796.17	7068.2	
796.35	4149.2	
796.52	4923.3	
796.7	5797.1	
796.87	5868.1	
797.05	5175.2	
797.22	5104.9	
797.4	5830.6	
797.57	6906.4	
797.75	4282.3	
797.92	4044.7	
798.1	6190.3	
798.27	5205.9	
798.45	3435.8	
798.62	3661.1	
798.8	5549.3	
798.97	6052.4	
799.15	4500.8	
799.32	4278.2	
799.5	4758.1	
799.67	5582.8	
799.85	4629.1	
800.02	3348.4	
800.2	5132.2	
800.37	5537	
800.55	4838	
800.72	4039.3	
800.9	6008.1	
801.07	6496.2	
801.25	5462.6	
801.42	4421.6	
801.6	6026.5	
801.77	5707.7	
801.95	4044.7	
802.12	3944.4	
802.29	5669.5	
802.47	5732.9	
802.64	4364.9	
802.82	3249.4	
802.99	5109	
803.17	6237.4	
803.34	4216.1	
803.52	3837.9	
803.69	6926.9	
803.87	4914.4	
804.04	4246.1	
804.21	4377.9	
804.39	6330.3	
804.56	5379.3	
804.74	3588.7	
804.91	4444.8	
805.09	5160.9	
805.26	5300.8	
805.44	3697.9	
805.61	4123.9	
805.78	5859.9	
805.96	5920	
806.13	4450.2	
806.31	4764.9	
806.48	4691.9	
806.66	5238.7	
806.83	4390.8	
807	4298	
807.18	5103.5	
807.35	5534.3	
807.53	4296.6	
807.7	3412.6	
807.87	6430.6	
808.05	5197.7	
808.22	4721.9	
808.4	3398.3	
808.57	5210	
808.74	4857.1	
808.92	3861.1	
809.09	5045.5	
809.27	5038	
809.44	5743.2	
809.61	3538.2	
809.79	3795.6	
809.96	6394.4	
810.14	6075.6	
810.31	3296.5	
810.48	4127.3	
810.66	5293.3	
810.83	6150.1	
811.01	3896.6	
811.18	4387.4	
811.35	6052.4	
811.53	4648.9	
811.7	4788.2	
811.87	4421.6	
812.05	5216.9	
812.22	5139.7	
812.39	3805.8	
812.57	3691.8	
812.74	5186.8	
812.92	7030	
813.09	4129.4	
813.26	4546.5	
813.44	6711.2	
813.61	5166.3	
813.78	3462.4	
813.96	4636.6	
814.13	5239.4	
814.3	4853	
814.48	4980	
814.65	4130.1	
814.82	6554.2	
815	4969.1	
815.17	4271.4	
815.34	5200.5	
815.52	5122.7	
815.69	5123.3	
815.87	4218.1	
816.04	3630.4	
816.21	5199.1	
816.38	4566.3	
816.56	4081.6	
816.73	3761.4	
816.9	6627.2	
817.08	6036.7	
817.25	3761.4	
817.42	4843.4	
817.6	4773.8	
817.77	5233.9	
817.94	4354	
818.12	3768.9	
818.29	4900.1	
818.46	7911.3	
818.64	3987.4	
818.81	3736.9	
818.98	4839.4	
819.16	7178.8	
819.33	4539	
819.5	4249.5	
819.67	5624.4	
819.85	6323.4	
820.02	4146.5	
820.19	4400.4	
820.37	5412.8	
820.54	5048.2	
820.71	4275.5	
820.88	5383.4	
821.06	5424.4	
821.23	5019.6	
821.4	4322.6	
821.58	4291.9	
821.75	6021	
821.92	5339.7	
822.09	3424.9	
822.27	3518.4	
822.44	5198.4	
822.61	5131.5	
822.79	3464.5	
822.96	6791.1	
823.13	5713.8	
823.3	4919.2	
823.48	4044.1	
823.65	3637.9	
823.82	5979.4	
823.99	4743.8	
824.17	5137.7	
824.34	3700.7	
824.51	6958.3	
824.68	5233.9	
824.86	3814.7	
825.03	4283	
825.2	5214.1	
825.37	6403.3	
825.55	3850.2	
825.72	4287.1	
825.89	6980.8	
826.06	6461.3	
826.24	4167.6	
826.41	4175.8	
826.58	6351.4	
826.75	5573.9	
826.92	3274.7	
827.1	3605.1	
827.27	8800.1	
827.44	6968.6	
827.61	3919.8	
827.79	4794.3	
827.96	4886.5	
828.13	5347.9	
828.3	4106.9	
828.47	3442	
828.65	5391.6	
828.82	5457.2	
828.99	5379.3	
829.16	4703.5	
829.34	5826.5	
829.51	5537.7	
829.68	4324.6	
829.85	4423.6	
830.02	6118	
830.2	5911.8	
830.37	3251.5	
830.54	5199.8	
830.71	6716.7	
830.88	5205.9	
831.05	3347.7	
831.23	3889.1	
831.4	6437.4	
831.57	7259.4	
831.74	3898	
831.91	3422.8	
832.09	5429.8	
832.26	5870.8	
832.43	4108.9	
832.6	4638	
832.77	5445.5	
832.94	6262	
833.12	3185.3	
833.29	4045.4	
833.46	5654.4	
833.63	7474.4	
833.8	4499.4	
833.97	4080.9	
834.15	5891.3	
834.32	5617.6	
834.49	4300.7	
834.66	4329.4	
834.83	6180.1	
835	4930.8	
835.17	3936.2	
835.35	3962.8	
835.52	5748.6	
835.69	5625.8	
835.86	4166.9	
836.03	3377.8	
836.2	5792.3	
836.37	5440.1	
836.55	4119.8	
836.72	3843.4	
836.89	5378.6	
837.06	5925.5	
837.23	4209.3	
837.4	4577.9	
837.57	6668.2	
837.75	7499.7	
837.92	3725.9	
838.09	3960.1	
838.26	5356.8	
838.43	6130.9	
838.6	4367	
838.77	3824.9	
838.94	7087.3	
839.11	6764.4	
839.29	4104.1	
839.46	3170.9	
839.63	5815.5	
839.8	5493.3	
839.97	3923.9	
840.14	3990.8	
840.31	5569.1	
840.48	5868.1	
840.65	3273.3	
840.82	3911.6	
841	5850.4	
841.17	5827.2	
841.34	3657	
841.51	3720.5	
841.68	5769.1	
841.85	5439.4	
842.02	3839.3	
842.19	3091.1	
842.36	5563.6	
842.53	5531.6	
842.7	3662.5	
842.87	4460.5	
843.05	7363.1	
843.22	5483.1	
843.39	3422.8	
843.56	3773.7	
843.73	5289.2	
843.9	5861.3	
844.07	6002.6	
844.24	4978.6	
844.41	8708.6	
844.58	5033.2	
844.75	3502.7	
844.92	3818.8	
845.09	5836.7	
845.26	5824.4	
845.43	3611.3	
845.6	3864.5	
845.77	5857.9	
845.94	5550.7	
846.12	3995.6	
846.29	4265.9	
846.46	6057.9	
846.63	5796.4	
846.8	3628.3	
846.97	4253.6	
847.14	6374.6	
847.31	5732.3	
847.48	4126.7	
847.65	4536.3	
847.82	6104.3	
847.99	6078.4	
848.16	4877.6	
848.33	4457.1	
848.5	5322.7	
848.67	6358.3	
848.84	3629.7	
849.01	3816.7	
849.18	5234.6	
849.35	4843.4	
849.52	4604.5	
849.69	3540.9	
849.86	6047.7	
850.03	6254.5	
850.2	3676.1	
850.37	4425.7	
850.54	6204	
850.71	5453.7	
850.88	4386.7	
851.05	3567.6	
851.22	5728.9	
851.39	6353.5	
851.56	3427.6	
851.73	4147.1	
851.9	5080.3	
852.07	6076.3	
852.24	4026.3	
852.41	3636.5	
852.58	5620.3	
852.75	5160.2	
852.92	4076.8	
853.09	3533.4	
853.26	5341.8	
853.43	6215.6	
853.6	3618.1	
853.77	3086.3	
853.94	6411.5	
854.11	5812.8	
854.28	5414.1	
854.44	3926	
854.61	6877.1	
854.78	6183.5	
854.95	3585.3	
855.12	4583.4	
855.29	4625.7	
855.46	6693.4	
855.63	3616.7	
855.8	5024.3	
855.97	5400.5	
856.14	6134.3	
856.31	5145.2	
856.48	3937.6	
856.65	5305.6	
856.82	5062.6	
856.99	3489.1	
857.16	3898	
857.33	7146	
857.49	5495.4	
857.66	3900	
857.83	4216.1	
858	5339.1	
858.17	5754.8	
858.34	3445.4	
858.51	3634.5	
858.68	6546	
858.85	6597.2	
859.02	4138.9	
859.19	4465.9	
859.36	5072.1	
859.52	5134.9	
859.69	3644.7	
859.86	4261.1	
860.03	5145.9	
860.2	6408.8	
860.37	3238.5	
860.54	3650.8	
860.71	6033.3	
860.88	6522.1	
861.05	4087.1	
861.21	4595	
861.38	6541.9	
861.55	4987.5	
861.72	3233.1	
861.89	4040	
862.06	6142.5	
862.23	6679.1	
862.4	3488.4	
862.56	3737.5	
862.73	5921.4	
862.9	5556.8	
863.07	4270	
863.24	3283.6	
863.41	4957.4	
863.58	5115.8	
863.75	3714.3	
863.91	4178.5	
864.08	6486.6	
864.25	5970.5	
864.42	4513	
864.59	5032.5	
864.76	6802	
864.93	5082.4	
865.09	3558	
865.26	3849.5	
865.43	6281.1	
865.6	6813.6	
865.77	3112.9	
865.94	3573	
866.1	6442.2	
866.27	6133.7	
866.44	5454.4	
866.61	3446	
866.78	5474.2	
866.95	5963.7	
867.11	3460.4	
867.28	3192.1	
867.45	6142.5	
867.62	5126.7	
867.79	4223.6	
867.96	3532.1	
868.12	5068.7	
868.29	6121.4	
868.46	3566.9	
868.63	4866	
868.8	6324.8	
868.97	6015.6	
869.13	3774.4	
869.3	3764.2	
869.47	5915.9	
869.64	6192.4	
869.81	3640.6	
869.97	3612.6	
870.14	5796.4	
870.31	6623.8	
870.48	3500	
870.65	4603.8	
870.81	5410.7	
870.98	5408	
871.15	4111.6	
871.32	3742.3	
871.48	5834	
871.65	6574	
871.82	3590.1	
871.99	3946.4	
872.16	7049.1	
872.32	6472.9	
872.49	3667.9	
872.66	3657	
872.83	6031.3	
872.99	5341.1	
873.16	4141	
873.33	3599	
873.5	5681.1	
873.67	5819	
873.83	3816	
874	4844.8	
874.17	5839.4	
874.34	6968.6	
874.5	4689.8	
874.67	4550.6	
874.84	6548.7	
875.01	5061.9	
875.17	5109	
875.34	3615.3	
875.51	5707.7	
875.68	6926.2	
875.84	4366.3	
876.01	5378.6	
876.18	5973.9	
876.34	6004	
876.51	3642	
876.68	3534.8	
876.85	5472.2	
877.01	6331.6	
877.18	5177.9	
877.35	3577.8	
877.52	5592.3	
877.68	4978.6	
877.85	3532.1	
878.02	3516.4	
878.18	5564.3	
878.35	5253	
878.52	2889.7	
878.69	4031.8	
878.85	6070.9	
879.02	5978.7	
879.19	5106.3	
879.35	3889.8	
879.52	5956.9	
879.69	6246.3	
879.86	3092.4	
880.02	4053.6	
880.19	5496.1	
880.36	6782.9	
880.52	4151.2	
880.69	4291.2	
880.86	6150.7	
881.02	6193.1	
881.19	3992.2	
881.36	3946.4	
881.52	5980.8	
881.69	5385.5	
881.86	3880.2	
882.02	3764.2	
882.19	6306.4	
882.36	7441	
882.52	3641.3	
882.69	5094.7	
882.86	5799.8	
883.02	5685.8	
883.19	4433.2	
883.36	4153.3	
883.52	6118	
883.69	7073.7	
883.86	3672	
884.02	3220.8	
884.19	6109.8	
884.36	5585.5	
884.52	4101.4	
884.69	3859.7	
884.86	5308.3	
885.02	6746	
885.19	4046.8	
885.36	4220.2	
885.52	5601.9	
885.69	5819	
885.86	5311.7	
886.02	4624.3	
886.19	6043.6	
886.35	5574.6	
886.52	4016.1	
886.69	5123.3	
886.85	5164.3	
887.02	6501.6	
887.19	6501.6	
887.35	6501.6	
887.52	6501.6	
887.68	6501.6	
887.85	6501.6	
888.02	6501.6	
888.18	6501.6	
888.35	6501.6	
888.51	6501.6	
888.68	6501.6	
888.85	6501.6	
889.01	6501.6	
889.18	6501.6	
889.35	6501.6	
889.51	6501.6	
889.68	6501.6	
889.84	6501.6	
890.01	6501.6	
890.17	6501.6	
890.34	6501.6	
890.51	6501.6	
890.67	6501.6	
890.84	6501.6	
891	6501.6	
891.17	6501.6	
891.34	6501.6	
891.5	6501.6	
891.67	6501.6	
891.83	6501.6	
892	6501.6	
892.16	6501.6	
892.33	6501.6	
892.5	6501.6	
892.66	6501.6	
892.83	6501.6	
892.99	6501.6	
893.16	6501.6	
893.32	6501.6	
893.49	6501.6	
893.65	6501.6	
893.82	6501.6	
893.99	6501.6	
894.15	6501.6	
894.32	6501.6	
894.48	6501.6	
894.65	6501.6	
894.81	6501.6	
894.98	6501.6	
895.14	6501.6	
895.31	6501.6	
895.47	6501.6	
895.64	6501.6	
895.81	6501.6	
895.97	6501.6	
896.14	6501.6	
896.3	6501.6	
896.47	6501.6	
896.63	6501.6	
896.8	6501.6	
896.96	6501.6	
897.13	6501.6	
897.29	6501.6	
897.46	6501.6	
897.62	6501.6	
897.79	6501.6	
897.95	6501.6	
898.12	6501.6	
898.28	6501.6	
898.45	6501.6	
898.61	6501.6	
898.78	6501.6	
898.94	6501.6	
899.11	6501.6	
899.27	6501.6	
899.44	6501.6	
899.6	6501.6	
899.77	6501.6	
899.93	6501.6	
900.1	6501.6	
900.26	6501.6	
900.43	6501.6	
900.59	6501.6	
900.76	6501.6	
900.92	6501.6	
901.09	6501.6	
901.25	6501.6	
901.42	6501.6	
901.58	6501.6	
901.75	6501.6	
901.91	6501.6	
902.07	6501.6	
902.24	6501.6	
902.4	6501.6	
902.57	6501.6	
902.73	6501.6	
902.9	6501.6	
903.06	6501.6	
903.23	6501.6	
903.39	6501.6	
903.56	6501.6	
903.72	6501.6	
903.88	6501.6	
904.05	6501.6	
904.21	6501.6	
904.38	6501.6	
904.54	6501.6	
904.71	6501.6	
904.87	6501.6	
905.03	6501.6	
905.2	6501.6	
905.36	6501.6	
905.53	6501.6	
905.69	6501.6	
905.86	6501.6	
906.02	6501.6	
906.18	6501.6	
906.35	6501.6	
906.51	6501.6	
906.68	6501.6	
906.84	6501.6	
907.01	6501.6	
907.17	6501.6	
907.33	6501.6	
907.5	6501.6	
907.66	6501.6	
907.83	6501.6	
907.99	6501.6	
908.15	6501.6	
908.32	6501.6	
908.48	6501.6	
908.65	6501.6	
908.81	6501.6	
908.97	6501.6	
909.14	6501.6	
909.3	6501.6	
909.47	6501.6	
909.63	6501.6	
909.79	6501.6	
909.96	6501.6	
910.12	6501.6	
910.28	6501.6	
910.45	6501.6	
910.61	6501.6	
910.78	6501.6	
910.94	6501.6	
911.1	6501.6	
911.27	6501.6	
911.43	6501.6	
911.59	6501.6	
911.76	6501.6	
911.92	6501.6	
912.08	6501.6	
912.25	6501.6	
912.41	6501.6	
912.57	6501.6	
912.74	6501.6	
912.9	6501.6	
913.07	6501.6	
913.23	6501.6	
913.39	6501.6	
913.56	6501.6	
913.72	6501.6	
913.88	6501.6	
914.05	6501.6	
914.21	6501.6	
914.37	6501.6	
914.54	6501.6	
914.7	6501.6	
914.86	6501.6	
915.03	6501.6	
915.19	6501.6	
