Wavelength	Intensities	
nm	a.u.	
179.22	1635.6	
179.44	1621.3	
179.65	1650	
179.86	1592.6	
180.08	1624	
180.29	3533.4	
180.51	2796.2	
180.72	4651.6	
180.94	5113.1	
181.15	2495.1	
181.37	2510.8	
181.58	4455.7	
181.79	4678.2	
182.01	2580.4	
182.22	2753.2	
182.44	4705.5	
182.65	4132.8	
182.87	3292.5	
183.08	2981.8	
183.29	4921.3	
183.51	4197.7	
183.72	2713.6	
183.94	3654.3	
184.15	4455.7	
184.37	4345.1	
184.58	2499.9	
184.79	3051.5	
185.01	4229.1	
185.22	4765.6	
185.44	3241.9	
185.65	2854.2	
185.86	4463.2	
186.08	4144.4	
186.29	2451.4	
186.51	2567.5	
186.72	4191.5	
186.94	4758.1	
187.15	2941.6	
187.36	2895.1	
187.58	5783.5	
187.79	4494.6	
188.01	2997.5	
188.22	4433.2	
188.43	5152.7	
188.65	4664.6	
188.86	2586.6	
189.08	2944.3	
189.29	4278.2	
189.5	4280.9	
189.72	2741.5	
189.93	2778.4	
190.15	4839.4	
190.36	5386.8	
190.57	2968.2	
190.79	2852.1	
191	4758.8	
191.22	4797	
191.43	2968.9	
191.64	2568.2	
191.86	4936.3	
192.07	4789.5	
192.29	2659.6	
192.5	2717.7	
192.71	4749.2	
192.93	4345.1	
193.14	2683.5	
193.35	2824.1	
193.57	4276.2	
193.78	4832.5	
194	2291	
194.21	2706	
194.42	4103.4	
194.64	4407.2	
194.85	2904.7	
195.07	3321.1	
195.28	4424.3	
195.49	3977.8	
195.71	3474	
195.92	2611.2	
196.13	4629.1	
196.35	4625	
196.56	3661.8	
196.78	2957.9	
196.99	5458.5	
197.2	5079.6	
197.42	3235.1	
197.63	2949.1	
197.84	4076.8	
198.06	4563.6	
198.27	2727.2	
198.48	3418.7	
198.7	4274.8	
198.91	4493.2	
199.13	2957.3	
199.34	2984.6	
199.55	4838	
199.77	3896.6	
199.98	2648	
200.19	2967.5	
200.41	4403.8	
200.62	4184	
200.83	3030.3	
201.05	3225.6	
201.26	4489.1	
201.47	4240	
201.69	2672.6	
201.9	2618	
202.11	4448.2	
202.33	4995.7	
202.54	2839.2	
202.76	3104	
202.97	4450.2	
203.18	4538.3	
203.4	3011.9	
203.61	3039.2	
203.82	4479.6	
204.04	4235.2	
204.25	2998.9	
204.46	2944.3	
204.68	4431.8	
204.89	4620.2	
205.1	2867.8	
205.32	2525.1	
205.53	4691.9	
205.74	4778.6	
205.96	2271.2	
206.17	2949.8	
206.38	4629.8	
206.6	4711.7	
206.81	3302.7	
207.02	2806.4	
207.24	4597	
207.45	4833.2	
207.66	2869.2	
207.88	2532.7	
208.09	4590.9	
208.3	4422.2	
208.52	2652.1	
208.73	2887	
208.94	4418.8	
209.15	4866.7	
209.37	2851.5	
209.58	2915.6	
209.79	4818.2	
210.01	4348.5	
210.22	2388.6	
210.43	2495.1	
210.65	4351.9	
210.86	4724	
211.07	2809.8	
211.29	2659.6	
211.5	4611.3	
211.71	4428.4	
211.93	2660.3	
212.14	2639.1	
212.35	4425	
212.56	4444.1	
212.78	2928.6	
212.99	2514.2	
213.2	5016.2	
213.42	4327.4	
213.63	2747.7	
213.84	2876	
214.06	4067.9	
214.27	4063.2	
214.48	2764.8	
214.69	2992.1	
214.91	4889.2	
215.12	4877.6	
215.33	2983.9	
215.55	3176.4	
215.76	5202.5	
215.97	4609.3	
216.18	2891	
216.4	2875.3	
216.61	4175.1	
216.82	4769.7	
217.04	2698.5	
217.25	2710.1	
217.46	4788.8	
217.67	4653	
217.89	2466.4	
218.1	2508.8	
218.31	4465.3	
218.53	4567.7	
218.74	2794.8	
218.95	2728.6	
219.16	4454.3	
219.38	5030.5	
219.59	2709.5	
219.8	3116.3	
220.01	5317.9	
220.23	4460.5	
220.44	3292.5	
220.65	2637.8	
220.87	4540.3	
221.08	4822.3	
221.29	2564.1	
221.5	3137.5	
221.72	5574.6	
221.93	4209.9	
222.14	2957.3	
222.35	3381.9	
222.57	4478.2	
222.78	4767	
222.99	2877.4	
223.2	3026.2	
223.42	4607.2	
223.63	4667.3	
223.84	2261	
224.05	2342.2	
224.27	5244.8	
224.48	5001.8	
224.69	3373	
224.9	2922.5	
225.12	4564.2	
225.33	4441.4	
225.54	2510.8	
225.75	2705.4	
225.97	4225.6	
226.18	4430.4	
226.39	2822.1	
226.6	2665.1	
226.82	4332.1	
227.03	4140.3	
227.24	2962	
227.45	2549	
227.67	4709.6	
227.88	4894	
228.09	3287.7	
228.3	3234.4	
228.52	4678.2	
228.73	4402.5	
228.94	2767.5	
229.15	2532	
229.36	4473.4	
229.58	4414.7	
229.79	2904	
230	3125.9	
230.21	5112.4	
230.43	4435.2	
230.64	2933.4	
230.85	2977.7	
231.06	4728.8	
231.28	4747.2	
231.49	2538.8	
231.7	2925.9	
231.91	4674.1	
232.12	4453	
232.34	2603	
232.55	2859	
232.76	4846.2	
232.97	4534.2	
233.18	2638.5	
233.4	2948.4	
233.61	4533.5	
233.82	4284.4	
234.03	2795.5	
234.25	2789.3	
234.46	5650.3	
234.67	4420.2	
234.88	2979.8	
235.09	2751.8	
235.31	4527.4	
235.52	4352.6	
235.73	2902.7	
235.94	2587.3	
236.15	4231.1	
236.37	5166.3	
236.58	2628.2	
236.79	2845.3	
237	4596.3	
237.21	4095.9	
237.43	3013.2	
237.64	2469.9	
237.85	6918.7	
238.06	4159.4	
238.27	2992.8	
238.48	2622.1	
238.7	4697.4	
238.91	4367.6	
239.12	2841.2	
239.33	2908.8	
239.54	4271.4	
239.76	4312.3	
239.97	2818	
240.18	2857.6	
240.39	5127.4	
240.6	4551.3	
240.82	2981.8	
241.03	2527.9	
241.24	4346.5	
241.45	4965.6	
241.66	2665.8	
241.87	3110.2	
242.09	4977.2	
242.3	5126.1	
242.51	3044.6	
242.72	2896.5	
242.93	4652.3	
243.14	4394.3	
243.36	3225.6	
243.57	3383.2	
243.78	4995	
243.99	4596.3	
244.2	2852.1	
244.41	2557.2	
244.63	4117.1	
244.84	4564.9	
245.05	2964.8	
245.26	2762	
245.47	4669.4	
245.68	4693.9	
245.9	3580.5	
246.11	2986.6	
246.32	4271.4	
246.53	4638.6	
246.74	4337.6	
246.95	2486.9	
247.16	4262.5	
247.38	4436.6	
247.59	2527.9	
247.8	2867.2	
248.01	4117.1	
248.22	4429.1	
248.43	2663	
248.64	2811.9	
248.86	4140.3	
249.07	4280.3	
249.28	2636.4	
249.49	2942.9	
249.7	4772.4	
249.91	4835.3	
250.12	2513.5	
250.34	2596.8	
250.55	4519.2	
250.76	4425	
250.97	2940.2	
251.18	2925.9	
251.39	4816.8	
251.6	4531.5	
251.81	2966.1	
252.03	2953.9	
252.24	4306.9	
252.45	4608.6	
252.66	2619.4	
252.87	3080.1	
253.08	4461.8	
253.29	5414.8	
253.5	2583.2	
253.72	3415.3	
253.93	4388.8	
254.14	5001.8	
254.35	2752.5	
254.56	2777	
254.77	4532.2	
254.98	4171	
255.19	2800.9	
255.41	3335.5	
255.62	4556	
255.83	4803.9	
256.04	3034.4	
256.25	2951.8	
256.46	5172.5	
256.67	4289.8	
256.88	2927.9	
257.09	3171.6	
257.31	4128	
257.52	4163.5	
257.73	3577.8	
257.94	2745.6	
258.15	4446.8	
258.36	4429.1	
258.57	3330	
258.78	2292.4	
258.99	4784.1	
259.2	4300.7	
259.41	2724.5	
259.63	2839.2	
259.84	4980	
260.05	5100.1	
260.26	3401.7	
260.47	2669.2	
260.68	4823.6	
260.89	4311.7	
261.1	3210.5	
261.31	2654.9	
261.52	4914.4	
261.73	5016.2	
261.95	3416.7	
262.16	3006.4	
262.37	4823.6	
262.58	4913.8	
262.79	3346.4	
263	2762	
263.21	4420.9	
263.42	4232.5	
263.63	2992.1	
263.84	2760	
264.05	4711.7	
264.26	4976.6	
264.47	3298.6	
264.69	2983.9	
264.9	4949.3	
265.11	4552.6	
265.32	2657.6	
265.53	2741.5	
265.74	4526.7	
265.95	4015.4	
266.16	2824.1	
266.37	3127.9	
266.58	4549.9	
266.79	4244.1	
267	2674.6	
267.21	2585.9	
267.42	4173.8	
267.63	4489.1	
267.84	2831	
268.06	2508.1	
268.27	4747.9	
268.48	4812.7	
268.69	2807.8	
268.9	3190.7	
269.11	4796.3	
269.32	4019.5	
269.53	2854.2	
269.74	2688.3	
269.95	4531.5	
270.16	4031.8	
270.37	2885.6	
270.58	3200.3	
270.79	4309.6	
271	4775.9	
271.21	2998.2	
271.42	2917	
271.63	4606.6	
271.84	4185.4	
272.05	2424.1	
272.26	2590	
272.47	4438.6	
272.68	4586.8	
272.89	2789.3	
273.11	3106.1	
273.32	4246.1	
273.53	4967	
273.74	3018	
273.95	2975	
274.16	4699.4	
274.37	4416.1	
274.58	3131.3	
274.79	2621.4	
275	4559.5	
275.21	4792.9	
275.42	3629	
275.63	3155.2	
275.84	4635.2	
276.05	5487.2	
276.26	2936.1	
276.47	2777	
276.68	4418.8	
276.89	5064.6	
277.1	3117	
277.31	2562	
277.52	4575.2	
277.73	4820.9	
277.94	2559.3	
278.15	2791.4	
278.36	4582.7	
278.57	4195.6	
278.78	2794.1	
278.99	2988.7	
279.2	4295.3	
279.41	4152.6	
279.62	3507.5	
279.83	2611.2	
280.04	5157.5	
280.25	4179.9	
280.46	3409.2	
280.67	2854.9	
280.88	4192.2	
281.09	4864.6	
281.3	2994.1	
281.51	3612.6	
281.72	4223.6	
281.93	4686.4	
282.14	2710.8	
282.35	2905.4	
282.56	4797	
282.77	4650.9	
282.98	2791.4	
283.19	3284.3	
283.4	5532.2	
283.61	4374.5	
283.82	2648	
284.03	3366.9	
284.24	4624.3	
284.45	4782	
284.66	3474	
284.87	3238.5	
285.08	4793.6	
285.29	4844.8	
285.5	2532.7	
285.71	2751.1	
285.92	4769.7	
286.12	5229.8	
286.33	3406.5	
286.54	2878.1	
286.75	4760.2	
286.96	4375.8	
287.17	2652.1	
287.38	3270.6	
287.59	4293.9	
287.8	4229.1	
288.01	2812.5	
288.22	3050.8	
288.43	4599.1	
288.64	4084.3	
288.85	3245.3	
289.06	3115	
289.27	4721.3	
289.48	4975.9	
289.69	3435.8	
289.9	3139.5	
290.11	4835.3	
290.32	4360.8	
290.53	3271.3	
290.74	3004.4	
290.94	4721.9	
291.15	4711	
291.36	2721.1	
291.57	3094.5	
291.78	4356	
291.99	4016.7	
292.2	2642.6	
292.41	2988.7	
292.62	4757.4	
292.83	4642.1	
293.04	3564.1	
293.25	2674	
293.46	4367.6	
293.67	4796.3	
293.88	2723.8	
294.09	2658.9	
294.29	4227	
294.5	4493.9	
294.71	2875.3	
294.92	2783.2	
295.13	4298.7	
295.34	5119.9	
295.55	2501.9	
295.76	2486.9	
295.97	4672.8	
296.18	5069.4	
296.39	2610.5	
296.6	2719	
296.81	4454.3	
297.01	4716.5	
297.22	2834.4	
297.43	2764.1	
297.64	4347.8	
297.85	4190.8	
298.06	2362	
298.27	2480.1	
298.48	4372.4	
298.69	4231.8	
298.9	2899.2	
299.11	2687.6	
299.31	4164.9	
299.52	4173.8	
299.73	3069.9	
299.94	2955.2	
300.15	4519.2	
300.36	4272.1	
300.57	3031.7	
300.78	2949.8	
300.99	4319.2	
301.2	4473.4	
301.4	2793.4	
301.61	2816	
301.82	4631.1	
302.03	4716.5	
302.24	3172.3	
302.45	2600.9	
302.66	4653.7	
302.87	4760.2	
303.08	2710.8	
303.29	3508.9	
303.49	4325.3	
303.7	4363.5	
303.91	2496.5	
304.12	3291.1	
304.33	4097.3	
304.54	4554.7	
304.75	2730.6	
304.96	2639.1	
305.16	4667.3	
305.37	5054.4	
305.58	2486.2	
305.79	2524.5	
306	4656.4	
306.21	4050.9	
306.42	2717	
306.63	3882.9	
306.83	4320.5	
307.04	4632.5	
307.25	2898.6	
307.46	2903.3	
307.67	4020.8	
307.88	4614.1	
308.09	2762.7	
308.29	2704	
308.5	4471.4	
308.71	4774.5	
308.92	2875.3	
309.13	2661	
309.34	4349.9	
309.55	4339	
309.75	3261	
309.96	3016	
310.17	4713.7	
310.38	4221.5	
310.59	3063.1	
310.8	2561.3	
311.01	5104.2	
311.21	4427	
311.42	2669.9	
311.63	2667.1	
311.84	4316.4	
312.05	4468.7	
312.26	2981.8	
312.46	3173	
312.67	4304.8	
312.88	4132.1	
313.09	2660.3	
313.3	2620	
313.51	4896.7	
313.71	5131.5	
313.92	2618	
314.13	2768.9	
314.34	4577.9	
314.55	4416.8	
314.76	3169.6	
314.96	2863.1	
315.17	4625	
315.38	4648.9	
315.59	2658.3	
315.8	2536.8	
316.01	4882.4	
316.21	5013.4	
316.42	2573.6	
316.63	2935.4	
316.84	4330.1	
317.05	4812.7	
317.26	3012.6	
317.46	2762.7	
317.67	4469.4	
317.88	4633.2	
318.09	3209.2	
318.3	2495.1	
318.5	4326.7	
318.71	4562.9	
318.92	3839.3	
319.13	3084.2	
319.34	4743.8	
319.54	4830.5	
319.75	2545.6	
319.96	2414.6	
320.17	4577.2	
320.38	4751.3	
320.58	2477.4	
320.79	2833.7	
321	4848.2	
321.21	4887.1	
321.42	2919	
321.62	2471.2	
321.83	4231.8	
322.04	4449.6	
322.25	2859.6	
322.46	2639.1	
322.66	4459.8	
322.87	4637.3	
323.08	3080.1	
323.29	2553.1	
323.5	5128.1	
323.7	4121.9	
323.91	3442.6	
324.12	3097.2	
324.33	4575.8	
324.53	4640	
324.74	3038.5	
324.95	3050.8	
325.16	4124.6	
325.37	4362.9	
325.57	2654.9	
325.78	2689.7	
325.99	4545.1	
326.2	4136.2	
326.4	3545	
326.61	2480.8	
326.82	4386.1	
327.03	4453.6	
327.24	3564.1	
327.44	3323.2	
327.65	4658.4	
327.86	3949.2	
328.07	3056.3	
328.27	2605.7	
328.48	4878.9	
328.69	4140.3	
328.9	3593.5	
329.1	2756.6	
329.31	4379.9	
329.52	4909.7	
329.73	2659.6	
329.93	2873.3	
330.14	4534.9	
330.35	4528.7	
330.56	4009.9	
330.76	3132.7	
330.97	4304.8	
331.18	4478.2	
331.39	2879.4	
331.59	2456.9	
331.8	4812.7	
332.01	4846.2	
332.22	2777	
332.42	2984.6	
332.63	4554.7	
332.84	4189.5	
333.05	2920.4	
333.25	2701.3	
333.46	4237.9	
333.67	4427	
333.88	2772.3	
334.08	2953.9	
334.29	5566.4	
334.5	4752.7	
334.7	2596.8	
334.91	3500	
335.12	4089.8	
335.33	4625.7	
335.53	2912.2	
335.74	3949.8	
335.95	4369.7	
336.16	4115.1	
336.36	2874	
336.57	3255.6	
336.78	4113	
336.98	4756.1	
337.19	3467.2	
337.4	2817.3	
337.61	5185.5	
337.81	4134.2	
338.02	2684.9	
338.23	3291.1	
338.43	4904.9	
338.64	4270	
338.85	2678.7	
339.05	3360	
339.26	4993.6	
339.47	4061.8	
339.68	2633	
339.88	3705.5	
340.09	4639.3	
340.3	4724	
340.5	3003.7	
340.71	2503.3	
340.92	4178.5	
341.13	4852.3	
341.33	2549.7	
341.54	2995.5	
341.75	4622.9	
341.95	4296	
342.16	2932.7	
342.37	3127.9	
342.57	4130.8	
342.78	4369	
342.99	3155.9	
343.19	2479.4	
343.4	4743.8	
343.61	4548.5	
343.81	2831	
344.02	2573.6	
344.23	4705.5	
344.43	4857.1	
344.64	3217.4	
344.85	3134.8	
345.06	4614.8	
345.26	4752	
345.47	3029.6	
345.68	3421.5	
345.88	4070.7	
346.09	4740.4	
346.3	3079.5	
346.5	2398.9	
346.71	4346.5	
346.92	4254.3	
347.12	2607.7	
347.33	2957.9	
347.54	4744.5	
347.74	4958.1	
347.95	3008.5	
348.16	2380.4	
348.36	4322.6	
348.57	4248.2	
348.78	3026.2	
348.98	3147.7	
349.19	4427.7	
349.39	4046.8	
349.6	2534.7	
349.81	2659.6	
350.01	4623.6	
350.22	4212.7	
350.43	2947.7	
350.63	3377.1	
350.84	4424.3	
351.05	4210.6	
351.25	2702	
351.46	2532.7	
351.67	4743.1	
351.87	4206.5	
352.08	2852.8	
352.29	3158	
352.49	4698	
352.7	4458.4	
352.9	2612.5	
353.11	3187.3	
353.32	5143.8	
353.52	4346.5	
353.73	2651.4	
353.94	3207.8	
354.14	4628.4	
354.35	4451.6	
354.55	2755.9	
354.76	2930	
354.97	4606.6	
355.17	4397.7	
355.38	2591.4	
355.59	3358	
355.79	4190.1	
356	4409.3	
356.2	2932	
356.41	2677.4	
356.62	4121.9	
356.82	4403.8	
357.03	3127.9	
357.24	2826.2	
357.44	4245.4	
357.65	4344.4	
357.85	3526.6	
358.06	2986.6	
358.27	4121.9	
358.47	4164.2	
358.68	2616.6	
358.88	3121.8	
359.09	4597.7	
359.3	4782.7	
359.5	3517.7	
359.71	3197.6	
359.91	5081.7	
360.12	4555.4	
360.33	3152.5	
360.53	3367.5	
360.74	4330.1	
360.94	4346.5	
361.15	3237.2	
361.36	2798.2	
361.56	4765.6	
361.77	4478.9	
361.97	3514.3	
362.18	2940.9	
362.38	4817.5	
362.59	4251.6	
362.8	2793.4	
363	2666.5	
363.21	4186.7	
363.41	4508.9	
363.62	3064.4	
363.83	3616	
364.03	4658.4	
364.24	5005.9	
364.44	3746.4	
364.65	3648.1	
364.85	4481	
365.06	4292.5	
365.27	2833.7	
365.47	2912.2	
365.68	5015.5	
365.88	4454.3	
366.09	3170.3	
366.29	2930	
366.5	4500.1	
366.71	4793.6	
366.91	3737.5	
367.12	3239.9	
367.32	5161.6	
367.53	4770.4	
367.73	3325.9	
367.94	3770.3	
368.14	4823	
368.35	5142.4	
368.56	3182.5	
368.76	2817.3	
368.97	4859.8	
369.17	5656.5	
369.38	2875.3	
369.58	3028.3	
369.79	4199.7	
369.99	5105.6	
370.2	3744.4	
370.4	3109.5	
370.61	4552.6	
370.82	5360.9	
371.02	3125.2	
371.23	2739.5	
371.43	4276.2	
371.64	5034.6	
371.84	3059	
372.05	3755.3	
372.25	5670.1	
372.46	4706.2	
372.66	3054.2	
372.87	3070.6	
373.07	4794.3	
373.28	5793.7	
373.48	3721.8	
373.69	3503.4	
373.9	4584.7	
374.1	4517.8	
374.31	3654.3	
374.51	3379.1	
374.72	4962.9	
374.92	4384.7	
375.13	3746.4	
375.33	3214.6	
375.54	4738.3	
375.74	4502.8	
375.95	3357.3	
376.15	4044.1	
376.36	4904.9	
376.56	4688.5	
376.77	3376.4	
376.97	3623.5	
377.18	5491.3	
377.38	4932.9	
377.59	3763.5	
377.79	3168.2	
378	4743.1	
378.2	4929.5	
378.41	3175	
378.61	3069.2	
378.82	5110.4	
379.02	4599.7	
379.23	3274	
379.43	3873.4	
379.64	5200.5	
379.84	4848.2	
380.05	3183.9	
380.25	3043.3	
380.46	4928.8	
380.66	4695.3	
380.87	3931.4	
381.07	4126	
381.28	5274.9	
381.48	4954.7	
381.69	3166.8	
381.89	3225.6	
382.1	4318.5	
382.3	4916.5	
382.51	3825.6	
382.71	4273.4	
382.91	4845.5	
383.12	5148.6	
383.32	3361.4	
383.53	3473.4	
383.73	4803.2	
383.94	4685.1	
384.14	3495.2	
384.35	2973.7	
384.55	4516.5	
384.76	4851	
384.96	3412.6	
385.17	3486.3	
385.37	4869.4	
385.58	4404.5	
385.78	3467.2	
385.98	2950.4	
386.19	4607.2	
386.39	4855.7	
386.6	3239.9	
386.8	3340.2	
387.01	4871.4	
387.21	5016.8	
387.42	3597.6	
387.62	3878.9	
387.83	4556	
388.03	4702.8	
388.23	3446.7	
388.44	3835.2	
388.64	4448.2	
388.85	4439.3	
389.05	3561.4	
389.26	3949.8	
389.46	5661.3	
389.67	5270.8	
389.87	3603.1	
390.07	3672.7	
390.28	4655	
390.48	4432.5	
390.69	3162.1	
390.89	3360	
391.1	4637.3	
391.3	5083.7	
391.5	4029.7	
391.71	4332.8	
391.91	5071.5	
392.12	5375.2	
392.32	4115.1	
392.53	3583.9	
392.73	4767.7	
392.93	4734.9	
393.14	3423.5	
393.34	3856.3	
393.55	4973.8	
393.75	4693.3	
393.95	3423.5	
394.16	3379.8	
394.36	4625.7	
394.57	5039.4	
394.77	3160.7	
394.98	3323.9	
395.18	4569.7	
395.38	4663.2	
395.59	3911.6	
395.79	3336.1	
396	4783.4	
396.2	5047.6	
396.4	3860.4	
396.61	3776.5	
396.81	5010	
397.02	4656.4	
397.22	3974.4	
397.42	4021.5	
397.63	5172.5	
397.83	4670.1	
398.04	3245.3	
398.24	3551.9	
398.44	4965.6	
398.65	4456.4	
398.85	3181.9	
399.05	3284.9	
399.26	4728.1	
399.46	5641.5	
399.67	3541.6	
399.87	3335.5	
400.07	4954.7	
400.28	5064.6	
400.48	3418.7	
400.69	4014.7	
400.89	5115.8	
401.09	5515.9	
401.3	3359.4	
401.5	3962.1	
401.7	5560.2	
401.91	5724.1	
402.11	3639.2	
402.32	3701.4	
402.52	5300.8	
402.72	5126.1	
402.93	3780.6	
403.13	3150.5	
403.33	5615.5	
403.54	4801.8	
403.74	3556.6	
403.94	4060.4	
404.15	4898.1	
404.35	5556.1	
404.56	3436.5	
404.76	4488.5	
404.96	5217.5	
405.17	5054.4	
405.37	4014.7	
405.57	3814.7	
405.78	5264	
405.98	4891.9	
406.18	3523.2	
406.39	4067.3	
406.59	5210.7	
406.79	4828.4	
407	3303.4	
407.2	3436.5	
407.4	5408.7	
407.61	5317.2	
407.81	3445.4	
408.01	4384.7	
408.22	4581.3	
408.42	5679	
408.62	4172.4	
408.83	3860.4	
409.03	5033.2	
409.23	5059.8	
409.44	3879.5	
409.64	4102.1	
409.84	5601.9	
410.05	5611.4	
410.25	3996.3	
410.45	3882.3	
410.66	5323.4	
410.86	6818.4	
411.06	4141	
411.27	4068.6	
411.47	6630	
411.67	5439.4	
411.88	4164.9	
412.08	4377.2	
412.28	5720	
412.49	6071.5	
412.69	4123.2	
412.89	4192.2	
413.09	5986.2	
413.3	5899.5	
413.5	4247.5	
413.7	4011.3	
413.91	5489.2	
414.11	5987.6	
414.31	4005.1	
414.52	4373.8	
414.72	5856.5	
414.92	5726.8	
415.12	4061.8	
415.33	4403.1	
415.53	6008.1	
415.73	6044.2	
415.94	4576.5	
416.14	4280.9	
416.34	5449	
416.55	5257.8	
416.75	4977.9	
416.95	4698	
417.15	6104.3	
417.36	6426.5	
417.56	5142.4	
417.76	4475.5	
417.97	6187.6	
418.17	6039.5	
418.37	4376.5	
418.57	4373.1	
418.78	6095.4	
418.98	5763	
419.18	4873.5	
419.38	4852.3	
419.59	5592.3	
419.79	5499.5	
419.99	4209.9	
420.2	4378.6	
420.4	6006	
420.6	6027.2	
420.8	4205.8	
421.01	4129.4	
421.21	5924.8	
421.41	5973.9	
421.61	4399.7	
421.82	4221.5	
422.02	5769.1	
422.22	6128.9	
422.42	4690.5	
422.63	4569	
422.83	5658.5	
423.03	6442.2	
423.23	4477.5	
423.44	3891.8	
423.64	5606.7	
423.84	5451	
424.04	4214	
424.25	3900.7	
424.45	6171.9	
424.65	6190.3	
424.85	3845.4	
425.06	4191.5	
425.26	6383.5	
425.46	5659.2	
425.66	4451.6	
425.87	4294.6	
426.07	6025.1	
426.27	5937.7	
426.47	4384.7	
426.67	3994.2	
426.88	6262.7	
427.08	5920	
427.28	4554	
427.48	3926	
427.69	5310.4	
427.89	5659.2	
428.09	4461.8	
428.29	3938.2	
428.5	5995.8	
428.7	5822.4	
428.9	3893.9	
429.1	4248.2	
429.3	5808	
429.51	5891.3	
429.71	4137.6	
429.91	4663.9	
430.11	6056.5	
430.31	6118.6	
430.52	4323.9	
430.72	4403.1	
430.92	6343.9	
431.12	5986.9	
431.32	4043.4	
431.53	4321.9	
431.73	5352	
431.93	6315.3	
432.13	4036.5	
432.33	3997	
432.54	5674.2	
432.74	5740.5	
432.94	3968.3	
433.14	4622.9	
433.34	6030.6	
433.55	5797.1	
433.75	4567	
433.95	5607.3	
434.15	5920	
434.35	5638.1	
434.56	4095.9	
434.76	3868.6	
434.96	5857.9	
435.16	6047.7	
435.36	4013.3	
435.56	4769.7	
435.77	5674.9	
435.97	5780.1	
436.17	5143.1	
436.37	4618.9	
436.57	5652.4	
436.78	5633.3	
436.98	5649.7	
437.18	5051	
437.38	6012.8	
437.58	5638.1	
437.78	5115.8	
437.99	4221.5	
438.19	6043.6	
438.39	6908.5	
438.59	4205.2	
438.79	3922.5	
438.99	6346	
439.2	5689.3	
439.4	3901.4	
439.6	4024.9	
439.8	5768.4	
440	6474.3	
440.2	4690.5	
440.4	4731.5	
440.61	6233.3	
440.81	6423.1	
441.01	4192.9	
441.21	4686.4	
441.41	6547.4	
441.61	6235.4	
441.81	4856.4	
442.02	5383.4	
442.22	6636.8	
442.42	6284.5	
442.62	4160.8	
442.82	4214	
443.02	6512.5	
443.22	5942.5	
443.43	4502.8	
443.63	4214.7	
443.83	5838.8	
444.03	5797.1	
444.23	4949.3	
444.43	4663.9	
444.63	6068.1	
444.83	6721.4	
445.04	4371	
445.24	5128.8	
445.44	6244.3	
445.64	6284.5	
445.84	4709	
446.04	4769.7	
446.24	5777.3	
446.44	6435.4	
446.65	4223.6	
446.85	4473.4	
447.05	6018.3	
447.25	6406	
447.45	4601.1	
447.65	4171	
447.85	6098.2	
448.05	5770.5	
448.25	4766.3	
448.46	4636.6	
448.66	6118.6	
448.86	5808.7	
449.06	4160.1	
449.26	4728.8	
449.46	6282.5	
449.66	5719.3	
449.86	4529.4	
450.06	4517.8	
450.26	5765	
450.47	6194.4	
450.67	4653.7	
450.87	4783.4	
451.07	6283.2	
451.27	6035.4	
451.47	4220.2	
451.67	4766.3	
451.87	5924.1	
452.07	6572.6	
452.27	4382.7	
452.47	4361.5	
452.67	6102.3	
452.88	6232.7	
453.08	4029	
453.28	5085.1	
453.48	6836.8	
453.68	5911.1	
453.88	4286.4	
454.08	4369	
454.28	6252.4	
454.48	6038.8	
454.68	4697.4	
454.88	5027.1	
455.08	6428.6	
455.28	6170.5	
455.48	4343.7	
455.68	4663.2	
455.89	6742.6	
456.09	6447.7	
456.29	4527.4	
456.49	4610.7	
456.69	6576	
456.89	6041.5	
457.09	4763.6	
457.29	5031.9	
457.49	6371.2	
457.69	6384.2	
457.89	4814.8	
458.09	4418.2	
458.29	6169.2	
458.49	6759.7	
458.69	4979.3	
458.89	4693.3	
459.09	6817	
459.29	6862.1	
459.49	4668	
459.69	5143.8	
459.9	6541.2	
460.1	6232	
460.3	4584	
460.5	4451.6	
460.7	6500.3	
460.9	6168.5	
461.1	4306.9	
461.3	5003.9	
461.5	7000	
461.7	6642.2	
461.9	4580.6	
462.1	4863.2	
462.3	6429.9	
462.5	6716.7	
462.7	4653	
462.9	4782	
463.1	7390.4	
463.3	7073	
463.5	4855.1	
463.7	5449	
463.9	6552.1	
464.1	6754.2	
464.3	4975.9	
464.5	5103.5	
464.7	6982.9	
464.9	6615.6	
465.1	5853.1	
465.3	5247.6	
465.5	7070.3	
465.7	7154.9	
465.9	5398.4	
466.1	5249.6	
466.3	6978.1	
466.5	6944	
466.7	5869.5	
466.9	5233.9	
467.1	7013.6	
467.3	7392.5	
467.5	5843.5	
467.7	5165	
467.9	7604.8	
468.1	8046.5	
468.3	5597.8	
468.5	5858.6	
468.7	6873.7	
468.9	6802	
469.1	5422.3	
469.3	5750	
469.5	8036.9	
469.7	6582.9	
469.9	5656.5	
470.1	5204.6	
470.3	6954.9	
470.5	6907.1	
470.7	5890.6	
470.9	5261.9	
471.1	6749.4	
471.3	7013.6	
471.5	5134.9	
471.69	6267.5	
471.89	6776.7	
472.09	6376	
472.29	5552	
472.49	5788.9	
472.69	6478.4	
472.89	6963.1	
473.09	5057.1	
473.29	5097.4	
473.49	6611.5	
473.69	6584.9	
473.89	5649	
474.09	5208.7	
474.29	7429.3	
474.49	7182.9	
474.69	5689.3	
474.89	5261.2	
475.09	6651.1	
475.29	6599.2	
475.49	4977.9	
475.69	5096	
475.88	7588.4	
476.08	6901	
476.28	4850.3	
476.48	5054.4	
476.68	7174	
476.88	6933.7	
477.08	5092.6	
477.28	5250.3	
477.48	6786.3	
477.68	7070.3	
477.88	4892.6	
478.08	5107	
478.28	7331	
478.48	6756.2	
478.67	5160.9	
478.87	4861.2	
479.07	7177.4	
479.27	6812.9	
479.47	5257.8	
479.67	5298.1	
479.87	7016.3	
480.07	7296.9	
480.27	4932.9	
480.47	5760.9	
480.67	6825.9	
480.87	7218.4	
481.06	4979.3	
481.26	5551.4	
481.46	6858.6	
481.66	6742.6	
481.86	5321.3	
482.06	5791	
482.26	6662.7	
482.46	6955.6	
482.66	5167.7	
482.86	5027.1	
483.05	6965.8	
483.25	6466.1	
483.45	6689.3	
483.65	5206.6	
483.85	6515.3	
484.05	6762.4	
484.25	5494	
484.45	5730.9	
484.65	7175.4	
484.84	7251.9	
485.04	5221	
485.24	5215.5	
485.44	7588.4	
485.64	6472.3	
485.84	4804.5	
486.04	5621	
486.24	6671.6	
486.44	6837.5	
486.63	4810	
486.83	5333.6	
487.03	6649.8	
487.23	6798.6	
487.43	4885.1	
487.63	6210.8	
487.83	6782.2	
488.02	7135.8	
488.22	5418.9	
488.42	5797.1	
488.62	7408.9	
488.82	6621.1	
489.02	5255.8	
489.22	5298.8	
489.41	7236.8	
489.61	7033.4	
489.81	5126.1	
490.01	5113.1	
490.21	7217.7	
490.41	7647.8	
490.61	5058.5	
490.8	5196.4	
491	6871.6	
491.2	6587	
491.4	5485.1	
491.6	4977.9	
491.8	6978.1	
491.99	6853.2	
492.19	4870.8	
492.39	5031.2	
492.59	7179.5	
492.79	7359	
492.99	5608	
493.18	5155.4	
493.38	7367.9	
493.58	7806.9	
493.78	5535.7	
493.98	5332.9	
494.18	7063.4	
494.37	6755.6	
494.57	5610.1	
494.77	5565	
494.97	7421.8	
495.17	7477.8	
495.37	5390.3	
495.56	5668.8	
495.76	7505.8	
495.96	7446.4	
496.16	6157.6	
496.36	5565.7	
496.55	7525.6	
496.75	7109.9	
496.95	5793.7	
497.15	5614.2	
497.35	7436.9	
497.54	7417.1	
497.74	5569.8	
497.94	6672.3	
498.14	7894.9	
498.34	7681.9	
498.53	5371.1	
498.73	5819.6	
498.93	7051.8	
499.13	7441.6	
499.33	5769.1	
499.52	5896.8	
499.72	7479.2	
499.92	7514.7	
500.12	5520	
500.32	5733.6	
500.51	7662.1	
500.71	7409.6	
500.91	6129.6	
501.11	5997.8	
501.31	7603.4	
501.5	7835.5	
501.7	6399.9	
501.9	5817.6	
502.1	7397.3	
502.29	7649.8	
502.49	6066.8	
502.69	6288.6	
502.89	7486.7	
503.09	7509.2	
503.28	5347.2	
503.48	5472.9	
503.68	7118.1	
503.88	7100.3	
504.07	6023.8	
504.27	5757.5	
504.47	7322.9	
504.67	7375.4	
504.86	6009.4	
505.06	5773.9	
505.26	7280.5	
505.46	8105.9	
505.65	5655.1	
505.85	5828.5	
506.05	7152.9	
506.25	7348.1	
506.44	5269.4	
506.64	5794.4	
506.84	6921.5	
507.04	7421.2	
507.23	5388.2	
507.43	5682.4	
507.63	8086.1	
507.83	7010.2	
508.02	5688.6	
508.22	5475.6	
508.42	8241	
508.62	6807.4	
508.81	5545.9	
509.01	5883.1	
509.21	6801.3	
509.4	7117.4	
509.6	5734.3	
509.8	5440.8	
510	7115.3	
510.19	7747.5	
510.39	5266.7	
510.59	5412.8	
510.79	6922.1	
510.98	7776.1	
511.18	5477	
511.38	5457.8	
511.57	7552.2	
511.77	7181.5	
511.97	5862.7	
512.17	5334.3	
512.36	7403.4	
512.56	7189.7	
512.76	5283.1	
512.95	5177.9	
513.15	7505.1	
513.35	6521.4	
513.55	5838.1	
513.74	5279	
513.94	7382.2	
514.14	7033.4	
514.33	5938.4	
514.53	5618.9	
514.73	7083.9	
514.92	7062.8	
515.12	5365.7	
515.32	5292.6	
515.51	7242.3	
515.71	7342	
515.91	6440.9	
516.11	5339.7	
516.3	8210.3	
516.5	6950.1	
516.7	5804.6	
516.89	6031.3	
517.09	7047.7	
517.29	7058	
517.48	5919.3	
517.68	5481	
517.88	6789	
518.07	7342	
518.27	5766.4	
518.47	5252.4	
518.66	7545.4	
518.86	6844.3	
519.06	5180	
519.25	5436	
519.45	6946.7	
519.65	7804.1	
519.84	5909.1	
520.04	6154.1	
520.24	8100.4	
520.43	7325.6	
520.63	5670.8	
520.83	5481	
521.02	6919.4	
521.22	7212.9	
521.42	5676.3	
521.61	6008.7	
521.81	7040.9	
522.01	7173.4	
522.2	5676.3	
522.4	5559.6	
522.6	7479.9	
522.79	6702.3	
522.99	5569.1	
523.18	5157.5	
523.38	7309.9	
523.58	7273.7	
523.77	6401.3	
523.97	5214.8	
524.17	8385.1	
524.36	7977.5	
524.56	6093.4	
524.76	5777.3	
524.95	7293.5	
525.15	7130.3	
525.34	5649.7	
525.54	5773.9	
525.74	7549.5	
525.93	6910.5	
526.13	6487.3	
526.33	5772.5	
526.52	7832.1	
526.72	7376.8	
526.91	6386.9	
527.11	6007.4	
527.31	7690.1	
527.5	7952.9	
527.7	5969.1	
527.89	5452.4	
528.09	7209.5	
528.29	7545.4	
528.48	6260	
528.68	5956.2	
528.87	7748.8	
529.07	7655.3	
529.27	6015.6	
529.46	5631.2	
529.66	7515.4	
529.85	7737.2	
530.05	5542.5	
530.25	6124.1	
530.44	8304.5	
530.64	7413	
530.83	5799.2	
531.03	5906.3	
531.23	7832.8	
531.42	7529	
531.62	6341.9	
531.81	5913.2	
532.01	7848.5	
532.21	7948.2	
532.4	5825.1	
532.6	6075	
532.79	8376.9	
532.99	7906.5	
533.18	6109.8	
533.38	6683.9	
533.58	7478.5	
533.77	7891.5	
533.97	6042.2	
534.16	6496.8	
534.36	8273.1	
534.55	7561.1	
534.75	6656.6	
534.95	6096.8	
535.14	8152.3	
535.34	7537.2	
535.53	5900.9	
535.73	7078.5	
535.92	8468.4	
536.12	7602.7	
536.31	5943.2	
536.51	6685.9	
536.71	7911.3	
536.9	7556.3	
537.1	5991.7	
537.29	6167.1	
537.49	8097.7	
537.68	7488.7	
537.88	6307.1	
538.07	5793	
538.27	7729	
538.46	8347.5	
538.66	5812.8	
538.86	6066.1	
539.05	7772	
539.25	7920.2	
539.44	6254.5	
539.64	5956.2	
539.83	7628	
540.03	8202.1	
540.22	5962.3	
540.42	6027.9	
540.61	7771.4	
540.81	7800.7	
541	6165.8	
541.2	6647.7	
541.39	7461.4	
541.59	7553.6	
541.78	6440.9	
541.98	5855.8	
542.18	7260.7	
542.37	7228	
542.57	6136.4	
542.76	6359.6	
542.96	7263.5	
543.15	7617.8	
543.35	6131.6	
543.54	5687.9	
543.74	7544.7	
543.93	7493.5	
544.13	6038.8	
544.32	6716	
544.52	7845.1	
544.71	7262.1	
544.91	5507.7	
545.1	6262.7	
545.3	7283.3	
545.49	7630.7	
545.69	5457.8	
545.88	5797.8	
546.08	8292.9	
546.27	7866.2	
546.47	6133	
546.66	5688.6	
546.86	7798.7	
547.05	8040.3	
547.24	5844.2	
547.44	5740.5	
547.63	7176.8	
547.83	7823.9	
548.02	5948	
548.22	6007.4	
548.41	7027.3	
548.61	7820.5	
548.8	5717.9	
549	5601.2	
549.19	7503.8	
549.39	7613	
549.58	5421.7	
549.78	5816.9	
549.97	7655.3	
550.17	7278.5	
550.36	6281.1	
550.55	6903.7	
550.75	7316	
550.94	7905.2	
551.14	5627.8	
551.33	5855.8	
551.53	6908.5	
551.72	7515.4	
551.92	5830.6	
552.11	5634.6	
552.31	7699	
552.5	7426.6	
552.69	6667.5	
552.89	5499.5	
553.08	7549.5	
553.28	7361.8	
553.47	5692.7	
553.67	6440.9	
553.86	7851.9	
554.06	6828.6	
554.25	5285.8	
554.44	5504.9	
554.64	8376.9	
554.83	7943.4	
555.03	5552.7	
555.22	5770.5	
555.42	7641	
555.61	7436.2	
555.8	5632.6	
556	5730.9	
556.19	6939.2	
556.39	7598.6	
556.58	5686.5	
556.78	5705	
556.97	7451.9	
557.16	7147.4	
557.36	6391.7	
557.55	5467.4	
557.75	6815.6	
557.94	7866.2	
558.13	5451.7	
558.33	5358.9	
558.52	7643.7	
558.72	6926.9	
558.91	5399.8	
559.1	5585.5	
559.3	6792.4	
559.49	6664.1	
559.69	5279	
559.88	5776.6	
560.07	7328.3	
560.27	7579.5	
560.46	5877	
560.66	5895.4	
560.85	7145.4	
561.04	6664.1	
561.24	5317.9	
561.43	5433.9	
561.63	6797.9	
561.82	7019.8	
562.01	6133.7	
562.21	5673.6	
562.4	7283.3	
562.59	7731.1	
562.79	5612.1	
562.98	5366.4	
563.18	7225.9	
563.37	8080.6	
563.56	5843.5	
563.76	5413.5	
563.95	6885.3	
564.14	6930.3	
564.34	5672.2	
564.53	5422.3	
564.73	7347.4	
564.92	7346.7	
565.11	5679.7	
565.31	5270.1	
565.5	7547.4	
565.69	6873	
565.89	5547.3	
566.08	5566.4	
566.27	7450.5	
566.47	7721.5	
566.66	6058.6	
566.85	5201.2	
567.05	7303.1	
567.24	6943.3	
567.44	5360.2	
567.63	6236.7	
567.82	7430	
568.02	7101.7	
568.21	5277.6	
568.4	5580.7	
568.6	7128.3	
568.79	7101.7	
568.98	5288.5	
569.18	5314.5	
569.37	7119.4	
569.56	8335.2	
569.76	5648.3	
569.95	6208.1	
570.14	7399.3	
570.34	7193.1	
570.53	5315.8	
570.72	5254.4	
570.91	7663.5	
571.11	7148.1	
571.3	5568.4	
571.49	6197.2	
571.69	7190.4	
571.88	6825.2	
572.07	5765	
572.27	5763	
572.46	6804.7	
572.65	7406.8	
572.85	5455.8	
573.04	5666.7	
573.23	7530.4	
573.43	7178.1	
573.62	5326.8	
573.81	5665.4	
574	7204.1	
574.2	7107.8	
574.39	5559.6	
574.58	5592.3	
574.78	7674.4	
574.97	7239.6	
575.16	5806	
575.36	5922	
575.55	7606.8	
575.74	7594.6	
575.93	5242.8	
576.13	5890	
576.32	7146.7	
576.51	7334.5	
576.71	5567.1	
576.9	6331	
577.09	7703.8	
577.28	7333.1	
577.48	5823.7	
577.67	5303.6	
577.86	7173.4	
578.05	7273.7	
578.25	5711.1	
578.44	5591	
578.63	7145.4	
578.83	7925	
579.02	5362.3	
579.21	6125.5	
579.4	7307.8	
579.6	7144	
579.79	5668.1	
579.98	6958.3	
580.17	7557	
580.37	7605.5	
580.56	5421	
580.75	5905.7	
580.94	7725.6	
581.14	7829.4	
581.33	6147.3	
581.52	5560.9	
581.71	7434.8	
581.91	7877.9	
582.1	5395.7	
582.29	5683.1	
582.48	7221.8	
582.68	7263.5	
582.87	5986.2	
583.06	5752.7	
583.25	7538.6	
583.45	7323.5	
583.64	6159.6	
583.83	6531	
584.02	7292.8	
584.21	7426.6	
584.41	6107.7	
584.6	5729.5	
584.79	7354.3	
584.98	7617.1	
585.18	5515.9	
585.37	5440.1	
585.56	7092.8	
585.75	7407.5	
585.94	5434.6	
586.14	5866.7	
586.33	7746.8	
586.52	7204.1	
586.71	5850.4	
586.91	5621.7	
587.1	6779.5	
587.29	7537.2	
587.48	5651	
587.67	5623.7	
587.87	7418.4	
588.06	7290.1	
588.25	6344.6	
588.44	5885.9	
588.63	7119.4	
588.83	7445	
589.02	5601.9	
589.21	5411.4	
589.4	7055.3	
589.59	6933.1	
589.78	5053.7	
589.98	5090.6	
590.17	6638.1	
590.36	6834.8	
590.55	4642.7	
590.74	5169.1	
590.94	7561.8	
591.13	6759	
591.32	5104.2	
591.51	4833.2	
591.7	7071.6	
591.89	6843.6	
592.09	4827.1	
592.28	5145.2	
592.47	6222.4	
592.66	7575.4	
592.85	4857.1	
593.05	5058.5	
593.24	6715.3	
593.43	7266.9	
593.62	5126.7	
593.81	5335.6	
594	6770.6	
594.19	6890.7	
594.39	5015.5	
594.58	4978.6	
594.77	6945.3	
594.96	7308.5	
595.15	5046.9	
595.34	5345.2	
595.54	6873.7	
595.73	6368.5	
595.92	4562.2	
596.11	5208	
596.3	7242.3	
596.49	6444.3	
596.68	5185.5	
596.88	5390.3	
597.07	7071.6	
597.26	6451.1	
597.45	4896.7	
597.64	5604.6	
597.83	6560.3	
598.02	6919.4	
598.22	4882.4	
598.41	5330.2	
598.6	6830.7	
598.79	6417	
598.98	4936.3	
599.17	5444.2	
599.36	6846.4	
599.55	7471	
599.74	6094.8	
599.94	6010.8	
600.13	7162.4	
600.32	6404.7	
600.51	4732.2	
600.7	4861.9	
600.89	7468.9	
601.08	7542	
601.27	4717.8	
601.47	5270.8	
601.66	7055.3	
601.85	7365.9	
602.04	5134.3	
602.23	5226.4	
602.42	6504.3	
602.61	6869.6	
602.8	5040.1	
602.99	4952.7	
603.18	6798.6	
603.37	6850.5	
603.57	5307.7	
603.76	5649.7	
603.95	7252.5	
604.14	7009.5	
604.33	5024.3	
604.52	5095.3	
604.71	6847.7	
604.9	6508.4	
605.09	5509.7	
605.28	5365	
605.47	7240.9	
605.66	6873	
605.86	5397.8	
606.05	4942.4	
606.24	7224.6	
606.43	6180.1	
606.62	5193.6	
606.81	5582.8	
607	7032.7	
607.19	6640.2	
607.38	4825	
607.57	4925.4	
607.76	6475	
607.95	6126.8	
608.14	5214.8	
608.33	5526.8	
608.52	6451.1	
608.72	7047.7	
608.91	4723.3	
609.1	4715.8	
609.29	6537.8	
609.48	6255.2	
609.67	5322	
609.86	4761.5	
610.05	6369.2	
610.24	6477	
610.43	4703.5	
610.62	4429.8	
610.81	7274.4	
611	7047.1	
611.19	4790.9	
611.38	5201.8	
611.57	6759.7	
611.76	7433.4	
611.95	4582.7	
612.14	4506.9	
612.33	6604.7	
612.52	6285.9	
612.71	4907.6	
612.9	4446.1	
613.09	6092	
613.28	7532.4	
613.47	4904.2	
613.66	5306.3	
613.85	6693.4	
614.04	6246.3	
614.24	4838	
614.43	4370.4	
614.62	6739.2	
614.81	6615.6	
615	5164.3	
615.19	5190.9	
615.38	6318	
615.57	6485.2	
615.76	5133.6	
615.95	5694.7	
616.14	6777.4	
616.33	6535.1	
616.52	5261.2	
616.71	5330.9	
616.9	6739.2	
617.09	6541.2	
617.28	4917.2	
617.47	5579.3	
617.66	6177.4	
617.85	6248.4	
618.04	5360.2	
618.22	5041.4	
618.41	6404.7	
618.6	7010.2	
618.79	5027.8	
618.98	4857.1	
619.17	7151.5	
619.36	6099.5	
619.55	5033.2	
619.74	4914.4	
619.93	6685.9	
620.12	6327.5	
620.31	5233.2	
620.5	5358.9	
620.69	6991.1	
620.88	7281.9	
621.07	5831.9	
621.26	5176.6	
621.45	6792.4	
621.64	6741.2	
621.83	5352	
622.02	4842.1	
622.21	6911.9	
622.4	6666.8	
622.59	5652.4	
622.78	5549.3	
622.97	6473.6	
623.16	7073.7	
623.35	5298.8	
623.54	4785.4	
623.72	6635.4	
623.91	6631.3	
624.1	5397.1	
624.29	4664.6	
624.48	7324.9	
624.67	6795.8	
624.86	5381.4	
625.05	4863.9	
625.24	7380.2	
625.43	6492.7	
625.62	6359.6	
625.81	4964.3	
626	6978.8	
626.19	6599.9	
626.38	5338.4	
626.56	5127.4	
626.75	6432	
626.94	6965.8	
627.13	5462.6	
627.32	4638.6	
627.51	6871.6	
627.7	7499	
627.89	4663.9	
628.08	5384.1	
628.27	6402	
628.46	6573.3	
628.65	4949.9	
628.83	4605.9	
629.02	6784.2	
629.21	6327.5	
629.4	5135.6	
629.59	5268.1	
629.78	6367.1	
629.97	6923.5	
630.16	5256.5	
630.35	4973.2	
630.54	7275.1	
630.72	7047.1	
630.91	4977.2	
631.1	5283.1	
631.29	6671.6	
631.48	6687.3	
631.67	5312.4	
631.86	5008	
632.05	6589.7	
632.24	6576	
632.42	4819.6	
632.61	5179.3	
632.8	6575.3	
632.99	6313.9	
633.18	5191.6	
633.37	5358.9	
633.56	6759.7	
633.75	6627.2	
633.93	5230.5	
634.12	5022.3	
634.31	7257.3	
634.5	6904.4	
634.69	5024.3	
634.88	5324	
635.07	6645	
635.25	6893.5	
635.44	5651.7	
635.63	5683.1	
635.82	6530.3	
636.01	5916.6	
636.2	5515.2	
636.39	5295.4	
636.57	7217.7	
636.76	6901.7	
636.95	4902.2	
637.14	5683.1	
637.33	6815	
637.52	7168.6	
637.7	4831.2	
637.89	5458.5	
638.08	6554.2	
638.27	7370.6	
638.46	5406.6	
638.65	5666	
638.83	7360.4	
639.02	6423.1	
639.21	5332.2	
639.4	5547.3	
639.59	6672.3	
639.78	6493.4	
639.96	4769	
640.15	4847.5	
640.34	6625.9	
640.53	6632	
640.72	4770.4	
640.91	4892.6	
641.09	6238.8	
641.28	7000	
641.47	4898.1	
641.66	5397.1	
641.85	6646.3	
642.03	6778.1	
642.22	5212.8	
642.41	4958.1	
642.6	6277.7	
642.79	5892	
642.97	4919.2	
643.16	5237.3	
643.35	6240.8	
643.54	6096.8	
643.73	4760.8	
643.91	5167.7	
644.1	6106.4	
644.29	6419	
644.48	4800.4	
644.67	4857.8	
644.85	6063.4	
645.04	6420.4	
645.23	4570.4	
645.42	4781.3	
645.6	6146.6	
645.79	6809.5	
645.98	4760.8	
646.17	4165.6	
646.36	5868.8	
646.54	6176.7	
646.73	5201.8	
646.92	4435.2	
647.11	5949.3	
647.29	6548.7	
647.48	4459.1	
647.67	4274.8	
647.86	6765.1	
648.05	6678.4	
648.23	4611.3	
648.42	5401.9	
648.61	6446.3	
648.8	6254.5	
648.98	4402.5	
649.17	4662.5	
649.36	6013.5	
649.55	5782.8	
649.73	4461.8	
649.92	4980.7	
650.11	5890.6	
650.3	6088.6	
650.48	4582	
650.67	4468	
650.86	6296.8	
651.05	5599.8	
651.23	4519.2	
651.42	4474.8	
651.61	5941.2	
651.79	5875.6	
651.98	4661.9	
652.17	4434.5	
652.36	6277.7	
652.54	5632.6	
652.73	4475.5	
652.92	4410.6	
653.11	6203.3	
653.29	6345.3	
653.48	4027	
653.67	4543.1	
653.85	6046.3	
654.04	6648.4	
654.23	4655.7	
654.42	4428.4	
654.6	5787.6	
654.79	6201.9	
654.98	4100.7	
655.16	4442.7	
655.35	5567.1	
655.54	5389.6	
655.73	4126.7	
655.91	4046.8	
656.1	6048.3	
656.29	5390.3	
656.47	3851.5	
656.66	4939.7	
656.85	5654.4	
657.03	5672.2	
657.22	4239.3	
657.41	4275.5	
657.59	5702.2	
657.78	5609.4	
657.97	4033.1	
658.16	4474.8	
658.34	6146.6	
658.53	6398.5	
658.72	5020.3	
658.9	5283.1	
659.09	5918.6	
659.28	5792.3	
659.46	4282.3	
659.65	4306.9	
659.84	5575.3	
660.02	6072.2	
660.21	4273.4	
660.4	4147.8	
660.58	6261.3	
660.77	5718.6	
660.96	4630.5	
661.14	3957.4	
661.33	6577.4	
661.52	6473.6	
661.7	3915	
661.89	6007.4	
662.08	5567.7	
662.26	5238.7	
662.45	4162.8	
662.64	4258.4	
662.82	6068.8	
663.01	5463.3	
663.2	4182.6	
663.38	4576.5	
663.57	5954.1	
663.75	5819.6	
663.94	4397	
664.13	5124.7	
664.31	5657.2	
664.5	6059.3	
664.69	4690.5	
664.87	4773.1	
665.06	5458.5	
665.25	5851.7	
665.43	4979.3	
665.62	5023	
665.8	5988.3	
665.99	5596.4	
666.18	4396.3	
666.36	4428.4	
666.55	6034	
666.74	5933.6	
666.92	4163.5	
667.11	5150	
667.29	5748	
667.48	6005.3	
667.67	4833.2	
667.85	4266.6	
668.04	5651.7	
668.22	5593.7	
668.41	4470	
668.6	4615.4	
668.78	5535.7	
668.97	5692	
669.15	4688.5	
669.34	4029.7	
669.53	5520	
669.71	5732.3	
669.9	4080.9	
670.08	4488.5	
670.27	5415.5	
670.46	5855.8	
670.64	4633.2	
670.83	4829.8	
671.01	5337.7	
671.2	5812.1	
671.38	4184	
671.57	4110.3	
671.76	6244.9	
671.94	6541.2	
672.13	4036.5	
672.31	4692.6	
672.5	6059.3	
672.69	5567.7	
672.87	4197.7	
673.06	4370.4	
673.24	5879	
673.43	5671.5	
673.61	4450.2	
673.8	4310.3	
673.98	5909.8	
674.17	6012.2	
674.36	4775.2	
674.54	4605.9	
674.73	5662	
674.91	6062	
675.1	4378.6	
675.28	4132.1	
675.47	5674.2	
675.65	5967.1	
675.84	4364.2	
676.03	4458.4	
676.21	5606	
676.4	5209.3	
676.58	4738.3	
676.77	4666.6	
676.95	6590.4	
677.14	5554.1	
677.32	4064.5	
677.51	4041.3	
677.69	6040.1	
677.88	5430.5	
678.06	4128.7	
678.25	4140.3	
678.44	5662	
678.62	5517.9	
678.81	3945.1	
678.99	4520.5	
679.18	6190.3	
679.36	5865.4	
679.55	4297.3	
679.73	4631.1	
679.92	5840.1	
680.1	5556.8	
680.29	5109	
680.47	4317.1	
680.66	5518.6	
680.84	5986.9	
681.03	3930.7	
681.21	4564.9	
681.4	5549.3	
681.58	5481	
681.77	4143	
681.95	4095.9	
682.14	6045.6	
682.32	6227.2	
682.51	4675.5	
682.69	4003.8	
682.88	5469.4	
683.06	5762.3	
683.25	4485.1	
683.43	4757.4	
683.62	5732.9	
683.8	5932.3	
683.99	4832.5	
684.17	4432.5	
684.36	6389	
684.54	5657.2	
684.73	3926	
684.91	4025.6	
685.1	5735.7	
685.28	5356.8	
685.46	4326	
685.65	4317.8	
685.83	5838.1	
686.02	5533.6	
686.2	4043.4	
686.39	4067.9	
686.57	5381.4	
686.76	6190.3	
686.94	4043.4	
687.13	4119.8	
687.31	5760.9	
687.5	5569.1	
687.68	3812	
687.86	4517.1	
688.05	6587.6	
688.23	5158.8	
688.42	4557.4	
688.6	4095.9	
688.79	5349.3	
688.97	5479	
689.16	4270	
689.34	3687	
689.52	5817.6	
689.71	6051.7	
689.89	4500.1	
690.08	4058.4	
690.26	5639.4	
690.45	5361.6	
690.63	4569.7	
690.81	4190.1	
691	5639.4	
691.18	5412.1	
691.37	4252.3	
691.55	5606.7	
691.74	5406.6	
691.92	6507.8	
692.1	4290.5	
692.29	3900	
692.47	5609.4	
692.66	5146.5	
692.84	4108.9	
693.02	4298.7	
693.21	5078.3	
693.39	5545.9	
693.58	4454.3	
693.76	4046.8	
693.94	6194.4	
694.13	6059.9	
694.31	4135.5	
694.5	4717.2	
694.68	5319.3	
694.86	5688.6	
695.05	4279.6	
695.23	4537.6	
695.42	5805.3	
695.6	7172.7	
695.78	4681.7	
695.97	4104.1	
696.15	5836	
696.34	5452.4	
696.52	3946.4	
696.7	4515.8	
696.89	5668.8	
697.07	5283.8	
697.25	4433.9	
697.44	5255.1	
697.62	5699.5	
697.81	5765	
697.99	4272.7	
698.17	4517.1	
698.36	5377.3	
698.54	5713.2	
698.72	4384	
698.91	3813.3	
699.09	5489.9	
699.28	5343.8	
699.46	4304.8	
699.64	4132.1	
699.83	5280.3	
700.01	5918.6	
700.19	4689.8	
700.38	3656.3	
700.56	5988.9	
700.74	5398.4	
700.93	3983.3	
701.11	4405.9	
701.29	5712.5	
701.48	6372.6	
701.66	4008.6	
701.84	4093.9	
702.03	5521.3	
702.21	5887.9	
702.39	3798.3	
702.58	4216.1	
702.76	5786.9	
702.94	5780.7	
703.13	3831.7	
703.31	5249.6	
703.49	5356.1	
703.68	5900.9	
703.86	3932.8	
704.04	4595	
704.23	5647.6	
704.41	5869.5	
704.59	4085	
704.78	4755.4	
704.96	6679.1	
705.14	5825.1	
705.33	3958	
705.51	4462.5	
705.69	5489.9	
705.87	6043.6	
706.06	4533.5	
706.24	3907.5	
706.42	5717.9	
706.61	5845.6	
706.79	4593.6	
706.97	3879.5	
707.16	5339.1	
707.34	5672.9	
707.52	4547.2	
707.7	4024.3	
707.89	5407.3	
708.07	5225.7	
708.25	4568.3	
708.44	4558.1	
708.62	5334.3	
708.8	6023.1	
708.98	4706.2	
709.17	4078.2	
709.35	5570.5	
709.53	5653.8	
709.72	3846.1	
709.9	3938.2	
710.08	5906.3	
710.26	5847.6	
710.45	4911.7	
710.63	4078.9	
710.81	5574.6	
710.99	5567.7	
711.18	4500.1	
711.36	4106.2	
711.54	5526.8	
711.72	5907.7	
711.91	4217.5	
712.09	3930.7	
712.27	5646.2	
712.45	5872.9	
712.64	4377.2	
712.82	3743.7	
713	5249.6	
713.18	5375.9	
713.37	3786.7	
713.55	4513	
713.73	5862.7	
713.91	5020.3	
714.1	4037.2	
714.28	3711.6	
714.46	5614.8	
714.64	5090.6	
714.83	3422.2	
715.01	3803.1	
715.19	5261.2	
715.37	4739.7	
715.55	3653.6	
715.74	3829.7	
715.92	5640.8	
716.1	4431.1	
716.28	4544.4	
716.47	3954.6	
716.65	5070.8	
716.83	4980.7	
717.01	3814.7	
717.19	3764.2	
717.38	6215.6	
717.56	4823.6	
717.74	3953.3	
717.92	3453.6	
718.1	5544.5	
718.29	5055.1	
718.47	3248.8	
718.65	3658.4	
718.83	5572.5	
719.01	5390.9	
719.2	3168.9	
719.38	3893.2	
719.56	5233.2	
719.74	6171.9	
719.92	3674.1	
720.11	4247.5	
720.29	5366.4	
720.47	4767	
720.65	3331.4	
720.83	3870	
721.02	4995	
721.2	4897.4	
721.38	3861.8	
721.56	3448.8	
721.74	4584.7	
721.92	4625.7	
722.11	4145.1	
722.29	4009.2	
722.47	5387.5	
722.65	4900.1	
722.83	3460.4	
723.01	3929.4	
723.2	4904.9	
723.38	5152.7	
723.56	3119.1	
723.74	3797.6	
723.92	4627.7	
724.1	5328.8	
724.29	3409.9	
724.47	4089.1	
724.65	4739.7	
724.83	4628.4	
725.01	3358	
725.19	3828.3	
725.37	4674.1	
725.56	4591.5	
725.74	3294.5	
725.92	3392.1	
726.1	4699.4	
726.28	4815.5	
726.46	3622.2	
726.64	3453.6	
726.83	4956.8	
727.01	4986.1	
727.19	3331.4	
727.37	3738.9	
727.55	4955.4	
727.73	5242.1	
727.91	3263.8	
728.09	3183.9	
728.28	5272.8	
728.46	5417.6	
728.64	3807.2	
728.82	3758.7	
729	5913.2	
729.18	5472.2	
729.36	3239.2	
729.54	4657.1	
729.72	6093.4	
729.91	4980	
730.09	4534.9	
730.27	3718.4	
730.45	4997	
730.63	5368.4	
730.81	4035.2	
730.99	3516.4	
731.17	5763	
731.35	4777.9	
731.53	3822.9	
731.71	3599	
731.9	5510.4	
732.08	5494.7	
732.26	3833.8	
732.44	3587.4	
732.62	5666.7	
732.8	5248.9	
732.98	4050.2	
733.16	3424.9	
733.34	5343.2	
733.52	4505.5	
733.7	3743	
733.88	3889.1	
734.07	5240.1	
734.25	5079.6	
734.43	3450.1	
734.61	4301.4	
734.79	5995.1	
734.97	4994.3	
735.15	3507.5	
735.33	3742.3	
735.51	5278.3	
735.69	5046.9	
735.87	4375.8	
736.05	3851.5	
736.23	5125.4	
736.41	4898.7	
736.59	3693.2	
736.77	3803.1	
736.95	5354.8	
737.13	4963.6	
737.32	3543.7	
737.5	3663.1	
737.68	5712.5	
737.86	4937.7	
738.04	3462.4	
738.22	4472.8	
738.4	4952	
738.58	5128.1	
738.76	3767.6	
738.94	3183.2	
739.12	5002.5	
739.3	4887.1	
739.48	4115.1	
739.66	3895.9	
739.84	5114.5	
740.02	5029.1	
740.2	3261.7	
740.38	3444.7	
740.56	5365.7	
740.74	4547.9	
740.92	3894.6	
741.1	3823.6	
741.28	5004.6	
741.46	4754.7	
741.64	3601	
741.82	3932.8	
742	5071.5	
742.18	4931.5	
742.36	3689.8	
742.54	3491.8	
742.72	5461.2	
742.9	4540.3	
743.08	3910.9	
743.26	3194.1	
743.44	5402.5	
743.62	5315.2	
743.8	3976.5	
743.98	3433.1	
744.16	5193.6	
744.34	4951.3	
744.52	3930.1	
744.7	3950.5	
744.88	5320.6	
745.06	4995.7	
745.24	3963.5	
745.42	3971.7	
745.6	5369.8	
745.78	5248.3	
745.96	3300	
746.14	3441.3	
746.32	5817.6	
746.5	5253	
746.68	3811.3	
746.86	3446	
747.03	5498.1	
747.21	4554.7	
747.39	3802.4	
747.57	3449.5	
747.75	5096	
747.93	5246.9	
748.11	3424.9	
748.29	3391.4	
748.47	6124.8	
748.65	4869.4	
748.83	3863.2	
749.01	3758.7	
749.19	5205.3	
749.37	4581.3	
749.55	3673.4	
749.73	3686.3	
749.91	5083.7	
750.09	4931.5	
750.26	3718.4	
750.44	3332	
750.62	5027.1	
750.8	4960.9	
750.98	3293.1	
751.16	3540.9	
751.34	5142.4	
751.52	4687.1	
751.7	3964.2	
751.88	3259.7	
752.06	5366.4	
752.24	5088.5	
752.42	3224.2	
752.59	3426.9	
752.77	4969.7	
752.95	5797.8	
753.13	3871.3	
753.31	3465.8	
753.49	4829.1	
753.67	5044.8	
753.85	3797.6	
754.03	3404.4	
754.21	5305.6	
754.38	5457.8	
754.56	3523.2	
754.74	3003.7	
754.92	4737	
755.1	5145.2	
755.28	2984.6	
755.46	2954.5	
755.64	5715.9	
755.82	5644.9	
755.99	3183.9	
756.17	3203	
756.35	4112.3	
756.53	5053.7	
756.71	2534.7	
756.89	3300	
757.07	4811.4	
757.25	4257	
757.42	3358	
757.6	3915	
757.78	4903.5	
757.96	4212.7	
758.14	3211.9	
758.32	2923.1	
758.5	3953.3	
758.67	4469.4	
758.85	3100.6	
759.03	3143.6	
759.21	4660.5	
759.39	4225.6	
759.57	2781.1	
759.75	3469.9	
759.92	5043.5	
760.1	4664.6	
760.28	3730	
760.46	3869.3	
760.64	4484.4	
760.82	4373.1	
760.99	3619.4	
761.17	3121.8	
761.35	4991.6	
761.53	4274.1	
761.71	3351.8	
761.89	3650.8	
762.06	4849.6	
762.24	4570.4	
762.42	3333.4	
762.6	3151.1	
762.78	4586.1	
762.96	4988.2	
763.13	3525.9	
763.31	3275.4	
763.49	4992.3	
763.67	4575.8	
763.85	3847.5	
764.02	4168.3	
764.2	5286.5	
764.38	4631.1	
764.56	3256.3	
764.74	3747.1	
764.91	5271.5	
765.09	4540.3	
765.27	3142.3	
765.45	2967.5	
765.63	5324	
765.8	5190.9	
765.98	2875.3	
766.16	3016	
766.34	4323.9	
766.52	4255	
766.69	3586	
766.87	2893.8	
767.05	4592.2	
767.23	5130.8	
767.41	3086.3	
767.58	3288.4	
767.76	4967	
767.94	5055.8	
768.12	3164.1	
768.29	3558	
768.47	4560.8	
768.65	5066.7	
768.83	2918.4	
769	3588	
769.18	4418.8	
769.36	4793.6	
769.54	3586	
769.72	2953.2	
769.89	5072.8	
770.07	4975.2	
770.25	3246.7	
770.43	3956.7	
770.6	5504.3	
770.78	5679	
770.96	3245.3	
771.14	3599.6	
771.31	4955.4	
771.49	4510.3	
771.67	2775.7	
771.85	2884.9	
772.02	4085.7	
772.2	4508.9	
772.38	3338.2	
772.55	3071.3	
772.73	4697.4	
772.91	4588.8	
773.09	3233.1	
773.26	3331.4	
773.44	4721.3	
773.62	4543.8	
773.8	3052.8	
773.97	2854.2	
774.15	4712.4	
774.33	4515.8	
774.5	2884.9	
774.68	3055.6	
774.86	4463.9	
775.04	4530.8	
775.21	3031.7	
775.39	2899.9	
775.57	4684.4	
775.74	4825	
775.92	2799.6	
776.1	2716.3	
776.27	4611.3	
776.45	5411.4	
776.63	2932	
776.81	2712.9	
776.98	4491.9	
777.16	5025	
777.34	3091.1	
777.51	3207.1	
777.69	4448.2	
777.87	4291.9	
778.04	3158.7	
778.22	3396.9	
778.4	4298	
778.57	4689.8	
778.75	2620.7	
778.93	2807.8	
779.1	4252.9	
779.28	4007.9	
779.46	2610.5	
779.64	2907.4	
779.81	4840	
779.99	5271.5	
780.17	3373	
780.34	3412.6	
780.52	4490.5	
780.69	4500.1	
780.87	3127.9	
781.05	2841.9	
781.22	4575.8	
781.4	4524	
781.58	2948.4	
781.75	2349.7	
781.93	4613.4	
782.11	4081.6	
782.28	3472	
782.46	2949.8	
782.64	4074.8	
782.81	4656.4	
782.99	3067.2	
783.17	2942.9	
783.34	4457.7	
783.52	4141.7	
783.69	3061	
783.87	3559.4	
784.05	4281.6	
784.22	4161.5	
784.4	3583.9	
784.58	3201	
784.75	4755.4	
784.93	4248.9	
785.1	2872.6	
785.28	3308.2	
785.46	4648.9	
785.63	4117.8	
785.81	2961.4	
785.99	2850.1	
786.16	4312.3	
786.34	4463.2	
786.51	2849.4	
786.69	3112.2	
786.87	3999.7	
787.04	4272.7	
787.22	2765.4	
787.39	3327.3	
787.57	4153.3	
787.75	4799.8	
787.92	3529.3	
788.1	3431.7	
788.27	4109.6	
788.45	3910.3	
788.63	3295.2	
788.8	2483.5	
788.98	4543.1	
789.15	3917.1	
789.33	2603.7	
789.5	2925.2	
789.68	4733.5	
789.86	4800.4	
790.03	3187.3	
790.21	2871.9	
790.38	4790.9	
790.56	4225.6	
790.73	2830.3	
790.91	2783.9	
791.09	4139.6	
791.26	4587.4	
791.44	2966.8	
791.61	2617.3	
791.79	4171.7	
791.96	4151.9	
792.14	2657.6	
792.32	2434.4	
792.49	4150.5	
792.67	4241.3	
792.84	2723.1	
793.02	2614.6	
793.19	4420.2	
793.37	4881.7	
793.54	2390	
793.72	2618	
793.89	4947.2	
794.07	4110.3	
794.25	3039.2	
794.42	2454.1	
794.6	4766.3	
794.77	4481.6	
794.95	3170.9	
795.12	2801.6	
795.3	4192.9	
795.47	4459.8	
795.65	3062.4	
795.82	2964.1	
796	4057	
796.17	5130.8	
796.35	2856.2	
796.52	3330.7	
796.7	4489.1	
796.87	4553.3	
797.05	2892.4	
797.22	3403	
797.4	4539	
797.57	5040.1	
797.75	2991.4	
797.92	2796.2	
798.1	4728.1	
798.27	4019.5	
798.45	2523.1	
798.62	2577	
798.8	4387.4	
798.97	4691.9	
799.15	3150.5	
799.32	2980.5	
799.5	3842	
799.67	4272.1	
799.85	3202.3	
800.02	2447.3	
800.2	4125.3	
800.37	4237.2	
800.55	3213.9	
800.72	2822.1	
800.9	4640.7	
801.07	4874.8	
801.25	3643.3	
801.42	3014.6	
801.6	4693.3	
801.77	4323.3	
801.95	2852.8	
802.12	2811.9	
802.29	4492.6	
802.47	4375.8	
802.64	3089	
802.82	2463.7	
802.99	4182	
803.17	4618.9	
803.34	2959.3	
803.52	2691	
803.69	5132.2	
803.87	3960.8	
804.04	2988	
804.21	2944.3	
804.39	4876.9	
804.56	4199	
804.74	2618.7	
804.91	3017.3	
805.09	4129.4	
805.26	4126	
805.44	2645.3	
805.61	2818	
805.78	4612.7	
805.96	4501.4	
806.13	2994.8	
806.31	3250.8	
806.48	3848.1	
806.66	4175.8	
806.83	3065.8	
807	2961.4	
807.18	4193.6	
807.35	4285.7	
807.53	2985.3	
807.7	2484.2	
807.87	4861.2	
808.05	4141	
808.22	3222.8	
808.4	2510.1	
808.57	4088.4	
808.74	3895.2	
808.92	2806.4	
809.09	3403	
809.27	4158.1	
809.44	4401.8	
809.61	2467.1	
809.79	2659.6	
809.96	5012.7	
810.14	4515.1	
810.31	2469.9	
810.48	3136.8	
810.66	4182.6	
810.83	4647.5	
811.01	2827.6	
811.18	3022.8	
811.35	4652.3	
811.53	3725.3	
811.7	3192.1	
811.87	3059	
812.05	4269.3	
812.22	4122.6	
812.39	2749.7	
812.57	2635.1	
812.74	4250.2	
812.92	5199.8	
813.09	2906.1	
813.26	3027.6	
813.44	4963.6	
813.61	4042.7	
813.78	2480.8	
813.96	3181.9	
814.13	4153.3	
814.3	3992.9	
814.48	3396.2	
814.65	2890.4	
814.82	4980	
815	3892.5	
815.17	2932	
815.34	3476.1	
815.52	4098.7	
815.69	4118.5	
815.87	2887.6	
816.04	2833	
816.21	4113	
816.38	3829	
816.56	2876.7	
816.73	2693.1	
816.9	5056.4	
817.08	4618.2	
817.25	2732	
817.42	3285.6	
817.6	3885.7	
817.77	4083	
817.94	3048.7	
818.12	2637.8	
818.29	4012	
818.46	5545.2	
818.64	2835.8	
818.81	2605	
818.98	4027	
819.16	5239.4	
819.33	3149.1	
819.5	2921.8	
819.67	4384.7	
819.85	4746.5	
820.02	2924.5	
820.19	3048.7	
820.37	4310.3	
820.54	4030.4	
820.71	2990.7	
820.88	3614	
821.06	4312.3	
821.23	3996.3	
821.4	3003	
821.58	2940.2	
821.75	4566.3	
821.92	4300.1	
822.09	2508.8	
822.27	2666.5	
822.44	4160.1	
822.61	4115.7	
822.79	2538.8	
822.96	4415.4	
823.13	4327.4	
823.3	3930.1	
823.48	2771.6	
823.65	2596.1	
823.82	4579.3	
823.99	3899.3	
824.17	3524.6	
824.34	2638.5	
824.51	5202.5	
824.68	4190.8	
824.86	2723.8	
825.03	2998.2	
825.2	4203.1	
825.37	4748.6	
825.55	2730.6	
825.72	2926.5	
825.89	5132.9	
826.06	4890.5	
826.24	2889.7	
826.41	2867.2	
826.58	4878.9	
826.75	4302.8	
826.92	2417.3	
827.1	2626.2	
827.27	6199.2	
827.44	5049.6	
827.61	2714.9	
827.79	3175.7	
827.96	4033.8	
828.13	4132.8	
828.3	2940.9	
828.47	2480.8	
828.65	4429.8	
828.82	4398.4	
828.99	3532.1	
829.16	3079.5	
829.34	4615.4	
829.51	4549.2	
829.68	2942.9	
829.85	2952.5	
830.02	4898.1	
830.2	4594.3	
830.37	2325.1	
830.54	3437.2	
830.71	5110.4	
830.88	4202.4	
831.05	2392	
831.23	2664.4	
831.4	4997.7	
831.57	5300.8	
831.74	2750.4	
831.91	2414.6	
832.09	4496.7	
832.26	4616.8	
832.43	2805.7	
832.6	3089	
832.77	4403.8	
832.94	4875.5	
833.12	2332.6	
833.29	2791.4	
833.46	4448.9	
833.63	5467.4	
833.8	3030.3	
833.97	2771.6	
834.15	4693.9	
834.32	4516.5	
834.49	2947.7	
834.66	2936.8	
834.83	4730.1	
835	4067.9	
835.17	2790.7	
835.35	2719.7	
835.52	4584.7	
835.69	4480.3	
835.86	2830.3	
836.03	2396.8	
836.2	4654.4	
836.37	4335.5	
836.55	2741.5	
836.72	2616.6	
836.89	4394.9	
837.06	4699.4	
837.23	2833.7	
837.4	3066.5	
837.57	5140.4	
837.75	5458.5	
837.92	2622.8	
838.09	2765.4	
838.26	4356	
838.43	4769	
838.6	2893.8	
838.77	2648	
838.94	5195	
839.11	5158.8	
839.29	2827.6	
839.46	2324.4	
839.63	4659.8	
839.8	4437.3	
839.97	2686.9	
840.14	2723.1	
840.31	4517.8	
840.48	4614.1	
840.65	2388.6	
840.82	2682.8	
841	4603.8	
841.17	4500.1	
841.34	2543.6	
841.51	2630.3	
841.68	4577.9	
841.85	4328.7	
842.02	2628.2	
842.19	2315.6	
842.36	4446.1	
842.53	4501.4	
842.7	2581.8	
842.87	2951.1	
843.05	5486.5	
843.22	4372.4	
843.39	2469.2	
843.56	2673.3	
843.73	4358.8	
843.9	4712.4	
844.07	3838.6	
844.24	3231	
844.41	6051.7	
844.58	4113	
844.75	2486.9	
844.92	2594.8	
845.09	4586.1	
845.26	4565.6	
845.43	2557.9	
845.6	2721.1	
845.77	4625.7	
845.94	4473.4	
846.12	2760	
846.29	2930.6	
846.46	4826.4	
846.63	4556	
846.8	2583.2	
846.97	2925.9	
847.14	4869.4	
847.31	4581.3	
847.48	2831	
847.65	3007.8	
847.82	4661.9	
847.99	4713.7	
848.16	3300	
848.33	3012.6	
848.5	4252.9	
848.67	4861.9	
848.84	2522.4	
849.01	2590	
849.18	4308.2	
849.35	4056.3	
849.52	3045.3	
849.69	2478.7	
849.86	4847.5	
850.03	4788.2	
850.2	2559.3	
850.37	2998.2	
850.54	4797	
850.71	4362.9	
850.88	2969.6	
851.05	2496.5	
851.22	4506.9	
851.39	4898.7	
851.56	2391.3	
851.73	2808.4	
851.9	4127.3	
852.07	4720.6	
852.24	2746.3	
852.41	2476.7	
852.58	4565.6	
852.75	4199	
852.92	2792.7	
853.09	2450.7	
853.26	4265.2	
853.43	4846.9	
853.6	2526.5	
853.77	2196.8	
853.94	4925.4	
854.11	4130.8	
854.28	3540.3	
854.44	2729.9	
854.61	5173.2	
854.78	4804.5	
854.95	2509.4	
855.12	3007.8	
855.29	3901.4	
855.46	4932.2	
855.63	2493.7	
855.8	3332.7	
855.97	4255	
856.14	4810	
856.31	3385.3	
856.48	2717	
856.65	4353.3	
856.82	4128	
856.99	2419.3	
857.16	2718.3	
857.33	5332.2	
857.49	4370.4	
857.66	2735.4	
857.83	2863.1	
858	4402.5	
858.17	4476.9	
858.34	2407.7	
858.51	2536.8	
858.68	4928.1	
858.85	4977.9	
859.02	2843.3	
859.19	3031.7	
859.36	4150.5	
859.52	4146.5	
859.69	2578.4	
859.86	2884.2	
860.03	4158.7	
860.2	4945.8	
860.37	2316.9	
860.54	2547	
860.71	4659.1	
860.88	4930.8	
861.05	2725.8	
861.21	3139.5	
861.38	4909	
861.55	4046.8	
861.72	2363.4	
861.89	2769.5	
862.06	4750.6	
862.23	5013.4	
862.4	2420	
862.56	2626.9	
862.73	4624.3	
862.9	4431.1	
863.07	2905.4	
863.24	2405.7	
863.41	4125.3	
863.58	4177.2	
863.75	2587.3	
863.91	2847.4	
864.08	4826.4	
864.25	4673.5	
864.42	3067.9	
864.59	3401	
864.76	5145.2	
864.93	4121.2	
865.09	2463.7	
865.26	2723.8	
865.43	4903.5	
865.6	5063.9	
865.77	2291	
865.94	2518.3	
866.1	4809.3	
866.27	4629.8	
866.44	3558.7	
866.61	2467.1	
866.78	4392.2	
866.95	4642.1	
867.11	2514.2	
867.28	2295.1	
867.45	4827.7	
867.62	4104.1	
867.79	2811.9	
867.96	2487.6	
868.12	4085	
868.29	4644.8	
868.46	2510.1	
868.63	3235.8	
868.8	4787.5	
868.97	4648.2	
869.13	2607.1	
869.3	2609.8	
869.47	4602.5	
869.64	4770.4	
869.81	2536.1	
869.97	2556.5	
870.14	4582.7	
870.31	5013.4	
870.48	2458.9	
870.65	3132	
870.81	4360.8	
870.98	4351.3	
871.15	2836.4	
871.32	2596.1	
871.48	4636.6	
871.65	4981.3	
871.82	2532.7	
871.99	2799.6	
872.16	5246.9	
872.32	4866.7	
872.49	2557.2	
872.66	2567.5	
872.83	4722.6	
872.99	4294.6	
873.16	2856.2	
873.33	2494.4	
873.5	4434.5	
873.67	4539.7	
873.83	2684.9	
874	3229	
874.17	4562.2	
874.34	5122.7	
874.5	3142.3	
874.67	3018	
874.84	4940.4	
875.01	4036.5	
875.17	3356.6	
875.34	2526.5	
875.51	4489.8	
875.68	5288.5	
875.84	3017.3	
876.01	3450.8	
876.18	4710.3	
876.34	4653.7	
876.51	2539.5	
876.68	2481.5	
876.85	4330.1	
877.01	4891.2	
877.18	3408.5	
877.35	2471.2	
877.52	4640.7	
877.68	4152.6	
877.85	2542.9	
878.02	2485.6	
878.18	4319.2	
878.35	4235.9	
878.52	2104.6	
878.69	2898.6	
878.85	4795	
879.02	4686.4	
879.19	3425.6	
879.35	2686.3	
879.52	4715.8	
879.69	4701.5	
879.86	2220	
880.02	2728.6	
880.19	4485.7	
880.36	5162.9	
880.52	2871.3	
880.69	2981.8	
880.86	4747.9	
881.02	4747.2	
881.19	2737.5	
881.36	2725.8	
881.52	4693.9	
881.69	4239.3	
881.86	2736.8	
882.02	2636.4	
882.19	4885.1	
882.36	5496.1	
882.52	2628.9	
882.69	3349.1	
882.86	4577.9	
883.02	4528.1	
883.19	2973.7	
883.36	2832.3	
883.52	4754.7	
883.69	5255.1	
883.86	2583.9	
884.02	2374.3	
884.19	4730.8	
884.36	4521.2	
884.52	2760.7	
884.69	2741.5	
884.86	4359.4	
885.02	4997	
885.19	2755.9	
885.36	2877.4	
885.52	4384.7	
885.69	4591.5	
885.86	3472.7	
886.02	3102.7	
886.19	4754.7	
886.35	4260.5	
886.52	2729.9	
886.69	3362.1	
886.85	4136.2	
887.02	4954.7	
887.19	4954.7	
887.35	4954.7	
887.52	4954.7	
887.68	4954.7	
887.85	4954.7	
888.02	4954.7	
888.18	4954.7	
888.35	4954.7	
888.51	4954.7	
888.68	4954.7	
888.85	4954.7	
889.01	4954.7	
889.18	4954.7	
889.35	4954.7	
889.51	4954.7	
889.68	4954.7	
889.84	4954.7	
890.01	4954.7	
890.17	4954.7	
890.34	4954.7	
890.51	4954.7	
890.67	4954.7	
890.84	4954.7	
891	4954.7	
891.17	4954.7	
891.34	4954.7	
891.5	4954.7	
891.67	4954.7	
891.83	4954.7	
892	4954.7	
892.16	4954.7	
892.33	4954.7	
892.5	4954.7	
892.66	4954.7	
892.83	4954.7	
892.99	4954.7	
893.16	4954.7	
893.32	4954.7	
893.49	4954.7	
893.65	4954.7	
893.82	4954.7	
893.99	4954.7	
894.15	4954.7	
894.32	4954.7	
894.48	4954.7	
894.65	4954.7	
894.81	4954.7	
894.98	4954.7	
895.14	4954.7	
895.31	4954.7	
895.47	4954.7	
895.64	4954.7	
895.81	4954.7	
895.97	4954.7	
896.14	4954.7	
896.3	4954.7	
896.47	4954.7	
896.63	4954.7	
896.8	4954.7	
896.96	4954.7	
897.13	4954.7	
897.29	4954.7	
897.46	4954.7	
897.62	4954.7	
897.79	4954.7	
897.95	4954.7	
898.12	4954.7	
898.28	4954.7	
898.45	4954.7	
898.61	4954.7	
898.78	4954.7	
898.94	4954.7	
899.11	4954.7	
899.27	4954.7	
899.44	4954.7	
899.6	4954.7	
899.77	4954.7	
899.93	4954.7	
900.1	4954.7	
900.26	4954.7	
900.43	4954.7	
900.59	4954.7	
900.76	4954.7	
900.92	4954.7	
901.09	4954.7	
901.25	4954.7	
901.42	4954.7	
901.58	4954.7	
901.75	4954.7	
901.91	4954.7	
902.07	4954.7	
902.24	4954.7	
902.4	4954.7	
902.57	4954.7	
902.73	4954.7	
902.9	4954.7	
903.06	4954.7	
903.23	4954.7	
903.39	4954.7	
903.56	4954.7	
903.72	4954.7	
903.88	4954.7	
904.05	4954.7	
904.21	4954.7	
904.38	4954.7	
904.54	4954.7	
904.71	4954.7	
904.87	4954.7	
905.03	4954.7	
905.2	4954.7	
905.36	4954.7	
905.53	4954.7	
905.69	4954.7	
905.86	4954.7	
906.02	4954.7	
906.18	4954.7	
906.35	4954.7	
906.51	4954.7	
906.68	4954.7	
906.84	4954.7	
907.01	4954.7	
907.17	4954.7	
907.33	4954.7	
907.5	4954.7	
907.66	4954.7	
907.83	4954.7	
907.99	4954.7	
908.15	4954.7	
908.32	4954.7	
908.48	4954.7	
908.65	4954.7	
908.81	4954.7	
908.97	4954.7	
909.14	4954.7	
909.3	4954.7	
909.47	4954.7	
909.63	4954.7	
909.79	4954.7	
909.96	4954.7	
910.12	4954.7	
910.28	4954.7	
910.45	4954.7	
910.61	4954.7	
910.78	4954.7	
910.94	4954.7	
911.1	4954.7	
911.27	4954.7	
911.43	4954.7	
911.59	4954.7	
911.76	4954.7	
911.92	4954.7	
912.08	4954.7	
912.25	4954.7	
912.41	4954.7	
912.57	4954.7	
912.74	4954.7	
912.9	4954.7	
913.07	4954.7	
913.23	4954.7	
913.39	4954.7	
913.56	4954.7	
913.72	4954.7	
913.88	4954.7	
914.05	4954.7	
914.21	4954.7	
914.37	4954.7	
914.54	4954.7	
914.7	4954.7	
914.86	4954.7	
915.03	4954.7	
915.19	4954.7	
