Wavelength	Intensities	
nm	a.u.	
179.22	1591.3	
179.44	1607	
179.65	1575.6	
179.86	1638.4	
180.08	1621.3	
180.29	3654.3	
180.51	2834.4	
180.72	4771.8	
180.94	5206.6	
181.15	2551.1	
181.37	2532.7	
181.58	4547.9	
181.79	4730.8	
182.01	2655.5	
182.22	2778.4	
182.44	4770.4	
182.65	4180.6	
182.87	3347.7	
183.08	2996.2	
183.29	4994.3	
183.51	4229.1	
183.72	2762.7	
183.94	3793.5	
184.15	4526	
184.37	4420.2	
184.58	2523.1	
184.79	3158	
185.01	4287.8	
185.22	4823	
185.44	3346.4	
185.65	2957.3	
185.86	4536.9	
186.08	4168.3	
186.29	2441.9	
186.51	2609.1	
186.72	4276.2	
186.94	4820.2	
187.15	2910.8	
187.36	2971.6	
187.58	5928.9	
187.79	4559.5	
188.01	3074.7	
188.22	4530.1	
188.43	5244.2	
188.65	4726.7	
188.86	2633	
189.08	3023.5	
189.29	4354	
189.5	4331.5	
189.72	2768.2	
189.93	2803	
190.15	4858.5	
190.36	5546.6	
190.57	3014.6	
190.79	2930	
191	4899.4	
191.22	4911	
191.43	3061.7	
191.64	2613.2	
191.86	5043.5	
192.07	4885.8	
192.29	2719	
192.5	2764.8	
192.71	4886.5	
192.93	4359.4	
193.14	2777	
193.35	2888.3	
193.57	4371.7	
193.78	4902.8	
194	2390	
194.21	2756.6	
194.42	4177.2	
194.64	4455.7	
194.85	2990.7	
195.07	3417.4	
195.28	4389.5	
195.49	4028.4	
195.71	3514.3	
195.92	2618.7	
196.13	4689.8	
196.35	4675.5	
196.56	3751.2	
196.78	2987.3	
196.99	5513.8	
197.2	5160.9	
197.42	3293.1	
197.63	3013.9	
197.84	4158.7	
198.06	4605.2	
198.27	2784.6	
198.48	3586.7	
198.7	4334.2	
198.91	4550.6	
199.13	3065.8	
199.34	2999.6	
199.55	4899.4	
199.77	3891.8	
199.98	2721.1	
200.19	3009.1	
200.41	4481.6	
200.62	4232.5	
200.83	3061	
201.05	3321.8	
201.26	4491.9	
201.47	4314.4	
201.69	2729.3	
201.9	2691	
202.11	4510.3	
202.33	5126.1	
202.54	2805	
202.76	3222.1	
202.97	4504.8	
203.18	4604.5	
203.4	3115.6	
203.61	3125.9	
203.82	4532.2	
204.04	4300.7	
204.25	3031	
204.46	3005.1	
204.68	4549.9	
204.89	4657.8	
205.1	2982.5	
205.32	2641.2	
205.53	4747.9	
205.74	4898.1	
205.96	2368.8	
206.17	3052.2	
206.38	4661.9	
206.6	4842.1	
206.81	3442.6	
207.02	2819.4	
207.24	4677.6	
207.45	4941.7	
207.66	2899.9	
207.88	2556.5	
208.09	4678.2	
208.3	4462.5	
208.52	2749.7	
208.73	2927.9	
208.94	4481.6	
209.15	4979.3	
209.37	2936.1	
209.58	2985.3	
209.79	4815.5	
210.01	4383.3	
210.22	2425.5	
210.43	2496.5	
210.65	4455	
210.86	4670.7	
211.07	2822.1	
211.29	2692.4	
211.5	4694.6	
211.71	4431.1	
211.93	2717	
212.14	2723.1	
212.35	4467.3	
212.56	4512.4	
212.78	3057.6	
212.99	2556.5	
213.2	5101.5	
213.42	4385.4	
213.63	2774.3	
213.84	2910.8	
214.06	4129.4	
214.27	4162.2	
214.48	2817.3	
214.69	3062.4	
214.91	4971.8	
215.12	4949.3	
215.33	3097.2	
215.55	3289.7	
215.76	5325.4	
215.97	4751.3	
216.18	2981.8	
216.4	2941.6	
216.61	4313	
216.82	4810	
217.04	2735.4	
217.25	2803.7	
217.46	4967.7	
217.67	4739	
217.89	2496.5	
218.1	2576.3	
218.31	4592.9	
218.53	4601.8	
218.74	2878.1	
218.95	2734.7	
219.16	4488.5	
219.38	5090.6	
219.59	2751.1	
219.8	3203.7	
220.01	5386.8	
220.23	4517.8	
220.44	3407.1	
220.65	2628.2	
220.87	4597.7	
221.08	4931.5	
221.29	2589.3	
221.5	3201.7	
221.72	5694.7	
221.93	4326	
222.14	3007.1	
222.35	3511.6	
222.57	4482.3	
222.78	4782.7	
222.99	2952.5	
223.2	3114.3	
223.42	4664.6	
223.63	4775.9	
223.84	2346.3	
224.05	2315.6	
224.27	5415.5	
224.48	5059.2	
224.69	3445.4	
224.9	3035.1	
225.12	4610	
225.33	4484.4	
225.54	2525.1	
225.75	2778.4	
225.97	4270.7	
226.18	4442	
226.39	2913.6	
226.6	2766.1	
226.82	4349.2	
227.03	4211.3	
227.24	2996.2	
227.45	2599.6	
227.67	4831.8	
227.88	4945.2	
228.09	3354.6	
228.3	3261	
228.52	4700.8	
228.73	4399.7	
228.94	2855.6	
229.15	2594.8	
229.36	4470	
229.58	4446.8	
229.79	2848	
230	3264.5	
230.21	5243.5	
230.43	4494.6	
230.64	3037.1	
230.85	3045.3	
231.06	4869.4	
231.28	4778.6	
231.49	2562	
231.7	3020.8	
231.91	4769	
232.12	4487.8	
232.34	2687.6	
232.55	2927.9	
232.76	4895.3	
232.97	4583.4	
233.18	2738.1	
233.4	3031.7	
233.61	4590.9	
233.82	4321.9	
234.03	2838.5	
234.25	2808.4	
234.46	5793.7	
234.67	4513.7	
234.88	3048.7	
235.09	2805.7	
235.31	4597	
235.52	4400.4	
235.73	2990.7	
235.94	2577.7	
236.15	4363.5	
236.37	5171.8	
236.58	2689.7	
236.79	2930.6	
237	4724.7	
237.21	4141.7	
237.43	3102.7	
237.64	2552.5	
237.85	7062.1	
238.06	4246.8	
238.27	3052.2	
238.48	2625.5	
238.7	4725.3	
238.91	4373.8	
239.12	2875.3	
239.33	3019.4	
239.54	4265.9	
239.76	4464.6	
239.97	2885.6	
240.18	2902.7	
240.39	5238	
240.6	4639.3	
240.82	3058.3	
241.03	2592	
241.24	4481	
241.45	5015.5	
241.66	2741.5	
241.87	3149.1	
242.09	5016.2	
242.3	5180.7	
242.51	3140.2	
242.72	2929.3	
242.93	4766.3	
243.14	4451.6	
243.36	3308.8	
243.57	3537.5	
243.78	5100.8	
243.99	4705.5	
244.2	2914.3	
244.41	2639.1	
244.63	4175.8	
244.84	4656.4	
245.05	3061	
245.26	2898.6	
245.47	4692.6	
245.68	4807.3	
245.9	3670.6	
246.11	3031	
246.32	4344.4	
246.53	4651.6	
246.74	4433.2	
246.95	2509.4	
247.16	4254.3	
247.38	4505.5	
247.59	2581.1	
247.8	2902.7	
248.01	4222.2	
248.22	4487.8	
248.43	2674.6	
248.64	2869.2	
248.86	4182.6	
249.07	4311.7	
249.28	2663.7	
249.49	3005.1	
249.7	4773.1	
249.91	4846.2	
250.12	2563.4	
250.34	2609.8	
250.55	4562.2	
250.76	4540.3	
250.97	2982.5	
251.18	3019.4	
251.39	4863.9	
251.6	4607.9	
251.81	3075.4	
252.03	3003	
252.24	4371.7	
252.45	4774.5	
252.66	2647.3	
252.87	3125.9	
253.08	4517.1	
253.29	5551.4	
253.5	2637.8	
253.72	3444.7	
253.93	4474.1	
254.14	5157.5	
254.35	2833.7	
254.56	2842.6	
254.77	4589.5	
254.98	4233.2	
255.19	2815.3	
255.41	3401	
255.62	4652.3	
255.83	4836.6	
256.04	3145	
256.25	2970.2	
256.46	5264.6	
256.67	4278.2	
256.88	2986.6	
257.09	3250.8	
257.31	4249.5	
257.52	4257.7	
257.73	3633.8	
257.94	2803	
258.15	4442.7	
258.36	4505.5	
258.57	3411.2	
258.78	2327.2	
258.99	4813.4	
259.2	4375.1	
259.41	2770.9	
259.63	2857.6	
259.84	5023	
260.05	5209.3	
260.26	3521.1	
260.47	2786.6	
260.68	4846.9	
260.89	4407.9	
261.1	3325.9	
261.31	2675.3	
261.52	4963.6	
261.73	5135.6	
261.95	3487	
262.16	3071.3	
262.37	4943.8	
262.58	4986.8	
262.79	3471.3	
263	2808.4	
263.21	4639.3	
263.42	4385.4	
263.63	3054.9	
263.84	2815.3	
264.05	4811.4	
264.26	5048.9	
264.47	3370.3	
264.69	3054.9	
264.9	5057.1	
265.11	4624.3	
265.32	2742.2	
265.53	2810.5	
265.74	4565.6	
265.95	4047.5	
266.16	2977.1	
266.37	3191.4	
266.58	4589.5	
266.79	4304.1	
267	2760	
267.21	2630.3	
267.42	4186.7	
267.63	4498	
267.84	2905.4	
268.06	2624.1	
268.27	4796.3	
268.48	4903.5	
268.69	2867.8	
268.9	3242.6	
269.11	4898.7	
269.32	4087.1	
269.53	2873.3	
269.74	2753.8	
269.95	4668.7	
270.16	4077.5	
270.37	2939.5	
270.58	3328.6	
270.79	4402.5	
271	4797.7	
271.21	3041.2	
271.42	2946.3	
271.63	4614.8	
271.84	4208.6	
272.05	2486.9	
272.26	2665.8	
272.47	4511	
272.68	4608.6	
272.89	2915.6	
273.11	3153.9	
273.32	4336.2	
273.53	5015.5	
273.74	3067.9	
273.95	3004.4	
274.16	4755.4	
274.37	4459.8	
274.58	3158	
274.79	2610.5	
275	4647.5	
275.21	4880.3	
275.42	3771.7	
275.63	3132	
275.84	4711.7	
276.05	5595.7	
276.26	3029.6	
276.47	2890.4	
276.68	4478.2	
276.89	5139.7	
277.1	3218.7	
277.31	2587.3	
277.52	4663.2	
277.73	4915.8	
277.94	2551.1	
278.15	2874.7	
278.36	4647.5	
278.57	4242	
278.78	2833	
278.99	3117.7	
279.2	4366.3	
279.41	4248.2	
279.62	3627	
279.83	2674	
280.04	5266.7	
280.25	4186	
280.46	3540.3	
280.67	2979.1	
280.88	4271.4	
281.09	4924	
281.3	3018.7	
281.51	3654.3	
281.72	4283	
281.93	4792.9	
282.14	2777.7	
282.35	3009.8	
282.56	4874.2	
282.77	4749.2	
282.98	2869.2	
283.19	3386.7	
283.4	5667.4	
283.61	4445.5	
283.82	2674.6	
284.03	3480.9	
284.24	4622.3	
284.45	4863.2	
284.66	3534.8	
284.87	3276.1	
285.08	4918.5	
285.29	5003.2	
285.5	2537.4	
285.71	2813.9	
285.92	4852.3	
286.12	5315.8	
286.33	3424.9	
286.54	2847.4	
286.75	4784.7	
286.96	4410	
287.17	2706	
287.38	3320.4	
287.59	4308.2	
287.8	4334.2	
288.01	2861	
288.22	3194.8	
288.43	4713.7	
288.64	4104.8	
288.85	3313.6	
289.06	3119.7	
289.27	4816.8	
289.48	5050.3	
289.69	3510.9	
289.9	3252.2	
290.11	4913.8	
290.32	4341	
290.53	3336.8	
290.74	3090.4	
290.94	4789.5	
291.15	4789.5	
291.36	2827.6	
291.57	3219.4	
291.78	4392.9	
291.99	4103.4	
292.2	2737.5	
292.41	3140.2	
292.62	4878.9	
292.83	4719.9	
293.04	3764.8	
293.25	2745	
293.46	4429.8	
293.67	4857.1	
293.88	2717	
294.09	2713.6	
294.29	4274.8	
294.5	4517.1	
294.71	2904.7	
294.92	2825.5	
295.13	4414.7	
295.34	5269.4	
295.55	2521	
295.76	2523.1	
295.97	4733.5	
296.18	5148.6	
296.39	2615.3	
296.6	2706.7	
296.81	4489.8	
297.01	4758.1	
297.22	2909.5	
297.43	2742.9	
297.64	4322.6	
297.85	4209.9	
298.06	2415.9	
298.27	2563.4	
298.48	4483.7	
298.69	4271.4	
298.9	2950.4	
299.11	2704.7	
299.31	4210.6	
299.52	4239.3	
299.73	3188	
299.94	3074	
300.15	4509.6	
300.36	4276.8	
300.57	3043.3	
300.78	2975	
300.99	4407.2	
301.2	4569	
301.4	2789.3	
301.61	2955.9	
301.82	4663.9	
302.03	4843.4	
302.24	3248.8	
302.45	2669.9	
302.66	4681.7	
302.87	4878.9	
303.08	2804.4	
303.29	3611.3	
303.49	4418.2	
303.7	4437.3	
303.91	2514.2	
304.12	3445.4	
304.33	4169.7	
304.54	4625	
304.75	2819.4	
304.96	2678.1	
305.16	4727.4	
305.37	5135.6	
305.58	2517	
305.79	2527.9	
306	4735.6	
306.21	4107.5	
306.42	2750.4	
306.63	3944.4	
306.83	4349.2	
307.04	4736.3	
307.25	2962.7	
307.46	2989.4	
307.67	4057	
307.88	4690.5	
308.09	2739.5	
308.29	2755.9	
308.5	4513.7	
308.71	4827.7	
308.92	2947.7	
309.13	2717	
309.34	4498	
309.55	4423.6	
309.75	3416.7	
309.96	3091.1	
310.17	4739.7	
310.38	4300.1	
310.59	3231.7	
310.8	2656.2	
311.01	4380.6	
311.21	4471.4	
311.42	2724.5	
311.63	2759.3	
311.84	4354	
312.05	4500.8	
312.26	3016	
312.46	3286.3	
312.67	4363.5	
312.88	4235.9	
313.09	2657.6	
313.3	2626.9	
313.51	5023	
313.71	5216.2	
313.92	2722.4	
314.13	2808.4	
314.34	4698	
314.55	4488.5	
314.76	3243.3	
314.96	2915.6	
315.17	4629.1	
315.38	4674.1	
315.59	2755.2	
315.8	2632.3	
316.01	4925.4	
316.21	5065.3	
316.42	2636.4	
316.63	2952.5	
316.84	4384.7	
317.05	4906.9	
317.26	3149.8	
317.46	2832.3	
317.67	4485.1	
317.88	4741	
318.09	3290.4	
318.3	2570.9	
318.5	4358.1	
318.71	4593.6	
318.92	4056.3	
319.13	3097.2	
319.34	4854.4	
319.54	4874.2	
319.75	2553.8	
319.96	2440.5	
320.17	4717.8	
320.38	4875.5	
320.58	2527.2	
320.79	2914.3	
321	4865.3	
321.21	4976.6	
321.42	2966.1	
321.62	2472.6	
321.83	4313.7	
322.04	4491.9	
322.25	2846	
322.46	2715.6	
322.66	4539	
322.87	4745.1	
323.08	3195.5	
323.29	2611.8	
323.5	5170.4	
323.7	4173.1	
323.91	3454.2	
324.12	3155.2	
324.33	4595.6	
324.53	4732.9	
324.74	3076	
324.95	3189.4	
325.16	4119.8	
325.37	4348.5	
325.57	2646.7	
325.78	2729.3	
325.99	4640	
326.2	4130.8	
326.4	3616.7	
326.61	2537.4	
326.82	4430.4	
327.03	4555.4	
327.24	3638.6	
327.44	3383.9	
327.65	4702.1	
327.86	3968.3	
328.07	3037.1	
328.27	2658.3	
328.48	4925.4	
328.69	4201.1	
328.9	3644.7	
329.1	2811.9	
329.31	4482.3	
329.52	4988.2	
329.73	2682.2	
329.93	2900.6	
330.14	4567.7	
330.35	4621.6	
330.56	4132.8	
330.76	3272.7	
330.97	4366.3	
331.18	4563.6	
331.39	3027.6	
331.59	2493.1	
331.8	4891.2	
332.01	4983.4	
332.22	2770.2	
332.42	3043.3	
332.63	4576.5	
332.84	4258.4	
333.05	3002.3	
333.25	2755.9	
333.46	4348.5	
333.67	4484.4	
333.88	2841.2	
334.08	3045.3	
334.29	5615.5	
334.5	4805.2	
334.7	2652.8	
334.91	3586	
335.12	4175.8	
335.33	4695.3	
335.53	3031	
335.74	4079.6	
335.95	4419.5	
336.16	4222.2	
336.36	2970.2	
336.57	3312.9	
336.78	4166.9	
336.98	4820.2	
337.19	3502	
337.4	2850.1	
337.61	5292	
337.81	4187.4	
338.02	2779.8	
338.23	3343	
338.43	4982	
338.64	4302.8	
338.85	2723.1	
339.05	3429.7	
339.26	5063.9	
339.47	4145.8	
339.68	2678.1	
339.88	3732.8	
340.09	4711	
340.3	4812	
340.5	3073.3	
340.71	2547.7	
340.92	4142.4	
341.13	4885.1	
341.33	2578.4	
341.54	3127.2	
341.75	4665.3	
341.95	4393.6	
342.16	3001.6	
342.37	3168.9	
342.57	4183.3	
342.78	4430.4	
342.99	3272.7	
343.19	2512.2	
343.4	4758.8	
343.61	4627.7	
343.81	2863.1	
344.02	2651.4	
344.23	4769	
344.43	4954	
344.64	3272.7	
344.85	3158.7	
345.06	4666.6	
345.26	4868	
345.47	3074	
345.68	3484.3	
345.88	4134.8	
346.09	4825	
346.3	3078.1	
346.5	2440.5	
346.71	4427	
346.92	4261.1	
347.12	2592.7	
347.33	3034.4	
347.54	4823.6	
347.74	5050.3	
347.95	2953.9	
348.16	2424.1	
348.36	4349.2	
348.57	4162.8	
348.78	3108.8	
348.98	3149.8	
349.19	4487.1	
349.39	4055.7	
349.6	2557.9	
349.81	2808.4	
350.01	4702.8	
350.22	4299.4	
350.43	2988.7	
350.63	3475.4	
350.84	4477.5	
351.05	4315.1	
351.25	2717	
351.46	2523.8	
351.67	4819.6	
351.87	4244.8	
352.08	2789.3	
352.29	3155.2	
352.49	4798.4	
352.7	4516.5	
352.9	2632.3	
353.11	3197.6	
353.32	5108.3	
353.52	4354	
353.73	2685.6	
353.94	3254.2	
354.14	4657.1	
354.35	4462.5	
354.55	2717.7	
354.76	2919.7	
354.97	4543.8	
355.17	4394.3	
355.38	2627.5	
355.59	3308.8	
355.79	4246.8	
356	4455	
356.2	2923.8	
356.41	2655.5	
356.62	4148.5	
356.82	4342.4	
357.03	3140.9	
357.24	2796.2	
357.44	4231.8	
357.65	4307.6	
357.85	3604.4	
358.06	2969.6	
358.27	4119.8	
358.47	4162.2	
358.68	2540.2	
358.88	3074.7	
359.09	4559.5	
359.3	4760.8	
359.5	3543.7	
359.71	3158	
359.91	5033.2	
360.12	4552.6	
360.33	3052.8	
360.53	3356.6	
360.74	4294.6	
360.94	4261.1	
361.15	3197.6	
361.36	2695.8	
361.56	4796.3	
361.77	4411.3	
361.97	3479.5	
362.18	2848	
362.38	4771.8	
362.59	4109.6	
362.8	2648.7	
363	2641.2	
363.21	4021.5	
363.41	4379.2	
363.62	2968.9	
363.83	3571	
364.03	4556	
364.24	5006.6	
364.44	3723.9	
364.65	3633.8	
364.85	4387.4	
365.06	4179.2	
365.27	2799.6	
365.47	2818	
365.68	4961.5	
365.88	4324.6	
366.09	3063.8	
366.29	2794.8	
366.5	4400.4	
366.71	4747.2	
366.91	3575.8	
367.12	3113.6	
367.32	5205.3	
367.53	4619.5	
367.73	3077.4	
367.94	3728.7	
368.14	4676.9	
368.35	5083.7	
368.56	3093.8	
368.76	2708.8	
368.97	4771.8	
369.17	5668.8	
369.38	2797.5	
369.58	2940.9	
369.79	4048.8	
369.99	4980.7	
370.2	3643.3	
370.4	3022.1	
370.61	4486.4	
370.82	5317.9	
371.02	2992.8	
371.23	2568.2	
371.43	4128	
371.64	4924.7	
371.84	2949.1	
372.05	3689.1	
372.25	5583.4	
372.46	4558.8	
372.66	2895.1	
372.87	2912.9	
373.07	4668.7	
373.28	5713.2	
373.48	3528.7	
373.69	3353.9	
373.9	4349.9	
374.1	4403.8	
374.31	3530	
374.51	3185.3	
374.72	4842.8	
374.92	4166.9	
375.13	3580.5	
375.33	3087	
375.54	4552.6	
375.74	4273.4	
375.95	3157.3	
376.15	3838.6	
376.36	4644.1	
376.56	4531.5	
376.77	3128.6	
376.97	3393.5	
377.18	5298.1	
377.38	4668	
377.59	3606.5	
377.79	2851.5	
378	4485.7	
378.2	4654.4	
378.41	2902.7	
378.61	2810.5	
378.82	4830.5	
379.02	4283.7	
379.23	2966.8	
379.43	3666.5	
379.64	4987.5	
379.84	4600.4	
380.05	2934.7	
380.25	2790.7	
380.46	4655	
380.66	4400.4	
380.87	3706.1	
381.07	3915	
381.28	5085.1	
381.48	4647.5	
381.69	2856.9	
381.89	2899.9	
382.1	4021.5	
382.3	4702.8	
382.51	3571.7	
382.71	4098.7	
382.91	4614.8	
383.12	5000.5	
383.32	3149.1	
383.53	3246	
383.73	4557.4	
383.94	4500.1	
384.14	3295.2	
384.35	2680.1	
384.55	4332.8	
384.76	4692.6	
384.96	3171.6	
385.17	3295.2	
385.37	4679.6	
385.58	4203.1	
385.78	3315.7	
385.98	2681.5	
386.19	4399	
386.39	4635.9	
386.6	2953.2	
386.8	3061	
387.01	4642.7	
387.21	4723.3	
387.42	3379.1	
387.62	3736.2	
387.83	4298.7	
388.03	4489.8	
388.23	3168.9	
388.44	3628.3	
388.64	4067.3	
388.85	4123.2	
389.05	3311.6	
389.26	3700	
389.46	5416.9	
389.67	4937.7	
389.87	3353.2	
390.07	3297.2	
390.28	4396.3	
390.48	4179.9	
390.69	2820.7	
390.89	3046.7	
391.1	4280.9	
391.3	4833.2	
391.5	3781.9	
391.71	4181.3	
391.91	4726.7	
392.12	5216.2	
392.32	3875.4	
392.53	3409.9	
392.73	4389.5	
392.93	4423.6	
393.14	3186.6	
393.34	3663.8	
393.55	4714.4	
393.75	4435.9	
393.95	3160.7	
394.16	3119.7	
394.36	4353.3	
394.57	4762.2	
394.77	2827.6	
394.98	3048.1	
395.18	4252.9	
395.38	4303.5	
395.59	3603.1	
395.79	2970.9	
396	4372.4	
396.2	4696	
396.4	3474	
396.61	3418.1	
396.81	4681	
397.02	4244.8	
397.22	3578.5	
397.42	3665.9	
397.63	4819.6	
397.83	4271.4	
398.04	2955.2	
398.24	3191.4	
398.44	4612	
398.65	3927.3	
398.85	2882.9	
399.05	2869.2	
399.26	4313	
399.46	5302.2	
399.67	3138.2	
399.87	2966.8	
400.07	4487.8	
400.28	4649.6	
400.48	3035.1	
400.69	3634.5	
400.89	4725.3	
401.09	5051	
401.3	2973	
401.5	3642.7	
401.7	5144.5	
401.91	5325.4	
402.11	3195.5	
402.32	3267.2	
402.52	4859.1	
402.72	4794.3	
402.93	3497.2	
403.13	2751.1	
403.33	5373.9	
403.54	4526.7	
403.74	3282.9	
403.94	3819.5	
404.15	4589.5	
404.35	5326.1	
404.56	3153.9	
404.76	4220.2	
404.96	4860.5	
405.17	4680.3	
405.37	3616	
405.57	3416.7	
405.78	4824.3	
405.98	4526.7	
406.18	3090.4	
406.39	3579.8	
406.59	4808.6	
406.79	4474.8	
407	2987.3	
407.2	3056.9	
407.4	5057.1	
407.61	4993.6	
407.81	3018.7	
408.01	4362.2	
408.22	4069.3	
408.42	5285.1	
408.62	3700	
408.83	3382.6	
409.03	4523.3	
409.23	4465.3	
409.44	3401	
409.64	3482.2	
409.84	5133.6	
410.05	5000.5	
410.25	3446	
410.45	3281.5	
410.66	4717.8	
410.86	6272.2	
411.06	3587.4	
411.27	3440.6	
411.47	6061.3	
411.67	4741	
411.88	3593.5	
412.08	3730	
412.28	5146.5	
412.49	5464	
412.69	3504.1	
412.89	3441.3	
413.09	5343.2	
413.3	5248.3	
413.5	3570.3	
413.7	3313.6	
413.91	4828.4	
414.11	5371.1	
414.31	3385.3	
414.52	3632.4	
414.72	5164.3	
414.92	5042.1	
415.12	3439.2	
415.33	3766.9	
415.53	5352.7	
415.73	5354.8	
415.94	3989.4	
416.14	3551.9	
416.34	4736.3	
416.55	4517.1	
416.75	4371	
416.95	3956	
417.15	5377.3	
417.36	5736.4	
417.56	4427	
417.76	3855	
417.97	5543.2	
418.17	5362.9	
418.37	3624.2	
418.57	3628.3	
418.78	5314.5	
418.98	5015.5	
419.18	4157.4	
419.38	4150.6	
419.59	4982.7	
419.79	4812.7	
419.99	3567.6	
420.2	3799	
420.4	5374.6	
420.6	5429.8	
420.8	3499.3	
421.01	3430.3	
421.21	5250.3	
421.41	5247.6	
421.61	3770.3	
421.82	3575.8	
422.02	4952	
422.22	5586.9	
422.42	4020.8	
422.63	3886.4	
422.83	5038	
423.03	5789.6	
423.23	3870	
423.44	3239.9	
423.64	5033.2	
423.84	4792.2	
424.04	3590.8	
424.25	3353.9	
424.45	5643.5	
424.65	5600.5	
424.85	3250.1	
425.06	3540.9	
425.26	5773.9	
425.46	4974.5	
425.66	3846.8	
425.87	3665.2	
426.07	5451.7	
426.27	5367	
426.47	3776.5	
426.67	3415.3	
426.88	5708.4	
427.08	5371.8	
427.28	3953.3	
427.48	3335.5	
427.69	4756.7	
427.89	5083.7	
428.09	3852.2	
428.29	3310.9	
428.5	5441.5	
428.7	5189.6	
428.9	3323.2	
429.1	3622.9	
429.3	5267.4	
429.51	5395	
429.71	3561.4	
429.91	3929.4	
430.11	5403.2	
430.31	5626.5	
430.52	3677.5	
430.72	3817.4	
430.92	5681.7	
431.12	5325.4	
431.32	3364.8	
431.53	3745.1	
431.73	4702.1	
431.93	5722	
432.13	3446.7	
432.33	3357.3	
432.54	5040.7	
432.74	5133.6	
432.94	3280.8	
433.14	3992.9	
433.34	5474.9	
433.55	5156.8	
433.75	3902.7	
433.95	5036	
434.15	5157.5	
434.35	4946.5	
434.56	3515.7	
434.76	3123.2	
434.96	5184.8	
435.16	5365.7	
435.36	3334.8	
435.56	4133.5	
435.77	4987.5	
435.97	5081	
436.17	4497.3	
436.37	4014	
436.57	4915.8	
436.78	4923.3	
436.98	5131.5	
437.18	4463.2	
437.38	5313.8	
437.58	5046.9	
437.78	4510.3	
437.99	3663.8	
438.19	5416.9	
438.39	5955.5	
438.59	3667.2	
438.79	3350.5	
438.99	5840.1	
439.2	5039.4	
439.4	3356.6	
439.6	3345	
439.8	5238.7	
440	5919.3	
440.2	3997.6	
440.4	4026.3	
440.61	5538.4	
440.81	5813.5	
441.01	3444.7	
441.21	3998.3	
441.41	5802.6	
441.61	5506.3	
441.81	4198.3	
442.02	4792.2	
442.22	6068.8	
442.42	5567.7	
442.62	3493.8	
442.82	3637.9	
443.02	5941.8	
443.22	5225.7	
443.43	3880.2	
443.63	3510.2	
443.83	5218.2	
444.03	5144.5	
444.23	4246.1	
444.43	4051.6	
444.63	5395.7	
444.83	6069.5	
445.04	3680.9	
445.24	4406.5	
445.44	5576.6	
445.64	5603.2	
445.84	4132.1	
446.04	4095.9	
446.24	5225.7	
446.44	5810.1	
446.65	3624.2	
446.85	3830.4	
447.05	5226.4	
447.25	5728.9	
447.45	3915.7	
447.65	3479.5	
447.85	5496.7	
448.05	5135.6	
448.25	4158.7	
448.46	3995.6	
448.66	5374.6	
448.86	5213.4	
449.06	3494.5	
449.26	4143	
449.46	5586.2	
449.66	5091.3	
449.86	3831.1	
450.06	3757.3	
450.26	5137	
450.47	5494	
450.67	4059.8	
450.87	4145.8	
451.07	5711.1	
451.27	5356.8	
451.47	3577.1	
451.67	4139.6	
451.87	5191.6	
452.07	5937.1	
452.27	3723.2	
452.47	3686.3	
452.67	5442.8	
452.88	5650.3	
453.08	3406.5	
453.28	4585.4	
453.48	6221	
453.68	5437.4	
453.88	3682.9	
454.08	3728.7	
454.28	5621	
454.48	5418.2	
454.68	4186	
454.88	4408.6	
455.08	5826.5	
455.28	5438	
455.48	3621.5	
455.68	4008.6	
455.89	6038.1	
456.09	5774.6	
456.29	3790.1	
456.49	3882.3	
456.69	5960.3	
456.89	5350	
457.09	4156.7	
457.29	4373.8	
457.49	5653.1	
457.69	5655.8	
457.89	4066.6	
458.09	3654.9	
458.29	5527.5	
458.49	5945.9	
458.69	4328	
458.89	3917.8	
459.09	6055.2	
459.29	6169.8	
459.49	3988.8	
459.69	4466.6	
459.9	5848.3	
460.1	5504.3	
460.3	3908.2	
460.5	3762.1	
460.7	5885.9	
460.9	5514.5	
461.1	3593.5	
461.3	4359.4	
461.5	6150.1	
461.7	5877.7	
461.9	3865.9	
462.1	4088.4	
462.3	5712.5	
462.5	5925.5	
462.7	3892.5	
462.9	3899.3	
463.1	6641.6	
463.3	6350.8	
463.5	4095.9	
463.7	4601.8	
463.9	5826.5	
464.1	6007.4	
464.3	4184	
464.5	4351.9	
464.7	6070.9	
464.9	5923.4	
465.1	5100.1	
465.3	4562.2	
465.5	6371.2	
465.7	6417	
465.9	4718.5	
466.1	4556.7	
466.3	6147.3	
466.5	6078.4	
466.7	5093.3	
466.9	4358.8	
467.1	6216.3	
467.3	6677.1	
467.5	5038.7	
467.7	4383.3	
467.9	6851.8	
468.1	7310.6	
468.3	4906.9	
468.5	5154.7	
468.7	6105	
468.9	5982.8	
469.1	4598.4	
469.3	5012.1	
469.5	7371.3	
469.7	5803.9	
469.9	4955.4	
470.1	4403.8	
470.3	6185.5	
470.5	6225.8	
470.7	5198.4	
470.9	4527.4	
471.1	5921.4	
471.3	6270.2	
471.5	4392.9	
471.69	5533.6	
471.89	5980.8	
472.09	5540.4	
472.29	4761.5	
472.49	5122.7	
472.69	5739.8	
472.89	6251.8	
473.09	4341.7	
473.29	4498.7	
473.49	5896.8	
473.69	5915.9	
473.89	5036	
474.09	4504.2	
474.29	6748.1	
474.49	6481.8	
474.69	4973.2	
474.89	4589.5	
475.09	5998.5	
475.29	5926.8	
475.49	4298	
475.69	4338.3	
475.88	6984.9	
476.08	6228.6	
476.28	4201.1	
476.48	4397.7	
476.68	6582.2	
476.88	6303	
477.08	4476.9	
477.28	4557.4	
477.48	6111.1	
477.68	6344.6	
477.88	4260.5	
478.08	4458.4	
478.28	6636.8	
478.48	6095.4	
478.67	4552.6	
478.87	4153.3	
479.07	6499.6	
479.27	6169.2	
479.47	4665.3	
479.67	4666.6	
479.87	6410.1	
480.07	6764.4	
480.27	4202.4	
480.47	5173.9	
480.67	6217.6	
480.87	6606.7	
481.06	4394.3	
481.26	4965	
481.46	6268.1	
481.66	6059.9	
481.86	4796.3	
482.06	5199.1	
482.26	5995.8	
482.46	6673	
482.66	4564.9	
482.86	4355.3	
483.05	6305.7	
483.25	5764.3	
483.45	6279.1	
483.65	4585.4	
483.85	5917.3	
484.05	6098.9	
484.25	4990.9	
484.45	5113.1	
484.65	6591.7	
484.84	6681.2	
485.04	4573.1	
485.24	4588.1	
485.44	6838.2	
485.64	5793	
485.84	4195.6	
486.04	4953.4	
486.24	6073.6	
486.44	6189.6	
486.63	4115.1	
486.83	4624.3	
487.03	6035.4	
487.23	6130.9	
487.43	4245.4	
487.63	5590.3	
487.83	6133.7	
488.02	6605.4	
488.22	4781.3	
488.42	5224.4	
488.62	6734.4	
488.82	5958.9	
489.02	4647.5	
489.22	4543.8	
489.41	6563.1	
489.61	6424.5	
489.81	4422.2	
490.01	4450.9	
490.21	6627.2	
490.41	7055.9	
490.61	4455.7	
490.8	4458.4	
491	6303	
491.2	5910.4	
491.4	4906.9	
491.6	4358.1	
491.8	6376.7	
491.99	6307.1	
492.19	4244.1	
492.39	4364.9	
492.59	6526.2	
492.79	6688	
492.99	5009.3	
493.18	4446.8	
493.38	6756.2	
493.58	7089.4	
493.78	4779.3	
493.98	4616.1	
494.18	6509.8	
494.37	6101.6	
494.57	5057.8	
494.77	4908.3	
494.97	6554.9	
495.17	6765.8	
495.37	4715.8	
495.56	4927.4	
495.76	6847	
495.96	6688	
496.16	5567.1	
496.36	4841.4	
496.55	6888	
496.75	6343.9	
496.95	4975.2	
497.15	4970.4	
497.35	6876.4	
497.54	6789.7	
497.74	4874.2	
497.94	5976.7	
498.14	7263.5	
498.34	7041.6	
498.53	4608.6	
498.73	5119.2	
498.93	6335	
499.13	6689.3	
499.33	5104.9	
499.52	5285.1	
499.72	6850.5	
499.92	6879.8	
500.12	4825	
500.32	5010	
500.51	6955.6	
500.71	6802	
500.91	5513.1	
501.11	5326.1	
501.31	6955.6	
501.5	7192.5	
501.7	5784.1	
501.9	5101.5	
502.1	6826.6	
502.29	7014.3	
502.49	5347.9	
502.69	5607.3	
502.89	6962.4	
503.09	6880.5	
503.28	4825.7	
503.48	4897.4	
503.68	6626.5	
503.88	6469.5	
504.07	5449.6	
504.27	5171.8	
504.47	6711.2	
504.67	6839.5	
504.86	5479	
505.06	5188.2	
505.26	6627.2	
505.46	7624.6	
505.65	5173.9	
505.85	5337	
506.05	6571.2	
506.25	6842.3	
506.44	4820.2	
506.64	5332.2	
506.84	6502.3	
507.04	6969.9	
507.23	4931.5	
507.43	5276.3	
507.63	7728.4	
507.83	6576	
508.02	5281.7	
508.22	4952	
508.42	7901.1	
508.62	6429.3	
508.81	5188.9	
509.01	5466.7	
509.21	6350.1	
509.4	6661.4	
509.6	5341.1	
509.8	4900.8	
510	6610.8	
510.19	7374.7	
510.39	4838.7	
510.59	4997.7	
510.79	6525.5	
510.98	7312.6	
511.18	5027.1	
511.38	5053.7	
511.57	7172	
511.77	6776.7	
511.97	5509.7	
512.17	4931.5	
512.36	7071	
512.56	6919.4	
512.76	4915.8	
512.95	4743.1	
513.15	7206.8	
513.35	6098.2	
513.55	5510.4	
513.74	4985.4	
513.94	7111.2	
514.14	6678.4	
514.33	5636.7	
514.53	5366.4	
514.73	6676.4	
514.92	6743.3	
515.12	5079	
515.32	4912.4	
515.51	6908.5	
515.71	7058	
515.91	6068.8	
516.11	4982	
516.3	7875.8	
516.5	6642.2	
516.7	5375.9	
516.89	5723.4	
517.09	6760.3	
517.29	6681.8	
517.48	5530.2	
517.68	5236	
517.88	6515.3	
518.07	6989	
518.27	5626.5	
518.47	4990.2	
518.66	7290.8	
518.86	6511.2	
519.06	4893.3	
519.25	5165	
519.45	6714.6	
519.65	7680.6	
519.84	5582.8	
520.04	6077	
520.24	7948.2	
520.43	7129.7	
520.63	5511.1	
520.83	5281	
521.02	6750.8	
521.22	7119.4	
521.42	5631.2	
521.61	5950.7	
521.81	6837.5	
522.01	7027.3	
522.2	5536.3	
522.4	5423.7	
522.6	7281.9	
522.79	6475	
522.99	5463.3	
523.18	5068.7	
523.38	7176.1	
523.58	7110.5	
523.77	6228.6	
523.97	5041.4	
524.17	8271.1	
524.36	7804.8	
524.56	6022.4	
524.76	5715.2	
524.95	7137.2	
525.15	6974.7	
525.34	5618.9	
525.54	5685.8	
525.74	7476.5	
525.93	6778.8	
526.13	6460.7	
526.33	5620.3	
526.52	7771.4	
526.72	7393.8	
526.91	6543.9	
527.11	6032.6	
527.31	7724.9	
527.5	7975.5	
527.7	6049.7	
527.89	5438	
528.09	7193.8	
528.29	7419.1	
528.48	6340.5	
528.68	6044.9	
528.87	7776.1	
529.07	7767.9	
529.27	6102.9	
529.46	5799.8	
529.66	7706.5	
529.85	7801.4	
530.05	5732.3	
530.25	6221	
530.44	8517.5	
530.64	7548.1	
530.83	5997.8	
531.03	6182.1	
531.23	7982.3	
531.42	7806.2	
531.62	6612.2	
531.81	6164.4	
532.01	7995.3	
532.21	8198	
532.4	6036.7	
532.6	6208.8	
532.79	8645.2	
532.99	8088.1	
533.18	6294.8	
533.38	6972	
533.58	7838.9	
533.77	8314.1	
533.97	6371.9	
534.16	6829.3	
534.36	8493.6	
534.55	7854	
534.75	7004.7	
534.95	6442.9	
535.14	8474.5	
535.34	7866.9	
535.53	6262.7	
535.73	7340.6	
535.92	8852	
536.12	7972.1	
536.31	6324.8	
536.51	7066.9	
536.71	8383.7	
536.9	7965.9	
537.1	6440.9	
537.29	6569.2	
537.49	8495.7	
537.68	7893.6	
537.88	6771.9	
538.07	6270.2	
538.27	8082	
538.46	8741.4	
538.66	6223.1	
538.86	6562.4	
539.05	8176.9	
539.25	8439.7	
539.44	6818.4	
539.64	6496.8	
539.83	8129.1	
540.03	8686.8	
540.22	6430.6	
540.42	6516.6	
540.61	8255.4	
540.81	8362.5	
541	6795.8	
541.2	7187	
541.39	7946.8	
541.59	8102.4	
541.78	7005.4	
541.98	6395.8	
542.18	7745.4	
542.37	7671	
542.57	6624.5	
542.76	6941.9	
542.96	7856.7	
543.15	8137.3	
543.35	6694.1	
543.54	6236.1	
543.74	8228.1	
543.93	8011	
544.13	6584.9	
544.32	7330.4	
544.52	8387.8	
544.71	7847.8	
544.91	6069.5	
545.1	6778.1	
545.3	7979.6	
545.49	8190.5	
545.69	6013.5	
545.88	6464.8	
546.08	8948.9	
546.27	8566	
546.47	6724.8	
546.66	6323.4	
546.86	8424	
547.05	8628.1	
547.24	6415.6	
547.44	6298.2	
547.63	7772	
547.83	8422.6	
548.02	6599.9	
548.22	6593.8	
548.41	7617.8	
548.61	8436.9	
548.8	6319.3	
549	6278.4	
549.19	8090.2	
549.39	8300.4	
549.58	6068.1	
549.78	6481.1	
549.97	8297.7	
550.17	8011	
550.36	7050.5	
550.55	7671	
550.75	7939.3	
550.94	8568	
551.14	6249.7	
551.33	6441.5	
551.53	7570.7	
551.72	8168	
551.92	6429.3	
552.11	6384.9	
552.31	8340.7	
552.5	8150.2	
552.69	7460.8	
552.89	6133.7	
553.08	8208.3	
553.28	8006.9	
553.47	6343.2	
553.67	7055.3	
553.86	8574.8	
554.06	7514	
554.25	5862.7	
554.44	6189.6	
554.64	9054.1	
554.83	8725.7	
555.03	6199.9	
555.22	6451.8	
555.42	8372.1	
555.61	8115.4	
555.8	6240.8	
556	6468.2	
556.19	7621.9	
556.39	8212.4	
556.58	6374	
556.78	6449.7	
556.97	8114.1	
557.16	7961.8	
557.36	7135.8	
557.55	6159.6	
557.75	7451.9	
557.94	8585.8	
558.13	6117.3	
558.33	5986.9	
558.52	8457.4	
558.72	7593.2	
558.91	6100.9	
559.1	6200.6	
559.3	7432.8	
559.49	7372	
559.69	5964.4	
559.88	6458.6	
560.07	7994.6	
560.27	8313.4	
560.46	6578.1	
560.66	6646.3	
560.85	7851.9	
561.04	7355.6	
561.24	6053.8	
561.43	6084.5	
561.63	7436.9	
561.82	7638.2	
562.01	6892.8	
562.21	6367.8	
562.4	7921.5	
562.59	8364.6	
562.79	6214.2	
562.98	6012.2	
563.18	7860.1	
563.37	8762.6	
563.56	6492.7	
563.76	6004	
563.95	7613	
564.14	7529	
564.34	6323.4	
564.53	6075	
564.73	7982.3	
564.92	7974.8	
565.11	6403.3	
565.31	5898.8	
565.5	8318.2	
565.69	7477.1	
565.89	6076.3	
566.08	6220.4	
566.27	8150.2	
566.47	8422.6	
566.66	6709.8	
566.85	5839.4	
567.05	8014.4	
567.24	7593.9	
567.44	5946.6	
567.63	6838.9	
567.82	8142.7	
568.02	7787.1	
568.21	6014.9	
568.4	6266.1	
568.6	7812.3	
568.79	7740.6	
568.98	5972.6	
569.18	6081.8	
569.37	7729.7	
569.56	9090.3	
569.76	6278.4	
569.95	6855.2	
570.14	8050.6	
570.34	7899.7	
570.53	5946.6	
570.72	5832.6	
570.91	8357.8	
571.11	7807.5	
571.3	6232.7	
571.49	6838.2	
571.69	7817.1	
571.88	7387	
572.07	6522.1	
572.27	6565.8	
572.46	7460.8	
572.65	8122.2	
572.85	6068.1	
573.04	6251.1	
573.23	8201.4	
573.43	7854	
573.62	5971.9	
573.81	6341.9	
574	7923.6	
574.2	7651.9	
574.39	6124.1	
574.58	6249	
574.78	8310	
574.97	7912.7	
575.16	6449.1	
575.36	6515.3	
575.55	8218.5	
575.74	8153.6	
575.93	5883.8	
576.13	6624.5	
576.32	7683.3	
576.51	8157.1	
576.71	6222.4	
576.9	7027.9	
577.09	8354.3	
577.28	8015.7	
577.48	6436.1	
577.67	5824.4	
577.86	7845.8	
578.05	8000	
578.25	6261.3	
578.44	6271.6	
578.63	7776.8	
578.83	8634.2	
579.02	5956.9	
579.21	6892.8	
579.4	7878.5	
579.6	7739.3	
579.79	6394.4	
579.98	7757.7	
580.17	8217.1	
580.37	8299.7	
580.56	5954.1	
580.75	6521.4	
580.94	8320.9	
581.14	8511.4	
581.33	6754.9	
581.52	6124.8	
581.71	8066.9	
581.91	8456.7	
582.1	6004	
582.29	6210.8	
582.48	7838.3	
582.68	7787.7	
582.87	6587	
583.06	6311.8	
583.25	8134.5	
583.45	7619.1	
583.64	6739.9	
583.83	7174.7	
584.02	7847.1	
584.21	8032.1	
584.41	6702.3	
584.6	6345.3	
584.79	7887.4	
584.98	8231.5	
585.18	5975.3	
585.37	5919.3	
585.56	7632.1	
585.75	8121.6	
585.94	6115.2	
586.14	6548.7	
586.33	8493.6	
586.52	7780.2	
586.71	6389	
586.91	6200.6	
587.1	7426.6	
587.29	8183	
587.48	6139.8	
587.67	6053.1	
587.87	8002.1	
588.06	7856.7	
588.25	6954.2	
588.44	6465.4	
588.63	7763.2	
588.83	8049.9	
589.02	6178.7	
589.21	6006	
589.4	7726.3	
589.59	7584.3	
589.78	5524.7	
589.98	5789.6	
590.17	7191.8	
590.36	7498.3	
590.55	5295.4	
590.74	5803.3	
590.94	8261.5	
591.13	7357	
591.32	5639.4	
591.51	5380.7	
591.7	7633.5	
591.89	7315.3	
592.09	5418.9	
592.28	5686.5	
592.47	6795.8	
592.66	8130.4	
592.85	5401.9	
593.05	5541.1	
593.24	7295.5	
593.43	7899	
593.62	5643.5	
593.81	5976.7	
594	7389.8	
594.19	7471	
594.39	5549.3	
594.58	5470.8	
594.77	7525.6	
594.96	7888.1	
595.15	5516.5	
595.34	5935.7	
595.54	7424.6	
595.73	6916.7	
595.92	5083.7	
596.11	5724.8	
596.3	7779.6	
596.49	7063.4	
596.68	5640.8	
596.88	5792.3	
597.07	7527	
597.26	6806.1	
597.45	5380	
597.64	6118	
597.83	7032.7	
598.02	7492.2	
598.22	5389.6	
598.41	5796.4	
598.6	7293.5	
598.79	6918.7	
598.98	5449	
599.17	5995.8	
599.36	7378.8	
599.55	7970	
599.74	6599.2	
599.94	6455.9	
600.13	7602.7	
600.32	7003.4	
600.51	5268.1	
600.7	5335	
600.89	8071	
601.08	8197.3	
601.27	5285.1	
601.47	5795.8	
601.66	7604.1	
601.85	7935.9	
602.04	5610.1	
602.23	5696.1	
602.42	7022.5	
602.61	7368.6	
602.8	5558.9	
602.99	5483.8	
603.18	7165.8	
603.37	7279.2	
603.57	5778	
603.76	6189	
603.95	7788.4	
604.14	7415.7	
604.33	5433.3	
604.52	5604.6	
604.71	7427.3	
604.9	7032	
605.09	6068.8	
605.28	5946.6	
605.47	7735.2	
605.66	7379.5	
605.86	5819	
606.05	5510.4	
606.24	7696.9	
606.43	6657.3	
606.62	5726.8	
606.81	6100.2	
607	7589.8	
607.19	7058.7	
607.38	5292.6	
607.57	5475.6	
607.76	7003.4	
607.95	6591	
608.14	5735.7	
608.33	6059.3	
608.52	6976.7	
608.72	7526.3	
608.91	5284.4	
609.1	5096.7	
609.29	7043.6	
609.48	6713.9	
609.67	5729.5	
609.86	5168.4	
610.05	6851.1	
610.24	6922.8	
610.43	5078.3	
610.62	4889.2	
610.81	7720.8	
611	7574.8	
611.19	5169.8	
611.38	5619.6	
611.57	7155.6	
611.76	7888.8	
611.95	5068.7	
612.14	4980	
612.33	6982.9	
612.52	6754.9	
612.71	5352.7	
612.9	4939	
613.09	6500.9	
613.28	7973.4	
613.47	5256.5	
613.66	5831.9	
613.85	7200	
614.04	6749.4	
614.24	5280.3	
614.43	4754	
614.62	7174	
614.81	7109.2	
615	5619.6	
615.19	5489.2	
615.38	6652.5	
615.57	6897.6	
615.76	5511.1	
615.95	6032	
616.14	7180.2	
616.33	6967.2	
616.52	5735.7	
616.71	5652.4	
616.9	7109.9	
617.09	6943.3	
617.28	5369.8	
617.47	6068.8	
617.66	6619	
617.85	6581.5	
618.04	5835.3	
618.22	5445.5	
618.41	6840.2	
618.6	7347.4	
618.79	5429.2	
618.98	5314.5	
619.17	7576.8	
619.36	6442.9	
619.55	5384.8	
619.74	5466.7	
619.93	7096.9	
620.12	6750.1	
620.31	5758.9	
620.5	5893.4	
620.69	7475.1	
620.88	7775.5	
621.07	6318.7	
621.26	5726.1	
621.45	7179.5	
621.64	7236.8	
621.83	5834	
622.02	5365	
622.21	7292.1	
622.4	7218.4	
622.59	6174.6	
622.78	6029.9	
622.97	6895.5	
623.16	7563.1	
623.35	5725.4	
623.54	5190.9	
623.72	6940.6	
623.91	7064.8	
624.1	5945.9	
624.29	5067.4	
624.48	7770.7	
624.67	7258	
624.86	5778	
625.05	5255.8	
625.24	7941.3	
625.43	6969.9	
625.62	6903.7	
625.81	5375.9	
626	7408.2	
626.19	6999.3	
626.38	5873.6	
626.56	5547.3	
626.75	6881.2	
626.94	7422.5	
627.13	5894.7	
627.32	5107	
627.51	7468.9	
627.7	7950.9	
627.89	5240.1	
628.08	5900.9	
628.27	6832.7	
628.46	7032.7	
628.65	5322	
628.83	5128.1	
629.02	7357	
629.21	6897.6	
629.4	5601.9	
629.59	5750.7	
629.78	6851.8	
629.97	7403.4	
630.16	5707	
630.35	5435.3	
630.54	7765.9	
630.72	7623.2	
630.91	5470.8	
631.1	5772.5	
631.29	7143.3	
631.48	7230	
631.67	5908.4	
631.86	5502.2	
632.05	7129	
632.24	7039.6	
632.42	5309	
632.61	5660.6	
632.8	7040.2	
632.99	6791.1	
633.18	5709.7	
633.37	5926.8	
633.56	7202	
633.75	7135.8	
633.93	5708.4	
634.12	5484.5	
634.31	7750.2	
634.5	7421.8	
634.69	5544.5	
634.88	5899.5	
635.07	7048.4	
635.25	7430.7	
635.44	6167.8	
635.63	6249	
635.82	6939.2	
636.01	6442.2	
636.2	6059.9	
636.39	5689.3	
636.57	7737.9	
636.76	7408.9	
636.95	5333.6	
637.14	6266.1	
637.33	7287.4	
637.52	7735.2	
637.7	5223	
637.89	5950	
638.08	7027.9	
638.27	7778.2	
638.46	5913.9	
638.65	6080.4	
638.83	7896.3	
639.02	6918	
639.21	5812.1	
639.4	6000.5	
639.59	7115.3	
639.78	6967.9	
639.96	5325.4	
640.15	5302.2	
640.34	7152.2	
640.53	7092.1	
640.72	5225.1	
640.91	5343.8	
641.09	6722.1	
641.28	7543.4	
641.47	5356.1	
641.66	5919.3	
641.85	7057.3	
642.03	7214.3	
642.22	5688.6	
642.41	5424.4	
642.6	6703.7	
642.79	6306.4	
642.97	5289.9	
643.16	5613.5	
643.35	6698.2	
643.54	6481.8	
643.73	5144.5	
643.91	5671.5	
644.1	6512.5	
644.29	6865.5	
644.48	5156.1	
644.67	5150.6	
644.85	6508.4	
645.04	6843.6	
645.23	4978.6	
645.42	5154.7	
645.6	6475.7	
645.79	7199.3	
645.98	5023.7	
646.17	4475.5	
646.36	6328.9	
646.54	6563.7	
646.73	5585.5	
646.92	4846.2	
647.11	6404.7	
647.29	7054.6	
647.48	4967.7	
647.67	4738.3	
647.86	7159	
648.05	7118.1	
648.23	5034.6	
648.42	5795.1	
648.61	6813.6	
648.8	6597.9	
648.98	4823.6	
649.17	4995	
649.36	6311.8	
649.55	6038.1	
649.73	4835.9	
649.92	5259.9	
650.11	6312.5	
650.3	6472.9	
650.48	4888.5	
650.67	4821.6	
650.86	6650.4	
651.05	5936.4	
651.23	4853	
651.42	4818.9	
651.61	6305.7	
651.79	6141.2	
651.98	5017.5	
652.17	4688.5	
652.36	6611.5	
652.54	5913.9	
652.73	4822.3	
652.92	4715.1	
653.11	6580.1	
653.29	6628.6	
653.48	4321.2	
653.67	4919.9	
653.85	6354.2	
654.04	6975.4	
654.23	5078.3	
654.42	4874.8	
654.6	6109.8	
654.79	6483.2	
654.98	4434.5	
655.16	4744.5	
655.35	5895.4	
655.54	5707	
655.73	4469.4	
655.91	4362.2	
656.1	6329.6	
656.29	5654.4	
656.47	4106.2	
656.66	5230.5	
656.85	5964.4	
657.03	5935.7	
657.22	4461.2	
657.41	4489.8	
657.59	5978	
657.78	5870.8	
657.97	4299.4	
658.16	4708.3	
658.34	6421.7	
658.53	6632	
658.72	5381.4	
658.9	5593	
659.09	6137.1	
659.28	6120.7	
659.46	4588.8	
659.65	4501.4	
659.84	5891.3	
660.02	6309.1	
660.21	4596.3	
660.4	4402.5	
660.58	6483.9	
660.77	6019.7	
660.96	4892.6	
661.14	4171.7	
661.33	6862.1	
661.52	6703	
661.7	4229.1	
661.89	6363.7	
662.08	5823.7	
662.26	5504.9	
662.45	4410.6	
662.64	4434.5	
662.82	6312.5	
663.01	5698.8	
663.2	4476.9	
663.38	4891.2	
663.57	6240.8	
663.75	6154.1	
663.94	4636.6	
664.13	5448.3	
664.31	5829.9	
664.5	6244.3	
664.69	4734.2	
664.87	5081	
665.06	5678.3	
665.25	6030.6	
665.43	5218.9	
665.62	5275.6	
665.8	6275	
665.99	5899.5	
666.18	4627.7	
666.36	4629.8	
666.55	6241.5	
666.74	6183.5	
666.92	4371.7	
667.11	5418.9	
667.29	5980.1	
667.48	6263.4	
667.67	5078.3	
667.85	4504.8	
668.04	5846.3	
668.22	5825.8	
668.41	4661.2	
668.6	4820.2	
668.78	5680.4	
668.97	5868.1	
669.15	4845.5	
669.34	4158.1	
669.53	5767.1	
669.71	5930.9	
669.9	4266.6	
670.08	4714.4	
670.27	5679	
670.46	6140.5	
670.64	4841.4	
670.83	5023	
671.01	5547.9	
671.2	5969.8	
671.38	4340.3	
671.57	4330.1	
671.76	6423.1	
671.94	6744.6	
672.13	4231.1	
672.31	4954	
672.5	6171.9	
672.69	5728.2	
672.87	4383.3	
673.06	4564.2	
673.24	6034.7	
673.43	5737.7	
673.61	4809.3	
673.8	4489.8	
673.98	6044.9	
674.17	6202.6	
674.36	4915.1	
674.54	4728.1	
674.73	5926.8	
674.91	6159.6	
675.1	4588.1	
675.28	4276.8	
675.47	5927.5	
675.65	6224.5	
675.84	4526	
676.03	4750.6	
676.21	5748	
676.4	5322.7	
676.58	5036	
676.77	4847.5	
676.95	6612.2	
677.14	5677	
677.32	4240	
677.51	4260.5	
677.69	6190.3	
677.88	5625.1	
678.06	4283.7	
678.25	4377.9	
678.44	5842.2	
678.62	5624.4	
678.81	4162.8	
678.99	4715.8	
679.18	6322.1	
679.36	6059.9	
679.55	4515.1	
679.73	4863.9	
679.92	6096.1	
680.1	5709.1	
680.29	5197.7	
680.47	4522.6	
680.66	5740.5	
680.84	6212.9	
681.03	4106.2	
681.21	4734.9	
681.4	5786.2	
681.58	5702.2	
681.77	4369.7	
681.95	4343.7	
682.14	6262	
682.32	6429.9	
682.51	4848.9	
682.69	4162.2	
682.88	5679.7	
683.06	6016.9	
683.25	4773.8	
683.43	4967	
683.62	6007.4	
683.8	6103.6	
683.99	5124	
684.17	4700.8	
684.36	6673	
684.54	5899.5	
684.73	4227.7	
684.91	4286.4	
685.1	6050.4	
685.28	5705	
685.46	4676.9	
685.65	4692.6	
685.83	6178	
686.02	5719.3	
686.2	4361.5	
686.39	4361.5	
686.57	5509	
686.76	6446.3	
686.94	4346.5	
687.13	4431.8	
687.31	6069.5	
687.5	5926.1	
687.68	4084.3	
687.86	4805.2	
688.05	6996.5	
688.23	5463.3	
688.42	4907.6	
688.6	4478.2	
688.79	5749.3	
688.97	5872.2	
689.16	4629.8	
689.34	4024.9	
689.52	6229.9	
689.71	6494.1	
689.89	4957.4	
690.08	4493.2	
690.26	6108.4	
690.45	5895.4	
690.63	5106.3	
690.81	4650.3	
691	6101.6	
691.18	5900.9	
691.37	4823.6	
691.55	6113.9	
691.74	5853.1	
691.92	7198.6	
692.1	4753.3	
692.29	4482.3	
692.47	6234.7	
692.66	5705.6	
692.84	4601.1	
693.02	4928.8	
693.21	5688.6	
693.39	6125.5	
693.58	5074.9	
693.76	4589.5	
693.94	6771.9	
694.13	6694.1	
694.31	4752	
694.5	5448.3	
694.68	6010.1	
694.86	6348.7	
695.05	4996.4	
695.23	5201.2	
695.42	6561	
695.6	8009.6	
695.78	5465.3	
695.97	4931.5	
696.15	6731.7	
696.34	6370.5	
696.52	4860.5	
696.7	5354.1	
696.89	6551.5	
697.07	6132.3	
697.25	5245.5	
697.44	6205.3	
697.62	6649.8	
697.81	6715.3	
697.99	5096	
698.17	5468.8	
698.36	6304.3	
698.54	6655.9	
698.72	5409.4	
698.91	4793.6	
699.09	6378.7	
699.28	6236.7	
699.46	5228.5	
699.64	5140.4	
699.83	6393.8	
700.01	6868.2	
700.19	5755.5	
700.38	4747.2	
700.56	7061.4	
700.74	6431.3	
700.93	4967	
701.11	5565	
701.29	6797.2	
701.48	7561.8	
701.66	5158.8	
701.84	5335.6	
702.03	6731	
702.21	7191.8	
702.39	5062.6	
702.58	5542.5	
702.76	7108.5	
702.94	7096.2	
703.13	5133.6	
703.31	6613.6	
703.49	6635.4	
703.68	7210.2	
703.86	5222.3	
704.04	5870.2	
704.23	6948.8	
704.41	7241.6	
704.59	5434.6	
704.78	6075	
704.96	8082	
705.14	7189.7	
705.33	5301.5	
705.51	5819.6	
705.69	6815.6	
705.87	7421.8	
706.06	5949.3	
706.24	5365	
706.42	7229.3	
706.61	7383.6	
706.79	6137.1	
706.97	5373.2	
707.16	6803.4	
707.34	7204.1	
707.52	6034	
707.7	5559.6	
707.89	6927.6	
708.07	6716	
708.25	6072.2	
708.44	6444.3	
708.62	6916.7	
708.8	7647.8	
708.98	6294.8	
709.17	5662.6	
709.35	7260	
709.53	7228.6	
709.72	5537	
709.9	5580	
710.08	7529.7	
710.26	7565.2	
710.45	6581.5	
710.63	5754.8	
710.81	7167.2	
710.99	7269.6	
711.18	6165.1	
711.36	5767.8	
711.54	7223.2	
711.72	7591.8	
711.91	5902.2	
712.09	5541.8	
712.27	7220.5	
712.45	7623.2	
712.64	6023.8	
712.82	5322.7	
713	6857.3	
713.18	6920.8	
713.37	5431.9	
713.55	6140.5	
713.73	7417.1	
713.91	6613.6	
714.1	5614.8	
714.28	5241.4	
714.46	7079.1	
714.64	6544.6	
714.83	4818.2	
715.01	5254.4	
715.19	6562.4	
715.37	5996.5	
715.55	4859.8	
715.74	5087.8	
715.92	6865.5	
716.1	5625.1	
716.28	5770.5	
716.47	5156.8	
716.65	6214.9	
716.83	6234	
717.01	5015.5	
717.19	5052.3	
717.38	7518.1	
717.56	6003.3	
717.74	5190.2	
717.92	4661.9	
718.1	6836.1	
718.29	6273.6	
718.47	4532.2	
718.65	4975.9	
718.83	6896.9	
719.01	6886.6	
719.2	4684.4	
719.38	5326.8	
719.56	6763.1	
719.74	7762.5	
719.92	5232.6	
720.11	5783.5	
720.29	6884.6	
720.47	6193.1	
720.65	4842.8	
720.83	5292	
721.02	6440.9	
721.2	6219.7	
721.38	5236	
721.56	4746.5	
721.74	5850.4	
721.92	5930.9	
722.11	5500.8	
722.29	5301.5	
722.47	6720.8	
722.65	6239.5	
722.83	4748.6	
723.01	5294.7	
723.2	6240.8	
723.38	6479.1	
723.56	4419.5	
723.74	5168.4	
723.92	5959.6	
724.1	6665.5	
724.29	4742.4	
724.47	5537.7	
724.65	6177.4	
724.83	5986.2	
725.01	4648.9	
725.19	5154.7	
725.37	6004.6	
725.56	6035.4	
725.74	4567.7	
725.92	4847.5	
726.1	6021.7	
726.28	6193.1	
726.46	5072.1	
726.64	4785.4	
726.83	6307.7	
727.01	6343.9	
727.19	4668.7	
727.37	5165.7	
727.55	6368.5	
727.73	6655.2	
727.91	4504.2	
728.09	4529.4	
728.28	6676.4	
728.46	6769.2	
728.64	5247.6	
728.82	5136.3	
729	7301.7	
729.18	6983.6	
729.36	4707.6	
729.54	6159.6	
729.72	7576.8	
729.91	6564.4	
730.09	6077	
730.27	5322.7	
730.45	6584.2	
730.63	6878.4	
730.81	5645.6	
730.99	5190.2	
731.17	7275.8	
731.35	6335.1	
731.53	5334.3	
731.71	5158.2	
731.9	7097.6	
732.08	7111.9	
732.26	5385.5	
732.44	5057.8	
732.62	7129	
732.8	6870.9	
732.98	5601.9	
733.16	4954.7	
733.34	6879.8	
733.52	5969.1	
733.7	5193	
733.88	5406	
734.07	6677.7	
734.25	6535.8	
734.43	4904.9	
734.61	5827.2	
734.79	7579.5	
734.97	6501.6	
735.15	4965.6	
735.33	5249.6	
735.51	6776.7	
735.69	6503.7	
735.87	5831.9	
736.05	5390.3	
736.23	6606.7	
736.41	6279.8	
736.59	5156.8	
736.77	5283.1	
736.95	6820.4	
737.13	6495.5	
737.32	4961.5	
737.5	5085.8	
737.68	7251.9	
737.86	6416.3	
738.04	4896.7	
738.22	5973.9	
738.4	6292.7	
738.58	6516	
738.76	5087.2	
738.94	4575.8	
739.12	6365.1	
739.3	6331.6	
739.48	5595.1	
739.66	5378.6	
739.84	6516.6	
740.02	6468.2	
740.2	4631.8	
740.38	4771.1	
740.56	6718.7	
740.74	5902.9	
740.92	5204.6	
741.1	5126.7	
741.28	6321.4	
741.46	6131.6	
741.64	4888.5	
741.82	5255.8	
742	6444.3	
742.18	6262	
742.36	4997.7	
742.54	4731.5	
742.72	6664.8	
742.9	5767.8	
743.08	5116.5	
743.26	4388.8	
743.44	6625.2	
743.62	6620.4	
743.8	5234.6	
743.98	4653.7	
744.16	6409.5	
744.34	6120	
744.52	5240.1	
744.7	5145.2	
744.88	6510.5	
745.06	6105.7	
745.24	5109.7	
745.42	5140.4	
745.6	6540.5	
745.78	6417.7	
745.96	4392.9	
746.14	4572.4	
746.32	6997.9	
746.5	6412.2	
746.68	4859.1	
746.86	4474.8	
747.03	6552.1	
747.21	5586.2	
747.39	4834.6	
747.57	4440	
747.75	6168.5	
747.93	6320	
748.11	4405.9	
748.29	4440.7	
748.47	7229.3	
748.65	5877.7	
748.83	5000.5	
749.01	4742.4	
749.19	6297.5	
749.37	5638.7	
749.55	4691.2	
749.73	4698.7	
749.91	6073.6	
750.09	5849	
750.26	4729.4	
750.44	4336.9	
750.62	6071.5	
750.8	5925.5	
750.98	4272.7	
751.16	4463.2	
751.34	6124.8	
751.52	5594.4	
751.7	4943.8	
751.88	4227	
752.06	6387.6	
752.24	6182.8	
752.42	4209.9	
752.59	4437.9	
752.77	5924.8	
752.95	6737.8	
753.13	4905.6	
753.31	4504.8	
753.49	5708.4	
753.67	5948	
753.85	4687.1	
754.03	4299.4	
754.21	6133.7	
754.38	6366.5	
754.56	4352.6	
754.74	3828.3	
754.92	5492	
755.1	5868.1	
755.28	3685	
755.46	3631	
755.64	6298.9	
755.82	6312.5	
755.99	3604.4	
756.17	3645.4	
756.35	4454.3	
756.53	5437.4	
756.71	2831	
756.89	3635.8	
757.07	5113.1	
757.25	4555.4	
757.42	3760.1	
757.6	4376.5	
757.78	5262.6	
757.96	4655	
758.14	3656.3	
758.32	3348.4	
758.5	4415.4	
758.67	4937.7	
758.85	3518.4	
759.03	3590.1	
759.21	5111.7	
759.39	4602.5	
759.57	3272	
759.75	3971	
759.92	5532.2	
760.1	5128.8	
760.28	4247.5	
760.46	4472.1	
760.64	4930.1	
760.82	4849.6	
760.99	4192.2	
761.17	3692.5	
761.35	5527.5	
761.53	4745.8	
761.71	3895.9	
761.89	4248.2	
762.06	5442.8	
762.24	5177.9	
762.42	3936.9	
762.6	3752.6	
762.78	5158.2	
762.96	5539.8	
763.13	4160.8	
763.31	3990.1	
763.49	5644.9	
763.67	5138.4	
763.85	4510.3	
764.02	4864.6	
764.2	5924.8	
764.38	5222.3	
764.56	3880.9	
764.74	4384.7	
764.91	5868.8	
765.09	5148.6	
765.27	3723.2	
765.45	3502.7	
765.63	5991	
765.8	5857.9	
765.98	3467.2	
766.16	3630.4	
766.34	4848.9	
766.52	4676.2	
766.69	4159.4	
766.87	3432.4	
767.05	5182.7	
767.23	5662	
767.41	3669.3	
767.58	3796.3	
767.76	5477.6	
767.94	5591	
768.12	3685	
768.29	4085	
768.47	5113.8	
768.65	5638.7	
768.83	3426.3	
769	4122.6	
769.18	4856.4	
769.36	5220.3	
769.54	4104.1	
769.72	3438.5	
769.89	5542.5	
770.07	5397.1	
770.25	3644.7	
770.43	4447.5	
770.6	5993.7	
770.78	6169.2	
770.96	3680.9	
771.14	4087.1	
771.31	5437.4	
771.49	4966.3	
771.67	3180.5	
771.85	3264.5	
772.02	4459.8	
772.2	4870.1	
772.38	3907.5	
772.55	3404.4	
772.73	5139.7	
772.91	4981.3	
773.09	3680.9	
773.26	3764.8	
773.44	5059.2	
773.62	4939.7	
773.8	3440.6	
773.97	3195.5	
774.15	5112.4	
774.33	4887.8	
774.5	3263.8	
774.68	3488.4	
774.86	5233.2	
775.04	4834.6	
775.21	3284.3	
775.39	3275.4	
775.57	5012.7	
775.74	5150.6	
775.92	3190.7	
776.1	3073.3	
776.27	4986.8	
776.45	5703.6	
776.63	3273.3	
776.81	2969.6	
776.98	4807.9	
777.16	5407.3	
777.34	3411.9	
777.51	3532.7	
777.69	4754	
777.87	4553.3	
778.04	3499.3	
778.22	3714.3	
778.4	4595	
778.57	4944.5	
778.75	2899.9	
778.93	3067.9	
779.1	4499.4	
779.28	4308.9	
779.46	2890.4	
779.64	3150.5	
779.81	5100.1	
779.99	5586.2	
780.17	3680.2	
780.34	3749.1	
780.52	4731.5	
780.69	4837.3	
780.87	3429.7	
781.05	3097.2	
781.22	4779.3	
781.4	4747.2	
781.58	3195.5	
781.75	2650.8	
781.93	4813.4	
782.11	4270.7	
782.28	3831.7	
782.46	3168.9	
782.64	4271.4	
782.81	4926.7	
782.99	3321.8	
783.17	3151.8	
783.34	4751.3	
783.52	4417.5	
783.69	3269.9	
783.87	3824.9	
784.05	4390.2	
784.22	4370.4	
784.4	3813.3	
784.58	3376.4	
784.75	5057.1	
784.93	4443.4	
785.1	3147	
785.28	3569.6	
785.46	4839.4	
785.63	4303.5	
785.81	3151.1	
785.99	3007.8	
786.16	4507.6	
786.34	4691.2	
786.51	3082.2	
786.69	3343	
786.87	4140.3	
787.04	4522.6	
787.22	2967.5	
787.39	3596.2	
787.57	4359.4	
787.75	5061.9	
787.92	3784	
788.1	3614.7	
788.27	4319.8	
788.45	4136.2	
788.63	3472.7	
788.8	2668.5	
788.98	4735.6	
789.15	4061.1	
789.33	2731.3	
789.5	3078.8	
789.68	4898.7	
789.86	4995.7	
790.03	3428.3	
790.21	3055.6	
790.38	5003.2	
790.56	4409.3	
790.73	2953.9	
790.91	2962	
791.09	4317.1	
791.26	4750.6	
791.44	3175	
791.61	2717.7	
791.79	4311.7	
791.96	4295.3	
792.14	2831.7	
792.32	2566.8	
792.49	4345.1	
792.67	4409.3	
792.84	2899.2	
793.02	2732.7	
793.19	4607.2	
793.37	5001.1	
793.54	2544.3	
793.72	2807.1	
793.89	5017.5	
794.07	4247.5	
794.25	3155.9	
794.42	2594.8	
794.6	4966.3	
794.77	4663.9	
794.95	3328.6	
795.12	2960.7	
795.3	4347.8	
795.47	4652.3	
795.65	3181.2	
795.82	3103.4	
796	4154.6	
796.17	5343.2	
796.35	3049.4	
796.52	3501.3	
796.7	4673.5	
796.87	4721.9	
797.05	3045.3	
797.22	3577.1	
797.4	4760.2	
797.57	5267.4	
797.75	3133.4	
797.92	2913.6	
798.1	4941.1	
798.27	4136.2	
798.45	2646	
798.62	2734.7	
798.8	4455.7	
798.97	4828.4	
799.15	3269.9	
799.32	3161.4	
799.5	3973.7	
799.67	4460.5	
799.85	3318.4	
800.02	2606.4	
800.2	4303.5	
800.37	4375.8	
800.55	3379.8	
800.72	2976.4	
800.9	4741	
801.07	5001.1	
801.25	3827.7	
801.42	3209.2	
801.6	4769.7	
801.77	4517.8	
801.95	3028.3	
802.12	2907.4	
802.29	4558.1	
802.47	4493.9	
802.64	3196.2	
802.82	2508.8	
802.99	4216.1	
803.17	4775.9	
803.34	3155.9	
803.52	2846	
803.69	5271.5	
803.87	4047.5	
804.04	3076.7	
804.21	3132	
804.39	4984.1	
804.56	4349.2	
804.74	2683.5	
804.91	3184.6	
805.09	4235.9	
805.26	4277.5	
805.44	2749.1	
805.61	2941.6	
805.78	4728.8	
805.96	4630.5	
806.13	3147	
806.31	3404.4	
806.48	3908.9	
806.66	4258.4	
806.83	3170.3	
807	3087	
807.18	4265.9	
807.35	4445.5	
807.53	3052.8	
807.7	2623.4	
807.87	5002.5	
808.05	4233.8	
808.22	3376.4	
808.4	2574.3	
808.57	4131.4	
808.74	4011.3	
808.92	2875.3	
809.09	3637.2	
809.27	4277.5	
809.44	4584	
809.61	2583.9	
809.79	2833	
809.96	5121.3	
810.14	4653.7	
810.31	2547	
810.48	3039.2	
810.66	4313.7	
810.83	4760.8	
811.01	2923.8	
811.18	3142.9	
811.35	4684.4	
811.53	3805.1	
811.7	3336.8	
811.87	3119.7	
812.05	4302.8	
812.22	4166.9	
812.39	2809.8	
812.57	2727.2	
812.74	4298	
812.92	5347.9	
813.09	2997.5	
813.26	3168.2	
813.44	5150.6	
813.61	4121.2	
813.78	2624.8	
813.96	3237.2	
814.13	4265.2	
814.3	4106.2	
814.48	3504.1	
814.65	2934.1	
814.82	5091.9	
815	3990.8	
815.17	3042.6	
815.34	3618.8	
815.52	4173.1	
815.69	4104.1	
815.87	2976.4	
816.04	3007.8	
816.21	4199.7	
816.38	3867.2	
816.56	2957.3	
816.73	2801.6	
816.9	5195	
817.08	4651.6	
817.25	2809.8	
817.42	3371.6	
817.6	3940.3	
817.77	4151.2	
817.94	3079.5	
818.12	2749.1	
818.29	4109.6	
818.46	5650.3	
818.64	2935.4	
818.81	2668.5	
818.98	4080.9	
819.16	5426.4	
819.33	3269.2	
819.5	3048.1	
819.67	4428.4	
819.85	4878.9	
820.02	3011.9	
820.19	3154.6	
820.37	4379.9	
820.54	4143.7	
820.71	3102	
820.88	3729.4	
821.06	4407.9	
821.23	4073.4	
821.4	3072.6	
821.58	3041.9	
821.75	4670.7	
821.92	4360.1	
822.09	2598.9	
822.27	2647.3	
822.44	4263.9	
822.61	4180.6	
822.79	2605.7	
822.96	4546.5	
823.13	4422.2	
823.3	3951.2	
823.48	2880.8	
823.65	2661.7	
823.82	4706.2	
823.99	3931.4	
824.17	3582.6	
824.34	2704	
824.51	5269.4	
824.68	4300.1	
824.86	2849.4	
825.03	3054.2	
825.2	4281.6	
825.37	4921.3	
825.55	2761.3	
825.72	3040.6	
825.89	5225.7	
826.06	4970.4	
826.24	2983.2	
826.41	2985.9	
826.58	5001.8	
826.75	4392.2	
826.92	2471.9	
827.1	2737.5	
827.27	6343.2	
827.44	5222.3	
827.61	2801.6	
827.79	3326.6	
827.96	4088.4	
828.13	4218.8	
828.3	3000.3	
828.47	2538.1	
828.65	4521.9	
828.82	4431.1	
828.99	3673.4	
829.16	3201.7	
829.34	4749.2	
829.51	4627	
829.68	3070.6	
829.85	3018	
830.02	5051.7	
830.2	4741	
830.37	2426.2	
830.54	3485	
830.71	5164.3	
830.88	4266.6	
831.05	2426.8	
831.23	2764.8	
831.4	5103.5	
831.57	5472.2	
831.74	2826.2	
831.91	2554.5	
832.09	4574.5	
832.26	4690.5	
832.43	2915.6	
832.6	3170.3	
832.77	4493.2	
832.94	4988.9	
833.12	2404.3	
833.29	2897.2	
833.46	4212	
833.63	5582.1	
833.8	3077.4	
833.97	2876	
834.15	4763.6	
834.32	4562.2	
834.49	3035.8	
834.66	3002.3	
834.83	4798.4	
835	4132.8	
835.17	2807.1	
835.35	2772.9	
835.52	4691.9	
835.69	4558.8	
835.86	2930	
836.03	2492.4	
836.2	4690.5	
836.37	4429.1	
836.55	2825.5	
836.72	2741.5	
836.89	4457.7	
837.06	4776.5	
837.23	2966.1	
837.4	3112.9	
837.57	5244.2	
837.75	5557.5	
837.92	2689.7	
838.09	2821.4	
838.26	4454.3	
838.43	4831.2	
838.6	3046.7	
838.77	2717.7	
838.94	5375.9	
839.11	5287.9	
839.29	2923.8	
839.46	2379.7	
839.63	4800.4	
839.8	4475.5	
839.97	2792.1	
840.14	2803	
840.31	4626.4	
840.48	4721.3	
840.65	2462.3	
840.82	2762.7	
841	4730.1	
841.17	4584	
841.34	2608.4	
841.51	2735.4	
841.68	4622.3	
841.85	4479.6	
842.02	2700.6	
842.19	2331.3	
842.36	4561.5	
842.53	4578.6	
842.7	2600.9	
842.87	3065.1	
843.05	5603.2	
843.22	4475.5	
843.39	2529.2	
843.56	2749.7	
843.73	4397	
843.9	4820.2	
844.07	3986	
844.24	3326.6	
844.41	6197.2	
844.58	4212	
844.75	2564.7	
844.92	2658.9	
845.09	4650.3	
845.26	4715.8	
845.43	2594.8	
845.6	2701.3	
845.77	4694.6	
845.94	4474.8	
846.12	2880.8	
846.29	2984.6	
846.46	4841.4	
846.63	4656.4	
846.8	2575.7	
846.97	3023.5	
847.14	4961.5	
847.31	4635.2	
847.48	2924.5	
847.65	3099.9	
847.82	4780.6	
847.99	4826.4	
848.16	3377.1	
848.33	3140.2	
848.5	4356	
848.67	4968.4	
848.84	2553.8	
849.01	2733.4	
849.18	4341	
849.35	4091.2	
849.52	3177.1	
849.69	2548.4	
849.86	4828.4	
850.03	4853.7	
850.2	2638.5	
850.37	3084.9	
850.54	4846.2	
850.71	4419.5	
850.88	3072.6	
851.05	2583.2	
851.22	4551.3	
851.39	4994.3	
851.56	2412.5	
851.73	2884.9	
851.9	4189.5	
852.07	4836.6	
852.24	2854.2	
852.41	2546.3	
852.58	4625.7	
852.75	4285.7	
852.92	2843.3	
853.09	2529.2	
853.26	4363.5	
853.43	4939.7	
853.6	2641.2	
853.77	2273.9	
853.94	5033.2	
854.11	4173.1	
854.28	3661.8	
854.44	2801.6	
854.61	5303.6	
854.78	4842.8	
854.95	2602.3	
855.12	3111.5	
855.29	3969	
855.46	5058.5	
855.63	2629.6	
855.8	3424.2	
855.97	4360.8	
856.14	4907.6	
856.31	3575.1	
856.48	2792.1	
856.65	4429.1	
856.82	4199	
856.99	2457.6	
857.16	2786.6	
857.33	5453.1	
857.49	4482.3	
857.66	2764.1	
857.83	2919.7	
858	4489.1	
858.17	4609.3	
858.34	2471.9	
858.51	2580.4	
858.68	5092.6	
858.85	5089.9	
859.02	2917.7	
859.19	3072	
859.36	4200.4	
859.52	4167.6	
859.69	2612.5	
859.86	3058.3	
860.03	4213.4	
860.2	5025.7	
860.37	2415.9	
860.54	2624.1	
860.71	4777.9	
860.88	5054.4	
861.05	2854.9	
861.21	3174.4	
861.38	5018.2	
861.55	4022.9	
861.72	2385.9	
861.89	2835.1	
862.06	4784.7	
862.23	5147.2	
862.4	2558.6	
862.56	2701.3	
862.73	4698	
862.9	4486.4	
863.07	2960	
863.24	2412.5	
863.41	4117.8	
863.58	4211.3	
863.75	2653.5	
863.91	2966.1	
864.08	4906.3	
864.25	4749.2	
864.42	3169.6	
864.59	3459	
864.76	5236	
864.93	4199	
865.09	2486.9	
865.26	2740.2	
865.43	5005.2	
865.6	5236.7	
865.77	2338.8	
865.94	2522.4	
866.1	4929.5	
866.27	4717.2	
866.44	3742.3	
866.61	2514.2	
866.78	4456.4	
866.95	4687.8	
867.11	2579.8	
867.28	2398.2	
867.45	4937	
867.62	4156.7	
867.79	2914.9	
867.96	2544.9	
868.12	4179.9	
868.29	4853	
868.46	2612.5	
868.63	3353.9	
868.8	4858.5	
868.97	4759.5	
869.13	2630.3	
869.3	2640.5	
869.47	4646.8	
869.64	4792.2	
869.81	2617.3	
869.97	2540.8	
870.14	4548.5	
870.31	5064.6	
870.48	2545.6	
870.65	3191.4	
870.81	4454.3	
870.98	4456.4	
871.15	2851.5	
871.32	2684.9	
871.48	4685.8	
871.65	5113.8	
871.82	2561.3	
871.99	2841.2	
872.16	5385.5	
872.32	4951.3	
872.49	2637.1	
872.66	2644.6	
872.83	4870.1	
872.99	4330.8	
873.16	2951.8	
873.33	2583.2	
873.5	4562.9	
873.67	4601.1	
873.83	2736.1	
874	3321.8	
874.17	4656.4	
874.34	5231.9	
874.5	3203	
874.67	3113.6	
874.84	5000.5	
875.01	4067.3	
875.17	3448.1	
875.34	2548.4	
875.51	4629.8	
875.68	5380.7	
875.84	3037.1	
876.01	3571.7	
876.18	4806.6	
876.34	4726.7	
876.51	2588.6	
876.68	2540.8	
876.85	4425.7	
877.01	5006.6	
877.18	3531.4	
877.35	2565.4	
877.52	4667.3	
877.68	4148.5	
877.85	2587.9	
878.02	2527.9	
878.18	4372.4	
878.35	4330.8	
878.52	2150.4	
878.69	2990.7	
878.85	4906.3	
879.02	4739	
879.19	3515.7	
879.35	2792.1	
879.52	4780.6	
879.69	4774.5	
879.86	2300.6	
880.02	2826.9	
880.19	4555.4	
880.36	5238.7	
880.52	2906.8	
880.69	3043.3	
880.86	4829.1	
881.02	4862.6	
881.19	2796.8	
881.36	2803	
881.52	4740.4	
881.69	4288.4	
881.86	2773.6	
882.02	2729.3	
882.19	4833.2	
882.36	5623.7	
882.52	2641.9	
882.69	3433.1	
882.86	4568.3	
883.02	4585.4	
883.19	3040.6	
883.36	2924.5	
883.52	4837.3	
883.69	5329.5	
883.86	2623.4	
884.02	2386.6	
884.19	4772.4	
884.36	4543.1	
884.52	2890.4	
884.69	2798.9	
884.86	4359.4	
885.02	5078.3	
885.19	2807.1	
885.36	2925.9	
885.52	4467.3	
885.69	4674.1	
885.86	3618.8	
886.02	3238.5	
886.19	4777.2	
886.35	4332.8	
886.52	2798.9	
886.69	3518.4	
886.85	4190.1	
887.02	4990.2	
887.19	4990.2	
887.35	4990.2	
887.52	4990.2	
887.68	4990.2	
887.85	4990.2	
888.02	4990.2	
888.18	4990.2	
888.35	4990.2	
888.51	4990.2	
888.68	4990.2	
888.85	4990.2	
889.01	4990.2	
889.18	4990.2	
889.35	4990.2	
889.51	4990.2	
889.68	4990.2	
889.84	4990.2	
890.01	4990.2	
890.17	4990.2	
890.34	4990.2	
890.51	4990.2	
890.67	4990.2	
890.84	4990.2	
891	4990.2	
891.17	4990.2	
891.34	4990.2	
891.5	4990.2	
891.67	4990.2	
891.83	4990.2	
892	4990.2	
892.16	4990.2	
892.33	4990.2	
892.5	4990.2	
892.66	4990.2	
892.83	4990.2	
892.99	4990.2	
893.16	4990.2	
893.32	4990.2	
893.49	4990.2	
893.65	4990.2	
893.82	4990.2	
893.99	4990.2	
894.15	4990.2	
894.32	4990.2	
894.48	4990.2	
894.65	4990.2	
894.81	4990.2	
894.98	4990.2	
895.14	4990.2	
895.31	4990.2	
895.47	4990.2	
895.64	4990.2	
895.81	4990.2	
895.97	4990.2	
896.14	4990.2	
896.3	4990.2	
896.47	4990.2	
896.63	4990.2	
896.8	4990.2	
896.96	4990.2	
897.13	4990.2	
897.29	4990.2	
897.46	4990.2	
897.62	4990.2	
897.79	4990.2	
897.95	4990.2	
898.12	4990.2	
898.28	4990.2	
898.45	4990.2	
898.61	4990.2	
898.78	4990.2	
898.94	4990.2	
899.11	4990.2	
899.27	4990.2	
899.44	4990.2	
899.6	4990.2	
899.77	4990.2	
899.93	4990.2	
900.1	4990.2	
900.26	4990.2	
900.43	4990.2	
900.59	4990.2	
900.76	4990.2	
900.92	4990.2	
901.09	4990.2	
901.25	4990.2	
901.42	4990.2	
901.58	4990.2	
901.75	4990.2	
901.91	4990.2	
902.07	4990.2	
902.24	4990.2	
902.4	4990.2	
902.57	4990.2	
902.73	4990.2	
902.9	4990.2	
903.06	4990.2	
903.23	4990.2	
903.39	4990.2	
903.56	4990.2	
903.72	4990.2	
903.88	4990.2	
904.05	4990.2	
904.21	4990.2	
904.38	4990.2	
904.54	4990.2	
904.71	4990.2	
904.87	4990.2	
905.03	4990.2	
905.2	4990.2	
905.36	4990.2	
905.53	4990.2	
905.69	4990.2	
905.86	4990.2	
906.02	4990.2	
906.18	4990.2	
906.35	4990.2	
906.51	4990.2	
906.68	4990.2	
906.84	4990.2	
907.01	4990.2	
907.17	4990.2	
907.33	4990.2	
907.5	4990.2	
907.66	4990.2	
907.83	4990.2	
907.99	4990.2	
908.15	4990.2	
908.32	4990.2	
908.48	4990.2	
908.65	4990.2	
908.81	4990.2	
908.97	4990.2	
909.14	4990.2	
909.3	4990.2	
909.47	4990.2	
909.63	4990.2	
909.79	4990.2	
909.96	4990.2	
910.12	4990.2	
910.28	4990.2	
910.45	4990.2	
910.61	4990.2	
910.78	4990.2	
910.94	4990.2	
911.1	4990.2	
911.27	4990.2	
911.43	4990.2	
911.59	4990.2	
911.76	4990.2	
911.92	4990.2	
912.08	4990.2	
912.25	4990.2	
912.41	4990.2	
912.57	4990.2	
912.74	4990.2	
912.9	4990.2	
913.07	4990.2	
913.23	4990.2	
913.39	4990.2	
913.56	4990.2	
913.72	4990.2	
913.88	4990.2	
914.05	4990.2	
914.21	4990.2	
914.37	4990.2	
914.54	4990.2	
914.7	4990.2	
914.86	4990.2	
915.03	4990.2	
915.19	4990.2	
