Wavelength	Intensities	
nm	a.u.	
179.22	1922.5	
179.44	1928.2	
179.65	1916.9	
179.86	1939.4	
180.08	1926.5	
180.29	5114.5	
180.51	3564.1	
180.72	5709.1	
180.94	6719.4	
181.15	3306.8	
181.37	3246.7	
181.58	5588.9	
181.79	5910.4	
182.01	3433.1	
182.22	3734.8	
182.44	5883.1	
182.65	4903.5	
182.87	4715.8	
183.08	4106.9	
183.29	6089.3	
183.51	5083.1	
183.72	3697.3	
183.94	5481.7	
184.15	5478.3	
184.37	5485.1	
184.58	3263.1	
184.79	4529.4	
185.01	5056.4	
185.22	5836.7	
185.44	4760.2	
185.65	3943.7	
185.86	5343.8	
186.08	4974.5	
186.29	3166.2	
186.51	3453.6	
186.72	5082.4	
186.94	6002.6	
187.15	3983.3	
187.36	4169.7	
187.58	7904.5	
187.79	5599.8	
188.01	4353.3	
188.22	6696.9	
188.43	6765.1	
188.65	5825.8	
188.86	3418.1	
189.08	4076.8	
189.29	5285.8	
189.5	5328.1	
189.72	3788.7	
189.93	3879.5	
190.15	6048.3	
190.36	7284.6	
190.57	4177.2	
190.79	4126	
191	6188.3	
191.22	6141.9	
191.43	4193.6	
191.64	3383.2	
191.86	6365.1	
192.07	6142.5	
192.29	3545.7	
192.5	3801.7	
192.71	6158.9	
192.93	5174.5	
193.14	3820.1	
193.35	3894.6	
193.57	5283.1	
193.78	6098.2	
194	3030.3	
194.21	3765.5	
194.42	4990.9	
194.64	5534.3	
194.85	4113	
195.07	4881	
195.28	5543.9	
195.49	4792.9	
195.71	5119.2	
195.92	3533.4	
196.13	5745.9	
196.35	5834.7	
196.56	5526.1	
196.78	4133.5	
196.99	7223.2	
197.2	6727.6	
197.42	4680.3	
197.63	4197.7	
197.84	4904.9	
198.06	5739.1	
198.27	3816	
198.48	5148.6	
198.7	5267.4	
198.91	5438.7	
199.13	4163.5	
199.34	4200.4	
199.55	5907	
199.77	4796.3	
199.98	3669.3	
200.19	4230.4	
200.41	5365	
200.62	5070.8	
200.83	4386.1	
201.05	4630.5	
201.26	5411.4	
201.47	5171.1	
201.69	3705.5	
201.9	3566.2	
202.11	5452.4	
202.33	6487.3	
202.54	3972.4	
202.76	4342.4	
202.97	5621.7	
203.18	5628.5	
203.4	4317.1	
203.61	4260.5	
203.82	5591	
204.04	5118.6	
204.25	4204.5	
204.46	4093.9	
204.68	5502.9	
204.89	5742.5	
205.1	4070.7	
205.32	3493.2	
205.53	5909.8	
205.74	6052.4	
205.96	2936.1	
206.17	4275.5	
206.38	5872.2	
206.6	6064	
206.81	4715.1	
207.02	3892.5	
207.24	5799.8	
207.45	6266.8	
207.66	3920.5	
207.88	3374.4	
208.09	5678.3	
208.3	5459.2	
208.52	3625.6	
208.73	4007.9	
208.94	5469.4	
209.15	6220.4	
209.37	3973.7	
209.58	4153.3	
209.79	5983.5	
210.01	5240.1	
210.22	3131.3	
210.43	3254.9	
210.65	5506.3	
210.86	5982.1	
211.07	3996.3	
211.29	3610.6	
211.5	5837.4	
211.71	5404.6	
211.93	3638.6	
212.14	3643.3	
212.35	5412.8	
212.56	5608	
212.78	4153.3	
212.99	3437.9	
213.2	6474.3	
213.42	5197.7	
213.63	3752.6	
213.84	4057.7	
214.06	4852.3	
214.27	4975.9	
214.48	3897.3	
214.69	4229.7	
214.91	6136.4	
215.12	6284.5	
215.33	4268	
215.55	4746.5	
215.76	6753.5	
215.97	5931.6	
216.18	4100.7	
216.4	4048.2	
216.61	5166.3	
216.82	6062.7	
217.04	3665.2	
217.25	3839.3	
217.46	6139.1	
217.67	5931.6	
217.89	3207.1	
218.1	3389.4	
218.31	5569.1	
218.53	5760.3	
218.74	3869.3	
218.95	3706.8	
219.16	5504.3	
219.38	6459.3	
219.59	3666.5	
219.8	4411.3	
220.01	7158.3	
220.23	5524.7	
220.44	4890.5	
220.65	3591.5	
220.87	5569.8	
221.08	6122.1	
221.29	3375.7	
221.5	4554	
221.72	7559.7	
221.93	5190.2	
222.14	4212.7	
222.35	5012.1	
222.57	5451	
222.78	5864.7	
222.99	3965.6	
223.2	4271.4	
223.42	5837.4	
223.63	5943.9	
223.84	3009.8	
224.05	2988	
224.27	7058.7	
224.48	6413.6	
224.69	4958.8	
224.9	4151.9	
225.12	5757.5	
225.33	5427.8	
225.54	3299.3	
225.75	3736.9	
225.97	5055.8	
226.18	5335	
226.39	4021.5	
226.6	3700.7	
226.82	5238.7	
227.03	5061.9	
227.24	4125.3	
227.45	3437.9	
227.67	5849.7	
227.88	6488	
228.09	4689.8	
228.3	4651.6	
228.52	6034	
228.73	5479	
228.94	3855.6	
229.15	3431.7	
229.36	5429.8	
229.58	5311.7	
229.79	3920.5	
230	4567	
230.21	6571.2	
230.43	5608	
230.64	4064.5	
230.85	4279.6	
231.06	5883.1	
231.28	5932.3	
231.49	3428.3	
231.7	4023.6	
231.91	5821.7	
232.12	5567.7	
232.34	3501.3	
232.55	4053.6	
232.76	6114.6	
232.97	5649.7	
233.18	3674.1	
233.4	4134.2	
233.61	5687.2	
233.82	5289.9	
234.03	3741	
234.25	3774.4	
234.46	7712.7	
234.67	5582.8	
234.88	4246.8	
235.09	3699.3	
235.31	5802.6	
235.52	5360.2	
235.73	4170.3	
235.94	3508.9	
236.15	5239.4	
236.37	6724.2	
236.58	3681.6	
236.79	4034.5	
237	5840.8	
237.21	5046.2	
237.43	4292.5	
237.64	3375.1	
237.85	10147	
238.06	5103.5	
238.27	4381.3	
238.48	3454.2	
238.7	5847	
238.91	5381.4	
239.12	3921.9	
239.33	4031.8	
239.54	5067.4	
239.76	5494	
239.97	3899.3	
240.18	3963.5	
240.39	6985.6	
240.6	5750	
240.82	4069.3	
241.03	3365.5	
241.24	5494.7	
241.45	6451.8	
241.66	3629	
241.87	4290.5	
242.09	6228.6	
242.3	6654.5	
242.51	4362.9	
242.72	4005.8	
242.93	6034.7	
243.14	5468.8	
243.36	4627.7	
243.57	4998.4	
243.78	6424.5	
243.99	5836.7	
244.2	3993.5	
244.41	3620.8	
244.63	5044.1	
244.84	5828.5	
245.05	4298.7	
245.26	3966.2	
245.47	5773.9	
245.68	6069.5	
245.9	5360.2	
246.11	4216.1	
246.32	5397.1	
246.53	5750	
246.74	6553.5	
246.95	3315	
247.16	4933.6	
247.38	5554.8	
247.59	3309.5	
247.8	4027	
248.01	5151.3	
248.22	5423	
248.43	3611.9	
248.64	3898	
248.86	4889.2	
249.07	5206.6	
249.28	3502	
249.49	4118.5	
249.7	6093.4	
249.91	6290.7	
250.12	3289	
250.34	3381.2	
250.55	5620.3	
250.76	5455.1	
250.97	4111	
251.18	4202.4	
251.39	6238.1	
251.6	5666	
251.81	4268.6	
252.03	4201.7	
252.24	5244.8	
252.45	6049	
252.66	3465.2	
252.87	4417.5	
253.08	5524.7	
253.29	7217.7	
253.5	3484.3	
253.72	4876.9	
253.93	5335	
254.14	6562.4	
254.35	3782.6	
254.56	3895.9	
254.77	5745.2	
254.98	5122.7	
255.19	3711.6	
255.41	4829.1	
255.62	5649.7	
255.83	6266.8	
256.04	4290.5	
256.25	4173.1	
256.46	6768.5	
256.67	5186.1	
256.88	4021.5	
257.09	4634.6	
257.31	5140.4	
257.52	5197.7	
257.73	5164.3	
257.94	3744.4	
258.15	5382.1	
258.36	5537.7	
258.57	4835.3	
258.78	3035.1	
258.99	6038.8	
259.2	5294.7	
259.41	3765.5	
259.63	3942.3	
259.84	6397.9	
260.05	6862.1	
260.26	4994.3	
260.47	3685	
260.68	6126.8	
260.89	5412.8	
261.1	4547.2	
261.31	3633.8	
261.52	6069.5	
261.73	6526.9	
261.95	4932.2	
262.16	4319.2	
262.37	6295.5	
262.58	6354.8	
262.79	4939.7	
263	3894.6	
263.21	5448.3	
263.42	5016.2	
263.63	3951.2	
263.84	3863.2	
264.05	6111.8	
264.26	6499.6	
264.47	4752	
264.69	4256.4	
264.9	6291.4	
265.11	5702.2	
265.32	3683.6	
265.53	3792.2	
265.74	5700.9	
265.95	4890.5	
266.16	4061.8	
266.37	4531.5	
266.58	5668.1	
266.79	5296.7	
267	3794.9	
267.21	3489.7	
267.42	5082.4	
267.63	5481.7	
267.84	3941	
268.06	3461.1	
268.27	5949.3	
268.48	6223.1	
268.69	3874.8	
268.9	4579.9	
269.11	6260.6	
269.32	4978.6	
269.53	3993.5	
269.74	3679.5	
269.95	5892.7	
270.16	4815.5	
270.37	4012	
270.58	4619.5	
270.79	5329.5	
271	6014.2	
271.21	4348.5	
271.42	4054.3	
271.63	5693.4	
271.84	5148.6	
272.05	3164.1	
272.26	3571	
272.47	5516.5	
272.68	5724.8	
272.89	3824.9	
273.11	4463.2	
273.32	5356.8	
273.53	6488.6	
273.74	4300.7	
273.95	4204.5	
274.16	6285.9	
274.37	5533.6	
274.58	4411.3	
274.79	3494.5	
275	5655.1	
275.21	6234	
275.42	5279.7	
275.63	4539.7	
275.84	5744.6	
276.05	7307.8	
276.26	4163.5	
276.47	3972.4	
276.68	5343.8	
276.89	6556.2	
277.1	4483	
277.31	3508.2	
277.52	5792.3	
277.73	5910.4	
277.94	3441.3	
278.15	3841.3	
278.36	5698.1	
278.57	5155.4	
278.78	3876.1	
278.99	4349.2	
279.2	5106.3	
279.41	5089.2	
279.62	5086.5	
279.83	3568.2	
280.04	6757.6	
280.25	5043.5	
280.46	5022.3	
280.67	3957.4	
280.88	5066.7	
281.09	6201.2	
281.3	4253.6	
281.51	5399.8	
281.72	5179.3	
281.93	6081.1	
282.14	3746.4	
282.35	4031.8	
282.56	6030.6	
282.77	6024.4	
282.98	3895.2	
283.19	4765.6	
283.4	7402	
283.61	5475.6	
283.82	3513.6	
284.03	4940.4	
284.24	5585.5	
284.45	6177.4	
284.66	4990.9	
284.87	4780.6	
285.08	6120	
285.29	6226.5	
285.5	3364.1	
285.71	3896.6	
285.92	6093.4	
286.12	6866.8	
286.33	4885.1	
286.54	3866.6	
286.75	6047.7	
286.96	5378.6	
287.17	3542.3	
287.38	4894	
287.59	5142.4	
287.8	5099.4	
288.01	3911.6	
288.22	4544.4	
288.43	6025.8	
288.64	5009.3	
288.85	4621.6	
289.06	4424.3	
289.27	5998.5	
289.48	6502.3	
289.69	4968.4	
289.9	4543.8	
290.11	6240.2	
290.32	5203.2	
290.53	4661.2	
290.74	4366.3	
290.94	5982.8	
291.15	6022.4	
291.36	3831.7	
291.57	4474.1	
291.78	5230.5	
291.99	4929.5	
292.2	3603.7	
292.41	4400.4	
292.62	6084.5	
292.83	5909.8	
293.04	5423.7	
293.25	3633.8	
293.46	5286.5	
293.67	6123.4	
293.88	3749.8	
294.09	3612.6	
294.29	5003.2	
294.5	5674.2	
294.71	4067.3	
294.92	3849.5	
295.13	5322	
295.34	6709.1	
295.55	3418.7	
295.76	3470.6	
295.97	5907.7	
296.18	6774.7	
296.39	3480.9	
296.6	3769.6	
296.81	5606.7	
297.01	5983.5	
297.22	3895.9	
297.43	3685	
297.64	5128.1	
297.85	5210	
298.06	3115	
298.27	3346.4	
298.48	5535	
298.69	5225.1	
298.9	4087.7	
299.11	3709.6	
299.31	5042.8	
299.52	5033.9	
299.73	4349.2	
299.94	4325.3	
300.15	5494.7	
300.36	5132.2	
300.57	4276.2	
300.78	4273.4	
300.99	5304.2	
301.2	5653.1	
301.4	3683.6	
301.61	4070.7	
301.82	5907.7	
302.03	5978.7	
302.24	4503.5	
302.45	3489.7	
302.66	5856.5	
302.87	6339.8	
303.08	3725.9	
303.29	5164.3	
303.49	5280.3	
303.7	5564.3	
303.91	3366.2	
304.12	4894.6	
304.33	5010	
304.54	5692	
304.75	3818.1	
304.96	3606.5	
305.16	5838.1	
305.37	6624.5	
305.58	3218	
305.79	3423.5	
306	5842.9	
306.21	4934.2	
306.42	3768.9	
306.63	5836	
306.83	5375.2	
307.04	6176.7	
307.25	4122.6	
307.46	4104.1	
307.67	4743.1	
307.88	5987.6	
308.09	3678.8	
308.29	3779.2	
308.5	5612.1	
308.71	6109.8	
308.92	4044.7	
309.13	3573	
309.34	5347.2	
309.55	5458.5	
309.75	4659.8	
309.96	4270	
310.17	5927.5	
310.38	5228.5	
310.59	4509.6	
310.8	3464.5	
311.01	5297.4	
311.21	5362.3	
311.42	3535.5	
311.63	3644	
311.84	5315.8	
312.05	5659.2	
312.26	4158.7	
312.46	4573.1	
312.67	5359.5	
312.88	5059.8	
313.09	3642	
313.3	3501.3	
313.51	6413.6	
313.71	6711.9	
313.92	3593.5	
314.13	3857	
314.34	5677	
314.55	5420.3	
314.76	4702.1	
314.96	4098.7	
315.17	5634.6	
315.38	5956.2	
315.59	3624.9	
315.8	3454.2	
316.01	6486.6	
316.21	6466.1	
316.42	3532.1	
316.63	4044.7	
316.84	5362.3	
317.05	6288.6	
317.26	4329.4	
317.46	3803.1	
317.67	5453.7	
317.88	5917.9	
318.09	4615.4	
318.3	3354.6	
318.5	5210.7	
318.71	5864	
318.92	5911.1	
319.13	4334.2	
319.34	6038.1	
319.54	6184.9	
319.75	3391.4	
319.96	3173	
320.17	5912.5	
320.38	6108.4	
320.58	3306.1	
320.79	4038.6	
321	6082.5	
321.21	6163	
321.42	4001.7	
321.62	3301.3	
321.83	5164.3	
322.04	5539.8	
322.25	3761.4	
322.46	3634.5	
322.66	5692	
322.87	5816.9	
323.08	4463.2	
323.29	3545.7	
323.5	6569.9	
323.7	5046.9	
323.91	4993.6	
324.12	4448.2	
324.33	5597.1	
324.53	5916.6	
324.74	4291.9	
324.95	4487.1	
325.16	4885.1	
325.37	5305.6	
325.57	3662.5	
325.78	3738.2	
325.99	5593.7	
326.2	4969.1	
326.4	5167	
326.61	3346.4	
326.82	5500.8	
327.03	5633.3	
327.24	5158.8	
327.44	4940.4	
327.65	5715.9	
327.86	4674.8	
328.07	4293.9	
328.27	3465.8	
328.48	6247.7	
328.69	5098.1	
328.9	5301.5	
329.1	3893.2	
329.31	5422.3	
329.52	6417.7	
329.73	3630.4	
329.93	4113.7	
330.14	5481	
330.35	5769.1	
330.56	6017.6	
330.76	4548.5	
330.97	5317.2	
331.18	5719.3	
331.39	4072	
331.59	3228.3	
331.8	6115.9	
332.01	6286.6	
332.22	3713	
332.42	4293.9	
332.63	5599.8	
332.84	5259.9	
333.05	4046.1	
333.25	3663.1	
333.46	5323.4	
333.67	5553.4	
333.88	3849.5	
334.08	4246.1	
334.29	7460.8	
334.5	6199.2	
334.7	3552.5	
334.91	5234.6	
335.12	5055.8	
335.33	6036	
335.53	4059.1	
335.74	5998.5	
335.95	5255.1	
336.16	5129.5	
336.36	3997	
336.57	4724.7	
336.78	4959.5	
336.98	6157.6	
337.19	5005.2	
337.4	3993.5	
337.61	6666.8	
337.81	5041.4	
338.02	3678.8	
338.23	4820.2	
338.43	6326.2	
338.64	5171.8	
338.85	3620.8	
339.05	4857.1	
339.26	6452.5	
339.47	4964.3	
339.68	3657.7	
339.88	5418.9	
340.09	5786.9	
340.3	6005.3	
340.5	4256.4	
340.71	3238.5	
340.92	5032.5	
341.13	6245.6	
341.33	3529.3	
341.54	4315.8	
341.75	5807.4	
341.95	5418.2	
342.16	4136.9	
342.37	4426.3	
342.57	5117.2	
342.78	5475.6	
342.99	4568.3	
343.19	3284.3	
343.4	6032	
343.61	5785.5	
343.81	3859.7	
344.02	3611.3	
344.23	5969.1	
344.43	6430.6	
344.64	4569.7	
344.85	4427	
345.06	5827.2	
345.26	6122.1	
345.47	4223.6	
345.68	4929.5	
345.88	4852.3	
346.09	6040.1	
346.3	4346.5	
346.5	3236.5	
346.71	5525.4	
346.92	5204.6	
347.12	3275.4	
347.33	4187.4	
347.54	6034	
347.74	6507.8	
347.95	4187.4	
348.16	3069.2	
348.36	5298.1	
348.57	5123.3	
348.78	4132.1	
348.98	4427	
349.19	5442.1	
349.39	4956.1	
349.6	3336.8	
349.81	3690.4	
350.01	5717.9	
350.22	5190.2	
350.43	4000.4	
350.63	4908.3	
350.84	5569.1	
351.05	5365.7	
351.25	3682.9	
351.46	3282.2	
351.67	6152.1	
351.87	5170.4	
352.08	3855.6	
352.29	4456.4	
352.49	6027.9	
352.7	5646.9	
352.9	3523.2	
353.11	4450.2	
353.32	6728.3	
353.52	5317.2	
353.73	3440.6	
353.94	4503.5	
354.14	5799.8	
354.35	5638.1	
354.55	3618.1	
354.76	4068.6	
354.97	5786.2	
355.17	5548.6	
355.38	3334.8	
355.59	4757.4	
355.79	5189.6	
356	5572.5	
356.2	3952.6	
356.41	3431.7	
356.62	4906.9	
356.82	5395.7	
357.03	4274.1	
357.24	3891.8	
357.44	5180	
357.65	5350	
357.85	5176.6	
358.06	4007.2	
358.27	4883	
358.47	5134.3	
358.68	3284.3	
358.88	4167.6	
359.09	5707	
359.3	6130.9	
359.5	4960.9	
359.71	4348.5	
359.91	6516	
360.12	5938.4	
360.33	4212	
360.53	4702.1	
360.74	5106.3	
360.94	5189.6	
361.15	4404.5	
361.36	3610.6	
361.56	5913.2	
361.77	5464	
361.97	4906.9	
362.18	3786.7	
362.38	5995.8	
362.59	4962.2	
362.8	3490.4	
363	3316.3	
363.21	4707.6	
363.41	5533.6	
363.62	4046.1	
363.83	5151.3	
364.03	5526.1	
364.24	6546	
364.44	5205.3	
364.65	5089.2	
364.85	5339.7	
365.06	4906.3	
365.27	3692.5	
365.47	3689.1	
365.68	6356.2	
365.88	5208.7	
366.09	4104.1	
366.29	3714.3	
366.5	5524.7	
366.71	5984.2	
366.91	5082.4	
367.12	4241.3	
367.32	6617	
367.53	5859.2	
367.73	4144.4	
367.94	5134.9	
368.14	5797.8	
368.35	6728.3	
368.56	4197	
368.76	3471.3	
368.97	5870.8	
369.17	7627.3	
369.38	3675.4	
369.58	3917.8	
369.79	4874.8	
369.99	6205.3	
370.2	4982.7	
370.4	4119.1	
370.61	5614.8	
370.82	6793.8	
371.02	3918.4	
371.23	3226.2	
371.43	4778.6	
371.64	6210.8	
371.84	3868.6	
372.05	5197.1	
372.25	7559.7	
372.46	5862.7	
372.66	3890.5	
372.87	3857	
373.07	5915.2	
373.28	7565.9	
373.48	5019.6	
373.69	4678.9	
373.9	5327.4	
374.1	5334.3	
374.31	4852.3	
374.51	4323.3	
374.72	6186.9	
374.92	5012.1	
375.13	5001.8	
375.33	4170.3	
375.54	5679	
375.74	5182	
375.95	4220.2	
376.15	5578	
376.36	5765.7	
376.56	5547.9	
376.77	4241.3	
376.97	4739.7	
377.18	6815.6	
377.38	5765	
377.59	5061.9	
377.79	3723.9	
378	5593.7	
378.2	6078.4	
378.41	3787.4	
378.61	3695.9	
378.82	6017.6	
379.02	5109	
379.23	3931.4	
379.43	5127.4	
379.64	6083.8	
379.84	5715.2	
380.05	3779.9	
380.25	3680.2	
380.46	5887.9	
380.66	5370.5	
380.87	5132.9	
381.07	5480.4	
381.28	6505.7	
381.48	5812.1	
381.69	3754.6	
381.89	3848.8	
382.1	4765.6	
382.3	6090	
382.51	5041.4	
382.71	5879	
382.91	5857.2	
383.12	6431.3	
383.32	4194.9	
383.53	4455	
383.73	5664	
383.94	5510.4	
384.14	4311.7	
384.35	3452.2	
384.55	5370.5	
384.76	5876.3	
384.96	4216.1	
385.17	4573.1	
385.37	5842.2	
385.58	5096.7	
385.78	4543.1	
385.98	3431	
386.19	5335	
386.39	5752.1	
386.6	3951.9	
386.8	4226.3	
387.01	5823.7	
387.21	5792.3	
387.42	4696	
387.62	5231.2	
387.83	5109.7	
388.03	5816.2	
388.23	4220.2	
388.44	5122	
388.64	4727.4	
388.85	4917.2	
389.05	4517.1	
389.26	5233.2	
389.46	6896.9	
389.67	6223.1	
389.87	4553.3	
390.07	4684.4	
390.28	5462.6	
390.48	5023.7	
390.69	3777.8	
390.89	4045.4	
391.1	5185.5	
391.3	6214.9	
391.5	5284.4	
391.71	5940.5	
391.91	5819.6	
392.12	6944	
392.32	5466.7	
392.53	4564.2	
392.73	5206.6	
392.93	5479.7	
393.14	4216.1	
393.34	5076.9	
393.55	5943.2	
393.75	5436.7	
393.95	4300.7	
394.16	4210.6	
394.36	5164.3	
394.57	5917.3	
394.77	3674.7	
394.98	4164.2	
395.18	5107.6	
395.38	5397.8	
395.59	5031.2	
395.79	3913	
396	5198.4	
396.2	5729.5	
396.4	4749.2	
396.61	4655	
396.81	6006	
397.02	5158.2	
397.22	4963.6	
397.42	5091.9	
397.63	5850.4	
397.83	5053	
398.04	3836.5	
398.24	4356.7	
398.44	5724.8	
398.65	4709	
398.85	3667.2	
399.05	3836.5	
399.26	5007.3	
399.46	6857.3	
399.67	4176.5	
399.87	3850.9	
400.07	5348.6	
400.28	5761.6	
400.48	3984	
400.69	5020.3	
400.89	6022.4	
401.09	6408.8	
401.3	3839.3	
401.5	4972.5	
401.7	6672.3	
401.91	6948.1	
402.11	4158.1	
402.32	4466.6	
402.52	6038.1	
402.72	5937.1	
402.93	4730.1	
403.13	3530.7	
403.33	6818.4	
403.54	5543.2	
403.74	4338.3	
403.94	5367	
404.15	5555.5	
404.35	6774.7	
404.56	4195.6	
404.76	6138.4	
404.96	5944.6	
405.17	5819	
405.37	5504.9	
405.57	4683	
405.78	6096.1	
405.98	5520.6	
406.18	4163.5	
406.39	5046.2	
406.59	5993.7	
406.79	5584.1	
407	3932.8	
407.2	4003.1	
407.4	5980.8	
407.61	6257.9	
407.81	4020.8	
408.01	6289.3	
408.22	4921.3	
408.42	6897.6	
408.62	5079.6	
408.83	4470	
409.03	5587.5	
409.23	5230.5	
409.44	4560.8	
409.64	4823.6	
409.84	6311.2	
410.05	6271.6	
410.25	4566.3	
410.45	4390.2	
410.66	5675.6	
410.86	8247.9	
411.06	4767	
411.27	4726.7	
411.47	7965.9	
411.67	5814.2	
411.88	4956.1	
412.08	5134.3	
412.28	6462	
412.49	6959.7	
412.69	4562.2	
412.89	4582.7	
413.09	6842.9	
413.3	6619.7	
413.5	4689.8	
413.7	4251.6	
413.91	5930.9	
414.11	6773.3	
414.31	4482.3	
414.52	4878.9	
414.72	6447.7	
414.92	6326.2	
415.12	4526	
415.33	4980	
415.53	6700.3	
415.73	6956.9	
415.94	5370.5	
416.14	4848.2	
416.34	5641.5	
416.55	5443.5	
416.75	6090	
416.95	5445.5	
417.15	6647	
417.36	7503.8	
417.56	6210.8	
417.76	5252.4	
417.97	7105.1	
418.17	6692.1	
418.37	4776.5	
418.57	4920.6	
418.78	6461.3	
418.98	6188.3	
419.18	5770.5	
419.38	5758.2	
419.59	6201.2	
419.79	5817.6	
419.99	4743.8	
420.2	5130.8	
420.4	6762.4	
420.6	6956.3	
420.8	4674.1	
421.01	4547.2	
421.21	6500.3	
421.41	6731	
421.61	5102.9	
421.82	4773.8	
422.02	5962.3	
422.22	7008.1	
422.42	5654.4	
422.63	5260.5	
422.83	6150.1	
423.03	7357.7	
423.23	5298.8	
423.44	4227	
423.64	6270.2	
423.84	6054.5	
424.04	4693.9	
424.25	4319.8	
424.45	7324.9	
424.65	7249.1	
424.85	4154.6	
425.06	4812	
425.26	7126.9	
425.46	5780.1	
425.66	5330.2	
425.87	4937	
426.07	6993.1	
426.27	6831.3	
426.47	5072.8	
426.67	4446.8	
426.88	7344.7	
427.08	6720.8	
427.28	5398.4	
427.48	4466.6	
427.69	5676.3	
427.89	6362.4	
428.09	5396.4	
428.29	4473.4	
428.5	7035.5	
428.7	6565.1	
428.9	4332.8	
429.1	5039.4	
429.3	6399.2	
429.51	6901.7	
429.71	4708.3	
429.91	5532.9	
430.11	6723.5	
430.31	7005.4	
430.52	4937.7	
430.72	5281.7	
430.92	7339.9	
431.12	6821.1	
431.32	4577.2	
431.53	5076.2	
431.73	5671.5	
431.93	7426.6	
432.13	4617.5	
432.33	4373.1	
432.54	6139.8	
432.74	6496.2	
432.94	4255.7	
433.14	5504.3	
433.34	6642.2	
433.55	6139.1	
433.75	5415.5	
433.95	7192.5	
434.15	6453.1	
434.35	6234.7	
434.56	4567	
434.76	3954.6	
434.96	6502.3	
435.16	6692.8	
435.36	4431.1	
435.56	5571.8	
435.77	6027.9	
435.97	6207.4	
436.17	6401.3	
436.37	5490.6	
436.57	6047	
436.78	5931.6	
436.98	7395.2	
437.18	6139.8	
437.38	6745.3	
437.58	6236.1	
437.78	6278.4	
437.99	4852.3	
438.19	6797.2	
438.39	8221.2	
438.59	4795.7	
438.79	4290.5	
438.99	7428.7	
439.2	6232	
439.4	4489.8	
439.6	4399.7	
439.8	6615.6	
440	7772	
440.2	5465.3	
440.4	5592.3	
440.61	6987.7	
440.81	7562.5	
441.01	4579.3	
441.21	5539.1	
441.41	7384.3	
441.61	7016.3	
441.81	5780.1	
442.02	6897.6	
442.22	7907.9	
442.42	7094.8	
442.62	4666.6	
442.82	4688.5	
443.02	7343.3	
443.22	6381.5	
443.43	5091.3	
443.63	4685.1	
443.83	6247.7	
444.03	6341.9	
444.23	5927.5	
444.43	5498.1	
444.63	6524.1	
444.83	7946.8	
445.04	4756.1	
445.24	6192.4	
445.44	7055.9	
445.64	7116	
445.84	5672.2	
446.04	5606.7	
446.24	6303.6	
446.44	7425.9	
446.65	4801.1	
446.85	5197.1	
447.05	6769.9	
447.25	7382.2	
447.45	5289.9	
447.65	4629.1	
447.85	6765.8	
448.05	6409.5	
448.25	5793.7	
448.46	5578	
448.66	6668.9	
448.86	6452.5	
449.06	4493.9	
449.26	5757.5	
449.46	7068.9	
449.66	6065.4	
449.86	5224.4	
450.06	5203.2	
450.26	6309.8	
450.47	6894.8	
450.67	5504.9	
450.87	5832.6	
451.07	6963.8	
451.27	6743.3	
451.47	4781.3	
451.67	5356.1	
451.87	6376.7	
452.07	7653.9	
452.27	4966.3	
452.47	4960.2	
452.67	6740.5	
452.88	7414.3	
453.08	4332.1	
453.28	6479.1	
453.48	7957	
453.68	6717.3	
453.88	4851	
454.08	5196.4	
454.28	7103	
454.48	6700.3	
454.68	5748.6	
454.88	6328.9	
455.08	7153.6	
455.28	6825.9	
455.48	4670.1	
455.68	5442.8	
455.89	7675.1	
456.09	7254.6	
456.29	5109	
456.49	5149.3	
456.69	7514.7	
456.89	6963.1	
457.09	5732.9	
457.29	6084.5	
457.49	7103.7	
457.69	7240.9	
457.89	5436	
458.09	4899.4	
458.29	6833.4	
458.49	7554.3	
458.69	5957.5	
458.89	5292	
459.09	7776.8	
459.29	8008.2	
459.49	5445.5	
459.69	6285.2	
459.9	7412.3	
460.1	6774	
460.3	5351.3	
460.5	5100.1	
460.7	7348.8	
460.9	6984.9	
461.1	4691.9	
461.3	6129.6	
461.5	7953.6	
461.7	7679.2	
461.9	5130.8	
462.1	5682.4	
462.3	7051.2	
462.5	7557	
462.7	5250.3	
462.9	5323.4	
463.1	8677.9	
463.3	8320.9	
463.5	5541.8	
463.7	6479.1	
463.9	7213.6	
464.1	7636.2	
464.3	5652.4	
464.5	5847.6	
464.7	7879.2	
464.9	7404.1	
465.1	7217	
465.3	6322.8	
465.5	8227.4	
465.7	8163.9	
465.9	6494.8	
466.1	6426.5	
466.3	7963.9	
466.5	7788.4	
466.7	7272.3	
466.9	6113.2	
467.1	7700.4	
467.3	8737.3	
467.5	7179.5	
467.7	5885.9	
467.9	8933.2	
468.1	9829.6	
468.3	6823.1	
468.5	7229.3	
468.7	7731.1	
468.9	7731.1	
469.1	6273.6	
469.3	7019.8	
469.5	9757.9	
469.7	7278.5	
469.9	6840.2	
470.1	6035.4	
470.3	7785.7	
470.5	7795.9	
470.7	7415.7	
470.9	6140.5	
471.1	7471	
471.3	8052.6	
471.5	5943.9	
471.69	8134.5	
471.89	7410.2	
472.09	6991.8	
472.29	6739.9	
472.49	7266.9	
472.69	7153.6	
472.89	8088.8	
473.09	5788.2	
473.29	6138.4	
473.49	7288.7	
473.69	7544	
473.89	6997.9	
474.09	6227.9	
474.29	8866.3	
474.49	8525	
474.69	7040.2	
474.89	6337.1	
475.09	7636.2	
475.29	7524.2	
475.49	5883.1	
475.69	6059.3	
475.88	9323	
476.08	7871	
476.28	5656.5	
476.48	6275.7	
476.68	8325.7	
476.88	8275.2	
477.08	6051.1	
477.28	6426.5	
477.48	7678.5	
477.68	8415.1	
477.88	5897.5	
478.08	6251.1	
478.28	8665.6	
478.48	7881.3	
478.67	6324.8	
478.87	5735.7	
479.07	8602.2	
479.27	7916.1	
479.47	6554.9	
479.67	6460.7	
479.87	8413.1	
480.07	8947.6	
480.27	5699.5	
480.47	7549.5	
480.67	8011	
480.87	8650.6	
481.06	6009.4	
481.26	6918	
481.46	7979.6	
481.66	7882.6	
481.86	6438.8	
482.06	7601.4	
482.26	7654.6	
482.46	8681.3	
482.66	6448.4	
482.86	6100.2	
483.05	7989.8	
483.25	7402	
483.45	9097.8	
483.65	6439.5	
483.85	7550.2	
484.05	7913.4	
484.25	6923.5	
484.45	7440.3	
484.65	8850.6	
484.84	8874.5	
485.04	6312.5	
485.24	6369.2	
485.44	9121.7	
485.64	7291.5	
485.84	5646.9	
486.04	7157	
486.24	7737.9	
486.44	8195.3	
486.63	5621.7	
486.83	6557.6	
487.03	7604.8	
487.23	7755	
487.43	5773.9	
487.63	8336.6	
487.83	7937.2	
488.02	8921	
488.22	6763.1	
488.42	7389.1	
488.62	8856.1	
488.82	7692.2	
489.02	6350.8	
489.22	6429.3	
489.41	8723	
489.61	8241	
489.81	6201.2	
490.01	6207.4	
490.21	8654	
490.41	9252	
490.61	6066.1	
490.8	6251.8	
491	8017.8	
491.2	7356.3	
491.4	6880.5	
491.6	5948	
491.8	7976.2	
491.99	8230.8	
492.19	5771.9	
492.39	6236.7	
492.59	8677.2	
492.79	8679.3	
492.99	7131	
493.18	6186.9	
493.38	8677.9	
493.58	9617.3	
493.78	6906.4	
493.98	6566.5	
494.18	8495	
494.37	7921.5	
494.57	7215	
494.77	7077.8	
494.97	8697	
495.17	9060.2	
495.37	6638.8	
495.56	6996.5	
495.76	9168.8	
495.96	8770.8	
496.16	7895.6	
496.36	6741.9	
496.55	8925	
496.75	8366.6	
496.95	7189.1	
497.15	6995.2	
497.35	8892.3	
497.54	8882.7	
497.74	6840.2	
497.94	8670.4	
498.14	9612.5	
498.34	9451.4	
498.53	6574	
498.73	7384.3	
498.93	8287.4	
499.13	8942.1	
499.33	7169.3	
499.52	7750.2	
499.72	8839.7	
499.92	9309.4	
500.12	6754.9	
500.32	7045.7	
500.51	9267.7	
500.71	9030.9	
500.91	8019.8	
501.11	7546.8	
501.31	9142.8	
501.5	9585.9	
501.7	8323.6	
501.9	7141.3	
502.1	8935.3	
502.29	9227.5	
502.49	7716.7	
502.69	8135.9	
502.89	9192.6	
503.09	9189.9	
503.28	6642.2	
503.48	6761.7	
503.68	8302.5	
503.88	8421.9	
504.07	7901.1	
504.27	7279.8	
504.47	8744.8	
504.67	9002.2	
504.86	7770	
505.06	7389.8	
505.26	8480.6	
505.46	10364	
505.65	7390.4	
505.85	7520.8	
506.05	8416.5	
506.25	8933.2	
506.44	6702.3	
506.64	7661.5	
506.84	8254.7	
507.04	9408.4	
507.23	6901.7	
507.43	7492.2	
507.63	10443	
507.83	8677.2	
508.02	7488.7	
508.22	7210.9	
508.42	10841	
508.62	8338.6	
508.81	7481.2	
509.01	8004.1	
509.21	8329.1	
509.4	8589.2	
509.6	7679.9	
509.8	6940.6	
510	8578.9	
510.19	10150	
510.39	6954.2	
510.59	7092.1	
510.79	8378.2	
510.98	9869.8	
511.18	7033.4	
511.38	7285.3	
511.57	9301.9	
511.77	9163.3	
511.97	7933.8	
512.17	6881.9	
512.36	9214.5	
512.56	9254.1	
512.76	6934.4	
512.95	6687.3	
513.15	9332.6	
513.35	7990.5	
513.55	7853.3	
513.74	7021.1	
513.94	9308	
514.14	8764.6	
514.33	8042.4	
514.53	7705.8	
514.73	8591.2	
514.92	8890.2	
515.12	7212.3	
515.32	7002.7	
515.51	8983.8	
515.71	9549	
515.91	8867	
516.11	7170.6	
516.3	10804	
516.5	8484.7	
516.7	7680.6	
516.89	8383	
517.09	8796	
517.29	8651.3	
517.48	8075.8	
517.68	7459.4	
517.88	8445.8	
518.07	9090.3	
518.27	7914	
518.47	6978.1	
518.66	9766.1	
518.86	8276.5	
519.06	6808.1	
519.25	7271	
519.45	8637	
519.65	10248	
519.84	7938.6	
520.04	8630.1	
520.24	10614	
520.43	9333.3	
520.63	7657.4	
520.83	7374.7	
521.02	8556.4	
521.22	9229.5	
521.42	7981.6	
521.61	8561.2	
521.81	8753.7	
522.01	9039.1	
522.2	7837.6	
522.4	7576.8	
522.6	9597.5	
522.79	8268.3	
522.99	7679.9	
523.18	6963.8	
523.38	9293	
523.58	9296.4	
523.77	9087.5	
523.97	6961	
524.17	11314	
524.36	10285	
524.56	8486.8	
524.76	8084	
524.95	9384.5	
525.15	9018.6	
525.34	7886.7	
525.54	7901.7	
525.74	9759.3	
525.93	8659.5	
526.13	9195.4	
526.33	7879.9	
526.52	10193	
526.72	9593.4	
526.91	9256.1	
527.11	8561.2	
527.31	10247	
527.5	10671	
527.7	8380.3	
527.89	7402	
528.09	9030.9	
528.29	9680.7	
528.48	8850.6	
528.68	8520.2	
528.87	10130	
529.07	10201	
529.27	8290.2	
529.46	7838.3	
529.66	9782.5	
529.85	10191	
530.05	7639.6	
530.25	8519.5	
530.44	11310	
530.64	9699.9	
530.83	8159.8	
531.03	8448.6	
531.23	10183	
531.42	10075	
531.62	9218.6	
531.81	8427.4	
532.01	10340	
532.21	10944	
532.4	8214.4	
532.6	8620.6	
532.79	11483	
532.99	10536	
533.18	8643.8	
533.38	9807	
533.58	10118	
533.77	10819	
533.97	8665	
534.16	9555.8	
534.36	11100	
534.55	10150	
534.75	9752.4	
534.95	8822	
535.14	11030	
535.34	10183	
535.53	8334.6	
535.73	10490	
535.92	11500	
536.12	10346	
536.31	8544.8	
536.51	9947.7	
536.71	10621	
536.9	10235	
537.1	8692.9	
537.29	8936	
537.49	11159	
537.68	10169	
537.88	9408.4	
538.07	8508.6	
538.27	10429	
538.46	11538	
538.66	8380.3	
538.86	8901.8	
539.05	10467	
539.25	11076	
539.44	9211.1	
539.64	8786.5	
539.83	10356	
540.03	11355	
540.22	8713.4	
540.42	8776.9	
540.61	10671	
540.81	10642	
541	9340.8	
541.2	9911.5	
541.39	10076	
541.59	10521	
541.78	9637.1	
541.98	8733.9	
542.18	9820.7	
542.37	9745.6	
542.57	9112.8	
542.76	9637.1	
542.96	9803.6	
543.15	10667	
543.35	9082.1	
543.54	8404.9	
543.74	10947	
543.93	10525	
544.13	9084.8	
544.32	10198	
544.52	10777	
544.71	10041	
544.91	8154.3	
545.1	9469.1	
545.3	9952.4	
545.49	10912	
545.69	8149.6	
545.88	8733.2	
546.08	11713	
546.27	11295	
546.47	9274.6	
546.66	8532.5	
546.86	10998	
547.05	11675	
547.24	8807.6	
547.44	8618.5	
547.63	9842.5	
547.83	11133	
548.02	9073.9	
548.22	9246.6	
548.41	9693	
548.61	11247	
548.8	8583.7	
549	8568	
549.19	10337	
549.39	10772	
549.58	8187.1	
549.78	8913.4	
549.97	10765	
550.17	10218	
550.36	9712.2	
550.55	10824	
550.75	10227	
550.94	11167	
551.14	8450.6	
551.33	8884.1	
551.53	9528.5	
551.72	10580	
551.92	8936	
552.11	8701.8	
552.31	10755	
552.5	10776	
552.69	10466	
552.89	8254.7	
553.08	10682	
553.28	10383	
553.47	8723.7	
553.67	9830.9	
553.86	11419	
554.06	9577.7	
554.25	7846.5	
554.44	8483.4	
554.64	12113	
554.83	11505	
555.03	8527.7	
555.22	8927.8	
555.42	10834	
555.61	10415	
555.8	8643.8	
556	8979.7	
556.19	9562	
556.39	10939	
556.58	8664.3	
556.78	8722.3	
556.97	10430	
557.16	10107	
557.36	10098	
557.55	8329.8	
557.75	9428.8	
557.94	11232	
558.13	8415.8	
558.33	8219.9	
558.52	11089	
558.72	9891	
558.91	8310.7	
559.1	8632.9	
559.3	9523.7	
559.49	9183.8	
559.69	7791.2	
559.88	9013.1	
560.07	10370	
560.27	10839	
560.46	9183.1	
560.66	9222	
560.85	10118	
561.04	9334	
561.24	8286.8	
561.43	8443.8	
561.63	9575.6	
561.82	9867.1	
562.01	9801.6	
562.21	8820.6	
562.4	10398	
562.59	11397	
562.79	8615.8	
562.98	8377.6	
563.18	10377	
563.37	11899	
563.56	9284.8	
563.76	8322.3	
563.95	9818.6	
564.14	9654.8	
564.34	8669.7	
564.53	8393.9	
564.73	10363	
564.92	10753	
565.11	8825.4	
565.31	8209.6	
565.5	11050	
565.69	9874.6	
565.89	8414.4	
566.08	8877.9	
566.27	10903	
566.47	11267	
566.66	9408.4	
566.85	8006.2	
567.05	10308	
567.24	9745.6	
567.44	8383.7	
567.63	9845.3	
567.82	10735	
568.02	10436	
568.21	8465.6	
568.4	8901.8	
568.6	10235	
568.79	10181	
568.98	8132.5	
569.18	8486.1	
569.37	10210	
569.56	12332	
569.76	8783.1	
569.95	9796.8	
570.14	10689	
570.34	10540	
570.53	8336.6	
570.72	8258.8	
570.91	11108	
571.11	10274	
571.3	8806.3	
571.49	9792	
571.69	10329	
571.88	9744.2	
572.07	9454.1	
572.27	9381.7	
572.46	9821.4	
572.65	10894	
572.85	8602.8	
573.04	8914.8	
573.23	11172	
573.43	10411	
573.62	8295.6	
573.81	9079.3	
574	10378	
574.2	10243	
574.39	8684.8	
574.58	8853.4	
574.78	11307	
574.97	10622	
575.16	9295	
575.36	9473.9	
575.55	10933	
575.74	11065	
575.93	8288.8	
576.13	9491.7	
576.32	10293	
576.51	10934	
576.71	8785.1	
576.9	10258	
577.09	11278	
577.28	10755	
577.48	9491	
577.67	8244.4	
577.86	10493	
578.05	10756	
578.25	9051.3	
578.44	9131.2	
578.63	10615	
578.83	11759	
579.02	8430.8	
579.21	9916.3	
579.4	10768	
579.6	10427	
579.79	9202.9	
579.98	11556	
580.17	11183	
580.37	11265	
580.56	8584.4	
580.75	9377.6	
580.94	11686	
581.14	11455	
581.33	9873.9	
581.52	8692.9	
581.71	11013	
581.91	11715	
582.1	8429.4	
582.29	9119.6	
582.48	10646	
582.68	10527	
582.87	9601.6	
583.06	9166	
583.25	10958	
583.45	10341	
583.64	9927.9	
583.83	10667	
584.02	10397	
584.21	10972	
584.41	9910.8	
584.6	9107.3	
584.79	10636	
584.98	11488	
585.18	8454	
585.37	8583.7	
585.56	10137	
585.75	10978	
585.94	8852.7	
586.14	9544.2	
586.33	11576	
586.52	10541	
586.71	9364	
586.91	9095.7	
587.1	9928.6	
587.29	11111	
587.48	8931.9	
587.67	8871.1	
587.87	10904	
588.06	11015	
588.25	10171	
588.44	9527.8	
588.63	10531	
588.83	11129	
589.02	8897.1	
589.21	8703.2	
589.4	10176	
589.59	10055	
589.78	7844.4	
589.98	8189.1	
590.17	9601.6	
590.36	10166	
590.55	7442.3	
590.74	8363.2	
590.94	11495	
591.13	10034	
591.32	8180.3	
591.51	7723.6	
591.7	10629	
591.89	10052	
592.09	7863.5	
592.28	8370.7	
592.47	9308.7	
592.66	11224	
592.85	7783.6	
593.05	8101.8	
593.24	9930.6	
593.43	10763	
593.62	8144.1	
593.81	8624	
594	9910.8	
594.19	10126	
594.39	8013.7	
594.58	8080.6	
594.77	10231	
594.96	10979	
595.15	7937.2	
595.34	8665.6	
595.54	10309	
595.73	9303.9	
595.92	7264.8	
596.11	8516.8	
596.3	10800	
596.49	9399.5	
596.68	8286.1	
596.88	8844.5	
597.07	10490	
597.26	9230.9	
597.45	7798	
597.64	9043.1	
597.83	9508	
598.02	10206	
598.22	7859.4	
598.41	8549.6	
598.6	9851.4	
598.79	9344.2	
598.98	7849.2	
599.17	8895	
599.36	9880.1	
599.55	11178	
599.74	10109	
599.94	9796.1	
600.13	10383	
600.32	9314.8	
600.51	7595.2	
600.7	7747.5	
600.89	11120	
601.08	11278	
601.27	7533.1	
601.47	8564.6	
601.66	10409	
601.85	11114	
602.04	8259.5	
602.23	8430.8	
602.42	9389.3	
602.61	10191	
602.8	8213	
602.99	7890.1	
603.18	9768.1	
603.37	10025	
603.57	8664.3	
603.76	9172.2	
603.95	10871	
604.14	10324	
604.33	8014.4	
604.52	8298.4	
604.71	10067	
604.9	9653.4	
605.09	8942.1	
605.28	8795.3	
605.47	10692	
605.66	10329	
605.86	8591.9	
606.05	8057.4	
606.24	10647	
606.43	9088.2	
606.62	8406.9	
606.81	9171.5	
607	10433	
607.19	9777	
607.38	7699.7	
607.57	8062.9	
607.76	9508	
607.95	8911.4	
608.14	8446.5	
608.33	9097.8	
608.52	9445.2	
608.72	10435	
608.91	7603.4	
609.1	7535.2	
609.29	9566.7	
609.48	9000.1	
609.67	8636.3	
609.86	7568.6	
610.05	9084.8	
610.24	9504.6	
610.43	7451.9	
610.62	7004.7	
610.81	10716	
611	10506	
611.19	7626	
611.38	8328.4	
611.57	9856.2	
611.76	11303	
611.95	7480.5	
612.14	7199.3	
612.33	9561.3	
612.52	9073.9	
612.71	7899.7	
612.9	7103	
613.09	8818.6	
613.28	11308	
613.47	7658	
613.66	8686.8	
613.85	9684.2	
614.04	9232.2	
614.24	7742	
614.43	6904.4	
614.62	9956.5	
614.81	9909.4	
615	8327.7	
615.19	8406.2	
615.38	9068.4	
615.57	9485.5	
615.76	8168.7	
615.95	9151	
616.14	9998.9	
616.33	9494.4	
616.52	8594.6	
616.71	8751	
616.9	9895.1	
617.09	9787.9	
617.28	7894.2	
617.47	9215.2	
617.66	8964	
617.85	8956.4	
618.04	8924.4	
618.22	8230.8	
618.41	9337.4	
618.6	10260	
618.79	8142.7	
618.98	7906.5	
619.17	10576	
619.36	8959.2	
619.55	8011.7	
619.74	8099	
619.93	9914.9	
620.12	9278.7	
620.31	8748.2	
620.5	8821.3	
620.69	10912	
620.88	11014	
621.07	9691	
621.26	8575.5	
621.45	10143	
621.64	10180	
621.83	8713.4	
622.02	7790.5	
622.21	10234	
622.4	9934	
622.59	9325.1	
622.78	8891.6	
622.97	9559.9	
623.16	10596	
623.35	8622.6	
623.54	7767.9	
623.72	9749	
623.91	9876	
624.1	8965.3	
624.29	7551.5	
624.48	11052	
624.67	10241	
624.86	8862.9	
625.05	7856.7	
625.24	11124	
625.43	9432.9	
625.62	10631	
625.81	8120.9	
626	10533	
626.19	9790.7	
626.38	8992.6	
626.56	8279.3	
626.75	9613.2	
626.94	10415	
627.13	8927.1	
627.32	7564.5	
627.51	10356	
627.7	11723	
627.89	7713.3	
628.08	8919.6	
628.27	9476.6	
628.46	9749.7	
628.65	8002.1	
628.83	7740.6	
629.02	10304	
629.21	9611.8	
629.4	8510.7	
629.59	8751	
629.78	9522.4	
629.97	10520	
630.16	8742.1	
630.35	8160.5	
630.54	10989	
630.72	10655	
630.91	8209.6	
631.1	8813.8	
631.29	10088	
631.48	10372	
631.67	8877.3	
631.86	8322.9	
632.05	9719.7	
632.24	9762.7	
632.42	7982.3	
632.61	8600.8	
632.8	9894.4	
632.99	9487.6	
633.18	8626.7	
633.37	9082.1	
633.56	10099	
633.75	9905.3	
633.93	8574.8	
634.12	8213.7	
634.31	10987	
634.5	10559	
634.69	8290.9	
634.88	8889.5	
635.07	9929.2	
635.25	10606	
635.44	9259.5	
635.63	9383.8	
635.82	9675.3	
636.01	9127.8	
636.2	9185.1	
636.39	8653.4	
636.57	10873	
636.76	10605	
636.95	8066.3	
637.14	9615.9	
637.33	10135	
637.52	11132	
637.7	7826	
637.89	8791.9	
638.08	9634.3	
638.27	11259	
638.46	8877.9	
638.65	9411.1	
638.83	11208	
639.02	9553.8	
639.21	8791.9	
639.4	9325.8	
639.59	9980.4	
639.78	9520.3	
639.96	8045.8	
640.15	8043.1	
640.34	9833.7	
640.53	10002	
640.72	7701	
640.91	8085.4	
641.09	9245.2	
641.28	10667	
641.47	8066.3	
641.66	8908.7	
641.85	10006	
642.03	10214	
642.22	8713.4	
642.41	8125	
642.6	9203.6	
642.79	8740	
642.97	7914.7	
643.16	8670.4	
643.35	9232.2	
643.54	9102.5	
643.73	7709.2	
643.91	8578.3	
644.1	8891.6	
644.29	9536.7	
644.48	7792.5	
644.67	7829.4	
644.85	9104.6	
645.04	9406.3	
645.23	7357	
645.42	7740	
645.6	8866.3	
645.79	10129	
645.98	7637.6	
646.17	6658.6	
646.36	8574.8	
646.54	9237	
646.73	8478.6	
646.92	7228	
647.11	8794	
647.29	10002	
647.48	7334.5	
647.67	7040.9	
647.86	10243	
648.05	10129	
648.23	7636.2	
648.42	8925	
648.61	9498.5	
648.8	9147.6	
648.98	7271.7	
649.17	7630	
649.36	8697.7	
649.55	8178.2	
649.73	7232.7	
649.92	8073.1	
650.11	8640.4	
650.3	9006.3	
650.48	7421.2	
650.67	7118.7	
650.86	9329.2	
651.05	8193.9	
651.23	7374.7	
651.42	7320.8	
651.61	8743.5	
651.79	8819.2	
651.98	7486	
652.17	7128.3	
652.36	9213.1	
652.54	8226.7	
652.73	7135.8	
652.92	6860	
653.11	9159.9	
653.29	9250	
653.48	6356.9	
653.67	7465.5	
653.85	8882	
654.04	10121	
654.23	7696.9	
654.42	7127.6	
654.6	8346.2	
654.79	9075.2	
654.98	6513.9	
655.16	7130.3	
655.35	7824.6	
655.54	7818.5	
655.73	6594.5	
655.91	6451.8	
656.1	9046.6	
656.29	7801.4	
656.47	6077.7	
656.66	7968.6	
656.85	8165.3	
657.03	8219.2	
657.22	6733	
657.41	6879.1	
657.59	8312	
657.78	8064.9	
657.97	6383.5	
658.16	7296.9	
658.34	9007.6	
658.53	9334.6	
658.72	8131.1	
658.9	8699.8	
659.09	8356.4	
659.28	8452.6	
659.46	6936.5	
659.65	6839.5	
659.84	8091.5	
660.02	8774.9	
660.21	6653.9	
660.4	6647.7	
660.58	9104.6	
660.77	8462.2	
660.96	7245	
661.14	6291.4	
661.33	9719	
661.52	9632.3	
661.7	6260	
661.89	10256	
662.08	8102.4	
662.26	7537.2	
662.45	6378.1	
662.64	6696.2	
662.82	8762.6	
663.01	7955	
663.2	6665.5	
663.38	7440.3	
663.57	8635.6	
663.75	8565.3	
663.94	7076.4	
664.13	8387.1	
664.31	7933.1	
664.5	8806.3	
664.69	7408.9	
664.87	7871	
665.06	7696.3	
665.25	8546.2	
665.43	8110.6	
665.62	8070.4	
665.8	8882.7	
665.99	8036.9	
666.18	6906.4	
666.36	7062.8	
666.55	8758.5	
666.74	8662.2	
666.92	6500.3	
667.11	8293.6	
667.29	8172.1	
667.48	8674.5	
667.67	7849.2	
667.85	6938.5	
668.04	8206.9	
668.22	8126.3	
668.41	6944	
668.6	7135.8	
668.78	7933.1	
668.97	8174.8	
669.15	7360.4	
669.34	6299.6	
669.53	7982.3	
669.71	8313.4	
669.9	6509.8	
670.08	7193.8	
670.27	7932.5	
670.46	8606.9	
670.64	7389.8	
670.83	7640.3	
671.01	7767.3	
671.2	8486.1	
671.38	6524.8	
671.57	6418.3	
671.76	9106.6	
671.94	9673.2	
672.13	6369.9	
672.31	7492.2	
672.5	8757.1	
672.69	8008.2	
672.87	6542.6	
673.06	6809.5	
673.24	8469	
673.43	7953.6	
673.61	7354.3	
673.8	6870.9	
673.98	8643.1	
674.17	8893.6	
674.36	7498.3	
674.54	7355.6	
674.73	8413.1	
674.91	8725	
675.1	7016.3	
675.28	6683.9	
675.47	8189.8	
675.65	8763.3	
675.84	6889.4	
676.03	7165.8	
676.21	7978.9	
676.4	7554.3	
676.58	7770.7	
676.77	7507.2	
676.95	9533.3	
677.14	7887.4	
677.32	6498.2	
677.51	6322.1	
677.69	8695.7	
677.88	7511.9	
678.06	6426.5	
678.25	6475	
678.44	8268.3	
678.62	7888.8	
678.81	6227.2	
678.99	7290.8	
679.18	9050	
679.36	8594	
679.55	6835.4	
679.73	7492.2	
679.92	8610.3	
680.1	7971.4	
680.29	8098.4	
680.47	6891.4	
680.66	7860.8	
680.84	8817.2	
681.03	6146	
681.21	7187	
681.4	7927.7	
681.58	7841	
681.77	6593.8	
681.95	6577.4	
682.14	8837.7	
682.32	9215.9	
682.51	7518.8	
682.69	6292.7	
682.88	7873.8	
683.06	8493.6	
683.25	7292.1	
683.43	7793.2	
683.62	8251.9	
683.8	8684.1	
683.99	7845.1	
684.17	7049.1	
684.36	9521	
684.54	8063.5	
684.73	6171.9	
684.91	6367.1	
685.1	8318.8	
685.28	7744.7	
685.46	6901	
685.65	7057.3	
685.83	8574.8	
686.02	8002.1	
686.2	6418.3	
686.39	6602.7	
686.57	7853.3	
686.76	9459.6	
686.94	6512.5	
687.13	6691.4	
687.31	8594.6	
687.5	8018.5	
687.68	6147.3	
687.86	7580.9	
688.05	9820	
688.23	7574.8	
688.42	7595.9	
688.6	6739.9	
688.79	7965.9	
688.97	8047.8	
689.16	7141.9	
689.34	6024.4	
689.52	8894.3	
689.71	9102.5	
689.89	7468.9	
690.08	6718	
690.26	8425.3	
690.45	8230.1	
690.63	7742	
690.81	6946.7	
691	8112	
691.18	8119.5	
691.37	7051.8	
691.55	9424.1	
691.74	8020.5	
691.92	10228	
692.1	7118.7	
692.29	6590.4	
692.47	8320.9	
692.66	7554.3	
692.84	6819.7	
693.02	7430	
693.21	7718.1	
693.39	8286.1	
693.58	7612.3	
693.76	6985.6	
693.94	9687.6	
694.13	9402.2	
694.31	7032.7	
694.5	8172.1	
694.68	8328.4	
694.86	8659.5	
695.05	7485.3	
695.23	7667.6	
695.42	9167.4	
695.6	11579	
695.78	8077.9	
695.97	7120.1	
696.15	9143.5	
696.34	8464.9	
696.52	6949.4	
696.7	7875.8	
696.89	8927.1	
697.07	8314.8	
697.25	7803.4	
697.44	9463.7	
697.62	8856.1	
697.81	9301.2	
697.99	7453.2	
698.17	8062.2	
698.36	8193.9	
698.54	8921.6	
698.72	7876.5	
698.91	6814.3	
699.09	8544.8	
699.28	8461.5	
699.46	7432.8	
699.64	7464.8	
699.83	8366	
700.01	9710.8	
700.19	8244.4	
700.38	6685.9	
700.56	9645.3	
700.74	8526.4	
700.93	7026.6	
701.11	7998.7	
701.29	9116.9	
701.48	10364	
701.66	7382.2	
701.84	7392.5	
702.03	8763.3	
702.21	9485.5	
702.39	6961	
702.58	7606.2	
702.76	9237	
702.94	9314.8	
703.13	7032.7	
703.31	9640.5	
703.49	8495.7	
703.68	9452.1	
703.86	7264.1	
704.04	8308.6	
704.23	9109.4	
704.41	9548.3	
704.59	7436.9	
704.78	8871.1	
704.96	10335	
705.14	9637.1	
705.33	7223.2	
705.51	8204.2	
705.69	8971.5	
705.87	9922.4	
706.06	8480.6	
706.24	7221.1	
706.42	9334	
706.61	9617.3	
706.79	8489.5	
706.97	7367.2	
707.16	8739.4	
707.34	9429.5	
707.52	8532.5	
707.7	7604.1	
707.89	9002.9	
708.07	8684.8	
708.25	8596	
708.44	8638.3	
708.62	8992.6	
708.8	10140	
708.98	8868.4	
709.17	7649.8	
709.35	9341.5	
709.53	9451.4	
709.72	7385	
709.9	7562.5	
710.08	9708.1	
710.26	9723.8	
710.45	9146.9	
710.63	7785.7	
710.81	9352.4	
710.99	9315.5	
711.18	8403.5	
711.36	7823.9	
711.54	9220	
711.72	9884.2	
711.91	7970.7	
712.09	7402.7	
712.27	9218.6	
712.45	10072	
712.64	8189.1	
712.82	7089.4	
713	8630.1	
713.18	8802.2	
713.37	7245	
713.55	8533.2	
713.73	9676.7	
713.91	8036.9	
714.1	7335.8	
714.28	6807.4	
714.46	9019.9	
714.64	8161.2	
714.83	6121.4	
715.01	6947.4	
715.19	8206.2	
715.37	7514.7	
715.55	6600.6	
715.74	6878.4	
715.92	9085.5	
716.1	6935.1	
716.28	7957	
716.47	6969.9	
716.65	7714	
716.83	7884.7	
717.01	6901	
717.19	6924.9	
717.38	9986.6	
717.56	7503.8	
717.74	7145.4	
717.92	6262.7	
718.1	8933.9	
718.29	8111.3	
718.47	6019.7	
718.65	6778.8	
718.83	8921	
719.01	8897.1	
719.2	6025.1	
719.38	7243.7	
719.56	8497	
719.74	10206	
719.92	6776.7	
720.11	7887.4	
720.29	8563.9	
720.47	7611.6	
720.65	6162.3	
720.83	7099.6	
721.02	7831.4	
721.2	7534.5	
721.38	7038.9	
721.56	6313.2	
721.74	7097.6	
721.92	7335.1	
722.11	7569.3	
722.29	7230.7	
722.47	8618.5	
722.65	7688.1	
722.83	6337.1	
723.01	7264.1	
723.2	7881.3	
723.38	8153.6	
723.56	5735	
723.74	6956.9	
723.92	7251.2	
724.1	8575.5	
724.29	6213.5	
724.47	7479.9	
724.65	7414.3	
724.83	7342.7	
725.01	6029.2	
725.19	7116	
725.37	7331.7	
725.56	7477.8	
725.74	5922	
725.92	6322.1	
726.1	7305.1	
726.28	7621.2	
726.46	6753.5	
726.64	6391	
726.83	7580.9	
727.01	7879.9	
727.19	5958.9	
727.37	6892.1	
727.55	7779.6	
727.73	8337.3	
727.91	5843.5	
728.09	5767.8	
728.28	8374.8	
728.46	9035.6	
728.64	7043	
728.82	6988.4	
729	9534	
729.18	8717.5	
729.36	6256.5	
729.54	8658.1	
729.72	9970.2	
729.91	8152.3	
730.09	8315.4	
730.27	7031.4	
730.45	8058.1	
730.63	8766	
730.81	7709.9	
730.99	6714.6	
731.17	9307.3	
731.35	7803.4	
731.53	7284.6	
731.71	6816.3	
731.9	8966.7	
732.08	9189.2	
732.26	7113.3	
732.44	6722.8	
732.62	9230.2	
732.8	8722.3	
732.98	7427.3	
733.16	6484.6	
733.34	8609	
733.52	7366.5	
733.7	6997.2	
733.88	7253.9	
734.07	8458.8	
734.25	8159.8	
734.43	6427.9	
734.61	8079.9	
734.79	9806.4	
734.97	8098.4	
735.15	6598.6	
735.33	6903.7	
735.51	8480	
735.69	8062.2	
735.87	8185	
736.05	7159	
736.23	8342.1	
736.41	8029.4	
736.59	6963.8	
736.77	7098.9	
736.95	8813.1	
737.13	8132.5	
737.32	6587.6	
737.5	6839.5	
737.68	9293.7	
737.86	7955.7	
738.04	6341.2	
738.22	8346.8	
738.4	7756.3	
738.58	8018.5	
738.76	7006.1	
738.94	5864	
739.12	7929.1	
739.3	7849.9	
739.48	7769.3	
739.66	7414.3	
739.84	8239	
740.02	8247.2	
740.2	6070.2	
740.38	6446.3	
740.56	8626	
740.74	7376.1	
740.92	7124.2	
741.1	7014.3	
741.28	7908.6	
741.46	7808.2	
741.64	6573.3	
741.82	7088	
742	7927.7	
742.18	7931.8	
742.36	6802.7	
742.54	6310.5	
742.72	8520.9	
742.9	7218.4	
743.08	7258	
743.26	5853.8	
743.44	8766	
743.62	8543.4	
743.8	7327.6	
743.98	6343.9	
744.16	8305.9	
744.34	7905.8	
744.52	7165.2	
744.7	7149.5	
744.88	8332.5	
745.06	7823.2	
745.24	7178.8	
745.42	7335.8	
745.6	8387.8	
745.78	8102.4	
745.96	5877	
746.14	6210.8	
746.32	9300.5	
746.5	8332.5	
746.68	6779.5	
746.86	6292	
747.03	8918.9	
747.21	6969.9	
747.39	6773.3	
747.57	6214.2	
747.75	7896.3	
747.93	8344.1	
748.11	6195.8	
748.29	6172.6	
748.47	9633.6	
748.65	7562.5	
748.83	6952.2	
749.01	6751.5	
749.19	8130.4	
749.37	7264.8	
749.55	6477.7	
749.73	6616.3	
749.91	7772	
750.09	7479.9	
750.26	6640.9	
750.44	5939.1	
750.62	7793.9	
750.8	7764.5	
750.98	5859.2	
751.16	6195.8	
751.34	7841.7	
751.52	7122.8	
751.7	7065.5	
751.88	5791	
752.06	8342.7	
752.24	8050.6	
752.42	5765.7	
752.59	6111.1	
752.77	7589.8	
752.95	9050	
753.13	6937.2	
753.31	6320	
753.49	7340.6	
753.67	7834.2	
753.85	6691.4	
754.03	6094.8	
754.21	8029.4	
754.38	8472.4	
754.56	6150.1	
754.74	5141.1	
754.92	7108.5	
755.1	7828	
755.28	5091.3	
755.46	4981.3	
755.64	8393.3	
755.82	8401.5	
755.99	4968.4	
756.17	5037.3	
756.35	5478.3	
756.53	7187	
756.71	3762.1	
756.89	4784.7	
757.07	6730.3	
757.25	5777.3	
757.42	5429.2	
757.6	6458.6	
757.78	6971.3	
757.96	5918.6	
758.14	5268.7	
758.32	4693.3	
758.5	5410.1	
758.67	6363.7	
758.85	4954	
759.03	5138.4	
759.21	6478.4	
759.39	5921.4	
759.57	4572.4	
759.75	5808.7	
759.92	7186.3	
760.1	6427.9	
760.28	6174.6	
760.46	6544.6	
760.64	6275.7	
760.82	5971.2	
760.99	6214.2	
761.17	5304.9	
761.35	7206.8	
761.53	6141.9	
761.71	5496.7	
761.89	6219	
762.06	7186.3	
762.24	6621.1	
762.42	5622.4	
762.6	5380.7	
762.78	6655.9	
762.96	7389.8	
763.13	5997.1	
763.31	5754.8	
763.49	7621.9	
763.67	6571.9	
763.85	6707.8	
764.02	7152.9	
764.2	7879.9	
764.38	6950.1	
764.56	5500.2	
764.74	6522.8	
764.91	7985	
765.09	6819.7	
765.27	5216.2	
765.45	5012.7	
765.63	7955	
765.8	7901.7	
765.98	4681	
766.16	5037.3	
766.34	6276.3	
766.52	6060.6	
766.69	6021	
766.87	4881.7	
767.05	6688.7	
767.23	7625.3	
767.41	5223	
767.58	5421	
767.76	7197.9	
767.94	7372.7	
768.12	5201.2	
768.29	6064.7	
768.47	6679.8	
768.65	7589.8	
768.83	4762.9	
769	6047	
769.18	6221.7	
769.36	7002.7	
769.54	5935.7	
769.72	4831.8	
769.89	7130.3	
770.07	7352.2	
770.25	5145.2	
770.43	6488.6	
770.6	8092.9	
770.78	8526.4	
770.96	5315.2	
771.14	5971.9	
771.31	7032.7	
771.49	6375.3	
771.67	4397	
771.85	4706.9	
772.02	5532.2	
772.2	6345.3	
772.38	5381.4	
772.55	4829.1	
772.73	6647.7	
772.91	6379.4	
773.09	5224.4	
773.26	5353.4	
773.44	6550.1	
773.62	6179.4	
773.8	4646.2	
773.97	4439.3	
774.15	6638.8	
774.33	6162.3	
774.5	4598.4	
774.68	5021.6	
774.86	6788.3	
775.04	6172.6	
775.21	4656.4	
775.39	4603.8	
775.57	6506.4	
775.74	6972.7	
775.92	4517.8	
776.1	4357.4	
776.27	6378.1	
776.45	7717.4	
776.63	4525.3	
776.81	4031.1	
776.98	6062.7	
777.16	7086.7	
777.34	4711.7	
777.51	4661.9	
777.69	5945.9	
777.87	5726.1	
778.04	4674.1	
778.22	5433.3	
778.4	5730.2	
778.57	6438.8	
778.75	3954.6	
778.93	4222.2	
779.1	5503.6	
779.28	5394.3	
779.46	3971.7	
779.64	4491.2	
779.81	6594.5	
779.99	7567.9	
780.17	5345.2	
780.34	5425.1	
780.52	5958.2	
780.69	6176	
780.87	4768.4	
781.05	4326.7	
781.22	6025.1	
781.4	6151.4	
781.58	4508.3	
781.75	3540.3	
781.93	6007.4	
782.11	5460.6	
782.28	5410.1	
782.46	4416.1	
782.64	5227.1	
782.81	6245.6	
782.99	4564.2	
783.17	4500.1	
783.34	6038.1	
783.52	5213.4	
783.69	4752.7	
783.87	5580	
784.05	5283.1	
784.22	5419.6	
784.4	5544.5	
784.58	4780	
784.75	6385.6	
784.93	5316.5	
785.1	4410	
785.28	5095.3	
785.46	6087.2	
785.63	5353.4	
785.81	4334.9	
785.99	4228.4	
786.16	5444.9	
786.34	5969.1	
786.51	4266.6	
786.69	4726.7	
786.87	5042.1	
787.04	5683.8	
787.22	4021.5	
787.39	5160.9	
787.57	5288.5	
787.75	6507.8	
787.92	5285.8	
788.1	5251.7	
788.27	5354.1	
788.45	5023	
788.63	4867.3	
788.8	3515	
788.98	5803.3	
789.15	5032.5	
789.33	3682.9	
789.5	4417.5	
789.68	6286.6	
789.86	6358.9	
790.03	4786.1	
790.21	4240.7	
790.38	6253.8	
790.56	5415.5	
790.73	4056.3	
790.91	4065.2	
791.09	5287.9	
791.26	6115.2	
791.44	4232.5	
791.61	3697.3	
791.79	5250.3	
791.96	5347.2	
792.14	3815.4	
792.32	3373	
792.49	5225.1	
792.67	5384.1	
792.84	3932.8	
793.02	3721.2	
793.19	5741.1	
793.37	6544.6	
793.54	3416	
793.72	3749.1	
793.89	6679.1	
794.07	5266	
794.25	4490.5	
794.42	3513.6	
794.6	6440.9	
794.77	6094.1	
794.95	4686.4	
795.12	4084.3	
795.3	5242.8	
795.47	5985.5	
795.65	4515.8	
795.82	4379.2	
796	5025	
796.17	7176.8	
796.35	4236.6	
796.52	4949.3	
796.7	5828.5	
796.87	5956.2	
797.05	5268.1	
797.22	5119.2	
797.4	5861.3	
797.57	7042.3	
797.75	4302.1	
797.92	4036.5	
798.1	6178.7	
798.27	5221	
798.45	3459.7	
798.62	3737.5	
798.8	5566.4	
798.97	6075	
799.15	4637.3	
799.32	4330.8	
799.5	4796.3	
799.67	5671.5	
799.85	4722.6	
800.02	3424.9	
800.2	5187.5	
800.37	5535.7	
800.55	4890.5	
800.72	4059.8	
800.9	6004.6	
801.07	6551.5	
801.25	5502.2	
801.42	4500.1	
801.6	6093.4	
801.77	5800.5	
801.95	4166.3	
802.12	3932.1	
802.29	5734.3	
802.47	5715.2	
802.64	4424.3	
802.82	3302	
802.99	5226.4	
803.17	6290.7	
803.34	4287.8	
803.52	3897.3	
803.69	6954.2	
803.87	4923.3	
804.04	4265.2	
804.21	4398.4	
804.39	6369.2	
804.56	5458.5	
804.74	3637.9	
804.91	4489.1	
805.09	5232.6	
805.26	5403.2	
805.44	3656.3	
805.61	4034.5	
805.78	5927.5	
805.96	5972.6	
806.13	4471.4	
806.31	4826.4	
806.48	4666.6	
806.66	5315.2	
806.83	4428.4	
807	4388.1	
807.18	5141.8	
807.35	5614.8	
807.53	4306.2	
807.7	3420.8	
807.87	6441.5	
808.05	5242.1	
808.22	4816.1	
808.4	3409.2	
808.57	5240.1	
808.74	4842.8	
808.92	3895.2	
809.09	5059.8	
809.27	5055.1	
809.44	5760.9	
809.61	3488.4	
809.79	3872	
809.96	6388.3	
810.14	6032.6	
810.31	3377.1	
810.48	4108.2	
810.66	5341.1	
810.83	6141.9	
811.01	3990.8	
811.18	4360.1	
811.35	6023.8	
811.53	4660.5	
811.7	4801.8	
811.87	4429.8	
812.05	5185.5	
812.22	5141.8	
812.39	3840.6	
812.57	3707.5	
812.74	5228.5	
812.92	7012.9	
813.09	4160.8	
813.26	4536.9	
813.44	6723.5	
813.61	5172.5	
813.78	3454.2	
813.96	4619.5	
814.13	5248.3	
814.3	4885.8	
814.48	5005.2	
814.65	4213.4	
814.82	6531	
815	4982	
815.17	4288.4	
815.34	5246.2	
815.52	5163.6	
815.69	5119.2	
815.87	4231.1	
816.04	3696.6	
816.21	5315.2	
816.38	4584.7	
816.56	4098.7	
816.73	3768.3	
816.9	6657.3	
817.08	6065.4	
817.25	3807.2	
817.42	4870.1	
817.6	4771.1	
817.77	5221	
817.94	4373.1	
818.12	3775.8	
818.29	4958.1	
818.46	7881.3	
818.64	3984.7	
818.81	3731.4	
818.98	4883.7	
819.16	7175.4	
819.33	4598.4	
819.5	4273.4	
819.67	5606.7	
819.85	6305	
820.02	4102.1	
820.19	4480.3	
820.37	5451.7	
820.54	4971.8	
820.71	4321.2	
820.88	5418.2	
821.06	5492	
821.23	5037.3	
821.4	4321.9	
821.58	4317.8	
821.75	6010.8	
821.92	5372.5	
822.09	3469.3	
822.27	3606.5	
822.44	5260.5	
822.61	5070.1	
822.79	3484.3	
822.96	6789.7	
823.13	5750	
823.3	4900.1	
823.48	4050.9	
823.65	3676.8	
823.82	5961.6	
823.99	4715.8	
824.17	5134.9	
824.34	3754.6	
824.51	6933.7	
824.68	5255.1	
824.86	3874.1	
825.03	4356.7	
825.2	5230.5	
825.37	6398.5	
825.55	3814.7	
825.72	4254.3	
825.89	7071	
826.06	6520	
826.24	4191.5	
826.41	4164.9	
826.58	6391.7	
826.75	5532.9	
826.92	3222.1	
827.1	3644	
827.27	8777.6	
827.44	6963.8	
827.61	3953.3	
827.79	4794.3	
827.96	4947.2	
828.13	5350.7	
828.3	4118.5	
828.47	3433.8	
828.65	5427.1	
828.82	5405.3	
828.99	5371.8	
829.16	4676.9	
829.34	5842.2	
829.51	5583.4	
829.68	4263.9	
829.85	4448.9	
830.02	6110.5	
830.2	5904.3	
830.37	3287.7	
830.54	5183.4	
830.71	6799.9	
830.88	5214.1	
831.05	3344.3	
831.23	3844	
831.4	6399.2	
831.57	7320.8	
831.74	3904.1	
831.91	3442	
832.09	5431.2	
832.26	5862.7	
832.43	4034.5	
832.6	4611.3	
832.77	5461.2	
832.94	6328.2	
833.12	3259.7	
833.29	4022.2	
833.46	5657.9	
833.63	7499.7	
833.8	4514.4	
833.97	4121.2	
834.15	5935	
834.32	5616.2	
834.49	4280.9	
834.66	4367.6	
834.83	6113.2	
835	4946.5	
835.17	3969	
835.35	4040.6	
835.52	5767.1	
835.69	5615.5	
835.86	4197.7	
836.03	3401.7	
836.2	5758.2	
836.37	5412.1	
836.55	4121.2	
836.72	3900	
836.89	5416.9	
837.06	5952.8	
837.23	4169.7	
837.4	4597	
837.57	6747.4	
837.75	7514	
837.92	3791.5	
838.09	4035.2	
838.26	5344.5	
838.43	6188.3	
838.6	4326.7	
838.77	3878.9	
838.94	7067.5	
839.11	6788.3	
839.29	4108.9	
839.46	3205.8	
839.63	5797.8	
839.8	5504.3	
839.97	3916.4	
840.14	3998.3	
840.31	5658.5	
840.48	5887.9	
840.65	3264.5	
840.82	3870.7	
841	5900.2	
841.17	5791.7	
841.34	3680.9	
841.51	3648.8	
841.68	5772.5	
841.85	5498.1	
842.02	3803.1	
842.19	3110.2	
842.36	5596.4	
842.53	5556.1	
842.7	3684.3	
842.87	4498	
843.05	7405.5	
843.22	5457.2	
843.39	3461.7	
843.56	3721.2	
843.73	5212.1	
843.9	5869.5	
844.07	5978	
844.24	4951.3	
844.41	8734.6	
844.58	5052.3	
844.75	3533.4	
844.92	3805.1	
845.09	5892.7	
845.26	5816.2	
845.43	3614	
845.6	3830.4	
845.77	5840.8	
845.94	5535.7	
846.12	4066.6	
846.29	4340.3	
846.46	6036.7	
846.63	5870.2	
846.8	3632.4	
846.97	4371	
847.14	6305.7	
847.31	5819	
847.48	4080.2	
847.65	4541	
847.82	6087.9	
847.99	6119.3	
848.16	4873.5	
848.33	4447.5	
848.5	5320.6	
848.67	6313.9	
848.84	3648.8	
849.01	3743.7	
849.18	5250.3	
849.35	4869.4	
849.52	4552	
849.69	3522.5	
849.86	5996.5	
850.03	6301.6	
850.2	3598.3	
850.37	4463.2	
850.54	6286.6	
850.71	5465.3	
850.88	4390.8	
851.05	3557.3	
851.22	5731.6	
851.39	6376	
851.56	3418.7	
851.73	4158.7	
851.9	5076.9	
852.07	6078.4	
852.24	4002.4	
852.41	3592.8	
852.58	5667.4	
852.75	5184.8	
852.92	4055.7	
853.09	3544.4	
853.26	5459.9	
853.43	6326.2	
853.6	3604.4	
853.77	3149.1	
853.94	6406.7	
854.11	5791.7	
854.28	5408	
854.44	3936.2	
854.61	6827.9	
854.78	6115.9	
854.95	3608.5	
855.12	4571.7	
855.29	4627.7	
855.46	6453.8	
855.63	3618.8	
855.8	5005.2	
855.97	5337.7	
856.14	6168.5	
856.31	5225.7	
856.48	3941.7	
856.65	5383.4	
856.82	5079	
856.99	3442.6	
857.16	3917.1	
857.33	7137.2	
857.49	5455.8	
857.66	3921.9	
857.83	4229.7	
858	5393	
858.17	5636.7	
858.34	3429	
858.51	3571	
858.68	6535.1	
858.85	6602.7	
859.02	4169.7	
859.19	4521.2	
859.36	5038.7	
859.52	5102.9	
859.69	3629.7	
859.86	4298	
860.03	5123.3	
860.2	6418.3	
860.37	3284.3	
860.54	3635.1	
860.71	6024.4	
860.88	6576	
861.05	4087.7	
861.21	4606.6	
861.38	6519.4	
861.55	4930.1	
861.72	3329.3	
861.89	4038.6	
862.06	6081.8	
862.23	6672.3	
862.4	3559.4	
862.56	3826.3	
862.73	5928.9	
862.9	5597.1	
863.07	4268	
863.24	3251.5	
863.41	4992.9	
863.58	5106.3	
863.75	3689.1	
863.91	4156	
864.08	6559.6	
864.25	6004	
864.42	4572.4	
864.59	5102.9	
864.76	6815	
864.93	5140.4	
865.09	3560.1	
865.26	3840.6	
865.43	6410.1	
865.6	6805.4	
865.77	3143.6	
865.94	3543.7	
866.1	6404	
866.27	6185.5	
866.44	5552.7	
866.61	3396.2	
866.78	5474.9	
866.95	5937.7	
867.11	3505.4	
867.28	3183.2	
867.45	6180.8	
867.62	5194.3	
867.79	4277.5	
867.96	3545.7	
868.12	5094.7	
868.29	6132.3	
868.46	3580.5	
868.63	4855.7	
868.8	6307.1	
868.97	6009.4	
869.13	3825.6	
869.3	3800.3	
869.47	5943.9	
869.64	6194.4	
869.81	3622.9	
869.97	3652.9	
870.14	5855.8	
870.31	6539.2	
870.48	3463.1	
870.65	4552.6	
870.81	5392.3	
870.98	5375.2	
871.15	4109.6	
871.32	3686.3	
871.48	5930.2	
871.65	6590.4	
871.82	3547.8	
871.99	4012	
872.16	7060	
872.32	6445	
872.49	3591.5	
872.66	3659.7	
872.83	6068.1	
872.99	5296	
873.16	4105.5	
873.33	3618.8	
873.5	5647.6	
873.67	5697.4	
873.83	3758.7	
874	4886.5	
874.17	5803.3	
874.34	6943.3	
874.5	4660.5	
874.67	4536.9	
874.84	6521.4	
875.01	5068	
875.17	5143.8	
875.34	3567.6	
875.51	5769.1	
875.68	6976.7	
875.84	4326	
876.01	5377.3	
876.18	6057.2	
876.34	5980.8	
876.51	3604.4	
876.68	3508.2	
876.85	5470.1	
877.01	6397.2	
877.18	5242.1	
877.35	3573.7	
877.52	5603.2	
877.68	4965.6	
877.85	3515	
878.02	3520.5	
878.18	5632.6	
878.35	5263.3	
878.52	2886.3	
878.69	4076.8	
878.85	6029.9	
879.02	6019.7	
879.19	5120.6	
879.35	3943	
879.52	6016.2	
879.69	6248.4	
879.86	3124.5	
880.02	4069.3	
880.19	5551.4	
880.36	6836.8	
880.52	4155.3	
880.69	4306.2	
880.86	6157.6	
881.02	6248.4	
881.19	3951.2	
881.36	4007.9	
881.52	5999.2	
881.69	5330.9	
881.86	3900.7	
882.02	3790.1	
882.19	6250.4	
882.36	7397.3	
882.52	3686.3	
882.69	5162.9	
882.86	5785.5	
883.02	5703.6	
883.19	4418.2	
883.36	4136.9	
883.52	6122.1	
883.69	7021.8	
883.86	3644.7	
884.02	3283.6	
884.19	6130.3	
884.36	5599.1	
884.52	4071.4	
884.69	3796.9	
884.86	5304.9	
885.02	6737.1	
885.19	4031.8	
885.36	4151.2	
885.52	5610.1	
885.69	5776	
885.86	5313.1	
886.02	4628.4	
886.19	6077.7	
886.35	5524.7	
886.52	4022.2	
886.69	5068.7	
886.85	5137	
887.02	6428.6	
887.19	6428.6	
887.35	6428.6	
887.52	6428.6	
887.68	6428.6	
887.85	6428.6	
888.02	6428.6	
888.18	6428.6	
888.35	6428.6	
888.51	6428.6	
888.68	6428.6	
888.85	6428.6	
889.01	6428.6	
889.18	6428.6	
889.35	6428.6	
889.51	6428.6	
889.68	6428.6	
889.84	6428.6	
890.01	6428.6	
890.17	6428.6	
890.34	6428.6	
890.51	6428.6	
890.67	6428.6	
890.84	6428.6	
891	6428.6	
891.17	6428.6	
891.34	6428.6	
891.5	6428.6	
891.67	6428.6	
891.83	6428.6	
892	6428.6	
892.16	6428.6	
892.33	6428.6	
892.5	6428.6	
892.66	6428.6	
892.83	6428.6	
892.99	6428.6	
893.16	6428.6	
893.32	6428.6	
893.49	6428.6	
893.65	6428.6	
893.82	6428.6	
893.99	6428.6	
894.15	6428.6	
894.32	6428.6	
894.48	6428.6	
894.65	6428.6	
894.81	6428.6	
894.98	6428.6	
895.14	6428.6	
895.31	6428.6	
895.47	6428.6	
895.64	6428.6	
895.81	6428.6	
895.97	6428.6	
896.14	6428.6	
896.3	6428.6	
896.47	6428.6	
896.63	6428.6	
896.8	6428.6	
896.96	6428.6	
897.13	6428.6	
897.29	6428.6	
897.46	6428.6	
897.62	6428.6	
897.79	6428.6	
897.95	6428.6	
898.12	6428.6	
898.28	6428.6	
898.45	6428.6	
898.61	6428.6	
898.78	6428.6	
898.94	6428.6	
899.11	6428.6	
899.27	6428.6	
899.44	6428.6	
899.6	6428.6	
899.77	6428.6	
899.93	6428.6	
900.1	6428.6	
900.26	6428.6	
900.43	6428.6	
900.59	6428.6	
900.76	6428.6	
900.92	6428.6	
901.09	6428.6	
901.25	6428.6	
901.42	6428.6	
901.58	6428.6	
901.75	6428.6	
901.91	6428.6	
902.07	6428.6	
902.24	6428.6	
902.4	6428.6	
902.57	6428.6	
902.73	6428.6	
902.9	6428.6	
903.06	6428.6	
903.23	6428.6	
903.39	6428.6	
903.56	6428.6	
903.72	6428.6	
903.88	6428.6	
904.05	6428.6	
904.21	6428.6	
904.38	6428.6	
904.54	6428.6	
904.71	6428.6	
904.87	6428.6	
905.03	6428.6	
905.2	6428.6	
905.36	6428.6	
905.53	6428.6	
905.69	6428.6	
905.86	6428.6	
906.02	6428.6	
906.18	6428.6	
906.35	6428.6	
906.51	6428.6	
906.68	6428.6	
906.84	6428.6	
907.01	6428.6	
907.17	6428.6	
907.33	6428.6	
907.5	6428.6	
907.66	6428.6	
907.83	6428.6	
907.99	6428.6	
908.15	6428.6	
908.32	6428.6	
908.48	6428.6	
908.65	6428.6	
908.81	6428.6	
908.97	6428.6	
909.14	6428.6	
909.3	6428.6	
909.47	6428.6	
909.63	6428.6	
909.79	6428.6	
909.96	6428.6	
910.12	6428.6	
910.28	6428.6	
910.45	6428.6	
910.61	6428.6	
910.78	6428.6	
910.94	6428.6	
911.1	6428.6	
911.27	6428.6	
911.43	6428.6	
911.59	6428.6	
911.76	6428.6	
911.92	6428.6	
912.08	6428.6	
912.25	6428.6	
912.41	6428.6	
912.57	6428.6	
912.74	6428.6	
912.9	6428.6	
913.07	6428.6	
913.23	6428.6	
913.39	6428.6	
913.56	6428.6	
913.72	6428.6	
913.88	6428.6	
914.05	6428.6	
914.21	6428.6	
914.37	6428.6	
914.54	6428.6	
914.7	6428.6	
914.86	6428.6	
915.03	6428.6	
915.19	6428.6	
