Wavelength	Intensities	
nm	a.u.	
179.22	1732.8	
179.44	1737.7	
179.65	1727.8	
179.86	1747.6	
180.08	1734.6	
180.29	4138.9	
180.51	3078.1	
180.72	5118.6	
180.94	5836	
181.15	2869.9	
181.37	2837.1	
181.58	4934.2	
181.79	5168.4	
182.01	2962	
182.22	3145	
182.44	5208	
182.65	4427.7	
182.87	3900.7	
183.08	3435.1	
183.29	5406.6	
183.51	4487.1	
183.72	3068.5	
183.94	4425	
184.15	4907.6	
184.37	4799.8	
184.58	2772.9	
184.79	3672.7	
185.01	4610	
185.22	5196.4	
185.44	3833.1	
185.65	3337.5	
185.86	4833.9	
186.08	4457.7	
186.29	2723.8	
186.51	2929.3	
186.72	4600.4	
186.94	5269.4	
187.15	3334.1	
187.36	3429.7	
187.58	6681.8	
187.79	4990.9	
188.01	3513.6	
188.22	5374.6	
188.43	5877	
188.65	5130.8	
188.86	2927.9	
189.08	3486.3	
189.29	4769.7	
189.5	4673.5	
189.72	3224.2	
189.93	3201	
190.15	5286.5	
190.36	6190.3	
190.57	3315	
190.79	3379.1	
191	5344.5	
191.22	5335.6	
191.43	3497.2	
191.64	2987.3	
191.86	5563.6	
192.07	5285.1	
192.29	3056.3	
192.5	3153.9	
192.71	5370.5	
192.93	4685.1	
193.14	3175.7	
193.35	3228.3	
193.57	4670.7	
193.78	5361.6	
194	2609.8	
194.21	3158.7	
194.42	4526.7	
194.64	4870.8	
194.85	3358.7	
195.07	4024.3	
195.28	4877.6	
195.49	4354.7	
195.71	4187.4	
195.92	3006.4	
196.13	5036.6	
196.35	5141.8	
196.56	4435.9	
196.78	3433.1	
196.99	6132.3	
197.2	5772.5	
197.42	3859.7	
197.63	3470.6	
197.84	4452.3	
198.06	5039.4	
198.27	3151.8	
198.48	4162.2	
198.7	4651.6	
198.91	4861.2	
199.13	3460.4	
199.34	3447.4	
199.55	5314.5	
199.77	4250.9	
199.98	3050.8	
200.19	3467.2	
200.41	4864.6	
200.62	4563.6	
200.83	3558.7	
201.05	3839.9	
201.26	4841.4	
201.47	4597.7	
201.69	3065.1	
201.9	3020.1	
202.11	4875.5	
202.33	5651	
202.54	3246.7	
202.76	3623.5	
202.97	4941.1	
203.18	5046.2	
203.4	3558.7	
203.61	3559.4	
203.82	4947.2	
204.04	4618.9	
204.25	3492.5	
204.46	3390.8	
204.68	4906.9	
204.89	5160.2	
205.1	3362.1	
205.32	2964.8	
205.53	5193	
205.74	5274.9	
205.96	2618	
206.17	3495.9	
206.38	5150.6	
206.6	5291.3	
206.81	4027.7	
207.02	3236.5	
207.24	5118.6	
207.45	5398.4	
207.66	3261	
207.88	2886.3	
208.09	4982.7	
208.3	4882.4	
208.52	3093.8	
208.73	3342.3	
208.94	4887.1	
209.15	5496.1	
209.37	3319.1	
209.58	3719.8	
209.79	5329.5	
210.01	4702.8	
210.22	2741.5	
210.43	2824.1	
210.65	4841.4	
210.86	5227.1	
211.07	3284.3	
211.29	3050.8	
211.5	5158.8	
211.71	4791.6	
211.93	3063.1	
212.14	3027.6	
212.35	4866	
212.56	4945.8	
212.78	3428.3	
212.99	2859.6	
213.2	5619.6	
213.42	4727.4	
213.63	3179.1	
213.84	3366.9	
214.06	4388.8	
214.27	4485.1	
214.48	3224.9	
214.69	3564.8	
214.91	5465.3	
215.12	5451	
215.33	3482.2	
215.55	3781.9	
215.76	5860.6	
215.97	5084.4	
216.18	3439.2	
216.4	3366.9	
216.61	4660.5	
216.82	5267.4	
217.04	3093.8	
217.25	3213.9	
217.46	5414.8	
217.67	5261.2	
217.89	2824.1	
218.1	2883.5	
218.31	4891.2	
218.53	5050.3	
218.74	3249.4	
218.95	3076.7	
219.16	4893.3	
219.38	5595.7	
219.59	3140.9	
219.8	3630.4	
220.01	6100.9	
220.23	4934.9	
220.44	3972.4	
220.65	3041.9	
220.87	4929.5	
221.08	5407.3	
221.29	2895.1	
221.5	3715	
221.72	6393.8	
221.93	4616.8	
222.14	3478.1	
222.35	4025.6	
222.57	4915.1	
222.78	5211.4	
222.99	3325.2	
223.2	3564.1	
223.42	5153.4	
223.63	5208	
223.84	2609.1	
224.05	2580.4	
224.27	6019	
224.48	5591	
224.69	4096.6	
224.9	3444	
225.12	5027.1	
225.33	4842.1	
225.54	2784.6	
225.75	3123.8	
225.97	4543.8	
226.18	4818.9	
226.39	3340.9	
226.6	3120.4	
226.82	4729.4	
227.03	4540.3	
227.24	3465.8	
227.45	2945	
227.67	5229.1	
227.88	5535	
228.09	3789.4	
228.3	3797.6	
228.52	5187.5	
228.73	4833.9	
228.94	3204.4	
229.15	2905.4	
229.36	4839.4	
229.58	4780.6	
229.79	3278.1	
230	3697.9	
230.21	5761.6	
230.43	4943.8	
230.64	3435.1	
230.85	3584.6	
231.06	5221	
231.28	5241.4	
231.49	2919.7	
231.7	3331.4	
231.91	5122	
232.12	4897.4	
232.34	2993.4	
232.55	3406.5	
232.76	5391.6	
232.97	4971.8	
233.18	3065.1	
233.4	3472	
233.61	5070.1	
233.82	4702.1	
234.03	3250.8	
234.25	3141.6	
234.46	6551.5	
234.67	4860.5	
234.88	3540.9	
235.09	3128.6	
235.31	5131.5	
235.52	4784.7	
235.73	3420.8	
235.94	2945	
236.15	4640	
236.37	5754.8	
236.58	3064.4	
236.79	3316.3	
237	5124	
237.21	4428.4	
237.43	3596.9	
237.64	2826.9	
237.85	8174.8	
238.06	4486.4	
238.27	3578.5	
238.48	2902.7	
238.7	5159.5	
238.91	4798.4	
239.12	3203.7	
239.33	3338.2	
239.54	4569.7	
239.76	4788.2	
239.97	3285.6	
240.18	3321.1	
240.39	5855.1	
240.6	5058.5	
240.82	3465.8	
241.03	2887	
241.24	4831.2	
241.45	5558.9	
241.66	3053.5	
241.87	3554.6	
242.09	5453.1	
242.3	5732.3	
242.51	3620.8	
242.72	3312.2	
242.93	5227.1	
243.14	4829.8	
243.36	3833.8	
243.57	4087.1	
243.78	5558.9	
243.99	5152	
244.2	3348.4	
244.41	2972.3	
244.63	4497.3	
244.84	5107	
245.05	3539.6	
245.26	3268.6	
245.47	5134.3	
245.68	5259.2	
245.9	4298.7	
246.11	3429	
246.32	4749.9	
246.53	5098.8	
246.74	5217.5	
246.95	2879.4	
247.16	4524.6	
247.38	4846.2	
247.59	2790.7	
247.8	3322.5	
248.01	4591.5	
248.22	4858.5	
248.43	3087	
248.64	3292.5	
248.86	4453.6	
249.07	4678.2	
249.28	3017.3	
249.49	3461.1	
249.7	5317.2	
249.91	5384.8	
250.12	2882.2	
250.34	2875.3	
250.55	5018.2	
250.76	4874.2	
250.97	3414.6	
251.18	3463.1	
251.39	5356.8	
251.6	5034.6	
251.81	3515	
252.03	3451.5	
252.24	4675.5	
252.45	5238	
252.66	2940.2	
252.87	3624.2	
253.08	4895.3	
253.29	6160.3	
253.5	2998.2	
253.72	3993.5	
253.93	4780.6	
254.14	5725.4	
254.35	3168.2	
254.56	3266.5	
254.77	5097.4	
254.98	4589.5	
255.19	3195.5	
255.41	3941	
255.62	5018.2	
255.83	5352.7	
256.04	3497.2	
256.25	3466.5	
256.46	5817.6	
256.67	4618.9	
256.88	3440.6	
257.09	3744.4	
257.31	4546.5	
257.52	4593.6	
257.73	4252.9	
257.94	3185.3	
258.15	4875.5	
258.36	4890.5	
258.57	3891.8	
258.78	2586.6	
258.99	5282.4	
259.2	4721.3	
259.41	3211.9	
259.63	3263.1	
259.84	5516.5	
260.05	5892.7	
260.26	4103.4	
260.47	3134.1	
260.68	5330.2	
260.89	4831.2	
261.1	3725.3	
261.31	2986.6	
261.52	5421	
261.73	5597.1	
261.95	3981.3	
262.16	3541.6	
262.37	5436	
262.58	5531.6	
262.79	4065.9	
263	3235.1	
263.21	4876.2	
263.42	4742.4	
263.63	3348.4	
263.84	3178.4	
264.05	5315.8	
264.26	5530.2	
264.47	3938.2	
264.69	3530.7	
264.9	5486.5	
265.11	5038	
265.32	3104	
265.53	3198.2	
265.74	5001.8	
265.95	4386.7	
266.16	3353.9	
266.37	3687	
266.58	4981.3	
266.79	4683	
267	3155.9	
267.21	2970.2	
267.42	4559.5	
267.63	4844.8	
267.84	3273.3	
268.06	2907.4	
268.27	5216.9	
268.48	5419.6	
268.69	3206.4	
268.9	3786.7	
269.11	5454.4	
269.32	4484.4	
269.53	3326.6	
269.74	3099.9	
269.95	5083.7	
270.16	4385.4	
270.37	3348.4	
270.58	3763.5	
270.79	4745.8	
271	5292	
271.21	3545	
271.42	3358.7	
271.63	5030.5	
271.84	4504.2	
272.05	2707.4	
272.26	2975	
272.47	4925.4	
272.68	5030.5	
272.89	3196.9	
273.11	3601.7	
273.32	4767.7	
273.53	5556.1	
273.74	3602.4	
273.95	3431.7	
274.16	5308.3	
274.37	4886.5	
274.58	3622.9	
274.79	2940.2	
275	5014.8	
275.21	5341.8	
275.42	4313	
275.63	3677.5	
275.84	5086.5	
276.05	6221	
276.26	3446	
276.47	3288.4	
276.68	4773.1	
276.89	5689.9	
277.1	3614.7	
277.31	2990.7	
277.52	5068	
277.73	5341.8	
277.94	2914.3	
278.15	3178.4	
278.36	5012.7	
278.57	4588.1	
278.78	3166.2	
278.99	3552.5	
279.2	4622.3	
279.41	4558.1	
279.62	4183.3	
279.83	3022.1	
280.04	5808.7	
280.25	4527.4	
280.46	4075.5	
280.67	3362.1	
280.88	4621.6	
281.09	5443.5	
281.3	3508.2	
281.51	4321.2	
281.72	4711.7	
281.93	5290.6	
282.14	3125.9	
282.35	3386	
282.56	5252.4	
282.77	5251.7	
282.98	3247.4	
283.19	3850.2	
283.4	6320	
283.61	4827.7	
283.82	2977.7	
284.03	4074.1	
284.24	5002.5	
284.45	5343.8	
284.66	4076.8	
284.87	3835.8	
285.08	5347.9	
285.29	5473.5	
285.5	2895.8	
285.71	3270.6	
285.92	5379.3	
286.12	5881.1	
286.33	4072.7	
286.54	3304.1	
286.75	5228.5	
286.96	4797	
287.17	2985.9	
287.38	3974.4	
287.59	4676.9	
287.8	4583.4	
288.01	3265.1	
288.22	3682.9	
288.43	5212.1	
288.64	4416.8	
288.85	3821.5	
289.06	3631.7	
289.27	5253.7	
289.48	5606.7	
289.69	4086.4	
289.9	3728.7	
290.11	5426.4	
290.32	4716.5	
290.53	3870	
290.74	3624.9	
290.94	5272.8	
291.15	5219.6	
291.36	3204.4	
291.57	3639.9	
291.78	4704.9	
291.99	4391.5	
292.2	3076.7	
292.41	3619.4	
292.62	5350.7	
292.83	5137	
293.04	4294.6	
293.25	3048.1	
293.46	4726	
293.67	5323.4	
293.88	3126.6	
294.09	3035.8	
294.29	4584	
294.5	4977.9	
294.71	3396.2	
294.92	3167.5	
295.13	4741	
295.34	5801.9	
295.55	2845.3	
295.76	2876.7	
295.97	5193	
296.18	5778.7	
296.39	2993.4	
296.6	3120.4	
296.81	5001.8	
297.01	5184.1	
297.22	3258.3	
297.43	3157.3	
297.64	4678.9	
297.85	4592.2	
298.06	2622.1	
298.27	2861.7	
298.48	4916.5	
298.69	4614.1	
298.9	3373.7	
299.11	3062.4	
299.31	4496.7	
299.52	4552.6	
299.73	3578.5	
299.94	3548.4	
300.15	4926.7	
300.36	4565.6	
300.57	3532.1	
300.78	3548.4	
300.99	4787.5	
301.2	4973.8	
301.4	3115.6	
301.61	3379.8	
301.82	5165	
302.03	5240.8	
302.24	3756	
302.45	3035.8	
302.66	5141.1	
302.87	5416.9	
303.08	3117.7	
303.29	4156	
303.49	4757.4	
303.7	4881	
303.91	2869.9	
304.12	3979.2	
304.33	4489.1	
304.54	5003.2	
304.75	3159.3	
304.96	3049.4	
305.16	5188.9	
305.37	5739.8	
305.58	2793.4	
305.79	2895.1	
306	5119.9	
306.21	4422.9	
306.42	3119.7	
306.63	4568.3	
306.83	4773.8	
307.04	5318.6	
307.25	3431.7	
307.46	3399.6	
307.67	4308.9	
307.88	5134.3	
308.09	3134.8	
308.29	3126.6	
308.5	4963.6	
308.71	5369.8	
308.92	3337.5	
309.13	3022.1	
309.34	4841.4	
309.55	4841.4	
309.75	3872.7	
309.96	3482.9	
310.17	5223	
310.38	4653.7	
310.59	3749.8	
310.8	3002.3	
311.01	5731.6	
311.21	4833.2	
311.42	3072.6	
311.63	3083.6	
311.84	4686.4	
312.05	4982.7	
312.26	3463.8	
312.46	3760.1	
312.67	4795.7	
312.88	4517.8	
313.09	3046.7	
313.3	3022.8	
313.51	5524.7	
313.71	5744.6	
313.92	3091.8	
314.13	3173.7	
314.34	5081	
314.55	4784.1	
314.76	3793.5	
314.96	3405.1	
315.17	5012.1	
315.38	5111.7	
315.59	3089	
315.8	2962.7	
316.01	5522.7	
316.21	5712.5	
316.42	2962	
316.63	3336.8	
316.84	4778.6	
317.05	5355.4	
317.26	3578.5	
317.46	3201.7	
317.67	4848.2	
317.88	5176.6	
318.09	3826.3	
318.3	2866.5	
318.5	4688.5	
318.71	5128.8	
318.92	4751.3	
319.13	3524.6	
319.34	5309.7	
319.54	5442.8	
319.75	2847.4	
319.96	2751.8	
320.17	5119.9	
320.38	5315.2	
320.58	2811.2	
320.79	3289	
321	5351.3	
321.21	5393	
321.42	3376.4	
321.62	2843.9	
321.83	4608.6	
322.04	4897.4	
322.25	3257.6	
322.46	3084.2	
322.66	4949.3	
322.87	5177.3	
323.08	3694.5	
323.29	2990	
323.5	5771.9	
323.7	4514.4	
323.91	4077.5	
324.12	3661.8	
324.33	4998.4	
324.53	5166.3	
324.74	3525.2	
324.95	3671.3	
325.16	4446.8	
325.37	4724.7	
325.57	3063.1	
325.78	3069.2	
325.99	4980.7	
326.2	4462.5	
326.4	4240	
326.61	2807.1	
326.82	4844.1	
327.03	4980	
327.24	4230.4	
327.44	3994.2	
327.65	5143.8	
327.86	4175.1	
328.07	3557.3	
328.27	3037.8	
328.48	5433.3	
328.69	4536.3	
328.9	4322.6	
329.1	3198.9	
329.31	4827.1	
329.52	5531.6	
329.73	3009.8	
329.93	3355.9	
330.14	4923.3	
330.35	5073.5	
330.56	4908.3	
330.76	3650.8	
330.97	4756.7	
331.18	5006.6	
331.39	3377.8	
331.59	2772.3	
331.8	5352.7	
332.01	5518.6	
332.22	3162.1	
332.42	3536.8	
332.63	4963.6	
332.84	4622.9	
333.05	3452.9	
333.25	3119.7	
333.46	4665.3	
333.67	4922.6	
333.88	3197.6	
334.08	3461.1	
334.29	6277	
334.5	5346.6	
334.7	3000.3	
334.91	4197.7	
335.12	4497.3	
335.33	5182.7	
335.53	3386.7	
335.74	4792.2	
335.95	4728.8	
336.16	4554	
336.36	3413.3	
336.57	3814.7	
336.78	4534.9	
336.98	5362.3	
337.19	4125.3	
337.4	3273.3	
337.61	5817.6	
337.81	4496.7	
338.02	3161.4	
338.23	3900.7	
338.43	5482.4	
338.64	4628.4	
338.85	3105.4	
339.05	3965.6	
339.26	5577.3	
339.47	4483	
339.68	3084.2	
339.88	4392.9	
340.09	5069.4	
340.3	5219.6	
340.5	3523.2	
340.71	2776.4	
340.92	4485.7	
341.13	5421.7	
341.33	2972.3	
341.54	3626.3	
341.75	5061.2	
341.95	4775.9	
342.16	3401.7	
342.37	3649.5	
342.57	4541.7	
342.78	4757.4	
342.99	3750.5	
343.19	2802.3	
343.4	5236.7	
343.61	5048.2	
343.81	3219.4	
344.02	2977.7	
344.23	5257.8	
344.43	5509	
344.64	3720.5	
344.85	3674.7	
345.06	5143.1	
345.26	5388.2	
345.47	3485	
345.68	4019.5	
345.88	4391.5	
346.09	5274.9	
346.3	3526.6	
346.5	2725.2	
346.71	4825	
346.92	4652.3	
347.12	2905.4	
347.33	3440.6	
347.54	5257.1	
347.74	5624.4	
347.95	3457.7	
348.16	2682.8	
348.36	4696	
348.57	4546.5	
348.78	3500	
348.98	3650.8	
349.19	4886.5	
349.39	4406.5	
349.6	2899.2	
349.81	3087.7	
350.01	5122.7	
350.22	4653.7	
350.43	3394.2	
350.63	3969	
350.84	4911	
351.05	4688.5	
351.25	3099.3	
351.46	2802.3	
351.67	5287.9	
351.87	4597.7	
352.08	3274	
352.29	3657	
352.49	5223.7	
352.7	5292	
352.9	3016.7	
353.11	3693.2	
353.32	5738.4	
353.52	4748.6	
353.73	2969.6	
353.94	3703.4	
354.14	5126.1	
354.35	4940.4	
354.55	3113.6	
354.76	3362.8	
354.97	5076.9	
355.17	4820.2	
355.38	2925.2	
355.59	3889.1	
355.79	4615.4	
356	4931.5	
356.2	3342.3	
356.41	2955.2	
356.62	4455	
356.82	4802.5	
357.03	3639.2	
357.24	3257	
357.44	4620.9	
357.65	4760.8	
357.85	4200.4	
358.06	3426.3	
358.27	4417.5	
358.47	4614.8	
358.68	2884.2	
358.88	3607.8	
359.09	5044.8	
359.3	5371.1	
359.5	4151.9	
359.71	3637.2	
359.91	5606	
360.12	5090.6	
360.33	3627	
360.53	3946.4	
360.74	4629.1	
360.94	4689.8	
361.15	3768.9	
361.36	3138.9	
361.56	5334.3	
361.77	4843.4	
361.97	4114.4	
362.18	3262.4	
362.38	5309	
362.59	4492.6	
362.8	3068.5	
363	2951.8	
363.21	4356.7	
363.41	4883.7	
363.62	3474	
363.83	4240	
364.03	5053	
364.24	5723.4	
364.44	4430.4	
364.65	4296.6	
364.85	4849.6	
365.06	4505.5	
365.27	3222.8	
365.47	3323.9	
365.68	5543.2	
365.88	4810	
366.09	3541.6	
366.29	3262.4	
366.5	4966.3	
366.71	5327.4	
366.91	4312.3	
367.12	3695.2	
367.32	5819	
367.53	5249.6	
367.73	3665.9	
367.94	4408.6	
368.14	5242.8	
368.35	5803.3	
368.56	3655.6	
368.76	3263.1	
368.97	5330.2	
369.17	6582.9	
369.38	3181.9	
369.58	3405.8	
369.79	4514.4	
369.99	5575.3	
370.2	4281.6	
370.4	3525.2	
370.61	5054.4	
370.82	5958.2	
371.02	3437.9	
371.23	2973.7	
371.43	4453.6	
371.64	5583.4	
371.84	3535.5	
372.05	4435.9	
372.25	6478.4	
372.46	5245.5	
372.66	3534.1	
372.87	3439.2	
373.07	5271.5	
373.28	6651.1	
373.48	4295.3	
373.69	4001.7	
373.9	5010.7	
374.1	4954	
374.31	4248.2	
374.51	3867.2	
374.72	5547.3	
374.92	4655.7	
375.13	4341.7	
375.33	3779.9	
375.54	5206.6	
375.74	4814.1	
375.95	3812.6	
376.15	4728.1	
376.36	5276.9	
376.56	5131.5	
376.77	3843.4	
376.97	4173.8	
377.18	6180.1	
377.38	5341.1	
377.59	4439.3	
377.79	3530.7	
378	5184.8	
378.2	5416.9	
378.41	3553.9	
378.61	3461.7	
378.82	5569.8	
379.02	4932.9	
379.23	3639.2	
379.43	4420.2	
379.64	5676.3	
379.84	5251.7	
380.05	3554.6	
380.25	3453.6	
380.46	5503.6	
380.66	5089.9	
380.87	4543.8	
381.07	4851	
381.28	5906.3	
381.48	5400.5	
381.69	3504.1	
381.89	3576.4	
382.1	4589.5	
382.3	5510.4	
382.51	4424.3	
382.71	5056.4	
382.91	5356.8	
383.12	5807.4	
383.32	3796.9	
383.53	3938.9	
383.73	5241.4	
383.94	5119.2	
384.14	3919.8	
384.35	3184.6	
384.55	5055.1	
384.76	5366.4	
384.96	3823.6	
385.17	4044.1	
385.37	5384.1	
385.58	4806.6	
385.78	4048.8	
385.98	3154.6	
386.19	5001.1	
386.39	5304.9	
386.6	3583.9	
386.8	3745.1	
387.01	5345.2	
387.21	5403.2	
387.42	4108.2	
387.62	4534.9	
387.83	4876.9	
388.03	5229.1	
388.23	3826.3	
388.44	4455	
388.64	4643.4	
388.85	4739.7	
389.05	4100.7	
389.26	4541	
389.46	6270.2	
389.67	5715.9	
389.87	4068.6	
390.07	4128	
390.28	5051	
390.48	4826.4	
390.69	3454.2	
390.89	3748.5	
391.1	5008	
391.3	5695.4	
391.5	4650.9	
391.71	5163.6	
391.91	5502.2	
392.12	6127.5	
392.32	4719.2	
392.53	4055	
392.73	5040.1	
392.93	5132.2	
393.14	3776.5	
393.34	4587.4	
393.55	5398.4	
393.75	5035.3	
393.95	3830.4	
394.16	3747.8	
394.36	4941.1	
394.57	5486.5	
394.77	3448.1	
394.98	3734.1	
395.18	4943.8	
395.38	4958.1	
395.59	4469.4	
395.79	3727.3	
396	5057.1	
396.2	5419.6	
396.4	4328	
396.61	4275.5	
396.81	5502.2	
397.02	4911	
397.22	4528.1	
397.42	4537.6	
397.63	5585.5	
397.83	4971.8	
398.04	3659	
398.24	4016.1	
398.44	5362.3	
398.65	4614.8	
398.85	3584.6	
399.05	3566.9	
399.26	4987.5	
399.46	6218.3	
399.67	3865.9	
399.87	3700.7	
400.07	5260.5	
400.28	5528.2	
400.48	3787.4	
400.69	4624.3	
400.89	5638.1	
401.09	6120.7	
401.3	3717.1	
401.5	4493.2	
401.7	6171.9	
401.91	6385.6	
402.11	4019.5	
402.32	4205.2	
402.52	5735	
402.72	5615.5	
402.93	4346.5	
403.13	3450.8	
403.33	6216.3	
403.54	5116.5	
403.74	3986	
403.94	4676.2	
404.15	5279.7	
404.35	6256.5	
404.56	3903.4	
404.76	5335	
404.96	5692.7	
405.17	5492.7	
405.37	4849.6	
405.57	4307.6	
405.78	5739.1	
405.98	5295.4	
406.18	3949.8	
406.39	4543.8	
406.59	5647.6	
406.79	5287.9	
407	3684.3	
407.2	3747.8	
407.4	5718.6	
407.61	5849	
407.81	3790.1	
408.01	5421.7	
408.22	4836.6	
408.42	6374.6	
408.62	4745.1	
408.83	4418.8	
409.03	5356.1	
409.23	5340.4	
409.44	4359.4	
409.64	4552	
409.84	6173.3	
410.05	6112.5	
410.25	4489.1	
410.45	4271.4	
410.66	5699.5	
410.86	7653.3	
411.06	4667.3	
411.27	4511.7	
411.47	7496.9	
411.67	5829.2	
411.88	4743.1	
412.08	4961.5	
412.28	6388.3	
412.49	6733.7	
412.69	4560.8	
412.89	4594.3	
413.09	6668.9	
413.3	6559.6	
413.5	4685.1	
413.7	4376.5	
413.91	5930.9	
414.11	6571.2	
414.31	4561.5	
414.52	4888.5	
414.72	6392.4	
414.92	6291.4	
415.12	4507.6	
415.33	4980.7	
415.53	6599.9	
415.73	6761.7	
415.94	5264	
416.14	4697.4	
416.34	5834.7	
416.55	5616.9	
416.75	5735	
416.95	5291.3	
417.15	6633.4	
417.36	7166.5	
417.56	5839.4	
417.76	5128.1	
417.97	6929.6	
418.17	6606.1	
418.37	4888.5	
418.57	4887.8	
418.78	6401.3	
418.98	6181.5	
419.18	5608.7	
419.38	5483.8	
419.59	6185.5	
419.79	5922	
419.99	4693.3	
420.2	5014.8	
420.4	6681.8	
420.6	6725.5	
420.8	4728.8	
421.01	4589.5	
421.21	6462.7	
421.41	6567.8	
421.61	4923.3	
421.82	4691.9	
422.02	6115.9	
422.22	6810.9	
422.42	5397.8	
422.63	5118.6	
422.83	6154.8	
423.03	7111.9	
423.23	5129.5	
423.44	4362.9	
423.64	6225.8	
423.84	5962.3	
424.04	4663.9	
424.25	4413.4	
424.45	6962.4	
424.65	6836.8	
424.85	4237.2	
425.06	4663.9	
425.26	6919.4	
425.46	6079.7	
425.66	5070.1	
425.87	4868	
426.07	6659.3	
426.27	6525.5	
426.47	4930.8	
426.67	4373.1	
426.88	6970.6	
427.08	6503.7	
427.28	5184.8	
427.48	4372.4	
427.69	5677	
427.89	6171.9	
428.09	5057.1	
428.29	4369.7	
428.5	6681.8	
428.7	6366.5	
428.9	4322.6	
429.1	4733.5	
429.3	6369.2	
429.51	6515.3	
429.71	4605.9	
429.91	5232.6	
430.11	6593.8	
430.31	6711.9	
430.52	4795.7	
430.72	5036	
430.92	6949.4	
431.12	6524.8	
431.32	4555.4	
431.53	4847.5	
431.73	5643.5	
431.93	6988.4	
432.13	4461.8	
432.33	4385.4	
432.54	6135.7	
432.74	6344.6	
432.94	4349.9	
433.14	5218.2	
433.34	6609.5	
433.55	6165.8	
433.75	5059.8	
433.95	6499.6	
434.15	6359.6	
434.35	6166.4	
434.56	4524	
434.76	4098	
434.96	6312.5	
435.16	6513.9	
435.36	4371.7	
435.56	5365.7	
435.77	6010.1	
435.97	6195.1	
436.17	5893.4	
436.37	5244.2	
436.57	6046.3	
436.78	6003.3	
436.98	6652.5	
437.18	5756.2	
437.38	6569.9	
437.58	6150.1	
437.78	5834.7	
437.99	4764.9	
438.19	6621.1	
438.39	7230	
438.59	4646.8	
438.79	4237.9	
438.99	7070.3	
439.2	6138.4	
439.4	4350.6	
439.6	4394.9	
439.8	6417.7	
440	7247.8	
440.2	5275.6	
440.4	5279.7	
440.61	6802	
440.81	7140.6	
441.01	4592.9	
441.21	5309.7	
441.41	7066.9	
441.61	6759	
441.81	5470.8	
442.02	6283.2	
442.22	7431.4	
442.42	6804	
442.62	4649.6	
442.82	4741	
443.02	7187.7	
443.22	6466.1	
443.43	4964.3	
443.63	4621.6	
443.83	6231.3	
444.03	6250.4	
444.23	5627.8	
444.43	5286.5	
444.63	6522.1	
444.83	7468.9	
445.04	4629.1	
445.24	5749.3	
445.44	6855.9	
445.64	6899.6	
445.84	5324	
446.04	5348.6	
446.24	6280.4	
446.44	7039.6	
446.65	4637.3	
446.85	5034.6	
447.05	6602	
447.25	7078.5	
447.45	5143.1	
447.65	4567	
447.85	6586.3	
448.05	6190.3	
448.25	5419.6	
448.46	5169.8	
448.66	6556.2	
448.86	6206.7	
449.06	4476.2	
449.26	5350.7	
449.46	6759.7	
449.66	6042.2	
449.86	5032.5	
450.06	4967.7	
450.26	6244.3	
450.47	6690.7	
450.67	5276.9	
450.87	5470.8	
451.07	6820.4	
451.27	6504.3	
451.47	4668.7	
451.67	5119.2	
451.87	6307.7	
452.07	7195.9	
452.27	4893.3	
452.47	4840	
452.67	6577.4	
452.88	6907.8	
453.08	4331.5	
453.28	5944.6	
453.48	7488.7	
453.68	6421.7	
453.88	4713.7	
454.08	4996.4	
454.28	6804	
454.48	6563.1	
454.68	5421.7	
454.88	5816.2	
455.08	6919.4	
455.28	6734.4	
455.48	4713.7	
455.68	5212.1	
455.89	7290.8	
456.09	6924.9	
456.29	4949.3	
456.49	5029.1	
456.69	7277.8	
456.89	6570.6	
457.09	5386.8	
457.29	5727.5	
457.49	6862.1	
457.69	6911.9	
457.89	5295.4	
458.09	4818.9	
458.29	6633.4	
458.49	7265.5	
458.69	5501.5	
458.89	5081.7	
459.09	7444.4	
459.29	7504.4	
459.49	5212.8	
459.69	5865.4	
459.9	7031.4	
460.1	6647.7	
460.3	5102.9	
460.5	4913.8	
460.7	7047.1	
460.9	6771.9	
461.1	4754.7	
461.3	5715.9	
461.5	7589.8	
461.7	7236.2	
461.9	5030.5	
462.1	5381.4	
462.3	6958.3	
462.5	7302.4	
462.7	5125.4	
462.9	5205.9	
463.1	8193.2	
463.3	7871.7	
463.5	5335.6	
463.7	6139.8	
463.9	7055.3	
464.1	7352.9	
464.3	5451.7	
464.5	5662.6	
464.7	7559.7	
464.9	7233.4	
465.1	6750.1	
465.3	5913.9	
465.5	7718.1	
465.7	7868.3	
465.9	6141.9	
466.1	5946.6	
466.3	7565.2	
466.5	7419.1	
466.7	6696.2	
466.9	5793	
467.1	7591.1	
467.3	8166.6	
467.5	6614.9	
467.7	5770.5	
467.9	8449.9	
468.1	9093	
468.3	6400.6	
468.5	6698.2	
468.7	7485.3	
468.9	7471.7	
469.1	5923.4	
469.3	6464.1	
469.5	9095.7	
469.7	7139.9	
469.9	6270.9	
470.1	5794.4	
470.3	7604.8	
470.5	7539.3	
470.7	6852.5	
470.9	5879	
471.1	7286.7	
471.3	7595.2	
471.5	5738.4	
471.69	7198.6	
471.89	7223.9	
472.09	6773.3	
472.29	6334.4	
472.49	6597.2	
472.69	6990.4	
472.89	7602.1	
473.09	5625.1	
473.29	5778	
473.49	7149.5	
473.69	7221.1	
473.89	6435.4	
474.09	5844.9	
474.29	8202.1	
474.49	7978.2	
474.69	6478.4	
474.89	5947.3	
475.09	7279.2	
475.29	7260.7	
475.49	5535.7	
475.69	5682.4	
475.88	8555	
476.08	7648.5	
476.28	5475.6	
476.48	5698.1	
476.68	7918.8	
476.88	7698.3	
477.08	5697.4	
477.28	5987.6	
477.48	7310.6	
477.68	7783	
477.88	5547.9	
478.08	5787.6	
478.28	8105.2	
478.48	7399.3	
478.67	5821	
478.87	5383.4	
479.07	7913.4	
479.27	7523.6	
479.47	6025.8	
479.67	5898.1	
479.87	7701	
480.07	8194.6	
480.27	5378	
480.47	6728.9	
480.67	7464.8	
480.87	7911.3	
481.06	5586.2	
481.26	6399.2	
481.46	7616.4	
481.66	7410.9	
481.86	6107.7	
482.06	6765.1	
482.26	7262.8	
482.46	7997.3	
482.66	6003.3	
482.86	5570.5	
483.05	7651.2	
483.25	7039.6	
483.45	7892.2	
483.65	5920.7	
483.85	7138.5	
484.05	7438.2	
484.25	6289.3	
484.45	6631.3	
484.65	8079.9	
484.84	8164.6	
485.04	5835.3	
485.24	5899.5	
485.44	8372.1	
485.64	7021.8	
485.84	5315.8	
486.04	6470.9	
486.24	7251.9	
486.44	7596.6	
486.63	5275.6	
486.83	5951.4	
487.03	7210.2	
487.23	7375.4	
487.43	5443.5	
487.63	7185.6	
487.83	7497.6	
488.02	8219.9	
488.22	6197.2	
488.42	6600.6	
488.62	8127	
488.82	7210.9	
489.02	5920	
489.22	5942.5	
489.41	7985.7	
489.61	7746.1	
489.81	5712.5	
490.01	5644.9	
490.21	8013	
490.41	8507.9	
490.61	5741.8	
490.8	5788.2	
491	7568.6	
491.2	7042.3	
491.4	6296.1	
491.6	5569.1	
491.8	7561.8	
491.99	7614.3	
492.19	5449	
492.39	5719.3	
492.59	7960.5	
492.79	8049.9	
492.99	6414.9	
493.18	5685.2	
493.38	8161.8	
493.58	8660.2	
493.78	6308.4	
493.98	5894.7	
494.18	7833.5	
494.37	7410.9	
494.57	6475.7	
494.77	6361.7	
494.97	7993.2	
495.17	8267.6	
495.37	6085.2	
495.56	6409.5	
495.76	8400.8	
495.96	8164.6	
496.16	7051.8	
496.36	6253.1	
496.55	8320.9	
496.75	7864.9	
496.95	6479.8	
497.15	6384.2	
497.35	8266.3	
497.54	8211	
497.74	6246.3	
497.94	7544.7	
498.14	8775.5	
498.34	8617.2	
498.53	5991.7	
498.73	6645.7	
498.93	7763.2	
499.13	8261.5	
499.33	6518	
499.52	6894.8	
499.72	8345.5	
499.92	8433.5	
500.12	6206	
500.32	6369.2	
500.51	8415.8	
500.71	8196.7	
500.91	7010.2	
501.11	6808.8	
501.31	8397.4	
501.5	8829.5	
501.7	7329	
501.9	6518.7	
502.1	8297.7	
502.29	8495.7	
502.49	6881.2	
502.69	7201.3	
502.89	8326.4	
503.09	8385.1	
503.28	6059.3	
503.48	6164.4	
503.68	7825.3	
503.88	7733.1	
504.07	7030.7	
504.27	6627.9	
504.47	8064.2	
504.67	8184.4	
504.86	6842.3	
505.06	6619.7	
505.26	7880.6	
505.46	9119.6	
505.65	6599.2	
505.85	6690.7	
506.05	7767.3	
506.25	8257.4	
506.44	5999.2	
506.64	6759	
506.84	7715.4	
507.04	8383	
507.23	6162.3	
507.43	6621.8	
507.63	9316.2	
507.83	7921.5	
508.02	6636.1	
508.22	6298.9	
508.42	9430.9	
508.62	7675.8	
508.81	6531.7	
509.01	6935.1	
509.21	7576.1	
509.4	7866.9	
509.6	6681.8	
509.8	6191	
510	7796.6	
510.19	8928.5	
510.39	6102.9	
510.59	6156.9	
510.79	7546.8	
510.98	8677.2	
511.18	6238.8	
511.38	6325.5	
511.57	8321.6	
511.77	8006.2	
511.97	6883.2	
512.17	6167.8	
512.36	8224	
512.56	8169.3	
512.76	6122.1	
512.95	5874.3	
513.15	8428.1	
513.35	7232.7	
513.55	6760.3	
513.74	6100.9	
513.94	8289.5	
514.14	7849.2	
514.33	6847	
514.53	6602	
514.73	7777.5	
514.92	7907.2	
515.12	6189	
515.32	6050.4	
515.51	7929.1	
515.71	8359.8	
515.91	7473	
516.11	6128.9	
516.3	9243.2	
516.5	7656.7	
516.7	6550.8	
516.89	6935.1	
517.09	7747.5	
517.29	7672.4	
517.48	6807.4	
517.68	6315.3	
517.88	7532.4	
518.07	8057.4	
518.27	6774.7	
518.47	6018.3	
518.66	8460.8	
518.86	7415.7	
519.06	5835.3	
519.25	6186.9	
519.45	7662.8	
519.65	8855.4	
519.84	6718.7	
520.04	7278.5	
520.24	9117.6	
520.43	8169.3	
520.63	6421.7	
520.83	6244.9	
521.02	7556.3	
521.22	8036.2	
521.42	6681.2	
521.61	7070.3	
521.81	7669.6	
522.01	7961.1	
522.2	6469.5	
522.4	6350.8	
522.6	8189.1	
522.79	7260	
522.99	6449.1	
523.18	5942.5	
523.38	8045.1	
523.58	8010.3	
523.77	7428.7	
523.97	5894.1	
524.17	9546.3	
524.36	8665	
524.56	6929	
524.76	6696.2	
524.95	8032.1	
525.15	7785.7	
525.34	6544.6	
525.54	6581.5	
525.74	8317.5	
525.93	7634.1	
526.13	7526.3	
526.33	6537.1	
526.52	8626	
526.72	8189.8	
526.91	7505.8	
527.11	6927.6	
527.31	8560.5	
527.5	8974.9	
527.7	6747.4	
527.89	6147.3	
528.09	7817.1	
528.29	8244.4	
528.48	7190.4	
528.68	6772.6	
528.87	8546.2	
529.07	8520.9	
529.27	6780.1	
529.46	6367.1	
529.66	8315.4	
529.85	8599.4	
530.05	6247.7	
530.25	6918.7	
530.44	9282.1	
530.64	8239	
530.83	6677.1	
531.03	6850.5	
531.23	8635.6	
531.42	8477.2	
531.62	7529	
531.81	6784.2	
532.01	8756.4	
532.21	9038.4	
532.4	6640.9	
532.6	6855.9	
532.79	9449.3	
532.99	8712.7	
533.18	6916.7	
533.38	7757	
533.58	8319.5	
533.77	8974.9	
533.97	6943.3	
534.16	7544.7	
534.36	9193.3	
534.55	8505.2	
534.75	7841.7	
534.95	6969.2	
535.14	9095.7	
535.34	8374.1	
535.53	6685.9	
535.73	8237.6	
535.92	9475.3	
536.12	8557.1	
536.31	6846.4	
536.51	7734.5	
536.71	8858.8	
536.9	8408.3	
537.1	6913.9	
537.29	6960.4	
537.49	9027.4	
537.68	8333.2	
537.88	7288	
538.07	6643.6	
538.27	8628.1	
538.46	9255.5	
538.66	6588.3	
538.86	6963.8	
539.05	8603.5	
539.25	8950.3	
539.44	7222.5	
539.64	6821.1	
539.83	8480.6	
540.03	9241.1	
540.22	6728.9	
540.42	6855.2	
540.61	8668.4	
540.81	8727.1	
541	7248.4	
541.2	7739.3	
541.39	8300.4	
541.59	8542.8	
541.78	7512.6	
541.98	6796.5	
542.18	8053.3	
542.37	8011.7	
542.57	7114	
542.76	7464.2	
542.96	8000.7	
543.15	8613.8	
543.35	7090.1	
543.54	6556.2	
543.74	8838.4	
543.93	8546.2	
544.13	7131.7	
544.32	7892.9	
544.52	8763.3	
544.71	8110.6	
544.91	6268.1	
545.1	7275.8	
545.3	8140.7	
545.49	8643.1	
545.69	6318.7	
545.88	6794.5	
546.08	9426.1	
546.27	9052	
546.47	7181.5	
546.66	6623.8	
546.86	8814.5	
547.05	9267.7	
547.24	6754.9	
547.44	6652.5	
547.63	7998.7	
547.83	8905.9	
548.02	6935.8	
548.22	7161.7	
548.41	7759.8	
548.61	8908.7	
548.8	6553.5	
549	6595.8	
549.19	8444.5	
549.39	8635.6	
549.58	6269.5	
549.78	6775.4	
549.97	8675.9	
550.17	8226	
550.36	7468.9	
550.55	8249.9	
550.75	8225.3	
550.94	8992.6	
551.14	6540.5	
551.33	6819.7	
551.53	7720.2	
551.72	8486.8	
551.92	6772.6	
552.11	6651.1	
552.31	8581	
552.5	8428.8	
552.69	7931.1	
552.89	6294.8	
553.08	8505.2	
553.28	8234.9	
553.47	6543.3	
553.67	7535.2	
553.86	9022	
554.06	7666.2	
554.25	5973.2	
554.44	6397.2	
554.64	9619.3	
554.83	9121	
555.03	6412.2	
555.22	6724.2	
555.42	8660.2	
555.61	8455.4	
555.8	6559	
556	6811.5	
556.19	7718.8	
556.39	8628.8	
556.58	6576	
556.78	6640.2	
556.97	8425.3	
557.16	8019.2	
557.36	7582.3	
557.55	6277.7	
557.75	7486.7	
557.94	8956.5	
558.13	6326.9	
558.33	6234.7	
558.52	8707.3	
558.72	7802.1	
558.91	6156.9	
559.1	6516	
559.3	7630.7	
559.49	7471	
559.69	5988.3	
559.88	6727.6	
560.07	8254	
560.27	8680	
560.46	6873	
560.66	7009.5	
560.85	8138.6	
561.04	7387.7	
561.24	6182.1	
561.43	6344.6	
561.63	7591.8	
561.82	7902.4	
562.01	7337.9	
562.21	6627.2	
562.4	8173.4	
562.59	9006.3	
562.79	6546	
562.98	6255.9	
563.18	8150.2	
563.37	9292.3	
563.56	6879.1	
563.76	6202.6	
563.95	7767.3	
564.14	7679.2	
564.34	6495.5	
564.53	6272.2	
564.73	8172.1	
564.92	8402.1	
565.11	6699.6	
565.31	6129.6	
565.5	8728.4	
565.69	7748.8	
565.89	6311.2	
566.08	6587	
566.27	8507.9	
566.47	8796	
566.66	7048.4	
566.85	6038.1	
567.05	8208.9	
567.24	7796.6	
567.44	6265.4	
567.63	7340.6	
567.82	8397.4	
568.02	8099	
568.21	6305.7	
568.4	6630	
568.6	8110.6	
568.79	8054	
568.98	6204.7	
569.18	6265.4	
569.37	8021.2	
569.56	9622.7	
569.76	6580.8	
569.95	7313.3	
570.14	8417.8	
570.34	8166.6	
570.53	6255.2	
570.72	6151.4	
570.91	8698.4	
571.11	8057.4	
571.3	6668.2	
571.49	7302.4	
571.69	8163.2	
571.88	7808.9	
572.07	6992.4	
572.27	7076.4	
572.46	7684	
572.65	8614.4	
572.85	6445	
573.04	6659.3	
573.23	8806.3	
573.43	8299.7	
573.62	6247.7	
573.81	6754.2	
574	8323.6	
574.2	8061.5	
574.39	6509.8	
574.58	6672.3	
574.78	8875.9	
574.97	8257.4	
575.16	6844.3	
575.36	7012.2	
575.55	8561.9	
575.74	8769.4	
575.93	6221	
576.13	7133.8	
576.32	8134.5	
576.51	8619.9	
576.71	6587.6	
576.9	7748.1	
577.09	8924.4	
577.28	8394.6	
577.48	6949.4	
577.67	6253.8	
577.86	8164.6	
578.05	8491.6	
578.25	6766.5	
578.44	6761	
578.63	8263.6	
578.83	9261.6	
579.02	6301.6	
579.21	7447.8	
579.4	8372.8	
579.6	8176.2	
579.79	6842.3	
579.98	8524.3	
580.17	8685.4	
580.37	8761.2	
580.56	6414.2	
580.75	6977.4	
580.94	9026.8	
581.14	9011.1	
581.33	7355.6	
581.52	6576	
581.71	8583	
581.91	9093	
582.1	6268.1	
582.29	6733.7	
582.48	8189.8	
582.68	8232.8	
582.87	7171.3	
583.06	6749.4	
583.25	8585.8	
583.45	8366.6	
583.64	7400.7	
583.83	7897.7	
584.02	8213.7	
584.21	8566	
584.41	7294.9	
584.6	6764.4	
584.79	8346.2	
584.98	8933.9	
585.18	6418.3	
585.37	6358.3	
585.56	7947.5	
585.75	8562.6	
585.94	6507.8	
586.14	7077.1	
586.33	9031.5	
586.52	8291.5	
586.71	6932.4	
586.91	6738.5	
587.1	7846.5	
587.29	8669.7	
587.48	6675	
587.67	6578.8	
587.87	8413.1	
588.06	8546.2	
588.25	7609.6	
588.44	7010.9	
588.63	8227.4	
588.83	8751	
589.02	6651.1	
589.21	6491.4	
589.4	8120.2	
589.59	8011	
589.78	5989.6	
589.98	6192.4	
590.17	7669.6	
590.36	8107.2	
590.55	5684.5	
590.74	6399.9	
590.94	9144.2	
591.13	7978.9	
591.32	6214.2	
591.51	5758.2	
591.7	8321.6	
591.89	7972.7	
592.09	5913.2	
592.28	6242.2	
592.47	7314.7	
592.66	8886.8	
592.85	5881.8	
593.05	6052.4	
593.24	7831.4	
593.43	8506.6	
593.62	6109.1	
593.81	6513.2	
594	7813	
594.19	7982.3	
594.39	6004	
594.58	6041.5	
594.77	8147.5	
594.96	8591.9	
595.15	6002.6	
595.34	6538.5	
595.54	8110.6	
595.73	7443.7	
595.92	5461.2	
596.11	6389.7	
596.3	8553.7	
596.49	7509.9	
596.68	6225.8	
596.88	6594.5	
597.07	8220.5	
597.26	7279.8	
597.45	5850.4	
597.64	6833.4	
597.83	7574.8	
598.02	8049.9	
598.22	5887.9	
598.41	6454.5	
598.6	7904.5	
598.79	7441	
598.98	5920.7	
599.17	6590.4	
599.36	7900.4	
599.55	8718.2	
599.74	7493.5	
599.94	7345.4	
600.13	8325	
600.32	7318.1	
600.51	5699.5	
600.7	5801.2	
600.89	8839	
601.08	8842.4	
601.27	5601.2	
601.47	6374	
601.66	8145.5	
601.85	8714.1	
602.04	6223.8	
602.23	6240.2	
602.42	7477.1	
602.61	7871	
602.8	6048.3	
602.99	5851	
603.18	7696.3	
603.37	7861.5	
603.57	6423.8	
603.76	6856.6	
603.95	8570.1	
604.14	8151.6	
604.33	5945.3	
604.52	6163	
604.71	7971.4	
604.9	7631.4	
605.09	6651.8	
605.28	6518.7	
605.47	8322.9	
605.66	7956.4	
605.86	6419.7	
606.05	5879	
606.24	8305.2	
606.43	7073.7	
606.62	6151.4	
606.81	6778.1	
607	8165.9	
607.19	7633.5	
607.38	5805.3	
607.57	5899.5	
607.76	7477.8	
607.95	7016.3	
608.14	6260.6	
608.33	6650.4	
608.52	7462.8	
608.72	8157.7	
608.91	5629.9	
609.1	5610.8	
609.29	7563.8	
609.48	7126.2	
609.67	6395.8	
609.86	5618.3	
610.05	7207.5	
610.24	7488.1	
610.43	5558.2	
610.62	5199.1	
610.81	8425.3	
611	8140	
611.19	5672.2	
611.38	6264.7	
611.57	7688.1	
611.76	8716.8	
611.95	5509	
612.14	5336.3	
612.33	7611.6	
612.52	7119.4	
612.71	5931.6	
612.9	5291.3	
613.09	6834.8	
613.28	8697	
613.47	5812.1	
613.66	6463.4	
613.85	7664.9	
614.04	7259.4	
614.24	5743.2	
614.43	5058.5	
614.62	7707.2	
614.81	7761.8	
615	6213.5	
615.19	6165.8	
615.38	7147.4	
615.57	7445.7	
615.76	6087.2	
615.95	6870.3	
616.14	7740.6	
616.33	7501	
616.52	6336.4	
616.71	6454.5	
616.9	7674.4	
617.09	7511.9	
617.28	5849	
617.47	6795.8	
617.66	6972	
617.85	7027.9	
618.04	6531.7	
618.22	6109.8	
618.41	7363.8	
618.6	8017.8	
618.79	6008.7	
618.98	5779.4	
619.17	8264.2	
619.36	6919.4	
619.55	5899.5	
619.74	5967.8	
619.93	7727	
620.12	7184.3	
620.31	6385.6	
620.5	6450.4	
620.69	8385.1	
620.88	8515.5	
621.07	7098.3	
621.26	6363.7	
621.45	7864.9	
621.64	7769.3	
621.83	6487.3	
622.02	5754.1	
622.21	7879.9	
622.4	7714	
622.59	6860.7	
622.78	6655.9	
622.97	7383.6	
623.16	8159.8	
623.35	6371.9	
623.54	5633.3	
623.72	7609.6	
623.91	7609.6	
624.1	6559	
624.29	5475.6	
624.48	8550.3	
624.67	7933.1	
624.86	6451.1	
625.05	5722	
625.24	8567.3	
625.43	7361.8	
625.62	7772.7	
625.81	5911.8	
626	8042.4	
626.19	7556.3	
626.38	6471.6	
626.56	6064	
626.75	7375.4	
626.94	8019.2	
627.13	6559	
627.32	5489.2	
627.51	7995.3	
627.7	8901.8	
627.89	5677.7	
628.08	6574.7	
628.27	7357	
628.46	7572.7	
628.65	5928.2	
628.83	5532.9	
629.02	7993.9	
629.21	7351.5	
629.4	6137.8	
629.59	6329.6	
629.78	7288	
629.97	8043.1	
630.16	6357.6	
630.35	6045.6	
630.54	8521.6	
630.72	8224.6	
630.91	6016.9	
631.1	6389	
631.29	7765.9	
631.48	7896.3	
631.67	6554.2	
631.86	6071.5	
632.05	7531.7	
632.24	7570	
632.42	5883.8	
632.61	6229.2	
632.8	7641.7	
632.99	7307.8	
633.18	6302.3	
633.37	6570.6	
633.56	7756.3	
633.75	7669.6	
633.93	6246.3	
634.12	6027.2	
634.31	8454.7	
634.5	8088.8	
634.69	6126.2	
634.88	6412.2	
635.07	7651.9	
635.25	8075.1	
635.44	6820.4	
635.63	6944.7	
635.82	7492.8	
636.01	7083.2	
636.2	6738.5	
636.39	6352.1	
636.57	8490.2	
636.76	8041	
636.95	5923.4	
637.14	7000	
637.33	7799.3	
637.52	8541.4	
637.7	5685.2	
637.89	6545.3	
638.08	7524.2	
638.27	8637.6	
638.46	6597.2	
638.65	6920.8	
638.83	8631.5	
639.02	7352.9	
639.21	6498.9	
639.4	6828.6	
639.59	7761.8	
639.78	7464.8	
639.96	5850.4	
640.15	5906.3	
640.34	7640.3	
640.53	7702.4	
640.72	5672.9	
640.91	5930.2	
641.09	7185.6	
641.28	8345.5	
641.47	5935.7	
641.66	6568.5	
641.85	7816.4	
642.03	7928.4	
642.22	6464.8	
642.41	6031.3	
642.6	7317.4	
642.79	6767.9	
642.97	5812.1	
643.16	6361	
643.35	7329.7	
643.54	7047.7	
643.73	5752.1	
643.91	6425.8	
644.1	7027.3	
644.29	7457.3	
644.48	5870.2	
644.67	5948	
644.85	7136.5	
645.04	7481.2	
645.23	5485.1	
645.42	5809.4	
645.6	7124.9	
645.79	8008.9	
645.98	5767.8	
646.17	4934.2	
646.36	6874.3	
646.54	7259.4	
646.73	6382.2	
646.92	5421	
647.11	7047.1	
647.29	7875.8	
647.48	5501.5	
647.67	5341.1	
647.86	8076.5	
648.05	8002.8	
648.23	5764.3	
648.42	6747.4	
648.61	7570.7	
648.8	7358.4	
648.98	5429.8	
649.17	5688.6	
649.36	6996.5	
649.55	6649.1	
649.73	5485.1	
649.92	6082.5	
650.11	6922.1	
650.3	7135.1	
650.48	5569.8	
650.67	5387.5	
650.86	7417.1	
651.05	6507.8	
651.23	5536.3	
651.42	5483.1	
651.61	7030.7	
651.79	6995.9	
651.98	5638.7	
652.17	5395	
652.36	7335.8	
652.54	6509.1	
652.73	5403.2	
652.92	5271.5	
653.11	7261.4	
653.29	7376.1	
653.48	4887.8	
653.67	5659.9	
653.85	7094.8	
654.04	7884	
654.23	5820.3	
654.42	5459.2	
654.6	6713.9	
654.79	7277.8	
654.98	5011.4	
655.16	5550	
655.35	6470.9	
655.54	6269.5	
655.73	5116.5	
655.91	4997.7	
656.1	7189.7	
656.29	6238.1	
656.47	4672.1	
656.66	5986.2	
656.85	6585.6	
657.03	6492.1	
657.22	5102.2	
657.41	5068.7	
657.59	6614.9	
657.78	6426.5	
657.97	4862.6	
658.16	5417.6	
658.34	7118.7	
658.53	7422.5	
658.72	6092.7	
658.9	6515.3	
659.09	6830.7	
659.28	6764.4	
659.46	5306.3	
659.65	5089.2	
659.84	6481.8	
660.02	6959.7	
660.21	5208	
660.4	4974.5	
660.58	7283.9	
660.77	6733	
660.96	5558.2	
661.14	4827.7	
661.33	7670.3	
661.52	7596.6	
661.7	4709.6	
661.89	7578.8	
662.08	6424.5	
662.26	6184.9	
662.45	5001.1	
662.64	5066	
662.82	7082.6	
663.01	6415.6	
663.2	5127.4	
663.38	5680.4	
663.57	6976.7	
663.75	6733.7	
663.94	5372.5	
664.13	6337.8	
664.31	6490	
664.5	6961	
664.69	5626.5	
664.87	5982.8	
665.06	6225.1	
665.25	6824.5	
665.43	6086.6	
665.62	6220.4	
665.8	7172.7	
665.99	6529.6	
666.18	5310.4	
666.36	5403.2	
666.55	7023.2	
666.74	6921.5	
666.92	5003.2	
667.11	6318	
667.29	6541.9	
667.48	6974.7	
667.67	5969.1	
667.85	5185.5	
668.04	6518.7	
668.22	6518.7	
668.41	5380.7	
668.6	5538.4	
668.78	6397.2	
668.97	6614.3	
669.15	5631.2	
669.34	4853.7	
669.53	6376	
669.71	6700.3	
669.9	4932.2	
670.08	5432.6	
670.27	6394.4	
670.46	6808.8	
670.64	5755.5	
670.83	5884.5	
671.01	6291.4	
671.2	6748.7	
671.38	5064.6	
671.57	4910.3	
671.76	7342.7	
671.94	7630.7	
672.13	4913.8	
672.31	5709.1	
672.5	7026.6	
672.69	6434	
672.87	5029.8	
673.06	5275.6	
673.24	6834.1	
673.43	6445.6	
673.61	5614.2	
673.8	5264	
673.98	6978.1	
674.17	7162.4	
674.36	5747.3	
674.54	5555.5	
674.73	6769.9	
674.91	7019.1	
675.1	5304.2	
675.28	5054.4	
675.47	6578.8	
675.65	7027.9	
675.84	5276.9	
676.03	5509	
676.21	6424.5	
676.4	6004.6	
676.58	5918.6	
676.77	5702.9	
676.95	7623.2	
677.14	6387.6	
677.32	4950.6	
677.51	4828.4	
677.69	7015.7	
677.88	6198.5	
678.06	4934.2	
678.25	4987.5	
678.44	6572.6	
678.62	6375.3	
678.81	4777.2	
678.99	5623.7	
679.18	7269.6	
679.36	6920.1	
679.55	5209.3	
679.73	5664.7	
679.92	6759.7	
680.1	6436.1	
680.29	6251.8	
680.47	5214.8	
680.66	6378.1	
680.84	7038.2	
681.03	4764.3	
681.21	5632.6	
681.4	6412.9	
681.58	6261.3	
681.77	5038	
681.95	4978.6	
682.14	7049.1	
682.32	7332.4	
682.51	5745.2	
682.69	4846.2	
682.88	6328.9	
683.06	6847.7	
683.25	5567.1	
683.43	5842.9	
683.62	6657.9	
683.8	6896.2	
683.99	5915.2	
684.17	5442.8	
684.36	7647.1	
684.54	6506.4	
684.73	4802.5	
684.91	4877.6	
685.1	6825.9	
685.28	6317.3	
685.46	5411.4	
685.65	5403.2	
685.83	6933.1	
686.02	6437.4	
686.2	4929.5	
686.39	5038	
686.57	6285.9	
686.76	7391.8	
686.94	4961.5	
687.13	5027.8	
687.31	6741.9	
687.5	6475.7	
687.68	4614.8	
687.86	5593	
688.05	7786.4	
688.23	5897.5	
688.42	5713.8	
688.6	4996.4	
688.79	6310.5	
688.97	6300.2	
689.16	5358.2	
689.34	4439.3	
689.52	6892.8	
689.71	7069.6	
689.89	5498.8	
690.08	4944.5	
690.26	6582.2	
690.45	6349.4	
690.63	5719.3	
690.81	5235.3	
691	6460.7	
691.18	6253.8	
691.37	5313.8	
691.55	6888	
691.74	6277.7	
691.92	7808.2	
692.1	5278.3	
692.29	4786.1	
692.47	6483.2	
692.66	5920.7	
692.84	4940.4	
693.02	5288.5	
693.21	5890.6	
693.39	6370.5	
693.58	5347.9	
693.76	4943.8	
693.94	7249.1	
694.13	7114.6	
694.31	4934.2	
694.5	5865.4	
694.68	6208.1	
694.86	6551.5	
695.05	5199.8	
695.23	5502.9	
695.42	6765.1	
695.6	8583.7	
695.78	5727.5	
695.97	4957.4	
696.15	6842.3	
696.34	6321.4	
696.52	4783.4	
696.7	5481.7	
696.89	6695.5	
697.07	6223.8	
697.25	5494.7	
697.44	6642.2	
697.62	6633.4	
697.81	6844.3	
697.99	5164.3	
698.17	5559.6	
698.36	6076.3	
698.54	6669.6	
698.72	5425.8	
698.91	4603.2	
699.09	6348.7	
699.28	6142.5	
699.46	5168.4	
699.64	5013.4	
699.83	6171.2	
700.01	7012.2	
700.19	5730.2	
700.38	4365.6	
700.56	7060	
700.74	6135	
700.93	4687.1	
701.11	5384.8	
701.29	6590.4	
701.48	7485.3	
701.66	4900.8	
701.84	4924.7	
702.03	6293.4	
702.21	6783.6	
702.39	4610	
702.58	5074.9	
702.76	6645.7	
702.94	6710.5	
703.13	4545.1	
703.31	6458.6	
703.49	6056.5	
703.68	7021.1	
703.86	4741.7	
704.04	5534.3	
704.23	6397.9	
704.41	6721.4	
704.59	4848.9	
704.78	5763	
704.96	7354.9	
705.14	6740.5	
705.33	4624.3	
705.51	5322.7	
705.69	6176	
705.87	6925.5	
706.06	5444.2	
706.24	4572.4	
706.42	6485.2	
706.61	6709.8	
706.79	5565	
706.97	4595.6	
707.16	6034.7	
707.34	6505.7	
707.52	5431.9	
707.7	4801.1	
707.89	6195.8	
708.07	5898.1	
708.25	5412.8	
708.44	5537.7	
708.62	6126.8	
708.8	6977.4	
708.98	5627.1	
709.17	4792.2	
709.35	6412.9	
709.53	6378.1	
709.72	4534.9	
709.9	4937.7	
710.08	6699.6	
710.26	6611.5	
710.45	5881.1	
710.63	4826.4	
710.81	6363.7	
710.99	6333	
711.18	5388.2	
711.36	4935.6	
711.54	6110.5	
711.72	6856.6	
711.91	5055.8	
712.09	4549.2	
712.27	6339.1	
712.45	6758.3	
712.64	5304.9	
712.82	4390.2	
713	5939.8	
713.18	5975.3	
713.37	4472.1	
713.55	5421.7	
713.73	6762.4	
713.91	5636	
714.1	4844.1	
714.28	4434.5	
714.46	6498.9	
714.64	5814.2	
714.83	3974.4	
715.01	4663.9	
715.19	5926.1	
715.37	5354.1	
715.55	4375.1	
715.74	4638	
715.92	6604	
716.1	4922.6	
716.28	5497.4	
716.47	4687.1	
716.65	5576.6	
716.83	5576.6	
717.01	4556.7	
717.19	4543.8	
717.38	7289.4	
717.56	5279.7	
717.74	4767.7	
717.92	4046.1	
718.1	6302.3	
718.29	5660.6	
718.47	3787.4	
718.65	4234.5	
718.83	6146	
719.01	6058.6	
719.2	3579.8	
719.38	4476.2	
719.56	5886.5	
719.74	7119.4	
719.92	4181.3	
720.11	4956.8	
720.29	5979.4	
720.47	5240.1	
720.65	3857	
720.83	4561.5	
721.02	5550	
721.2	5401.9	
721.38	4612.7	
721.56	4001.7	
721.74	4931.5	
721.92	5062.6	
722.11	4925.4	
722.29	4718.5	
722.47	6080.4	
722.65	5425.8	
722.83	3970.3	
723.01	4642.1	
723.2	5449	
723.38	5793.7	
723.56	3500	
723.74	4509.6	
723.92	5087.2	
724.1	6030.6	
724.29	3882.3	
724.47	4826.4	
724.65	5200.5	
724.83	5003.9	
725.01	3842.7	
725.19	4521.2	
725.37	5107.6	
725.56	5079.6	
725.74	3674.1	
725.92	3827	
726.1	5040.7	
726.28	5276.3	
726.46	4265.2	
726.64	4000.4	
726.83	5326.1	
727.01	5539.1	
727.19	3706.8	
727.37	4364.9	
727.55	5398.4	
727.73	5780.7	
727.91	3608.5	
728.09	3482.9	
728.28	5815.5	
728.46	6191.7	
728.64	4368.3	
728.82	4298	
729	6627.2	
729.18	6067.4	
729.36	3702.7	
729.54	5498.8	
729.72	6765.8	
729.91	5404.6	
730.09	5274.2	
730.27	4225	
730.45	5337	
730.63	5889.3	
730.81	4614.8	
730.99	3938.9	
731.17	6255.9	
731.35	5031.9	
731.53	4354.7	
731.71	4007.9	
731.9	6026.5	
732.08	6171.9	
732.26	4212	
732.44	3948.5	
732.62	6214.2	
732.8	5814.9	
732.98	4590.2	
733.16	3756.7	
733.34	5818.3	
733.52	4776.5	
733.7	4178.5	
733.88	4420.9	
734.07	5707	
734.25	5413.5	
734.43	3754.6	
734.61	5019.6	
734.79	6554.2	
734.97	5401.2	
735.15	3803.8	
735.33	4089.1	
735.51	5697.4	
735.69	5341.1	
735.87	4969.7	
736.05	4299.4	
736.23	5474.9	
736.41	5254.4	
736.59	4102.8	
736.77	4222.9	
736.95	5848.3	
737.13	5350	
737.32	3878.9	
737.5	4048.2	
737.68	6287.9	
737.86	5285.8	
738.04	3718.4	
738.22	5203.9	
738.4	5138.4	
738.58	5453.1	
738.76	4156	
738.94	3344.3	
739.12	5289.2	
739.3	5123.3	
739.48	4730.8	
739.66	4476.2	
739.84	5448.3	
740.02	5418.2	
740.2	3482.2	
740.38	3718.4	
740.56	5703.6	
740.74	4754	
740.92	4287.1	
741.1	4115.7	
741.28	5292.6	
741.46	5117.2	
741.64	3824.9	
741.82	4355.3	
742	5324	
742.18	5237.3	
742.36	4011.3	
742.54	3737.5	
742.72	5737	
742.9	4709	
743.08	4371	
743.26	3379.8	
743.44	5857.2	
743.62	5779.4	
743.8	4544.4	
743.98	3764.8	
744.16	5532.9	
744.34	5251	
744.52	4351.3	
744.7	4354.7	
744.88	5681.7	
745.06	5284.4	
745.24	4421.6	
745.42	4558.1	
745.6	5756.8	
745.78	5588.9	
745.96	3506.8	
746.14	3712.3	
746.32	6424.5	
746.5	5772.5	
746.68	4198.3	
746.86	3804.4	
747.03	6024.4	
747.21	4780.6	
747.39	4263.9	
747.57	3751.2	
747.75	5444.9	
747.93	5745.2	
748.11	3714.3	
748.29	3728	
748.47	6737.8	
748.65	5189.6	
748.83	4327.4	
749.01	4156	
749.19	5577.3	
749.37	4875.5	
749.55	4004.5	
749.73	4069.3	
749.91	5400.5	
750.09	5199.1	
750.26	4072	
750.44	3636.5	
750.62	5382.1	
750.8	5322	
750.98	3529.3	
751.16	3839.3	
751.34	5473.5	
751.52	4842.1	
751.7	4427.7	
751.88	3489.1	
752.06	5858.6	
752.24	5562.3	
752.42	3485.6	
752.59	3777.1	
752.77	5266.7	
752.95	6299.6	
753.13	4364.2	
753.31	3833.8	
753.49	5094	
753.67	5455.8	
753.85	4123.2	
754.03	3722.5	
754.21	5673.6	
754.38	5981.4	
754.56	3890.5	
754.74	3199.6	
754.92	5074.9	
755.1	5627.8	
755.28	3265.8	
755.46	3273.3	
755.64	6310.5	
755.82	6387.6	
755.99	3567.6	
756.17	3646.1	
756.35	4450.9	
756.53	5737.7	
756.71	2809.8	
756.89	3553.9	
757.07	5355.4	
757.25	4674.1	
757.42	3997	
757.6	4694.6	
757.78	5426.4	
757.96	4598.4	
758.14	3717.7	
758.32	3290.4	
758.5	4234.5	
758.67	4898.7	
758.85	3554.6	
759.03	3704.8	
759.21	5057.8	
759.39	4627.7	
759.57	3222.1	
759.75	4151.9	
759.92	5566.4	
760.1	5106.3	
760.28	4441.4	
760.46	4536.3	
760.64	4838	
760.82	4597	
760.99	4083.6	
761.17	3637.9	
761.35	5473.5	
761.53	4598.4	
761.71	3687	
761.89	4210.6	
762.06	5303.6	
762.24	4938.3	
762.42	3799.7	
762.6	3549.1	
762.78	4878.3	
762.96	5408.7	
763.13	4015.4	
763.31	3748.5	
763.49	5527.5	
763.67	4871.4	
763.85	4410.6	
764.02	4867.3	
764.2	5822.4	
764.38	5091.9	
764.56	3637.2	
764.74	4401.1	
764.91	5885.2	
765.09	4965	
765.27	3425.6	
765.45	3254.9	
765.63	5917.9	
765.8	5802.6	
765.98	3123.2	
766.16	3381.9	
766.34	4571.1	
766.52	4381.3	
766.69	4117.8	
766.87	3213.3	
767.05	4984.8	
767.23	5677.7	
767.41	3464.5	
767.58	3672.7	
767.76	5481	
767.94	5499.5	
768.12	3575.1	
768.29	4119.1	
768.47	5038	
768.65	5586.2	
768.83	3267.9	
769	4202.4	
769.18	4676.9	
769.36	5250.3	
769.54	4205.2	
769.72	3278.8	
769.89	5582.1	
770.07	5577.3	
770.25	3596.9	
770.43	4595	
770.6	6156.2	
770.78	6413.6	
770.96	3737.5	
771.14	4242.7	
771.31	5481.7	
771.49	4981.3	
771.67	3067.2	
771.85	3244	
772.02	4315.1	
772.2	4940.4	
772.38	3835.2	
772.55	3464.5	
772.73	5214.8	
772.91	4929.5	
773.09	3743.7	
773.26	3807.2	
773.44	5148.6	
773.62	4868	
773.8	3371	
773.97	3166.2	
774.15	5181.4	
774.33	4881	
774.5	3363.4	
774.68	3556	
774.86	5103.5	
775.04	4829.1	
775.21	3400.3	
775.39	3353.9	
775.57	5088.5	
775.74	5380	
775.92	3249.4	
776.1	3059.7	
776.27	5160.9	
776.45	6054.5	
776.63	3384.6	
776.81	3003	
776.98	4836.6	
777.16	5642.2	
777.34	3457.7	
777.51	3705.5	
777.69	4860.5	
777.87	4611.3	
778.04	3530.7	
778.22	4018.8	
778.4	4720.6	
778.57	5175.9	
778.75	2930	
778.93	3169.6	
779.1	4534.2	
779.28	4354.7	
779.46	2977.1	
779.64	3360.7	
779.81	5299.5	
779.99	6020.3	
780.17	3948.5	
780.34	4091.2	
780.52	4920.6	
780.69	5062.6	
780.87	3609.9	
781.05	3289	
781.22	4985.4	
781.4	5023	
781.58	3361.4	
781.75	2721.1	
781.93	5014.1	
782.11	4448.2	
782.28	4152.6	
782.46	3356.6	
782.64	4378.6	
782.81	5173.9	
782.99	3466.5	
783.17	3431	
783.34	4992.3	
783.52	4440	
783.69	3574.4	
783.87	4250.2	
784.05	4619.5	
784.22	4562.9	
784.4	4201.7	
784.58	3673.4	
784.75	5316.5	
784.93	4537.6	
785.1	3407.8	
785.28	3907.5	
785.46	5063.9	
785.63	4478.9	
785.81	3364.8	
785.99	3274	
786.16	4676.2	
786.34	4923.3	
786.51	3300.6	
786.69	3705.5	
786.87	4333.5	
787.04	4711.7	
787.22	3208.5	
787.39	3974.4	
787.57	4524.6	
787.75	5416.2	
787.92	4134.8	
788.1	4061.1	
788.27	4579.3	
788.45	4328.7	
788.63	3908.2	
788.8	2814.6	
788.98	4903.5	
789.15	4232.5	
789.33	2942.9	
789.5	3404.4	
789.68	5253	
789.86	5360.9	
790.03	3792.2	
790.21	3280.8	
790.38	5269.4	
790.56	4626.4	
790.73	3205.8	
790.91	3263.8	
791.09	4566.3	
791.26	5135.6	
791.44	3444	
791.61	3015.3	
791.79	4504.8	
791.96	4562.9	
792.14	3080.8	
792.32	2805.7	
792.49	4493.2	
792.67	4647.5	
792.84	3149.8	
793.02	2984.6	
793.19	4944.5	
793.37	5493.3	
793.54	2745	
793.72	3034.4	
793.89	5535.7	
794.07	4573.1	
794.25	3373.7	
794.42	2816.6	
794.6	5378	
794.77	5072.1	
794.95	3738.2	
795.12	3287	
795.3	4511	
795.47	5033.9	
795.65	3633.8	
795.82	3464.5	
796	4365.6	
796.17	5943.2	
796.35	3382.6	
796.52	3958	
796.7	4967.7	
796.87	5072.1	
797.05	3353.9	
797.22	4090.5	
797.4	5055.8	
797.57	5831.9	
797.75	3490.4	
797.92	3304.7	
798.1	5269.4	
798.27	4565.6	
798.45	2915.6	
798.62	3086.3	
798.8	4825	
798.97	5174.5	
799.15	3637.2	
799.32	3435.8	
799.5	4188.8	
799.67	4783.4	
799.85	3732.1	
800.02	2779.1	
800.2	4472.1	
800.37	4735.6	
800.55	3898	
800.72	3289.7	
800.9	5159.5	
801.07	5525.4	
801.25	4369	
801.42	3585.3	
801.6	5181.4	
801.77	4939.7	
801.95	3357.3	
802.12	3212.6	
802.29	4967	
802.47	4879.6	
802.64	3599	
802.82	2745.6	
802.99	4498.7	
803.17	5257.1	
803.34	3536.2	
803.52	3226.2	
803.69	5834	
803.87	4334.9	
804.04	3465.8	
804.21	3546.4	
804.39	5450.3	
804.56	4635.2	
804.74	2977.1	
804.91	3573	
805.09	4503.5	
805.26	4642.1	
805.44	3050.8	
805.61	3340.2	
805.78	5108.3	
805.96	5128.8	
806.13	3583.3	
806.31	3841.3	
806.48	4149.9	
806.66	4619.5	
806.83	3575.8	
807	3479.5	
807.18	4521.9	
807.35	4851	
807.53	3490.4	
807.7	2839.2	
807.87	5508.4	
808.05	4597	
808.22	3855.6	
808.4	2892.4	
808.57	4556	
808.74	4303.5	
808.92	3242.6	
809.09	4105.5	
809.27	4554	
809.44	4978.6	
809.61	2864.4	
809.79	3132.7	
809.96	5550	
810.14	5186.1	
810.31	2816	
810.48	3392.1	
810.66	4639.3	
810.83	5197.7	
811.01	3245.3	
811.18	3568.9	
811.35	5124.7	
811.53	4150.6	
811.7	3859.1	
811.87	3623.5	
812.05	4622.9	
812.22	4496.7	
812.39	3175	
812.57	3059	
812.74	4655.7	
812.92	5921.4	
813.09	3431.7	
813.26	3681.6	
813.44	5651.7	
813.61	4557.4	
813.78	2888.3	
813.96	3734.8	
814.13	4614.8	
814.3	4384	
814.48	4011.3	
814.65	3380.5	
814.82	5453.1	
815	4335.5	
815.17	3476.8	
815.34	4159.4	
815.52	4534.9	
815.69	4541	
815.87	3426.3	
816.04	3379.8	
816.21	4575.8	
816.38	4072	
816.56	3319.1	
816.73	3092.4	
816.9	5709.7	
817.08	5119.2	
817.25	3178.4	
817.42	3921.2	
817.6	4239.3	
817.77	4548.5	
817.94	3513.6	
818.12	3076.7	
818.29	4387.4	
818.46	6508.4	
818.64	3317.7	
818.81	3067.2	
818.98	4384	
819.16	6013.5	
819.33	3691.1	
819.5	3461.7	
819.67	4895.3	
819.85	5395	
820.02	3439.9	
820.19	3614	
820.37	4761.5	
820.54	4475.5	
820.71	3550.5	
820.88	4360.1	
821.06	4745.8	
821.23	4369	
821.4	3534.1	
821.58	3489.1	
821.75	5119.2	
821.92	4678.2	
822.09	2803.7	
822.27	2964.8	
822.44	4634.6	
822.61	4526.7	
822.79	2949.1	
822.96	5325.4	
823.13	4939	
823.3	4358.1	
823.48	3281.5	
823.65	3014.6	
823.82	5140.4	
823.99	4276.8	
824.17	4188.1	
824.34	3073.3	
824.51	5896.1	
824.68	4604.5	
824.86	3190.1	
825.03	3510.9	
825.2	4570.4	
825.37	5437.4	
825.55	3181.2	
825.72	3449.5	
825.89	5824.4	
826.06	5561.6	
826.24	3327.9	
826.41	3414.6	
826.58	5493.3	
826.75	4753.3	
826.92	2780.5	
827.1	3025.5	
827.27	7303.1	
827.44	5858.6	
827.61	3198.9	
827.79	3887.7	
827.96	4428.4	
828.13	4566.3	
828.3	3422.8	
828.47	2904.7	
828.65	4801.1	
828.82	4807.9	
828.99	4315.1	
829.16	3769.6	
829.34	5158.8	
829.51	4911.7	
829.68	3424.9	
829.85	3539.6	
830.02	5448.3	
830.2	5137	
830.37	2729.3	
830.54	4174.4	
830.71	5740.5	
830.88	4569	
831.05	2729.9	
831.23	3201	
831.4	5583.4	
831.57	6098.9	
831.74	3254.9	
831.91	2859	
832.09	4915.8	
832.26	5096.7	
832.43	3332	
832.6	3665.9	
832.77	4885.8	
832.94	5444.9	
833.12	2680.8	
833.29	3265.1	
833.46	4919.9	
833.63	6321.4	
833.8	3553.9	
833.97	3306.1	
834.15	5166.3	
834.32	4969.1	
834.49	3454.2	
834.66	3504.1	
834.83	5239.4	
835	4405.2	
835.17	3192.1	
835.35	3258.3	
835.52	5072.1	
835.69	4923.3	
835.86	3349.8	
836.03	2803.7	
836.2	5090.6	
836.37	4764.3	
836.55	3282.9	
836.72	3146.4	
836.89	4752.7	
837.06	5195.7	
837.23	3359.4	
837.4	3693.9	
837.57	5821.7	
837.75	6288.6	
837.92	3082.9	
838.09	3254.2	
838.26	4806.6	
838.43	5317.9	
838.6	3467.9	
838.77	3111.5	
838.94	5969.8	
839.11	5776.6	
839.29	3360	
839.46	2699.2	
839.63	5147.9	
839.8	4898.1	
839.97	3265.1	
840.14	3237.8	
840.31	4986.1	
840.48	5138.4	
840.65	2787.3	
840.82	3160.7	
841	5108.3	
841.17	5016.8	
841.34	2947	
841.51	3108.1	
841.68	5083.1	
841.85	4793.6	
842.02	3140.2	
842.19	2603	
842.36	4920.6	
842.53	4931.5	
842.7	2988.7	
842.87	3605.8	
843.05	6201.9	
843.22	4839.4	
843.39	2905.4	
843.56	3106.8	
843.73	4753.3	
843.9	5147.2	
844.07	4757.4	
844.24	3943.7	
844.41	7128.3	
844.58	4506.9	
844.75	2872.6	
844.92	3142.3	
845.09	5059.2	
845.26	5057.1	
845.43	2949.1	
845.6	3121.8	
845.77	5107	
845.94	4875.5	
846.12	3220.1	
846.29	3439.2	
846.46	5316.5	
846.63	5091.3	
846.8	2964.1	
846.97	3514.3	
847.14	5509	
847.31	5042.1	
847.48	3310.2	
847.65	3657	
847.82	5292	
847.99	5295.4	
848.16	3928	
848.33	3625.6	
848.5	4709	
848.67	5474.9	
848.84	2888.3	
849.01	3101.3	
849.18	4627.7	
849.35	4338.3	
849.52	3628.3	
849.69	2944.3	
849.86	5301.5	
850.03	5417.6	
850.2	3040.6	
850.37	3552.5	
850.54	5331.5	
850.71	4870.1	
850.88	3510.9	
851.05	2925.9	
851.22	4982.7	
851.39	5507	
851.56	2796.2	
851.73	3360	
851.9	4476.9	
852.07	5265.3	
852.24	3295.2	
852.41	2986.6	
852.58	5023.7	
852.75	4578.6	
852.92	3319.8	
853.09	2873.3	
853.26	4724.7	
853.43	5394.3	
853.6	3007.1	
853.77	2566.8	
853.94	5537.7	
854.11	4558.1	
854.28	4322.6	
854.44	3222.8	
854.61	5847.6	
854.78	5339.1	
854.95	2928.6	
855.12	3694.5	
855.29	4214.7	
855.46	5573.2	
855.63	2993.4	
855.8	4042	
855.97	4732.9	
856.14	5379.3	
856.31	4231.1	
856.48	3191.4	
856.65	4699.4	
856.82	4490.5	
856.99	2866.5	
857.16	3203	
857.33	6083.8	
857.49	4819.6	
857.66	3207.1	
857.83	3406.5	
858	4804.5	
858.17	4971.1	
858.34	2809.8	
858.51	2978.4	
858.68	5643.5	
858.85	5601.2	
859.02	3461.1	
859.19	3614	
859.36	4555.4	
859.52	4554	
859.69	2965.5	
859.86	3485.6	
860.03	4595	
860.2	5549.3	
860.37	2746.3	
860.54	3011.9	
860.71	5324.7	
860.88	5587.5	
861.05	3279.5	
861.21	3674.7	
861.38	5589.6	
861.55	4371.7	
861.72	2768.2	
861.89	3246	
862.06	5319.3	
862.23	5710.4	
862.4	2891.7	
862.56	3066.5	
862.73	5131.5	
862.9	4937.7	
863.07	3393.5	
863.24	2727.2	
863.41	4476.2	
863.58	4575.8	
863.75	3005.7	
863.91	3463.1	
864.08	5505.6	
864.25	5203.9	
864.42	3690.4	
864.59	4063.9	
864.76	5744.6	
864.93	4562.9	
865.09	2906.8	
865.26	3196.2	
865.43	5447.6	
865.6	5741.1	
865.77	2612.5	
865.94	2955.2	
866.1	5489.9	
866.27	5188.9	
866.44	4383.3	
866.61	2812.5	
866.78	4844.8	
866.95	5167	
867.11	2881.5	
867.28	2713.6	
867.45	5357.5	
867.62	4533.5	
867.79	3414.6	
867.96	2931.3	
868.12	4517.8	
868.29	5251	
868.46	2969.6	
868.63	3848.8	
868.8	5398.4	
868.97	5236	
869.13	3077.4	
869.3	3103.4	
869.47	5090.6	
869.64	5292.6	
869.81	3005.1	
869.97	2987.3	
870.14	5061.2	
870.31	5494	
870.48	2904	
870.65	3696.6	
870.81	4797.7	
870.98	4800.4	
871.15	3334.8	
871.32	3068.5	
871.48	5113.8	
871.65	5627.1	
871.82	2981.2	
871.99	3221.5	
872.16	5989.6	
872.32	5473.5	
872.49	3005.7	
872.66	3040.6	
872.83	5250.3	
872.99	4703.5	
873.16	3416	
873.33	2890.4	
873.5	4904.9	
873.67	4997	
873.83	3119.7	
874	3913.7	
874.17	5081	
874.34	5907.7	
874.5	3809.2	
874.67	3633.1	
874.84	5569.8	
875.01	4450.2	
875.17	4091.2	
875.34	2936.8	
875.51	5046.2	
875.68	5935	
875.84	3567.6	
876.01	4202.4	
876.18	5218.9	
876.34	5201.2	
876.51	3017.3	
876.68	2889	
876.85	4827.1	
877.01	5469.4	
877.18	4207.9	
877.35	2981.2	
877.52	5017.5	
877.68	4478.2	
877.85	2917.7	
878.02	2886.3	
878.18	4820.9	
878.35	4728.8	
878.52	2397.5	
878.69	3271.3	
878.85	5309	
879.02	5221.6	
879.19	4149.9	
879.35	3138.2	
879.52	5248.9	
879.69	5413.5	
879.86	2615.3	
880.02	3309.5	
880.19	4857.8	
880.36	5892	
880.52	3362.1	
880.69	3502.7	
880.86	5347.2	
881.02	5423	
881.19	3231.7	
881.36	3202.3	
881.52	5246.9	
881.69	4704.2	
881.86	3218.7	
882.02	3121.8	
882.19	5396.4	
882.36	6257.2	
882.52	3039.2	
882.69	4121.2	
882.86	5066.7	
883.02	4996.4	
883.19	3574.4	
883.36	3319.1	
883.52	5365.7	
883.69	5941.8	
883.86	3007.8	
884.02	2753.8	
884.19	5305.6	
884.36	4941.7	
884.52	3330.7	
884.69	3146.4	
884.86	4716.5	
885.02	5754.8	
885.19	3297.2	
885.36	3396.2	
885.52	4917.2	
885.69	5059.2	
885.86	4183.3	
886.02	3756	
886.19	5354.1	
886.35	4793.6	
886.52	3261.7	
886.69	4004.5	
886.85	4567.7	
887.02	5543.2	
887.19	5543.2	
887.35	5543.2	
887.52	5543.2	
887.68	5543.2	
887.85	5543.2	
888.02	5543.2	
888.18	5543.2	
888.35	5543.2	
888.51	5543.2	
888.68	5543.2	
888.85	5543.2	
889.01	5543.2	
889.18	5543.2	
889.35	5543.2	
889.51	5543.2	
889.68	5543.2	
889.84	5543.2	
890.01	5543.2	
890.17	5543.2	
890.34	5543.2	
890.51	5543.2	
890.67	5543.2	
890.84	5543.2	
891	5543.2	
891.17	5543.2	
891.34	5543.2	
891.5	5543.2	
891.67	5543.2	
891.83	5543.2	
892	5543.2	
892.16	5543.2	
892.33	5543.2	
892.5	5543.2	
892.66	5543.2	
892.83	5543.2	
892.99	5543.2	
893.16	5543.2	
893.32	5543.2	
893.49	5543.2	
893.65	5543.2	
893.82	5543.2	
893.99	5543.2	
894.15	5543.2	
894.32	5543.2	
894.48	5543.2	
894.65	5543.2	
894.81	5543.2	
894.98	5543.2	
895.14	5543.2	
895.31	5543.2	
895.47	5543.2	
895.64	5543.2	
895.81	5543.2	
895.97	5543.2	
896.14	5543.2	
896.3	5543.2	
896.47	5543.2	
896.63	5543.2	
896.8	5543.2	
896.96	5543.2	
897.13	5543.2	
897.29	5543.2	
897.46	5543.2	
897.62	5543.2	
897.79	5543.2	
897.95	5543.2	
898.12	5543.2	
898.28	5543.2	
898.45	5543.2	
898.61	5543.2	
898.78	5543.2	
898.94	5543.2	
899.11	5543.2	
899.27	5543.2	
899.44	5543.2	
899.6	5543.2	
899.77	5543.2	
899.93	5543.2	
900.1	5543.2	
900.26	5543.2	
900.43	5543.2	
900.59	5543.2	
900.76	5543.2	
900.92	5543.2	
901.09	5543.2	
901.25	5543.2	
901.42	5543.2	
901.58	5543.2	
901.75	5543.2	
901.91	5543.2	
902.07	5543.2	
902.24	5543.2	
902.4	5543.2	
902.57	5543.2	
902.73	5543.2	
902.9	5543.2	
903.06	5543.2	
903.23	5543.2	
903.39	5543.2	
903.56	5543.2	
903.72	5543.2	
903.88	5543.2	
904.05	5543.2	
904.21	5543.2	
904.38	5543.2	
904.54	5543.2	
904.71	5543.2	
904.87	5543.2	
905.03	5543.2	
905.2	5543.2	
905.36	5543.2	
905.53	5543.2	
905.69	5543.2	
905.86	5543.2	
906.02	5543.2	
906.18	5543.2	
906.35	5543.2	
906.51	5543.2	
906.68	5543.2	
906.84	5543.2	
907.01	5543.2	
907.17	5543.2	
907.33	5543.2	
907.5	5543.2	
907.66	5543.2	
907.83	5543.2	
907.99	5543.2	
908.15	5543.2	
908.32	5543.2	
908.48	5543.2	
908.65	5543.2	
908.81	5543.2	
908.97	5543.2	
909.14	5543.2	
909.3	5543.2	
909.47	5543.2	
909.63	5543.2	
909.79	5543.2	
909.96	5543.2	
910.12	5543.2	
910.28	5543.2	
910.45	5543.2	
910.61	5543.2	
910.78	5543.2	
910.94	5543.2	
911.1	5543.2	
911.27	5543.2	
911.43	5543.2	
911.59	5543.2	
911.76	5543.2	
911.92	5543.2	
912.08	5543.2	
912.25	5543.2	
912.41	5543.2	
912.57	5543.2	
912.74	5543.2	
912.9	5543.2	
913.07	5543.2	
913.23	5543.2	
913.39	5543.2	
913.56	5543.2	
913.72	5543.2	
913.88	5543.2	
914.05	5543.2	
914.21	5543.2	
914.37	5543.2	
914.54	5543.2	
914.7	5543.2	
914.86	5543.2	
915.03	5543.2	
915.19	5543.2	
