Wavelength	Intensities	
nm	a.u.	
179.22	1607.1	
179.44	1588.9	
179.65	1625.4	
179.86	1552.4	
180.08	1590.6	
180.29	3552.5	
180.51	2734.7	
180.72	4668	
180.94	5104.2	
181.15	2546.3	
181.37	2527.2	
181.58	4476.2	
181.79	4666.6	
182.01	2577	
182.22	2629.6	
182.44	4724.7	
182.65	4077.5	
182.87	3280.8	
183.08	2961.4	
183.29	4892.6	
183.51	4160.8	
183.72	2658.3	
183.94	3659	
184.15	4439.3	
184.37	4311.7	
184.58	2418	
184.79	3054.9	
185.01	4187.4	
185.22	4697.4	
185.44	3229	
185.65	2849.4	
185.86	4427.7	
186.08	4117.8	
186.29	2454.1	
186.51	2555.2	
186.72	4215.4	
186.94	4749.9	
187.15	2919.7	
187.36	2924.5	
187.58	5807.4	
187.79	4530.1	
188.01	3007.8	
188.22	4339.6	
188.43	5121.3	
188.65	4599.1	
188.86	2588.6	
189.08	2955.2	
189.29	4313.7	
189.5	4254.3	
189.72	2708.1	
189.93	2766.1	
190.15	4780	
190.36	5455.1	
190.57	2984.6	
190.79	2837.8	
191	4758.1	
191.22	4792.9	
191.43	3020.8	
191.64	2539.5	
191.86	4920.6	
192.07	4747.9	
192.29	2634.4	
192.5	2724.5	
192.71	4828.4	
192.93	4325.3	
193.14	2698.5	
193.35	2753.2	
193.57	4285	
193.78	4771.1	
194	2261.6	
194.21	2715.6	
194.42	4140.3	
194.64	4448.2	
194.85	2881.5	
195.07	3310.2	
195.28	4390.8	
195.49	4005.1	
195.71	3444	
195.92	2591.4	
196.13	4590.2	
196.35	4595.6	
196.56	3645.4	
196.78	2956.6	
196.99	5423	
197.2	5069.4	
197.42	3229	
197.63	2912.9	
197.84	4112.3	
198.06	4552.6	
198.27	2758.6	
198.48	3433.1	
198.7	4266.6	
198.91	4455.7	
199.13	2930	
199.34	2968.9	
199.55	4836.6	
199.77	3867.9	
199.98	2702.6	
200.19	2921.8	
200.41	4372.4	
200.62	4141	
200.83	3020.8	
201.05	3230.3	
201.26	4403.1	
201.47	4218.1	
201.69	2692.4	
201.9	2613.2	
202.11	4488.5	
202.33	5031.9	
202.54	2740.9	
202.76	3088.3	
202.97	4450.9	
203.18	4568.3	
203.4	3011.2	
203.61	3132	
203.82	4486.4	
204.04	4214.7	
204.25	2910.8	
204.46	2850.8	
204.68	4422.2	
204.89	4567	
205.1	2869.9	
205.32	2592.7	
205.53	4599.7	
205.74	4745.8	
205.96	2337.4	
206.17	3006.4	
206.38	4631.1	
206.6	4713.7	
206.81	3321.8	
207.02	2767.5	
207.24	4577.9	
207.45	4894	
207.66	2831	
207.88	2536.1	
208.09	4524.6	
208.3	4425	
208.52	2627.5	
208.73	2910.8	
208.94	4349.2	
209.15	4908.3	
209.37	2852.8	
209.58	2895.8	
209.79	4775.9	
210.01	4345.8	
210.22	2387.9	
210.43	2512.2	
210.65	4362.2	
210.86	4602.5	
211.07	2805.7	
211.29	2619.4	
211.5	4541.7	
211.71	4356	
211.93	2664.4	
212.14	2677.4	
212.35	4408.6	
212.56	4455	
212.78	2917	
212.99	2508.1	
213.2	4991.6	
213.42	4356	
213.63	2725.8	
213.84	2820.1	
214.06	4064.5	
214.27	4154.6	
214.48	2769.5	
214.69	2956.6	
214.91	4902.8	
215.12	4863.2	
215.33	2953.9	
215.55	3188	
215.76	5134.3	
215.97	4584	
216.18	2849.4	
216.4	2850.1	
216.61	4141	
216.82	4728.8	
217.04	2669.2	
217.25	2702.6	
217.46	4803.2	
217.67	4662.5	
217.89	2469.9	
218.1	2521	
218.31	4416.8	
218.53	4524.6	
218.74	2796.2	
218.95	2644.6	
219.16	4435.9	
219.38	4998.4	
219.59	2674.6	
219.8	3087	
220.01	5333.6	
220.23	4444.1	
220.44	3301.3	
220.65	2607.7	
220.87	4511.7	
221.08	4780	
221.29	2534	
221.5	3157.3	
221.72	5588.9	
221.93	4201.1	
222.14	2930	
222.35	3365.5	
222.57	4412.7	
222.78	4764.9	
222.99	2890.4	
223.2	2952.5	
223.42	4587.4	
223.63	4684.4	
223.84	2270.5	
224.05	2368.8	
224.27	5162.9	
224.48	4941.7	
224.69	3366.9	
224.9	2963.4	
225.12	4579.9	
225.33	4370.4	
225.54	2425.5	
225.75	2677.4	
225.97	4188.1	
226.18	4407.2	
226.39	2847.4	
226.6	2684.9	
226.82	4356.7	
227.03	4153.3	
227.24	2938.8	
227.45	2523.1	
227.67	4704.2	
227.88	4913.1	
228.09	3254.9	
228.3	3199.6	
228.52	4633.9	
228.73	4356.7	
228.94	2740.9	
229.15	2514.2	
229.36	4411.3	
229.58	4431.1	
229.79	2792.1	
230	3140.2	
230.21	5119.9	
230.43	4424.3	
230.64	2908.8	
230.85	2976.4	
231.06	4745.8	
231.28	4686.4	
231.49	2528.6	
231.7	2882.2	
231.91	4643.4	
232.12	4365.6	
232.34	2583.2	
232.55	2852.1	
232.76	4820.2	
232.97	4468	
233.18	2686.3	
233.4	2957.9	
233.61	4545.8	
233.82	4265.9	
234.03	2800.3	
234.25	2760.7	
234.46	5680.4	
234.67	4443.4	
234.88	2907.4	
235.09	2711.5	
235.31	4558.8	
235.52	4389.5	
235.73	2877.4	
235.94	2575	
236.15	4214	
236.37	5096	
236.58	2637.8	
236.79	2852.1	
237	4585.4	
237.21	4072.7	
237.43	3066.5	
237.64	2503.3	
237.85	6934.4	
238.06	4169	
238.27	2943.6	
238.48	2559.3	
238.7	4638.6	
238.91	4356.7	
239.12	2855.6	
239.33	2875.3	
239.54	4158.7	
239.76	4396.3	
239.97	2816	
240.18	2850.1	
240.39	5122.7	
240.6	4545.8	
240.82	2966.1	
241.03	2521	
241.24	4412.7	
241.45	4895.3	
241.66	2607.7	
241.87	3035.1	
242.09	4952.7	
242.3	5046.9	
242.51	3052.2	
242.72	2798.2	
242.93	4634.6	
243.14	4388.1	
243.36	3229	
243.57	3393.5	
243.78	4921.3	
243.99	4656.4	
244.2	2811.9	
244.41	2624.1	
244.63	4132.8	
244.84	4547.9	
245.05	2979.1	
245.26	2750.4	
245.47	4664.6	
245.68	4726.7	
245.9	3499.3	
246.11	2919	
246.32	4275.5	
246.53	4628.4	
246.74	4292.5	
246.95	2516.3	
247.16	4199.7	
247.38	4455.7	
247.59	2506.7	
247.8	2837.1	
248.01	4121.9	
248.22	4388.1	
248.43	2616.6	
248.64	2742.9	
248.86	4124.6	
249.07	4291.9	
249.28	2637.1	
249.49	2934.1	
249.7	4756.1	
249.91	4752	
250.12	2467.8	
250.34	2526.5	
250.55	4506.2	
250.76	4435.2	
250.97	2943.6	
251.18	2940.9	
251.39	4792.9	
251.6	4534.2	
251.81	2927.2	
252.03	2914.9	
252.24	4291.2	
252.45	4687.1	
252.66	2518.3	
252.87	3024.8	
253.08	4441.4	
253.29	5474.9	
253.5	2613.9	
253.72	3293.8	
253.93	4361.5	
254.14	5058.5	
254.35	2734	
254.56	2772.9	
254.77	4514.4	
254.98	4227	
255.19	2691.7	
255.41	3236.5	
255.62	4548.5	
255.83	4814.8	
256.04	3079.5	
256.25	2859	
256.46	5167.7	
256.67	4232.5	
256.88	2892.4	
257.09	3168.2	
257.31	4092.5	
257.52	4169.7	
257.73	3521.8	
257.94	2745.6	
258.15	4416.1	
258.36	4334.9	
258.57	3224.9	
258.78	2245.9	
258.99	4741.7	
259.2	4287.8	
259.41	2737.5	
259.63	2828.9	
259.84	4969.7	
260.05	5165	
260.26	3402.4	
260.47	2701.3	
260.68	4780.6	
260.89	4326	
261.1	3182.5	
261.31	2607.1	
261.52	4853	
261.73	5018.9	
261.95	3401.7	
262.16	2978.4	
262.37	4786.1	
262.58	4883	
262.79	3343	
263	2770.2	
263.21	4412.7	
263.42	4218.8	
263.63	2998.2	
263.84	2766.8	
264.05	4761.5	
264.26	4964.3	
264.47	3284.9	
264.69	2977.7	
264.9	4969.1	
265.11	4515.1	
265.32	2631.6	
265.53	2695.8	
265.74	4497.3	
265.95	3999	
266.16	2868.5	
266.37	3080.8	
266.58	4531.5	
266.79	4229.7	
267	2807.1	
267.21	2534	
267.42	4126.7	
267.63	4389.5	
267.84	2799.6	
268.06	2488.3	
268.27	4778.6	
268.48	4802.5	
268.69	2792.1	
268.9	3152.5	
269.11	4777.2	
269.32	3984	
269.53	2817.3	
269.74	2668.5	
269.95	4526	
270.16	4037.9	
270.37	2891	
270.58	3200.3	
270.79	4322.6	
271	4732.2	
271.21	2940.9	
271.42	2873.3	
271.63	4604.5	
271.84	4138.9	
272.05	2390	
272.26	2605	
272.47	4384.7	
272.68	4485.1	
272.89	2738.8	
273.11	3037.8	
273.32	4198.3	
273.53	4910.3	
273.74	2948.4	
273.95	3026.2	
274.16	4706.2	
274.37	4403.8	
274.58	3102.7	
274.79	2575	
275	4542.4	
275.21	4754.7	
275.42	3612.6	
275.63	3073.3	
275.84	4620.2	
276.05	5494	
276.26	2945.7	
276.47	2764.8	
276.68	4383.3	
276.89	5095.3	
277.1	3127.9	
277.31	2584.5	
277.52	4546.5	
277.73	4832.5	
277.94	2526.5	
278.15	2763.4	
278.36	4596.3	
278.57	4231.1	
278.78	2790.7	
278.99	3024.8	
279.2	4228.4	
279.41	4169.7	
279.62	3468.6	
279.83	2584.5	
280.04	5169.1	
280.25	4154.6	
280.46	3452.2	
280.67	2828.9	
280.88	4214.7	
281.09	4796.3	
281.3	2961.4	
281.51	3589.4	
281.72	4259.1	
281.93	4721.9	
282.14	2719	
282.35	2919.7	
282.56	4763.6	
282.77	4704.9	
282.98	2798.9	
283.19	3247.4	
283.4	5528.8	
283.61	4366.3	
283.82	2633.7	
284.03	3371.6	
284.24	4556.7	
284.45	4766.3	
284.66	3392.8	
284.87	3238.5	
285.08	4818.9	
285.29	4887.8	
285.5	2547.7	
285.71	2783.2	
285.92	4726.7	
286.12	5190.9	
286.33	3398.9	
286.54	2805.7	
286.75	4749.2	
286.96	4377.2	
287.17	2650.8	
287.38	3271.3	
287.59	4284.4	
287.8	4278.9	
288.01	2806.4	
288.22	3107.5	
288.43	4563.6	
288.64	4037.2	
288.85	3166.8	
289.06	3096.5	
289.27	4716.5	
289.48	4895.3	
289.69	3390.8	
289.9	3164.1	
290.11	4859.1	
290.32	4314.4	
290.53	3219.4	
290.74	3025.5	
290.94	4682.3	
291.15	4748.6	
291.36	2725.8	
291.57	3112.2	
291.78	4336.2	
291.99	4045.4	
292.2	2664.4	
292.41	3046.7	
292.62	4749.2	
292.83	4603.8	
293.04	3668.6	
293.25	2705.4	
293.46	4404.5	
293.67	4758.8	
293.88	2704.7	
294.09	2660.3	
294.29	4205.8	
294.5	4495.3	
294.71	2871.3	
294.92	2687.6	
295.13	4301.4	
295.34	5096.7	
295.55	2518.3	
295.76	2464.4	
295.97	4687.8	
296.18	5045.5	
296.39	2552.5	
296.6	2675.3	
296.81	4463.9	
297.01	4659.8	
297.22	2830.3	
297.43	2724.5	
297.64	4305.5	
297.85	4107.5	
298.06	2367.5	
298.27	2499.9	
298.48	4388.8	
298.69	4206.5	
298.9	2897.9	
299.11	2646.7	
299.31	4176.5	
299.52	4175.1	
299.73	3026.9	
299.94	2957.3	
300.15	4462.5	
300.36	4257.7	
300.57	3004.4	
300.78	2956.6	
300.99	4317.1	
301.2	4496.7	
301.4	2739.5	
301.61	2875.3	
301.82	4584.7	
302.03	4648.2	
302.24	3181.2	
302.45	2635.1	
302.66	4628.4	
302.87	4749.9	
303.08	2736.8	
303.29	3480.2	
303.49	4297.3	
303.7	4385.4	
303.91	2446	
304.12	3390.8	
304.33	4035.2	
304.54	4530.1	
304.75	2721.1	
304.96	2670.6	
305.16	4634.6	
305.37	5039.4	
305.58	2465.1	
305.79	2480.1	
306	4651.6	
306.21	4049.5	
306.42	2695.8	
306.63	3880.2	
306.83	4261.8	
307.04	4612	
307.25	2895.1	
307.46	2871.9	
307.67	3986	
307.88	4588.8	
308.09	2751.1	
308.29	2680.8	
308.5	4467.3	
308.71	4707.6	
308.92	2839.8	
309.13	2581.8	
309.34	4437.9	
309.55	4332.8	
309.75	3289	
309.96	2968.2	
310.17	4663.2	
310.38	4201.7	
310.59	3061.7	
310.8	2564.1	
311.01	5088.5	
311.21	4381.3	
311.42	2626.9	
311.63	2712.9	
311.84	4270.7	
312.05	4438.6	
312.26	2964.8	
312.46	3191.4	
312.67	4302.1	
312.88	4102.8	
313.09	2593.4	
313.3	2587.3	
313.51	4903.5	
313.71	5083.7	
313.92	2661.7	
314.13	2771.6	
314.34	4520.5	
314.55	4417.5	
314.76	3207.8	
314.96	2865.8	
315.17	4592.2	
315.38	4605.2	
315.59	2615.3	
315.8	2537.4	
316.01	4905.6	
316.21	4969.1	
316.42	2593.4	
316.63	2861	
316.84	4349.2	
317.05	4796.3	
317.26	3013.9	
317.46	2777.7	
317.67	4400.4	
317.88	4623.6	
318.09	3177.8	
318.3	2486.9	
318.5	4280.3	
318.71	4571.7	
318.92	3925.3	
319.13	3019.4	
319.34	4705.5	
319.54	4799.1	
319.75	2507.4	
319.96	2409.1	
320.17	4549.2	
320.38	4733.5	
320.58	2451.4	
320.79	2809.8	
321	4791.6	
321.21	4883	
321.42	2899.2	
321.62	2487.6	
321.83	4227	
322.04	4442	
322.25	2799.6	
322.46	2631.6	
322.66	4525.3	
322.87	4633.9	
323.08	3150.5	
323.29	2555.2	
323.5	5111.7	
323.7	4100	
323.91	3383.9	
324.12	3050.1	
324.33	4543.1	
324.53	4612	
324.74	2890.4	
324.95	3063.8	
325.16	4127.3	
325.37	4328.7	
325.57	2617.3	
325.78	2689	
325.99	4599.1	
326.2	4095.3	
326.4	3536.8	
326.61	2480.1	
326.82	4383.3	
327.03	4491.2	
327.24	3553.9	
327.44	3292.5	
327.65	4616.1	
327.86	3913.7	
328.07	2974.3	
328.27	2585.2	
328.48	4868	
328.69	4152.6	
328.9	3521.1	
329.1	2700.6	
329.31	4394.3	
329.52	4867.3	
329.73	2644.6	
329.93	2860.3	
330.14	4491.9	
330.35	4525.3	
330.56	3984.7	
330.76	3087.7	
330.97	4333.5	
331.18	4463.2	
331.39	2853.5	
331.59	2421.4	
331.8	4771.1	
332.01	4870.1	
332.22	2695.1	
332.42	2930	
332.63	4494.6	
332.84	4173.1	
333.05	2955.2	
333.25	2701.3	
333.46	4214.7	
333.67	4417.5	
333.88	2747.7	
334.08	2925.2	
334.29	5487.9	
334.5	4752.7	
334.7	2589.3	
334.91	3440.6	
335.12	4091.8	
335.33	4619.5	
335.53	2882.9	
335.74	3928	
335.95	4394.9	
336.16	4121.9	
336.36	2844.6	
336.57	3201	
336.78	4074.8	
336.98	4842.8	
337.19	3377.1	
337.4	2805	
337.61	5145.2	
337.81	4127.3	
338.02	2702.6	
338.23	3262.4	
338.43	4876.2	
338.64	4213.4	
338.85	2661	
339.05	3349.8	
339.26	4973.8	
339.47	4067.9	
339.68	2628.2	
339.88	3645.4	
340.09	4608.6	
340.3	4716.5	
340.5	3014.6	
340.71	2390.7	
340.92	4169.7	
341.13	4838.7	
341.33	2562	
341.54	3001.6	
341.75	4539.7	
341.95	4313	
342.16	2927.9	
342.37	3111.5	
342.57	4140.3	
342.78	4343.1	
342.99	3118.4	
343.19	2443.2	
343.4	4688.5	
343.61	4616.1	
343.81	2773.6	
344.02	2542.9	
344.23	4681	
344.43	4830.5	
344.64	3168.2	
344.85	3019.4	
345.06	4602.5	
345.26	4765.6	
345.47	2968.9	
345.68	3390.1	
345.88	4046.1	
346.09	4657.1	
346.3	3001.6	
346.5	2362	
346.71	4316.4	
346.92	4222.9	
347.12	2538.8	
347.33	2945	
347.54	4730.1	
347.74	4967.7	
347.95	2962.7	
348.16	2367.5	
348.36	4287.1	
348.57	4132.1	
348.78	3035.8	
348.98	3095.8	
349.19	4344.4	
349.39	3978.5	
349.6	2497.2	
349.81	2663	
350.01	4650.3	
350.22	4205.8	
350.43	2903.3	
350.63	3246	
350.84	4442	
351.05	4173.8	
351.25	2682.2	
351.46	2468.5	
351.67	4706.2	
351.87	4132.1	
352.08	2839.2	
352.29	3063.8	
352.49	4721.9	
352.7	4444.8	
352.9	2523.1	
353.11	3096.5	
353.32	5044.1	
353.52	4225	
353.73	2618	
353.94	3148.4	
354.14	4583.4	
354.35	4375.1	
354.55	2641.9	
354.76	2851.5	
354.97	4517.1	
355.17	4358.8	
355.38	2512.2	
355.59	3291.1	
355.79	4184.7	
356	4270.7	
356.2	2803	
356.41	2598.9	
356.62	4050.9	
356.82	4346.5	
357.03	3060.3	
357.24	2706.7	
357.44	4132.8	
357.65	4172.4	
357.85	3429.7	
358.06	2921.8	
358.27	3973.7	
358.47	4039.3	
358.68	2502.6	
358.88	3004.4	
359.09	4490.5	
359.3	4648.9	
359.5	3364.1	
359.71	3073.3	
359.91	4860.5	
360.12	4534.2	
360.33	3028.9	
360.53	3233.7	
360.74	4165.6	
360.94	4140.3	
361.15	3103.4	
361.36	2633	
361.56	4678.2	
361.77	4342.4	
361.97	3386	
362.18	2783.2	
362.38	4682.3	
362.59	4076.8	
362.8	2600.2	
363	2504.7	
363.21	3998.3	
363.41	4348.5	
363.62	2960	
363.83	3453.6	
364.03	4513.7	
364.24	4851	
364.44	3563.5	
364.65	3489.7	
364.85	4280.3	
365.06	4104.1	
365.27	2687.6	
365.47	2745.6	
365.68	4835.3	
365.88	4292.5	
366.09	2968.9	
366.29	2701.3	
366.5	4319.8	
366.71	4590.2	
366.91	3464.5	
367.12	3033.7	
367.32	4963.6	
367.53	4560.8	
367.73	3077.4	
367.94	3603.7	
368.14	4580.6	
368.35	4916.5	
368.56	2954.5	
368.76	2575	
368.97	4658.4	
369.17	5487.2	
369.38	2688.3	
369.58	2828.2	
369.79	3909.6	
369.99	4860.5	
370.2	3506.8	
370.4	2921.1	
370.61	4381.3	
370.82	5184.1	
371.02	2923.1	
371.23	2494.4	
371.43	4018.1	
371.64	4791.6	
371.84	2910.2	
372.05	3512.3	
372.25	5459.2	
372.46	4502.1	
372.66	2828.2	
372.87	2828.2	
373.07	4517.1	
373.28	5538.4	
373.48	3377.8	
373.69	3220.8	
373.9	4259.8	
374.1	4263.9	
374.31	3439.2	
374.51	3047.4	
374.72	4666.6	
374.92	4040	
375.13	3450.8	
375.33	3039.2	
375.54	4403.8	
375.74	4192.2	
375.95	3074	
376.15	3741	
376.36	4524	
376.56	4400.4	
376.77	3035.8	
376.97	3256.3	
377.18	5197.7	
377.38	4506.9	
377.59	3434.4	
377.79	2766.1	
378	4395.6	
378.2	4528.7	
378.41	2779.8	
378.61	2678.7	
378.82	4695.3	
379.02	4213.4	
379.23	2856.2	
379.43	3437.9	
379.64	4877.6	
379.84	4472.8	
380.05	2834.4	
380.25	2736.1	
380.46	4554.7	
380.66	4334.9	
380.87	3557.3	
381.07	3835.2	
381.28	4898.1	
381.48	4484.4	
381.69	2771.6	
381.89	2811.9	
382.1	3962.1	
382.3	4544.4	
382.51	3429.7	
382.71	3931.4	
382.91	4492.6	
383.12	4846.9	
383.32	3022.1	
383.53	3149.8	
383.73	4513.7	
383.94	4416.1	
384.14	3136.1	
384.35	2605	
384.55	4156	
384.76	4483.7	
384.96	3076.7	
385.17	3203.7	
385.37	4588.1	
385.58	4104.8	
385.78	3198.9	
385.98	2615.3	
386.19	4300.7	
386.39	4536.9	
386.6	2848.7	
386.8	3015.3	
387.01	4575.2	
387.21	4606.6	
387.42	3245.3	
387.62	3547.8	
387.83	4241.3	
388.03	4314.4	
388.23	3075.4	
388.44	3487.7	
388.64	3953.9	
388.85	3982.6	
389.05	3186	
389.26	3485.6	
389.46	5323.4	
389.67	4869.4	
389.87	3239.9	
390.07	3223.5	
390.28	4281.6	
390.48	4038.6	
390.69	2754.5	
390.89	2965.5	
391.1	4220.9	
391.3	4699.4	
391.5	3659.7	
391.71	3956.7	
391.91	4636.6	
392.12	5033.2	
392.32	3676.1	
392.53	3207.8	
392.73	4263.2	
392.93	4354.7	
393.14	3067.2	
393.34	3455.6	
393.55	4592.2	
393.75	4302.1	
393.95	3075.4	
394.16	3019.4	
394.36	4243.4	
394.57	4638	
394.77	2761.3	
394.98	2992.8	
395.18	4154	
395.38	4279.6	
395.59	3521.8	
395.79	2863.7	
396	4294.6	
396.2	4570.4	
396.4	3386	
396.61	3301.3	
396.81	4578.6	
397.02	4129.4	
397.22	3418.1	
397.42	3511.6	
397.63	4724.7	
397.83	4162.8	
398.04	2822.1	
398.24	3112.9	
398.44	4495.3	
398.65	3872	
398.85	2758.6	
399.05	2774.3	
399.26	4195.6	
399.46	5165.7	
399.67	2994.8	
399.87	2826.9	
400.07	4374.5	
400.28	4554.7	
400.48	2918.4	
400.69	3519.8	
400.89	4617.5	
401.09	5012.7	
401.3	2845.3	
401.5	3471.3	
401.7	5074.2	
401.91	5159.5	
402.11	3085.6	
402.32	3149.8	
402.52	4741	
402.72	4685.8	
402.93	3365.5	
403.13	2648.7	
403.33	5280.3	
403.54	4392.9	
403.74	3224.9	
403.94	3665.9	
404.15	4472.8	
404.35	5160.2	
404.56	3016	
404.76	4086.4	
404.96	4737	
405.17	4573.8	
405.37	3476.1	
405.57	3272	
405.78	4721.3	
405.98	4404.5	
406.18	3063.1	
406.39	3521.1	
406.59	4745.8	
406.79	4362.2	
407	2914.3	
407.2	2983.9	
407.4	4930.1	
407.61	4840.7	
407.81	2962.7	
408.01	4117.1	
408.22	3968.3	
408.42	5150	
408.62	3595.6	
408.83	3231	
409.03	4368.3	
409.23	4355.3	
409.44	3224.9	
409.64	3346.4	
409.84	4984.1	
410.05	4876.2	
410.25	3348.4	
410.45	3197.6	
410.66	4562.9	
410.86	6074.3	
411.06	3460.4	
411.27	3324.5	
411.47	5901.6	
411.67	4682.3	
411.88	3491.1	
412.08	3530	
412.28	5021.6	
412.49	5283.1	
412.69	3300	
412.89	3349.1	
413.09	5244.8	
413.3	5126.7	
413.5	3473.4	
413.7	3215.3	
413.91	4730.8	
414.11	5175.2	
414.31	3278.1	
414.52	3540.9	
414.72	5035.3	
414.92	4919.2	
415.12	3297.9	
415.33	3636.5	
415.53	5156.8	
415.73	5250.3	
415.94	3829	
416.14	3388.7	
416.34	4693.9	
416.55	4425	
416.75	4136.9	
416.95	3816	
417.15	5285.1	
417.36	5558.9	
417.56	4334.9	
417.76	3694.5	
417.97	5379.3	
418.17	5197.1	
418.37	3521.1	
418.57	3538.2	
418.78	5154.1	
418.98	4926	
419.18	4067.3	
419.38	4029	
419.59	4897.4	
419.79	4721.9	
419.99	3482.2	
420.2	3660.4	
420.4	5257.1	
420.6	5241.4	
420.8	3377.8	
421.01	3296.5	
421.21	5154.1	
421.41	5135.6	
421.61	3648.1	
421.82	3442.6	
422.02	4913.8	
422.22	5449	
422.42	3952.6	
422.63	3794.2	
422.83	4922.6	
423.03	5610.8	
423.23	3807.2	
423.44	3136.1	
423.64	4937	
423.84	4706.2	
424.04	3521.8	
424.25	3261.7	
424.45	5523.4	
424.65	5494	
424.85	3151.8	
425.06	3463.1	
425.26	5679.7	
425.46	4913.1	
425.66	3793.5	
425.87	3577.1	
426.07	5362.9	
426.27	5231.2	
426.47	3608.5	
426.67	3250.1	
426.88	5618.3	
427.08	5259.2	
427.28	3875.4	
427.48	3263.1	
427.69	4657.8	
427.89	4976.6	
428.09	3759.4	
428.29	3246	
428.5	5304.9	
428.7	5107	
428.9	3203	
429.1	3543	
429.3	5116.5	
429.51	5240.8	
429.71	3459	
429.91	3883.6	
430.11	5304.2	
430.31	5401.9	
430.52	3595.6	
430.72	3695.9	
430.92	5650.3	
431.12	5247.6	
431.32	3375.1	
431.53	3706.8	
431.73	4641.4	
431.93	5618.3	
432.13	3424.2	
432.33	3255.6	
432.54	5004.6	
432.74	5078.3	
432.94	3222.8	
433.14	3926.6	
433.34	5353.4	
433.55	5000.5	
433.75	3870	
433.95	4875.5	
434.15	5227.1	
434.35	4918.5	
434.56	3360	
434.76	3061	
434.96	5145.9	
435.16	5296	
435.36	3330.7	
435.56	4029.7	
435.77	4948.6	
435.97	5073.5	
436.17	4347.8	
436.37	3876.1	
436.57	4900.1	
436.78	4824.3	
436.98	4685.8	
437.18	4376.5	
437.38	5210.7	
437.58	5007.3	
437.78	4410.6	
437.99	3565.5	
438.19	5498.1	
438.39	5851	
438.59	3648.8	
438.79	3282.2	
438.99	5789.6	
439.2	5024.3	
439.4	3261.7	
439.6	3270.6	
439.8	5075.5	
440	5760.3	
440.2	3922.5	
440.4	3913.7	
440.61	5449.6	
440.81	5674.9	
441.01	3453.6	
441.21	3863.8	
441.41	5698.8	
441.61	5425.8	
441.81	4152.6	
442.02	4711.7	
442.22	5980.8	
442.42	5588.9	
442.62	3487	
442.82	3591.5	
443.02	5773.2	
443.22	5170.4	
443.43	3802.4	
443.63	3400.3	
443.83	5078.3	
444.03	5071.5	
444.23	4162.8	
444.43	3930.1	
444.63	5380.7	
444.83	5954.1	
445.04	3635.1	
445.24	4399.7	
445.44	5583.4	
445.64	5559.6	
445.84	4088.4	
446.04	4117.1	
446.24	5191.6	
446.44	5752.7	
446.65	3592.8	
446.85	3803.1	
447.05	5430.5	
447.25	5722.7	
447.45	3910.9	
447.65	3487	
447.85	5442.1	
448.05	5109	
448.25	4069.3	
448.46	3931.4	
448.66	5408	
448.86	5117.2	
449.06	3522.5	
449.26	4090.5	
449.46	5517.9	
449.66	5084.4	
449.86	3856.3	
450.06	3796.3	
450.26	5127.4	
450.47	5551.4	
450.67	4031.1	
450.87	4165.6	
451.07	5705.6	
451.27	5395.7	
451.47	3603.7	
451.67	4099.4	
451.87	5247.6	
452.07	5884.5	
452.27	3691.1	
452.47	3706.1	
452.67	5423.7	
452.88	5573.2	
453.08	3432.4	
453.28	4501.4	
453.48	6193.1	
453.68	5335	
453.88	3719.1	
454.08	3777.8	
454.28	5553.4	
454.48	5392.3	
454.68	4130.1	
454.88	4369.7	
455.08	5772.5	
455.28	5421.7	
455.48	3589.4	
455.68	4036.5	
455.89	6025.8	
456.09	5693.4	
456.29	3890.5	
456.49	3930.1	
456.69	5952.8	
456.89	5432.6	
457.09	4121.2	
457.29	4371.7	
457.49	5623.7	
457.69	5633.3	
457.89	4138.9	
458.09	3685.7	
458.29	5500.8	
458.49	6029.2	
458.69	4302.8	
458.89	3989.4	
459.09	6120.7	
459.29	6132.3	
459.49	4031.1	
459.69	4517.1	
459.9	5771.2	
460.1	5491.3	
460.3	3966.9	
460.5	3859.7	
460.7	5886.5	
460.9	5526.1	
461.1	3657	
461.3	4296	
461.5	6241.5	
461.7	5995.1	
461.9	3930.7	
462.1	4179.9	
462.3	5695.4	
462.5	6025.1	
462.7	3981.9	
462.9	3972.4	
463.1	6516.6	
463.3	6438.8	
463.5	4111.6	
463.7	4702.8	
463.9	5862	
464.1	6010.8	
464.3	4263.9	
464.5	4397	
464.7	6151.4	
464.9	5943.2	
465.1	5177.9	
465.3	4612.7	
465.5	6393.8	
465.7	6465.4	
465.9	4745.1	
466.1	4511	
466.3	6233.3	
466.5	6205.3	
466.7	5098.1	
466.9	4557.4	
467.1	6335.7	
467.3	6735.8	
467.5	5062.6	
467.7	4465.9	
467.9	6848.4	
468.1	7380.9	
468.3	4919.9	
468.5	5143.8	
468.7	6156.2	
468.9	6040.1	
469.1	4715.8	
469.3	5102.2	
469.5	7370	
469.7	5894.1	
469.9	4951.3	
470.1	4545.8	
470.3	6343.2	
470.5	6292.7	
470.7	5278.3	
470.9	4631.8	
471.1	6166.4	
471.3	6418.3	
471.5	4522.6	
471.69	5593	
471.89	6139.1	
472.09	5712.5	
472.29	4947.2	
472.49	5212.1	
472.69	5863.3	
472.89	6360.3	
473.09	4468	
473.29	4615.4	
473.49	6042.2	
473.69	6025.1	
473.89	5128.1	
474.09	4640	
474.29	6822.5	
474.49	6610.8	
474.69	5094.7	
474.89	4737	
475.09	6156.9	
475.29	6183.5	
475.49	4422.9	
475.69	4565.6	
475.88	7131.7	
476.08	6341.2	
476.28	4258.4	
476.48	4536.3	
476.68	6690.7	
476.88	6480.5	
477.08	4636.6	
477.28	4678.2	
477.48	6277.7	
477.68	6481.8	
477.88	4481.6	
478.08	4614.8	
478.28	6825.9	
478.48	6254.5	
478.67	4725.3	
478.87	4279.6	
479.07	6625.9	
479.27	6337.1	
479.47	4743.1	
479.67	4807.9	
479.87	6561.7	
480.07	6903.7	
480.27	4474.8	
480.47	5328.1	
480.67	6279.8	
480.87	6673.6	
481.06	4597.7	
481.26	5104.9	
481.46	6414.2	
481.66	6350.1	
481.86	4890.5	
482.06	5395	
482.26	6227.9	
482.46	6716.7	
482.66	4827.7	
482.86	4514.4	
483.05	6586.3	
483.25	6035.4	
483.45	6305	
483.65	4801.1	
483.85	6100.2	
484.05	6231.3	
484.25	5105.6	
484.45	5307	
484.65	6771.9	
484.84	6823.8	
485.04	4832.5	
485.24	4801.8	
485.44	7138.5	
485.64	5963	
485.84	4385.4	
486.04	5155.4	
486.24	6221.7	
486.44	6436.1	
486.63	4379.2	
486.83	4918.5	
487.03	6311.8	
487.23	6328.9	
487.43	4532.8	
487.63	5825.1	
487.83	6440.2	
488.02	6753.5	
488.22	4994.3	
488.42	5401.9	
488.62	6982.2	
488.82	6277.7	
489.02	4884.4	
489.22	4939	
489.41	6818.4	
489.61	6716	
489.81	4627.7	
490.01	4705.5	
490.21	6888	
490.41	7327.6	
490.61	4785.4	
490.8	4820.9	
491	6632.7	
491.2	6224.5	
491.4	5246.9	
491.6	4749.2	
491.8	6795.2	
491.99	6602	
492.19	4584	
492.39	4745.1	
492.59	6828.6	
492.79	6905.1	
492.99	5266	
493.18	4688.5	
493.38	6972.7	
493.58	7365.9	
493.78	5046.9	
493.98	4907.6	
494.18	6726.9	
494.37	6395.1	
494.57	5305.6	
494.77	5186.8	
494.97	6889.4	
495.17	7078.5	
495.37	4997	
495.56	5205.3	
495.76	7118.7	
495.96	7006.1	
496.16	5819.6	
496.36	5168.4	
496.55	7280.5	
496.75	6836.8	
496.95	5416.9	
497.15	5335	
497.35	7178.1	
497.54	7114	
497.74	5311.1	
497.94	6391	
498.14	7610.9	
498.34	7400.7	
498.53	5012.7	
498.73	5525.4	
498.93	6728.9	
499.13	7129.7	
499.33	5477.6	
499.52	5715.9	
499.72	7272.3	
499.92	7324.2	
500.12	5243.5	
500.32	5431.9	
500.51	7319.4	
500.71	7216.4	
500.91	5908.4	
501.11	5700.2	
501.31	7339.2	
501.5	7624.6	
501.7	6206.7	
501.9	5527.5	
502.1	7197.2	
502.29	7432.1	
502.49	5745.2	
502.69	6108.4	
502.89	7468.9	
503.09	7401.4	
503.28	5314.5	
503.48	5371.8	
503.68	7034.8	
503.88	6840.9	
504.07	5857.9	
504.27	5558.9	
504.47	7209.5	
504.67	7232.7	
504.86	5808.7	
505.06	5573.2	
505.26	7135.8	
505.46	7954.3	
505.65	5565.7	
505.85	5715.9	
506.05	7060.7	
506.25	7257.3	
506.44	5213.4	
506.64	5749.3	
506.84	6889.4	
507.04	7344.7	
507.23	5264	
507.43	5652.4	
507.63	7996	
507.83	6881.9	
508.02	5648.3	
508.22	5365.7	
508.42	8204.8	
508.62	6821.1	
508.81	5520	
509.01	5932.3	
509.21	6801.3	
509.4	6978.8	
509.6	5685.8	
509.8	5270.1	
510	7022.5	
510.19	7657.4	
510.39	5193	
510.59	5346.6	
510.79	6966.5	
510.98	7658	
511.18	5350.7	
511.38	5394.3	
511.57	7572	
511.77	7131	
511.97	5884.5	
512.17	5337.7	
512.36	7410.2	
512.56	7218.4	
512.76	5329.5	
512.95	5164.3	
513.15	7508.5	
513.35	6489.3	
513.55	5739.8	
513.74	5317.9	
513.94	7418.4	
514.14	6971.3	
514.33	5782.8	
514.53	5660.6	
514.73	7131	
514.92	7081.2	
515.12	5325.4	
515.32	5298.8	
515.51	7156.3	
515.71	7309.2	
515.91	6300.2	
516.11	5349.3	
516.3	8160.5	
516.5	6978.8	
516.7	5719.3	
516.89	5958.2	
517.09	7017.7	
517.29	7044.3	
517.48	5970.5	
517.68	5468.8	
517.88	6746	
518.07	7268.9	
518.27	5808.7	
518.47	5228.5	
518.66	7552.2	
518.86	6785.6	
519.06	5159.5	
519.25	5351.3	
519.45	6931.7	
519.65	7830.1	
519.84	5844.9	
520.04	6264.7	
520.24	8039	
520.43	7330.4	
520.63	5752.7	
520.83	5539.8	
521.02	7061.4	
521.22	7451.9	
521.42	5859.9	
521.61	6195.8	
521.81	7138.5	
522.01	7174.7	
522.2	5714.5	
522.4	5616.9	
522.6	7484.6	
522.79	6658.6	
522.99	5629.9	
523.18	5211.4	
523.38	7308.5	
523.58	7304.4	
523.77	6366.5	
523.97	5244.8	
524.17	8348.9	
524.36	7910.6	
524.56	6061.3	
524.76	5908.4	
524.95	7231.4	
525.15	7131	
525.34	5745.2	
525.54	5767.1	
525.74	7587	
525.93	6944.7	
526.13	6513.9	
526.33	5866.7	
526.52	7861.5	
526.72	7531.1	
526.91	6651.1	
527.11	6101.6	
527.31	7724.3	
527.5	7992.5	
527.7	6141.9	
527.89	5500.2	
528.09	7262.8	
528.29	7466.9	
528.48	6297.5	
528.68	5978.7	
528.87	7797.3	
529.07	7789.8	
529.27	6172.6	
529.46	5864	
529.66	7739.3	
529.85	7950.9	
530.05	5844.2	
530.25	6333.7	
530.44	8593.3	
530.64	7649.2	
530.83	6015.6	
531.03	6191.7	
531.23	8038.3	
531.42	7746.8	
531.62	6459.3	
531.81	5985.5	
532.01	8017.8	
532.21	8077.9	
532.4	5923.4	
532.6	6193.7	
532.79	8438.3	
532.99	7961.8	
533.18	6259.3	
533.38	6976.1	
533.58	7890.8	
533.77	8148.2	
533.97	6253.1	
534.16	6775.4	
534.36	8468.4	
534.55	7811	
534.75	6742.6	
534.95	6293.4	
535.14	8414.4	
535.34	7779.6	
535.53	6191	
535.73	7335.8	
535.92	8787.8	
536.12	7918.8	
536.31	6374	
536.51	6975.4	
536.71	8268.3	
536.9	7870.3	
537.1	6272.2	
537.29	6348.7	
537.49	8404.9	
537.68	7795.9	
537.88	6614.3	
538.07	6064	
538.27	8027.4	
538.46	8552.3	
538.66	6097.5	
538.86	6300.9	
539.05	8021.9	
539.25	8316.8	
539.44	6645.7	
539.64	6270.2	
539.83	8012.3	
540.03	8574.8	
540.22	6240.2	
540.42	6318	
540.61	8181	
540.81	8151.6	
541	6532.3	
541.2	6967.9	
541.39	7782.3	
541.59	8016.4	
541.78	6814.3	
541.98	6236.7	
542.18	7618.4	
542.37	7627.3	
542.57	6481.1	
542.76	6863.4	
542.96	7686	
543.15	8044.4	
543.35	6533	
543.54	6115.2	
543.74	8006.2	
543.93	7958.4	
544.13	6452.5	
544.32	7058	
544.52	8214.4	
544.71	7660.8	
544.91	5918.6	
545.1	6577.4	
545.3	7764.5	
545.49	8008.2	
545.69	5847	
545.88	6231.3	
546.08	8708	
546.27	8318.8	
546.47	6470.9	
546.66	6071.5	
546.86	8188.5	
547.05	8501.8	
547.24	6258.6	
547.44	6156.2	
547.63	7630.7	
547.83	8184.4	
548.02	6318	
548.22	6481.8	
548.41	7505.1	
548.61	8239.7	
548.8	6109.8	
549	6066.8	
549.19	7906.5	
549.39	8120.9	
549.58	5928.2	
549.78	6259.3	
549.97	8034.9	
550.17	7702.4	
550.36	6685.9	
550.55	7318.8	
550.75	7714.7	
550.94	8357.8	
551.14	6052.4	
551.33	6251.1	
551.53	7280.5	
551.72	7920.2	
551.92	6221	
552.11	6122.7	
552.31	8039.6	
552.5	7895.6	
552.69	7170.6	
552.89	5781.4	
553.08	7955.7	
553.28	7778.2	
553.47	6158.9	
553.67	6766.5	
553.86	8335.9	
554.06	7300.3	
554.25	5669.5	
554.44	5907	
554.64	8716.2	
554.83	8441.7	
555.03	5919.3	
555.22	6205.3	
555.42	8103.8	
555.61	7963.9	
555.8	6128.2	
556	6225.8	
556.19	7399.3	
556.39	8055.3	
556.58	6102.9	
556.78	6112.5	
556.97	7873.8	
557.16	7608.9	
557.36	6855.2	
557.55	5819	
557.75	7171.3	
557.94	8385.1	
558.13	5941.2	
558.33	5788.9	
558.52	8180.3	
558.72	7366.5	
558.91	5913.9	
559.1	5982.1	
559.3	7306.5	
559.49	7165.2	
559.69	5812.8	
559.88	6201.9	
560.07	7767.3	
560.27	8039.6	
560.46	6362.4	
560.66	6420.4	
560.85	7692.2	
561.04	7094.8	
561.24	5900.9	
561.43	5943.9	
561.63	7249.1	
561.82	7504.4	
562.01	6669.6	
562.21	6084.5	
562.4	7699	
562.59	8148.9	
562.79	6019	
562.98	5743.9	
563.18	7676.5	
563.37	8520.9	
563.56	6292.7	
563.76	5828.5	
563.95	7325.6	
564.14	7346.7	
564.34	6160.3	
564.53	5898.2	
564.73	7752.9	
564.92	7829.4	
565.11	6176.7	
565.31	5769.1	
565.5	8090.8	
565.69	7304.4	
565.89	6012.2	
566.08	6192.4	
566.27	8018.5	
566.47	8251.3	
566.66	6503.7	
566.85	5756.8	
567.05	7767.3	
567.24	7517.4	
567.44	5895.4	
567.63	6763.1	
567.82	7920.9	
568.02	7687.4	
568.21	5997.8	
568.4	6139.8	
568.6	7722.2	
568.79	7610.3	
568.98	5859.9	
569.18	5931.6	
569.37	7707.2	
569.56	8791.9	
569.76	6216.3	
569.95	6753.5	
570.14	7961.8	
570.34	7817.1	
570.53	5980.1	
570.72	5927.5	
570.91	8295.6	
571.11	7697.6	
571.3	6189	
571.49	6734.4	
571.69	7778.2	
571.88	7441	
572.07	6435.4	
572.27	6537.1	
572.46	7459.4	
572.65	8047.8	
572.85	6077.7	
573.04	6234.7	
573.23	8257.4	
573.43	7774.8	
573.62	5999.2	
573.81	6242.9	
574	7873.1	
574.2	7715.4	
574.39	6207.4	
574.58	6251.8	
574.78	8359.8	
574.97	7879.2	
575.16	6440.9	
575.36	6614.3	
575.55	8189.1	
575.74	8262.2	
575.93	5945.3	
576.13	6664.8	
576.32	7888.8	
576.51	8191.9	
576.71	6329.6	
576.9	7100.3	
577.09	8449.2	
577.28	8059.4	
577.48	6560.3	
577.67	5961.6	
577.86	7899.7	
578.05	8146.8	
578.25	6369.9	
578.44	6479.1	
578.63	8052.6	
578.83	8705.2	
579.02	6068.8	
579.21	6978.1	
579.4	8019.8	
579.6	7982.3	
579.79	6479.8	
579.98	7753.6	
580.17	8230.1	
580.37	8439.7	
580.56	6195.8	
580.75	6615.6	
580.94	8487.5	
581.14	8580.3	
581.33	6777.4	
581.52	6278.4	
581.71	8124.3	
581.91	8682.7	
582.1	6181.5	
582.29	6391.7	
582.48	8019.2	
582.68	8067.6	
582.87	6718.7	
583.06	6496.8	
583.25	8340.7	
583.45	7834.2	
583.64	6926.9	
583.83	7324.2	
584.02	8075.1	
584.21	8301.1	
584.41	6875	
584.6	6395.8	
584.79	8123.6	
584.98	8389.8	
585.18	6266.8	
585.37	6152.8	
585.56	7948.8	
585.75	8301.1	
585.94	6436.8	
586.14	6805.4	
586.33	8643.1	
586.52	8013.7	
586.71	6651.1	
586.91	6464.1	
587.1	7613	
587.29	8432.9	
587.48	6376.7	
587.67	6361.7	
587.87	8273.8	
588.06	8133.2	
588.25	7216.4	
588.44	6660	
588.63	7927	
588.83	8301.8	
589.02	6437.4	
589.21	6312.5	
589.4	8008.9	
589.59	7908.6	
589.78	5907.7	
589.98	6042.9	
590.17	7499	
590.36	7856.7	
590.55	5615.5	
590.74	6053.1	
590.94	8454.7	
591.13	7650.5	
591.32	5882.4	
591.51	5550	
591.7	7794.6	
591.89	7539.9	
592.09	5642.2	
592.28	5874.3	
592.47	7027.9	
592.66	8258.1	
592.85	5631.2	
593.05	5797.8	
593.24	7470.3	
593.43	8043.7	
593.62	5899.5	
593.81	6133	
594	7575.4	
594.19	7624.6	
594.39	5806.7	
594.58	5766.4	
594.77	7740	
594.96	8047.8	
595.15	5851	
595.34	6169.2	
595.54	7713.3	
595.73	7134.4	
595.92	5416.2	
596.11	6044.2	
596.3	7922.9	
596.49	7330.4	
596.68	5844.2	
596.88	6107.7	
597.07	7746.1	
597.26	7088.7	
597.45	5702.9	
597.64	6346.7	
597.83	7334.5	
598.02	7710.6	
598.22	5665.4	
598.41	6029.9	
598.6	7574.1	
598.79	7198.6	
598.98	5673.6	
599.17	6221	
599.36	7644.4	
599.55	8155.7	
599.74	6843.6	
599.94	6675	
600.13	7889.5	
600.32	7186.3	
600.51	5484.5	
600.7	5552.7	
600.89	8217.8	
601.08	8342.7	
601.27	5476.3	
601.47	5971.9	
601.66	7752.9	
601.85	8158.4	
602.04	5907.7	
602.23	6006	
602.42	7206.8	
602.61	7560.4	
602.8	5764.3	
602.99	5712.5	
603.18	7449.8	
603.37	7507.9	
603.57	5933	
603.76	6406	
603.95	8048.5	
604.14	7647.8	
604.33	5767.1	
604.52	5801.2	
604.71	7643	
604.9	7281.9	
605.09	6277	
605.28	6045.6	
605.47	7968	
605.66	7546.1	
605.86	6049	
606.05	5700.2	
606.24	7857.4	
606.43	6868.9	
606.62	5962.3	
606.81	6335	
607	7781.6	
607.19	7300.3	
607.38	5468.8	
607.57	5638.7	
607.76	7162.4	
607.95	6799.9	
608.14	5982.1	
608.33	6292	
608.52	7181.5	
608.72	7699	
608.91	5470.8	
609.1	5401.9	
609.29	7280.5	
609.48	6968.6	
609.67	5928.9	
609.86	5482.4	
610.05	7092.1	
610.24	7279.2	
610.43	5459.2	
610.62	5183.4	
610.81	7931.8	
611	7722.2	
611.19	5431.9	
611.38	5947.3	
611.57	7434.8	
611.76	8064.2	
611.95	5348.6	
612.14	5283.8	
612.33	7212.9	
612.52	6969.2	
612.71	5586.9	
612.9	5187.5	
613.09	6802	
613.28	8127.7	
613.47	5550.7	
613.66	6053.8	
613.85	7430.7	
614.04	7011.6	
614.24	5514.5	
614.43	5057.1	
614.62	7360.4	
614.81	7377.5	
615	5802.6	
615.19	5833.3	
615.38	7004.1	
615.57	7163.8	
615.76	5756.2	
615.95	6288.6	
616.14	7424.6	
616.33	7219.8	
616.52	5972.6	
616.71	6047.7	
616.9	7458.7	
617.09	7337.9	
617.28	5631.9	
617.47	6282.5	
617.66	6846.4	
617.85	6779.5	
618.04	6053.1	
618.22	5728.9	
618.41	7129.7	
618.6	7733.1	
618.79	5679	
618.98	5549.3	
619.17	7831.4	
619.36	6803.4	
619.55	5749.3	
619.74	5736.4	
619.93	7449.1	
620.12	7059.3	
620.31	6064.7	
620.5	6192.4	
620.69	7713.3	
620.88	8042.4	
621.07	6572.6	
621.26	6091.3	
621.45	7607.5	
621.64	7529	
621.83	6146	
622.02	5681.1	
622.21	7652.6	
622.4	7444.4	
622.59	6419	
622.78	6347.3	
622.97	7296.9	
623.16	7882.6	
623.35	6140.5	
623.54	5527.5	
623.72	7366.5	
623.91	7445.7	
624.1	6240.8	
624.29	5588.2	
624.48	8189.1	
624.67	7763.2	
624.86	6235.4	
625.05	5664	
625.24	8222.6	
625.43	7343.3	
625.62	7161.1	
625.81	5793	
626	7826	
626.19	7483.3	
626.38	6128.2	
626.56	5898.1	
626.75	7252.5	
626.94	7718.8	
627.13	6281.8	
627.32	5483.1	
627.51	7813	
627.7	8304.5	
627.89	5524.1	
628.08	6239.5	
628.27	7107.1	
628.46	7367.2	
628.65	5753.4	
628.83	5499.5	
629.02	7626.6	
629.21	7084.6	
629.4	5908.4	
629.59	6070.2	
629.78	7250.5	
629.97	7712	
630.16	6093.4	
630.35	5804.6	
630.54	8093.6	
630.72	7836.2	
630.91	5773.2	
631.1	6184.9	
631.29	7539.9	
631.48	7467.6	
631.67	6250.4	
631.86	5823.7	
632.05	7370.6	
632.24	7401.4	
632.42	5638.7	
632.61	6004.6	
632.8	7309.2	
632.99	7092.8	
633.18	6087.9	
633.37	6206.7	
633.56	7518.1	
633.75	7534.5	
633.93	6081.1	
634.12	5853.1	
634.31	8115.4	
634.5	7877.9	
634.69	5870.8	
634.88	6151.4	
635.07	7431.4	
635.25	7813.7	
635.44	6498.9	
635.63	6513.2	
635.82	7408.2	
636.01	6937.8	
636.2	6329.6	
636.39	6097.5	
636.57	8030.8	
636.76	7655.3	
636.95	5646.2	
637.14	6570.6	
637.33	7688.8	
637.52	8025.3	
637.7	5563.6	
637.89	6235.4	
638.08	7413	
638.27	8084.7	
638.46	6305.7	
638.65	6480.5	
638.83	8200.1	
639.02	7243	
639.21	6232	
639.4	6455.2	
639.59	7409.6	
639.78	7264.8	
639.96	5700.2	
640.15	5806	
640.34	7524.9	
640.53	7448.5	
640.72	5598.5	
640.91	5801.2	
641.09	7051.8	
641.28	7795.9	
641.47	5852.4	
641.66	6234	
641.85	7556.3	
642.03	7610.9	
642.22	6043.6	
642.41	5849	
642.6	7129.7	
642.79	6735.1	
642.97	5663.3	
643.16	6014.9	
643.35	7182.2	
643.54	6998.6	
643.73	5593	
643.91	5932.3	
644.1	6873.7	
644.29	7339.9	
644.48	5681.1	
644.67	5660.6	
644.85	6926.9	
645.04	7309.9	
645.23	5413.5	
645.42	5709.1	
645.6	6858	
645.79	7613	
645.98	5489.9	
646.17	4919.9	
646.36	6709.8	
646.54	7009.5	
646.73	5980.1	
646.92	5300.1	
647.11	6746.7	
647.29	7415.7	
647.48	5276.3	
647.67	5079	
647.86	7546.8	
648.05	7508.5	
648.23	5413.5	
648.42	6179.4	
648.61	7172.7	
648.8	6940.6	
648.98	5148.6	
649.17	5423.7	
649.36	6776	
649.55	6447	
649.73	5203.9	
649.92	5642.2	
650.11	6716	
650.3	6812.9	
650.48	5344.5	
650.67	5233.2	
650.86	7012.2	
651.05	6296.1	
651.23	5225.7	
651.42	5195	
651.61	6783.6	
651.79	6602.7	
651.98	5449	
652.17	5098.1	
652.36	6882.5	
652.54	6383.5	
652.73	5162.2	
652.92	5176.6	
653.11	6985.6	
653.29	7076.4	
653.48	4775.9	
653.67	5326.8	
653.85	6823.1	
654.04	7410.9	
654.23	5427.1	
654.42	5177.9	
654.6	6580.1	
654.79	6880.5	
654.98	4919.9	
655.16	5205.9	
655.35	6311.8	
655.54	6100.9	
655.73	4835.3	
655.91	4745.1	
656.1	6670.2	
656.29	6010.8	
656.47	4517.8	
656.66	5524.1	
656.85	6278.4	
657.03	6199.9	
657.22	4885.8	
657.41	4902.2	
657.59	6391.7	
657.78	6269.5	
657.97	4693.3	
658.16	5133.6	
658.34	6782.9	
658.53	7081.2	
658.72	5689.3	
658.9	5981.4	
659.09	6589	
659.28	6518.7	
659.46	4988.9	
659.65	4926	
659.84	6368.5	
660.02	6757.6	
660.21	5014.8	
660.4	4880.3	
660.58	6930.3	
660.77	6452.5	
660.96	5378.6	
661.14	4687.1	
661.33	7258.7	
661.52	7105.1	
661.7	4683	
661.89	6711.2	
662.08	6243.6	
662.26	5924.8	
662.45	4845.5	
662.64	4946.5	
662.82	6793.8	
663.01	6186.9	
663.2	4876.9	
663.38	5257.1	
663.57	6686.6	
663.75	6593.1	
663.94	5031.9	
664.13	5816.9	
664.31	6260.6	
664.5	6679.1	
664.69	5298.1	
664.87	5460.6	
665.06	6191	
665.25	6526.2	
665.43	5698.1	
665.62	5713.2	
665.8	6721.4	
665.99	6334.4	
666.18	5053	
666.36	5057.1	
666.55	6715.3	
666.74	6641.6	
666.92	4855.1	
667.11	5821	
667.29	6408.1	
667.48	6722.1	
667.67	5521.3	
667.85	4967.7	
668.04	6289.3	
668.22	6272.2	
668.41	5083.1	
668.6	5345.2	
668.78	6244.9	
668.97	6389	
669.15	5248.9	
669.34	4667.3	
669.53	6217.6	
669.71	6389	
669.9	4756.7	
670.08	5137.7	
670.27	6143.2	
670.46	6574.7	
670.64	5302.9	
670.83	5487.2	
671.01	6057.2	
671.2	6399.9	
671.38	4856.4	
671.57	4777.9	
671.76	6901	
671.94	7207.5	
672.13	4683	
672.31	5276.3	
672.5	6659.3	
672.69	6246.3	
672.87	4828.4	
673.06	4983.4	
673.24	6545.3	
673.43	6232.7	
673.61	5231.9	
673.8	4949.9	
673.98	6544.6	
674.17	6655.2	
674.36	5378	
674.54	5231.9	
674.73	6354.8	
674.91	6710.5	
675.1	4999.8	
675.28	4760.2	
675.47	6391.7	
675.65	6640.9	
675.84	5072.1	
676.03	5120.6	
676.21	6238.8	
676.4	5849	
676.58	5429.8	
676.77	5250.3	
676.95	7139.2	
677.14	6203.3	
677.32	4755.4	
677.51	4737	
677.69	6698.9	
677.88	6093.4	
678.06	4728.1	
678.25	4832.5	
678.44	6316.6	
678.62	6115.2	
678.81	4556.7	
678.99	5086.5	
679.18	6806.1	
679.36	6504.3	
679.55	4987.5	
679.73	5316.5	
679.92	6546.7	
680.1	6212.2	
680.29	5674.9	
680.47	4930.1	
680.66	6148	
680.84	6550.8	
681.03	4549.2	
681.21	5231.2	
681.4	6146	
681.58	6040.1	
681.77	4789.5	
681.95	4767	
682.14	6722.1	
682.32	6859.3	
682.51	5365	
682.69	4601.8	
682.88	6086.6	
683.06	6340.5	
683.25	5176.6	
683.43	5358.9	
683.62	6332.3	
683.8	6499.6	
683.99	5533.6	
684.17	5031.9	
684.36	7049.1	
684.54	6247	
684.73	4582.7	
684.91	4689.2	
685.1	6481.8	
685.28	6019.7	
685.46	5038	
685.65	4911.7	
685.83	6392.4	
686.02	6050.4	
686.2	4547.9	
686.39	4598.4	
686.57	5834	
686.76	6707.8	
686.94	4566.3	
687.13	4699.4	
687.31	6210.1	
687.5	6059.9	
687.68	4273.4	
687.86	4992.3	
688.05	7094.8	
688.23	5722.7	
688.42	5069.4	
688.6	4617.5	
688.79	5994.4	
688.97	6024.4	
689.16	4990.9	
689.34	4200.4	
689.52	6394.4	
689.71	6587.6	
689.89	5033.9	
690.08	4661.2	
690.26	6171.9	
690.45	6023.8	
690.63	5148.6	
690.81	4790.9	
691	6219	
691.18	5966.4	
691.37	4844.1	
691.55	6110.5	
691.74	5915.9	
691.92	7097.6	
692.1	4821.6	
692.29	4412.7	
692.47	6171.9	
692.66	5684.5	
692.84	4572.4	
693.02	4803.2	
693.21	5704.3	
693.39	6024.4	
693.58	4991.6	
693.76	4573.1	
693.94	6676.4	
694.13	6560.3	
694.31	4629.1	
694.5	5252.4	
694.68	5926.8	
694.86	6125.5	
695.05	4816.1	
695.23	5053	
695.42	6396.5	
695.6	7696.9	
695.78	5227.8	
695.97	4777.2	
696.15	6391	
696.34	6021.7	
696.52	4588.1	
696.7	5087.2	
696.89	6247.7	
697.07	5840.1	
697.25	5017.5	
697.44	5823.7	
697.62	6301.6	
697.81	6315.9	
697.99	4755.4	
698.17	4993.6	
698.36	5918.6	
698.54	6206	
698.72	4955.4	
698.91	4365.6	
699.09	5950.7	
699.28	5791.7	
699.46	4677.6	
699.64	4644.1	
699.83	5884.5	
700.01	6475.7	
700.19	5141.1	
700.38	4183.3	
700.56	6419.7	
700.74	5797.1	
700.93	4399.7	
701.11	4866.7	
701.29	6251.8	
701.48	6838.2	
701.66	4592.2	
701.84	4645.5	
702.03	6021.7	
702.21	6418.3	
702.39	4326	
702.58	4693.3	
702.76	6240.2	
702.94	6225.1	
703.13	4224.3	
703.31	5701.5	
703.49	5926.8	
703.68	6449.1	
703.86	4401.8	
704.04	5048.9	
704.23	6118	
704.41	6326.9	
704.59	4539.7	
704.78	5173.9	
704.96	7103.7	
705.14	6276.3	
705.33	4451.6	
705.51	4827.1	
705.69	5911.1	
705.87	6482.5	
706.06	4984.8	
706.24	4328	
706.42	6201.2	
706.61	6208.8	
706.79	4959.5	
706.97	4304.1	
707.16	5803.3	
707.34	6070.2	
707.52	5031.2	
707.7	4399	
707.89	5806	
708.07	5670.8	
708.25	5011.4	
708.44	5057.8	
708.62	5743.2	
708.8	6406.7	
708.98	5128.8	
709.17	4497.3	
709.35	6002.6	
709.53	6010.8	
709.72	4270	
709.9	4394.9	
710.08	6296.1	
710.26	6251.1	
710.45	5269.4	
710.63	4480.3	
710.81	5866.1	
710.99	5967.1	
711.18	4827.1	
711.36	4498	
711.54	5823.1	
711.72	6314.6	
711.91	4569	
712.09	4289.1	
712.27	5898.8	
712.45	6264.1	
712.64	4726.7	
712.82	4115.1	
713	5597.8	
713.18	5730.2	
713.37	4112.3	
713.55	4934.2	
713.73	6195.1	
713.91	5416.9	
714.1	4370.4	
714.28	4074.8	
714.46	5972.6	
714.64	5446.2	
714.83	3724.6	
715.01	4089.1	
715.19	5543.2	
715.37	4969.1	
715.55	3865.2	
715.74	4041.3	
715.92	5870.8	
716.1	4569	
716.28	4786.8	
716.47	4067.3	
716.65	5199.8	
716.83	5061.9	
717.01	3989.4	
717.19	3974.4	
717.38	6300.9	
717.56	4927.4	
717.74	4097.3	
717.92	3601	
718.1	5682.4	
718.29	5113.1	
718.47	3401.7	
718.65	3727.3	
718.83	5623	
719.01	5510.4	
719.2	3294.5	
719.38	3972.4	
719.56	5375.2	
719.74	6276.3	
719.92	3763.5	
720.11	4355.3	
720.29	5525.4	
720.47	4975.2	
720.65	3534.1	
720.83	4064.5	
721.02	5233.9	
721.2	5014.8	
721.38	4037.2	
721.56	3554.6	
721.74	4686.4	
721.92	4737.6	
722.11	4251.6	
722.29	4102.1	
722.47	5563.6	
722.65	5018.2	
722.83	3568.9	
723.01	4022.2	
723.2	4945.8	
723.38	5249.6	
723.56	3211.2	
723.74	3862.5	
723.92	4724	
724.1	5361.6	
724.29	3453.6	
724.47	4195.6	
724.65	4868.7	
724.83	4696	
725.01	3444	
725.19	3856.3	
725.37	4719.9	
725.56	4666.6	
725.74	3356.6	
725.92	3482.9	
726.1	4719.2	
726.28	4926.7	
726.46	3632.4	
726.64	3539.6	
726.83	4934.2	
727.01	4988.2	
727.19	3323.9	
727.37	3766.2	
727.55	5059.2	
727.73	5276.3	
727.91	3306.1	
728.09	3178.4	
728.28	5317.9	
728.46	5403.2	
728.64	3776.5	
728.82	3790.8	
729	5760.9	
729.18	5450.3	
729.36	3253.5	
729.54	4611.3	
729.72	5978	
729.91	5028.4	
730.09	4515.1	
730.27	3682.9	
730.45	4914.4	
730.63	5248.3	
730.81	4007.2	
730.99	3489.7	
731.17	5682.4	
731.35	4751.3	
731.53	3757.3	
731.71	3534.1	
731.9	5512.4	
732.08	5461.2	
732.26	3790.1	
732.44	3502.7	
732.62	5560.9	
732.8	5258.5	
732.98	3978.5	
733.16	3357.3	
733.34	5223.7	
733.52	4452.3	
733.7	3703.4	
733.88	3777.1	
734.07	5129.5	
734.25	4962.9	
734.43	3334.8	
734.61	4177.9	
734.79	5903.6	
734.97	4930.8	
735.15	3446	
735.33	3603.7	
735.51	5180	
735.69	4964.3	
735.87	4244.8	
736.05	3734.8	
736.23	5000.5	
736.41	4791.6	
736.59	3658.4	
736.77	3643.3	
736.95	5292	
737.13	4878.9	
737.32	3443.3	
737.5	3485	
737.68	5606	
737.86	4788.8	
738.04	3290.4	
738.22	4416.8	
738.4	4754.7	
738.58	5008.6	
738.76	3592.1	
738.94	3025.5	
739.12	4795.7	
739.3	4754.7	
739.48	3975.1	
739.66	3849.5	
739.84	4948.6	
740.02	4934.9	
740.2	3119.7	
740.38	3285.6	
740.56	5165	
740.74	4407.2	
740.92	3670	
741.1	3586	
741.28	4854.4	
741.46	4610	
741.64	3371	
741.82	3751.2	
742	4849.6	
742.18	4835.3	
742.36	3585.3	
742.54	3254.2	
742.72	5182.7	
742.9	4397.7	
743.08	3738.2	
743.26	3010.5	
743.44	5262.6	
743.62	5131.5	
743.8	3839.3	
743.98	3246	
744.16	4986.8	
744.34	4827.1	
744.52	3790.1	
744.7	3763.5	
744.88	5133.6	
745.06	4773.1	
745.24	3772.4	
745.42	3830.4	
745.6	5177.3	
745.78	5074.2	
745.96	3134.8	
746.14	3197.6	
746.32	5619.6	
746.5	4999.8	
746.68	3636.5	
746.86	3195.5	
747.03	5257.8	
747.21	4417.5	
747.39	3594.9	
747.57	3249.4	
747.75	4864.6	
747.93	5080.3	
748.11	3224.9	
748.29	3190.1	
748.47	5920	
748.65	4662.5	
748.83	3679.5	
749.01	3564.1	
749.19	5019.6	
749.37	4475.5	
749.55	3519.8	
749.73	3517	
749.91	4876.2	
750.09	4745.1	
750.26	3446	
750.44	3164.1	
750.62	4790.9	
750.8	4758.1	
750.98	3110.2	
751.16	3323.9	
751.34	4915.1	
751.52	4436.6	
751.7	3719.1	
751.88	3084.9	
752.06	5147.9	
752.24	4934.2	
752.42	3009.8	
752.59	3273.3	
752.77	4768.4	
752.95	5520.6	
753.13	3645.4	
753.31	3307.5	
753.49	4571.7	
753.67	4861.9	
753.85	3500	
754.03	3175	
754.21	5144.5	
754.38	5241.4	
754.56	3349.1	
754.74	2836.4	
754.92	4603.2	
755.1	4956.8	
755.28	2785.9	
755.46	2845.3	
755.64	5554.1	
755.82	5621.7	
755.99	3076.7	
756.17	3083.6	
756.35	4098.7	
756.53	4928.1	
756.71	2403.6	
756.89	3245.3	
757.07	4688.5	
757.25	4169.7	
757.42	3341.6	
757.6	3831.1	
757.78	4791.6	
757.96	4191.5	
758.14	3046.7	
758.32	2811.9	
758.5	3890.5	
758.67	4587.4	
758.85	2974.3	
759.03	3059	
759.21	4561.5	
759.39	4180.6	
759.57	2743.6	
759.75	3383.9	
759.92	5033.9	
760.1	4601.8	
760.28	3672.7	
760.46	3799.7	
760.64	4378.6	
760.82	4302.1	
760.99	3506.1	
761.17	3028.3	
761.35	4894	
761.53	4089.8	
761.71	3186	
761.89	3520.5	
762.06	4698	
762.24	4442.7	
762.42	3173	
762.6	2966.8	
762.78	4386.7	
762.96	4850.3	
763.13	3385.3	
763.31	3130.7	
763.49	4859.1	
763.67	4375.8	
763.85	3652.2	
764.02	3993.5	
764.2	5133.6	
764.38	4481.6	
764.56	3066.5	
764.74	3633.1	
764.91	5092.6	
765.09	4401.1	
765.27	2963.4	
765.45	2776.4	
765.63	5198.4	
765.8	4995	
765.98	2742.9	
766.16	2861	
766.34	4173.8	
766.52	4018.1	
766.69	3444.7	
766.87	2797.5	
767.05	4478.9	
767.23	4906.3	
767.41	2945.7	
767.58	3118.4	
767.76	4859.8	
767.94	4900.8	
768.12	3035.8	
768.29	3433.8	
768.47	4430.4	
768.65	4929.5	
768.83	2813.2	
769	3413.3	
769.18	4203.8	
769.36	4616.1	
769.54	3529.3	
769.72	2826.2	
769.89	4952.7	
770.07	4883.7	
770.25	3055.6	
770.43	3836.5	
770.6	5356.1	
770.78	5537	
770.96	3181.2	
771.14	3442	
771.31	4813.4	
771.49	4393.6	
771.67	2640.5	
771.85	2767.5	
772.02	3965.6	
772.2	4386.7	
772.38	3213.3	
772.55	2877.4	
772.73	4630.5	
772.91	4437.3	
773.09	3140.2	
773.26	3258.3	
773.44	4586.8	
773.62	4456.4	
773.8	2893.8	
773.97	2743.6	
774.15	4612.7	
774.33	4439.3	
774.5	2826.9	
774.68	3037.8	
774.86	4668.7	
775.04	4397	
775.21	2901.3	
775.39	2850.8	
775.57	4619.5	
775.74	4722.6	
775.92	2788	
776.1	2663	
776.27	4525.3	
776.45	5257.8	
776.63	2884.2	
776.81	2584.5	
776.98	4383.3	
777.16	4993.6	
777.34	2908.1	
777.51	3135.4	
777.69	4358.8	
777.87	4164.2	
778.04	3071.3	
778.22	3309.5	
778.4	4225.6	
778.57	4625	
778.75	2608.4	
778.93	2730.6	
779.1	4153.3	
779.28	3966.9	
779.46	2573.6	
779.64	2848	
779.81	4758.1	
779.99	5284.4	
780.17	3331.4	
780.34	3365.5	
780.52	4491.2	
780.69	4506.9	
780.87	3097.2	
781.05	2804.4	
781.22	4476.2	
781.4	4459.1	
781.58	2940.9	
781.75	2378.4	
781.93	4508.9	
782.11	3975.1	
782.28	3443.3	
782.46	2843.3	
782.64	3921.9	
782.81	4601.8	
782.99	2993.4	
783.17	2894.5	
783.34	4498.7	
783.52	4140.3	
783.69	3022.8	
783.87	3495.2	
784.05	4147.1	
784.22	4058.4	
784.4	3518.4	
784.58	3136.8	
784.75	4754	
784.93	4231.1	
785.1	2905.4	
785.28	3315.7	
785.46	4588.8	
785.63	4015.4	
785.81	2958.6	
785.99	2805	
786.16	4279.6	
786.34	4414.1	
786.51	2797.5	
786.69	3079.5	
786.87	3901.4	
787.04	4268.6	
787.22	2775	
787.39	3295.9	
787.57	4119.1	
787.75	4724	
787.92	3454.9	
788.1	3369.6	
788.27	4072	
788.45	3876.8	
788.63	3242.6	
788.8	2423.4	
788.98	4412	
789.15	3839.3	
789.33	2579.1	
789.5	2865.8	
789.68	4642.7	
789.86	4762.2	
790.03	3153.2	
790.21	2833.7	
790.38	4777.2	
790.56	4243.4	
790.73	2811.2	
790.91	2729.9	
791.09	4152.6	
791.26	4545.8	
791.44	2977.1	
791.61	2622.8	
791.79	4160.1	
791.96	4082.3	
792.14	2637.8	
792.32	2408.4	
792.49	4078.9	
792.67	4214	
792.84	2677.4	
793.02	2551.8	
793.19	4441.4	
793.37	4833.9	
793.54	2398.2	
793.72	2549	
793.89	4898.7	
794.07	4103.4	
794.25	3001.6	
794.42	2486.9	
794.6	4867.3	
794.77	4477.5	
794.95	3094.5	
795.12	2776.4	
795.3	4132.1	
795.47	4470.7	
795.65	3030.3	
795.82	2897.2	
796	3968.3	
796.17	5063.3	
796.35	2837.8	
796.52	3323.9	
796.7	4530.8	
796.87	4545.1	
797.05	2816.6	
797.22	3367.5	
797.4	4521.9	
797.57	5044.1	
797.75	2997.5	
797.92	2813.9	
798.1	4749.9	
798.27	3981.3	
798.45	2503.3	
798.62	2648.7	
798.8	4306.2	
798.97	4622.3	
799.15	3056.3	
799.32	2975	
799.5	3842	
799.67	4265.9	
799.85	3203.7	
800.02	2469.2	
800.2	4102.8	
800.37	4165.6	
800.55	3262.4	
800.72	2818.7	
800.9	4593.6	
801.07	4794.3	
801.25	3587.4	
801.42	3024.8	
801.6	4661.9	
801.77	4303.5	
801.95	2867.2	
802.12	2736.1	
802.29	4483	
802.47	4346.5	
802.64	3060.3	
802.82	2452.1	
802.99	4095.3	
803.17	4586.1	
803.34	2976.4	
803.52	2670.6	
803.69	5062.6	
803.87	3887.7	
804.04	2962.7	
804.21	2938.8	
804.39	4805.9	
804.56	4143	
804.74	2604.3	
804.91	3034.4	
805.09	4131.4	
805.26	4141	
805.44	2632.3	
805.61	2837.1	
805.78	4667.3	
805.96	4500.8	
806.13	3022.8	
806.31	3218.7	
806.48	3835.8	
806.66	4161.5	
806.83	3093.1	
807	2923.8	
807.18	4131.4	
807.35	4323.9	
807.53	2874	
807.7	2501.3	
807.87	4778.6	
808.05	4150.6	
808.22	3155.2	
808.4	2477.4	
808.57	4027.7	
808.74	3906.8	
808.92	2765.4	
809.09	3416.7	
809.27	4193.6	
809.44	4422.9	
809.61	2478.7	
809.79	2753.2	
809.96	4961.5	
810.14	4528.7	
810.31	2461.7	
810.48	3097.9	
810.66	4160.8	
810.83	4599.1	
811.01	2768.2	
811.18	3016.7	
811.35	4584.7	
811.53	3738.9	
811.7	3213.3	
811.87	3022.1	
812.05	4225.6	
812.22	4100	
812.39	2698.5	
812.57	2612.5	
812.74	4205.2	
812.92	5089.2	
813.09	2949.1	
813.26	3011.9	
813.44	5018.2	
813.61	4020.2	
813.78	2472.6	
813.96	3134.8	
814.13	4134.2	
814.3	4009.9	
814.48	3361.4	
814.65	2835.1	
814.82	4963.6	
815	3909.6	
815.17	2929.3	
815.34	3418.7	
815.52	4065.9	
815.69	4065.2	
815.87	2862.4	
816.04	2821.4	
816.21	4012	
816.38	3825.6	
816.56	2852.8	
816.73	2646.7	
816.9	5089.9	
817.08	4526	
817.25	2737.5	
817.42	3231.7	
817.6	3865.9	
817.77	4065.9	
817.94	2980.5	
818.12	2648.7	
818.29	3976.5	
818.46	5502.9	
818.64	2772.3	
818.81	2603.7	
818.98	4010.6	
819.16	5239.4	
819.33	3088.3	
819.5	2919.7	
819.67	4369.7	
819.85	4729.4	
820.02	2975.7	
820.19	3032.4	
820.37	4311.7	
820.54	4029	
820.71	2923.8	
820.88	3535.5	
821.06	4269.3	
821.23	4018.8	
821.4	2997.5	
821.58	2948.4	
821.75	4547.2	
821.92	4235.9	
822.09	2446.6	
822.27	2656.9	
822.44	4132.1	
822.61	4080.9	
822.79	2508.8	
822.96	4349.9	
823.13	4340.3	
823.3	3960.8	
823.48	2790.7	
823.65	2538.8	
823.82	4633.2	
823.99	3887.7	
824.17	3406.5	
824.34	2620.7	
824.51	5130.8	
824.68	4163.5	
824.86	2723.1	
825.03	2968.2	
825.2	4172.4	
825.37	4739.7	
825.55	2725.2	
825.72	2942.2	
825.89	5079	
826.06	4867.3	
826.24	2866.5	
826.41	2881.5	
826.58	4841.4	
826.75	4291.2	
826.92	2412.5	
827.1	2605.7	
827.27	6141.2	
827.44	5052.3	
827.61	2771.6	
827.79	3157.3	
827.96	4004.5	
828.13	4126	
828.3	2879.4	
828.47	2465.1	
828.65	4451.6	
828.82	4371	
828.99	3483.6	
829.16	3044.6	
829.34	4601.1	
829.51	4524.6	
829.68	2893.1	
829.85	2921.1	
830.02	4911	
830.2	4650.3	
830.37	2340.8	
830.54	3391.4	
830.71	5112.4	
830.88	4229.7	
831.05	2349.7	
831.23	2657.6	
831.4	5012.1	
831.57	5259.9	
831.74	2739.5	
831.91	2446.6	
832.09	4510.3	
832.26	4636.6	
832.43	2779.8	
832.6	3133.4	
832.77	4349.2	
832.94	4837.3	
833.12	2281.4	
833.29	2788.7	
833.46	4481	
833.63	5496.1	
833.8	2969.6	
833.97	2772.9	
834.15	4655	
834.32	4547.2	
834.49	2887.6	
834.66	2920.4	
834.83	4698.7	
835	4016.7	
835.17	2722.4	
835.35	2716.3	
835.52	4564.2	
835.69	4483.7	
835.86	2786.6	
836.03	2378.4	
836.2	4587.4	
836.37	4381.3	
836.55	2767.5	
836.72	2637.8	
836.89	4362.9	
837.06	4641.4	
837.23	2812.5	
837.4	2973	
837.57	5077.6	
837.75	5441.5	
837.92	2594.1	
838.09	2735.4	
838.26	4343.1	
838.43	4687.8	
838.6	2895.1	
838.77	2676	
838.94	5153.4	
839.11	5128.1	
839.29	2790.7	
839.46	2258.2	
839.63	4673.5	
839.8	4385.4	
839.97	2756.6	
840.14	2713.6	
840.31	4536.9	
840.48	4638.6	
840.65	2332	
840.82	2674.6	
841	4610.7	
841.17	4455	
841.34	2525.1	
841.51	2583.9	
841.68	4613.4	
841.85	4371	
842.02	2613.9	
842.19	2291.7	
842.36	4485.7	
842.53	4465.9	
842.7	2562.7	
842.87	2891	
843.05	5464	
843.22	4338.3	
843.39	2381.8	
843.56	2659.6	
843.73	4335.5	
843.9	4681	
844.07	3792.2	
844.24	3159.3	
844.41	5995.1	
844.58	4123.9	
844.75	2448.7	
844.92	2596.1	
845.09	4557.4	
845.26	4585.4	
845.43	2556.5	
845.6	2654.2	
845.77	4612	
845.94	4478.2	
846.12	2799.6	
846.29	2851.5	
846.46	4761.5	
846.63	4534.9	
846.8	2514.9	
846.97	2891.7	
847.14	4886.5	
847.31	4618.9	
847.48	2793.4	
847.65	3041.9	
847.82	4696.7	
847.99	4676.2	
848.16	3203.7	
848.33	2987.3	
848.5	4277.5	
848.67	4859.1	
848.84	2495.1	
849.01	2601.6	
849.18	4286.4	
849.35	3979.9	
849.52	3001.6	
849.69	2506.7	
849.86	4756.7	
850.03	4810	
850.2	2548.4	
850.37	2906.1	
850.54	4760.8	
850.71	4345.8	
850.88	2950.4	
851.05	2458.9	
851.22	4518.5	
851.39	4904.2	
851.56	2387.2	
851.73	2875.3	
851.9	4110.3	
852.07	4712.4	
852.24	2736.8	
852.41	2497.8	
852.58	4506.2	
852.75	4157.4	
852.92	2750.4	
853.09	2437.8	
853.26	4253.6	
853.43	4829.8	
853.6	2527.9	
853.77	2190	
853.94	4887.1	
854.11	4035.2	
854.28	3532.7	
854.44	2724.5	
854.61	5176.6	
854.78	4803.2	
854.95	2497.2	
855.12	3038.5	
855.29	3866.6	
855.46	5040.1	
855.63	2560.6	
855.8	3308.8	
855.97	4272.7	
856.14	4805.2	
856.31	3392.8	
856.48	2716.3	
856.65	4331.5	
856.82	4087.1	
856.99	2417.3	
857.16	2665.8	
857.33	5340.4	
857.49	4324.6	
857.66	2720.4	
857.83	2837.1	
858	4406.5	
858.17	4517.1	
858.34	2390.7	
858.51	2579.8	
858.68	5012.1	
858.85	4908.3	
859.02	2852.1	
859.19	2996.2	
859.36	4144.4	
859.52	4078.9	
859.69	2539.5	
859.86	2880.8	
860.03	4143	
860.2	4855.1	
860.37	2355.8	
860.54	2561.3	
860.71	4740.4	
860.88	4930.8	
861.05	2757.9	
861.21	3087.7	
861.38	4922.6	
861.55	4000.4	
861.72	2351.8	
861.89	2747.7	
862.06	4726.7	
862.23	4969.7	
862.4	2494.4	
862.56	2594.8	
862.73	4631.8	
862.9	4440.7	
863.07	2858.3	
863.24	2323.8	
863.41	4092.5	
863.58	4148.5	
863.75	2554.5	
863.91	2872.6	
864.08	4769	
864.25	4676.9	
864.42	3025.5	
864.59	3387.3	
864.76	5069.4	
864.93	4115.7	
865.09	2431.6	
865.26	2674	
865.43	4853	
865.6	5115.1	
865.77	2273.2	
865.94	2506.7	
866.1	4851	
866.27	4605.2	
866.44	3616.7	
866.61	2403	
866.78	4411.3	
866.95	4653	
867.11	2478	
867.28	2293.7	
867.45	4855.1	
867.62	4106.9	
867.79	2782.5	
867.96	2528.6	
868.12	4099.4	
868.29	4646.8	
868.46	2489.6	
868.63	3206.4	
868.8	4750.6	
868.97	4633.9	
869.13	2635.1	
869.3	2596.1	
869.47	4575.2	
869.64	4859.1	
869.81	2504	
869.97	2481.5	
870.14	4538.3	
870.31	4969.7	
870.48	2471.2	
870.65	3088.3	
870.81	4412	
870.98	4304.8	
871.15	2765.4	
871.32	2605	
871.48	4642.1	
871.65	4975.2	
871.82	2486.9	
871.99	2755.9	
872.16	5204.6	
872.32	4899.4	
872.49	2545.6	
872.66	2517	
872.83	4703.5	
872.99	4266.6	
873.16	2852.1	
873.33	2491.7	
873.5	4435.2	
873.67	4442.7	
873.83	2693.1	
874	3110.2	
874.17	4578.6	
874.34	5080.3	
874.5	3127.2	
874.67	3018	
874.84	4902.2	
875.01	4038.6	
875.17	3368.2	
875.34	2531.3	
875.51	4513	
875.68	5266	
875.84	2938.8	
876.01	3496.6	
876.18	4704.9	
876.34	4616.1	
876.51	2564.1	
876.68	2494.4	
876.85	4291.2	
877.01	4863.2	
877.18	3401	
877.35	2506	
877.52	4595	
877.68	4068.6	
877.85	2458.9	
878.02	2496.5	
878.18	4275.5	
878.35	4212.7	
878.52	2070.5	
878.69	2903.3	
878.85	4840	
879.02	4588.1	
879.19	3435.1	
879.35	2668.5	
879.52	4737.6	
879.69	4710.3	
879.86	2273.9	
880.02	2809.1	
880.19	4419.5	
880.36	5164.3	
880.52	2883.5	
880.69	2910.8	
880.86	4718.5	
881.02	4777.9	
881.19	2755.2	
881.36	2690.3	
881.52	4670.7	
881.69	4240	
881.86	2766.8	
882.02	2662.4	
882.19	4846.9	
882.36	5478.3	
882.52	2554.5	
882.69	3396.9	
882.86	4555.4	
883.02	4544.4	
883.19	2974.3	
883.36	2804.4	
883.52	4679.6	
883.69	5248.9	
883.86	2533.3	
884.02	2362.7	
884.19	4655.7	
884.36	4538.3	
884.52	2759.3	
884.69	2716.3	
884.86	4247.5	
885.02	4977.9	
885.19	2739.5	
885.36	2837.1	
885.52	4339	
885.69	4558.1	
885.86	3452.2	
886.02	3117	
886.19	4701.5	
886.35	4243.4	
886.52	2717	
886.69	3380.5	
886.85	4115.7	
887.02	4903.5	
887.19	4903.5	
887.35	4903.5	
887.52	4903.5	
887.68	4903.5	
887.85	4903.5	
888.02	4903.5	
888.18	4903.5	
888.35	4903.5	
888.51	4903.5	
888.68	4903.5	
888.85	4903.5	
889.01	4903.5	
889.18	4903.5	
889.35	4903.5	
889.51	4903.5	
889.68	4903.5	
889.84	4903.5	
890.01	4903.5	
890.17	4903.5	
890.34	4903.5	
890.51	4903.5	
890.67	4903.5	
890.84	4903.5	
891	4903.5	
891.17	4903.5	
891.34	4903.5	
891.5	4903.5	
891.67	4903.5	
891.83	4903.5	
892	4903.5	
892.16	4903.5	
892.33	4903.5	
892.5	4903.5	
892.66	4903.5	
892.83	4903.5	
892.99	4903.5	
893.16	4903.5	
893.32	4903.5	
893.49	4903.5	
893.65	4903.5	
893.82	4903.5	
893.99	4903.5	
894.15	4903.5	
894.32	4903.5	
894.48	4903.5	
894.65	4903.5	
894.81	4903.5	
894.98	4903.5	
895.14	4903.5	
895.31	4903.5	
895.47	4903.5	
895.64	4903.5	
895.81	4903.5	
895.97	4903.5	
896.14	4903.5	
896.3	4903.5	
896.47	4903.5	
896.63	4903.5	
896.8	4903.5	
896.96	4903.5	
897.13	4903.5	
897.29	4903.5	
897.46	4903.5	
897.62	4903.5	
897.79	4903.5	
897.95	4903.5	
898.12	4903.5	
898.28	4903.5	
898.45	4903.5	
898.61	4903.5	
898.78	4903.5	
898.94	4903.5	
899.11	4903.5	
899.27	4903.5	
899.44	4903.5	
899.6	4903.5	
899.77	4903.5	
899.93	4903.5	
900.1	4903.5	
900.26	4903.5	
900.43	4903.5	
900.59	4903.5	
900.76	4903.5	
900.92	4903.5	
901.09	4903.5	
901.25	4903.5	
901.42	4903.5	
901.58	4903.5	
901.75	4903.5	
901.91	4903.5	
902.07	4903.5	
902.24	4903.5	
902.4	4903.5	
902.57	4903.5	
902.73	4903.5	
902.9	4903.5	
903.06	4903.5	
903.23	4903.5	
903.39	4903.5	
903.56	4903.5	
903.72	4903.5	
903.88	4903.5	
904.05	4903.5	
904.21	4903.5	
904.38	4903.5	
904.54	4903.5	
904.71	4903.5	
904.87	4903.5	
905.03	4903.5	
905.2	4903.5	
905.36	4903.5	
905.53	4903.5	
905.69	4903.5	
905.86	4903.5	
906.02	4903.5	
906.18	4903.5	
906.35	4903.5	
906.51	4903.5	
906.68	4903.5	
906.84	4903.5	
907.01	4903.5	
907.17	4903.5	
907.33	4903.5	
907.5	4903.5	
907.66	4903.5	
907.83	4903.5	
907.99	4903.5	
908.15	4903.5	
908.32	4903.5	
908.48	4903.5	
908.65	4903.5	
908.81	4903.5	
908.97	4903.5	
909.14	4903.5	
909.3	4903.5	
909.47	4903.5	
909.63	4903.5	
909.79	4903.5	
909.96	4903.5	
910.12	4903.5	
910.28	4903.5	
910.45	4903.5	
910.61	4903.5	
910.78	4903.5	
910.94	4903.5	
911.1	4903.5	
911.27	4903.5	
911.43	4903.5	
911.59	4903.5	
911.76	4903.5	
911.92	4903.5	
912.08	4903.5	
912.25	4903.5	
912.41	4903.5	
912.57	4903.5	
912.74	4903.5	
912.9	4903.5	
913.07	4903.5	
913.23	4903.5	
913.39	4903.5	
913.56	4903.5	
913.72	4903.5	
913.88	4903.5	
914.05	4903.5	
914.21	4903.5	
914.37	4903.5	
914.54	4903.5	
914.7	4903.5	
914.86	4903.5	
915.03	4903.5	
915.19	4903.5	
