Wavelength	Intensities	
nm	a.u.	
179.22	1902.6	
179.44	1888.9	
179.65	1916.2	
179.86	1861.6	
180.08	1892.3	
180.29	4894	
180.51	3436.5	
180.72	5597.8	
180.94	6545.3	
181.15	3210.5	
181.37	3168.2	
181.58	5450.3	
181.79	5763.7	
182.01	3366.9	
182.22	3575.8	
182.44	5679	
182.65	4811.4	
182.87	4478.9	
183.08	3899.3	
183.29	6004.6	
183.51	4946.5	
183.72	3598.3	
183.94	5248.9	
184.15	5336.3	
184.37	5322	
184.58	3186	
184.79	4332.1	
185.01	4923.3	
185.22	5715.2	
185.44	4599.1	
185.65	3859.7	
185.86	5182.7	
186.08	4805.2	
186.29	3113.6	
186.51	3292.5	
186.72	5054.4	
186.94	5887.2	
187.15	3855	
187.36	3975.8	
187.58	7640.3	
187.79	5505.6	
188.01	4170.3	
188.22	6489.3	
188.43	6610.8	
188.65	5745.9	
188.86	3284.9	
189.08	3943.7	
189.29	5183.4	
189.5	5104.2	
189.72	3720.5	
189.93	3777.8	
190.15	5926.1	
190.36	7066.9	
190.57	4093.9	
190.79	3938.9	
191	5952.1	
191.22	5939.8	
191.43	4041.3	
191.64	3322.5	
191.86	6231.3	
192.07	5953.4	
192.29	3495.2	
192.5	3712.3	
192.71	5930.9	
192.93	5150	
193.14	3628.3	
193.35	3709.6	
193.57	5196.4	
193.78	5964.4	
194	2986.6	
194.21	3565.5	
194.42	4941.7	
194.64	5416.9	
194.85	3995.6	
195.07	4630.5	
195.28	5466.7	
195.49	4717.8	
195.71	4920.6	
195.92	3414	
196.13	5498.1	
196.35	5646.9	
196.56	5253.7	
196.78	4009.9	
196.99	7005.4	
197.2	6539.8	
197.42	4476.2	
197.63	4048.8	
197.84	4786.1	
198.06	5573.9	
198.27	3656.3	
198.48	4916.5	
198.7	5103.5	
198.91	5294	
199.13	3973.1	
199.34	3984.7	
199.55	5793	
199.77	4672.8	
199.98	3536.8	
200.19	4082.3	
200.41	5199.1	
200.62	4962.9	
200.83	4192.9	
201.05	4487.8	
201.26	5260.5	
201.47	5060.5	
201.69	3561.4	
201.9	3424.9	
202.11	5318.6	
202.33	6340.5	
202.54	3788.7	
202.76	4268	
202.97	5524.1	
203.18	5467.4	
203.4	4151.2	
203.61	4114.4	
203.82	5461.9	
204.04	5091.3	
204.25	4043.4	
204.46	3988.1	
204.68	5371.8	
204.89	5582.1	
205.1	3924.6	
205.32	3351.2	
205.53	5778	
205.74	5882.4	
205.96	2921.1	
206.17	4084.3	
206.38	5782.1	
206.6	5898.2	
206.81	4595.6	
207.02	3714.3	
207.24	5580	
207.45	6029.2	
207.66	3850.2	
207.88	3267.2	
208.09	5569.1	
208.3	5345.2	
208.52	3506.8	
208.73	3850.9	
208.94	5357.5	
209.15	6092.7	
209.37	3805.1	
209.58	4061.8	
209.79	5941.8	
210.01	5137.7	
210.22	3032.4	
210.43	3226.2	
210.65	5419.6	
210.86	5806	
211.07	3859.1	
211.29	3458.3	
211.5	5730.9	
211.71	5307.7	
211.93	3473.4	
212.14	3446.7	
212.35	5298.8	
212.56	5509	
212.78	4000.4	
212.99	3313.6	
213.2	6335.1	
213.42	5132.9	
213.63	3611.9	
213.84	3863.2	
214.06	4787.5	
214.27	4862.6	
214.48	3774.4	
214.69	4121.9	
214.91	6051.7	
215.12	6088.6	
215.33	4132.1	
215.55	4555.4	
215.76	6648.4	
215.97	5783.5	
216.18	3936.2	
216.4	3819.5	
216.61	5036.6	
216.82	5868.8	
217.04	3535.5	
217.25	3665.2	
217.46	6028.5	
217.67	5754.1	
217.89	3104.7	
218.1	3294.5	
218.31	5487.2	
218.53	5537	
218.74	3672.7	
218.95	3596.2	
219.16	5267.4	
219.38	6262	
219.59	3538.9	
219.8	4311	
220.01	6916	
220.23	5380	
220.44	4702.1	
220.65	3486.3	
220.87	5411.4	
221.08	5971.2	
221.29	3251.5	
221.5	4373.8	
221.72	7349.5	
221.93	5059.2	
222.14	4088.4	
222.35	4751.3	
222.57	5427.1	
222.78	5735	
222.99	3839.3	
223.2	4229.1	
223.42	5640.8	
223.63	5765	
223.84	2927.9	
224.05	2934.7	
224.27	6890.7	
224.48	6205.3	
224.69	4753.3	
224.9	4065.2	
225.12	5576.6	
225.33	5332.2	
225.54	3203	
225.75	3602.4	
225.97	4982.7	
226.18	5216.2	
226.39	3779.9	
226.6	3576.4	
226.82	5132.2	
227.03	4948.6	
227.24	4027	
227.45	3347.7	
227.67	5727.5	
227.88	6304.3	
228.09	4477.5	
228.3	4508.3	
228.52	5825.1	
228.73	5375.9	
228.94	3701.4	
229.15	3330	
229.36	5229.8	
229.58	5199.8	
229.79	3800.3	
230	4330.1	
230.21	6361	
230.43	5514.5	
230.64	3946.4	
230.85	4175.8	
231.06	5836	
231.28	5772.5	
231.49	3289.7	
231.7	3911.6	
231.91	5684.5	
232.12	5390.3	
232.34	3437.2	
232.55	3842.7	
232.76	5977.3	
232.97	5547.9	
233.18	3528.7	
233.4	3904.1	
233.61	5649.7	
233.82	5089.2	
234.03	3695.9	
234.25	3654.3	
234.46	7409.6	
234.67	5459.2	
234.88	4137.6	
235.09	3542.3	
235.31	5741.8	
235.52	5302.2	
235.73	3980.6	
235.94	3390.1	
236.15	5110.4	
236.37	6444.3	
236.58	3530	
236.79	3848.8	
237	5679	
237.21	4863.2	
237.43	4072.7	
237.64	3261	
237.85	9757.2	
238.06	4956.1	
238.27	4171	
238.48	3289.7	
238.7	5663.3	
238.91	5207.3	
239.12	3788.1	
239.33	3891.8	
239.54	5154.1	
239.76	5296.7	
239.97	3792.8	
240.18	3814	
240.39	6768.5	
240.6	5702.2	
240.82	3987.4	
241.03	3253.5	
241.24	5316.5	
241.45	6234.7	
241.66	3521.8	
241.87	4138.3	
242.09	6046.3	
242.3	6432	
242.51	4213.4	
242.72	3846.1	
242.93	5819	
243.14	5339.7	
243.36	4491.9	
243.57	4848.9	
243.78	6210.8	
243.99	5744.6	
244.2	3816.7	
244.41	3504.1	
244.63	4928.8	
244.84	5683.1	
245.05	4134.2	
245.26	3854.3	
245.47	5637.4	
245.68	5930.9	
245.9	5082.4	
246.11	4085.7	
246.32	5162.9	
246.53	5545.9	
246.74	6179.4	
246.95	3253.5	
247.16	4842.8	
247.38	5411.4	
247.59	3220.8	
247.8	3813.3	
248.01	5048.9	
248.22	5277.6	
248.43	3451.5	
248.64	3743	
248.86	4771.1	
249.07	5131.5	
249.28	3364.1	
249.49	3944.4	
249.7	5916.6	
249.91	6058.6	
250.12	3244	
250.34	3287.7	
250.55	5468.8	
250.76	5356.1	
250.97	3955.3	
251.18	4005.8	
251.39	6110.5	
251.6	5517.9	
251.81	4087.1	
252.03	4073.4	
252.24	5096	
252.45	5880.4	
252.66	3358	
252.87	4283	
253.08	5395.7	
253.29	7048.4	
253.5	3317	
253.72	4699.4	
253.93	5216.9	
254.14	6365.8	
254.35	3682.2	
254.56	3758	
254.77	5588.2	
254.98	4972.5	
255.19	3624.9	
255.41	4657.8	
255.62	5511.8	
255.83	6047	
256.04	4126.7	
256.25	4083.6	
256.46	6612.2	
256.67	5070.1	
256.88	3953.3	
257.09	4377.9	
257.31	5046.9	
257.52	5086.5	
257.73	4986.1	
257.94	3617.4	
258.15	5300.1	
258.36	5373.9	
258.57	4661.2	
258.78	2937.5	
258.99	5851.7	
259.2	5175.2	
259.41	3693.2	
259.63	3767.6	
259.84	6229.9	
260.05	6653.2	
260.26	4820.2	
260.47	3567.6	
260.68	5935.7	
260.89	5287.9	
261.1	4414.1	
261.31	3493.8	
261.52	6001.9	
261.73	6276.3	
261.95	4743.1	
262.16	4153.3	
262.37	6141.9	
262.58	6158.2	
262.79	4724	
263	3818.1	
263.21	5356.1	
263.42	4894.6	
263.63	3817.4	
263.84	3725.9	
264.05	5922.7	
264.26	6328.9	
264.47	4618.2	
264.69	4126.7	
264.9	6120.7	
265.11	5554.8	
265.32	3535.5	
265.53	3623.5	
265.74	5519.3	
265.95	4795.7	
266.16	3886.4	
266.37	4383.3	
266.58	5465.3	
266.79	5175.2	
267	3622.2	
267.21	3395.5	
267.42	4958.1	
267.63	5378	
267.84	3856.3	
268.06	3245.3	
268.27	5779.4	
268.48	6071.5	
268.69	3731.4	
268.9	4437.9	
269.11	6071.5	
269.32	4859.1	
269.53	3851.5	
269.74	3547.8	
269.95	5709.1	
270.16	4743.8	
270.37	3831.1	
270.58	4454.3	
270.79	5187.5	
271	5879.7	
271.21	4107.5	
271.42	3870.7	
271.63	5507.7	
271.84	5030.5	
272.05	3070.6	
272.26	3449.5	
272.47	5412.1	
272.68	5539.8	
272.89	3693.2	
273.11	4246.1	
273.32	5259.2	
273.53	6348.7	
273.74	4130.1	
273.95	4058.4	
274.16	5998.5	
274.37	5461.2	
274.58	4223.6	
274.79	3387.3	
275	5516.5	
275.21	6120	
275.42	5081	
275.63	4362.2	
275.84	5629.2	
276.05	7101	
276.26	4026.3	
276.47	3755.3	
276.68	5220.3	
276.89	6390.3	
277.1	4347.2	
277.31	3384.6	
277.52	5629.2	
277.73	5735.7	
277.94	3336.1	
278.15	3658.4	
278.36	5630.5	
278.57	5063.3	
278.78	3702.7	
278.99	4179.2	
279.2	5038.7	
279.41	4934.9	
279.62	4849.6	
279.83	3383.2	
280.04	6578.1	
280.25	4902.8	
280.46	4826.4	
280.67	3853.6	
280.88	5014.8	
281.09	6035.4	
281.3	4127.3	
281.51	5113.1	
281.72	5088.5	
281.93	5892	
282.14	3603.7	
282.35	3915	
282.56	5896.8	
282.77	5871.5	
282.98	3685.7	
283.19	4609.3	
283.4	7174	
283.61	5325.4	
283.82	3345.7	
284.03	4758.8	
284.24	5494.7	
284.45	6041.5	
284.66	4749.9	
284.87	4620.2	
285.08	5984.8	
285.29	6057.2	
285.5	3307.5	
285.71	3799.7	
285.92	6034	
286.12	6656.6	
286.33	4681	
286.54	3736.2	
286.75	5806	
286.96	5257.8	
287.17	3411.9	
287.38	4591.5	
287.59	5022.3	
287.8	4939.7	
288.01	3779.9	
288.22	4334.2	
288.43	5930.2	
288.64	4914.4	
288.85	4428.4	
289.06	4207.2	
289.27	5776	
289.48	6311.2	
289.69	4790.9	
289.9	4377.2	
290.11	6040.1	
290.32	5118.6	
290.53	4596.3	
290.74	4220.2	
290.94	5801.9	
291.15	5873.6	
291.36	3670.6	
291.57	4336.2	
291.78	5147.9	
291.99	4810.7	
292.2	3456.3	
292.41	4180.6	
292.62	5982.8	
292.83	5670.8	
293.04	5212.8	
293.25	3501.3	
293.46	5162.9	
293.67	5988.3	
293.88	3577.8	
294.09	3486.3	
294.29	4904.2	
294.5	5544.5	
294.71	3896.6	
294.92	3717.7	
295.13	5165.7	
295.34	6462	
295.55	3216.7	
295.76	3325.2	
295.97	5812.8	
296.18	6587.6	
296.39	3431	
296.6	3596.2	
296.81	5470.1	
297.01	5799.2	
297.22	3786.7	
297.43	3622.2	
297.64	5027.8	
297.85	5017.5	
298.06	2962.7	
298.27	3263.1	
298.48	5414.8	
298.69	5113.8	
298.9	3869.3	
299.11	3545.7	
299.31	4939	
299.52	4995	
299.73	4156.7	
299.94	4094.6	
300.15	5411.4	
300.36	5013.4	
300.57	4147.8	
300.78	4156	
300.99	5284.4	
301.2	5528.2	
301.4	3554.6	
301.61	3915	
301.82	5680.4	
302.03	5797.8	
302.24	4410	
302.45	3405.1	
302.66	5675.6	
302.87	6107.7	
303.08	3630.4	
303.29	5017.5	
303.49	5124	
303.7	5425.8	
303.91	3247.4	
304.12	4718.5	
304.33	4851	
304.54	5446.9	
304.75	3644.7	
304.96	3472	
305.16	5782.8	
305.37	6455.2	
305.58	3070.6	
305.79	3246.7	
306	5713.8	
306.21	4803.2	
306.42	3614.7	
306.63	5531.6	
306.83	5261.2	
307.04	5933	
307.25	4018.1	
307.46	3907.5	
307.67	4631.1	
307.88	5848.3	
308.09	3524.6	
308.29	3707.5	
308.5	5476.3	
308.71	5952.8	
308.92	3917.8	
309.13	3453.6	
309.34	5376.6	
309.55	5317.2	
309.75	4524.6	
309.96	4090.5	
310.17	5780.7	
310.38	5089.9	
310.59	4398.4	
310.8	4089.8	
311.01	5173.2	
311.21	5315.8	
311.42	3442	
311.63	3580.5	
311.84	5122.7	
312.05	5582.8	
312.26	4041.3	
312.46	4367	
312.67	5233.2	
312.88	4907.6	
313.09	3517.7	
313.3	3393.5	
313.51	6173.9	
313.71	6518.7	
313.92	3435.8	
314.13	3710.2	
314.34	5485.1	
314.55	5253.7	
314.76	4499.4	
314.96	3908.2	
315.17	5515.9	
315.38	5793.7	
315.59	3511.6	
315.8	3375.1	
316.01	6234	
316.21	6272.9	
316.42	3415.3	
316.63	3910.9	
316.84	5291.3	
317.05	6108.4	
317.26	4177.2	
317.46	3725.9	
317.67	5242.1	
317.88	5768.4	
318.09	4449.6	
318.3	3251.5	
318.5	5122	
318.71	5700.9	
318.92	5665.4	
319.13	4117.1	
319.34	5857.2	
319.54	6047.7	
319.75	3285.6	
319.96	3142.3	
320.17	5808	
320.38	5938.4	
320.58	3153.2	
320.79	3838.6	
321	5988.3	
321.21	6171.9	
321.42	3872.7	
321.62	3162.1	
321.83	5059.2	
322.04	5362.9	
322.25	3699.3	
322.46	3472.7	
322.66	5499.5	
322.87	5670.8	
323.08	4373.8	
323.29	3419.4	
323.5	6464.1	
323.7	4908.3	
323.91	4728.1	
324.12	4293.2	
324.33	5434.6	
324.53	5716.6	
324.74	4095.3	
324.95	4283.7	
325.16	4792.2	
325.37	5225.1	
325.57	3432.4	
325.78	3603.1	
325.99	5459.2	
326.2	4925.4	
326.4	4946.5	
326.61	3232.4	
326.82	5363.6	
327.03	5479	
327.24	4931.5	
327.44	4700.8	
327.65	5670.8	
327.86	4593.6	
328.07	4130.1	
328.27	3381.2	
328.48	6101.6	
328.69	4960.2	
328.9	5046.2	
329.1	3766.9	
329.31	5285.1	
329.52	6253.1	
329.73	3515	
329.93	3992.2	
330.14	5439.4	
330.35	5671.5	
330.56	5806.7	
330.76	4386.1	
330.97	5234.6	
331.18	5549.3	
331.39	3851.5	
331.59	3154.6	
331.8	5977.3	
332.01	6143.9	
332.22	3627	
332.42	4186.7	
332.63	5451.7	
332.84	5074.9	
333.05	3909.6	
333.25	3554.6	
333.46	5157.5	
333.67	5472.9	
333.88	3611.9	
334.08	4094.6	
334.29	7206.8	
334.5	5983.5	
334.7	3429	
334.91	5010	
335.12	4908.3	
335.33	5794.4	
335.53	3943	
335.74	5722.7	
335.95	5217.5	
336.16	5037.3	
336.36	3820.8	
336.57	4442	
336.78	4910.3	
336.98	6007.4	
337.19	4795.7	
337.4	3842.7	
337.61	6573.3	
337.81	4944.5	
338.02	3588.7	
338.23	4668	
338.43	6182.8	
338.64	5042.1	
338.85	3509.5	
339.05	4601.1	
339.26	6311.2	
339.47	4906.3	
339.68	3538.2	
339.88	5261.2	
340.09	5636.7	
340.3	5883.1	
340.5	4111	
340.71	3121.1	
340.92	4867.3	
341.13	6183.5	
341.33	3366.2	
341.54	4184	
341.75	5609.4	
341.95	5292	
342.16	3965.6	
342.37	4320.5	
342.57	4934.9	
342.78	5340.4	
342.99	4390.2	
343.19	3202.3	
343.4	5769.8	
343.61	5672.2	
343.81	3748.5	
344.02	3431.7	
344.23	5801.9	
344.43	6262	
344.64	4311	
344.85	4219.5	
345.06	5692	
345.26	5984.2	
345.47	4070.7	
345.68	4798.4	
345.88	4771.8	
346.09	5868.8	
346.3	4150.6	
346.5	3114.3	
346.71	5438.7	
346.92	5111	
347.12	3173.7	
347.33	4060.4	
347.54	6008.1	
347.74	6300.9	
347.95	4048.8	
348.16	2991.4	
348.36	5171.1	
348.57	4881	
348.78	4014	
348.98	4311.7	
349.19	5335.6	
349.39	4924	
349.6	3228.3	
349.81	3571.7	
350.01	5601.2	
350.22	5059.2	
350.43	3934.8	
350.63	4668	
350.84	5466	
351.05	5158.2	
351.25	3566.9	
351.46	3192.8	
351.67	5980.8	
351.87	5107	
352.08	3769.6	
352.29	4325.3	
352.49	5835.3	
352.7	5925.5	
352.9	3420.8	
353.11	4274.1	
353.32	6479.8	
353.52	5161.6	
353.73	3399.6	
353.94	4321.9	
354.14	5640.8	
354.35	5519.3	
354.55	3517.7	
354.76	3928.7	
354.97	5619.6	
355.17	5461.9	
355.38	3289	
355.59	4567.7	
355.79	5050.3	
356	5506.3	
356.2	3857.7	
356.41	3342.3	
356.62	4829.8	
356.82	5347.2	
357.03	4203.8	
357.24	3706.1	
357.44	5049.6	
357.65	5189.6	
357.85	4943.1	
358.06	3880.9	
358.27	4799.8	
358.47	5069.4	
358.68	3302	
358.88	4092.5	
359.09	5548.6	
359.3	6026.5	
359.5	4855.7	
359.71	4246.8	
359.91	6418.3	
360.12	5769.1	
360.33	4098.7	
360.53	4545.1	
360.74	5053	
360.94	5180.7	
361.15	4296	
361.36	3539.6	
361.56	5850.4	
361.77	5319.9	
361.97	4827.7	
362.18	3810.6	
362.38	5856.5	
362.59	4946.5	
362.8	3500	
363	3340.9	
363.21	4782	
363.41	5427.1	
363.62	4007.9	
363.83	5025	
364.03	5492	
364.24	6384.2	
364.44	5139.7	
364.65	5173.2	
364.85	5229.8	
365.06	5164.3	
365.27	3670.6	
365.47	3683.6	
365.68	6258.6	
365.88	5227.1	
366.09	4070.7	
366.29	3753.2	
366.5	5514.5	
366.71	5911.8	
366.91	5054.4	
367.12	4252.9	
367.32	6508.4	
367.53	5756.8	
367.73	4181.3	
367.94	5128.8	
368.14	5707.7	
368.35	6632.7	
368.56	4132.1	
368.76	3923.2	
368.97	5852.4	
369.17	7563.8	
369.38	3682.2	
369.58	3908.9	
369.79	4917.2	
369.99	6186.2	
370.2	4904.2	
370.4	4008.6	
370.61	5581.4	
370.82	6734.4	
371.02	3915.7	
371.23	3300	
371.43	4792.9	
371.64	6102.9	
371.84	3989.4	
372.05	5150.6	
372.25	7449.1	
372.46	5857.2	
372.66	3988.1	
372.87	3867.9	
373.07	5928.2	
373.28	7509.2	
373.48	4972.5	
373.69	4696	
373.9	5442.8	
374.1	5455.8	
374.31	4913.8	
374.51	4445.5	
374.72	6218.3	
374.92	5081.7	
375.13	5067.4	
375.33	4261.8	
375.54	5823.1	
375.74	5240.1	
375.95	4263.9	
376.15	5526.1	
376.36	5767.1	
376.56	5642.2	
376.77	4420.9	
376.97	4810	
377.18	6787.7	
377.38	5872.2	
377.59	5172.5	
377.79	3900	
378	5681.1	
378.2	6113.9	
378.41	3955.3	
378.61	3902.1	
378.82	6158.9	
379.02	5333.6	
379.23	4117.8	
379.43	5251.7	
379.64	6255.2	
379.84	5895.4	
380.05	3949.8	
380.25	3857	
380.46	6010.1	
380.66	5523.4	
380.87	5280.3	
381.07	5678.3	
381.28	6546.7	
381.48	5966.4	
381.69	4014	
381.89	4040.6	
382.1	4906.3	
382.3	6094.1	
382.51	5046.2	
382.71	6043.6	
382.91	5952.1	
383.12	6479.1	
383.32	4369	
383.53	4544.4	
383.73	5786.2	
383.94	5657.9	
384.14	4449.6	
384.35	3624.9	
384.55	5500.2	
384.76	5990.3	
384.96	4320.5	
385.17	4655	
385.37	5989.6	
385.58	5221	
385.78	4687.1	
385.98	3525.9	
386.19	5446.9	
386.39	5862.7	
386.6	4100.7	
386.8	4334.9	
387.01	5968.5	
387.21	6023.1	
387.42	4769	
387.62	5253.7	
387.83	5281	
388.03	5862	
388.23	4351.3	
388.44	5182.7	
388.64	5068	
388.85	5100.1	
389.05	4753.3	
389.26	5337.7	
389.46	7004.1	
389.67	6447	
389.87	4663.2	
390.07	4762.2	
390.28	5573.2	
390.48	5214.8	
390.69	3945.1	
390.89	4240.7	
391.1	5372.5	
391.3	6292.7	
391.5	5433.3	
391.71	6010.8	
391.91	6029.2	
392.12	7050.5	
392.32	5525.4	
392.53	4831.2	
392.73	5490.6	
392.93	5682.4	
393.14	4377.9	
393.34	5152	
393.55	6219.7	
393.75	5614.8	
393.95	4450.2	
394.16	4349.2	
394.36	5369.1	
394.57	6044.2	
394.77	3928.7	
394.98	4287.1	
395.18	5304.9	
395.38	5485.1	
395.59	5154.7	
395.79	4162.2	
396	5501.5	
396.2	6022.4	
396.4	5019.6	
396.61	4931.5	
396.81	6138.4	
397.02	5459.2	
397.22	5178.6	
397.42	5264	
397.63	6196.5	
397.83	5368.4	
398.04	4125.3	
398.24	4676.2	
398.44	5958.9	
398.65	5030.5	
398.85	3968.3	
399.05	4055.7	
399.26	5387.5	
399.46	7006.1	
399.67	4480.3	
399.87	4188.1	
400.07	5715.2	
400.28	6080.4	
400.48	4256.4	
400.69	5442.1	
400.89	6346.7	
401.09	6757.6	
401.3	4182	
401.5	5319.9	
401.7	6997.9	
401.91	7200	
402.11	4514.4	
402.32	4790.2	
402.52	6382.2	
402.72	6202.6	
402.93	4944.5	
403.13	3817.4	
403.33	7106.5	
403.54	5795.8	
403.74	4607.2	
403.94	5522.7	
404.15	5836	
404.35	6981.5	
404.56	4428.4	
404.76	6219	
404.96	6297.5	
405.17	6122.1	
405.37	5657.9	
405.57	4874.8	
405.78	6382.2	
405.98	5758.2	
406.18	4420.9	
406.39	5341.1	
406.59	6281.1	
406.79	5925.5	
407	4255	
407.2	4429.8	
407.4	6292.7	
407.61	6512.5	
407.81	4372.4	
408.01	6477	
408.22	5334.3	
408.42	7365.2	
408.62	5524.7	
408.83	4967.7	
409.03	6020.3	
409.23	5836	
409.44	5031.2	
409.64	5318.6	
409.84	6926.9	
410.05	6830.7	
410.25	5177.9	
410.45	5017.5	
410.66	6321.4	
410.86	8718.2	
411.06	5364.3	
411.27	5186.1	
411.47	8583	
411.67	6493.4	
411.88	5436.7	
412.08	5694	
412.28	7101.7	
412.49	7557	
412.69	5259.9	
412.89	5312.4	
413.09	7431.4	
413.3	7283.9	
413.5	5354.1	
413.7	4896	
413.91	6615.6	
414.11	7342	
414.31	5128.8	
414.52	5607.3	
414.72	7067.5	
414.92	7037.5	
415.12	5219.6	
415.33	5715.2	
415.53	7376.8	
415.73	7550.9	
415.94	6091.3	
416.14	5472.9	
416.34	6374.6	
416.55	6225.1	
416.75	6636.8	
416.95	6089.3	
417.15	7354.3	
417.36	8090.2	
417.56	6884.6	
417.76	5959.6	
417.97	7793.2	
418.17	7421.2	
418.37	5514.5	
418.57	5610.8	
418.78	7156.3	
418.98	6881.9	
419.18	6496.8	
419.38	6364.4	
419.59	6929.6	
419.79	6462.7	
419.99	5464	
420.2	5823.1	
420.4	7479.9	
420.6	7609.6	
420.8	5384.1	
421.01	5257.8	
421.21	7293.5	
421.41	7409.6	
421.61	5789.6	
421.82	5473.5	
422.02	6781.5	
422.22	7684.7	
422.42	6290.7	
422.63	5965.1	
422.83	6888.7	
423.03	7989.8	
423.23	5940.5	
423.44	4944.5	
423.64	6952.9	
423.84	6654.5	
424.04	5345.2	
424.25	4980	
424.45	7851.2	
424.65	7737.9	
424.85	4784.7	
425.06	5340.4	
425.26	7847.1	
425.46	6810.2	
425.66	5832.6	
425.87	5536.3	
426.07	7548.1	
426.27	7413	
426.47	5732.3	
426.67	5099.4	
426.88	7925	
427.08	7289.4	
427.28	5913.2	
427.48	4932.9	
427.69	6233.3	
427.89	6926.9	
428.09	5870.2	
428.29	5119.9	
428.5	7593.9	
428.7	7121.5	
428.9	4965.6	
429.1	5511.1	
429.3	7098.3	
429.51	7494.2	
429.71	5272.8	
429.91	6100.9	
430.11	7305.1	
430.31	7524.9	
430.52	5559.6	
430.72	5855.1	
430.92	7891.5	
431.12	7419.8	
431.32	5266	
431.53	5681.1	
431.73	6340.5	
431.93	7946.1	
432.13	5156.8	
432.33	5053	
432.54	6727.6	
432.74	7155.6	
432.94	4988.2	
433.14	6052.4	
433.34	7243	
433.55	6804	
433.75	6023.1	
433.95	7754.3	
434.15	7088.7	
434.35	6762.4	
434.56	5234.6	
434.76	4677.6	
434.96	7088	
435.16	7293.5	
435.36	5100.1	
435.56	6262.7	
435.77	6738.5	
435.97	6902.3	
436.17	6903.7	
436.37	6072.9	
436.57	6777.4	
436.78	6587.6	
436.98	6109.8	
437.18	6709.8	
437.38	7432.8	
437.58	6856.6	
437.78	6900.3	
437.99	5488.6	
438.19	7332.4	
438.39	8182.3	
438.59	5421.7	
438.79	4947.9	
438.99	8002.1	
439.2	6867.5	
439.4	5037.3	
439.6	5022.3	
439.8	7236.2	
440	8305.2	
440.2	6037.4	
440.4	6206	
440.61	7666.9	
440.81	8142	
441.01	5386.2	
441.21	6161.7	
441.41	8035.5	
441.61	7651.2	
441.81	6517.3	
442.02	7514	
442.22	8483.4	
442.42	7760.4	
442.62	5341.8	
442.82	5404.6	
443.02	7987.8	
443.22	7234.8	
443.43	5793.7	
443.63	5400.5	
443.83	7002.7	
444.03	7051.2	
444.23	6664.8	
444.43	6206	
444.63	7271	
444.83	8546.2	
445.04	5487.9	
445.24	6700.3	
445.44	7627.3	
445.64	7720.2	
445.84	6212.2	
446.04	6268.8	
446.24	7062.8	
446.44	8062.2	
446.65	5425.8	
446.85	5869.5	
447.05	7368.6	
447.25	7993.2	
447.45	5928.9	
447.65	5300.1	
447.85	7367.9	
448.05	7002.7	
448.25	6331.6	
448.46	6207.4	
448.66	7368.6	
448.86	6969.2	
449.06	5104.2	
449.26	6331.6	
449.46	7697.6	
449.66	6700.3	
449.86	5849	
450.06	5794.4	
450.26	6868.9	
450.47	7522.2	
450.67	6084.5	
450.87	6442.2	
451.07	7575.4	
451.27	7392.5	
451.47	5365	
451.67	5950.7	
451.87	6994.5	
452.07	8209.6	
452.27	5603.2	
452.47	5569.8	
452.67	7296.2	
452.88	7949.5	
453.08	5042.8	
453.28	7017.7	
453.48	8540	
453.68	7301	
453.88	5543.9	
454.08	5687.9	
454.28	7765.2	
454.48	7302.4	
454.68	6352.8	
454.88	6800.6	
455.08	7811	
455.28	7585.7	
455.48	5369.1	
455.68	6045.6	
455.89	8304.5	
456.09	7951.6	
456.29	5851.7	
456.49	5827.8	
456.69	8147.5	
456.89	7411.6	
457.09	6335.7	
457.29	6709.8	
457.49	7811.6	
457.69	7873.8	
457.89	6123.4	
458.09	5524.7	
458.29	7545.4	
458.49	8226.7	
458.69	6522.8	
458.89	6061.3	
459.09	8487.5	
459.29	8588.5	
459.49	6081.8	
459.69	6853.2	
459.9	7942	
460.1	7507.9	
460.3	5961.6	
460.5	5797.1	
460.7	8030.1	
460.9	7707.2	
461.1	5451.7	
461.3	6820.4	
461.5	8645.2	
461.7	8274.5	
461.9	5930.2	
462.1	6344.6	
462.3	7722.9	
462.5	8317.5	
462.7	6005.3	
462.9	6072.9	
463.1	9458.9	
463.3	9067	
463.5	6262	
463.7	7260.7	
463.9	7944.1	
464.1	8323.6	
464.3	6388.3	
464.5	6690	
464.7	8675.2	
464.9	8256.7	
465.1	8003.5	
465.3	7040.9	
465.5	9011.7	
465.7	8894.3	
465.9	7248.4	
466.1	7086	
466.3	8693.6	
466.5	8549.6	
466.7	7963.2	
466.9	6832	
467.1	8485.4	
467.3	9397.4	
467.5	7808.9	
467.7	6675.7	
467.9	9658.2	
468.1	10537	
468.3	7536.5	
468.5	8039.6	
468.7	8441	
468.9	8455.4	
469.1	7024.5	
469.3	7712.7	
469.5	10432	
469.7	7957	
469.9	7500.3	
470.1	6845	
470.3	8464.9	
470.5	8418.5	
470.7	8017.1	
470.9	6849.1	
471.1	8263.6	
471.3	8671.8	
471.5	6529.6	
471.69	8643.8	
471.89	8122.9	
472.09	7674.4	
472.29	7407.5	
472.49	7890.8	
472.69	7833.5	
472.89	8666.3	
473.09	6603.3	
473.29	6630.6	
473.49	8034.9	
473.69	8176.2	
473.89	7536.5	
474.09	6884.6	
474.29	9467.8	
474.49	8998.1	
474.69	7582.9	
474.89	6948.1	
475.09	8200.7	
475.29	8200.7	
475.49	6413.6	
475.69	6649.1	
475.88	9800.2	
476.08	8449.9	
476.28	6307.7	
476.48	6816.3	
476.68	8905.3	
476.88	8720.3	
477.08	6508.4	
477.28	6948.8	
477.48	8252.6	
477.68	8867.7	
477.88	6386.9	
478.08	6726.2	
478.28	9093.7	
478.48	8292.9	
478.67	6845	
478.87	6190.3	
479.07	9047.2	
479.27	8431.5	
479.47	7017.7	
479.67	7081.2	
479.87	8778.3	
480.07	9317.6	
480.27	6251.1	
480.47	7952.9	
480.67	8387.8	
480.87	9081.4	
481.06	6572.6	
481.26	7333.1	
481.46	8433.5	
481.66	8296.3	
481.86	6993.1	
482.06	8016.4	
482.26	8077.9	
482.46	9090.9	
482.66	6916.7	
482.86	6472.3	
483.05	8486.1	
483.25	7905.2	
483.45	9480.7	
483.65	6926.2	
483.85	8029.4	
484.05	8363.9	
484.25	7400	
484.45	7793.9	
484.65	9215.9	
484.84	9249.3	
485.04	6894.8	
485.24	6866.2	
485.44	9478.7	
485.64	7899	
485.84	6187.6	
486.04	7600.7	
486.24	8258.8	
486.44	8614.4	
486.63	6049	
486.83	6872.3	
487.03	8157.1	
487.23	8406.9	
487.43	6296.8	
487.63	8591.2	
487.83	8319.5	
488.02	9462.3	
488.22	7275.1	
488.42	7912	
488.62	9243.8	
488.82	8163.9	
489.02	6881.2	
489.22	6926.9	
489.41	9136.7	
489.61	8766	
489.81	6573.3	
490.01	6710.5	
490.21	9056.1	
490.41	9705.3	
490.61	6628.6	
490.8	6805.4	
491	8500.4	
491.2	7851.2	
491.4	7367.9	
491.6	6477	
491.8	8507.9	
491.99	8663.6	
492.19	6305	
492.39	6664.8	
492.59	9100.5	
492.79	9126.4	
492.99	7602.1	
493.18	6635.4	
493.38	9184.5	
493.58	9925.1	
493.78	7337.9	
493.98	6993.1	
494.18	8909.3	
494.37	8360.5	
494.57	7566.6	
494.77	7427.3	
494.97	9094.3	
495.17	9530.6	
495.37	7004.1	
495.56	7369.3	
495.76	9625.5	
495.96	9153.1	
496.16	8271.7	
496.36	7202	
496.55	9379.7	
496.75	8903.9	
496.95	7595.2	
497.15	7445.7	
497.35	9402.9	
497.54	9281.4	
497.74	7226.6	
497.94	8972.8	
498.14	10109	
498.34	9897.2	
498.53	6956.3	
498.73	7794.6	
498.93	8712.7	
499.13	9365.4	
499.33	7499.7	
499.52	8121.6	
499.72	9282.1	
499.92	9683.5	
500.12	7202.7	
500.32	7473.7	
500.51	9573.6	
500.71	9383.1	
500.91	8357.1	
501.11	7942.7	
501.31	9407	
501.5	9910.1	
501.7	8490.9	
501.9	7588.4	
502.1	9270.5	
502.29	9615.2	
502.49	8062.2	
502.69	8433.5	
502.89	9452.1	
503.09	9512.8	
503.28	7015.7	
503.48	7285.3	
503.68	8667.7	
503.88	8718.9	
504.07	8031.5	
504.27	7605.5	
504.47	9110	
504.67	9244.5	
504.86	8062.2	
505.06	7746.1	
505.26	8764.6	
505.46	10560	
505.65	7516	
505.85	7780.2	
506.05	8702.5	
506.25	9195.4	
506.44	6830.7	
506.64	7836.9	
506.84	8609.7	
507.04	9475.3	
507.23	7121.5	
507.43	7641	
507.63	10464	
507.83	8892.3	
508.02	7591.1	
508.22	7221.8	
508.42	10748	
508.62	8468.4	
508.81	7430	
509.01	8015.7	
509.21	8373.5	
509.4	8710	
509.6	7664.2	
509.8	7021.8	
510	8667	
510.19	10094	
510.39	7002	
510.59	7097.6	
510.79	8465.6	
510.98	9831.6	
511.18	7088.7	
511.38	7232.7	
511.57	9204.3	
511.77	9227.5	
511.97	7925	
512.17	6924.2	
512.36	9317.6	
512.56	9145.5	
512.76	7016.3	
512.95	6804.7	
513.15	9460.9	
513.35	7993.9	
513.55	7892.2	
513.74	7105.8	
513.94	9355.1	
514.14	8782.4	
514.33	7993.2	
514.53	7774.8	
514.73	8669.1	
514.92	8940.7	
515.12	7264.8	
515.32	6978.8	
515.51	9082.7	
515.71	9585.2	
515.91	8644.5	
516.11	7152.9	
516.3	10776	
516.5	8609.7	
516.7	7662.1	
516.89	8312	
517.09	8783.1	
517.29	8725.7	
517.48	7998.7	
517.68	7395.2	
517.88	8497.7	
518.07	9187.2	
518.27	7938.6	
518.47	6989	
518.66	9767.4	
518.86	8371.4	
519.06	6744.6	
519.25	7271	
519.45	8714.8	
519.65	10190	
519.84	7978.2	
520.04	8642.4	
520.24	10543	
520.43	9328.5	
520.63	7649.8	
520.83	7370.6	
521.02	8552.3	
521.22	9226.1	
521.42	7912.7	
521.61	8426.7	
521.81	8778.3	
522.01	9047.2	
522.2	7774.1	
522.4	7511.3	
522.6	9473.9	
522.79	8279.9	
522.99	7644.4	
523.18	6941.2	
523.38	9262.3	
523.58	9235.7	
523.77	9024.7	
523.97	6961.7	
524.17	11109	
524.36	10249	
524.56	8592.6	
524.76	8062.9	
524.95	9326.4	
525.15	8878.6	
525.34	7823.2	
525.54	7828.7	
525.74	9639.1	
525.93	8667.7	
526.13	8923.7	
526.33	7761.1	
526.52	10033	
526.72	9465	
526.91	9058.8	
527.11	8232.2	
527.31	10087	
527.5	10533	
527.7	8262.9	
527.89	7268.2	
528.09	8906.6	
528.29	9491.7	
528.48	8604.2	
528.68	8312.7	
528.87	9867.8	
529.07	9906.7	
529.27	8204.2	
529.46	7608.2	
529.66	9448	
529.85	9930.6	
530.05	7454.6	
530.25	8229.4	
530.44	10973	
530.64	9445.9	
530.83	7935.9	
531.03	8237.6	
531.23	9866.4	
531.42	9771.5	
531.62	8959.9	
531.81	8176.2	
532.01	10084	
532.21	10546	
532.4	7998.7	
532.6	8289.5	
532.79	10836	
532.99	10219	
533.18	8286.1	
533.38	9409.1	
533.58	9738.8	
533.77	10533	
533.97	8216.5	
534.16	9125.7	
534.36	10781	
534.55	9698.5	
534.75	9295	
534.95	8406.9	
535.14	10660	
535.34	9871.2	
535.53	7965.2	
535.73	10075	
535.92	11157	
536.12	9972.9	
536.31	8183	
536.51	9319.6	
536.71	10303	
536.9	9753.1	
537.1	8239.7	
537.29	8501.8	
537.49	10692	
537.68	9691	
537.88	8872.5	
538.07	8133.2	
538.27	9981.8	
538.46	11030	
538.66	7987.1	
538.86	8470.4	
539.05	10008	
539.25	10401	
539.44	8729.1	
539.64	8301.8	
539.83	9852.8	
540.03	10886	
540.22	8228.1	
540.42	8241	
540.61	10146	
540.81	10218	
541	8731.2	
541.2	9331.2	
541.39	9674.6	
541.59	10019	
541.78	9029.5	
541.98	8128.4	
542.18	9296.4	
542.37	9258.2	
542.57	8478.6	
542.76	8990.6	
542.96	9286.2	
543.15	10003	
543.35	8404.9	
543.54	7796.6	
543.74	10381	
543.93	9835.7	
544.13	8454.7	
544.32	9513.5	
544.52	10198	
544.71	9298.5	
544.91	7509.9	
545.1	8748.9	
545.3	9426.8	
545.49	10144	
545.69	7485.3	
545.88	8127	
546.08	11089	
546.27	10638	
546.47	8479.3	
546.66	7867.6	
546.86	10301	
547.05	10959	
547.24	8117.5	
547.44	8009.6	
547.63	9263.6	
547.83	10387	
548.02	8294.3	
548.22	8596	
548.41	9077.3	
548.61	10394	
548.8	7916.8	
549	7829.4	
549.19	9665	
549.39	10004	
549.58	7604.8	
549.78	8151.6	
549.97	10135	
550.17	9604.3	
550.36	9067	
550.55	10062	
550.75	9597.5	
550.94	10535	
551.14	7740.6	
551.33	8221.2	
551.53	8994	
551.72	9916.3	
551.92	8348.9	
552.11	7866.9	
552.31	9983.8	
552.5	10027	
552.69	9717.6	
552.89	7629.4	
553.08	9964.1	
553.28	9698.5	
553.47	7997.3	
553.67	9238.4	
553.86	10607	
554.06	8870.4	
554.25	7297.6	
554.44	7815	
554.64	11316	
554.83	10782	
555.03	7771.4	
555.22	8129.8	
555.42	10137	
555.61	9841.9	
555.8	8075.8	
556	8258.1	
556.19	8973.5	
556.39	10297	
556.58	8024.6	
556.78	8039	
556.97	9678	
557.16	9358.5	
557.36	9229.5	
557.55	7697.6	
557.75	8698.4	
557.94	10482	
558.13	7748.1	
558.33	7508.5	
558.52	10309	
558.72	9174.9	
558.91	7556.3	
559.1	7850.5	
559.3	8834.3	
559.49	8543.4	
559.69	7195.2	
559.88	8165.9	
560.07	9623.4	
560.27	10075	
560.46	8295.6	
560.66	8539.3	
560.85	9494.4	
561.04	8677.9	
561.24	7589.8	
561.43	7712	
561.63	8867.7	
561.82	9155.1	
562.01	9052	
562.21	8004.8	
562.4	9592.7	
562.59	10611	
562.79	7935.2	
562.98	7519.5	
563.18	9519	
563.37	11096	
563.56	8357.1	
563.76	7397.9	
563.95	9069.1	
564.14	8998.8	
564.34	7869.7	
564.53	7630.7	
564.73	9531.2	
564.92	9835.7	
565.11	8053.3	
565.31	7395.2	
565.5	10076	
565.69	8985.1	
565.89	7581.6	
566.08	7864.2	
566.27	9827.5	
566.47	10316	
566.66	8474.5	
566.85	7105.8	
567.05	9497.8	
567.24	8956.4	
567.44	7477.8	
567.63	8808.3	
567.82	9716.9	
568.02	9527.8	
568.21	7464.2	
568.4	7838.3	
568.6	9303.9	
568.79	9345.6	
568.98	7244.3	
569.18	7451.2	
569.37	9234.3	
569.56	11331	
569.76	7817.8	
569.95	8740.7	
570.14	9639.1	
570.34	9490.3	
570.53	7225.9	
570.72	7217	
570.91	10086	
571.11	9106.6	
571.3	7621.9	
571.49	8595.3	
571.69	9196.1	
571.88	8638.3	
572.07	8260.1	
572.27	8178.9	
572.46	8702.5	
572.65	9828.9	
572.85	7465.5	
573.04	7767.9	
573.23	9949	
573.43	9215.2	
573.62	7182.2	
573.81	7859.4	
574	9226.8	
574.2	9031.5	
574.39	7494.9	
574.58	7706.5	
574.78	10150	
574.97	9235.7	
575.16	7962.5	
575.36	8281.3	
575.55	9660.3	
575.74	9850	
575.93	7078.5	
576.13	8216.5	
576.32	9004.2	
576.51	9660.3	
576.71	7567.9	
576.9	8883.4	
577.09	10033	
577.28	9525.8	
577.48	8089.5	
577.67	7012.2	
577.86	9179	
578.05	9362.6	
578.25	7720.8	
578.44	7800	
578.63	9290.3	
578.83	10348	
579.02	7118.1	
579.21	8717.5	
579.4	9485.5	
579.6	9134.6	
579.79	7932.5	
579.98	10060	
580.17	9729.9	
580.37	9846	
580.56	7253.9	
580.75	8151.6	
580.94	10348	
581.14	10259	
581.33	8578.9	
581.52	7526.3	
581.71	9729.2	
581.91	10336	
582.1	7230	
582.29	7819.1	
582.48	9385.2	
582.68	9289.6	
582.87	8368	
583.06	7888.1	
583.25	9604.3	
583.45	9487.6	
583.64	8613.8	
583.83	9370.1	
584.02	9123	
584.21	9626.8	
584.41	8541.4	
584.6	7968.6	
584.79	9388.6	
584.98	10080	
585.18	7345.4	
585.37	7413	
585.56	8860.9	
585.75	9783.8	
585.94	7522.2	
586.14	8190.5	
586.33	10247	
586.52	9278	
586.71	8063.5	
586.91	7717.4	
587.1	8722.3	
587.29	9708.7	
587.48	7537.9	
587.67	7502.4	
587.87	9523.1	
588.06	9554.5	
588.25	8811	
588.44	8054.7	
588.63	9057.5	
588.83	9697.8	
589.02	7305.1	
589.21	7166.5	
589.4	8714.1	
589.59	8499.8	
589.78	6349.4	
589.98	6531.7	
590.17	8041.7	
590.36	8661.5	
590.55	5967.8	
590.74	6760.3	
590.94	9929.9	
591.13	8484.7	
591.32	6531	
591.51	6095.4	
591.7	8882	
591.89	8316.8	
592.09	6264.1	
592.28	6668.2	
592.47	7635.5	
592.66	9501.9	
592.85	6213.5	
593.05	6482.5	
593.24	8247.9	
593.43	9136	
593.62	6480.5	
593.81	7006.8	
594	8364.6	
594.19	8497.7	
594.39	6510.5	
594.58	6543.3	
594.77	8739.4	
594.96	9200.2	
595.15	6448.4	
595.34	7043	
595.54	8713.4	
595.73	7817.1	
595.92	5784.8	
596.11	6920.1	
596.3	9118.9	
596.49	7935.2	
596.68	6689.3	
596.88	7202	
597.07	8975.6	
597.26	7794.6	
597.45	6318.7	
597.64	7543.4	
597.83	8043.1	
598.02	8733.2	
598.22	6417.7	
598.41	7073	
598.6	8545.5	
598.79	7976.2	
598.98	6482.5	
599.17	7464.8	
599.36	8579.6	
599.55	9760.6	
599.74	8600.1	
599.94	8306.6	
600.13	9084.8	
600.32	7921.5	
600.51	6320	
600.7	6452.5	
600.89	9757.2	
601.08	9878	
601.27	6283.9	
601.47	7344.7	
601.66	9124.4	
601.85	9729.9	
602.04	7045	
602.23	7208.2	
602.42	8221.9	
602.61	8864.3	
602.8	6877.1	
602.99	6763.8	
603.18	8477.9	
603.37	8842.4	
603.57	7322.9	
603.76	7899.7	
603.95	9537.4	
604.14	9105.3	
604.33	6844.3	
604.52	7154.9	
604.71	8927.1	
604.9	8570.1	
605.09	7761.1	
605.28	7586.4	
605.47	9386.5	
605.66	9078	
605.86	7374.7	
606.05	6744.6	
606.24	9398.8	
606.43	8027.4	
606.62	7107.8	
606.81	7958.4	
607	9264.3	
607.19	8604.9	
607.38	6580.8	
607.57	6842.9	
607.76	8320.2	
607.95	7800.7	
608.14	7221.8	
608.33	7816.4	
608.52	8361.9	
608.72	9177.6	
608.91	6425.8	
609.1	6407.4	
609.29	8444.5	
609.48	7889.5	
609.67	7421.8	
609.86	6402.6	
610.05	8038.3	
610.24	8335.9	
610.43	6264.7	
610.62	5886.5	
610.81	9488.2	
611	9250	
611.19	6412.9	
611.38	7152.2	
611.57	8657.4	
611.76	9888.3	
611.95	6195.8	
612.14	6042.2	
612.33	8457.4	
612.52	8027.4	
612.71	6735.1	
612.9	5934.3	
613.09	7533.1	
613.28	9898.5	
613.47	6411.5	
613.66	7435.5	
613.85	8555.7	
614.04	8131.8	
614.24	6606.1	
614.43	5773.9	
614.62	8624.7	
614.81	8604.9	
615	7154.9	
615.19	7135.8	
615.38	7945.4	
615.57	8368	
615.76	6989	
615.95	7938.6	
616.14	8722.3	
616.33	8344.8	
616.52	7324.2	
616.71	7543.4	
616.9	8611	
617.09	8517.5	
617.28	6657.9	
617.47	7948.8	
617.66	7755	
617.85	7886.7	
618.04	7573.4	
618.22	6964.5	
618.41	8060.8	
618.6	9045.9	
618.79	6776	
618.98	6571.2	
619.17	9286.9	
619.36	7654.6	
619.55	6720.1	
619.74	6694.8	
619.93	8554.4	
620.12	7996.6	
620.31	7288	
620.5	7453.9	
620.69	9182.4	
620.88	9544.2	
621.07	8144.8	
621.26	7127.6	
621.45	8806.3	
621.64	8770.8	
621.83	7324.2	
622.02	6537.8	
622.21	8790.6	
622.4	8529.1	
622.59	7864.9	
622.78	7576.8	
622.97	8101.8	
623.16	9235.7	
623.35	7256	
623.54	6369.2	
623.72	8400.1	
623.91	8507.9	
624.1	7458	
624.29	6130.9	
624.48	9617.3	
624.67	8675.2	
624.86	7330.4	
625.05	6410.8	
625.24	9554.5	
625.43	7952.3	
625.62	9040.4	
625.81	6561	
626	8968.1	
626.19	8247.9	
626.38	7264.1	
626.56	6747.4	
626.75	8058.1	
626.94	8749.6	
627.13	7288	
627.32	5995.1	
627.51	8698.4	
627.7	9990.7	
627.89	6094.8	
628.08	7256.6	
628.27	7876.5	
628.46	8052.6	
628.65	6466.1	
628.83	6034.7	
629.02	8665.6	
629.21	7877.9	
629.4	6905.1	
629.59	7049.8	
629.78	7864.9	
629.97	8829.5	
630.16	7090.1	
630.35	6569.2	
630.54	9336.7	
630.72	9012.4	
630.91	6609.5	
631.1	7104.4	
631.29	8468.4	
631.48	8632.9	
631.67	7219.8	
631.86	6715.3	
632.05	8069	
632.24	8148.9	
632.42	6314.6	
632.61	6921.5	
632.8	8275.2	
632.99	7832.8	
633.18	6980.8	
633.37	7426.6	
633.56	8527.7	
633.75	8367.3	
633.93	6947.4	
634.12	6619.7	
634.31	9275.3	
634.5	8964.6	
634.69	6669.6	
634.88	7152.9	
635.07	8155	
635.25	8798.8	
635.44	7679.2	
635.63	7820.5	
635.82	8105.2	
636.01	7656	
636.2	7571.3	
636.39	6961.7	
636.57	9256.1	
636.76	8956.4	
636.95	6549.4	
637.14	8006.9	
637.33	8619.2	
637.52	9487.6	
637.7	6361.7	
637.89	7200.7	
638.08	8155.7	
638.27	9592	
638.46	7377.5	
638.65	7787.7	
638.83	9611.1	
639.02	7915.4	
639.21	7172	
639.4	7783	
639.59	8501.1	
639.78	7961.8	
639.96	6442.9	
640.15	6496.2	
640.34	8318.8	
640.53	8454.7	
640.72	6240.2	
640.91	6523.5	
641.09	7705.1	
641.28	9123.7	
641.47	6815.6	
641.66	7366.5	
641.85	8371.4	
642.03	8689.5	
642.22	7105.8	
642.41	6589	
642.6	7752.2	
642.79	7241.6	
642.97	6373.3	
643.16	7083.2	
643.35	7739.3	
643.54	7560.4	
643.73	6290.7	
643.91	7000.6	
644.1	7464.2	
644.29	7998	
644.48	6319.3	
644.67	6347.3	
644.85	7556.3	
645.04	7886	
645.23	5847.6	
645.42	6111.8	
645.6	7395.2	
645.79	8584.4	
645.98	6085.2	
646.17	5158.8	
646.36	6981.5	
646.54	7697.6	
646.73	6825.9	
646.92	5634.6	
647.11	7207.5	
647.29	8276.5	
647.48	5711.8	
647.67	5468.1	
647.86	8488.8	
648.05	8558.5	
648.23	6160.3	
648.42	7421.2	
648.61	7929.1	
648.8	7669.6	
648.98	5801.9	
649.17	6146	
649.36	7248.4	
649.55	6826.6	
649.73	5776.6	
649.92	6559.6	
650.11	7165.2	
650.3	7566.6	
650.48	5954.1	
650.67	5776.6	
650.86	7836.9	
651.05	6669.6	
651.23	5864.7	
651.42	5758.9	
651.61	7206.1	
651.79	7428.7	
651.98	6046.3	
652.17	5709.7	
652.36	7764.5	
652.54	6860	
652.73	5754.1	
652.92	5596.4	
653.11	7819.1	
653.29	7806.2	
653.48	5107	
653.67	5978	
653.85	7475.8	
654.04	8531.2	
654.23	6249.7	
654.42	5791	
654.6	7043.6	
654.79	7666.9	
654.98	5255.8	
655.16	5777.3	
655.35	6580.1	
655.54	6694.8	
655.73	5367	
655.91	5322	
656.1	7797.3	
656.29	6620.4	
656.47	4867.3	
656.66	6633.4	
656.85	6881.9	
657.03	6856.6	
657.22	5528.8	
657.41	5586.2	
657.59	7057.3	
657.78	6822.5	
657.97	5165	
658.16	5979.4	
658.34	7744.1	
658.53	8036.9	
658.72	6789	
658.9	7346.1	
659.09	7010.9	
659.28	7225.9	
659.46	5596.4	
659.65	5651	
659.84	6991.8	
660.02	7496.2	
660.21	5498.8	
660.4	5507	
660.58	7905.8	
660.77	7264.1	
660.96	6106.4	
661.14	5126.7	
661.33	8469.7	
661.52	8332.5	
661.7	5029.8	
661.89	8797.4	
662.08	6879.1	
662.26	6500.3	
662.45	5387.5	
662.64	5531.6	
662.82	7644.4	
663.01	6829.3	
663.2	5489.2	
663.38	6259.3	
663.57	7510.6	
663.75	7387	
663.94	5837.4	
664.13	7090.8	
664.31	6801.3	
664.5	7605.5	
664.69	5904.3	
664.87	6637.5	
665.06	6651.1	
665.25	7268.2	
665.43	6890	
665.62	6932.4	
665.8	7710.6	
665.99	6990.4	
666.18	5812.1	
666.36	5957.5	
666.55	7642.3	
666.74	7528.3	
666.92	5461.2	
667.11	7062.1	
667.29	7014.3	
667.48	7604.8	
667.67	6680.5	
667.85	5854.5	
668.04	7040.9	
668.22	7020.4	
668.41	5873.6	
668.6	6107	
668.78	6744	
668.97	7077.1	
669.15	6201.9	
669.34	5245.5	
669.53	6830.7	
669.71	7164.5	
669.9	5382.7	
670.08	5983.5	
670.27	6847	
670.46	7413	
670.64	6223.1	
670.83	6472.9	
671.01	6730.3	
671.2	7352.2	
671.38	5459.2	
671.57	5323.4	
671.76	7959.8	
671.94	8527.7	
672.13	5335.6	
672.31	6365.1	
672.5	7510.6	
672.69	6836.8	
672.87	5479.7	
673.06	5749.3	
673.24	7312.6	
673.43	6785.6	
673.61	6152.8	
673.8	5711.1	
673.98	7595.9	
674.17	7767.9	
674.36	6309.1	
674.54	6158.9	
674.73	7303.7	
674.91	7529.7	
675.1	5877.7	
675.28	5562.3	
675.47	7083.2	
675.65	7601.4	
675.84	5712.5	
676.03	6034	
676.21	6783.6	
676.4	6382.2	
676.58	6541.2	
676.77	6253.8	
676.95	8239.7	
677.14	6817.7	
677.32	5391.6	
677.51	5177.3	
677.69	7572.7	
677.88	6492.7	
678.06	5240.1	
678.25	5428.5	
678.44	7091.4	
678.62	6754.9	
678.81	5096	
678.99	6126.2	
679.18	7890.1	
679.36	7393.2	
679.55	5726.8	
679.73	6266.1	
679.92	7435.5	
680.1	6859.3	
680.29	6916	
680.47	5730.2	
680.66	6804.7	
680.84	7634.8	
681.03	4952.7	
681.21	6028.5	
681.4	6778.1	
681.58	6759.7	
681.77	5421.7	
681.95	5345.2	
682.14	7673.1	
682.32	7978.2	
682.51	6342.6	
682.69	5212.1	
682.88	6666.8	
683.06	7413	
683.25	6106.4	
683.43	6535.1	
683.62	6999.3	
683.8	7382.2	
683.99	6588.3	
684.17	5812.8	
684.36	8181	
684.54	6836.8	
684.73	4984.1	
684.91	5190.9	
685.1	7172	
685.28	6552.8	
685.46	5735	
685.65	5796.4	
685.83	7345.4	
686.02	6655.9	
686.2	5160.2	
686.39	5326.8	
686.57	6353.5	
686.76	7966.6	
686.94	5269.4	
687.13	5395.7	
687.31	7266.2	
687.5	6737.1	
687.68	4871.4	
687.86	6154.1	
688.05	8434.2	
688.23	6206	
688.42	6142.5	
688.6	5281.7	
688.79	6673	
688.97	6648.4	
689.16	5677	
689.34	4644.1	
689.52	7372	
689.71	7586.4	
689.89	6056.5	
690.08	5317.2	
690.26	6894.1	
690.45	6765.8	
690.63	6108.4	
690.81	5380.7	
691	6541.2	
691.18	6467.5	
691.37	5503.6	
691.55	7700.4	
691.74	6463.4	
691.92	8576.9	
692.1	5558.9	
692.29	4975.9	
692.47	6732.4	
692.66	6030.6	
692.84	5155.4	
693.02	5866.1	
693.21	6179.4	
693.39	6738.5	
693.58	5932.3	
693.76	5309.7	
693.94	7931.8	
694.13	7694.9	
694.31	5322.7	
694.5	6472.3	
694.68	6620.4	
694.86	6991.1	
695.05	5760.3	
695.23	5836.7	
695.42	7446.4	
695.6	9753.1	
695.78	6423.8	
695.97	5550.7	
696.15	7426.6	
696.34	6746	
696.52	5260.5	
696.7	6155.5	
696.89	7154.2	
697.07	6554.9	
697.25	5949.3	
697.44	7515.4	
697.62	7067.5	
697.81	7492.2	
697.99	5656.5	
698.17	6135	
698.36	6404	
698.54	7083.2	
698.72	5986.2	
698.91	4994.3	
699.09	6693.4	
699.28	6552.1	
699.46	5612.1	
699.64	5587.5	
699.83	6528.9	
700.01	7763.8	
700.19	6385.6	
700.38	4844.8	
700.56	7835.5	
700.74	6682.5	
700.93	5299.5	
701.11	6176	
701.29	7411.6	
701.48	8424.7	
701.66	5582.8	
701.84	5557.5	
702.03	6941.9	
702.21	7615.7	
702.39	5184.8	
702.58	5807.4	
702.76	7385	
702.94	7426.6	
703.13	5208.7	
703.31	7582.3	
703.49	6695.5	
703.68	7637.6	
703.86	5394.3	
704.04	6363.7	
704.23	7179.5	
704.41	7611.6	
704.59	5561.6	
704.78	6846.4	
704.96	8376.2	
705.14	7736.5	
705.33	5346.6	
705.51	6128.9	
705.69	7109.9	
705.87	7947.5	
706.06	6511.2	
706.24	5376.6	
706.42	7502.4	
706.61	7754.3	
706.79	6673	
706.97	5487.2	
707.16	6991.1	
707.34	7563.1	
707.52	6565.8	
707.7	5754.8	
707.89	7059.3	
708.07	6833.4	
708.25	6624.5	
708.44	6756.2	
708.62	7115.3	
708.8	8249.9	
708.98	7015	
709.17	5910.4	
709.35	7580.2	
709.53	7563.1	
709.72	5566.4	
709.9	5787.6	
710.08	7828	
710.26	7803.4	
710.45	7192.5	
710.63	6023.8	
710.81	7518.1	
710.99	7524.9	
711.18	6619	
711.36	6026.5	
711.54	7296.2	
711.72	8023.9	
711.91	6131.6	
712.09	5466	
712.27	7852.6	
712.45	7989.1	
712.64	6341.2	
712.82	5260.5	
713	6716.7	
713.18	6874.3	
713.37	5337	
713.55	6472.9	
713.73	7656.7	
713.91	6202.6	
714.1	5576.6	
714.28	4968.4	
714.46	7189.7	
714.64	6272.9	
714.83	4377.2	
715.01	5169.8	
715.19	6425.8	
715.37	5793.7	
715.55	4830.5	
715.74	5196.4	
715.92	7339.2	
716.1	5330.9	
716.28	6395.1	
716.47	5322	
716.65	6000.5	
716.83	6153.5	
717.01	5158.8	
717.19	5252.4	
717.38	8245.8	
717.56	5898.2	
717.74	5608.7	
717.92	4672.1	
718.1	7196.6	
718.29	6424.5	
718.47	4431.8	
718.65	5089.2	
718.83	7141.3	
719.01	7062.8	
719.2	4313.7	
719.38	5440.8	
719.56	6769.2	
719.74	8376.2	
719.92	4995	
720.11	6033.3	
720.29	6849.8	
720.47	5889.3	
720.65	4441.4	
720.83	5340.4	
721.02	6194.4	
721.2	5910.4	
721.38	5399.1	
721.56	4562.2	
721.74	5478.3	
721.92	5696.8	
722.11	5937.7	
722.29	5567.7	
722.47	6903.7	
722.65	6098.9	
722.83	4657.8	
723.01	5572.5	
723.2	6236.7	
723.38	6561.7	
723.56	4078.2	
723.74	5317.9	
723.92	5696.8	
724.1	6842.9	
724.29	4691.2	
724.47	5825.1	
724.65	5852.4	
724.83	5741.1	
725.01	4567	
725.19	5464	
725.37	5932.3	
725.56	5883.8	
725.74	4447.5	
725.92	4683.7	
726.1	5783.5	
726.28	6077.7	
726.46	5145.9	
726.64	4864.6	
726.83	6037.4	
727.01	6352.8	
727.19	4429.1	
727.37	5276.9	
727.55	6169.2	
727.73	6744	
727.91	4387.4	
728.09	4320.5	
728.28	6787	
728.46	7422.5	
728.64	5588.9	
728.82	5507.7	
729	8082	
729.18	7225.9	
729.36	4764.3	
729.54	7124.2	
729.72	8395.3	
729.91	6670.2	
730.09	6787	
730.27	5522.7	
730.45	6570.6	
730.63	7292.8	
730.81	6137.1	
730.99	5261.9	
731.17	7794.6	
731.35	6376	
731.53	5858.6	
731.71	5451.7	
731.9	7486.7	
732.08	7703.1	
732.26	5608.7	
732.44	5258.5	
732.62	7712.7	
732.8	7234.8	
732.98	6017.6	
733.16	5081	
733.34	7230.7	
733.52	6031.3	
733.7	5600.5	
733.88	5941.2	
734.07	7126.9	
734.25	6909.8	
734.43	5118.6	
734.61	6684.6	
734.79	8422.6	
734.97	6761.7	
735.15	5271.5	
735.33	5658.5	
735.51	7204.8	
735.69	6862.1	
735.87	6816.3	
736.05	5914.5	
736.23	7098.3	
736.41	6835.4	
736.59	5771.2	
736.77	5995.8	
736.95	7568.6	
737.13	7049.8	
737.32	5507	
737.5	5727.5	
737.68	8159.1	
737.86	6926.9	
738.04	5316.5	
738.22	7185.6	
738.4	6760.3	
738.58	7032.7	
738.76	5997.8	
738.94	4903.5	
739.12	6920.1	
739.3	6838.2	
739.48	6713.2	
739.66	6359.6	
739.84	7309.2	
740.02	7217	
740.2	5026.4	
740.38	5487.2	
740.56	7605.5	
740.74	6449.1	
740.92	6152.8	
741.1	6113.9	
741.28	7019.8	
741.46	6920.1	
741.64	5613.5	
741.82	6214.2	
742	7111.2	
742.18	7054.6	
742.36	5951.4	
742.54	5509.7	
742.72	7705.1	
742.9	6391.7	
743.08	6326.9	
743.26	4999.1	
743.44	7836.9	
743.62	7679.9	
743.8	6497.5	
743.98	5554.8	
744.16	7422.5	
744.34	7089.4	
744.52	6338.5	
744.7	6247	
744.88	7493.5	
745.06	7053.9	
745.24	6335	
745.42	6442.2	
745.6	7564.5	
745.78	7393.8	
745.96	5189.6	
746.14	5483.1	
746.32	8407.6	
746.5	7654.6	
746.68	6052.4	
746.86	5571.8	
747.03	8025.3	
747.21	6251.8	
747.39	6115.2	
747.57	5606	
747.75	7249.1	
747.93	7580.9	
748.11	5563	
748.29	5449	
748.47	8808.3	
748.65	6858	
748.83	6221.7	
749.01	5952.1	
749.19	7441	
749.37	6595.8	
749.55	5851	
749.73	5857.9	
749.91	7104.4	
750.09	6806.8	
750.26	5974.6	
750.44	5410.1	
750.62	7169.9	
750.8	7088.7	
750.98	5244.2	
751.16	5612.8	
751.34	7171.3	
751.52	6481.1	
751.7	6399.9	
751.88	5182.7	
752.06	7656	
752.24	7454.6	
752.42	5123.3	
752.59	5465.3	
752.77	7017	
752.95	8311.3	
753.13	6315.3	
753.31	5689.3	
753.49	6744	
753.67	7197.9	
753.85	5898.8	
754.03	5473.5	
754.21	7443.7	
754.38	7730.4	
754.56	5632.6	
754.74	4530.1	
754.92	6505	
755.1	7242.3	
755.28	4431.1	
755.46	4343.1	
755.64	7608.2	
755.82	7695.6	
755.99	4411.3	
756.17	4457.7	
756.35	5036.6	
756.53	6657.9	
756.71	3279.5	
756.89	4221.5	
757.07	6144.6	
757.25	5315.8	
757.42	4894.6	
757.6	5803.3	
757.78	6353.5	
757.96	5382.7	
758.14	4601.1	
758.32	4162.2	
758.5	4863.9	
758.67	5692.7	
758.85	4374.5	
759.03	4513.7	
759.21	5875.6	
759.39	5264.6	
759.57	3988.1	
759.75	5174.5	
759.92	6593.1	
760.1	5884.5	
760.28	5572.5	
760.46	5878.4	
760.64	5672.2	
760.82	5476.3	
760.99	5452.4	
761.17	4678.2	
761.35	6567.8	
761.53	5625.8	
761.71	4860.5	
761.89	5579.3	
762.06	6580.8	
762.24	6023.1	
762.42	5004.6	
762.6	4852.3	
762.78	6149.4	
762.96	6933.1	
763.13	5571.2	
763.31	5197.7	
763.49	7089.4	
763.67	6137.1	
763.85	6064	
764.02	6649.8	
764.2	7385.7	
764.38	6485.2	
764.56	5069.4	
764.74	5995.1	
764.91	7436.9	
765.09	6341.2	
765.27	4809.3	
765.45	4599.1	
765.63	7533.8	
765.8	7378.8	
765.98	4346.5	
766.16	4691.2	
766.34	5911.8	
766.52	5614.8	
766.69	5582.8	
766.87	4443.4	
767.05	6292.7	
767.23	7053.9	
767.41	4881	
767.58	4988.9	
767.76	6865.5	
767.94	6924.2	
768.12	4883	
768.29	5655.8	
768.47	6339.8	
768.65	7118.7	
768.83	4468.7	
769	5639.4	
769.18	5890	
769.36	6639.5	
769.54	5654.4	
769.72	4473.4	
769.89	6814.3	
770.07	6978.1	
770.25	4839.4	
770.43	6107	
770.6	7598	
770.78	8101.1	
770.96	5048.2	
771.14	5542.5	
771.31	6804	
771.49	6054.5	
771.67	4121.2	
771.85	4364.2	
772.02	5270.8	
772.2	6075	
772.38	5148.6	
772.55	4570.4	
772.73	6348	
772.91	6114.6	
773.09	4985.4	
773.26	5065.3	
773.44	6245.6	
773.62	5983.5	
773.8	4462.5	
773.97	4165.6	
774.15	6339.8	
774.33	5914.5	
774.5	4367.6	
774.68	4715.1	
774.86	6505	
775.04	5915.2	
775.21	4410	
775.39	4332.1	
775.57	6174.6	
775.74	6567.8	
775.92	4258.4	
776.1	4108.9	
776.27	6156.2	
776.45	7449.1	
776.63	4329.4	
776.81	3900.7	
776.98	5807.4	
777.16	6954.2	
777.34	4523.3	
777.51	4489.8	
777.69	5668.8	
777.87	5542.5	
778.04	4523.3	
778.22	5131.5	
778.4	5558.2	
778.57	6173.3	
778.75	3751.9	
778.93	4076.8	
779.1	5296	
779.28	5193	
779.46	3775.8	
779.64	4209.3	
779.81	6358.9	
779.99	7227.3	
780.17	5028.4	
780.34	5152.7	
780.52	5722	
780.69	5991	
780.87	4579.3	
781.05	4098	
781.22	5875.6	
781.4	5909.8	
781.58	4237.9	
781.75	3384.6	
781.93	5844.2	
782.11	5188.2	
782.28	5004.6	
782.46	4177.9	
782.64	5018.9	
782.81	6081.8	
782.99	4328	
783.17	4287.1	
783.34	5827.8	
783.52	5107	
783.69	4450.9	
783.87	5256.5	
784.05	5125.4	
784.22	5147.9	
784.4	5212.8	
784.58	4536.9	
784.75	6079.1	
784.93	5213.4	
785.1	4187.4	
785.28	4805.9	
785.46	5830.6	
785.63	5137.7	
785.81	4171	
785.99	3965.6	
786.16	5320.6	
786.34	5728.2	
786.51	4008.6	
786.69	4405.2	
786.87	4917.2	
787.04	5477.6	
787.22	3906.8	
787.39	4889.2	
787.57	5037.3	
787.75	6226.5	
787.92	5036.6	
788.1	4999.8	
788.27	5167.7	
788.45	4932.2	
788.63	4752	
788.8	3377.8	
788.98	5556.8	
789.15	4837.3	
789.33	3505.4	
789.5	4173.8	
789.68	6117.3	
789.86	6167.8	
790.03	4585.4	
790.21	4002.4	
790.38	6029.2	
790.56	5208.7	
790.73	3865.9	
790.91	3913	
791.09	5049.6	
791.26	5926.1	
791.44	4130.1	
791.61	3558.7	
791.79	5087.2	
791.96	5160.2	
792.14	3713.7	
792.32	3216.7	
792.49	5128.8	
792.67	5206.6	
792.84	3723.2	
793.02	3559.4	
793.19	5824.4	
793.37	6255.2	
793.54	3240.6	
793.72	3585.3	
793.89	6445	
794.07	5145.9	
794.25	4205.2	
794.42	3308.8	
794.6	6194.4	
794.77	5814.2	
794.95	4504.2	
795.12	3900	
795.3	5089.2	
795.47	5689.9	
795.65	4298.7	
795.82	4128.7	
796	4934.9	
796.17	6788.3	
796.35	3953.3	
796.52	4693.3	
796.7	5631.9	
796.87	5711.1	
797.05	4915.1	
797.22	4797	
797.4	5702.2	
797.57	6648.4	
797.75	4113	
797.92	3861.1	
798.1	6004.6	
798.27	5058.5	
798.45	3352.5	
798.62	3596.9	
798.8	5416.9	
798.97	5907.7	
799.15	4377.9	
799.32	4114.4	
799.5	4663.9	
799.67	5461.2	
799.85	4459.8	
800.02	3217.4	
800.2	5051.7	
800.37	5337.7	
800.55	4628.4	
800.72	3904.1	
800.9	5863.3	
801.07	6204.7	
801.25	5246.2	
801.42	4266.6	
801.6	5886.5	
801.77	5619.6	
801.95	4016.1	
802.12	3792.8	
802.29	5576.6	
802.47	5545.9	
802.64	4236.6	
802.82	3152.5	
802.99	5018.2	
803.17	6038.8	
803.34	4171	
803.52	3689.8	
803.69	6689.3	
803.87	4802.5	
804.04	4018.1	
804.21	4225.6	
804.39	6106.4	
804.56	5214.8	
804.74	3401.7	
804.91	4280.3	
805.09	5045.5	
805.26	5139.7	
805.44	3536.8	
805.61	3888.4	
805.78	5648.3	
805.96	5736.4	
806.13	4221.5	
806.31	4621.6	
806.48	4582.7	
806.66	5104.2	
806.83	4264.6	
807	4148.5	
807.18	5002.5	
807.35	5440.8	
807.53	4088.4	
807.7	3318.4	
807.87	6231.3	
808.05	5053.7	
808.22	4532.8	
808.4	3288.4	
808.57	5076.9	
808.74	4678.9	
808.92	3796.3	
809.09	4849.6	
809.27	4902.8	
809.44	5599.1	
809.61	3345	
809.79	3729.4	
809.96	6233.3	
810.14	5819	
810.31	3189.4	
810.48	3939.6	
810.66	5127.4	
810.83	5937.7	
811.01	3795.6	
811.18	4182	
811.35	5776	
811.53	4514.4	
811.7	4572.4	
811.87	4237.9	
812.05	5070.8	
812.22	4990.2	
812.39	3556	
812.57	3509.5	
812.74	5033.2	
812.92	6801.3	
813.09	3958.7	
813.26	4310.3	
813.44	6447.7	
813.61	4942.4	
813.78	3319.1	
813.96	4459.1	
814.13	5046.9	
814.3	4737.6	
814.48	4820.9	
814.65	3946.4	
814.82	6359.6	
815	4887.8	
815.17	4074.8	
815.34	5033.2	
815.52	4973.2	
815.69	5023.7	
815.87	4000.4	
816.04	3488.4	
816.21	5033.2	
816.38	4469.4	
816.56	3900	
816.73	3620.1	
816.9	6476.4	
817.08	5814.9	
817.25	3625.6	
817.42	4620.9	
817.6	4620.2	
817.77	5071.5	
817.94	4156	
818.12	3608.5	
818.29	4785.4	
818.46	7576.8	
818.64	3829.7	
818.81	3560.1	
818.98	4736.3	
819.16	6894.1	
819.33	4323.9	
819.5	4058.4	
819.67	5470.8	
819.85	6092	
820.02	3951.9	
820.19	4175.8	
820.37	5257.8	
820.54	4851	
820.71	4104.1	
820.88	5121.3	
821.06	5295.4	
821.23	4851	
821.4	4140.3	
821.58	4103.4	
821.75	5788.9	
821.92	5251.7	
822.09	3347.1	
822.27	3420.8	
822.44	5117.9	
822.61	4988.9	
822.79	3402.4	
822.96	6417	
823.13	5566.4	
823.3	4823	
823.48	3895.9	
823.65	3519.8	
823.82	5748.6	
823.99	4625	
824.17	4942.4	
824.34	3529.3	
824.51	6702.3	
824.68	5141.8	
824.86	3745.1	
825.03	4169	
825.2	5053	
825.37	6133.7	
825.55	3575.8	
825.72	4076.8	
825.89	6763.1	
826.06	6263.4	
826.24	4005.1	
826.41	3999	
826.58	6251.8	
826.75	5384.1	
826.92	3147	
827.1	3476.8	
827.27	8458.8	
827.44	6660	
827.61	3844.7	
827.79	4633.9	
827.96	4820.9	
828.13	5114.5	
828.3	3958	
828.47	3347.1	
828.65	5355.4	
828.82	5279.7	
828.99	5117.2	
829.16	4455	
829.34	5711.1	
829.51	5444.9	
829.68	4106.9	
829.85	4321.9	
830.02	5974.6	
830.2	5697.4	
830.37	3149.8	
830.54	4987.5	
830.71	6516	
830.88	5053.7	
831.05	3195.5	
831.23	3706.1	
831.4	6171.9	
831.57	6965.1	
831.74	3738.2	
831.91	3310.9	
832.09	5319.9	
832.26	5670.8	
832.43	3923.9	
832.6	4416.8	
832.77	5325.4	
832.94	6113.9	
833.12	3145.7	
833.29	3904.1	
833.46	5443.5	
833.63	7182.2	
833.8	4274.8	
833.97	3937.6	
834.15	5687.9	
834.32	5481.7	
834.49	4091.8	
834.66	4164.2	
834.83	5911.8	
835	4788.2	
835.17	3775.8	
835.35	3775.1	
835.52	5581.4	
835.69	5488.6	
835.86	3986	
836.03	3280.8	
836.2	5657.9	
836.37	5323.4	
836.55	3904.1	
836.72	3683.6	
836.89	5244.8	
837.06	5726.8	
837.23	4060.4	
837.4	4358.8	
837.57	6540.5	
837.75	7165.2	
837.92	3558	
838.09	3783.3	
838.26	5254.4	
838.43	5965.7	
838.6	4166.3	
838.77	3682.2	
838.94	6842.9	
839.11	6544.6	
839.29	3908.9	
839.46	3085.6	
839.63	5627.8	
839.8	5436.7	
839.97	3824.9	
840.14	3798.3	
840.31	5459.2	
840.48	5652.4	
840.65	3154.6	
840.82	3692.5	
841	5648.3	
841.17	5644.2	
841.34	3433.1	
841.51	3544.4	
841.68	5550.7	
841.85	5356.1	
842.02	3676.8	
842.19	2962	
842.36	5465.3	
842.53	5466.7	
842.7	3502	
842.87	4305.5	
843.05	7156.3	
843.22	5315.8	
843.39	3325.9	
843.56	3633.1	
843.73	5131.5	
843.9	5776.6	
844.07	5707	
844.24	4747.2	
844.41	8355.7	
844.58	4909.7	
844.75	3336.1	
844.92	3689.1	
845.09	5690.6	
845.26	5660.6	
845.43	3480.9	
845.6	3663.1	
845.77	5679.7	
845.94	5406.6	
846.12	3867.9	
846.29	4048.8	
846.46	5898.1	
846.63	5677.7	
846.8	3505.4	
846.97	4150.6	
847.14	6135	
847.31	5627.1	
847.48	3871.3	
847.65	4311.7	
847.82	5948.7	
847.99	5897.5	
848.16	4687.8	
848.33	4303.5	
848.5	5238	
848.67	6193.7	
848.84	3477.5	
849.01	3603.7	
849.18	5084.4	
849.35	4730.8	
849.52	4323.9	
849.69	3385.3	
849.86	5820.3	
850.03	6088.6	
850.2	3522.5	
850.37	4316.4	
850.54	6056.5	
850.71	5378	
850.88	4126.7	
851.05	3435.8	
851.22	5578	
851.39	6166.4	
851.56	3261.7	
851.73	4030.4	
851.9	4969.7	
852.07	5925.5	
852.24	3840.6	
852.41	3381.2	
852.58	5528.8	
852.75	5001.8	
852.92	3906.2	
853.09	3406.5	
853.26	5267.4	
853.43	6118	
853.6	3506.1	
853.77	2991.4	
853.94	6191	
854.11	5700.9	
854.28	5147.9	
854.44	3723.2	
854.61	6692.8	
854.78	5754.1	
854.95	3448.1	
855.12	4362.9	
855.29	4577.2	
855.46	6441.5	
855.63	3450.8	
855.8	4773.1	
855.97	5245.5	
856.14	6044.9	
856.31	4902.2	
856.48	3790.1	
856.65	5184.8	
856.82	4900.8	
856.99	3362.8	
857.16	3762.8	
857.33	6868.2	
857.49	5326.1	
857.66	3740.3	
857.83	4005.8	
858	5304.2	
858.17	5395.7	
858.34	3274	
858.51	3479.5	
858.68	6367.1	
858.85	6436.1	
859.02	4002.4	
859.19	4308.2	
859.36	4967	
859.52	5014.1	
859.69	3485.6	
859.86	4155.3	
860.03	5047.6	
860.2	6214.2	
860.37	3162.1	
860.54	3496.6	
860.71	5832.6	
860.88	6300.2	
861.05	3960.1	
861.21	4378.6	
861.38	6333.7	
861.55	4786.8	
861.72	3119.7	
861.89	3895.2	
862.06	5946.6	
862.23	6438.8	
862.4	3394.2	
862.56	3650.2	
862.73	5741.1	
862.9	5447.6	
863.07	4006.5	
863.24	3114.3	
863.41	4877.6	
863.58	4962.2	
863.75	3545.7	
863.91	3957.4	
864.08	6246.3	
864.25	5846.3	
864.42	4359.4	
864.59	4891.2	
864.76	6578.8	
864.93	4988.9	
865.09	3411.2	
865.26	3732.8	
865.43	6165.8	
865.6	6581.5	
865.77	2991.4	
865.94	3439.2	
866.1	6209.4	
866.27	5931.6	
866.44	5227.1	
866.61	3282.9	
866.78	5347.2	
866.95	5803.9	
867.11	3347.1	
867.28	3111.5	
867.45	6047.7	
867.62	5008.6	
867.79	4030.4	
867.96	3457	
868.12	4949.3	
868.29	5954.1	
868.46	3536.2	
868.63	4693.3	
868.8	6089.3	
868.97	5860.6	
869.13	3636.5	
869.3	3714.3	
869.47	5790.3	
869.64	6007.4	
869.81	3493.8	
869.97	3462.4	
870.14	5686.5	
870.31	6283.2	
870.48	3401	
870.65	4386.1	
870.81	5319.3	
870.98	5259.9	
871.15	3992.9	
871.32	3641.3	
871.48	5754.8	
871.65	6447	
871.82	3455.6	
871.99	3818.1	
872.16	6798.6	
872.32	6143.9	
872.49	3489.1	
872.66	3527.3	
872.83	5867.4	
872.99	5160.9	
873.16	4012.7	
873.33	3424.9	
873.5	5524.7	
873.67	5481.7	
873.83	3684.3	
874	4657.8	
874.17	5678.3	
874.34	6721.4	
874.5	4500.1	
874.67	4418.2	
874.84	6277	
875.01	4964.3	
875.17	4932.9	
875.34	3449.5	
875.51	5585.5	
875.68	6735.8	
875.84	4214.7	
876.01	5134.9	
876.18	5857.9	
876.34	5759.6	
876.51	3506.1	
876.68	3387.3	
876.85	5312.4	
877.01	6098.2	
877.18	4932.9	
877.35	3426.9	
877.52	5483.8	
877.68	4888.5	
877.85	3394.2	
878.02	3430.3	
878.18	5408.7	
878.35	5113.1	
878.52	2777.7	
878.69	3917.8	
878.85	5893.4	
879.02	5803.3	
879.19	4946.5	
879.35	3787.4	
879.52	5780.7	
879.69	6005.3	
879.86	2995.5	
880.02	3922.5	
880.19	5433.3	
880.36	6619	
880.52	3996.3	
880.69	4072	
880.86	5929.6	
881.02	5957.5	
881.19	3796.3	
881.36	3779.9	
881.52	5823.1	
881.69	5117.2	
881.86	3831.7	
882.02	3628.3	
882.19	6133.7	
882.36	7182.9	
882.52	3605.8	
882.69	4874.2	
882.86	5646.2	
883.02	5578	
883.19	4230.4	
883.36	4005.8	
883.52	5952.8	
883.69	6802	
883.86	3570.3	
884.02	3131.3	
884.19	5908.4	
884.36	5470.8	
884.52	3964.2	
884.69	3694.5	
884.86	5141.1	
885.02	6535.1	
885.19	3921.9	
885.36	4050.9	
885.52	5458.5	
885.69	5693.4	
885.86	5044.1	
886.02	4507.6	
886.19	5877.7	
886.35	5431.2	
886.52	3805.8	
886.69	4861.2	
886.85	5051	
887.02	6226.5	
887.19	6226.5	
887.35	6226.5	
887.52	6226.5	
887.68	6226.5	
887.85	6226.5	
888.02	6226.5	
888.18	6226.5	
888.35	6226.5	
888.51	6226.5	
888.68	6226.5	
888.85	6226.5	
889.01	6226.5	
889.18	6226.5	
889.35	6226.5	
889.51	6226.5	
889.68	6226.5	
889.84	6226.5	
890.01	6226.5	
890.17	6226.5	
890.34	6226.5	
890.51	6226.5	
890.67	6226.5	
890.84	6226.5	
891	6226.5	
891.17	6226.5	
891.34	6226.5	
891.5	6226.5	
891.67	6226.5	
891.83	6226.5	
892	6226.5	
892.16	6226.5	
892.33	6226.5	
892.5	6226.5	
892.66	6226.5	
892.83	6226.5	
892.99	6226.5	
893.16	6226.5	
893.32	6226.5	
893.49	6226.5	
893.65	6226.5	
893.82	6226.5	
893.99	6226.5	
894.15	6226.5	
894.32	6226.5	
894.48	6226.5	
894.65	6226.5	
894.81	6226.5	
894.98	6226.5	
895.14	6226.5	
895.31	6226.5	
895.47	6226.5	
895.64	6226.5	
895.81	6226.5	
895.97	6226.5	
896.14	6226.5	
896.3	6226.5	
896.47	6226.5	
896.63	6226.5	
896.8	6226.5	
896.96	6226.5	
897.13	6226.5	
897.29	6226.5	
897.46	6226.5	
897.62	6226.5	
897.79	6226.5	
897.95	6226.5	
898.12	6226.5	
898.28	6226.5	
898.45	6226.5	
898.61	6226.5	
898.78	6226.5	
898.94	6226.5	
899.11	6226.5	
899.27	6226.5	
899.44	6226.5	
899.6	6226.5	
899.77	6226.5	
899.93	6226.5	
900.1	6226.5	
900.26	6226.5	
900.43	6226.5	
900.59	6226.5	
900.76	6226.5	
900.92	6226.5	
901.09	6226.5	
901.25	6226.5	
901.42	6226.5	
901.58	6226.5	
901.75	6226.5	
901.91	6226.5	
902.07	6226.5	
902.24	6226.5	
902.4	6226.5	
902.57	6226.5	
902.73	6226.5	
902.9	6226.5	
903.06	6226.5	
903.23	6226.5	
903.39	6226.5	
903.56	6226.5	
903.72	6226.5	
903.88	6226.5	
904.05	6226.5	
904.21	6226.5	
904.38	6226.5	
904.54	6226.5	
904.71	6226.5	
904.87	6226.5	
905.03	6226.5	
905.2	6226.5	
905.36	6226.5	
905.53	6226.5	
905.69	6226.5	
905.86	6226.5	
906.02	6226.5	
906.18	6226.5	
906.35	6226.5	
906.51	6226.5	
906.68	6226.5	
906.84	6226.5	
907.01	6226.5	
907.17	6226.5	
907.33	6226.5	
907.5	6226.5	
907.66	6226.5	
907.83	6226.5	
907.99	6226.5	
908.15	6226.5	
908.32	6226.5	
908.48	6226.5	
908.65	6226.5	
908.81	6226.5	
908.97	6226.5	
909.14	6226.5	
909.3	6226.5	
909.47	6226.5	
909.63	6226.5	
909.79	6226.5	
909.96	6226.5	
910.12	6226.5	
910.28	6226.5	
910.45	6226.5	
910.61	6226.5	
910.78	6226.5	
910.94	6226.5	
911.1	6226.5	
911.27	6226.5	
911.43	6226.5	
911.59	6226.5	
911.76	6226.5	
911.92	6226.5	
912.08	6226.5	
912.25	6226.5	
912.41	6226.5	
912.57	6226.5	
912.74	6226.5	
912.9	6226.5	
913.07	6226.5	
913.23	6226.5	
913.39	6226.5	
913.56	6226.5	
913.72	6226.5	
913.88	6226.5	
914.05	6226.5	
914.21	6226.5	
914.37	6226.5	
914.54	6226.5	
914.7	6226.5	
914.86	6226.5	
915.03	6226.5	
915.19	6226.5	
