Wavelength	Intensities	
nm	a.u.	
179.22	1508.5	
179.44	1506.3	
179.65	1510.7	
179.86	1501.8	
180.08	1488.9	
180.29	3201.7	
180.51	2643.2	
180.72	4513.7	
180.94	4820.2	
181.15	2353.8	
181.37	2377.7	
181.58	4252.9	
181.79	4388.8	
182.01	2428.2	
182.22	2510.1	
182.44	4472.8	
182.65	3977.2	
182.87	3003	
183.08	2736.8	
183.29	4657.1	
183.51	3987.4	
183.72	2523.8	
183.94	3332	
184.15	4276.2	
184.37	4175.1	
184.58	2313.5	
184.79	2849.4	
185.01	4077.5	
185.22	4564.9	
185.44	3007.1	
185.65	2652.1	
185.86	4326	
186.08	3968.3	
186.29	2314.9	
186.51	2396.1	
186.72	4095.9	
186.94	4528.7	
187.15	2718.3	
187.36	2767.5	
187.58	5373.2	
187.79	4333.5	
188.01	2749.1	
188.22	3984	
188.43	4988.2	
188.65	4483	
188.86	2486.9	
189.08	2749.7	
189.29	4115.1	
189.5	4085.7	
189.72	2502.6	
189.93	2572.2	
190.15	4544.4	
190.36	5108.3	
190.57	2717.7	
190.79	2589.3	
191	4517.1	
191.22	4550.6	
191.43	2762.7	
191.64	2420.7	
191.86	4642.7	
192.07	4539.7	
192.29	2500.6	
192.5	2534.7	
192.71	4534.2	
192.93	4177.9	
193.14	2477.4	
193.35	2560.6	
193.57	4150.6	
193.78	4577.2	
194	2176.3	
194.21	2485.6	
194.42	3971	
194.64	4300.7	
194.85	2717.7	
195.07	3068.5	
195.28	4130.8	
195.49	3859.7	
195.71	3166.2	
195.92	2414.6	
196.13	4430.4	
196.35	4353.3	
196.56	3273.3	
196.78	2678.1	
196.99	5155.4	
197.2	4778.6	
197.42	2964.1	
197.63	2763.4	
197.84	3989.4	
198.06	4371	
198.27	2546.3	
198.48	3152.5	
198.7	4102.1	
198.91	4326.7	
199.13	2777.7	
199.34	2704	
199.55	4650.9	
199.77	3734.1	
199.98	2458.9	
200.19	2763.4	
200.41	4268.6	
200.62	3981.3	
200.83	2750.4	
201.05	2981.2	
201.26	4188.1	
201.47	4083	
201.69	2480.1	
201.9	2493.1	
202.11	4299.4	
202.33	4779.3	
202.54	2564.7	
202.76	2840.5	
202.97	4208.6	
203.18	4348.5	
203.4	2741.5	
203.61	2873.3	
203.82	4296.6	
204.04	4046.1	
204.25	2748.4	
204.46	2665.1	
204.68	4233.2	
204.89	4349.9	
205.1	2618	
205.32	2422.7	
205.53	4442.7	
205.74	4532.2	
205.96	2164	
206.17	2722.4	
206.38	4390.2	
206.6	4483	
206.81	2947.7	
207.02	2569.5	
207.24	4385.4	
207.45	4654.4	
207.66	2637.1	
207.88	2333.3	
208.09	4363.5	
208.3	4240	
208.52	2463.7	
208.73	2645.3	
208.94	4243.4	
209.15	4602.5	
209.37	2630.3	
209.58	2699.9	
209.79	4502.1	
210.01	4177.2	
210.22	2271.2	
210.43	2304.6	
210.65	4180.6	
210.86	4401.1	
211.07	2562.7	
211.29	2428.2	
211.5	4334.9	
211.71	4266.6	
211.93	2499.2	
212.14	2467.8	
212.35	4267.3	
212.56	4192.2	
212.78	2760	
212.99	2368.8	
213.2	4727.4	
213.42	4121.9	
213.63	2583.2	
213.84	2532	
214.06	3967.6	
214.27	3930.7	
214.48	2618	
214.69	2747.7	
214.91	4644.8	
215.12	4611.3	
215.33	2736.1	
215.55	2889.7	
215.76	4921.3	
215.97	4420.9	
216.18	2652.8	
216.4	2648	
216.61	4031.8	
216.82	4497.3	
217.04	2493.1	
217.25	2527.9	
217.46	4550.6	
217.67	4492.6	
217.89	2278.7	
218.1	2351.1	
218.31	4242	
218.53	4362.2	
218.74	2618	
218.95	2478.7	
219.16	4275.5	
219.38	4739.7	
219.59	2506	
219.8	2816.6	
220.01	4960.2	
220.23	4289.1	
220.44	3013.2	
220.65	2441.9	
220.87	4344.4	
221.08	4585.4	
221.29	2434.4	
221.5	2849.4	
221.72	5186.1	
221.93	4045.4	
222.14	2745.6	
222.35	3090.4	
222.57	4229.1	
222.78	4521.2	
222.99	2704.7	
223.2	2784.6	
223.42	4358.1	
223.63	4411.3	
223.84	2130.6	
224.05	2182.5	
224.27	4898.7	
224.48	4649.6	
224.69	3158.7	
224.9	2719.7	
225.12	4304.8	
225.33	4209.3	
225.54	2300.6	
225.75	2548.4	
225.97	4002.4	
226.18	4197	
226.39	2600.2	
226.6	2491	
226.82	4076.1	
227.03	3979.9	
227.24	2723.1	
227.45	2362.7	
227.67	4493.2	
227.88	4679.6	
228.09	3041.9	
228.3	2910.8	
228.52	4433.9	
228.73	4194.9	
228.94	2562	
229.15	2364	
229.36	4268	
229.58	4272.7	
229.79	2615.3	
230	2903.3	
230.21	4878.9	
230.43	4272.1	
230.64	2700.6	
230.85	2770.9	
231.06	4593.6	
231.28	4498	
231.49	2372.9	
231.7	2725.8	
231.91	4432.5	
232.12	4208.6	
232.34	2469.2	
232.55	2669.2	
232.76	4537.6	
232.97	4297.3	
233.18	2473.3	
233.4	2739.5	
233.61	4289.1	
233.82	4112.3	
234.03	2574.3	
234.25	2612.5	
234.46	5317.2	
234.67	4220.2	
234.88	2805.7	
235.09	2550.4	
235.31	4296.6	
235.52	4141.7	
235.73	2695.1	
235.94	2377	
236.15	4087.7	
236.37	4887.8	
236.58	2491.7	
236.79	2643.9	
237	4367	
237.21	3857	
237.43	2855.6	
237.64	2333.3	
237.85	6343.2	
238.06	4007.2	
238.27	2736.1	
238.48	2433.7	
238.7	4484.4	
238.91	4140.3	
239.12	2597.5	
239.33	2720.4	
239.54	4005.1	
239.76	4194.2	
239.97	2604.3	
240.18	2621.4	
240.39	4783.4	
240.6	4324.6	
240.82	2771.6	
241.03	2362.7	
241.24	4146.5	
241.45	4626.4	
241.66	2488.3	
241.87	2800.9	
242.09	4705.5	
242.3	4771.8	
242.51	2810.5	
242.72	2579.8	
242.93	4422.9	
243.14	4179.9	
243.36	2974.3	
243.57	3147	
243.78	4698.7	
243.99	4386.1	
244.2	2638.5	
244.41	2423.4	
244.63	3993.5	
244.84	4257	
245.05	2788	
245.26	2603.7	
245.47	4476.2	
245.68	4435.9	
245.9	3221.5	
246.11	2745.6	
246.32	4064.5	
246.53	4363.5	
246.74	3914.4	
246.95	2316.9	
247.16	4087.1	
247.38	4252.9	
247.59	2413.2	
247.8	2678.7	
248.01	3903.4	
248.22	4207.2	
248.43	2478	
248.64	2596.8	
248.86	3967.6	
249.07	4115.7	
249.28	2472.6	
249.49	2731.3	
249.7	4483.7	
249.91	4487.8	
250.12	2362.7	
250.34	2375.6	
250.55	4323.9	
250.76	4222.2	
250.97	2691.7	
251.18	2710.8	
251.39	4509.6	
251.6	4295.3	
251.81	2771.6	
252.03	2681.5	
252.24	4097.3	
252.45	4455	
252.66	2426.8	
252.87	2779.1	
253.08	4238.6	
253.29	5051	
253.5	2377.7	
253.72	3016.7	
253.93	4219.5	
254.14	4732.2	
254.35	2549	
254.56	2525.8	
254.77	4362.2	
254.98	4049.5	
255.19	2580.4	
255.41	3042.6	
255.62	4399	
255.83	4539.7	
256.04	2841.9	
256.25	2715.6	
256.46	4844.8	
256.67	4065.2	
256.88	2705.4	
257.09	2925.2	
257.31	3922.5	
257.52	4046.1	
257.73	3263.1	
257.94	2568.8	
258.15	4274.1	
258.36	4177.9	
258.57	3020.8	
258.78	2131.9	
258.99	4545.1	
259.2	4080.9	
259.41	2581.8	
259.63	2639.8	
259.84	4717.8	
260.05	4848.2	
260.26	3079.5	
260.47	2533.3	
260.68	4543.8	
260.89	4120.5	
261.1	2887	
261.31	2471.2	
261.52	4704.9	
261.73	4728.8	
261.95	3078.1	
262.16	2770.2	
262.37	4618.9	
262.58	4598.4	
262.79	3129.3	
263	2557.9	
263.21	4336.9	
263.42	4054.3	
263.63	2793.4	
263.84	2559.3	
264.05	4414.7	
264.26	4702.8	
264.47	2976.4	
264.69	2722.4	
264.9	4727.4	
265.11	4242	
265.32	2454.8	
265.53	2514.2	
265.74	4315.1	
265.95	3859.1	
266.16	2623.4	
266.37	2876.7	
266.58	4317.1	
266.79	4073.4	
267	2553.1	
267.21	2418.7	
267.42	3986	
267.63	4242	
267.84	2564.7	
268.06	2370.2	
268.27	4470	
268.48	4559.5	
268.69	2594.8	
268.9	2932.7	
269.11	4463.2	
269.32	3867.2	
269.53	2620	
269.74	2482.8	
269.95	4333.5	
270.16	3941	
270.37	2668.5	
270.58	2970.2	
270.79	4194.2	
271	4489.8	
271.21	2729.3	
271.42	2660.3	
271.63	4401.1	
271.84	3915	
272.05	2308.7	
272.26	2435	
272.47	4264.6	
272.68	4332.1	
272.89	2622.1	
273.11	2801.6	
273.32	4078.2	
273.53	4677.6	
273.74	2797.5	
273.95	2807.1	
274.16	4382	
274.37	4202.4	
274.58	2884.2	
274.79	2448.7	
275	4376.5	
275.21	4514.4	
275.42	3267.9	
275.63	2824.1	
275.84	4431.1	
276.05	5170.4	
276.26	2708.8	
276.47	2585.2	
276.68	4284.4	
276.89	4805.2	
277.1	2890.4	
277.31	2367.5	
277.52	4318.5	
277.73	4630.5	
277.94	2349	
278.15	2580.4	
278.36	4374.5	
278.57	4044.1	
278.78	2575	
278.99	2814.6	
279.2	4117.1	
279.41	4003.1	
279.62	3208.5	
279.83	2441.2	
280.04	4898.1	
280.25	4034.5	
280.46	3121.1	
280.67	2674.6	
280.88	4059.8	
281.09	4631.8	
281.3	2702.6	
281.51	3268.6	
281.72	4462.5	
281.93	4417.5	
282.14	2527.9	
282.35	2654.2	
282.56	4577.2	
282.77	4416.1	
282.98	2597.5	
283.19	2981.8	
283.4	5163.6	
283.61	4233.2	
283.82	2493.1	
284.03	3059.7	
284.24	4378.6	
284.45	4530.8	
284.66	3162.7	
284.87	2944.3	
285.08	4552.6	
285.29	4640.7	
285.5	2402.9	
285.71	2624.8	
285.92	4510.3	
286.12	4827.1	
286.33	3149.8	
286.54	2622.8	
286.75	4461.2	
286.96	4124.6	
287.17	2466.4	
287.38	3015.3	
287.59	4113	
287.8	4150.6	
288.01	2575.7	
288.22	2794.1	
288.43	4253.6	
288.64	3831.1	
288.85	2977.7	
289.06	2893.1	
289.27	4591.5	
289.48	4630.5	
289.69	3188	
289.9	2915.6	
290.11	4659.8	
290.32	4146.5	
290.53	2926.5	
290.74	2749.1	
290.94	4446.1	
291.15	4425.7	
291.36	2538.1	
291.57	2825.5	
291.78	4203.8	
291.99	3850.2	
292.2	2468.5	
292.41	2770.9	
292.62	4562.2	
292.83	4359.4	
293.04	3330	
293.25	2544.9	
293.46	4175.1	
293.67	4513	
293.88	2459.6	
294.09	2444.6	
294.29	4058.4	
294.5	4315.8	
294.71	2671.2	
294.92	2570.2	
295.13	4108.2	
295.34	4905.6	
295.55	2347	
295.76	2295.1	
295.97	4436.6	
296.18	4833.9	
296.39	2424.1	
296.6	2519.7	
296.81	4180.6	
297.01	4496	
297.22	2611.8	
297.43	2556.5	
297.64	4142.4	
297.85	3971	
298.06	2254.1	
298.27	2344.2	
298.48	4167.6	
298.69	4044.7	
298.9	2721.8	
299.11	2449.4	
299.31	4023.6	
299.52	3990.1	
299.73	2807.1	
299.94	2768.9	
300.15	4231.8	
300.36	4103.4	
300.57	2786.6	
300.78	2747	
300.99	4150.5	
301.2	4218.8	
301.4	2532.7	
301.61	2645.3	
301.82	4401.1	
302.03	4521.2	
302.24	2921.1	
302.45	2456.2	
302.66	4407.9	
302.87	4473.4	
303.08	2553.8	
303.29	3196.2	
303.49	4182	
303.7	4143	
303.91	2349.7	
304.12	3031.7	
304.33	3854.3	
304.54	4375.8	
304.75	2533.3	
304.96	2501.3	
305.16	4416.1	
305.37	4724.7	
305.58	2272.6	
305.79	2357.2	
306	4454.3	
306.21	3922.5	
306.42	2557.2	
306.63	3464.5	
306.83	4160.1	
307.04	4392.9	
307.25	2727.2	
307.46	2679.4	
307.67	3846.1	
307.88	4394.9	
308.09	2572.2	
308.29	2504.7	
308.5	4249.5	
308.71	4463.2	
308.92	2612.5	
309.13	2474.6	
309.34	4319.2	
309.55	4201.1	
309.75	2988	
309.96	2760	
310.17	4455.7	
310.38	4038.6	
310.59	2856.2	
310.8	2698.5	
311.01	4123.9	
311.21	4260.5	
311.42	2521	
311.63	2518.3	
311.84	4102.8	
312.05	4216.8	
312.26	2811.2	
312.46	2920.4	
312.67	4145.1	
312.88	3908.2	
313.09	2449.4	
313.3	2446	
313.51	4725.3	
313.71	4874.2	
313.92	2519.7	
314.13	2554.5	
314.34	4364.2	
314.55	4246.8	
314.76	2948.4	
314.96	2608.4	
315.17	4450.9	
315.38	4278.9	
315.59	2464.4	
315.8	2395.4	
316.01	4588.8	
316.21	4713.7	
316.42	2452.8	
316.63	2658.9	
316.84	4115.7	
317.05	4551.3	
317.26	2831	
317.46	2590.7	
317.67	4199	
317.88	4414.7	
318.09	2969.6	
318.3	2342.2	
318.5	4161.5	
318.71	4339.6	
318.92	3561.4	
319.13	2796.8	
319.34	4507.6	
319.54	4584	
319.75	2350.4	
319.96	2252.1	
320.17	4336.9	
320.38	4527.4	
320.58	2314.2	
320.79	2655.5	
321	4543.8	
321.21	4702.8	
321.42	2656.2	
321.62	2330.6	
321.83	4120.5	
322.04	4290.5	
322.25	2615.3	
322.46	2456.9	
322.66	4286.4	
322.87	4496	
323.08	2831.7	
323.29	2346.3	
323.5	4831.2	
323.7	3992.2	
323.91	3077.4	
324.12	2816.6	
324.33	4370.4	
324.53	4429.8	
324.74	2788	
324.95	2826.2	
325.16	3971.7	
325.37	4156	
325.57	2454.8	
325.78	2476.7	
325.99	4392.2	
326.2	3943.7	
326.4	3223.5	
326.61	2359.3	
326.82	4189.5	
327.03	4274.1	
327.24	3279.5	
327.44	3067.9	
327.65	4444.1	
327.86	3803.1	
328.07	2779.8	
328.27	2387.2	
328.48	4664.6	
328.69	3951.9	
328.9	3249.4	
329.1	2559.3	
329.31	4176.5	
329.52	4637.3	
329.73	2538.8	
329.93	2656.2	
330.14	4306.9	
330.35	4341	
330.56	3624.9	
330.76	2934.1	
330.97	4139.6	
331.18	4223.6	
331.39	2691.7	
331.59	2309.4	
331.8	4555.4	
332.01	4640.7	
332.22	2551.8	
332.42	2725.2	
332.63	4304.1	
332.84	3986	
333.05	2750.4	
333.25	2488.3	
333.46	4041.3	
333.67	4248.9	
333.88	2606.4	
334.08	2738.1	
334.29	5185.5	
334.5	4468	
334.7	2413.9	
334.91	3181.2	
335.12	3958.7	
335.33	4390.2	
335.53	2699.9	
335.74	3571.7	
335.95	4198.3	
336.16	3843.4	
336.36	2676.7	
336.57	2975.7	
336.78	3812.6	
336.98	4517.8	
337.19	3188.7	
337.4	2585.9	
337.61	4851	
337.81	3939.6	
338.02	2566.1	
338.23	3039.2	
338.43	4643.4	
338.64	4012.7	
338.85	2471.9	
339.05	3106.1	
339.26	4732.9	
339.47	3966.2	
339.68	2515.6	
339.88	3296.5	
340.09	4447.5	
340.3	4470	
340.5	2830.3	
340.71	2308.1	
340.92	3979.9	
341.13	4511.7	
341.33	2355.8	
341.54	2744.3	
341.75	4410.6	
341.95	4119.8	
342.16	2658.3	
342.37	2865.8	
342.57	3964.2	
342.78	4132.8	
342.99	2882.2	
343.19	2303.3	
343.4	4410.6	
343.61	4392.2	
343.81	2641.2	
344.02	2385.9	
344.23	4430.4	
344.43	4580.6	
344.64	2946.3	
344.85	2916.3	
345.06	4472.1	
345.26	4542.4	
345.47	2816	
345.68	3111.5	
345.88	3935.5	
346.09	4460.5	
346.3	2776.4	
346.5	2239.8	
346.71	4154	
346.92	4087.7	
347.12	2441.9	
347.33	2760	
347.54	4477.5	
347.74	4700.8	
347.95	2746.3	
348.16	2220.7	
348.36	4115.7	
348.57	3991.5	
348.78	2829.6	
348.98	2846	
349.19	4185.4	
349.39	3804.4	
349.6	2392	
349.81	2461	
350.01	4438.6	
350.22	4005.1	
350.43	2775	
350.63	3062.4	
350.84	4149.2	
351.05	4019.5	
351.25	2451.4	
351.46	2301.9	
351.67	4467.3	
351.87	3943.7	
352.08	2625.5	
352.29	2843.3	
352.49	4427	
352.7	4501.4	
352.9	2362	
353.11	2880.1	
353.32	4760.2	
353.52	4089.8	
353.73	2440.5	
353.94	2882.9	
354.14	4394.3	
354.35	4130.1	
354.55	2460.3	
354.76	2685.6	
354.97	4332.8	
355.17	4131.4	
355.38	2406.4	
355.59	3000.3	
355.79	4028.4	
356	4120.5	
356.2	2634.4	
356.41	2423.4	
356.62	3936.2	
356.82	4151.2	
357.03	2865.8	
357.24	2597.5	
357.44	3977.8	
357.65	4038.6	
357.85	3174.4	
358.06	2701.3	
358.27	3809.2	
358.47	3898.6	
358.68	2387.2	
358.88	2761.3	
359.09	4286.4	
359.3	4437.3	
359.5	3157.3	
359.71	2843.9	
359.91	4631.1	
360.12	4224.3	
360.33	2802.3	
360.53	3041.2	
360.74	4024.9	
360.94	4066.6	
361.15	2859.6	
361.36	2547	
361.56	4449.6	
361.77	4174.4	
361.97	3081.5	
362.18	2608.4	
362.38	4460.5	
362.59	3914.4	
362.8	2435	
363	2395.4	
363.21	3852.9	
363.41	4156	
363.62	2718.3	
363.83	3207.1	
364.03	4381.3	
364.24	4560.1	
364.44	3377.8	
364.65	3246.7	
364.85	4078.9	
365.06	3988.8	
365.27	2605.7	
365.47	2656.2	
365.68	4602.5	
365.88	4128	
366.09	2805	
366.29	2536.1	
366.5	4105.5	
366.71	4459.1	
366.91	3221.5	
367.12	2850.8	
367.32	4822.3	
367.53	4313	
367.73	2848	
367.94	3330	
368.14	4373.1	
368.35	4647.5	
368.56	2820.1	
368.76	2675.3	
368.97	4420.9	
369.17	5178.6	
369.38	2566.8	
369.58	2710.8	
369.79	3828.3	
369.99	4631.8	
370.2	3281.5	
370.4	2754.5	
370.61	4248.2	
370.82	4932.9	
371.02	2768.9	
371.23	2377.7	
371.43	3925.3	
371.64	4671.4	
371.84	2749.1	
372.05	3295.2	
372.25	5085.8	
372.46	4252.9	
372.66	2668.5	
372.87	2699.9	
373.07	4320.5	
373.28	5267.4	
373.48	3197.6	
373.69	2993.4	
373.9	4158.1	
374.1	4199	
374.31	3166.2	
374.51	2916.3	
374.72	4517.8	
374.92	4005.1	
375.13	3244	
375.33	2828.2	
375.54	4288.4	
375.74	4064.5	
375.95	2895.8	
376.15	3483.6	
376.36	4384	
376.56	4288.4	
376.77	2850.1	
376.97	3131.3	
377.18	4966.3	
377.38	4378.6	
377.59	3173	
377.79	2690.3	
378	4292.5	
378.2	4417.5	
378.41	2704	
378.61	2658.3	
378.82	4578.6	
379.02	4152.6	
379.23	2753.8	
379.43	3254.2	
379.64	4655	
379.84	4355.3	
380.05	2739.5	
380.25	2644.6	
380.46	4434.5	
380.66	4175.1	
380.87	3351.8	
381.07	3575.8	
381.28	4764.9	
381.48	4386.7	
381.69	2667.8	
381.89	2734.7	
382.1	3949.8	
382.3	4424.3	
382.51	3308.2	
382.71	3683.6	
382.91	4287.8	
383.12	4626.4	
383.32	2895.1	
383.53	2979.1	
383.73	4340.3	
383.94	4293.9	
384.14	2977.1	
384.35	2537.4	
384.55	4079.6	
384.76	4330.1	
384.96	2886.3	
385.17	3019.4	
385.37	4452.3	
385.58	3955.3	
385.78	3020.8	
385.98	2570.9	
386.19	4156.7	
386.39	4404.5	
386.6	2771.6	
386.8	2891	
387.01	4394.9	
387.21	4504.8	
387.42	3056.9	
387.62	3344.3	
387.83	4188.1	
388.03	4194.9	
388.23	2966.1	
388.44	3282.2	
388.64	3961.5	
388.85	3997	
389.05	2997.5	
389.26	3330	
389.46	5130.2	
389.67	4719.9	
389.87	3089.7	
390.07	3093.1	
390.28	4169.7	
390.48	4035.9	
390.69	2640.5	
390.89	2879.4	
391.1	4187.4	
391.3	4611.3	
391.5	3469.9	
391.71	3725.3	
391.91	4514.4	
392.12	4785.4	
392.32	3540.9	
392.53	3123.8	
392.73	4202.4	
392.93	4240	
393.14	2918.4	
393.34	3299.3	
393.55	4572.4	
393.75	4246.8	
393.95	2998.2	
394.16	2891	
394.36	4232.5	
394.57	4588.8	
394.77	2730.6	
394.98	2821.4	
395.18	4121.2	
395.38	4164.9	
395.59	3363.4	
395.79	2770.9	
396	4270	
396.2	4468.7	
396.4	3303.4	
396.61	3179.8	
396.81	4450.9	
397.02	4105.5	
397.22	3306.8	
397.42	3391.4	
397.63	4576.5	
397.83	4141	
398.04	2792.7	
398.24	3043.3	
398.44	4388.8	
398.65	3831.1	
398.85	2695.1	
399.05	2693.1	
399.26	4163.5	
399.46	4997	
399.67	2910.2	
399.87	2785.2	
400.07	4359.4	
400.28	4432.5	
400.48	2840.5	
400.69	3325.9	
400.89	4510.3	
401.09	4879.6	
401.3	2843.9	
401.5	3355.3	
401.7	4838	
401.91	5021.6	
402.11	3078.1	
402.32	3091.1	
402.52	4669.4	
402.72	4585.4	
402.93	3308.2	
403.13	2715.6	
403.33	5094	
403.54	4304.8	
403.74	3065.1	
403.94	3564.1	
404.15	4427.7	
404.35	5062.6	
404.56	2980.5	
404.76	3811.3	
404.96	4733.5	
405.17	4500.1	
405.37	3336.8	
405.57	3235.8	
405.78	4607.9	
405.98	4375.8	
406.18	2986.6	
406.39	3362.1	
406.59	4620.2	
406.79	4287.8	
407	2832.3	
407.2	2946.3	
407.4	4919.2	
407.61	4764.9	
407.81	2940.2	
408.01	3972.4	
408.22	3954.6	
408.42	5020.3	
408.62	3465.2	
408.83	3224.9	
409.03	4400.4	
409.23	4363.5	
409.44	3217.4	
409.64	3306.8	
409.84	4914.4	
410.05	4815.5	
410.25	3300	
410.45	3217.4	
410.66	4600.4	
410.86	5883.8	
411.06	3410.6	
411.27	3373	
411.47	5735.7	
411.67	4687.8	
411.88	3463.1	
412.08	3517	
412.28	4956.1	
412.49	5253.7	
412.69	3367.5	
412.89	3349.8	
413.09	5198.4	
413.3	5117.2	
413.5	3513.6	
413.7	3256.3	
413.91	4689.8	
414.11	5171.1	
414.31	3289	
414.52	3498.6	
414.72	5079.6	
414.92	4891.9	
415.12	3323.9	
415.33	3645.4	
415.53	5139	
415.73	5268.7	
415.94	3789.4	
416.14	3431	
416.34	4697.4	
416.55	4575.2	
416.75	4113	
416.95	3790.1	
417.15	5298.8	
417.36	5530.2	
417.56	4222.9	
417.76	3719.8	
417.97	5342.5	
418.17	5170.4	
418.37	3637.9	
418.57	3515	
418.78	5276.3	
418.98	4969.7	
419.18	3987.4	
419.38	4005.8	
419.59	4897.4	
419.79	4846.2	
419.99	3512.3	
420.2	3665.2	
420.4	5266.7	
420.6	5296.7	
420.8	3495.2	
421.01	3380.5	
421.21	5169.1	
421.41	5119.9	
421.61	3623.5	
421.82	3491.1	
422.02	5030.5	
422.22	5461.2	
422.42	3892.5	
422.63	3766.2	
422.83	4962.2	
423.03	5599.8	
423.23	3774.4	
423.44	3203	
423.64	4958.8	
423.84	4753.3	
424.04	3504.1	
424.25	3285.6	
424.45	5406.6	
424.65	5367.7	
424.85	3237.8	
425.06	3504.8	
425.26	5647.6	
425.46	4970.4	
425.66	3725.3	
425.87	3600.3	
426.07	5300.8	
426.27	5213.4	
426.47	3609.2	
426.67	3270.6	
426.88	5591.6	
427.08	5218.9	
427.28	3878.2	
427.48	3316.3	
427.69	4807.3	
427.89	5096	
428.09	3717.1	
428.29	3280.8	
428.5	5292.6	
428.7	5229.1	
428.9	3309.5	
429.1	3549.1	
429.3	5104.2	
429.51	5218.2	
429.71	3536.2	
429.91	3938.9	
430.11	5393.7	
430.31	5560.9	
430.52	3584.6	
430.72	3732.1	
430.92	5576.6	
431.12	5276.9	
431.32	3478.1	
431.53	3697.9	
431.73	4775.2	
431.93	5524.7	
432.13	3450.8	
432.33	3394.2	
432.54	5085.1	
432.74	5089.9	
432.94	3320.4	
433.14	3898	
433.34	5455.1	
433.55	5161.6	
433.75	3819.5	
433.95	4719.2	
434.15	5240.1	
434.35	4965.6	
434.56	3435.8	
434.76	3242.6	
434.96	5175.2	
435.16	5318.6	
435.36	3340.2	
435.56	4054.3	
435.77	5052.3	
435.97	5187.5	
436.17	4326	
436.37	3948.5	
436.57	4989.5	
436.78	4950.6	
436.98	3943	
437.18	4273.4	
437.38	5170.4	
437.58	5028.4	
437.78	4422.9	
437.99	3681.6	
438.19	5419.6	
438.39	5829.2	
438.59	3717.1	
438.79	3321.8	
438.99	5742.5	
439.2	5046.2	
439.4	3375.7	
439.6	3414.6	
439.8	5128.1	
440	5806.7	
440.2	3982.6	
440.4	3989.4	
440.61	5517.9	
440.81	5735	
441.01	3515	
441.21	3999	
441.41	5686.5	
441.61	5441.5	
441.81	4143	
442.02	4671.4	
442.22	5968.5	
442.42	5588.2	
442.62	3594.9	
442.82	3702	
443.02	5870.2	
443.22	5324.7	
443.43	3882.3	
443.63	3596.2	
443.83	5216.2	
444.03	5213.4	
444.23	4278.9	
444.43	4012.7	
444.63	5453.7	
444.83	5956.2	
445.04	3694.5	
445.24	4370.4	
445.44	5578.7	
445.64	5610.1	
445.84	4164.9	
446.04	4134.2	
446.24	5307	
446.44	5798.5	
446.65	3632.4	
446.85	3913	
447.05	5444.2	
447.25	5813.5	
447.45	4002.4	
447.65	3650.8	
447.85	5502.2	
448.05	5195.7	
448.25	4134.2	
448.46	4099.4	
448.66	5459.9	
448.86	5285.8	
449.06	3652.9	
449.26	4151.9	
449.46	5675.6	
449.66	5186.8	
449.86	3927.3	
450.06	3878.2	
450.26	5208.7	
450.47	5613.5	
450.67	4071.4	
450.87	4227.7	
451.07	5818.3	
451.27	5485.1	
451.47	3737.5	
451.67	4162.2	
451.87	5408.7	
452.07	5937.7	
452.27	3930.1	
452.47	3872	
452.67	5650.3	
452.88	5679	
453.08	3562.8	
453.28	4504.2	
453.48	6192.4	
453.68	5502.9	
453.88	3861.8	
454.08	3862.5	
454.28	5752.7	
454.48	5536.3	
454.68	4233.2	
454.88	4391.5	
455.08	5892	
455.28	5608	
455.48	3853.6	
455.68	4229.1	
455.89	6118.6	
456.09	5827.2	
456.29	4014.7	
456.49	4076.8	
456.69	6030.6	
456.89	5655.1	
457.09	4286.4	
457.29	4548.5	
457.49	5771.2	
457.69	5821.7	
457.89	4255	
458.09	3894.6	
458.29	5677.7	
458.49	6144.6	
458.69	4380.6	
458.89	4106.9	
459.09	6195.8	
459.29	6184.9	
459.49	4208.6	
459.69	4574.5	
459.9	5958.2	
460.1	5710.4	
460.3	4088.4	
460.5	3966.9	
460.7	6006.7	
460.9	5575.9	
461.1	3988.1	
461.3	4449.6	
461.5	6370.5	
461.7	6122.1	
461.9	4067.3	
462.1	4345.8	
462.3	5926.1	
462.5	6185.5	
462.7	4169.7	
462.9	4152.6	
463.1	6737.1	
463.3	6603.3	
463.5	4343.7	
463.7	4844.8	
463.9	6110.5	
464.1	6207.4	
464.3	4418.8	
464.5	4556.7	
464.7	6339.1	
464.9	6206.7	
465.1	5213.4	
465.3	4786.1	
465.5	6509.1	
465.7	6594.5	
465.9	4839.4	
466.1	4781.3	
466.3	6423.8	
466.5	6327.5	
466.7	5246.2	
466.9	4719.2	
467.1	6565.8	
467.3	6886.6	
467.5	5294.7	
467.7	4694.6	
467.9	7010.9	
468.1	7459.4	
468.3	5094	
468.5	5296	
468.7	6395.1	
468.9	6296.1	
469.1	4899.4	
469.3	5212.8	
469.5	7506.5	
469.7	6180.8	
469.9	5184.1	
470.1	4738.3	
470.3	6532.3	
470.5	6552.8	
470.7	5501.5	
470.9	4844.1	
471.1	6366.5	
471.3	6574	
471.5	4758.1	
471.69	5732.9	
471.89	6399.9	
472.09	6014.2	
472.29	5122.7	
472.49	5269.4	
472.69	6150.7	
472.89	6546.7	
473.09	4773.1	
473.29	4735.6	
473.49	6292.7	
473.69	6244.9	
473.89	5257.1	
474.09	4806.6	
474.29	7034.1	
474.49	6748.7	
474.69	5272.2	
474.89	4870.1	
475.09	6332.3	
475.29	6283.2	
475.49	4543.8	
475.69	4734.9	
475.88	7122.8	
476.08	6612.2	
476.28	4535.6	
476.48	4797.7	
476.68	6859.3	
476.88	6552.8	
477.08	4787.5	
477.28	4859.8	
477.48	6449.7	
477.68	6687.3	
477.88	4562.9	
478.08	4748.6	
478.28	6841.6	
478.48	6440.9	
478.67	4865.3	
478.87	4476.2	
479.07	6830	
479.27	6474.3	
479.47	4876.9	
479.67	4984.8	
479.87	6649.1	
480.07	6905.1	
480.27	4616.1	
480.47	5348.6	
480.67	6472.9	
480.87	6843.6	
481.06	4775.2	
481.26	5174.5	
481.46	6639.5	
481.66	6395.1	
481.86	5066.7	
482.06	5441.5	
482.26	6414.2	
482.46	6789	
482.66	4954	
482.86	4670.7	
483.05	6748.7	
483.25	6217.6	
483.45	6264.1	
483.65	4949.3	
483.85	6232	
484.05	6482.5	
484.25	5197.7	
484.45	5375.9	
484.65	6739.2	
484.84	6925.5	
485.04	4969.7	
485.24	4961.5	
485.44	7163.1	
485.64	6219.7	
485.84	4659.8	
486.04	5231.2	
486.24	6494.1	
486.44	6563.7	
486.63	4646.2	
486.83	5110.4	
487.03	6536.4	
487.23	6592.4	
487.43	4736.3	
487.63	5893.4	
487.83	6644.3	
488.02	6683.9	
488.22	5171.8	
488.42	5475.6	
488.62	7075	
488.82	6404.7	
489.02	5049.6	
489.22	5020.3	
489.41	6827.2	
489.61	6890.7	
489.81	4884.4	
490.01	4885.1	
490.21	7018.4	
490.41	7385	
490.61	4966.3	
490.8	4961.5	
491	6720.1	
491.2	6491.4	
491.4	5245.5	
491.6	4870.1	
491.8	6795.2	
491.99	6703	
492.19	4775.9	
492.39	4958.8	
492.59	6976.1	
492.79	7021.8	
492.99	5388.9	
493.18	4939.7	
493.38	7176.8	
493.58	7488.1	
493.78	5312.4	
493.98	5058.5	
494.18	6897.6	
494.37	6586.3	
494.57	5530.9	
494.77	5342.5	
494.97	7168.6	
495.17	7232.7	
495.37	5280.3	
495.56	5438	
495.76	7267.6	
495.96	7215.7	
496.16	5900.9	
496.36	5388.9	
496.55	7383.6	
496.75	7044.3	
496.95	5625.1	
497.15	5537	
497.35	7432.8	
497.54	7282.6	
497.74	5513.1	
497.94	6367.8	
498.14	7802.1	
498.34	7434.1	
498.53	5341.8	
498.73	5747.3	
498.93	6979.5	
499.13	7309.9	
499.33	5669.5	
499.52	5883.8	
499.72	7518.8	
499.92	7443	
500.12	5532.9	
500.32	5666	
500.51	7549.5	
500.71	7411.6	
500.91	6053.8	
501.11	5926.8	
501.31	7455.3	
501.5	7832.1	
501.7	6357.6	
501.9	5718.6	
502.1	7404.1	
502.29	7672.4	
502.49	6049	
502.69	6216.3	
502.89	7560.4	
503.09	7493.5	
503.28	5537	
503.48	5517.2	
503.68	7262.1	
503.88	7124.2	
504.07	6012.2	
504.27	5696.1	
504.47	7438.2	
504.67	7354.9	
504.86	6025.1	
505.06	5769.8	
505.26	7304.4	
505.46	8013	
505.65	5803.9	
505.85	5913.9	
506.05	7290.8	
506.25	7520.1	
506.44	5507	
506.64	5849	
506.84	7118.1	
507.04	7473.7	
507.23	5541.8	
507.43	5781.4	
507.63	8028.7	
507.83	7051.2	
508.02	5767.1	
508.22	5584.1	
508.42	8317.5	
508.62	7110.5	
508.81	5703.6	
509.01	6005.3	
509.21	7129	
509.4	7328.3	
509.6	5870.8	
509.8	5532.9	
510	7256.6	
510.19	7809.6	
510.39	5386.2	
510.59	5585.5	
510.79	7134.4	
510.98	7826.7	
511.18	5802.6	
511.38	5649.7	
511.57	7663.5	
511.77	7382.2	
511.97	6024.4	
512.17	5562.3	
512.36	7714.7	
512.56	7477.8	
512.76	5550	
512.95	5394.3	
513.15	7818.5	
513.35	6886.6	
513.55	6145.3	
513.74	5593	
513.94	7641	
514.14	7283.9	
514.33	6114.6	
514.53	5989.6	
514.73	7336.5	
514.92	7387	
515.12	5683.1	
515.32	5612.1	
515.51	7491.5	
515.71	7593.2	
515.91	6551.5	
516.11	5657.9	
516.3	8305.2	
516.5	7438.9	
516.7	5996.5	
516.89	6322.1	
517.09	7345.4	
517.29	7477.1	
517.48	6303.6	
517.68	5850.4	
517.88	7088.7	
518.07	7651.9	
518.27	6176	
518.47	5636.7	
518.66	7899	
518.86	7372.7	
519.06	5621	
519.25	5855.1	
519.45	7422.5	
519.65	8192.6	
519.84	6170.5	
520.04	6522.8	
520.24	8443.8	
520.43	7709.2	
520.63	6152.1	
520.83	6040.8	
521.02	7414.3	
521.22	7708.6	
521.42	6179.4	
521.61	6522.8	
521.81	7621.2	
522.01	7698.3	
522.2	6166.4	
522.4	6078.4	
522.6	7991.2	
522.79	7178.8	
522.99	6200.6	
523.18	5857.2	
523.38	7932.5	
523.58	7794.6	
523.77	6746.7	
523.97	5911.8	
524.17	8787.8	
524.36	8522.3	
524.56	6632.7	
524.76	6450.4	
524.95	7939.3	
525.15	7776.1	
525.34	6477	
525.54	6447.7	
525.74	8357.8	
525.93	7740.6	
526.13	7135.1	
526.33	6528.2	
526.52	8603.5	
526.72	8294.3	
526.91	7303.1	
527.11	6855.9	
527.31	8547.5	
527.5	8795.3	
527.7	6924.2	
527.89	6344.6	
528.09	8130.4	
528.29	8441.7	
528.48	7120.1	
528.68	6918	
528.87	8731.2	
529.07	8615.8	
529.27	6961	
529.46	6729.6	
529.66	8475.2	
529.85	8661.5	
530.05	6780.8	
530.25	7062.1	
530.44	9351.7	
530.64	8486.1	
530.83	6971.3	
531.03	7084.6	
531.23	8929.1	
531.42	8641.1	
531.62	7446.4	
531.81	7086.7	
532.01	8910	
532.21	9083.4	
532.4	7052.5	
532.6	7190.4	
532.79	9383.8	
532.99	9091.6	
533.18	7373.4	
533.38	7886.7	
533.58	8856.8	
533.77	9214.5	
533.97	7499	
534.16	7871.7	
534.36	9544.9	
534.55	8968.1	
534.75	7921.5	
534.95	7511.9	
535.14	9556.5	
535.34	8948.3	
535.53	7342	
535.73	8393.9	
535.92	9800.2	
536.12	9088.2	
536.31	7456	
536.51	8075.8	
536.71	9416.6	
536.9	9157.8	
537.1	7501.7	
537.29	7678.5	
537.49	9587.9	
537.68	9125.1	
537.88	7787.7	
538.07	7320.8	
538.27	9261.6	
538.46	9644.6	
538.66	7295.5	
538.86	7608.2	
539.05	9277.3	
539.25	9507.4	
539.44	7922.2	
539.64	7628	
539.83	9273.9	
540.03	9772.2	
540.22	7566.6	
540.42	7539.3	
540.61	9365.4	
540.81	9462.3	
541	7690.1	
541.2	8174.8	
541.39	8992.6	
541.59	9247.9	
541.78	8064.2	
541.98	7554.3	
542.18	9002.9	
542.37	9010.4	
542.57	7719.5	
542.76	8012.3	
542.96	8996	
543.15	9258.9	
543.35	7659.4	
543.54	7354.9	
543.74	9026.1	
543.93	9156.5	
544.13	7619.1	
544.32	8155	
544.52	9370.1	
544.71	8921	
544.91	7161.1	
545.1	7680.6	
545.3	8948.9	
545.49	9075.9	
545.69	7139.9	
545.88	7478.5	
546.08	9861	
546.27	9530.6	
546.47	7825.3	
546.66	7308.5	
546.86	9385.8	
547.05	9471.9	
547.24	7357.7	
547.44	7380.9	
547.63	8822	
547.83	9317.6	
548.02	7538.6	
548.22	7712.7	
548.41	8678.6	
548.61	9383.8	
548.8	7320.8	
549	7302.4	
549.19	9228.8	
549.39	9317.6	
549.58	7041.6	
549.78	7417.7	
549.97	9209	
550.17	8845.9	
550.36	7867.6	
550.55	8421.2	
550.75	8867	
550.94	9415.9	
551.14	7221.1	
551.33	7374.7	
551.53	8709.3	
551.72	9138.7	
551.92	7346.7	
552.11	7323.5	
552.31	9243.8	
552.5	9062.9	
552.69	8283.4	
552.89	7101.7	
553.08	9166.7	
553.28	8940.7	
553.47	7347.4	
553.67	7864.9	
553.86	9423.4	
554.06	8516.1	
554.25	6995.9	
554.44	7243	
554.64	9809.1	
554.83	9620	
555.03	7101	
555.22	7337.2	
555.42	9248.6	
555.61	9133.3	
555.8	7219.1	
556	7307.2	
556.19	8659.5	
556.39	9078	
556.58	7312.6	
556.78	7269.6	
556.97	9086.8	
557.16	8820.6	
557.36	7887.4	
557.55	7084.6	
557.75	8310	
557.94	9441.8	
558.13	7148.1	
558.33	6939.2	
558.52	9234.3	
558.72	8544.8	
558.91	7029.3	
559.1	7145.4	
559.3	8444.5	
559.49	8329.8	
559.69	6944.7	
559.88	7322.2	
560.07	8876.6	
560.27	9174.9	
560.46	7423.2	
560.66	7370.6	
560.85	8808.3	
561.04	8228.1	
561.24	6937.8	
561.43	6916.7	
561.63	8459.5	
561.82	8649.3	
562.01	7636.2	
562.21	7196.6	
562.4	8817.9	
562.59	9270.5	
562.79	7182.2	
562.98	6958.3	
563.18	8791.2	
563.37	9442.5	
563.56	7404.1	
563.76	7063.4	
563.95	8445.8	
564.14	8613.8	
564.34	7295.5	
564.53	6965.8	
564.73	8927.1	
564.92	8934.6	
565.11	7215.7	
565.31	6907.8	
565.5	9198.1	
565.69	8426	
565.89	7137.2	
566.08	7154.9	
566.27	9044.5	
566.47	9230.9	
566.66	7585	
566.85	6889.4	
567.05	8883.4	
567.24	8620.6	
567.44	7001.3	
567.63	7654.6	
567.82	9122.3	
568.02	8627.4	
568.21	7119.4	
568.4	7122.8	
568.6	8897.1	
568.79	8674.5	
568.98	7042.3	
569.18	6993.1	
569.37	8698.4	
569.56	9807	
569.76	7308.5	
569.95	7795.3	
570.14	9032.2	
570.34	8845.9	
570.53	7008.1	
570.72	6952.2	
570.91	9231.6	
571.11	8794.7	
571.3	7252.5	
571.49	7667.6	
571.69	8862.2	
571.88	8485.4	
572.07	7435.5	
572.27	7441.6	
572.46	8437.6	
572.65	8987.9	
572.85	7063.4	
573.04	7254.6	
573.23	9170.1	
573.43	8776.2	
573.62	7005.4	
573.81	7302.4	
574	8887.5	
574.2	8750.3	
574.39	7235.5	
574.58	7189.7	
574.78	9327.8	
574.97	8878.6	
575.16	7456	
575.36	7576.8	
575.55	9260.2	
575.74	9172.9	
575.93	6923.5	
576.13	7565.9	
576.32	8796	
576.51	9127.1	
576.71	7301.7	
576.9	7966.6	
577.09	9429.5	
577.28	8991.9	
577.48	7524.2	
577.67	7006.8	
577.86	8957.1	
578.05	9079.3	
578.25	7356.3	
578.44	7362.4	
578.63	8965.3	
578.83	9526.5	
579.02	6997.2	
579.21	7793.9	
579.4	8997.4	
579.6	8939.4	
579.79	7294.2	
579.98	8651.3	
580.17	9277.3	
580.37	9201.5	
580.56	7169.3	
580.75	7499	
580.94	9187.9	
581.14	9416.6	
581.33	7792.5	
581.52	7188.4	
581.71	9060.9	
581.91	9528.5	
582.1	7152.2	
582.29	7303.1	
582.48	8857.5	
582.68	9023.4	
582.87	7535.8	
583.06	7431.4	
583.25	9211.1	
583.45	8716.2	
583.64	7877.9	
583.83	8024.6	
584.02	9073.2	
584.21	9186.5	
584.41	7740.6	
584.6	7373.4	
584.79	8995.4	
584.98	9230.2	
585.18	7174.7	
585.37	7071.6	
585.56	8809.7	
585.75	9174.2	
585.94	7235.5	
586.14	7499.7	
586.33	9357.2	
586.52	8839.7	
586.71	7544	
586.91	7273	
587.1	8539.3	
587.29	9123.7	
587.48	7096.2	
587.67	7089.4	
587.87	8920.3	
588.06	8922.3	
588.25	7841	
588.44	7514	
588.63	8728.4	
588.83	9022	
589.02	7166.5	
589.21	6884.6	
589.4	8616.5	
589.59	8643.1	
589.78	6603.3	
589.98	6679.8	
590.17	8297	
590.36	8355.7	
590.55	6256.5	
590.74	6690.7	
590.94	8853.4	
591.13	8196.7	
591.32	6518	
591.51	6225.1	
591.7	8386.4	
591.89	8142	
592.09	6245.6	
592.28	6414.9	
592.47	7712.7	
592.66	8916.2	
592.85	6278.4	
593.05	6460.7	
593.24	8138.6	
593.43	8699.8	
593.62	6525.5	
593.81	6750.1	
594	8224	
594.19	8277.2	
594.39	6467.5	
594.58	6391.7	
594.77	8319.5	
594.96	8570.1	
595.15	6390.3	
595.34	6730.3	
595.54	8135.2	
595.73	7810.3	
595.92	6005.3	
596.11	6567.8	
596.3	8454	
596.49	7933.1	
596.68	6423.1	
596.88	6691.4	
597.07	8285.4	
597.26	7793.9	
597.45	6305.7	
597.64	6799.9	
597.83	7866.2	
598.02	8229.4	
598.22	6251.8	
598.41	6657.9	
598.6	8148.2	
598.79	7821.9	
598.98	6375.3	
599.17	6791.1	
599.36	8176.2	
599.55	8675.9	
599.74	7315.3	
599.94	7275.1	
600.13	8447.9	
600.32	7761.1	
600.51	6215.6	
600.7	6223.1	
600.89	8650.6	
601.08	8670.4	
601.27	6095.4	
601.47	6577.4	
601.66	8408.3	
601.85	8539.3	
602.04	6546.7	
602.23	6483.9	
602.42	7780.9	
602.61	8153	
602.8	6403.3	
602.99	6262.7	
603.18	8016.4	
603.37	8072.4	
603.57	6626.5	
603.76	6899.6	
603.95	8445.1	
604.14	8198	
604.33	6368.5	
604.52	6423.8	
604.71	8139.3	
604.9	7869	
605.09	6883.2	
605.28	6673	
605.47	8540	
605.66	8112.7	
605.86	6666.8	
606.05	6274.3	
606.24	8417.2	
606.43	7633.5	
606.62	6475	
606.81	6829.3	
607	8343.4	
607.19	7947.5	
607.38	6089.3	
607.57	6240.2	
607.76	7783.6	
607.95	7521.5	
608.14	6547.4	
608.33	6769.2	
608.52	7888.1	
608.72	8281.3	
608.91	6083.8	
609.1	5977.3	
609.29	7866.2	
609.48	7664.2	
609.67	6561	
609.86	6090.7	
610.05	7679.9	
610.24	7725.6	
610.43	6023.8	
610.62	5765.7	
610.81	8326.4	
611	8314.8	
611.19	6040.1	
611.38	6320.7	
611.57	7985	
611.76	8458.1	
611.95	5943.2	
612.14	5872.9	
612.33	7808.2	
612.52	7514	
612.71	6243.6	
612.9	5778	
613.09	7382.2	
613.28	8703.9	
613.47	6065.4	
613.66	6547.4	
613.85	7928.4	
614.04	7553.6	
614.24	6080.4	
614.43	5632.6	
614.62	8022.6	
614.81	7907.9	
615	6298.9	
615.19	6322.1	
615.38	7580.2	
615.57	7795.3	
615.76	6281.1	
615.95	6819.1	
616.14	7980.3	
616.33	7809.6	
616.52	6491.4	
616.71	6516.6	
616.9	7888.1	
617.09	7823.2	
617.28	6229.2	
617.47	6654.5	
617.66	7544.7	
617.85	7488.7	
618.04	6638.1	
618.22	6271.6	
618.41	7595.2	
618.6	8231.5	
618.79	6291.4	
618.98	6185.5	
619.17	8357.8	
619.36	7379.5	
619.55	6275.7	
619.74	6358.9	
619.93	8031.5	
620.12	7648.5	
620.31	6544.6	
620.5	6673	
620.69	8318.2	
620.88	8625.4	
621.07	6983.6	
621.26	6550.8	
621.45	8172.1	
621.64	8150.2	
621.83	6639.5	
622.02	6270.2	
622.21	8197.3	
622.4	8170.7	
622.59	6883.2	
622.78	6863.4	
622.97	7942	
623.16	8318.2	
623.35	6703	
623.54	6196.5	
623.72	7987.1	
623.91	8021.2	
624.1	6804	
624.29	6111.8	
624.48	8612.4	
624.67	8342.1	
624.86	6773.3	
625.05	6273.6	
625.24	8740	
625.43	7989.8	
625.62	7563.8	
625.81	6423.1	
626	8338	
626.19	8049.9	
626.38	6778.8	
626.56	6481.1	
626.75	7875.8	
626.94	8343.4	
627.13	6750.1	
627.32	6092.7	
627.51	8337.3	
627.7	8775.5	
627.89	6199.9	
628.08	6806.1	
628.27	7836.2	
628.46	7964.6	
628.65	6283.2	
628.83	6085.9	
629.02	8195.3	
629.21	7729	
629.4	6593.1	
629.59	6675.7	
629.78	7827.3	
629.97	8320.2	
630.16	6657.3	
630.35	6429.3	
630.54	8660.2	
630.72	8479.3	
630.91	6523.5	
631.1	6657.3	
631.29	8097	
631.48	8066.3	
631.67	6807.4	
631.86	6469.5	
632.05	8068.3	
632.24	7953.6	
632.42	6234.7	
632.61	6582.9	
632.8	7963.9	
632.99	7809.6	
633.18	6697.5	
633.37	6806.1	
633.56	8259.5	
633.75	8064.9	
633.93	6703.7	
634.12	6579.4	
634.31	8693.6	
634.5	8402.8	
634.69	6535.1	
634.88	6862.7	
635.07	8146.8	
635.25	8354.3	
635.44	7012.9	
635.63	7041.6	
635.82	7992.5	
636.01	7342.7	
636.2	6860	
636.39	6680.5	
636.57	8645.8	
636.76	8227.4	
636.95	6322.1	
637.14	7023.2	
637.33	8290.9	
637.52	8510.7	
637.7	6233.3	
637.89	6853.9	
638.08	8020.5	
638.27	8690.2	
638.46	6828.6	
638.65	6954.2	
638.83	8680.7	
639.02	7820.5	
639.21	6737.1	
639.4	6883.2	
639.59	8065.6	
639.78	8015.7	
639.96	6311.2	
640.15	6320	
640.34	7983.7	
640.53	7922.2	
640.72	6161	
640.91	6369.2	
641.09	7700.4	
641.28	8312	
641.47	6474.3	
641.66	6685.3	
641.85	8079.2	
642.03	8075.1	
642.22	6498.9	
642.41	6326.9	
642.6	7647.8	
642.79	7324.2	
642.97	6268.8	
643.16	6454.5	
643.35	7603.4	
643.54	7469.6	
643.73	6092	
643.91	6392.4	
644.1	7398.6	
644.29	7806.2	
644.48	6081.8	
644.67	6141.2	
644.85	7334.5	
645.04	7692.2	
645.23	5884.5	
645.42	6163	
645.6	7339.9	
645.79	7954.3	
645.98	5872.2	
646.17	5388.9	
646.36	7007.5	
646.54	7417.1	
646.73	6227.2	
646.92	5728.2	
647.11	7205.4	
647.29	7647.1	
647.48	5658.5	
647.67	5520	
647.86	7767.3	
648.05	7701	
648.23	5773.2	
648.42	6437.4	
648.61	7475.1	
648.8	7309.9	
648.98	5580.7	
649.17	5776.6	
649.36	7135.1	
649.55	6932.4	
649.73	5580	
649.92	5997.8	
650.11	6970.6	
650.3	7291.5	
650.48	5712.5	
650.67	5673.6	
650.86	7394.5	
651.05	6664.1	
651.23	5596.4	
651.42	5608	
651.61	7096.2	
651.79	7000.6	
651.98	5673.6	
652.17	5529.5	
652.36	7267.6	
652.54	6678.4	
652.73	5558.9	
652.92	5484.5	
653.11	7183.6	
653.29	7359.7	
653.48	5132.9	
653.67	5596.4	
653.85	7040.9	
654.04	7651.9	
654.23	5631.9	
654.42	5450.3	
654.6	6730.3	
654.79	7111.9	
654.98	5167.7	
655.16	5469.4	
655.35	6660	
655.54	6420.4	
655.73	5134.3	
655.91	5099.4	
656.1	6905.1	
656.29	6335	
656.47	4859.1	
656.66	5804.6	
656.85	6707.8	
657.03	6591.7	
657.22	5252.4	
657.41	5203.9	
657.59	6765.8	
657.78	6608.8	
657.97	5081	
658.16	5404.6	
658.34	7109.2	
658.53	7309.2	
658.72	5948.7	
658.9	6085.9	
659.09	6855.9	
659.28	6784.9	
659.46	5324.7	
659.65	5312.4	
659.84	6720.1	
660.02	7096.9	
660.21	5299.5	
660.4	5254.4	
660.58	7187.7	
660.77	6808.1	
660.96	5563.6	
661.14	5033.2	
661.33	7509.2	
661.52	7404.1	
661.7	4984.8	
661.89	6705	
662.08	6627.2	
662.26	6288.6	
662.45	5153.4	
662.64	5246.2	
662.82	7055.9	
663.01	6518.7	
663.2	5197.1	
663.38	5571.2	
663.57	6829.3	
663.75	6873	
663.94	5354.8	
664.13	5987.6	
664.31	6642.2	
664.5	6923.5	
664.69	5427.8	
664.87	5702.9	
665.06	6434.7	
665.25	6730.3	
665.43	5815.5	
665.62	5822.4	
665.8	6966.5	
665.99	6542.6	
666.18	5412.8	
666.36	5331.5	
666.55	6889.4	
666.74	6903.7	
666.92	5212.1	
667.11	5943.2	
667.29	6706.4	
667.48	6950.1	
667.67	5731.6	
667.85	5238.7	
668.04	6548.7	
668.22	6525.5	
668.41	5391.6	
668.6	5599.8	
668.78	6476.4	
668.97	6579.4	
669.15	5506.3	
669.34	4921.3	
669.53	6524.8	
669.71	6612.9	
669.9	5081	
670.08	5375.9	
670.27	6385.6	
670.46	6831.3	
670.64	5526.8	
670.83	5594.4	
671.01	6368.5	
671.2	6695.5	
671.38	5076.2	
671.57	5092.6	
671.76	7164.5	
671.94	7224.6	
672.13	4966.3	
672.31	5507	
672.5	6951.5	
672.69	6483.2	
672.87	5143.8	
673.06	5251.7	
673.24	6870.3	
673.43	6577.4	
673.61	5434.6	
673.8	5210.7	
673.98	6760.3	
674.17	6892.1	
674.36	5571.2	
674.54	5492.7	
674.73	6502.3	
674.91	6985.6	
675.1	5324.7	
675.28	5079	
675.47	6662	
675.65	6849.8	
675.84	5370.5	
676.03	5468.8	
676.21	6514.6	
676.4	6150.7	
676.58	5645.6	
676.77	5601.2	
676.95	7358.4	
677.14	6469.5	
677.32	4994.3	
677.51	5040.7	
677.69	6883.9	
677.88	6431.3	
678.06	5107.6	
678.25	5122.7	
678.44	6664.8	
678.62	6400.6	
678.81	5008	
678.99	5402.5	
679.18	7017.7	
679.36	6790.4	
679.55	5259.9	
679.73	5516.5	
679.92	6797.9	
680.1	6441.5	
680.29	5877	
680.47	5281	
680.66	6524.1	
680.84	6892.8	
681.03	4887.8	
681.21	5537	
681.4	6474.3	
681.58	6504.3	
681.77	5180.7	
681.95	5100.8	
682.14	7030.7	
682.32	7076.4	
682.51	5504.9	
682.69	4999.8	
682.88	6493.4	
683.06	6658.6	
683.25	5433.9	
683.43	5602.6	
683.62	6735.8	
683.8	6771.3	
683.99	5751.4	
684.17	5317.2	
684.36	7281.9	
684.54	6555.5	
684.73	4971.8	
684.91	4953.4	
685.1	6726.9	
685.28	6253.8	
685.46	5176.6	
685.65	5194.3	
685.83	6609.5	
686.02	6332.3	
686.2	4920.6	
686.39	4933.6	
686.57	6103.6	
686.76	6924.9	
686.94	4886.5	
687.13	4976.6	
687.31	6554.2	
687.5	6443.6	
687.68	4724.7	
687.86	5266	
688.05	7388.4	
688.23	6095.4	
688.42	5432.6	
688.6	5064.6	
688.79	6356.9	
688.97	6399.9	
689.16	5332.2	
689.34	4792.9	
689.52	6784.2	
689.71	7053.2	
689.89	5448.3	
690.08	5104.9	
690.26	6752.8	
690.45	6552.1	
690.63	5493.3	
690.81	5342.5	
691	6710.5	
691.18	6451.8	
691.37	5395.7	
691.55	6436.1	
691.74	6432.7	
691.92	7466.2	
692.1	5261.9	
692.29	5053.7	
692.47	6774	
692.66	6331.6	
692.84	5167.7	
693.02	5345.9	
693.21	6277	
693.39	6685.9	
693.58	5533.6	
693.76	5183.4	
693.94	7238.2	
694.13	7257.3	
694.31	5337	
694.5	5899.5	
694.68	6630	
694.86	6952.2	
695.05	5623.7	
695.23	5844.9	
695.42	7132.4	
695.6	8335.9	
695.78	6010.8	
695.97	5505.6	
696.15	7312.6	
696.34	6918	
696.52	5437.4	
696.7	5947.3	
696.89	7163.8	
697.07	6777.4	
697.25	5769.8	
697.44	6536.4	
697.62	7171.3	
697.81	7152.2	
697.99	5702.2	
698.17	5948	
698.36	6864.1	
698.54	7104.4	
698.72	5839.4	
698.91	5374.6	
699.09	6976.7	
699.28	6744	
699.46	5722	
699.64	5622.4	
699.83	7006.8	
700.01	7361.8	
700.19	6037.4	
700.38	5270.8	
700.56	7311.9	
700.74	7047.7	
700.93	5563.6	
701.11	5966.4	
701.29	7311.2	
701.48	7898.3	
701.66	5626.5	
701.84	5742.5	
702.03	7200	
702.21	7559.7	
702.39	5556.1	
702.58	5983.5	
702.76	7455.3	
702.94	7544	
703.13	5565	
703.31	6898.2	
703.49	7202	
703.68	7716.1	
703.86	5807.4	
704.04	6289.3	
704.23	7502.4	
704.41	7653.9	
704.59	5870.2	
704.78	6457.2	
704.96	8422.6	
705.14	7616.4	
705.33	5877	
705.51	6204	
705.69	7329.7	
705.87	7814.4	
706.06	6410.1	
706.24	5839.4	
706.42	7608.9	
706.61	7724.3	
706.79	6442.2	
706.97	5866.7	
707.16	7320.8	
707.34	7549.5	
707.52	6347.3	
707.7	5962.3	
707.89	7380.2	
708.07	7268.2	
708.25	6485.9	
708.44	6599.2	
708.62	7293.5	
708.8	7966.6	
708.98	6619.7	
709.17	6198.5	
709.35	7520.1	
709.53	7651.2	
709.72	5996.5	
709.9	6059.9	
710.08	7819.1	
710.26	7813	
710.45	6860.7	
710.63	6200.6	
710.81	7550.9	
710.99	7679.2	
711.18	6442.2	
711.36	6203.3	
711.54	7440.3	
711.72	7935.2	
711.91	6142.5	
712.09	5961	
712.27	7550.9	
712.45	7907.9	
712.64	6210.8	
712.82	5747.3	
713	7200.7	
713.18	7232.7	
713.37	5700.9	
713.55	6309.1	
713.73	7610.9	
713.91	6857.3	
714.1	5767.8	
714.28	5375.9	
714.46	7127.6	
714.64	6605.4	
714.83	4983.4	
715.01	5208	
715.19	6595.8	
715.37	6121.4	
715.55	4887.1	
715.74	5001.8	
715.92	6789	
716.1	5726.1	
716.28	5623	
716.47	5098.1	
716.65	6200.6	
716.83	6224.5	
717.01	4990.2	
717.19	4964.3	
717.38	7183.6	
717.56	5904.3	
717.74	5053	
717.92	4627.7	
718.1	6610.2	
718.29	6279.1	
718.47	4652.3	
718.65	4977.2	
718.83	6822.5	
719.01	6851.1	
719.2	4775.9	
719.38	5418.2	
719.56	6907.1	
719.74	7688.1	
719.92	5334.3	
720.11	5797.1	
720.29	6875.7	
720.47	6396.5	
720.65	4966.3	
720.83	5236	
721.02	6436.8	
721.2	6261.3	
721.38	5163.6	
721.56	4853.7	
721.74	5954.8	
721.92	5897.5	
722.11	5307	
722.29	5233.9	
722.47	6688	
722.65	6153.5	
722.83	4767.7	
723.01	5193	
723.2	6114.6	
723.38	6425.8	
723.56	4476.9	
723.74	5040.1	
723.92	5964.4	
724.1	6490	
724.29	4730.1	
724.47	5306.3	
724.65	6088.6	
724.83	5971.9	
725.01	4672.8	
725.19	5076.9	
725.37	5958.9	
725.56	5988.9	
725.74	4691.9	
725.92	4790.9	
726.1	6044.9	
726.28	6209.4	
726.46	4931.5	
726.64	4838.7	
726.83	6316.6	
727.01	6235.4	
727.19	4681	
727.37	4952.7	
727.55	6362.4	
727.73	6516	
727.91	4573.8	
728.09	4597.7	
728.28	6445.6	
728.46	6657.3	
728.64	5055.1	
728.82	5149.3	
729	7078.5	
729.18	6752.8	
729.36	4740.4	
729.54	5853.8	
729.72	7318.1	
729.91	6455.2	
730.09	5879	
730.27	5223	
730.45	6525.5	
730.63	6770.6	
730.81	5501.5	
730.99	5133.6	
731.17	7245	
731.35	6371.2	
731.53	5289.2	
731.71	5157.5	
731.9	6969.9	
732.08	6973.3	
732.26	5342.5	
732.44	5099.4	
732.62	7052.5	
732.8	6817	
732.98	5498.8	
733.16	5006.6	
733.34	6828.6	
733.52	5991.7	
733.7	5168.4	
733.88	5262.6	
734.07	6674.3	
734.25	6509.1	
734.43	4964.3	
734.61	5712.5	
734.79	7320.1	
734.97	6458.6	
735.15	4956.8	
735.33	5207.3	
735.51	6683.9	
735.69	6479.1	
735.87	5691.3	
736.05	5195	
736.23	6594.5	
736.41	6315.3	
736.59	5231.9	
736.77	5147.2	
736.95	6866.8	
737.13	6404.7	
737.32	4958.1	
737.5	5073.5	
737.68	7098.9	
737.86	6281.8	
738.04	4862.6	
738.22	5806.7	
738.4	6295.5	
738.58	6470.9	
738.76	5115.1	
738.94	4555.4	
739.12	6351.4	
739.3	6283.9	
739.48	5426.4	
739.66	5231.9	
739.84	6426.5	
740.02	6404	
740.2	4653.7	
740.38	4773.8	
740.56	6630.6	
740.74	5897.5	
740.92	5132.9	
741.1	4977.9	
741.28	6314.6	
741.46	6101.6	
741.64	4902.2	
741.82	5091.3	
742	6392.4	
742.18	6245.6	
742.36	4917.2	
742.54	4736.3	
742.72	6651.8	
742.9	5812.8	
743.08	5059.8	
743.26	4382	
743.44	6524.1	
743.62	6455.9	
743.8	5044.1	
743.98	4595.6	
744.16	6237.4	
744.34	6030.6	
744.52	4992.3	
744.7	4946.5	
744.88	6380.1	
745.06	6045.6	
745.24	4998.4	
745.42	5109.7	
745.6	6393.1	
745.78	6273.6	
745.96	4362.9	
746.14	4499.4	
746.32	6692.8	
746.5	6090	
746.68	4663.9	
746.86	4444.1	
747.03	6438.8	
747.21	5613.5	
747.39	4737	
747.57	4330.1	
747.75	5889.3	
747.93	6107	
748.11	4362.2	
748.29	4334.9	
748.47	6892.8	
748.65	5841.5	
748.83	4730.1	
749.01	4604.5	
749.19	5979.4	
749.37	5572.5	
749.55	4538.3	
749.73	4546.5	
749.91	6038.1	
750.09	5803.9	
750.26	4615.4	
750.44	4253.6	
750.62	5882.4	
750.8	5769.8	
750.98	4150.5	
751.16	4322.6	
751.34	5986.2	
751.52	5537	
751.7	4693.9	
751.88	4117.8	
752.06	6172.6	
752.24	5970.5	
752.42	4089.1	
752.59	4255	
752.77	5843.5	
752.95	6445	
753.13	4649.6	
753.31	4358.1	
753.49	5617.6	
753.67	5752.7	
753.85	4414.1	
754.03	4188.8	
754.21	5915.2	
754.38	6029.9	
754.56	4225.6	
754.74	3661.8	
754.92	5400.5	
755.1	5623.7	
755.28	3528.7	
755.46	3485.6	
755.64	5956.2	
755.82	5885.9	
755.99	3396.9	
756.17	3362.8	
756.35	4316.4	
756.53	5048.2	
756.71	2682.8	
756.89	3371	
757.07	4806.6	
757.25	4367.6	
757.42	3424.9	
757.6	3870.7	
757.78	5003.2	
757.96	4556.7	
758.14	3397.6	
758.32	3179.8	
758.5	4259.8	
758.67	4627.7	
758.85	3271.3	
759.03	3278.8	
759.21	4792.9	
759.39	4435.2	
759.57	3005.1	
759.75	3611.3	
759.92	5242.8	
760.1	4886.5	
760.28	3818.8	
760.46	3942.3	
760.64	4786.8	
760.82	4749.9	
760.99	3811.3	
761.17	3437.2	
761.35	5283.8	
761.53	4646.2	
761.71	3629.7	
761.89	3845.4	
762.06	5208.7	
762.24	4991.6	
762.42	3764.2	
762.6	3571	
762.78	4956.1	
762.96	5239.4	
763.13	3882.9	
763.31	3652.2	
763.49	5306.3	
763.67	5010	
763.85	4193.6	
764.02	4493.2	
764.2	5629.2	
764.38	5041.4	
764.56	3646.1	
764.74	4119.8	
764.91	5675.6	
765.09	4984.1	
765.27	3547.8	
765.45	3422.2	
765.63	5617.6	
765.8	5483.8	
765.98	3321.8	
766.16	3433.1	
766.34	4690.5	
766.52	4633.2	
766.69	3835.8	
766.87	3353.2	
767.05	4972.5	
767.23	5365	
767.41	3469.3	
767.58	3614	
767.76	5248.3	
767.94	5238.7	
768.12	3496.6	
768.29	3822.2	
768.47	4814.8	
768.65	5375.9	
768.83	3241.9	
769	3789.4	
769.18	4696	
769.36	5044.1	
769.54	3821.5	
769.72	3275.4	
769.89	5298.1	
770.07	5106.3	
770.25	3486.3	
770.43	4048.8	
770.6	5614.2	
770.78	5659.2	
770.96	3560.7	
771.14	3828.3	
771.31	5206.6	
771.49	4786.8	
771.67	3035.8	
771.85	3125.9	
772.02	4343.7	
772.2	4689.2	
772.38	3569.6	
772.55	3196.2	
772.73	4910.3	
772.91	4737.6	
773.09	3411.9	
773.26	3519.8	
773.44	4855.1	
773.62	4687.8	
773.8	3207.8	
773.97	3050.8	
774.15	4851.6	
774.33	4740.4	
774.5	3086.3	
774.68	3280.2	
774.86	4861.9	
775.04	4647.5	
775.21	3162.7	
775.39	3090.4	
775.57	4736.3	
775.74	4874.8	
775.92	2962.7	
776.1	2909.5	
776.27	4698.7	
776.45	5352	
776.63	3067.2	
776.81	2868.5	
776.98	4605.9	
777.16	5029.1	
777.34	3061	
777.51	3263.1	
777.69	4554	
777.87	4374.5	
778.04	3205.8	
778.22	3406.5	
778.4	4416.1	
778.57	4731.5	
778.75	2747.7	
778.93	2902	
779.1	4358.1	
779.28	4182.6	
779.46	2705.4	
779.64	2939.5	
779.81	4838.7	
779.99	5261.9	
780.17	3368.9	
780.34	3403	
780.52	4492.6	
780.69	4524.6	
780.87	3149.1	
781.05	2877.4	
781.22	4563.6	
781.4	4543.8	
781.58	2955.2	
781.75	2538.1	
781.93	4586.1	
782.11	4104.1	
782.28	3394.2	
782.46	2921.8	
782.64	4069.3	
782.81	4617.5	
782.99	3002.3	
783.17	2979.8	
783.34	4474.1	
783.52	4139.6	
783.69	3004.4	
783.87	3476.1	
784.05	4315.1	
784.22	4126.7	
784.4	3415.3	
784.58	3083.6	
784.75	4751.3	
784.93	4296.6	
785.1	2904.7	
785.28	3159.3	
785.46	4633.9	
785.63	4094.6	
785.81	2953.2	
785.99	2790.7	
786.16	4332.1	
786.34	4377.9	
786.51	2808.4	
786.69	3053.5	
786.87	3943.7	
787.04	4259.8	
787.22	2754.5	
787.39	3224.2	
787.57	4126.7	
787.75	4704.9	
787.92	3368.9	
788.1	3249.4	
788.27	4114.4	
788.45	3859.1	
788.63	3181.2	
788.8	2508.8	
788.98	4388.1	
789.15	3848.8	
789.33	2585.9	
789.5	2864.4	
789.68	4620.2	
789.86	4633.9	
790.03	3099.9	
790.21	2737.5	
790.38	4631.1	
790.56	4167.6	
790.73	2719	
790.91	2686.3	
791.09	4100.7	
791.26	4463.9	
791.44	2927.9	
791.61	2597.5	
791.79	4152.6	
791.96	4132.8	
792.14	2647.3	
792.32	2443.2	
792.49	4067.3	
792.67	4187.4	
792.84	2687.6	
793.02	2574.3	
793.19	4351.3	
793.37	4657.8	
793.54	2382.5	
793.72	2570.9	
793.89	4669.4	
794.07	4040.6	
794.25	2884.2	
794.42	2399.5	
794.6	4593.6	
794.77	4353.3	
794.95	3022.1	
795.12	2710.8	
795.3	4139.6	
795.47	4372.4	
795.65	2936.1	
795.82	2762.7	
796	4012	
796.17	4875.5	
796.35	2784.6	
796.52	3169.6	
796.7	4381.3	
796.87	4401.8	
797.05	2772.3	
797.22	3207.8	
797.4	4446.8	
797.57	4838	
797.75	2882.2	
797.92	2663	
798.1	4605.9	
798.27	3870.7	
798.45	2437.1	
798.62	2553.1	
798.8	4225	
798.97	4449.6	
799.15	2962.7	
799.32	2827.6	
799.5	3850.9	
799.67	4156.7	
799.85	3009.1	
800.02	2400.9	
800.2	4065.2	
800.37	4147.8	
800.55	3054.9	
800.72	2671.9	
800.9	4506.2	
801.07	4651.6	
801.25	3354.6	
801.42	2939.5	
801.6	4478.2	
801.77	4148.5	
801.95	2760	
802.12	2679.4	
802.29	4317.8	
802.47	4186.7	
802.64	2925.9	
802.82	2335.4	
802.99	4043.4	
803.17	4475.5	
803.34	2816	
803.52	2594.8	
803.69	4798.4	
803.87	3833.8	
804.04	2798.2	
804.21	2831.7	
804.39	4661.2	
804.56	4078.9	
804.74	2529.9	
804.91	2907.4	
805.09	4006.5	
805.26	4071.4	
805.44	2522.4	
805.61	2686.9	
805.78	4453.6	
805.96	4339	
806.13	2863.1	
806.31	3030.3	
806.48	3736.2	
806.66	4037.9	
806.83	2890.4	
807	2804.4	
807.18	4046.8	
807.35	4160.8	
807.53	2781.8	
807.7	2435	
807.87	4630.5	
808.05	3956	
808.22	2960.7	
808.4	2406.4	
808.57	3871.3	
808.74	3780.6	
808.92	2620	
809.09	3183.9	
809.27	4044.7	
809.44	4209.3	
809.61	2347	
809.79	2555.9	
809.96	4749.9	
810.14	4268	
810.31	2378.4	
810.48	2974.3	
810.66	4028.4	
810.83	4366.3	
811.01	2567.5	
811.18	2843.9	
811.35	4428.4	
811.53	3612.6	
811.7	2998.2	
811.87	2833	
812.05	4104.1	
812.22	3940.3	
812.39	2541.5	
812.57	2425.5	
812.74	4059.1	
812.92	4900.1	
813.09	2794.8	
813.26	2869.9	
813.44	4729.4	
813.61	3897.3	
813.78	2390	
813.96	2925.2	
814.13	4037.2	
814.3	3866.6	
814.48	3126.6	
814.65	2654.9	
814.82	4610.7	
815	3805.8	
815.17	2774.3	
815.34	3233.7	
815.52	3956.7	
815.69	3952.6	
815.87	2693.1	
816.04	2709.5	
816.21	3926	
816.38	3731.4	
816.56	2669.2	
816.73	2547.7	
816.9	4824.3	
817.08	4293.9	
817.25	2564.1	
817.42	2992.8	
817.6	3772.4	
817.77	3918.4	
817.94	2797.5	
818.12	2512.9	
818.29	3889.1	
818.46	5147.2	
818.64	2725.2	
818.81	2440.5	
818.98	3878.9	
819.16	4919.9	
819.33	2865.8	
819.5	2726.5	
819.67	4208.6	
819.85	4535.6	
820.02	2747.7	
820.19	2824.1	
820.37	4119.8	
820.54	3917.8	
820.71	2822.8	
820.88	3320.4	
821.06	4097.3	
821.23	3854.3	
821.4	2793.4	
821.58	2793.4	
821.75	4273.4	
821.92	4087.1	
822.09	2353.1	
822.27	2514.9	
822.44	3953.9	
822.61	3938.2	
822.79	2399.5	
822.96	3921.9	
823.13	4090.5	
823.3	3773	
823.48	2618.7	
823.65	2448	
823.82	4425	
823.99	3787.4	
824.17	3178.4	
824.34	2474.6	
824.51	4879.6	
824.68	4005.1	
824.86	2551.1	
825.03	2754.5	
825.2	4006.5	
825.37	4493.9	
825.55	2597.5	
825.72	2729.9	
825.89	4851	
826.06	4509.6	
826.24	2671.2	
826.41	2714.9	
826.58	4648.9	
826.75	4108.2	
826.92	2283.5	
827.1	2468.5	
827.27	5836.7	
827.44	4713.7	
827.61	2542.9	
827.79	2934.7	
827.96	3935.5	
828.13	3966.9	
828.3	2672.6	
828.47	2319.7	
828.65	4297.3	
828.82	4177.2	
828.99	3188	
829.16	2799.6	
829.34	4411.3	
829.51	4346.5	
829.68	2725.2	
829.85	2707.4	
830.02	4711.7	
830.2	4403.8	
830.37	2222.7	
830.54	3102.7	
830.71	4812	
830.88	4059.8	
831.05	2262.3	
831.23	2446	
831.4	4752	
831.57	4995	
831.74	2544.9	
831.91	2297.8	
832.09	4391.5	
832.26	4379.2	
832.43	2561.3	
832.6	2807.8	
832.77	4227	
832.94	4630.5	
833.12	2207	
833.29	2551.1	
833.46	4252.9	
833.63	5143.1	
833.8	2787.3	
833.97	2594.1	
834.15	4539	
834.32	4292.5	
834.49	2642.6	
834.66	2740.9	
834.83	4418.2	
835	3913	
835.17	2510.1	
835.35	2564.1	
835.52	4405.9	
835.69	4351.9	
835.86	2635.7	
836.03	2254.1	
836.2	4459.1	
836.37	4233.2	
836.55	2532	
836.72	2444.6	
836.89	4179.9	
837.06	4500.1	
837.23	2621.4	
837.4	2785.2	
837.57	4857.8	
837.75	5099.4	
837.92	2399.5	
838.09	2550.4	
838.26	4177.9	
838.43	4486.4	
838.6	2659.6	
838.77	2456.9	
838.94	4897.4	
839.11	4889.9	
839.29	2626.2	
839.46	2167.4	
839.63	4457.1	
839.8	4248.2	
839.97	2497.2	
840.14	2506.7	
840.31	4323.3	
840.48	4425	
840.65	2168.1	
840.82	2525.8	
841	4384.7	
841.17	4239.3	
841.34	2333.3	
841.51	2475.3	
841.68	4386.7	
841.85	4182.6	
842.02	2484.2	
842.19	2125.1	
842.36	4337.6	
842.53	4292.5	
842.7	2411.8	
842.87	2714.9	
843.05	5141.1	
843.22	4244.1	
843.39	2276	
843.56	2514.9	
843.73	4225.6	
843.9	4518.5	
844.07	3461.1	
844.24	2910.8	
844.41	5609.4	
844.58	3992.9	
844.75	2316.9	
844.92	2435.7	
845.09	4321.9	
845.26	4365.6	
845.43	2396.1	
845.6	2512.2	
845.77	4410.6	
845.94	4283	
846.12	2593.4	
846.29	2570.9	
846.46	4586.8	
846.63	4344.4	
846.8	2368.1	
846.97	2721.1	
847.14	4576.5	
847.31	4350.6	
847.48	2601.6	
847.65	2812.5	
847.82	4258.4	
847.99	4418.8	
848.16	3001.6	
848.33	2713.6	
848.5	4114.4	
848.67	4648.9	
848.84	2275.3	
849.01	2430.3	
849.18	4128	
849.35	3867.9	
849.52	2753.8	
849.69	2337.4	
849.86	4589.5	
850.03	4466.6	
850.2	2347.7	
850.37	2710.1	
850.54	4533.5	
850.71	4102.1	
850.88	2721.8	
851.05	2291	
851.22	4262.5	
851.39	4610	
851.56	2252.8	
851.73	2649.4	
851.9	3995.6	
852.07	4516.5	
852.24	2577	
852.41	2329.9	
852.58	4389.5	
852.75	4003.1	
852.92	2554.5	
853.09	2312.8	
853.26	3994.9	
853.43	4586.8	
853.6	2395.4	
853.77	2046.6	
853.94	4669.4	
854.11	3947.1	
854.28	3175.7	
854.44	2527.2	
854.61	4849.6	
854.78	4524.6	
854.95	2318.3	
855.12	2794.1	
855.29	3685	
855.46	4792.2	
855.63	2407.7	
855.8	3008.5	
855.97	4079.6	
856.14	4581.3	
856.31	3074	
856.48	2519.7	
856.65	4171	
856.82	3938.9	
856.99	2271.2	
857.16	2549.7	
857.33	4930.8	
857.49	4196.3	
857.66	2472.6	
857.83	2592.7	
858	4246.8	
858.17	4326.7	
858.34	2215.9	
858.51	2379.7	
858.68	4650.9	
858.85	4704.9	
859.02	2683.5	
859.19	2760.7	
859.36	3959.4	
859.52	3851.5	
859.69	2376.3	
859.86	2684.2	
860.03	3952.6	
860.2	4628.4	
860.37	2215.9	
860.54	2410.5	
860.71	4428.4	
860.88	4676.2	
861.05	2549.7	
861.21	2835.1	
861.38	4610	
861.55	3812.6	
861.72	2191.3	
861.89	2480.1	
862.06	4458.4	
862.23	4706.2	
862.4	2299.9	
862.56	2366.8	
862.73	4425	
862.9	4205.8	
863.07	2601.6	
863.24	2234.3	
863.41	3968.3	
863.58	3987.4	
863.75	2353.1	
863.91	2664.4	
864.08	4536.3	
864.25	4412.7	
864.42	2794.1	
864.59	3091.1	
864.76	4812	
864.93	3960.1	
865.09	2278.7	
865.26	2475.3	
865.43	4614.8	
865.6	4813.4	
865.77	2112.8	
865.94	2312.2	
866.1	4647.5	
866.27	4334.9	
866.44	3248.1	
866.61	2220	
866.78	4143.7	
866.95	4416.8	
867.11	2388.6	
867.28	2140.8	
867.45	4594.3	
867.62	3948.5	
867.79	2551.1	
867.96	2359.3	
868.12	3862.5	
868.29	4412.7	
868.46	2303.3	
868.63	2951.8	
868.8	4590.9	
868.97	4442.7	
869.13	2417.3	
869.3	2454.8	
869.47	4296	
869.64	4513.7	
869.81	2285.5	
869.97	2364.7	
870.14	4283.7	
870.31	4633.9	
870.48	2281.4	
870.65	2812.5	
870.81	4251.6	
870.98	4158.7	
871.15	2541.5	
871.32	2380.4	
871.48	4394.3	
871.65	4702.1	
871.82	2344.9	
871.99	2537.4	
872.16	4936.3	
872.32	4596.3	
872.49	2414.6	
872.66	2341.5	
872.83	4473.4	
872.99	4080.2	
873.16	2617.3	
873.33	2327.9	
873.5	4228.4	
873.67	4290.5	
873.83	2471.9	
874	2959.3	
874.17	4349.9	
874.34	4742.4	
874.5	2854.2	
874.67	2776.4	
874.84	4608.6	
875.01	3833.1	
875.17	3027.6	
875.34	2305.3	
875.51	4292.5	
875.68	4986.1	
875.84	2749.7	
876.01	3114.3	
876.18	4418.8	
876.34	4413.4	
876.51	2326.5	
876.68	2232.3	
876.85	4117.1	
877.01	4691.9	
877.18	3102.7	
877.35	2269.1	
877.52	4375.8	
877.68	4004.5	
877.85	2305.3	
878.02	2290.3	
878.18	3951.2	
878.35	4158.1	
878.52	2002.9	
878.69	2669.9	
878.85	4590.2	
879.02	4423.6	
879.19	3165.5	
879.35	2480.8	
879.52	4501.4	
879.69	4394.3	
879.86	2121	
880.02	2607.1	
880.19	4277.5	
880.36	4855.1	
880.52	2604.3	
880.69	2693.8	
880.86	4486.4	
881.02	4530.1	
881.19	2524.5	
881.36	2463.7	
881.52	4435.9	
881.69	3972.4	
881.86	2500.6	
882.02	2469.2	
882.19	4614.8	
882.36	5066.7	
882.52	2411.1	
882.69	3090.4	
882.86	4311.7	
883.02	4363.5	
883.19	2718.3	
883.36	2579.8	
883.52	4511	
883.69	4874.8	
883.86	2406.4	
884.02	2224.8	
884.19	4422.2	
884.36	4235.2	
884.52	2588.6	
884.69	2510.1	
884.86	4149.9	
885.02	4657.1	
885.19	2485.6	
885.36	2620.7	
885.52	4084.3	
885.69	4377.2	
885.86	3150.5	
886.02	2820.7	
886.19	4487.8	
886.35	4053.6	
886.52	2550.4	
886.69	3074	
886.85	3977.2	
887.02	4637.3	
887.19	4637.3	
887.35	4637.3	
887.52	4637.3	
887.68	4637.3	
887.85	4637.3	
888.02	4637.3	
888.18	4637.3	
888.35	4637.3	
888.51	4637.3	
888.68	4637.3	
888.85	4637.3	
889.01	4637.3	
889.18	4637.3	
889.35	4637.3	
889.51	4637.3	
889.68	4637.3	
889.84	4637.3	
890.01	4637.3	
890.17	4637.3	
890.34	4637.3	
890.51	4637.3	
890.67	4637.3	
890.84	4637.3	
891	4637.3	
891.17	4637.3	
891.34	4637.3	
891.5	4637.3	
891.67	4637.3	
891.83	4637.3	
892	4637.3	
892.16	4637.3	
892.33	4637.3	
892.5	4637.3	
892.66	4637.3	
892.83	4637.3	
892.99	4637.3	
893.16	4637.3	
893.32	4637.3	
893.49	4637.3	
893.65	4637.3	
893.82	4637.3	
893.99	4637.3	
894.15	4637.3	
894.32	4637.3	
894.48	4637.3	
894.65	4637.3	
894.81	4637.3	
894.98	4637.3	
895.14	4637.3	
895.31	4637.3	
895.47	4637.3	
895.64	4637.3	
895.81	4637.3	
895.97	4637.3	
896.14	4637.3	
896.3	4637.3	
896.47	4637.3	
896.63	4637.3	
896.8	4637.3	
896.96	4637.3	
897.13	4637.3	
897.29	4637.3	
897.46	4637.3	
897.62	4637.3	
897.79	4637.3	
897.95	4637.3	
898.12	4637.3	
898.28	4637.3	
898.45	4637.3	
898.61	4637.3	
898.78	4637.3	
898.94	4637.3	
899.11	4637.3	
899.27	4637.3	
899.44	4637.3	
899.6	4637.3	
899.77	4637.3	
899.93	4637.3	
900.1	4637.3	
900.26	4637.3	
900.43	4637.3	
900.59	4637.3	
900.76	4637.3	
900.92	4637.3	
901.09	4637.3	
901.25	4637.3	
901.42	4637.3	
901.58	4637.3	
901.75	4637.3	
901.91	4637.3	
902.07	4637.3	
902.24	4637.3	
902.4	4637.3	
902.57	4637.3	
902.73	4637.3	
902.9	4637.3	
903.06	4637.3	
903.23	4637.3	
903.39	4637.3	
903.56	4637.3	
903.72	4637.3	
903.88	4637.3	
904.05	4637.3	
904.21	4637.3	
904.38	4637.3	
904.54	4637.3	
904.71	4637.3	
904.87	4637.3	
905.03	4637.3	
905.2	4637.3	
905.36	4637.3	
905.53	4637.3	
905.69	4637.3	
905.86	4637.3	
906.02	4637.3	
906.18	4637.3	
906.35	4637.3	
906.51	4637.3	
906.68	4637.3	
906.84	4637.3	
907.01	4637.3	
907.17	4637.3	
907.33	4637.3	
907.5	4637.3	
907.66	4637.3	
907.83	4637.3	
907.99	4637.3	
908.15	4637.3	
908.32	4637.3	
908.48	4637.3	
908.65	4637.3	
908.81	4637.3	
908.97	4637.3	
909.14	4637.3	
909.3	4637.3	
909.47	4637.3	
909.63	4637.3	
909.79	4637.3	
909.96	4637.3	
910.12	4637.3	
910.28	4637.3	
910.45	4637.3	
910.61	4637.3	
910.78	4637.3	
910.94	4637.3	
911.1	4637.3	
911.27	4637.3	
911.43	4637.3	
911.59	4637.3	
911.76	4637.3	
911.92	4637.3	
912.08	4637.3	
912.25	4637.3	
912.41	4637.3	
912.57	4637.3	
912.74	4637.3	
912.9	4637.3	
913.07	4637.3	
913.23	4637.3	
913.39	4637.3	
913.56	4637.3	
913.72	4637.3	
913.88	4637.3	
914.05	4637.3	
914.21	4637.3	
914.37	4637.3	
914.54	4637.3	
914.7	4637.3	
914.86	4637.3	
915.03	4637.3	
915.19	4637.3	
