Wavelength	Intensities	
nm	a.u.	
179.22	1671	
179.44	1674.2	
179.65	1667.7	
179.86	1680.7	
180.08	1666.4	
180.29	3785.3	
180.51	2970.2	
180.72	4891.9	
180.94	5418.9	
181.15	2637.8	
181.37	2641.2	
181.58	4667.3	
181.79	4855.7	
182.01	2752.5	
182.22	2890.4	
182.44	4906.9	
182.65	4268	
182.87	3532.7	
183.08	3155.9	
183.29	5124	
183.51	4345.8	
183.72	2919	
183.94	3984.7	
184.15	4674.8	
184.37	4549.9	
184.58	2624.8	
184.79	3366.9	
185.01	4442.7	
185.22	4943.8	
185.44	3509.5	
185.65	3057.6	
185.86	4679.6	
186.08	4292.5	
186.29	2607.1	
186.51	2699.9	
186.72	4384.7	
186.94	5012.7	
187.15	3105.4	
187.36	3186.6	
187.58	6182.1	
187.79	4712.4	
188.01	3201.7	
188.22	4832.5	
188.43	5473.5	
188.65	4883	
188.86	2714.9	
189.08	3201.7	
189.29	4457.7	
189.5	4495.3	
189.72	2947.7	
189.93	2991.4	
190.15	4971.1	
190.36	5754.1	
190.57	3221.5	
190.79	3074.7	
191	5067.4	
191.22	4984.1	
191.43	3222.1	
191.64	2803.7	
191.86	5287.9	
192.07	4990.9	
192.29	2831.7	
192.5	2942.9	
192.71	5047.6	
192.93	4519.9	
193.14	2957.3	
193.35	2979.8	
193.57	4446.1	
193.78	5002.5	
194	2416.6	
194.21	2855.6	
194.42	4323.9	
194.64	4678.2	
194.85	3080.8	
195.07	3652.2	
195.28	4619.5	
195.49	4160.1	
195.71	3776.5	
195.92	2746.3	
196.13	4805.2	
196.35	4784.1	
196.56	3938.2	
196.78	3190.1	
196.99	5765	
197.2	5421.7	
197.42	3527.3	
197.63	3190.1	
197.84	4235.9	
198.06	4842.8	
198.27	2942.9	
198.48	3771.7	
198.7	4490.5	
198.91	4708.3	
199.13	3170.3	
199.34	3139.5	
199.55	5068	
199.77	4057	
199.98	2828.2	
200.19	3241.9	
200.41	4528.1	
200.62	4392.9	
200.83	3289	
201.05	3528.7	
201.26	4619.5	
201.47	4403.1	
201.69	2865.8	
201.9	2793.4	
202.11	4651.6	
202.33	5320.6	
202.54	3006.4	
202.76	3291.8	
202.97	4638	
203.18	4757.4	
203.4	3289	
203.61	3294.5	
203.82	4683.7	
204.04	4384.7	
204.25	3149.1	
204.46	3157.3	
204.68	4635.2	
204.89	4801.8	
205.1	3111.5	
205.32	2761.3	
205.53	4837.3	
205.74	5042.1	
205.96	2414.6	
206.17	3229.6	
206.38	4887.8	
206.6	5005.9	
206.81	3572.3	
207.02	2974.3	
207.24	4851	
207.45	5122	
207.66	3042.6	
207.88	2748.4	
208.09	4794.3	
208.3	4625	
208.52	2804.4	
208.73	3091.8	
208.94	4635.2	
209.15	5079	
209.37	3042.6	
209.58	3155.2	
209.79	5048.2	
210.01	4539	
210.22	2541.5	
210.43	2649.4	
210.65	4610.7	
210.86	4900.8	
211.07	3043.3	
211.29	2791.4	
211.5	4836.6	
211.71	4595	
211.93	2848.7	
212.14	2859.6	
212.35	4641.4	
212.56	4693.9	
212.78	3215.3	
212.99	2650.1	
213.2	5321.3	
213.42	4521.2	
213.63	2905.4	
213.84	3019.4	
214.06	4216.1	
214.27	4237.9	
214.48	3016.7	
214.69	3205.1	
214.91	5085.1	
215.12	5124.7	
215.33	3222.1	
215.55	3443.3	
215.76	5518.6	
215.97	4872.8	
216.18	3048.1	
216.4	3080.1	
216.61	4384	
216.82	4982.7	
217.04	2845.3	
217.25	2970.2	
217.46	5036	
217.67	4951.3	
217.89	2583.9	
218.1	2718.3	
218.31	4678.2	
218.53	4803.9	
218.74	2977.1	
218.95	2886.3	
219.16	4671.4	
219.38	5300.8	
219.59	2884.9	
219.8	3337.5	
220.01	5659.9	
220.23	4647.5	
220.44	3567.6	
220.65	2817.3	
220.87	4660.5	
221.08	5046.9	
221.29	2704	
221.5	3396.2	
221.72	5975.3	
221.93	4404.5	
222.14	3237.2	
222.35	3681.6	
222.57	4631.1	
222.78	4970.4	
222.99	3106.1	
223.2	3189.4	
223.42	4804.5	
223.63	4924	
223.84	2461.7	
224.05	2447.3	
224.27	5545.9	
224.48	5284.4	
224.69	3700.7	
224.9	3193.5	
225.12	4680.3	
225.33	4635.2	
225.54	2611.8	
225.75	2936.8	
225.97	4331.5	
226.18	4589.5	
226.39	3068.5	
226.6	2914.3	
226.82	4465.9	
227.03	4377.2	
227.24	3161.4	
227.45	2691	
227.67	4961.5	
227.88	5290.6	
228.09	3548.4	
228.3	3477.5	
228.52	4934.9	
228.73	4624.3	
228.94	2947	
229.15	2710.8	
229.36	4598.4	
229.58	4526	
229.79	3004.4	
230	3418.1	
230.21	5369.1	
230.43	4664.6	
230.64	3156.6	
230.85	3201.7	
231.06	5021.6	
231.28	4973.8	
231.49	2712.2	
231.7	3115	
231.91	4934.2	
232.12	4624.3	
232.34	2816	
232.55	3087.7	
232.76	5075.5	
232.97	4770.4	
233.18	2838.5	
233.4	3158.7	
233.61	4754.7	
233.82	4422.2	
234.03	3038.5	
234.25	2978.4	
234.46	6120.7	
234.67	4613.4	
234.88	3260.4	
235.09	2953.9	
235.31	4803.9	
235.52	4554	
235.73	3145	
235.94	2728.6	
236.15	4466.6	
236.37	5423	
236.58	2810.5	
236.79	3026.2	
237	4859.1	
237.21	4276.8	
237.43	3308.8	
237.64	2638.5	
237.85	7503.8	
238.06	4323.9	
238.27	3213.9	
238.48	2725.8	
238.7	4895.3	
238.91	4588.1	
239.12	2975	
239.33	3145	
239.54	4401.8	
239.76	4541	
239.97	3054.2	
240.18	3065.8	
240.39	5437.4	
240.6	4719.9	
240.82	3146.4	
241.03	2736.1	
241.24	4564.9	
241.45	5187.5	
241.66	2884.2	
241.87	3253.5	
242.09	5169.1	
242.3	5362.3	
242.51	3332.7	
242.72	3038.5	
242.93	4949.9	
243.14	4600.4	
243.36	3482.9	
243.57	3762.1	
243.78	5224.4	
243.99	4858.5	
244.2	3099.9	
244.41	2770.2	
244.63	4320.5	
244.84	4827.7	
245.05	3287.7	
245.26	3053.5	
245.47	4934.9	
245.68	4933.6	
245.9	3874.1	
246.11	3243.3	
246.32	4513	
246.53	4808.6	
246.74	4744.5	
246.95	2680.8	
247.16	4395.6	
247.38	4636.6	
247.59	2709.5	
247.8	3096.5	
248.01	4341	
248.22	4574.5	
248.43	2814.6	
248.64	3016	
248.86	4229.1	
249.07	4447.5	
249.28	2800.3	
249.49	3160	
249.7	4992.9	
249.91	5045.5	
250.12	2685.6	
250.34	2704.7	
250.55	4745.1	
250.76	4660.5	
250.97	3162.1	
251.18	3175.7	
251.39	5057.1	
251.6	4751.3	
251.81	3196.2	
252.03	3188.7	
252.24	4457.1	
252.45	4971.8	
252.66	2714.9	
252.87	3310.2	
253.08	4643.4	
253.29	5743.2	
253.5	2760.7	
253.72	3633.8	
253.93	4597	
254.14	5313.1	
254.35	2935.4	
254.56	2951.8	
254.77	4805.2	
254.98	4362.2	
255.19	2910.8	
255.41	3630.4	
255.62	4751.3	
255.83	5096.7	
256.04	3210.5	
256.25	3180.5	
256.46	5481.7	
256.67	4470	
256.88	3154.6	
257.09	3441.3	
257.31	4352.6	
257.52	4411.3	
257.73	3850.9	
257.94	2960.7	
258.15	4549.2	
258.36	4655	
258.57	3523.9	
258.78	2435.7	
258.99	5007.3	
259.2	4528.1	
259.41	2884.9	
259.63	3040.6	
259.84	5209.3	
260.05	5484.5	
260.26	3691.8	
260.47	2880.8	
260.68	5036.6	
260.89	4519.9	
261.1	3437.9	
261.31	2894.5	
261.52	5114.5	
261.73	5280.3	
261.95	3745.1	
262.16	3225.6	
262.37	5093.3	
262.58	5198.4	
262.79	3654.9	
263	2966.8	
263.21	4661.9	
263.42	4251.6	
263.63	3213.9	
263.84	2970.9	
264.05	5041.4	
264.26	5221.6	
264.47	3582.6	
264.69	3136.8	
264.9	5210	
265.11	4827.7	
265.32	2845.3	
265.53	2912.2	
265.74	4748.6	
265.95	4197	
266.16	3138.2	
266.37	3347.1	
266.58	4742.4	
266.79	4498	
267	2990	
267.21	2779.1	
267.42	4326.7	
267.63	4659.8	
267.84	3046.7	
268.06	2689	
268.27	4988.9	
268.48	5104.9	
268.69	3016.7	
268.9	3476.1	
269.11	5177.3	
269.32	4191.5	
269.53	2996.2	
269.74	2878.1	
269.95	4847.5	
270.16	4235.2	
270.37	3120.4	
270.58	3522.5	
270.79	4535.6	
271	5033.9	
271.21	3211.9	
271.42	3070.6	
271.63	4804.5	
271.84	4314.4	
272.05	2553.8	
272.26	2760	
272.47	4627	
272.68	4787.5	
272.89	2998.2	
273.11	3300	
273.32	4480.3	
273.53	5257.1	
273.74	3231.7	
273.95	3197.6	
274.16	4970.4	
274.37	4640	
274.58	3377.1	
274.79	2772.3	
275	4784.1	
275.21	5026.4	
275.42	3883.6	
275.63	3392.1	
275.84	4902.2	
276.05	5839.4	
276.26	3254.9	
276.47	3003.7	
276.68	4589.5	
276.89	5373.9	
277.1	3415.3	
277.31	2715.6	
277.52	4827.1	
277.73	5000.5	
277.94	2734	
278.15	2995.5	
278.36	4795	
278.57	4437.9	
278.78	2964.8	
278.99	3272.7	
279.2	4483.7	
279.41	4350.6	
279.62	3751.2	
279.83	2764.8	
280.04	5433.3	
280.25	4371	
280.46	3736.2	
280.67	3084.9	
280.88	4411.3	
281.09	5117.9	
281.3	3207.1	
281.51	3936.9	
281.72	4401.8	
281.93	4926.7	
282.14	2946.3	
282.35	3090.4	
282.56	5013.4	
282.77	4941.7	
282.98	3026.2	
283.19	3564.1	
283.4	5968.5	
283.61	4612.7	
283.82	2810.5	
284.03	3745.7	
284.24	4782.7	
284.45	5031.2	
284.66	3685.7	
284.87	3507.5	
285.08	5063.3	
285.29	5154.7	
285.5	2689	
285.71	3008.5	
285.92	5024.3	
286.12	5530.2	
286.33	3635.8	
286.54	3041.2	
286.75	4984.8	
286.96	4554.7	
287.17	2834.4	
287.38	3528	
287.59	4440.7	
287.8	4406.5	
288.01	3033.7	
288.22	3383.9	
288.43	4868	
288.64	4242	
288.85	3536.2	
289.06	3329.3	
289.27	4975.9	
289.48	5240.1	
289.69	3717.7	
289.9	3413.3	
290.11	5142.4	
290.32	4436.6	
290.53	3548.4	
290.74	3292.5	
290.94	4971.8	
291.15	4962.9	
291.36	2917	
291.57	3330	
291.78	4496.7	
291.99	4220.9	
292.2	2867.2	
292.41	3319.1	
292.62	4975.2	
292.83	4842.8	
293.04	3975.1	
293.25	2854.9	
293.46	4543.1	
293.67	5046.2	
293.88	2907.4	
294.09	2833	
294.29	4347.2	
294.5	4745.1	
294.71	3080.8	
294.92	2904	
295.13	4504.2	
295.34	5421	
295.55	2700.6	
295.76	2624.1	
295.97	4908.3	
296.18	5386.8	
296.39	2760	
296.6	2845.3	
296.81	4671.4	
297.01	5003.2	
297.22	3013.2	
297.43	2919	
297.64	4512.4	
297.85	4326.7	
298.06	2471.9	
298.27	2674	
298.48	4645.5	
298.69	4422.9	
298.9	3122.5	
299.11	2876.7	
299.31	4354	
299.52	4387.4	
299.73	3330.7	
299.94	3210.5	
300.15	4669.4	
300.36	4388.8	
300.57	3308.8	
300.78	3188.7	
300.99	4554	
301.2	4709	
301.4	2892.4	
301.61	3087.7	
301.82	4895.3	
302.03	4941.1	
302.24	3397.6	
302.45	2783.9	
302.66	4878.3	
302.87	5059.2	
303.08	2957.3	
303.29	3722.5	
303.49	4505.5	
303.7	4623.6	
303.91	2629.6	
304.12	3619.4	
304.33	4242.7	
304.54	4801.8	
304.75	2937.5	
304.96	2878.1	
305.16	4848.9	
305.37	5325.4	
305.58	2618.7	
305.79	2687.6	
306	4915.8	
306.21	4190.1	
306.42	2947	
306.63	4266.6	
306.83	4527.4	
307.04	4975.9	
307.25	3193.5	
307.46	3127.9	
307.67	4188.1	
307.88	4837.3	
308.09	2953.2	
308.29	2912.9	
308.5	4729.4	
308.71	5063.3	
308.92	3054.2	
309.13	2774.3	
309.34	4684.4	
309.55	4551.3	
309.75	3543	
309.96	3289	
310.17	4920.6	
310.38	4399	
310.59	3362.8	
310.8	2737.5	
311.01	4523.3	
311.21	4570.4	
311.42	2863.1	
311.63	2894.5	
311.84	4522.6	
312.05	4681	
312.26	3242.6	
312.46	3449.5	
312.67	4542.4	
312.88	4254.3	
313.09	2849.4	
313.3	2819.4	
313.51	5179.3	
313.71	5433.3	
313.92	2841.9	
314.13	2970.2	
314.34	4769	
314.55	4596.3	
314.76	3508.9	
314.96	3099.3	
315.17	4758.8	
315.38	4811.4	
315.59	2878.8	
315.8	2745	
316.01	5155.4	
316.21	5248.9	
316.42	2783.2	
316.63	3125.2	
316.84	4569.7	
317.05	4969.7	
317.26	3306.8	
317.46	2990	
317.67	4628.4	
317.88	4954.7	
318.09	3488.4	
318.3	2669.9	
318.5	4467.3	
318.71	4829.8	
318.92	4272.7	
319.13	3237.2	
319.34	4971.8	
319.54	5069.4	
319.75	2671.9	
319.96	2596.8	
320.17	4913.8	
320.38	5011.4	
320.58	2639.1	
320.79	3056.9	
321	5041.4	
321.21	5119.2	
321.42	3145.7	
321.62	2598.9	
321.83	4396.3	
322.04	4689.8	
322.25	2983.2	
322.46	2848	
322.66	4702.8	
322.87	4894.6	
323.08	3408.5	
323.29	2782.5	
323.5	5399.8	
323.7	4347.2	
323.91	3676.1	
324.12	3381.2	
324.33	4767	
324.53	4823	
324.74	3226.9	
324.95	3358.7	
325.16	4274.8	
325.37	4493.9	
325.57	2835.1	
325.78	2839.2	
325.99	4734.2	
326.2	4264.6	
326.4	3815.4	
326.61	2679.4	
326.82	4586.1	
327.03	4740.4	
327.24	3844.7	
327.44	3609.2	
327.65	4883.7	
327.86	4044.7	
328.07	3246	
328.27	2770.2	
328.48	5212.1	
328.69	4326	
328.9	3822.2	
329.1	2921.1	
329.31	4605.2	
329.52	5128.8	
329.73	2892.4	
329.93	3106.1	
330.14	4719.9	
330.35	4807.3	
330.56	4407.2	
330.76	3437.9	
330.97	4557.4	
331.18	4709.6	
331.39	3137.5	
331.59	2610.5	
331.8	5042.1	
332.01	5145.2	
332.22	2932.7	
332.42	3220.8	
332.63	4771.8	
332.84	4373.8	
333.05	3172.3	
333.25	2908.8	
333.46	4440	
333.67	4634.6	
333.88	2981.8	
334.08	3205.1	
334.29	5918.6	
334.5	5028.4	
334.7	2778.4	
334.91	3867.9	
335.12	4365.6	
335.33	4886.5	
335.53	3112.2	
335.74	4268	
335.95	4523.3	
336.16	4306.2	
336.36	3089.7	
336.57	3526.6	
336.78	4296	
336.98	4988.9	
337.19	3718.4	
337.4	3046	
337.61	5494.7	
337.81	4332.1	
338.02	2916.3	
338.23	3592.1	
338.43	5223	
338.64	4381.3	
338.85	2853.5	
339.05	3652.2	
339.26	5262.6	
339.47	4235.9	
339.68	2829.6	
339.88	3991.5	
340.09	4864.6	
340.3	4968.4	
340.5	3231.7	
340.71	2622.1	
340.92	4361.5	
341.13	5070.8	
341.33	2718.3	
341.54	3256.3	
341.75	4823.6	
341.95	4514.4	
342.16	3179.1	
342.37	3369.6	
342.57	4330.8	
342.78	4581.3	
342.99	3411.2	
343.19	2610.5	
343.4	4910.3	
343.61	4872.1	
343.81	3002.3	
344.02	2749.7	
344.23	4956.1	
344.43	5126.1	
344.64	3375.1	
344.85	3377.8	
345.06	4823	
345.26	5048.2	
345.47	3300.6	
345.68	3676.8	
345.88	4216.1	
346.09	4953.4	
346.3	3269.9	
346.5	2528.6	
346.71	4592.9	
346.92	4404.5	
347.12	2721.1	
347.33	3117	
347.54	5010.7	
347.74	5269.4	
347.95	3182.5	
348.16	2513.5	
348.36	4493.2	
348.57	4366.3	
348.78	3229.6	
348.98	3405.8	
349.19	4646.8	
349.39	4257	
349.6	2675.3	
349.81	2920.4	
350.01	4816.1	
350.22	4404.5	
350.43	3125.9	
350.63	3637.9	
350.84	4645.5	
351.05	4409.3	
351.25	2848	
351.46	2671.2	
351.67	5016.8	
351.87	4382.7	
352.08	2981.2	
352.29	3388	
352.49	4932.2	
352.7	4767.7	
352.9	2728.6	
353.11	3364.1	
353.32	5353.4	
353.52	4496	
353.73	2794.8	
353.94	3394.8	
354.14	4857.1	
354.35	4631.8	
354.55	2844.6	
354.76	3108.8	
354.97	4716.5	
355.17	4556	
355.38	2733.4	
355.59	3535.5	
355.79	4390.8	
356	4590.9	
356.2	3150.5	
356.41	2766.8	
356.62	4210.6	
356.82	4574.5	
357.03	3284.3	
357.24	2997.5	
357.44	4364.9	
357.65	4424.3	
357.85	3782.6	
358.06	3056.9	
358.27	4194.2	
358.47	4334.2	
358.68	2646.7	
358.88	3233.7	
359.09	4818.9	
359.3	4995.7	
359.5	3718.4	
359.71	3310.2	
359.91	5302.9	
360.12	4751.3	
360.33	3296.5	
360.53	3568.2	
360.74	4388.8	
360.94	4457.1	
361.15	3461.7	
361.36	2899.2	
361.56	4944.5	
361.77	4556	
361.97	3669.3	
362.18	3054.9	
362.38	4931.5	
362.59	4275.5	
362.8	2826.9	
363	2741.5	
363.21	4119.1	
363.41	4586.1	
363.62	3224.9	
363.83	3811.3	
364.03	4795	
364.24	5296.7	
364.44	3951.9	
364.65	3926	
364.85	4552.6	
365.06	4303.5	
365.27	2882.2	
365.47	3005.7	
365.68	5182.7	
365.88	4529.4	
366.09	3229.6	
366.29	2937.5	
366.5	4627	
366.71	4913.8	
366.91	3842.7	
367.12	3370.3	
367.32	5379.3	
367.53	4847.5	
367.73	3338.9	
367.94	3934.8	
368.14	4869.4	
368.35	5347.2	
368.56	3282.9	
368.76	2885.6	
368.97	4955.4	
369.17	5934.3	
369.38	2963.4	
369.58	3147	
369.79	4246.8	
369.99	5201.8	
370.2	3832.4	
370.4	3229	
370.61	4655	
370.82	5608	
371.02	3173.7	
371.23	2671.2	
371.43	4260.5	
371.64	5133.6	
371.84	3167.5	
372.05	3946.4	
372.25	5946.6	
372.46	4834.6	
372.66	3138.9	
372.87	3123.2	
373.07	4857.1	
373.28	6076.3	
373.48	3767.6	
373.69	3533.4	
373.9	4626.4	
374.1	4610	
374.31	3772.4	
374.51	3364.1	
374.72	5141.1	
374.92	4374.5	
375.13	3835.2	
375.33	3323.2	
375.54	4734.9	
375.74	4487.8	
375.95	3404.4	
376.15	4159.4	
376.36	4873.5	
376.56	4780.6	
376.77	3384.6	
376.97	3635.8	
377.18	5588.2	
377.38	4891.9	
377.59	3807.2	
377.79	3056.9	
378	4722.6	
378.2	4945.8	
378.41	3121.8	
378.61	3086.3	
378.82	5104.9	
379.02	4528.7	
379.23	3229.6	
379.43	3891.8	
379.64	5238	
379.84	4782.7	
380.05	3162.1	
380.25	3062.4	
380.46	4891.9	
380.66	4667.3	
380.87	4022.9	
381.07	4258.4	
381.28	5339.7	
381.48	4878.9	
381.69	3132.7	
381.89	3160.7	
382.1	4293.9	
382.3	4990.9	
382.51	3878.9	
382.71	4532.8	
382.91	4859.8	
383.12	5269.4	
383.32	3392.1	
383.53	3463.8	
383.73	4842.8	
383.94	4734.9	
384.14	3557.3	
384.35	2876	
384.55	4661.9	
384.76	4913.1	
384.96	3467.9	
385.17	3622.9	
385.37	4956.8	
385.58	4422.2	
385.78	3562.1	
385.98	2910.8	
386.19	4657.8	
386.39	4926	
386.6	3158.7	
386.8	3418.7	
387.01	4924.7	
387.21	4987.5	
387.42	3663.8	
387.62	3982.6	
387.83	4536.9	
388.03	4812.7	
388.23	3472.7	
388.44	3818.8	
388.64	4350.6	
388.85	4315.8	
389.05	3573	
389.26	4021.5	
389.46	5765.7	
389.67	5274.2	
389.87	3619.4	
390.07	3623.5	
390.28	4706.2	
390.48	4431.8	
390.69	3092.4	
390.89	3400.3	
391.1	4566.3	
391.3	5178.6	
391.5	4130.8	
391.71	4491.2	
391.91	4959.5	
392.12	5582.8	
392.32	4143.7	
392.53	3646.1	
392.73	4672.8	
392.93	4741.7	
393.14	3472.7	
393.34	3966.9	
393.55	5061.2	
393.75	4735.6	
393.95	3435.8	
394.16	3425.6	
394.36	4605.9	
394.57	5098.1	
394.77	3142.9	
394.98	3353.2	
395.18	4610.7	
395.38	4704.2	
395.59	3950.5	
395.79	3246.7	
396	4672.8	
396.2	4967.7	
396.4	3798.3	
396.61	3768.9	
396.81	5034.6	
397.02	4568.3	
397.22	3940.3	
397.42	4018.8	
397.63	5156.1	
397.83	4564.2	
398.04	3266.5	
398.24	3551.2	
398.44	4932.9	
398.65	4310.3	
398.85	3117.7	
399.05	3190.7	
399.26	4582.7	
399.46	5670.8	
399.67	3468.6	
399.87	3299.3	
400.07	4799.1	
400.28	5040.1	
400.48	3345	
400.69	4017.4	
400.89	5085.8	
401.09	5472.9	
401.3	3320.4	
401.5	3975.1	
401.7	5667.4	
401.91	5776	
402.11	3601.7	
402.32	3683.6	
402.52	5251	
402.72	5175.9	
402.93	3910.3	
403.13	3118.4	
403.33	5732.3	
403.54	4887.1	
403.74	3683.6	
403.94	4246.8	
404.15	4929.5	
404.35	5754.1	
404.56	3533.4	
404.76	4661.9	
404.96	5207.3	
405.17	4967	
405.37	4220.2	
405.57	3816.7	
405.78	5212.8	
405.98	4820.9	
406.18	3492.5	
406.39	4106.2	
406.59	5232.6	
406.79	4892.6	
407	3387.3	
407.2	3459.7	
407.4	5533.6	
407.61	5348.6	
407.81	3448.1	
408.01	4866	
408.22	4449.6	
408.42	5799.2	
408.62	4134.2	
408.83	3716.4	
409.03	4887.1	
409.23	4911	
409.44	3876.8	
409.64	3990.8	
409.84	5584.8	
410.05	5481.7	
410.25	3911.6	
410.45	3798.3	
410.66	5136.3	
410.86	6834.8	
411.06	4108.9	
411.27	3973.1	
411.47	6704.4	
411.67	5244.8	
411.88	4109.6	
412.08	4298	
412.28	5656.5	
412.49	6055.8	
412.69	4010.6	
412.89	3986	
413.09	5999.9	
413.3	5840.8	
413.5	4082.3	
413.7	3842.7	
413.91	5408.7	
414.11	5945.9	
414.31	4064.5	
414.52	4341.7	
414.72	5797.8	
414.92	5659.2	
415.12	4046.8	
415.33	4394.9	
415.53	5949.3	
415.73	6091.3	
415.94	4615.4	
416.14	4185.4	
416.34	5345.9	
416.55	5151.3	
416.75	4967	
416.95	4670.1	
417.15	6107	
417.36	6434	
417.56	5211.4	
417.76	4554	
417.97	6222.4	
418.17	5963.7	
418.37	4310.3	
418.57	4267.3	
418.78	5981.4	
418.98	5735	
419.18	4922	
419.38	4899.4	
419.59	5724.1	
419.79	5487.2	
419.99	4287.1	
420.2	4534.2	
420.4	6105	
420.6	6116.6	
420.8	4184	
421.01	4113.7	
421.21	5959.6	
421.41	5954.1	
421.61	4424.3	
421.82	4280.3	
422.02	5640.1	
422.22	6313.2	
422.42	4690.5	
422.63	4578.6	
422.83	5687.2	
423.03	6513.2	
423.23	4593.6	
423.44	3945.8	
423.64	5795.8	
423.84	5546.6	
424.04	4261.8	
424.25	3968.3	
424.45	6358.9	
424.65	6326.9	
424.85	3893.9	
425.06	4302.8	
425.26	6593.8	
425.46	5618.9	
425.66	4552	
425.87	4342.4	
426.07	6240.8	
426.27	6059.9	
426.47	4491.2	
426.67	4054.3	
426.88	6470.9	
427.08	6062.7	
427.28	4707.6	
427.48	3990.8	
427.69	5385.5	
427.89	5776.6	
428.09	4614.8	
428.29	4100.7	
428.5	6201.2	
428.7	5943.9	
428.9	4032.5	
429.1	4326.7	
429.3	5967.8	
429.51	6112.5	
429.71	4195.6	
429.91	4750.6	
430.11	6160.3	
430.31	6242.2	
430.52	4403.1	
430.72	4582	
430.92	6520.7	
431.12	6032.6	
431.32	4223.6	
431.53	4532.8	
431.73	5442.8	
431.93	6492.7	
432.13	4166.3	
432.33	4080.2	
432.54	5744.6	
432.74	5958.2	
432.94	4032.5	
433.14	4754.7	
433.34	6257.9	
433.55	5912.5	
433.75	4730.8	
433.95	5906.3	
434.15	5960.3	
434.35	5769.8	
434.56	4278.2	
434.76	3908.2	
434.96	5991.7	
435.16	6153.5	
435.36	4177.2	
435.56	4954	
435.77	5802.6	
435.97	5899.5	
436.17	5339.7	
436.37	4868	
436.57	5805.3	
436.78	5720	
436.98	5739.8	
437.18	5304.2	
437.38	6192.4	
437.58	5923.4	
437.78	5410.7	
437.99	4459.8	
438.19	6268.8	
438.39	6815.6	
438.59	4528.1	
438.79	4141	
438.99	6763.1	
439.2	5907	
439.4	4162.8	
439.6	4182.6	
439.8	6049	
440	6741.9	
440.2	4813.4	
440.4	4861.2	
440.61	6412.9	
440.81	6737.1	
441.01	4364.9	
441.21	4927.4	
441.41	6769.2	
441.61	6376	
441.81	5151.3	
442.02	5850.4	
442.22	6992.4	
442.42	6567.2	
442.62	4495.3	
442.82	4486.4	
443.02	6816.3	
443.22	6195.8	
443.43	4808.6	
443.63	4439.3	
443.83	5978	
444.03	6017.6	
444.23	5235.3	
444.43	4984.8	
444.63	6317.3	
444.83	7101.7	
445.04	4658.4	
445.24	5418.9	
445.44	6645	
445.64	6642.2	
445.84	5100.8	
446.04	5173.9	
446.24	6132.3	
446.44	6850.5	
446.65	4615.4	
446.85	4879.6	
447.05	6399.2	
447.25	6694.8	
447.45	4969.1	
447.65	4446.8	
447.85	6346.7	
448.05	6044.2	
448.25	5119.2	
448.46	5003.9	
448.66	6408.8	
448.86	6158.9	
449.06	4468	
449.26	5150.6	
449.46	6633.4	
449.66	5971.9	
449.86	4866.7	
450.06	4826.4	
450.26	6104.3	
450.47	6451.1	
450.67	5018.9	
450.87	5248.9	
451.07	6690	
451.27	6458.6	
451.47	4577.2	
451.67	5255.8	
451.87	6228.6	
452.07	6985.6	
452.27	4758.8	
452.47	4707.6	
452.67	6554.9	
452.88	6746.7	
453.08	4414.7	
453.28	5619.6	
453.48	7268.2	
453.68	6444.3	
453.88	4707.6	
454.08	4873.5	
454.28	6744	
454.48	6457.9	
454.68	5173.2	
454.88	5618.3	
455.08	6823.8	
455.28	6568.5	
455.48	4692.6	
455.68	5132.9	
455.89	7164.5	
456.09	6840.2	
456.29	4886.5	
456.49	5003.9	
456.69	7077.8	
456.89	6576.7	
457.09	5349.3	
457.29	5542.5	
457.49	6761	
457.69	6955.6	
457.89	5256.5	
458.09	4820.2	
458.29	6659.3	
458.49	7116	
458.69	5526.1	
458.89	5152.7	
459.09	7351.5	
459.29	7405.5	
459.49	5279.7	
459.69	5788.2	
459.9	7022.5	
460.1	6782.9	
460.3	5145.9	
460.5	5018.9	
460.7	7113.3	
460.9	6766.5	
461.1	4878.3	
461.3	5687.2	
461.5	7537.2	
461.7	7270.3	
461.9	5152.7	
462.1	5411.4	
462.3	7071.6	
462.5	7339.9	
462.7	5300.1	
462.9	5270.1	
463.1	8097	
463.3	7776.1	
463.5	5442.1	
463.7	6115.2	
463.9	7172.7	
464.1	7405.5	
464.3	5583.4	
464.5	5683.1	
464.7	7683.3	
464.9	7422.5	
465.1	6621.8	
465.3	6042.9	
465.5	7890.1	
465.7	7921.5	
465.9	6345.3	
466.1	6029.2	
466.3	7876.5	
466.5	7763.2	
466.7	6739.9	
466.9	5969.1	
467.1	7765.2	
467.3	8283.4	
467.5	6756.2	
467.7	5941.2	
467.9	8457.4	
468.1	8996	
468.3	6498.9	
468.5	6701.6	
468.7	7694.9	
468.9	7589.1	
469.1	6237.4	
469.3	6681.2	
469.5	9064.3	
469.7	7391.1	
469.9	6509.8	
470.1	6064	
470.3	7899.7	
470.5	7873.8	
470.7	6944	
470.9	6161.7	
471.1	7748.1	
471.3	8032.8	
471.5	6120.7	
471.69	7326.3	
471.89	7681.2	
472.09	7156.3	
472.29	6610.8	
472.49	6787.7	
472.69	7396.6	
472.89	7900.4	
473.09	6102.9	
473.29	6091.3	
473.49	7582.3	
473.69	7548.8	
473.89	6698.2	
474.09	6208.8	
474.29	8496.3	
474.49	8205.5	
474.69	6670.9	
474.89	6272.9	
475.09	7627.3	
475.29	7634.8	
475.49	5911.8	
475.69	6109.1	
475.88	8774.2	
476.08	7886.7	
476.28	5882.4	
476.48	6050.4	
476.68	8227.4	
476.88	7998	
477.08	6144.6	
477.28	6312.5	
477.48	7685.3	
477.68	8123.6	
477.88	5919.3	
478.08	6142.5	
478.28	8282	
478.48	7834.2	
478.67	6223.8	
478.87	5700.2	
479.07	8239.7	
479.27	7817.1	
479.47	6356.2	
479.67	6365.1	
479.87	8112	
480.07	8482.7	
480.27	5837.4	
480.47	6904.4	
480.67	7871	
480.87	8363.9	
481.06	6063.4	
481.26	6733.7	
481.46	7961.1	
481.66	7805.5	
481.86	6489.3	
482.06	7047.7	
482.26	7701	
482.46	8404.9	
482.66	6289.3	
482.86	6119.3	
483.05	8056.7	
483.25	7535.8	
483.45	8101.1	
483.65	6279.1	
483.85	7668.3	
484.05	7862.8	
484.25	6655.2	
484.45	7023.2	
484.65	8359.1	
484.84	8527.1	
485.04	6452.5	
485.24	6394.4	
485.44	8746.2	
485.64	7600.7	
485.84	5948	
486.04	6823.8	
486.24	7810.3	
486.44	8064.2	
486.63	5851	
486.83	6580.1	
487.03	7847.8	
487.23	7970.7	
487.43	5954.1	
487.63	7557	
487.83	8050.6	
488.02	8585.1	
488.22	6750.8	
488.42	7201.3	
488.62	8667	
488.82	7949.5	
489.02	6477.7	
489.22	6496.2	
489.41	8565.3	
489.61	8365.3	
489.81	6347.3	
490.01	6358.9	
490.21	8614.4	
490.41	9101.2	
490.61	6422.4	
490.8	6511.9	
491	8342.7	
491.2	7849.9	
491.4	6894.8	
491.6	6371.9	
491.8	8346.8	
491.99	8326.4	
492.19	6312.5	
492.39	6403.3	
492.59	8571.4	
492.79	8597.4	
492.99	6926.9	
493.18	6346	
493.38	8690.9	
493.58	9171.5	
493.78	6876.4	
493.98	6639.5	
494.18	8462.9	
494.37	8140	
494.57	7167.2	
494.77	7037.5	
494.97	8750.3	
495.17	8975.6	
495.37	6920.1	
495.56	7092.1	
495.76	9177.6	
495.96	8886.8	
496.16	7875.1	
496.36	7154.9	
496.55	9237	
496.75	8789.9	
496.95	7365.9	
497.15	7302.4	
497.35	9136.7	
497.54	9128.5	
497.74	7235.5	
497.94	8316.1	
498.14	9759.3	
498.34	9401.5	
498.53	6954.2	
498.73	7484	
498.93	8715.5	
499.13	9174.9	
499.33	7410.2	
499.52	7772.7	
499.72	9283.4	
499.92	9302.6	
500.12	7281.2	
500.32	7460.1	
500.51	9357.2	
500.71	9185.1	
500.91	7993.2	
501.11	7793.9	
501.31	9286.2	
501.5	9756.5	
501.7	8280.6	
501.9	7533.1	
502.1	9291.6	
502.29	9463.7	
502.49	7958.4	
502.69	8224.6	
502.89	9412.5	
503.09	9374.9	
503.28	7233.4	
503.48	7316	
503.68	9050.7	
503.88	8884.1	
504.07	8005.5	
504.27	7611.6	
504.47	9202.9	
504.67	9260.2	
504.86	7969.3	
505.06	7649.8	
505.26	9035.6	
505.46	10122	
505.65	7615.7	
505.85	7774.1	
506.05	9031.5	
506.25	9406.3	
506.44	7118.1	
506.64	7675.1	
506.84	8806.9	
507.04	9382.4	
507.23	7293.5	
507.43	7632.8	
507.63	10217	
507.83	8977.6	
508.02	7746.8	
508.22	7276.4	
508.42	10275	
508.62	8785.8	
508.81	7476.5	
509.01	7986.4	
509.21	8789.2	
509.4	8990.6	
509.6	7765.2	
509.8	7223.9	
510	9000.1	
510.19	9823.4	
510.39	7195.9	
510.59	7386.3	
510.79	8845.9	
510.98	9792	
511.18	7502.4	
511.38	7503.1	
511.57	9551.7	
511.77	9293.7	
511.97	7899	
512.17	7329	
512.36	9514.9	
512.56	9308	
512.76	7329.7	
512.95	7103	
513.15	9712.2	
513.35	8513.4	
513.55	7865.6	
513.74	7285.3	
513.94	9516.9	
514.14	9023.4	
514.33	8024.6	
514.53	7842.4	
514.73	9064.3	
514.92	9144.2	
515.12	7524.2	
515.32	7408.2	
515.51	9306	
515.71	9516.9	
515.91	8645.8	
516.11	7351.5	
516.3	10464	
516.5	9126.4	
516.7	7837.6	
516.89	8262.2	
517.09	9100.5	
517.29	9187.2	
517.48	8163.9	
517.68	7626.6	
517.88	8959.2	
518.07	9541.5	
518.27	7985.7	
518.47	7269.6	
518.66	9969.5	
518.86	8901.2	
519.06	7241.6	
519.25	7591.1	
519.45	9187.2	
519.65	10163	
519.84	8060.8	
520.04	8566.7	
520.24	10501	
520.43	9610.4	
520.63	8062.2	
520.83	7824.6	
521.02	9189.9	
521.22	9560.6	
521.42	8075.1	
521.61	8421.2	
521.81	9384.5	
522.01	9601.6	
522.2	8082	
522.4	7783.6	
522.6	9738.1	
522.79	8869.1	
522.99	7851.9	
523.18	7514	
523.38	9716.2	
523.58	9617.9	
523.77	8920.3	
523.97	7614.3	
524.17	10909	
524.36	10458	
524.56	8577.6	
524.76	8338	
524.95	9811.8	
525.15	9736.7	
525.34	8331.1	
525.54	8454.7	
525.74	10291	
525.93	9555.1	
526.13	9369.5	
526.33	8499.1	
526.52	10623	
526.72	10166	
526.91	9455.5	
527.11	8918.9	
527.31	10696	
527.5	10906	
527.7	8918.2	
527.89	8214.4	
528.09	9951.1	
528.29	10424	
528.48	9101.9	
528.68	8900.5	
528.87	10753	
529.07	10746	
529.27	9065.7	
529.46	8839.7	
529.66	10677	
529.85	10920	
530.05	8817.2	
530.25	9269.1	
530.44	11646	
530.64	10550	
530.83	9026.1	
531.03	9221.3	
531.23	11048	
531.42	10805	
531.62	9662.3	
531.81	9106.6	
532.01	11144	
532.21	11329	
532.4	9113.5	
532.6	9377.6	
532.79	11669	
532.99	11318	
533.18	9583.8	
533.38	10129	
533.58	11055	
533.77	11544	
533.97	9615.2	
534.16	10185	
534.36	11845	
534.55	11194	
534.75	10361	
534.95	9736.7	
535.14	11991	
535.34	11188	
535.53	9564.7	
535.73	10955	
535.92	12373	
536.12	11329	
536.31	9708.1	
536.51	10566	
536.71	11693	
536.9	11294	
537.1	9654.8	
537.29	9832.3	
537.49	11820	
537.68	11255	
537.88	10143	
538.07	9579	
538.27	11500	
538.46	12190	
538.66	9618.6	
538.86	9795.4	
539.05	11660	
539.25	11745	
539.44	10260	
539.64	9792	
539.83	11518	
540.03	12214	
540.22	9856.9	
540.42	9822.1	
540.61	11727	
540.81	11720	
541	10015	
541.2	10612	
541.39	11280	
541.59	11513	
541.78	10406	
541.98	9787.9	
542.18	11158	
542.37	11003	
542.57	10028	
542.76	10326	
542.96	11124	
543.15	11557	
543.35	10036	
543.54	9597.5	
543.74	11568	
543.93	11454	
544.13	9897.2	
544.32	10703	
544.52	11646	
544.71	10966	
544.91	9293	
545.1	10082	
545.3	11138	
545.49	11564	
545.69	9163.3	
545.88	9608.4	
546.08	12247	
546.27	11840	
546.47	9969.5	
546.66	9479.4	
546.86	11689	
547.05	11902	
547.24	9635.7	
547.44	9568.1	
547.63	10898	
547.83	11701	
548.02	9740.8	
548.22	9946.3	
548.41	10827	
548.61	11730	
548.8	9464.3	
549	9523.1	
549.19	11355	
549.39	11678	
549.58	9303.2	
549.78	9679.4	
549.97	11567	
550.17	11137	
550.36	10157	
550.55	10879	
550.75	11069	
550.94	11785	
551.14	9345.6	
551.33	9570.8	
551.53	10510	
551.72	11374	
551.92	9555.1	
552.11	9437	
552.31	11452	
552.5	11303	
552.69	10661	
552.89	9236.3	
553.08	11337	
553.28	11082	
553.47	9472.5	
553.67	10285	
553.86	11755	
554.06	10509	
554.25	8795.3	
554.44	9324.4	
554.64	12036	
554.83	11844	
555.03	9228.1	
555.22	9489.6	
555.42	11460	
555.61	11239	
555.8	9512.8	
556	9527.8	
556.19	10585	
556.39	11426	
556.58	9297.8	
556.78	9377.6	
556.97	11141	
557.16	10796	
557.36	10173	
557.55	9138	
557.75	10388	
557.94	11708	
558.13	9222	
558.33	9095.7	
558.52	11585	
558.72	10622	
558.91	9114.8	
559.1	9382.4	
559.3	10560	
559.49	10240	
559.69	8869.1	
559.88	9513.5	
560.07	11085	
560.27	11329	
560.46	9557.9	
560.66	9644.6	
560.85	10892	
561.04	10236	
561.24	9054.1	
561.43	9103.2	
561.63	10464	
561.82	10600	
562.01	9933.3	
562.21	9286.9	
562.4	10912	
562.59	11615	
562.79	9183.1	
562.98	9022.7	
563.18	10911	
563.37	11886	
563.56	9504.6	
563.76	9039.1	
563.95	10623	
564.14	10579	
564.34	9469.8	
564.53	9129.8	
564.73	10989	
564.92	11040	
565.11	9475.3	
565.31	9006.3	
565.5	11322	
565.69	10577	
565.89	9232.2	
566.08	9261.6	
566.27	11155	
566.47	11513	
566.66	9828.2	
566.85	8877.9	
567.05	11069	
567.24	10692	
567.44	9136	
567.63	10118	
567.82	11225	
568.02	11017	
568.21	9149.6	
568.4	9410.4	
568.6	10974	
568.79	10875	
568.98	9035.6	
569.18	9151.7	
569.37	10830	
569.56	12308	
569.76	9441.8	
569.95	10161	
570.14	11322	
570.34	11057	
570.53	9206.3	
570.72	9216.5	
570.91	11716	
571.11	10967	
571.3	9436.4	
571.49	10152	
571.69	11000	
571.88	10664	
572.07	9802.3	
572.27	9809.1	
572.46	10585	
572.65	11336	
572.85	9336.7	
573.04	9583.8	
573.23	11598	
573.43	10996	
573.62	9197.4	
573.81	9516.9	
574	11068	
574.2	10950	
574.39	9458.9	
574.58	9585.2	
574.78	11801	
574.97	11163	
575.16	9876	
575.36	9982.5	
575.55	11646	
575.74	11598	
575.93	9196.1	
576.13	10053	
576.32	11203	
576.51	11589	
576.71	9688.9	
576.9	10526	
577.09	11911	
577.28	11428	
577.48	9929.2	
577.67	9268.4	
577.86	11286	
578.05	11480	
578.25	9691	
578.44	9865.1	
578.63	11246	
578.83	12222	
579.02	9286.9	
579.21	10338	
579.4	11427	
579.6	11291	
579.79	9863	
579.98	11331	
580.17	11669	
580.37	11768	
580.56	9482.1	
580.75	10008	
580.94	11881	
581.14	11940	
581.33	10300	
581.52	9536.7	
581.71	11621	
581.91	11984	
582.1	9409.7	
582.29	9796.8	
582.48	11396	
582.68	11324	
582.87	10061	
583.06	9944.3	
583.25	11681	
583.45	11157	
583.64	10320	
583.83	10789	
584.02	11357	
584.21	11658	
584.41	10269	
584.6	9876.7	
584.79	11452	
584.98	11921	
585.18	9499.2	
585.37	9411.1	
585.56	11089	
585.75	11705	
585.94	9589.3	
586.14	10054	
586.33	11989	
586.52	11372	
586.71	9889	
586.91	9754.5	
587.1	10836	
587.29	11708	
587.48	9579	
587.67	9557.2	
587.87	11307	
588.06	11332	
588.25	10466	
588.44	9943.6	
588.63	11070	
588.83	11575	
589.02	9502.6	
589.21	9407	
589.4	11001	
589.59	10976	
589.78	8906.6	
589.98	8989.2	
590.17	10553	
590.36	10765	
590.55	8465.6	
590.74	8856.1	
590.94	11546	
591.13	10527	
591.32	8671.8	
591.51	8316.1	
591.7	10673	
591.89	10301	
592.09	8333.9	
592.28	8647.9	
592.47	9880.8	
592.66	11201	
592.85	8414.4	
593.05	8639.7	
593.24	10370	
593.43	10978	
593.62	8659.5	
593.81	9011.1	
594	10366	
594.19	10553	
594.39	8628.1	
594.58	8487.5	
594.77	10718	
594.96	10901	
595.15	8555.7	
595.34	8985.1	
595.54	10489	
595.73	9917.6	
595.92	8125	
596.11	8832.9	
596.3	10897	
596.49	9992	
596.68	8614.4	
596.88	8917.5	
597.07	10603	
597.26	9884.2	
597.45	8329.8	
597.64	9071.8	
597.83	10110	
598.02	10390	
598.22	8311.3	
598.41	8781	
598.6	10337	
598.79	9923.1	
598.98	8402.8	
599.17	8991.3	
599.36	10429	
599.55	11074	
599.74	9678.7	
599.94	9607	
600.13	10729	
600.32	9853.5	
600.51	8161.8	
600.7	8388.5	
600.89	11059	
601.08	11076	
601.27	8202.1	
601.47	8833.6	
601.66	10448	
601.85	11013	
602.04	8649.3	
602.23	8705.2	
602.42	9953.1	
602.61	10383	
602.8	8598.1	
602.99	8282.7	
603.18	10260	
603.37	10344	
603.57	8710	
603.76	9127.8	
603.95	10826	
604.14	10439	
604.33	8407.6	
604.52	8576.2	
604.71	10284	
604.9	9912.9	
605.09	9065	
605.28	8808.3	
605.47	10801	
605.66	10420	
605.86	8773.5	
606.05	8499.1	
606.24	10759	
606.43	9639.8	
606.62	8566	
606.81	9108	
607	10672	
607.19	9982.5	
607.38	8168.7	
607.57	8286.8	
607.76	9915.6	
607.95	9488.9	
608.14	8630.8	
608.33	9001.5	
608.52	9905.3	
608.72	10437	
608.91	8140	
609.1	8052.6	
609.29	9950.4	
609.48	9533.3	
609.67	8686.8	
609.86	8086.1	
610.05	9659.6	
610.24	9804.3	
610.43	7988.4	
610.62	7741.3	
610.81	10673	
611	10523	
611.19	7999.4	
611.38	8538	
611.57	10036	
611.76	10821	
611.95	7884.7	
612.14	7776.1	
612.33	9876.7	
612.52	9564.7	
612.71	8224	
612.9	7713.3	
613.09	9315.5	
613.28	10903	
613.47	8168.7	
613.66	8764.6	
613.85	10021	
614.04	9675.3	
614.24	8104.5	
614.43	7576.8	
614.62	9935.4	
614.81	9955.9	
615	8378.2	
615.19	8404.2	
615.38	9492.3	
615.57	9796.1	
615.76	8418.5	
615.95	9049.3	
616.14	10249	
616.33	9904	
616.52	8637	
616.71	8776.2	
616.9	9945.6	
617.09	9929.9	
617.28	8214.4	
617.47	8929.8	
617.66	9456.8	
617.85	9471.2	
618.04	8826.1	
618.22	8357.1	
618.41	9754.5	
618.6	10492	
618.79	8343.4	
618.98	8297.7	
619.17	10563	
619.36	9357.2	
619.55	8453.3	
619.74	8489.5	
619.93	10150	
620.12	9718.3	
620.31	8791.2	
620.5	8985.8	
620.69	10608	
620.88	10961	
621.07	9403.6	
621.26	8820.6	
621.45	10379	
621.64	10388	
621.83	8867.7	
622.02	8350.3	
622.21	10408	
622.4	10330	
622.59	9333.3	
622.78	9128.5	
622.97	10093	
623.16	10696	
623.35	8974.2	
623.54	8322.3	
623.72	10183	
623.91	10236	
624.1	9062.3	
624.29	8215.1	
624.48	11056	
624.67	10464	
624.86	9110	
625.05	8497.7	
625.24	11122	
625.43	10071	
625.62	10234	
625.81	8653.4	
626	10649	
626.19	10262	
626.38	9121.7	
626.56	8594	
626.75	10090	
626.94	10658	
627.13	9155.1	
627.32	8350.9	
627.51	10675	
627.7	11353	
627.89	8381	
628.08	9206.3	
628.27	10038	
628.46	10208	
628.65	8528.4	
628.83	8299.1	
629.02	10602	
629.21	9959.3	
629.4	8783.1	
629.59	8972.8	
629.78	10063	
629.97	10571	
630.16	8962.6	
630.35	8671.8	
630.54	11112	
630.72	10823	
630.91	8657.4	
631.1	8974.9	
631.29	10447	
631.48	10517	
631.67	9090.3	
631.86	8572.8	
632.05	10295	
632.24	10364	
632.42	8405.5	
632.61	8876.6	
632.8	10215	
632.99	9972.2	
633.18	8860.9	
633.37	9178.3	
633.56	10445	
633.75	10406	
633.93	8967.4	
634.12	8678.6	
634.31	11110	
634.5	10714	
634.69	8832.9	
634.88	9187.9	
635.07	10324	
635.25	10745	
635.44	9428.2	
635.63	9449.3	
635.82	10221	
636.01	9683.5	
636.2	9211.1	
636.39	8999.5	
636.57	11058	
636.76	10582	
636.95	8553	
637.14	9552.4	
637.33	10462	
637.52	11075	
637.7	8392.6	
637.89	9202.9	
638.08	10251	
638.27	11217	
638.46	9136.7	
638.65	9458.9	
638.83	11173	
639.02	10043	
639.21	9089.6	
639.4	9377	
639.59	10361	
639.78	10080	
639.96	8514.8	
640.15	8594	
640.34	10259	
640.53	10277	
640.72	8366	
640.91	8496.3	
641.09	9793.4	
641.28	10763	
641.47	8563.2	
641.66	9028.8	
641.85	10365	
642.03	10342	
642.22	8796.7	
642.41	8548.2	
642.6	9946.3	
642.79	9385.8	
642.97	8312	
643.16	8796	
643.35	9737.4	
643.54	9676.7	
643.73	8251.9	
643.91	8835.6	
644.1	9525.1	
644.29	9867.8	
644.48	8159.1	
644.67	8305.9	
644.85	9460.3	
645.04	9914.2	
645.23	7933.8	
645.42	8239.7	
645.6	9459.6	
645.79	10187	
645.98	7997.3	
646.17	7286.7	
646.36	9122.3	
646.54	9447.3	
646.73	8525	
646.92	7630.7	
647.11	9254.1	
647.29	9998.9	
647.48	7660.1	
647.67	7473.7	
647.86	10021	
648.05	10037	
648.23	7784.3	
648.42	8763.3	
648.61	9583.1	
648.8	9400.2	
648.98	7549.5	
649.17	7752.9	
649.36	9112.8	
649.55	8742.1	
649.73	7646.4	
649.92	8165.9	
650.11	9013.1	
650.3	9260.2	
650.48	7633.5	
650.67	7533.1	
650.86	9321.7	
651.05	8632.9	
651.23	7568.6	
651.42	7523.6	
651.61	9195.4	
651.79	8985.1	
651.98	7770	
652.17	7419.8	
652.36	9318.9	
652.54	8637.6	
652.73	7496.2	
652.92	7489.4	
653.11	9297.1	
653.29	9409.1	
653.48	7004.1	
653.67	7634.8	
653.85	9159.9	
654.04	9908.1	
654.23	7753.6	
654.42	7449.8	
654.6	8751.7	
654.79	9119.6	
654.98	7051.2	
655.16	7403.4	
655.35	8322.3	
655.54	8271.1	
655.73	6984.9	
655.91	6859.3	
656.1	8860.2	
656.29	8069.7	
656.47	6431.3	
656.66	7759.8	
656.85	8359.8	
657.03	8344.8	
657.22	6981.5	
657.41	6985.6	
657.59	8432.2	
657.78	8353.7	
657.97	6743.3	
658.16	7342	
658.34	9002.9	
658.53	9355.1	
658.72	7897	
658.9	8266.3	
659.09	8726.4	
659.28	8748.2	
659.46	7215.7	
659.65	7141.3	
659.84	8497.7	
660.02	9067.7	
660.21	7193.8	
660.4	7037.5	
660.58	9236.3	
660.77	8716.8	
660.96	7447.1	
661.14	6811.5	
661.33	9592	
661.52	9400.2	
661.7	6802	
661.89	9135.3	
662.08	8535.3	
662.26	8090.8	
662.45	7062.8	
662.64	7024.5	
662.82	8942.8	
663.01	8445.8	
663.2	7054.6	
663.38	7572.7	
663.57	8793.3	
663.75	8791.9	
663.94	7294.9	
664.13	8060.8	
664.31	8422.6	
664.5	8943.5	
664.69	7513.3	
664.87	7820.5	
665.06	8219.9	
665.25	8756.4	
665.43	8012.3	
665.62	7946.1	
665.8	8948.9	
665.99	8499.8	
666.18	7261.4	
666.36	7299	
666.55	8932.6	
666.74	8790.6	
666.92	6997.9	
667.11	8147.5	
667.29	8555	
667.48	8862.9	
667.67	7765.9	
667.85	7140.6	
668.04	8430.8	
668.22	8529.1	
668.41	7281.9	
668.6	7456.7	
668.78	8264.2	
668.97	8514.1	
669.15	7508.5	
669.34	6804	
669.53	8397.4	
669.71	8596	
669.9	6822.5	
670.08	7339.2	
670.27	8290.9	
670.46	8838.4	
670.64	7419.1	
670.83	7600	
671.01	8198.7	
671.2	8578.9	
671.38	6939.2	
671.57	6860.7	
671.76	9067.7	
671.94	9431.6	
672.13	6898.9	
672.31	7526.3	
672.5	8952.4	
672.69	8359.1	
672.87	6967.2	
673.06	7241.6	
673.24	8791.9	
673.43	8442.4	
673.61	7471	
673.8	7168.6	
673.98	8796.7	
674.17	8840.4	
674.36	7608.2	
674.54	7512.6	
674.73	8552.3	
674.91	8839	
675.1	7301.7	
675.28	6913.9	
675.47	8538	
675.65	8954.4	
675.84	7157.7	
676.03	7372.7	
676.21	8381.7	
676.4	7998.7	
676.58	7713.3	
676.77	7523.6	
676.95	9394	
677.14	8340	
677.32	6939.9	
677.51	6819.1	
677.69	8896.4	
677.88	8172.8	
678.06	6877.8	
678.25	6975.4	
678.44	8606.9	
678.62	8314.1	
678.81	6771.3	
678.99	7388.4	
679.18	9050.7	
679.36	8732.5	
679.55	7186.3	
679.73	7610.9	
679.92	8821.3	
680.1	8346.8	
680.29	8060.8	
680.47	7094.8	
680.66	8402.1	
680.84	8901.8	
681.03	6776	
681.21	7339.9	
681.4	8368	
681.58	8380.3	
681.77	6939.9	
681.95	7014.3	
682.14	8899.1	
682.32	9196.7	
682.51	7574.8	
682.69	6744.6	
682.88	8228.7	
683.06	8578.3	
683.25	7438.9	
683.43	7621.9	
683.62	8511.4	
683.8	8803.5	
683.99	7841.7	
684.17	7303.1	
684.36	9367.4	
684.54	8459.5	
684.73	6748.1	
684.91	6823.1	
685.1	8589.9	
685.28	8116.1	
685.46	7166.5	
685.65	7034.1	
685.83	8514.8	
686.02	8014.4	
686.2	6535.8	
686.39	6590.4	
686.57	7685.3	
686.76	8847.2	
686.94	6550.8	
687.13	6715.3	
687.31	8333.2	
687.5	8100.4	
687.68	6384.9	
687.86	7180.2	
688.05	9377.6	
688.23	7794.6	
688.42	7215.7	
688.6	6762.4	
688.79	8160.5	
688.97	8170.7	
689.16	7140.6	
689.34	6349.4	
689.52	8786.5	
689.71	8916.9	
689.89	7339.2	
690.08	6855.9	
690.26	8490.2	
690.45	8394.6	
690.63	7482.6	
690.81	7103	
691	8448.6	
691.18	8269.7	
691.37	7218.4	
691.55	8652	
691.74	8224	
691.92	9646.6	
692.1	7182.9	
692.29	6798.6	
692.47	8404.9	
692.66	7922.2	
692.84	6925.5	
693.02	7254.6	
693.21	8019.2	
693.39	8400.8	
693.58	7412.3	
693.76	6896.9	
693.94	9216.5	
694.13	9190.6	
694.31	7127.6	
694.5	7768.6	
694.68	8353	
694.86	8720.3	
695.05	7423.2	
695.23	7508.5	
695.42	9139.4	
695.6	10674	
695.78	7943.4	
695.97	7337.9	
696.15	9228.1	
696.34	8767.4	
696.52	7256	
696.7	7884	
696.89	8956.5	
697.07	8519.6	
697.25	7686	
697.44	8804.9	
697.62	9045.9	
697.81	9070.5	
697.99	7483.3	
698.17	7724.3	
698.36	8529.1	
698.54	9039.7	
698.72	7804.1	
698.91	7039.6	
699.09	8740.7	
699.28	8503.2	
699.46	7563.8	
699.64	7400.7	
699.83	8628.8	
700.01	9285.5	
700.19	8069.7	
700.38	6935.1	
700.56	9384.5	
700.74	8747.6	
700.93	7200	
701.11	7801.4	
701.29	9116.9	
701.48	9944.3	
701.66	7435.5	
701.84	7536.5	
702.03	8929.8	
702.21	9381.7	
702.39	7262.8	
702.58	7766.6	
702.76	9329.2	
702.94	9324.4	
703.13	7340.6	
703.31	8968.1	
703.49	8885.5	
703.68	9723.8	
703.86	7460.8	
704.04	8157.1	
704.23	9144.2	
704.41	9318.9	
704.59	7632.1	
704.78	8374.1	
704.96	10301	
705.14	9511.4	
705.33	7464.2	
705.51	8026	
705.69	9052	
705.87	9701.2	
706.06	8178.2	
706.24	7500.3	
706.42	9328.5	
706.61	9547.6	
706.79	8214.4	
706.97	7499.7	
707.16	9035.6	
707.34	9282.1	
707.52	8144.8	
707.7	7653.9	
707.89	9093.7	
708.07	8828.8	
708.25	8340.7	
708.44	8645.8	
708.62	9024.7	
708.8	9780.4	
708.98	8445.1	
709.17	7764.5	
709.35	9340.8	
709.53	9343.5	
709.72	7615	
709.9	7674.4	
710.08	9599.5	
710.26	9528.5	
710.45	8601.5	
710.63	7763.8	
710.81	9187.9	
710.99	9295	
711.18	8225.3	
711.36	7895.6	
711.54	9115.5	
711.72	9643.9	
711.91	7869.7	
712.09	7512.6	
712.27	9278.7	
712.45	9885.5	
712.64	7845.1	
712.82	7231.4	
713	8713.4	
713.18	8772.1	
713.37	7273	
713.55	8059.4	
713.73	9227.5	
713.91	8275.2	
714.1	7224.6	
714.28	6847	
714.46	8745.5	
714.64	8060.1	
714.83	6227.2	
715.01	6575.3	
715.19	7897	
715.37	7253.2	
715.55	6176	
715.74	6390.3	
715.92	8310	
716.1	6950.1	
716.28	7148.8	
716.47	6392.4	
716.65	7443	
716.83	7380.2	
717.01	6298.9	
717.19	6263.4	
717.38	8817.9	
717.56	7172	
717.74	6439.5	
717.92	5867.4	
718.1	8008.9	
718.29	7510.6	
718.47	5741.1	
718.65	6261.3	
718.83	8168.7	
719.01	8183.7	
719.2	5936.4	
719.38	6821.8	
719.56	8135.9	
719.74	9192	
719.92	6563.7	
720.11	7204.1	
720.29	8141.4	
720.47	7592.5	
720.65	6113.9	
720.83	6593.8	
721.02	7618.4	
721.2	7435.5	
721.38	6552.8	
721.56	5834.7	
721.74	6917.4	
721.92	6974	
722.11	6662	
722.29	6529.6	
722.47	7975.5	
722.65	7303.7	
722.83	5948	
723.01	6466.1	
723.2	7370	
723.38	7651.9	
723.56	5539.1	
723.74	6307.7	
723.92	7051.2	
724.1	7854.6	
724.29	5833.3	
724.47	6620.4	
724.65	7218.4	
724.83	7087.3	
725.01	5760.9	
725.19	6317.3	
725.37	7025.2	
725.56	6933.1	
725.74	5606	
725.92	5810.1	
726.1	6990.4	
726.28	7284.6	
726.46	6122.1	
726.64	5866.7	
726.83	7180.9	
727.01	7337.2	
727.19	5674.2	
727.37	6288.6	
727.55	7338.6	
727.73	7659.4	
727.91	5565.7	
728.09	5545.2	
728.28	7674.4	
728.46	7795.3	
728.64	6303.6	
728.82	6220.4	
729	8469	
729.18	8056.7	
729.36	5725.4	
729.54	7260.7	
729.72	8712.7	
729.91	7497.6	
730.09	7129.7	
730.27	6402	
730.45	7577.5	
730.63	7987.8	
730.81	6701	
730.99	6212.9	
731.17	8413.7	
731.35	7438.9	
731.53	6479.8	
731.71	6247	
731.9	8102.4	
732.08	8207.6	
732.26	6337.8	
732.44	6182.1	
732.62	8344.1	
732.8	7929.7	
732.98	6640.2	
733.16	5852.4	
733.34	7894.2	
733.52	6920.1	
733.7	6260.6	
733.88	6411.5	
734.07	7692.2	
734.25	7515.4	
734.43	5877.7	
734.61	6808.8	
734.79	8574.8	
734.97	7454.6	
735.15	5871.5	
735.33	6181.5	
735.51	7669.6	
735.69	7439.6	
735.87	6830.7	
736.05	6253.1	
736.23	7499	
736.41	7261.4	
736.59	6136.4	
736.77	6249	
736.95	7821.2	
737.13	7385	
737.32	5896.1	
737.5	6102.3	
737.68	8203.5	
737.86	7202	
738.04	5664.7	
738.22	6886.6	
738.4	7135.8	
738.58	7331	
738.76	6131.6	
738.94	5345.2	
739.12	7223.9	
739.3	7178.8	
739.48	6458.6	
739.66	6240.8	
739.84	7394.5	
740.02	7335.8	
740.2	5442.1	
740.38	5659.9	
740.56	7628.7	
740.74	6707.8	
740.92	6089.3	
741.1	5927.5	
741.28	7153.6	
741.46	6876.4	
741.64	5768.4	
741.82	6101.6	
742	7160.4	
742.18	7049.8	
742.36	5826.5	
742.54	5629.9	
742.72	7506.5	
742.9	6500.3	
743.08	6092.7	
743.26	5144.5	
743.44	7495.6	
743.62	7423.9	
743.8	6121.4	
743.98	5469.4	
744.16	7151.5	
744.34	6901.7	
744.52	6005.3	
744.7	5951.4	
744.88	7218.4	
745.06	6920.1	
745.24	5883.1	
745.42	6003.3	
745.6	7286	
745.78	7142.6	
745.96	5080.3	
746.14	5259.9	
746.32	7792.5	
746.5	7098.9	
746.68	5585.5	
746.86	5164.3	
747.03	7355.6	
747.21	6265.4	
747.39	5562.3	
747.57	5229.8	
747.75	6769.9	
747.93	7062.8	
748.11	5122.7	
748.29	5095.3	
748.47	7952.3	
748.65	6564.4	
748.83	5644.9	
749.01	5419.6	
749.19	6932.4	
749.37	6283.9	
749.55	5366.4	
749.73	5286.5	
749.91	6726.9	
750.09	6469.5	
750.26	5429.8	
750.44	5039.4	
750.62	6680.5	
750.8	6565.1	
750.98	4865.3	
751.16	5107	
751.34	6719.4	
751.52	6148.7	
751.7	5657.2	
751.88	4750.6	
752.06	7040.9	
752.24	6683.2	
752.42	4726	
752.59	5038	
752.77	6537.8	
752.95	7394.5	
753.13	5579.3	
753.31	5111	
753.49	6244.9	
753.67	6619	
753.85	5296	
754.03	4905.6	
754.21	6705.7	
754.38	6943.3	
754.56	4835.3	
754.74	4177.9	
754.92	6032	
755.1	6457.9	
755.28	4102.1	
755.46	4065.9	
755.64	6789.7	
755.82	6776	
755.99	4003.8	
756.17	3955.3	
756.35	4781.3	
756.53	5822.4	
756.71	3088.3	
756.89	3667.9	
757.07	5479.7	
757.25	4922.6	
757.42	4147.8	
757.6	4712.4	
757.78	5660.6	
757.96	5018.9	
758.14	4024.9	
758.32	3687.7	
758.5	4635.2	
758.67	5315.2	
758.85	3863.8	
759.03	3939.6	
759.21	5421	
759.39	4975.2	
759.57	3612.6	
759.75	4394.9	
759.92	5893.4	
760.1	5438	
760.28	4668	
760.46	4874.8	
760.64	5279	
760.82	5199.1	
760.99	4656.4	
761.17	4034.5	
761.35	5946.6	
761.53	5137.7	
761.71	4201.7	
761.89	4679.6	
762.06	5852.4	
762.24	5565	
762.42	4393.6	
762.6	4185.4	
762.78	5541.8	
762.96	5993.7	
763.13	4607.9	
763.31	4405.9	
763.49	6031.3	
763.67	5565	
763.85	4957.4	
764.02	5341.8	
764.2	6396.5	
764.38	5698.8	
764.56	4323.3	
764.74	4878.9	
764.91	6361.7	
765.09	5588.2	
765.27	4096.6	
765.45	3955.3	
765.63	6475	
765.8	6272.9	
765.98	3765.5	
766.16	4036.5	
766.34	5317.9	
766.52	5040.7	
766.69	4648.2	
766.87	3776.5	
767.05	5582.1	
767.23	6096.8	
767.41	4100.7	
767.58	4265.9	
767.76	5942.5	
767.94	5967.1	
768.12	4102.1	
768.29	4531.5	
768.47	5485.8	
768.65	6035.4	
768.83	3796.3	
769	4556	
769.18	5228.5	
769.36	5629.9	
769.54	4557.4	
769.72	3792.8	
769.89	5911.1	
770.07	5930.9	
770.25	4014	
770.43	4861.9	
770.6	6394.4	
770.78	6593.8	
770.96	4117.1	
771.14	4463.9	
771.31	5802.6	
771.49	5365.7	
771.67	3499.3	
771.85	3603.1	
772.02	4713.7	
772.2	5242.8	
772.38	4182.6	
772.55	3745.1	
772.73	5504.9	
772.91	5227.1	
773.09	3983.3	
773.26	4068.6	
773.44	5390.3	
773.62	5152.7	
773.8	3687	
773.97	3506.1	
774.15	5403.2	
774.33	5177.3	
774.5	3591.5	
774.68	3836.5	
774.86	5523.4	
775.04	5127.4	
775.21	3621.5	
775.39	3601.7	
775.57	5322.7	
775.74	5524.1	
775.92	3429.7	
776.1	3356.6	
776.27	5272.8	
776.45	6095.4	
776.63	3537.5	
776.81	3243.3	
776.98	4990.9	
777.16	5729.5	
777.34	3670	
777.51	3801.7	
777.69	4997	
777.87	4814.1	
778.04	3695.9	
778.22	4053.6	
778.4	4863.9	
778.57	5335	
778.75	3123.2	
778.93	3349.8	
779.1	4772.4	
779.28	4521.2	
779.46	3132.7	
779.64	3450.8	
779.81	5395	
779.99	5973.9	
780.17	3992.9	
780.34	4093.9	
780.52	4977.2	
780.69	5046.9	
780.87	3657	
781.05	3340.9	
781.22	5026.4	
781.4	5023	
781.58	3427.6	
781.75	2858.3	
781.93	5016.2	
782.11	4526.7	
782.28	4040.6	
782.46	3390.8	
782.64	4468.7	
782.81	5169.8	
782.99	3496.6	
783.17	3435.8	
783.34	4995	
783.52	4616.1	
783.69	3513.6	
783.87	4166.9	
784.05	4653.7	
784.22	4539	
784.4	4089.8	
784.58	3641.3	
784.75	5246.2	
784.93	4622.3	
785.1	3347.1	
785.28	3817.4	
785.46	5089.9	
785.63	4505.5	
785.81	3367.5	
785.99	3233.7	
786.16	4670.1	
786.34	4952.7	
786.51	3261	
786.69	3521.8	
786.87	4347.2	
787.04	4691.9	
787.22	3163.4	
787.39	3791.5	
787.57	4489.1	
787.75	5224.4	
787.92	3941	
788.1	3891.1	
788.27	4469.4	
788.45	4278.2	
788.63	3773.7	
788.8	2797.5	
788.98	4943.8	
789.15	4202.4	
789.33	2970.2	
789.5	3327.9	
789.68	5139	
789.86	5229.1	
790.03	3628.3	
790.21	3145	
790.38	5217.5	
790.56	4577.2	
790.73	3198.2	
790.91	3137.5	
791.09	4455	
791.26	4943.1	
791.44	3357.3	
791.61	2897.9	
791.79	4479.6	
791.96	4503.5	
792.14	3033	
792.32	2752.5	
792.49	4434.5	
792.67	4583.4	
792.84	3095.2	
793.02	2918.4	
793.19	4860.5	
793.37	5360.2	
793.54	2678.1	
793.72	2942.9	
793.89	5371.1	
794.07	4489.1	
794.25	3389.4	
794.42	2742.9	
794.6	5201.2	
794.77	4955.4	
794.95	3586	
795.12	3138.2	
795.3	4503.5	
795.47	4851.6	
795.65	3463.1	
795.82	3312.9	
796	4324.6	
796.17	5614.8	
796.35	3185.3	
796.52	3687.7	
796.7	4818.2	
796.87	4912.4	
797.05	3258.3	
797.22	3722.5	
797.4	4894	
797.57	5588.2	
797.75	3298.6	
797.92	3093.8	
798.1	5181.4	
798.27	4324.6	
798.45	2753.2	
798.62	2927.2	
798.8	4641.4	
798.97	4935.6	
799.15	3436.5	
799.32	3351.2	
799.5	4124.6	
799.67	4584	
799.85	3571.7	
800.02	2691.7	
800.2	4429.8	
800.37	4665.3	
800.55	3599.6	
800.72	3133.4	
800.9	4952	
801.07	5205.3	
801.25	4040.6	
801.42	3446.7	
801.6	5104.9	
801.77	4655	
801.95	3168.2	
802.12	3064.4	
802.29	4820.9	
802.47	4677.6	
802.64	3427.6	
802.82	2668.5	
802.99	4455	
803.17	5047.6	
803.34	3315	
803.52	3003	
803.69	5501.5	
803.87	4190.8	
804.04	3269.2	
804.21	3343.7	
804.39	5261.9	
804.56	4519.2	
804.74	2859	
804.91	3406.5	
805.09	4432.5	
805.26	4440	
805.44	2949.1	
805.61	3178.4	
805.78	4857.8	
805.96	4844.8	
806.13	3377.8	
806.31	3560.7	
806.48	4073.4	
806.66	4437.9	
806.83	3351.8	
807	3304.7	
807.18	4380.6	
807.35	4648.9	
807.53	3097.9	
807.7	2716.3	
807.87	5215.5	
808.05	4431.8	
808.22	3505.4	
808.4	2749.1	
808.57	4371	
808.74	4099.4	
808.92	3058.3	
809.09	3695.2	
809.27	4376.5	
809.44	4745.1	
809.61	2705.4	
809.79	2963.4	
809.96	5275.6	
810.14	4874.8	
810.31	2676.7	
810.48	3201.7	
810.66	4420.9	
810.83	4877.6	
811.01	2980.5	
811.18	3313.6	
811.35	4896	
811.53	3965.6	
811.7	3594.2	
811.87	3361.4	
812.05	4421.6	
812.22	4362.9	
812.39	2957.9	
812.57	2878.1	
812.74	4448.2	
812.92	5578	
813.09	3194.8	
813.26	3409.9	
813.44	5313.1	
813.61	4312.3	
813.78	2717.7	
813.96	3485.6	
814.13	4448.2	
814.3	4217.5	
814.48	3767.6	
814.65	3177.8	
814.82	5186.1	
815	4164.9	
815.17	3213.9	
815.34	3845.4	
815.52	4362.2	
815.69	4237.2	
815.87	3126.6	
816.04	3158	
816.21	4377.2	
816.38	4003.8	
816.56	3164.8	
816.73	2951.1	
816.9	5371.1	
817.08	4837.3	
817.25	3044.6	
817.42	3571	
817.6	4085	
817.77	4365.6	
817.94	3231	
818.12	2921.8	
818.29	4206.5	
818.46	5991.7	
818.64	3089.7	
818.81	2857.6	
818.98	4177.2	
819.16	5683.1	
819.33	3414	
819.5	3200.3	
819.67	4641.4	
819.85	5078.3	
820.02	3150.5	
820.19	3367.5	
820.37	4552.6	
820.54	4274.1	
820.71	3265.8	
820.88	3947.1	
821.06	4519.9	
821.23	4249.5	
821.4	3277.4	
821.58	3251.5	
821.75	4848.9	
821.92	4558.1	
822.09	2741.5	
822.27	2786.6	
822.44	4398.4	
822.61	4305.5	
822.79	2734	
822.96	4838.7	
823.13	4650.9	
823.3	4091.2	
823.48	3098.6	
823.65	2813.2	
823.82	4851.6	
823.99	4078.9	
824.17	3818.1	
824.34	2882.2	
824.51	5477.6	
824.68	4399	
824.86	2983.9	
825.03	3218	
825.2	4357.4	
825.37	5119.9	
825.55	2934.7	
825.72	3190.7	
825.89	5453.7	
826.06	5094	
826.24	3138.9	
826.41	3154.6	
826.58	5240.1	
826.75	4568.3	
826.92	2577.7	
827.1	2796.8	
827.27	6709.8	
827.44	5384.8	
827.61	3001	
827.79	3545	
827.96	4296	
828.13	4379.2	
828.3	3151.1	
828.47	2659.6	
828.65	4651.6	
828.82	4541	
828.99	3802.4	
829.16	3390.8	
829.34	4907.6	
829.51	4726	
829.68	3153.2	
829.85	3320.4	
830.02	5142.4	
830.2	4861.2	
830.37	2567.5	
830.54	3744.4	
830.71	5433.3	
830.88	4422.2	
831.05	2564.7	
831.23	2857.6	
831.4	5272.8	
831.57	5737	
831.74	2972.3	
831.91	2686.3	
832.09	4686.4	
832.26	4855.1	
832.43	3082.2	
832.6	3359.4	
832.77	4650.3	
832.94	5151.3	
833.12	2490.3	
833.29	2975.7	
833.46	4353.3	
833.63	5847	
833.8	3323.2	
833.97	3055.6	
834.15	4917.2	
834.32	4683.7	
834.49	3211.9	
834.66	3209.2	
834.83	4981.3	
835	4233.2	
835.17	2977.1	
835.35	2967.5	
835.52	4847.5	
835.69	4737.6	
835.86	3149.1	
836.03	2605	
836.2	4906.9	
836.37	4633.9	
836.55	3037.8	
836.72	2910.8	
836.89	4552.6	
837.06	4965	
837.23	3125.9	
837.4	3347.7	
837.57	5462.6	
837.75	5868.1	
837.92	2817.3	
838.09	2985.9	
838.26	4530.1	
838.43	4996.4	
838.6	3163.4	
838.77	2854.9	
838.94	5611.4	
839.11	5412.1	
839.29	3054.2	
839.46	2467.8	
839.63	4965	
839.8	4688.5	
839.97	2999.6	
840.14	2920.4	
840.31	4773.1	
840.48	4910.3	
840.65	2583.2	
840.82	2921.8	
841	4873.5	
841.17	4737.6	
841.34	2734	
841.51	2818	
841.68	4859.1	
841.85	4618.2	
842.02	2831.7	
842.19	2448.7	
842.36	4685.1	
842.53	4741	
842.7	2768.2	
842.87	3277.4	
843.05	5868.1	
843.22	4607.9	
843.39	2691.7	
843.56	2854.9	
843.73	4504.2	
843.9	4956.1	
844.07	4244.1	
844.24	3534.8	
844.41	6526.9	
844.58	4285.7	
844.75	2660.3	
844.92	2897.9	
845.09	4826.4	
845.26	4815.5	
845.43	2764.1	
845.6	2890.4	
845.77	4829.8	
845.94	4647.5	
846.12	3023.5	
846.29	3127.2	
846.46	5038.7	
846.63	4827.1	
846.8	2732	
846.97	3237.8	
847.14	5193.6	
847.31	4831.8	
847.48	3028.9	
847.65	3308.2	
847.82	4980.7	
847.99	4928.1	
848.16	3497.2	
848.33	3347.1	
848.5	4538.3	
848.67	5116.5	
848.84	2708.8	
849.01	2861	
849.18	4485.7	
849.35	4208.6	
849.52	3293.8	
849.69	2654.9	
849.86	5012.7	
850.03	5057.1	
850.2	2769.5	
850.37	3270.6	
850.54	5008	
850.71	4612	
850.88	3192.1	
851.05	2660.3	
851.22	4758.8	
851.39	5205.3	
851.56	2560	
851.73	3084.2	
851.9	4369.7	
852.07	4990.9	
852.24	3035.8	
852.41	2732	
852.58	4844.1	
852.75	4391.5	
852.92	3028.9	
853.09	2658.3	
853.26	4443.4	
853.43	5136.3	
853.6	2738.1	
853.77	2371.5	
853.94	5184.8	
854.11	4285.7	
854.28	3871.3	
854.44	2929.3	
854.61	5496.1	
854.78	5039.4	
854.95	2742.2	
855.12	3302	
855.29	4023.6	
855.46	5338.4	
855.63	2764.8	
855.8	3679.5	
855.97	4493.2	
856.14	5078.3	
856.31	3819.5	
856.48	2924.5	
856.65	4567.7	
856.82	4278.9	
856.99	2709.5	
857.16	2925.2	
857.33	5589.6	
857.49	4609.3	
857.66	2915.6	
857.83	3087	
858	4612.7	
858.17	4762.9	
858.34	2570.9	
858.51	2730.6	
858.68	5253.7	
858.85	5260.5	
859.02	3122.5	
859.19	3309.5	
859.36	4362.2	
859.52	4297.3	
859.69	2718.3	
859.86	3166.8	
860.03	4353.3	
860.2	5245.5	
860.37	2566.8	
860.54	2820.7	
860.71	5023.7	
860.88	5226.4	
861.05	3007.1	
861.21	3398.9	
861.38	5223	
861.55	4171	
861.72	2521.7	
861.89	3062.4	
862.06	5004.6	
862.23	5283.8	
862.4	2639.1	
862.56	2807.1	
862.73	4860.5	
862.9	4671.4	
863.07	3152.5	
863.24	2526.5	
863.41	4326	
863.58	4320.5	
863.75	2764.1	
863.91	3153.9	
864.08	5110.4	
864.25	4915.1	
864.42	3377.8	
864.59	3660.4	
864.76	5416.2	
864.93	4308.9	
865.09	2656.2	
865.26	2866.5	
865.43	5169.8	
865.6	5395.7	
865.77	2449.4	
865.94	2707.4	
866.1	5105.6	
866.27	4925.4	
866.44	3940.3	
866.61	2640.5	
866.78	4613.4	
866.95	4894.6	
867.11	2689	
867.28	2474.6	
867.45	5077.6	
867.62	4358.1	
867.79	3162.1	
867.96	2727.2	
868.12	4287.1	
868.29	4976.6	
868.46	2719	
868.63	3558	
868.8	5089.9	
868.97	4906.3	
869.13	2813.9	
869.3	2808.4	
869.47	4838.7	
869.64	4986.1	
869.81	2679.4	
869.97	2699.2	
870.14	4748.6	
870.31	5152	
870.48	2675.3	
870.65	3334.1	
870.81	4580.6	
870.98	4560.1	
871.15	3061	
871.32	2859	
871.48	4867.3	
871.65	5319.3	
871.82	2684.2	
871.99	2981.2	
872.16	5575.3	
872.32	5132.2	
872.49	2790	
872.66	2740.9	
872.83	5016.8	
872.99	4416.1	
873.16	3022.8	
873.33	2718.3	
873.5	4683	
873.67	4736.3	
873.83	2878.8	
874	3547.8	
874.17	4767	
874.34	5418.2	
874.5	3424.9	
874.67	3323.9	
874.84	5149.3	
875.01	4161.5	
875.17	3680.9	
875.34	2706.7	
875.51	4786.8	
875.68	5578.7	
875.84	3218.7	
876.01	3754.6	
876.18	4946.5	
876.34	4896	
876.51	2733.4	
876.68	2632.3	
876.85	4557.4	
877.01	5177.9	
877.18	3763.5	
877.35	2729.3	
877.52	4814.8	
877.68	4309.6	
877.85	2694.4	
878.02	2700.6	
878.18	4520.5	
878.35	4475.5	
878.52	2251.4	
878.69	2979.1	
878.85	5014.8	
879.02	4840	
879.19	3794.9	
879.35	2942.9	
879.52	4870.8	
879.69	5013.4	
879.86	2392	
880.02	3012.6	
880.19	4643.4	
880.36	5452.4	
880.52	3057.6	
880.69	3145	
880.86	4980	
881.02	4961.5	
881.19	3018.7	
881.36	2898.6	
881.52	4874.8	
881.69	4392.2	
881.86	2859	
882.02	2880.8	
882.19	5096.7	
882.36	5813.5	
882.52	2809.1	
882.69	3715.7	
882.86	4729.4	
883.02	4724.7	
883.19	3186	
883.36	3046	
883.52	5047.6	
883.69	5571.2	
883.86	2760.7	
884.02	2512.9	
884.19	4949.9	
884.36	4726.7	
884.52	3011.2	
884.69	2927.9	
884.86	4520.5	
885.02	5365.7	
885.19	3056.9	
885.36	3062.4	
885.52	4634.6	
885.69	4740.4	
885.86	3792.8	
886.02	3416	
886.19	4984.1	
886.35	4536.9	
886.52	3024.2	
886.69	3674.1	
886.85	4371	
887.02	5192.3	
887.19	5192.3	
887.35	5192.3	
887.52	5192.3	
887.68	5192.3	
887.85	5192.3	
888.02	5192.3	
888.18	5192.3	
888.35	5192.3	
888.51	5192.3	
888.68	5192.3	
888.85	5192.3	
889.01	5192.3	
889.18	5192.3	
889.35	5192.3	
889.51	5192.3	
889.68	5192.3	
889.84	5192.3	
890.01	5192.3	
890.17	5192.3	
890.34	5192.3	
890.51	5192.3	
890.67	5192.3	
890.84	5192.3	
891	5192.3	
891.17	5192.3	
891.34	5192.3	
891.5	5192.3	
891.67	5192.3	
891.83	5192.3	
892	5192.3	
892.16	5192.3	
892.33	5192.3	
892.5	5192.3	
892.66	5192.3	
892.83	5192.3	
892.99	5192.3	
893.16	5192.3	
893.32	5192.3	
893.49	5192.3	
893.65	5192.3	
893.82	5192.3	
893.99	5192.3	
894.15	5192.3	
894.32	5192.3	
894.48	5192.3	
894.65	5192.3	
894.81	5192.3	
894.98	5192.3	
895.14	5192.3	
895.31	5192.3	
895.47	5192.3	
895.64	5192.3	
895.81	5192.3	
895.97	5192.3	
896.14	5192.3	
896.3	5192.3	
896.47	5192.3	
896.63	5192.3	
896.8	5192.3	
896.96	5192.3	
897.13	5192.3	
897.29	5192.3	
897.46	5192.3	
897.62	5192.3	
897.79	5192.3	
897.95	5192.3	
898.12	5192.3	
898.28	5192.3	
898.45	5192.3	
898.61	5192.3	
898.78	5192.3	
898.94	5192.3	
899.11	5192.3	
899.27	5192.3	
899.44	5192.3	
899.6	5192.3	
899.77	5192.3	
899.93	5192.3	
900.1	5192.3	
900.26	5192.3	
900.43	5192.3	
900.59	5192.3	
900.76	5192.3	
900.92	5192.3	
901.09	5192.3	
901.25	5192.3	
901.42	5192.3	
901.58	5192.3	
901.75	5192.3	
901.91	5192.3	
902.07	5192.3	
902.24	5192.3	
902.4	5192.3	
902.57	5192.3	
902.73	5192.3	
902.9	5192.3	
903.06	5192.3	
903.23	5192.3	
903.39	5192.3	
903.56	5192.3	
903.72	5192.3	
903.88	5192.3	
904.05	5192.3	
904.21	5192.3	
904.38	5192.3	
904.54	5192.3	
904.71	5192.3	
904.87	5192.3	
905.03	5192.3	
905.2	5192.3	
905.36	5192.3	
905.53	5192.3	
905.69	5192.3	
905.86	5192.3	
906.02	5192.3	
906.18	5192.3	
906.35	5192.3	
906.51	5192.3	
906.68	5192.3	
906.84	5192.3	
907.01	5192.3	
907.17	5192.3	
907.33	5192.3	
907.5	5192.3	
907.66	5192.3	
907.83	5192.3	
907.99	5192.3	
908.15	5192.3	
908.32	5192.3	
908.48	5192.3	
908.65	5192.3	
908.81	5192.3	
908.97	5192.3	
909.14	5192.3	
909.3	5192.3	
909.47	5192.3	
909.63	5192.3	
909.79	5192.3	
909.96	5192.3	
910.12	5192.3	
910.28	5192.3	
910.45	5192.3	
910.61	5192.3	
910.78	5192.3	
910.94	5192.3	
911.1	5192.3	
911.27	5192.3	
911.43	5192.3	
911.59	5192.3	
911.76	5192.3	
911.92	5192.3	
912.08	5192.3	
912.25	5192.3	
912.41	5192.3	
912.57	5192.3	
912.74	5192.3	
912.9	5192.3	
913.07	5192.3	
913.23	5192.3	
913.39	5192.3	
913.56	5192.3	
913.72	5192.3	
913.88	5192.3	
914.05	5192.3	
914.21	5192.3	
914.37	5192.3	
914.54	5192.3	
914.7	5192.3	
914.86	5192.3	
915.03	5192.3	
915.19	5192.3	
