Wavelength	Intensities	
nm	a.u.	
179.22	1942.5	
179.44	1934.6	
179.65	1950.3	
179.86	1918.9	
180.08	1918.3	
180.29	4947.2	
180.51	3518.4	
180.72	5664.7	
180.94	6653.2	
181.15	3231	
181.37	3166.8	
181.58	5530.2	
181.79	5805.3	
182.01	3313.6	
182.22	3648.1	
182.44	5765	
182.65	4834.6	
182.87	4563.6	
183.08	4030.4	
183.29	6100.2	
183.51	5008	
183.72	3611.9	
183.94	5364.3	
184.15	5425.8	
184.37	5443.5	
184.58	3209.2	
184.79	4461.8	
185.01	5015.5	
185.22	5781.4	
185.44	4724.7	
185.65	3985.3	
185.86	5333.6	
186.08	4885.1	
186.29	3136.8	
186.51	3360	
186.72	5054.4	
186.94	5928.2	
187.15	3834.5	
187.36	4034.5	
187.58	7696.3	
187.79	5543.2	
188.01	4228.4	
188.22	6632.7	
188.43	6601.3	
188.65	5733.6	
188.86	3392.1	
189.08	4006.5	
189.29	5221.6	
189.5	5238.7	
189.72	3762.1	
189.93	3814	
190.15	6051.7	
190.36	7204.1	
190.57	4160.1	
190.79	3968.3	
191	6045.6	
191.22	6057.2	
191.43	4095.9	
191.64	3297.2	
191.86	6278.4	
192.07	6083.8	
192.29	3478.1	
192.5	3730.7	
192.71	5988.3	
192.93	5144.5	
193.14	3705.5	
193.35	3766.2	
193.57	5178.6	
193.78	5967.8	
194	2986.6	
194.21	3611.3	
194.42	4961.5	
194.64	5470.1	
194.85	4057	
195.07	4696	
195.28	5502.9	
195.49	4677.6	
195.71	4982.7	
195.92	3464.5	
196.13	5625.8	
196.35	5721.3	
196.56	5268.7	
196.78	4000.4	
196.99	7073	
197.2	6632.7	
197.42	4590.9	
197.63	4027	
197.84	4815.5	
198.06	5694.7	
198.27	3763.5	
198.48	4955.4	
198.7	5208	
198.91	5347.2	
199.13	4100.7	
199.34	4087.7	
199.55	5771.2	
199.77	4689.2	
199.98	3565.5	
200.19	4122.6	
200.41	5264.6	
200.62	5066.7	
200.83	4218.1	
201.05	4576.5	
201.26	5362.9	
201.47	5038	
201.69	3588.7	
201.9	3466.5	
202.11	5367	
202.33	6346	
202.54	3805.1	
202.76	4311	
202.97	5539.1	
203.18	5507.7	
203.4	4214.7	
203.61	4195.6	
203.82	5446.2	
204.04	5113.1	
204.25	4115.7	
204.46	4056.3	
204.68	5485.8	
204.89	5611.4	
205.1	3999	
205.32	3383.9	
205.53	5815.5	
205.74	5979.4	
205.96	2927.2	
206.17	4207.9	
206.38	5825.8	
206.6	6005.3	
206.81	4612.7	
207.02	3771	
207.24	5687.2	
207.45	6023.8	
207.66	3887.7	
207.88	3323.9	
208.09	5612.8	
208.3	5447.6	
208.52	3522.5	
208.73	3855.6	
208.94	5442.1	
209.15	6162.3	
209.37	3865.2	
209.58	4032.5	
209.79	5917.3	
210.01	5228.5	
210.22	3056.9	
210.43	3241.3	
210.65	5459.2	
210.86	5824.4	
211.07	3891.8	
211.29	3530	
211.5	5722	
211.71	5352	
211.93	3516.4	
212.14	3540.9	
212.35	5358.9	
212.56	5636	
212.78	4102.1	
212.99	3368.9	
213.2	6490	
213.42	5166.3	
213.63	3667.9	
213.84	3935.5	
214.06	4846.2	
214.27	4850.3	
214.48	3936.2	
214.69	4153.3	
214.91	6098.9	
215.12	6164.4	
215.33	4151.9	
215.55	4571.7	
215.76	6740.5	
215.97	5834	
216.18	4015.4	
216.4	3934.1	
216.61	5106.3	
216.82	5920.7	
217.04	3650.2	
217.25	3713	
217.46	6109.8	
217.67	5745.2	
217.89	3195.5	
218.1	3326.6	
218.31	5522	
218.53	5593	
218.74	3747.1	
218.95	3589.4	
219.16	5407.3	
219.38	6334.4	
219.59	3639.2	
219.8	4306.2	
220.01	7015	
220.23	5526.1	
220.44	4816.8	
220.65	3531.4	
220.87	5531.6	
221.08	6053.8	
221.29	3280.8	
221.5	4398.4	
221.72	7454.6	
221.93	5133.6	
222.14	4092.5	
222.35	4885.1	
222.57	5421	
222.78	5758.9	
222.99	3921.2	
223.2	4197	
223.42	5765.7	
223.63	5847	
223.84	2968.2	
224.05	2956.6	
224.27	6959	
224.48	6367.1	
224.69	4804.5	
224.9	4086.4	
225.12	5664	
225.33	5347.2	
225.54	3237.8	
225.75	3638.6	
225.97	4975.9	
226.18	5292	
226.39	3936.9	
226.6	3681.6	
226.82	5177.9	
227.03	4981.3	
227.24	4073.4	
227.45	3339.6	
227.67	5869.5	
227.88	6409.5	
228.09	4542.4	
228.3	4588.1	
228.52	5879	
228.73	5416.2	
228.94	3792.2	
229.15	3345.7	
229.36	5326.1	
229.58	5314.5	
229.79	3739.6	
230	4434.5	
230.21	6463.4	
230.43	5535.7	
230.64	4033.1	
230.85	4207.9	
231.06	5890	
231.28	5837.4	
231.49	3422.2	
231.7	3970.3	
231.91	5730.9	
232.12	5500.8	
232.34	3439.2	
232.55	3926.6	
232.76	6087.9	
232.97	5565	
233.18	3571.7	
233.4	4069.3	
233.61	5586.9	
233.82	5190.2	
234.03	3786.7	
234.25	3703.4	
234.46	7591.8	
234.67	5466	
234.88	4125.3	
235.09	3638.6	
235.31	5733.6	
235.52	5285.1	
235.73	4001	
235.94	3448.1	
236.15	5117.9	
236.37	6562.4	
236.58	3585.3	
236.79	3945.8	
237	5763	
237.21	4929.5	
237.43	4195.6	
237.64	3296.5	
237.85	9871.2	
238.06	4971.8	
238.27	4267.3	
238.48	3393.5	
238.7	5712.5	
238.91	5281.7	
239.12	3872	
239.33	3926.6	
239.54	5039.4	
239.76	5337	
239.97	3860.4	
240.18	3910.3	
240.39	6830	
240.6	5693.4	
240.82	4014	
241.03	3265.8	
241.24	5376.6	
241.45	6273.6	
241.66	3579.2	
241.87	4202.4	
242.09	6147.3	
242.3	6617.7	
242.51	4313	
242.72	3959.4	
242.93	5980.1	
243.14	5420.3	
243.36	4556	
243.57	4891.2	
243.78	6340.5	
243.99	5828.5	
244.2	3926	
244.41	3516.4	
244.63	4967.7	
244.84	5846.3	
245.05	4200.4	
245.26	3898	
245.47	5699.5	
245.68	5909.8	
245.9	5214.8	
246.11	4088.4	
246.32	5289.9	
246.53	5730.9	
246.74	6338.5	
246.95	3300.6	
247.16	4919.2	
247.38	5376.6	
247.59	3250.8	
247.8	3911.6	
248.01	5103.5	
248.22	5377.3	
248.43	3560.7	
248.64	3822.9	
248.86	4797.7	
249.07	5177.9	
249.28	3429	
249.49	4041.3	
249.7	5913.9	
249.91	6133.7	
250.12	3259.7	
250.34	3292.5	
250.55	5543.2	
250.76	5432.6	
250.97	4047.5	
251.18	4095.9	
251.39	6124.1	
251.6	5591.6	
251.81	4152.6	
252.03	4128.7	
252.24	5160.9	
252.45	5968.5	
252.66	3407.8	
252.87	4327.4	
253.08	5449.6	
253.29	7120.1	
253.5	3386	
253.72	4761.5	
253.93	5275.6	
254.14	6470.9	
254.35	3722.5	
254.56	3803.1	
254.77	5694.7	
254.98	4994.3	
255.19	3626.3	
255.41	4796.3	
255.62	5504.9	
255.83	6126.8	
256.04	4228.4	
256.25	4132.8	
256.46	6703.7	
256.67	5059.8	
256.88	4021.5	
257.09	4521.9	
257.31	5066	
257.52	5150.6	
257.73	5076.2	
257.94	3672.7	
258.15	5281.7	
258.36	5421	
258.57	4659.8	
258.78	2983.9	
258.99	5941.2	
259.2	5283.1	
259.41	3752.6	
259.63	3802.4	
259.84	6277	
260.05	6804.7	
260.26	4942.4	
260.47	3562.1	
260.68	6037.4	
260.89	5317.9	
261.1	4482.3	
261.31	3545.7	
261.52	5973.9	
261.73	6416.3	
261.95	4844.1	
262.16	4175.1	
262.37	6096.8	
262.58	6227.2	
262.79	4837.3	
263	3814	
263.21	5401.9	
263.42	4896	
263.63	3816.7	
263.84	3769.6	
264.05	6003.3	
264.26	6442.2	
264.47	4733.5	
264.69	4288.4	
264.9	6126.2	
265.11	5580.7	
265.32	3558	
265.53	3738.9	
265.74	5506.3	
265.95	4857.8	
266.16	3951.9	
266.37	4388.8	
266.58	5537.7	
266.79	5270.8	
267	3663.1	
267.21	3407.8	
267.42	5055.8	
267.63	5418.2	
267.84	3858.4	
268.06	3304.7	
268.27	5890.6	
268.48	6148.7	
268.69	3803.8	
268.9	4494.6	
269.11	6154.1	
269.32	4888.5	
269.53	3889.8	
269.74	3590.8	
269.95	5739.1	
270.16	4775.9	
270.37	3975.1	
270.58	4494.6	
270.79	5256.5	
271	5932.3	
271.21	4208.6	
271.42	3947.1	
271.63	5586.2	
271.84	5077.6	
272.05	3094.5	
272.26	3534.1	
272.47	5477	
272.68	5638.7	
272.89	3786.7	
273.11	4281.6	
273.32	5246.2	
273.53	6397.9	
273.74	4229.1	
273.95	4134.2	
274.16	6028.5	
274.37	5499.5	
274.58	4313.7	
274.79	3467.2	
275	5558.9	
275.21	6142.5	
275.42	5128.1	
275.63	4429.1	
275.84	5634	
276.05	7152.2	
276.26	4106.9	
276.47	3818.8	
276.68	5275.6	
276.89	6390.3	
277.1	4460.5	
277.31	3426.9	
277.52	5657.9	
277.73	5864	
277.94	3367.5	
278.15	3728.7	
278.36	5677	
278.57	5047.6	
278.78	3756	
278.99	4226.3	
279.2	5059.8	
279.41	5019.6	
279.62	4937	
279.83	3428.3	
280.04	6655.9	
280.25	4956.8	
280.46	4976.6	
280.67	3896.6	
280.88	5032.5	
281.09	6134.3	
281.3	4111	
281.51	5243.5	
281.72	5117.2	
281.93	5991	
282.14	3667.9	
282.35	3956.7	
282.56	5901.6	
282.77	5855.8	
282.98	3799	
283.19	4673.5	
283.4	7283.3	
283.61	5356.1	
283.82	3420.8	
284.03	4934.2	
284.24	5498.8	
284.45	6116.6	
284.66	4796.3	
284.87	4630.5	
285.08	5965.1	
285.29	6232	
285.5	3303.4	
285.71	3818.1	
285.92	6030.6	
286.12	6707.1	
286.33	4825.7	
286.54	3734.8	
286.75	5943.2	
286.96	5307	
287.17	3482.2	
287.38	4790.9	
287.59	5087.2	
287.8	4949.3	
288.01	3792.8	
288.22	4380.6	
288.43	5973.2	
288.64	4907.6	
288.85	4555.4	
289.06	4367	
289.27	5890	
289.48	6374.6	
289.69	4893.3	
289.9	4395.6	
290.11	6103.6	
290.32	5125.4	
290.53	4598.4	
290.74	4287.1	
290.94	5948	
291.15	5959.6	
291.36	3710.9	
291.57	4399	
291.78	5165	
291.99	4860.5	
292.2	3480.9	
292.41	4308.2	
292.62	5960.3	
292.83	5817.6	
293.04	5300.1	
293.25	3553.2	
293.46	5232.6	
293.67	6047	
293.88	3680.2	
294.09	3536.8	
294.29	5000.5	
294.5	5576.6	
294.71	3900.7	
294.92	3691.8	
295.13	5215.5	
295.34	6588.3	
295.55	3296.5	
295.76	3489.7	
295.97	5829.9	
296.18	6655.2	
296.39	3469.3	
296.6	3646.7	
296.81	5517.9	
297.01	5894.7	
297.22	3852.2	
297.43	3615.3	
297.64	5084.4	
297.85	5115.8	
298.06	3003.7	
298.27	3345.7	
298.48	5567.1	
298.69	5174.5	
298.9	4040	
299.11	3573.7	
299.31	4982	
299.52	4949.3	
299.73	4238.6	
299.94	4129.4	
300.15	5432.6	
300.36	5042.1	
300.57	4172.4	
300.78	4147.8	
300.99	5285.8	
301.2	5553.4	
301.4	3624.2	
301.61	4012	
301.82	5750	
302.03	5879	
302.24	4458.4	
302.45	3479.5	
302.66	5788.2	
302.87	6210.1	
303.08	3708.9	
303.29	5046.9	
303.49	5210	
303.7	5466.7	
303.91	3277.4	
304.12	4754.7	
304.33	4934.2	
304.54	5546.6	
304.75	3718.4	
304.96	3519.8	
305.16	5774.6	
305.37	6494.8	
305.58	3186	
305.79	3358.7	
306	5778.7	
306.21	4881	
306.42	3664.5	
306.63	5644.2	
306.83	5283.8	
307.04	6035.4	
307.25	4089.1	
307.46	4012	
307.67	4643.4	
307.88	5918.6	
308.09	3541.6	
308.29	3769.6	
308.5	5536.3	
308.71	6012.8	
308.92	3878.2	
309.13	3528.7	
309.34	5325.4	
309.55	5393.7	
309.75	4556	
309.96	4197	
310.17	5931.6	
310.38	5132.9	
310.59	4439.3	
310.8	4123.9	
311.01	6012.8	
311.21	5347.2	
311.42	3505.4	
311.63	3623.5	
311.84	5156.8	
312.05	5588.2	
312.26	4095.3	
312.46	4534.9	
312.67	5272.8	
312.88	5003.2	
313.09	3511.6	
313.3	3496.6	
313.51	6220.4	
313.71	6644.3	
313.92	3487	
314.13	3752.6	
314.34	5617.6	
314.55	5388.9	
314.76	4555.4	
314.96	3923.2	
315.17	5459.2	
315.38	5922.7	
315.59	3551.2	
315.8	3409.2	
316.01	6324.1	
316.21	6402	
316.42	3423.5	
316.63	3973.7	
316.84	5258.5	
317.05	6163	
317.26	4175.8	
317.46	3748.5	
317.67	5385.5	
317.88	5819.6	
318.09	4549.2	
318.3	3282.2	
318.5	5217.5	
318.71	5800.5	
318.92	5811.5	
319.13	4166.3	
319.34	5986.2	
319.54	6109.1	
319.75	3353.2	
319.96	3160.7	
320.17	5849	
320.38	5995.8	
320.58	3213.3	
320.79	3929.4	
321	6055.8	
321.21	6238.1	
321.42	3928.7	
321.62	3189.4	
321.83	5055.8	
322.04	5410.7	
322.25	3701.4	
322.46	3556	
322.66	5591.6	
322.87	5720	
323.08	4431.8	
323.29	3424.2	
323.5	6552.1	
323.7	5033.9	
323.91	4830.5	
324.12	4384.7	
324.33	5491.3	
324.53	5769.8	
324.74	4212	
324.95	4429.1	
325.16	4797	
325.37	5231.2	
325.57	3576.4	
325.78	3664.5	
325.99	5467.4	
326.2	4907.6	
326.4	5197.7	
326.61	3289	
326.82	5371.8	
327.03	5561.6	
327.24	5095.3	
327.44	4824.3	
327.65	5704.3	
327.86	4613.4	
328.07	4157.4	
328.27	3426.9	
328.48	6152.8	
328.69	5025	
328.9	5165.7	
329.1	3833.8	
329.31	5317.2	
329.52	6315.9	
329.73	3523.9	
329.93	3998.3	
330.14	5416.2	
330.35	5705.6	
330.56	5844.2	
330.76	4422.2	
330.97	5259.2	
331.18	5676.3	
331.39	3962.8	
331.59	3182.5	
331.8	6038.8	
332.01	6195.1	
332.22	3625.6	
332.42	4205.8	
332.63	5561.6	
332.84	5182	
333.05	3993.5	
333.25	3642	
333.46	5239.4	
333.67	5438	
333.88	3753.9	
334.08	4158.7	
334.29	7283.9	
334.5	6173.9	
334.7	3465.8	
334.91	5098.8	
335.12	4995.7	
335.33	5895.4	
335.53	3919.8	
335.74	5946.6	
335.95	5261.9	
336.16	5066.7	
336.36	3966.9	
336.57	4579.9	
336.78	4960.2	
336.98	6023.1	
337.19	4909.7	
337.4	3859.1	
337.61	6606.1	
337.81	5012.7	
338.02	3616.7	
338.23	4676.9	
338.43	6201.2	
338.64	5109	
338.85	3528.7	
339.05	4767	
339.26	6313.9	
339.47	4875.5	
339.68	3590.8	
339.88	5294.7	
340.09	5641.5	
340.3	5946.6	
340.5	4222.9	
340.71	3203	
340.92	4892.6	
341.13	6218.3	
341.33	3449.5	
341.54	4257	
341.75	5680.4	
341.95	5302.9	
342.16	3958.7	
342.37	4380.6	
342.57	5053.7	
342.78	5365	
342.99	4448.9	
343.19	3192.8	
343.4	5825.1	
343.61	5736.4	
343.81	3806.5	
344.02	3526.6	
344.23	5854.5	
344.43	6275	
344.64	4392.2	
344.85	4344.4	
345.06	5686.5	
345.26	6109.1	
345.47	4197.7	
345.68	4883.7	
345.88	4785.4	
346.09	5918.6	
346.3	4242.7	
346.5	3164.1	
346.71	5461.9	
346.92	5154.7	
347.12	3218	
347.33	4132.1	
347.54	6006.7	
347.74	6392.4	
347.95	4085	
348.16	3011.2	
348.36	5238	
348.57	4971.1	
348.78	4024.9	
348.98	4363.5	
349.19	5425.8	
349.39	4918.5	
349.6	3291.8	
349.81	3635.1	
350.01	5728.9	
350.22	5124.7	
350.43	3956	
350.63	4762.9	
350.84	5536.3	
351.05	5215.5	
351.25	3571.7	
351.46	3285.6	
351.67	6020.3	
351.87	5071.5	
352.08	3814.7	
352.29	4394.9	
352.49	5868.8	
352.7	5597.1	
352.9	3478.1	
353.11	4354	
353.32	6610.2	
353.52	5229.1	
353.73	3407.8	
353.94	4414.7	
354.14	5687.9	
354.35	5617.6	
354.55	3531.4	
354.76	3971	
354.97	5708.4	
355.17	5445.5	
355.38	3295.9	
355.59	4622.9	
355.79	5119.2	
356	5563	
356.2	3950.5	
356.41	3362.8	
356.62	4846.9	
356.82	5352.7	
357.03	4176.5	
357.24	3763.5	
357.44	5160.9	
357.65	5265.3	
357.85	5012.7	
358.06	3973.7	
358.27	4855.7	
358.47	5135.6	
358.68	3237.8	
358.88	4160.8	
359.09	5690.6	
359.3	6055.8	
359.5	4902.2	
359.71	4285.7	
359.91	6533	
360.12	5836	
360.33	4116.4	
360.53	4632.5	
360.74	5124	
360.94	5155.4	
361.15	4359.4	
361.36	3592.1	
361.56	5933	
361.77	5309	
361.97	4883.7	
362.18	3796.3	
362.38	5997.8	
362.59	4976.6	
362.8	3454.2	
363	3265.8	
363.21	4806.6	
363.41	5462.6	
363.62	3983.3	
363.83	5100.1	
364.03	5522	
364.24	6489.3	
364.44	5143.1	
364.65	5124	
364.85	5223.7	
365.06	5188.9	
365.27	3672.7	
365.47	3665.2	
365.68	6298.2	
365.88	5242.1	
366.09	4094.6	
366.29	3752.6	
366.5	5468.8	
366.71	5943.2	
366.91	5092.6	
367.12	4169	
367.32	6465.4	
367.53	5793.7	
367.73	4199	
367.94	5173.2	
368.14	5764.3	
368.35	6643.6	
368.56	4224.3	
368.76	3914.4	
368.97	5916.6	
369.17	7597.3	
369.38	3611.9	
369.58	3896.6	
369.79	4888.5	
369.99	6262.7	
370.2	5014.8	
370.4	4083	
370.61	5582.1	
370.82	6741.9	
371.02	3923.9	
371.23	3241.9	
371.43	4747.9	
371.64	6126.2	
371.84	3940.3	
372.05	5196.4	
372.25	7507.9	
372.46	5794.4	
372.66	3870.7	
372.87	3892.5	
373.07	5872.2	
373.28	7514.7	
373.48	4981.3	
373.69	4626.4	
373.9	5366.4	
374.1	5370.5	
374.31	4885.8	
374.51	4396.3	
374.72	6236.1	
374.92	5016.8	
375.13	5033.9	
375.33	4263.9	
375.54	5738.4	
375.74	5188.2	
375.95	4243.4	
376.15	5552.7	
376.36	5677.7	
376.56	5560.2	
376.77	4397	
376.97	4788.8	
377.18	6802.7	
377.38	5823.1	
377.59	5165.7	
377.79	3774.4	
378	5661.3	
378.2	6037.4	
378.41	3876.1	
378.61	3721.2	
378.82	6112.5	
379.02	5138.4	
379.23	3990.8	
379.43	5122.7	
379.64	6177.4	
379.84	5732.3	
380.05	3814.7	
380.25	3762.8	
380.46	5857.9	
380.66	5466	
380.87	5236.7	
381.07	5595.7	
381.28	6422.4	
381.48	5870.8	
381.69	3879.5	
381.89	3898.6	
382.1	4813.4	
382.3	6070.2	
382.51	5042.1	
382.71	5946.6	
382.91	5904.3	
383.12	6427.2	
383.32	4232.5	
383.53	4472.1	
383.73	5739.1	
383.94	5535.7	
384.14	4388.8	
384.35	3513.6	
384.55	5423	
384.76	5958.2	
384.96	4212	
385.17	4601.8	
385.37	5970.5	
385.58	5165.7	
385.78	4638	
385.98	3419.4	
386.19	5380	
386.39	5827.2	
386.6	4034.5	
386.8	4232.5	
387.01	5886.5	
387.21	5983.5	
387.42	4700.1	
387.62	5275.6	
387.83	5205.3	
388.03	5907	
388.23	4259.8	
388.44	5074.2	
388.64	4935.6	
388.85	4977.9	
389.05	4741	
389.26	5275.6	
389.46	6899.6	
389.67	6320.7	
389.87	4605.9	
390.07	4678.2	
390.28	5486.5	
390.48	5063.9	
390.69	3845.4	
390.89	4145.1	
391.1	5277.6	
391.3	6268.8	
391.5	5418.9	
391.71	5985.5	
391.91	5912.5	
392.12	6954.9	
392.32	5507	
392.53	4655.7	
392.73	5342.5	
392.93	5541.1	
393.14	4360.8	
393.34	5173.2	
393.55	5997.8	
393.75	5497.4	
393.95	4313.7	
394.16	4303.5	
394.36	5265.3	
394.57	6012.8	
394.77	3790.1	
394.98	4253.6	
395.18	5204.6	
395.38	5296	
395.59	5100.8	
395.79	4005.8	
396	5343.2	
396.2	5871.5	
396.4	4995	
396.61	4785.4	
396.81	6078.4	
397.02	5261.9	
397.22	5101.5	
397.42	5141.8	
397.63	6021.7	
397.83	5189.6	
398.04	3971.7	
398.24	4412	
398.44	5786.2	
398.65	4814.8	
398.85	3744.4	
399.05	3960.1	
399.26	5188.9	
399.46	6955.6	
399.67	4341.7	
399.87	3993.5	
400.07	5577.3	
400.28	5868.8	
400.48	4087.7	
400.69	5210	
400.89	6165.8	
401.09	6619.7	
401.3	3975.8	
401.5	5159.5	
401.7	6805.4	
401.91	7053.9	
402.11	4296.6	
402.32	4566.3	
402.52	6161.7	
402.72	6059.3	
402.93	4754.7	
403.13	3565.5	
403.33	6958.3	
403.54	5631.2	
403.74	4515.1	
403.94	5476.3	
404.15	5720.7	
404.35	6913.9	
404.56	4324.6	
404.76	6235.4	
404.96	6124.8	
405.17	5980.1	
405.37	5728.2	
405.57	4753.3	
405.78	6135	
405.98	5639.4	
406.18	4234.5	
406.39	5221.6	
406.59	6145.3	
406.79	5776	
407	4167.6	
407.2	4255.7	
407.4	6307.7	
407.61	6494.8	
407.81	4252.3	
408.01	6460	
408.22	5201.8	
408.42	7290.1	
408.62	5353.4	
408.83	4784.7	
409.03	5924.1	
409.23	5554.8	
409.44	4773.1	
409.64	5075.5	
409.84	6638.1	
410.05	6541.9	
410.25	4908.3	
410.45	4696.7	
410.66	6016.9	
410.86	8586.5	
411.06	5117.9	
411.27	4932.9	
411.47	8279.3	
411.67	6203.3	
411.88	5230.5	
412.08	5431.9	
412.28	6872.3	
412.49	7388.4	
412.69	4918.5	
412.89	4958.1	
413.09	7215.7	
413.3	7027.3	
413.5	5059.8	
413.7	4635.9	
413.91	6260	
414.11	7073	
414.31	4803.2	
414.52	5208	
414.72	6703	
414.92	6701.6	
415.12	4787.5	
415.33	5468.1	
415.53	7054.6	
415.73	7336.5	
415.94	5901.6	
416.14	5182.7	
416.34	6042.2	
416.55	5806	
416.75	6453.8	
416.95	5848.3	
417.15	7018.4	
417.36	7817.8	
417.56	6641.6	
417.76	5688.6	
417.97	7363.8	
418.17	7008.1	
418.37	5103.5	
418.57	5316.5	
418.78	6788.3	
418.98	6482.5	
419.18	6115.9	
419.38	6057.9	
419.59	6582.9	
419.79	6203.3	
419.99	5146.5	
420.2	5547.3	
420.4	7078.5	
420.6	7316.7	
420.8	5031.2	
421.01	4870.8	
421.21	6860	
421.41	7062.1	
421.61	5500.8	
421.82	5153.4	
422.02	6382.2	
422.22	7408.9	
422.42	6018.3	
422.63	5638.7	
422.83	6520	
423.03	7763.8	
423.23	5643.5	
423.44	4584.7	
423.64	6690	
423.84	6348.7	
424.04	5104.2	
424.25	4636.6	
424.45	7598	
424.65	7600.7	
424.85	4468	
425.06	5141.1	
425.26	7585.7	
425.46	6518	
425.66	5648.3	
425.87	5268.7	
426.07	7260	
426.27	7157.7	
426.47	5415.5	
426.67	4775.2	
426.88	7701	
427.08	7051.2	
427.28	5709.1	
427.48	4771.8	
427.69	5995.8	
427.89	6621.8	
428.09	5733.6	
428.29	4816.8	
428.5	7359	
428.7	6956.9	
428.9	4687.8	
429.1	5341.8	
429.3	6851.8	
429.51	7360.4	
429.71	5031.2	
429.91	5826.5	
430.11	7137.2	
430.31	7269.6	
430.52	5356.8	
430.72	5659.9	
430.92	7654.6	
431.12	7158.3	
431.32	5047.6	
431.53	5388.9	
431.73	6012.2	
431.93	7821.2	
432.13	4958.1	
432.33	4865.3	
432.54	6553.5	
432.74	6975.4	
432.94	4749.9	
433.14	5877	
433.34	7064.1	
433.55	6561.7	
433.75	5776	
433.95	7574.8	
434.15	6861.4	
434.35	6532.3	
434.56	4944.5	
434.76	4328	
434.96	6901	
435.16	7167.2	
435.36	4823.6	
435.56	5994.4	
435.77	6476.4	
435.97	6716.7	
436.17	6766.5	
436.37	5949.3	
436.57	6445.6	
436.78	6328.2	
436.98	7089.4	
437.18	6543.9	
437.38	7146	
437.58	6692.1	
437.78	6742.6	
437.99	5188.2	
438.19	7176.1	
438.39	8184.4	
438.59	5151.3	
438.79	4719.2	
438.99	7932.5	
439.2	6789	
439.4	4931.5	
439.6	4840.7	
439.8	7071.6	
440	8153.6	
440.2	5806	
440.4	6059.3	
440.61	7429.3	
440.81	7907.2	
441.01	5058.5	
441.21	5898.8	
441.41	7817.1	
441.61	7384.3	
441.81	6272.9	
442.02	7313.3	
442.22	8330.5	
442.42	7561.1	
442.62	5088.5	
442.82	5243.5	
443.02	7890.8	
443.22	6922.1	
443.43	5588.2	
443.63	5151.3	
443.83	6679.1	
444.03	6748.1	
444.23	6412.9	
444.43	5998.5	
444.63	7077.1	
444.83	8332.5	
445.04	5208.7	
445.24	6445	
445.44	7350.8	
445.64	7538.6	
445.84	6038.1	
446.04	6104.3	
446.24	6847	
446.44	7858.7	
446.65	5237.3	
446.85	5619.6	
447.05	7215	
447.25	7765.9	
447.45	5761.6	
447.65	5095.3	
447.85	7195.2	
448.05	6759	
448.25	6285.9	
448.46	5964.4	
448.66	7248.4	
448.86	6840.2	
449.06	4924.7	
449.26	6255.2	
449.46	7504.4	
449.66	6482.5	
449.86	5693.4	
450.06	5614.8	
450.26	6739.2	
450.47	7417.1	
450.67	5939.8	
450.87	6281.8	
451.07	7434.1	
451.27	7246.4	
451.47	5199.1	
451.67	5768.4	
451.87	6888	
452.07	8094.9	
452.27	5500.8	
452.47	5489.2	
452.67	7148.1	
452.88	7923.6	
453.08	4819.6	
453.28	6873	
453.48	8488.8	
453.68	7236.8	
453.88	5371.1	
454.08	5655.1	
454.28	7572	
454.48	7288.7	
454.68	6223.1	
454.88	6817.7	
455.08	7784.3	
455.28	7458	
455.48	5307.7	
455.68	5920.7	
455.89	8279.9	
456.09	7871.7	
456.29	5664	
456.49	5761.6	
456.69	8120.9	
456.89	7344.7	
457.09	6323.4	
457.29	6712.6	
457.49	7702.4	
457.69	7877.2	
457.89	6110.5	
458.09	5461.9	
458.29	7459.4	
458.49	8133.8	
458.69	6525.5	
458.89	5926.1	
459.09	8338.6	
459.29	8593.3	
459.49	5932.3	
459.69	6854.6	
459.9	7986.4	
460.1	7453.9	
460.3	5924.8	
460.5	5755.5	
460.7	7944.1	
460.9	7714	
461.1	5378	
461.3	6690.7	
461.5	8652.7	
461.7	8211	
461.9	5901.6	
462.1	6419	
462.3	7669.6	
462.5	8342.7	
462.7	6017.6	
462.9	6095.4	
463.1	9532.6	
463.3	9096.4	
463.5	6251.8	
463.7	7224.6	
463.9	7839.6	
464.1	8279.3	
464.3	6355.5	
464.5	6619	
464.7	8596	
464.9	8221.2	
465.1	8012.3	
465.3	7045	
465.5	9007	
465.7	8946.9	
465.9	7265.5	
466.1	7156.3	
466.3	8787.8	
466.5	8555.7	
466.7	8052.6	
466.9	6881.2	
467.1	8524.3	
467.3	9452.1	
467.5	7929.7	
467.7	6739.2	
467.9	9665	
468.1	10607	
468.3	7626	
468.5	8000.7	
468.7	8389.8	
468.9	8407.6	
469.1	7069.6	
469.3	7877.9	
469.5	10506	
469.7	7955	
469.9	7521.5	
470.1	6741.2	
470.3	8417.2	
470.5	8521.6	
470.7	8134.5	
470.9	6849.8	
471.1	8247.2	
471.3	8686.8	
471.5	6698.9	
471.69	8662.2	
471.89	8017.1	
472.09	7613	
472.29	7600.7	
472.49	7815.7	
472.69	7856.7	
472.89	8753	
473.09	6601.3	
473.29	6744	
473.49	8023.9	
473.69	8271.7	
473.89	7748.1	
474.09	6902.3	
474.29	9532.6	
474.49	9166.7	
474.69	7670.3	
474.89	7037.5	
475.09	8263.6	
475.29	8271.1	
475.49	6445	
475.69	6642.2	
475.88	9852.8	
476.08	8600.8	
476.28	6390.3	
476.48	6848.4	
476.68	9065	
476.88	8900.5	
477.08	6749.4	
477.28	7171.3	
477.48	8413.1	
477.68	9093.7	
477.88	6628.6	
478.08	6887.3	
478.28	9366	
478.48	8522.3	
478.67	6898.2	
478.87	6300.2	
479.07	9205.6	
479.27	8556.4	
479.47	7186.3	
479.67	7179.5	
479.87	8968.1	
480.07	9627.5	
480.27	6470.2	
480.47	8083.3	
480.67	8623.3	
480.87	9282.8	
481.06	6728.3	
481.26	7669.6	
481.46	8644.5	
481.66	8557.8	
481.86	7172.7	
482.06	8260.8	
482.26	8344.8	
482.46	9170.8	
482.66	7216.4	
482.86	6696.9	
483.05	8680.7	
483.25	8142.7	
483.45	9833	
483.65	7249.8	
483.85	8340	
484.05	8732.5	
484.25	7614.3	
484.45	8114.7	
484.65	9596.8	
484.84	9602.2	
485.04	7208.8	
485.24	7157.7	
485.44	9826.8	
485.64	8099	
485.84	6460.7	
486.04	7992.5	
486.24	8515.5	
486.44	9082.7	
486.63	6464.8	
486.83	7289.4	
487.03	8406.2	
487.23	8681.3	
487.43	6632.7	
487.63	9086.8	
487.83	8712.1	
488.02	9794.1	
488.22	7580.9	
488.42	8236.2	
488.62	9617.3	
488.82	8518.2	
489.02	7271	
489.22	7329	
489.41	9529.2	
489.61	9127.8	
489.81	7010.9	
490.01	6991.8	
490.21	9324.4	
490.41	10008	
490.61	6873.7	
490.8	6974.7	
491	8821.3	
491.2	8101.1	
491.4	7701.7	
491.6	6871.6	
491.8	8956.4	
491.99	9164.7	
492.19	6821.1	
492.39	7193.8	
492.59	9658.9	
492.79	9691.7	
492.99	8060.1	
493.18	7208.8	
493.38	9734.7	
493.58	10503	
493.78	7854.6	
493.98	7537.2	
494.18	9542.2	
494.37	8933.9	
494.57	8146.1	
494.77	8094.9	
494.97	9662.3	
495.17	10090	
495.37	7666.2	
495.56	7938.6	
495.76	10129	
495.96	9737.4	
496.16	8873.2	
496.36	7662.1	
496.55	9960	
496.75	9453.4	
496.95	8149.6	
497.15	8047.8	
497.35	9972.9	
497.54	10074	
497.74	7886	
497.94	9575.6	
498.14	10740	
498.34	10591	
498.53	7567.2	
498.73	8447.9	
498.93	9396.8	
499.13	9975	
499.33	8240.3	
499.52	8880.7	
499.72	9930.6	
499.92	10241	
500.12	7926.3	
500.32	8075.8	
500.51	10254	
500.71	9990	
500.91	8955.1	
501.11	8583.7	
501.31	10209	
501.5	10537	
501.7	9176.3	
501.9	8183	
502.1	9791.3	
502.29	10118	
502.49	8645.8	
502.69	9015.8	
502.89	10043	
503.09	10032	
503.28	7560.4	
503.48	7738.6	
503.68	9357.9	
503.88	9394.7	
504.07	8760.5	
504.27	8185.7	
504.47	9663.7	
504.67	9796.8	
504.86	8589.2	
505.06	8263.6	
505.26	9315.5	
505.46	11045	
505.65	8106.5	
505.85	8394.6	
506.05	9161.2	
506.25	9744.9	
506.44	7410.9	
506.64	8370.7	
506.84	9139.4	
507.04	10026	
507.23	7614.3	
507.43	8172.1	
507.63	11159	
507.83	9282.8	
508.02	8111.3	
508.22	7741.3	
508.42	11395	
508.62	9108	
508.81	8135.2	
509.01	8693.6	
509.21	9052.7	
509.4	9430.2	
509.6	8403.5	
509.8	7731.1	
510	9313.5	
510.19	10910	
510.39	7559.7	
510.59	7684.7	
510.79	9097.1	
510.98	10525	
511.18	7749.5	
511.38	7858.1	
511.57	9846.6	
511.77	9795.4	
511.97	8523	
512.17	7551.5	
512.36	10031	
512.56	10024	
512.76	7678.5	
512.95	7418.4	
513.15	10146	
513.35	8706.6	
513.55	8571.4	
513.74	7679.2	
513.94	10174	
514.14	9493.7	
514.33	8759.2	
514.53	8450.6	
514.73	9478	
514.92	9761.3	
515.12	8044.4	
515.32	7819.1	
515.51	9823.4	
515.71	10357	
515.91	9611.1	
516.11	7941.3	
516.3	11529	
516.5	9345.6	
516.7	8502.5	
516.89	9122.3	
517.09	9543.5	
517.29	9387.9	
517.48	8730.5	
517.68	8145.5	
517.88	9158.5	
518.07	9906	
518.27	8744.1	
518.47	7745.4	
518.66	10589	
518.86	9154.4	
519.06	7626	
519.25	8027.4	
519.45	9449.3	
519.65	11006	
519.84	8653.4	
520.04	9269.8	
520.24	11257	
520.43	10006	
520.63	8303.8	
520.83	8021.2	
521.02	9265.7	
521.22	9955.9	
521.42	8681.3	
521.61	9294.4	
521.81	9581.1	
522.01	9760.6	
522.2	8641.7	
522.4	8422.6	
522.6	10460	
522.79	9157.2	
522.99	8525.7	
523.18	7797.3	
523.38	10196	
523.58	10241	
523.77	9879.4	
523.97	7877.2	
524.17	12104	
524.36	11247	
524.56	9317.6	
524.76	8994	
524.95	10176	
525.15	9889	
525.34	8628.8	
525.54	8644.5	
525.74	10506	
525.93	9453.4	
526.13	9905.3	
526.33	8587.8	
526.52	10978	
526.72	10391	
526.91	10008	
527.11	9146.2	
527.31	11060	
527.5	11457	
527.7	9261.6	
527.89	8157.7	
528.09	9839.8	
528.29	10564	
528.48	9664.4	
528.68	9312.1	
528.87	10885	
529.07	10836	
529.27	9065	
529.46	8299.1	
529.66	10264	
529.85	10684	
530.05	8231.5	
530.25	9032.9	
530.44	11823	
530.64	10465	
530.83	8890.9	
531.03	9253.4	
531.23	10939	
531.42	10976	
531.62	10066	
531.81	9235	
532.01	11177	
532.21	11726	
532.4	8912.1	
532.6	9399.5	
532.79	12119	
532.99	11222	
533.18	9315.5	
533.38	10363	
533.58	10788	
533.77	11576	
533.97	9357.2	
534.16	10308	
534.36	11770	
534.55	10710	
534.75	10673	
534.95	9336.7	
535.14	11561	
535.34	10652	
535.53	8844.5	
535.73	10924	
535.92	12071	
536.12	10836	
536.31	9151	
536.51	10350	
536.71	11267	
536.9	10911	
537.1	9334	
537.29	9488.9	
537.49	11727	
537.68	10746	
537.88	9952.4	
538.07	9117.6	
538.27	10937	
538.46	12030	
538.66	8994.7	
538.86	9422	
539.05	11009	
539.25	11329	
539.44	9679.4	
539.64	9225.4	
539.83	10786	
540.03	11875	
540.22	9085.5	
540.42	9328.5	
540.61	11070	
540.81	11267	
541	9723.8	
541.2	10356	
541.39	10576	
541.59	10910	
541.78	9984.5	
541.98	8979.7	
542.18	10116	
542.37	10096	
542.57	9231.6	
542.76	9943.6	
542.96	10057	
543.15	10889	
543.35	9308.7	
543.54	8739.4	
543.74	11208	
543.93	10860	
544.13	9387.2	
544.32	10487	
544.52	11127	
544.71	10295	
544.91	8428.8	
545.1	9778.4	
545.3	10275	
545.49	10928	
545.69	8297	
545.88	9005.6	
546.08	11987	
546.27	11478	
546.47	9621.4	
546.66	8757.8	
546.86	11167	
547.05	11863	
547.24	8921.6	
547.44	8843.1	
547.63	10078	
547.83	11379	
548.02	9258.9	
548.22	9387.9	
548.41	9940.2	
548.61	11368	
548.8	8670.4	
549	8719.6	
549.19	10533	
549.39	10882	
549.58	8440.4	
549.78	9055.4	
549.97	11003	
550.17	10482	
550.36	9989.3	
550.55	10847	
550.75	10533	
550.94	11357	
551.14	8759.2	
551.33	9179	
551.53	9769.5	
551.72	10877	
551.92	9234.3	
552.11	8858.8	
552.31	10888	
552.5	11011	
552.69	10669	
552.89	8609.7	
553.08	10789	
553.28	10576	
553.47	8860.2	
553.67	10210	
553.86	11485	
554.06	9768.8	
554.25	8185	
554.44	8647.9	
554.64	12333	
554.83	11684	
555.03	8686.8	
555.22	9028.8	
555.42	11019	
555.61	10796	
555.8	8893.6	
556	9222.7	
556.19	9867.8	
556.39	11131	
556.58	8974.2	
556.78	8923	
556.97	10671	
557.16	10410	
557.36	10188	
557.55	8547.5	
557.75	9557.9	
557.94	11447	
558.13	8806.3	
558.33	8485.4	
558.52	11217	
558.72	10028	
558.91	8487.5	
559.1	8738	
559.3	9781.8	
559.49	9491	
559.69	8072.4	
559.88	9205.6	
560.07	10531	
560.27	10997	
560.46	9269.8	
560.66	9464.3	
560.85	10363	
561.04	9611.1	
561.24	8494.3	
561.43	8711.4	
561.63	9910.8	
561.82	10086	
562.01	10039	
562.21	9118.2	
562.4	10759	
562.59	11602	
562.79	8867	
562.98	8529.1	
563.18	10563	
563.37	12039	
563.56	9473.2	
563.76	8376.9	
563.95	9981.1	
564.14	9891	
564.34	8904.6	
564.53	8692.9	
564.73	10578	
564.92	10947	
565.11	9033.6	
565.31	8419.2	
565.5	10976	
565.69	10045	
565.89	8628.1	
566.08	8890.2	
566.27	10983	
566.47	11426	
566.66	9501.2	
566.85	8153.6	
567.05	10540	
567.24	10021	
567.44	8455.4	
567.63	9953.8	
567.82	10852	
568.02	10574	
568.21	8548.9	
568.4	9024	
568.6	10476	
568.79	10477	
568.98	8384.4	
569.18	8525.7	
569.37	10269	
569.56	12280	
569.76	8804.2	
569.95	9738.8	
570.14	10629	
570.34	10488	
570.53	8275.2	
570.72	8275.8	
570.91	11080	
571.11	10193	
571.3	8749.6	
571.49	9748.3	
571.69	10189	
571.88	9781.8	
572.07	9359.9	
572.27	9413.8	
572.46	9837.8	
572.65	10957	
572.85	8586.5	
573.04	8968.1	
573.23	11226	
573.43	10393	
573.62	8471.1	
573.81	9072.5	
574	10563	
574.2	10250	
574.39	8813.1	
574.58	9006.3	
574.78	11328	
574.97	10654	
575.16	9243.8	
575.36	9519.6	
575.55	10969	
575.74	11144	
575.93	8333.2	
576.13	9507.4	
576.32	10292	
576.51	10985	
576.71	8780.3	
576.9	10225	
577.09	11324	
577.28	10757	
577.48	9452.7	
577.67	8305.2	
577.86	10476	
578.05	10862	
578.25	9062.9	
578.44	9078.6	
578.63	10608	
578.83	11803	
579.02	8499.1	
579.21	10144	
579.4	10858	
579.6	10598	
579.79	9295	
579.98	11503	
580.17	11253	
580.37	11368	
580.56	8759.2	
580.75	9632.3	
580.94	11868	
581.14	11718	
581.33	10088	
581.52	9022	
581.71	11224	
581.91	11944	
582.1	8744.1	
582.29	9353.1	
582.48	10910	
582.68	10777	
582.87	9912.2	
583.06	9479.4	
583.25	11225	
583.45	10608	
583.64	10146	
583.83	10861	
584.02	10670	
584.21	11141	
584.41	10084	
584.6	9464.3	
584.79	10961	
584.98	11649	
585.18	8766	
585.37	8773.5	
585.56	10355	
585.75	11258	
585.94	8916.9	
586.14	9678	
586.33	11710	
586.52	10705	
586.71	9480	
586.91	9179	
587.1	10019	
587.29	11123	
587.48	8941.4	
587.67	8742.8	
587.87	10738	
588.06	10770	
588.25	10094	
588.44	9135.3	
588.63	10068	
588.83	10626	
589.02	8212.4	
589.21	8058.8	
589.4	9521	
589.59	9355.1	
589.78	7129.7	
589.98	7493.5	
590.17	8908.7	
590.36	9636.4	
590.55	6963.8	
590.74	7841.7	
590.94	11073	
591.13	9640.5	
591.32	7681.2	
591.51	7279.8	
591.7	10138	
591.89	9538.8	
592.09	7319.4	
592.28	7815	
592.47	8802.9	
592.66	10712	
592.85	7367.2	
593.05	7703.1	
593.24	9512.1	
593.43	10328	
593.62	7823.2	
593.81	8402.8	
594	9534	
594.19	9774.3	
594.39	7581.6	
594.58	7509.2	
594.77	9725.8	
594.96	10361	
595.15	7467.6	
595.34	8184.4	
595.54	9891	
595.73	8996.7	
595.92	6991.1	
596.11	8279.9	
596.3	10428	
596.49	9224.7	
596.68	7971.4	
596.88	8454.7	
597.07	10230	
597.26	9050.7	
597.45	7555.6	
597.64	8759.8	
597.83	9280	
598.02	9981.1	
598.22	7606.2	
598.41	8467	
598.6	9826.2	
598.79	9204.9	
598.98	7815	
599.17	8757.8	
599.36	9923.8	
599.55	11164	
599.74	9970.2	
599.94	9834.3	
600.13	10589	
600.32	9365.4	
600.51	7621.2	
600.7	7836.2	
600.89	11176	
601.08	11338	
601.27	7659.4	
601.47	8729.8	
601.66	10524	
601.85	11157	
602.04	8292.9	
602.23	8585.8	
602.42	9613.8	
602.61	10324	
602.8	8364.6	
602.99	8115.4	
603.18	10065	
603.37	10253	
603.57	8852	
603.76	9368.1	
603.95	11091	
604.14	10593	
604.33	8277.2	
604.52	8678.6	
604.71	10268	
604.9	9904.7	
605.09	9195.4	
605.28	9056.8	
605.47	10945	
605.66	10578	
605.86	8849.3	
606.05	8226.7	
606.24	10828	
606.43	9394.7	
606.62	8542.1	
606.81	9368.1	
607	10755	
607.19	10010	
607.38	8015.1	
607.57	8381	
607.76	9770.9	
607.95	9224.1	
608.14	8626	
608.33	9192.6	
608.52	9799.5	
608.72	10677	
608.91	7981.6	
609.1	7773.4	
609.29	9820.7	
609.48	9327.8	
609.67	8828.1	
609.86	7834.8	
610.05	9420.7	
610.24	9765.4	
610.43	7765.9	
610.62	7390.4	
610.81	10950	
611	10755	
611.19	7932.5	
611.38	8621.3	
611.57	10090	
611.76	11409	
611.95	7647.1	
612.14	7501	
612.33	9847.3	
612.52	9439.1	
612.71	8196	
612.9	7400	
613.09	9088.2	
613.28	11413	
613.47	7864.2	
613.66	8939.4	
613.85	10039	
614.04	9601.6	
614.24	8092.2	
614.43	7159	
614.62	10172	
614.81	10127	
615	8702.5	
615.19	8665.6	
615.38	9457.5	
615.57	9790	
615.76	8531.8	
615.95	9459.6	
616.14	10211	
616.33	9854.8	
616.52	8931.9	
616.71	9214.5	
616.9	10298	
617.09	10109	
617.28	8213	
617.47	9473.9	
617.66	9453.4	
617.85	9444.5	
618.04	9243.8	
618.22	8557.8	
618.41	9821.4	
618.6	10746	
618.79	8568	
618.98	8325.7	
619.17	11058	
619.36	9265.7	
619.55	8505.9	
619.74	8563.2	
619.93	10267	
620.12	9598.1	
620.31	9073.2	
620.5	9261.6	
620.69	10899	
620.88	11286	
621.07	9972.2	
621.26	8871.8	
621.45	10417	
621.64	10554	
621.83	9048.6	
622.02	8133.8	
622.21	10539	
622.4	10219	
622.59	9614.5	
622.78	9385.2	
622.97	9907.4	
623.16	10885	
623.35	8983.8	
623.54	8149.6	
623.72	10071	
623.91	10162	
624.1	9207.7	
624.29	7869.7	
624.48	11292	
624.67	10516	
624.86	9084.8	
625.05	8153	
625.24	11390	
625.43	9609.1	
625.62	10829	
625.81	8271.7	
626	10804	
626.19	9990.7	
626.38	9024.7	
626.56	8295	
626.75	9631.6	
626.94	10372	
627.13	9004.2	
627.32	7524.2	
627.51	10281	
627.7	11732	
627.89	7772	
628.08	8927.1	
628.27	9549.7	
628.46	9740.8	
628.65	8071.7	
628.83	7758.4	
629.02	10292	
629.21	9673.2	
629.4	8487.5	
629.59	8819.2	
629.78	9664.4	
629.97	10678	
630.16	8867	
630.35	8301.8	
630.54	11003	
630.72	10803	
630.91	8236.2	
631.1	8869.8	
631.29	10160	
631.48	10419	
631.67	8995.4	
631.86	8524.3	
632.05	9861.7	
632.24	9908.1	
632.42	8067.6	
632.61	8675.9	
632.8	10014	
632.99	9602.2	
633.18	8736.6	
633.37	9070.5	
633.56	10286	
633.75	10129	
633.93	8770.8	
634.12	8385.1	
634.31	11123	
634.5	10721	
634.69	8499.8	
634.88	8981.7	
635.07	10075	
635.25	10630	
635.44	9494.4	
635.63	9637.7	
635.82	9820	
636.01	9379.7	
636.2	9334	
636.39	8908.7	
636.57	11103	
636.76	10919	
636.95	8318.8	
637.14	9766.8	
637.33	10401	
637.52	11265	
637.7	8008.9	
637.89	8919.6	
638.08	9960.6	
638.27	11471	
638.46	9055.4	
638.65	9594.1	
638.83	11354	
639.02	9740.8	
639.21	8954.4	
639.4	9501.2	
639.59	10238	
639.78	9852.8	
639.96	8287.4	
640.15	8297	
640.34	10122	
640.53	10236	
640.72	7937.2	
640.91	8383	
641.09	9464.3	
641.28	10931	
641.47	8277.9	
641.66	9084.8	
641.85	10111	
642.03	10427	
642.22	8946.2	
642.41	8349.6	
642.6	9549	
642.79	8901.2	
642.97	8026.7	
643.16	8843.1	
643.35	9382.4	
643.54	9231.6	
643.73	7957	
643.91	8599.4	
644.1	8974.2	
644.29	9664.4	
644.48	7781.6	
644.67	7849.2	
644.85	8996	
645.04	9237	
645.23	7188.4	
645.42	7441	
645.6	8733.9	
645.79	9855.5	
645.98	7385.7	
646.17	6367.1	
646.36	8355.7	
646.54	8960.5	
646.73	8217.1	
646.92	6920.1	
647.11	8519.6	
647.29	9667.1	
647.48	7044.3	
647.67	6735.1	
647.86	9904.7	
648.05	10046	
648.23	7444.4	
648.42	8830.2	
648.61	9443.9	
648.8	9195.4	
648.98	7261.4	
649.17	7572.7	
649.36	8741.4	
649.55	8182.3	
649.73	7152.2	
649.92	7909.9	
650.11	8495.7	
650.3	8833.6	
650.48	7323.5	
650.67	7038.9	
650.86	9222.7	
651.05	8175.5	
651.23	7352.2	
651.42	7228	
651.61	8673.8	
651.79	8899.8	
651.98	7555	
652.17	7131	
652.36	9168.1	
652.54	8129.1	
652.73	7122.2	
652.92	6884.6	
653.11	9083.4	
653.29	9133.3	
653.48	6292	
653.67	7344	
653.85	8729.8	
654.04	9814.5	
654.23	7460.8	
654.42	6919.4	
654.6	8150.2	
654.79	8881.4	
654.98	6411.5	
655.16	7017	
655.35	7865.6	
655.54	7933.8	
655.73	6755.6	
655.91	6682.5	
656.1	9178.3	
656.29	7984.3	
656.47	6254.5	
656.66	8082	
656.85	8341.4	
657.03	8358.4	
657.22	6886	
657.41	6926.2	
657.59	8512.7	
657.78	8294.3	
657.97	6543.9	
658.16	7329	
658.34	9092.3	
658.53	9617.9	
658.72	8234.2	
658.9	8802.9	
659.09	8544.1	
659.28	8669.7	
659.46	7146.7	
659.65	7068.2	
659.84	8409	
660.02	8968.1	
660.21	6937.8	
660.4	6970.6	
660.58	9434.3	
660.77	8731.9	
660.96	7606.8	
661.14	6572.6	
661.33	9815.9	
661.52	9809.1	
661.7	6435.4	
661.89	10380	
662.08	8388.5	
662.26	7866.2	
662.45	6882.5	
662.64	7003.4	
662.82	9080	
663.01	8214.4	
663.2	7013.6	
663.38	7789.1	
663.57	8913.4	
663.75	8903.2	
663.94	7309.2	
664.13	8540	
664.31	8346.8	
664.5	9112.8	
664.69	7660.1	
664.87	8168	
665.06	7978.2	
665.25	8843.8	
665.43	8418.5	
665.62	8447.2	
665.8	9155.8	
665.99	8426.7	
666.18	7272.3	
666.36	7410.9	
666.55	9156.5	
666.74	9017.2	
666.92	6909.2	
667.11	8593.3	
667.29	8439	
667.48	9050	
667.67	8119.5	
667.85	7191.1	
668.04	8475.9	
668.22	8528.4	
668.41	7270.3	
668.6	7471	
668.78	8220.5	
668.97	8381.7	
669.15	7742.7	
669.34	6567.2	
669.53	8219.2	
669.71	8574.8	
669.9	6814.3	
670.08	7434.8	
670.27	8275.8	
670.46	8886.1	
670.64	7660.8	
670.83	8009.6	
671.01	8116.8	
671.2	8776.9	
671.38	6857.3	
671.57	6740.5	
671.76	9418.6	
671.94	10012	
672.13	6690	
672.31	7737.2	
672.5	8926.4	
672.69	8247.2	
672.87	6849.1	
673.06	7130.3	
673.24	8835.6	
673.43	8301.1	
673.61	7726.3	
673.8	7163.8	
673.98	9018.6	
674.17	9185.8	
674.36	7763.2	
674.54	7611.6	
674.73	8749.6	
674.91	8950.3	
675.1	7315.3	
675.28	6920.8	
675.47	8530.5	
675.65	8978.3	
675.84	7174.7	
676.03	7599.3	
676.21	8219.2	
676.4	7792.5	
676.58	8076.5	
676.77	7815.7	
676.95	9749	
677.14	8218.5	
677.32	6815.6	
677.51	6595.1	
677.69	8964	
677.88	7773.4	
678.06	6688	
678.25	6632.7	
678.44	8530.5	
678.62	8129.1	
678.81	6468.9	
678.99	7473	
679.18	9331.9	
679.36	8822.6	
679.55	7080.5	
679.73	7729	
679.92	8841.8	
680.1	8236.9	
680.29	8368.7	
680.47	7033.4	
680.66	8127	
680.84	9053.4	
681.03	6402	
681.21	7518.8	
681.4	8206.2	
681.58	8022.6	
681.77	6813.6	
681.95	6622.4	
682.14	9045.9	
682.32	9397.4	
682.51	7651.9	
682.69	6455.9	
682.88	8092.2	
683.06	8668.4	
683.25	7308.5	
683.43	7780.2	
683.62	8282	
683.8	8560.5	
683.99	7643	
684.17	6847.7	
684.36	9173.5	
684.54	7715.4	
684.73	5784.8	
684.91	6060.6	
685.1	8086.7	
685.28	7394.5	
685.46	6739.9	
685.65	6929	
685.83	8425.3	
686.02	7819.1	
686.2	6264.7	
686.39	6403.3	
686.57	7623.9	
686.76	9038.4	
686.94	6240.8	
687.13	6414.2	
687.31	8316.8	
687.5	7750.9	
687.68	5881.8	
687.86	7195.2	
688.05	9362.6	
688.23	7260	
688.42	7256	
688.6	6344.6	
688.79	7715.4	
688.97	7660.8	
689.16	6768.5	
689.34	5644.2	
689.52	8439.7	
689.71	8564.6	
689.89	6894.1	
690.08	6137.8	
690.26	7796.6	
690.45	7588.4	
690.63	7033.4	
690.81	6251.1	
691	7357.7	
691.18	7362.4	
691.37	6401.3	
691.55	8598.7	
691.74	7354.9	
691.92	9391.3	
692.1	6481.1	
692.29	5882.4	
692.47	7618.4	
692.66	6916.7	
692.84	6063.4	
693.02	6802	
693.21	7027.3	
693.39	7604.8	
693.58	7023.9	
693.76	6324.8	
693.94	9098.4	
694.13	8812.4	
694.31	6385.6	
694.5	7524.9	
694.68	7699	
694.86	8007.6	
695.05	6800.6	
695.23	7130.3	
695.42	8338	
695.6	10571	
695.78	7236.8	
695.97	6232.7	
696.15	8244.4	
696.34	7468.9	
696.52	6016.9	
696.7	6876.4	
696.89	7925.6	
697.07	7320.8	
697.25	6732.4	
697.44	8271.1	
697.62	7835.5	
697.81	8180.3	
697.99	6386.9	
698.17	7014.3	
698.36	7122.2	
698.54	7877.9	
698.72	6794.5	
698.91	5711.1	
699.09	7351.5	
699.28	7213.6	
699.46	6394.4	
699.64	6399.2	
699.83	7212.3	
700.01	8664.3	
700.19	7149.5	
700.38	5551.4	
700.56	8600.1	
700.74	7471	
700.93	6097.5	
701.11	6876.4	
701.29	8116.8	
701.48	9229.5	
701.66	6259.3	
701.84	6279.8	
702.03	7637.6	
702.21	8305.2	
702.39	5732.9	
702.58	6446.3	
702.76	7957	
702.94	8095.6	
703.13	5769.8	
703.31	8432.2	
703.49	7337.9	
703.68	8291.5	
703.86	6066.8	
704.04	7060.7	
704.23	7810.3	
704.41	8320.2	
704.59	6196.5	
704.78	7476.5	
704.96	8964	
705.14	8385.1	
705.33	6054.5	
705.51	6876.4	
705.69	7712	
705.87	8581	
706.06	7264.8	
706.24	5960.3	
706.42	8047.2	
706.61	8384.4	
706.79	7228	
706.97	6105.7	
707.16	7544.7	
707.34	8114.7	
707.52	7135.1	
707.7	6275	
707.89	7805.5	
708.07	7383.6	
708.25	7180.2	
708.44	7370.6	
708.62	7619.1	
708.8	8813.1	
708.98	7544	
709.17	6326.9	
709.35	8039	
709.53	7998.7	
709.72	6050.4	
709.9	6227.2	
710.08	8210.3	
710.26	8336.6	
710.45	7797.3	
710.63	6406	
710.81	7806.2	
710.99	7936.6	
711.18	6940.6	
711.36	6453.8	
711.54	7626.6	
711.72	8286.1	
711.91	6380.1	
712.09	5789.6	
712.27	7641	
712.45	8254	
712.64	6546	
712.82	5472.9	
713	6914.6	
713.18	6997.2	
713.37	5378	
713.55	6618.4	
713.73	7733.1	
713.91	6176	
714.1	5593	
714.28	5001.1	
714.46	7230	
714.64	6423.1	
714.83	4386.1	
715.01	5266	
715.19	6515.3	
715.37	5827.2	
715.55	4956.8	
715.74	5251.7	
715.92	7493.5	
716.1	5300.8	
716.28	6412.9	
716.47	5436	
716.65	6075	
716.83	6285.9	
717.01	5302.2	
717.19	5367.7	
717.38	8501.8	
717.56	6008.7	
717.74	5771.2	
717.92	4848.2	
718.1	7382.2	
718.29	6541.2	
718.47	4528.7	
718.65	5208	
718.83	7331	
719.01	7195.9	
719.2	4379.9	
719.38	5509.7	
719.56	6887.3	
719.74	8499.1	
719.92	4968.4	
720.11	6129.6	
720.29	6775.4	
720.47	5811.5	
720.65	4484.4	
720.83	5444.2	
721.02	6189	
721.2	5952.8	
721.38	5429.8	
721.56	4641.4	
721.74	5493.3	
721.92	5660.6	
722.11	5972.6	
722.29	5716.6	
722.47	6992.4	
722.65	6154.8	
722.83	4686.4	
723.01	5736.4	
723.2	6203.3	
723.38	6514.6	
723.56	4093.2	
723.74	5328.1	
723.92	5627.8	
724.1	6904.4	
724.29	4577.9	
724.47	5868.1	
724.65	5790.3	
724.83	5652.4	
725.01	4593.6	
725.19	5453.1	
725.37	5830.6	
725.56	5822.4	
725.74	4317.1	
725.92	4641.4	
726.1	5734.3	
726.28	6029.2	
726.46	5147.9	
726.64	4808.6	
726.83	6024.4	
727.01	6354.2	
727.19	4334.2	
727.37	5252.4	
727.55	6218.3	
727.73	6699.6	
727.91	4341.7	
728.09	4258.4	
728.28	6828.6	
728.46	7542	
728.64	5526.8	
728.82	5486.5	
729	8040.3	
729.18	7296.2	
729.36	4735.6	
729.54	7154.9	
729.72	8330.5	
729.91	6594.5	
730.09	6828.6	
730.27	5556.1	
730.45	6531.7	
730.63	7269.6	
730.81	6214.2	
730.99	5126.7	
731.17	7749.5	
731.35	6223.1	
731.53	5661.3	
731.71	5235.3	
731.9	7447.1	
732.08	7702.4	
732.26	5601.2	
732.44	5175.2	
732.62	7635.5	
732.8	7103	
732.98	5909.8	
733.16	5001.1	
733.34	7105.1	
733.52	5903.6	
733.7	5543.2	
733.88	5923.4	
734.07	7002	
734.25	6752.2	
734.43	5086.5	
734.61	6694.8	
734.79	8436.9	
734.97	6712.6	
735.15	5207.3	
735.33	5600.5	
735.51	7055.3	
735.69	6731	
735.87	6842.3	
736.05	5954.8	
736.23	6965.8	
736.41	6802.7	
736.59	5641.5	
736.77	5763	
736.95	7429.3	
737.13	6916	
737.32	5336.3	
737.5	5726.1	
737.68	8082.6	
737.86	6749.4	
738.04	5145.2	
738.22	7105.1	
738.4	6568.5	
738.58	6960.4	
738.76	5902.9	
738.94	4762.9	
739.12	6763.1	
739.3	6632	
739.48	6560.3	
739.66	6298.2	
739.84	7088	
740.02	7105.8	
740.2	4939.7	
740.38	5341.8	
740.56	7496.2	
740.74	6263.4	
740.92	6012.2	
741.1	5941.8	
741.28	6936.5	
741.46	6705	
741.64	5530.9	
741.82	6122.1	
742	6934.4	
742.18	6887.3	
742.36	5788.2	
742.54	5350	
742.72	7476.5	
742.9	6208.8	
743.08	6170.5	
743.26	4892.6	
743.44	7761.1	
743.62	7605.5	
743.8	6367.8	
743.98	5334.3	
744.16	7266.9	
744.34	6939.9	
744.52	6169.8	
744.7	6124.1	
744.88	7445.7	
745.06	6921.5	
745.24	6243.6	
745.42	6410.1	
745.6	7475.8	
745.78	7195.2	
745.96	5033.2	
746.14	5431.9	
746.32	8346.8	
746.5	7553.6	
746.68	5932.3	
746.86	5399.1	
747.03	8041.7	
747.21	6229.9	
747.39	5939.1	
747.57	5384.8	
747.75	7095.5	
747.93	7501.7	
748.11	5410.1	
748.29	5392.3	
748.47	8662.2	
748.65	6753.5	
748.83	6153.5	
749.01	5909.8	
749.19	7392.5	
749.37	6370.5	
749.55	5747.3	
749.73	5809.4	
749.91	6916	
750.09	6726.9	
750.26	5948	
750.44	5281.7	
750.62	7048.4	
750.8	7015.7	
750.98	5131.5	
751.16	5546.6	
751.34	6999.3	
751.52	6354.8	
751.7	6324.8	
751.88	5100.8	
752.06	7570	
752.24	7449.8	
752.42	5018.9	
752.59	5498.8	
752.77	6952.9	
752.95	8304.5	
753.13	6224.5	
753.31	5593	
753.49	6666.1	
753.67	7150.8	
753.85	5908.4	
754.03	5469.4	
754.21	7342	
754.38	7746.8	
754.56	5564.3	
754.74	4533.5	
754.92	6453.1	
755.1	7228.6	
755.28	4416.8	
755.46	4214	
755.64	7643	
755.82	7666.2	
755.99	4339	
756.17	4399.7	
756.35	4932.9	
756.53	6636.8	
756.71	3254.2	
756.89	4255.7	
757.07	6229.9	
757.25	5263.3	
757.42	4925.4	
757.6	5877.7	
757.78	6435.4	
757.96	5322.7	
758.14	4590.2	
758.32	4039.3	
758.5	4773.8	
758.67	5682.4	
758.85	4306.9	
759.03	4406.5	
759.21	5920	
759.39	5233.2	
759.57	3921.9	
759.75	5234.6	
759.92	6543.3	
760.1	5821.7	
760.28	5574.6	
760.46	5806.7	
760.64	5672.9	
760.82	5356.1	
760.99	5542.5	
761.17	4670.1	
761.35	6632.7	
761.53	5571.8	
761.71	4867.3	
761.89	5660.6	
762.06	6602	
762.24	5992.4	
762.42	5070.8	
762.6	4846.2	
762.78	6118	
762.96	6883.2	
763.13	5562.3	
763.31	5226.4	
763.49	7086	
763.67	6128.9	
763.85	6095.4	
764.02	6748.7	
764.2	7395.9	
764.38	6541.9	
764.56	5164.3	
764.74	6077.7	
764.91	7517.4	
765.09	6346.7	
765.27	4815.5	
765.45	4629.1	
765.63	7571.3	
765.8	7503.1	
765.98	4338.3	
766.16	4728.8	
766.34	5980.8	
766.52	5715.2	
766.69	5597.1	
766.87	4541.7	
767.05	6364.4	
767.23	7167.9	
767.41	4884.4	
767.58	5109	
767.76	6952.9	
767.94	7057.3	
768.12	4987.5	
768.29	5782.8	
768.47	6451.8	
768.65	7187.7	
768.83	4556	
769	5719.3	
769.18	5885.9	
769.36	6738.5	
769.54	5756.2	
769.72	4543.8	
769.89	7004.7	
770.07	7116	
770.25	4862.6	
770.43	6229.2	
770.6	7720.8	
770.78	8333.2	
770.96	5070.1	
771.14	5010	
771.31	6855.2	
771.49	6210.1	
771.67	4181.3	
771.85	4473.4	
772.02	5339.7	
772.2	6174.6	
772.38	5188.9	
772.55	4738.3	
772.73	6459.3	
772.91	6205.3	
773.09	5067.4	
773.26	5117.9	
773.44	6422.4	
773.62	6111.8	
773.8	4592.9	
773.97	4255.7	
774.15	6485.2	
774.33	5999.2	
774.5	4431.8	
774.68	4781.3	
774.86	6564.4	
775.04	6092	
775.21	4496.7	
775.39	4485.1	
775.57	6330.3	
775.74	6767.2	
775.92	4336.2	
776.1	4257	
776.27	6311.8	
776.45	7593.2	
776.63	4488.5	
776.81	3993.5	
776.98	5873.6	
777.16	7026.6	
777.34	4626.4	
777.51	4554.7	
777.69	5798.5	
777.87	5625.1	
778.04	4586.8	
778.22	5283.8	
778.4	5700.9	
778.57	6371.9	
778.75	3885.7	
778.93	4089.1	
779.1	5409.4	
779.28	5257.8	
779.46	3844	
779.64	4382	
779.81	6412.2	
779.99	7417.1	
780.17	5254.4	
780.34	5343.8	
780.52	5924.8	
780.69	6079.1	
780.87	4706.2	
781.05	4179.9	
781.22	5903.6	
781.4	6007.4	
781.58	4310.3	
781.75	3432.4	
781.93	5870.2	
782.11	5284.4	
782.28	5263.3	
782.46	4244.1	
782.64	5079	
782.81	6128.2	
782.99	4427.7	
783.17	4368.3	
783.34	5977.3	
783.52	5140.4	
783.69	4550.6	
783.87	5407.3	
784.05	5146.5	
784.22	5253	
784.4	5339.1	
784.58	4558.8	
784.75	6180.1	
784.93	5223	
785.1	4279.6	
785.28	4876.9	
785.46	5879	
785.63	5184.8	
785.81	4218.1	
785.99	4037.9	
786.16	5354.8	
786.34	5785.5	
786.51	4147.1	
786.69	4534.2	
786.87	4882.4	
787.04	5470.1	
787.22	3975.8	
787.39	4944.5	
787.57	5192.3	
787.75	6365.8	
787.92	5048.2	
788.1	5048.9	
788.27	5238.7	
788.45	4943.8	
788.63	4812	
788.8	3414.6	
788.98	5620.3	
789.15	4857.8	
789.33	3573	
789.5	4211.3	
789.68	6171.9	
789.86	6264.7	
790.03	4702.1	
790.21	4078.9	
790.38	6090	
790.56	5294.7	
790.73	3903.4	
790.91	3982.6	
791.09	5153.4	
791.26	5970.5	
791.44	4139.6	
791.61	3586.7	
791.79	5117.2	
791.96	5288.5	
792.14	3735.5	
792.32	3269.9	
792.49	5169.1	
792.67	5289.9	
792.84	3704.1	
793.02	3538.9	
793.19	5636	
793.37	6440.9	
793.54	3282.9	
793.72	3678.2	
793.89	6528.2	
794.07	5202.5	
794.25	4337.6	
794.42	3330	
794.6	6206	
794.77	5834	
794.95	4555.4	
795.12	4001	
795.3	5150	
795.47	5788.9	
795.65	4334.2	
795.82	4158.7	
796	4908.3	
796.17	6886	
796.35	4091.8	
796.52	4863.2	
796.7	5713.2	
796.87	5771.2	
797.05	5033.9	
797.22	4969.7	
797.4	5755.5	
797.57	6801.3	
797.75	4186	
797.92	3948.5	
798.1	6047	
798.27	5130.2	
798.45	3338.9	
798.62	3628.3	
798.8	5461.2	
798.97	5935.7	
799.15	4429.8	
799.32	4235.2	
799.5	4666.6	
799.67	5483.1	
799.85	4607.9	
800.02	3272.7	
800.2	5062.6	
800.37	5410.1	
800.55	4728.1	
800.72	3951.9	
800.9	5867.4	
801.07	6326.2	
801.25	5287.9	
801.42	4339	
801.6	5943.9	
801.77	5653.8	
801.95	4000.4	
802.12	3794.9	
802.29	5640.8	
802.47	5624.4	
802.64	4289.8	
802.82	3202.3	
802.99	5005.9	
803.17	6084.5	
803.34	4171.7	
803.52	3741.6	
803.69	6812.2	
803.87	4884.4	
804.04	4106.2	
804.21	4218.8	
804.39	6223.1	
804.56	5264	
804.74	3531.4	
804.91	4264.6	
805.09	5117.2	
805.26	5226.4	
805.44	3573.7	
805.61	3925.3	
805.78	5752.7	
805.96	5767.1	
806.13	4295.3	
806.31	4657.1	
806.48	4600.4	
806.66	5150	
806.83	4258.4	
807	4212.7	
807.18	4994.3	
807.35	5502.9	
807.53	4169	
807.7	3282.2	
807.87	6240.2	
808.05	5130.8	
808.22	4590.9	
808.4	3336.1	
808.57	5159.5	
808.74	4724.7	
808.92	3825.6	
809.09	4894	
809.27	4986.8	
809.44	5693.4	
809.61	3332.7	
809.79	3773	
809.96	6234	
810.14	5836	
810.31	3239.2	
810.48	3982.6	
810.66	5140.4	
810.83	5993	
811.01	3848.8	
811.18	4265.2	
811.35	5861.3	
811.53	4514.4	
811.7	4629.8	
811.87	4289.8	
812.05	5112.4	
812.22	5016.8	
812.39	3648.8	
812.57	3590.1	
812.74	5063.3	
812.92	6821.8	
813.09	4046.1	
813.26	4388.1	
813.44	6543.3	
813.61	5044.1	
813.78	3305.4	
813.96	4488.5	
814.13	5113.8	
814.3	4752	
814.48	4811.4	
814.65	3956	
814.82	6345.3	
815	4859.8	
815.17	4088.4	
815.34	5042.8	
815.52	5020.9	
815.69	5076.2	
815.87	4077.5	
816.04	3522.5	
816.21	5144.5	
816.38	4484.4	
816.56	3965.6	
816.73	3703.4	
816.9	6456.6	
817.08	5882.4	
817.25	3743	
817.42	4730.8	
817.6	4650.9	
817.77	5179.3	
817.94	4261.1	
818.12	3660.4	
818.29	4866	
818.46	7739.3	
818.64	3827.7	
818.81	3502.7	
818.98	4762.2	
819.16	7042.3	
819.33	4420.9	
819.5	4115.7	
819.67	5528.2	
819.85	6191.7	
820.02	4098.7	
820.19	4272.7	
820.37	5344.5	
820.54	4887.1	
820.71	4203.8	
820.88	5165.7	
821.06	5384.1	
821.23	4909	
821.4	4212.7	
821.58	4189.5	
821.75	5842.9	
821.92	5276.9	
822.09	3388	
822.27	3423.5	
822.44	5083.7	
822.61	5040.7	
822.79	3377.1	
822.96	6508.4	
823.13	5694	
823.3	4871.4	
823.48	3872.7	
823.65	3501.3	
823.82	5817.6	
823.99	4661.9	
824.17	4980	
824.34	3597.6	
824.51	6722.1	
824.68	5176.6	
824.86	3739.6	
825.03	4209.9	
825.2	5100.1	
825.37	6250.4	
825.55	3717.1	
825.72	4095.3	
825.89	6900.3	
826.06	6275	
826.24	4063.2	
826.41	4072.7	
826.58	6206.7	
826.75	5413.5	
826.92	3123.8	
827.1	3537.5	
827.27	8555	
827.44	6855.9	
827.61	3852.2	
827.79	4711	
827.96	4859.8	
828.13	5240.1	
828.3	3971	
828.47	3360.7	
828.65	5302.9	
828.82	5231.9	
828.99	5227.8	
829.16	4542.4	
829.34	5726.8	
829.51	5474.9	
829.68	4148.5	
829.85	4244.8	
830.02	6015.6	
830.2	5787.6	
830.37	3202.3	
830.54	5012.7	
830.71	6564.4	
830.88	5112.4	
831.05	3337.5	
831.23	3762.1	
831.4	6276.3	
831.57	7036.1	
831.74	3846.1	
831.91	3387.3	
832.09	5341.1	
832.26	5717.9	
832.43	4012	
832.6	4463.2	
832.77	5406	
832.94	6155.5	
833.12	3132	
833.29	3953.3	
833.46	4970.4	
833.63	7255.3	
833.8	4370.4	
833.97	4024.9	
834.15	5776	
834.32	5551.4	
834.49	4112.3	
834.66	4233.8	
834.83	5971.9	
835	4853.7	
835.17	3786	
835.35	3904.8	
835.52	5707	
835.69	5492	
835.86	4072.7	
836.03	3345	
836.2	5659.2	
836.37	5322.7	
836.55	3986.7	
836.72	3646.1	
836.89	5271.5	
837.06	5784.1	
837.23	4048.2	
837.4	4422.2	
837.57	6536.4	
837.75	7279.2	
837.92	3652.2	
838.09	3878.9	
838.26	5255.8	
838.43	5968.5	
838.6	4180.6	
838.77	3747.1	
838.94	6942.6	
839.11	6635.4	
839.29	3918.4	
839.46	3096.5	
839.63	5717.9	
839.8	5421	
839.97	3834.5	
840.14	3842	
840.31	5488.6	
840.48	5668.8	
840.65	3226.9	
840.82	3773	
841	5759.6	
841.17	5650.3	
841.34	3613.3	
841.51	3604.4	
841.68	5616.2	
841.85	5385.5	
842.02	3680.9	
842.19	3012.6	
842.36	5444.2	
842.53	5475.6	
842.7	3342.3	
842.87	4332.1	
843.05	7253.2	
843.22	5398.4	
843.39	3338.9	
843.56	3626.3	
843.73	5148.6	
843.9	5782.8	
844.07	5803.3	
844.24	4777.2	
844.41	8519.6	
844.58	4929.5	
844.75	3384.6	
844.92	3744.4	
845.09	5738.4	
845.26	5683.1	
845.43	3521.1	
845.6	3697.9	
845.77	5784.8	
845.94	5396.4	
846.12	3944.4	
846.29	4164.9	
846.46	5933.6	
846.63	5714.5	
846.8	3546.4	
846.97	4194.9	
847.14	6188.3	
847.31	5659.2	
847.48	4014	
847.65	4413.4	
847.82	6056.5	
847.99	5969.1	
848.16	4741.7	
848.33	4382	
848.5	5264	
848.67	6287.3	
848.84	3486.3	
849.01	3659.7	
849.18	5107	
849.35	4709.6	
849.52	4334.9	
849.69	3466.5	
849.86	5873.6	
850.03	6143.9	
850.2	3502	
850.37	4344.4	
850.54	6063.4	
850.71	5397.8	
850.88	4262.5	
851.05	3491.1	
851.22	5642.8	
851.39	6279.1	
851.56	3259	
851.73	4076.8	
851.9	4951.3	
852.07	5991.7	
852.24	3944.4	
852.41	3510.2	
852.58	5597.1	
852.75	5074.2	
852.92	4027	
853.09	3417.4	
853.26	5313.8	
853.43	6179.4	
853.6	3427.6	
853.77	3009.8	
853.94	6256.5	
854.11	5703.6	
854.28	5271.5	
854.44	3802.4	
854.61	6744.6	
854.78	5847	
854.95	3505.4	
855.12	4533.5	
855.29	4607.9	
855.46	6540.5	
855.63	3470.6	
855.8	4973.8	
855.97	5326.1	
856.14	6048.3	
856.31	5022.3	
856.48	3812	
856.65	5248.9	
856.82	4948.6	
856.99	3378.5	
857.16	3752.6	
857.33	7016.3	
857.49	5390.9	
857.66	3788.7	
857.83	4068.6	
858	5292.6	
858.17	5459.2	
858.34	3360.7	
858.51	3540.9	
858.68	6391.7	
858.85	6457.9	
859.02	4117.1	
859.19	4349.2	
859.36	4960.2	
859.52	5079.6	
859.69	3554.6	
859.86	4216.1	
860.03	5077.6	
860.2	6322.1	
860.37	3214.6	
860.54	3550.5	
860.71	5908.4	
860.88	6404.7	
861.05	3945.8	
861.21	4420.2	
861.38	6414.9	
861.55	4875.5	
861.72	3226.9	
861.89	3900.7	
862.06	6005.3	
862.23	6533.7	
862.4	3354.6	
862.56	3715.7	
862.73	5856.5	
862.9	5460.6	
863.07	4144.4	
863.24	3202.3	
863.41	4838.7	
863.58	5030.5	
863.75	3606.5	
863.91	4014.7	
864.08	6313.9	
864.25	5845.6	
864.42	4464.6	
864.59	4940.4	
864.76	6658.6	
864.93	5001.8	
865.09	3437.2	
865.26	3771	
865.43	6197.2	
865.6	6647.7	
865.77	3086.3	
865.94	3501.3	
866.1	6328.9	
866.27	6019.7	
866.44	5333.6	
866.61	3248.8	
866.78	5421.7	
866.95	5873.6	
867.11	3400.3	
867.28	3109.5	
867.45	6073.6	
867.62	5051.7	
867.79	4098	
867.96	3507.5	
868.12	5043.5	
868.29	5996.5	
868.46	3512.3	
868.63	4722.6	
868.8	6158.9	
868.97	5888.6	
869.13	3667.9	
869.3	3667.2	
869.47	5806	
869.64	6061.3	
869.81	3588	
869.97	3525.2	
870.14	5767.8	
870.31	6479.1	
870.48	3457	
870.65	4510.3	
870.81	5330.9	
870.98	5268.1	
871.15	4032.5	
871.32	3678.2	
871.48	5873.6	
871.65	6412.2	
871.82	3461.7	
871.99	3895.9	
872.16	6876.4	
872.32	6286.6	
872.49	3525.9	
872.66	3522.5	
872.83	5935	
872.99	5183.4	
873.16	4012	
873.33	3426.3	
873.5	5552.7	
873.67	5591.6	
873.83	3706.8	
874	4673.5	
874.17	5727.5	
874.34	6780.1	
874.5	4541.7	
874.67	4388.1	
874.84	6406	
875.01	4982	
875.17	4990.2	
875.34	3491.1	
875.51	5569.8	
875.68	6852.5	
875.84	4227.7	
876.01	5190.2	
876.18	5892.7	
876.34	5804.6	
876.51	3536.8	
876.68	3495.2	
876.85	5425.1	
877.01	6186.2	
877.18	5035.3	
877.35	3510.2	
877.52	5466	
877.68	4877.6	
877.85	3418.7	
878.02	3517	
878.18	5473.5	
878.35	5169.8	
878.52	2777	
878.69	3919.1	
878.85	5966.4	
879.02	5970.5	
879.19	5038	
879.35	3807.9	
879.52	5828.5	
879.69	6114.6	
879.86	3038.5	
880.02	3939.6	
880.19	5407.3	
880.36	6657.3	
880.52	4070.7	
880.69	4154.6	
880.86	5925.5	
881.02	6132.3	
881.19	3848.1	
881.36	3810.6	
881.52	5874.9	
881.69	5224.4	
881.86	3772.4	
882.02	3760.8	
882.19	6187.6	
882.36	7253.9	
882.52	3605.8	
882.69	4973.8	
882.86	5687.9	
883.02	5560.2	
883.19	4351.3	
883.36	4044.7	
883.52	6005.3	
883.69	6894.8	
883.86	3571	
884.02	3173.7	
884.19	5968.5	
884.36	5491.3	
884.52	3977.2	
884.69	3730.7	
884.86	5233.2	
885.02	6550.1	
885.19	3944.4	
885.36	4059.1	
885.52	5498.1	
885.69	5660.6	
885.86	5147.2	
886.02	4465.3	
886.19	5917.3	
886.35	5438.7	
886.52	3871.3	
886.69	4984.1	
886.85	5046.9	
887.02	6257.9	
887.19	6257.9	
887.35	6257.9	
887.52	6257.9	
887.68	6257.9	
887.85	6257.9	
888.02	6257.9	
888.18	6257.9	
888.35	6257.9	
888.51	6257.9	
888.68	6257.9	
888.85	6257.9	
889.01	6257.9	
889.18	6257.9	
889.35	6257.9	
889.51	6257.9	
889.68	6257.9	
889.84	6257.9	
890.01	6257.9	
890.17	6257.9	
890.34	6257.9	
890.51	6257.9	
890.67	6257.9	
890.84	6257.9	
891	6257.9	
891.17	6257.9	
891.34	6257.9	
891.5	6257.9	
891.67	6257.9	
891.83	6257.9	
892	6257.9	
892.16	6257.9	
892.33	6257.9	
892.5	6257.9	
892.66	6257.9	
892.83	6257.9	
892.99	6257.9	
893.16	6257.9	
893.32	6257.9	
893.49	6257.9	
893.65	6257.9	
893.82	6257.9	
893.99	6257.9	
894.15	6257.9	
894.32	6257.9	
894.48	6257.9	
894.65	6257.9	
894.81	6257.9	
894.98	6257.9	
895.14	6257.9	
895.31	6257.9	
895.47	6257.9	
895.64	6257.9	
895.81	6257.9	
895.97	6257.9	
896.14	6257.9	
896.3	6257.9	
896.47	6257.9	
896.63	6257.9	
896.8	6257.9	
896.96	6257.9	
897.13	6257.9	
897.29	6257.9	
897.46	6257.9	
897.62	6257.9	
897.79	6257.9	
897.95	6257.9	
898.12	6257.9	
898.28	6257.9	
898.45	6257.9	
898.61	6257.9	
898.78	6257.9	
898.94	6257.9	
899.11	6257.9	
899.27	6257.9	
899.44	6257.9	
899.6	6257.9	
899.77	6257.9	
899.93	6257.9	
900.1	6257.9	
900.26	6257.9	
900.43	6257.9	
900.59	6257.9	
900.76	6257.9	
900.92	6257.9	
901.09	6257.9	
901.25	6257.9	
901.42	6257.9	
901.58	6257.9	
901.75	6257.9	
901.91	6257.9	
902.07	6257.9	
902.24	6257.9	
902.4	6257.9	
902.57	6257.9	
902.73	6257.9	
902.9	6257.9	
903.06	6257.9	
903.23	6257.9	
903.39	6257.9	
903.56	6257.9	
903.72	6257.9	
903.88	6257.9	
904.05	6257.9	
904.21	6257.9	
904.38	6257.9	
904.54	6257.9	
904.71	6257.9	
904.87	6257.9	
905.03	6257.9	
905.2	6257.9	
905.36	6257.9	
905.53	6257.9	
905.69	6257.9	
905.86	6257.9	
906.02	6257.9	
906.18	6257.9	
906.35	6257.9	
906.51	6257.9	
906.68	6257.9	
906.84	6257.9	
907.01	6257.9	
907.17	6257.9	
907.33	6257.9	
907.5	6257.9	
907.66	6257.9	
907.83	6257.9	
907.99	6257.9	
908.15	6257.9	
908.32	6257.9	
908.48	6257.9	
908.65	6257.9	
908.81	6257.9	
908.97	6257.9	
909.14	6257.9	
909.3	6257.9	
909.47	6257.9	
909.63	6257.9	
909.79	6257.9	
909.96	6257.9	
910.12	6257.9	
910.28	6257.9	
910.45	6257.9	
910.61	6257.9	
910.78	6257.9	
910.94	6257.9	
911.1	6257.9	
911.27	6257.9	
911.43	6257.9	
911.59	6257.9	
911.76	6257.9	
911.92	6257.9	
912.08	6257.9	
912.25	6257.9	
912.41	6257.9	
912.57	6257.9	
912.74	6257.9	
912.9	6257.9	
913.07	6257.9	
913.23	6257.9	
913.39	6257.9	
913.56	6257.9	
913.72	6257.9	
913.88	6257.9	
914.05	6257.9	
914.21	6257.9	
914.37	6257.9	
914.54	6257.9	
914.7	6257.9	
914.86	6257.9	
915.03	6257.9	
915.19	6257.9	
