Wavelength	Intensities	
nm	a.u.	
179.22	1675.1	
179.44	1687.9	
179.65	1662.3	
179.86	1713.5	
180.08	1652.7	
180.29	3919.8	
180.51	2981.8	
180.72	4936.3	
180.94	5494	
181.15	2690.3	
181.37	2678.7	
181.58	4764.3	
181.79	4969.7	
182.01	2819.4	
182.22	2886.3	
182.44	4980.7	
182.65	4306.9	
182.87	3623.5	
183.08	3232.4	
183.29	5201.2	
183.51	4334.2	
183.72	2912.9	
183.94	4107.5	
184.15	4676.9	
184.37	4651.6	
184.58	2671.9	
184.79	3456.3	
185.01	4446.1	
185.22	5023.7	
185.44	3632.4	
185.65	3196.2	
185.86	4673.5	
186.08	4270.7	
186.29	2606.4	
186.51	2763.4	
186.72	4440	
186.94	5056.4	
187.15	3132	
187.36	3243.3	
187.58	6304.3	
187.79	4763.6	
188.01	3304.7	
188.22	4913.1	
188.43	5524.7	
188.65	4963.6	
188.86	2805	
189.08	3219.4	
189.29	4474.8	
189.5	4537.6	
189.72	2980.5	
189.93	2989.4	
190.15	5066	
190.36	5848.3	
190.57	3307.5	
190.79	3131.3	
191	5132.2	
191.22	5059.2	
191.43	3222.8	
191.64	2800.9	
191.86	5375.9	
192.07	5109	
192.29	2871.9	
192.5	3011.9	
192.71	5128.8	
192.93	4525.3	
193.14	2951.8	
193.35	3069.9	
193.57	4508.9	
193.78	5137	
194	2448	
194.21	2934.1	
194.42	4379.9	
194.64	4703.5	
194.85	3183.9	
195.07	3680.2	
195.28	4636.6	
195.49	4206.5	
195.71	3805.8	
195.92	2831	
196.13	4878.3	
196.35	4984.1	
196.56	4064.5	
196.78	3259	
196.99	5890.6	
197.2	5520	
197.42	3573	
197.63	3234.4	
197.84	4326	
198.06	4893.3	
198.27	2990	
198.48	3874.8	
198.7	4502.1	
198.91	4722.6	
199.13	3194.8	
199.34	3229	
199.55	5073.5	
199.77	4100.7	
199.98	2897.2	
200.19	3283.6	
200.41	4648.2	
200.62	4361.5	
200.83	3332	
201.05	3552.5	
201.26	4681.7	
201.47	4426.3	
201.69	2928.6	
201.9	2867.2	
202.11	4706.2	
202.33	5396.4	
202.54	3067.2	
202.76	3384.6	
202.97	4706.9	
203.18	4852.3	
203.4	3389.4	
203.61	3310.9	
203.82	4751.3	
204.04	4472.1	
204.25	3298.6	
204.46	3280.8	
204.68	4762.2	
204.89	4866.7	
205.1	3166.2	
205.32	2847.4	
205.53	4955.4	
205.74	5126.7	
205.96	2496.5	
206.17	3327.3	
206.38	4932.2	
206.6	5057.1	
206.81	3713.7	
207.02	3055.6	
207.24	4896.7	
207.45	5167.7	
207.66	3094.5	
207.88	2734	
208.09	4857.8	
208.3	4735.6	
208.52	2846	
208.73	3184.6	
208.94	4672.8	
209.15	5254.4	
209.37	3091.8	
209.58	3194.8	
209.79	5113.8	
210.01	4582	
210.22	2591.4	
210.43	2670.6	
210.65	4689.2	
210.86	4984.1	
211.07	3134.8	
211.29	2822.8	
211.5	4864.6	
211.71	4666	
211.93	2881.5	
212.14	2859	
212.35	4662.5	
212.56	4713.7	
212.78	3166.2	
212.99	2718.3	
213.2	5429.8	
213.42	4541.7	
213.63	2979.1	
213.84	3091.1	
214.06	4279.6	
214.27	4272.7	
214.48	3139.5	
214.69	3230.3	
214.91	5230.5	
215.12	5208	
215.33	3302	
215.55	3579.8	
215.76	5586.9	
215.97	4944.5	
216.18	3149.8	
216.4	3211.9	
216.61	4455.7	
216.82	5053.7	
217.04	2930	
217.25	3005.7	
217.46	5099.4	
217.67	4967.7	
217.89	2625.5	
218.1	2736.1	
218.31	4714.4	
218.53	4868.7	
218.74	3065.1	
218.95	2928.6	
219.16	4752	
219.38	5346.6	
219.59	2939.5	
219.8	3470.6	
220.01	5732.9	
220.23	4724.7	
220.44	3737.5	
220.65	2853.5	
220.87	4755.4	
221.08	5214.8	
221.29	2760	
221.5	3478.1	
221.72	6024.4	
221.93	4453	
222.14	3267.9	
222.35	3750.5	
222.57	4725.3	
222.78	5054.4	
222.99	3133.4	
223.2	3330	
223.42	4881.7	
223.63	4994.3	
223.84	2489	
224.05	2469.9	
224.27	5693.4	
224.48	5298.8	
224.69	3778.5	
224.9	3316.3	
225.12	4786.8	
225.33	4682.3	
225.54	2652.8	
225.75	2985.3	
225.97	4408.6	
226.18	4659.8	
226.39	3115.6	
226.6	2920.4	
226.82	4556	
227.03	4406.5	
227.24	3234.4	
227.45	2734	
227.67	5023.7	
227.88	5291.3	
228.09	3609.9	
228.3	3590.8	
228.52	4967.7	
228.73	4627.7	
228.94	3062.4	
229.15	2772.3	
229.36	4629.1	
229.58	4620.9	
229.79	3087	
230	3535.5	
230.21	5536.3	
230.43	4777.9	
230.64	3196.2	
230.85	3330	
231.06	5021.6	
231.28	5018.2	
231.49	2783.9	
231.7	3130	
231.91	4928.8	
232.12	4751.3	
232.34	2833.7	
232.55	3133.4	
232.76	5107	
232.97	4799.8	
233.18	2916.3	
233.4	3186.6	
233.61	4851	
233.82	4529.4	
234.03	3026.9	
234.25	3001	
234.46	6196.5	
234.67	4674.1	
234.88	3306.1	
235.09	2927.9	
235.31	4902.2	
235.52	4666	
235.73	3207.8	
235.94	2759.3	
236.15	4549.2	
236.37	5498.8	
236.58	2904.7	
236.79	3163.4	
237	4906.3	
237.21	4267.3	
237.43	3308.2	
237.64	2731.3	
237.85	7683.3	
238.06	4388.8	
238.27	3317.7	
238.48	2782.5	
238.7	4977.2	
238.91	4600.4	
239.12	3050.8	
239.33	3193.5	
239.54	4434.5	
239.76	4594.3	
239.97	3123.2	
240.18	3149.1	
240.39	5501.5	
240.6	4878.3	
240.82	3273.3	
241.03	2675.3	
241.24	4619.5	
241.45	5352	
241.66	2880.8	
241.87	3315	
242.09	5297.4	
242.3	5470.8	
242.51	3337.5	
242.72	3112.9	
242.93	5034.6	
243.14	4597	
243.36	3528	
243.57	3749.8	
243.78	5297.4	
243.99	4933.6	
244.2	3091.1	
244.41	2787.3	
244.63	4391.5	
244.84	4910.3	
245.05	3344.3	
245.26	3131.3	
245.47	4928.8	
245.68	5023	
245.9	4024.3	
246.11	3291.8	
246.32	4549.2	
246.53	4857.8	
246.74	4859.1	
246.95	2714.9	
247.16	4401.8	
247.38	4702.8	
247.59	2708.1	
247.8	3133.4	
248.01	4453.6	
248.22	4683.7	
248.43	2898.6	
248.64	3072.6	
248.86	4319.8	
249.07	4476.9	
249.28	2872.6	
249.49	3192.1	
249.7	5117.9	
249.91	5092.6	
250.12	2738.8	
250.34	2788	
250.55	4774.5	
250.76	4754.7	
250.97	3209.8	
251.18	3215.3	
251.39	5171.1	
251.6	4813.4	
251.81	3277.4	
252.03	3186	
252.24	4592.2	
252.45	4986.8	
252.66	2752.5	
252.87	3347.7	
253.08	4725.3	
253.29	5873.6	
253.5	2816	
253.72	3735.5	
253.93	4564.9	
254.14	5452.4	
254.35	2990	
254.56	3067.9	
254.77	4871.4	
254.98	4373.1	
255.19	3016.7	
255.41	3659	
255.62	4799.1	
255.83	5190.2	
256.04	3329.3	
256.25	3186.6	
256.46	5541.1	
256.67	4527.4	
256.88	3203.7	
257.09	3526.6	
257.31	4363.5	
257.52	4465.3	
257.73	4012.7	
257.94	2953.9	
258.15	4614.1	
258.36	4685.1	
258.57	3624.2	
258.78	2463.7	
258.99	5033.9	
259.2	4521.2	
259.41	2960	
259.63	3072	
259.84	5360.9	
260.05	5530.9	
260.26	3812	
260.47	2984.6	
260.68	5057.1	
260.89	4623.6	
261.1	3483.6	
261.31	2891	
261.52	5198.4	
261.73	5347.9	
261.95	3801	
262.16	3325.9	
262.37	5160.2	
262.58	5280.3	
262.79	3682.9	
263	3065.1	
263.21	4758.8	
263.42	4288.4	
263.63	3294.5	
263.84	3016	
264.05	5100.1	
264.26	5341.1	
264.47	3588.7	
264.69	3229.6	
264.9	5253	
265.11	4831.8	
265.32	2921.8	
265.53	3011.9	
265.74	4762.9	
265.95	4205.8	
266.16	3132.7	
266.37	3422.2	
266.58	4782.7	
266.79	4525.3	
267	2995.5	
267.21	2783.2	
267.42	4404.5	
267.63	4695.3	
267.84	3082.2	
268.06	2674.6	
268.27	5094	
268.48	5202.5	
268.69	3068.5	
268.9	3532.1	
269.11	5182.7	
269.32	4257	
269.53	3086.3	
269.74	2911.5	
269.95	4792.9	
270.16	4218.1	
270.37	3164.8	
270.58	3577.1	
270.79	4590.9	
271	5088.5	
271.21	3282.9	
271.42	3175	
271.63	4859.1	
271.84	4394.3	
272.05	2613.9	
272.26	2856.2	
272.47	4697.4	
272.68	4850.3	
272.89	3036.5	
273.11	3362.8	
273.32	4528.7	
273.53	5343.8	
273.74	3349.8	
273.95	3234.4	
274.16	5072.8	
274.37	4704.9	
274.58	3465.2	
274.79	2797.5	
275	4844.1	
275.21	5141.8	
275.42	3999	
275.63	3444.7	
275.84	4911.7	
276.05	5924.1	
276.26	3259	
276.47	3097.2	
276.68	4638	
276.89	5404.6	
277.1	3522.5	
277.31	2780.5	
277.52	4820.2	
277.73	5117.9	
277.94	2749.1	
278.15	3023.5	
278.36	4863.9	
278.57	4449.6	
278.78	3008.5	
278.99	3360	
279.2	4502.1	
279.41	4399.7	
279.62	3914.4	
279.83	2792.1	
280.04	5554.1	
280.25	4422.2	
280.46	3859.1	
280.67	3198.9	
280.88	4480.3	
281.09	5175.2	
281.3	3250.8	
281.51	4022.9	
281.72	4491.9	
281.93	5042.1	
282.14	2951.1	
282.35	3198.9	
282.56	5064.6	
282.77	4991.6	
282.98	3062.4	
283.19	3594.9	
283.4	5970.5	
283.61	4663.2	
283.82	2861.7	
284.03	3766.2	
284.24	4889.9	
284.45	5158.8	
284.66	3829.7	
284.87	3645.4	
285.08	5100.8	
285.29	5185.5	
285.5	2751.1	
285.71	3069.2	
285.92	5089.9	
286.12	5575.9	
286.33	3763.5	
286.54	3001	
286.75	5040.7	
286.96	4584.7	
287.17	2940.9	
287.38	3605.1	
287.59	4476.9	
287.8	4495.3	
288.01	3097.9	
288.22	3454.9	
288.43	4950.6	
288.64	4256.4	
288.85	3565.5	
289.06	3416.7	
289.27	5018.2	
289.48	5305.6	
289.69	3784.6	
289.9	3461.1	
290.11	5186.1	
290.32	4491.9	
290.53	3570.3	
290.74	3323.9	
290.94	4967.7	
291.15	5020.9	
291.36	2991.4	
291.57	3424.9	
291.78	4554.7	
291.99	4268	
292.2	2919.7	
292.41	3341.6	
292.62	5084.4	
292.83	4933.6	
293.04	4003.8	
293.25	2865.1	
293.46	4554.7	
293.67	5120.6	
293.88	2924.5	
294.09	2879.4	
294.29	4363.5	
294.5	4814.1	
294.71	3159.3	
294.92	2966.1	
295.13	4571.1	
295.34	5551.4	
295.55	2728.6	
295.76	2706.7	
295.97	4986.8	
296.18	5455.1	
296.39	2809.8	
296.6	2942.9	
296.81	4788.2	
297.01	5005.2	
297.22	3093.1	
297.43	2977.1	
297.64	4541	
297.85	4414.7	
298.06	2499.9	
298.27	2689	
298.48	4649.6	
298.69	4472.1	
298.9	3192.8	
299.11	2903.3	
299.31	4373.8	
299.52	4405.2	
299.73	3368.2	
299.94	3345	
300.15	4741.7	
300.36	4492.6	
300.57	3289.7	
300.78	3261	
300.99	4577.2	
301.2	4711.7	
301.4	2937.5	
301.61	3137.5	
301.82	4959.5	
302.03	5019.6	
302.24	3564.1	
302.45	2827.6	
302.66	4911.7	
302.87	5104.9	
303.08	3006.4	
303.29	3898.6	
303.49	4534.2	
303.7	4661.2	
303.91	2703.3	
304.12	3713.6	
304.33	4309.6	
304.54	4840	
304.75	2981.8	
304.96	2856.9	
305.16	4951.3	
305.37	5408	
305.58	2633	
305.79	2723.1	
306	4939.7	
306.21	4308.2	
306.42	2952.5	
306.63	4282.3	
306.83	4577.2	
307.04	5019.6	
307.25	3280.8	
307.46	3229.6	
307.67	4197.7	
307.88	4918.5	
308.09	2929.3	
308.29	2945.7	
308.5	4753.3	
308.71	5108.3	
308.92	3091.1	
309.13	2864.4	
309.34	4680.3	
309.55	4661.9	
309.75	3615.3	
309.96	3311.6	
310.17	4992.9	
310.38	4488.5	
310.59	3414.6	
310.8	3319.8	
311.01	4916.5	
311.21	4631.1	
311.42	2896.5	
311.63	2953.9	
311.84	4555.4	
312.05	4758.1	
312.26	3318.4	
312.46	3519.1	
312.67	4622.9	
312.88	4398.4	
313.09	2876.7	
313.3	2808.4	
313.51	5271.5	
313.71	5496.7	
313.92	2878.8	
314.13	2981.2	
314.34	4877.6	
314.55	4697.4	
314.76	3597.6	
314.96	3168.9	
315.17	4807.3	
315.38	4909	
315.59	2898.6	
315.8	2776.4	
316.01	5223.7	
316.21	5375.9	
316.42	2850.8	
316.63	3106.1	
316.84	4573.8	
317.05	5148.6	
317.26	3335.5	
317.46	3056.3	
317.67	4621.6	
317.88	4962.2	
318.09	3550.5	
318.3	2729.9	
318.5	4516.5	
318.71	4873.5	
318.92	4420.9	
319.13	3297.9	
319.34	5062.6	
319.54	5128.1	
319.75	2748.4	
319.96	2665.1	
320.17	4930.1	
320.38	5067.4	
320.58	2650.1	
320.79	3129.3	
321	5152.7	
321.21	5234.6	
321.42	3192.8	
321.62	2704.7	
321.83	4433.2	
322.04	4769	
322.25	3076.7	
322.46	2894.5	
322.66	4752.7	
322.87	4928.8	
323.08	3471.3	
323.29	2852.8	
323.5	5446.9	
323.7	4320.5	
323.91	3763.5	
324.12	3415.3	
324.33	4847.5	
324.53	4957.4	
324.74	3349.1	
324.95	3438.5	
325.16	4287.1	
325.37	4554.7	
325.57	2912.9	
325.78	2941.6	
325.99	4797	
326.2	4371	
326.4	3985.3	
326.61	2702.6	
326.82	4638.6	
327.03	4774.5	
327.24	3912.3	
327.44	3655.6	
327.65	4911	
327.86	4098	
328.07	3272	
328.27	2807.8	
328.48	5259.9	
328.69	4358.1	
328.9	3990.8	
329.1	3046.7	
329.31	4621.6	
329.52	5302.9	
329.73	2920.4	
329.93	3153.2	
330.14	4736.3	
330.35	4868	
330.56	4470.7	
330.76	3463.1	
330.97	4563.6	
331.18	4876.2	
331.39	3205.1	
331.59	2665.1	
331.8	5099.4	
332.01	5188.9	
332.22	3004.4	
332.42	3282.2	
332.63	4825	
332.84	4422.2	
333.05	3226.9	
333.25	2909.5	
333.46	4510.3	
333.67	4687.8	
333.88	3079.5	
334.08	3244	
334.29	5993	
334.5	5081.7	
334.7	2855.6	
334.91	3904.1	
335.12	4362.9	
335.33	4934.9	
335.53	3121.8	
335.74	4432.5	
335.95	4632.5	
336.16	4336.2	
336.36	3138.2	
336.57	3577.1	
336.78	4356	
336.98	5100.8	
337.19	3832.4	
337.4	3088.3	
337.61	5586.9	
337.81	4367	
338.02	2966.1	
338.23	3647.4	
338.43	5208.7	
338.64	4462.5	
338.85	2920.4	
339.05	3684.3	
339.26	5359.5	
339.47	4293.9	
339.68	2865.1	
339.88	4013.3	
340.09	4959.5	
340.3	5072.1	
340.5	3282.9	
340.71	2640.5	
340.92	4394.9	
341.13	5180	
341.33	2763.4	
341.54	3288.4	
341.75	4845.5	
341.95	4506.9	
342.16	3201	
342.37	3403	
342.57	4412	
342.78	4634.6	
342.99	3487.7	
343.19	2631.6	
343.4	5001.8	
343.61	4833.9	
343.81	3020.1	
344.02	2866.5	
344.23	4976.6	
344.43	5188.2	
344.64	3487	
344.85	3439.2	
345.06	4941.7	
345.26	5079	
345.47	3282.9	
345.68	3747.1	
345.88	4274.8	
346.09	5009.3	
346.3	3331.4	
346.5	2581.8	
346.71	4646.8	
346.92	4494.6	
347.12	2766.8	
347.33	3250.1	
347.54	5076.9	
347.74	5319.3	
347.95	3222.1	
348.16	2542.2	
348.36	4485.7	
348.57	4393.6	
348.78	3336.1	
348.98	3465.2	
349.19	4652.3	
349.39	4241.3	
349.6	2706.7	
349.81	2893.1	
350.01	4898.1	
350.22	4450.9	
350.43	3202.3	
350.63	3651.5	
350.84	4640	
351.05	4508.9	
351.25	2853.5	
351.46	2714.2	
351.67	5020.9	
351.87	4424.3	
352.08	3057.6	
352.29	3418.1	
352.49	4956.8	
352.7	4988.2	
352.9	2826.9	
353.11	3379.8	
353.32	5451	
353.52	4569	
353.73	2815.3	
353.94	3475.4	
354.14	4871.4	
354.35	4650.9	
354.55	2863.1	
354.76	3157.3	
354.97	4799.1	
355.17	4700.8	
355.38	2779.8	
355.59	3651.5	
355.79	4417.5	
356	4645.5	
356.2	3127.2	
356.41	2794.8	
356.62	4237.9	
356.82	4561.5	
357.03	3350.5	
357.24	3018	
357.44	4360.8	
357.65	4460.5	
357.85	3910.9	
358.06	3220.1	
358.27	4239.3	
358.47	4316.4	
358.68	2691	
358.88	3336.1	
359.09	4883	
359.3	5012.1	
359.5	3786.7	
359.71	3449.5	
359.91	5317.2	
360.12	4846.9	
360.33	3311.6	
360.53	3633.1	
360.74	4422.2	
360.94	4447.5	
361.15	3413.3	
361.36	2907.4	
361.56	5011.4	
361.77	4597.7	
361.97	3704.1	
362.18	3082.2	
362.38	5001.1	
362.59	4329.4	
362.8	2861.7	
363	2717.7	
363.21	4190.1	
363.41	4614.1	
363.62	3194.1	
363.83	3865.9	
364.03	4784.7	
364.24	5297.4	
364.44	4034.5	
364.65	3985.3	
364.85	4595.6	
365.06	4332.1	
365.27	2902	
365.47	3005.7	
365.68	5267.4	
365.88	4525.3	
366.09	3241.3	
366.29	2999.6	
366.5	4693.9	
366.71	4931.5	
366.91	3893.9	
367.12	3333.4	
367.32	5382.7	
367.53	4855.7	
367.73	3370.3	
367.94	3992.2	
368.14	4899.4	
368.35	5395.7	
368.56	3229	
368.76	2861	
368.97	5026.4	
369.17	6066.1	
369.38	2986.6	
369.58	3129.3	
369.79	4182.6	
369.99	5173.9	
370.2	3927.3	
370.4	3211.2	
370.61	4726	
370.82	5592.3	
371.02	3172.3	
371.23	2706	
371.43	4233.8	
371.64	5150.6	
371.84	3195.5	
372.05	3928.7	
372.25	6022.4	
372.46	4912.4	
372.66	3112.2	
372.87	3109.5	
373.07	4963.6	
373.28	6032	
373.48	3845.4	
373.69	3594.2	
373.9	4612.7	
374.1	4560.8	
374.31	3833.8	
374.51	3446	
374.72	5162.2	
374.92	4359.4	
375.13	3890.5	
375.33	3308.8	
375.54	4762.9	
375.74	4456.4	
375.95	3405.1	
376.15	4212.7	
376.36	4906.3	
376.56	4687.1	
376.77	3369.6	
376.97	3725.3	
377.18	5655.8	
377.38	4928.8	
377.59	3884.3	
377.79	3012.6	
378	4767.7	
378.2	4965	
378.41	3057.6	
378.61	2997.5	
378.82	5082.4	
379.02	4454.3	
379.23	3221.5	
379.43	3950.5	
379.64	5146.5	
379.84	4772.4	
380.05	3093.8	
380.25	3037.8	
380.46	4900.8	
380.66	4616.8	
380.87	4060.4	
381.07	4315.8	
381.28	5361.6	
381.48	4904.9	
381.69	3108.8	
381.89	3115	
382.1	4236.6	
382.3	4997.7	
382.51	3866.6	
382.71	4573.1	
382.91	4857.8	
383.12	5290.6	
383.32	3348.4	
383.53	3504.8	
383.73	4819.6	
383.94	4695.3	
384.14	3495.9	
384.35	2865.1	
384.55	4590.2	
384.76	4969.7	
384.96	3424.9	
385.17	3607.2	
385.37	4949.9	
385.58	4400.4	
385.78	3522.5	
385.98	2827.6	
386.19	4625	
386.39	4916.5	
386.6	3178.4	
386.8	3359.4	
387.01	4842.8	
387.21	4985.4	
387.42	3690.4	
387.62	4024.9	
387.83	4485.7	
388.03	4748.6	
388.23	3411.9	
388.44	3922.5	
388.64	4181.3	
388.85	4299.4	
389.05	3602.4	
389.26	4014.7	
389.46	5717.2	
389.67	5244.8	
389.87	3569.6	
390.07	3657.7	
390.28	4593.6	
390.48	4263.2	
390.69	3042.6	
390.89	3282.2	
391.1	4497.3	
391.3	5142.4	
391.5	4134.8	
391.71	4503.5	
391.91	4956.8	
392.12	5581.4	
392.32	4117.8	
392.53	3680.2	
392.73	4604.5	
392.93	4647.5	
393.14	3410.6	
393.34	4161.5	
393.55	4948.6	
393.75	4616.8	
393.95	3407.8	
394.16	3402.4	
394.36	4536.9	
394.57	5021.6	
394.77	3024.8	
394.98	3274	
395.18	4453	
395.38	4605.2	
395.59	3898	
395.79	3149.8	
396	4556.7	
396.2	4931.5	
396.4	3777.8	
396.61	3684.3	
396.81	4977.9	
397.02	4455.7	
397.22	3891.1	
397.42	3981.9	
397.63	5102.2	
397.83	4456.4	
398.04	3169.6	
398.24	3455.6	
398.44	4817.5	
398.65	4155.3	
398.85	3055.6	
399.05	3084.2	
399.26	4477.5	
399.46	5600.5	
399.67	3344.3	
399.87	3196.2	
400.07	4732.2	
400.28	4880.3	
400.48	3241.9	
400.69	3927.3	
400.89	4999.8	
401.09	5397.8	
401.3	3134.1	
401.5	3962.8	
401.7	5485.1	
401.91	5709.1	
402.11	3445.4	
402.32	3547.8	
402.52	5174.5	
402.72	5044.1	
402.93	3723.9	
403.13	2889.7	
403.33	5688.6	
403.54	4736.3	
403.74	3499.3	
403.94	4147.1	
404.15	4760.2	
404.35	5618.3	
404.56	3351.8	
404.76	4627	
404.96	5126.7	
405.17	4912.4	
405.37	4307.6	
405.57	3728.7	
405.78	5066.7	
405.98	4757.4	
406.18	3928	
406.39	3964.9	
406.59	5111.7	
406.79	4746.5	
407	3147.7	
407.2	3265.8	
407.4	5269.4	
407.61	5183.4	
407.81	3193.5	
408.01	4278.2	
408.22	4365.6	
408.42	5647.6	
408.62	4046.1	
408.83	3620.8	
409.03	4823	
409.23	4676.2	
409.44	3635.8	
409.64	3822.2	
409.84	5407.3	
410.05	5339.1	
410.25	3702	
410.45	3593.5	
410.66	4944.5	
410.86	6666.1	
411.06	3821.5	
411.27	3721.2	
411.47	6490.7	
411.67	5031.9	
411.88	3899.3	
412.08	4042.7	
412.28	5433.3	
412.49	5841.5	
412.69	3734.8	
412.89	3700	
413.09	5715.9	
413.3	5624.4	
413.5	3784	
413.7	3523.9	
413.91	5101.5	
414.11	5697.4	
414.31	3660.4	
414.52	3934.1	
414.72	5539.1	
414.92	5324.7	
415.12	3682.2	
415.33	4024.9	
415.53	5565	
415.73	5716.6	
415.94	4263.9	
416.14	3853.6	
416.34	4922	
416.55	4687.1	
416.75	4698.7	
416.95	4338.3	
417.15	5719.3	
417.36	6141.9	
417.56	4869.4	
417.76	4143.7	
417.97	5917.9	
418.17	5664	
418.37	3950.5	
418.57	3917.1	
418.78	5556.1	
418.98	5304.2	
419.18	4581.3	
419.38	4516.5	
419.59	5294	
419.79	5022.3	
419.99	3847.5	
420.2	4061.1	
420.4	5692.7	
420.6	5772.5	
420.8	3690.4	
421.01	3695.9	
421.21	5586.9	
421.41	5638.1	
421.61	4090.5	
421.82	3856.3	
422.02	5244.2	
422.22	5924.8	
422.42	4442.7	
422.63	4193.6	
422.83	5272.8	
423.03	6161.7	
423.23	4210.6	
423.44	3508.9	
423.64	5324	
423.84	5158.2	
424.04	3861.8	
424.25	3592.8	
424.45	5992.4	
424.65	5892.7	
424.85	3469.3	
425.06	3842	
425.26	6100.2	
425.46	5228.5	
425.66	4173.8	
425.87	4005.1	
426.07	5812.8	
426.27	5698.1	
426.47	4058.4	
426.67	3585.3	
426.88	6117.3	
427.08	5630.5	
427.28	4274.8	
427.48	3609.2	
427.69	4924.7	
427.89	5447.6	
428.09	4197.7	
428.29	3627	
428.5	5864	
428.7	5556.1	
428.9	3520.5	
429.1	3916.4	
429.3	5528.8	
429.51	5695.4	
429.71	3813.3	
429.91	4377.2	
430.11	5752.7	
430.31	5822.4	
430.52	3999	
430.72	4121.9	
430.92	6150.1	
431.12	5687.2	
431.32	3777.1	
431.53	4100.7	
431.73	4915.8	
431.93	6077	
432.13	3717.7	
432.33	3648.1	
432.54	5355.4	
432.74	5484.5	
432.94	3573.7	
433.14	4330.8	
433.34	5818.3	
433.55	5341.1	
433.75	4304.1	
433.95	5428.5	
434.15	5582.1	
434.35	5265.3	
434.56	3782.6	
434.76	3337.5	
434.96	5454.4	
435.16	5677	
435.36	3709.6	
435.56	4470.7	
435.77	5282.4	
435.97	5358.9	
436.17	4881.7	
436.37	4364.2	
436.57	5198.4	
436.78	5154.7	
436.98	4365.6	
437.18	4799.8	
437.38	5667.4	
437.58	5344.5	
437.78	4835.3	
437.99	3928.7	
438.19	5781.4	
438.39	6792.4	
438.59	3945.1	
438.79	3544.4	
438.99	6189.6	
439.2	5369.1	
439.4	3629	
439.6	3571	
439.8	5567.1	
440	6283.2	
440.2	4379.2	
440.4	4416.8	
440.61	5902.2	
440.81	6216.3	
441.01	3767.6	
441.21	4362.2	
441.41	6172.6	
441.61	5836.7	
441.81	4648.9	
442.02	5315.2	
442.22	6493.4	
442.42	5877.7	
442.62	3797.6	
442.82	3889.8	
443.02	6166.4	
443.22	5502.2	
443.43	4171.7	
443.63	3734.8	
443.83	5408	
444.03	5384.8	
444.23	4614.1	
444.43	4471.4	
444.63	5682.4	
444.83	6522.1	
445.04	3919.8	
445.24	4771.1	
445.44	5968.5	
445.64	5995.1	
445.84	4525.3	
446.04	4455	
446.24	5503.6	
446.44	6155.5	
446.65	3937.6	
446.85	4137.6	
447.05	5745.9	
447.25	6181.5	
447.45	4286.4	
447.65	3760.8	
447.85	5750	
448.05	5452.4	
448.25	4497.3	
448.46	4353.3	
448.66	5691.3	
448.86	5528.2	
449.06	3745.1	
449.26	4508.9	
449.46	5986.2	
449.66	5358.9	
449.86	4218.8	
450.06	4153.3	
450.26	5440.8	
450.47	5860.6	
450.67	4386.7	
450.87	4665.3	
451.07	5967.1	
451.27	5717.9	
451.47	3911.6	
451.67	4493.2	
451.87	5504.9	
452.07	6348.7	
452.27	4029.7	
452.47	4095.9	
452.67	5771.2	
452.88	6044.9	
453.08	3636.5	
453.28	4981.3	
453.48	6541.9	
453.68	5680.4	
453.88	3981.3	
454.08	4140.3	
454.28	5965.7	
454.48	5679	
454.68	4535.6	
454.88	4884.4	
455.08	6172.6	
455.28	5866.7	
455.48	3923.2	
455.68	4382.7	
455.89	6376.7	
456.09	6151.4	
456.29	4218.1	
456.49	4186.7	
456.69	6327.5	
456.89	5827.8	
457.09	4524.6	
457.29	4786.8	
457.49	6038.1	
457.69	5988.9	
457.89	4461.8	
458.09	4012	
458.29	5801.9	
458.49	6384.2	
458.69	4640	
458.89	4250.2	
459.09	6444.3	
459.29	6547.4	
459.49	4366.3	
459.69	4967.7	
459.9	6172.6	
460.1	5816.2	
460.3	4274.8	
460.5	4117.1	
460.7	6120.7	
460.9	5812.1	
461.1	3897.3	
461.3	4811.4	
461.5	6651.8	
461.7	6341.9	
461.9	4121.2	
462.1	4516.5	
462.3	5983.5	
462.5	6324.1	
462.7	4261.1	
462.9	4259.1	
463.1	7127.6	
463.3	6819.1	
463.5	4457.7	
463.7	5141.8	
463.9	6134.3	
464.1	6361.7	
464.3	4592.9	
464.5	4739	
464.7	6597.2	
464.9	6324.8	
465.1	5546.6	
465.3	4904.2	
465.5	6739.2	
465.7	6765.1	
465.9	5124.7	
466.1	5001.1	
466.3	6571.9	
466.5	6561	
466.7	5528.8	
466.9	4858.5	
467.1	6598.6	
467.3	7200	
467.5	5590.3	
467.7	4796.3	
467.9	7321.5	
468.1	7862.2	
468.3	5327.4	
468.5	5677	
468.7	6526.9	
468.9	6447.7	
469.1	5015.5	
469.3	5395	
469.5	7895.6	
469.7	6154.8	
469.9	5358.2	
470.1	4860.5	
470.3	6577.4	
470.5	6565.8	
470.7	5770.5	
470.9	4916.5	
471.1	6360.3	
471.3	6696.9	
471.5	4814.1	
471.69	6196.5	
471.89	6338.5	
472.09	5893.4	
472.29	5220.3	
472.49	5646.9	
472.69	6109.1	
472.89	6608.8	
473.09	4783.4	
473.29	4839.4	
473.49	6193.7	
473.69	6287.9	
473.89	5481.7	
474.09	4885.1	
474.29	7277.8	
474.49	7020.4	
474.69	5485.1	
474.89	5080.3	
475.09	6391.7	
475.29	6299.6	
475.49	4612.7	
475.69	4762.9	
475.88	7514.7	
476.08	6705.7	
476.28	4618.9	
476.48	4838	
476.68	7013.6	
476.88	6716	
477.08	4830.5	
477.28	4997	
477.48	6496.8	
477.68	6838.2	
477.88	4637.3	
478.08	4881	
478.28	7139.9	
478.48	6513.2	
478.67	4955.4	
478.87	4500.1	
479.07	6924.2	
479.27	6630	
479.47	5053	
479.67	5152.7	
479.87	6881.2	
480.07	7173.4	
480.27	4575.2	
480.47	5735.7	
480.67	6563.7	
480.87	7079.8	
481.06	4830.5	
481.26	5423	
481.46	6591.7	
481.66	6464.1	
481.86	5167	
482.06	5760.9	
482.26	6381.5	
482.46	6847	
482.66	5048.9	
482.86	4745.1	
483.05	6701	
483.25	6178.7	
483.45	6841.6	
483.65	5056.4	
483.85	6224.5	
484.05	6503.7	
484.25	5333.6	
484.45	5679.7	
484.65	7055.9	
484.84	7126.9	
485.04	4990.2	
485.24	5016.2	
485.44	7382.9	
485.64	6128.2	
485.84	4532.2	
486.04	5503.6	
486.24	6505.7	
486.44	6659.3	
486.63	4464.6	
486.83	5110.4	
487.03	6391	
487.23	6520	
487.43	4595.6	
487.63	6253.1	
487.83	6643.6	
488.02	7172.7	
488.22	5290.6	
488.42	5681.1	
488.62	7138.5	
488.82	6305.7	
489.02	4985.4	
489.22	5025.7	
489.41	7054.6	
489.61	6810.2	
489.81	4829.8	
490.01	4815.5	
490.21	7022.5	
490.41	7557.7	
490.61	4857.1	
490.8	4896	
491	6742.6	
491.2	6216.3	
491.4	5319.9	
491.6	4695.3	
491.8	6698.2	
491.99	6718	
492.19	4586.1	
492.39	4860.5	
492.59	6993.1	
492.79	7135.8	
492.99	5388.9	
493.18	4885.8	
493.38	7160.4	
493.58	7693.5	
493.78	5343.8	
493.98	4976.6	
494.18	6932.4	
494.37	6526.2	
494.57	5437.4	
494.77	5347.9	
494.97	7092.8	
495.17	7204.8	
495.37	5087.8	
495.56	5401.9	
495.76	7386.3	
495.96	7215.7	
496.16	6088.6	
496.36	5233.2	
496.55	7363.8	
496.75	6857.3	
496.95	5487.2	
497.15	5446.2	
497.35	7299	
497.54	7222.5	
497.74	5341.1	
497.94	6415.6	
498.14	7813	
498.34	7546.8	
498.53	5113.1	
498.73	5627.1	
498.93	6801.3	
499.13	7241.6	
499.33	5537.7	
499.52	5902.2	
499.72	7289.4	
499.92	7351.5	
500.12	5309.7	
500.32	5535.7	
500.51	7489.4	
500.71	7343.3	
500.91	6122.7	
501.11	5787.6	
501.31	7331	
501.5	7773.4	
501.7	6323.4	
501.9	5543.9	
502.1	7283.9	
502.29	7588.4	
502.49	5915.9	
502.69	6220.4	
502.89	7402	
503.09	7395.2	
503.28	5215.5	
503.48	5316.5	
503.68	6963.1	
503.88	6926.9	
504.07	6022.4	
504.27	5605.3	
504.47	7243	
504.67	7207.5	
504.86	5960.3	
505.06	5751.4	
505.26	7110.5	
505.46	8177.5	
505.65	5652.4	
505.85	5792.3	
506.05	7033.4	
506.25	7434.8	
506.44	5279.7	
506.64	5805.3	
506.84	6923.5	
507.04	7538.6	
507.23	5422.3	
507.43	5726.8	
507.63	8357.8	
507.83	6989.7	
508.02	5808	
508.22	5520.6	
508.42	8610.3	
508.62	6865.5	
508.81	5603.9	
509.01	6078.4	
509.21	6821.1	
509.4	7134.4	
509.6	5915.2	
509.8	5420.3	
510	7058.7	
510.19	7993.2	
510.39	5377.3	
510.59	5451	
510.79	6901.7	
510.98	7941.3	
511.18	5526.8	
511.38	5584.1	
511.57	7575.4	
511.77	7340.6	
511.97	6113.9	
512.17	5443.5	
512.36	7505.8	
512.56	7430.7	
512.76	5418.9	
512.95	5261.2	
513.15	7787.7	
513.35	6632.7	
513.55	6044.2	
513.74	5446.9	
513.94	7616.4	
514.14	7131.7	
514.33	6145.3	
514.53	5954.8	
514.73	7220.5	
514.92	7251.9	
515.12	5512.4	
515.32	5431.2	
515.51	7379.5	
515.71	7643.7	
515.91	6755.6	
516.11	5511.8	
516.3	8620.6	
516.5	7099.6	
516.7	6006.7	
516.89	6339.8	
517.09	7243	
517.29	7188.4	
517.48	6190.3	
517.68	5773.9	
517.88	6983.6	
518.07	7519.5	
518.27	6150.1	
518.47	5479.7	
518.66	7925	
518.86	7016.3	
519.06	5384.8	
519.25	5664.7	
519.45	7137.9	
519.65	8260.1	
519.84	6244.3	
520.04	6710.5	
520.24	8598.7	
520.43	7682.6	
520.63	6062	
520.83	5922.7	
521.02	7188.4	
521.22	7685.3	
521.42	6203.3	
521.61	6561.7	
521.81	7413	
522.01	7552.2	
522.2	6106.4	
522.4	5964.4	
522.6	7838.3	
522.79	6894.1	
522.99	6035.4	
523.18	5475.6	
523.38	7697.6	
523.58	7671.7	
523.77	6920.1	
523.97	5662.6	
524.17	9026.8	
524.36	8505.9	
524.56	6637.5	
524.76	6413.6	
524.95	7793.2	
525.15	7535.8	
525.34	6323.4	
525.54	6309.8	
525.74	8075.1	
525.93	7445.7	
526.13	7126.9	
526.33	6382.2	
526.52	8467.7	
526.72	7993.2	
526.91	7299.6	
527.11	6738.5	
527.31	8363.9	
527.5	8759.2	
527.7	6713.9	
527.89	6028.5	
528.09	7765.2	
528.29	8190.5	
528.48	6997.2	
528.68	6808.1	
528.87	8479.3	
529.07	8464.3	
529.27	6741.9	
529.46	6539.8	
529.66	8340	
529.85	8503.2	
530.05	6376	
530.25	6991.1	
530.44	9294.4	
530.64	8295	
530.83	6695.5	
531.03	6869.6	
531.23	8718.2	
531.42	8469	
531.62	7453.9	
531.81	6842.3	
532.01	8791.2	
532.21	9082.1	
532.4	6778.1	
532.6	7043.6	
532.79	9496.4	
532.99	8920.3	
533.18	7145.4	
533.38	7829.4	
533.58	8641.7	
533.77	9136.7	
533.97	7172	
534.16	7675.1	
534.36	9335.3	
534.55	8603.5	
534.75	7944.1	
534.95	7232.1	
535.14	9387.2	
535.34	8642.4	
535.53	7000.6	
535.73	8456.7	
535.92	9768.8	
536.12	8740.7	
536.31	7161.1	
536.51	7918.8	
536.71	9236.3	
536.9	8827.4	
537.1	7185	
537.29	7339.9	
537.49	9361.3	
537.68	8734.6	
537.88	7653.3	
538.07	7025.9	
538.27	8893.6	
538.46	9590.6	
538.66	6947.4	
538.86	7499.7	
539.05	9054.1	
539.25	9369.5	
539.44	7652.6	
539.64	7270.3	
539.83	8936	
540.03	9613.8	
540.22	7300.3	
540.42	7269.6	
540.61	8998.8	
540.81	9131.2	
541	7597.3	
541.2	8072.4	
541.39	8791.2	
541.59	8972.2	
541.78	7918.8	
541.98	7194.5	
542.18	8582.4	
542.37	8519.6	
542.57	7527.7	
542.76	7876.5	
542.96	8636.3	
543.15	9101.2	
543.35	7598	
543.54	7062.1	
543.74	9198.1	
543.93	9060.9	
544.13	7413.6	
544.32	8288.8	
544.52	9258.2	
544.71	8600.1	
544.91	6908.5	
545.1	7670.3	
545.3	8723.7	
545.49	9007.6	
545.69	6795.2	
545.88	7246.4	
546.08	9878.7	
546.27	9501.9	
546.47	7619.8	
546.66	7070.3	
546.86	9258.2	
547.05	9755.2	
547.24	7224.6	
547.44	7163.8	
547.63	8572.8	
547.83	9351.7	
548.02	7465.5	
548.22	7507.2	
548.41	8438.3	
548.61	9387.2	
548.8	7060.7	
549	7025.9	
549.19	9032.9	
549.39	9170.1	
549.58	6900.3	
549.78	7204.1	
549.97	9150.3	
550.17	8789.2	
550.36	7877.2	
550.55	8563.9	
550.75	8697.7	
550.94	9381.1	
551.14	7073.7	
551.33	7258	
551.53	8303.1	
551.72	9001.5	
551.92	7280.5	
552.11	7168.6	
552.31	9088.2	
552.5	9099.1	
552.69	8407.6	
552.89	6879.8	
553.08	9056.1	
553.28	8854.7	
553.47	7162.4	
553.67	7993.9	
553.86	9484.1	
554.06	8213	
554.25	6599.2	
554.44	6989.7	
554.64	9895.8	
554.83	9652.1	
555.03	6983.6	
555.22	7160.4	
555.42	9164.7	
555.61	8927.1	
555.8	7068.9	
556	7220.5	
556.19	8385.7	
556.39	9226.1	
556.58	7144	
556.78	7146	
556.97	8858.1	
557.16	8673.1	
557.36	7983.7	
557.55	6832	
557.75	8105.2	
557.94	9508	
558.13	6884.6	
558.33	6888.7	
558.52	9350.3	
558.72	8432.9	
558.91	6869.6	
559.1	6938.5	
559.3	8286.1	
559.49	8012.3	
559.69	6677.1	
559.88	7231.4	
560.07	8798.8	
560.27	9060.9	
560.46	7408.9	
560.66	7471.7	
560.85	8649.3	
561.04	8014.4	
561.24	6787	
561.43	6802.7	
561.63	8163.2	
561.82	8408.3	
562.01	7724.3	
562.21	7066.9	
562.4	8663.6	
562.59	9344.9	
562.79	7050.5	
562.98	6709.8	
563.18	8646.5	
563.37	9641.8	
563.56	7354.3	
563.76	6716.7	
563.95	8269.7	
564.14	8239	
564.34	7010.9	
564.53	6853.9	
564.73	8748.9	
564.92	8871.1	
565.11	7101.7	
565.31	6605.4	
565.5	9161.9	
565.69	8195.3	
565.89	6877.8	
566.08	7098.3	
566.27	8938	
566.47	9255.5	
566.66	7520.1	
566.85	6623.1	
567.05	8767.4	
567.24	8383.7	
567.44	6775.4	
567.63	7701	
567.82	8854.7	
568.02	8513.4	
568.21	6748.7	
568.4	6993.1	
568.6	8557.8	
568.79	8436.3	
568.98	6735.8	
569.18	6728.3	
569.37	8576.2	
569.56	9972.9	
569.76	7032	
569.95	7604.1	
570.14	8821.3	
570.34	8679.3	
570.53	6764.4	
570.72	6646.3	
570.91	9226.1	
571.11	8505.9	
571.3	7002	
571.49	7712.7	
571.69	8566.7	
571.88	8214.4	
572.07	7346.7	
572.27	7421.2	
572.46	8210.3	
572.65	8927.1	
572.85	6859.3	
573.04	7065.5	
573.23	9117.6	
573.43	8606.2	
573.62	6610.2	
573.81	7084.6	
574	8574.2	
574.2	8374.8	
574.39	6924.9	
574.58	6996.5	
574.78	9203.6	
574.97	8634.9	
575.16	7202	
575.36	7317.4	
575.55	8914.1	
575.74	9037	
575.93	6597.2	
576.13	7354.9	
576.32	8523	
576.51	8885.5	
576.71	6993.8	
576.9	7927	
577.09	9107.3	
577.28	8677.9	
577.48	7253.9	
577.67	6505.7	
577.86	8468.4	
578.05	8702.5	
578.25	7038.9	
578.44	7095.5	
578.63	8559.8	
578.83	9457.5	
579.02	6615.6	
579.21	7675.1	
579.4	8652	
579.6	8517.5	
579.79	7109.2	
579.98	8586.5	
580.17	8968.7	
580.37	9004.9	
580.56	6685.9	
580.75	7300.3	
580.94	9187.2	
581.14	9260.9	
581.33	7553.6	
581.52	6818.4	
581.71	8792.6	
581.91	9368.8	
582.1	6637.5	
582.29	6993.1	
582.48	8621.9	
582.68	8533.9	
582.87	7320.8	
583.06	7118.7	
583.25	8884.1	
583.45	8331.8	
583.64	7595.2	
583.83	8020.5	
584.02	8557.8	
584.21	8796	
584.41	7507.2	
584.6	7103.7	
584.79	8705.9	
584.98	9065.7	
585.18	6709.1	
585.37	6692.8	
585.56	8332.5	
585.75	8755.7	
585.94	6870.3	
586.14	7337.2	
586.33	9221.3	
586.52	8609	
586.71	7145.4	
586.91	6937.8	
587.1	8062.9	
587.29	8831.5	
587.48	6836.8	
587.67	6741.2	
587.87	8742.1	
588.06	8630.8	
588.25	7721.5	
588.44	7244.3	
588.63	8473.1	
588.83	8794	
589.02	6858	
589.21	6724.8	
589.4	8324.3	
589.59	8224	
589.78	6128.9	
589.98	6413.6	
590.17	7877.9	
590.36	8220.5	
590.55	5896.8	
590.74	6409.5	
590.94	9157.8	
591.13	8090.8	
591.32	6232.7	
591.51	5917.9	
591.7	8359.8	
591.89	8037.6	
592.09	6063.4	
592.28	6338.5	
592.47	7477.1	
592.66	8851.3	
592.85	6006.7	
593.05	6229.9	
593.24	7953.6	
593.43	8490.2	
593.62	6333.7	
593.81	6632	
594	7972.1	
594.19	8161.2	
594.39	6205.3	
594.58	6124.8	
594.77	8284.7	
594.96	8580.3	
595.15	6206.7	
595.34	6522.1	
595.54	8118.8	
595.73	7578.8	
595.92	5647.6	
596.11	6413.6	
596.3	8538.7	
596.49	7593.9	
596.68	6326.2	
596.88	6572.6	
597.07	8246.5	
597.26	7450.5	
597.45	5902.9	
597.64	6830	
597.83	7735.2	
598.02	8029.4	
598.22	5980.8	
598.41	6531.7	
598.6	7983	
598.79	7502.4	
598.98	6049.7	
599.17	6694.1	
599.36	7976.8	
599.55	8755.7	
599.74	7443.7	
599.94	7329.7	
600.13	8342.1	
600.32	7481.9	
600.51	5714.5	
600.7	5877.7	
600.89	8693.6	
601.08	8871.8	
601.27	5789.6	
601.47	6439.5	
601.66	8200.1	
601.85	8678.6	
602.04	6309.1	
602.23	6298.9	
602.42	7563.8	
602.61	7974.8	
602.8	6103.6	
602.99	6064.7	
603.18	7858.1	
603.37	7884.7	
603.57	6393.8	
603.76	6836.8	
603.95	8539.3	
604.14	8113.4	
604.33	6154.1	
604.52	6258.6	
604.71	7939.3	
604.9	7624.6	
605.09	6713.9	
605.28	6602.7	
605.47	8385.7	
605.66	8101.8	
605.86	6423.1	
606.05	6086.6	
606.24	8409.6	
606.43	7268.9	
606.62	6227.2	
606.81	6780.8	
607	8271.1	
607.19	7744.7	
607.38	5853.1	
607.57	6039.5	
607.76	7606.2	
607.95	7179.5	
608.14	6374.6	
608.33	6755.6	
608.52	7513.3	
608.72	8146.1	
608.91	5824.4	
609.1	5696.8	
609.29	7630.7	
609.48	7290.1	
609.67	6331	
609.86	5730.2	
610.05	7385.7	
610.24	7553.6	
610.43	5723.4	
610.62	5390.9	
610.81	8346.8	
611	8236.9	
611.19	5739.8	
611.38	6262.7	
611.57	7869.7	
611.76	8604.2	
611.95	5563.6	
612.14	5466	
612.33	7559.1	
612.52	7249.1	
612.71	6036	
612.9	5331.5	
613.09	6961	
613.28	8631.5	
613.47	5911.8	
613.66	6428.6	
613.85	7727.7	
614.04	7258	
614.24	5856.5	
614.43	5246.2	
614.62	7694.2	
614.81	7676.5	
615	6138.4	
615.19	6130.9	
615.38	7133.8	
615.57	7455.3	
615.76	6112.5	
615.95	6795.2	
616.14	7803.4	
616.33	7472.4	
616.52	6360.3	
616.71	6427.2	
616.9	7730.4	
617.09	7692.2	
617.28	5816.2	
617.47	6675	
617.66	7172	
617.85	7133.8	
618.04	6453.8	
618.22	6047.7	
618.41	7361.8	
618.6	8106.5	
618.79	6137.8	
618.98	5896.1	
619.17	8267	
619.36	6987.7	
619.55	5999.9	
619.74	6075.6	
619.93	7710.6	
620.12	7287.4	
620.31	6389	
620.5	6524.8	
620.69	8085.4	
620.88	8498.4	
621.07	6998.6	
621.26	6298.2	
621.45	7874.4	
621.64	7823.9	
621.83	6400.6	
622.02	5788.9	
622.21	7899.7	
622.4	7764.5	
622.59	6844.3	
622.78	6696.2	
622.97	7542	
623.16	8151.6	
623.35	6358.9	
623.54	5727.5	
623.72	7609.6	
623.91	7699.7	
624.1	6579.4	
624.29	5646.9	
624.48	8481.3	
624.67	8036.9	
624.86	6464.1	
625.05	5894.7	
625.24	8558.5	
625.43	7452.6	
625.62	7607.5	
625.81	5955.5	
626	8066.9	
626.19	7567.2	
626.38	6526.2	
626.56	6029.2	
626.75	7531.1	
626.94	7998	
627.13	6566.5	
627.32	5638.1	
627.51	7976.8	
627.7	8705.9	
627.89	5664	
628.08	6546.7	
628.27	7397.9	
628.46	7571.3	
628.65	5873.6	
628.83	5641.5	
629.02	7958.4	
629.21	7397.9	
629.4	6213.5	
629.59	6383.5	
629.78	7423.2	
629.97	8141.4	
630.16	6406	
630.35	5999.9	
630.54	8492.9	
630.72	8204.2	
630.91	6027.9	
631.1	6401.3	
631.29	7854.6	
631.48	7903.8	
631.67	6555.5	
631.86	6047	
632.05	7593.9	
632.24	7615	
632.42	5842.2	
632.61	6309.1	
632.8	7638.9	
632.99	7376.8	
633.18	6289.3	
633.37	6559.6	
633.56	7848.5	
633.75	7691.5	
633.93	6346.7	
634.12	6152.1	
634.31	8460.2	
634.5	8003.5	
634.69	6127.5	
634.88	6368.5	
635.07	7707.9	
635.25	8058.8	
635.44	6783.6	
635.63	6862.1	
635.82	7566.6	
636.01	7083.9	
636.2	6685.3	
636.39	6339.1	
636.57	8387.8	
636.76	8081.3	
636.95	6066.8	
637.14	6999.3	
637.33	7862.2	
637.52	8411.7	
637.7	5717.9	
637.89	6505.7	
638.08	7652.6	
638.27	8543.4	
638.46	6556.9	
638.65	6864.1	
638.83	8532.5	
639.02	7379.5	
639.21	6375.3	
639.4	6754.9	
639.59	7693.5	
639.78	7511.3	
639.96	5880.4	
640.15	5875.6	
640.34	7651.9	
640.53	7767.3	
640.72	5668.8	
640.91	5920	
641.09	7148.1	
641.28	8067.6	
641.47	5941.2	
641.66	6410.1	
641.85	7682.6	
642.03	7795.9	
642.22	6140.5	
642.41	5915.2	
642.6	7248.4	
642.79	6826.6	
642.97	5807.4	
643.16	6264.1	
643.35	7140.6	
643.54	7061.4	
643.73	5694	
643.91	6294.8	
644.1	6913.3	
644.29	7409.6	
644.48	5735	
644.67	5785.5	
644.85	7060.7	
645.04	7378.1	
645.23	5440.1	
645.42	5681.1	
645.6	7008.1	
645.79	7706.5	
645.98	5567.1	
646.17	4972.5	
646.36	6772.6	
646.54	7018.4	
646.73	6184.9	
646.92	5308.3	
647.11	6846.4	
647.29	7634.1	
647.48	5423	
647.67	5170.4	
647.86	7683.3	
648.05	7772.7	
648.23	5509	
648.42	6490	
648.61	7344.7	
648.8	7126.9	
648.98	5251.7	
649.17	5520	
649.36	6755.6	
649.55	6441.5	
649.73	5337.7	
649.92	5776	
650.11	6675.7	
650.3	6959	
650.48	5334.3	
650.67	5216.2	
650.86	7088.7	
651.05	6305	
651.23	5331.5	
651.42	5335	
651.61	6784.9	
651.79	6735.1	
651.98	5409.4	
652.17	5199.8	
652.36	7066.9	
652.54	6331.6	
652.73	5238	
652.92	5081.7	
653.11	7068.2	
653.29	7096.9	
653.48	4775.2	
653.67	5377.3	
653.85	6845.7	
654.04	7641.7	
654.23	5554.8	
654.42	5218.2	
654.6	6533	
654.79	7048.4	
654.98	4812	
655.16	5272.2	
655.35	6266.8	
655.54	6076.3	
655.73	4886.5	
655.91	4676.9	
656.1	6855.2	
656.29	6038.8	
656.47	4476.2	
656.66	5670.1	
656.85	6303.6	
657.03	6337.8	
657.22	4850.3	
657.41	4876.2	
657.59	6392.4	
657.78	6234	
657.97	4623.6	
658.16	5139.7	
658.34	6855.2	
658.53	7126.9	
658.72	5769.8	
658.9	6153.5	
659.09	6518.7	
659.28	6529.6	
659.46	4976.6	
659.65	4922.6	
659.84	6315.3	
660.02	6773.3	
660.21	4949.9	
660.4	4787.5	
660.58	6948.8	
660.77	6503	
660.96	5318.6	
661.14	4532.8	
661.33	7337.2	
661.52	7208.8	
661.7	4529.4	
661.89	6890	
662.08	6242.9	
662.26	5878.4	
662.45	4749.2	
662.64	4782.7	
662.82	6743.3	
663.01	6070.9	
663.2	4805.2	
663.38	5355.4	
663.57	6597.2	
663.75	6468.9	
663.94	5014.8	
664.13	5906.3	
664.31	6212.2	
664.5	6625.2	
664.69	5236	
664.87	5535.7	
665.06	6001.9	
665.25	6453.8	
665.43	5700.2	
665.62	5751.4	
665.8	6640.2	
665.99	6226.5	
666.18	4988.9	
666.36	5055.8	
666.55	6711.9	
666.74	6539.8	
666.92	4715.8	
667.11	5860.6	
667.29	6265.4	
667.48	6604.7	
667.67	5600.5	
667.85	4863.9	
668.04	6129.6	
668.22	6228.6	
668.41	5012.1	
668.6	5165	
668.78	6045.6	
668.97	6213.5	
669.15	5264.6	
669.34	4498	
669.53	6049.7	
669.71	6307.7	
669.9	4622.3	
670.08	5099.4	
670.27	5972.6	
670.46	6462.7	
670.64	5210	
670.83	5401.2	
671.01	5853.1	
671.2	6313.9	
671.38	4706.2	
671.57	4645.5	
671.76	6926.9	
671.94	7200.7	
672.13	4570.4	
672.31	5359.5	
672.5	6577.4	
672.69	6036.7	
672.87	4736.3	
673.06	4875.5	
673.24	6475	
673.43	6062	
673.61	5240.8	
673.8	4878.9	
673.98	6528.9	
674.17	6638.8	
674.36	5343.8	
674.54	5162.9	
674.73	6346.7	
674.91	6614.3	
675.1	4920.6	
675.28	4659.1	
675.47	6188.3	
675.65	6614.3	
675.84	4888.5	
676.03	5107.6	
676.21	6102.3	
676.4	5612.1	
676.58	5451.7	
676.77	5250.3	
676.95	7138.5	
677.14	6066.8	
677.32	4645.5	
677.51	4569	
677.69	6624.5	
677.88	5866.1	
678.06	4582.7	
678.25	4635.2	
678.44	6201.9	
678.62	6028.5	
678.81	4480.3	
678.99	5122	
679.18	6855.2	
679.36	6472.3	
679.55	4850.3	
679.73	5297.4	
679.92	6433.4	
680.1	6057.9	
680.29	5724.1	
680.47	4850.3	
680.66	6051.7	
680.84	6602.7	
681.03	4388.8	
681.21	5257.8	
681.4	6055.2	
681.58	5981.4	
681.77	4717.2	
681.95	4590.2	
682.14	6663.4	
682.32	6933.1	
682.51	5371.1	
682.69	4516.5	
682.88	6069.5	
683.06	6451.8	
683.25	5154.1	
683.43	5496.7	
683.62	6328.9	
683.8	6599.2	
683.99	5640.1	
684.17	5144.5	
684.36	7205.4	
684.54	6224.5	
684.73	4528.7	
684.91	4724.7	
685.1	6492.1	
685.28	5995.8	
685.46	5098.1	
685.65	5096.7	
685.83	6585.6	
686.02	6218.3	
686.2	4695.3	
686.39	4726	
686.57	5909.8	
686.76	7062.8	
686.94	4741.7	
687.13	4835.3	
687.31	6509.8	
687.5	6241.5	
687.68	4487.8	
687.86	5338.4	
688.05	7534.5	
688.23	5866.1	
688.42	5427.1	
688.6	4852.3	
688.79	6211.5	
688.97	6242.2	
689.16	5251	
689.34	4489.1	
689.52	6782.2	
689.71	7044.3	
689.89	5397.1	
690.08	4953.4	
690.26	6598.6	
690.45	6393.8	
690.63	5597.8	
690.81	5156.1	
691	6481.8	
691.18	6327.5	
691.37	5238.7	
691.55	6916.7	
691.74	6337.1	
691.92	7911.3	
692.1	5276.9	
692.29	4948.6	
692.47	6589	
692.66	6090.7	
692.84	5124.7	
693.02	5461.9	
693.21	6185.5	
693.39	6678.4	
693.58	5618.3	
693.76	5205.9	
693.94	7431.4	
694.13	7390.4	
694.31	5281	
694.5	6059.3	
694.68	6580.8	
694.86	6914.6	
695.05	5643.5	
695.23	5741.1	
695.42	7188.4	
695.6	8770.1	
695.78	6181.5	
695.97	5474.9	
696.15	7390.4	
696.34	6795.2	
696.52	5420.3	
696.7	6016.2	
696.89	7200.7	
697.07	6741.9	
697.25	6004	
697.44	7090.8	
697.62	7189.1	
697.81	7411.6	
697.99	5767.1	
698.17	6117.3	
698.36	6849.1	
698.54	7342.7	
698.72	6082.5	
698.91	5465.3	
699.09	7079.8	
699.28	6948.1	
699.46	5961.6	
699.64	5856.5	
699.83	6952.2	
700.01	7776.1	
700.19	6440.2	
700.38	5300.8	
700.56	7798.7	
700.74	7120.8	
700.93	5725.4	
701.11	6318	
701.29	7602.1	
701.48	8409.6	
701.66	5910.4	
701.84	6029.2	
702.03	7344.7	
702.21	7925.6	
702.39	5723.4	
702.58	6149.4	
702.76	7735.2	
702.94	7865.6	
703.13	5785.5	
703.31	7505.8	
703.49	7305.8	
703.68	8368.7	
703.86	5987.6	
704.04	6733.7	
704.23	7735.9	
704.41	7977.5	
704.59	6225.1	
704.78	6966.5	
704.96	8994	
705.14	8005.5	
705.33	6098.9	
705.51	6610.8	
705.69	7761.1	
705.87	8276.5	
706.06	6888	
706.24	6094.8	
706.42	8003.5	
706.61	8079.2	
706.79	7051.2	
706.97	6143.2	
707.16	7615	
707.34	7993.9	
707.52	6809.5	
707.7	6293.4	
707.89	7699	
708.07	7622.5	
708.25	6997.9	
708.44	7090.1	
708.62	7751.6	
708.8	8607.6	
708.98	7266.9	
709.17	6533	
709.35	8009.6	
709.53	8056.7	
709.72	6339.1	
709.9	6406	
710.08	8338	
710.26	8310.7	
710.45	7544	
710.63	6589	
710.81	8063.5	
710.99	8158.4	
711.18	7025.2	
711.36	6650.4	
711.54	8012.3	
711.72	8419.9	
711.91	6853.9	
712.09	6347.3	
712.27	8159.8	
712.45	8562.6	
712.64	6903.7	
712.82	6182.1	
713	7693.5	
713.18	7798.7	
713.37	6217	
713.55	7011.6	
713.73	8402.8	
713.91	7359.7	
714.1	6391.7	
714.28	6025.8	
714.46	7973.4	
714.64	7359.7	
714.83	5490.6	
715.01	5991	
715.19	7287.4	
715.37	6695.5	
715.55	5586.9	
715.74	5855.8	
715.92	7755.7	
716.1	6318	
716.28	6607.4	
716.47	5863.3	
716.65	6879.1	
716.83	6900.3	
717.01	5719.3	
717.19	5743.9	
717.38	8426.7	
717.56	6710.5	
717.74	5930.9	
717.92	5426.4	
718.1	7600.7	
718.29	7047.7	
718.47	5236	
718.65	5780.1	
718.83	7681.2	
719.01	7653.9	
719.2	5273.5	
719.38	6182.1	
719.56	7557	
719.74	8675.2	
719.92	5980.8	
720.11	6617.7	
720.29	7705.1	
720.47	6935.8	
720.65	5582.8	
720.83	6119.3	
721.02	7118.7	
721.2	6972	
721.38	6028.5	
721.56	5485.8	
721.74	6541.2	
721.92	6649.8	
722.11	6389	
722.29	6184.9	
722.47	7585.7	
722.65	6929.6	
722.83	5450.3	
723.01	6173.9	
723.2	7068.2	
723.38	7303.1	
723.56	5078.3	
723.74	5945.9	
723.92	6630.6	
724.1	7487.4	
724.29	5473.5	
724.47	6272.9	
724.65	6836.1	
724.83	6692.1	
725.01	5438.7	
725.19	6024.4	
725.37	6694.1	
725.56	6589	
725.74	5296	
725.92	5495.4	
726.1	6716.7	
726.28	6914.6	
726.46	5797.1	
726.64	5578	
726.83	6953.5	
727.01	7007.5	
727.19	5302.2	
727.37	5863.3	
727.55	7129	
727.73	7379.5	
727.91	5294.7	
728.09	5212.8	
728.28	7377.5	
728.46	7561.8	
728.64	5975.3	
728.82	5877	
729	8135.9	
729.18	7729	
729.36	5421	
729.54	7021.8	
729.72	8555	
729.91	7249.8	
730.09	6970.6	
730.27	6014.9	
730.45	7260	
730.63	7646.4	
730.81	6455.9	
730.99	5892.7	
731.17	8148.9	
731.35	7047.1	
731.53	6243.6	
731.71	6068.1	
731.9	7847.8	
732.08	7924.3	
732.26	6092.7	
732.44	5840.8	
732.62	7988.4	
732.8	7631.4	
732.98	6360.3	
733.16	5656.5	
733.34	7677.8	
733.52	6655.2	
733.7	5930.9	
733.88	6229.2	
734.07	7427.3	
734.25	7275.8	
734.43	5661.3	
734.61	6672.3	
734.79	8470.4	
734.97	7255.3	
735.15	5682.4	
735.33	5978.7	
735.51	7513.3	
735.69	7178.1	
735.87	6778.8	
736.05	6054.5	
736.23	7364.5	
736.41	7171.3	
736.59	5870.8	
736.77	5982.8	
736.95	7577.5	
737.13	7182.2	
737.32	5648.3	
737.5	5812.8	
737.68	7975.5	
737.86	7078.5	
738.04	5539.1	
738.22	6765.1	
738.4	6893.5	
738.58	7172.7	
738.76	5940.5	
738.94	5150.6	
739.12	6993.8	
739.3	6961.7	
739.48	6449.1	
739.66	6111.1	
739.84	7176.8	
740.02	7141.3	
740.2	5269.4	
740.38	5442.1	
740.56	7439.6	
740.74	6551.5	
740.92	5940.5	
741.1	5814.9	
741.28	6962.4	
741.46	6773.3	
741.64	5492.7	
741.82	5897.5	
742	6989.7	
742.18	6905.1	
742.36	5608.7	
742.54	5378.6	
742.72	7350.2	
742.9	6327.5	
743.08	5926.8	
743.26	4982	
743.44	7416.4	
743.62	7294.9	
743.8	5926.1	
743.98	5330.2	
744.16	7082.6	
744.34	6791.1	
744.52	5840.8	
744.7	5862.7	
744.88	7077.8	
745.06	6722.8	
745.24	5728.2	
745.42	5862.7	
745.6	7223.2	
745.78	7027.9	
745.96	4994.3	
746.14	5056.4	
746.32	7655.3	
746.5	7016.3	
746.68	5513.1	
746.86	5052.3	
747.03	7312.6	
747.21	6139.1	
747.39	5497.4	
747.57	5044.8	
747.75	6778.8	
747.93	6989.7	
748.11	5018.2	
748.29	5041.4	
748.47	7909.3	
748.65	6483.9	
748.83	5534.3	
749.01	5360.9	
749.19	6854.6	
749.37	6153.5	
749.55	5259.9	
749.73	5246.9	
749.91	6581.5	
750.09	6401.3	
750.26	5256.5	
750.44	4818.2	
750.62	6549.4	
750.8	6494.1	
750.98	4792.2	
751.16	4977.2	
751.34	6628.6	
751.52	6129.6	
751.7	5625.1	
751.88	4731.5	
752.06	6852.5	
752.24	6679.8	
752.42	4672.1	
752.59	4967.7	
752.77	6440.2	
752.95	7398.6	
753.13	5466	
753.31	5083.7	
753.49	6322.1	
753.67	6481.8	
753.85	5258.5	
754.03	4845.5	
754.21	6729.6	
754.38	6903	
754.56	4948.6	
754.74	4136.9	
754.92	5947.3	
755.1	6413.6	
755.28	4069.3	
755.46	4076.8	
755.64	6793.8	
755.82	6830.7	
755.99	3986	
756.17	3984	
756.35	4815.5	
756.53	5914.5	
756.71	3116.3	
756.89	3720.5	
757.07	5483.1	
757.25	4886.5	
757.42	4191.5	
757.6	4829.1	
757.78	5755.5	
757.96	5012.1	
758.14	4118.5	
758.32	3775.1	
758.5	4685.1	
758.67	5296	
758.85	3865.2	
759.03	3969.6	
759.21	5427.8	
759.39	4974.5	
759.57	3603.7	
759.75	4376.5	
759.92	6000.5	
760.1	5438	
760.28	4696.7	
760.46	4936.3	
760.64	5247.6	
760.82	5183.4	
760.99	4706.2	
761.17	4104.8	
761.35	5920	
761.53	5171.8	
761.71	4206.5	
761.89	4703.5	
762.06	5860.6	
762.24	5500.8	
762.42	4334.9	
762.6	4198.3	
762.78	5501.5	
762.96	5974.6	
763.13	4617.5	
763.31	4419.5	
763.49	6085.9	
763.67	5559.6	
763.85	5008.6	
764.02	5383.4	
764.2	6438.1	
764.38	5667.4	
764.56	4306.2	
764.74	4949.9	
764.91	6361.7	
765.09	5515.9	
765.27	4078.2	
765.45	3895.2	
765.63	6460	
765.8	6275.7	
765.98	3740.3	
766.16	3908.2	
766.34	5236.7	
766.52	5016.8	
766.69	4588.1	
766.87	3753.9	
767.05	5563	
767.23	6032	
767.41	4030.4	
767.58	4158.1	
767.76	5938.4	
767.94	5969.1	
768.12	4102.1	
768.29	4579.9	
768.47	5451.7	
768.65	6037.4	
768.83	3728.7	
769	4481.6	
769.18	5139.7	
769.36	5587.5	
769.54	4564.9	
769.72	3777.8	
769.89	5866.1	
770.07	5901.6	
770.25	4003.8	
770.43	4862.6	
770.6	6438.8	
770.78	6698.9	
770.96	4087.1	
771.14	4515.1	
771.31	5789.6	
771.49	5251	
771.67	3453.6	
771.85	3631	
772.02	4732.2	
772.2	5228.5	
772.38	4150.5	
772.55	3738.2	
772.73	5505.6	
772.91	5280.3	
773.09	4022.9	
773.26	4095.3	
773.44	5353.4	
773.62	5143.8	
773.8	3680.2	
773.97	3491.8	
774.15	5405.3	
774.33	5186.1	
774.5	3573.7	
774.68	3829	
774.86	5487.9	
775.04	5158.8	
775.21	3646.7	
775.39	3558.7	
775.57	5266	
775.74	5558.9	
775.92	3475.4	
776.1	3331.4	
776.27	5281.7	
776.45	6128.2	
776.63	3605.8	
776.81	3304.1	
776.98	4956.1	
777.16	5806	
777.34	3678.8	
777.51	3904.8	
777.69	4984.8	
777.87	4792.9	
778.04	3724.6	
778.22	4056.3	
778.4	4801.1	
778.57	5295.4	
778.75	3134.8	
778.93	3362.8	
779.1	4740.4	
779.28	4570.4	
779.46	3113.6	
779.64	3435.8	
779.81	5439.4	
779.99	6041.5	
780.17	4021.5	
780.34	4114.4	
780.52	5020.9	
780.69	5147.9	
780.87	3702	
781.05	3377.8	
781.22	5092.6	
781.4	5107	
781.58	3458.3	
781.75	2878.8	
781.93	5074.9	
782.11	4536.3	
782.28	4116.4	
782.46	3466.5	
782.64	4491.9	
782.81	5147.9	
782.99	3475.4	
783.17	3461.7	
783.34	5055.8	
783.52	4511	
783.69	3552.5	
783.87	4238.6	
784.05	4650.3	
784.22	4591.5	
784.4	4174.4	
784.58	3682.9	
784.75	5254.4	
784.93	4662.5	
785.1	3383.2	
785.28	3900	
785.46	5088.5	
785.63	4487.1	
785.81	3414	
785.99	3301.3	
786.16	4723.3	
786.34	5027.1	
786.51	3334.1	
786.69	3604.4	
786.87	4363.5	
787.04	4668.7	
787.22	3190.7	
787.39	3848.8	
787.57	4542.4	
787.75	5337.7	
787.92	4048.8	
788.1	3964.9	
788.27	4483	
788.45	4301.4	
788.63	3747.8	
788.8	2800.3	
788.98	4962.2	
789.15	4267.3	
789.33	2960	
789.5	3397.6	
789.68	5175.2	
789.86	5257.8	
790.03	3696.6	
790.21	3312.9	
790.38	5189.6	
790.56	4614.8	
790.73	3152.5	
790.91	3164.1	
791.09	4553.3	
791.26	5014.8	
791.44	3401.7	
791.61	2971.6	
791.79	4504.8	
791.96	4546.5	
792.14	3089.7	
792.32	2774.3	
792.49	4505.5	
792.67	4563.6	
792.84	3179.8	
793.02	2989.4	
793.19	4933.6	
793.37	5245.5	
793.54	2716.3	
793.72	2982.5	
793.89	5358.9	
794.07	4428.4	
794.25	3347.1	
794.42	2802.3	
794.6	5218.2	
794.77	4937	
794.95	3587.4	
795.12	3213.3	
795.3	4503.5	
795.47	4916.5	
795.65	3494.5	
795.82	3401	
796	4329.4	
796.17	5683.1	
796.35	3254.9	
796.52	3833.1	
796.7	4860.5	
796.87	4960.2	
797.05	3231	
797.22	3901.4	
797.4	4964.3	
797.57	5580.7	
797.75	3418.7	
797.92	3202.3	
798.1	5150.6	
798.27	4352.6	
798.45	2793.4	
798.62	2933.4	
798.8	4684.4	
798.97	5068	
799.15	3532.1	
799.32	3374.4	
799.5	4193.6	
799.67	4706.2	
799.85	3620.8	
800.02	2773.6	
800.2	4462.5	
800.37	4650.9	
800.55	3717.7	
800.72	3205.8	
800.9	5025.7	
801.07	5354.1	
801.25	4109.6	
801.42	3489.7	
801.6	5078.3	
801.77	4732.9	
801.95	3278.8	
802.12	3110.2	
802.29	4783.4	
802.47	4771.8	
802.64	3491.1	
802.82	2686.3	
802.99	4443.4	
803.17	5134.3	
803.34	3328.6	
803.52	3044	
803.69	5642.2	
803.87	4304.1	
804.04	3360.7	
804.21	3380.5	
804.39	5289.2	
804.56	4513	
804.74	2921.1	
804.91	3424.2	
805.09	4444.1	
805.26	4502.1	
805.44	2918.4	
805.61	3211.2	
805.78	5026.4	
805.96	4939	
806.13	3407.8	
806.31	3590.8	
806.48	4134.2	
806.66	4474.1	
806.83	3432.4	
807	3338.9	
807.18	4504.2	
807.35	4714.4	
807.53	3359.4	
807.7	2781.8	
807.87	5296.7	
808.05	4429.1	
808.22	3620.1	
808.4	2747.7	
808.57	4367	
808.74	4117.8	
808.92	3133.4	
809.09	3776.5	
809.27	4446.8	
809.44	4767	
809.61	2755.9	
809.79	2993.4	
809.96	5362.9	
810.14	4958.1	
810.31	2721.1	
810.48	3278.1	
810.66	4490.5	
810.83	5019.6	
811.01	3082.9	
811.18	3338.9	
811.35	5005.2	
811.53	4021.5	
811.7	3631	
811.87	3463.8	
812.05	4568.3	
812.22	4406.5	
812.39	3013.9	
812.57	2899.2	
812.74	4513.7	
812.92	5692	
813.09	3239.9	
813.26	3436.5	
813.44	5406.6	
813.61	4302.1	
813.78	2743.6	
813.96	3540.3	
814.13	4467.3	
814.3	4197.7	
814.48	3878.2	
814.65	3206.4	
814.82	5236.7	
815	4231.1	
815.17	3311.6	
815.34	3963.5	
815.52	4388.8	
815.69	4390.8	
815.87	3199.6	
816.04	3227.6	
816.21	4427.7	
816.38	4039.3	
816.56	3177.8	
816.73	3004.4	
816.9	5439.4	
817.08	4934.9	
817.25	3041.9	
817.42	3637.9	
817.6	4108.9	
817.77	4397	
817.94	3337.5	
818.12	2955.9	
818.29	4272.7	
818.46	6098.2	
818.64	3151.8	
818.81	2902	
818.98	4291.9	
819.16	5734.3	
819.33	3552.5	
819.5	3266.5	
819.67	4732.2	
819.85	5169.1	
820.02	3280.8	
820.19	3418.7	
820.37	4603.2	
820.54	4313.7	
820.71	3358.7	
820.88	4031.8	
821.06	4576.5	
821.23	4265.2	
821.4	3348.4	
821.58	3332	
821.75	4943.1	
821.92	4554	
822.09	2790.7	
822.27	2809.1	
822.44	4453.6	
822.61	4349.9	
822.79	2772.3	
822.96	5002.5	
823.13	4726.7	
823.3	4251.6	
823.48	3147	
823.65	2854.9	
823.82	5048.9	
823.99	4140.3	
824.17	3958	
824.34	2923.8	
824.51	5586.2	
824.68	4483.7	
824.86	3031	
825.03	3332.7	
825.2	4399	
825.37	5154.1	
825.55	3005.1	
825.72	3263.1	
825.89	5616.2	
826.06	5246.9	
826.24	3174.4	
826.41	3217.4	
826.58	5280.3	
826.75	4646.8	
826.92	2646	
827.1	2857.6	
827.27	6851.8	
827.44	5555.5	
827.61	3027.6	
827.79	3590.1	
827.96	4298.7	
828.13	4450.9	
828.3	3203	
828.47	2758.6	
828.65	4657.1	
828.82	4644.1	
828.99	3990.1	
829.16	3515	
829.34	5027.8	
829.51	4815.5	
829.68	3267.9	
829.85	3390.1	
830.02	5256.5	
830.2	4943.1	
830.37	2628.9	
830.54	3814.7	
830.71	5464	
830.88	4422.9	
831.05	2650.1	
831.23	2959.3	
831.4	5360.9	
831.57	5793	
831.74	3048.7	
831.91	2711.5	
832.09	4700.8	
832.26	4958.1	
832.43	3090.4	
832.6	3443.3	
832.77	4678.2	
832.94	5244.2	
833.12	2598.2	
833.29	3088.3	
833.46	4812	
833.63	5940.5	
833.8	3420.1	
833.97	3145.7	
834.15	5003.9	
834.32	4876.9	
834.49	3261	
834.66	3293.8	
834.83	5011.4	
835	4309.6	
835.17	3037.1	
835.35	3058.3	
835.52	4934.2	
835.69	4790.2	
835.86	3175.7	
836.03	2647.3	
836.2	4879.6	
836.37	4630.5	
836.55	3103.4	
836.72	2983.9	
836.89	4599.7	
837.06	4968.4	
837.23	3185.3	
837.4	3411.9	
837.57	5584.1	
837.75	5980.1	
837.92	2884.2	
838.09	3023.5	
838.26	4595.6	
838.43	5068.7	
838.6	3284.9	
838.77	2976.4	
838.94	5720	
839.11	5536.3	
839.29	3158	
839.46	2526.5	
839.63	4978.6	
839.8	4708.3	
839.97	3023.5	
840.14	3026.2	
840.31	4811.4	
840.48	4900.1	
840.65	2603.7	
840.82	2968.2	
841	4910.3	
841.17	4855.7	
841.34	2770.2	
841.51	2892.4	
841.68	4872.8	
841.85	4707.6	
842.02	2946.3	
842.19	2495.8	
842.36	4769	
842.53	4752.7	
842.7	2860.3	
842.87	3324.5	
843.05	5931.6	
843.22	4675.5	
843.39	2723.1	
843.56	2913.6	
843.73	4545.1	
843.9	4998.4	
844.07	4352.6	
844.24	3606.5	
844.41	6681.8	
844.58	4384.7	
844.75	2782.5	
844.92	2923.8	
845.09	4947.2	
845.26	4856.4	
845.43	2850.1	
845.6	2977.1	
845.77	4941.1	
845.94	4686.4	
846.12	3100.6	
846.29	3271.3	
846.46	5094	
846.63	4831.2	
846.8	2790	
846.97	3325.2	
847.14	5214.8	
847.31	4885.1	
847.48	3141.6	
847.65	3371.6	
847.82	5110.4	
847.99	5036.6	
848.16	3637.9	
848.33	3368.2	
848.5	4566.3	
848.67	5262.6	
848.84	2816.6	
849.01	2933.4	
849.18	4504.8	
849.35	4298.7	
849.52	3437.9	
849.69	2755.9	
849.86	5066.7	
850.03	5156.1	
850.2	2828.9	
850.37	3321.1	
850.54	5169.8	
850.71	4668	
850.88	3268.6	
851.05	2764.1	
851.22	4778.6	
851.39	5294	
851.56	2630.3	
851.73	3199.6	
851.9	4392.2	
852.07	5071.5	
852.24	3119.7	
852.41	2765.4	
852.58	4851.6	
852.75	4424.3	
852.92	3120.4	
853.09	2719	
853.26	4538.3	
853.43	5257.8	
853.6	2830.3	
853.77	2430.9	
853.94	5334.3	
854.11	4364.2	
854.28	3966.2	
854.44	3018.7	
854.61	5522.7	
854.78	5087.8	
854.95	2743.6	
855.12	3390.8	
855.29	4061.1	
855.46	5403.9	
855.63	2814.6	
855.8	3774.4	
855.97	4603.2	
856.14	5115.1	
856.31	3809.2	
856.48	3029.6	
856.65	4627	
856.82	4324.6	
856.99	2692.4	
857.16	2973.7	
857.33	5768.4	
857.49	4642.7	
857.66	3007.8	
857.83	3173.7	
858	4672.1	
858.17	4822.3	
858.34	2640.5	
858.51	2816.6	
858.68	5324	
858.85	5342.5	
859.02	3181.9	
859.19	3361.4	
859.36	4396.3	
859.52	4349.2	
859.69	2835.1	
859.86	3240.6	
860.03	4402.5	
860.2	5250.3	
860.37	2572.2	
860.54	2813.9	
860.71	5053.7	
860.88	5314.5	
861.05	3057.6	
861.21	3503.4	
861.38	5337	
861.55	4234.5	
861.72	2590	
861.89	3130	
862.06	5100.8	
862.23	5399.8	
862.4	2710.1	
862.56	2888.3	
862.73	4984.8	
862.9	4717.2	
863.07	3173	
863.24	2574.3	
863.41	4320.5	
863.58	4403.8	
863.75	2795.5	
863.91	3236.5	
864.08	5184.8	
864.25	5021.6	
864.42	3413.3	
864.59	3785.3	
864.76	5545.2	
864.93	4333.5	
865.09	2666.5	
865.26	2984.6	
865.43	5241.4	
865.6	5528.2	
865.77	2529.2	
865.94	2753.8	
866.1	5217.5	
866.27	4925.4	
866.44	4100.7	
866.61	2691	
866.78	4640	
866.95	4961.5	
867.11	2749.7	
867.28	2538.8	
867.45	5197.1	
867.62	4381.3	
867.79	3229.6	
867.96	2787.3	
868.12	4420.2	
868.29	5029.1	
868.46	2783.9	
868.63	3584.6	
868.8	5121.3	
868.97	5001.8	
869.13	2911.5	
869.3	2873.3	
869.47	4943.8	
869.64	5096	
869.81	2828.9	
869.97	2840.5	
870.14	4803.9	
870.31	5350.7	
870.48	2747.7	
870.65	3498.6	
870.81	4647.5	
870.98	4622.9	
871.15	3128.6	
871.32	2973	
871.48	4982	
871.65	5396.4	
871.82	2724.5	
871.99	3032.4	
872.16	5691.3	
872.32	5271.5	
872.49	2815.3	
872.66	2841.9	
872.83	5100.8	
872.99	4453	
873.16	3170.9	
873.33	2799.6	
873.5	4728.1	
873.67	4800.4	
873.83	2923.1	
874	3613.3	
874.17	4885.8	
874.34	5570.5	
874.5	3472	
874.67	3390.1	
874.84	5296.7	
875.01	4278.2	
875.17	3814.7	
875.34	2818.7	
875.51	4817.5	
875.68	5694.7	
875.84	3308.8	
876.01	3931.4	
876.18	5053.7	
876.34	4950.6	
876.51	2809.1	
876.68	2776.4	
876.85	4614.1	
877.01	5245.5	
877.18	3804.4	
877.35	2793.4	
877.52	4792.9	
877.68	4354.7	
877.85	2740.2	
878.02	2746.3	
878.18	4666.6	
878.35	4530.1	
878.52	2316.9	
878.69	2994.1	
878.85	5137.7	
879.02	4915.8	
879.19	3891.8	
879.35	3013.2	
879.52	4994.3	
879.69	5117.9	
879.86	2499.9	
880.02	3080.8	
880.19	4666.6	
880.36	5559.6	
880.52	3137.5	
880.69	3284.3	
880.86	5089.2	
881.02	5077.6	
881.19	3037.8	
881.36	3005.1	
881.52	4955.4	
881.69	4489.1	
881.86	2994.1	
882.02	2927.9	
882.19	5206.6	
882.36	5937.7	
882.52	2826.2	
882.69	3801.7	
882.86	4818.2	
883.02	4816.1	
883.19	3332.7	
883.36	3164.1	
883.52	5056.4	
883.69	5619.6	
883.86	2822.8	
884.02	2572.2	
884.19	4997	
884.36	4687.8	
884.52	3114.3	
884.69	2987.3	
884.86	4538.3	
885.02	5408.7	
885.19	3074.7	
885.36	3188.7	
885.52	4635.9	
885.69	4876.2	
885.86	3969	
886.02	3439.9	
886.19	5037.3	
886.35	4567.7	
886.52	3018.7	
886.69	3771.7	
886.85	4404.5	
887.02	5253.7	
887.19	5253.7	
887.35	5253.7	
887.52	5253.7	
887.68	5253.7	
887.85	5253.7	
888.02	5253.7	
888.18	5253.7	
888.35	5253.7	
888.51	5253.7	
888.68	5253.7	
888.85	5253.7	
889.01	5253.7	
889.18	5253.7	
889.35	5253.7	
889.51	5253.7	
889.68	5253.7	
889.84	5253.7	
890.01	5253.7	
890.17	5253.7	
890.34	5253.7	
890.51	5253.7	
890.67	5253.7	
890.84	5253.7	
891	5253.7	
891.17	5253.7	
891.34	5253.7	
891.5	5253.7	
891.67	5253.7	
891.83	5253.7	
892	5253.7	
892.16	5253.7	
892.33	5253.7	
892.5	5253.7	
892.66	5253.7	
892.83	5253.7	
892.99	5253.7	
893.16	5253.7	
893.32	5253.7	
893.49	5253.7	
893.65	5253.7	
893.82	5253.7	
893.99	5253.7	
894.15	5253.7	
894.32	5253.7	
894.48	5253.7	
894.65	5253.7	
894.81	5253.7	
894.98	5253.7	
895.14	5253.7	
895.31	5253.7	
895.47	5253.7	
895.64	5253.7	
895.81	5253.7	
895.97	5253.7	
896.14	5253.7	
896.3	5253.7	
896.47	5253.7	
896.63	5253.7	
896.8	5253.7	
896.96	5253.7	
897.13	5253.7	
897.29	5253.7	
897.46	5253.7	
897.62	5253.7	
897.79	5253.7	
897.95	5253.7	
898.12	5253.7	
898.28	5253.7	
898.45	5253.7	
898.61	5253.7	
898.78	5253.7	
898.94	5253.7	
899.11	5253.7	
899.27	5253.7	
899.44	5253.7	
899.6	5253.7	
899.77	5253.7	
899.93	5253.7	
900.1	5253.7	
900.26	5253.7	
900.43	5253.7	
900.59	5253.7	
900.76	5253.7	
900.92	5253.7	
901.09	5253.7	
901.25	5253.7	
901.42	5253.7	
901.58	5253.7	
901.75	5253.7	
901.91	5253.7	
902.07	5253.7	
902.24	5253.7	
902.4	5253.7	
902.57	5253.7	
902.73	5253.7	
902.9	5253.7	
903.06	5253.7	
903.23	5253.7	
903.39	5253.7	
903.56	5253.7	
903.72	5253.7	
903.88	5253.7	
904.05	5253.7	
904.21	5253.7	
904.38	5253.7	
904.54	5253.7	
904.71	5253.7	
904.87	5253.7	
905.03	5253.7	
905.2	5253.7	
905.36	5253.7	
905.53	5253.7	
905.69	5253.7	
905.86	5253.7	
906.02	5253.7	
906.18	5253.7	
906.35	5253.7	
906.51	5253.7	
906.68	5253.7	
906.84	5253.7	
907.01	5253.7	
907.17	5253.7	
907.33	5253.7	
907.5	5253.7	
907.66	5253.7	
907.83	5253.7	
907.99	5253.7	
908.15	5253.7	
908.32	5253.7	
908.48	5253.7	
908.65	5253.7	
908.81	5253.7	
908.97	5253.7	
909.14	5253.7	
909.3	5253.7	
909.47	5253.7	
909.63	5253.7	
909.79	5253.7	
909.96	5253.7	
910.12	5253.7	
910.28	5253.7	
910.45	5253.7	
910.61	5253.7	
910.78	5253.7	
910.94	5253.7	
911.1	5253.7	
911.27	5253.7	
911.43	5253.7	
911.59	5253.7	
911.76	5253.7	
911.92	5253.7	
912.08	5253.7	
912.25	5253.7	
912.41	5253.7	
912.57	5253.7	
912.74	5253.7	
912.9	5253.7	
913.07	5253.7	
913.23	5253.7	
913.39	5253.7	
913.56	5253.7	
913.72	5253.7	
913.88	5253.7	
914.05	5253.7	
914.21	5253.7	
914.37	5253.7	
914.54	5253.7	
914.7	5253.7	
914.86	5253.7	
915.03	5253.7	
915.19	5253.7	
