Wavelength	Intensities	
nm	a.u.	
179.22	1940.8	
179.44	1938.1	
179.65	1943.5	
179.86	1932.6	
180.08	1925.1	
180.29	5119.9	
180.51	3591.5	
180.72	5706.3	
180.94	6717.3	
181.15	3330.7	
181.37	3295.2	
181.58	5624.4	
181.79	5948.7	
182.01	3518.4	
182.22	3775.8	
182.44	5900.9	
182.65	4911.7	
182.87	4687.1	
183.08	4160.1	
183.29	6191.7	
183.51	5128.1	
183.72	3766.9	
183.94	5579.3	
184.15	5532.9	
184.37	5581.4	
184.58	3289.7	
184.79	4577.2	
185.01	5076.2	
185.22	5906.3	
185.44	4861.9	
185.65	4040	
185.86	5393	
186.08	4973.2	
186.29	3199.6	
186.51	3506.8	
186.72	5130.8	
186.94	6079.7	
187.15	4016.1	
187.36	4219.5	
187.58	7996	
187.79	5626.5	
188.01	4285.7	
188.22	6767.2	
188.43	6819.7	
188.65	5821	
188.86	3434.4	
189.08	4169.7	
189.29	5335.6	
189.5	5302.9	
189.72	3808.5	
189.93	3936.9	
190.15	6060.6	
190.36	7379.5	
190.57	4265.9	
190.79	4056.3	
191	6247	
191.22	6216.3	
191.43	4257.7	
191.64	3441.3	
191.86	6382.8	
192.07	6133	
192.29	3690.4	
192.5	3851.5	
192.71	6152.8	
192.93	5260.5	
193.14	3809.2	
193.35	3919.8	
193.57	5272.2	
193.78	6110.5	
194	3048.1	
194.21	3715.7	
194.42	5079	
194.64	5530.2	
194.85	4216.1	
195.07	4926.7	
195.28	5585.5	
195.49	4810	
195.71	5214.1	
195.92	3574.4	
196.13	5752.1	
196.35	5862.7	
196.56	5535	
196.78	4144.4	
196.99	7296.9	
197.2	6815.6	
197.42	4807.9	
197.63	4270.7	
197.84	4962.2	
198.06	5763.7	
198.27	3865.9	
198.48	5124.7	
198.7	5345.2	
198.91	5397.1	
199.13	4164.9	
199.34	4171	
199.55	5894.1	
199.77	4807.3	
199.98	3677.5	
200.19	4268.6	
200.41	5433.9	
200.62	5135.6	
200.83	4380.6	
201.05	4671.4	
201.26	5441.5	
201.47	5173.2	
201.69	3691.1	
201.9	3540.9	
202.11	5520.6	
202.33	6582.2	
202.54	4014	
202.76	4427	
202.97	5612.1	
203.18	5634	
203.4	4414.1	
203.61	4293.2	
203.82	5539.8	
204.04	5184.8	
204.25	4261.1	
204.46	4095.3	
204.68	5573.9	
204.89	5784.8	
205.1	4098	
205.32	3526.6	
205.53	5918.6	
205.74	6024.4	
205.96	3034.4	
206.17	4317.8	
206.38	5910.4	
206.6	6068.1	
206.81	4780	
207.02	3889.8	
207.24	5796.4	
207.45	6239.5	
207.66	4014.7	
207.88	3386	
208.09	5785.5	
208.3	5523.4	
208.52	3628.3	
208.73	4027.7	
208.94	5562.3	
209.15	6325.5	
209.37	3999	
209.58	4138.3	
209.79	6123.4	
210.01	5359.5	
210.22	3186.6	
210.43	3338.2	
210.65	5549.3	
210.86	6016.9	
211.07	4029	
211.29	3670.6	
211.5	5973.9	
211.71	5477	
211.93	3603.1	
212.14	3646.1	
212.35	5410.1	
212.56	5741.8	
212.78	4240.7	
212.99	3416.7	
213.2	6601.3	
213.42	5296.7	
213.63	3820.8	
213.84	4049.5	
214.06	4900.1	
214.27	5005.9	
214.48	4040	
214.69	4300.1	
214.91	6201.9	
215.12	6339.8	
215.33	4332.8	
215.55	4752.7	
215.76	6863.4	
215.97	5935.7	
216.18	4180.6	
216.4	3973.7	
216.61	5208	
216.82	6090	
217.04	3690.4	
217.25	3821.5	
217.46	6218.3	
217.67	6008.7	
217.89	3219.4	
218.1	3427.6	
218.31	5658.5	
218.53	5722.7	
218.74	3855	
218.95	3741	
219.16	5481	
219.38	6427.9	
219.59	3789.4	
219.8	4470.7	
220.01	7238.2	
220.23	5571.2	
220.44	4934.2	
220.65	3664.5	
220.87	5564.3	
221.08	6120	
221.29	3353.2	
221.5	4559.5	
221.72	7658	
221.93	5255.8	
222.14	4211.3	
222.35	5000.5	
222.57	5556.8	
222.78	5870.2	
222.99	3958	
223.2	4350.6	
223.42	5841.5	
223.63	5975.3	
223.84	3046	
224.05	3042.6	
224.27	7146.7	
224.48	6501.6	
224.69	4992.3	
224.9	4246.1	
225.12	5778	
225.33	5502.9	
225.54	3325.2	
225.75	3745.1	
225.97	5062.6	
226.18	5393	
226.39	4091.2	
226.6	3777.8	
226.82	5307	
227.03	5143.8	
227.24	4265.2	
227.45	3493.2	
227.67	5869.5	
227.88	6635.4	
228.09	4683	
228.3	4711.7	
228.52	5986.2	
228.73	5509.7	
228.94	3917.1	
229.15	3516.4	
229.36	5420.3	
229.58	5384.1	
229.79	3923.9	
230	4601.1	
230.21	6607.4	
230.43	5577.3	
230.64	4179.2	
230.85	4394.3	
231.06	5946.6	
231.28	5986.9	
231.49	3407.8	
231.7	4030.4	
231.91	5857.2	
232.12	5601.2	
232.34	3545	
232.55	4042	
232.76	6083.1	
232.97	5738.4	
233.18	3675.4	
233.4	4181.3	
233.61	5776	
233.82	5241.4	
234.03	3823.6	
234.25	3790.1	
234.46	7902.4	
234.67	5574.6	
234.88	4274.8	
235.09	3680.9	
235.31	5956.9	
235.52	5444.2	
235.73	4192.9	
235.94	3560.1	
236.15	5253	
236.37	6685.3	
236.58	3728.7	
236.79	4022.9	
237	5834.7	
237.21	5036.6	
237.43	4332.1	
237.64	3453.6	
237.85	10273	
238.06	5041.4	
238.27	4432.5	
238.48	3491.1	
238.7	5871.5	
238.91	5339.7	
239.12	3959.4	
239.33	4094.6	
239.54	5139	
239.76	5458.5	
239.97	3960.8	
240.18	4023.6	
240.39	6985.6	
240.6	5867.4	
240.82	4119.1	
241.03	3362.1	
241.24	5549.3	
241.45	6432	
241.66	3616.7	
241.87	4343.7	
242.09	6355.5	
242.3	6692.8	
242.51	4353.3	
242.72	4031.1	
242.93	6004.6	
243.14	5445.5	
243.36	4706.2	
243.57	5003.9	
243.78	6412.9	
243.99	5909.8	
244.2	4086.4	
244.41	3699.3	
244.63	5073.5	
244.84	5838.8	
245.05	4301.4	
245.26	3965.6	
245.47	5808.7	
245.68	6097.5	
245.9	5446.2	
246.11	4211.3	
246.32	5366.4	
246.53	5790.3	
246.74	6646.3	
246.95	3354.6	
247.16	4972.5	
247.38	5506.3	
247.59	3320.4	
247.8	4034.5	
248.01	5156.1	
248.22	5451	
248.43	3669.3	
248.64	3934.8	
248.86	4885.8	
249.07	5246.2	
249.28	3525.2	
249.49	4081.6	
249.7	6145.3	
249.91	6257.9	
250.12	3332	
250.34	3368.2	
250.55	5685.2	
250.76	5563.6	
250.97	4174.4	
251.18	4259.1	
251.39	6321.4	
251.6	5720.7	
251.81	4275.5	
252.03	4219.5	
252.24	5353.4	
252.45	6110.5	
252.66	3493.8	
252.87	4506.9	
253.08	5573.2	
253.29	7414.3	
253.5	3462.4	
253.72	4917.9	
253.93	5365.7	
254.14	6666.1	
254.35	3828.3	
254.56	3933.5	
254.77	5814.9	
254.98	5108.3	
255.19	3734.1	
255.41	4857.1	
255.62	5660.6	
255.83	6233.3	
256.04	4319.2	
256.25	4234.5	
256.46	6783.6	
256.67	5257.8	
256.88	4210.6	
257.09	4668.7	
257.31	5117.2	
257.52	5180.7	
257.73	5253	
257.94	3800.3	
258.15	5385.5	
258.36	5520.6	
258.57	4845.5	
258.78	2993.4	
258.99	6091.3	
259.2	5374.6	
259.41	3814	
259.63	3934.1	
259.84	6412.9	
260.05	6977.4	
260.26	5060.5	
260.47	3687.7	
260.68	6194.4	
260.89	5451.7	
261.1	4672.8	
261.31	3670	
261.52	6071.5	
261.73	6535.1	
261.95	4979.3	
262.16	4392.2	
262.37	6244.9	
262.58	6357.6	
262.79	4958.8	
263	3872	
263.21	5532.2	
263.42	5027.1	
263.63	3984	
263.84	3882.3	
264.05	6099.5	
264.26	6570.6	
264.47	4820.9	
264.69	4350.6	
264.9	6367.8	
265.11	5750.7	
265.32	3723.2	
265.53	3804.4	
265.74	5624.4	
265.95	4872.8	
266.16	4115.1	
266.37	4536.3	
266.58	5716.6	
266.79	5353.4	
267	3812	
267.21	3555.3	
267.42	5076.2	
267.63	5535	
267.84	3981.3	
268.06	3442.6	
268.27	5943.2	
268.48	6309.8	
268.69	3935.5	
268.9	4681.7	
269.11	6242.2	
269.32	5036	
269.53	4001.7	
269.74	3680.9	
269.95	5864	
270.16	4861.2	
270.37	4000.4	
270.58	4694.6	
270.79	5382.1	
271	6154.1	
271.21	4358.8	
271.42	4104.1	
271.63	5644.2	
271.84	5175.2	
272.05	3240.6	
272.26	3581.2	
272.47	5595.7	
272.68	5769.1	
272.89	3791.5	
273.11	4534.9	
273.32	5417.6	
273.53	6634.1	
273.74	4387.4	
273.95	4292.5	
274.16	6230.6	
274.37	5619.6	
274.58	4384.7	
274.79	3483.6	
275	5685.2	
275.21	6315.9	
275.42	5287.2	
275.63	4556.7	
275.84	5795.8	
276.05	7358.4	
276.26	4281.6	
276.47	4013.3	
276.68	5342.5	
276.89	6576.7	
277.1	4575.8	
277.31	3534.1	
277.52	5818.3	
277.73	5996.5	
277.94	3531.4	
278.15	3863.8	
278.36	5756.8	
278.57	5199.8	
278.78	3847.5	
278.99	4392.9	
279.2	5109.7	
279.41	5104.9	
279.62	5124	
279.83	3586	
280.04	6769.9	
280.25	5005.2	
280.46	5061.9	
280.67	4066.6	
280.88	5144.5	
281.09	6270.9	
281.3	4246.8	
281.51	5332.2	
281.72	6068.8	
281.93	6120	
282.14	3784	
282.35	4005.8	
282.56	6072.9	
282.77	6061.3	
282.98	3873.4	
283.19	4738.3	
283.4	7464.2	
283.61	5413.5	
283.82	3625.6	
284.03	5074.2	
284.24	5639.4	
284.45	6213.5	
284.66	5039.4	
284.87	4784.1	
285.08	6142.5	
285.29	6318.7	
285.5	3416.7	
285.71	3955.3	
285.92	6186.9	
286.12	6871.6	
286.33	4930.1	
286.54	3864.5	
286.75	6079.7	
286.96	5389.6	
287.17	3610.6	
287.38	4897.4	
287.59	5118.6	
287.8	5063.3	
288.01	3947.8	
288.22	4591.5	
288.43	6129.6	
288.64	5016.2	
288.85	4706.9	
289.06	4480.3	
289.27	6057.9	
289.48	6542.6	
289.69	5005.2	
289.9	4565.6	
290.11	6207.4	
290.32	5201.2	
290.53	4831.2	
290.74	4422.9	
290.94	5991.7	
291.15	6072.9	
291.36	3863.8	
291.57	4504.8	
291.78	5272.8	
291.99	4962.9	
292.2	3590.1	
292.41	4457.1	
292.62	6113.9	
292.83	5887.2	
293.04	5478.3	
293.25	3643.3	
293.46	5287.2	
293.67	6226.5	
293.88	3795.6	
294.09	3587.4	
294.29	5007.3	
294.5	5683.8	
294.71	4067.9	
294.92	3880.9	
295.13	5336.3	
295.34	6709.8	
295.55	3386	
295.76	3525.9	
295.97	6001.9	
296.18	6795.2	
296.39	3566.9	
296.6	3773.7	
296.81	5696.1	
297.01	5908.4	
297.22	3954.6	
297.43	3720.5	
297.64	5154.7	
297.85	5154.7	
298.06	3113.6	
298.27	3408.5	
298.48	5584.8	
298.69	5225.7	
298.9	4038.6	
299.11	3728	
299.31	5047.6	
299.52	5033.9	
299.73	4400.4	
299.94	4283	
300.15	5509	
300.36	5154.7	
300.57	4320.5	
300.78	4293.2	
300.99	5387.5	
301.2	5730.9	
301.4	3741.6	
301.61	4062.5	
301.82	5846.3	
302.03	6001.9	
302.24	4632.5	
302.45	3551.2	
302.66	5887.9	
302.87	6355.5	
303.08	3810.6	
303.29	5177.3	
303.49	5216.2	
303.7	5597.8	
303.91	3386	
304.12	4933.6	
304.33	5053	
304.54	5664	
304.75	3862.5	
304.96	3627.6	
305.16	5849	
305.37	6670.9	
305.58	3282.2	
305.79	3478.8	
306	5924.1	
306.21	4934.9	
306.42	3732.1	
306.63	5802.6	
306.83	5443.5	
307.04	6195.1	
307.25	4184	
307.46	4157.4	
307.67	4742.4	
307.88	6039.5	
308.09	3710.9	
308.29	3902.7	
308.5	5709.1	
308.71	6233.3	
308.92	4071.4	
309.13	3623.5	
309.34	5399.8	
309.55	5441.5	
309.75	4734.2	
309.96	4316.4	
310.17	5957.5	
310.38	5224.4	
310.59	4545.8	
310.8	4252.3	
311.01	5363.6	
311.21	5416.9	
311.42	3605.8	
311.63	3744.4	
311.84	5279.7	
312.05	5700.2	
312.26	4216.1	
312.46	4643.4	
312.67	5348.6	
312.88	5091.9	
313.09	3646.7	
313.3	3559.4	
313.51	6396.5	
313.71	6789.7	
313.92	3605.8	
314.13	3845.4	
314.34	5771.2	
314.55	5429.8	
314.76	4747.2	
314.96	4101.4	
315.17	5581.4	
315.38	6044.2	
315.59	3660.4	
315.8	3501.3	
316.01	6455.2	
316.21	6557.6	
316.42	3531.4	
316.63	4033.8	
316.84	5436.7	
317.05	6335.1	
317.26	4298	
317.46	3882.9	
317.67	5515.2	
317.88	5938.4	
318.09	4704.2	
318.3	3325.9	
318.5	5212.8	
318.71	5898.8	
318.92	5993.7	
319.13	4298	
319.34	6066.8	
319.54	6300.9	
319.75	3420.1	
319.96	3262.4	
320.17	5935.7	
320.38	6223.8	
320.58	3323.2	
320.79	4017.4	
321	6169.2	
321.21	6228.6	
321.42	4022.9	
321.62	3289	
321.83	5111.7	
322.04	5518.6	
322.25	3870	
322.46	3661.1	
322.66	5616.2	
322.87	5847.6	
323.08	4595.6	
323.29	3583.9	
323.5	6692.1	
323.7	5107	
323.91	4983.4	
324.12	4466.6	
324.33	5614.8	
324.53	5786.9	
324.74	4335.5	
324.95	4512.4	
325.16	4872.1	
325.37	5344.5	
325.57	3690.4	
325.78	3689.1	
325.99	5711.1	
326.2	5053	
326.4	5343.2	
326.61	3416	
326.82	5469.4	
327.03	5627.1	
327.24	5238	
327.44	5037.3	
327.65	5825.1	
327.86	4724	
328.07	4351.9	
328.27	3474	
328.48	6279.1	
328.69	5155.4	
328.9	5314.5	
329.1	3969	
329.31	5422.3	
329.52	6503	
329.73	3609.9	
329.93	4158.1	
330.14	5530.9	
330.35	5873.6	
330.56	6166.4	
330.76	4504.8	
330.97	5435.3	
331.18	5720	
331.39	4118.5	
331.59	3314.3	
331.8	6137.1	
332.01	6319.3	
332.22	3766.9	
332.42	4326.7	
332.63	5659.2	
332.84	5239.4	
333.05	4143.7	
333.25	3742.3	
333.46	5314.5	
333.67	5599.8	
333.88	3849.5	
334.08	4269.3	
334.29	7453.9	
334.5	6282.5	
334.7	3549.8	
334.91	5302.9	
335.12	5066.7	
335.33	6020.3	
335.53	4072	
335.74	6081.1	
335.95	5340.4	
336.16	5201.8	
336.36	4182.6	
336.57	4737.6	
336.78	5041.4	
336.98	6209.4	
337.19	5056.4	
337.4	3986.7	
337.61	6765.8	
337.81	5069.4	
338.02	3748.5	
338.23	4903.5	
338.43	6412.9	
338.64	5173.9	
338.85	3623.5	
339.05	4845.5	
339.26	6486.6	
339.47	4965	
339.68	3719.8	
339.88	5507	
340.09	5789.6	
340.3	6068.1	
340.5	4339.6	
340.71	3246.7	
340.92	5012.1	
341.13	6298.9	
341.33	3597.6	
341.54	4373.8	
341.75	5775.3	
341.95	5397.1	
342.16	4141	
342.37	4506.9	
342.57	5107.6	
342.78	5498.1	
342.99	4637.3	
343.19	3315.7	
343.4	5950.7	
343.61	5876.3	
343.81	3917.8	
344.02	3639.9	
344.23	6013.5	
344.43	6460.7	
344.64	4497.3	
344.85	4415.4	
345.06	5840.1	
345.26	6139.8	
345.47	4238.6	
345.68	5016.2	
345.88	4856.4	
346.09	6059.9	
346.3	4311.7	
346.5	3263.8	
346.71	5547.3	
346.92	5212.8	
347.12	3343	
347.33	4257.7	
347.54	6146	
347.74	6582.2	
347.95	4252.9	
348.16	3067.2	
348.36	5365	
348.57	5156.1	
348.78	4222.9	
348.98	4470.7	
349.19	5449.6	
349.39	4978.6	
349.6	3392.8	
349.81	3674.7	
350.01	5810.1	
350.22	5245.5	
350.43	4003.1	
350.63	4952.7	
350.84	5603.9	
351.05	5322	
351.25	3661.1	
351.46	3307.5	
351.67	6175.3	
351.87	5225.7	
352.08	3919.8	
352.29	4433.2	
352.49	5998.5	
352.7	6164.4	
352.9	3568.2	
353.11	4459.1	
353.32	6747.4	
353.52	5347.9	
353.73	3508.2	
353.94	4468.7	
354.14	5837.4	
354.35	5704.3	
354.55	3566.2	
354.76	3990.1	
354.97	5802.6	
355.17	5554.8	
355.38	3359.4	
355.59	4818.9	
355.79	5196.4	
356	5689.3	
356.2	3975.8	
356.41	3472	
356.62	4874.2	
356.82	5397.1	
357.03	4280.3	
357.24	3870	
357.44	5253.7	
357.65	5296	
357.85	5191.6	
358.06	4007.2	
358.27	4897.4	
358.47	5174.5	
358.68	3338.9	
358.88	4242	
359.09	5717.2	
359.3	6234	
359.5	5014.8	
359.71	4351.9	
359.91	6606.7	
360.12	5957.5	
360.33	4212.7	
360.53	4688.5	
360.74	5145.2	
360.94	5246.9	
361.15	4437.9	
361.36	3637.2	
361.56	5938.4	
361.77	5412.8	
361.97	4910.3	
362.18	3891.8	
362.38	6020.3	
362.59	5000.5	
362.8	3486.3	
363	3368.9	
363.21	4797	
363.41	5513.1	
363.62	4128	
363.83	5216.2	
364.03	5538.4	
364.24	6584.2	
364.44	5185.5	
364.65	5083.7	
364.85	5283.1	
365.06	4964.3	
365.27	3667.2	
365.47	3717.7	
365.68	6351.4	
365.88	5244.8	
366.09	4067.9	
366.29	3768.3	
366.5	5539.8	
366.71	6036	
366.91	5141.1	
367.12	4237.2	
367.32	6618.4	
367.53	5863.3	
367.73	4113.7	
367.94	5233.9	
368.14	5807.4	
368.35	6782.9	
368.56	4193.6	
368.76	3512.3	
368.97	5939.1	
369.17	7725.6	
369.38	3609.9	
369.58	3950.5	
369.79	4910.3	
369.99	6242.2	
370.2	5016.8	
370.4	4046.8	
370.61	5596.4	
370.82	6803.4	
371.02	3906.8	
371.23	3197.6	
371.43	4724.7	
371.64	6147.3	
371.84	3870.7	
372.05	5185.5	
372.25	7566.6	
372.46	5918.6	
372.66	3882.9	
372.87	3846.1	
373.07	5919.3	
373.28	7626	
373.48	4954	
373.69	4612.7	
373.9	5316.5	
374.1	5324.7	
374.31	4880.3	
374.51	4405.9	
374.72	6229.9	
374.92	4992.3	
375.13	5066.7	
375.33	4209.3	
375.54	5687.9	
375.74	5087.2	
375.95	4247.5	
376.15	5563	
376.36	5643.5	
376.56	5510.4	
376.77	4279.6	
376.97	4818.2	
377.18	6756.9	
377.38	5752.7	
377.59	5158.2	
377.79	3664.5	
378	5524.7	
378.2	5986.2	
378.41	3794.9	
378.61	3607.8	
378.82	6049.7	
379.02	5076.2	
379.23	3883.6	
379.43	5165	
379.64	6054.5	
379.84	5698.8	
380.05	3780.6	
380.25	3671.3	
380.46	5863.3	
380.66	5345.9	
380.87	5184.8	
381.07	5568.4	
381.28	6478.4	
381.48	5792.3	
381.69	3824.2	
381.89	3852.9	
382.1	4727.4	
382.3	6017.6	
382.51	4992.3	
382.71	5854.5	
382.91	5894.1	
383.12	6441.5	
383.32	4194.9	
383.53	4418.8	
383.73	5646.9	
383.94	5418.2	
384.14	4378.6	
384.35	3429	
384.55	5430.5	
384.76	5884.5	
384.96	4175.8	
385.17	4588.1	
385.37	5839.4	
385.58	5128.8	
385.78	4511	
385.98	3304.7	
386.19	5322	
386.39	5762.3	
386.6	3910.9	
386.8	4201.7	
387.01	5825.1	
387.21	5848.3	
387.42	4663.9	
387.62	5199.8	
387.83	5077.6	
388.03	5873.6	
388.23	4179.9	
388.44	5067.4	
388.64	4693.3	
388.85	4859.1	
389.05	4564.9	
389.26	5236.7	
389.46	6798.6	
389.67	6208.8	
389.87	4469.4	
390.07	4590.2	
390.28	5429.2	
390.48	4960.9	
390.69	3673.4	
390.89	3996.3	
391.1	5137.7	
391.3	6189.6	
391.5	5325.4	
391.71	5954.1	
391.91	5838.1	
392.12	6929	
392.32	5339.7	
392.53	4586.8	
392.73	5281	
392.93	5419.6	
393.14	4191.5	
393.34	5053	
393.55	5989.6	
393.75	5408.7	
393.95	4192.9	
394.16	4159.4	
394.36	5124.7	
394.57	5837.4	
394.77	3610.6	
394.98	4107.5	
395.18	5100.8	
395.38	5258.5	
395.59	5035.3	
395.79	3880.2	
396	5206.6	
396.2	5630.5	
396.4	4765.6	
396.61	4633.2	
396.81	5892	
397.02	5061.2	
397.22	4892.6	
397.42	4976.6	
397.63	5811.5	
397.83	4954	
398.04	3770.3	
398.24	4264.6	
398.44	5626.5	
398.65	4595	
398.85	3551.9	
399.05	3672.7	
399.26	4952.7	
399.46	6836.1	
399.67	4014	
399.87	3809.2	
400.07	5228.5	
400.28	5712.5	
400.48	3863.8	
400.69	5075.5	
400.89	5984.2	
401.09	6393.1	
401.3	3701.4	
401.5	4988.2	
401.7	6578.1	
401.91	6905.1	
402.11	4090.5	
402.32	4409.3	
402.52	5918.6	
402.72	5856.5	
402.93	4618.2	
403.13	3434.4	
403.33	6799.3	
403.54	5431.9	
403.74	4304.8	
403.94	5347.9	
404.15	5572.5	
404.35	6726.2	
404.56	4104.8	
404.76	6040.8	
404.96	5887.9	
405.17	5737.7	
405.37	5477.6	
405.57	4585.4	
405.78	6072.9	
405.98	5413.5	
406.18	4853	
406.39	5066.7	
406.59	5913.9	
406.79	5539.8	
407	3829.7	
407.2	3966.2	
407.4	5923.4	
407.61	6151.4	
407.81	3910.3	
408.01	6039.5	
408.22	4802.5	
408.42	6823.8	
408.62	4981.3	
408.83	4364.9	
409.03	5354.8	
409.23	5138.4	
409.44	4440.7	
409.64	4767.7	
409.84	6266.1	
410.05	6137.8	
410.25	4440.7	
410.45	4245.4	
410.66	5463.3	
410.86	8122.2	
411.06	4543.1	
411.27	4458.4	
411.47	7840.3	
411.67	5606	
411.88	4716.5	
412.08	4997	
412.28	6324.8	
412.49	6873	
412.69	4329.4	
412.89	4433.9	
413.09	6608.8	
413.3	6388.3	
413.5	4489.1	
413.7	3946.4	
413.91	5670.1	
414.11	6596.5	
414.31	4295.3	
414.52	4668.7	
414.72	6246.3	
414.92	6020.3	
415.12	4317.1	
415.33	4833.9	
415.53	6495.5	
415.73	6637.5	
415.94	5230.5	
416.14	4520.5	
416.34	5320.6	
416.55	5132.2	
416.75	5865.4	
416.95	5216.9	
417.15	6366.5	
417.36	7222.5	
417.56	5968.5	
417.76	5004.6	
417.97	6820.4	
418.17	6388.3	
418.37	4515.8	
418.57	4612	
418.78	6190.3	
418.98	5881.1	
419.18	5568.4	
419.38	5473.5	
419.59	6008.1	
419.79	5527.5	
419.99	4455.7	
420.2	4895.3	
420.4	6464.8	
420.6	6744	
420.8	4386.7	
421.01	4272.1	
421.21	6234.7	
421.41	6477.7	
421.61	4872.1	
421.82	4553.3	
422.02	5750	
422.22	6771.3	
422.42	5321.3	
422.63	4982	
422.83	5872.9	
423.03	7145.4	
423.23	5028.4	
423.44	3939.6	
423.64	6004.6	
423.84	5813.5	
424.04	4408.6	
424.25	4101.4	
424.45	7080.5	
424.65	6980.8	
424.85	3839.3	
425.06	4506.9	
425.26	6898.2	
425.46	5510.4	
425.66	5051.7	
425.87	4742.4	
426.07	6744.6	
426.27	6556.2	
426.47	4878.3	
426.67	4226.3	
426.88	7030.7	
427.08	6455.2	
427.28	5059.8	
427.48	4128	
427.69	5322	
427.89	6113.9	
428.09	5097.4	
428.29	4199.7	
428.5	6806.8	
428.7	6194.4	
428.9	4059.1	
429.1	4702.1	
429.3	6206.7	
429.51	6664.8	
429.71	4388.8	
429.91	5156.8	
430.11	6439.5	
430.31	7077.8	
430.52	4706.2	
430.72	4978.6	
430.92	7101.7	
431.12	6464.8	
431.32	4313	
431.53	4772.4	
431.73	5329.5	
431.93	7146	
432.13	4271.4	
432.33	4073.4	
432.54	5817.6	
432.74	6214.2	
432.94	3949.8	
433.14	5130.2	
433.34	6334.4	
433.55	5741.8	
433.75	5072.8	
433.95	6819.7	
434.15	6135	
434.35	5771.2	
434.56	4225	
434.76	3585.3	
434.96	6090.7	
435.16	6261.3	
435.36	4037.2	
435.56	5250.3	
435.77	5639.4	
435.97	5831.2	
436.17	5937.7	
436.37	5142.4	
436.57	5659.9	
436.78	5498.8	
436.98	5727.5	
437.18	5771.2	
437.38	6337.1	
437.58	5877.7	
437.78	5950	
437.99	4545.8	
438.19	6587	
438.39	7301.7	
438.59	4446.8	
438.79	3857	
438.99	7175.4	
439.2	5851.7	
439.4	4030.4	
439.6	4014	
439.8	6189.6	
440	7334.5	
440.2	5064.6	
440.4	5124.7	
440.61	6479.8	
440.81	7098.9	
441.01	4149.9	
441.21	5096	
441.41	6824.5	
441.61	6562.4	
441.81	5345.2	
442.02	6384.9	
442.22	7423.2	
442.42	6572.6	
442.62	4074.1	
442.82	4294.6	
443.02	6885.3	
443.22	5994.4	
443.43	4612.7	
443.63	4188.1	
443.83	5776	
444.03	5819.6	
444.23	5399.1	
444.43	5049.6	
444.63	6071.5	
444.83	7387.7	
445.04	4163.5	
445.24	5685.2	
445.44	6470.9	
445.64	6576.7	
445.84	5164.3	
446.04	5186.1	
446.24	5823.7	
446.44	6980.2	
446.65	4352.6	
446.85	4737	
447.05	6018.3	
447.25	6891.4	
447.45	4778.6	
447.65	4134.2	
447.85	6193.7	
448.05	5891.3	
448.25	5260.5	
448.46	5100.8	
448.66	6196.5	
448.86	5910.4	
449.06	3920.5	
449.26	5305.6	
449.46	6587.6	
449.66	5560.2	
449.86	4666	
450.06	4682.3	
450.26	5778	
450.47	6285.9	
450.67	4974.5	
450.87	5330.2	
451.07	6451.8	
451.27	6217	
451.47	4244.8	
451.67	4788.8	
451.87	5814.9	
452.07	7159	
452.27	4492.6	
452.47	4486.4	
452.67	6214.2	
452.88	6751.5	
453.08	3812	
453.28	5928.9	
453.48	7357.7	
453.68	6172.6	
453.88	4282.3	
454.08	4589.5	
454.28	6481.8	
454.48	6156.2	
454.68	5169.8	
454.88	5699.5	
455.08	6633.4	
455.28	6183.5	
455.48	4198.3	
455.68	4840.7	
455.89	7058	
456.09	6733	
456.29	4506.9	
456.49	4516.5	
456.69	6850.5	
456.89	6124.1	
457.09	5068	
457.29	5361.6	
457.49	6428.6	
457.69	6517.3	
457.89	4745.8	
458.09	4201.1	
458.29	6094.8	
458.49	6832.7	
458.69	5214.1	
458.89	4620.9	
459.09	7062.1	
459.29	7321.5	
459.49	4782.7	
459.69	5540.4	
459.9	6667.5	
460.1	6075.6	
460.3	4648.2	
460.5	4376.5	
460.7	6605.4	
460.9	6308.4	
461.1	3945.8	
461.3	5320.6	
461.5	7266.2	
461.7	6875	
461.9	4350.6	
462.1	4854.4	
462.3	6097.5	
462.5	6799.9	
462.7	4341	
462.9	4481	
463.1	7972.1	
463.3	7429.3	
463.5	4625	
463.7	5578.7	
463.9	6339.8	
464.1	6780.1	
464.3	4695.3	
464.5	5111.7	
464.7	6987	
464.9	6541.9	
465.1	6375.3	
465.3	5294	
465.5	7349.5	
465.7	7253.9	
465.9	5563.6	
466.1	5558.2	
466.3	7025.2	
466.5	6901.7	
466.7	6267.5	
466.9	5101.5	
467.1	6724.2	
467.3	7798	
467.5	6122.1	
467.7	4948.6	
467.9	7973.4	
468.1	8950.3	
468.3	5914.5	
468.5	6235.4	
468.7	6703.7	
468.9	6779.5	
469.1	5266	
469.3	5977.3	
469.5	8731.9	
469.7	6225.1	
469.9	5831.2	
470.1	5020.3	
470.3	6692.8	
470.5	6705	
470.7	6358.9	
470.9	5131.5	
471.1	6410.1	
471.3	6974.7	
471.5	4878.3	
471.69	6972.7	
471.89	6369.9	
472.09	5868.8	
472.29	5786.2	
472.49	6285.9	
472.69	6013.5	
472.89	7079.8	
473.09	4797	
473.29	4965	
473.49	6292	
473.69	6509.1	
473.89	6039.5	
474.09	5106.3	
474.29	7847.8	
474.49	7527.7	
474.69	5988.3	
474.89	5378	
475.09	6574.7	
475.29	6419	
475.49	4788.2	
475.69	4970.4	
475.88	8284	
476.08	6793.8	
476.28	4622.3	
476.48	5253	
476.68	7295.5	
476.88	7284.6	
477.08	5010	
477.28	5376.6	
477.48	6734.4	
477.68	7451.9	
477.88	4895.3	
478.08	5203.2	
478.28	7597.3	
478.48	6826.6	
478.67	5175.9	
478.87	4690.5	
479.07	7498.3	
479.27	6961.7	
479.47	5541.8	
479.67	5450.3	
479.87	7312.6	
480.07	7847.1	
480.27	4714.4	
480.47	6516.6	
480.67	6974	
480.87	7561.8	
481.06	4992.3	
481.26	5850.4	
481.46	6858	
481.66	6830	
481.86	5435.3	
482.06	6620.4	
482.26	6603.3	
482.46	7693.5	
482.66	5397.8	
482.86	4948.6	
483.05	6831.3	
483.25	6337.1	
483.45	8015.1	
483.65	5414.1	
483.85	6425.8	
484.05	6842.9	
484.25	5819	
484.45	6348	
484.65	7755.7	
484.84	7617.1	
485.04	5248.9	
485.24	5282.4	
485.44	7944.8	
485.64	6179.4	
485.84	4457.1	
486.04	6029.9	
486.24	6616.3	
486.44	7049.1	
486.63	4425	
486.83	5342.5	
487.03	6309.1	
487.23	6664.8	
487.43	4541.7	
487.63	7082.6	
487.83	6652.5	
488.02	7671	
488.22	5549.3	
488.42	6227.2	
488.62	7598	
488.82	6469.5	
489.02	5233.2	
489.22	5206.6	
489.41	7445	
489.61	7066.2	
489.81	4907.6	
490.01	4982.7	
490.21	7408.2	
490.41	8033.5	
490.61	4690.5	
490.8	5061.9	
491	6851.1	
491.2	6210.8	
491.4	5712.5	
491.6	4763.6	
491.8	6862.7	
491.99	7051.2	
492.19	4608.6	
492.39	4999.1	
492.59	7368.6	
492.79	7387	
492.99	5844.2	
493.18	4872.8	
493.38	7470.3	
493.58	8127	
493.78	5568.4	
493.98	5166.3	
494.18	7055.3	
494.37	6457.2	
494.57	5724.1	
494.77	5646.2	
494.97	7154.9	
495.17	7477.1	
495.37	5089.2	
495.56	5486.5	
495.76	7603.4	
495.96	7316	
496.16	6465.4	
496.36	5275.6	
496.55	7439.6	
496.75	6894.8	
496.95	5703.6	
497.15	5509.7	
497.35	7391.8	
497.54	7363.8	
497.74	5292	
497.94	7064.1	
498.14	8060.1	
498.34	7950.9	
498.53	4862.6	
498.73	5813.5	
498.93	6612.9	
499.13	7306.5	
499.33	5481.7	
499.52	6141.2	
499.72	7187.7	
499.92	7628.7	
500.12	5126.7	
500.32	5430.5	
500.51	7542.7	
500.71	7246.4	
500.91	6296.1	
501.11	5871.5	
501.31	7420.5	
501.5	7933.8	
501.7	6593.1	
501.9	5521.3	
502.1	7225.2	
502.29	7533.1	
502.49	6006	
502.69	6501.6	
502.89	7479.2	
503.09	7452.6	
503.28	5014.8	
503.48	5154.1	
503.68	6654.5	
503.88	6804.7	
504.07	6177.4	
504.27	5691.3	
504.47	7072.3	
504.67	7342	
504.86	6099.5	
505.06	5792.3	
505.26	6861.4	
505.46	8789.2	
505.65	5696.8	
505.85	6021.7	
506.05	6762.4	
506.25	7329.7	
506.44	5066	
506.64	6162.3	
506.84	6711.9	
507.04	7837.6	
507.23	5300.1	
507.43	5890.6	
507.63	8940.1	
507.83	6979.5	
508.02	5986.2	
508.22	5543.9	
508.42	9200.2	
508.62	6827.2	
508.81	5874.9	
509.01	6391	
509.21	6678.4	
509.4	6883.9	
509.6	6029.9	
509.8	5311.7	
510	6919.4	
510.19	8585.1	
510.39	5332.2	
510.59	5428.5	
510.79	6791.1	
510.98	8176.2	
511.18	5459.2	
511.38	5599.1	
511.57	7659.4	
511.77	7458.7	
511.97	6291.4	
512.17	5248.3	
512.36	7578.8	
512.56	7666.9	
512.76	5318.6	
512.95	5087.8	
513.15	7746.1	
513.35	6234	
513.55	6326.9	
513.74	5328.8	
513.94	7666.9	
514.14	7026.6	
514.33	6263.4	
514.53	6141.9	
514.73	6944.7	
514.92	7167.9	
515.12	5504.3	
515.32	5294.7	
515.51	7258	
515.71	7931.1	
515.91	7174	
516.11	5330.9	
516.3	9090.3	
516.5	6806.1	
516.7	5978.7	
516.89	6580.8	
517.09	6976.7	
517.29	6835.4	
517.48	6275.7	
517.68	5658.5	
517.88	6716.7	
518.07	7322.9	
518.27	6192.4	
518.47	5135.6	
518.66	7951.6	
518.86	6564.4	
519.06	4973.2	
519.25	5455.1	
519.45	6881.2	
519.65	8493.6	
519.84	6196.5	
520.04	6884.6	
520.24	8885.5	
520.43	7626	
520.63	5874.3	
520.83	5571.2	
521.02	6689.3	
521.22	7492.2	
521.42	6216.3	
521.61	6747.4	
521.81	7008.8	
522.01	7170.6	
522.2	6059.9	
522.4	5745.2	
522.6	7681.9	
522.79	6343.2	
522.99	5847	
523.18	4995	
523.38	7303.1	
523.58	7236.2	
523.77	7088	
523.97	4915.8	
524.17	9277.3	
524.36	8403.5	
524.56	6397.2	
524.76	6081.8	
524.95	7206.1	
525.15	6905.8	
525.34	5745.2	
525.54	5722	
525.74	7560.4	
525.93	6523.5	
526.13	6948.1	
526.33	5726.1	
526.52	7954.3	
526.72	7232.7	
526.91	6929.6	
527.11	6109.1	
527.31	7963.2	
527.5	8338.6	
527.7	5978	
527.89	4991.6	
528.09	6655.9	
528.29	7261.4	
528.48	6511.9	
528.68	6030.6	
528.87	7669.6	
529.07	7798.7	
529.27	5925.5	
529.46	5514.5	
529.66	7362.4	
529.85	7787.7	
530.05	5303.6	
530.25	6235.4	
530.44	8884.1	
530.64	7277.1	
530.83	5689.9	
531.03	6009.4	
531.23	7641	
531.42	7631.4	
531.62	6709.1	
531.81	5844.9	
532.01	7717.4	
532.21	8328.4	
532.4	5483.8	
532.6	5904.3	
532.79	8723	
532.99	7783	
533.18	5908.4	
533.38	7073	
533.58	7173.4	
533.77	8120.9	
533.97	5811.5	
534.16	6718.7	
534.36	8204.8	
534.55	7190.4	
534.75	6859.3	
534.95	5885.9	
535.14	8060.8	
535.34	7330.4	
535.53	5618.3	
535.73	7712.7	
535.92	8734.6	
536.12	7510.6	
536.31	5659.9	
536.51	6981.5	
536.71	7763.2	
536.9	7363.1	
537.1	5887.2	
537.29	6038.8	
537.49	8243.1	
537.68	7266.9	
537.88	6434	
538.07	5555.5	
538.27	7429.3	
538.46	8527.7	
538.66	5402.5	
538.86	5832.6	
539.05	7503.8	
539.25	8051.2	
539.44	6292	
539.64	5830.6	
539.83	7392.5	
540.03	8447.9	
540.22	5629.9	
540.42	5876.3	
540.61	7732.4	
540.81	7734.5	
541	6357.6	
541.2	7003.4	
541.39	7185	
541.59	7632.1	
541.78	6653.9	
541.98	5842.2	
542.18	6881.9	
542.37	6806.8	
542.57	6239.5	
542.76	6783.6	
542.96	7025.2	
543.15	7757.7	
543.35	6325.5	
543.54	5625.1	
543.74	8157.7	
543.93	7673.7	
544.13	6283.9	
544.32	7436.9	
544.52	8044.4	
544.71	7152.9	
544.91	5289.2	
545.1	6690	
545.3	7202	
545.49	7985	
545.69	5330.9	
545.88	5986.9	
546.08	8915.5	
546.27	8498.4	
546.47	6543.9	
546.66	5730.2	
546.86	8146.8	
547.05	8916.2	
547.24	5969.8	
547.44	5792.3	
547.63	7036.8	
547.83	8336.6	
548.02	6253.8	
548.22	6466.1	
548.41	6821.8	
548.61	8290.2	
548.8	5756.2	
549	5704.3	
549.19	7516	
549.39	7937.9	
549.58	5486.5	
549.78	6041.5	
549.97	8058.8	
550.17	7464.8	
550.36	7032.7	
550.55	8089.5	
550.75	7549.5	
550.94	8481.3	
551.14	5709.7	
551.33	6146	
551.53	6780.8	
551.72	7875.8	
551.92	6201.9	
552.11	5946.6	
552.31	7911.3	
552.5	8030.1	
552.69	7746.8	
552.89	5582.8	
553.08	7901.1	
553.28	7549.5	
553.47	5926.8	
553.67	7135.8	
553.86	8581.7	
554.06	6810.2	
554.25	5137	
554.44	5758.2	
554.64	9358.5	
554.83	8937.3	
555.03	5760.9	
555.22	6239.5	
555.42	8125.7	
555.61	7813.7	
555.8	5929.6	
556	6262	
556.19	6880.5	
556.39	8253.3	
556.58	5990.3	
556.78	6034.7	
556.97	7699	
557.16	7436.2	
557.36	7311.2	
557.55	5599.1	
557.75	6657.3	
557.94	8449.2	
558.13	5749.3	
558.33	5517.2	
558.52	8314.8	
558.72	7151.5	
558.91	5653.8	
559.1	5873.6	
559.3	6793.1	
559.49	6594.5	
559.69	5190.2	
559.88	6309.1	
560.07	7690.1	
560.27	8224	
560.46	6468.9	
560.66	6694.1	
560.85	7475.8	
561.04	6674.3	
561.24	5618.9	
561.43	5905.7	
561.63	6920.1	
561.82	7271	
562.01	7144.7	
562.21	6205.3	
562.4	7705.8	
562.59	8791.2	
562.79	5991.7	
562.98	5636	
563.18	7555	
563.37	9084.1	
563.56	6555.5	
563.76	5543.2	
563.95	7042.3	
564.14	6953.5	
564.34	5963	
564.53	5709.1	
564.73	7591.1	
564.92	8026	
565.11	6128.2	
565.31	5421.7	
565.5	8110.6	
565.69	7163.8	
565.89	5690.6	
566.08	6016.9	
566.27	8006.2	
566.47	8455.4	
566.66	6647.7	
566.85	5223.7	
567.05	7588.4	
567.24	7004.1	
567.44	5606.7	
567.63	7098.9	
567.82	7886	
568.02	7584.3	
568.21	5571.8	
568.4	6091.3	
568.6	7423.2	
568.79	7460.8	
568.98	5359.5	
569.18	5586.2	
569.37	7423.2	
569.56	9581.8	
569.76	6040.1	
569.95	7034.1	
570.14	7832.8	
570.34	7733.1	
570.53	5454.4	
570.72	5481.7	
570.91	8351.6	
571.11	7405.5	
571.3	6031.3	
571.49	6942.6	
571.69	7458	
571.88	6937.2	
572.07	6532.3	
572.27	6597.2	
572.46	6961	
572.65	8090.2	
572.85	5715.2	
573.04	6072.2	
573.23	8275.8	
573.43	7464.8	
573.62	5416.9	
573.81	6079.1	
574	7469.6	
574.2	7320.8	
574.39	5818.3	
574.58	6018.3	
574.78	8408.3	
574.97	7607.5	
575.16	6373.3	
575.36	6543.3	
575.55	7921.5	
575.74	8137.9	
575.93	5445.5	
576.13	6541.9	
576.32	7352.9	
576.51	7887.4	
576.71	5819	
576.9	7310.6	
577.09	8329.1	
577.28	7843	
577.48	6322.1	
577.67	5274.9	
577.86	7444.4	
578.05	7706.5	
578.25	5879.7	
578.44	6053.1	
578.63	7487.4	
578.83	8761.9	
579.02	5341.8	
579.21	7002.7	
579.4	7787.7	
579.6	7324.9	
579.79	6181.5	
579.98	8462.9	
580.17	8048.5	
580.37	8127	
580.56	5595.1	
580.75	6386.9	
580.94	8642.4	
581.14	8467	
581.33	6902.3	
581.52	5693.4	
581.71	7901.1	
581.91	8644.5	
582.1	5323.4	
582.29	6025.8	
582.48	7518.8	
582.68	7442.3	
582.87	6550.1	
583.06	6092.7	
583.25	7841.7	
583.45	7174	
583.64	6753.5	
583.83	7519.5	
584.02	7311.9	
584.21	7792.5	
584.41	6840.2	
584.6	5982.1	
584.79	7552.2	
584.98	8419.9	
585.18	5483.8	
585.37	5485.1	
585.56	7054.6	
585.75	7871.7	
585.94	5804.6	
586.14	6458.6	
586.33	8527.7	
586.52	7561.8	
586.71	6259.3	
586.91	5958.9	
587.1	6983.6	
587.29	7983.7	
587.48	6125.5	
587.67	5844.9	
587.87	7881.9	
588.06	8030.1	
588.25	7360.4	
588.44	6619.7	
588.63	7639.6	
588.83	8243.1	
589.02	5997.8	
589.21	5976	
589.4	7417.1	
589.59	7334.5	
589.78	5272.2	
589.98	5560.2	
590.17	7019.1	
590.36	7586.4	
590.55	4979.3	
590.74	5870.8	
590.94	9103.2	
591.13	7567.9	
591.32	5625.1	
591.51	5212.8	
591.7	8038.3	
591.89	7499.7	
592.09	5270.1	
592.28	5794.4	
592.47	6658.6	
592.66	8656.8	
592.85	5216.9	
593.05	5505.6	
593.24	7318.1	
593.43	8119.5	
593.62	5496.7	
593.81	6085.9	
594	7348.1	
594.19	7576.1	
594.39	5470.1	
594.58	5375.2	
594.77	7678.5	
594.96	8335.2	
595.15	5365	
595.34	6101.6	
595.54	7789.1	
595.73	6784.9	
595.92	4770.4	
596.11	6078.4	
596.3	8298.4	
596.49	6883.9	
596.68	5762.3	
596.88	6186.9	
597.07	7976.8	
597.26	6636.8	
597.45	5246.2	
597.64	6488.6	
597.83	7000	
598.02	7682.6	
598.22	5366.4	
598.41	6085.2	
598.6	7454.6	
598.79	6825.2	
598.98	5388.2	
599.17	6339.1	
599.36	7429.3	
599.55	8728.4	
599.74	7518.8	
599.94	7300.3	
600.13	8055.3	
600.32	6784.9	
600.51	5076.9	
600.7	5177.9	
600.89	8815.8	
601.08	8755.1	
601.27	4975.2	
601.47	6058.6	
601.66	7932.5	
601.85	8748.2	
602.04	5741.1	
602.23	6090	
602.42	6858.6	
602.61	7569.3	
602.8	5606.7	
602.99	5358.2	
603.18	7257.3	
603.37	7546.1	
603.57	6058.6	
603.76	6695.5	
603.95	8368.7	
604.14	7871.7	
604.33	5526.8	
604.52	5880.4	
604.71	7520.8	
604.9	7087.3	
605.09	6489.3	
605.28	6285.9	
605.47	8070.4	
605.66	7782.3	
605.86	6070.2	
606.05	5470.1	
606.24	8165.9	
606.43	6677.7	
606.62	5906.3	
606.81	6802.7	
607	7991.2	
607.19	7225.9	
607.38	5282.4	
607.57	5526.1	
607.76	7076.4	
607.95	6475.7	
608.14	5973.2	
608.33	6697.5	
608.52	6972.7	
608.72	8011	
608.91	5205.9	
609.1	5061.2	
609.29	7161.1	
609.48	6624.5	
609.67	6249	
609.86	5249.6	
610.05	6708.5	
610.24	7154.2	
610.43	4962.9	
610.62	4647.5	
610.81	8314.8	
611	7993.2	
611.19	5132.2	
611.38	5904.3	
611.57	7379.5	
611.76	8794	
611.95	4949.9	
612.14	4815.5	
612.33	7230.7	
612.52	6702.3	
612.71	5509	
612.9	4696.7	
613.09	6410.1	
613.28	8813.8	
613.47	5177.3	
613.66	6217	
613.85	7352.2	
614.04	6824.5	
614.24	5354.8	
614.43	4463.9	
614.62	7539.3	
614.81	7334.5	
615	5958.2	
615.19	5974.6	
615.38	6677.7	
615.57	7060.7	
615.76	5778	
615.95	6778.1	
616.14	7467.6	
616.33	7144.7	
616.52	6148	
616.71	6377.4	
616.9	7464.2	
617.09	7295.5	
617.28	5393.7	
617.47	6956.9	
617.66	6429.9	
617.85	6520.7	
618.04	6366.5	
618.22	5763	
618.41	6771.3	
618.6	7781.6	
618.79	5687.9	
618.98	5289.2	
619.17	8117.5	
619.36	6354.8	
619.55	5496.7	
619.74	5554.8	
619.93	7319.4	
620.12	6720.8	
620.31	6107.7	
620.5	6259.3	
620.69	7888.8	
620.88	8312	
621.07	7075	
621.26	5904.3	
621.45	7505.8	
621.64	7518.1	
621.83	6100.2	
622.02	5126.1	
622.21	7501.7	
622.4	7273.7	
622.59	6630	
622.78	6328.2	
622.97	6858.6	
623.16	7914.7	
623.35	5965.1	
623.54	5062.6	
623.72	7114	
623.91	7236.8	
624.1	6342.6	
624.29	4853.7	
624.48	8398.7	
624.67	7531.1	
624.86	6221	
625.05	5109	
625.24	8456.1	
625.43	6718.7	
625.62	7957.7	
625.81	5319.3	
626	7838.3	
626.19	6963.8	
626.38	6251.1	
626.56	5498.8	
626.75	6886.6	
626.94	7443	
627.13	6181.5	
627.32	4911	
627.51	7648.5	
627.7	8970.1	
627.89	5035.3	
628.08	6249.7	
628.27	6758.3	
628.46	7023.9	
628.65	5351.3	
628.83	4988.9	
629.02	7537.9	
629.21	6850.5	
629.4	5793.7	
629.59	5984.2	
629.78	6720.1	
629.97	7783	
630.16	6001.2	
630.35	5509.7	
630.54	8249.9	
630.72	7877.2	
630.91	5406	
631.1	6061.3	
631.29	7363.1	
631.48	7599.3	
631.67	6234	
631.86	5618.9	
632.05	6926.9	
632.24	6950.8	
632.42	5236.7	
632.61	5853.1	
632.8	7088.7	
632.99	6675.7	
633.18	5847.6	
633.37	6251.8	
633.56	7328.3	
633.75	7200.7	
633.93	5785.5	
634.12	5504.9	
634.31	8219.9	
634.5	7812.3	
634.69	5532.2	
634.88	6072.2	
635.07	7126.9	
635.25	7782.3	
635.44	6495.5	
635.63	6722.8	
635.82	6917.4	
636.01	6442.2	
636.2	6463.4	
636.39	5898.2	
636.57	8088.1	
636.76	7927.7	
636.95	5341.1	
637.14	6881.9	
637.33	7449.1	
637.52	8505.9	
637.7	5169.1	
637.89	6161	
638.08	6969.2	
638.27	8643.8	
638.46	6288.6	
638.65	6713.2	
638.83	8584.4	
639.02	6855.9	
639.21	6193.7	
639.4	6706.4	
639.59	7429.3	
639.78	6929	
639.96	5422.3	
640.15	5481.7	
640.34	7257.3	
640.53	7425.9	
640.72	5114.5	
640.91	5494.7	
641.09	6633.4	
641.28	8106.5	
641.47	5456.5	
641.66	6421.7	
641.85	7329.7	
642.03	7615	
642.22	6197.2	
642.41	5646.2	
642.6	6750.8	
642.79	6177.4	
642.97	5371.1	
643.16	6193.1	
643.35	6751.5	
643.54	6566.5	
643.73	5320.6	
643.91	6176	
644.1	6483.2	
644.29	7059.3	
644.48	5352	
644.67	5458.5	
644.85	6653.2	
645.04	7058.7	
645.23	5063.9	
645.42	5379.3	
645.6	6597.9	
645.79	7864.9	
645.98	5355.4	
646.17	4388.8	
646.36	6360.3	
646.54	7101	
646.73	6343.2	
646.92	5025	
647.11	6606.7	
647.29	7768.6	
647.48	5097.4	
647.67	4934.9	
647.86	8056.7	
648.05	8041	
648.23	5552	
648.42	6832	
648.61	7402	
648.8	7092.8	
648.98	5100.8	
649.17	5471.5	
649.36	6624.5	
649.55	6066.1	
649.73	5183.4	
649.92	5948.7	
650.11	6468.9	
650.3	6862.1	
650.48	5330.2	
650.67	4981.3	
650.86	7232.1	
651.05	6062	
651.23	5223.7	
651.42	5294	
651.61	6576	
651.79	6788.3	
651.98	5481	
652.17	5072.1	
652.36	7173.4	
652.54	6144.6	
652.73	5149.3	
652.92	4967	
653.11	7197.2	
653.29	7314	
653.48	4286.4	
653.67	5545.2	
653.85	6992.4	
654.04	8099.7	
654.23	5728.9	
654.42	5230.5	
654.6	6556.2	
654.79	7132.4	
654.98	4704.9	
655.16	5369.1	
655.35	6102.9	
655.54	6042.9	
655.73	4787.5	
655.91	4743.8	
656.1	7261.4	
656.29	5950.7	
656.47	4287.8	
656.66	6089.3	
656.85	6284.5	
657.03	6334.4	
657.22	4834.6	
657.41	4887.1	
657.59	6421.7	
657.78	6194.4	
657.97	4427.7	
658.16	5342.5	
658.34	7120.8	
658.53	7410.2	
658.72	6249.7	
658.9	6737.8	
659.09	6421.1	
659.28	6591	
659.46	5005.9	
659.65	4855.1	
659.84	6212.9	
660.02	6770.6	
660.21	4826.4	
660.4	4783.4	
660.58	7228	
660.77	6653.9	
660.96	5415.5	
661.14	4445.5	
661.33	7735.9	
661.52	7672.4	
661.7	4327.4	
661.89	8417.8	
662.08	6130.3	
662.26	5801.2	
662.45	4695.3	
662.64	4891.9	
662.82	6944	
663.01	6049.7	
663.2	4843.4	
663.38	5662.6	
663.57	6811.5	
663.75	6718	
663.94	5184.8	
664.13	6523.5	
664.31	6199.9	
664.5	6962.4	
664.69	5389.6	
664.87	6062.7	
665.06	5902.9	
665.25	6694.1	
665.43	6262.7	
665.62	6410.8	
665.8	7129.7	
665.99	6422.4	
666.18	5179.3	
666.36	5283.8	
666.55	7094.2	
666.74	6914.6	
666.92	4825	
667.11	6584.9	
667.29	6352.1	
667.48	6977.4	
667.67	6092	
667.85	5246.2	
668.04	6433.4	
668.22	6369.9	
668.41	5244.8	
668.6	5449.6	
668.78	6138.4	
668.97	6409.5	
669.15	5626.5	
669.34	4582.7	
669.53	6227.9	
669.71	6578.8	
669.9	4753.3	
670.08	5433.3	
670.27	6219	
670.46	6791.7	
670.64	5646.2	
670.83	5984.8	
671.01	6009.4	
671.2	6775.4	
671.38	4805.2	
671.57	4729.4	
671.76	7431.4	
671.94	7998	
672.13	4695.3	
672.31	5808.7	
672.5	6945.3	
672.69	6090.7	
672.87	4787.5	
673.06	5189.6	
673.24	6748.7	
673.43	6268.1	
673.61	5586.9	
673.8	5167.7	
673.98	6978.8	
674.17	7154.9	
674.36	5826.5	
674.54	5628.5	
674.73	6752.2	
674.91	6978.8	
675.1	5315.2	
675.28	4955.4	
675.47	6428.6	
675.65	7023.2	
675.84	5084.4	
676.03	5540.4	
676.21	6190.3	
676.4	5689.3	
676.58	6019.7	
676.77	5813.5	
676.95	7808.9	
677.14	6214.2	
677.32	4813.4	
677.51	4591.5	
677.69	6944.7	
677.88	5797.1	
678.06	4699.4	
678.25	4807.9	
678.44	6477	
678.62	6142.5	
678.81	4488.5	
678.99	5488.6	
679.18	7370	
679.36	6929	
679.55	5100.1	
679.73	5794.4	
679.92	6845.7	
680.1	6232.7	
680.29	6422.4	
680.47	5148.6	
680.66	6101.6	
680.84	7068.9	
681.03	4330.8	
681.21	5483.1	
681.4	6223.8	
681.58	6167.8	
681.77	4881.7	
681.95	4728.8	
682.14	7230.7	
682.32	7479.2	
682.51	5816.2	
682.69	4564.2	
682.88	6109.1	
683.06	6888.7	
683.25	5469.4	
683.43	6013.5	
683.62	6431.3	
683.8	6902.3	
683.99	6051.1	
684.17	5379.3	
684.36	7834.2	
684.54	6459.3	
684.73	4532.8	
684.91	4844.8	
685.1	6759.7	
685.28	6264.1	
685.46	5418.2	
685.65	5540.4	
685.83	7067.5	
686.02	6374	
686.2	4846.9	
686.39	5042.1	
686.57	6059.9	
686.76	7782.3	
686.94	4904.9	
687.13	5081.7	
687.31	6909.8	
687.5	6357.6	
687.68	4472.8	
687.86	5827.8	
688.05	8067.6	
688.23	5860.6	
688.42	5883.1	
688.6	4904.2	
688.79	6226.5	
688.97	6212.9	
689.16	5316.5	
689.34	4231.1	
689.52	7034.8	
689.71	7315.3	
689.89	5605.3	
690.08	4939	
690.26	6501.6	
690.45	6354.8	
690.63	5909.8	
690.81	5143.8	
691	6279.8	
691.18	6173.3	
691.37	5254.4	
691.55	7636.2	
691.74	6176.7	
691.92	8368.7	
692.1	5303.6	
692.29	4636.6	
692.47	6467.5	
692.66	5665.4	
692.84	4903.5	
693.02	5446.2	
693.21	5815.5	
693.39	6358.3	
693.58	5528.8	
693.76	4973.8	
693.94	7569.3	
694.13	7335.1	
694.31	4906.9	
694.5	6014.2	
694.68	6114.6	
694.86	6339.1	
695.05	5248.3	
695.23	5695.4	
695.42	6803.4	
695.6	9270.5	
695.78	5913.9	
695.97	4945.2	
696.15	6874.3	
696.34	6257.9	
696.52	4653.7	
696.7	5655.1	
696.89	6666.8	
697.07	6047	
697.25	5517.2	
697.44	7176.1	
697.62	6574	
697.81	6987	
697.99	5255.1	
698.17	5707.7	
698.36	5954.1	
698.54	6734.4	
698.72	5560.9	
698.91	4492.6	
699.09	6239.5	
699.28	6126.2	
699.46	5211.4	
699.64	5052.3	
699.83	6006.7	
700.01	7435.5	
700.19	5866.7	
700.38	4215.4	
700.56	7348.8	
700.74	6117.3	
700.93	4633.2	
701.11	5574.6	
701.29	6700.3	
701.48	7884.7	
701.66	4818.9	
701.84	4962.9	
702.03	6208.8	
702.21	6893.5	
702.39	4380.6	
702.58	5081.7	
702.76	6574.7	
702.94	6743.3	
703.13	4422.9	
703.31	7064.8	
703.49	5902.9	
703.68	7275.8	
703.86	4643.4	
704.04	5702.2	
704.23	6445.6	
704.41	6916	
704.59	4800.4	
704.78	6165.1	
704.96	7555.6	
705.14	7030	
705.33	4539	
705.51	5445.5	
705.69	6283.2	
705.87	7165.8	
706.06	5742.5	
706.24	4485.1	
706.42	6582.2	
706.61	6924.9	
706.79	5732.9	
706.97	4533.5	
707.16	5977.3	
707.34	6692.8	
707.52	5750.7	
707.7	4760.2	
707.89	6142.5	
708.07	5870.8	
708.25	5741.1	
708.44	5801.2	
708.62	6100.2	
708.8	7347.4	
708.98	6009.4	
709.17	4890.5	
709.35	6549.4	
709.53	6518	
709.72	4600.4	
709.9	4753.3	
710.08	6767.2	
710.26	6894.8	
710.45	6336.4	
710.63	4899.4	
710.81	6492.1	
710.99	6522.8	
711.18	5596.4	
711.36	5059.2	
711.54	6292.7	
711.72	7079.8	
711.91	5230.5	
712.09	4614.8	
712.27	6537.1	
712.45	7275.8	
712.64	5546.6	
712.82	4431.1	
713	5949.3	
713.18	6238.1	
713.37	4671.4	
713.55	5952.8	
713.73	7200.7	
713.91	5671.5	
714.1	5264.6	
714.28	4618.9	
714.46	6939.9	
714.64	6133	
714.83	4085.7	
715.01	5100.1	
715.19	6229.2	
715.37	5572.5	
715.55	4710.3	
715.74	5025.7	
715.92	7265.5	
716.1	5174.5	
716.28	6287.3	
716.47	5259.9	
716.65	5874.3	
716.83	5965.7	
717.01	5144.5	
717.19	5152.7	
717.38	8215.8	
717.56	5595.1	
717.74	5367.7	
717.92	4394.3	
718.1	6944	
718.29	6089.3	
718.47	3953.9	
718.65	4711	
718.83	6723.5	
719.01	6584.2	
719.2	3744.4	
719.38	4893.3	
719.56	6303.6	
719.74	7993.2	
719.92	4493.2	
720.11	5671.5	
720.29	6432	
720.47	5458.5	
720.65	4117.1	
720.83	5111	
721.02	5929.6	
721.2	5569.1	
721.38	5134.3	
721.56	4379.9	
721.74	5072.8	
721.92	5417.6	
722.11	5756.8	
722.29	5348.6	
722.47	6716.7	
722.65	5783.5	
722.83	4354.7	
723.01	5410.1	
723.2	5888.6	
723.38	6189.6	
723.56	3762.8	
723.74	4999.1	
723.92	5330.9	
724.1	6614.9	
724.29	4278.9	
724.47	5540.4	
724.65	5381.4	
724.83	5294.7	
725.01	4095.3	
725.19	5141.8	
725.37	5426.4	
725.56	5522	
725.74	4005.8	
725.92	4313.7	
726.1	5321.3	
726.28	5662	
726.46	4842.1	
726.64	4487.8	
726.83	5655.8	
727.01	6006	
727.19	3950.5	
727.37	4915.1	
727.55	5745.2	
727.73	6365.8	
727.91	3927.3	
728.09	3812.6	
728.28	6286.6	
728.46	7077.8	
728.64	5020.9	
728.82	4904.2	
729	7471	
729.18	6694.1	
729.36	4028.4	
729.54	6605.4	
729.72	7748.1	
729.91	5855.8	
730.09	6127.5	
730.27	4704.2	
730.45	5699.5	
730.63	6481.8	
730.81	5436	
730.99	4283.7	
731.17	7025.2	
731.35	5479.7	
731.53	4919.9	
731.71	4534.9	
731.9	6677.1	
732.08	6939.9	
732.26	4836.6	
732.44	4397.7	
732.62	6983.6	
732.8	6381.5	
732.98	5295.4	
733.16	4162.8	
733.34	6374.6	
733.52	5122.7	
733.7	4799.8	
733.88	5158.2	
734.07	6235.4	
734.25	5930.2	
734.43	4175.8	
734.61	5968.5	
734.79	7615.7	
734.97	5821	
735.15	4362.2	
735.33	4702.8	
735.51	6230.6	
735.69	5861.3	
735.87	5881.1	
736.05	4989.5	
736.23	6078.4	
736.41	5851	
736.59	4789.5	
736.77	4863.2	
736.95	6482.5	
737.13	5907.7	
737.32	4400.4	
737.5	4642.7	
737.68	7085.3	
737.86	5760.3	
738.04	4198.3	
738.22	6193.7	
738.4	5547.9	
738.58	5974.6	
738.76	4985.4	
738.94	3742.3	
739.12	5715.2	
739.3	5577.3	
739.48	5509	
739.66	5229.1	
739.84	6014.2	
740.02	6014.9	
740.2	3743.7	
740.38	4167.6	
740.56	6388.3	
740.74	5151.3	
740.92	4883.7	
741.1	4868	
741.28	5842.2	
741.46	5672.2	
741.64	4415.4	
741.82	5038	
742	5857.9	
742.18	5836	
742.36	4749.9	
742.54	4258.4	
742.72	6428.6	
742.9	5126.1	
743.08	5201.2	
743.26	3831.7	
743.44	6692.1	
743.62	6565.8	
743.8	5370.5	
743.98	4258.4	
744.16	6268.8	
744.34	5886.5	
744.52	5238.7	
744.7	5158.2	
744.88	6408.1	
745.06	5885.9	
745.24	5214.8	
745.42	5473.5	
745.6	6428.6	
745.78	6277	
745.96	4061.1	
746.14	4414.7	
746.32	7339.2	
746.5	6527.6	
746.68	5019.6	
746.86	4461.8	
747.03	7060.7	
747.21	5149.3	
747.39	5005.2	
747.57	4415.4	
747.75	6098.2	
747.93	6614.9	
748.11	4394.3	
748.29	4367.6	
748.47	7757	
748.65	5825.1	
748.83	5188.9	
749.01	4844.8	
749.19	6391	
749.37	5489.9	
749.55	4749.2	
749.73	4840	
749.91	5997.1	
750.09	5741.1	
750.26	4909	
750.44	4277.5	
750.62	5995.1	
750.8	5953.4	
750.98	4127.3	
751.16	4456.4	
751.34	6072.9	
751.52	5334.3	
751.7	5393	
751.88	4139.6	
752.06	6621.1	
752.24	6375.3	
752.42	4031.8	
752.59	4448.2	
752.77	5963	
752.95	7277.1	
753.13	5195	
753.31	4598.4	
753.49	5642.2	
753.67	6165.8	
753.85	4881	
754.03	4502.1	
754.21	6505	
754.38	6896.9	
754.56	4691.9	
754.74	3682.9	
754.92	5715.2	
755.1	6535.8	
755.28	3815.4	
755.46	3887	
755.64	7492.2	
755.82	7629.4	
755.99	4300.7	
756.17	4446.8	
756.35	4965.6	
756.53	6692.8	
756.71	3302	
756.89	4250.2	
757.07	6242.9	
757.25	5182.7	
757.42	4821.6	
757.6	5827.2	
757.78	6196.5	
757.96	5087.2	
758.14	4457.7	
758.32	3939.6	
758.5	4648.2	
758.67	5581.4	
758.85	4276.8	
759.03	4375.8	
759.21	5836.7	
759.39	5175.2	
759.57	3816.7	
759.75	5098.1	
759.92	6464.1	
760.1	5689.3	
760.28	5501.5	
760.46	5727.5	
760.64	5365	
760.82	5038	
760.99	5272.2	
761.17	4345.8	
761.35	6229.2	
761.53	5113.8	
761.71	4485.1	
761.89	5199.8	
762.06	6095.4	
762.24	5494.7	
762.42	4512.4	
762.6	4187.4	
762.78	5575.3	
762.96	6303	
763.13	4842.1	
763.31	4463.9	
763.49	6440.2	
763.67	5427.8	
763.85	5436	
764.02	6088.6	
764.2	6641.6	
764.38	5811.5	
764.56	4399.7	
764.74	5434.6	
764.91	6766.5	
765.09	5706.3	
765.27	4024.3	
765.45	3882.9	
765.63	6811.5	
765.8	6712.6	
765.98	3500	
766.16	3934.1	
766.34	5117.2	
766.52	4912.4	
766.69	5009.3	
766.87	3721.8	
767.05	5657.9	
767.23	6355.5	
767.41	4171.7	
767.58	4478.2	
767.76	6260	
767.94	6351.4	
768.12	4230.4	
768.29	5122	
768.47	5794.4	
768.65	6536.4	
768.83	3818.8	
769	5141.1	
769.18	5223	
769.36	6067.4	
769.54	5098.8	
769.72	3922.5	
769.89	6321.4	
770.07	6515.3	
770.25	4209.3	
770.43	5647.6	
770.6	7158.3	
770.78	7758.4	
770.96	4438.6	
771.14	5186.8	
771.31	6280.4	
771.49	5547.3	
771.67	3565.5	
771.85	3891.8	
772.02	4759.5	
772.2	5650.3	
772.38	4663.9	
772.55	4155.3	
772.73	5812.1	
772.91	5688.6	
773.09	4554	
773.26	4667.3	
773.44	5851.7	
773.62	5550.7	
773.8	4006.5	
773.97	3702.7	
774.15	5905.7	
774.33	5550	
774.5	3947.8	
774.68	4330.1	
774.86	6136.4	
775.04	5567.7	
775.21	4011.3	
775.39	4054.3	
775.57	5825.1	
775.74	6333.7	
775.92	3877.5	
776.1	3798.3	
776.27	5879	
776.45	7174.7	
776.63	4020.8	
776.81	3547.8	
776.98	5439.4	
777.16	6664.8	
777.34	4213.4	
777.51	4556.7	
777.69	5359.5	
777.87	5200.5	
778.04	4203.1	
778.22	4963.6	
778.4	5254.4	
778.57	5967.8	
778.75	3493.2	
778.93	3795.6	
779.1	5036.6	
779.28	4961.5	
779.46	3428.3	
779.64	4034.5	
779.81	6161	
779.99	7113.3	
780.17	4887.1	
780.34	5101.5	
780.52	5586.9	
780.69	5808	
780.87	4384	
781.05	3935.5	
781.22	5672.9	
781.4	5806.7	
781.58	4120.5	
781.75	3165.5	
781.93	5703.6	
782.11	5083.7	
782.28	5116.5	
782.46	4055.7	
782.64	4844.1	
782.81	5898.1	
782.99	4232.5	
783.17	4172.4	
783.34	5814.2	
783.52	4949.9	
783.69	4493.9	
783.87	5290.6	
784.05	5119.2	
784.22	5094.7	
784.4	5226.4	
784.58	4492.6	
784.75	6058.6	
784.93	5111	
785.1	4098	
785.28	4852.3	
785.46	5701.5	
785.63	5086.5	
785.81	4052.9	
785.99	3991.5	
786.16	5224.4	
786.34	5685.8	
786.51	4009.9	
786.69	4447.5	
786.87	4797	
787.04	5368.4	
787.22	3839.9	
787.39	4902.8	
787.57	5042.8	
787.75	6311.8	
787.92	5068.7	
788.1	5040.7	
788.27	5146.5	
788.45	4841.4	
788.63	4647.5	
788.8	3275.4	
788.98	5610.1	
789.15	4799.1	
789.33	3476.1	
789.5	4199	
789.68	6115.2	
789.86	6260	
790.03	4600.4	
790.21	4018.8	
790.38	6128.9	
790.56	5279	
790.73	3887.7	
790.91	3874.1	
791.09	5137.7	
791.26	5932.3	
791.44	4154	
791.61	3551.2	
791.79	5046.2	
791.96	5213.4	
792.14	3705.5	
792.32	3199.6	
792.49	5073.5	
792.67	5256.5	
792.84	3789.4	
793.02	3535.5	
793.19	5607.3	
793.37	6399.9	
793.54	3241.3	
793.72	3655.6	
793.89	6610.8	
794.07	5092.6	
794.25	4369	
794.42	3280.8	
794.6	6260	
794.77	5862	
794.95	4591.5	
795.12	4050.9	
795.3	5087.2	
795.47	5840.1	
795.65	4459.1	
795.82	4271.4	
796	4941.1	
796.17	7099.6	
796.35	4087.7	
796.52	4890.5	
796.7	5752.1	
796.87	5851.7	
797.05	5156.8	
797.22	5079	
797.4	5788.9	
797.57	6899.6	
797.75	4227	
797.92	3939.6	
798.1	6170.5	
798.27	5082.4	
798.45	3353.2	
798.62	3624.2	
798.8	5457.2	
798.97	6032	
799.15	4526	
799.32	4224.3	
799.5	4687.8	
799.67	5567.7	
799.85	4588.8	
800.02	3362.1	
800.2	5098.8	
800.37	5471.5	
800.55	4842.8	
800.72	3972.4	
800.9	5989.6	
801.07	6460	
801.25	5411.4	
801.42	4405.2	
801.6	6022.4	
801.77	5739.1	
801.95	4127.3	
802.12	3900	
802.29	5649.7	
802.47	5728.2	
802.64	4317.1	
802.82	3246	
802.99	5076.2	
803.17	6263.4	
803.34	4265.2	
803.52	3799.7	
803.69	6960.4	
803.87	4922	
804.04	4268	
804.21	4407.9	
804.39	6287.3	
804.56	5425.1	
804.74	3579.8	
804.91	4453	
805.09	5137.7	
805.26	5267.4	
805.44	3607.2	
805.61	4048.8	
805.78	5883.8	
805.96	5917.9	
806.13	4442.7	
806.31	4790.9	
806.48	4678.9	
806.66	5313.1	
806.83	4380.6	
807	4371	
807.18	5148.6	
807.35	5558.9	
807.53	4298.7	
807.7	3364.8	
807.87	6383.5	
808.05	5220.3	
808.22	4776.5	
808.4	3410.6	
808.57	5231.9	
808.74	4820.2	
808.92	3904.8	
809.09	4991.6	
809.27	5018.2	
809.44	5730.9	
809.61	3424.9	
809.79	3839.9	
809.96	6398.5	
810.14	6049	
810.31	3321.8	
810.48	4144.4	
810.66	5335.6	
810.83	6105	
811.01	3912.3	
811.18	4403.8	
811.35	6020.3	
811.53	4630.5	
811.7	4814.8	
811.87	4465.3	
812.05	5183.4	
812.22	5151.3	
812.39	3823.6	
812.57	3721.8	
812.74	5225.1	
812.92	7061.4	
813.09	4106.9	
813.26	4471.4	
813.44	6800.6	
813.61	5160.9	
813.78	3371.6	
813.96	4584.7	
814.13	5237.3	
814.3	4831.2	
814.48	5115.8	
814.65	4153.3	
814.82	6569.2	
815	4925.4	
815.17	4215.4	
815.34	5203.2	
815.52	5138.4	
815.69	5158.8	
815.87	4233.2	
816.04	4194.9	
816.21	5243.5	
816.38	4541.7	
816.56	4015.4	
816.73	3751.2	
816.9	6630	
817.08	6079.7	
817.25	3823.6	
817.42	4846.2	
817.6	4810	
817.77	5262.6	
817.94	4363.5	
818.12	3781.9	
818.29	4962.9	
818.46	7976.8	
818.64	3962.8	
818.81	3655.6	
818.98	4867.3	
819.16	7119.4	
819.33	4561.5	
819.5	4223.6	
819.67	5634	
819.85	6322.1	
820.02	4182	
820.19	4422.2	
820.37	5476.3	
820.54	4985.4	
820.71	4354	
820.88	5425.8	
821.06	5503.6	
821.23	4990.9	
821.4	4371.7	
821.58	4365.6	
821.75	5991	
821.92	5382.7	
822.09	3444.7	
822.27	3539.6	
822.44	5214.8	
822.61	5111.7	
822.79	3497.2	
822.96	6806.8	
823.13	5803.3	
823.3	4956.1	
823.48	4062.5	
823.65	3674.1	
823.82	5963.7	
823.99	4717.2	
824.17	5139	
824.34	3665.2	
824.51	6975.4	
824.68	5317.9	
824.86	3829	
825.03	4339	
825.2	5222.3	
825.37	6382.2	
825.55	3771	
825.72	4305.5	
825.89	7024.5	
826.06	6484.6	
826.24	4172.4	
826.41	4136.9	
826.58	6419	
826.75	5609.4	
826.92	3292.5	
827.1	3629	
827.27	8852.7	
827.44	7017.7	
827.61	3919.8	
827.79	4851.6	
827.96	4904.2	
828.13	5284.4	
828.3	4111	
828.47	3435.8	
828.65	5399.1	
828.82	5410.1	
828.99	5454.4	
829.16	4669.4	
829.34	5913.2	
829.51	5604.6	
829.68	4330.8	
829.85	4450.2	
830.02	6146.6	
830.2	5907.7	
830.37	3289	
830.54	5159.5	
830.71	6740.5	
830.88	5216.2	
831.05	3418.1	
831.23	3870	
831.4	6426.5	
831.57	7284.6	
831.74	3970.3	
831.91	3453.6	
832.09	5423	
832.26	5834.7	
832.43	4140.3	
832.6	4635.9	
832.77	5406.6	
832.94	6310.5	
833.12	3268.6	
833.29	4024.9	
833.46	5634	
833.63	7505.8	
833.8	4489.1	
833.97	4109.6	
834.15	5884.5	
834.32	5599.8	
834.49	4276.8	
834.66	4356.7	
834.83	6184.9	
835	4934.2	
835.17	3949.2	
835.35	4014	
835.52	5778	
835.69	5674.9	
835.86	4148.5	
836.03	3380.5	
836.2	5827.8	
836.37	5431.9	
836.55	4125.3	
836.72	3849.5	
836.89	5364.3	
837.06	5906.3	
837.23	4187.4	
837.4	4612.7	
837.57	6807.4	
837.75	7531.7	
837.92	3733.4	
838.09	4061.1	
838.26	5411.4	
838.43	6165.1	
838.6	4321.9	
838.77	3822.2	
838.94	7153.6	
839.11	6744	
839.29	4076.1	
839.46	3192.1	
839.63	5760.3	
839.8	5535.7	
839.97	3990.8	
840.14	3990.1	
840.31	5604.6	
840.48	5832.6	
840.65	3294.5	
840.82	3917.1	
841	5814.9	
841.17	5806	
841.34	3661.8	
841.51	3678.2	
841.68	5707	
841.85	5472.9	
842.02	3774.4	
842.19	3125.2	
842.36	5616.2	
842.53	5559.6	
842.7	3667.9	
842.87	4562.9	
843.05	7453.9	
843.22	5543.2	
843.39	3461.7	
843.56	3736.2	
843.73	5231.2	
843.9	5923.4	
844.07	6038.1	
844.24	5027.8	
844.41	8716.2	
844.58	5082.4	
844.75	3500	
844.92	3885	
845.09	5814.9	
845.26	5832.6	
845.43	3634.5	
845.6	3879.5	
845.77	5853.8	
845.94	5525.4	
846.12	4069.3	
846.29	4308.9	
846.46	6029.2	
846.63	5878.4	
846.8	3629.7	
846.97	4369.7	
847.14	6346	
847.31	5730.9	
847.48	4074.8	
847.65	4558.1	
847.82	6122.1	
847.99	6137.1	
848.16	4945.2	
848.33	4593.6	
848.5	5384.1	
848.67	6376.7	
848.84	3586.7	
849.01	3799	
849.18	5165	
849.35	4846.9	
849.52	4644.1	
849.69	3560.1	
849.86	6057.9	
850.03	6298.9	
850.2	3642.7	
850.37	4520.5	
850.54	6226.5	
850.71	5517.9	
850.88	4402.5	
851.05	3580.5	
851.22	5791.7	
851.39	6507.8	
851.56	3412.6	
851.73	4289.1	
851.9	5086.5	
852.07	6164.4	
852.24	4102.8	
852.41	3577.1	
852.58	5716.6	
852.75	5132.9	
852.92	4114.4	
853.09	3511.6	
853.26	5396.4	
853.43	6333	
853.6	3618.1	
853.77	3061.7	
853.94	6489.3	
854.11	5829.9	
854.28	5451	
854.44	3963.5	
854.61	6921.5	
854.78	6201.2	
854.95	3648.1	
855.12	4634.6	
855.29	4670.1	
855.46	6602.7	
855.63	3566.9	
855.8	5119.9	
855.97	5372.5	
856.14	6185.5	
856.31	5172.5	
856.48	3971	
856.65	5319.9	
856.82	5061.2	
856.99	3489.1	
857.16	3936.2	
857.33	7178.1	
857.49	5479	
857.66	3967.6	
857.83	4270	
858	5390.3	
858.17	5724.8	
858.34	3425.6	
858.51	3588.7	
858.68	6571.9	
858.85	6593.8	
859.02	4248.2	
859.19	4521.2	
859.36	5032.5	
859.52	5216.2	
859.69	3685.7	
859.86	4316.4	
860.03	5170.4	
860.2	6485.2	
860.37	3300.6	
860.54	3709.6	
860.71	6072.9	
860.88	6656.6	
861.05	4080.2	
861.21	4616.1	
861.38	6621.8	
861.55	4960.9	
861.72	3273.3	
861.89	4100	
862.06	6201.2	
862.23	6698.2	
862.4	3521.1	
862.56	3818.1	
862.73	5985.5	
862.9	5648.3	
863.07	4240.7	
863.24	3286.3	
863.41	4958.1	
863.58	5141.8	
863.75	3783.3	
863.91	4214	
864.08	6492.7	
864.25	6015.6	
864.42	4614.8	
864.59	5140.4	
864.76	6838.9	
864.93	5142.4	
865.09	3510.9	
865.26	3927.3	
865.43	6404.7	
865.6	6669.6	
865.77	3151.8	
865.94	3611.3	
866.1	6425.2	
866.27	6138.4	
866.44	5537	
866.61	3463.1	
866.78	5563.6	
866.95	6064.7	
867.11	3539.6	
867.28	3205.1	
867.45	6197.2	
867.62	5160.2	
867.79	4188.1	
867.96	3590.1	
868.12	5116.5	
868.29	6171.9	
868.46	3652.9	
868.63	4906.9	
868.8	6361.7	
868.97	6083.1	
869.13	3777.1	
869.3	3758.7	
869.47	5946.6	
869.64	6202.6	
869.81	3695.2	
869.97	3635.8	
870.14	5842.2	
870.31	6628.6	
870.48	3492.5	
870.65	4660.5	
870.81	5414.1	
870.98	5400.5	
871.15	4164.9	
871.32	3816.7	
871.48	5973.9	
871.65	6625.9	
871.82	3640.6	
871.99	4035.2	
872.16	7195.2	
872.32	6536.4	
872.49	3674.7	
872.66	3696.6	
872.83	6065.4	
872.99	5301.5	
873.16	4233.2	
873.33	3586	
873.5	5763	
873.67	5702.2	
873.83	3849.5	
874	4893.3	
874.17	5849.7	
874.34	7012.9	
874.5	4726	
874.67	4579.3	
874.84	6523.5	
875.01	5099.4	
875.17	5205.3	
875.34	3620.8	
875.51	5786.9	
875.68	6958.3	
875.84	4380.6	
876.01	5415.5	
876.18	6073.6	
876.34	5972.6	
876.51	3693.9	
876.68	3590.8	
876.85	5543.9	
877.01	6363.7	
877.18	5233.9	
877.35	3601	
877.52	5634.6	
877.68	4988.9	
877.85	3511.6	
878.02	3585.3	
878.18	5654.4	
878.35	5288.5	
878.52	2869.2	
878.69	4145.1	
878.85	6108.4	
879.02	6055.8	
879.19	5231.2	
879.35	3952.6	
879.52	6000.5	
879.69	6317.3	
879.86	3102.7	
880.02	4065.9	
880.19	5612.1	
880.36	6912.6	
880.52	4179.2	
880.69	4354	
880.86	6119.3	
881.02	6262	
881.19	3964.9	
881.36	3928.7	
881.52	6033.3	
881.69	5319.9	
881.86	3979.9	
882.02	3881.6	
882.19	6369.9	
882.36	7503.8	
882.52	3703.4	
882.69	5191.6	
882.86	5803.3	
883.02	5745.9	
883.19	4450.9	
883.36	4225	
883.52	6176	
883.69	7112.6	
883.86	3663.8	
884.02	3250.1	
884.19	6135.7	
884.36	5623	
884.52	4122.6	
884.69	3809.9	
884.86	5329.5	
885.02	6768.5	
885.19	4059.1	
885.36	4217.5	
885.52	5627.8	
885.69	5784.1	
885.86	5356.1	
886.02	4655.7	
886.19	6096.8	
886.35	5543.9	
886.52	4028.4	
886.69	5169.1	
886.85	5131.5	
887.02	6507.8	
887.19	6507.8	
887.35	6507.8	
887.52	6507.8	
887.68	6507.8	
887.85	6507.8	
888.02	6507.8	
888.18	6507.8	
888.35	6507.8	
888.51	6507.8	
888.68	6507.8	
888.85	6507.8	
889.01	6507.8	
889.18	6507.8	
889.35	6507.8	
889.51	6507.8	
889.68	6507.8	
889.84	6507.8	
890.01	6507.8	
890.17	6507.8	
890.34	6507.8	
890.51	6507.8	
890.67	6507.8	
890.84	6507.8	
891	6507.8	
891.17	6507.8	
891.34	6507.8	
891.5	6507.8	
891.67	6507.8	
891.83	6507.8	
892	6507.8	
892.16	6507.8	
892.33	6507.8	
892.5	6507.8	
892.66	6507.8	
892.83	6507.8	
892.99	6507.8	
893.16	6507.8	
893.32	6507.8	
893.49	6507.8	
893.65	6507.8	
893.82	6507.8	
893.99	6507.8	
894.15	6507.8	
894.32	6507.8	
894.48	6507.8	
894.65	6507.8	
894.81	6507.8	
894.98	6507.8	
895.14	6507.8	
895.31	6507.8	
895.47	6507.8	
895.64	6507.8	
895.81	6507.8	
895.97	6507.8	
896.14	6507.8	
896.3	6507.8	
896.47	6507.8	
896.63	6507.8	
896.8	6507.8	
896.96	6507.8	
897.13	6507.8	
897.29	6507.8	
897.46	6507.8	
897.62	6507.8	
897.79	6507.8	
897.95	6507.8	
898.12	6507.8	
898.28	6507.8	
898.45	6507.8	
898.61	6507.8	
898.78	6507.8	
898.94	6507.8	
899.11	6507.8	
899.27	6507.8	
899.44	6507.8	
899.6	6507.8	
899.77	6507.8	
899.93	6507.8	
900.1	6507.8	
900.26	6507.8	
900.43	6507.8	
900.59	6507.8	
900.76	6507.8	
900.92	6507.8	
901.09	6507.8	
901.25	6507.8	
901.42	6507.8	
901.58	6507.8	
901.75	6507.8	
901.91	6507.8	
902.07	6507.8	
902.24	6507.8	
902.4	6507.8	
902.57	6507.8	
902.73	6507.8	
902.9	6507.8	
903.06	6507.8	
903.23	6507.8	
903.39	6507.8	
903.56	6507.8	
903.72	6507.8	
903.88	6507.8	
904.05	6507.8	
904.21	6507.8	
904.38	6507.8	
904.54	6507.8	
904.71	6507.8	
904.87	6507.8	
905.03	6507.8	
905.2	6507.8	
905.36	6507.8	
905.53	6507.8	
905.69	6507.8	
905.86	6507.8	
906.02	6507.8	
906.18	6507.8	
906.35	6507.8	
906.51	6507.8	
906.68	6507.8	
906.84	6507.8	
907.01	6507.8	
907.17	6507.8	
907.33	6507.8	
907.5	6507.8	
907.66	6507.8	
907.83	6507.8	
907.99	6507.8	
908.15	6507.8	
908.32	6507.8	
908.48	6507.8	
908.65	6507.8	
908.81	6507.8	
908.97	6507.8	
909.14	6507.8	
909.3	6507.8	
909.47	6507.8	
909.63	6507.8	
909.79	6507.8	
909.96	6507.8	
910.12	6507.8	
910.28	6507.8	
910.45	6507.8	
910.61	6507.8	
910.78	6507.8	
910.94	6507.8	
911.1	6507.8	
911.27	6507.8	
911.43	6507.8	
911.59	6507.8	
911.76	6507.8	
911.92	6507.8	
912.08	6507.8	
912.25	6507.8	
912.41	6507.8	
912.57	6507.8	
912.74	6507.8	
912.9	6507.8	
913.07	6507.8	
913.23	6507.8	
913.39	6507.8	
913.56	6507.8	
913.72	6507.8	
913.88	6507.8	
914.05	6507.8	
914.21	6507.8	
914.37	6507.8	
914.54	6507.8	
914.7	6507.8	
914.86	6507.8	
915.03	6507.8	
915.19	6507.8	
