Wavelength	Intensities	
nm	a.u.	
179.22	1893.3	
179.44	1901.2	
179.65	1885.5	
179.86	1916.9	
180.08	1899.8	
180.29	4702.8	
180.51	3421.5	
180.72	5543.9	
180.94	6522.8	
181.15	3196.9	
181.37	3126.6	
181.58	5376.6	
181.79	5745.2	
182.01	3332.7	
182.22	3551.9	
182.44	5715.9	
182.65	4737	
182.87	4485.7	
183.08	3938.2	
183.29	5899.5	
183.51	4937	
183.72	3589.4	
183.94	5227.1	
184.15	5276.3	
184.37	5442.1	
184.58	3130	
184.79	4312.3	
185.01	4949.3	
185.22	5714.5	
185.44	4556	
185.65	3865.9	
185.86	5223	
186.08	4873.5	
186.29	3099.9	
186.51	3294.5	
186.72	4975.9	
186.94	5890.6	
187.15	3836.5	
187.36	3990.1	
187.58	7599.3	
187.79	5464.7	
188.01	4067.3	
188.22	6343.9	
188.43	6562.4	
188.65	5597.1	
188.86	3300	
189.08	3917.8	
189.29	5139.7	
189.5	5126.7	
189.72	3655.6	
189.93	3702	
190.15	5907	
190.36	7042.3	
190.57	4017.4	
190.79	3870	
191	5947.3	
191.22	5970.5	
191.43	4037.2	
191.64	3274.7	
191.86	6208.8	
192.07	5921.4	
192.29	3444.7	
192.5	3697.9	
192.71	5895.4	
192.93	5081.7	
193.14	3629.7	
193.35	3726.6	
193.57	5120.6	
193.78	5834	
194	2964.8	
194.21	3558.7	
194.42	4897.4	
194.64	5357.5	
194.85	3951.9	
195.07	4589.5	
195.28	5366.4	
195.49	4665.3	
195.71	4854.4	
195.92	3393.5	
196.13	5510.4	
196.35	5702.2	
196.56	5160.9	
196.78	3930.1	
196.99	6961.7	
197.2	6462	
197.42	4504.2	
197.63	3962.1	
197.84	4811.4	
198.06	5520.6	
198.27	3659	
198.48	4881.7	
198.7	5104.2	
198.91	5254.4	
199.13	3911.6	
199.34	3991.5	
199.55	5760.3	
199.77	4681	
199.98	3518.4	
200.19	3972.4	
200.41	5159.5	
200.62	4951.3	
200.83	4187.4	
201.05	4457.1	
201.26	5262.6	
201.47	5003.9	
201.69	3544.4	
201.9	3398.9	
202.11	5340.4	
202.33	6327.5	
202.54	3741.6	
202.76	4172.4	
202.97	5496.1	
203.18	5427.8	
203.4	4170.3	
203.61	4044.7	
203.82	5446.9	
204.04	5024.3	
204.25	4048.2	
204.46	3906.8	
204.68	5378.6	
204.89	5594.4	
205.1	3888.4	
205.32	3372.3	
205.53	5743.9	
205.74	5863.3	
205.96	2932	
206.17	4036.5	
206.38	5634	
206.6	5828.5	
206.81	4524.6	
207.02	3784.6	
207.24	5576.6	
207.45	6015.6	
207.66	3788.1	
207.88	3244	
208.09	5560.9	
208.3	5422.3	
208.52	3553.9	
208.73	3794.2	
208.94	5386.2	
209.15	6042.2	
209.37	3787.4	
209.58	4005.1	
209.79	5879	
210.01	5165	
210.22	3018.7	
210.43	3190.1	
210.65	5355.4	
210.86	5769.1	
211.07	3816	
211.29	3460.4	
211.5	5674.9	
211.71	5290.6	
211.93	3463.1	
212.14	3467.9	
212.35	5318.6	
212.56	5550	
212.78	4017.4	
212.99	3295.2	
213.2	6324.1	
213.42	5117.2	
213.63	3649.5	
213.84	3880.9	
214.06	4756.1	
214.27	4835.9	
214.48	3775.1	
214.69	4059.1	
214.91	6043.6	
215.12	6126.8	
215.33	4117.8	
215.55	4484.4	
215.76	6595.8	
215.97	5653.1	
216.18	3874.1	
216.4	3842.7	
216.61	5025.7	
216.82	5797.1	
217.04	3575.1	
217.25	3674.1	
217.46	6003.3	
217.67	5748.6	
217.89	3101.3	
218.1	3312.9	
218.31	5393	
218.53	5575.3	
218.74	3687	
218.95	3558	
219.16	5281.7	
219.38	6210.8	
219.59	3583.9	
219.8	4226.3	
220.01	6901	
220.23	5336.3	
220.44	4629.1	
220.65	3475.4	
220.87	5406	
221.08	5969.1	
221.29	3284.9	
221.5	4296	
221.72	7280.5	
221.93	5061.9	
222.14	4042.7	
222.35	4709	
222.57	5351.3	
222.78	5719.3	
222.99	3792.2	
223.2	4095.9	
223.42	5642.8	
223.63	5755.5	
223.84	2925.2	
224.05	2940.9	
224.27	6834.8	
224.48	6184.9	
224.69	4749.2	
224.9	4009.2	
225.12	5571.8	
225.33	5345.9	
225.54	3220.8	
225.75	3577.1	
225.97	4936.3	
226.18	5219.6	
226.39	3845.4	
226.6	3610.6	
226.82	5127.4	
227.03	4981.3	
227.24	3995.6	
227.45	3323.2	
227.67	5754.1	
227.88	6296.1	
228.09	4399	
228.3	4468.7	
228.52	5745.9	
228.73	5315.2	
228.94	3704.1	
229.15	3259.7	
229.36	5239.4	
229.58	5169.1	
229.79	3719.8	
230	4336.2	
230.21	6393.8	
230.43	5427.1	
230.64	3917.8	
230.85	4128	
231.06	5798.5	
231.28	5787.6	
231.49	3278.8	
231.7	3835.2	
231.91	5649.7	
232.12	5381.4	
232.34	3373.7	
232.55	3851.5	
232.76	5959.6	
232.97	5487.9	
233.18	3513.6	
233.4	3962.1	
233.61	5539.1	
233.82	5238	
234.03	3665.9	
234.25	3581.9	
234.46	7439.6	
234.67	5387.5	
234.88	4119.8	
235.09	3533.4	
235.31	5617.6	
235.52	5218.9	
235.73	3966.2	
235.94	3345.7	
236.15	5134.9	
236.37	6481.8	
236.58	3501.3	
236.79	3801.7	
237	5642.8	
237.21	4884.4	
237.43	4128.7	
237.64	3235.1	
237.85	9638.4	
238.06	4904.9	
238.27	4156	
238.48	3323.2	
238.7	5621.7	
238.91	5250.3	
239.12	3828.3	
239.33	3817.4	
239.54	4962.9	
239.76	5317.2	
239.97	3732.1	
240.18	3821.5	
240.39	6716.7	
240.6	5584.8	
240.82	3973.1	
241.03	3267.9	
241.24	5357.5	
241.45	6221.7	
241.66	3506.1	
241.87	4125.3	
242.09	6064	
242.3	6452.5	
242.51	4192.9	
242.72	3797.6	
242.93	5851	
243.14	5303.6	
243.36	4384	
243.57	4771.8	
243.78	6173.3	
243.99	5716.6	
244.2	3896.6	
244.41	3461.1	
244.63	4922	
244.84	5644.2	
245.05	4154	
245.26	3879.5	
245.47	5584.8	
245.68	5881.1	
245.9	5125.4	
246.11	4027.7	
246.32	5197.1	
246.53	5582.1	
246.74	6217.6	
246.95	3239.2	
247.16	4875.5	
247.38	5349.3	
247.59	3192.8	
247.8	3834.5	
248.01	5035.3	
248.22	5275.6	
248.43	3500.7	
248.64	3702.7	
248.86	4751.3	
249.07	5135.6	
249.28	3325.9	
249.49	3920.5	
249.7	5854.5	
249.91	6069.5	
250.12	3229	
250.34	3225.6	
250.55	5472.9	
250.76	5367	
250.97	4017.4	
251.18	3975.8	
251.39	6061.3	
251.6	5533.6	
251.81	4063.9	
252.03	3970.3	
252.24	5141.8	
252.45	5840.1	
252.66	3300.6	
252.87	4225	
253.08	5372.5	
253.29	7027.3	
253.5	3368.2	
253.72	4632.5	
253.93	5196.4	
254.14	6350.8	
254.35	3640.6	
254.56	3723.2	
254.77	5580	
254.98	4952	
255.19	3561.4	
255.41	4633.9	
255.62	5423.7	
255.83	6021	
256.04	4101.4	
256.25	4014	
256.46	6636.1	
256.67	5042.1	
256.88	3973.1	
257.09	4360.8	
257.31	4996.4	
257.52	5051	
257.73	4953.4	
257.94	3642	
258.15	5309.7	
258.36	5402.5	
258.57	4585.4	
258.78	2941.6	
258.99	5822.4	
259.2	5223	
259.41	3672.7	
259.63	3728	
259.84	6148	
260.05	6615.6	
260.26	4777.2	
260.47	3508.2	
260.68	5880.4	
260.89	5272.2	
261.1	4400.4	
261.31	3471.3	
261.52	5910.4	
261.73	6266.8	
261.95	4730.8	
262.16	4203.8	
262.37	6095.4	
262.58	6145.3	
262.79	4661.2	
263	3719.8	
263.21	5350	
263.42	4909	
263.63	3757.3	
263.84	3700.7	
264.05	5871.5	
264.26	6309.1	
264.47	4600.4	
264.69	4145.8	
264.9	6062	
265.11	5560.9	
265.32	3562.8	
265.53	3661.8	
265.74	5447.6	
265.95	4792.2	
266.16	3893.9	
266.37	4332.1	
266.58	5511.8	
266.79	5223	
267	3614	
267.21	3338.9	
267.42	4917.9	
267.63	5362.9	
267.84	3818.8	
268.06	3253.5	
268.27	5764.3	
268.48	6085.9	
268.69	3654.9	
268.9	4433.9	
269.11	6059.3	
269.32	4866	
269.53	3851.5	
269.74	3526.6	
269.95	5644.2	
270.16	4717.8	
270.37	3839.3	
270.58	4367.6	
270.79	5209.3	
271	5866.7	
271.21	4131.4	
271.42	3832.4	
271.63	5557.5	
271.84	5055.1	
272.05	3050.1	
272.26	3442	
272.47	5356.8	
272.68	5588.2	
272.89	3670.6	
273.11	4261.1	
273.32	5148.6	
273.53	6277.7	
273.74	4129.4	
273.95	4022.9	
274.16	5915.9	
274.37	5470.8	
274.58	4170.3	
274.79	3340.2	
275	5537	
275.21	6016.9	
275.42	4980.7	
275.63	4340.3	
275.84	5643.5	
276.05	7069.6	
276.26	4053.6	
276.47	3744.4	
276.68	5248.3	
276.89	6307.1	
277.1	4289.8	
277.31	3396.2	
277.52	5644.9	
277.73	5822.4	
277.94	3265.8	
278.15	3700.7	
278.36	5569.1	
278.57	5001.1	
278.78	3674.7	
278.99	4116.4	
279.2	5009.3	
279.41	4962.9	
279.62	4846.2	
279.83	3389.4	
280.04	6567.2	
280.25	4892.6	
280.46	4792.9	
280.67	3880.2	
280.88	4977.2	
281.09	6010.8	
281.3	4063.2	
281.51	5130.2	
281.72	5059.2	
281.93	5851.7	
282.14	3589.4	
282.35	3873.4	
282.56	5813.5	
282.77	5864	
282.98	3678.8	
283.19	4513.7	
283.4	7177.4	
283.61	5274.9	
283.82	3353.2	
284.03	4762.2	
284.24	5477	
284.45	5984.8	
284.66	4748.6	
284.87	4546.5	
285.08	5893.4	
285.29	6083.8	
285.5	3236.5	
285.71	3751.2	
285.92	5980.8	
286.12	6568.5	
286.33	4727.4	
286.54	3681.6	
286.75	5851	
286.96	5246.9	
287.17	3462.4	
287.38	4620.2	
287.59	5018.9	
287.8	4952.7	
288.01	3738.9	
288.22	4296	
288.43	5840.8	
288.64	4905.6	
288.85	4483	
289.06	4239.3	
289.27	6110.5	
289.48	6305.7	
289.69	4750.6	
289.9	4289.8	
290.11	6007.4	
290.32	5040.1	
290.53	4537.6	
290.74	4132.1	
290.94	5850.4	
291.15	5873.6	
291.36	3635.8	
291.57	4248.2	
291.78	5130.2	
291.99	4773.8	
292.2	3454.2	
292.41	4170.3	
292.62	5904.3	
292.83	5666	
293.04	5186.8	
293.25	3499.3	
293.46	5211.4	
293.67	5913.2	
293.88	3609.2	
294.09	3468.6	
294.29	4926	
294.5	5514.5	
294.71	3824.2	
294.92	3693.9	
295.13	5152.7	
295.34	6451.8	
295.55	3209.8	
295.76	3308.8	
295.97	5794.4	
296.18	6546	
296.39	3390.1	
296.6	3650.2	
296.81	5448.3	
297.01	5757.5	
297.22	3812	
297.43	3584.6	
297.64	5051.7	
297.85	4977.9	
298.06	2974.3	
298.27	3220.8	
298.48	5395	
298.69	5078.3	
298.9	3876.8	
299.11	3508.9	
299.31	4894	
299.52	4941.1	
299.73	4194.9	
299.94	4114.4	
300.15	5341.1	
300.36	5020.3	
300.57	4106.2	
300.78	4117.8	
300.99	5240.1	
301.2	5507	
301.4	3557.3	
301.61	3891.1	
301.82	5664.7	
302.03	5769.8	
302.24	4430.4	
302.45	3439.9	
302.66	5670.1	
302.87	6133	
303.08	3568.2	
303.29	4863.2	
303.49	5085.8	
303.7	5384.8	
303.91	3237.8	
304.12	4758.1	
304.33	4863.2	
304.54	5528.8	
304.75	3605.1	
304.96	3436.5	
305.16	5705.6	
305.37	6361.7	
305.58	3135.4	
305.79	3257	
306	5721.3	
306.21	4784.1	
306.42	3577.1	
306.63	5570.5	
306.83	5223.7	
307.04	5943.9	
307.25	3959.4	
307.46	3973.1	
307.67	4603.8	
307.88	5831.2	
308.09	3541.6	
308.29	3675.4	
308.5	5413.5	
308.71	5954.1	
308.92	3849.5	
309.13	3482.9	
309.34	5259.2	
309.55	5294	
309.75	4480.3	
309.96	4094.6	
310.17	5749.3	
310.38	5083.7	
310.59	4284.4	
310.8	4033.1	
311.01	6488.6	
311.21	5281	
311.42	3405.8	
311.63	3540.3	
311.84	5164.3	
312.05	5524.1	
312.26	3944.4	
312.46	4380.6	
312.67	5169.8	
312.88	4927.4	
313.09	3527.3	
313.3	3370.3	
313.51	6096.8	
313.71	6479.8	
313.92	3470.6	
314.13	3685.7	
314.34	5570.5	
314.55	5261.2	
314.76	4472.8	
314.96	3923.2	
315.17	5412.8	
315.38	5702.9	
315.59	3497.9	
315.8	3353.2	
316.01	6246.3	
316.21	6258.6	
316.42	3327.9	
316.63	3840.6	
316.84	5231.9	
317.05	6076.3	
317.26	4128	
317.46	3732.8	
317.67	5335.6	
317.88	5757.5	
318.09	4425	
318.3	3237.8	
318.5	5115.1	
318.71	5632.6	
318.92	5605.3	
319.13	4098.7	
319.34	5924.8	
319.54	5961.6	
319.75	3211.9	
319.96	3149.8	
320.17	5745.9	
320.38	5953.4	
320.58	3192.1	
320.79	3758.7	
321	5894.1	
321.21	6084.5	
321.42	3800.3	
321.62	3170.3	
321.83	5009.3	
322.04	5405.3	
322.25	3653.6	
322.46	3497.9	
322.66	5524.1	
322.87	5598.5	
323.08	4294.6	
323.29	3427.6	
323.5	6442.9	
323.7	4978.6	
323.91	4769	
324.12	4230.4	
324.33	5468.8	
324.53	5713.2	
324.74	4040.6	
324.95	4268.6	
325.16	4730.1	
325.37	5212.1	
325.57	3514.3	
325.78	3583.9	
325.99	5414.1	
326.2	4855.1	
326.4	5076.9	
326.61	3212.6	
326.82	5311.7	
327.03	5453.7	
327.24	4935.6	
327.44	4687.8	
327.65	5595.7	
327.86	4572.4	
328.07	4065.2	
328.27	3349.1	
328.48	6040.1	
328.69	4966.3	
328.9	5003.9	
329.1	3711.6	
329.31	5249.6	
329.52	6182.8	
329.73	3452.9	
329.93	3949.2	
330.14	5373.9	
330.35	5597.8	
330.56	5791.7	
330.76	4348.5	
330.97	5197.1	
331.18	5568.4	
331.39	3924.6	
331.59	3121.1	
331.8	5999.2	
332.01	6061.3	
332.22	3627.6	
332.42	4105.5	
332.63	5526.8	
332.84	5114.5	
333.05	3906.8	
333.25	3539.6	
333.46	5139	
333.67	5339.1	
333.88	3605.8	
334.08	4022.9	
334.29	7833.5	
334.5	5989.6	
334.7	3421.5	
334.91	4973.8	
335.12	4919.9	
335.33	5750	
335.53	3852.9	
335.74	5684.5	
335.95	5100.1	
336.16	5005.2	
336.36	3863.8	
336.57	4459.1	
336.78	4969.7	
336.98	5916.6	
337.19	4777.2	
337.4	3818.8	
337.61	6451.1	
337.81	4919.9	
338.02	3568.2	
338.23	4591.5	
338.43	6170.5	
338.64	5038.7	
338.85	3512.3	
339.05	4540.3	
339.26	6214.2	
339.47	4798.4	
339.68	3509.5	
339.88	5213.4	
340.09	5594.4	
340.3	5872.9	
340.5	4095.3	
340.71	3152.5	
340.92	4842.8	
341.13	6069.5	
341.33	3371.6	
341.54	4126	
341.75	5615.5	
341.95	5250.3	
342.16	3943	
342.37	4273.4	
342.57	4933.6	
342.78	5388.9	
342.99	4388.1	
343.19	3149.8	
343.4	5762.3	
343.61	5666.7	
343.81	3696.6	
344.02	3426.3	
344.23	5814.9	
344.43	6188.3	
344.64	4272.7	
344.85	4222.9	
345.06	5655.1	
345.26	5911.1	
345.47	4074.8	
345.68	4730.1	
345.88	4717.2	
346.09	5838.8	
346.3	4132.8	
346.5	3102.7	
346.71	5348.6	
346.92	5014.1	
347.12	3231	
347.33	4029.7	
347.54	5901.6	
347.74	6298.9	
347.95	4004.5	
348.16	2972.3	
348.36	5175.9	
348.57	4911	
348.78	4022.9	
348.98	4285	
349.19	5335.6	
349.39	4825	
349.6	3233.7	
349.81	3596.2	
350.01	5599.1	
350.22	5073.5	
350.43	3886.4	
350.63	4644.1	
350.84	5404.6	
351.05	5181.4	
351.25	3555.3	
351.46	3251.5	
351.67	5940.5	
351.87	5026.4	
352.08	3754.6	
352.29	4206.5	
352.49	5785.5	
352.7	5893.4	
352.9	3367.5	
353.11	4237.9	
353.32	6489.3	
353.52	5186.8	
353.73	3383.2	
353.94	4310.3	
354.14	5687.2	
354.35	5427.1	
354.55	3447.4	
354.76	3878.9	
354.97	5593.7	
355.17	5369.8	
355.38	3251.5	
355.59	4539	
355.79	5053	
356	5416.9	
356.2	3836.5	
356.41	3344.3	
356.62	4773.1	
356.82	5230.5	
357.03	4149.9	
357.24	3662.5	
357.44	5062.6	
357.65	5170.4	
357.85	4890.5	
358.06	3834.5	
358.27	4745.8	
358.47	5051.7	
358.68	3182.5	
358.88	4105.5	
359.09	5575.3	
359.3	5874.9	
359.5	4717.2	
359.71	4173.1	
359.91	6343.9	
360.12	5713.2	
360.33	3999	
360.53	4484.4	
360.74	5040.7	
360.94	5061.9	
361.15	4201.1	
361.36	3497.2	
361.56	5829.9	
361.77	5261.2	
361.97	4668	
362.18	3767.6	
362.38	5787.6	
362.59	4861.9	
362.8	3378.5	
363	3244.7	
363.21	4712.4	
363.41	5335.6	
363.62	3955.3	
363.83	4908.3	
364.03	5371.8	
364.24	6386.9	
364.44	5023.7	
364.65	4868.7	
364.85	5152	
365.06	5047.6	
365.27	3580.5	
365.47	3609.2	
365.68	6154.1	
365.88	5187.5	
366.09	3968.3	
366.29	3660.4	
366.5	5399.8	
366.71	5899.5	
366.91	4849.6	
367.12	4137.6	
367.32	6390.3	
367.53	5672.9	
367.73	4048.8	
367.94	5045.5	
368.14	5601.9	
368.35	6490.7	
368.56	4077.5	
368.76	3422.8	
368.97	5748	
369.17	7368.6	
369.38	3534.8	
369.58	3863.8	
369.79	4784.7	
369.99	6129.6	
370.2	4803.2	
370.4	3941.7	
370.61	5440.1	
370.82	6617.7	
371.02	3796.3	
371.23	3160	
371.43	4676.9	
371.64	6023.8	
371.84	3844	
372.05	4958.1	
372.25	7283.3	
372.46	5756.8	
372.66	3812.6	
372.87	3792.8	
373.07	5804.6	
373.28	7338.6	
373.48	4821.6	
373.69	4518.5	
373.9	5253	
374.1	5246.9	
374.31	4734.9	
374.51	4216.1	
374.72	6046.3	
374.92	4920.6	
375.13	4898.1	
375.33	4107.5	
375.54	5589.6	
375.74	5038	
375.95	4143	
376.15	5311.1	
376.36	5586.9	
376.56	5476.3	
376.77	4177.2	
376.97	4642.7	
377.18	6612.9	
377.38	5705.6	
377.59	4969.1	
377.79	3672.7	
378	5477	
378.2	5907	
378.41	3743.7	
378.61	3596.9	
378.82	5929.6	
379.02	5014.1	
379.23	3850.9	
379.43	4946.5	
379.64	6028.5	
379.84	5634	
380.05	3681.6	
380.25	3638.6	
380.46	5716.6	
380.66	5272.8	
380.87	4969.1	
381.07	5371.1	
381.28	6279.8	
381.48	5711.1	
381.69	3721.2	
381.89	3721.2	
382.1	4698	
382.3	5894.1	
382.51	4787.5	
382.71	5770.5	
382.91	5733.6	
383.12	6200.6	
383.32	4052.2	
383.53	4340.3	
383.73	5558.9	
383.94	5317.9	
384.14	4206.5	
384.35	3407.8	
384.55	5279	
384.76	5760.9	
384.96	4116.4	
385.17	4446.1	
385.37	5763	
385.58	5070.1	
385.78	4415.4	
385.98	3344.3	
386.19	5223.7	
386.39	5595.7	
386.6	3863.8	
386.8	4137.6	
387.01	5765	
387.21	5726.1	
387.42	4513	
387.62	5094	
387.83	5058.5	
388.03	5709.1	
388.23	4172.4	
388.44	4876.9	
388.64	4702.1	
388.85	4846.9	
389.05	4459.8	
389.26	4995	
389.46	6651.8	
389.67	6142.5	
389.87	4390.2	
390.07	4482.3	
390.28	5291.3	
390.48	4967.7	
390.69	3673.4	
390.89	4027.7	
391.1	5124	
391.3	6029.9	
391.5	5091.3	
391.71	5731.6	
391.91	5732.3	
392.12	6702.3	
392.32	5205.9	
392.53	4410	
392.73	5138.4	
392.93	5331.5	
393.14	4120.5	
393.34	4892.6	
393.55	5737.7	
393.75	5354.1	
393.95	4113.7	
394.16	4110.3	
394.36	5122	
394.57	5754.8	
394.77	3620.1	
394.98	4064.5	
395.18	5031.2	
395.38	5272.2	
395.59	4915.8	
395.79	3836.5	
396	5153.4	
396.2	5601.9	
396.4	4648.9	
396.61	4590.2	
396.81	5816.9	
397.02	5085.8	
397.22	4835.3	
397.42	4885.8	
397.63	5771.9	
397.83	5033.2	
398.04	3691.8	
398.24	4209.9	
398.44	5593	
398.65	4700.8	
398.85	3611.3	
399.05	3769.6	
399.26	4973.8	
399.46	6711.9	
399.67	4090.5	
399.87	3779.2	
400.07	5288.5	
400.28	5702.2	
400.48	3876.1	
400.69	4881.7	
400.89	5891.3	
401.09	6275.7	
401.3	3729.4	
401.5	4930.1	
401.7	6443.6	
401.91	6751.5	
402.11	4070	
402.32	4272.1	
402.52	5839.4	
402.72	5808	
402.93	4519.2	
403.13	3437.2	
403.33	6636.8	
403.54	5367	
403.74	4291.2	
403.94	5126.1	
404.15	5540.4	
404.35	6698.9	
404.56	4103.4	
404.76	5868.1	
404.96	5902.2	
405.17	5776	
405.37	5264.6	
405.57	4479.6	
405.78	5849	
405.98	5369.1	
406.18	4075.5	
406.39	4934.2	
406.59	5913.9	
406.79	5496.1	
407	3886.4	
407.2	4024.3	
407.4	5994.4	
407.61	6150.7	
407.81	3958	
408.01	6068.1	
408.22	4890.5	
408.42	6842.9	
408.62	4931.5	
408.83	4474.1	
409.03	5465.3	
409.23	5202.5	
409.44	4430.4	
409.64	4715.1	
409.84	6344.6	
410.05	6165.1	
410.25	4541.7	
410.45	4308.9	
410.66	5600.5	
410.86	8072.4	
411.06	4666.6	
411.27	4483	
411.47	7727.7	
411.67	5789.6	
411.88	4766.3	
412.08	4957.4	
412.28	6351.4	
412.49	6802	
412.69	4500.8	
412.89	4496.7	
413.09	6661.4	
413.3	6548.7	
413.5	4560.8	
413.7	4132.1	
413.91	5810.8	
414.11	6653.9	
414.31	4347.2	
414.52	4810	
414.72	6296.1	
414.92	6195.8	
415.12	4414.7	
415.33	4904.2	
415.53	6503.7	
415.73	6786.3	
415.94	5282.4	
416.14	4610.7	
416.34	5591.6	
416.55	5338.4	
416.75	5906.3	
416.95	5266	
417.15	6500.9	
417.36	7326.3	
417.56	5977.3	
417.76	5096	
417.97	6838.9	
418.17	6478.4	
418.37	4595	
418.57	4691.2	
418.78	6318.7	
418.98	5969.1	
419.18	5588.9	
419.38	5558.2	
419.59	6090	
419.79	5666	
419.99	4584.7	
420.2	5005.2	
420.4	6576.7	
420.6	6728.9	
420.8	4513	
421.01	4332.1	
421.21	6349.4	
421.41	6515.3	
421.61	4874.2	
421.82	4579.9	
422.02	5806	
422.22	6832	
422.42	5335	
422.63	5058.5	
422.83	6042.9	
423.03	7148.1	
423.23	5077.6	
423.44	4039.3	
423.64	6063.4	
423.84	5872.9	
424.04	4544.4	
424.25	4231.8	
424.45	6989.7	
424.65	6974.7	
424.85	4008.6	
425.06	4627.7	
425.26	6995.9	
425.46	6025.8	
425.66	5044.8	
425.87	4758.1	
426.07	6748.1	
426.27	6610.2	
426.47	4899.4	
426.67	4256.4	
426.88	7096.9	
427.08	6524.8	
427.28	5098.8	
427.48	4238.6	
427.69	5487.9	
427.89	6152.1	
428.09	5151.3	
428.29	4321.2	
428.5	6730.3	
428.7	6354.2	
428.9	4078.2	
429.1	4764.3	
429.3	6236.1	
429.51	6657.3	
429.71	4539	
429.91	5307	
430.11	6483.2	
430.31	6707.1	
430.52	4687.8	
430.72	5042.8	
430.92	7118.7	
431.12	6490.7	
431.32	4445.5	
431.53	4828.4	
431.73	5462.6	
431.93	7146.7	
432.13	4364.9	
432.33	4176.5	
432.54	5943.9	
432.74	6209.4	
432.94	4086.4	
433.14	5192.3	
433.34	6406.7	
433.55	5940.5	
433.75	5107	
433.95	6793.1	
434.15	6257.9	
434.35	5942.5	
434.56	4297.3	
434.76	3785.3	
434.96	6174.6	
435.16	6361	
435.36	4185.4	
435.56	5281	
435.77	5806.7	
435.97	5972.6	
436.17	5964.4	
436.37	5172.5	
436.57	5817.6	
436.78	5597.1	
436.98	6980.8	
437.18	5720.7	
437.38	6378.7	
437.58	5948.7	
437.78	5855.1	
437.99	4563.6	
438.19	6476.4	
438.39	7238.9	
438.59	4562.2	
438.79	4095.3	
438.99	7201.3	
439.2	6038.8	
439.4	4298	
439.6	4134.2	
439.8	6371.9	
440	7323.5	
440.2	5131.5	
440.4	5225.7	
440.61	6663.4	
440.81	7182.9	
441.01	4318.5	
441.21	5026.4	
441.41	6946.7	
441.61	6592.4	
441.81	5310.4	
442.02	6445.6	
442.22	7447.1	
442.42	6714.6	
442.62	4325.3	
442.82	4410	
443.02	7016.3	
443.22	6072.2	
443.43	4758.8	
443.63	4340.3	
443.83	5906.3	
444.03	5911.8	
444.23	5468.8	
444.43	5085.8	
444.63	6190.3	
444.83	7390.4	
445.04	4349.9	
445.24	5650.3	
445.44	6643.6	
445.64	6702.3	
445.84	5233.2	
446.04	5174.5	
446.24	5922	
446.44	6991.1	
446.65	4409.3	
446.85	4791.6	
447.05	6214.2	
447.25	6936.5	
447.45	4930.1	
447.65	4291.9	
447.85	6361.7	
448.05	5999.2	
448.25	5343.2	
448.46	5184.1	
448.66	6358.9	
448.86	6068.1	
449.06	4157.4	
449.26	5323.4	
449.46	6660.7	
449.66	5750	
449.86	4721.9	
450.06	4727.4	
450.26	5920	
450.47	6473.6	
450.67	5038.7	
450.87	5362.3	
451.07	6582.2	
451.27	6312.5	
451.47	4382.7	
451.67	4887.8	
451.87	5934.3	
452.07	7201.3	
452.27	4550.6	
452.47	4600.4	
452.67	6330.3	
452.88	6886.6	
453.08	4031.8	
453.28	5937.1	
453.48	7533.1	
453.68	6265.4	
453.88	4465.3	
454.08	4748.6	
454.28	6592.4	
454.48	6300.2	
454.68	5199.1	
454.88	5747.3	
455.08	6732.4	
455.28	6419	
455.48	4388.8	
455.68	4911	
455.89	7184.3	
456.09	6806.1	
456.29	4728.8	
456.49	4643.4	
456.69	7059.3	
456.89	6224.5	
457.09	5238	
457.29	5566.4	
457.49	6568.5	
457.69	6751.5	
457.89	4971.1	
458.09	4400.4	
458.29	6340.5	
458.49	7002.7	
458.69	5304.9	
458.89	4837.3	
459.09	7174	
459.29	7277.8	
459.49	4919.9	
459.69	5675.6	
459.9	6784.2	
460.1	6260	
460.3	4801.1	
460.5	4614.8	
460.7	6761.7	
460.9	6419	
461.1	4195.6	
461.3	5427.8	
461.5	7311.2	
461.7	6927.6	
461.9	4566.3	
462.1	5153.4	
462.3	6356.9	
462.5	7016.3	
462.7	4678.9	
462.9	4737	
463.1	8009.6	
463.3	7645.1	
463.5	4887.8	
463.7	5767.8	
463.9	6533	
464.1	6862.1	
464.3	4942.4	
464.5	5255.1	
464.7	7134.4	
464.9	6764.4	
465.1	6534.4	
465.3	5541.8	
465.5	7512.6	
465.7	7459.4	
465.9	5722	
466.1	5671.5	
466.3	7244.3	
466.5	7096.9	
466.7	6384.2	
466.9	5345.9	
467.1	7040.2	
467.3	7912.7	
467.5	6404	
467.7	5290.6	
467.9	8211.7	
468.1	8980.3	
468.3	6010.8	
468.5	6387.6	
468.7	6914.6	
468.9	6953.5	
469.1	5409.4	
469.3	6205.3	
469.5	8862.9	
469.7	6460.7	
469.9	5947.3	
470.1	5199.1	
470.3	6951.5	
470.5	6965.8	
470.7	6457.2	
470.9	5293.3	
471.1	6678.4	
471.3	7254.6	
471.5	5143.8	
471.69	7079.8	
471.89	6649.8	
472.09	6133.7	
472.29	5940.5	
472.49	6395.8	
472.69	6324.1	
472.89	7126.2	
473.09	5046.2	
473.29	5302.2	
473.49	6471.6	
473.69	6799.3	
473.89	6208.1	
474.09	5373.9	
474.29	7987.1	
474.49	7666.2	
474.69	6142.5	
474.89	5621	
475.09	6713.2	
475.29	6701	
475.49	5033.9	
475.69	5220.3	
475.88	8333.2	
476.08	7075.7	
476.28	4897.4	
476.48	5454.4	
476.68	7549.5	
476.88	7397.3	
477.08	5319.9	
477.28	5524.1	
477.48	6863.4	
477.68	7559.7	
477.88	5047.6	
478.08	5384.1	
478.28	7759.1	
478.48	6974.7	
478.67	5356.1	
478.87	4875.5	
479.07	7700.4	
479.27	7114	
479.47	5705.6	
479.67	5647.6	
479.87	7473.7	
480.07	7972.7	
480.27	4882.4	
480.47	6490.7	
480.67	7183.6	
480.87	7748.1	
481.06	5219.6	
481.26	5976	
481.46	7015.7	
481.66	6987	
481.86	5623	
482.06	6677.1	
482.26	6754.2	
482.46	7832.1	
482.66	5602.6	
482.86	5145.9	
483.05	7088.7	
483.25	6563.1	
483.45	8011	
483.65	5541.8	
483.85	6718	
484.05	6945.3	
484.25	6077.7	
484.45	6477	
484.65	7864.9	
484.84	7865.6	
485.04	5425.8	
485.24	5521.3	
485.44	8092.2	
485.64	6447.7	
485.84	4744.5	
486.04	6067.4	
486.24	6802.7	
486.44	7195.2	
486.63	4713.1	
486.83	5481	
487.03	6692.8	
487.23	6870.3	
487.43	4870.8	
487.63	7157	
487.83	6898.2	
488.02	7940.7	
488.22	5794.4	
488.42	6382.2	
488.62	7800	
488.82	6721.4	
489.02	5490.6	
489.22	5473.5	
489.41	7677.8	
489.61	7255.3	
489.81	5252.4	
490.01	5151.3	
490.21	7533.1	
490.41	8231.5	
490.61	5051	
490.8	5263.3	
491	6999.3	
491.2	6386.2	
491.4	5923.4	
491.6	5068.7	
491.8	7127.6	
491.99	7322.2	
492.19	4895.3	
492.39	5322.7	
492.59	7711.3	
492.79	7719.5	
492.99	6133	
493.18	5110.4	
493.38	7730.4	
493.58	8393.9	
493.78	5857.9	
493.98	5498.1	
494.18	7370	
494.37	6822.5	
494.57	6010.1	
494.77	5952.1	
494.97	7546.1	
495.17	7755.7	
495.37	5427.1	
495.56	5765.7	
495.76	7972.1	
495.96	7610.3	
496.16	6745.3	
496.36	5604.6	
496.55	7754.3	
496.75	7277.8	
496.95	5917.3	
497.15	5864.7	
497.35	7752.9	
497.54	7762.5	
497.74	5687.2	
497.94	7305.8	
498.14	8437.6	
498.34	8210.3	
498.53	5318.6	
498.73	6141.2	
498.93	6994.5	
499.13	7570.7	
499.33	5870.8	
499.52	6283.9	
499.72	7583.6	
499.92	7962.5	
500.12	5483.8	
500.32	5860.6	
500.51	7876.5	
500.71	7627.3	
500.91	6634.7	
501.11	6184.2	
501.31	7669.6	
501.5	8215.1	
501.7	6888	
501.9	5885.9	
502.1	7578.2	
502.29	7900.4	
502.49	6290.7	
502.69	6736.5	
502.89	7843.7	
503.09	7733.1	
503.28	5358.9	
503.48	5571.8	
503.68	7022.5	
503.88	7092.8	
504.07	6475	
504.27	6054.5	
504.47	7407.5	
504.67	7692.2	
504.86	6373.3	
505.06	6070.9	
505.26	7236.2	
505.46	8974.2	
505.65	5974.6	
505.85	6295.5	
506.05	7194.5	
506.25	7614.3	
506.44	5384.8	
506.64	6350.8	
506.84	7064.1	
507.04	8034.2	
507.23	5596.4	
507.43	6217.6	
507.63	9101.9	
507.83	7298.3	
508.02	6170.5	
508.22	5806.7	
508.42	9315.5	
508.62	7160.4	
508.81	6188.3	
509.01	6635.4	
509.21	7105.8	
509.4	7306.5	
509.6	6230.6	
509.8	5671.5	
510	7248.4	
510.19	8613.8	
510.39	5569.1	
510.59	5722	
510.79	7014.3	
510.98	8452.6	
511.18	5727.5	
511.38	5773.2	
511.57	7881.3	
511.77	7703.8	
511.97	6634.7	
512.17	5472.9	
512.36	7962.5	
512.56	7862.8	
512.76	5564.3	
512.95	5413.5	
513.15	8034.9	
513.35	6684.6	
513.55	6386.9	
513.74	5685.2	
513.94	7967.3	
514.14	7266.2	
514.33	6558.3	
514.53	6278.4	
514.73	7306.5	
514.92	7484	
515.12	5745.2	
515.32	5552.7	
515.51	7546.1	
515.71	8028.7	
515.91	7256	
516.11	5608.7	
516.3	9155.1	
516.5	7157.7	
516.7	6178.7	
516.89	6835.4	
517.09	7328.3	
517.29	7234.8	
517.48	6554.9	
517.68	5928.2	
517.88	7019.1	
518.07	7687.4	
518.27	6446.3	
518.47	5534.3	
518.66	8226	
518.86	6873	
519.06	5380.7	
519.25	5857.2	
519.45	7144	
519.65	8583	
519.84	6391.7	
520.04	7044.3	
520.24	8954.4	
520.43	7786.4	
520.63	6112.5	
520.83	5987.6	
521.02	7084.6	
521.22	7752.2	
521.42	6423.1	
521.61	6959	
521.81	7304.4	
522.01	7520.8	
522.2	6270.2	
522.4	6102.3	
522.6	7974.8	
522.79	6819.7	
522.99	6147.3	
523.18	5459.9	
523.38	7681.9	
523.58	7680.6	
523.77	7297.6	
523.97	5427.1	
524.17	9459.6	
524.36	8688.8	
524.56	6684.6	
524.76	6305	
524.95	7609.6	
525.15	7249.8	
525.34	6127.5	
525.54	6096.1	
525.74	7951.6	
525.93	6864.8	
526.13	7192.5	
526.33	6012.2	
526.52	8241	
526.72	7740	
526.91	7277.8	
527.11	6559	
527.31	8286.8	
527.5	8706.6	
527.7	6308.4	
527.89	5459.2	
528.09	7029.3	
528.29	7746.8	
528.48	6740.5	
528.68	6511.9	
528.87	8084	
529.07	8231.5	
529.27	6380.8	
529.46	5845.6	
529.66	7671	
529.85	8236.9	
530.05	5728.2	
530.25	6399.2	
530.44	9128.5	
530.64	7684.7	
530.83	6141.9	
531.03	6448.4	
531.23	8085.4	
531.42	7924.3	
531.62	7122.2	
531.81	6305	
532.01	8198.7	
532.21	8698.4	
532.4	6025.8	
532.6	6402.6	
532.79	9173.5	
532.99	8233.5	
533.18	6414.2	
533.38	7432.1	
533.58	7761.1	
533.77	8645.8	
533.97	6335.7	
534.16	7140.6	
534.36	8766.7	
534.55	7759.8	
534.75	7251.9	
534.95	6363.7	
535.14	8618.5	
535.34	7755	
535.53	6038.8	
535.73	7942.7	
535.92	9163.3	
536.12	8005.5	
536.31	6238.8	
536.51	7332.4	
536.71	8322.9	
536.9	7848.5	
537.1	6349.4	
537.29	6531	
537.49	8836.3	
537.68	7725.6	
537.88	6886	
538.07	6070.9	
538.27	8017.8	
538.46	8934.6	
538.66	5980.8	
538.86	6355.5	
539.05	8032.1	
539.25	8430.8	
539.44	6649.8	
539.64	6382.8	
539.83	7948.2	
540.03	8927.1	
540.22	6164.4	
540.42	6466.1	
540.61	8207.6	
540.81	8254	
541	6898.2	
541.2	7354.9	
541.39	7710.6	
541.59	8196	
541.78	7075	
541.98	6223.8	
542.18	7393.2	
542.37	7344	
542.57	6599.9	
542.76	7104.4	
542.96	7438.9	
543.15	8204.2	
543.35	6725.5	
543.54	6032.6	
543.74	8585.8	
543.93	8086.1	
544.13	6649.8	
544.32	7719.5	
544.52	8416.5	
544.71	7672.4	
544.91	5827.2	
545.1	7040.9	
545.3	7658	
545.49	8432.9	
545.69	5803.3	
545.88	6374.6	
546.08	9301.2	
546.27	8906.6	
546.47	6868.2	
546.66	6146	
546.86	8623.3	
547.05	9251.4	
547.24	6365.8	
547.44	6269.5	
547.63	7527	
547.83	8615.8	
548.02	6668.9	
548.22	6840.9	
548.41	7387.7	
548.61	8789.2	
548.8	6193.7	
549	6165.1	
549.19	8012.3	
549.39	8336.6	
549.58	5880.4	
549.78	6503.7	
549.97	8438.3	
550.17	7941.3	
550.36	7416.4	
550.55	8414.4	
550.75	7897	
550.94	8799.4	
551.14	6140.5	
551.33	6621.8	
551.53	7325.6	
551.72	8354.3	
551.92	6666.1	
552.11	6391.7	
552.31	8326.4	
552.5	8355.7	
552.69	8108.6	
552.89	6059.3	
553.08	8303.1	
553.28	7969.3	
553.47	6414.9	
553.67	7527	
553.86	8955.1	
554.06	7367.9	
554.25	5632.6	
554.44	6226.5	
554.64	9771.5	
554.83	9223.4	
555.03	6152.1	
555.22	6575.3	
555.42	8553.7	
555.61	8202.1	
555.8	6384.9	
556	6653.2	
556.19	7339.2	
556.39	8708	
556.58	6399.9	
556.78	6356.2	
556.97	8202.1	
557.16	7820.5	
557.36	7649.2	
557.55	6084.5	
557.75	7124.2	
557.94	8933.9	
558.13	6208.1	
558.33	5920	
558.52	8625.4	
558.72	7623.9	
558.91	6107.7	
559.1	6311.8	
559.3	7308.5	
559.49	7012.2	
559.69	5656.5	
559.88	6753.5	
560.07	8146.8	
560.27	8514.8	
560.46	6819.1	
560.66	7017.7	
560.85	7996	
561.04	7167.9	
561.24	6060.6	
561.43	6244.3	
561.63	7373.4	
561.82	7750.9	
562.01	7470.3	
562.21	6604.7	
562.4	8122.9	
562.59	9101.2	
562.79	6466.8	
562.98	6053.8	
563.18	8031.5	
563.37	9459.6	
563.56	6902.3	
563.76	5932.3	
563.95	7490.8	
564.14	7514	
564.34	6401.3	
564.53	6176.7	
564.73	7999.4	
564.92	8402.8	
565.11	6609.5	
565.31	6000.5	
565.5	8514.1	
565.69	7594.6	
565.89	6182.1	
566.08	6477	
566.27	8447.9	
566.47	8906.6	
566.66	7020.4	
566.85	5715.2	
567.05	8095.6	
567.24	7511.3	
567.44	6070.9	
567.63	7466.9	
567.82	8344.8	
568.02	7998.7	
568.21	6066.8	
568.4	6511.9	
568.6	7960.5	
568.79	7960.5	
568.98	5852.4	
569.18	6093.4	
569.37	7926.3	
569.56	9879.4	
569.76	6391.7	
569.95	7282.6	
570.14	8281.3	
570.34	8154.3	
570.53	5887.2	
570.72	5909.1	
570.91	8766	
571.11	7892.2	
571.3	6445.6	
571.49	7359.7	
571.69	7836.9	
571.88	7483.3	
572.07	6905.8	
572.27	6969.9	
572.46	7499	
572.65	8568.7	
572.85	6224.5	
573.04	6510.5	
573.23	8799.4	
573.43	7991.2	
573.62	5922.7	
573.81	6728.9	
574	8030.8	
574.2	7839.6	
574.39	6220.4	
574.58	6524.1	
574.78	8787.2	
574.97	8072.4	
575.16	6759.7	
575.36	6946	
575.55	8389.8	
575.74	8669.7	
575.93	5925.5	
576.13	6895.5	
576.32	7853.3	
576.51	8454.7	
576.71	6412.2	
576.9	7662.1	
577.09	8738	
577.28	8239.7	
577.48	6877.1	
577.67	5810.1	
577.86	7978.2	
578.05	8239.7	
578.25	6508.4	
578.44	6670.2	
578.63	8089.5	
578.83	9294.4	
579.02	5930.2	
579.21	7498.3	
579.4	8261.5	
579.6	7917.4	
579.79	6638.1	
579.98	8807.6	
580.17	8587.8	
580.37	8589.2	
580.56	6181.5	
580.75	6911.9	
580.94	9097.8	
581.14	8925.7	
581.33	7339.2	
581.52	6285.2	
581.71	8488.8	
581.91	9165.3	
582.1	5997.1	
582.29	6562.4	
582.48	8125	
582.68	8070.4	
582.87	7116	
583.06	6752.2	
583.25	8473.8	
583.45	7903.1	
583.64	7359	
583.83	8032.1	
584.02	8019.2	
584.21	8335.2	
584.41	7389.1	
584.6	6621.1	
584.79	8093.6	
584.98	8876.6	
585.18	6092	
585.37	6138.4	
585.56	7635.5	
585.75	8427.4	
585.94	6346.7	
586.14	6894.8	
586.33	9077.3	
586.52	8085.4	
586.71	6823.1	
586.91	6546.7	
587.1	7557.7	
587.29	8602.8	
587.48	6479.1	
587.67	6413.6	
587.87	8418.5	
588.06	8580.3	
588.25	7710.6	
588.44	7038.2	
588.63	8105.9	
588.83	8726.4	
589.02	6453.1	
589.21	6391	
589.4	7962.5	
589.59	7747.5	
589.78	5639.4	
589.98	5952.8	
590.17	7488.1	
590.36	8083.3	
590.55	5431.9	
590.74	6251.8	
590.94	9372.2	
591.13	7944.1	
591.32	6066.1	
591.51	5602.6	
591.7	8373.5	
591.89	7855.3	
592.09	5710.4	
592.28	6196.5	
592.47	7135.1	
592.66	8991.9	
592.85	5684.5	
593.05	5958.2	
593.24	7813	
593.43	8504.5	
593.62	5985.5	
593.81	6426.5	
594	7742.7	
594.19	8022.6	
594.39	5925.5	
594.58	5820.3	
594.77	8006.2	
594.96	8642.4	
595.15	5829.9	
595.34	6464.8	
595.54	8133.8	
595.73	7261.4	
595.92	5241.4	
596.11	6429.3	
596.3	8620.6	
596.49	7350.2	
596.68	6137.1	
596.88	6573.3	
597.07	8392.6	
597.26	7197.9	
597.45	5668.8	
597.64	6890	
597.83	7428	
598.02	8031.5	
598.22	5769.1	
598.41	6490.7	
598.6	7791.2	
598.79	7365.2	
598.98	5831.2	
599.17	6731.7	
599.36	7881.9	
599.55	9065.7	
599.74	7917.4	
599.94	7604.1	
600.13	8452.6	
600.32	7315.3	
600.51	5545.2	
600.7	5728.2	
600.89	9080.7	
601.08	9100.5	
601.27	5530.2	
601.47	6534.4	
601.66	8322.3	
601.85	9034.3	
602.04	6192.4	
602.23	6503.7	
602.42	7460.1	
602.61	8052.6	
602.8	6095.4	
602.99	5905.7	
603.18	7805.5	
603.37	8059.4	
603.57	6567.8	
603.76	7072.3	
603.95	8727.1	
604.14	8262.9	
604.33	5964.4	
604.52	6312.5	
604.71	7998	
604.9	7625.3	
605.09	6907.8	
605.28	6719.4	
605.47	8520.9	
605.66	8217.1	
605.86	6630.6	
606.05	5981.4	
606.24	8558.5	
606.43	7198.6	
606.62	6290.7	
606.81	7041.6	
607	8446.5	
607.19	7763.8	
607.38	5777.3	
607.57	6097.5	
607.76	7549.5	
607.95	7002.7	
608.14	6376	
608.33	7049.8	
608.52	7555	
608.72	8431.5	
608.91	5728.2	
609.1	5604.6	
609.29	7684	
609.48	7142.6	
609.67	6610.8	
609.86	5739.1	
610.05	7251.2	
610.24	7570.7	
610.43	5534.3	
610.62	5253	
610.81	8736	
611	8466.3	
611.19	5677	
611.38	6481.1	
611.57	7934.5	
611.76	9265	
611.95	5548.6	
612.14	5445.5	
612.33	7725.6	
612.52	7230.7	
612.71	6045.6	
612.9	5216.2	
613.09	6893.5	
613.28	9206.3	
613.47	5698.1	
613.66	6735.1	
613.85	7860.1	
614.04	7381.6	
614.24	5885.9	
614.43	5107.6	
614.62	7971.4	
614.81	7883.3	
615	6402	
615.19	6393.8	
615.38	7253.9	
615.57	7548.1	
615.76	6292.7	
615.95	7234.1	
616.14	7974.1	
616.33	7673.7	
616.52	6696.9	
616.71	6866.8	
616.9	7939.3	
617.09	7818.5	
617.28	5950.7	
617.47	7122.2	
617.66	7138.5	
617.85	7110.5	
618.04	6849.8	
618.22	6285.9	
618.41	7391.1	
618.6	8286.1	
618.79	6175.3	
618.98	5823.1	
619.17	8576.9	
619.36	6914.6	
619.55	6067.4	
619.74	6114.6	
619.93	7925.6	
620.12	7337.9	
620.31	6646.3	
620.5	6746.7	
620.69	8448.6	
620.88	8796	
621.07	7522.2	
621.26	6518	
621.45	8048.5	
621.64	8094.3	
621.83	6623.8	
622.02	5738.4	
622.21	8056.7	
622.4	7783.6	
622.59	7055.3	
622.78	6963.8	
622.97	7448.5	
623.16	8395.3	
623.35	6560.3	
623.54	5683.1	
623.72	7679.9	
623.91	7819.1	
624.1	6827.2	
624.29	5501.5	
624.48	8933.2	
624.67	8082	
624.86	6652.5	
625.05	5793.7	
625.24	8984.4	
625.43	7303.7	
625.62	8376.2	
625.81	5982.1	
626	8348.2	
626.19	7588.4	
626.38	6795.2	
626.56	6182.8	
626.75	7436.9	
626.94	8256	
627.13	6760.3	
627.32	5443.5	
627.51	8126.3	
627.7	9428.8	
627.89	5640.8	
628.08	6775.4	
628.27	7339.2	
628.46	7539.3	
628.65	5846.3	
628.83	5557.5	
629.02	8165.3	
629.21	7376.8	
629.4	6329.6	
629.59	6599.9	
629.78	7322.9	
629.97	8350.9	
630.16	6556.9	
630.35	6071.5	
630.54	8730.5	
630.72	8409.6	
630.91	6044.9	
631.1	6604	
631.29	7998.7	
631.48	8144.1	
631.67	6744	
631.86	6240.2	
632.05	7567.2	
632.24	7658	
632.42	5816.9	
632.61	6470.2	
632.8	7672.4	
632.99	7315.3	
633.18	6395.8	
633.37	6839.5	
633.56	7914	
633.75	7729.7	
633.93	6443.6	
634.12	6123.4	
634.31	8791.2	
634.5	8302.5	
634.69	6186.2	
634.88	6729.6	
635.07	7748.8	
635.25	8345.5	
635.44	7094.8	
635.63	7253.2	
635.82	7628	
636.01	7109.2	
636.2	7064.1	
636.39	6561	
636.57	8704.5	
636.76	8400.1	
636.95	6079.7	
637.14	7430	
637.33	8062.9	
637.52	8991.3	
637.7	5855.1	
637.89	6731.7	
638.08	7712.7	
638.27	9175.6	
638.46	6820.4	
638.65	7234.8	
638.83	9116.9	
639.02	7473.7	
639.21	6721.4	
639.4	7193.8	
639.59	7947.5	
639.78	7555.6	
639.96	6038.1	
640.15	6079.7	
640.34	7768.6	
640.53	8011.7	
640.72	5834.7	
640.91	6087.9	
641.09	7299	
641.28	8615.8	
641.47	6138.4	
641.66	6911.9	
641.85	8004.1	
642.03	8281.3	
642.22	6726.9	
642.41	6184.9	
642.6	7457.3	
642.79	6821.8	
642.97	5941.8	
643.16	6711.9	
643.35	7406.1	
643.54	7171.3	
643.73	5932.3	
643.91	6704.4	
644.1	7124.2	
644.29	7744.7	
644.48	5992.4	
644.67	6077	
644.85	7363.1	
645.04	7645.1	
645.23	5567.1	
645.42	5950	
645.6	7159.7	
645.79	8344.8	
645.98	5933.6	
646.17	4973.2	
646.36	6937.8	
646.54	7533.8	
646.73	6699.6	
646.92	5547.9	
647.11	7148.1	
647.29	8229.4	
647.48	5665.4	
647.67	5391.6	
647.86	8473.8	
648.05	8420.6	
648.23	6015.6	
648.42	7258	
648.61	7836.9	
648.8	7579.5	
648.98	5647.6	
649.17	6023.1	
649.36	7126.9	
649.55	6581.5	
649.73	5695.4	
649.92	6405.4	
650.11	6997.2	
650.3	7475.1	
650.48	5774.6	
650.67	5591	
650.86	7681.2	
651.05	6660	
651.23	5767.1	
651.42	5746.6	
651.61	7124.2	
651.79	7245	
651.98	5986.9	
652.17	5539.8	
652.36	7600.7	
652.54	6646.3	
652.73	5658.5	
652.92	5453.7	
653.11	7617.1	
653.29	7673.1	
653.48	4947.2	
653.67	5851.7	
653.85	7357	
654.04	8454	
654.23	6159.6	
654.42	5599.1	
654.6	6912.6	
654.79	7623.2	
654.98	5129.5	
655.16	5763	
655.35	6625.2	
655.54	6563.1	
655.73	5258.5	
655.91	5218.9	
656.1	7613.7	
656.29	6500.9	
656.47	4844.8	
656.66	6509.1	
656.85	6765.1	
657.03	6866.2	
657.22	5411.4	
657.41	5456.5	
657.59	6875	
657.78	6734.4	
657.97	5015.5	
658.16	5824.4	
658.34	7583.6	
658.53	7919.5	
658.72	6636.8	
658.9	7192.5	
659.09	6944	
659.28	7095.5	
659.46	5575.9	
659.65	5455.1	
659.84	6792.4	
660.02	7303.1	
660.21	5311.7	
660.4	5296.7	
660.58	7658.7	
660.77	7125.6	
660.96	5976.7	
661.14	5001.1	
661.33	8275.2	
661.52	8070.4	
661.7	4928.1	
661.89	8636.3	
662.08	6713.9	
662.26	6271.6	
662.45	5246.2	
662.64	5358.2	
662.82	7441.6	
663.01	6574	
663.2	5372.5	
663.38	6078.4	
663.57	7366.5	
663.75	7207.5	
663.94	5685.2	
664.13	6969.2	
664.31	6647	
664.5	7449.8	
664.69	6105.7	
664.87	6550.8	
665.06	6485.2	
665.25	7264.1	
665.43	6687.3	
665.62	6841.6	
665.8	7533.8	
665.99	6782.2	
666.18	5685.8	
666.36	5812.1	
666.55	7415	
666.74	7403.4	
666.92	5309.7	
667.11	6915.3	
667.29	6836.1	
667.48	7488.1	
667.67	6585.6	
667.85	5752.7	
668.04	6952.2	
668.22	6847.7	
668.41	5720	
668.6	5955.5	
668.78	6686.6	
668.97	6997.2	
669.15	6115.9	
669.34	5068.7	
669.53	6677.1	
669.71	7075	
669.9	5237.3	
670.08	5900.9	
670.27	6837.5	
670.46	7191.8	
670.64	6090.7	
670.83	6348	
671.01	6604	
671.2	7267.6	
671.38	5360.2	
671.57	5229.8	
671.76	7858.7	
671.94	8434.2	
672.13	5203.2	
672.31	6239.5	
672.5	7305.1	
672.69	6660	
672.87	5339.7	
673.06	5661.3	
673.24	7253.9	
673.43	6714.6	
673.61	6100.9	
673.8	5621	
673.98	7393.2	
674.17	7595.2	
674.36	6208.1	
674.54	6084.5	
674.73	7194.5	
674.91	7462.8	
675.1	5749.3	
675.28	5401.9	
675.47	6944	
675.65	7473	
675.84	5644.2	
676.03	5948.7	
676.21	6707.1	
676.4	6292.7	
676.58	6448.4	
676.77	6146	
676.95	8191.9	
677.14	6702.3	
677.32	5325.4	
677.51	5152	
677.69	7520.1	
677.88	6356.2	
678.06	5204.6	
678.25	5309.7	
678.44	6975.4	
678.62	6767.2	
678.81	5096	
678.99	5964.4	
679.18	7813.7	
679.36	7445.7	
679.55	5576.6	
679.73	6107	
679.92	7322.2	
680.1	6750.1	
680.29	6772.6	
680.47	5612.8	
680.66	6657.3	
680.84	7562.5	
681.03	4879.6	
681.21	6027.9	
681.4	6688.7	
681.58	6509.8	
681.77	5333.6	
681.95	5322	
682.14	7585	
682.32	7905.2	
682.51	6286.6	
682.69	5109	
682.88	6636.8	
683.06	7304.4	
683.25	5980.8	
683.43	6362.4	
683.62	6893.5	
683.8	7367.9	
683.99	6498.9	
684.17	5728.9	
684.36	8178.9	
684.54	6802.7	
684.73	4986.1	
684.91	5255.1	
685.1	7231.4	
685.28	6679.8	
685.46	5797.8	
685.65	5830.6	
685.83	7378.8	
686.02	6754.9	
686.2	5327.4	
686.39	5394.3	
686.57	6429.9	
686.76	8073.8	
686.94	5240.8	
687.13	5333.6	
687.31	7214.3	
687.5	6808.1	
687.68	4922	
687.86	6161	
688.05	8417.2	
688.23	6285.9	
688.42	6206.7	
688.6	5287.2	
688.79	6652.5	
688.97	6671.6	
689.16	5726.1	
689.34	4677.6	
689.52	7510.6	
689.71	7590.5	
689.89	6060.6	
690.08	5241.4	
690.26	6904.4	
690.45	6823.8	
690.63	6122.7	
690.81	5472.9	
691	6717.3	
691.18	6610.8	
691.37	5625.1	
691.55	7727	
691.74	6547.4	
691.92	8587.8	
692.1	5614.2	
692.29	5072.8	
692.47	6763.1	
692.66	6101.6	
692.84	5190.2	
693.02	5970.5	
693.21	6273.6	
693.39	6754.9	
693.58	5948.7	
693.76	5341.1	
693.94	7914.7	
694.13	7660.8	
694.31	5358.9	
694.5	6411.5	
694.68	6519.4	
694.86	6927.6	
695.05	5625.1	
695.23	5756.8	
695.42	7265.5	
695.6	9594.7	
695.78	6309.1	
695.97	5371.8	
696.15	7247.1	
696.34	6709.1	
696.52	5188.2	
696.7	5947.3	
696.89	7026.6	
697.07	6508.4	
697.25	6033.3	
697.44	7419.1	
697.62	7047.1	
697.81	7306.5	
697.99	5678.3	
698.17	6085.9	
698.36	6337.8	
698.54	7038.9	
698.72	5915.9	
698.91	4953.4	
699.09	6642.9	
699.28	6509.1	
699.46	5627.8	
699.64	5449	
699.83	6408.1	
700.01	7631.4	
700.19	6257.2	
700.38	4671.4	
700.56	7688.1	
700.74	6531	
700.93	5053	
701.11	5902.2	
701.29	7098.3	
701.48	8183	
701.66	5237.3	
701.84	5371.8	
702.03	6578.1	
702.21	7292.8	
702.39	4843.4	
702.58	5490.6	
702.76	7036.1	
702.94	7247.8	
703.13	4908.3	
703.31	7270.3	
703.49	6424.5	
703.68	7864.2	
703.86	5136.3	
704.04	6106.4	
704.23	6814.3	
704.41	7221.1	
704.59	5232.6	
704.78	6502.3	
704.96	7990.5	
705.14	7337.2	
705.33	5008.6	
705.51	5853.1	
705.69	6722.1	
705.87	7540.6	
706.06	6152.8	
706.24	4964.3	
706.42	7039.6	
706.61	7294.9	
706.79	6145.3	
706.97	4992.9	
707.16	6425.2	
707.34	7088.7	
707.52	6105	
707.7	5242.8	
707.89	6551.5	
708.07	6257.9	
708.25	6064.7	
708.44	6203.3	
708.62	6546	
708.8	7631.4	
708.98	6409.5	
709.17	5330.9	
709.35	6967.9	
709.53	6954.2	
709.72	5028.4	
709.9	5167	
710.08	7288.7	
710.26	7283.9	
710.45	6622.4	
710.63	5362.3	
710.81	6892.8	
710.99	6875	
711.18	5957.5	
711.36	5452.4	
711.54	6640.2	
711.72	7391.1	
711.91	5579.3	
712.09	5001.8	
712.27	6875.7	
712.45	7486	
712.64	5859.2	
712.82	4753.3	
713	6297.5	
713.18	6457.2	
713.37	4945.2	
713.55	6048.3	
713.73	7271.7	
713.91	5929.6	
714.1	5323.4	
714.28	4734.2	
714.46	7058.7	
714.64	6234.7	
714.83	4275.5	
715.01	5076.2	
715.19	6335.7	
715.37	5762.3	
715.55	4742.4	
715.74	5111.7	
715.92	7225.9	
716.1	5233.2	
716.28	6223.1	
716.47	5220.3	
716.65	5948.7	
716.83	6115.2	
717.01	5058.5	
717.19	5198.4	
717.38	8117.5	
717.56	5687.2	
717.74	5458.5	
717.92	4508.9	
718.1	6971.3	
718.29	6096.1	
718.47	4143	
718.65	4733.5	
718.83	6792.4	
719.01	6723.5	
719.2	3934.8	
719.38	5003.9	
719.56	6425.2	
719.74	7937.9	
719.92	4645.5	
720.11	5634.6	
720.29	6461.3	
720.47	5614.2	
720.65	4220.9	
720.83	5082.4	
721.02	5992.4	
721.2	5710.4	
721.38	5079.6	
721.56	4405.9	
721.74	5266	
721.92	5418.2	
722.11	5661.3	
722.29	5387.5	
722.47	6707.8	
722.65	5920.7	
722.83	4390.2	
723.01	5371.1	
723.2	5926.1	
723.38	6253.8	
723.56	3852.2	
723.74	5032.5	
723.92	5446.9	
724.1	6630	
724.29	4319.2	
724.47	5527.5	
724.65	5552.7	
724.83	5500.2	
725.01	4278.9	
725.19	5110.4	
725.37	5542.5	
725.56	5612.1	
725.74	4059.8	
725.92	4347.2	
726.1	5416.9	
726.28	5662.6	
726.46	4786.8	
726.64	4528.1	
726.83	5727.5	
727.01	6008.7	
727.19	4093.2	
727.37	4901.5	
727.55	5877	
727.73	6376.7	
727.91	4032.5	
728.09	3953.3	
728.28	6429.9	
728.46	6978.8	
728.64	5005.2	
728.82	4997.7	
729	7397.9	
729.18	6717.3	
729.36	4146.5	
729.54	6461.3	
729.72	7610.3	
729.91	6005.3	
730.09	6057.2	
730.27	4805.9	
730.45	5877	
730.63	6500.3	
730.81	5436	
730.99	4434.5	
731.17	7075	
731.35	5538.4	
731.53	5010.7	
731.71	4642.7	
731.9	6733.7	
732.08	6957.6	
732.26	4881.7	
732.44	4604.5	
732.62	7074.4	
732.8	6511.9	
732.98	5323.4	
733.16	4336.2	
733.34	6448.4	
733.52	5254.4	
733.7	4885.1	
733.88	5126.7	
734.07	6299.6	
734.25	6115.9	
734.43	4202.4	
734.61	5926.8	
734.79	7515.4	
734.97	5973.9	
735.15	4511	
735.33	4810	
735.51	6339.1	
735.69	5950	
735.87	5937.7	
736.05	5043.5	
736.23	6135.7	
736.41	5988.9	
736.59	4810.7	
736.77	4964.3	
736.95	6550.1	
737.13	6023.8	
737.32	4522.6	
737.5	4724	
737.68	7154.2	
737.86	5960.3	
738.04	4261.8	
738.22	6230.6	
738.4	5717.9	
738.58	6050.4	
738.76	4971.8	
738.94	3900	
739.12	5876.3	
739.3	5709.1	
739.48	5566.4	
739.66	5215.5	
739.84	6154.8	
740.02	6117.3	
740.2	3973.1	
740.38	4336.9	
740.56	6485.2	
740.74	5332.2	
740.92	5018.2	
741.1	4966.3	
741.28	5906.3	
741.46	5773.2	
741.64	4582	
741.82	5089.2	
742	5999.2	
742.18	5980.1	
742.36	4810.7	
742.54	4367.6	
742.72	6599.9	
742.9	5289.9	
743.08	5231.9	
743.26	3980.6	
743.44	6789	
743.62	6657.3	
743.8	5311.1	
743.98	4476.9	
744.16	6366.5	
744.34	5984.8	
744.52	5280.3	
744.7	5187.5	
744.88	6469.5	
745.06	5993	
745.24	5251	
745.42	5332.9	
745.6	6539.2	
745.78	6325.5	
745.96	4149.9	
746.14	4476.2	
746.32	7387	
746.5	6604	
746.68	5003.9	
746.86	4480.3	
747.03	7052.5	
747.21	5319.3	
747.39	5029.8	
747.57	4620.2	
747.75	6193.7	
747.93	6570.6	
748.11	4505.5	
748.29	4379.9	
748.47	7747.5	
748.65	5953.4	
748.83	5197.7	
749.01	4946.5	
749.19	6439.5	
749.37	5598.5	
749.55	4784.1	
749.73	4858.5	
749.91	5995.8	
750.09	5789.6	
750.26	4990.9	
750.44	4261.8	
750.62	6110.5	
750.8	6038.1	
750.98	4255.7	
751.16	4572.4	
751.34	6133	
751.52	5487.2	
751.7	5440.8	
751.88	4171	
752.06	6577.4	
752.24	6466.1	
752.42	4169	
752.59	4540.3	
752.77	6011.5	
752.95	7280.5	
753.13	5212.8	
753.31	4666	
753.49	5832.6	
753.67	6197.8	
753.85	4883	
754.03	4496.7	
754.21	6495.5	
754.38	6816.3	
754.56	4739.7	
754.74	3733.4	
754.92	5788.2	
755.1	6483.2	
755.28	3867.9	
755.46	3877.5	
755.64	7239.6	
755.82	7451.2	
755.99	4194.9	
756.17	4277.5	
756.35	4895.3	
756.53	6487.3	
756.71	3174.4	
756.89	4143.7	
757.07	6079.7	
757.25	5174.5	
757.42	4657.1	
757.6	5545.9	
757.78	6098.9	
757.96	5036	
758.14	4335.5	
758.32	3831.7	
758.5	4635.2	
758.67	5530.2	
758.85	4134.2	
759.03	4304.8	
759.21	5680.4	
759.39	5109	
759.57	3800.3	
759.75	4932.2	
759.92	6354.8	
760.1	5550.7	
760.28	5332.2	
760.46	5537.7	
760.64	5388.2	
760.82	5101.5	
760.99	5137.7	
761.17	4268.6	
761.35	6251.1	
761.53	5138.4	
761.71	4439.3	
761.89	5082.4	
762.06	6083.1	
762.24	5601.2	
762.42	4457.1	
762.6	4229.7	
762.78	5498.1	
762.96	6250.4	
763.13	4851	
763.31	4543.8	
763.49	6360.3	
763.67	5483.1	
763.85	5380.7	
764.02	5896.1	
764.2	6691.4	
764.38	5794.4	
764.56	4386.1	
764.74	5317.9	
764.91	6809.5	
765.09	5673.6	
765.27	4094.6	
765.45	3893.9	
765.63	6769.9	
765.8	6666.1	
765.98	3656.3	
766.16	3977.2	
766.34	5247.6	
766.52	4990.9	
766.69	4947.9	
766.87	3815.4	
767.05	5668.1	
767.23	6401.3	
767.41	4230.4	
767.58	4370.4	
767.76	6253.1	
767.94	6296.1	
768.12	4251.6	
768.29	5087.2	
768.47	5691.3	
768.65	6483.9	
768.83	3887.7	
769	5045.5	
769.18	5272.8	
769.36	6012.2	
769.54	5033.2	
769.72	3917.1	
769.89	6329.6	
770.07	6425.8	
770.25	4336.2	
770.43	5573.2	
770.6	7038.2	
770.78	7451.9	
770.96	4501.4	
771.14	5055.1	
771.31	6227.9	
771.49	5612.1	
771.67	3627.6	
771.85	3928.7	
772.02	4795	
772.2	5575.3	
772.38	4661.9	
772.55	4095.3	
772.73	5862	
772.91	5606	
773.09	4470.7	
773.26	4662.5	
773.44	5862	
773.62	5536.3	
773.8	4003.1	
773.97	3812	
774.15	5970.5	
774.33	5488.6	
774.5	3898	
774.68	4302.8	
774.86	6049.7	
775.04	5551.4	
775.21	3969	
775.39	4052.9	
775.57	5841.5	
775.74	6257.2	
775.92	3860.4	
776.1	3757.3	
776.27	5751.4	
776.45	7049.1	
776.63	4023.6	
776.81	3585.3	
776.98	5417.6	
777.16	6559.6	
777.34	4204.5	
777.51	4123.9	
777.69	5423	
777.87	5227.1	
778.04	4201.7	
778.22	4875.5	
778.4	5304.2	
778.57	5917.9	
778.75	3426.9	
778.93	3796.3	
779.1	5038	
779.28	4917.2	
779.46	3525.2	
779.64	3989.4	
779.81	6003.3	
779.99	6976.7	
780.17	4804.5	
780.34	4911	
780.52	5510.4	
780.69	5668.8	
780.87	4309.6	
781.05	3826.3	
781.22	5582.1	
781.4	5659.9	
781.58	4035.2	
781.75	3158.7	
781.93	5610.1	
782.11	5019.6	
782.28	4887.1	
782.46	4009.9	
782.64	4849.6	
782.81	5877	
782.99	4121.2	
783.17	4028.4	
783.34	5698.8	
783.52	4924.7	
783.69	4291.2	
783.87	5072.1	
784.05	4945.2	
784.22	4969.1	
784.4	5085.1	
784.58	4403.8	
784.75	5929.6	
784.93	5051.7	
785.1	4087.7	
785.28	4667.3	
785.46	5690.6	
785.63	5026.4	
785.81	4051.6	
785.99	3868.6	
786.16	5232.6	
786.34	5442.1	
786.51	3877.5	
786.69	4300.1	
786.87	4795.7	
787.04	5310.4	
787.22	3775.1	
787.39	4742.4	
787.57	4980.7	
787.75	6087.9	
787.92	4906.3	
788.1	4889.2	
788.27	5085.8	
788.45	4821.6	
788.63	4543.8	
788.8	3300	
788.98	5439.4	
789.15	4719.2	
789.33	3427.6	
789.5	4065.2	
789.68	5945.3	
789.86	6078.4	
790.03	4447.5	
790.21	3940.3	
790.38	5956.9	
790.56	5210.7	
790.73	3838.6	
790.91	3824.9	
791.09	5028.4	
791.26	5819.6	
791.44	3993.5	
791.61	3487.7	
791.79	5010	
791.96	5110.4	
792.14	3582.6	
792.32	3162.7	
792.49	5029.1	
792.67	5210.7	
792.84	3699.3	
793.02	3443.3	
793.19	5474.2	
793.37	6210.8	
793.54	3199.6	
793.72	3503.4	
793.89	6375.3	
794.07	5082.4	
794.25	4136.9	
794.42	3271.3	
794.6	6094.1	
794.77	5778	
794.95	4384	
795.12	3861.1	
795.3	5051	
795.47	5708.4	
795.65	4253.6	
795.82	4108.9	
796	4873.5	
796.17	6795.8	
796.35	3977.8	
796.52	4642.1	
796.7	5586.9	
796.87	5739.8	
797.05	4943.1	
797.22	4797.7	
797.4	5656.5	
797.57	6676.4	
797.75	4098	
797.92	3803.8	
798.1	5982.1	
798.27	5031.9	
798.45	3284.3	
798.62	3547.8	
798.8	5353.4	
798.97	5842.9	
799.15	4302.8	
799.32	4086.4	
799.5	4642.1	
799.67	5440.1	
799.85	4452.3	
800.02	3245.3	
800.2	4983.4	
800.37	5381.4	
800.55	4632.5	
800.72	3844.7	
800.9	5813.5	
801.07	6267.5	
801.25	5212.1	
801.42	4225	
801.6	5851	
801.77	5558.2	
801.95	3957.4	
802.12	3773.7	
802.29	5552.7	
802.47	5542.5	
802.64	4190.1	
802.82	3132	
802.99	4954.7	
803.17	5961	
803.34	4095.3	
803.52	3707.5	
803.69	6681.8	
803.87	4807.9	
804.04	4040.6	
804.21	4152.6	
804.39	6105.7	
804.56	5294	
804.74	3491.8	
804.91	4281.6	
805.09	5042.1	
805.26	5165.7	
805.44	3540.3	
805.61	3928.7	
805.78	5773.9	
805.96	5745.9	
806.13	4239.3	
806.31	4569	
806.48	4610	
806.66	5109.7	
806.83	4257	
807	4147.1	
807.18	5054.4	
807.35	5451.7	
807.53	4090.5	
807.7	3290.4	
807.87	6218.3	
808.05	5085.1	
808.22	4519.9	
808.4	3289	
808.57	5093.3	
808.74	4713.7	
808.92	3758.7	
809.09	4785.4	
809.27	4911	
809.44	5580.7	
809.61	3349.8	
809.79	3739.6	
809.96	6196.5	
810.14	5818.3	
810.31	3285.6	
810.48	3997.6	
810.66	5202.5	
810.83	5930.9	
811.01	3773.7	
811.18	4236.6	
811.35	5799.8	
811.53	4513	
811.7	4573.8	
811.87	4286.4	
812.05	5068.7	
812.22	5002.5	
812.39	3596.2	
812.57	3576.4	
812.74	5122.7	
812.92	6791.7	
813.09	3966.9	
813.26	4289.8	
813.44	6483.2	
813.61	5061.2	
813.78	3320.4	
813.96	4431.1	
814.13	5051.7	
814.3	4771.8	
814.48	4779.3	
814.65	3981.9	
814.82	6313.9	
815	4886.5	
815.17	4133.5	
815.34	5003.9	
815.52	4942.4	
815.69	5006.6	
815.87	4095.9	
816.04	3468.6	
816.21	5096	
816.38	4506.9	
816.56	3941	
816.73	3647.4	
816.9	6387.6	
817.08	5844.9	
817.25	3697.3	
817.42	4648.2	
817.6	4678.2	
817.77	5162.9	
817.94	4171.7	
818.12	3639.9	
818.29	4852.3	
818.46	7564.5	
818.64	3828.3	
818.81	3582.6	
818.98	4773.1	
819.16	6897.6	
819.33	4407.2	
819.5	4067.9	
819.67	5468.1	
819.85	6040.8	
820.02	3978.5	
820.19	4261.8	
820.37	5364.3	
820.54	4856.4	
820.71	4111	
820.88	5130.2	
821.06	5380.7	
821.23	4905.6	
821.4	4230.4	
821.58	4100	
821.75	5816.2	
821.92	5233.9	
822.09	3341.6	
822.27	3460.4	
822.44	5102.9	
822.61	4952.7	
822.79	3350.5	
822.96	6365.1	
823.13	5545.9	
823.3	4818.2	
823.48	3841.3	
823.65	3512.9	
823.82	5818.3	
823.99	4631.8	
824.17	4929.5	
824.34	3589.4	
824.51	6277	
824.68	5160.9	
824.86	3702.7	
825.03	4219.5	
825.2	5100.8	
825.37	6187.6	
825.55	3668.6	
825.72	4085	
825.89	6799.9	
826.06	6269.5	
826.24	3993.5	
826.41	4015.4	
826.58	6178.7	
826.75	5455.8	
826.92	3164.8	
827.1	3487.7	
827.27	8456.1	
827.44	6707.8	
827.61	3824.9	
827.79	4558.8	
827.96	4850.3	
828.13	5197.1	
828.3	3946.4	
828.47	3295.2	
828.65	5367.7	
828.82	5299.5	
828.99	5117.9	
829.16	4483	
829.34	5644.9	
829.51	5474.9	
829.68	4119.1	
829.85	4256.4	
830.02	5993.7	
830.2	5728.9	
830.37	3192.1	
830.54	4954.7	
830.71	6503.7	
830.88	5081.7	
831.05	3213.3	
831.23	3768.3	
831.4	6250.4	
831.57	7032.7	
831.74	3755.3	
831.91	3300.6	
832.09	5333.6	
832.26	5677	
832.43	3951.9	
832.6	4417.5	
832.77	5361.6	
832.94	6130.3	
833.12	3107.5	
833.29	3925.3	
833.46	4908.3	
833.63	7147.4	
833.8	4329.4	
833.97	3932.8	
834.15	5713.8	
834.32	5497.4	
834.49	4089.8	
834.66	4134.2	
834.83	5888.6	
835	4795.7	
835.17	3723.9	
835.35	3818.1	
835.52	5651.7	
835.69	5494	
835.86	3948.5	
836.03	3284.3	
836.2	5618.9	
836.37	5297.4	
836.55	3943.7	
836.72	3735.5	
836.89	5253	
837.06	5679	
837.23	4000.4	
837.4	4367.6	
837.57	6524.8	
837.75	7260.7	
837.92	3654.9	
838.09	3853.6	
838.26	5210.7	
838.43	5969.1	
838.6	4117.8	
838.77	3663.8	
838.94	6675	
839.11	6543.9	
839.29	3915	
839.46	3125.9	
839.63	5648.3	
839.8	5408	
839.97	3796.9	
840.14	3814.7	
840.31	5494	
840.48	5709.1	
840.65	3150.5	
840.82	3802.4	
841	5663.3	
841.17	5612.1	
841.34	3523.2	
841.51	3607.2	
841.68	5631.2	
841.85	5295.4	
842.02	3644	
842.19	3085.6	
842.36	5455.1	
842.53	5486.5	
842.7	3515	
842.87	4270	
843.05	7103	
843.22	5381.4	
843.39	3333.4	
843.56	3698.6	
843.73	5145.2	
843.9	5757.5	
844.07	5715.9	
844.24	4767.7	
844.41	8308.6	
844.58	4894.6	
844.75	3418.7	
844.92	3719.1	
845.09	5721.3	
845.26	5668.1	
845.43	3491.8	
845.6	3693.2	
845.77	5692.7	
845.94	5440.1	
846.12	3838.6	
846.29	4126.7	
846.46	5867.4	
846.63	5657.2	
846.8	3552.5	
846.97	4145.8	
847.14	6129.6	
847.31	5687.2	
847.48	3901.4	
847.65	4396.3	
847.82	5941.8	
847.99	5933.6	
848.16	4713.7	
848.33	4350.6	
848.5	5243.5	
848.67	6105.7	
848.84	3482.2	
849.01	3670.6	
849.18	5162.9	
849.35	4832.5	
849.52	4407.9	
849.69	3410.6	
849.86	5868.1	
850.03	6137.8	
850.2	3521.8	
850.37	4321.9	
850.54	6038.1	
850.71	5358.9	
850.88	4131.4	
851.05	3466.5	
851.22	5635.3	
851.39	6294.1	
851.56	3295.2	
851.73	4008.6	
851.9	4992.9	
852.07	5929.6	
852.24	3870	
852.41	3474.7	
852.58	5515.2	
852.75	5039.4	
852.92	3900	
853.09	3394.2	
853.26	5247.6	
853.43	6167.1	
853.6	3471.3	
853.77	2983.9	
853.94	6252.4	
854.11	5618.9	
854.28	5133.6	
854.44	3814	
854.61	6660	
854.78	5784.8	
854.95	3465.2	
855.12	4376.5	
855.29	4567	
855.46	6318.7	
855.63	3417.4	
855.8	4848.9	
855.97	5249.6	
856.14	6047	
856.31	4889.9	
856.48	3872	
856.65	5219.6	
856.82	4926.7	
856.99	3364.1	
857.16	3784.6	
857.33	6918	
857.49	5324.7	
857.66	3723.9	
857.83	4046.1	
858	5260.5	
858.17	5475.6	
858.34	3349.8	
858.51	3500.7	
858.68	6360.3	
858.85	6449.7	
859.02	4042.7	
859.19	4323.3	
859.36	4935.6	
859.52	5052.3	
859.69	3505.4	
859.86	4111	
860.03	5080.3	
860.2	6156.2	
860.37	3138.2	
860.54	3540.9	
860.71	5869.5	
860.88	6354.8	
861.05	3897.3	
861.21	4379.9	
861.38	6378.1	
861.55	4863.2	
861.72	3175.7	
861.89	3879.5	
862.06	5915.9	
862.23	6462	
862.4	3396.2	
862.56	3625.6	
862.73	5741.8	
862.9	5490.6	
863.07	4072	
863.24	3188.7	
863.41	4883.7	
863.58	5025.7	
863.75	3583.9	
863.91	4059.1	
864.08	6236.1	
864.25	5822.4	
864.42	4364.2	
864.59	4897.4	
864.76	6602.7	
864.93	4995	
865.09	3441.3	
865.26	3694.5	
865.43	6165.8	
865.6	6521.4	
865.77	3070.6	
865.94	3458.3	
866.1	6241.5	
866.27	5920.7	
866.44	5203.9	
866.61	3314.3	
866.78	5321.3	
866.95	5803.3	
867.11	3408.5	
867.28	3134.1	
867.45	6096.8	
867.62	5073.5	
867.79	4020.2	
867.96	3491.1	
868.12	5031.2	
868.29	5980.1	
868.46	3478.8	
868.63	4625.7	
868.8	6110.5	
868.97	5831.2	
869.13	3668.6	
869.3	3587.4	
869.47	5782.8	
869.64	5976.7	
869.81	3531.4	
869.97	3559.4	
870.14	5696.8	
870.31	6303	
870.48	3395.5	
870.65	4431.8	
870.81	5291.3	
870.98	5219.6	
871.15	3992.9	
871.32	3695.2	
871.48	5737.7	
871.65	6335.7	
871.82	3484.3	
871.99	3838.6	
872.16	6858.6	
872.32	6162.3	
872.49	3492.5	
872.66	3521.8	
872.83	5872.9	
872.99	5175.2	
873.16	4076.1	
873.33	3520.5	
873.5	5528.8	
873.67	5577.3	
873.83	3667.2	
874	4655.7	
874.17	5703.6	
874.34	6722.8	
874.5	4541	
874.67	4375.8	
874.84	6296.8	
875.01	4894	
875.17	4890.5	
875.34	3426.9	
875.51	5630.5	
875.68	6739.2	
875.84	4192.2	
876.01	5150.6	
876.18	5836.7	
876.34	5831.2	
876.51	3540.3	
876.68	3460.4	
876.85	5316.5	
877.01	6182.1	
877.18	4961.5	
877.35	3510.2	
877.52	5487.2	
877.68	4898.7	
877.85	3433.1	
878.02	3423.5	
878.18	5408	
878.35	5162.9	
878.52	2835.1	
878.69	3896.6	
878.85	5900.9	
879.02	5823.7	
879.19	4975.9	
879.35	3754.6	
879.52	5803.9	
879.69	6062	
879.86	3022.1	
880.02	3900.7	
880.19	5444.2	
880.36	6683.9	
880.52	3994.2	
880.69	4175.1	
880.86	5910.4	
881.02	6042.2	
881.19	3830.4	
881.36	3755.3	
881.52	5827.2	
881.69	5183.4	
881.86	3762.8	
882.02	3680.9	
882.19	6124.8	
882.36	7141.9	
882.52	3562.1	
882.69	4991.6	
882.86	5692.7	
883.02	5551.4	
883.19	4199	
883.36	4032.5	
883.52	6044.9	
883.69	6830.7	
883.86	3551.2	
884.02	3211.2	
884.19	5899.5	
884.36	5494.7	
884.52	4001.7	
884.69	3703.4	
884.86	5216.9	
885.02	6570.6	
885.19	3904.1	
885.36	3908.9	
885.52	5490.6	
885.69	5648.3	
885.86	4948.6	
886.02	4470	
886.19	5938.4	
886.35	5412.8	
886.52	3814	
886.69	4844.1	
886.85	5052.3	
887.02	6331.6	
887.19	6331.6	
887.35	6331.6	
887.52	6331.6	
887.68	6331.6	
887.85	6331.6	
888.02	6331.6	
888.18	6331.6	
888.35	6331.6	
888.51	6331.6	
888.68	6331.6	
888.85	6331.6	
889.01	6331.6	
889.18	6331.6	
889.35	6331.6	
889.51	6331.6	
889.68	6331.6	
889.84	6331.6	
890.01	6331.6	
890.17	6331.6	
890.34	6331.6	
890.51	6331.6	
890.67	6331.6	
890.84	6331.6	
891	6331.6	
891.17	6331.6	
891.34	6331.6	
891.5	6331.6	
891.67	6331.6	
891.83	6331.6	
892	6331.6	
892.16	6331.6	
892.33	6331.6	
892.5	6331.6	
892.66	6331.6	
892.83	6331.6	
892.99	6331.6	
893.16	6331.6	
893.32	6331.6	
893.49	6331.6	
893.65	6331.6	
893.82	6331.6	
893.99	6331.6	
894.15	6331.6	
894.32	6331.6	
894.48	6331.6	
894.65	6331.6	
894.81	6331.6	
894.98	6331.6	
895.14	6331.6	
895.31	6331.6	
895.47	6331.6	
895.64	6331.6	
895.81	6331.6	
895.97	6331.6	
896.14	6331.6	
896.3	6331.6	
896.47	6331.6	
896.63	6331.6	
896.8	6331.6	
896.96	6331.6	
897.13	6331.6	
897.29	6331.6	
897.46	6331.6	
897.62	6331.6	
897.79	6331.6	
897.95	6331.6	
898.12	6331.6	
898.28	6331.6	
898.45	6331.6	
898.61	6331.6	
898.78	6331.6	
898.94	6331.6	
899.11	6331.6	
899.27	6331.6	
899.44	6331.6	
899.6	6331.6	
899.77	6331.6	
899.93	6331.6	
900.1	6331.6	
900.26	6331.6	
900.43	6331.6	
900.59	6331.6	
900.76	6331.6	
900.92	6331.6	
901.09	6331.6	
901.25	6331.6	
901.42	6331.6	
901.58	6331.6	
901.75	6331.6	
901.91	6331.6	
902.07	6331.6	
902.24	6331.6	
902.4	6331.6	
902.57	6331.6	
902.73	6331.6	
902.9	6331.6	
903.06	6331.6	
903.23	6331.6	
903.39	6331.6	
903.56	6331.6	
903.72	6331.6	
903.88	6331.6	
904.05	6331.6	
904.21	6331.6	
904.38	6331.6	
904.54	6331.6	
904.71	6331.6	
904.87	6331.6	
905.03	6331.6	
905.2	6331.6	
905.36	6331.6	
905.53	6331.6	
905.69	6331.6	
905.86	6331.6	
906.02	6331.6	
906.18	6331.6	
906.35	6331.6	
906.51	6331.6	
906.68	6331.6	
906.84	6331.6	
907.01	6331.6	
907.17	6331.6	
907.33	6331.6	
907.5	6331.6	
907.66	6331.6	
907.83	6331.6	
907.99	6331.6	
908.15	6331.6	
908.32	6331.6	
908.48	6331.6	
908.65	6331.6	
908.81	6331.6	
908.97	6331.6	
909.14	6331.6	
909.3	6331.6	
909.47	6331.6	
909.63	6331.6	
909.79	6331.6	
909.96	6331.6	
910.12	6331.6	
910.28	6331.6	
910.45	6331.6	
910.61	6331.6	
910.78	6331.6	
910.94	6331.6	
911.1	6331.6	
911.27	6331.6	
911.43	6331.6	
911.59	6331.6	
911.76	6331.6	
911.92	6331.6	
912.08	6331.6	
912.25	6331.6	
912.41	6331.6	
912.57	6331.6	
912.74	6331.6	
912.9	6331.6	
913.07	6331.6	
913.23	6331.6	
913.39	6331.6	
913.56	6331.6	
913.72	6331.6	
913.88	6331.6	
914.05	6331.6	
914.21	6331.6	
914.37	6331.6	
914.54	6331.6	
914.7	6331.6	
914.86	6331.6	
915.03	6331.6	
915.19	6331.6	
