Wavelength	Intensities	
nm	a.u.	
179.22	1783.1	
179.44	1785.8	
179.65	1780.4	
179.86	1791.3	
180.08	1775.6	
180.29	4356.7	
180.51	3231.7	
180.72	5309	
180.94	5964.4	
181.15	2994.1	
181.37	2915.6	
181.58	5104.9	
181.79	5345.2	
182.01	3067.2	
182.22	3272.7	
182.44	5385.5	
182.65	4545.1	
182.87	4055	
183.08	3599	
183.29	5696.8	
183.51	4603.8	
183.72	3265.1	
183.94	4640	
184.15	4971.8	
184.37	4978.6	
184.58	2914.9	
184.79	3918.4	
185.01	4662.5	
185.22	5347.9	
185.44	4070	
185.65	3538.9	
185.86	5001.1	
186.08	4577.9	
186.29	2865.8	
186.51	3017.3	
186.72	4720.6	
186.94	5445.5	
187.15	3507.5	
187.36	3605.1	
187.58	7055.9	
187.79	5140.4	
188.01	3713.7	
188.22	5685.2	
188.43	6043.6	
188.65	5296.7	
188.86	3069.9	
189.08	3596.2	
189.29	4861.2	
189.5	4791.6	
189.72	3332	
189.93	3414	
190.15	5468.1	
190.36	6464.8	
190.57	3687.7	
190.79	3510.9	
191	5520	
191.22	5500.2	
191.43	3627.6	
191.64	3071.3	
191.86	5770.5	
192.07	5522.7	
192.29	3153.9	
192.5	3291.1	
192.71	5525.4	
192.93	4825	
193.14	3289.7	
193.35	3392.1	
193.57	4799.1	
193.78	5485.8	
194	2698.5	
194.21	3241.3	
194.42	4596.3	
194.64	5060.5	
194.85	3543	
195.07	4192.2	
195.28	5095.3	
195.49	4427.7	
195.71	4372.4	
195.92	3128.6	
196.13	5205.9	
196.35	5257.8	
196.56	4689.8	
196.78	3581.2	
196.99	6374	
197.2	5994.4	
197.42	3600.3	
197.63	3605.8	
197.84	4555.4	
198.06	5199.8	
198.27	3324.5	
198.48	4394.3	
198.7	4828.4	
198.91	4958.1	
199.13	3619.4	
199.34	3599	
199.55	5483.1	
199.77	4384.7	
199.98	3203	
200.19	3672	
200.41	4897.4	
200.62	4646.2	
200.83	3750.5	
201.05	4054.3	
201.26	4858.5	
201.47	4764.3	
201.69	3202.3	
201.9	3070.6	
202.11	5029.8	
202.33	5838.8	
202.54	3430.3	
202.76	3870.7	
202.97	5078.3	
203.18	5147.9	
203.4	3792.8	
203.61	3744.4	
203.82	5029.1	
204.04	4711	
204.25	3590.1	
204.46	3577.8	
204.68	4997.7	
204.89	5293.3	
205.1	3450.8	
205.32	3076.7	
205.53	5324.7	
205.74	5458.5	
205.96	2658.9	
206.17	3678.8	
206.38	5341.1	
206.6	5451	
206.81	4102.1	
207.02	3401	
207.24	5231.9	
207.45	5610.1	
207.66	3495.9	
207.88	3023.5	
208.09	5190.9	
208.3	5070.1	
208.52	3248.8	
208.73	3526.6	
208.94	5035.3	
209.15	5560.9	
209.37	3439.2	
209.58	3588	
209.79	5466	
210.01	4851	
210.22	2807.1	
210.43	2977.1	
210.65	4990.2	
210.86	5381.4	
211.07	3442.6	
211.29	3196.9	
211.5	5282.4	
211.71	4967.7	
211.93	3186	
212.14	3183.2	
212.35	4967.7	
212.56	5117.9	
212.78	3629.7	
212.99	3045.3	
213.2	5827.2	
213.42	4872.8	
213.63	3302	
213.84	3542.3	
214.06	4488.5	
214.27	4601.8	
214.48	3459	
214.69	3679.5	
214.91	5623.7	
215.12	5664.7	
215.33	3648.8	
215.55	3997	
215.76	6112.5	
215.97	5344.5	
216.18	3482.2	
216.4	3474.7	
216.61	4760.8	
216.82	5447.6	
217.04	3222.8	
217.25	3280.2	
217.46	5638.1	
217.67	5314.5	
217.89	2893.8	
218.1	2969.6	
218.31	5108.3	
218.53	5218.9	
218.74	3304.1	
218.95	3212.6	
219.16	4985.4	
219.38	5782.1	
219.59	3270.6	
219.8	3820.8	
220.01	6300.9	
220.23	5036.6	
220.44	4152.6	
220.65	3181.9	
220.87	5096	
221.08	5555.5	
221.29	3022.1	
221.5	3863.8	
221.72	6707.8	
221.93	4799.1	
222.14	3638.6	
222.35	4275.5	
222.57	5044.8	
222.78	5296	
222.99	3487.7	
223.2	3692.5	
223.42	5259.9	
223.63	5380.7	
223.84	2732.7	
224.05	2697.9	
224.27	6299.6	
224.48	5698.1	
224.69	4367	
224.9	3625.6	
225.12	5230.5	
225.33	5004.6	
225.54	2955.9	
225.75	3334.1	
225.97	4677.6	
226.18	4944.5	
226.39	3495.9	
226.6	3255.6	
226.82	4872.8	
227.03	4666	
227.24	3676.8	
227.45	3068.5	
227.67	5416.2	
227.88	5750	
228.09	4043.4	
228.3	3987.4	
228.52	5364.3	
228.73	4985.4	
228.94	3377.8	
229.15	3007.1	
229.36	4967.7	
229.58	4947.2	
229.79	3415.3	
230	3910.3	
230.21	5939.1	
230.43	5096	
230.64	3603.1	
230.85	3728.7	
231.06	5459.2	
231.28	5397.8	
231.49	3024.2	
231.7	3504.1	
231.91	5328.1	
232.12	4995	
232.34	3116.3	
232.55	3530.7	
232.76	5578.7	
232.97	5162.2	
233.18	3180.5	
233.4	3585.3	
233.61	5227.8	
233.82	4814.1	
234.03	3377.8	
234.25	3335.5	
234.46	6812.9	
234.67	5061.2	
234.88	3661.8	
235.09	3220.8	
235.31	5295.4	
235.52	4951.3	
235.73	3584.6	
235.94	3076	
236.15	4774.5	
236.37	5961.6	
236.58	3191.4	
236.79	3485	
237	5306.3	
237.21	4591.5	
237.43	3717.1	
237.64	2930.6	
237.85	8736.6	
238.06	4617.5	
238.27	3764.8	
238.48	3069.2	
238.7	5339.1	
238.91	4912.4	
239.12	3469.9	
239.33	3545.7	
239.54	4704.2	
239.76	4913.8	
239.97	3457.7	
240.18	3458.3	
240.39	6103.6	
240.6	5237.3	
240.82	3582.6	
241.03	2966.1	
241.24	5057.8	
241.45	5718.6	
241.66	3172.3	
241.87	3756	
242.09	5696.8	
242.3	5977.3	
242.51	3769.6	
242.72	3489.1	
242.93	5383.4	
243.14	4984.8	
243.36	3967.6	
243.57	4278.2	
243.78	5753.4	
243.99	5302.2	
244.2	3444	
244.41	3171.6	
244.63	4642.7	
244.84	5253	
245.05	3692.5	
245.26	3465.2	
245.47	5306.3	
245.68	5435.3	
245.9	4567.7	
246.11	3643.3	
246.32	4876.2	
246.53	5226.4	
246.74	5569.8	
246.95	2987.3	
247.16	4625.7	
247.38	5031.2	
247.59	2938.8	
247.8	3489.1	
248.01	4711	
248.22	4971.1	
248.43	3176.4	
248.64	3390.8	
248.86	4500.8	
249.07	4816.8	
249.28	3110.9	
249.49	3566.9	
249.7	5531.6	
249.91	5582.8	
250.12	2946.3	
250.34	2999.6	
250.55	5109.7	
250.76	5023.7	
250.97	3601.7	
251.18	3625.6	
251.39	5560.9	
251.6	5180.7	
251.81	3685	
252.03	3656.3	
252.24	4838	
252.45	5477	
252.66	3036.5	
252.87	3804.4	
253.08	4987.5	
253.29	6435.4	
253.5	3084.2	
253.72	4184	
253.93	4926	
254.14	5900.9	
254.35	3343	
254.56	3435.8	
254.77	5201.2	
254.98	4721.3	
255.19	3302.7	
255.41	4188.1	
255.62	5121.3	
255.83	5567.7	
256.04	3724.6	
256.25	3506.8	
256.46	6016.9	
256.67	4756.1	
256.88	3605.8	
257.09	4014.7	
257.31	4648.9	
257.52	4745.1	
257.73	4435.2	
257.94	3376.4	
258.15	5012.1	
258.36	4984.1	
258.57	4147.1	
258.78	2682.8	
258.99	5401.9	
259.2	4900.1	
259.41	3336.1	
259.63	3443.3	
259.84	5696.1	
260.05	6044.2	
260.26	4350.6	
260.47	3218.7	
260.68	5461.9	
260.89	4977.9	
261.1	3981.9	
261.31	3198.9	
261.52	5574.6	
261.73	5884.5	
261.95	4255	
262.16	3706.1	
262.37	5597.1	
262.58	5750	
262.79	4220.2	
263	3351.2	
263.21	5074.9	
263.42	4888.5	
263.63	3376.4	
263.84	3371	
264.05	5450.3	
264.26	5760.9	
264.47	4091.2	
264.69	3720.5	
264.9	5618.3	
265.11	5193	
265.32	3284.9	
265.53	3293.8	
265.74	5137.7	
265.95	4520.5	
266.16	3556.6	
266.37	3898.6	
266.58	5167.7	
266.79	4878.9	
267	3304.7	
267.21	3102	
267.42	4664.6	
267.63	5037.3	
267.84	3471.3	
268.06	3035.8	
268.27	5393	
268.48	5579.3	
268.69	3416.7	
268.9	4032.5	
269.11	5587.5	
269.32	4604.5	
269.53	3497.2	
269.74	3243.3	
269.95	5307	
270.16	4508.9	
270.37	3487.7	
270.58	3957.4	
270.79	4848.9	
271	5432.6	
271.21	3690.4	
271.42	3562.1	
271.63	5162.9	
271.84	4659.1	
272.05	2805	
272.26	3121.8	
272.47	5061.2	
272.68	5173.9	
272.89	3396.9	
273.11	3822.2	
273.32	4790.9	
273.53	5833.3	
273.74	3752.6	
273.95	3654.9	
274.16	5554.8	
274.37	5134.3	
274.58	3844.7	
274.79	3069.9	
275	5201.8	
275.21	5566.4	
275.42	4478.9	
275.63	3938.2	
275.84	5281	
276.05	6497.5	
276.26	3682.2	
276.47	3412.6	
276.68	4913.1	
276.89	5958.9	
277.1	3916.4	
277.31	3041.9	
277.52	5237.3	
277.73	5456.5	
277.94	3037.8	
278.15	3368.2	
278.36	5257.1	
278.57	4776.5	
278.78	3300	
278.99	3768.3	
279.2	4748.6	
279.41	4663.2	
279.62	4371.7	
279.83	3146.4	
280.04	5994.4	
280.25	4670.7	
280.46	4315.8	
280.67	3533.4	
280.88	4693.9	
281.09	5591.6	
281.3	3639.9	
281.51	4581.3	
281.72	4799.8	
281.93	5453.1	
282.14	3286.3	
282.35	3502.7	
282.56	5456.5	
282.77	5399.8	
282.98	3390.1	
283.19	3971	
283.4	6552.8	
283.61	4977.9	
283.82	3107.5	
284.03	4246.1	
284.24	5069.4	
284.45	5517.2	
284.66	4289.1	
284.87	4076.8	
285.08	5518.6	
285.29	5690.6	
285.5	2971.6	
285.71	3439.9	
285.92	5524.1	
286.12	6068.1	
286.33	4199	
286.54	3371	
286.75	5447.6	
286.96	4996.4	
287.17	3145	
287.38	4128.7	
287.59	4773.1	
287.8	4687.8	
288.01	3390.8	
288.22	3913	
288.43	5410.7	
288.64	4544.4	
288.85	4014	
289.06	3884.3	
289.27	5438	
289.48	5808	
289.69	4309.6	
289.9	3930.1	
290.11	5610.8	
290.32	4811.4	
290.53	4031.8	
290.74	3740.3	
290.94	5404.6	
291.15	5543.2	
291.36	3297.2	
291.57	3839.3	
291.78	4841.4	
291.99	4542.4	
292.2	3141.6	
292.41	3795.6	
292.62	5448.3	
292.83	5298.1	
293.04	4613.4	
293.25	3196.9	
293.46	4888.5	
293.67	5541.1	
293.88	3256.3	
294.09	3209.2	
294.29	4676.2	
294.5	5119.2	
294.71	3545	
294.92	3336.1	
295.13	4878.3	
295.34	6005.3	
295.55	2972.3	
295.76	2949.8	
295.97	5388.2	
296.18	6025.8	
296.39	3076	
296.6	3304.1	
296.81	5140.4	
297.01	5393.7	
297.22	3482.9	
297.43	3217.4	
297.64	4754.7	
297.85	4730.1	
298.06	2768.2	
298.27	2964.1	
298.48	5043.5	
298.69	4782	
298.9	3504.8	
299.11	3229.6	
299.31	4620.9	
299.52	4656.4	
299.73	3840.6	
299.94	3667.2	
300.15	5054.4	
300.36	4706.9	
300.57	3683.6	
300.78	3773	
300.99	4970.4	
301.2	5150	
301.4	3213.9	
301.61	3531.4	
301.82	5279.7	
302.03	5373.9	
302.24	3961.5	
302.45	3164.8	
302.66	5309.7	
302.87	5608	
303.08	3343.7	
303.29	4450.2	
303.49	4839.4	
303.7	5012.7	
303.91	2981.2	
304.12	4194.9	
304.33	4590.9	
304.54	5137	
304.75	3318.4	
304.96	3173.7	
305.16	5333.6	
305.37	5905	
305.58	2884.2	
305.79	3011.2	
306	5263.3	
306.21	4586.1	
306.42	3253.5	
306.63	4916.5	
306.83	4928.8	
307.04	5488.6	
307.25	3640.6	
307.46	3546.4	
307.67	4366.3	
307.88	5386.8	
308.09	3280.8	
308.29	3310.2	
308.5	5113.1	
308.71	5496.7	
308.92	3439.9	
309.13	3148.4	
309.34	4998.4	
309.55	4967	
309.75	4027.7	
309.96	3621.5	
310.17	5427.1	
310.38	4784.1	
310.59	3922.5	
310.8	3099.3	
311.01	5867.4	
311.21	4947.9	
311.42	3153.2	
311.63	3201	
311.84	4827.7	
312.05	5113.1	
312.26	3648.8	
312.46	3934.1	
312.67	4855.1	
312.88	4587.4	
313.09	3162.1	
313.3	3132	
313.51	5688.6	
313.71	5953.4	
313.92	3229.6	
314.13	3320.4	
314.34	5233.9	
314.55	4968.4	
314.76	4092.5	
314.96	3578.5	
315.17	5134.9	
315.38	5302.9	
315.59	3191.4	
315.8	3046.7	
316.01	5775.3	
316.21	5788.9	
316.42	3067.2	
316.63	3501.3	
316.84	4956.1	
317.05	5565.7	
317.26	3738.2	
317.46	3364.8	
317.67	5018.2	
317.88	5319.9	
318.09	3982.6	
318.3	2968.2	
318.5	4816.1	
318.71	5285.8	
318.92	4988.9	
319.13	3700.7	
319.34	5466	
319.54	5553.4	
319.75	3013.2	
319.96	2861.7	
320.17	5327.4	
320.38	5526.1	
320.58	2949.1	
320.79	3465.2	
321	5578.7	
321.21	5575.3	
321.42	3464.5	
321.62	2934.1	
321.83	4722.6	
322.04	5027.8	
322.25	3405.1	
322.46	3177.8	
322.66	5132.2	
322.87	5263.3	
323.08	3908.2	
323.29	3070.6	
323.5	5899.5	
323.7	4647.5	
323.91	4236.6	
324.12	3883.6	
324.33	5112.4	
324.53	5354.8	
324.74	3725.3	
324.95	3861.1	
325.16	4564.9	
325.37	4862.6	
325.57	3220.8	
325.78	3239.9	
325.99	5107	
326.2	4635.9	
326.4	4539.7	
326.61	2908.1	
326.82	5013.4	
327.03	5130.8	
327.24	4414.1	
327.44	4195.6	
327.65	5292.6	
327.86	4334.2	
328.07	3754.6	
328.27	3066.5	
328.48	5640.8	
328.69	4634.6	
328.9	4506.9	
329.1	3388	
329.31	4935.6	
329.52	5753.4	
329.73	3196.2	
329.93	3524.6	
330.14	5036.6	
330.35	5238	
330.56	5119.9	
330.76	3829.7	
330.97	4885.8	
331.18	5170.4	
331.39	3525.9	
331.59	2893.1	
331.8	5575.9	
332.01	5668.1	
332.22	3322.5	
332.42	3681.6	
332.63	5130.8	
332.84	4775.2	
333.05	3513.6	
333.25	3266.5	
333.46	4829.1	
333.67	5071.5	
333.88	3324.5	
334.08	3619.4	
334.29	6523.5	
334.5	5567.7	
334.7	3113.6	
334.91	4458.4	
335.12	4642.7	
335.33	5421	
335.53	3539.6	
335.74	5066.7	
335.95	4903.5	
336.16	4659.1	
336.36	3518.4	
336.57	4087.7	
336.78	4623.6	
336.98	5565.7	
337.19	4282.3	
337.4	3442	
337.61	6015.6	
337.81	4656.4	
338.02	3257.6	
338.23	4149.2	
338.43	5691.3	
338.64	4746.5	
338.85	3212.6	
339.05	4147.1	
339.26	5773.9	
339.47	4564.2	
339.68	3136.1	
339.88	4643.4	
340.09	5277.6	
340.3	5421.7	
340.5	3668.6	
340.71	2859	
340.92	4587.4	
341.13	5674.9	
341.33	3110.9	
341.54	3748.5	
341.75	5206.6	
341.95	4934.9	
342.16	3549.1	
342.37	3870.7	
342.57	4683.7	
342.78	4989.5	
342.99	3906.8	
343.19	2936.8	
343.4	5354.8	
343.61	5272.2	
343.81	3375.1	
344.02	3116.3	
344.23	5410.1	
344.43	5725.4	
344.64	3947.1	
344.85	3833.8	
345.06	5224.4	
345.26	5538.4	
345.47	3644	
345.68	4220.9	
345.88	4541.7	
346.09	5418.9	
346.3	3773	
346.5	2846	
346.71	4987.5	
346.92	4817.5	
347.12	2971.6	
347.33	3635.8	
347.54	5474.2	
347.74	5832.6	
347.95	3599.6	
348.16	2747.7	
348.36	4906.3	
348.57	4679.6	
348.78	3617.4	
348.98	3890.5	
349.19	5000.5	
349.39	4568.3	
349.6	2978.4	
349.81	3275.4	
350.01	5227.8	
350.22	4780.6	
350.43	3530.7	
350.63	4233.8	
350.84	5065.3	
351.05	4837.3	
351.25	3222.8	
351.46	2971.6	
351.67	5465.3	
351.87	4706.2	
352.08	3414	
352.29	3838.6	
352.49	5393.7	
352.7	5450.3	
352.9	3138.2	
353.11	3855.6	
353.32	6034	
353.52	4877.6	
353.73	3034.4	
353.94	3879.5	
354.14	5300.8	
354.35	5043.5	
354.55	3185.3	
354.76	3489.1	
354.97	5216.9	
355.17	4973.2	
355.38	3033.7	
355.59	4094.6	
355.79	4747.2	
356	5051	
356.2	3467.2	
356.41	3066.5	
356.62	4534.2	
356.82	4954.7	
357.03	3726.6	
357.24	3359.4	
357.44	4789.5	
357.65	4806.6	
357.85	4380.6	
358.06	3510.2	
358.27	4525.3	
358.47	4597	
358.68	3005.1	
358.88	3719.1	
359.09	5163.6	
359.3	5517.2	
359.5	4244.8	
359.71	3804.4	
359.91	5919.3	
360.12	5249.6	
360.33	3686.3	
360.53	4166.3	
360.74	4710.3	
360.94	4760.8	
361.15	3886.4	
361.36	3168.9	
361.56	5418.9	
361.77	4896	
361.97	4213.4	
362.18	3376.4	
362.38	5398.4	
362.59	4612	
362.8	3153.9	
363	3001	
363.21	4455.7	
363.41	5053	
363.62	3516.4	
363.83	4417.5	
364.03	5087.2	
364.24	5881.8	
364.44	4515.1	
364.65	4481.6	
364.85	4879.6	
365.06	4603.2	
365.27	3285.6	
365.47	3315.7	
365.68	5764.3	
365.88	4839.4	
366.09	3676.1	
366.29	3345.7	
366.5	5020.9	
366.71	5454.4	
366.91	4388.8	
367.12	3760.1	
367.32	5971.2	
367.53	5294	
367.73	3738.9	
367.94	4511.7	
368.14	5272.8	
368.35	5998.5	
368.56	3740.3	
368.76	3156.6	
368.97	5404.6	
369.17	6764.4	
369.38	3259.7	
369.58	3497.2	
369.79	4536.9	
369.99	5677.7	
370.2	4409.3	
370.4	3627.6	
370.61	5157.5	
370.82	6120.7	
371.02	3477.5	
371.23	2952.5	
371.43	4487.8	
371.64	5569.1	
371.84	3482.9	
372.05	4494.6	
372.25	6694.1	
372.46	5366.4	
372.66	3435.1	
372.87	3500.7	
373.07	5343.2	
373.28	6700.3	
373.48	4313	
373.69	4059.8	
373.9	4934.2	
374.1	4974.5	
374.31	4299.4	
374.51	3869.3	
374.72	5571.8	
374.92	4657.8	
375.13	4416.1	
375.33	3734.8	
375.54	5256.5	
375.74	4805.9	
375.95	3756.7	
376.15	4837.3	
376.36	5266	
376.56	5096	
376.77	3789.4	
376.97	4163.5	
377.18	6094.8	
377.38	5305.6	
377.59	4474.1	
377.79	3421.5	
378	5159.5	
378.2	5468.8	
378.41	3458.3	
378.61	3416.7	
378.82	5541.1	
379.02	4757.4	
379.23	3591.5	
379.43	4524	
379.64	5603.2	
379.84	5238.7	
380.05	3434.4	
380.25	3384.6	
380.46	5400.5	
380.66	4974.5	
380.87	4557.4	
381.07	4892.6	
381.28	5864.7	
381.48	5338.4	
381.69	3447.4	
381.89	3463.8	
382.1	4475.5	
382.3	5425.8	
382.51	4399	
382.71	5123.3	
382.91	5345.2	
383.12	5861.3	
383.32	3808.5	
383.53	4033.8	
383.73	5231.9	
383.94	5152	
384.14	4004.5	
384.35	3170.9	
384.55	4994.3	
384.76	5359.5	
384.96	3788.1	
385.17	4022.2	
385.37	5407.3	
385.58	4777.2	
385.78	4053.6	
385.98	3134.1	
386.19	5137	
386.39	5281.7	
386.6	3594.9	
386.8	3815.4	
387.01	5332.2	
387.21	5401.9	
387.42	4134.8	
387.62	4592.9	
387.83	4847.5	
388.03	5289.9	
388.23	3833.1	
388.44	4500.8	
388.64	4603.2	
388.85	4606.6	
389.05	4091.8	
389.26	4680.3	
389.46	6195.1	
389.67	5740.5	
389.87	4072	
390.07	4091.2	
390.28	5003.2	
390.48	4704.9	
390.69	3394.8	
390.89	3706.8	
391.1	4819.6	
391.3	5634	
391.5	4764.3	
391.71	5205.9	
391.91	5460.6	
392.12	6228.6	
392.32	4734.2	
392.53	4166.9	
392.73	4962.9	
392.93	5074.2	
393.14	3792.8	
393.34	4526	
393.55	5584.1	
393.75	4988.2	
393.95	3830.4	
394.16	3764.2	
394.36	4884.4	
394.57	5414.1	
394.77	3393.5	
394.98	3728	
395.18	4882.4	
395.38	4952.7	
395.59	4475.5	
395.79	3593.5	
396	4913.1	
396.2	5346.6	
396.4	4225.6	
396.61	4209.3	
396.81	5468.8	
397.02	4878.3	
397.22	4536.9	
397.42	4461.8	
397.63	5487.2	
397.83	4816.8	
398.04	3555.3	
398.24	3998.3	
398.44	5302.2	
398.65	4479.6	
398.85	3309.5	
399.05	3459.7	
399.26	4771.8	
399.46	6212.9	
399.67	3830.4	
399.87	3576.4	
400.07	5133.6	
400.28	5401.2	
400.48	3644.7	
400.69	4515.8	
400.89	5577.3	
401.09	5939.1	
401.3	3536.8	
401.5	4458.4	
401.7	6171.9	
401.91	6326.2	
402.11	3863.2	
402.32	4062.5	
402.52	5615.5	
402.72	5596.4	
402.93	4184	
403.13	3297.2	
403.33	6254.5	
403.54	5127.4	
403.74	3994.2	
403.94	4719.2	
404.15	5241.4	
404.35	6204.7	
404.56	3814.7	
404.76	5363.6	
404.96	5578	
405.17	5360.2	
405.37	4803.2	
405.57	4184	
405.78	5640.1	
405.98	5147.9	
406.18	3810.6	
406.39	4619.5	
406.59	5642.2	
406.79	5210	
407	3622.2	
407.2	3664.5	
407.4	5649.7	
407.61	5707.7	
407.81	3711.6	
408.01	5481	
408.22	4725.3	
408.42	6367.8	
408.62	4566.3	
408.83	4065.2	
409.03	5136.3	
409.23	5092.6	
409.44	4147.1	
409.64	4414.7	
409.84	6040.8	
410.05	5879	
410.25	4280.3	
410.45	4040.6	
410.66	5483.8	
410.86	7518.8	
411.06	4458.4	
411.27	4360.8	
411.47	7372	
411.67	5617.6	
411.88	4532.8	
412.08	4713.7	
412.28	6183.5	
412.49	6520	
412.69	4330.1	
412.89	4357.4	
413.09	6435.4	
413.3	6368.5	
413.5	4401.8	
413.7	4106.9	
413.91	5680.4	
414.11	6352.8	
414.31	4261.1	
414.52	4585.4	
414.72	6152.1	
414.92	6008.1	
415.12	4266.6	
415.33	4721.3	
415.53	6339.8	
415.73	6427.2	
415.94	4954	
416.14	4459.1	
416.34	5505.6	
416.55	5218.9	
416.75	5555.5	
416.95	5005.9	
417.15	6337.1	
417.36	6920.1	
417.56	5719.3	
417.76	4906.3	
417.97	6655.9	
418.17	6404.7	
418.37	4571.1	
418.57	4642.1	
418.78	6242.2	
418.98	5913.9	
419.18	5325.4	
419.38	5283.8	
419.59	5911.8	
419.79	5618.9	
419.99	4476.9	
420.2	4788.8	
420.4	6425.2	
420.6	6568.5	
420.8	4307.6	
421.01	4284.4	
421.21	6255.9	
421.41	6358.3	
421.61	4799.8	
421.82	4474.1	
422.02	5897.5	
422.22	6653.2	
422.42	5143.8	
422.63	4923.3	
422.83	5870.2	
423.03	6997.2	
423.23	4891.9	
423.44	4042	
423.64	5954.1	
423.84	5737.7	
424.04	4450.9	
424.25	4130.1	
424.45	6839.5	
424.65	6739.2	
424.85	3984	
425.06	4531.5	
425.26	6817	
425.46	5788.2	
425.66	4977.9	
425.87	4671.4	
426.07	6550.8	
426.27	6437.4	
426.47	4781.3	
426.67	4177.9	
426.88	6898.2	
427.08	6381.5	
427.28	4961.5	
427.48	4196.3	
427.69	5474.9	
427.89	6020.3	
428.09	4925.4	
428.29	4280.9	
428.5	6597.9	
428.7	6249.7	
428.9	4123.9	
429.1	4576.5	
429.3	6146.6	
429.51	6427.9	
429.71	4440.7	
429.91	5096.7	
430.11	6412.2	
430.31	6569.9	
430.52	4668.7	
430.72	4869.4	
430.92	6888.7	
431.12	6336.4	
431.32	4414.7	
431.53	4740.4	
431.73	5484.5	
431.93	6917.4	
432.13	4308.2	
432.33	4242.7	
432.54	5913.2	
432.74	6196.5	
432.94	4173.8	
433.14	5047.6	
433.34	6428.6	
433.55	5920	
433.75	4969.7	
433.95	6523.5	
434.15	6282.5	
434.35	5929.6	
434.56	4332.8	
434.76	3850.2	
434.96	6179.4	
435.16	6368.5	
435.36	4304.1	
435.56	5244.8	
435.77	5833.3	
435.97	6034.7	
436.17	5712.5	
436.37	5112.4	
436.57	5889.3	
436.78	5788.2	
436.98	5088.5	
437.18	5728.9	
437.38	6404.7	
437.58	6024.4	
437.78	5776.6	
437.99	4575.2	
438.19	6539.2	
438.39	7670.3	
438.59	4500.1	
438.79	4145.1	
438.99	7058	
439.2	6038.1	
439.4	4244.1	
439.6	4214	
439.8	6303	
440	7161.7	
440.2	5092.6	
440.4	5204.6	
440.61	6639.5	
440.81	7081.2	
441.01	4389.5	
441.21	5152.7	
441.41	6946	
441.61	6640.9	
441.81	5481	
442.02	6301.6	
442.22	7404.1	
442.42	6776	
442.62	4489.1	
442.82	4541.7	
443.02	7048.4	
443.22	6185.5	
443.43	4843.4	
443.63	4448.2	
443.83	6077.7	
444.03	6111.8	
444.23	5526.8	
444.43	5156.8	
444.63	6312.5	
444.83	7374.7	
445.04	4642.1	
445.24	5734.3	
445.44	6719.4	
445.64	6834.1	
445.84	5341.1	
446.04	5274.9	
446.24	6177.4	
446.44	7059.3	
446.65	4612	
446.85	4941.1	
447.05	6448.4	
447.25	6977.4	
447.45	5038.7	
447.65	4493.9	
447.85	6481.1	
448.05	6188.3	
448.25	5345.2	
448.46	5201.2	
448.66	6475.7	
448.86	6117.3	
449.06	4411.3	
449.26	5414.1	
449.46	6754.9	
449.66	5949.3	
449.86	4945.8	
450.06	4863.9	
450.26	6094.8	
450.47	6650.4	
450.67	5163.6	
450.87	5462.6	
451.07	6739.9	
451.27	6473.6	
451.47	4618.9	
451.67	5074.2	
451.87	6260.6	
452.07	7185.6	
452.27	4810	
452.47	4726	
452.67	6537.1	
452.88	6837.5	
453.08	4254.3	
453.28	5966.4	
453.48	7497.6	
453.68	6387.6	
453.88	4698.7	
454.08	4958.8	
454.28	6779.5	
454.48	6496.2	
454.68	5380.7	
454.88	5811.5	
455.08	6968.6	
455.28	6615.6	
455.48	4554	
455.68	5193	
455.89	7266.9	
456.09	7035.5	
456.29	4892.6	
456.49	5027.1	
456.69	7186.3	
456.89	6526.2	
457.09	5384.8	
457.29	5692	
457.49	6838.9	
457.69	6910.5	
457.89	5207.3	
458.09	4747.9	
458.29	6607.4	
458.49	7273	
458.69	5614.2	
458.89	5024.3	
459.09	7455.3	
459.29	7533.8	
459.49	5245.5	
459.69	5901.6	
459.9	7084.6	
460.1	6627.2	
460.3	5088.5	
460.5	4944.5	
460.7	6984.9	
460.9	6738.5	
461.1	4707.6	
461.3	5816.2	
461.5	7622.5	
461.7	7266.2	
461.9	4921.3	
462.1	5414.1	
462.3	6855.9	
462.5	7346.7	
462.7	5071.5	
462.9	5152.7	
463.1	8272.4	
463.3	7937.9	
463.5	5283.1	
463.7	6104.3	
463.9	7012.9	
464.1	7357	
464.3	5424.4	
464.5	5651.7	
464.7	7561.8	
464.9	7267.6	
465.1	6741.2	
465.3	5991	
465.5	7866.2	
465.7	7885.4	
465.9	6157.6	
466.1	5976	
466.3	7690.8	
466.5	7559.1	
466.7	6729.6	
466.9	5860.6	
467.1	7634.8	
467.3	8285.4	
467.5	6758.3	
467.7	5793.7	
467.9	8535.9	
468.1	9305.3	
468.3	6371.9	
468.5	6799.3	
468.7	7522.9	
468.9	7451.2	
469.1	6122.7	
469.3	6659.3	
469.5	9193.3	
469.7	7163.1	
469.9	6483.2	
470.1	5862	
470.3	7618.4	
470.5	7582.9	
470.7	6961.7	
470.9	5927.5	
471.1	7386.3	
471.3	7739.3	
471.5	5786.2	
471.69	7444.4	
471.89	7296.9	
472.09	6879.1	
472.29	6472.9	
472.49	6740.5	
472.69	7065.5	
472.89	7841.7	
473.09	5730.9	
473.29	5816.9	
473.49	7190.4	
473.69	7226.6	
473.89	6662.7	
474.09	5980.8	
474.29	8436.3	
474.49	8126.3	
474.69	6567.8	
474.89	6054.5	
475.09	7354.3	
475.29	7343.3	
475.49	5668.1	
475.69	5855.8	
475.88	8755.1	
476.08	7693.5	
476.28	5524.1	
476.48	5839.4	
476.68	8045.8	
476.88	7870.3	
477.08	5796.4	
477.28	6087.9	
477.48	7503.8	
477.68	7959.8	
477.88	5614.8	
478.08	5978	
478.28	8325.7	
478.48	7606.8	
478.67	5938.4	
478.87	5470.1	
479.07	8080.6	
479.27	7656	
479.47	6169.2	
479.67	6183.5	
479.87	8020.5	
480.07	8387.8	
480.27	5552	
480.47	6864.8	
480.67	7651.9	
480.87	8206.2	
481.06	5821.7	
481.26	6569.9	
481.46	7658	
481.66	7517.4	
481.86	6283.9	
482.06	7046.4	
482.26	7299.6	
482.46	8194.6	
482.66	6209.4	
482.86	5800.5	
483.05	7729.7	
483.25	7199.3	
483.45	8312	
483.65	6194.4	
483.85	7357.7	
484.05	7642.3	
484.25	6509.1	
484.45	6976.1	
484.65	8346.2	
484.84	8360.5	
485.04	6150.1	
485.24	6163	
485.44	8711.4	
485.64	7158.3	
485.84	5575.3	
486.04	6759.7	
486.24	7528.3	
486.44	7824.6	
486.63	5466.7	
486.83	6229.2	
487.03	7425.3	
487.23	7707.2	
487.43	5578	
487.63	7595.2	
487.83	7729.7	
488.02	8544.8	
488.22	6467.5	
488.42	6913.3	
488.62	8471.1	
488.82	7501	
489.02	6146	
489.22	6185.5	
489.41	8400.8	
489.61	8027.4	
489.81	5961	
490.01	5911.1	
490.21	8247.9	
490.41	8806.3	
490.61	5952.8	
490.8	6044.2	
491	7844.4	
491.2	7365.2	
491.4	6614.9	
491.6	5857.2	
491.8	7808.2	
491.99	7918.8	
492.19	5685.2	
492.39	5939.1	
492.59	8233.5	
492.79	8349.6	
492.99	6755.6	
493.18	5936.4	
493.38	8484.7	
493.58	9045.2	
493.78	6613.6	
493.98	6186.9	
494.18	8166.6	
494.37	7682.6	
494.57	6797.2	
494.77	6647	
494.97	8325	
495.17	8598.7	
495.37	6395.1	
495.56	6688	
495.76	8766	
495.96	8458.8	
496.16	7442.3	
496.36	6514.6	
496.55	8697.7	
496.75	8212.4	
496.95	6947.4	
497.15	6838.2	
497.35	8596.7	
497.54	8600.1	
497.74	6589	
497.94	8077.2	
498.14	9287.5	
498.34	9038.4	
498.53	6418.3	
498.73	6976.1	
498.93	8062.9	
499.13	8729.1	
499.33	6967.9	
499.52	7374.7	
499.72	8619.9	
499.92	8936.7	
500.12	6648.4	
500.32	6819.7	
500.51	8907.3	
500.71	8672.5	
500.91	7537.9	
501.11	7178.8	
501.31	8869.8	
501.5	9149.6	
501.7	7796.6	
501.9	7011.6	
502.1	8727.8	
502.29	8926.4	
502.49	7335.8	
502.69	7656	
502.89	8828.1	
503.09	8803.5	
503.28	6449.7	
503.48	6679.1	
503.68	8224	
503.88	8265.6	
504.07	7483.3	
504.27	6993.1	
504.47	8619.2	
504.67	8675.9	
504.86	7444.4	
505.06	7110.5	
505.26	8282	
505.46	9797.5	
505.65	7043.6	
505.85	7149.5	
506.05	8291.5	
506.25	8742.1	
506.44	6406	
506.64	7281.9	
506.84	8195.3	
507.04	8921	
507.23	6623.8	
507.43	7138.5	
507.63	9839.8	
507.83	8314.1	
508.02	7147.4	
508.22	6798.6	
508.42	10081	
508.62	8170.7	
508.81	7229.3	
509.01	7424.6	
509.21	8129.1	
509.4	8345.5	
509.6	7194.5	
509.8	6631.3	
510	8333.2	
510.19	9463.7	
510.39	6632.7	
510.59	6752.8	
510.79	8205.5	
510.98	9371.5	
511.18	6837.5	
511.38	6976.1	
511.57	8911.4	
511.77	8697	
511.97	7501.7	
512.17	6725.5	
512.36	8878.6	
512.56	8751.7	
512.76	6698.9	
512.95	6386.9	
513.15	9004.9	
513.35	7764.5	
513.55	7441	
513.74	6705.7	
513.94	8976.2	
514.14	8372.8	
514.33	7503.1	
514.53	7296.2	
514.73	8430.1	
514.92	8514.1	
515.12	6879.8	
515.32	6723.5	
515.51	8680.7	
515.71	9082.1	
515.91	8260.1	
516.11	6712.6	
516.3	10127	
516.5	8390.5	
516.7	7309.9	
516.89	7698.3	
517.09	8477.2	
517.29	8347.5	
517.48	7518.8	
517.68	7027.9	
517.88	8206.2	
518.07	8742.1	
518.27	7551.5	
518.47	6724.2	
518.66	9258.9	
518.86	8155	
519.06	6533.7	
519.25	7026.6	
519.45	8393.3	
519.65	9697.8	
519.84	7573.4	
520.04	8068.3	
520.24	9954.5	
520.43	9080.7	
520.63	7347.4	
520.83	7056.6	
521.02	8342.7	
521.22	8871.1	
521.42	7452.6	
521.61	8014.4	
521.81	8529.8	
522.01	8699.8	
522.2	7446.4	
522.4	7139.9	
522.6	9088.2	
522.79	8066.3	
522.99	7216.4	
523.18	6663.4	
523.38	8921.6	
523.58	8912.8	
523.77	8428.8	
523.97	6796.5	
524.17	10585	
524.36	9849.4	
524.56	7905.2	
524.76	7646.4	
524.95	8982.4	
525.15	8757.8	
525.34	7525.6	
525.54	7587.7	
525.74	9410.4	
525.93	8522.3	
526.13	8575.5	
526.33	7587	
526.52	9767.4	
526.72	9271.2	
526.91	8698.4	
527.11	8116.8	
527.31	9784.5	
527.5	10193	
527.7	7989.1	
527.89	7188.4	
528.09	8932.6	
528.29	9484.1	
528.48	8290.9	
528.68	8145.5	
528.87	9837.1	
529.07	9759.9	
529.27	7966.6	
529.46	7659.4	
529.66	9427.5	
529.85	9908.1	
530.05	7523.6	
530.25	8163.9	
530.44	10619	
530.64	9413.1	
530.83	7907.2	
531.03	8106.5	
531.23	9895.8	
531.42	9753.1	
531.62	8826.7	
531.81	8060.1	
532.01	10062	
532.21	10388	
532.4	7882.6	
532.6	8317.5	
532.79	10882	
532.99	10243	
533.18	8314.1	
533.38	9211.8	
533.58	9815.9	
533.77	10425	
533.97	8391.9	
534.16	9112.1	
534.36	10761	
534.55	9930.6	
534.75	9268.4	
534.95	8517.5	
535.14	10618	
535.34	9908.1	
535.53	8178.9	
535.73	9816.6	
535.92	11075	
536.12	10078	
536.31	8379.6	
536.51	9294.4	
536.71	10382	
536.9	10021	
537.1	8502.5	
537.29	8582.4	
537.49	10726	
537.68	9867.1	
537.88	9019.9	
538.07	8129.8	
538.27	10193	
538.46	11116	
538.66	8154.3	
538.86	8582.4	
539.05	10279	
539.25	10572	
539.44	8865.7	
539.64	8466.3	
539.83	10178	
540.03	10925	
540.22	8378.9	
540.42	8481.3	
540.61	10340	
540.81	10406	
541	8849.3	
541.2	9456.8	
541.39	9927.9	
541.59	10191	
541.78	9229.5	
541.98	8432.9	
542.18	9707.4	
542.37	9584.5	
542.57	8746.9	
542.76	9209.7	
542.96	9789.3	
543.15	10374	
543.35	8718.9	
543.54	8122.9	
543.74	10390	
543.93	10099	
544.13	8645.2	
544.32	9529.9	
544.52	10441	
544.71	9688.3	
544.91	7891.5	
545.1	8934.6	
545.3	9677.3	
545.49	10236	
545.69	7899.7	
545.88	8393.9	
546.08	11164	
546.27	10618	
546.47	8852	
546.66	8101.1	
546.86	10484	
547.05	11032	
547.24	8381.7	
547.44	8275.2	
547.63	9618.6	
547.83	10587	
548.02	8591.2	
548.22	8745.5	
548.41	9377.6	
548.61	10596	
548.8	8153.6	
549	8170.7	
549.19	10042	
549.39	10404	
549.58	7879.2	
549.78	8475.9	
549.97	10361	
550.17	9895.1	
550.36	9087.5	
550.55	10091	
550.75	9865.1	
550.94	10678	
551.14	8117.5	
551.33	8409.6	
551.53	9275.3	
551.72	10178	
551.92	8417.2	
552.11	8316.8	
552.31	10158	
552.5	10236	
552.69	9639.1	
552.89	7937.9	
553.08	10185	
553.28	9964.7	
553.47	8225.3	
553.67	9198.1	
553.86	10694	
554.06	9274.6	
554.25	7595.2	
554.44	8049.9	
554.64	11343	
554.83	10916	
555.03	8093.6	
555.22	8335.2	
555.42	10439	
555.61	10071	
555.8	8274.5	
556	8433.5	
556.19	9271.2	
556.39	10403	
556.58	8260.1	
556.78	8187.8	
556.97	10063	
557.16	9706	
557.36	9276.6	
557.55	7964.6	
557.75	9054.8	
557.94	10692	
558.13	8000	
558.33	7850.5	
558.52	10454	
558.72	9488.9	
558.91	7862.8	
559.1	8094.3	
559.3	9237.7	
559.49	8946.9	
559.69	7520.8	
559.88	8339.3	
560.07	9843.9	
560.27	10368	
560.46	8558.5	
560.66	8602.2	
560.85	9753.1	
561.04	9047.9	
561.24	7799.3	
561.43	7941.3	
561.63	9201.5	
561.82	9458.2	
562.01	9101.2	
562.21	8186.4	
562.4	9860.3	
562.59	10722	
562.79	8071.7	
562.98	7848.5	
563.18	9763.3	
563.37	11110	
563.56	8550.3	
563.76	7836.9	
563.95	9394	
564.14	9360.6	
564.34	8206.9	
564.53	7959.1	
564.73	9803.6	
564.92	10091	
565.11	8257.4	
565.31	7784.3	
565.5	10392	
565.69	9327.1	
565.89	8062.9	
566.08	8234.2	
566.27	10222	
566.47	10601	
566.66	8865	
566.85	7628.7	
567.05	9876	
567.24	9351	
567.44	7951.6	
567.63	9011.7	
567.82	10146	
568.02	9798.2	
568.21	7904.5	
568.4	8215.8	
568.6	9781.1	
568.79	9838.4	
568.98	7825.3	
569.18	8010.3	
569.37	9798.8	
569.56	11499	
569.76	8305.2	
569.95	9062.9	
570.14	10001	
570.34	9974.3	
570.53	7934.5	
570.72	7858.7	
570.91	10482	
571.11	9690.3	
571.3	8249.2	
571.49	9101.2	
571.69	9826.8	
571.88	9405.6	
572.07	8745.5	
572.27	8728.4	
572.46	9346.2	
572.65	10283	
572.85	8041.7	
573.04	8307.9	
573.23	10460	
573.43	9823.4	
573.62	7890.1	
573.81	8487.5	
574	9954.5	
574.2	9680.7	
574.39	8275.8	
574.58	8406.2	
574.78	10658	
574.97	9999.5	
575.16	8649.3	
575.36	8798.1	
575.55	10394	
575.74	10525	
575.93	7905.8	
576.13	8925	
576.32	9904.7	
576.51	10318	
576.71	8338.6	
576.9	9479.4	
577.09	10634	
577.28	10199	
577.48	8665	
577.67	7971.4	
577.86	9868.5	
578.05	10210	
578.25	8497	
578.44	8468.4	
578.63	9990.7	
578.83	10942	
579.02	7924.3	
579.21	9321.7	
579.4	10098	
579.6	9929.2	
579.79	8639	
579.98	10342	
580.17	10512	
580.37	10479	
580.56	8110	
580.75	8709.3	
580.94	10832	
581.14	10726	
581.33	9176.3	
581.52	8198.7	
581.71	10209	
581.91	10890	
582.1	8073.8	
582.29	8455.4	
582.48	9975.7	
582.68	9969.5	
582.87	8965.3	
583.06	8559.8	
583.25	10290	
583.45	10154	
583.64	9175.6	
583.83	9818.6	
584.02	9927.2	
584.21	10187	
584.41	9119.6	
584.6	8539.3	
584.79	10185	
584.98	10738	
585.18	8105.9	
585.37	8033.5	
585.56	9690.3	
585.75	10469	
585.94	8227.4	
586.14	8839.7	
586.33	10793	
586.52	10094	
586.71	8703.2	
586.91	8392.6	
587.1	9452.1	
587.29	10397	
587.48	8342.7	
587.67	8218.5	
587.87	10301	
588.06	10236	
588.25	9340.8	
588.44	8757.8	
588.63	9875.3	
588.83	10436	
589.02	8319.5	
589.21	8131.1	
589.4	9664.4	
589.59	9626.1	
589.78	7458.7	
589.98	7650.5	
590.17	9168.8	
590.36	9544.2	
590.55	7083.9	
590.74	7762.5	
590.94	10617	
591.13	9412.5	
591.32	7509.2	
591.51	7191.1	
591.7	9807	
591.89	9334	
592.09	7289.4	
592.28	7699.7	
592.47	8717.5	
592.66	10407	
592.85	7322.2	
593.05	7529	
593.24	9265	
593.43	9968.1	
593.62	7572.7	
593.81	7940.7	
594	9327.1	
594.19	9482.8	
594.39	7499.7	
594.58	7476.5	
594.77	9612.5	
594.96	10055	
595.15	7359	
595.34	7946.8	
595.54	9574.9	
595.73	8791.9	
595.92	6851.8	
596.11	7937.9	
596.3	9991.4	
596.49	8986.5	
596.68	7533.1	
596.88	8007.6	
597.07	9769.5	
597.26	8656.1	
597.45	7163.1	
597.64	8166.6	
597.83	8958.5	
598.02	9542.2	
598.22	7280.5	
598.41	7832.8	
598.6	9270.5	
598.79	8786.5	
598.98	7298.3	
599.17	8079.2	
599.36	9333.3	
599.55	10290	
599.74	9108	
599.94	8819.9	
600.13	9781.8	
600.32	8637.6	
600.51	7093.5	
600.7	7174	
600.89	10354	
601.08	10286	
601.27	7126.2	
601.47	7839.6	
601.66	9749	
601.85	10099	
602.04	7554.3	
602.23	7773.4	
602.42	8861.6	
602.61	9394	
602.8	7421.2	
602.99	7269.6	
603.18	9187.9	
603.37	9381.1	
603.57	7844.4	
603.76	8258.1	
603.95	9978.4	
604.14	9540.8	
604.33	7476.5	
604.52	7623.2	
604.71	9297.1	
604.9	8921	
605.09	8453.3	
605.28	8058.1	
605.47	9835	
605.66	9539.4	
605.86	7893.6	
606.05	7329.7	
606.24	9794.8	
606.43	8515.5	
606.62	7656.7	
606.81	8292.9	
607	9617.9	
607.19	9056.1	
607.38	7101	
607.57	7288.7	
607.76	8834.3	
607.95	8383.7	
608.14	7651.2	
608.33	8193.2	
608.52	8819.2	
608.72	9666.4	
608.91	7040.2	
609.1	6993.8	
609.29	8988.5	
609.48	8550.3	
609.67	7732.4	
609.86	7009.5	
610.05	8599.4	
610.24	8923	
610.43	6907.8	
610.62	6522.8	
610.81	9805.7	
611	9672.6	
611.19	6995.2	
611.38	7662.8	
611.57	9125.1	
611.76	10190	
611.95	6838.9	
612.14	6759.7	
612.33	8889.5	
612.52	8477.9	
612.71	7280.5	
612.9	6604	
613.09	8184.4	
613.28	10258	
613.47	7132.4	
613.66	7815	
613.85	9044.5	
614.04	8620.6	
614.24	7141.9	
614.43	6464.1	
614.62	9146.2	
614.81	9122.3	
615	7628.7	
615.19	7580.2	
615.38	8495	
615.57	8865	
615.76	7487.4	
615.95	8310.7	
616.14	9239.1	
616.33	8916.9	
616.52	7746.1	
616.71	7891.5	
616.9	9147.6	
617.09	9015.8	
617.28	7234.1	
617.47	8286.8	
617.66	8387.8	
617.85	8378.9	
618.04	7983	
618.22	7408.9	
618.41	8632.9	
618.6	9502.6	
618.79	7521.5	
618.98	7172	
619.17	9736.7	
619.36	8236.9	
619.55	7339.2	
619.74	7443	
619.93	9168.1	
620.12	8601.5	
620.31	8002.1	
620.5	8006.2	
620.69	9710.8	
620.88	10040	
621.07	8643.8	
621.26	7738.6	
621.45	9345.6	
621.64	9421.3	
621.83	7925	
622.02	7187.7	
622.21	9405.6	
622.4	9232.2	
622.59	8414.4	
622.78	8178.9	
622.97	8903.9	
623.16	9777.7	
623.35	7947.5	
623.54	7114.6	
623.72	9008.3	
623.91	9190.6	
624.1	8204.2	
624.29	7019.1	
624.48	10144	
624.67	9538.8	
624.86	8065.6	
625.05	7259.4	
625.24	10267	
625.43	8810.4	
625.62	9501.9	
625.81	7514.7	
626	9692.4	
626.19	9090.3	
626.38	8121.6	
626.56	7658	
626.75	8959.9	
626.94	9617.3	
627.13	8160.5	
627.32	6997.2	
627.51	9548.3	
627.7	10587	
627.89	7103	
628.08	8155	
628.27	8818.6	
628.46	9035.6	
628.65	7410.9	
628.83	7133.8	
629.02	9467.1	
629.21	8918.9	
629.4	7744.7	
629.59	7957	
629.78	8877.3	
629.97	9701.9	
630.16	7891.5	
630.35	7526.3	
630.54	10099	
630.72	9778.4	
630.91	7546.8	
631.1	7997.3	
631.29	9398.8	
631.48	9512.8	
631.67	8109.3	
631.86	7659.4	
632.05	9143.5	
632.24	9155.1	
632.42	7318.1	
632.61	7822.6	
632.8	9172.9	
632.99	8761.2	
633.18	7858.7	
633.37	8127.7	
633.56	9411.8	
633.75	9322.4	
633.93	7869	
634.12	7548.1	
634.31	10090	
634.5	9716.2	
634.69	7603.4	
634.88	8097	
635.07	9170.1	
635.25	9747	
635.44	8458.1	
635.63	8617.9	
635.82	9024.7	
636.01	8542.8	
636.2	8296.3	
636.39	7959.1	
636.57	9996.8	
636.76	9578.3	
636.95	7490.1	
637.14	8640.4	
637.33	9462.3	
637.52	10084	
637.7	7161.1	
637.89	7996	
638.08	9075.2	
638.27	10328	
638.46	8091.5	
638.65	8471.1	
638.83	10215	
639.02	8912.1	
639.21	7932.5	
639.4	8368.7	
639.59	9294.4	
639.78	8886.1	
639.96	7256.6	
640.15	7488.7	
640.34	9227.5	
640.53	9341.5	
640.72	7086	
640.91	7316	
641.09	8610.3	
641.28	9783.1	
641.47	7405.5	
641.66	8068.3	
641.85	9147.6	
642.03	9361.3	
642.22	7788.4	
642.41	7311.2	
642.6	8685.4	
642.79	8156.4	
642.97	7213.6	
643.16	7914.7	
643.35	8705.2	
643.54	8501.1	
643.73	7094.8	
643.91	7799.3	
644.1	8419.9	
644.29	8912.1	
644.48	7072.3	
644.67	7251.9	
644.85	8462.9	
645.04	8809.7	
645.23	6811.5	
645.42	7105.8	
645.6	8348.2	
645.79	9352.4	
645.98	7061.4	
646.17	6211.5	
646.36	8163.2	
646.54	8591.2	
646.73	7664.9	
646.92	6654.5	
647.11	8174.1	
647.29	9152.4	
647.48	6684.6	
647.67	6429.3	
647.86	9372.9	
648.05	9246.6	
648.23	6947.4	
648.42	7996	
648.61	8753.7	
648.8	8549.6	
648.98	6526.9	
649.17	6860	
649.36	8163.9	
649.55	7732.4	
649.73	6612.2	
649.92	7283.9	
650.11	8004.8	
650.3	8351.6	
650.48	6734.4	
650.67	6562.4	
650.86	8570.7	
651.05	7615.7	
651.23	6767.2	
651.42	6627.2	
651.61	8029.4	
651.79	8137.3	
651.98	6810.2	
652.17	6473.6	
652.36	8407.6	
652.54	7628	
652.73	6538.5	
652.92	6382.2	
653.11	8415.8	
653.29	8479.3	
653.48	5935.7	
653.67	6753.5	
653.85	8284.7	
654.04	9125.1	
654.23	6868.9	
654.42	6518.7	
654.6	7738.6	
654.79	8353	
654.98	6007.4	
655.16	6467.5	
655.35	7382.9	
655.54	7251.9	
655.73	5988.3	
655.91	5847	
656.1	8247.9	
656.29	7177.4	
656.47	5574.6	
656.66	7058	
656.85	7595.9	
657.03	7565.9	
657.22	6091.3	
657.41	6136.4	
657.59	7646.4	
657.78	7446.4	
657.97	5915.2	
658.16	6502.3	
658.34	8282.7	
658.53	8514.1	
658.72	7275.8	
658.9	7688.1	
659.09	7817.1	
659.28	7767.9	
659.46	6254.5	
659.65	6191	
659.84	7461.4	
660.02	8039.6	
660.21	6060.6	
660.4	6071.5	
660.58	8353	
660.77	7869.7	
660.96	6572.6	
661.14	5731.6	
661.33	8857.5	
661.52	8653.4	
661.7	5766.4	
661.89	8944.8	
662.08	7550.2	
662.26	6976.7	
662.45	5978.7	
662.64	6100.2	
662.82	8077.2	
663.01	7368.6	
663.2	6096.8	
663.38	6692.8	
663.57	8008.2	
663.75	7804.1	
663.94	6338.5	
664.13	7440.3	
664.31	7406.8	
664.5	7994.6	
664.69	6635.4	
664.87	7049.8	
665.06	7169.3	
665.25	7842.4	
665.43	7256.6	
665.62	7249.8	
665.8	8123.6	
665.99	7509.2	
666.18	6319.3	
666.36	6375.3	
666.55	8079.9	
666.74	8040.3	
666.92	6013.5	
667.11	7391.8	
667.29	7557.7	
667.48	8084.7	
667.67	6997.9	
667.85	6212.2	
668.04	7534.5	
668.22	7483.3	
668.41	6367.1	
668.6	6543.3	
668.78	7304.4	
668.97	7561.1	
669.15	6612.9	
669.34	5819	
669.53	7339.9	
669.71	7653.3	
669.9	5872.2	
670.08	6473.6	
670.27	7284.6	
670.46	7876.5	
670.64	6640.2	
670.83	6941.9	
671.01	7269.6	
671.2	7715.4	
671.38	5943.9	
671.57	5834	
671.76	8254	
671.94	8722.3	
672.13	5848.3	
672.31	6705	
672.5	7946.1	
672.69	7143.3	
672.87	5989.6	
673.06	6264.1	
673.24	7812.3	
673.43	7326.9	
673.61	6544.6	
673.8	6204	
673.98	7889.5	
674.17	8068.3	
674.36	6718	
674.54	6571.9	
674.73	7778.9	
674.91	7915.4	
675.1	6303	
675.28	6059.3	
675.47	7555	
675.65	8017.8	
675.84	6221	
676.03	6513.2	
676.21	7357	
676.4	6883.9	
676.58	6833.4	
676.77	6701.6	
676.95	8621.9	
677.14	7320.1	
677.32	5952.8	
677.51	5777.3	
677.69	8002.8	
677.88	7125.6	
678.06	5902.9	
678.25	5956.2	
678.44	7584.3	
678.62	7303.7	
678.81	5722.7	
678.99	6494.1	
679.18	8288.1	
679.36	7834.8	
679.55	6195.1	
679.73	6696.9	
679.92	7884	
680.1	7359.7	
680.29	7191.8	
680.47	6149.4	
680.66	7328.3	
680.84	7998	
681.03	5614.2	
681.21	6567.2	
681.4	7292.8	
681.58	7225.2	
681.77	5994.4	
681.95	5935	
682.14	8060.8	
682.32	8390.5	
682.51	6678.4	
682.69	5707.7	
682.88	7339.9	
683.06	7776.1	
683.25	6468.2	
683.43	6925.5	
683.62	7580.2	
683.8	7923.6	
683.99	7002	
684.17	6389	
684.36	8641.1	
684.54	7484	
684.73	5659.9	
684.91	5893.4	
685.1	7733.1	
685.28	7088	
685.46	6283.2	
685.65	6272.2	
685.83	7881.9	
686.02	7344.7	
686.2	5851.7	
686.39	6004.6	
686.57	7187.7	
686.76	8411.7	
686.94	5834.7	
687.13	6060.6	
687.31	7690.8	
687.5	7431.4	
687.68	5595.1	
687.86	6632.7	
688.05	8899.8	
688.23	6950.8	
688.42	6713.9	
688.6	5999.2	
688.79	7271.7	
688.97	7363.8	
689.16	6428.6	
689.34	5487.2	
689.52	8015.7	
689.71	8159.1	
689.89	6668.2	
690.08	6050.4	
690.26	7638.2	
690.45	7524.9	
690.63	6879.1	
690.81	6308.4	
691	7507.9	
691.18	7450.5	
691.37	6390.3	
691.55	8164.6	
691.74	7384.3	
691.92	9121.7	
692.1	6322.8	
692.29	5936.4	
692.47	7579.5	
692.66	6943.3	
692.84	6136.4	
693.02	6563.7	
693.21	7117.4	
693.39	7571.3	
693.58	6707.1	
693.76	6146	
693.94	8630.8	
694.13	8533.2	
694.31	6192.4	
694.5	7171.3	
694.68	7501	
694.86	7869.7	
695.05	6651.8	
695.23	6968.6	
695.42	8219.2	
695.6	9994.8	
695.78	7118.7	
695.97	6430.6	
696.15	8303.8	
696.34	7761.1	
696.52	6209.4	
696.7	6940.6	
696.89	8077.2	
697.07	7521.5	
697.25	6936.5	
697.44	8146.8	
697.62	8047.2	
697.81	8397.4	
697.99	6610.8	
698.17	7027.3	
698.36	7561.8	
698.54	8151.6	
698.72	6959.7	
698.91	6088.6	
699.09	7757	
699.28	7634.1	
699.46	6635.4	
699.64	6548.7	
699.83	7630.7	
700.01	8550.3	
700.19	7202	
700.38	5916.6	
700.56	8680.7	
700.74	7786.4	
700.93	6195.8	
701.11	7028.6	
701.29	8261.5	
701.48	9151	
701.66	6491.4	
701.84	6572.6	
702.03	7922.9	
702.21	8625.4	
702.39	6298.2	
702.58	6787	
702.76	8346.2	
702.94	8456.7	
703.13	6258.6	
703.31	8394.6	
703.49	7719.5	
703.68	8634.2	
703.86	6450.4	
704.04	7267.6	
704.23	8265.6	
704.41	8546.9	
704.59	6593.8	
704.78	7688.1	
704.96	9210.4	
705.14	8585.1	
705.33	6447	
705.51	7169.3	
705.69	8172.8	
705.87	8862.9	
706.06	7516.7	
706.24	6395.1	
706.42	8350.9	
706.61	8610.3	
706.79	7531.1	
706.97	6547.4	
707.16	7991.9	
707.34	8461.5	
707.52	7449.1	
707.7	6660.7	
707.89	8190.5	
708.07	7811	
708.25	7527.7	
708.44	7581.6	
708.62	8115.4	
708.8	9013.1	
708.98	7662.8	
709.17	6850.5	
709.35	8493.6	
709.53	8495	
709.72	6592.4	
709.9	7023.9	
710.08	8710	
710.26	8673.8	
710.45	8037.6	
710.63	6905.1	
710.81	8310.7	
710.99	8486.1	
711.18	7406.1	
711.36	6971.3	
711.54	8225.3	
711.72	8858.8	
711.91	6992.4	
712.09	6579.4	
712.27	8372.1	
712.45	8871.8	
712.64	7295.5	
712.82	6408.1	
713	7922.9	
713.18	7989.8	
713.37	6432.7	
713.55	7556.3	
713.73	8667	
713.91	7434.1	
714.1	6652.5	
714.28	6111.1	
714.46	8227.4	
714.64	7469.6	
714.83	5510.4	
715.01	6216.3	
715.19	7429.3	
715.37	6825.9	
715.55	5808	
715.74	6049	
715.92	8082.6	
716.1	6417	
716.28	7043.6	
716.47	6189.6	
716.65	7004.1	
716.83	7019.8	
717.01	6040.1	
717.19	6102.3	
717.38	8815.8	
717.56	6780.1	
717.74	6272.9	
717.92	5523.4	
718.1	7844.4	
718.29	7189.1	
718.47	5361.6	
718.65	5943.2	
718.83	8026	
719.01	7977.5	
719.2	5352	
719.38	6392.4	
719.56	7716.1	
719.74	9013.8	
719.92	5998.5	
720.11	6847.7	
720.29	7743.4	
720.47	6995.9	
720.65	5493.3	
720.83	6262	
721.02	7189.7	
721.2	6983.6	
721.38	6217	
721.56	5573.9	
721.74	6494.1	
721.92	6597.9	
722.11	6662	
722.29	6368.5	
722.47	7794.6	
722.65	6988.4	
722.83	5569.1	
723.01	6318	
723.2	7055.3	
723.38	7372.7	
723.56	5101.5	
723.74	6088.6	
723.92	6662	
724.1	7688.8	
724.29	5584.1	
724.47	6524.8	
724.65	6797.9	
724.83	6694.1	
725.01	5457.8	
725.19	6227.2	
725.37	6698.2	
725.56	6774	
725.74	5323.4	
725.92	5494.7	
726.1	6635.4	
726.28	6917.4	
726.46	5870.2	
726.64	5677	
726.83	6938.5	
727.01	7100.3	
727.19	5339.7	
727.37	6006	
727.55	7102.4	
727.73	7484	
727.91	5288.5	
728.09	5137.7	
728.28	7484.6	
728.46	7879.2	
728.64	6184.2	
728.82	6040.8	
729	8484.7	
729.18	7954.3	
729.36	5367.7	
729.54	7402	
729.72	8728.4	
729.91	7256.6	
730.09	7168.6	
730.27	6073.6	
730.45	7246.4	
730.63	7754.3	
730.81	6656.6	
730.99	5808.7	
731.17	8294.3	
731.35	7081.2	
731.53	6331	
731.71	6009.4	
731.9	8017.8	
732.08	8101.8	
732.26	6195.8	
732.44	5814.9	
732.62	8127	
732.8	7693.5	
732.98	6457.2	
733.16	5675.6	
733.34	7703.8	
733.52	6656.6	
733.7	6010.8	
733.88	6281.1	
734.07	7473	
734.25	7297.6	
734.43	5557.5	
734.61	6965.1	
734.79	8684.1	
734.97	7245.7	
735.15	5702.9	
735.33	6051.1	
735.51	7521.5	
735.69	7217.7	
735.87	6918	
736.05	6180.1	
736.23	7233.4	
736.41	7125.6	
736.59	6049.7	
736.77	6114.6	
736.95	7706.5	
737.13	7250.5	
737.32	5751.4	
737.5	5973.2	
737.68	8212.4	
737.86	7129	
738.04	5551.4	
738.22	7080.5	
738.4	6939.2	
738.58	7215	
738.76	6020.3	
738.94	5134.3	
739.12	7106.5	
739.3	6955.6	
739.48	6556.9	
739.66	6304.3	
739.84	7317.4	
740.02	7247.1	
740.2	5247.6	
740.38	5557.5	
740.56	7580.9	
740.74	6544.6	
740.92	6126.8	
741.1	5948.7	
741.28	7038.9	
741.46	7001.3	
741.64	5657.2	
741.82	6074.3	
742	7086	
742.18	7002.7	
742.36	5801.2	
742.54	5483.8	
742.72	7449.1	
742.9	6416.3	
743.08	6115.9	
743.26	5073.5	
743.44	7679.2	
743.62	7515.4	
743.8	6213.5	
743.98	5360.2	
744.16	7208.8	
744.34	6937.2	
744.52	6047	
744.7	6042.2	
744.88	7305.1	
745.06	6925.5	
745.24	6021.7	
745.42	6133.7	
745.6	7406.1	
745.78	7148.1	
745.96	5072.8	
746.14	5335.6	
746.32	8003.5	
746.5	7256	
746.68	5741.1	
746.86	5280.3	
747.03	7706.5	
747.21	6247.7	
747.39	5758.9	
747.57	5245.5	
747.75	6892.8	
747.93	7281.9	
748.11	5260.5	
748.29	5157.5	
748.47	8374.8	
748.65	6773.3	
748.83	5819.6	
749.01	5600.5	
749.19	7060.7	
749.37	6313.2	
749.55	5558.9	
749.73	5587.5	
749.91	6842.3	
750.09	6597.2	
750.26	5575.9	
750.44	5074.2	
750.62	6806.1	
750.8	6752.2	
750.98	4912.4	
751.16	5184.1	
751.34	6778.8	
751.52	6215.6	
751.7	5884.5	
751.88	4933.6	
752.06	7218.4	
752.24	7008.1	
752.42	4870.1	
752.59	5201.8	
752.77	6694.1	
752.95	7753.6	
753.13	5806	
753.31	5263.3	
753.49	6323.4	
753.67	6803.4	
753.85	5520.6	
754.03	5124	
754.21	7008.1	
754.38	7313.3	
754.56	5248.9	
754.74	4282.3	
754.92	6247.7	
755.1	6778.8	
755.28	4364.2	
755.46	4306.9	
755.64	7343.3	
755.82	7366.5	
755.99	4319.2	
756.17	4342.4	
756.35	5085.1	
756.53	6396.5	
756.71	3341.6	
756.89	4119.1	
757.07	5982.8	
757.25	5256.5	
757.42	4656.4	
757.6	5354.1	
757.78	6102.3	
757.96	5300.8	
758.14	4449.6	
758.32	4054.3	
758.5	4917.9	
758.67	5642.2	
758.85	4258.4	
759.03	4394.3	
759.21	5803.9	
759.39	5303.6	
759.57	3959.4	
759.75	4922	
759.92	6337.8	
760.1	5784.8	
760.28	5202.5	
760.46	5499.5	
760.64	5563	
760.82	5410.1	
760.99	5143.8	
761.17	4470.7	
761.35	6345.3	
761.53	5416.9	
761.71	4545.1	
761.89	5180	
762.06	6313.2	
762.24	5785.5	
762.42	4681.7	
762.6	4499.4	
762.78	5763	
762.96	6409.5	
763.13	5063.9	
763.31	4683.7	
763.49	6541.9	
763.67	5762.3	
763.85	5533.6	
764.02	5941.8	
764.2	6678.4	
764.38	6032	
764.56	4635.9	
764.74	5430.5	
764.91	6856.6	
765.09	5872.9	
765.27	4394.9	
765.45	4160.1	
765.63	6901.7	
765.8	6814.3	
765.98	3938.9	
766.16	4222.2	
766.34	5473.5	
766.52	5317.9	
766.69	5061.9	
766.87	4078.9	
767.05	5841.5	
767.23	6377.4	
767.41	4326	
767.58	4507.6	
767.76	6253.8	
767.94	6364.4	
768.12	4362.9	
768.29	4956.1	
768.47	5817.6	
768.65	6436.1	
768.83	3979.2	
769	5046.2	
769.18	5511.1	
769.36	6053.8	
769.54	5013.4	
769.72	3985.3	
769.89	6279.8	
770.07	6290.7	
770.25	4305.5	
770.43	5400.5	
770.6	6882.5	
770.78	7201.3	
770.96	4432.5	
771.14	4982.7	
771.31	6133	
771.49	5583.4	
771.67	3667.2	
771.85	3915.7	
772.02	4930.8	
772.2	5598.5	
772.38	4515.8	
772.55	4106.9	
772.73	5830.6	
772.91	5631.2	
773.09	4453	
773.26	4483.7	
773.44	5732.9	
773.62	5508.4	
773.8	3937.6	
773.97	3788.7	
774.15	5764.3	
774.33	5470.1	
774.5	3808.5	
774.68	4190.1	
774.86	5885.9	
775.04	5414.8	
775.21	3956	
775.39	3936.9	
775.57	5716.6	
775.74	5998.5	
775.92	3751.9	
776.1	3649.5	
776.27	5701.5	
776.45	6752.8	
776.63	3886.4	
776.81	3489.7	
776.98	5351.3	
777.16	6214.9	
777.34	4012	
777.51	4217.5	
777.69	5322.7	
777.87	5151.3	
778.04	4003.8	
778.22	4533.5	
778.4	5153.4	
778.57	5730.9	
778.75	3404.4	
778.93	3663.1	
779.1	4946.5	
779.28	4815.5	
779.46	3411.2	
779.64	3847.5	
779.81	5834.7	
779.99	6505	
780.17	4472.1	
780.34	4640	
780.52	5340.4	
780.69	5569.8	
780.87	4050.2	
781.05	3661.1	
781.22	5378.6	
781.4	5522	
781.58	3867.2	
781.75	3098.6	
781.93	5311.7	
782.11	4841.4	
782.28	4538.3	
782.46	3794.9	
782.64	4740.4	
782.81	5545.2	
782.99	3891.1	
783.17	3829.7	
783.34	5438	
783.52	4810.7	
783.69	3979.9	
783.87	4713.7	
784.05	4870.8	
784.22	4874.2	
784.4	4697.4	
784.58	4084.3	
784.75	5698.8	
784.93	4930.8	
785.1	3843.4	
785.28	4342.4	
785.46	5427.1	
785.63	4760.2	
785.81	3786	
785.99	3599	
786.16	4980	
786.34	5370.5	
786.51	3680.9	
786.69	4050.9	
786.87	4661.9	
787.04	5072.8	
787.22	3568.9	
787.39	4336.2	
787.57	4806.6	
787.75	5772.5	
787.92	4552	
788.1	4427	
788.27	4827.1	
788.45	4581.3	
788.63	4187.4	
788.8	3065.1	
788.98	5196.4	
789.15	4590.2	
789.33	3147	
789.5	3728	
789.68	5610.8	
789.86	5683.1	
790.03	4154.6	
790.21	3606.5	
790.38	5606	
790.56	4916.5	
790.73	3539.6	
790.91	3502.7	
791.09	4803.2	
791.26	5500.2	
791.44	3741.6	
791.61	3300	
791.79	4853.7	
791.96	4840	
792.14	3335.5	
792.32	2985.3	
792.49	4807.3	
792.67	4943.8	
792.84	3377.1	
793.02	3269.9	
793.19	5201.8	
793.37	5869.5	
793.54	2977.7	
793.72	3272	
793.89	5881.8	
794.07	4775.9	
794.25	3753.2	
794.42	3041.9	
794.6	5699.5	
794.77	5324.7	
794.95	4018.1	
795.12	3530	
795.3	4797.7	
795.47	5265.3	
795.65	3892.5	
795.82	3768.9	
796	4579.3	
796.17	6244.3	
796.35	3611.9	
796.52	4261.1	
796.7	5221.6	
796.87	5295.4	
797.05	3596.2	
797.22	4364.9	
797.4	5307.7	
797.57	6145.3	
797.75	3739.6	
797.92	3548.4	
798.1	5628.5	
798.27	4724	
798.45	3090.4	
798.62	3302.7	
798.8	5023.7	
798.97	5452.4	
799.15	3891.8	
799.32	3773.7	
799.5	4418.8	
799.67	5033.2	
799.85	4105.5	
800.02	2998.9	
800.2	4696	
800.37	5013.4	
800.55	4207.2	
800.72	3521.1	
800.9	5412.8	
801.07	5772.5	
801.25	4670.7	
801.42	3841.3	
801.6	5489.2	
801.77	5182.7	
801.95	3633.8	
802.12	3404.4	
802.29	5182.7	
802.47	5171.8	
802.64	3844.7	
802.82	2932.7	
802.99	4732.2	
803.17	5560.2	
803.34	3708.2	
803.52	3332	
803.69	6141.9	
803.87	4508.9	
804.04	3709.6	
804.21	3804.4	
804.39	5732.9	
804.56	4900.1	
804.74	3155.2	
804.91	3856.3	
805.09	4728.1	
805.26	4859.1	
805.44	3215.3	
805.61	3560.7	
805.78	5353.4	
805.96	5322	
806.13	3825.6	
806.31	4113.7	
806.48	4329.4	
806.66	4803.2	
806.83	3831.1	
807	3775.8	
807.18	4727.4	
807.35	5020.3	
807.53	3650.2	
807.7	3086.3	
807.87	5743.9	
808.05	4776.5	
808.22	4098	
808.4	3061.7	
808.57	4735.6	
808.74	4414.1	
808.92	3429.7	
809.09	4262.5	
809.27	4737	
809.44	5182.7	
809.61	3013.2	
809.79	3386	
809.96	5771.9	
810.14	5439.4	
810.31	2977.1	
810.48	3590.8	
810.66	4776.5	
810.83	5494	
811.01	3424.9	
811.18	3793.5	
811.35	5407.3	
811.53	4301.4	
811.7	4098	
811.87	3789.4	
812.05	4804.5	
812.22	4743.1	
812.39	3370.3	
812.57	3192.1	
812.74	4851.6	
812.92	6205.3	
813.09	3596.2	
813.26	3887	
813.44	5989.6	
813.61	4697.4	
813.78	3026.9	
813.96	3945.1	
814.13	4801.1	
814.3	4453	
814.48	4364.2	
814.65	3631	
814.82	5948.7	
815	4567	
815.17	3685.7	
815.34	4429.1	
815.52	4681.7	
815.69	4670.7	
815.87	3675.4	
816.04	3607.2	
816.21	4765.6	
816.38	4265.9	
816.56	3550.5	
816.73	3348.4	
816.9	5971.2	
817.08	5402.5	
817.25	3445.4	
817.42	4186	
817.6	4375.1	
817.77	4773.1	
817.94	3687	
818.12	3281.5	
818.29	4552	
818.46	6832.7	
818.64	3469.3	
818.81	3215.3	
818.98	4499.4	
819.16	6329.6	
819.33	3910.9	
819.5	3685.7	
819.67	5134.3	
819.85	5699.5	
820.02	3655.6	
820.19	3805.1	
820.37	5003.2	
820.54	4575.8	
820.71	3717.1	
820.88	4567	
821.06	4917.2	
821.23	4506.2	
821.4	3767.6	
821.58	3669.3	
821.75	5367.7	
821.92	4917.2	
822.09	3037.1	
822.27	3240.6	
822.44	4774.5	
822.61	4646.2	
822.79	3045.3	
822.96	5709.7	
823.13	5094	
823.3	4471.4	
823.48	3452.2	
823.65	3211.2	
823.82	5345.2	
823.99	4377.9	
824.17	4414.1	
824.34	3205.8	
824.51	6186.2	
824.68	4825	
824.86	3345.7	
825.03	3678.8	
825.2	4795.7	
825.37	5694.7	
825.55	3330.7	
825.72	3715.7	
825.89	6227.2	
826.06	5739.1	
826.24	3567.6	
826.41	3601	
826.58	5743.9	
826.75	5001.8	
826.92	2935.4	
827.1	3187.3	
827.27	7596.6	
827.44	6124.1	
827.61	3410.6	
827.79	4065.2	
827.96	4569.7	
828.13	4780	
828.3	3600.3	
828.47	3015.3	
828.65	5014.8	
828.82	4891.2	
828.99	4513	
829.16	4000.4	
829.34	5332.9	
829.51	5087.2	
829.68	3677.5	
829.85	3807.9	
830.02	5632.6	
830.2	5339.7	
830.37	2879.4	
830.54	4428.4	
830.71	6001.2	
830.88	4768.4	
831.05	2963.4	
831.23	3343.7	
831.4	5777.3	
831.57	6371.9	
831.74	3423.5	
831.91	3061	
832.09	4992.9	
832.26	5382.7	
832.43	3476.8	
832.6	3930.1	
832.77	4971.1	
832.94	5640.8	
833.12	2823.5	
833.29	3433.1	
833.46	4685.1	
833.63	6597.2	
833.8	3814.7	
833.97	3532.7	
834.15	5388.2	
834.32	5119.9	
834.49	3652.9	
834.66	3708.2	
834.83	5504.3	
835	4560.1	
835.17	3438.5	
835.35	3416	
835.52	5248.9	
835.69	5084.4	
835.86	3551.9	
836.03	2943.6	
836.2	5303.6	
836.37	4954.7	
836.55	3470.6	
836.72	3351.8	
836.89	4928.1	
837.06	5365	
837.23	3574.4	
837.4	3930.7	
837.57	6092	
837.75	6531.7	
837.92	3249.4	
838.09	3432.4	
838.26	4890.5	
838.43	5539.1	
838.6	3680.9	
838.77	3344.3	
838.94	6238.8	
839.11	6029.2	
839.29	3489.7	
839.46	2816.6	
839.63	5270.1	
839.8	5033.9	
839.97	3433.1	
840.14	3364.1	
840.31	5143.8	
840.48	5360.2	
840.65	2859.6	
840.82	3328.6	
841	5264.6	
841.17	5248.3	
841.34	3119.7	
841.51	3269.9	
841.68	5255.1	
841.85	5002.5	
842.02	3289	
842.19	2726.5	
842.36	5104.9	
842.53	5037.3	
842.7	3165.5	
842.87	3811.3	
843.05	6632.7	
843.22	5003.9	
843.39	2999.6	
843.56	3237.8	
843.73	4838	
843.9	5372.5	
844.07	5012.7	
844.24	4190.8	
844.41	7456	
844.58	4666	
844.75	3051.5	
844.92	3274.7	
845.09	5293.3	
845.26	5289.9	
845.43	3140.2	
845.6	3310.9	
845.77	5300.8	
845.94	5051	
846.12	3472	
846.29	3609.9	
846.46	5515.9	
846.63	5209.3	
846.8	3167.5	
846.97	3702	
847.14	5657.2	
847.31	5245.5	
847.48	3532.1	
847.65	3855.6	
847.82	5519.3	
847.99	5493.3	
848.16	4128.7	
848.33	3847.5	
848.5	4913.1	
848.67	5677.7	
848.84	3082.2	
849.01	3319.8	
849.18	4812	
849.35	4488.5	
849.52	3837.9	
849.69	3115.6	
849.86	5513.8	
850.03	5587.5	
850.2	3140.9	
850.37	3812.6	
850.54	5591.6	
850.71	4979.3	
850.88	3755.3	
851.05	3093.8	
851.22	5190.9	
851.39	5674.2	
851.56	2985.9	
851.73	3613.3	
851.9	4673.5	
852.07	5448.3	
852.24	3474	
852.41	3147	
852.58	5113.8	
852.75	4692.6	
852.92	3538.2	
853.09	3049.4	
853.26	4878.9	
853.43	5621.7	
853.6	3113.6	
853.77	2702.6	
853.94	5775.3	
854.11	5159.5	
854.28	4538.3	
854.44	3394.8	
854.61	6113.2	
854.78	5535	
854.95	3081.5	
855.12	3898	
855.29	4302.8	
855.46	5879	
855.63	3125.2	
855.8	4296.6	
855.97	4814.8	
856.14	5563	
856.31	4358.1	
856.48	3406.5	
856.65	4915.8	
856.82	4627	
856.99	2988.7	
857.16	3396.9	
857.33	6252.4	
857.49	4967	
857.66	3304.7	
857.83	3620.8	
858	4967.7	
858.17	5169.1	
858.34	2963.4	
858.51	3199.6	
858.68	5846.3	
858.85	5831.9	
859.02	3633.1	
859.19	3810.6	
859.36	4630.5	
859.52	4675.5	
859.69	3145	
859.86	3680.9	
860.03	4730.1	
860.2	5758.2	
860.37	2835.1	
860.54	3164.8	
860.71	5496.1	
860.88	5881.1	
861.05	3502	
861.21	3951.9	
861.38	5806.7	
861.55	4578.6	
861.72	2880.1	
861.89	3515	
862.06	5523.4	
862.23	5904.3	
862.4	3031.7	
862.56	3236.5	
862.73	5357.5	
862.9	5046.2	
863.07	3659	
863.24	2861.7	
863.41	4603.2	
863.58	4666	
863.75	3158.7	
863.91	3618.8	
864.08	5698.1	
864.25	5353.4	
864.42	3875.4	
864.59	4328.7	
864.76	6026.5	
864.93	4661.2	
865.09	3007.1	
865.26	3362.8	
865.43	5749.3	
865.6	6030.6	
865.77	2731.3	
865.94	3060.3	
866.1	5759.6	
866.27	5424.4	
866.44	4611.3	
866.61	2948.4	
866.78	4986.1	
866.95	5358.9	
867.11	3049.4	
867.28	2779.8	
867.45	5543.9	
867.62	4778.6	
867.79	3553.9	
867.96	3127.2	
868.12	4636.6	
868.29	5514.5	
868.46	2753.8	
868.63	4085.7	
868.8	5614.2	
868.97	5381.4	
869.13	3305.4	
869.3	3248.8	
869.47	5300.8	
869.64	5520	
869.81	3192.8	
869.97	3136.8	
870.14	5249.6	
870.31	5845.6	
870.48	3059	
870.65	3883.6	
870.81	4950.6	
870.98	5032.5	
871.15	3545.7	
871.32	3207.8	
871.48	5288.5	
871.65	5854.5	
871.82	3097.9	
871.99	3450.8	
872.16	6218.3	
872.32	5709.7	
872.49	3148.4	
872.66	3155.9	
872.83	5468.1	
872.99	4867.3	
873.16	3561.4	
873.33	3080.1	
873.5	5130.2	
873.67	5161.6	
873.83	3275.4	
874	4135.5	
874.17	5282.4	
874.34	6053.8	
874.5	4028.4	
874.67	3822.9	
874.84	5820.3	
875.01	4603.2	
875.17	4342.4	
875.34	3084.9	
875.51	5181.4	
875.68	6206	
875.84	3786.7	
876.01	4575.8	
876.18	5424.4	
876.34	5393	
876.51	3151.1	
876.68	3083.6	
876.85	4956.8	
877.01	5668.1	
877.18	4366.3	
877.35	3080.1	
877.52	5153.4	
877.68	4595.6	
877.85	3044.6	
878.02	3118.4	
878.18	5073.5	
878.35	4809.3	
878.52	2514.2	
878.69	3487.7	
878.85	5450.3	
879.02	5411.4	
879.19	4418.2	
879.35	3332.7	
879.52	5337.7	
879.69	5556.8	
879.86	2762	
880.02	3464.5	
880.19	5048.2	
880.36	6094.1	
880.52	3582.6	
880.69	3676.1	
880.86	5487.9	
881.02	5516.5	
881.19	3435.8	
881.36	3406.5	
881.52	5377.3	
881.69	4827.7	
881.86	3308.8	
882.02	3308.2	
882.19	5666.7	
882.36	6599.9	
882.52	3207.8	
882.69	4330.8	
882.86	5237.3	
883.02	5177.9	
883.19	3729.4	
883.36	3596.9	
883.52	5498.1	
883.69	6221	
883.86	3168.2	
884.02	2837.1	
884.19	5384.8	
884.36	5057.8	
884.52	3478.8	
884.69	3396.9	
884.86	4860.5	
885.02	5971.2	
885.19	3460.4	
885.36	3519.8	
885.52	5046.2	
885.69	5220.3	
885.86	4411.3	
886.02	3975.1	
886.19	5422.3	
886.35	4986.8	
886.52	3429	
886.69	4316.4	
886.85	4688.5	
887.02	5762.3	
887.19	5762.3	
887.35	5762.3	
887.52	5762.3	
887.68	5762.3	
887.85	5762.3	
888.02	5762.3	
888.18	5762.3	
888.35	5762.3	
888.51	5762.3	
888.68	5762.3	
888.85	5762.3	
889.01	5762.3	
889.18	5762.3	
889.35	5762.3	
889.51	5762.3	
889.68	5762.3	
889.84	5762.3	
890.01	5762.3	
890.17	5762.3	
890.34	5762.3	
890.51	5762.3	
890.67	5762.3	
890.84	5762.3	
891	5762.3	
891.17	5762.3	
891.34	5762.3	
891.5	5762.3	
891.67	5762.3	
891.83	5762.3	
892	5762.3	
892.16	5762.3	
892.33	5762.3	
892.5	5762.3	
892.66	5762.3	
892.83	5762.3	
892.99	5762.3	
893.16	5762.3	
893.32	5762.3	
893.49	5762.3	
893.65	5762.3	
893.82	5762.3	
893.99	5762.3	
894.15	5762.3	
894.32	5762.3	
894.48	5762.3	
894.65	5762.3	
894.81	5762.3	
894.98	5762.3	
895.14	5762.3	
895.31	5762.3	
895.47	5762.3	
895.64	5762.3	
895.81	5762.3	
895.97	5762.3	
896.14	5762.3	
896.3	5762.3	
896.47	5762.3	
896.63	5762.3	
896.8	5762.3	
896.96	5762.3	
897.13	5762.3	
897.29	5762.3	
897.46	5762.3	
897.62	5762.3	
897.79	5762.3	
897.95	5762.3	
898.12	5762.3	
898.28	5762.3	
898.45	5762.3	
898.61	5762.3	
898.78	5762.3	
898.94	5762.3	
899.11	5762.3	
899.27	5762.3	
899.44	5762.3	
899.6	5762.3	
899.77	5762.3	
899.93	5762.3	
900.1	5762.3	
900.26	5762.3	
900.43	5762.3	
900.59	5762.3	
900.76	5762.3	
900.92	5762.3	
901.09	5762.3	
901.25	5762.3	
901.42	5762.3	
901.58	5762.3	
901.75	5762.3	
901.91	5762.3	
902.07	5762.3	
902.24	5762.3	
902.4	5762.3	
902.57	5762.3	
902.73	5762.3	
902.9	5762.3	
903.06	5762.3	
903.23	5762.3	
903.39	5762.3	
903.56	5762.3	
903.72	5762.3	
903.88	5762.3	
904.05	5762.3	
904.21	5762.3	
904.38	5762.3	
904.54	5762.3	
904.71	5762.3	
904.87	5762.3	
905.03	5762.3	
905.2	5762.3	
905.36	5762.3	
905.53	5762.3	
905.69	5762.3	
905.86	5762.3	
906.02	5762.3	
906.18	5762.3	
906.35	5762.3	
906.51	5762.3	
906.68	5762.3	
906.84	5762.3	
907.01	5762.3	
907.17	5762.3	
907.33	5762.3	
907.5	5762.3	
907.66	5762.3	
907.83	5762.3	
907.99	5762.3	
908.15	5762.3	
908.32	5762.3	
908.48	5762.3	
908.65	5762.3	
908.81	5762.3	
908.97	5762.3	
909.14	5762.3	
909.3	5762.3	
909.47	5762.3	
909.63	5762.3	
909.79	5762.3	
909.96	5762.3	
910.12	5762.3	
910.28	5762.3	
910.45	5762.3	
910.61	5762.3	
910.78	5762.3	
910.94	5762.3	
911.1	5762.3	
911.27	5762.3	
911.43	5762.3	
911.59	5762.3	
911.76	5762.3	
911.92	5762.3	
912.08	5762.3	
912.25	5762.3	
912.41	5762.3	
912.57	5762.3	
912.74	5762.3	
912.9	5762.3	
913.07	5762.3	
913.23	5762.3	
913.39	5762.3	
913.56	5762.3	
913.72	5762.3	
913.88	5762.3	
914.05	5762.3	
914.21	5762.3	
914.37	5762.3	
914.54	5762.3	
914.7	5762.3	
914.86	5762.3	
915.03	5762.3	
915.19	5762.3	
