Wavelength	Intensities	
nm	a.u.	
179.22	1920.7	
179.44	1915.5	
179.65	1925.8	
179.86	1905.3	
180.08	1893.7	
180.29	4820.9	
180.51	3491.1	
180.72	5576.6	
180.94	6552.1	
181.15	3194.1	
181.37	3134.8	
181.58	5425.8	
181.79	5773.9	
182.01	3416	
182.22	3606.5	
182.44	5698.1	
182.65	4812	
182.87	4496	
183.08	3947.8	
183.29	6103.6	
183.51	4982.7	
183.72	3643.3	
183.94	5294.7	
184.15	5324.7	
184.37	5461.2	
184.58	3187.3	
184.79	4373.8	
185.01	5046.9	
185.22	5710.4	
185.44	4620.2	
185.65	3843.4	
185.86	5253.7	
186.08	4911.7	
186.29	3079.5	
186.51	3362.1	
186.72	5023.7	
186.94	5953.4	
187.15	3844.7	
187.36	4039.3	
187.58	7729	
187.79	5464	
188.01	4177.9	
188.22	6485.9	
188.43	6570.6	
188.65	5713.8	
188.86	3324.5	
189.08	3958.7	
189.29	5180.7	
189.5	5144.5	
189.72	3749.8	
189.93	3786.7	
190.15	5935.7	
190.36	6989.7	
190.57	4098	
190.79	3900.7	
191	6001.9	
191.22	5943.9	
191.43	4062.5	
191.64	3353.9	
191.86	6176.7	
192.07	6057.9	
192.29	3551.9	
192.5	3736.9	
192.71	5942.5	
192.93	5119.9	
193.14	3673.4	
193.35	3775.1	
193.57	5169.1	
193.78	5956.9	
194	2957.9	
194.21	3652.2	
194.42	4929.5	
194.64	5437.4	
194.85	3988.8	
195.07	4728.1	
195.28	5490.6	
195.49	4713.1	
195.71	4956.1	
195.92	3409.2	
196.13	5542.5	
196.35	5732.9	
196.56	5297.4	
196.78	4054.3	
196.99	7006.8	
197.2	6535.8	
197.42	4563.6	
197.63	4085	
197.84	4875.5	
198.06	5575.3	
198.27	3708.9	
198.48	4965.6	
198.7	5142.4	
198.91	5299.5	
199.13	4068.6	
199.34	4055	
199.55	5807.4	
199.77	4709	
199.98	3566.9	
200.19	4085	
200.41	5259.9	
200.62	5036.6	
200.83	4241.3	
201.05	4526.7	
201.26	5285.8	
201.47	5012.1	
201.69	3572.3	
201.9	3452.2	
202.11	5375.9	
202.33	6428.6	
202.54	3855	
202.76	4285	
202.97	5495.4	
203.18	5507.7	
203.4	4197	
203.61	4143.7	
203.82	5455.8	
204.04	5093.3	
204.25	4074.1	
204.46	3994.9	
204.68	5408	
204.89	5621	
205.1	4007.2	
205.32	3422.8	
205.53	5778.7	
205.74	5931.6	
205.96	2940.9	
206.17	4169	
206.38	5784.8	
206.6	5875.6	
206.81	4614.1	
207.02	3745.1	
207.24	5621.7	
207.45	6008.7	
207.66	3814.7	
207.88	3257.6	
208.09	5572.5	
208.3	5385.5	
208.52	3546.4	
208.73	3901.4	
208.94	5382.1	
209.15	6102.3	
209.37	3862.5	
209.58	4081.6	
209.79	5900.9	
210.01	5233.9	
210.22	3097.9	
210.43	3240.6	
210.65	5465.3	
210.86	5807.4	
211.07	3865.9	
211.29	3532.7	
211.5	5765.7	
211.71	5339.7	
211.93	3533.4	
212.14	3504.8	
212.35	5306.3	
212.56	5601.9	
212.78	4101.4	
212.99	3332	
213.2	6446.3	
213.42	5101.5	
213.63	3663.8	
213.84	3887.7	
214.06	4783.4	
214.27	4918.5	
214.48	3892.5	
214.69	4102.8	
214.91	6069.5	
215.12	6147.3	
215.33	4143.7	
215.55	4592.2	
215.76	6681.8	
215.97	5773.2	
216.18	3977.2	
216.4	3900	
216.61	5106.3	
216.82	5874.3	
217.04	3507.5	
217.25	3675.4	
217.46	6053.1	
217.67	5796.4	
217.89	3183.9	
218.1	3319.1	
218.31	5470.1	
218.53	5554.8	
218.74	3727.3	
218.95	3627	
219.16	5326.1	
219.38	6277.7	
219.59	3649.5	
219.8	4280.3	
220.01	7021.8	
220.23	5442.8	
220.44	4792.2	
220.65	3510.9	
220.87	5492.7	
221.08	6070.2	
221.29	3272	
221.5	4309.6	
221.72	7351.5	
221.93	5092.6	
222.14	4089.8	
222.35	4795	
222.57	5426.4	
222.78	5754.8	
222.99	3853.6	
223.2	4188.8	
223.42	5689.9	
223.63	5877.7	
223.84	2971.6	
224.05	2952.5	
224.27	6877.1	
224.48	6290.7	
224.69	4792.2	
224.9	4013.3	
225.12	5593	
225.33	5366.4	
225.54	3230.3	
225.75	3605.1	
225.97	4926	
226.18	5264.6	
226.39	3932.8	
226.6	3581.9	
226.82	5099.4	
227.03	5004.6	
227.24	4041.3	
227.45	3375.7	
227.67	5709.7	
227.88	6349.4	
228.09	4500.1	
228.3	4530.1	
228.52	5848.3	
228.73	5367	
228.94	3756.7	
229.15	3307.5	
229.36	5337.7	
229.58	5212.8	
229.79	3788.1	
230	4437.9	
230.21	6395.8	
230.43	5470.1	
230.64	4006.5	
230.85	4191.5	
231.06	5774.6	
231.28	5782.1	
231.49	3366.2	
231.7	3910.9	
231.91	5693.4	
232.12	5422.3	
232.34	3421.5	
232.55	3921.2	
232.76	6077.7	
232.97	5583.4	
233.18	3585.3	
233.4	3994.9	
233.61	5629.9	
233.82	5167	
234.03	3775.8	
234.25	3625.6	
234.46	7543.4	
234.67	5440.1	
234.88	4170.3	
235.09	3593.5	
235.31	5700.9	
235.52	5257.8	
235.73	3982.6	
235.94	3394.8	
236.15	5096.7	
236.37	6553.5	
236.58	3570.3	
236.79	3860.4	
237	5683.1	
237.21	4896	
237.43	4182	
237.64	3227.6	
237.85	9809.8	
238.06	4978.6	
238.27	4231.1	
238.48	3371.6	
238.7	5739.1	
238.91	5242.1	
239.12	3909.6	
239.33	3889.1	
239.54	5079	
239.76	5309	
239.97	3830.4	
240.18	3946.4	
240.39	6748.1	
240.6	5638.1	
240.82	4022.9	
241.03	3315	
241.24	5427.1	
241.45	6260	
241.66	3523.9	
241.87	4170.3	
242.09	6115.2	
242.3	6500.3	
242.51	4209.9	
242.72	3905.5	
242.93	5868.8	
243.14	5318.6	
243.36	4530.1	
243.57	4857.8	
243.78	6293.4	
243.99	5759.6	
244.2	3899.3	
244.41	3555.3	
244.63	4894	
244.84	5713.8	
245.05	4162.2	
245.26	3906.2	
245.47	5651	
245.68	5950.7	
245.9	5201.2	
246.11	4093.9	
246.32	5211.4	
246.53	5675.6	
246.74	6282.5	
246.95	3233.1	
247.16	4953.4	
247.38	5427.8	
247.59	3240.6	
247.8	3978.5	
248.01	5103.5	
248.22	5296	
248.43	3553.2	
248.64	3799.7	
248.86	4741.7	
249.07	5143.1	
249.28	3378.5	
249.49	3979.9	
249.7	5990.3	
249.91	6007.4	
250.12	3308.8	
250.34	3291.8	
250.55	5494	
250.76	5360.9	
250.97	4001	
251.18	4020.8	
251.39	6049.7	
251.6	5550	
251.81	4138.9	
252.03	4062.5	
252.24	5136.3	
252.45	5982.1	
252.66	3348.4	
252.87	4320.5	
253.08	5453.1	
253.29	7092.8	
253.5	3349.1	
253.72	4738.3	
253.93	5285.1	
254.14	6393.1	
254.35	3682.9	
254.56	3810.6	
254.77	5609.4	
254.98	5025	
255.19	3631	
255.41	4702.8	
255.62	5492.7	
255.83	6082.5	
256.04	4149.9	
256.25	4104.8	
256.46	6710.5	
256.67	5046.2	
256.88	4008.6	
257.09	4446.1	
257.31	5085.1	
257.52	5061.9	
257.73	4994.3	
257.94	3664.5	
258.15	5286.5	
258.36	5451.7	
258.57	4642.7	
258.78	2938.8	
258.99	5894.7	
259.2	5225.7	
259.41	3761.4	
259.63	3834.5	
259.84	6296.8	
260.05	6675	
260.26	4856.4	
260.47	3624.2	
260.68	5994.4	
260.89	5330.9	
261.1	4427	
261.31	3532.7	
261.52	5996.5	
261.73	6405.4	
261.95	4814.8	
262.16	4274.1	
262.37	6139.1	
262.58	6184.2	
262.79	4768.4	
263	3776.5	
263.21	5380.7	
263.42	4967	
263.63	3806.5	
263.84	3748.5	
264.05	5978	
264.26	6365.8	
264.47	4718.5	
264.69	4225	
264.9	6083.1	
265.11	5628.5	
265.32	3590.8	
265.53	3672.7	
265.74	5483.1	
265.95	4786.1	
266.16	4003.1	
266.37	4366.3	
266.58	5533.6	
266.79	5227.8	
267	3596.2	
267.21	3411.2	
267.42	4942.4	
267.63	5438.7	
267.84	3877.5	
268.06	3319.8	
268.27	5830.6	
268.48	6090.7	
268.69	3779.9	
268.9	4521.9	
269.11	6077	
269.32	4900.8	
269.53	3895.9	
269.74	3627	
269.95	5782.1	
270.16	4746.5	
270.37	3900	
270.58	4493.2	
270.79	5201.2	
271	5937.7	
271.21	4174.4	
271.42	3917.1	
271.63	5517.9	
271.84	5028.4	
272.05	3132.7	
272.26	3480.9	
272.47	5444.9	
272.68	5621.7	
272.89	3738.9	
273.11	4376.5	
273.32	5216.9	
273.53	6319.3	
273.74	4206.5	
273.95	4121.2	
274.16	6036.7	
274.37	5453.7	
274.58	4235.2	
274.79	3412.6	
275	5542.5	
275.21	6084.5	
275.42	5053.7	
275.63	4364.9	
275.84	5670.8	
276.05	7187.7	
276.26	4123.2	
276.47	3805.1	
276.68	5214.1	
276.89	6414.9	
277.1	4410	
277.31	3424.9	
277.52	5671.5	
277.73	5857.2	
277.94	3373.7	
278.15	3729.4	
278.36	5606.7	
278.57	5076.9	
278.78	3730.7	
278.99	4203.8	
279.2	5060.5	
279.41	4977.2	
279.62	4842.1	
279.83	3483.6	
280.04	6578.8	
280.25	4956.8	
280.46	4903.5	
280.67	3902.1	
280.88	5033.2	
281.09	6087.2	
281.3	4068.6	
281.51	5172.5	
281.72	5923.4	
281.93	5907.7	
282.14	3633.8	
282.35	3920.5	
282.56	5937.1	
282.77	5841.5	
282.98	3741	
283.19	4644.1	
283.4	7282.6	
283.61	5370.5	
283.82	3458.3	
284.03	4802.5	
284.24	5512.4	
284.45	6079.7	
284.66	4866.7	
284.87	4619.5	
285.08	6035.4	
285.29	6158.2	
285.5	3276.8	
285.71	3784	
285.92	5939.1	
286.12	6643.6	
286.33	4687.8	
286.54	3769.6	
286.75	5840.8	
286.96	5258.5	
287.17	3452.2	
287.38	4737.6	
287.59	5087.2	
287.8	4955.4	
288.01	3781.2	
288.22	4366.3	
288.43	5961	
288.64	4873.5	
288.85	4511.7	
289.06	4280.9	
289.27	5874.3	
289.48	6410.8	
289.69	4831.8	
289.9	4360.8	
290.11	6022.4	
290.32	5172.5	
290.53	4587.4	
290.74	4212.7	
290.94	5810.1	
291.15	5915.2	
291.36	3722.5	
291.57	4376.5	
291.78	5214.8	
291.99	4820.2	
292.2	3452.2	
292.41	4188.8	
292.62	5930.9	
292.83	5785.5	
293.04	5249.6	
293.25	3514.3	
293.46	5206.6	
293.67	6007.4	
293.88	3736.9	
294.09	3519.1	
294.29	4947.2	
294.5	5540.4	
294.71	3892.5	
294.92	3720.5	
295.13	5168.4	
295.34	6489.3	
295.55	3298.6	
295.76	3393.5	
295.97	5842.2	
296.18	6606.1	
296.39	3405.8	
296.6	3642	
296.81	5552.7	
297.01	5840.1	
297.22	3794.2	
297.43	3534.1	
297.64	5048.2	
297.85	5029.1	
298.06	3018	
298.27	3263.8	
298.48	5467.4	
298.69	5119.2	
298.9	3988.8	
299.11	3561.4	
299.31	4978.6	
299.52	4989.5	
299.73	4240.7	
299.94	4121.2	
300.15	5431.2	
300.36	5033.9	
300.57	4151.9	
300.78	4105.5	
300.99	5330.9	
301.2	5535.7	
301.4	3629	
301.61	3899.3	
301.82	5727.5	
302.03	5888.6	
302.24	4408.6	
302.45	3474	
302.66	5710.4	
302.87	6191.7	
303.08	3622.9	
303.29	5001.1	
303.49	5149.3	
303.7	5414.8	
303.91	3267.2	
304.12	4813.4	
304.33	4884.4	
304.54	5543.2	
304.75	3622.2	
304.96	3504.8	
305.16	5746.6	
305.37	6436.1	
305.58	3185.3	
305.79	3274	
306	5724.8	
306.21	4841.4	
306.42	3671.3	
306.63	5570.5	
306.83	5259.9	
307.04	6027.9	
307.25	4016.1	
307.46	4014	
307.67	4629.8	
307.88	5868.8	
308.09	3594.2	
308.29	3789.4	
308.5	5523.4	
308.71	6012.8	
308.92	3938.9	
309.13	3512.9	
309.34	5322.7	
309.55	5304.2	
309.75	4477.5	
309.96	4130.8	
310.17	5802.6	
310.38	5053.7	
310.59	4407.2	
310.8	3463.1	
311.01	6518	
311.21	5338.4	
311.42	3487.7	
311.63	3560.1	
311.84	5201.8	
312.05	5505.6	
312.26	4046.8	
312.46	4437.9	
312.67	5247.6	
312.88	4965.6	
313.09	3465.8	
313.3	3476.8	
313.51	6243.6	
313.71	6611.5	
313.92	3495.9	
314.13	3680.2	
314.34	5597.1	
314.55	5303.6	
314.76	4576.5	
314.96	3971.7	
315.17	5484.5	
315.38	5802.6	
315.59	3528.7	
315.8	3348.4	
316.01	6309.8	
316.21	6350.8	
316.42	3364.8	
316.63	3915	
316.84	5264	
317.05	6139.8	
317.26	4133.5	
317.46	3766.9	
317.67	5344.5	
317.88	5819.6	
318.09	4489.1	
318.3	3332	
318.5	5135.6	
318.71	5755.5	
318.92	5705	
319.13	4149.2	
319.34	5882.4	
319.54	6051.1	
319.75	3320.4	
319.96	3125.9	
320.17	5828.5	
320.38	5977.3	
320.58	3194.8	
320.79	3865.9	
321	5995.8	
321.21	6063.4	
321.42	3893.9	
321.62	3215.3	
321.83	5020.3	
322.04	5417.6	
322.25	3674.7	
322.46	3521.8	
322.66	5574.6	
322.87	5659.2	
323.08	4356	
323.29	3480.2	
323.5	6457.9	
323.7	5003.9	
323.91	4826.4	
324.12	4324.6	
324.33	5492	
324.53	5795.1	
324.74	4145.1	
324.95	4362.9	
325.16	4767.7	
325.37	5212.1	
325.57	3510.2	
325.78	3646.1	
325.99	5473.5	
326.2	4929.5	
326.4	5038	
326.61	3263.1	
326.82	5365.7	
327.03	5500.2	
327.24	5068	
327.44	4739.7	
327.65	5660.6	
327.86	4637.3	
328.07	4151.9	
328.27	3423.5	
328.48	6057.9	
328.69	4984.8	
328.9	5170.4	
329.1	3830.4	
329.31	5299.5	
329.52	6229.2	
329.73	3522.5	
329.93	3989.4	
330.14	5416.2	
330.35	5650.3	
330.56	5777.3	
330.76	4386.1	
330.97	5259.2	
331.18	5645.6	
331.39	3955.3	
331.59	3186.6	
331.8	5971.9	
332.01	6187.6	
332.22	3621.5	
332.42	4158.7	
332.63	5538.4	
332.84	5156.1	
333.05	3939.6	
333.25	3638.6	
333.46	5210	
333.67	5419.6	
333.88	3713.7	
334.08	4121.2	
334.29	7320.1	
334.5	6076.3	
334.7	3453.6	
334.91	5104.9	
335.12	4986.1	
335.33	5833.3	
335.53	3925.3	
335.74	5833.3	
335.95	5185.5	
336.16	5013.4	
336.36	3902.7	
336.57	4517.1	
336.78	4922.6	
336.98	6042.2	
337.19	4863.9	
337.4	3887.7	
337.61	6545.3	
337.81	4949.9	
338.02	3566.9	
338.23	4678.2	
338.43	6232.7	
338.64	5083.7	
338.85	3579.2	
339.05	4624.3	
339.26	6274.3	
339.47	4867.3	
339.68	3530.7	
339.88	5231.2	
340.09	5650.3	
340.3	5935	
340.5	4187.4	
340.71	3196.2	
340.92	4904.2	
341.13	6148.7	
341.33	3435.1	
341.54	4141.7	
341.75	5647.6	
341.95	5317.2	
342.16	3970.3	
342.37	4305.5	
342.57	4991.6	
342.78	5390.3	
342.99	4468.7	
343.19	3178.4	
343.4	5819	
343.61	5717.2	
343.81	3715.7	
344.02	3482.9	
344.23	5917.9	
344.43	6230.6	
344.64	4446.1	
344.85	4257	
345.06	5706.3	
345.26	6089.3	
345.47	4089.1	
345.68	4805.9	
345.88	4782.7	
346.09	5944.6	
346.3	4182	
346.5	3142.9	
346.71	5420.3	
346.92	5124	
347.12	3242.6	
347.33	4086.4	
347.54	6016.9	
347.74	6312.5	
347.95	4061.1	
348.16	3014.6	
348.36	5224.4	
348.57	4989.5	
348.78	3969.6	
348.98	4402.5	
349.19	5357.5	
349.39	4863.9	
349.6	3262.4	
349.81	3633.8	
350.01	5651.7	
350.22	5181.4	
350.43	3914.4	
350.63	4731.5	
350.84	5489.9	
351.05	5247.6	
351.25	3543	
351.46	3225.6	
351.67	6001.9	
351.87	5094	
352.08	3787.4	
352.29	4296	
352.49	5885.2	
352.7	5984.8	
352.9	3477.5	
353.11	4319.2	
353.32	6579.4	
353.52	5249.6	
353.73	3361.4	
353.94	4377.2	
354.14	5721.3	
354.35	5533.6	
354.55	3504.8	
354.76	3928	
354.97	5665.4	
355.17	5543.9	
355.38	3321.8	
355.59	4651.6	
355.79	5100.8	
356	5507.7	
356.2	3919.1	
356.41	3467.9	
356.62	4831.2	
356.82	5388.2	
357.03	4149.2	
357.24	3839.9	
357.44	5127.4	
357.65	5279.7	
357.85	5043.5	
358.06	3965.6	
358.27	4812	
358.47	5139	
358.68	3339.6	
358.88	4242.7	
359.09	5747.3	
359.3	6080.4	
359.5	4943.8	
359.71	4401.1	
359.91	6565.8	
360.12	5885.9	
360.33	4186.7	
360.53	4734.2	
360.74	5136.3	
360.94	5238	
361.15	4458.4	
361.36	3588	
361.56	5963.7	
361.77	5413.5	
361.97	4920.6	
362.18	3881.6	
362.38	5967.1	
362.59	5128.8	
362.8	3688.4	
363	3456.3	
363.21	4949.9	
363.41	5612.1	
363.62	4152.6	
363.83	5208	
364.03	5625.1	
364.24	6566.5	
364.44	5330.9	
364.65	5183.4	
364.85	5416.2	
365.06	5027.1	
365.27	3816	
365.47	3875.4	
365.68	6468.9	
365.88	5438.7	
366.09	4205.8	
366.29	3952.6	
366.5	5763	
366.71	6103.6	
366.91	5251	
367.12	4478.9	
367.32	6724.8	
367.53	6022.4	
367.73	4354.7	
367.94	5345.2	
368.14	5928.9	
368.35	6894.1	
368.56	4396.3	
368.76	4126.7	
368.97	6066.1	
369.17	7845.8	
369.38	3876.1	
369.58	4169	
369.79	5084.4	
369.99	6399.9	
370.2	5143.1	
370.4	4270	
370.61	5782.1	
370.82	6931	
371.02	4205.2	
371.23	3491.8	
371.43	5039.4	
371.64	6445	
371.84	4218.1	
372.05	5408	
372.25	7797.3	
372.46	6179.4	
372.66	4182	
372.87	4187.4	
373.07	6245.6	
373.28	7842.4	
373.48	5246.2	
373.69	4980	
373.9	5745.9	
374.1	5719.3	
374.31	5238.7	
374.51	4760.2	
374.72	6481.1	
374.92	5388.2	
375.13	5451.7	
375.33	4676.9	
375.54	6210.1	
375.74	5633.3	
375.95	4729.4	
376.15	5982.1	
376.36	6202.6	
376.56	6078.4	
376.77	4817.5	
376.97	5298.1	
377.18	7324.2	
377.38	6346	
377.59	5630.5	
377.79	4359.4	
378	6188.3	
378.2	6649.1	
378.41	4490.5	
378.61	4370.4	
378.82	6726.9	
379.02	5846.3	
379.23	4659.8	
379.43	5773.9	
379.64	6821.8	
379.84	6445	
380.05	4481	
380.25	4424.3	
380.46	6577.4	
380.66	6020.3	
380.87	5754.1	
381.07	6173.3	
381.28	7146.7	
381.48	6511.2	
381.69	4425.7	
381.89	4614.8	
382.1	5429.8	
382.3	6634.7	
382.51	5569.1	
382.71	6429.9	
382.91	6360.3	
383.12	7041.6	
383.32	4870.1	
383.53	5055.1	
383.73	6285.2	
383.94	6105	
384.14	4888.5	
384.35	4029	
384.55	6004.6	
384.76	6464.8	
384.96	4732.9	
385.17	5070.8	
385.37	6465.4	
385.58	5672.2	
385.78	5104.9	
385.98	3928.7	
386.19	5888.6	
386.39	6300.9	
386.6	4543.1	
386.8	4722.6	
387.01	6434	
387.21	6423.1	
387.42	5220.3	
387.62	5793.7	
387.83	5760.3	
388.03	6389.7	
388.23	4876.2	
388.44	5703.6	
388.64	5531.6	
388.85	5628.5	
389.05	5245.5	
389.26	5939.1	
389.46	7550.2	
389.67	7008.1	
389.87	5270.8	
390.07	5282.4	
390.28	6148.7	
390.48	5748.6	
390.69	4588.1	
390.89	4855.7	
391.1	5852.4	
391.3	6901	
391.5	5993	
391.71	6624.5	
391.91	6583.5	
392.12	7606.8	
392.32	6099.5	
392.53	5285.1	
392.73	5948	
392.93	6197.2	
393.14	4981.3	
393.34	5710.4	
393.55	6671.6	
393.75	6120	
393.95	4902.8	
394.16	4833.2	
394.36	5834	
394.57	6520	
394.77	4425.7	
394.98	4833.9	
395.18	5855.8	
395.38	6010.1	
395.59	5811.5	
395.79	4739.7	
396	6106.4	
396.2	6583.5	
396.4	5667.4	
396.61	5597.1	
396.81	6945.3	
397.02	6199.9	
397.22	5921.4	
397.42	6012.8	
397.63	6913.3	
397.83	6077.7	
398.04	4809.3	
398.24	5388.9	
398.44	6616.3	
398.65	5782.8	
398.85	4747.2	
399.05	4883.7	
399.26	6167.8	
399.46	7875.8	
399.67	5293.3	
399.87	5061.2	
400.07	6602.7	
400.28	6970.6	
400.48	5175.9	
400.69	6216.3	
400.89	7281.9	
401.09	7661.5	
401.3	5148.6	
401.5	6234	
401.7	7943.4	
401.91	8231.5	
402.11	5453.7	
402.32	5687.9	
402.52	7260.7	
402.72	7148.1	
402.93	5780.1	
403.13	4588.1	
403.33	7815	
403.54	6432	
403.74	5401.9	
403.94	6171.2	
404.15	6574	
404.35	7767.9	
404.56	5158.2	
404.76	6998.6	
404.96	7116	
405.17	6784.9	
405.37	6504.3	
405.57	5720.7	
405.78	7164.5	
405.98	6635.4	
406.18	5264	
406.39	6194.4	
406.59	7100.3	
406.79	6782.2	
407	5004.6	
407.2	5130.8	
407.4	7137.9	
407.61	7339.9	
407.81	5264	
408.01	7462.1	
408.22	6333.7	
408.42	8365.3	
408.62	6494.1	
408.83	5980.1	
409.03	6986.3	
409.23	6948.1	
409.44	6208.1	
409.64	6552.8	
409.84	8107.9	
410.05	8128.4	
410.25	6527.6	
410.45	6262.7	
410.66	7688.8	
410.86	10198	
411.06	6775.4	
411.27	6602.7	
411.47	10055	
411.67	7959.1	
411.88	6943.3	
412.08	7225.2	
412.28	8653.4	
412.49	9008.3	
412.69	6792.4	
412.89	6812.2	
413.09	9035	
413.3	8915.5	
413.5	7004.7	
413.7	6574	
413.91	8090.8	
414.11	9114.8	
414.31	6898.9	
414.52	7361.8	
414.72	8641.7	
414.92	8649.9	
415.12	6865.5	
415.33	7303.1	
415.53	9073.2	
415.73	9222	
415.94	7789.1	
416.14	7187	
416.34	8039	
416.55	7883.3	
416.75	8378.9	
416.95	7829.4	
417.15	9134.6	
417.36	9751.7	
417.56	8698.4	
417.76	7793.9	
417.97	9517.6	
418.17	9202.2	
418.37	7274.4	
418.57	7440.3	
418.78	9002.9	
418.98	8723	
419.18	8236.2	
419.38	8099.7	
419.59	8761.9	
419.79	8254	
419.99	7257.3	
420.2	7641.7	
420.4	9199.5	
420.6	9424.1	
420.8	7144.7	
421.01	7006.1	
421.21	9009	
421.41	9260.9	
421.61	7565.2	
421.82	7178.1	
422.02	8510	
422.22	9481.4	
422.42	8082.6	
422.63	7538.6	
422.83	8614.4	
423.03	9813.9	
423.23	7557.7	
423.44	6550.1	
423.64	8654	
423.84	8286.1	
424.04	7008.8	
424.25	6737.1	
424.45	9485.5	
424.65	9374.9	
424.85	6449.7	
425.06	7089.4	
425.26	9399.5	
425.46	7967.3	
425.66	7447.1	
425.87	7090.8	
426.07	9243.8	
426.27	9009.7	
426.47	7313.3	
426.67	6625.2	
426.88	9414.5	
427.08	8986.5	
427.28	7505.8	
427.48	6505.7	
427.69	7770	
427.89	8404.2	
428.09	7449.1	
428.29	6645	
428.5	9185.1	
428.7	8642.4	
428.9	6579.4	
429.1	6991.8	
429.3	8600.1	
429.51	9024	
429.71	6810.9	
429.91	7647.1	
430.11	8912.1	
430.31	9203.6	
430.52	7170.6	
430.72	7438.9	
430.92	9488.9	
431.12	8867.7	
431.32	6843.6	
431.53	7177.4	
431.73	7902.4	
431.93	9634.3	
432.13	6710.5	
432.33	6646.3	
432.54	8369.4	
432.74	8800.8	
432.94	6621.8	
433.14	7668.3	
433.34	8968.7	
433.55	8457.4	
433.75	7620.5	
433.95	9510.8	
434.15	8698.4	
434.35	8549.6	
434.56	6853.9	
434.76	6402.6	
434.96	8766.7	
435.16	9095	
435.36	6784.2	
435.56	7972.7	
435.77	8471.1	
435.97	8640.4	
436.17	8705.2	
436.37	7933.1	
436.57	8529.1	
436.78	8456.1	
436.98	9664.4	
437.18	8449.2	
437.38	9269.8	
437.58	8708.6	
437.78	8625.4	
437.99	7209.5	
438.19	9128.5	
438.39	9878	
438.59	7137.2	
438.79	6571.9	
438.99	9643.9	
439.2	8515.5	
439.4	6656.6	
439.6	6714.6	
439.8	9031.5	
440	10045	
440.2	7849.2	
440.4	7935.9	
440.61	9430.2	
440.81	10073	
441.01	7140.6	
441.21	8077.9	
441.41	10010	
441.61	9605	
441.81	8495.7	
442.02	9478	
442.22	10529	
442.42	9773.6	
442.62	7299.6	
442.82	7308.5	
443.02	9994.8	
443.22	9183.1	
443.43	7826	
443.63	7418.4	
443.83	8848.6	
444.03	8930.5	
444.23	8635.6	
444.43	8195.3	
444.63	9439.8	
444.83	10458	
445.04	7521.5	
445.24	8850	
445.44	9635.7	
445.64	9720.3	
445.84	8193.9	
446.04	8182.3	
446.24	8940.1	
446.44	10028	
446.65	7348.8	
446.85	7776.1	
447.05	9190.6	
447.25	9837.1	
447.45	7789.1	
447.65	7116.7	
447.85	9213.1	
448.05	8672.5	
448.25	8196.7	
448.46	7990.5	
448.66	9268.4	
448.86	8851.3	
449.06	7038.2	
449.26	8206.9	
449.46	9587.2	
449.66	8551.6	
449.86	7723.6	
450.06	7671	
450.26	8811.7	
450.47	9497.1	
450.67	7844.4	
450.87	8340	
451.07	9475.3	
451.27	9267.7	
451.47	7180.9	
451.67	7893.6	
451.87	8972.2	
452.07	10105	
452.27	7618.4	
452.47	7452.6	
452.67	9238.4	
452.88	9697.1	
453.08	6771.3	
453.28	8921	
453.48	10501	
453.68	9175.6	
453.88	7456.7	
454.08	7634.8	
454.28	9725.1	
454.48	9174.9	
454.68	8233.5	
454.88	8651.3	
455.08	9688.3	
455.28	9476	
455.48	7372	
455.68	8114.7	
455.89	10235	
456.09	9962.7	
456.29	7641.7	
456.49	7869.7	
456.69	10223	
456.89	9426.8	
457.09	8423.3	
457.29	8819.2	
457.49	9867.8	
457.69	10049	
457.89	8407.6	
458.09	7643	
458.29	9682.1	
458.49	10304	
458.69	8815.1	
458.89	8209.6	
459.09	10787	
459.29	10808	
459.49	8221.2	
459.69	9056.8	
459.9	10193	
460.1	9764.7	
460.3	8209.6	
460.5	8011.7	
460.7	10240	
460.9	9934.7	
461.1	7591.8	
461.3	9077.3	
461.5	11035	
461.7	10550	
461.9	8232.2	
462.1	8552.3	
462.3	10077	
462.5	10665	
462.7	8221.9	
462.9	8432.9	
463.1	11729	
463.3	11388	
463.5	8686.8	
463.7	9658.9	
463.9	10387	
464.1	10805	
464.3	8959.2	
464.5	9076.6	
464.7	11123	
464.9	10871	
465.1	10673	
465.3	9515.5	
465.5	11526	
465.7	11555	
465.9	9876	
466.1	9571.5	
466.3	11395	
466.5	11120	
466.7	10584	
466.9	9380.4	
467.1	11237	
467.3	12170	
467.5	10632	
467.7	9489.6	
467.9	12408	
468.1	13353	
468.3	10234	
468.5	10763	
468.7	11240	
468.9	11284	
469.1	9833.7	
469.3	10665	
469.5	13350	
469.7	10893	
469.9	10280	
470.1	9652.8	
470.3	11315	
470.5	11387	
470.7	10946	
470.9	9648	
471.1	11053	
471.3	11418	
471.5	9509.4	
471.69	11424	
471.89	10929	
472.09	10368	
472.29	10309	
472.49	10475	
472.69	10616	
472.89	11578	
473.09	9258.2	
473.29	9415.2	
473.49	10778	
473.69	10863	
473.89	10418	
474.09	9490.3	
474.29	12114	
474.49	11760	
474.69	10428	
474.89	9734.7	
475.09	10903	
475.29	10792	
475.49	9121.7	
475.69	9392.7	
475.88	12402	
476.08	11089	
476.28	9040.4	
476.48	9377	
476.68	11566	
476.88	11275	
477.08	9144.2	
477.28	9571.5	
477.48	10903	
477.68	11488	
477.88	8960.5	
478.08	9345.6	
478.28	11796	
478.48	10910	
478.67	9457.5	
478.87	8714.1	
479.07	11733	
479.27	10915	
479.47	9598.1	
479.67	9640.5	
479.87	11386	
480.07	12053	
480.27	8869.8	
480.47	10424	
480.67	11043	
480.87	11772	
481.06	9084.8	
481.26	9981.8	
481.46	11017	
481.66	10963	
481.86	9587.9	
482.06	10669	
482.26	10677	
482.46	11624	
482.66	9474.6	
482.86	9095	
483.05	11140	
483.25	10436	
483.45	11903	
483.65	9499.8	
483.85	10643	
484.05	10875	
484.25	9912.2	
484.45	10513	
484.65	11804	
484.84	11933	
485.04	9572.9	
485.24	9549	
485.44	12097	
485.64	10514	
485.84	8827.4	
486.04	10221	
486.24	10834	
486.44	11191	
486.63	8776.2	
486.83	9682.8	
487.03	10766	
487.23	11123	
487.43	8867.7	
487.63	11362	
487.83	11134	
488.02	12109	
488.22	9993.4	
488.42	10598	
488.62	11878	
488.82	10873	
489.02	9514.2	
489.22	9768.1	
489.41	11817	
489.61	11508	
489.81	9376.3	
490.01	9405.6	
490.21	11716	
490.41	12427	
490.61	9331.2	
490.8	9460.3	
491	11292	
491.2	10440	
491.4	9976.3	
491.6	9048.6	
491.8	11026	
491.99	11209	
492.19	8893.6	
492.39	9223.4	
492.59	11746	
492.79	11755	
492.99	10251	
493.18	9325.1	
493.38	11810	
493.58	12697	
493.78	10107	
493.98	9594.7	
494.18	11712	
494.37	11276	
494.57	10473	
494.77	10413	
494.97	12086	
495.17	12366	
495.37	10057	
495.56	10499	
495.76	12652	
495.96	12293	
496.16	11390	
496.36	10245	
496.55	12507	
496.75	12129	
496.95	10826	
497.15	10502	
497.35	12431	
497.54	12393	
497.74	10387	
497.94	12080	
498.14	13145	
498.34	12955	
498.53	10043	
498.73	10835	
498.93	11830	
499.13	12385	
499.33	10804	
499.52	11204	
499.72	12614	
499.92	12671	
500.12	10471	
500.32	10765	
500.51	12732	
500.71	12642	
500.91	11520	
501.11	11141	
501.31	12762	
501.5	13116	
501.7	11833	
501.9	10823	
502.1	12484	
502.29	12839	
502.49	11244	
502.69	11576	
502.89	12670	
503.09	12751	
503.28	10170	
503.48	10225	
503.68	11840	
503.88	11925	
504.07	11311	
504.27	10678	
504.47	12237	
504.67	12327	
504.86	11135	
505.06	10724	
505.26	11737	
505.46	13653	
505.65	10611	
505.85	10792	
506.05	11619	
506.25	12144	
506.44	9757.9	
506.64	10727	
506.84	11497	
507.04	12426	
507.23	10035	
507.43	10664	
507.63	13460	
507.83	11829	
508.02	10521	
508.22	10190	
508.42	13745	
508.62	11473	
508.81	10387	
509.01	11075	
509.21	11322	
509.4	11598	
509.6	10623	
509.8	10047	
510	11528	
510.19	13169	
510.39	9841.2	
510.59	10093	
510.79	11402	
510.98	12788	
511.18	10090	
511.38	10172	
511.57	12252	
511.77	12074	
511.97	10798	
512.17	9710.8	
512.36	12185	
512.56	12129	
512.76	9821.4	
512.95	9498.5	
513.15	12291	
513.35	10836	
513.55	10672	
513.74	9767.4	
513.94	12127	
514.14	11516	
514.33	10830	
514.53	10460	
514.73	11517	
514.92	11680	
515.12	9968.1	
515.32	9835.7	
515.51	11780	
515.71	12332	
515.91	11633	
516.11	9974.3	
516.3	13440	
516.5	11363	
516.7	10432	
516.89	11095	
517.09	11508	
517.29	11383	
517.48	10830	
517.68	10049	
517.88	11161	
518.07	11847	
518.27	10539	
518.47	9637.1	
518.66	12343	
518.86	10928	
519.06	9410.4	
519.25	9880.1	
519.45	11372	
519.65	12934	
519.84	10544	
520.04	11314	
520.24	13189	
520.43	11863	
520.63	10288	
520.83	9842.5	
521.02	11077	
521.22	11726	
521.42	10416	
521.61	10981	
521.81	11350	
522.01	11453	
522.2	10207	
522.4	9985.2	
522.6	11944	
522.79	10822	
522.99	10116	
523.18	9455.5	
523.38	11784	
523.58	11746	
523.77	11552	
523.97	9524.4	
524.17	13775	
524.36	12868	
524.56	10915	
524.76	10725	
524.95	11907	
525.15	11606	
525.34	10395	
525.54	10551	
525.74	12293	
525.93	11315	
526.13	11738	
526.33	10514	
526.52	12729	
526.72	12216	
526.91	11791	
527.11	11099	
527.31	12790	
527.5	13191	
527.7	10935	
527.89	10028	
528.09	11732	
528.29	12304	
528.48	11432	
528.68	10961	
528.87	12735	
529.07	12738	
529.27	10864	
529.46	10497	
529.66	12211	
529.85	12834	
530.05	10231	
530.25	11026	
530.44	13730	
530.64	12152	
530.83	10593	
531.03	10946	
531.23	12640	
531.42	12541	
531.62	11731	
531.81	10866	
532.01	12856	
532.21	13356	
532.4	10710	
532.6	11249	
532.79	13997	
532.99	13108	
533.18	11184	
533.38	12207	
533.58	12653	
533.77	13384	
533.97	11262	
534.16	12030	
534.36	13678	
534.55	12714	
534.75	12270	
534.95	11218	
535.14	13516	
535.34	12644	
535.53	10852	
535.73	12936	
535.92	14048	
536.12	12831	
536.31	11015	
536.51	12168	
536.71	12960	
536.9	12711	
537.1	11198	
537.29	11330	
537.49	13421	
537.68	12545	
537.88	11617	
538.07	10796	
538.27	12620	
538.46	13902	
538.66	10789	
538.86	11129	
539.05	12791	
539.25	13295	
539.44	11571	
539.64	11115	
539.83	12680	
540.03	13629	
540.22	10892	
540.42	11041	
540.61	12856	
540.81	13008	
541	11467	
541.2	12197	
541.39	12413	
541.59	12751	
541.78	11794	
541.98	10811	
542.18	11983	
542.37	11931	
542.57	11100	
542.76	11822	
542.96	11927	
543.15	12614	
543.35	11042	
543.54	10484	
543.74	12902	
543.93	12465	
544.13	11083	
544.32	12130	
544.52	12612	
544.71	11886	
544.91	9947	
545.1	11278	
545.3	11908	
545.49	12636	
545.69	9983.2	
545.88	10616	
546.08	13673	
546.27	13110	
546.47	11028	
546.66	10372	
546.86	12725	
547.05	13378	
547.24	10498	
547.44	10441	
547.63	11711	
547.83	12868	
548.02	10821	
548.22	10941	
548.41	11508	
548.61	12816	
548.8	10283	
549	10226	
549.19	12119	
549.39	12354	
549.58	9921	
549.78	10602	
549.97	12396	
550.17	11851	
550.36	11440	
550.55	12336	
550.75	11808	
550.94	12702	
551.14	10092	
551.33	10368	
551.53	11250	
551.72	12012	
551.92	10441	
552.11	10170	
552.31	12083	
552.5	12159	
552.69	11795	
552.89	9824.8	
553.08	11993	
553.28	11711	
553.47	10190	
553.67	11331	
553.86	12758	
554.06	10922	
554.25	9239.1	
554.44	9846	
554.64	13337	
554.83	12919	
555.03	9773.6	
555.22	10219	
555.42	12216	
555.61	11777	
555.8	9957.2	
556	10197	
556.19	10967	
556.39	12179	
556.58	10007	
556.78	10017	
556.97	11770	
557.16	11430	
557.36	11263	
557.55	9510.1	
557.75	10593	
557.94	12557	
558.13	9695.1	
558.33	9384.5	
558.52	12192	
558.72	11057	
558.91	9602.2	
559.1	9700.5	
559.3	10770	
559.49	10484	
559.69	9056.1	
559.88	10147	
560.07	11469	
560.27	11996	
560.46	10316	
560.66	10372	
560.85	11378	
561.04	10494	
561.24	9478.7	
561.43	9687.6	
561.63	10754	
561.82	10995	
562.01	10841	
562.21	9841.9	
562.4	11443	
562.59	12527	
562.79	9714.9	
562.98	9473.9	
563.18	11324	
563.37	12826	
563.56	10180	
563.76	9340.8	
563.95	10829	
564.14	10839	
564.34	9760.6	
564.53	9409.7	
564.73	11350	
564.92	11845	
565.11	9925.1	
565.31	9296.4	
565.5	12004	
565.69	10903	
565.89	9459.6	
566.08	9757.9	
566.27	11865	
566.47	12125	
566.66	10399	
566.85	9168.8	
567.05	11416	
567.24	10796	
567.44	9395.4	
567.63	10882	
567.82	11567	
568.02	11312	
568.21	9431.6	
568.4	9761.3	
568.6	11331	
568.79	11370	
568.98	9243.8	
569.18	9343.5	
569.37	11248	
569.56	13267	
569.76	9768.8	
569.95	10847	
570.14	11647	
570.34	11559	
570.53	9274.6	
570.72	9378.3	
570.91	12147	
571.11	11249	
571.3	9863	
571.49	10669	
571.69	11239	
571.88	10903	
572.07	10371	
572.27	10395	
572.46	10869	
572.65	11883	
572.85	9499.8	
573.04	9921	
573.23	12129	
573.43	11348	
573.62	9213.8	
573.81	9920.4	
574	11408	
574.2	11180	
574.39	9686.9	
574.58	9898.5	
574.78	12365	
574.97	11555	
575.16	10288	
575.36	10518	
575.55	11964	
575.74	12063	
575.93	9372.2	
576.13	10510	
576.32	11308	
576.51	11975	
576.71	9766.1	
576.9	11184	
577.09	12231	
577.28	11848	
577.48	10253	
577.67	9356.5	
577.86	11410	
578.05	11780	
578.25	10144	
578.44	10026	
578.63	11593	
578.83	12772	
579.02	9327.8	
579.21	10941	
579.4	11715	
579.6	11308	
579.79	10113	
579.98	12318	
580.17	12054	
580.37	12180	
580.56	9658.2	
580.75	10370	
580.94	12506	
581.14	12408	
581.33	10877	
581.52	9608.4	
581.71	11869	
581.91	12582	
582.1	9454.1	
582.29	10036	
582.48	11501	
582.68	11386	
582.87	10505	
583.06	10075	
583.25	11895	
583.45	11712	
583.64	10751	
583.83	11528	
584.02	11238	
584.21	11812	
584.41	10787	
584.6	10115	
584.79	11559	
584.98	12388	
585.18	9491.7	
585.37	9459.6	
585.56	11035	
585.75	12020	
585.94	9633.6	
586.14	10316	
586.33	12444	
586.52	11357	
586.71	10124	
586.91	9867.1	
587.1	10819	
587.29	11774	
587.48	9771.5	
587.67	9615.9	
587.87	11611	
588.06	11812	
588.25	10855	
588.44	10219	
588.63	11299	
588.83	11916	
589.02	9682.1	
589.21	9471.2	
589.4	11062	
589.59	10836	
589.78	8680	
589.98	8792.6	
590.17	10257	
590.36	10946	
590.55	8243.8	
590.74	9133.9	
590.94	12187	
591.13	10736	
591.32	8802.2	
591.51	8394.6	
591.7	11179	
591.89	10740	
592.09	8482.7	
592.28	8981.7	
592.47	9949.7	
592.66	11882	
592.85	8512	
593.05	8705.9	
593.24	10448	
593.43	11368	
593.62	8795.3	
593.81	9354.4	
594	10505	
594.19	10763	
594.39	8702.5	
594.58	8557.8	
594.77	10901	
594.96	11403	
595.15	8562.6	
595.34	9222	
595.54	10870	
595.73	9949.7	
595.92	7916.1	
596.11	9017.9	
596.3	11416	
596.49	10042	
596.68	8794.7	
596.88	9169.4	
597.07	11008	
597.26	9721	
597.45	8206.9	
597.64	9497.1	
597.83	10088	
598.02	10648	
598.22	8286.8	
598.41	8957.8	
598.6	10569	
598.79	9835	
598.98	8480	
599.17	9237	
599.36	10460	
599.55	11687	
599.74	10421	
599.94	10144	
600.13	10963	
600.32	9770.2	
600.51	8128.4	
600.7	8144.8	
600.89	11563	
601.08	11502	
601.27	7993.2	
601.47	8927.8	
601.66	10786	
601.85	11423	
602.04	8800.8	
602.23	8885.5	
602.42	9805.7	
602.61	10400	
602.8	8476.5	
602.99	8174.8	
603.18	10148	
603.37	10426	
603.57	8885.5	
603.76	9399.5	
603.95	11118	
604.14	10672	
604.33	8283.4	
604.52	8578.3	
604.71	10404	
604.9	9864.4	
605.09	9164.7	
605.28	9127.8	
605.47	10882	
605.66	10559	
605.86	8893.6	
606.05	8340	
606.24	10824	
606.43	9429.5	
606.62	8699.8	
606.81	9368.8	
607	10631	
607.19	10113	
607.38	8005.5	
607.57	8273.8	
607.76	9770.9	
607.95	9300.5	
608.14	8603.5	
608.33	9303.2	
608.52	9718.3	
608.72	10571	
608.91	7917.4	
609.1	7772	
609.29	9765.4	
609.48	9310.1	
609.67	8811	
609.86	7720.8	
610.05	9420	
610.24	9749.7	
610.43	7641	
610.62	7355.6	
610.81	10839	
611	10628	
611.19	7714.7	
611.38	8585.1	
611.57	9971.6	
611.76	11297	
611.95	7500.3	
612.14	7387	
612.33	9870.5	
612.52	9403.6	
612.71	8100.4	
612.9	7268.2	
613.09	8901.2	
613.28	11192	
613.47	7895.6	
613.66	8826.1	
613.85	9949.7	
614.04	9373.6	
614.24	7942.7	
614.43	7036.8	
614.62	9984.5	
614.81	9950.4	
615	8473.8	
615.19	8404.2	
615.38	9187.2	
615.57	9627.5	
615.76	8288.1	
615.95	9322.4	
616.14	10051	
616.33	9708.1	
616.52	8607.6	
616.71	8880	
616.9	10034	
617.09	9873.9	
617.28	7924.3	
617.47	9293	
617.66	9026.8	
617.85	9204.9	
618.04	8979.7	
618.22	8496.3	
618.41	9497.8	
618.6	10373	
618.79	8289.5	
618.98	7978.2	
619.17	10720	
619.36	8947.6	
619.55	8137.3	
619.74	8176.9	
619.93	10050	
620.12	9392	
620.31	8776.9	
620.5	8935.3	
620.69	11019	
620.88	10961	
621.07	9602.9	
621.26	8699.1	
621.45	10230	
621.64	10109	
621.83	8719.6	
622.02	7920.2	
622.21	10241	
622.4	10009	
622.59	9313.5	
622.78	9094.3	
622.97	9576.3	
623.16	10610	
623.35	8701.8	
623.54	7768.6	
623.72	9757.2	
623.91	9966.8	
624.1	8999.5	
624.29	7682.6	
624.48	11077	
624.67	10255	
624.86	8848.6	
625.05	7905.2	
625.24	11206	
625.43	9559.9	
625.62	10617	
625.81	8165.9	
626	10611	
626.19	9795.4	
626.38	8935.3	
626.56	8353.7	
626.75	9647.3	
626.94	10483	
627.13	8964.6	
627.32	7628	
627.51	10241	
627.7	11587	
627.89	7817.8	
628.08	8992.6	
628.27	9540.1	
628.46	9734.7	
628.65	8009.6	
628.83	7724.9	
629.02	10279	
629.21	9587.2	
629.4	8512.7	
629.59	8718.2	
629.78	9465	
629.97	10459	
630.16	8690.9	
630.35	8211.7	
630.54	10890	
630.72	10556	
630.91	8174.1	
631.1	8703.9	
631.29	10107	
631.48	10196	
631.67	8877.9	
631.86	8178.9	
632.05	9701.9	
632.24	9802.9	
632.42	7943.4	
632.61	8505.9	
632.8	9847.3	
632.99	9399.5	
633.18	8528.4	
633.37	8931.9	
633.56	9931.3	
633.75	9768.1	
633.93	8559.8	
634.12	8219.9	
634.31	10788	
634.5	10434	
634.69	8320.9	
634.88	8674.5	
635.07	9758.6	
635.25	10395	
635.44	9096.4	
635.63	9362.6	
635.82	9646.6	
636.01	9121.7	
636.2	9041.8	
636.39	8539.3	
636.57	10735	
636.76	10447	
636.95	7982.3	
637.14	9378.3	
637.33	10084	
637.52	11083	
637.7	7838.9	
637.89	8731.2	
638.08	9633	
638.27	10976	
638.46	8754.4	
638.65	9232.2	
638.83	11099	
639.02	9398.8	
639.21	8690.9	
639.4	9179	
639.59	9912.2	
639.78	9487.6	
639.96	7881.3	
640.15	7939.3	
640.34	9691.7	
640.53	9820.7	
640.72	7611.6	
640.91	7969.3	
641.09	9106.6	
641.28	10490	
641.47	7899	
641.66	8787.2	
641.85	9822.7	
642.03	10086	
642.22	8430.1	
642.41	8021.9	
642.6	9247.9	
642.79	8589.2	
642.97	7803.4	
643.16	8563.2	
643.35	9183.1	
643.54	8945.5	
643.73	7609.6	
643.91	8465.6	
644.1	8813.8	
644.29	9520.3	
644.48	7817.8	
644.67	7807.5	
644.85	9057.5	
645.04	9377	
645.23	7326.3	
645.42	7552.2	
645.6	8895.7	
645.79	10015	
645.98	7598.6	
646.17	6640.2	
646.36	8610.3	
646.54	9254.1	
646.73	8399.4	
646.92	7164.5	
647.11	8751	
647.29	9757.9	
647.48	7168.6	
647.67	7023.9	
647.86	10051	
648.05	10055	
648.23	7505.1	
648.42	8913.4	
648.61	9419.3	
648.8	9161.2	
648.98	7146	
649.17	7461.4	
649.36	8697	
649.55	8173.4	
649.73	7165.8	
649.92	7963.2	
650.11	8554.4	
650.3	8980.3	
650.48	7351.5	
650.67	7174	
650.86	9164	
651.05	8060.8	
651.23	7292.1	
651.42	7248.4	
651.61	8562.6	
651.79	8657.4	
651.98	7370	
652.17	7027.3	
652.36	8998.1	
652.54	8087.4	
652.73	7059.3	
652.92	6890.7	
653.11	9045.2	
653.29	9155.8	
653.48	6301.6	
653.67	7332.4	
653.85	8802.9	
654.04	9954.5	
654.23	7418.4	
654.42	6980.8	
654.6	8287.4	
654.79	8896.4	
654.98	6414.2	
655.16	6999.3	
655.35	7815	
655.54	7767.3	
655.73	6511.9	
655.91	6351.4	
656.1	8960.5	
656.29	7663.5	
656.47	6072.2	
656.66	7675.8	
656.85	8010.3	
657.03	8079.9	
657.22	6515.3	
657.41	6763.1	
657.59	8096.3	
657.78	7925	
657.97	6288.6	
658.16	7015.7	
658.34	8854.1	
658.53	9142.8	
658.72	7904.5	
658.9	8461.5	
659.09	8086.1	
659.28	8361.9	
659.46	6722.8	
659.65	6716.7	
659.84	7997.3	
660.02	8568	
660.21	6609.5	
660.4	6566.5	
660.58	8979.7	
660.77	8317.5	
660.96	7149.5	
661.14	6161.7	
661.33	9463	
661.52	9317.6	
661.7	6173.3	
661.89	9818.6	
662.08	7933.8	
662.26	7496.9	
662.45	6390.3	
662.64	6580.1	
662.82	8582.4	
663.01	7791.8	
663.2	6464.1	
663.38	7264.1	
663.57	8516.8	
663.75	8404.2	
663.94	6852.5	
664.13	8144.8	
664.31	7865.6	
664.5	8516.8	
664.69	7207.5	
664.87	7605.5	
665.06	7742	
665.25	8331.8	
665.43	7869.7	
665.62	7855.3	
665.8	8681.3	
665.99	7952.9	
666.18	6780.8	
666.36	6890	
666.55	8593.3	
666.74	8462.2	
666.92	6429.3	
667.11	8099.7	
667.29	7899	
667.48	8585.1	
667.67	7656.7	
667.85	6636.8	
668.04	7970	
668.22	7941.3	
668.41	6802.7	
668.6	6930.3	
668.78	7788.4	
668.97	8003.5	
669.15	7159	
669.34	6129.6	
669.53	7777.5	
669.71	8082.7	
669.9	6326.9	
670.08	6984.3	
670.27	7744.7	
670.46	8419.9	
670.64	7183.6	
670.83	7411.6	
671.01	7648.5	
671.2	8228.7	
671.38	6300.2	
671.57	6324.1	
671.76	8971.5	
671.94	9415.9	
672.13	6143.9	
672.31	7269.6	
672.5	8502.5	
672.69	7706.5	
672.87	6377.4	
673.06	6690.7	
673.24	8197.3	
673.43	7793.9	
673.61	7088	
673.8	6604.7	
673.98	8518.2	
674.17	8636.3	
674.36	7243.7	
674.54	7058	
674.73	8182.3	
674.91	8415.1	
675.1	6760.3	
675.28	6433.4	
675.47	8009.6	
675.65	8507.9	
675.84	6619	
676.03	6989	
676.21	7700.4	
676.4	7280.5	
676.58	7441.6	
676.77	7198.6	
676.95	9240.4	
677.14	7660.1	
677.32	6362.4	
677.51	6187.6	
677.69	8478.6	
677.88	7296.2	
678.06	6208.8	
678.25	6238.8	
678.44	8016.4	
678.62	7697.6	
678.81	6000.5	
678.99	6936.5	
679.18	8774.2	
679.36	8324.3	
679.55	6541.9	
679.73	7210.9	
679.92	8286.8	
680.1	7729.7	
680.29	7816.4	
680.47	6548.7	
680.66	7675.8	
680.84	8499.1	
681.03	5873.6	
681.21	6848.4	
681.4	7791.2	
681.58	7579.5	
681.77	6379.4	
681.95	6247.7	
682.14	8451.3	
682.32	8837.7	
682.51	7212.3	
682.69	5992.4	
682.88	7516	
683.06	8249.2	
683.25	6918	
683.43	7352.9	
683.62	7891.5	
683.8	8239	
683.99	7360.4	
684.17	6782.9	
684.36	9166.7	
684.54	7760.4	
684.73	5901.6	
684.91	6083.1	
685.1	8074.5	
685.28	7510.6	
685.46	6646.3	
685.65	6762.4	
685.83	8297.7	
686.02	7581.6	
686.2	6139.8	
686.39	6267.5	
686.57	7277.8	
686.76	8937.3	
686.94	6137.8	
687.13	6348	
687.31	8131.1	
687.5	7591.8	
687.68	5742.5	
687.86	7076.4	
688.05	9346.2	
688.23	7137.9	
688.42	7002	
688.6	6202.6	
688.79	7525.6	
688.97	7547.4	
689.16	6655.2	
689.34	5592.3	
689.52	8226	
689.71	8542.1	
689.89	6997.2	
690.08	6197.8	
690.26	7781.6	
690.45	7660.8	
690.63	7086	
690.81	6372.6	
691	7518.8	
691.18	7519.5	
691.37	6468.2	
691.55	8710.7	
691.74	7452.6	
691.92	9458.9	
692.1	6531	
692.29	5920.7	
692.47	7748.8	
692.66	6897.6	
692.84	6059.9	
693.02	6625.9	
693.21	7109.2	
693.39	7561.1	
693.58	6784.2	
693.76	6148	
693.94	8873.2	
694.13	8600.1	
694.31	6148	
694.5	7295.5	
694.68	7489.4	
694.86	7768.6	
695.05	6481.1	
695.23	6670.2	
695.42	8137.3	
695.6	10573	
695.78	7139.9	
695.97	6197.8	
696.15	8221.9	
696.34	7586.4	
696.52	5938.4	
696.7	6900.3	
696.89	7942.7	
697.07	7353.6	
697.25	6746.7	
697.44	8307.2	
697.62	7812.3	
697.81	8260.1	
697.99	6457.2	
698.17	7015	
698.36	7163.8	
698.54	7955	
698.72	6813.6	
698.91	5765.7	
699.09	7479.2	
699.28	7299.6	
699.46	6429.3	
699.64	6309.8	
699.83	7290.1	
700.01	8486.1	
700.19	7101	
700.38	5494	
700.56	8464.9	
700.74	7393.8	
700.93	5896.1	
701.11	6720.1	
701.29	7937.2	
701.48	9002.2	
701.66	6194.4	
701.84	6079.1	
702.03	7498.3	
702.21	8104.5	
702.39	5670.8	
702.58	6350.8	
702.76	7803.4	
702.94	8006.9	
703.13	5699.5	
703.31	8200.1	
703.49	7182.9	
703.68	8428.8	
703.86	5893.4	
704.04	6868.2	
704.23	7637.6	
704.41	8050.6	
704.59	5975.3	
704.78	7207.5	
704.96	8804.2	
705.14	8092.2	
705.33	5769.8	
705.51	6614.9	
705.69	7462.1	
705.87	8314.8	
706.06	6930.3	
706.24	5735.7	
706.42	7840.3	
706.61	8073.8	
706.79	6840.2	
706.97	5734.3	
707.16	7222.5	
707.34	7787.7	
707.52	6819.7	
707.7	5954.8	
707.89	7410.9	
708.07	7021.8	
708.25	6789.7	
708.44	6903	
708.62	7267.6	
708.8	8399.4	
708.98	7049.1	
709.17	6039.5	
709.35	7711.3	
709.53	7698.3	
709.72	5675.6	
709.9	6180.8	
710.08	7871	
710.26	7950.9	
710.45	7387.7	
710.63	6077	
710.81	7598.6	
710.99	7570	
711.18	6625.2	
711.36	6152.1	
711.54	7369.3	
711.72	8151.6	
711.91	6219.7	
712.09	5666	
712.27	7600.7	
712.45	8219.2	
712.64	6454.5	
712.82	5440.8	
713	6917.4	
713.18	7112.6	
713.37	5606	
713.55	6901.7	
713.73	8081.3	
713.91	6567.8	
714.1	6038.8	
714.28	5430.5	
714.46	7780.9	
714.64	6850.5	
714.83	4818.2	
715.01	5717.9	
715.19	6848.4	
715.37	6361	
715.55	5400.5	
715.74	5717.2	
715.92	7894.9	
716.1	5782.8	
716.28	6808.1	
716.47	5790.3	
716.65	6484.6	
716.83	6552.1	
717.01	5647.6	
717.19	5720.7	
717.38	8729.1	
717.56	6244.9	
717.74	5870.8	
717.92	4997.7	
718.1	7543.4	
718.29	6700.3	
718.47	4640.7	
718.65	5328.1	
718.83	7336.5	
719.01	7235.5	
719.2	4532.2	
719.38	5680.4	
719.56	6958.3	
719.74	8546.9	
719.92	5176.6	
720.11	6296.8	
720.29	7024.5	
720.47	6103.6	
720.65	4722.6	
720.83	5638.1	
721.02	6478.4	
721.2	6280.4	
721.38	5669.5	
721.56	4937.7	
721.74	5796.4	
721.92	5967.8	
722.11	6136.4	
722.29	5951.4	
722.47	7205.4	
722.65	6346	
722.83	4989.5	
723.01	5852.4	
723.2	6464.1	
723.38	6737.8	
723.56	4298.7	
723.74	5567.1	
723.92	5959.6	
724.1	7106.5	
724.29	4816.8	
724.47	6032	
724.65	5988.3	
724.83	5959.6	
725.01	4693.9	
725.19	5586.9	
725.37	5991.7	
725.56	6042.9	
725.74	4586.1	
725.92	4817.5	
726.1	5835.3	
726.28	6212.2	
726.46	5306.3	
726.64	4938.3	
726.83	6184.9	
727.01	6437.4	
727.19	4540.3	
727.37	5431.2	
727.55	6324.8	
727.73	6857.3	
727.91	4506.2	
728.09	4331.5	
728.28	6852.5	
728.46	7408.9	
728.64	5550	
728.82	5345.9	
729	7943.4	
729.18	7171.3	
729.36	4598.4	
729.54	6952.9	
729.72	8203.5	
729.91	6443.6	
730.09	6542.6	
730.27	5339.7	
730.45	6321.4	
730.63	6937.2	
730.81	5858.6	
730.99	4862.6	
731.17	7501.7	
731.35	6044.2	
731.53	5517.9	
731.71	5011.4	
731.9	7195.2	
732.08	7466.9	
732.26	5304.2	
732.44	4961.5	
732.62	7384.3	
732.8	6918.7	
732.98	5704.3	
733.16	4756.7	
733.34	6893.5	
733.52	5645.6	
733.7	5302.9	
733.88	5604.6	
734.07	6746	
734.25	6453.8	
734.43	4702.1	
734.61	6319.3	
734.79	7956.4	
734.97	6324.8	
735.15	4939.7	
735.33	5229.1	
735.51	6754.2	
735.69	6396.5	
735.87	6334.4	
736.05	5403.2	
736.23	6499.6	
736.41	6349.4	
736.59	5238.7	
736.77	5365.7	
736.95	7006.1	
737.13	6384.9	
737.32	4839.4	
737.5	5131.5	
737.68	7580.2	
737.86	6267.5	
738.04	4701.5	
738.22	6574.7	
738.4	6094.1	
738.58	6382.8	
738.76	5307	
738.94	4179.9	
739.12	6230.6	
739.3	6057.2	
739.48	5914.5	
739.66	5625.1	
739.84	6449.7	
740.02	6390.3	
740.2	4278.9	
740.38	4711.7	
740.56	6864.1	
740.74	5729.5	
740.92	5325.4	
741.1	5297.4	
741.28	6261.3	
741.46	6090	
741.64	4887.8	
741.82	5418.2	
742	6253.1	
742.18	6281.8	
742.36	5130.8	
742.54	4627.7	
742.72	6827.2	
742.9	5567.1	
743.08	5475.6	
743.26	4228.4	
743.44	7076.4	
743.62	6941.2	
743.8	5623.7	
743.98	4730.1	
744.16	6637.5	
744.34	6358.9	
744.52	5595.1	
744.7	5522.7	
744.88	6707.8	
745.06	6307.1	
745.24	5585.5	
745.42	5761.6	
745.6	6838.2	
745.78	6510.5	
745.96	4386.7	
746.14	4702.8	
746.32	7580.2	
746.5	6829.3	
746.68	5339.1	
746.86	4801.1	
747.03	7303.7	
747.21	5511.8	
747.39	5247.6	
747.57	4775.2	
747.75	6416.3	
747.93	6866.8	
748.11	4725.3	
748.29	4631.8	
748.47	8076.5	
748.65	6128.9	
748.83	5498.8	
749.01	5217.5	
749.19	6606.7	
749.37	5819.6	
749.55	5073.5	
749.73	5167.7	
749.91	6318	
750.09	6044.9	
750.26	5171.1	
750.44	4595.6	
750.62	6316.6	
750.8	6313.9	
750.98	4368.3	
751.16	4756.1	
751.34	6414.9	
751.52	5692.7	
751.7	5621	
751.88	4448.2	
752.06	6884.6	
752.24	6630.6	
752.42	4327.4	
752.59	4787.5	
752.77	6289.3	
752.95	7607.5	
753.13	5475.6	
753.31	4857.8	
753.49	5921.4	
753.67	6410.1	
753.85	5212.1	
754.03	4755.4	
754.21	6730.3	
754.38	7089.4	
754.56	4913.1	
754.74	3957.4	
754.92	5887.9	
755.1	6702.3	
755.28	3994.9	
755.46	4010.6	
755.64	7407.5	
755.82	7565.9	
755.99	4300.1	
756.17	4489.1	
756.35	5029.8	
756.53	6698.2	
756.71	3309.5	
756.89	4280.9	
757.07	6216.3	
757.25	5249.6	
757.42	4831.2	
757.6	5780.1	
757.78	6292.7	
757.96	5218.2	
758.14	4538.3	
758.32	3986.7	
758.5	4843.4	
758.67	5719.3	
758.85	4361.5	
759.03	4504.8	
759.21	5834.7	
759.39	5259.2	
759.57	3921.2	
759.75	5064.6	
759.92	6492.1	
760.1	5739.8	
760.28	5486.5	
760.46	5681.1	
760.64	5521.3	
760.82	5264.6	
760.99	5278.3	
761.17	4424.3	
761.35	6304.3	
761.53	5290.6	
761.71	4595.6	
761.89	5254.4	
762.06	6219.7	
762.24	5729.5	
762.42	4594.3	
762.6	4403.1	
762.78	5709.7	
762.96	6426.5	
763.13	4970.4	
763.31	4665.3	
763.49	6522.1	
763.67	5567.1	
763.85	5560.2	
764.02	6153.5	
764.2	6800.6	
764.38	5937.1	
764.56	4521.2	
764.74	5434.6	
764.91	6942.6	
765.09	5751.4	
765.27	4220.2	
765.45	4022.9	
765.63	6890.7	
765.8	6792.4	
765.98	3693.2	
766.16	4064.5	
766.34	5340.4	
766.52	5130.8	
766.69	5030.5	
766.87	3877.5	
767.05	5776	
767.23	6561.7	
767.41	4276.8	
767.58	4503.5	
767.76	6350.8	
767.94	6444.3	
768.12	4304.1	
768.29	5051	
768.47	5826.5	
768.65	6587	
768.83	3969	
769	5176.6	
769.18	5373.9	
769.36	6126.2	
769.54	5136.3	
769.72	4007.9	
769.89	6390.3	
770.07	6623.8	
770.25	4425	
770.43	5722	
770.6	7117.4	
770.78	7616.4	
770.96	4551.3	
771.14	4731.5	
771.31	6327.5	
771.49	5647.6	
771.67	3675.4	
771.85	4016.1	
772.02	4848.2	
772.2	5644.9	
772.38	4690.5	
772.55	4218.8	
772.73	6004	
772.91	5724.8	
773.09	4614.8	
773.26	4692.6	
773.44	5855.1	
773.62	5451.7	
773.8	4097.3	
773.97	3756	
774.15	5995.8	
774.33	5567.7	
774.5	3958	
774.68	4373.8	
774.86	6139.8	
775.04	5621.7	
775.21	4094.6	
775.39	4109.6	
775.57	5905	
775.74	6309.8	
775.92	3915	
776.1	3803.1	
776.27	5898.8	
776.45	7149.5	
776.63	4053.6	
776.81	3577.8	
776.98	5468.1	
777.16	6600.6	
777.34	4184.7	
777.51	4518.5	
777.69	5466.7	
777.87	5295.4	
778.04	4233.2	
778.22	4931.5	
778.4	5290.6	
778.57	5966.4	
778.75	3561.4	
778.93	3818.8	
779.1	5065.3	
779.28	4944.5	
779.46	3512.3	
779.64	4022.2	
779.81	6121.4	
779.99	7061.4	
780.17	4839.4	
780.34	5009.3	
780.52	5517.9	
780.69	5814.2	
780.87	4398.4	
781.05	3944.4	
781.22	5623	
781.4	5713.8	
781.58	4098.7	
781.75	3166.8	
781.93	5638.7	
782.11	5058.5	
782.28	5005.2	
782.46	4067.3	
782.64	4863.9	
782.81	5756.2	
782.99	4249.5	
783.17	4181.3	
783.34	5758.2	
783.52	4924	
783.69	4332.8	
783.87	5177.3	
784.05	4978.6	
784.22	5023	
784.4	5096.7	
784.58	4420.2	
784.75	5989.6	
784.93	5059.8	
785.1	4057	
785.28	4740.4	
785.46	5762.3	
785.63	5008	
785.81	3997.6	
785.99	3840.6	
786.16	5215.5	
786.34	5614.2	
786.51	3956	
786.69	4289.8	
786.87	4810	
787.04	5324	
787.22	3764.2	
787.39	4783.4	
787.57	5005.2	
787.75	6147.3	
787.92	4902.2	
788.1	4940.4	
788.27	5081	
788.45	4867.3	
788.63	4648.2	
788.8	3271.3	
788.98	5435.3	
789.15	4758.8	
789.33	3381.9	
789.5	4040.6	
789.68	6032.6	
789.86	6156.9	
790.03	4584.7	
790.21	3947.1	
790.38	6013.5	
790.56	5168.4	
790.73	3781.2	
790.91	3917.8	
791.09	5046.9	
791.26	5844.2	
791.44	4117.8	
791.61	3509.5	
791.79	5107	
791.96	5195.7	
792.14	3637.2	
792.32	3147.7	
792.49	5002.5	
792.67	5167.7	
792.84	3764.2	
793.02	3434.4	
793.19	5711.1	
793.37	6291.4	
793.54	3252.9	
793.72	3604.4	
793.89	6468.2	
794.07	5096	
794.25	4252.3	
794.42	3278.1	
794.6	6175.3	
794.77	5742.5	
794.95	4487.8	
795.12	3863.2	
795.3	5032.5	
795.47	5722	
795.65	4254.3	
795.82	4067.9	
796	4900.1	
796.17	6866.8	
796.35	4020.2	
796.52	4696.7	
796.7	5679.7	
796.87	5698.1	
797.05	4958.1	
797.22	4929.5	
797.4	5748	
797.57	6688	
797.75	4069.3	
797.92	3925.3	
798.1	5995.8	
798.27	5089.9	
798.45	3315.7	
798.62	3543.7	
798.8	5374.6	
798.97	5886.5	
799.15	4352.6	
799.32	4116.4	
799.5	4636.6	
799.67	5472.9	
799.85	4418.2	
800.02	3196.9	
800.2	5091.3	
800.37	5335	
800.55	4632.5	
800.72	3852.2	
800.9	5843.5	
801.07	6267.5	
801.25	5192.3	
801.42	4292.5	
801.6	5896.1	
801.77	5601.2	
801.95	3932.8	
802.12	3796.9	
802.29	5543.2	
802.47	5509.7	
802.64	4222.2	
802.82	3172.3	
802.99	4977.2	
803.17	6119.3	
803.34	4119.1	
803.52	3702	
803.69	6716.7	
803.87	4814.8	
804.04	4089.8	
804.21	4152.6	
804.39	6128.9	
804.56	5224.4	
804.74	3482.9	
804.91	4290.5	
805.09	5076.9	
805.26	5157.5	
805.44	3551.9	
805.61	3919.1	
805.78	5740.5	
805.96	5806	
806.13	4269.3	
806.31	4632.5	
806.48	4575.8	
806.66	5156.1	
806.83	4198.3	
807	4137.6	
807.18	5020.3	
807.35	5519.3	
807.53	4155.3	
807.7	3306.8	
807.87	6186.2	
808.05	5103.5	
808.22	4609.3	
808.4	3272	
808.57	5132.2	
808.74	4732.2	
808.92	3768.9	
809.09	4801.8	
809.27	5008	
809.44	5575.3	
809.61	3340.9	
809.79	3682.9	
809.96	6272.2	
810.14	5856.5	
810.31	3193.5	
810.48	3928	
810.66	5205.9	
810.83	5945.9	
811.01	3751.9	
811.18	4289.1	
811.35	5849.7	
811.53	4575.8	
811.7	4610.7	
811.87	4268	
812.05	5105.6	
812.22	5001.1	
812.39	3710.2	
812.57	3502.7	
812.74	5115.8	
812.92	6842.9	
813.09	3984	
813.26	4364.2	
813.44	6472.3	
813.61	5004.6	
813.78	3354.6	
813.96	4446.1	
814.13	5117.9	
814.3	4734.9	
814.48	4803.9	
814.65	3984	
814.82	6334.4	
815	4929.5	
815.17	4117.8	
815.34	5024.3	
815.52	5022.3	
815.69	5015.5	
815.87	4061.8	
816.04	3507.5	
816.21	5104.9	
816.38	4460.5	
816.56	3927.3	
816.73	3616.7	
816.9	6410.8	
817.08	5897.5	
817.25	3684.3	
817.42	4708.3	
817.6	4616.8	
817.77	5137	
817.94	4147.8	
818.12	3661.8	
818.29	4862.6	
818.46	7645.8	
818.64	3801	
818.81	3595.6	
818.98	4715.1	
819.16	7012.2	
819.33	4442.7	
819.5	4108.2	
819.67	5496.1	
819.85	6162.3	
820.02	4074.1	
820.19	4286.4	
820.37	5313.1	
820.54	4861.2	
820.71	4208.6	
820.88	5194.3	
821.06	5274.9	
821.23	4880.3	
821.4	4252.3	
821.58	4154.6	
821.75	5870.2	
821.92	5230.5	
822.09	3320.4	
822.27	3383.2	
822.44	5090.6	
822.61	5032.5	
822.79	3362.8	
822.96	6498.9	
823.13	5627.8	
823.3	4799.8	
823.48	3878.9	
823.65	3485	
823.82	5774.6	
823.99	4661.9	
824.17	4975.2	
824.34	3528.7	
824.51	6759.7	
824.68	5132.9	
824.86	3753.9	
825.03	4169.7	
825.2	5166.3	
825.37	6242.2	
825.55	3680.2	
825.72	4166.9	
825.89	6826.6	
826.06	6309.8	
826.24	4000.4	
826.41	4003.1	
826.58	6272.9	
826.75	5443.5	
826.92	3155.2	
827.1	3461.7	
827.27	8522.3	
827.44	6823.1	
827.61	3748.5	
827.79	4616.8	
827.96	4863.9	
828.13	5143.1	
828.3	3959.4	
828.47	3337.5	
828.65	5321.3	
828.82	5261.9	
828.99	5152	
829.16	4521.9	
829.34	5690.6	
829.51	5421.7	
829.68	4137.6	
829.85	4306.2	
830.02	5997.8	
830.2	5724.8	
830.37	3186.6	
830.54	4976.6	
830.71	6567.8	
830.88	5076.2	
831.05	3252.9	
831.23	3710.2	
831.4	6227.9	
831.57	7045.7	
831.74	3870.7	
831.91	3362.1	
832.09	5341.1	
832.26	5793	
832.43	3956	
832.6	4461.2	
832.77	5349.3	
832.94	6178.7	
833.12	3137.5	
833.29	3930.1	
833.46	5165.7	
833.63	7279.2	
833.8	4365.6	
833.97	3993.5	
834.15	5751.4	
834.32	5488.6	
834.49	4095.3	
834.66	4180.6	
834.83	5963	
835	4807.3	
835.17	3807.9	
835.35	3857	
835.52	5649.7	
835.69	5500.8	
835.86	4070	
836.03	3322.5	
836.2	5702.9	
836.37	5360.9	
836.55	3919.1	
836.72	3731.4	
836.89	5238.7	
837.06	5855.1	
837.23	4008.6	
837.4	4378.6	
837.57	6589	
837.75	7205.4	
837.92	3564.1	
838.09	3848.1	
838.26	5302.9	
838.43	6000.5	
838.6	4128.7	
838.77	3755.3	
838.94	6891.4	
839.11	6591	
839.29	3964.2	
839.46	3153.2	
839.63	5674.9	
839.8	5429.8	
839.97	3816.7	
840.14	3847.5	
840.31	5494	
840.48	5727.5	
840.65	3193.5	
840.82	3868.6	
841	5664.7	
841.17	5673.6	
841.34	3557.3	
841.51	3512.3	
841.68	5629.9	
841.85	5366.4	
842.02	3657.7	
842.19	3020.1	
842.36	5489.2	
842.53	5458.5	
842.7	3564.1	
842.87	4329.4	
843.05	7165.8	
843.22	5353.4	
843.39	3364.8	
843.56	3637.2	
843.73	5137.7	
843.9	5788.2	
844.07	5726.1	
844.24	4828.4	
844.41	8419.2	
844.58	4911.7	
844.75	3385.3	
844.92	3717.7	
845.09	5692	
845.26	5694	
845.43	3514.3	
845.6	3662.5	
845.77	5735.7	
845.94	5437.4	
846.12	3903.4	
846.29	4132.1	
846.46	5896.1	
846.63	5683.8	
846.8	3461.7	
846.97	4219.5	
847.14	6178	
847.31	5668.8	
847.48	3984	
847.65	4367.6	
847.82	5988.3	
847.99	5929.6	
848.16	4711	
848.33	4347.2	
848.5	5310.4	
848.67	6208.8	
848.84	3465.8	
849.01	3657	
849.18	5116.5	
849.35	4760.8	
849.52	4440.7	
849.69	3473.4	
849.86	5896.1	
850.03	6104.3	
850.2	3530	
850.37	4341	
850.54	6032	
850.71	5390.9	
850.88	4218.1	
851.05	3418.1	
851.22	5596.4	
851.39	6285.2	
851.56	3295.2	
851.73	4012.7	
851.9	4992.3	
852.07	5909.8	
852.24	3902.7	
852.41	3421.5	
852.58	5530.9	
852.75	5061.9	
852.92	3922.5	
853.09	3391.4	
853.26	5315.8	
853.43	6141.9	
853.6	3493.2	
853.77	2962.7	
853.94	6203.3	
854.11	5632.6	
854.28	5170.4	
854.44	3760.8	
854.61	6790.4	
854.78	6000.5	
854.95	3453.6	
855.12	4351.3	
855.29	4547.2	
855.46	6446.3	
855.63	3489.1	
855.8	4888.5	
855.97	5289.9	
856.14	6037.4	
856.31	5025	
856.48	3882.9	
856.65	5236	
856.82	4934.2	
856.99	3344.3	
857.16	3780.6	
857.33	7028.6	
857.49	5373.9	
857.66	3756.7	
857.83	4128.7	
858	5354.1	
858.17	5559.6	
858.34	3299.3	
858.51	3496.6	
858.68	6386.9	
858.85	6441.5	
859.02	4076.8	
859.19	4379.2	
859.36	4932.9	
859.52	4999.1	
859.69	3504.8	
859.86	4169	
860.03	5027.8	
860.2	6270.9	
860.37	3260.4	
860.54	3506.1	
860.71	5939.1	
860.88	6308.4	
861.05	3917.8	
861.21	4446.8	
861.38	6386.9	
861.55	4871.4	
861.72	3155.2	
861.89	3924.6	
862.06	5985.5	
862.23	6507.8	
862.4	3433.1	
862.56	3638.6	
862.73	5763	
862.9	5459.2	
863.07	4083	
863.24	3141.6	
863.41	4868.7	
863.58	5012.7	
863.75	3619.4	
863.91	4058.4	
864.08	6315.9	
864.25	5911.1	
864.42	4381.3	
864.59	4919.9	
864.76	6651.1	
864.93	4987.5	
865.09	3406.5	
865.26	3814.7	
865.43	6193.1	
865.6	6587	
865.77	3067.2	
865.94	3447.4	
866.1	6245.6	
866.27	5933.6	
866.44	5262.6	
866.61	3287	
866.78	5373.2	
866.95	5853.8	
867.11	3424.9	
867.28	3142.9	
867.45	5993.7	
867.62	5151.3	
867.79	4182.6	
867.96	3461.7	
868.12	5001.1	
868.29	5971.2	
868.46	2992.8	
868.63	4646.8	
868.8	6163.7	
868.97	5919.3	
869.13	3632.4	
869.3	3641.3	
869.47	5777.3	
869.64	6004	
869.81	3487.7	
869.97	3561.4	
870.14	5629.2	
870.31	6419.7	
870.48	3506.1	
870.65	4407.2	
870.81	5343.2	
870.98	5267.4	
871.15	3969.6	
871.32	3634.5	
871.48	5793	
871.65	6402.6	
871.82	3443.3	
871.99	3820.1	
872.16	6882.5	
872.32	6242.2	
872.49	3511.6	
872.66	3520.5	
872.83	5921.4	
872.99	5154.1	
873.16	3966.9	
873.33	3491.1	
873.5	5554.1	
873.67	5545.9	
873.83	3657.7	
874	4700.1	
874.17	5705.6	
874.34	6815	
874.5	4509.6	
874.67	4410.6	
874.84	6341.2	
875.01	5003.9	
875.17	4956.1	
875.34	3485	
875.51	5597.8	
875.68	6792.4	
875.84	4247.5	
876.01	5115.8	
876.18	5903.6	
876.34	5840.1	
876.51	3514.3	
876.68	3446.7	
876.85	5363.6	
877.01	6180.8	
877.18	5021.6	
877.35	3534.8	
877.52	5516.5	
877.68	4877.6	
877.85	3390.8	
878.02	3461.1	
878.18	5522	
878.35	5139.7	
878.52	2824.1	
878.69	3910.9	
878.85	5937.7	
879.02	5845.6	
879.19	5045.5	
879.35	3774.4	
879.52	5849.7	
879.69	6057.2	
879.86	2975	
880.02	3891.8	
880.19	5410.7	
880.36	6725.5	
880.52	4041.3	
880.69	4143.7	
880.86	5952.8	
881.02	6044.9	
881.19	3863.2	
881.36	3786.7	
881.52	5843.5	
881.69	5205.9	
881.86	3738.2	
882.02	3761.4	
882.19	6138.4	
882.36	7152.2	
882.52	3608.5	
882.69	4913.1	
882.86	5707	
883.02	5579.3	
883.19	4255.7	
883.36	3997.6	
883.52	5963	
883.69	6851.1	
883.86	3556	
884.02	3145	
884.19	5965.1	
884.36	5452.4	
884.52	3924.6	
884.69	3708.9	
884.86	5195.7	
885.02	6602.7	
885.19	3958	
885.36	4082.3	
885.52	5517.2	
885.69	5632.6	
885.86	5050.3	
886.02	4471.4	
886.19	5921.4	
886.35	5466	
886.52	3842	
886.69	4917.2	
886.85	5075.5	
887.02	6312.5	
887.19	6312.5	
887.35	6312.5	
887.52	6312.5	
887.68	6312.5	
887.85	6312.5	
888.02	6312.5	
888.18	6312.5	
888.35	6312.5	
888.51	6312.5	
888.68	6312.5	
888.85	6312.5	
889.01	6312.5	
889.18	6312.5	
889.35	6312.5	
889.51	6312.5	
889.68	6312.5	
889.84	6312.5	
890.01	6312.5	
890.17	6312.5	
890.34	6312.5	
890.51	6312.5	
890.67	6312.5	
890.84	6312.5	
891	6312.5	
891.17	6312.5	
891.34	6312.5	
891.5	6312.5	
891.67	6312.5	
891.83	6312.5	
892	6312.5	
892.16	6312.5	
892.33	6312.5	
892.5	6312.5	
892.66	6312.5	
892.83	6312.5	
892.99	6312.5	
893.16	6312.5	
893.32	6312.5	
893.49	6312.5	
893.65	6312.5	
893.82	6312.5	
893.99	6312.5	
894.15	6312.5	
894.32	6312.5	
894.48	6312.5	
894.65	6312.5	
894.81	6312.5	
894.98	6312.5	
895.14	6312.5	
895.31	6312.5	
895.47	6312.5	
895.64	6312.5	
895.81	6312.5	
895.97	6312.5	
896.14	6312.5	
896.3	6312.5	
896.47	6312.5	
896.63	6312.5	
896.8	6312.5	
896.96	6312.5	
897.13	6312.5	
897.29	6312.5	
897.46	6312.5	
897.62	6312.5	
897.79	6312.5	
897.95	6312.5	
898.12	6312.5	
898.28	6312.5	
898.45	6312.5	
898.61	6312.5	
898.78	6312.5	
898.94	6312.5	
899.11	6312.5	
899.27	6312.5	
899.44	6312.5	
899.6	6312.5	
899.77	6312.5	
899.93	6312.5	
900.1	6312.5	
900.26	6312.5	
900.43	6312.5	
900.59	6312.5	
900.76	6312.5	
900.92	6312.5	
901.09	6312.5	
901.25	6312.5	
901.42	6312.5	
901.58	6312.5	
901.75	6312.5	
901.91	6312.5	
902.07	6312.5	
902.24	6312.5	
902.4	6312.5	
902.57	6312.5	
902.73	6312.5	
902.9	6312.5	
903.06	6312.5	
903.23	6312.5	
903.39	6312.5	
903.56	6312.5	
903.72	6312.5	
903.88	6312.5	
904.05	6312.5	
904.21	6312.5	
904.38	6312.5	
904.54	6312.5	
904.71	6312.5	
904.87	6312.5	
905.03	6312.5	
905.2	6312.5	
905.36	6312.5	
905.53	6312.5	
905.69	6312.5	
905.86	6312.5	
906.02	6312.5	
906.18	6312.5	
906.35	6312.5	
906.51	6312.5	
906.68	6312.5	
906.84	6312.5	
907.01	6312.5	
907.17	6312.5	
907.33	6312.5	
907.5	6312.5	
907.66	6312.5	
907.83	6312.5	
907.99	6312.5	
908.15	6312.5	
908.32	6312.5	
908.48	6312.5	
908.65	6312.5	
908.81	6312.5	
908.97	6312.5	
909.14	6312.5	
909.3	6312.5	
909.47	6312.5	
909.63	6312.5	
909.79	6312.5	
909.96	6312.5	
910.12	6312.5	
910.28	6312.5	
910.45	6312.5	
910.61	6312.5	
910.78	6312.5	
910.94	6312.5	
911.1	6312.5	
911.27	6312.5	
911.43	6312.5	
911.59	6312.5	
911.76	6312.5	
911.92	6312.5	
912.08	6312.5	
912.25	6312.5	
912.41	6312.5	
912.57	6312.5	
912.74	6312.5	
912.9	6312.5	
913.07	6312.5	
913.23	6312.5	
913.39	6312.5	
913.56	6312.5	
913.72	6312.5	
913.88	6312.5	
914.05	6312.5	
914.21	6312.5	
914.37	6312.5	
914.54	6312.5	
914.7	6312.5	
914.86	6312.5	
915.03	6312.5	
915.19	6312.5	
