Wavelength	Intensities	
nm	a.u.	
179.22	1894.2	
179.44	1896.8	
179.65	1891.6	
179.86	1901.9	
180.08	1903.9	
180.29	4771.1	
180.51	3426.3	
180.72	5511.1	
180.94	6462	
181.15	3203	
181.37	3123.2	
181.58	5388.2	
181.79	5690.6	
182.01	3292.5	
182.22	3516.4	
182.44	5699.5	
182.65	4747.9	
182.87	4476.2	
183.08	3929.4	
183.29	6026.5	
183.51	4922	
183.72	3637.9	
183.94	5214.8	
184.15	5345.2	
184.37	5406.6	
184.58	3133.4	
184.79	4404.5	
185.01	4970.4	
185.22	5692	
185.44	4526.7	
185.65	3853.6	
185.86	5246.9	
186.08	4822.3	
186.29	3107.5	
186.51	3306.1	
186.72	5029.8	
186.94	5862	
187.15	3852.2	
187.36	3993.5	
187.58	7643.7	
187.79	5453.7	
188.01	4065.2	
188.22	6443.6	
188.43	6537.8	
188.65	5696.8	
188.86	3336.1	
189.08	3995.6	
189.29	5152	
189.5	5160.9	
189.72	3669.3	
189.93	3798.3	
190.15	5864.7	
190.36	7020.4	
190.57	4100.7	
190.79	3873.4	
191	6055.2	
191.22	5929.6	
191.43	4038.6	
191.64	3346.4	
191.86	6210.1	
192.07	5870.8	
192.29	3474.7	
192.5	3645.4	
192.71	5915.2	
192.93	5119.2	
193.14	3629	
193.35	3717.1	
193.57	5045.5	
193.78	5927.5	
194	2975.7	
194.21	3631.7	
194.42	4928.8	
194.64	5352	
194.85	3958	
195.07	4631.1	
195.28	5414.8	
195.49	4656.4	
195.71	4900.1	
195.92	3411.2	
196.13	5532.2	
196.35	5667.4	
196.56	5131.5	
196.78	3951.9	
196.99	6935.1	
197.2	6529.6	
197.42	4533.5	
197.63	4048.2	
197.84	4829.1	
198.06	5591.6	
198.27	3657	
198.48	4872.1	
198.7	5121.3	
198.91	5304.9	
199.13	4022.9	
199.34	4020.2	
199.55	5769.1	
199.77	4658.4	
199.98	3532.7	
200.19	4008.6	
200.41	5168.4	
200.62	4941.7	
200.83	4158.1	
201.05	4461.8	
201.26	5238	
201.47	4995.7	
201.69	3585.3	
201.9	3383.9	
202.11	5268.1	
202.33	6372.6	
202.54	3758.7	
202.76	4203.1	
202.97	5449	
203.18	5483.1	
203.4	4166.9	
203.61	4081.6	
203.82	5401.2	
204.04	5071.5	
204.25	4095.3	
204.46	3953.3	
204.68	5388.9	
204.89	5628.5	
205.1	3867.9	
205.32	3354.6	
205.53	5829.9	
205.74	5932.3	
205.96	2852.8	
206.17	4151.2	
206.38	5768.4	
206.6	5872.9	
206.81	4545.8	
207.02	3733.4	
207.24	5578	
207.45	6042.9	
207.66	3833.1	
207.88	3297.2	
208.09	5516.5	
208.3	5322.7	
208.52	3502.7	
208.73	3779.9	
208.94	5345.2	
209.15	6022.4	
209.37	3850.2	
209.58	4010.6	
209.79	5900.2	
210.01	5242.1	
210.22	3084.2	
210.43	3188.7	
210.65	5410.7	
210.86	5748	
211.07	3820.8	
211.29	3515.7	
211.5	5697.4	
211.71	5292.6	
211.93	3500.7	
212.14	3543	
212.35	5273.5	
212.56	5549.3	
212.78	4033.8	
212.99	3240.6	
213.2	6283.9	
213.42	5156.8	
213.63	3638.6	
213.84	3903.4	
214.06	4776.5	
214.27	4812.7	
214.48	3815.4	
214.69	4054.3	
214.91	5992.4	
215.12	6120.7	
215.33	4106.2	
215.55	4459.1	
215.76	6593.8	
215.97	5692	
216.18	4005.8	
216.4	3827	
216.61	5067.4	
216.82	5837.4	
217.04	3545.7	
217.25	3678.2	
217.46	5969.1	
217.67	5771.9	
217.89	3197.6	
218.1	3272	
218.31	5403.2	
218.53	5482.4	
218.74	3731.4	
218.95	3562.1	
219.16	5329.5	
219.38	6264.7	
219.59	3566.2	
219.8	4261.1	
220.01	6889.4	
220.23	5319.3	
220.44	4687.1	
220.65	3500	
220.87	5410.7	
221.08	5978.7	
221.29	3323.9	
221.5	4300.7	
221.72	7341.3	
221.93	5042.8	
222.14	4032.5	
222.35	4713.1	
222.57	5341.8	
222.78	5753.4	
222.99	3796.9	
223.2	4140.3	
223.42	5660.6	
223.63	5842.2	
223.84	3000.3	
224.05	2945.7	
224.27	6802.7	
224.48	6256.5	
224.69	4790.9	
224.9	4024.9	
225.12	5547.3	
225.33	5305.6	
225.54	3182.5	
225.75	3536.8	
225.97	4960.2	
226.18	5188.2	
226.39	3911.6	
226.6	3567.6	
226.82	5137.7	
227.03	4958.8	
227.24	3995.6	
227.45	3302	
227.67	5749.3	
227.88	6268.8	
228.09	4418.8	
228.3	4493.2	
228.52	5746.6	
228.73	5268.1	
228.94	3727.3	
229.15	3315.7	
229.36	5245.5	
229.58	5218.9	
229.79	3711.6	
230	4388.8	
230.21	6381.5	
230.43	5442.8	
230.64	4001.7	
230.85	4163.5	
231.06	5758.2	
231.28	5759.6	
231.49	3357.3	
231.7	3919.1	
231.91	5715.2	
232.12	5375.2	
232.34	3375.7	
232.55	3934.1	
232.76	5980.1	
232.97	5544.5	
233.18	3556.6	
233.4	3964.2	
233.61	5608	
233.82	5096.7	
234.03	3642	
234.25	3614.7	
234.46	7419.1	
234.67	5416.2	
234.88	4080.9	
235.09	3536.8	
235.31	5683.8	
235.52	5284.4	
235.73	4007.2	
235.94	3409.9	
236.15	5121.3	
236.37	6543.9	
236.58	3557.3	
236.79	3835.8	
237	5649	
237.21	4827.1	
237.43	4131.4	
237.64	3239.9	
237.85	9637.1	
238.06	4965	
238.27	4168.3	
238.48	3342.3	
238.7	5694	
238.91	5231.2	
239.12	3809.9	
239.33	3936.9	
239.54	4953.4	
239.76	5302.2	
239.97	3771.7	
240.18	3806.5	
240.39	6745.3	
240.6	5623	
240.82	3964.9	
241.03	3236.5	
241.24	5388.9	
241.45	6223.1	
241.66	3494.5	
241.87	4092.5	
242.09	6022.4	
242.3	6422.4	
242.51	4218.1	
242.72	3838.6	
242.93	5841.5	
243.14	5305.6	
243.36	4467.3	
243.57	4790.2	
243.78	6215.6	
243.99	5727.5	
244.2	3837.2	
244.41	3485.6	
244.63	4930.8	
244.84	5603.2	
245.05	4147.1	
245.26	3833.1	
245.47	5646.9	
245.68	5935.7	
245.9	5118.6	
246.11	4022.9	
246.32	5252.4	
246.53	5558.9	
246.74	6227.9	
246.95	3238.5	
247.16	4913.8	
247.38	5365.7	
247.59	3231	
247.8	3859.1	
248.01	5049.6	
248.22	5267.4	
248.43	3512.9	
248.64	3719.1	
248.86	4766.3	
249.07	5102.9	
249.28	3441.3	
249.49	3941.7	
249.7	5882.4	
249.91	5986.2	
250.12	3176.4	
250.34	3297.2	
250.55	5481	
250.76	5372.5	
250.97	3929.4	
251.18	4001	
251.39	6048.3	
251.6	5559.6	
251.81	4032.5	
252.03	4048.8	
252.24	5149.3	
252.45	5859.2	
252.66	3370.3	
252.87	4220.2	
253.08	5394.3	
253.29	7021.1	
253.5	3338.2	
253.72	4669.4	
253.93	5210.7	
254.14	6371.9	
254.35	3653.6	
254.56	3736.2	
254.77	5616.2	
254.98	5002.5	
255.19	3633.8	
255.41	4698	
255.62	5516.5	
255.83	5953.4	
256.04	4119.1	
256.25	3981.9	
256.46	6565.8	
256.67	5078.3	
256.88	3943	
257.09	4321.2	
257.31	5046.9	
257.52	5098.1	
257.73	5005.9	
257.94	3669.3	
258.15	5184.8	
258.36	5401.2	
258.57	4611.3	
258.78	2912.2	
258.99	5881.8	
259.2	5194.3	
259.41	3633.8	
259.63	3730.7	
259.84	6192.4	
260.05	6598.6	
260.26	4793.6	
260.47	3571	
260.68	6014.2	
260.89	5270.8	
261.1	4374.5	
261.31	3561.4	
261.52	5966.4	
261.73	6274.3	
261.95	4709	
262.16	4194.2	
262.37	6109.8	
262.58	6126.2	
262.79	4733.5	
263	3752.6	
263.21	5470.8	
263.42	4958.1	
263.63	3766.2	
263.84	3643.3	
264.05	5887.2	
264.26	6299.6	
264.47	4598.4	
264.69	4127.3	
264.9	6067.4	
265.11	5575.9	
265.32	3541.6	
265.53	3682.9	
265.74	5497.4	
265.95	4799.1	
266.16	3910.9	
266.37	4317.8	
266.58	5551.4	
266.79	5222.3	
267	3618.1	
267.21	3371	
267.42	4934.2	
267.63	5355.4	
267.84	3834.5	
268.06	3280.2	
268.27	5762.3	
268.48	6068.8	
268.69	3748.5	
268.9	4425	
269.11	6006.7	
269.32	4869.4	
269.53	3802.4	
269.74	3553.2	
269.95	5670.8	
270.16	4762.9	
270.37	3836.5	
270.58	4441.4	
270.79	5246.9	
271	5833.3	
271.21	4145.8	
271.42	3870	
271.63	5504.9	
271.84	5048.2	
272.05	3117.7	
272.26	3476.1	
272.47	5365	
272.68	5640.8	
272.89	3720.5	
273.11	4208.6	
273.32	5216.2	
273.53	6266.8	
273.74	4123.9	
273.95	4008.6	
274.16	6034.7	
274.37	5402.5	
274.58	4224.3	
274.79	3367.5	
275	5514.5	
275.21	5969.8	
275.42	4977.9	
275.63	4319.8	
275.84	5623.7	
276.05	7006.8	
276.26	4061.8	
276.47	3765.5	
276.68	5211.4	
276.89	6363.7	
277.1	4324.6	
277.31	3370.3	
277.52	5610.8	
277.73	5816.2	
277.94	3382.6	
278.15	3716.4	
278.36	5576.6	
278.57	4984.8	
278.78	3692.5	
278.99	4143	
279.2	5022.3	
279.41	4996.4	
279.62	4871.4	
279.83	3373	
280.04	6505.7	
280.25	4851.6	
280.46	4842.8	
280.67	3837.2	
280.88	5035.3	
281.09	6074.3	
281.3	4072	
281.51	5134.3	
281.72	5136.3	
281.93	5876.3	
282.14	3588	
282.35	3904.8	
282.56	5940.5	
282.77	5833.3	
282.98	3720.5	
283.19	4566.3	
283.4	7195.2	
283.61	5302.2	
283.82	3315	
284.03	4758.8	
284.24	5478.3	
284.45	6024.4	
284.66	4722.6	
284.87	4580.6	
285.08	5952.1	
285.29	6063.4	
285.5	3297.2	
285.71	3736.9	
285.92	6038.8	
286.12	6654.5	
286.33	4771.1	
286.54	3706.8	
286.75	5874.9	
286.96	5272.2	
287.17	3401.7	
287.38	4662.5	
287.59	5014.1	
287.8	4987.5	
288.01	3790.1	
288.22	4349.9	
288.43	5855.8	
288.64	4933.6	
288.85	4537.6	
289.06	4286.4	
289.27	5857.2	
289.48	6298.9	
289.69	4737.6	
289.9	4310.3	
290.11	6065.4	
290.32	5059.2	
290.53	4488.5	
290.74	4138.3	
290.94	5769.8	
291.15	5944.6	
291.36	3702	
291.57	4337.6	
291.78	5177.3	
291.99	4829.8	
292.2	3434.4	
292.41	4209.3	
292.62	5898.1	
292.83	5698.8	
293.04	5169.8	
293.25	3526.6	
293.46	5160.2	
293.67	5950.7	
293.88	3644.7	
294.09	3472	
294.29	4928.8	
294.5	5517.9	
294.71	3839.9	
294.92	3691.1	
295.13	5177.3	
295.34	6419	
295.55	3256.3	
295.76	3353.2	
295.97	5786.2	
296.18	6549.4	
296.39	3426.3	
296.6	3682.9	
296.81	5455.8	
297.01	5743.2	
297.22	3817.4	
297.43	3635.1	
297.64	4998.4	
297.85	5026.4	
298.06	2995.5	
298.27	3249.4	
298.48	5414.1	
298.69	5098.1	
298.9	3947.1	
299.11	3564.8	
299.31	4927.4	
299.52	4955.4	
299.73	4166.9	
299.94	4051.6	
300.15	5358.2	
300.36	5017.5	
300.57	4122.6	
300.78	4101.4	
300.99	5295.4	
301.2	5494	
301.4	3540.9	
301.61	3857	
301.82	5669.5	
302.03	5836	
302.24	4356	
302.45	3450.8	
302.66	5673.6	
302.87	6111.8	
303.08	3650.2	
303.29	4887.8	
303.49	5172.5	
303.7	5416.9	
303.91	3199.6	
304.12	4663.9	
304.33	4949.9	
304.54	5546.6	
304.75	3612.6	
304.96	3439.9	
305.16	5712.5	
305.37	6391	
305.58	3173.7	
305.79	3276.1	
306	5684.5	
306.21	4838	
306.42	3597.6	
306.63	5440.8	
306.83	5240.8	
307.04	5919.3	
307.25	4016.7	
307.46	4022.9	
307.67	4654.4	
307.88	5821	
308.09	3583.3	
308.29	3743	
308.5	5457.2	
308.71	6000.5	
308.92	3791.5	
309.13	3493.8	
309.34	5352	
309.55	5276.9	
309.75	4460.5	
309.96	4053.6	
310.17	5779.4	
310.38	5090.6	
310.59	4356	
310.8	4120.5	
311.01	5203.2	
311.21	5234.6	
311.42	3372.3	
311.63	3575.8	
311.84	5152.7	
312.05	5467.4	
312.26	4029	
312.46	4403.1	
312.67	5177.3	
312.88	4964.3	
313.09	3466.5	
313.3	3482.2	
313.51	6191.7	
313.71	6527.6	
313.92	3497.9	
314.13	3712.3	
314.34	5524.7	
314.55	5301.5	
314.76	4513	
314.96	3900.7	
315.17	5436	
315.38	5848.3	
315.59	3519.8	
315.8	3349.1	
316.01	6262.7	
316.21	6294.8	
316.42	3416	
316.63	3831.7	
316.84	5213.4	
317.05	6049	
317.26	4091.8	
317.46	3713.6	
317.67	5298.1	
317.88	5767.1	
318.09	4371.7	
318.3	3246.7	
318.5	5102.2	
318.71	5689.3	
318.92	5680.4	
319.13	4095.9	
319.34	5909.1	
319.54	6028.5	
319.75	3261	
319.96	3110.9	
320.17	5765	
320.38	5911.8	
320.58	3158	
320.79	3812.6	
321	5937.1	
321.21	6078.4	
321.42	3832.4	
321.62	3163.4	
321.83	5035.3	
322.04	5395.7	
322.25	3753.2	
322.46	3528	
322.66	5503.6	
322.87	5655.8	
323.08	4254.3	
323.29	3472	
323.5	6425.8	
323.7	4967	
323.91	4784.1	
324.12	4298	
324.33	5502.2	
324.53	5724.1	
324.74	4158.1	
324.95	4343.1	
325.16	4851.6	
325.37	5217.5	
325.57	3528.7	
325.78	3577.1	
325.99	5491.3	
326.2	4837.3	
326.4	4915.1	
326.61	3276.8	
326.82	5352	
327.03	5451.7	
327.24	4972.5	
327.44	4726.7	
327.65	5629.2	
327.86	4566.3	
328.07	4071.4	
328.27	3411.2	
328.48	6094.8	
328.69	4973.8	
328.9	5042.8	
329.1	3749.1	
329.31	5298.8	
329.52	6237.4	
329.73	3511.6	
329.93	3921.9	
330.14	5398.4	
330.35	5620.3	
330.56	5734.3	
330.76	4317.1	
330.97	5231.9	
331.18	5624.4	
331.39	3902.1	
331.59	3174.4	
331.8	5945.9	
332.01	6100.2	
332.22	3584.6	
332.42	4147.1	
332.63	5505.6	
332.84	5131.5	
333.05	3949.2	
333.25	3577.1	
333.46	5163.6	
333.67	5390.9	
333.88	3715	
334.08	4061.1	
334.29	7234.8	
334.5	6069.5	
334.7	3442	
334.91	4999.8	
335.12	4967	
335.33	5746.6	
335.53	3904.8	
335.74	5750	
335.95	5197.1	
336.16	5003.9	
336.36	3917.1	
336.57	4470	
336.78	4947.9	
336.98	5968.5	
337.19	4777.2	
337.4	3806.5	
337.61	6502.3	
337.81	4901.5	
338.02	3548.4	
338.23	4637.3	
338.43	6133.7	
338.64	5039.4	
338.85	3536.8	
339.05	4561.5	
339.26	6234	
339.47	4851	
339.68	3536.2	
339.88	5175.9	
340.09	5659.2	
340.3	5850.4	
340.5	4051.6	
340.71	3193.5	
340.92	4853	
341.13	6077	
341.33	3412.6	
341.54	4136.9	
341.75	5672.9	
341.95	5243.5	
342.16	3929.4	
342.37	4328.7	
342.57	4969.1	
342.78	5378	
342.99	4370.4	
343.19	3183.2	
343.4	5803.9	
343.61	5634	
343.81	3769.6	
344.02	3445.4	
344.23	5819.6	
344.43	6122.7	
344.64	4382	
344.85	4315.1	
345.06	5658.5	
345.26	5977.3	
345.47	4077.5	
345.68	4752.7	
345.88	4799.8	
346.09	5873.6	
346.3	4214	
346.5	3140.2	
346.71	5438	
346.92	5107.6	
347.12	3222.1	
347.33	4042	
347.54	5874.3	
347.74	6283.2	
347.95	4042.7	
348.16	3020.8	
348.36	5239.4	
348.57	4944.5	
348.78	4022.9	
348.98	4216.8	
349.19	5371.8	
349.39	4771.1	
349.6	3203	
349.81	3568.9	
350.01	5616.2	
350.22	5137	
350.43	3885.7	
350.63	4645.5	
350.84	5409.4	
351.05	5207.3	
351.25	3487	
351.46	3165.5	
351.67	5889.3	
351.87	5059.2	
352.08	3796.9	
352.29	4335.5	
352.49	5813.5	
352.7	5970.5	
352.9	3428.3	
353.11	4258.4	
353.32	6483.9	
353.52	5171.8	
353.73	3420.8	
353.94	4366.3	
354.14	5667.4	
354.35	5463.3	
354.55	3476.8	
354.76	3876.1	
354.97	5597.8	
355.17	5390.3	
355.38	3271.3	
355.59	4591.5	
355.79	5033.9	
356	5478.3	
356.2	3861.1	
356.41	3406.5	
356.62	4845.5	
356.82	5319.9	
357.03	4160.1	
357.24	3738.2	
357.44	5120.6	
357.65	5191.6	
357.85	4959.5	
358.06	3880.9	
358.27	4831.8	
358.47	5109	
358.68	3239.2	
358.88	4083.6	
359.09	5612.8	
359.3	5956.9	
359.5	4764.9	
359.71	4247.5	
359.91	6412.9	
360.12	5780.1	
360.33	4046.8	
360.53	4535.6	
360.74	5041.4	
360.94	5139.7	
361.15	4317.1	
361.36	3508.9	
361.56	5793	
361.77	5243.5	
361.97	4655.7	
362.18	3685.7	
362.38	5818.3	
362.59	4899.4	
362.8	3408.5	
363	3279.5	
363.21	4740.4	
363.41	5416.9	
363.62	3929.4	
363.83	5014.8	
364.03	5473.5	
364.24	6371.9	
364.44	4948.6	
364.65	5033.2	
364.85	5190.2	
365.06	5126.7	
365.27	3611.3	
365.47	3665.2	
365.68	6161	
365.88	5180.7	
366.09	3949.2	
366.29	3751.9	
366.5	5431.2	
366.71	5830.6	
366.91	4932.9	
367.12	4123.2	
367.32	6478.4	
367.53	5721.3	
367.73	4144.4	
367.94	5100.1	
368.14	5703.6	
368.35	6524.8	
368.56	4056.3	
368.76	3677.5	
368.97	5771.2	
369.17	7466.9	
369.38	3631	
369.58	3842.7	
369.79	4869.4	
369.99	6083.8	
370.2	4853.7	
370.4	3955.3	
370.61	5492	
370.82	6698.2	
371.02	3892.5	
371.23	3272	
371.43	4717.8	
371.64	6016.9	
371.84	3892.5	
372.05	5022.3	
372.25	7327.6	
372.46	5803.3	
372.66	3855	
372.87	3837.9	
373.07	5830.6	
373.28	7391.1	
373.48	4837.3	
373.69	4597.7	
373.9	5285.1	
374.1	5304.9	
374.31	4776.5	
374.51	4325.3	
374.72	6070.9	
374.92	4962.9	
375.13	4945.8	
375.33	4163.5	
375.54	5688.6	
375.74	5100.1	
375.95	4193.6	
376.15	5390.3	
376.36	5666	
376.56	5487.2	
376.77	4230.4	
376.97	4662.5	
377.18	6683.9	
377.38	5808.7	
377.59	5010	
377.79	3682.9	
378	5490.6	
378.2	5964.4	
378.41	3791.5	
378.61	3692.5	
378.82	5979.4	
379.02	5118.6	
379.23	3947.8	
379.43	5061.9	
379.64	6054.5	
379.84	5680.4	
380.05	3814	
380.25	3693.9	
380.46	5816.2	
380.66	5428.5	
380.87	5067.4	
381.07	5424.4	
381.28	6374	
381.48	5844.2	
381.69	3784	
381.89	3871.3	
382.1	4808.6	
382.3	5954.8	
382.51	5013.4	
382.71	5758.2	
382.91	5819.6	
383.12	6283.9	
383.32	4216.1	
383.53	4418.8	
383.73	5694.7	
383.94	5472.9	
384.14	4252.9	
384.35	3508.2	
384.55	5460.6	
384.76	5847	
384.96	4216.8	
385.17	4553.3	
385.37	5772.5	
385.58	5133.6	
385.78	4577.2	
385.98	3457	
386.19	5353.4	
386.39	5744.6	
386.6	3964.9	
386.8	4250.2	
387.01	5819.6	
387.21	5845.6	
387.42	4625	
387.62	5201.2	
387.83	5151.3	
388.03	5841.5	
388.23	4258.4	
388.44	5098.1	
388.64	4840	
388.85	4958.8	
389.05	4570.4	
389.26	5163.6	
389.46	6786.3	
389.67	6240.8	
389.87	4534.9	
390.07	4588.1	
390.28	5440.1	
390.48	5048.9	
390.69	3852.9	
390.89	4079.6	
391.1	5315.8	
391.3	6211.5	
391.5	5279	
391.71	5866.1	
391.91	5883.1	
392.12	6882.5	
392.32	5318.6	
392.53	4558.8	
392.73	5267.4	
392.93	5509	
393.14	4260.5	
393.34	4979.3	
393.55	5885.9	
393.75	5433.3	
393.95	4299.4	
394.16	4251.6	
394.36	5267.4	
394.57	5888.6	
394.77	3816	
394.98	4187.4	
395.18	5215.5	
395.38	5356.8	
395.59	5104.9	
395.79	3936.2	
396	5301.5	
396.2	5805.3	
396.4	4768.4	
396.61	4712.4	
396.81	6003.3	
397.02	5321.3	
397.22	5002.5	
397.42	5096.7	
397.63	5963	
397.83	5195	
398.04	3938.2	
398.24	4430.4	
398.44	5812.8	
398.65	4839.4	
398.85	3807.9	
399.05	3935.5	
399.26	5188.2	
399.46	6810.2	
399.67	4261.8	
399.87	4046.1	
400.07	5553.4	
400.28	5900.9	
400.48	4092.5	
400.69	5072.1	
400.89	6561.7	
401.09	6488	
401.3	3972.4	
401.5	5105.6	
401.7	6674.3	
401.91	6963.1	
402.11	4310.3	
402.32	4560.8	
402.52	6109.8	
402.72	6067.4	
402.93	4709	
403.13	3618.1	
403.33	6890	
403.54	5580.7	
403.74	4511	
403.94	5387.5	
404.15	5708.4	
404.35	6870.3	
404.56	4349.9	
404.76	6077	
404.96	6137.1	
405.17	5926.1	
405.37	5104.9	
405.57	4677.6	
405.78	6167.1	
405.98	5634.6	
406.18	4233.2	
406.39	5153.4	
406.59	6047	
406.79	5789.6	
407	4156.7	
407.2	4235.2	
407.4	6176.7	
407.61	6363.7	
407.81	4214.7	
408.01	6176.7	
408.22	5082.4	
408.42	7071	
408.62	5163.6	
408.83	4631.1	
409.03	5749.3	
409.23	5546.6	
409.44	4722.6	
409.64	5038.7	
409.84	6640.2	
410.05	6494.8	
410.25	4741.7	
410.45	4659.1	
410.66	5989.6	
410.86	8401.5	
411.06	5013.4	
411.27	5001.1	
411.47	8159.8	
411.67	6154.1	
411.88	5186.8	
412.08	5444.2	
412.28	6755.6	
412.49	7238.2	
412.69	4963.6	
412.89	4928.1	
413.09	7043	
413.3	6939.9	
413.5	5098.8	
413.7	4663.9	
413.91	6285.2	
414.11	7079.1	
414.31	4874.8	
414.52	5264	
414.72	6644.3	
414.92	6683.2	
415.12	4936.3	
415.33	5384.1	
415.53	7010.9	
415.73	7187	
415.94	5779.4	
416.14	5112.4	
416.34	6038.1	
416.55	5866.7	
416.75	6344.6	
416.95	5864	
417.15	7043.6	
417.36	7802.8	
417.56	6482.5	
417.76	5568.4	
417.97	7450.5	
418.17	7081.2	
418.37	5236.7	
418.57	5268.7	
418.78	6836.8	
418.98	6480.5	
419.18	6126.8	
419.38	6068.8	
419.59	6654.5	
419.79	6230.6	
419.99	5282.4	
420.2	5535.7	
420.4	7098.3	
420.6	7303.7	
420.8	5057.1	
421.01	5005.9	
421.21	6911.2	
421.41	7128.3	
421.61	5464	
421.82	5154.1	
422.02	6479.8	
422.22	7395.2	
422.42	5973.9	
422.63	5658.5	
422.83	6578.1	
423.03	7796.6	
423.23	5692	
423.44	4667.3	
423.64	6724.2	
423.84	6495.5	
424.04	5135.6	
424.25	4801.1	
424.45	7599.3	
424.65	7563.1	
424.85	4588.8	
425.06	5202.5	
425.26	7581.6	
425.46	6536.4	
425.66	5638.1	
425.87	5406.6	
426.07	7352.9	
426.27	7223.2	
426.47	5477.6	
426.67	4885.8	
426.88	7722.2	
427.08	7169.9	
427.28	5825.1	
427.48	4839.4	
427.69	6122.7	
427.89	6653.2	
428.09	5727.5	
428.29	4835.9	
428.5	7415.7	
428.7	6970.6	
428.9	4756.7	
429.1	5350.7	
429.3	6856.6	
429.51	7311.9	
429.71	5083.7	
429.91	5872.2	
430.11	7112.6	
430.31	7340.6	
430.52	5399.1	
430.72	5666	
430.92	7779.6	
431.12	7139.9	
431.32	5082.4	
431.53	5511.1	
431.73	6152.8	
431.93	7795.9	
432.13	4990.9	
432.33	4875.5	
432.54	6616.3	
432.74	6957.6	
432.94	4882.4	
433.14	5872.9	
433.34	7085.3	
433.55	6660	
433.75	5789.6	
433.95	7481.9	
434.15	6930.3	
434.35	6611.5	
434.56	5074.2	
434.76	4524	
434.96	6830	
435.16	7152.9	
435.36	4913.8	
435.56	6059.9	
435.77	6559	
435.97	6711.2	
436.17	6711.2	
436.37	5991.7	
436.57	6528.2	
436.78	6451.8	
436.98	5887.9	
437.18	6510.5	
437.38	7223.2	
437.58	6699.6	
437.78	6632.7	
437.99	5377.3	
438.19	7246.4	
438.39	8046.5	
438.59	5343.2	
438.79	4859.1	
438.99	8025.3	
439.2	6840.9	
439.4	5016.2	
439.6	5038	
439.8	7092.1	
440	8229.4	
440.2	5987.6	
440.4	6009.4	
440.61	7430	
440.81	7969.3	
441.01	5131.5	
441.21	6005.3	
441.41	7788.4	
441.61	7523.6	
441.81	6281.8	
442.02	7363.1	
442.22	8391.9	
442.42	7630.7	
442.62	5201.8	
442.82	5300.1	
443.02	7848.5	
443.22	7025.9	
443.43	5750	
443.63	5139	
443.83	6810.2	
444.03	6909.2	
444.23	6463.4	
444.43	6107	
444.63	7187	
444.83	8330.5	
445.04	5372.5	
445.24	6677.1	
445.44	7669	
445.64	7628	
445.84	6100.2	
446.04	6145.3	
446.24	6979.5	
446.44	8032.1	
446.65	5393.7	
446.85	5789.6	
447.05	7293.5	
447.25	7972.7	
447.45	5868.1	
447.65	5263.3	
447.85	7315.3	
448.05	6924.2	
448.25	6333	
448.46	6176.7	
448.66	7310.6	
448.86	7069.6	
449.06	5154.7	
449.26	6325.5	
449.46	7654.6	
449.66	6712.6	
449.86	5782.8	
450.06	5819	
450.26	6901.7	
450.47	7520.1	
450.67	6062.7	
450.87	6453.8	
451.07	7559.1	
451.27	7375.4	
451.47	5391.6	
451.67	5954.1	
451.87	7021.1	
452.07	8202.8	
452.27	5675.6	
452.47	5603.9	
452.67	7369.3	
452.88	7951.6	
453.08	5056.4	
453.28	7123.5	
453.48	8653.4	
453.68	7361.1	
453.88	5566.4	
454.08	5823.1	
454.28	7728.4	
454.48	7389.8	
454.68	6287.3	
454.88	6903.7	
455.08	7877.9	
455.28	7576.1	
455.48	5489.2	
455.68	6036	
455.89	8354.3	
456.09	7999.4	
456.29	5819	
456.49	5873.6	
456.69	8241	
456.89	7470.3	
457.09	6392.4	
457.29	6789.7	
457.49	7906.5	
457.69	8006.2	
457.89	6226.5	
458.09	5627.1	
458.29	7621.2	
458.49	8263.6	
458.69	6600.6	
458.89	6140.5	
459.09	8475.9	
459.29	8649.9	
459.49	6186.9	
459.69	7040.2	
459.9	8047.2	
460.1	7631.4	
460.3	6173.9	
460.5	5866.7	
460.7	8144.1	
460.9	7774.1	
461.1	5508.4	
461.3	6956.3	
461.5	8738.7	
461.7	8320.9	
461.9	5968.5	
462.1	6475	
462.3	7949.5	
462.5	8443.1	
462.7	6050.4	
462.9	6292.7	
463.1	9555.1	
463.3	9106.6	
463.5	6395.8	
463.7	7371.3	
463.9	8135.2	
464.1	8473.8	
464.3	6494.1	
464.5	6799.9	
464.7	8757.1	
464.9	8436.3	
465.1	8131.1	
465.3	7189.1	
465.5	9167.4	
465.7	9116.9	
465.9	7515.4	
466.1	7283.3	
466.3	9026.1	
466.5	8785.8	
466.7	8107.2	
466.9	6947.4	
467.1	8800.8	
467.3	9773.6	
467.5	8164.6	
467.7	6978.8	
467.9	9869.2	
468.1	10836	
468.3	7742	
468.5	8238.3	
468.7	8760.5	
468.9	8710.7	
469.1	7262.8	
469.3	8016.4	
469.5	10638	
469.7	8334.6	
469.9	7730.4	
470.1	7065.5	
470.3	8771.5	
470.5	8884.8	
470.7	8376.2	
470.9	7178.8	
471.1	8653.4	
471.3	9017.2	
471.5	7026.6	
471.69	9060.2	
471.89	8481.3	
472.09	7942.7	
472.29	7788.4	
472.49	8221.9	
472.69	8250.6	
472.89	9153.7	
473.09	6963.1	
473.29	6972.7	
473.49	8429.4	
473.69	8494.3	
473.89	8018.5	
474.09	7258.7	
474.29	9861	
474.49	9521.7	
474.69	8023.3	
474.89	7238.2	
475.09	8595.3	
475.29	8558.5	
475.49	6836.8	
475.69	7049.8	
475.88	10135	
476.08	8849.3	
476.28	6758.3	
476.48	7260	
476.68	9381.7	
476.88	9153.7	
477.08	7058.7	
477.28	7403.4	
477.48	8689.5	
477.68	9349	
477.88	6918.7	
478.08	7295.5	
478.28	9637.7	
478.48	8778.3	
478.67	7249.1	
478.87	6668.9	
479.07	9533.3	
479.27	8939.4	
479.47	7518.1	
479.67	7545.4	
479.87	9347.6	
480.07	9994.8	
480.27	6774.7	
480.47	8413.7	
480.67	8946.2	
480.87	9646.6	
481.06	7006.8	
481.26	7948.8	
481.46	8970.1	
481.66	8822.6	
481.86	7576.1	
482.06	8582.4	
482.26	8693.6	
482.46	9653.4	
482.66	7585	
482.86	7105.1	
483.05	9125.7	
483.25	8441	
483.45	10000	
483.65	7460.8	
483.85	8687.5	
484.05	9019.9	
484.25	7946.1	
484.45	8426.7	
484.65	9853.5	
484.84	9878.7	
485.04	7468.3	
485.24	7481.2	
485.44	10169	
485.64	8426	
485.84	6815	
486.04	8193.2	
486.24	8852.7	
486.44	9254.8	
486.63	6780.1	
486.83	7609.6	
487.03	8770.1	
487.23	9066.4	
487.43	6935.1	
487.63	9228.8	
487.83	9204.3	
488.02	10141	
488.22	7905.8	
488.42	8602.2	
488.62	9932	
488.82	8982.4	
489.02	7573.4	
489.22	7626.6	
489.41	9840.5	
489.61	9511.4	
489.81	7394.5	
490.01	7324.9	
490.21	9654.1	
490.41	10468	
490.61	7311.2	
490.8	7421.2	
491	9263	
491.2	8574.2	
491.4	8162.5	
491.6	7301.7	
491.8	9379	
491.99	9616.6	
492.19	7194.5	
492.39	7602.7	
492.59	9878.7	
492.79	9990.7	
492.99	8321.6	
493.18	7441	
493.38	9932	
493.58	10714	
493.78	8211	
493.98	7881.9	
494.18	9793.4	
494.37	9308.7	
494.57	8555	
494.77	8537.3	
494.97	10086	
495.17	10309	
495.37	7881.3	
495.56	8378.9	
495.76	10475	
495.96	10153	
496.16	9283.4	
496.36	8198.7	
496.55	10278	
496.75	9975.7	
496.95	8619.2	
497.15	8533.9	
497.35	10431	
497.54	10376	
497.74	8349.6	
497.94	10034	
498.14	11130	
498.34	10844	
498.53	8006.9	
498.73	8776.2	
498.93	9822.1	
499.13	10445	
499.33	8635.6	
499.52	9256.1	
499.72	10362	
499.92	10657	
500.12	8438.3	
500.32	8594	
500.51	10688	
500.71	10450	
500.91	9442.5	
501.11	9054.1	
501.31	10654	
501.5	11095	
501.7	9662.3	
501.9	8673.1	
502.1	10413	
502.29	10701	
502.49	9082.7	
502.69	9572.2	
502.89	10595	
503.09	10585	
503.28	8165.9	
503.48	8386.4	
503.68	9872.6	
503.88	9930.6	
504.07	9298.5	
504.27	8726.4	
504.47	10291	
504.67	10369	
504.86	9187.9	
505.06	8770.8	
505.26	9987.9	
505.46	11716	
505.65	8723.7	
505.85	8936.7	
506.05	9890.3	
506.25	10396	
506.44	8065.6	
506.64	9101.9	
506.84	9800.9	
507.04	10750	
507.23	8230.8	
507.43	8831.5	
507.63	11720	
507.83	9987.9	
508.02	8848.6	
508.22	8548.2	
508.42	12023	
508.62	9774.3	
508.81	8813.8	
509.01	9379.7	
509.21	9704.6	
509.4	10006	
509.6	8980.3	
509.8	8314.1	
510	9955.2	
510.19	11481	
510.39	8310	
510.59	8438.3	
510.79	9824.8	
510.98	11174	
511.18	8518.2	
511.38	8555	
511.57	10550	
511.77	10460	
511.97	9216.5	
512.17	8230.1	
512.36	10598	
512.56	10561	
512.76	8354.3	
512.95	8075.8	
513.15	10807	
513.35	9434.3	
513.55	9155.8	
513.74	8357.8	
513.94	10701	
514.14	10029	
514.33	9267.1	
514.53	9095	
514.73	10030	
514.92	10285	
515.12	8594.6	
515.32	8396.7	
515.51	10407	
515.71	10854	
515.91	10161	
516.11	8538.7	
516.3	12071	
516.5	10045	
516.7	9015.2	
516.89	9641.2	
517.09	10099	
517.29	10053	
517.48	9332.6	
517.68	8662.2	
517.88	9906.7	
518.07	10479	
518.27	9263.6	
518.47	8253.3	
518.66	11160	
518.86	9702.6	
519.06	8227.4	
519.25	8664.3	
519.45	10066	
519.65	11546	
519.84	9185.8	
520.04	9942.2	
520.24	11821	
520.43	10638	
520.63	8953.7	
520.83	8638.3	
521.02	9919.7	
521.22	10576	
521.42	9293	
521.61	9835.7	
521.81	10263	
522.01	10466	
522.2	9154.4	
522.4	8899.8	
522.6	10785	
522.79	9739.5	
522.99	9033.6	
523.18	8314.8	
523.38	10674	
523.58	10682	
523.77	10417	
523.97	8435.6	
524.17	12572	
524.36	11826	
524.56	9770.2	
524.76	9443.9	
524.95	10762	
525.15	10472	
525.34	9318.3	
525.54	9336	
525.74	11245	
525.93	10135	
526.13	10494	
526.33	9346.2	
526.52	11599	
526.72	11045	
526.91	10683	
527.11	9932.6	
527.31	11793	
527.5	12093	
527.7	9966.1	
527.89	8903.2	
528.09	10606	
528.29	11188	
528.48	10276	
528.68	9874.6	
528.87	11583	
529.07	11566	
529.27	9812.5	
529.46	9251.4	
529.66	11172	
529.85	11722	
530.05	9090.3	
530.25	9909.4	
530.44	12714	
530.64	11328	
530.83	9709.4	
531.03	10094	
531.23	11737	
531.42	11787	
531.62	10808	
531.81	9960.6	
532.01	11957	
532.21	12343	
532.4	9721	
532.6	10140	
532.79	12882	
532.99	12077	
533.18	10160	
533.38	11236	
533.58	11635	
533.77	12473	
533.97	10181	
534.16	11178	
534.36	12700	
534.55	11787	
534.75	11206	
534.95	10332	
535.14	12427	
535.34	11650	
535.53	9925.8	
535.73	11934	
535.92	13130	
536.12	11975	
536.31	10210	
536.51	11365	
536.71	12274	
536.9	11858	
537.1	10358	
537.29	10522	
537.49	12620	
537.68	11620	
537.88	10855	
538.07	10060	
538.27	11935	
538.46	13036	
538.66	10032	
538.86	10298	
539.05	11992	
539.25	12446	
539.44	10596	
539.64	10177	
539.83	11867	
540.03	12924	
540.22	10094	
540.42	10375	
540.61	12030	
540.81	12327	
541	10696	
541.2	11368	
541.39	11589	
541.59	12051	
541.78	10985	
541.98	10040	
542.18	11239	
542.37	11184	
542.57	10467	
542.76	10966	
542.96	11267	
543.15	11979	
543.35	10473	
543.54	9824.1	
543.74	12231	
543.93	11835	
544.13	10486	
544.32	11467	
544.52	12224	
544.71	11426	
544.91	9470.5	
545.1	10703	
545.3	11366	
545.49	12063	
545.69	9494.4	
545.88	9965.4	
546.08	12904	
546.27	12606	
546.47	10566	
546.66	9772.2	
546.86	12247	
547.05	12880	
547.24	10165	
547.44	9929.9	
547.63	11204	
547.83	12205	
548.02	10343	
548.22	10535	
548.41	11058	
548.61	12360	
548.8	9767.4	
549	9765.4	
549.19	11635	
549.39	11914	
549.58	9528.5	
549.78	10074	
549.97	12035	
550.17	11444	
550.36	10889	
550.55	11914	
550.75	11437	
550.94	12489	
551.14	9751.1	
551.33	10157	
551.53	10913	
551.72	11809	
551.92	10106	
552.11	9781.1	
552.31	11743	
552.5	11753	
552.69	11460	
552.89	9560.6	
553.08	11746	
553.28	11484	
553.47	9792.7	
553.67	10979	
553.86	12400	
554.06	10829	
554.25	9001.5	
554.44	9662.3	
554.64	13048	
554.83	12673	
555.03	9521	
555.22	10019	
555.42	11962	
555.61	11607	
555.8	9788.6	
556	10079	
556.19	10889	
556.39	12080	
556.58	9859.6	
556.78	9784.5	
556.97	11572	
557.16	11232	
557.36	11070	
557.55	9374.9	
557.75	10478	
557.94	12301	
558.13	9536	
558.33	9323	
558.52	12128	
558.72	11064	
558.91	9451.4	
559.1	9691.7	
559.3	10694	
559.49	10484	
559.69	9045.2	
559.88	10065	
560.07	11492	
560.27	11959	
560.46	10157	
560.66	10300	
560.85	11177	
561.04	10400	
561.24	9408.4	
561.43	9523.1	
561.63	10659	
561.82	10959	
562.01	10851	
562.21	9873.9	
562.4	11473	
562.59	12467	
562.79	9741.5	
562.98	9495.7	
563.18	11398	
563.37	12798	
563.56	10170	
563.76	9383.8	
563.95	10940	
564.14	10820	
564.34	9785.9	
564.53	9526.5	
564.73	11364	
564.92	11800	
565.11	9941.5	
565.31	9328.5	
565.5	12093	
565.69	10990	
565.89	9521	
566.08	9870.5	
566.27	11948	
566.47	12335	
566.66	10553	
566.85	9052	
567.05	11517	
567.24	10887	
567.44	9558.6	
567.63	10870	
567.82	11732	
568.02	11576	
568.21	9568.8	
568.4	9923.1	
568.6	11395	
568.79	11370	
568.98	9361.3	
569.18	9577	
569.37	11383	
569.56	13288	
569.76	9881.4	
569.95	10860	
570.14	11738	
570.34	11604	
570.53	9429.5	
570.72	9427.5	
570.91	12273	
571.11	11366	
571.3	10014	
571.49	10847	
571.69	11342	
571.88	11000	
572.07	10471	
572.27	10422	
572.46	10859	
572.65	12074	
572.85	9803.6	
573.04	10174	
573.23	12369	
573.43	11669	
573.62	9619.3	
573.81	10237	
574	11671	
574.2	11492	
574.39	9900.6	
574.58	10197	
574.78	12534	
574.97	11675	
575.16	10427	
575.36	10690	
575.55	12210	
575.74	12320	
575.93	9494.4	
576.13	10610	
576.32	11583	
576.51	12106	
576.71	10135	
576.9	11426	
577.09	12487	
577.28	12031	
577.48	10760	
577.67	9550.4	
577.86	11710	
578.05	12096	
578.25	10332	
578.44	10299	
578.63	11736	
578.83	13023	
579.02	9650.7	
579.21	11160	
579.4	11896	
579.6	11693	
579.79	10420	
579.98	12638	
580.17	12240	
580.37	12480	
580.56	9932.6	
580.75	10678	
580.94	12999	
581.14	12783	
581.33	11163	
581.52	10056	
581.71	12288	
581.91	12891	
582.1	9759.3	
582.29	10365	
582.48	11843	
582.68	11908	
582.87	10972	
583.06	10479	
583.25	12327	
583.45	12085	
583.64	11233	
583.83	11959	
584.02	11660	
584.21	12188	
584.41	11152	
584.6	10413	
584.79	12018	
584.98	12807	
585.18	10056	
585.37	9994.1	
585.56	11495	
585.75	12312	
585.94	10164	
586.14	10879	
586.33	12855	
586.52	11848	
586.71	10587	
586.91	10295	
587.1	11263	
587.29	12345	
587.48	10157	
587.67	10045	
587.87	12232	
588.06	12091	
588.25	11332	
588.44	10673	
588.63	11660	
588.83	12151	
589.02	10002	
589.21	9797.5	
589.4	11281	
589.59	11090	
589.78	8935.3	
589.98	9235.7	
590.17	10731	
590.36	11371	
590.55	8651.3	
590.74	9467.1	
590.94	12578	
591.13	11196	
591.32	9264.3	
591.51	8872.5	
591.7	11555	
591.89	11140	
592.09	8855.4	
592.28	9355.1	
592.47	10317	
592.66	12204	
592.85	8989.2	
593.05	9283.4	
593.24	10918	
593.43	11793	
593.62	9298.5	
593.81	9810.5	
594	11039	
594.19	11143	
594.39	9056.8	
594.58	9055.4	
594.77	11260	
594.96	11895	
595.15	9041.1	
595.34	9682.8	
595.54	11291	
595.73	10479	
595.92	8533.2	
596.11	9603.6	
596.3	11815	
596.49	10504	
596.68	9381.1	
596.88	9770.2	
597.07	11535	
597.26	10269	
597.45	8834.9	
597.64	10013	
597.83	10563	
598.02	11294	
598.22	8893	
598.41	9635	
598.6	10957	
598.79	10507	
598.98	9014.5	
599.17	9953.1	
599.36	11030	
599.55	12184	
599.74	10988	
599.94	10729	
600.13	11627	
600.32	10311	
600.51	8604.9	
600.7	8916.2	
600.89	12131	
601.08	12246	
601.27	8594.6	
601.47	9572.2	
601.66	11448	
601.85	12101	
602.04	9335.3	
602.23	9551	
602.42	10499	
602.61	11161	
602.8	9217.9	
602.99	8961.2	
603.18	10824	
603.37	11152	
603.57	9636.4	
603.76	10092	
603.95	11882	
604.14	11411	
604.33	9069.1	
604.52	9436.4	
604.71	11056	
604.9	10671	
605.09	9877.4	
605.28	9738.8	
605.47	11703	
605.66	11283	
605.86	9606.3	
606.05	9023.4	
606.24	11603	
606.43	10132	
606.62	9398.1	
606.81	10178	
607	11402	
607.19	10707	
607.38	8732.5	
607.57	9052.7	
607.76	10571	
607.95	10062	
608.14	9423.4	
608.33	10023	
608.52	10488	
608.72	11505	
608.91	8669.1	
609.1	8668.4	
609.29	10675	
609.48	10086	
609.67	9576.3	
609.86	8692.9	
610.05	10244	
610.24	10608	
610.43	8485.4	
610.62	8190.5	
610.81	11674	
611	11511	
611.19	8645.8	
611.38	9288.2	
611.57	10830	
611.76	12217	
611.95	8463.6	
612.14	8292.2	
612.33	10677	
612.52	10178	
612.71	8954.4	
612.9	8194.6	
613.09	9798.8	
613.28	12065	
613.47	8651.3	
613.66	9587.9	
613.85	10813	
614.04	10281	
614.24	8818.6	
614.43	7938.6	
614.62	10890	
614.81	10858	
615	9297.8	
615.19	9509.4	
615.38	10096	
615.57	10494	
615.76	9161.2	
615.95	10121	
616.14	10938	
616.33	10613	
616.52	9611.1	
616.71	9920.4	
616.9	10898	
617.09	10776	
617.28	8908.7	
617.47	10178	
617.66	10007	
617.85	10080	
618.04	9900.6	
618.22	9316.9	
618.41	10462	
618.6	11381	
618.79	9355.8	
618.98	8985.8	
619.17	11753	
619.36	10004	
619.55	9189.9	
619.74	9192.6	
619.93	10957	
620.12	10506	
620.31	9866.4	
620.5	9970.2	
620.69	11617	
620.88	12102	
621.07	10688	
621.26	9737.4	
621.45	11234	
621.64	11171	
621.83	9829.6	
622.02	9040.4	
622.21	11262	
622.4	11035	
622.59	10370	
622.78	10101	
622.97	10655	
623.16	11731	
623.35	9830.9	
623.54	8918.9	
623.72	10826	
623.91	11035	
624.1	10053	
624.29	8733.9	
624.48	12158	
624.67	11367	
624.86	9897.2	
625.05	9040.4	
625.24	12153	
625.43	10670	
625.62	11636	
625.81	9257.5	
626	11745	
626.19	10958	
626.38	10075	
626.56	9476.6	
626.75	10781	
626.94	11694	
627.13	10024	
627.32	8695	
627.51	11452	
627.7	12764	
627.89	8837	
628.08	10104	
628.27	10652	
628.46	10832	
628.65	9214.5	
628.83	8824.7	
629.02	11368	
629.21	10682	
629.4	9669.1	
629.59	9818	
629.78	10649	
629.97	11667	
630.16	9802.3	
630.35	9347.6	
630.54	11973	
630.72	11725	
630.91	9312.1	
631.1	9915.6	
631.29	11112	
631.48	11333	
631.67	10045	
631.86	9496.4	
632.05	10895	
632.24	10946	
632.42	9056.1	
632.61	9745.6	
632.8	11021	
632.99	10564	
633.18	9714.2	
633.37	10090	
633.56	11223	
633.75	11077	
633.93	9624.1	
634.12	9461.6	
634.31	12062	
634.5	11595	
634.69	9522.4	
634.88	9785.2	
635.07	11082	
635.25	11541	
635.44	10358	
635.63	10494	
635.82	10809	
636.01	10384	
636.2	10266	
636.39	9814.5	
636.57	11965	
636.76	11742	
636.95	9125.1	
637.14	10521	
637.33	11273	
637.52	12230	
637.7	8943.5	
637.89	9897.2	
638.08	10854	
638.27	12288	
638.46	9979.1	
638.65	10409	
638.83	12194	
639.02	10641	
639.21	9869.8	
639.4	10467	
639.59	11166	
639.78	10712	
639.96	9166	
640.15	9223.4	
640.34	10925	
640.53	11130	
640.72	8856.1	
640.91	9241.1	
641.09	10391	
641.28	11731	
641.47	9481.4	
641.66	10098	
641.85	11085	
642.03	11275	
642.22	9873.3	
642.41	9245.2	
642.6	10468	
642.79	9902.6	
642.97	9022.7	
643.16	9800.2	
643.35	10409	
643.54	10212	
643.73	8895.7	
643.91	9665.7	
644.1	10073	
644.29	10690	
644.48	8862.2	
644.67	8981.7	
644.85	10199	
645.04	10552	
645.23	8466.3	
645.42	8717.5	
645.6	9960.6	
645.79	11101	
645.98	8649.9	
646.17	7757	
646.36	9674.6	
646.54	10240	
646.73	9473.9	
646.92	8250.6	
647.11	9804.3	
647.29	10858	
647.48	8342.7	
647.67	8039.6	
647.86	11188	
648.05	11077	
648.23	8609.7	
648.42	9949.7	
648.61	10435	
648.8	10259	
648.98	8263.6	
649.17	8624.7	
649.36	9847.3	
649.55	9284.1	
649.73	8215.1	
649.92	8920.3	
650.11	9625.5	
650.3	10025	
650.48	8443.1	
650.67	8269	
650.86	10247	
651.05	9167.4	
651.23	8366.6	
651.42	8363.2	
651.61	9673.2	
651.79	9836.4	
651.98	8492.9	
652.17	8086.1	
652.36	10100	
652.54	9209	
652.73	8107.9	
652.92	7914	
653.11	10063	
653.29	10207	
653.48	7349.5	
653.67	8348.9	
653.85	9822.1	
654.04	10935	
654.23	8377.6	
654.42	7972.7	
654.6	9204.9	
654.79	9873.9	
654.98	7426.6	
655.16	8030.1	
655.35	8828.8	
655.54	8812.4	
655.73	7595.9	
655.91	7484	
656.1	9914.2	
656.29	8815.8	
656.47	7040.2	
656.66	8880	
656.85	9059.5	
657.03	9232.9	
657.22	7634.1	
657.41	7778.2	
657.59	9221.3	
657.78	8946.2	
657.97	7284.6	
658.16	8139.3	
658.34	9867.1	
658.53	10239	
658.72	9015.8	
658.9	9426.1	
659.09	9354.4	
659.28	9400.9	
659.46	7794.6	
659.65	7715.4	
659.84	9151	
660.02	9660.3	
660.21	7693.5	
660.4	7688.1	
660.58	10147	
660.77	9513.5	
660.96	8313.4	
661.14	7284.6	
661.33	10503	
661.52	10507	
661.7	7200.7	
661.89	10883	
662.08	9056.8	
662.26	8694.3	
662.45	7529	
662.64	7632.8	
662.82	9712.2	
663.01	8941.4	
663.2	7590.5	
663.38	8412.4	
663.57	9688.9	
663.75	9521	
663.94	7960.5	
664.13	9224.1	
664.31	9017.9	
664.5	9618.6	
664.69	8079.2	
664.87	8787.2	
665.06	8634.2	
665.25	9489.6	
665.43	9022	
665.62	9027.4	
665.8	9839.1	
665.99	9095.7	
666.18	7883.3	
666.36	7980.9	
666.55	9729.9	
666.74	9618.6	
666.92	7466.2	
667.11	9169.4	
667.29	9081.4	
667.48	9606.3	
667.67	8729.1	
667.85	7888.8	
668.04	9039.1	
668.22	9085.5	
668.41	8013	
668.6	8115.4	
668.78	8846.5	
668.97	9082.7	
669.15	8281.3	
669.34	7223.2	
669.53	8867.7	
669.71	9178.3	
669.9	7427.3	
670.08	8064.2	
670.27	8931.9	
670.46	9396.8	
670.64	8227.4	
670.83	8480	
671.01	8763.3	
671.2	9297.8	
671.38	7461.4	
671.57	7356.3	
671.76	10054	
671.94	10631	
672.13	7272.3	
672.31	8355.7	
672.5	9612.5	
672.69	8809	
672.87	7509.2	
673.06	7821.9	
673.24	9432.3	
673.43	8846.5	
673.61	8160.5	
673.8	7727	
673.98	9544.9	
674.17	9731.3	
674.36	8408.3	
674.54	8185.7	
674.73	9349	
674.91	9516.9	
675.1	7988.4	
675.28	7548.1	
675.47	9097.1	
675.65	9708.1	
675.84	7737.9	
676.03	8084.7	
676.21	8881.4	
676.4	8439.7	
676.58	8471.1	
676.77	8443.1	
676.95	10291	
677.14	8709.3	
677.32	7486	
677.51	7228	
677.69	9563.3	
677.88	8507.3	
678.06	7353.6	
678.25	7388.4	
678.44	9184.5	
678.62	8852.7	
678.81	7109.9	
678.99	8100.4	
679.18	9842.5	
679.36	9486.2	
679.55	7651.2	
679.73	8251.3	
679.92	9425.4	
680.1	8811	
680.29	8947.6	
680.47	7814.4	
680.66	8878.6	
680.84	9558.6	
681.03	7046.4	
681.21	8234.9	
681.4	8858.8	
681.58	8705.9	
681.77	7404.1	
681.95	7326.9	
682.14	9701.2	
682.32	10053	
682.51	8368	
682.69	7160.4	
682.88	8738	
683.06	9329.9	
683.25	8045.8	
683.43	8529.1	
683.62	8905.9	
683.8	9372.9	
683.99	8476.5	
684.17	7681.9	
684.36	10049	
684.54	8725	
684.73	6774.7	
684.91	7012.2	
685.1	9018.6	
685.28	8417.2	
685.46	7642.3	
685.65	7699.7	
685.83	9318.9	
686.02	8668.4	
686.2	7057.3	
686.39	7235.5	
686.57	8485.4	
686.76	9899.2	
686.94	7123.5	
687.13	7271	
687.31	9172.9	
687.5	8705.9	
687.68	6759	
687.86	8069	
688.05	10470	
688.23	8184.4	
688.42	8092.2	
688.6	7268.2	
688.79	8647.2	
688.97	8596.7	
689.16	7662.8	
689.34	6680.5	
689.52	9386.5	
689.71	9546.9	
689.89	7947.5	
690.08	7335.8	
690.26	8931.2	
690.45	8720.3	
690.63	8074.5	
690.81	7388.4	
691	8581.7	
691.18	8623.3	
691.37	7539.3	
691.55	9693	
691.74	8443.8	
691.92	10480	
692.1	7589.8	
692.29	7002.7	
692.47	8776.2	
692.66	8144.1	
692.84	7240.3	
693.02	7886	
693.21	8183	
693.39	8725	
693.58	7980.9	
693.76	7510.6	
693.94	9969.5	
694.13	9841.9	
694.31	7483.3	
694.5	8494.3	
694.68	8715.5	
694.86	9038.4	
695.05	7783	
695.23	7871.7	
695.42	9353.8	
695.6	11628	
695.78	8410.3	
695.97	7469.6	
696.15	9445.2	
696.34	8773.5	
696.52	7159	
696.7	8026.7	
696.89	9122.3	
697.07	8548.9	
697.25	7973.4	
697.44	9576.3	
697.62	9013.1	
697.81	9486.2	
697.99	7677.2	
698.17	8205.5	
698.36	8391.9	
698.54	9098.4	
698.72	7988.4	
698.91	7013.6	
699.09	8699.1	
699.28	8486.8	
699.46	7552.9	
699.64	7472.4	
699.83	8459.5	
700.01	9661.6	
700.19	8333.2	
700.38	6750.1	
700.56	9800.2	
700.74	8663.6	
700.93	7101	
701.11	7954.3	
701.29	9208.4	
701.48	10337	
701.66	7374.1	
701.84	7445.7	
702.03	8772.1	
702.21	9489.6	
702.39	6966.5	
702.58	7476.5	
702.76	9100.5	
702.94	9267.1	
703.13	7017	
703.31	9487.6	
703.49	8416.5	
703.68	9897.8	
703.86	7187.7	
704.04	8172.8	
704.23	8961.9	
704.41	9417.2	
704.59	7415.7	
704.78	8463.6	
704.96	10049	
705.14	9404.3	
705.33	7157.7	
705.51	7974.1	
705.69	8811	
705.87	9622	
706.06	8260.8	
706.24	7065.5	
706.42	9170.8	
706.61	9428.2	
706.79	8223.3	
706.97	7132.4	
707.16	8677.2	
707.34	9169.4	
707.52	8209.6	
707.7	7324.2	
707.89	8695	
708.07	8376.2	
708.25	8211.7	
708.44	8402.1	
708.62	8667	
708.8	9818.6	
708.98	8464.3	
709.17	7389.1	
709.35	9054.1	
709.53	8971.5	
709.72	7129	
709.9	7248.4	
710.08	9225.4	
710.26	9269.1	
710.45	8633.6	
710.63	7376.1	
710.81	8957.8	
710.99	8890.2	
711.18	7985.7	
711.36	7357	
711.54	8660.2	
711.72	9387.9	
711.91	7428.7	
712.09	6878.4	
712.27	8692.9	
712.45	9790.7	
712.64	7610.9	
712.82	6566.5	
713	8112.7	
713.18	8183.7	
713.37	6554.9	
713.55	7747.5	
713.73	8938.7	
713.91	7401.4	
714.1	6802.7	
714.28	6182.1	
714.46	8327	
714.64	7591.8	
714.83	5544.5	
715.01	6385.6	
715.19	7628	
715.37	6892.1	
715.55	5974.6	
715.74	6331.6	
715.92	8382.3	
716.1	6496.8	
716.28	7385.7	
716.47	6477.7	
716.65	7138.5	
716.83	7293.5	
717.01	6304.3	
717.19	6434	
717.38	9473.2	
717.56	6972	
717.74	6626.5	
717.92	5773.2	
718.1	8316.8	
718.29	7515.4	
718.47	5517.9	
718.65	6191.7	
718.83	8291.5	
719.01	8172.1	
719.2	5418.9	
719.38	6521.4	
719.56	7877.2	
719.74	9352.4	
719.92	5945.3	
720.11	6956.3	
720.29	7782.3	
720.47	6931	
720.65	5502.2	
720.83	6362.4	
721.02	7225.2	
721.2	6935.1	
721.38	6406	
721.56	5610.8	
721.74	6397.2	
721.92	6685.3	
722.11	6898.9	
722.29	6556.9	
722.47	7904.5	
722.65	7054.6	
722.83	5662	
723.01	6485.9	
723.2	7119.4	
723.38	7449.8	
723.56	5107	
723.74	6197.2	
723.92	6671.6	
724.1	7776.8	
724.29	5495.4	
724.47	6782.9	
724.65	6707.8	
724.83	6701.6	
725.01	5393.7	
725.19	6321.4	
725.37	6750.1	
725.56	6744	
725.74	5231.2	
725.92	5470.8	
726.1	6627.2	
726.28	6872.3	
726.46	6015.6	
726.64	5726.1	
726.83	6956.9	
727.01	7148.1	
727.19	5315.2	
727.37	6044.2	
727.55	6984.3	
727.73	7561.8	
727.91	5190.9	
728.09	5073.5	
728.28	7584.3	
728.46	8251.3	
728.64	6316.6	
728.82	6275	
729	8749.6	
729.18	8030.1	
729.36	5483.1	
729.54	7722.2	
729.72	8945.5	
729.91	7362.4	
730.09	7381.6	
730.27	6177.4	
730.45	7238.9	
730.63	7862.8	
730.81	6798.6	
730.99	5822.4	
731.17	8411	
731.35	6992.4	
731.53	6262.7	
731.71	5943.9	
731.9	8120.2	
732.08	8305.9	
732.26	6285.2	
732.44	5899.5	
732.62	8297	
732.8	7779.6	
732.98	6587	
733.16	5651	
733.34	7809.6	
733.52	6546	
733.7	6169.2	
733.88	6558.3	
734.07	7645.8	
734.25	7390.4	
734.43	5616.9	
734.61	7227.3	
734.79	8858.8	
734.97	7302.4	
735.15	5797.8	
735.33	6066.8	
735.51	7593.2	
735.69	7317.4	
735.87	7684.7	
736.05	6363.7	
736.23	7475.1	
736.41	7217.7	
736.59	6172.6	
736.77	6221	
736.95	7927.7	
737.13	7332.4	
737.32	5778.7	
737.5	6034.7	
737.68	8492.9	
737.86	7161.7	
738.04	5632.6	
738.22	7511.9	
738.4	6984.3	
738.58	7323.5	
738.76	6304.3	
738.94	5184.8	
739.12	7186.3	
739.3	7040.9	
739.48	6868.9	
739.66	6607.4	
739.84	7478.5	
740.02	7416.4	
740.2	5356.1	
740.38	5686.5	
740.56	7802.1	
740.74	6679.1	
740.92	6374.6	
741.1	6244.3	
741.28	7301	
741.46	7113.3	
741.64	5821	
741.82	6398.5	
742	7249.8	
742.18	7176.1	
742.36	6016.9	
742.54	5647.6	
742.72	7780.9	
742.9	6575.3	
743.08	6453.8	
743.26	5215.5	
743.44	8033.5	
743.62	7863.5	
743.8	6640.2	
743.98	5606.7	
744.16	7575.4	
744.34	7240.3	
744.52	6449.1	
744.7	6419.7	
744.88	7690.8	
745.06	7169.9	
745.24	6452.5	
745.42	6594.5	
745.6	7733.1	
745.78	7559.1	
745.96	5362.9	
746.14	5686.5	
746.32	8499.8	
746.5	7735.2	
746.68	6260.6	
746.86	5607.3	
747.03	8070.4	
747.21	6541.2	
747.39	6205.3	
747.57	5739.1	
747.75	7367.2	
747.93	7737.2	
748.11	5697.4	
748.29	5601.9	
748.47	8934.6	
748.65	7119.4	
748.83	6462	
749.01	6126.8	
749.19	7600	
749.37	6770.6	
749.55	6012.2	
749.73	5995.8	
749.91	7223.9	
750.09	6978.1	
750.26	6138.4	
750.44	5506.3	
750.62	7381.6	
750.8	7215	
750.98	5401.2	
751.16	5737.7	
751.34	7352.2	
751.52	6689.3	
751.7	6560.3	
751.88	5390.3	
752.06	7784.3	
752.24	7653.9	
752.42	5302.2	
752.59	5722	
752.77	7225.2	
752.95	8539.3	
753.13	6451.1	
753.31	5842.9	
753.49	6914.6	
753.67	7343.3	
753.85	6125.5	
754.03	5608	
754.21	7592.5	
754.38	7955.7	
754.56	5756.8	
754.74	4801.8	
754.92	6760.3	
755.1	7436.2	
755.28	4606.6	
755.46	4484.4	
755.64	7787.7	
755.82	7866.9	
755.99	4595.6	
756.17	4588.8	
756.35	5186.1	
756.53	6812.2	
756.71	3516.4	
756.89	4430.4	
757.07	6400.6	
757.25	5581.4	
757.42	5218.2	
757.6	6164.4	
757.78	6767.9	
757.96	5666.7	
758.14	4929.5	
758.32	4430.4	
758.5	5168.4	
758.67	6041.5	
758.85	4711.7	
759.03	4811.4	
759.21	6247	
759.39	5698.8	
759.57	4252.3	
759.75	5489.2	
759.92	6910.5	
760.1	6149.4	
760.28	5881.8	
760.46	6253.1	
760.64	6064	
760.82	5861.3	
760.99	5882.4	
761.17	5036.6	
761.35	6964.5	
761.53	5936.4	
761.71	5213.4	
761.89	5898.8	
762.06	6905.8	
762.24	6427.9	
762.42	5387.5	
762.6	5121.3	
762.78	6491.4	
762.96	7258	
763.13	5752.1	
763.31	5505.6	
763.49	7352.9	
763.67	6501.6	
763.85	6322.1	
764.02	6974.7	
764.2	7643.7	
764.38	6833.4	
764.56	5378.6	
764.74	6264.7	
764.91	7750.9	
765.09	6583.5	
765.27	5085.1	
765.45	4866.7	
765.63	7826.7	
765.8	7677.8	
765.98	4664.6	
766.16	5031.2	
766.34	6186.9	
766.52	5966.4	
766.69	5864.7	
766.87	4750.6	
767.05	6627.9	
767.23	7388.4	
767.41	5116.5	
767.58	5356.8	
767.76	7133.1	
767.94	7157	
768.12	5083.7	
768.29	6044.9	
768.47	6602.7	
768.65	7433.4	
768.83	4721.3	
769	5889.3	
769.18	6189.6	
769.36	6890	
769.54	5868.1	
769.72	4800.4	
769.89	7137.9	
770.07	7231.4	
770.25	5104.9	
770.43	6320	
770.6	7950.9	
770.78	8278.6	
770.96	5231.2	
771.14	5139	
771.31	7006.1	
771.49	6300.9	
771.67	4327.4	
771.85	4680.3	
772.02	5569.1	
772.2	6382.2	
772.38	5359.5	
772.55	4905.6	
772.73	6592.4	
772.91	6332.3	
773.09	5292.6	
773.26	5311.1	
773.44	6559.6	
773.62	6181.5	
773.8	4678.9	
773.97	4476.9	
774.15	6520.7	
774.33	6145.3	
774.5	4593.6	
774.68	4991.6	
774.86	6720.8	
775.04	6090	
775.21	4717.2	
775.39	4610	
775.57	6428.6	
775.74	6890	
775.92	4448.9	
776.1	4387.4	
776.27	6379.4	
776.45	7582.9	
776.63	4566.3	
776.81	4145.8	
776.98	6013.5	
777.16	7133.1	
777.34	4749.2	
777.51	4656.4	
777.69	6012.8	
777.87	5771.9	
778.04	4717.8	
778.22	5381.4	
778.4	5789.6	
778.57	6360.3	
778.75	3977.8	
778.93	4237.2	
779.1	5528.2	
779.28	5424.4	
779.46	3979.9	
779.64	4490.5	
779.81	6535.1	
779.99	7381.6	
780.17	5265.3	
780.34	5410.7	
780.52	5995.1	
780.69	6115.9	
780.87	4752.7	
781.05	4344.4	
781.22	6054.5	
781.4	6123.4	
781.58	4419.5	
781.75	3662.5	
781.93	6041.5	
782.11	5367.7	
782.28	5279.7	
782.46	4361.5	
782.64	5236	
782.81	6320.7	
782.99	4487.1	
783.17	4446.8	
783.34	6042.9	
783.52	5280.3	
783.69	4649.6	
783.87	5446.2	
784.05	5404.6	
784.22	5376.6	
784.4	5373.9	
784.58	4717.2	
784.75	6285.2	
784.93	5370.5	
785.1	4391.5	
785.28	4985.4	
785.46	5971.2	
785.63	5270.8	
785.81	4306.9	
785.99	4138.9	
786.16	5491.3	
786.34	5849	
786.51	4179.2	
786.69	4628.4	
786.87	5109	
787.04	5577.3	
787.22	3995.6	
787.39	4973.2	
787.57	5255.8	
787.75	6374	
787.92	5130.2	
788.1	5106.3	
788.27	5295.4	
788.45	5014.8	
788.63	4848.9	
788.8	3523.9	
788.98	5781.4	
789.15	4986.8	
789.33	3648.8	
789.5	4317.8	
789.68	6173.9	
789.86	6324.1	
790.03	4773.8	
790.21	4098.7	
790.38	6144.6	
790.56	5388.9	
790.73	3960.1	
790.91	4019.5	
791.09	5287.2	
791.26	5976.7	
791.44	4184.7	
791.61	3660.4	
791.79	5216.2	
791.96	5282.4	
792.14	3819.5	
792.32	3323.9	
792.49	5210	
792.67	5334.3	
792.84	3891.8	
793.02	3651.5	
793.19	5693.4	
793.37	6464.8	
793.54	3357.3	
793.72	3670.6	
793.89	6577.4	
794.07	5206.6	
794.25	4349.9	
794.42	3426.3	
794.6	6270.9	
794.77	5949.3	
794.95	4567	
795.12	4019.5	
795.3	5200.5	
795.47	5853.8	
795.65	4420.9	
795.82	4252.3	
796	4978.6	
796.17	6905.1	
796.35	4083.6	
796.52	4801.1	
796.7	5771.2	
796.87	5853.1	
797.05	5018.9	
797.22	4850.3	
797.4	5756.8	
797.57	6805.4	
797.75	4207.9	
797.92	3981.9	
798.1	6053.1	
798.27	5135.6	
798.45	3394.2	
798.62	3719.8	
798.8	5470.8	
798.97	5991	
799.15	4438.6	
799.32	4219.5	
799.5	4739	
799.67	5487.9	
799.85	4531.5	
800.02	3358.7	
800.2	5159.5	
800.37	5433.9	
800.55	4702.8	
800.72	3990.1	
800.9	5922.7	
801.07	6371.9	
801.25	5287.9	
801.42	4402.5	
801.6	5987.6	
801.77	5665.4	
801.95	4031.8	
802.12	3861.8	
802.29	5653.1	
802.47	5611.4	
802.64	4346.5	
802.82	3278.1	
802.99	5084.4	
803.17	6128.2	
803.34	4166.9	
803.52	3757.3	
803.69	6751.5	
803.87	4872.1	
804.04	4142.4	
804.21	4203.8	
804.39	6126.2	
804.56	5289.2	
804.74	3511.6	
804.91	4394.3	
805.09	5042.8	
805.26	5208.7	
805.44	3629.7	
805.61	3971.7	
805.78	5739.8	
805.96	5789.6	
806.13	4332.8	
806.31	4668.7	
806.48	4613.4	
806.66	5274.2	
806.83	4297.3	
807	4154.6	
807.18	5075.5	
807.35	5455.8	
807.53	4195.6	
807.7	3375.1	
807.87	6317.3	
808.05	5098.1	
808.22	4586.8	
808.4	3319.1	
808.57	5128.1	
808.74	4771.8	
808.92	3786.7	
809.09	4885.1	
809.27	5004.6	
809.44	5646.2	
809.61	3371.6	
809.79	3762.8	
809.96	6229.9	
810.14	5842.2	
810.31	3289	
810.48	4021.5	
810.66	5205.9	
810.83	5938.4	
811.01	3812	
811.18	4272.7	
811.35	5844.9	
811.53	4527.4	
811.7	4606.6	
811.87	4316.4	
812.05	5139	
812.22	5070.1	
812.39	3709.6	
812.57	3546.4	
812.74	5130.8	
812.92	6791.7	
813.09	4024.3	
813.26	4404.5	
813.44	6586.3	
813.61	5039.4	
813.78	3334.1	
813.96	4448.2	
814.13	5128.8	
814.3	4807.3	
814.48	4793.6	
814.65	3991.5	
814.82	6420.4	
815	4921.3	
815.17	4134.2	
815.34	5063.9	
815.52	5008.6	
815.69	5063.9	
815.87	4119.1	
816.04	3536.8	
816.21	5127.4	
816.38	4536.9	
816.56	3943	
816.73	3702	
816.9	6441.5	
817.08	5918.6	
817.25	3687	
817.42	4719.9	
817.6	4740.4	
817.77	5081.7	
817.94	4173.8	
818.12	3642.7	
818.29	4848.2	
818.46	7550.9	
818.64	3831.7	
818.81	3594.9	
818.98	4790.2	
819.16	6936.5	
819.33	4487.8	
819.5	4095.9	
819.67	5516.5	
819.85	6130.9	
820.02	4028.4	
820.19	4249.5	
820.37	5345.2	
820.54	4937.7	
820.71	4201.7	
820.88	5126.1	
821.06	5302.9	
821.23	4909	
821.4	4213.4	
821.58	4165.6	
821.75	5925.5	
821.92	5292	
822.09	3387.3	
822.27	3494.5	
822.44	5118.6	
822.61	5051	
822.79	3403	
822.96	6433.4	
823.13	5637.4	
823.3	4804.5	
823.48	3938.2	
823.65	3553.9	
823.82	5787.6	
823.99	4693.3	
824.17	4896	
824.34	3571	
824.51	6739.2	
824.68	5151.3	
824.86	3751.9	
825.03	4197.7	
825.2	5127.4	
825.37	6161	
825.55	3735.5	
825.72	4130.8	
825.89	6784.9	
826.06	6337.1	
826.24	4020.2	
826.41	4044.7	
826.58	6238.8	
826.75	5426.4	
826.92	3194.8	
827.1	3546.4	
827.27	8505.2	
827.44	6726.2	
827.61	3803.8	
827.79	4616.8	
827.96	4872.8	
828.13	5246.2	
828.3	3986	
828.47	3367.5	
828.65	5350.7	
828.82	5272.8	
828.99	5173.9	
829.16	4525.3	
829.34	5687.2	
829.51	5547.3	
829.68	4123.2	
829.85	4304.8	
830.02	6046.3	
830.2	5815.5	
830.37	3183.2	
830.54	4958.1	
830.71	6556.9	
830.88	5079.6	
831.05	3265.1	
831.23	3786.7	
831.4	6303	
831.57	7034.8	
831.74	3838.6	
831.91	3375.7	
832.09	5350.7	
832.26	5760.3	
832.43	3962.1	
832.6	4453	
832.77	5332.2	
832.94	6112.5	
833.12	3110.9	
833.29	3962.8	
833.46	4991.6	
833.63	7245	
833.8	4336.9	
833.97	3943	
834.15	5743.2	
834.32	5567.7	
834.49	4152.6	
834.66	4202.4	
834.83	5943.9	
835	4862.6	
835.17	3766.9	
835.35	3850.2	
835.52	5677.7	
835.69	5526.8	
835.86	3962.1	
836.03	3297.9	
836.2	5663.3	
836.37	5297.4	
836.55	3889.1	
836.72	3720.5	
836.89	5287.9	
837.06	5746.6	
837.23	3988.8	
837.4	4431.1	
837.57	6592.4	
837.75	7226.6	
837.92	3687.7	
838.09	3821.5	
838.26	5285.1	
838.43	5997.1	
838.6	4110.3	
838.77	3681.6	
838.94	6844.3	
839.11	6599.9	
839.29	3977.2	
839.46	3125.9	
839.63	5695.4	
839.8	5469.4	
839.97	3858.4	
840.14	3837.2	
840.31	5494	
840.48	5699.5	
840.65	3211.2	
840.82	3779.9	
841	5708.4	
841.17	5661.3	
841.34	3568.2	
841.51	3529.3	
841.68	5599.1	
841.85	5390.3	
842.02	3699.3	
842.19	3016.7	
842.36	5408.7	
842.53	5481	
842.7	3511.6	
842.87	4360.1	
843.05	7181.5	
843.22	5362.9	
843.39	3353.2	
843.56	3757.3	
843.73	5123.3	
843.9	5770.5	
844.07	5706.3	
844.24	4786.1	
844.41	8371.4	
844.58	4923.3	
844.75	3399.6	
844.92	3710.9	
845.09	5709.1	
845.26	5702.2	
845.43	3545	
845.6	3736.9	
845.77	5712.5	
845.94	5448.3	
846.12	3917.8	
846.29	4134.2	
846.46	5929.6	
846.63	5710.4	
846.8	3603.1	
846.97	4166.3	
847.14	6169.8	
847.31	5693.4	
847.48	3991.5	
847.65	4401.8	
847.82	5955.5	
847.99	5922	
848.16	4677.6	
848.33	4349.9	
848.5	5266	
848.67	6191.7	
848.84	3532.1	
849.01	3658.4	
849.18	5180.7	
849.35	4789.5	
849.52	4381.3	
849.69	3435.1	
849.86	5929.6	
850.03	6132.3	
850.2	3585.3	
850.37	4299.4	
850.54	6065.4	
850.71	5396.4	
850.88	4200.4	
851.05	3464.5	
851.22	5622.4	
851.39	6305.7	
851.56	3332.7	
851.73	4059.1	
851.9	4965.6	
852.07	5920	
852.24	3915.7	
852.41	3495.2	
852.58	5528.2	
852.75	5123.3	
852.92	4000.4	
853.09	3450.1	
853.26	5345.2	
853.43	6130.9	
853.6	3556.6	
853.77	3055.6	
853.94	6234.7	
854.11	5653.8	
854.28	5249.6	
854.44	3848.1	
854.61	6645.7	
854.78	5803.9	
854.95	3500	
855.12	4434.5	
855.29	4605.9	
855.46	6337.8	
855.63	3454.9	
855.8	4797.7	
855.97	5254.4	
856.14	6006	
856.31	4980	
856.48	3769.6	
856.65	5248.9	
856.82	4943.8	
856.99	3435.1	
857.16	3772.4	
857.33	6923.5	
857.49	5315.8	
857.66	3760.1	
857.83	4091.2	
858	5347.2	
858.17	5525.4	
858.34	3316.3	
858.51	3544.4	
858.68	6368.5	
858.85	6417	
859.02	4088.4	
859.19	4309.6	
859.36	5019.6	
859.52	5074.9	
859.69	3489.1	
859.86	4164.9	
860.03	5115.8	
860.2	6237.4	
860.37	3198.2	
860.54	3546.4	
860.71	5873.6	
860.88	6356.2	
861.05	3893.2	
861.21	4355.3	
861.38	6364.4	
861.55	4850.3	
861.72	3235.1	
861.89	3925.3	
862.06	6026.5	
862.23	6408.8	
862.4	3411.2	
862.56	3670	
862.73	5802.6	
862.9	5483.8	
863.07	4063.2	
863.24	3226.2	
863.41	4921.3	
863.58	5066.7	
863.75	3618.1	
863.91	4060.4	
864.08	6341.9	
864.25	5847.6	
864.42	4383.3	
864.59	4934.9	
864.76	6632.7	
864.93	4992.3	
865.09	3435.8	
865.26	3745.7	
865.43	6222.4	
865.6	6598.6	
865.77	3066.5	
865.94	3473.4	
866.1	6201.9	
866.27	6018.3	
866.44	5296.7	
866.61	3337.5	
866.78	5394.3	
866.95	5810.8	
867.11	3382.6	
867.28	3092.4	
867.45	5965.7	
867.62	5092.6	
867.79	4019.5	
867.96	3507.5	
868.12	4966.3	
868.29	6020.3	
868.46	3499.3	
868.63	4708.3	
868.8	6137.8	
868.97	5869.5	
869.13	3667.9	
869.3	3642	
869.47	5803.3	
869.64	6032	
869.81	3548.4	
869.97	3576.4	
870.14	5725.4	
870.31	6386.9	
870.48	3429.7	
870.65	4466.6	
870.81	5312.4	
870.98	5278.3	
871.15	4045.4	
871.32	3636.5	
871.48	5783.5	
871.65	6404.7	
871.82	3570.3	
871.99	3846.1	
872.16	6865.5	
872.32	6170.5	
872.49	3558.7	
872.66	3549.8	
872.83	5969.8	
872.99	5210.7	
873.16	4022.2	
873.33	3538.9	
873.5	5550	
873.67	5592.3	
873.83	3663.1	
874	4690.5	
874.17	5691.3	
874.34	6787.7	
874.5	4554.7	
874.67	4364.9	
874.84	6334.4	
875.01	4999.1	
875.17	4930.1	
875.34	3458.3	
875.51	5639.4	
875.68	6725.5	
875.84	4257.7	
876.01	5159.5	
876.18	5863.3	
876.34	5831.2	
876.51	3553.9	
876.68	3429	
876.85	5353.4	
877.01	6213.5	
877.18	4927.4	
877.35	3531.4	
877.52	5446.2	
877.68	4900.8	
877.85	3482.9	
878.02	3429	
878.18	5525.4	
878.35	5166.3	
878.52	2829.6	
878.69	3908.2	
878.85	5933.6	
879.02	5837.4	
879.19	4969.1	
879.35	3784.6	
879.52	5799.8	
879.69	6016.9	
879.86	2990	
880.02	3910.9	
880.19	5460.6	
880.36	6613.6	
880.52	4060.4	
880.69	4215.4	
880.86	5967.8	
881.02	6047.7	
881.19	3867.2	
881.36	3799.7	
881.52	5877	
881.69	5203.2	
881.86	3782.6	
882.02	3747.8	
882.19	6126.2	
882.36	7147.4	
882.52	3612.6	
882.69	4952	
882.86	5628.5	
883.02	5615.5	
883.19	4326	
883.36	4057.7	
883.52	5985.5	
883.69	6798.6	
883.86	3509.5	
884.02	3175.7	
884.19	5993	
884.36	5472.2	
884.52	4021.5	
884.69	3716.4	
884.86	5258.5	
885.02	6526.2	
885.19	3929.4	
885.36	4127.3	
885.52	5538.4	
885.69	5668.8	
885.86	5065.3	
886.02	4508.9	
886.19	5905.7	
886.35	5414.8	
886.52	3893.9	
886.69	4892.6	
886.85	5017.5	
887.02	6298.9	
887.19	6298.9	
887.35	6298.9	
887.52	6298.9	
887.68	6298.9	
887.85	6298.9	
888.02	6298.9	
888.18	6298.9	
888.35	6298.9	
888.51	6298.9	
888.68	6298.9	
888.85	6298.9	
889.01	6298.9	
889.18	6298.9	
889.35	6298.9	
889.51	6298.9	
889.68	6298.9	
889.84	6298.9	
890.01	6298.9	
890.17	6298.9	
890.34	6298.9	
890.51	6298.9	
890.67	6298.9	
890.84	6298.9	
891	6298.9	
891.17	6298.9	
891.34	6298.9	
891.5	6298.9	
891.67	6298.9	
891.83	6298.9	
892	6298.9	
892.16	6298.9	
892.33	6298.9	
892.5	6298.9	
892.66	6298.9	
892.83	6298.9	
892.99	6298.9	
893.16	6298.9	
893.32	6298.9	
893.49	6298.9	
893.65	6298.9	
893.82	6298.9	
893.99	6298.9	
894.15	6298.9	
894.32	6298.9	
894.48	6298.9	
894.65	6298.9	
894.81	6298.9	
894.98	6298.9	
895.14	6298.9	
895.31	6298.9	
895.47	6298.9	
895.64	6298.9	
895.81	6298.9	
895.97	6298.9	
896.14	6298.9	
896.3	6298.9	
896.47	6298.9	
896.63	6298.9	
896.8	6298.9	
896.96	6298.9	
897.13	6298.9	
897.29	6298.9	
897.46	6298.9	
897.62	6298.9	
897.79	6298.9	
897.95	6298.9	
898.12	6298.9	
898.28	6298.9	
898.45	6298.9	
898.61	6298.9	
898.78	6298.9	
898.94	6298.9	
899.11	6298.9	
899.27	6298.9	
899.44	6298.9	
899.6	6298.9	
899.77	6298.9	
899.93	6298.9	
900.1	6298.9	
900.26	6298.9	
900.43	6298.9	
900.59	6298.9	
900.76	6298.9	
900.92	6298.9	
901.09	6298.9	
901.25	6298.9	
901.42	6298.9	
901.58	6298.9	
901.75	6298.9	
901.91	6298.9	
902.07	6298.9	
902.24	6298.9	
902.4	6298.9	
902.57	6298.9	
902.73	6298.9	
902.9	6298.9	
903.06	6298.9	
903.23	6298.9	
903.39	6298.9	
903.56	6298.9	
903.72	6298.9	
903.88	6298.9	
904.05	6298.9	
904.21	6298.9	
904.38	6298.9	
904.54	6298.9	
904.71	6298.9	
904.87	6298.9	
905.03	6298.9	
905.2	6298.9	
905.36	6298.9	
905.53	6298.9	
905.69	6298.9	
905.86	6298.9	
906.02	6298.9	
906.18	6298.9	
906.35	6298.9	
906.51	6298.9	
906.68	6298.9	
906.84	6298.9	
907.01	6298.9	
907.17	6298.9	
907.33	6298.9	
907.5	6298.9	
907.66	6298.9	
907.83	6298.9	
907.99	6298.9	
908.15	6298.9	
908.32	6298.9	
908.48	6298.9	
908.65	6298.9	
908.81	6298.9	
908.97	6298.9	
909.14	6298.9	
909.3	6298.9	
909.47	6298.9	
909.63	6298.9	
909.79	6298.9	
909.96	6298.9	
910.12	6298.9	
910.28	6298.9	
910.45	6298.9	
910.61	6298.9	
910.78	6298.9	
910.94	6298.9	
911.1	6298.9	
911.27	6298.9	
911.43	6298.9	
911.59	6298.9	
911.76	6298.9	
911.92	6298.9	
912.08	6298.9	
912.25	6298.9	
912.41	6298.9	
912.57	6298.9	
912.74	6298.9	
912.9	6298.9	
913.07	6298.9	
913.23	6298.9	
913.39	6298.9	
913.56	6298.9	
913.72	6298.9	
913.88	6298.9	
914.05	6298.9	
914.21	6298.9	
914.37	6298.9	
914.54	6298.9	
914.7	6298.9	
914.86	6298.9	
915.03	6298.9	
915.19	6298.9	
