Wavelength	Intensities	
nm	a.u.	
179.22	1671.5	
179.44	1673.9	
179.65	1669.1	
179.86	1678.7	
180.08	1666.4	
180.29	3887	
180.51	2913.6	
180.72	4937.7	
180.94	5468.8	
181.15	2720.4	
181.37	2654.2	
181.58	4711	
181.79	4866.7	
182.01	2734.7	
182.22	2960	
182.44	4971.8	
182.65	4269.3	
182.87	3571.7	
183.08	3134.8	
183.29	5154.1	
183.51	4318.5	
183.72	2847.4	
183.94	3996.3	
184.15	4648.2	
184.37	4565.6	
184.58	2622.1	
184.79	3373	
185.01	4429.8	
185.22	4967	
185.44	3546.4	
185.65	3132	
185.86	4655	
186.08	4257.7	
186.29	2566.1	
186.51	2703.3	
186.72	4405.9	
186.94	5013.4	
187.15	3078.8	
187.36	3163.4	
187.58	6208.8	
187.79	4747.9	
188.01	3248.8	
188.22	4848.9	
188.43	5503.6	
188.65	4935.6	
188.86	2742.2	
189.08	3167.5	
189.29	4508.9	
189.5	4451.6	
189.72	2961.4	
189.93	3054.2	
190.15	5092.6	
190.36	5853.8	
190.57	3197.6	
190.79	3103.4	
191	5109.7	
191.22	5050.3	
191.43	3263.1	
191.64	2739.5	
191.86	5256.5	
192.07	5082.4	
192.29	2866.5	
192.5	2912.2	
192.71	5057.8	
192.93	4473.4	
193.14	2936.1	
193.35	2975.7	
193.57	4432.5	
193.78	5023	
194	2450.7	
194.21	2912.2	
194.42	4383.3	
194.64	4657.8	
194.85	3117.7	
195.07	3670.6	
195.28	4585.4	
195.49	4145.8	
195.71	3821.5	
195.92	2777	
196.13	4848.2	
196.35	4842.1	
196.56	3941	
196.78	3132	
196.99	5825.1	
197.2	5427.8	
197.42	3521.8	
197.63	3203.7	
197.84	4218.8	
198.06	4838.7	
198.27	2900.6	
198.48	3750.5	
198.7	4545.1	
198.91	4696	
199.13	3194.1	
199.34	3192.8	
199.55	5038	
199.77	4119.8	
199.98	2852.8	
200.19	3222.1	
200.41	4705.5	
200.62	4351.9	
200.83	3269.9	
201.05	3562.1	
201.26	4590.2	
201.47	4449.6	
201.69	2853.5	
201.9	2852.1	
202.11	4642.7	
202.33	5405.3	
202.54	3011.9	
202.76	3392.1	
202.97	4627	
203.18	4792.2	
203.4	3258.3	
203.61	3278.8	
203.82	4756.1	
204.04	4453.6	
204.25	3205.8	
204.46	3132	
204.68	4670.7	
204.89	4819.6	
205.1	3099.3	
205.32	2767.5	
205.53	4882.4	
205.74	5082.4	
205.96	2441.9	
206.17	3217.4	
206.38	4891.2	
206.6	5024.3	
206.81	3637.9	
207.02	3039.9	
207.24	4842.1	
207.45	5077.6	
207.66	3117.7	
207.88	2712.9	
208.09	4725.3	
208.3	4633.9	
208.52	2878.1	
208.73	3111.5	
208.94	4672.1	
209.15	5168.4	
209.37	3090.4	
209.58	3215.3	
209.79	5111.7	
210.01	4564.9	
210.22	2585.2	
210.43	2658.3	
210.65	4617.5	
210.86	4934.2	
211.07	3039.2	
211.29	2824.8	
211.5	4856.4	
211.71	4553.3	
211.93	2888.3	
212.14	2885.6	
212.35	4592.2	
212.56	4689.2	
212.78	3182.5	
212.99	2720.4	
213.2	5286.5	
213.42	4500.1	
213.63	2887.6	
213.84	3104	
214.06	4220.9	
214.27	4284.4	
214.48	3007.1	
214.69	3188	
214.91	5207.3	
215.12	5191.6	
215.33	3195.5	
215.55	3515.7	
215.76	5526.8	
215.97	4904.9	
216.18	3155.2	
216.4	3106.8	
216.61	4431.8	
216.82	4919.9	
217.04	2912.9	
217.25	2982.5	
217.46	5036.6	
217.67	4924.7	
217.89	2661.7	
218.1	2680.1	
218.31	4717.2	
218.53	4814.1	
218.74	3010.5	
218.95	2883.5	
219.16	4658.4	
219.38	5287.9	
219.59	2900.6	
219.8	3341.6	
220.01	5652.4	
220.23	4667.3	
220.44	3600.3	
220.65	2783.9	
220.87	4782.7	
221.08	5085.1	
221.29	2726.5	
221.5	3427.6	
221.72	5956.9	
221.93	4474.1	
222.14	3219.4	
222.35	3696.6	
222.57	4635.2	
222.78	4999.1	
222.99	3111.5	
223.2	3260.4	
223.42	4844.8	
223.63	4975.2	
223.84	2441.9	
224.05	2482.8	
224.27	5683.1	
224.48	5302.2	
224.69	3756.7	
224.9	3175	
225.12	4829.1	
225.33	4621.6	
225.54	2631	
225.75	2912.9	
225.97	4362.2	
226.18	4569	
226.39	3024.2	
226.6	2923.1	
226.82	4514.4	
227.03	4377.9	
227.24	3174.4	
227.45	2732.7	
227.67	5016.2	
227.88	5271.5	
228.09	3569.6	
228.3	3495.9	
228.52	4925.4	
228.73	4582	
228.94	3002.3	
229.15	2762.7	
229.36	4638	
229.58	4608.6	
229.79	3018	
230	3463.1	
230.21	5453.7	
230.43	4698	
230.64	3231	
230.85	3251.5	
231.06	5053	
231.28	4975.9	
231.49	2727.2	
231.7	3157.3	
231.91	4900.8	
232.12	4668	
232.34	2775.7	
232.55	3082.2	
232.76	5054.4	
232.97	4707.6	
233.18	2821.4	
233.4	3204.4	
233.61	4753.3	
233.82	4481.6	
234.03	3004.4	
234.25	2975	
234.46	6088.6	
234.67	4692.6	
234.88	3280.8	
235.09	2908.8	
235.31	4844.1	
235.52	4565.6	
235.73	3154.6	
235.94	2691.7	
236.15	4420.9	
236.37	5472.9	
236.58	2838.5	
236.79	3103.4	
237	4865.3	
237.21	4284.4	
237.43	3272.7	
237.64	2679.4	
237.85	7530.4	
238.06	4373.1	
238.27	3261	
238.48	2747.7	
238.7	4902.2	
238.91	4539.7	
239.12	3028.3	
239.33	3138.9	
239.54	4431.8	
239.76	4552	
239.97	3061.7	
240.18	3042.6	
240.39	5487.9	
240.6	4826.4	
240.82	3181.9	
241.03	2731.3	
241.24	4635.2	
241.45	5279.7	
241.66	2837.8	
241.87	3338.2	
242.09	5126.1	
242.3	5401.2	
242.51	3319.1	
242.72	3063.8	
242.93	4938.3	
243.14	4658.4	
243.36	3502	
243.57	3710.9	
243.78	5218.2	
243.99	4904.2	
244.2	3057.6	
244.41	2788	
244.63	4366.3	
244.84	4857.8	
245.05	3284.3	
245.26	3024.2	
245.47	4947.2	
245.68	4997.7	
245.9	3910.3	
246.11	3180.5	
246.32	4460.5	
246.53	4852.3	
246.74	4758.1	
246.95	2636.4	
247.16	4366.3	
247.38	4659.8	
247.59	2668.5	
247.8	3037.8	
248.01	4364.2	
248.22	4637.3	
248.43	2819.4	
248.64	3080.8	
248.86	4228.4	
249.07	4516.5	
249.28	2824.8	
249.49	3172.3	
249.7	4999.1	
249.91	5061.9	
250.12	2646	
250.34	2706	
250.55	4748.6	
250.76	4703.5	
250.97	3182.5	
251.18	3205.1	
251.39	5026.4	
251.6	4739	
251.81	3216.7	
252.03	3164.8	
252.24	4484.4	
252.45	4947.9	
252.66	2731.3	
252.87	3316.3	
253.08	4678.2	
253.29	5748	
253.5	2779.8	
253.72	3670.6	
253.93	4568.3	
254.14	5335	
254.35	2985.3	
254.56	3012.6	
254.77	4833.2	
254.98	4363.5	
255.19	2956.6	
255.41	3585.3	
255.62	4783.4	
255.83	5123.3	
256.04	3248.8	
256.25	3166.2	
256.46	5504.9	
256.67	4434.5	
256.88	3170.9	
257.09	3506.1	
257.31	4347.8	
257.52	4356	
257.73	3868.6	
257.94	2976.4	
258.15	4615.4	
258.36	4674.8	
258.57	3576.4	
258.78	2384.5	
258.99	4977.2	
259.2	4507.6	
259.41	2931.3	
259.63	3042.6	
259.84	5227.1	
260.05	5452.4	
260.26	3753.2	
260.47	2867.2	
260.68	5087.2	
260.89	4579.3	
261.1	3457	
261.31	2865.1	
261.52	5137	
261.73	5289.2	
261.95	3707.5	
262.16	3262.4	
262.37	5138.4	
262.58	5169.1	
262.79	3687.7	
263	2985.9	
263.21	4640.7	
263.42	4222.9	
263.63	3196.9	
263.84	2969.6	
264.05	4995	
264.26	5261.2	
264.47	3579.2	
264.69	3153.9	
264.9	5177.3	
265.11	4748.6	
265.32	2850.1	
265.53	2880.8	
265.74	4744.5	
265.95	4240	
266.16	3083.6	
266.37	3360	
266.58	4766.3	
266.79	4473.4	
267	2935.4	
267.21	2766.8	
267.42	4311	
267.63	4647.5	
267.84	3066.5	
268.06	2670.6	
268.27	4988.2	
268.48	5122.7	
268.69	3091.1	
268.9	3505.4	
269.11	5104.2	
269.32	4188.8	
269.53	3099.3	
269.74	2861.7	
269.95	4831.8	
270.16	4212.7	
270.37	3080.1	
270.58	3515	
270.79	4542.4	
271	5036	
271.21	3247.4	
271.42	3148.4	
271.63	4836.6	
271.84	4306.9	
272.05	2591.4	
272.26	2811.9	
272.47	4653	
272.68	4788.2	
272.89	2990	
273.11	3360	
273.32	4519.9	
273.53	5227.8	
273.74	3242.6	
273.95	3204.4	
274.16	4969.7	
274.37	4630.5	
274.58	3391.4	
274.79	2790	
275	4747.9	
275.21	5099.4	
275.42	3882.3	
275.63	3351.2	
275.84	4823.6	
276.05	5854.5	
276.26	3284.9	
276.47	3026.2	
276.68	4589.5	
276.89	5410.7	
277.1	3396.9	
277.31	2713.6	
277.52	4790.9	
277.73	5095.3	
277.94	2691.7	
278.15	2992.8	
278.36	4785.4	
278.57	4435.9	
278.78	2946.3	
278.99	3288.4	
279.2	4441.4	
279.41	4379.9	
279.62	3786.7	
279.83	2786.6	
280.04	5469.4	
280.25	4386.7	
280.46	3808.5	
280.67	3100.6	
280.88	4408.6	
281.09	5063.9	
281.3	3202.3	
281.51	3941	
281.72	4450.9	
281.93	4945.8	
282.14	2943.6	
282.35	3166.2	
282.56	5038	
282.77	4941.7	
282.98	3002.3	
283.19	3515.7	
283.4	5898.8	
283.61	4580.6	
283.82	2757.2	
284.03	3736.9	
284.24	4782.7	
284.45	4983.4	
284.66	3790.1	
284.87	3617.4	
285.08	5081.7	
285.29	5190.2	
285.5	2715.6	
285.71	2990.7	
285.92	5017.5	
286.12	5573.9	
286.33	3737.5	
286.54	3056.9	
286.75	4981.3	
286.96	4564.9	
287.17	2837.1	
287.38	3566.9	
287.59	4450.9	
287.8	4443.4	
288.01	3007.8	
288.22	3336.8	
288.43	4918.5	
288.64	4269.3	
288.85	3546.4	
289.06	3401	
289.27	5019.6	
289.48	5221	
289.69	3747.1	
289.9	3381.9	
290.11	5117.2	
290.32	4500.1	
290.53	3543	
290.74	3253.5	
290.94	4975.2	
291.15	5053.7	
291.36	2953.2	
291.57	3353.9	
291.78	4477.5	
291.99	4246.1	
292.2	2828.9	
292.41	3301.3	
292.62	5038.7	
292.83	4915.1	
293.04	3953.3	
293.25	2858.3	
293.46	4596.3	
293.67	5040.1	
293.88	2923.8	
294.09	2831.7	
294.29	4383.3	
294.5	4762.2	
294.71	3088.3	
294.92	2960	
295.13	4527.4	
295.34	5470.1	
295.55	2668.5	
295.76	2656.9	
295.97	4946.5	
296.18	5428.5	
296.39	2719.7	
296.6	2912.2	
296.81	4730.1	
297.01	4975.2	
297.22	3060.3	
297.43	2928.6	
297.64	4496	
297.85	4326	
298.06	2469.9	
298.27	2678.1	
298.48	4618.2	
298.69	4417.5	
298.9	3117.7	
299.11	2828.2	
299.31	4316.4	
299.52	4384.7	
299.73	3326.6	
299.94	3245.3	
300.15	4693.9	
300.36	4428.4	
300.57	3269.2	
300.78	3289.7	
300.99	4604.5	
301.2	4728.8	
301.4	2964.1	
301.61	3125.2	
301.82	4903.5	
302.03	5010	
302.24	3435.1	
302.45	2780.5	
302.66	4900.1	
302.87	5099.4	
303.08	2916.3	
303.29	3850.9	
303.49	4536.9	
303.7	4625.7	
303.91	2630.3	
304.12	3702.7	
304.33	4297.3	
304.54	4774.5	
304.75	2977.1	
304.96	2811.9	
305.16	4897.4	
305.37	5394.3	
305.58	2615.3	
305.79	2708.8	
306	4891.2	
306.21	4202.4	
306.42	2940.9	
306.63	4235.2	
306.83	4554	
307.04	4947.9	
307.25	3192.1	
307.46	3137.5	
307.67	4173.8	
307.88	4874.2	
308.09	2928.6	
308.29	2951.8	
308.5	4732.2	
308.71	5021.6	
308.92	3041.9	
309.13	2839.8	
309.34	4610.7	
309.55	4590.9	
309.75	3573	
309.96	3241.3	
310.17	4973.2	
310.38	4397	
310.59	3409.2	
310.8	2811.9	
311.01	4516.5	
311.21	4578.6	
311.42	2837.1	
311.63	2929.3	
311.84	4493.2	
312.05	4721.9	
312.26	3266.5	
312.46	3423.5	
312.67	4526.7	
312.88	4317.1	
313.09	2768.9	
313.3	2770.9	
313.51	5201.8	
313.71	5440.1	
313.92	2861	
314.13	2948.4	
314.34	4819.6	
314.55	4601.8	
314.76	3523.9	
314.96	3132.7	
315.17	4769.7	
315.38	4863.2	
315.59	2844.6	
315.8	2739.5	
316.01	5143.1	
316.21	5309.7	
316.42	2777.7	
316.63	3143.6	
316.84	4575.8	
317.05	5078.3	
317.26	3310.9	
317.46	2993.4	
317.67	4669.4	
317.88	4933.6	
318.09	3482.9	
318.3	2686.9	
318.5	4533.5	
318.71	4826.4	
318.92	4354.7	
319.13	3266.5	
319.34	4986.8	
319.54	5058.5	
319.75	2694.4	
319.96	2585.9	
320.17	4906.3	
320.38	5014.1	
320.58	2598.9	
320.79	3076	
321	5151.3	
321.21	5201.2	
321.42	3151.1	
321.62	2601.6	
321.83	4394.9	
322.04	4691.2	
322.25	3039.9	
322.46	2854.2	
322.66	4753.3	
322.87	4922	
323.08	3429	
323.29	2800.9	
323.5	5438	
323.7	4281.6	
323.91	3736.9	
324.12	3368.9	
324.33	4802.5	
324.53	4878.3	
324.74	3267.2	
324.95	3379.8	
325.16	4292.5	
325.37	4528.1	
325.57	2845.3	
325.78	2863.1	
325.99	4754	
326.2	4276.2	
326.4	3937.6	
326.61	2698.5	
326.82	4607.2	
327.03	4735.6	
327.24	3832.4	
327.44	3687	
327.65	4807.9	
327.86	4060.4	
328.07	3258.3	
328.27	2790	
328.48	5111.7	
328.69	4335.5	
328.9	3877.5	
329.1	2968.2	
329.31	4603.2	
329.52	5231.9	
329.73	2865.1	
329.93	3135.4	
330.14	4728.8	
330.35	4814.8	
330.56	4463.9	
330.76	3393.5	
330.97	4554.7	
331.18	4780.6	
331.39	3119.7	
331.59	2599.6	
331.8	5124.7	
332.01	5139	
332.22	2899.9	
332.42	3276.1	
332.63	4758.1	
332.84	4375.8	
333.05	3151.8	
333.25	2875.3	
333.46	4457.1	
333.67	4639.3	
333.88	2966.1	
334.08	3213.3	
334.29	5920	
334.5	5067.4	
334.7	2748.4	
334.91	3902.1	
335.12	4323.3	
335.33	4894.6	
335.53	3125.2	
335.74	4334.9	
335.95	4558.1	
336.16	4282.3	
336.36	3133.4	
336.57	3526.6	
336.78	4313.7	
336.98	5118.6	
337.19	3714.3	
337.4	3059	
337.61	5456.5	
337.81	4308.2	
338.02	2937.5	
338.23	3650.8	
338.43	5158.2	
338.64	4474.8	
338.85	2871.9	
339.05	3658.4	
339.26	5280.3	
339.47	4243.4	
339.68	2837.8	
339.88	4021.5	
340.09	4876.9	
340.3	5016.2	
340.5	3278.8	
340.71	2604.3	
340.92	4380.6	
341.13	5118.6	
341.33	2768.2	
341.54	3295.9	
341.75	4860.5	
341.95	4561.5	
342.16	3149.1	
342.37	3397.6	
342.57	4343.7	
342.78	4640.7	
342.99	3467.9	
343.19	2632.3	
343.4	4976.6	
343.61	4851.6	
343.81	3064.4	
344.02	2804.4	
344.23	4906.9	
344.43	5156.1	
344.64	3482.2	
344.85	3369.6	
345.06	4918.5	
345.26	5087.2	
345.47	3269.2	
345.68	3725.3	
345.88	4249.5	
346.09	4962.9	
346.3	3283.6	
346.5	2631	
346.71	4581.3	
346.92	4435.9	
347.12	2744.3	
347.33	3246.7	
347.54	5090.6	
347.74	5314.5	
347.95	3179.1	
348.16	2510.1	
348.36	4483.7	
348.57	4364.9	
348.78	3267.2	
348.98	3437.2	
349.19	4601.8	
349.39	4272.1	
349.6	2707.4	
349.81	2938.8	
350.01	4876.9	
350.22	4380.6	
350.43	3197.6	
350.63	3678.8	
350.84	4685.8	
351.05	4406.5	
351.25	2883.5	
351.46	2667.1	
351.67	5077.6	
351.87	4416.1	
352.08	3080.1	
352.29	3461.7	
352.49	4986.8	
352.7	5014.8	
352.9	2859.6	
353.11	3454.2	
353.32	5474.9	
353.52	4597	
353.73	2875.3	
353.94	3497.9	
354.14	4952.7	
354.35	4713.1	
354.55	2896.5	
354.76	3191.4	
354.97	4897.4	
355.17	4662.5	
355.38	2803.7	
355.59	3696.6	
355.79	4513.7	
356	4686.4	
356.2	3164.8	
356.41	2908.1	
356.62	4280.9	
356.82	4643.4	
357.03	3474.7	
357.24	3063.8	
357.44	4508.3	
357.65	4603.8	
357.85	4007.2	
358.06	3258.3	
358.27	4272.7	
358.47	4455.7	
358.68	2780.5	
358.88	3485.6	
359.09	4965.6	
359.3	5160.2	
359.5	3904.8	
359.71	3472	
359.91	5403.2	
360.12	5027.1	
360.33	3406.5	
360.53	3763.5	
360.74	4590.9	
360.94	4594.3	
361.15	3565.5	
361.36	3063.8	
361.56	5182.7	
361.77	4782.7	
361.97	3945.8	
362.18	3201	
362.38	5185.5	
362.59	4423.6	
362.8	3027.6	
363	2912.9	
363.21	4347.2	
363.41	4787.5	
363.62	3348.4	
363.83	4103.4	
364.03	4975.2	
364.24	5522	
364.44	4205.2	
364.65	4169.7	
364.85	4734.9	
365.06	4481.6	
365.27	3169.6	
365.47	3204.4	
365.68	5406.6	
365.88	4745.1	
366.09	3461.7	
366.29	3219.4	
366.5	4924.7	
366.71	5231.2	
366.91	4169	
367.12	3631	
367.32	5760.3	
367.53	5140.4	
367.73	3608.5	
367.94	4315.1	
368.14	5149.3	
368.35	5717.2	
368.56	3588	
368.76	3386.7	
368.97	5260.5	
369.17	6304.3	
369.38	3188	
369.58	3396.2	
369.79	4442	
369.99	5425.1	
370.2	4156	
370.4	3396.2	
370.61	4907.6	
370.82	5913.9	
371.02	3417.4	
371.23	2874	
371.43	4444.1	
371.64	5406.6	
371.84	3496.6	
372.05	4349.9	
372.25	6333	
372.46	5182.7	
372.66	3478.1	
372.87	3505.4	
373.07	5279.7	
373.28	6421.7	
373.48	4142.4	
373.69	3983.3	
373.9	4904.9	
374.1	5004.6	
374.31	4264.6	
374.51	3857.7	
374.72	5560.2	
374.92	4718.5	
375.13	4424.3	
375.33	3775.1	
375.54	5238.7	
375.74	4874.8	
375.95	3900.7	
376.15	4775.2	
376.36	5329.5	
376.56	5245.5	
376.77	3969	
376.97	4179.9	
377.18	6150.1	
377.38	5463.3	
377.59	4490.5	
377.79	3680.9	
378	5329.5	
378.2	5635.3	
378.41	3705.5	
378.61	3605.8	
378.82	5707	
379.02	5124.7	
379.23	3846.1	
379.43	4605.2	
379.64	5812.1	
379.84	5494	
380.05	3662.5	
380.25	3672	
380.46	5532.2	
380.66	5217.5	
380.87	4625.7	
381.07	4818.2	
381.28	6006.7	
381.48	5492.7	
381.69	3670.6	
381.89	3784	
382.1	4711.7	
382.3	5583.4	
382.51	4525.3	
382.71	5083.1	
382.91	5466	
383.12	5906.3	
383.32	3926	
383.53	4040	
383.73	5376.6	
383.94	5258.5	
384.14	4020.2	
384.35	3300.6	
384.55	5155.4	
384.76	5451.7	
384.96	3898.6	
385.17	4111	
385.37	5444.2	
385.58	4750.6	
385.78	4044.1	
385.98	3224.9	
386.19	5101.5	
386.39	5332.2	
386.6	3698.6	
386.8	3865.9	
387.01	5427.8	
387.21	5554.8	
387.42	4159.4	
387.62	4605.9	
387.83	5075.5	
388.03	5365.7	
388.23	4025.6	
388.44	4535.6	
388.64	4881.7	
388.85	4883	
389.05	4238.6	
389.26	4715.8	
389.46	6484.6	
389.67	5906.3	
389.87	4337.6	
390.07	4360.8	
390.28	5279.7	
390.48	4975.9	
390.69	3740.3	
390.89	3939.6	
391.1	5170.4	
391.3	5847.6	
391.5	4795	
391.71	5181.4	
391.91	5665.4	
392.12	6267.5	
392.32	4902.8	
392.53	4278.9	
392.73	5208	
392.93	5314.5	
393.14	4098.7	
393.34	4601.8	
393.55	5703.6	
393.75	5208	
393.95	3989.4	
394.16	3876.8	
394.36	5122.7	
394.57	5555.5	
394.77	3625.6	
394.98	3933.5	
395.18	5139	
395.38	5198.4	
395.59	4660.5	
395.79	3928.7	
396	5337	
396.2	5752.1	
396.4	4550.6	
396.61	4526.7	
396.81	5773.9	
397.02	5226.4	
397.22	4759.5	
397.42	4790.9	
397.63	5894.1	
397.83	5285.8	
398.04	3932.8	
398.24	4381.3	
398.44	5713.8	
398.65	4971.8	
398.85	3893.9	
399.05	3859.1	
399.26	5315.8	
399.46	6534.4	
399.67	4227.7	
399.87	4021.5	
400.07	5563	
400.28	5805.3	
400.48	4096.6	
400.69	4953.4	
400.89	6059.9	
401.09	6385.6	
401.3	4145.1	
401.5	4923.3	
401.7	6556.2	
401.91	6741.9	
402.11	4481.6	
402.32	4534.2	
402.52	6111.8	
402.72	5903.6	
402.93	4595	
403.13	3687.7	
403.33	6522.8	
403.54	5317.9	
403.74	4231.8	
403.94	4827.1	
404.15	5450.3	
404.35	6388.3	
404.56	4112.3	
404.76	5464	
404.96	5964.4	
405.17	5783.5	
405.37	5154.1	
405.57	4625	
405.78	6094.8	
405.98	5630.5	
406.18	4233.8	
406.39	4866	
406.59	5866.7	
406.79	5550.7	
407	4003.1	
407.2	4017.4	
407.4	6122.1	
407.61	6060.6	
407.81	4168.3	
408.01	5712.5	
408.22	5268.7	
408.42	6787	
408.62	5221.6	
408.83	4843.4	
409.03	5954.1	
409.23	5855.1	
409.44	5020.3	
409.64	5094	
409.84	6716.7	
410.05	6765.1	
410.25	5156.1	
410.45	4983.4	
410.66	6437.4	
410.86	8122.2	
411.06	5395.7	
411.27	5273.5	
411.47	8114.1	
411.67	6592.4	
411.88	5440.1	
412.08	5705.6	
412.28	7073.7	
412.49	7468.9	
412.69	5397.8	
412.89	5348.6	
413.09	7328.3	
413.3	7242.3	
413.5	5504.9	
413.7	5188.9	
413.91	6731	
414.11	7418.4	
414.31	5317.9	
414.52	5676.3	
414.72	7132.4	
414.92	7101	
415.12	5528.2	
415.33	5845.6	
415.53	7479.9	
415.73	7443.7	
415.94	6019.7	
416.14	5562.3	
416.34	6736.5	
416.55	6494.1	
416.75	6459.3	
416.95	6141.2	
417.15	7507.2	
417.36	7843	
417.56	6688.7	
417.76	5982.8	
417.97	7634.1	
418.17	7529.7	
418.37	5776	
418.57	5818.3	
418.78	7505.8	
418.98	7043.6	
419.18	6402.6	
419.38	6215.6	
419.59	7013.6	
419.79	6715.3	
419.99	5553.4	
420.2	5743.2	
420.4	7449.1	
420.6	7455.3	
420.8	5588.2	
421.01	5442.8	
421.21	7419.8	
421.41	7473	
421.61	5750.7	
421.82	5584.1	
422.02	7006.1	
422.22	7600	
422.42	6213.5	
422.63	5795.1	
422.83	7062.8	
423.03	7831.4	
423.23	5872.2	
423.44	5068	
423.64	6976.1	
423.84	6720.1	
424.04	5509.7	
424.25	5158.2	
424.45	7672.4	
424.65	7484	
424.85	4984.1	
425.06	5479.7	
425.26	7686	
425.46	6830	
425.66	5797.1	
425.87	5550.7	
426.07	7468.3	
426.27	7262.8	
426.47	5603.2	
426.67	5070.1	
426.88	7587.7	
427.08	7178.1	
427.28	5838.1	
427.48	4996.4	
427.69	6363.7	
427.89	6858	
428.09	5765	
428.29	5150	
428.5	7262.8	
428.7	7110.5	
428.9	5046.9	
429.1	5356.8	
429.3	7005.4	
429.51	7271.7	
429.71	5239.4	
429.91	5930.9	
430.11	7266.9	
430.31	7441	
430.52	5549.3	
430.72	5791.7	
430.92	7615	
431.12	7220.5	
431.32	5301.5	
431.53	5585.5	
431.73	6432.7	
431.93	7626	
432.13	5221	
432.33	5112.4	
432.54	6822.5	
432.74	6978.1	
432.94	5084.4	
433.14	5860.6	
433.34	7277.1	
433.55	6978.1	
433.75	5896.1	
433.95	7158.3	
434.15	7154.9	
434.35	6910.5	
434.56	5270.1	
434.76	4975.9	
434.96	7066.2	
435.16	7311.9	
435.36	5219.6	
435.56	6143.2	
435.77	6879.1	
435.97	7044.3	
436.17	6569.9	
436.37	6029.9	
436.57	6865.5	
436.78	6921.5	
436.98	7243	
437.18	6543.9	
437.38	7391.8	
437.58	6903.7	
437.78	6494.1	
437.99	5515.2	
438.19	7281.9	
438.39	7838.9	
438.59	5457.2	
438.79	4956.8	
438.99	7707.9	
439.2	6831.3	
439.4	5031.2	
439.6	5126.7	
439.8	7219.8	
440	7970.7	
440.2	6077	
440.4	6130.9	
440.61	7603.4	
440.81	8074.5	
441.01	5536.3	
441.21	6129.6	
441.41	7930.4	
441.61	7463.5	
441.81	6395.8	
442.02	7007.5	
442.22	8212.4	
442.42	7622.5	
442.62	5535	
442.82	5499.5	
443.02	7991.9	
443.22	7301.7	
443.43	5927.5	
443.63	5526.1	
443.83	7161.1	
444.03	7111.2	
444.23	6533	
444.43	6112.5	
444.63	7548.8	
444.83	8218.5	
445.04	5685.8	
445.24	6550.1	
445.44	7709.9	
445.64	7659.4	
445.84	6094.8	
446.04	6120	
446.24	7047.1	
446.44	7820.5	
446.65	5461.9	
446.85	5740.5	
447.05	7207.5	
447.25	7765.2	
447.45	5896.1	
447.65	5401.9	
447.85	7358.4	
448.05	6843.6	
448.25	6154.1	
448.46	5999.2	
448.66	7343.3	
448.86	7010.2	
449.06	5317.9	
449.26	6124.1	
449.46	7606.2	
449.66	6848.4	
449.86	5849	
450.06	5745.2	
450.26	7027.3	
450.47	7457.3	
450.67	5908.4	
450.87	6169.2	
451.07	7607.5	
451.27	7313.3	
451.47	5453.7	
451.67	6186.9	
451.87	7108.5	
452.07	7892.2	
452.27	5658.5	
452.47	5655.1	
452.67	7338.6	
452.88	7706.5	
453.08	5179.3	
453.28	6490	
453.48	8170.7	
453.68	7226.6	
453.88	5477.6	
454.08	5646.2	
454.28	7557	
454.48	7243.7	
454.68	6111.1	
454.88	6433.4	
455.08	7678.5	
455.28	7479.9	
455.48	5446.2	
455.68	6051.1	
455.89	8107.9	
456.09	7817.8	
456.29	5765	
456.49	5922.7	
456.69	8012.3	
456.89	7573.4	
457.09	6160.3	
457.29	6484.6	
457.49	7720.8	
457.69	7849.9	
457.89	6186.2	
458.09	5678.3	
458.29	7586.4	
458.49	8131.8	
458.69	6468.2	
458.89	6020.3	
459.09	8292.9	
459.29	8355	
459.49	6101.6	
459.69	6630	
459.9	7931.1	
460.1	7564.5	
460.3	6005.3	
460.5	5776	
460.7	7900.4	
460.9	7593.9	
461.1	5558.9	
461.3	6523.5	
461.5	8421.2	
461.7	8110	
461.9	6120	
462.1	6272.2	
462.3	7878.5	
462.5	8185.7	
462.7	6134.3	
462.9	6148	
463.1	8950.3	
463.3	8817.9	
463.5	6351.4	
463.7	7006.8	
463.9	8099	
464.1	8287.4	
464.3	6524.8	
464.5	6677.1	
464.7	8494.3	
464.9	8333.9	
465.1	7471.7	
465.3	6886.6	
465.5	8679.3	
465.7	8755.7	
465.9	7132.4	
466.1	6894.8	
466.3	8597.4	
466.5	8411	
466.7	7665.5	
466.9	6713.9	
467.1	8545.5	
467.3	9244.5	
467.5	7544.7	
467.7	6793.8	
467.9	9359.2	
468.1	9936.7	
468.3	7299.6	
468.5	7675.8	
468.7	8514.1	
468.9	8370	
469.1	7048.4	
469.3	7555	
469.5	9882.8	
469.7	8229.4	
469.9	7338.6	
470.1	6845.7	
470.3	8635.6	
470.5	8445.1	
470.7	7716.7	
470.9	6904.4	
471.1	8314.1	
471.3	8513.4	
471.5	6780.8	
471.69	8009.6	
471.89	8189.1	
472.09	7821.2	
472.29	7200.7	
472.49	7427.3	
472.69	8021.2	
472.89	8493.6	
473.09	6578.8	
473.29	6581.5	
473.49	8112.7	
473.69	8005.5	
473.89	7299	
474.09	6722.8	
474.29	9052	
474.49	8712.7	
474.69	7249.8	
474.89	6865.5	
475.09	8155.7	
475.29	8067.6	
475.49	6331	
475.69	6559	
475.88	9216.5	
476.08	8431.5	
476.28	6313.9	
476.48	6468.2	
476.68	8661.5	
476.88	8368.7	
477.08	6446.3	
477.28	6608.1	
477.48	8127.7	
477.68	8404.9	
477.88	6304.3	
478.08	6532.3	
478.28	8795.3	
478.48	8161.8	
478.67	6610.2	
478.87	6047.7	
479.07	8600.1	
479.27	8159.8	
479.47	6703	
479.67	6705	
479.87	8453.3	
480.07	8695.7	
480.27	6198.5	
480.47	7210.9	
480.67	8233.5	
480.87	8637	
481.06	6389	
481.26	6978.8	
481.46	8176.9	
481.66	8128.4	
481.86	6704.4	
482.06	7266.9	
482.26	7949.5	
482.46	8480	
482.66	6615.6	
482.86	6319.3	
483.05	8206.9	
483.25	7701.7	
483.45	8385.7	
483.65	6559.6	
483.85	7797.3	
484.05	8082	
484.25	6955.6	
484.45	7249.1	
484.65	8647.9	
484.84	8776.2	
485.04	6576.7	
485.24	6554.2	
485.44	9016.5	
485.64	7745.4	
485.84	6023.8	
486.04	7050.5	
486.24	7983	
486.44	8185	
486.63	6039.5	
486.83	6724.2	
487.03	8034.2	
487.23	8138.6	
487.43	6146.6	
487.63	7800.7	
487.83	8195.3	
488.02	8780.3	
488.22	6828.6	
488.42	7161.1	
488.62	8893	
488.82	7976.8	
489.02	6705.7	
489.22	6648.4	
489.41	8726.4	
489.61	8414.4	
489.81	6439.5	
490.01	6388.3	
490.21	8559.8	
490.41	9200.2	
490.61	6331.6	
490.8	6546	
491	8309.3	
491.2	7722.2	
491.4	6902.3	
491.6	6188.3	
491.8	8144.1	
491.99	8101.8	
492.19	6100.9	
492.39	6353.5	
492.59	8514.8	
492.79	8647.9	
492.99	7069.6	
493.18	6420.4	
493.38	8824.7	
493.58	9359.2	
493.78	6973.3	
493.98	6625.9	
494.18	8582.4	
494.37	8167.3	
494.57	7169.9	
494.77	7035.5	
494.97	8802.2	
495.17	8939.4	
495.37	6895.5	
495.56	7105.1	
495.76	9166	
495.96	8916.9	
496.16	7635.5	
496.36	7037.5	
496.55	9041.8	
496.75	8646.5	
496.95	7228.6	
497.15	7235.5	
497.35	8918.9	
497.54	8871.1	
497.74	7000	
497.94	8116.1	
498.14	9466.4	
498.34	9291	
498.53	6879.1	
498.73	7347.4	
498.93	8537.3	
499.13	8964.6	
499.33	7275.8	
499.52	7499	
499.72	9058.2	
499.92	9144.9	
500.12	6929	
500.32	7115.3	
500.51	9166.7	
500.71	8972.8	
500.91	7731.8	
501.11	7436.2	
501.31	9113.5	
501.5	9430.2	
501.7	7951.6	
501.9	7157	
502.1	8921.6	
502.29	9241.1	
502.49	7542.7	
502.69	7800	
502.89	9029.5	
503.09	8931.2	
503.28	6685.9	
503.48	6898.9	
503.68	8477.9	
503.88	8409.6	
504.07	7493.5	
504.27	7119.4	
504.47	8738	
504.67	8770.8	
504.86	7458	
505.06	7147.4	
505.26	8497	
505.46	9607.7	
505.65	7055.3	
505.85	7158.3	
506.05	8398.7	
506.25	8761.2	
506.44	6475	
506.64	7176.8	
506.84	8239	
507.04	8757.1	
507.23	6690	
507.43	7054.6	
507.63	9710.8	
507.83	8348.2	
508.02	7093.5	
508.22	6711.2	
508.42	9621.4	
508.62	8120.9	
508.81	6832.7	
509.01	7202.7	
509.21	8056.7	
509.4	8170	
509.6	7066.9	
509.8	6651.8	
510	8193.2	
510.19	9184.5	
510.39	6596.5	
510.59	6534.4	
510.79	8175.5	
510.98	9081.4	
511.18	6778.8	
511.38	6741.2	
511.57	8774.9	
511.77	8453.3	
511.97	7135.8	
512.17	6446.3	
512.36	8626.7	
512.56	8492.2	
512.76	6431.3	
512.95	6212.9	
513.15	8866.3	
513.35	7664.2	
513.55	7103.7	
513.74	6537.8	
513.94	8654.7	
514.14	8214.4	
514.33	7111.9	
514.53	6953.5	
514.73	8258.8	
514.92	8289.5	
515.12	6570.6	
515.32	6462.7	
515.51	8364.6	
515.71	8681.3	
515.91	7792.5	
516.11	6467.5	
516.3	9564.7	
516.5	8114.7	
516.7	6952.2	
516.89	7251.9	
517.09	8185.7	
517.29	8104.5	
517.48	6964.5	
517.68	6649.1	
517.88	7912.7	
518.07	8398.7	
518.27	6941.9	
518.47	6261.3	
518.66	8782.4	
518.86	7854	
519.06	6275.7	
519.25	6431.3	
519.45	8012.3	
519.65	9062.3	
519.84	7023.9	
520.04	7472.4	
520.24	9336	
520.43	8426	
520.63	6728.3	
520.83	6602	
521.02	7888.1	
521.22	8314.1	
521.42	6830	
521.61	7210.2	
521.81	8077.9	
522.01	8217.8	
522.2	6802.7	
522.4	6634.1	
522.6	8587.8	
522.79	7624.6	
522.99	6711.9	
523.18	6304.3	
523.38	8413.1	
523.58	8282.7	
523.77	7642.3	
523.97	6266.1	
524.17	9642.5	
524.36	9140.1	
524.56	7261.4	
524.76	7017	
524.95	8349.6	
525.15	8155	
525.34	6805.4	
525.54	6903	
525.74	8699.8	
525.93	7939.3	
526.13	7772	
526.33	6883.2	
526.52	9037	
526.72	8476.5	
526.91	7703.1	
527.11	7173.4	
527.31	8861.6	
527.5	9140.8	
527.7	7119.4	
527.89	6472.9	
528.09	8228.1	
528.29	8774.2	
528.48	7538.6	
528.68	7258.7	
528.87	8867.7	
529.07	8906.6	
529.27	7083.9	
529.46	6832	
529.66	8684.8	
529.85	8869.1	
530.05	6711.2	
530.25	7248.4	
530.44	9602.2	
530.64	8508.6	
530.83	6888	
531.03	7088	
531.23	9021.3	
531.42	8695	
531.62	7632.8	
531.81	7141.9	
532.01	9076.6	
532.21	9242.5	
532.4	7045	
532.6	7218.4	
532.79	9678.7	
532.99	9093.7	
533.18	7236.8	
533.38	7983	
533.58	8725	
533.77	9260.9	
533.97	7285.3	
534.16	7879.9	
534.36	9551	
534.55	8700.5	
534.75	7892.2	
534.95	7339.9	
535.14	9420.7	
535.34	8716.8	
535.53	7075	
535.73	8353	
535.92	9749	
536.12	8802.9	
536.31	7046.4	
536.51	7918.8	
536.71	9183.1	
536.9	8722.3	
537.1	7195.9	
537.29	7331	
537.49	9320.3	
537.68	8707.3	
537.88	7656.7	
538.07	7020.4	
538.27	8873.2	
538.46	9578.3	
538.66	6963.1	
538.86	7178.8	
539.05	8989.2	
539.25	9235.7	
539.44	7509.9	
539.64	7210.9	
539.83	8734.6	
540.03	9409.1	
540.22	6992.4	
540.42	7107.1	
540.61	8927.8	
540.81	8936.7	
541	7432.1	
541.2	7946.1	
541.39	8490.2	
541.59	8731.9	
541.78	7655.3	
541.98	6961.7	
542.18	8381.7	
542.37	8336.6	
542.57	7221.1	
542.76	7640.3	
542.96	8374.1	
543.15	8774.9	
543.35	7202.7	
543.54	6670.2	
543.74	8829.5	
543.93	8561.9	
544.13	7189.1	
544.32	7888.1	
544.52	8896.4	
544.71	8263.6	
544.91	6468.2	
545.1	7400	
545.3	8359.8	
545.49	8714.8	
545.69	6507.1	
545.88	6829.3	
546.08	9437.7	
546.27	8994	
546.47	7233.4	
546.66	6658.6	
546.86	8855.4	
547.05	9230.9	
547.24	6763.8	
547.44	6748.7	
547.63	8178.9	
547.83	8779.6	
548.02	6980.8	
548.22	7129	
548.41	8009.6	
548.61	8897.1	
548.8	6656.6	
549	6634.7	
549.19	8398	
549.39	8683.4	
549.58	6384.2	
549.78	6858.6	
549.97	8710	
550.17	8287.4	
550.36	7459.4	
550.55	8137.9	
550.75	8290.2	
550.94	8970.1	
551.14	6511.2	
551.33	6789	
551.53	7779.6	
551.72	8539.3	
551.92	6827.9	
552.11	6642.9	
552.31	8639	
552.5	8428.8	
552.69	7906.5	
552.89	6352.8	
553.08	8550.3	
553.28	8189.1	
553.47	6705.7	
553.67	7412.3	
553.86	9022.7	
554.06	7796.6	
554.25	6079.7	
554.44	6472.3	
554.64	9510.8	
554.83	9105.3	
555.03	6524.8	
555.22	6673	
555.42	8640.4	
555.61	8396	
555.8	6616.3	
556	6748.7	
556.19	7772.7	
556.39	8582.4	
556.58	6558.3	
556.78	6589.7	
556.97	8333.2	
557.16	8096.3	
557.36	7410.2	
557.55	6318.7	
557.75	7606.2	
557.94	8815.1	
558.13	6400.6	
558.33	6215.6	
558.52	8643.1	
558.72	7765.2	
558.91	6358.3	
559.1	6423.8	
559.3	7630	
559.49	7484.6	
559.69	6020.3	
559.88	6726.2	
560.07	8179.6	
560.27	8521.6	
560.46	6832.7	
560.66	6905.1	
560.85	8165.9	
561.04	7524.2	
561.24	6213.5	
561.43	6377.4	
561.63	7596.6	
561.82	7813	
562.01	7269.6	
562.21	6584.9	
562.4	8211.7	
562.59	8787.2	
562.79	6548.7	
562.98	6219	
563.18	8122.9	
563.37	9093	
563.56	6785.6	
563.76	6233.3	
563.95	7753.6	
564.14	7674.4	
564.34	6533	
564.53	6231.3	
564.73	8157.1	
564.92	8285.4	
565.11	6556.2	
565.31	6093.4	
565.5	8553.7	
565.69	7673.7	
565.89	6398.5	
566.08	6526.9	
566.27	8328.4	
566.47	8712.1	
566.66	6897.6	
566.85	5991	
567.05	8249.2	
567.24	7720.8	
567.44	6199.9	
567.63	7132.4	
567.82	8292.9	
568.02	7996	
568.21	6193.1	
568.4	6413.6	
568.6	8010.3	
568.79	7906.5	
568.98	6178	
569.18	6182.8	
569.37	7989.1	
569.56	9340.1	
569.76	6522.8	
569.95	7168.6	
570.14	8155.7	
570.34	8118.1	
570.53	6109.8	
570.72	6072.2	
570.91	8502.5	
571.11	7927.7	
571.3	6390.3	
571.49	7144	
571.69	8114.1	
571.88	7559.7	
572.07	6705	
572.27	6758.3	
572.46	7653.3	
572.65	8309.3	
572.85	6270.2	
573.04	6426.5	
573.23	8613.1	
573.43	7963.9	
573.62	6126.8	
573.81	6570.6	
574	8094.9	
574.2	7909.9	
574.39	6371.2	
574.58	6397.2	
574.78	8624.7	
574.97	8116.1	
575.16	6744	
575.36	6777.4	
575.55	8462.9	
575.74	8510	
575.93	6059.3	
576.13	6891.4	
576.32	7970.7	
576.51	8323.6	
576.71	6410.1	
576.9	7316.7	
577.09	8665.6	
577.28	8210.3	
577.48	6761.7	
577.67	6087.9	
577.86	8013	
578.05	8243.1	
578.25	6539.2	
578.44	6497.5	
578.63	8051.9	
578.83	8886.8	
579.02	6145.3	
579.21	7162.4	
579.4	8176.9	
579.6	7975.5	
579.79	6607.4	
579.98	8099	
580.17	8399.4	
580.37	8506.6	
580.56	6238.8	
580.75	6778.1	
580.94	8688.2	
581.14	8809.7	
581.33	7073	
581.52	6415.6	
581.71	8347.5	
581.91	8816.5	
582.1	6180.8	
582.29	6522.8	
582.48	8140.7	
582.68	8004.8	
582.87	6886	
583.06	6655.9	
583.25	8385.7	
583.45	7881.3	
583.64	7098.9	
583.83	7620.5	
584.02	8043.7	
584.21	8357.8	
584.41	6999.3	
584.6	6563.7	
584.79	8112	
584.98	8529.1	
585.18	6182.1	
585.37	6189.6	
585.56	7914.7	
585.75	8388.5	
585.94	6290.7	
586.14	6842.9	
586.33	8729.1	
586.52	8032.8	
586.71	6684.6	
586.91	6479.1	
587.1	7625.3	
587.29	8363.2	
587.48	6419.7	
587.67	6350.1	
587.87	8283.4	
588.06	8193.9	
588.25	7275.1	
588.44	6720.8	
588.63	7846.5	
588.83	8262.9	
589.02	6404.7	
589.21	6160.3	
589.4	7755	
589.59	7622.5	
589.78	5644.2	
589.98	5752.1	
590.17	7236.8	
590.36	7560.4	
590.55	5332.9	
590.74	5881.8	
590.94	8546.2	
591.13	7532.4	
591.32	5776	
591.51	5462.6	
591.7	7890.8	
591.89	7535.2	
592.09	5589.6	
592.28	5839.4	
592.47	6978.8	
592.66	8359.8	
592.85	5532.2	
593.05	5744.6	
593.24	7468.3	
593.43	7950.9	
593.62	5866.7	
593.81	6006	
594	7453.9	
594.19	7643	
594.39	5681.1	
594.58	5638.7	
594.77	7714	
594.96	8067.6	
595.15	5705.6	
595.34	6124.1	
595.54	7636.9	
595.73	7019.1	
595.92	5166.3	
596.11	5945.3	
596.3	7980.3	
596.49	7045.7	
596.68	5848.3	
596.88	6167.8	
597.07	7826	
597.26	7002	
597.45	5481.7	
597.64	6320	
597.83	7197.9	
598.02	7653.3	
598.22	5575.3	
598.41	5979.4	
598.6	7534.5	
598.79	7111.9	
598.98	5593.7	
599.17	6173.3	
599.36	7548.8	
599.55	8173.4	
599.74	6948.1	
599.94	6878.4	
600.13	7877.2	
600.32	6978.8	
600.51	5374.6	
600.7	5565.7	
600.89	8332.5	
601.08	8350.3	
601.27	5433.3	
601.47	5915.2	
601.66	7827.3	
601.85	8222.6	
602.04	5815.5	
602.23	6037.4	
602.42	7111.2	
602.61	7565.9	
602.8	5741.8	
602.99	5638.1	
603.18	7391.1	
603.37	7549.5	
603.57	6114.6	
603.76	6535.8	
603.95	8062.2	
604.14	7702.4	
604.33	5715.9	
604.52	5808.7	
604.71	7529	
604.9	7267.6	
605.09	6244.3	
605.28	6126.8	
605.47	8019.8	
605.66	7653.9	
605.86	6112.5	
606.05	5634.6	
606.24	7971.4	
606.43	6888	
606.62	5825.1	
606.81	6358.9	
607	7856	
607.19	7274.4	
607.38	5485.1	
607.57	5646.2	
607.76	7210.9	
607.95	6791.7	
608.14	5953.4	
608.33	6365.8	
608.52	7124.9	
608.72	7748.1	
608.91	5321.3	
609.1	5262.6	
609.29	7262.8	
609.48	6925.5	
609.67	5971.9	
609.86	5453.1	
610.05	6965.1	
610.24	7153.6	
610.43	5282.4	
610.62	5051	
610.81	8015.7	
611	7863.5	
611.19	5433.9	
611.38	5900.2	
611.57	7373.4	
611.76	8147.5	
611.95	5271.5	
612.14	5122.7	
612.33	7219.8	
612.52	6909.2	
612.71	5542.5	
612.9	5042.1	
613.09	6649.1	
613.28	8280.6	
613.47	5492	
613.66	6125.5	
613.85	7376.1	
614.04	6978.8	
614.24	5468.8	
614.43	4936.3	
614.62	7416.4	
614.81	7376.1	
615	5831.9	
615.19	5795.8	
615.38	6884.6	
615.57	7109.9	
615.76	5735.7	
615.95	6462.7	
616.14	7477.1	
616.33	7169.3	
616.52	6007.4	
616.71	6071.5	
616.9	7375.4	
617.09	7243	
617.28	5531.6	
617.47	6350.1	
617.66	6808.1	
617.85	6790.4	
618.04	6123.4	
618.22	5667.4	
618.41	7080.5	
618.6	7614.3	
618.79	5643.5	
618.98	5544.5	
619.17	7858.7	
619.36	6565.8	
619.55	5685.8	
619.74	5715.9	
619.93	7409.6	
620.12	6991.8	
620.31	6052.4	
620.5	6107.7	
620.69	7698.3	
620.88	8042.4	
621.07	6640.9	
621.26	5852.4	
621.45	7496.9	
621.64	7450.5	
621.83	6028.5	
622.02	5423	
622.21	7576.8	
622.4	7339.9	
622.59	6359.6	
622.78	6197.2	
622.97	7068.9	
623.16	7797.3	
623.35	6012.2	
623.54	5369.1	
623.72	7231.4	
623.91	7306.5	
624.1	6218.3	
624.29	5309	
624.48	8104.5	
624.67	7545.4	
624.86	6042.9	
625.05	5386.8	
625.24	8157.1	
625.43	7004.7	
625.62	7198.6	
625.81	5563	
626	7702.4	
626.19	7170.6	
626.38	6102.9	
626.56	5750	
626.75	7057.3	
626.94	7597.3	
627.13	6098.9	
627.32	5195	
627.51	7621.9	
627.7	8330.5	
627.89	5320.6	
628.08	6126.8	
628.27	6965.8	
628.46	7140.6	
628.65	5542.5	
628.83	5294.7	
629.02	7601.4	
629.21	6924.2	
629.4	5815.5	
629.59	5940.5	
629.78	6984.3	
629.97	7604.8	
630.16	6017.6	
630.35	5571.8	
630.54	8041	
630.72	7791.2	
630.91	5624.4	
631.1	5879	
631.29	7372	
631.48	7430	
631.67	6100.9	
631.86	5607.3	
632.05	7287.4	
632.24	7219.1	
632.42	5404.6	
632.61	5906.3	
632.8	7227.3	
632.99	6968.6	
633.18	5892	
633.37	6087.2	
633.56	7451.9	
633.75	7253.9	
633.93	5913.2	
634.12	5622.4	
634.31	8086.7	
634.5	7651.2	
634.69	5662.6	
634.88	5937.1	
635.07	7280.5	
635.25	7557	
635.44	6356.9	
635.63	6451.8	
635.82	7160.4	
636.01	6660	
636.2	6219.7	
636.39	6012.2	
636.57	8064.2	
636.76	7599.3	
636.95	5500.8	
637.14	6449.7	
637.33	7487.4	
637.52	8058.1	
637.7	5452.4	
637.89	6120.7	
638.08	7234.8	
638.27	8126.3	
638.46	6115.9	
638.65	6326.2	
638.83	8215.1	
639.02	7044.3	
639.21	6018.3	
639.4	6314.6	
639.59	7334.5	
639.78	7101	
639.96	5565.7	
640.15	5573.9	
640.34	7248.4	
640.53	7363.8	
640.72	5319.9	
640.91	5573.9	
641.09	6802.7	
641.28	7765.2	
641.47	5497.4	
641.66	6148	
641.85	7338.6	
642.03	7509.9	
642.22	5941.2	
642.41	5543.2	
642.6	6881.2	
642.79	6445.6	
642.97	5517.9	
643.16	5909.1	
643.35	6828.6	
643.54	6747.4	
643.73	5356.1	
643.91	5965.7	
644.1	6655.9	
644.29	7017	
644.48	5453.1	
644.67	5391.6	
644.85	6744.6	
645.04	6979.5	
645.23	5076.2	
645.42	5268.1	
645.6	6647.7	
645.79	7406.8	
645.98	5277.6	
646.17	4614.8	
646.36	6410.1	
646.54	6832.7	
646.73	5728.9	
646.92	4970.4	
647.11	6592.4	
647.29	7227.3	
647.48	4999.1	
647.67	4898.7	
647.86	7453.2	
648.05	7434.8	
648.23	5244.8	
648.42	6103.6	
648.61	6987	
648.8	6739.2	
648.98	4962.9	
649.17	5188.9	
649.36	6511.2	
649.55	6107.7	
649.73	5023.7	
649.92	5539.8	
650.11	6433.4	
650.3	6713.9	
650.48	5193.6	
650.67	5010	
650.86	6920.8	
651.05	6043.6	
651.23	5087.2	
651.42	5038.7	
651.61	6447.7	
651.79	6528.2	
651.98	5132.9	
652.17	4919.2	
652.36	6849.1	
652.54	6085.9	
652.73	5029.1	
652.92	4875.5	
653.11	6790.4	
653.29	6903.7	
653.48	4435.2	
653.67	5212.1	
653.85	6604	
654.04	7402.7	
654.23	5309	
654.42	5018.9	
654.6	6315.9	
654.79	6709.8	
654.98	4527.4	
655.16	4992.9	
655.35	6015.6	
655.54	5836	
655.73	4666	
655.91	4574.5	
656.1	6680.5	
656.29	5802.6	
656.47	4340.3	
656.66	5558.9	
656.85	6127.5	
657.03	6157.6	
657.22	4747.2	
657.41	4735.6	
657.59	6197.2	
657.78	6001.2	
657.97	4461.2	
658.16	4943.1	
658.34	6625.2	
658.53	6989.7	
658.72	5650.3	
658.9	5997.1	
659.09	6423.8	
659.28	6310.5	
659.46	4801.1	
659.65	4734.2	
659.84	6107	
660.02	6566.5	
660.21	4834.6	
660.4	4669.4	
660.58	6832.7	
660.77	6437.4	
660.96	5123.3	
661.14	4466.6	
661.33	7088	
661.52	7090.8	
661.7	4392.9	
661.89	6796.5	
662.08	6097.5	
662.26	5758.2	
662.45	4639.3	
662.64	4720.6	
662.82	6606.1	
663.01	5999.9	
663.2	4664.6	
663.38	5199.8	
663.57	6490.7	
663.75	6415.6	
663.94	4910.3	
664.13	5785.5	
664.31	6094.8	
664.5	6508.4	
664.69	5166.3	
664.87	5449	
665.06	5942.5	
665.25	6414.9	
665.43	5577.3	
665.62	5671.5	
665.8	6525.5	
665.99	6187.6	
666.18	4904.9	
666.36	4972.5	
666.55	6591	
666.74	6486.6	
666.92	4695.3	
667.11	5881.8	
667.29	6234.7	
667.48	6505	
667.67	5423.7	
667.85	4769	
668.04	6128.2	
668.22	6102.9	
668.41	4984.1	
668.6	5190.2	
668.78	5997.1	
668.97	6139.1	
669.15	5188.9	
669.34	4424.3	
669.53	6010.1	
669.71	6238.8	
669.9	4616.1	
670.08	5006.6	
670.27	5967.1	
670.46	6414.2	
670.64	5248.9	
670.83	5309	
671.01	5870.8	
671.2	6346	
671.38	4631.1	
671.57	4531.5	
671.76	6843.6	
671.94	7204.8	
672.13	4460.5	
672.31	5342.5	
672.5	6544.6	
672.69	6004.6	
672.87	4702.8	
673.06	4850.3	
673.24	6398.5	
673.43	6101.6	
673.61	5154.1	
673.8	4808.6	
673.98	6514.6	
674.17	6622.4	
674.36	5317.2	
674.54	5158.2	
674.73	6204	
674.91	6608.1	
675.1	4969.7	
675.28	4569	
675.47	6229.9	
675.65	6591	
675.84	4848.9	
676.03	5081.7	
676.21	5997.1	
676.4	5669.5	
676.58	5364.3	
676.77	5216.2	
676.95	7145.4	
677.14	5978.7	
677.32	4536.3	
677.51	4454.3	
677.69	6619.7	
677.88	5827.8	
678.06	4513	
678.25	4633.9	
678.44	6244.3	
678.62	6030.6	
678.81	4407.2	
678.99	5122	
679.18	6748.1	
679.36	6435.4	
679.55	4767	
679.73	5270.1	
679.92	6363	
680.1	6003.3	
680.29	5588.9	
680.47	4767.7	
680.66	6000.5	
680.84	6544.6	
681.03	4392.9	
681.21	5116.5	
681.4	5997.1	
681.58	5900.9	
681.77	4679.6	
681.95	4629.8	
682.14	6587	
682.32	6816.3	
682.51	5260.5	
682.69	4380.6	
682.88	5912.5	
683.06	6337.8	
683.25	5088.5	
683.43	5310.4	
683.62	6189.6	
683.8	6460	
683.99	5498.1	
684.17	4905.6	
684.36	7092.1	
684.54	6128.9	
684.73	4363.5	
684.91	4463.9	
685.1	6205.3	
685.28	5744.6	
685.46	4894.6	
685.65	4831.2	
685.83	6386.2	
686.02	5877.7	
686.2	4480.3	
686.39	4567.7	
686.57	5699.5	
686.76	6805.4	
686.94	4418.8	
687.13	4614.8	
687.31	6300.9	
687.5	6073.6	
687.68	4214.7	
687.86	4971.8	
688.05	7138.5	
688.23	5528.2	
688.42	5079	
688.6	4495.3	
688.79	5865.4	
688.97	5968.5	
689.16	4861.9	
689.34	4101.4	
689.52	6379.4	
689.71	6594.5	
689.89	5051	
690.08	4595	
690.26	6138.4	
690.45	6000.5	
690.63	5196.4	
690.81	4719.9	
691	6023.1	
691.18	5876.3	
691.37	4856.4	
691.55	6233.3	
691.74	5843.5	
691.92	7261.4	
692.1	4781.3	
692.29	4386.1	
692.47	6018.3	
692.66	5490.6	
692.84	4528.1	
693.02	4833.2	
693.21	5572.5	
693.39	5984.2	
693.58	5008	
693.76	4526.7	
693.94	6808.8	
694.13	6692.1	
694.31	4575.8	
694.5	5279.7	
694.68	5874.3	
694.86	6158.9	
695.05	4823	
695.23	4951.3	
695.42	6379.4	
695.6	7886	
695.78	5236.7	
695.97	4616.8	
696.15	6350.8	
696.34	5879.7	
696.52	4426.3	
696.7	5014.8	
696.89	6229.2	
697.07	5768.4	
697.25	4999.8	
697.44	5943.2	
697.62	6208.8	
697.81	6421.7	
697.99	4757.4	
698.17	5106.3	
698.36	5816.9	
698.54	6206	
698.72	5022.3	
698.91	4266.6	
699.09	5964.4	
699.28	5752.7	
699.46	4757.4	
699.64	4633.2	
699.83	5784.8	
700.01	6576.7	
700.19	5284.4	
700.38	4094.6	
700.56	6580.8	
700.74	5881.8	
700.93	4341	
701.11	5011.4	
701.29	6255.2	
701.48	6959	
701.66	4568.3	
701.84	4678.2	
702.03	5988.3	
702.21	6403.3	
702.39	4249.5	
702.58	4700.8	
702.76	6225.1	
702.94	6350.8	
703.13	4300.7	
703.31	6001.9	
703.49	5751.4	
703.68	6823.8	
703.86	4413.4	
704.04	5165	
704.23	6215.6	
704.41	6397.9	
704.59	4541.7	
704.78	5340.4	
704.96	7334.5	
705.14	6423.1	
705.33	4466.6	
705.51	4914.4	
705.69	5967.1	
705.87	6587.6	
706.06	5107	
706.24	4291.9	
706.42	6226.5	
706.61	6357.6	
706.79	5114.5	
706.97	4405.9	
707.16	5820.3	
707.34	6189.6	
707.52	5142.4	
707.7	4463.9	
707.89	5817.6	
708.07	5690.6	
708.25	5127.4	
708.44	5216.9	
708.62	5851.7	
708.8	6691.4	
708.98	5375.2	
709.17	4574.5	
709.35	6137.8	
709.53	6221	
709.72	4317.8	
709.9	4491.9	
710.08	6485.2	
710.26	6365.1	
710.45	5515.9	
710.63	4635.2	
710.81	6034.7	
710.99	6110.5	
711.18	5114.5	
711.36	4652.3	
711.54	5964.4	
711.72	6422.4	
711.91	4778.6	
712.09	4268.6	
712.27	6039.5	
712.45	6453.8	
712.64	4892.6	
712.82	4132.1	
713	5702.2	
713.18	5838.8	
713.37	4194.9	
713.55	5091.3	
713.73	6397.2	
713.91	5478.3	
714.1	4487.1	
714.28	4126.7	
714.46	6085.2	
714.64	5495.4	
714.83	3717.1	
715.01	4293.2	
715.19	5625.1	
715.37	5085.1	
715.55	4117.8	
715.74	4251.6	
715.92	6175.3	
716.1	4764.3	
716.28	5108.3	
716.47	4345.1	
716.65	5369.1	
716.83	5264	
717.01	4220.2	
717.19	4262.5	
717.38	6853.9	
717.56	5117.2	
717.74	4428.4	
717.92	3876.8	
718.1	6032.6	
718.29	5454.4	
718.47	3601.7	
718.65	4085	
718.83	5963	
719.01	5847.6	
719.2	3510.9	
719.38	4300.7	
719.56	5616.2	
719.74	6784.9	
719.92	4024.9	
720.11	4674.1	
720.29	5791	
720.47	5110.4	
720.65	3681.6	
720.83	4233.2	
721.02	5418.9	
721.2	5263.3	
721.38	4296.6	
721.56	3792.8	
721.74	4869.4	
721.92	4917.2	
722.11	4672.8	
722.29	4440.7	
722.47	5832.6	
722.65	5239.4	
722.83	3847.5	
723.01	4414.7	
723.2	5359.5	
723.38	5549.3	
723.56	3442.6	
723.74	4219.5	
723.92	5015.5	
724.1	5764.3	
724.29	3770.3	
724.47	4532.8	
724.65	5111	
724.83	4911	
725.01	3654.9	
725.19	4220.2	
725.37	4989.5	
725.56	5030.5	
725.74	3603.7	
725.92	3779.9	
726.1	4950.6	
726.28	5244.2	
726.46	4035.9	
726.64	3853.6	
726.83	5224.4	
727.01	5331.5	
727.19	3631	
727.37	4135.5	
727.55	5316.5	
727.73	5660.6	
727.91	3567.6	
728.09	3424.9	
728.28	5652.4	
728.46	5808	
728.64	4260.5	
728.82	4172.4	
729	6450.4	
729.18	5890.6	
729.36	3587.4	
729.54	5113.1	
729.72	6535.8	
729.91	5365.7	
730.09	5075.5	
730.27	4119.1	
730.45	5256.5	
730.63	5748.6	
730.81	4498.7	
730.99	3871.3	
731.17	6161.7	
731.35	5187.5	
731.53	4184	
731.71	3971.7	
731.9	5979.4	
732.08	5984.8	
732.26	4191.5	
732.44	3931.4	
732.62	6087.9	
732.8	5735	
732.98	4491.2	
733.16	3784	
733.34	5755.5	
733.52	4773.1	
733.7	4134.8	
733.88	4276.8	
734.07	5569.8	
734.25	5482.4	
734.43	3753.2	
734.61	4749.2	
734.79	6485.9	
734.97	5389.6	
735.15	3828.3	
735.33	4097.3	
735.51	5668.8	
735.69	5398.4	
735.87	4825.7	
736.05	4184.7	
736.23	5465.3	
736.41	5262.6	
736.59	4075.5	
736.77	4190.8	
736.95	5808	
737.13	5295.4	
737.32	3790.8	
737.5	3962.8	
737.68	6248.4	
737.86	5261.9	
738.04	3765.5	
738.22	5001.8	
738.4	5224.4	
738.58	5415.5	
738.76	4173.1	
738.94	3446	
739.12	5242.1	
739.3	5173.2	
739.48	4551.3	
739.66	4382.7	
739.84	5435.3	
740.02	5455.8	
740.2	3498.6	
740.38	3758	
740.56	5656.5	
740.74	4817.5	
740.92	4213.4	
741.1	4150.5	
741.28	5296	
741.46	5128.8	
741.64	3839.3	
741.82	4274.8	
742	5329.5	
742.18	5227.8	
742.36	4024.9	
742.54	3833.1	
742.72	5782.1	
742.9	4805.2	
743.08	4335.5	
743.26	3444	
743.44	5819.6	
743.62	5721.3	
743.8	4429.8	
743.98	3797.6	
744.16	5511.8	
744.34	5310.4	
744.52	4332.8	
744.7	4306.2	
744.88	5635.3	
745.06	5304.9	
745.24	4302.8	
745.42	4453	
745.6	5773.2	
745.78	5629.2	
745.96	3574.4	
746.14	3749.8	
746.32	6158.2	
746.5	5689.3	
746.68	4113.7	
746.86	3747.1	
747.03	5866.1	
747.21	4796.3	
747.39	4143.7	
747.57	3731.4	
747.75	5377.3	
747.93	5582.8	
748.11	3687.7	
748.29	3648.1	
748.47	6603.3	
748.65	5416.9	
748.83	4234.5	
749.01	4082.3	
749.19	5574.6	
749.37	4856.4	
749.55	3994.2	
749.73	3981.9	
749.91	5365	
750.09	5157.5	
750.26	4033.1	
750.44	3642	
750.62	5297.4	
750.8	5255.1	
750.98	3512.3	
751.16	3828.3	
751.34	5437.4	
751.52	4866.7	
751.7	4285	
751.88	3556.6	
752.06	5721.3	
752.24	5546.6	
752.42	3468.6	
752.59	3811.3	
752.77	5257.1	
752.95	6156.9	
753.13	4275.5	
753.31	3831.1	
753.49	5036	
753.67	5323.4	
753.85	4063.9	
754.03	3771.7	
754.21	5550	
754.38	5808.7	
754.56	3850.9	
754.74	3149.8	
754.92	5045.5	
755.1	5464.7	
755.28	3183.2	
755.46	3206.4	
755.64	6126.8	
755.82	6084.5	
755.99	3414.6	
756.17	3497.9	
756.35	4254.3	
756.53	5427.1	
756.71	2646	
756.89	3304.7	
757.07	5118.6	
757.25	4483	
757.42	3661.1	
757.6	4307.6	
757.78	5165.7	
757.96	4443.4	
758.14	3448.1	
758.32	3139.5	
758.5	4094.6	
758.67	4743.8	
758.85	3324.5	
759.03	3397.6	
759.21	4888.5	
759.39	4476.9	
759.57	3050.1	
759.75	3864.5	
759.92	5364.3	
760.1	4893.3	
760.28	4115.7	
760.46	4300.1	
760.64	4664.6	
760.82	4584	
760.99	3997	
761.17	3469.3	
761.35	5285.8	
761.53	4428.4	
761.71	3476.8	
761.89	4041.3	
762.06	5141.1	
762.24	4801.8	
762.42	3629	
762.6	3437.9	
762.78	4823	
762.96	5274.2	
763.13	3891.1	
763.31	3601	
763.49	5360.2	
763.67	4806.6	
763.85	4252.3	
764.02	4596.3	
764.2	5611.4	
764.38	4892.6	
764.56	3525.2	
764.74	4139.6	
764.91	5639.4	
765.09	4804.5	
765.27	3308.8	
765.45	3185.3	
765.63	5717.9	
765.8	5560.2	
765.98	3044.6	
766.16	3222.8	
766.34	4559.5	
766.52	4370.4	
766.69	3889.1	
766.87	3065.1	
767.05	4863.9	
767.23	5319.9	
767.41	3338.9	
767.58	3511.6	
767.76	5256.5	
767.94	5282.4	
768.12	3470.6	
768.29	3861.8	
768.47	4900.8	
768.65	5405.3	
768.83	3151.1	
769	3902.1	
769.18	4593.6	
769.36	5059.8	
769.54	3932.1	
769.72	3166.2	
769.89	5371.8	
770.07	5296	
770.25	3413.3	
770.43	4248.2	
770.6	5773.2	
770.78	6004.6	
770.96	3561.4	
771.14	3908.9	
771.31	5203.9	
771.49	4747.9	
771.67	2930	
771.85	3061.7	
772.02	4216.8	
772.2	4717.8	
772.38	3740.3	
772.55	3289.7	
772.73	4980.7	
772.91	4799.1	
773.09	3519.8	
773.26	3627.6	
773.44	4939	
773.62	4698.7	
773.8	3246	
773.97	3054.9	
774.15	4941.1	
774.33	4708.3	
774.5	3151.8	
774.68	3367.5	
774.86	5028.4	
775.04	4759.5	
775.21	3210.5	
775.39	3136.8	
775.57	4892.6	
775.74	5105.6	
775.92	3025.5	
776.1	2957.3	
776.27	4928.1	
776.45	5834.7	
776.63	3220.1	
776.81	2889.7	
776.98	4714.4	
777.16	5399.1	
777.34	3282.2	
777.51	3454.2	
777.69	4673.5	
777.87	4429.1	
778.04	3402.4	
778.22	3740.3	
778.4	4493.2	
778.57	4937	
778.75	2809.1	
778.93	3009.1	
779.1	4386.7	
779.28	4235.2	
779.46	2841.2	
779.64	3118.4	
779.81	5111	
779.99	5684.5	
780.17	3732.8	
780.34	3726.6	
780.52	4723.3	
780.69	4841.4	
780.87	3437.2	
781.05	3044.6	
781.22	4775.9	
781.4	4829.8	
781.58	3186.6	
781.75	2569.5	
781.93	4815.5	
782.11	4269.3	
782.28	3853.6	
782.46	3186	
782.64	4195.6	
782.81	4873.5	
782.99	3295.9	
783.17	3285.6	
783.34	4794.3	
783.52	4362.9	
783.69	3369.6	
783.87	3895.2	
784.05	4409.3	
784.22	4293.9	
784.4	3893.2	
784.58	3407.8	
784.75	5081.7	
784.93	4418.2	
785.1	3195.5	
785.28	3611.9	
785.46	4854.4	
785.63	4352.6	
785.81	3213.9	
785.99	3063.1	
786.16	4495.3	
786.34	4779.3	
786.51	3062.4	
786.69	3437.9	
786.87	4204.5	
787.04	4492.6	
787.22	2979.1	
787.39	3646.7	
787.57	4355.3	
787.75	5082.4	
787.92	3841.3	
788.1	3723.2	
788.27	4287.1	
788.45	4134.2	
788.63	3616	
788.8	2628.9	
788.98	4808.6	
789.15	4026.3	
789.33	2752.5	
789.5	3179.8	
789.68	5006.6	
789.86	5145.9	
790.03	3519.8	
790.21	3074	
790.38	5077.6	
790.56	4491.9	
790.73	3044	
790.91	3014.6	
791.09	4334.9	
791.26	4908.3	
791.44	3199.6	
791.61	2794.8	
791.79	4358.1	
791.96	4332.1	
792.14	2892.4	
792.32	2611.2	
792.49	4349.2	
792.67	4468.7	
792.84	2945	
793.02	2779.1	
793.19	4768.4	
793.37	5118.6	
793.54	2570.2	
793.72	2880.8	
793.89	5212.8	
794.07	4342.4	
794.25	3140.2	
794.42	2669.2	
794.6	5090.6	
794.77	4790.9	
794.95	3485	
795.12	3062.4	
795.3	4334.9	
795.47	4789.5	
795.65	3325.9	
795.82	3180.5	
796	4247.5	
796.17	5535	
796.35	3106.1	
796.52	3663.8	
796.7	4766.3	
796.87	4777.9	
797.05	3116.3	
797.22	3711.6	
797.4	4825	
797.57	5502.2	
797.75	3246.7	
797.92	3110.2	
798.1	5026.4	
798.27	4261.1	
798.45	2695.1	
798.62	2850.1	
798.8	4549.9	
798.97	4909.7	
799.15	3384.6	
799.32	3190.7	
799.5	4082.3	
799.67	4545.8	
799.85	3502.7	
800.02	2624.1	
800.2	4362.2	
800.37	4525.3	
800.55	3600.3	
800.72	3067.9	
800.9	4966.3	
801.07	5194.3	
801.25	3952.6	
801.42	3304.7	
801.6	4986.8	
801.77	4620.2	
801.95	3125.2	
802.12	2984.6	
802.29	4687.1	
802.47	4653.7	
802.64	3306.1	
802.82	2594.8	
802.99	4325.3	
803.17	4956.1	
803.34	3226.2	
803.52	2956.6	
803.69	5465.3	
803.87	4169.7	
804.04	3233.1	
804.21	3242.6	
804.39	5161.6	
804.56	4436.6	
804.74	2809.1	
804.91	3322.5	
805.09	4367.6	
805.26	4373.8	
805.44	2837.1	
805.61	3099.9	
805.78	4874.8	
805.96	4803.2	
806.13	3321.8	
806.31	3512.9	
806.48	4007.9	
806.66	4364.9	
806.83	3303.4	
807	3191.4	
807.18	4378.6	
807.35	4564.2	
807.53	3067.2	
807.7	2669.2	
807.87	5147.9	
808.05	4330.1	
808.22	3507.5	
808.4	2681.5	
808.57	4300.7	
808.74	4089.1	
808.92	2963.4	
809.09	3748.5	
809.27	4394.9	
809.44	4727.4	
809.61	2660.3	
809.79	2848	
809.96	5264.6	
810.14	4823	
810.31	2683.5	
810.48	3146.4	
810.66	4401.1	
810.83	4872.1	
811.01	3063.1	
811.18	3290.4	
811.35	4888.5	
811.53	3940.3	
811.7	3546.4	
811.87	3293.8	
812.05	4425	
812.22	4250.9	
812.39	2912.9	
812.57	2846	
812.74	4420.9	
812.92	5538.4	
813.09	3172.3	
813.26	3312.2	
813.44	5372.5	
813.61	4252.9	
813.78	2674.6	
813.96	3437.2	
814.13	4379.9	
814.3	4188.1	
814.48	3739.6	
814.65	3072	
814.82	5170.4	
815	4141	
815.17	3231.7	
815.34	3806.5	
815.52	4307.6	
815.69	4265.2	
815.87	3087.7	
816.04	3063.8	
816.21	4384	
816.38	3998.3	
816.56	3096.5	
816.73	2945.7	
816.9	5457.2	
817.08	4830.5	
817.25	2947.7	
817.42	3553.9	
817.6	4059.8	
817.77	4334.9	
817.94	3254.9	
818.12	2873.3	
818.29	4186.7	
818.46	6032	
818.64	2962	
818.81	2899.9	
818.98	4130.1	
819.16	5683.1	
819.33	3429.7	
819.5	3202.3	
819.67	4626.4	
819.85	5078.3	
820.02	3153.2	
820.19	3304.7	
820.37	4549.2	
820.54	4225	
820.71	3234.4	
820.88	4018.1	
821.06	4566.3	
821.23	4164.9	
821.4	3323.9	
821.58	3231.7	
821.75	4874.8	
821.92	4435.2	
822.09	2682.2	
822.27	2800.9	
822.44	4369	
822.61	4297.3	
822.79	2726.5	
822.96	4852.3	
823.13	4655.7	
823.3	4091.2	
823.48	3049.4	
823.65	2796.8	
823.82	4870.8	
823.99	4055	
824.17	3864.5	
824.34	2818	
824.51	5537.7	
824.68	4376.5	
824.86	2969.6	
825.03	3268.6	
825.2	4384.7	
825.37	5107.6	
825.55	2957.9	
825.72	3182.5	
825.89	5532.9	
826.06	5189.6	
826.24	3101.3	
826.41	3161.4	
826.58	5195	
826.75	4570.4	
826.92	2585.2	
827.1	2831	
827.27	6697.5	
827.44	5430.5	
827.61	3009.1	
827.79	3529.3	
827.96	4222.2	
828.13	4390.8	
828.3	3069.2	
828.47	2634.4	
828.65	4651.6	
828.82	4568.3	
828.99	3872.7	
829.16	3438.5	
829.34	4977.9	
829.51	4722.6	
829.68	3219.4	
829.85	3279.5	
830.02	5184.8	
830.2	4898.7	
830.37	2544.9	
830.54	3781.9	
830.71	5424.4	
830.88	4433.9	
831.05	2551.1	
831.23	2897.2	
831.4	5347.2	
831.57	5640.8	
831.74	2981.8	
831.91	2655.5	
832.09	4703.5	
832.26	4836.6	
832.43	3035.8	
832.6	3327.9	
832.77	4612.7	
832.94	5167	
833.12	2459.6	
833.29	2983.2	
833.46	4706.9	
833.63	5868.1	
833.8	3291.8	
833.97	3076	
834.15	4912.4	
834.32	4763.6	
834.49	3160	
834.66	3261.7	
834.83	5002.5	
835	4235.2	
835.17	2975.7	
835.35	2943.6	
835.52	4820.2	
835.69	4699.4	
835.86	3134.8	
836.03	2641.2	
836.2	4843.4	
836.37	4555.4	
836.55	2992.8	
836.72	2859.6	
836.89	4584.7	
837.06	4947.2	
837.23	3057.6	
837.4	3327.3	
837.57	5455.1	
837.75	5840.8	
837.92	2816	
838.09	2983.2	
838.26	4516.5	
838.43	5054.4	
838.6	3205.8	
838.77	2872.6	
838.94	5573.9	
839.11	5530.9	
839.29	3091.1	
839.46	2461	
839.63	4875.5	
839.8	4649.6	
839.97	2987.3	
840.14	2938.8	
840.31	4714.4	
840.48	4862.6	
840.65	2547	
840.82	2898.6	
841	4835.3	
841.17	4758.8	
841.34	2712.2	
841.51	2842.6	
841.68	4869.4	
841.85	4615.4	
842.02	2846.7	
842.19	2439.1	
842.36	4655.7	
842.53	4678.9	
842.7	2797.5	
842.87	3245.3	
843.05	5879.7	
843.22	4590.9	
843.39	2651.4	
843.56	2856.9	
843.73	4515.1	
843.9	4951.3	
844.07	4271.4	
844.24	3569.6	
844.41	6528.2	
844.58	4317.8	
844.75	2715.6	
844.92	2887.6	
845.09	4859.8	
845.26	4844.8	
845.43	2742.9	
845.6	2945.7	
845.77	4829.1	
845.94	4638.6	
846.12	2950.4	
846.29	3155.2	
846.46	5031.2	
846.63	4752	
846.8	2770.9	
846.97	3226.9	
847.14	5208.7	
847.31	4792.9	
847.48	3072.6	
847.65	3329.3	
847.82	4977.9	
847.99	4947.9	
848.16	3607.2	
848.33	3325.2	
848.5	4506.9	
848.67	5196.4	
848.84	2740.2	
849.01	2814.6	
849.18	4446.1	
849.35	4245.4	
849.52	3407.8	
849.69	2677.4	
849.86	5044.8	
850.03	5102.2	
850.2	2753.8	
850.37	3291.8	
850.54	5041.4	
850.71	4640	
850.88	3271.3	
851.05	2714.2	
851.22	4722.6	
851.39	5202.5	
851.56	2581.8	
851.73	3149.8	
851.9	4322.6	
852.07	5022.3	
852.24	3016	
852.41	2730.6	
852.58	4780.6	
852.75	4404.5	
852.92	3112.9	
853.09	2687.6	
853.26	4485.1	
853.43	5125.4	
853.6	2770.9	
853.77	2398.2	
853.94	5238.7	
854.11	4319.2	
854.28	3879.5	
854.44	2947	
854.61	5485.8	
854.78	5076.9	
854.95	2743.6	
855.12	3310.9	
855.29	4020.8	
855.46	5385.5	
855.63	2738.8	
855.8	3683.6	
855.97	4532.8	
856.14	5064.6	
856.31	3706.8	
856.48	2950.4	
856.65	4557.4	
856.82	4261.1	
856.99	2628.9	
857.16	2961.4	
857.33	5734.3	
857.49	4633.2	
857.66	2932.7	
857.83	3178.4	
858	4617.5	
858.17	4756.1	
858.34	2640.5	
858.51	2788	
858.68	5317.9	
858.85	5266	
859.02	3075.4	
859.19	3306.8	
859.36	4384.7	
859.52	4341	
859.69	2770.2	
859.86	3216	
860.03	4364.9	
860.2	5166.3	
860.37	2571.6	
860.54	2777	
860.71	4985.4	
860.88	5261.2	
861.05	2988	
861.21	3404.4	
861.38	5272.8	
861.55	4182.6	
861.72	2536.1	
861.89	3030.3	
862.06	5087.2	
862.23	5305.6	
862.4	2624.8	
862.56	2837.8	
862.73	4935.6	
862.9	4651.6	
863.07	3127.9	
863.24	2555.2	
863.41	4250.2	
863.58	4388.8	
863.75	2761.3	
863.91	3203.7	
864.08	5168.4	
864.25	4919.2	
864.42	3364.1	
864.59	3697.9	
864.76	5450.3	
864.93	4289.8	
865.09	2690.3	
865.26	2901.3	
865.43	5185.5	
865.6	5410.7	
865.77	2461	
865.94	2696.5	
866.1	5125.4	
866.27	4923.3	
866.44	3945.8	
866.61	2616.6	
866.78	4579.3	
866.95	4878.9	
867.11	2675.3	
867.28	2450.7	
867.45	5076.9	
867.62	4370.4	
867.79	3183.2	
867.96	2703.3	
868.12	4313.7	
868.29	4992.3	
868.46	2798.2	
868.63	3550.5	
868.8	5069.4	
868.97	4928.1	
869.13	2822.8	
869.3	2840.5	
869.47	4844.1	
869.64	5053.7	
869.81	2766.1	
869.97	2781.1	
870.14	4738.3	
870.31	5270.1	
870.48	2713.6	
870.65	3347.1	
870.81	4590.9	
870.98	4614.1	
871.15	3070.6	
871.32	2866.5	
871.48	4865.3	
871.65	5291.3	
871.82	2721.8	
871.99	2951.1	
872.16	5642.2	
872.32	5109	
872.49	2760.7	
872.66	2779.1	
872.83	4927.4	
872.99	4541.7	
873.16	3059.7	
873.33	2791.4	
873.5	4714.4	
873.67	4762.2	
873.83	2888.3	
874	3538.9	
874.17	4818.9	
874.34	5513.8	
874.5	3422.8	
874.67	3368.2	
874.84	5283.8	
875.01	4249.5	
875.17	3701.4	
875.34	2734	
875.51	4758.1	
875.68	5669.5	
875.84	3246	
876.01	3837.9	
876.18	4956.8	
876.34	4924	
876.51	2759.3	
876.68	2740.2	
876.85	4587.4	
877.01	5184.8	
877.18	3775.8	
877.35	2713.6	
877.52	4777.2	
877.68	4294.6	
877.85	2740.2	
878.02	2648.7	
878.18	4598.4	
878.35	4474.1	
878.52	2251.4	
878.69	3046	
878.85	5058.5	
879.02	4918.5	
879.19	3775.8	
879.35	2940.2	
879.52	4941.1	
879.69	5025	
879.86	2467.8	
880.02	3023.5	
880.19	4687.8	
880.36	5495.4	
880.52	3112.9	
880.69	3197.6	
880.86	5033.2	
881.02	5023.7	
881.19	2951.8	
881.36	2959.3	
881.52	4898.1	
881.69	4427	
881.86	2958.6	
882.02	2854.2	
882.19	5151.3	
882.36	5814.2	
882.52	2811.2	
882.69	3748.5	
882.86	4780.6	
883.02	4731.5	
883.19	3212.6	
883.36	3096.5	
883.52	5068.7	
883.69	5625.1	
883.86	2787.3	
884.02	2559.3	
884.19	4942.4	
884.36	4732.2	
884.52	3079.5	
884.69	2964.8	
884.86	4543.1	
885.02	5339.1	
885.19	3012.6	
885.36	3088.3	
885.52	4618.2	
885.69	4770.4	
885.86	3824.9	
886.02	3395.5	
886.19	4972.5	
886.35	4498.7	
886.52	2998.2	
886.69	3702	
886.85	4345.8	
887.02	5204.6	
887.19	5204.6	
887.35	5204.6	
887.52	5204.6	
887.68	5204.6	
887.85	5204.6	
888.02	5204.6	
888.18	5204.6	
888.35	5204.6	
888.51	5204.6	
888.68	5204.6	
888.85	5204.6	
889.01	5204.6	
889.18	5204.6	
889.35	5204.6	
889.51	5204.6	
889.68	5204.6	
889.84	5204.6	
890.01	5204.6	
890.17	5204.6	
890.34	5204.6	
890.51	5204.6	
890.67	5204.6	
890.84	5204.6	
891	5204.6	
891.17	5204.6	
891.34	5204.6	
891.5	5204.6	
891.67	5204.6	
891.83	5204.6	
892	5204.6	
892.16	5204.6	
892.33	5204.6	
892.5	5204.6	
892.66	5204.6	
892.83	5204.6	
892.99	5204.6	
893.16	5204.6	
893.32	5204.6	
893.49	5204.6	
893.65	5204.6	
893.82	5204.6	
893.99	5204.6	
894.15	5204.6	
894.32	5204.6	
894.48	5204.6	
894.65	5204.6	
894.81	5204.6	
894.98	5204.6	
895.14	5204.6	
895.31	5204.6	
895.47	5204.6	
895.64	5204.6	
895.81	5204.6	
895.97	5204.6	
896.14	5204.6	
896.3	5204.6	
896.47	5204.6	
896.63	5204.6	
896.8	5204.6	
896.96	5204.6	
897.13	5204.6	
897.29	5204.6	
897.46	5204.6	
897.62	5204.6	
897.79	5204.6	
897.95	5204.6	
898.12	5204.6	
898.28	5204.6	
898.45	5204.6	
898.61	5204.6	
898.78	5204.6	
898.94	5204.6	
899.11	5204.6	
899.27	5204.6	
899.44	5204.6	
899.6	5204.6	
899.77	5204.6	
899.93	5204.6	
900.1	5204.6	
900.26	5204.6	
900.43	5204.6	
900.59	5204.6	
900.76	5204.6	
900.92	5204.6	
901.09	5204.6	
901.25	5204.6	
901.42	5204.6	
901.58	5204.6	
901.75	5204.6	
901.91	5204.6	
902.07	5204.6	
902.24	5204.6	
902.4	5204.6	
902.57	5204.6	
902.73	5204.6	
902.9	5204.6	
903.06	5204.6	
903.23	5204.6	
903.39	5204.6	
903.56	5204.6	
903.72	5204.6	
903.88	5204.6	
904.05	5204.6	
904.21	5204.6	
904.38	5204.6	
904.54	5204.6	
904.71	5204.6	
904.87	5204.6	
905.03	5204.6	
905.2	5204.6	
905.36	5204.6	
905.53	5204.6	
905.69	5204.6	
905.86	5204.6	
906.02	5204.6	
906.18	5204.6	
906.35	5204.6	
906.51	5204.6	
906.68	5204.6	
906.84	5204.6	
907.01	5204.6	
907.17	5204.6	
907.33	5204.6	
907.5	5204.6	
907.66	5204.6	
907.83	5204.6	
907.99	5204.6	
908.15	5204.6	
908.32	5204.6	
908.48	5204.6	
908.65	5204.6	
908.81	5204.6	
908.97	5204.6	
909.14	5204.6	
909.3	5204.6	
909.47	5204.6	
909.63	5204.6	
909.79	5204.6	
909.96	5204.6	
910.12	5204.6	
910.28	5204.6	
910.45	5204.6	
910.61	5204.6	
910.78	5204.6	
910.94	5204.6	
911.1	5204.6	
911.27	5204.6	
911.43	5204.6	
911.59	5204.6	
911.76	5204.6	
911.92	5204.6	
912.08	5204.6	
912.25	5204.6	
912.41	5204.6	
912.57	5204.6	
912.74	5204.6	
912.9	5204.6	
913.07	5204.6	
913.23	5204.6	
913.39	5204.6	
913.56	5204.6	
913.72	5204.6	
913.88	5204.6	
914.05	5204.6	
914.21	5204.6	
914.37	5204.6	
914.54	5204.6	
914.7	5204.6	
914.86	5204.6	
915.03	5204.6	
915.19	5204.6	
