Wavelength	Intensities	
nm	a.u.	
179.22	1936.9	
179.44	1936.4	
179.65	1937.4	
179.86	1935.3	
180.08	1923.7	
180.29	5086.5	
180.51	3574.4	
180.72	5719.3	
180.94	6810.2	
181.15	3294.5	
181.37	3250.8	
181.58	5651.7	
181.79	5948.7	
182.01	3458.3	
182.22	3773.7	
182.44	5887.9	
182.65	4926.7	
182.87	4717.8	
183.08	4094.6	
183.29	6154.8	
183.51	5092.6	
183.72	3794.9	
183.94	5543.9	
184.15	5504.3	
184.37	5535	
184.58	3298.6	
184.79	4498.7	
185.01	5139	
185.22	5852.4	
185.44	4835.9	
185.65	4085	
185.86	5412.8	
186.08	4996.4	
186.29	3192.1	
186.51	3464.5	
186.72	5122.7	
186.94	6040.1	
187.15	4018.1	
187.36	4139.6	
187.58	7974.8	
187.79	5653.1	
188.01	4343.1	
188.22	6797.2	
188.43	6797.2	
188.65	5879.7	
188.86	3497.9	
189.08	4151.9	
189.29	5308.3	
189.5	5313.8	
189.72	3848.8	
189.93	3947.8	
190.15	6129.6	
190.36	7271.7	
190.57	4255	
190.79	4059.8	
191	6249.7	
191.22	6147.3	
191.43	4222.2	
191.64	3458.3	
191.86	6413.6	
192.07	6132.3	
192.29	3618.8	
192.5	3844.7	
192.71	6122.1	
192.93	5241.4	
193.14	3817.4	
193.35	3844	
193.57	5271.5	
193.78	6092	
194	3058.3	
194.21	3710.9	
194.42	4978.6	
194.64	5538.4	
194.85	4154.6	
195.07	4913.8	
195.28	5726.8	
195.49	4831.8	
195.71	5119.2	
195.92	3572.3	
196.13	5687.2	
196.35	5937.7	
196.56	5574.6	
196.78	4135.5	
196.99	7232.7	
197.2	6793.8	
197.42	4788.2	
197.63	4213.4	
197.84	4912.4	
198.06	5767.1	
198.27	3887	
198.48	5157.5	
198.7	5271.5	
198.91	5410.1	
199.13	4194.2	
199.34	4151.2	
199.55	5963.7	
199.77	4811.4	
199.98	3663.8	
200.19	4301.4	
200.41	5313.8	
200.62	5069.4	
200.83	4391.5	
201.05	4705.5	
201.26	5455.1	
201.47	5125.4	
201.69	3697.3	
201.9	3528	
202.11	5478.3	
202.33	6576	
202.54	3984.7	
202.76	4420.9	
202.97	5684.5	
203.18	5602.6	
203.4	4349.9	
203.61	4292.5	
203.82	5616.9	
204.04	5171.1	
204.25	4256.4	
204.46	4149.9	
204.68	5532.9	
204.89	5839.4	
205.1	4108.2	
205.32	3553.9	
205.53	5952.1	
205.74	6067.4	
205.96	3035.8	
206.17	4322.6	
206.38	5907.7	
206.6	6043.6	
206.81	4840	
207.02	3898	
207.24	5810.1	
207.45	6199.2	
207.66	3990.8	
207.88	3408.5	
208.09	5732.3	
208.3	5522	
208.52	3687	
208.73	4069.3	
208.94	5547.9	
209.15	6285.9	
209.37	4002.4	
209.58	4188.1	
209.79	6124.1	
210.01	5328.8	
210.22	3167.5	
210.43	3287	
210.65	5560.2	
210.86	5957.5	
211.07	3944.4	
211.29	3713	
211.5	5941.2	
211.71	5440.8	
211.93	3635.1	
212.14	3624.2	
212.35	5438.7	
212.56	5731.6	
212.78	4236.6	
212.99	3454.9	
213.2	6512.5	
213.42	5259.9	
213.63	3803.1	
213.84	4065.9	
214.06	4871.4	
214.27	5018.2	
214.48	3961.5	
214.69	4245.4	
214.91	6219.7	
215.12	6332.3	
215.33	4325.3	
215.55	4762.2	
215.76	6864.8	
215.97	5924.1	
216.18	4131.4	
216.4	4062.5	
216.61	5141.8	
216.82	6045.6	
217.04	3637.9	
217.25	3839.3	
217.46	6277.7	
217.67	5967.1	
217.89	3271.3	
218.1	3362.1	
218.31	5644.2	
218.53	5773.2	
218.74	3846.1	
218.95	3722.5	
219.16	5468.8	
219.38	6503.7	
219.59	3772.4	
219.8	4496.7	
220.01	7246.4	
220.23	5625.1	
220.44	4934.2	
220.65	3657.7	
220.87	5597.1	
221.08	6178	
221.29	3418.1	
221.5	4575.8	
221.72	7621.2	
221.93	5232.6	
222.14	4214.7	
222.35	4994.3	
222.57	5526.1	
222.78	5803.9	
222.99	4015.4	
223.2	4408.6	
223.42	5849.7	
223.63	6007.4	
223.84	3048.7	
224.05	3093.1	
224.27	7077.8	
224.48	6495.5	
224.69	4957.4	
224.9	4127.3	
225.12	5732.9	
225.33	5508.4	
225.54	3323.9	
225.75	3780.6	
225.97	5070.8	
226.18	5381.4	
226.39	4077.5	
226.6	3771	
226.82	5223.7	
227.03	5132.2	
227.24	4154.6	
227.45	3475.4	
227.67	5923.4	
227.88	6496.8	
228.09	4685.1	
228.3	4721.3	
228.52	5918.6	
228.73	5479	
228.94	3932.8	
229.15	3477.5	
229.36	5460.6	
229.58	5349.3	
229.79	3888.4	
230	4578.6	
230.21	6564.4	
230.43	5627.8	
230.64	4156	
230.85	4366.3	
231.06	6053.1	
231.28	5985.5	
231.49	3430.3	
231.7	4053.6	
231.91	5842.9	
232.12	5629.9	
232.34	3478.8	
232.55	4056.3	
232.76	6268.1	
232.97	5743.2	
233.18	3691.8	
233.4	4115.7	
233.61	5719.3	
233.82	5280.3	
234.03	3865.9	
234.25	3753.9	
234.46	7815	
234.67	5518.6	
234.88	4301.4	
235.09	3728	
235.31	5844.9	
235.52	5420.3	
235.73	4150.5	
235.94	3545.7	
236.15	5218.9	
236.37	6771.9	
236.58	3681.6	
236.79	3997	
237	5829.2	
237.21	5009.3	
237.43	4320.5	
237.64	3360.7	
237.85	10157	
238.06	5060.5	
238.27	4379.2	
238.48	3479.5	
238.7	5887.2	
238.91	5315.8	
239.12	3923.9	
239.33	4042.7	
239.54	5109	
239.76	5466.7	
239.97	3958.7	
240.18	3977.8	
240.39	6982.2	
240.6	5856.5	
240.82	4129.4	
241.03	3463.1	
241.24	5495.4	
241.45	6442.2	
241.66	3683.6	
241.87	4300.1	
242.09	6307.7	
242.3	6719.4	
242.51	4372.4	
242.72	4052.9	
242.93	6028.5	
243.14	5461.9	
243.36	4680.3	
243.57	5078.3	
243.78	6417	
243.99	5892.7	
244.2	4012	
244.41	3700	
244.63	5037.3	
244.84	5891.3	
245.05	4274.1	
245.26	4020.8	
245.47	5845.6	
245.68	6137.1	
245.9	5470.1	
246.11	4287.8	
246.32	5348.6	
246.53	5828.5	
246.74	6617.7	
246.95	3362.8	
247.16	5038.7	
247.38	5545.9	
247.59	3310.9	
247.8	4076.1	
248.01	5203.9	
248.22	5436.7	
248.43	3659	
248.64	3955.3	
248.86	4884.4	
249.07	5257.8	
249.28	3471.3	
249.49	4098	
249.7	6118	
249.91	6244.9	
250.12	3318.4	
250.34	3420.8	
250.55	5619.6	
250.76	5520	
250.97	4155.3	
251.18	4193.6	
251.39	6251.8	
251.6	5729.5	
251.81	4308.9	
252.03	4298	
252.24	5228.5	
252.45	6100.2	
252.66	3493.8	
252.87	4466.6	
253.08	5573.9	
253.29	7470.3	
253.5	3483.6	
253.72	4931.5	
253.93	5360.9	
254.14	6610.2	
254.35	3846.1	
254.56	3933.5	
254.77	5808	
254.98	5157.5	
255.19	3792.2	
255.41	4920.6	
255.62	5631.2	
255.83	6195.1	
256.04	4407.2	
256.25	4268.6	
256.46	6897.6	
256.67	5138.4	
256.88	4179.2	
257.09	4647.5	
257.31	5197.1	
257.52	5192.3	
257.73	5234.6	
257.94	3814	
258.15	5326.8	
258.36	5547.3	
258.57	4823	
258.78	3018.7	
258.99	6120	
259.2	5441.5	
259.41	3838.6	
259.63	3932.8	
259.84	6430.6	
260.05	6931	
260.26	5130.2	
260.47	3764.2	
260.68	6159.6	
260.89	5492	
261.1	4563.6	
261.31	3686.3	
261.52	6144.6	
261.73	6612.2	
261.95	4934.9	
262.16	4358.8	
262.37	6255.9	
262.58	6365.8	
262.79	4944.5	
263	3898	
263.21	5543.9	
263.42	5061.9	
263.63	3932.8	
263.84	3925.3	
264.05	6092.7	
264.26	6520.7	
264.47	4849.6	
264.69	4346.5	
264.9	6253.1	
265.11	5779.4	
265.32	3658.4	
265.53	3856.3	
265.74	5690.6	
265.95	4919.9	
266.16	4163.5	
266.37	4531.5	
266.58	5659.2	
266.79	5376.6	
267	3789.4	
267.21	3534.1	
267.42	5077.6	
267.63	5544.5	
267.84	4009.2	
268.06	3362.8	
268.27	5976	
268.48	6303	
268.69	3877.5	
268.9	4624.3	
269.11	6286.6	
269.32	5020.3	
269.53	4014	
269.74	3721.8	
269.95	5881.8	
270.16	4883	
270.37	4038.6	
270.58	4686.4	
270.79	5380	
271	6068.1	
271.21	4338.3	
271.42	4021.5	
271.63	5623.7	
271.84	5176.6	
272.05	3120.4	
272.26	3643.3	
272.47	5530.9	
272.68	5737	
272.89	3808.5	
273.11	4471.4	
273.32	5342.5	
273.53	6565.8	
273.74	4336.2	
273.95	4261.8	
274.16	6233.3	
274.37	5595.7	
274.58	4336.9	
274.79	3485	
275	5682.4	
275.21	6313.9	
275.42	5300.1	
275.63	4579.3	
275.84	5792.3	
276.05	7398.6	
276.26	4260.5	
276.47	3966.2	
276.68	5365	
276.89	6655.2	
277.1	4547.2	
277.31	3558.7	
277.52	5815.5	
277.73	5980.8	
277.94	3426.3	
278.15	3885.7	
278.36	5755.5	
278.57	5206.6	
278.78	3870	
278.99	4338.3	
279.2	5160.2	
279.41	5103.5	
279.62	5142.4	
279.83	3532.7	
280.04	6862.1	
280.25	5042.1	
280.46	5061.2	
280.67	3990.1	
280.88	5133.6	
281.09	6216.3	
281.3	4232.5	
281.51	5376.6	
281.72	5228.5	
281.93	6095.4	
282.14	3756.7	
282.35	4057	
282.56	6113.9	
282.77	6060.6	
282.98	3891.8	
283.19	4784.1	
283.4	7537.9	
283.61	5504.3	
283.82	3570.3	
284.03	5029.8	
284.24	5623	
284.45	6201.2	
284.66	5025.7	
284.87	4840	
285.08	6111.8	
285.29	6333	
285.5	3410.6	
285.71	3966.2	
285.92	6233.3	
286.12	6918	
286.33	4973.2	
286.54	3876.1	
286.75	6021	
286.96	5365.7	
287.17	3548.4	
287.38	4904.2	
287.59	5168.4	
287.8	5119.9	
288.01	3941	
288.22	4609.3	
288.43	6075.6	
288.64	5018.9	
288.85	4692.6	
289.06	4444.8	
289.27	5995.8	
289.48	6530.3	
289.69	5017.5	
289.9	4511	
290.11	6209.4	
290.32	5249.6	
290.53	4797	
290.74	4326.7	
290.94	6005.3	
291.15	6102.9	
291.36	3775.8	
291.57	4513.7	
291.78	5274.9	
291.99	4985.4	
292.2	3601.7	
292.41	4400.4	
292.62	6114.6	
292.83	5950	
293.04	5417.6	
293.25	3622.2	
293.46	5322.7	
293.67	6170.5	
293.88	3816.7	
294.09	3620.1	
294.29	5074.9	
294.5	5675.6	
294.71	4099.4	
294.92	3872.7	
295.13	5354.1	
295.34	6692.1	
295.55	3331.4	
295.76	3508.9	
295.97	5936.4	
296.18	6841.6	
296.39	3607.2	
296.6	3754.6	
296.81	5670.8	
297.01	5987.6	
297.22	3872	
297.43	3784	
297.64	5134.3	
297.85	5166.3	
298.06	3117.7	
298.27	3353.9	
298.48	5567.7	
298.69	5315.8	
298.9	4103.4	
299.11	3706.1	
299.31	4986.8	
299.52	5048.2	
299.73	4402.5	
299.94	4328	
300.15	5536.3	
300.36	5125.4	
300.57	4334.2	
300.78	4274.1	
300.99	5456.5	
301.2	5679.7	
301.4	3713.6	
301.61	4087.1	
301.82	5885.2	
302.03	6039.5	
302.24	4586.8	
302.45	3622.9	
302.66	5882.4	
302.87	6411.5	
303.08	3796.3	
303.29	5169.1	
303.49	5300.1	
303.7	5633.3	
303.91	3355.9	
304.12	4989.5	
304.33	5055.1	
304.54	5651.7	
304.75	3823.6	
304.96	3637.2	
305.16	5904.3	
305.37	6655.2	
305.58	3298.6	
305.79	3376.4	
306	5879	
306.21	4889.2	
306.42	3894.6	
306.63	5834.7	
306.83	5375.9	
307.04	6202.6	
307.25	4108.2	
307.46	4160.8	
307.67	4709.6	
307.88	6020.3	
308.09	3674.1	
308.29	3855	
308.5	5596.4	
308.71	6152.8	
308.92	4089.1	
309.13	3588.7	
309.34	5393	
309.55	5492	
309.75	4678.2	
309.96	4313	
310.17	6059.9	
310.38	5261.2	
310.59	4530.8	
310.8	3578.5	
311.01	6759.7	
311.21	5440.8	
311.42	3583.3	
311.63	3685	
311.84	5297.4	
312.05	5667.4	
312.26	4205.8	
312.46	4581.3	
312.67	5347.2	
312.88	5089.9	
313.09	3648.8	
313.3	3579.8	
313.51	6430.6	
313.71	6821.8	
313.92	3669.3	
314.13	3828.3	
314.34	5773.9	
314.55	5484.5	
314.76	4729.4	
314.96	4074.1	
315.17	5587.5	
315.38	6031.3	
315.59	3627.6	
315.8	3503.4	
316.01	6505.7	
316.21	6527.6	
316.42	3481.5	
316.63	4022.2	
316.84	5397.8	
317.05	6341.9	
317.26	4306.9	
317.46	3839.9	
317.67	5456.5	
317.88	5928.9	
318.09	4641.4	
318.3	3433.1	
318.5	5249.6	
318.71	5901.6	
318.92	5955.5	
319.13	4272.7	
319.34	6092.7	
319.54	6250.4	
319.75	3359.4	
319.96	3238.5	
320.17	5943.9	
320.38	6194.4	
320.58	3274	
320.79	4036.5	
321	6220.4	
321.21	6253.8	
321.42	4031.1	
321.62	3308.2	
321.83	5170.4	
322.04	5588.2	
322.25	3851.5	
322.46	3652.9	
322.66	5752.1	
322.87	5810.8	
323.08	4549.2	
323.29	3582.6	
323.5	6643.6	
323.7	5096	
323.91	5037.3	
324.12	4519.9	
324.33	5621	
324.53	5900.2	
324.74	4343.7	
324.95	4595.6	
325.16	4883.7	
325.37	5369.8	
325.57	3635.1	
325.78	3693.9	
325.99	5626.5	
326.2	4997.7	
326.4	5238	
326.61	3336.8	
326.82	5470.8	
327.03	5666	
327.24	5261.9	
327.44	5051	
327.65	5899.5	
327.86	4704.2	
328.07	4352.6	
328.27	3454.9	
328.48	6279.1	
328.69	5089.9	
328.9	5317.2	
329.1	3957.4	
329.31	5419.6	
329.52	6398.5	
329.73	3631	
329.93	4161.5	
330.14	5537	
330.35	5806	
330.56	6075	
330.76	4534.9	
330.97	5375.9	
331.18	5824.4	
331.39	4102.1	
331.59	3248.8	
331.8	6115.2	
332.01	6323.4	
332.22	3738.2	
332.42	4394.3	
332.63	5648.3	
332.84	5237.3	
333.05	4076.1	
333.25	3735.5	
333.46	5369.8	
333.67	5625.1	
333.88	3803.8	
334.08	4287.8	
334.29	7415.7	
334.5	6262.7	
334.7	3557.3	
334.91	5227.8	
335.12	5085.8	
335.33	6059.3	
335.53	4055	
335.74	6110.5	
335.95	5368.4	
336.16	5188.2	
336.36	4056.3	
336.57	4690.5	
336.78	5059.2	
336.98	6158.9	
337.19	5025	
337.4	3965.6	
337.61	6778.8	
337.81	5057.8	
338.02	3773	
338.23	4847.5	
338.43	6340.5	
338.64	5195.7	
338.85	3721.8	
339.05	4868	
339.26	6371.2	
339.47	4982.7	
339.68	3635.8	
339.88	5500.8	
340.09	5769.8	
340.3	6071.5	
340.5	4394.3	
340.71	3308.8	
340.92	4999.8	
341.13	6355.5	
341.33	3541.6	
341.54	4343.7	
341.75	5780.7	
341.95	5405.3	
342.16	4164.9	
342.37	4489.8	
342.57	5115.8	
342.78	5504.9	
342.99	4578.6	
343.19	3290.4	
343.4	5963	
343.61	5808.7	
343.81	3934.1	
344.02	3609.2	
344.23	5943.2	
344.43	6449.1	
344.64	4546.5	
344.85	4435.2	
345.06	5868.1	
345.26	6193.7	
345.47	4294.6	
345.68	4975.9	
345.88	4891.2	
346.09	6047.7	
346.3	4334.2	
346.5	3211.9	
346.71	5595.1	
346.92	5296.7	
347.12	3365.5	
347.33	4311	
347.54	6134.3	
347.74	6583.5	
347.95	4179.9	
348.16	3134.1	
348.36	5390.9	
348.57	5160.2	
348.78	4192.2	
348.98	4575.8	
349.19	5596.4	
349.39	4954	
349.6	3348.4	
349.81	3753.9	
350.01	5826.5	
350.22	5319.9	
350.43	4097.3	
350.63	4915.1	
350.84	5628.5	
351.05	5393.7	
351.25	3736.9	
351.46	3385.3	
351.67	6184.9	
351.87	5291.3	
352.08	3938.2	
352.29	4481	
352.49	6060.6	
352.7	5693.4	
352.9	3594.9	
353.11	4461.2	
353.32	6763.1	
353.52	5425.1	
353.73	3511.6	
353.94	4504.2	
354.14	5914.5	
354.35	5707	
354.55	3641.3	
354.76	4100.7	
354.97	5859.2	
355.17	5626.5	
355.38	3441.3	
355.59	4878.9	
355.79	5259.9	
356	5713.8	
356.2	4171	
356.41	3472.7	
356.62	4956.1	
356.82	5477	
357.03	4323.9	
357.24	3984.7	
357.44	5337.7	
357.65	5396.4	
357.85	5319.3	
358.06	4138.3	
358.27	4994.3	
358.47	5249.6	
358.68	3451.5	
358.88	4360.1	
359.09	5862	
359.3	6324.1	
359.5	5128.8	
359.71	4571.7	
359.91	6776	
360.12	6064	
360.33	4382.7	
360.53	4872.1	
360.74	5298.8	
360.94	5397.1	
361.15	4606.6	
361.36	3788.7	
361.56	6158.9	
361.77	5511.1	
361.97	5159.5	
362.18	4076.1	
362.38	6183.5	
362.59	5160.2	
362.8	3757.3	
363	3521.1	
363.21	4990.9	
363.41	5786.2	
363.62	4255	
363.83	5366.4	
364.03	5771.2	
364.24	6878.4	
364.44	5416.2	
364.65	5462.6	
364.85	5522	
365.06	5177.9	
365.27	3979.2	
365.47	4008.6	
365.68	6577.4	
365.88	5511.1	
366.09	4349.9	
366.29	4081.6	
366.5	5853.8	
366.71	6281.8	
366.91	5439.4	
367.12	4516.5	
367.32	6899.6	
367.53	6143.9	
367.73	4452.3	
367.94	5517.2	
368.14	6053.8	
368.35	7050.5	
368.56	4476.2	
368.76	3729.4	
368.97	6139.1	
369.17	7969.3	
369.38	3894.6	
369.58	4231.1	
369.79	5126.7	
369.99	6533.7	
370.2	5240.8	
370.4	4304.8	
370.61	5829.9	
370.82	7073.7	
371.02	4145.1	
371.23	3536.2	
371.43	5080.3	
371.64	6464.1	
371.84	4206.5	
372.05	5548.6	
372.25	7927.7	
372.46	6253.8	
372.66	4224.3	
372.87	4265.2	
373.07	6314.6	
373.28	7972.7	
373.48	5318.6	
373.69	5007.3	
373.9	5696.8	
374.1	5701.5	
374.31	5332.2	
374.51	4821.6	
374.72	6657.9	
374.92	5397.8	
375.13	5511.1	
375.33	4601.1	
375.54	6208.1	
375.74	5573.2	
375.95	4723.3	
376.15	5994.4	
376.36	6164.4	
376.56	5978.7	
376.77	4832.5	
376.97	5251.7	
377.18	7287.4	
377.38	6290	
377.59	5736.4	
377.79	4289.1	
378	6104.3	
378.2	6525.5	
378.41	4287.1	
378.61	4239.3	
378.82	6526.2	
379.02	5609.4	
379.23	4476.9	
379.43	5698.8	
379.64	6631.3	
379.84	6301.6	
380.05	4282.3	
380.25	4197	
380.46	6337.1	
380.66	5896.8	
380.87	5685.8	
381.07	6128.2	
381.28	7036.8	
381.48	6368.5	
381.69	4358.1	
381.89	4332.1	
382.1	5248.3	
382.3	6531.7	
382.51	5514.5	
382.71	6487.3	
382.91	6403.3	
383.12	6913.3	
383.32	4656.4	
383.53	4885.1	
383.73	6176.7	
383.94	5963.7	
384.14	4838	
384.35	3878.9	
384.55	5896.8	
384.76	6365.8	
384.96	4658.4	
385.17	5086.5	
385.37	6318	
385.58	5575.9	
385.78	5010.7	
385.98	3809.9	
386.19	5750	
386.39	6193.1	
386.6	4433.2	
386.8	4639.3	
387.01	6376.7	
387.21	6320	
387.42	5171.8	
387.62	5776	
387.83	5614.8	
388.03	6460	
388.23	4744.5	
388.44	5648.3	
388.64	5264	
388.85	5425.8	
389.05	5142.4	
389.26	5787.6	
389.46	7470.3	
389.67	6804.7	
389.87	5078.3	
390.07	5207.3	
390.28	5982.8	
390.48	5501.5	
390.69	4356	
390.89	4609.3	
391.1	5719.3	
391.3	6750.1	
391.5	5894.7	
391.71	6635.4	
391.91	6445.6	
392.12	7624.6	
392.32	6007.4	
392.53	5124	
392.73	5774.6	
392.93	6014.9	
393.14	4804.5	
393.34	5556.8	
393.55	6499.6	
393.75	5952.1	
393.95	4745.8	
394.16	4686.4	
394.36	5703.6	
394.57	6408.1	
394.77	4243.4	
394.98	4640	
395.18	5726.1	
395.38	5937.7	
395.59	5711.1	
395.79	4571.7	
396	5836.7	
396.2	6326.2	
396.4	5457.8	
396.61	5341.8	
396.81	6619	
397.02	5778.7	
397.22	5751.4	
397.42	5731.6	
397.63	6565.1	
397.83	5732.9	
398.04	4457.1	
398.24	5010.7	
398.44	6221.7	
398.65	5343.8	
398.85	4286.4	
399.05	4435.9	
399.26	5672.9	
399.46	7621.2	
399.67	4874.8	
399.87	4568.3	
400.07	6125.5	
400.28	6610.2	
400.48	4606.6	
400.69	5826.5	
400.89	6775.4	
401.09	7146	
401.3	4588.1	
401.5	5790.3	
401.7	7465.5	
401.91	7785	
402.11	4890.5	
402.32	5202.5	
402.52	6774.7	
402.72	6668.9	
402.93	5298.8	
403.13	4089.8	
403.33	7479.9	
403.54	6081.1	
403.74	4941.7	
403.94	5844.2	
404.15	6215.6	
404.35	7406.1	
404.56	4777.2	
404.76	6810.2	
404.96	6642.9	
405.17	6495.5	
405.37	5945.9	
405.57	5395	
405.78	6784.9	
405.98	6171.9	
406.18	4845.5	
406.39	5786.2	
406.59	6616.3	
406.79	6238.1	
407	4577.2	
407.2	4711.7	
407.4	6690	
407.61	7008.1	
407.81	4728.8	
408.01	7003.4	
408.22	5685.8	
408.42	7901.1	
408.62	5991.7	
408.83	5423.7	
409.03	6397.2	
409.23	6187.6	
409.44	5523.4	
409.64	5776.6	
409.84	7417.1	
410.05	7232.7	
410.25	5707.7	
410.45	5330.2	
410.66	6719.4	
410.86	9412.5	
411.06	5896.1	
411.27	5750.7	
411.47	9117.6	
411.67	6942.6	
411.88	6035.4	
412.08	6288.6	
412.28	7610.3	
412.49	8177.5	
412.69	5668.1	
412.89	5768.4	
413.09	7958.4	
413.3	7868.3	
413.5	5797.8	
413.7	5411.4	
413.91	7019.8	
414.11	7932.5	
414.31	5692	
414.52	6151.4	
414.72	7506.5	
414.92	7588.4	
415.12	5578.7	
415.33	6196.5	
415.53	7915.4	
415.73	8103.8	
415.94	6674.3	
416.14	6036.7	
416.34	6903.7	
416.55	6490.7	
416.75	7281.9	
416.95	6673	
417.15	7898.3	
417.36	8611	
417.56	7507.9	
417.76	6584.9	
417.97	8378.2	
418.17	7974.8	
418.37	6091.3	
418.57	6191.7	
418.78	7694.2	
418.98	7238.9	
419.18	6988.4	
419.38	6892.8	
419.59	7353.6	
419.79	6974	
419.99	5924.1	
420.2	6384.2	
420.4	7952.3	
420.6	8178.2	
420.8	5879	
421.01	5728.9	
421.21	7738.6	
421.41	7935.2	
421.61	6205.3	
421.82	5911.1	
422.02	7170.6	
422.22	8199.4	
422.42	6791.7	
422.63	6494.1	
422.83	7390.4	
423.03	8614.4	
423.23	6465.4	
423.44	5298.1	
423.64	7449.8	
423.84	7075.7	
424.04	5789.6	
424.25	5431.2	
424.45	8364.6	
424.65	8278.6	
424.85	5192.3	
425.06	5820.3	
425.26	8251.9	
425.46	6846.4	
425.66	6376	
425.87	5968.5	
426.07	8042.4	
426.27	7863.5	
426.47	6152.1	
426.67	5454.4	
426.88	8419.9	
427.08	7793.9	
427.28	6417	
427.48	5470.1	
427.69	6612.9	
427.89	7318.1	
428.09	6466.8	
428.29	5457.2	
428.5	8087.4	
428.7	7536.5	
428.9	5294	
429.1	5871.5	
429.3	7468.3	
429.51	7907.2	
429.71	5664	
429.91	6524.1	
430.11	7810.3	
430.31	8059.4	
430.52	5941.8	
430.72	6334.4	
430.92	8386.4	
431.12	7775.5	
431.32	5603.2	
431.53	6074.3	
431.73	6625.9	
431.93	8491.6	
432.13	5547.3	
432.33	5483.8	
432.54	7147.4	
432.74	7578.8	
432.94	5362.9	
433.14	6470.9	
433.34	7684	
433.55	7195.2	
433.75	6416.3	
433.95	8303.8	
434.15	7433.4	
434.35	7080.5	
434.56	5580	
434.76	5057.8	
434.96	7423.2	
435.16	7788.4	
435.36	5380	
435.56	6614.9	
435.77	7076.4	
435.97	7257.3	
436.17	7407.5	
436.37	6626.5	
436.57	7065.5	
436.78	6997.2	
436.98	8488.8	
437.18	7139.2	
437.38	7879.2	
437.58	7266.9	
437.78	7370	
437.99	5830.6	
438.19	7808.9	
438.39	8574.2	
438.59	5733.6	
438.79	5202.5	
438.99	8415.1	
439.2	7215.7	
439.4	5438.7	
439.6	5323.4	
439.8	7698.3	
440	8825.4	
440.2	6553.5	
440.4	6705	
440.61	7981.6	
440.81	8598.1	
441.01	5599.1	
441.21	6559	
441.41	8475.2	
441.61	7929.7	
441.81	6872.3	
442.02	7929.7	
442.22	9000.8	
442.42	8178.2	
442.62	5645.6	
442.82	5711.1	
443.02	8482	
443.22	7534.5	
443.43	6182.8	
443.63	5701.5	
443.83	7251.2	
444.03	7379.5	
444.23	7055.3	
444.43	6642.2	
444.63	7621.9	
444.83	8980.3	
445.04	5855.8	
445.24	7236.8	
445.44	7984.3	
445.64	8133.2	
445.84	6545.3	
446.04	6573.3	
446.24	7311.9	
446.44	8411.7	
446.65	5715.9	
446.85	6175.3	
447.05	7402.7	
447.25	8402.1	
447.45	6246.3	
447.65	5652.4	
447.85	7631.4	
448.05	7318.8	
448.25	6655.9	
448.46	6510.5	
448.66	7679.2	
448.86	7353.6	
449.06	5371.8	
449.26	6681.2	
449.46	8037.6	
449.66	6969.2	
449.86	6130.3	
450.06	6171.2	
450.26	7224.6	
450.47	7922.9	
450.67	6480.5	
450.87	6784.9	
451.07	7881.9	
451.27	7685.3	
451.47	5649	
451.67	6308.4	
451.87	7278.5	
452.07	8612.4	
452.27	5893.4	
452.47	5911.8	
452.67	7639.6	
452.88	8178.2	
453.08	5191.6	
453.28	7374.7	
453.48	8945.5	
453.68	7570	
453.88	5791	
454.08	6087.2	
454.28	7978.9	
454.48	7660.1	
454.68	6673	
454.88	7172	
455.08	8103.1	
455.28	7845.8	
455.48	5622.4	
455.68	6285.2	
455.89	8617.9	
456.09	8267.6	
456.29	6001.2	
456.49	6087.2	
456.69	8408.3	
456.89	7681.2	
457.09	6586.3	
457.29	6948.8	
457.49	8101.1	
457.69	8225.3	
457.89	6464.8	
458.09	5765.7	
458.29	7677.8	
458.49	8535.9	
458.69	6825.2	
458.89	6257.9	
459.09	8723	
459.29	8899.1	
459.49	6373.3	
459.69	7232.1	
459.9	8279.3	
460.1	7804.8	
460.3	6180.1	
460.5	5963.7	
460.7	8273.8	
460.9	7950.2	
461.1	5655.8	
461.3	7129	
461.5	8913.4	
461.7	8508.6	
461.9	6124.1	
462.1	6541.2	
462.3	7966.6	
462.5	8590.5	
462.7	6161	
462.9	6277.7	
463.1	9730.6	
463.3	9374.9	
463.5	6482.5	
463.7	7519.5	
463.9	8191.9	
464.1	8596.7	
464.3	6561	
464.5	6890	
464.7	8816.5	
464.9	8529.1	
465.1	8186.4	
465.3	7207.5	
465.5	9159.9	
465.7	9156.5	
465.9	7499.7	
466.1	7276.4	
466.3	9019.9	
466.5	8736.6	
466.7	8173.4	
466.9	7017	
467.1	8669.7	
467.3	9674.6	
467.5	8157.7	
467.7	6983.6	
467.9	9959.3	
468.1	10899	
468.3	7936.6	
468.5	8333.9	
468.7	8716.2	
468.9	8637	
469.1	7284.6	
469.3	8008.2	
469.5	10746	
469.7	8132.5	
469.9	7733.8	
470.1	6955.6	
470.3	8702.5	
470.5	8677.2	
470.7	8238.3	
470.9	7079.8	
471.1	8385.7	
471.3	8858.1	
471.5	6808.8	
471.69	8879.3	
471.89	8225.3	
472.09	7723.6	
472.29	7718.1	
472.49	8053.3	
472.69	7970	
472.89	8919.6	
473.09	6705.7	
473.29	6919.4	
473.49	8049.2	
473.69	8420.6	
473.89	7868.3	
474.09	7030	
474.29	9616.6	
474.49	9396.8	
474.69	7791.8	
474.89	7191.1	
475.09	8366.6	
475.29	8295.6	
475.49	6528.9	
475.69	6810.2	
475.88	10034	
476.08	8601.5	
476.28	6414.9	
476.48	6894.1	
476.68	9034.3	
476.88	8891.6	
477.08	6762.4	
477.28	7073	
477.48	8300.4	
477.68	9084.8	
477.88	6538.5	
478.08	7017	
478.28	9430.2	
478.48	8476.5	
478.67	6901	
478.87	6386.9	
479.07	9168.1	
479.27	8605.6	
479.47	7111.9	
479.67	7167.2	
479.87	9001.5	
480.07	9551.7	
480.27	6331	
480.47	8176.2	
480.67	8641.7	
480.87	9247.9	
481.06	6630	
481.26	7564.5	
481.46	8538	
481.66	8551	
481.86	7116.7	
482.06	8236.2	
482.26	8305.2	
482.46	9308.7	
482.66	7099.6	
482.86	6670.2	
483.05	8567.3	
483.25	7993.9	
483.45	9669.1	
483.65	7082.6	
483.85	8211.7	
484.05	8569.4	
484.25	7492.2	
484.45	8047.2	
484.65	9454.8	
484.84	9395.4	
485.04	6920.8	
485.24	6929	
485.44	9678	
485.64	7860.1	
485.84	6138.4	
486.04	7746.8	
486.24	8252.6	
486.44	8762.6	
486.63	6178.7	
486.83	6996.5	
487.03	8148.9	
487.23	8440.4	
487.43	6287.9	
487.63	8789.2	
487.83	8383	
488.02	9507.4	
488.22	7304.4	
488.42	7978.9	
488.62	9300.5	
488.82	8205.5	
489.02	6923.5	
489.22	6997.2	
489.41	9239.8	
489.61	8791.9	
489.81	6624.5	
490.01	6672.3	
490.21	9153.1	
490.41	9865.7	
490.61	6606.1	
490.8	6706.4	
491	8548.2	
491.2	7733.8	
491.4	7351.5	
491.6	6307.7	
491.8	8420.6	
491.99	8776.9	
492.19	6238.1	
492.39	6769.9	
492.59	9160.6	
492.79	9271.8	
492.99	7626	
493.18	6703	
493.38	9196.1	
493.58	10032	
493.78	7496.9	
493.98	6970.6	
494.18	8995.4	
494.37	8265.6	
494.57	7574.8	
494.77	7496.9	
494.97	9167.4	
495.17	9459.6	
495.37	7023.9	
495.56	7458	
495.76	9668.5	
495.96	9202.2	
496.16	8410.3	
496.36	7141.3	
496.55	9393.4	
496.75	8805.6	
496.95	7492.2	
497.15	7421.8	
497.35	9385.8	
497.54	9269.1	
497.74	7259.4	
497.94	9062.3	
498.14	10139	
498.34	9938.8	
498.53	6867.5	
498.73	7757	
498.93	8633.6	
499.13	9346.2	
499.33	7444.4	
499.52	8131.8	
499.72	9240.4	
499.92	9667.8	
500.12	7255.3	
500.32	7466.9	
500.51	9538.8	
500.71	9259.5	
500.91	8328.4	
501.11	7865.6	
501.31	9328.5	
501.5	9864.4	
501.7	8546.2	
501.9	7425.9	
502.1	9182.4	
502.29	9585.9	
502.49	7900.4	
502.69	8403.5	
502.89	9439.1	
503.09	9355.8	
503.28	6869.6	
503.48	7020.4	
503.68	8492.9	
503.88	8609	
504.07	8073.1	
504.27	7497.6	
504.47	8961.9	
504.67	9179	
504.86	7907.2	
505.06	7615.7	
505.26	8611	
505.46	10567	
505.65	7510.6	
505.85	7636.2	
506.05	8548.2	
506.25	9086.2	
506.44	6786.3	
506.64	7832.8	
506.84	8523.6	
507.04	9464.3	
507.23	7010.9	
507.43	7585.7	
507.63	10601	
507.83	8657.4	
508.02	7540.6	
508.22	7232.7	
508.42	10776	
508.62	8481.3	
508.81	7477.8	
509.01	8067.6	
509.21	8325	
509.4	8492.2	
509.6	7652.6	
509.8	7010.2	
510	8655.4	
510.19	10253	
510.39	6970.6	
510.59	7088	
510.79	8364.6	
510.98	9860.3	
511.18	7052.5	
511.38	7222.5	
511.57	9215.9	
511.77	9106	
511.97	7880.6	
512.17	6774	
512.36	9240.4	
512.56	9222.7	
512.76	6890.7	
512.95	6608.8	
513.15	9267.7	
513.35	7944.1	
513.55	7890.8	
513.74	6916.7	
513.94	9334	
514.14	8536.6	
514.33	8011	
514.53	7632.8	
514.73	8572.8	
514.92	8850.6	
515.12	7051.2	
515.32	6865.5	
515.51	8914.8	
515.71	9448.6	
515.91	8643.8	
516.11	6993.8	
516.3	10718	
516.5	8399.4	
516.7	7577.5	
516.89	8245.8	
517.09	8551.6	
517.29	8454	
517.48	7825.3	
517.68	7207.5	
517.88	8222.6	
518.07	8816.5	
518.27	7730.4	
518.47	6712.6	
518.66	9504.6	
518.86	8050.6	
519.06	6548.7	
519.25	7076.4	
519.45	8434.2	
519.65	10035	
519.84	7767.9	
520.04	8426.7	
520.24	10373	
520.43	8956.4	
520.63	7266.2	
520.83	6967.2	
521.02	8165.3	
521.22	8986.5	
521.42	7671	
521.61	8278.6	
521.81	8518.9	
522.01	8656.8	
522.2	7416.4	
522.4	7281.9	
522.6	9180.4	
522.79	7906.5	
522.99	7370	
523.18	6596.5	
523.38	8937.3	
523.58	8927.8	
523.77	8771.5	
523.97	6583.5	
524.17	10895	
524.36	9996.1	
524.56	8027.4	
524.76	7619.1	
524.95	8849.3	
525.15	8445.1	
525.34	7342.7	
525.54	7379.5	
525.74	9148.3	
525.93	8180.3	
526.13	8641.7	
526.33	7380.2	
526.52	9558.6	
526.72	8975.6	
526.91	8576.2	
527.11	7840.3	
527.31	9559.9	
527.5	10049	
527.7	7796.6	
527.89	6705.7	
528.09	8338.6	
528.29	9028.8	
528.48	8172.8	
528.68	7814.4	
528.87	9416.6	
529.07	9535.3	
529.27	7568.6	
529.46	7128.3	
529.66	8990.6	
529.85	9462.3	
530.05	6811.5	
530.25	7744.7	
530.44	10449	
530.64	8740	
530.83	7379.5	
531.03	7675.1	
531.23	9374.9	
531.42	9284.8	
531.62	8503.2	
531.81	7673.7	
532.01	9506	
532.21	10052	
532.4	7341.3	
532.6	7783	
532.79	10605	
532.99	9542.2	
533.18	7698.3	
533.38	8785.1	
533.58	9007	
533.77	9868.5	
533.97	7559.1	
534.16	8538.7	
534.36	10157	
534.55	8989.2	
534.75	8689.5	
534.95	7744.1	
535.14	9951.1	
535.34	9010.4	
535.53	7277.1	
535.73	9450	
535.92	10456	
536.12	9277.3	
536.31	7456	
536.51	8667	
536.71	9638.4	
536.9	9079.3	
537.1	7707.9	
537.29	7789.1	
537.49	10070	
537.68	9026.8	
537.88	8204.2	
538.07	7342.7	
538.27	9198.1	
538.46	10370	
538.66	7212.3	
538.86	7743.4	
539.05	9206.3	
539.25	9682.1	
539.44	7928.4	
539.64	7514.7	
539.83	9109.4	
540.03	10065	
540.22	7451.9	
540.42	7528.3	
540.61	9411.8	
540.81	9460.9	
541	8058.1	
541.2	8667	
541.39	8913.4	
541.59	9289.6	
541.78	8265.6	
541.98	7346.7	
542.18	8480.6	
542.37	8432.2	
542.57	7856	
542.76	8350.9	
542.96	8588.5	
543.15	9225.4	
543.35	7852.6	
543.54	7036.1	
543.74	9611.1	
543.93	9082.7	
544.13	7804.8	
544.32	8940.1	
544.52	9576.3	
544.71	8640.4	
544.91	6821.1	
545.1	8181	
545.3	8657.4	
545.49	9415.9	
545.69	6830.7	
545.88	7395.2	
546.08	10419	
546.27	10008	
546.47	8060.8	
546.66	7119.4	
546.86	9696.4	
547.05	10285	
547.24	7445	
547.44	7224.6	
547.63	8496.3	
547.83	9686.9	
548.02	7734.5	
548.22	7895.6	
548.41	8313.4	
548.61	9770.9	
548.8	7180.2	
549	7086.7	
549.19	8989.2	
549.39	9307.3	
549.58	6874.3	
549.78	7462.8	
549.97	9385.8	
550.17	8894.3	
550.36	8477.9	
550.55	9538.8	
550.75	8924.4	
550.94	9828.2	
551.14	7131.7	
551.33	7521.5	
551.53	8191.2	
551.72	9251.4	
551.92	7578.2	
552.11	7269.6	
552.31	9283.4	
552.5	9321	
552.69	9086.2	
552.89	6836.8	
553.08	9222.7	
553.28	8882	
553.47	7299	
553.67	8596.7	
553.86	10043	
554.06	8155	
554.25	6495.5	
554.44	7039.6	
554.64	10732	
554.83	10183	
555.03	7079.8	
555.22	7453.2	
555.42	9378.3	
555.61	9075.9	
555.8	7258	
556	7658	
556.19	8105.2	
556.39	9684.8	
556.58	7266.9	
556.78	7238.2	
556.97	8991.3	
557.16	8776.2	
557.36	8639.7	
557.55	6792.4	
557.75	7968	
557.94	9794.1	
558.13	7092.8	
558.33	6836.1	
558.52	9622	
558.72	8464.9	
558.91	6859.3	
559.1	7162.4	
559.3	8090.2	
559.49	7830.1	
559.69	6388.3	
559.88	7492.2	
560.07	9050	
560.27	9484.8	
560.46	7654.6	
560.66	7809.6	
560.85	8675.9	
561.04	7908.6	
561.24	6809.5	
561.43	7111.2	
561.63	8140.7	
561.82	8413.7	
562.01	8393.9	
562.21	7471.7	
562.4	8930.5	
562.59	10081	
562.79	7290.1	
562.98	6887.3	
563.18	8881.4	
563.37	10374	
563.56	7686.7	
563.76	6762.4	
563.95	8256.7	
564.14	8146.1	
564.34	7126.9	
564.53	6902.3	
564.73	8763.3	
564.92	9186.5	
565.11	7329	
565.31	6703	
565.5	9395.4	
565.69	8258.8	
565.89	6868.2	
566.08	7172.7	
566.27	9306.7	
566.47	9701.2	
566.66	7785.7	
566.85	6412.9	
567.05	8791.2	
567.24	8140	
567.44	6750.1	
567.63	8268.3	
567.82	8987.9	
568.02	8796	
568.21	6804	
568.4	7288.7	
568.6	8628.8	
568.79	8653.4	
568.98	6565.8	
569.18	6776.7	
569.37	8632.9	
569.56	10731	
569.76	7074.4	
569.95	8178.2	
570.14	8997.4	
570.34	8928.5	
570.53	6651.8	
570.72	6580.1	
570.91	9461.6	
571.11	8464.3	
571.3	7113.3	
571.49	8086.7	
571.69	8611	
571.88	8122.2	
572.07	7735.2	
572.27	7643.7	
572.46	8103.8	
572.65	9221.3	
572.85	6911.2	
573.04	7179.5	
573.23	9430.9	
573.43	8690.9	
573.62	6587.6	
573.81	7382.2	
574	8703.2	
574.2	8528.4	
574.39	6966.5	
574.58	7190.4	
574.78	9638.4	
574.97	8849.3	
575.16	7536.5	
575.36	7735.2	
575.55	9206.3	
575.74	9353.8	
575.93	6675	
576.13	7745.4	
576.32	8460.8	
576.51	9151	
576.71	6962.4	
576.9	8421.2	
577.09	9435	
577.28	8989.9	
577.48	7424.6	
577.67	6404.7	
577.86	8644.5	
578.05	8957.8	
578.25	7228	
578.44	7314.7	
578.63	8751.7	
578.83	9987.9	
579.02	6524.8	
579.21	8163.2	
579.4	8903.2	
579.6	8531.8	
579.79	7346.7	
579.98	9636.4	
580.17	9317.6	
580.37	9340.1	
580.56	6790.4	
580.75	7570	
580.94	9860.3	
581.14	9747.6	
581.33	7943.4	
581.52	6882.5	
581.71	9114.8	
581.91	9841.9	
582.1	6539.8	
582.29	7170.6	
582.48	8756.4	
582.68	8675.2	
582.87	7730.4	
583.06	7249.8	
583.25	9013.8	
583.45	8886.8	
583.64	8021.2	
583.83	8779.6	
584.02	8469	
584.21	9084.8	
584.41	7985	
584.6	7258	
584.79	8677.2	
584.98	9482.1	
585.18	6596.5	
585.37	6607.4	
585.56	8101.8	
585.75	9079.3	
585.94	6900.3	
586.14	7595.2	
586.33	9746.3	
586.52	8627.4	
586.71	7408.9	
586.91	7094.2	
587.1	7973.4	
587.29	9140.8	
587.48	7140.6	
587.67	6944.7	
587.87	8938	
588.06	9095.7	
588.25	8361.2	
588.44	7537.2	
588.63	8616.5	
588.83	9136.7	
589.02	6937.8	
589.21	6842.9	
589.4	8377.6	
589.59	8067.6	
589.78	6001.2	
589.98	6318.7	
590.17	7788.4	
590.36	8363.2	
590.55	5711.1	
590.74	6651.8	
590.94	9869.8	
591.13	8368.7	
591.32	6495.5	
591.51	5999.2	
591.7	8828.8	
591.89	8282	
592.09	6111.1	
592.28	6593.1	
592.47	7485.3	
592.66	9445.9	
592.85	6042.9	
593.05	6314.6	
593.24	8181.6	
593.43	9009	
593.62	6370.5	
593.81	6982.9	
594	8215.8	
594.19	8445.1	
594.39	6350.8	
594.58	6180.8	
594.77	8522.3	
594.96	9116.9	
595.15	6193.7	
595.34	6868.9	
595.54	8544.8	
595.73	7572.7	
595.92	5556.1	
596.11	6808.1	
596.3	9073.9	
596.49	7688.1	
596.68	6593.1	
596.88	7066.2	
597.07	8854.1	
597.26	7503.1	
597.45	6042.9	
597.64	7396.6	
597.83	7755	
598.02	8480	
598.22	6131.6	
598.41	6855.2	
598.6	8245.1	
598.79	7643.7	
598.98	6209.4	
599.17	7125.6	
599.36	8285.4	
599.55	9561.3	
599.74	8344.8	
599.94	8114.1	
600.13	8854.7	
600.32	7623.9	
600.51	5952.8	
600.7	6072.2	
600.89	9512.1	
601.08	9592.7	
601.27	5843.5	
601.47	6981.5	
601.66	8772.8	
601.85	9509.4	
602.04	6597.2	
602.23	6961	
602.42	7688.8	
602.61	8574.2	
602.8	6550.8	
602.99	6271.6	
603.18	8165.3	
603.37	8394.6	
603.57	6987.7	
603.76	7513.3	
603.95	9265	
604.14	8748.9	
604.33	6378.7	
604.52	6751.5	
604.71	8370	
604.9	7932.5	
605.09	7268.9	
605.28	7217	
605.47	8995.4	
605.66	8669.1	
605.86	6994.5	
606.05	6334.4	
606.24	9020.6	
606.43	7481.2	
606.62	6665.5	
606.81	7504.4	
607	8915.5	
607.19	8113.4	
607.38	6045.6	
607.57	6378.7	
607.76	7832.8	
607.95	7307.8	
608.14	6821.1	
608.33	7425.9	
608.52	7823.9	
608.72	8764.6	
608.91	6005.3	
609.1	5809.4	
609.29	8014.4	
609.48	7393.2	
609.67	6978.1	
609.86	5981.4	
610.05	7537.9	
610.24	7920.2	
610.43	5815.5	
610.62	5397.1	
610.81	9110	
611	8789.9	
611.19	6007.4	
611.38	6758.3	
611.57	8198.7	
611.76	9697.1	
611.95	5790.3	
612.14	5637.4	
612.33	8083.3	
612.52	7455.3	
612.71	6348	
612.9	5427.8	
613.09	7110.5	
613.28	9553.8	
613.47	5958.2	
613.66	7068.9	
613.85	8180.3	
614.04	7660.1	
614.24	6057.2	
614.43	5292.6	
614.62	8295.6	
614.81	8183.7	
615	6741.2	
615.19	6776	
615.38	7488.1	
615.57	7825.3	
615.76	6541.2	
615.95	7514	
616.14	8344.1	
616.33	7854	
616.52	6914.6	
616.71	7144	
616.9	8249.2	
617.09	8075.1	
617.28	6229.9	
617.47	7767.3	
617.66	7318.8	
617.85	7316.7	
618.04	7238.9	
618.22	6580.8	
618.41	7704.5	
618.6	8560.5	
618.79	6447	
618.98	6127.5	
619.17	8791.9	
619.36	7111.2	
619.55	6266.1	
619.74	6367.1	
619.93	8174.1	
620.12	7548.8	
620.31	6903.7	
620.5	7035.5	
620.69	8708.6	
620.88	9164	
621.07	7885.4	
621.26	6703.7	
621.45	8228.7	
621.64	8284.7	
621.83	6911.9	
622.02	6052.4	
622.21	8356.4	
622.4	8056	
622.59	7460.1	
622.78	7121.5	
622.97	7666.9	
623.16	8727.8	
623.35	6771.9	
623.54	5921.4	
623.72	7894.9	
623.91	8021.9	
624.1	7101.7	
624.29	5684.5	
624.48	9217.2	
624.67	8393.3	
624.86	6895.5	
625.05	5975.3	
625.24	9326.4	
625.43	7527.7	
625.62	8817.2	
625.81	6221	
626	8714.8	
626.19	7905.2	
626.38	6961	
626.56	6334.4	
626.75	7688.8	
626.94	8517.5	
627.13	6945.3	
627.32	5666	
627.51	8366	
627.7	9722.4	
627.89	5743.2	
628.08	7073	
628.27	7537.2	
628.46	7828	
628.65	6140.5	
628.83	5758.2	
629.02	8398.7	
629.21	7621.2	
629.4	6581.5	
629.59	6793.1	
629.78	7486	
629.97	8555	
630.16	6865.5	
630.35	6233.3	
630.54	8955.1	
630.72	8700.5	
630.91	6346.7	
631.1	6808.8	
631.29	8159.8	
631.48	8346.2	
631.67	6904.4	
631.86	6383.5	
632.05	7696.3	
632.24	7872.4	
632.42	5991	
632.61	6701.6	
632.8	7954.3	
632.99	7574.8	
633.18	6680.5	
633.37	7061.4	
633.56	8118.1	
633.75	7947.5	
633.93	6612.9	
634.12	6295.5	
634.31	8998.1	
634.5	8622.6	
634.69	6432	
634.88	6941.2	
635.07	7853.3	
635.25	8482.7	
635.44	7300.3	
635.63	7520.8	
635.82	7720.8	
636.01	7255.3	
636.2	7199.3	
636.39	6791.1	
636.57	8980.3	
636.76	8633.6	
636.95	6194.4	
637.14	7761.8	
637.33	8167.3	
637.52	9248.6	
637.7	5878.4	
637.89	6875.7	
638.08	7758.4	
638.27	9299.1	
638.46	7042.3	
638.65	7471.7	
638.83	9370.1	
639.02	7574.1	
639.21	6859.3	
639.4	7451.9	
639.59	8125	
639.78	7733.1	
639.96	6187.6	
640.15	6232	
640.34	7959.8	
640.53	8238.3	
640.72	5893.4	
640.91	6258.6	
641.09	7393.2	
641.28	8810.4	
641.47	6236.1	
641.66	7126.9	
641.85	8108.6	
642.03	8293.6	
642.22	6882.5	
642.41	6445	
642.6	7524.9	
642.79	6883.2	
642.97	6090	
643.16	6836.1	
643.35	7448.5	
643.54	7208.2	
643.73	6059.9	
643.91	6908.5	
644.1	7137.9	
644.29	7753.6	
644.48	6052.4	
644.67	6179.4	
644.85	7295.5	
645.04	7658	
645.23	5651	
645.42	5984.2	
645.6	7188.4	
645.79	8429.4	
645.98	6019	
646.17	4977.2	
646.36	6941.9	
646.54	7600	
646.73	6827.2	
646.92	5609.4	
647.11	7219.1	
647.29	8306.6	
647.48	5724.8	
647.67	5498.1	
647.86	8632.2	
648.05	8553	
648.23	6101.6	
648.42	7473	
648.61	8023.3	
648.8	7660.1	
648.98	5668.8	
649.17	6081.8	
649.36	7180.2	
649.55	6692.8	
649.73	5712.5	
649.92	6542.6	
650.11	7097.6	
650.3	7443.7	
650.48	5802.6	
650.67	5473.5	
650.86	7798	
651.05	6630	
651.23	5795.8	
651.42	5771.9	
651.61	7201.3	
651.79	7365.2	
651.98	6058.6	
652.17	5665.4	
652.36	7673.1	
652.54	6767.2	
652.73	5624.4	
652.92	5450.3	
653.11	7791.8	
653.29	7751.6	
653.48	4855.1	
653.67	5948.7	
653.85	7457.3	
654.04	8628.1	
654.23	6222.4	
654.42	5738.4	
654.6	7021.8	
654.79	7681.2	
654.98	5143.8	
655.16	5847	
655.35	6578.1	
655.54	6505.7	
655.73	5313.8	
655.91	5244.2	
656.1	7845.8	
656.29	6451.1	
656.47	4803.9	
656.66	6615.6	
656.85	6846.4	
657.03	6912.6	
657.22	5271.5	
657.41	5433.3	
657.59	6935.1	
657.78	6666.1	
657.97	4997.7	
658.16	5836.7	
658.34	7537.2	
658.53	7928.4	
658.72	6790.4	
658.9	7364.5	
659.09	6909.2	
659.28	7163.1	
659.46	5480.4	
659.65	5489.9	
659.84	6767.2	
660.02	7276.4	
660.21	5319.9	
660.4	5330.9	
660.58	7799.3	
660.77	7124.9	
660.96	5942.5	
661.14	4945.8	
661.33	8369.4	
661.52	8182.3	
661.7	4887.1	
661.89	8800.1	
662.08	6657.9	
662.26	6253.8	
662.45	5217.5	
662.64	5302.9	
662.82	7451.2	
663.01	6610.2	
663.2	5304.2	
663.38	6161	
663.57	7334.5	
663.75	7253.9	
663.94	5718.6	
664.13	7043	
664.31	6691.4	
664.5	7456.7	
664.69	5887.2	
664.87	6556.2	
665.06	6382.2	
665.25	7232.7	
665.43	6829.3	
665.62	6884.6	
665.8	7561.8	
665.99	6815	
666.18	5647.6	
666.36	5762.3	
666.55	7535.8	
666.74	7421.8	
666.92	5258.5	
667.11	7079.8	
667.29	6844.3	
667.48	7473	
667.67	6614.9	
667.85	5530.2	
668.04	6939.2	
668.22	6911.9	
668.41	5737.7	
668.6	5851.7	
668.78	6622.4	
668.97	6911.2	
669.15	6132.3	
669.34	5008.6	
669.53	6640.2	
669.71	6991.8	
669.9	5259.9	
670.08	5956.2	
670.27	6681.2	
670.46	7304.4	
670.64	6109.8	
670.83	6435.4	
671.01	6576	
671.2	7286.7	
671.38	5294	
671.57	5257.1	
671.76	7884	
671.94	8488.1	
672.13	5119.2	
672.31	6319.3	
672.5	7466.9	
672.69	6634.7	
672.87	5348.6	
673.06	5618.9	
673.24	7225.9	
673.43	6724.8	
673.61	6128.9	
673.8	5631.9	
673.98	7417.7	
674.17	7591.8	
674.36	6187.6	
674.54	6098.2	
674.73	7158.3	
674.91	7442.3	
675.1	5801.9	
675.28	5415.5	
675.47	6941.2	
675.65	7570.7	
675.84	5590.3	
676.03	5965.7	
676.21	6739.2	
676.4	6259.3	
676.58	6557.6	
676.77	6249.7	
676.95	8290.2	
677.14	6650.4	
677.32	5263.3	
677.51	4995	
677.69	7447.8	
677.88	6229.2	
678.06	5154.1	
678.25	5221	
678.44	6954.2	
678.62	6716.7	
678.81	4953.4	
678.99	6052.4	
679.18	7781.6	
679.36	7353.6	
679.55	5545.2	
679.73	6246.3	
679.92	7322.9	
680.1	6668.2	
680.29	6962.4	
680.47	5591	
680.66	6599.2	
680.84	7519.5	
681.03	4766.3	
681.21	6149.4	
681.4	6720.8	
681.58	6554.9	
681.77	5374.6	
681.95	5276.3	
682.14	7576.1	
682.32	7854	
682.51	6292.7	
682.69	5042.8	
682.88	6589	
683.06	7342	
683.25	5976	
683.43	6427.2	
683.62	6851.1	
683.8	7315.3	
683.99	6540.5	
684.17	5814.9	
684.36	8274.5	
684.54	6797.2	
684.73	4904.9	
684.91	5096.7	
685.1	7121.5	
685.28	6546.7	
685.46	5764.3	
685.65	5894.7	
685.83	7479.2	
686.02	6814.3	
686.2	5299.5	
686.39	5393	
686.57	6408.8	
686.76	8107.2	
686.94	5251	
687.13	5435.3	
687.31	7349.5	
687.5	6780.8	
687.68	4830.5	
687.86	6256.5	
688.05	8543.4	
688.23	6249.7	
688.42	6279.8	
688.6	5329.5	
688.79	6679.8	
688.97	6695.5	
689.16	5829.2	
689.34	4567.7	
689.52	7432.1	
689.71	7643	
689.89	6022.4	
690.08	5227.1	
690.26	6930.3	
690.45	6785.6	
690.63	6266.8	
690.81	5431.9	
691	6562.4	
691.18	6554.2	
691.37	5570.5	
691.55	7994.6	
691.74	6522.1	
691.92	8738	
692.1	5624.4	
692.29	5042.1	
692.47	6819.1	
692.66	5928.2	
692.84	5313.8	
693.02	5841.5	
693.21	6192.4	
693.39	6696.2	
693.58	5948.7	
693.76	5383.4	
693.94	7997.3	
694.13	7750.2	
694.31	5373.2	
694.5	6503	
694.68	6589	
694.86	6946	
695.05	5685.2	
695.23	5778	
695.42	7330.4	
695.6	9643.9	
695.78	6298.9	
695.97	5362.3	
696.15	7260	
696.34	6628.6	
696.52	5066	
696.7	5973.9	
696.89	7045	
697.07	6402.6	
697.25	5814.2	
697.44	7496.9	
697.62	7019.1	
697.81	7391.8	
697.99	5539.1	
698.17	6104.3	
698.36	6268.8	
698.54	7013.6	
698.72	5928.9	
698.91	4842.1	
699.09	6591.7	
699.28	6483.2	
699.46	5479	
699.64	5467.4	
699.83	6329.6	
700.01	7779.6	
700.19	6241.5	
700.38	4612	
700.56	7758.4	
700.74	6490	
700.93	5055.1	
701.11	5954.8	
701.29	7088	
701.48	8151.6	
701.66	5272.2	
701.84	5341.1	
702.03	6560.3	
702.21	7236.8	
702.39	4879.6	
702.58	5467.4	
702.76	6994.5	
702.94	7120.1	
703.13	4877.6	
703.31	7369.3	
703.49	6261.3	
703.68	7889.5	
703.86	4966.3	
704.04	6057.2	
704.23	6886	
704.41	7275.1	
704.59	5212.8	
704.78	6597.9	
704.96	8038.3	
705.14	7310.6	
705.33	4961.5	
705.51	5849.7	
705.69	6679.8	
705.87	7589.8	
706.06	6202.6	
706.24	4947.2	
706.42	7015	
706.61	7235.5	
706.79	6219.7	
706.97	4985.4	
707.16	6439.5	
707.34	7114.6	
707.52	6178	
707.7	5225.7	
707.89	6676.4	
708.07	6262.7	
708.25	6137.8	
708.44	6309.1	
708.62	6559	
708.8	7806.9	
708.98	6438.1	
709.17	5252.4	
709.35	7019.1	
709.53	7029.3	
709.72	4976.6	
709.9	5208.7	
710.08	7212.3	
710.26	7268.2	
710.45	6800.6	
710.63	5375.9	
710.81	6878.4	
710.99	6937.2	
711.18	6092.7	
711.36	5502.2	
711.54	6699.6	
711.72	7515.4	
711.91	5607.3	
712.09	4949.3	
712.27	6861.4	
712.45	7552.9	
712.64	5952.8	
712.82	4752	
713	6313.9	
713.18	6508.4	
713.37	4967	
713.55	6234	
713.73	7327.6	
713.91	5890.6	
714.1	5302.2	
714.28	4693.3	
714.46	7097.6	
714.64	6228.6	
714.83	4249.5	
715.01	5163.6	
715.19	6395.8	
715.37	5758.2	
715.55	4884.4	
715.74	5178.6	
715.92	7417.1	
716.1	5257.8	
716.28	6417	
716.47	5347.9	
716.65	5993.7	
716.83	6146	
717.01	5206.6	
717.19	5356.1	
717.38	8344.1	
717.56	5851	
717.74	5612.8	
717.92	4572.4	
718.1	7182.2	
718.29	6244.3	
718.47	4212.7	
718.65	4897.4	
718.83	6996.5	
719.01	6876.4	
719.2	3976.5	
719.38	5195.7	
719.56	6543.3	
719.74	8201.4	
719.92	4689.8	
720.11	5915.2	
720.29	6664.8	
720.47	5646.9	
720.65	4234.5	
720.83	5273.5	
721.02	6068.1	
721.2	5800.5	
721.38	5328.1	
721.56	4481.6	
721.74	5283.8	
721.92	5563	
722.11	5791	
722.29	5549.3	
722.47	6866.8	
722.65	5911.8	
722.83	4548.5	
723.01	5534.3	
723.2	6072.9	
723.38	6414.2	
723.56	3895.9	
723.74	5178.6	
723.92	5584.8	
724.1	6820.4	
724.29	4464.6	
724.47	5764.3	
724.65	5578.7	
724.83	5509	
725.01	4341	
725.19	5366.4	
725.37	5617.6	
725.56	5709.7	
725.74	4233.8	
725.92	4472.1	
726.1	5524.7	
726.28	5825.1	
726.46	4952.7	
726.64	4663.9	
726.83	5840.1	
727.01	6179.4	
727.19	4196.3	
727.37	5097.4	
727.55	5973.9	
727.73	6553.5	
727.91	4167.6	
728.09	3997	
728.28	6658.6	
728.46	7300.3	
728.64	5238.7	
728.82	5224.4	
729	7847.8	
729.18	6938.5	
729.36	4326	
729.54	6935.8	
729.72	7979.6	
729.91	6195.8	
730.09	6449.7	
730.27	5027.8	
730.45	6069.5	
730.63	6791.7	
730.81	5752.7	
730.99	4609.3	
731.17	7342.7	
731.35	5831.9	
731.53	5241.4	
731.71	4844.8	
731.9	7015.7	
732.08	7240.9	
732.26	5169.8	
732.44	4764.9	
732.62	7323.5	
732.8	6688.7	
732.98	5608	
733.16	4523.3	
733.34	6752.2	
733.52	5463.3	
733.7	5137.7	
733.88	5481.7	
734.07	6556.9	
734.25	6320.7	
734.43	4537.6	
734.61	6271.6	
734.79	7945.4	
734.97	6111.1	
735.15	4707.6	
735.33	5089.9	
735.51	6609.5	
735.69	6283.9	
735.87	6308.4	
736.05	5300.8	
736.23	6468.2	
736.41	6239.5	
736.59	5075.5	
736.77	5270.8	
736.95	6909.8	
737.13	6307.7	
737.32	4758.8	
737.5	5033.9	
737.68	7501	
737.86	6143.2	
738.04	4540.3	
738.22	6563.7	
738.4	5958.2	
738.58	6414.9	
738.76	5309.7	
738.94	4088.4	
739.12	6107.7	
739.3	5967.1	
739.48	5969.8	
739.66	5623.7	
739.84	6459.3	
740.02	6410.8	
740.2	4276.8	
740.38	4688.5	
740.56	6845.7	
740.74	5541.1	
740.92	5393.7	
741.1	5279	
741.28	6235.4	
741.46	6014.9	
741.64	4917.2	
741.82	5468.1	
742	6267.5	
742.18	6264.1	
742.36	5144.5	
742.54	4705.5	
742.72	6954.9	
742.9	5517.9	
743.08	5585.5	
743.26	4304.8	
743.44	7177.4	
743.62	7019.1	
743.8	5738.4	
743.98	4685.8	
744.16	6733	
744.34	6340.5	
744.52	5632.6	
744.7	5600.5	
744.88	6796.5	
745.06	6361.7	
745.24	5696.1	
745.42	5849.7	
745.6	6915.3	
745.78	6623.1	
745.96	4465.9	
746.14	4760.8	
746.32	7806.2	
746.5	7032.7	
746.68	5473.5	
746.86	4852.3	
747.03	7485.3	
747.21	5535.7	
747.39	5443.5	
747.57	4842.8	
747.75	6561	
747.93	7004.7	
748.11	4793.6	
748.29	4780	
748.47	8251.9	
748.65	6165.1	
748.83	5665.4	
749.01	5340.4	
749.19	6733.7	
749.37	5832.6	
749.55	5208.7	
749.73	5287.9	
749.91	6382.8	
750.09	6125.5	
750.26	5307.7	
750.44	4689.2	
750.62	6493.4	
750.8	6387.6	
750.98	4501.4	
751.16	4911.7	
751.34	6528.9	
751.52	5814.9	
751.7	5767.1	
751.88	4558.8	
752.06	6998.6	
752.24	6799.3	
752.42	4458.4	
752.59	4835.3	
752.77	6406.7	
752.95	7750.9	
753.13	5655.8	
753.31	4990.9	
753.49	6041.5	
753.67	6606.7	
753.85	5357.5	
754.03	4884.4	
754.21	6834.1	
754.38	7296.9	
754.56	5114.5	
754.74	4009.2	
754.92	6070.9	
755.1	6926.9	
755.28	4146.5	
755.46	4069.3	
755.64	7673.7	
755.82	7808.9	
755.99	4362.9	
756.17	4542.4	
756.35	5040.1	
756.53	6787	
756.71	3367.5	
756.89	4416.1	
757.07	6382.8	
757.25	5310.4	
757.42	4986.8	
757.6	5925.5	
757.78	6426.5	
757.96	5272.2	
758.14	4636.6	
758.32	4089.1	
758.5	4810.7	
758.67	5728.2	
758.85	4403.8	
759.03	4581.3	
759.21	5950	
759.39	5360.9	
759.57	3966.2	
759.75	5244.2	
759.92	6490	
760.1	5821.7	
760.28	5567.7	
760.46	5938.4	
760.64	5517.9	
760.82	5289.2	
760.99	5476.3	
761.17	4540.3	
761.35	6446.3	
761.53	5414.8	
761.71	4708.3	
761.89	5449	
762.06	6368.5	
762.24	5809.4	
762.42	4760.2	
762.6	4534.9	
762.78	5826.5	
762.96	6541.2	
763.13	5156.1	
763.31	4931.5	
763.49	6771.3	
763.67	5766.4	
763.85	5803.9	
764.02	6357.6	
764.2	6997.2	
764.38	6143.9	
764.56	4644.8	
764.74	5760.3	
764.91	7160.4	
765.09	5947.3	
765.27	4412.7	
765.45	4164.2	
765.63	7133.8	
765.8	7019.8	
765.98	3794.2	
766.16	4199	
766.34	5479.7	
766.52	5195	
766.69	5263.3	
766.87	4093.9	
767.05	5956.9	
767.23	6834.8	
767.41	4444.8	
767.58	4676.9	
767.76	6548.7	
767.94	6675	
768.12	4533.5	
768.29	5365	
768.47	5997.1	
768.65	6865.5	
768.83	4085.7	
769	5360.9	
769.18	5477	
769.36	6279.8	
769.54	5356.1	
769.72	4149.9	
769.89	6621.8	
770.07	6782.2	
770.25	4506.2	
770.43	5881.1	
770.6	7396.6	
770.78	7961.8	
770.96	4718.5	
771.14	4562.9	
771.31	6498.9	
771.49	5694.7	
771.67	3792.2	
771.85	4083.6	
772.02	4995	
772.2	5780.1	
772.38	4692.6	
772.55	4382	
772.73	6091.3	
772.91	5857.2	
773.09	4749.9	
773.26	4882.4	
773.44	6059.9	
773.62	5731.6	
773.8	4182	
773.97	3931.4	
774.15	6155.5	
774.33	5659.9	
774.5	4084.3	
774.68	4513	
774.86	6336.4	
775.04	5785.5	
775.21	4158.1	
775.39	4192.2	
775.57	6046.3	
775.74	6499.6	
775.92	4050.2	
776.1	3917.8	
776.27	5963	
776.45	7327.6	
776.63	4233.2	
776.81	3758.7	
776.98	5616.2	
777.16	6819.1	
777.34	4371.7	
777.51	4676.9	
777.69	5576.6	
777.87	5345.2	
778.04	4363.5	
778.22	5122.7	
778.4	5388.9	
778.57	6152.1	
778.75	3579.2	
778.93	3915.7	
779.1	5140.4	
779.28	4965	
779.46	3617.4	
779.64	4191.5	
779.81	6351.4	
779.99	7297.6	
780.17	5063.3	
780.34	5175.2	
780.52	5659.2	
780.69	5877.7	
780.87	4474.8	
781.05	4066.6	
781.22	5706.3	
781.4	5851	
781.58	4224.3	
781.75	3275.4	
781.93	5877.7	
782.11	5180	
782.28	5182	
782.46	4184	
782.64	5027.1	
782.81	5955.5	
782.99	4250.2	
783.17	4247.5	
783.34	5929.6	
783.52	5025	
783.69	4461.2	
783.87	5382.7	
784.05	5054.4	
784.22	5143.8	
784.4	5286.5	
784.58	4545.1	
784.75	6144.6	
784.93	5137	
785.1	4289.1	
785.28	4897.4	
785.46	5897.5	
785.63	5133.6	
785.81	4204.5	
785.99	4085	
786.16	5295.4	
786.34	5805.3	
786.51	3955.3	
786.69	4542.4	
786.87	4876.9	
787.04	5414.1	
787.22	3870.7	
787.39	4989.5	
787.57	5094	
787.75	6362.4	
787.92	5184.1	
788.1	5132.9	
788.27	5194.3	
788.45	4934.9	
788.63	4747.2	
788.8	3368.9	
788.98	5500.2	
789.15	4881	
789.33	3541.6	
789.5	4197.7	
789.68	6148.7	
789.86	6279.8	
790.03	4775.9	
790.21	4048.8	
790.38	6124.8	
790.56	5279	
790.73	3947.1	
790.91	3930.7	
791.09	5177.9	
791.26	5994.4	
791.44	4230.4	
791.61	3612.6	
791.79	5172.5	
791.96	5194.3	
792.14	3760.8	
792.32	3226.9	
792.49	5155.4	
792.67	5263.3	
792.84	3801	
793.02	3588	
793.19	5659.9	
793.37	6428.6	
793.54	3282.2	
793.72	3661.1	
793.89	6600.6	
794.07	5175.9	
794.25	4342.4	
794.42	3340.9	
794.6	6322.8	
794.77	5879	
794.95	4653.7	
795.12	4003.8	
795.3	5139	
795.47	5841.5	
795.65	4399	
795.82	4248.9	
796	4965.6	
796.17	7081.2	
796.35	4108.9	
796.52	4906.9	
796.7	5740.5	
796.87	5846.3	
797.05	5128.8	
797.22	5033.2	
797.4	5787.6	
797.57	6972.7	
797.75	4267.3	
797.92	4028.4	
798.1	6126.8	
798.27	5208	
798.45	3374.4	
798.62	3701.4	
798.8	5474.9	
798.97	6105.7	
799.15	4455.7	
799.32	4375.1	
799.5	4763.6	
799.67	5593.7	
799.85	4613.4	
800.02	3357.3	
800.2	5081.7	
800.37	5498.8	
800.55	4853	
800.72	4011.3	
800.9	5982.1	
801.07	6516	
801.25	5423.7	
801.42	4412.7	
801.6	6048.3	
801.77	5765.7	
801.95	4135.5	
802.12	3898	
802.29	5773.9	
802.47	5708.4	
802.64	4419.5	
802.82	3224.9	
802.99	5126.1	
803.17	6271.6	
803.34	4248.9	
803.52	3846.8	
803.69	6890	
803.87	4911.7	
804.04	4223.6	
804.21	4387.4	
804.39	6346.7	
804.56	5440.8	
804.74	3528	
804.91	4483	
805.09	5208.7	
805.26	5224.4	
805.44	3652.9	
805.61	4074.1	
805.78	5824.4	
805.96	5891.3	
806.13	4453	
806.31	4768.4	
806.48	4650.3	
806.66	5314.5	
806.83	4377.9	
807	4343.7	
807.18	5163.6	
807.35	5602.6	
807.53	4305.5	
807.7	3407.1	
807.87	6447.7	
808.05	5203.9	
808.22	4729.4	
808.4	3422.8	
808.57	5231.9	
808.74	4795	
808.92	3901.4	
809.09	5018.9	
809.27	5058.5	
809.44	5780.1	
809.61	3418.1	
809.79	3863.8	
809.96	6455.9	
810.14	6075.6	
810.31	3367.5	
810.48	4061.8	
810.66	5307	
810.83	6154.8	
811.01	3926	
811.18	4339.6	
811.35	5942.5	
811.53	4546.5	
811.7	4818.2	
811.87	4440	
812.05	5205.9	
812.22	5173.2	
812.39	3784.6	
812.57	3684.3	
812.74	5189.6	
812.92	7029.3	
813.09	4077.5	
813.26	4549.2	
813.44	6725.5	
813.61	5165.7	
813.78	3446.7	
813.96	4630.5	
814.13	5292	
814.3	4822.3	
814.48	4971.8	
814.65	4166.3	
814.82	6552.8	
815	4960.2	
815.17	4285	
815.34	5235.3	
815.52	5092.6	
815.69	5175.9	
815.87	4186.7	
816.04	4145.8	
816.21	5242.1	
816.38	4579.3	
816.56	4105.5	
816.73	3761.4	
816.9	6681.2	
817.08	6077.7	
817.25	3893.9	
817.42	4896	
817.6	4778.6	
817.77	5274.2	
817.94	4321.2	
818.12	3768.3	
818.29	4943.8	
818.46	7884.7	
818.64	3989.4	
818.81	3721.2	
818.98	4775.9	
819.16	7232.1	
819.33	4702.8	
819.5	4263.9	
819.67	5608	
819.85	6288.6	
820.02	4138.9	
820.19	4425.7	
820.37	5426.4	
820.54	4959.5	
820.71	4332.1	
820.88	5436	
821.06	5502.9	
821.23	4959.5	
821.4	4328.7	
821.58	4291.9	
821.75	5993.7	
821.92	5388.2	
822.09	3455.6	
822.27	3595.6	
822.44	5209.3	
822.61	5188.9	
822.79	3511.6	
822.96	6741.2	
823.13	5793.7	
823.3	4941.1	
823.48	4063.9	
823.65	3616	
823.82	5933	
823.99	4730.8	
824.17	5118.6	
824.34	3662.5	
824.51	7010.9	
824.68	5294	
824.86	3867.9	
825.03	4297.3	
825.2	5192.3	
825.37	6397.2	
825.55	3774.4	
825.72	4276.8	
825.89	7043	
826.06	6551.5	
826.24	4131.4	
826.41	4160.1	
826.58	6369.9	
826.75	5535.7	
826.92	3227.6	
827.1	3665.9	
827.27	8806.9	
827.44	7003.4	
827.61	3911.6	
827.79	4838	
827.96	4889.2	
828.13	5368.4	
828.3	4104.1	
828.47	3456.3	
828.65	5474.2	
828.82	5433.9	
828.99	5385.5	
829.16	4717.2	
829.34	5858.6	
829.51	5647.6	
829.68	4281.6	
829.85	4493.9	
830.02	6152.1	
830.2	5886.5	
830.37	3317	
830.54	5208.7	
830.71	6711.9	
830.88	5187.5	
831.05	3338.9	
831.23	3859.7	
831.4	6402.6	
831.57	7268.2	
831.74	3988.8	
831.91	3464.5	
832.09	5397.8	
832.26	5876.3	
832.43	4055.7	
832.6	4607.2	
832.77	5450.3	
832.94	6298.9	
833.12	3218.7	
833.29	4044.1	
833.46	5081	
833.63	7534.5	
833.8	4493.9	
833.97	4171	
834.15	5864.7	
834.32	5621	
834.49	4298	
834.66	4412	
834.83	6179.4	
835	4926	
835.17	3925.3	
835.35	3969	
835.52	5778	
835.69	5640.8	
835.86	4194.9	
836.03	3422.2	
836.2	5824.4	
836.37	5453.1	
836.55	4072.7	
836.72	3852.2	
836.89	5371.8	
837.06	5931.6	
837.23	4201.1	
837.4	4654.4	
837.57	6680.5	
837.75	7537.2	
837.92	3738.9	
838.09	3970.3	
838.26	5404.6	
838.43	6204.7	
838.6	4352.6	
838.77	3865.9	
838.94	7192.5	
839.11	6737.8	
839.29	4018.8	
839.46	3233.7	
839.63	5847.6	
839.8	5553.4	
839.97	3969	
840.14	4023.6	
840.31	5606	
840.48	5874.3	
840.65	3286.3	
840.82	3822.9	
841	5887.9	
841.17	5855.8	
841.34	3689.1	
841.51	3685.7	
841.68	5786.9	
841.85	5507	
842.02	3801	
842.19	3123.2	
842.36	5547.9	
842.53	5563.6	
842.7	3669.3	
842.87	4564.9	
843.05	7411.6	
843.22	5528.8	
843.39	3422.2	
843.56	3779.2	
843.73	5277.6	
843.9	5844.2	
844.07	6035.4	
844.24	4975.2	
844.41	8807.6	
844.58	5057.1	
844.75	3541.6	
844.92	3870	
845.09	5872.2	
845.26	5808	
845.43	3649.5	
845.6	3829.7	
845.77	5834.7	
845.94	5539.8	
846.12	4080.9	
846.29	4307.6	
846.46	6040.1	
846.63	5851.7	
846.8	3672.7	
846.97	4393.6	
847.14	6294.8	
847.31	5738.4	
847.48	4099.4	
847.65	4532.8	
847.82	6186.9	
847.99	6152.1	
848.16	4942.4	
848.33	4498	
848.5	5349.3	
848.67	6335	
848.84	3618.8	
849.01	3781.9	
849.18	5261.9	
849.35	4819.6	
849.52	4579.3	
849.69	3616	
849.86	6005.3	
850.03	6294.8	
850.2	3651.5	
850.37	4419.5	
850.54	6270.2	
850.71	5500.2	
850.88	4364.9	
851.05	3587.4	
851.22	5748.6	
851.39	6472.3	
851.56	3463.8	
851.73	4169	
851.9	5087.8	
852.07	6095.4	
852.24	4066.6	
852.41	3641.3	
852.58	5653.1	
852.75	5182	
852.92	4151.9	
853.09	3528.7	
853.26	5469.4	
853.43	6276.3	
853.6	3573	
853.77	3117.7	
853.94	6449.7	
854.11	5813.5	
854.28	5502.9	
854.44	3924.6	
854.61	6731.7	
854.78	6237.4	
854.95	3598.3	
855.12	4628.4	
855.29	4680.3	
855.46	6557.6	
855.63	3607.2	
855.8	5167	
855.97	5322	
856.14	6158.2	
856.31	5195.7	
856.48	3944.4	
856.65	5442.8	
856.82	5128.8	
856.99	3515	
857.16	3874.1	
857.33	7175.4	
857.49	5509.7	
857.66	3920.5	
857.83	4261.8	
858	5471.5	
858.17	5651.7	
858.34	3467.9	
858.51	3690.4	
858.68	6561	
858.85	6616.3	
859.02	4164.2	
859.19	4589.5	
859.36	5036	
859.52	5135.6	
859.69	3674.7	
859.86	4391.5	
860.03	5122.7	
860.2	6451.8	
860.37	3289	
860.54	3670	
860.71	6079.1	
860.88	6548.7	
861.05	4123.2	
861.21	4571.7	
861.38	6549.4	
861.55	4999.1	
861.72	3300.6	
861.89	4076.1	
862.06	6168.5	
862.23	6640.2	
862.4	3519.8	
862.56	3794.2	
862.73	5929.6	
862.9	5612.8	
863.07	4257	
863.24	3269.9	
863.41	4982.7	
863.58	5075.5	
863.75	3705.5	
863.91	4251.6	
864.08	6467.5	
864.25	6058.6	
864.42	4593.6	
864.59	5182	
864.76	6851.8	
864.93	5160.9	
865.09	3549.1	
865.26	3910.9	
865.43	6389	
865.6	6776.7	
865.77	3170.9	
865.94	3620.1	
866.1	6414.9	
866.27	6150.7	
866.44	5547.3	
866.61	3456.3	
866.78	5543.2	
866.95	5978	
867.11	3515.7	
867.28	3169.6	
867.45	6176	
867.62	5165.7	
867.79	4276.8	
867.96	3657.7	
868.12	5088.5	
868.29	6160.3	
868.46	3628.3	
868.63	4887.1	
868.8	6386.2	
868.97	6096.8	
869.13	3818.1	
869.3	3809.9	
869.47	5985.5	
869.64	6188.3	
869.81	3670	
869.97	3655.6	
870.14	5862	
870.31	6604	
870.48	3547.1	
870.65	4616.8	
870.81	5436	
870.98	5420.3	
871.15	4143.7	
871.32	3727.3	
871.48	5976	
871.65	6629.3	
871.82	3583.3	
871.99	4019.5	
872.16	7077.8	
872.32	6408.1	
872.49	3625.6	
872.66	3712.3	
872.83	6107.7	
872.99	5330.2	
873.16	4190.8	
873.33	3562.1	
873.5	5687.2	
873.67	5715.9	
873.83	3840.6	
874	4894.6	
874.17	5858.6	
874.34	7004.1	
874.5	4683.7	
874.67	4569.7	
874.84	6548	
875.01	5066.7	
875.17	5186.8	
875.34	3583.9	
875.51	5771.2	
875.68	7021.1	
875.84	4444.1	
876.01	5314.5	
876.18	6038.8	
876.34	5990.3	
876.51	3670	
876.68	3536.2	
876.85	5502.9	
877.01	6393.8	
877.18	5175.2	
877.35	3629	
877.52	5657.2	
877.68	5031.2	
877.85	3502	
878.02	3599	
878.18	5636.7	
878.35	5320.6	
878.52	2904	
878.69	4048.8	
878.85	6086.6	
879.02	6021	
879.19	5199.8	
879.35	3945.8	
879.52	6001.9	
879.69	6245.6	
879.86	3102.7	
880.02	4129.4	
880.19	5616.9	
880.36	6926.9	
880.52	4227	
880.69	4323.3	
880.86	6144.6	
881.02	6207.4	
881.19	4022.9	
881.36	3951.2	
881.52	6057.2	
881.69	5357.5	
881.86	3961.5	
882.02	3847.5	
882.19	6313.2	
882.36	7494.9	
882.52	3742.3	
882.69	5141.1	
882.86	5851.7	
883.02	5692.7	
883.19	4409.3	
883.36	4160.1	
883.52	6186.9	
883.69	6982.9	
883.86	3635.1	
884.02	3257.6	
884.19	6092.7	
884.36	5643.5	
884.52	4050.2	
884.69	3826.3	
884.86	5283.8	
885.02	6765.8	
885.19	4055	
885.36	4197.7	
885.52	5619.6	
885.69	5799.2	
885.86	5349.3	
886.02	4691.9	
886.19	6081.1	
886.35	5485.8	
886.52	3999.7	
886.69	5149.3	
886.85	5174.5	
887.02	6537.8	
887.19	6537.8	
887.35	6537.8	
887.52	6537.8	
887.68	6537.8	
887.85	6537.8	
888.02	6537.8	
888.18	6537.8	
888.35	6537.8	
888.51	6537.8	
888.68	6537.8	
888.85	6537.8	
889.01	6537.8	
889.18	6537.8	
889.35	6537.8	
889.51	6537.8	
889.68	6537.8	
889.84	6537.8	
890.01	6537.8	
890.17	6537.8	
890.34	6537.8	
890.51	6537.8	
890.67	6537.8	
890.84	6537.8	
891	6537.8	
891.17	6537.8	
891.34	6537.8	
891.5	6537.8	
891.67	6537.8	
891.83	6537.8	
892	6537.8	
892.16	6537.8	
892.33	6537.8	
892.5	6537.8	
892.66	6537.8	
892.83	6537.8	
892.99	6537.8	
893.16	6537.8	
893.32	6537.8	
893.49	6537.8	
893.65	6537.8	
893.82	6537.8	
893.99	6537.8	
894.15	6537.8	
894.32	6537.8	
894.48	6537.8	
894.65	6537.8	
894.81	6537.8	
894.98	6537.8	
895.14	6537.8	
895.31	6537.8	
895.47	6537.8	
895.64	6537.8	
895.81	6537.8	
895.97	6537.8	
896.14	6537.8	
896.3	6537.8	
896.47	6537.8	
896.63	6537.8	
896.8	6537.8	
896.96	6537.8	
897.13	6537.8	
897.29	6537.8	
897.46	6537.8	
897.62	6537.8	
897.79	6537.8	
897.95	6537.8	
898.12	6537.8	
898.28	6537.8	
898.45	6537.8	
898.61	6537.8	
898.78	6537.8	
898.94	6537.8	
899.11	6537.8	
899.27	6537.8	
899.44	6537.8	
899.6	6537.8	
899.77	6537.8	
899.93	6537.8	
900.1	6537.8	
900.26	6537.8	
900.43	6537.8	
900.59	6537.8	
900.76	6537.8	
900.92	6537.8	
901.09	6537.8	
901.25	6537.8	
901.42	6537.8	
901.58	6537.8	
901.75	6537.8	
901.91	6537.8	
902.07	6537.8	
902.24	6537.8	
902.4	6537.8	
902.57	6537.8	
902.73	6537.8	
902.9	6537.8	
903.06	6537.8	
903.23	6537.8	
903.39	6537.8	
903.56	6537.8	
903.72	6537.8	
903.88	6537.8	
904.05	6537.8	
904.21	6537.8	
904.38	6537.8	
904.54	6537.8	
904.71	6537.8	
904.87	6537.8	
905.03	6537.8	
905.2	6537.8	
905.36	6537.8	
905.53	6537.8	
905.69	6537.8	
905.86	6537.8	
906.02	6537.8	
906.18	6537.8	
906.35	6537.8	
906.51	6537.8	
906.68	6537.8	
906.84	6537.8	
907.01	6537.8	
907.17	6537.8	
907.33	6537.8	
907.5	6537.8	
907.66	6537.8	
907.83	6537.8	
907.99	6537.8	
908.15	6537.8	
908.32	6537.8	
908.48	6537.8	
908.65	6537.8	
908.81	6537.8	
908.97	6537.8	
909.14	6537.8	
909.3	6537.8	
909.47	6537.8	
909.63	6537.8	
909.79	6537.8	
909.96	6537.8	
910.12	6537.8	
910.28	6537.8	
910.45	6537.8	
910.61	6537.8	
910.78	6537.8	
910.94	6537.8	
911.1	6537.8	
911.27	6537.8	
911.43	6537.8	
911.59	6537.8	
911.76	6537.8	
911.92	6537.8	
912.08	6537.8	
912.25	6537.8	
912.41	6537.8	
912.57	6537.8	
912.74	6537.8	
912.9	6537.8	
913.07	6537.8	
913.23	6537.8	
913.39	6537.8	
913.56	6537.8	
913.72	6537.8	
913.88	6537.8	
914.05	6537.8	
914.21	6537.8	
914.37	6537.8	
914.54	6537.8	
914.7	6537.8	
914.86	6537.8	
915.03	6537.8	
915.19	6537.8	
