Wavelength	Intensities	
nm	a.u.	
179.22	1654.4	
179.44	1656.1	
179.65	1652.7	
179.86	1659.5	
180.08	1637	
180.29	3792.2	
180.51	2982.5	
180.72	4856.4	
180.94	5354.1	
181.15	2677.4	
181.37	2636.4	
181.58	4671.4	
181.79	4856.4	
182.01	2751.8	
182.22	2875.3	
182.44	4939.7	
182.65	4270.7	
182.87	3545	
183.08	3110.9	
183.29	5154.1	
183.51	4306.2	
183.72	2860.3	
183.94	4001.7	
184.15	4656.4	
184.37	4545.1	
184.58	2615.3	
184.79	3296.5	
185.01	4373.8	
185.22	4938.3	
185.44	3480.9	
185.65	3031	
185.86	4627	
186.08	4283	
186.29	2523.8	
186.51	2691	
186.72	4404.5	
186.94	5023	
187.15	3109.5	
187.36	3120.4	
187.58	6159.6	
187.79	4687.1	
188.01	3237.2	
188.22	4814.1	
188.43	5447.6	
188.65	4894.6	
188.86	2757.2	
189.08	3110.9	
189.29	4481.6	
189.5	4446.1	
189.72	2870.6	
189.93	2975	
190.15	4996.4	
190.36	5738.4	
190.57	3164.1	
190.79	3041.9	
191	4999.1	
191.22	5004.6	
191.43	3198.2	
191.64	2711.5	
191.86	5167.7	
192.07	4941.7	
192.29	2803.7	
192.5	2889	
192.71	4987.5	
192.93	4477.5	
193.14	2900.6	
193.35	3020.8	
193.57	4433.9	
193.78	5029.1	
194	2395.4	
194.21	2865.8	
194.42	4295.3	
194.64	4592.2	
194.85	3102.7	
195.07	3528	
195.28	4595.6	
195.49	4131.4	
195.71	3719.1	
195.92	2734	
196.13	4780.6	
196.35	4823.6	
196.56	3915.7	
196.78	3151.1	
196.99	5722.7	
197.2	5350.7	
197.42	3489.7	
197.63	3152.5	
197.84	4235.2	
198.06	4739.7	
198.27	2933.4	
198.48	3712.3	
198.7	4425	
198.91	4636.6	
199.13	3147	
199.34	3117	
199.55	5000.5	
199.77	4046.8	
199.98	2820.1	
200.19	3190.1	
200.41	4608.6	
200.62	4350.6	
200.83	3226.2	
201.05	3485	
201.26	4558.8	
201.47	4418.2	
201.69	2852.8	
201.9	2816	
202.11	4668	
202.33	5264.6	
202.54	2994.8	
202.76	3325.2	
202.97	4617.5	
203.18	4736.3	
203.4	3236.5	
203.61	3267.9	
203.82	4698	
204.04	4408.6	
204.25	3197.6	
204.46	3069.9	
204.68	4588.1	
204.89	4775.9	
205.1	3074	
205.32	2706	
205.53	4800.4	
205.74	4969.7	
205.96	2405.7	
206.17	3222.8	
206.38	4843.4	
206.6	4995	
206.81	3554.6	
207.02	2998.9	
207.24	4769.7	
207.45	5085.1	
207.66	3039.9	
207.88	2643.2	
208.09	4724	
208.3	4614.1	
208.52	2824.1	
208.73	3041.2	
208.94	4642.7	
209.15	5074.9	
209.37	2965.5	
209.58	3118.4	
209.79	4941.7	
210.01	4505.5	
210.22	2560.6	
210.43	2667.8	
210.65	4579.3	
210.86	4845.5	
211.07	2994.1	
211.29	2813.9	
211.5	4771.1	
211.71	4584	
211.93	2805	
212.14	2825.5	
212.35	4571.7	
212.56	4648.9	
212.78	3170.9	
212.99	2665.1	
213.2	5296.7	
213.42	4461.8	
213.63	2886.3	
213.84	3000.3	
214.06	4171.7	
214.27	4275.5	
214.48	3009.8	
214.69	3190.1	
214.91	5107	
215.12	5151.3	
215.33	3171.6	
215.55	3454.2	
215.76	5481	
215.97	4829.8	
216.18	3094.5	
216.4	3107.5	
216.61	4318.5	
216.82	4918.5	
217.04	2846.7	
217.25	2919.7	
217.46	5065.3	
217.67	4897.4	
217.89	2561.3	
218.1	2605.7	
218.31	4646.2	
218.53	4755.4	
218.74	2957.3	
218.95	2854.9	
219.16	4577.9	
219.38	5260.5	
219.59	2858.3	
219.8	3316.3	
220.01	5640.1	
220.23	4623.6	
220.44	3595.6	
220.65	2776.4	
220.87	4710.3	
221.08	5065.3	
221.29	2708.1	
221.5	3388	
221.72	5887.2	
221.93	4403.1	
222.14	3125.2	
222.35	3682.2	
222.57	4586.8	
222.78	4898.7	
222.99	3048.7	
223.2	3236.5	
223.42	4767.7	
223.63	4864.6	
223.84	2418.7	
224.05	2417.3	
224.27	5547.3	
224.48	5225.7	
224.69	3823.6	
224.9	3170.3	
225.12	4746.5	
225.33	4625.7	
225.54	2643.2	
225.75	2874.7	
225.97	4384.7	
226.18	4589.5	
226.39	3023.5	
226.6	2849.4	
226.82	4473.4	
227.03	4328.7	
227.24	3127.9	
227.45	2693.1	
227.67	4961.5	
227.88	5174.5	
228.09	3516.4	
228.3	3508.2	
228.52	4904.9	
228.73	4614.1	
228.94	2928.6	
229.15	2702.6	
229.36	4547.9	
229.58	4578.6	
229.79	2962	
230	3386.7	
230.21	5421	
230.43	4622.3	
230.64	3123.8	
230.85	3168.9	
231.06	4930.1	
231.28	4936.3	
231.49	2724.5	
231.7	3087.7	
231.91	4864.6	
232.12	4633.9	
232.34	2761.3	
232.55	3072	
232.76	5043.5	
232.97	4676.9	
233.18	2781.8	
233.4	3183.2	
233.61	4773.1	
233.82	4377.9	
234.03	2985.9	
234.25	2908.8	
234.46	6105	
234.67	4652.3	
234.88	3220.8	
235.09	2841.2	
235.31	4788.2	
235.52	4476.2	
235.73	3084.9	
235.94	2717.7	
236.15	4435.2	
236.37	5442.8	
236.58	2863.7	
236.79	2988	
237	4856.4	
237.21	4230.4	
237.43	3193.5	
237.64	2603.7	
237.85	7419.8	
238.06	4315.8	
238.27	3176.4	
238.48	2721.8	
238.7	4851	
238.91	4534.2	
239.12	2988.7	
239.33	3104.7	
239.54	4411.3	
239.76	4498.7	
239.97	3018.7	
240.18	3059	
240.39	5385.5	
240.6	4740.4	
240.82	3199.6	
241.03	2704.7	
241.24	4582.7	
241.45	5140.4	
241.66	2801.6	
241.87	3272	
242.09	5174.5	
242.3	5356.8	
242.51	3276.8	
242.72	3033	
242.93	4909	
243.14	4564.2	
243.36	3433.8	
243.57	3695.9	
243.78	5203.9	
243.99	4908.3	
244.2	2993.4	
244.41	2768.2	
244.63	4247.5	
244.84	4732.9	
245.05	3229	
245.26	3022.8	
245.47	4933.6	
245.68	4988.2	
245.9	3810.6	
246.11	3218.7	
246.32	4461.8	
246.53	4762.2	
246.74	4708.3	
246.95	2633.7	
247.16	4360.8	
247.38	4663.9	
247.59	2654.9	
247.8	3007.1	
248.01	4315.1	
248.22	4580.6	
248.43	2805	
248.64	3001	
248.86	4278.2	
249.07	4469.4	
249.28	2755.2	
249.49	3126.6	
249.7	5000.5	
249.91	4993.6	
250.12	2641.9	
250.34	2708.8	
250.55	4639.3	
250.76	4654.4	
250.97	3113.6	
251.18	3155.2	
251.39	5032.5	
251.6	4718.5	
251.81	3194.1	
252.03	3110.9	
252.24	4415.4	
252.45	4908.3	
252.66	2729.3	
252.87	3330	
253.08	4622.9	
253.29	5679.7	
253.5	2760	
253.72	3614	
253.93	4556.7	
254.14	5324.7	
254.35	2899.9	
254.56	2990	
254.77	4769.7	
254.98	4347.2	
255.19	2880.1	
255.41	3613.3	
255.62	4709	
255.83	5004.6	
256.04	3243.3	
256.25	3171.6	
256.46	5439.4	
256.67	4400.4	
256.88	3095.8	
257.09	3400.3	
257.31	4255	
257.52	4384.7	
257.73	3793.5	
257.94	2940.9	
258.15	4614.8	
258.36	4629.1	
258.57	3536.8	
258.78	2428.9	
258.99	4963.6	
259.2	4450.9	
259.41	2904.7	
259.63	3040.6	
259.84	5154.7	
260.05	5367	
260.26	3683.6	
260.47	2883.5	
260.68	5006.6	
260.89	4539.7	
261.1	3457.7	
261.31	2790.7	
261.52	5085.8	
261.73	5224.4	
261.95	3655.6	
262.16	3226.9	
262.37	5159.5	
262.58	5190.2	
262.79	3687	
263	2939.5	
263.21	4678.2	
263.42	4167.6	
263.63	3201	
263.84	2904	
264.05	4984.8	
264.26	5177.3	
264.47	3561.4	
264.69	3125.2	
264.9	5158.2	
265.11	4750.6	
265.32	2832.3	
265.53	2867.8	
265.74	4697.4	
265.95	4189.5	
266.16	3081.5	
266.37	3364.1	
266.58	4736.3	
266.79	4415.4	
267	2888.3	
267.21	2724.5	
267.42	4298.7	
267.63	4582	
267.84	3018	
268.06	2662.4	
268.27	4955.4	
268.48	5118.6	
268.69	2914.3	
268.9	3435.8	
269.11	5134.3	
269.32	4166.3	
269.53	3011.9	
269.74	2855.6	
269.95	4762.9	
270.16	4149.9	
270.37	3080.1	
270.58	3409.2	
270.79	4555.4	
271	4951.3	
271.21	3158.7	
271.42	3099.9	
271.63	4738.3	
271.84	4242	
272.05	2571.6	
272.26	2769.5	
272.47	4610.7	
272.68	4781.3	
272.89	2957.3	
273.11	3324.5	
273.32	4474.8	
273.53	5170.4	
273.74	3232.4	
273.95	3159.3	
274.16	4919.2	
274.37	4599.7	
274.58	3265.8	
274.79	2691.7	
275	4744.5	
275.21	4988.9	
275.42	3839.3	
275.63	3338.2	
275.84	4825.7	
276.05	5796.4	
276.26	3207.1	
276.47	3015.3	
276.68	4543.1	
276.89	5291.3	
277.1	3368.9	
277.31	2738.1	
277.52	4775.9	
277.73	5042.1	
277.94	2644.6	
278.15	2919.7	
278.36	4795	
278.57	4370.4	
278.78	2919.7	
278.99	3266.5	
279.2	4422.9	
279.41	4360.8	
279.62	3742.3	
279.83	2753.8	
280.04	5416.9	
280.25	4306.9	
280.46	3736.9	
280.67	3033.7	
280.88	4389.5	
281.09	5053.7	
281.3	3209.8	
281.51	3852.2	
281.72	4471.4	
281.93	4914.4	
282.14	2938.8	
282.35	3117	
282.56	4990.9	
282.77	4930.8	
282.98	2973	
283.19	3503.4	
283.4	5839.4	
283.61	4595.6	
283.82	2767.5	
284.03	3657	
284.24	4784.1	
284.45	5040.7	
284.66	3685	
284.87	3534.1	
285.08	5054.4	
285.29	5084.4	
285.5	2677.4	
285.71	3013.9	
285.92	4983.4	
286.12	5511.1	
286.33	3677.5	
286.54	3033.7	
286.75	4883	
286.96	4579.3	
287.17	2802.3	
287.38	3530.7	
287.59	4441.4	
287.8	4405.9	
288.01	2989.4	
288.22	3312.2	
288.43	4855.1	
288.64	4218.1	
288.85	3459.7	
289.06	3358	
289.27	4954	
289.48	5189.6	
289.69	3733.4	
289.9	3408.5	
290.11	5125.4	
290.32	4427	
290.53	3517	
290.74	3245.3	
290.94	4899.4	
291.15	4988.9	
291.36	2902	
291.57	3297.2	
291.78	4508.9	
291.99	4164.2	
292.2	2802.3	
292.41	3253.5	
292.62	4986.1	
292.83	4855.1	
293.04	3912.3	
293.25	2883.5	
293.46	4522.6	
293.67	4999.1	
293.88	2831	
294.09	2799.6	
294.29	4377.2	
294.5	4705.5	
294.71	3034.4	
294.92	2869.9	
295.13	4511.7	
295.34	5401.9	
295.55	2625.5	
295.76	2638.5	
295.97	4917.2	
296.18	5384.1	
296.39	2750.4	
296.6	2894.5	
296.81	4679.6	
297.01	4848.9	
297.22	2990	
297.43	2903.3	
297.64	4450.9	
297.85	4347.2	
298.06	2482.8	
298.27	2639.8	
298.48	4595	
298.69	4401.8	
298.9	3143.6	
299.11	2824.8	
299.31	4316.4	
299.52	4315.1	
299.73	3296.5	
299.94	3222.1	
300.15	4678.2	
300.36	4404.5	
300.57	3211.9	
300.78	3215.3	
300.99	4487.8	
301.2	4717.2	
301.4	2948.4	
301.61	3095.8	
301.82	4863.9	
302.03	4822.3	
302.24	3388.7	
302.45	2748.4	
302.66	4823	
302.87	5026.4	
303.08	2912.2	
303.29	3743.7	
303.49	4535.6	
303.7	4543.1	
303.91	2657.6	
304.12	3595.6	
304.33	4276.2	
304.54	4742.4	
304.75	2930.6	
304.96	2764.8	
305.16	4835.9	
305.37	5287.9	
305.58	2590	
305.79	2663.7	
306	4877.6	
306.21	4220.9	
306.42	2915.6	
306.63	4207.9	
306.83	4521.9	
307.04	4874.2	
307.25	3162.7	
307.46	3106.8	
307.67	4132.8	
307.88	4906.9	
308.09	2906.8	
308.29	2919	
308.5	4674.1	
308.71	4986.8	
308.92	3071.3	
309.13	2807.1	
309.34	4594.3	
309.55	4595.6	
309.75	3538.9	
309.96	3248.1	
310.17	4917.9	
310.38	4411.3	
310.59	3357.3	
310.8	2775	
311.01	4695.3	
311.21	4569.7	
311.42	2824.1	
311.63	2841.2	
311.84	4456.4	
312.05	4672.8	
312.26	3138.2	
312.46	3465.2	
312.67	4487.8	
312.88	4233.8	
313.09	2766.1	
313.3	2748.4	
313.51	5183.4	
313.71	5420.3	
313.92	2792.7	
314.13	2925.9	
314.34	4824.3	
314.55	4625	
314.76	3441.3	
314.96	3044.6	
315.17	4737.6	
315.38	4813.4	
315.59	2842.6	
315.8	2726.5	
316.01	5102.2	
316.21	5272.2	
316.42	2755.2	
316.63	3075.4	
316.84	4532.2	
317.05	4973.2	
317.26	3232.4	
317.46	2939.5	
317.67	4642.1	
317.88	4886.5	
318.09	3463.1	
318.3	2659.6	
318.5	4517.1	
318.71	4793.6	
318.92	4227	
319.13	3223.5	
319.34	4985.4	
319.54	5068	
319.75	2646.7	
319.96	2593.4	
320.17	4776.5	
320.38	4986.8	
320.58	2663	
320.79	3044	
321	5037.3	
321.21	5124.7	
321.42	3113.6	
321.62	2611.2	
321.83	4396.3	
322.04	4678.2	
322.25	3044.6	
322.46	2824.1	
322.66	4691.2	
322.87	4883.7	
323.08	3381.9	
323.29	2741.5	
323.5	5360.9	
323.7	4291.9	
323.91	3710.2	
324.12	3300	
324.33	4712.4	
324.53	4857.1	
324.74	3216.7	
324.95	3398.3	
325.16	4296	
325.37	4524.6	
325.57	2785.2	
325.78	2878.1	
325.99	4749.9	
326.2	4229.7	
326.4	3916.4	
326.61	2689.7	
326.82	4560.8	
327.03	4702.8	
327.24	3849.5	
327.44	3543.7	
327.65	4829.1	
327.86	3971.7	
328.07	3230.3	
328.27	2756.6	
328.48	5104.9	
328.69	4242	
328.9	3844.7	
329.1	2928.6	
329.31	4597.7	
329.52	5149.3	
329.73	2869.9	
329.93	3108.1	
330.14	4674.8	
330.35	4789.5	
330.56	4367.6	
330.76	3378.5	
330.97	4518.5	
331.18	4698	
331.39	3098.6	
331.59	2574.3	
331.8	5025.7	
332.01	5104.2	
332.22	2872.6	
332.42	3229.6	
332.63	4762.2	
332.84	4347.2	
333.05	3101.3	
333.25	2874.7	
333.46	4400.4	
333.67	4600.4	
333.88	2908.1	
334.08	3241.9	
334.29	5842.2	
334.5	4995.7	
334.7	2787.3	
334.91	3795.6	
335.12	4266.6	
335.33	4863.9	
335.53	3063.8	
335.74	4227.7	
335.95	4523.3	
336.16	4297.3	
336.36	3066.5	
336.57	3472	
336.78	4291.2	
336.98	5053	
337.19	3648.1	
337.4	2970.9	
337.61	5427.1	
337.81	4306.9	
338.02	2921.8	
338.23	3547.8	
338.43	5155.4	
338.64	4462.5	
338.85	2884.2	
339.05	3648.8	
339.26	5254.4	
339.47	4225.6	
339.68	2850.1	
339.88	3985.3	
340.09	4835.9	
340.3	4949.9	
340.5	3201	
340.71	2606.4	
340.92	4320.5	
341.13	5103.5	
341.33	2723.1	
341.54	3201.7	
341.75	4782	
341.95	4496.7	
342.16	3135.4	
342.37	3386	
342.57	4335.5	
342.78	4521.9	
342.99	3401	
343.19	2642.6	
343.4	4947.9	
343.61	4816.8	
343.81	3032.4	
344.02	2746.3	
344.23	4916.5	
344.43	5173.9	
344.64	3414.6	
344.85	3364.1	
345.06	4863.9	
345.26	5024.3	
345.47	3214.6	
345.68	3707.5	
345.88	4219.5	
346.09	4943.8	
346.3	3300.6	
346.5	2550.4	
346.71	4566.3	
346.92	4427.7	
347.12	2707.4	
347.33	3163.4	
347.54	5046.9	
347.74	5304.9	
347.95	3253.5	
348.16	2493.1	
348.36	4496.7	
348.57	4391.5	
348.78	3241.9	
348.98	3355.9	
349.19	4658.4	
349.39	4235.2	
349.6	2686.3	
349.81	2894.5	
350.01	4855.7	
350.22	4433.2	
350.43	3166.2	
350.63	3661.1	
350.84	4666	
351.05	4508.3	
351.25	2871.9	
351.46	2671.9	
351.67	5012.1	
351.87	4378.6	
352.08	3029.6	
352.29	3396.9	
352.49	4987.5	
352.7	4721.9	
352.9	2786.6	
353.11	3435.1	
353.32	5417.6	
353.52	4541.7	
353.73	2828.2	
353.94	3447.4	
354.14	4820.2	
354.35	4731.5	
354.55	2895.1	
354.76	3183.9	
354.97	4855.1	
355.17	4648.2	
355.38	2797.5	
355.59	3676.1	
355.79	4460.5	
356	4734.2	
356.2	3194.8	
356.41	2830.3	
356.62	4360.1	
356.82	4681	
357.03	3415.3	
357.24	3129.3	
357.44	4492.6	
357.65	4614.8	
357.85	3926.6	
358.06	3270.6	
358.27	4298	
358.47	4468	
358.68	2816.6	
358.88	3469.9	
359.09	4938.3	
359.3	5178.6	
359.5	3934.8	
359.71	3581.9	
359.91	5446.2	
360.12	5076.2	
360.33	3553.2	
360.53	3865.2	
360.74	4598.4	
360.94	4657.1	
361.15	3654.3	
361.36	3156.6	
361.56	5249.6	
361.77	4835.9	
361.97	4021.5	
362.18	3280.2	
362.38	5279	
362.59	4586.1	
362.8	3071.3	
363	3036.5	
363.21	4451.6	
363.41	4945.8	
363.62	3570.3	
363.83	4210.6	
364.03	5107	
364.24	5748	
364.44	4377.9	
364.65	4361.5	
364.85	4942.4	
365.06	4706.2	
365.27	3351.8	
365.47	3396.9	
365.68	5629.9	
365.88	4926	
366.09	3697.3	
366.29	3418.7	
366.5	5125.4	
366.71	5387.5	
366.91	4416.8	
367.12	3846.1	
367.32	5921.4	
367.53	5399.1	
367.73	3859.7	
367.94	4534.9	
368.14	5401.9	
368.35	5973.9	
368.56	3848.1	
368.76	3388	
368.97	5550	
369.17	6563.7	
369.38	3540.3	
369.58	3681.6	
369.79	4790.9	
369.99	5803.3	
370.2	4427	
370.4	3781.9	
370.61	5284.4	
370.82	6153.5	
371.02	3764.8	
371.23	3220.8	
371.43	4773.8	
371.64	5840.1	
371.84	3838.6	
372.05	4622.3	
372.25	6690	
372.46	5534.3	
372.66	3965.6	
372.87	3874.1	
373.07	5715.9	
373.28	6855.2	
373.48	4612.7	
373.69	4422.9	
373.9	5386.2	
374.1	5437.4	
374.31	4693.3	
374.51	4311.7	
374.72	6122.7	
374.92	5240.1	
375.13	4917.9	
375.33	4294.6	
375.54	5892	
375.74	5481	
375.95	4534.9	
376.15	5350	
376.36	6036	
376.56	5902.9	
376.77	4645.5	
376.97	4973.2	
377.18	6849.1	
377.38	6175.3	
377.59	5195	
377.79	4405.2	
378	6076.3	
378.2	6391.7	
378.41	4489.1	
378.61	4393.6	
378.82	6544.6	
379.02	5955.5	
379.23	4726	
379.43	5501.5	
379.64	6645	
379.84	6403.3	
380.05	4575.2	
380.25	4468.7	
380.46	6411.5	
380.66	6040.1	
380.87	5436.7	
381.07	5690.6	
381.28	6776	
381.48	6348.7	
381.69	4537.6	
381.89	4524.6	
382.1	5585.5	
382.3	6397.2	
382.51	5374.6	
382.71	5926.8	
382.91	6261.3	
383.12	6692.8	
383.32	4762.9	
383.53	4861.2	
383.73	6156.2	
383.94	6126.2	
384.14	4877.6	
384.35	4200.4	
384.55	5863.3	
384.76	6271.6	
384.96	4762.2	
385.17	4866.7	
385.37	6242.2	
385.58	5683.1	
385.78	4807.9	
385.98	4018.1	
386.19	5812.1	
386.39	6150.1	
386.6	4468	
386.8	4611.3	
387.01	6193.7	
387.21	6270.9	
387.42	4900.1	
387.62	5409.4	
387.83	5803.3	
388.03	6143.2	
388.23	4844.8	
388.44	5320.6	
388.64	5630.5	
388.85	5824.4	
389.05	5128.8	
389.26	5511.1	
389.46	7366.5	
389.67	6865.5	
389.87	5271.5	
390.07	5220.3	
390.28	6333.7	
390.48	5970.5	
390.69	4734.9	
390.89	4977.9	
391.1	6138.4	
391.3	6820.4	
391.5	5790.3	
391.71	6120	
391.91	6726.9	
392.12	7271.7	
392.32	5912.5	
392.53	5270.8	
392.73	6275.7	
392.93	6326.2	
393.14	5108.3	
393.34	5567.1	
393.55	6646.3	
393.75	6325.5	
393.95	5055.8	
394.16	4863.2	
394.36	6199.9	
394.57	6554.2	
394.77	4646.2	
394.98	4824.3	
395.18	6167.1	
395.38	6165.1	
395.59	5645.6	
395.79	4979.3	
396	6472.9	
396.2	6787	
396.4	5795.1	
396.61	5709.1	
396.81	7014.3	
397.02	6597.2	
397.22	6086.6	
397.42	6065.4	
397.63	7184.3	
397.83	6678.4	
398.04	5262.6	
398.24	5860.6	
398.44	6929.6	
398.65	6378.1	
398.85	5288.5	
399.05	5302.2	
399.26	6845.7	
399.46	8028	
399.67	5758.2	
399.87	5382.7	
400.07	7130.3	
400.28	7268.9	
400.48	5649	
400.69	6472.9	
400.89	7666.2	
401.09	7967.3	
401.3	5742.5	
401.5	6527.6	
401.7	8237.6	
401.91	8439	
402.11	6185.5	
402.32	6234	
402.52	7944.1	
402.72	7568.6	
402.93	6373.3	
403.13	5469.4	
403.33	8262.9	
403.54	7053.2	
403.74	5955.5	
403.94	6331.6	
404.15	7051.2	
404.35	7850.5	
404.56	5660.6	
404.76	6771.9	
404.96	7348.8	
405.17	7148.8	
405.37	6614.9	
405.57	6030.6	
405.78	7688.8	
405.98	7099.6	
406.18	5973.9	
406.39	6481.8	
406.59	7608.2	
406.79	7342.7	
407	5700.2	
407.2	5674.2	
407.4	7914.7	
407.61	7707.2	
407.81	5829.2	
408.01	6882.5	
408.22	6989	
408.42	8505.9	
408.62	6987	
408.83	6738.5	
409.03	7888.8	
409.23	7935.2	
409.44	7114	
409.64	7376.8	
409.84	9219.3	
410.05	9146.9	
410.25	7510.6	
410.45	7471	
410.66	9192.6	
410.86	10859	
411.06	8299.7	
411.27	8029.4	
411.47	10956	
411.67	9523.1	
411.88	8219.2	
412.08	8712.7	
412.28	10107	
412.49	10408	
412.69	8472.4	
412.89	8580.3	
413.09	10294	
413.3	10424	
413.5	8746.2	
413.7	8480	
413.91	9973.6	
414.11	10634	
414.31	8687.5	
414.52	9273.2	
414.72	10380	
414.92	10565	
415.12	8752.3	
415.33	9226.1	
415.53	10845	
415.73	10867	
415.94	9298.5	
416.14	9045.2	
416.34	10212	
416.55	9954.5	
416.75	9870.5	
416.95	9573.6	
417.15	11080	
417.36	11220	
417.56	10325	
417.76	9710.1	
417.97	11288	
418.17	11156	
418.37	9344.9	
418.57	9486.9	
418.78	11156	
418.98	10731	
419.18	10125	
419.38	9977	
419.59	10816	
419.79	10279	
419.99	9315.5	
420.2	9412.5	
420.4	11084	
420.6	10991	
420.8	9138.7	
421.01	9097.1	
421.21	11072	
421.41	11114	
421.61	9385.2	
421.82	9171.5	
422.02	10781	
422.22	11172	
422.42	9839.8	
422.63	9237.7	
422.83	10720	
423.03	11637	
423.23	9470.5	
423.44	8763.3	
423.64	10634	
423.84	10203	
424.04	9002.2	
424.25	8767.4	
424.45	11067	
424.65	10926	
424.85	8548.2	
425.06	9004.9	
425.26	11184	
425.46	10394	
425.66	9215.2	
425.87	8998.8	
426.07	10860	
426.27	10637	
426.47	8978.3	
426.67	8600.1	
426.88	10996	
427.08	10583	
427.28	9349.7	
427.48	8426.7	
427.69	9848.7	
427.89	10213	
428.09	8998.8	
428.29	8486.8	
428.5	10700	
428.7	10381	
428.9	8575.5	
429.1	8679.3	
429.3	10377	
429.51	10501	
429.71	8483.4	
429.91	9408.4	
430.11	10688	
430.31	10953	
430.52	8946.9	
430.72	9402.9	
430.92	11263	
431.12	10756	
431.32	8824	
431.53	9133.9	
431.73	10121	
431.93	11290	
432.13	8727.1	
432.33	8794.7	
432.54	10398	
432.74	10530	
432.94	8906.6	
433.14	9310.1	
433.34	10864	
433.55	10909	
433.75	9481.4	
433.95	10832	
434.15	10983	
434.35	10632	
434.56	8989.2	
434.76	8990.6	
434.96	10875	
435.16	11293	
435.36	9138.7	
435.56	10095	
435.77	10989	
435.97	11097	
436.17	10622	
436.37	10144	
436.57	10952	
436.78	11071	
436.98	10963	
437.18	10452	
437.38	11693	
437.58	11013	
437.78	10571	
437.99	9588.6	
438.19	11318	
438.39	11964	
438.59	9575.6	
438.79	9090.9	
438.99	11754	
439.2	10830	
439.4	8845.2	
439.6	8931.2	
439.8	10899	
440	11677	
440.2	9753.8	
440.4	9925.8	
440.61	11548	
440.81	11938	
441.01	9650.7	
441.21	10388	
441.41	12363	
441.61	11695	
441.81	10829	
442.02	11380	
442.22	12642	
442.42	12099	
442.62	10092	
442.82	9854.8	
443.02	12519	
443.22	11836	
443.43	10361	
443.63	10046	
443.83	11486	
444.03	11645	
444.23	11117	
444.43	10563	
444.63	12095	
444.83	12818	
445.04	10400	
445.24	11232	
445.44	12266	
445.64	12224	
445.84	10574	
446.04	10692	
446.24	11643	
446.44	12272	
446.65	9802.9	
446.85	10359	
447.05	11396	
447.25	12147	
447.45	10261	
447.65	9685.5	
447.85	11657	
448.05	11065	
448.25	10515	
448.46	10312	
448.66	11613	
448.86	11281	
449.06	9769.5	
449.26	10387	
449.46	11987	
449.66	11191	
449.86	10416	
450.06	10114	
450.26	11374	
450.47	11942	
450.67	10198	
450.87	10647	
451.07	12094	
451.27	11941	
451.47	9986.6	
451.67	10777	
451.87	11716	
452.07	12283	
452.27	10327	
452.47	10083	
452.67	11856	
452.88	12172	
453.08	9669.1	
453.28	11050	
453.48	12894	
453.68	11588	
453.88	10294	
454.08	10278	
454.28	12267	
454.48	11970	
454.68	10631	
454.88	10843	
455.08	12163	
455.28	12293	
455.48	9925.1	
455.68	10724	
455.89	12871	
456.09	12614	
456.29	10447	
456.49	10790	
456.69	12966	
456.89	12266	
457.09	11108	
457.29	11579	
457.49	12719	
457.69	12906	
457.89	11486	
458.09	10785	
458.29	12822	
458.49	13422	
458.69	11740	
458.89	11314	
459.09	13906	
459.29	13661	
459.49	11410	
459.69	12073	
459.9	13381	
460.1	13252	
460.3	11232	
460.5	11144	
460.7	13355	
460.9	12980	
461.1	10992	
461.3	12052	
461.5	14093	
461.7	13670	
461.9	11791	
462.1	11799	
462.3	13759	
462.5	13951	
462.7	11901	
462.9	12048	
463.1	14811	
463.3	14860	
463.5	12152	
463.7	13235	
463.9	14242	
464.1	14452	
464.3	12833	
464.5	12631	
464.7	14697	
464.9	14717	
465.1	13740	
465.3	13179	
465.5	14957	
465.7	15202	
465.9	13667	
466.1	13020	
466.3	15242	
466.5	14713	
466.7	14343	
466.9	13136	
467.1	15130	
467.3	15612	
467.5	14464	
467.7	13493	
467.9	15783	
468.1	16490	
468.3	13816	
468.5	14291	
468.7	15253	
468.9	15042	
469.1	13804	
469.3	14445	
469.5	16663	
469.7	15240	
469.9	14112	
470.1	13846	
470.3	15414	
470.5	15429	
470.7	14586	
470.9	13605	
471.1	15416	
471.3	15102	
471.5	13740	
471.69	14754	
471.89	15074	
472.09	14526	
472.29	14163	
472.49	13880	
472.69	14896	
472.89	15126	
473.09	13452	
473.29	13105	
473.49	14761	
473.69	14564	
473.89	13760	
474.09	13203	
474.29	15532	
474.49	15138	
474.69	13919	
474.89	13267	
475.09	14621	
475.29	14610	
475.49	12686	
475.69	13212	
475.88	15549	
476.08	14835	
476.28	12807	
476.48	12697	
476.68	14967	
476.88	14672	
477.08	12585	
477.28	13066	
477.48	14144	
477.68	14410	
477.88	12463	
478.08	12557	
478.28	14908	
478.48	14227	
478.67	12754	
478.87	12017	
479.07	14874	
479.27	14094	
479.47	12798	
479.67	12775	
479.87	14698	
480.07	14867	
480.27	12439	
480.47	13295	
480.67	14352	
480.87	14905	
481.06	12568	
481.26	13218	
481.46	14376	
481.66	14176	
481.86	12729	
482.06	13464	
482.26	13995	
482.46	14474	
482.66	12651	
482.86	12380	
483.05	14468	
483.25	13802	
483.45	14390	
483.65	12581	
483.85	14037	
484.05	14327	
484.25	13020	
484.45	13446	
484.65	14693	
484.84	15071	
485.04	12736	
485.24	12864	
485.44	15234	
485.64	14052	
485.84	12542	
486.04	13391	
486.24	14414	
486.44	14566	
486.63	12541	
486.83	13193	
487.03	14472	
487.23	14790	
487.43	12617	
487.63	14166	
487.83	14749	
488.02	15322	
488.22	13536	
488.42	14014	
488.62	15422	
488.82	14770	
489.02	13319	
489.22	13557	
489.41	15356	
489.61	15215	
489.81	13091	
490.01	13201	
490.21	15423	
490.41	15947	
490.61	13264	
490.8	13189	
491	15259	
491.2	14613	
491.4	13743	
491.6	13039	
491.8	14968	
491.99	14885	
492.19	12749	
492.39	12973	
492.59	15174	
492.79	15152	
492.99	13612	
493.18	13005	
493.38	15316	
493.58	16055	
493.78	13800	
493.98	13501	
494.18	15331	
494.37	15094	
494.57	14311	
494.77	14227	
494.97	16012	
495.17	16304	
495.37	14242	
495.56	14483	
495.76	16529	
495.96	16360	
496.16	15173	
496.36	14670	
496.55	16808	
496.75	16334	
496.95	14946	
497.15	14864	
497.35	16594	
497.54	16639	
497.74	14619	
497.94	16010	
498.14	17161	
498.34	16976	
498.53	14683	
498.73	15072	
498.93	16364	
499.13	16763	
499.33	15148	
499.52	15372	
499.72	17012	
499.92	16910	
500.12	15046	
500.32	15162	
500.51	17032	
500.71	17127	
500.91	15702	
501.11	15328	
501.31	16998	
501.5	17318	
501.7	15812	
501.9	15259	
502.1	16748	
502.29	17126	
502.49	15558	
502.69	15674	
502.89	16917	
503.09	17006	
503.28	14565	
503.48	14677	
503.68	16308	
503.88	16142	
504.07	15214	
504.27	14564	
504.47	16367	
504.67	16369	
504.86	14952	
505.06	14657	
505.26	15963	
505.46	17021	
505.65	14547	
505.85	14650	
506.05	15721	
506.25	16048	
506.44	13725	
506.64	14229	
506.84	15309	
507.04	15672	
507.23	13697	
507.43	13941	
507.63	16337	
507.83	15128	
508.02	13844	
508.22	13506	
508.42	16529	
508.62	14764	
508.81	13510	
509.01	14044	
509.21	14644	
509.4	14896	
509.6	13603	
509.8	13273	
510	14803	
510.19	15819	
510.39	13011	
510.59	13246	
510.79	14870	
510.98	15857	
511.18	13478	
511.38	13410	
511.57	15568	
511.77	15246	
511.97	13719	
512.17	13197	
512.36	15426	
512.56	15111	
512.76	13130	
512.95	12839	
513.15	15399	
513.35	14343	
513.55	13667	
513.74	13053	
513.94	15223	
514.14	14778	
514.33	13858	
514.53	13609	
514.73	14877	
514.92	14984	
515.12	13237	
515.32	13007	
515.51	15055	
515.71	15353	
515.91	14336	
516.11	13125	
516.3	16438	
516.5	14868	
516.7	13560	
516.89	14016	
517.09	14839	
517.29	15036	
517.48	13908	
517.68	13321	
517.88	14640	
518.07	15117	
518.27	13646	
518.47	13013	
518.66	15583	
518.86	14635	
519.06	12878	
519.25	13122	
519.45	14686	
519.65	15838	
519.84	13585	
520.04	14106	
520.24	16107	
520.43	15182	
520.63	13359	
520.83	13321	
521.02	14582	
521.22	14911	
521.42	13360	
521.61	13766	
521.81	14554	
522.01	14604	
522.2	13216	
522.4	12988	
522.6	14896	
522.79	14171	
522.99	13105	
523.18	12702	
523.38	15023	
523.58	14898	
523.77	14308	
523.97	12995	
524.17	16406	
524.36	15793	
524.56	14199	
524.76	13816	
524.95	15422	
525.15	15109	
525.34	13772	
525.54	14017	
525.74	15803	
525.93	15164	
526.13	14851	
526.33	14129	
526.52	16244	
526.72	15920	
526.91	15070	
527.11	14613	
527.31	16202	
527.5	16540	
527.7	14556	
527.89	13701	
528.09	15575	
528.29	15899	
528.48	14584	
528.68	14389	
528.87	16115	
529.07	16016	
529.27	14453	
529.46	14212	
529.66	16077	
529.85	16427	
530.05	14178	
530.25	14631	
530.44	17086	
530.64	15890	
530.83	14391	
531.03	14444	
531.23	16341	
531.42	15993	
531.62	14899	
531.81	14374	
532.01	16500	
532.21	16582	
532.4	14442	
532.6	14781	
532.79	17075	
532.99	16660	
533.18	14963	
533.38	15687	
533.58	16592	
533.77	16938	
533.97	15196	
534.16	15591	
534.36	17249	
534.55	16687	
534.75	15711	
534.95	15203	
535.14	17432	
535.34	16859	
535.53	14891	
535.73	16264	
535.92	17708	
536.12	16535	
536.31	14875	
536.51	15716	
536.71	16878	
536.9	16484	
537.1	14872	
537.29	14995	
537.49	17046	
537.68	16254	
537.88	15369	
538.07	14639	
538.27	16572	
538.46	17262	
538.66	14552	
538.86	14971	
539.05	16756	
539.25	17013	
539.44	15333	
539.64	14782	
539.83	16561	
540.03	17169	
540.22	14766	
540.42	14709	
540.61	16507	
540.81	16595	
541	14859	
541.2	15399	
541.39	15971	
541.59	16196	
541.78	15175	
541.98	14461	
542.18	15580	
542.37	15571	
542.57	14481	
542.76	15068	
542.96	15692	
543.15	15933	
543.35	14369	
543.54	14025	
543.74	15780	
543.93	15800	
544.13	14033	
544.32	14698	
544.52	15819	
544.71	15059	
544.91	13275	
545.1	13994	
545.3	15137	
545.49	15436	
545.69	13204	
545.88	13582	
546.08	16196	
546.27	15724	
546.47	13983	
546.66	13201	
546.86	15459	
547.05	15924	
547.24	13534	
547.44	13407	
547.63	14754	
547.83	15459	
548.02	13560	
548.22	13573	
548.41	14343	
548.61	15319	
548.8	13026	
549	13087	
549.19	14913	
549.39	15167	
549.58	12768	
549.78	13189	
549.97	15152	
550.17	14595	
550.36	13487	
550.55	14302	
550.75	14553	
550.94	15179	
551.14	12855	
551.33	12939	
551.53	14109	
551.72	14734	
551.92	13027	
552.11	12715	
552.31	14742	
552.5	14670	
552.69	13882	
552.89	12513	
553.08	14610	
553.28	14416	
553.47	12754	
553.67	13486	
553.86	15010	
554.06	13778	
554.25	11955	
554.44	12544	
554.64	15387	
554.83	15075	
555.03	12520	
555.22	12668	
555.42	14543	
555.61	14274	
555.8	12458	
556	12461	
556.19	13700	
556.39	14361	
556.58	12451	
556.78	12312	
556.97	14078	
557.16	13884	
557.36	13096	
557.55	12130	
557.75	13426	
557.94	14627	
558.13	12072	
558.33	11922	
558.52	14422	
558.72	13512	
558.91	11939	
559.1	12262	
559.3	13267	
559.49	13051	
559.69	11690	
559.88	12290	
560.07	13801	
560.27	14229	
560.46	12294	
560.66	12364	
560.85	13643	
561.04	13035	
561.24	11727	
561.43	11678	
561.63	13177	
561.82	13317	
562.01	12618	
562.21	11959	
562.4	13544	
562.59	14291	
562.79	11860	
562.98	11556	
563.18	13431	
563.37	14490	
563.56	12199	
563.76	11617	
563.95	13231	
564.14	13022	
564.34	11895	
564.53	11580	
564.73	13564	
564.92	13682	
565.11	12039	
565.31	11509	
565.5	13927	
565.69	13076	
565.89	11723	
566.08	11837	
566.27	13734	
566.47	14130	
566.66	12335	
566.85	11434	
567.05	13596	
567.24	13162	
567.44	11647	
567.63	12499	
567.82	13678	
568.02	13367	
568.21	11634	
568.4	11838	
568.6	13367	
568.79	13388	
568.98	11396	
569.18	11528	
569.37	13312	
569.56	14660	
569.76	11981	
569.95	12373	
570.14	13482	
570.34	13336	
570.53	11218	
570.72	11394	
570.91	13849	
571.11	13091	
571.3	11615	
571.49	12159	
571.69	13162	
571.88	12649	
572.07	11768	
572.27	11689	
572.46	12691	
572.65	13373	
572.85	11351	
573.04	11515	
573.23	13592	
573.43	13031	
573.62	11256	
573.81	11662	
574	13246	
574.2	12988	
574.39	11469	
574.58	11559	
574.78	13768	
574.97	13164	
575.16	11833	
575.36	11962	
575.55	13472	
575.74	13621	
575.93	11270	
576.13	12089	
576.32	13063	
576.51	13632	
576.71	11672	
576.9	12475	
577.09	13737	
577.28	13235	
577.48	11701	
577.67	11139	
577.86	13220	
578.05	13326	
578.25	11564	
578.44	11579	
578.63	13154	
578.83	14138	
579.02	11166	
579.21	12289	
579.4	13343	
579.6	13186	
579.79	11642	
579.98	13336	
580.17	13564	
580.37	13733	
580.56	11290	
580.75	11852	
580.94	13835	
581.14	13746	
581.33	12300	
581.52	11434	
581.71	13567	
581.91	13990	
582.1	11279	
582.29	11694	
582.48	13382	
582.68	13289	
582.87	12110	
583.06	11830	
583.25	13679	
583.45	13055	
583.64	12446	
583.83	12777	
584.02	13297	
584.21	13617	
584.41	12389	
584.6	11770	
584.79	13414	
584.98	13941	
585.18	11427	
585.37	11508	
585.56	13188	
585.75	13559	
585.94	11566	
586.14	12054	
586.33	13951	
586.52	13250	
586.71	11757	
586.91	11589	
587.1	12628	
587.29	13421	
587.48	11284	
587.67	11262	
587.87	13119	
588.06	13011	
588.25	12162	
588.44	11485	
588.63	12611	
588.83	12977	
589.02	10925	
589.21	10738	
589.4	12248	
589.59	12162	
589.78	9852.1	
589.98	9987.3	
590.17	11429	
590.36	11733	
590.55	9192	
590.74	9583.8	
590.94	12182	
591.13	11153	
591.32	9294.4	
591.51	8817.2	
591.7	11193	
591.89	10927	
592.09	8917.5	
592.28	9235.7	
592.47	10395	
592.66	11807	
592.85	9052.7	
593.05	9174.9	
593.24	10868	
593.43	11579	
593.62	9268.4	
593.81	9637.1	
594	11000	
594.19	11163	
594.39	9265.7	
594.58	9131.9	
594.77	11167	
594.96	11609	
595.15	9221.3	
595.34	9641.2	
595.54	11140	
595.73	10634	
595.92	8719.6	
596.11	9359.2	
596.3	11488	
596.49	10625	
596.68	9180.4	
596.88	9431.6	
597.07	11274	
597.26	10416	
597.45	8909.3	
597.64	9699.2	
597.83	10739	
598.02	11075	
598.22	8959.2	
598.41	9516.9	
598.6	11032	
598.79	10555	
598.98	9055.4	
599.17	9708.7	
599.36	11046	
599.55	11733	
599.74	10424	
599.94	10357	
600.13	11355	
600.32	10572	
600.51	8898.4	
600.7	9126.4	
600.89	11859	
601.08	12010	
601.27	8915.5	
601.47	9630.9	
601.66	11361	
601.85	11798	
602.04	9518.3	
602.23	9602.2	
602.42	10719	
602.61	11125	
602.8	9385.2	
602.99	9181	
603.18	11024	
603.37	11023	
603.57	9560.6	
603.76	9953.1	
603.95	11740	
604.14	11305	
604.33	9239.1	
604.52	9349.7	
604.71	11303	
604.9	10866	
605.09	9790.7	
605.28	9719	
605.47	11556	
605.66	11260	
605.86	9671.2	
606.05	9305.3	
606.24	11525	
606.43	10492	
606.62	9457.5	
606.81	9844.6	
607	11460	
607.19	10866	
607.38	9027.4	
607.57	9131.9	
607.76	10734	
607.95	10154	
608.14	9487.6	
608.33	9768.8	
608.52	10673	
608.72	11295	
608.91	8815.8	
609.1	8817.2	
609.29	10718	
609.48	10238	
609.67	9380.4	
609.86	8719.6	
610.05	10329	
610.24	10563	
610.43	8652.7	
610.62	8399.4	
610.81	11337	
611	11243	
611.19	8708.6	
611.38	9182.4	
611.57	10802	
611.76	11524	
611.95	8503.8	
612.14	8350.3	
612.33	10562	
612.52	10256	
612.71	8761.2	
612.9	8252.6	
613.09	9979.1	
613.28	11513	
613.47	8736.6	
613.66	9241.1	
613.85	10654	
614.04	10170	
614.24	8671.1	
614.43	8087.4	
614.62	10644	
614.81	10579	
615	8961.2	
615.19	9041.8	
615.38	10143	
615.57	10435	
615.76	8803.5	
615.95	9585.2	
616.14	10587	
616.33	10323	
616.52	9073.2	
616.71	9164	
616.9	10623	
617.09	10429	
617.28	8560.5	
617.47	9519	
617.66	9890.3	
617.85	9834.3	
618.04	9186.5	
618.22	8871.1	
618.41	10190	
618.6	10869	
618.79	8929.1	
618.98	8755.1	
619.17	11058	
619.36	9859.6	
619.55	8845.2	
619.74	8757.1	
619.93	10624	
620.12	10243	
620.31	9220	
620.5	9286.2	
620.69	10946	
620.88	11379	
621.07	9779.1	
621.26	9174.9	
621.45	10789	
621.64	10745	
621.83	9253.4	
622.02	8791.2	
622.21	10877	
622.4	10623	
622.59	9574.3	
622.78	9411.8	
622.97	10327	
623.16	10930	
623.35	9186.5	
623.54	8569.4	
623.72	10401	
623.91	10520	
624.1	9353.1	
624.29	8433.5	
624.48	11268	
624.67	10649	
624.86	9267.1	
625.05	8546.2	
625.24	11217	
625.43	10236	
625.62	10343	
625.81	8690.2	
626	10801	
626.19	10341	
626.38	9131.2	
626.56	8759.8	
626.75	10131	
626.94	10712	
627.13	9147.6	
627.32	8369.4	
627.51	10621	
627.7	11207	
627.89	8305.9	
628.08	8964.6	
628.27	9792.7	
628.46	9947	
628.65	8339.3	
628.83	8025.3	
629.02	10278	
629.21	9759.3	
629.4	8550.3	
629.59	8794	
629.78	9831.6	
629.97	10382	
630.16	8809	
630.35	8346.8	
630.54	10834	
630.72	10641	
630.91	8490.9	
631.1	8686.1	
631.29	10246	
631.48	10273	
631.67	8880.7	
631.86	8488.8	
632.05	10010	
632.24	10056	
632.42	8209.6	
632.61	8627.4	
632.8	10031	
632.99	9656.2	
633.18	8685.4	
633.37	8858.8	
633.56	10294	
633.75	10133	
633.93	8691.6	
634.12	8506.6	
634.31	10804	
634.5	10441	
634.69	8461.5	
634.88	8842.4	
635.07	10089	
635.25	10535	
635.44	9103.2	
635.63	9225.4	
635.82	9978.4	
636.01	9542.2	
636.2	9035.6	
636.39	8669.7	
636.57	10789	
636.76	10314	
636.95	8370	
637.14	9128.5	
637.33	10213	
637.52	10845	
637.7	8188.5	
637.89	8927.8	
638.08	10024	
638.27	10913	
638.46	8920.3	
638.65	9060.9	
638.83	10910	
639.02	9785.2	
639.21	8839	
639.4	9090.3	
639.59	10002	
639.78	9856.9	
639.96	8137.3	
640.15	8234.2	
640.34	9934.7	
640.53	9923.1	
640.72	7950.9	
640.91	8144.1	
641.09	9600.2	
641.28	10395	
641.47	8152.3	
641.66	8654	
641.85	9983.8	
642.03	10010	
642.22	8512.7	
642.41	8196.7	
642.6	9489.6	
642.79	9041.8	
642.97	8065.6	
643.16	8359.8	
643.35	9488.2	
643.54	9217.9	
643.73	7795.9	
643.91	8368	
644.1	9080	
644.29	9514.2	
644.48	7732.4	
644.67	7857.4	
644.85	9052.7	
645.04	9302.6	
645.23	7378.8	
645.42	7643	
645.6	8946.2	
645.79	9591.3	
645.98	7336.5	
646.17	6689.3	
646.36	8542.1	
646.54	8815.8	
646.73	7816.4	
646.92	6831.3	
647.11	8459.5	
647.29	9170.1	
647.48	6961	
647.67	6747.4	
647.86	9331.2	
648.05	9349.7	
648.23	6982.2	
648.42	7956.4	
648.61	8826.1	
648.8	8702.5	
648.98	6828.6	
649.17	7114	
649.36	8385.7	
649.55	8118.1	
649.73	6955.6	
649.92	7375.4	
650.11	8311.3	
650.3	8600.1	
650.48	7037.5	
650.67	6802	
650.86	8677.9	
651.05	7946.1	
651.23	6855.2	
651.42	6825.9	
651.61	8338	
651.79	8191.2	
651.98	7021.8	
652.17	6687.3	
652.36	8574.2	
652.54	7955	
652.73	6723.5	
652.92	6636.8	
653.11	8589.2	
653.29	8679.3	
653.48	6260	
653.67	6963.8	
653.85	8370	
654.04	9090.3	
654.23	7071.6	
654.42	6739.2	
654.6	8041.7	
654.79	8417.8	
654.98	6291.4	
655.16	6654.5	
655.35	7649.8	
655.54	7439.6	
655.73	6234.7	
655.91	6094.8	
656.1	8200.7	
656.29	7389.8	
656.47	5937.1	
656.66	7002.7	
656.85	7687.4	
657.03	7722.9	
657.22	6322.1	
657.41	6386.2	
657.59	7890.8	
657.78	7702.4	
657.97	6191.7	
658.16	6639.5	
658.34	8361.9	
658.53	8615.1	
658.72	7253.2	
658.9	7641.7	
659.09	8075.1	
659.28	8016.4	
659.46	6539.8	
659.65	6505	
659.84	7866.2	
660.02	8312.7	
660.21	6467.5	
660.4	6370.5	
660.58	8553	
660.77	8134.5	
660.96	6907.8	
661.14	6161.7	
661.33	8886.1	
661.52	8816.5	
661.7	6152.8	
661.89	8586.5	
662.08	7817.1	
662.26	7498.3	
662.45	6279.1	
662.64	6388.3	
662.82	8385.7	
663.01	7749.5	
663.2	6491.4	
663.38	6896.2	
663.57	8119.5	
663.75	8121.6	
663.94	6578.1	
664.13	7468.9	
664.31	7775.5	
664.5	8213	
664.69	6819.7	
664.87	7057.3	
665.06	7513.3	
665.25	8024.6	
665.43	7273.7	
665.62	7245.7	
665.8	8208.9	
665.99	7682.6	
666.18	6614.9	
666.36	6563.7	
666.55	8203.5	
666.74	8086.1	
666.92	6294.8	
667.11	7348.1	
667.29	7854	
667.48	8156.4	
667.67	7058	
667.85	6365.8	
668.04	7719.5	
668.22	7726.3	
668.41	6431.3	
668.6	6734.4	
668.78	7541.3	
668.97	7864.2	
669.15	6704.4	
669.34	6072.9	
669.53	7622.5	
669.71	7832.8	
669.9	6135.7	
670.08	6589	
670.27	7594.6	
670.46	7942	
670.64	6706.4	
670.83	6916	
671.01	7405.5	
671.2	7754.3	
671.38	6174.6	
671.57	5980.8	
671.76	8307.9	
671.94	8630.8	
672.13	6037.4	
672.31	6688.7	
672.5	7997.3	
672.69	7471	
672.87	6115.9	
673.06	6350.1	
673.24	7975.5	
673.43	7621.9	
673.61	6532.3	
673.8	6272.9	
673.98	7909.9	
674.17	8036.9	
674.36	6725.5	
674.54	6637.5	
674.73	7698.3	
674.91	8026	
675.1	6394.4	
675.28	5969.1	
675.47	7618.4	
675.65	8034.9	
675.84	6277	
676.03	6492.7	
676.21	7520.1	
676.4	7077.1	
676.58	6784.9	
676.77	6621.1	
676.95	8579.6	
677.14	7430.7	
677.32	5972.6	
677.51	5897.5	
677.69	7963.2	
677.88	7281.9	
678.06	5988.3	
678.25	6023.8	
678.44	7567.9	
678.62	7307.8	
678.81	5761.6	
678.99	6439.5	
679.18	8172.8	
679.36	7760.4	
679.55	6150.7	
679.73	6582.2	
679.92	7759.8	
680.1	7318.1	
680.29	6995.2	
680.47	5984.8	
680.66	7313.3	
680.84	7823.2	
681.03	5668.8	
681.21	6449.1	
681.4	7411.6	
681.58	7277.1	
681.77	6017.6	
681.95	5994.4	
682.14	7914	
682.32	8129.8	
682.51	6531	
682.69	5700.2	
682.88	7188.4	
683.06	7550.9	
683.25	6231.3	
683.43	6505.7	
683.62	7380.2	
683.8	7601.4	
683.99	6630	
684.17	6120.7	
684.36	8135.9	
684.54	7289.4	
684.73	5551.4	
684.91	5630.5	
685.1	7409.6	
685.28	6778.1	
685.46	5807.4	
685.65	5823.1	
685.83	7271	
686.02	6789.7	
686.2	5276.9	
686.39	5266.7	
686.57	6476.4	
686.76	7595.2	
686.94	5218.2	
687.13	5410.7	
687.31	6974	
687.5	6808.8	
687.68	5040.7	
687.86	5763	
688.05	8005.5	
688.23	6365.8	
688.42	5911.8	
688.6	5379.3	
688.79	6781.5	
688.97	6793.8	
689.16	5773.2	
689.34	4921.3	
689.52	7190.4	
689.71	7460.1	
689.89	5997.8	
690.08	5443.5	
690.26	7009.5	
690.45	6855.9	
690.63	5995.1	
690.81	5614.2	
691	6861.4	
691.18	6676.4	
691.37	5579.3	
691.55	7048.4	
691.74	6637.5	
691.92	7978.9	
692.1	5511.1	
692.29	5169.8	
692.47	6710.5	
692.66	6231.3	
692.84	5193	
693.02	5618.3	
693.21	6275	
693.39	6763.1	
693.58	5745.9	
693.76	5262.6	
693.94	7486.7	
694.13	7299	
694.31	5393.7	
694.5	6113.2	
694.68	6626.5	
694.86	6979.5	
695.05	5774.6	
695.23	5745.2	
695.42	7335.1	
695.6	8750.3	
695.78	6156.2	
695.97	5545.9	
696.15	7372	
696.34	6803.4	
696.52	5339.7	
696.7	5933	
696.89	7092.1	
697.07	6547.4	
697.25	5763.7	
697.44	6731	
697.62	7015.7	
697.81	7101	
697.99	5537	
698.17	5835.3	
698.36	6477	
698.54	6965.8	
698.72	5717.9	
698.91	5007.3	
699.09	6660	
699.28	6477	
699.46	5527.5	
699.64	5379.3	
699.83	6475	
700.01	7258.7	
700.19	5913.9	
700.38	4793.6	
700.56	7265.5	
700.74	6563.7	
700.93	5109.7	
701.11	5756.2	
701.29	7001.3	
701.48	7761.8	
701.66	5311.1	
701.84	5448.3	
702.03	6798.6	
702.21	7236.2	
702.39	5112.4	
702.58	5587.5	
702.76	7051.8	
702.94	7124.2	
703.13	5055.8	
703.31	6654.5	
703.49	6612.2	
703.68	7658.7	
703.86	5134.3	
704.04	5879.7	
704.23	6929	
704.41	7159.7	
704.59	5282.4	
704.78	6081.8	
704.96	7986.4	
705.14	7128.3	
705.33	5158.8	
705.51	5728.9	
705.69	6783.6	
705.87	7319.4	
706.06	5931.6	
706.24	5166.3	
706.42	7001.3	
706.61	7208.2	
706.79	5950	
706.97	5212.1	
707.16	6610.8	
707.34	7081.2	
707.52	5814.9	
707.7	5292	
707.89	6604	
708.07	6489.3	
708.25	5843.5	
708.44	5914.5	
708.62	6553.5	
708.8	7410.2	
708.98	6109.1	
709.17	5414.8	
709.35	6827.2	
709.53	6880.5	
709.72	5142.4	
709.9	5240.1	
710.08	7134.4	
710.26	7124.2	
710.45	6181.5	
710.63	5353.4	
710.81	6844.3	
710.99	6744	
711.18	5741.1	
711.36	5294.7	
711.54	6714.6	
711.72	7172.7	
711.91	5413.5	
712.09	4979.3	
712.27	6707.1	
712.45	7013.6	
712.64	5517.9	
712.82	4747.2	
713	6338.5	
713.18	6389	
713.37	4833.9	
713.55	5572.5	
713.73	6955.6	
713.91	5986.9	
714.1	5001.1	
714.28	4551.3	
714.46	6537.1	
714.64	5864	
714.83	4085	
715.01	4591.5	
715.19	5874.9	
715.37	5324	
715.55	4264.6	
715.74	4416.8	
715.92	6346	
716.1	4927.4	
716.28	5248.9	
716.47	4479.6	
716.65	5517.9	
716.83	5580	
717.01	4352.6	
717.19	4393.6	
717.38	6795.2	
717.56	5255.8	
717.74	4498.7	
717.92	3928	
718.1	6092.7	
718.29	5545.2	
718.47	3723.9	
718.65	4188.1	
718.83	6133.7	
719.01	6055.2	
719.2	3852.9	
719.38	4548.5	
719.56	5969.8	
719.74	7101	
719.92	4366.3	
720.11	5035.3	
720.29	6120.7	
720.47	5474.9	
720.65	4059.8	
720.83	4521.2	
721.02	5621	
721.2	5444.2	
721.38	4492.6	
721.56	3997	
721.74	4982	
721.92	5074.9	
722.11	4769	
722.29	4582	
722.47	6023.8	
722.65	5438	
722.83	3923.9	
723.01	4518.5	
723.2	5419.6	
723.38	5653.1	
723.56	3616	
723.74	4393.6	
723.92	5091.3	
724.1	5937.1	
724.29	3951.2	
724.47	4681	
724.65	5259.2	
724.83	5123.3	
725.01	3851.5	
725.19	4440.7	
725.37	5096.7	
725.56	5117.9	
725.74	3788.1	
725.92	3936.2	
726.1	5167.7	
726.28	5420.3	
726.46	4182	
726.64	4021.5	
726.83	5383.4	
727.01	5502.2	
727.19	3760.1	
727.37	4316.4	
727.55	5461.9	
727.73	5813.5	
727.91	3683.6	
728.09	3598.3	
728.28	5859.2	
728.46	5960.3	
728.64	4375.1	
728.82	4303.5	
729	6455.2	
729.18	6057.2	
729.36	3810.6	
729.54	5395	
729.72	6727.6	
729.91	5560.9	
730.09	5262.6	
730.27	4379.2	
730.45	5569.1	
730.63	5970.5	
730.81	4711	
730.99	4130.8	
731.17	6432	
731.35	5447.6	
731.53	4550.6	
731.71	4268	
731.9	6199.2	
732.08	6148.7	
732.26	4395.6	
732.44	4119.8	
732.62	6303	
732.8	5929.6	
732.98	4691.9	
733.16	4053.6	
733.34	5942.5	
733.52	4969.7	
733.7	4326	
733.88	4498.7	
734.07	5822.4	
734.25	5597.1	
734.43	3947.8	
734.61	5046.2	
734.79	6697.5	
734.97	5595.7	
735.15	4061.8	
735.33	4333.5	
735.51	5869.5	
735.69	5579.3	
735.87	5010	
736.05	4411.3	
736.23	5735.7	
736.41	5487.9	
736.59	4345.8	
736.77	4458.4	
736.95	6037.4	
737.13	5600.5	
737.32	4119.8	
737.5	4304.8	
737.68	6437.4	
737.86	5511.1	
738.04	3943.7	
738.22	5227.8	
738.4	5467.4	
738.58	5730.9	
738.76	4358.8	
738.94	3721.2	
739.12	5493.3	
739.3	5459.9	
739.48	4844.1	
739.66	4606.6	
739.84	5668.1	
740.02	5655.1	
740.2	3768.9	
740.38	4011.3	
740.56	5934.3	
740.74	5098.1	
740.92	4455	
741.1	4350.6	
741.28	5564.3	
741.46	5353.4	
741.64	4121.9	
741.82	4547.2	
742	5545.9	
742.18	5447.6	
742.36	4222.2	
742.54	4032.5	
742.72	5918.6	
742.9	5047.6	
743.08	4493.9	
743.26	3648.8	
743.44	5946.6	
743.62	5932.3	
743.8	4596.3	
743.98	3962.8	
744.16	5668.1	
744.34	5429.2	
744.52	4461.2	
744.7	4461.2	
744.88	5776.6	
745.06	5427.1	
745.24	4449.6	
745.42	4589.5	
745.6	5914.5	
745.78	5778.7	
745.96	3767.6	
746.14	3944.4	
746.32	6402	
746.5	5724.1	
746.68	4244.8	
746.86	3906.2	
747.03	5916.6	
747.21	4982.7	
747.39	4300.1	
747.57	3916.4	
747.75	5511.1	
747.93	5768.4	
748.11	3867.9	
748.29	3794.2	
748.47	6628.6	
748.65	5289.2	
748.83	4328.7	
749.01	4177.2	
749.19	5659.2	
749.37	5015.5	
749.55	4128.7	
749.73	4103.4	
749.91	5474.9	
750.09	5221.6	
750.26	4197	
750.44	3708.9	
750.62	5419.6	
750.8	5350.7	
750.98	3693.9	
751.16	3812	
751.34	5527.5	
751.52	5059.2	
751.7	4466.6	
751.88	3601.7	
752.06	5797.8	
752.24	5551.4	
752.42	3541.6	
752.59	3870.7	
752.77	5382.7	
752.95	6173.3	
753.13	4375.8	
753.31	3915.7	
753.49	5152.7	
753.67	5366.4	
753.85	4087.1	
754.03	3779.9	
754.21	5650.3	
754.38	5849	
754.56	3833.8	
754.74	3242.6	
754.92	5037.3	
755.1	5438	
755.28	3216.7	
755.46	3210.5	
755.64	6066.8	
755.82	6111.8	
755.99	3418.1	
756.17	3490.4	
756.35	4336.9	
756.53	5327.4	
756.71	2677.4	
756.89	3277.4	
757.07	4990.9	
757.25	4429.8	
757.42	3622.9	
757.6	4194.9	
757.78	5097.4	
757.96	4374.5	
758.14	3424.9	
758.32	3118.4	
758.5	4108.9	
758.67	4752	
758.85	3328.6	
759.03	3446.7	
759.21	4866.7	
759.39	4416.8	
759.57	3038.5	
759.75	3717.7	
759.92	5309	
760.1	4861.9	
760.28	4080.2	
760.46	4205.2	
760.64	4685.1	
760.82	4559.5	
760.99	3916.4	
761.17	3418.1	
761.35	5243.5	
761.53	4498.7	
761.71	3639.9	
761.89	3961.5	
762.06	5188.2	
762.24	4752	
762.42	3548.4	
762.6	3407.1	
762.78	4780	
762.96	5267.4	
763.13	3830.4	
763.31	3553.2	
763.49	5259.9	
763.67	4767.7	
763.85	4181.3	
764.02	4571.1	
764.2	5610.1	
764.38	4898.1	
764.56	3500.7	
764.74	4150.5	
764.91	5593.7	
765.09	4778.6	
765.27	3334.8	
765.45	3174.4	
765.63	5681.1	
765.8	5440.8	
765.98	3044.6	
766.16	3249.4	
766.34	4554.7	
766.52	4352.6	
766.69	3867.2	
766.87	3126.6	
767.05	4891.2	
767.23	5447.6	
767.41	3367.5	
767.58	3503.4	
767.76	5205.9	
767.94	5250.3	
768.12	3430.3	
768.29	3857.7	
768.47	4789.5	
768.65	5397.1	
768.83	3123.2	
769	3880.2	
769.18	4553.3	
769.36	5049.6	
769.54	3968.3	
769.72	3158	
769.89	5371.8	
770.07	5251.7	
770.25	3415.3	
770.43	4282.3	
770.6	5763	
770.78	6037.4	
770.96	3480.2	
771.14	3958	
771.31	5182	
771.49	4800.4	
771.67	3038.5	
771.85	3112.9	
772.02	4266.6	
772.2	4625.7	
772.38	3653.6	
772.55	3308.2	
772.73	4969.1	
772.91	4777.2	
773.09	3556	
773.26	3620.8	
773.44	4979.3	
773.62	4765.6	
773.8	3184.6	
773.97	2989.4	
774.15	4949.9	
774.33	4704.9	
774.5	3170.9	
774.68	3377.1	
774.86	5117.2	
775.04	4715.1	
775.21	3138.2	
775.39	3205.8	
775.57	4933.6	
775.74	5094	
775.92	3005.7	
776.1	2949.8	
776.27	4878.9	
776.45	5656.5	
776.63	3202.3	
776.81	2857.6	
776.98	4678.9	
777.16	5311.1	
777.34	3272.7	
777.51	3476.8	
777.69	4639.3	
777.87	4433.2	
778.04	3351.8	
778.22	3654.3	
778.4	4508.3	
778.57	4962.9	
778.75	2766.8	
778.93	3012.6	
779.1	4386.1	
779.28	4227	
779.46	2814.6	
779.64	3101.3	
779.81	5059.2	
779.99	5616.2	
780.17	3665.2	
780.34	3667.9	
780.52	4720.6	
780.69	4816.8	
780.87	3360	
781.05	3026.9	
781.22	4691.9	
781.4	4737.6	
781.58	3113.6	
781.75	2594.8	
781.93	4787.5	
782.11	4275.5	
782.28	3784	
782.46	3120.4	
782.64	4222.2	
782.81	4878.3	
782.99	3267.2	
783.17	3125.2	
783.34	4741.7	
783.52	4347.8	
783.69	3292.5	
783.87	3826.3	
784.05	4344.4	
784.22	4326.7	
784.4	3876.8	
784.58	3374.4	
784.75	4922.6	
784.93	4443.4	
785.1	3132	
785.28	3616.7	
785.46	4831.2	
785.63	4261.1	
785.81	3138.9	
785.99	3056.3	
786.16	4519.2	
786.34	4729.4	
786.51	3037.8	
786.69	3380.5	
786.87	4125.3	
787.04	4472.8	
787.22	2990	
787.39	3617.4	
787.57	4365.6	
787.75	5074.2	
787.92	3794.2	
788.1	3701.4	
788.27	4261.1	
788.45	4108.9	
788.63	3549.8	
788.8	2618	
788.98	4743.1	
789.15	4008.6	
789.33	2705.4	
789.5	3151.1	
789.68	4989.5	
789.86	5031.9	
790.03	3452.2	
790.21	3037.1	
790.38	4998.4	
790.56	4384	
790.73	2975.7	
790.91	2971.6	
791.09	4318.5	
791.26	4782	
791.44	3154.6	
791.61	2770.2	
791.79	4326.7	
791.96	4352.6	
792.14	2841.9	
792.32	2594.8	
792.49	4247.5	
792.67	4387.4	
792.84	2919	
793.02	2755.9	
793.19	4713.7	
793.37	5115.8	
793.54	2603.7	
793.72	2809.1	
793.89	5139	
794.07	4281.6	
794.25	3209.8	
794.42	2644.6	
794.6	5044.8	
794.77	4713.1	
794.95	3432.4	
795.12	2977.1	
795.3	4358.8	
795.47	4747.2	
795.65	3259	
795.82	3106.1	
796	4241.3	
796.17	5468.1	
796.35	3092.4	
796.52	3588	
796.7	4744.5	
796.87	4810.7	
797.05	3112.2	
797.22	3643.3	
797.4	4760.2	
797.57	5454.4	
797.75	3216	
797.92	2979.8	
798.1	5020.3	
798.27	4193.6	
798.45	2692.4	
798.62	2828.9	
798.8	4577.2	
798.97	4899.4	
799.15	3331.4	
799.32	3193.5	
799.5	4039.3	
799.67	4539.7	
799.85	3439.9	
800.02	2635.7	
800.2	4334.2	
800.37	4456.4	
800.55	3523.2	
800.72	3016	
800.9	4855.1	
801.07	5064.6	
801.25	3921.9	
801.42	3242.6	
801.6	4918.5	
801.77	4546.5	
801.95	3052.8	
802.12	2956.6	
802.29	4704.9	
802.47	4650.3	
802.64	3318.4	
802.82	2581.8	
802.99	4296	
803.17	4941.7	
803.34	3183.2	
803.52	2887.6	
803.69	5356.1	
803.87	4074.8	
804.04	3160.7	
804.21	3200.3	
804.39	5114.5	
804.56	4462.5	
804.74	2734.7	
804.91	3295.9	
805.09	4286.4	
805.26	4331.5	
805.44	2811.2	
805.61	3012.6	
805.78	4781.3	
805.96	4784.7	
806.13	3226.9	
806.31	3499.3	
806.48	3982.6	
806.66	4343.7	
806.83	3297.2	
807	3165.5	
807.18	4369.7	
807.35	4572.4	
807.53	3046	
807.7	2656.9	
807.87	5153.4	
808.05	4311	
808.22	3452.9	
808.4	2631	
808.57	4276.2	
808.74	4032.5	
808.92	2956.6	
809.09	3586	
809.27	4353.3	
809.44	4618.9	
809.61	2628.9	
809.79	2911.5	
809.96	5217.5	
810.14	4776.5	
810.31	2594.8	
810.48	3110.9	
810.66	4362.9	
810.83	4796.3	
811.01	2988.7	
811.18	3262.4	
811.35	4854.4	
811.53	3846.1	
811.7	3525.2	
811.87	3254.2	
812.05	4427	
812.22	4309.6	
812.39	2896.5	
812.57	2794.1	
812.74	4369	
812.92	5444.2	
813.09	3091.8	
813.26	3295.9	
813.44	5224.4	
813.61	4233.2	
813.78	2643.9	
813.96	3398.9	
814.13	4397	
814.3	4159.4	
814.48	3631	
814.65	3082.2	
814.82	5089.9	
815	4123.2	
815.17	3102.7	
815.34	3783.3	
815.52	4250.9	
815.69	4260.5	
815.87	3089	
816.04	3050.8	
816.21	4256.4	
816.38	4003.8	
816.56	3048.1	
816.73	2865.8	
816.9	5328.8	
817.08	4779.3	
817.25	2907.4	
817.42	3482.9	
817.6	4027.7	
817.77	4292.5	
817.94	3199.6	
818.12	2867.8	
818.29	4223.6	
818.46	5935	
818.64	3017.3	
818.81	2766.8	
818.98	4187.4	
819.16	5530.2	
819.33	3358.7	
819.5	3153.9	
819.67	4571.1	
819.85	5007.3	
820.02	3136.1	
820.19	3272	
820.37	4478.2	
820.54	4242.7	
820.71	3206.4	
820.88	3915	
821.06	4513	
821.23	4143.7	
821.4	3219.4	
821.58	3194.8	
821.75	4780	
821.92	4476.9	
822.09	2660.3	
822.27	2767.5	
822.44	4333.5	
822.61	4255.7	
822.79	2679.4	
822.96	4754.7	
823.13	4607.9	
823.3	4061.8	
823.48	2956.6	
823.65	2734.7	
823.82	4876.9	
823.99	4025.6	
824.17	3753.9	
824.34	2791.4	
824.51	5450.3	
824.68	4332.8	
824.86	2902.7	
825.03	3192.1	
825.2	4314.4	
825.37	4986.8	
825.55	2859	
825.72	3138.2	
825.89	5438.7	
826.06	5081.7	
826.24	3100.6	
826.41	3058.3	
826.58	5111	
826.75	4521.2	
826.92	2566.8	
827.1	2783.9	
827.27	6680.5	
827.44	5356.8	
827.61	2981.8	
827.79	3461.1	
827.96	4186	
828.13	4356.7	
828.3	3054.2	
828.47	2654.2	
828.65	4612.7	
828.82	4522.6	
828.99	3762.8	
829.16	3399.6	
829.34	4859.8	
829.51	4678.2	
829.68	3162.1	
829.85	3193.5	
830.02	5150.6	
830.2	4803.9	
830.37	2505.3	
830.54	3703.4	
830.71	5341.8	
830.88	4402.5	
831.05	2545.6	
831.23	2820.1	
831.4	5223	
831.57	5695.4	
831.74	2947.7	
831.91	2610.5	
832.09	4664.6	
832.26	4861.9	
832.43	2977.7	
832.6	3276.1	
832.77	4610.7	
832.94	5128.1	
833.12	2498.5	
833.29	2958.6	
833.46	4640	
833.63	5778.7	
833.8	3239.2	
833.97	2977.7	
834.15	4830.5	
834.32	4696	
834.49	3116.3	
834.66	3203	
834.83	4896.7	
835	4202.4	
835.17	2949.1	
835.35	2889.7	
835.52	4726.7	
835.69	4693.3	
835.86	3063.1	
836.03	2571.6	
836.2	4859.8	
836.37	4528.7	
836.55	2964.1	
836.72	2818	
836.89	4504.8	
837.06	4879.6	
837.23	3110.9	
837.4	3275.4	
837.57	5418.2	
837.75	5765	
837.92	2751.1	
838.09	2930	
838.26	4474.8	
838.43	4930.8	
838.6	3151.1	
838.77	2869.9	
838.94	5530.9	
839.11	5438	
839.29	3046.7	
839.46	2379.7	
839.63	4773.1	
839.8	4594.3	
839.97	2965.5	
840.14	2896.5	
840.31	4711.7	
840.48	4812	
840.65	2541.5	
840.82	2881.5	
841	4762.2	
841.17	4708.3	
841.34	2758.6	
841.51	2792.1	
841.68	4788.2	
841.85	4529.4	
842.02	2801.6	
842.19	2375.6	
842.36	4715.8	
842.53	4678.2	
842.7	2736.8	
842.87	3180.5	
843.05	5810.8	
843.22	4530.8	
843.39	2606.4	
843.56	2814.6	
843.73	4418.2	
843.9	4882.4	
844.07	4162.2	
844.24	3497.9	
844.41	6376.7	
844.58	4257	
844.75	2643.9	
844.92	2890.4	
845.09	4775.2	
845.26	4780.6	
845.43	2757.9	
845.6	2878.1	
845.77	4815.5	
845.94	4582	
846.12	2995.5	
846.29	3121.1	
846.46	5013.4	
846.63	4758.1	
846.8	2691	
846.97	3165.5	
847.14	5094	
847.31	4786.8	
847.48	2988	
847.65	3299.3	
847.82	4982	
847.99	4894.6	
848.16	3528.7	
848.33	3248.8	
848.5	4433.2	
848.67	5148.6	
848.84	2652.1	
849.01	2798.9	
849.18	4401.8	
849.35	4226.3	
849.52	3289.7	
849.69	2670.6	
849.86	4951.3	
850.03	5039.4	
850.2	2715.6	
850.37	3273.3	
850.54	4991.6	
850.71	4500.8	
850.88	3188.7	
851.05	2674.6	
851.22	4702.1	
851.39	5137.7	
851.56	2560.6	
851.73	3091.1	
851.9	4319.2	
852.07	4939.7	
852.24	2975	
852.41	2667.1	
852.58	4734.2	
852.75	4356	
852.92	2981.2	
853.09	2638.5	
853.26	4461.2	
853.43	5033.2	
853.6	2709.5	
853.77	2366.1	
853.94	5150.6	
854.11	4283	
854.28	3809.2	
854.44	2896.5	
854.61	5397.1	
854.78	4974.5	
854.95	2713.6	
855.12	3271.3	
855.29	3979.9	
855.46	5274.9	
855.63	2713.6	
855.8	3620.8	
855.97	4418.8	
856.14	5008.6	
856.31	3763.5	
856.48	2888.3	
856.65	4522.6	
856.82	4262.5	
856.99	2627.5	
857.16	2882.2	
857.33	5572.5	
857.49	4539.7	
857.66	2905.4	
857.83	3086.3	
858	4599.7	
858.17	4653.7	
858.34	2538.8	
858.51	2726.5	
858.68	5160.9	
858.85	5246.9	
859.02	3036.5	
859.19	3200.3	
859.36	4308.2	
859.52	4259.1	
859.69	2698.5	
859.86	3151.1	
860.03	4358.1	
860.2	5196.4	
860.37	2486.2	
860.54	2743.6	
860.71	4947.2	
860.88	5201.2	
861.05	2993.4	
861.21	3328.6	
861.38	5204.6	
861.55	4120.5	
861.72	2493.7	
861.89	2979.8	
862.06	5028.4	
862.23	5259.9	
862.4	2606.4	
862.56	2772.9	
862.73	4874.8	
862.9	4610	
863.07	3096.5	
863.24	2508.8	
863.41	4310.3	
863.58	4310.3	
863.75	2719.7	
863.91	3103.4	
864.08	5126.1	
864.25	4831.2	
864.42	3242.6	
864.59	3642.7	
864.76	5359.5	
864.93	4330.8	
865.09	2643.2	
865.26	2889.7	
865.43	5093.3	
865.6	5370.5	
865.77	2419.3	
865.94	2666.5	
866.1	5142.4	
866.27	4894.6	
866.44	3916.4	
866.61	2597.5	
866.78	4557.4	
866.95	4848.9	
867.11	2635.1	
867.28	2412.5	
867.45	5031.9	
867.62	4252.3	
867.79	3052.8	
867.96	2705.4	
868.12	4188.1	
868.29	4911	
868.46	2696.5	
868.63	3507.5	
868.8	5025.7	
868.97	4861.9	
869.13	2833.7	
869.3	2808.4	
869.47	4775.2	
869.64	5007.3	
869.81	2716.3	
869.97	2714.9	
870.14	4697.4	
870.31	5173.2	
870.48	2639.8	
870.65	3347.7	
870.81	4543.8	
870.98	4603.2	
871.15	3002.3	
871.32	2815.3	
871.48	4833.9	
871.65	5319.3	
871.82	2706.7	
871.99	2921.8	
872.16	5590.3	
872.32	5153.4	
872.49	2725.2	
872.66	2749.1	
872.83	4931.5	
872.99	4399.7	
873.16	3074.7	
873.33	2670.6	
873.5	4638	
873.67	4700.8	
873.83	2897.2	
874	3508.9	
874.17	4824.3	
874.34	5406.6	
874.5	3392.1	
874.67	3240.6	
874.84	5187.5	
875.01	4154	
875.17	3582.6	
875.34	2731.3	
875.51	4702.1	
875.68	5549.3	
875.84	3153.2	
876.01	3781.2	
876.18	4924	
876.34	4861.9	
876.51	2697.9	
876.68	2635.1	
876.85	4458.4	
877.01	5122	
877.18	3715.7	
877.35	2685.6	
877.52	4755.4	
877.68	4311	
877.85	2646.7	
878.02	2658.9	
878.18	4544.4	
878.35	4457.1	
878.52	2231.6	
878.69	3077.4	
878.85	4973.2	
879.02	4845.5	
879.19	3694.5	
879.35	2935.4	
879.52	4842.8	
879.69	4939	
879.86	2398.9	
880.02	3005.1	
880.19	4610	
880.36	5459.9	
880.52	3044.6	
880.69	3151.1	
880.86	4899.4	
881.02	4943.8	
881.19	2947.7	
881.36	2842.6	
881.52	4896.7	
881.69	4369.7	
881.86	2876	
882.02	2860.3	
882.19	5106.3	
882.36	5741.8	
882.52	2719	
882.69	3636.5	
882.86	4760.2	
883.02	4724	
883.19	3175.7	
883.36	2989.4	
883.52	4984.1	
883.69	5502.9	
883.86	2753.8	
884.02	2520.4	
884.19	4905.6	
884.36	4569.7	
884.52	2970.2	
884.69	2891.7	
884.86	4453.6	
885.02	5273.5	
885.19	2963.4	
885.36	3046.7	
885.52	4588.1	
885.69	4730.1	
885.86	3681.6	
886.02	3343	
886.19	4968.4	
886.35	4553.3	
886.52	2983.2	
886.69	3636.5	
886.85	4274.1	
887.02	5170.4	
887.19	5170.4	
887.35	5170.4	
887.52	5170.4	
887.68	5170.4	
887.85	5170.4	
888.02	5170.4	
888.18	5170.4	
888.35	5170.4	
888.51	5170.4	
888.68	5170.4	
888.85	5170.4	
889.01	5170.4	
889.18	5170.4	
889.35	5170.4	
889.51	5170.4	
889.68	5170.4	
889.84	5170.4	
890.01	5170.4	
890.17	5170.4	
890.34	5170.4	
890.51	5170.4	
890.67	5170.4	
890.84	5170.4	
891	5170.4	
891.17	5170.4	
891.34	5170.4	
891.5	5170.4	
891.67	5170.4	
891.83	5170.4	
892	5170.4	
892.16	5170.4	
892.33	5170.4	
892.5	5170.4	
892.66	5170.4	
892.83	5170.4	
892.99	5170.4	
893.16	5170.4	
893.32	5170.4	
893.49	5170.4	
893.65	5170.4	
893.82	5170.4	
893.99	5170.4	
894.15	5170.4	
894.32	5170.4	
894.48	5170.4	
894.65	5170.4	
894.81	5170.4	
894.98	5170.4	
895.14	5170.4	
895.31	5170.4	
895.47	5170.4	
895.64	5170.4	
895.81	5170.4	
895.97	5170.4	
896.14	5170.4	
896.3	5170.4	
896.47	5170.4	
896.63	5170.4	
896.8	5170.4	
896.96	5170.4	
897.13	5170.4	
897.29	5170.4	
897.46	5170.4	
897.62	5170.4	
897.79	5170.4	
897.95	5170.4	
898.12	5170.4	
898.28	5170.4	
898.45	5170.4	
898.61	5170.4	
898.78	5170.4	
898.94	5170.4	
899.11	5170.4	
899.27	5170.4	
899.44	5170.4	
899.6	5170.4	
899.77	5170.4	
899.93	5170.4	
900.1	5170.4	
900.26	5170.4	
900.43	5170.4	
900.59	5170.4	
900.76	5170.4	
900.92	5170.4	
901.09	5170.4	
901.25	5170.4	
901.42	5170.4	
901.58	5170.4	
901.75	5170.4	
901.91	5170.4	
902.07	5170.4	
902.24	5170.4	
902.4	5170.4	
902.57	5170.4	
902.73	5170.4	
902.9	5170.4	
903.06	5170.4	
903.23	5170.4	
903.39	5170.4	
903.56	5170.4	
903.72	5170.4	
903.88	5170.4	
904.05	5170.4	
904.21	5170.4	
904.38	5170.4	
904.54	5170.4	
904.71	5170.4	
904.87	5170.4	
905.03	5170.4	
905.2	5170.4	
905.36	5170.4	
905.53	5170.4	
905.69	5170.4	
905.86	5170.4	
906.02	5170.4	
906.18	5170.4	
906.35	5170.4	
906.51	5170.4	
906.68	5170.4	
906.84	5170.4	
907.01	5170.4	
907.17	5170.4	
907.33	5170.4	
907.5	5170.4	
907.66	5170.4	
907.83	5170.4	
907.99	5170.4	
908.15	5170.4	
908.32	5170.4	
908.48	5170.4	
908.65	5170.4	
908.81	5170.4	
908.97	5170.4	
909.14	5170.4	
909.3	5170.4	
909.47	5170.4	
909.63	5170.4	
909.79	5170.4	
909.96	5170.4	
910.12	5170.4	
910.28	5170.4	
910.45	5170.4	
910.61	5170.4	
910.78	5170.4	
910.94	5170.4	
911.1	5170.4	
911.27	5170.4	
911.43	5170.4	
911.59	5170.4	
911.76	5170.4	
911.92	5170.4	
912.08	5170.4	
912.25	5170.4	
912.41	5170.4	
912.57	5170.4	
912.74	5170.4	
912.9	5170.4	
913.07	5170.4	
913.23	5170.4	
913.39	5170.4	
913.56	5170.4	
913.72	5170.4	
913.88	5170.4	
914.05	5170.4	
914.21	5170.4	
914.37	5170.4	
914.54	5170.4	
914.7	5170.4	
914.86	5170.4	
915.03	5170.4	
915.19	5170.4	
