Wavelength	Intensities	
nm	a.u.	
179.22	1873.7	
179.44	1885.2	
179.65	1862.3	
179.86	1908	
180.08	1900.5	
180.29	4825.7	
180.51	3439.2	
180.72	5639.4	
180.94	6604.7	
181.15	3219.4	
181.37	3174.4	
181.58	5459.9	
181.79	5780.7	
182.01	3397.6	
182.22	3633.1	
182.44	5752.1	
182.65	4796.3	
182.87	4500.1	
183.08	3898.6	
183.29	6019.7	
183.51	4966.3	
183.72	3638.6	
183.94	5334.3	
184.15	5393	
184.37	5489.2	
184.58	3175.7	
184.79	4364.2	
185.01	5012.1	
185.22	5711.1	
185.44	4646.8	
185.65	3915	
185.86	5277.6	
186.08	4845.5	
186.29	3106.1	
186.51	3342.3	
186.72	5051	
186.94	5947.3	
187.15	3870	
187.36	3971.7	
187.58	7735.9	
187.79	5508.4	
188.01	4184	
188.22	6541.2	
188.43	6599.2	
188.65	5768.4	
188.86	3342.3	
189.08	4042	
189.29	5212.8	
189.5	5190.9	
189.72	3744.4	
189.93	3813.3	
190.15	5930.9	
190.36	7151.5	
190.57	4040	
190.79	3977.8	
191	6006	
191.22	6077	
191.43	4136.9	
191.64	3358.7	
191.86	6288.6	
192.07	5962.3	
192.29	3482.9	
192.5	3777.8	
192.71	5964.4	
192.93	5213.4	
193.14	3754.6	
193.35	3809.9	
193.57	5103.5	
193.78	5917.3	
194	3033	
194.21	3596.2	
194.42	4962.9	
194.64	5431.2	
194.85	4016.7	
195.07	4661.2	
195.28	5412.1	
195.49	4678.9	
195.71	4926	
195.92	3480.2	
196.13	5521.3	
196.35	5727.5	
196.56	5293.3	
196.78	4022.2	
196.99	7018.4	
197.2	6595.8	
197.42	4561.5	
197.63	4027.7	
197.84	4831.8	
198.06	5589.6	
198.27	3678.2	
198.48	4999.8	
198.7	5171.1	
198.91	5283.1	
199.13	4050.9	
199.34	4013.3	
199.55	5811.5	
199.77	4683.7	
199.98	3579.8	
200.19	4111	
200.41	5307	
200.62	4963.6	
200.83	4197.7	
201.05	4549.2	
201.26	5309.7	
201.47	5012.1	
201.69	3579.8	
201.9	3465.2	
202.11	5353.4	
202.33	6425.8	
202.54	3821.5	
202.76	4284.4	
202.97	5535.7	
203.18	5521.3	
203.4	4222.2	
203.61	4069.3	
203.82	5462.6	
204.04	5057.1	
204.25	4099.4	
204.46	3988.1	
204.68	5356.1	
204.89	5650.3	
205.1	3951.2	
205.32	3433.1	
205.53	5793.7	
205.74	5974.6	
205.96	2919	
206.17	4110.3	
206.38	5772.5	
206.6	5954.8	
206.81	4603.8	
207.02	3781.2	
207.24	5628.5	
207.45	6038.8	
207.66	3859.7	
207.88	3294.5	
208.09	5609.4	
208.3	5383.4	
208.52	3545	
208.73	3830.4	
208.94	5394.3	
209.15	6113.9	
209.37	3811.3	
209.58	4018.8	
209.79	5950.7	
210.01	5165	
210.22	3115.6	
210.43	3216.7	
210.65	5358.9	
210.86	5842.9	
211.07	3837.2	
211.29	3510.2	
211.5	5780.7	
211.71	5360.2	
211.93	3537.5	
212.14	3577.1	
212.35	5314.5	
212.56	5577.3	
212.78	4060.4	
212.99	3364.1	
213.2	6434	
213.42	5139.7	
213.63	3646.7	
213.84	3894.6	
214.06	4746.5	
214.27	4872.8	
214.48	3809.2	
214.69	4070	
214.91	6042.9	
215.12	6151.4	
215.33	4206.5	
215.55	4597.7	
215.76	6634.1	
215.97	5788.9	
216.18	3988.1	
216.4	3860.4	
216.61	5083.1	
216.82	5887.2	
217.04	3601.7	
217.25	3673.4	
217.46	6029.9	
217.67	5849	
217.89	3143.6	
218.1	3300	
218.31	5439.4	
218.53	5547.3	
218.74	3707.5	
218.95	3641.3	
219.16	5375.2	
219.38	6285.2	
219.59	3649.5	
219.8	4323.9	
220.01	6987	
220.23	5440.8	
220.44	4791.6	
220.65	3525.2	
220.87	5530.9	
221.08	5988.3	
221.29	3267.9	
221.5	4351.3	
221.72	7367.2	
221.93	5075.5	
222.14	4138.9	
222.35	4782.7	
222.57	5520	
222.78	5808.7	
222.99	3854.3	
223.2	4155.3	
223.42	5688.6	
223.63	5851.7	
223.84	2951.1	
224.05	2916.3	
224.27	6926.2	
224.48	6242.2	
224.69	4819.6	
224.9	4078.2	
225.12	5552	
225.33	5332.2	
225.54	3245.3	
225.75	3572.3	
225.97	4961.5	
226.18	5204.6	
226.39	3925.3	
226.6	3625.6	
226.82	5225.1	
227.03	5059.2	
227.24	4037.9	
227.45	3395.5	
227.67	5726.1	
227.88	6336.4	
228.09	4484.4	
228.3	4524.6	
228.52	5810.8	
228.73	5371.8	
228.94	3773	
229.15	3329.3	
229.36	5295.4	
229.58	5203.9	
229.79	3810.6	
230	4496.7	
230.21	6404	
230.43	5476.3	
230.64	4002.4	
230.85	4201.7	
231.06	5826.5	
231.28	5859.2	
231.49	3289	
231.7	3928	
231.91	5725.4	
232.12	5426.4	
232.34	3386.7	
232.55	3881.6	
232.76	6039.5	
232.97	5584.1	
233.18	3556.6	
233.4	3992.9	
233.61	5614.8	
233.82	5164.3	
234.03	3697.3	
234.25	3669.3	
234.46	7443.7	
234.67	5472.2	
234.88	4195.6	
235.09	3590.1	
235.31	5730.9	
235.52	5283.1	
235.73	4012	
235.94	3394.8	
236.15	5139.7	
236.37	6645	
236.58	3560.7	
236.79	3893.9	
237	5737.7	
237.21	4899.4	
237.43	4155.3	
237.64	3211.9	
237.85	9811.1	
238.06	4932.2	
238.27	4210.6	
238.48	3343	
238.7	5730.9	
238.91	5255.1	
239.12	3838.6	
239.33	3885.7	
239.54	5124.7	
239.76	5321.3	
239.97	3767.6	
240.18	3842	
240.39	6681.2	
240.6	5612.1	
240.82	3987.4	
241.03	3219.4	
241.24	5375.9	
241.45	6251.8	
241.66	3541.6	
241.87	4191.5	
242.09	6108.4	
242.3	6494.1	
242.51	4267.3	
242.72	3963.5	
242.93	5838.8	
243.14	5346.6	
243.36	4562.2	
243.57	4876.2	
243.78	6277.7	
243.99	5671.5	
244.2	3901.4	
244.41	3549.8	
244.63	4965.6	
244.84	5702.9	
245.05	4138.9	
245.26	3904.1	
245.47	5723.4	
245.68	5909.1	
245.9	5229.1	
246.11	4112.3	
246.32	5208.7	
246.53	5679	
246.74	6325.5	
246.95	3261.7	
247.16	4878.3	
247.38	5358.9	
247.59	3246	
247.8	3881.6	
248.01	5134.3	
248.22	5280.3	
248.43	3553.2	
248.64	3796.9	
248.86	4831.2	
249.07	5139.7	
249.28	3414.6	
249.49	4007.9	
249.7	5956.2	
249.91	6104.3	
250.12	3227.6	
250.34	3263.8	
250.55	5549.3	
250.76	5431.9	
250.97	3996.3	
251.18	4036.5	
251.39	6090	
251.6	5571.2	
251.81	4093.9	
252.03	4035.2	
252.24	5128.8	
252.45	5920	
252.66	3370.3	
252.87	4299.4	
253.08	5391.6	
253.29	7116.7	
253.5	3398.9	
253.72	4678.9	
253.93	5228.5	
254.14	6443.6	
254.35	3674.7	
254.56	3844.7	
254.77	5649	
254.98	4982	
255.19	3645.4	
255.41	4691.2	
255.62	5494.7	
255.83	6085.2	
256.04	4141.7	
256.25	4108.9	
256.46	6653.9	
256.67	5096.7	
256.88	4022.2	
257.09	4470.7	
257.31	4991.6	
257.52	5064.6	
257.73	5017.5	
257.94	3671.3	
258.15	5261.2	
258.36	5397.8	
258.57	4657.8	
258.78	2925.2	
258.99	5898.1	
259.2	5236.7	
259.41	3685.7	
259.63	3804.4	
259.84	6211.5	
260.05	6713.9	
260.26	4876.2	
260.47	3566.2	
260.68	5950	
260.89	5304.9	
261.1	4449.6	
261.31	3522.5	
261.52	5999.2	
261.73	6361.7	
261.95	4842.1	
262.16	4204.5	
262.37	6108.4	
262.58	6211.5	
262.79	4733.5	
263	3812.6	
263.21	5420.3	
263.42	4982	
263.63	3801	
263.84	3716.4	
264.05	5925.5	
264.26	6320.7	
264.47	4597	
264.69	4149.2	
264.9	6052.4	
265.11	5646.2	
265.32	3536.2	
265.53	3635.1	
265.74	5589.6	
265.95	4803.2	
266.16	3933.5	
266.37	4360.1	
266.58	5492.7	
266.79	5219.6	
267	3717.7	
267.21	3349.1	
267.42	4986.1	
267.63	5343.2	
267.84	3876.1	
268.06	3345.7	
268.27	5854.5	
268.48	6083.8	
268.69	3740.3	
268.9	4505.5	
269.11	6092	
269.32	4870.8	
269.53	3889.1	
269.74	3633.8	
269.95	5735	
270.16	4775.2	
270.37	3867.9	
270.58	4499.4	
270.79	5283.8	
271	5945.3	
271.21	4134.8	
271.42	3938.9	
271.63	5571.2	
271.84	5080.3	
272.05	3125.2	
272.26	3489.7	
272.47	5418.9	
272.68	5639.4	
272.89	3691.1	
273.11	4327.4	
273.32	5233.2	
273.53	6326.9	
273.74	4171	
273.95	4096.6	
274.16	6047.7	
274.37	5477.6	
274.58	4260.5	
274.79	3322.5	
275	5551.4	
275.21	6130.9	
275.42	5127.4	
275.63	4379.2	
275.84	5648.3	
276.05	7131	
276.26	4121.9	
276.47	3829	
276.68	5274.2	
276.89	6432	
277.1	4377.2	
277.31	3450.8	
277.52	5679.7	
277.73	5825.8	
277.94	3342.3	
278.15	3766.9	
278.36	5586.2	
278.57	5042.8	
278.78	3676.8	
278.99	4244.1	
279.2	5002.5	
279.41	4979.3	
279.62	4952	
279.83	3459	
280.04	6576	
280.25	4887.1	
280.46	4870.1	
280.67	3861.8	
280.88	5031.2	
281.09	6137.1	
281.3	4042.7	
281.51	5150.6	
281.72	5220.3	
281.93	5935.7	
282.14	3635.1	
282.35	3953.9	
282.56	5865.4	
282.77	5812.8	
282.98	3753.2	
283.19	4578.6	
283.4	7259.4	
283.61	5394.3	
283.82	3350.5	
284.03	4783.4	
284.24	5528.2	
284.45	6003.3	
284.66	4811.4	
284.87	4579.3	
285.08	5987.6	
285.29	6186.2	
285.5	3267.9	
285.71	3822.9	
285.92	6050.4	
286.12	6696.2	
286.33	4784.1	
286.54	3729.4	
286.75	5871.5	
286.96	5238	
287.17	3493.8	
287.38	4643.4	
287.59	5083.7	
287.8	4961.5	
288.01	3743.7	
288.22	4379.2	
288.43	5920	
288.64	4923.3	
288.85	4592.2	
289.06	4341.7	
289.27	5909.1	
289.48	6380.1	
289.69	4847.5	
289.9	4344.4	
290.11	6054.5	
290.32	5140.4	
290.53	4641.4	
290.74	4184.7	
290.94	5864	
291.15	5922	
291.36	3639.2	
291.57	4349.9	
291.78	5154.1	
291.99	4866	
292.2	3511.6	
292.41	4219.5	
292.62	5930.2	
292.83	5717.9	
293.04	5225.7	
293.25	3517.7	
293.46	5207.3	
293.67	6008.7	
293.88	3665.9	
294.09	3500	
294.29	4939	
294.5	5541.8	
294.71	3887.7	
294.92	3704.1	
295.13	5160.2	
295.34	6517.3	
295.55	3289.7	
295.76	3377.1	
295.97	5807.4	
296.18	6664.1	
296.39	3457.7	
296.6	3658.4	
296.81	5527.5	
297.01	5760.3	
297.22	3786.7	
297.43	3654.3	
297.64	5040.1	
297.85	5033.2	
298.06	2977.1	
298.27	3293.1	
298.48	5426.4	
298.69	5128.8	
298.9	3901.4	
299.11	3523.2	
299.31	4945.2	
299.52	4976.6	
299.73	4220.2	
299.94	4136.9	
300.15	5397.8	
300.36	5054.4	
300.57	4133.5	
300.78	4095.9	
300.99	5274.9	
301.2	5472.2	
301.4	3612.6	
301.61	3999.7	
301.82	5771.2	
302.03	5839.4	
302.24	4404.5	
302.45	3457	
302.66	5798.5	
302.87	6167.1	
303.08	3668.6	
303.29	4957.4	
303.49	5139	
303.7	5419.6	
303.91	3261	
304.12	4727.4	
304.33	4900.8	
304.54	5535	
304.75	3642	
304.96	3408.5	
305.16	5759.6	
305.37	6423.1	
305.58	3185.3	
305.79	3299.3	
306	5696.1	
306.21	4855.1	
306.42	3581.2	
306.63	5556.1	
306.83	5311.7	
307.04	6009.4	
307.25	4013.3	
307.46	3983.3	
307.67	4655	
307.88	5839.4	
308.09	3591.5	
308.29	3743	
308.5	5471.5	
308.71	6010.1	
308.92	3875.4	
309.13	3528	
309.34	5338.4	
309.55	5281.7	
309.75	4510.3	
309.96	4102.1	
310.17	5812.8	
310.38	5176.6	
310.59	4408.6	
310.8	3449.5	
311.01	5248.9	
311.21	5307	
311.42	3496.6	
311.63	3629.7	
311.84	5169.1	
312.05	5648.3	
312.26	4033.1	
312.46	4504.8	
312.67	5249.6	
312.88	4971.1	
313.09	3545.7	
313.3	3482.2	
313.51	6235.4	
313.71	6606.7	
313.92	3517.7	
314.13	3706.1	
314.34	5597.8	
314.55	5375.2	
314.76	4560.8	
314.96	3980.6	
315.17	5530.9	
315.38	5827.8	
315.59	3534.1	
315.8	3371.6	
316.01	6291.4	
316.21	6383.5	
316.42	3411.2	
316.63	3959.4	
316.84	5264.6	
317.05	6172.6	
317.26	4157.4	
317.46	3713	
317.67	5332.2	
317.88	5821.7	
318.09	4459.1	
318.3	3301.3	
318.5	5166.3	
318.71	5719.3	
318.92	5791	
319.13	4142.4	
319.34	5929.6	
319.54	6074.3	
319.75	3265.8	
319.96	3102.7	
320.17	5801.9	
320.38	5967.8	
320.58	3254.2	
320.79	3859.1	
321	5998.5	
321.21	6177.4	
321.42	3919.1	
321.62	3188	
321.83	5009.3	
322.04	5429.8	
322.25	3790.8	
322.46	3484.3	
322.66	5493.3	
322.87	5659.9	
323.08	4342.4	
323.29	3490.4	
323.5	6466.8	
323.7	4963.6	
323.91	4836.6	
324.12	4318.5	
324.33	5511.1	
324.53	5772.5	
324.74	4189.5	
324.95	4405.2	
325.16	4796.3	
325.37	5203.2	
325.57	3535.5	
325.78	3602.4	
325.99	5492	
326.2	4891.2	
326.4	5167.7	
326.61	3244	
326.82	5325.4	
327.03	5529.5	
327.24	4999.1	
327.44	4800.4	
327.65	5702.9	
327.86	4577.2	
328.07	4147.1	
328.27	3368.2	
328.48	6098.9	
328.69	4984.1	
328.9	5107.6	
329.1	3770.3	
329.31	5308.3	
329.52	6262.7	
329.73	3503.4	
329.93	3932.8	
330.14	5376.6	
330.35	5708.4	
330.56	5816.9	
330.76	4409.3	
330.97	5232.6	
331.18	5556.8	
331.39	3916.4	
331.59	3199.6	
331.8	6001.9	
332.01	6123.4	
332.22	3614	
332.42	4207.9	
332.63	5567.1	
332.84	5160.9	
333.05	3974.4	
333.25	3585.3	
333.46	5255.1	
333.67	5382.7	
333.88	3668.6	
334.08	4072.7	
334.29	7264.8	
334.5	6084.5	
334.7	3466.5	
334.91	5036	
335.12	4969.1	
335.33	5761.6	
335.53	3941	
335.74	5772.5	
335.95	5177.9	
336.16	5028.4	
336.36	3943.7	
336.57	4500.1	
336.78	4945.2	
336.98	6012.2	
337.19	4819.6	
337.4	3843.4	
337.61	6518.7	
337.81	4909.7	
338.02	3594.2	
338.23	4628.4	
338.43	6189	
338.64	5076.9	
338.85	3544.4	
339.05	4724	
339.26	6252.4	
339.47	4820.9	
339.68	3538.2	
339.88	5278.3	
340.09	5668.1	
340.3	5911.8	
340.5	4161.5	
340.71	3135.4	
340.92	4890.5	
341.13	6182.8	
341.33	3424.9	
341.54	4188.8	
341.75	5680.4	
341.95	5290.6	
342.16	3969	
342.37	4328	
342.57	5011.4	
342.78	5388.2	
342.99	4479.6	
343.19	3205.8	
343.4	5857.9	
343.61	5685.8	
343.81	3762.1	
344.02	3428.3	
344.23	5828.5	
344.43	6249.7	
344.64	4416.8	
344.85	4296.6	
345.06	5627.8	
345.26	6068.1	
345.47	4115.1	
345.68	4789.5	
345.88	4778.6	
346.09	5862	
346.3	4182	
346.5	3134.8	
346.71	5421.7	
346.92	5103.5	
347.12	3152.5	
347.33	4068.6	
347.54	6028.5	
347.74	6361.7	
347.95	4072.7	
348.16	3007.8	
348.36	5180	
348.57	4899.4	
348.78	4040	
348.98	4365.6	
349.19	5329.5	
349.39	4909	
349.6	3226.9	
349.81	3648.1	
350.01	5635.3	
350.22	5126.1	
350.43	3911.6	
350.63	4751.3	
350.84	5420.3	
351.05	5221	
351.25	3556	
351.46	3209.2	
351.67	5951.4	
351.87	5089.9	
352.08	3792.8	
352.29	4311.7	
352.49	5884.5	
352.7	5968.5	
352.9	3428.3	
353.11	4274.8	
353.32	6522.1	
353.52	5132.9	
353.73	3414.6	
353.94	4369	
354.14	5695.4	
354.35	5480.4	
354.55	3574.4	
354.76	3889.1	
354.97	5666.7	
355.17	5414.1	
355.38	3238.5	
355.59	4579.3	
355.79	5061.9	
356	5462.6	
356.2	3842.7	
356.41	3319.8	
356.62	4805.9	
356.82	5292.6	
357.03	4102.1	
357.24	3708.2	
357.44	5079	
357.65	5167	
357.85	4969.1	
358.06	3904.8	
358.27	4855.1	
358.47	4998.4	
358.68	3231.7	
358.88	4151.2	
359.09	5614.8	
359.3	6014.9	
359.5	4813.4	
359.71	4238.6	
359.91	6460	
360.12	5758.2	
360.33	4080.2	
360.53	4567	
360.74	5076.2	
360.94	5174.5	
361.15	4312.3	
361.36	3480.9	
361.56	5866.1	
361.77	5287.9	
361.97	4760.2	
362.18	3734.8	
362.38	5829.9	
362.59	4915.8	
362.8	3422.2	
363	3313.6	
363.21	4701.5	
363.41	5365	
363.62	4000.4	
363.83	4917.9	
364.03	5410.7	
364.24	6446.3	
364.44	5031.9	
364.65	5037.3	
364.85	5217.5	
365.06	5085.1	
365.27	3586	
365.47	3665.9	
365.68	6219	
365.88	5168.4	
366.09	3984	
366.29	3711.6	
366.5	5496.7	
366.71	5885.9	
366.91	4973.8	
367.12	4150.5	
367.32	6360.3	
367.53	5791	
367.73	4083	
367.94	5085.1	
368.14	5644.9	
368.35	6590.4	
368.56	4052.9	
368.76	3444	
368.97	5749.3	
369.17	7506.5	
369.38	3604.4	
369.58	3861.8	
369.79	4807.3	
369.99	6163	
370.2	4867.3	
370.4	3936.2	
370.61	5470.8	
370.82	6696.9	
371.02	3857	
371.23	3180.5	
371.43	4727.4	
371.64	6103.6	
371.84	3843.4	
372.05	5060.5	
372.25	7390.4	
372.46	5751.4	
372.66	3833.8	
372.87	3809.9	
373.07	5779.4	
373.28	7337.2	
373.48	4874.2	
373.69	4493.9	
373.9	5283.1	
374.1	5296.7	
374.31	4737.6	
374.51	4267.3	
374.72	6042.2	
374.92	5001.1	
375.13	4793.6	
375.33	4158.1	
375.54	5631.9	
375.74	5046.2	
375.95	4138.9	
376.15	5435.3	
376.36	5614.8	
376.56	5408	
376.77	4183.3	
376.97	4685.8	
377.18	6631.3	
377.38	5702.2	
377.59	4957.4	
377.79	3665.9	
378	5454.4	
378.2	5892	
378.41	3740.3	
378.61	3599.6	
378.82	5958.9	
379.02	5089.2	
379.23	3900	
379.43	4995	
379.64	6063.4	
379.84	5706.3	
380.05	3692.5	
380.25	3705.5	
380.46	5741.8	
380.66	5314.5	
380.87	5068.7	
381.07	5434.6	
381.28	6376.7	
381.48	5700.9	
381.69	3773.7	
381.89	3789.4	
382.1	4741.7	
382.3	5897.5	
382.51	4931.5	
382.71	5842.9	
382.91	5754.8	
383.12	6348	
383.32	4169.7	
383.53	4380.6	
383.73	5537	
383.94	5407.3	
384.14	4252.3	
384.35	3450.1	
384.55	5341.1	
384.76	5782.1	
384.96	4153.3	
385.17	4461.8	
385.37	5787.6	
385.58	5081	
385.78	4542.4	
385.98	3369.6	
386.19	5238.7	
386.39	5654.4	
386.6	3857	
386.8	4193.6	
387.01	5785.5	
387.21	5840.1	
387.42	4577.9	
387.62	5132.9	
387.83	5075.5	
388.03	5739.8	
388.23	4113.7	
388.44	4915.8	
388.64	4724	
388.85	4913.8	
389.05	4520.5	
389.26	5059.2	
389.46	6720.8	
389.67	6140.5	
389.87	4429.8	
390.07	4534.9	
390.28	5332.2	
390.48	4930.8	
390.69	3717.7	
390.89	3997.6	
391.1	5131.5	
391.3	6037.4	
391.5	5178.6	
391.71	5815.5	
391.91	5801.2	
392.12	6777.4	
392.32	5270.8	
392.53	4570.4	
392.73	5248.3	
392.93	5331.5	
393.14	4143	
393.34	4969.7	
393.55	5884.5	
393.75	5362.3	
393.95	4188.8	
394.16	4162.2	
394.36	5122	
394.57	5799.2	
394.77	3626.3	
394.98	4085	
395.18	5053	
395.38	5253.7	
395.59	4907.6	
395.79	3817.4	
396	5193.6	
396.2	5656.5	
396.4	4668	
396.61	4556	
396.81	5839.4	
397.02	5098.1	
397.22	4842.8	
397.42	4952.7	
397.63	5812.8	
397.83	5038.7	
398.04	3732.8	
398.24	4238.6	
398.44	5633.3	
398.65	4680.3	
398.85	3589.4	
399.05	3790.8	
399.26	4977.2	
399.46	6742.6	
399.67	4043.4	
399.87	3788.7	
400.07	5289.2	
400.28	5692	
400.48	3870	
400.69	4906.9	
400.89	5944.6	
401.09	6363.7	
401.3	3780.6	
401.5	4942.4	
401.7	6524.1	
401.91	6861.4	
402.11	4115.7	
402.32	4386.1	
402.52	5905.7	
402.72	5877.7	
402.93	4597	
403.13	3470.6	
403.33	6700.3	
403.54	5480.4	
403.74	4366.3	
403.94	5203.9	
404.15	5514.5	
404.35	6706.4	
404.56	4059.8	
404.76	5999.2	
404.96	5907.7	
405.17	5715.9	
405.37	5294.7	
405.57	4449.6	
405.78	5923.4	
405.98	5416.2	
406.18	4063.2	
406.39	4926	
406.59	5948.7	
406.79	5599.1	
407	3870	
407.2	3979.9	
407.4	5923.4	
407.61	6167.8	
407.81	3931.4	
408.01	6068.1	
408.22	4797	
408.42	6827.2	
408.62	4904.2	
408.83	4439.3	
409.03	5393	
409.23	5229.8	
409.44	4455.7	
409.64	4651.6	
409.84	6250.4	
410.05	6133	
410.25	4545.8	
410.45	4354	
410.66	5559.6	
410.86	8088.8	
411.06	4653	
411.27	4524	
411.47	7778.2	
411.67	5709.7	
411.88	4784.7	
412.08	4941.7	
412.28	6365.1	
412.49	6835.4	
412.69	4476.9	
412.89	4522.6	
413.09	6644.3	
413.3	6476.4	
413.5	4516.5	
413.7	4123.2	
413.91	5797.1	
414.11	6574.7	
414.31	4375.8	
414.52	4736.3	
414.72	6276.3	
414.92	6116.6	
415.12	4417.5	
415.33	4901.5	
415.53	6602.7	
415.73	6731.7	
415.94	5265.3	
416.14	4759.5	
416.34	5532.2	
416.55	5342.5	
416.75	5821.7	
416.95	5251	
417.15	6535.1	
417.36	7279.2	
417.56	6006	
417.76	5108.3	
417.97	6863.4	
418.17	6533.7	
418.37	4617.5	
418.57	4749.2	
418.78	6328.2	
418.98	5985.5	
419.18	5629.9	
419.38	5515.2	
419.59	6081.8	
419.79	5709.1	
419.99	4616.8	
420.2	5023	
420.4	6562.4	
420.6	6726.9	
420.8	4440.7	
421.01	4367.6	
421.21	6272.2	
421.41	6511.2	
421.61	4905.6	
421.82	4547.2	
422.02	5862.7	
422.22	6787.7	
422.42	5455.1	
422.63	5101.5	
422.83	5913.2	
423.03	7182.2	
423.23	5059.2	
423.44	4056.3	
423.64	6034	
423.84	5832.6	
424.04	4478.9	
424.25	4194.9	
424.45	7002	
424.65	6931	
424.85	3999	
425.06	4598.4	
425.26	6975.4	
425.46	5970.5	
425.66	5142.4	
425.87	4787.5	
426.07	6758.3	
426.27	6644.3	
426.47	4880.3	
426.67	4303.5	
426.88	7149.5	
427.08	6553.5	
427.28	5134.9	
427.48	4287.1	
427.69	5457.2	
427.89	6128.2	
428.09	5161.6	
428.29	4284.4	
428.5	6827.9	
428.7	6323.4	
428.9	4158.7	
429.1	4764.3	
429.3	6181.5	
429.51	6619.7	
429.71	4522.6	
429.91	5237.3	
430.11	6440.9	
430.31	6694.8	
430.52	4714.4	
430.72	5024.3	
430.92	7086	
431.12	6561	
431.32	4435.2	
431.53	4928.8	
431.73	5446.9	
431.93	7112.6	
432.13	4347.2	
432.33	4233.2	
432.54	5921.4	
432.74	6301.6	
432.94	4095.3	
433.14	5171.8	
433.34	6427.9	
433.55	5923.4	
433.75	5081.7	
433.95	6804.7	
434.15	6176	
434.35	5885.2	
434.56	4299.4	
434.76	3766.2	
434.96	6238.1	
435.16	6409.5	
435.36	4149.2	
435.56	5235.3	
435.77	5799.2	
435.97	5909.1	
436.17	5868.1	
436.37	5235.3	
436.57	5786.2	
436.78	5601.2	
436.98	5108.3	
437.18	5758.9	
437.38	6371.9	
437.58	5960.3	
437.78	5924.8	
437.99	4602.5	
438.19	6636.1	
438.39	7307.2	
438.59	4525.3	
438.79	4120.5	
438.99	7129.7	
439.2	5989.6	
439.4	4232.5	
439.6	4130.1	
439.8	6286.6	
440	7309.9	
440.2	5093.3	
440.4	5193	
440.61	6519.4	
440.81	7170.6	
441.01	4231.8	
441.21	5123.3	
441.41	6922.8	
441.61	6585.6	
441.81	5416.2	
442.02	6474.3	
442.22	7520.8	
442.42	6685.9	
442.62	4296	
442.82	4366.3	
443.02	6926.9	
443.22	6106.4	
443.43	4704.9	
443.63	4337.6	
443.83	5839.4	
444.03	5933.6	
444.23	5455.1	
444.43	5048.9	
444.63	6156.2	
444.83	7446.4	
445.04	4352.6	
445.24	5656.5	
445.44	6531.7	
445.64	6633.4	
445.84	5320.6	
446.04	5195	
446.24	5997.1	
446.44	6992.4	
446.65	4466.6	
446.85	4804.5	
447.05	6102.9	
447.25	6917.4	
447.45	4947.9	
447.65	4266.6	
447.85	6294.1	
448.05	5944.6	
448.25	5238.7	
448.46	5044.8	
448.66	6271.6	
448.86	6106.4	
449.06	4108.9	
449.26	5346.6	
449.46	6612.9	
449.66	5694	
449.86	4774.5	
450.06	4740.4	
450.26	5887.2	
450.47	6433.4	
450.67	5015.5	
450.87	5342.5	
451.07	6536.4	
451.27	6266.1	
451.47	4375.1	
451.67	4878.3	
451.87	5953.4	
452.07	7116	
452.27	4524.6	
452.47	4564.9	
452.67	6249	
452.88	6875.7	
453.08	3969.6	
453.28	5911.1	
453.48	7408.9	
453.68	6245.6	
453.88	4375.8	
454.08	4713.1	
454.28	6592.4	
454.48	6290.7	
454.68	5207.3	
454.88	5660.6	
455.08	6690.7	
455.28	6433.4	
455.48	4330.1	
455.68	4776.5	
455.89	7098.3	
456.09	6750.1	
456.29	4591.5	
456.49	4594.3	
456.69	7000.6	
456.89	6249.7	
457.09	5153.4	
457.29	5436	
457.49	6479.8	
457.69	6605.4	
457.89	4851	
458.09	4311	
458.29	6199.9	
458.49	6984.9	
458.69	5255.1	
458.89	4685.8	
459.09	7126.9	
459.29	7257.3	
459.49	4825.7	
459.69	5580	
459.9	6763.1	
460.1	6247	
460.3	4710.3	
460.5	4499.4	
460.7	6699.6	
460.9	6385.6	
461.1	4169.7	
461.3	5480.4	
461.5	7271	
461.7	6907.1	
461.9	4447.5	
462.1	4985.4	
462.3	6360.3	
462.5	6907.1	
462.7	4605.9	
462.9	4583.4	
463.1	7916.8	
463.3	7510.6	
463.5	4792.9	
463.7	5703.6	
463.9	6539.8	
464.1	6786.3	
464.3	4789.5	
464.5	5183.4	
464.7	7054.6	
464.9	6725.5	
465.1	6432	
465.3	5477.6	
465.5	7408.2	
465.7	7321.5	
465.9	5608	
466.1	5553.4	
466.3	7124.9	
466.5	7122.2	
466.7	6257.9	
466.9	5309.7	
467.1	6892.1	
467.3	7875.8	
467.5	6219	
467.7	5119.9	
467.9	8027.4	
468.1	8927.1	
468.3	5868.8	
468.5	6288.6	
468.7	6801.3	
468.9	6805.4	
469.1	5383.4	
469.3	6126.8	
469.5	8741.4	
469.7	6357.6	
469.9	5950	
470.1	5106.3	
470.3	6825.2	
470.5	6812.2	
470.7	6380.8	
470.9	5266	
471.1	6590.4	
471.3	7107.8	
471.5	5014.8	
471.69	7022.5	
471.89	6485.9	
472.09	6054.5	
472.29	5861.3	
472.49	6305.7	
472.69	6221.7	
472.89	7070.3	
473.09	4980	
473.29	5184.1	
473.49	6425.2	
473.69	6669.6	
473.89	6156.9	
474.09	5244.8	
474.29	7861.5	
474.49	7698.3	
474.69	6047.7	
474.89	5453.1	
475.09	6653.9	
475.29	6568.5	
475.49	4839.4	
475.69	5128.1	
475.88	8342.7	
476.08	6962.4	
476.28	4818.2	
476.48	5352.7	
476.68	7504.4	
476.88	7260.7	
477.08	5157.5	
477.28	5432.6	
477.48	6793.1	
477.68	7417.1	
477.88	4889.9	
478.08	5309.7	
478.28	7765.9	
478.48	6890	
478.67	5250.3	
478.87	4790.9	
479.07	7609.6	
479.27	7050.5	
479.47	5595.1	
479.67	5592.3	
479.87	7432.1	
480.07	7819.1	
480.27	4797	
480.47	6447	
480.67	7057.3	
480.87	7600	
481.06	5066.7	
481.26	5851	
481.46	6944	
481.66	6804.7	
481.86	5527.5	
482.06	6595.1	
482.26	6662	
482.46	7705.8	
482.66	5528.8	
482.86	5028.4	
483.05	7066.2	
483.25	6436.1	
483.45	7970	
483.65	5409.4	
483.85	6556.2	
484.05	6888	
484.25	5937.1	
484.45	6322.8	
484.65	7750.2	
484.84	7772	
485.04	5335.6	
485.24	5325.4	
485.44	8000	
485.64	6335.1	
485.84	4567	
486.04	6038.8	
486.24	6701.6	
486.44	7129	
486.63	4553.3	
486.83	5279	
487.03	6542.6	
487.23	6775.4	
487.43	4657.1	
487.63	7038.2	
487.83	6772.6	
488.02	7773.4	
488.22	5584.1	
488.42	6197.2	
488.62	7696.3	
488.82	6594.5	
489.02	5306.3	
489.22	5328.8	
489.41	7468.9	
489.61	7142.6	
489.81	4999.1	
490.01	5063.9	
490.21	7434.1	
490.41	8102.4	
490.61	4994.3	
490.8	5133.6	
491	6849.8	
491.2	6339.1	
491.4	5788.2	
491.6	4848.9	
491.8	6972.7	
491.99	7176.1	
492.19	4738.3	
492.39	5155.4	
492.59	7492.8	
492.79	7459.4	
492.99	5972.6	
493.18	4973.8	
493.38	7501	
493.58	8221.2	
493.78	5677	
493.98	5325.4	
494.18	7197.2	
494.37	6613.6	
494.57	5788.9	
494.77	5810.1	
494.97	7252.5	
495.17	7515.4	
495.37	5247.6	
495.56	5579.3	
495.76	7763.2	
495.96	7348.8	
496.16	6481.8	
496.36	5301.5	
496.55	7539.3	
496.75	7019.1	
496.95	5696.1	
497.15	5575.3	
497.35	7467.6	
497.54	7453.9	
497.74	5443.5	
497.94	7128.3	
498.14	8161.2	
498.34	7932.5	
498.53	5058.5	
498.73	5909.8	
498.93	6761	
499.13	7437.5	
499.33	5591.6	
499.52	6191	
499.72	7314	
499.92	7775.5	
500.12	5255.1	
500.32	5599.8	
500.51	7643	
500.71	7356.3	
500.91	6350.1	
501.11	6028.5	
501.31	7479.2	
501.5	7932.5	
501.7	6650.4	
501.9	5601.9	
502.1	7391.1	
502.29	7661.5	
502.49	6102.3	
502.69	6557.6	
502.89	7628.7	
503.09	7624.6	
503.28	5133.6	
503.48	5334.3	
503.68	6823.1	
503.88	6875	
504.07	6219	
504.27	5765	
504.47	7203.4	
504.67	7443.7	
504.86	6237.4	
505.06	5937.1	
505.26	6959	
505.46	8789.9	
505.65	5763	
505.85	6034.7	
506.05	6909.8	
506.25	7409.6	
506.44	5198.4	
506.64	6173.3	
506.84	6815.6	
507.04	7765.9	
507.23	5379.3	
507.43	6010.1	
507.63	8893.6	
507.83	7120.1	
508.02	5990.3	
508.22	5618.9	
508.42	9168.1	
508.62	6908.5	
508.81	5903.6	
509.01	6412.9	
509.21	6799.3	
509.4	7046.4	
509.6	6064	
509.8	5429.2	
510	6990.4	
510.19	8458.1	
510.39	5332.9	
510.59	5466	
510.79	6851.8	
510.98	8141.4	
511.18	5569.1	
511.38	5581.4	
511.57	7694.2	
511.77	7531.1	
511.97	6333	
512.17	5291.3	
512.36	7712	
512.56	7640.3	
512.76	5421.7	
512.95	5150.6	
513.15	7801.4	
513.35	6369.9	
513.55	6199.9	
513.74	5459.2	
513.94	7735.2	
514.14	7089.4	
514.33	6406	
514.53	6125.5	
514.73	7081.9	
514.92	7218.4	
515.12	5563	
515.32	5362.9	
515.51	7308.5	
515.71	7862.8	
515.91	7102.4	
516.11	5475.6	
516.3	8932.6	
516.5	6966.5	
516.7	6057.9	
516.89	6567.8	
517.09	7038.9	
517.29	6840.9	
517.48	6297.5	
517.68	5722.7	
517.88	6751.5	
518.07	7390.4	
518.27	6248.4	
518.47	5309	
518.66	8015.7	
518.86	6653.2	
519.06	5060.5	
519.25	5527.5	
519.45	6995.9	
519.65	8436.3	
519.84	6232	
520.04	6828.6	
520.24	8720.9	
520.43	7554.3	
520.63	5960.3	
520.83	5671.5	
521.02	6847.7	
521.22	7532.4	
521.42	6282.5	
521.61	6778.1	
521.81	7066.9	
522.01	7318.1	
522.2	6146.6	
522.4	5857.2	
522.6	7750.2	
522.79	6462.7	
522.99	5927.5	
523.18	5162.2	
523.38	7410.9	
523.58	7348.1	
523.77	7142.6	
523.97	5113.1	
524.17	9148.3	
524.36	8385.1	
524.56	6576	
524.76	6111.8	
524.95	7301.7	
525.15	7026.6	
525.34	5864.7	
525.54	5847.6	
525.74	7574.1	
525.93	6673	
526.13	7012.9	
526.33	5740.5	
526.52	7927	
526.72	7450.5	
526.91	6934.4	
527.11	6219	
527.31	7961.1	
527.5	8362.5	
527.7	6133.7	
527.89	5134.9	
528.09	6872.3	
528.29	7404.1	
528.48	6505.7	
528.68	6180.8	
528.87	7845.8	
529.07	7891.5	
529.27	6026.5	
529.46	5542.5	
529.66	7461.4	
529.85	7849.2	
530.05	5418.2	
530.25	6221	
530.44	8867.7	
530.64	7367.9	
530.83	5822.4	
531.03	6133	
531.23	7883.3	
531.42	7753.6	
531.62	6783.6	
531.81	6057.9	
532.01	7875.1	
532.21	8311.3	
532.4	5692.7	
532.6	5988.9	
532.79	8787.2	
532.99	7793.2	
533.18	6065.4	
533.38	7083.2	
533.58	7387	
533.77	8300.4	
533.97	5977.3	
534.16	6815.6	
534.36	8443.1	
534.55	7346.7	
534.75	7038.9	
534.95	6057.2	
535.14	8172.8	
535.34	7357	
535.53	5752.1	
535.73	7677.2	
535.92	8787.2	
536.12	7628	
536.31	5898.1	
536.51	7067.5	
536.71	8013	
536.9	7520.1	
537.1	6085.2	
537.29	6186.2	
537.49	8400.8	
537.68	7418.4	
537.88	6460.7	
538.07	5689.3	
538.27	7606.2	
538.46	8609	
538.66	5584.8	
538.86	6032.6	
539.05	7615	
539.25	8150.9	
539.44	6344.6	
539.64	5917.3	
539.83	7513.3	
540.03	8449.2	
540.22	5814.2	
540.42	6057.9	
540.61	7889.5	
540.81	7923.6	
541	6539.2	
541.2	7128.3	
541.39	7338.6	
541.59	7782.3	
541.78	6707.1	
541.98	5862.7	
542.18	7036.8	
542.37	7030	
542.57	6302.3	
542.76	6778.8	
542.96	7173.4	
543.15	7878.5	
543.35	6388.3	
543.54	5653.1	
543.74	8214.4	
543.93	7761.8	
544.13	6374.6	
544.32	7492.8	
544.52	8204.8	
544.71	7258	
544.91	5416.9	
545.1	6761.7	
545.3	7331	
545.49	7968	
545.69	5436	
545.88	6027.2	
546.08	9019.9	
546.27	8592.6	
546.47	6563.1	
546.66	5831.2	
546.86	8301.1	
547.05	8854.7	
547.24	6061.3	
547.44	5855.1	
547.63	7144.7	
547.83	8324.3	
548.02	6302.3	
548.22	6521.4	
548.41	7055.3	
548.61	8328.4	
548.8	5838.1	
549	5774.6	
549.19	7748.8	
549.39	7993.2	
549.58	5610.1	
549.78	6214.2	
549.97	8090.2	
550.17	7632.1	
550.36	7145.4	
550.55	8068.3	
550.75	7591.1	
550.94	8582.4	
551.14	5898.8	
551.33	6280.4	
551.53	6965.1	
551.72	7936.6	
551.92	6264.7	
552.11	5963.7	
552.31	7977.5	
552.5	8105.9	
552.69	7731.8	
552.89	5693.4	
553.08	7996.6	
553.28	7643.7	
553.47	6022.4	
553.67	7160.4	
553.86	8675.2	
554.06	6905.1	
554.25	5280.3	
554.44	5881.8	
554.64	9401.5	
554.83	8855.4	
555.03	5782.8	
555.22	6186.2	
555.42	8156.4	
555.61	7907.2	
555.8	6050.4	
556	6318	
556.19	6980.8	
556.39	8320.2	
556.58	6115.9	
556.78	6106.4	
556.97	7775.5	
557.16	7481.2	
557.36	7287.4	
557.55	5642.8	
557.75	6799.9	
557.94	8578.9	
558.13	5823.1	
558.33	5601.2	
558.52	8340	
558.72	7313.3	
558.91	5752.7	
559.1	5945.3	
559.3	6953.5	
559.49	6706.4	
559.69	5380	
559.88	6351.4	
560.07	7768.6	
560.27	8242.4	
560.46	6532.3	
560.66	6625.2	
560.85	7618.4	
561.04	6759	
561.24	5712.5	
561.43	5956.2	
561.63	7012.2	
561.82	7376.1	
562.01	7178.1	
562.21	6213.5	
562.4	7815.7	
562.59	8722.3	
562.79	6075.6	
562.98	5770.5	
563.18	7675.8	
563.37	9183.1	
563.56	6597.9	
563.76	5631.9	
563.95	7105.1	
564.14	7050.5	
564.34	5991.7	
564.53	5793	
564.73	7652.6	
564.92	8009.6	
565.11	6135.7	
565.31	5521.3	
565.5	8198.7	
565.69	7214.3	
565.89	5788.9	
566.08	6069.5	
566.27	8066.3	
566.47	8415.1	
566.66	6683.9	
566.85	5334.3	
567.05	7635.5	
567.24	7131.7	
567.44	5673.6	
567.63	7088.7	
567.82	7946.8	
568.02	7595.9	
568.21	5713.8	
568.4	6126.8	
568.6	7521.5	
568.79	7547.4	
568.98	5520	
569.18	5649.7	
569.37	7410.2	
569.56	9507.4	
569.76	6004	
569.95	6931.7	
570.14	7916.1	
570.34	7782.3	
570.53	5541.1	
570.72	5521.3	
570.91	8295	
571.11	7392.5	
571.3	6051.7	
571.49	6957.6	
571.69	7484.6	
571.88	7051.8	
572.07	6470.2	
572.27	6501.6	
572.46	6982.2	
572.65	8175.5	
572.85	5845.6	
573.04	6025.1	
573.23	8343.4	
573.43	7492.8	
573.62	5533.6	
573.81	6215.6	
574	7585	
574.2	7364.5	
574.39	5782.1	
574.58	6046.3	
574.78	8397.4	
574.97	7641	
575.16	6393.1	
575.36	6475.7	
575.55	8015.1	
575.74	8233.5	
575.93	5490.6	
576.13	6526.9	
576.32	7404.1	
576.51	8018.5	
576.71	5879.7	
576.9	7217.7	
577.09	8257.4	
577.28	7775.5	
577.48	6493.4	
577.67	5403.2	
577.86	7416.4	
578.05	7785.7	
578.25	6029.2	
578.44	6096.8	
578.63	7568.6	
578.83	8740	
579.02	5414.1	
579.21	6937.8	
579.4	7815	
579.6	7384.3	
579.79	6128.2	
579.98	8469	
580.17	8157.1	
580.37	8164.6	
580.56	5663.3	
580.75	6457.9	
580.94	8594	
581.14	8435.6	
581.33	6881.9	
581.52	5817.6	
581.71	7991.2	
581.91	8569.4	
582.1	5474.2	
582.29	6068.1	
582.48	7623.9	
582.68	7466.2	
582.87	6615.6	
583.06	6139.1	
583.25	7927	
583.45	7253.9	
583.64	6840.9	
583.83	7563.8	
584.02	7425.9	
584.21	7857.4	
584.41	6806.1	
584.6	6134.3	
584.79	7585	
584.98	8297	
585.18	5597.8	
585.37	5591.6	
585.56	7079.8	
585.75	7929.7	
585.94	5792.3	
586.14	6509.1	
586.33	8511.4	
586.52	7479.2	
586.71	6305	
586.91	6107	
587.1	7023.2	
587.29	8032.1	
587.48	6075	
587.67	5863.3	
587.87	7886.7	
588.06	7939.3	
588.25	7215.7	
588.44	6482.5	
588.63	7552.2	
588.83	8183.7	
589.02	5991.7	
589.21	5904.3	
589.4	7331	
589.59	7224.6	
589.78	5171.1	
589.98	5474.9	
590.17	7008.1	
590.36	7544.7	
590.55	4942.4	
590.74	5821.7	
590.94	9035	
591.13	7532.4	
591.32	5640.1	
591.51	5087.2	
591.7	7995.3	
591.89	7398.6	
592.09	5226.4	
592.28	5709.1	
592.47	6709.1	
592.66	8538	
592.85	5205.3	
593.05	5509.7	
593.24	7226.6	
593.43	7985	
593.62	5470.1	
593.81	6075.6	
594	7243.7	
594.19	7478.5	
594.39	5462.6	
594.58	5329.5	
594.77	7612.3	
594.96	8198	
595.15	5354.1	
595.34	6062.7	
595.54	7557.7	
595.73	6800.6	
595.92	4798.4	
596.11	5912.5	
596.3	8156.4	
596.49	6894.1	
596.68	5647.6	
596.88	6176.7	
597.07	7933.8	
597.26	6709.8	
597.45	5253.7	
597.64	6487.3	
597.83	7025.9	
598.02	7600	
598.22	5292.6	
598.41	5976.7	
598.6	7438.2	
598.79	6890.7	
598.98	5347.2	
599.17	6351.4	
599.36	7505.8	
599.55	8600.1	
599.74	7404.1	
599.94	7148.1	
600.13	8028.7	
600.32	6849.1	
600.51	5144.5	
600.7	5279	
600.89	8621.9	
601.08	8632.2	
601.27	5105.6	
601.47	6124.8	
601.66	7873.1	
601.85	8557.8	
602.04	5741.1	
602.23	6099.5	
602.42	6921.5	
602.61	7628.7	
602.8	5693.4	
602.99	5509	
603.18	7289.4	
603.37	7552.9	
603.57	6173.9	
603.76	6593.8	
603.95	8315.4	
604.14	7876.5	
604.33	5549.3	
604.52	5831.9	
604.71	7404.1	
604.9	7167.9	
605.09	6457.2	
605.28	6320.7	
605.47	8120.9	
605.66	7890.1	
605.86	6102.3	
606.05	5580.7	
606.24	8095.6	
606.43	6698.2	
606.62	5868.8	
606.81	6677.7	
607	7990.5	
607.19	7363.8	
607.38	5273.5	
607.57	5649	
607.76	7070.3	
607.95	6569.2	
608.14	5917.3	
608.33	6554.2	
608.52	7138.5	
608.72	7963.9	
608.91	5279.7	
609.1	5181.4	
609.29	7195.2	
609.48	6722.1	
609.67	6283.9	
609.86	5251	
610.05	6782.2	
610.24	7138.5	
610.43	5100.8	
610.62	4815.5	
610.81	8280.6	
611	8065.6	
611.19	5276.3	
611.38	5937.1	
611.57	7460.8	
611.76	8806.9	
611.95	5008	
612.14	4922.6	
612.33	7315.3	
612.52	6800.6	
612.71	5644.9	
612.9	4780.6	
613.09	6375.3	
613.28	8744.8	
613.47	5237.3	
613.66	6304.3	
613.85	7390.4	
614.04	6947.4	
614.24	5421.7	
614.43	4609.3	
614.62	7552.9	
614.81	7459.4	
615	5966.4	
615.19	5941.8	
615.38	6772.6	
615.57	7157.7	
615.76	5820.3	
615.95	6758.3	
616.14	7509.9	
616.33	7150.8	
616.52	6176.7	
616.71	6488.6	
616.9	7576.1	
617.09	7283.9	
617.28	5489.9	
617.47	6848.4	
617.66	6654.5	
617.85	6647	
618.04	6435.4	
618.22	5866.1	
618.41	6956.3	
618.6	7858.7	
618.79	5679	
618.98	5429.8	
619.17	8142.7	
619.36	6462.7	
619.55	5595.1	
619.74	5653.1	
619.93	7353.6	
620.12	6728.9	
620.31	6096.1	
620.5	6287.3	
620.69	7919.5	
620.88	8288.8	
621.07	6946.7	
621.26	6029.2	
621.45	7462.1	
621.64	7533.8	
621.83	6141.9	
622.02	5292.6	
622.21	7587	
622.4	7291.5	
622.59	6634.7	
622.78	6402.6	
622.97	6814.3	
623.16	7874.4	
623.35	6048.3	
623.54	5192.3	
623.72	7186.3	
623.91	7333.1	
624.1	6286.6	
624.29	4990.9	
624.48	8328.4	
624.67	7655.3	
624.86	6164.4	
625.05	5195	
625.24	8432.9	
625.43	6764.4	
625.62	8015.1	
625.81	5489.2	
626	7847.1	
626.19	7089.4	
626.38	6169.8	
626.56	5661.3	
626.75	6955.6	
626.94	7659.4	
627.13	6174.6	
627.32	4931.5	
627.51	7669	
627.7	8995.4	
627.89	5073.5	
628.08	6322.1	
628.27	6828.6	
628.46	7043.6	
628.65	5363.6	
628.83	5098.8	
629.02	7594.6	
629.21	6850.5	
629.4	5836.7	
629.59	6021.7	
629.78	6783.6	
629.97	7858.7	
630.16	6128.9	
630.35	5575.9	
630.54	8159.8	
630.72	7950.9	
630.91	5512.4	
631.1	6137.1	
631.29	7446.4	
631.48	7574.8	
631.67	6229.2	
631.86	5664	
632.05	7036.8	
632.24	7029.3	
632.42	5304.9	
632.61	5950.7	
632.8	7187	
632.99	6787	
633.18	5958.9	
633.37	6405.4	
633.56	7410.2	
633.75	7230	
633.93	5963	
634.12	5617.6	
634.31	8221.2	
634.5	7812.3	
634.69	5595.1	
634.88	6232	
635.07	7202.7	
635.25	7791.8	
635.44	6507.1	
635.63	6755.6	
635.82	7167.2	
636.01	6611.5	
636.2	6571.9	
636.39	6064	
636.57	8226.7	
636.76	7829.4	
636.95	5421.7	
637.14	6873	
637.33	7533.1	
637.52	8445.1	
637.7	5302.9	
637.89	6230.6	
638.08	7120.8	
638.27	8553.7	
638.46	6268.1	
638.65	6756.9	
638.83	8682.7	
639.02	6979.5	
639.21	6178	
639.4	6743.3	
639.59	7464.8	
639.78	7060.7	
639.96	5522.7	
640.15	5563.6	
640.34	7304.4	
640.53	7511.9	
640.72	5287.2	
640.91	5655.8	
641.09	6791.1	
641.28	8088.8	
641.47	5563	
641.66	6415.6	
641.85	7473.7	
642.03	7791.8	
642.22	6253.8	
642.41	5718.6	
642.6	6901	
642.79	6320.7	
642.97	5469.4	
643.16	6277	
643.35	6898.2	
643.54	6771.3	
643.73	5382.7	
643.91	6250.4	
644.1	6552.8	
644.29	7154.2	
644.48	5510.4	
644.67	5601.2	
644.85	6799.3	
645.04	7092.8	
645.23	5124	
645.42	5424.4	
645.6	6664.8	
645.79	7899	
645.98	5451.7	
646.17	4533.5	
646.36	6460.7	
646.54	7065.5	
646.73	6313.2	
646.92	5042.8	
647.11	6657.3	
647.29	7759.1	
647.48	5107.6	
647.67	5030.5	
647.86	8061.5	
648.05	8036.9	
648.23	5502.9	
648.42	6902.3	
648.61	7360.4	
648.8	7116	
648.98	5135.6	
649.17	5546.6	
649.36	6689.3	
649.55	6212.2	
649.73	5214.8	
649.92	5954.1	
650.11	6597.2	
650.3	6911.2	
650.48	5333.6	
650.67	5018.9	
650.86	7208.8	
651.05	6156.9	
651.23	5323.4	
651.42	5326.1	
651.61	6713.9	
651.79	6894.1	
651.98	5542.5	
652.17	5061.9	
652.36	7107.8	
652.54	6226.5	
652.73	5233.9	
652.92	4996.4	
653.11	7198.6	
653.29	7243	
653.48	4491.2	
653.67	5615.5	
653.85	6925.5	
654.04	7975.5	
654.23	5766.4	
654.42	5262.6	
654.6	6452.5	
654.79	7183.6	
654.98	4698	
655.16	5375.9	
655.35	6204	
655.54	6135.7	
655.73	4846.2	
655.91	4810.7	
656.1	7332.4	
656.29	6144.6	
656.47	4403.8	
656.66	6147.3	
656.85	6398.5	
657.03	6356.9	
657.22	4902.8	
657.41	4947.2	
657.59	6554.9	
657.78	6280.4	
657.97	4564.9	
658.16	5346.6	
658.34	7079.8	
658.53	7498.3	
658.72	6200.6	
658.9	6785.6	
659.09	6503.7	
659.28	6591	
659.46	5013.4	
659.65	5061.9	
659.84	6374	
660.02	6906.4	
660.21	4952	
660.4	4840.7	
660.58	7282.6	
660.77	6639.5	
660.96	5470.1	
661.14	4476.9	
661.33	7845.1	
661.52	7712	
661.7	4464.6	
661.89	8271.1	
662.08	6274.3	
662.26	5898.2	
662.45	4762.2	
662.64	4947.2	
662.82	6982.9	
663.01	6130.9	
663.2	5003.9	
663.38	5692.7	
663.57	6884.6	
663.75	6824.5	
663.94	5257.1	
664.13	6546.7	
664.31	6254.5	
664.5	6979.5	
664.69	5668.8	
664.87	6154.8	
665.06	6025.8	
665.25	6784.9	
665.43	6337.8	
665.62	6389.7	
665.8	7111.2	
665.99	6401.3	
666.18	5265.3	
666.36	5358.2	
666.55	7105.1	
666.74	6991.1	
666.92	4828.4	
667.11	6535.8	
667.29	6421.7	
667.48	7025.2	
667.67	6199.9	
667.85	5293.3	
668.04	6539.2	
668.22	6477.7	
668.41	5371.1	
668.6	5543.9	
668.78	6262.7	
668.97	6475.7	
669.15	5694	
669.34	4607.9	
669.53	6303.6	
669.71	6576.7	
669.9	4853.7	
670.08	5503.6	
670.27	6290.7	
670.46	6892.8	
670.64	5742.5	
670.83	6006	
671.01	6167.1	
671.2	6789.7	
671.38	4926	
671.57	4836.6	
671.76	7477.8	
671.94	8023.3	
672.13	4790.2	
672.31	5830.6	
672.5	6956.3	
672.69	6283.2	
672.87	4922	
673.06	5176.6	
673.24	6797.2	
673.43	6324.1	
673.61	5681.1	
673.8	5197.1	
673.98	7044.3	
674.17	7124.9	
674.36	5832.6	
674.54	5682.4	
674.73	6731.7	
674.91	7019.1	
675.1	5403.2	
675.28	5081	
675.47	6573.3	
675.65	7086.7	
675.84	5247.6	
676.03	5576.6	
676.21	6311.8	
676.4	5889.3	
676.58	6041.5	
676.77	5728.9	
676.95	7806.2	
677.14	6217	
677.32	4953.4	
677.51	4719.2	
677.69	7040.2	
677.88	5924.1	
678.06	4758.1	
678.25	4891.9	
678.44	6565.1	
678.62	6307.1	
678.81	4582.7	
678.99	5590.3	
679.18	7453.2	
679.36	6941.9	
679.55	5133.6	
679.73	5834.7	
679.92	6826.6	
680.1	6380.1	
680.29	6361	
680.47	5195.7	
680.66	6234	
680.84	7129	
681.03	4474.8	
681.21	5577.3	
681.4	6328.9	
681.58	6167.1	
681.77	4990.2	
681.95	4854.4	
682.14	7145.4	
682.32	7553.6	
682.51	5864.7	
682.69	4733.5	
682.88	6281.8	
683.06	6917.4	
683.25	5675.6	
683.43	5974.6	
683.62	6591.7	
683.8	6937.8	
683.99	6016.9	
684.17	5350	
684.36	7735.9	
684.54	6417	
684.73	4562.2	
684.91	4792.2	
685.1	6816.3	
685.28	6211.5	
685.46	5416.2	
685.65	5528.2	
685.83	7122.8	
686.02	6477	
686.2	4920.6	
686.39	4998.4	
686.57	6087.9	
686.76	7705.1	
686.94	4917.9	
687.13	5076.2	
687.31	6938.5	
687.5	6418.3	
687.68	4511	
687.86	5813.5	
688.05	8138.6	
688.23	5935.7	
688.42	5788.2	
688.6	4990.2	
688.79	6408.1	
688.97	6317.3	
689.16	5350	
689.34	4305.5	
689.52	7073	
689.71	7219.8	
689.89	5670.8	
690.08	4915.1	
690.26	6506.4	
690.45	6503.7	
690.63	5816.9	
690.81	5057.1	
691	6329.6	
691.18	6275	
691.37	5290.6	
691.55	7460.8	
691.74	6238.1	
691.92	8294.3	
692.1	5302.2	
692.29	4702.1	
692.47	6423.8	
692.66	5742.5	
692.84	4904.2	
693.02	5618.3	
693.21	5810.8	
693.39	6429.3	
693.58	5601.9	
693.76	4975.9	
693.94	7569.3	
694.13	7337.9	
694.31	4999.1	
694.5	6084.5	
694.68	6197.2	
694.86	6483.2	
695.05	5240.8	
695.23	5443.5	
695.42	6870.3	
695.6	9265	
695.78	5892	
695.97	4995.7	
696.15	6913.9	
696.34	6333	
696.52	4740.4	
696.7	5629.9	
696.89	6660	
697.07	6061.3	
697.25	5472.9	
697.44	7110.5	
697.62	6625.2	
697.81	7039.6	
697.99	5203.9	
698.17	5644.9	
698.36	6019.7	
698.54	6657.9	
698.72	5542.5	
698.91	4549.9	
699.09	6260	
699.28	6150.1	
699.46	5208.7	
699.64	5085.8	
699.83	6027.2	
700.01	7400	
700.19	5907.7	
700.38	4315.8	
700.56	7283.9	
700.74	6182.8	
700.93	4695.3	
701.11	5535	
701.29	6733	
701.48	7850.5	
701.66	4896	
701.84	4926.7	
702.03	6292.7	
702.21	6920.1	
702.39	4477.5	
702.58	5143.1	
702.76	6631.3	
702.94	6853.2	
703.13	4493.2	
703.31	6995.2	
703.49	5928.2	
703.68	6981.5	
703.86	4769.7	
704.04	5714.5	
704.23	6511.9	
704.41	6899.6	
704.59	4884.4	
704.78	6184.2	
704.96	7636.9	
705.14	6973.3	
705.33	4685.1	
705.51	5546.6	
705.69	6339.1	
705.87	7180.2	
706.06	5804.6	
706.24	4571.1	
706.42	6647.7	
706.61	7000.6	
706.79	5862	
706.97	4678.2	
707.16	6113.9	
707.34	6723.5	
707.52	5760.9	
707.7	4812	
707.89	6210.8	
708.07	5899.5	
708.25	5825.8	
708.44	5898.8	
708.62	6255.9	
708.8	7345.4	
708.98	6051.1	
709.17	4973.2	
709.35	6594.5	
709.53	6625.9	
709.72	4667.3	
709.9	4873.5	
710.08	6825.2	
710.26	6974.7	
710.45	6279.8	
710.63	4968.4	
710.81	6541.9	
710.99	6516	
711.18	5636.7	
711.36	5188.2	
711.54	6369.2	
711.72	7117.4	
711.91	5189.6	
712.09	4629.1	
712.27	6517.3	
712.45	7273.7	
712.64	5468.1	
712.82	4416.1	
713	5974.6	
713.18	6217.6	
713.37	4536.3	
713.55	5831.2	
713.73	6990.4	
713.91	5593	
714.1	4971.1	
714.28	4534.2	
714.46	6763.1	
714.64	5951.4	
714.83	3975.1	
715.01	4906.3	
715.19	6141.2	
715.37	5523.4	
715.55	4614.8	
715.74	4967	
715.92	7076.4	
716.1	5014.1	
716.28	6063.4	
716.47	5090.6	
716.65	5795.8	
716.83	5941.2	
717.01	4919.9	
717.19	5055.8	
717.38	7981.6	
717.56	5507.7	
717.74	5275.6	
717.92	4366.3	
718.1	6765.8	
718.29	6026.5	
718.47	3961.5	
718.65	4628.4	
718.83	6639.5	
719.01	6503	
719.2	3793.5	
719.38	4874.2	
719.56	6178	
719.74	7789.1	
719.92	4410.6	
720.11	5497.4	
720.29	6253.1	
720.47	5397.1	
720.65	4008.6	
720.83	4940.4	
721.02	5844.2	
721.2	5561.6	
721.38	5071.5	
721.56	4199.7	
721.74	5109.7	
721.92	5251	
722.11	5565.7	
722.29	5225.7	
722.47	6598.6	
722.65	5730.2	
722.83	4283.7	
723.01	5207.3	
723.2	5819	
723.38	6059.9	
723.56	3703.4	
723.74	4890.5	
723.92	5307.7	
724.1	6447	
724.29	4182.6	
724.47	5431.2	
724.65	5347.2	
724.83	5332.9	
725.01	4107.5	
725.19	5036.6	
725.37	5377.3	
725.56	5528.8	
725.74	3936.2	
725.92	4214	
726.1	5272.2	
726.28	5625.1	
726.46	4657.1	
726.64	4426.3	
726.83	5559.6	
727.01	5885.2	
727.19	3965.6	
727.37	4839.4	
727.55	5716.6	
727.73	6266.1	
727.91	3975.8	
728.09	3856.3	
728.28	6292.7	
728.46	7014.3	
728.64	4945.2	
728.82	4845.5	
729	7376.1	
729.18	6660	
729.36	4048.2	
729.54	6464.8	
729.72	7694.9	
729.91	5891.3	
730.09	6059.9	
730.27	4721.9	
730.45	5760.3	
730.63	6429.9	
730.81	5362.3	
730.99	4354	
731.17	6932.4	
731.35	5442.8	
731.53	4851	
731.71	4492.6	
731.9	6627.2	
732.08	6913.9	
732.26	4790.9	
732.44	4414.1	
732.62	6920.8	
732.8	6393.1	
732.98	5251	
733.16	4249.5	
733.34	6384.2	
733.52	5236.7	
733.7	4807.3	
733.88	5078.3	
734.07	6285.9	
734.25	5971.2	
734.43	4214	
734.61	5920	
734.79	7542.7	
734.97	5900.9	
735.15	4379.9	
735.33	4818.2	
735.51	6277	
735.69	5847	
735.87	5853.8	
736.05	4941.7	
736.23	6083.1	
736.41	5844.9	
736.59	4853.7	
736.77	4926.7	
736.95	6515.3	
737.13	5949.3	
737.32	4481.6	
737.5	4675.5	
737.68	7118.1	
737.86	5874.9	
738.04	4221.5	
738.22	6227.9	
738.4	5726.1	
738.58	5994.4	
738.76	4957.4	
738.94	3857	
739.12	5864.7	
739.3	5668.8	
739.48	5550.7	
739.66	5304.2	
739.84	6154.8	
740.02	6091.3	
740.2	3936.9	
740.38	4332.1	
740.56	6492.1	
740.74	5347.9	
740.92	5014.8	
741.1	4967.7	
741.28	5988.9	
741.46	5760.3	
741.64	4595.6	
741.82	5130.2	
742	6005.3	
742.18	5947.3	
742.36	4790.9	
742.54	4345.1	
742.72	6565.1	
742.9	5279	
743.08	5205.3	
743.26	3985.3	
743.44	6770.6	
743.62	6620.4	
743.8	5406	
743.98	4431.1	
744.16	6423.8	
744.34	6011.5	
744.52	5350.7	
744.7	5219.6	
744.88	6494.1	
745.06	6038.1	
745.24	5414.8	
745.42	5489.2	
745.6	6534.4	
745.78	6333.7	
745.96	4131.4	
746.14	4492.6	
746.32	7389.8	
746.5	6540.5	
746.68	5097.4	
746.86	4528.1	
747.03	7083.2	
747.21	5323.4	
747.39	5090.6	
747.57	4588.1	
747.75	6223.8	
747.93	6688	
748.11	4567.7	
748.29	4453.6	
748.47	7871.7	
748.65	5942.5	
748.83	5298.8	
749.01	4999.8	
749.19	6485.2	
749.37	5604.6	
749.55	4886.5	
749.73	4917.9	
749.91	6084.5	
750.09	5809.4	
750.26	5029.1	
750.44	4394.3	
750.62	6168.5	
750.8	6184.2	
750.98	4307.6	
751.16	4613.4	
751.34	6185.5	
751.52	5549.3	
751.7	5404.6	
751.88	4192.2	
752.06	6729.6	
752.24	6462.7	
752.42	4212.7	
752.59	4572.4	
752.77	6128.2	
752.95	7422.5	
753.13	5338.4	
753.31	4717.2	
753.49	5784.1	
753.67	6253.1	
753.85	5010	
754.03	4597	
754.21	6547.4	
754.38	6894.1	
754.56	4756.1	
754.74	3828.3	
754.92	5749.3	
755.1	6518	
755.28	3840.6	
755.46	3862.5	
755.64	7271.7	
755.82	7364.5	
755.99	4173.8	
756.17	4326	
756.35	4843.4	
756.53	6518	
756.71	3162.7	
756.89	4154.6	
757.07	6113.9	
757.25	5167	
757.42	4698.7	
757.6	5614.2	
757.78	6167.1	
757.96	5088.5	
758.14	4384	
758.32	3854.3	
758.5	4640.7	
758.67	5816.2	
758.85	4202.4	
759.03	4346.5	
759.21	5716.6	
759.39	5063.9	
759.57	3749.8	
759.75	4988.2	
759.92	6391.7	
760.1	5605.3	
760.28	5316.5	
760.46	5564.3	
760.64	5365.7	
760.82	5097.4	
760.99	5172.5	
761.17	4334.9	
761.35	6247	
761.53	5224.4	
761.71	4417.5	
761.89	5137.7	
762.06	6150.1	
762.24	5574.6	
762.42	4545.1	
762.6	4300.1	
762.78	5616.2	
762.96	6328.2	
763.13	4971.8	
763.31	4607.9	
763.49	6445.6	
763.67	5539.8	
763.85	5409.4	
764.02	5962.3	
764.2	6806.8	
764.38	5902.9	
764.56	4503.5	
764.74	5425.8	
764.91	6850.5	
765.09	5754.1	
765.27	4139.6	
765.45	3988.8	
765.63	6894.8	
765.8	6779.5	
765.98	3652.9	
766.16	4067.3	
766.34	5297.4	
766.52	5067.4	
766.69	4969.1	
766.87	3904.1	
767.05	5672.2	
767.23	6500.9	
767.41	4222.9	
767.58	4513.7	
767.76	6326.2	
767.94	6391	
768.12	4351.9	
768.29	5151.3	
768.47	5759.6	
768.65	6576.7	
768.83	3900	
769	5128.1	
769.18	5294.7	
769.36	6122.7	
769.54	5121.3	
769.72	3922.5	
769.89	6387.6	
770.07	6527.6	
770.25	4337.6	
770.43	5615.5	
770.6	7214.3	
770.78	7526.3	
770.96	4507.6	
771.14	5112.4	
771.31	6263.4	
771.49	5652.4	
771.67	3645.4	
771.85	3936.9	
772.02	4869.4	
772.2	5666	
772.38	4727.4	
772.55	4182	
772.73	5850.4	
772.91	5691.3	
773.09	4598.4	
773.26	4650.9	
773.44	5868.1	
773.62	5596.4	
773.8	4078.9	
773.97	3753.2	
774.15	5926.1	
774.33	5462.6	
774.5	3966.9	
774.68	4339	
774.86	6178	
775.04	5525.4	
775.21	4019.5	
775.39	4050.9	
775.57	5847	
775.74	6331.6	
775.92	3931.4	
776.1	3792.2	
776.27	5833.3	
776.45	7097.6	
776.63	4046.8	
776.81	3568.2	
776.98	5475.6	
777.16	6612.2	
777.34	4218.1	
777.51	4145.1	
777.69	5404.6	
777.87	5191.6	
778.04	4232.5	
778.22	4939	
778.4	5243.5	
778.57	5982.1	
778.75	3500.7	
778.93	3831.1	
779.1	5073.5	
779.28	4939.7	
779.46	3509.5	
779.64	4024.3	
779.81	6118	
779.99	7027.3	
780.17	4788.8	
780.34	5010.7	
780.52	5558.9	
780.69	5732.9	
780.87	4312.3	
781.05	3922.5	
781.22	5641.5	
781.4	5692	
781.58	4091.2	
781.75	3168.2	
781.93	5608	
782.11	5067.4	
782.28	4965.6	
782.46	4044.1	
782.64	4857.1	
782.81	5898.2	
782.99	4043.4	
783.17	4048.8	
783.34	5720	
783.52	4915.1	
783.69	4302.8	
783.87	5122.7	
784.05	4932.2	
784.22	5027.1	
784.4	5102.9	
784.58	4369	
784.75	5964.4	
784.93	5034.6	
785.1	4046.8	
785.28	4689.8	
785.46	5636.7	
785.63	5002.5	
785.81	4034.5	
785.99	3870.7	
786.16	5203.9	
786.34	5534.3	
786.51	3834.5	
786.69	4296.6	
786.87	4798.4	
787.04	5264.6	
787.22	3759.4	
787.39	4694.6	
787.57	5008.6	
787.75	6129.6	
787.92	4940.4	
788.1	4887.8	
788.27	5046.2	
788.45	4841.4	
788.63	4592.9	
788.8	3253.5	
788.98	5646.2	
789.15	4775.9	
789.33	3334.1	
789.5	4065.9	
789.68	6016.9	
789.86	6107	
790.03	4533.5	
790.21	3909.6	
790.38	5977.3	
790.56	5147.9	
790.73	3803.1	
790.91	3796.9	
791.09	5057.1	
791.26	5816.2	
791.44	4027.7	
791.61	3505.4	
791.79	4995.7	
791.96	5076.9	
792.14	3641.3	
792.32	3136.1	
792.49	5033.9	
792.67	5130.8	
792.84	3676.1	
793.02	3431.7	
793.19	5627.1	
793.37	6180.8	
793.54	3175	
793.72	3504.8	
793.89	6355.5	
794.07	4986.8	
794.25	4227.7	
794.42	3271.3	
794.6	6075.6	
794.77	5756.8	
794.95	4454.3	
795.12	3835.2	
795.3	5030.5	
795.47	5672.9	
795.65	4262.5	
795.82	4136.9	
796	4855.1	
796.17	6811.5	
796.35	3938.9	
796.52	4676.2	
796.7	5618.3	
796.87	5720	
797.05	4913.1	
797.22	4821.6	
797.4	5652.4	
797.57	6753.5	
797.75	4071.4	
797.92	3874.8	
798.1	5980.1	
798.27	5014.8	
798.45	3312.9	
798.62	3521.1	
798.8	5360.9	
798.97	5905.7	
799.15	4384	
799.32	4140.3	
799.5	4620.2	
799.67	5470.8	
799.85	4426.3	
800.02	3222.1	
800.2	4990.9	
800.37	5320.6	
800.55	4618.2	
800.72	3821.5	
800.9	5766.4	
801.07	6277	
801.25	5199.8	
801.42	4232.5	
801.6	5841.5	
801.77	5602.6	
801.95	3896.6	
802.12	3729.4	
802.29	5524.7	
802.47	5501.5	
802.64	4156	
802.82	3178.4	
802.99	4996.4	
803.17	6049.7	
803.34	4101.4	
803.52	3691.1	
803.69	6716	
803.87	4740.4	
804.04	4027.7	
804.21	4200.4	
804.39	6120.7	
804.56	5188.9	
804.74	3428.3	
804.91	4260.5	
805.09	5012.7	
805.26	5132.2	
805.44	3557.3	
805.61	3899.3	
805.78	5753.4	
805.96	5745.2	
806.13	4252.9	
806.31	4559.5	
806.48	4547.2	
806.66	5185.5	
806.83	4148.5	
807	4138.3	
807.18	5020.3	
807.35	5444.9	
807.53	4135.5	
807.7	3267.9	
807.87	6219.7	
808.05	5163.6	
808.22	4619.5	
808.4	3276.8	
808.57	5099.4	
808.74	4689.8	
808.92	3783.3	
809.09	4868	
809.27	4922.6	
809.44	5560.2	
809.61	3352.5	
809.79	3737.5	
809.96	6282.5	
810.14	5870.8	
810.31	3223.5	
810.48	4049.5	
810.66	5148.6	
810.83	5907	
811.01	3774.4	
811.18	4214.7	
811.35	5822.4	
811.53	4502.1	
811.7	4629.1	
811.87	4251.6	
812.05	5061.2	
812.22	4992.3	
812.39	3618.1	
812.57	3480.2	
812.74	5061.9	
812.92	6838.9	
813.09	3898.6	
813.26	4345.8	
813.44	6513.9	
813.61	5048.2	
813.78	3291.1	
813.96	4485.7	
814.13	5076.2	
814.3	4784.1	
814.48	4806.6	
814.65	3966.2	
814.82	6345.3	
815	4871.4	
815.17	4078.2	
815.34	5005.2	
815.52	4936.3	
815.69	4945.8	
815.87	4119.1	
816.04	3485	
816.21	5076.2	
816.38	4487.1	
816.56	3906.2	
816.73	3653.6	
816.9	6457.2	
817.08	5871.5	
817.25	3719.8	
817.42	4682.3	
817.6	4653	
817.77	5120.6	
817.94	4212	
818.12	3635.8	
818.29	4823	
818.46	7516	
818.64	3834.5	
818.81	3544.4	
818.98	4724	
819.16	6938.5	
819.33	4398.4	
819.5	4069.3	
819.67	5453.1	
819.85	6106.4	
820.02	4022.2	
820.19	4237.9	
820.37	5267.4	
820.54	4881	
820.71	4165.6	
820.88	5154.7	
821.06	5333.6	
821.23	4818.9	
821.4	4147.1	
821.58	4105.5	
821.75	5844.9	
821.92	5201.8	
822.09	3327.9	
822.27	3389.4	
822.44	5100.1	
822.61	4937	
822.79	3348.4	
822.96	6474.3	
823.13	5603.2	
823.3	4811.4	
823.48	3851.5	
823.65	3506.8	
823.82	5799.8	
823.99	4625.7	
824.17	4957.4	
824.34	3621.5	
824.51	6777.4	
824.68	5165	
824.86	3747.8	
825.03	4078.9	
825.2	5122.7	
825.37	6090.7	
825.55	3640.6	
825.72	4089.1	
825.89	6790.4	
826.06	6265.4	
826.24	3984	
826.41	4040.6	
826.58	6225.1	
826.75	5371.8	
826.92	3161.4	
827.1	3452.9	
827.27	8505.2	
827.44	6660	
827.61	3789.4	
827.79	4586.8	
827.96	4769.7	
828.13	5168.4	
828.3	3908.2	
828.47	3299.3	
828.65	5300.1	
828.82	5240.8	
828.99	5245.5	
829.16	4483	
829.34	5714.5	
829.51	5453.1	
829.68	4134.8	
829.85	4309.6	
830.02	6039.5	
830.2	5712.5	
830.37	3215.3	
830.54	5044.1	
830.71	6569.2	
830.88	5102.2	
831.05	3203	
831.23	3653.6	
831.4	6244.9	
831.57	7097.6	
831.74	3824.9	
831.91	3332.7	
832.09	5315.8	
832.26	5689.3	
832.43	3932.1	
832.6	4461.8	
832.77	5341.8	
832.94	6070.9	
833.12	3095.2	
833.29	3941.7	
833.46	5487.2	
833.63	7339.9	
833.8	4288.4	
833.97	4009.9	
834.15	5664.7	
834.32	5429.2	
834.49	4149.9	
834.66	4197.7	
834.83	5941.2	
835	4827.1	
835.17	3794.9	
835.35	3753.9	
835.52	5567.7	
835.69	5489.9	
835.86	4053.6	
836.03	3308.2	
836.2	5644.9	
836.37	5218.9	
836.55	3900.7	
836.72	3723.9	
836.89	5255.8	
837.06	5765.7	
837.23	3975.1	
837.4	4428.4	
837.57	6561.7	
837.75	7323.5	
837.92	3629.7	
838.09	3839.9	
838.26	5255.8	
838.43	5988.9	
838.6	4136.2	
838.77	3688.4	
838.94	6819.1	
839.11	6596.5	
839.29	3917.8	
839.46	3115	
839.63	5637.4	
839.8	5431.2	
839.97	3828.3	
840.14	3790.1	
840.31	5453.1	
840.48	5689.9	
840.65	3161.4	
840.82	3700	
841	5709.1	
841.17	5651.7	
841.34	3552.5	
841.51	3548.4	
841.68	5561.6	
841.85	5307	
842.02	3663.1	
842.19	3028.3	
842.36	5356.1	
842.53	5414.1	
842.7	3521.1	
842.87	4368.3	
843.05	7194.5	
843.22	5367	
843.39	3349.8	
843.56	3613.3	
843.73	5171.1	
843.9	5747.3	
844.07	5757.5	
844.24	4759.5	
844.41	8418.5	
844.58	4937.7	
844.75	3373.7	
844.92	3718.4	
845.09	5718.6	
845.26	5625.8	
845.43	3452.9	
845.6	3687	
845.77	5675.6	
845.94	5416.2	
846.12	3930.7	
846.29	4099.4	
846.46	5907	
846.63	5664	
846.8	3493.2	
846.97	4175.8	
847.14	6200.6	
847.31	5618.3	
847.48	3962.8	
847.65	4326.7	
847.82	5973.9	
847.99	5973.9	
848.16	4763.6	
848.33	4368.3	
848.5	5261.9	
848.67	6227.9	
848.84	3510.2	
849.01	3663.8	
849.18	5098.8	
849.35	4783.4	
849.52	4401.1	
849.69	3390.8	
849.86	5921.4	
850.03	6124.1	
850.2	3525.2	
850.37	4298.7	
850.54	6068.1	
850.71	5374.6	
850.88	4214	
851.05	3442.6	
851.22	5625.1	
851.39	6238.8	
851.56	3287	
851.73	4063.9	
851.9	4941.1	
852.07	5872.9	
852.24	3863.8	
852.41	3514.3	
852.58	5627.8	
852.75	5076.9	
852.92	3995.6	
853.09	3413.3	
853.26	5291.3	
853.43	6124.8	
853.6	3475.4	
853.77	2970.2	
853.94	6235.4	
854.11	5606	
854.28	5259.9	
854.44	3843.4	
854.61	6700.3	
854.78	5784.8	
854.95	3452.9	
855.12	4407.9	
855.29	4565.6	
855.46	6477	
855.63	3468.6	
855.8	4839.4	
855.97	5201.8	
856.14	6033.3	
856.31	4982.7	
856.48	3768.9	
856.65	5214.1	
856.82	4969.7	
856.99	3354.6	
857.16	3780.6	
857.33	6978.1	
857.49	5311.7	
857.66	3709.6	
857.83	4108.2	
858	5279.7	
858.17	5411.4	
858.34	3273.3	
858.51	3499.3	
858.68	6449.1	
858.85	6518.7	
859.02	4051.6	
859.19	4322.6	
859.36	4926	
859.52	5024.3	
859.69	3517.7	
859.86	4130.8	
860.03	5090.6	
860.2	6275	
860.37	3165.5	
860.54	3528	
860.71	5920.7	
860.88	6378.1	
861.05	3946.4	
861.21	4373.1	
861.38	6405.4	
861.55	4896	
861.72	3138.9	
861.89	3905.5	
862.06	5950	
862.23	6508.4	
862.4	3335.5	
862.56	3605.8	
862.73	5800.5	
862.9	5453.1	
863.07	4137.6	
863.24	3172.3	
863.41	4911	
863.58	5016.8	
863.75	3573	
863.91	4033.8	
864.08	6358.3	
864.25	5846.3	
864.42	4401.8	
864.59	4951.3	
864.76	6665.5	
864.93	4977.2	
865.09	3409.2	
865.26	3749.1	
865.43	6154.8	
865.6	6577.4	
865.77	3033	
865.94	3477.5	
866.1	6239.5	
866.27	5968.5	
866.44	5323.4	
866.61	3318.4	
866.78	5372.5	
866.95	5836.7	
867.11	3378.5	
867.28	3118.4	
867.45	6013.5	
867.62	5016.2	
867.79	4055	
867.96	3471.3	
868.12	4983.4	
868.29	5991	
868.46	3465.8	
868.63	4677.6	
868.8	6074.3	
868.97	5916.6	
869.13	3680.2	
869.3	3635.1	
869.47	5786.2	
869.64	5986.9	
869.81	3565.5	
869.97	3478.8	
870.14	5674.9	
870.31	6328.9	
870.48	3372.3	
870.65	4456.4	
870.81	5335.6	
870.98	5273.5	
871.15	3986	
871.32	3715	
871.48	5726.1	
871.65	6376.7	
871.82	3473.4	
871.99	3877.5	
872.16	6874.3	
872.32	6186.9	
872.49	3569.6	
872.66	3579.2	
872.83	5959.6	
872.99	5141.8	
873.16	4016.7	
873.33	3429.7	
873.5	5498.1	
873.67	5522	
873.83	3704.8	
874	4696	
874.17	5662.6	
874.34	6791.1	
874.5	4552	
874.67	4400.4	
874.84	6317.3	
875.01	4939	
875.17	4885.1	
875.34	3491.1	
875.51	5627.8	
875.68	6786.3	
875.84	4225	
876.01	5143.1	
876.18	5853.8	
876.34	5816.9	
876.51	3556.6	
876.68	3438.5	
876.85	5298.8	
877.01	6141.2	
877.18	4965	
877.35	3450.1	
877.52	5468.1	
877.68	4938.3	
877.85	3368.2	
878.02	3454.2	
878.18	5438	
878.35	5150.6	
878.52	2831.7	
878.69	3938.9	
878.85	5914.5	
879.02	5919.3	
879.19	5014.8	
879.35	3752.6	
879.52	5847.6	
879.69	6082.5	
879.86	3002.3	
880.02	3947.8	
880.19	5387.5	
880.36	6636.1	
880.52	4036.5	
880.69	4158.1	
880.86	5987.6	
881.02	6040.1	
881.19	3801	
881.36	3802.4	
881.52	5855.8	
881.69	5162.2	
881.86	3797.6	
882.02	3655.6	
882.19	6094.8	
882.36	7217	
882.52	3562.8	
882.69	4830.5	
882.86	5693.4	
883.02	5560.2	
883.19	4263.9	
883.36	4007.9	
883.52	6022.4	
883.69	6870.3	
883.86	3534.1	
884.02	3193.5	
884.19	5920	
884.36	5461.2	
884.52	3979.2	
884.69	3733.4	
884.86	5205.9	
885.02	6467.5	
885.19	3889.8	
885.36	4063.9	
885.52	5424.4	
885.69	5622.4	
885.86	5092.6	
886.02	4487.8	
886.19	5904.3	
886.35	5442.1	
886.52	3881.6	
886.69	4897.4	
886.85	4982.7	
887.02	6356.2	
887.19	6356.2	
887.35	6356.2	
887.52	6356.2	
887.68	6356.2	
887.85	6356.2	
888.02	6356.2	
888.18	6356.2	
888.35	6356.2	
888.51	6356.2	
888.68	6356.2	
888.85	6356.2	
889.01	6356.2	
889.18	6356.2	
889.35	6356.2	
889.51	6356.2	
889.68	6356.2	
889.84	6356.2	
890.01	6356.2	
890.17	6356.2	
890.34	6356.2	
890.51	6356.2	
890.67	6356.2	
890.84	6356.2	
891	6356.2	
891.17	6356.2	
891.34	6356.2	
891.5	6356.2	
891.67	6356.2	
891.83	6356.2	
892	6356.2	
892.16	6356.2	
892.33	6356.2	
892.5	6356.2	
892.66	6356.2	
892.83	6356.2	
892.99	6356.2	
893.16	6356.2	
893.32	6356.2	
893.49	6356.2	
893.65	6356.2	
893.82	6356.2	
893.99	6356.2	
894.15	6356.2	
894.32	6356.2	
894.48	6356.2	
894.65	6356.2	
894.81	6356.2	
894.98	6356.2	
895.14	6356.2	
895.31	6356.2	
895.47	6356.2	
895.64	6356.2	
895.81	6356.2	
895.97	6356.2	
896.14	6356.2	
896.3	6356.2	
896.47	6356.2	
896.63	6356.2	
896.8	6356.2	
896.96	6356.2	
897.13	6356.2	
897.29	6356.2	
897.46	6356.2	
897.62	6356.2	
897.79	6356.2	
897.95	6356.2	
898.12	6356.2	
898.28	6356.2	
898.45	6356.2	
898.61	6356.2	
898.78	6356.2	
898.94	6356.2	
899.11	6356.2	
899.27	6356.2	
899.44	6356.2	
899.6	6356.2	
899.77	6356.2	
899.93	6356.2	
900.1	6356.2	
900.26	6356.2	
900.43	6356.2	
900.59	6356.2	
900.76	6356.2	
900.92	6356.2	
901.09	6356.2	
901.25	6356.2	
901.42	6356.2	
901.58	6356.2	
901.75	6356.2	
901.91	6356.2	
902.07	6356.2	
902.24	6356.2	
902.4	6356.2	
902.57	6356.2	
902.73	6356.2	
902.9	6356.2	
903.06	6356.2	
903.23	6356.2	
903.39	6356.2	
903.56	6356.2	
903.72	6356.2	
903.88	6356.2	
904.05	6356.2	
904.21	6356.2	
904.38	6356.2	
904.54	6356.2	
904.71	6356.2	
904.87	6356.2	
905.03	6356.2	
905.2	6356.2	
905.36	6356.2	
905.53	6356.2	
905.69	6356.2	
905.86	6356.2	
906.02	6356.2	
906.18	6356.2	
906.35	6356.2	
906.51	6356.2	
906.68	6356.2	
906.84	6356.2	
907.01	6356.2	
907.17	6356.2	
907.33	6356.2	
907.5	6356.2	
907.66	6356.2	
907.83	6356.2	
907.99	6356.2	
908.15	6356.2	
908.32	6356.2	
908.48	6356.2	
908.65	6356.2	
908.81	6356.2	
908.97	6356.2	
909.14	6356.2	
909.3	6356.2	
909.47	6356.2	
909.63	6356.2	
909.79	6356.2	
909.96	6356.2	
910.12	6356.2	
910.28	6356.2	
910.45	6356.2	
910.61	6356.2	
910.78	6356.2	
910.94	6356.2	
911.1	6356.2	
911.27	6356.2	
911.43	6356.2	
911.59	6356.2	
911.76	6356.2	
911.92	6356.2	
912.08	6356.2	
912.25	6356.2	
912.41	6356.2	
912.57	6356.2	
912.74	6356.2	
912.9	6356.2	
913.07	6356.2	
913.23	6356.2	
913.39	6356.2	
913.56	6356.2	
913.72	6356.2	
913.88	6356.2	
914.05	6356.2	
914.21	6356.2	
914.37	6356.2	
914.54	6356.2	
914.7	6356.2	
914.86	6356.2	
915.03	6356.2	
915.19	6356.2	
