Wavelength	Intensities	
nm	a.u.	
179.22	1837.9	
179.44	1825.8	
179.65	1850	
179.86	1801.5	
180.08	1860.2	
180.29	4625.7	
180.51	3307.5	
180.72	5373.9	
180.94	6299.6	
181.15	3099.9	
181.37	2979.1	
181.58	5266.7	
181.79	5560.9	
182.01	3177.8	
182.22	3423.5	
182.44	5520.6	
182.65	4650.9	
182.87	4257	
183.08	3810.6	
183.29	5788.2	
183.51	4827.1	
183.72	3451.5	
183.94	4949.3	
184.15	5177.3	
184.37	5205.9	
184.58	3031.7	
184.79	4086.4	
185.01	4820.2	
185.22	5468.8	
185.44	4324.6	
185.65	3676.1	
185.86	5123.3	
186.08	4674.1	
186.29	2973.7	
186.51	3159.3	
186.72	4803.9	
186.94	5585.5	
187.15	3650.8	
187.36	3799	
187.58	7370	
187.79	5229.8	
188.01	3906.2	
188.22	6019	
188.43	6283.9	
188.65	5485.8	
188.86	3121.1	
189.08	3814.7	
189.29	4986.8	
189.5	5011.4	
189.72	3565.5	
189.93	3555.3	
190.15	5701.5	
190.36	6782.2	
190.57	3883.6	
190.79	3751.9	
191	5726.1	
191.22	5765.7	
191.43	3819.5	
191.64	3173	
191.86	5985.5	
192.07	5778	
192.29	3352.5	
192.5	3518.4	
192.71	5712.5	
192.93	4929.5	
193.14	3461.7	
193.35	3536.2	
193.57	4982	
193.78	5683.8	
194	2828.2	
194.21	3437.2	
194.42	4759.5	
194.64	5180	
194.85	3798.3	
195.07	4405.9	
195.28	5224.4	
195.49	4560.8	
195.71	4607.2	
195.92	3300.6	
196.13	5394.3	
196.35	5451	
196.56	4863.2	
196.78	3809.2	
196.99	6683.2	
197.2	6265.4	
197.42	4222.9	
197.63	3878.2	
197.84	4640	
198.06	5355.4	
198.27	3464.5	
198.48	4620.9	
198.7	4933.6	
198.91	5081	
199.13	3818.1	
199.34	3783.3	
199.55	5623	
199.77	4505.5	
199.98	3364.1	
200.19	3874.1	
200.41	5132.2	
200.62	4818.2	
200.83	3981.3	
201.05	4198.3	
201.26	5139	
201.47	4838.7	
201.69	3389.4	
201.9	3257.6	
202.11	5219.6	
202.33	6121.4	
202.54	3543	
202.76	3994.9	
202.97	5228.5	
203.18	5311.1	
203.4	3949.8	
203.61	3897.3	
203.82	5248.9	
204.04	4908.3	
204.25	3876.1	
204.46	3792.8	
204.68	5209.3	
204.89	5436	
205.1	3663.1	
205.32	3261.7	
205.53	5489.2	
205.74	5660.6	
205.96	2743.6	
206.17	3889.8	
206.38	5500.2	
206.6	5639.4	
206.81	4332.1	
207.02	3558	
207.24	5439.4	
207.45	5838.1	
207.66	3616	
207.88	3128.6	
208.09	5417.6	
208.3	5171.8	
208.52	3327.3	
208.73	3706.1	
208.94	5155.4	
209.15	5850.4	
209.37	3609.2	
209.58	3775.1	
209.79	5697.4	
210.01	5072.1	
210.22	2935.4	
210.43	3059	
210.65	5212.8	
210.86	5558.9	
211.07	3681.6	
211.29	3330	
211.5	5489.2	
211.71	5160.2	
211.93	3350.5	
212.14	3347.7	
212.35	5128.8	
212.56	5313.1	
212.78	3815.4	
212.99	3156.6	
213.2	6046.3	
213.42	4975.9	
213.63	3467.9	
213.84	3717.1	
214.06	4653	
214.27	4704.9	
214.48	3620.8	
214.69	3870.7	
214.91	5788.2	
215.12	5894.7	
215.33	3867.9	
215.55	4347.2	
215.76	6320	
215.97	5519.3	
216.18	3776.5	
216.4	3692.5	
216.61	4915.1	
216.82	5638.1	
217.04	3308.2	
217.25	3483.6	
217.46	5749.3	
217.67	5541.8	
217.89	3063.1	
218.1	3093.8	
218.31	5264.6	
218.53	5367	
218.74	3514.3	
218.95	3381.9	
219.16	5182	
219.38	6024.4	
219.59	3443.3	
219.8	4051.6	
220.01	6615.6	
220.23	5190.2	
220.44	4401.8	
220.65	3295.9	
220.87	5244.2	
221.08	5791	
221.29	3099.3	
221.5	4095.9	
221.72	6976.7	
221.93	4941.7	
222.14	3846.8	
222.35	4511	
222.57	5259.9	
222.78	5548.6	
222.99	3620.8	
223.2	3964.2	
223.42	5391.6	
223.63	5600.5	
223.84	2790	
224.05	2826.2	
224.27	6589	
224.48	5993.7	
224.69	4546.5	
224.9	3779.9	
225.12	5403.2	
225.33	5142.4	
225.54	3044	
225.75	3464.5	
225.97	4808.6	
226.18	5102.2	
226.39	3719.8	
226.6	3445.4	
226.82	4956.1	
227.03	4776.5	
227.24	3835.8	
227.45	3134.8	
227.67	5483.8	
227.88	6032	
228.09	4205.8	
228.3	4268	
228.52	5500.2	
228.73	5150	
228.94	3534.1	
229.15	3186	
229.36	5111	
229.58	5066.7	
229.79	3670	
230	4127.3	
230.21	6128.9	
230.43	5281	
230.64	3754.6	
230.85	3947.1	
231.06	5612.8	
231.28	5546.6	
231.49	3167.5	
231.7	3765.5	
231.91	5520	
232.12	5233.9	
232.34	3242.6	
232.55	3699.3	
232.76	5762.3	
232.97	5342.5	
233.18	3364.8	
233.4	3779.9	
233.61	5433.3	
233.82	4906.3	
234.03	3489.1	
234.25	3540.9	
234.46	7130.3	
234.67	5224.4	
234.88	3934.8	
235.09	3414.6	
235.31	5419.6	
235.52	5054.4	
235.73	3793.5	
235.94	3192.8	
236.15	4929.5	
236.37	6288.6	
236.58	3396.2	
236.79	3640.6	
237	5496.7	
237.21	4693.3	
237.43	3918.4	
237.64	3074	
237.85	9108	
238.06	4784.7	
238.27	3991.5	
238.48	3239.2	
238.7	5464.7	
238.91	5074.2	
239.12	3700.7	
239.33	3689.1	
239.54	4822.3	
239.76	5198.4	
239.97	3620.8	
240.18	3616.7	
240.39	6439.5	
240.6	5464	
240.82	3775.1	
241.03	3113.6	
241.24	5185.5	
241.45	5963.7	
241.66	3383.9	
241.87	3959.4	
242.09	5899.5	
242.3	6197.2	
242.51	3942.3	
242.72	3650.8	
242.93	5644.2	
243.14	5147.9	
243.36	4268.6	
243.57	4588.8	
243.78	5983.5	
243.99	5544.5	
244.2	3690.4	
244.41	3312.2	
244.63	4752	
244.84	5423	
245.05	3864.5	
245.26	3646.7	
245.47	5457.2	
245.68	5677	
245.9	4842.1	
246.11	3796.9	
246.32	5011.4	
246.53	5420.3	
246.74	5883.1	
246.95	3090.4	
247.16	4753.3	
247.38	5175.2	
247.59	3076	
247.8	3684.3	
248.01	4839.4	
248.22	5159.5	
248.43	3302.7	
248.64	3567.6	
248.86	4650.3	
249.07	4969.1	
249.28	3244	
249.49	3745.7	
249.7	5750	
249.91	5850.4	
250.12	3082.2	
250.34	3132.7	
250.55	5301.5	
250.76	5204.6	
250.97	3852.2	
251.18	3811.3	
251.39	5793.7	
251.6	5384.1	
251.81	3917.1	
252.03	3872.7	
252.24	4948.6	
252.45	5657.9	
252.66	3179.1	
252.87	4007.2	
253.08	5239.4	
253.29	6754.9	
253.5	3262.4	
253.72	4405.2	
253.93	5077.6	
254.14	6166.4	
254.35	3444.7	
254.56	3596.2	
254.77	5429.2	
254.98	4848.2	
255.19	3435.8	
255.41	4386.1	
255.62	5302.9	
255.83	5784.1	
256.04	3951.2	
256.25	3823.6	
256.46	6310.5	
256.67	4934.2	
256.88	3781.2	
257.09	4169.7	
257.31	4855.1	
257.52	4903.5	
257.73	4750.6	
257.94	3440.6	
258.15	5089.9	
258.36	5158.8	
258.57	4356.7	
258.78	2775.7	
258.99	5613.5	
259.2	4995.7	
259.41	3474	
259.63	3604.4	
259.84	5948	
260.05	6390.3	
260.26	4571.7	
260.47	3405.8	
260.68	5735	
260.89	5152.7	
261.1	4216.8	
261.31	3349.8	
261.52	5770.5	
261.73	6122.1	
261.95	4513.7	
262.16	3908.9	
262.37	5876.3	
262.58	5960.3	
262.79	4461.2	
263	3577.1	
263.21	5223.7	
263.42	5084.4	
263.63	3630.4	
263.84	3517.7	
264.05	5668.1	
264.26	6045.6	
264.47	4268.6	
264.69	3905.5	
264.9	5933.6	
265.11	5401.2	
265.32	3360	
265.53	3466.5	
265.74	5261.9	
265.95	4638.6	
266.16	3735.5	
266.37	4123.9	
266.58	5341.1	
266.79	5050.3	
267	3474	
267.21	3229	
267.42	4818.2	
267.63	5229.1	
267.84	3690.4	
268.06	3115	
268.27	5588.2	
268.48	5840.1	
268.69	3596.9	
268.9	4188.8	
269.11	5813.5	
269.32	4759.5	
269.53	3660.4	
269.74	3392.1	
269.95	5485.8	
270.16	4602.5	
270.37	3667.9	
270.58	4174.4	
270.79	5057.8	
271	5684.5	
271.21	3906.2	
271.42	3674.7	
271.63	5352	
271.84	4821.6	
272.05	2988.7	
272.26	3366.9	
272.47	5243.5	
272.68	5361.6	
272.89	3559.4	
273.11	4005.1	
273.32	4984.1	
273.53	6035.4	
273.74	3986	
273.95	3901.4	
274.16	5699.5	
274.37	5255.1	
274.58	4011.3	
274.79	3231.7	
275	5300.8	
275.21	5870.2	
275.42	4747.9	
275.63	4128.7	
275.84	5459.2	
276.05	6819.7	
276.26	3872	
276.47	3631	
276.68	5107	
276.89	6065.4	
277.1	4107.5	
277.31	3217.4	
277.52	5382.7	
277.73	5595.7	
277.94	3244.7	
278.15	3515	
278.36	5382.7	
278.57	4894.6	
278.78	3502	
278.99	4006.5	
279.2	4824.3	
279.41	4792.9	
279.62	4660.5	
279.83	3252.2	
280.04	6310.5	
280.25	4780	
280.46	4579.3	
280.67	3673.4	
280.88	4830.5	
281.09	5850.4	
281.3	3891.1	
281.51	4831.2	
281.72	4898.1	
281.93	5667.4	
282.14	3414	
282.35	3734.1	
282.56	5677	
282.77	5638.1	
282.98	3553.9	
283.19	4365.6	
283.4	6905.1	
283.61	5145.2	
283.82	3291.8	
284.03	4505.5	
284.24	5327.4	
284.45	5783.5	
284.66	4500.8	
284.87	4343.1	
285.08	5708.4	
285.29	5908.4	
285.5	3130.7	
285.71	3573	
285.92	5782.8	
286.12	6435.4	
286.33	4500.1	
286.54	3623.5	
286.75	5612.8	
286.96	5046.9	
287.17	3304.1	
287.38	4416.1	
287.59	4859.8	
287.8	4797.7	
288.01	3653.6	
288.22	4077.5	
288.43	5651	
288.64	4755.4	
288.85	4292.5	
289.06	4015.4	
289.27	5653.8	
289.48	6115.2	
289.69	4525.3	
289.9	4100.7	
290.11	5791.7	
290.32	4923.3	
290.53	4275.5	
290.74	4013.3	
290.94	5620.3	
291.15	5658.5	
291.36	3531.4	
291.57	4082.3	
291.78	5012.7	
291.99	4703.5	
292.2	3308.2	
292.41	3928.7	
292.62	5698.8	
292.83	5499.5	
293.04	4823.6	
293.25	3345.7	
293.46	4975.9	
293.67	5749.3	
293.88	3387.3	
294.09	3319.1	
294.29	4790.9	
294.5	5328.8	
294.71	3702.7	
294.92	3508.9	
295.13	5001.1	
295.34	6234	
295.55	3147	
295.76	3375.1	
295.97	5588.2	
296.18	6228.6	
296.39	3282.2	
296.6	3478.1	
296.81	5298.1	
297.01	5589.6	
297.22	3589.4	
297.43	3438.5	
297.64	4858.5	
297.85	4844.1	
298.06	2953.2	
298.27	3098.6	
298.48	5276.3	
298.69	4940.4	
298.9	3686.3	
299.11	3358	
299.31	4790.9	
299.52	4752.7	
299.73	4012	
299.94	3900.7	
300.15	5261.9	
300.36	4855.1	
300.57	3898.6	
300.78	3887.7	
300.99	5128.8	
301.2	5331.5	
301.4	3450.1	
301.61	3729.4	
301.82	5499.5	
302.03	5593.7	
302.24	4140.3	
302.45	3265.8	
302.66	5524.7	
302.87	5885.9	
303.08	3470.6	
303.29	4711	
303.49	4999.1	
303.7	5236	
303.91	3078.8	
304.12	4490.5	
304.33	4760.2	
304.54	5277.6	
304.75	3483.6	
304.96	3293.1	
305.16	5464.7	
305.37	6129.6	
305.58	3015.3	
305.79	3110.9	
306	5520.6	
306.21	4693.9	
306.42	3460.4	
306.63	5183.4	
306.83	5006.6	
307.04	5709.7	
307.25	3777.8	
307.46	3757.3	
307.67	4560.8	
307.88	5584.8	
308.09	3425.6	
308.29	3493.8	
308.5	5304.2	
308.71	5741.8	
308.92	3700.7	
309.13	3349.1	
309.34	5132.2	
309.55	5168.4	
309.75	4242	
309.96	3943.7	
310.17	5620.3	
310.38	4919.2	
310.59	4084.3	
310.8	3232.4	
311.01	6195.1	
311.21	5132.9	
311.42	3265.8	
311.63	3449.5	
311.84	5044.8	
312.05	5310.4	
312.26	3822.2	
312.46	4156.7	
312.67	4974.5	
312.88	4755.4	
313.09	3342.3	
313.3	3268.6	
313.51	5915.9	
313.71	6253.8	
313.92	3360	
314.13	3485	
314.34	5394.3	
314.55	5177.3	
314.76	4245.4	
314.96	3704.1	
315.17	5302.2	
315.38	5494.7	
315.59	3321.8	
315.8	3205.8	
316.01	6025.8	
316.21	6049	
316.42	3247.4	
316.63	3691.1	
316.84	5088.5	
317.05	5783.5	
317.26	3942.3	
317.46	3553.9	
317.67	5158.2	
317.88	5560.2	
318.09	4182	
318.3	3099.9	
318.5	5001.1	
318.71	5479.7	
318.92	5377.3	
319.13	3870	
319.34	5646.9	
319.54	5814.2	
319.75	3100.6	
319.96	2992.1	
320.17	5504.9	
320.38	5782.1	
320.58	3072	
320.79	3649.5	
321	5709.1	
321.21	5792.3	
321.42	3717.1	
321.62	3060.3	
321.83	4868	
322.04	5221	
322.25	3489.7	
322.46	3386.7	
322.66	5254.4	
322.87	5497.4	
323.08	4074.8	
323.29	3299.3	
323.5	6210.1	
323.7	4775.9	
323.91	4511	
324.12	4156.7	
324.33	5285.1	
324.53	5502.9	
324.74	3911.6	
324.95	4149.9	
325.16	4658.4	
325.37	5075.5	
325.57	3371.6	
325.78	3429.7	
325.99	5263.3	
326.2	4724.7	
326.4	4781.3	
326.61	3099.9	
326.82	5139.7	
327.03	5311.1	
327.24	4691.9	
327.44	4406.5	
327.65	5446.2	
327.86	4452.3	
328.07	3894.6	
328.27	3220.8	
328.48	5826.5	
328.69	4808.6	
328.9	4786.1	
329.1	3528.7	
329.31	5091.9	
329.52	5962.3	
329.73	3330	
329.93	3745.7	
330.14	5257.8	
330.35	5437.4	
330.56	5423.7	
330.76	4112.3	
330.97	5068.7	
331.18	5319.9	
331.39	3693.2	
331.59	3069.2	
331.8	5748.6	
332.01	5868.1	
332.22	3416	
332.42	3904.8	
332.63	5315.2	
332.84	4962.9	
333.05	3775.1	
333.25	3409.9	
333.46	4967.7	
333.67	5212.1	
333.88	3493.2	
334.08	3883.6	
334.29	6956.3	
334.5	5842.2	
334.7	3247.4	
334.91	4733.5	
335.12	4820.2	
335.33	5588.9	
335.53	3684.3	
335.74	5397.1	
335.95	5048.2	
336.16	4897.4	
336.36	3760.1	
336.57	4204.5	
336.78	4788.2	
336.98	5764.3	
337.19	4564.2	
337.4	3626.3	
337.61	6205.3	
337.81	4747.2	
338.02	3391.4	
338.23	4429.8	
338.43	5929.6	
338.64	4896.7	
338.85	3340.9	
339.05	4431.8	
339.26	6021.7	
339.47	4697.4	
339.68	3392.8	
339.88	4926	
340.09	5459.9	
340.3	5668.1	
340.5	3900	
340.71	2976.4	
340.92	4772.4	
341.13	5935	
341.33	3254.9	
341.54	3902.7	
341.75	5448.3	
341.95	5065.3	
342.16	3743	
342.37	4097.3	
342.57	4852.3	
342.78	5153.4	
342.99	4095.3	
343.19	2996.2	
343.4	5604.6	
343.61	5446.2	
343.81	3565.5	
344.02	3290.4	
344.23	5597.8	
344.43	5953.4	
344.64	4143	
344.85	4062.5	
345.06	5449.6	
345.26	5754.8	
345.47	3809.2	
345.68	4558.1	
345.88	4696.7	
346.09	5599.1	
346.3	3913	
346.5	2977.7	
346.71	5144.5	
346.92	4934.2	
347.12	3090.4	
347.33	3907.5	
347.54	5726.8	
347.74	6106.4	
347.95	3834.5	
348.16	2874	
348.36	5018.9	
348.57	4838.7	
348.78	3833.1	
348.98	4117.8	
349.19	5140.4	
349.39	4728.1	
349.6	3117	
349.81	3430.3	
350.01	5418.9	
350.22	4975.2	
350.43	3732.1	
350.63	4373.8	
350.84	5209.3	
351.05	4999.8	
351.25	3356.6	
351.46	3065.8	
351.67	5625.8	
351.87	4897.4	
352.08	3577.8	
352.29	4005.8	
352.49	5674.2	
352.7	5664	
352.9	3248.1	
353.11	4057.7	
353.32	6236.7	
353.52	5017.5	
353.73	3227.6	
353.94	4117.8	
354.14	5475.6	
354.35	5277.6	
354.55	3329.3	
354.76	3713	
354.97	5401.2	
355.17	5277.6	
355.38	3154.6	
355.59	4339	
355.79	4886.5	
356	5255.1	
356.2	3627	
356.41	3254.2	
356.62	4685.8	
356.82	5091.9	
357.03	3994.2	
357.24	3536.2	
357.44	4896	
357.65	5018.9	
357.85	4677.6	
358.06	3665.2	
358.27	4696	
358.47	4844.8	
358.68	3110.2	
358.88	3887.7	
359.09	5446.2	
359.3	5722.7	
359.5	4566.3	
359.71	4016.7	
359.91	6206.7	
360.12	5505.6	
360.33	3889.1	
360.53	4280.9	
360.74	4872.8	
360.94	4965.6	
361.15	4063.2	
361.36	3372.3	
361.56	5618.9	
361.77	5068.7	
361.97	4520.5	
362.18	3534.1	
362.38	5616.9	
362.59	4777.2	
362.8	3289	
363	3195.5	
363.21	4514.4	
363.41	5153.4	
363.62	3775.1	
363.83	4728.1	
364.03	5253.7	
364.24	6152.1	
364.44	4783.4	
364.65	4721.9	
364.85	5026.4	
365.06	4744.5	
365.27	3457	
365.47	3448.1	
365.68	5919.3	
365.88	5045.5	
366.09	3822.9	
366.29	3500	
366.5	5300.1	
366.71	5616.2	
366.91	4657.1	
367.12	4014.7	
367.32	6188.3	
367.53	5528.8	
367.73	4015.4	
367.94	4782.7	
368.14	5455.8	
368.35	6264.7	
368.56	3904.8	
368.76	3295.2	
368.97	5595.7	
369.17	7106.5	
369.38	3442	
369.58	3701.4	
369.79	4713.1	
369.99	5907	
370.2	4590.2	
370.4	3776.5	
370.61	5302.9	
370.82	6442.9	
371.02	3708.9	
371.23	3125.2	
371.43	4600.4	
371.64	5851	
371.84	3721.8	
372.05	4766.3	
372.25	7006.8	
372.46	5545.2	
372.66	3694.5	
372.87	3670	
373.07	5547.9	
373.28	7075	
373.48	4578.6	
373.69	4361.5	
373.9	5120.6	
374.1	5137	
374.31	4557.4	
374.51	4137.6	
374.72	5858.6	
374.92	4823.6	
375.13	4609.3	
375.33	3973.1	
375.54	5418.9	
375.74	4875.5	
375.95	3981.9	
376.15	5118.6	
376.36	5502.9	
376.56	5301.5	
376.77	4018.8	
376.97	4390.8	
377.18	6413.6	
377.38	5503.6	
377.59	4807.3	
377.79	3566.9	
378	5332.2	
378.2	5698.1	
378.41	3646.1	
378.61	3519.8	
378.82	5742.5	
379.02	4949.3	
379.23	3719.8	
379.43	4805.2	
379.64	5896.8	
379.84	5446.9	
380.05	3605.1	
380.25	3538.2	
380.46	5591	
380.66	5171.8	
380.87	4853.7	
381.07	5081.7	
381.28	6182.8	
381.48	5589.6	
381.69	3615.3	
381.89	3629.7	
382.1	4625.7	
382.3	5723.4	
382.51	4648.2	
382.71	5457.8	
382.91	5615.5	
383.12	6113.2	
383.32	3979.2	
383.53	4191.5	
383.73	5471.5	
383.94	5244.8	
384.14	4075.5	
384.35	3308.8	
384.55	5150	
384.76	5616.9	
384.96	3984	
385.17	4282.3	
385.37	5617.6	
385.58	4919.9	
385.78	4296	
385.98	3276.8	
386.19	5139.7	
386.39	5486.5	
386.6	3764.2	
386.8	3949.8	
387.01	5583.4	
387.21	5567.1	
387.42	4341.7	
387.62	4883	
387.83	4987.5	
388.03	5500.8	
388.23	3972.4	
388.44	4753.3	
388.64	4721.9	
388.85	4768.4	
389.05	4275.5	
389.26	4878.9	
389.46	6508.4	
389.67	5930.9	
389.87	4274.1	
390.07	4326	
390.28	5219.6	
390.48	4850.3	
390.69	3616.7	
390.89	3890.5	
391.1	5001.1	
391.3	5917.3	
391.5	4929.5	
391.71	5454.4	
391.91	5616.2	
392.12	6493.4	
392.32	5056.4	
392.53	4262.5	
392.73	5142.4	
392.93	5306.3	
393.14	4009.9	
393.34	5049.6	
393.55	5620.3	
393.75	5266.7	
393.95	4012	
394.16	4018.1	
394.36	5052.3	
394.57	5664.7	
394.77	3509.5	
394.98	3939.6	
395.18	4937.7	
395.38	5008	
395.59	4741	
395.79	3738.9	
396	5122.7	
396.2	5532.2	
396.4	4442.7	
396.61	4405.2	
396.81	5721.3	
397.02	4995.7	
397.22	4658.4	
397.42	4771.1	
397.63	5717.2	
397.83	4923.3	
398.04	3687	
398.24	4148.5	
398.44	5483.1	
398.65	4536.9	
398.85	3553.2	
399.05	3620.1	
399.26	4863.2	
399.46	6470.2	
399.67	4038.6	
399.87	3717.1	
400.07	5226.4	
400.28	5583.4	
400.48	3799.7	
400.69	4787.5	
400.89	5810.1	
401.09	6184.2	
401.3	3698.6	
401.5	4729.4	
401.7	6337.8	
401.91	6590.4	
402.11	4020.8	
402.32	4212	
402.52	5881.8	
402.72	5695.4	
402.93	4485.1	
403.13	3405.1	
403.33	6483.2	
403.54	5348.6	
403.74	4185.4	
403.94	5105.6	
404.15	5382.1	
404.35	6474.3	
404.56	3952.6	
404.76	5678.3	
404.96	5786.2	
405.17	5617.6	
405.37	5081	
405.57	4390.8	
405.78	5763.7	
405.98	5299.5	
406.18	3984	
406.39	4801.1	
406.59	5792.3	
406.79	5410.7	
407	3792.8	
407.2	3908.2	
407.4	5743.9	
407.61	5941.8	
407.81	3837.2	
408.01	6025.8	
408.22	4789.5	
408.42	6658.6	
408.62	4762.2	
408.83	4314.4	
409.03	5291.3	
409.23	5159.5	
409.44	4397	
409.64	4605.2	
409.84	6183.5	
410.05	6066.8	
410.25	4432.5	
410.45	4255	
410.66	5516.5	
410.86	7864.9	
411.06	4599.1	
411.27	4472.8	
411.47	7598	
411.67	5720.7	
411.88	4667.3	
412.08	4906.3	
412.28	6296.1	
412.49	6744.6	
412.69	4379.9	
412.89	4484.4	
413.09	6574	
413.3	6412.9	
413.5	4591.5	
413.7	4162.2	
413.91	5785.5	
414.11	6591	
414.31	4384.7	
414.52	4771.1	
414.72	6311.8	
414.92	6173.9	
415.12	4410.6	
415.33	4945.8	
415.53	6515.3	
415.73	6647	
415.94	5234.6	
416.14	4652.3	
416.34	5603.9	
416.55	5279	
416.75	5779.4	
416.95	5312.4	
417.15	6524.1	
417.36	7247.1	
417.56	5923.4	
417.76	4968.4	
417.97	6784.2	
418.17	6493.4	
418.37	4693.9	
418.57	4670.1	
418.78	6305	
418.98	6029.2	
419.18	5508.4	
419.38	5485.8	
419.59	6112.5	
419.79	5733.6	
419.99	4659.1	
420.2	4964.3	
420.4	6554.2	
420.6	6708.5	
420.8	4502.1	
421.01	4386.1	
421.21	6390.3	
421.41	6552.1	
421.61	4929.5	
421.82	4668	
422.02	5948.7	
422.22	6801.3	
422.42	5405.3	
422.63	5091.3	
422.83	6077.7	
423.03	7162.4	
423.23	5084.4	
423.44	4204.5	
423.64	6111.1	
423.84	5943.2	
424.04	4557.4	
424.25	4269.3	
424.45	7055.9	
424.65	6930.3	
424.85	4139.6	
425.06	4655.7	
425.26	6974.7	
425.46	5996.5	
425.66	5120.6	
425.87	4820.9	
426.07	6718	
426.27	6654.5	
426.47	4923.3	
426.67	4422.9	
426.88	7074.4	
427.08	6557.6	
427.28	5182.7	
427.48	4303.5	
427.69	5520	
427.89	6128.2	
428.09	5122.7	
428.29	4400.4	
428.5	6830.7	
428.7	6335	
428.9	4220.2	
429.1	4730.8	
429.3	6253.8	
429.51	6602.7	
429.71	4555.4	
429.91	5321.3	
430.11	6505	
430.31	6731.7	
430.52	4816.1	
430.72	5079.6	
430.92	7116	
431.12	6556.2	
431.32	4476.2	
431.53	4902.8	
431.73	5558.2	
431.93	7204.8	
432.13	4387.4	
432.33	4323.3	
432.54	6032.6	
432.74	6279.1	
432.94	4184	
433.14	5263.3	
433.34	6445.6	
433.55	6032.6	
433.75	5091.3	
433.95	6816.3	
434.15	6330.3	
434.35	6107.7	
434.56	4408.6	
434.76	3958.7	
434.96	6253.8	
435.16	6441.5	
435.36	4304.8	
435.56	5375.9	
435.77	5955.5	
435.97	6170.5	
436.17	5986.2	
436.37	5322	
436.57	5927.5	
436.78	5881.1	
436.98	6924.2	
437.18	5865.4	
437.38	6530.3	
437.58	6152.1	
437.78	6076.3	
437.99	4802.5	
438.19	6649.1	
438.39	7352.9	
438.59	4754.7	
438.79	4195.6	
438.99	7228.6	
439.2	6151.4	
439.4	4323.9	
439.6	4305.5	
439.8	6404.7	
440	7359	
440.2	5213.4	
440.4	5330.9	
440.61	6721.4	
440.81	7174.7	
441.01	4438.6	
441.21	5262.6	
441.41	7064.1	
441.61	6793.1	
441.81	5551.4	
442.02	6497.5	
442.22	7563.1	
442.42	6882.5	
442.62	4552.6	
442.82	4674.8	
443.02	7164.5	
443.22	6299.6	
443.43	4950.6	
443.63	4576.5	
443.83	6115.9	
444.03	6122.7	
444.23	5700.9	
444.43	5276.3	
444.63	6441.5	
444.83	7620.5	
445.04	4650.3	
445.24	5836	
445.44	6866.8	
445.64	6924.2	
445.84	5462.6	
446.04	5456.5	
446.24	6280.4	
446.44	7293.5	
446.65	4672.8	
446.85	5051.7	
447.05	6350.8	
447.25	7181.5	
447.45	5165	
447.65	4512.4	
447.85	6494.1	
448.05	6165.1	
448.25	5467.4	
448.46	5431.9	
448.66	6531.7	
448.86	6227.2	
449.06	4376.5	
449.26	5500.8	
449.46	6807.4	
449.66	5992.4	
449.86	4945.8	
450.06	5029.1	
450.26	6154.1	
450.47	6675.7	
450.67	5315.8	
450.87	5563	
451.07	6860	
451.27	6606.7	
451.47	4700.8	
451.67	5171.1	
451.87	6237.4	
452.07	7421.2	
452.27	4831.8	
452.47	4775.2	
452.67	6657.3	
452.88	6986.3	
453.08	4299.4	
453.28	6126.8	
453.48	7681.2	
453.68	6560.3	
453.88	4735.6	
454.08	4980	
454.28	6868.9	
454.48	6556.9	
454.68	5428.5	
454.88	5894.1	
455.08	6993.1	
455.28	6744.6	
455.48	4663.9	
455.68	5239.4	
455.89	7360.4	
456.09	7081.9	
456.29	4934.9	
456.49	4994.3	
456.69	7360.4	
456.89	6761	
457.09	5469.4	
457.29	5745.2	
457.49	6929.6	
457.69	7032	
457.89	5324	
458.09	4690.5	
458.29	6565.1	
458.49	7274.4	
458.69	5728.2	
458.89	5068.7	
459.09	7513.3	
459.29	7620.5	
459.49	5257.1	
459.69	5987.6	
459.9	7187.7	
460.1	6691.4	
460.3	5182.7	
460.5	4883	
460.7	7145.4	
460.9	6905.1	
461.1	4653.7	
461.3	5886.5	
461.5	7706.5	
461.7	7331.7	
461.9	5055.1	
462.1	5458.5	
462.3	6840.2	
462.5	7419.8	
462.7	5038	
462.9	5163.6	
463.1	8367.3	
463.3	7996	
463.5	5339.1	
463.7	6287.9	
463.9	6993.8	
464.1	7399.3	
464.3	5452.4	
464.5	5692	
464.7	7656.7	
464.9	7342.7	
465.1	6864.8	
465.3	5972.6	
465.5	8057.4	
465.7	7967.3	
465.9	6223.8	
466.1	6120.7	
466.3	7716.1	
466.5	7621.9	
466.7	6921.5	
466.9	5855.8	
467.1	7641.7	
467.3	8316.1	
467.5	6806.8	
467.7	5787.6	
467.9	8693.6	
468.1	9477.3	
468.3	6493.4	
468.5	6956.9	
468.7	7557.7	
468.9	7479.2	
469.1	6087.2	
469.3	6736.5	
469.5	9348.3	
469.7	7174.7	
469.9	6534.4	
470.1	5997.8	
470.3	7587	
470.5	7669	
470.7	7090.8	
470.9	6031.3	
471.1	7462.8	
471.3	7836.2	
471.5	5884.5	
471.69	7621.2	
471.89	7284.6	
472.09	6776	
472.29	6554.9	
472.49	6881.2	
472.69	7092.1	
472.89	7826.7	
473.09	5772.5	
473.29	5941.2	
473.49	7250.5	
473.69	7365.9	
473.89	6823.8	
474.09	6062.7	
474.29	8585.8	
474.49	8262.2	
474.69	6735.8	
474.89	6141.2	
475.09	7428	
475.29	7300.3	
475.49	5682.4	
475.69	5858.6	
475.88	8904.6	
476.08	7659.4	
476.28	5610.1	
476.48	6032	
476.68	8197.3	
476.88	7934.5	
477.08	5885.2	
477.28	6182.8	
477.48	7582.9	
477.68	7972.1	
477.88	5634.6	
478.08	5999.9	
478.28	8381	
478.48	7576.1	
478.67	6065.4	
478.87	5519.3	
479.07	8231.5	
479.27	7675.1	
479.47	6326.2	
479.67	6215.6	
479.87	8130.4	
480.07	8545.5	
480.27	5599.8	
480.47	7077.1	
480.67	7723.6	
480.87	8379.6	
481.06	5879.7	
481.26	6694.8	
481.46	7722.2	
481.66	7583.6	
481.86	6259.3	
482.06	7248.4	
482.26	7493.5	
482.46	8591.9	
482.66	6236.1	
482.86	5909.1	
483.05	7783	
483.25	7150.1	
483.45	8511.4	
483.65	6275.7	
483.85	7426.6	
484.05	7703.1	
484.25	6648.4	
484.45	7066.9	
484.65	8461.5	
484.84	8526.4	
485.04	6133.7	
485.24	6255.9	
485.44	8751	
485.64	7179.5	
485.84	5494.7	
486.04	6846.4	
486.24	7559.7	
486.44	7864.9	
486.63	5442.1	
486.83	6316.6	
487.03	7433.4	
487.23	7714	
487.43	5595.7	
487.63	7849.9	
487.83	7659.4	
488.02	8551	
488.22	6603.3	
488.42	7096.2	
488.62	8615.8	
488.82	7522.9	
489.02	6229.2	
489.22	6309.1	
489.41	8449.2	
489.61	8137.9	
489.81	6021	
490.01	6026.5	
490.21	8458.8	
490.41	9036.3	
490.61	6146	
490.8	6175.3	
491	7946.8	
491.2	7401.4	
491.4	6764.4	
491.6	5966.4	
491.8	8000.7	
491.99	8178.9	
492.19	5784.1	
492.39	6092	
492.59	8417.8	
492.79	8341.4	
492.99	6766.5	
493.18	5983.5	
493.38	8444.5	
493.58	9237	
493.78	6595.1	
493.98	6232	
494.18	8251.9	
494.37	7699.7	
494.57	6826.6	
494.77	6817.7	
494.97	8389.8	
495.17	8721.6	
495.37	6382.2	
495.56	6743.3	
495.76	8923	
495.96	8545.5	
496.16	7669	
496.36	6607.4	
496.55	8751.7	
496.75	8304.5	
496.95	7036.1	
497.15	6929.6	
497.35	8782.4	
497.54	8806.9	
497.74	6707.1	
497.94	8142.7	
498.14	9400.2	
498.34	9181.7	
498.53	6365.8	
498.73	7141.3	
498.93	8232.8	
499.13	8782.4	
499.33	6966.5	
499.52	7443	
499.72	8711.4	
499.92	9093.7	
500.12	6751.5	
500.32	6974	
500.51	8927.8	
500.71	8873.8	
500.91	7634.8	
501.11	7391.1	
501.31	8947.6	
501.5	9316.2	
501.7	7996	
501.9	7147.4	
502.1	8736	
502.29	9025.4	
502.49	7495.6	
502.69	7854.6	
502.89	9000.8	
503.09	9029.5	
503.28	6582.9	
503.48	6716	
503.68	8275.8	
503.88	8341.4	
504.07	7658.7	
504.27	7223.9	
504.47	8634.9	
504.67	8736.6	
504.86	7546.8	
505.06	7200.7	
505.26	8383	
505.46	10107	
505.65	7165.8	
505.85	7372.7	
506.05	8361.2	
506.25	8761.2	
506.44	6509.1	
506.64	7377.5	
506.84	8202.1	
507.04	9131.9	
507.23	6805.4	
507.43	7300.3	
507.63	10032	
507.83	8430.8	
508.02	7238.9	
508.22	6993.1	
508.42	10378	
508.62	8311.3	
508.81	7193.8	
509.01	7690.8	
509.21	8122.9	
509.4	8449.9	
509.6	7361.8	
509.8	6742.6	
510	8338	
510.19	9674.6	
510.39	6709.8	
510.59	6830.7	
510.79	8174.1	
510.98	9545.6	
511.18	6929	
511.38	6997.2	
511.57	9113.5	
511.77	8962.6	
511.97	7698.3	
512.17	6747.4	
512.36	8992.6	
512.56	8968.1	
512.76	6868.9	
512.95	6516	
513.15	9117.6	
513.35	7859.4	
513.55	7644.4	
513.74	6804.7	
513.94	9032.2	
514.14	8393.9	
514.33	7666.2	
514.53	7406.1	
514.73	8452	
514.92	8703.9	
515.12	6978.1	
515.32	6779.5	
515.51	8699.1	
515.71	9192	
515.91	8523.6	
516.11	6860	
516.3	10432	
516.5	8416.5	
516.7	7370	
516.89	8039.6	
517.09	8581.7	
517.29	8535.9	
517.48	7670.3	
517.68	7177.4	
517.88	8304.5	
518.07	8886.8	
518.27	7669.6	
518.47	6703	
518.66	9390.6	
518.86	8150.9	
519.06	6573.3	
519.25	6984.3	
519.45	8391.9	
519.65	9775.6	
519.84	7604.8	
520.04	8346.8	
520.24	10204	
520.43	9044.5	
520.63	7421.2	
520.83	7185.6	
521.02	8411.7	
521.22	9066.4	
521.42	7655.3	
521.61	8131.8	
521.81	8551.6	
522.01	8773.5	
522.2	7516	
522.4	7163.8	
522.6	9181.7	
522.79	8023.3	
522.99	7206.1	
523.18	6672.3	
523.38	8871.1	
523.58	8874.5	
523.77	8398.7	
523.97	6665.5	
524.17	10645	
524.36	9906	
524.56	7963.2	
524.76	7656.7	
524.95	9005.6	
525.15	8650.6	
525.34	7446.4	
525.54	7520.8	
525.74	9277.3	
525.93	8393.3	
526.13	8583	
526.33	7488.1	
526.52	9725.8	
526.72	9254.1	
526.91	8662.9	
527.11	8026.7	
527.31	9766.1	
527.5	10018	
527.7	7862.8	
527.89	6985.6	
528.09	8692.9	
528.29	9155.8	
528.48	8129.8	
528.68	8004.8	
528.87	9593.4	
529.07	9697.1	
529.27	7898.3	
529.46	7533.8	
529.66	9403.6	
529.85	9936.1	
530.05	7543.4	
530.25	8243.1	
530.44	10765	
530.64	9389.9	
530.83	7778.2	
531.03	7991.2	
531.23	9742.2	
531.42	9588.6	
531.62	8573.5	
531.81	7902.4	
532.01	9829.6	
532.21	10195	
532.4	7722.2	
532.6	8101.8	
532.79	10682	
532.99	9916.3	
533.18	8189.1	
533.38	9075.9	
533.58	9656.2	
533.77	10349	
533.97	8164.6	
534.16	9015.2	
534.36	10533	
534.55	9641.8	
534.75	9005.6	
534.95	8152.3	
535.14	10556	
535.34	9783.8	
535.53	7970.7	
535.73	9773.6	
535.92	10989	
536.12	9920.4	
536.31	8012.3	
536.51	9269.8	
536.71	10305	
536.9	9729.2	
537.1	8224.6	
537.29	8297	
537.49	10429	
537.68	9560.6	
537.88	8776.2	
538.07	7939.3	
538.27	9789.3	
538.46	10814	
538.66	7846.5	
538.86	8343.4	
539.05	9883.5	
539.25	10348	
539.44	8645.8	
539.64	8173.4	
539.83	9837.8	
540.03	10834	
540.22	8182.3	
540.42	8315.4	
540.61	10087	
540.81	10251	
541	8701.1	
541.2	9241.8	
541.39	9677.3	
541.59	10140	
541.78	8967.4	
541.98	8118.8	
542.18	9445.9	
542.37	9417.9	
542.57	8453.3	
542.76	9004.9	
542.96	9486.9	
543.15	10056	
543.35	8568.7	
543.54	8009.6	
543.74	10361	
543.93	9946.3	
544.13	8467	
544.32	9450.7	
544.52	10265	
544.71	9443.2	
544.91	7644.4	
545.1	8789.9	
545.3	9547.6	
545.49	10122	
545.69	7619.8	
545.88	8185.7	
546.08	11159	
546.27	10626	
546.47	8656.1	
546.66	7989.1	
546.86	10350	
547.05	10860	
547.24	8205.5	
547.44	8044.4	
547.63	9465	
547.83	10434	
548.02	8507.9	
548.22	8676.6	
548.41	9244.5	
548.61	10460	
548.8	8084	
549	7995.3	
549.19	9865.7	
549.39	10335	
549.58	7799.3	
549.78	8239	
549.97	10264	
550.17	9750.4	
550.36	9164.7	
550.55	10126	
550.75	9723.8	
550.94	10613	
551.14	7979.6	
551.33	8338.6	
551.53	9119.6	
551.72	9978.4	
551.92	8284	
552.11	8068.3	
552.31	10127	
552.5	9990.7	
552.69	9669.1	
552.89	7786.4	
553.08	10161	
553.28	9816.6	
553.47	8120.2	
553.67	9171.5	
553.86	10626	
554.06	9030.9	
554.25	7443	
554.44	7958.4	
554.64	11359	
554.83	10899	
555.03	7971.4	
555.22	8340.7	
555.42	10309	
555.61	10006	
555.8	8142	
556	8426.7	
556.19	9179.7	
556.39	10424	
556.58	8064.9	
556.78	8159.1	
556.97	9849.4	
557.16	9639.1	
557.36	9349	
557.55	7875.8	
557.75	8978.3	
557.94	10694	
558.13	7914	
558.33	7708.6	
558.52	10410	
558.72	9439.1	
558.91	7794.6	
559.1	8091.5	
559.3	9133.3	
559.49	8881.4	
559.69	7463.5	
559.88	8340.7	
560.07	9873.3	
560.27	10241	
560.46	8585.8	
560.66	8717.5	
560.85	9678.7	
561.04	8908	
561.24	7788.4	
561.43	8000.7	
561.63	9153.1	
561.82	9432.3	
562.01	9175.6	
562.21	8358.4	
562.4	9752.4	
562.59	10612	
562.79	8075.8	
562.98	7784.3	
563.18	9737.4	
563.37	11180	
563.56	8549.6	
563.76	7679.2	
563.95	9364.7	
564.14	9241.8	
564.34	8186.4	
564.53	7782.3	
564.73	9895.1	
564.92	10087	
565.11	8287.4	
565.31	7609.6	
565.5	10342	
565.69	9335.3	
565.89	7941.3	
566.08	8232.8	
566.27	10216	
566.47	10677	
566.66	8847.2	
566.85	7691.5	
567.05	9871.2	
567.24	9406.3	
567.44	7918.1	
567.63	9194	
567.82	10176	
568.02	9977.7	
568.21	7864.9	
568.4	8355	
568.6	9744.9	
568.79	9754.5	
568.98	7747.5	
569.18	7976.8	
569.37	9759.9	
569.56	11706	
569.76	8385.1	
569.95	9295.7	
570.14	10187	
570.34	10215	
570.53	7959.8	
570.72	7945.4	
570.91	10645	
571.11	9740.8	
571.3	8401.5	
571.49	9171.5	
571.69	9964.7	
571.88	9440.5	
572.07	8793.3	
572.27	8893.6	
572.46	9512.1	
572.65	10412	
572.85	8268.3	
573.04	8510.7	
573.23	10526	
573.43	10003	
573.62	7931.1	
573.81	8551	
574	10003	
574.2	9713.5	
574.39	8303.8	
574.58	8517.5	
574.78	10795	
574.97	10208	
575.16	8843.1	
575.36	9034.3	
575.55	10541	
575.74	10681	
575.93	8006.9	
576.13	9102.5	
576.32	10006	
576.51	10535	
576.71	8507.9	
576.9	9795.4	
577.09	10836	
577.28	10390	
577.48	8944.8	
577.67	8056	
577.86	9903.3	
578.05	10438	
578.25	8673.8	
578.44	8733.9	
578.63	10114	
578.83	11312	
579.02	8120.2	
579.21	9531.2	
579.4	10433	
579.6	10142	
579.79	8878.6	
579.98	10897	
580.17	10752	
580.37	10918	
580.56	8432.9	
580.75	9082.7	
580.94	11230	
581.14	11075	
581.33	9394	
581.52	8447.9	
581.71	10587	
581.91	11273	
582.1	8255.4	
582.29	8719.6	
582.48	10319	
582.68	10234	
582.87	9291	
583.06	8903.2	
583.25	10635	
583.45	10381	
583.64	9509.4	
583.83	10166	
584.02	10312	
584.21	10606	
584.41	9455.5	
584.6	8989.2	
584.79	10391	
584.98	11083	
585.18	8441	
585.37	8422.6	
585.56	9944.3	
585.75	10798	
585.94	8632.2	
586.14	9242.5	
586.33	11353	
586.52	10355	
586.71	9106	
586.91	8873.8	
587.1	9830.2	
587.29	10835	
587.48	8670.4	
587.67	8705.9	
587.87	10705	
588.06	10634	
588.25	9885.5	
588.44	9216.5	
588.63	10337	
588.83	10897	
589.02	8687.5	
589.21	8582.4	
589.4	10229	
589.59	10032	
589.78	7994.6	
589.98	8255.4	
590.17	9659.6	
590.36	10193	
590.55	7629.4	
590.74	8304.5	
590.94	11266	
591.13	9879.4	
591.32	8017.8	
591.51	7577.5	
591.7	10191	
591.89	9764	
592.09	7597.3	
592.28	8091.5	
592.47	9077.3	
592.66	11002	
592.85	7695.6	
593.05	7962.5	
593.24	9667.1	
593.43	10473	
593.62	8002.1	
593.81	8497.7	
594	9792.7	
594.19	9997.5	
594.39	7877.9	
594.58	7849.2	
594.77	10107	
594.96	10549	
595.15	7862.2	
595.34	8542.8	
595.54	10066	
595.73	9276.6	
595.92	7294.9	
596.11	8296.3	
596.3	10535	
596.49	9378.3	
596.68	8091.5	
596.88	8428.8	
597.07	10199	
597.26	9071.8	
597.45	7510.6	
597.64	8720.9	
597.83	9364.7	
598.02	9989.3	
598.22	7712	
598.41	8413.1	
598.6	9855.5	
598.79	9213.1	
598.98	7795.3	
599.17	8617.9	
599.36	9820.7	
599.55	10917	
599.74	9669.8	
599.94	9391.3	
600.13	10163	
600.32	9158.5	
600.51	7552.9	
600.7	7674.4	
600.89	10905	
601.08	10873	
601.27	7451.9	
601.47	8374.1	
601.66	10178	
601.85	10809	
602.04	8221.2	
602.23	8234.2	
602.42	9255.5	
602.61	9910.1	
602.8	7952.9	
602.99	7759.8	
603.18	9624.8	
603.37	9841.9	
603.57	8369.4	
603.76	8876.6	
603.95	10458	
604.14	10036	
604.33	7838.9	
604.52	8123.6	
604.71	9775	
604.9	9471.9	
605.09	9012.4	
605.28	8488.1	
605.47	10423	
605.66	10141	
605.86	8432.2	
606.05	7765.9	
606.24	10391	
606.43	9052	
606.62	8093.6	
606.81	8859.5	
607	10185	
607.19	9562	
607.38	7664.2	
607.57	7916.8	
607.76	9379	
607.95	8871.8	
608.14	8275.8	
608.33	8813.1	
608.52	9408.4	
608.72	10250	
608.91	7529.7	
609.1	7492.8	
609.29	9496.4	
609.48	9011.1	
609.67	8357.8	
609.86	7533.8	
610.05	9017.9	
610.24	9435	
610.43	7398.6	
610.62	7085.3	
610.81	10488	
611	10273	
611.19	7451.2	
611.38	8157.7	
611.57	9679.4	
611.76	10864	
611.95	7277.8	
612.14	7185.6	
612.33	9433.6	
612.52	9090.3	
612.71	7802.1	
612.9	7142.6	
613.09	8645.2	
613.28	10992	
613.47	7620.5	
613.66	8503.2	
613.85	9659.6	
614.04	9182.4	
614.24	7703.1	
614.43	6930.3	
614.62	9703.3	
614.81	9695.8	
615	8185	
615.19	8170	
615.38	9054.1	
615.57	9460.3	
615.76	8094.3	
615.95	8984.4	
616.14	9809.8	
616.33	9528.5	
616.52	8320.2	
616.71	8557.8	
616.9	9699.9	
617.09	9615.2	
617.28	7705.8	
617.47	8858.8	
617.66	8893.6	
617.85	8911.4	
618.04	8643.8	
618.22	8134.5	
618.41	9226.1	
618.6	10058	
618.79	7940	
618.98	7778.9	
619.17	10473	
619.36	8828.1	
619.55	7939.3	
619.74	8040.3	
619.93	9820.7	
620.12	9217.2	
620.31	8554.4	
620.5	8752.3	
620.69	10741	
620.88	10734	
621.07	9329.2	
621.26	8500.4	
621.45	10090	
621.64	10036	
621.83	8595.3	
622.02	7817.8	
622.21	10079	
622.4	9798.2	
622.59	9091.6	
622.78	8838.4	
622.97	9492.3	
623.16	10427	
623.35	8582.4	
623.54	7720.2	
623.72	9695.1	
623.91	9798.2	
624.1	8744.8	
624.29	7621.9	
624.48	10850	
624.67	10107	
624.86	8714.1	
625.05	7786.4	
625.24	10968	
625.43	9449.3	
625.62	10351	
625.81	7994.6	
626	10390	
626.19	9729.2	
626.38	8804.2	
626.56	8233.5	
626.75	9492.3	
626.94	10380	
627.13	8844.5	
627.32	7648.5	
627.51	10265	
627.7	11412	
627.89	7704.5	
628.08	8811	
628.27	9473.9	
628.46	9727.2	
628.65	7977.5	
628.83	7696.3	
629.02	10210	
629.21	9530.6	
629.4	8417.8	
629.59	8633.6	
629.78	9492.3	
629.97	10295	
630.16	8570.7	
630.35	8209.6	
630.54	10837	
630.72	10501	
630.91	8162.5	
631.1	8662.9	
631.29	10015	
631.48	10177	
631.67	8765.3	
631.86	8245.8	
632.05	9669.8	
632.24	9680.7	
632.42	7932.5	
632.61	8464.9	
632.8	9788.6	
632.99	9405	
633.18	8460.8	
633.37	8849.3	
633.56	9981.8	
633.75	9828.9	
633.93	8478.6	
634.12	8153.6	
634.31	10809	
634.5	10346	
634.69	8256.7	
634.88	8690.9	
635.07	9819.3	
635.25	10274	
635.44	9099.8	
635.63	9215.2	
635.82	9640.5	
636.01	9172.9	
636.2	9098.4	
636.39	8533.2	
636.57	10701	
636.76	10335	
636.95	8172.8	
637.14	9298.5	
637.33	10051	
637.52	10924	
637.7	7864.9	
637.89	8733.9	
638.08	9681.4	
638.27	11058	
638.46	8714.1	
638.65	9193.3	
638.83	10898	
639.02	9592	
639.21	8656.8	
639.4	9238.4	
639.59	9979.1	
639.78	9648	
639.96	8071	
640.15	8036.2	
640.34	9842.5	
640.53	9992	
640.72	7777.5	
640.91	8087.4	
641.09	9253.4	
641.28	10510	
641.47	8023.3	
641.66	8845.2	
641.85	9891	
642.03	10109	
642.22	8565.3	
642.41	8103.1	
642.6	9404.3	
642.79	8792.6	
642.97	7912	
643.16	8562.6	
643.35	9364.7	
643.54	9144.2	
643.73	7805.5	
643.91	8496.3	
644.1	9037.7	
644.29	9641.2	
644.48	7935.9	
644.67	8005.5	
644.85	9243.2	
645.04	9503.3	
645.23	7520.8	
645.42	7755.7	
645.6	9129.8	
645.79	10046	
645.98	7679.9	
646.17	6777.4	
646.36	8760.5	
646.54	9321	
646.73	8462.9	
646.92	7314.7	
647.11	8946.9	
647.29	9978.4	
647.48	7397.3	
647.67	7118.1	
647.86	10053	
648.05	10233	
648.23	7593.2	
648.42	8987.2	
648.61	9501.2	
648.8	9274.6	
648.98	7314.7	
649.17	7632.8	
649.36	8723.7	
649.55	8387.8	
649.73	7245	
649.92	7957.7	
650.11	8730.5	
650.3	9131.2	
650.48	7507.9	
650.67	7287.4	
650.86	9422.7	
651.05	8314.8	
651.23	7499.7	
651.42	7367.9	
651.61	8910.7	
651.79	8788.5	
651.98	7641	
652.17	7262.8	
652.36	9211.1	
652.54	8381.7	
652.73	7291.5	
652.92	7126.2	
653.11	9211.1	
653.29	9392	
653.48	6688	
653.67	7522.2	
653.85	9052	
654.04	10081	
654.23	7797.3	
654.42	7228	
654.6	8649.9	
654.79	9202.9	
654.98	6794.5	
655.16	7348.1	
655.35	8186.4	
655.54	7963.2	
655.73	6713.9	
655.91	6571.2	
656.1	8984.4	
656.29	7849.2	
656.47	6100.2	
656.66	7791.8	
656.85	8165.3	
657.03	8202.1	
657.22	6747.4	
657.41	6853.2	
657.59	8344.8	
657.78	8107.9	
657.97	6637.5	
658.16	7262.8	
658.34	8989.2	
658.53	9364	
658.72	8111.3	
658.9	8489.5	
659.09	8462.2	
659.28	8559.1	
659.46	6922.8	
659.65	7008.1	
659.84	8302.5	
660.02	8886.8	
660.21	6909.2	
660.4	6810.2	
660.58	9268.4	
660.77	8578.3	
660.96	7414.3	
661.14	6541.2	
661.33	9689.6	
661.52	9596.1	
661.7	6480.5	
661.89	9869.2	
662.08	8270.4	
662.26	7889.5	
662.45	6775.4	
662.64	6842.3	
662.82	8871.8	
663.01	8165.3	
663.2	6926.2	
663.38	7643.7	
663.57	8708.6	
663.75	8665	
663.94	7159.7	
664.13	8263.6	
664.31	8258.1	
664.5	8858.8	
664.69	7351.5	
664.87	7977.5	
665.06	8032.8	
665.25	8796	
665.43	8165.3	
665.62	8131.1	
665.8	8989.9	
665.99	8369.4	
666.18	7195.9	
666.36	7239.6	
666.55	8908.7	
666.74	8860.2	
666.92	6798.6	
667.11	8301.8	
667.29	8450.6	
667.48	8925	
667.67	7879.2	
667.85	7067.5	
668.04	8400.8	
668.22	8390.5	
668.41	7156.3	
668.6	7395.2	
668.78	8221.9	
668.97	8370.7	
669.15	7538.6	
669.34	6578.8	
669.53	8217.1	
669.71	8514.1	
669.9	6773.3	
670.08	7432.8	
670.27	8163.2	
670.46	8700.5	
670.64	7501.7	
670.83	7765.9	
671.01	8077.2	
671.2	8586.5	
671.38	6769.9	
671.57	6668.2	
671.76	9249.3	
671.94	9738.8	
672.13	6657.9	
672.31	7606.2	
672.5	8957.1	
672.69	8163.9	
672.87	6750.1	
673.06	7112.6	
673.24	8637.6	
673.43	8262.2	
673.61	7494.2	
673.8	7058.7	
673.98	8740	
674.17	8987.9	
674.36	7595.2	
674.54	7454.6	
674.73	8612.4	
674.91	8785.8	
675.1	7152.9	
675.28	6761	
675.47	8385.1	
675.65	8893	
675.84	7073.7	
676.03	7361.8	
676.21	8185.7	
676.4	7714.7	
676.58	7803.4	
676.77	7545.4	
676.95	9571.5	
677.14	8191.9	
677.32	6680.5	
677.51	6582.2	
677.69	8827.4	
677.88	7866.2	
678.06	6589.7	
678.25	6722.1	
678.44	8464.3	
678.62	8184.4	
678.81	6489.3	
678.99	7459.4	
679.18	9185.8	
679.36	8686.8	
679.55	7043.6	
679.73	7637.6	
679.92	8732.5	
680.1	8154.3	
680.29	8153.6	
680.47	6985.6	
680.66	8168	
680.84	8900.5	
681.03	6321.4	
681.21	7410.2	
681.4	8157.1	
681.58	8064.2	
681.77	6855.9	
681.95	6696.2	
682.14	8953.7	
682.32	9257.5	
682.51	7708.6	
682.69	6543.9	
682.88	8086.7	
683.06	8714.1	
683.25	7316	
683.43	7689.4	
683.62	8319.5	
683.8	8748.9	
683.99	7899	
684.17	7195.2	
684.36	9579.7	
684.54	8436.3	
684.73	6543.9	
684.91	6761	
685.1	8658.8	
685.28	8062.2	
685.46	7124.2	
685.65	7131	
685.83	8607.6	
686.02	7987.8	
686.2	6499.6	
686.39	6638.8	
686.57	7669	
686.76	9187.9	
686.94	6426.5	
687.13	6664.8	
687.31	8518.9	
687.5	8093.6	
687.68	6234	
687.86	7436.2	
688.05	9647.3	
688.23	7632.1	
688.42	7436.9	
688.6	6700.3	
688.79	7963.2	
688.97	8030.1	
689.16	7052.5	
689.34	6069.5	
689.52	8776.2	
689.71	8924.4	
689.89	7379.5	
690.08	6685.9	
690.26	8311.3	
690.45	8230.1	
690.63	7505.1	
690.81	6933.1	
691	8166.6	
691.18	8034.2	
691.37	6964.5	
691.55	9108	
691.74	7948.8	
691.92	9929.2	
692.1	7028.6	
692.29	6456.6	
692.47	8115.4	
692.66	7451.9	
692.84	6576	
693.02	7129	
693.21	7638.9	
693.39	8062.2	
693.58	7221.8	
693.76	6607.4	
693.94	9260.2	
694.13	9017.9	
694.31	6681.8	
694.5	7694.9	
694.68	7914	
694.86	8270.4	
695.05	7056.6	
695.23	7163.8	
695.42	8751	
695.6	10898	
695.78	7707.2	
695.97	6864.8	
696.15	8770.8	
696.34	8160.5	
696.52	6700.3	
696.7	7405.5	
696.89	8536.6	
697.07	7967.3	
697.25	7323.5	
697.44	8731.9	
697.62	8519.6	
697.81	8797.4	
697.99	7032.7	
698.17	7376.1	
698.36	7808.9	
698.54	8562.6	
698.72	7309.9	
698.91	6303.6	
699.09	8114.1	
699.28	7914.7	
699.46	6982.2	
699.64	6797.2	
699.83	7821.9	
700.01	9091.6	
700.19	7593.9	
700.38	6053.8	
700.56	8911.4	
700.74	7893.6	
700.93	6509.1	
701.11	7214.3	
701.29	8485.4	
701.48	9434.3	
701.66	6703.7	
701.84	6709.8	
702.03	8132.5	
702.21	8703.9	
702.39	6380.8	
702.58	6885.3	
702.76	8444.5	
702.94	8583	
703.13	6364.4	
703.31	8614.4	
703.49	7914.7	
703.68	8765.3	
703.86	6491.4	
704.04	7492.2	
704.23	8315.4	
704.41	8697	
704.59	6670.9	
704.78	7806.2	
704.96	9314.2	
705.14	8724.3	
705.33	6472.9	
705.51	7275.8	
705.69	8099.7	
705.87	8916.9	
706.06	7494.9	
706.24	6417	
706.42	8381	
706.61	8639.7	
706.79	7512.6	
706.97	6451.8	
707.16	7884	
707.34	8419.2	
707.52	7394.5	
707.7	6632	
707.89	7985.7	
708.07	7723.6	
708.25	7442.3	
708.44	7523.6	
708.62	7900.4	
708.8	8929.1	
708.98	7669.6	
709.17	6726.9	
709.35	8249.9	
709.53	8299.7	
709.72	6367.8	
709.9	6809.5	
710.08	8462.9	
710.26	8600.8	
710.45	7860.8	
710.63	6715.3	
710.81	8168.7	
710.99	8186.4	
711.18	7220.5	
711.36	6791.7	
711.54	8051.2	
711.72	8658.1	
711.91	6836.8	
712.09	6244.3	
712.27	8151.6	
712.45	8656.8	
712.64	7038.9	
712.82	6059.3	
713	7541.3	
713.18	7699.7	
713.37	6221	
713.55	7320.1	
713.73	8533.2	
713.91	7180.2	
714.1	6508.4	
714.28	6049.7	
714.46	8183	
714.64	7393.8	
714.83	5325.4	
715.01	6032	
715.19	7326.3	
715.37	6628.6	
715.55	5653.1	
715.74	6003.3	
715.92	7996	
716.1	6097.5	
716.28	6972	
716.47	5995.1	
716.65	6782.9	
716.83	6820.4	
717.01	5879.7	
717.19	5888.6	
717.38	8723	
717.56	6505	
717.74	6055.8	
717.92	5264	
718.1	7602.7	
718.29	6840.9	
718.47	4795.7	
718.65	5516.5	
718.83	7477.1	
719.01	7467.6	
719.2	4827.7	
719.38	5945.3	
719.56	7245.7	
719.74	8819.9	
719.92	5586.2	
720.11	6542.6	
720.29	7408.9	
720.47	6580.8	
720.65	5114.5	
720.83	5932.3	
721.02	6823.8	
721.2	6542.6	
721.38	5895.4	
721.56	5167	
721.74	6047	
721.92	6201.9	
722.11	6287.3	
722.29	6026.5	
722.47	7352.9	
722.65	6600.6	
722.83	5136.3	
723.01	6023.1	
723.2	6625.9	
723.38	6918.7	
723.56	4591.5	
723.74	5738.4	
723.92	6131.6	
724.1	7307.2	
724.29	5046.2	
724.47	6118.6	
724.65	6227.2	
724.83	6115.9	
725.01	4915.1	
725.19	5695.4	
725.37	6189	
725.56	6178.7	
725.74	4762.2	
725.92	5034.6	
726.1	6141.9	
726.28	6421.7	
726.46	5402.5	
726.64	5062.6	
726.83	6404	
727.01	6612.9	
727.19	4716.5	
727.37	5572.5	
727.55	6467.5	
727.73	6825.2	
727.91	4679.6	
728.09	4539	
728.28	6976.1	
728.46	7432.8	
728.64	5535.7	
728.82	5530.2	
729	7922.9	
729.18	7210.2	
729.36	4733.5	
729.54	6911.9	
729.72	8133.8	
729.91	6636.8	
730.09	6534.4	
730.27	5466	
730.45	6426.5	
730.63	6973.3	
730.81	5956.9	
730.99	5056.4	
731.17	7496.9	
731.35	6165.8	
731.53	5540.4	
731.71	5145.2	
731.9	7238.9	
732.08	7449.1	
732.26	5393	
732.44	5070.1	
732.62	7388.4	
732.8	7020.4	
732.98	5758.9	
733.16	4841.4	
733.34	7018.4	
733.52	5767.1	
733.7	5256.5	
733.88	5571.2	
734.07	6757.6	
734.25	6590.4	
734.43	4785.4	
734.61	6176	
734.79	7993.2	
734.97	6399.2	
735.15	4919.2	
735.33	5278.3	
735.51	6696.2	
735.69	6323.4	
735.87	6249	
736.05	5377.3	
736.23	6528.2	
736.41	6360.3	
736.59	5203.9	
736.77	5270.1	
736.95	6945.3	
737.13	6349.4	
737.32	4820.2	
737.5	5079	
737.68	7395.9	
737.86	6306.4	
738.04	4566.3	
738.22	6460.7	
738.4	6063.4	
738.58	6373.3	
738.76	5246.2	
738.94	4241.3	
739.12	6190.3	
739.3	6032.6	
739.48	5846.3	
739.66	5477	
739.84	6356.9	
740.02	6408.8	
740.2	4263.9	
740.38	4608.6	
740.56	6720.8	
740.74	5657.2	
740.92	5163.6	
741.1	5143.1	
741.28	6171.9	
741.46	5932.3	
741.64	4795	
741.82	5278.3	
742	6197.2	
742.18	6173.9	
742.36	4951.3	
742.54	4525.3	
742.72	6760.3	
742.9	5537.7	
743.08	5339.1	
743.26	4149.2	
743.44	6875	
743.62	6733.7	
743.8	5431.9	
743.98	4516.5	
744.16	6413.6	
744.34	6126.8	
744.52	5282.4	
744.7	5344.5	
744.88	6468.2	
745.06	6036.7	
745.24	5343.2	
745.42	5411.4	
745.6	6609.5	
745.78	6111.1	
745.96	4255	
746.14	4543.8	
746.32	7323.5	
746.5	6578.8	
746.68	5035.3	
746.86	4524	
747.03	6956.3	
747.21	5422.3	
747.39	5011.4	
747.57	4555.4	
747.75	6182.8	
747.93	6553.5	
748.11	4453.6	
748.29	4457.1	
748.47	7649.2	
748.65	5871.5	
748.83	5160.9	
749.01	4954	
749.19	6400.6	
749.37	5513.1	
749.55	4780	
749.73	4827.7	
749.91	6027.9	
750.09	5779.4	
750.26	4864.6	
750.44	4280.3	
750.62	5991.7	
750.8	6041.5	
750.98	4246.8	
751.16	4440	
751.34	6083.8	
751.52	5495.4	
751.7	5259.9	
751.88	4102.8	
752.06	6488.6	
752.24	6328.2	
752.42	4070.7	
752.59	4403.1	
752.77	5967.8	
752.95	7098.9	
753.13	5096.7	
753.31	4561.5	
753.49	5662	
753.67	6118	
753.85	4773.1	
754.03	4386.1	
754.21	6267.5	
754.38	6720.8	
754.56	4562.9	
754.74	3618.8	
754.92	5649	
755.1	6217	
755.28	3691.1	
755.46	3836.5	
755.64	7036.1	
755.82	7220.5	
755.99	4128	
756.17	4151.2	
756.35	4835.3	
756.53	6311.8	
756.71	3138.2	
756.89	4096.6	
757.07	5910.4	
757.25	5031.2	
757.42	4508.3	
757.6	5320.6	
757.78	5969.8	
757.96	4984.1	
758.14	4188.8	
758.32	3736.2	
758.5	4521.2	
758.67	5659.2	
758.85	4028.4	
759.03	4213.4	
759.21	5601.9	
759.39	5020.3	
759.57	3631.7	
759.75	4709	
759.92	6154.8	
760.1	5411.4	
760.28	5024.3	
760.46	5238.7	
760.64	5233.2	
760.82	4999.8	
760.99	4866.7	
761.17	4107.5	
761.35	5943.9	
761.53	5016.8	
761.71	4127.3	
761.89	4861.2	
762.06	5879.7	
762.24	5338.4	
762.42	4255	
762.6	4001.7	
762.78	5324	
762.96	5963	
763.13	4604.5	
763.31	4296.6	
763.49	6118	
763.67	5328.1	
763.85	5026.4	
764.02	5580	
764.2	6382.2	
764.38	5586.2	
764.56	4244.1	
764.74	5005.2	
764.91	6515.3	
765.09	5419.6	
765.27	3886.4	
765.45	3670	
765.63	6507.1	
765.8	6339.1	
765.98	3432.4	
766.16	3821.5	
766.34	5021.6	
766.52	4788.8	
766.69	4653.7	
766.87	3638.6	
767.05	5431.9	
767.23	6113.9	
767.41	3897.3	
767.58	4214.7	
767.76	5887.2	
767.94	6032.6	
768.12	4022.2	
768.29	4633.9	
768.47	5468.1	
768.65	6152.1	
768.83	3667.9	
769	4745.1	
769.18	5098.8	
769.36	5771.2	
769.54	4728.1	
769.72	3750.5	
769.89	6034	
770.07	6105.7	
770.25	4023.6	
770.43	5212.1	
770.6	6779.5	
770.78	7120.8	
770.96	4240	
771.14	4754.7	
771.31	5928.9	
771.49	5325.4	
771.67	3389.4	
771.85	3613.3	
772.02	4657.8	
772.2	5378	
772.38	4356	
772.55	3889.8	
772.73	5618.9	
772.91	5387.5	
773.09	4233.2	
773.26	4284.4	
773.44	5556.1	
773.62	5199.8	
773.8	3758	
773.97	3509.5	
774.15	5630.5	
774.33	5314.5	
774.5	3670.6	
774.68	3973.7	
774.86	5826.5	
775.04	5380	
775.21	3775.8	
775.39	3754.6	
775.57	5543.9	
775.74	5883.8	
775.92	3592.8	
776.1	3530.7	
776.27	5545.9	
776.45	6677.1	
776.63	3796.9	
776.81	3309.5	
776.98	5222.3	
777.16	6223.8	
777.34	3938.2	
777.51	4158.1	
777.69	5224.4	
777.87	5036.6	
778.04	3968.3	
778.22	4554.7	
778.4	5043.5	
778.57	5579.3	
778.75	3267.2	
778.93	3565.5	
779.1	4846.2	
779.28	4748.6	
779.46	3336.8	
779.64	3749.1	
779.81	5793.7	
779.99	6597.2	
780.17	4554	
780.34	4597.7	
780.52	5317.9	
780.69	5558.9	
780.87	4117.1	
781.05	3672.7	
781.22	5370.5	
781.4	5480.4	
781.58	3794.9	
781.75	3007.8	
781.93	5449.6	
782.11	4827.7	
782.28	4711.7	
782.46	3824.9	
782.64	4672.1	
782.81	5555.5	
782.99	3884.3	
783.17	3865.2	
783.34	5449.6	
783.52	4732.9	
783.69	4045.4	
783.87	4780	
784.05	4833.9	
784.22	4856.4	
784.4	4788.8	
784.58	4162.2	
784.75	5721.3	
784.93	4951.3	
785.1	3837.9	
785.28	4392.2	
785.46	5508.4	
785.63	4840.7	
785.81	3820.1	
785.99	3644	
786.16	4959.5	
786.34	5307	
786.51	3667.2	
786.69	4087.1	
786.87	4658.4	
787.04	5103.5	
787.22	3558.7	
787.39	4461.2	
787.57	4837.3	
787.75	5874.9	
787.92	4706.9	
788.1	4565.6	
788.27	4846.2	
788.45	4633.2	
788.63	4388.1	
788.8	3115	
788.98	5261.9	
789.15	4548.5	
789.33	3248.8	
789.5	3893.9	
789.68	5732.9	
789.86	5836.7	
790.03	4297.3	
790.21	3748.5	
790.38	5735.7	
790.56	4997.7	
790.73	3575.1	
790.91	3601.7	
791.09	4892.6	
791.26	5595.7	
791.44	3775.1	
791.61	3312.2	
791.79	4870.8	
791.96	4902.2	
792.14	3459	
792.32	3036.5	
792.49	4878.9	
792.67	4999.1	
792.84	3500	
793.02	3304.7	
793.19	5328.8	
793.37	5958.2	
793.54	3061	
793.72	3324.5	
793.89	6025.1	
794.07	4870.1	
794.25	3867.9	
794.42	3102.7	
794.6	5929.6	
794.77	5481.7	
794.95	4172.4	
795.12	3635.1	
795.3	4889.2	
795.47	5494	
795.65	4102.8	
795.82	3879.5	
796	4648.9	
796.17	6563.1	
796.35	3774.4	
796.52	4443.4	
796.7	5455.1	
796.87	5504.9	
797.05	4661.9	
797.22	4558.8	
797.4	5470.1	
797.57	6361	
797.75	3857.7	
797.92	3605.8	
798.1	5738.4	
798.27	4904.9	
798.45	3145.7	
798.62	3395.5	
798.8	5128.1	
798.97	5644.2	
799.15	4101.4	
799.32	3932.8	
799.5	4465.9	
799.67	5267.4	
799.85	4269.3	
800.02	3081.5	
800.2	4858.5	
800.37	5136.3	
800.55	4380.6	
800.72	3609.9	
800.9	5625.8	
801.07	6029.2	
801.25	4893.3	
801.42	4106.2	
801.6	5685.8	
801.77	5381.4	
801.95	3776.5	
802.12	3536.2	
802.29	5367	
802.47	5297.4	
802.64	3976.5	
802.82	2988.7	
802.99	4786.1	
803.17	5776	
803.34	3889.1	
803.52	3515	
803.69	6371.2	
803.87	4629.8	
804.04	3895.2	
804.21	3994.9	
804.39	5886.5	
804.56	5030.5	
804.74	3300	
804.91	4028.4	
805.09	4857.1	
805.26	4958.8	
805.44	3399.6	
805.61	3677.5	
805.78	5505.6	
805.96	5563.6	
806.13	4043.4	
806.31	4312.3	
806.48	4434.5	
806.66	4993.6	
806.83	4001.7	
807	3955.3	
807.18	4837.3	
807.35	5248.3	
807.53	3688.4	
807.7	3150.5	
807.87	5935	
808.05	4872.1	
808.22	4311.7	
808.4	3138.9	
808.57	4917.9	
808.74	4563.6	
808.92	3583.9	
809.09	4585.4	
809.27	4820.9	
809.44	5397.1	
809.61	3142.9	
809.79	3511.6	
809.96	6025.1	
810.14	5569.8	
810.31	3095.8	
810.48	3809.2	
810.66	4995.7	
810.83	5657.2	
811.01	3582.6	
811.18	4009.9	
811.35	5617.6	
811.53	4343.1	
811.7	4318.5	
811.87	4073.4	
812.05	4926	
812.22	4835.3	
812.39	3439.9	
812.57	3357.3	
812.74	4961.5	
812.92	6532.3	
813.09	3781.9	
813.26	4117.1	
813.44	6211.5	
813.61	4828.4	
813.78	3134.8	
813.96	4190.8	
814.13	4945.2	
814.3	4579.3	
814.48	4487.8	
814.65	3792.2	
814.82	6281.8	
815	4625	
815.17	3880.2	
815.34	4648.9	
815.52	4842.8	
815.69	4823	
815.87	3803.8	
816.04	3282.2	
816.21	4927.4	
816.38	4332.8	
816.56	3794.9	
816.73	3440.6	
816.9	6145.3	
817.08	5657.2	
817.25	3493.8	
817.42	4418.2	
817.6	4477.5	
817.77	4956.1	
817.94	3951.9	
818.12	3506.8	
818.29	4653.7	
818.46	7174	
818.64	3668.6	
818.81	3340.2	
818.98	4586.8	
819.16	6647.7	
819.33	4138.9	
819.5	3880.2	
819.67	5304.9	
819.85	5912.5	
820.02	3835.2	
820.19	4011.3	
820.37	5145.9	
820.54	4653.7	
820.71	3943.7	
820.88	4894	
821.06	5081	
821.23	4763.6	
821.4	3946.4	
821.58	3905.5	
821.75	5542.5	
821.92	5069.4	
822.09	3166.2	
822.27	3482.9	
822.44	4935.6	
822.61	4775.9	
822.79	3153.2	
822.96	6043.6	
823.13	5346.6	
823.3	4640	
823.48	3653.6	
823.65	3302	
823.82	5594.4	
823.99	4518.5	
824.17	4682.3	
824.34	3366.2	
824.51	6465.4	
824.68	4980	
824.86	3573	
825.03	3943	
825.2	4952.7	
825.37	5935	
825.55	3496.6	
825.72	3896.6	
825.89	6434	
826.06	5982.1	
826.24	3823.6	
826.41	3873.4	
826.58	5939.1	
826.75	5214.1	
826.92	3075.4	
827.1	3347.7	
827.27	7995.3	
827.44	6409.5	
827.61	3625.6	
827.79	4339.6	
827.96	4687.8	
828.13	4956.1	
828.3	3739.6	
828.47	3217.4	
828.65	5146.5	
828.82	5082.4	
828.99	4803.2	
829.16	4203.8	
829.34	5481	
829.51	5284.4	
829.68	3923.9	
829.85	4021.5	
830.02	5750.7	
830.2	5506.3	
830.37	3019.4	
830.54	4685.8	
830.71	6171.2	
830.88	4902.2	
831.05	3058.3	
831.23	3519.1	
831.4	5951.4	
831.57	6716	
831.74	3609.9	
831.91	3156.6	
832.09	5173.9	
832.26	5569.8	
832.43	3727.3	
832.6	4162.8	
832.77	5168.4	
832.94	5840.8	
833.12	2930	
833.29	3642.7	
833.46	5285.8	
833.63	6898.9	
833.8	4087.7	
833.97	3719.8	
834.15	5499.5	
834.32	5313.1	
834.49	3881.6	
834.66	3964.9	
834.83	5697.4	
835	4667.3	
835.17	3565.5	
835.35	3614.7	
835.52	5450.3	
835.69	5309	
835.86	3813.3	
836.03	3119.1	
836.2	5478.3	
836.37	5088.5	
836.55	3685	
836.72	3495.2	
836.89	5152	
837.06	5548.6	
837.23	3745.7	
837.4	4154.6	
837.57	6274.3	
837.75	6866.2	
837.92	3373.7	
838.09	3605.1	
838.26	5070.1	
838.43	5751.4	
838.6	3936.2	
838.77	3459.7	
838.94	6617	
839.11	6229.2	
839.29	3722.5	
839.46	2983.9	
839.63	5483.8	
839.8	5221	
839.97	3556.6	
840.14	3613.3	
840.31	5320.6	
840.48	5514.5	
840.65	3002.3	
840.82	3542.3	
841	5513.1	
841.17	5382.1	
841.34	3302	
841.51	3405.8	
841.68	5421.7	
841.85	5170.4	
842.02	3465.8	
842.19	2910.8	
842.36	5265.3	
842.53	5255.1	
842.7	3323.2	
842.87	4089.1	
843.05	6781.5	
843.22	5121.3	
843.39	3170.9	
843.56	3465.8	
843.73	5053.7	
843.9	5559.6	
844.07	5352	
844.24	4428.4	
844.41	7876.5	
844.58	4750.6	
844.75	3219.4	
844.92	3478.8	
845.09	5454.4	
845.26	5429.2	
845.43	3289	
845.6	3510.9	
845.77	5464	
845.94	5220.3	
846.12	3655.6	
846.29	3887.7	
846.46	5694.7	
846.63	5501.5	
846.8	3362.8	
846.97	3932.8	
847.14	5913.9	
847.31	5396.4	
847.48	3710.9	
847.65	4018.8	
847.82	5786.9	
847.99	5666.7	
848.16	4432.5	
848.33	4081.6	
848.5	5046.2	
848.67	5912.5	
848.84	3306.1	
849.01	3426.9	
849.18	4965	
849.35	4623.6	
849.52	4121.9	
849.69	3238.5	
849.86	5634.6	
850.03	5826.5	
850.2	3346.4	
850.37	3990.8	
850.54	5772.5	
850.71	5155.4	
850.88	3971.7	
851.05	3234.4	
851.22	5345.9	
851.39	6005.3	
851.56	3142.3	
851.73	3768.9	
851.9	4775.9	
852.07	5674.2	
852.24	3684.3	
852.41	3239.9	
852.58	5294.7	
852.75	4853	
852.92	3687.7	
853.09	3175	
853.26	5091.3	
853.43	5895.4	
853.6	3318.4	
853.77	2841.2	
853.94	5922.7	
854.11	5400.5	
854.28	4823	
854.44	3618.8	
854.61	6374.6	
854.78	5758.2	
854.95	3305.4	
855.12	4154	
855.29	4430.4	
855.46	6192.4	
855.63	3247.4	
855.8	4576.5	
855.97	5019.6	
856.14	5736.4	
856.31	4582.7	
856.48	3561.4	
856.65	5091.9	
856.82	4745.1	
856.99	3129.3	
857.16	3528	
857.33	6613.6	
857.49	5140.4	
857.66	3654.3	
857.83	3824.9	
858	5195.7	
858.17	5286.5	
858.34	3097.9	
858.51	3301.3	
858.68	6106.4	
858.85	6162.3	
859.02	3830.4	
859.19	4043.4	
859.36	4849.6	
859.52	4855.1	
859.69	3299.3	
859.86	3899.3	
860.03	4921.3	
860.2	5950.7	
860.37	2974.3	
860.54	3342.3	
860.71	5669.5	
860.88	6039.5	
861.05	3726.6	
861.21	4107.5	
861.38	6006.7	
861.55	4685.8	
861.72	3040.6	
861.89	3690.4	
862.06	5698.8	
862.23	6233.3	
862.4	3177.1	
862.56	3440.6	
862.73	5554.1	
862.9	5326.8	
863.07	3865.9	
863.24	3038.5	
863.41	4738.3	
863.58	4909.7	
863.75	3414.6	
863.91	3836.5	
864.08	5913.2	
864.25	5633.3	
864.42	4123.2	
864.59	4611.3	
864.76	6328.2	
864.93	4816.1	
865.09	3230.3	
865.26	3493.2	
865.43	5943.9	
865.6	6276.3	
865.77	2878.1	
865.94	3235.1	
866.1	5945.9	
866.27	5705	
866.44	4947.9	
866.61	3129.3	
866.78	5174.5	
866.95	5545.2	
867.11	3194.1	
867.28	2966.8	
867.45	5751.4	
867.62	4844.1	
867.79	3799	
867.96	3273.3	
868.12	4819.6	
868.29	5691.3	
868.46	2881.5	
868.63	4318.5	
868.8	5812.8	
868.97	5643.5	
869.13	3438.5	
869.3	3454.2	
869.47	5524.1	
869.64	5750.7	
869.81	3330	
869.97	3312.9	
870.14	5427.8	
870.31	6019.7	
870.48	3200.3	
870.65	4120.5	
870.81	5119.9	
870.98	5173.2	
871.15	3736.9	
871.32	3411.2	
871.48	5524.7	
871.65	6083.8	
871.82	3277.4	
871.99	3651.5	
872.16	6497.5	
872.32	5984.8	
872.49	3331.4	
872.66	3371.6	
872.83	5646.9	
872.99	4990.2	
873.16	3778.5	
873.33	3246	
873.5	5285.8	
873.67	5341.8	
873.83	3549.8	
874	4474.8	
874.17	5440.8	
874.34	6434.7	
874.5	4244.1	
874.67	4111.6	
874.84	6023.1	
875.01	4775.2	
875.17	4646.8	
875.34	3274.7	
875.51	5381.4	
875.68	6419.7	
875.84	3981.9	
876.01	4833.9	
876.18	5665.4	
876.34	5542.5	
876.51	3357.3	
876.68	3324.5	
876.85	5199.1	
877.01	5881.1	
877.18	4719.9	
877.35	3290.4	
877.52	5285.8	
877.68	4729.4	
877.85	3219.4	
878.02	3192.1	
878.18	5257.1	
878.35	4996.4	
878.52	2686.9	
878.69	3648.1	
878.85	5733.6	
879.02	5548.6	
879.19	4616.1	
879.35	3560.7	
879.52	5623	
879.69	5820.3	
879.86	2870.6	
880.02	3682.9	
880.19	5244.8	
880.36	6316.6	
880.52	3792.2	
880.69	3924.6	
880.86	5743.2	
881.02	5778.7	
881.19	3622.2	
881.36	3556	
881.52	5638.7	
881.69	4986.1	
881.86	3556	
882.02	3479.5	
882.19	5839.4	
882.36	6888.7	
882.52	3347.7	
882.69	4607.9	
882.86	5440.8	
883.02	5376.6	
883.19	3976.5	
883.36	3736.2	
883.52	5728.9	
883.69	6496.8	
883.86	3321.8	
884.02	2968.9	
884.19	5695.4	
884.36	5277.6	
884.52	3721.8	
884.69	3504.8	
884.86	5067.4	
885.02	6244.3	
885.19	3667.9	
885.36	3856.3	
885.52	5190.9	
885.69	5483.1	
885.86	4734.9	
886.02	4185.4	
886.19	5696.8	
886.35	5188.9	
886.52	3629.7	
886.69	4567	
886.85	4825	
887.02	5985.5	
887.19	5985.5	
887.35	5985.5	
887.52	5985.5	
887.68	5985.5	
887.85	5985.5	
888.02	5985.5	
888.18	5985.5	
888.35	5985.5	
888.51	5985.5	
888.68	5985.5	
888.85	5985.5	
889.01	5985.5	
889.18	5985.5	
889.35	5985.5	
889.51	5985.5	
889.68	5985.5	
889.84	5985.5	
890.01	5985.5	
890.17	5985.5	
890.34	5985.5	
890.51	5985.5	
890.67	5985.5	
890.84	5985.5	
891	5985.5	
891.17	5985.5	
891.34	5985.5	
891.5	5985.5	
891.67	5985.5	
891.83	5985.5	
892	5985.5	
892.16	5985.5	
892.33	5985.5	
892.5	5985.5	
892.66	5985.5	
892.83	5985.5	
892.99	5985.5	
893.16	5985.5	
893.32	5985.5	
893.49	5985.5	
893.65	5985.5	
893.82	5985.5	
893.99	5985.5	
894.15	5985.5	
894.32	5985.5	
894.48	5985.5	
894.65	5985.5	
894.81	5985.5	
894.98	5985.5	
895.14	5985.5	
895.31	5985.5	
895.47	5985.5	
895.64	5985.5	
895.81	5985.5	
895.97	5985.5	
896.14	5985.5	
896.3	5985.5	
896.47	5985.5	
896.63	5985.5	
896.8	5985.5	
896.96	5985.5	
897.13	5985.5	
897.29	5985.5	
897.46	5985.5	
897.62	5985.5	
897.79	5985.5	
897.95	5985.5	
898.12	5985.5	
898.28	5985.5	
898.45	5985.5	
898.61	5985.5	
898.78	5985.5	
898.94	5985.5	
899.11	5985.5	
899.27	5985.5	
899.44	5985.5	
899.6	5985.5	
899.77	5985.5	
899.93	5985.5	
900.1	5985.5	
900.26	5985.5	
900.43	5985.5	
900.59	5985.5	
900.76	5985.5	
900.92	5985.5	
901.09	5985.5	
901.25	5985.5	
901.42	5985.5	
901.58	5985.5	
901.75	5985.5	
901.91	5985.5	
902.07	5985.5	
902.24	5985.5	
902.4	5985.5	
902.57	5985.5	
902.73	5985.5	
902.9	5985.5	
903.06	5985.5	
903.23	5985.5	
903.39	5985.5	
903.56	5985.5	
903.72	5985.5	
903.88	5985.5	
904.05	5985.5	
904.21	5985.5	
904.38	5985.5	
904.54	5985.5	
904.71	5985.5	
904.87	5985.5	
905.03	5985.5	
905.2	5985.5	
905.36	5985.5	
905.53	5985.5	
905.69	5985.5	
905.86	5985.5	
906.02	5985.5	
906.18	5985.5	
906.35	5985.5	
906.51	5985.5	
906.68	5985.5	
906.84	5985.5	
907.01	5985.5	
907.17	5985.5	
907.33	5985.5	
907.5	5985.5	
907.66	5985.5	
907.83	5985.5	
907.99	5985.5	
908.15	5985.5	
908.32	5985.5	
908.48	5985.5	
908.65	5985.5	
908.81	5985.5	
908.97	5985.5	
909.14	5985.5	
909.3	5985.5	
909.47	5985.5	
909.63	5985.5	
909.79	5985.5	
909.96	5985.5	
910.12	5985.5	
910.28	5985.5	
910.45	5985.5	
910.61	5985.5	
910.78	5985.5	
910.94	5985.5	
911.1	5985.5	
911.27	5985.5	
911.43	5985.5	
911.59	5985.5	
911.76	5985.5	
911.92	5985.5	
912.08	5985.5	
912.25	5985.5	
912.41	5985.5	
912.57	5985.5	
912.74	5985.5	
912.9	5985.5	
913.07	5985.5	
913.23	5985.5	
913.39	5985.5	
913.56	5985.5	
913.72	5985.5	
913.88	5985.5	
914.05	5985.5	
914.21	5985.5	
914.37	5985.5	
914.54	5985.5	
914.7	5985.5	
914.86	5985.5	
915.03	5985.5	
915.19	5985.5	
