Wavelength	Intensities	
nm	a.u.	
179.22	1738.9	
179.44	1743.8	
179.65	1733.9	
179.86	1753.7	
180.08	1714.1	
180.29	4020.2	
180.51	3031.7	
180.72	5048.2	
180.94	5631.2	
181.15	2772.9	
181.37	2793.4	
181.58	4850.3	
181.79	5085.1	
182.01	2861	
182.22	3098.6	
182.44	5107.6	
182.65	4409.3	
182.87	3775.1	
183.08	3315	
183.29	5341.8	
183.51	4526.7	
183.72	3109.5	
183.94	4272.7	
184.15	4773.8	
184.37	4804.5	
184.58	2786.6	
184.79	3622.9	
185.01	4558.8	
185.22	5130.2	
185.44	3781.2	
185.65	3264.5	
185.86	4767	
186.08	4442	
186.29	2710.8	
186.51	2925.9	
186.72	4547.9	
186.94	5211.4	
187.15	3327.3	
187.36	3362.1	
187.58	6511.9	
187.79	4891.9	
188.01	3472.7	
188.22	5268.1	
188.43	5722.7	
188.65	5126.1	
188.86	2860.3	
189.08	3414	
189.29	4620.9	
189.5	4657.1	
189.72	3075.4	
189.93	3168.9	
190.15	5238	
190.36	6089.3	
190.57	3333.4	
190.79	3282.2	
191	5319.3	
191.22	5301.5	
191.43	3414	
191.64	2894.5	
191.86	5401.9	
192.07	5253	
192.29	2964.1	
192.5	3106.1	
192.71	5253	
192.93	4689.2	
193.14	3102.7	
193.35	3170.9	
193.57	4622.9	
193.78	5228.5	
194	2564.1	
194.21	3059	
194.42	4498.7	
194.64	4857.8	
194.85	3345	
195.07	3893.2	
195.28	4823.6	
195.49	4321.9	
195.71	4044.1	
195.92	2961.4	
196.13	4969.1	
196.35	5038.7	
196.56	4197	
196.78	3399.6	
196.99	6051.1	
197.2	5707	
197.42	3779.9	
197.63	3401.7	
197.84	4420.9	
198.06	4991.6	
198.27	3048.7	
198.48	4049.5	
198.7	4673.5	
198.91	4816.8	
199.13	3365.5	
199.34	3366.2	
199.55	5271.5	
199.77	4182.6	
199.98	3059.7	
200.19	3452.2	
200.41	4731.5	
200.62	4502.8	
200.83	3521.1	
201.05	3715	
201.26	4819.6	
201.47	4594.3	
201.69	3051.5	
201.9	2940.2	
202.11	4841.4	
202.33	5569.1	
202.54	3201	
202.76	3543	
202.97	4919.9	
203.18	4909	
203.4	3509.5	
203.61	3482.9	
203.82	4926	
204.04	4560.8	
204.25	3407.1	
204.46	3322.5	
204.68	4821.6	
204.89	5037.3	
205.1	3282.2	
205.32	2945.7	
205.53	5101.5	
205.74	5199.8	
205.96	2543.6	
206.17	3431.7	
206.38	5121.3	
206.6	5175.2	
206.81	3828.3	
207.02	3138.9	
207.24	5044.8	
207.45	5299.5	
207.66	3280.8	
207.88	2852.1	
208.09	4951.3	
208.3	4800.4	
208.52	3016.7	
208.73	3284.3	
208.94	4784.1	
209.15	5382.7	
209.37	3244	
209.58	3671.3	
209.79	5223	
210.01	4706.9	
210.22	2719	
210.43	2790	
210.65	4722.6	
210.86	5135.6	
211.07	3235.8	
211.29	3008.5	
211.5	5082.4	
211.71	4778.6	
211.93	3029.6	
212.14	2993.4	
212.35	4771.1	
212.56	4926.7	
212.78	3347.7	
212.99	2818	
213.2	5515.2	
213.42	4678.2	
213.63	3110.9	
213.84	3286.3	
214.06	4359.4	
214.27	4396.3	
214.48	3284.9	
214.69	3438.5	
214.91	5369.1	
215.12	5373.9	
215.33	3460.4	
215.55	3758.7	
215.76	5764.3	
215.97	5046.9	
216.18	3288.4	
216.4	3275.4	
216.61	4528.1	
216.82	5221	
217.04	3063.8	
217.25	3102	
217.46	5332.9	
217.67	5124	
217.89	2753.2	
218.1	2816	
218.31	4895.3	
218.53	4965.6	
218.74	3231	
218.95	3057.6	
219.16	4782	
219.38	5451.7	
219.59	3072	
219.8	3618.1	
220.01	5937.1	
220.23	4898.1	
220.44	3852.9	
220.65	2979.8	
220.87	4919.2	
221.08	5371.8	
221.29	2830.3	
221.5	3648.1	
221.72	6268.1	
221.93	4627.7	
222.14	3353.9	
222.35	3954.6	
222.57	4784.7	
222.78	5120.6	
222.99	3278.1	
223.2	3425.6	
223.42	5008.6	
223.63	5175.2	
223.84	2618	
224.05	2557.9	
224.27	5857.9	
224.48	5441.5	
224.69	3881.6	
224.9	3368.9	
225.12	4994.3	
225.33	4803.2	
225.54	2773.6	
225.75	3079.5	
225.97	4478.2	
226.18	4753.3	
226.39	3261.7	
226.6	3048.7	
226.82	4639.3	
227.03	4486.4	
227.24	3364.8	
227.45	2886.3	
227.67	5150.6	
227.88	5483.8	
228.09	3791.5	
228.3	3730	
228.52	5141.8	
228.73	4811.4	
228.94	3149.8	
229.15	2836.4	
229.36	4766.3	
229.58	4766.3	
229.79	3177.1	
230	3648.8	
230.21	5595.1	
230.43	4914.4	
230.64	3394.2	
230.85	3485	
231.06	5151.3	
231.28	5121.3	
231.49	2848.7	
231.7	3349.8	
231.91	5086.5	
232.12	4816.8	
232.34	2953.2	
232.55	3229	
232.76	5272.2	
232.97	4881.7	
233.18	3027.6	
233.4	3355.3	
233.61	4965	
233.82	4648.2	
234.03	3181.9	
234.25	3082.2	
234.46	6405.4	
234.67	4885.8	
234.88	3473.4	
235.09	3072.6	
235.31	5011.4	
235.52	4721.3	
235.73	3342.3	
235.94	2833.7	
236.15	4630.5	
236.37	5661.3	
236.58	2976.4	
236.79	3272	
237	5053.7	
237.21	4410	
237.43	3547.1	
237.64	2780.5	
237.85	8112	
238.06	4517.1	
238.27	3465.8	
238.48	2947.7	
238.7	5132.9	
238.91	4726.7	
239.12	3267.2	
239.33	3287.7	
239.54	4715.8	
239.76	4774.5	
239.97	3247.4	
240.18	3289.7	
240.39	5778	
240.6	4991.6	
240.82	3416.7	
241.03	2807.8	
241.24	4801.1	
241.45	5455.8	
241.66	3015.3	
241.87	3504.8	
242.09	5437.4	
242.3	5625.8	
242.51	3518.4	
242.72	3230.3	
242.93	5165	
243.14	4796.3	
243.36	3716.4	
243.57	3989.4	
243.78	5472.2	
243.99	5025.7	
244.2	3261	
244.41	3001	
244.63	4509.6	
244.84	5077.6	
245.05	3448.8	
245.26	3278.8	
245.47	5095.3	
245.68	5222.3	
245.9	4264.6	
246.11	3383.2	
246.32	4681.7	
246.53	5072.8	
246.74	5100.1	
246.95	2781.1	
247.16	4483	
247.38	4876.2	
247.59	2841.9	
247.8	3314.3	
248.01	4538.3	
248.22	4739	
248.43	3021.4	
248.64	3213.9	
248.86	4430.4	
249.07	4682.3	
249.28	2921.1	
249.49	3334.8	
249.7	5227.8	
249.91	5258.5	
250.12	2773.6	
250.34	2845.3	
250.55	4944.5	
250.76	4831.2	
250.97	3372.3	
251.18	3397.6	
251.39	5317.9	
251.6	4947.2	
251.81	3433.1	
252.03	3392.8	
252.24	4634.6	
252.45	5170.4	
252.66	2907.4	
252.87	3531.4	
253.08	4844.8	
253.29	6044.2	
253.5	2947.7	
253.72	3910.3	
253.93	4715.8	
254.14	5601.2	
254.35	3168.2	
254.56	3173	
254.77	4968.4	
254.98	4512.4	
255.19	3082.9	
255.41	3851.5	
255.62	4940.4	
255.83	5279.7	
256.04	3483.6	
256.25	3412.6	
256.46	5724.8	
256.67	4572.4	
256.88	3358	
257.09	3709.6	
257.31	4507.6	
257.52	4584.7	
257.73	4136.9	
257.94	3102.7	
258.15	4768.4	
258.36	4837.3	
258.57	3877.5	
258.78	2571.6	
258.99	5152	
259.2	4642.7	
259.41	3154.6	
259.63	3231.7	
259.84	5492.7	
260.05	5735.7	
260.26	4003.8	
260.47	3065.1	
260.68	5264	
260.89	4759.5	
261.1	3693.9	
261.31	3069.9	
261.52	5302.9	
261.73	5545.2	
261.95	3953.9	
262.16	3499.3	
262.37	5304.2	
262.58	5401.9	
262.79	3953.9	
263	3181.2	
263.21	4785.4	
263.42	4707.6	
263.63	3478.8	
263.84	3179.1	
264.05	5298.8	
264.26	5485.1	
264.47	3795.6	
264.69	3357.3	
264.9	5399.8	
265.11	4962.2	
265.32	3052.8	
265.53	3115.6	
265.74	4928.8	
265.95	4384.7	
266.16	3320.4	
266.37	3635.8	
266.58	4902.8	
266.79	4618.2	
267	3112.2	
267.21	2928.6	
267.42	4519.9	
267.63	4807.9	
267.84	3240.6	
268.06	2865.8	
268.27	5165	
268.48	5354.8	
268.69	3170.9	
268.9	3732.8	
269.11	5371.8	
269.32	4385.4	
269.53	3283.6	
269.74	3113.6	
269.95	4974.5	
270.16	4365.6	
270.37	3306.8	
270.58	3762.1	
270.79	4737.6	
271	5253.7	
271.21	3506.8	
271.42	3293.1	
271.63	5005.9	
271.84	4498.7	
272.05	2690.3	
272.26	3013.2	
272.47	4864.6	
272.68	4941.7	
272.89	3215.3	
273.11	3538.9	
273.32	4652.3	
273.53	5494	
273.74	3485.6	
273.95	3457.7	
274.16	5167	
274.37	4820.2	
274.58	3526.6	
274.79	2906.8	
275	4909	
275.21	5294	
275.42	4219.5	
275.63	3622.9	
275.84	5031.9	
276.05	6125.5	
276.26	3438.5	
276.47	3201	
276.68	4782	
276.89	5602.6	
277.1	3694.5	
277.31	2852.1	
277.52	5004.6	
277.73	5239.4	
277.94	2883.5	
278.15	3170.9	
278.36	4977.2	
278.57	4611.3	
278.78	3211.2	
278.99	3487	
279.2	4597.7	
279.41	4520.5	
279.62	4037.2	
279.83	2921.1	
280.04	5741.1	
280.25	4455.7	
280.46	4068.6	
280.67	3293.1	
280.88	4520.5	
281.09	5333.6	
281.3	3435.1	
281.51	4187.4	
281.72	4659.8	
281.93	5209.3	
282.14	3076	
282.35	3366.2	
282.56	5212.8	
282.77	5188.9	
282.98	3189.4	
283.19	3793.5	
283.4	6209.4	
283.61	4807.9	
283.82	2936.1	
284.03	3997.6	
284.24	4954.7	
284.45	5276.3	
284.66	4008.6	
284.87	3768.3	
285.08	5230.5	
285.29	5397.1	
285.5	2819.4	
285.71	3246	
285.92	5261.9	
286.12	5813.5	
286.33	3949.8	
286.54	3235.8	
286.75	5182	
286.96	4754	
287.17	3024.8	
287.38	3845.4	
287.59	4611.3	
287.8	4554	
288.01	3265.1	
288.22	3620.1	
288.43	5112.4	
288.64	4373.8	
288.85	3712.3	
289.06	3558.7	
289.27	5157.5	
289.48	5521.3	
289.69	3939.6	
289.9	3647.4	
290.11	5355.4	
290.32	4680.3	
290.53	3842	
290.74	3482.2	
290.94	5211.4	
291.15	5252.4	
291.36	3073.3	
291.57	3607.2	
291.78	4684.4	
291.99	4383.3	
292.2	3026.9	
292.41	3530	
292.62	5242.8	
292.83	5109.7	
293.04	4278.2	
293.25	3037.1	
293.46	4715.8	
293.67	5247.6	
293.88	3007.1	
294.09	2992.8	
294.29	4515.8	
294.5	4967.7	
294.71	3264.5	
294.92	3092.4	
295.13	4687.8	
295.34	5712.5	
295.55	2845.3	
295.76	2876	
295.97	5114.5	
296.18	5681.7	
296.39	2926.5	
296.6	3086.3	
296.81	4855.7	
297.01	5137.7	
297.22	3211.2	
297.43	3089.7	
297.64	4644.8	
297.85	4528.7	
298.06	2596.1	
298.27	2832.3	
298.48	4856.4	
298.69	4620.2	
298.9	3337.5	
299.11	3009.1	
299.31	4463.9	
299.52	4526.7	
299.73	3549.8	
299.94	3406.5	
300.15	4891.9	
300.36	4558.1	
300.57	3489.7	
300.78	3431	
300.99	4733.5	
301.2	4883	
301.4	3108.1	
301.61	3259	
301.82	5128.8	
302.03	5172.5	
302.24	3666.5	
302.45	2970.2	
302.66	5007.3	
302.87	5356.1	
303.08	3105.4	
303.29	4076.1	
303.49	4661.2	
303.7	4829.1	
303.91	2752.5	
304.12	3874.8	
304.33	4453.6	
304.54	4984.1	
304.75	3177.1	
304.96	2989.4	
305.16	5130.2	
305.37	5646.9	
305.58	2763.4	
305.79	2874	
306	5100.1	
306.21	4336.2	
306.42	3111.5	
306.63	4554.7	
306.83	4733.5	
307.04	5224.4	
307.25	3328.6	
307.46	3370.3	
307.67	4304.8	
307.88	5151.3	
308.09	3076	
308.29	3106.8	
308.5	4955.4	
308.71	5302.2	
308.92	3248.8	
309.13	2966.1	
309.34	4840	
309.55	4840	
309.75	3805.1	
309.96	3465.8	
310.17	5158.8	
310.38	4620.9	
310.59	3583.3	
310.8	2949.8	
311.01	4681	
311.21	4752	
311.42	2981.8	
311.63	3053.5	
311.84	4676.9	
312.05	4900.1	
312.26	3414.6	
312.46	3721.2	
312.67	4672.8	
312.88	4397	
313.09	2997.5	
313.3	2977.1	
313.51	5454.4	
313.71	5635.3	
313.92	3005.7	
314.13	3161.4	
314.34	5033.2	
314.55	4797.7	
314.76	3759.4	
314.96	3280.8	
315.17	4970.4	
315.38	5167.7	
315.59	3036.5	
315.8	2912.2	
316.01	5508.4	
316.21	5541.8	
316.42	2931.3	
316.63	3350.5	
316.84	4756.7	
317.05	5335.6	
317.26	3545.7	
317.46	3160	
317.67	4787.5	
317.88	5138.4	
318.09	3749.1	
318.3	2828.9	
318.5	4666.6	
318.71	5074.2	
318.92	4614.8	
319.13	3481.5	
319.34	5272.8	
319.54	5329.5	
319.75	2863.1	
319.96	2719.7	
320.17	5130.2	
320.38	5267.4	
320.58	2794.1	
320.79	3250.8	
321	5331.5	
321.21	5335	
321.42	3312.9	
321.62	2781.1	
321.83	4590.2	
322.04	4827.1	
322.25	3246.7	
322.46	3017.3	
322.66	4909.7	
322.87	5103.5	
323.08	3681.6	
323.29	2938.8	
323.5	5671.5	
323.7	4467.3	
323.91	3983.3	
324.12	3603.7	
324.33	4962.2	
324.53	5080.3	
324.74	3480.2	
324.95	3644.7	
325.16	4448.2	
325.37	4647.5	
325.57	2970.9	
325.78	3023.5	
325.99	4929.5	
326.2	4470	
326.4	4102.8	
326.61	2827.6	
326.82	4809.3	
327.03	4944.5	
327.24	4141.7	
327.44	3876.8	
327.65	5040.1	
327.86	4200.4	
328.07	3495.2	
328.27	2954.5	
328.48	5369.8	
328.69	4450.2	
328.9	4119.1	
329.1	3180.5	
329.31	4773.1	
329.52	5392.3	
329.73	3026.2	
329.93	3341.6	
330.14	4941.7	
330.35	4959.5	
330.56	4749.9	
330.76	3666.5	
330.97	4734.2	
331.18	4977.9	
331.39	3297.2	
331.59	2761.3	
331.8	5256.5	
332.01	5356.1	
332.22	3137.5	
332.42	3518.4	
332.63	4940.4	
332.84	4605.2	
333.05	3337.5	
333.25	3062.4	
333.46	4655.7	
333.67	4828.4	
333.88	3215.3	
334.08	3405.8	
334.29	6238.8	
334.5	5335	
334.7	2949.1	
334.91	4146.5	
335.12	4470.7	
335.33	5152.7	
335.53	3348.4	
335.74	4752	
335.95	4712.4	
336.16	4550.6	
336.36	3272.7	
336.57	3749.8	
336.78	4494.6	
336.98	5304.2	
337.19	3969	
337.4	3240.6	
337.61	5769.1	
337.81	4461.8	
338.02	3077.4	
338.23	3834.5	
338.43	5451	
338.64	4585.4	
338.85	3049.4	
339.05	3930.7	
339.26	5561.6	
339.47	4376.5	
339.68	3004.4	
339.88	4244.1	
340.09	5114.5	
340.3	5233.9	
340.5	3461.7	
340.71	2745	
340.92	4476.9	
341.13	5397.1	
341.33	2903.3	
341.54	3474.7	
341.75	5011.4	
341.95	4683	
342.16	3358.7	
342.37	3601	
342.57	4504.8	
342.78	4753.3	
342.99	3720.5	
343.19	2774.3	
343.4	5158.8	
343.61	4999.1	
343.81	3276.1	
344.02	2936.8	
344.23	5165	
344.43	5481.7	
344.64	3719.1	
344.85	3670	
345.06	5095.3	
345.26	5332.9	
345.47	3500.7	
345.68	3987.4	
345.88	4348.5	
346.09	5218.9	
346.3	3532.7	
346.5	2716.3	
346.71	4841.4	
346.92	4633.2	
347.12	2926.5	
347.33	3406.5	
347.54	5287.2	
347.74	5531.6	
347.95	3462.4	
348.16	2661	
348.36	4700.8	
348.57	4547.9	
348.78	3458.3	
348.98	3625.6	
349.19	4827.1	
349.39	4404.5	
349.6	2900.6	
349.81	3160.7	
350.01	5087.8	
350.22	4598.4	
350.43	3366.9	
350.63	3926.6	
350.84	4935.6	
351.05	4654.4	
351.25	3118.4	
351.46	2817.3	
351.67	5274.9	
351.87	4614.1	
352.08	3276.8	
352.29	3682.9	
352.49	5158.8	
352.7	5254.4	
352.9	3045.3	
353.11	3682.2	
353.32	5687.9	
353.52	4733.5	
353.73	3005.7	
353.94	3724.6	
354.14	5120.6	
354.35	4952	
354.55	3087.7	
354.76	3388	
354.97	5131.5	
355.17	4911	
355.38	2940.9	
355.59	3910.9	
355.79	4657.1	
356	4945.2	
356.2	3364.8	
356.41	3033.7	
356.62	4517.1	
356.82	4871.4	
357.03	3607.2	
357.24	3278.8	
357.44	4620.9	
357.65	4771.8	
357.85	4208.6	
358.06	3436.5	
358.27	4469.4	
358.47	4611.3	
358.68	2970.2	
358.88	3611.9	
359.09	5147.9	
359.3	5326.1	
359.5	4150.6	
359.71	3777.1	
359.91	5674.9	
360.12	5189.6	
360.33	3633.1	
360.53	4062.5	
360.74	4784.7	
360.94	4788.8	
361.15	3812	
361.36	3308.2	
361.56	5383.4	
361.77	5007.3	
361.97	4201.1	
362.18	3442	
362.38	5410.1	
362.59	4689.2	
362.8	3316.3	
363	3149.8	
363.21	4577.2	
363.41	5076.9	
363.62	3676.1	
363.83	4380.6	
364.03	5240.8	
364.24	5872.9	
364.44	4592.9	
364.65	4477.5	
364.85	5004.6	
365.06	4792.9	
365.27	3386.7	
365.47	3496.6	
365.68	5734.3	
365.88	5051	
366.09	3750.5	
366.29	3525.9	
366.5	5213.4	
366.71	5494.7	
366.91	4483	
367.12	3866.6	
367.32	6117.3	
367.53	5429.8	
367.73	3926.6	
367.94	4676.2	
368.14	5509.7	
368.35	6034	
368.56	3895.9	
368.76	3680.9	
368.97	5575.3	
369.17	6778.1	
369.38	3512.9	
369.58	3732.1	
369.79	4796.3	
369.99	5789.6	
370.2	4497.3	
370.4	3835.8	
370.61	5273.5	
370.82	6274.3	
371.02	3727.3	
371.23	3276.1	
371.43	4781.3	
371.64	5773.2	
371.84	3786	
372.05	4643.4	
372.25	6713.9	
372.46	5516.5	
372.66	3882.9	
372.87	3813.3	
373.07	5621.7	
373.28	6880.5	
373.48	4566.3	
373.69	4446.1	
373.9	5370.5	
374.1	5341.8	
374.31	4564.2	
374.51	4295.3	
374.72	5997.1	
374.92	5196.4	
375.13	4763.6	
375.33	4151.9	
375.54	5630.5	
375.74	5309.7	
375.95	4290.5	
376.15	5180	
376.36	5772.5	
376.56	5691.3	
376.77	4300.7	
376.97	4675.5	
377.18	6660	
377.38	5935.7	
377.59	4915.8	
377.79	4067.3	
378	5832.6	
378.2	6108.4	
378.41	4169.7	
378.61	4108.2	
378.82	6234.7	
379.02	5642.8	
379.23	4311	
379.43	5136.3	
379.64	6360.3	
379.84	6072.9	
380.05	4207.9	
380.25	4123.2	
380.46	6077.7	
380.66	5733.6	
380.87	5110.4	
381.07	5445.5	
381.28	6599.9	
381.48	6021.7	
381.69	4151.2	
381.89	4318.5	
382.1	5262.6	
382.3	6090.7	
382.51	5018.9	
382.71	5684.5	
382.91	6028.5	
383.12	6434	
383.32	4467.3	
383.53	4572.4	
383.73	5917.3	
383.94	5820.3	
384.14	4597.7	
384.35	3903.4	
384.55	5655.8	
384.76	6012.2	
384.96	4490.5	
385.17	4683	
385.37	6036.7	
385.58	5468.1	
385.78	4638	
385.98	3829	
386.19	5584.8	
386.39	5941.2	
386.6	4283	
386.8	4436.6	
387.01	6049	
387.21	6080.4	
387.42	4747.9	
387.62	5169.8	
387.83	5537	
388.03	5957.5	
388.23	4616.1	
388.44	5180	
388.64	5361.6	
388.85	5482.4	
389.05	4848.9	
389.26	5304.2	
389.46	7060	
389.67	6621.8	
389.87	4990.9	
390.07	4948.6	
390.28	5950	
390.48	5646.2	
390.69	4393.6	
390.89	4657.8	
391.1	5859.2	
391.3	6533	
391.5	5516.5	
391.71	5994.4	
391.91	6372.6	
392.12	7066.2	
392.32	5629.9	
392.53	5016.8	
392.73	5965.7	
392.93	6096.1	
393.14	4792.2	
393.34	5320.6	
393.55	6350.8	
393.75	5991.7	
393.95	4732.9	
394.16	4619.5	
394.36	5848.3	
394.57	6316.6	
394.77	4397	
394.98	4612.7	
395.18	5863.3	
395.38	5947.3	
395.59	5467.4	
395.79	4619.5	
396	6124.1	
396.2	6478.4	
396.4	5367.7	
396.61	5364.3	
396.81	6636.1	
397.02	6133.7	
397.22	5579.3	
397.42	5682.4	
397.63	6763.1	
397.83	6235.4	
398.04	4811.4	
398.24	5307	
398.44	6632.7	
398.65	5935.7	
398.85	4773.8	
399.05	4881.7	
399.26	6292	
399.46	7569.3	
399.67	5226.4	
399.87	5107.6	
400.07	6619.7	
400.28	6888.7	
400.48	5084.4	
400.69	5995.8	
400.89	7139.9	
401.09	7532.4	
401.3	5176.6	
401.5	5999.2	
401.7	7681.9	
401.91	8014.4	
402.11	5637.4	
402.32	5673.6	
402.52	7317.4	
402.72	7118.1	
402.93	5836	
403.13	4948.6	
403.33	7731.8	
403.54	6645	
403.74	5421	
403.94	6065.4	
404.15	6607.4	
404.35	7539.3	
404.56	5180	
404.76	6519.4	
404.96	6997.9	
405.17	6782.9	
405.37	6463.4	
405.57	5741.8	
405.78	7283.3	
405.98	6722.1	
406.18	5467.4	
406.39	6154.1	
406.59	7224.6	
406.79	6851.8	
407	5266.7	
407.2	5259.2	
407.4	7218.4	
407.61	7350.8	
407.81	5336.3	
408.01	7129.7	
408.22	6468.2	
408.42	8123.6	
408.62	6473.6	
408.83	6188.3	
409.03	7418.4	
409.23	7387.7	
409.44	6467.5	
409.64	6719.4	
409.84	8355.7	
410.05	8307.2	
410.25	6841.6	
410.45	6637.5	
410.66	8264.9	
410.86	10044	
411.06	7311.2	
411.27	7045	
411.47	10178	
411.67	8604.9	
411.88	7315.3	
412.08	7808.2	
412.28	9093	
412.49	9564.7	
412.69	7546.1	
412.89	7481.2	
413.09	9524.4	
413.3	9469.8	
413.5	7714	
413.7	7482.6	
413.91	8972.8	
414.11	9595.4	
414.31	7649.8	
414.52	8302.5	
414.72	9584.5	
414.92	9542.9	
415.12	7748.8	
415.33	8208.3	
415.53	9854.1	
415.73	9894.4	
415.94	8431.5	
416.14	8090.8	
416.34	9232.9	
416.55	8955.1	
416.75	9083.4	
416.95	8628.1	
417.15	10058	
417.36	10440	
417.56	9439.1	
417.76	8729.8	
417.97	10423	
418.17	10244	
418.37	8329.8	
418.57	8673.1	
418.78	10206	
418.98	9867.8	
419.18	9171.5	
419.38	9099.1	
419.59	9865.1	
419.79	9443.2	
419.99	8319.5	
420.2	8549.6	
420.4	10274	
420.6	10221	
420.8	8303.1	
421.01	8223.3	
421.21	10285	
421.41	10306	
421.61	8629.5	
421.82	8437.6	
422.02	9939.5	
422.22	10518	
422.42	9051.3	
422.63	8547.5	
422.83	9928.6	
423.03	10954	
423.23	8688.2	
423.44	7894.9	
423.64	9876	
423.84	9581.1	
424.04	8399.4	
424.25	8014.4	
424.45	10442	
424.65	10329	
424.85	7841	
425.06	8288.8	
425.26	10638	
425.46	9650	
425.66	8581.7	
425.87	8371.4	
426.07	10204	
426.27	10146	
426.47	8566.7	
426.67	7978.2	
426.88	10510	
427.08	10083	
427.28	8766	
427.48	7891.5	
427.69	9169.4	
427.89	9794.8	
428.09	8578.9	
428.29	8055.3	
428.5	10167	
428.7	9929.9	
428.9	7993.2	
429.1	8381	
429.3	9897.8	
429.51	10186	
429.71	8117.5	
429.91	8860.9	
430.11	10294	
430.31	10599	
430.52	8621.3	
430.72	8927.1	
430.92	10812	
431.12	10447	
431.32	8534.6	
431.53	8624	
431.73	9646.6	
431.93	10837	
432.13	8304.5	
432.33	8310.7	
432.54	10043	
432.74	10279	
432.94	8426.7	
433.14	9071.1	
433.34	10471	
433.55	10365	
433.75	9202.2	
433.95	10598	
434.15	10447	
434.35	10301	
434.56	8573.5	
434.76	8465.6	
434.96	10614	
435.16	10957	
435.36	8692.3	
435.56	9786.6	
435.77	10513	
435.97	10725	
436.17	10425	
436.37	9821.4	
436.57	10598	
436.78	10695	
436.98	10940	
437.18	10152	
437.38	11365	
437.58	10656	
437.78	10381	
437.99	9392.7	
438.19	11148	
438.39	11763	
438.59	9209	
438.79	8744.1	
438.99	11477	
439.2	10552	
439.4	8568.7	
439.6	8731.9	
439.8	10860	
440	11763	
440.2	9680.7	
440.4	9949	
440.61	11600	
440.81	11975	
441.01	9459.6	
441.21	10503	
441.41	12340	
441.61	11765	
441.81	10703	
442.02	11485	
442.22	12529	
442.42	12087	
442.62	9829.6	
442.82	9673.2	
443.02	12263	
443.22	11774	
443.43	10286	
443.63	9837.8	
443.83	11441	
444.03	11525	
444.23	11101	
444.43	10682	
444.63	12147	
444.83	12918	
445.04	10377	
445.24	11315	
445.44	12300	
445.64	12244	
445.84	10550	
446.04	10824	
446.24	11702	
446.44	12482	
446.65	9871.9	
446.85	10422	
447.05	11521	
447.25	12292	
447.45	10280	
447.65	9762	
447.85	11747	
448.05	11282	
448.25	10662	
448.46	10505	
448.66	11767	
448.86	11441	
449.06	9908.1	
449.26	10693	
449.46	12153	
449.66	11368	
449.86	10621	
450.06	10436	
450.26	11685	
450.47	12150	
450.67	10564	
450.87	10881	
451.07	12247	
451.27	12334	
451.47	10268	
451.67	10817	
451.87	12119	
452.07	12675	
452.27	10716	
452.47	10385	
452.67	12216	
452.88	12617	
453.08	9858.9	
453.28	11555	
453.48	13420	
453.68	12073	
453.88	10587	
454.08	10738	
454.28	12678	
454.48	12288	
454.68	11121	
454.88	11534	
455.08	12723	
455.28	12834	
455.48	10359	
455.68	11289	
455.89	13481	
456.09	13157	
456.29	10890	
456.49	11403	
456.69	13513	
456.89	12743	
457.09	11820	
457.29	12210	
457.49	13229	
457.69	13559	
457.89	12011	
458.09	11381	
458.29	13550	
458.49	14165	
458.69	12351	
458.89	12108	
459.09	14567	
459.29	14604	
459.49	12097	
459.69	12786	
459.9	13981	
460.1	14030	
460.3	11923	
460.5	11899	
460.7	14252	
460.9	13815	
461.1	11725	
461.3	12949	
461.5	15042	
461.7	14614	
461.9	12748	
462.1	12725	
462.3	14537	
462.5	14973	
462.7	12642	
462.9	13006	
463.1	15875	
463.3	15912	
463.5	13159	
463.7	14341	
463.9	15321	
464.1	15504	
464.3	14022	
464.5	13892	
464.7	15967	
464.9	16019	
465.1	15143	
465.3	14455	
465.5	16180	
465.7	16394	
465.9	14800	
466.1	14099	
466.3	16476	
466.5	16019	
466.7	15735	
466.9	14474	
467.1	16455	
467.3	17138	
467.5	15840	
467.7	14959	
467.9	17382	
468.1	18025	
468.3	15309	
468.5	16016	
468.7	16826	
468.9	16581	
469.1	15476	
469.3	16099	
469.5	18387	
469.7	16720	
469.9	15637	
470.1	15442	
470.3	17154	
470.5	17057	
470.7	16406	
470.9	15296	
471.1	17009	
471.3	16926	
471.5	15332	
471.69	16650	
471.89	16670	
472.09	16233	
472.29	15935	
472.49	15586	
472.69	16579	
472.89	17019	
473.09	15374	
473.29	14961	
473.49	16509	
473.69	16442	
473.89	15611	
474.09	15046	
474.29	17335	
474.49	17064	
474.69	15890	
474.89	15076	
475.09	16533	
475.29	16688	
475.49	14619	
475.69	15199	
475.88	17478	
476.08	16716	
476.28	14786	
476.48	14846	
476.68	16780	
476.88	16481	
477.08	14696	
477.28	15135	
477.48	16266	
477.68	16578	
477.88	14584	
478.08	14724	
478.28	17118	
478.48	16290	
478.67	14877	
478.87	14292	
479.07	17352	
479.27	16547	
479.47	15085	
479.67	15163	
479.87	16998	
480.07	17315	
480.27	14576	
480.47	15843	
480.67	16565	
480.87	17430	
481.06	14876	
481.26	15542	
481.46	16818	
481.66	16661	
481.86	15343	
482.06	16113	
482.26	16518	
482.46	17190	
482.66	15223	
482.86	14823	
483.05	16949	
483.25	16353	
483.45	17163	
483.65	15301	
483.85	16802	
484.05	17036	
484.25	15801	
484.45	16500	
484.65	17610	
484.84	17944	
485.04	15621	
485.24	15609	
485.44	18082	
485.64	16744	
485.84	15271	
486.04	16298	
486.24	17149	
486.44	17488	
486.63	15368	
486.83	16102	
487.03	17512	
487.23	17825	
487.43	15525	
487.63	17444	
487.83	17936	
488.02	18557	
488.22	16830	
488.42	17316	
488.62	18639	
488.82	17834	
489.02	16238	
489.22	16827	
489.41	18445	
489.61	18586	
489.81	16304	
490.01	16476	
490.21	18730	
490.41	19482	
490.61	16522	
490.8	16627	
491	18594	
491.2	17770	
491.4	16825	
491.6	16307	
491.8	18160	
491.99	17956	
492.19	15926	
492.39	16253	
492.59	18458	
492.79	18554	
492.99	16963	
493.18	16440	
493.38	18897	
493.58	19865	
493.78	17514	
493.98	17146	
494.18	19067	
494.37	19011	
494.57	18330	
494.77	18105	
494.97	19948	
495.17	20508	
495.37	18266	
495.56	18521	
495.76	20661	
495.96	20546	
496.16	19667	
496.36	18908	
496.55	20953	
496.75	20626	
496.95	19184	
497.15	19170	
497.35	20879	
497.54	21113	
497.74	18810	
497.94	20579	
498.14	21681	
498.34	21609	
498.53	19026	
498.73	19671	
498.93	20794	
499.13	21384	
499.33	19783	
499.52	19857	
499.72	21874	
499.92	21631	
500.12	19697	
500.32	20024	
500.51	21820	
500.71	21878	
500.91	20573	
501.11	20280	
501.31	21865	
501.5	22036	
501.7	20930	
501.9	20202	
502.1	21793	
502.29	22136	
502.49	20615	
502.69	20747	
502.89	21799	
503.09	21964	
503.28	19136	
503.48	19435	
503.68	21031	
503.88	21072	
504.07	20168	
504.27	19531	
504.47	21392	
504.67	21269	
504.86	20024	
505.06	19541	
505.26	20978	
505.46	22068	
505.65	19435	
505.85	19499	
506.05	20594	
506.25	21048	
506.44	18609	
506.64	19117	
506.84	20275	
507.04	20605	
507.23	18595	
507.43	18989	
507.63	21618	
507.83	20383	
508.02	19078	
508.22	18806	
508.42	22016	
508.62	20211	
508.81	18822	
509.01	19496	
509.21	19829	
509.4	20157	
509.6	19092	
509.8	18501	
510	20135	
510.19	21289	
510.39	18486	
510.59	18791	
510.79	20318	
510.98	21517	
511.18	18974	
511.38	19139	
511.57	20921	
511.77	20910	
511.97	19330	
512.17	18603	
512.36	20885	
512.56	20523	
512.76	18602	
512.95	18378	
513.15	20836	
513.35	19765	
513.55	19237	
513.74	18435	
513.94	20715	
514.14	20405	
514.33	19406	
514.53	19190	
514.73	20248	
514.92	20631	
515.12	18808	
515.32	18841	
515.51	20701	
515.71	20955	
515.91	20112	
516.11	19108	
516.3	22200	
516.5	20471	
516.7	19290	
516.89	19912	
517.09	20606	
517.29	20829	
517.48	20015	
517.68	19210	
517.88	20457	
518.07	21130	
518.27	19579	
518.47	18899	
518.66	21454	
518.86	20392	
519.06	18730	
519.25	19080	
519.45	20493	
519.65	21916	
519.84	19680	
520.04	20420	
520.24	22334	
520.43	21131	
520.63	19369	
520.83	19079	
521.02	20447	
521.22	20846	
521.42	19393	
521.61	19796	
521.81	20465	
522.01	20546	
522.2	19279	
522.4	18961	
522.6	21136	
522.79	20250	
522.99	19352	
523.18	19058	
523.38	21320	
523.58	21424	
523.77	20945	
523.97	19496	
524.17	23106	
524.36	22676	
524.56	21031	
524.76	20592	
524.95	22191	
525.15	21885	
525.34	21022	
525.54	21028	
525.74	22941	
525.93	22243	
526.13	22310	
526.33	21400	
526.52	23489	
526.72	23164	
526.91	22637	
527.11	21924	
527.31	23747	
527.5	23967	
527.7	22008	
527.89	21303	
528.09	23107	
528.29	23843	
528.48	22330	
528.68	22070	
528.87	23923	
529.07	23863	
529.27	22205	
529.46	22025	
529.66	23893	
529.85	24344	
530.05	21884	
530.25	22603	
530.44	25069	
530.64	23696	
530.83	22246	
531.03	22510	
531.23	24258	
531.42	23975	
531.62	22872	
531.81	22521	
532.01	24703	
532.21	25073	
532.4	22908	
532.6	23441	
532.79	25720	
532.99	25496	
533.18	23769	
533.38	24482	
533.58	25426	
533.77	25847	
533.97	24038	
534.16	24539	
534.36	26234	
534.55	25641	
534.75	24947	
534.95	24330	
535.14	26590	
535.34	25764	
535.53	23883	
535.73	25366	
535.92	26823	
536.12	25478	
536.31	23872	
536.51	24834	
536.71	25744	
536.9	25528	
537.1	23751	
537.29	24097	
537.49	26017	
537.68	25417	
537.88	24501	
538.07	23653	
538.27	25770	
538.46	26598	
538.66	23717	
538.86	24301	
539.05	25845	
539.25	26239	
539.44	24807	
539.64	23992	
539.83	25827	
540.03	26482	
540.22	24016	
540.42	23873	
540.61	25476	
540.81	25745	
541	23926	
541.2	24791	
541.39	25236	
541.59	25520	
541.78	24662	
541.98	23599	
542.18	24891	
542.37	24842	
542.57	23866	
542.76	24389	
542.96	24767	
543.15	25009	
543.35	23453	
543.54	22980	
543.74	24697	
543.93	24754	
544.13	22853	
544.32	23716	
544.52	24679	
544.71	24120	
544.91	22168	
545.1	23010	
545.3	24146	
545.49	24610	
545.69	22164	
545.88	22596	
546.08	25452	
546.27	24979	
546.47	23088	
546.66	22474	
546.86	24551	
547.05	24996	
547.24	22331	
547.44	22488	
547.63	23584	
547.83	24684	
548.02	22737	
548.22	22808	
548.41	23434	
548.61	24462	
548.8	22283	
549	22218	
549.19	23891	
549.39	24271	
549.58	21825	
549.78	22444	
549.97	24121	
550.17	23673	
550.36	22737	
550.55	23515	
550.75	23404	
550.94	24177	
551.14	21776	
551.33	21782	
551.53	22911	
551.72	23854	
551.92	21964	
552.11	21721	
552.31	23786	
552.5	23539	
552.69	23067	
552.89	21322	
553.08	23791	
553.28	23281	
553.47	21646	
553.67	22504	
553.86	23715	
554.06	22602	
554.25	20837	
554.44	21459	
554.64	24346	
554.83	24178	
555.03	21415	
555.22	21636	
555.42	23497	
555.61	23221	
555.8	21427	
556	21437	
556.19	22535	
556.39	23425	
556.58	21272	
556.78	21393	
556.97	23023	
557.16	22915	
557.36	22207	
557.55	21155	
557.75	22218	
557.94	23906	
558.13	21150	
558.33	21018	
558.52	23767	
558.72	22527	
558.91	20981	
559.1	21131	
559.3	22250	
559.49	22093	
559.69	20587	
559.88	21282	
560.07	22778	
560.27	23191	
560.46	21388	
560.66	21493	
560.85	22663	
561.04	21805	
561.24	20629	
561.43	20641	
561.63	22038	
561.82	22203	
562.01	21625	
562.21	21084	
562.4	22511	
562.59	23528	
562.79	20847	
562.98	20906	
563.18	22556	
563.37	23878	
563.56	21394	
563.76	20979	
563.95	22606	
564.14	22392	
564.34	21369	
564.53	21213	
564.73	22943	
564.92	23320	
565.11	21527	
565.31	21152	
565.5	23493	
565.69	22728	
565.89	21246	
566.08	21642	
566.27	23369	
566.47	23866	
566.66	22291	
566.85	21321	
567.05	23481	
567.24	22915	
567.44	21475	
567.63	22539	
567.82	23509	
568.02	23170	
568.21	21450	
568.4	21669	
568.6	23475	
568.79	23368	
568.98	21364	
569.18	21704	
569.37	23591	
569.56	25084	
569.76	21955	
569.95	22948	
570.14	23853	
570.34	23931	
570.53	21854	
570.72	21971	
570.91	24424	
571.11	23526	
571.3	22167	
571.49	22810	
571.69	23733	
571.88	23360	
572.07	22712	
572.27	22440	
572.46	23389	
572.65	24107	
572.85	22044	
573.04	22325	
573.23	24526	
573.43	23811	
573.62	22174	
573.81	22720	
574	24175	
574.2	23978	
574.39	22818	
574.58	22691	
574.78	25312	
574.97	24612	
575.16	23128	
575.36	23504	
575.55	25252	
575.74	25233	
575.93	22694	
576.13	23806	
576.32	24577	
576.51	25352	
576.71	23272	
576.9	24294	
577.09	25419	
577.28	25064	
577.48	23565	
577.67	23029	
577.86	24991	
578.05	25144	
578.25	23354	
578.44	23389	
578.63	24964	
578.83	26172	
579.02	23105	
579.21	24378	
579.4	25185	
579.6	25146	
579.79	23553	
579.98	25369	
580.17	25566	
580.37	25871	
580.56	23253	
580.75	24001	
580.94	25854	
581.14	25987	
581.33	24328	
581.52	23583	
581.71	25657	
581.91	25952	
582.1	23519	
582.29	23677	
582.48	25446	
582.68	25486	
582.87	24201	
583.06	23890	
583.25	25796	
583.45	25137	
583.64	24666	
583.83	25318	
584.02	25314	
584.21	25898	
584.41	24481	
584.6	24113	
584.79	25685	
584.98	26107	
585.18	23701	
585.37	23637	
585.56	25316	
585.75	25930	
585.94	23614	
586.14	24291	
586.33	25818	
586.52	25400	
586.71	23881	
586.91	23767	
587.1	24526	
587.29	25365	
587.48	23046	
587.67	23325	
587.87	24964	
588.06	24761	
588.25	23995	
588.44	23455	
588.63	24608	
588.83	24958	
589.02	22769	
589.21	22662	
589.4	24002	
589.59	24006	
589.78	21347	
589.98	21448	
590.17	22687	
590.36	22930	
590.55	20079	
590.74	20384	
590.94	23164	
591.13	21917	
591.32	20119	
591.51	19639	
591.7	22289	
591.89	22051	
592.09	19934	
592.28	20388	
592.47	21526	
592.66	23400	
592.85	20154	
593.05	20460	
593.24	22065	
593.43	22818	
593.62	20568	
593.81	20914	
594	22276	
594.19	22371	
594.39	20347	
594.58	20418	
594.77	22644	
594.96	22866	
595.15	20279	
595.34	20753	
595.54	22226	
595.73	21451	
595.92	19579	
596.11	20157	
596.3	22265	
596.49	21454	
596.68	20085	
596.88	20414	
597.07	22143	
597.26	21291	
597.45	19660	
597.64	20631	
597.83	21609	
598.02	22203	
598.22	19883	
598.41	20483	
598.6	21879	
598.79	21375	
598.98	19759	
599.17	20566	
599.36	21871	
599.55	22726	
599.74	21252	
599.94	21276	
600.13	22083	
600.32	21259	
600.51	19506	
600.7	19691	
600.89	22379	
601.08	22653	
601.27	19532	
601.47	20431	
601.66	21887	
601.85	22340	
602.04	19973	
602.23	20080	
602.42	21186	
602.61	21694	
602.8	19823	
602.99	19527	
603.18	21450	
603.37	21630	
603.57	19800	
603.76	20436	
603.95	22158	
604.14	21975	
604.33	19734	
604.52	20022	
604.71	21841	
604.9	21332	
605.09	20288	
605.28	20289	
605.47	22384	
605.66	21870	
605.86	20213	
606.05	19735	
606.24	22076	
606.43	20940	
606.62	20030	
606.81	20611	
607	21958	
607.19	21349	
607.38	19381	
607.57	19579	
607.76	21116	
607.95	20679	
608.14	19977	
608.33	20317	
608.52	21096	
608.72	21831	
608.91	19149	
609.1	19215	
609.29	21110	
609.48	20366	
609.67	19481	
609.86	18935	
610.05	20672	
610.24	20697	
610.43	18941	
610.62	18438	
610.81	21519	
611	21459	
611.19	19135	
611.38	19373	
611.57	20900	
611.76	22046	
611.95	18742	
612.14	18458	
612.33	20705	
612.52	20493	
612.71	19136	
612.9	18551	
613.09	20200	
613.28	21799	
613.47	19011	
613.66	19738	
613.85	20904	
614.04	20302	
614.24	18914	
614.43	18328	
614.62	20878	
614.81	20858	
615	19181	
615.19	19411	
615.38	20434	
615.57	20900	
615.76	19358	
615.95	20097	
616.14	21110	
616.33	20984	
616.52	19515	
616.71	19741	
616.9	20949	
617.09	20950	
617.28	19158	
617.47	19964	
617.66	20563	
617.85	20523	
618.04	20015	
618.22	19691	
618.41	21031	
618.6	21857	
618.79	19706	
618.98	19762	
619.17	22183	
619.36	20856	
619.55	20042	
619.74	19880	
619.93	21707	
620.12	21421	
620.31	20573	
620.5	20816	
620.69	22746	
620.88	22878	
621.07	21409	
621.26	20729	
621.45	22392	
621.64	22423	
621.83	20849	
622.02	20377	
622.21	22423	
622.4	22470	
622.59	21364	
622.78	21403	
622.97	21951	
623.16	22885	
623.35	21054	
623.54	20202	
623.72	22401	
623.91	22312	
624.1	21293	
624.29	20180	
624.48	23230	
624.67	22508	
624.86	21171	
625.05	20457	
625.24	23397	
625.43	22220	
625.62	22407	
625.81	20572	
626	22715	
626.19	22522	
626.38	21265	
626.56	20981	
626.75	22227	
626.94	22956	
627.13	21149	
627.32	20257	
627.51	22838	
627.7	23767	
627.89	20266	
628.08	21250	
628.27	22026	
628.46	22100	
628.65	20395	
628.83	20089	
629.02	22290	
629.21	21886	
629.4	20747	
629.59	20921	
629.78	22042	
629.97	22435	
630.16	20895	
630.35	20491	
630.54	22988	
630.72	22778	
630.91	20605	
631.1	20927	
631.29	22401	
631.48	22483	
631.67	20939	
631.86	20312	
632.05	22226	
632.24	22089	
632.42	20033	
632.61	20703	
632.8	21927	
632.99	21877	
633.18	20802	
633.37	20839	
633.56	22139	
633.75	22183	
633.93	20730	
634.12	20707	
634.31	22825	
634.5	22790	
634.69	20597	
634.88	20711	
635.07	22200	
635.25	22569	
635.44	21143	
635.63	21332	
635.82	21900	
636.01	21407	
636.2	20885	
636.39	20749	
636.57	22683	
636.76	22218	
636.95	20320	
637.14	20990	
637.33	22199	
637.52	22737	
637.7	20118	
637.89	20953	
638.08	21886	
638.27	22915	
638.46	20804	
638.65	20862	
638.83	22625	
639.02	21510	
639.21	20570	
639.4	20902	
639.59	21622	
639.78	21451	
639.96	19606	
640.15	19559	
640.34	21456	
640.53	21454	
640.72	19439	
640.91	19484	
641.09	20910	
641.28	21797	
641.47	19516	
641.66	20051	
641.85	21454	
642.03	21277	
642.22	19741	
642.41	19402	
642.6	20708	
642.79	20222	
642.97	18925	
643.16	19685	
643.35	20577	
643.54	20226	
643.73	18848	
643.91	19484	
644.1	19725	
644.29	20785	
644.48	18668	
644.67	18564	
644.85	19895	
645.04	20248	
645.23	17953	
645.42	18292	
645.6	19415	
645.79	20180	
645.98	17754	
646.17	16873	
646.36	18699	
646.54	19074	
646.73	17854	
646.92	17124	
647.11	18458	
647.29	19220	
647.48	17097	
647.67	16808	
647.86	19260	
648.05	19463	
648.23	17066	
648.42	18082	
648.61	18890	
648.8	18606	
648.98	16711	
649.17	16870	
649.36	18090	
649.55	18042	
649.73	16502	
649.92	17365	
650.11	18437	
650.3	18654	
650.48	16779	
650.67	16728	
650.86	18642	
651.05	17742	
651.23	16581	
651.42	16575	
651.61	17967	
651.79	17922	
651.98	16705	
652.17	16337	
652.36	18167	
652.54	17447	
652.73	16341	
652.92	16233	
653.11	18129	
653.29	18259	
653.48	15670	
653.67	16404	
653.85	17812	
654.04	18665	
654.23	16426	
654.42	15864	
654.6	16935	
654.79	17541	
654.98	14962	
655.16	15299	
655.35	16159	
655.54	15864	
655.73	14578	
655.91	14336	
656.1	16589	
656.29	15750	
656.47	14326	
656.66	15681	
656.85	16306	
657.03	16616	
657.22	15096	
657.41	15320	
657.59	16827	
657.78	16757	
657.97	15182	
658.16	15683	
658.34	17320	
658.53	17759	
658.72	16277	
658.9	16675	
659.09	17147	
659.28	17107	
659.46	15581	
659.65	15452	
659.84	16989	
660.02	17414	
660.21	15685	
660.4	15349	
660.58	17712	
660.77	17211	
660.96	15908	
661.14	15101	
661.33	17952	
661.52	17916	
661.7	15122	
661.89	17664	
662.08	16811	
662.26	16471	
662.45	15210	
662.64	15261	
662.82	17238	
663.01	16650	
663.2	15215	
663.38	15832	
663.57	17094	
663.75	16865	
663.94	15485	
664.13	16206	
664.31	16622	
664.5	17166	
664.69	15464	
664.87	16180	
665.06	16367	
665.25	17114	
665.43	16262	
665.62	16263	
665.8	17079	
665.99	16542	
666.18	15325	
666.36	15403	
666.55	16977	
666.74	17051	
666.92	14967	
667.11	16176	
667.29	16513	
667.48	16957	
667.67	15844	
667.85	15208	
668.04	16421	
668.22	16617	
668.41	15388	
668.6	15384	
668.78	16258	
668.97	16508	
669.15	15522	
669.34	14756	
669.53	16473	
669.71	16617	
669.9	14709	
670.08	15315	
670.27	16309	
670.46	16655	
670.64	15565	
670.83	15666	
671.01	16019	
671.2	16413	
671.38	14881	
671.57	14595	
671.76	16976	
671.94	17605	
672.13	14683	
672.31	15666	
672.5	16773	
672.69	16163	
672.87	14861	
673.06	15179	
673.24	16638	
673.43	16451	
673.61	15226	
673.8	14855	
673.98	16669	
674.17	16743	
674.36	15498	
674.54	15270	
674.73	16533	
674.91	16622	
675.1	15142	
675.28	14749	
675.47	16338	
675.65	16707	
675.84	14932	
676.03	15211	
676.21	16253	
676.4	15819	
676.58	15520	
676.77	15436	
676.95	17326	
677.14	15984	
677.32	14709	
677.51	14526	
677.69	16620	
677.88	15925	
678.06	14579	
678.25	14509	
678.44	16475	
678.62	16105	
678.81	14308	
678.99	15276	
679.18	16879	
679.36	16604	
679.55	14863	
679.73	15528	
679.92	16423	
680.1	16124	
680.29	15926	
680.47	14769	
680.66	16002	
680.84	16584	
681.03	14410	
681.21	15104	
681.4	16075	
681.58	15866	
681.77	14671	
681.95	14644	
682.14	16528	
682.32	16782	
682.51	15212	
682.69	14218	
682.88	15797	
683.06	16049	
683.25	14941	
683.43	15288	
683.62	16041	
683.8	16206	
683.99	15328	
684.17	14733	
684.36	16862	
684.54	15524	
684.73	13605	
684.91	13611	
685.1	15379	
685.28	14524	
685.46	13573	
685.65	13304	
685.83	14610	
686.02	14181	
686.2	12633	
686.39	12820	
686.57	14089	
686.76	15346	
686.94	13067	
687.13	13177	
687.31	14787	
687.5	14805	
687.68	12803	
687.86	13835	
688.05	16035	
688.23	14379	
688.42	13812	
688.6	13410	
688.79	14795	
688.97	14833	
689.16	13856	
689.34	13054	
689.52	15599	
689.71	15690	
689.89	14160	
690.08	13678	
690.26	15242	
690.45	15163	
690.63	14236	
690.81	13809	
691	15015	
691.18	14889	
691.37	13727	
691.55	15258	
691.74	14708	
691.92	16215	
692.1	13550	
692.29	13108	
692.47	14795	
692.66	14286	
692.84	13214	
693.02	13549	
693.21	14379	
693.39	14666	
693.58	13992	
693.76	13469	
693.94	15780	
694.13	15862	
694.31	13646	
694.5	14474	
694.68	14974	
694.86	15495	
695.05	14064	
695.23	14315	
695.42	15802	
695.6	17486	
695.78	14756	
695.97	13894	
696.15	15919	
696.34	15375	
696.52	13794	
696.7	14365	
696.89	15573	
697.07	14876	
697.25	13999	
697.44	15262	
697.62	15278	
697.81	15256	
697.99	13601	
698.17	14109	
698.36	14622	
698.54	15113	
698.72	13872	
698.91	12994	
699.09	14633	
699.28	14468	
699.46	13513	
699.64	13360	
699.83	14560	
700.01	15202	
700.19	13923	
700.38	12825	
700.56	15339	
700.74	14535	
700.93	13084	
701.11	13766	
701.29	14960	
701.48	15947	
701.66	13320	
701.84	13645	
702.03	14887	
702.21	15537	
702.39	13132	
702.58	13659	
702.76	15306	
702.94	15302	
703.13	13162	
703.31	14918	
703.49	14716	
703.68	15286	
703.86	13211	
704.04	14052	
704.23	14949	
704.41	15240	
704.59	13396	
704.78	13900	
704.96	16166	
705.14	15074	
705.33	13263	
705.51	13695	
705.69	14715	
705.87	15387	
706.06	13870	
706.24	13084	
706.42	14901	
706.61	15145	
706.79	13781	
706.97	12958	
707.16	14437	
707.34	14704	
707.52	13633	
707.7	13060	
707.89	14319	
708.07	14045	
708.25	13609	
708.44	13826	
708.62	14263	
708.8	15067	
708.98	13711	
709.17	12994	
709.35	14476	
709.53	14384	
709.72	12683	
709.9	12874	
710.08	14629	
710.26	14513	
710.45	13733	
710.63	12734	
710.81	14174	
710.99	14154	
711.18	13053	
711.36	12588	
711.54	13887	
711.72	14314	
711.91	12503	
712.09	12015	
712.27	13812	
712.45	14204	
712.64	12332	
712.82	11565	
713	13127	
713.18	13069	
713.37	11503	
713.55	12241	
713.73	13449	
713.91	12192	
714.1	11207	
714.28	10501	
714.46	12306	
714.64	11518	
714.83	9353.8	
715.01	9766.8	
715.19	11034	
715.37	10270	
715.55	9062.9	
715.74	9357.9	
715.92	11262	
716.1	9644.6	
716.28	9972.2	
716.47	9164.7	
716.65	10098	
716.83	10071	
717.01	8888.2	
717.19	8971.5	
717.38	11674	
717.56	9767.4	
717.74	9217.2	
717.92	8643.8	
718.1	10944	
718.29	10210	
718.47	8498.4	
718.65	9218.6	
718.83	11278	
719.01	11342	
719.2	9061.6	
719.38	9886.9	
719.56	11320	
719.74	12449	
719.92	9600.2	
720.11	10269	
720.29	11185	
720.47	10441	
720.65	8832.9	
720.83	9332.6	
721.02	10244	
721.2	9961.3	
721.38	9121.7	
721.56	8430.1	
721.74	9430.2	
721.92	9501.9	
722.11	9288.2	
722.29	9033.6	
722.47	10476	
722.65	9842.5	
722.83	8216.5	
723.01	8881.4	
723.2	9803.6	
723.38	10047	
723.56	7857.4	
723.74	8764.6	
723.92	9445.9	
724.1	10397	
724.29	8174.8	
724.47	9035	
724.65	9398.1	
724.83	9262.3	
725.01	8018.5	
725.19	8549.6	
725.37	9218.6	
725.56	9353.8	
725.74	7880.6	
725.92	8158.4	
726.1	9288.2	
726.28	9460.9	
726.46	8295	
726.64	8087.4	
726.83	9404.3	
727.01	9512.1	
727.19	7794.6	
727.37	8382.3	
727.55	9437.7	
727.73	9810.5	
727.91	7610.9	
728.09	7523.6	
728.28	9942.9	
728.46	10094	
728.64	8427.4	
728.82	8454.7	
729	10786	
729.18	10277	
729.36	7834.8	
729.54	9652.8	
729.72	11090	
729.91	9957.2	
730.09	9484.8	
730.27	8610.3	
730.45	9855.5	
730.63	10251	
730.81	9075.2	
730.99	8452.6	
731.17	10815	
731.35	9693	
731.53	8910.7	
731.71	8518.2	
731.9	10462	
732.08	10486	
732.26	8615.1	
732.44	8368.7	
732.62	10415	
732.8	10210	
732.98	8766	
733.16	8100.4	
733.34	10058	
733.52	8956.4	
733.7	8357.1	
733.88	8615.1	
734.07	9781.1	
734.25	9603.6	
734.43	7910.6	
734.61	9087.5	
734.79	10857	
734.97	9572.2	
735.15	7996.6	
735.33	8267.6	
735.51	9766.8	
735.69	9411.1	
735.87	9037	
736.05	8249.9	
736.23	9458.2	
736.41	9196.1	
736.59	8232.2	
736.77	8232.8	
736.95	9934.7	
737.13	9371.5	
737.32	7828.7	
737.5	8036.9	
737.68	10316	
737.86	9193.3	
738.04	7591.8	
738.22	8891.6	
738.4	8893.6	
738.58	9260.2	
738.76	7872.4	
738.94	7232.1	
739.12	9099.8	
739.3	8946.9	
739.48	8413.1	
739.66	8208.3	
739.84	9230.9	
740.02	9222	
740.2	7249.8	
740.38	7430	
740.56	9471.2	
740.74	8520.2	
740.92	7888.1	
741.1	7740.6	
741.28	8932.6	
741.46	8724.3	
741.64	7456.7	
741.82	7791.2	
742	8956.4	
742.18	8773.5	
742.36	7557.7	
742.54	7202.7	
742.72	9256.1	
742.9	8247.9	
743.08	7718.1	
743.26	6853.9	
743.44	9269.1	
743.62	9172.9	
743.8	7838.3	
743.98	7027.3	
744.16	8955.1	
744.34	8635.6	
744.52	7617.1	
744.7	7607.5	
744.88	8921.6	
745.06	8458.1	
745.24	7559.1	
745.42	7577.5	
745.6	8888.2	
745.78	8665.6	
745.96	6520.7	
746.14	6746.7	
746.32	9348.3	
746.5	8649.3	
746.68	7117.4	
746.86	6743.3	
747.03	8901.2	
747.21	7671	
747.39	6976.1	
747.57	6571.2	
747.75	8262.2	
747.93	8509.3	
748.11	6518	
748.29	6480.5	
748.47	9416.6	
748.65	7978.9	
748.83	7039.6	
749.01	6894.8	
749.19	8303.8	
749.37	7633.5	
749.55	6701.6	
749.73	6777.4	
749.91	8036.2	
750.09	7802.8	
750.26	6716	
750.44	6242.9	
750.62	8004.8	
750.8	7938.6	
750.98	6173.3	
751.16	6365.1	
751.34	8088.8	
751.52	7430.7	
751.7	6993.8	
751.88	6041.5	
752.06	8372.1	
752.24	8101.8	
752.42	5990.3	
752.59	6208.1	
752.77	7767.3	
752.95	8769.4	
753.13	6760.3	
753.31	6279.8	
753.49	7521.5	
753.67	7819.8	
753.85	6482.5	
754.03	6066.8	
754.21	7905.8	
754.38	8034.9	
754.56	6077	
754.74	5276.3	
754.92	7063.4	
755.1	7514	
755.28	5108.3	
755.46	5018.9	
755.64	7830.1	
755.82	7712	
755.99	4707.6	
756.17	4659.1	
756.35	5313.1	
756.53	6417.7	
756.71	3612.6	
756.89	4248.9	
757.07	6038.8	
757.25	5440.1	
757.42	4769	
757.6	5519.3	
757.78	6339.1	
757.96	5711.1	
758.14	4777.2	
758.32	4428.4	
758.5	5376.6	
758.67	5948.7	
758.85	4537.6	
759.03	4670.1	
759.21	6070.9	
759.39	5580	
759.57	4241.3	
759.75	5055.8	
759.92	6559	
760.1	6118.6	
760.28	5440.8	
760.46	5729.5	
760.64	6038.1	
760.82	5834	
760.99	5269.4	
761.17	4815.5	
761.35	6649.8	
761.53	5932.3	
761.71	5006.6	
761.89	5576.6	
762.06	6736.5	
762.24	6292	
762.42	5130.2	
762.6	4941.7	
762.78	6331.6	
762.96	6816.3	
763.13	5460.6	
763.31	5242.1	
763.49	6972	
763.67	6303.6	
763.85	5836.7	
764.02	6272.2	
764.2	7229.3	
764.38	6593.1	
764.56	5038.7	
764.74	5729.5	
764.91	7264.8	
765.09	6267.5	
765.27	4860.5	
765.45	4683.7	
765.63	7287.4	
765.8	7086.7	
765.98	4464.6	
766.16	4721.3	
766.34	5976	
766.52	5735	
766.69	5421.7	
766.87	4457.7	
767.05	6270.2	
767.23	6815.6	
767.41	4649.6	
767.58	4905.6	
767.76	6670.9	
767.94	6677.7	
768.12	4692.6	
768.29	5266	
768.47	6149.4	
768.65	6719.4	
768.83	4336.9	
769	5180	
769.18	5834	
769.36	6302.3	
769.54	5191.6	
769.72	4368.3	
769.89	6584.9	
770.07	6553.5	
770.25	4568.3	
770.43	5533.6	
770.6	7017.7	
770.78	7359.7	
770.96	4701.5	
771.14	5158.2	
771.31	6406.7	
771.49	5851.7	
771.67	3992.9	
771.85	4131.4	
772.02	5270.1	
772.2	5827.8	
772.38	4787.5	
772.55	4296	
772.73	5984.8	
772.91	5811.5	
773.09	4536.3	
773.26	4625.7	
773.44	5918.6	
773.62	5670.1	
773.8	4161.5	
773.97	3976.5	
774.15	5907.7	
774.33	5655.8	
774.5	4001	
774.68	4319.8	
774.86	5973.2	
775.04	5571.8	
775.21	4077.5	
775.39	4052.2	
775.57	5808	
775.74	5984.8	
775.92	3892.5	
776.1	3774.4	
776.27	5728.9	
776.45	6636.1	
776.63	4016.1	
776.81	3696.6	
776.98	5444.9	
777.16	6210.8	
777.34	4132.8	
777.51	4273.4	
777.69	5402.5	
777.87	5197.1	
778.04	4129.4	
778.22	4516.5	
778.4	5229.8	
778.57	5728.2	
778.75	3503.4	
778.93	3770.3	
779.1	5063.9	
779.28	5008	
779.46	3472.7	
779.64	3824.9	
779.81	5835.3	
779.99	6414.2	
780.17	4462.5	
780.34	4508.9	
780.52	5340.4	
780.69	5424.4	
780.87	4045.4	
781.05	3732.8	
781.22	5366.4	
781.4	5425.1	
781.58	3775.1	
781.75	3175	
781.93	5308.3	
782.11	4811.4	
782.28	4479.6	
782.46	3743.7	
782.64	4773.1	
782.81	5507	
782.99	3840.6	
783.17	3767.6	
783.34	5328.1	
783.52	4762.2	
783.69	3857	
783.87	4494.6	
784.05	4910.3	
784.22	4790.2	
784.4	4515.8	
784.58	3928.7	
784.75	5556.8	
784.93	4868	
785.1	3650.8	
785.28	4177.2	
785.46	5412.8	
785.63	4734.9	
785.81	3637.9	
785.99	3498.6	
786.16	4939	
786.34	5257.8	
786.51	3567.6	
786.69	3863.2	
786.87	4573.1	
787.04	4999.1	
787.22	3414.6	
787.39	4201.1	
787.57	4762.9	
787.75	5616.2	
787.92	4292.5	
788.1	4264.6	
788.27	4763.6	
788.45	4590.2	
788.63	4063.9	
788.8	3055.6	
788.98	5240.1	
789.15	4518.5	
789.33	3186	
789.5	3587.4	
789.68	5487.2	
789.86	5495.4	
790.03	3910.3	
790.21	3474.7	
790.38	5530.9	
790.56	4832.5	
790.73	3449.5	
790.91	3382.6	
791.09	4695.3	
791.26	5300.8	
791.44	3629	
791.61	3198.2	
791.79	4751.3	
791.96	4697.4	
792.14	3194.1	
792.32	2948.4	
792.49	4693.9	
792.67	4833.2	
792.84	3320.4	
793.02	3168.9	
793.19	5137	
793.37	5588.9	
793.54	2940.2	
793.72	3233.7	
793.89	5673.6	
794.07	4670.7	
794.25	3658.4	
794.42	3015.3	
794.6	5527.5	
794.77	5210	
794.95	3862.5	
795.12	3404.4	
795.3	4687.1	
795.47	5121.3	
795.65	3692.5	
795.82	3509.5	
796	4569	
796.17	5972.6	
796.35	3483.6	
796.52	4034.5	
796.7	5118.6	
796.87	5198.4	
797.05	3463.1	
797.22	4078.9	
797.4	5197.1	
797.57	5856.5	
797.75	3575.8	
797.92	3371.6	
798.1	5408	
798.27	4543.1	
798.45	2965.5	
798.62	3210.5	
798.8	4859.1	
798.97	5307.7	
799.15	3773.7	
799.32	3552.5	
799.5	4285	
799.67	4908.3	
799.85	3848.1	
800.02	2911.5	
800.2	4608.6	
800.37	4812.7	
800.55	3944.4	
800.72	3384.6	
800.9	5248.9	
801.07	5581.4	
801.25	4378.6	
801.42	3687	
801.6	5296	
801.77	4966.3	
801.95	3418.1	
802.12	3284.3	
802.29	5074.2	
802.47	4980	
802.64	3664.5	
802.82	2818.7	
802.99	4594.3	
803.17	5297.4	
803.34	3519.1	
803.52	3211.2	
803.69	5820.3	
803.87	4415.4	
804.04	3513.6	
804.21	3525.2	
804.39	5473.5	
804.56	4692.6	
804.74	3035.1	
804.91	3671.3	
805.09	4600.4	
805.26	4648.2	
805.44	3120.4	
805.61	3331.4	
805.78	5163.6	
805.96	5114.5	
806.13	3585.3	
806.31	3915.7	
806.48	4234.5	
806.66	4633.9	
806.83	3633.1	
807	3451.5	
807.18	4631.1	
807.35	4893.3	
807.53	3535.5	
807.7	2918.4	
807.87	5495.4	
808.05	4631.1	
808.22	3811.3	
808.4	2839.8	
808.57	4575.2	
808.74	4321.9	
808.92	3227.6	
809.09	4041.3	
809.27	4508.9	
809.44	4962.2	
809.61	2888.3	
809.79	3140.9	
809.96	5561.6	
810.14	5126.7	
810.31	2815.3	
810.48	3366.2	
810.66	4657.8	
810.83	5197.7	
811.01	3250.8	
811.18	3575.8	
811.35	5167.7	
811.53	4107.5	
811.7	3858.4	
811.87	3571	
812.05	4656.4	
812.22	4525.3	
812.39	3174.4	
812.57	3018.7	
812.74	4635.9	
812.92	5885.2	
813.09	3392.8	
813.26	3588.7	
813.44	5642.2	
813.61	4455	
813.78	2888.3	
813.96	3727.3	
814.13	4615.4	
814.3	4372.4	
814.48	4033.8	
814.65	3312.9	
814.82	5398.4	
815	4358.1	
815.17	3469.3	
815.34	4135.5	
815.52	4529.4	
815.69	4471.4	
815.87	3422.2	
816.04	3355.3	
816.21	4619.5	
816.38	4122.6	
816.56	3304.1	
816.73	3150.5	
816.9	5651	
817.08	5122	
817.25	3131.3	
817.42	3826.3	
817.6	4240	
817.77	4496.7	
817.94	3495.2	
818.12	3136.1	
818.29	4354.7	
818.46	6293.4	
818.64	3248.1	
818.81	2996.2	
818.98	4373.8	
819.16	5997.8	
819.33	3641.3	
819.5	3489.7	
819.67	4842.1	
819.85	5424.4	
820.02	3414.6	
820.19	3586	
820.37	4749.9	
820.54	4524	
820.71	3504.1	
820.88	4259.1	
821.06	4732.2	
821.23	4402.5	
821.4	3492.5	
821.58	3488.4	
821.75	5092.6	
821.92	4711.7	
822.09	2839.2	
822.27	3060.3	
822.44	4581.3	
822.61	4466.6	
822.79	2887.6	
822.96	5179.3	
823.13	4883.7	
823.3	4268.6	
823.48	3297.9	
823.65	2974.3	
823.82	5066	
823.99	4263.9	
824.17	4080.2	
824.34	3092.4	
824.51	5752.1	
824.68	4631.1	
824.86	3181.2	
825.03	3463.1	
825.2	4557.4	
825.37	5327.4	
825.55	3103.4	
825.72	3464.5	
825.89	5799.8	
826.06	5395.7	
826.24	3321.8	
826.41	3315.7	
826.58	5437.4	
826.75	4795	
826.92	2744.3	
827.1	3013.9	
827.27	7135.1	
827.44	5763.7	
827.61	3200.3	
827.79	3781.2	
827.96	4403.8	
828.13	4572.4	
828.3	3318.4	
828.47	2807.8	
828.65	4907.6	
828.82	4751.3	
828.99	4092.5	
829.16	3687	
829.34	5031.9	
829.51	4900.8	
829.68	3411.2	
829.85	3530.7	
830.02	5374.6	
830.2	5147.9	
830.37	2682.8	
830.54	4012	
830.71	5702.2	
830.88	4599.7	
831.05	2719.7	
831.23	3117.7	
831.4	5514.5	
831.57	5963.7	
831.74	3203.7	
831.91	2822.1	
832.09	4885.8	
832.26	5102.9	
832.43	3300	
832.6	3667.2	
832.77	4854.4	
832.94	5418.2	
833.12	2638.5	
833.29	3263.8	
833.46	4926	
833.63	6176	
833.8	3594.9	
833.97	3283.6	
834.15	5128.1	
834.32	4920.6	
834.49	3437.2	
834.66	3499.3	
834.83	5201.8	
835	4385.4	
835.17	3171.6	
835.35	3214.6	
835.52	5026.4	
835.69	4883	
835.86	3315.7	
836.03	2773.6	
836.2	5087.8	
836.37	4775.2	
836.55	3229	
836.72	3070.6	
836.89	4795	
837.06	5119.9	
837.23	3336.1	
837.4	3575.8	
837.57	5724.1	
837.75	6180.1	
837.92	3024.8	
838.09	3216.7	
838.26	4760.8	
838.43	5208.7	
838.6	3442.6	
838.77	3022.8	
838.94	5853.8	
839.11	5754.1	
839.29	3304.1	
839.46	2613.9	
839.63	5119.2	
839.8	4915.1	
839.97	3195.5	
840.14	3136.1	
840.31	4933.6	
840.48	5113.8	
840.65	2728.6	
840.82	3116.3	
841	5029.1	
841.17	5002.5	
841.34	2939.5	
841.51	3021.4	
841.68	5037.3	
841.85	4831.8	
842.02	3075.4	
842.19	2613.9	
842.36	4941.1	
842.53	4900.1	
842.7	2953.2	
842.87	3519.8	
843.05	6135	
843.22	4832.5	
843.39	2826.9	
843.56	3012.6	
843.73	4697.4	
843.9	5186.1	
844.07	4635.2	
844.24	3835.2	
844.41	6926.2	
844.58	4469.4	
844.75	2857.6	
844.92	3076	
845.09	5046.9	
845.26	5003.9	
845.43	2935.4	
845.6	3110.2	
845.77	5036.6	
845.94	4831.8	
846.12	3193.5	
846.29	3383.9	
846.46	5204.6	
846.63	5006.6	
846.8	2928.6	
846.97	3435.1	
847.14	5419.6	
847.31	5022.3	
847.48	3288.4	
847.65	3622.2	
847.82	5226.4	
847.99	5199.8	
848.16	3816.7	
848.33	3534.8	
848.5	4696	
848.67	5395	
848.84	2847.4	
849.01	3057.6	
849.18	4631.1	
849.35	4350.6	
849.52	3556	
849.69	2896.5	
849.86	5257.1	
850.03	5292	
850.2	2973.7	
850.37	3469.9	
850.54	5335	
850.71	4793.6	
850.88	3461.1	
851.05	2860.3	
851.22	4939	
851.39	5444.9	
851.56	2763.4	
851.73	3348.4	
851.9	4519.9	
852.07	5193	
852.24	3218	
852.41	2912.9	
852.58	4954	
852.75	4558.1	
852.92	3224.2	
853.09	2849.4	
853.26	4689.8	
853.43	5310.4	
853.6	2927.2	
853.77	2527.2	
853.94	5433.3	
854.11	4443.4	
854.28	4158.7	
854.44	3157.3	
854.61	5756.8	
854.78	5248.9	
854.95	2919	
855.12	3621.5	
855.29	4164.9	
855.46	5711.1	
855.63	2967.5	
855.8	3891.8	
855.97	4653	
856.14	5325.4	
856.31	4043.4	
856.48	3144.3	
856.65	4691.2	
856.82	4437.3	
856.99	2788	
857.16	3127.9	
857.33	5963	
857.49	4743.1	
857.66	3092.4	
857.83	3312.2	
858	4747.9	
858.17	4973.2	
858.34	2785.2	
858.51	2887	
858.68	5537.7	
858.85	5537	
859.02	3365.5	
859.19	3551.9	
859.36	4545.1	
859.52	4470.7	
859.69	2989.4	
859.86	3381.9	
860.03	4523.3	
860.2	5419.6	
860.37	2645.3	
860.54	2944.3	
860.71	5193	
860.88	5505.6	
861.05	3216.7	
861.21	3611.3	
861.38	5494	
861.55	4353.3	
861.72	2719.7	
861.89	3203.7	
862.06	5264.6	
862.23	5643.5	
862.4	2877.4	
862.56	3021.4	
862.73	5162.2	
862.9	4894	
863.07	3331.4	
863.24	2736.1	
863.41	4383.3	
863.58	4495.3	
863.75	2973	
863.91	3366.2	
864.08	5388.9	
864.25	5129.5	
864.42	3601.7	
864.59	4022.9	
864.76	5672.9	
864.93	4490.5	
865.09	2871.9	
865.26	3046	
865.43	5335.6	
865.6	5662.6	
865.77	2592.7	
865.94	2875.3	
866.1	5392.3	
866.27	5162.2	
866.44	4305.5	
866.61	2789.3	
866.78	4778.6	
866.95	5099.4	
867.11	2861	
867.28	2644.6	
867.45	5269.4	
867.62	4529.4	
867.79	3293.8	
867.96	2923.8	
868.12	4438.6	
868.29	5243.5	
868.46	2892.4	
868.63	3869.3	
868.8	5332.9	
868.97	5152	
869.13	3035.8	
869.3	2989.4	
869.47	5039.4	
869.64	5248.3	
869.81	2911.5	
869.97	2889	
870.14	4999.1	
870.31	5543.2	
870.48	2877.4	
870.65	3623.5	
870.81	4771.8	
870.98	4834.6	
871.15	3231	
871.32	3001	
871.48	5053.7	
871.65	5569.1	
871.82	2853.5	
871.99	3208.5	
872.16	5888.6	
872.32	5371.8	
872.49	2966.8	
872.66	2931.3	
872.83	5205.3	
872.99	4606.6	
873.16	3267.9	
873.33	2884.2	
873.5	4921.3	
873.67	4940.4	
873.83	3087.7	
874	3849.5	
874.17	4995.7	
874.34	5776.6	
874.5	3683.6	
874.67	3568.2	
874.84	5453.7	
875.01	4395.6	
875.17	3992.2	
875.34	2863.7	
875.51	4972.5	
875.68	5840.1	
875.84	3459	
876.01	4122.6	
876.18	5161.6	
876.34	5114.5	
876.51	2891.7	
876.68	2835.1	
876.85	4663.9	
877.01	5339.7	
877.18	4049.5	
877.35	2881.5	
877.52	4915.1	
877.68	4421.6	
877.85	2839.2	
878.02	2863.1	
878.18	4743.8	
878.35	4616.8	
878.52	2350.4	
878.69	3121.8	
878.85	5259.9	
879.02	5076.9	
879.19	4019.5	
879.35	3127.2	
879.52	5158.2	
879.69	5285.1	
879.86	2605	
880.02	3224.9	
880.19	4810.7	
880.36	5745.2	
880.52	3272	
880.69	3427.6	
880.86	5180	
881.02	5251.7	
881.19	3158	
881.36	3118.4	
881.52	5092.6	
881.69	4619.5	
881.86	3123.8	
882.02	3084.9	
882.19	5333.6	
882.36	6110.5	
882.52	2981.8	
882.69	3999.7	
882.86	4989.5	
883.02	4924	
883.19	3538.9	
883.36	3284.9	
883.52	5189.6	
883.69	5856.5	
883.86	2981.2	
884.02	2661	
884.19	5206.6	
884.36	4901.5	
884.52	3218.7	
884.69	3092.4	
884.86	4709	
885.02	5610.1	
885.19	3216.7	
885.36	3298.6	
885.52	4785.4	
885.69	4960.2	
885.86	4104.8	
886.02	3654.9	
886.19	5171.1	
886.35	4754	
886.52	3185.3	
886.69	4033.1	
886.85	4524	
887.02	5429.8	
887.19	5429.8	
887.35	5429.8	
887.52	5429.8	
887.68	5429.8	
887.85	5429.8	
888.02	5429.8	
888.18	5429.8	
888.35	5429.8	
888.51	5429.8	
888.68	5429.8	
888.85	5429.8	
889.01	5429.8	
889.18	5429.8	
889.35	5429.8	
889.51	5429.8	
889.68	5429.8	
889.84	5429.8	
890.01	5429.8	
890.17	5429.8	
890.34	5429.8	
890.51	5429.8	
890.67	5429.8	
890.84	5429.8	
891	5429.8	
891.17	5429.8	
891.34	5429.8	
891.5	5429.8	
891.67	5429.8	
891.83	5429.8	
892	5429.8	
892.16	5429.8	
892.33	5429.8	
892.5	5429.8	
892.66	5429.8	
892.83	5429.8	
892.99	5429.8	
893.16	5429.8	
893.32	5429.8	
893.49	5429.8	
893.65	5429.8	
893.82	5429.8	
893.99	5429.8	
894.15	5429.8	
894.32	5429.8	
894.48	5429.8	
894.65	5429.8	
894.81	5429.8	
894.98	5429.8	
895.14	5429.8	
895.31	5429.8	
895.47	5429.8	
895.64	5429.8	
895.81	5429.8	
895.97	5429.8	
896.14	5429.8	
896.3	5429.8	
896.47	5429.8	
896.63	5429.8	
896.8	5429.8	
896.96	5429.8	
897.13	5429.8	
897.29	5429.8	
897.46	5429.8	
897.62	5429.8	
897.79	5429.8	
897.95	5429.8	
898.12	5429.8	
898.28	5429.8	
898.45	5429.8	
898.61	5429.8	
898.78	5429.8	
898.94	5429.8	
899.11	5429.8	
899.27	5429.8	
899.44	5429.8	
899.6	5429.8	
899.77	5429.8	
899.93	5429.8	
900.1	5429.8	
900.26	5429.8	
900.43	5429.8	
900.59	5429.8	
900.76	5429.8	
900.92	5429.8	
901.09	5429.8	
901.25	5429.8	
901.42	5429.8	
901.58	5429.8	
901.75	5429.8	
901.91	5429.8	
902.07	5429.8	
902.24	5429.8	
902.4	5429.8	
902.57	5429.8	
902.73	5429.8	
902.9	5429.8	
903.06	5429.8	
903.23	5429.8	
903.39	5429.8	
903.56	5429.8	
903.72	5429.8	
903.88	5429.8	
904.05	5429.8	
904.21	5429.8	
904.38	5429.8	
904.54	5429.8	
904.71	5429.8	
904.87	5429.8	
905.03	5429.8	
905.2	5429.8	
905.36	5429.8	
905.53	5429.8	
905.69	5429.8	
905.86	5429.8	
906.02	5429.8	
906.18	5429.8	
906.35	5429.8	
906.51	5429.8	
906.68	5429.8	
906.84	5429.8	
907.01	5429.8	
907.17	5429.8	
907.33	5429.8	
907.5	5429.8	
907.66	5429.8	
907.83	5429.8	
907.99	5429.8	
908.15	5429.8	
908.32	5429.8	
908.48	5429.8	
908.65	5429.8	
908.81	5429.8	
908.97	5429.8	
909.14	5429.8	
909.3	5429.8	
909.47	5429.8	
909.63	5429.8	
909.79	5429.8	
909.96	5429.8	
910.12	5429.8	
910.28	5429.8	
910.45	5429.8	
910.61	5429.8	
910.78	5429.8	
910.94	5429.8	
911.1	5429.8	
911.27	5429.8	
911.43	5429.8	
911.59	5429.8	
911.76	5429.8	
911.92	5429.8	
912.08	5429.8	
912.25	5429.8	
912.41	5429.8	
912.57	5429.8	
912.74	5429.8	
912.9	5429.8	
913.07	5429.8	
913.23	5429.8	
913.39	5429.8	
913.56	5429.8	
913.72	5429.8	
913.88	5429.8	
914.05	5429.8	
914.21	5429.8	
914.37	5429.8	
914.54	5429.8	
914.7	5429.8	
914.86	5429.8	
915.03	5429.8	
915.19	5429.8	
