Wavelength	Intensities	
nm	a.u.	
179.22	1908	
179.44	1912.1	
179.65	1903.9	
179.86	1920.3	
180.08	1950.3	
180.29	5085.8	
180.51	3606.5	
180.72	5784.1	
180.94	6850.5	
181.15	3333.4	
181.37	3287.7	
181.58	5634	
181.79	5948.7	
182.01	3482.9	
182.22	3755.3	
182.44	5878.4	
182.65	4910.3	
182.87	4749.9	
183.08	4065.2	
183.29	6255.9	
183.51	5134.3	
183.72	3808.5	
183.94	5590.3	
184.15	5468.8	
184.37	5559.6	
184.58	3321.8	
184.79	4569.7	
185.01	5059.8	
185.22	5897.5	
185.44	4852.3	
185.65	4032.5	
185.86	5405.3	
186.08	4979.3	
186.29	3185.3	
186.51	3462.4	
186.72	5141.8	
186.94	6066.8	
187.15	3997.6	
187.36	4195.6	
187.58	7987.1	
187.79	5598.5	
188.01	4327.4	
188.22	6776	
188.43	6833.4	
188.65	5869.5	
188.86	3394.8	
189.08	4160.1	
189.29	5327.4	
189.5	5321.3	
189.72	3866.6	
189.93	3936.9	
190.15	6066.1	
190.36	7405.5	
190.57	4270	
190.79	4081.6	
191	6271.6	
191.22	6164.4	
191.43	4209.3	
191.64	3524.6	
191.86	6428.6	
192.07	6153.5	
192.29	3661.8	
192.5	3877.5	
192.71	6120.7	
192.93	5230.5	
193.14	3813.3	
193.35	3972.4	
193.57	5330.9	
193.78	6155.5	
194	3044	
194.21	3766.9	
194.42	5085.8	
194.64	5609.4	
194.85	4235.2	
195.07	4947.2	
195.28	5582.1	
195.49	4851	
195.71	5152.7	
195.92	3590.1	
196.13	5712.5	
196.35	5909.1	
196.56	5562.3	
196.78	4180.6	
196.99	7270.3	
197.2	6813.6	
197.42	4751.3	
197.63	4247.5	
197.84	4951.3	
198.06	5747.3	
198.27	3826.3	
198.48	5266	
198.7	5302.2	
198.91	5434.6	
199.13	4192.9	
199.34	4198.3	
199.55	5982.8	
199.77	4812	
199.98	3704.8	
200.19	4295.3	
200.41	5474.2	
200.62	5119.9	
200.83	4376.5	
201.05	4694.6	
201.26	5427.8	
201.47	5155.4	
201.69	3706.1	
201.9	3578.5	
202.11	5509.7	
202.33	6588.3	
202.54	3960.8	
202.76	4377.9	
202.97	5663.3	
203.18	5670.8	
203.4	4364.9	
203.61	4354.7	
203.82	5612.1	
204.04	5165	
204.25	4329.4	
204.46	4134.2	
204.68	5535.7	
204.89	5797.8	
205.1	4100	
205.32	3568.2	
205.53	5942.5	
205.74	6127.5	
205.96	3029.6	
206.17	4318.5	
206.38	5984.2	
206.6	6032.6	
206.81	4845.5	
207.02	3962.8	
207.24	5807.4	
207.45	6226.5	
207.66	4008.6	
207.88	3416.7	
208.09	5720.7	
208.3	5574.6	
208.52	3670.6	
208.73	4084.3	
208.94	5511.8	
209.15	6343.9	
209.37	4037.2	
209.58	4258.4	
209.79	6025.8	
210.01	5307	
210.22	3173.7	
210.43	3323.2	
210.65	5517.9	
210.86	6008.1	
211.07	4033.1	
211.29	3667.2	
211.5	5868.8	
211.71	5449	
211.93	3621.5	
212.14	3670	
212.35	5427.8	
212.56	5726.1	
212.78	4241.3	
212.99	3471.3	
213.2	6559.6	
213.42	5261.9	
213.63	3764.2	
213.84	4085.7	
214.06	4892.6	
214.27	4975.9	
214.48	3988.1	
214.69	4268	
214.91	6309.8	
215.12	6404	
215.33	4401.8	
215.55	4846.9	
215.76	6811.5	
215.97	5916.6	
216.18	4173.1	
216.4	4074.1	
216.61	5201.8	
216.82	6022.4	
217.04	3710.9	
217.25	3833.8	
217.46	6257.2	
217.67	5963	
217.89	3302	
218.1	3379.1	
218.31	5632.6	
218.53	5698.8	
218.74	3862.5	
218.95	3786.7	
219.16	5506.3	
219.38	6549.4	
219.59	3822.9	
219.8	4483	
220.01	7272.3	
220.23	5558.9	
220.44	4959.5	
220.65	3683.6	
220.87	5596.4	
221.08	6188.3	
221.29	3376.4	
221.5	4590.2	
221.72	7685.3	
221.93	5279	
222.14	4235.9	
222.35	4968.4	
222.57	5540.4	
222.78	5885.2	
222.99	4013.3	
223.2	4329.4	
223.42	5863.3	
223.63	5999.9	
223.84	3089	
224.05	3058.3	
224.27	7148.1	
224.48	6485.9	
224.69	5032.5	
224.9	4187.4	
225.12	5724.8	
225.33	5541.8	
225.54	3317	
225.75	3756	
225.97	5032.5	
226.18	5328.8	
226.39	4079.6	
226.6	3835.8	
226.82	5262.6	
227.03	5124.7	
227.24	4235.9	
227.45	3476.1	
227.67	5895.4	
227.88	6578.8	
228.09	4727.4	
228.3	4734.9	
228.52	5978	
228.73	5556.1	
228.94	3917.8	
229.15	3463.1	
229.36	5421.7	
229.58	5385.5	
229.79	3906.2	
230	4650.3	
230.21	6666.1	
230.43	5679.7	
230.64	4176.5	
230.85	4449.6	
231.06	5967.1	
231.28	5996.5	
231.49	3423.5	
231.7	4078.2	
231.91	5896.1	
232.12	5558.9	
232.34	3536.8	
232.55	4109.6	
232.76	6221.7	
232.97	5730.2	
233.18	3674.7	
233.4	4172.4	
233.61	5793	
233.82	5220.3	
234.03	3830.4	
234.25	3777.8	
234.46	7793.2	
234.67	5598.5	
234.88	4349.9	
235.09	3756	
235.31	5909.1	
235.52	5384.1	
235.73	4203.1	
235.94	3463.1	
236.15	5236.7	
236.37	6825.9	
236.58	3668.6	
236.79	4066.6	
237	5831.9	
237.21	5006.6	
237.43	4306.2	
237.64	3398.9	
237.85	10329	
238.06	5124	
238.27	4453.6	
238.48	3514.3	
238.7	5941.8	
238.91	5406.6	
239.12	3994.2	
239.33	4009.9	
239.54	5122.7	
239.76	5447.6	
239.97	3990.8	
240.18	4056.3	
240.39	7000	
240.6	5890	
240.82	4142.4	
241.03	3407.1	
241.24	5548.6	
241.45	6434.7	
241.66	3626.3	
241.87	4388.8	
242.09	6342.6	
242.3	6695.5	
242.51	4432.5	
242.72	4006.5	
242.93	6071.5	
243.14	5509.7	
243.36	4667.3	
243.57	5053.7	
243.78	6460	
243.99	5980.1	
244.2	4065.2	
244.41	3652.9	
244.63	5089.2	
244.84	5834.7	
245.05	4384.7	
245.26	4100.7	
245.47	5853.1	
245.68	6146.6	
245.9	5462.6	
246.11	4203.8	
246.32	5405.3	
246.53	5831.9	
246.74	6596.5	
246.95	3394.2	
247.16	4990.2	
247.38	5511.8	
247.59	3385.3	
247.8	4077.5	
248.01	5255.1	
248.22	5464.7	
248.43	3671.3	
248.64	3935.5	
248.86	4871.4	
249.07	5356.8	
249.28	3573	
249.49	4136.2	
249.7	6139.1	
249.91	6263.4	
250.12	3355.9	
250.34	3378.5	
250.55	5601.2	
250.76	5571.8	
250.97	4156	
251.18	4280.3	
251.39	6320	
251.6	5769.8	
251.81	4299.4	
252.03	4308.9	
252.24	5237.3	
252.45	6165.8	
252.66	3503.4	
252.87	4520.5	
253.08	5547.3	
253.29	7375.4	
253.5	3545.7	
253.72	4949.9	
253.93	5377.3	
254.14	6619.7	
254.35	3831.7	
254.56	3953.3	
254.77	5819	
254.98	5102.9	
255.19	3755.3	
255.41	4961.5	
255.62	5623.7	
255.83	6227.2	
256.04	4332.1	
256.25	4237.9	
256.46	6897.6	
256.67	5180.7	
256.88	4222.2	
257.09	4655.7	
257.31	5214.8	
257.52	5244.2	
257.73	5269.4	
257.94	3795.6	
258.15	5344.5	
258.36	5530.9	
258.57	4884.4	
258.78	3002.3	
258.99	6137.8	
259.2	5397.1	
259.41	3851.5	
259.63	4002.4	
259.84	6393.8	
260.05	6929	
260.26	5121.3	
260.47	3726.6	
260.68	6151.4	
260.89	5458.5	
261.1	4696.7	
261.31	3676.8	
261.52	6182.8	
261.73	6512.5	
261.95	5031.9	
262.16	4414.7	
262.37	6307.1	
262.58	6444.3	
262.79	5001.1	
263	3879.5	
263.21	5546.6	
263.42	5033.9	
263.63	3987.4	
263.84	3879.5	
264.05	6156.9	
264.26	6617	
264.47	4900.1	
264.69	4350.6	
264.9	6341.9	
265.11	5755.5	
265.32	3687.7	
265.53	3809.9	
265.74	5695.4	
265.95	4921.3	
266.16	4183.3	
266.37	4560.8	
266.58	5671.5	
266.79	5373.9	
267	3823.6	
267.21	3518.4	
267.42	5115.8	
267.63	5580.7	
267.84	3979.9	
268.06	3417.4	
268.27	5958.2	
268.48	6319.3	
268.69	3931.4	
268.9	4703.5	
269.11	6262	
269.32	4986.1	
269.53	3984.7	
269.74	3728	
269.95	5970.5	
270.16	4887.1	
270.37	4057	
270.58	4650.9	
270.79	5388.2	
271	6157.6	
271.21	4351.9	
271.42	4037.2	
271.63	5686.5	
271.84	5212.1	
272.05	3246	
272.26	3616.7	
272.47	5575.9	
272.68	5761.6	
272.89	3868.6	
273.11	4509.6	
273.32	5368.4	
273.53	6577.4	
273.74	4327.4	
273.95	4278.2	
274.16	6264.1	
274.37	5629.9	
274.58	4444.8	
274.79	3568.2	
275	5713.8	
275.21	6306.4	
275.42	5345.9	
275.63	4607.9	
275.84	5787.6	
276.05	7430.7	
276.26	4273.4	
276.47	4012	
276.68	5420.3	
276.89	6657.9	
277.1	4556.7	
277.31	3576.4	
277.52	5877.7	
277.73	5972.6	
277.94	3496.6	
278.15	3912.3	
278.36	5739.8	
278.57	5137	
278.78	3893.2	
278.99	4429.1	
279.2	5173.2	
279.41	5145.2	
279.62	5223	
279.83	3523.9	
280.04	6817	
280.25	5064.6	
280.46	5087.8	
280.67	4050.9	
280.88	5124.7	
281.09	6333.7	
281.3	4222.2	
281.51	5425.8	
281.72	5231.2	
281.93	6116.6	
282.14	3756.7	
282.35	4073.4	
282.56	6057.9	
282.77	6066.8	
282.98	3853.6	
283.19	4836.6	
283.4	7435.5	
283.61	5563	
283.82	3584.6	
284.03	4999.1	
284.24	5700.2	
284.45	6294.8	
284.66	5034.6	
284.87	4899.4	
285.08	6158.9	
285.29	6395.1	
285.5	3412.6	
285.71	4012	
285.92	6266.8	
286.12	6905.8	
286.33	5007.3	
286.54	3883.6	
286.75	6079.7	
286.96	5451.7	
287.17	3576.4	
287.38	4917.2	
287.59	5169.8	
287.8	5100.8	
288.01	3945.1	
288.22	4607.9	
288.43	6090	
288.64	5090.6	
288.85	4721.9	
289.06	4491.2	
289.27	6034.7	
289.48	6577.4	
289.69	5083.7	
289.9	4501.4	
290.11	6246.3	
290.32	5277.6	
290.53	4792.9	
290.74	4408.6	
290.94	6061.3	
291.15	6072.2	
291.36	3809.9	
291.57	4562.2	
291.78	5321.3	
291.99	4963.6	
292.2	3550.5	
292.41	4413.4	
292.62	6178.7	
292.83	5892	
293.04	5484.5	
293.25	3671.3	
293.46	5385.5	
293.67	6169.8	
293.88	3775.8	
294.09	3631.7	
294.29	5068.7	
294.5	5730.2	
294.71	4142.4	
294.92	3900	
295.13	5407.3	
295.34	6710.5	
295.55	3413.3	
295.76	3499.3	
295.97	6038.8	
296.18	6802	
296.39	3561.4	
296.6	3721.8	
296.81	5586.2	
297.01	6027.2	
297.22	3908.2	
297.43	3789.4	
297.64	5166.3	
297.85	5200.5	
298.06	3087	
298.27	3355.9	
298.48	5638.1	
298.69	5289.2	
298.9	4138.3	
299.11	3675.4	
299.31	5095.3	
299.52	5058.5	
299.73	4448.2	
299.94	4330.8	
300.15	5510.4	
300.36	5171.8	
300.57	4300.7	
300.78	4245.4	
300.99	5408.7	
301.2	5758.9	
301.4	3736.9	
301.61	4130.1	
301.82	5973.2	
302.03	6023.1	
302.24	4670.1	
302.45	3552.5	
302.66	5867.4	
302.87	6380.1	
303.08	3785.3	
303.29	5247.6	
303.49	5306.3	
303.7	5624.4	
303.91	3332.7	
304.12	4943.8	
304.33	5004.6	
304.54	5705.6	
304.75	3799.7	
304.96	3611.9	
305.16	5872.9	
305.37	6684.6	
305.58	3284.3	
305.79	3409.9	
306	5928.9	
306.21	4952	
306.42	3777.1	
306.63	5908.4	
306.83	5455.1	
307.04	6211.5	
307.25	4222.9	
307.46	4141	
307.67	4751.3	
307.88	6018.3	
308.09	3725.3	
308.29	3906.2	
308.5	5685.2	
308.71	6176.7	
308.92	4065.9	
309.13	3687.7	
309.34	5430.5	
309.55	5503.6	
309.75	4723.3	
309.96	4306.2	
310.17	6055.8	
310.38	5195	
310.59	4565.6	
310.8	4263.9	
311.01	5361.6	
311.21	5454.4	
311.42	3528.7	
311.63	3732.8	
311.84	5307	
312.05	5700.2	
312.26	4212	
312.46	4667.3	
312.67	5409.4	
312.88	5074.9	
313.09	3698.6	
313.3	3574.4	
313.51	6343.9	
313.71	6791.1	
313.92	3615.3	
314.13	3861.1	
314.34	5798.5	
314.55	5520.6	
314.76	4775.9	
314.96	4126	
315.17	5664	
315.38	6032.6	
315.59	3676.8	
315.8	3521.8	
316.01	6505	
316.21	6552.8	
316.42	3554.6	
316.63	3986.7	
316.84	5449	
317.05	6290	
317.26	4378.6	
317.46	3905.5	
317.67	5502.2	
317.88	6014.2	
318.09	4694.6	
318.3	3376.4	
318.5	5262.6	
318.71	5905	
318.92	6041.5	
319.13	4270	
319.34	6110.5	
319.54	6292.7	
319.75	3398.9	
319.96	3218.7	
320.17	6005.3	
320.38	6189	
320.58	3276.1	
320.79	3970.3	
321	6148	
321.21	6231.3	
321.42	4061.8	
321.62	3315	
321.83	5115.8	
322.04	5631.2	
322.25	3856.3	
322.46	3673.4	
322.66	5674.2	
322.87	5877.7	
323.08	4582	
323.29	3614	
323.5	6636.8	
323.7	5173.9	
323.91	5010	
324.12	4554	
324.33	5634	
324.53	5922.7	
324.74	4355.3	
324.95	4515.1	
325.16	4900.1	
325.37	5398.4	
325.57	3658.4	
325.78	3738.9	
325.99	5610.8	
326.2	5023.7	
326.4	5211.4	
326.61	3452.9	
326.82	5543.2	
327.03	5715.9	
327.24	5182.7	
327.44	5100.1	
327.65	5842.2	
327.86	4739	
328.07	4326.7	
328.27	3532.7	
328.48	6284.5	
328.69	5122	
328.9	5425.8	
329.1	3977.8	
329.31	5480.4	
329.52	6427.2	
329.73	3708.9	
329.93	4154.6	
330.14	5525.4	
330.35	5853.1	
330.56	6128.9	
330.76	4541	
330.97	5385.5	
331.18	5787.6	
331.39	4130.1	
331.59	3319.1	
331.8	6114.6	
332.01	6378.7	
332.22	3743.7	
332.42	4425	
332.63	5659.9	
332.84	5267.4	
333.05	4126	
333.25	3763.5	
333.46	5336.3	
333.67	5574.6	
333.88	3815.4	
334.08	4220.9	
334.29	7647.1	
334.5	6316.6	
334.7	3555.3	
334.91	5310.4	
335.12	5092.6	
335.33	6035.4	
335.53	4099.4	
335.74	6082.5	
335.95	5346.6	
336.16	5190.2	
336.36	4121.9	
336.57	4745.8	
336.78	5032.5	
336.98	6195.8	
337.19	5033.2	
337.4	3952.6	
337.61	6792.4	
337.81	5096.7	
338.02	3788.7	
338.23	4890.5	
338.43	6371.2	
338.64	5158.2	
338.85	3679.5	
339.05	4840.7	
339.26	6466.8	
339.47	4980	
339.68	3709.6	
339.88	5538.4	
340.09	5812.1	
340.3	6079.1	
340.5	4353.3	
340.71	3278.1	
340.92	5025	
341.13	6385.6	
341.33	3502	
341.54	4369	
341.75	5838.8	
341.95	5408.7	
342.16	4165.6	
342.37	4504.2	
342.57	5134.3	
342.78	5547.3	
342.99	4640	
343.19	3288.4	
343.4	6018.3	
343.61	5864	
343.81	3942.3	
344.02	3605.1	
344.23	6016.9	
344.43	6521.4	
344.64	4574.5	
344.85	4530.1	
345.06	5885.2	
345.26	6207.4	
345.47	4261.8	
345.68	5023.7	
345.88	4919.2	
346.09	6120	
346.3	4326.7	
346.5	3244.7	
346.71	5606.7	
346.92	5278.3	
347.12	3344.3	
347.33	4250.2	
347.54	6184.9	
347.74	6597.2	
347.95	4272.1	
348.16	3094.5	
348.36	5406.6	
348.57	5272.8	
348.78	4227.7	
348.98	4553.3	
349.19	5575.9	
349.39	5026.4	
349.6	3364.1	
349.81	3768.9	
350.01	5862.7	
350.22	5267.4	
350.43	4070	
350.63	4968.4	
350.84	5651	
351.05	5356.1	
351.25	3689.8	
351.46	3364.8	
351.67	6224.5	
351.87	5279.7	
352.08	3975.1	
352.29	4540.3	
352.49	6088.6	
352.7	5744.6	
352.9	3583.3	
353.11	4536.3	
353.32	6805.4	
353.52	5386.2	
353.73	3527.3	
353.94	4579.3	
354.14	5938.4	
354.35	5755.5	
354.55	3633.1	
354.76	4083	
354.97	5917.3	
355.17	5633.3	
355.38	3422.8	
355.59	4859.8	
355.79	5245.5	
356	5711.1	
356.2	4122.6	
356.41	3533.4	
356.62	5006.6	
356.82	5476.3	
357.03	4413.4	
357.24	3937.6	
357.44	5288.5	
357.65	5434.6	
357.85	5294.7	
358.06	4135.5	
358.27	5029.8	
358.47	5233.2	
358.68	3386.7	
358.88	4344.4	
359.09	5862.7	
359.3	6308.4	
359.5	5116.5	
359.71	4546.5	
359.91	6800.6	
360.12	6118	
360.33	4391.5	
360.53	4808.6	
360.74	5240.1	
360.94	5384.8	
361.15	4560.8	
361.36	3746.4	
361.56	6142.5	
361.77	5571.2	
361.97	5175.9	
362.18	3990.8	
362.38	6181.5	
362.59	5229.8	
362.8	3671.3	
363	3526.6	
363.21	4938.3	
363.41	5665.4	
363.62	4248.9	
363.83	5356.8	
364.03	5763.7	
364.24	6870.3	
364.44	5415.5	
364.65	5487.9	
364.85	5506.3	
365.06	5137.7	
365.27	3887	
365.47	3927.3	
365.68	6606.7	
365.88	5456.5	
366.09	4304.8	
366.29	4006.5	
366.5	5766.4	
366.71	6217	
366.91	5452.4	
367.12	4493.2	
367.32	6875.7	
367.53	6081.1	
367.73	4457.1	
367.94	5412.8	
368.14	6006	
368.35	6982.9	
368.56	4379.2	
368.76	3824.9	
368.97	6055.2	
369.17	7952.9	
369.38	3852.9	
369.58	4175.8	
369.79	5093.3	
369.99	6470.2	
370.2	5244.8	
370.4	4283.7	
370.61	5808	
370.82	7094.8	
371.02	4190.8	
371.23	3484.3	
371.43	4976.6	
371.64	6492.1	
371.84	4201.7	
372.05	5521.3	
372.25	7849.9	
372.46	6182.1	
372.66	4256.4	
372.87	4114.4	
373.07	6279.1	
373.28	7948.8	
373.48	5226.4	
373.69	4953.4	
373.9	5689.3	
374.1	5710.4	
374.31	5230.5	
374.51	4792.9	
374.72	6574	
374.92	5275.6	
375.13	5436.7	
375.33	4575.8	
375.54	6100.2	
375.74	5467.4	
375.95	4596.3	
376.15	5884.5	
376.36	6068.1	
376.56	5870.8	
376.77	4670.1	
376.97	5199.1	
377.18	7196.6	
377.38	6229.9	
377.59	5581.4	
377.79	4124.6	
378	5995.1	
378.2	6429.3	
378.41	4236.6	
378.61	4093.9	
378.82	6427.9	
379.02	5431.9	
379.23	4349.2	
379.43	5515.2	
379.64	6456.6	
379.84	6153.5	
380.05	4119.1	
380.25	4076.8	
380.46	6214.9	
380.66	5832.6	
380.87	5593.7	
381.07	5978.7	
381.28	6946	
381.48	6233.3	
381.69	4242.7	
381.89	4217.5	
382.1	5143.1	
382.3	6425.8	
382.51	5407.3	
382.71	6346	
382.91	6307.1	
383.12	6841.6	
383.32	4617.5	
383.53	4801.8	
383.73	6016.2	
383.94	5875.6	
384.14	4683	
384.35	3754.6	
384.55	5746.6	
384.76	6232	
384.96	4547.9	
385.17	4885.8	
385.37	6237.4	
385.58	5438.7	
385.78	4938.3	
385.98	3708.2	
386.19	5648.3	
386.39	6100.2	
386.6	4315.1	
386.8	4576.5	
387.01	6264.7	
387.21	6268.1	
387.42	5048.9	
387.62	5654.4	
387.83	5530.2	
388.03	6214.2	
388.23	4666	
388.44	5507.7	
388.64	5225.7	
388.85	5330.2	
389.05	5086.5	
389.26	5651	
389.46	7323.5	
389.67	6678.4	
389.87	4970.4	
390.07	5105.6	
390.28	5806.7	
390.48	5358.2	
390.69	4156	
390.89	4495.3	
391.1	5614.8	
391.3	6694.8	
391.5	5911.8	
391.71	6457.9	
391.91	6328.2	
392.12	7496.2	
392.32	5894.1	
392.53	4958.1	
392.73	5680.4	
392.93	5834	
393.14	4618.2	
393.34	5526.8	
393.55	6382.2	
393.75	5857.9	
393.95	4631.8	
394.16	4577.2	
394.36	5592.3	
394.57	6281.1	
394.77	4078.2	
394.98	4601.8	
395.18	5580.7	
395.38	5694.7	
395.59	5616.2	
395.79	4391.5	
396	5722.7	
396.2	6249.7	
396.4	5242.1	
396.61	5218.2	
396.81	6496.8	
397.02	5716.6	
397.22	5523.4	
397.42	5554.8	
397.63	6390.3	
397.83	5539.1	
398.04	4285.7	
398.24	4885.8	
398.44	6205.3	
398.65	5160.2	
398.85	4111.6	
399.05	4275.5	
399.26	5489.9	
399.46	7389.1	
399.67	4684.4	
399.87	4367.6	
400.07	5992.4	
400.28	6336.4	
400.48	4498	
400.69	5637.4	
400.89	6559	
401.09	7014.3	
401.3	4360.8	
401.5	5622.4	
401.7	7285.3	
401.91	7629.4	
402.11	4687.8	
402.32	4984.1	
402.52	6515.3	
402.72	6367.8	
402.93	5063.3	
403.13	3839.9	
403.33	7311.9	
403.54	5941.8	
403.74	4786.1	
403.94	5823.7	
404.15	6107.7	
404.35	7331	
404.56	4718.5	
404.76	6702.3	
404.96	6560.3	
405.17	6386.2	
405.37	6372.6	
405.57	5162.9	
405.78	6485.2	
405.98	5948.7	
406.18	4583.4	
406.39	5494.7	
406.59	6453.1	
406.79	6036	
407	4410	
407.2	4522.6	
407.4	6580.8	
407.61	6822.5	
407.81	4611.3	
408.01	6885.3	
408.22	5571.2	
408.42	7792.5	
408.62	5795.8	
408.83	5214.1	
409.03	6176.7	
409.23	5958.9	
409.44	5223	
409.64	5586.9	
409.84	7069.6	
410.05	6962.4	
410.25	5382.1	
410.45	5132.9	
410.66	6385.6	
410.86	9153.1	
411.06	5522.7	
411.27	5481.7	
411.47	8929.8	
411.67	6675.7	
411.88	5728.9	
412.08	5959.6	
412.28	7389.1	
412.49	7852.6	
412.69	5358.9	
412.89	5378.6	
413.09	7658	
413.3	7492.8	
413.5	5503.6	
413.7	5042.1	
413.91	6660	
414.11	7626	
414.31	5334.3	
414.52	5793	
414.72	7262.8	
414.92	7096.9	
415.12	5283.1	
415.33	5913.2	
415.53	7581.6	
415.73	7768.6	
415.94	6271.6	
416.14	5603.9	
416.34	6477	
416.55	6225.1	
416.75	7025.9	
416.95	6339.8	
417.15	7432.8	
417.36	8271.1	
417.56	7058	
417.76	6135.7	
417.97	7951.6	
418.17	7601.4	
418.37	5711.8	
418.57	5783.5	
418.78	7329.7	
418.98	6951.5	
419.18	6589	
419.38	6549.4	
419.59	7003.4	
419.79	6543.3	
419.99	5574.6	
420.2	6020.3	
420.4	7518.1	
420.6	7783	
420.8	5520.6	
421.01	5364.3	
421.21	7337.2	
421.41	7627.3	
421.61	5902.9	
421.82	5522	
422.02	6753.5	
422.22	7878.5	
422.42	6397.9	
422.63	6072.2	
422.83	6976.1	
423.03	8288.8	
423.23	6053.1	
423.44	4922.6	
423.64	7105.1	
423.84	6711.9	
424.04	5411.4	
424.25	5038.7	
424.45	8072.4	
424.65	7950.2	
424.85	4788.8	
425.06	5540.4	
425.26	7890.8	
425.46	6395.8	
425.66	6004	
425.87	5739.8	
426.07	7685.3	
426.27	7527	
426.47	5875.6	
426.67	5106.3	
426.88	8099	
427.08	7451.2	
427.28	6064	
427.48	5041.4	
427.69	6206.7	
427.89	7071.6	
428.09	6065.4	
428.29	5171.8	
428.5	7739.3	
428.7	7253.9	
428.9	4986.8	
429.1	5635.3	
429.3	7152.2	
429.51	7623.2	
429.71	5318.6	
429.91	6209.4	
430.11	7436.2	
430.31	7663.5	
430.52	5707	
430.72	5943.9	
430.92	8137.3	
431.12	7498.3	
431.32	5292.6	
431.53	5764.3	
431.73	6234	
431.93	8173.4	
432.13	5177.3	
432.33	5078.3	
432.54	6776	
432.74	7275.8	
432.94	5094.7	
433.14	6080.4	
433.34	7339.9	
433.55	6886	
433.75	6118	
433.95	7990.5	
434.15	7107.1	
434.35	6812.9	
434.56	5241.4	
434.76	4653.7	
434.96	7160.4	
435.16	7409.6	
435.36	5035.3	
435.56	6274.3	
435.77	6694.1	
435.97	6812.2	
436.17	7087.3	
436.37	6221	
436.57	6706.4	
436.78	6652.5	
436.98	6157.6	
437.18	6783.6	
437.38	7474.4	
437.58	6857.3	
437.78	6954.2	
437.99	5416.9	
438.19	7404.8	
438.39	8964	
438.59	5415.5	
438.79	4829.1	
438.99	8077.9	
439.2	6886	
439.4	5156.1	
439.6	5026.4	
439.8	7416.4	
440	8470.4	
440.2	6183.5	
440.4	6313.9	
440.61	7611.6	
440.81	8314.8	
441.01	5248.3	
441.21	6206.7	
441.41	8009.6	
441.61	7613.7	
441.81	6488	
442.02	7550.2	
442.22	8599.4	
442.42	7730.4	
442.62	5272.2	
442.82	5372.5	
443.02	8011	
443.22	7111.9	
443.43	5842.9	
443.63	5283.1	
443.83	6911.9	
444.03	6895.5	
444.23	6622.4	
444.43	6170.5	
444.63	7154.2	
444.83	8537.3	
445.04	5354.8	
445.24	6778.1	
445.44	7593.2	
445.64	7676.5	
445.84	6197.2	
446.04	6162.3	
446.24	6899.6	
446.44	8039.6	
446.65	5295.4	
446.85	5773.9	
447.05	7066.2	
447.25	7993.9	
447.45	5919.3	
447.65	5205.9	
447.85	7189.7	
448.05	6873	
448.25	6267.5	
448.46	6132.3	
448.66	7224.6	
448.86	6939.2	
449.06	4999.8	
449.26	6320.7	
449.46	7641	
449.66	6608.1	
449.86	5799.8	
450.06	5735	
450.26	6765.1	
450.47	7335.8	
450.67	6049.7	
450.87	6429.3	
451.07	7499.7	
451.27	7325.6	
451.47	5252.4	
451.67	5923.4	
451.87	6922.8	
452.07	8192.6	
452.27	5530.2	
452.47	5468.8	
452.67	7291.5	
452.88	7744.7	
453.08	4853.7	
453.28	6978.8	
453.48	8512	
453.68	7219.8	
453.88	5414.1	
454.08	5705.6	
454.28	7590.5	
454.48	7217.7	
454.68	6219	
454.88	6847	
455.08	7742.7	
455.28	7367.9	
455.48	5215.5	
455.68	5868.8	
455.89	8183.7	
456.09	7859.4	
456.29	5599.1	
456.49	5671.5	
456.69	8077.2	
456.89	7257.3	
457.09	6257.2	
457.29	6590.4	
457.49	7550.9	
457.69	7767.9	
457.89	5988.9	
458.09	5378.6	
458.29	7268.9	
458.49	8114.7	
458.69	6456.6	
458.89	5802.6	
459.09	8256	
459.29	8439.7	
459.49	5940.5	
459.69	6744	
459.9	7872.4	
460.1	7216.4	
460.3	5756.8	
460.5	5587.5	
460.7	7795.3	
460.9	7533.1	
461.1	5212.1	
461.3	6556.9	
461.5	8473.1	
461.7	7976.2	
461.9	5575.9	
462.1	6108.4	
462.3	7509.9	
462.5	8198	
462.7	5698.1	
462.9	5815.5	
463.1	9212.4	
463.3	8851.3	
463.5	5964.4	
463.7	6978.8	
463.9	7600.7	
464.1	8060.1	
464.3	6109.1	
464.5	6392.4	
464.7	8301.1	
464.9	7906.5	
465.1	7765.9	
465.3	6699.6	
465.5	8637.6	
465.7	8535.9	
465.9	6946	
466.1	6896.2	
466.3	8387.8	
466.5	8254.7	
466.7	7650.5	
466.9	6348	
467.1	8190.5	
467.3	9125.7	
467.5	7560.4	
467.7	6393.1	
467.9	9469.8	
468.1	10323	
468.3	7202	
468.5	7703.8	
468.7	8070.4	
468.9	8041	
469.1	6641.6	
469.3	7360.4	
469.5	10140	
469.7	7625.3	
469.9	7155.6	
470.1	6260	
470.3	8017.1	
470.5	8019.8	
470.7	7632.8	
470.9	6403.3	
471.1	7745.4	
471.3	8282	
471.5	6163	
471.69	8250.6	
471.89	7636.2	
472.09	7139.2	
472.29	7101	
472.49	7494.9	
472.69	7316.7	
472.89	8316.1	
473.09	6079.1	
473.29	6260.6	
473.49	7496.9	
473.69	7770	
473.89	7253.9	
474.09	6371.2	
474.29	9152.4	
474.49	8759.8	
474.69	7290.1	
474.89	6561.7	
475.09	7706.5	
475.29	7694.2	
475.49	5911.1	
475.69	6152.1	
475.88	9458.2	
476.08	8059.4	
476.28	5827.2	
476.48	6352.1	
476.68	8563.9	
476.88	8368.7	
477.08	6163	
477.28	6522.8	
477.48	7840.3	
477.68	8593.3	
477.88	6018.3	
478.08	6417.7	
478.28	8945.5	
478.48	8039.6	
478.67	6422.4	
478.87	5819.6	
479.07	8592.6	
479.27	8115.4	
479.47	6660.7	
479.67	6593.8	
479.87	8517.5	
480.07	9004.2	
480.27	5854.5	
480.47	7570	
480.67	8104.5	
480.87	8755.1	
481.06	6154.8	
481.26	7032	
481.46	8036.2	
481.66	7920.9	
481.86	6646.3	
482.06	7761.1	
482.26	7750.2	
482.46	8895.7	
482.66	6602.7	
482.86	6067.4	
483.05	7996	
483.25	7516	
483.45	9144.2	
483.65	6589	
483.85	7628	
484.05	7982.3	
484.25	6947.4	
484.45	7504.4	
484.65	8915.5	
484.84	8862.9	
485.04	6444.3	
485.24	6425.2	
485.44	9134.6	
485.64	7339.9	
485.84	5684.5	
486.04	7219.8	
486.24	7682.6	
486.44	8211.7	
486.63	5593.7	
486.83	6552.8	
487.03	7528.3	
487.23	7814.4	
487.43	5759.6	
487.63	8311.3	
487.83	7925.6	
488.02	8938.7	
488.22	6757.6	
488.42	7460.8	
488.62	8813.8	
488.82	7641.7	
489.02	6383.5	
489.22	6406.7	
489.41	8684.8	
489.61	8198.7	
489.81	6085.2	
490.01	6148.7	
490.21	8530.5	
490.41	9204.9	
490.61	6035.4	
490.8	6109.8	
491	7956.4	
491.2	7258	
491.4	6819.7	
491.6	5865.4	
491.8	7944.1	
491.99	8178.9	
492.19	5789.6	
492.39	6210.1	
492.59	8606.9	
492.79	8790.6	
492.99	7092.8	
493.18	6094.1	
493.38	8738	
493.58	9581.1	
493.78	6869.6	
493.98	6402	
494.18	8346.2	
494.37	7786.4	
494.57	6999.3	
494.77	6943.3	
494.97	8576.2	
495.17	8822.6	
495.37	6355.5	
495.56	6695.5	
495.76	8946.2	
495.96	8491.6	
496.16	7656.7	
496.36	6552.8	
496.55	8718.9	
496.75	8230.8	
496.95	6883.2	
497.15	6719.4	
497.35	8660.2	
497.54	8649.3	
497.74	6594.5	
497.94	8190.5	
498.14	9399.5	
498.34	9288.9	
498.53	6133	
498.73	7047.7	
498.93	7991.9	
499.13	8613.8	
499.33	6817.7	
499.52	7355.6	
499.72	8574.2	
499.92	9049.3	
500.12	6522.8	
500.32	6774.7	
500.51	8895.7	
500.71	8610.3	
500.91	7612.3	
501.11	7270.3	
501.31	8760.5	
501.5	9196.7	
501.7	7834.8	
501.9	6757.6	
502.1	8490.2	
502.29	8875.2	
502.49	7316.7	
502.69	7722.2	
502.89	8792.6	
503.09	8686.1	
503.28	6195.1	
503.48	6318.7	
503.68	7864.9	
503.88	7971.4	
504.07	7496.9	
504.27	6909.8	
504.47	8327	
504.67	8602.2	
504.86	7395.2	
505.06	7002	
505.26	7996	
505.46	9933.3	
505.65	6812.9	
505.85	7102.4	
506.05	7879.2	
506.25	8424.7	
506.44	6201.9	
506.64	7178.8	
506.84	7866.2	
507.04	8917.5	
507.23	6407.4	
507.43	7014.3	
507.63	10046	
507.83	8006.2	
508.02	6965.1	
508.22	6579.4	
508.42	10223	
508.62	7846.5	
508.81	6898.2	
509.01	7407.5	
509.21	7691.5	
509.4	8014.4	
509.6	7109.9	
509.8	6366.5	
510	7965.9	
510.19	9687.6	
510.39	6318	
510.59	6503	
510.79	7718.8	
510.98	9217.2	
511.18	6429.9	
511.38	6537.1	
511.57	8594.6	
511.77	8567.3	
511.97	7308.5	
512.17	6219	
512.36	8550.3	
512.56	8565.3	
512.76	6265.4	
512.95	6021.7	
513.15	8757.8	
513.35	7243.7	
513.55	7258	
513.74	6341.9	
513.94	8763.9	
514.14	7974.8	
514.33	7349.5	
514.53	6970.6	
514.73	8001.4	
514.92	8150.9	
515.12	6505	
515.32	6309.1	
515.51	8299.7	
515.71	8793.3	
515.91	7972.7	
516.11	6288.6	
516.3	10062	
516.5	7735.2	
516.7	6909.2	
516.89	7560.4	
517.09	8007.6	
517.29	7756.3	
517.48	7225.9	
517.68	6559.6	
517.88	7699	
518.07	8273.8	
518.27	7072.3	
518.47	6139.8	
518.66	8925	
518.86	7431.4	
519.06	5898.1	
519.25	6385.6	
519.45	7810.3	
519.65	9377.6	
519.84	7088.7	
520.04	7957	
520.24	9775.6	
520.43	8408.3	
520.63	6731	
520.83	6419.7	
521.02	7582.9	
521.22	8253.3	
521.42	7114	
521.61	7847.1	
521.81	7895.6	
522.01	8162.5	
522.2	6888.7	
522.4	6593.8	
522.6	8584.4	
522.79	7380.9	
522.99	6673.6	
523.18	5922	
523.38	8307.9	
523.58	8349.6	
523.77	8066.9	
523.97	5891.3	
524.17	10215	
524.36	9374.9	
524.56	7351.5	
524.76	6946.7	
524.95	8224	
525.15	7808.9	
525.34	6790.4	
525.54	6675	
525.74	8501.8	
525.93	7398.6	
526.13	7987.1	
526.33	6578.1	
526.52	8774.2	
526.72	8281.3	
526.91	7880.6	
527.11	7149.5	
527.31	9018.6	
527.5	9365.4	
527.7	7049.8	
527.89	5963	
528.09	7600.7	
528.29	8314.1	
528.48	7496.2	
528.68	7103	
528.87	8636.3	
529.07	8723.7	
529.27	6898.9	
529.46	6330.3	
529.66	8245.1	
529.85	8697.7	
530.05	6136.4	
530.25	7036.8	
530.44	9768.1	
530.64	8208.9	
530.83	6598.6	
531.03	6898.2	
531.23	8681.3	
531.42	8563.2	
531.62	7817.1	
531.81	6844.3	
532.01	8762.6	
532.21	9287.5	
532.4	6479.8	
532.6	6978.8	
532.79	9910.1	
532.99	8820.6	
533.18	6903	
533.38	8086.1	
533.58	8282	
533.77	9180.4	
533.97	6842.9	
534.16	7692.2	
534.36	9314.8	
534.55	8305.2	
534.75	7925	
534.95	6884.6	
535.14	9062.3	
535.34	8129.1	
535.53	6491.4	
535.73	8671.1	
535.92	9639.1	
536.12	8447.9	
536.31	6668.2	
536.51	7862.8	
536.71	8818.6	
536.9	8381.7	
537.1	6845.7	
537.29	6996.5	
537.49	9253.4	
537.68	8199.4	
537.88	7332.4	
538.07	6552.1	
538.27	8415.1	
538.46	9494.4	
538.66	6405.4	
538.86	6862.1	
539.05	8450.6	
539.25	8938.7	
539.44	7184.3	
539.64	6797.2	
539.83	8265.6	
540.03	9355.1	
540.22	6537.1	
540.42	6774	
540.61	8652.7	
540.81	8685.4	
541	7287.4	
541.2	7933.1	
541.39	8067.6	
541.59	8526.4	
541.78	7503.8	
541.98	6609.5	
542.18	7685.3	
542.37	7654.6	
542.57	7051.2	
542.76	7541.3	
542.96	7755	
543.15	8647.9	
543.35	7030	
543.54	6315.9	
543.74	8912.1	
543.93	8555	
544.13	6999.3	
544.32	8218.5	
544.52	8817.2	
544.71	7902.4	
544.91	6033.3	
545.1	7436.2	
545.3	7977.5	
545.49	8684.1	
545.69	6079.1	
545.88	6693.4	
546.08	9753.8	
546.27	9230.2	
546.47	7315.3	
546.66	6488	
546.86	8925.7	
547.05	9684.8	
547.24	6743.3	
547.44	6541.9	
547.63	7755.7	
547.83	8979.7	
548.02	6960.4	
548.22	7211.6	
548.41	7631.4	
548.61	9053.4	
548.8	6493.4	
549	6516.6	
549.19	8247.9	
549.39	8568.7	
549.58	6120.7	
549.78	6878.4	
549.97	8760.5	
550.17	8134.5	
550.36	7730.4	
550.55	8776.9	
550.75	8284.7	
550.94	9230.9	
551.14	6465.4	
551.33	6887.3	
551.53	7462.8	
551.72	8570.7	
551.92	6982.9	
552.11	6589	
552.31	8568.7	
552.5	8684.8	
552.69	8484.1	
552.89	6249	
553.08	8498.4	
553.28	8241.7	
553.47	6696.2	
553.67	7927.7	
553.86	9224.7	
554.06	7473	
554.25	5744.6	
554.44	6364.4	
554.64	10070	
554.83	9592.7	
555.03	6327.5	
555.22	6744	
555.42	8725.7	
555.61	8475.2	
555.8	6563.7	
556	7025.9	
556.19	7466.2	
556.39	9037	
556.58	6569.9	
556.78	6560.3	
556.97	8303.1	
557.16	7993.9	
557.36	7957.7	
557.55	6180.8	
557.75	7289.4	
557.94	9185.8	
558.13	6373.3	
558.33	6093.4	
558.52	8989.2	
558.72	7734.5	
558.91	6252.4	
559.1	6445	
559.3	7428	
559.49	7102.4	
559.69	5806	
559.88	6845.7	
560.07	8305.2	
560.27	8761.9	
560.46	7037.5	
560.66	7219.1	
560.85	8082	
561.04	7222.5	
561.24	6172.6	
561.43	6469.5	
561.63	7436.2	
561.82	7802.8	
562.01	7748.8	
562.21	6705	
562.4	8321.6	
562.59	9405.6	
562.79	6602.7	
562.98	6146	
563.18	8184.4	
563.37	9712.2	
563.56	7148.8	
563.76	6053.1	
563.95	7521.5	
564.14	7543.4	
564.34	6458.6	
564.53	6339.8	
564.73	8149.6	
564.92	8492.2	
565.11	6673	
565.31	5954.8	
565.5	8804.9	
565.69	7679.2	
565.89	6222.4	
566.08	6488.6	
566.27	8662.9	
566.47	9028.8	
566.66	7228.6	
566.85	5744.6	
567.05	8091.5	
567.24	7510.6	
567.44	6171.2	
567.63	7630.7	
567.82	8417.8	
568.02	8140	
568.21	6161.7	
568.4	6632.7	
568.6	7942.7	
568.79	8032.1	
568.98	5858.6	
569.18	6072.2	
569.37	7875.1	
569.56	10017	
569.76	6410.1	
569.95	7425.9	
570.14	8265.6	
570.34	8243.8	
570.53	5879	
570.72	5914.5	
570.91	8751.7	
571.11	7943.4	
571.3	6432.7	
571.49	7424.6	
571.69	7864.2	
571.88	7423.9	
572.07	7004.7	
572.27	7047.7	
572.46	7350.8	
572.65	8589.2	
572.85	6137.8	
573.04	6599.9	
573.23	8802.9	
573.43	7992.5	
573.62	5881.1	
573.81	6612.9	
574	8008.2	
574.2	7735.2	
574.39	6263.4	
574.58	6517.3	
574.78	8961.2	
574.97	7988.4	
575.16	6819.1	
575.36	6987.7	
575.55	8472.4	
575.74	8619.2	
575.93	5852.4	
576.13	6972	
576.32	7774.1	
576.51	8325.7	
576.71	6358.9	
576.9	7766.6	
577.09	8690.2	
577.28	8219.2	
577.48	6740.5	
577.67	5728.2	
577.86	7895.6	
578.05	8090.8	
578.25	6384.2	
578.44	6509.1	
578.63	7963.2	
578.83	9224.7	
579.02	5773.9	
579.21	7394.5	
579.4	8179.6	
579.6	7737.2	
579.79	6623.1	
579.98	8954.4	
580.17	8585.1	
580.37	8606.9	
580.56	5974.6	
580.75	6830	
580.94	9110.7	
581.14	8884.8	
581.33	7352.9	
581.52	6113.9	
581.71	8364.6	
581.91	9050.7	
582.1	5782.1	
582.29	6500.9	
582.48	7980.9	
582.68	7872.4	
582.87	6969.2	
583.06	6481.8	
583.25	8295	
583.45	7564.5	
583.64	7275.1	
583.83	8064.2	
584.02	7642.3	
584.21	8249.2	
584.41	7307.8	
584.6	6427.2	
584.79	7873.1	
584.98	8730.5	
585.18	5903.6	
585.37	5883.1	
585.56	7395.9	
585.75	8301.1	
585.94	6099.5	
586.14	6836.1	
586.33	9036.3	
586.52	7929.1	
586.71	6623.1	
586.91	6380.8	
587.1	7193.1	
587.29	8360.5	
587.48	6371.9	
587.67	6137.8	
587.87	8295.6	
588.06	8378.9	
588.25	7677.8	
588.44	6914.6	
588.63	7860.8	
588.83	8516.1	
589.02	6283.9	
589.21	6214.2	
589.4	7694.9	
589.59	7475.8	
589.78	5430.5	
589.98	5666	
590.17	7138.5	
590.36	7787.7	
590.55	5160.2	
590.74	6070.2	
590.94	9339.4	
591.13	7850.5	
591.32	5831.9	
591.51	5431.2	
591.7	8310	
591.89	7670.3	
592.09	5522	
592.28	5959.6	
592.47	6918	
592.66	8885.5	
592.85	5442.1	
593.05	5752.1	
593.24	7505.1	
593.43	8375.5	
593.62	5751.4	
593.81	6263.4	
594	7551.5	
594.19	7750.9	
594.39	5683.8	
594.58	5614.8	
594.77	7894.2	
594.96	8551	
595.15	5554.8	
595.34	6222.4	
595.54	7949.5	
595.73	7060.7	
595.92	4866	
596.11	6182.1	
596.3	8523	
596.49	7086.7	
596.68	6002.6	
596.88	6471.6	
597.07	8273.1	
597.26	6876.4	
597.45	5459.2	
597.64	6754.9	
597.83	7117.4	
598.02	7873.8	
598.22	5539.8	
598.41	6337.1	
598.6	7643	
598.79	7007.5	
598.98	5584.8	
599.17	6623.1	
599.36	7606.2	
599.55	8961.2	
599.74	7740.6	
599.94	7467.6	
600.13	8269.7	
600.32	7085.3	
600.51	5352	
600.7	5472.2	
600.89	8995.4	
601.08	9019.9	
601.27	5283.1	
601.47	6318	
601.66	8225.3	
601.85	8895	
602.04	5938.4	
602.23	6449.7	
602.42	7173.4	
602.61	7813.7	
602.8	5939.1	
602.99	5685.8	
603.18	7514	
603.37	7747.5	
603.57	6400.6	
603.76	6990.4	
603.95	8631.5	
604.14	8134.5	
604.33	5673.6	
604.52	6109.1	
604.71	7673.7	
604.9	7330.4	
605.09	6699.6	
605.28	6500.9	
605.47	8326.4	
605.66	7997.3	
605.86	6338.5	
606.05	5743.9	
606.24	8329.8	
606.43	6886	
606.62	6055.8	
606.81	6892.1	
607	8268.3	
607.19	7425.9	
607.38	5420.3	
607.57	5786.9	
607.76	7292.1	
607.95	6684.6	
608.14	6076.3	
608.33	6868.9	
608.52	7247.8	
608.72	8193.9	
608.91	5378.6	
609.1	5253	
609.29	7385	
609.48	6786.3	
609.67	6382.2	
609.86	5425.1	
610.05	6957.6	
610.24	7321.5	
610.43	5177.3	
610.62	4829.8	
610.81	8590.5	
611	8242.4	
611.19	5339.7	
611.38	6122.1	
611.57	7594.6	
611.76	9127.1	
611.95	5132.9	
612.14	4958.8	
612.33	7435.5	
612.52	6883.9	
612.71	5724.1	
612.9	4831.2	
613.09	6491.4	
613.28	8981.7	
613.47	5418.9	
613.66	6498.9	
613.85	7518.1	
614.04	7064.1	
614.24	5528.2	
614.43	4676.9	
614.62	7677.8	
614.81	7588.4	
615	6156.9	
615.19	6044.2	
615.38	6896.2	
615.57	7187.7	
615.76	6026.5	
615.95	6971.3	
616.14	7677.8	
616.33	7374.7	
616.52	6307.1	
616.71	6497.5	
616.9	7627.3	
617.09	7438.2	
617.28	5575.3	
617.47	7173.4	
617.66	6707.8	
617.85	6694.1	
618.04	6591	
618.22	5991	
618.41	7023.9	
618.6	7916.1	
618.79	5795.1	
618.98	5426.4	
619.17	8273.8	
619.36	6472.9	
619.55	5549.3	
619.74	5712.5	
619.93	7417.1	
620.12	6847.7	
620.31	6237.4	
620.5	6439.5	
620.69	8084.7	
620.88	8395.3	
621.07	7118.1	
621.26	6080.4	
621.45	7628.7	
621.64	7598.6	
621.83	6197.2	
622.02	5325.4	
622.21	7646.4	
622.4	7340.6	
622.59	6746.7	
622.78	6503	
622.97	6924.2	
623.16	7992.5	
623.35	6077	
623.54	5289.9	
623.72	7157.7	
623.91	7315.3	
624.1	6411.5	
624.29	4911	
624.48	8404.9	
624.67	7599.3	
624.86	6225.8	
625.05	5287.9	
625.24	8489.5	
625.43	6812.2	
625.62	8159.1	
625.81	5412.8	
626	8008.2	
626.19	7180.2	
626.38	6294.1	
626.56	5683.8	
626.75	6948.1	
626.94	7546.8	
627.13	6213.5	
627.32	4943.1	
627.51	7709.2	
627.7	9010.4	
627.89	5139	
628.08	6313.2	
628.27	6814.3	
628.46	7021.8	
628.65	5454.4	
628.83	5064.6	
629.02	7646.4	
629.21	6825.9	
629.4	5831.9	
629.59	6157.6	
629.78	6822.5	
629.97	7862.2	
630.16	6186.2	
630.35	5588.9	
630.54	8324.3	
630.72	7971.4	
630.91	5536.3	
631.1	6094.1	
631.29	7445	
631.48	7591.8	
631.67	6213.5	
631.86	5741.1	
632.05	7049.8	
632.24	7120.1	
632.42	5349.3	
632.61	5969.8	
632.8	7184.3	
632.99	6752.8	
633.18	5975.3	
633.37	6398.5	
633.56	7405.5	
633.75	7271	
633.93	5971.2	
634.12	5606.7	
634.31	8381.7	
634.5	7895.6	
634.69	5674.2	
634.88	6246.3	
635.07	7118.7	
635.25	7852.6	
635.44	6591.7	
635.63	6854.6	
635.82	7010.9	
636.01	6519.4	
636.2	6504.3	
636.39	6055.2	
636.57	8226	
636.76	7922.9	
636.95	5468.1	
637.14	6956.9	
637.33	7477.1	
637.52	8542.8	
637.7	5196.4	
637.89	6175.3	
638.08	6994.5	
638.27	8643.8	
638.46	6339.1	
638.65	6842.9	
638.83	8602.8	
639.02	6875	
639.21	6235.4	
639.4	6768.5	
639.59	7484	
639.78	6984.3	
639.96	5547.3	
640.15	5546.6	
640.34	7322.2	
640.53	7453.2	
640.72	5169.1	
640.91	5574.6	
641.09	6746.7	
641.28	8174.1	
641.47	5509.7	
641.66	6432.7	
641.85	7443.7	
642.03	7788.4	
642.22	6274.3	
642.41	5735.7	
642.6	6906.4	
642.79	6226.5	
642.97	5451	
643.16	6281.8	
643.35	6847.7	
643.54	6638.8	
643.73	5390.3	
643.91	6235.4	
644.1	6491.4	
644.29	7142.6	
644.48	5520	
644.67	5574.6	
644.85	6730.3	
645.04	7050.5	
645.23	5116.5	
645.42	5371.8	
645.6	6556.9	
645.79	7852.6	
645.98	5438.7	
646.17	4394.9	
646.36	6345.3	
646.54	7016.3	
646.73	6377.4	
646.92	4982.7	
647.11	6716	
647.29	7845.1	
647.48	5145.2	
647.67	4915.8	
647.86	8075.8	
648.05	8045.1	
648.23	5503.6	
648.42	6922.1	
648.61	7381.6	
648.8	7045.7	
648.98	5168.4	
649.17	5545.2	
649.36	6633.4	
649.55	6068.8	
649.73	5240.8	
649.92	5986.9	
650.11	6494.8	
650.3	6884.6	
650.48	5354.8	
650.67	4970.4	
650.86	7183.6	
651.05	6044.2	
651.23	5293.3	
651.42	5257.8	
651.61	6592.4	
651.79	6893.5	
651.98	5453.7	
652.17	5045.5	
652.36	7174	
652.54	6179.4	
652.73	5150.6	
652.92	4908.3	
653.11	7160.4	
653.29	7251.9	
653.48	4357.4	
653.67	5494	
653.85	6925.5	
654.04	8128.4	
654.23	5787.6	
654.42	5258.5	
654.6	6516.6	
654.79	7192.5	
654.98	4687.1	
655.16	5291.3	
655.35	6137.1	
655.54	6034.7	
655.73	4825.7	
655.91	4798.4	
656.1	7379.5	
656.29	6020.3	
656.47	4276.8	
656.66	6139.8	
656.85	6299.6	
657.03	6348.7	
657.22	4783.4	
657.41	4863.9	
657.59	6432	
657.78	6132.3	
657.97	4525.3	
658.16	5278.3	
658.34	7054.6	
658.53	7494.2	
658.72	6231.3	
658.9	6933.7	
659.09	6404	
659.28	6576.7	
659.46	5016.2	
659.65	4922.6	
659.84	6204.7	
660.02	6764.4	
660.21	4727.4	
660.4	4721.9	
660.58	7284.6	
660.77	6610.8	
660.96	5451	
661.14	4407.9	
661.33	7773.4	
661.52	7679.2	
661.7	4351.9	
661.89	8353	
662.08	6184.2	
662.26	5698.8	
662.45	4657.8	
662.64	4821.6	
662.82	6864.8	
663.01	6109.8	
663.2	4798.4	
663.38	5713.2	
663.57	6861.4	
663.75	6640.2	
663.94	5188.2	
664.13	6532.3	
664.31	6140.5	
664.5	6868.2	
664.69	5380.7	
664.87	6059.9	
665.06	5919.3	
665.25	6662.7	
665.43	6300.9	
665.62	6380.1	
665.8	7066.9	
665.99	6288.6	
666.18	5150	
666.36	5363.6	
666.55	7063.4	
666.74	6918.7	
666.92	4739	
667.11	6578.1	
667.29	6321.4	
667.48	6987.7	
667.67	6075	
667.85	5232.6	
668.04	6462.7	
668.22	6380.8	
668.41	5292.6	
668.6	5429.2	
668.78	6201.2	
668.97	6376.7	
669.15	5642.2	
669.34	4496	
669.53	6096.8	
669.71	6453.1	
669.9	4719.2	
670.08	5487.9	
670.27	6120	
670.46	6795.2	
670.64	5641.5	
670.83	5906.3	
671.01	6047	
671.2	6776	
671.38	4750.6	
671.57	4678.9	
671.76	7345.4	
671.94	8016.4	
672.13	4610.7	
672.31	5780.7	
672.5	6888	
672.69	6144.6	
672.87	4755.4	
673.06	5072.8	
673.24	6747.4	
673.43	6090.7	
673.61	5645.6	
673.8	5074.9	
673.98	6943.3	
674.17	7047.1	
674.36	5800.5	
674.54	5555.5	
674.73	6630.6	
674.91	6921.5	
675.1	5218.2	
675.28	4899.4	
675.47	6421.7	
675.65	6976.1	
675.84	5073.5	
676.03	5451.7	
676.21	6197.2	
676.4	5659.2	
676.58	6026.5	
676.77	5696.1	
676.95	7739.3	
677.14	6077.7	
677.32	4780	
677.51	4479.6	
677.69	6920.1	
677.88	5739.8	
678.06	4672.1	
678.25	4716.5	
678.44	6489.3	
678.62	6089.3	
678.81	4373.1	
678.99	5474.2	
679.18	7306.5	
679.36	6877.1	
679.55	5000.5	
679.73	5812.8	
679.92	6778.1	
680.1	6169.8	
680.29	6338.5	
680.47	5018.2	
680.66	6048.3	
680.84	6969.2	
681.03	4261.8	
681.21	5512.4	
681.4	6047	
681.58	5973.9	
681.77	4724	
681.95	4671.4	
682.14	7042.3	
682.32	7423.2	
682.51	5729.5	
682.69	4472.1	
682.88	6055.2	
683.06	6870.9	
683.25	5369.8	
683.43	5951.4	
683.62	6382.2	
683.8	6747.4	
683.99	5997.8	
684.17	5331.5	
684.36	7722.9	
684.54	6333.7	
684.73	4442.7	
684.91	4792.2	
685.1	6761.7	
685.28	6085.9	
685.46	5347.9	
685.65	5516.5	
685.83	7094.2	
686.02	6408.8	
686.2	4840	
686.39	5003.9	
686.57	5924.8	
686.76	7734.5	
686.94	4793.6	
687.13	4990.9	
687.31	6882.5	
687.5	6352.1	
687.68	4384	
687.86	5803.9	
688.05	7992.5	
688.23	5758.2	
688.42	5747.3	
688.6	4889.2	
688.79	6194.4	
688.97	6170.5	
689.16	5397.1	
689.34	4091.2	
689.52	6987	
689.71	7187.7	
689.89	5557.5	
690.08	4826.4	
690.26	6410.8	
690.45	6348	
690.63	5731.6	
690.81	4904.2	
691	6092.7	
691.18	6107	
691.37	5114.5	
691.55	7531.1	
691.74	6014.9	
691.92	8316.1	
692.1	5236.7	
692.29	4557.4	
692.47	6300.9	
692.66	5512.4	
692.84	4739.7	
693.02	5371.1	
693.21	5615.5	
693.39	6290.7	
693.58	5491.3	
693.76	4894.6	
693.94	7520.1	
694.13	7214.3	
694.31	4693.9	
694.5	5916.6	
694.68	6025.1	
694.86	6342.6	
695.05	5177.3	
695.23	5589.6	
695.42	6705	
695.6	9239.1	
695.78	5750.7	
695.97	4827.1	
696.15	6754.9	
696.34	6088.6	
696.52	4514.4	
696.7	5499.5	
696.89	6578.1	
697.07	5947.3	
697.25	5437.4	
697.44	7124.9	
697.62	6461.3	
697.81	6932.4	
697.99	5151.3	
698.17	5596.4	
698.36	5773.9	
698.54	6581.5	
698.72	5419.6	
698.91	4336.9	
699.09	6050.4	
699.28	5920.7	
699.46	5116.5	
699.64	4984.1	
699.83	5829.2	
700.01	7258.7	
700.19	5764.3	
700.38	4011.3	
700.56	7225.2	
700.74	6050.4	
700.93	4534.9	
701.11	5414.1	
701.29	6584.2	
701.48	7621.2	
701.66	4762.2	
701.84	4763.6	
702.03	6086.6	
702.21	6821.8	
702.39	4276.2	
702.58	4897.4	
702.76	6500.3	
702.94	6636.8	
703.13	4280.9	
703.31	6941.2	
703.49	5677	
703.68	6837.5	
703.86	4491.9	
704.04	5537	
704.23	6260.6	
704.41	6781.5	
704.59	4612.7	
704.78	6049	
704.96	7482.6	
705.14	6862.1	
705.33	4401.1	
705.51	5322.7	
705.69	6146	
705.87	6992.4	
706.06	5679	
706.24	4371.7	
706.42	6419.7	
706.61	6700.3	
706.79	5725.4	
706.97	4385.4	
707.16	5902.9	
707.34	6516	
707.52	5630.5	
707.7	4548.5	
707.89	6141.2	
708.07	5679.7	
708.25	5544.5	
708.44	5745.2	
708.62	5918.6	
708.8	7192.5	
708.98	5920	
709.17	4733.5	
709.35	6432	
709.53	6470.2	
709.72	4469.4	
709.9	4641.4	
710.08	6599.9	
710.26	6670.9	
710.45	6298.2	
710.63	4825.7	
710.81	6338.5	
710.99	6338.5	
711.18	5429.8	
711.36	4917.2	
711.54	6158.9	
711.72	7014.3	
711.91	5019.6	
712.09	4377.9	
712.27	6414.9	
712.45	7201.3	
712.64	5421	
712.82	4255.7	
713	5808	
713.18	6036.7	
713.37	4449.6	
713.55	5837.4	
713.73	7085.3	
713.91	5501.5	
714.1	5025	
714.28	4459.8	
714.46	6726.2	
714.64	5906.3	
714.83	3901.4	
715.01	4911.7	
715.19	6043.6	
715.37	5484.5	
715.55	4620.2	
715.74	4883.7	
715.92	7230.7	
716.1	5038	
716.28	6191.7	
716.47	5165	
716.65	5747.3	
716.83	5855.8	
717.01	4975.2	
717.19	5071.5	
717.38	8232.2	
717.56	5525.4	
717.74	5278.3	
717.92	4329.4	
718.1	6835.4	
718.29	6005.3	
718.47	3867.2	
718.65	4510.3	
718.83	6498.2	
719.01	6496.8	
719.2	3637.9	
719.38	4814.1	
719.56	6207.4	
719.74	7898.3	
719.92	4316.4	
720.11	5534.3	
720.29	6262	
720.47	5327.4	
720.65	3917.1	
720.83	4917.2	
721.02	5817.6	
721.2	5481	
721.38	5014.1	
721.56	4227.7	
721.74	4994.3	
721.92	5248.3	
722.11	5568.4	
722.29	5268.1	
722.47	6624.5	
722.65	5674.9	
722.83	4266.6	
723.01	5285.8	
723.2	5854.5	
723.38	6063.4	
723.56	3610.6	
723.74	4943.1	
723.92	5303.6	
724.1	6602	
724.29	4169.7	
724.47	5496.7	
724.65	5313.1	
724.83	5271.5	
725.01	4068.6	
725.19	5111.7	
725.37	5284.4	
725.56	5427.8	
725.74	3932.8	
725.92	4186	
726.1	5197.1	
726.28	5580	
726.46	4680.3	
726.64	4390.2	
726.83	5495.4	
727.01	5844.9	
727.19	3915.7	
727.37	4763.6	
727.55	5646.2	
727.73	6251.8	
727.91	3844	
728.09	3736.2	
728.28	6250.4	
728.46	6954.9	
728.64	4954	
728.82	4859.8	
729	7413.6	
729.18	6586.3	
729.36	4018.8	
729.54	6555.5	
729.72	7673.1	
729.91	5761.6	
730.09	5987.6	
730.27	4690.5	
730.45	5651.7	
730.63	6386.9	
730.81	5369.8	
730.99	4218.1	
731.17	6956.3	
731.35	5380	
731.53	4831.2	
731.71	4435.2	
731.9	6632	
732.08	6837.5	
732.26	4746.5	
732.44	4394.9	
732.62	6914.6	
732.8	6356.9	
732.98	5216.2	
733.16	4138.9	
733.34	6320	
733.52	5029.1	
733.7	4670.1	
733.88	5048.2	
734.07	6181.5	
734.25	5865.4	
734.43	4128	
734.61	5860.6	
734.79	7524.9	
734.97	5789.6	
735.15	4326.7	
735.33	4706.2	
735.51	6198.5	
735.69	5856.5	
735.87	5905.7	
736.05	4889.9	
736.23	5999.9	
736.41	5806.7	
736.59	4747.2	
736.77	4769.7	
736.95	6498.9	
737.13	5910.4	
737.32	4378.6	
737.5	4578.6	
737.68	7071.6	
737.86	5744.6	
738.04	4093.2	
738.22	6283.9	
738.4	5536.3	
738.58	5878.4	
738.76	4915.8	
738.94	3661.1	
739.12	5662	
739.3	5603.9	
739.48	5488.6	
739.66	5255.8	
739.84	6006.7	
740.02	6027.2	
740.2	3713.6	
740.38	4231.8	
740.56	6343.2	
740.74	5211.4	
740.92	4969.7	
741.1	4882.4	
741.28	5815.5	
741.46	5674.2	
741.64	4451.6	
741.82	5093.3	
742	5804.6	
742.18	5808.7	
742.36	4739	
742.54	4229.1	
742.72	6522.8	
742.9	5137	
743.08	5178.6	
743.26	3809.2	
743.44	6674.3	
743.62	6543.3	
743.8	5290.6	
743.98	4274.1	
744.16	6265.4	
744.34	5897.5	
744.52	5219.6	
744.7	5120.6	
744.88	6442.2	
745.06	5862	
745.24	5319.9	
745.42	5384.1	
745.6	6469.5	
745.78	6283.2	
745.96	4089.1	
746.14	4422.9	
746.32	7359.7	
746.5	6563.1	
746.68	5028.4	
746.86	4488.5	
747.03	7066.2	
747.21	5204.6	
747.39	4982.7	
747.57	4477.5	
747.75	6138.4	
747.93	6573.3	
748.11	4444.1	
748.29	4406.5	
748.47	7786.4	
748.65	5870.8	
748.83	5211.4	
749.01	4930.1	
749.19	6343.2	
749.37	5442.1	
749.55	4773.1	
749.73	4902.8	
749.91	5979.4	
750.09	5739.8	
750.26	4904.9	
750.44	4288.4	
750.62	6035.4	
750.8	6058.6	
750.98	4109.6	
751.16	4486.4	
751.34	6133	
751.52	5343.2	
751.7	5473.5	
751.88	4170.3	
752.06	6600.6	
752.24	6460	
752.42	4020.8	
752.59	4535.6	
752.77	5948	
752.95	7368.6	
753.13	5279	
753.31	4663.2	
753.49	5630.5	
753.67	6171.9	
753.85	4926	
754.03	4521.2	
754.21	6436.8	
754.38	6926.2	
754.56	4803.2	
754.74	3675.4	
754.92	5721.3	
755.1	6548	
755.28	3795.6	
755.46	3852.2	
755.64	7412.3	
755.82	7589.8	
755.99	4296.6	
756.17	4401.8	
756.35	4977.9	
756.53	6704.4	
756.71	3253.5	
756.89	4309.6	
757.07	6278.4	
757.25	5194.3	
757.42	4844.8	
757.6	5807.4	
757.78	6262	
757.96	5100.1	
758.14	4530.1	
758.32	3932.8	
758.5	4658.4	
758.67	5573.9	
758.85	4217.5	
759.03	4461.8	
759.21	5806.7	
759.39	5165	
759.57	3853.6	
759.75	5061.2	
759.92	6427.2	
760.1	5600.5	
760.28	5479	
760.46	5715.2	
760.64	5413.5	
760.82	5098.1	
760.99	5053.7	
761.17	4331.5	
761.35	6255.9	
761.53	5236	
761.71	4478.2	
761.89	5224.4	
762.06	6087.9	
762.24	5563	
762.42	4519.9	
762.6	4244.1	
762.78	5525.4	
762.96	6267.5	
763.13	4909.7	
763.31	4607.9	
763.49	6462	
763.67	5534.3	
763.85	5463.3	
764.02	6135.7	
764.2	6720.1	
764.38	5858.6	
764.56	4445.5	
764.74	5485.8	
764.91	6911.9	
765.09	5671.5	
765.27	4114.4	
765.45	3959.4	
765.63	6881.2	
765.8	6780.8	
765.98	3605.8	
766.16	4016.7	
766.34	5218.2	
766.52	5012.1	
766.69	5024.3	
766.87	3839.9	
767.05	5677	
767.23	6587.6	
767.41	4209.3	
767.58	4407.9	
767.76	6339.8	
767.94	6425.2	
768.12	4291.9	
768.29	5124	
768.47	5776	
768.65	6572.6	
768.83	3868.6	
769	5154.7	
769.18	5343.2	
769.36	6135	
769.54	5192.3	
769.72	3934.8	
769.89	6363	
770.07	6521.4	
770.25	4290.5	
770.43	5665.4	
770.6	7333.1	
770.78	7737.2	
770.96	4489.8	
771.14	5271.5	
771.31	6353.5	
771.49	5669.5	
771.67	3564.8	
771.85	3980.6	
772.02	4767.7	
772.2	5618.3	
772.38	4849.6	
772.55	4147.8	
772.73	5947.3	
772.91	5734.3	
773.09	4610.7	
773.26	4681.7	
773.44	5886.5	
773.62	5530.2	
773.8	4012.7	
773.97	3788.7	
774.15	6005.3	
774.33	5511.8	
774.5	3959.4	
774.68	4390.2	
774.86	6197.2	
775.04	5537.7	
775.21	4104.1	
775.39	4091.8	
775.57	5873.6	
775.74	6385.6	
775.92	3927.3	
776.1	3787.4	
776.27	5874.3	
776.45	7248.4	
776.63	4126	
776.81	3553.9	
776.98	5494	
777.16	6798.6	
777.34	4338.3	
777.51	4588.1	
777.69	5459.9	
777.87	5205.9	
778.04	4250.9	
778.22	5010	
778.4	5313.8	
778.57	5999.9	
778.75	3461.7	
778.93	3829.7	
779.1	5049.6	
779.28	4946.5	
779.46	3553.9	
779.64	4079.6	
779.81	6217.6	
779.99	7266.9	
780.17	4963.6	
780.34	5092.6	
780.52	5610.1	
780.69	5857.9	
780.87	4454.3	
781.05	3999.7	
781.22	5633.3	
781.4	5764.3	
781.58	4100.7	
781.75	3225.6	
781.93	5789.6	
782.11	5100.8	
782.28	5116.5	
782.46	4167.6	
782.64	4941.1	
782.81	6011.5	
782.99	4219.5	
783.17	4204.5	
783.34	5819.6	
783.52	4956.8	
783.69	4420.2	
783.87	5330.9	
784.05	5168.4	
784.22	5094	
784.4	5298.1	
784.58	4573.1	
784.75	6105.7	
784.93	5139.7	
785.1	4198.3	
785.28	4866	
785.46	5876.3	
785.63	5048.2	
785.81	4118.5	
785.99	4012.7	
786.16	5293.3	
786.34	5670.8	
786.51	3999	
786.69	4471.4	
786.87	4814.1	
787.04	5398.4	
787.22	3872.7	
787.39	4940.4	
787.57	5057.8	
787.75	6266.1	
787.92	5045.5	
788.1	5039.4	
788.27	5158.8	
788.45	4872.8	
788.63	4760.2	
788.8	3330.7	
788.98	5694	
789.15	4820.2	
789.33	3489.7	
789.5	4245.4	
789.68	6213.5	
789.86	6264.1	
790.03	4670.7	
790.21	4053.6	
790.38	6135.7	
790.56	5281.7	
790.73	3932.8	
790.91	4002.4	
791.09	5171.8	
791.26	5922	
791.44	4146.5	
791.61	3593.5	
791.79	5157.5	
791.96	5248.3	
792.14	3718.4	
792.32	3258.3	
792.49	5145.2	
792.67	5308.3	
792.84	3788.7	
793.02	3521.8	
793.19	5580.7	
793.37	6440.9	
793.54	3291.8	
793.72	3666.5	
793.89	6622.4	
794.07	5193.6	
794.25	4345.1	
794.42	3330	
794.6	6322.8	
794.77	5956.2	
794.95	4653	
795.12	3964.9	
795.3	5104.2	
795.47	5879	
795.65	4401.8	
795.82	4187.4	
796	4944.5	
796.17	7103.7	
796.35	4156	
796.52	4959.5	
796.7	5766.4	
796.87	5883.8	
797.05	5162.9	
797.22	5038	
797.4	5774.6	
797.57	6969.9	
797.75	4252.3	
797.92	3990.8	
798.1	6135.7	
798.27	5212.8	
798.45	3382.6	
798.62	3692.5	
798.8	5477.6	
798.97	6089.3	
799.15	4556	
799.32	4296.6	
799.5	4637.3	
799.67	5627.8	
799.85	4616.8	
800.02	3315.7	
800.2	5062.6	
800.37	5483.1	
800.55	4856.4	
800.72	4005.1	
800.9	5979.4	
801.07	6548.7	
801.25	5436.7	
801.42	4373.1	
801.6	5999.2	
801.77	5742.5	
801.95	4091.2	
802.12	3933.5	
802.29	5659.2	
802.47	5771.9	
802.64	4412	
802.82	3284.3	
802.99	5117.2	
803.17	6298.2	
803.34	4237.9	
803.52	3819.5	
803.69	6956.9	
803.87	4957.4	
804.04	4229.7	
804.21	4330.1	
804.39	6295.5	
804.56	5413.5	
804.74	3599	
804.91	4453	
805.09	5122	
805.26	5345.9	
805.44	3659.7	
805.61	4059.1	
805.78	5956.9	
805.96	5874.9	
806.13	4409.3	
806.31	4772.4	
806.48	4713.1	
806.66	5264	
806.83	4388.1	
807	4354	
807.18	5074.2	
807.35	5611.4	
807.53	4314.4	
807.7	3340.9	
807.87	6399.9	
808.05	5227.8	
808.22	4812.7	
808.4	3411.9	
808.57	5230.5	
808.74	4813.4	
808.92	3956.7	
809.09	5033.9	
809.27	5031.2	
809.44	5761.6	
809.61	3465.8	
809.79	3921.9	
809.96	6462	
810.14	5988.3	
810.31	3348.4	
810.48	4149.2	
810.66	5318.6	
810.83	6152.1	
811.01	3934.1	
811.18	4383.3	
811.35	6008.1	
811.53	4626.4	
811.7	4812.7	
811.87	4433.2	
812.05	5230.5	
812.22	5178.6	
812.39	3779.9	
812.57	3695.2	
812.74	5224.4	
812.92	7117.4	
813.09	4077.5	
813.26	4537.6	
813.44	6771.9	
813.61	5188.9	
813.78	3415.3	
813.96	4635.2	
814.13	5229.8	
814.3	4839.4	
814.48	5057.1	
814.65	4147.1	
814.82	6618.4	
815	4943.8	
815.17	4230.4	
815.34	5175.2	
815.52	5122	
815.69	5194.3	
815.87	4220.9	
816.04	4216.8	
816.21	5266	
816.38	4545.1	
816.56	4084.3	
816.73	3799.7	
816.9	6630	
817.08	6040.8	
817.25	3844.7	
817.42	4871.4	
817.6	4748.6	
817.77	5291.3	
817.94	4387.4	
818.12	3780.6	
818.29	4917.2	
818.46	7927.7	
818.64	3953.9	
818.81	3715	
818.98	4851	
819.16	7210.2	
819.33	4551.3	
819.5	4257	
819.67	5595.7	
819.85	6407.4	
820.02	4172.4	
820.19	4459.1	
820.37	5440.1	
820.54	5001.8	
820.71	4289.8	
820.88	5375.9	
821.06	5531.6	
821.23	5014.8	
821.4	4321.2	
821.58	4295.3	
821.75	6003.3	
821.92	5390.3	
822.09	3515.7	
822.27	3594.2	
822.44	5263.3	
822.61	5103.5	
822.79	3515	
822.96	6754.9	
823.13	5822.4	
823.3	4950.6	
823.48	4118.5	
823.65	3633.1	
823.82	5963	
823.99	4733.5	
824.17	5161.6	
824.34	3725.9	
824.51	7002	
824.68	5311.1	
824.86	3893.9	
825.03	4331.5	
825.2	5186.8	
825.37	6453.8	
825.55	3817.4	
825.72	4228.4	
825.89	7051.2	
826.06	6512.5	
826.24	4227	
826.41	4214	
826.58	6363.7	
826.75	5640.8	
826.92	3231.7	
827.1	3624.9	
827.27	8837	
827.44	6968.6	
827.61	3899.3	
827.79	4816.1	
827.96	4929.5	
828.13	5384.1	
828.3	4114.4	
828.47	3437.9	
828.65	5423	
828.82	5428.5	
828.99	5462.6	
829.16	4683	
829.34	5894.7	
829.51	5650.3	
829.68	4267.3	
829.85	4474.1	
830.02	6223.1	
830.2	5938.4	
830.37	3274.7	
830.54	5249.6	
830.71	6710.5	
830.88	5214.1	
831.05	3365.5	
831.23	3861.1	
831.4	6446.3	
831.57	7214.3	
831.74	3969.6	
831.91	3486.3	
832.09	5449	
832.26	5829.9	
832.43	4132.8	
832.6	4620.9	
832.77	5485.8	
832.94	6300.2	
833.12	3231	
833.29	4063.2	
833.46	5678.3	
833.63	7493.5	
833.8	4529.4	
833.97	4145.8	
834.15	5899.5	
834.32	5607.3	
834.49	4326.7	
834.66	4408.6	
834.83	6154.1	
835	4934.9	
835.17	3992.9	
835.35	4044.1	
835.52	5786.9	
835.69	5652.4	
835.86	4228.4	
836.03	3484.3	
836.2	5868.8	
836.37	5442.1	
836.55	4147.1	
836.72	3881.6	
836.89	5395.7	
837.06	5963.7	
837.23	4268	
837.4	4685.8	
837.57	6811.5	
837.75	7549.5	
837.92	3791.5	
838.09	4078.2	
838.26	5382.1	
838.43	6240.8	
838.6	4291.9	
838.77	3859.7	
838.94	7148.8	
839.11	6813.6	
839.29	4108.2	
839.46	3244.7	
839.63	5899.5	
839.8	5582.8	
839.97	3966.9	
840.14	4028.4	
840.31	5615.5	
840.48	5865.4	
840.65	3293.1	
840.82	3857	
841	5863.3	
841.17	5804.6	
841.34	3638.6	
841.51	3694.5	
841.68	5804.6	
841.85	5525.4	
842.02	3794.2	
842.19	3108.1	
842.36	5593	
842.53	5610.8	
842.7	3685	
842.87	4562.2	
843.05	7436.2	
843.22	5538.4	
843.39	3521.1	
843.56	3745.1	
843.73	5259.9	
843.9	5939.8	
844.07	6106.4	
844.24	5031.9	
844.41	8758.5	
844.58	5021.6	
844.75	3561.4	
844.92	3940.3	
845.09	5810.8	
845.26	5834	
845.43	3586.7	
845.6	3830.4	
845.77	5813.5	
845.94	5540.4	
846.12	4075.5	
846.29	4313	
846.46	6072.2	
846.63	5883.1	
846.8	3660.4	
846.97	4379.2	
847.14	6367.8	
847.31	5760.9	
847.48	4180.6	
847.65	4595.6	
847.82	6112.5	
847.99	6152.8	
848.16	4955.4	
848.33	4604.5	
848.5	5352	
848.67	6318	
848.84	3667.9	
849.01	3791.5	
849.18	5223.7	
849.35	4878.9	
849.52	4635.9	
849.69	3576.4	
849.86	6074.3	
850.03	6281.1	
850.2	3660.4	
850.37	4571.1	
850.54	6363.7	
850.71	5476.3	
850.88	4480.3	
851.05	3602.4	
851.22	5795.1	
851.39	6449.7	
851.56	3420.8	
851.73	4240	
851.9	5122.7	
852.07	6075	
852.24	4057	
852.41	3629	
852.58	5714.5	
852.75	5130.2	
852.92	4152.6	
853.09	3547.8	
853.26	5457.2	
853.43	6358.9	
853.6	3601	
853.77	3123.8	
853.94	6422.4	
854.11	5782.8	
854.28	5511.1	
854.44	3974.4	
854.61	6931.7	
854.78	6232.7	
854.95	3632.4	
855.12	4601.8	
855.29	4688.5	
855.46	6483.9	
855.63	3668.6	
855.8	5128.1	
855.97	5365	
856.14	6227.9	
856.31	5219.6	
856.48	4009.2	
856.65	5362.9	
856.82	5106.3	
856.99	3453.6	
857.16	3943.7	
857.33	7240.3	
857.49	5444.9	
857.66	4012.7	
857.83	4313.7	
858	5472.2	
858.17	5621	
858.34	3436.5	
858.51	3679.5	
858.68	6634.1	
858.85	6657.3	
859.02	4272.1	
859.19	4504.8	
859.36	5119.2	
859.52	5141.1	
859.69	3670.6	
859.86	4302.1	
860.03	5180.7	
860.2	6466.8	
860.37	3310.2	
860.54	3614	
860.71	6120.7	
860.88	6626.5	
861.05	4113.7	
861.21	4622.3	
861.38	6574.7	
861.55	4998.4	
861.72	3321.1	
861.89	4084.3	
862.06	6193.1	
862.23	6737.1	
862.4	3553.2	
862.56	3832.4	
862.73	5937.7	
862.9	5640.8	
863.07	4248.2	
863.24	3280.2	
863.41	4986.1	
863.58	5145.9	
863.75	3758	
863.91	4259.8	
864.08	6556.2	
864.25	5990.3	
864.42	4623.6	
864.59	5158.8	
864.76	6938.5	
864.93	5110.4	
865.09	3534.8	
865.26	3905.5	
865.43	6388.3	
865.6	6690	
865.77	3139.5	
865.94	3600.3	
866.1	6462	
866.27	6107.7	
866.44	5576.6	
866.61	3433.1	
866.78	5507.7	
866.95	5986.9	
867.11	3557.3	
867.28	3236.5	
867.45	6199.9	
867.62	5194.3	
867.79	4338.3	
867.96	3605.1	
868.12	5128.8	
868.29	6163	
868.46	3659	
868.63	4917.2	
868.8	6257.9	
868.97	6093.4	
869.13	3828.3	
869.3	3811.3	
869.47	5971.9	
869.64	6262.7	
869.81	3642.7	
869.97	3687.7	
870.14	5838.1	
870.31	6608.8	
870.48	3558	
870.65	4713.7	
870.81	5497.4	
870.98	5473.5	
871.15	4151.2	
871.32	3803.1	
871.48	5943.9	
871.65	6649.8	
871.82	3616	
871.99	4064.5	
872.16	7114	
872.32	6509.8	
872.49	3628.3	
872.66	3734.1	
872.83	6135	
872.99	5345.9	
873.16	4213.4	
873.33	3603.7	
873.5	5735.7	
873.67	5766.4	
873.83	3829	
874	4890.5	
874.17	5859.2	
874.34	7021.1	
874.5	4760.8	
874.67	4622.9	
874.84	6599.9	
875.01	5120.6	
875.17	5221	
875.34	3666.5	
875.51	5741.8	
875.68	6996.5	
875.84	4397.7	
876.01	5500.2	
876.18	6102.3	
876.34	5993	
876.51	3680.2	
876.68	3647.4	
876.85	5504.9	
877.01	6431.3	
877.18	5239.4	
877.35	3633.1	
877.52	5582.1	
877.68	5038	
877.85	3589.4	
878.02	3592.8	
878.18	5618.9	
878.35	5304.9	
878.52	2833	
878.69	4119.1	
878.85	6036	
879.02	6152.8	
879.19	5180.7	
879.35	3939.6	
879.52	5958.9	
879.69	6348	
879.86	3132.7	
880.02	4107.5	
880.19	5612.8	
880.36	6956.9	
880.52	4189.5	
880.69	4402.5	
880.86	6160.3	
881.02	6197.2	
881.19	4068.6	
881.36	3988.8	
881.52	6067.4	
881.69	5336.3	
881.86	3980.6	
882.02	3827.7	
882.19	6361	
882.36	7470.3	
882.52	3760.1	
882.69	5195.7	
882.86	5825.1	
883.02	5679.7	
883.19	4472.1	
883.36	4216.8	
883.52	6183.5	
883.69	7038.9	
883.86	3745.7	
884.02	3291.8	
884.19	6142.5	
884.36	5651.7	
884.52	4151.9	
884.69	3887.7	
884.86	5347.9	
885.02	6828.6	
885.19	4095.9	
885.36	4269.3	
885.52	5666	
885.69	5884.5	
885.86	5299.5	
886.02	4676.2	
886.19	6097.5	
886.35	5557.5	
886.52	4057	
886.69	5101.5	
886.85	5191.6	
887.02	6513.9	
887.19	6513.9	
887.35	6513.9	
887.52	6513.9	
887.68	6513.9	
887.85	6513.9	
888.02	6513.9	
888.18	6513.9	
888.35	6513.9	
888.51	6513.9	
888.68	6513.9	
888.85	6513.9	
889.01	6513.9	
889.18	6513.9	
889.35	6513.9	
889.51	6513.9	
889.68	6513.9	
889.84	6513.9	
890.01	6513.9	
890.17	6513.9	
890.34	6513.9	
890.51	6513.9	
890.67	6513.9	
890.84	6513.9	
891	6513.9	
891.17	6513.9	
891.34	6513.9	
891.5	6513.9	
891.67	6513.9	
891.83	6513.9	
892	6513.9	
892.16	6513.9	
892.33	6513.9	
892.5	6513.9	
892.66	6513.9	
892.83	6513.9	
892.99	6513.9	
893.16	6513.9	
893.32	6513.9	
893.49	6513.9	
893.65	6513.9	
893.82	6513.9	
893.99	6513.9	
894.15	6513.9	
894.32	6513.9	
894.48	6513.9	
894.65	6513.9	
894.81	6513.9	
894.98	6513.9	
895.14	6513.9	
895.31	6513.9	
895.47	6513.9	
895.64	6513.9	
895.81	6513.9	
895.97	6513.9	
896.14	6513.9	
896.3	6513.9	
896.47	6513.9	
896.63	6513.9	
896.8	6513.9	
896.96	6513.9	
897.13	6513.9	
897.29	6513.9	
897.46	6513.9	
897.62	6513.9	
897.79	6513.9	
897.95	6513.9	
898.12	6513.9	
898.28	6513.9	
898.45	6513.9	
898.61	6513.9	
898.78	6513.9	
898.94	6513.9	
899.11	6513.9	
899.27	6513.9	
899.44	6513.9	
899.6	6513.9	
899.77	6513.9	
899.93	6513.9	
900.1	6513.9	
900.26	6513.9	
900.43	6513.9	
900.59	6513.9	
900.76	6513.9	
900.92	6513.9	
901.09	6513.9	
901.25	6513.9	
901.42	6513.9	
901.58	6513.9	
901.75	6513.9	
901.91	6513.9	
902.07	6513.9	
902.24	6513.9	
902.4	6513.9	
902.57	6513.9	
902.73	6513.9	
902.9	6513.9	
903.06	6513.9	
903.23	6513.9	
903.39	6513.9	
903.56	6513.9	
903.72	6513.9	
903.88	6513.9	
904.05	6513.9	
904.21	6513.9	
904.38	6513.9	
904.54	6513.9	
904.71	6513.9	
904.87	6513.9	
905.03	6513.9	
905.2	6513.9	
905.36	6513.9	
905.53	6513.9	
905.69	6513.9	
905.86	6513.9	
906.02	6513.9	
906.18	6513.9	
906.35	6513.9	
906.51	6513.9	
906.68	6513.9	
906.84	6513.9	
907.01	6513.9	
907.17	6513.9	
907.33	6513.9	
907.5	6513.9	
907.66	6513.9	
907.83	6513.9	
907.99	6513.9	
908.15	6513.9	
908.32	6513.9	
908.48	6513.9	
908.65	6513.9	
908.81	6513.9	
908.97	6513.9	
909.14	6513.9	
909.3	6513.9	
909.47	6513.9	
909.63	6513.9	
909.79	6513.9	
909.96	6513.9	
910.12	6513.9	
910.28	6513.9	
910.45	6513.9	
910.61	6513.9	
910.78	6513.9	
910.94	6513.9	
911.1	6513.9	
911.27	6513.9	
911.43	6513.9	
911.59	6513.9	
911.76	6513.9	
911.92	6513.9	
912.08	6513.9	
912.25	6513.9	
912.41	6513.9	
912.57	6513.9	
912.74	6513.9	
912.9	6513.9	
913.07	6513.9	
913.23	6513.9	
913.39	6513.9	
913.56	6513.9	
913.72	6513.9	
913.88	6513.9	
914.05	6513.9	
914.21	6513.9	
914.37	6513.9	
914.54	6513.9	
914.7	6513.9	
914.86	6513.9	
915.03	6513.9	
915.19	6513.9	
