Wavelength	Intensities	
nm	a.u.	
179.22	1877.8	
179.44	1886.5	
179.65	1869.1	
179.86	1903.9	
180.08	1884.8	
180.29	4885.8	
180.51	3467.2	
180.72	5559.6	
180.94	6637.5	
181.15	3285.6	
181.37	3162.7	
181.58	5514.5	
181.79	5737	
182.01	3288.4	
182.22	3611.3	
182.44	5753.4	
182.65	4833.9	
182.87	4517.1	
183.08	3967.6	
183.29	6083.8	
183.51	5007.3	
183.72	3609.2	
183.94	5246.2	
184.15	5358.2	
184.37	5423	
184.58	3229	
184.79	4432.5	
185.01	4990.9	
185.22	5729.5	
185.44	4659.8	
185.65	3900	
185.86	5299.5	
186.08	4844.8	
186.29	3106.8	
186.51	3389.4	
186.72	4991.6	
186.94	5886.5	
187.15	3910.9	
187.36	4029	
187.58	7653.3	
187.79	5464	
188.01	4199.7	
188.22	6505	
188.43	6607.4	
188.65	5748.6	
188.86	3334.1	
189.08	3981.3	
189.29	5264.6	
189.5	5240.8	
189.72	3748.5	
189.93	3813.3	
190.15	5913.9	
190.36	7127.6	
190.57	4035.2	
190.79	3966.9	
191	6036.7	
191.22	6006	
191.43	4092.5	
191.64	3323.2	
191.86	6333	
192.07	5987.6	
192.29	3506.1	
192.5	3693.2	
192.71	5950.7	
192.93	5122.7	
193.14	3709.6	
193.35	3766.9	
193.57	5184.8	
193.78	5978	
194	2994.8	
194.21	3602.4	
194.42	4930.8	
194.64	5406	
194.85	4012	
195.07	4721.3	
195.28	5414.1	
195.49	4702.8	
195.71	4962.9	
195.92	3481.5	
196.13	5577.3	
196.35	5706.3	
196.56	5240.8	
196.78	3982.6	
196.99	7015	
197.2	6562.4	
197.42	4531.5	
197.63	4044.1	
197.84	4810.7	
198.06	5603.9	
198.27	3714.3	
198.48	4978.6	
198.7	5201.8	
198.91	5264	
199.13	4048.2	
199.34	3997	
199.55	5873.6	
199.77	4654.4	
199.98	3568.9	
200.19	4091.2	
200.41	5256.5	
200.62	5025	
200.83	4164.2	
201.05	4480.3	
201.26	5237.3	
201.47	5064.6	
201.69	3566.2	
201.9	3426.9	
202.11	5388.9	
202.33	6370.5	
202.54	3869.3	
202.76	4217.5	
202.97	5539.8	
203.18	5493.3	
203.4	4203.8	
203.61	4095.3	
203.82	5427.8	
204.04	5074.9	
204.25	4060.4	
204.46	4010.6	
204.68	5317.9	
204.89	5626.5	
205.1	3956.7	
205.32	3420.8	
205.53	5798.5	
205.74	5954.8	
205.96	2923.8	
206.17	4174.4	
206.38	5739.8	
206.6	5933.6	
206.81	4672.8	
207.02	3717.7	
207.24	5699.5	
207.45	6022.4	
207.66	3818.8	
207.88	3275.4	
208.09	5580	
208.3	5369.1	
208.52	3551.2	
208.73	3896.6	
208.94	5396.4	
209.15	6188.3	
209.37	3809.2	
209.58	4027	
209.79	5997.8	
210.01	5234.6	
210.22	3061	
210.43	3239.9	
210.65	5352.7	
210.86	5816.9	
211.07	3863.2	
211.29	3524.6	
211.5	5711.1	
211.71	5317.9	
211.93	3528	
212.14	3558.7	
212.35	5245.5	
212.56	5580	
212.78	4014.7	
212.99	3327.9	
213.2	6422.4	
213.42	5133.6	
213.63	3699.3	
213.84	3883.6	
214.06	4759.5	
214.27	4877.6	
214.48	3878.9	
214.69	4095.9	
214.91	6122.1	
215.12	6116.6	
215.33	4160.1	
215.55	4541.7	
215.76	6595.8	
215.97	5754.1	
216.18	3951.2	
216.4	3944.4	
216.61	5112.4	
216.82	5901.6	
217.04	3547.8	
217.25	3717.7	
217.46	6041.5	
217.67	5774.6	
217.89	3172.3	
218.1	3303.4	
218.31	5508.4	
218.53	5584.1	
218.74	3721.2	
218.95	3615.3	
219.16	5382.7	
219.38	6358.9	
219.59	3639.9	
219.8	4322.6	
220.01	6967.2	
220.23	5441.5	
220.44	4721.3	
220.65	3554.6	
220.87	5457.2	
221.08	6026.5	
221.29	3271.3	
221.5	4384	
221.72	7434.1	
221.93	5085.8	
222.14	4084.3	
222.35	4825	
222.57	5509.7	
222.78	5744.6	
222.99	3883.6	
223.2	4185.4	
223.42	5689.3	
223.63	5840.1	
223.84	2912.2	
224.05	2960	
224.27	6913.3	
224.48	6333	
224.69	4798.4	
224.9	4051.6	
225.12	5613.5	
225.33	5395.7	
225.54	3223.5	
225.75	3633.8	
225.97	4928.1	
226.18	5308.3	
226.39	3884.3	
226.6	3571.7	
226.82	5156.8	
227.03	5012.1	
227.24	4056.3	
227.45	3375.1	
227.67	5803.3	
227.88	6398.5	
228.09	4540.3	
228.3	4520.5	
228.52	5814.2	
228.73	5356.1	
228.94	3738.9	
229.15	3291.1	
229.36	5354.8	
229.58	5264	
229.79	3741.6	
230	4410.6	
230.21	6466.1	
230.43	5549.3	
230.64	4033.8	
230.85	4155.3	
231.06	5767.1	
231.28	5822.4	
231.49	3304.7	
231.7	3931.4	
231.91	5702.2	
232.12	5479.7	
232.34	3440.6	
232.55	3975.8	
232.76	5998.5	
232.97	5556.8	
233.18	3548.4	
233.4	4007.9	
233.61	5616.9	
233.82	5273.5	
234.03	3713.6	
234.25	3656.3	
234.46	7529	
234.67	5492	
234.88	4076.1	
235.09	3622.2	
235.31	5704.3	
235.52	5254.4	
235.73	3982.6	
235.94	3377.1	
236.15	5107.6	
236.37	6570.6	
236.58	3561.4	
236.79	3867.2	
237	5732.3	
237.21	4906.9	
237.43	4182.6	
237.64	3248.1	
237.85	9745.6	
238.06	4909.7	
238.27	4307.6	
238.48	3420.8	
238.7	5715.9	
238.91	5265.3	
239.12	3850.2	
239.33	3878.2	
239.54	4999.1	
239.76	5380.7	
239.97	3810.6	
240.18	3907.5	
240.39	6799.3	
240.6	5670.8	
240.82	3999.7	
241.03	3312.2	
241.24	5438	
241.45	6279.8	
241.66	3597.6	
241.87	4219.5	
242.09	6149.4	
242.3	6462.7	
242.51	4199.7	
242.72	3897.3	
242.93	5890.6	
243.14	5359.5	
243.36	4499.4	
243.57	4829.8	
243.78	6210.8	
243.99	5776.6	
244.2	3907.5	
244.41	3529.3	
244.63	4942.4	
244.84	5715.9	
245.05	4141	
245.26	3862.5	
245.47	5690.6	
245.68	5933	
245.9	5162.2	
246.11	4096.6	
246.32	5224.4	
246.53	5675.6	
246.74	6290	
246.95	3283.6	
247.16	4880.3	
247.38	5419.6	
247.59	3243.3	
247.8	3871.3	
248.01	5091.9	
248.22	5340.4	
248.43	3556	
248.64	3799.7	
248.86	4814.1	
249.07	5162.9	
249.28	3459	
249.49	3993.5	
249.7	5939.1	
249.91	6135.7	
250.12	3241.9	
250.34	3292.5	
250.55	5549.3	
250.76	5401.2	
250.97	4034.5	
251.18	4107.5	
251.39	6081.1	
251.6	5565.7	
251.81	4174.4	
252.03	4104.8	
252.24	5159.5	
252.45	5919.3	
252.66	3440.6	
252.87	4304.8	
253.08	5449.6	
253.29	7099.6	
253.5	3355.9	
253.72	4788.2	
253.93	5268.7	
254.14	6382.8	
254.35	3668.6	
254.56	3768.9	
254.77	5646.9	
254.98	5046.2	
255.19	3645.4	
255.41	4745.1	
255.62	5511.1	
255.83	6039.5	
256.04	4188.8	
256.25	4080.9	
256.46	6649.8	
256.67	5073.5	
256.88	3994.9	
257.09	4463.9	
257.31	5026.4	
257.52	5080.3	
257.73	5031.2	
257.94	3650.8	
258.15	5340.4	
258.36	5370.5	
258.57	4632.5	
258.78	2983.2	
258.99	5862.7	
259.2	5260.5	
259.41	3733.4	
259.63	3751.9	
259.84	6161.7	
260.05	6732.4	
260.26	4900.1	
260.47	3624.9	
260.68	5950	
260.89	5399.1	
261.1	4527.4	
261.31	3501.3	
261.52	5971.9	
261.73	6309.1	
261.95	4811.4	
262.16	4252.3	
262.37	6155.5	
262.58	6199.9	
262.79	4800.4	
263	3744.4	
263.21	5406	
263.42	4967.7	
263.63	3837.2	
263.84	3758	
264.05	5980.1	
264.26	6329.6	
264.47	4631.1	
264.69	4131.4	
264.9	6100.9	
265.11	5603.2	
265.32	3600.3	
265.53	3667.2	
265.74	5541.8	
265.95	4831.8	
266.16	3941.7	
266.37	4387.4	
266.58	5489.9	
266.79	5203.9	
267	3719.1	
267.21	3427.6	
267.42	4969.1	
267.63	5329.5	
267.84	3815.4	
268.06	3314.3	
268.27	5857.9	
268.48	6135.7	
268.69	3717.1	
268.9	4450.2	
269.11	6100.9	
269.32	4868	
269.53	3924.6	
269.74	3606.5	
269.95	5737	
270.16	4723.3	
270.37	3916.4	
270.58	4515.8	
270.79	5275.6	
271	5927.5	
271.21	4194.2	
271.42	3956	
271.63	5554.1	
271.84	5045.5	
272.05	3098.6	
272.26	3452.9	
272.47	5418.2	
272.68	5541.8	
272.89	3735.5	
273.11	4320.5	
273.32	5186.8	
273.53	6401.3	
273.74	4241.3	
273.95	4136.2	
274.16	6090.7	
274.37	5478.3	
274.58	4231.1	
274.79	3414.6	
275	5531.6	
275.21	6071.5	
275.42	5076.9	
275.63	4401.8	
275.84	5615.5	
276.05	7124.9	
276.26	4080.2	
276.47	3801.7	
276.68	5237.3	
276.89	6415.6	
277.1	4388.1	
277.31	3418.7	
277.52	5649.7	
277.73	5834.7	
277.94	3383.9	
278.15	3723.9	
278.36	5591.6	
278.57	5047.6	
278.78	3697.3	
278.99	4179.2	
279.2	5041.4	
279.41	5000.5	
279.62	4923.3	
279.83	3467.9	
280.04	6640.9	
280.25	4927.4	
280.46	4917.2	
280.67	3880.9	
280.88	5016.8	
281.09	6075.6	
281.3	4104.1	
281.51	5166.3	
281.72	5883.1	
281.93	5909.8	
282.14	3558	
282.35	3968.3	
282.56	5895.4	
282.77	5842.2	
282.98	3783.3	
283.19	4548.5	
283.4	7253.9	
283.61	5370.5	
283.82	3501.3	
284.03	4832.5	
284.24	5549.3	
284.45	6044.9	
284.66	4827.1	
284.87	4607.2	
285.08	5991.7	
285.29	6115.9	
285.5	3263.1	
285.71	3766.9	
285.92	6053.8	
286.12	6698.9	
286.33	4753.3	
286.54	3736.2	
286.75	5896.1	
286.96	5253.7	
287.17	3522.5	
287.38	4703.5	
287.59	5079	
287.8	4995	
288.01	3819.5	
288.22	4403.8	
288.43	5945.9	
288.64	4960.9	
288.85	4559.5	
289.06	4288.4	
289.27	5793.7	
289.48	6361	
289.69	4871.4	
289.9	4350.6	
290.11	6076.3	
290.32	5134.9	
290.53	4610.7	
290.74	4166.9	
290.94	5859.9	
291.15	5929.6	
291.36	3726.6	
291.57	4425.7	
291.78	5130.2	
291.99	4832.5	
292.2	3498.6	
292.41	4259.1	
292.62	5963	
292.83	5752.7	
293.04	5248.9	
293.25	3504.8	
293.46	5162.2	
293.67	6012.2	
293.88	3670.6	
294.09	3494.5	
294.29	4934.9	
294.5	5570.5	
294.71	3880.9	
294.92	3732.8	
295.13	5209.3	
295.34	6496.8	
295.55	3276.1	
295.76	3370.3	
295.97	5843.5	
296.18	6608.8	
296.39	3512.3	
296.6	3709.6	
296.81	5553.4	
297.01	5840.8	
297.22	3783.3	
297.43	3652.2	
297.64	5033.9	
297.85	5065.3	
298.06	2990.7	
298.27	3267.2	
298.48	5481.7	
298.69	5152	
298.9	3950.5	
299.11	3577.1	
299.31	4958.1	
299.52	4953.4	
299.73	4248.9	
299.94	4153.3	
300.15	5392.3	
300.36	5058.5	
300.57	4190.1	
300.78	4154	
300.99	5314.5	
301.2	5534.3	
301.4	3642.7	
301.61	3902.1	
301.82	5810.1	
302.03	5914.5	
302.24	4429.1	
302.45	3450.8	
302.66	5706.3	
302.87	6144.6	
303.08	3665.2	
303.29	5018.2	
303.49	5183.4	
303.7	5473.5	
303.91	3197.6	
304.12	4798.4	
304.33	4938.3	
304.54	5528.2	
304.75	3648.8	
304.96	3519.1	
305.16	5727.5	
305.37	6437.4	
305.58	3213.3	
305.79	3295.2	
306	5730.9	
306.21	4825.7	
306.42	3745.1	
306.63	5650.3	
306.83	5314.5	
307.04	5982.1	
307.25	4027	
307.46	3979.2	
307.67	4642.7	
307.88	5884.5	
308.09	3560.1	
308.29	3713.6	
308.5	5560.2	
308.71	5987.6	
308.92	3907.5	
309.13	3532.7	
309.34	5236.7	
309.55	5338.4	
309.75	4552.6	
309.96	4166.9	
310.17	5897.5	
310.38	5132.2	
310.59	4352.6	
310.8	3435.1	
311.01	6507.8	
311.21	5328.1	
311.42	3498.6	
311.63	3577.8	
311.84	5167.7	
312.05	5608.7	
312.26	4040.6	
312.46	4534.2	
312.67	5260.5	
312.88	4962.9	
313.09	3497.2	
313.3	3459.7	
313.51	6252.4	
313.71	6574.7	
313.92	3521.1	
314.13	3746.4	
314.34	5619.6	
314.55	5297.4	
314.76	4612.7	
314.96	3970.3	
315.17	5466.7	
315.38	5833.3	
315.59	3564.1	
315.8	3401	
316.01	6257.9	
316.21	6344.6	
316.42	3375.7	
316.63	3908.9	
316.84	5303.6	
317.05	6121.4	
317.26	4132.8	
317.46	3702.7	
317.67	5373.9	
317.88	5832.6	
318.09	4505.5	
318.3	3266.5	
318.5	5147.2	
318.71	5712.5	
318.92	5745.2	
319.13	4207.9	
319.34	5921.4	
319.54	6048.3	
319.75	3284.9	
319.96	3132	
320.17	5823.7	
320.38	6043.6	
320.58	3170.9	
320.79	3876.8	
321	5942.5	
321.21	6161.7	
321.42	3870.7	
321.62	3261	
321.83	5053	
322.04	5492	
322.25	3751.9	
322.46	3510.2	
322.66	5560.9	
322.87	5689.3	
323.08	4351.9	
323.29	3548.4	
323.5	6472.9	
323.7	4999.1	
323.91	4873.5	
324.12	4306.2	
324.33	5520	
324.53	5711.8	
324.74	4197	
324.95	4460.5	
325.16	4767	
325.37	5227.8	
325.57	3549.1	
325.78	3640.6	
325.99	5479.7	
326.2	4954.7	
326.4	4986.8	
326.61	3328.6	
326.82	5314.5	
327.03	5520.6	
327.24	5023	
327.44	4708.3	
327.65	5705	
327.86	4631.1	
328.07	4134.8	
328.27	3387.3	
328.48	6141.9	
328.69	5010	
328.9	5099.4	
329.1	3829	
329.31	5301.5	
329.52	6258.6	
329.73	3591.5	
329.93	3991.5	
330.14	5418.9	
330.35	5654.4	
330.56	5792.3	
330.76	4403.1	
330.97	5268.1	
331.18	5622.4	
331.39	3978.5	
331.59	3213.3	
331.8	6032.6	
332.01	6077	
332.22	3661.8	
332.42	4168.3	
332.63	5574.6	
332.84	5130.2	
333.05	4003.1	
333.25	3614.7	
333.46	5182.7	
333.67	5402.5	
333.88	3691.8	
334.08	4123.2	
334.29	7150.1	
334.5	6053.1	
334.7	3426.3	
334.91	5023	
335.12	4974.5	
335.33	5889.3	
335.53	3889.8	
335.74	5797.1	
335.95	5169.8	
336.16	5089.9	
336.36	4010.6	
336.57	4586.8	
336.78	4930.8	
336.98	6014.9	
337.19	4827.1	
337.4	3876.8	
337.61	6519.4	
337.81	4989.5	
338.02	3598.3	
338.23	4693.9	
338.43	6169.2	
338.64	5076.9	
338.85	3578.5	
339.05	4668	
339.26	6263.4	
339.47	4891.9	
339.68	3545	
339.88	5268.1	
340.09	5647.6	
340.3	5876.3	
340.5	4211.3	
340.71	3175.7	
340.92	4943.8	
341.13	6114.6	
341.33	3435.8	
341.54	4166.9	
341.75	5628.5	
341.95	5274.9	
342.16	3965.6	
342.37	4317.1	
342.57	5010.7	
342.78	5434.6	
342.99	4414.1	
343.19	3175	
343.4	5840.1	
343.61	5688.6	
343.81	3756.7	
344.02	3508.9	
344.23	5845.6	
344.43	6284.5	
344.64	4377.9	
344.85	4292.5	
345.06	5657.9	
345.26	6107	
345.47	4060.4	
345.68	4823	
345.88	4790.9	
346.09	5912.5	
346.3	4205.8	
346.5	3147.7	
346.71	5442.1	
346.92	5127.4	
347.12	3306.8	
347.33	4107.5	
347.54	5955.5	
347.74	6376.7	
347.95	4083.6	
348.16	3059.7	
348.36	5208	
348.57	4979.3	
348.78	4059.1	
348.98	4352.6	
349.19	5367	
349.39	4925.4	
349.6	3280.2	
349.81	3596.9	
350.01	5717.2	
350.22	5135.6	
350.43	3874.8	
350.63	4769	
350.84	5473.5	
351.05	5228.5	
351.25	3570.3	
351.46	3218	
351.67	6006.7	
351.87	5137.7	
352.08	3790.1	
352.29	4306.9	
352.49	5900.2	
352.7	5979.4	
352.9	3497.9	
353.11	4334.9	
353.32	6587	
353.52	5213.4	
353.73	3383.9	
353.94	4386.1	
354.14	5752.7	
354.35	5580	
354.55	3535.5	
354.76	3973.1	
354.97	5683.1	
355.17	5472.2	
355.38	3321.1	
355.59	4687.8	
355.79	5199.1	
356	5580	
356.2	3872.7	
356.41	3426.9	
356.62	4894.6	
356.82	5333.6	
357.03	4244.8	
357.24	3824.2	
357.44	5167.7	
357.65	5250.3	
357.85	5069.4	
358.06	4052.9	
358.27	4913.1	
358.47	5113.1	
358.68	3321.1	
358.88	4221.5	
359.09	5692.7	
359.3	6061.3	
359.5	4849.6	
359.71	4392.9	
359.91	6593.1	
360.12	5937.7	
360.33	4233.8	
360.53	4661.9	
360.74	5161.6	
360.94	5268.1	
361.15	4401.8	
361.36	3665.9	
361.56	6010.8	
361.77	5444.9	
361.97	4911	
362.18	3906.8	
362.38	6059.3	
362.59	5066.7	
362.8	3646.7	
363	3424.9	
363.21	4893.3	
363.41	5602.6	
363.62	4152.6	
363.83	5212.8	
364.03	5662	
364.24	6638.8	
364.44	5266	
364.65	5330.2	
364.85	5416.9	
365.06	5123.3	
365.27	3856.3	
365.47	3848.1	
365.68	6450.4	
365.88	5413.5	
366.09	4197	
366.29	3896.6	
366.5	5721.3	
366.71	6105.7	
366.91	5217.5	
367.12	4407.2	
367.32	6767.2	
367.53	5997.1	
367.73	4385.4	
367.94	5343.8	
368.14	5972.6	
368.35	6866.8	
368.56	4435.9	
368.76	3736.9	
368.97	6062	
369.17	7815	
369.38	3860.4	
369.58	4106.2	
369.79	5130.2	
369.99	6419	
370.2	5240.8	
370.4	4294.6	
370.61	5759.6	
370.82	6986.3	
371.02	4098.7	
371.23	3496.6	
371.43	5046.2	
371.64	6378.1	
371.84	4146.5	
372.05	5367.7	
372.25	7715.4	
372.46	6139.8	
372.66	4192.2	
372.87	4162.2	
373.07	6223.1	
373.28	7793.9	
373.48	5291.3	
373.69	4922.6	
373.9	5728.2	
374.1	5717.9	
374.31	5252.4	
374.51	4798.4	
374.72	6553.5	
374.92	5353.4	
375.13	5424.4	
375.33	4565.6	
375.54	6184.2	
375.74	5569.1	
375.95	4684.4	
376.15	5997.8	
376.36	6207.4	
376.56	6014.2	
376.77	4835.9	
376.97	5259.2	
377.18	7294.9	
377.38	6359.6	
377.59	5594.4	
377.79	4305.5	
378	6168.5	
378.2	6569.2	
378.41	4498.7	
378.61	4384	
378.82	6681.8	
379.02	5771.9	
379.23	4662.5	
379.43	5834.7	
379.64	6845	
379.84	6452.5	
380.05	4427	
380.25	4473.4	
380.46	6500.9	
380.66	6066.1	
380.87	5799.2	
381.07	6139.8	
381.28	7187.7	
381.48	6507.8	
381.69	4490.5	
381.89	4529.4	
382.1	5429.2	
382.3	6745.3	
382.51	5629.2	
382.71	6565.1	
382.91	6532.3	
383.12	7072.3	
383.32	4872.8	
383.53	5017.5	
383.73	6240.8	
383.94	6184.2	
384.14	5026.4	
384.35	4160.1	
384.55	6081.8	
384.76	6532.3	
384.96	4823	
385.17	5170.4	
385.37	6473.6	
385.58	5760.3	
385.78	5209.3	
385.98	3999.7	
386.19	5891.3	
386.39	6281.8	
386.6	4554	
386.8	4784.1	
387.01	6390.3	
387.21	6414.9	
387.42	5199.8	
387.62	5809.4	
387.83	5819	
388.03	6428.6	
388.23	4855.7	
388.44	5685.8	
388.64	5429.8	
388.85	5637.4	
389.05	5279.7	
389.26	5794.4	
389.46	7585.7	
389.67	6965.8	
389.87	5309	
390.07	5366.4	
390.28	6246.3	
390.48	5799.8	
390.69	4612	
390.89	4911	
391.1	6024.4	
391.3	6944.7	
391.5	6070.2	
391.71	6614.3	
391.91	6630	
392.12	7673.1	
392.32	6170.5	
392.53	5307.7	
392.73	6057.9	
392.93	6255.2	
393.14	5161.6	
393.34	5907	
393.55	6738.5	
393.75	6266.1	
393.95	5028.4	
394.16	4923.3	
394.36	5969.1	
394.57	6614.3	
394.77	4438.6	
394.98	4840	
395.18	5873.6	
395.38	5972.6	
395.59	5699.5	
395.79	4709.6	
396	6057.2	
396.2	6520	
396.4	5642.8	
396.61	5554.1	
396.81	6894.1	
397.02	6148.7	
397.22	5937.7	
397.42	5980.8	
397.63	6922.8	
397.83	6149.4	
398.04	4859.1	
398.24	5442.1	
398.44	6692.8	
398.65	5767.1	
398.85	4750.6	
399.05	4818.2	
399.26	6192.4	
399.46	7998	
399.67	5316.5	
399.87	5039.4	
400.07	6509.8	
400.28	6928.3	
400.48	5111	
400.69	6216.3	
400.89	7253.2	
401.09	7664.2	
401.3	5122.7	
401.5	6239.5	
401.7	8052.6	
401.91	8272.4	
402.11	5541.8	
402.32	5768.4	
402.52	7497.6	
402.72	7272.3	
402.93	6093.4	
403.13	4856.4	
403.33	8155.7	
403.54	6790.4	
403.74	5661.3	
403.94	6495.5	
404.15	6731.7	
404.35	7780.2	
404.56	5222.3	
404.76	6912.6	
404.96	6966.5	
405.17	6665.5	
405.37	6360.3	
405.57	5560.9	
405.78	7055.9	
405.98	6541.9	
406.18	5292	
406.39	6297.5	
406.59	7321.5	
406.79	6922.8	
407	5217.5	
407.2	5370.5	
407.4	7352.9	
407.61	7484	
407.81	5177.9	
408.01	7457.3	
408.22	6130.9	
408.42	8038.3	
408.62	6204	
408.83	5711.8	
409.03	6848.4	
409.23	6791.7	
409.44	6072.9	
409.64	6385.6	
409.84	8165.9	
410.05	8073.1	
410.25	6499.6	
410.45	6224.5	
410.66	7679.2	
410.86	10189	
411.06	6939.2	
411.27	6683.9	
411.47	10058	
411.67	7949.5	
411.88	6936.5	
412.08	7324.9	
412.28	8721.6	
412.49	9352.4	
412.69	6902.3	
412.89	6996.5	
413.09	9141.4	
413.3	9071.8	
413.5	7148.8	
413.7	6700.3	
413.91	8299.7	
414.11	9250.7	
414.31	6962.4	
414.52	7499.7	
414.72	8925	
414.92	8967.4	
415.12	7015.7	
415.33	7677.8	
415.53	9244.5	
415.73	9437	
415.94	7935.9	
416.14	7318.8	
416.34	8312.7	
416.55	8099	
416.75	8624	
416.95	8066.3	
417.15	9265	
417.36	10008	
417.56	8928.5	
417.76	7905.2	
417.97	9788.6	
418.17	9415.9	
418.37	7468.9	
418.57	7651.2	
418.78	9181.7	
418.98	8918.9	
419.18	8585.1	
419.38	8538.7	
419.59	9071.8	
419.79	8624	
419.99	7583.6	
420.2	7915.4	
420.4	9460.3	
420.6	9581.8	
420.8	7445	
421.01	7194.5	
421.21	9269.8	
421.41	9367.4	
421.61	7746.8	
421.82	7522.9	
422.02	8817.2	
422.22	9768.8	
422.42	8460.8	
422.63	7929.7	
422.83	8970.8	
423.03	10191	
423.23	7972.7	
423.44	6948.8	
423.64	8933.9	
423.84	8582.4	
424.04	7337.2	
424.25	7010.2	
424.45	9834.3	
424.65	9754.5	
424.85	6721.4	
425.06	7354.3	
425.26	9641.8	
425.46	8241	
425.66	7821.2	
425.87	7441	
426.07	9409.7	
426.27	9328.5	
426.47	7656.7	
426.67	6925.5	
426.88	9798.2	
427.08	9220.6	
427.28	7919.5	
427.48	6836.8	
427.69	8038.3	
427.89	8767.4	
428.09	7676.5	
428.29	6777.4	
428.5	9437	
428.7	8931.9	
428.9	6919.4	
429.1	7258	
429.3	8822.6	
429.51	9189.2	
429.71	7030	
429.91	7866.9	
430.11	9151.7	
430.31	9468.4	
430.52	7349.5	
430.72	7795.9	
430.92	9849.4	
431.12	9355.1	
431.32	7236.8	
431.53	7653.9	
431.73	8309.3	
431.93	9906.7	
432.13	7045	
432.33	6973.3	
432.54	8586.5	
432.74	8939.4	
432.94	6915.3	
433.14	7871.7	
433.34	9205.6	
433.55	8724.3	
433.75	7884.7	
433.95	9807.7	
434.15	9099.1	
434.35	8885.5	
434.56	7251.2	
434.76	6721.4	
434.96	8959.9	
435.16	9465.7	
435.36	7073	
435.56	8445.1	
435.77	8838.4	
435.97	8970.8	
436.17	9115.5	
436.37	8370.7	
436.57	8837	
436.78	8837.7	
436.98	10019	
437.18	8912.8	
437.38	9719.7	
437.58	9052	
437.78	9149.6	
437.99	7664.9	
438.19	9709.4	
438.39	10472	
438.59	7586.4	
438.79	7067.5	
438.99	10261	
439.2	9004.2	
439.4	7006.8	
439.6	7037.5	
439.8	9147.6	
440	10106	
440.2	7876.5	
440.4	8014.4	
440.61	9512.1	
440.81	10142	
441.01	7309.9	
441.21	8486.1	
441.41	10345	
441.61	9936.7	
441.81	8958.5	
442.02	10005	
442.22	10909	
442.42	10137	
442.62	7782.3	
442.82	7742	
443.02	10498	
443.22	9555.8	
443.43	8230.8	
443.63	7730.4	
443.83	9268.4	
444.03	9355.1	
444.23	9043.8	
444.43	8645.8	
444.63	9779.7	
444.83	10967	
445.04	8109.3	
445.24	9314.2	
445.44	10155	
445.64	10382	
445.84	8734.6	
446.04	8852.7	
446.24	9492.3	
446.44	10561	
446.65	7904.5	
446.85	8318.2	
447.05	9648.7	
447.25	10398	
447.45	8185.7	
447.65	7571.3	
447.85	9556.5	
448.05	9189.2	
448.25	8679.3	
448.46	8369.4	
448.66	9630.2	
448.86	9290.3	
449.06	7406.8	
449.26	8540	
449.46	10096	
449.66	8854.7	
449.86	8129.1	
450.06	8127.7	
450.26	9219.3	
450.47	9815.2	
450.67	8391.9	
450.87	8826.1	
451.07	9976.3	
451.27	9740.1	
451.47	7763.2	
451.67	8428.8	
451.87	9516.2	
452.07	10456	
452.27	8065.6	
452.47	7967.3	
452.67	9785.9	
452.88	10263	
453.08	7348.1	
453.28	9555.8	
453.48	11122	
453.68	9643.2	
453.88	8015.7	
454.08	8211.7	
454.28	10149	
454.48	9607	
454.68	8634.9	
454.88	9227.5	
455.08	10044	
455.28	10002	
455.48	7633.5	
455.68	8471.1	
455.89	10816	
456.09	10433	
456.29	8227.4	
456.49	8392.6	
456.69	10674	
456.89	9808.4	
457.09	8880	
457.29	9260.9	
457.49	10309	
457.69	10515	
457.89	8775.5	
458.09	8054	
458.29	10099	
458.49	10927	
458.69	9260.9	
458.89	8664.3	
459.09	11370	
459.29	11375	
459.49	8896.4	
459.69	9737.4	
459.9	10896	
460.1	10510	
460.3	8745.5	
460.5	8581	
460.7	10788	
460.9	10542	
461.1	8220.5	
461.3	9587.2	
461.5	11432	
461.7	11032	
461.9	8759.8	
462.1	9116.2	
462.3	10669	
462.5	11220	
462.7	8718.2	
462.9	9110.7	
463.1	12493	
463.3	12013	
463.5	9152.4	
463.7	10285	
463.9	10948	
464.1	11390	
464.3	9618.6	
464.5	9767.4	
464.7	11795	
464.9	11531	
465.1	11321	
465.3	10307	
465.5	12201	
465.7	12258	
465.9	10644	
466.1	10312	
466.3	12183	
466.5	11851	
466.7	11450	
466.9	10152	
467.1	11931	
467.3	12874	
467.5	11401	
467.7	10228	
467.9	13022	
468.1	14047	
468.3	10845	
468.5	11561	
468.7	12048	
468.9	11996	
469.1	10658	
469.3	11496	
469.5	14128	
469.7	11718	
469.9	11150	
470.1	10584	
470.3	12261	
470.5	12353	
470.7	11912	
470.9	10601	
471.1	12013	
471.3	12355	
471.5	10471	
471.69	12401	
471.89	11643	
472.09	11217	
472.29	11260	
472.49	11351	
472.69	11459	
472.89	12255	
473.09	10336	
473.29	10361	
473.49	11650	
473.69	11761	
473.89	11266	
474.09	10466	
474.29	12905	
474.49	12587	
474.69	11279	
474.89	10572	
475.09	11693	
475.29	11662	
475.49	9912.2	
475.69	10228	
475.88	13343	
476.08	11925	
476.28	9877.4	
476.48	10221	
476.68	12433	
476.88	12301	
477.08	10049	
477.28	10511	
477.48	11510	
477.68	12230	
477.88	9763.3	
478.08	10146	
478.28	12609	
478.48	11574	
478.67	10223	
478.87	9496.4	
479.07	12501	
479.27	11809	
479.47	10427	
479.67	10441	
479.87	12310	
480.07	12783	
480.27	9648.7	
480.47	11307	
480.67	11764	
480.87	12506	
481.06	9896.5	
481.26	10697	
481.46	11782	
481.66	11907	
481.86	10435	
482.06	11516	
482.26	11467	
482.46	12547	
482.66	10429	
482.86	10004	
483.05	11891	
483.25	11227	
483.45	12699	
483.65	10334	
483.85	11398	
484.05	11729	
484.25	10685	
484.45	11303	
484.65	12637	
484.84	12815	
485.04	10237	
485.24	10313	
485.44	12960	
485.64	11303	
485.84	9579.7	
486.04	11146	
486.24	11623	
486.44	12073	
486.63	9645.3	
486.83	10400	
487.03	11689	
487.23	11845	
487.43	9725.1	
487.63	12166	
487.83	12059	
488.02	12867	
488.22	10942	
488.42	11445	
488.62	12802	
488.82	11953	
489.02	10437	
489.22	10697	
489.41	12698	
489.61	12486	
489.81	10241	
490.01	10338	
490.21	12746	
490.41	13448	
490.61	10284	
490.8	10432	
491	12364	
491.2	11579	
491.4	11026	
491.6	10212	
491.8	12305	
491.99	12386	
492.19	9914.9	
492.39	10258	
492.59	12589	
492.79	12568	
492.99	10838	
493.18	9970.9	
493.38	12461	
493.58	13313	
493.78	10837	
493.98	10444	
494.18	12460	
494.37	12025	
494.57	11326	
494.77	11235	
494.97	12899	
495.17	13295	
495.37	10928	
495.56	11222	
495.76	13523	
495.96	13094	
496.16	12325	
496.36	11235	
496.55	13678	
496.75	13233	
496.95	11874	
497.15	11616	
497.35	13581	
497.54	13589	
497.74	11432	
497.94	13244	
498.14	14351	
498.34	13994	
498.53	11082	
498.73	11989	
498.93	12932	
499.13	13401	
499.33	11799	
499.52	12223	
499.72	13717	
499.92	13869	
500.12	11552	
500.32	11872	
500.51	13966	
500.71	13876	
500.91	12695	
501.11	12288	
501.31	13992	
501.5	14256	
501.7	13013	
501.9	11921	
502.1	13697	
502.29	13975	
502.49	12544	
502.69	12893	
502.89	14057	
503.09	14074	
503.28	11465	
503.48	11606	
503.68	13065	
503.88	13215	
504.07	12533	
504.27	11940	
504.47	13510	
504.67	13474	
504.86	12240	
505.06	11962	
505.26	13066	
505.46	14834	
505.65	11807	
505.85	12126	
506.05	12945	
506.25	13462	
506.44	11077	
506.64	12074	
506.84	12652	
507.04	13661	
507.23	11066	
507.43	11711	
507.63	14552	
507.83	12811	
508.02	11654	
508.22	11255	
508.42	14981	
508.62	12660	
508.81	11445	
509.01	12080	
509.21	12357	
509.4	12768	
509.6	11640	
509.8	11024	
510	12564	
510.19	14033	
510.39	10940	
510.59	10964	
510.79	12420	
510.98	13873	
511.18	11092	
511.38	11306	
511.57	13375	
511.77	13174	
511.97	12005	
512.17	10941	
512.36	13312	
512.56	13259	
512.76	10950	
512.95	10564	
513.15	13341	
513.35	11955	
513.55	11842	
513.74	10745	
513.94	13231	
514.14	12506	
514.33	11828	
514.53	11606	
514.73	12587	
514.92	12835	
515.12	11091	
515.32	10798	
515.51	12806	
515.71	13373	
515.91	12611	
516.11	10985	
516.3	14508	
516.5	12442	
516.7	11420	
516.89	12056	
517.09	12605	
517.29	12619	
517.48	11678	
517.68	11315	
517.88	12317	
518.07	12931	
518.27	11721	
518.47	10632	
518.66	13407	
518.86	12024	
519.06	10576	
519.25	10895	
519.45	12411	
519.65	13967	
519.84	11555	
520.04	12372	
520.24	14131	
520.43	12988	
520.63	11302	
520.83	11217	
521.02	12337	
521.22	12964	
521.42	11674	
521.61	12183	
521.81	12412	
522.01	12467	
522.2	11267	
522.4	10873	
522.6	12890	
522.79	11664	
522.99	11125	
523.18	10400	
523.38	12613	
523.58	12688	
523.77	12488	
523.97	10344	
524.17	14623	
524.36	13783	
524.56	11860	
524.76	11691	
524.95	12941	
525.15	12577	
525.34	11576	
525.54	11637	
525.74	13523	
525.93	12426	
526.13	13011	
526.33	11733	
526.52	13966	
526.72	13472	
526.91	13067	
527.11	12379	
527.31	13973	
527.5	14517	
527.7	12183	
527.89	11194	
528.09	12896	
528.29	13347	
528.48	12441	
528.68	12022	
528.87	13830	
529.07	13971	
529.27	12199	
529.46	11818	
529.66	13820	
529.85	14228	
530.05	11780	
530.25	12510	
530.44	15233	
530.64	13627	
530.83	12081	
531.03	12370	
531.23	13930	
531.42	13585	
531.62	12755	
531.81	11872	
532.01	13986	
532.21	14396	
532.4	11744	
532.6	12287	
532.79	14995	
532.99	14209	
533.18	12417	
533.38	13416	
533.58	13846	
533.77	14612	
533.97	12557	
534.16	13480	
534.36	14943	
534.55	13932	
534.75	13543	
534.95	12654	
535.14	14868	
535.34	14092	
535.53	12395	
535.73	14387	
535.92	15453	
536.12	14353	
536.31	12548	
536.51	13786	
536.71	14500	
536.9	14045	
537.1	12506	
537.29	12654	
537.49	14816	
537.68	13777	
537.88	12990	
538.07	12104	
538.27	13961	
538.46	15170	
538.66	12032	
538.86	12514	
539.05	14177	
539.25	14714	
539.44	12937	
539.64	12544	
539.83	14111	
540.03	15069	
540.22	12476	
540.42	12491	
540.61	14306	
540.81	14404	
541	12834	
541.2	13618	
541.39	13630	
541.59	14095	
541.78	13306	
541.98	12167	
542.18	13339	
542.37	13257	
542.57	12629	
542.76	13252	
542.96	13398	
543.15	14078	
543.35	12529	
543.54	11906	
543.74	14259	
543.93	13855	
544.13	12434	
544.32	13585	
544.52	13928	
544.71	13155	
544.91	11298	
545.1	12479	
545.3	13201	
545.49	13916	
545.69	11226	
545.88	11788	
546.08	14855	
546.27	14392	
546.47	12355	
546.66	11589	
546.86	14059	
547.05	14689	
547.24	11821	
547.44	11618	
547.63	12927	
547.83	14231	
548.02	12124	
548.22	12250	
548.41	12778	
548.61	14123	
548.8	11536	
549	11539	
549.19	13365	
549.39	13679	
549.58	11195	
549.78	11798	
549.97	13682	
550.17	13175	
550.36	12477	
550.55	13646	
550.75	12966	
550.94	14018	
551.14	11349	
551.33	11503	
551.53	12355	
551.72	13410	
551.92	11602	
552.11	11346	
552.31	13278	
552.5	13303	
552.69	13053	
552.89	10879	
553.08	13261	
553.28	12909	
553.47	11352	
553.67	12483	
553.86	13882	
554.06	12188	
554.25	10550	
554.44	10994	
554.64	14536	
554.83	14157	
555.03	10862	
555.22	11356	
555.42	13319	
555.61	13042	
555.8	11086	
556	11490	
556.19	12138	
556.39	13511	
556.58	11077	
556.78	11001	
556.97	12745	
557.16	12518	
557.36	12396	
557.55	10692	
557.75	11690	
557.94	13728	
558.13	10814	
558.33	10695	
558.52	13420	
558.72	12339	
558.91	10635	
559.1	10957	
559.3	11954	
559.49	11690	
559.69	10230	
559.88	11160	
560.07	12751	
560.27	13179	
560.46	11340	
560.66	11480	
560.85	12464	
561.04	11590	
561.24	10531	
561.43	10781	
561.63	11891	
561.82	12093	
562.01	12018	
562.21	10991	
562.4	12493	
562.59	13488	
562.79	10657	
562.98	10406	
563.18	12375	
563.37	13986	
563.56	11338	
563.76	10435	
563.95	11961	
564.14	11721	
564.34	10907	
564.53	10516	
564.73	12477	
564.92	12766	
565.11	11085	
565.31	10395	
565.5	13012	
565.69	12032	
565.89	10598	
566.08	10768	
566.27	12908	
566.47	13361	
566.66	11553	
566.85	10268	
567.05	12579	
567.24	11988	
567.44	10512	
567.63	12026	
567.82	12734	
568.02	12525	
568.21	10525	
568.4	10888	
568.6	12327	
568.79	12437	
568.98	10264	
569.18	10603	
569.37	12308	
569.56	14313	
569.76	10884	
569.95	11869	
570.14	12809	
570.34	12725	
570.53	10403	
570.72	10391	
570.91	13214	
571.11	12445	
571.3	10955	
571.49	11856	
571.69	12497	
571.88	12022	
572.07	11585	
572.27	11415	
572.46	11998	
572.65	13198	
572.85	10624	
573.04	11026	
573.23	13283	
573.43	12498	
573.62	10512	
573.81	10963	
574	12560	
574.2	12258	
574.39	10808	
574.58	10929	
574.78	13468	
574.97	12747	
575.16	11426	
575.36	11616	
575.55	13226	
575.74	13247	
575.93	10535	
576.13	11684	
576.32	12583	
576.51	13142	
576.71	11028	
576.9	12478	
577.09	13569	
577.28	12979	
577.48	11558	
577.67	10506	
577.86	12590	
578.05	12960	
578.25	11182	
578.44	11142	
578.63	12738	
578.83	13868	
579.02	10493	
579.21	12170	
579.4	12899	
579.6	12661	
579.79	11441	
579.98	13600	
580.17	13251	
580.37	13314	
580.56	10789	
580.75	11527	
580.94	13734	
581.14	13564	
581.33	12000	
581.52	10875	
581.71	12944	
581.91	13719	
582.1	10550	
582.29	11201	
582.48	12757	
582.68	12699	
582.87	11645	
583.06	11297	
583.25	13031	
583.45	12945	
583.64	12014	
583.83	12696	
584.02	12643	
584.21	13016	
584.41	11856	
584.6	11331	
584.79	12854	
584.98	13688	
585.18	10722	
585.37	10679	
585.56	12172	
585.75	12996	
585.94	10912	
586.14	11675	
586.33	13656	
586.52	12641	
586.71	11387	
586.91	11161	
587.1	11956	
587.29	13179	
587.48	11010	
587.67	10869	
587.87	12868	
588.06	12874	
588.25	12126	
588.44	11388	
588.63	12362	
588.83	13084	
589.02	10786	
589.21	10772	
589.4	12246	
589.59	12156	
589.78	9915.6	
589.98	10362	
590.17	11742	
590.36	12269	
590.55	9632.3	
590.74	10264	
590.94	13392	
591.13	11704	
591.32	9914.2	
591.51	9369.5	
591.7	12236	
591.89	11554	
592.09	9364.7	
592.28	9837.1	
592.47	10856	
592.66	12875	
592.85	9500.5	
593.05	9704	
593.24	11476	
593.43	12342	
593.62	9798.2	
593.81	10303	
594	11576	
594.19	11830	
594.39	9627.5	
594.58	9638.4	
594.77	11929	
594.96	12437	
595.15	9598.8	
595.34	10333	
595.54	11804	
595.73	10966	
595.92	8977.6	
596.11	10086	
596.3	12316	
596.49	10979	
596.68	9747.6	
596.88	10368	
597.07	11871	
597.26	10869	
597.45	9221.3	
597.64	10412	
597.83	10922	
598.02	11611	
598.22	9301.2	
598.41	10017	
598.6	11475	
598.79	10877	
598.98	9355.1	
599.17	10469	
599.36	11482	
599.55	12536	
599.74	11473	
599.94	11127	
600.13	11883	
600.32	10612	
600.51	8926.4	
600.7	9187.9	
600.89	12551	
601.08	12540	
601.27	8960.5	
601.47	9978.4	
601.66	11784	
601.85	12352	
602.04	9633	
602.23	9754.5	
602.42	10772	
602.61	11445	
602.8	9420	
602.99	9184.5	
603.18	11013	
603.37	11312	
603.57	9806.4	
603.76	10275	
603.95	12069	
604.14	11634	
604.33	9198.8	
604.52	9631.6	
604.71	11193	
604.9	10808	
605.09	10161	
605.28	10008	
605.47	11833	
605.66	11367	
605.86	9809.1	
606.05	9182.4	
606.24	11756	
606.43	10346	
606.62	9596.8	
606.81	10406	
607	11619	
607.19	11010	
607.38	8908	
607.57	9200.2	
607.76	10707	
607.95	10160	
608.14	9576.3	
608.33	10224	
608.52	10642	
608.72	11598	
608.91	8860.2	
609.1	8723	
609.29	10840	
609.48	10157	
609.67	9740.8	
609.86	8781.7	
610.05	10355	
610.24	10614	
610.43	8621.3	
610.62	8148.9	
610.81	11713	
611	11537	
611.19	8675.9	
611.38	9420.7	
611.57	10924	
611.76	12305	
611.95	8461.5	
612.14	8355	
612.33	10655	
612.52	10142	
612.71	9135.3	
612.9	8167.3	
613.09	9798.8	
613.28	12271	
613.47	8737.3	
613.66	9611.1	
613.85	10798	
614.04	10288	
614.24	8693.6	
614.43	8013.7	
614.62	10882	
614.81	10878	
615	9385.2	
615.19	9295.7	
615.38	10107	
615.57	10495	
615.76	9144.2	
615.95	10086	
616.14	10991	
616.33	10517	
616.52	9552.4	
616.71	9751.7	
616.9	10834	
617.09	10651	
617.28	8822	
617.47	10105	
617.66	9920.4	
617.85	9969.5	
618.04	9721	
618.22	9214.5	
618.41	10365	
618.6	11310	
618.79	9201.5	
618.98	8794	
619.17	11540	
619.36	9943.6	
619.55	8996.7	
619.74	9019.3	
619.93	10944	
620.12	10290	
620.31	9657.5	
620.5	9787.9	
620.69	11857	
620.88	11863	
621.07	10476	
621.26	9536.7	
621.45	11206	
621.64	11128	
621.83	9697.8	
622.02	8908	
622.21	11102	
622.4	10987	
622.59	10187	
622.78	10014	
622.97	10487	
623.16	11520	
623.35	9519	
623.54	8709.3	
623.72	10787	
623.91	10917	
624.1	9903.3	
624.29	8613.1	
624.48	12022	
624.67	11146	
624.86	9833.7	
625.05	8890.2	
625.24	12091	
625.43	10464	
625.62	11592	
625.81	9072.5	
626	11475	
626.19	10725	
626.38	9770.9	
626.56	9179.7	
626.75	10574	
626.94	11441	
627.13	9986.6	
627.32	8564.6	
627.51	11295	
627.7	12650	
627.89	8811.7	
628.08	9976.3	
628.27	10527	
628.46	10697	
628.65	9033.6	
628.83	8723.7	
629.02	11108	
629.21	10449	
629.4	9400.2	
629.59	9695.1	
629.78	10368	
629.97	11382	
630.16	9710.1	
630.35	9100.5	
630.54	11844	
630.72	11539	
630.91	9050	
631.1	9711.5	
631.29	11054	
631.48	11136	
631.67	9796.8	
631.86	9170.8	
632.05	10634	
632.24	10613	
632.42	8768	
632.61	9335.3	
632.8	10690	
632.99	10322	
633.18	9379.7	
633.37	9750.4	
633.56	10869	
633.75	10869	
633.93	9368.1	
634.12	9075.9	
634.31	11737	
634.5	11375	
634.69	9146.9	
634.88	9635.7	
635.07	10685	
635.25	11378	
635.44	10002	
635.63	10318	
635.82	10540	
636.01	10069	
636.2	9914.2	
636.39	9559.9	
636.57	11645	
636.76	11269	
636.95	8874.5	
637.14	10262	
637.33	10976	
637.52	11946	
637.7	8656.8	
637.89	9559.9	
638.08	10551	
638.27	12094	
638.46	9736	
638.65	10052	
638.83	12064	
639.02	10364	
639.21	9605.7	
639.4	10062	
639.59	10887	
639.78	10376	
639.96	8864.3	
640.15	8832.2	
640.34	10663	
640.53	10808	
640.72	8534.6	
640.91	8844.5	
641.09	9995.5	
641.28	11452	
641.47	8867	
641.66	9645.3	
641.85	10705	
642.03	10836	
642.22	9479.4	
642.41	8840.4	
642.6	10087	
642.79	9525.1	
642.97	8609.7	
643.16	9385.8	
643.35	10154	
643.54	9712.2	
643.73	8566	
643.91	9368.8	
644.1	9675.3	
644.29	10298	
644.48	8578.3	
644.67	8667	
644.85	9880.1	
645.04	10236	
645.23	8183	
645.42	8494.3	
645.6	9723.8	
645.79	10905	
645.98	8417.2	
646.17	7413.6	
646.36	9429.5	
646.54	9964.7	
646.73	9093	
646.92	7925.6	
647.11	9584.5	
647.29	10653	
647.48	8064.9	
647.67	7810.3	
647.86	10839	
648.05	10905	
648.23	8286.1	
648.42	9592	
648.61	10177	
648.8	9889.6	
648.98	7848.5	
649.17	8212.4	
649.36	9428.8	
649.55	8904.6	
649.73	7881.9	
649.92	8608.3	
650.11	9276.6	
650.3	9721.7	
650.48	8022.6	
650.67	7836.2	
650.86	9962.7	
651.05	8853.4	
651.23	7975.5	
651.42	7990.5	
651.61	9396.8	
651.79	9361.9	
651.98	8045.1	
652.17	7746.8	
652.36	9738.1	
652.54	8865.7	
652.73	7772	
652.92	7548.1	
653.11	9723.1	
653.29	9807	
653.48	7125.6	
653.67	8105.9	
653.85	9593.4	
654.04	10633	
654.23	8312	
654.42	7707.2	
654.6	9047.9	
654.79	9654.8	
654.98	7182.2	
655.16	7714.7	
655.35	8504.5	
655.54	8393.9	
655.73	7086.7	
655.91	6901.7	
656.1	9519	
656.29	8192.6	
656.47	6586.3	
656.66	8312.7	
656.85	8587.8	
657.03	8589.2	
657.22	7113.3	
657.41	7258.7	
657.59	8794.7	
657.78	8518.9	
657.97	7009.5	
658.16	7660.8	
658.34	9458.9	
658.53	9859.6	
658.72	8673.1	
658.9	9039.1	
659.09	8813.8	
659.28	8966	
659.46	7347.4	
659.65	7343.3	
659.84	8664.3	
660.02	9141.4	
660.21	7265.5	
660.4	7246.4	
660.58	9512.1	
660.77	9008.3	
660.96	7818.5	
661.14	6905.1	
661.33	10163	
661.52	9950.4	
661.7	6759	
661.89	10585	
662.08	8682	
662.26	8223.3	
662.45	7094.8	
662.64	7105.1	
662.82	9215.9	
663.01	8344.8	
663.2	7169.3	
663.38	7933.8	
663.57	9041.8	
663.75	8886.1	
663.94	7464.2	
664.13	8796	
664.31	8476.5	
664.5	9243.2	
664.69	7803.4	
664.87	8241	
665.06	8268.3	
665.25	9000.8	
665.43	8393.3	
665.62	8568.7	
665.8	9339.4	
665.99	8560.5	
666.18	7369.3	
666.36	7582.3	
666.55	9250.7	
666.74	9172.9	
666.92	6929	
667.11	8724.3	
667.29	8566.7	
667.48	9180.4	
667.67	8338	
667.85	7233.4	
668.04	8610.3	
668.22	8647.9	
668.41	7441	
668.6	7484	
668.78	8387.8	
668.97	8537.3	
669.15	7808.9	
669.34	6761	
669.53	8424.7	
669.71	8740.7	
669.9	6972.7	
670.08	7599.3	
670.27	8381.7	
670.46	9002.9	
670.64	7702.4	
670.83	8019.2	
671.01	8211.7	
671.2	8887.5	
671.38	7021.8	
671.57	6791.1	
671.76	9545.6	
671.94	10111	
672.13	6769.2	
672.31	7815	
672.5	9057.5	
672.69	8273.1	
672.87	6948.1	
673.06	7288.7	
673.24	8866.3	
673.43	8381.7	
673.61	7620.5	
673.8	7270.3	
673.98	8937.3	
674.17	9164.7	
674.36	7798	
674.54	7658.7	
674.73	8757.1	
674.91	9031.5	
675.1	7297.6	
675.28	6987.7	
675.47	8511.4	
675.65	9140.1	
675.84	7282.6	
676.03	7608.2	
676.21	8310	
676.4	7781.6	
676.58	8046.5	
676.77	7813.7	
676.95	9823.4	
677.14	8231.5	
677.32	6855.9	
677.51	6587	
677.69	9024	
677.88	7858.7	
678.06	6728.9	
678.25	6806.8	
678.44	8602.8	
678.62	8242.4	
678.81	6592.4	
678.99	7596.6	
679.18	9344.2	
679.36	8938	
679.55	7140.6	
679.73	7752.2	
679.92	8844.5	
680.1	8193.9	
680.29	8361.2	
680.47	7163.1	
680.66	8153.6	
680.84	9050	
681.03	6423.1	
681.21	7632.8	
681.4	8232.8	
681.58	8121.6	
681.77	6892.8	
681.95	6750.8	
682.14	9032.9	
682.32	9424.1	
682.51	7757	
682.69	6627.2	
682.88	8079.2	
683.06	8766.7	
683.25	7370.6	
683.43	7860.1	
683.62	8370.7	
683.8	8844.5	
683.99	7976.2	
684.17	7248.4	
684.36	9652.1	
684.54	8332.5	
684.73	6491.4	
684.91	6664.8	
685.1	8678.6	
685.28	8013	
685.46	7185	
685.65	7239.6	
685.83	8750.3	
686.02	8141.4	
686.2	6492.1	
686.39	6539.2	
686.57	7600	
686.76	9323.7	
686.94	6501.6	
687.13	6726.2	
687.31	8528.4	
687.5	8073.1	
687.68	6143.9	
687.86	7539.3	
688.05	9899.9	
688.23	7529	
688.42	7434.8	
688.6	6642.2	
688.79	7968.6	
688.97	7965.9	
689.16	7087.3	
689.34	5981.4	
689.52	8732.5	
689.71	8912.8	
689.89	7408.2	
690.08	6601.3	
690.26	8294.3	
690.45	8132.5	
690.63	7594.6	
690.81	6827.9	
691	8023.3	
691.18	7941.3	
691.37	6932.4	
691.55	9204.9	
691.74	7892.9	
691.92	9941.5	
692.1	6942.6	
692.29	6365.1	
692.47	8166.6	
692.66	7436.9	
692.84	6502.3	
693.02	7055.9	
693.21	7522.2	
693.39	8058.1	
693.58	7200	
693.76	6538.5	
693.94	9265.7	
694.13	8912.8	
694.31	6565.8	
694.5	7603.4	
694.68	7784.3	
694.86	8105.2	
695.05	6987	
695.23	7096.9	
695.42	8547.5	
695.6	10901	
695.78	7679.9	
695.97	6692.1	
696.15	8652	
696.34	8071.7	
696.52	6500.9	
696.7	7311.2	
696.89	8343.4	
697.07	7708.6	
697.25	7255.3	
697.44	8718.2	
697.62	8355	
697.81	8716.8	
697.99	6792.4	
698.17	7416.4	
698.36	7520.1	
698.54	8327	
698.72	7187	
698.91	6178.7	
699.09	7862.2	
699.28	7643	
699.46	6744.6	
699.64	6614.9	
699.83	7640.3	
700.01	8818.6	
700.19	7428	
700.38	5860.6	
700.56	8814.5	
700.74	7678.5	
700.93	6196.5	
701.11	7118.1	
701.29	8249.2	
701.48	9275.3	
701.66	6442.9	
701.84	6471.6	
702.03	7802.1	
702.21	8523	
702.39	6061.3	
702.58	6627.2	
702.76	8201.4	
702.94	8363.9	
703.13	6049.7	
703.31	8467	
703.49	7481.9	
703.68	8999.5	
703.86	6204.7	
704.04	7245	
704.23	8033.5	
704.41	8446.5	
704.59	6384.2	
704.78	7563.1	
704.96	9132.6	
705.14	8477.2	
705.33	6070.2	
705.51	6981.5	
705.69	7817.8	
705.87	8648.6	
706.06	7201.3	
706.24	6066.8	
706.42	8205.5	
706.61	8305.9	
706.79	7290.8	
706.97	6067.4	
707.16	7503.8	
707.34	8138.6	
707.52	7147.4	
707.7	6290.7	
707.89	7772.7	
708.07	7333.1	
708.25	7174	
708.44	7269.6	
708.62	7598	
708.8	8705.2	
708.98	7357.7	
709.17	6242.2	
709.35	7944.1	
709.53	8030.1	
709.72	6031.3	
709.9	6485.2	
710.08	8166.6	
710.26	8234.9	
710.45	7664.9	
710.63	6298.2	
710.81	7792.5	
710.99	7922.9	
711.18	6880.5	
711.36	6483.2	
711.54	7714.7	
711.72	8362.5	
711.91	6477.7	
712.09	5864.7	
712.27	7780.9	
712.45	8394.6	
712.64	6728.9	
712.82	5653.1	
713	7258	
713.18	7367.2	
713.37	5814.2	
713.55	7185.6	
713.73	8275.8	
713.91	6948.1	
714.1	6189	
714.28	5631.2	
714.46	7952.3	
714.64	7105.1	
714.83	5079.6	
715.01	5890	
715.19	7034.1	
715.37	6359.6	
715.55	5491.3	
715.74	5797.8	
715.92	7994.6	
716.1	5927.5	
716.28	6909.2	
716.47	5906.3	
716.65	6589	
716.83	6769.9	
717.01	5794.4	
717.19	5844.2	
717.38	8751	
717.56	6358.9	
717.74	6024.4	
717.92	5075.5	
718.1	7559.1	
718.29	6731.7	
718.47	4698.7	
718.65	5327.4	
718.83	7473	
719.01	7276.4	
719.2	4520.5	
719.38	5754.1	
719.56	7002.7	
719.74	8652	
719.92	5277.6	
720.11	6382.2	
720.29	7180.9	
720.47	6240.2	
720.65	4832.5	
720.83	5795.1	
721.02	6522.8	
721.2	6348	
721.38	5767.8	
721.56	4960.9	
721.74	5814.2	
721.92	6020.3	
722.11	6218.3	
722.29	5958.2	
722.47	7294.2	
722.65	6460.7	
722.83	4931.5	
723.01	5896.8	
723.2	6488	
723.38	6711.9	
723.56	4299.4	
723.74	5614.2	
723.92	5980.8	
724.1	7182.9	
724.29	4841.4	
724.47	6081.1	
724.65	6014.9	
724.83	5957.5	
725.01	4749.2	
725.19	5657.2	
725.37	6006	
725.56	6087.2	
725.74	4665.3	
725.92	4855.7	
726.1	5868.1	
726.28	6237.4	
726.46	5272.8	
726.64	4956.1	
726.83	6219.7	
727.01	6483.2	
727.19	4483.7	
727.37	5427.8	
727.55	6295.5	
727.73	6810.2	
727.91	4478.9	
728.09	4292.5	
728.28	6809.5	
728.46	7404.1	
728.64	5480.4	
728.82	5386.8	
729	7806.9	
729.18	7176.1	
729.36	4531.5	
729.54	7089.4	
729.72	8207.6	
729.91	6455.2	
730.09	6571.2	
730.27	5175.9	
730.45	6313.9	
730.63	6852.5	
730.81	5892.7	
730.99	4835.9	
731.17	7385	
731.35	5977.3	
731.53	5444.2	
731.71	5008	
731.9	7152.9	
732.08	7320.1	
732.26	5296.7	
732.44	4899.4	
732.62	7391.1	
732.8	6805.4	
732.98	5673.6	
733.16	4679.6	
733.34	6804	
733.52	5684.5	
733.7	5257.8	
733.88	5485.1	
734.07	6656.6	
734.25	6403.3	
734.43	4677.6	
734.61	6298.9	
734.79	7977.5	
734.97	6275	
735.15	4769	
735.33	5068.7	
735.51	6651.8	
735.69	6268.8	
735.87	6389	
736.05	5315.2	
736.23	6430.6	
736.41	6207.4	
736.59	5156.1	
736.77	5225.7	
736.95	6893.5	
737.13	6296.1	
737.32	4784.1	
737.5	4985.4	
737.68	7486.7	
737.86	6181.5	
738.04	4545.1	
738.22	6538.5	
738.4	5988.3	
738.58	6305.7	
738.76	5278.3	
738.94	4106.9	
739.12	6108.4	
739.3	5976	
739.48	5860.6	
739.66	5535	
739.84	6360.3	
740.02	6380.1	
740.2	4215.4	
740.38	4564.9	
740.56	6738.5	
740.74	5603.2	
740.92	5268.7	
741.1	5197.7	
741.28	6203.3	
741.46	6002.6	
741.64	4799.8	
741.82	5259.9	
742	6181.5	
742.18	6208.8	
742.36	4986.1	
742.54	4536.9	
742.72	6806.8	
742.9	5459.2	
743.08	5371.8	
743.26	4114.4	
743.44	6971.3	
743.62	6799.9	
743.8	5606	
743.98	4575.8	
744.16	6485.2	
744.34	6167.1	
744.52	5452.4	
744.7	5378	
744.88	6640.9	
745.06	6133	
745.24	5529.5	
745.42	5624.4	
745.6	6708.5	
745.78	6405.4	
745.96	4294.6	
746.14	4590.2	
746.32	7486.7	
746.5	6802	
746.68	5216.9	
746.86	4673.5	
747.03	7182.9	
747.21	5400.5	
747.39	5169.1	
747.57	4674.8	
747.75	6326.9	
747.93	6754.2	
748.11	4603.8	
748.29	4501.4	
748.47	7974.8	
748.65	6012.8	
748.83	5332.9	
749.01	5063.3	
749.19	6526.9	
749.37	5730.9	
749.55	4911	
749.73	5045.5	
749.91	6169.8	
750.09	5925.5	
750.26	5053	
750.44	4476.9	
750.62	6219.7	
750.8	6180.1	
750.98	4321.2	
751.16	4603.8	
751.34	6287.9	
751.52	5575.9	
751.7	5455.1	
751.88	4298	
752.06	6754.9	
752.24	6582.9	
752.42	4252.3	
752.59	4570.4	
752.77	6173.9	
752.95	7456	
753.13	5343.8	
753.31	4706.2	
753.49	5865.4	
753.67	6344.6	
753.85	5076.2	
754.03	4567	
754.21	6546	
754.38	6946	
754.56	4906.3	
754.74	3804.4	
754.92	5827.2	
755.1	6605.4	
755.28	3973.7	
755.46	3959.4	
755.64	7336.5	
755.82	7496.9	
755.99	4272.7	
756.17	4397	
756.35	4978.6	
756.53	6643.6	
756.71	3244	
756.89	4210.6	
757.07	6187.6	
757.25	5246.2	
757.42	4780	
757.6	5705.6	
757.78	6174.6	
757.96	5148.6	
758.14	4421.6	
758.32	3961.5	
758.5	4742.4	
758.67	5538.4	
758.85	4263.2	
759.03	4427	
759.21	5786.9	
759.39	5227.8	
759.57	3844	
759.75	5042.8	
759.92	6366.5	
760.1	5644.2	
760.28	5390.9	
760.46	5669.5	
760.64	5350	
760.82	5175.2	
760.99	5184.8	
761.17	4278.9	
761.35	6236.7	
761.53	5202.5	
761.71	4405.9	
761.89	5169.1	
762.06	6016.9	
762.24	5568.4	
762.42	4549.2	
762.6	4288.4	
762.78	5571.2	
762.96	6229.2	
763.13	4934.9	
763.31	4584	
763.49	6392.4	
763.67	5563	
763.85	5377.3	
764.02	5978	
764.2	6691.4	
764.38	5758.2	
764.56	4448.9	
764.74	5294	
764.91	6820.4	
765.09	5644.2	
765.27	4089.8	
765.45	3915.7	
765.63	6825.9	
765.8	6712.6	
765.98	3654.3	
766.16	3967.6	
766.34	5206.6	
766.52	5066	
766.69	4953.4	
766.87	3851.5	
767.05	5653.8	
767.23	6377.4	
767.41	4134.8	
767.58	4467.3	
767.76	6263.4	
767.94	6358.9	
768.12	4211.3	
768.29	4909.7	
768.47	5803.3	
768.65	6399.2	
768.83	3891.1	
769	5007.3	
769.18	5263.3	
769.36	6009.4	
769.54	5061.9	
769.72	3882.9	
769.89	6314.6	
770.07	6445	
770.25	4252.3	
770.43	5625.1	
770.6	7040.9	
770.78	7509.2	
770.96	4444.1	
771.14	4299.4	
771.31	6221.7	
771.49	5500.2	
771.67	3564.8	
771.85	3875.4	
772.02	4786.1	
772.2	5536.3	
772.38	4653	
772.55	4066.6	
772.73	5900.9	
772.91	5603.9	
773.09	4492.6	
773.26	4559.5	
773.44	5821	
773.62	5403.9	
773.8	4033.1	
773.97	3717.1	
774.15	5862	
774.33	5461.2	
774.5	3902.1	
774.68	4298.7	
774.86	6124.8	
775.04	5527.5	
775.21	3984	
775.39	3998.3	
775.57	5760.3	
775.74	6193.7	
775.92	3792.2	
776.1	3741.6	
776.27	5808	
776.45	7019.8	
776.63	3921.2	
776.81	3534.8	
776.98	5380.7	
777.16	6523.5	
777.34	4113	
777.51	4457.7	
777.69	5435.3	
777.87	5211.4	
778.04	4159.4	
778.22	4823.6	
778.4	5264.6	
778.57	5883.8	
778.75	3493.8	
778.93	3746.4	
779.1	5060.5	
779.28	4900.8	
779.46	3478.8	
779.64	3973.1	
779.81	6087.2	
779.99	6931	
780.17	4719.2	
780.34	4911.7	
780.52	5482.4	
780.69	5696.8	
780.87	4267.3	
781.05	3850.2	
781.22	5592.3	
781.4	5698.1	
781.58	4042	
781.75	3163.4	
781.93	5583.4	
782.11	5024.3	
782.28	4919.2	
782.46	4019.5	
782.64	4803.9	
782.81	5765	
782.99	4089.8	
783.17	4092.5	
783.34	5708.4	
783.52	4964.3	
783.69	4244.8	
783.87	5193.6	
784.05	4992.3	
784.22	4990.9	
784.4	5091.9	
784.58	4373.1	
784.75	5945.9	
784.93	5068	
785.1	4033.1	
785.28	4711	
785.46	5764.3	
785.63	4946.5	
785.81	4042.7	
785.99	3839.9	
786.16	5175.9	
786.34	5513.8	
786.51	3859.1	
786.69	4306.9	
786.87	4777.2	
787.04	5251.7	
787.22	3778.5	
787.39	4712.4	
787.57	4984.1	
787.75	6164.4	
787.92	4902.8	
788.1	4897.4	
788.27	5086.5	
788.45	4803.9	
788.63	4517.1	
788.8	3259	
788.98	5431.9	
789.15	4717.8	
789.33	3386.7	
789.5	4049.5	
789.68	6019.7	
789.86	6051.1	
790.03	4495.3	
790.21	3906.8	
790.38	6012.8	
790.56	5165.7	
790.73	3779.9	
790.91	3770.3	
791.09	4973.2	
791.26	5827.8	
791.44	4064.5	
791.61	3470.6	
791.79	5030.5	
791.96	5079	
792.14	3653.6	
792.32	3149.1	
792.49	5031.2	
792.67	5162.9	
792.84	3679.5	
793.02	3437.9	
793.19	5952.1	
793.37	6208.8	
793.54	3187.3	
793.72	3586.7	
793.89	6403.3	
794.07	5050.3	
794.25	4215.4	
794.42	3272.7	
794.6	6120.7	
794.77	5754.1	
794.95	4483.7	
795.12	3856.3	
795.3	5018.2	
795.47	5710.4	
795.65	4301.4	
795.82	4096.6	
796	4844.8	
796.17	6790.4	
796.35	3990.8	
796.52	4706.2	
796.7	5637.4	
796.87	5708.4	
797.05	4958.1	
797.22	4859.1	
797.4	5623	
797.57	6706.4	
797.75	4088.4	
797.92	3818.1	
798.1	6010.1	
798.27	5033.9	
798.45	3244.7	
798.62	3611.3	
798.8	5338.4	
798.97	5831.2	
799.15	4407.9	
799.32	4119.1	
799.5	4601.1	
799.67	5478.3	
799.85	4528.7	
800.02	3174.4	
800.2	4988.9	
800.37	5338.4	
800.55	4681.7	
800.72	3829.7	
800.9	5830.6	
801.07	6292.7	
801.25	5231.9	
801.42	4308.2	
801.6	5879.7	
801.77	5606.7	
801.95	3969.6	
802.12	3771.7	
802.29	5588.2	
802.47	5560.2	
802.64	4262.5	
802.82	3211.2	
802.99	5023.7	
803.17	6061.3	
803.34	4100.7	
803.52	3672.7	
803.69	6767.9	
803.87	4756.1	
804.04	4060.4	
804.21	4215.4	
804.39	6138.4	
804.56	5208.7	
804.74	3488.4	
804.91	4278.2	
805.09	5079	
805.26	5150	
805.44	3557.3	
805.61	3862.5	
805.78	5728.2	
805.96	5732.9	
806.13	4263.2	
806.31	4587.4	
806.48	4592.9	
806.66	5162.2	
806.83	4212.7	
807	4130.1	
807.18	5024.3	
807.35	5407.3	
807.53	4144.4	
807.7	3280.2	
807.87	6251.1	
808.05	5113.8	
808.22	4610	
808.4	3278.8	
808.57	5094	
808.74	4715.1	
808.92	3786.7	
809.09	4711.7	
809.27	4959.5	
809.44	5591	
809.61	3338.9	
809.79	3708.9	
809.96	6236.7	
810.14	5840.1	
810.31	3266.5	
810.48	4014.7	
810.66	5141.1	
810.83	5952.8	
811.01	3799.7	
811.18	4210.6	
811.35	5828.5	
811.53	4522.6	
811.7	4571.1	
811.87	4290.5	
812.05	5083.7	
812.22	5001.8	
812.39	3630.4	
812.57	3571.7	
812.74	5100.1	
812.92	6845	
813.09	3931.4	
813.26	4338.3	
813.44	6564.4	
813.61	4965.6	
813.78	3322.5	
813.96	4471.4	
814.13	5091.9	
814.3	4773.1	
814.48	4826.4	
814.65	3998.3	
814.82	6295.5	
815	4844.8	
815.17	4145.1	
815.34	5036.6	
815.52	5033.9	
815.69	5016.8	
815.87	4033.1	
816.04	3545	
816.21	5119.2	
816.38	4478.9	
816.56	3900.7	
816.73	3652.2	
816.9	6414.9	
817.08	5908.4	
817.25	3693.2	
817.42	4696.7	
817.6	4592.2	
817.77	5130.2	
817.94	4257.7	
818.12	3703.4	
818.29	4873.5	
818.46	7660.8	
818.64	3870	
818.81	3530	
818.98	4720.6	
819.16	6995.2	
819.33	4446.1	
819.5	4087.7	
819.67	5506.3	
819.85	6148.7	
820.02	3995.6	
820.19	4301.4	
820.37	5291.3	
820.54	4891.9	
820.71	4133.5	
820.88	5180.7	
821.06	5345.2	
821.23	4873.5	
821.4	4226.3	
821.58	4176.5	
821.75	5820.3	
821.92	5262.6	
822.09	3310.2	
822.27	3446.7	
822.44	5083.1	
822.61	4983.4	
822.79	3364.1	
822.96	6483.2	
823.13	5636	
823.3	4827.7	
823.48	3865.9	
823.65	3506.1	
823.82	5868.1	
823.99	4628.4	
824.17	4965.6	
824.34	3568.2	
824.51	6704.4	
824.68	5184.8	
824.86	3730	
825.03	4198.3	
825.2	5123.3	
825.37	6183.5	
825.55	3642.7	
825.72	4102.8	
825.89	6771.3	
826.06	6300.9	
826.24	4005.1	
826.41	4024.9	
826.58	6207.4	
826.75	5381.4	
826.92	3168.9	
827.1	3463.1	
827.27	8549.6	
827.44	6765.8	
827.61	3790.8	
827.79	4638	
827.96	4866.7	
828.13	5256.5	
828.3	3988.1	
828.47	3297.9	
828.65	5361.6	
828.82	5272.8	
828.99	5154.7	
829.16	4489.1	
829.34	5755.5	
829.51	5515.9	
829.68	4074.1	
829.85	4319.8	
830.02	6013.5	
830.2	5746.6	
830.37	3147.7	
830.54	5018.2	
830.71	6541.2	
830.88	5080.3	
831.05	3246.7	
831.23	3777.1	
831.4	6260	
831.57	7008.8	
831.74	3797.6	
831.91	3325.2	
832.09	5320.6	
832.26	5672.9	
832.43	3939.6	
832.6	4467.3	
832.77	5419.6	
832.94	6132.3	
833.12	3119.1	
833.29	3908.2	
833.46	4991.6	
833.63	7178.1	
833.8	4279.6	
833.97	3977.2	
834.15	5773.2	
834.32	5500.8	
834.49	4136.2	
834.66	4207.2	
834.83	6010.1	
835	4857.1	
835.17	3812.6	
835.35	3794.2	
835.52	5642.8	
835.69	5466	
835.86	4039.3	
836.03	3282.9	
836.2	5698.1	
836.37	5292	
836.55	3941	
836.72	3705.5	
836.89	5293.3	
837.06	5855.8	
837.23	4034.5	
837.4	4457.1	
837.57	6532.3	
837.75	7229.3	
837.92	3579.8	
838.09	3786	
838.26	5275.6	
838.43	6029.9	
838.6	4193.6	
838.77	3686.3	
838.94	6882.5	
839.11	6524.8	
839.29	3894.6	
839.46	3082.2	
839.63	5662	
839.8	5399.1	
839.97	3820.1	
840.14	3904.1	
840.31	5468.1	
840.48	5750	
840.65	3160.7	
840.82	3936.2	
841	5732.9	
841.17	5634	
841.34	3538.9	
841.51	3604.4	
841.68	5656.5	
841.85	5410.1	
842.02	3657	
842.19	2980.5	
842.36	5459.2	
842.53	5386.8	
842.7	3517	
842.87	4362.9	
843.05	7200	
843.22	5399.1	
843.39	3348.4	
843.56	3652.9	
843.73	5163.6	
843.9	5764.3	
844.07	5729.5	
844.24	4830.5	
844.41	8361.9	
844.58	4976.6	
844.75	3408.5	
844.92	3716.4	
845.09	5677	
845.26	5645.6	
845.43	3435.8	
845.6	3732.1	
845.77	5705	
845.94	5414.1	
846.12	3917.1	
846.29	4108.9	
846.46	5901.6	
846.63	5649.7	
846.8	3518.4	
846.97	4175.8	
847.14	6173.9	
847.31	5652.4	
847.48	3949.2	
847.65	4389.5	
847.82	5941.8	
847.99	5916.6	
848.16	4666.6	
848.33	4411.3	
848.5	5160.2	
848.67	6135	
848.84	3491.8	
849.01	3635.8	
849.18	5132.2	
849.35	4755.4	
849.52	4378.6	
849.69	3420.8	
849.86	5833.3	
850.03	6159.6	
850.2	3508.2	
850.37	4331.5	
850.54	6069.5	
850.71	5371.8	
850.88	4216.1	
851.05	3450.1	
851.22	5575.9	
851.39	6204	
851.56	3321.1	
851.73	3978.5	
851.9	4971.1	
852.07	5945.9	
852.24	3920.5	
852.41	3480.2	
852.58	5537.7	
852.75	5041.4	
852.92	3962.1	
853.09	3432.4	
853.26	5324.7	
853.43	6140.5	
853.6	3500	
853.77	3018.7	
853.94	6298.9	
854.11	5618.9	
854.28	5234.6	
854.44	3827.7	
854.61	6640.9	
854.78	6028.5	
854.95	3448.8	
855.12	4437.3	
855.29	4570.4	
855.46	6605.4	
855.63	3556	
855.8	4841.4	
855.97	5238	
856.14	6035.4	
856.31	4874.8	
856.48	3795.6	
856.65	5259.9	
856.82	4918.5	
856.99	3344.3	
857.16	3807.9	
857.33	6881.2	
857.49	5333.6	
857.66	3771	
857.83	4105.5	
858	5279	
858.17	5520	
858.34	3355.9	
858.51	3512.9	
858.68	6347.3	
858.85	6404	
859.02	4108.9	
859.19	4367	
859.36	4960.9	
859.52	5065.3	
859.69	3521.8	
859.86	4117.8	
860.03	5061.9	
860.2	6272.9	
860.37	3183.2	
860.54	3523.9	
860.71	5900.9	
860.88	6363.7	
861.05	3925.3	
861.21	4379.2	
861.38	6411.5	
861.55	4881	
861.72	3153.2	
861.89	3926.6	
862.06	5975.3	
862.23	6499.6	
862.4	3409.9	
862.56	3624.2	
862.73	5840.1	
862.9	5470.1	
863.07	4138.9	
863.24	3148.4	
863.41	4878.9	
863.58	5002.5	
863.75	3576.4	
863.91	4096.6	
864.08	6348.7	
864.25	5862	
864.42	4409.3	
864.59	4960.9	
864.76	6658.6	
864.93	5055.1	
865.09	3410.6	
865.26	3753.2	
865.43	6197.2	
865.6	6662	
865.77	3044.6	
865.94	3486.3	
866.1	6272.2	
866.27	5964.4	
866.44	5319.9	
866.61	3345	
866.78	5408	
866.95	5773.2	
867.11	3394.2	
867.28	3107.5	
867.45	6022.4	
867.62	5116.5	
867.79	4044.1	
867.96	3492.5	
868.12	5009.3	
868.29	6009.4	
868.46	3018	
868.63	4638	
868.8	6105	
868.97	5868.8	
869.13	3649.5	
869.3	3677.5	
869.47	5794.4	
869.64	6016.9	
869.81	3503.4	
869.97	3526.6	
870.14	5711.1	
870.31	6356.2	
870.48	3429.7	
870.65	4463.2	
870.81	5324.7	
870.98	5258.5	
871.15	3968.3	
871.32	3620.1	
871.48	5760.9	
871.65	6354.2	
871.82	3523.9	
871.99	3851.5	
872.16	6865.5	
872.32	6216.3	
872.49	3578.5	
872.66	3522.5	
872.83	5952.1	
872.99	5184.8	
873.16	4112.3	
873.33	3419.4	
873.5	5572.5	
873.67	5537.7	
873.83	3691.8	
874	4721.3	
874.17	5722.7	
874.34	6803.4	
874.5	4483.7	
874.67	4421.6	
874.84	6320.7	
875.01	4916.5	
875.17	4959.5	
875.34	3475.4	
875.51	5615.5	
875.68	6728.3	
875.84	4201.1	
876.01	5105.6	
876.18	5934.3	
876.34	5827.8	
876.51	3485	
876.68	3442.6	
876.85	5339.1	
877.01	6181.5	
877.18	5040.7	
877.35	3508.9	
877.52	5447.6	
877.68	4872.8	
877.85	3427.6	
878.02	3464.5	
878.18	5468.8	
878.35	5183.4	
878.52	2761.3	
878.69	3958	
878.85	5924.1	
879.02	5876.3	
879.19	4941.1	
879.35	3788.7	
879.52	5873.6	
879.69	6046.3	
879.86	3009.8	
880.02	3895.2	
880.19	5401.2	
880.36	6701.6	
880.52	3998.3	
880.69	4190.1	
880.86	5993.7	
881.02	6139.1	
881.19	3843.4	
881.36	3803.8	
881.52	5928.9	
881.69	5215.5	
881.86	3713.6	
882.02	3741.6	
882.19	6156.9	
882.36	7278.5	
882.52	3610.6	
882.69	5028.4	
882.86	5708.4	
883.02	5558.2	
883.19	4269.3	
883.36	4014.7	
883.52	5932.3	
883.69	6883.2	
883.86	3529.3	
884.02	3145.7	
884.19	5936.4	
884.36	5479.7	
884.52	3994.2	
884.69	3725.3	
884.86	5238.7	
885.02	6588.3	
885.19	3945.8	
885.36	4034.5	
885.52	5511.1	
885.69	5637.4	
885.86	5087.8	
886.02	4494.6	
886.19	5922.7	
886.35	5457.8	
886.52	3876.8	
886.69	4938.3	
886.85	5020.3	
887.02	6346.7	
887.19	6346.7	
887.35	6346.7	
887.52	6346.7	
887.68	6346.7	
887.85	6346.7	
888.02	6346.7	
888.18	6346.7	
888.35	6346.7	
888.51	6346.7	
888.68	6346.7	
888.85	6346.7	
889.01	6346.7	
889.18	6346.7	
889.35	6346.7	
889.51	6346.7	
889.68	6346.7	
889.84	6346.7	
890.01	6346.7	
890.17	6346.7	
890.34	6346.7	
890.51	6346.7	
890.67	6346.7	
890.84	6346.7	
891	6346.7	
891.17	6346.7	
891.34	6346.7	
891.5	6346.7	
891.67	6346.7	
891.83	6346.7	
892	6346.7	
892.16	6346.7	
892.33	6346.7	
892.5	6346.7	
892.66	6346.7	
892.83	6346.7	
892.99	6346.7	
893.16	6346.7	
893.32	6346.7	
893.49	6346.7	
893.65	6346.7	
893.82	6346.7	
893.99	6346.7	
894.15	6346.7	
894.32	6346.7	
894.48	6346.7	
894.65	6346.7	
894.81	6346.7	
894.98	6346.7	
895.14	6346.7	
895.31	6346.7	
895.47	6346.7	
895.64	6346.7	
895.81	6346.7	
895.97	6346.7	
896.14	6346.7	
896.3	6346.7	
896.47	6346.7	
896.63	6346.7	
896.8	6346.7	
896.96	6346.7	
897.13	6346.7	
897.29	6346.7	
897.46	6346.7	
897.62	6346.7	
897.79	6346.7	
897.95	6346.7	
898.12	6346.7	
898.28	6346.7	
898.45	6346.7	
898.61	6346.7	
898.78	6346.7	
898.94	6346.7	
899.11	6346.7	
899.27	6346.7	
899.44	6346.7	
899.6	6346.7	
899.77	6346.7	
899.93	6346.7	
900.1	6346.7	
900.26	6346.7	
900.43	6346.7	
900.59	6346.7	
900.76	6346.7	
900.92	6346.7	
901.09	6346.7	
901.25	6346.7	
901.42	6346.7	
901.58	6346.7	
901.75	6346.7	
901.91	6346.7	
902.07	6346.7	
902.24	6346.7	
902.4	6346.7	
902.57	6346.7	
902.73	6346.7	
902.9	6346.7	
903.06	6346.7	
903.23	6346.7	
903.39	6346.7	
903.56	6346.7	
903.72	6346.7	
903.88	6346.7	
904.05	6346.7	
904.21	6346.7	
904.38	6346.7	
904.54	6346.7	
904.71	6346.7	
904.87	6346.7	
905.03	6346.7	
905.2	6346.7	
905.36	6346.7	
905.53	6346.7	
905.69	6346.7	
905.86	6346.7	
906.02	6346.7	
906.18	6346.7	
906.35	6346.7	
906.51	6346.7	
906.68	6346.7	
906.84	6346.7	
907.01	6346.7	
907.17	6346.7	
907.33	6346.7	
907.5	6346.7	
907.66	6346.7	
907.83	6346.7	
907.99	6346.7	
908.15	6346.7	
908.32	6346.7	
908.48	6346.7	
908.65	6346.7	
908.81	6346.7	
908.97	6346.7	
909.14	6346.7	
909.3	6346.7	
909.47	6346.7	
909.63	6346.7	
909.79	6346.7	
909.96	6346.7	
910.12	6346.7	
910.28	6346.7	
910.45	6346.7	
910.61	6346.7	
910.78	6346.7	
910.94	6346.7	
911.1	6346.7	
911.27	6346.7	
911.43	6346.7	
911.59	6346.7	
911.76	6346.7	
911.92	6346.7	
912.08	6346.7	
912.25	6346.7	
912.41	6346.7	
912.57	6346.7	
912.74	6346.7	
912.9	6346.7	
913.07	6346.7	
913.23	6346.7	
913.39	6346.7	
913.56	6346.7	
913.72	6346.7	
913.88	6346.7	
914.05	6346.7	
914.21	6346.7	
914.37	6346.7	
914.54	6346.7	
914.7	6346.7	
914.86	6346.7	
915.03	6346.7	
915.19	6346.7	
