Wavelength	Intensities	
nm	a.u.	
179.22	1581.4	
179.44	1587.9	
179.65	1574.9	
179.86	1600.8	
180.08	1562.6	
180.29	3515	
180.51	2793.4	
180.72	4673.5	
180.94	5195	
181.15	2555.9	
181.37	2518.3	
181.58	4539.7	
181.79	4678.2	
182.01	2562.7	
182.22	2755.2	
182.44	4732.2	
182.65	4100.7	
182.87	3304.7	
183.08	2967.5	
183.29	4929.5	
183.51	4168.3	
183.72	2691	
183.94	3732.8	
184.15	4504.8	
184.37	4388.8	
184.58	2436.4	
184.79	3138.2	
185.01	4249.5	
185.22	4706.2	
185.44	3291.1	
185.65	2897.9	
185.86	4476.9	
186.08	4130.1	
186.29	2446.6	
186.51	2565.4	
186.72	4265.9	
186.94	4792.9	
187.15	2889.7	
187.36	2964.8	
187.58	5916.6	
187.79	4513.7	
188.01	3026.9	
188.22	4437.9	
188.43	5223	
188.65	4642.1	
188.86	2643.2	
189.08	2989.4	
189.29	4350.6	
189.5	4302.8	
189.72	2733.4	
189.93	2836.4	
190.15	4775.9	
190.36	5492	
190.57	2972.3	
190.79	2871.9	
191	4838.7	
191.22	4801.1	
191.43	3032.4	
191.64	2607.7	
191.86	5021.6	
192.07	4787.5	
192.29	2677.4	
192.5	2732.7	
192.71	4877.6	
192.93	4367	
193.14	2705.4	
193.35	2873.3	
193.57	4258.4	
193.78	4857.8	
194	2284.9	
194.21	2696.5	
194.42	4109.6	
194.64	4470.7	
194.85	2912.9	
195.07	3348.4	
195.28	4403.8	
195.49	4003.1	
195.71	3521.1	
195.92	2631.6	
196.13	4606.6	
196.35	4629.8	
196.56	3675.4	
196.78	2979.1	
196.99	5487.9	
197.2	5124	
197.42	3269.2	
197.63	2914.9	
197.84	4161.5	
198.06	4625	
198.27	2820.7	
198.48	3529.3	
198.7	4321.9	
198.91	4509.6	
199.13	3001	
199.34	2975.7	
199.55	4857.1	
199.77	3906.2	
199.98	2708.1	
200.19	3014.6	
200.41	4388.8	
200.62	4182	
200.83	3058.3	
201.05	3231.7	
201.26	4475.5	
201.47	4293.9	
201.69	2697.2	
201.9	2599.6	
202.11	4491.9	
202.33	5111.7	
202.54	2800.3	
202.76	3097.2	
202.97	4458.4	
203.18	4561.5	
203.4	2982.5	
203.61	3152.5	
203.82	4528.1	
204.04	4262.5	
204.25	2998.9	
204.46	2898.6	
204.68	4476.2	
204.89	4573.8	
205.1	2896.5	
205.32	2612.5	
205.53	4715.8	
205.74	4809.3	
205.96	2291	
206.17	3041.2	
206.38	4674.1	
206.6	4801.8	
206.81	3356.6	
207.02	2811.9	
207.24	4701.5	
207.45	4870.8	
207.66	2862.4	
207.88	2517	
208.09	4601.1	
208.3	4461.2	
208.52	2714.9	
208.73	2874	
208.94	4455	
209.15	4912.4	
209.37	2857.6	
209.58	2950.4	
209.79	4794.3	
210.01	4336.9	
210.22	2420	
210.43	2500.6	
210.65	4388.8	
210.86	4665.3	
211.07	2875.3	
211.29	2631	
211.5	4611.3	
211.71	4412.7	
211.93	2708.8	
212.14	2674	
212.35	4435.9	
212.56	4459.8	
212.78	3016	
212.99	2511.5	
213.2	5036	
213.42	4360.1	
213.63	2734	
213.84	2850.8	
214.06	4100.7	
214.27	4108.2	
214.48	2852.8	
214.69	2983.9	
214.91	4917.2	
215.12	4891.2	
215.33	2962	
215.55	3154.6	
215.76	5206.6	
215.97	4631.1	
216.18	2901.3	
216.4	2953.2	
216.61	4233.8	
216.82	4756.7	
217.04	2710.8	
217.25	2777	
217.46	4859.8	
217.67	4635.9	
217.89	2532	
218.1	2541.5	
218.31	4528.1	
218.53	4581.3	
218.74	2808.4	
218.95	2686.9	
219.16	4477.5	
219.38	5066.7	
219.59	2694.4	
219.8	3115.6	
220.01	5388.2	
220.23	4469.4	
220.44	3357.3	
220.65	2620.7	
220.87	4483	
221.08	4883.7	
221.29	2561.3	
221.5	3194.8	
221.72	5655.1	
221.93	4242.7	
222.14	3016	
222.35	3381.2	
222.57	4457.1	
222.78	4795.7	
222.99	2867.2	
223.2	3009.1	
223.42	4653	
223.63	4662.5	
223.84	2304.6	
224.05	2337.4	
224.27	5341.8	
224.48	4990.9	
224.69	3493.2	
224.9	3026.9	
225.12	4550.6	
225.33	4479.6	
225.54	2475.3	
225.75	2713.6	
225.97	4224.3	
226.18	4390.2	
226.39	2856.2	
226.6	2723.8	
226.82	4344.4	
227.03	4168.3	
227.24	2955.2	
227.45	2555.2	
227.67	4765.6	
227.88	5010.7	
228.09	3264.5	
228.3	3264.5	
228.52	4691.9	
228.73	4397	
228.94	2727.9	
229.15	2546.3	
229.36	4410	
229.58	4440	
229.79	2839.2	
230	3143.6	
230.21	5135.6	
230.43	4498.7	
230.64	2961.4	
230.85	3044.6	
231.06	4790.2	
231.28	4770.4	
231.49	2566.1	
231.7	2927.9	
231.91	4695.3	
232.12	4441.4	
232.34	2664.4	
232.55	2846	
232.76	4823	
232.97	4560.1	
233.18	2663	
233.4	2930	
233.61	4539	
233.82	4272.1	
234.03	2831.7	
234.25	2736.1	
234.46	5791.7	
234.67	4505.5	
234.88	3079.5	
235.09	2742.2	
235.31	4517.8	
235.52	4370.4	
235.73	2963.4	
235.94	2568.2	
236.15	4279.6	
236.37	5158.8	
236.58	2675.3	
236.79	2908.8	
237	4714.4	
237.21	4115.7	
237.43	3048.1	
237.64	2494.4	
237.85	6965.8	
238.06	4225.6	
238.27	2996.2	
238.48	2586.6	
238.7	4693.3	
238.91	4402.5	
239.12	2828.9	
239.33	3007.8	
239.54	4328.7	
239.76	4390.2	
239.97	2838.5	
240.18	2796.2	
240.39	5123.3	
240.6	4577.2	
240.82	2993.4	
241.03	2554.5	
241.24	4443.4	
241.45	5003.2	
241.66	2654.2	
241.87	3058.3	
242.09	4972.5	
242.3	5173.9	
242.51	3125.9	
242.72	2859.6	
242.93	4681	
243.14	4410	
243.36	3289	
243.57	3457.7	
243.78	4992.9	
243.99	4588.8	
244.2	2842.6	
244.41	2617.3	
244.63	4211.3	
244.84	4597	
245.05	3023.5	
245.26	2830.3	
245.47	4682.3	
245.68	4733.5	
245.9	3612.6	
246.11	2987.3	
246.32	4288.4	
246.53	4617.5	
246.74	4342.4	
246.95	2493.7	
247.16	4273.4	
247.38	4494.6	
247.59	2501.9	
247.8	2854.9	
248.01	4197	
248.22	4410	
248.43	2682.8	
248.64	2805	
248.86	4139.6	
249.07	4333.5	
249.28	2658.9	
249.49	2901.3	
249.7	4792.2	
249.91	4814.1	
250.12	2499.2	
250.34	2551.8	
250.55	4506.9	
250.76	4465.3	
250.97	2996.2	
251.18	2956.6	
251.39	4853	
251.6	4590.2	
251.81	2985.9	
252.03	2928.6	
252.24	4334.9	
252.45	4729.4	
252.66	2622.8	
252.87	3059	
253.08	4503.5	
253.29	5540.4	
253.5	2585.2	
253.72	3381.9	
253.93	4420.9	
254.14	5089.2	
254.35	2766.1	
254.56	2790.7	
254.77	4600.4	
254.98	4250.9	
255.19	2816	
255.41	3347.1	
255.62	4547.2	
255.83	4845.5	
256.04	3127.2	
256.25	2942.9	
256.46	5199.8	
256.67	4219.5	
256.88	2967.5	
257.09	3180.5	
257.31	4166.9	
257.52	4199	
257.73	3540.3	
257.94	2770.9	
258.15	4386.7	
258.36	4431.1	
258.57	3395.5	
258.78	2280.8	
258.99	4788.8	
259.2	4313.7	
259.41	2734.7	
259.63	2805	
259.84	4982	
260.05	5162.9	
260.26	3432.4	
260.47	2737.5	
260.68	4853.7	
260.89	4406.5	
261.1	3237.8	
261.31	2647.3	
261.52	4876.9	
261.73	5008.6	
261.95	3480.9	
262.16	3007.1	
262.37	4878.9	
262.58	4914.4	
262.79	3401	
263	2819.4	
263.21	4502.1	
263.42	4338.3	
263.63	3003	
263.84	2810.5	
264.05	4780.6	
264.26	4984.1	
264.47	3304.7	
264.69	2965.5	
264.9	4970.4	
265.11	4570.4	
265.32	2656.9	
265.53	2726.5	
265.74	4577.2	
265.95	4097.3	
266.16	2837.8	
266.37	3117.7	
266.58	4581.3	
266.79	4313.7	
267	2765.4	
267.21	2594.1	
267.42	4173.1	
267.63	4393.6	
267.84	2876.7	
268.06	2523.8	
268.27	4765.6	
268.48	4870.8	
268.69	2807.1	
268.9	3245.3	
269.11	4911.7	
269.32	4080.2	
269.53	2846.7	
269.74	2712.2	
269.95	4566.3	
270.16	4131.4	
270.37	2899.2	
270.58	3282.9	
270.79	4390.8	
271	4812.7	
271.21	3010.5	
271.42	2851.5	
271.63	4649.6	
271.84	4168.3	
272.05	2428.2	
272.26	2637.8	
272.47	4470.7	
272.68	4519.2	
272.89	2785.2	
273.11	3087	
273.32	4235.2	
273.53	4937.7	
273.74	3037.8	
273.95	2996.9	
274.16	4733.5	
274.37	4427	
274.58	3129.3	
274.79	2610.5	
275	4600.4	
275.21	4760.8	
275.42	3690.4	
275.63	3115	
275.84	4638	
276.05	5534.3	
276.26	3003	
276.47	2848	
276.68	4440.7	
276.89	5119.9	
277.1	3102.7	
277.31	2599.6	
277.52	4593.6	
277.73	4884.4	
277.94	2551.1	
278.15	2803.7	
278.36	4615.4	
278.57	4291.9	
278.78	2792.7	
278.99	3106.1	
279.2	4354.7	
279.41	4214.7	
279.62	3493.2	
279.83	2618.7	
280.04	5242.1	
280.25	4162.8	
280.46	3516.4	
280.67	2893.1	
280.88	4286.4	
281.09	4893.3	
281.3	2983.9	
281.51	3631	
281.72	4236.6	
281.93	4731.5	
282.14	2723.1	
282.35	2923.8	
282.56	4828.4	
282.77	4719.2	
282.98	2844.6	
283.19	3286.3	
283.4	5577.3	
283.61	4424.3	
283.82	2646.7	
284.03	3414	
284.24	4600.4	
284.45	4816.8	
284.66	3494.5	
284.87	3241.3	
285.08	4797	
285.29	4936.3	
285.5	2559.3	
285.71	2842.6	
285.92	4822.3	
286.12	5261.9	
286.33	3432.4	
286.54	2864.4	
286.75	4734.9	
286.96	4428.4	
287.17	2691.7	
287.38	3295.9	
287.59	4292.5	
287.8	4311	
288.01	2808.4	
288.22	3074	
288.43	4587.4	
288.64	4094.6	
288.85	3280.8	
289.06	3125.2	
289.27	4749.9	
289.48	4968.4	
289.69	3425.6	
289.9	3175.7	
290.11	4896.7	
290.32	4299.4	
290.53	3274	
290.74	3009.1	
290.94	4743.8	
291.15	4792.2	
291.36	2770.9	
291.57	3133.4	
291.78	4349.2	
291.99	4068.6	
292.2	2699.9	
292.41	3087.7	
292.62	4811.4	
292.83	4661.2	
293.04	3641.3	
293.25	2735.4	
293.46	4352.6	
293.67	4812.7	
293.88	2708.1	
294.09	2686.3	
294.29	4231.8	
294.5	4502.1	
294.71	2918.4	
294.92	2757.2	
295.13	4354.7	
295.34	5148.6	
295.55	2540.8	
295.76	2504.7	
295.97	4706.2	
296.18	5099.4	
296.39	2588.6	
296.6	2761.3	
296.81	4500.8	
297.01	4778.6	
297.22	2786.6	
297.43	2733.4	
297.64	4330.8	
297.85	4149.9	
298.06	2357.2	
298.27	2490.3	
298.48	4441.4	
298.69	4291.9	
298.9	2980.5	
299.11	2646.7	
299.31	4164.2	
299.52	4175.8	
299.73	3098.6	
299.94	3010.5	
300.15	4513.7	
300.36	4278.9	
300.57	3042.6	
300.78	2975	
300.99	4373.1	
301.2	4515.8	
301.4	2779.1	
301.61	2873.3	
301.82	4698	
302.03	4716.5	
302.24	3231	
302.45	2685.6	
302.66	4673.5	
302.87	4870.1	
303.08	2737.5	
303.29	3517	
303.49	4371.7	
303.7	4412	
303.91	2538.8	
304.12	3373	
304.33	4123.9	
304.54	4531.5	
304.75	2757.2	
304.96	2629.6	
305.16	4673.5	
305.37	5052.3	
305.58	2480.8	
305.79	2523.1	
306	4682.3	
306.21	4108.9	
306.42	2769.5	
306.63	3850.9	
306.83	4315.1	
307.04	4659.8	
307.25	2892.4	
307.46	2965.5	
307.67	4036.5	
307.88	4654.4	
308.09	2797.5	
308.29	2738.1	
308.5	4510.3	
308.71	4796.3	
308.92	2871.9	
309.13	2632.3	
309.34	4496	
309.55	4418.8	
309.75	3332.7	
309.96	3001.6	
310.17	4670.1	
310.38	4225	
310.59	3110.9	
310.8	2587.9	
311.01	4567.7	
311.21	4427.7	
311.42	2695.1	
311.63	2687.6	
311.84	4329.4	
312.05	4466.6	
312.26	3063.1	
312.46	3213.9	
312.67	4345.1	
312.88	4129.4	
313.09	2656.2	
313.3	2620.7	
313.51	4923.3	
313.71	5182	
313.92	2686.3	
314.13	2745.6	
314.34	4603.2	
314.55	4508.9	
314.76	3259.7	
314.96	2884.9	
315.17	4582.7	
315.38	4572.4	
315.59	2704	
315.8	2630.3	
316.01	4854.4	
316.21	5068	
316.42	2586.6	
316.63	2914.3	
316.84	4351.3	
317.05	4827.7	
317.26	3051.5	
317.46	2843.3	
317.67	4457.7	
317.88	4669.4	
318.09	3269.9	
318.3	2538.1	
318.5	4356.7	
318.71	4620.2	
318.92	4033.1	
319.13	3081.5	
319.34	4764.9	
319.54	4901.5	
319.75	2528.6	
319.96	2421.4	
320.17	4681.7	
320.38	4816.1	
320.58	2496.5	
320.79	2890.4	
321	4799.8	
321.21	4859.8	
321.42	2964.1	
321.62	2548.4	
321.83	4282.3	
322.04	4438.6	
322.25	2864.4	
322.46	2682.2	
322.66	4569	
322.87	4663.9	
323.08	3136.8	
323.29	2568.2	
323.5	5187.5	
323.7	4142.4	
323.91	3459.7	
324.12	3158	
324.33	4595.6	
324.53	4679.6	
324.74	2973	
324.95	3142.9	
325.16	4106.9	
325.37	4361.5	
325.57	2682.2	
325.78	2734	
325.99	4578.6	
326.2	4109.6	
326.4	3555.3	
326.61	2529.2	
326.82	4422.2	
327.03	4519.9	
327.24	3552.5	
327.44	3283.6	
327.65	4678.9	
327.86	3934.8	
328.07	3056.9	
328.27	2581.8	
328.48	4934.2	
328.69	4139.6	
328.9	3614	
329.1	2755.9	
329.31	4413.4	
329.52	4932.9	
329.73	2692.4	
329.93	2884.9	
330.14	4494.6	
330.35	4543.1	
330.56	4067.9	
330.76	3183.2	
330.97	4344.4	
331.18	4444.1	
331.39	2912.2	
331.59	2454.8	
331.8	4874.2	
332.01	4859.1	
332.22	2706	
332.42	2985.3	
332.63	4531.5	
332.84	4190.1	
333.05	2986.6	
333.25	2719.7	
333.46	4302.8	
333.67	4416.1	
333.88	2798.9	
334.08	3011.2	
334.29	5576.6	
334.5	4801.8	
334.7	2656.2	
334.91	3505.4	
335.12	4182.6	
335.33	4655.7	
335.53	2923.1	
335.74	3932.8	
335.95	4456.4	
336.16	4145.8	
336.36	2899.2	
336.57	3259	
336.78	4134.2	
336.98	4818.9	
337.19	3459	
337.4	2829.6	
337.61	5188.2	
337.81	4106.2	
338.02	2772.3	
338.23	3259.7	
338.43	4926	
338.64	4292.5	
338.85	2751.1	
339.05	3338.9	
339.26	5047.6	
339.47	4083.6	
339.68	2669.9	
339.88	3697.9	
340.09	4667.3	
340.3	4799.8	
340.5	2986.6	
340.71	2471.2	
340.92	4173.8	
341.13	4838	
341.33	2571.6	
341.54	3065.8	
341.75	4654.4	
341.95	4320.5	
342.16	2930.6	
342.37	3155.2	
342.57	4127.3	
342.78	4399	
342.99	3171.6	
343.19	2461	
343.4	4704.2	
343.61	4610	
343.81	2820.7	
344.02	2622.8	
344.23	4706.2	
344.43	4840	
344.64	3190.1	
344.85	3082.9	
345.06	4659.8	
345.26	4868	
345.47	3061	
345.68	3415.3	
345.88	4094.6	
346.09	4749.9	
346.3	3046.7	
346.5	2377	
346.71	4396.3	
346.92	4258.4	
347.12	2631.6	
347.33	2983.2	
347.54	4760.2	
347.74	5024.3	
347.95	2996.2	
348.16	2379.1	
348.36	4296	
348.57	4194.9	
348.78	3045.3	
348.98	3152.5	
349.19	4440	
349.39	4038.6	
349.6	2554.5	
349.81	2709.5	
350.01	4687.8	
350.22	4247.5	
350.43	2978.4	
350.63	3354.6	
350.84	4408.6	
351.05	4225.6	
351.25	2738.8	
351.46	2540.2	
351.67	4742.4	
351.87	4182.6	
352.08	2845.3	
352.29	3155.9	
352.49	4737	
352.7	4548.5	
352.9	2675.3	
353.11	3078.8	
353.32	5145.2	
353.52	4269.3	
353.73	2612.5	
353.94	3181.2	
354.14	4607.2	
354.35	4412.7	
354.55	2731.3	
354.76	2890.4	
354.97	4603.2	
355.17	4361.5	
355.38	2613.9	
355.59	3362.1	
355.79	4165.6	
356	4387.4	
356.2	2891	
356.41	2610.5	
356.62	4131.4	
356.82	4343.1	
357.03	3147.7	
357.24	2759.3	
357.44	4204.5	
357.65	4259.8	
357.85	3532.1	
358.06	2959.3	
358.27	4057.7	
358.47	4177.9	
358.68	2566.1	
358.88	3057.6	
359.09	4513	
359.3	4732.2	
359.5	3420.8	
359.71	3096.5	
359.91	4969.7	
360.12	4588.8	
360.33	3069.9	
360.53	3373.7	
360.74	4223.6	
360.94	4212	
361.15	3156.6	
361.36	2658.9	
361.56	4741.7	
361.77	4418.2	
361.97	3468.6	
362.18	2782.5	
362.38	4728.1	
362.59	4136.9	
362.8	2676	
363	2519.7	
363.21	4098	
363.41	4407.2	
363.62	2975.7	
363.83	3545.7	
364.03	4635.9	
364.24	4979.3	
364.44	3768.3	
364.65	3626.3	
364.85	4367.6	
365.06	4134.2	
365.27	2721.8	
365.47	2794.8	
365.68	4906.9	
365.88	4315.8	
366.09	3037.8	
366.29	2788.7	
366.5	4409.3	
366.71	4677.6	
366.91	3611.3	
367.12	3151.8	
367.32	5137.7	
367.53	4673.5	
367.73	3146.4	
367.94	3740.3	
368.14	4687.8	
368.35	5061.2	
368.56	3070.6	
368.76	2702.6	
368.97	4748.6	
369.17	5639.4	
369.38	2776.4	
369.58	2977.1	
369.79	4050.9	
369.99	4972.5	
370.2	3588.7	
370.4	2983.9	
370.61	4467.3	
370.82	5378.6	
371.02	3016	
371.23	2520.4	
371.43	4104.8	
371.64	4917.2	
371.84	3040.6	
372.05	3655.6	
372.25	5628.5	
372.46	4612	
372.66	2954.5	
372.87	2953.9	
373.07	4667.3	
373.28	5724.8	
373.48	3592.1	
373.69	3409.9	
373.9	4455.7	
374.1	4424.3	
374.31	3553.9	
374.51	3196.2	
374.72	4910.3	
374.92	4199	
375.13	3661.8	
375.33	3182.5	
375.54	4579.3	
375.74	4358.1	
375.95	3232.4	
376.15	3925.3	
376.36	4702.8	
376.56	4592.9	
376.77	3240.6	
376.97	3472	
377.18	5422.3	
377.38	4730.8	
377.59	3643.3	
377.79	2944.3	
378	4543.8	
378.2	4756.1	
378.41	2981.8	
378.61	2910.2	
378.82	4891.2	
379.02	4362.2	
379.23	3049.4	
379.43	3777.8	
379.64	5053	
379.84	4660.5	
380.05	3004.4	
380.25	2913.6	
380.46	4797.7	
380.66	4504.8	
380.87	3778.5	
381.07	3999.7	
381.28	5183.4	
381.48	4726	
381.69	2986.6	
381.89	3086.3	
382.1	4054.3	
382.3	4818.2	
382.51	3661.1	
382.71	4153.3	
382.91	4711.7	
383.12	5018.9	
383.32	3179.1	
383.53	3310.9	
383.73	4643.4	
383.94	4607.9	
384.14	3295.2	
384.35	2803	
384.55	4457.7	
384.76	4715.8	
384.96	3261	
385.17	3416.7	
385.37	4775.9	
385.58	4242.7	
385.78	3383.2	
385.98	2723.1	
386.19	4446.1	
386.39	4702.1	
386.6	3044.6	
386.8	3155.9	
387.01	4777.2	
387.21	4785.4	
387.42	3454.2	
387.62	3778.5	
387.83	4386.7	
388.03	4576.5	
388.23	3264.5	
388.44	3700.7	
388.64	4110.3	
388.85	4209.3	
389.05	3437.2	
389.26	3834.5	
389.46	5604.6	
389.67	5107.6	
389.87	3544.4	
390.07	3541.6	
390.28	4493.2	
390.48	4234.5	
390.69	3028.3	
390.89	3183.2	
391.1	4431.1	
391.3	4958.8	
391.5	3990.1	
391.71	4323.3	
391.91	4914.4	
392.12	5330.2	
392.32	3954.6	
392.53	3457.7	
392.73	4513	
392.93	4590.2	
393.14	3292.5	
393.34	3788.7	
393.55	4883.7	
393.75	4541	
393.95	3325.2	
394.16	3220.8	
394.36	4474.8	
394.57	4833.9	
394.77	2989.4	
394.98	3168.2	
395.18	4388.1	
395.38	4485.1	
395.59	3797.6	
395.79	3110.2	
396	4531.5	
396.2	4775.9	
396.4	3655.6	
396.61	3630.4	
396.81	4835.9	
397.02	4372.4	
397.22	3826.3	
397.42	3806.5	
397.63	5031.9	
397.83	4414.7	
398.04	3097.2	
398.24	3440.6	
398.44	4809.3	
398.65	4116.4	
398.85	3028.9	
399.05	3097.9	
399.26	4511.7	
399.46	5489.9	
399.67	3331.4	
399.87	3168.2	
400.07	4665.3	
400.28	4883.7	
400.48	3228.3	
400.69	3947.8	
400.89	5038	
401.09	5382.7	
401.3	3183.9	
401.5	3815.4	
401.7	5445.5	
401.91	5612.8	
402.11	3459	
402.32	3583.9	
402.52	5134.3	
402.72	4983.4	
402.93	3774.4	
403.13	2974.3	
403.33	5558.9	
403.54	4674.1	
403.74	3519.1	
403.94	4031.1	
404.15	4786.1	
404.35	5521.3	
404.56	3374.4	
404.76	4465.3	
404.96	5074.9	
405.17	4872.8	
405.37	4036.5	
405.57	3737.5	
405.78	5137.7	
405.98	4784.1	
406.18	3351.2	
406.39	3898.6	
406.59	5101.5	
406.79	4786.1	
407	3216.7	
407.2	3314.3	
407.4	5408.7	
407.61	5213.4	
407.81	3306.8	
408.01	4653	
408.22	4396.3	
408.42	5678.3	
408.62	4009.2	
408.83	3773.7	
409.03	4892.6	
409.23	4762.2	
409.44	3801	
409.64	3900	
409.84	5528.8	
410.05	5450.3	
410.25	3956.7	
410.45	3792.2	
410.66	5203.2	
410.86	6782.9	
411.06	4066.6	
411.27	3994.9	
411.47	6645.7	
411.67	5295.4	
411.88	4147.8	
412.08	4187.4	
412.28	5708.4	
412.49	6034.7	
412.69	4002.4	
412.89	4044.7	
413.09	5937.7	
413.3	5877.7	
413.5	4084.3	
413.7	3843.4	
413.91	5373.9	
414.11	5949.3	
414.31	3967.6	
414.52	4272.1	
414.72	5780.7	
414.92	5608	
415.12	3953.3	
415.33	4356	
415.53	5956.9	
415.73	6053.8	
415.94	4606.6	
416.14	4141	
416.34	5364.3	
416.55	5167.7	
416.75	4960.2	
416.95	4646.8	
417.15	6042.2	
417.36	6344.6	
417.56	5202.5	
417.76	4577.2	
417.97	6217	
418.17	5959.6	
418.37	4368.3	
418.57	4327.4	
418.78	5937.7	
418.98	5683.8	
419.18	4865.3	
419.38	4789.5	
419.59	5739.8	
419.79	5481.7	
419.99	4239.3	
420.2	4459.8	
420.4	6090	
420.6	6134.3	
420.8	4177.2	
421.01	4085	
421.21	5955.5	
421.41	5997.1	
421.61	4454.3	
421.82	4221.5	
422.02	5654.4	
422.22	6223.8	
422.42	4671.4	
422.63	4506.9	
422.83	5614.2	
423.03	6534.4	
423.23	4508.3	
423.44	3960.1	
423.64	5725.4	
423.84	5488.6	
424.04	4225	
424.25	4003.1	
424.45	6393.1	
424.65	6197.2	
424.85	3852.2	
425.06	4231.1	
425.26	6433.4	
425.46	5644.9	
425.66	4544.4	
425.87	4310.3	
426.07	6102.9	
426.27	6029.2	
426.47	4425	
426.67	3964.9	
426.88	6422.4	
427.08	5950.7	
427.28	4655.7	
427.48	3973.1	
427.69	5374.6	
427.89	5712.5	
428.09	4498	
428.29	3996.3	
428.5	6085.9	
428.7	5898.8	
428.9	3978.5	
429.1	4248.2	
429.3	5895.4	
429.51	6040.1	
429.71	4193.6	
429.91	4672.8	
430.11	6115.9	
430.31	6277	
430.52	4399.7	
430.72	4558.1	
430.92	6439.5	
431.12	6012.8	
431.32	4232.5	
431.53	4508.3	
431.73	5371.8	
431.93	6542.6	
432.13	4077.5	
432.33	4048.8	
432.54	5787.6	
432.74	5896.1	
432.94	4112.3	
433.14	4728.8	
433.34	6217	
433.55	5889.3	
433.75	4718.5	
433.95	5768.4	
434.15	6071.5	
434.35	5739.8	
434.56	4256.4	
434.76	3918.4	
434.96	5976.7	
435.16	6168.5	
435.36	4206.5	
435.56	4915.8	
435.77	5805.3	
435.97	5930.2	
436.17	5373.9	
436.37	4840.7	
436.57	5795.8	
436.78	5793	
436.98	5918.6	
437.18	5141.8	
437.38	6193.1	
437.58	5882.4	
437.78	5343.2	
437.99	4437.3	
438.19	6189.6	
438.39	7118.7	
438.59	4459.8	
438.79	4065.9	
438.99	6642.9	
439.2	5836	
439.4	4075.5	
439.6	4085.7	
439.8	6090	
440	6752.2	
440.2	4833.2	
440.4	4878.9	
440.61	6417.7	
440.81	6676.4	
441.01	4422.9	
441.21	4883.7	
441.41	6775.4	
441.61	6378.1	
441.81	5241.4	
442.02	5797.1	
442.22	7065.5	
442.42	6528.9	
442.62	4517.8	
442.82	4513.7	
443.02	6861.4	
443.22	6197.2	
443.43	4829.1	
443.63	4443.4	
443.83	6141.9	
444.03	6045.6	
444.23	5319.9	
444.43	5027.1	
444.63	6379.4	
444.83	7036.8	
445.04	4672.1	
445.24	5386.8	
445.44	6583.5	
445.64	6623.1	
445.84	5072.8	
446.04	5060.5	
446.24	6182.1	
446.44	6774	
446.65	4521.9	
446.85	4762.9	
447.05	6139.8	
447.25	6752.8	
447.45	4921.3	
447.65	4568.3	
447.85	6406.7	
448.05	6077.7	
448.25	5089.9	
448.46	4922	
448.66	6450.4	
448.86	6081.8	
449.06	4483	
449.26	5100.8	
449.46	6660	
449.66	5986.9	
449.86	4930.8	
450.06	4730.8	
450.26	6137.1	
450.47	6526.9	
450.67	5022.3	
450.87	5287.2	
451.07	6709.8	
451.27	6391	
451.47	4584	
451.67	5162.9	
451.87	6176	
452.07	7006.1	
452.27	4818.2	
452.47	4765.6	
452.67	6506.4	
452.88	6682.5	
453.08	4373.8	
453.28	5551.4	
453.48	7200	
453.68	6346	
453.88	4762.9	
454.08	4762.2	
454.28	6772.6	
454.48	6543.9	
454.68	5261.2	
454.88	5479	
455.08	6842.3	
455.28	6717.3	
455.48	4727.4	
455.68	5056.4	
455.89	7205.4	
456.09	6841.6	
456.29	5029.8	
456.49	5015.5	
456.69	7101	
456.89	6555.5	
457.09	5307	
457.29	5612.8	
457.49	6842.9	
457.69	6911.2	
457.89	5246.2	
458.09	4842.8	
458.29	6781.5	
458.49	7280.5	
458.69	5566.4	
458.89	5147.2	
459.09	7368.6	
459.29	7389.1	
459.49	5186.8	
459.69	5762.3	
459.9	7061.4	
460.1	6857.3	
460.3	5247.6	
460.5	5038.7	
460.7	7187	
460.9	6797.9	
461.1	4876.9	
461.3	5681.7	
461.5	7560.4	
461.7	7387.7	
461.9	5323.4	
462.1	5475.6	
462.3	7047.1	
462.5	7393.8	
462.7	5367.7	
462.9	5324.7	
463.1	8056.7	
463.3	7860.8	
463.5	5552.7	
463.7	6226.5	
463.9	7241.6	
464.1	7465.5	
464.3	5737.7	
464.5	5842.2	
464.7	7762.5	
464.9	7468.3	
465.1	6794.5	
465.3	6016.2	
465.5	7848.5	
465.7	7945.4	
465.9	6252.4	
466.1	6032	
466.3	7759.8	
466.5	7765.2	
466.7	6814.3	
466.9	6073.6	
467.1	7890.8	
467.3	8333.9	
467.5	6798.6	
467.7	6026.5	
467.9	8506.6	
468.1	9052.7	
468.3	6481.1	
468.5	6799.3	
468.7	7853.3	
468.9	7690.1	
469.1	6365.8	
469.3	6812.9	
469.5	9037.7	
469.7	7608.2	
469.9	6590.4	
470.1	6193.7	
470.3	7959.1	
470.5	7914.7	
470.7	6972.7	
470.9	6272.9	
471.1	7698.3	
471.3	7991.2	
471.5	6201.2	
471.69	7222.5	
471.89	7746.8	
472.09	7312.6	
472.29	6653.9	
472.49	6767.2	
472.69	7530.4	
472.89	7876.5	
473.09	6085.2	
473.29	6133	
473.49	7652.6	
473.69	7580.9	
473.89	6666.1	
474.09	6186.2	
474.29	8451.3	
474.49	8133.2	
474.69	6714.6	
474.89	6236.7	
475.09	7688.8	
475.29	7671	
475.49	5885.9	
475.69	6144.6	
475.88	8572.8	
476.08	7880.6	
476.28	5896.8	
476.48	6044.9	
476.68	8186.4	
476.88	7946.8	
477.08	6150.1	
477.28	6253.8	
477.48	7707.9	
477.68	7959.1	
477.88	5880.4	
478.08	6108.4	
478.28	8319.5	
478.48	7714	
478.67	6189	
478.87	5737	
479.07	8073.8	
479.27	7817.1	
479.47	6342.6	
479.67	6287.3	
479.87	8121.6	
480.07	8362.5	
480.27	5924.1	
480.47	6786.3	
480.67	7818.5	
480.87	8329.1	
481.06	6084.5	
481.26	6503.7	
481.46	7942	
481.66	7837.6	
481.86	6416.3	
482.06	6956.3	
482.26	7670.3	
482.46	8256	
482.66	6277	
482.86	6049	
483.05	8046.5	
483.25	7521.5	
483.45	7869	
483.65	6380.8	
483.85	7575.4	
484.05	7839.6	
484.25	6653.9	
484.45	6857.3	
484.65	8328.4	
484.84	8490.9	
485.04	6330.3	
485.24	6287.9	
485.44	8654.7	
485.64	7527.7	
485.84	5956.2	
486.04	6759.7	
486.24	7860.8	
486.44	8036.9	
486.63	5866.1	
486.83	6494.1	
487.03	7912	
487.23	8033.5	
487.43	5976	
487.63	7388.4	
487.83	8020.5	
488.02	8456.7	
488.22	6603.3	
488.42	7075.7	
488.62	8621.9	
488.82	7872.4	
489.02	6441.5	
489.22	6541.9	
489.41	8454.7	
489.61	8394.6	
489.81	6292.7	
490.01	6305	
490.21	8488.1	
490.41	8915.5	
490.61	6300.2	
490.8	6507.8	
491	8217.1	
491.2	7783.6	
491.4	6755.6	
491.6	6241.5	
491.8	8193.2	
491.99	8219.9	
492.19	6154.8	
492.39	6299.6	
492.59	8441.7	
492.79	8542.8	
492.99	6855.9	
493.18	6353.5	
493.38	8632.2	
493.58	9094.3	
493.78	6950.8	
493.98	6653.9	
494.18	8491.6	
494.37	8155.7	
494.57	7177.4	
494.77	7045	
494.97	8800.8	
495.17	9007.6	
495.37	6890.7	
495.56	7018.4	
495.76	9132.6	
495.96	8862.9	
496.16	7772.7	
496.36	7079.8	
496.55	9200.8	
496.75	8647.2	
496.95	7329.7	
497.15	7255.3	
497.35	9141.4	
497.54	8987.2	
497.74	7144	
497.94	8319.5	
498.14	9592.7	
498.34	9399.5	
498.53	6937.8	
498.73	7488.7	
498.93	8694.3	
499.13	8996.7	
499.33	7399.3	
499.52	7694.9	
499.72	9305.3	
499.92	9267.1	
500.12	7269.6	
500.32	7408.2	
500.51	9321	
500.71	9225.4	
500.91	7955.7	
501.11	7710.6	
501.31	9303.9	
501.5	9514.2	
501.7	8198.7	
501.9	7483.3	
502.1	9164.7	
502.29	9389.9	
502.49	7777.5	
502.69	8051.2	
502.89	9299.1	
503.09	9288.2	
503.28	7068.9	
503.48	7181.5	
503.68	8927.1	
503.88	8815.1	
504.07	7790.5	
504.27	7542	
504.47	9006.3	
504.67	9116.2	
504.86	7705.8	
505.06	7579.5	
505.26	8934.6	
505.46	9798.2	
505.65	7309.9	
505.85	7582.9	
506.05	8843.8	
506.25	9110	
506.44	7040.2	
506.64	7491.5	
506.84	8577.6	
507.04	9191.3	
507.23	7184.3	
507.43	7400.7	
507.63	9774.3	
507.83	8770.8	
508.02	7511.9	
508.22	7159	
508.42	10058	
508.62	8635.6	
508.81	7475.8	
509.01	7722.9	
509.21	8607.6	
509.4	8805.6	
509.6	7480.5	
509.8	7056.6	
510	8813.1	
510.19	9483.5	
510.39	6889.4	
510.59	7130.3	
510.79	8748.2	
510.98	9546.9	
511.18	7286.7	
511.38	7161.1	
511.57	9273.2	
511.77	8916.2	
511.97	7641.7	
512.17	7108.5	
512.36	9206.3	
512.56	9000.8	
512.76	7062.8	
512.95	6920.1	
513.15	9357.2	
513.35	8313.4	
513.55	7621.9	
513.74	7126.2	
513.94	9177.6	
514.14	8854.7	
514.33	7627.3	
514.53	7567.9	
514.73	8850.6	
514.92	9027.4	
515.12	7209.5	
515.32	7150.1	
515.51	9021.3	
515.71	9140.1	
515.91	8205.5	
516.11	7207.5	
516.3	10082	
516.5	8868.4	
516.7	7589.8	
516.89	7907.9	
517.09	8860.9	
517.29	8945.5	
517.48	7813.7	
517.68	7351.5	
517.88	8683.4	
518.07	9052	
518.27	7666.2	
518.47	7100.3	
518.66	9456.8	
518.86	8748.2	
519.06	7025.2	
519.25	7256.6	
519.45	8923.7	
519.65	9826.8	
519.84	7755.7	
520.04	8191.2	
520.24	10138	
520.43	9252.7	
520.63	7605.5	
520.83	7397.9	
521.02	8847.2	
521.22	9172.9	
521.42	7703.1	
521.61	8091.5	
521.81	8912.8	
522.01	9095.7	
522.2	7666.2	
522.4	7391.8	
522.6	9394	
522.79	8525.7	
522.99	7533.1	
523.18	7134.4	
523.38	9294.4	
523.58	9299.1	
523.77	8434.9	
523.97	7283.9	
524.17	10452	
524.36	9994.8	
524.56	8226	
524.76	7996	
524.95	9424.8	
525.15	9297.1	
525.34	8043.7	
525.54	8019.2	
525.74	9916.9	
525.93	9169.4	
526.13	8791.2	
526.33	8079.9	
526.52	10140	
526.72	9740.1	
526.91	8827.4	
527.11	8417.8	
527.31	10071	
527.5	10385	
527.7	8422.6	
527.89	7870.3	
528.09	9628.2	
528.29	10036	
528.48	8682	
528.68	8388.5	
528.87	10229	
529.07	10298	
529.27	8460.8	
529.46	8150.2	
529.66	9995.5	
529.85	10236	
530.05	8220.5	
530.25	8619.2	
530.44	10850	
530.64	10048	
530.83	8496.3	
531.03	8561.2	
531.23	10434	
531.42	10216	
531.62	8942.8	
531.81	8567.3	
532.01	10563	
532.21	10675	
532.4	8601.5	
532.6	8822	
532.79	11160	
532.99	10703	
533.18	8931.9	
533.38	9475.3	
533.58	10461	
533.77	10912	
533.97	8940.1	
534.16	9519	
534.36	11209	
534.55	10688	
534.75	9562	
534.95	9042.5	
535.14	11198	
535.34	10604	
535.53	8836.3	
535.73	9966.1	
535.92	11551	
536.12	10591	
536.31	8988.5	
536.51	9690.3	
536.71	10902	
536.9	10546	
537.1	9005.6	
537.29	9108.7	
537.49	11163	
537.68	10594	
537.88	9366.7	
538.07	8833.6	
538.27	10794	
538.46	11344	
538.66	8809	
538.86	9170.1	
539.05	10786	
539.25	10977	
539.44	9342.8	
539.64	9018.6	
539.83	10757	
540.03	11268	
540.22	8938.7	
540.42	9039.1	
540.61	10831	
540.81	10979	
541	9159.2	
541.2	9714.9	
541.39	10503	
541.59	10762	
541.78	9554.5	
541.98	8897.1	
542.18	10332	
542.37	10218	
542.57	9172.2	
542.76	9496.4	
542.96	10269	
543.15	10714	
543.35	9200.8	
543.54	8596	
543.74	10630	
543.93	10540	
544.13	8965.3	
544.32	9570.2	
544.52	10760	
544.71	10175	
544.91	8442.4	
545.1	9096.4	
545.3	10314	
545.49	10517	
545.69	8292.2	
545.88	8689.5	
546.08	11166	
546.27	10875	
546.47	9012.4	
546.66	8570.1	
546.86	10747	
547.05	10972	
547.24	8720.3	
547.44	8700.5	
547.63	10110	
547.83	10721	
548.02	8973.5	
548.22	9064.3	
548.41	9944.3	
548.61	10668	
548.8	8578.3	
549	8576.9	
549.19	10380	
549.39	10591	
549.58	8392.6	
549.78	8718.9	
549.97	10514	
550.17	10233	
550.36	9238.4	
550.55	9764.7	
550.75	10260	
550.94	10731	
551.14	8520.9	
551.33	8585.8	
551.53	9742.2	
551.72	10331	
551.92	8716.8	
552.11	8482.7	
552.31	10409	
552.5	10408	
552.69	9604.3	
552.89	8270.4	
553.08	10368	
553.28	10139	
553.47	8474.5	
553.67	9168.1	
553.86	10741	
554.06	9600.2	
554.25	8021.9	
554.44	8455.4	
554.64	11172	
554.83	10837	
555.03	8333.2	
555.22	8591.9	
555.42	10528	
555.61	10277	
555.8	8479.3	
556	8571.4	
556.19	9747	
556.39	10372	
556.58	8375.5	
556.78	8514.8	
556.97	10187	
557.16	9969.5	
557.36	9232.2	
557.55	8203.5	
557.75	9534.7	
557.94	10783	
558.13	8318.8	
558.33	8105.9	
558.52	10533	
558.72	9655.5	
558.91	8164.6	
559.1	8262.2	
559.3	9620	
559.49	9423.4	
559.69	8000	
559.88	8497.7	
560.07	10008	
560.27	10303	
560.46	8620.6	
560.66	8777.6	
560.85	9932.6	
561.04	9476	
561.24	8054.7	
561.43	8117.5	
561.63	9576.3	
561.82	9775.6	
562.01	8939.4	
562.21	8322.3	
562.4	9940.8	
562.59	10557	
562.79	8258.8	
562.98	8070.4	
563.18	9853.5	
563.37	10819	
563.56	8597.4	
563.76	8075.1	
563.95	9624.1	
564.14	9611.1	
564.34	8348.2	
564.53	8153	
564.73	10070	
564.92	10236	
565.11	8476.5	
565.31	8035.5	
565.5	10306	
565.69	9635	
565.89	8228.7	
566.08	8340.7	
566.27	10200	
566.47	10580	
566.66	8808.3	
566.85	8075.1	
567.05	10209	
567.24	9768.8	
567.44	8188.5	
567.63	9036.3	
567.82	10206	
568.02	9901.9	
568.21	8151.6	
568.4	8343.4	
568.6	10066	
568.79	9874.6	
568.98	8243.8	
569.18	8204.8	
569.37	10000	
569.56	11138	
569.76	8422.6	
569.95	8987.9	
570.14	10221	
570.34	10155	
570.53	8210.3	
570.72	8171.4	
570.91	10517	
571.11	9962	
571.3	8428.1	
571.49	9037.7	
571.69	10099	
571.88	9684.8	
572.07	8735.3	
572.27	8752.3	
572.46	9633.6	
572.65	10256	
572.85	8325.7	
573.04	8389.8	
573.23	10518	
573.43	10082	
573.62	8243.1	
573.81	8558.5	
574	10165	
574.2	9975	
574.39	8503.8	
574.58	8458.8	
574.78	10630	
574.97	10238	
575.16	8748.2	
575.36	8901.2	
575.55	10613	
575.74	10563	
575.93	8233.5	
576.13	8959.9	
576.32	10101	
576.51	10516	
576.71	8564.6	
576.9	9363.3	
577.09	10649	
577.28	10266	
577.48	8727.1	
577.67	8202.8	
577.86	10156	
578.05	10316	
578.25	8662.9	
578.44	8727.1	
578.63	10217	
578.83	10925	
579.02	8332.5	
579.21	9243.2	
579.4	10329	
579.6	10185	
579.79	8714.1	
579.98	10122	
580.17	10513	
580.37	10602	
580.56	8388.5	
580.75	8887.5	
580.94	10631	
581.14	10829	
581.33	9131.2	
581.52	8551	
581.71	10533	
581.91	10921	
582.1	8391.9	
582.29	8595.3	
582.48	10196	
582.68	10244	
582.87	8901.8	
583.06	8761.2	
583.25	10519	
583.45	9944.3	
583.64	9157.8	
583.83	9559.2	
584.02	10309	
584.21	10489	
584.41	9164.7	
584.6	8837	
584.79	10398	
584.98	10712	
585.18	8499.8	
585.37	8374.8	
585.56	10047	
585.75	10530	
585.94	8534.6	
586.14	8905.3	
586.33	10763	
586.52	10264	
586.71	8703.2	
586.91	8640.4	
587.1	9749.7	
587.29	10449	
587.48	8457.4	
587.67	8456.7	
587.87	10374	
588.06	10243	
588.25	9241.1	
588.44	8768.7	
588.63	9957.9	
588.83	10346	
589.02	8350.9	
589.21	8199.4	
589.4	9827.5	
589.59	9788.6	
589.78	7624.6	
589.98	7760.4	
590.17	9309.4	
590.36	9611.8	
590.55	7200.7	
590.74	7688.8	
590.94	10135	
591.13	9214.5	
591.32	7608.2	
591.51	7240.9	
591.7	9471.9	
591.89	9285.5	
592.09	7331	
592.28	7665.5	
592.47	8763.9	
592.66	10128	
592.85	7415.7	
593.05	7496.9	
593.24	9312.1	
593.43	9816.6	
593.62	7592.5	
593.81	7852.6	
594	9335.3	
594.19	9311.4	
594.39	7557	
594.58	7437.5	
594.77	9566.7	
594.96	9673.9	
595.15	7450.5	
595.34	7849.9	
595.54	9391.3	
595.73	8837	
595.92	7089.4	
596.11	7684.7	
596.3	9665.7	
596.49	8847.9	
596.68	7565.2	
596.88	7799.3	
597.07	9388.6	
597.26	8839.7	
597.45	7152.9	
597.64	7857.4	
597.83	8942.1	
598.02	9291	
598.22	7299.6	
598.41	7635.5	
598.6	9225.4	
598.79	8754.4	
598.98	7299	
599.17	7817.1	
599.36	9211.1	
599.55	9880.1	
599.74	8499.8	
599.94	8418.5	
600.13	9617.9	
600.32	8763.9	
600.51	7125.6	
600.7	7273	
600.89	9857.6	
601.08	9956.5	
601.27	7051.2	
601.47	7586.4	
601.66	9431.6	
601.85	9805.7	
602.04	7536.5	
602.23	7634.1	
602.42	8869.1	
602.61	9255.5	
602.8	7384.3	
602.99	7283.3	
603.18	9032.2	
603.37	9191.3	
603.57	7627.3	
603.76	8021.9	
603.95	9628.2	
604.14	9301.9	
604.33	7370.6	
604.52	7479.2	
604.71	9301.9	
604.9	8884.1	
605.09	7937.9	
605.28	7660.1	
605.47	9577.7	
605.66	9144.2	
605.86	7701.7	
606.05	7326.9	
606.24	9499.2	
606.43	8542.1	
606.62	7560.4	
606.81	7968	
607	9412.5	
607.19	8979.7	
607.38	7152.9	
607.57	7205.4	
607.76	8821.3	
607.95	8391.9	
608.14	7550.2	
608.33	7895.6	
608.52	8770.1	
608.72	9392	
608.91	7004.7	
609.1	7008.8	
609.29	8895.7	
609.48	8545.5	
609.67	7563.8	
609.86	6915.3	
610.05	8624	
610.24	8732.5	
610.43	6939.2	
610.62	6660.7	
610.81	9463.7	
611	9365.4	
611.19	7051.2	
611.38	7380.2	
611.57	8931.2	
611.76	9652.8	
611.95	6799.3	
612.14	6727.6	
612.33	8757.1	
612.52	8451.3	
612.71	7170.6	
612.9	6723.5	
613.09	8286.1	
613.28	9777.7	
613.47	7023.2	
613.66	7593.9	
613.85	8903.2	
614.04	8487.5	
614.24	7025.9	
614.43	6492.7	
614.62	8974.2	
614.81	8932.6	
615	7247.1	
615.19	7290.1	
615.38	8524.3	
615.57	8708	
615.76	7277.8	
615.95	7887.4	
616.14	9000.1	
616.33	8785.8	
616.52	7449.8	
616.71	7531.1	
616.9	8897.7	
617.09	8827.4	
617.28	7081.9	
617.47	7755	
617.66	8388.5	
617.85	8392.6	
618.04	7585	
618.22	7276.4	
618.41	8656.8	
618.6	9213.1	
618.79	7269.6	
618.98	7195.9	
619.17	9434.3	
619.36	8300.4	
619.55	7245.7	
619.74	7281.9	
619.93	9025.4	
620.12	8674.5	
620.31	7626.6	
620.5	7784.3	
620.69	9383.1	
620.88	9721.7	
621.07	8125	
621.26	7570.7	
621.45	9233.6	
621.64	9086.8	
621.83	7677.8	
622.02	7245	
622.21	9308.7	
622.4	9040.4	
622.59	8073.8	
622.78	7897	
622.97	8885.5	
623.16	9546.3	
623.35	7822.6	
623.54	7128.3	
623.72	9046.6	
623.91	9026.1	
624.1	7854	
624.29	7017	
624.48	9746.3	
624.67	9354.4	
624.86	7759.8	
625.05	7236.8	
625.24	9798.8	
625.43	8973.5	
625.62	8811	
625.81	7383.6	
626	9357.2	
626.19	9042.5	
626.38	7762.5	
626.56	7431.4	
626.75	8940.1	
626.94	9433.6	
627.13	7860.1	
627.32	7118.7	
627.51	9400.2	
627.7	9944.3	
627.89	7075.7	
628.08	7822.6	
628.27	8722.3	
628.46	8892.3	
628.65	7315.3	
628.83	7071	
629.02	9342.2	
629.21	8604.2	
629.4	7544	
629.59	7673.7	
629.78	8820.6	
629.97	9308	
630.16	7659.4	
630.35	7385	
630.54	9773.6	
630.72	9439.1	
630.91	7386.3	
631.1	7706.5	
631.29	9122.3	
631.48	9155.1	
631.67	7783.6	
631.86	7380.9	
632.05	9041.8	
632.24	8902.5	
632.42	7247.8	
632.61	7601.4	
632.8	8966	
632.99	8717.5	
633.18	7677.2	
633.37	7822.6	
633.56	9067	
633.75	9004.9	
633.93	7608.9	
634.12	7403.4	
634.31	9594.7	
634.5	9433.6	
634.69	7421.2	
634.88	7709.9	
635.07	9021.3	
635.25	9267.7	
635.44	7964.6	
635.63	8056	
635.82	8995.4	
636.01	8350.3	
636.2	7946.1	
636.39	7584.3	
636.57	9614.5	
636.76	9245.9	
636.95	7236.2	
637.14	8096.3	
637.33	9226.1	
637.52	9665.7	
637.7	7045.7	
637.89	7775.5	
638.08	8936	
638.27	9772.9	
638.46	7724.3	
638.65	7957	
638.83	9707.4	
639.02	8765.3	
639.21	7766.6	
639.4	7941.3	
639.59	8917.5	
639.78	8785.8	
639.96	7139.2	
640.15	7171.3	
640.34	8863.6	
640.53	8907.3	
640.72	6988.4	
640.91	7134.4	
641.09	8497	
641.28	9306	
641.47	7195.9	
641.66	7689.4	
641.85	8905.9	
642.03	8991.9	
642.22	7497.6	
642.41	7234.8	
642.6	8464.3	
642.79	8114.7	
642.97	7074.4	
643.16	7401.4	
643.35	8519.6	
643.54	8305.2	
643.73	6938.5	
643.91	7426.6	
644.1	8209.6	
644.29	8570.1	
644.48	6894.8	
644.67	7008.8	
644.85	8187.8	
645.04	8533.9	
645.23	6597.9	
645.42	6801.3	
645.6	8185	
645.79	8826.7	
645.98	6610.8	
646.17	6086.6	
646.36	7808.2	
646.54	8196	
646.73	7119.4	
646.92	6390.3	
647.11	7868.3	
647.29	8486.1	
647.48	6343.9	
647.67	6171.9	
647.86	8632.9	
648.05	8626.7	
648.23	6541.2	
648.42	7269.6	
648.61	8196	
648.8	8096.3	
648.98	6246.3	
649.17	6513.9	
649.36	7809.6	
649.55	7536.5	
649.73	6309.8	
649.92	6793.8	
650.11	7788.4	
650.3	7963.2	
650.48	6391	
650.67	6254.5	
650.86	8114.1	
651.05	7408.2	
651.23	6343.2	
651.42	6278.4	
651.61	7773.4	
651.79	7719.5	
651.98	6399.2	
652.17	6182.8	
652.36	8028	
652.54	7350.8	
652.73	6195.1	
652.92	6105	
653.11	7909.3	
653.29	8079.2	
653.48	5743.2	
653.67	6279.1	
653.85	7772	
654.04	8488.1	
654.23	6399.9	
654.42	6115.9	
654.6	7334.5	
654.79	7825.3	
654.98	5687.2	
655.16	6057.2	
655.35	7177.4	
655.54	6915.3	
655.73	5751.4	
655.91	5691.3	
656.1	7562.5	
656.29	6845	
656.47	5474.9	
656.66	6521.4	
656.85	7284.6	
657.03	7176.8	
657.22	5747.3	
657.41	5897.5	
657.59	7303.7	
657.78	7186.3	
657.97	5642.2	
658.16	6079.7	
658.34	7767.3	
658.53	8002.8	
658.72	6610.2	
658.9	6923.5	
659.09	7481.2	
659.28	7523.6	
659.46	5935.7	
659.65	5838.1	
659.84	7257.3	
660.02	7740	
660.21	5957.5	
660.4	5750.7	
660.58	7873.8	
660.77	7430	
660.96	6255.9	
661.14	5569.8	
661.33	8100.4	
661.52	8170	
661.7	5505.6	
661.89	7710.6	
662.08	7240.9	
662.26	6800.6	
662.45	5745.2	
662.64	5797.8	
662.82	7677.2	
663.01	7053.9	
663.2	5748.6	
663.38	6204	
663.57	7544.7	
663.75	7462.8	
663.94	5940.5	
664.13	6711.9	
664.31	7157.7	
664.5	7503.1	
664.69	6047	
664.87	6392.4	
665.06	6976.1	
665.25	7394.5	
665.43	6640.9	
665.62	6506.4	
665.8	7495.6	
665.99	7184.3	
666.18	5885.2	
666.36	5928.2	
666.55	7669	
666.74	7443.7	
666.92	5689.9	
667.11	6614.9	
667.29	7212.9	
667.48	7572.7	
667.67	6386.2	
667.85	5762.3	
668.04	7094.2	
668.22	7089.4	
668.41	5920	
668.6	6134.3	
668.78	6903	
668.97	7223.9	
669.15	6154.8	
669.34	5410.1	
669.53	6989.7	
669.71	7205.4	
669.9	5509	
670.08	5938.4	
670.27	6982.9	
670.46	7299.6	
670.64	6149.4	
670.83	6335.7	
671.01	6899.6	
671.2	7253.9	
671.38	5627.1	
671.57	5642.2	
671.76	7664.2	
671.94	8004.8	
672.13	5542.5	
672.31	6126.8	
672.5	7458	
672.69	6949.4	
672.87	5597.8	
673.06	5849	
673.24	7337.2	
673.43	7019.8	
673.61	6042.9	
673.8	5806	
673.98	7372.7	
674.17	7473.7	
674.36	6173.9	
674.54	6024.4	
674.73	7194.5	
674.91	7510.6	
675.1	5879.7	
675.28	5551.4	
675.47	7135.1	
675.65	7539.9	
675.84	5747.3	
676.03	5920	
676.21	7054.6	
676.4	6627.2	
676.58	6207.4	
676.77	6101.6	
676.95	7960.5	
677.14	6911.2	
677.32	5567.7	
677.51	5528.2	
677.69	7433.4	
677.88	6779.5	
678.06	5528.8	
678.25	5620.3	
678.44	7137.2	
678.62	6907.1	
678.81	5409.4	
678.99	6015.6	
679.18	7760.4	
679.36	7380.9	
679.55	5750.7	
679.73	6084.5	
679.92	7323.5	
680.1	7002	
680.29	6477	
680.47	5675.6	
680.66	7033.4	
680.84	7415.7	
681.03	5387.5	
681.21	6016.9	
681.4	6951.5	
681.58	6976.1	
681.77	5649	
681.95	5644.9	
682.14	7501.7	
682.32	7764.5	
682.51	6182.8	
682.69	5398.4	
682.88	6889.4	
683.06	7246.4	
683.25	6016.9	
683.43	6143.9	
683.62	7142.6	
683.8	7370.6	
683.99	6292	
684.17	5870.8	
684.36	7858.1	
684.54	6942.6	
684.73	5345.9	
684.91	5451.7	
685.1	7101.7	
685.28	6726.2	
685.46	5679	
685.65	5604.6	
685.83	7094.2	
686.02	6672.3	
686.2	5187.5	
686.39	5394.3	
686.57	6485.2	
686.76	7492.2	
686.94	5313.8	
687.13	5385.5	
687.31	7066.9	
687.5	6826.6	
687.68	5057.8	
687.86	5780.7	
688.05	7897	
688.23	6522.8	
688.42	5952.8	
688.6	5471.5	
688.79	6764.4	
688.97	6855.9	
689.16	5769.1	
689.34	5040.7	
689.52	7305.1	
689.71	7520.1	
689.89	5977.3	
690.08	5512.4	
690.26	7169.3	
690.45	6919.4	
690.63	6049.7	
690.81	5669.5	
691	7047.7	
691.18	6816.3	
691.37	5765	
691.55	7154.2	
691.74	6845	
691.92	8120.2	
692.1	5679.7	
692.29	5447.6	
692.47	7180.2	
692.66	6582.9	
692.84	5575.9	
693.02	5896.1	
693.21	6704.4	
693.39	7080.5	
693.58	6015.6	
693.76	5615.5	
693.94	7767.3	
694.13	7643.7	
694.31	5724.8	
694.5	6393.8	
694.68	7069.6	
694.86	7378.1	
695.05	6142.5	
695.23	6262	
695.42	7647.1	
695.6	9011.1	
695.78	6486.6	
695.97	5926.1	
696.15	7737.9	
696.34	7268.9	
696.52	5868.8	
696.7	6405.4	
696.89	7529	
697.07	7110.5	
697.25	6185.5	
697.44	7141.9	
697.62	7567.2	
697.81	7624.6	
697.99	6052.4	
698.17	6388.3	
698.36	7227.3	
698.54	7534.5	
698.72	6234.7	
698.91	5693.4	
699.09	7370	
699.28	7200	
699.46	6087.9	
699.64	6034.7	
699.83	7193.1	
700.01	7820.5	
700.19	6541.2	
700.38	5517.9	
700.56	7836.9	
700.74	7354.3	
700.93	5834.7	
701.11	6434	
701.29	7689.4	
701.48	8354.3	
701.66	6029.2	
701.84	6144.6	
702.03	7567.2	
702.21	8000.7	
702.39	5859.2	
702.58	6349.4	
702.76	7888.8	
702.94	7965.9	
703.13	5911.1	
703.31	7375.4	
703.49	7491.5	
703.68	8303.1	
703.86	6085.9	
704.04	6677.1	
704.23	7794.6	
704.41	7955.7	
704.59	6250.4	
704.78	6826.6	
704.96	8871.8	
705.14	7961.1	
705.33	6128.2	
705.51	6548.7	
705.69	7598.6	
705.87	8241	
706.06	6670.2	
706.24	6107.7	
706.42	7922.2	
706.61	8112	
706.79	6856.6	
706.97	6080.4	
707.16	7603.4	
707.34	7953.6	
707.52	6751.5	
707.7	6234	
707.89	7608.2	
708.07	7456.7	
708.25	6867.5	
708.44	6918	
708.62	7664.2	
708.8	8358.4	
708.98	7017.7	
709.17	6362.4	
709.35	7854.6	
709.53	7919.5	
709.72	6227.2	
709.9	6268.8	
710.08	8105.9	
710.26	8140	
710.45	7167.2	
710.63	6404	
710.81	7738.6	
710.99	7826.7	
711.18	6705.7	
711.36	6419.7	
711.54	7825.3	
711.72	8192.6	
711.91	6498.2	
712.09	6130.9	
712.27	7843.7	
712.45	8070.4	
712.64	6447	
712.82	5941.8	
713	7402	
713.18	7466.9	
713.37	5926.8	
713.55	6611.5	
713.73	7916.8	
713.91	6993.1	
714.1	5993.7	
714.28	5631.9	
714.46	7406.8	
714.64	6884.6	
714.83	5132.9	
715.01	5423.7	
715.19	6844.3	
715.37	6160.3	
715.55	5170.4	
715.74	5324.7	
715.92	7200.7	
716.1	5907	
716.28	5989.6	
716.47	5347.9	
716.65	6439.5	
716.83	6460.7	
717.01	5256.5	
717.19	5193	
717.38	7719.5	
717.56	6229.2	
717.74	5421	
717.92	4832.5	
718.1	7080.5	
718.29	6554.2	
718.47	4806.6	
718.65	5225.1	
718.83	7158.3	
719.01	7086.7	
719.2	4909.7	
719.38	5612.1	
719.56	7030.7	
719.74	7959.8	
719.92	5524.7	
720.11	6058.6	
720.29	7048.4	
720.47	6505.7	
720.65	5054.4	
720.83	5558.9	
721.02	6625.9	
721.2	6427.2	
721.38	5417.6	
721.56	4969.7	
721.74	6029.9	
721.92	6145.3	
722.11	5649.7	
722.29	5565.7	
722.47	6873.7	
722.65	6479.8	
722.83	5012.7	
723.01	5428.5	
723.2	6455.2	
723.38	6628.6	
723.56	4585.4	
723.74	5297.4	
723.92	6135	
724.1	6820.4	
724.29	4891.9	
724.47	5717.9	
724.65	6305.7	
724.83	6066.1	
725.01	4842.1	
725.19	5312.4	
725.37	6163.7	
725.56	6165.1	
725.74	4717.8	
725.92	4894	
726.1	6183.5	
726.28	6356.9	
726.46	5179.3	
726.64	5023	
726.83	6370.5	
727.01	6483.2	
727.19	4739	
727.37	5255.8	
727.55	6506.4	
727.73	6726.2	
727.91	4788.2	
728.09	4678.9	
728.28	6746	
728.46	6905.8	
728.64	5352.7	
728.82	5264	
729	7376.1	
729.18	7010.9	
729.36	4891.2	
729.54	6232	
729.72	7706.5	
729.91	6630.6	
730.09	6209.4	
730.27	5464.7	
730.45	6702.3	
730.63	7032	
730.81	5722.7	
730.99	5208.7	
731.17	7496.9	
731.35	6495.5	
731.53	5552	
731.71	5279.7	
731.9	7135.8	
732.08	7258.7	
732.26	5510.4	
732.44	5265.3	
732.62	7206.8	
732.8	7036.8	
732.98	5668.8	
733.16	5090.6	
733.34	6980.8	
733.52	6059.9	
733.7	5318.6	
733.88	5466.7	
734.07	6812.2	
734.25	6687.3	
734.43	5051.7	
734.61	5895.4	
734.79	7701.7	
734.97	6746	
735.15	5095.3	
735.33	5279	
735.51	6808.1	
735.69	6569.2	
735.87	5968.5	
736.05	5387.5	
736.23	6718.7	
736.41	6433.4	
736.59	5309	
736.77	5369.1	
736.95	6993.1	
737.13	6498.2	
737.32	5104.2	
737.5	5259.2	
737.68	7324.2	
737.86	6500.9	
738.04	4940.4	
738.22	6098.2	
738.4	6409.5	
738.58	6619.7	
738.76	5274.9	
738.94	4698.7	
739.12	6451.8	
739.3	6399.9	
739.48	5613.5	
739.66	5456.5	
739.84	6640.9	
740.02	6541.9	
740.2	4722.6	
740.38	4891.2	
740.56	6800.6	
740.74	6019	
740.92	5261.2	
741.1	5195	
741.28	6397.9	
741.46	6207.4	
741.64	4984.1	
741.82	5298.1	
742	6397.9	
742.18	6272.2	
742.36	5061.2	
742.54	4862.6	
742.72	6718	
742.9	5881.1	
743.08	5268.1	
743.26	4546.5	
743.44	6778.1	
743.62	6659.3	
743.8	5362.9	
743.98	4787.5	
744.16	6480.5	
744.34	6274.3	
744.52	5186.1	
744.7	5139	
744.88	6563.1	
745.06	6221	
745.24	5160.2	
745.42	5219.6	
745.6	6604.7	
745.78	6447	
745.96	4496	
746.14	4626.4	
746.32	7073	
746.5	6411.5	
746.68	4934.2	
746.86	4603.8	
747.03	6631.3	
747.21	5644.9	
747.39	4947.9	
747.57	4559.5	
747.75	6184.2	
747.93	6316.6	
748.11	4496.7	
748.29	4534.2	
748.47	7217	
748.65	5957.5	
748.83	4999.8	
749.01	4732.9	
749.19	6416.3	
749.37	5646.2	
749.55	4756.1	
749.73	4776.5	
749.91	6055.8	
750.09	5941.8	
750.26	4706.2	
750.44	4415.4	
750.62	6114.6	
750.8	5963.7	
750.98	4338.3	
751.16	4491.2	
751.34	6191.7	
751.52	5668.8	
751.7	4980	
751.88	4255.7	
752.06	6330.3	
752.24	6171.9	
752.42	4218.1	
752.59	4477.5	
752.77	5979.4	
752.95	6784.9	
753.13	4894	
753.31	4438.6	
753.49	5782.8	
753.67	6035.4	
753.85	4697.4	
754.03	4382	
754.21	6121.4	
754.38	6389.7	
754.56	4386.7	
754.74	3804.4	
754.92	5570.5	
755.1	5868.8	
755.28	3676.1	
755.46	3620.1	
755.64	6282.5	
755.82	6219.7	
755.99	3571	
756.17	3594.2	
756.35	4485.7	
756.53	5465.3	
756.71	2818	
756.89	3633.1	
757.07	5049.6	
757.25	4575.8	
757.42	3735.5	
757.6	4227.7	
757.78	5266	
757.96	4654.4	
758.14	3649.5	
758.32	3441.3	
758.5	4351.9	
758.67	4856.4	
758.85	3474	
759.03	3547.1	
759.21	5045.5	
759.39	4616.8	
759.57	3186	
759.75	3900	
759.92	5502.2	
760.1	5071.5	
760.28	4137.6	
760.46	4335.5	
760.64	4982	
760.82	4794.3	
760.99	4188.1	
761.17	3665.9	
761.35	5490.6	
761.53	4793.6	
761.71	3893.9	
761.89	4218.8	
762.06	5406.6	
762.24	5160.2	
762.42	3895.2	
762.6	3762.8	
762.78	5165	
762.96	5514.5	
763.13	4162.8	
763.31	3947.1	
763.49	5593.7	
763.67	5200.5	
763.85	4506.9	
764.02	4738.3	
764.2	5868.8	
764.38	5191.6	
764.56	3921.9	
764.74	4461.8	
764.91	5869.5	
765.09	5147.9	
765.27	3725.9	
765.45	3616	
765.63	5982.1	
765.8	5772.5	
765.98	3457	
766.16	3657	
766.34	4877.6	
766.52	4758.8	
766.69	4160.8	
766.87	3495.9	
767.05	5186.8	
767.23	5550	
767.41	3666.5	
767.58	3781.2	
767.76	5529.5	
767.94	5518.6	
768.12	3680.2	
768.29	4098.7	
768.47	5022.3	
768.65	5598.5	
768.83	3442.6	
769	4096.6	
769.18	4821.6	
769.36	5261.9	
769.54	4100	
769.72	3433.1	
769.89	5541.1	
770.07	5406	
770.25	3633.1	
770.43	4384.7	
770.6	5931.6	
770.78	6115.9	
770.96	3689.8	
771.14	4033.8	
771.31	5409.4	
771.49	4900.1	
771.67	3162.1	
771.85	3310.2	
772.02	4465.9	
772.2	4928.8	
772.38	3832.4	
772.55	3400.3	
772.73	5127.4	
772.91	4915.8	
773.09	3648.8	
773.26	3766.9	
773.44	5043.5	
773.62	4909	
773.8	3416.7	
773.97	3215.3	
774.15	5070.1	
774.33	4866.7	
774.5	3250.1	
774.68	3448.8	
774.86	5152	
775.04	4826.4	
775.21	3310.2	
775.39	3259.7	
775.57	4980	
775.74	5203.9	
775.92	3146.4	
776.1	3045.3	
776.27	4882.4	
776.45	5790.3	
776.63	3227.6	
776.81	3006.4	
776.98	4752.7	
777.16	5336.3	
777.34	3342.3	
777.51	3540.9	
777.69	4720.6	
777.87	4549.9	
778.04	3424.9	
778.22	3667.9	
778.4	4522.6	
778.57	4982	
778.75	2914.3	
778.93	3057.6	
779.1	4517.1	
779.28	4282.3	
779.46	2887.6	
779.64	3142.3	
779.81	5018.9	
779.99	5586.2	
780.17	3628.3	
780.34	3729.4	
780.52	4715.8	
780.69	4780	
780.87	3331.4	
781.05	3074.7	
781.22	4810.7	
781.4	4803.9	
781.58	3147.7	
781.75	2615.3	
781.93	4774.5	
782.11	4309.6	
782.28	3715	
782.46	3156.6	
782.64	4231.8	
782.81	4818.9	
782.99	3269.9	
783.17	3097.9	
783.34	4680.3	
783.52	4364.9	
783.69	3261.7	
783.87	3821.5	
784.05	4373.1	
784.22	4328.7	
784.4	3766.9	
784.58	3353.9	
784.75	5029.1	
784.93	4425.7	
785.1	3090.4	
785.28	3488.4	
785.46	4853.7	
785.63	4319.2	
785.81	3150.5	
785.99	2978.4	
786.16	4500.1	
786.34	4692.6	
786.51	3044	
786.69	3300.6	
786.87	4078.9	
787.04	4440.7	
787.22	2962	
787.39	3491.1	
787.57	4304.8	
787.75	4965	
787.92	3710.9	
788.1	3517.7	
788.27	4334.2	
788.45	4046.1	
788.63	3431.7	
788.8	2636.4	
788.98	4613.4	
789.15	3951.9	
789.33	2693.1	
789.5	3056.9	
789.68	4833.2	
789.86	4944.5	
790.03	3409.2	
790.21	2953.2	
790.38	4915.8	
790.56	4387.4	
790.73	2948.4	
790.91	2869.2	
791.09	4295.3	
791.26	4744.5	
791.44	3134.8	
791.61	2712.2	
791.79	4259.1	
791.96	4278.9	
792.14	2825.5	
792.32	2559.3	
792.49	4262.5	
792.67	4342.4	
792.84	2925.9	
793.02	2772.3	
793.19	4552.6	
793.37	5003.2	
793.54	2511.5	
793.72	2783.2	
793.89	4999.1	
794.07	4246.1	
794.25	3136.8	
794.42	2606.4	
794.6	4927.4	
794.77	4626.4	
794.95	3299.3	
795.12	2930	
795.3	4292.5	
795.47	4629.8	
795.65	3231.7	
795.82	3058.3	
796	4090.5	
796.17	5296.7	
796.35	2985.3	
796.52	3484.3	
796.7	4644.1	
796.87	4674.8	
797.05	2972.3	
797.22	3564.1	
797.4	4656.4	
797.57	5232.6	
797.75	3098.6	
797.92	2865.1	
798.1	4862.6	
798.27	4130.8	
798.45	2579.1	
798.62	2704	
798.8	4478.9	
798.97	4768.4	
799.15	3238.5	
799.32	3052.8	
799.5	3994.2	
799.67	4380.6	
799.85	3280.2	
800.02	2496.5	
800.2	4175.8	
800.37	4336.9	
800.55	3363.4	
800.72	2917	
800.9	4779.3	
801.07	4966.3	
801.25	3758	
801.42	3196.2	
801.6	4812.7	
801.77	4420.2	
801.95	2941.6	
802.12	2805	
802.29	4596.3	
802.47	4489.1	
802.64	3192.8	
802.82	2549	
802.99	4214	
803.17	4703.5	
803.34	3046	
803.52	2795.5	
803.69	5183.4	
803.87	4005.1	
804.04	3050.8	
804.21	3148.4	
804.39	4988.2	
804.56	4307.6	
804.74	2690.3	
804.91	3135.4	
805.09	4213.4	
805.26	4179.9	
805.44	2707.4	
805.61	2965.5	
805.78	4661.9	
805.96	4593.6	
806.13	3138.2	
806.31	3343	
806.48	3888.4	
806.66	4230.4	
806.83	3116.3	
807	3045.3	
807.18	4223.6	
807.35	4405.2	
807.53	2972.3	
807.7	2598.2	
807.87	4928.8	
808.05	4195.6	
808.22	3284.9	
808.4	2579.8	
808.57	4136.2	
808.74	3958.7	
808.92	2892.4	
809.09	3495.9	
809.27	4244.8	
809.44	4472.1	
809.61	2571.6	
809.79	2720.4	
809.96	5042.1	
810.14	4650.3	
810.31	2529.2	
810.48	3218.7	
810.66	4259.1	
810.83	4689.2	
811.01	2865.1	
811.18	3124.5	
811.35	4653.7	
811.53	3765.5	
811.7	3345	
811.87	3149.1	
812.05	4298.7	
812.22	4134.2	
812.39	2749.7	
812.57	2682.2	
812.74	4264.6	
812.92	5240.1	
813.09	3043.3	
813.26	3104	
813.44	5068.7	
813.61	4076.8	
813.78	2515.6	
813.96	3168.2	
814.13	4242.7	
814.3	4037.9	
814.48	3438.5	
814.65	2929.3	
814.82	5035.3	
815	4020.2	
815.17	3111.5	
815.34	3551.2	
815.52	4141	
815.69	4156	
815.87	2897.2	
816.04	2893.1	
816.21	4171.7	
816.38	3857	
816.56	2954.5	
816.73	2764.8	
816.9	5164.3	
817.08	4644.8	
817.25	2823.5	
817.42	3290.4	
817.6	3900.7	
817.77	4136.2	
817.94	3062.4	
818.12	2717	
818.29	4081.6	
818.46	5580.7	
818.64	2839.2	
818.81	2670.6	
818.98	4098.7	
819.16	5338.4	
819.33	3213.3	
819.5	2998.2	
819.67	4397	
819.85	4833.2	
820.02	2993.4	
820.19	3145.7	
820.37	4348.5	
820.54	4117.1	
820.71	3031.7	
820.88	3628.3	
821.06	4340.3	
821.23	4040	
821.4	3068.5	
821.58	3041.2	
821.75	4598.4	
821.92	4317.1	
822.09	2562.7	
822.27	2604.3	
822.44	4156.7	
822.61	4126.7	
822.79	2565.4	
822.96	4436.6	
823.13	4406.5	
823.3	3948.5	
823.48	2875.3	
823.65	2665.1	
823.82	4674.1	
823.99	3997.6	
824.17	3523.2	
824.34	2673.3	
824.51	5216.2	
824.68	4295.3	
824.86	2788	
825.03	3033.7	
825.2	4222.2	
825.37	4814.1	
825.55	2798.2	
825.72	2951.8	
825.89	5165.7	
826.06	4891.2	
826.24	2959.3	
826.41	2945	
826.58	4964.3	
826.75	4374.5	
826.92	2463	
827.1	2654.2	
827.27	6272.2	
827.44	5130.8	
827.61	2738.1	
827.79	3304.1	
827.96	4084.3	
828.13	4134.2	
828.3	2940.2	
828.47	2528.6	
828.65	4498	
828.82	4441.4	
828.99	3499.3	
829.16	3155.2	
829.34	4670.7	
829.51	4567.7	
829.68	3020.1	
829.85	3044.6	
830.02	4952.7	
830.2	4708.3	
830.37	2391.3	
830.54	3439.9	
830.71	5158.2	
830.88	4278.9	
831.05	2362	
831.23	2742.2	
831.4	5012.1	
831.57	5396.4	
831.74	2819.4	
831.91	2533.3	
832.09	4540.3	
832.26	4706.9	
832.43	2841.2	
832.6	3158.7	
832.77	4446.1	
832.94	4915.1	
833.12	2379.7	
833.29	2772.3	
833.46	4157.4	
833.63	5522.7	
833.8	3059	
833.97	2850.8	
834.15	4728.8	
834.32	4587.4	
834.49	2959.3	
834.66	2996.2	
834.83	4778.6	
835	4062.5	
835.17	2766.1	
835.35	2790.7	
835.52	4642.7	
835.69	4513	
835.86	2917	
836.03	2458.9	
836.2	4696	
836.37	4383.3	
836.55	2795.5	
836.72	2661.7	
836.89	4422.9	
837.06	4733.5	
837.23	2863.7	
837.4	3079.5	
837.57	5197.7	
837.75	5591.6	
837.92	2637.8	
838.09	2760	
838.26	4395.6	
838.43	4803.2	
838.6	2968.9	
838.77	2699.2	
838.94	5251.7	
839.11	5205.3	
839.29	2859	
839.46	2276	
839.63	4749.9	
839.8	4468.7	
839.97	2831	
840.14	2745	
840.31	4576.5	
840.48	4672.8	
840.65	2408.4	
840.82	2795.5	
841	4653	
841.17	4494.6	
841.34	2557.9	
841.51	2618	
841.68	4676.9	
841.85	4494.6	
842.02	2691	
842.19	2282.8	
842.36	4489.1	
842.53	4530.1	
842.7	2564.7	
842.87	3019.4	
843.05	5551.4	
843.22	4433.2	
843.39	2497.8	
843.56	2655.5	
843.73	4373.8	
843.9	4747.9	
844.07	3858.4	
844.24	3247.4	
844.41	6081.8	
844.58	4153.3	
844.75	2516.3	
844.92	2715.6	
845.09	4590.9	
845.26	4629.8	
845.43	2598.2	
845.6	2706.7	
845.77	4595	
845.94	4456.4	
846.12	2869.2	
846.29	2932.7	
846.46	4824.3	
846.63	4586.8	
846.8	2609.8	
846.97	2977.1	
847.14	4915.1	
847.31	4595.6	
847.48	2852.8	
847.65	3071.3	
847.82	4754	
847.99	4784.1	
848.16	3293.1	
848.33	3099.9	
848.5	4347.2	
848.67	4934.2	
848.84	2526.5	
849.01	2637.8	
849.18	4310.3	
849.35	4059.8	
849.52	3110.2	
849.69	2486.2	
849.86	4838	
850.03	4829.8	
850.2	2587.9	
850.37	3043.3	
850.54	4843.4	
850.71	4389.5	
850.88	2989.4	
851.05	2528.6	
851.22	4537.6	
851.39	4947.2	
851.56	2426.8	
851.73	2880.1	
851.9	4191.5	
852.07	4786.1	
852.24	2796.8	
852.41	2522.4	
852.58	4653.7	
852.75	4204.5	
852.92	2800.9	
853.09	2532	
853.26	4263.9	
853.43	4904.9	
853.6	2566.8	
853.77	2207	
853.94	4965.6	
854.11	4162.2	
854.28	3585.3	
854.44	2775	
854.61	5173.2	
854.78	4760.2	
854.95	2540.8	
855.12	3087	
855.29	3889.8	
855.46	5066.7	
855.63	2577	
855.8	3381.9	
855.97	4336.2	
856.14	4855.7	
856.31	3394.2	
856.48	2755.9	
856.65	4441.4	
856.82	4144.4	
856.99	2532	
857.16	2714.2	
857.33	5367.7	
857.49	4416.8	
857.66	2722.4	
857.83	2885.6	
858	4471.4	
858.17	4547.9	
858.34	2439.8	
858.51	2569.5	
858.68	4976.6	
858.85	4995	
859.02	2868.5	
859.19	2983.2	
859.36	4175.1	
859.52	4139.6	
859.69	2560	
859.86	2947.7	
860.03	4172.4	
860.2	4997	
860.37	2370.2	
860.54	2545.6	
860.71	4740.4	
860.88	5014.1	
861.05	2840.5	
861.21	3177.1	
861.38	4996.4	
861.55	4001	
861.72	2383.2	
861.89	2856.2	
862.06	4807.9	
862.23	5083.1	
862.4	2544.3	
862.56	2603	
862.73	4711.7	
862.9	4464.6	
863.07	2876.7	
863.24	2407	
863.41	4120.5	
863.58	4211.3	
863.75	2587.3	
863.91	2937.5	
864.08	4854.4	
864.25	4710.3	
864.42	3085.6	
864.59	3428.3	
864.76	5214.8	
864.93	4178.5	
865.09	2517.6	
865.26	2746.3	
865.43	4898.1	
865.6	5153.4	
865.77	2317.6	
865.94	2499.9	
866.1	4873.5	
866.27	4654.4	
866.44	3629	
866.61	2480.1	
866.78	4410	
866.95	4681.7	
867.11	2540.8	
867.28	2303.3	
867.45	4865.3	
867.62	4143	
867.79	2833	
867.96	2516.3	
868.12	4123.9	
868.29	4724.7	
868.46	2560.6	
868.63	3339.6	
868.8	4812.7	
868.97	4721.3	
869.13	2628.2	
869.3	2655.5	
869.47	4663.9	
869.64	4757.4	
869.81	2551.8	
869.97	2579.8	
870.14	4575.8	
870.31	4962.2	
870.48	2488.3	
870.65	3082.9	
870.81	4385.4	
870.98	4419.5	
871.15	2794.1	
871.32	2714.2	
871.48	4663.9	
871.65	5020.3	
871.82	2580.4	
871.99	2798.2	
872.16	5339.7	
872.32	4876.9	
872.49	2640.5	
872.66	2542.9	
872.83	4767.7	
872.99	4237.9	
873.16	2859	
873.33	2519.7	
873.5	4511.7	
873.67	4578.6	
873.83	2710.8	
874	3227.6	
874.17	4691.9	
874.34	5165	
874.5	3206.4	
874.67	3038.5	
874.84	4922	
875.01	4028.4	
875.17	3406.5	
875.34	2514.2	
875.51	4598.4	
875.68	5343.8	
875.84	3023.5	
876.01	3510.2	
876.18	4736.3	
876.34	4668.7	
876.51	2547.7	
876.68	2555.2	
876.85	4337.6	
877.01	4998.4	
877.18	3477.5	
877.35	2515.6	
877.52	4624.3	
877.68	4143.7	
877.85	2538.1	
878.02	2510.1	
878.18	4347.8	
878.35	4291.9	
878.52	2131.9	
878.69	2953.2	
878.85	4865.3	
879.02	4688.5	
879.19	3459	
879.35	2681.5	
879.52	4715.1	
879.69	4778.6	
879.86	2271.9	
880.02	2820.1	
880.19	4468.7	
880.36	5201.8	
880.52	2842.6	
880.69	2948.4	
880.86	4749.2	
881.02	4803.9	
881.19	2794.1	
881.36	2781.1	
881.52	4700.1	
881.69	4240	
881.86	2682.8	
882.02	2669.9	
882.19	4918.5	
882.36	5488.6	
882.52	2632.3	
882.69	3417.4	
882.86	4522.6	
883.02	4556.7	
883.19	3021.4	
883.36	2862.4	
883.52	4720.6	
883.69	5230.5	
883.86	2598.2	
884.02	2377.7	
884.19	4695.3	
884.36	4514.4	
884.52	2807.1	
884.69	2712.2	
884.86	4328.7	
885.02	5012.7	
885.19	2775	
885.36	2918.4	
885.52	4375.1	
885.69	4586.1	
885.86	3525.9	
886.02	3107.5	
886.19	4770.4	
886.35	4269.3	
886.52	2762	
886.69	3442.6	
886.85	4179.2	
887.02	4932.9	
887.19	4932.9	
887.35	4932.9	
887.52	4932.9	
887.68	4932.9	
887.85	4932.9	
888.02	4932.9	
888.18	4932.9	
888.35	4932.9	
888.51	4932.9	
888.68	4932.9	
888.85	4932.9	
889.01	4932.9	
889.18	4932.9	
889.35	4932.9	
889.51	4932.9	
889.68	4932.9	
889.84	4932.9	
890.01	4932.9	
890.17	4932.9	
890.34	4932.9	
890.51	4932.9	
890.67	4932.9	
890.84	4932.9	
891	4932.9	
891.17	4932.9	
891.34	4932.9	
891.5	4932.9	
891.67	4932.9	
891.83	4932.9	
892	4932.9	
892.16	4932.9	
892.33	4932.9	
892.5	4932.9	
892.66	4932.9	
892.83	4932.9	
892.99	4932.9	
893.16	4932.9	
893.32	4932.9	
893.49	4932.9	
893.65	4932.9	
893.82	4932.9	
893.99	4932.9	
894.15	4932.9	
894.32	4932.9	
894.48	4932.9	
894.65	4932.9	
894.81	4932.9	
894.98	4932.9	
895.14	4932.9	
895.31	4932.9	
895.47	4932.9	
895.64	4932.9	
895.81	4932.9	
895.97	4932.9	
896.14	4932.9	
896.3	4932.9	
896.47	4932.9	
896.63	4932.9	
896.8	4932.9	
896.96	4932.9	
897.13	4932.9	
897.29	4932.9	
897.46	4932.9	
897.62	4932.9	
897.79	4932.9	
897.95	4932.9	
898.12	4932.9	
898.28	4932.9	
898.45	4932.9	
898.61	4932.9	
898.78	4932.9	
898.94	4932.9	
899.11	4932.9	
899.27	4932.9	
899.44	4932.9	
899.6	4932.9	
899.77	4932.9	
899.93	4932.9	
900.1	4932.9	
900.26	4932.9	
900.43	4932.9	
900.59	4932.9	
900.76	4932.9	
900.92	4932.9	
901.09	4932.9	
901.25	4932.9	
901.42	4932.9	
901.58	4932.9	
901.75	4932.9	
901.91	4932.9	
902.07	4932.9	
902.24	4932.9	
902.4	4932.9	
902.57	4932.9	
902.73	4932.9	
902.9	4932.9	
903.06	4932.9	
903.23	4932.9	
903.39	4932.9	
903.56	4932.9	
903.72	4932.9	
903.88	4932.9	
904.05	4932.9	
904.21	4932.9	
904.38	4932.9	
904.54	4932.9	
904.71	4932.9	
904.87	4932.9	
905.03	4932.9	
905.2	4932.9	
905.36	4932.9	
905.53	4932.9	
905.69	4932.9	
905.86	4932.9	
906.02	4932.9	
906.18	4932.9	
906.35	4932.9	
906.51	4932.9	
906.68	4932.9	
906.84	4932.9	
907.01	4932.9	
907.17	4932.9	
907.33	4932.9	
907.5	4932.9	
907.66	4932.9	
907.83	4932.9	
907.99	4932.9	
908.15	4932.9	
908.32	4932.9	
908.48	4932.9	
908.65	4932.9	
908.81	4932.9	
908.97	4932.9	
909.14	4932.9	
909.3	4932.9	
909.47	4932.9	
909.63	4932.9	
909.79	4932.9	
909.96	4932.9	
910.12	4932.9	
910.28	4932.9	
910.45	4932.9	
910.61	4932.9	
910.78	4932.9	
910.94	4932.9	
911.1	4932.9	
911.27	4932.9	
911.43	4932.9	
911.59	4932.9	
911.76	4932.9	
911.92	4932.9	
912.08	4932.9	
912.25	4932.9	
912.41	4932.9	
912.57	4932.9	
912.74	4932.9	
912.9	4932.9	
913.07	4932.9	
913.23	4932.9	
913.39	4932.9	
913.56	4932.9	
913.72	4932.9	
913.88	4932.9	
914.05	4932.9	
914.21	4932.9	
914.37	4932.9	
914.54	4932.9	
914.7	4932.9	
914.86	4932.9	
915.03	4932.9	
915.19	4932.9	
