Wavelength	Intensities	
nm	a.u.	
179.22	1934.1	
179.44	1924.1	
179.65	1944.2	
179.86	1903.9	
180.08	1921.7	
180.29	5043.5	
180.51	3569.6	
180.72	5757.5	
180.94	6783.6	
181.15	3300.6	
181.37	3214.6	
181.58	5541.1	
181.79	5862.7	
182.01	3413.3	
182.22	3680.2	
182.44	5834	
182.65	4900.8	
182.87	4644.8	
183.08	4057.7	
183.29	6143.2	
183.51	5038.7	
183.72	3752.6	
183.94	5375.2	
184.15	5481.7	
184.37	5533.6	
184.58	3272.7	
184.79	4478.2	
185.01	5044.1	
185.22	5900.9	
185.44	4760.8	
185.65	4011.3	
185.86	5332.9	
186.08	4937.7	
186.29	3180.5	
186.51	3465.8	
186.72	5102.9	
186.94	6017.6	
187.15	3936.9	
187.36	4078.2	
187.58	7950.2	
187.79	5590.3	
188.01	4274.8	
188.22	6694.1	
188.43	6736.5	
188.65	5857.2	
188.86	3424.2	
189.08	4120.5	
189.29	5340.4	
189.5	5270.8	
189.72	3871.3	
189.93	3928.7	
190.15	6060.6	
190.36	7255.3	
190.57	4204.5	
190.79	4060.4	
191	6205.3	
191.22	6038.8	
191.43	4168.3	
191.64	3363.4	
191.86	6361	
192.07	6151.4	
192.29	3561.4	
192.5	3840.6	
192.71	6041.5	
192.93	5169.8	
193.14	3760.1	
193.35	3887.7	
193.57	5248.9	
193.78	6090.7	
194	3059	
194.21	3754.6	
194.42	4986.8	
194.64	5514.5	
194.85	4095.9	
195.07	4832.5	
195.28	5504.3	
195.49	4763.6	
195.71	5115.8	
195.92	3503.4	
196.13	5663.3	
196.35	5824.4	
196.56	5464	
196.78	4109.6	
196.99	7208.2	
197.2	6708.5	
197.42	4679.6	
197.63	4182	
197.84	4932.2	
198.06	5721.3	
198.27	3781.9	
198.48	5150.6	
198.7	5242.8	
198.91	5362.9	
199.13	4171	
199.34	4177.9	
199.55	5863.3	
199.77	4817.5	
199.98	3636.5	
200.19	4209.3	
200.41	5397.1	
200.62	5048.9	
200.83	4323.3	
201.05	4597.7	
201.26	5446.9	
201.47	5184.8	
201.69	3674.1	
201.9	3497.9	
202.11	5452.4	
202.33	6548.7	
202.54	3928	
202.76	4418.2	
202.97	5615.5	
203.18	5592.3	
203.4	4315.1	
203.61	4201.1	
203.82	5590.3	
204.04	5171.8	
204.25	4175.1	
204.46	4091.8	
204.68	5462.6	
204.89	5754.8	
205.1	4020.2	
205.32	3452.9	
205.53	5947.3	
205.74	6043.6	
205.96	2985.3	
206.17	4239.3	
206.38	5902.2	
206.6	5998.5	
206.81	4784.7	
207.02	3889.1	
207.24	5731.6	
207.45	6167.1	
207.66	3949.8	
207.88	3382.6	
208.09	5709.1	
208.3	5485.1	
208.52	3568.9	
208.73	4050.2	
208.94	5472.9	
209.15	6241.5	
209.37	3979.2	
209.58	4150.5	
209.79	6051.7	
210.01	5238	
210.22	3132	
210.43	3280.8	
210.65	5480.4	
210.86	5932.3	
211.07	3969	
211.29	3625.6	
211.5	5901.6	
211.71	5378	
211.93	3661.1	
212.14	3597.6	
212.35	5424.4	
212.56	5665.4	
212.78	4173.8	
212.99	3423.5	
213.2	6524.8	
213.42	5293.3	
213.63	3760.8	
213.84	4071.4	
214.06	4811.4	
214.27	4927.4	
214.48	3943	
214.69	4255.7	
214.91	6170.5	
215.12	6232.7	
215.33	4313	
215.55	4764.9	
215.76	6777.4	
215.97	5823.7	
216.18	4068.6	
216.4	4046.8	
216.61	5193.6	
216.82	6014.9	
217.04	3633.8	
217.25	3806.5	
217.46	6181.5	
217.67	5882.4	
217.89	3244	
218.1	3403.7	
218.31	5608	
218.53	5683.8	
218.74	3865.9	
218.95	3695.2	
219.16	5459.2	
219.38	6472.3	
219.59	3719.1	
219.8	4347.8	
220.01	7140.6	
220.23	5554.8	
220.44	4871.4	
220.65	3639.2	
220.87	5487.9	
221.08	6084.5	
221.29	3374.4	
221.5	4542.4	
221.72	7549.5	
221.93	5221	
222.14	4224.3	
222.35	4934.2	
222.57	5496.7	
222.78	5868.1	
222.99	3900	
223.2	4293.9	
223.42	5823.7	
223.63	5907	
223.84	3027.6	
224.05	3054.9	
224.27	7038.2	
224.48	6481.1	
224.69	4887.8	
224.9	4180.6	
225.12	5674.9	
225.33	5429.8	
225.54	3366.2	
225.75	3720.5	
225.97	5096.7	
226.18	5347.9	
226.39	4015.4	
226.6	3698.6	
226.82	5224.4	
227.03	5091.3	
227.24	4201.7	
227.45	3408.5	
227.67	5920	
227.88	6498.9	
228.09	4696.7	
228.3	4643.4	
228.52	5913.9	
228.73	5443.5	
228.94	3876.1	
229.15	3506.1	
229.36	5442.8	
229.58	5380.7	
229.79	3885.7	
230	4560.8	
230.21	6516	
230.43	5601.9	
230.64	4153.3	
230.85	4405.2	
231.06	5959.6	
231.28	5942.5	
231.49	3394.8	
231.7	3999.7	
231.91	5902.2	
232.12	5485.8	
232.34	3437.9	
232.55	4096.6	
232.76	6199.9	
232.97	5668.1	
233.18	3614	
233.4	4046.1	
233.61	5700.9	
233.82	5221	
234.03	3840.6	
234.25	3708.2	
234.46	7699.7	
234.67	5537.7	
234.88	4243.4	
235.09	3730.7	
235.31	5838.8	
235.52	5335.6	
235.73	4170.3	
235.94	3460.4	
236.15	5245.5	
236.37	6693.4	
236.58	3699.3	
236.79	4001.7	
237	5789.6	
237.21	5016.2	
237.43	4308.9	
237.64	3345.7	
237.85	10056	
238.06	5021.6	
238.27	4381.3	
238.48	3475.4	
238.7	5805.3	
238.91	5347.2	
239.12	3950.5	
239.33	4018.8	
239.54	5038.7	
239.76	5382.1	
239.97	3926	
240.18	3958.7	
240.39	6939.9	
240.6	5806.7	
240.82	4151.9	
241.03	3371.6	
241.24	5468.1	
241.45	6356.9	
241.66	3592.1	
241.87	4318.5	
242.09	6291.4	
242.3	6625.2	
242.51	4339	
242.72	4047.5	
242.93	6023.8	
243.14	5516.5	
243.36	4544.4	
243.57	4967.7	
243.78	6410.1	
243.99	5859.9	
244.2	4017.4	
244.41	3576.4	
244.63	5016.8	
244.84	5801.2	
245.05	4246.1	
245.26	3961.5	
245.47	5821	
245.68	6027.2	
245.9	5362.9	
246.11	4208.6	
246.32	5341.8	
246.53	5746.6	
246.74	6503	
246.95	3345.7	
247.16	4965.6	
247.38	5489.2	
247.59	3291.1	
247.8	4040	
248.01	5193.6	
248.22	5438	
248.43	3587.4	
248.64	3913	
248.86	4887.1	
249.07	5240.1	
249.28	3434.4	
249.49	4110.3	
249.7	6072.2	
249.91	6181.5	
250.12	3308.8	
250.34	3409.9	
250.55	5579.3	
250.76	5500.8	
250.97	4083.6	
251.18	4196.3	
251.39	6240.2	
251.6	5649.7	
251.81	4256.4	
252.03	4226.3	
252.24	5262.6	
252.45	6029.9	
252.66	3473.4	
252.87	4466.6	
253.08	5577.3	
253.29	7292.8	
253.5	3476.1	
253.72	4858.5	
253.93	5371.8	
254.14	6587.6	
254.35	3807.9	
254.56	3908.9	
254.77	5784.8	
254.98	5053.7	
255.19	3771.7	
255.41	4846.9	
255.62	5553.4	
255.83	6140.5	
256.04	4265.2	
256.25	4218.8	
256.46	6849.8	
256.67	5177.9	
256.88	4099.4	
257.09	4629.1	
257.31	5066.7	
257.52	5174.5	
257.73	5181.4	
257.94	3718.4	
258.15	5279.7	
258.36	5509	
258.57	4840.7	
258.78	2983.9	
258.99	6047.7	
259.2	5335	
259.41	3787.4	
259.63	3845.4	
259.84	6397.9	
260.05	6882.5	
260.26	4993.6	
260.47	3680.9	
260.68	6088.6	
260.89	5443.5	
261.1	4647.5	
261.31	3651.5	
261.52	6087.9	
261.73	6479.1	
261.95	4903.5	
262.16	4342.4	
262.37	6264.7	
262.58	6326.2	
262.79	4931.5	
263	3884.3	
263.21	5474.9	
263.42	5020.9	
263.63	3936.9	
263.84	3844.7	
264.05	6025.1	
264.26	6473.6	
264.47	4752.7	
264.69	4376.5	
264.9	6202.6	
265.11	5666.7	
265.32	3700.7	
265.53	3763.5	
265.74	5616.9	
265.95	4903.5	
266.16	4066.6	
266.37	4490.5	
266.58	5587.5	
266.79	5347.2	
267	3766.9	
267.21	3491.8	
267.42	5004.6	
267.63	5554.1	
267.84	3977.8	
268.06	3437.9	
268.27	5948	
268.48	6348	
268.69	3910.3	
268.9	4594.3	
269.11	6221.7	
269.32	4985.4	
269.53	3953.3	
269.74	3716.4	
269.95	5862.7	
270.16	4861.9	
270.37	3976.5	
270.58	4618.9	
270.79	5374.6	
271	6039.5	
271.21	4250.9	
271.42	3992.9	
271.63	5608.7	
271.84	5152	
272.05	3173.7	
272.26	3618.1	
272.47	5547.9	
272.68	5729.5	
272.89	3872	
273.11	4459.1	
273.32	5298.1	
273.53	6474.3	
273.74	4364.2	
273.95	4241.3	
274.16	6165.1	
274.37	5532.2	
274.58	4377.2	
274.79	3446	
275	5625.1	
275.21	6189.6	
275.42	5266.7	
275.63	4562.2	
275.84	5770.5	
276.05	7331.7	
276.26	4206.5	
276.47	3953.3	
276.68	5338.4	
276.89	6617	
277.1	4494.6	
277.31	3551.9	
277.52	5756.2	
277.73	5966.4	
277.94	3436.5	
278.15	3923.2	
278.36	5728.2	
278.57	5128.8	
278.78	3822.9	
278.99	4307.6	
279.2	5107.6	
279.41	5036	
279.62	5045.5	
279.83	3536.8	
280.04	6769.2	
280.25	5001.8	
280.46	5033.2	
280.67	3977.8	
280.88	5072.8	
281.09	6223.8	
281.3	4182	
281.51	5324.7	
281.72	5226.4	
281.93	6060.6	
282.14	3702	
282.35	4032.5	
282.56	5985.5	
282.77	6004.6	
282.98	3870	
283.19	4691.2	
283.4	7404.8	
283.61	5438.7	
283.82	3460.4	
284.03	4968.4	
284.24	5599.8	
284.45	6186.9	
284.66	4936.3	
284.87	4762.9	
285.08	6105	
285.29	6292.7	
285.5	3368.2	
285.71	3903.4	
285.92	6176	
286.12	6853.9	
286.33	4902.2	
286.54	3856.3	
286.75	6015.6	
286.96	5403.2	
287.17	3577.8	
287.38	4861.9	
287.59	5111.7	
287.8	5010.7	
288.01	3920.5	
288.22	4514.4	
288.43	6090	
288.64	4978.6	
288.85	4657.8	
289.06	4417.5	
289.27	5952.8	
289.48	6517.3	
289.69	4988.9	
289.9	4500.8	
290.11	6255.2	
290.32	5187.5	
290.53	4706.9	
290.74	4297.3	
290.94	5937.7	
291.15	6001.9	
291.36	3752.6	
291.57	4501.4	
291.78	5270.8	
291.99	4911.7	
292.2	3579.8	
292.41	4341	
292.62	6110.5	
292.83	5870.2	
293.04	5344.5	
293.25	3647.4	
293.46	5327.4	
293.67	6118	
293.88	3775.1	
294.09	3574.4	
294.29	5042.8	
294.5	5663.3	
294.71	4020.8	
294.92	3777.8	
295.13	5300.8	
295.34	6663.4	
295.55	3297.9	
295.76	3642.7	
295.97	5954.1	
296.18	6754.9	
296.39	3489.7	
296.6	3738.9	
296.81	5657.9	
297.01	5969.8	
297.22	3942.3	
297.43	3684.3	
297.64	5124	
297.85	5113.8	
298.06	3084.2	
298.27	3388.7	
298.48	5565.7	
298.69	5210.7	
298.9	3976.5	
299.11	3637.9	
299.31	5004.6	
299.52	4983.4	
299.73	4349.9	
299.94	4314.4	
300.15	5514.5	
300.36	5115.1	
300.57	4282.3	
300.78	4227	
300.99	5377.3	
301.2	5608.7	
301.4	3682.2	
301.61	4076.8	
301.82	5864.7	
302.03	5941.2	
302.24	4532.8	
302.45	3517	
302.66	5863.3	
302.87	6305.7	
303.08	3743	
303.29	5142.4	
303.49	5269.4	
303.7	5535.7	
303.91	3307.5	
304.12	4851	
304.33	5032.5	
304.54	5578	
304.75	3760.1	
304.96	3544.4	
305.16	5904.3	
305.37	6622.4	
305.58	3284.3	
305.79	3396.2	
306	5831.9	
306.21	4915.1	
306.42	3765.5	
306.63	5748.6	
306.83	5367.7	
307.04	6133	
307.25	4155.3	
307.46	4113	
307.67	4706.2	
307.88	5990.3	
308.09	3669.3	
308.29	3890.5	
308.5	5586.2	
308.71	6131.6	
308.92	3959.4	
309.13	3632.4	
309.34	5386.8	
309.55	5433.3	
309.75	4676.2	
309.96	4273.4	
310.17	5978.7	
310.38	5250.3	
310.59	4513	
310.8	4244.8	
311.01	5746.6	
311.21	5383.4	
311.42	3557.3	
311.63	3630.4	
311.84	5227.1	
312.05	5672.9	
312.26	4212	
312.46	4559.5	
312.67	5360.2	
312.88	5028.4	
313.09	3604.4	
313.3	3523.2	
313.51	6322.1	
313.71	6716.7	
313.92	3553.9	
314.13	3827.7	
314.34	5769.1	
314.55	5420.3	
314.76	4675.5	
314.96	4044.7	
315.17	5555.5	
315.38	5962.3	
315.59	3618.1	
315.8	3420.1	
316.01	6433.4	
316.21	6455.2	
316.42	3506.8	
316.63	4018.8	
316.84	5387.5	
317.05	6282.5	
317.26	4255.7	
317.46	3848.8	
317.67	5383.4	
317.88	5913.2	
318.09	4600.4	
318.3	3336.8	
318.5	5270.1	
318.71	5851	
318.92	5956.9	
319.13	4326	
319.34	6080.4	
319.54	6246.3	
319.75	3340.2	
319.96	3198.9	
320.17	5916.6	
320.38	6091.3	
320.58	3288.4	
320.79	3926	
321	6149.4	
321.21	6197.8	
321.42	3981.3	
321.62	3271.3	
321.83	5094	
322.04	5535.7	
322.25	3824.9	
322.46	3606.5	
322.66	5636.7	
322.87	5748.6	
323.08	4444.1	
323.29	3538.2	
323.5	6620.4	
323.7	5055.8	
323.91	4965.6	
324.12	4438.6	
324.33	5556.8	
324.53	5797.8	
324.74	4280.3	
324.95	4571.7	
325.16	4870.1	
325.37	5350	
325.57	3672	
325.78	3692.5	
325.99	5543.2	
326.2	5061.2	
326.4	5340.4	
326.61	3341.6	
326.82	5457.8	
327.03	5637.4	
327.24	5156.1	
327.44	4911	
327.65	5813.5	
327.86	4662.5	
328.07	4280.9	
328.27	3476.1	
328.48	6213.5	
328.69	5057.1	
328.9	5304.2	
329.1	3852.9	
329.31	5375.9	
329.52	6381.5	
329.73	3615.3	
329.93	4072.7	
330.14	5517.2	
330.35	5776	
330.56	6058.6	
330.76	4455	
330.97	5350	
331.18	5757.5	
331.39	4061.8	
331.59	3252.9	
331.8	6113.2	
332.01	6268.1	
332.22	3762.1	
332.42	4325.3	
332.63	5650.3	
332.84	5169.1	
333.05	4113.7	
333.25	3654.9	
333.46	5333.6	
333.67	5517.9	
333.88	3776.5	
334.08	4246.1	
334.29	7393.2	
334.5	6264.1	
334.7	3435.1	
334.91	5209.3	
335.12	5081.7	
335.33	5982.8	
335.53	4044.7	
335.74	5982.1	
335.95	5341.1	
336.16	5111.7	
336.36	4004.5	
336.57	4709	
336.78	5089.2	
336.98	6124.8	
337.19	4998.4	
337.4	3966.9	
337.61	6698.9	
337.81	5073.5	
338.02	3645.4	
338.23	4797.7	
338.43	6284.5	
338.64	5177.3	
338.85	3687	
339.05	4735.6	
339.26	6395.8	
339.47	4911	
339.68	3586.7	
339.88	5405.3	
340.09	5737	
340.3	6011.5	
340.5	4286.4	
340.71	3261	
340.92	4955.4	
341.13	6286.6	
341.33	3478.8	
341.54	4333.5	
341.75	5788.9	
341.95	5414.1	
342.16	4098.7	
342.37	4420.2	
342.57	5109.7	
342.78	5487.9	
342.99	4504.8	
343.19	3212.6	
343.4	5969.8	
343.61	5814.9	
343.81	3884.3	
344.02	3543	
344.23	5935	
344.43	6382.8	
344.64	4564.9	
344.85	4408.6	
345.06	5803.9	
345.26	6156.2	
345.47	4197.7	
345.68	4938.3	
345.88	4878.3	
346.09	6057.2	
346.3	4334.9	
346.5	3220.1	
346.71	5504.3	
346.92	5223	
347.12	3340.2	
347.33	4149.2	
347.54	6113.9	
347.74	6498.2	
347.95	4141	
348.16	3056.9	
348.36	5316.5	
348.57	5050.3	
348.78	4121.9	
348.98	4439.3	
349.19	5439.4	
349.39	4940.4	
349.6	3286.3	
349.81	3682.9	
350.01	5728.2	
350.22	5233.2	
350.43	3994.9	
350.63	4928.1	
350.84	5544.5	
351.05	5298.1	
351.25	3691.8	
351.46	3292.5	
351.67	6145.3	
351.87	5158.2	
352.08	3923.2	
352.29	4452.3	
352.49	5935.7	
352.7	5678.3	
352.9	3553.9	
353.11	4386.1	
353.32	6675.7	
353.52	5321.3	
353.73	3500	
353.94	4494.6	
354.14	5829.9	
354.35	5664	
354.55	3573	
354.76	4021.5	
354.97	5795.1	
355.17	5569.8	
355.38	3338.9	
355.59	4760.8	
355.79	5170.4	
356	5625.8	
356.2	3956	
356.41	3452.9	
356.62	4919.9	
356.82	5394.3	
357.03	4298.7	
357.24	3855	
357.44	5194.3	
357.65	5310.4	
357.85	5144.5	
358.06	4043.4	
358.27	4894.6	
358.47	5163.6	
358.68	3320.4	
358.88	4252.3	
359.09	5711.8	
359.3	6126.2	
359.5	5025	
359.71	4468	
359.91	6599.2	
360.12	5868.8	
360.33	4245.4	
360.53	4733.5	
360.74	5117.2	
360.94	5248.9	
361.15	4444.8	
361.36	3615.3	
361.56	5971.2	
361.77	5416.2	
361.97	4904.9	
362.18	3839.3	
362.38	5972.6	
362.59	5002.5	
362.8	3528.7	
363	3401.7	
363.21	4836.6	
363.41	5489.9	
363.62	4040	
363.83	5197.1	
364.03	5547.3	
364.24	6590.4	
364.44	5193.6	
364.65	5085.1	
364.85	5362.3	
365.06	4941.7	
365.27	3670	
365.47	3751.9	
365.68	6285.2	
365.88	5291.3	
366.09	4153.3	
366.29	3807.2	
366.5	5532.9	
366.71	6079.1	
366.91	5129.5	
367.12	4280.3	
367.32	6611.5	
367.53	5867.4	
367.73	4249.5	
367.94	5218.9	
368.14	5806	
368.35	6793.8	
368.56	4219.5	
368.76	3523.2	
368.97	5892	
369.17	7716.7	
369.38	3678.2	
369.58	3997.6	
369.79	4932.2	
369.99	6259.3	
370.2	5016.2	
370.4	4102.8	
370.61	5632.6	
370.82	6835.4	
371.02	3899.3	
371.23	3308.2	
371.43	4810	
371.64	6160.3	
371.84	3941	
372.05	5242.8	
372.25	7625.3	
372.46	5981.4	
372.66	3961.5	
372.87	3889.8	
373.07	5940.5	
373.28	7615.7	
373.48	4969.7	
373.69	4670.1	
373.9	5386.8	
374.1	5384.1	
374.31	4947.9	
374.51	4403.8	
374.72	6245.6	
374.92	5064.6	
375.13	5012.7	
375.33	4298	
375.54	5791	
375.74	5201.2	
375.95	4330.1	
376.15	5606	
376.36	5758.9	
376.56	5604.6	
376.77	4296.6	
376.97	4818.9	
377.18	6851.1	
377.38	5872.2	
377.59	5205.3	
377.79	3835.8	
378	5657.2	
378.2	6052.4	
378.41	3906.2	
378.61	3780.6	
378.82	6139.1	
379.02	5156.8	
379.23	3999.7	
379.43	5246.9	
379.64	6195.1	
379.84	5743.9	
380.05	3852.9	
380.25	3825.6	
380.46	5905	
380.66	5484.5	
380.87	5232.6	
381.07	5631.2	
381.28	6593.1	
381.48	5952.1	
381.69	3887.7	
381.89	3928	
382.1	4848.2	
382.3	6146	
382.51	5082.4	
382.71	5999.9	
382.91	5957.5	
383.12	6472.3	
383.32	4297.3	
383.53	4494.6	
383.73	5781.4	
383.94	5610.1	
384.14	4394.9	
384.35	3590.8	
384.55	5581.4	
384.76	5995.8	
384.96	4331.5	
385.17	4604.5	
385.37	5942.5	
385.58	5220.3	
385.78	4706.2	
385.98	3515	
386.19	5437.4	
386.39	5861.3	
386.6	4001.7	
386.8	4323.3	
387.01	5928.2	
387.21	5926.1	
387.42	4741	
387.62	5387.5	
387.83	5234.6	
388.03	5883.1	
388.23	4358.8	
388.44	5159.5	
388.64	4865.3	
388.85	4986.1	
389.05	4750.6	
389.26	5358.9	
389.46	6959	
389.67	6333.7	
389.87	4623.6	
390.07	4681	
390.28	5482.4	
390.48	5086.5	
390.69	3802.4	
390.89	4215.4	
391.1	5289.2	
391.3	6272.2	
391.5	5410.1	
391.71	6095.4	
391.91	5924.8	
392.12	6999.3	
392.32	5529.5	
392.53	4648.2	
392.73	5362.9	
392.93	5590.3	
393.14	4311.7	
393.34	5158.2	
393.55	6062	
393.75	5606	
393.95	4403.8	
394.16	4305.5	
394.36	5322	
394.57	5997.1	
394.77	3839.3	
394.98	4250.9	
395.18	5231.9	
395.38	5490.6	
395.59	5132.9	
395.79	4018.8	
396	5324.7	
396.2	5896.8	
396.4	4896	
396.61	4767.7	
396.81	6130.9	
397.02	5276.9	
397.22	5134.9	
397.42	5214.1	
397.63	6053.8	
397.83	5240.1	
398.04	3999.7	
398.24	4533.5	
398.44	5839.4	
398.65	4866.7	
398.85	3835.2	
399.05	3921.9	
399.26	5148.6	
399.46	7006.8	
399.67	4315.1	
399.87	4033.8	
400.07	5520	
400.28	5892.7	
400.48	4114.4	
400.69	5245.5	
400.89	6157.6	
401.09	6580.8	
401.3	3960.8	
401.5	5205.9	
401.7	6856.6	
401.91	7073.7	
402.11	4270.7	
402.32	4612.7	
402.52	6164.4	
402.72	6111.1	
402.93	4813.4	
403.13	3635.8	
403.33	7000.6	
403.54	5661.3	
403.74	4513	
403.94	5470.8	
404.15	5755.5	
404.35	6924.9	
404.56	4324.6	
404.76	6257.2	
404.96	6154.8	
405.17	5932.3	
405.37	5724.1	
405.57	4732.2	
405.78	6330.3	
405.98	5685.8	
406.18	4329.4	
406.39	5276.9	
406.59	6168.5	
406.79	5844.2	
407	4097.3	
407.2	4201.1	
407.4	6177.4	
407.61	6391	
407.81	4144.4	
408.01	6486.6	
408.22	5114.5	
408.42	7150.1	
408.62	5248.9	
408.83	4694.6	
409.03	5620.3	
409.23	5464.7	
409.44	4791.6	
409.64	5074.9	
409.84	6591	
410.05	6488	
410.25	4861.9	
410.45	4650.3	
410.66	5905.7	
410.86	8515.5	
411.06	4896.7	
411.27	4874.2	
411.47	8234.2	
411.67	6037.4	
411.88	5113.1	
412.08	5360.9	
412.28	6808.8	
412.49	7263.5	
412.69	4840	
412.89	4861.9	
413.09	7063.4	
413.3	6875.7	
413.5	4896	
413.7	4500.1	
413.91	6060.6	
414.11	7015.7	
414.31	4761.5	
414.52	5241.4	
414.72	6715.3	
414.92	6544.6	
415.12	4788.8	
415.33	5315.2	
415.53	6928.3	
415.73	7174.7	
415.94	5724.8	
416.14	5058.5	
416.34	5948.7	
416.55	5734.3	
416.75	6304.3	
416.95	5685.2	
417.15	6954.9	
417.36	7722.9	
417.56	6532.3	
417.76	5513.8	
417.97	7381.6	
418.17	6960.4	
418.37	5055.1	
418.57	5149.3	
418.78	6745.3	
418.98	6406.7	
419.18	6067.4	
419.38	6001.2	
419.59	6486.6	
419.79	6156.9	
419.99	5008	
420.2	5393.7	
420.4	6965.8	
420.6	7161.7	
420.8	4905.6	
421.01	4767.7	
421.21	6812.9	
421.41	6987.7	
421.61	5287.9	
421.82	4993.6	
422.02	6252.4	
422.22	7270.3	
422.42	5821.7	
422.63	5545.2	
422.83	6442.9	
423.03	7696.9	
423.23	5487.9	
423.44	4486.4	
423.64	6550.1	
423.84	6270.9	
424.04	4986.8	
424.25	4626.4	
424.45	7555	
424.65	7436.2	
424.85	4382	
425.06	5036	
425.26	7408.9	
425.46	5943.2	
425.66	5542.5	
425.87	5190.9	
426.07	7204.1	
426.27	7052.5	
426.47	5361.6	
426.67	4709.6	
426.88	7503.8	
427.08	6969.2	
427.28	5647.6	
427.48	4648.2	
427.69	5886.5	
427.89	6524.8	
428.09	5595.1	
428.29	4717.2	
428.5	7258.7	
428.7	6794.5	
428.9	4557.4	
429.1	5166.3	
429.3	6632	
429.51	7090.8	
429.71	4930.1	
429.91	5755.5	
430.11	6880.5	
430.31	7174.7	
430.52	5206.6	
430.72	5571.8	
430.92	7595.9	
431.12	6966.5	
431.32	4848.2	
431.53	5264	
431.73	5851.7	
431.93	7668.3	
432.13	4790.2	
432.33	4661.9	
432.54	6402	
432.74	6736.5	
432.94	4589.5	
433.14	5705	
433.34	6837.5	
433.55	6397.2	
433.75	5682.4	
433.95	7404.8	
434.15	6691.4	
434.35	6367.1	
434.56	4827.1	
434.76	4226.3	
434.96	6614.9	
435.16	6896.2	
435.36	4639.3	
435.56	5778.7	
435.77	6255.9	
435.97	6464.1	
436.17	6498.2	
436.37	5715.2	
436.57	6278.4	
436.78	6084.5	
436.98	5679	
437.18	6337.1	
437.38	6914.6	
437.58	6472.3	
437.78	6464.8	
437.99	5123.3	
438.19	7014.3	
438.39	7900.4	
438.59	5041.4	
438.79	4506.9	
438.99	7684.7	
439.2	6439.5	
439.4	4669.4	
439.6	4582.7	
439.8	6858.6	
440	7925	
440.2	5666.7	
440.4	5745.2	
440.61	7134.4	
440.81	7632.8	
441.01	4742.4	
441.21	5673.6	
441.41	7591.1	
441.61	7150.1	
441.81	6011.5	
442.02	7130.3	
442.22	8078.6	
442.42	7260	
442.62	4842.8	
442.82	4906.9	
443.02	7644.4	
443.22	6621.8	
443.43	5337	
443.63	4907.6	
443.83	6402.6	
444.03	6519.4	
444.23	6120.7	
444.43	5795.8	
444.63	6745.3	
444.83	8078.6	
445.04	5001.1	
445.24	6365.8	
445.44	7163.1	
445.64	7288.7	
445.84	5806	
446.04	5796.4	
446.24	6489.3	
446.44	7714	
446.65	5061.2	
446.85	5440.8	
447.05	6894.8	
447.25	7542.7	
447.45	5464.7	
447.65	4834.6	
447.85	6902.3	
448.05	6574	
448.25	5881.1	
448.46	5705.6	
448.66	6860	
448.86	6595.8	
449.06	4631.8	
449.26	5942.5	
449.46	7242.3	
449.66	6325.5	
449.86	5393	
450.06	5395	
450.26	6429.9	
450.47	7081.9	
450.67	5775.3	
450.87	5933.6	
451.07	7068.2	
451.27	6959.7	
451.47	4996.4	
451.67	5548.6	
451.87	6622.4	
452.07	7776.1	
452.27	5163.6	
452.47	5199.8	
452.67	6960.4	
452.88	7476.5	
453.08	4554.7	
453.28	6582.9	
453.48	8086.1	
453.68	6819.7	
453.88	5038	
454.08	5313.8	
454.28	7197.2	
454.48	6797.9	
454.68	5872.2	
454.88	6490	
455.08	7325.6	
455.28	6982.2	
455.48	4932.9	
455.68	5522	
455.89	7764.5	
456.09	7482.6	
456.29	5274.9	
456.49	5312.4	
456.69	7673.7	
456.89	6893.5	
457.09	5885.2	
457.29	6180.8	
457.49	7187.7	
457.69	7393.2	
457.89	5677	
458.09	5083.7	
458.29	6971.3	
458.49	7725.6	
458.69	6023.8	
458.89	5421	
459.09	7929.1	
459.29	8125	
459.49	5549.3	
459.69	6376.7	
459.9	7563.8	
460.1	6980.2	
460.3	5496.1	
460.5	5233.2	
460.7	7475.1	
460.9	7170.6	
461.1	4834.6	
461.3	6248.4	
461.5	8082	
461.7	7717.4	
461.9	5246.9	
462.1	5761.6	
462.3	7070.3	
462.5	7730.4	
462.7	5297.4	
462.9	5488.6	
463.1	8833.6	
463.3	8453.3	
463.5	5650.3	
463.7	6512.5	
463.9	7322.2	
464.1	7745.4	
464.3	5780.1	
464.5	6027.9	
464.7	8019.8	
464.9	7575.4	
465.1	7419.8	
465.3	6361.7	
465.5	8414.4	
465.7	8299.7	
465.9	6621.8	
466.1	6494.8	
466.3	8072.4	
466.5	7903.8	
466.7	7370.6	
466.9	6195.1	
467.1	7834.2	
467.3	8860.9	
467.5	7213.6	
467.7	6043.6	
467.9	9118.2	
468.1	9985.9	
468.3	6866.8	
468.5	7420.5	
468.7	7791.2	
468.9	7787.7	
469.1	6479.1	
469.3	7107.1	
469.5	9936.7	
469.7	7359.7	
469.9	6865.5	
470.1	6098.2	
470.3	7774.8	
470.5	7813	
470.7	7477.1	
470.9	6161.7	
471.1	7571.3	
471.3	8129.8	
471.5	6023.1	
471.69	8067.6	
471.89	7476.5	
472.09	6989	
472.29	6829.3	
472.49	7251.2	
472.69	7232.1	
472.89	8183	
473.09	5919.3	
473.29	6115.2	
473.49	7349.5	
473.69	7644.4	
473.89	7140.6	
474.09	6258.6	
474.29	8897.7	
474.49	8551.6	
474.69	7073.7	
474.89	6407.4	
475.09	7569.3	
475.29	7570.7	
475.49	5833.3	
475.69	6016.9	
475.88	9314.2	
476.08	7923.6	
476.28	5763.7	
476.48	6213.5	
476.68	8404.9	
476.88	8234.9	
477.08	5988.9	
477.28	6429.3	
477.48	7694.9	
477.68	8441.7	
477.88	5870.8	
478.08	6192.4	
478.28	8738.7	
478.48	7843	
478.67	6240.8	
478.87	5696.1	
479.07	8578.3	
479.27	7956.4	
479.47	6545.3	
479.67	6539.2	
479.87	8356.4	
480.07	8886.8	
480.27	5847	
480.47	7501.7	
480.67	8011.7	
480.87	8598.7	
481.06	6089.3	
481.26	7010.9	
481.46	7957	
481.66	7813.7	
481.86	6565.1	
482.06	7653.9	
482.26	7689.4	
482.46	8654.7	
482.66	6516.6	
482.86	6099.5	
483.05	8012.3	
483.25	7418.4	
483.45	9185.1	
483.65	6461.3	
483.85	7529	
484.05	7885.4	
484.25	6976.1	
484.45	7415	
484.65	8842.4	
484.84	8858.8	
485.04	6339.1	
485.24	6404.7	
485.44	9036.3	
485.64	7303.7	
485.84	5665.4	
486.04	7174	
486.24	7761.8	
486.44	8116.1	
486.63	5623.7	
486.83	6432.7	
487.03	7582.3	
487.23	7876.5	
487.43	5831.9	
487.63	8227.4	
487.83	7854	
488.02	8941.4	
488.22	6761	
488.42	7411.6	
488.62	8877.9	
488.82	7729.7	
489.02	6414.2	
489.22	6466.1	
489.41	8646.5	
489.61	8303.1	
489.81	6104.3	
490.01	6169.2	
490.21	8617.9	
490.41	9256.1	
490.61	6077	
490.8	6169.8	
491	8132.5	
491.2	7372.7	
491.4	6892.1	
491.6	6009.4	
491.8	8071.7	
491.99	8299.1	
492.19	5823.1	
492.39	6235.4	
492.59	8643.8	
492.79	8675.9	
492.99	7086	
493.18	6078.4	
493.38	8621.3	
493.58	9454.1	
493.78	6891.4	
493.98	6537.8	
494.18	8368.7	
494.37	7772	
494.57	7131	
494.77	7024.5	
494.97	8550.3	
495.17	8938.7	
495.37	6560.3	
495.56	6861.4	
495.76	9086.2	
495.96	8649.3	
496.16	7760.4	
496.36	6665.5	
496.55	8867	
496.75	8417.2	
496.95	7075	
497.15	6935.8	
497.35	8774.2	
497.54	8779	
497.74	6685.9	
497.94	8581	
498.14	9551.7	
498.34	9327.1	
498.53	6472.9	
498.73	7274.4	
498.93	8075.8	
499.13	8787.8	
499.33	7011.6	
499.52	7468.9	
499.72	8774.9	
499.92	9157.8	
500.12	6640.9	
500.32	7037.5	
500.51	9155.8	
500.71	8740.7	
500.91	7859.4	
501.11	7339.9	
501.31	8910	
501.5	9396.8	
501.7	8034.2	
501.9	6974	
502.1	8753	
502.29	9112.1	
502.49	7473	
502.69	7976.2	
502.89	9045.2	
503.09	8987.9	
503.28	6539.2	
503.48	6584.2	
503.68	8075.8	
503.88	8215.8	
504.07	7671.7	
504.27	7041.6	
504.47	8659.5	
504.67	8788.5	
504.86	7579.5	
505.06	7334.5	
505.26	8273.8	
505.46	10240	
505.65	7101.7	
505.85	7313.3	
506.05	8185.7	
506.25	8798.8	
506.44	6516	
506.64	7540.6	
506.84	8202.1	
507.04	9228.8	
507.23	6662	
507.43	7279.8	
507.63	10340	
507.83	8553	
508.02	7294.2	
508.22	6937.8	
508.42	10547	
508.62	8217.8	
508.81	7176.8	
509.01	7828	
509.21	8048.5	
509.4	8330.5	
509.6	7370.6	
509.8	6722.1	
510	8327	
510.19	9949.7	
510.39	6755.6	
510.59	6834.1	
510.79	8153.6	
510.98	9613.2	
511.18	6784.2	
511.38	6963.8	
511.57	8996.7	
511.77	8933.2	
511.97	7714	
512.17	6537.1	
512.36	9123	
512.56	9024.7	
512.76	6674.3	
512.95	6402	
513.15	9116.9	
513.35	7718.8	
513.55	7638.9	
513.74	6761	
513.94	9174.9	
514.14	8357.8	
514.33	7735.2	
514.53	7471.7	
514.73	8347.5	
514.92	8621.3	
515.12	6922.1	
515.32	6740.5	
515.51	8640.4	
515.71	9301.2	
515.91	8478.6	
516.11	6856.6	
516.3	10448	
516.5	8282	
516.7	7446.4	
516.89	8058.8	
517.09	8443.1	
517.29	8314.8	
517.48	7705.8	
517.68	7121.5	
517.88	8137.9	
518.07	8784.4	
518.27	7599.3	
518.47	6591	
518.66	9385.2	
518.86	7870.3	
519.06	6453.8	
519.25	6995.2	
519.45	8344.1	
519.65	9937.4	
519.84	7626.6	
520.04	8370.7	
520.24	10283	
520.43	9013.1	
520.63	7314	
520.83	7010.9	
521.02	8145.5	
521.22	8914.8	
521.42	7636.9	
521.61	8240.3	
521.81	8407.6	
522.01	8707.3	
522.2	7329.7	
522.4	7177.4	
522.6	9121	
522.79	7820.5	
522.99	7370.6	
523.18	6606.1	
523.38	8867.7	
523.58	8905.3	
523.77	8725	
523.97	6499.6	
524.17	10863	
524.36	9783.8	
524.56	8084	
524.76	7664.9	
524.95	8842.4	
525.15	8512.7	
525.34	7430	
525.54	7375.4	
525.74	9194	
525.93	8155	
526.13	8693.6	
526.33	7352.2	
526.52	9590.6	
526.72	8960.5	
526.91	8612.4	
527.11	7864.2	
527.31	9676.7	
527.5	10036	
527.7	7800.7	
527.89	6771.3	
528.09	8478.6	
528.29	9059.5	
528.48	8181	
528.68	7850.5	
528.87	9469.8	
529.07	9602.2	
529.27	7759.1	
529.46	7224.6	
529.66	9071.8	
529.85	9519.6	
530.05	7106.5	
530.25	7918.8	
530.44	10617	
530.64	9029.5	
530.83	7504.4	
531.03	7736.5	
531.23	9560.6	
531.42	9358.5	
531.62	8568.7	
531.81	7621.2	
532.01	9626.8	
532.21	10198	
532.4	7468.3	
532.6	7934.5	
532.79	10734	
532.99	9708.7	
533.18	7877.2	
533.38	8946.9	
533.58	9283.4	
533.77	10069	
533.97	7775.5	
534.16	8721.6	
534.36	10299	
534.55	9211.8	
534.75	8871.8	
534.95	7937.9	
535.14	10188	
535.34	9232.9	
535.53	7582.9	
535.73	9648	
535.92	10709	
536.12	9482.1	
536.31	7641.7	
536.51	8944.2	
536.71	9726.5	
536.9	9355.1	
537.1	7872.4	
537.29	7968.6	
537.49	10146	
537.68	9272.5	
537.88	8338.6	
538.07	7503.8	
538.27	9458.9	
538.46	10581	
538.66	7395.2	
538.86	7814.4	
539.05	9559.2	
539.25	9983.8	
539.44	8280.6	
539.64	7831.4	
539.83	9363.3	
540.03	10567	
540.22	7658.7	
540.42	7844.4	
540.61	9656.2	
540.81	9708.7	
541	8335.2	
541.2	8985.8	
541.39	9177.6	
541.59	9591.3	
541.78	8628.1	
541.98	7675.1	
542.18	8801.5	
542.37	8839.7	
542.57	8032.8	
542.76	8603.5	
542.96	8875.2	
543.15	9786.6	
543.35	8084.7	
543.54	7445.7	
543.74	9953.8	
543.93	9497.8	
544.13	8082.6	
544.32	9272.5	
544.52	9788.6	
544.71	9046.6	
544.91	7193.8	
545.1	8453.3	
545.3	9057.5	
545.49	9780.4	
545.69	7152.2	
545.88	7686	
546.08	10748	
546.27	10285	
546.47	8379.6	
546.66	7533.8	
546.86	9998.9	
547.05	10751	
547.24	7844.4	
547.44	7602.1	
547.63	8818.6	
547.83	10080	
548.02	8051.9	
548.22	8217.1	
548.41	8738	
548.61	10191	
548.8	7536.5	
549	7508.5	
549.19	9402.9	
549.39	9651.4	
549.58	7242.3	
549.78	7901.7	
549.97	9815.2	
550.17	9296.4	
550.36	8769.4	
550.55	9968.1	
550.75	9237	
550.94	10234	
551.14	7461.4	
551.33	7910.6	
551.53	8613.1	
551.72	9681.4	
551.92	7987.8	
552.11	7609.6	
552.31	9645.3	
552.5	9751.7	
552.69	9558.6	
552.89	7354.3	
553.08	9733.3	
553.28	9311.4	
553.47	7772	
553.67	8894.3	
553.86	10316	
554.06	8533.9	
554.25	6793.8	
554.44	7505.1	
554.64	11170	
554.83	10524	
555.03	7503.8	
555.22	7858.7	
555.42	9775.6	
555.61	9509.4	
555.8	7675.1	
556	7987.8	
556.19	8630.1	
556.39	9980.4	
556.58	7724.3	
556.78	7667.6	
556.97	9444.5	
557.16	9129.2	
557.36	9020.6	
557.55	7314	
557.75	8350.3	
557.94	10290	
558.13	7552.9	
558.33	7171.3	
558.52	10028	
558.72	8979.7	
558.91	7308.5	
559.1	7627.3	
559.3	8549.6	
559.49	8312	
559.69	6804	
559.88	7871	
560.07	9405	
560.27	9880.8	
560.46	8118.8	
560.66	8322.3	
560.85	9111.4	
561.04	8335.2	
561.24	7210.2	
561.43	7550.2	
561.63	8660.2	
561.82	8891.6	
562.01	8791.2	
562.21	7942	
562.4	9372.9	
562.59	10430	
562.79	7728.4	
562.98	7425.9	
563.18	9296.4	
563.37	10840	
563.56	8257.4	
563.76	7250.5	
563.95	8744.8	
564.14	8639	
564.34	7668.3	
564.53	7350.2	
564.73	9243.2	
564.92	9690.3	
565.11	7868.3	
565.31	7212.3	
565.5	9899.2	
565.69	8826.1	
565.89	7396.6	
566.08	7621.9	
566.27	9807	
566.47	10220	
566.66	8333.2	
566.85	6930.3	
567.05	9267.7	
567.24	8721.6	
567.44	7423.9	
567.63	8772.1	
567.82	9657.5	
568.02	9314.2	
568.21	7367.9	
568.4	7723.6	
568.6	9144.2	
568.79	9228.8	
568.98	7182.9	
569.18	7334.5	
569.37	9155.8	
569.56	11231	
569.76	7675.8	
569.95	8647.9	
570.14	9622.7	
570.34	9543.5	
570.53	7114.6	
570.72	7268.2	
570.91	10137	
571.11	9094.3	
571.3	7699	
571.49	8722.3	
571.69	9093.7	
571.88	8761.9	
572.07	8310.7	
572.27	8271.7	
572.46	8689.5	
572.65	9728.5	
572.85	7459.4	
573.04	7901.7	
573.23	10033	
573.43	9291.6	
573.62	7228	
573.81	7947.5	
574	9258.2	
574.2	9163.3	
574.39	7522.2	
574.58	7756.3	
574.78	10236	
574.97	9432.9	
575.16	8156.4	
575.36	8348.9	
575.55	9852.8	
575.74	9993.4	
575.93	7208.8	
576.13	8389.2	
576.32	9157.2	
576.51	9759.3	
576.71	7694.9	
576.9	9164	
577.09	10155	
577.28	9604.3	
577.48	8172.8	
577.67	7163.8	
577.86	9287.5	
578.05	9568.1	
578.25	7808.2	
578.44	7907.2	
578.63	9361.3	
578.83	10662	
579.02	7179.5	
579.21	8910	
579.4	9513.5	
579.6	9199.5	
579.79	8093.6	
579.98	10301	
580.17	9913.5	
580.37	10079	
580.56	7404.1	
580.75	8255.4	
580.94	10434	
581.14	10232	
581.33	8796	
581.52	7569.3	
581.71	9851.4	
581.91	10497	
582.1	7248.4	
582.29	7918.1	
582.48	9499.8	
582.68	9349	
582.87	8338	
583.06	8016.4	
583.25	9751.1	
583.45	9527.8	
583.64	8638.3	
583.83	9416.6	
584.02	9189.2	
584.21	9766.1	
584.41	8718.2	
584.6	7980.9	
584.79	9388.6	
584.98	10198	
585.18	7365.9	
585.37	7387	
585.56	8901.2	
585.75	9750.4	
585.94	7589.8	
586.14	8316.1	
586.33	10462	
586.52	9356.5	
586.71	8213	
586.91	7856	
587.1	8756.4	
587.29	9886.9	
587.48	7786.4	
587.67	7650.5	
587.87	9667.8	
588.06	9777.7	
588.25	9113.5	
588.44	8301.8	
588.63	9338.7	
588.83	10027	
589.02	7787.7	
589.21	7581.6	
589.4	9095.7	
589.59	8922.3	
589.78	6890	
589.98	7122.2	
590.17	8626	
590.36	9189.2	
590.55	6468.9	
590.74	7534.5	
590.94	10535	
591.13	9090.3	
591.32	7126.2	
591.51	6671.6	
591.7	9443.9	
591.89	8912.8	
592.09	6800.6	
592.28	7249.8	
592.47	8187.8	
592.66	10158	
592.85	6730.3	
593.05	7006.1	
593.24	8819.2	
593.43	9600.2	
593.62	7120.8	
593.81	7591.1	
594	8817.2	
594.19	9131.2	
594.39	6943.3	
594.58	6946.7	
594.77	9133.9	
594.96	9791.3	
595.15	6844.3	
595.34	7574.8	
595.54	9246.6	
595.73	8315.4	
595.92	6256.5	
596.11	7443	
596.3	9798.8	
596.49	8384.4	
596.68	7161.7	
596.88	7696.3	
597.07	9510.8	
597.26	8234.9	
597.45	6686.6	
597.64	7957	
597.83	8487.5	
598.02	9212.4	
598.22	6754.9	
598.41	7501	
598.6	8972.8	
598.79	8286.8	
598.98	6853.2	
599.17	7814.4	
599.36	8929.8	
599.55	10189	
599.74	8995.4	
599.94	8674.5	
600.13	9516.2	
600.32	8253.3	
600.51	6621.1	
600.7	6815.6	
600.89	10138	
601.08	10247	
601.27	6530.3	
601.47	7589.1	
601.66	9439.1	
601.85	10183	
602.04	7374.1	
602.23	7589.1	
602.42	8492.2	
602.61	9065.7	
602.8	7221.1	
602.99	6974.7	
603.18	8759.8	
603.37	9090.3	
603.57	7696.3	
603.76	8214.4	
603.95	9875.3	
604.14	9349	
604.33	7021.1	
604.52	7388.4	
604.71	9048.6	
604.9	8621.3	
605.09	7942.7	
605.28	7771.4	
605.47	9658.9	
605.66	9334	
605.86	7590.5	
606.05	6987	
606.24	9712.8	
606.43	8147.5	
606.62	7330.4	
606.81	8164.6	
607	9488.9	
607.19	8742.1	
607.38	6742.6	
607.57	6995.9	
607.76	8527.1	
607.95	7978.9	
608.14	7609.6	
608.33	8051.9	
608.52	8553	
608.72	9423.4	
608.91	6655.2	
609.1	6628.6	
609.29	8694.3	
609.48	8165.3	
609.67	7732.4	
609.86	6696.2	
610.05	8232.2	
610.24	8652	
610.43	6540.5	
610.62	6178.7	
610.81	9797.5	
611	9466.4	
611.19	6667.5	
611.38	7389.8	
611.57	8882	
611.76	10341	
611.95	6430.6	
612.14	6281.1	
612.33	8656.8	
612.52	8188.5	
612.71	6989	
612.9	6164.4	
613.09	7782.3	
613.28	10276	
613.47	6713.2	
613.66	7793.2	
613.85	8741.4	
614.04	8321.6	
614.24	6800.6	
614.43	6057.2	
614.62	8955.1	
614.81	8946.9	
615	7415.7	
615.19	7518.1	
615.38	8247.9	
615.57	8553	
615.76	7294.9	
615.95	8220.5	
616.14	9014.5	
616.33	8570.7	
616.52	7666.2	
616.71	7954.3	
616.9	9057.5	
617.09	8796	
617.28	6886	
617.47	8235.6	
617.66	7983	
617.85	8029.4	
618.04	7838.9	
618.22	7247.8	
618.41	8370	
618.6	9369.5	
618.79	7217.7	
618.98	6838.2	
619.17	9628.2	
619.36	7929.7	
619.55	7032.7	
619.74	7159.7	
619.93	8826.7	
620.12	8379.6	
620.31	7691.5	
620.5	7889.5	
620.69	9490.3	
620.88	9863.7	
621.07	8594.6	
621.26	7542	
621.45	9037	
621.64	9103.9	
621.83	7662.1	
622.02	6870.9	
622.21	9157.2	
622.4	8894.3	
622.59	8304.5	
622.78	8009.6	
622.97	8440.4	
623.16	9539.4	
623.35	7608.2	
623.54	6713.2	
623.72	8723.7	
623.91	8856.8	
624.1	7953.6	
624.29	6519.4	
624.48	9994.8	
624.67	9164	
624.86	7853.3	
625.05	6769.2	
625.24	10118	
625.43	8389.8	
625.62	9645.3	
625.81	6958.3	
626	9482.1	
626.19	8766	
626.38	7825.3	
626.56	7247.1	
626.75	8605.6	
626.94	9286.9	
627.13	7776.1	
627.32	6492.7	
627.51	9236.3	
627.7	10569	
627.89	6641.6	
628.08	7838.3	
628.27	8447.9	
628.46	8594	
628.65	6935.8	
628.83	6630.6	
629.02	9122.3	
629.21	8458.1	
629.4	7368.6	
629.59	7610.9	
629.78	8417.2	
629.97	9372.9	
630.16	7568.6	
630.35	7151.5	
630.54	9874.6	
630.72	9540.8	
630.91	7054.6	
631.1	7749.5	
631.29	9054.1	
631.48	9178.3	
631.67	7797.3	
631.86	7213.6	
632.05	8525.7	
632.24	8623.3	
632.42	6836.1	
632.61	7544.7	
632.8	8704.5	
632.99	8338	
633.18	7443	
633.37	7879.2	
633.56	8910	
633.75	8826.1	
633.93	7511.3	
634.12	7066.2	
634.31	9880.8	
634.5	9503.3	
634.69	7178.8	
634.88	7766.6	
635.07	8714.1	
635.25	9357.2	
635.44	8147.5	
635.63	8385.7	
635.82	8566.7	
636.01	8069	
636.2	7936.6	
636.39	7514	
636.57	9793.4	
636.76	9530.6	
636.95	7032	
637.14	8370.7	
637.33	9075.2	
637.52	10127	
637.7	6705	
637.89	7733.8	
638.08	8587.8	
638.27	10215	
638.46	7854.6	
638.65	8249.2	
638.83	10225	
639.02	8426.7	
639.21	7711.3	
639.4	8204.2	
639.59	8989.2	
639.78	8443.8	
639.96	7048.4	
640.15	7025.2	
640.34	8793.3	
640.53	9013.1	
640.72	6645	
640.91	7075	
641.09	8229.4	
641.28	9596.8	
641.47	7008.8	
641.66	7937.2	
641.85	8901.8	
642.03	9192.6	
642.22	7740	
642.41	7090.1	
642.6	8399.4	
642.79	7663.5	
642.97	6843.6	
643.16	7651.2	
643.35	8307.9	
643.54	8084.7	
643.73	6720.8	
643.91	7630	
644.1	7910.6	
644.29	8596	
644.48	6857.3	
644.67	6930.3	
644.85	8172.8	
645.04	8475.9	
645.23	6442.2	
645.42	6793.1	
645.6	8054.7	
645.79	9256.1	
645.98	6782.9	
646.17	5760.3	
646.36	7673.7	
646.54	8301.1	
646.73	7606.8	
646.92	6303.6	
647.11	7854.6	
647.29	8968.1	
647.48	6350.1	
647.67	6111.8	
647.86	9308.7	
648.05	9238.4	
648.23	6711.9	
648.42	8139.3	
648.61	8638.3	
648.8	8324.3	
648.98	6349.4	
649.17	6694.8	
649.36	7913.4	
649.55	7355.6	
649.73	6486.6	
649.92	7176.8	
650.11	7777.5	
650.3	8161.8	
650.48	6553.5	
650.67	6348	
650.86	8404.2	
651.05	7345.4	
651.23	6561	
651.42	6499.6	
651.61	7875.8	
651.79	7997.3	
651.98	6720.1	
652.17	6315.9	
652.36	8282.7	
652.54	7385	
652.73	6358.9	
652.92	6087.9	
653.11	8368.7	
653.29	8436.3	
653.48	5508.4	
653.67	6728.3	
653.85	8105.9	
654.04	9321	
654.23	6894.1	
654.42	6407.4	
654.6	7649.8	
654.79	8335.9	
654.98	5853.1	
655.16	6382.8	
655.35	7179.5	
655.54	7154.9	
655.73	5898.8	
655.91	5844.2	
656.1	8346.8	
656.29	7111.2	
656.47	5401.9	
656.66	7277.8	
656.85	7344	
657.03	7352.2	
657.22	6014.2	
657.41	6083.8	
657.59	7524.9	
657.78	7359.7	
657.97	5709.1	
658.16	6452.5	
658.34	8172.1	
658.53	8563.2	
658.72	7373.4	
658.9	7923.6	
659.09	7653.3	
659.28	7687.4	
659.46	6126.2	
659.65	6087.9	
659.84	7440.3	
660.02	7881.3	
660.21	5986.9	
660.4	6002.6	
660.58	8393.9	
660.77	7740	
660.96	6597.9	
661.14	5620.3	
661.33	8994.7	
661.52	8859.5	
661.7	5499.5	
661.89	9426.8	
662.08	7389.8	
662.26	6993.8	
662.45	5788.2	
662.64	6014.2	
662.82	8083.3	
663.01	7273.7	
663.2	6016.9	
663.38	6798.6	
663.57	8034.9	
663.75	7843.7	
663.94	6281.8	
664.13	7667.6	
664.31	7272.3	
664.5	8034.2	
664.69	6659.3	
664.87	7165.8	
665.06	7116.7	
665.25	7891.5	
665.43	7411.6	
665.62	7476.5	
665.8	8180.3	
665.99	7419.1	
666.18	6186.9	
666.36	6419.7	
666.55	8135.2	
666.74	8049.9	
666.92	5946.6	
667.11	7600.7	
667.29	7477.1	
667.48	8172.8	
667.67	7217	
667.85	6309.8	
668.04	7559.1	
668.22	7529	
668.41	6391	
668.6	6550.8	
668.78	7342	
668.97	7498.3	
669.15	6707.1	
669.34	5628.5	
669.53	7282.6	
669.71	7632.8	
669.9	5849.7	
670.08	6580.1	
670.27	7297.6	
670.46	7920.2	
670.64	6717.3	
670.83	7010.9	
671.01	7223.9	
671.2	7819.8	
671.38	5967.8	
671.57	5897.5	
671.76	8466.3	
671.94	9176.3	
672.13	5736.4	
672.31	6967.9	
672.5	8090.8	
672.69	7322.9	
672.87	5961	
673.06	6247.7	
673.24	7883.3	
673.43	7297.6	
673.61	6748.1	
673.8	6229.9	
673.98	8046.5	
674.17	8272.4	
674.36	6901.7	
674.54	6706.4	
674.73	7829.4	
674.91	8030.8	
675.1	6401.3	
675.28	6031.3	
675.47	7568.6	
675.65	8131.1	
675.84	6163	
676.03	6548.7	
676.21	7390.4	
676.4	6826.6	
676.58	7116	
676.77	6906.4	
676.95	8829.5	
677.14	7305.1	
677.32	5847	
677.51	5717.2	
677.69	8093.6	
677.88	6901	
678.06	5793.7	
678.25	5876.3	
678.44	7587	
678.62	7245.7	
678.81	5584.8	
678.99	6666.1	
679.18	8404.2	
679.36	8053.3	
679.55	6158.2	
679.73	6773.3	
679.92	7972.7	
680.1	7335.1	
680.29	7444.4	
680.47	6276.3	
680.66	7194.5	
680.84	8170	
681.03	5497.4	
681.21	6703	
681.4	7386.3	
681.58	7208.2	
681.77	5982.1	
681.95	5898.8	
682.14	8129.1	
682.32	8591.2	
682.51	6885.3	
682.69	5692.7	
682.88	7233.4	
683.06	7936.6	
683.25	6561.7	
683.43	7081.2	
683.62	7491.5	
683.8	7971.4	
683.99	7239.6	
684.17	6417	
684.36	8853.4	
684.54	7424.6	
684.73	5532.9	
684.91	5788.9	
685.1	7694.2	
685.28	7141.3	
685.46	6348.7	
685.65	6402	
685.83	8001.4	
686.02	7365.9	
686.2	5853.1	
686.39	5968.5	
686.57	7251.9	
686.76	8751	
686.94	5751.4	
687.13	6025.8	
687.31	7808.9	
687.5	7361.8	
687.68	5373.2	
687.86	6761.7	
688.05	8954.4	
688.23	6881.2	
688.42	6802.7	
688.6	5952.8	
688.79	7288.7	
688.97	7197.2	
689.16	6455.9	
689.34	5191.6	
689.52	8071	
689.71	8245.1	
689.89	6640.9	
690.08	5891.3	
690.26	7532.4	
690.45	7405.5	
690.63	6824.5	
690.81	6125.5	
691	7197.9	
691.18	7115.3	
691.37	6187.6	
691.55	8515.5	
691.74	7102.4	
691.92	9211.8	
692.1	6306.4	
692.29	5588.2	
692.47	7434.8	
692.66	6634.7	
692.84	5805.3	
693.02	6421.1	
693.21	6777.4	
693.39	7322.2	
693.58	6530.3	
693.76	5929.6	
693.94	8635.6	
694.13	8355	
694.31	5922.7	
694.5	7086.7	
694.68	7109.9	
694.86	7526.3	
695.05	6305	
695.23	6404.7	
695.42	7935.9	
695.6	10430	
695.78	7019.8	
695.97	5993	
696.15	7990.5	
696.34	7366.5	
696.52	5715.9	
696.7	6643.6	
696.89	7722.2	
697.07	7111.2	
697.25	6593.1	
697.44	8290.2	
697.62	7574.1	
697.81	8110.6	
697.99	6267.5	
698.17	6858	
698.36	7021.1	
698.54	7704.5	
698.72	6556.2	
698.91	5530.9	
699.09	7216.4	
699.28	7136.5	
699.46	6239.5	
699.64	6064.7	
699.83	7027.3	
700.01	8385.1	
700.19	6951.5	
700.38	5357.5	
700.56	8374.8	
700.74	7206.8	
700.93	5668.1	
701.11	6573.3	
701.29	7785.7	
701.48	8890.9	
701.66	5899.5	
701.84	5998.5	
702.03	7331.7	
702.21	8047.8	
702.39	5513.1	
702.58	6191	
702.76	7708.6	
702.94	7873.8	
703.13	5535.7	
703.31	8067.6	
703.49	7025.2	
703.68	8010.3	
703.86	5741.1	
704.04	6768.5	
704.23	7488.1	
704.41	8011.7	
704.59	5889.3	
704.78	7205.4	
704.96	8746.9	
705.14	7989.8	
705.33	5668.1	
705.51	6560.3	
705.69	7377.5	
705.87	8242.4	
706.06	6868.2	
706.24	5639.4	
706.42	7644.4	
706.61	8077.2	
706.79	6907.8	
706.97	5653.1	
707.16	7122.2	
707.34	7744.7	
707.52	6928.3	
707.7	5995.8	
707.89	7337.2	
708.07	6993.8	
708.25	6826.6	
708.44	7048.4	
708.62	7198.6	
708.8	8436.9	
708.98	7139.9	
709.17	6034	
709.35	7719.5	
709.53	7697.6	
709.72	5748	
709.9	5959.6	
710.08	7932.5	
710.26	8021.9	
710.45	7503.8	
710.63	6059.9	
710.81	7538.6	
710.99	7620.5	
711.18	6750.8	
711.36	6150.7	
711.54	7448.5	
711.72	8080.6	
711.91	6259.3	
712.09	5627.1	
712.27	7496.2	
712.45	8288.1	
712.64	6565.1	
712.82	5413.5	
713	6997.2	
713.18	7121.5	
713.37	5586.2	
713.55	6900.3	
713.73	8102.4	
713.91	6553.5	
714.1	5980.1	
714.28	5435.3	
714.46	7731.8	
714.64	6778.1	
714.83	4851	
715.01	5643.5	
715.19	6893.5	
715.37	6201.2	
715.55	5284.4	
715.74	5684.5	
715.92	7832.1	
716.1	5733.6	
716.28	6856.6	
716.47	5849.7	
716.65	6447.7	
716.83	6576.7	
717.01	5610.1	
717.19	5707	
717.38	8745.5	
717.56	6180.8	
717.74	5912.5	
717.92	5003.2	
718.1	7451.9	
718.29	6738.5	
718.47	4645.5	
718.65	5375.9	
718.83	7420.5	
719.01	7317.4	
719.2	4527.4	
719.38	5708.4	
719.56	7081.2	
719.74	8806.9	
719.92	5240.1	
720.11	6429.9	
720.29	7120.1	
720.47	6148	
720.65	4762.9	
720.83	5678.3	
721.02	6520	
721.2	6305	
721.38	5740.5	
721.56	4945.8	
721.74	5739.1	
721.92	5913.2	
722.11	6290.7	
722.29	5879	
722.47	7288.7	
722.65	6441.5	
722.83	4967	
723.01	5955.5	
723.2	6524.1	
723.38	6787.7	
723.56	4399	
723.74	5652.4	
723.92	6032	
724.1	7260	
724.29	4870.1	
724.47	6184.2	
724.65	6010.8	
724.83	5990.3	
725.01	4751.3	
725.19	5741.1	
725.37	6042.9	
725.56	6137.8	
725.74	4646.8	
725.92	4946.5	
726.1	5977.3	
726.28	6318.7	
726.46	5378.6	
726.64	4988.2	
726.83	6275	
727.01	6479.1	
727.19	4617.5	
727.37	5487.2	
727.55	6344.6	
727.73	6904.4	
727.91	4594.3	
728.09	4377.9	
728.28	6958.3	
728.46	7621.2	
728.64	5560.2	
728.82	5601.2	
729	8090.8	
729.18	7355.6	
729.36	4752	
729.54	7271	
729.72	8414.4	
729.91	6662	
730.09	6850.5	
730.27	5461.9	
730.45	6451.1	
730.63	7232.7	
730.81	6119.3	
730.99	5136.3	
731.17	7700.4	
731.35	6240.2	
731.53	5741.8	
731.71	5285.1	
731.9	7465.5	
732.08	7585.7	
732.26	5530.9	
732.44	5233.2	
732.62	7697.6	
732.8	7183.6	
732.98	6001.2	
733.16	4921.3	
733.34	7096.9	
733.52	5838.1	
733.7	5537.7	
733.88	5872.2	
734.07	6945.3	
734.25	6695.5	
734.43	4876.2	
734.61	6716.7	
734.79	8322.3	
734.97	6531.7	
735.15	5128.8	
735.33	5473.5	
735.51	7019.8	
735.69	6653.9	
735.87	6657.9	
736.05	5726.8	
736.23	6828.6	
736.41	6587	
736.59	5415.5	
736.77	5608	
736.95	7248.4	
737.13	6697.5	
737.32	5140.4	
737.5	5378.6	
737.68	7843.7	
737.86	6524.1	
738.04	4934.2	
738.22	6930.3	
738.4	6246.3	
738.58	6681.8	
738.76	5624.4	
738.94	4500.1	
739.12	6495.5	
739.3	6296.8	
739.48	6305	
739.66	6003.3	
739.84	6767.2	
740.02	6787	
740.2	4603.2	
740.38	4973.8	
740.56	7199.3	
740.74	5961.6	
740.92	5663.3	
741.1	5599.8	
741.28	6561	
741.46	6422.4	
741.64	5159.5	
741.82	5765.7	
742	6635.4	
742.18	6629.3	
742.36	5403.9	
742.54	4928.8	
742.72	7229.3	
742.9	5811.5	
743.08	5834	
743.26	4597.7	
743.44	7436.9	
743.62	7193.1	
743.8	6012.2	
743.98	4985.4	
744.16	6886.6	
744.34	6617	
744.52	5929.6	
744.7	5877.7	
744.88	7075.7	
745.06	6532.3	
745.24	5934.3	
745.42	6072.9	
745.6	7177.4	
745.78	6872.3	
745.96	4642.1	
746.14	5031.2	
746.32	7948.8	
746.5	7160.4	
746.68	5611.4	
746.86	5021.6	
747.03	7660.8	
747.21	5823.1	
747.39	5587.5	
747.57	5066.7	
747.75	6747.4	
747.93	7182.9	
748.11	5061.2	
748.29	4962.9	
748.47	8497	
748.65	6417.7	
748.83	5811.5	
749.01	5507	
749.19	7008.1	
749.37	6076.3	
749.55	5346.6	
749.73	5416.2	
749.91	6539.2	
750.09	6266.8	
750.26	5467.4	
750.44	4834.6	
750.62	6606.7	
750.8	6622.4	
750.98	4674.8	
751.16	5091.9	
751.34	6664.8	
751.52	5963.7	
751.7	5911.1	
751.88	4675.5	
752.06	7142.6	
752.24	6922.1	
752.42	4659.8	
752.59	4932.9	
752.77	6501.6	
752.95	7884.7	
753.13	5867.4	
753.31	5143.1	
753.49	6180.8	
753.67	6717.3	
753.85	5447.6	
754.03	4977.9	
754.21	7010.2	
754.38	7361.1	
754.56	5160.2	
754.74	4078.9	
754.92	6150.7	
755.1	6962.4	
755.28	4158.7	
755.46	4208.6	
755.64	7610.3	
755.82	7838.9	
755.99	4497.3	
756.17	4574.5	
756.35	5098.1	
756.53	6789.7	
756.71	3452.9	
756.89	4406.5	
757.07	6311.2	
757.25	5414.8	
757.42	4962.2	
757.6	5922	
757.78	6430.6	
757.96	5321.3	
758.14	4665.3	
758.32	4106.9	
758.5	4891.2	
758.67	5727.5	
758.85	4493.2	
759.03	4589.5	
759.21	5971.9	
759.39	5375.2	
759.57	3919.1	
759.75	5216.2	
759.92	6614.9	
760.1	5909.8	
760.28	5552.7	
760.46	5897.5	
760.64	5620.3	
760.82	5386.2	
760.99	5529.5	
761.17	4616.8	
761.35	6438.8	
761.53	5410.1	
761.71	4687.8	
761.89	5475.6	
762.06	6402.6	
762.24	5793	
762.42	4823	
762.6	4576.5	
762.78	5818.3	
762.96	6559	
763.13	5179.3	
763.31	4888.5	
763.49	6755.6	
763.67	5798.5	
763.85	5795.1	
764.02	6379.4	
764.2	7042.3	
764.38	6141.2	
764.56	4736.3	
764.74	5752.7	
764.91	7108.5	
765.09	6009.4	
765.27	4392.2	
765.45	4233.8	
765.63	7166.5	
765.8	7045.7	
765.98	3874.1	
766.16	4257	
766.34	5504.3	
766.52	5344.5	
766.69	5283.1	
766.87	4116.4	
767.05	5930.2	
767.23	6704.4	
767.41	4471.4	
767.58	4728.1	
767.76	6533.7	
767.94	6625.2	
768.12	4503.5	
768.29	5335.6	
768.47	5997.1	
768.65	6785.6	
768.83	4062.5	
769	5382.1	
769.18	5508.4	
769.36	6363	
769.54	5360.2	
769.72	4142.4	
769.89	6604	
770.07	6694.8	
770.25	4504.8	
770.43	5858.6	
770.6	7394.5	
770.78	7916.8	
770.96	4754	
771.14	5419.6	
771.31	6469.5	
771.49	5787.6	
771.67	3842.7	
771.85	4089.8	
772.02	4973.8	
772.2	5810.8	
772.38	4896	
772.55	4339.6	
772.73	6113.9	
772.91	5812.1	
773.09	4812	
773.26	4807.3	
773.44	6049.7	
773.62	5721.3	
773.8	4192.2	
773.97	3913.7	
774.15	6125.5	
774.33	5682.4	
774.5	4102.8	
774.68	4548.5	
774.86	6286.6	
775.04	5742.5	
775.21	4184.7	
775.39	4164.9	
775.57	6027.9	
775.74	6433.4	
775.92	3998.3	
776.1	3872.7	
776.27	5964.4	
776.45	7311.9	
776.63	4158.1	
776.81	3704.1	
776.98	5568.4	
777.16	6691.4	
777.34	4373.1	
777.51	4321.2	
777.69	5549.3	
777.87	5376.6	
778.04	4328.7	
778.22	5066	
778.4	5382.7	
778.57	6071.5	
778.75	3581.9	
778.93	3902.7	
779.1	5179.3	
779.28	5072.8	
779.46	3622.2	
779.64	4125.3	
779.81	6252.4	
779.99	7242.3	
780.17	4997.7	
780.34	5128.1	
780.52	5674.2	
780.69	5904.3	
780.87	4538.3	
781.05	3992.2	
781.22	5728.2	
781.4	5828.5	
781.58	4120.5	
781.75	3351.8	
781.93	5806.7	
782.11	5154.1	
782.28	5160.9	
782.46	4183.3	
782.64	4957.4	
782.81	5986.9	
782.99	4250.9	
783.17	4239.3	
783.34	5868.8	
783.52	4993.6	
783.69	4474.1	
783.87	5355.4	
784.05	5102.9	
784.22	5110.4	
784.4	5300.1	
784.58	4586.8	
784.75	6043.6	
784.93	5123.3	
785.1	4179.2	
785.28	4885.8	
785.46	5772.5	
785.63	5138.4	
785.81	4098	
785.99	3992.2	
786.16	5288.5	
786.34	5786.2	
786.51	3993.5	
786.69	4436.6	
786.87	4872.8	
787.04	5500.8	
787.22	3913	
787.39	4831.8	
787.57	5074.2	
787.75	6303	
787.92	5131.5	
788.1	4977.2	
788.27	5250.3	
788.45	4946.5	
788.63	4716.5	
788.8	3343	
788.98	5692	
789.15	4835.3	
789.33	3502.7	
789.5	4231.1	
789.68	6149.4	
789.86	6292.7	
790.03	4638	
790.21	4017.4	
790.38	6066.8	
790.56	5294.7	
790.73	3926	
790.91	3951.9	
791.09	5152	
791.26	5934.3	
791.44	4157.4	
791.61	3639.2	
791.79	5143.8	
791.96	5231.9	
792.14	3704.8	
792.32	3211.9	
792.49	5175.9	
792.67	5261.9	
792.84	3795.6	
793.02	3586.7	
793.19	5633.3	
793.37	6451.8	
793.54	3246	
793.72	3633.8	
793.89	6567.2	
794.07	5167.7	
794.25	4319.2	
794.42	3360	
794.6	6374.6	
794.77	5906.3	
794.95	4578.6	
795.12	3957.4	
795.3	5122.7	
795.47	5836	
795.65	4417.5	
795.82	4244.1	
796	4961.5	
796.17	7012.2	
796.35	4051.6	
796.52	4826.4	
796.7	5739.1	
796.87	5868.1	
797.05	5086.5	
797.22	4907.6	
797.4	5754.8	
797.57	6882.5	
797.75	4222.2	
797.92	3916.4	
798.1	6045.6	
798.27	5141.1	
798.45	3351.8	
798.62	3639.2	
798.8	5498.1	
798.97	5984.2	
799.15	4461.8	
799.32	4289.8	
799.5	4713.1	
799.67	5565	
799.85	4674.8	
800.02	3289	
800.2	5082.4	
800.37	5451	
800.55	4756.7	
800.72	4008.6	
800.9	5959.6	
801.07	6453.8	
801.25	5397.8	
801.42	4409.3	
801.6	6023.8	
801.77	5672.2	
801.95	4063.9	
802.12	3862.5	
802.29	5627.1	
802.47	5741.1	
802.64	4293.9	
802.82	3252.9	
802.99	5087.2	
803.17	6182.1	
803.34	4213.4	
803.52	3801	
803.69	6847	
803.87	4866.7	
804.04	4238.6	
804.21	4331.5	
804.39	6264.7	
804.56	5279.7	
804.74	3589.4	
804.91	4349.2	
805.09	5107	
805.26	5309.7	
805.44	3617.4	
805.61	3956.7	
805.78	5870.8	
805.96	5868.1	
806.13	4394.9	
806.31	4701.5	
806.48	4657.1	
806.66	5253	
806.83	4316.4	
807	4234.5	
807.18	5102.9	
807.35	5545.9	
807.53	4266.6	
807.7	3330	
807.87	6393.8	
808.05	5189.6	
808.22	4690.5	
808.4	3362.8	
808.57	5196.4	
808.74	4802.5	
808.92	3842	
809.09	4962.9	
809.27	4989.5	
809.44	5670.1	
809.61	3437.9	
809.79	3807.9	
809.96	6431.3	
810.14	5944.6	
810.31	3355.3	
810.48	4130.8	
810.66	5285.8	
810.83	6063.4	
811.01	3904.8	
811.18	4373.8	
811.35	6047	
811.53	4546.5	
811.7	4773.8	
811.87	4359.4	
812.05	5175.2	
812.22	5168.4	
812.39	3717.1	
812.57	3656.3	
812.74	5167.7	
812.92	6961.7	
813.09	4057.7	
813.26	4532.2	
813.44	6636.1	
813.61	5091.3	
813.78	3392.8	
813.96	4594.3	
814.13	5201.2	
814.3	4818.9	
814.48	4912.4	
814.65	4135.5	
814.82	6500.9	
815	4942.4	
815.17	4229.1	
815.34	5167	
815.52	5023	
815.69	5117.2	
815.87	4180.6	
816.04	3601	
816.21	5196.4	
816.38	4556	
816.56	4041.3	
816.73	3717.1	
816.9	6580.1	
817.08	6006.7	
817.25	3891.1	
817.42	4797.7	
817.6	4722.6	
817.77	5211.4	
817.94	4274.8	
818.12	3729.4	
818.29	4915.8	
818.46	7878.5	
818.64	3921.2	
818.81	3712.3	
818.98	4765.6	
819.16	7149.5	
819.33	4554.7	
819.5	4171	
819.67	5601.2	
819.85	6275	
820.02	4119.8	
820.19	4371	
820.37	5455.1	
820.54	4938.3	
820.71	4258.4	
820.88	5343.8	
821.06	5408	
821.23	4949.3	
821.4	4291.2	
821.58	4233.2	
821.75	5948.7	
821.92	5319.3	
822.09	3426.9	
822.27	3579.2	
822.44	5188.9	
822.61	5115.8	
822.79	3451.5	
822.96	6710.5	
823.13	5733.6	
823.3	4937	
823.48	3996.3	
823.65	3597.6	
823.82	5928.9	
823.99	4778.6	
824.17	5082.4	
824.34	3657.7	
824.51	6920.1	
824.68	5243.5	
824.86	3784	
825.03	4275.5	
825.2	5228.5	
825.37	6338.5	
825.55	3702.7	
825.72	4229.7	
825.89	6993.1	
826.06	6504.3	
826.24	4087.7	
826.41	4089.1	
826.58	6365.8	
826.75	5559.6	
826.92	3227.6	
827.1	3564.1	
827.27	8794.7	
827.44	6934.4	
827.61	3917.1	
827.79	4788.8	
827.96	4887.8	
828.13	5283.1	
828.3	4087.1	
828.47	3394.8	
828.65	5369.8	
828.82	5326.1	
828.99	5353.4	
829.16	4675.5	
829.34	5860.6	
829.51	5599.1	
829.68	4216.1	
829.85	4386.1	
830.02	6141.9	
830.2	5833.3	
830.37	3220.1	
830.54	5213.4	
830.71	6718.7	
830.88	5120.6	
831.05	3332	
831.23	3806.5	
831.4	6406.7	
831.57	7220.5	
831.74	3885.7	
831.91	3421.5	
832.09	5433.9	
832.26	5827.2	
832.43	4042	
832.6	4605.2	
832.77	5415.5	
832.94	6208.1	
833.12	3269.2	
833.29	4016.1	
833.46	5615.5	
833.63	7468.3	
833.8	4485.1	
833.97	4057.7	
834.15	5814.2	
834.32	5569.1	
834.49	4229.7	
834.66	4324.6	
834.83	6107.7	
835	4883	
835.17	3893.9	
835.35	3846.1	
835.52	5732.9	
835.69	5591	
835.86	4160.8	
836.03	3417.4	
836.2	5820.3	
836.37	5388.2	
836.55	4077.5	
836.72	3775.8	
836.89	5354.8	
837.06	5905.7	
837.23	4196.3	
837.4	4569.7	
837.57	6652.5	
837.75	7435.5	
837.92	3714.3	
838.09	3917.1	
838.26	5390.3	
838.43	6114.6	
838.6	4298.7	
838.77	3784.6	
838.94	7060	
839.11	6741.9	
839.29	4063.2	
839.46	3186.6	
839.63	5810.8	
839.8	5506.3	
839.97	3956	
840.14	3924.6	
840.31	5567.1	
840.48	5838.1	
840.65	3235.1	
840.82	3857	
841	5779.4	
841.17	5766.4	
841.34	3710.9	
841.51	3698.6	
841.68	5696.1	
841.85	5426.4	
842.02	3747.1	
842.19	3127.9	
842.36	5459.2	
842.53	5534.3	
842.7	3636.5	
842.87	4488.5	
843.05	7378.1	
843.22	5485.1	
843.39	3426.9	
843.56	3715	
843.73	5203.2	
843.9	5883.8	
844.07	5937.7	
844.24	4970.4	
844.41	8653.4	
844.58	5025.7	
844.75	3482.2	
844.92	3790.8	
845.09	5791.7	
845.26	5750	
845.43	3599.6	
845.6	3814.7	
845.77	5832.6	
845.94	5524.1	
846.12	4033.1	
846.29	4244.1	
846.46	6066.8	
846.63	5748	
846.8	3599	
846.97	4313	
847.14	6298.9	
847.31	5740.5	
847.48	4057.7	
847.65	4490.5	
847.82	6124.8	
847.99	6070.2	
848.16	4906.9	
848.33	4511.7	
848.5	5289.9	
848.67	6369.2	
848.84	3594.9	
849.01	3735.5	
849.18	5148.6	
849.35	4842.1	
849.52	4539	
849.69	3505.4	
849.86	6039.5	
850.03	6303.6	
850.2	3659.7	
850.37	4442.7	
850.54	6132.3	
850.71	5408.7	
850.88	4349.9	
851.05	3503.4	
851.22	5685.8	
851.39	6354.2	
851.56	3377.8	
851.73	4189.5	
851.9	5074.9	
852.07	6016.9	
852.24	3949.8	
852.41	3575.1	
852.58	5606	
852.75	5173.9	
852.92	4112.3	
853.09	3536.2	
853.26	5332.2	
853.43	6262.7	
853.6	3520.5	
853.77	3101.3	
853.94	6371.2	
854.11	5794.4	
854.28	5367.7	
854.44	3913	
854.61	6802	
854.78	6140.5	
854.95	3564.1	
855.12	4556	
855.29	4622.9	
855.46	6559	
855.63	3573	
855.8	5079	
855.97	5354.8	
856.14	6184.9	
856.31	5154.7	
856.48	3908.2	
856.65	5358.9	
856.82	5029.1	
856.99	3403	
857.16	3900.7	
857.33	7190.4	
857.49	5412.1	
857.66	3864.5	
857.83	4237.2	
858	5404.6	
858.17	5662.6	
858.34	3380.5	
858.51	3587.4	
858.68	6536.4	
858.85	6581.5	
859.02	4136.2	
859.19	4403.1	
859.36	5055.8	
859.52	5117.2	
859.69	3618.8	
859.86	4289.8	
860.03	5130.2	
860.2	6391	
860.37	3238.5	
860.54	3566.2	
860.71	6014.2	
860.88	6474.3	
861.05	4065.2	
861.21	4577.9	
861.38	6514.6	
861.55	4954	
861.72	3226.9	
861.89	4014	
862.06	6095.4	
862.23	6613.6	
862.4	3505.4	
862.56	3772.4	
862.73	5916.6	
862.9	5582.8	
863.07	4224.3	
863.24	3249.4	
863.41	4951.3	
863.58	5042.8	
863.75	3659.7	
863.91	4143.7	
864.08	6471.6	
864.25	5953.4	
864.42	4485.7	
864.59	5105.6	
864.76	6787.7	
864.93	5065.3	
865.09	3474	
865.26	3863.2	
865.43	6305	
865.6	6673.6	
865.77	3121.1	
865.94	3530.7	
866.1	6361	
866.27	6141.9	
866.44	5485.8	
866.61	3351.8	
866.78	5481.7	
866.95	5984.2	
867.11	3488.4	
867.28	3173.7	
867.45	6156.9	
867.62	5100.8	
867.79	4197.7	
867.96	3583.3	
868.12	5061.2	
868.29	6086.6	
868.46	3622.2	
868.63	4821.6	
868.8	6320	
868.97	6006.7	
869.13	3801	
869.3	3725.3	
869.47	5957.5	
869.64	6275.7	
869.81	3589.4	
869.97	3622.9	
870.14	5805.3	
870.31	6498.2	
870.48	3467.2	
870.65	4605.2	
870.81	5393	
870.98	5286.5	
871.15	4139.6	
871.32	3730.7	
871.48	5885.9	
871.65	6558.3	
871.82	3615.3	
871.99	3973.7	
872.16	7001.3	
872.32	6437.4	
872.49	3627	
872.66	3633.1	
872.83	6053.1	
872.99	5298.1	
873.16	4147.1	
873.33	3618.1	
873.5	5588.2	
873.67	5635.3	
873.83	3781.9	
874	4899.4	
874.17	5823.7	
874.34	6987.7	
874.5	4679.6	
874.67	4474.8	
874.84	6500.3	
875.01	5069.4	
875.17	5025	
875.34	3623.5	
875.51	5738.4	
875.68	6899.6	
875.84	4353.3	
876.01	5382.7	
876.18	6005.3	
876.34	5903.6	
876.51	3615.3	
876.68	3502.7	
876.85	5442.8	
877.01	6267.5	
877.18	5095.3	
877.35	3603.7	
877.52	5536.3	
877.68	4979.3	
877.85	3489.7	
878.02	3576.4	
878.18	5628.5	
878.35	5223	
878.52	2855.6	
878.69	3992.2	
878.85	5995.8	
879.02	5943.9	
879.19	5131.5	
879.35	3900	
879.52	5996.5	
879.69	6244.3	
879.86	3101.3	
880.02	3990.1	
880.19	5494	
880.36	6774	
880.52	4182.6	
880.69	4263.9	
880.86	6111.8	
881.02	6176	
881.19	3992.2	
881.36	3894.6	
881.52	5919.3	
881.69	5286.5	
881.86	3887	
882.02	3761.4	
882.19	6279.8	
882.36	7397.9	
882.52	3592.8	
882.69	5076.2	
882.86	5767.8	
883.02	5603.2	
883.19	4375.8	
883.36	4108.2	
883.52	6101.6	
883.69	7021.1	
883.86	3583.3	
884.02	3203	
884.19	6111.8	
884.36	5558.2	
884.52	4098.7	
884.69	3766.9	
884.86	5268.7	
885.02	6681.2	
885.19	3990.8	
885.36	4175.1	
885.52	5586.9	
885.69	5673.6	
885.86	5283.8	
886.02	4668	
886.19	6043.6	
886.35	5477.6	
886.52	3987.4	
886.69	5084.4	
886.85	5090.6	
887.02	6407.4	
887.19	6407.4	
887.35	6407.4	
887.52	6407.4	
887.68	6407.4	
887.85	6407.4	
888.02	6407.4	
888.18	6407.4	
888.35	6407.4	
888.51	6407.4	
888.68	6407.4	
888.85	6407.4	
889.01	6407.4	
889.18	6407.4	
889.35	6407.4	
889.51	6407.4	
889.68	6407.4	
889.84	6407.4	
890.01	6407.4	
890.17	6407.4	
890.34	6407.4	
890.51	6407.4	
890.67	6407.4	
890.84	6407.4	
891	6407.4	
891.17	6407.4	
891.34	6407.4	
891.5	6407.4	
891.67	6407.4	
891.83	6407.4	
892	6407.4	
892.16	6407.4	
892.33	6407.4	
892.5	6407.4	
892.66	6407.4	
892.83	6407.4	
892.99	6407.4	
893.16	6407.4	
893.32	6407.4	
893.49	6407.4	
893.65	6407.4	
893.82	6407.4	
893.99	6407.4	
894.15	6407.4	
894.32	6407.4	
894.48	6407.4	
894.65	6407.4	
894.81	6407.4	
894.98	6407.4	
895.14	6407.4	
895.31	6407.4	
895.47	6407.4	
895.64	6407.4	
895.81	6407.4	
895.97	6407.4	
896.14	6407.4	
896.3	6407.4	
896.47	6407.4	
896.63	6407.4	
896.8	6407.4	
896.96	6407.4	
897.13	6407.4	
897.29	6407.4	
897.46	6407.4	
897.62	6407.4	
897.79	6407.4	
897.95	6407.4	
898.12	6407.4	
898.28	6407.4	
898.45	6407.4	
898.61	6407.4	
898.78	6407.4	
898.94	6407.4	
899.11	6407.4	
899.27	6407.4	
899.44	6407.4	
899.6	6407.4	
899.77	6407.4	
899.93	6407.4	
900.1	6407.4	
900.26	6407.4	
900.43	6407.4	
900.59	6407.4	
900.76	6407.4	
900.92	6407.4	
901.09	6407.4	
901.25	6407.4	
901.42	6407.4	
901.58	6407.4	
901.75	6407.4	
901.91	6407.4	
902.07	6407.4	
902.24	6407.4	
902.4	6407.4	
902.57	6407.4	
902.73	6407.4	
902.9	6407.4	
903.06	6407.4	
903.23	6407.4	
903.39	6407.4	
903.56	6407.4	
903.72	6407.4	
903.88	6407.4	
904.05	6407.4	
904.21	6407.4	
904.38	6407.4	
904.54	6407.4	
904.71	6407.4	
904.87	6407.4	
905.03	6407.4	
905.2	6407.4	
905.36	6407.4	
905.53	6407.4	
905.69	6407.4	
905.86	6407.4	
906.02	6407.4	
906.18	6407.4	
906.35	6407.4	
906.51	6407.4	
906.68	6407.4	
906.84	6407.4	
907.01	6407.4	
907.17	6407.4	
907.33	6407.4	
907.5	6407.4	
907.66	6407.4	
907.83	6407.4	
907.99	6407.4	
908.15	6407.4	
908.32	6407.4	
908.48	6407.4	
908.65	6407.4	
908.81	6407.4	
908.97	6407.4	
909.14	6407.4	
909.3	6407.4	
909.47	6407.4	
909.63	6407.4	
909.79	6407.4	
909.96	6407.4	
910.12	6407.4	
910.28	6407.4	
910.45	6407.4	
910.61	6407.4	
910.78	6407.4	
910.94	6407.4	
911.1	6407.4	
911.27	6407.4	
911.43	6407.4	
911.59	6407.4	
911.76	6407.4	
911.92	6407.4	
912.08	6407.4	
912.25	6407.4	
912.41	6407.4	
912.57	6407.4	
912.74	6407.4	
912.9	6407.4	
913.07	6407.4	
913.23	6407.4	
913.39	6407.4	
913.56	6407.4	
913.72	6407.4	
913.88	6407.4	
914.05	6407.4	
914.21	6407.4	
914.37	6407.4	
914.54	6407.4	
914.7	6407.4	
914.86	6407.4	
915.03	6407.4	
915.19	6407.4	
