Wavelength	Intensities	
nm	a.u.	
179.22	1901.9	
179.44	1896.4	
179.65	1907.3	
179.86	1885.5	
180.08	1901.2	
180.29	5003.2	
180.51	3486.3	
180.72	5634	
180.94	6670.9	
181.15	3261	
181.37	3170.9	
181.58	5554.1	
181.79	5828.5	
182.01	3401	
182.22	3653.6	
182.44	5847	
182.65	4799.8	
182.87	4594.3	
183.08	4043.4	
183.29	6107	
183.51	5012.1	
183.72	3678.8	
183.94	5378.6	
184.15	5366.4	
184.37	5457.2	
184.58	3229.6	
184.79	4420.2	
185.01	4999.8	
185.22	5803.3	
185.44	4717.2	
185.65	3912.3	
185.86	5323.4	
186.08	4929.5	
186.29	3160	
186.51	3348.4	
186.72	5030.5	
186.94	6011.5	
187.15	3950.5	
187.36	4016.1	
187.58	7773.4	
187.79	5561.6	
188.01	4216.1	
188.22	6598.6	
188.43	6607.4	
188.65	5776	
188.86	3345	
189.08	4050.9	
189.29	5259.2	
189.5	5279	
189.72	3728	
189.93	3822.9	
190.15	5981.4	
190.36	7169.9	
190.57	4204.5	
190.79	3979.2	
191	6106.4	
191.22	6000.5	
191.43	4104.1	
191.64	3415.3	
191.86	6287.3	
192.07	6027.9	
192.29	3546.4	
192.5	3794.9	
192.71	6013.5	
192.93	5134.9	
193.14	3712.3	
193.35	3748.5	
193.57	5197.1	
193.78	5985.5	
194	3001.6	
194.21	3663.8	
194.42	4923.3	
194.64	5414.8	
194.85	3999	
195.07	4741.7	
195.28	5468.1	
195.49	4738.3	
195.71	5023.7	
195.92	3501.3	
196.13	5568.4	
196.35	5784.8	
196.56	5309.7	
196.78	4022.9	
196.99	7042.3	
197.2	6612.9	
197.42	4611.3	
197.63	4111.6	
197.84	4844.1	
198.06	5614.8	
198.27	3721.8	
198.48	5040.7	
198.7	5145.9	
198.91	5365.7	
199.13	4033.8	
199.34	4111.6	
199.55	5847.6	
199.77	4714.4	
199.98	3546.4	
200.19	4160.1	
200.41	5341.8	
200.62	5070.1	
200.83	4246.8	
201.05	4564.9	
201.26	5345.9	
201.47	5076.2	
201.69	3599	
201.9	3500.7	
202.11	5424.4	
202.33	6436.8	
202.54	3866.6	
202.76	4421.6	
202.97	5587.5	
203.18	5513.8	
203.4	4272.1	
203.61	4137.6	
203.82	5551.4	
204.04	5089.9	
204.25	4093.9	
204.46	4079.6	
204.68	5415.5	
204.89	5699.5	
205.1	4005.8	
205.32	3433.1	
205.53	5839.4	
205.74	6012.2	
205.96	2916.3	
206.17	4194.2	
206.38	5809.4	
206.6	5899.5	
206.81	4728.8	
207.02	3809.9	
207.24	5668.1	
207.45	6101.6	
207.66	3837.2	
207.88	3363.4	
208.09	5625.8	
208.3	5449.6	
208.52	3567.6	
208.73	3871.3	
208.94	5453.1	
209.15	6119.3	
209.37	3890.5	
209.58	4067.3	
209.79	5930.9	
210.01	5215.5	
210.22	3069.9	
210.43	3237.8	
210.65	5418.9	
210.86	5821	
211.07	3886.4	
211.29	3562.1	
211.5	5772.5	
211.71	5379.3	
211.93	3568.2	
212.14	3547.1	
212.35	5307	
212.56	5643.5	
212.78	4117.1	
212.99	3410.6	
213.2	6369.9	
213.42	5188.9	
213.63	3676.1	
213.84	3930.7	
214.06	4810	
214.27	4865.3	
214.48	3803.8	
214.69	4160.8	
214.91	6115.2	
215.12	6197.8	
215.33	4184	
215.55	4676.9	
215.76	6637.5	
215.97	5849.7	
216.18	4008.6	
216.4	3922.5	
216.61	5121.3	
216.82	5911.1	
217.04	3557.3	
217.25	3663.1	
217.46	6067.4	
217.67	5843.5	
217.89	3193.5	
218.1	3348.4	
218.31	5524.7	
218.53	5579.3	
218.74	3715.7	
218.95	3662.5	
219.16	5331.5	
219.38	6346.7	
219.59	3649.5	
219.8	4339.6	
220.01	6972.7	
220.23	5472.9	
220.44	4783.4	
220.65	3532.1	
220.87	5502.9	
221.08	6082.5	
221.29	3267.9	
221.5	4504.8	
221.72	7456.7	
221.93	5177.9	
222.14	4117.8	
222.35	4891.9	
222.57	5466.7	
222.78	5799.8	
222.99	3872	
223.2	4207.9	
223.42	5694	
223.63	5926.8	
223.84	3005.7	
224.05	3012.6	
224.27	6926.2	
224.48	6328.9	
224.69	4896.7	
224.9	4117.8	
225.12	5630.5	
225.33	5396.4	
225.54	3291.8	
225.75	3688.4	
225.97	4985.4	
226.18	5274.9	
226.39	3947.1	
226.6	3637.2	
226.82	5179.3	
227.03	4976.6	
227.24	4072.7	
227.45	3392.8	
227.67	5793	
227.88	6400.6	
228.09	4547.9	
228.3	4579.9	
228.52	5831.2	
228.73	5379.3	
228.94	3836.5	
229.15	3362.1	
229.36	5304.2	
229.58	5287.2	
229.79	3859.1	
230	4442	
230.21	6548.7	
230.43	5532.2	
230.64	4061.1	
230.85	4179.2	
231.06	5859.2	
231.28	5857.2	
231.49	3360	
231.7	3964.2	
231.91	5749.3	
232.12	5419.6	
232.34	3452.2	
232.55	3927.3	
232.76	6051.1	
232.97	5597.1	
233.18	3573	
233.4	4002.4	
233.61	5724.1	
233.82	5143.1	
234.03	3719.1	
234.25	3717.7	
234.46	7555	
234.67	5494	
234.88	4216.1	
235.09	3621.5	
235.31	5737	
235.52	5315.8	
235.73	4076.1	
235.94	3429.7	
236.15	5096.7	
236.37	6592.4	
236.58	3558.7	
236.79	3933.5	
237	5759.6	
237.21	4914.4	
237.43	4235.2	
237.64	3280.2	
237.85	9909.4	
238.06	5046.2	
238.27	4255.7	
238.48	3385.3	
238.7	5776	
238.91	5253	
239.12	3927.3	
239.33	3891.1	
239.54	4984.1	
239.76	5346.6	
239.97	3850.2	
240.18	3889.8	
240.39	6815	
240.6	5735	
240.82	4075.5	
241.03	3322.5	
241.24	5416.9	
241.45	6275	
241.66	3530	
241.87	4177.9	
242.09	6178	
242.3	6586.3	
242.51	4329.4	
242.72	3928	
242.93	5938.4	
243.14	5401.9	
243.36	4519.2	
243.57	4928.8	
243.78	6316.6	
243.99	5702.2	
244.2	3947.1	
244.41	3564.8	
244.63	4955.4	
244.84	5702.9	
245.05	4151.2	
245.26	3922.5	
245.47	5736.4	
245.68	6007.4	
245.9	5162.9	
246.11	4173.1	
246.32	5318.6	
246.53	5702.9	
246.74	6299.6	
246.95	3287	
247.16	4906.9	
247.38	5438	
247.59	3229	
247.8	3964.2	
248.01	5102.9	
248.22	5360.9	
248.43	3563.5	
248.64	3829.7	
248.86	4835.9	
249.07	5152.7	
249.28	3470.6	
249.49	4019.5	
249.7	5994.4	
249.91	6156.2	
250.12	3206.4	
250.34	3310.2	
250.55	5539.8	
250.76	5453.1	
250.97	4048.2	
251.18	4120.5	
251.39	6111.8	
251.6	5553.4	
251.81	4172.4	
252.03	4149.2	
252.24	5187.5	
252.45	5961	
252.66	3422.8	
252.87	4391.5	
253.08	5489.2	
253.29	7225.9	
253.5	3368.2	
253.72	4793.6	
253.93	5285.1	
254.14	6485.9	
254.35	3771.7	
254.56	3874.8	
254.77	5668.8	
254.98	5022.3	
255.19	3639.9	
255.41	4797.7	
255.62	5538.4	
255.83	6126.2	
256.04	4226.3	
256.25	4111.6	
256.46	6489.3	
256.67	5102.2	
256.88	4031.1	
257.09	4596.3	
257.31	5096	
257.52	5127.4	
257.73	5105.6	
257.94	3637.9	
258.15	5215.5	
258.36	5473.5	
258.57	4720.6	
258.78	2902	
258.99	5954.1	
259.2	5233.2	
259.41	3766.9	
259.63	3871.3	
259.84	6313.9	
260.05	6782.9	
260.26	4934.2	
260.47	3596.9	
260.68	6030.6	
260.89	5343.8	
261.1	4534.9	
261.31	3621.5	
261.52	6062	
261.73	6425.8	
261.95	4812	
262.16	4224.3	
262.37	6178	
262.58	6217.6	
262.79	4772.4	
263	3793.5	
263.21	5524.1	
263.42	4990.9	
263.63	3827	
263.84	3796.9	
264.05	6045.6	
264.26	6391.7	
264.47	4721.9	
264.69	4248.2	
264.9	6217	
265.11	5592.3	
265.32	3572.3	
265.53	3746.4	
265.74	5569.1	
265.95	4848.9	
266.16	4025.6	
266.37	4386.7	
266.58	5573.2	
266.79	5260.5	
267	3680.9	
267.21	3444	
267.42	4992.3	
267.63	5461.2	
267.84	3935.5	
268.06	3389.4	
268.27	5887.2	
268.48	6238.8	
268.69	3790.8	
268.9	4475.5	
269.11	6149.4	
269.32	4927.4	
269.53	3904.1	
269.74	3598.3	
269.95	5748	
270.16	4756.7	
270.37	3893.9	
270.58	4530.8	
270.79	5272.8	
271	5973.2	
271.21	4247.5	
271.42	4055	
271.63	5579.3	
271.84	5141.1	
272.05	3094.5	
272.26	3496.6	
272.47	5496.7	
272.68	5662	
272.89	3721.2	
273.11	4380.6	
273.32	5259.9	
273.53	6433.4	
273.74	4242.7	
273.95	4093.2	
274.16	6070.9	
274.37	5550	
274.58	4237.9	
274.79	3431	
275	5610.8	
275.21	6149.4	
275.42	5141.1	
275.63	4483	
275.84	5681.7	
276.05	7215	
276.26	4175.8	
276.47	3926	
276.68	5309.7	
276.89	6425.2	
277.1	4469.4	
277.31	3463.1	
277.52	5683.1	
277.73	5898.1	
277.94	3388.7	
278.15	3777.1	
278.36	5664	
278.57	5098.1	
278.78	3731.4	
278.99	4280.9	
279.2	5071.5	
279.41	5023	
279.62	4980	
279.83	3471.3	
280.04	6704.4	
280.25	4907.6	
280.46	4901.5	
280.67	3973.1	
280.88	5035.3	
281.09	6139.1	
281.3	4096.6	
281.51	5240.1	
281.72	5104.2	
281.93	6016.2	
282.14	3646.1	
282.35	3911.6	
282.56	5913.9	
282.77	5930.9	
282.98	3796.9	
283.19	4603.8	
283.4	7290.1	
283.61	5356.8	
283.82	3337.5	
284.03	4851.6	
284.24	5534.3	
284.45	6052.4	
284.66	4779.3	
284.87	4694.6	
285.08	5993	
285.29	6193.1	
285.5	3357.3	
285.71	3876.8	
285.92	6071.5	
286.12	6688.7	
286.33	4818.2	
286.54	3852.9	
286.75	5898.8	
286.96	5270.1	
287.17	3480.9	
287.38	4779.3	
287.59	5031.9	
287.8	4984.1	
288.01	3800.3	
288.22	4460.5	
288.43	5953.4	
288.64	4956.1	
288.85	4565.6	
289.06	4276.2	
289.27	6090	
289.48	6437.4	
289.69	4904.2	
289.9	4431.1	
290.11	6081.8	
290.32	5140.4	
290.53	4583.4	
290.74	4259.1	
290.94	5881.1	
291.15	5991.7	
291.36	3697.3	
291.57	4378.6	
291.78	5182.7	
291.99	4870.8	
292.2	3530.7	
292.41	4279.6	
292.62	6009.4	
292.83	5786.9	
293.04	5330.2	
293.25	3522.5	
293.46	5236.7	
293.67	6040.8	
293.88	3665.9	
294.09	3548.4	
294.29	4930.8	
294.5	5610.1	
294.71	3926.6	
294.92	3784.6	
295.13	5213.4	
295.34	6518.7	
295.55	3293.8	
295.76	3358	
295.97	5848.3	
296.18	6614.3	
296.39	3470.6	
296.6	3718.4	
296.81	5558.9	
297.01	5836	
297.22	3870.7	
297.43	3657	
297.64	5083.1	
297.85	5148.6	
298.06	3056.3	
298.27	3323.2	
298.48	5475.6	
298.69	5184.8	
298.9	3961.5	
299.11	3617.4	
299.31	4932.9	
299.52	4989.5	
299.73	4300.7	
299.94	4192.2	
300.15	5393.7	
300.36	5056.4	
300.57	4184.7	
300.78	4166.3	
300.99	5308.3	
301.2	5595.1	
301.4	3651.5	
301.61	3940.3	
301.82	5771.2	
302.03	5895.4	
302.24	4483.7	
302.45	3507.5	
302.66	5741.1	
302.87	6261.3	
303.08	3721.2	
303.29	5076.9	
303.49	5141.8	
303.7	5474.9	
303.91	3253.5	
304.12	4772.4	
304.33	4954.7	
304.54	5614.2	
304.75	3710.2	
304.96	3493.2	
305.16	5774.6	
305.37	6469.5	
305.58	3202.3	
305.79	3353.2	
306	5758.9	
306.21	4856.4	
306.42	3743	
306.63	5616.2	
306.83	5280.3	
307.04	6098.2	
307.25	4100	
307.46	3966.2	
307.67	4648.2	
307.88	5876.3	
308.09	3631	
308.29	3754.6	
308.5	5564.3	
308.71	6064	
308.92	3945.8	
309.13	3519.1	
309.34	5397.8	
309.55	5398.4	
309.75	4560.1	
309.96	4207.9	
310.17	5859.9	
310.38	5156.1	
310.59	4443.4	
310.8	3441.3	
311.01	5253.7	
311.21	5348.6	
311.42	3494.5	
311.63	3586	
311.84	5215.5	
312.05	5671.5	
312.26	4144.4	
312.46	4453.6	
312.67	5307.7	
312.88	5019.6	
313.09	3543	
313.3	3477.5	
313.51	6263.4	
313.71	6572.6	
313.92	3540.9	
314.13	3734.8	
314.34	5547.3	
314.55	5330.2	
314.76	4564.2	
314.96	4020.2	
315.17	5491.3	
315.38	5952.8	
315.59	3574.4	
315.8	3386.7	
316.01	6382.2	
316.21	6381.5	
316.42	3417.4	
316.63	3966.9	
316.84	5313.1	
317.05	6135.7	
317.26	4171	
317.46	3809.2	
317.67	5307.7	
317.88	5855.1	
318.09	4528.1	
318.3	3327.9	
318.5	5180	
318.71	5847.6	
318.92	5795.1	
319.13	4236.6	
319.34	5960.3	
319.54	6053.1	
319.75	3345.7	
319.96	3218	
320.17	5858.6	
320.38	6082.5	
320.58	3222.1	
320.79	3917.8	
321	6038.1	
321.21	6167.1	
321.42	3935.5	
321.62	3269.9	
321.83	5028.4	
322.04	5419.6	
322.25	3800.3	
322.46	3538.2	
322.66	5591	
322.87	5752.7	
323.08	4446.8	
323.29	3486.3	
323.5	6531.7	
323.7	5014.1	
323.91	4894	
324.12	4384.7	
324.33	5539.8	
324.53	5758.2	
324.74	4220.2	
324.95	4422.9	
325.16	4805.2	
325.37	5309.7	
325.57	3593.5	
325.78	3633.1	
325.99	5493.3	
326.2	4938.3	
326.4	5190.2	
326.61	3262.4	
326.82	5358.9	
327.03	5550	
327.24	5053.7	
327.44	4881.7	
327.65	5743.9	
327.86	4601.1	
328.07	4250.2	
328.27	3349.8	
328.48	6109.1	
328.69	5040.7	
328.9	5126.1	
329.1	3875.4	
329.31	5300.1	
329.52	6304.3	
329.73	3554.6	
329.93	4012.7	
330.14	5412.8	
330.35	5751.4	
330.56	5932.3	
330.76	4428.4	
330.97	5290.6	
331.18	5630.5	
331.39	3958	
331.59	3226.9	
331.8	6090	
332.01	6130.3	
332.22	3700	
332.42	4257	
332.63	5564.3	
332.84	5127.4	
333.05	4029	
333.25	3643.3	
333.46	5228.5	
333.67	5423	
333.88	3691.1	
334.08	4191.5	
334.29	7328.3	
334.5	6122.7	
334.7	3418.7	
334.91	5121.3	
335.12	5016.2	
335.33	5937.7	
335.53	4022.2	
335.74	5892	
335.95	5193	
336.16	5063.3	
336.36	3927.3	
336.57	4618.2	
336.78	5017.5	
336.98	6015.6	
337.19	4909	
337.4	3880.2	
337.61	6583.5	
337.81	4978.6	
338.02	3611.9	
338.23	4726	
338.43	6241.5	
338.64	5119.2	
338.85	3586	
339.05	4659.1	
339.26	6304.3	
339.47	4902.8	
339.68	3607.2	
339.88	5328.1	
340.09	5713.2	
340.3	5940.5	
340.5	4184.7	
340.71	3205.8	
340.92	4891.9	
341.13	6124.8	
341.33	3485	
341.54	4172.4	
341.75	5647.6	
341.95	5314.5	
342.16	3980.6	
342.37	4368.3	
342.57	4989.5	
342.78	5477.6	
342.99	4459.8	
343.19	3209.8	
343.4	5833.3	
343.61	5739.1	
343.81	3827	
344.02	3512.3	
344.23	5926.8	
344.43	6337.1	
344.64	4430.4	
344.85	4323.9	
345.06	5726.1	
345.26	6057.2	
345.47	4119.8	
345.68	4886.5	
345.88	4774.5	
346.09	5919.3	
346.3	4198.3	
346.5	3164.8	
346.71	5494.7	
346.92	5205.9	
347.12	3280.2	
347.33	4137.6	
347.54	6061.3	
347.74	6426.5	
347.95	4156	
348.16	3050.1	
348.36	5292	
348.57	4933.6	
348.78	4089.1	
348.98	4429.8	
349.19	5412.8	
349.39	4839.4	
349.6	3294.5	
349.81	3633.8	
350.01	5669.5	
350.22	5141.1	
350.43	3940.3	
350.63	4743.8	
350.84	5561.6	
351.05	5205.9	
351.25	3603.1	
351.46	3231.7	
351.67	6024.4	
351.87	5061.9	
352.08	3836.5	
352.29	4380.6	
352.49	5853.8	
352.7	6005.3	
352.9	3468.6	
353.11	4343.1	
353.32	6574.7	
353.52	5242.8	
353.73	3396.2	
353.94	4373.8	
354.14	5716.6	
354.35	5523.4	
354.55	3558.7	
354.76	3926	
354.97	5668.8	
355.17	5490.6	
355.38	3323.2	
355.59	4630.5	
355.79	5104.2	
356	5563	
356.2	3883.6	
356.41	3364.8	
356.62	4838.7	
356.82	5328.8	
357.03	4167.6	
357.24	3793.5	
357.44	5147.9	
357.65	5271.5	
357.85	5066.7	
358.06	3974.4	
358.27	4835.9	
358.47	5042.1	
358.68	3267.2	
358.88	4190.1	
359.09	5713.8	
359.3	6057.2	
359.5	4842.1	
359.71	4271.4	
359.91	6512.5	
360.12	5801.2	
360.33	4098.7	
360.53	4552.6	
360.74	5066.7	
360.94	5161.6	
361.15	4347.2	
361.36	3469.9	
361.56	5943.9	
361.77	5209.3	
361.97	4840	
362.18	3736.9	
362.38	5899.5	
362.59	4942.4	
362.8	3403	
363	3266.5	
363.21	4737.6	
363.41	5373.2	
363.62	3979.2	
363.83	5098.1	
364.03	5440.1	
364.24	6477.7	
364.44	5080.3	
364.65	5131.5	
364.85	5258.5	
365.06	5121.3	
365.27	3639.9	
365.47	3609.9	
365.68	6227.9	
365.88	5229.1	
366.09	4049.5	
366.29	3735.5	
366.5	5478.3	
366.71	5903.6	
366.91	5017.5	
367.12	4225	
367.32	6538.5	
367.53	5774.6	
367.73	4091.2	
367.94	5128.8	
368.14	5683.8	
368.35	6625.9	
368.56	4121.9	
368.76	3839.9	
368.97	5778	
369.17	7523.6	
369.38	3599.6	
369.58	3888.4	
369.79	4810.7	
369.99	6106.4	
370.2	4857.8	
370.4	4033.1	
370.61	5575.9	
370.82	6724.8	
371.02	3934.1	
371.23	3168.9	
371.43	4685.8	
371.64	6056.5	
371.84	3886.4	
372.05	5113.8	
372.25	7438.9	
372.46	5810.1	
372.66	3872	
372.87	3792.8	
373.07	5881.1	
373.28	7509.2	
373.48	4873.5	
373.69	4524	
373.9	5233.2	
374.1	5291.3	
374.31	4752.7	
374.51	4355.3	
374.72	6118	
374.92	4907.6	
375.13	4955.4	
375.33	4173.8	
375.54	5717.9	
375.74	5094	
375.95	4166.3	
376.15	5369.8	
376.36	5648.3	
376.56	5461.9	
376.77	4245.4	
376.97	4653.7	
377.18	6612.2	
377.38	5690.6	
377.59	5025.7	
377.79	3730	
378	5535.7	
378.2	5943.9	
378.41	3740.3	
378.61	3700.7	
378.82	6013.5	
379.02	5034.6	
379.23	3856.3	
379.43	5048.9	
379.64	6059.3	
379.84	5662	
380.05	3707.5	
380.25	3649.5	
380.46	5737.7	
380.66	5337.7	
380.87	5107	
381.07	5441.5	
381.28	6401.3	
381.48	5788.9	
381.69	3781.2	
381.89	3810.6	
382.1	4663.9	
382.3	5961.6	
382.51	4886.5	
382.71	5832.6	
382.91	5778.7	
383.12	6339.8	
383.32	4134.2	
383.53	4339.6	
383.73	5616.2	
383.94	5408.7	
384.14	4273.4	
384.35	3450.1	
384.55	5324.7	
384.76	5793.7	
384.96	4156	
385.17	4530.8	
385.37	5747.3	
385.58	5077.6	
385.78	4470	
385.98	3325.9	
386.19	5278.3	
386.39	5672.2	
386.6	3953.9	
386.8	4168.3	
387.01	5819	
387.21	5831.9	
387.42	4631.8	
387.62	5135.6	
387.83	5079.6	
388.03	5788.9	
388.23	4159.4	
388.44	4971.8	
388.64	4689.2	
388.85	4900.8	
389.05	4512.4	
389.26	5079	
389.46	6687.3	
389.67	6141.9	
389.87	4446.1	
390.07	4529.4	
390.28	5323.4	
390.48	4937	
390.69	3719.1	
390.89	3990.8	
391.1	5092.6	
391.3	6143.9	
391.5	5177.9	
391.71	5838.1	
391.91	5734.3	
392.12	6822.5	
392.32	5261.9	
392.53	4500.1	
392.73	5186.8	
392.93	5461.9	
393.14	4176.5	
393.34	4953.4	
393.55	5902.2	
393.75	5423.7	
393.95	4209.9	
394.16	4145.1	
394.36	5165.7	
394.57	5863.3	
394.77	3599.6	
394.98	4074.1	
395.18	5080.3	
395.38	5232.6	
395.59	4894	
395.79	3803.8	
396	5198.4	
396.2	5669.5	
396.4	4649.6	
396.61	4612	
396.81	5868.8	
397.02	5097.4	
397.22	4867.3	
397.42	4923.3	
397.63	5808	
397.83	4963.6	
398.04	3790.1	
398.24	4269.3	
398.44	5589.6	
398.65	4689.8	
398.85	3592.8	
399.05	3733.4	
399.26	4929.5	
399.46	6706.4	
399.67	4070.7	
399.87	3818.8	
400.07	5253.7	
400.28	5687.9	
400.48	3866.6	
400.69	4952	
400.89	5857.2	
401.09	6334.4	
401.3	3758	
401.5	4952	
401.7	6605.4	
401.91	6695.5	
402.11	4057	
402.32	4289.1	
402.52	5886.5	
402.72	5803.3	
402.93	4510.3	
403.13	3405.8	
403.33	6660.7	
403.54	5376.6	
403.74	4300.1	
403.94	5236.7	
404.15	5588.2	
404.35	6644.3	
404.56	4072.7	
404.76	5872.9	
404.96	5913.2	
405.17	5707.7	
405.37	5328.1	
405.57	4532.8	
405.78	5875.6	
405.98	5464	
406.18	4029.7	
406.39	4952	
406.59	5902.9	
406.79	5554.1	
407	3842	
407.2	3990.8	
407.4	6000.5	
407.61	6207.4	
407.81	3928	
408.01	6395.1	
408.22	4768.4	
408.42	7000.6	
408.62	5018.2	
408.83	4367.6	
409.03	5360.9	
409.23	5169.1	
409.44	4371.7	
409.64	4700.8	
409.84	6277.7	
410.05	6171.9	
410.25	4448.9	
410.45	4316.4	
410.66	5515.9	
410.86	8060.8	
411.06	4642.7	
411.27	4535.6	
411.47	7733.1	
411.67	5708.4	
411.88	4739	
412.08	4945.8	
412.28	6194.4	
412.49	6808.1	
412.69	4441.4	
412.89	4406.5	
413.09	6594.5	
413.3	6443.6	
413.5	4477.5	
413.7	4032.5	
413.91	5741.1	
414.11	6533	
414.31	4335.5	
414.52	4739.7	
414.72	6223.8	
414.92	6116.6	
415.12	4229.1	
415.33	4791.6	
415.53	6455.2	
415.73	6602	
415.94	5213.4	
416.14	4597	
416.34	5420.3	
416.55	5057.1	
416.75	5844.2	
416.95	5278.3	
417.15	6429.3	
417.36	7295.5	
417.56	5967.8	
417.76	4937	
417.97	6812.9	
418.17	6363.7	
418.37	4558.1	
418.57	4572.4	
418.78	6226.5	
418.98	5932.3	
419.18	5501.5	
419.38	5519.3	
419.59	5948.7	
419.79	5606.7	
419.99	4476.9	
420.2	4930.8	
420.4	6524.1	
420.6	6592.4	
420.8	4377.2	
421.01	4287.8	
421.21	6173.9	
421.41	6492.7	
421.61	4808.6	
421.82	4471.4	
422.02	5698.1	
422.22	6694.8	
422.42	5350.7	
422.63	5016.2	
422.83	5831.2	
423.03	7159.7	
423.23	5054.4	
423.44	3967.6	
423.64	6004.6	
423.84	5828.5	
424.04	4459.8	
424.25	4095.3	
424.45	7027.9	
424.65	6890	
424.85	3891.1	
425.06	4505.5	
425.26	6913.3	
425.46	5912.5	
425.66	5059.2	
425.87	4726	
426.07	6668.2	
426.27	6559.6	
426.47	4848.9	
426.67	4214	
426.88	7032.7	
427.08	6479.1	
427.28	5085.1	
427.48	4131.4	
427.69	5333.6	
427.89	6008.7	
428.09	5064.6	
428.29	4099.4	
428.5	6688	
428.7	6307.1	
428.9	4074.1	
429.1	4607.2	
429.3	6129.6	
429.51	6552.8	
429.71	4400.4	
429.91	5218.2	
430.11	6399.9	
430.31	6647.7	
430.52	4668.7	
430.72	5048.9	
430.92	7080.5	
431.12	6442.2	
431.32	4323.3	
431.53	4802.5	
431.73	5321.3	
431.93	7074.4	
432.13	4289.8	
432.33	4083	
432.54	5799.2	
432.74	6194.4	
432.94	3969.6	
433.14	5086.5	
433.34	6323.4	
433.55	5774.6	
433.75	5013.4	
433.95	6834.8	
434.15	6100.9	
434.35	5757.5	
434.56	4201.7	
434.76	3628.3	
434.96	6089.3	
435.16	6258.6	
435.36	3973.7	
435.56	5184.8	
435.77	5662.6	
435.97	5933	
436.17	5827.2	
436.37	5113.1	
436.57	5584.8	
436.78	5449	
436.98	5580.7	
437.18	5705	
437.38	6239.5	
437.58	5815.5	
437.78	5913.2	
437.99	4436.6	
438.19	6390.3	
438.39	7164.5	
438.59	4416.8	
438.79	3998.3	
438.99	7101.7	
439.2	5872.9	
439.4	4099.4	
439.6	3958.7	
439.8	6199.2	
440	7243.7	
440.2	5003.9	
440.4	5158.8	
440.61	6483.9	
440.81	7045	
441.01	4102.1	
441.21	4988.9	
441.41	6796.5	
441.61	6496.8	
441.81	5279	
442.02	6366.5	
442.22	7330.4	
442.42	6604.7	
442.62	4117.1	
442.82	4231.1	
443.02	6849.1	
443.22	5889.3	
443.43	4577.9	
443.63	4132.8	
443.83	5733.6	
444.03	5776.6	
444.23	5409.4	
444.43	4948.6	
444.63	5991	
444.83	7301.7	
445.04	4193.6	
445.24	5498.8	
445.44	6474.3	
445.64	6563.1	
445.84	5099.4	
446.04	5005.9	
446.24	5841.5	
446.44	6911.9	
446.65	4262.5	
446.85	4635.9	
447.05	5990.3	
447.25	6767.9	
447.45	4759.5	
447.65	4129.4	
447.85	6206.7	
448.05	5899.5	
448.25	5134.3	
448.46	4999.8	
448.66	6100.9	
448.86	5883.1	
449.06	3978.5	
449.26	5145.2	
449.46	6569.2	
449.66	5548.6	
449.86	4623.6	
450.06	4534.2	
450.26	5670.8	
450.47	6331	
450.67	4975.9	
450.87	5309	
451.07	6390.3	
451.27	6142.5	
451.47	4219.5	
451.67	4642.7	
451.87	5777.3	
452.07	7019.8	
452.27	4375.1	
452.47	4396.3	
452.67	6155.5	
452.88	6736.5	
453.08	3741.6	
453.28	5827.8	
453.48	7378.1	
453.68	6072.2	
453.88	4305.5	
454.08	4569.7	
454.28	6412.9	
454.48	6099.5	
454.68	5028.4	
454.88	5623.7	
455.08	6501.6	
455.28	6267.5	
455.48	4151.2	
455.68	4752.7	
455.89	6991.8	
456.09	6560.3	
456.29	4468.7	
456.49	4457.1	
456.69	6761.7	
456.89	6034	
457.09	4930.1	
457.29	5254.4	
457.49	6363	
457.69	6436.8	
457.89	4665.3	
458.09	4091.8	
458.29	6126.8	
458.49	6799.9	
458.69	5081	
458.89	4469.4	
459.09	6933.7	
459.29	7167.2	
459.49	4649.6	
459.69	5444.9	
459.9	6557.6	
460.1	5969.8	
460.3	4551.3	
460.5	4331.5	
460.7	6488.6	
460.9	6193.1	
461.1	3959.4	
461.3	5294.7	
461.5	7053.9	
461.7	6668.2	
461.9	4280.9	
462.1	4781.3	
462.3	6117.3	
462.5	6733.7	
462.7	4384.7	
462.9	4397	
463.1	7716.1	
463.3	7375.4	
463.5	4547.2	
463.7	5484.5	
463.9	6275.7	
464.1	6574.7	
464.3	4592.9	
464.5	4892.6	
464.7	6778.8	
464.9	6524.8	
465.1	6244.3	
465.3	5226.4	
465.5	7280.5	
465.7	7139.2	
465.9	5506.3	
466.1	5337	
466.3	6963.1	
466.5	6750.1	
466.7	6111.8	
466.9	4962.2	
467.1	6643.6	
467.3	7674.4	
467.5	5999.2	
467.7	4873.5	
467.9	7858.1	
468.1	8690.2	
468.3	5711.8	
468.5	6098.2	
468.7	6571.2	
468.9	6616.3	
469.1	5097.4	
469.3	5824.4	
469.5	8535.3	
469.7	6134.3	
469.9	5660.6	
470.1	4855.1	
470.3	6554.2	
470.5	6537.8	
470.7	6161	
470.9	4978.6	
471.1	6318.7	
471.3	6877.1	
471.5	4796.3	
471.69	6765.1	
471.89	6217	
472.09	5840.8	
472.29	5588.9	
472.49	6113.9	
472.69	5983.5	
472.89	6935.8	
473.09	4719.2	
473.29	4961.5	
473.49	6163	
473.69	6431.3	
473.89	5834.7	
474.09	4988.9	
474.29	7590.5	
474.49	7372.7	
474.69	5831.9	
474.89	5175.9	
475.09	6449.1	
475.29	6339.8	
475.49	4606.6	
475.69	4879.6	
475.88	8077.2	
476.08	6682.5	
476.28	4420.2	
476.48	5044.8	
476.68	7238.2	
476.88	7003.4	
477.08	4919.2	
477.28	5230.5	
477.48	6573.3	
477.68	7233.4	
477.88	4713.7	
478.08	5136.3	
478.28	7499.7	
478.48	6694.1	
478.67	5061.9	
478.87	4511.7	
479.07	7308.5	
479.27	6720.8	
479.47	5339.1	
479.67	5267.4	
479.87	7129	
480.07	7699	
480.27	4538.3	
480.47	6240.8	
480.67	6746.7	
480.87	7437.5	
481.06	4794.3	
481.26	5672.9	
481.46	6689.3	
481.66	6636.8	
481.86	5198.4	
482.06	6308.4	
482.26	6393.1	
482.46	7477.1	
482.66	5222.3	
482.86	4850.3	
483.05	6673.6	
483.25	6108.4	
483.45	7778.9	
483.65	5176.6	
483.85	6275.7	
484.05	6632.7	
484.25	5682.4	
484.45	6133.7	
484.65	7542	
484.84	7445.7	
485.04	5079.6	
485.24	5065.3	
485.44	7761.1	
485.64	6048.3	
485.84	4325.3	
486.04	5780.7	
486.24	6429.3	
486.44	6838.2	
486.63	4329.4	
486.83	5035.3	
487.03	6259.3	
487.23	6417	
487.43	4364.2	
487.63	6802	
487.83	6503	
488.02	7610.9	
488.22	5332.2	
488.42	5883.8	
488.62	7363.8	
488.82	6248.4	
489.02	4971.8	
489.22	4980	
489.41	7266.9	
489.61	6873.7	
489.81	4736.3	
490.01	4745.8	
490.21	7116.7	
490.41	7864.9	
490.61	4618.9	
490.8	4816.1	
491	6586.3	
491.2	6027.2	
491.4	5588.9	
491.6	4627.7	
491.8	6730.3	
491.99	6957.6	
492.19	4415.4	
492.39	4874.8	
492.59	7243	
492.79	7277.1	
492.99	5669.5	
493.18	4746.5	
493.38	7251.9	
493.58	7964.6	
493.78	5441.5	
493.98	4984.1	
494.18	6980.2	
494.37	6334.4	
494.57	5591	
494.77	5416.2	
494.97	7027.9	
495.17	7258	
495.37	4945.2	
495.56	5248.3	
495.76	7422.5	
495.96	7071	
496.16	6190.3	
496.36	4936.3	
496.55	7194.5	
496.75	6722.1	
496.95	5436.7	
497.15	5287.9	
497.35	7200.7	
497.54	7166.5	
497.74	5139.7	
497.94	6912.6	
498.14	7895.6	
498.34	7692.9	
498.53	4699.4	
498.73	5584.1	
498.93	6460.7	
499.13	7068.9	
499.33	5306.3	
499.52	5902.9	
499.72	6952.9	
499.92	7384.3	
500.12	4975.2	
500.32	5235.3	
500.51	7378.1	
500.71	7055.3	
500.91	6053.1	
501.11	5650.3	
501.31	7220.5	
501.5	7676.5	
501.7	6295.5	
501.9	5272.8	
502.1	7045.7	
502.29	7375.4	
502.49	5674.9	
502.69	6221	
502.89	7193.8	
503.09	7236.8	
503.28	4825.7	
503.48	4964.3	
503.68	6493.4	
503.88	6529.6	
504.07	5885.9	
504.27	5474.9	
504.47	6845.7	
504.67	7094.2	
504.86	5926.1	
505.06	5573.9	
505.26	6633.4	
505.46	8440.4	
505.65	5447.6	
505.85	5721.3	
506.05	6566.5	
506.25	7092.1	
506.44	4794.3	
506.64	5862.7	
506.84	6633.4	
507.04	7459.4	
507.23	5067.4	
507.43	5777.3	
507.63	8580.3	
507.83	6862.1	
508.02	5704.3	
508.22	5315.2	
508.42	8789.2	
508.62	6582.2	
508.81	5584.8	
509.01	6081.1	
509.21	6483.9	
509.4	6683.2	
509.6	5699.5	
509.8	5072.1	
510	6691.4	
510.19	8149.6	
510.39	5059.8	
510.59	5137.7	
510.79	6399.9	
510.98	7863.5	
511.18	5159.5	
511.38	5279	
511.57	7387	
511.77	7247.1	
511.97	6055.8	
512.17	5016.8	
512.36	7406.8	
512.56	7273	
512.76	5076.9	
512.95	4827.1	
513.15	7463.5	
513.35	6111.1	
513.55	5952.8	
513.74	5070.1	
513.94	7379.5	
514.14	6728.9	
514.33	6051.7	
514.53	5712.5	
514.73	6703.7	
514.92	7017	
515.12	5286.5	
515.32	4961.5	
515.51	7003.4	
515.71	7551.5	
515.91	6875	
516.11	5049.6	
516.3	8768.7	
516.5	6577.4	
516.7	5672.9	
516.89	6221.7	
517.09	6774	
517.29	6632	
517.48	5948.7	
517.68	5367	
517.88	6432	
518.07	7077.1	
518.27	5925.5	
518.47	4871.4	
518.66	7697.6	
518.86	6224.5	
519.06	4768.4	
519.25	5252.4	
519.45	6646.3	
519.65	8071	
519.84	5826.5	
520.04	6537.1	
520.24	8513.4	
520.43	7315.3	
520.63	5584.8	
520.83	5380	
521.02	6488	
521.22	7196.6	
521.42	5932.3	
521.61	6480.5	
521.81	6657.3	
522.01	6899.6	
522.2	5732.3	
522.4	5478.3	
522.6	7451.2	
522.79	6137.8	
522.99	5619.6	
523.18	4840.7	
523.38	7098.3	
523.58	7037.5	
523.77	6761	
523.97	4739.7	
524.17	8806.9	
524.36	7937.9	
524.56	6166.4	
524.76	5726.8	
524.95	6911.9	
525.15	6589	
525.34	5433.9	
525.54	5385.5	
525.74	7201.3	
525.93	6195.1	
526.13	6613.6	
526.33	5312.4	
526.52	7571.3	
526.72	7010.9	
526.91	6602.7	
527.11	5879	
527.31	7580.2	
527.5	8018.5	
527.7	5702.9	
527.89	4671.4	
528.09	6379.4	
528.29	6895.5	
528.48	6141.9	
528.68	5768.4	
528.87	7354.3	
529.07	7487.4	
529.27	5632.6	
529.46	5138.4	
529.66	6913.3	
529.85	7508.5	
530.05	4965.6	
530.25	5824.4	
530.44	8440.4	
530.64	6995.9	
530.83	5434.6	
531.03	5641.5	
531.23	7450.5	
531.42	7268.2	
531.62	6324.1	
531.81	5577.3	
532.01	7490.8	
532.21	7981.6	
532.4	5220.3	
532.6	5575.9	
532.79	8165.9	
532.99	7400	
533.18	5612.1	
533.38	6591.7	
533.58	6986.3	
533.77	7767.9	
533.97	5437.4	
534.16	6348.7	
534.36	7931.1	
534.55	6989	
534.75	6484.6	
534.95	5547.9	
535.14	7730.4	
535.34	6961.7	
535.53	5257.8	
535.73	7308.5	
535.92	8325.7	
536.12	7232.7	
536.31	5390.3	
536.51	6639.5	
536.71	7534.5	
536.9	7051.2	
537.1	5587.5	
537.29	5704.3	
537.49	8011.7	
537.68	6938.5	
537.88	6159.6	
538.07	5239.4	
538.27	7124.2	
538.46	8192.6	
538.66	5128.8	
538.86	5534.3	
539.05	7148.8	
539.25	7598.6	
539.44	5811.5	
539.64	5459.9	
539.83	6999.3	
540.03	8017.8	
540.22	5347.2	
540.42	5618.9	
540.61	7330.4	
540.81	7391.1	
541	5973.2	
541.2	6643.6	
541.39	6859.3	
541.59	7315.3	
541.78	6273.6	
541.98	5354.1	
542.18	6620.4	
542.37	6585.6	
542.57	5884.5	
542.76	6360.3	
542.96	6685.3	
543.15	7482.6	
543.35	5969.1	
543.54	5241.4	
543.74	7813.7	
543.93	7329	
544.13	5988.9	
544.32	7062.8	
544.52	7648.5	
544.71	6866.8	
544.91	5052.3	
545.1	6349.4	
545.3	6864.8	
545.49	7611.6	
545.69	4976.6	
545.88	5548.6	
546.08	8583.7	
546.27	8069	
546.47	6231.3	
546.66	5451.7	
546.86	7836.2	
547.05	8484.1	
547.24	5681.1	
547.44	5424.4	
547.63	6812.2	
547.83	8030.8	
548.02	5971.9	
548.22	6161.7	
548.41	6624.5	
548.61	7991.9	
548.8	5464.7	
549	5421.7	
549.19	7283.9	
549.39	7609.6	
549.58	5102.9	
549.78	5796.4	
549.97	7709.2	
550.17	7224.6	
550.36	6682.5	
550.55	7675.8	
550.75	7228	
550.94	8140	
551.14	5448.3	
551.33	5879.7	
551.53	6627.2	
551.72	7577.5	
551.92	5945.9	
552.11	5586.2	
552.31	7597.3	
552.5	7761.8	
552.69	7322.9	
552.89	5289.2	
553.08	7552.2	
553.28	7311.9	
553.47	5692.7	
553.67	6842.9	
553.86	8366	
554.06	6592.4	
554.25	4922.6	
554.44	5446.9	
554.64	9013.8	
554.83	8572.8	
555.03	5402.5	
555.22	5797.8	
555.42	7869	
555.61	7598	
555.8	5695.4	
556	5973.9	
556.19	6647	
556.39	7954.3	
556.58	5739.8	
556.78	5738.4	
556.97	7458	
557.16	7130.3	
557.36	6999.3	
557.55	5325.4	
557.75	6438.1	
557.94	8174.8	
558.13	5507.7	
558.33	5230.5	
558.52	8039	
558.72	6989	
558.91	5317.9	
559.1	5589.6	
559.3	6619	
559.49	6334.4	
559.69	4976.6	
559.88	5993.7	
560.07	7495.6	
560.27	7819.8	
560.46	6173.3	
560.66	6395.1	
560.85	7242.3	
561.04	6466.1	
561.24	5380	
561.43	5590.3	
561.63	6675.7	
561.82	6935.1	
562.01	6920.1	
562.21	5881.8	
562.4	7432.1	
562.59	8398	
562.79	5720.7	
562.98	5427.1	
563.18	7342.7	
563.37	8837.7	
563.56	6186.2	
563.76	5279.7	
563.95	6733.7	
564.14	6662.7	
564.34	5643.5	
564.53	5477.6	
564.73	7275.1	
564.92	7681.9	
565.11	5855.1	
565.31	5195.7	
565.5	7818.5	
565.69	6799.9	
565.89	5463.3	
566.08	5655.8	
566.27	7770.7	
566.47	8178.2	
566.66	6348	
566.85	4952.7	
567.05	7372.7	
567.24	6689.3	
567.44	5326.8	
567.63	6781.5	
567.82	7615.7	
568.02	7294.2	
568.21	5293.3	
568.4	5713.8	
568.6	7178.8	
568.79	7169.3	
568.98	5156.1	
569.18	5397.8	
569.37	7043.6	
569.56	9095	
569.76	5727.5	
569.95	6630	
570.14	7529.7	
570.34	7467.6	
570.53	5205.9	
570.72	5180.7	
570.91	8019.2	
571.11	7096.9	
571.3	5599.1	
571.49	6616.3	
571.69	7049.1	
571.88	6618.4	
572.07	6174.6	
572.27	6190.3	
572.46	6642.9	
572.65	7770	
572.85	5436.7	
573.04	5834.7	
573.23	8006.2	
573.43	7226.6	
573.62	5120.6	
573.81	5784.1	
574	7210.9	
574.2	7010.2	
574.39	5504.9	
574.58	5657.9	
574.78	8092.2	
574.97	7234.8	
575.16	6012.8	
575.36	6174.6	
575.55	7629.4	
575.74	7862.2	
575.93	5081.7	
576.13	6177.4	
576.32	7058.7	
576.51	7585.7	
576.71	5497.4	
576.9	6851.8	
577.09	7861.5	
577.28	7445.7	
577.48	5986.9	
577.67	4995	
577.86	7105.1	
578.05	7338.6	
578.25	5573.2	
578.44	5809.4	
578.63	7192.5	
578.83	8372.8	
579.02	4960.2	
579.21	6692.8	
579.4	7342.7	
579.6	7064.1	
579.79	5891.3	
579.98	8015.7	
580.17	7696.9	
580.37	7817.1	
580.56	5259.2	
580.75	6049	
580.94	8191.9	
581.14	8102.4	
581.33	6556.2	
581.52	5448.3	
581.71	7597.3	
581.91	8299.7	
582.1	5081.7	
582.29	5762.3	
582.48	7197.9	
582.68	7180.2	
582.87	6177.4	
583.06	5866.1	
583.25	7589.1	
583.45	7337.2	
583.64	6445	
583.83	7182.2	
584.02	7022.5	
584.21	7473	
584.41	6497.5	
584.6	5773.2	
584.79	7210.9	
584.98	8018.5	
585.18	5253.7	
585.37	5205.9	
585.56	6769.2	
585.75	7559.7	
585.94	5489.9	
586.14	6130.3	
586.33	8245.8	
586.52	7210.2	
586.71	6020.3	
586.91	5790.3	
587.1	6730.3	
587.29	7749.5	
587.48	5765.7	
587.67	5552	
587.87	7615	
588.06	7688.8	
588.25	6903	
588.44	6170.5	
588.63	7240.3	
588.83	7841.7	
589.02	5723.4	
589.21	5620.3	
589.4	7083.2	
589.59	6952.2	
589.78	4964.3	
589.98	5217.5	
590.17	6632.7	
590.36	7288.7	
590.55	4711.7	
590.74	5558.2	
590.94	8692.3	
591.13	7238.9	
591.32	5309	
591.51	4853	
591.7	7705.1	
591.89	7122.2	
592.09	4956.1	
592.28	5497.4	
592.47	6352.8	
592.66	8236.2	
592.85	4909.7	
593.05	5172.5	
593.24	6968.6	
593.43	7746.1	
593.62	5208.7	
593.81	5767.8	
594	7028.6	
594.19	7234.1	
594.39	5141.8	
594.58	5052.3	
594.77	7307.2	
594.96	7976.8	
595.15	5109	
595.34	5840.8	
595.54	7476.5	
595.73	6517.3	
595.92	4455	
596.11	5683.1	
596.3	7974.1	
596.49	6598.6	
596.68	5444.2	
596.88	5926.1	
597.07	7589.1	
597.26	6434	
597.45	4943.8	
597.64	6195.1	
597.83	6713.9	
598.02	7348.8	
598.22	5038.7	
598.41	5731.6	
598.6	7108.5	
598.79	6605.4	
598.98	5089.9	
599.17	6040.1	
599.36	7135.8	
599.55	8381.7	
599.74	7167.2	
599.94	6915.3	
600.13	7696.3	
600.32	6527.6	
600.51	4891.9	
600.7	4964.3	
600.89	8471.1	
601.08	8497	
601.27	4792.2	
601.47	5822.4	
601.66	7647.8	
601.85	8415.8	
602.04	5563	
602.23	5823.7	
602.42	6685.9	
602.61	7490.8	
602.8	5427.1	
602.99	5222.3	
603.18	7083.9	
603.37	7335.8	
603.57	5917.9	
603.76	6436.1	
603.95	8138.6	
604.14	7623.9	
604.33	5336.3	
604.52	5627.1	
604.71	7222.5	
604.9	6934.4	
605.09	6225.1	
605.28	6130.3	
605.47	7982.3	
605.66	7642.3	
605.86	5948.7	
606.05	5281.7	
606.24	7849.2	
606.43	6442.9	
606.62	5666.7	
606.81	6356.9	
607	7750.2	
607.19	7027.3	
607.38	5058.5	
607.57	5296	
607.76	6851.8	
607.95	6364.4	
608.14	5782.1	
608.33	6423.8	
608.52	6911.9	
608.72	7783.6	
608.91	4993.6	
609.1	4922.6	
609.29	7011.6	
609.48	6469.5	
609.67	5993	
609.86	5044.1	
610.05	6606.1	
610.24	6980.2	
610.43	4849.6	
610.62	4577.9	
610.81	8111.3	
611	7816.4	
611.19	5053	
611.38	5768.4	
611.57	7279.2	
611.76	8665	
611.95	4870.8	
612.14	4737.6	
612.33	7025.9	
612.52	6627.2	
612.71	5378	
612.9	4582	
613.09	6188.3	
613.28	8577.6	
613.47	5123.3	
613.66	6121.4	
613.85	7191.8	
614.04	6675	
614.24	5188.2	
614.43	4421.6	
614.62	7357.7	
614.81	7234.8	
615	5728.9	
615.19	5760.9	
615.38	6509.1	
615.57	6957.6	
615.76	5650.3	
615.95	6614.3	
616.14	7314.7	
616.33	6963.8	
616.52	5954.8	
616.71	6322.8	
616.9	7333.8	
617.09	7206.1	
617.28	5217.5	
617.47	6538.5	
617.66	6447	
617.85	6344.6	
618.04	6194.4	
618.22	5638.1	
618.41	6737.8	
618.6	7585	
618.79	5482.4	
618.98	5176.6	
619.17	7914.7	
619.36	6214.2	
619.55	5337	
619.74	5451	
619.93	7165.8	
620.12	6560.3	
620.31	5910.4	
620.5	6078.4	
620.69	7710.6	
620.88	8125	
621.07	6768.5	
621.26	5732.3	
621.45	7280.5	
621.64	7324.2	
621.83	5915.9	
622.02	5023.7	
622.21	7331	
622.4	7075	
622.59	6427.2	
622.78	6169.8	
622.97	6685.9	
623.16	7818.5	
623.35	5814.2	
623.54	4970.4	
623.72	6886.6	
623.91	7043	
624.1	6072.9	
624.29	4733.5	
624.48	8080.6	
624.67	7338.6	
624.86	5911.1	
625.05	4935.6	
625.24	8247.9	
625.43	6576.7	
625.62	7731.8	
625.81	5165	
626	7673.7	
626.19	6941.2	
626.38	6115.9	
626.56	5459.2	
626.75	6684.6	
626.94	7441	
627.13	5984.2	
627.32	4678.2	
627.51	7369.3	
627.7	8731.2	
627.89	4863.2	
628.08	5975.3	
628.27	6541.9	
628.46	6815.6	
628.65	5147.2	
628.83	4783.4	
629.02	7370	
629.21	6709.8	
629.4	5560.2	
629.59	5821	
629.78	6559.6	
629.97	7561.8	
630.16	5838.1	
630.35	5367	
630.54	8012.3	
630.72	7712	
630.91	5262.6	
631.1	5915.9	
631.29	7152.2	
631.48	7359.7	
631.67	6011.5	
631.86	5505.6	
632.05	6754.9	
632.24	6844.3	
632.42	5027.8	
632.61	5664.7	
632.8	6936.5	
632.99	6598.6	
633.18	5657.2	
633.37	6161.7	
633.56	7184.3	
633.75	7002.7	
633.93	5689.3	
634.12	5365	
634.31	7960.5	
634.5	7605.5	
634.69	5389.6	
634.88	5917.9	
635.07	6970.6	
635.25	7542	
635.44	6292.7	
635.63	6552.8	
635.82	6861.4	
636.01	6340.5	
636.2	6290	
636.39	5842.2	
636.57	8013	
636.76	7744.1	
636.95	5254.4	
637.14	6708.5	
637.33	7266.9	
637.52	8321.6	
637.7	5039.4	
637.89	5971.9	
638.08	6767.9	
638.27	8396.7	
638.46	6135	
638.65	6543.9	
638.83	8413.1	
639.02	6768.5	
639.21	6023.1	
639.4	6571.2	
639.59	7321.5	
639.78	6925.5	
639.96	5359.5	
640.15	5462.6	
640.34	7055.3	
640.53	7338.6	
640.72	5085.1	
640.91	5414.1	
641.09	6621.1	
641.28	7986.4	
641.47	5428.5	
641.66	6312.5	
641.85	7230.7	
642.03	7662.8	
642.22	5974.6	
642.41	5532.2	
642.6	6758.3	
642.79	6091.3	
642.97	5347.9	
643.16	6095.4	
643.35	6728.3	
643.54	6443.6	
643.73	5267.4	
643.91	6057.2	
644.1	6361.7	
644.29	7055.3	
644.48	5336.3	
644.67	5413.5	
644.85	6660.7	
645.04	6944.7	
645.23	4922	
645.42	5231.2	
645.6	6423.8	
645.79	7737.9	
645.98	5226.4	
646.17	4318.5	
646.36	6323.4	
646.54	6940.6	
646.73	6179.4	
646.92	4911.7	
647.11	6569.9	
647.29	7647.1	
647.48	5002.5	
647.67	4773.1	
647.86	7899.7	
648.05	7902.4	
648.23	5403.2	
648.42	6709.1	
648.61	7270.3	
648.8	6985.6	
648.98	4946.5	
649.17	5290.6	
649.36	6596.5	
649.55	5960.3	
649.73	5117.9	
649.92	5879.7	
650.11	6468.2	
650.3	6795.8	
650.48	5238	
650.67	5034.6	
650.86	7118.1	
651.05	6055.2	
651.23	5202.5	
651.42	5175.9	
651.61	6496.8	
651.79	6696.2	
651.98	5429.2	
652.17	5008	
652.36	7060.7	
652.54	6113.2	
652.73	5054.4	
652.92	4864.6	
653.11	7127.6	
653.29	7142.6	
653.48	4405.9	
653.67	5416.9	
653.85	6869.6	
654.04	8008.2	
654.23	5619.6	
654.42	5148.6	
654.6	6460.7	
654.79	7118.1	
654.98	4602.5	
655.16	5216.2	
655.35	6048.3	
655.54	6063.4	
655.73	4737	
655.91	4663.2	
656.1	7200.7	
656.29	5976.7	
656.47	4280.3	
656.66	6044.9	
656.85	6262.7	
657.03	6266.1	
657.22	4803.2	
657.41	4907.6	
657.59	6343.9	
657.78	6135.7	
657.97	4477.5	
658.16	5227.8	
658.34	7067.5	
658.53	7474.4	
658.72	6222.4	
658.9	6765.8	
659.09	6361.7	
659.28	6505.7	
659.46	4916.5	
659.65	4967.7	
659.84	6262.7	
660.02	6750.8	
660.21	4895.3	
660.4	4780	
660.58	7249.8	
660.77	6569.9	
660.96	5385.5	
661.14	4438.6	
661.33	7680.6	
661.52	7628	
661.7	4420.2	
661.89	8191.2	
662.08	6261.3	
662.26	5774.6	
662.45	4724	
662.64	4808.6	
662.82	6897.6	
663.01	6057.2	
663.2	4813.4	
663.38	5617.6	
663.57	6844.3	
663.75	6682.5	
663.94	5165	
664.13	6519.4	
664.31	6186.9	
664.5	6893.5	
664.69	5389.6	
664.87	6042.9	
665.06	6012.8	
665.25	6769.2	
665.43	6257.2	
665.62	6309.1	
665.8	7051.2	
665.99	6314.6	
666.18	5150.6	
666.36	5320.6	
666.55	6993.1	
666.74	6963.1	
666.92	4777.9	
667.11	6531	
667.29	6347.3	
667.48	6913.3	
667.67	6128.9	
667.85	5245.5	
668.04	6380.8	
668.22	6418.3	
668.41	5310.4	
668.6	5445.5	
668.78	6138.4	
668.97	6419.7	
669.15	5682.4	
669.34	4555.4	
669.53	6222.4	
669.71	6599.2	
669.9	4829.1	
670.08	5447.6	
670.27	6157.6	
670.46	6852.5	
670.64	5654.4	
670.83	5905.7	
671.01	6084.5	
671.2	6761.7	
671.38	4848.9	
671.57	4735.6	
671.76	7346.1	
671.94	7925.6	
672.13	4712.4	
672.31	5812.1	
672.5	6895.5	
672.69	6195.8	
672.87	4844.1	
673.06	5130.8	
673.24	6762.4	
673.43	6197.8	
673.61	5655.8	
673.8	5106.3	
673.98	6934.4	
674.17	7180.9	
674.36	5735	
674.54	5579.3	
674.73	6770.6	
674.91	6931	
675.1	5326.1	
675.28	4915.8	
675.47	6460.7	
675.65	7046.4	
675.84	5160.2	
676.03	5479.7	
676.21	6299.6	
676.4	5741.1	
676.58	5966.4	
676.77	5728.2	
676.95	7669.6	
677.14	6230.6	
677.32	4857.1	
677.51	4583.4	
677.69	7021.1	
677.88	5836.7	
678.06	4758.1	
678.25	4846.2	
678.44	6500.3	
678.62	6238.1	
678.81	4531.5	
678.99	5552.7	
679.18	7332.4	
679.36	6835.4	
679.55	5104.2	
679.73	5746.6	
679.92	6821.8	
680.1	6197.2	
680.29	6394.4	
680.47	5201.8	
680.66	6209.4	
680.84	7053.9	
681.03	4457.7	
681.21	5532.9	
681.4	6196.5	
681.58	6100.2	
681.77	4960.9	
681.95	4755.4	
682.14	7094.8	
682.32	7400	
682.51	5810.1	
682.69	4631.1	
682.88	6165.1	
683.06	6864.8	
683.25	5445.5	
683.43	6003.3	
683.62	6470.2	
683.8	6827.9	
683.99	6021.7	
684.17	5339.7	
684.36	7709.2	
684.54	6338.5	
684.73	4513	
684.91	4795.7	
685.1	6733	
685.28	6146	
685.46	5427.8	
685.65	5439.4	
685.83	7074.4	
686.02	6348	
686.2	4825	
686.39	4984.1	
686.57	6162.3	
686.76	7576.1	
686.94	4838.7	
687.13	4983.4	
687.31	6783.6	
687.5	6273.6	
687.68	4390.8	
687.86	5688.6	
688.05	7977.5	
688.23	5826.5	
688.42	5747.3	
688.6	4872.1	
688.79	6227.9	
688.97	6236.7	
689.16	5335.6	
689.34	4207.2	
689.52	6959.7	
689.71	7167.2	
689.89	5613.5	
690.08	4809.3	
690.26	6467.5	
690.45	6400.6	
690.63	5764.3	
690.81	5001.8	
691	6194.4	
691.18	6158.9	
691.37	5129.5	
691.55	7516.7	
691.74	6131.6	
691.92	8122.9	
692.1	5152.7	
692.29	4575.8	
692.47	6399.9	
692.66	5629.2	
692.84	4809.3	
693.02	5406.6	
693.21	5716.6	
693.39	6273.6	
693.58	5448.3	
693.76	4887.8	
693.94	7534.5	
694.13	7278.5	
694.31	4791.6	
694.5	5916.6	
694.68	6085.2	
694.86	6361	
695.05	5178.6	
695.23	5322.7	
695.42	6764.4	
695.6	9237	
695.78	5819	
695.97	4901.5	
696.15	6790.4	
696.34	6227.9	
696.52	4730.1	
696.7	5515.2	
696.89	6685.3	
697.07	6029.2	
697.25	5393	
697.44	6984.9	
697.62	6504.3	
697.81	6931.7	
697.99	5125.4	
698.17	5608.7	
698.36	5930.2	
698.54	6573.3	
698.72	5438	
698.91	4419.5	
699.09	6186.2	
699.28	6050.4	
699.46	5128.1	
699.64	5000.5	
699.83	5946.6	
700.01	7311.2	
700.19	5818.3	
700.38	4188.1	
700.56	7201.3	
700.74	6041.5	
700.93	4620.2	
701.11	5449	
701.29	6557.6	
701.48	7656.7	
701.66	4803.2	
701.84	4856.4	
702.03	6168.5	
702.21	6821.8	
702.39	4375.8	
702.58	4964.3	
702.76	6550.8	
702.94	6618.4	
703.13	4388.1	
703.31	6852.5	
703.49	5905.7	
703.68	6815	
703.86	4584.7	
704.04	5618.3	
704.23	6405.4	
704.41	6755.6	
704.59	4767.7	
704.78	6042.9	
704.96	7412.3	
705.14	6886	
705.33	4515.1	
705.51	5401.2	
705.69	6250.4	
705.87	7071.6	
706.06	5666	
706.24	4459.1	
706.42	6548.7	
706.61	6850.5	
706.79	5696.8	
706.97	4473.4	
707.16	5924.1	
707.34	6602	
707.52	5627.1	
707.7	4799.1	
707.89	6173.3	
708.07	5835.3	
708.25	5601.2	
708.44	5747.3	
708.62	6066.8	
708.8	7188.4	
708.98	5961.6	
709.17	4851	
709.35	6434.7	
709.53	6494.8	
709.72	4507.6	
709.9	4764.9	
710.08	6727.6	
710.26	6788.3	
710.45	6177.4	
710.63	4861.9	
710.81	6376	
710.99	6388.3	
711.18	5532.9	
711.36	4997	
711.54	6218.3	
711.72	6972.7	
711.91	5102.2	
712.09	4483.7	
712.27	6430.6	
712.45	7079.8	
712.64	5440.8	
712.82	4295.3	
713	5856.5	
713.18	5986.2	
713.37	4461.8	
713.55	5778	
713.73	6983.6	
713.91	5565.7	
714.1	4984.8	
714.28	4493.9	
714.46	6715.3	
714.64	5918.6	
714.83	3949.8	
715.01	4814.8	
715.19	6048.3	
715.37	5420.3	
715.55	4522.6	
715.74	4847.5	
715.92	7051.2	
716.1	4960.9	
716.28	5990.3	
716.47	5038.7	
716.65	5673.6	
716.83	5790.3	
717.01	4842.8	
717.19	5042.1	
717.38	7953.6	
717.56	5455.8	
717.74	5128.8	
717.92	4151.2	
718.1	6696.2	
718.29	5888.6	
718.47	3831.7	
718.65	4474.1	
718.83	6411.5	
719.01	6424.5	
719.2	3627	
719.38	4741.7	
719.56	6146.6	
719.74	7660.8	
719.92	4373.1	
720.11	5453.7	
720.29	6220.4	
720.47	5288.5	
720.65	3932.8	
720.83	4877.6	
721.02	5737.7	
721.2	5444.9	
721.38	4927.4	
721.56	4207.9	
721.74	4963.6	
721.92	5270.1	
722.11	5478.3	
722.29	5087.2	
722.47	6444.3	
722.65	5591	
722.83	4176.5	
723.01	5143.1	
723.2	5760.9	
723.38	5969.1	
723.56	3611.3	
723.74	4809.3	
723.92	5165.7	
724.1	6489.3	
724.29	4100	
724.47	5362.3	
724.65	5254.4	
724.83	5224.4	
725.01	3990.1	
725.19	4948.6	
725.37	5275.6	
725.56	5350	
725.74	3901.4	
725.92	4059.1	
726.1	5242.1	
726.28	5502.9	
726.46	4579.9	
726.64	4269.3	
726.83	5499.5	
727.01	5799.8	
727.19	3797.6	
727.37	4728.8	
727.55	5635.3	
727.73	6164.4	
727.91	3722.5	
728.09	3648.8	
728.28	6254.5	
728.46	6775.4	
728.64	4855.7	
728.82	4737	
729	7249.8	
729.18	6438.8	
729.36	3893.2	
729.54	6422.4	
729.72	7524.2	
729.91	5743.9	
730.09	5896.8	
730.27	4572.4	
730.45	5634.6	
730.63	6313.9	
730.81	5223.7	
730.99	4177.2	
731.17	6745.3	
731.35	5344.5	
731.53	4780.6	
731.71	4333.5	
731.9	6507.8	
732.08	6731	
732.26	4605.2	
732.44	4309.6	
732.62	6787	
732.8	6169.8	
732.98	5098.1	
733.16	4038.6	
733.34	6262.7	
733.52	5005.2	
733.7	4602.5	
733.88	4946.5	
734.07	6101.6	
734.25	5855.1	
734.43	4055	
734.61	5726.1	
734.79	7363.1	
734.97	5659.2	
735.15	4221.5	
735.33	4579.3	
735.51	6101.6	
735.69	5655.8	
735.87	5867.4	
736.05	4791.6	
736.23	5948.7	
736.41	5694.7	
736.59	4674.1	
736.77	4759.5	
736.95	6386.2	
737.13	5828.5	
737.32	4236.6	
737.5	4437.3	
737.68	6885.3	
737.86	5711.8	
738.04	4065.9	
738.22	6044.2	
738.4	5462.6	
738.58	5783.5	
738.76	4749.9	
738.94	3638.6	
739.12	5663.3	
739.3	5501.5	
739.48	5354.8	
739.66	5102.9	
739.84	5872.2	
740.02	5840.1	
740.2	3728	
740.38	4081.6	
740.56	6285.2	
740.74	5082.4	
740.92	4810	
741.1	4719.9	
741.28	5683.1	
741.46	5584.1	
741.64	4445.5	
741.82	4906.9	
742	5793.7	
742.18	5752.1	
742.36	4589.5	
742.54	4174.4	
742.72	6427.9	
742.9	5041.4	
743.08	5020.3	
743.26	3734.8	
743.44	6630	
743.62	6377.4	
743.8	5159.5	
743.98	4226.3	
744.16	6072.2	
744.34	5819.6	
744.52	5039.4	
744.7	5016.2	
744.88	6247.7	
745.06	5777.3	
745.24	5130.2	
745.42	5259.2	
745.6	6373.3	
745.78	6146.6	
745.96	3939.6	
746.14	4287.8	
746.32	7169.9	
746.5	6434.7	
746.68	4852.3	
746.86	4346.5	
747.03	6857.3	
747.21	5109.7	
747.39	4869.4	
747.57	4371.7	
747.75	6018.3	
747.93	6449.1	
748.11	4393.6	
748.29	4219.5	
748.47	7662.8	
748.65	5800.5	
748.83	5069.4	
749.01	4805.9	
749.19	6226.5	
749.37	5401.2	
749.55	4676.2	
749.73	4782.7	
749.91	5895.4	
750.09	5621	
750.26	4797.7	
750.44	4143	
750.62	5887.9	
750.8	5922.7	
750.98	4016.7	
751.16	4355.3	
751.34	5998.5	
751.52	5262.6	
751.7	5176.6	
751.88	4033.1	
752.06	6455.2	
752.24	6318	
752.42	3943.7	
752.59	4399	
752.77	5887.9	
752.95	7153.6	
753.13	5088.5	
753.31	4478.9	
753.49	5588.2	
753.67	6068.8	
753.85	4848.2	
754.03	4382	
754.21	6320	
754.38	6700.3	
754.56	4573.8	
754.74	3635.1	
754.92	5635.3	
755.1	6350.1	
755.28	3715.7	
755.46	3695.9	
755.64	7182.2	
755.82	7369.3	
755.99	4165.6	
756.17	4198.3	
756.35	4883	
756.53	6520	
756.71	3201	
756.89	4132.1	
757.07	6036.7	
757.25	5106.3	
757.42	4644.8	
757.6	5550	
757.78	6057.9	
757.96	5038.7	
758.14	4247.5	
758.32	3747.1	
758.5	4583.4	
758.67	5426.4	
758.85	4160.8	
759.03	4265.9	
759.21	5628.5	
759.39	5036.6	
759.57	3680.2	
759.75	4916.5	
759.92	6290.7	
760.1	5471.5	
760.28	5254.4	
760.46	5483.8	
760.64	5259.9	
760.82	5029.1	
760.99	4841.4	
761.17	4186.7	
761.35	6004	
761.53	5032.5	
761.71	4267.3	
761.89	5055.8	
762.06	6006.7	
762.24	5478.3	
762.42	4328	
762.6	4138.3	
762.78	5483.1	
762.96	5374.6	
763.13	4730.8	
763.31	4467.3	
763.49	6272.9	
763.67	5401.2	
763.85	5322	
764.02	5920	
764.2	6539.2	
764.38	5656.5	
764.56	4347.2	
764.74	5236	
764.91	6680.5	
765.09	5578.7	
765.27	3970.3	
765.45	3801.7	
765.63	6681.8	
765.8	6563.7	
765.98	3510.2	
766.16	3931.4	
766.34	5072.8	
766.52	4860.5	
766.69	4842.1	
766.87	3743	
767.05	5562.3	
767.23	6351.4	
767.41	4043.4	
767.58	4364.2	
767.76	6158.9	
767.94	6246.3	
768.12	4175.1	
768.29	5036	
768.47	5677	
768.65	6440.9	
768.83	3796.9	
769	4940.4	
769.18	5181.4	
769.36	6004	
769.54	4758.8	
769.72	3817.4	
769.89	6282.5	
770.07	6404.7	
770.25	4184.7	
770.43	5450.3	
770.6	7130.3	
770.78	7491.5	
770.96	4345.8	
771.14	5043.5	
771.31	6216.3	
771.49	5503.6	
771.67	3509.5	
771.85	3773	
772.02	4717.8	
772.2	5525.4	
772.38	4675.5	
772.55	4052.2	
772.73	5792.3	
772.91	5590.3	
773.09	4454.3	
773.26	4497.3	
773.44	5746.6	
773.62	5489.9	
773.8	3967.6	
773.97	3667.9	
774.15	5937.1	
774.33	5453.1	
774.5	3862.5	
774.68	4244.8	
774.86	6089.3	
775.04	5440.8	
775.21	3926	
775.39	3968.3	
775.57	5739.8	
775.74	6205.3	
775.92	3803.1	
776.1	3676.8	
776.27	5831.2	
776.45	7041.6	
776.63	3986.7	
776.81	3453.6	
776.98	5396.4	
777.16	6518.7	
777.34	4160.8	
777.51	4111	
777.69	5407.3	
777.87	5150	
778.04	4176.5	
778.22	4862.6	
778.4	5175.2	
778.57	5862.7	
778.75	3398.9	
778.93	3717.7	
779.1	4982.7	
779.28	4882.4	
779.46	3448.1	
779.64	3953.3	
779.81	6118.6	
779.99	7039.6	
780.17	4797.7	
780.34	5012.7	
780.52	5521.3	
780.69	5752.7	
780.87	4328.7	
781.05	3814	
781.22	5586.2	
781.4	5711.1	
781.58	3959.4	
781.75	3171.6	
781.93	5681.7	
782.11	5048.9	
782.28	4975.9	
782.46	4015.4	
782.64	4825.7	
782.81	5857.2	
782.99	4102.1	
783.17	4086.4	
783.34	5735	
783.52	4857.8	
783.69	4380.6	
783.87	5160.9	
784.05	4943.8	
784.22	5019.6	
784.4	5079	
784.58	4388.8	
784.75	5998.5	
784.93	4992.3	
785.1	4043.4	
785.28	4767.7	
785.46	5695.4	
785.63	4988.9	
785.81	3998.3	
785.99	3906.8	
786.16	5188.9	
786.34	5592.3	
786.51	3926.6	
786.69	4342.4	
786.87	4756.7	
787.04	5351.3	
787.22	3735.5	
787.39	4738.3	
787.57	5040.1	
787.75	6208.8	
787.92	4960.2	
788.1	4889.2	
788.27	5095.3	
788.45	4779.3	
788.63	4584.7	
788.8	3264.5	
788.98	5437.4	
789.15	4762.2	
789.33	3399.6	
789.5	4115.7	
789.68	6027.2	
789.86	6079.7	
790.03	4512.4	
790.21	4007.9	
790.38	5987.6	
790.56	5213.4	
790.73	3807.2	
790.91	3866.6	
791.09	5111.7	
791.26	5831.2	
791.44	4078.9	
791.61	3460.4	
791.79	4999.8	
791.96	5176.6	
792.14	3622.2	
792.32	3179.8	
792.49	5057.8	
792.67	5199.8	
792.84	3653.6	
793.02	3448.1	
793.19	5500.2	
793.37	6296.1	
793.54	3167.5	
793.72	3564.1	
793.89	6400.6	
794.07	5046.9	
794.25	4205.2	
794.42	3293.8	
794.6	6133.7	
794.77	5808	
794.95	4509.6	
795.12	3886.4	
795.3	5043.5	
795.47	5737	
795.65	4309.6	
795.82	4099.4	
796	4858.5	
796.17	6845	
796.35	3966.9	
796.52	4735.6	
796.7	5609.4	
796.87	5735.7	
797.05	4924.7	
797.22	4814.8	
797.4	5745.2	
797.57	6734.4	
797.75	4156.7	
797.92	3865.9	
798.1	5979.4	
798.27	5046.9	
798.45	3319.8	
798.62	3627	
798.8	5450.3	
798.97	5924.1	
799.15	4361.5	
799.32	4162.8	
799.5	4545.8	
799.67	5466.7	
799.85	4532.2	
800.02	3198.9	
800.2	4996.4	
800.37	5393	
800.55	4716.5	
800.72	3885	
800.9	5863.3	
801.07	6300.2	
801.25	5302.2	
801.42	4289.8	
801.6	5906.3	
801.77	5592.3	
801.95	3803.8	
802.12	3788.7	
802.29	5627.1	
802.47	5603.9	
802.64	4225	
802.82	3229	
802.99	5032.5	
803.17	6083.1	
803.34	4139.6	
803.52	3708.2	
803.69	6841.6	
803.87	4814.1	
804.04	4173.1	
804.21	4185.4	
804.39	6175.3	
804.56	5227.8	
804.74	3509.5	
804.91	4293.9	
805.09	5107	
805.26	5117.9	
805.44	3588.7	
805.61	3908.2	
805.78	5709.1	
805.96	5826.5	
806.13	4326	
806.31	4657.8	
806.48	4584	
806.66	5178.6	
806.83	4299.4	
807	4169.7	
807.18	5070.8	
807.35	5467.4	
807.53	4207.9	
807.7	3323.9	
807.87	6307.7	
808.05	5133.6	
808.22	4673.5	
808.4	3313.6	
808.57	5085.8	
808.74	4764.3	
808.92	3827	
809.09	4837.3	
809.27	4965	
809.44	5541.1	
809.61	3372.3	
809.79	3751.2	
809.96	6326.9	
810.14	5883.8	
810.31	3312.2	
810.48	4027.7	
810.66	5230.5	
810.83	5988.3	
811.01	3818.1	
811.18	4554	
811.35	5927.5	
811.53	4606.6	
811.7	4689.8	
811.87	4347.2	
812.05	5114.5	
812.22	5020.3	
812.39	3661.1	
812.57	3536.8	
812.74	5148.6	
812.92	6866.8	
813.09	4008.6	
813.26	4375.8	
813.44	6594.5	
813.61	5060.5	
813.78	3317.7	
813.96	4521.2	
814.13	5091.9	
814.3	4771.8	
814.48	4841.4	
814.65	3994.2	
814.82	6371.9	
815	4838	
815.17	4111	
815.34	5096	
815.52	5106.3	
815.69	5049.6	
815.87	4098.7	
816.04	3512.3	
816.21	5107	
816.38	4525.3	
816.56	3974.4	
816.73	3728	
816.9	6470.2	
817.08	5940.5	
817.25	3719.8	
817.42	4731.5	
817.6	4685.1	
817.77	5218.9	
817.94	4229.7	
818.12	3657	
818.29	4896.7	
818.46	7705.1	
818.64	3815.4	
818.81	3559.4	
818.98	4764.9	
819.16	6983.6	
819.33	4442	
819.5	4135.5	
819.67	5470.8	
819.85	6140.5	
820.02	4093.2	
820.19	4285.7	
820.37	5382.7	
820.54	4950.6	
820.71	4171.7	
820.88	5230.5	
821.06	5352.7	
821.23	4901.5	
821.4	4298.7	
821.58	4166.9	
821.75	5902.2	
821.92	5287.2	
822.09	3333.4	
822.27	3474	
822.44	5108.3	
822.61	5091.9	
822.79	3340.2	
822.96	6697.5	
823.13	5692.7	
823.3	4837.3	
823.48	3871.3	
823.65	3536.8	
823.82	5872.9	
823.99	4660.5	
824.17	4996.4	
824.34	3589.4	
824.51	6783.6	
824.68	5229.8	
824.86	3704.1	
825.03	4229.7	
825.2	5149.3	
825.37	6215.6	
825.55	3717.1	
825.72	4193.6	
825.89	6869.6	
826.06	6360.3	
826.24	4041.3	
826.41	4104.1	
826.58	6281.1	
826.75	5449.6	
826.92	3216.7	
827.1	3521.1	
827.27	8583	
827.44	6817	
827.61	3839.3	
827.79	4642.7	
827.96	4864.6	
828.13	5227.1	
828.3	3993.5	
828.47	3337.5	
828.65	5341.1	
828.82	5261.9	
828.99	5210	
829.16	4468	
829.34	5732.9	
829.51	5496.1	
829.68	4173.1	
829.85	4304.8	
830.02	6036.7	
830.2	5777.3	
830.37	3211.2	
830.54	5029.1	
830.71	6605.4	
830.88	5130.2	
831.05	3255.6	
831.23	3793.5	
831.4	6268.8	
831.57	7081.9	
831.74	3876.8	
831.91	3388	
832.09	5347.2	
832.26	5766.4	
832.43	4017.4	
832.6	4541.7	
832.77	5406	
832.94	6197.2	
833.12	3129.3	
833.29	3947.1	
833.46	4969.1	
833.63	7288.7	
833.8	4344.4	
833.97	3971.7	
834.15	5808	
834.32	5536.3	
834.49	4178.5	
834.66	4260.5	
834.83	5986.9	
835	4833.9	
835.17	3795.6	
835.35	3927.3	
835.52	5641.5	
835.69	5490.6	
835.86	4083	
836.03	3347.7	
836.2	5663.3	
836.37	5370.5	
836.55	3968.3	
836.72	3734.1	
836.89	5274.9	
837.06	5756.2	
837.23	4081.6	
837.4	4506.2	
837.57	6589.7	
837.75	7293.5	
837.92	3678.8	
838.09	3907.5	
838.26	5276.3	
838.43	6072.9	
838.6	4214	
838.77	3704.8	
838.94	6954.9	
839.11	6623.1	
839.29	4019.5	
839.46	3142.9	
839.63	5725.4	
839.8	5438	
839.97	3897.3	
840.14	3885	
840.31	5507	
840.48	5793	
840.65	3159.3	
840.82	3783.3	
841	5738.4	
841.17	5674.9	
841.34	3583.9	
841.51	3580.5	
841.68	5658.5	
841.85	5500.2	
842.02	3679.5	
842.19	3034.4	
842.36	5506.3	
842.53	5517.2	
842.7	3561.4	
842.87	4427.7	
843.05	7265.5	
843.22	5397.8	
843.39	3338.2	
843.56	3657	
843.73	5168.4	
843.9	5836.7	
844.07	5851.7	
844.24	4794.3	
844.41	8514.8	
844.58	4930.1	
844.75	3454.9	
844.92	3775.1	
845.09	5733.6	
845.26	5731.6	
845.43	3594.2	
845.6	3712.3	
845.77	5756.2	
845.94	5418.9	
846.12	3915	
846.29	4128	
846.46	5943.9	
846.63	5771.9	
846.8	3558	
846.97	4198.3	
847.14	6235.4	
847.31	5644.2	
847.48	3994.2	
847.65	4498	
847.82	6056.5	
847.99	6006	
848.16	4819.6	
848.33	4418.2	
848.5	5251.7	
848.67	6209.4	
848.84	3483.6	
849.01	3691.1	
849.18	5160.2	
849.35	4818.2	
849.52	4502.8	
849.69	3452.2	
849.86	5889.3	
850.03	6163	
850.2	3505.4	
850.37	4359.4	
850.54	6049.7	
850.71	5363.6	
850.88	4198.3	
851.05	3510.2	
851.22	5629.2	
851.39	6317.3	
851.56	3353.9	
851.73	4051.6	
851.9	5061.9	
852.07	5985.5	
852.24	3898	
852.41	3478.1	
852.58	5593	
852.75	5097.4	
852.92	3962.1	
853.09	3489.1	
853.26	5289.2	
853.43	6193.1	
853.6	3556.6	
853.77	3039.9	
853.94	6316.6	
854.11	4994.3	
854.28	5272.8	
854.44	3781.2	
854.61	6689.3	
854.78	5827.8	
854.95	3482.9	
855.12	4453.6	
855.29	4616.1	
855.46	6446.3	
855.63	3528.7	
855.8	4898.1	
855.97	5311.1	
856.14	6083.8	
856.31	4991.6	
856.48	3834.5	
856.65	5233.2	
856.82	4988.9	
856.99	3394.2	
857.16	3779.9	
857.33	7043.6	
857.49	5388.2	
857.66	3811.3	
857.83	4163.5	
858	5395	
858.17	5500.2	
858.34	3299.3	
858.51	3530.7	
858.68	6434.7	
858.85	6429.9	
859.02	4206.5	
859.19	4330.8	
859.36	4979.3	
859.52	5031.2	
859.69	3556	
859.86	4265.2	
860.03	5051	
860.2	6315.3	
860.37	3188	
860.54	3578.5	
860.71	5945.3	
860.88	6441.5	
861.05	3971	
861.21	4453	
861.38	6442.2	
861.55	4905.6	
861.72	3202.3	
861.89	3953.3	
862.06	6071.5	
862.23	6565.8	
862.4	3418.1	
862.56	3697.9	
862.73	5879.7	
862.9	5544.5	
863.07	4171.7	
863.24	3150.5	
863.41	4904.2	
863.58	5042.1	
863.75	3609.9	
863.91	4132.1	
864.08	6348	
864.25	5851	
864.42	4410	
864.59	5011.4	
864.76	6728.3	
864.93	5005.2	
865.09	3409.2	
865.26	3831.7	
865.43	6250.4	
865.6	6462.7	
865.77	3095.2	
865.94	3541.6	
866.1	6283.9	
866.27	5996.5	
866.44	5403.2	
866.61	3325.9	
866.78	5425.1	
866.95	5886.5	
867.11	3429.7	
867.28	3099.9	
867.45	6081.8	
867.62	5126.1	
867.79	4127.3	
867.96	3530	
868.12	5094.7	
868.29	6001.9	
868.46	3078.1	
868.63	4783.4	
868.8	6160.3	
868.97	5962.3	
869.13	3653.6	
869.3	3689.8	
869.47	5836.7	
869.64	6051.1	
869.81	3587.4	
869.97	3533.4	
870.14	5793	
870.31	6466.8	
870.48	3441.3	
870.65	4523.3	
870.81	5345.2	
870.98	5321.3	
871.15	4069.3	
871.32	3692.5	
871.48	5769.8	
871.65	6455.9	
871.82	3443.3	
871.99	3934.8	
872.16	6897.6	
872.32	6246.3	
872.49	3575.8	
872.66	3576.4	
872.83	5965.1	
872.99	5261.2	
873.16	4093.2	
873.33	3468.6	
873.5	5555.5	
873.67	5628.5	
873.83	3697.3	
874	4745.8	
874.17	5724.8	
874.34	6834.1	
874.5	4599.7	
874.67	4453.6	
874.84	6425.2	
875.01	5014.8	
875.17	5071.5	
875.34	3543.7	
875.51	5665.4	
875.68	6798.6	
875.84	4246.1	
876.01	5300.8	
876.18	6020.3	
876.34	5873.6	
876.51	3549.1	
876.68	3504.8	
876.85	5434.6	
877.01	6199.9	
877.18	5087.2	
877.35	3501.3	
877.52	5543.2	
877.68	4924.7	
877.85	3445.4	
878.02	3479.5	
878.18	5494	
878.35	5212.8	
878.52	2843.9	
878.69	4006.5	
878.85	5933.6	
879.02	5944.6	
879.19	5033.9	
879.35	3869.3	
879.52	5928.2	
879.69	6143.2	
879.86	3047.4	
880.02	3969.6	
880.19	5474.9	
880.36	6671.6	
880.52	4040	
880.69	4157.4	
880.86	6032	
881.02	6104.3	
881.19	3915	
881.36	3813.3	
881.52	5891.3	
881.69	5227.1	
881.86	3838.6	
882.02	3673.4	
882.19	6159.6	
882.36	7281.9	
882.52	3575.1	
882.69	5059.8	
882.86	5727.5	
883.02	5598.5	
883.19	4260.5	
883.36	4073.4	
883.52	6085.9	
883.69	6886	
883.86	3629.7	
884.02	3181.9	
884.19	5954.8	
884.36	5454.4	
884.52	3984.7	
884.69	3741.6	
884.86	5248.9	
885.02	6581.5	
885.19	3963.5	
885.36	4162.2	
885.52	5484.5	
885.69	5669.5	
885.86	5238.7	
886.02	4546.5	
886.19	5993	
886.35	5424.4	
886.52	3914.4	
886.69	4999.1	
886.85	5074.2	
887.02	6417	
887.19	6417	
887.35	6417	
887.52	6417	
887.68	6417	
887.85	6417	
888.02	6417	
888.18	6417	
888.35	6417	
888.51	6417	
888.68	6417	
888.85	6417	
889.01	6417	
889.18	6417	
889.35	6417	
889.51	6417	
889.68	6417	
889.84	6417	
890.01	6417	
890.17	6417	
890.34	6417	
890.51	6417	
890.67	6417	
890.84	6417	
891	6417	
891.17	6417	
891.34	6417	
891.5	6417	
891.67	6417	
891.83	6417	
892	6417	
892.16	6417	
892.33	6417	
892.5	6417	
892.66	6417	
892.83	6417	
892.99	6417	
893.16	6417	
893.32	6417	
893.49	6417	
893.65	6417	
893.82	6417	
893.99	6417	
894.15	6417	
894.32	6417	
894.48	6417	
894.65	6417	
894.81	6417	
894.98	6417	
895.14	6417	
895.31	6417	
895.47	6417	
895.64	6417	
895.81	6417	
895.97	6417	
896.14	6417	
896.3	6417	
896.47	6417	
896.63	6417	
896.8	6417	
896.96	6417	
897.13	6417	
897.29	6417	
897.46	6417	
897.62	6417	
897.79	6417	
897.95	6417	
898.12	6417	
898.28	6417	
898.45	6417	
898.61	6417	
898.78	6417	
898.94	6417	
899.11	6417	
899.27	6417	
899.44	6417	
899.6	6417	
899.77	6417	
899.93	6417	
900.1	6417	
900.26	6417	
900.43	6417	
900.59	6417	
900.76	6417	
900.92	6417	
901.09	6417	
901.25	6417	
901.42	6417	
901.58	6417	
901.75	6417	
901.91	6417	
902.07	6417	
902.24	6417	
902.4	6417	
902.57	6417	
902.73	6417	
902.9	6417	
903.06	6417	
903.23	6417	
903.39	6417	
903.56	6417	
903.72	6417	
903.88	6417	
904.05	6417	
904.21	6417	
904.38	6417	
904.54	6417	
904.71	6417	
904.87	6417	
905.03	6417	
905.2	6417	
905.36	6417	
905.53	6417	
905.69	6417	
905.86	6417	
906.02	6417	
906.18	6417	
906.35	6417	
906.51	6417	
906.68	6417	
906.84	6417	
907.01	6417	
907.17	6417	
907.33	6417	
907.5	6417	
907.66	6417	
907.83	6417	
907.99	6417	
908.15	6417	
908.32	6417	
908.48	6417	
908.65	6417	
908.81	6417	
908.97	6417	
909.14	6417	
909.3	6417	
909.47	6417	
909.63	6417	
909.79	6417	
909.96	6417	
910.12	6417	
910.28	6417	
910.45	6417	
910.61	6417	
910.78	6417	
910.94	6417	
911.1	6417	
911.27	6417	
911.43	6417	
911.59	6417	
911.76	6417	
911.92	6417	
912.08	6417	
912.25	6417	
912.41	6417	
912.57	6417	
912.74	6417	
912.9	6417	
913.07	6417	
913.23	6417	
913.39	6417	
913.56	6417	
913.72	6417	
913.88	6417	
914.05	6417	
914.21	6417	
914.37	6417	
914.54	6417	
914.7	6417	
914.86	6417	
915.03	6417	
915.19	6417	
